325.333	1	12
325.504	1	14
325.675	1	7
325.846	1	-2
326.017	1	11
326.188	1	21
326.359	1	21
326.531	1	8
326.702	1	18
326.873	1	11
327.044	1	7
327.215	1	-5
327.386	1	4
327.557	1	15
327.728	1	1
327.899	1	8
328.070	1	17
328.241	1	18
328.412	1	8
328.583	1	16
328.754	1	2
328.926	1	17
329.097	1	11
329.268	1	16
329.439	1	8
329.610	1	16
329.781	1	28
329.952	1	21
330.123	1	11
330.294	1	13
330.465	1	21
330.636	1	15
330.807	1	10
330.978	1	19
331.149	1	9
331.320	1	12
331.492	1	18
331.663	1	27
331.834	1	13
332.005	1	14
332.176	1	18
332.347	1	15
332.518	1	9
332.689	1	16
332.860	1	11
333.031	1	19
333.202	1	32
333.373	1	19
333.544	1	10
333.715	1	10
333.886	1	10
334.057	1	11
334.228	1	19
334.399	1	16
334.570	1	29
334.741	1	16
334.912	1	21
335.084	1	19
335.255	1	13
335.426	1	6
335.597	1	15
335.768	1	5
335.939	1	13
336.110	1	13
336.281	1	22
336.452	1	32
336.623	1	19
336.794	1	22
336.965	1	9
337.136	1	17
337.307	1	31
337.478	1	17
337.649	1	17
337.820	1	18
337.991	1	15
338.162	1	18
338.333	1	15
338.504	1	10
338.675	1	14
338.846	1	26
339.017	1	15
339.188	1	26
339.359	1	17
339.530	1	21
339.701	1	8
339.872	1	16
340.043	1	20
340.214	1	13
340.385	1	19
340.556	1	24
340.727	1	22
340.898	1	21
341.069	1	19
341.240	1	32
341.411	1	25
341.582	1	23
341.753	1	21
341.924	1	20
342.095	1	22
342.266	1	9
342.437	1	18
342.608	1	18
342.779	1	30
342.950	1	27
343.121	1	22
343.292	1	28
343.463	1	26
343.634	1	32
343.805	1	6
343.976	1	23
344.147	1	26
344.318	1	26
344.489	1	19
344.660	1	17
344.831	1	34
345.002	1	19
345.173	1	15
345.344	1	19
345.515	1	22
345.686	1	15
345.857	1	15
346.028	1	31
346.199	1	31
346.370	1	22
346.541	1	41
346.712	1	28
346.883	1	29
347.054	1	27
347.225	1	22
347.396	1	30
347.567	1	36
347.738	1	26
347.909	1	32
348.080	1	24
348.251	1	13
348.422	1	30
348.593	1	29
348.764	1	24
348.935	1	16
349.106	1	35
349.277	1	38
349.448	1	28
349.619	1	43
349.790	1	44
349.961	1	32
350.132	1	33
350.303	1	38
350.474	1	34
350.645	1	16
350.816	1	33
350.987	1	28
351.157	1	30
351.328	1	31
351.499	1	38
351.670	1	32
351.841	1	31
352.012	1	22
352.183	1	28
352.354	1	39
352.525	1	27
352.696	1	25
352.867	1	22
353.038	1	35
353.209	1	23
353.380	1	45
353.551	1	35
353.722	1	31
353.893	1	35
354.064	1	29
354.235	1	39
354.406	1	30
354.576	1	16
354.747	1	38
354.918	1	42
355.089	1	30
355.260	1	43
355.431	1	47
355.602	1	42
355.773	1	42
355.944	1	31
356.115	1	31
356.286	1	38
356.457	1	36
356.628	1	48
356.799	1	28
356.970	1	40
357.141	1	43
357.311	1	50
357.482	1	39
357.653	1	29
357.824	1	33
357.995	1	45
358.166	1	34
358.337	1	31
358.508	1	48
358.679	1	28
358.850	1	28
359.021	1	38
359.192	1	31
359.363	1	35
359.533	1	41
359.704	1	38
359.875	1	45
360.046	1	37
360.217	1	41
360.388	1	33
360.559	1	47
360.730	1	35
360.901	1	46
361.072	1	25
361.243	1	40
361.414	1	51
361.584	1	39
361.755	1	42
361.926	1	29
362.097	1	43
362.268	1	46
362.439	1	43
362.610	1	34
362.781	1	36
362.952	1	53
363.123	1	49
363.293	1	46
363.464	1	44
363.635	1	50
363.806	1	43
363.977	1	41
364.148	1	36
364.319	1	41
364.490	1	54
364.661	1	39
364.832	1	50
365.002	1	42
365.173	1	44
365.344	1	35
365.515	1	45
365.686	1	30
365.857	1	46
366.028	1	36
366.199	1	46
366.370	1	45
366.540	1	50
366.711	1	41
366.882	1	41
367.053	1	35
367.224	1	33
367.395	1	48
367.566	1	46
367.737	1	46
367.908	1	42
368.078	1	58
368.249	1	40
368.420	1	39
368.591	1	52
368.762	1	52
368.933	1	34
369.104	1	39
369.274	1	39
369.445	1	48
369.616	1	47
369.787	1	44
369.958	1	47
370.129	1	48
370.300	1	40
370.471	1	56
370.641	1	40
370.812	1	45
370.983	1	46
371.154	1	49
371.325	1	47
371.496	1	44
371.667	1	47
371.837	1	40
372.008	1	49
372.179	1	42
372.350	1	48
372.521	1	41
372.692	1	53
372.863	1	51
373.033	1	54
373.204	1	42
373.375	1	43
373.546	1	53
373.717	1	37
373.888	1	42
374.059	1	61
374.229	1	47
374.400	1	38
374.571	1	43
374.742	1	40
374.913	1	38
375.084	1	53
375.254	1	51
375.425	1	39
375.596	1	46
375.767	1	50
375.938	1	50
376.109	1	49
376.279	1	39
376.450	1	44
376.621	1	50
376.792	1	34
376.963	1	36
377.134	1	47
377.304	1	53
377.475	1	45
377.646	1	47
377.817	1	38
377.988	1	40
378.159	1	43
378.329	1	52
378.500	1	50
378.671	1	58
378.842	1	37
379.013	1	47
379.184	1	55
379.354	1	37
379.525	1	46
379.696	1	60
379.867	1	46
380.038	1	33
380.209	1	49
380.379	1	51
380.550	1	41
380.721	1	53
380.892	1	41
381.063	1	57
381.233	1	45
381.404	1	56
381.575	1	45
381.746	1	49
381.917	1	51
382.087	1	58
382.258	1	54
382.429	1	51
382.600	1	53
382.771	1	59
382.941	1	42
383.112	1	53
383.283	1	52
383.454	1	54
383.625	1	58
383.795	1	50
383.966	1	52
384.137	1	59
384.308	1	54
384.479	1	58
384.649	1	58
384.820	1	45
384.991	1	51
385.162	1	54
385.333	1	57
385.503	1	46
385.674	1	57
385.845	1	57
386.016	1	66
386.187	1	48
386.357	1	57
386.528	1	48
386.699	1	51
386.870	1	50
387.041	1	54
387.211	1	45
387.382	1	57
387.553	1	51
387.724	1	53
387.894	1	57
388.065	1	55
388.236	1	46
388.407	1	45
388.578	1	41
388.748	1	62
388.919	1	73
389.090	1	52
389.261	1	55
389.431	1	67
389.602	1	66
389.773	1	55
389.944	1	51
390.114	1	66
390.285	1	48
390.456	1	62
390.627	1	64
390.798	1	62
390.968	1	54
391.139	1	50
391.310	1	65
391.481	1	44
391.651	1	63
391.822	1	50
391.993	1	65
392.164	1	47
392.334	1	58
392.505	1	52
392.676	1	61
392.847	1	56
393.017	1	73
393.188	1	53
393.359	1	65
393.530	1	67
393.700	1	51
393.871	1	55
394.042	1	56
394.213	1	70
394.383	1	60
394.554	1	53
394.725	1	57
394.896	1	53
395.066	1	59
395.237	1	60
395.408	1	55
395.579	1	59
395.749	1	69
395.920	1	68
396.091	1	54
396.262	1	66
396.432	1	63
396.603	1	56
396.774	1	60
396.945	1	62
397.115	1	59
397.286	1	58
397.457	1	69
397.627	1	63
397.798	1	63
397.969	1	55
398.140	1	69
398.310	1	50
398.481	1	57
398.652	1	61
398.823	1	60
398.993	1	65
399.164	1	55
399.335	1	50
399.505	1	55
399.676	1	64
399.847	1	67
400.018	1	62
400.188	1	52
400.359	1	53
400.530	1	52
400.700	1	64
400.871	1	75
401.042	1	61
401.213	1	50
401.383	1	57
401.554	1	67
401.725	1	71
401.895	1	71
402.066	1	62
402.237	1	58
402.408	1	71
402.578	1	67
402.749	1	64
402.920	1	65
403.090	1	62
403.261	1	69
403.432	1	61
403.603	1	70
403.773	1	65
403.944	1	66
404.115	1	64
404.285	1	66
404.456	1	62
404.627	1	59
404.797	1	54
404.968	1	75
405.139	1	62
405.310	1	75
405.480	1	67
405.651	1	74
405.822	1	75
405.992	1	63
406.163	1	62
406.334	1	60
406.504	1	63
406.675	1	65
406.846	1	56
407.016	1	56
407.187	1	78
407.358	1	61
407.528	1	52
407.699	1	63
407.870	1	62
408.041	1	67
408.211	1	54
408.382	1	56
408.553	1	61
408.723	1	71
408.894	1	68
409.065	1	66
409.235	1	64
409.406	1	57
409.577	1	62
409.747	1	57
409.918	1	60
410.089	1	69
410.259	1	62
410.430	1	60
410.601	1	72
410.771	1	73
410.942	1	81
411.113	1	66
411.283	1	63
411.454	1	59
411.625	1	65
411.795	1	65
411.966	1	61
412.137	1	64
412.307	1	64
412.478	1	63
412.649	1	69
412.819	1	54
412.990	1	58
413.161	1	69
413.331	1	71
413.502	1	70
413.672	1	57
413.843	1	72
414.014	1	76
414.184	1	63
414.355	1	68
414.526	1	64
414.696	1	74
414.867	1	73
415.038	1	60
415.208	1	66
415.379	1	64
415.550	1	70
415.720	1	70
415.891	1	59
416.062	1	70
416.232	1	65
416.403	1	72
416.573	1	77
416.744	1	60
416.915	1	72
417.085	1	76
417.256	1	73
417.427	1	69
417.597	1	58
417.768	1	62
417.939	1	67
418.109	1	59
418.280	1	64
418.450	1	68
418.621	1	52
418.792	1	66
418.962	1	55
419.133	1	65
419.304	1	60
419.474	1	64
419.645	1	57
419.815	1	64
419.986	1	62
420.157	1	51
420.327	1	54
420.498	1	65
420.669	1	63
420.839	1	61
421.010	1	72
421.180	1	63
421.351	1	64
421.522	1	52
421.692	1	68
421.863	1	64
422.033	1	54
422.204	1	68
422.375	1	70
422.545	1	58
422.716	1	62
422.886	1	64
423.057	1	48
423.228	1	65
423.398	1	65
423.569	1	63
423.740	1	53
423.910	1	60
424.081	1	58
424.251	1	58
424.422	1	61
424.593	1	60
424.763	1	69
424.934	1	48
425.104	1	67
425.275	1	58
425.445	1	61
425.616	1	57
425.787	1	53
425.957	1	56
426.128	1	55
426.298	1	54
426.469	1	62
426.640	1	68
426.810	1	66
426.981	1	67
427.151	1	57
427.322	1	71
427.493	1	57
427.663	1	60
427.834	1	59
428.004	1	64
428.175	1	66
428.345	1	53
428.516	1	73
428.687	1	62
428.857	1	63
429.028	1	53
429.198	1	60
429.369	1	47
429.540	1	58
429.710	1	52
429.881	1	57
430.051	1	63
430.222	1	56
430.392	1	78
430.563	1	64
430.734	1	68
430.904	1	58
431.075	1	64
431.245	1	57
431.416	1	56
431.586	1	57
431.757	1	61
431.927	1	63
432.098	1	55
432.269	1	50
432.439	1	73
432.610	1	71
432.780	1	68
432.951	1	51
433.121	1	53
433.292	1	54
433.462	1	56
433.633	1	55
433.804	1	57
433.974	1	47
434.145	1	51
434.315	1	59
434.486	1	60
434.656	1	60
434.827	1	54
434.997	1	57
435.168	1	66
435.339	1	51
435.509	1	51
435.680	1	58
435.850	1	45
436.021	1	61
436.191	1	60
436.362	1	57
436.532	1	62
436.703	1	68
436.873	1	53
437.044	1	53
437.214	1	63
437.385	1	64
437.556	1	52
437.726	1	43
437.897	1	51
438.067	1	57
438.238	1	52
438.408	1	53
438.579	1	64
438.749	1	57
438.920	1	56
439.090	1	48
439.261	1	50
439.431	1	54
439.602	1	48
439.772	1	56
439.943	1	61
440.113	1	42
440.284	1	57
440.455	1	61
440.625	1	65
440.796	1	53
440.966	1	50
441.137	1	51
441.307	1	54
441.478	1	48
441.648	1	48
441.819	1	58
441.989	1	64
442.160	1	45
442.330	1	41
442.501	1	56
442.671	1	46
442.842	1	53
443.012	1	55
443.183	1	53
443.353	1	57
443.524	1	55
443.694	1	46
443.865	1	50
444.035	1	49
444.206	1	43
444.376	1	50
444.547	1	49
444.717	1	54
444.888	1	44
445.058	1	63
445.229	1	50
445.399	1	59
445.570	1	58
445.740	1	64
445.911	1	23
446.081	1	54
446.252	1	47
446.422	1	68
446.593	1	49
446.763	1	59
446.934	1	49
447.104	1	48
447.275	1	43
447.445	1	41
447.616	1	39
447.786	1	45
447.957	1	46
448.127	1	42
448.298	1	45
448.468	1	47
448.639	1	41
448.809	1	57
448.979	1	45
449.150	1	45
449.320	1	48
449.491	1	40
449.661	1	51
449.832	1	44
450.002	1	48
450.173	1	50
450.343	1	59
450.514	1	50
450.684	1	42
450.855	1	55
451.025	1	52
451.196	1	31
451.366	1	47
451.537	1	52
451.707	1	43
451.878	1	44
452.048	1	41
452.218	1	51
452.389	1	55
452.559	1	53
452.730	1	43
452.900	1	57
453.071	1	50
453.241	1	39
453.412	1	42
453.582	1	43
453.753	1	41
453.923	1	58
454.093	1	47
454.264	1	47
454.434	1	55
454.605	1	44
454.775	1	38
454.946	1	37
455.116	1	45
455.287	1	54
455.457	1	42
455.628	1	42
455.798	1	39
455.968	1	48
456.139	1	54
456.309	1	54
456.480	1	51
456.650	1	40
456.821	1	45
456.991	1	38
457.161	1	46
457.332	1	52
457.502	1	45
457.673	1	47
457.843	1	41
458.014	1	51
458.184	1	45
458.355	1	42
458.525	1	50
458.695	1	44
458.866	1	46
459.036	1	51
459.207	1	36
459.377	1	39
459.548	1	47
459.718	1	38
459.888	1	47
460.059	1	51
460.229	1	40
460.400	1	39
460.570	1	46
460.740	1	38
460.911	1	31
461.081	1	46
461.252	1	35
461.422	1	36
461.593	1	40
461.763	1	39
461.933	1	40
462.104	1	44
462.274	1	39
462.445	1	46
462.615	1	50
462.785	1	40
462.956	1	34
463.126	1	52
463.297	1	49
463.467	1	45
463.638	1	21
463.808	1	37
463.978	1	39
464.149	1	28
464.319	1	41
464.490	1	45
464.660	1	35
464.830	1	45
465.001	1	32
465.171	1	29
465.342	1	35
465.512	1	42
465.682	1	44
465.853	1	49
466.023	1	40
466.194	1	44
466.364	1	41
466.534	1	29
466.705	1	37
466.875	1	38
467.045	1	42
467.216	1	39
467.386	1	43
467.557	1	37
467.727	1	38
467.897	1	47
468.068	1	41
468.238	1	38
468.409	1	47
468.579	1	31
468.749	1	41
468.920	1	42
469.090	1	23
469.260	1	46
469.431	1	32
469.601	1	32
469.772	1	44
469.942	1	40
470.112	1	36
470.283	1	34
470.453	1	38
470.623	1	35
470.794	1	39
470.964	1	46
471.135	1	46
471.305	1	41
471.475	1	46
471.646	1	37
471.816	1	38
471.986	1	28
472.157	1	37
472.327	1	32
472.497	1	32
472.668	1	36
472.838	1	43
473.009	1	32
473.179	1	41
473.349	1	29
473.520	1	35
473.690	1	38
473.860	1	40
474.031	1	29
474.201	1	42
474.371	1	48
474.542	1	43
474.712	1	35
474.882	1	29
475.053	1	32
475.223	1	26
475.394	1	29
475.564	1	26
475.734	1	29
475.905	1	38
476.075	1	36
476.245	1	38
476.416	1	33
476.586	1	39
476.756	1	33
476.927	1	33
477.097	1	44
477.267	1	28
477.438	1	39
477.608	1	41
477.778	1	23
477.949	1	29
478.119	1	17
478.289	1	22
478.460	1	27
478.630	1	31
478.800	1	43
478.971	1	18
479.141	1	28
479.311	1	29
479.482	1	11
479.652	1	34
479.822	1	28
479.993	1	33
480.163	1	21
480.333	1	51
480.504	1	23
480.674	1	17
480.844	1	26
481.015	1	27
481.185	1	30
481.355	1	33
481.525	1	15
481.696	1	21
481.866	1	31
482.036	1	21
482.207	1	21
482.377	1	28
482.547	1	22
482.718	1	27
482.888	1	13
483.058	1	38
483.229	1	33
483.399	1	22
483.569	1	13
483.740	1	30
483.910	1	28
484.080	1	35
484.250	1	23
484.421	1	27
484.591	1	26
484.761	1	30
484.932	1	36
485.102	1	23
485.272	1	31
485.443	1	23
485.613	1	29
485.783	1	32
485.953	1	21
486.124	1	30
486.294	1	31
486.464	1	20
486.635	1	13
486.805	1	36
486.975	1	27
487.146	1	27
487.316	1	21
487.486	1	24
487.656	1	31
487.827	1	28
487.997	1	31
488.167	1	32
488.338	1	24
488.508	1	35
488.678	1	32
488.848	1	27
489.019	1	17
489.189	1	21
489.359	1	21
489.529	1	20
489.700	1	22
489.870	1	18
490.040	1	14
490.211	1	14
490.381	1	42
490.551	1	17
490.721	1	31
490.892	1	29
491.062	1	20
491.232	1	15
491.402	1	20
491.573	1	18
491.743	1	26
491.913	1	11
492.084	1	23
492.254	1	43
492.424	1	19
492.594	1	15
492.765	1	19
492.935	1	17
493.105	1	15
493.275	1	28
493.446	1	27
493.616	1	15
493.786	1	15
493.956	1	19
494.127	1	21
494.297	1	34
494.467	1	22
494.637	1	40
494.808	1	16
494.978	1	15
495.148	1	24
495.318	1	25
495.489	1	20
495.659	1	21
495.829	1	28
495.999	1	19
496.170	1	23
496.340	1	17
496.510	1	34
496.680	1	33
496.851	1	28
497.021	1	27
497.191	1	23
497.361	1	23
497.532	1	25
497.702	1	21
497.872	1	26
498.042	1	35
498.213	1	18
498.383	1	27
498.553	1	28
498.723	1	14
498.894	1	28
499.064	1	9
499.234	1	27
499.404	1	24
499.574	1	21
499.745	1	8
499.915	1	19
500.085	1	16
500.255	1	15
500.426	1	15
500.596	1	23
500.766	1	12
500.936	1	23
501.106	1	18
501.277	1	23
501.447	1	13
501.617	1	8
501.787	1	24
501.958	1	15
502.128	1	28
502.298	1	29
502.468	1	24
502.638	1	23
502.809	1	28
502.979	1	19
503.149	1	10
503.319	1	26
503.489	1	18
503.660	1	23
503.830	1	23
504.000	1	17
504.170	1	7
504.340	1	16
504.511	1	21
504.681	1	16
504.851	1	17
505.021	1	25
505.192	1	16
505.362	1	20
505.532	1	22
505.702	1	19
505.872	1	20
506.043	1	2
506.213	1	12
506.383	1	18
506.553	1	25
506.723	1	19
506.893	1	14
507.064	1	18
507.234	1	14
507.404	1	30
507.574	1	16
507.744	1	0
507.915	1	18
508.085	1	13
508.255	1	14
508.425	1	20
508.595	1	23
508.766	1	26
508.936	1	20
509.106	1	27
509.276	1	25
509.446	1	12
509.616	1	26
509.787	1	22
509.957	1	14
510.127	1	17
510.297	1	9
510.467	1	22
510.638	1	11
510.808	1	12
510.978	1	11
511.148	1	16
511.318	1	25
511.488	1	17
511.659	1	2
511.829	1	24
511.999	1	19
512.169	1	8
512.339	1	16
512.509	1	18
512.680	1	7
512.850	1	24
513.020	1	21
513.190	1	15
513.360	1	10
513.530	1	17
513.700	1	14
513.871	1	19
514.041	1	15
514.211	1	22
514.381	1	19
514.551	1	17
514.721	1	21
514.892	1	12
515.062	1	8
515.232	1	14
515.402	1	25
515.572	1	16
515.742	1	17
515.912	1	25
516.083	1	12
516.253	1	11
516.423	1	14
516.593	1	16
516.763	1	17
516.933	1	17
517.104	1	8
517.274	1	20
517.444	1	22
517.614	1	22
517.784	1	14
517.954	1	15
518.124	1	5
518.294	1	18
518.465	1	18
518.635	1	3
518.805	1	13
518.975	1	18
519.145	1	20
519.315	1	23
519.485	1	22
519.656	1	15
519.826	1	17
519.996	1	4
520.166	1	5
520.336	1	26
520.506	1	7
520.676	1	10
520.846	1	12
521.017	1	9
521.187	1	6
521.357	1	21
521.527	1	15
521.697	1	15
521.867	1	10
522.037	1	5
522.207	1	14
522.377	1	7
522.548	1	13
522.718	1	16
522.888	1	6
523.058	1	5
523.228	1	19
523.398	1	9
523.568	1	16
523.738	1	15
523.909	1	13
524.079	1	18
524.249	1	9
524.419	1	13
524.589	1	18
524.759	1	15
524.929	1	18
525.099	1	17
525.269	1	22
525.439	1	9
525.610	1	9
525.780	1	10
525.950	1	15
526.120	1	15
526.290	1	16
526.460	1	19
526.630	1	11
526.800	1	10
526.970	1	7
527.140	1	13
527.311	1	10
527.481	1	17
527.651	1	25
527.821	1	17
527.991	1	15
528.161	1	8
528.331	1	18
528.501	1	11
528.671	1	20
528.841	1	10
529.011	1	7
529.181	1	19
529.352	1	10
529.522	1	3
529.692	1	3
529.862	1	11
530.032	1	5
530.202	1	22
530.372	1	11
530.542	1	19
530.712	1	5
530.882	1	14
531.052	1	13
531.222	1	19
531.392	1	17
531.563	1	10
531.733	1	26
531.903	1	6
532.073	1	16
532.243	1	18
532.413	1	17
532.583	1	6
532.753	1	13
532.923	1	24
533.093	1	-3
533.263	1	7
533.433	1	13
533.603	1	0
533.773	1	15
533.943	1	9
534.113	1	17
534.284	1	18
534.454	1	9
534.624	1	15
534.794	1	23
534.964	1	18
535.134	1	7
535.304	1	15
535.474	1	-1
535.644	1	10
535.814	1	-4
535.984	1	11
536.154	1	11
536.324	1	10
536.494	1	21
536.664	1	0
536.834	1	9
537.004	1	6
537.174	1	10
537.344	1	19
537.514	1	12
537.685	1	5
537.855	1	7
538.025	1	14
538.195	1	23
538.365	1	17
538.535	1	11
538.705	1	10
538.875	1	12
539.045	1	6
539.215	1	17
539.385	1	-2
539.555	1	5
539.725	1	12
539.895	1	21
540.065	1	10
540.235	1	7
540.405	1	24
540.575	1	3
540.745	1	9
540.915	1	13
541.085	1	9
541.255	1	3
541.425	1	2
541.595	1	0
541.765	1	20
541.935	1	19
542.105	1	9
542.275	1	1
542.445	1	11
542.615	1	24
542.785	1	9
542.955	1	9
543.125	1	13
543.295	1	20
543.465	1	-1
543.635	1	11
543.805	1	12
543.975	1	9
544.145	1	14
544.315	1	0
544.485	1	11
544.655	1	9
544.825	1	14
544.995	1	16
545.165	1	17
545.335	1	8
545.505	1	7
545.675	1	15
545.845	1	-3
546.015	1	10
546.185	1	18
546.355	1	7
546.525	1	11
546.695	1	4
546.865	1	5
547.035	1	12
547.205	1	18
547.375	1	11
547.545	1	8
547.715	1	11
547.885	1	22
548.055	1	21
548.225	1	8
548.395	1	15
548.565	1	3
548.735	1	8
548.905	1	3
549.075	1	7
549.245	1	18
549.415	1	10
549.585	1	14
549.755	1	10
549.925	1	4
550.095	1	9
550.265	1	5
550.435	1	8
550.605	1	7
550.775	1	9
550.945	1	2
551.115	1	3
551.285	1	3
551.455	1	-1
551.625	1	10
551.795	1	6
551.965	1	6
552.135	1	0
552.305	1	6
552.475	1	19
552.645	1	12
552.815	1	1
552.985	1	0
553.155	1	7
553.325	1	7
553.495	1	11
553.665	1	11
553.835	1	2
554.004	1	-1
554.174	1	-8
554.344	1	4
554.514	1	12
554.684	1	-2
554.854	1	4
555.024	1	17
555.194	1	14
555.364	1	6
555.534	1	16
555.704	1	8
555.874	1	10
556.044	1	9
556.214	1	-5
556.384	1	17
556.554	1	-1
556.724	1	7
556.894	1	7
557.064	1	-1
557.234	1	9
557.404	1	14
557.573	1	11
557.743	1	5
557.913	1	2
558.083	1	8
558.253	1	4
558.423	1	15
558.593	1	18
558.763	1	15
558.933	1	8
559.103	1	-2
559.273	1	12
559.443	1	2
559.613	1	-4
559.783	1	10
559.953	1	8
560.122	1	7
560.292	1	12
560.462	1	5
560.632	1	14
560.802	1	4
560.972	1	5
561.142	1	5
561.312	1	-9
561.482	1	1
561.652	1	3
561.822	1	5
561.992	1	9
562.162	1	8
562.331	1	1
562.501	1	7
562.671	1	13
562.841	1	8
563.011	1	8
563.181	1	13
563.351	1	7
563.521	1	12
563.691	1	2
563.861	1	19
564.031	1	1
564.201	1	10
564.370	1	10
564.540	1	9
564.710	1	14
564.880	1	4
565.050	1	-2
565.220	1	5
565.390	1	16
565.560	1	15
565.730	1	12
565.900	1	0
566.069	1	10
566.239	1	-5
566.409	1	12
566.579	1	16
566.749	1	17
566.919	1	5
567.089	1	8
567.259	1	12
567.429	1	8
567.599	1	3
567.768	1	1
567.938	1	-8
568.108	1	15
568.278	1	4
568.448	1	9
568.618	1	13
568.788	1	11
568.958	1	23
569.128	1	5
569.297	1	2
569.467	1	15
569.637	1	1
569.807	1	4
569.977	1	10
570.147	1	5
570.317	1	12
570.487	1	4
570.656	1	0
570.826	1	10
570.996	1	9
571.166	1	8
571.336	1	11
571.506	1	6
571.676	1	16
571.846	1	8
572.015	1	-1
572.185	1	4
572.355	1	6
572.525	1	13
572.695	1	6
572.865	1	-2
573.035	1	11
573.205	1	-1
573.374	1	13
573.544	1	1
573.714	1	21
573.884	1	19
574.054	1	13
574.224	1	9
574.394	1	4
574.563	1	15
574.733	1	-5
574.903	1	12
575.073	1	0
575.243	1	5
575.413	1	3
575.583	1	4
575.752	1	13
575.922	1	14
576.092	1	4
576.262	1	2
576.432	1	16
576.602	1	0
576.772	1	6
576.941	1	20
577.111	1	16
577.281	1	14
577.451	1	14
577.621	1	10
577.791	1	0
577.960	1	18
578.130	1	-4
578.300	1	16
578.470	1	6
578.640	1	8
578.810	1	4
578.979	1	14
579.149	1	-2
579.319	1	10
579.489	1	6
579.659	1	-1
579.829	1	0
579.998	1	8
580.168	1	-2
580.338	1	13
580.508	1	2
580.678	1	-2
580.848	1	4
581.017	1	21
581.187	1	5
581.357	1	3
581.527	1	0
581.697	1	13
581.867	1	-8
582.036	1	2
582.206	1	6
582.376	1	2
582.546	1	3
582.716	1	5
582.885	1	3
583.055	1	5
583.225	1	2
583.395	1	10
583.565	1	13
583.735	1	-5
583.904	1	9
584.074	1	17
584.244	1	2
584.414	1	8
584.584	1	0
584.753	1	11
584.923	1	3
585.093	1	2
585.263	1	15
585.433	1	9
585.602	1	6
585.772	1	4
585.942	1	-1
586.112	1	8
586.282	1	9
586.451	1	1
586.621	1	10
586.791	1	6
586.961	1	6
587.131	1	15
587.300	1	-3
587.470	1	4
587.640	1	-1
587.810	1	-2
587.980	1	19
588.149	1	12
588.319	1	-2
588.489	1	16
588.659	1	2
588.829	1	6
588.998	1	14
589.168	1	3
589.338	1	16
589.508	1	4
589.677	1	7
589.847	1	14
590.017	1	3
590.187	1	0
590.357	1	1
590.526	1	10
590.696	1	9
590.866	1	11
591.036	1	3
591.205	1	-1
591.375	1	5
591.545	1	3
591.715	1	16
591.885	1	7
592.054	1	8
592.224	1	1
592.394	1	13
592.564	1	-1
592.733	1	12
592.903	1	9
593.073	1	12
593.243	1	3
593.412	1	5
593.582	1	11
593.752	1	15
593.922	1	1
594.091	1	14
594.261	1	5
594.431	1	7
594.601	1	7
594.771	1	0
594.940	1	12
595.110	1	7
595.280	1	4
595.450	1	2
595.619	1	9
595.789	1	7
595.959	1	2
596.129	1	14
596.298	1	14
596.468	1	11
596.638	1	7
596.808	1	16
596.977	1	15
597.147	1	9
597.317	1	3
597.487	1	4
597.656	1	4
597.826	1	-1
597.996	1	14
598.166	1	10
598.335	1	13
598.505	1	6
598.675	1	2
598.844	1	6
599.014	1	-1
599.184	1	21
599.354	1	5
599.523	1	-1
599.693	1	7
599.863	1	1
600.033	1	5
600.202	1	-2
600.372	1	6
600.542	1	19
600.712	1	17
600.881	1	8
601.051	1	10
601.221	1	6
601.390	1	8
601.560	1	0
601.730	1	9
601.900	1	12
602.069	1	13
602.239	1	-4
602.409	1	25
602.578	1	4
602.748	1	18
602.918	1	5
603.088	1	5
603.257	1	12
603.427	1	7
603.597	1	16
603.767	1	6
603.936	1	14
604.106	1	8
604.276	1	7
604.445	1	-2
604.615	1	8
604.785	1	1
604.954	1	9
605.124	1	4
605.294	1	8
605.464	1	11
605.633	1	9
605.803	1	1
605.973	1	6
606.142	1	7
606.312	1	3
606.482	1	6
606.652	1	10
606.821	1	7
606.991	1	16
607.161	1	20
607.330	1	3
607.500	1	3
607.670	1	5
607.839	1	11
608.009	1	3
608.179	1	-6
608.348	1	13
608.518	1	9
608.688	1	12
608.858	1	12
609.027	1	7
609.197	1	11
609.367	1	4
609.536	1	4
609.706	1	4
609.876	1	-3
610.045	1	6
610.215	1	7
610.385	1	11
610.554	1	13
610.724	1	11
610.894	1	8
611.063	1	-5
611.233	1	16
611.403	1	2
611.572	1	4
611.742	1	2
611.912	1	12
612.081	1	5
612.251	1	10
612.421	1	16
612.590	1	-2
612.760	1	9
612.930	1	8
613.099	1	14
613.269	1	4
613.439	1	14
613.608	1	14
613.778	1	8
613.948	1	15
614.117	1	9
614.287	1	12
614.457	1	4
614.626	1	-4
614.796	1	14
614.966	1	3
615.135	1	8
615.305	1	3
615.475	1	7
615.644	1	8
615.814	1	5
615.984	1	3
616.153	1	5
616.323	1	-4
616.493	1	14
616.662	1	5
616.832	1	9
617.002	1	21
617.171	1	-3
617.341	1	9
617.511	1	13
617.680	1	13
617.850	1	4
618.019	1	15
618.189	1	8
618.359	1	3
618.528	1	10
618.698	1	12
618.868	1	20
619.037	1	13
619.207	1	7
619.377	1	6
619.546	1	15
619.716	1	10
619.885	1	19
620.055	1	12
620.225	1	1
620.394	1	15
620.564	1	12
620.734	1	8
620.903	1	18
621.073	1	11
621.242	1	-6
621.412	1	14
621.582	1	7
621.751	1	4
621.921	1	6
622.091	1	-2
622.260	1	8
622.430	1	15
622.599	1	9
622.769	1	11
622.939	1	18
623.108	1	17
623.278	1	14
623.448	1	8
623.617	1	7
623.787	1	17
623.956	1	-3
624.126	1	19
624.296	1	15
624.465	1	0
624.635	1	10
624.804	1	19
624.974	1	10
625.144	1	13
625.313	1	7
625.483	1	13
625.652	1	13
625.822	1	3
625.992	1	14
626.161	1	13
626.331	1	11
626.501	1	9
626.670	1	7
626.840	1	6
627.009	1	12
627.179	1	12
627.348	1	14
627.518	1	16
627.688	1	9
627.857	1	1
628.027	1	12
628.196	1	12
628.366	1	3
628.536	1	5
628.705	1	-2
628.875	1	6
629.044	1	8
629.214	1	3
629.384	1	6
629.553	1	9
629.723	1	15
629.892	1	1
630.062	1	15
630.232	1	1
630.401	1	10
630.571	1	11
630.740	1	8
630.910	1	16
631.079	1	14
631.249	1	3
631.419	1	7
631.588	1	6
631.758	1	-5
631.927	1	5
632.097	1	16
632.266	1	9
632.436	1	8
632.606	1	6
632.775	1	16
632.945	1	9
633.114	1	9
633.284	1	11
633.453	1	17
633.623	1	6
633.793	1	14
633.962	1	4
634.132	1	20
634.301	1	19
634.471	1	17
634.640	1	21
634.810	1	17
634.979	1	16
635.149	1	12
635.319	1	16
635.488	1	19
635.658	1	-7
635.827	1	11
635.997	1	5
636.166	1	15
636.336	1	14
636.505	1	22
636.675	1	-1
636.845	1	19
637.014	1	10
637.184	1	12
637.353	1	14
637.523	1	14
637.692	1	14
637.862	1	6
638.031	1	16
638.201	1	23
638.370	1	9
638.540	1	6
638.710	1	14
638.879	1	2
639.049	1	24
639.218	1	3
639.388	1	16
639.557	1	10
639.727	1	13
639.896	1	11
640.066	1	5
640.235	1	16
640.405	1	2
640.574	1	17
640.744	1	11
640.914	1	9
641.083	1	3
641.253	1	10
641.422	1	16
641.592	1	9
641.761	1	17
641.931	1	14
642.100	1	12
642.270	1	16
642.439	1	3
642.609	1	15
642.778	1	17
642.948	1	9
643.117	1	22
643.287	1	6
643.456	1	1
643.626	1	12
643.795	1	8
643.965	1	18
644.134	1	7
644.304	1	16
644.473	1	6
644.643	1	4
644.812	1	12
644.982	1	12
645.151	1	7
645.321	1	11
645.490	1	18
645.660	1	11
645.829	1	16
645.999	1	18
646.168	1	19
646.338	1	8
646.507	1	1
646.677	1	27
646.846	1	16
647.016	1	12
647.185	1	14
647.355	1	-3
647.524	1	8
647.694	1	13
647.863	1	5
648.033	1	13
648.202	1	7
648.372	1	8
648.541	1	2
648.711	1	11
648.880	1	17
649.050	1	14
649.219	1	4
649.389	1	18
649.558	1	5
649.728	1	7
649.897	1	5
650.067	1	0
650.236	1	19
650.406	1	-2
650.575	1	16
650.745	1	9
650.914	1	14
651.084	1	5
651.253	1	11
651.423	1	1
651.592	1	7
651.762	1	12
651.931	1	7
652.101	1	17
652.270	1	9
652.440	1	11
652.609	1	22
652.778	1	16
652.948	1	11
653.117	1	25
653.287	1	15
653.456	1	13
653.626	1	22
653.795	1	13
653.965	1	24
654.134	1	11
654.304	1	7
654.473	1	15
654.643	1	10
654.812	1	10
654.982	1	11
655.151	1	15
655.320	1	12
655.490	1	10
655.659	1	8
655.829	1	7
655.998	1	17
656.168	1	19
656.337	1	15
656.507	1	11
656.676	1	9
656.846	1	-1
657.015	1	22
657.184	1	7
657.354	1	12
657.523	1	12
657.693	1	12
657.862	1	18
658.032	1	7
658.201	1	9
658.371	1	14
658.540	1	29
658.709	1	14
658.879	1	2
659.048	1	8
659.218	1	12
659.387	1	8
659.557	1	19
659.726	1	14
659.895	1	18
660.065	1	11
660.234	1	24
660.404	1	24
660.573	1	10
660.743	1	12
660.912	1	15
661.081	1	15
661.251	1	7
661.420	1	21
661.590	1	17
661.759	1	7
661.929	1	21
662.098	1	17
662.267	1	18
662.437	1	16
662.606	1	12
662.776	1	13
662.945	1	12
663.115	1	-1
663.284	1	-1
663.453	1	9
663.623	1	8
663.792	1	6
663.962	1	4
664.131	1	15
664.300	1	11
664.470	1	5
664.639	1	11
664.809	1	14
664.978	1	18
665.148	1	21
665.317	1	12
665.486	1	9
665.656	1	5
665.825	1	16
665.995	1	19
666.164	1	21
666.333	1	8
666.503	1	22
666.672	1	13
666.842	1	7
667.011	1	14
667.180	1	12
667.350	1	18
667.519	1	7
667.689	1	20
667.858	1	18
668.027	1	16
668.197	1	6
668.366	1	25
668.536	1	12
668.705	1	21
668.874	1	13
669.044	1	17
669.213	1	6
669.382	1	25
669.552	1	13
669.721	1	10
669.891	1	6
670.060	1	8
670.229	1	23
670.399	1	11
670.568	1	22
670.738	1	10
670.907	1	12
671.076	1	16
671.246	1	6
671.415	1	16
671.584	1	1
671.754	1	16
671.923	1	22
672.093	1	25
672.262	1	26
672.431	1	25
672.601	1	3
672.770	1	7
672.939	1	8
673.109	1	10
673.278	1	24
673.448	1	12
673.617	1	5
673.786	1	13
