325.333	1	4
325.504	1	4
325.675	1	6
325.846	1	1
326.017	1	8
326.188	1	9
326.359	1	6
326.531	1	5
326.702	1	-1
326.873	1	-8
327.044	1	-8
327.215	1	-3
327.386	1	6
327.557	1	11
327.728	1	-7
327.899	1	2
328.070	1	9
328.241	1	1
328.412	1	-5
328.583	1	5
328.754	1	-12
328.926	1	3
329.097	1	9
329.268	1	7
329.439	1	10
329.610	1	5
329.781	1	11
329.952	1	3
330.123	1	-3
330.294	1	-2
330.465	1	7
330.636	1	-3
330.807	1	-8
330.978	1	14
331.149	1	0
331.320	1	9
331.492	1	9
331.663	1	3
331.834	1	8
332.005	1	-3
332.176	1	4
332.347	1	12
332.518	1	1
332.689	1	-2
332.860	1	-10
333.031	1	0
333.202	1	20
333.373	1	7
333.544	1	-4
333.715	1	1
333.886	1	4
334.057	1	7
334.228	1	3
334.399	1	0
334.570	1	8
334.741	1	8
334.912	1	8
335.084	1	4
335.255	1	-6
335.426	1	-1
335.597	1	5
335.768	1	3
335.939	1	-2
336.110	1	-3
336.281	1	1
336.452	1	14
336.623	1	8
336.794	1	-5
336.965	1	4
337.136	1	1
337.307	1	13
337.478	1	2
337.649	1	8
337.820	1	-6
337.991	1	8
338.162	1	1
338.333	1	6
338.504	1	-10
338.675	1	5
338.846	1	3
339.017	1	11
339.188	1	5
339.359	1	-1
339.530	1	0
339.701	1	-1
339.872	1	-4
340.043	1	6
340.214	1	8
340.385	1	16
340.556	1	-2
340.727	1	6
340.898	1	1
341.069	1	12
341.240	1	10
341.411	1	2
341.582	1	-2
341.753	1	-7
341.924	1	3
342.095	1	9
342.266	1	-9
342.437	1	-1
342.608	1	-8
342.779	1	0
342.950	1	10
343.121	1	4
343.292	1	2
343.463	1	9
343.634	1	-2
343.805	1	4
343.976	1	0
344.147	1	2
344.318	1	5
344.489	1	9
344.660	1	2
344.831	1	-2
345.002	1	-6
345.173	1	4
345.344	1	-4
345.515	1	6
345.686	1	2
345.857	1	12
346.028	1	11
346.199	1	7
346.370	1	-5
346.541	1	15
346.712	1	1
346.883	1	5
347.054	1	-5
347.225	1	-7
347.396	1	5
347.567	1	8
347.738	1	5
347.909	1	1
348.080	1	3
348.251	1	-5
348.422	1	12
348.593	1	2
348.764	1	-5
348.935	1	-1
349.106	1	2
349.277	1	11
349.448	1	14
349.619	1	17
349.790	1	10
349.961	1	7
350.132	1	4
350.303	1	12
350.474	1	4
350.645	1	-4
350.816	1	11
350.987	1	2
351.157	1	1
351.328	1	9
351.499	1	1
351.670	1	1
351.841	1	-2
352.012	1	2
352.183	1	4
352.354	1	6
352.525	1	-1
352.696	1	-1
352.867	1	-5
353.038	1	11
353.209	1	13
353.380	1	8
353.551	1	14
353.722	1	6
353.893	1	3
354.064	1	3
354.235	1	1
354.406	1	3
354.576	1	-1
354.747	1	3
354.918	1	3
355.089	1	6
355.260	1	9
355.431	1	7
355.602	1	13
355.773	1	3
355.944	1	-2
356.115	1	-7
356.286	1	2
356.457	1	5
356.628	1	16
356.799	1	-6
356.970	1	1
357.141	1	15
357.311	1	10
357.482	1	0
357.653	1	-3
357.824	1	8
357.995	1	9
358.166	1	8
358.337	1	1
358.508	1	8
358.679	1	1
358.850	1	3
359.021	1	5
359.192	1	0
359.363	1	0
359.533	1	1
359.704	1	-1
359.875	1	15
360.046	1	10
360.217	1	5
360.388	1	5
360.559	1	15
360.730	1	1
360.901	1	4
361.072	1	-2
361.243	1	3
361.414	1	6
361.584	1	12
361.755	1	12
361.926	1	-6
362.097	1	5
362.268	1	5
362.439	1	8
362.610	1	7
362.781	1	1
362.952	1	11
363.123	1	15
363.293	1	3
363.464	1	1
363.635	1	8
363.806	1	10
363.977	1	-1
364.148	1	3
364.319	1	-6
364.490	1	1
364.661	1	8
364.832	1	10
365.002	1	11
365.173	1	4
365.344	1	4
365.515	1	12
365.686	1	11
365.857	1	17
366.028	1	-2
366.199	1	1
366.370	1	12
366.540	1	4
366.711	1	2
366.882	1	0
367.053	1	11
367.224	1	2
367.395	1	13
367.566	1	10
367.737	1	6
367.908	1	-1
368.078	1	20
368.249	1	3
368.420	1	6
368.591	1	20
368.762	1	4
368.933	1	2
369.104	1	11
369.274	1	3
369.445	1	7
369.616	1	18
369.787	1	8
369.958	1	9
370.129	1	2
370.300	1	9
370.471	1	14
370.641	1	7
370.812	1	9
370.983	1	8
371.154	1	17
371.325	1	8
371.496	1	-2
371.667	1	3
371.837	1	5
372.008	1	14
372.179	1	18
372.350	1	2
372.521	1	15
372.692	1	-3
372.863	1	5
373.033	1	14
373.204	1	-2
373.375	1	5
373.546	1	11
373.717	1	3
373.888	1	2
374.059	1	9
374.229	1	4
374.400	1	1
374.571	1	12
374.742	1	7
374.913	1	-2
375.084	1	8
375.254	1	14
375.425	1	-13
375.596	1	1
375.767	1	11
375.938	1	8
376.109	1	-7
376.279	1	0
376.450	1	12
376.621	1	21
376.792	1	5
376.963	1	3
377.134	1	12
377.304	1	9
377.475	1	12
377.646	1	2
377.817	1	1
377.988	1	2
378.159	1	10
378.329	1	11
378.500	1	9
378.671	1	13
378.842	1	7
379.013	1	18
379.184	1	6
379.354	1	-3
379.525	1	1
379.696	1	1
379.867	1	2
380.038	1	-3
380.209	1	5
380.379	1	16
380.550	1	7
380.721	1	11
380.892	1	6
381.063	1	7
381.233	1	-3
381.404	1	8
381.575	1	-1
381.746	1	13
381.917	1	4
382.087	1	6
382.258	1	6
382.429	1	7
382.600	1	18
382.771	1	13
382.941	1	-3
383.112	1	1
383.283	1	15
383.454	1	1
383.625	1	10
383.795	1	12
383.966	1	5
384.137	1	17
384.308	1	8
384.479	1	1
384.649	1	4
384.820	1	9
384.991	1	6
385.162	1	11
385.333	1	12
385.503	1	5
385.674	1	2
385.845	1	20
386.016	1	15
386.187	1	-2
386.357	1	9
386.528	1	-3
386.699	1	5
386.870	1	16
387.041	1	7
387.211	1	7
387.382	1	12
387.553	1	4
387.724	1	3
387.894	1	2
388.065	1	12
388.236	1	1
388.407	1	3
388.578	1	3
388.748	1	11
388.919	1	18
389.090	1	6
389.261	1	21
389.431	1	19
389.602	1	3
389.773	1	8
389.944	1	5
390.114	1	11
390.285	1	-3
390.456	1	2
390.627	1	12
390.798	1	6
390.968	1	9
391.139	1	2
391.310	1	20
391.481	1	0
391.651	1	11
391.822	1	5
391.993	1	10
392.164	1	-14
392.334	1	4
392.505	1	4
392.676	1	15
392.847	1	6
393.017	1	11
393.188	1	3
393.359	1	9
393.530	1	18
393.700	1	10
393.871	1	4
394.042	1	5
394.213	1	16
394.383	1	11
394.554	1	14
394.725	1	17
394.896	1	8
395.066	1	7
395.237	1	6
395.408	1	13
395.579	1	2
395.749	1	14
395.920	1	8
396.091	1	4
396.262	1	4
396.432	1	7
396.603	1	3
396.774	1	2
396.945	1	2
397.115	1	15
397.286	1	17
397.457	1	15
397.627	1	13
397.798	1	8
397.969	1	1
398.140	1	18
398.310	1	16
398.481	1	4
398.652	1	12
398.823	1	7
398.993	1	11
399.164	1	12
399.335	1	10
399.505	1	7
399.676	1	-1
399.847	1	8
400.018	1	10
400.188	1	4
400.359	1	2
400.530	1	8
400.700	1	9
400.871	1	16
401.042	1	5
401.213	1	0
401.383	1	10
401.554	1	2
401.725	1	3
401.895	1	16
402.066	1	6
402.237	1	16
402.408	1	10
402.578	1	7
402.749	1	9
402.920	1	4
403.090	1	10
403.261	1	12
403.432	1	9
403.603	1	9
403.773	1	19
403.944	1	16
404.115	1	22
404.285	1	10
404.456	1	14
404.627	1	-3
404.797	1	-5
404.968	1	14
405.139	1	5
405.310	1	5
405.480	1	6
405.651	1	16
405.822	1	14
405.992	1	10
406.163	1	9
406.334	1	12
406.504	1	9
406.675	1	3
406.846	1	15
407.016	1	0
407.187	1	19
407.358	1	4
407.528	1	-7
407.699	1	15
407.870	1	2
408.041	1	15
408.211	1	6
408.382	1	12
408.553	1	5
408.723	1	19
408.894	1	9
409.065	1	20
409.235	1	12
409.406	1	4
409.577	1	21
409.747	1	3
409.918	1	5
410.089	1	19
410.259	1	17
410.430	1	7
410.601	1	20
410.771	1	4
410.942	1	13
411.113	1	1
411.283	1	8
411.454	1	10
411.625	1	14
411.795	1	20
411.966	1	25
412.137	1	-2
412.307	1	16
412.478	1	4
412.649	1	12
412.819	1	2
412.990	1	1
413.161	1	16
413.331	1	12
413.502	1	12
413.672	1	11
413.843	1	14
414.014	1	24
414.184	1	4
414.355	1	18
414.526	1	11
414.696	1	10
414.867	1	12
415.038	1	1
415.208	1	6
415.379	1	17
415.550	1	16
415.720	1	14
415.891	1	12
416.062	1	7
416.232	1	6
416.403	1	11
416.573	1	20
416.744	1	5
416.915	1	17
417.085	1	13
417.256	1	14
417.427	1	27
417.597	1	0
417.768	1	10
417.939	1	14
418.109	1	10
418.280	1	8
418.450	1	5
418.621	1	-2
418.792	1	6
418.962	1	14
419.133	1	12
419.304	1	14
419.474	1	2
419.645	1	11
419.815	1	19
419.986	1	0
420.157	1	-6
420.327	1	12
420.498	1	6
420.669	1	10
420.839	1	2
421.010	1	16
421.180	1	12
421.351	1	11
421.522	1	5
421.692	1	12
421.863	1	17
422.033	1	16
422.204	1	20
422.375	1	10
422.545	1	7
422.716	1	9
422.886	1	6
423.057	1	8
423.228	1	18
423.398	1	15
423.569	1	8
423.740	1	2
423.910	1	2
424.081	1	9
424.251	1	4
424.422	1	18
424.593	1	8
424.763	1	1
424.934	1	5
425.104	1	10
425.275	1	15
425.445	1	13
425.616	1	13
425.787	1	8
425.957	1	17
426.128	1	-3
426.298	1	9
426.469	1	1
426.640	1	14
426.810	1	3
426.981	1	9
427.151	1	11
427.322	1	11
427.493	1	8
427.663	1	13
427.834	1	12
428.004	1	5
428.175	1	6
428.345	1	1
428.516	1	21
428.687	1	7
428.857	1	7
429.028	1	10
429.198	1	4
429.369	1	7
429.540	1	5
429.710	1	5
429.881	1	3
430.051	1	2
430.222	1	0
430.392	1	14
430.563	1	9
430.734	1	9
430.904	1	8
431.075	1	20
431.245	1	1
431.416	1	4
431.586	1	-2
431.757	1	14
431.927	1	12
432.098	1	16
432.269	1	9
432.439	1	23
432.610	1	11
432.780	1	13
432.951	1	13
433.121	1	2
433.292	1	7
433.462	1	5
433.633	1	3
433.804	1	11
433.974	1	-1
434.145	1	17
434.315	1	10
434.486	1	5
434.656	1	-2
434.827	1	4
434.997	1	7
435.168	1	10
435.339	1	4
435.509	1	8
435.680	1	12
435.850	1	11
436.021	1	10
436.191	1	10
436.362	1	8
436.532	1	18
436.703	1	4
436.873	1	10
437.044	1	2
437.214	1	18
437.385	1	18
437.556	1	0
437.726	1	7
437.897	1	-1
438.067	1	2
438.238	1	1
438.408	1	2
438.579	1	18
438.749	1	6
438.920	1	14
439.090	1	11
439.261	1	5
439.431	1	11
439.602	1	4
439.772	1	11
439.943	1	-3
440.113	1	3
440.284	1	12
440.455	1	22
440.625	1	11
440.796	1	10
440.966	1	3
441.137	1	11
441.307	1	8
441.478	1	6
441.648	1	-1
441.819	1	15
441.989	1	8
442.160	1	-3
442.330	1	13
442.501	1	13
442.671	1	5
442.842	1	5
443.012	1	12
443.183	1	-1
443.353	1	8
443.524	1	6
443.694	1	-3
443.865	1	9
444.035	1	4
444.206	1	14
444.376	1	8
444.547	1	5
444.717	1	9
444.888	1	-5
445.058	1	11
445.229	1	7
445.399	1	9
445.570	1	19
445.740	1	17
445.911	1	4
446.081	1	12
446.252	1	15
446.422	1	12
446.593	1	0
446.763	1	20
446.934	1	-1
447.104	1	6
447.275	1	7
447.445	1	2
447.616	1	7
447.786	1	9
447.957	1	11
448.127	1	2
448.298	1	-1
448.468	1	0
448.639	1	11
448.809	1	13
448.979	1	13
449.150	1	8
449.320	1	2
449.491	1	5
449.661	1	9
449.832	1	9
450.002	1	-14
450.173	1	8
450.343	1	15
450.514	1	4
450.684	1	16
450.855	1	9
451.025	1	9
451.196	1	-3
451.366	1	8
451.537	1	4
451.707	1	8
451.878	1	4
452.048	1	1
452.218	1	7
452.389	1	9
452.559	1	21
452.730	1	-1
452.900	1	11
453.071	1	-1
453.241	1	3
453.412	1	0
453.582	1	0
453.753	1	-1
453.923	1	10
454.093	1	13
454.264	1	4
454.434	1	10
454.605	1	9
454.775	1	5
454.946	1	1
455.116	1	6
455.287	1	2
455.457	1	17
455.628	1	-8
455.798	1	-2
455.968	1	8
456.139	1	5
456.309	1	21
456.480	1	-1
456.650	1	-2
456.821	1	16
456.991	1	7
457.161	1	0
457.332	1	9
457.502	1	13
457.673	1	10
457.843	1	3
458.014	1	4
458.184	1	1
458.355	1	4
458.525	1	3
458.695	1	3
458.866	1	10
459.036	1	15
459.207	1	21
459.377	1	9
459.548	1	12
459.718	1	7
459.888	1	4
460.059	1	3
460.229	1	11
460.400	1	7
460.570	1	18
460.740	1	8
460.911	1	-1
461.081	1	3
461.252	1	9
461.422	1	7
461.593	1	6
461.763	1	-2
461.933	1	10
462.104	1	6
462.274	1	12
462.445	1	7
462.615	1	5
462.785	1	-3
462.956	1	3
463.126	1	6
463.297	1	19
463.467	1	7
463.638	1	3
463.808	1	11
463.978	1	14
464.149	1	14
464.319	1	8
464.490	1	1
464.660	1	15
464.830	1	9
465.001	1	6
465.171	1	-2
465.342	1	2
465.512	1	6
465.682	1	18
465.853	1	11
466.023	1	16
466.194	1	-9
466.364	1	12
466.534	1	-1
466.705	1	11
466.875	1	1
467.045	1	9
467.216	1	3
467.386	1	4
467.557	1	14
467.727	1	4
467.897	1	20
468.068	1	-2
468.238	1	5
468.409	1	8
468.579	1	10
468.749	1	9
468.920	1	13
469.090	1	5
469.260	1	9
469.431	1	2
469.601	1	3
469.772	1	1
469.942	1	2
470.112	1	3
470.283	1	13
470.453	1	5
470.623	1	12
470.794	1	-4
470.964	1	10
471.135	1	16
471.305	1	3
471.475	1	9
471.646	1	4
471.816	1	-1
471.986	1	5
472.157	1	4
472.327	1	9
472.497	1	7
472.668	1	2
472.838	1	4
473.009	1	-4
473.179	1	14
473.349	1	5
473.520	1	2
473.690	1	3
473.860	1	7
474.031	1	4
474.201	1	0
474.371	1	6
474.542	1	17
474.712	1	8
474.882	1	2
475.053	1	0
475.223	1	10
475.394	1	-4
475.564	1	6
475.734	1	4
475.905	1	14
476.075	1	4
476.245	1	10
476.416	1	2
476.586	1	8
476.756	1	5
476.927	1	7
477.097	1	18
477.267	1	7
477.438	1	6
477.608	1	-1
477.778	1	3
477.949	1	3
478.119	1	0
478.289	1	-4
478.460	1	12
478.630	1	9
478.800	1	10
478.971	1	2
479.141	1	2
479.311	1	4
479.482	1	-8
479.652	1	9
479.822	1	-4
479.993	1	8
480.163	1	9
480.333	1	13
480.504	1	6
480.674	1	-4
480.844	1	6
481.015	1	9
481.185	1	11
481.355	1	8
481.525	1	-11
481.696	1	3
481.866	1	11
482.036	1	3
482.207	1	3
482.377	1	6
482.547	1	3
482.718	1	2
482.888	1	-7
483.058	1	4
483.229	1	9
483.399	1	5
483.569	1	2
483.740	1	1
483.910	1	17
484.080	1	12
484.250	1	1
484.421	1	13
484.591	1	10
484.761	1	4
484.932	1	17
485.102	1	-4
485.272	1	6
485.443	1	10
485.613	1	-5
485.783	1	6
485.953	1	-6
486.124	1	9
486.294	1	2
486.464	1	9
486.635	1	-2
486.805	1	11
486.975	1	10
487.146	1	5
487.316	1	-9
487.486	1	-6
487.656	1	18
487.827	1	6
487.997	1	11
488.167	1	5
488.338	1	6
488.508	1	3
488.678	1	10
488.848	1	5
489.019	1	6
489.189	1	-6
489.359	1	0
489.529	1	-4
489.700	1	-1
489.870	1	-7
490.040	1	-2
490.211	1	3
490.381	1	15
490.551	1	-5
490.721	1	12
490.892	1	19
491.062	1	6
491.232	1	1
491.402	1	6
491.573	1	2
491.743	1	3
491.913	1	2
492.084	1	7
492.254	1	2
492.424	1	6
492.594	1	1
492.765	1	5
492.935	1	-1
493.105	1	2
493.275	1	7
493.446	1	6
493.616	1	-6
493.786	1	4
493.956	1	4
494.127	1	5
494.297	1	5
494.467	1	5
494.637	1	15
494.808	1	-2
494.978	1	1
495.148	1	10
495.318	1	11
495.489	1	10
495.659	1	9
495.829	1	10
495.999	1	0
496.170	1	0
496.340	1	-2
496.510	1	15
496.680	1	10
496.851	1	7
497.021	1	13
497.191	1	3
497.361	1	8
497.532	1	12
497.702	1	8
497.872	1	7
498.042	1	10
498.213	1	2
498.383	1	3
498.553	1	12
498.723	1	-8
498.894	1	12
499.064	1	-5
499.234	1	8
499.404	1	7
499.574	1	6
499.745	1	5
499.915	1	2
500.085	1	10
500.255	1	5
500.426	1	-1
500.596	1	15
500.766	1	0
500.936	1	5
501.106	1	11
501.277	1	14
501.447	1	7
501.617	1	8
501.787	1	5
501.958	1	-10
502.128	1	8
502.298	1	6
502.468	1	1
502.638	1	16
502.809	1	13
502.979	1	3
503.149	1	-1
503.319	1	6
503.489	1	-2
503.660	1	-2
503.830	1	4
504.000	1	3
504.170	1	5
504.340	1	5
504.511	1	2
504.681	1	-3
504.851	1	-1
505.021	1	12
505.192	1	5
505.362	1	11
505.532	1	6
505.702	1	-7
505.872	1	10
506.043	1	-2
506.213	1	0
506.383	1	-6
506.553	1	7
506.723	1	4
506.893	1	4
507.064	1	1
507.234	1	4
507.404	1	12
507.574	1	1
507.744	1	-7
507.915	1	5
508.085	1	-1
508.255	1	0
508.425	1	3
508.595	1	-5
508.766	1	7
508.936	1	2
509.106	1	11
509.276	1	-1
509.446	1	-11
509.616	1	5
509.787	1	7
509.957	1	11
510.127	1	4
510.297	1	5
510.467	1	10
510.638	1	3
510.808	1	-3
510.978	1	10
511.148	1	-4
511.318	1	17
511.488	1	-2
511.659	1	4
511.829	1	3
511.999	1	3
512.169	1	-10
512.339	1	4
512.509	1	3
512.680	1	7
512.850	1	5
513.020	1	5
513.190	1	4
513.360	1	1
513.530	1	8
513.700	1	10
513.871	1	9
514.041	1	9
514.211	1	13
514.381	1	1
514.551	1	12
514.721	1	4
514.892	1	5
515.062	1	3
515.232	1	0
515.402	1	4
515.572	1	-1
515.742	1	1
515.912	1	11
516.083	1	6
516.253	1	-1
516.423	1	2
516.593	1	6
516.763	1	5
516.933	1	4
517.104	1	-3
517.274	1	5
517.444	1	0
517.614	1	1
517.784	1	10
517.954	1	1
518.124	1	-10
518.294	1	2
518.465	1	-3
518.635	1	2
518.805	1	5
518.975	1	0
519.145	1	7
519.315	1	5
519.485	1	5
519.656	1	5
519.826	1	6
519.996	1	-9
520.166	1	-2
520.336	1	18
520.506	1	5
520.676	1	0
520.846	1	1
521.017	1	-7
521.187	1	4
521.357	1	-1
521.527	1	-8
521.697	1	3
521.867	1	-3
522.037	1	8
522.207	1	-3
522.377	1	8
522.548	1	8
522.718	1	13
522.888	1	-7
523.058	1	-3
523.228	1	4
523.398	1	0
523.568	1	5
523.738	1	9
523.909	1	7
524.079	1	-3
524.249	1	5
524.419	1	-6
524.589	1	6
524.759	1	-4
524.929	1	8
525.099	1	9
525.269	1	-2
525.439	1	-2
525.610	1	17
525.780	1	8
525.950	1	5
526.120	1	5
526.290	1	7
526.460	1	8
526.630	1	1
526.800	1	0
526.970	1	1
527.140	1	9
527.311	1	-4
527.481	1	7
527.651	1	6
527.821	1	-4
527.991	1	5
528.161	1	-2
528.331	1	4
528.501	1	3
528.671	1	9
528.841	1	12
529.011	1	-2
529.181	1	7
529.352	1	-3
529.522	1	-5
529.692	1	-2
529.862	1	3
530.032	1	-2
530.202	1	-1
530.372	1	-3
530.542	1	13
530.712	1	-8
530.882	1	-9
531.052	1	4
531.222	1	5
531.392	1	3
531.563	1	-3
531.733	1	15
531.903	1	6
532.073	1	1
532.243	1	2
532.413	1	10
532.583	1	-7
532.753	1	4
532.923	1	17
533.093	1	-1
533.263	1	6
533.433	1	7
533.603	1	-3
533.773	1	1
533.943	1	6
534.113	1	0
534.284	1	2
534.454	1	3
534.624	1	-2
534.794	1	0
534.964	1	6
535.134	1	4
535.304	1	7
535.474	1	-10
535.644	1	8
535.814	1	-1
535.984	1	-9
536.154	1	12
536.324	1	-2
536.494	1	6
536.664	1	-13
536.834	1	0
537.004	1	0
537.174	1	5
537.344	1	6
537.514	1	1
537.685	1	-2
537.855	1	-1
538.025	1	5
538.195	1	7
538.365	1	10
538.535	1	0
538.705	1	6
538.875	1	10
539.045	1	8
539.215	1	5
539.385	1	-2
539.555	1	-9
539.725	1	10
539.895	1	5
540.065	1	4
540.235	1	-6
540.405	1	11
540.575	1	3
540.745	1	1
540.915	1	7
541.085	1	2
541.255	1	5
541.425	1	-7
541.595	1	-7
541.765	1	-6
541.935	1	10
542.105	1	-4
542.275	1	-3
542.445	1	4
542.615	1	2
542.785	1	6
542.955	1	-2
543.125	1	-6
543.295	1	13
543.465	1	2
543.635	1	-6
543.805	1	4
543.975	1	-5
544.145	1	-1
544.315	1	8
544.485	1	-3
544.655	1	7
544.825	1	3
544.995	1	8
545.165	1	14
545.335	1	-3
545.505	1	1
545.675	1	4
545.845	1	-9
546.015	1	5
546.185	1	-4
546.355	1	-8
546.525	1	-4
546.695	1	-2
546.865	1	-5
547.035	1	-4
547.205	1	6
547.375	1	9
547.545	1	-1
547.715	1	9
547.885	1	11
548.055	1	5
548.225	1	4
548.395	1	9
548.565	1	-3
548.735	1	4
548.905	1	1
549.075	1	3
549.245	1	3
549.415	1	1
549.585	1	12
549.755	1	7
549.925	1	5
550.095	1	-3
550.265	1	-2
550.435	1	-2
550.605	1	6
550.775	1	7
550.945	1	4
551.115	1	-2
551.285	1	-7
551.455	1	1
551.625	1	2
551.795	1	6
551.965	1	-2
552.135	1	-7
552.305	1	4
552.475	1	10
552.645	1	11
552.815	1	0
552.985	1	0
553.155	1	0
553.325	1	1
553.495	1	1
553.665	1	4
553.835	1	-9
554.004	1	2
554.174	1	0
554.344	1	-2
554.514	1	8
554.684	1	-2
554.854	1	-7
555.024	1	5
555.194	1	7
555.364	1	-5
555.534	1	4
555.704	1	-2
555.874	1	0
556.044	1	6
556.214	1	-14
556.384	1	3
556.554	1	7
556.724	1	-11
556.894	1	2
557.064	1	-3
557.234	1	8
557.404	1	-3
557.573	1	0
557.743	1	-1
557.913	1	-3
558.083	1	-1
558.253	1	1
558.423	1	-1
558.593	1	12
558.763	1	1
558.933	1	8
559.103	1	1
559.273	1	-1
559.443	1	-8
559.613	1	-14
559.783	1	5
559.953	1	5
560.122	1	-7
560.292	1	1
560.462	1	1
560.632	1	8
560.802	1	-3
560.972	1	10
561.142	1	-3
561.312	1	3
561.482	1	-2
561.652	1	1
561.822	1	-8
561.992	1	1
562.162	1	-6
562.331	1	-2
562.501	1	-7
562.671	1	4
562.841	1	9
563.011	1	5
563.181	1	10
563.351	1	-1
563.521	1	6
563.691	1	-1
563.861	1	5
564.031	1	7
564.201	1	-4
564.370	1	15
564.540	1	4
564.710	1	12
564.880	1	5
565.050	1	0
565.220	1	-1
565.390	1	8
565.560	1	5
565.730	1	11
565.900	1	-8
566.069	1	13
566.239	1	-4
566.409	1	5
566.579	1	13
566.749	1	8
566.919	1	3
567.089	1	-6
567.259	1	7
567.429	1	-4
567.599	1	5
567.768	1	-4
567.938	1	3
568.108	1	4
568.278	1	-1
568.448	1	12
568.618	1	4
568.788	1	7
568.958	1	13
569.128	1	8
569.297	1	-5
569.467	1	5
569.637	1	-4
569.807	1	-8
569.977	1	7
570.147	1	-7
570.317	1	13
570.487	1	-2
570.656	1	-3
570.826	1	9
570.996	1	-1
571.166	1	-2
571.336	1	8
571.506	1	2
571.676	1	17
571.846	1	-1
572.015	1	-3
572.185	1	5
572.355	1	4
572.525	1	-7
572.695	1	3
572.865	1	5
573.035	1	2
573.205	1	-5
573.374	1	6
573.544	1	-5
573.714	1	6
573.884	1	7
574.054	1	8
574.224	1	9
574.394	1	-7
574.563	1	-2
574.733	1	-5
574.903	1	7
575.073	1	4
575.243	1	5
575.413	1	9
575.583	1	0
575.752	1	1
575.922	1	0
576.092	1	1
576.262	1	1
576.432	1	10
576.602	1	-2
576.772	1	-6
576.941	1	9
577.111	1	3
577.281	1	6
577.451	1	4
577.621	1	0
577.791	1	-10
577.960	1	6
578.130	1	1
578.300	1	6
578.470	1	0
578.640	1	2
578.810	1	2
578.979	1	-2
579.149	1	-2
579.319	1	-1
579.489	1	-6
579.659	1	-3
579.829	1	7
579.998	1	2
580.168	1	-4
580.338	1	-7
580.508	1	6
580.678	1	-7
580.848	1	0
581.017	1	10
581.187	1	10
581.357	1	2
581.527	1	6
581.697	1	-3
581.867	1	5
582.036	1	0
582.206	1	2
582.376	1	-3
582.546	1	-6
582.716	1	-4
582.885	1	3
583.055	1	5
583.225	1	-9
583.395	1	8
583.565	1	9
583.735	1	10
583.904	1	-14
584.074	1	3
584.244	1	1
584.414	1	7
584.584	1	3
584.753	1	13
584.923	1	3
585.093	1	4
585.263	1	6
585.433	1	1
585.602	1	-6
585.772	1	7
585.942	1	-6
586.112	1	4
586.282	1	3
586.451	1	-3
586.621	1	7
586.791	1	5
586.961	1	7
587.131	1	11
587.300	1	-14
587.470	1	-4
587.640	1	-9
587.810	1	-7
587.980	1	17
588.149	1	7
588.319	1	-5
588.489	1	9
588.659	1	-7
588.829	1	1
588.998	1	5
589.168	1	5
589.338	1	4
589.508	1	2
589.677	1	1
589.847	1	7
590.017	1	10
590.187	1	-2
590.357	1	-2
590.526	1	9
590.696	1	8
590.866	1	12
591.036	1	-1
591.205	1	-5
591.375	1	-7
591.545	1	2
591.715	1	5
591.885	1	8
592.054	1	2
592.224	1	0
592.394	1	-5
592.564	1	-5
592.733	1	9
592.903	1	-2
593.073	1	8
593.243	1	5
593.412	1	-7
593.582	1	1
593.752	1	11
593.922	1	-1
594.091	1	3
594.261	1	0
594.431	1	10
594.601	1	4
594.771	1	-10
594.940	1	-1
595.110	1	-3
595.280	1	5
595.450	1	5
595.619	1	2
595.789	1	4
595.959	1	3
596.129	1	6
596.298	1	0
596.468	1	3
596.638	1	15
596.808	1	-1
596.977	1	6
597.147	1	9
597.317	1	0
597.487	1	-5
597.656	1	-4
597.826	1	1
597.996	1	5
598.166	1	8
598.335	1	6
598.505	1	6
598.675	1	-2
598.844	1	4
599.014	1	4
599.184	1	19
599.354	1	-3
599.523	1	1
599.693	1	-1
599.863	1	-1
600.033	1	-6
600.202	1	-14
600.372	1	0
600.542	1	1
600.712	1	7
600.881	1	10
601.051	1	0
601.221	1	1
601.390	1	6
601.560	1	-2
601.730	1	6
601.900	1	6
602.069	1	3
602.239	1	-12
602.409	1	12
602.578	1	-2
602.748	1	5
602.918	1	-7
603.088	1	11
603.257	1	6
603.427	1	0
603.597	1	3
603.767	1	9
603.936	1	6
604.106	1	12
604.276	1	-1
604.445	1	2
604.615	1	-14
604.785	1	-8
604.954	1	15
605.124	1	3
605.294	1	-2
605.464	1	11
605.633	1	12
605.803	1	8
605.973	1	1
606.142	1	3
606.312	1	-6
606.482	1	1
606.652	1	10
606.821	1	11
606.991	1	0
607.161	1	14
607.330	1	6
607.500	1	8
607.670	1	1
607.839	1	6
608.009	1	-3
608.179	1	1
608.348	1	5
608.518	1	4
608.688	1	7
608.858	1	-4
609.027	1	4
609.197	1	10
609.367	1	-1
609.536	1	-2
609.706	1	12
609.876	1	0
610.045	1	-7
610.215	1	3
610.385	1	10
610.554	1	0
610.724	1	10
610.894	1	5
611.063	1	-6
611.233	1	6
611.403	1	-2
611.572	1	1
611.742	1	-6
611.912	1	-2
612.081	1	1
612.251	1	10
612.421	1	8
612.590	1	-5
612.760	1	1
612.930	1	-2
613.099	1	5
613.269	1	-3
613.439	1	10
613.608	1	27
613.778	1	-1
613.948	1	10
614.117	1	2
614.287	1	-1
614.457	1	-5
614.626	1	-3
614.796	1	3
614.966	1	-7
615.135	1	-2
615.305	1	5
615.475	1	7
615.644	1	-2
615.814	1	-7
615.984	1	-2
616.153	1	1
616.323	1	-8
616.493	1	1
616.662	1	8
616.832	1	4
617.002	1	23
617.171	1	-3
617.341	1	1
617.511	1	5
617.680	1	3
617.850	1	-1
618.019	1	1
618.189	1	3
618.359	1	-2
618.528	1	13
618.698	1	2
618.868	1	13
619.037	1	10
619.207	1	-5
619.377	1	6
619.546	1	1
619.716	1	-1
619.885	1	0
620.055	1	8
620.225	1	7
620.394	1	7
620.564	1	6
620.734	1	-4
620.903	1	8
621.073	1	3
621.242	1	-2
621.412	1	2
621.582	1	-6
621.751	1	-2
621.921	1	-2
622.091	1	-3
622.260	1	8
622.430	1	6
622.599	1	8
622.769	1	6
622.939	1	4
623.108	1	3
623.278	1	6
623.448	1	-4
623.617	1	3
623.787	1	12
623.956	1	4
624.126	1	15
624.296	1	4
624.465	1	-5
624.635	1	-2
624.804	1	4
624.974	1	2
625.144	1	5
625.313	1	-7
625.483	1	-2
625.652	1	7
625.822	1	5
625.992	1	0
626.161	1	-11
626.331	1	2
626.501	1	-2
626.670	1	-7
626.840	1	0
627.009	1	1
627.179	1	1
627.348	1	6
627.518	1	9
627.688	1	5
627.857	1	-11
628.027	1	3
628.196	1	3
628.366	1	-7
628.536	1	4
628.705	1	6
628.875	1	4
629.044	1	-3
629.214	1	0
629.384	1	4
629.553	1	1
629.723	1	-1
629.892	1	-2
630.062	1	14
630.232	1	-1
630.401	1	-2
630.571	1	-8
630.740	1	1
630.910	1	5
631.079	1	1
631.249	1	-1
631.419	1	4
631.588	1	-5
631.758	1	-9
631.927	1	-2
632.097	1	5
632.266	1	3
632.436	1	-6
632.606	1	9
632.775	1	7
632.945	1	-5
633.114	1	5
633.284	1	-6
633.453	1	-2
633.623	1	1
633.793	1	-2
633.962	1	5
634.132	1	6
634.301	1	4
634.471	1	6
634.640	1	19
634.810	1	13
634.979	1	10
635.149	1	2
635.319	1	-1
635.488	1	2
635.658	1	-6
635.827	1	5
635.997	1	-2
636.166	1	1
636.336	1	2
636.505	1	15
636.675	1	-1
636.845	1	5
637.014	1	1
637.184	1	-5
637.353	1	-5
637.523	1	2
637.692	1	5
637.862	1	-11
638.031	1	6
638.201	1	17
638.370	1	2
638.540	1	5
638.710	1	-1
638.879	1	0
639.049	1	10
639.218	1	-10
639.388	1	8
639.557	1	2
639.727	1	4
639.896	1	2
640.066	1	2
640.235	1	8
640.405	1	1
640.574	1	7
640.744	1	7
640.914	1	0
641.083	1	-7
641.253	1	0
641.422	1	6
641.592	1	6
641.761	1	9
641.931	1	-7
642.100	1	8
642.270	1	3
642.439	1	-6
642.609	1	1
642.778	1	4
642.948	1	-2
643.117	1	8
643.287	1	-5
643.456	1	-6
643.626	1	4
643.795	1	4
643.965	1	3
644.134	1	5
644.304	1	3
644.473	1	-1
644.643	1	-5
644.812	1	12
644.982	1	-1
645.151	1	-4
645.321	1	-1
645.490	1	12
645.660	1	-3
645.829	1	-3
645.999	1	15
646.168	1	9
646.338	1	1
646.507	1	-3
646.677	1	7
646.846	1	6
647.016	1	-2
647.185	1	5
647.355	1	8
647.524	1	3
647.694	1	3
647.863	1	-1
648.033	1	8
648.202	1	4
648.372	1	2
648.541	1	11
648.711	1	0
648.880	1	10
649.050	1	4
649.219	1	0
649.389	1	10
649.558	1	-5
649.728	1	2
649.897	1	-2
650.067	1	-12
650.236	1	7
650.406	1	-12
650.575	1	0
650.745	1	4
650.914	1	6
651.084	1	2
651.253	1	4
651.423	1	1
651.592	1	2
651.762	1	5
651.931	1	3
652.101	1	1
652.270	1	-6
652.440	1	9
652.609	1	-3
652.778	1	2
652.948	1	0
653.117	1	23
653.287	1	-2
653.456	1	3
653.626	1	-2
653.795	1	2
653.965	1	2
654.134	1	1
654.304	1	0
654.473	1	0
654.643	1	13
654.812	1	10
654.982	1	16
655.151	1	6
655.320	1	0
655.490	1	-14
655.659	1	-5
655.829	1	-11
655.998	1	-2
656.168	1	-8
656.337	1	7
656.507	1	3
656.676	1	1
656.846	1	2
657.015	1	16
657.184	1	-2
657.354	1	-3
657.523	1	-3
657.693	1	4
657.862	1	1
658.032	1	-2
658.201	1	-5
658.371	1	3
658.540	1	8
658.709	1	13
658.879	1	-13
659.048	1	-2
659.218	1	-7
659.387	1	1
659.557	1	5
659.726	1	9
659.895	1	5
660.065	1	5
660.234	1	4
660.404	1	11
660.573	1	3
660.743	1	1
660.912	1	13
661.081	1	-2
661.251	1	-4
661.420	1	6
661.590	1	10
661.759	1	10
661.929	1	12
662.098	1	3
662.267	1	4
662.437	1	4
662.606	1	12
662.776	1	8
662.945	1	5
663.115	1	-8
663.284	1	-9
663.453	1	-1
663.623	1	0
663.792	1	3
663.962	1	-2
664.131	1	0
664.300	1	7
664.470	1	-6
664.639	1	0
664.809	1	-8
664.978	1	4
665.148	1	7
665.317	1	-6
665.486	1	5
665.656	1	2
665.825	1	-7
665.995	1	9
666.164	1	7
666.333	1	-1
666.503	1	12
666.672	1	7
666.842	1	-6
667.011	1	4
667.180	1	0
667.350	1	9
667.519	1	-1
667.689	1	12
667.858	1	15
668.027	1	7
668.197	1	5
668.366	1	10
668.536	1	1
668.705	1	10
668.874	1	10
669.044	1	-8
669.213	1	6
669.382	1	13
669.552	1	-3
669.721	1	-1
669.891	1	-5
670.060	1	-2
670.229	1	3
670.399	1	4
670.568	1	11
670.738	1	2
670.907	1	4
671.076	1	2
671.246	1	-8
671.415	1	7
671.584	1	-4
671.754	1	6
671.923	1	6
672.093	1	8
672.262	1	7
672.431	1	14
672.601	1	2
672.770	1	3
672.939	1	1
673.109	1	-9
673.278	1	8
673.448	1	6
673.617	1	-1
673.786	1	-2
