325.333	1	7
325.504	1	13
325.675	1	6
325.846	1	6
326.017	1	17
326.188	1	14
326.359	1	11
326.531	1	15
326.702	1	10
326.873	1	11
327.044	1	14
327.215	1	2
327.386	1	10
327.557	1	17
327.728	1	-7
327.899	1	6
328.070	1	15
328.241	1	11
328.412	1	3
328.583	1	14
328.754	1	-4
328.926	1	11
329.097	1	11
329.268	1	8
329.439	1	2
329.610	1	14
329.781	1	25
329.952	1	13
330.123	1	5
330.294	1	6
330.465	1	22
330.636	1	14
330.807	1	13
330.978	1	5
331.149	1	13
331.320	1	15
331.492	1	16
331.663	1	15
331.834	1	12
332.005	1	11
332.176	1	17
332.347	1	15
332.518	1	-4
332.689	1	18
332.860	1	14
333.031	1	5
333.202	1	15
333.373	1	19
333.544	1	4
333.715	1	2
333.886	1	7
334.057	1	5
334.228	1	6
334.399	1	2
334.570	1	19
334.741	1	21
334.912	1	25
335.084	1	9
335.255	1	14
335.426	1	6
335.597	1	18
335.768	1	0
335.939	1	11
336.110	1	-3
336.281	1	5
336.452	1	20
336.623	1	17
336.794	1	10
336.965	1	11
337.136	1	8
337.307	1	18
337.478	1	7
337.649	1	7
337.820	1	1
337.991	1	12
338.162	1	22
338.333	1	14
338.504	1	6
338.675	1	13
338.846	1	17
339.017	1	15
339.188	1	9
339.359	1	14
339.530	1	19
339.701	1	8
339.872	1	8
340.043	1	17
340.214	1	17
340.385	1	18
340.556	1	21
340.727	1	8
340.898	1	9
341.069	1	17
341.240	1	17
341.411	1	11
341.582	1	21
341.753	1	8
341.924	1	11
342.095	1	8
342.266	1	14
342.437	1	21
342.608	1	18
342.779	1	11
342.950	1	17
343.121	1	7
343.292	1	16
343.463	1	15
343.634	1	26
343.805	1	12
343.976	1	21
344.147	1	18
344.318	1	19
344.489	1	14
344.660	1	14
344.831	1	14
345.002	1	6
345.173	1	14
345.344	1	0
345.515	1	14
345.686	1	21
345.857	1	12
346.028	1	29
346.199	1	13
346.370	1	24
346.541	1	22
346.712	1	7
346.883	1	9
347.054	1	13
347.225	1	20
347.396	1	17
347.567	1	18
347.738	1	15
347.909	1	14
348.080	1	11
348.251	1	19
348.422	1	21
348.593	1	21
348.764	1	10
348.935	1	17
349.106	1	14
349.277	1	28
349.448	1	17
349.619	1	15
349.790	1	28
349.961	1	21
350.132	1	16
350.303	1	27
350.474	1	21
350.645	1	7
350.816	1	30
350.987	1	19
351.157	1	24
351.328	1	20
351.499	1	15
351.670	1	26
351.841	1	16
352.012	1	16
352.183	1	3
352.354	1	18
352.525	1	15
352.696	1	23
352.867	1	13
353.038	1	27
353.209	1	23
353.380	1	27
353.551	1	23
353.722	1	19
353.893	1	13
354.064	1	13
354.235	1	21
354.406	1	20
354.576	1	15
354.747	1	20
354.918	1	21
355.089	1	23
355.260	1	25
355.431	1	18
355.602	1	21
355.773	1	19
355.944	1	21
356.115	1	14
356.286	1	17
356.457	1	27
356.628	1	31
356.799	1	20
356.970	1	15
357.141	1	38
357.311	1	20
357.482	1	16
357.653	1	19
357.824	1	40
357.995	1	26
358.166	1	30
358.337	1	24
358.508	1	23
358.679	1	31
358.850	1	29
359.021	1	14
359.192	1	26
359.363	1	37
359.533	1	17
359.704	1	21
359.875	1	39
360.046	1	27
360.217	1	22
360.388	1	36
360.559	1	28
360.730	1	19
360.901	1	24
361.072	1	23
361.243	1	25
361.414	1	27
361.584	1	30
361.755	1	18
361.926	1	12
362.097	1	33
362.268	1	28
362.439	1	19
362.610	1	22
362.781	1	17
362.952	1	26
363.123	1	35
363.293	1	28
363.464	1	24
363.635	1	33
363.806	1	17
363.977	1	16
364.148	1	30
364.319	1	18
364.490	1	33
364.661	1	33
364.832	1	27
365.002	1	39
365.173	1	33
365.344	1	23
365.515	1	26
365.686	1	26
365.857	1	27
366.028	1	10
366.199	1	27
366.370	1	20
366.540	1	21
366.711	1	28
366.882	1	35
367.053	1	25
367.224	1	31
367.395	1	39
367.566	1	29
367.737	1	34
367.908	1	24
368.078	1	39
368.249	1	35
368.420	1	29
368.591	1	36
368.762	1	41
368.933	1	13
369.104	1	24
369.274	1	28
369.445	1	26
369.616	1	21
369.787	1	28
369.958	1	27
370.129	1	38
370.300	1	31
370.471	1	40
370.641	1	32
370.812	1	31
370.983	1	28
371.154	1	35
371.325	1	35
371.496	1	31
371.667	1	38
371.837	1	39
372.008	1	25
372.179	1	30
372.350	1	36
372.521	1	26
372.692	1	25
372.863	1	21
373.033	1	33
373.204	1	27
373.375	1	29
373.546	1	36
373.717	1	13
373.888	1	19
374.059	1	37
374.229	1	31
374.400	1	20
374.571	1	31
374.742	1	27
374.913	1	27
375.084	1	30
375.254	1	39
375.425	1	32
375.596	1	18
375.767	1	24
375.938	1	34
376.109	1	24
376.279	1	25
376.450	1	39
376.621	1	40
376.792	1	36
376.963	1	29
377.134	1	48
377.304	1	34
377.475	1	27
377.646	1	27
377.817	1	20
377.988	1	23
378.159	1	12
378.329	1	36
378.500	1	21
378.671	1	35
378.842	1	30
379.013	1	25
379.184	1	37
379.354	1	10
379.525	1	31
379.696	1	32
379.867	1	24
380.038	1	25
380.209	1	33
380.379	1	22
380.550	1	39
380.721	1	43
380.892	1	30
381.063	1	34
381.233	1	19
381.404	1	50
381.575	1	42
381.746	1	29
381.917	1	33
382.087	1	39
382.258	1	27
382.429	1	26
382.600	1	38
382.771	1	52
382.941	1	35
383.112	1	35
383.283	1	39
383.454	1	28
383.625	1	38
383.795	1	40
383.966	1	34
384.137	1	42
384.308	1	41
384.479	1	38
384.649	1	30
384.820	1	32
384.991	1	33
385.162	1	34
385.333	1	39
385.503	1	40
385.674	1	40
385.845	1	35
386.016	1	42
386.187	1	33
386.357	1	43
386.528	1	26
386.699	1	42
386.870	1	41
387.041	1	36
387.211	1	32
387.382	1	35
387.553	1	44
387.724	1	29
387.894	1	34
388.065	1	43
388.236	1	36
388.407	1	33
388.578	1	34
388.748	1	41
388.919	1	41
389.090	1	41
389.261	1	39
389.431	1	47
389.602	1	33
389.773	1	38
389.944	1	24
390.114	1	48
390.285	1	28
390.456	1	38
390.627	1	41
390.798	1	51
390.968	1	36
391.139	1	32
391.310	1	49
391.481	1	43
391.651	1	31
391.822	1	37
391.993	1	42
392.164	1	29
392.334	1	44
392.505	1	31
392.676	1	46
392.847	1	38
393.017	1	39
393.188	1	38
393.359	1	48
393.530	1	45
393.700	1	47
393.871	1	35
394.042	1	29
394.213	1	43
394.383	1	41
394.554	1	47
394.725	1	36
394.896	1	32
395.066	1	36
395.237	1	31
395.408	1	39
395.579	1	35
395.749	1	38
395.920	1	37
396.091	1	42
396.262	1	41
396.432	1	39
396.603	1	39
396.774	1	36
396.945	1	31
397.115	1	40
397.286	1	38
397.457	1	50
397.627	1	31
397.798	1	30
397.969	1	30
398.140	1	47
398.310	1	41
398.481	1	39
398.652	1	53
398.823	1	41
398.993	1	40
399.164	1	41
399.335	1	32
399.505	1	36
399.676	1	42
399.847	1	34
400.018	1	50
400.188	1	42
400.359	1	33
400.530	1	43
400.700	1	47
400.871	1	55
401.042	1	42
401.213	1	25
401.383	1	37
401.554	1	48
401.725	1	41
401.895	1	45
402.066	1	43
402.237	1	44
402.408	1	49
402.578	1	51
402.749	1	33
402.920	1	44
403.090	1	43
403.261	1	50
403.432	1	45
403.603	1	31
403.773	1	52
403.944	1	43
404.115	1	41
404.285	1	54
404.456	1	50
404.627	1	26
404.797	1	38
404.968	1	53
405.139	1	33
405.310	1	41
405.480	1	43
405.651	1	48
405.822	1	34
405.992	1	35
406.163	1	48
406.334	1	35
406.504	1	33
406.675	1	42
406.846	1	49
407.016	1	34
407.187	1	50
407.358	1	44
407.528	1	35
407.699	1	41
407.870	1	31
408.041	1	47
408.211	1	38
408.382	1	53
408.553	1	41
408.723	1	51
408.894	1	50
409.065	1	40
409.235	1	40
409.406	1	31
409.577	1	41
409.747	1	42
409.918	1	43
410.089	1	43
410.259	1	55
410.430	1	44
410.601	1	36
410.771	1	41
410.942	1	56
411.113	1	39
411.283	1	35
411.454	1	43
411.625	1	53
411.795	1	41
411.966	1	51
412.137	1	40
412.307	1	48
412.478	1	52
412.649	1	40
412.819	1	38
412.990	1	40
413.161	1	55
413.331	1	43
413.502	1	43
413.672	1	57
413.843	1	44
414.014	1	46
414.184	1	45
414.355	1	51
414.526	1	52
414.696	1	38
414.867	1	53
415.038	1	36
415.208	1	45
415.379	1	42
415.550	1	52
415.720	1	50
415.891	1	43
416.062	1	41
416.232	1	33
416.403	1	55
416.573	1	49
416.744	1	40
416.915	1	48
417.085	1	46
417.256	1	44
417.427	1	47
417.597	1	35
417.768	1	39
417.939	1	56
418.109	1	46
418.280	1	34
418.450	1	40
418.621	1	36
418.792	1	53
418.962	1	45
419.133	1	34
419.304	1	39
419.474	1	49
419.645	1	42
419.815	1	49
419.986	1	37
420.157	1	21
420.327	1	46
420.498	1	35
420.669	1	44
420.839	1	33
421.010	1	51
421.180	1	34
421.351	1	48
421.522	1	40
421.692	1	51
421.863	1	41
422.033	1	47
422.204	1	47
422.375	1	44
422.545	1	35
422.716	1	26
422.886	1	40
423.057	1	29
423.228	1	26
423.398	1	39
423.569	1	56
423.740	1	46
423.910	1	33
424.081	1	33
424.251	1	32
424.422	1	41
424.593	1	42
424.763	1	52
424.934	1	45
425.104	1	41
425.275	1	44
425.445	1	42
425.616	1	42
425.787	1	43
425.957	1	44
426.128	1	31
426.298	1	31
426.469	1	32
426.640	1	51
426.810	1	39
426.981	1	47
427.151	1	44
427.322	1	45
427.493	1	41
427.663	1	44
427.834	1	36
428.004	1	34
428.175	1	50
428.345	1	38
428.516	1	50
428.687	1	41
428.857	1	41
429.028	1	36
429.198	1	35
429.369	1	37
429.540	1	35
429.710	1	36
429.881	1	38
430.051	1	38
430.222	1	40
430.392	1	48
430.563	1	50
430.734	1	41
430.904	1	39
431.075	1	42
431.245	1	43
431.416	1	34
431.586	1	31
431.757	1	42
431.927	1	46
432.098	1	36
432.269	1	33
432.439	1	53
432.610	1	47
432.780	1	34
432.951	1	28
433.121	1	32
433.292	1	41
433.462	1	32
433.633	1	40
433.804	1	55
433.974	1	30
434.145	1	44
434.315	1	38
434.486	1	38
434.656	1	38
434.827	1	36
434.997	1	37
435.168	1	43
435.339	1	46
435.509	1	48
435.680	1	37
435.850	1	30
436.021	1	38
436.191	1	27
436.362	1	35
436.532	1	52
436.703	1	26
436.873	1	51
437.044	1	35
437.214	1	50
437.385	1	37
437.556	1	23
437.726	1	37
437.897	1	33
438.067	1	28
438.238	1	38
438.408	1	32
438.579	1	53
438.749	1	41
438.920	1	48
439.090	1	40
439.261	1	34
439.431	1	46
439.602	1	33
439.772	1	41
439.943	1	38
440.113	1	38
440.284	1	42
440.455	1	40
440.625	1	48
440.796	1	45
440.966	1	36
441.137	1	43
441.307	1	36
441.478	1	31
441.648	1	42
441.819	1	39
441.989	1	39
442.160	1	22
442.330	1	31
442.501	1	41
442.671	1	40
442.842	1	38
443.012	1	42
443.183	1	31
443.353	1	39
443.524	1	28
443.694	1	24
443.865	1	41
444.035	1	38
444.206	1	31
444.376	1	35
444.547	1	29
444.717	1	37
444.888	1	38
445.058	1	36
445.229	1	36
445.399	1	47
445.570	1	41
445.740	1	38
445.911	1	27
446.081	1	38
446.252	1	32
446.422	1	39
446.593	1	30
446.763	1	43
446.934	1	22
447.104	1	45
447.275	1	31
447.445	1	20
447.616	1	28
447.786	1	35
447.957	1	31
448.127	1	33
448.298	1	19
448.468	1	31
448.639	1	34
448.809	1	25
448.979	1	36
449.150	1	37
449.320	1	32
449.491	1	24
449.661	1	39
449.832	1	30
450.002	1	26
450.173	1	36
450.343	1	42
450.514	1	33
450.684	1	34
450.855	1	43
451.025	1	40
451.196	1	25
451.366	1	36
451.537	1	27
451.707	1	38
451.878	1	27
452.048	1	30
452.218	1	35
452.389	1	33
452.559	1	34
452.730	1	24
452.900	1	37
453.071	1	38
453.241	1	7
453.412	1	31
453.582	1	27
453.753	1	26
453.923	1	31
454.093	1	26
454.264	1	43
454.434	1	27
454.605	1	38
454.775	1	29
454.946	1	22
455.116	1	31
455.287	1	33
455.457	1	35
455.628	1	20
455.798	1	28
455.968	1	34
456.139	1	20
456.309	1	45
456.480	1	24
456.650	1	26
456.821	1	50
456.991	1	7
457.161	1	23
457.332	1	41
457.502	1	29
457.673	1	33
457.843	1	22
458.014	1	31
458.184	1	29
458.355	1	22
458.525	1	26
458.695	1	35
458.866	1	30
459.036	1	30
459.207	1	42
459.377	1	21
459.548	1	33
459.718	1	33
459.888	1	27
460.059	1	47
460.229	1	32
460.400	1	15
460.570	1	36
460.740	1	26
460.911	1	29
461.081	1	23
461.252	1	20
461.422	1	29
461.593	1	25
461.763	1	29
461.933	1	35
462.104	1	30
462.274	1	23
462.445	1	23
462.615	1	26
462.785	1	25
462.956	1	19
463.126	1	23
463.297	1	29
463.467	1	33
463.638	1	28
463.808	1	24
463.978	1	28
464.149	1	34
464.319	1	22
464.490	1	24
464.660	1	34
464.830	1	26
465.001	1	16
465.171	1	24
465.342	1	19
465.512	1	33
465.682	1	32
465.853	1	30
466.023	1	39
466.194	1	21
466.364	1	24
466.534	1	18
466.705	1	38
466.875	1	23
467.045	1	22
467.216	1	25
467.386	1	26
467.557	1	30
467.727	1	30
467.897	1	33
468.068	1	28
468.238	1	16
468.409	1	27
468.579	1	38
468.749	1	23
468.920	1	25
469.090	1	20
469.260	1	32
469.431	1	18
469.601	1	19
469.772	1	20
469.942	1	23
470.112	1	18
470.283	1	22
470.453	1	18
470.623	1	22
470.794	1	22
470.964	1	28
471.135	1	21
471.305	1	23
471.475	1	18
471.646	1	18
471.816	1	26
471.986	1	21
472.157	1	18
472.327	1	13
472.497	1	27
472.668	1	21
472.838	1	16
473.009	1	22
473.179	1	32
473.349	1	13
473.520	1	17
473.690	1	27
473.860	1	20
474.031	1	15
474.201	1	18
474.371	1	25
474.542	1	22
474.712	1	14
474.882	1	22
475.053	1	15
475.223	1	15
475.394	1	17
475.564	1	23
475.734	1	20
475.905	1	24
476.075	1	14
476.245	1	20
476.416	1	22
476.586	1	23
476.756	1	17
476.927	1	23
477.097	1	23
477.267	1	21
477.438	1	7
477.608	1	23
477.778	1	20
477.949	1	24
478.119	1	14
478.289	1	7
478.460	1	15
478.630	1	29
478.800	1	24
478.971	1	18
479.141	1	22
479.311	1	18
479.482	1	3
479.652	1	28
479.822	1	6
479.993	1	29
480.163	1	21
480.333	1	40
480.504	1	20
480.674	1	15
480.844	1	14
481.015	1	21
481.185	1	16
481.355	1	21
481.525	1	10
481.696	1	17
481.866	1	16
482.036	1	19
482.207	1	12
482.377	1	17
482.547	1	12
482.718	1	12
482.888	1	5
483.058	1	13
483.229	1	21
483.399	1	11
483.569	1	12
483.740	1	14
483.910	1	26
484.080	1	27
484.250	1	9
484.421	1	20
484.591	1	19
484.761	1	22
484.932	1	26
485.102	1	3
485.272	1	17
485.443	1	12
485.613	1	12
485.783	1	20
485.953	1	8
486.124	1	19
486.294	1	21
486.464	1	20
486.635	1	7
486.805	1	19
486.975	1	16
487.146	1	17
487.316	1	2
487.486	1	13
487.656	1	26
487.827	1	24
487.997	1	14
488.167	1	20
488.338	1	21
488.508	1	15
488.678	1	25
488.848	1	21
489.019	1	12
489.189	1	9
489.359	1	19
489.529	1	14
489.700	1	15
489.870	1	15
490.040	1	9
490.211	1	16
490.381	1	31
490.551	1	7
490.721	1	27
490.892	1	32
491.062	1	12
491.232	1	5
491.402	1	5
491.573	1	18
491.743	1	18
491.913	1	16
492.084	1	15
492.254	1	21
492.424	1	16
492.594	1	11
492.765	1	10
492.935	1	7
493.105	1	5
493.275	1	10
493.446	1	11
493.616	1	9
493.786	1	8
493.956	1	17
494.127	1	25
494.297	1	24
494.467	1	2
494.637	1	21
494.808	1	13
494.978	1	8
495.148	1	27
495.318	1	17
495.489	1	24
495.659	1	16
495.829	1	17
495.999	1	7
496.170	1	15
496.340	1	12
496.510	1	19
496.680	1	8
496.851	1	16
497.021	1	24
497.191	1	9
497.361	1	17
497.532	1	22
497.702	1	12
497.872	1	11
498.042	1	26
498.213	1	6
498.383	1	13
498.553	1	15
498.723	1	17
498.894	1	25
499.064	1	2
499.234	1	23
499.404	1	20
499.574	1	14
499.745	1	10
499.915	1	14
500.085	1	6
500.255	1	7
500.426	1	4
500.596	1	7
500.766	1	15
500.936	1	17
501.106	1	14
501.277	1	18
501.447	1	10
501.617	1	4
501.787	1	20
501.958	1	9
502.128	1	12
502.298	1	16
502.468	1	20
502.638	1	27
502.809	1	19
502.979	1	18
503.149	1	12
503.319	1	11
503.489	1	10
503.660	1	14
503.830	1	16
504.000	1	14
504.170	1	9
504.340	1	14
504.511	1	31
504.681	1	6
504.851	1	6
505.021	1	9
505.192	1	11
505.362	1	13
505.532	1	17
505.702	1	11
505.872	1	15
506.043	1	-1
506.213	1	9
506.383	1	6
506.553	1	11
506.723	1	8
506.893	1	8
507.064	1	18
507.234	1	16
507.404	1	21
507.574	1	16
507.744	1	8
507.915	1	21
508.085	1	11
508.255	1	7
508.425	1	15
508.595	1	1
508.766	1	12
508.936	1	10
509.106	1	11
509.276	1	6
509.446	1	-4
509.616	1	13
509.787	1	19
509.957	1	18
510.127	1	24
510.297	1	17
510.467	1	15
510.638	1	8
510.808	1	17
510.978	1	20
511.148	1	-3
511.318	1	23
511.488	1	18
511.659	1	3
511.829	1	-2
511.999	1	9
512.169	1	10
512.339	1	11
512.509	1	5
512.680	1	23
512.850	1	14
513.020	1	5
513.190	1	7
513.360	1	22
513.530	1	16
513.700	1	13
513.871	1	8
514.041	1	6
514.211	1	20
514.381	1	5
514.551	1	19
514.721	1	16
514.892	1	22
515.062	1	7
515.232	1	3
515.402	1	16
515.572	1	12
515.742	1	14
515.912	1	19
516.083	1	-1
516.253	1	13
516.423	1	8
516.593	1	12
516.763	1	7
516.933	1	11
517.104	1	16
517.274	1	13
517.444	1	0
517.614	1	10
517.784	1	12
517.954	1	9
518.124	1	6
518.294	1	20
518.465	1	10
518.635	1	7
518.805	1	17
518.975	1	13
519.145	1	3
519.315	1	13
519.485	1	6
519.656	1	14
519.826	1	16
519.996	1	3
520.166	1	10
520.336	1	18
520.506	1	18
520.676	1	10
520.846	1	15
521.017	1	8
521.187	1	5
521.357	1	-1
521.527	1	4
521.697	1	7
521.867	1	10
522.037	1	15
522.207	1	8
522.377	1	5
522.548	1	11
522.718	1	16
522.888	1	3
523.058	1	1
523.228	1	-1
523.398	1	2
523.568	1	15
523.738	1	8
523.909	1	20
524.079	1	12
524.249	1	6
524.419	1	13
524.589	1	12
524.759	1	7
524.929	1	8
525.099	1	13
525.269	1	9
525.439	1	5
525.610	1	16
525.780	1	20
525.950	1	9
526.120	1	10
526.290	1	15
526.460	1	16
526.630	1	13
526.800	1	4
526.970	1	16
527.140	1	12
527.311	1	9
527.481	1	1
527.651	1	8
527.821	1	5
527.991	1	12
528.161	1	4
528.331	1	-1
528.501	1	9
528.671	1	7
528.841	1	12
529.011	1	5
529.181	1	20
529.352	1	6
529.522	1	3
529.692	1	9
529.862	1	10
530.032	1	1
530.202	1	9
530.372	1	15
530.542	1	19
530.712	1	1
530.882	1	6
531.052	1	13
531.222	1	2
531.392	1	-1
531.563	1	-3
531.733	1	10
531.903	1	16
532.073	1	8
532.243	1	10
532.413	1	17
532.583	1	-3
532.753	1	3
532.923	1	15
533.093	1	-5
533.263	1	-1
533.433	1	13
533.603	1	9
533.773	1	15
533.943	1	8
534.113	1	7
534.284	1	8
534.454	1	7
534.624	1	4
534.794	1	8
534.964	1	14
535.134	1	6
535.304	1	13
535.474	1	2
535.644	1	13
535.814	1	1
535.984	1	-3
536.154	1	4
536.324	1	1
536.494	1	12
536.664	1	4
536.834	1	8
537.004	1	0
537.174	1	11
537.344	1	17
537.514	1	12
537.685	1	2
537.855	1	11
538.025	1	4
538.195	1	4
538.365	1	7
538.535	1	1
538.705	1	-4
538.875	1	19
539.045	1	16
539.215	1	17
539.385	1	3
539.555	1	4
539.725	1	11
539.895	1	16
540.065	1	10
540.235	1	7
540.405	1	16
540.575	1	4
540.745	1	-3
540.915	1	9
541.085	1	3
541.255	1	15
541.425	1	-1
541.595	1	-5
541.765	1	9
541.935	1	14
542.105	1	6
542.275	1	6
542.445	1	9
542.615	1	15
542.785	1	18
542.955	1	3
543.125	1	6
543.295	1	19
543.465	1	10
543.635	1	-2
543.805	1	8
543.975	1	8
544.145	1	16
544.315	1	1
544.485	1	0
544.655	1	9
544.825	1	8
544.995	1	7
545.165	1	16
545.335	1	-4
545.505	1	11
545.675	1	2
545.845	1	0
546.015	1	13
546.185	1	9
546.355	1	5
546.525	1	0
546.695	1	7
546.865	1	1
547.035	1	0
547.205	1	11
547.375	1	11
547.545	1	10
547.715	1	10
547.885	1	12
548.055	1	4
548.225	1	-1
548.395	1	12
548.565	1	1
548.735	1	4
548.905	1	-4
549.075	1	12
549.245	1	13
549.415	1	11
549.585	1	14
549.755	1	10
549.925	1	1
550.095	1	0
550.265	1	-5
550.435	1	3
550.605	1	3
550.775	1	8
550.945	1	1
551.115	1	-7
551.285	1	7
551.455	1	7
551.625	1	16
551.795	1	0
551.965	1	5
552.135	1	-5
552.305	1	7
552.475	1	11
552.645	1	14
552.815	1	8
552.985	1	-1
553.155	1	2
553.325	1	8
553.495	1	2
553.665	1	11
553.835	1	5
554.004	1	2
554.174	1	-5
554.344	1	3
554.514	1	20
554.684	1	6
554.854	1	3
555.024	1	16
555.194	1	14
555.364	1	4
555.534	1	4
555.704	1	3
555.874	1	9
556.044	1	-4
556.214	1	1
556.384	1	9
556.554	1	1
556.724	1	-8
556.894	1	10
557.064	1	5
557.234	1	3
557.404	1	4
557.573	1	4
557.743	1	5
557.913	1	7
558.083	1	-1
558.253	1	8
558.423	1	0
558.593	1	8
558.763	1	11
558.933	1	7
559.103	1	-2
559.273	1	9
559.443	1	-3
559.613	1	-3
559.783	1	7
559.953	1	8
560.122	1	4
560.292	1	7
560.462	1	5
560.632	1	7
560.802	1	1
560.972	1	16
561.142	1	7
561.312	1	12
561.482	1	6
561.652	1	11
561.822	1	2
561.992	1	11
562.162	1	-4
562.331	1	-6
562.501	1	5
562.671	1	5
562.841	1	18
563.011	1	9
563.181	1	24
563.351	1	-3
563.521	1	8
563.691	1	2
563.861	1	8
564.031	1	-2
564.201	1	0
564.370	1	7
564.540	1	11
564.710	1	18
564.880	1	5
565.050	1	-2
565.220	1	-4
565.390	1	5
565.560	1	9
565.730	1	9
565.900	1	0
566.069	1	19
566.239	1	-8
566.409	1	9
566.579	1	6
566.749	1	18
566.919	1	7
567.089	1	-6
567.259	1	5
567.429	1	2
567.599	1	8
567.768	1	4
567.938	1	-8
568.108	1	4
568.278	1	8
568.448	1	21
568.618	1	9
568.788	1	1
568.958	1	13
569.128	1	9
569.297	1	0
569.467	1	8
569.637	1	3
569.807	1	6
569.977	1	7
570.147	1	0
570.317	1	12
570.487	1	10
570.656	1	-4
570.826	1	15
570.996	1	9
571.166	1	6
571.336	1	9
571.506	1	-2
571.676	1	21
571.846	1	5
572.015	1	-2
572.185	1	-3
572.355	1	3
572.525	1	3
572.695	1	6
572.865	1	-4
573.035	1	3
573.205	1	1
573.374	1	-3
573.544	1	-4
573.714	1	11
573.884	1	11
574.054	1	4
574.224	1	6
574.394	1	0
574.563	1	7
574.733	1	7
574.903	1	8
575.073	1	7
575.243	1	-2
575.413	1	11
575.583	1	-2
575.752	1	-2
575.922	1	-1
576.092	1	5
576.262	1	7
576.432	1	7
576.602	1	7
576.772	1	-1
576.941	1	14
577.111	1	0
577.281	1	9
577.451	1	16
577.621	1	-2
577.791	1	-2
577.960	1	9
578.130	1	0
578.300	1	10
578.470	1	6
578.640	1	12
578.810	1	7
578.979	1	8
579.149	1	-1
579.319	1	4
579.489	1	7
579.659	1	-4
579.829	1	-2
579.998	1	4
580.168	1	8
580.338	1	9
580.508	1	6
580.678	1	-3
580.848	1	2
581.017	1	14
581.187	1	-3
581.357	1	-5
581.527	1	2
581.697	1	1
581.867	1	-7
582.036	1	1
582.206	1	16
582.376	1	-3
582.546	1	-2
582.716	1	1
582.885	1	7
583.055	1	9
583.225	1	2
583.395	1	7
583.565	1	13
583.735	1	-4
583.904	1	9
584.074	1	10
584.244	1	6
584.414	1	2
584.584	1	-8
584.753	1	13
584.923	1	2
585.093	1	-1
585.263	1	10
585.433	1	-3
585.602	1	8
585.772	1	8
585.942	1	-3
586.112	1	2
586.282	1	6
586.451	1	-2
586.621	1	12
586.791	1	8
586.961	1	6
587.131	1	11
587.300	1	-7
587.470	1	-3
587.640	1	-1
587.810	1	-1
587.980	1	18
588.149	1	10
588.319	1	6
588.489	1	7
588.659	1	5
588.829	1	4
588.998	1	19
589.168	1	-1
589.338	1	9
589.508	1	2
589.677	1	10
589.847	1	6
590.017	1	5
590.187	1	4
590.357	1	5
590.526	1	12
590.696	1	3
590.866	1	5
591.036	1	-1
591.205	1	-4
591.375	1	6
591.545	1	-3
591.715	1	13
591.885	1	13
592.054	1	14
592.224	1	9
592.394	1	3
592.564	1	-5
592.733	1	14
592.903	1	0
593.073	1	8
593.243	1	13
593.412	1	7
593.582	1	9
593.752	1	13
593.922	1	1
594.091	1	9
594.261	1	1
594.431	1	7
594.601	1	5
594.771	1	-5
594.940	1	1
595.110	1	8
595.280	1	6
595.450	1	8
595.619	1	3
595.789	1	-8
595.959	1	6
596.129	1	10
596.298	1	8
596.468	1	6
596.638	1	13
596.808	1	15
596.977	1	11
597.147	1	14
597.317	1	1
597.487	1	0
597.656	1	6
597.826	1	0
597.996	1	8
598.166	1	7
598.335	1	6
598.505	1	4
598.675	1	1
598.844	1	9
599.014	1	5
599.184	1	16
599.354	1	-7
599.523	1	-4
599.693	1	4
599.863	1	6
600.033	1	13
600.202	1	1
600.372	1	-4
600.542	1	11
600.712	1	6
600.881	1	14
601.051	1	2
601.221	1	-4
601.390	1	7
601.560	1	-2
601.730	1	13
601.900	1	9
602.069	1	9
602.239	1	-8
602.409	1	11
602.578	1	-4
602.748	1	9
602.918	1	-2
603.088	1	9
603.257	1	17
603.427	1	8
603.597	1	11
603.767	1	-2
603.936	1	13
604.106	1	4
604.276	1	0
604.445	1	4
604.615	1	0
604.785	1	4
604.954	1	7
605.124	1	5
605.294	1	9
605.464	1	18
605.633	1	9
605.803	1	4
605.973	1	4
606.142	1	7
606.312	1	-6
606.482	1	2
606.652	1	12
606.821	1	9
606.991	1	6
607.161	1	18
607.330	1	-3
607.500	1	4
607.670	1	-1
607.839	1	6
608.009	1	-5
608.179	1	-3
608.348	1	4
608.518	1	4
608.688	1	15
608.858	1	0
609.027	1	3
609.197	1	22
609.367	1	7
609.536	1	3
609.706	1	7
609.876	1	6
610.045	1	1
610.215	1	-3
610.385	1	12
610.554	1	1
610.724	1	13
610.894	1	11
611.063	1	1
611.233	1	14
611.403	1	1
611.572	1	18
611.742	1	-5
611.912	1	5
612.081	1	7
612.251	1	5
612.421	1	13
612.590	1	0
612.760	1	6
612.930	1	-6
613.099	1	11
613.269	1	8
613.439	1	10
613.608	1	16
613.778	1	-1
613.948	1	13
614.117	1	4
614.287	1	6
614.457	1	4
614.626	1	7
614.796	1	6
614.966	1	9
615.135	1	-1
615.305	1	1
615.475	1	11
615.644	1	7
615.814	1	0
615.984	1	-1
616.153	1	1
616.323	1	-4
616.493	1	10
616.662	1	12
616.832	1	12
617.002	1	7
617.171	1	-3
617.341	1	3
617.511	1	7
617.680	1	5
617.850	1	-9
618.019	1	9
618.189	1	12
618.359	1	6
618.528	1	16
618.698	1	6
618.868	1	21
619.037	1	3
619.207	1	11
619.377	1	13
619.546	1	9
619.716	1	8
619.885	1	19
620.055	1	11
620.225	1	9
620.394	1	6
620.564	1	12
620.734	1	6
620.903	1	8
621.073	1	9
621.242	1	1
621.412	1	8
621.582	1	13
621.751	1	2
621.921	1	11
622.091	1	6
622.260	1	12
622.430	1	6
622.599	1	11
622.769	1	4
622.939	1	16
623.108	1	12
623.278	1	17
623.448	1	4
623.617	1	12
623.787	1	18
623.956	1	1
624.126	1	21
624.296	1	10
624.465	1	4
624.635	1	-3
624.804	1	11
624.974	1	11
625.144	1	17
625.313	1	-3
625.483	1	2
625.652	1	7
625.822	1	12
625.992	1	9
626.161	1	-4
626.331	1	1
626.501	1	17
626.670	1	5
626.840	1	7
627.009	1	4
627.179	1	9
627.348	1	10
627.518	1	6
627.688	1	10
627.857	1	-5
628.027	1	9
628.196	1	8
628.366	1	4
628.536	1	5
628.705	1	10
628.875	1	2
629.044	1	4
629.214	1	-4
629.384	1	4
629.553	1	8
629.723	1	12
629.892	1	4
630.062	1	19
630.232	1	-3
630.401	1	5
630.571	1	7
630.740	1	3
630.910	1	5
631.079	1	5
631.249	1	-6
631.419	1	6
631.588	1	2
631.758	1	5
631.927	1	1
632.097	1	7
632.266	1	12
632.436	1	-4
632.606	1	7
632.775	1	15
632.945	1	3
633.114	1	9
633.284	1	2
633.453	1	6
633.623	1	5
633.793	1	-2
633.962	1	3
634.132	1	10
634.301	1	18
634.471	1	13
634.640	1	10
634.810	1	8
634.979	1	14
635.149	1	10
635.319	1	11
635.488	1	8
635.658	1	-13
635.827	1	11
635.997	1	5
636.166	1	22
636.336	1	7
636.505	1	17
636.675	1	-1
636.845	1	14
637.014	1	11
637.184	1	8
637.353	1	7
637.523	1	11
637.692	1	9
637.862	1	2
638.031	1	8
638.201	1	21
638.370	1	12
638.540	1	5
638.710	1	13
638.879	1	7
639.049	1	13
639.218	1	-2
639.388	1	16
639.557	1	3
639.727	1	8
639.896	1	2
640.066	1	12
640.235	1	8
640.405	1	15
640.574	1	10
640.744	1	13
640.914	1	12
641.083	1	1
641.253	1	8
641.422	1	14
641.592	1	12
641.761	1	18
641.931	1	8
642.100	1	8
642.270	1	11
642.439	1	4
642.609	1	6
642.778	1	12
642.948	1	-6
643.117	1	9
643.287	1	-11
643.456	1	-4
643.626	1	10
643.795	1	18
643.965	1	8
644.134	1	8
644.304	1	13
644.473	1	7
644.643	1	2
644.812	1	8
644.982	1	13
645.151	1	12
645.321	1	6
645.490	1	20
645.660	1	11
645.829	1	3
645.999	1	22
646.168	1	18
646.338	1	-3
646.507	1	5
646.677	1	28
646.846	1	4
647.016	1	8
647.185	1	6
647.355	1	8
647.524	1	3
647.694	1	17
647.863	1	3
648.033	1	18
648.202	1	6
648.372	1	7
648.541	1	13
648.711	1	7
648.880	1	6
649.050	1	10
649.219	1	6
649.389	1	7
649.558	1	10
649.728	1	7
649.897	1	6
650.067	1	2
650.236	1	17
650.406	1	-3
650.575	1	14
650.745	1	14
650.914	1	4
651.084	1	-2
651.253	1	13
651.423	1	5
651.592	1	4
651.762	1	3
651.931	1	8
652.101	1	5
652.270	1	7
652.440	1	11
652.609	1	12
652.778	1	14
652.948	1	-2
653.117	1	12
653.287	1	7
653.456	1	6
653.626	1	12
653.795	1	9
653.965	1	13
654.134	1	0
654.304	1	12
654.473	1	7
654.643	1	10
654.812	1	8
654.982	1	17
655.151	1	12
655.320	1	0
655.490	1	6
655.659	1	6
655.829	1	0
655.998	1	17
656.168	1	-1
656.337	1	24
656.507	1	4
656.676	1	9
656.846	1	-2
657.015	1	10
657.184	1	-7
657.354	1	6
657.523	1	9
657.693	1	7
657.862	1	13
658.032	1	2
658.201	1	12
658.371	1	12
658.540	1	12
658.709	1	17
658.879	1	-5
659.048	1	4
659.218	1	4
659.387	1	1
659.557	1	12
659.726	1	21
659.895	1	4
660.065	1	9
660.234	1	6
660.404	1	23
660.573	1	8
660.743	1	9
660.912	1	15
661.081	1	7
661.251	1	6
661.420	1	7
661.590	1	11
661.759	1	6
661.929	1	16
662.098	1	5
662.267	1	25
662.437	1	18
662.606	1	16
662.776	1	11
662.945	1	25
663.115	1	-3
663.284	1	1
663.453	1	-1
663.623	1	3
663.792	1	11
663.962	1	-1
664.131	1	8
664.300	1	4
664.470	1	-3
664.639	1	2
664.809	1	9
664.978	1	6
665.148	1	9
665.317	1	10
665.486	1	10
665.656	1	1
665.825	1	3
665.995	1	21
666.164	1	15
666.333	1	9
666.503	1	26
666.672	1	4
666.842	1	4
667.011	1	8
667.180	1	7
667.350	1	10
667.519	1	5
667.689	1	19
667.858	1	16
668.027	1	0
668.197	1	10
668.366	1	12
668.536	1	8
668.705	1	15
668.874	1	18
669.044	1	8
669.213	1	15
669.382	1	10
669.552	1	5
669.721	1	9
669.891	1	0
670.060	1	3
670.229	1	11
670.399	1	15
670.568	1	11
670.738	1	2
670.907	1	11
671.076	1	15
671.246	1	2
671.415	1	8
671.584	1	4
671.754	1	13
671.923	1	8
672.093	1	11
672.262	1	9
672.431	1	23
672.601	1	5
672.770	1	8
672.939	1	14
673.109	1	13
673.278	1	18
673.448	1	3
673.617	1	-1
673.786	1	4
