325.333	1	-1
325.504	1	13
325.675	1	4
325.846	1	6
326.017	1	7
326.188	1	0
326.359	1	10
326.531	1	1
326.702	1	18
326.873	1	14
327.044	1	11
327.215	1	5
327.386	1	-3
327.557	1	14
327.728	1	-11
327.899	1	9
328.070	1	4
328.241	1	2
328.412	1	-1
328.583	1	5
328.754	1	3
328.926	1	4
329.097	1	10
329.268	1	4
329.439	1	0
329.610	1	11
329.781	1	6
329.952	1	7
330.123	1	-3
330.294	1	9
330.465	1	10
330.636	1	7
330.807	1	13
330.978	1	9
331.149	1	9
331.320	1	5
331.492	1	14
331.663	1	6
331.834	1	10
332.005	1	3
332.176	1	4
332.347	1	12
332.518	1	-2
332.689	1	4
332.860	1	-1
333.031	1	15
333.202	1	22
333.373	1	7
333.544	1	5
333.715	1	5
333.886	1	0
334.057	1	9
334.228	1	5
334.399	1	11
334.570	1	20
334.741	1	17
334.912	1	11
335.084	1	9
335.255	1	7
335.426	1	2
335.597	1	17
335.768	1	-1
335.939	1	13
336.110	1	11
336.281	1	6
336.452	1	19
336.623	1	7
336.794	1	5
336.965	1	5
337.136	1	4
337.307	1	11
337.478	1	9
337.649	1	5
337.820	1	1
337.991	1	13
338.162	1	9
338.333	1	6
338.504	1	0
338.675	1	3
338.846	1	11
339.017	1	4
339.188	1	4
339.359	1	4
339.530	1	12
339.701	1	12
339.872	1	6
340.043	1	13
340.214	1	8
340.385	1	12
340.556	1	9
340.727	1	6
340.898	1	2
341.069	1	21
341.240	1	13
341.411	1	19
341.582	1	8
341.753	1	9
341.924	1	13
342.095	1	12
342.266	1	-3
342.437	1	8
342.608	1	1
342.779	1	4
342.950	1	6
343.121	1	8
343.292	1	10
343.463	1	13
343.634	1	15
343.805	1	2
343.976	1	1
344.147	1	13
344.318	1	4
344.489	1	11
344.660	1	16
344.831	1	13
345.002	1	12
345.173	1	18
345.344	1	0
345.515	1	13
345.686	1	5
345.857	1	9
346.028	1	26
346.199	1	12
346.370	1	11
346.541	1	24
346.712	1	4
346.883	1	14
347.054	1	8
347.225	1	-5
347.396	1	11
347.567	1	15
347.738	1	17
347.909	1	18
348.080	1	4
348.251	1	8
348.422	1	21
348.593	1	10
348.764	1	19
348.935	1	10
349.106	1	7
349.277	1	18
349.448	1	17
349.619	1	14
349.790	1	13
349.961	1	15
350.132	1	14
350.303	1	14
350.474	1	21
350.645	1	17
350.816	1	11
350.987	1	11
351.157	1	16
351.328	1	12
351.499	1	19
351.670	1	13
351.841	1	4
352.012	1	7
352.183	1	3
352.354	1	10
352.525	1	16
352.696	1	20
352.867	1	13
353.038	1	19
353.209	1	21
353.380	1	26
353.551	1	18
353.722	1	12
353.893	1	10
354.064	1	16
354.235	1	14
354.406	1	15
354.576	1	7
354.747	1	24
354.918	1	18
355.089	1	18
355.260	1	14
355.431	1	22
355.602	1	18
355.773	1	17
355.944	1	27
356.115	1	-2
356.286	1	21
356.457	1	9
356.628	1	23
356.799	1	5
356.970	1	17
357.141	1	30
357.311	1	26
357.482	1	7
357.653	1	12
357.824	1	16
357.995	1	23
358.166	1	11
358.337	1	18
358.508	1	17
358.679	1	16
358.850	1	16
359.021	1	15
359.192	1	14
359.363	1	24
359.533	1	28
359.704	1	20
359.875	1	26
360.046	1	17
360.217	1	14
360.388	1	16
360.559	1	26
360.730	1	13
360.901	1	15
361.072	1	15
361.243	1	16
361.414	1	22
361.584	1	14
361.755	1	25
361.926	1	14
362.097	1	22
362.268	1	25
362.439	1	15
362.610	1	11
362.781	1	20
362.952	1	23
363.123	1	36
363.293	1	15
363.464	1	13
363.635	1	19
363.806	1	19
363.977	1	12
364.148	1	8
364.319	1	17
364.490	1	14
364.661	1	22
364.832	1	31
365.002	1	19
365.173	1	20
365.344	1	15
365.515	1	29
365.686	1	22
365.857	1	37
366.028	1	18
366.199	1	27
366.370	1	40
366.540	1	22
366.711	1	18
366.882	1	24
367.053	1	15
367.224	1	10
367.395	1	17
367.566	1	31
367.737	1	29
367.908	1	25
368.078	1	34
368.249	1	18
368.420	1	24
368.591	1	29
368.762	1	22
368.933	1	13
369.104	1	21
369.274	1	15
369.445	1	16
369.616	1	24
369.787	1	30
369.958	1	21
370.129	1	24
370.300	1	14
370.471	1	20
370.641	1	18
370.812	1	20
370.983	1	17
371.154	1	17
371.325	1	24
371.496	1	16
371.667	1	21
371.837	1	22
372.008	1	21
372.179	1	24
372.350	1	26
372.521	1	15
372.692	1	25
372.863	1	21
373.033	1	29
373.204	1	17
373.375	1	21
373.546	1	27
373.717	1	16
373.888	1	17
374.059	1	33
374.229	1	22
374.400	1	6
374.571	1	22
374.742	1	26
374.913	1	1
375.084	1	25
375.254	1	32
375.425	1	10
375.596	1	20
375.767	1	19
375.938	1	28
376.109	1	18
376.279	1	18
376.450	1	31
376.621	1	33
376.792	1	19
376.963	1	25
377.134	1	30
377.304	1	26
377.475	1	18
377.646	1	12
377.817	1	17
377.988	1	15
378.159	1	20
378.329	1	22
378.500	1	19
378.671	1	23
378.842	1	13
379.013	1	27
379.184	1	30
379.354	1	13
379.525	1	24
379.696	1	23
379.867	1	17
380.038	1	14
380.209	1	23
380.379	1	28
380.550	1	26
380.721	1	28
380.892	1	24
381.063	1	13
381.233	1	11
381.404	1	25
381.575	1	26
381.746	1	23
381.917	1	12
382.087	1	26
382.258	1	25
382.429	1	20
382.600	1	27
382.771	1	21
382.941	1	16
383.112	1	15
383.283	1	18
383.454	1	18
383.625	1	25
383.795	1	27
383.966	1	30
384.137	1	24
384.308	1	13
384.479	1	31
384.649	1	25
384.820	1	26
384.991	1	25
385.162	1	15
385.333	1	26
385.503	1	24
385.674	1	24
385.845	1	36
386.016	1	27
386.187	1	23
386.357	1	32
386.528	1	6
386.699	1	33
386.870	1	23
387.041	1	12
387.211	1	26
387.382	1	29
387.553	1	27
387.724	1	19
387.894	1	24
388.065	1	21
388.236	1	16
388.407	1	24
388.578	1	15
388.748	1	33
388.919	1	33
389.090	1	31
389.261	1	31
389.431	1	46
389.602	1	33
389.773	1	19
389.944	1	32
390.114	1	39
390.285	1	14
390.456	1	29
390.627	1	29
390.798	1	31
390.968	1	33
391.139	1	30
391.310	1	34
391.481	1	18
391.651	1	32
391.822	1	21
391.993	1	30
392.164	1	14
392.334	1	26
392.505	1	16
392.676	1	35
392.847	1	19
393.017	1	44
393.188	1	34
393.359	1	34
393.530	1	38
393.700	1	40
393.871	1	30
394.042	1	24
394.213	1	34
394.383	1	33
394.554	1	28
394.725	1	27
394.896	1	28
395.066	1	26
395.237	1	26
395.408	1	42
395.579	1	24
395.749	1	31
395.920	1	26
396.091	1	18
396.262	1	46
396.432	1	18
396.603	1	30
396.774	1	25
396.945	1	28
397.115	1	46
397.286	1	35
397.457	1	24
397.627	1	32
397.798	1	21
397.969	1	23
398.140	1	32
398.310	1	19
398.481	1	19
398.652	1	45
398.823	1	35
398.993	1	29
399.164	1	32
399.335	1	32
399.505	1	37
399.676	1	26
399.847	1	29
400.018	1	36
400.188	1	17
400.359	1	30
400.530	1	34
400.700	1	31
400.871	1	43
401.042	1	35
401.213	1	18
401.383	1	30
401.554	1	31
401.725	1	35
401.895	1	37
402.066	1	27
402.237	1	33
402.408	1	41
402.578	1	25
402.749	1	28
402.920	1	28
403.090	1	29
403.261	1	42
403.432	1	42
403.603	1	36
403.773	1	48
403.944	1	29
404.115	1	43
404.285	1	30
404.456	1	36
404.627	1	33
404.797	1	20
404.968	1	43
405.139	1	33
405.310	1	27
405.480	1	38
405.651	1	46
405.822	1	43
405.992	1	29
406.163	1	42
406.334	1	29
406.504	1	34
406.675	1	21
406.846	1	34
407.016	1	32
407.187	1	35
407.358	1	33
407.528	1	37
407.699	1	30
407.870	1	39
408.041	1	39
408.211	1	37
408.382	1	36
408.553	1	27
408.723	1	39
408.894	1	35
409.065	1	49
409.235	1	33
409.406	1	33
409.577	1	37
409.747	1	31
409.918	1	36
410.089	1	39
410.259	1	35
410.430	1	30
410.601	1	33
410.771	1	35
410.942	1	46
411.113	1	26
411.283	1	29
411.454	1	38
411.625	1	34
411.795	1	31
411.966	1	47
412.137	1	26
412.307	1	51
412.478	1	37
412.649	1	46
412.819	1	26
412.990	1	39
413.161	1	44
413.331	1	35
413.502	1	30
413.672	1	38
413.843	1	45
414.014	1	37
414.184	1	33
414.355	1	42
414.526	1	46
414.696	1	32
414.867	1	40
415.038	1	22
415.208	1	42
415.379	1	31
415.550	1	40
415.720	1	37
415.891	1	35
416.062	1	36
416.232	1	33
416.403	1	34
416.573	1	35
416.744	1	30
416.915	1	40
417.085	1	32
417.256	1	40
417.427	1	41
417.597	1	20
417.768	1	35
417.939	1	33
418.109	1	28
418.280	1	31
418.450	1	28
418.621	1	35
418.792	1	31
418.962	1	30
419.133	1	29
419.304	1	30
419.474	1	27
419.645	1	42
419.815	1	41
419.986	1	20
420.157	1	29
420.327	1	30
420.498	1	27
420.669	1	36
420.839	1	22
421.010	1	44
421.180	1	33
421.351	1	21
421.522	1	20
421.692	1	44
421.863	1	28
422.033	1	34
422.204	1	39
422.375	1	25
422.545	1	29
422.716	1	25
422.886	1	31
423.057	1	32
423.228	1	23
423.398	1	40
423.569	1	30
423.740	1	26
423.910	1	36
424.081	1	36
424.251	1	19
424.422	1	28
424.593	1	29
424.763	1	31
424.934	1	22
425.104	1	33
425.275	1	41
425.445	1	39
425.616	1	28
425.787	1	35
425.957	1	38
426.128	1	29
426.298	1	26
426.469	1	25
426.640	1	39
426.810	1	38
426.981	1	29
427.151	1	39
427.322	1	33
427.493	1	29
427.663	1	31
427.834	1	37
428.004	1	35
428.175	1	27
428.345	1	16
428.516	1	47
428.687	1	17
428.857	1	29
429.028	1	30
429.198	1	25
429.369	1	32
429.540	1	33
429.710	1	33
429.881	1	30
430.051	1	33
430.222	1	26
430.392	1	33
430.563	1	41
430.734	1	41
430.904	1	23
431.075	1	32
431.245	1	26
431.416	1	27
431.586	1	25
431.757	1	31
431.927	1	32
432.098	1	41
432.269	1	17
432.439	1	36
432.610	1	35
432.780	1	38
432.951	1	19
433.121	1	37
433.292	1	30
433.462	1	25
433.633	1	22
433.804	1	42
433.974	1	13
434.145	1	36
434.315	1	30
434.486	1	30
434.656	1	27
434.827	1	32
434.997	1	41
435.168	1	21
435.339	1	30
435.509	1	33
435.680	1	14
435.850	1	21
436.021	1	32
436.191	1	20
436.362	1	24
436.532	1	36
436.703	1	18
436.873	1	26
437.044	1	34
437.214	1	27
437.385	1	44
437.556	1	27
437.726	1	25
437.897	1	22
438.067	1	17
438.238	1	35
438.408	1	20
438.579	1	38
438.749	1	42
438.920	1	29
439.090	1	31
439.261	1	15
439.431	1	35
439.602	1	25
439.772	1	26
439.943	1	28
440.113	1	15
440.284	1	29
440.455	1	32
440.625	1	34
440.796	1	35
440.966	1	23
441.137	1	23
441.307	1	28
441.478	1	32
441.648	1	29
441.819	1	28
441.989	1	31
442.160	1	20
442.330	1	21
442.501	1	32
442.671	1	33
442.842	1	20
443.012	1	29
443.183	1	19
443.353	1	29
443.524	1	19
443.694	1	21
443.865	1	25
444.035	1	28
444.206	1	22
444.376	1	20
444.547	1	21
444.717	1	31
444.888	1	12
445.058	1	32
445.229	1	30
445.399	1	33
445.570	1	32
445.740	1	42
445.911	1	11
446.081	1	18
446.252	1	30
446.422	1	25
446.593	1	12
446.763	1	38
446.934	1	24
447.104	1	22
447.275	1	16
447.445	1	26
447.616	1	24
447.786	1	25
447.957	1	25
448.127	1	17
448.298	1	23
448.468	1	20
448.639	1	33
448.809	1	34
448.979	1	22
449.150	1	15
449.320	1	7
449.491	1	15
449.661	1	29
449.832	1	26
450.002	1	18
450.173	1	35
450.343	1	39
450.514	1	8
450.684	1	20
450.855	1	27
451.025	1	23
451.196	1	10
451.366	1	18
451.537	1	20
451.707	1	13
451.878	1	18
452.048	1	22
452.218	1	22
452.389	1	23
452.559	1	25
452.730	1	21
452.900	1	32
453.071	1	24
453.241	1	12
453.412	1	28
453.582	1	9
453.753	1	11
453.923	1	25
454.093	1	22
454.264	1	19
454.434	1	19
454.605	1	21
454.775	1	13
454.946	1	23
455.116	1	14
455.287	1	15
455.457	1	20
455.628	1	10
455.798	1	21
455.968	1	23
456.139	1	23
456.309	1	28
456.480	1	22
456.650	1	21
456.821	1	28
456.991	1	21
457.161	1	14
457.332	1	23
457.502	1	22
457.673	1	24
457.843	1	18
458.014	1	26
458.184	1	27
458.355	1	14
458.525	1	21
458.695	1	16
458.866	1	24
459.036	1	29
459.207	1	18
459.377	1	21
459.548	1	25
459.718	1	14
459.888	1	20
460.059	1	24
460.229	1	15
460.400	1	17
460.570	1	18
460.740	1	24
460.911	1	28
461.081	1	16
461.252	1	20
461.422	1	12
461.593	1	12
461.763	1	22
461.933	1	13
462.104	1	21
462.274	1	19
462.445	1	7
462.615	1	25
462.785	1	22
462.956	1	9
463.126	1	20
463.297	1	26
463.467	1	25
463.638	1	23
463.808	1	27
463.978	1	8
464.149	1	25
464.319	1	9
464.490	1	15
464.660	1	33
464.830	1	17
465.001	1	11
465.171	1	9
465.342	1	24
465.512	1	27
465.682	1	14
465.853	1	11
466.023	1	33
466.194	1	7
466.364	1	25
466.534	1	5
466.705	1	26
466.875	1	22
467.045	1	23
467.216	1	25
467.386	1	19
467.557	1	31
467.727	1	25
467.897	1	29
468.068	1	15
468.238	1	10
468.409	1	22
468.579	1	20
468.749	1	21
468.920	1	23
469.090	1	15
469.260	1	38
469.431	1	13
469.601	1	4
469.772	1	15
469.942	1	14
470.112	1	20
470.283	1	22
470.453	1	24
470.623	1	21
470.794	1	13
470.964	1	23
471.135	1	12
471.305	1	21
471.475	1	13
471.646	1	21
471.816	1	16
471.986	1	13
472.157	1	16
472.327	1	13
472.497	1	20
472.668	1	3
472.838	1	15
473.009	1	25
473.179	1	24
473.349	1	8
473.520	1	13
473.690	1	18
473.860	1	7
474.031	1	13
474.201	1	17
474.371	1	24
474.542	1	19
474.712	1	10
474.882	1	12
475.053	1	8
475.223	1	8
475.394	1	15
475.564	1	4
475.734	1	20
475.905	1	22
476.075	1	12
476.245	1	26
476.416	1	22
476.586	1	16
476.756	1	11
476.927	1	16
477.097	1	25
477.267	1	15
477.438	1	15
477.608	1	10
477.778	1	11
477.949	1	22
478.119	1	9
478.289	1	11
478.460	1	19
478.630	1	21
478.800	1	10
478.971	1	14
479.141	1	17
479.311	1	15
479.482	1	-5
479.652	1	16
479.822	1	4
479.993	1	20
480.163	1	13
480.333	1	29
480.504	1	16
480.674	1	9
480.844	1	10
481.015	1	19
481.185	1	14
481.355	1	13
481.525	1	7
481.696	1	13
481.866	1	19
482.036	1	2
482.207	1	13
482.377	1	17
482.547	1	11
482.718	1	14
482.888	1	6
483.058	1	22
483.229	1	18
483.399	1	15
483.569	1	8
483.740	1	21
483.910	1	22
484.080	1	32
484.250	1	12
484.421	1	18
484.591	1	14
484.761	1	12
484.932	1	28
485.102	1	6
485.272	1	15
485.443	1	7
485.613	1	12
485.783	1	13
485.953	1	12
486.124	1	9
486.294	1	19
486.464	1	16
486.635	1	2
486.805	1	17
486.975	1	17
487.146	1	17
487.316	1	4
487.486	1	8
487.656	1	23
487.827	1	23
487.997	1	21
488.167	1	23
488.338	1	15
488.508	1	10
488.678	1	19
488.848	1	6
489.019	1	14
489.189	1	9
489.359	1	11
489.529	1	8
489.700	1	9
489.870	1	8
490.040	1	6
490.211	1	-1
490.381	1	19
490.551	1	7
490.721	1	21
490.892	1	30
491.062	1	15
491.232	1	22
491.402	1	10
491.573	1	16
491.743	1	10
491.913	1	1
492.084	1	13
492.254	1	29
492.424	1	12
492.594	1	7
492.765	1	10
492.935	1	8
493.105	1	0
493.275	1	20
493.446	1	13
493.616	1	2
493.786	1	7
493.956	1	17
494.127	1	7
494.297	1	10
494.467	1	9
494.637	1	28
494.808	1	6
494.978	1	10
495.148	1	24
495.318	1	12
495.489	1	15
495.659	1	9
495.829	1	5
495.999	1	11
496.170	1	21
496.340	1	9
496.510	1	24
496.680	1	12
496.851	1	18
497.021	1	25
497.191	1	16
497.361	1	16
497.532	1	6
497.702	1	13
497.872	1	8
498.042	1	17
498.213	1	11
498.383	1	8
498.553	1	20
498.723	1	13
498.894	1	14
499.064	1	5
499.234	1	17
499.404	1	17
499.574	1	17
499.745	1	8
499.915	1	11
500.085	1	4
500.255	1	14
500.426	1	6
500.596	1	15
500.766	1	9
500.936	1	9
501.106	1	11
501.277	1	10
501.447	1	2
501.617	1	6
501.787	1	13
501.958	1	5
502.128	1	8
502.298	1	13
502.468	1	3
502.638	1	18
502.809	1	19
502.979	1	9
503.149	1	6
503.319	1	7
503.489	1	5
503.660	1	14
503.830	1	3
504.000	1	14
504.170	1	7
504.340	1	-1
504.511	1	12
504.681	1	9
504.851	1	5
505.021	1	1
505.192	1	11
505.362	1	15
505.532	1	9
505.702	1	4
505.872	1	13
506.043	1	5
506.213	1	6
506.383	1	3
506.553	1	10
506.723	1	6
506.893	1	9
507.064	1	9
507.234	1	-4
507.404	1	10
507.574	1	6
507.744	1	11
507.915	1	17
508.085	1	2
508.255	1	9
508.425	1	2
508.595	1	-3
508.766	1	8
508.936	1	4
509.106	1	11
509.276	1	14
509.446	1	-5
509.616	1	12
509.787	1	9
509.957	1	12
510.127	1	6
510.297	1	8
510.467	1	11
510.638	1	0
510.808	1	15
510.978	1	14
511.148	1	-4
511.318	1	16
511.488	1	10
511.659	1	3
511.829	1	2
511.999	1	6
512.169	1	8
512.339	1	12
512.509	1	9
512.680	1	15
512.850	1	11
513.020	1	10
513.190	1	9
513.360	1	2
513.530	1	14
513.700	1	-1
513.871	1	10
514.041	1	8
514.211	1	17
514.381	1	8
514.551	1	5
514.721	1	15
514.892	1	13
515.062	1	4
515.232	1	3
515.402	1	8
515.572	1	11
515.742	1	5
515.912	1	14
516.083	1	16
516.253	1	7
516.423	1	8
516.593	1	7
516.763	1	4
516.933	1	6
517.104	1	13
517.274	1	13
517.444	1	2
517.614	1	9
517.784	1	12
517.954	1	16
518.124	1	5
518.294	1	17
518.465	1	2
518.635	1	0
518.805	1	7
518.975	1	10
519.145	1	7
519.315	1	14
519.485	1	3
519.656	1	13
519.826	1	3
519.996	1	3
520.166	1	9
520.336	1	17
520.506	1	4
520.676	1	10
520.846	1	17
521.017	1	1
521.187	1	-1
521.357	1	4
521.527	1	9
521.697	1	6
521.867	1	3
522.037	1	6
522.207	1	12
522.377	1	2
522.548	1	9
522.718	1	11
522.888	1	0
523.058	1	1
523.228	1	10
523.398	1	3
523.568	1	5
523.738	1	5
523.909	1	13
524.079	1	10
524.249	1	8
524.419	1	3
524.589	1	18
524.759	1	7
524.929	1	5
525.099	1	8
525.269	1	14
525.439	1	2
525.610	1	10
525.780	1	21
525.950	1	16
526.120	1	13
526.290	1	6
526.460	1	14
526.630	1	5
526.800	1	5
526.970	1	9
527.140	1	9
527.311	1	7
527.481	1	5
527.651	1	10
527.821	1	2
527.991	1	12
528.161	1	-1
528.331	1	0
528.501	1	7
528.671	1	10
528.841	1	13
529.011	1	2
529.181	1	15
529.352	1	0
529.522	1	-7
529.692	1	2
529.862	1	3
530.032	1	10
530.202	1	10
530.372	1	2
530.542	1	9
530.712	1	-3
530.882	1	-1
531.052	1	11
531.222	1	2
531.392	1	1
531.563	1	6
531.733	1	11
531.903	1	9
532.073	1	2
532.243	1	12
532.413	1	8
532.583	1	4
532.753	1	12
532.923	1	19
533.093	1	-3
533.263	1	9
533.433	1	17
533.603	1	6
533.773	1	11
533.943	1	7
534.113	1	9
534.284	1	9
534.454	1	5
534.624	1	-1
534.794	1	9
534.964	1	16
535.134	1	10
535.304	1	4
535.474	1	0
535.644	1	12
535.814	1	-4
535.984	1	2
536.154	1	15
536.324	1	9
536.494	1	11
536.664	1	-7
536.834	1	11
537.004	1	-1
537.174	1	15
537.344	1	17
537.514	1	8
537.685	1	6
537.855	1	3
538.025	1	12
538.195	1	9
538.365	1	6
538.535	1	-3
538.705	1	-1
538.875	1	4
539.045	1	7
539.215	1	23
539.385	1	3
539.555	1	5
539.725	1	5
539.895	1	11
540.065	1	-1
540.235	1	1
540.405	1	14
540.575	1	16
540.745	1	2
540.915	1	9
541.085	1	1
541.255	1	1
541.425	1	-5
541.595	1	-13
541.765	1	2
541.935	1	17
542.105	1	0
542.275	1	8
542.445	1	2
542.615	1	12
542.785	1	19
542.955	1	3
543.125	1	-1
543.295	1	18
543.465	1	-2
543.635	1	-8
543.805	1	12
543.975	1	5
544.145	1	5
544.315	1	1
544.485	1	12
544.655	1	10
544.825	1	4
544.995	1	6
545.165	1	10
545.335	1	-2
545.505	1	8
545.675	1	8
545.845	1	-3
546.015	1	11
546.185	1	4
546.355	1	5
546.525	1	7
546.695	1	6
546.865	1	3
547.035	1	2
547.205	1	8
547.375	1	10
547.545	1	8
547.715	1	8
547.885	1	10
548.055	1	0
548.225	1	6
548.395	1	15
548.565	1	6
548.735	1	3
548.905	1	7
549.075	1	6
549.245	1	9
549.415	1	10
549.585	1	0
549.755	1	8
549.925	1	-2
550.095	1	2
550.265	1	-5
550.435	1	4
550.605	1	5
550.775	1	8
550.945	1	6
551.115	1	1
551.285	1	-9
551.455	1	-1
551.625	1	13
551.795	1	4
551.965	1	-3
552.135	1	-12
552.305	1	0
552.475	1	14
552.645	1	14
552.815	1	3
552.985	1	-2
553.155	1	-11
553.325	1	4
553.495	1	4
553.665	1	6
553.835	1	4
554.004	1	5
554.174	1	-4
554.344	1	11
554.514	1	8
554.684	1	3
554.854	1	-7
555.024	1	10
555.194	1	11
555.364	1	5
555.534	1	9
555.704	1	4
555.874	1	6
556.044	1	2
556.214	1	-1
556.384	1	0
556.554	1	4
556.724	1	-10
556.894	1	12
557.064	1	2
557.234	1	7
557.404	1	17
557.573	1	8
557.743	1	3
557.913	1	7
558.083	1	1
558.253	1	-4
558.423	1	0
558.593	1	12
558.763	1	4
558.933	1	4
559.103	1	0
559.273	1	10
559.443	1	5
559.613	1	-6
559.783	1	12
559.953	1	4
560.122	1	2
560.292	1	5
560.462	1	1
560.632	1	3
560.802	1	1
560.972	1	8
561.142	1	11
561.312	1	4
561.482	1	1
561.652	1	9
561.822	1	4
561.992	1	3
562.162	1	5
562.331	1	1
562.501	1	2
562.671	1	23
562.841	1	7
563.011	1	8
563.181	1	12
563.351	1	6
563.521	1	4
563.691	1	3
563.861	1	2
564.031	1	7
564.201	1	-3
564.370	1	13
564.540	1	8
564.710	1	8
564.880	1	14
565.050	1	0
565.220	1	4
565.390	1	17
565.560	1	9
565.730	1	5
565.900	1	0
566.069	1	7
566.239	1	1
566.409	1	8
566.579	1	12
566.749	1	9
566.919	1	11
567.089	1	-1
567.259	1	9
567.429	1	-5
567.599	1	5
567.768	1	5
567.938	1	-15
568.108	1	14
568.278	1	8
568.448	1	12
568.618	1	14
568.788	1	4
568.958	1	22
569.128	1	0
569.297	1	9
569.467	1	9
569.637	1	1
569.807	1	-7
569.977	1	8
570.147	1	-4
570.317	1	14
570.487	1	6
570.656	1	3
570.826	1	11
570.996	1	2
571.166	1	-1
571.336	1	9
571.506	1	1
571.676	1	3
571.846	1	-4
572.015	1	8
572.185	1	1
572.355	1	10
572.525	1	7
572.695	1	16
572.865	1	-4
573.035	1	2
573.205	1	-1
573.374	1	0
573.544	1	2
573.714	1	7
573.884	1	10
574.054	1	7
574.224	1	11
574.394	1	2
574.563	1	2
574.733	1	-1
574.903	1	11
575.073	1	0
575.243	1	1
575.413	1	9
575.583	1	10
575.752	1	5
575.922	1	4
576.092	1	1
576.262	1	10
576.432	1	6
576.602	1	-3
576.772	1	-3
576.941	1	15
577.111	1	9
577.281	1	7
577.451	1	13
577.621	1	2
577.791	1	-4
577.960	1	9
578.130	1	2
578.300	1	6
578.470	1	0
578.640	1	3
578.810	1	14
578.979	1	7
579.149	1	0
579.319	1	6
579.489	1	4
579.659	1	5
579.829	1	6
579.998	1	-1
580.168	1	-5
580.338	1	3
580.508	1	-2
580.678	1	3
580.848	1	9
581.017	1	25
581.187	1	0
581.357	1	-11
581.527	1	-1
581.697	1	5
581.867	1	-1
582.036	1	0
582.206	1	5
582.376	1	5
582.546	1	4
582.716	1	-4
582.885	1	8
583.055	1	3
583.225	1	-3
583.395	1	6
583.565	1	9
583.735	1	5
583.904	1	2
584.074	1	2
584.244	1	3
584.414	1	10
584.584	1	1
584.753	1	12
584.923	1	2
585.093	1	3
585.263	1	11
585.433	1	0
585.602	1	1
585.772	1	7
585.942	1	0
586.112	1	2
586.282	1	2
586.451	1	-6
586.621	1	11
586.791	1	6
586.961	1	10
587.131	1	11
587.300	1	-11
587.470	1	4
587.640	1	-2
587.810	1	-5
587.980	1	7
588.149	1	10
588.319	1	11
588.489	1	8
588.659	1	4
588.829	1	2
588.998	1	13
589.168	1	-2
589.338	1	5
589.508	1	-2
589.677	1	13
589.847	1	9
590.017	1	13
590.187	1	4
590.357	1	6
590.526	1	13
590.696	1	5
590.866	1	4
591.036	1	2
591.205	1	-14
591.375	1	12
591.545	1	0
591.715	1	10
591.885	1	9
592.054	1	4
592.224	1	5
592.394	1	7
592.564	1	6
592.733	1	7
592.903	1	0
593.073	1	4
593.243	1	9
593.412	1	2
593.582	1	12
593.752	1	6
593.922	1	2
594.091	1	14
594.261	1	-1
594.431	1	4
594.601	1	2
594.771	1	0
594.940	1	12
595.110	1	2
595.280	1	3
595.450	1	-1
595.619	1	4
595.789	1	13
595.959	1	-1
596.129	1	11
596.298	1	10
596.468	1	11
596.638	1	8
596.808	1	16
596.977	1	5
597.147	1	9
597.317	1	10
597.487	1	1
597.656	1	2
597.826	1	-2
597.996	1	3
598.166	1	4
598.335	1	12
598.505	1	13
598.675	1	10
598.844	1	-2
599.014	1	-2
599.184	1	12
599.354	1	4
599.523	1	6
599.693	1	1
599.863	1	-6
600.033	1	8
600.202	1	-2
600.372	1	-3
600.542	1	12
600.712	1	9
600.881	1	13
601.051	1	4
601.221	1	2
601.390	1	13
601.560	1	8
601.730	1	4
601.900	1	4
602.069	1	7
602.239	1	-10
602.409	1	10
602.578	1	-5
602.748	1	10
602.918	1	-4
603.088	1	9
603.257	1	8
603.427	1	6
603.597	1	12
603.767	1	3
603.936	1	11
604.106	1	9
604.276	1	-2
604.445	1	5
604.615	1	6
604.785	1	3
604.954	1	4
605.124	1	7
605.294	1	8
605.464	1	14
605.633	1	7
605.803	1	-5
605.973	1	5
606.142	1	2
606.312	1	3
606.482	1	5
606.652	1	21
606.821	1	7
606.991	1	3
607.161	1	20
607.330	1	-8
607.500	1	-4
607.670	1	1
607.839	1	10
608.009	1	-5
608.179	1	2
608.348	1	16
608.518	1	14
608.688	1	16
608.858	1	5
609.027	1	16
609.197	1	1
609.367	1	-1
609.536	1	1
609.706	1	-2
609.876	1	0
610.045	1	3
610.215	1	7
610.385	1	7
610.554	1	-5
610.724	1	15
610.894	1	-2
611.063	1	0
611.233	1	7
611.403	1	4
611.572	1	4
611.742	1	4
611.912	1	7
612.081	1	14
612.251	1	13
612.421	1	0
612.590	1	-13
612.760	1	4
612.930	1	1
613.099	1	11
613.269	1	1
613.439	1	3
613.608	1	7
613.778	1	2
613.948	1	8
614.117	1	15
614.287	1	4
614.457	1	-5
614.626	1	-8
614.796	1	1
614.966	1	-7
615.135	1	6
615.305	1	5
615.475	1	12
615.644	1	13
615.814	1	11
615.984	1	4
616.153	1	-5
616.323	1	-5
616.493	1	6
616.662	1	11
616.832	1	5
617.002	1	17
617.171	1	5
617.341	1	3
617.511	1	9
617.680	1	10
617.850	1	1
618.019	1	11
618.189	1	8
618.359	1	6
618.528	1	6
618.698	1	-1
618.868	1	13
619.037	1	10
619.207	1	8
619.377	1	15
619.546	1	2
619.716	1	6
619.885	1	11
620.055	1	9
620.225	1	5
620.394	1	6
620.564	1	12
620.734	1	1
620.903	1	6
621.073	1	-4
621.242	1	-6
621.412	1	7
621.582	1	-3
621.751	1	-4
621.921	1	7
622.091	1	-1
622.260	1	4
622.430	1	5
622.599	1	13
622.769	1	3
622.939	1	7
623.108	1	9
623.278	1	7
623.448	1	4
623.617	1	15
623.787	1	7
623.956	1	-4
624.126	1	5
624.296	1	12
624.465	1	8
624.635	1	-2
624.804	1	15
624.974	1	0
625.144	1	18
625.313	1	-7
625.483	1	10
625.652	1	-3
625.822	1	3
625.992	1	3
626.161	1	-3
626.331	1	12
626.501	1	12
626.670	1	8
626.840	1	5
627.009	1	6
627.179	1	-2
627.348	1	9
627.518	1	3
627.688	1	8
627.857	1	6
628.027	1	1
628.196	1	6
628.366	1	0
628.536	1	3
628.705	1	5
628.875	1	11
629.044	1	-10
629.214	1	6
629.384	1	10
629.553	1	3
629.723	1	8
629.892	1	5
630.062	1	14
630.232	1	-4
630.401	1	9
630.571	1	11
630.740	1	-4
630.910	1	11
631.079	1	5
631.249	1	4
631.419	1	10
631.588	1	3
631.758	1	10
631.927	1	2
632.097	1	7
632.266	1	5
632.436	1	5
632.606	1	14
632.775	1	18
632.945	1	-5
633.114	1	6
633.284	1	0
633.453	1	4
633.623	1	5
633.793	1	10
633.962	1	-3
634.132	1	4
634.301	1	4
634.471	1	7
634.640	1	12
634.810	1	11
634.979	1	19
635.149	1	-4
635.319	1	5
635.488	1	3
635.658	1	0
635.827	1	11
635.997	1	1
636.166	1	6
636.336	1	5
636.505	1	19
636.675	1	-10
636.845	1	12
637.014	1	12
637.184	1	4
637.353	1	8
637.523	1	11
637.692	1	5
637.862	1	-3
638.031	1	4
638.201	1	14
638.370	1	3
638.540	1	1
638.710	1	3
638.879	1	4
639.049	1	18
639.218	1	0
639.388	1	12
639.557	1	19
639.727	1	4
639.896	1	0
640.066	1	5
640.235	1	9
640.405	1	4
640.574	1	9
640.744	1	12
640.914	1	10
641.083	1	6
641.253	1	-1
641.422	1	7
641.592	1	-1
641.761	1	17
641.931	1	2
642.100	1	14
642.270	1	7
642.439	1	3
642.609	1	9
642.778	1	10
642.948	1	6
643.117	1	9
643.287	1	-2
643.456	1	-5
643.626	1	8
643.795	1	8
643.965	1	6
644.134	1	2
644.304	1	12
644.473	1	6
644.643	1	3
644.812	1	8
644.982	1	4
645.151	1	3
645.321	1	2
645.490	1	16
645.660	1	4
645.829	1	-2
645.999	1	21
646.168	1	4
646.338	1	3
646.507	1	1
646.677	1	13
646.846	1	10
647.016	1	6
647.185	1	9
647.355	1	7
647.524	1	4
647.694	1	5
647.863	1	3
648.033	1	13
648.202	1	4
648.372	1	6
648.541	1	1
648.711	1	-1
648.880	1	7
649.050	1	8
649.219	1	3
649.389	1	12
649.558	1	10
649.728	1	5
649.897	1	6
650.067	1	-6
650.236	1	13
650.406	1	-3
650.575	1	13
650.745	1	11
650.914	1	15
651.084	1	-11
651.253	1	7
651.423	1	-7
651.592	1	-1
651.762	1	7
651.931	1	9
652.101	1	6
652.270	1	1
652.440	1	23
652.609	1	12
652.778	1	12
652.948	1	-5
653.117	1	18
653.287	1	8
653.456	1	9
653.626	1	6
653.795	1	7
653.965	1	15
654.134	1	4
654.304	1	11
654.473	1	6
654.643	1	12
654.812	1	18
654.982	1	7
655.151	1	9
655.320	1	0
655.490	1	-1
655.659	1	11
655.829	1	-1
655.998	1	8
656.168	1	0
656.337	1	11
656.507	1	-3
656.676	1	10
656.846	1	5
657.015	1	13
657.184	1	-4
657.354	1	4
657.523	1	6
657.693	1	6
657.862	1	6
658.032	1	2
658.201	1	6
658.371	1	14
658.540	1	11
658.709	1	10
658.879	1	-13
659.048	1	-2
659.218	1	14
659.387	1	20
659.557	1	8
659.726	1	18
659.895	1	0
660.065	1	5
660.234	1	4
660.404	1	20
660.573	1	10
660.743	1	13
660.912	1	13
661.081	1	3
661.251	1	1
661.420	1	12
661.590	1	17
661.759	1	7
661.929	1	7
662.098	1	18
662.267	1	14
662.437	1	14
662.606	1	9
662.776	1	10
662.945	1	14
663.115	1	-6
663.284	1	-5
663.453	1	2
663.623	1	8
663.792	1	10
663.962	1	4
664.131	1	1
664.300	1	0
664.470	1	2
664.639	1	4
664.809	1	7
664.978	1	6
665.148	1	14
665.317	1	1
665.486	1	3
665.656	1	0
665.825	1	12
665.995	1	6
666.164	1	20
666.333	1	6
666.503	1	16
666.672	1	8
666.842	1	-5
667.011	1	8
667.180	1	0
667.350	1	17
667.519	1	2
667.689	1	19
667.858	1	18
668.027	1	-2
668.197	1	10
668.366	1	7
668.536	1	2
668.705	1	18
668.874	1	10
669.044	1	1
669.213	1	4
669.382	1	15
669.552	1	7
669.721	1	0
669.891	1	3
670.060	1	5
670.229	1	5
670.399	1	15
670.568	1	17
670.738	1	6
670.907	1	5
671.076	1	8
671.246	1	-1
671.415	1	12
671.584	1	2
671.754	1	25
671.923	1	11
672.093	1	11
672.262	1	9
672.431	1	19
672.601	1	-8
672.770	1	-2
672.939	1	8
673.109	1	11
673.278	1	13
673.448	1	5
673.617	1	12
673.786	1	6
