325.333	1	5
325.504	1	0
325.675	1	3
325.846	1	-1
326.017	1	6
326.188	1	-5
326.359	1	2
326.531	1	1
326.702	1	1
326.873	1	9
327.044	1	-10
327.215	1	-3
327.386	1	-3
327.557	1	10
327.728	1	-14
327.899	1	5
328.070	1	2
328.241	1	2
328.412	1	-6
328.583	1	-2
328.754	1	-5
328.926	1	-1
329.097	1	8
329.268	1	3
329.439	1	8
329.610	1	1
329.781	1	8
329.952	1	5
330.123	1	-4
330.294	1	3
330.465	1	18
330.636	1	-3
330.807	1	-4
330.978	1	8
331.149	1	-2
331.320	1	1
331.492	1	7
331.663	1	4
331.834	1	5
332.005	1	-2
332.176	1	-6
332.347	1	7
332.518	1	2
332.689	1	8
332.860	1	-5
333.031	1	7
333.202	1	12
333.373	1	-2
333.544	1	-6
333.715	1	0
333.886	1	5
334.057	1	6
334.228	1	9
334.399	1	-1
334.570	1	0
334.741	1	5
334.912	1	-1
335.084	1	5
335.255	1	5
335.426	1	-1
335.597	1	6
335.768	1	-10
335.939	1	3
336.110	1	-7
336.281	1	7
336.452	1	12
336.623	1	3
336.794	1	-9
336.965	1	0
337.136	1	-1
337.307	1	4
337.478	1	-6
337.649	1	7
337.820	1	-4
337.991	1	20
338.162	1	6
338.333	1	4
338.504	1	-4
338.675	1	-3
338.846	1	0
339.017	1	6
339.188	1	0
339.359	1	3
339.530	1	6
339.701	1	4
339.872	1	1
340.043	1	6
340.214	1	8
340.385	1	2
340.556	1	13
340.727	1	5
340.898	1	5
341.069	1	10
341.240	1	14
341.411	1	12
341.582	1	2
341.753	1	2
341.924	1	5
342.095	1	0
342.266	1	-5
342.437	1	5
342.608	1	-10
342.779	1	-4
342.950	1	5
343.121	1	5
343.292	1	10
343.463	1	6
343.634	1	11
343.805	1	-5
343.976	1	2
344.147	1	2
344.318	1	-4
344.489	1	0
344.660	1	9
344.831	1	-1
345.002	1	-1
345.173	1	15
345.344	1	-2
345.515	1	4
345.686	1	5
345.857	1	5
346.028	1	6
346.199	1	3
346.370	1	10
346.541	1	20
346.712	1	6
346.883	1	9
347.054	1	0
347.225	1	-8
347.396	1	4
347.567	1	10
347.738	1	5
347.909	1	7
348.080	1	1
348.251	1	-2
348.422	1	4
348.593	1	6
348.764	1	4
348.935	1	3
349.106	1	1
349.277	1	16
349.448	1	16
349.619	1	4
349.790	1	7
349.961	1	5
350.132	1	-2
350.303	1	10
350.474	1	0
350.645	1	4
350.816	1	9
350.987	1	4
351.157	1	-5
351.328	1	5
351.499	1	0
351.670	1	5
351.841	1	-12
352.012	1	8
352.183	1	-6
352.354	1	5
352.525	1	0
352.696	1	5
352.867	1	3
353.038	1	7
353.209	1	13
353.380	1	6
353.551	1	-2
353.722	1	3
353.893	1	-2
354.064	1	4
354.235	1	8
354.406	1	7
354.576	1	11
354.747	1	8
354.918	1	10
355.089	1	8
355.260	1	7
355.431	1	8
355.602	1	10
355.773	1	16
355.944	1	3
356.115	1	-2
356.286	1	2
356.457	1	6
356.628	1	26
356.799	1	6
356.970	1	2
357.141	1	9
357.311	1	12
357.482	1	2
357.653	1	-8
357.824	1	13
357.995	1	6
358.166	1	5
358.337	1	0
358.508	1	5
358.679	1	1
358.850	1	8
359.021	1	7
359.192	1	9
359.363	1	2
359.533	1	-1
359.704	1	5
359.875	1	18
360.046	1	2
360.217	1	-5
360.388	1	6
360.559	1	9
360.730	1	5
360.901	1	9
361.072	1	2
361.243	1	10
361.414	1	6
361.584	1	15
361.755	1	15
361.926	1	0
362.097	1	3
362.268	1	2
362.439	1	-5
362.610	1	4
362.781	1	8
362.952	1	11
363.123	1	18
363.293	1	11
363.464	1	-1
363.635	1	11
363.806	1	-3
363.977	1	1
364.148	1	-11
364.319	1	5
364.490	1	9
364.661	1	11
364.832	1	6
365.002	1	11
365.173	1	8
365.344	1	7
365.515	1	4
365.686	1	12
365.857	1	11
366.028	1	2
366.199	1	-2
366.370	1	12
366.540	1	8
366.711	1	-5
366.882	1	4
367.053	1	1
367.224	1	3
367.395	1	9
367.566	1	9
367.737	1	11
367.908	1	12
368.078	1	19
368.249	1	1
368.420	1	17
368.591	1	10
368.762	1	1
368.933	1	-4
369.104	1	13
369.274	1	4
369.445	1	8
369.616	1	10
369.787	1	9
369.958	1	9
370.129	1	9
370.300	1	5
370.471	1	13
370.641	1	-3
370.812	1	16
370.983	1	6
371.154	1	12
371.325	1	10
371.496	1	3
371.667	1	10
371.837	1	6
372.008	1	11
372.179	1	5
372.350	1	5
372.521	1	4
372.692	1	6
372.863	1	3
373.033	1	4
373.204	1	14
373.375	1	6
373.546	1	12
373.717	1	1
373.888	1	3
374.059	1	13
374.229	1	16
374.400	1	1
374.571	1	16
374.742	1	7
374.913	1	1
375.084	1	2
375.254	1	11
375.425	1	-2
375.596	1	9
375.767	1	3
375.938	1	15
376.109	1	-1
376.279	1	-3
376.450	1	4
376.621	1	14
376.792	1	5
376.963	1	12
377.134	1	15
377.304	1	15
377.475	1	9
377.646	1	10
377.817	1	0
377.988	1	1
378.159	1	0
378.329	1	5
378.500	1	3
378.671	1	15
378.842	1	0
379.013	1	0
379.184	1	17
379.354	1	-4
379.525	1	1
379.696	1	0
379.867	1	13
380.038	1	-9
380.209	1	-7
380.379	1	15
380.550	1	14
380.721	1	23
380.892	1	5
381.063	1	-4
381.233	1	4
381.404	1	2
381.575	1	3
381.746	1	8
381.917	1	4
382.087	1	6
382.258	1	13
382.429	1	16
382.600	1	20
382.771	1	6
382.941	1	4
383.112	1	-1
383.283	1	2
383.454	1	14
383.625	1	10
383.795	1	10
383.966	1	0
384.137	1	12
384.308	1	14
384.479	1	9
384.649	1	18
384.820	1	-1
384.991	1	-3
385.162	1	12
385.333	1	12
385.503	1	7
385.674	1	0
385.845	1	7
386.016	1	10
386.187	1	-2
386.357	1	11
386.528	1	-4
386.699	1	10
386.870	1	16
387.041	1	5
387.211	1	9
387.382	1	9
387.553	1	9
387.724	1	-1
387.894	1	8
388.065	1	1
388.236	1	2
388.407	1	11
388.578	1	8
388.748	1	7
388.919	1	16
389.090	1	11
389.261	1	23
389.431	1	13
389.602	1	5
389.773	1	8
389.944	1	2
390.114	1	9
390.285	1	6
390.456	1	4
390.627	1	7
390.798	1	16
390.968	1	10
391.139	1	4
391.310	1	15
391.481	1	6
391.651	1	-2
391.822	1	0
391.993	1	20
392.164	1	2
392.334	1	10
392.505	1	11
392.676	1	12
392.847	1	4
393.017	1	16
393.188	1	6
393.359	1	15
393.530	1	9
393.700	1	11
393.871	1	3
394.042	1	-2
394.213	1	10
394.383	1	18
394.554	1	4
394.725	1	3
394.896	1	8
395.066	1	10
395.237	1	3
395.408	1	13
395.579	1	3
395.749	1	12
395.920	1	3
396.091	1	4
396.262	1	15
396.432	1	8
396.603	1	6
396.774	1	4
396.945	1	7
397.115	1	12
397.286	1	11
397.457	1	18
397.627	1	8
397.798	1	0
397.969	1	-1
398.140	1	14
398.310	1	8
398.481	1	7
398.652	1	21
398.823	1	12
398.993	1	4
399.164	1	11
399.335	1	8
399.505	1	-2
399.676	1	11
399.847	1	8
400.018	1	17
400.188	1	5
400.359	1	9
400.530	1	11
400.700	1	5
400.871	1	15
401.042	1	8
401.213	1	3
401.383	1	5
401.554	1	6
401.725	1	19
401.895	1	20
402.066	1	5
402.237	1	10
402.408	1	11
402.578	1	8
402.749	1	2
402.920	1	7
403.090	1	7
403.261	1	22
403.432	1	7
403.603	1	5
403.773	1	24
403.944	1	5
404.115	1	13
404.285	1	9
404.456	1	8
404.627	1	4
404.797	1	2
404.968	1	12
405.139	1	3
405.310	1	10
405.480	1	10
405.651	1	18
405.822	1	13
405.992	1	12
406.163	1	13
406.334	1	1
406.504	1	10
406.675	1	-2
406.846	1	9
407.016	1	12
407.187	1	21
407.358	1	16
407.528	1	9
407.699	1	15
407.870	1	3
408.041	1	14
408.211	1	7
408.382	1	8
408.553	1	-3
408.723	1	18
408.894	1	12
409.065	1	18
409.235	1	18
409.406	1	12
409.577	1	8
409.747	1	7
409.918	1	8
410.089	1	13
410.259	1	15
410.430	1	12
410.601	1	10
410.771	1	19
410.942	1	24
411.113	1	4
411.283	1	7
411.454	1	12
411.625	1	9
411.795	1	4
411.966	1	15
412.137	1	6
412.307	1	14
412.478	1	13
412.649	1	6
412.819	1	5
412.990	1	8
413.161	1	13
413.331	1	12
413.502	1	7
413.672	1	10
413.843	1	11
414.014	1	14
414.184	1	7
414.355	1	25
414.526	1	14
414.696	1	2
414.867	1	18
415.038	1	12
415.208	1	6
415.379	1	10
415.550	1	27
415.720	1	5
415.891	1	8
416.062	1	5
416.232	1	12
416.403	1	5
416.573	1	19
416.744	1	15
416.915	1	16
417.085	1	20
417.256	1	10
417.427	1	15
417.597	1	9
417.768	1	12
417.939	1	18
418.109	1	7
418.280	1	7
418.450	1	1
418.621	1	4
418.792	1	10
418.962	1	12
419.133	1	9
419.304	1	13
419.474	1	9
419.645	1	7
419.815	1	26
419.986	1	8
420.157	1	4
420.327	1	10
420.498	1	11
420.669	1	12
420.839	1	4
421.010	1	20
421.180	1	14
421.351	1	13
421.522	1	1
421.692	1	14
421.863	1	6
422.033	1	18
422.204	1	14
422.375	1	9
422.545	1	7
422.716	1	7
422.886	1	7
423.057	1	4
423.228	1	11
423.398	1	12
423.569	1	7
423.740	1	7
423.910	1	11
424.081	1	7
424.251	1	-4
424.422	1	13
424.593	1	14
424.763	1	14
424.934	1	10
425.104	1	18
425.275	1	8
425.445	1	15
425.616	1	3
425.787	1	9
425.957	1	16
426.128	1	-4
426.298	1	2
426.469	1	9
426.640	1	10
426.810	1	11
426.981	1	9
427.151	1	16
427.322	1	16
427.493	1	1
427.663	1	7
427.834	1	15
428.004	1	11
428.175	1	5
428.345	1	4
428.516	1	19
428.687	1	7
428.857	1	2
429.028	1	9
429.198	1	0
429.369	1	7
429.540	1	-3
429.710	1	12
429.881	1	10
430.051	1	5
430.222	1	3
430.392	1	20
430.563	1	14
430.734	1	11
430.904	1	8
431.075	1	3
431.245	1	8
431.416	1	5
431.586	1	3
431.757	1	17
431.927	1	21
432.098	1	1
432.269	1	7
432.439	1	21
432.610	1	15
432.780	1	11
432.951	1	4
433.121	1	4
433.292	1	9
433.462	1	5
433.633	1	10
433.804	1	22
433.974	1	-7
434.145	1	22
434.315	1	10
434.486	1	11
434.656	1	4
434.827	1	4
434.997	1	1
435.168	1	14
435.339	1	13
435.509	1	10
435.680	1	9
435.850	1	4
436.021	1	12
436.191	1	10
436.362	1	6
436.532	1	9
436.703	1	4
436.873	1	16
437.044	1	7
437.214	1	17
437.385	1	19
437.556	1	10
437.726	1	12
437.897	1	5
438.067	1	-2
438.238	1	8
438.408	1	6
438.579	1	16
438.749	1	10
438.920	1	-1
439.090	1	13
439.261	1	10
439.431	1	17
439.602	1	7
439.772	1	7
439.943	1	-5
440.113	1	1
440.284	1	9
440.455	1	16
440.625	1	19
440.796	1	5
440.966	1	-3
441.137	1	13
441.307	1	8
441.478	1	2
441.648	1	13
441.819	1	11
441.989	1	6
442.160	1	5
442.330	1	11
442.501	1	14
442.671	1	-5
442.842	1	1
443.012	1	15
443.183	1	14
443.353	1	10
443.524	1	8
443.694	1	-3
443.865	1	7
444.035	1	5
444.206	1	8
444.376	1	12
444.547	1	10
444.717	1	15
444.888	1	5
445.058	1	15
445.229	1	9
445.399	1	19
445.570	1	13
445.740	1	7
445.911	1	-8
446.081	1	14
446.252	1	12
446.422	1	11
446.593	1	4
446.763	1	19
446.934	1	8
447.104	1	3
447.275	1	-3
447.445	1	1
447.616	1	5
447.786	1	15
447.957	1	10
448.127	1	1
448.298	1	-5
448.468	1	7
448.639	1	22
448.809	1	17
448.979	1	-4
449.150	1	1
449.320	1	6
449.491	1	9
449.661	1	2
449.832	1	11
450.002	1	-1
450.173	1	14
450.343	1	19
450.514	1	16
450.684	1	11
450.855	1	13
451.025	1	-2
451.196	1	2
451.366	1	16
451.537	1	11
451.707	1	6
451.878	1	-2
452.048	1	10
452.218	1	9
452.389	1	8
452.559	1	6
452.730	1	6
452.900	1	12
453.071	1	15
453.241	1	2
453.412	1	2
453.582	1	4
453.753	1	1
453.923	1	14
454.093	1	9
454.264	1	3
454.434	1	7
454.605	1	2
454.775	1	5
454.946	1	6
455.116	1	7
455.287	1	2
455.457	1	19
455.628	1	-8
455.798	1	6
455.968	1	6
456.139	1	1
456.309	1	15
456.480	1	6
456.650	1	3
456.821	1	16
456.991	1	14
457.161	1	10
457.332	1	12
457.502	1	11
457.673	1	12
457.843	1	2
458.014	1	11
458.184	1	3
458.355	1	6
458.525	1	0
458.695	1	11
458.866	1	9
459.036	1	12
459.207	1	10
459.377	1	1
459.548	1	8
459.718	1	7
459.888	1	10
460.059	1	15
460.229	1	6
460.400	1	6
460.570	1	11
460.740	1	4
460.911	1	12
461.081	1	4
461.252	1	1
461.422	1	-1
461.593	1	10
461.763	1	12
461.933	1	16
462.104	1	6
462.274	1	8
462.445	1	2
462.615	1	15
462.785	1	7
462.956	1	2
463.126	1	9
463.297	1	6
463.467	1	11
463.638	1	7
463.808	1	15
463.978	1	2
464.149	1	12
464.319	1	10
464.490	1	12
464.660	1	14
464.830	1	2
465.001	1	-7
465.171	1	5
465.342	1	1
465.512	1	15
465.682	1	9
465.853	1	10
466.023	1	24
466.194	1	4
466.364	1	8
466.534	1	4
466.705	1	6
466.875	1	7
467.045	1	9
467.216	1	12
467.386	1	7
467.557	1	14
467.727	1	4
467.897	1	25
468.068	1	9
468.238	1	2
468.409	1	13
468.579	1	1
468.749	1	8
468.920	1	13
469.090	1	5
469.260	1	13
469.431	1	7
469.601	1	3
469.772	1	5
469.942	1	10
470.112	1	2
470.283	1	8
470.453	1	7
470.623	1	5
470.794	1	-4
470.964	1	7
471.135	1	4
471.305	1	7
471.475	1	10
471.646	1	16
471.816	1	7
471.986	1	8
472.157	1	1
472.327	1	13
472.497	1	-2
472.668	1	2
472.838	1	6
473.009	1	0
473.179	1	14
473.349	1	1
473.520	1	-3
473.690	1	4
473.860	1	11
474.031	1	5
474.201	1	7
474.371	1	15
474.542	1	13
474.712	1	-5
474.882	1	11
475.053	1	6
475.223	1	3
475.394	1	-5
475.564	1	10
475.734	1	3
475.905	1	3
476.075	1	5
476.245	1	12
476.416	1	14
476.586	1	1
476.756	1	4
476.927	1	11
477.097	1	17
477.267	1	10
477.438	1	-4
477.608	1	1
477.778	1	4
477.949	1	14
478.119	1	4
478.289	1	5
478.460	1	2
478.630	1	12
478.800	1	2
478.971	1	3
479.141	1	7
479.311	1	10
479.482	1	-11
479.652	1	11
479.822	1	-7
479.993	1	19
480.163	1	13
480.333	1	18
480.504	1	-3
480.674	1	-1
480.844	1	-4
481.015	1	2
481.185	1	12
481.355	1	4
481.525	1	-8
481.696	1	0
481.866	1	10
482.036	1	3
482.207	1	9
482.377	1	5
482.547	1	2
482.718	1	0
482.888	1	-2
483.058	1	9
483.229	1	3
483.399	1	1
483.569	1	1
483.740	1	3
483.910	1	17
484.080	1	11
484.250	1	5
484.421	1	1
484.591	1	13
484.761	1	6
484.932	1	21
485.102	1	-7
485.272	1	-3
485.443	1	9
485.613	1	-6
485.783	1	7
485.953	1	4
486.124	1	13
486.294	1	3
486.464	1	4
486.635	1	-5
486.805	1	19
486.975	1	3
487.146	1	3
487.316	1	-15
487.486	1	1
487.656	1	16
487.827	1	-2
487.997	1	7
488.167	1	11
488.338	1	14
488.508	1	-2
488.678	1	10
488.848	1	7
489.019	1	5
489.189	1	-4
489.359	1	5
489.529	1	1
489.700	1	2
489.870	1	-4
490.040	1	6
490.211	1	-6
490.381	1	16
490.551	1	-5
490.721	1	12
490.892	1	17
491.062	1	-6
491.232	1	5
491.402	1	-6
491.573	1	-6
491.743	1	-7
491.913	1	2
492.084	1	4
492.254	1	23
492.424	1	1
492.594	1	0
492.765	1	8
492.935	1	-4
493.105	1	7
493.275	1	6
493.446	1	-1
493.616	1	-7
493.786	1	5
493.956	1	11
494.127	1	9
494.297	1	15
494.467	1	7
494.637	1	15
494.808	1	-1
494.978	1	-6
495.148	1	9
495.318	1	6
495.489	1	11
495.659	1	4
495.829	1	9
495.999	1	0
496.170	1	-1
496.340	1	8
496.510	1	13
496.680	1	3
496.851	1	16
497.021	1	13
497.191	1	-3
497.361	1	7
497.532	1	12
497.702	1	14
497.872	1	4
498.042	1	17
498.213	1	4
498.383	1	4
498.553	1	2
498.723	1	7
498.894	1	17
499.064	1	-11
499.234	1	8
499.404	1	2
499.574	1	9
499.745	1	-7
499.915	1	0
500.085	1	-4
500.255	1	2
500.426	1	-7
500.596	1	9
500.766	1	4
500.936	1	0
501.106	1	4
501.277	1	8
501.447	1	4
501.617	1	5
501.787	1	3
501.958	1	-1
502.128	1	20
502.298	1	11
502.468	1	2
502.638	1	19
502.809	1	10
502.979	1	8
503.149	1	-6
503.319	1	2
503.489	1	0
503.660	1	0
503.830	1	-6
504.000	1	6
504.170	1	-5
504.340	1	-1
504.511	1	9
504.681	1	2
504.851	1	8
505.021	1	0
505.192	1	-4
505.362	1	3
505.532	1	13
505.702	1	1
505.872	1	6
506.043	1	-8
506.213	1	2
506.383	1	-3
506.553	1	13
506.723	1	8
506.893	1	0
507.064	1	5
507.234	1	3
507.404	1	7
507.574	1	1
507.744	1	-4
507.915	1	5
508.085	1	7
508.255	1	3
508.425	1	6
508.595	1	1
508.766	1	6
508.936	1	2
509.106	1	-2
509.276	1	6
509.446	1	-11
509.616	1	16
509.787	1	12
509.957	1	7
510.127	1	9
510.297	1	9
510.467	1	5
510.638	1	-4
510.808	1	4
510.978	1	0
511.148	1	-3
511.318	1	5
511.488	1	2
511.659	1	-10
511.829	1	1
511.999	1	0
512.169	1	-1
512.339	1	0
512.509	1	4
512.680	1	5
512.850	1	4
513.020	1	8
513.190	1	-3
513.360	1	4
513.530	1	9
513.700	1	7
513.871	1	10
514.041	1	8
514.211	1	13
514.381	1	-5
514.551	1	5
514.721	1	4
514.892	1	9
515.062	1	-4
515.232	1	5
515.402	1	11
515.572	1	6
515.742	1	1
515.912	1	4
516.083	1	-4
516.253	1	-5
516.423	1	-1
516.593	1	3
516.763	1	9
516.933	1	7
517.104	1	4
517.274	1	8
517.444	1	-1
517.614	1	0
517.784	1	7
517.954	1	2
518.124	1	-7
518.294	1	15
518.465	1	2
518.635	1	3
518.805	1	4
518.975	1	10
519.145	1	6
519.315	1	7
519.485	1	-8
519.656	1	16
519.826	1	0
519.996	1	0
520.166	1	-4
520.336	1	5
520.506	1	7
520.676	1	0
520.846	1	11
521.017	1	-11
521.187	1	2
521.357	1	-6
521.527	1	-2
521.697	1	-2
521.867	1	-2
522.037	1	5
522.207	1	11
522.377	1	0
522.548	1	3
522.718	1	-1
522.888	1	2
523.058	1	-1
523.228	1	14
523.398	1	1
523.568	1	1
523.738	1	0
523.909	1	5
524.079	1	2
524.249	1	-5
524.419	1	-3
524.589	1	4
524.759	1	0
524.929	1	2
525.099	1	11
525.269	1	11
525.439	1	7
525.610	1	5
525.780	1	7
525.950	1	4
526.120	1	5
526.290	1	8
526.460	1	3
526.630	1	0
526.800	1	6
526.970	1	8
527.140	1	12
527.311	1	-1
527.481	1	-1
527.651	1	-4
527.821	1	-2
527.991	1	9
528.161	1	5
528.331	1	5
528.501	1	7
528.671	1	5
528.841	1	10
529.011	1	-2
529.181	1	5
529.352	1	2
529.522	1	0
529.692	1	5
529.862	1	2
530.032	1	4
530.202	1	3
530.372	1	5
530.542	1	7
530.712	1	-6
530.882	1	2
531.052	1	-4
531.222	1	-5
531.392	1	-3
531.563	1	0
531.733	1	15
531.903	1	9
532.073	1	8
532.243	1	8
532.413	1	6
532.583	1	-10
532.753	1	-2
532.923	1	12
533.093	1	-4
533.263	1	6
533.433	1	-2
533.603	1	-3
533.773	1	5
533.943	1	1
534.113	1	0
534.284	1	2
534.454	1	8
534.624	1	-7
534.794	1	5
534.964	1	-1
535.134	1	3
535.304	1	-4
535.474	1	-8
535.644	1	21
535.814	1	-9
535.984	1	-5
536.154	1	1
536.324	1	-1
536.494	1	8
536.664	1	-3
536.834	1	6
537.004	1	0
537.174	1	14
537.344	1	5
537.514	1	6
537.685	1	-4
537.855	1	-6
538.025	1	-2
538.195	1	5
538.365	1	9
538.535	1	2
538.705	1	0
538.875	1	12
539.045	1	4
539.215	1	1
539.385	1	0
539.555	1	-6
539.725	1	8
539.895	1	11
540.065	1	4
540.235	1	1
540.405	1	6
540.575	1	11
540.745	1	-1
540.915	1	8
541.085	1	-1
541.255	1	-1
541.425	1	-6
541.595	1	-7
541.765	1	5
541.935	1	4
542.105	1	4
542.275	1	-5
542.445	1	6
542.615	1	11
542.785	1	0
542.955	1	-1
543.125	1	-2
543.295	1	13
543.465	1	0
543.635	1	-10
543.805	1	6
543.975	1	0
544.145	1	-1
544.315	1	4
544.485	1	3
544.655	1	8
544.825	1	4
544.995	1	13
545.165	1	9
545.335	1	-3
545.505	1	0
545.675	1	0
545.845	1	5
546.015	1	8
546.185	1	0
546.355	1	2
546.525	1	-2
546.695	1	9
546.865	1	-7
547.035	1	0
547.205	1	-1
547.375	1	10
547.545	1	1
547.715	1	6
547.885	1	10
548.055	1	12
548.225	1	6
548.395	1	12
548.565	1	-1
548.735	1	1
548.905	1	4
549.075	1	7
549.245	1	4
549.415	1	6
549.585	1	3
549.755	1	4
549.925	1	-2
550.095	1	6
550.265	1	1
550.435	1	-3
550.605	1	4
550.775	1	8
550.945	1	5
551.115	1	-3
551.285	1	-6
551.455	1	-5
551.625	1	9
551.795	1	6
551.965	1	1
552.135	1	-13
552.305	1	4
552.475	1	8
552.645	1	14
552.815	1	3
552.985	1	5
553.155	1	-1
553.325	1	2
553.495	1	-1
553.665	1	4
553.835	1	-9
554.004	1	-7
554.174	1	-3
554.344	1	-7
554.514	1	12
554.684	1	2
554.854	1	-8
555.024	1	17
555.194	1	11
555.364	1	-5
555.534	1	3
555.704	1	-5
555.874	1	3
556.044	1	6
556.214	1	-6
556.384	1	-1
556.554	1	1
556.724	1	-16
556.894	1	11
557.064	1	5
557.234	1	-7
557.404	1	-3
557.573	1	8
557.743	1	3
557.913	1	-3
558.083	1	1
558.253	1	6
558.423	1	1
558.593	1	7
558.763	1	4
558.933	1	-5
559.103	1	-6
559.273	1	8
559.443	1	-6
559.613	1	3
559.783	1	2
559.953	1	0
560.122	1	-2
560.292	1	5
560.462	1	0
560.632	1	9
560.802	1	7
560.972	1	6
561.142	1	-5
561.312	1	0
561.482	1	1
561.652	1	-2
561.822	1	-4
561.992	1	3
562.162	1	-3
562.331	1	-8
562.501	1	-1
562.671	1	4
562.841	1	14
563.011	1	7
563.181	1	9
563.351	1	-1
563.521	1	6
563.691	1	-9
563.861	1	8
564.031	1	-4
564.201	1	-13
564.370	1	1
564.540	1	7
564.710	1	13
564.880	1	7
565.050	1	-1
565.220	1	-2
565.390	1	-5
565.560	1	8
565.730	1	5
565.900	1	-8
566.069	1	9
566.239	1	-9
566.409	1	5
566.579	1	13
566.749	1	14
566.919	1	7
567.089	1	0
567.259	1	3
567.429	1	-4
567.599	1	-12
567.768	1	-1
567.938	1	2
568.108	1	2
568.278	1	1
568.448	1	5
568.618	1	10
568.788	1	1
568.958	1	16
569.128	1	-2
569.297	1	0
569.467	1	5
569.637	1	-7
569.807	1	-2
569.977	1	6
570.147	1	-5
570.317	1	12
570.487	1	0
570.656	1	-3
570.826	1	13
570.996	1	-4
571.166	1	4
571.336	1	4
571.506	1	3
571.676	1	7
571.846	1	-1
572.015	1	5
572.185	1	-6
572.355	1	1
572.525	1	-5
572.695	1	-3
572.865	1	-5
573.035	1	1
573.205	1	-9
573.374	1	-2
573.544	1	-5
573.714	1	12
573.884	1	14
574.054	1	8
574.224	1	1
574.394	1	-5
574.563	1	4
574.733	1	1
574.903	1	5
575.073	1	2
575.243	1	-6
575.413	1	5
575.583	1	4
575.752	1	-1
575.922	1	4
576.092	1	7
576.262	1	0
576.432	1	9
576.602	1	-12
576.772	1	0
576.941	1	11
577.111	1	4
577.281	1	0
577.451	1	6
577.621	1	2
577.791	1	0
577.960	1	5
578.130	1	-9
578.300	1	9
578.470	1	0
578.640	1	6
578.810	1	9
578.979	1	5
579.149	1	-4
579.319	1	0
579.489	1	6
579.659	1	-2
579.829	1	-2
579.998	1	7
580.168	1	0
580.338	1	3
580.508	1	-1
580.678	1	6
580.848	1	5
581.017	1	16
581.187	1	1
581.357	1	-12
581.527	1	-5
581.697	1	5
581.867	1	-7
582.036	1	-3
582.206	1	9
582.376	1	-4
582.546	1	9
582.716	1	-5
582.885	1	-1
583.055	1	7
583.225	1	-9
583.395	1	0
583.565	1	3
583.735	1	-7
583.904	1	3
584.074	1	5
584.244	1	2
584.414	1	-4
584.584	1	-7
584.753	1	9
584.923	1	-1
585.093	1	-5
585.263	1	1
585.433	1	1
585.602	1	9
585.772	1	3
585.942	1	-4
586.112	1	3
586.282	1	2
586.451	1	-3
586.621	1	7
586.791	1	-6
586.961	1	12
587.131	1	13
587.300	1	-5
587.470	1	0
587.640	1	-6
587.810	1	-6
587.980	1	8
588.149	1	11
588.319	1	0
588.489	1	12
588.659	1	-7
588.829	1	5
588.998	1	9
589.168	1	-1
589.338	1	3
589.508	1	1
589.677	1	7
589.847	1	-3
590.017	1	0
590.187	1	-1
590.357	1	5
590.526	1	6
590.696	1	1
590.866	1	3
591.036	1	1
591.205	1	-4
591.375	1	10
591.545	1	9
591.715	1	11
591.885	1	0
592.054	1	6
592.224	1	2
592.394	1	2
592.564	1	-13
592.733	1	4
592.903	1	-4
593.073	1	1
593.243	1	3
593.412	1	4
593.582	1	9
593.752	1	4
593.922	1	6
594.091	1	3
594.261	1	-7
594.431	1	2
594.601	1	-4
594.771	1	-9
594.940	1	2
595.110	1	6
595.280	1	3
595.450	1	7
595.619	1	-2
595.789	1	-2
595.959	1	-4
596.129	1	4
596.298	1	10
596.468	1	-1
596.638	1	16
596.808	1	13
596.977	1	8
597.147	1	0
597.317	1	-5
597.487	1	0
597.656	1	-5
597.826	1	-16
597.996	1	8
598.166	1	6
598.335	1	1
598.505	1	6
598.675	1	-2
598.844	1	1
599.014	1	-7
599.184	1	5
599.354	1	3
599.523	1	2
599.693	1	4
599.863	1	-4
600.033	1	4
600.202	1	-2
600.372	1	7
600.542	1	5
600.712	1	7
600.881	1	6
601.051	1	1
601.221	1	-7
601.390	1	1
601.560	1	-4
601.730	1	3
601.900	1	8
602.069	1	1
602.239	1	-11
602.409	1	6
602.578	1	-6
602.748	1	-3
602.918	1	4
603.088	1	9
603.257	1	7
603.427	1	-1
603.597	1	4
603.767	1	1
603.936	1	12
604.106	1	1
604.276	1	-3
604.445	1	-6
604.615	1	-9
604.785	1	5
604.954	1	1
605.124	1	-1
605.294	1	-7
605.464	1	5
605.633	1	15
605.803	1	-1
605.973	1	-3
606.142	1	5
606.312	1	3
606.482	1	-5
606.652	1	17
606.821	1	3
606.991	1	7
607.161	1	18
607.330	1	-11
607.500	1	-6
607.670	1	-4
607.839	1	6
608.009	1	-3
608.179	1	0
608.348	1	7
608.518	1	10
608.688	1	1
608.858	1	6
609.027	1	6
609.197	1	3
609.367	1	-1
609.536	1	-7
609.706	1	3
609.876	1	-1
610.045	1	8
610.215	1	-5
610.385	1	12
610.554	1	-8
610.724	1	15
610.894	1	4
611.063	1	-10
611.233	1	2
611.403	1	3
611.572	1	6
611.742	1	-1
611.912	1	4
612.081	1	-2
612.251	1	12
612.421	1	-4
612.590	1	-10
612.760	1	10
612.930	1	-4
613.099	1	1
613.269	1	9
613.439	1	8
613.608	1	12
613.778	1	1
613.948	1	1
614.117	1	-6
614.287	1	-1
614.457	1	-4
614.626	1	-8
614.796	1	0
614.966	1	1
615.135	1	-6
615.305	1	7
615.475	1	0
615.644	1	7
615.814	1	-9
615.984	1	-3
616.153	1	-1
616.323	1	-7
616.493	1	10
616.662	1	7
616.832	1	11
617.002	1	13
617.171	1	3
617.341	1	4
617.511	1	0
617.680	1	6
617.850	1	7
618.019	1	7
618.189	1	0
618.359	1	-5
618.528	1	12
618.698	1	7
618.868	1	16
619.037	1	5
619.207	1	2
619.377	1	-4
619.546	1	2
619.716	1	-2
619.885	1	5
620.055	1	5
620.225	1	9
620.394	1	4
620.564	1	8
620.734	1	-6
620.903	1	9
621.073	1	-14
621.242	1	-5
621.412	1	2
621.582	1	-7
621.751	1	2
621.921	1	-2
622.091	1	0
622.260	1	7
622.430	1	8
622.599	1	6
622.769	1	6
622.939	1	4
623.108	1	-2
623.278	1	2
623.448	1	5
623.617	1	-6
623.787	1	11
623.956	1	-6
624.126	1	7
624.296	1	5
624.465	1	-4
624.635	1	5
624.804	1	-1
624.974	1	2
625.144	1	5
625.313	1	-3
625.483	1	-2
625.652	1	3
625.822	1	0
625.992	1	3
626.161	1	-10
626.331	1	2
626.501	1	4
626.670	1	-7
626.840	1	-7
627.009	1	-6
627.179	1	5
627.348	1	4
627.518	1	6
627.688	1	-4
627.857	1	2
628.027	1	6
628.196	1	2
628.366	1	0
628.536	1	3
628.705	1	-5
628.875	1	-2
629.044	1	-3
629.214	1	8
629.384	1	8
629.553	1	-1
629.723	1	5
629.892	1	1
630.062	1	18
630.232	1	-5
630.401	1	1
630.571	1	6
630.740	1	-4
630.910	1	9
631.079	1	7
631.249	1	2
631.419	1	6
631.588	1	-9
631.758	1	-7
631.927	1	5
632.097	1	1
632.266	1	-1
632.436	1	0
632.606	1	-1
632.775	1	3
632.945	1	-3
633.114	1	-11
633.284	1	-3
633.453	1	3
633.623	1	-1
633.793	1	3
633.962	1	-10
634.132	1	14
634.301	1	3
634.471	1	9
634.640	1	5
634.810	1	7
634.979	1	5
635.149	1	3
635.319	1	-5
635.488	1	8
635.658	1	-20
635.827	1	11
635.997	1	1
636.166	1	2
636.336	1	10
636.505	1	16
636.675	1	4
636.845	1	3
637.014	1	3
637.184	1	2
637.353	1	6
637.523	1	2
637.692	1	6
637.862	1	-7
638.031	1	-7
638.201	1	7
638.370	1	5
638.540	1	4
638.710	1	15
638.879	1	-3
639.049	1	7
639.218	1	-8
639.388	1	12
639.557	1	-2
639.727	1	-2
639.896	1	-4
640.066	1	-1
640.235	1	0
640.405	1	-1
640.574	1	8
640.744	1	6
640.914	1	5
641.083	1	7
641.253	1	4
641.422	1	1
641.592	1	-1
641.761	1	10
641.931	1	-4
642.100	1	2
642.270	1	7
642.439	1	0
642.609	1	9
642.778	1	9
642.948	1	-5
643.117	1	3
643.287	1	-1
643.456	1	0
643.626	1	4
643.795	1	10
643.965	1	8
644.134	1	0
644.304	1	8
644.473	1	1
644.643	1	3
644.812	1	0
644.982	1	4
645.151	1	-7
645.321	1	-8
645.490	1	6
645.660	1	5
645.829	1	-2
645.999	1	13
646.168	1	5
646.338	1	6
646.507	1	-10
646.677	1	4
646.846	1	7
647.016	1	9
647.185	1	1
647.355	1	3
647.524	1	0
647.694	1	1
647.863	1	-1
648.033	1	7
648.202	1	3
648.372	1	-3
648.541	1	3
648.711	1	1
648.880	1	8
649.050	1	3
649.219	1	1
649.389	1	6
649.558	1	0
649.728	1	2
649.897	1	2
650.067	1	-1
650.236	1	7
650.406	1	-14
650.575	1	4
650.745	1	-8
650.914	1	1
651.084	1	-3
651.253	1	7
651.423	1	4
651.592	1	8
651.762	1	-6
651.931	1	-3
652.101	1	5
652.270	1	-2
652.440	1	10
652.609	1	7
652.778	1	8
652.948	1	1
653.117	1	17
653.287	1	-1
653.456	1	4
653.626	1	5
653.795	1	7
653.965	1	10
654.134	1	-6
654.304	1	9
654.473	1	6
654.643	1	3
654.812	1	-1
654.982	1	9
655.151	1	15
655.320	1	7
655.490	1	-4
655.659	1	-7
655.829	1	-6
655.998	1	11
656.168	1	-11
656.337	1	5
656.507	1	3
656.676	1	-3
656.846	1	-1
657.015	1	12
657.184	1	-6
657.354	1	7
657.523	1	-1
657.693	1	0
657.862	1	-2
658.032	1	3
658.201	1	-2
658.371	1	12
658.540	1	12
658.709	1	5
658.879	1	-5
659.048	1	0
659.218	1	3
659.387	1	-5
659.557	1	5
659.726	1	8
659.895	1	-2
660.065	1	2
660.234	1	10
660.404	1	6
660.573	1	5
660.743	1	4
660.912	1	2
661.081	1	6
661.251	1	-6
661.420	1	7
661.590	1	1
661.759	1	4
661.929	1	3
662.098	1	12
662.267	1	5
662.437	1	6
662.606	1	-1
662.776	1	-6
662.945	1	11
663.115	1	-12
663.284	1	-5
663.453	1	1
663.623	1	6
663.792	1	3
663.962	1	5
664.131	1	1
664.300	1	1
664.470	1	-9
664.639	1	0
664.809	1	10
664.978	1	3
665.148	1	9
665.317	1	6
665.486	1	7
665.656	1	0
665.825	1	0
665.995	1	9
666.164	1	3
666.333	1	2
666.503	1	13
666.672	1	6
666.842	1	-13
667.011	1	7
667.180	1	1
667.350	1	16
667.519	1	3
667.689	1	17
667.858	1	9
668.027	1	-5
668.197	1	2
668.366	1	11
668.536	1	-1
668.705	1	14
668.874	1	16
669.044	1	9
669.213	1	-6
669.382	1	3
669.552	1	1
669.721	1	3
669.891	1	-3
670.060	1	-1
670.229	1	10
670.399	1	0
670.568	1	6
670.738	1	0
670.907	1	6
671.076	1	2
671.246	1	-5
671.415	1	-2
671.584	1	6
671.754	1	8
671.923	1	1
672.093	1	10
672.262	1	4
672.431	1	21
672.601	1	-4
672.770	1	-1
672.939	1	-2
673.109	1	10
673.278	1	9
673.448	1	4
673.617	1	7
673.786	1	-2
