325.333	1	2
325.504	1	12
325.675	1	1
325.846	1	-3
326.017	1	10
326.188	1	-4
326.359	1	11
326.531	1	-7
326.702	1	5
326.873	1	6
327.044	1	6
327.215	1	-3
327.386	1	-4
327.557	1	4
327.728	1	-19
327.899	1	0
328.070	1	3
328.241	1	8
328.412	1	-9
328.583	1	5
328.754	1	-3
328.926	1	4
329.097	1	-2
329.268	1	-4
329.439	1	-4
329.610	1	1
329.781	1	10
329.952	1	-2
330.123	1	-3
330.294	1	4
330.465	1	13
330.636	1	6
330.807	1	0
330.978	1	3
331.149	1	-7
331.320	1	-3
331.492	1	3
331.663	1	-1
331.834	1	1
332.005	1	0
332.176	1	0
332.347	1	2
332.518	1	-5
332.689	1	3
332.860	1	-10
333.031	1	11
333.202	1	9
333.373	1	10
333.544	1	-11
333.715	1	3
333.886	1	-1
334.057	1	4
334.228	1	5
334.399	1	-3
334.570	1	7
334.741	1	0
334.912	1	9
335.084	1	4
335.255	1	3
335.426	1	-8
335.597	1	3
335.768	1	-7
335.939	1	-2
336.110	1	-5
336.281	1	-1
336.452	1	13
336.623	1	-3
336.794	1	-1
336.965	1	4
337.136	1	9
337.307	1	4
337.478	1	-6
337.649	1	-4
337.820	1	0
337.991	1	8
338.162	1	-6
338.333	1	-5
338.504	1	-3
338.675	1	-1
338.846	1	4
339.017	1	0
339.188	1	7
339.359	1	-4
339.530	1	-6
339.701	1	-1
339.872	1	0
340.043	1	10
340.214	1	1
340.385	1	8
340.556	1	-7
340.727	1	-5
340.898	1	-9
341.069	1	8
341.240	1	8
341.411	1	1
341.582	1	1
341.753	1	-5
341.924	1	5
342.095	1	-6
342.266	1	-5
342.437	1	5
342.608	1	1
342.779	1	-4
342.950	1	9
343.121	1	-4
343.292	1	3
343.463	1	3
343.634	1	0
343.805	1	-9
343.976	1	6
344.147	1	4
344.318	1	-3
344.489	1	-4
344.660	1	-2
344.831	1	0
345.002	1	4
345.173	1	4
345.344	1	1
345.515	1	5
345.686	1	-4
345.857	1	1
346.028	1	1
346.199	1	4
346.370	1	0
346.541	1	7
346.712	1	-9
346.883	1	2
347.054	1	-8
347.225	1	-3
347.396	1	-7
347.567	1	5
347.738	1	-5
347.909	1	1
348.080	1	-10
348.251	1	-5
348.422	1	5
348.593	1	-2
348.764	1	-1
348.935	1	-5
349.106	1	-2
349.277	1	9
349.448	1	-1
349.619	1	6
349.790	1	16
349.961	1	2
350.132	1	-5
350.303	1	9
350.474	1	4
350.645	1	-5
350.816	1	12
350.987	1	-5
351.157	1	6
351.328	1	9
351.499	1	-3
351.670	1	4
351.841	1	-3
352.012	1	10
352.183	1	-16
352.354	1	2
352.525	1	-10
352.696	1	0
352.867	1	-13
353.038	1	-6
353.209	1	7
353.380	1	-1
353.551	1	2
353.722	1	-1
353.893	1	-8
354.064	1	6
354.235	1	2
354.406	1	-12
354.576	1	4
354.747	1	3
354.918	1	6
355.089	1	3
355.260	1	5
355.431	1	0
355.602	1	-7
355.773	1	0
355.944	1	-1
356.115	1	-5
356.286	1	-7
356.457	1	-1
356.628	1	15
356.799	1	-12
356.970	1	-2
357.141	1	12
357.311	1	4
357.482	1	-2
357.653	1	-5
357.824	1	11
357.995	1	-4
358.166	1	2
358.337	1	-1
358.508	1	3
358.679	1	5
358.850	1	6
359.021	1	2
359.192	1	-1
359.363	1	8
359.533	1	1
359.704	1	6
359.875	1	12
360.046	1	-1
360.217	1	-3
360.388	1	5
360.559	1	2
360.730	1	-1
360.901	1	2
361.072	1	8
361.243	1	0
361.414	1	4
361.584	1	9
361.755	1	8
361.926	1	-5
362.097	1	-10
362.268	1	-7
362.439	1	1
362.610	1	-5
362.781	1	-10
362.952	1	4
363.123	1	14
363.293	1	12
363.464	1	3
363.635	1	9
363.806	1	-2
363.977	1	-4
364.148	1	-6
364.319	1	-3
364.490	1	7
364.661	1	8
364.832	1	8
365.002	1	7
365.173	1	0
365.344	1	5
365.515	1	-4
365.686	1	-3
365.857	1	3
366.028	1	5
366.199	1	9
366.370	1	8
366.540	1	3
366.711	1	2
366.882	1	-1
367.053	1	7
367.224	1	-4
367.395	1	2
367.566	1	-3
367.737	1	7
367.908	1	7
368.078	1	20
368.249	1	4
368.420	1	5
368.591	1	7
368.762	1	8
368.933	1	-18
369.104	1	3
369.274	1	-9
369.445	1	7
369.616	1	9
369.787	1	6
369.958	1	11
370.129	1	13
370.300	1	7
370.471	1	8
370.641	1	1
370.812	1	7
370.983	1	5
371.154	1	7
371.325	1	8
371.496	1	-6
371.667	1	4
371.837	1	3
372.008	1	4
372.179	1	3
372.350	1	-8
372.521	1	-8
372.692	1	2
372.863	1	3
373.033	1	2
373.204	1	-1
373.375	1	-4
373.546	1	11
373.717	1	-13
373.888	1	-7
374.059	1	7
374.229	1	9
374.400	1	-5
374.571	1	10
374.742	1	-3
374.913	1	-5
375.084	1	7
375.254	1	7
375.425	1	-4
375.596	1	-2
375.767	1	2
375.938	1	1
376.109	1	-5
376.279	1	0
376.450	1	7
376.621	1	8
376.792	1	3
376.963	1	-3
377.134	1	17
377.304	1	2
377.475	1	-3
377.646	1	-2
377.817	1	2
377.988	1	0
378.159	1	0
378.329	1	1
378.500	1	10
378.671	1	10
378.842	1	-8
379.013	1	4
379.184	1	6
379.354	1	-1
379.525	1	-2
379.696	1	-2
379.867	1	3
380.038	1	-7
380.209	1	-8
380.379	1	0
380.550	1	4
380.721	1	1
380.892	1	2
381.063	1	1
381.233	1	-3
381.404	1	1
381.575	1	5
381.746	1	4
381.917	1	-8
382.087	1	1
382.258	1	2
382.429	1	7
382.600	1	3
382.771	1	4
382.941	1	0
383.112	1	-6
383.283	1	3
383.454	1	3
383.625	1	-4
383.795	1	1
383.966	1	-5
384.137	1	6
384.308	1	9
384.479	1	5
384.649	1	7
384.820	1	-3
384.991	1	2
385.162	1	-4
385.333	1	5
385.503	1	7
385.674	1	-1
385.845	1	4
386.016	1	0
386.187	1	-5
386.357	1	11
386.528	1	2
386.699	1	-4
386.870	1	9
387.041	1	-6
387.211	1	9
387.382	1	-7
387.553	1	-4
387.724	1	-10
387.894	1	3
388.065	1	6
388.236	1	-8
388.407	1	2
388.578	1	-9
388.748	1	4
388.919	1	2
389.090	1	0
389.261	1	4
389.431	1	5
389.602	1	-2
389.773	1	7
389.944	1	-8
390.114	1	14
390.285	1	-11
390.456	1	-10
390.627	1	7
390.798	1	9
390.968	1	-6
391.139	1	-7
391.310	1	8
391.481	1	-3
391.651	1	5
391.822	1	-2
391.993	1	13
392.164	1	-13
392.334	1	7
392.505	1	-14
392.676	1	10
392.847	1	-4
393.017	1	6
393.188	1	-6
393.359	1	3
393.530	1	4
393.700	1	2
393.871	1	-5
394.042	1	-3
394.213	1	12
394.383	1	11
394.554	1	-1
394.725	1	-9
394.896	1	-3
395.066	1	2
395.237	1	0
395.408	1	9
395.579	1	2
395.749	1	4
395.920	1	5
396.091	1	1
396.262	1	-2
396.432	1	-11
396.603	1	-5
396.774	1	2
396.945	1	5
397.115	1	10
397.286	1	-4
397.457	1	4
397.627	1	3
397.798	1	-7
397.969	1	-10
398.140	1	3
398.310	1	-4
398.481	1	-7
398.652	1	16
398.823	1	-1
398.993	1	-3
399.164	1	6
399.335	1	11
399.505	1	2
399.676	1	-3
399.847	1	-1
400.018	1	-3
400.188	1	0
400.359	1	-15
400.530	1	5
400.700	1	-2
400.871	1	6
401.042	1	-4
401.213	1	-10
401.383	1	-10
401.554	1	4
401.725	1	7
401.895	1	2
402.066	1	-3
402.237	1	-2
402.408	1	17
402.578	1	5
402.749	1	-3
402.920	1	4
403.090	1	7
403.261	1	8
403.432	1	2
403.603	1	-2
403.773	1	5
403.944	1	1
404.115	1	3
404.285	1	1
404.456	1	7
404.627	1	-2
404.797	1	-6
404.968	1	8
405.139	1	-6
405.310	1	-2
405.480	1	3
405.651	1	11
405.822	1	0
405.992	1	-4
406.163	1	4
406.334	1	-7
406.504	1	0
406.675	1	3
406.846	1	5
407.016	1	0
407.187	1	8
407.358	1	-2
407.528	1	-9
407.699	1	4
407.870	1	3
408.041	1	12
408.211	1	-9
408.382	1	7
408.553	1	-8
408.723	1	4
408.894	1	1
409.065	1	1
409.235	1	5
409.406	1	-4
409.577	1	7
409.747	1	1
409.918	1	3
410.089	1	-4
410.259	1	6
410.430	1	-3
410.601	1	2
410.771	1	9
410.942	1	14
411.113	1	-8
411.283	1	-10
411.454	1	-7
411.625	1	-8
411.795	1	5
411.966	1	7
412.137	1	-3
412.307	1	4
412.478	1	5
412.649	1	6
412.819	1	1
412.990	1	0
413.161	1	2
413.331	1	3
413.502	1	3
413.672	1	-6
413.843	1	0
414.014	1	1
414.184	1	1
414.355	1	10
414.526	1	8
414.696	1	1
414.867	1	8
415.038	1	-8
415.208	1	8
415.379	1	3
415.550	1	13
415.720	1	-1
415.891	1	5
416.062	1	-6
416.232	1	-6
416.403	1	-5
416.573	1	8
416.744	1	2
416.915	1	2
417.085	1	14
417.256	1	-6
417.427	1	5
417.597	1	-12
417.768	1	-4
417.939	1	4
418.109	1	0
418.280	1	1
418.450	1	4
418.621	1	-2
418.792	1	-9
418.962	1	6
419.133	1	6
419.304	1	3
419.474	1	-1
419.645	1	1
419.815	1	4
419.986	1	-4
420.157	1	-9
420.327	1	2
420.498	1	0
420.669	1	6
420.839	1	-3
421.010	1	3
421.180	1	0
421.351	1	11
421.522	1	-2
421.692	1	11
421.863	1	10
422.033	1	8
422.204	1	3
422.375	1	5
422.545	1	4
422.716	1	-7
422.886	1	0
423.057	1	-7
423.228	1	-2
423.398	1	3
423.569	1	-5
423.740	1	-4
423.910	1	-7
424.081	1	6
424.251	1	-1
424.422	1	9
424.593	1	-2
424.763	1	-1
424.934	1	-13
425.104	1	4
425.275	1	1
425.445	1	14
425.616	1	-1
425.787	1	-8
425.957	1	3
426.128	1	-9
426.298	1	-6
426.469	1	-7
426.640	1	8
426.810	1	-4
426.981	1	3
427.151	1	10
427.322	1	7
427.493	1	-4
427.663	1	0
427.834	1	-6
428.004	1	-2
428.175	1	-2
428.345	1	-11
428.516	1	9
428.687	1	2
428.857	1	1
429.028	1	4
429.198	1	3
429.369	1	1
429.540	1	-3
429.710	1	2
429.881	1	-5
430.051	1	1
430.222	1	-10
430.392	1	9
430.563	1	-2
430.734	1	5
430.904	1	-4
431.075	1	3
431.245	1	-1
431.416	1	5
431.586	1	-7
431.757	1	4
431.927	1	5
432.098	1	3
432.269	1	1
432.439	1	12
432.610	1	-3
432.780	1	5
432.951	1	-7
433.121	1	-3
433.292	1	-4
433.462	1	3
433.633	1	-1
433.804	1	6
433.974	1	-13
434.145	1	-4
434.315	1	-9
434.486	1	2
434.656	1	2
434.827	1	-2
434.997	1	7
435.168	1	-4
435.339	1	0
435.509	1	-3
435.680	1	-5
435.850	1	-10
436.021	1	-8
436.191	1	11
436.362	1	-11
436.532	1	14
436.703	1	-7
436.873	1	4
437.044	1	-4
437.214	1	8
437.385	1	6
437.556	1	3
437.726	1	-6
437.897	1	1
438.067	1	-11
438.238	1	-7
438.408	1	2
438.579	1	5
438.749	1	-1
438.920	1	-7
439.090	1	4
439.261	1	-8
439.431	1	-5
439.602	1	1
439.772	1	7
439.943	1	-1
440.113	1	-10
440.284	1	-4
440.455	1	5
440.625	1	10
440.796	1	-5
440.966	1	-10
441.137	1	2
441.307	1	5
441.478	1	-2
441.648	1	2
441.819	1	11
441.989	1	1
442.160	1	-9
442.330	1	-3
442.501	1	3
442.671	1	1
442.842	1	-7
443.012	1	7
443.183	1	-1
443.353	1	6
443.524	1	-8
443.694	1	6
443.865	1	-4
444.035	1	-4
444.206	1	5
444.376	1	10
444.547	1	0
444.717	1	5
444.888	1	-2
445.058	1	12
445.229	1	2
445.399	1	21
445.570	1	2
445.740	1	-1
445.911	1	-7
446.081	1	9
446.252	1	3
446.422	1	5
446.593	1	-6
446.763	1	14
446.934	1	-3
447.104	1	9
447.275	1	1
447.445	1	-13
447.616	1	0
447.786	1	6
447.957	1	1
448.127	1	2
448.298	1	-10
448.468	1	1
448.639	1	9
448.809	1	12
448.979	1	0
449.150	1	-1
449.320	1	-6
449.491	1	-8
449.661	1	0
449.832	1	5
450.002	1	1
450.173	1	6
450.343	1	13
450.514	1	-1
450.684	1	-6
450.855	1	-4
451.025	1	-2
451.196	1	-9
451.366	1	1
451.537	1	3
451.707	1	11
451.878	1	-5
452.048	1	6
452.218	1	0
452.389	1	5
452.559	1	2
452.730	1	1
452.900	1	4
453.071	1	5
453.241	1	-8
453.412	1	0
453.582	1	7
453.753	1	1
453.923	1	-6
454.093	1	-3
454.264	1	1
454.434	1	3
454.605	1	-4
454.775	1	-3
454.946	1	0
455.116	1	-2
455.287	1	-1
455.457	1	-4
455.628	1	-7
455.798	1	0
455.968	1	-9
456.139	1	10
456.309	1	5
456.480	1	1
456.650	1	-7
456.821	1	10
456.991	1	-3
457.161	1	3
457.332	1	5
457.502	1	5
457.673	1	4
457.843	1	-11
458.014	1	6
458.184	1	-3
458.355	1	-7
458.525	1	10
458.695	1	7
458.866	1	-10
459.036	1	7
459.207	1	1
459.377	1	3
459.548	1	-1
459.718	1	-5
459.888	1	0
460.059	1	7
460.229	1	0
460.400	1	1
460.570	1	4
460.740	1	8
460.911	1	-2
461.081	1	-4
461.252	1	2
461.422	1	-3
461.593	1	-5
461.763	1	7
461.933	1	3
462.104	1	8
462.274	1	-5
462.445	1	-2
462.615	1	7
462.785	1	4
462.956	1	-9
463.126	1	4
463.297	1	-1
463.467	1	-1
463.638	1	2
463.808	1	6
463.978	1	6
464.149	1	1
464.319	1	-1
464.490	1	5
464.660	1	13
464.830	1	-1
465.001	1	-2
465.171	1	-6
465.342	1	0
465.512	1	9
465.682	1	1
465.853	1	9
466.023	1	17
466.194	1	-15
466.364	1	-2
466.534	1	-10
466.705	1	8
466.875	1	5
467.045	1	7
467.216	1	-7
467.386	1	9
467.557	1	12
467.727	1	9
467.897	1	12
468.068	1	0
468.238	1	-2
468.409	1	16
468.579	1	4
468.749	1	4
468.920	1	-5
469.090	1	6
469.260	1	8
469.431	1	-7
469.601	1	-2
469.772	1	4
469.942	1	5
470.112	1	3
470.283	1	2
470.453	1	8
470.623	1	3
470.794	1	-3
470.964	1	6
471.135	1	10
471.305	1	-3
471.475	1	3
471.646	1	7
471.816	1	0
471.986	1	-5
472.157	1	-2
472.327	1	3
472.497	1	5
472.668	1	0
472.838	1	0
473.009	1	8
473.179	1	11
473.349	1	-2
473.520	1	-7
473.690	1	3
473.860	1	0
474.031	1	-2
474.201	1	4
474.371	1	6
474.542	1	6
474.712	1	-2
474.882	1	10
475.053	1	-4
475.223	1	-3
475.394	1	-4
475.564	1	0
475.734	1	-6
475.905	1	1
476.075	1	6
476.245	1	1
476.416	1	7
476.586	1	-1
476.756	1	3
476.927	1	1
477.097	1	9
477.267	1	0
477.438	1	-6
477.608	1	-2
477.778	1	10
477.949	1	9
478.119	1	-8
478.289	1	-9
478.460	1	-1
478.630	1	6
478.800	1	6
478.971	1	-10
479.141	1	9
479.311	1	1
479.482	1	-16
479.652	1	1
479.822	1	-3
479.993	1	11
480.163	1	5
480.333	1	21
480.504	1	12
480.674	1	-17
480.844	1	-1
481.015	1	-6
481.185	1	11
481.355	1	-8
481.525	1	-7
481.696	1	-2
481.866	1	3
482.036	1	3
482.207	1	0
482.377	1	4
482.547	1	-5
482.718	1	-6
482.888	1	-13
483.058	1	2
483.229	1	3
483.399	1	1
483.569	1	-5
483.740	1	9
483.910	1	4
484.080	1	14
484.250	1	5
484.421	1	5
484.591	1	3
484.761	1	7
484.932	1	11
485.102	1	-12
485.272	1	3
485.443	1	-6
485.613	1	-4
485.783	1	6
485.953	1	-9
486.124	1	9
486.294	1	11
486.464	1	-1
486.635	1	-8
486.805	1	4
486.975	1	8
487.146	1	4
487.316	1	2
487.486	1	-7
487.656	1	10
487.827	1	4
487.997	1	13
488.167	1	13
488.338	1	1
488.508	1	-1
488.678	1	7
488.848	1	2
489.019	1	2
489.189	1	-13
489.359	1	7
489.529	1	1
489.700	1	-4
489.870	1	-6
490.040	1	-10
490.211	1	-2
490.381	1	7
490.551	1	-2
490.721	1	-2
490.892	1	13
491.062	1	-9
491.232	1	6
491.402	1	-2
491.573	1	6
491.743	1	-5
491.913	1	0
492.084	1	3
492.254	1	10
492.424	1	1
492.594	1	-4
492.765	1	5
492.935	1	-3
493.105	1	-6
493.275	1	-5
493.446	1	4
493.616	1	0
493.786	1	-3
493.956	1	2
494.127	1	0
494.297	1	6
494.467	1	0
494.637	1	7
494.808	1	-7
494.978	1	-1
495.148	1	14
495.318	1	10
495.489	1	4
495.659	1	3
495.829	1	0
495.999	1	-2
496.170	1	-3
496.340	1	-4
496.510	1	16
496.680	1	4
496.851	1	17
497.021	1	9
497.191	1	5
497.361	1	4
497.532	1	1
497.702	1	-2
497.872	1	-1
498.042	1	5
498.213	1	2
498.383	1	6
498.553	1	12
498.723	1	5
498.894	1	10
499.064	1	0
499.234	1	9
499.404	1	7
499.574	1	5
499.745	1	-3
499.915	1	-2
500.085	1	0
500.255	1	0
500.426	1	-3
500.596	1	5
500.766	1	-5
500.936	1	6
501.106	1	0
501.277	1	2
501.447	1	-4
501.617	1	4
501.787	1	10
501.958	1	-2
502.128	1	-3
502.298	1	13
502.468	1	-2
502.638	1	10
502.809	1	6
502.979	1	6
503.149	1	7
503.319	1	5
503.489	1	-3
503.660	1	8
503.830	1	-2
504.000	1	-7
504.170	1	-4
504.340	1	-1
504.511	1	8
504.681	1	-2
504.851	1	2
505.021	1	8
505.192	1	2
505.362	1	2
505.532	1	0
505.702	1	-3
505.872	1	5
506.043	1	-1
506.213	1	1
506.383	1	-9
506.553	1	2
506.723	1	0
506.893	1	0
507.064	1	2
507.234	1	-10
507.404	1	0
507.574	1	6
507.744	1	-5
507.915	1	7
508.085	1	1
508.255	1	-1
508.425	1	5
508.595	1	-3
508.766	1	4
508.936	1	-1
509.106	1	-2
509.276	1	6
509.446	1	-12
509.616	1	11
509.787	1	4
509.957	1	1
510.127	1	2
510.297	1	-7
510.467	1	10
510.638	1	-6
510.808	1	-5
510.978	1	3
511.148	1	2
511.318	1	19
511.488	1	-9
511.659	1	-9
511.829	1	-3
511.999	1	-4
512.169	1	4
512.339	1	13
512.509	1	4
512.680	1	2
512.850	1	16
513.020	1	-4
513.190	1	-3
513.360	1	-3
513.530	1	-2
513.700	1	9
513.871	1	7
514.041	1	2
514.211	1	13
514.381	1	-1
514.551	1	5
514.721	1	-1
514.892	1	-5
515.062	1	-2
515.232	1	-8
515.402	1	9
515.572	1	9
515.742	1	-1
515.912	1	12
516.083	1	2
516.253	1	-9
516.423	1	-8
516.593	1	1
516.763	1	2
516.933	1	-5
517.104	1	1
517.274	1	0
517.444	1	-3
517.614	1	-7
517.784	1	7
517.954	1	-2
518.124	1	-18
518.294	1	5
518.465	1	4
518.635	1	0
518.805	1	4
518.975	1	2
519.145	1	4
519.315	1	9
519.485	1	1
519.656	1	3
519.826	1	4
519.996	1	-10
520.166	1	4
520.336	1	9
520.506	1	-2
520.676	1	-1
520.846	1	13
521.017	1	-5
521.187	1	5
521.357	1	-6
521.527	1	5
521.697	1	-6
521.867	1	-12
522.037	1	6
522.207	1	7
522.377	1	1
522.548	1	5
522.718	1	6
522.888	1	-3
523.058	1	-10
523.228	1	6
523.398	1	3
523.568	1	-2
523.738	1	1
523.909	1	6
524.079	1	3
524.249	1	-4
524.419	1	-2
524.589	1	13
524.759	1	5
524.929	1	11
525.099	1	15
525.269	1	0
525.439	1	-9
525.610	1	0
525.780	1	12
525.950	1	6
526.120	1	0
526.290	1	8
526.460	1	8
526.630	1	7
526.800	1	-2
526.970	1	4
527.140	1	4
527.311	1	-7
527.481	1	-2
527.651	1	-2
527.821	1	-3
527.991	1	1
528.161	1	-5
528.331	1	-4
528.501	1	5
528.671	1	3
528.841	1	0
529.011	1	-3
529.181	1	11
529.352	1	3
529.522	1	-8
529.692	1	0
529.862	1	1
530.032	1	1
530.202	1	2
530.372	1	0
530.542	1	8
530.712	1	-9
530.882	1	2
531.052	1	-9
531.222	1	-1
531.392	1	-2
531.563	1	-1
531.733	1	15
531.903	1	1
532.073	1	2
532.243	1	10
532.413	1	4
532.583	1	-2
532.753	1	-3
532.923	1	8
533.093	1	-5
533.263	1	-2
533.433	1	3
533.603	1	7
533.773	1	7
533.943	1	8
534.113	1	8
534.284	1	6
534.454	1	-10
534.624	1	-7
534.794	1	0
534.964	1	2
535.134	1	-3
535.304	1	10
535.474	1	-4
535.644	1	13
535.814	1	-8
535.984	1	-5
536.154	1	3
536.324	1	-13
536.494	1	6
536.664	1	-8
536.834	1	1
537.004	1	-5
537.174	1	8
537.344	1	5
537.514	1	3
537.685	1	5
537.855	1	-6
538.025	1	-7
538.195	1	4
538.365	1	4
538.535	1	2
538.705	1	-4
538.875	1	-3
539.045	1	-1
539.215	1	12
539.385	1	-2
539.555	1	3
539.725	1	5
539.895	1	14
540.065	1	1
540.235	1	-4
540.405	1	10
540.575	1	7
540.745	1	-5
540.915	1	6
541.085	1	1
541.255	1	0
541.425	1	-2
541.595	1	-6
541.765	1	0
541.935	1	18
542.105	1	1
542.275	1	-2
542.445	1	2
542.615	1	8
542.785	1	1
542.955	1	1
543.125	1	-6
543.295	1	4
543.465	1	7
543.635	1	-3
543.805	1	7
543.975	1	2
544.145	1	-1
544.315	1	-6
544.485	1	-5
544.655	1	11
544.825	1	-2
544.995	1	5
545.165	1	8
545.335	1	1
545.505	1	-7
545.675	1	3
545.845	1	-5
546.015	1	9
546.185	1	-8
546.355	1	-1
546.525	1	-5
546.695	1	0
546.865	1	-10
547.035	1	6
547.205	1	7
547.375	1	3
547.545	1	-1
547.715	1	6
547.885	1	4
548.055	1	9
548.225	1	0
548.395	1	19
548.565	1	-8
548.735	1	4
548.905	1	-2
549.075	1	5
549.245	1	-5
549.415	1	2
549.585	1	9
549.755	1	-6
549.925	1	0
550.095	1	-4
550.265	1	-3
550.435	1	-1
550.605	1	10
550.775	1	-2
550.945	1	-2
551.115	1	-1
551.285	1	-10
551.455	1	-4
551.625	1	4
551.795	1	2
551.965	1	6
552.135	1	-4
552.305	1	0
552.475	1	5
552.645	1	5
552.815	1	1
552.985	1	1
553.155	1	-1
553.325	1	2
553.495	1	9
553.665	1	7
553.835	1	-4
554.004	1	-9
554.174	1	0
554.344	1	-9
554.514	1	3
554.684	1	-3
554.854	1	-2
555.024	1	10
555.194	1	3
555.364	1	2
555.534	1	16
555.704	1	-3
555.874	1	-7
556.044	1	-7
556.214	1	-5
556.384	1	9
556.554	1	3
556.724	1	-8
556.894	1	12
557.064	1	-11
557.234	1	5
557.404	1	4
557.573	1	-2
557.743	1	9
557.913	1	-2
558.083	1	2
558.253	1	-3
558.423	1	0
558.593	1	0
558.763	1	1
558.933	1	4
559.103	1	6
559.273	1	3
559.443	1	-1
559.613	1	-4
559.783	1	3
559.953	1	1
560.122	1	-1
560.292	1	2
560.462	1	3
560.632	1	5
560.802	1	3
560.972	1	-1
561.142	1	4
561.312	1	4
561.482	1	-7
561.652	1	4
561.822	1	-4
561.992	1	-1
562.162	1	1
562.331	1	0
562.501	1	10
562.671	1	3
562.841	1	9
563.011	1	9
563.181	1	18
563.351	1	-2
563.521	1	3
563.691	1	-4
563.861	1	1
564.031	1	5
564.201	1	-4
564.370	1	-3
564.540	1	9
564.710	1	3
564.880	1	9
565.050	1	0
565.220	1	-6
565.390	1	3
565.560	1	13
565.730	1	12
565.900	1	-13
566.069	1	2
566.239	1	-10
566.409	1	2
566.579	1	8
566.749	1	13
566.919	1	-2
567.089	1	3
567.259	1	5
567.429	1	4
567.599	1	-8
567.768	1	-3
567.938	1	-6
568.108	1	5
568.278	1	0
568.448	1	0
568.618	1	6
568.788	1	0
568.958	1	11
569.128	1	3
569.297	1	4
569.467	1	0
569.637	1	5
569.807	1	8
569.977	1	11
570.147	1	-6
570.317	1	15
570.487	1	3
570.656	1	3
570.826	1	10
570.996	1	-4
571.166	1	0
571.336	1	3
571.506	1	-1
571.676	1	11
571.846	1	-3
572.015	1	4
572.185	1	2
572.355	1	2
572.525	1	-7
572.695	1	2
572.865	1	-4
573.035	1	-3
573.205	1	4
573.374	1	-5
573.544	1	-11
573.714	1	6
573.884	1	13
574.054	1	8
574.224	1	5
574.394	1	-7
574.563	1	-5
574.733	1	2
574.903	1	4
575.073	1	-8
575.243	1	5
575.413	1	-3
575.583	1	-5
575.752	1	-10
575.922	1	-2
576.092	1	10
576.262	1	7
576.432	1	15
576.602	1	0
576.772	1	-8
576.941	1	5
577.111	1	0
577.281	1	2
577.451	1	19
577.621	1	2
577.791	1	-3
577.960	1	-2
578.130	1	-4
578.300	1	7
578.470	1	4
578.640	1	3
578.810	1	-1
578.979	1	-4
579.149	1	2
579.319	1	-2
579.489	1	-4
579.659	1	-3
579.829	1	1
579.998	1	0
580.168	1	-10
580.338	1	8
580.508	1	1
580.678	1	-19
580.848	1	1
581.017	1	22
581.187	1	-3
581.357	1	-14
581.527	1	5
581.697	1	6
581.867	1	-5
582.036	1	-2
582.206	1	1
582.376	1	3
582.546	1	0
582.716	1	-6
582.885	1	3
583.055	1	-1
583.225	1	5
583.395	1	1
583.565	1	8
583.735	1	-8
583.904	1	3
584.074	1	4
584.244	1	7
584.414	1	-5
584.584	1	-5
584.753	1	4
584.923	1	3
585.093	1	-2
585.263	1	8
585.433	1	-2
585.602	1	0
585.772	1	-1
585.942	1	12
586.112	1	9
586.282	1	-3
586.451	1	-10
586.621	1	3
586.791	1	7
586.961	1	0
587.131	1	7
587.300	1	-12
587.470	1	1
587.640	1	2
587.810	1	-5
587.980	1	9
588.149	1	12
588.319	1	5
588.489	1	7
588.659	1	2
588.829	1	1
588.998	1	-5
589.168	1	-3
589.338	1	5
589.508	1	6
589.677	1	-3
589.847	1	4
590.017	1	0
590.187	1	-5
590.357	1	-11
590.526	1	3
590.696	1	4
590.866	1	5
591.036	1	3
591.205	1	-9
591.375	1	-6
591.545	1	-4
591.715	1	11
591.885	1	7
592.054	1	2
592.224	1	3
592.394	1	7
592.564	1	-13
592.733	1	4
592.903	1	7
593.073	1	1
593.243	1	4
593.412	1	-1
593.582	1	8
593.752	1	7
593.922	1	-7
594.091	1	1
594.261	1	4
594.431	1	3
594.601	1	6
594.771	1	-8
594.940	1	-4
595.110	1	6
595.280	1	-3
595.450	1	-5
595.619	1	-6
595.789	1	-4
595.959	1	-4
596.129	1	5
596.298	1	7
596.468	1	1
596.638	1	5
596.808	1	13
596.977	1	7
597.147	1	11
597.317	1	5
597.487	1	-5
597.656	1	-5
597.826	1	-3
597.996	1	4
598.166	1	-3
598.335	1	9
598.505	1	2
598.675	1	-1
598.844	1	-2
599.014	1	3
599.184	1	14
599.354	1	7
599.523	1	0
599.693	1	-1
599.863	1	3
600.033	1	3
600.202	1	-6
600.372	1	-3
600.542	1	4
600.712	1	-3
600.881	1	-4
601.051	1	-4
601.221	1	-3
601.390	1	6
601.560	1	1
601.730	1	7
601.900	1	8
602.069	1	2
602.239	1	0
602.409	1	11
602.578	1	6
602.748	1	0
602.918	1	-2
603.088	1	7
603.257	1	0
603.427	1	2
603.597	1	2
603.767	1	-2
603.936	1	10
604.106	1	-1
604.276	1	-3
604.445	1	-1
604.615	1	-1
604.785	1	-5
604.954	1	3
605.124	1	-4
605.294	1	-3
605.464	1	11
605.633	1	8
605.803	1	-1
605.973	1	3
606.142	1	7
606.312	1	-6
606.482	1	1
606.652	1	3
606.821	1	14
606.991	1	-6
607.161	1	10
607.330	1	-7
607.500	1	0
607.670	1	4
607.839	1	1
608.009	1	-19
608.179	1	-11
608.348	1	7
608.518	1	-2
608.688	1	10
608.858	1	4
609.027	1	3
609.197	1	3
609.367	1	-4
609.536	1	-1
609.706	1	4
609.876	1	-7
610.045	1	-4
610.215	1	-3
610.385	1	13
610.554	1	-5
610.724	1	9
610.894	1	6
611.063	1	1
611.233	1	7
611.403	1	2
611.572	1	1
611.742	1	-9
611.912	1	0
612.081	1	-2
612.251	1	7
612.421	1	7
612.590	1	-8
612.760	1	8
612.930	1	-2
613.099	1	1
613.269	1	-1
613.439	1	3
613.608	1	5
613.778	1	2
613.948	1	7
614.117	1	1
614.287	1	1
614.457	1	-2
614.626	1	-6
614.796	1	-4
614.966	1	2
615.135	1	-5
615.305	1	2
615.475	1	2
615.644	1	6
615.814	1	-3
615.984	1	-9
616.153	1	9
616.323	1	-7
616.493	1	0
616.662	1	0
616.832	1	16
617.002	1	8
617.171	1	4
617.341	1	-4
617.511	1	-3
617.680	1	1
617.850	1	4
618.019	1	-5
618.189	1	2
618.359	1	-8
618.528	1	9
618.698	1	6
618.868	1	3
619.037	1	3
619.207	1	-2
619.377	1	1
619.546	1	2
619.716	1	1
619.885	1	19
620.055	1	4
620.225	1	5
620.394	1	8
620.564	1	8
620.734	1	-8
620.903	1	2
621.073	1	-6
621.242	1	-12
621.412	1	4
621.582	1	-10
621.751	1	5
621.921	1	8
622.091	1	-3
622.260	1	10
622.430	1	6
622.599	1	-1
622.769	1	0
622.939	1	3
623.108	1	1
623.278	1	6
623.448	1	2
623.617	1	-2
623.787	1	6
623.956	1	-8
624.126	1	12
624.296	1	8
624.465	1	-4
624.635	1	-1
624.804	1	-5
624.974	1	0
625.144	1	13
625.313	1	-6
625.483	1	-1
625.652	1	2
625.822	1	-4
625.992	1	4
626.161	1	-7
626.331	1	7
626.501	1	3
626.670	1	-1
626.840	1	-8
627.009	1	-1
627.179	1	6
627.348	1	1
627.518	1	15
627.688	1	-5
627.857	1	-9
628.027	1	-1
628.196	1	3
628.366	1	0
628.536	1	-2
628.705	1	6
628.875	1	-3
629.044	1	-4
629.214	1	-4
629.384	1	9
629.553	1	8
629.723	1	1
629.892	1	-8
630.062	1	17
630.232	1	-8
630.401	1	2
630.571	1	3
630.740	1	0
630.910	1	16
631.079	1	-4
631.249	1	-4
631.419	1	-3
631.588	1	-15
631.758	1	12
631.927	1	-1
632.097	1	3
632.266	1	-4
632.436	1	-7
632.606	1	11
632.775	1	8
632.945	1	-1
633.114	1	-3
633.284	1	-2
633.453	1	0
633.623	1	2
633.793	1	-5
633.962	1	-6
634.132	1	5
634.301	1	0
634.471	1	11
634.640	1	9
634.810	1	-2
634.979	1	7
635.149	1	8
635.319	1	-1
635.488	1	8
635.658	1	-3
635.827	1	1
635.997	1	-2
636.166	1	7
636.336	1	3
636.505	1	6
636.675	1	-8
636.845	1	4
637.014	1	6
637.184	1	-7
637.353	1	3
637.523	1	-4
637.692	1	4
637.862	1	-7
638.031	1	-6
638.201	1	10
638.370	1	5
638.540	1	-2
638.710	1	5
638.879	1	-2
639.049	1	-8
639.218	1	-11
639.388	1	14
639.557	1	-1
639.727	1	-1
639.896	1	0
640.066	1	5
640.235	1	6
640.405	1	0
640.574	1	3
640.744	1	-4
640.914	1	-4
641.083	1	-6
641.253	1	-3
641.422	1	5
641.592	1	6
641.761	1	7
641.931	1	-7
642.100	1	3
642.270	1	7
642.439	1	5
642.609	1	0
642.778	1	5
642.948	1	-4
643.117	1	3
643.287	1	-5
643.456	1	0
643.626	1	-1
643.795	1	6
643.965	1	0
644.134	1	3
644.304	1	3
644.473	1	0
644.643	1	-5
644.812	1	13
644.982	1	0
645.151	1	-5
645.321	1	-2
645.490	1	8
645.660	1	-1
645.829	1	-1
645.999	1	5
646.168	1	-1
646.338	1	-7
646.507	1	-12
646.677	1	-2
646.846	1	6
647.016	1	1
647.185	1	-3
647.355	1	4
647.524	1	-6
647.694	1	14
647.863	1	-5
648.033	1	4
648.202	1	0
648.372	1	-3
648.541	1	-4
648.711	1	8
648.880	1	12
649.050	1	0
649.219	1	-1
649.389	1	0
649.558	1	5
649.728	1	2
649.897	1	-5
650.067	1	-8
650.236	1	4
650.406	1	-5
650.575	1	4
650.745	1	9
650.914	1	5
651.084	1	0
651.253	1	-4
651.423	1	-5
651.592	1	-5
651.762	1	-4
651.931	1	1
652.101	1	-5
652.270	1	-2
652.440	1	3
652.609	1	-7
652.778	1	2
652.948	1	1
653.117	1	7
653.287	1	-5
653.456	1	12
653.626	1	-8
653.795	1	-1
653.965	1	5
654.134	1	-2
654.304	1	8
654.473	1	8
654.643	1	9
654.812	1	4
654.982	1	0
655.151	1	3
655.320	1	2
655.490	1	-4
655.659	1	3
655.829	1	-2
655.998	1	6
656.168	1	-8
656.337	1	5
656.507	1	-10
656.676	1	0
656.846	1	-1
657.015	1	10
657.184	1	-8
657.354	1	2
657.523	1	4
657.693	1	1
657.862	1	-2
658.032	1	-2
658.201	1	-1
658.371	1	-3
658.540	1	6
658.709	1	4
658.879	1	-11
659.048	1	-1
659.218	1	7
659.387	1	1
659.557	1	5
659.726	1	5
659.895	1	-4
660.065	1	-3
660.234	1	2
660.404	1	19
660.573	1	1
660.743	1	9
660.912	1	9
661.081	1	6
661.251	1	-1
661.420	1	1
661.590	1	4
661.759	1	-3
661.929	1	10
662.098	1	-9
662.267	1	7
662.437	1	8
662.606	1	1
662.776	1	5
662.945	1	2
663.115	1	-10
663.284	1	-8
663.453	1	-2
663.623	1	-4
663.792	1	-2
663.962	1	-6
664.131	1	-6
664.300	1	2
664.470	1	-15
664.639	1	6
664.809	1	-1
664.978	1	2
665.148	1	8
665.317	1	-2
665.486	1	4
665.656	1	-4
665.825	1	6
665.995	1	3
666.164	1	6
666.333	1	3
666.503	1	7
666.672	1	-8
666.842	1	-2
667.011	1	0
667.180	1	0
667.350	1	12
667.519	1	-5
667.689	1	19
667.858	1	2
668.027	1	-1
668.197	1	8
668.366	1	3
668.536	1	1
668.705	1	2
668.874	1	8
669.044	1	-8
669.213	1	-1
669.382	1	6
669.552	1	4
669.721	1	-4
669.891	1	-13
670.060	1	-2
670.229	1	5
670.399	1	3
670.568	1	10
670.738	1	-8
670.907	1	-2
671.076	1	7
671.246	1	-8
671.415	1	5
671.584	1	-6
671.754	1	3
671.923	1	-1
672.093	1	3
672.262	1	7
672.431	1	11
672.601	1	-10
672.770	1	-6
672.939	1	-10
673.109	1	-6
673.278	1	21
673.448	1	5
673.617	1	-2
673.786	1	-8
