325.333	1	13
325.504	1	9
325.675	1	6
325.846	1	6
326.017	1	11
326.188	1	23
326.359	1	5
326.531	1	-1
326.702	1	17
326.873	1	9
327.044	1	13
327.215	1	4
327.386	1	6
327.557	1	29
327.728	1	-1
327.899	1	17
328.070	1	11
328.241	1	16
328.412	1	0
328.583	1	16
328.754	1	4
328.926	1	10
329.097	1	9
329.268	1	16
329.439	1	7
329.610	1	22
329.781	1	20
329.952	1	15
330.123	1	9
330.294	1	29
330.465	1	20
330.636	1	9
330.807	1	20
330.978	1	15
331.149	1	11
331.320	1	0
331.492	1	21
331.663	1	15
331.834	1	14
332.005	1	9
332.176	1	13
332.347	1	20
332.518	1	4
332.689	1	19
332.860	1	1
333.031	1	18
333.202	1	19
333.373	1	11
333.544	1	6
333.715	1	4
333.886	1	11
334.057	1	19
334.228	1	24
334.399	1	5
334.570	1	15
334.741	1	8
334.912	1	10
335.084	1	5
335.255	1	9
335.426	1	11
335.597	1	15
335.768	1	13
335.939	1	13
336.110	1	25
336.281	1	21
336.452	1	23
336.623	1	17
336.794	1	7
336.965	1	13
337.136	1	13
337.307	1	17
337.478	1	13
337.649	1	21
337.820	1	7
337.991	1	26
338.162	1	12
338.333	1	16
338.504	1	8
338.675	1	16
338.846	1	14
339.017	1	17
339.188	1	21
339.359	1	21
339.530	1	18
339.701	1	19
339.872	1	18
340.043	1	27
340.214	1	16
340.385	1	27
340.556	1	24
340.727	1	16
340.898	1	13
341.069	1	20
341.240	1	27
341.411	1	17
341.582	1	18
341.753	1	21
341.924	1	24
342.095	1	8
342.266	1	4
342.437	1	18
342.608	1	18
342.779	1	13
342.950	1	19
343.121	1	15
343.292	1	15
343.463	1	20
343.634	1	30
343.805	1	20
343.976	1	20
344.147	1	25
344.318	1	23
344.489	1	20
344.660	1	26
344.831	1	11
345.002	1	23
345.173	1	16
345.344	1	21
345.515	1	23
345.686	1	27
345.857	1	30
346.028	1	21
346.199	1	31
346.370	1	13
346.541	1	33
346.712	1	24
346.883	1	19
347.054	1	17
347.225	1	24
347.396	1	17
347.567	1	27
347.738	1	35
347.909	1	22
348.080	1	27
348.251	1	20
348.422	1	33
348.593	1	31
348.764	1	11
348.935	1	26
349.106	1	27
349.277	1	24
349.448	1	29
349.619	1	34
349.790	1	32
349.961	1	34
350.132	1	26
350.303	1	27
350.474	1	25
350.645	1	15
350.816	1	30
350.987	1	19
351.157	1	30
351.328	1	34
351.499	1	21
351.670	1	28
351.841	1	13
352.012	1	22
352.183	1	18
352.354	1	29
352.525	1	25
352.696	1	21
352.867	1	24
353.038	1	32
353.209	1	39
353.380	1	36
353.551	1	36
353.722	1	25
353.893	1	27
354.064	1	37
354.235	1	22
354.406	1	28
354.576	1	25
354.747	1	27
354.918	1	42
355.089	1	36
355.260	1	27
355.431	1	40
355.602	1	32
355.773	1	27
355.944	1	30
356.115	1	22
356.286	1	26
356.457	1	37
356.628	1	45
356.799	1	16
356.970	1	34
357.141	1	43
357.311	1	35
357.482	1	30
357.653	1	30
357.824	1	47
357.995	1	37
358.166	1	32
358.337	1	36
358.508	1	30
358.679	1	24
358.850	1	42
359.021	1	39
359.192	1	17
359.363	1	38
359.533	1	30
359.704	1	33
359.875	1	41
360.046	1	33
360.217	1	34
360.388	1	30
360.559	1	36
360.730	1	23
360.901	1	36
361.072	1	34
361.243	1	20
361.414	1	30
361.584	1	45
361.755	1	37
361.926	1	36
362.097	1	38
362.268	1	40
362.439	1	32
362.610	1	31
362.781	1	42
362.952	1	42
363.123	1	52
363.293	1	36
363.464	1	31
363.635	1	39
363.806	1	41
363.977	1	30
364.148	1	35
364.319	1	25
364.490	1	39
364.661	1	39
364.832	1	44
365.002	1	34
365.173	1	48
365.344	1	36
365.515	1	43
365.686	1	44
365.857	1	36
366.028	1	31
366.199	1	43
366.370	1	35
366.540	1	44
366.711	1	35
366.882	1	48
367.053	1	33
367.224	1	26
367.395	1	39
367.566	1	41
367.737	1	40
367.908	1	31
368.078	1	51
368.249	1	33
368.420	1	49
368.591	1	52
368.762	1	42
368.933	1	32
369.104	1	34
369.274	1	30
369.445	1	44
369.616	1	45
369.787	1	45
369.958	1	36
370.129	1	41
370.300	1	36
370.471	1	40
370.641	1	37
370.812	1	22
370.983	1	46
371.154	1	41
371.325	1	44
371.496	1	42
371.667	1	45
371.837	1	36
372.008	1	41
372.179	1	43
372.350	1	50
372.521	1	32
372.692	1	36
372.863	1	33
373.033	1	49
373.204	1	41
373.375	1	49
373.546	1	45
373.717	1	29
373.888	1	36
374.059	1	47
374.229	1	49
374.400	1	36
374.571	1	51
374.742	1	38
374.913	1	26
375.084	1	56
375.254	1	58
375.425	1	26
375.596	1	29
375.767	1	39
375.938	1	40
376.109	1	28
376.279	1	35
376.450	1	43
376.621	1	43
376.792	1	44
376.963	1	41
377.134	1	51
377.304	1	36
377.475	1	44
377.646	1	45
377.817	1	30
377.988	1	47
378.159	1	47
378.329	1	48
378.500	1	42
378.671	1	44
378.842	1	39
379.013	1	44
379.184	1	51
379.354	1	35
379.525	1	40
379.696	1	41
379.867	1	46
380.038	1	27
380.209	1	53
380.379	1	54
380.550	1	47
380.721	1	52
380.892	1	43
381.063	1	55
381.233	1	33
381.404	1	38
381.575	1	43
381.746	1	42
381.917	1	41
382.087	1	45
382.258	1	43
382.429	1	54
382.600	1	43
382.771	1	46
382.941	1	42
383.112	1	45
383.283	1	44
383.454	1	41
383.625	1	42
383.795	1	54
383.966	1	39
384.137	1	55
384.308	1	44
384.479	1	46
384.649	1	52
384.820	1	42
384.991	1	45
385.162	1	50
385.333	1	52
385.503	1	57
385.674	1	50
385.845	1	47
386.016	1	54
386.187	1	36
386.357	1	38
386.528	1	43
386.699	1	35
386.870	1	45
387.041	1	48
387.211	1	51
387.382	1	39
387.553	1	47
387.724	1	39
387.894	1	45
388.065	1	55
388.236	1	41
388.407	1	59
388.578	1	36
388.748	1	53
388.919	1	54
389.090	1	58
389.261	1	51
389.431	1	51
389.602	1	56
389.773	1	58
389.944	1	38
390.114	1	50
390.285	1	40
390.456	1	51
390.627	1	54
390.798	1	53
390.968	1	48
391.139	1	50
391.310	1	64
391.481	1	61
391.651	1	55
391.822	1	49
391.993	1	61
392.164	1	40
392.334	1	56
392.505	1	51
392.676	1	55
392.847	1	52
393.017	1	49
393.188	1	56
393.359	1	54
393.530	1	61
393.700	1	58
393.871	1	54
394.042	1	35
394.213	1	48
394.383	1	60
394.554	1	55
394.725	1	52
394.896	1	48
395.066	1	48
395.237	1	41
395.408	1	57
395.579	1	53
395.749	1	49
395.920	1	58
396.091	1	50
396.262	1	59
396.432	1	49
396.603	1	50
396.774	1	56
396.945	1	50
397.115	1	54
397.286	1	49
397.457	1	53
397.627	1	61
397.798	1	62
397.969	1	50
398.140	1	52
398.310	1	55
398.481	1	52
398.652	1	59
398.823	1	41
398.993	1	52
399.164	1	49
399.335	1	50
399.505	1	60
399.676	1	50
399.847	1	52
400.018	1	51
400.188	1	53
400.359	1	49
400.530	1	52
400.700	1	48
400.871	1	62
401.042	1	56
401.213	1	52
401.383	1	52
401.554	1	66
401.725	1	66
401.895	1	61
402.066	1	56
402.237	1	65
402.408	1	59
402.578	1	53
402.749	1	55
402.920	1	56
403.090	1	60
403.261	1	66
403.432	1	48
403.603	1	52
403.773	1	60
403.944	1	53
404.115	1	56
404.285	1	61
404.456	1	52
404.627	1	56
404.797	1	45
404.968	1	70
405.139	1	56
405.310	1	44
405.480	1	60
405.651	1	60
405.822	1	61
405.992	1	59
406.163	1	54
406.334	1	46
406.504	1	55
406.675	1	50
406.846	1	51
407.016	1	40
407.187	1	54
407.358	1	69
407.528	1	40
407.699	1	64
407.870	1	42
408.041	1	55
408.211	1	51
408.382	1	55
408.553	1	50
408.723	1	53
408.894	1	58
409.065	1	67
409.235	1	58
409.406	1	45
409.577	1	66
409.747	1	53
409.918	1	54
410.089	1	61
410.259	1	70
410.430	1	49
410.601	1	48
410.771	1	71
410.942	1	62
411.113	1	51
411.283	1	58
411.454	1	56
411.625	1	58
411.795	1	66
411.966	1	66
412.137	1	42
412.307	1	59
412.478	1	67
412.649	1	61
412.819	1	48
412.990	1	60
413.161	1	65
413.331	1	60
413.502	1	57
413.672	1	61
413.843	1	52
414.014	1	66
414.184	1	51
414.355	1	61
414.526	1	63
414.696	1	64
414.867	1	64
415.038	1	54
415.208	1	65
415.379	1	63
415.550	1	63
415.720	1	65
415.891	1	55
416.062	1	55
416.232	1	45
416.403	1	48
416.573	1	61
416.744	1	64
416.915	1	71
417.085	1	63
417.256	1	57
417.427	1	57
417.597	1	50
417.768	1	54
417.939	1	59
418.109	1	53
418.280	1	54
418.450	1	59
418.621	1	41
418.792	1	52
418.962	1	60
419.133	1	63
419.304	1	53
419.474	1	50
419.645	1	46
419.815	1	60
419.986	1	38
420.157	1	49
420.327	1	62
420.498	1	48
420.669	1	63
420.839	1	55
421.010	1	65
421.180	1	55
421.351	1	54
421.522	1	48
421.692	1	59
421.863	1	52
422.033	1	68
422.204	1	44
422.375	1	49
422.545	1	55
422.716	1	48
422.886	1	59
423.057	1	48
423.228	1	43
423.398	1	49
423.569	1	54
423.740	1	38
423.910	1	43
424.081	1	59
424.251	1	46
424.422	1	65
424.593	1	45
424.763	1	53
424.934	1	45
425.104	1	49
425.275	1	63
425.445	1	60
425.616	1	51
425.787	1	50
425.957	1	59
426.128	1	39
426.298	1	58
426.469	1	44
426.640	1	65
426.810	1	44
426.981	1	58
427.151	1	57
427.322	1	54
427.493	1	50
427.663	1	47
427.834	1	49
428.004	1	53
428.175	1	60
428.345	1	46
428.516	1	55
428.687	1	46
428.857	1	48
429.028	1	60
429.198	1	37
429.369	1	55
429.540	1	35
429.710	1	52
429.881	1	40
430.051	1	45
430.222	1	42
430.392	1	58
430.563	1	50
430.734	1	47
430.904	1	56
431.075	1	52
431.245	1	58
431.416	1	45
431.586	1	43
431.757	1	40
431.927	1	44
432.098	1	48
432.269	1	53
432.439	1	56
432.610	1	59
432.780	1	52
432.951	1	55
433.121	1	47
433.292	1	40
433.462	1	49
433.633	1	43
433.804	1	53
433.974	1	35
434.145	1	50
434.315	1	56
434.486	1	46
434.656	1	54
434.827	1	41
434.997	1	61
435.168	1	56
435.339	1	52
435.509	1	49
435.680	1	51
435.850	1	44
436.021	1	44
436.191	1	41
436.362	1	45
436.532	1	48
436.703	1	38
436.873	1	53
437.044	1	48
437.214	1	62
437.385	1	52
437.556	1	43
437.726	1	40
437.897	1	40
438.067	1	36
438.238	1	39
438.408	1	52
438.579	1	60
438.749	1	56
438.920	1	53
439.090	1	47
439.261	1	39
439.431	1	55
439.602	1	50
439.772	1	62
439.943	1	44
440.113	1	28
440.284	1	37
440.455	1	52
440.625	1	51
440.796	1	50
440.966	1	32
441.137	1	55
441.307	1	51
441.478	1	43
441.648	1	39
441.819	1	51
441.989	1	44
442.160	1	39
442.330	1	52
442.501	1	55
442.671	1	50
442.842	1	42
443.012	1	45
443.183	1	45
443.353	1	45
443.524	1	41
443.694	1	44
443.865	1	51
444.035	1	44
444.206	1	46
444.376	1	52
444.547	1	43
444.717	1	51
444.888	1	40
445.058	1	56
445.229	1	49
445.399	1	46
445.570	1	59
445.740	1	54
445.911	1	31
446.081	1	37
446.252	1	40
446.422	1	47
446.593	1	40
446.763	1	51
446.934	1	32
447.104	1	41
447.275	1	35
447.445	1	36
447.616	1	44
447.786	1	51
447.957	1	39
448.127	1	36
448.298	1	40
448.468	1	43
448.639	1	41
448.809	1	55
448.979	1	42
449.150	1	37
449.320	1	43
449.491	1	38
449.661	1	40
449.832	1	39
450.002	1	35
450.173	1	49
450.343	1	47
450.514	1	46
450.684	1	40
450.855	1	50
451.025	1	54
451.196	1	33
451.366	1	45
451.537	1	49
451.707	1	44
451.878	1	32
452.048	1	27
452.218	1	42
452.389	1	48
452.559	1	56
452.730	1	40
452.900	1	40
453.071	1	41
453.241	1	31
453.412	1	36
453.582	1	38
453.753	1	30
453.923	1	38
454.093	1	41
454.264	1	49
454.434	1	48
454.605	1	45
454.775	1	29
454.946	1	41
455.116	1	35
455.287	1	43
455.457	1	38
455.628	1	31
455.798	1	28
455.968	1	47
456.139	1	42
456.309	1	47
456.480	1	38
456.650	1	37
456.821	1	44
456.991	1	38
457.161	1	26
457.332	1	38
457.502	1	34
457.673	1	33
457.843	1	35
458.014	1	42
458.184	1	41
458.355	1	32
458.525	1	38
458.695	1	38
458.866	1	36
459.036	1	42
459.207	1	39
459.377	1	40
459.548	1	46
459.718	1	29
459.888	1	45
460.059	1	39
460.229	1	40
460.400	1	33
460.570	1	40
460.740	1	38
460.911	1	37
461.081	1	32
461.252	1	37
461.422	1	28
461.593	1	28
461.763	1	38
461.933	1	38
462.104	1	33
462.274	1	43
462.445	1	45
462.615	1	38
462.785	1	30
462.956	1	31
463.126	1	38
463.297	1	36
463.467	1	39
463.638	1	26
463.808	1	41
463.978	1	41
464.149	1	47
464.319	1	43
464.490	1	29
464.660	1	44
464.830	1	19
465.001	1	15
465.171	1	33
465.342	1	23
465.512	1	37
465.682	1	34
465.853	1	33
466.023	1	55
466.194	1	31
466.364	1	20
466.534	1	29
466.705	1	33
466.875	1	24
467.045	1	44
467.216	1	35
467.386	1	30
467.557	1	43
467.727	1	40
467.897	1	46
468.068	1	37
468.238	1	25
468.409	1	41
468.579	1	30
468.749	1	29
468.920	1	44
469.090	1	19
469.260	1	35
469.431	1	39
469.601	1	31
469.772	1	25
469.942	1	37
470.112	1	30
470.283	1	30
470.453	1	36
470.623	1	38
470.794	1	31
470.964	1	42
471.135	1	30
471.305	1	35
471.475	1	35
471.646	1	32
471.816	1	22
471.986	1	27
472.157	1	22
472.327	1	31
472.497	1	35
472.668	1	29
472.838	1	29
473.009	1	36
473.179	1	43
473.349	1	25
473.520	1	13
473.690	1	23
473.860	1	31
474.031	1	22
474.201	1	26
474.371	1	43
474.542	1	35
474.712	1	17
474.882	1	26
475.053	1	17
475.223	1	22
475.394	1	19
475.564	1	31
475.734	1	17
475.905	1	21
476.075	1	29
476.245	1	31
476.416	1	23
476.586	1	32
476.756	1	19
476.927	1	28
477.097	1	29
477.267	1	34
477.438	1	14
477.608	1	26
477.778	1	38
477.949	1	33
478.119	1	13
478.289	1	22
478.460	1	31
478.630	1	27
478.800	1	34
478.971	1	20
479.141	1	30
479.311	1	30
479.482	1	3
479.652	1	32
479.822	1	22
479.993	1	27
480.163	1	24
480.333	1	38
480.504	1	29
480.674	1	16
480.844	1	18
481.015	1	37
481.185	1	29
481.355	1	25
481.525	1	19
481.696	1	28
481.866	1	28
482.036	1	19
482.207	1	22
482.377	1	22
482.547	1	23
482.718	1	16
482.888	1	12
483.058	1	19
483.229	1	24
483.399	1	26
483.569	1	16
483.740	1	25
483.910	1	25
484.080	1	33
484.250	1	17
484.421	1	28
484.591	1	23
484.761	1	21
484.932	1	27
485.102	1	15
485.272	1	11
485.443	1	27
485.613	1	23
485.783	1	14
485.953	1	14
486.124	1	41
486.294	1	26
486.464	1	20
486.635	1	23
486.805	1	38
486.975	1	20
487.146	1	29
487.316	1	14
487.486	1	17
487.656	1	35
487.827	1	19
487.997	1	25
488.167	1	35
488.338	1	20
488.508	1	11
488.678	1	31
488.848	1	23
489.019	1	24
489.189	1	12
489.359	1	23
489.529	1	16
489.700	1	9
489.870	1	14
490.040	1	11
490.211	1	13
490.381	1	33
490.551	1	16
490.721	1	27
490.892	1	33
491.062	1	18
491.232	1	27
491.402	1	17
491.573	1	18
491.743	1	15
491.913	1	16
492.084	1	28
492.254	1	30
492.424	1	21
492.594	1	16
492.765	1	23
492.935	1	17
493.105	1	16
493.275	1	27
493.446	1	23
493.616	1	15
493.786	1	12
493.956	1	26
494.127	1	17
494.297	1	26
494.467	1	18
494.637	1	20
494.808	1	21
494.978	1	15
495.148	1	30
495.318	1	22
495.489	1	23
495.659	1	20
495.829	1	25
495.999	1	21
496.170	1	20
496.340	1	21
496.510	1	28
496.680	1	30
496.851	1	22
497.021	1	26
497.191	1	17
497.361	1	22
497.532	1	21
497.702	1	13
497.872	1	17
498.042	1	24
498.213	1	16
498.383	1	24
498.553	1	25
498.723	1	23
498.894	1	31
499.064	1	5
499.234	1	19
499.404	1	19
499.574	1	17
499.745	1	17
499.915	1	9
500.085	1	19
500.255	1	21
500.426	1	10
500.596	1	22
500.766	1	16
500.936	1	24
501.106	1	23
501.277	1	21
501.447	1	6
501.617	1	32
501.787	1	17
501.958	1	13
502.128	1	24
502.298	1	26
502.468	1	22
502.638	1	30
502.809	1	21
502.979	1	22
503.149	1	19
503.319	1	21
503.489	1	15
503.660	1	12
503.830	1	24
504.000	1	14
504.170	1	11
504.340	1	12
504.511	1	21
504.681	1	11
504.851	1	8
505.021	1	16
505.192	1	18
505.362	1	24
505.532	1	16
505.702	1	14
505.872	1	20
506.043	1	4
506.213	1	16
506.383	1	6
506.553	1	21
506.723	1	13
506.893	1	15
507.064	1	14
507.234	1	21
507.404	1	31
507.574	1	6
507.744	1	4
507.915	1	16
508.085	1	16
508.255	1	12
508.425	1	13
508.595	1	8
508.766	1	17
508.936	1	15
509.106	1	21
509.276	1	28
509.446	1	0
509.616	1	29
509.787	1	16
509.957	1	18
510.127	1	16
510.297	1	15
510.467	1	16
510.638	1	11
510.808	1	14
510.978	1	19
511.148	1	9
511.318	1	30
511.488	1	17
511.659	1	6
511.829	1	5
511.999	1	15
512.169	1	7
512.339	1	11
512.509	1	12
512.680	1	10
512.850	1	16
513.020	1	16
513.190	1	16
513.360	1	23
513.530	1	13
513.700	1	23
513.871	1	16
514.041	1	15
514.211	1	15
514.381	1	1
514.551	1	13
514.721	1	20
514.892	1	10
515.062	1	9
515.232	1	15
515.402	1	22
515.572	1	7
515.742	1	13
515.912	1	17
516.083	1	10
516.253	1	12
516.423	1	15
516.593	1	17
516.763	1	15
516.933	1	20
517.104	1	15
517.274	1	11
517.444	1	8
517.614	1	14
517.784	1	8
517.954	1	19
518.124	1	13
518.294	1	15
518.465	1	8
518.635	1	8
518.805	1	16
518.975	1	21
519.145	1	2
519.315	1	15
519.485	1	7
519.656	1	12
519.826	1	12
519.996	1	14
520.166	1	20
520.336	1	20
520.506	1	16
520.676	1	12
520.846	1	11
521.017	1	14
521.187	1	9
521.357	1	11
521.527	1	8
521.697	1	10
521.867	1	14
522.037	1	16
522.207	1	13
522.377	1	8
522.548	1	16
522.718	1	17
522.888	1	2
523.058	1	10
523.228	1	17
523.398	1	8
523.568	1	19
523.738	1	18
523.909	1	14
524.079	1	13
524.249	1	14
524.419	1	9
524.589	1	17
524.759	1	11
524.929	1	19
525.099	1	22
525.269	1	15
525.439	1	11
525.610	1	21
525.780	1	17
525.950	1	12
526.120	1	15
526.290	1	14
526.460	1	12
526.630	1	4
526.800	1	8
526.970	1	18
527.140	1	10
527.311	1	1
527.481	1	16
527.651	1	10
527.821	1	0
527.991	1	21
528.161	1	9
528.331	1	8
528.501	1	13
528.671	1	15
528.841	1	16
529.011	1	2
529.181	1	15
529.352	1	2
529.522	1	-2
529.692	1	7
529.862	1	7
530.032	1	18
530.202	1	14
530.372	1	8
530.542	1	17
530.712	1	-3
530.882	1	10
531.052	1	17
531.222	1	-1
531.392	1	4
531.563	1	3
531.733	1	22
531.903	1	10
532.073	1	12
532.243	1	16
532.413	1	26
532.583	1	4
532.753	1	12
532.923	1	7
533.093	1	4
533.263	1	10
533.433	1	22
533.603	1	15
533.773	1	12
533.943	1	11
534.113	1	20
534.284	1	12
534.454	1	6
534.624	1	5
534.794	1	8
534.964	1	4
535.134	1	9
535.304	1	12
535.474	1	7
535.644	1	19
535.814	1	8
535.984	1	9
536.154	1	7
536.324	1	1
536.494	1	10
536.664	1	1
536.834	1	10
537.004	1	11
537.174	1	21
537.344	1	20
537.514	1	8
537.685	1	10
537.855	1	8
538.025	1	5
538.195	1	7
538.365	1	6
538.535	1	9
538.705	1	7
538.875	1	11
539.045	1	15
539.215	1	13
539.385	1	3
539.555	1	7
539.725	1	14
539.895	1	11
540.065	1	7
540.235	1	13
540.405	1	15
540.575	1	18
540.745	1	4
540.915	1	10
541.085	1	12
541.255	1	8
541.425	1	2
541.595	1	3
541.765	1	15
541.935	1	21
542.105	1	-9
542.275	1	12
542.445	1	7
542.615	1	12
542.785	1	21
542.955	1	6
543.125	1	8
543.295	1	17
543.465	1	8
543.635	1	3
543.805	1	11
543.975	1	6
544.145	1	9
544.315	1	-7
544.485	1	2
544.655	1	14
544.825	1	12
544.995	1	14
545.165	1	12
545.335	1	4
545.505	1	5
545.675	1	9
545.845	1	-6
546.015	1	16
546.185	1	7
546.355	1	-1
546.525	1	14
546.695	1	14
546.865	1	-2
547.035	1	8
547.205	1	13
547.375	1	8
547.545	1	4
547.715	1	9
547.885	1	9
548.055	1	11
548.225	1	-3
548.395	1	18
548.565	1	4
548.735	1	17
548.905	1	3
549.075	1	14
549.245	1	8
549.415	1	16
549.585	1	4
549.755	1	16
549.925	1	10
550.095	1	2
550.265	1	1
550.435	1	13
550.605	1	4
550.775	1	5
550.945	1	1
551.115	1	2
551.285	1	-2
551.455	1	-1
551.625	1	8
551.795	1	11
551.965	1	12
552.135	1	2
552.305	1	12
552.475	1	20
552.645	1	20
552.815	1	4
552.985	1	-1
553.155	1	4
553.325	1	2
553.495	1	16
553.665	1	14
553.835	1	1
554.004	1	8
554.174	1	6
554.344	1	5
554.514	1	9
554.684	1	5
554.854	1	4
555.024	1	29
555.194	1	18
555.364	1	18
555.534	1	13
555.704	1	4
555.874	1	6
556.044	1	5
556.214	1	-2
556.384	1	7
556.554	1	4
556.724	1	-5
556.894	1	8
557.064	1	1
557.234	1	6
557.404	1	5
557.573	1	4
557.743	1	13
557.913	1	-1
558.083	1	3
558.253	1	4
558.423	1	-1
558.593	1	9
558.763	1	17
558.933	1	15
559.103	1	11
559.273	1	11
559.443	1	5
559.613	1	-1
559.783	1	9
559.953	1	-3
560.122	1	12
560.292	1	8
560.462	1	7
560.632	1	10
560.802	1	6
560.972	1	6
561.142	1	8
561.312	1	11
561.482	1	6
561.652	1	10
561.822	1	2
561.992	1	8
562.162	1	1
562.331	1	0
562.501	1	0
562.671	1	19
562.841	1	12
563.011	1	14
563.181	1	27
563.351	1	7
563.521	1	9
563.691	1	3
563.861	1	14
564.031	1	3
564.201	1	5
564.370	1	14
564.540	1	5
564.710	1	13
564.880	1	10
565.050	1	7
565.220	1	-3
565.390	1	6
565.560	1	-2
565.730	1	9
565.900	1	0
566.069	1	12
566.239	1	-6
566.409	1	8
566.579	1	9
566.749	1	17
566.919	1	10
567.089	1	9
567.259	1	18
567.429	1	3
567.599	1	-2
567.768	1	7
567.938	1	2
568.108	1	5
568.278	1	1
568.448	1	16
568.618	1	16
568.788	1	11
568.958	1	16
569.128	1	9
569.297	1	-2
569.467	1	11
569.637	1	-3
569.807	1	13
569.977	1	10
570.147	1	-3
570.317	1	16
570.487	1	10
570.656	1	6
570.826	1	17
570.996	1	5
571.166	1	8
571.336	1	9
571.506	1	11
571.676	1	10
571.846	1	9
572.015	1	12
572.185	1	7
572.355	1	8
572.525	1	6
572.695	1	10
572.865	1	0
573.035	1	0
573.205	1	-1
573.374	1	1
573.544	1	12
573.714	1	14
573.884	1	10
574.054	1	18
574.224	1	11
574.394	1	2
574.563	1	10
574.733	1	-7
574.903	1	1
575.073	1	11
575.243	1	-2
575.413	1	11
575.583	1	0
575.752	1	10
575.922	1	6
576.092	1	5
576.262	1	9
576.432	1	14
576.602	1	8
576.772	1	0
576.941	1	9
577.111	1	9
577.281	1	5
577.451	1	18
577.621	1	6
577.791	1	0
577.960	1	8
578.130	1	0
578.300	1	11
578.470	1	5
578.640	1	6
578.810	1	10
578.979	1	3
579.149	1	2
579.319	1	10
579.489	1	5
579.659	1	-4
579.829	1	8
579.998	1	-2
580.168	1	4
580.338	1	7
580.508	1	4
580.678	1	0
580.848	1	16
581.017	1	21
581.187	1	-4
581.357	1	-5
581.527	1	6
581.697	1	9
581.867	1	2
582.036	1	2
582.206	1	17
582.376	1	6
582.546	1	3
582.716	1	0
582.885	1	7
583.055	1	8
583.225	1	0
583.395	1	7
583.565	1	17
583.735	1	-1
583.904	1	6
584.074	1	8
584.244	1	18
584.414	1	4
584.584	1	6
584.753	1	20
584.923	1	6
585.093	1	-1
585.263	1	15
585.433	1	-2
585.602	1	7
585.772	1	10
585.942	1	5
586.112	1	2
586.282	1	2
586.451	1	-2
586.621	1	7
586.791	1	2
586.961	1	9
587.131	1	8
587.300	1	-6
587.470	1	3
587.640	1	1
587.810	1	-4
587.980	1	11
588.149	1	20
588.319	1	4
588.489	1	11
588.659	1	4
588.829	1	4
588.998	1	12
589.168	1	4
589.338	1	14
589.508	1	8
589.677	1	9
589.847	1	7
590.017	1	10
590.187	1	9
590.357	1	-1
590.526	1	12
590.696	1	8
590.866	1	15
591.036	1	-5
591.205	1	-3
591.375	1	1
591.545	1	1
591.715	1	16
591.885	1	14
592.054	1	10
592.224	1	0
592.394	1	6
592.564	1	2
592.733	1	14
592.903	1	-2
593.073	1	2
593.243	1	11
593.412	1	1
593.582	1	15
593.752	1	15
593.922	1	7
594.091	1	12
594.261	1	8
594.431	1	-6
594.601	1	3
594.771	1	-4
594.940	1	0
595.110	1	4
595.280	1	1
595.450	1	9
595.619	1	23
595.789	1	13
595.959	1	-5
596.129	1	5
596.298	1	5
596.468	1	-1
596.638	1	20
596.808	1	11
596.977	1	12
597.147	1	12
597.317	1	8
597.487	1	4
597.656	1	0
597.826	1	10
597.996	1	12
598.166	1	7
598.335	1	8
598.505	1	1
598.675	1	5
598.844	1	1
599.014	1	8
599.184	1	20
599.354	1	11
599.523	1	2
599.693	1	3
599.863	1	6
600.033	1	2
600.202	1	0
600.372	1	4
600.542	1	16
600.712	1	12
600.881	1	14
601.051	1	1
601.221	1	11
601.390	1	16
601.560	1	4
601.730	1	7
601.900	1	6
602.069	1	5
602.239	1	-11
602.409	1	18
602.578	1	5
602.748	1	6
602.918	1	8
603.088	1	6
603.257	1	14
603.427	1	0
603.597	1	6
603.767	1	4
603.936	1	16
604.106	1	4
604.276	1	3
604.445	1	3
604.615	1	3
604.785	1	4
604.954	1	17
605.124	1	7
605.294	1	10
605.464	1	18
605.633	1	21
605.803	1	2
605.973	1	1
606.142	1	13
606.312	1	-5
606.482	1	0
606.652	1	8
606.821	1	10
606.991	1	15
607.161	1	24
607.330	1	-2
607.500	1	4
607.670	1	-3
607.839	1	13
608.009	1	3
608.179	1	7
608.348	1	13
608.518	1	10
608.688	1	14
608.858	1	12
609.027	1	4
609.197	1	11
609.367	1	8
609.536	1	-2
609.706	1	6
609.876	1	-5
610.045	1	12
610.215	1	8
610.385	1	17
610.554	1	8
610.724	1	15
610.894	1	10
611.063	1	1
611.233	1	12
611.403	1	10
611.572	1	19
611.742	1	4
611.912	1	7
612.081	1	5
612.251	1	14
612.421	1	11
612.590	1	0
612.760	1	1
612.930	1	4
613.099	1	12
613.269	1	0
613.439	1	14
613.608	1	10
613.778	1	-6
613.948	1	4
614.117	1	2
614.287	1	4
614.457	1	6
614.626	1	-7
614.796	1	8
614.966	1	-5
615.135	1	5
615.305	1	3
615.475	1	10
615.644	1	14
615.814	1	18
615.984	1	-8
616.153	1	8
616.323	1	-4
616.493	1	7
616.662	1	15
616.832	1	11
617.002	1	22
617.171	1	6
617.341	1	13
617.511	1	-3
617.680	1	15
617.850	1	11
618.019	1	7
618.189	1	4
618.359	1	5
618.528	1	20
618.698	1	7
618.868	1	11
619.037	1	14
619.207	1	12
619.377	1	7
619.546	1	5
619.716	1	4
619.885	1	19
620.055	1	10
620.225	1	7
620.394	1	12
620.564	1	17
620.734	1	14
620.903	1	11
621.073	1	12
621.242	1	0
621.412	1	2
621.582	1	-2
621.751	1	4
621.921	1	14
622.091	1	11
622.260	1	2
622.430	1	4
622.599	1	11
622.769	1	11
622.939	1	11
623.108	1	11
623.278	1	13
623.448	1	10
623.617	1	-2
623.787	1	17
623.956	1	4
624.126	1	26
624.296	1	11
624.465	1	8
624.635	1	9
624.804	1	9
624.974	1	2
625.144	1	17
625.313	1	4
625.483	1	3
625.652	1	8
625.822	1	8
625.992	1	9
626.161	1	-1
626.331	1	9
626.501	1	16
626.670	1	12
626.840	1	0
627.009	1	12
627.179	1	13
627.348	1	10
627.518	1	23
627.688	1	11
627.857	1	12
628.027	1	12
628.196	1	6
628.366	1	5
628.536	1	11
628.705	1	9
628.875	1	6
629.044	1	4
629.214	1	6
629.384	1	8
629.553	1	9
629.723	1	1
629.892	1	5
630.062	1	23
630.232	1	5
630.401	1	13
630.571	1	9
630.740	1	17
630.910	1	13
631.079	1	9
631.249	1	-6
631.419	1	11
631.588	1	-2
631.758	1	11
631.927	1	7
632.097	1	11
632.266	1	4
632.436	1	3
632.606	1	18
632.775	1	12
632.945	1	-5
633.114	1	3
633.284	1	11
633.453	1	17
633.623	1	11
633.793	1	7
633.962	1	3
634.132	1	9
634.301	1	12
634.471	1	9
634.640	1	7
634.810	1	19
634.979	1	15
635.149	1	6
635.319	1	5
635.488	1	20
635.658	1	-6
635.827	1	8
635.997	1	1
636.166	1	7
636.336	1	15
636.505	1	26
636.675	1	-3
636.845	1	18
637.014	1	8
637.184	1	4
637.353	1	19
637.523	1	9
637.692	1	15
637.862	1	1
638.031	1	13
638.201	1	16
638.370	1	14
638.540	1	13
638.710	1	14
638.879	1	1
639.049	1	17
639.218	1	-2
639.388	1	23
639.557	1	6
639.727	1	8
639.896	1	13
640.066	1	15
640.235	1	16
640.405	1	5
640.574	1	21
640.744	1	15
640.914	1	3
641.083	1	2
641.253	1	6
641.422	1	14
641.592	1	14
641.761	1	27
641.931	1	1
642.100	1	12
642.270	1	14
642.439	1	6
642.609	1	2
642.778	1	19
642.948	1	4
643.117	1	12
643.287	1	12
643.456	1	7
643.626	1	16
643.795	1	11
643.965	1	8
644.134	1	10
644.304	1	16
644.473	1	10
644.643	1	0
644.812	1	6
644.982	1	8
645.151	1	7
645.321	1	11
645.490	1	18
645.660	1	7
645.829	1	4
645.999	1	16
646.168	1	10
646.338	1	12
646.507	1	-3
646.677	1	16
646.846	1	12
647.016	1	14
647.185	1	8
647.355	1	3
647.524	1	12
647.694	1	10
647.863	1	5
648.033	1	12
648.202	1	11
648.372	1	8
648.541	1	16
648.711	1	12
648.880	1	20
649.050	1	17
649.219	1	10
649.389	1	14
649.558	1	3
649.728	1	6
649.897	1	6
650.067	1	10
650.236	1	15
650.406	1	-5
650.575	1	12
650.745	1	8
650.914	1	7
651.084	1	3
651.253	1	13
651.423	1	2
651.592	1	23
651.762	1	10
651.931	1	15
652.101	1	6
652.270	1	0
652.440	1	18
652.609	1	7
652.778	1	23
652.948	1	3
653.117	1	26
653.287	1	10
653.456	1	21
653.626	1	10
653.795	1	13
653.965	1	14
654.134	1	9
654.304	1	7
654.473	1	12
654.643	1	13
654.812	1	11
654.982	1	17
655.151	1	16
655.320	1	14
655.490	1	8
655.659	1	14
655.829	1	5
655.998	1	10
656.168	1	7
656.337	1	22
656.507	1	2
656.676	1	15
656.846	1	4
657.015	1	24
657.184	1	9
657.354	1	12
657.523	1	16
657.693	1	9
657.862	1	13
658.032	1	2
658.201	1	2
658.371	1	14
658.540	1	18
658.709	1	14
658.879	1	1
659.048	1	5
659.218	1	13
659.387	1	9
659.557	1	11
659.726	1	16
659.895	1	-4
660.065	1	12
660.234	1	12
660.404	1	21
660.573	1	16
660.743	1	14
660.912	1	22
661.081	1	16
661.251	1	12
661.420	1	13
661.590	1	19
661.759	1	10
661.929	1	15
662.098	1	13
662.267	1	19
662.437	1	11
662.606	1	13
662.776	1	15
662.945	1	21
663.115	1	5
663.284	1	4
663.453	1	9
663.623	1	6
663.792	1	9
663.962	1	6
664.131	1	17
664.300	1	6
664.470	1	-5
664.639	1	1
664.809	1	21
664.978	1	15
665.148	1	16
665.317	1	4
665.486	1	6
665.656	1	11
665.825	1	12
665.995	1	16
666.164	1	20
666.333	1	11
666.503	1	14
666.672	1	19
666.842	1	3
667.011	1	12
667.180	1	8
667.350	1	15
667.519	1	-3
667.689	1	13
667.858	1	18
668.027	1	7
668.197	1	13
668.366	1	13
668.536	1	17
668.705	1	23
668.874	1	13
669.044	1	7
669.213	1	13
669.382	1	18
669.552	1	15
669.721	1	0
669.891	1	-1
670.060	1	10
670.229	1	2
670.399	1	12
670.568	1	25
670.738	1	9
670.907	1	10
671.076	1	17
671.246	1	10
671.415	1	10
671.584	1	10
671.754	1	19
671.923	1	21
672.093	1	21
672.262	1	18
672.431	1	19
672.601	1	8
672.770	1	1
672.939	1	10
673.109	1	7
673.278	1	17
673.448	1	6
673.617	1	12
673.786	1	15
