325.333	1	-5
325.504	1	2
325.675	1	0
325.846	1	4
326.017	1	3
326.188	1	10
326.359	1	5
326.531	1	3
326.702	1	6
326.873	1	5
327.044	1	2
327.215	1	-3
327.386	1	-3
327.557	1	6
327.728	1	-12
327.899	1	-2
328.070	1	8
328.241	1	2
328.412	1	-6
328.583	1	-4
328.754	1	-7
328.926	1	4
329.097	1	4
329.268	1	6
329.439	1	0
329.610	1	4
329.781	1	3
329.952	1	10
330.123	1	1
330.294	1	5
330.465	1	13
330.636	1	1
330.807	1	3
330.978	1	4
331.149	1	-2
331.320	1	12
331.492	1	8
331.663	1	0
331.834	1	6
332.005	1	-1
332.176	1	2
332.347	1	5
332.518	1	-5
332.689	1	6
332.860	1	0
333.031	1	0
333.202	1	7
333.373	1	3
333.544	1	-2
333.715	1	-8
333.886	1	3
334.057	1	4
334.228	1	1
334.399	1	-6
334.570	1	1
334.741	1	4
334.912	1	1
335.084	1	0
335.255	1	-6
335.426	1	4
335.597	1	3
335.768	1	-4
335.939	1	-5
336.110	1	1
336.281	1	4
336.452	1	7
336.623	1	3
336.794	1	-2
336.965	1	-3
337.136	1	5
337.307	1	8
337.478	1	-9
337.649	1	-1
337.820	1	-1
337.991	1	-3
338.162	1	9
338.333	1	6
338.504	1	-5
338.675	1	-1
338.846	1	-4
339.017	1	1
339.188	1	9
339.359	1	3
339.530	1	1
339.701	1	-5
339.872	1	-1
340.043	1	8
340.214	1	5
340.385	1	3
340.556	1	-1
340.727	1	2
340.898	1	4
341.069	1	6
341.240	1	1
341.411	1	-3
341.582	1	5
341.753	1	-8
341.924	1	2
342.095	1	1
342.266	1	0
342.437	1	1
342.608	1	-10
342.779	1	-3
342.950	1	1
343.121	1	3
343.292	1	3
343.463	1	6
343.634	1	-3
343.805	1	-5
343.976	1	1
344.147	1	6
344.318	1	-8
344.489	1	3
344.660	1	-5
344.831	1	-4
345.002	1	-1
345.173	1	5
345.344	1	-8
345.515	1	-1
345.686	1	-3
345.857	1	-3
346.028	1	8
346.199	1	3
346.370	1	-4
346.541	1	11
346.712	1	-3
346.883	1	3
347.054	1	-5
347.225	1	0
347.396	1	-3
347.567	1	10
347.738	1	8
347.909	1	2
348.080	1	-14
348.251	1	-3
348.422	1	5
348.593	1	6
348.764	1	-2
348.935	1	-4
349.106	1	-2
349.277	1	5
349.448	1	-6
349.619	1	2
349.790	1	15
349.961	1	0
350.132	1	-5
350.303	1	5
350.474	1	0
350.645	1	1
350.816	1	9
350.987	1	-1
351.157	1	10
351.328	1	7
351.499	1	0
351.670	1	-2
351.841	1	-8
352.012	1	9
352.183	1	-10
352.354	1	0
352.525	1	-6
352.696	1	1
352.867	1	-7
353.038	1	-1
353.209	1	9
353.380	1	12
353.551	1	4
353.722	1	-1
353.893	1	5
354.064	1	1
354.235	1	-1
354.406	1	2
354.576	1	-4
354.747	1	-5
354.918	1	-2
355.089	1	7
355.260	1	8
355.431	1	-5
355.602	1	-5
355.773	1	9
355.944	1	0
356.115	1	-9
356.286	1	5
356.457	1	6
356.628	1	12
356.799	1	-3
356.970	1	0
357.141	1	7
357.311	1	5
357.482	1	-2
357.653	1	-7
357.824	1	14
357.995	1	3
358.166	1	2
358.337	1	-1
358.508	1	-2
358.679	1	-7
358.850	1	-3
359.021	1	5
359.192	1	10
359.363	1	5
359.533	1	-5
359.704	1	-4
359.875	1	8
360.046	1	-3
360.217	1	0
360.388	1	-1
360.559	1	5
360.730	1	-4
360.901	1	0
361.072	1	7
361.243	1	1
361.414	1	-4
361.584	1	4
361.755	1	-1
361.926	1	5
362.097	1	8
362.268	1	4
362.439	1	-1
362.610	1	-3
362.781	1	-9
362.952	1	3
363.123	1	5
363.293	1	0
363.464	1	-1
363.635	1	3
363.806	1	9
363.977	1	-2
364.148	1	3
364.319	1	-3
364.490	1	3
364.661	1	-2
364.832	1	12
365.002	1	3
365.173	1	-3
365.344	1	1
365.515	1	0
365.686	1	-1
365.857	1	0
366.028	1	-2
366.199	1	8
366.370	1	2
366.540	1	2
366.711	1	8
366.882	1	1
367.053	1	3
367.224	1	1
367.395	1	2
367.566	1	6
367.737	1	12
367.908	1	0
368.078	1	10
368.249	1	4
368.420	1	7
368.591	1	7
368.762	1	6
368.933	1	-8
369.104	1	6
369.274	1	-14
369.445	1	3
369.616	1	7
369.787	1	6
369.958	1	4
370.129	1	11
370.300	1	7
370.471	1	18
370.641	1	4
370.812	1	4
370.983	1	-4
371.154	1	0
371.325	1	4
371.496	1	-7
371.667	1	2
371.837	1	0
372.008	1	-1
372.179	1	2
372.350	1	-1
372.521	1	1
372.692	1	0
372.863	1	2
373.033	1	6
373.204	1	5
373.375	1	5
373.546	1	9
373.717	1	-5
373.888	1	-6
374.059	1	10
374.229	1	3
374.400	1	0
374.571	1	10
374.742	1	-1
374.913	1	-3
375.084	1	2
375.254	1	11
375.425	1	-5
375.596	1	2
375.767	1	5
375.938	1	6
376.109	1	-9
376.279	1	-7
376.450	1	10
376.621	1	15
376.792	1	0
376.963	1	2
377.134	1	14
377.304	1	7
377.475	1	4
377.646	1	0
377.817	1	-10
377.988	1	0
378.159	1	-2
378.329	1	7
378.500	1	-2
378.671	1	-2
378.842	1	-1
379.013	1	5
379.184	1	15
379.354	1	-1
379.525	1	3
379.696	1	2
379.867	1	-2
380.038	1	-5
380.209	1	-12
380.379	1	-4
380.550	1	6
380.721	1	6
380.892	1	4
381.063	1	5
381.233	1	-13
381.404	1	-2
381.575	1	8
381.746	1	0
381.917	1	-3
382.087	1	-8
382.258	1	-6
382.429	1	8
382.600	1	3
382.771	1	-3
382.941	1	2
383.112	1	-1
383.283	1	6
383.454	1	-1
383.625	1	0
383.795	1	6
383.966	1	-7
384.137	1	8
384.308	1	6
384.479	1	1
384.649	1	0
384.820	1	4
384.991	1	-3
385.162	1	3
385.333	1	4
385.503	1	6
385.674	1	1
385.845	1	14
386.016	1	6
386.187	1	-11
386.357	1	2
386.528	1	-2
386.699	1	-2
386.870	1	11
387.041	1	-5
387.211	1	1
387.382	1	3
387.553	1	7
387.724	1	-6
387.894	1	1
388.065	1	-1
388.236	1	-2
388.407	1	-2
388.578	1	2
388.748	1	6
388.919	1	9
389.090	1	4
389.261	1	1
389.431	1	14
389.602	1	6
389.773	1	2
389.944	1	-4
390.114	1	2
390.285	1	-2
390.456	1	-3
390.627	1	4
390.798	1	4
390.968	1	-7
391.139	1	-3
391.310	1	0
391.481	1	-2
391.651	1	11
391.822	1	2
391.993	1	1
392.164	1	-11
392.334	1	5
392.505	1	-13
392.676	1	1
392.847	1	2
393.017	1	-3
393.188	1	8
393.359	1	4
393.530	1	13
393.700	1	5
393.871	1	-6
394.042	1	-13
394.213	1	4
394.383	1	3
394.554	1	-14
394.725	1	2
394.896	1	4
395.066	1	-1
395.237	1	1
395.408	1	5
395.579	1	1
395.749	1	0
395.920	1	3
396.091	1	-5
396.262	1	-4
396.432	1	-6
396.603	1	-5
396.774	1	-6
396.945	1	1
397.115	1	8
397.286	1	-3
397.457	1	13
397.627	1	0
397.798	1	-5
397.969	1	-5
398.140	1	0
398.310	1	5
398.481	1	-2
398.652	1	12
398.823	1	9
398.993	1	4
399.164	1	-16
399.335	1	-4
399.505	1	-1
399.676	1	-6
399.847	1	3
400.018	1	-7
400.188	1	-2
400.359	1	-1
400.530	1	-7
400.700	1	3
400.871	1	17
401.042	1	-14
401.213	1	-19
401.383	1	-1
401.554	1	0
401.725	1	12
401.895	1	6
402.066	1	8
402.237	1	0
402.408	1	3
402.578	1	-12
402.749	1	-3
402.920	1	-2
403.090	1	-3
403.261	1	3
403.432	1	4
403.603	1	1
403.773	1	9
403.944	1	-6
404.115	1	9
404.285	1	2
404.456	1	5
404.627	1	0
404.797	1	-8
404.968	1	9
405.139	1	-16
405.310	1	6
405.480	1	2
405.651	1	7
405.822	1	3
405.992	1	0
406.163	1	0
406.334	1	-7
406.504	1	0
406.675	1	0
406.846	1	1
407.016	1	3
407.187	1	8
407.358	1	9
407.528	1	-6
407.699	1	5
407.870	1	-11
408.041	1	-2
408.211	1	-9
408.382	1	-2
408.553	1	2
408.723	1	13
408.894	1	9
409.065	1	11
409.235	1	4
409.406	1	-7
409.577	1	2
409.747	1	-7
409.918	1	-7
410.089	1	5
410.259	1	5
410.430	1	8
410.601	1	0
410.771	1	7
410.942	1	13
411.113	1	-2
411.283	1	-2
411.454	1	-6
411.625	1	2
411.795	1	6
411.966	1	1
412.137	1	-8
412.307	1	8
412.478	1	3
412.649	1	-8
412.819	1	1
412.990	1	4
413.161	1	5
413.331	1	4
413.502	1	4
413.672	1	2
413.843	1	1
414.014	1	0
414.184	1	-1
414.355	1	5
414.526	1	-4
414.696	1	2
414.867	1	16
415.038	1	-7
415.208	1	14
415.379	1	2
415.550	1	7
415.720	1	-8
415.891	1	-1
416.062	1	7
416.232	1	-6
416.403	1	-5
416.573	1	3
416.744	1	2
416.915	1	2
417.085	1	10
417.256	1	-6
417.427	1	10
417.597	1	-4
417.768	1	-4
417.939	1	6
418.109	1	2
418.280	1	-7
418.450	1	2
418.621	1	1
418.792	1	-12
418.962	1	11
419.133	1	3
419.304	1	2
419.474	1	-2
419.645	1	12
419.815	1	0
419.986	1	-3
420.157	1	-4
420.327	1	3
420.498	1	-10
420.669	1	1
420.839	1	9
421.010	1	5
421.180	1	8
421.351	1	4
421.522	1	3
421.692	1	2
421.863	1	1
422.033	1	14
422.204	1	0
422.375	1	13
422.545	1	-4
422.716	1	2
422.886	1	0
423.057	1	-1
423.228	1	-6
423.398	1	-1
423.569	1	-4
423.740	1	-5
423.910	1	-7
424.081	1	3
424.251	1	-1
424.422	1	7
424.593	1	-6
424.763	1	9
424.934	1	-8
425.104	1	12
425.275	1	6
425.445	1	2
425.616	1	-1
425.787	1	-1
425.957	1	7
426.128	1	-14
426.298	1	-3
426.469	1	-12
426.640	1	15
426.810	1	-2
426.981	1	-7
427.151	1	6
427.322	1	8
427.493	1	-3
427.663	1	3
427.834	1	2
428.004	1	3
428.175	1	-2
428.345	1	-8
428.516	1	2
428.687	1	2
428.857	1	-4
429.028	1	-10
429.198	1	-5
429.369	1	-2
429.540	1	-3
429.710	1	-2
429.881	1	-5
430.051	1	3
430.222	1	-4
430.392	1	4
430.563	1	2
430.734	1	8
430.904	1	-6
431.075	1	6
431.245	1	2
431.416	1	-4
431.586	1	-5
431.757	1	5
431.927	1	7
432.098	1	7
432.269	1	-6
432.439	1	14
432.610	1	3
432.780	1	7
432.951	1	-1
433.121	1	-4
433.292	1	-3
433.462	1	-2
433.633	1	2
433.804	1	9
433.974	1	-5
434.145	1	2
434.315	1	4
434.486	1	9
434.656	1	-1
434.827	1	-9
434.997	1	2
435.168	1	4
435.339	1	4
435.509	1	6
435.680	1	-5
435.850	1	4
436.021	1	6
436.191	1	-6
436.362	1	-8
436.532	1	14
436.703	1	-6
436.873	1	4
437.044	1	5
437.214	1	12
437.385	1	12
437.556	1	0
437.726	1	-9
437.897	1	-7
438.067	1	-5
438.238	1	-9
438.408	1	2
438.579	1	4
438.749	1	6
438.920	1	4
439.090	1	9
439.261	1	1
439.431	1	-3
439.602	1	1
439.772	1	1
439.943	1	-5
440.113	1	-10
440.284	1	-1
440.455	1	8
440.625	1	12
440.796	1	3
440.966	1	-5
441.137	1	0
441.307	1	4
441.478	1	-4
441.648	1	2
441.819	1	-4
441.989	1	-3
442.160	1	-9
442.330	1	0
442.501	1	8
442.671	1	3
442.842	1	-9
443.012	1	0
443.183	1	6
443.353	1	2
443.524	1	-2
443.694	1	0
443.865	1	1
444.035	1	-2
444.206	1	-2
444.376	1	-2
444.547	1	0
444.717	1	1
444.888	1	6
445.058	1	12
445.229	1	-3
445.399	1	1
445.570	1	16
445.740	1	-3
445.911	1	-13
446.081	1	10
446.252	1	8
446.422	1	-1
446.593	1	-8
446.763	1	13
446.934	1	-8
447.104	1	2
447.275	1	-7
447.445	1	-6
447.616	1	-3
447.786	1	14
447.957	1	5
448.127	1	1
448.298	1	-12
448.468	1	-8
448.639	1	13
448.809	1	2
448.979	1	-10
449.150	1	-1
449.320	1	-6
449.491	1	-8
449.661	1	-3
449.832	1	5
450.002	1	-1
450.173	1	-1
450.343	1	7
450.514	1	7
450.684	1	1
450.855	1	3
451.025	1	-2
451.196	1	-13
451.366	1	4
451.537	1	3
451.707	1	2
451.878	1	-9
452.048	1	4
452.218	1	-1
452.389	1	12
452.559	1	1
452.730	1	-12
452.900	1	-3
453.071	1	-11
453.241	1	-12
453.412	1	-12
453.582	1	3
453.753	1	-8
453.923	1	6
454.093	1	11
454.264	1	9
454.434	1	1
454.605	1	-5
454.775	1	-4
454.946	1	-1
455.116	1	-6
455.287	1	6
455.457	1	9
455.628	1	1
455.798	1	-2
455.968	1	2
456.139	1	-3
456.309	1	6
456.480	1	-2
456.650	1	-8
456.821	1	9
456.991	1	0
457.161	1	4
457.332	1	15
457.502	1	0
457.673	1	6
457.843	1	-3
458.014	1	3
458.184	1	-1
458.355	1	-3
458.525	1	-4
458.695	1	4
458.866	1	-1
459.036	1	11
459.207	1	4
459.377	1	3
459.548	1	-3
459.718	1	2
459.888	1	3
460.059	1	14
460.229	1	3
460.400	1	6
460.570	1	8
460.740	1	5
460.911	1	4
461.081	1	-3
461.252	1	4
461.422	1	-10
461.593	1	7
461.763	1	9
461.933	1	0
462.104	1	3
462.274	1	-1
462.445	1	1
462.615	1	-1
462.785	1	1
462.956	1	-7
463.126	1	3
463.297	1	13
463.467	1	-3
463.638	1	4
463.808	1	-1
463.978	1	-8
464.149	1	4
464.319	1	6
464.490	1	5
464.660	1	8
464.830	1	6
465.001	1	-7
465.171	1	6
465.342	1	3
465.512	1	9
465.682	1	0
465.853	1	-1
466.023	1	15
466.194	1	-7
466.364	1	6
466.534	1	-2
466.705	1	-1
466.875	1	17
467.045	1	15
467.216	1	-8
467.386	1	-4
467.557	1	10
467.727	1	3
467.897	1	5
468.068	1	0
468.238	1	9
468.409	1	0
468.579	1	6
468.749	1	1
468.920	1	-1
469.090	1	-12
469.260	1	10
469.431	1	-4
469.601	1	-4
469.772	1	-4
469.942	1	9
470.112	1	6
470.283	1	2
470.453	1	6
470.623	1	2
470.794	1	-1
470.964	1	4
471.135	1	0
471.305	1	2
471.475	1	6
471.646	1	6
471.816	1	-2
471.986	1	2
472.157	1	-17
472.327	1	8
472.497	1	4
472.668	1	2
472.838	1	8
473.009	1	2
473.179	1	8
473.349	1	-1
473.520	1	-6
473.690	1	-2
473.860	1	-2
474.031	1	-5
474.201	1	7
474.371	1	4
474.542	1	8
474.712	1	-8
474.882	1	3
475.053	1	-8
475.223	1	0
475.394	1	-6
475.564	1	-1
475.734	1	-1
475.905	1	6
476.075	1	-4
476.245	1	7
476.416	1	2
476.586	1	0
476.756	1	-3
476.927	1	1
477.097	1	4
477.267	1	4
477.438	1	1
477.608	1	-3
477.778	1	2
477.949	1	8
478.119	1	-6
478.289	1	0
478.460	1	3
478.630	1	18
478.800	1	11
478.971	1	-5
479.141	1	-9
479.311	1	-4
479.482	1	-14
479.652	1	5
479.822	1	-14
479.993	1	7
480.163	1	4
480.333	1	15
480.504	1	3
480.674	1	-11
480.844	1	6
481.015	1	-5
481.185	1	-3
481.355	1	-4
481.525	1	-15
481.696	1	-3
481.866	1	2
482.036	1	-2
482.207	1	0
482.377	1	-2
482.547	1	0
482.718	1	2
482.888	1	-16
483.058	1	-1
483.229	1	0
483.399	1	-2
483.569	1	-13
483.740	1	10
483.910	1	14
484.080	1	17
484.250	1	-3
484.421	1	13
484.591	1	4
484.761	1	0
484.932	1	3
485.102	1	-10
485.272	1	3
485.443	1	1
485.613	1	-3
485.783	1	1
485.953	1	-2
486.124	1	-2
486.294	1	-2
486.464	1	0
486.635	1	-2
486.805	1	2
486.975	1	1
487.146	1	9
487.316	1	-7
487.486	1	2
487.656	1	10
487.827	1	8
487.997	1	2
488.167	1	4
488.338	1	3
488.508	1	2
488.678	1	-5
488.848	1	3
489.019	1	2
489.189	1	3
489.359	1	4
489.529	1	-6
489.700	1	-4
489.870	1	-9
490.040	1	-8
490.211	1	-7
490.381	1	16
490.551	1	0
490.721	1	1
490.892	1	12
491.062	1	-4
491.232	1	12
491.402	1	-6
491.573	1	-4
491.743	1	-6
491.913	1	4
492.084	1	-2
492.254	1	14
492.424	1	-1
492.594	1	7
492.765	1	4
492.935	1	-6
493.105	1	-3
493.275	1	1
493.446	1	8
493.616	1	-6
493.786	1	2
493.956	1	2
494.127	1	0
494.297	1	6
494.467	1	7
494.637	1	6
494.808	1	1
494.978	1	-6
495.148	1	7
495.318	1	-3
495.489	1	0
495.659	1	7
495.829	1	2
495.999	1	-2
496.170	1	-3
496.340	1	1
496.510	1	14
496.680	1	4
496.851	1	8
497.021	1	6
497.191	1	-3
497.361	1	8
497.532	1	5
497.702	1	5
497.872	1	4
498.042	1	17
498.213	1	-5
498.383	1	12
498.553	1	1
498.723	1	1
498.894	1	3
499.064	1	-11
499.234	1	7
499.404	1	-2
499.574	1	4
499.745	1	-2
499.915	1	-9
500.085	1	-2
500.255	1	4
500.426	1	-4
500.596	1	4
500.766	1	6
500.936	1	-1
501.106	1	8
501.277	1	2
501.447	1	-3
501.617	1	-7
501.787	1	8
501.958	1	-10
502.128	1	4
502.298	1	7
502.468	1	-2
502.638	1	12
502.809	1	9
502.979	1	0
503.149	1	-1
503.319	1	4
503.489	1	1
503.660	1	5
503.830	1	-5
504.000	1	10
504.170	1	2
504.340	1	-2
504.511	1	2
504.681	1	-1
504.851	1	-3
505.021	1	6
505.192	1	1
505.362	1	1
505.532	1	12
505.702	1	4
505.872	1	13
506.043	1	-4
506.213	1	0
506.383	1	-4
506.553	1	12
506.723	1	-10
506.893	1	-8
507.064	1	5
507.234	1	7
507.404	1	10
507.574	1	-3
507.744	1	-14
507.915	1	-3
508.085	1	2
508.255	1	-5
508.425	1	-4
508.595	1	-16
508.766	1	12
508.936	1	-1
509.106	1	0
509.276	1	9
509.446	1	-5
509.616	1	9
509.787	1	3
509.957	1	4
510.127	1	2
510.297	1	0
510.467	1	-7
510.638	1	-2
510.808	1	-6
510.978	1	0
511.148	1	0
511.318	1	17
511.488	1	-7
511.659	1	-6
511.829	1	-6
511.999	1	3
512.169	1	-9
512.339	1	-2
512.509	1	6
512.680	1	-6
512.850	1	-4
513.020	1	1
513.190	1	5
513.360	1	3
513.530	1	6
513.700	1	9
513.871	1	15
514.041	1	-2
514.211	1	12
514.381	1	-4
514.551	1	4
514.721	1	4
514.892	1	10
515.062	1	-3
515.232	1	1
515.402	1	2
515.572	1	1
515.742	1	-3
515.912	1	10
516.083	1	4
516.253	1	4
516.423	1	-1
516.593	1	3
516.763	1	3
516.933	1	-5
517.104	1	-2
517.274	1	-1
517.444	1	2
517.614	1	-2
517.784	1	6
517.954	1	1
518.124	1	-1
518.294	1	3
518.465	1	-6
518.635	1	-9
518.805	1	-4
518.975	1	2
519.145	1	-1
519.315	1	6
519.485	1	-5
519.656	1	-1
519.826	1	16
519.996	1	0
520.166	1	-4
520.336	1	8
520.506	1	1
520.676	1	1
520.846	1	3
521.017	1	-3
521.187	1	0
521.357	1	3
521.527	1	-1
521.697	1	-6
521.867	1	-8
522.037	1	1
522.207	1	11
522.377	1	-5
522.548	1	1
522.718	1	2
522.888	1	-2
523.058	1	-1
523.228	1	9
523.398	1	-8
523.568	1	-3
523.738	1	0
523.909	1	2
524.079	1	7
524.249	1	-1
524.419	1	2
524.589	1	6
524.759	1	-4
524.929	1	-7
525.099	1	9
525.269	1	-1
525.439	1	-2
525.610	1	11
525.780	1	7
525.950	1	4
526.120	1	5
526.290	1	5
526.460	1	7
526.630	1	1
526.800	1	-9
526.970	1	-7
527.140	1	7
527.311	1	-7
527.481	1	3
527.651	1	6
527.821	1	1
527.991	1	8
528.161	1	0
528.331	1	-9
528.501	1	4
528.671	1	10
528.841	1	1
529.011	1	-9
529.181	1	13
529.352	1	6
529.522	1	-2
529.692	1	-4
529.862	1	0
530.032	1	-2
530.202	1	11
530.372	1	-1
530.542	1	6
530.712	1	-13
530.882	1	-2
531.052	1	1
531.222	1	-2
531.392	1	-5
531.563	1	9
531.733	1	-3
531.903	1	5
532.073	1	-2
532.243	1	10
532.413	1	8
532.583	1	-12
532.753	1	-1
532.923	1	1
533.093	1	-4
533.263	1	-5
533.433	1	3
533.603	1	5
533.773	1	2
533.943	1	6
534.113	1	5
534.284	1	5
534.454	1	4
534.624	1	-5
534.794	1	7
534.964	1	-6
535.134	1	-5
535.304	1	3
535.474	1	-9
535.644	1	10
535.814	1	-4
535.984	1	-8
536.154	1	8
536.324	1	-3
536.494	1	12
536.664	1	-1
536.834	1	5
537.004	1	1
537.174	1	7
537.344	1	5
537.514	1	3
537.685	1	2
537.855	1	2
538.025	1	-3
538.195	1	-5
538.365	1	8
538.535	1	11
538.705	1	-5
538.875	1	12
539.045	1	-2
539.215	1	15
539.385	1	2
539.555	1	-4
539.725	1	-3
539.895	1	-2
540.065	1	5
540.235	1	-8
540.405	1	11
540.575	1	5
540.745	1	4
540.915	1	-4
541.085	1	2
541.255	1	2
541.425	1	-5
541.595	1	-11
541.765	1	-1
541.935	1	6
542.105	1	0
542.275	1	-3
542.445	1	1
542.615	1	2
542.785	1	5
542.955	1	2
543.125	1	-4
543.295	1	14
543.465	1	-5
543.635	1	-11
543.805	1	3
543.975	1	9
544.145	1	-5
544.315	1	-2
544.485	1	6
544.655	1	4
544.825	1	-4
544.995	1	6
545.165	1	11
545.335	1	-6
545.505	1	1
545.675	1	6
545.845	1	-9
546.015	1	-2
546.185	1	0
546.355	1	3
546.525	1	-11
546.695	1	1
546.865	1	-11
547.035	1	0
547.205	1	-4
547.375	1	3
547.545	1	1
547.715	1	8
547.885	1	4
548.055	1	5
548.225	1	0
548.395	1	5
548.565	1	-1
548.735	1	3
548.905	1	-5
549.075	1	5
549.245	1	4
549.415	1	13
549.585	1	5
549.755	1	-2
549.925	1	-2
550.095	1	4
550.265	1	0
550.435	1	0
550.605	1	-1
550.775	1	5
550.945	1	-2
551.115	1	1
551.285	1	-1
551.455	1	3
551.625	1	5
551.795	1	6
551.965	1	-3
552.135	1	-10
552.305	1	-4
552.475	1	10
552.645	1	9
552.815	1	-1
552.985	1	-6
553.155	1	-3
553.325	1	4
553.495	1	-6
553.665	1	0
553.835	1	-3
554.004	1	-5
554.174	1	-4
554.344	1	3
554.514	1	11
554.684	1	-2
554.854	1	-3
555.024	1	12
555.194	1	16
555.364	1	-4
555.534	1	1
555.704	1	-5
555.874	1	-6
556.044	1	1
556.214	1	-13
556.384	1	1
556.554	1	-1
556.724	1	-2
556.894	1	7
557.064	1	-7
557.234	1	2
557.404	1	10
557.573	1	-7
557.743	1	3
557.913	1	-4
558.083	1	-7
558.253	1	2
558.423	1	1
558.593	1	1
558.763	1	6
558.933	1	-1
559.103	1	-7
559.273	1	4
559.443	1	-2
559.613	1	-6
559.783	1	1
559.953	1	-4
560.122	1	-4
560.292	1	4
560.462	1	0
560.632	1	-3
560.802	1	-3
560.972	1	-2
561.142	1	9
561.312	1	8
561.482	1	-4
561.652	1	7
561.822	1	2
561.992	1	3
562.162	1	-1
562.331	1	-11
562.501	1	-7
562.671	1	1
562.841	1	-4
563.011	1	15
563.181	1	15
563.351	1	-10
563.521	1	-3
563.691	1	-6
563.861	1	7
564.031	1	-1
564.201	1	-4
564.370	1	4
564.540	1	3
564.710	1	5
564.880	1	16
565.050	1	-2
565.220	1	1
565.390	1	2
565.560	1	6
565.730	1	10
565.900	1	-12
566.069	1	14
566.239	1	-6
566.409	1	-2
566.579	1	4
566.749	1	8
566.919	1	-10
567.089	1	0
567.259	1	5
567.429	1	7
567.599	1	-9
567.768	1	1
567.938	1	-4
568.108	1	-1
568.278	1	-2
568.448	1	5
568.618	1	4
568.788	1	7
568.958	1	11
569.128	1	5
569.297	1	1
569.467	1	-2
569.637	1	-3
569.807	1	6
569.977	1	-4
570.147	1	4
570.317	1	6
570.487	1	2
570.656	1	-5
570.826	1	7
570.996	1	3
571.166	1	-3
571.336	1	11
571.506	1	-7
571.676	1	7
571.846	1	-6
572.015	1	7
572.185	1	6
572.355	1	-3
572.525	1	0
572.695	1	5
572.865	1	-2
573.035	1	0
573.205	1	-12
573.374	1	-3
573.544	1	-3
573.714	1	3
573.884	1	15
574.054	1	9
574.224	1	-1
574.394	1	-3
574.563	1	0
574.733	1	-5
574.903	1	1
575.073	1	0
575.243	1	3
575.413	1	7
575.583	1	3
575.752	1	-3
575.922	1	-1
576.092	1	-3
576.262	1	7
576.432	1	3
576.602	1	-12
576.772	1	-2
576.941	1	8
577.111	1	6
577.281	1	9
577.451	1	13
577.621	1	-3
577.791	1	-10
577.960	1	4
578.130	1	1
578.300	1	6
578.470	1	5
578.640	1	8
578.810	1	10
578.979	1	3
579.149	1	-7
579.319	1	-6
579.489	1	-1
579.659	1	-1
579.829	1	3
579.998	1	2
580.168	1	-2
580.338	1	-2
580.508	1	-1
580.678	1	-8
580.848	1	-4
581.017	1	18
581.187	1	1
581.357	1	-7
581.527	1	1
581.697	1	5
581.867	1	-5
582.036	1	0
582.206	1	-4
582.376	1	-10
582.546	1	-4
582.716	1	-5
582.885	1	2
583.055	1	3
583.225	1	-3
583.395	1	4
583.565	1	8
583.735	1	-1
583.904	1	-5
584.074	1	4
584.244	1	4
584.414	1	6
584.584	1	-11
584.753	1	6
584.923	1	3
585.093	1	-8
585.263	1	3
585.433	1	10
585.602	1	-5
585.772	1	5
585.942	1	4
586.112	1	4
586.282	1	2
586.451	1	-3
586.621	1	7
586.791	1	1
586.961	1	3
587.131	1	0
587.300	1	-11
587.470	1	-5
587.640	1	-2
587.810	1	-3
587.980	1	3
588.149	1	5
588.319	1	-6
588.489	1	5
588.659	1	-5
588.829	1	-3
588.998	1	8
589.168	1	-9
589.338	1	3
589.508	1	4
589.677	1	1
589.847	1	-1
590.017	1	3
590.187	1	-9
590.357	1	0
590.526	1	10
590.696	1	0
590.866	1	2
591.036	1	-4
591.205	1	0
591.375	1	-1
591.545	1	2
591.715	1	2
591.885	1	3
592.054	1	2
592.224	1	5
592.394	1	5
592.564	1	-2
592.733	1	9
592.903	1	8
593.073	1	2
593.243	1	9
593.412	1	-4
593.582	1	9
593.752	1	0
593.922	1	-5
594.091	1	6
594.261	1	-6
594.431	1	1
594.601	1	-1
594.771	1	-10
594.940	1	4
595.110	1	10
595.280	1	6
595.450	1	2
595.619	1	-3
595.789	1	5
595.959	1	-4
596.129	1	4
596.298	1	6
596.468	1	-1
596.638	1	8
596.808	1	3
596.977	1	14
597.147	1	2
597.317	1	-12
597.487	1	-6
597.656	1	2
597.826	1	-7
597.996	1	1
598.166	1	7
598.335	1	10
598.505	1	3
598.675	1	-1
598.844	1	-1
599.014	1	5
599.184	1	8
599.354	1	-2
599.523	1	0
599.693	1	11
599.863	1	-1
600.033	1	-3
600.202	1	-10
600.372	1	1
600.542	1	7
600.712	1	3
600.881	1	-2
601.051	1	-2
601.221	1	-2
601.390	1	11
601.560	1	0
601.730	1	4
601.900	1	0
602.069	1	3
602.239	1	-14
602.409	1	11
602.578	1	3
602.748	1	12
602.918	1	-8
603.088	1	2
603.257	1	2
603.427	1	-1
603.597	1	-5
603.767	1	4
603.936	1	10
604.106	1	1
604.276	1	-5
604.445	1	2
604.615	1	2
604.785	1	0
604.954	1	4
605.124	1	-5
605.294	1	-1
605.464	1	16
605.633	1	1
605.803	1	-2
605.973	1	-1
606.142	1	4
606.312	1	3
606.482	1	3
606.652	1	15
606.821	1	6
606.991	1	6
607.161	1	10
607.330	1	-15
607.500	1	-1
607.670	1	0
607.839	1	1
608.009	1	-8
608.179	1	5
608.348	1	12
608.518	1	6
608.688	1	8
608.858	1	-6
609.027	1	6
609.197	1	-3
609.367	1	1
609.536	1	-4
609.706	1	-7
609.876	1	-4
610.045	1	7
610.215	1	-1
610.385	1	12
610.554	1	-5
610.724	1	9
610.894	1	5
611.063	1	-4
611.233	1	-5
611.403	1	-3
611.572	1	6
611.742	1	-7
611.912	1	1
612.081	1	0
612.251	1	6
612.421	1	-1
612.590	1	-3
612.760	1	-8
612.930	1	-3
613.099	1	13
613.269	1	2
613.439	1	6
613.608	1	13
613.778	1	-6
613.948	1	-3
614.117	1	1
614.287	1	-8
614.457	1	-11
614.626	1	-15
614.796	1	-3
614.966	1	-2
615.135	1	-9
615.305	1	-5
615.475	1	10
615.644	1	-2
615.814	1	-9
615.984	1	0
616.153	1	0
616.323	1	-4
616.493	1	6
616.662	1	-2
616.832	1	2
617.002	1	3
617.171	1	-6
617.341	1	-2
617.511	1	-2
617.680	1	4
617.850	1	4
618.019	1	8
618.189	1	3
618.359	1	5
618.528	1	4
618.698	1	-6
618.868	1	7
619.037	1	2
619.207	1	0
619.377	1	3
619.546	1	-4
619.716	1	-1
619.885	1	18
620.055	1	-6
620.225	1	6
620.394	1	-3
620.564	1	4
620.734	1	-8
620.903	1	0
621.073	1	-2
621.242	1	-8
621.412	1	1
621.582	1	-9
621.751	1	-1
621.921	1	4
622.091	1	-4
622.260	1	-4
622.430	1	5
622.599	1	7
622.769	1	-5
622.939	1	4
623.108	1	4
623.278	1	-1
623.448	1	-9
623.617	1	2
623.787	1	-2
623.956	1	-4
624.126	1	9
624.296	1	3
624.465	1	-12
624.635	1	-4
624.804	1	9
624.974	1	0
625.144	1	1
625.313	1	-9
625.483	1	0
625.652	1	-7
625.822	1	-9
625.992	1	4
626.161	1	-3
626.331	1	-2
626.501	1	1
626.670	1	-9
626.840	1	0
627.009	1	4
627.179	1	4
627.348	1	-1
627.518	1	12
627.688	1	0
627.857	1	-7
628.027	1	-1
628.196	1	6
628.366	1	-12
628.536	1	-2
628.705	1	4
628.875	1	3
629.044	1	1
629.214	1	1
629.384	1	-3
629.553	1	-1
629.723	1	0
629.892	1	3
630.062	1	5
630.232	1	-6
630.401	1	5
630.571	1	1
630.740	1	3
630.910	1	3
631.079	1	5
631.249	1	0
631.419	1	6
631.588	1	-12
631.758	1	-3
631.927	1	-8
632.097	1	6
632.266	1	-4
632.436	1	-6
632.606	1	3
632.775	1	0
632.945	1	1
633.114	1	-5
633.284	1	-4
633.453	1	-2
633.623	1	1
633.793	1	9
633.962	1	-7
634.132	1	7
634.301	1	-4
634.471	1	0
634.640	1	15
634.810	1	7
634.979	1	2
635.149	1	1
635.319	1	7
635.488	1	-7
635.658	1	-5
635.827	1	8
635.997	1	3
636.166	1	9
636.336	1	-5
636.505	1	13
636.675	1	-11
636.845	1	2
637.014	1	4
637.184	1	0
637.353	1	8
637.523	1	-4
637.692	1	5
637.862	1	-11
638.031	1	-6
638.201	1	13
638.370	1	1
638.540	1	-1
638.710	1	9
638.879	1	0
639.049	1	8
639.218	1	2
639.388	1	9
639.557	1	2
639.727	1	-11
639.896	1	2
640.066	1	0
640.235	1	-1
640.405	1	-1
640.574	1	10
640.744	1	0
640.914	1	2
641.083	1	-5
641.253	1	-11
641.422	1	3
641.592	1	-4
641.761	1	10
641.931	1	2
642.100	1	-9
642.270	1	5
642.439	1	-6
642.609	1	-4
642.778	1	2
642.948	1	6
643.117	1	-2
643.287	1	-6
643.456	1	-6
643.626	1	3
643.795	1	2
643.965	1	-4
644.134	1	3
644.304	1	4
644.473	1	-3
644.643	1	-6
644.812	1	-2
644.982	1	5
645.151	1	-4
645.321	1	1
645.490	1	4
645.660	1	0
645.829	1	-8
645.999	1	14
646.168	1	7
646.338	1	-6
646.507	1	-5
646.677	1	10
646.846	1	2
647.016	1	-5
647.185	1	0
647.355	1	2
647.524	1	-12
647.694	1	5
647.863	1	-3
648.033	1	7
648.202	1	-4
648.372	1	-1
648.541	1	2
648.711	1	-4
648.880	1	10
649.050	1	1
649.219	1	-8
649.389	1	3
649.558	1	1
649.728	1	-1
649.897	1	1
650.067	1	-6
650.236	1	10
650.406	1	-11
650.575	1	-2
650.745	1	-3
650.914	1	5
651.084	1	-10
651.253	1	-1
651.423	1	-8
651.592	1	-2
651.762	1	6
651.931	1	7
652.101	1	-1
652.270	1	-1
652.440	1	-3
652.609	1	2
652.778	1	3
652.948	1	-9
653.117	1	16
653.287	1	-6
653.456	1	8
653.626	1	10
653.795	1	6
653.965	1	19
654.134	1	-7
654.304	1	1
654.473	1	4
654.643	1	8
654.812	1	4
654.982	1	13
655.151	1	5
655.320	1	2
655.490	1	-10
655.659	1	-3
655.829	1	-6
655.998	1	7
656.168	1	-5
656.337	1	7
656.507	1	-2
656.676	1	-2
656.846	1	1
657.015	1	9
657.184	1	-6
657.354	1	-5
657.523	1	2
657.693	1	3
657.862	1	1
658.032	1	-3
658.201	1	0
658.371	1	-3
658.540	1	8
658.709	1	11
658.879	1	-10
659.048	1	1
659.218	1	-2
659.387	1	4
659.557	1	1
659.726	1	8
659.895	1	-3
660.065	1	-5
660.234	1	8
660.404	1	17
660.573	1	7
660.743	1	9
660.912	1	6
661.081	1	0
661.251	1	-2
661.420	1	4
661.590	1	1
661.759	1	-3
661.929	1	10
662.098	1	4
662.267	1	14
662.437	1	7
662.606	1	5
662.776	1	4
662.945	1	13
663.115	1	-10
663.284	1	-1
663.453	1	3
663.623	1	1
663.792	1	2
663.962	1	0
664.131	1	-6
664.300	1	3
664.470	1	-8
664.639	1	-1
664.809	1	-2
664.978	1	15
665.148	1	1
665.317	1	0
665.486	1	-5
665.656	1	-8
665.825	1	-3
665.995	1	4
666.164	1	6
666.333	1	-1
666.503	1	14
666.672	1	3
666.842	1	-6
667.011	1	-3
667.180	1	3
667.350	1	4
667.519	1	-10
667.689	1	16
667.858	1	10
668.027	1	-3
668.197	1	5
668.366	1	11
668.536	1	-6
668.705	1	7
668.874	1	5
669.044	1	-6
669.213	1	3
669.382	1	6
669.552	1	-3
669.721	1	-1
669.891	1	-13
670.060	1	-1
670.229	1	10
670.399	1	2
670.568	1	10
670.738	1	-5
670.907	1	4
671.076	1	-1
671.246	1	-4
671.415	1	-1
671.584	1	-4
671.754	1	2
671.923	1	-1
672.093	1	0
672.262	1	-1
672.431	1	10
672.601	1	0
672.770	1	-7
672.939	1	-2
673.109	1	-6
673.278	1	14
673.448	1	0
673.617	1	0
673.786	1	-10
