325.333	1	5
325.504	1	12
325.675	1	8
325.846	1	13
326.017	1	11
326.188	1	19
326.359	1	22
326.531	1	3
326.702	1	22
326.873	1	17
327.044	1	20
327.215	1	8
327.386	1	10
327.557	1	26
327.728	1	-2
327.899	1	19
328.070	1	12
328.241	1	22
328.412	1	8
328.583	1	-3
328.754	1	11
328.926	1	24
329.097	1	12
329.268	1	14
329.439	1	10
329.610	1	19
329.781	1	23
329.952	1	17
330.123	1	11
330.294	1	9
330.465	1	20
330.636	1	15
330.807	1	14
330.978	1	24
331.149	1	18
331.320	1	9
331.492	1	21
331.663	1	15
331.834	1	21
332.005	1	8
332.176	1	18
332.347	1	21
332.518	1	3
332.689	1	25
332.860	1	14
333.031	1	25
333.202	1	18
333.373	1	15
333.544	1	13
333.715	1	18
333.886	1	14
334.057	1	20
334.228	1	18
334.399	1	9
334.570	1	21
334.741	1	21
334.912	1	21
335.084	1	14
335.255	1	12
335.426	1	11
335.597	1	19
335.768	1	7
335.939	1	17
336.110	1	9
336.281	1	9
336.452	1	27
336.623	1	18
336.794	1	9
336.965	1	21
337.136	1	20
337.307	1	19
337.478	1	10
337.649	1	13
337.820	1	7
337.991	1	30
338.162	1	17
338.333	1	13
338.504	1	8
338.675	1	23
338.846	1	15
339.017	1	17
339.188	1	13
339.359	1	20
339.530	1	20
339.701	1	18
339.872	1	17
340.043	1	22
340.214	1	23
340.385	1	31
340.556	1	25
340.727	1	10
340.898	1	26
341.069	1	18
341.240	1	29
341.411	1	25
341.582	1	26
341.753	1	17
341.924	1	30
342.095	1	21
342.266	1	23
342.437	1	26
342.608	1	18
342.779	1	26
342.950	1	15
343.121	1	22
343.292	1	35
343.463	1	26
343.634	1	37
343.805	1	24
343.976	1	16
344.147	1	32
344.318	1	21
344.489	1	26
344.660	1	31
344.831	1	16
345.002	1	10
345.173	1	35
345.344	1	10
345.515	1	30
345.686	1	30
345.857	1	24
346.028	1	35
346.199	1	32
346.370	1	23
346.541	1	34
346.712	1	27
346.883	1	23
347.054	1	18
347.225	1	31
347.396	1	28
347.567	1	28
347.738	1	33
347.909	1	22
348.080	1	28
348.251	1	25
348.422	1	31
348.593	1	23
348.764	1	32
348.935	1	34
349.106	1	20
349.277	1	49
349.448	1	28
349.619	1	26
349.790	1	39
349.961	1	30
350.132	1	24
350.303	1	28
350.474	1	33
350.645	1	18
350.816	1	28
350.987	1	37
351.157	1	19
351.328	1	36
351.499	1	34
351.670	1	31
351.841	1	29
352.012	1	32
352.183	1	20
352.354	1	44
352.525	1	37
352.696	1	35
352.867	1	27
353.038	1	36
353.209	1	52
353.380	1	38
353.551	1	45
353.722	1	37
353.893	1	37
354.064	1	32
354.235	1	28
354.406	1	25
354.576	1	38
354.747	1	38
354.918	1	29
355.089	1	34
355.260	1	39
355.431	1	31
355.602	1	45
355.773	1	47
355.944	1	28
356.115	1	29
356.286	1	36
356.457	1	42
356.628	1	46
356.799	1	31
356.970	1	35
357.141	1	47
357.311	1	43
357.482	1	32
357.653	1	32
357.824	1	48
357.995	1	40
358.166	1	39
358.337	1	35
358.508	1	39
358.679	1	39
358.850	1	36
359.021	1	39
359.192	1	34
359.363	1	41
359.533	1	31
359.704	1	43
359.875	1	44
360.046	1	38
360.217	1	36
360.388	1	48
360.559	1	51
360.730	1	39
360.901	1	40
361.072	1	36
361.243	1	33
361.414	1	40
361.584	1	39
361.755	1	37
361.926	1	32
362.097	1	40
362.268	1	46
362.439	1	39
362.610	1	40
362.781	1	45
362.952	1	47
363.123	1	51
363.293	1	48
363.464	1	28
363.635	1	40
363.806	1	46
363.977	1	43
364.148	1	35
364.319	1	34
364.490	1	45
364.661	1	32
364.832	1	50
365.002	1	59
365.173	1	38
365.344	1	37
365.515	1	46
365.686	1	53
365.857	1	45
366.028	1	43
366.199	1	32
366.370	1	57
366.540	1	42
366.711	1	53
366.882	1	34
367.053	1	47
367.224	1	35
367.395	1	51
367.566	1	38
367.737	1	43
367.908	1	45
368.078	1	59
368.249	1	35
368.420	1	44
368.591	1	57
368.762	1	45
368.933	1	41
369.104	1	34
369.274	1	40
369.445	1	41
369.616	1	44
369.787	1	38
369.958	1	47
370.129	1	48
370.300	1	44
370.471	1	55
370.641	1	36
370.812	1	46
370.983	1	35
371.154	1	53
371.325	1	54
371.496	1	39
371.667	1	45
371.837	1	50
372.008	1	44
372.179	1	53
372.350	1	45
372.521	1	43
372.692	1	38
372.863	1	43
373.033	1	54
373.204	1	43
373.375	1	46
373.546	1	56
373.717	1	39
373.888	1	40
374.059	1	66
374.229	1	49
374.400	1	39
374.571	1	50
374.742	1	46
374.913	1	37
375.084	1	50
375.254	1	52
375.425	1	36
375.596	1	48
375.767	1	46
375.938	1	47
376.109	1	43
376.279	1	42
376.450	1	50
376.621	1	54
376.792	1	51
376.963	1	45
377.134	1	65
377.304	1	48
377.475	1	48
377.646	1	50
377.817	1	26
377.988	1	47
378.159	1	45
378.329	1	46
378.500	1	46
378.671	1	50
378.842	1	47
379.013	1	56
379.184	1	55
379.354	1	36
379.525	1	46
379.696	1	49
379.867	1	46
380.038	1	41
380.209	1	48
380.379	1	63
380.550	1	51
380.721	1	56
380.892	1	52
381.063	1	60
381.233	1	43
381.404	1	55
381.575	1	56
381.746	1	56
381.917	1	37
382.087	1	54
382.258	1	53
382.429	1	56
382.600	1	55
382.771	1	62
382.941	1	52
383.112	1	61
383.283	1	53
383.454	1	52
383.625	1	50
383.795	1	59
383.966	1	56
384.137	1	50
384.308	1	72
384.479	1	56
384.649	1	59
384.820	1	56
384.991	1	55
385.162	1	58
385.333	1	59
385.503	1	49
385.674	1	53
385.845	1	61
386.016	1	52
386.187	1	50
386.357	1	58
386.528	1	54
386.699	1	53
386.870	1	66
387.041	1	47
387.211	1	51
387.382	1	50
387.553	1	58
387.724	1	50
387.894	1	48
388.065	1	52
388.236	1	51
388.407	1	65
388.578	1	47
388.748	1	55
388.919	1	57
389.090	1	55
389.261	1	66
389.431	1	66
389.602	1	71
389.773	1	64
389.944	1	60
390.114	1	61
390.285	1	50
390.456	1	55
390.627	1	51
390.798	1	62
390.968	1	53
391.139	1	51
391.310	1	66
391.481	1	47
391.651	1	74
391.822	1	58
391.993	1	63
392.164	1	45
392.334	1	69
392.505	1	52
392.676	1	58
392.847	1	54
393.017	1	81
393.188	1	62
393.359	1	70
393.530	1	62
393.700	1	70
393.871	1	62
394.042	1	60
394.213	1	66
394.383	1	58
394.554	1	59
394.725	1	67
394.896	1	53
395.066	1	62
395.237	1	58
395.408	1	66
395.579	1	68
395.749	1	64
395.920	1	61
396.091	1	56
396.262	1	68
396.432	1	64
396.603	1	45
396.774	1	58
396.945	1	64
397.115	1	68
397.286	1	55
397.457	1	66
397.627	1	66
397.798	1	55
397.969	1	58
398.140	1	67
398.310	1	59
398.481	1	57
398.652	1	73
398.823	1	60
398.993	1	67
399.164	1	60
399.335	1	44
399.505	1	61
399.676	1	60
399.847	1	60
400.018	1	64
400.188	1	65
400.359	1	56
400.530	1	71
400.700	1	67
400.871	1	70
401.042	1	58
401.213	1	52
401.383	1	59
401.554	1	69
401.725	1	63
401.895	1	67
402.066	1	53
402.237	1	63
402.408	1	62
402.578	1	72
402.749	1	62
402.920	1	61
403.090	1	63
403.261	1	73
403.432	1	59
403.603	1	71
403.773	1	75
403.944	1	65
404.115	1	67
404.285	1	57
404.456	1	65
404.627	1	62
404.797	1	66
404.968	1	82
405.139	1	60
405.310	1	68
405.480	1	63
405.651	1	82
405.822	1	76
405.992	1	58
406.163	1	70
406.334	1	64
406.504	1	67
406.675	1	68
406.846	1	63
407.016	1	61
407.187	1	72
407.358	1	70
407.528	1	63
407.699	1	71
407.870	1	62
408.041	1	70
408.211	1	62
408.382	1	65
408.553	1	68
408.723	1	70
408.894	1	66
409.065	1	70
409.235	1	72
409.406	1	68
409.577	1	67
409.747	1	57
409.918	1	55
410.089	1	81
410.259	1	75
410.430	1	56
410.601	1	76
410.771	1	64
410.942	1	73
411.113	1	57
411.283	1	67
411.454	1	60
411.625	1	69
411.795	1	71
411.966	1	65
412.137	1	71
412.307	1	79
412.478	1	66
412.649	1	66
412.819	1	62
412.990	1	60
413.161	1	63
413.331	1	72
413.502	1	65
413.672	1	75
413.843	1	65
414.014	1	76
414.184	1	69
414.355	1	78
414.526	1	70
414.696	1	72
414.867	1	71
415.038	1	77
415.208	1	78
415.379	1	66
415.550	1	81
415.720	1	63
415.891	1	66
416.062	1	69
416.232	1	62
416.403	1	70
416.573	1	69
416.744	1	62
416.915	1	73
417.085	1	74
417.256	1	68
417.427	1	69
417.597	1	61
417.768	1	73
417.939	1	61
418.109	1	63
418.280	1	61
418.450	1	77
418.621	1	53
418.792	1	64
418.962	1	71
419.133	1	62
419.304	1	59
419.474	1	63
419.645	1	68
419.815	1	64
419.986	1	62
420.157	1	52
420.327	1	66
420.498	1	54
420.669	1	59
420.839	1	62
421.010	1	67
421.180	1	48
421.351	1	60
421.522	1	58
421.692	1	68
421.863	1	49
422.033	1	76
422.204	1	68
422.375	1	70
422.545	1	62
422.716	1	65
422.886	1	59
423.057	1	55
423.228	1	64
423.398	1	65
423.569	1	58
423.740	1	60
423.910	1	54
424.081	1	63
424.251	1	59
424.422	1	68
424.593	1	65
424.763	1	70
424.934	1	62
425.104	1	69
425.275	1	62
425.445	1	70
425.616	1	55
425.787	1	52
425.957	1	70
426.128	1	45
426.298	1	57
426.469	1	53
426.640	1	59
426.810	1	61
426.981	1	59
427.151	1	61
427.322	1	61
427.493	1	57
427.663	1	64
427.834	1	56
428.004	1	57
428.175	1	65
428.345	1	56
428.516	1	60
428.687	1	60
428.857	1	62
429.028	1	59
429.198	1	63
429.369	1	62
429.540	1	61
429.710	1	69
429.881	1	54
430.051	1	60
430.222	1	62
430.392	1	64
430.563	1	58
430.734	1	61
430.904	1	58
431.075	1	68
431.245	1	64
431.416	1	58
431.586	1	56
431.757	1	65
431.927	1	58
432.098	1	54
432.269	1	61
432.439	1	62
432.610	1	51
432.780	1	54
432.951	1	59
433.121	1	60
433.292	1	60
433.462	1	53
433.633	1	61
433.804	1	61
433.974	1	40
434.145	1	57
434.315	1	53
434.486	1	54
434.656	1	60
434.827	1	53
434.997	1	61
435.168	1	68
435.339	1	59
435.509	1	58
435.680	1	54
435.850	1	53
436.021	1	54
436.191	1	58
436.362	1	56
436.532	1	68
436.703	1	59
436.873	1	64
437.044	1	54
437.214	1	70
437.385	1	65
437.556	1	58
437.726	1	51
437.897	1	50
438.067	1	48
438.238	1	60
438.408	1	60
438.579	1	61
438.749	1	55
438.920	1	60
439.090	1	62
439.261	1	54
439.431	1	57
439.602	1	52
439.772	1	57
439.943	1	54
440.113	1	43
440.284	1	52
440.455	1	49
440.625	1	56
440.796	1	57
440.966	1	61
441.137	1	53
441.307	1	56
441.478	1	59
441.648	1	48
441.819	1	61
441.989	1	56
442.160	1	50
442.330	1	51
442.501	1	55
442.671	1	60
442.842	1	48
443.012	1	65
443.183	1	50
443.353	1	57
443.524	1	47
443.694	1	49
443.865	1	44
444.035	1	42
444.206	1	48
444.376	1	58
444.547	1	45
444.717	1	56
444.888	1	51
445.058	1	63
445.229	1	55
445.399	1	57
445.570	1	60
445.740	1	44
445.911	1	42
446.081	1	55
446.252	1	57
446.422	1	55
446.593	1	39
446.763	1	58
446.934	1	41
447.104	1	54
447.275	1	43
447.445	1	42
447.616	1	46
447.786	1	51
447.957	1	51
448.127	1	38
448.298	1	44
448.468	1	56
448.639	1	64
448.809	1	59
448.979	1	50
449.150	1	41
449.320	1	47
449.491	1	54
449.661	1	47
449.832	1	48
450.002	1	38
450.173	1	54
450.343	1	68
450.514	1	52
450.684	1	60
450.855	1	58
451.025	1	52
451.196	1	33
451.366	1	48
451.537	1	41
451.707	1	57
451.878	1	46
452.048	1	56
452.218	1	42
452.389	1	58
452.559	1	58
452.730	1	42
452.900	1	55
453.071	1	50
453.241	1	34
453.412	1	37
453.582	1	51
453.753	1	46
453.923	1	52
454.093	1	55
454.264	1	55
454.434	1	46
454.605	1	46
454.775	1	38
454.946	1	42
455.116	1	45
455.287	1	54
455.457	1	53
455.628	1	43
455.798	1	44
455.968	1	45
456.139	1	56
456.309	1	54
456.480	1	37
456.650	1	42
456.821	1	48
456.991	1	36
457.161	1	43
457.332	1	60
457.502	1	47
457.673	1	49
457.843	1	35
458.014	1	50
458.184	1	47
458.355	1	45
458.525	1	49
458.695	1	31
458.866	1	45
459.036	1	51
459.207	1	49
459.377	1	33
459.548	1	36
459.718	1	38
459.888	1	47
460.059	1	45
460.229	1	39
460.400	1	47
460.570	1	40
460.740	1	30
460.911	1	45
461.081	1	42
461.252	1	40
461.422	1	32
461.593	1	42
461.763	1	49
461.933	1	36
462.104	1	45
462.274	1	38
462.445	1	41
462.615	1	42
462.785	1	40
462.956	1	42
463.126	1	44
463.297	1	40
463.467	1	47
463.638	1	32
463.808	1	37
463.978	1	32
464.149	1	43
464.319	1	36
464.490	1	38
464.660	1	56
464.830	1	45
465.001	1	40
465.171	1	40
465.342	1	39
465.512	1	38
465.682	1	42
465.853	1	38
466.023	1	47
466.194	1	35
466.364	1	35
466.534	1	32
466.705	1	47
466.875	1	47
467.045	1	41
467.216	1	41
467.386	1	37
467.557	1	48
467.727	1	41
467.897	1	52
468.068	1	29
468.238	1	30
468.409	1	48
468.579	1	40
468.749	1	49
468.920	1	38
469.090	1	39
469.260	1	50
469.431	1	30
469.601	1	42
469.772	1	33
469.942	1	47
470.112	1	33
470.283	1	37
470.453	1	35
470.623	1	41
470.794	1	31
470.964	1	49
471.135	1	43
471.305	1	38
471.475	1	40
471.646	1	40
471.816	1	39
471.986	1	36
472.157	1	35
472.327	1	38
472.497	1	39
472.668	1	27
472.838	1	34
473.009	1	32
473.179	1	38
473.349	1	34
473.520	1	33
473.690	1	36
473.860	1	32
474.031	1	37
474.201	1	33
474.371	1	45
474.542	1	48
474.712	1	30
474.882	1	34
475.053	1	23
475.223	1	22
475.394	1	39
475.564	1	25
475.734	1	33
475.905	1	42
476.075	1	28
476.245	1	38
476.416	1	35
476.586	1	30
476.756	1	32
476.927	1	33
477.097	1	46
477.267	1	37
477.438	1	31
477.608	1	33
477.778	1	37
477.949	1	36
478.119	1	23
478.289	1	26
478.460	1	36
478.630	1	45
478.800	1	39
478.971	1	42
479.141	1	30
479.311	1	32
479.482	1	19
479.652	1	51
479.822	1	25
479.993	1	48
480.163	1	36
480.333	1	53
480.504	1	34
480.674	1	20
480.844	1	30
481.015	1	26
481.185	1	32
481.355	1	28
481.525	1	19
481.696	1	39
481.866	1	36
482.036	1	16
482.207	1	30
482.377	1	37
482.547	1	19
482.718	1	28
482.888	1	18
483.058	1	35
483.229	1	38
483.399	1	33
483.569	1	31
483.740	1	28
483.910	1	39
484.080	1	38
484.250	1	28
484.421	1	41
484.591	1	33
484.761	1	34
484.932	1	41
485.102	1	23
485.272	1	23
485.443	1	40
485.613	1	24
485.783	1	21
485.953	1	26
486.124	1	37
486.294	1	33
486.464	1	39
486.635	1	23
486.805	1	40
486.975	1	36
487.146	1	31
487.316	1	26
487.486	1	27
487.656	1	37
487.827	1	29
487.997	1	34
488.167	1	37
488.338	1	20
488.508	1	24
488.678	1	29
488.848	1	20
489.019	1	19
489.189	1	20
489.359	1	25
489.529	1	18
489.700	1	21
489.870	1	24
490.040	1	19
490.211	1	18
490.381	1	41
490.551	1	21
490.721	1	25
490.892	1	32
491.062	1	22
491.232	1	17
491.402	1	15
491.573	1	24
491.743	1	16
491.913	1	25
492.084	1	17
492.254	1	25
492.424	1	19
492.594	1	11
492.765	1	20
492.935	1	16
493.105	1	14
493.275	1	25
493.446	1	23
493.616	1	16
493.786	1	23
493.956	1	27
494.127	1	18
494.297	1	22
494.467	1	28
494.637	1	23
494.808	1	17
494.978	1	18
495.148	1	28
495.318	1	21
495.489	1	24
495.659	1	26
495.829	1	30
495.999	1	32
496.170	1	18
496.340	1	14
496.510	1	35
496.680	1	20
496.851	1	22
497.021	1	31
497.191	1	29
497.361	1	23
497.532	1	23
497.702	1	30
497.872	1	23
498.042	1	17
498.213	1	22
498.383	1	26
498.553	1	24
498.723	1	25
498.894	1	36
499.064	1	18
499.234	1	18
499.404	1	35
499.574	1	25
499.745	1	15
499.915	1	15
500.085	1	18
500.255	1	14
500.426	1	19
500.596	1	31
500.766	1	22
500.936	1	23
501.106	1	17
501.277	1	16
501.447	1	14
501.617	1	18
501.787	1	24
501.958	1	16
502.128	1	26
502.298	1	31
502.468	1	25
502.638	1	36
502.809	1	20
502.979	1	26
503.149	1	20
503.319	1	27
503.489	1	20
503.660	1	10
503.830	1	16
504.000	1	14
504.170	1	15
504.340	1	22
504.511	1	19
504.681	1	12
504.851	1	14
505.021	1	25
505.192	1	16
505.362	1	29
505.532	1	28
505.702	1	20
505.872	1	23
506.043	1	13
506.213	1	15
506.383	1	8
506.553	1	19
506.723	1	22
506.893	1	17
507.064	1	22
507.234	1	12
507.404	1	22
507.574	1	16
507.744	1	7
507.915	1	25
508.085	1	14
508.255	1	11
508.425	1	8
508.595	1	4
508.766	1	27
508.936	1	21
509.106	1	19
509.276	1	18
509.446	1	4
509.616	1	26
509.787	1	17
509.957	1	18
510.127	1	17
510.297	1	16
510.467	1	20
510.638	1	8
510.808	1	17
510.978	1	17
511.148	1	13
511.318	1	18
511.488	1	15
511.659	1	2
511.829	1	11
511.999	1	20
512.169	1	14
512.339	1	26
512.509	1	25
512.680	1	17
512.850	1	20
513.020	1	17
513.190	1	7
513.360	1	16
513.530	1	22
513.700	1	19
513.871	1	15
514.041	1	30
514.211	1	27
514.381	1	11
514.551	1	12
514.721	1	11
514.892	1	19
515.062	1	19
515.232	1	13
515.402	1	23
515.572	1	21
515.742	1	20
515.912	1	16
516.083	1	14
516.253	1	10
516.423	1	20
516.593	1	15
516.763	1	22
516.933	1	17
517.104	1	14
517.274	1	12
517.444	1	13
517.614	1	11
517.784	1	16
517.954	1	17
518.124	1	15
518.294	1	24
518.465	1	13
518.635	1	4
518.805	1	16
518.975	1	17
519.145	1	12
519.315	1	15
519.485	1	6
519.656	1	9
519.826	1	18
519.996	1	11
520.166	1	17
520.336	1	20
520.506	1	20
520.676	1	19
520.846	1	16
521.017	1	10
521.187	1	19
521.357	1	11
521.527	1	1
521.697	1	15
521.867	1	9
522.037	1	5
522.207	1	12
522.377	1	10
522.548	1	0
522.718	1	17
522.888	1	4
523.058	1	11
523.228	1	14
523.398	1	8
523.568	1	14
523.738	1	16
523.909	1	16
524.079	1	18
524.249	1	4
524.419	1	15
524.589	1	18
524.759	1	12
524.929	1	13
525.099	1	14
525.269	1	19
525.439	1	12
525.610	1	21
525.780	1	22
525.950	1	16
526.120	1	19
526.290	1	19
526.460	1	12
526.630	1	11
526.800	1	17
526.970	1	15
527.140	1	18
527.311	1	6
527.481	1	12
527.651	1	0
527.821	1	9
527.991	1	20
528.161	1	14
528.331	1	16
528.501	1	19
528.671	1	19
528.841	1	17
529.011	1	5
529.181	1	18
529.352	1	18
529.522	1	1
529.692	1	7
529.862	1	16
530.032	1	12
530.202	1	15
530.372	1	7
530.542	1	26
530.712	1	1
530.882	1	10
531.052	1	17
531.222	1	8
531.392	1	16
531.563	1	9
531.733	1	23
531.903	1	11
532.073	1	7
532.243	1	16
532.413	1	14
532.583	1	13
532.753	1	14
532.923	1	15
533.093	1	9
533.263	1	11
533.433	1	19
533.603	1	12
533.773	1	15
533.943	1	5
534.113	1	7
534.284	1	21
534.454	1	7
534.624	1	9
534.794	1	18
534.964	1	9
535.134	1	7
535.304	1	14
535.474	1	6
535.644	1	15
535.814	1	9
535.984	1	4
536.154	1	19
536.324	1	8
536.494	1	13
536.664	1	-5
536.834	1	16
537.004	1	1
537.174	1	18
537.344	1	23
537.514	1	14
537.685	1	15
537.855	1	14
538.025	1	13
538.195	1	13
538.365	1	14
538.535	1	17
538.705	1	10
538.875	1	7
539.045	1	6
539.215	1	24
539.385	1	7
539.555	1	7
539.725	1	14
539.895	1	10
540.065	1	13
540.235	1	8
540.405	1	21
540.575	1	16
540.745	1	8
540.915	1	17
541.085	1	11
541.255	1	9
541.425	1	-1
541.595	1	-7
541.765	1	6
541.935	1	16
542.105	1	17
542.275	1	12
542.445	1	-2
542.615	1	21
542.785	1	23
542.955	1	13
543.125	1	11
543.295	1	17
543.465	1	3
543.635	1	1
543.805	1	14
543.975	1	5
544.145	1	12
544.315	1	6
544.485	1	11
544.655	1	16
544.825	1	16
544.995	1	10
545.165	1	8
545.335	1	3
545.505	1	7
545.675	1	22
545.845	1	0
546.015	1	4
546.185	1	2
546.355	1	3
546.525	1	3
546.695	1	13
546.865	1	8
547.035	1	12
547.205	1	11
547.375	1	18
547.545	1	6
547.715	1	13
547.885	1	14
548.055	1	9
548.225	1	1
548.395	1	17
548.565	1	7
548.735	1	8
548.905	1	2
549.075	1	13
549.245	1	10
549.415	1	15
549.585	1	15
549.755	1	13
549.925	1	10
550.095	1	4
550.265	1	-3
550.435	1	14
550.605	1	12
550.775	1	12
550.945	1	5
551.115	1	6
551.285	1	10
551.455	1	1
551.625	1	8
551.795	1	14
551.965	1	11
552.135	1	-2
552.305	1	2
552.475	1	12
552.645	1	18
552.815	1	6
552.985	1	3
553.155	1	-5
553.325	1	3
553.495	1	8
553.665	1	15
553.835	1	8
554.004	1	7
554.174	1	5
554.344	1	-1
554.514	1	15
554.684	1	1
554.854	1	5
555.024	1	17
555.194	1	16
555.364	1	17
555.534	1	17
555.704	1	3
555.874	1	8
556.044	1	16
556.214	1	-7
556.384	1	9
556.554	1	3
556.724	1	6
556.894	1	12
557.064	1	3
557.234	1	9
557.404	1	3
557.573	1	10
557.743	1	13
557.913	1	8
558.083	1	9
558.253	1	7
558.423	1	13
558.593	1	12
558.763	1	11
558.933	1	11
559.103	1	10
559.273	1	16
559.443	1	-5
559.613	1	4
559.783	1	10
559.953	1	1
560.122	1	3
560.292	1	12
560.462	1	2
560.632	1	10
560.802	1	7
560.972	1	8
561.142	1	2
561.312	1	9
561.482	1	11
561.652	1	4
561.822	1	5
561.992	1	14
562.162	1	11
562.331	1	1
562.501	1	2
562.671	1	11
562.841	1	6
563.011	1	12
563.181	1	18
563.351	1	2
563.521	1	9
563.691	1	-1
563.861	1	16
564.031	1	5
564.201	1	3
564.370	1	18
564.540	1	13
564.710	1	17
564.880	1	4
565.050	1	1
565.220	1	5
565.390	1	19
565.560	1	10
565.730	1	17
565.900	1	-9
566.069	1	14
566.239	1	-2
566.409	1	16
566.579	1	16
566.749	1	14
566.919	1	15
567.089	1	9
567.259	1	7
567.429	1	1
567.599	1	4
567.768	1	5
567.938	1	0
568.108	1	5
568.278	1	6
568.448	1	16
568.618	1	16
568.788	1	10
568.958	1	16
569.128	1	6
569.297	1	7
569.467	1	12
569.637	1	-7
569.807	1	3
569.977	1	9
570.147	1	4
570.317	1	19
570.487	1	9
570.656	1	2
570.826	1	13
570.996	1	-4
571.166	1	14
571.336	1	10
571.506	1	7
571.676	1	16
571.846	1	-1
572.015	1	14
572.185	1	10
572.355	1	4
572.525	1	10
572.695	1	14
572.865	1	8
573.035	1	3
573.205	1	-3
573.374	1	6
573.544	1	-1
573.714	1	14
573.884	1	9
574.054	1	16
574.224	1	18
574.394	1	1
574.563	1	4
574.733	1	-1
574.903	1	6
575.073	1	9
575.243	1	2
575.413	1	10
575.583	1	-1
575.752	1	6
575.922	1	10
576.092	1	7
576.262	1	7
576.432	1	12
576.602	1	-1
576.772	1	2
576.941	1	16
577.111	1	12
577.281	1	5
577.451	1	18
577.621	1	5
577.791	1	-2
577.960	1	4
578.130	1	-1
578.300	1	7
578.470	1	7
578.640	1	13
578.810	1	8
578.979	1	14
579.149	1	-5
579.319	1	-1
579.489	1	1
579.659	1	10
579.829	1	-3
579.998	1	-1
580.168	1	9
580.338	1	19
580.508	1	13
580.678	1	-2
580.848	1	11
581.017	1	23
581.187	1	-1
581.357	1	-8
581.527	1	12
581.697	1	12
581.867	1	2
582.036	1	4
582.206	1	3
582.376	1	8
582.546	1	-1
582.716	1	8
582.885	1	4
583.055	1	0
583.225	1	-6
583.395	1	5
583.565	1	13
583.735	1	-6
583.904	1	10
584.074	1	15
584.244	1	12
584.414	1	11
584.584	1	5
584.753	1	12
584.923	1	9
585.093	1	1
585.263	1	18
585.433	1	11
585.602	1	7
585.772	1	8
585.942	1	-1
586.112	1	11
586.282	1	13
586.451	1	-4
586.621	1	15
586.791	1	20
586.961	1	2
587.131	1	11
587.300	1	-4
587.470	1	9
587.640	1	4
587.810	1	5
587.980	1	6
588.149	1	13
588.319	1	2
588.489	1	9
588.659	1	0
588.829	1	6
588.998	1	12
589.168	1	5
589.338	1	7
589.508	1	13
589.677	1	3
589.847	1	10
590.017	1	10
590.187	1	6
590.357	1	-4
590.526	1	17
590.696	1	7
590.866	1	14
591.036	1	7
591.205	1	-2
591.375	1	13
591.545	1	5
591.715	1	21
591.885	1	10
592.054	1	11
592.224	1	2
592.394	1	15
592.564	1	0
592.733	1	7
592.903	1	5
593.073	1	14
593.243	1	11
593.412	1	3
593.582	1	6
593.752	1	6
593.922	1	-1
594.091	1	17
594.261	1	7
594.431	1	4
594.601	1	7
594.771	1	2
594.940	1	9
595.110	1	8
595.280	1	8
595.450	1	-2
595.619	1	6
595.789	1	-2
595.959	1	8
596.129	1	14
596.298	1	14
596.468	1	11
596.638	1	22
596.808	1	11
596.977	1	10
597.147	1	21
597.317	1	4
597.487	1	10
597.656	1	4
597.826	1	10
597.996	1	16
598.166	1	10
598.335	1	10
598.505	1	2
598.675	1	6
598.844	1	1
599.014	1	5
599.184	1	14
599.354	1	9
599.523	1	6
599.693	1	11
599.863	1	13
600.033	1	8
600.202	1	0
600.372	1	-3
600.542	1	16
600.712	1	4
600.881	1	6
601.051	1	-4
601.221	1	3
601.390	1	16
601.560	1	13
601.730	1	13
601.900	1	10
602.069	1	3
602.239	1	-5
602.409	1	19
602.578	1	3
602.748	1	16
602.918	1	0
603.088	1	9
603.257	1	14
603.427	1	8
603.597	1	9
603.767	1	0
603.936	1	16
604.106	1	8
604.276	1	0
604.445	1	16
604.615	1	5
604.785	1	-1
604.954	1	14
605.124	1	2
605.294	1	7
605.464	1	10
605.633	1	13
605.803	1	7
605.973	1	7
606.142	1	5
606.312	1	4
606.482	1	5
606.652	1	13
606.821	1	8
606.991	1	15
607.161	1	24
607.330	1	-4
607.500	1	5
607.670	1	6
607.839	1	8
608.009	1	2
608.179	1	-6
608.348	1	20
608.518	1	8
608.688	1	5
608.858	1	-2
609.027	1	16
609.197	1	15
609.367	1	11
609.536	1	9
609.706	1	11
609.876	1	2
610.045	1	13
610.215	1	3
610.385	1	21
610.554	1	-3
610.724	1	14
610.894	1	14
611.063	1	-3
611.233	1	14
611.403	1	5
611.572	1	7
611.742	1	4
611.912	1	11
612.081	1	15
612.251	1	15
612.421	1	-1
612.590	1	9
612.760	1	12
612.930	1	0
613.099	1	20
613.269	1	10
613.439	1	16
613.608	1	23
613.778	1	-1
613.948	1	13
614.117	1	14
614.287	1	4
614.457	1	-3
614.626	1	-3
614.796	1	3
614.966	1	6
615.135	1	7
615.305	1	12
615.475	1	11
615.644	1	16
615.814	1	14
615.984	1	2
616.153	1	12
616.323	1	-1
616.493	1	17
616.662	1	15
616.832	1	13
617.002	1	29
617.171	1	-4
617.341	1	-1
617.511	1	10
617.680	1	14
617.850	1	1
618.019	1	10
618.189	1	3
618.359	1	3
618.528	1	16
618.698	1	10
618.868	1	15
619.037	1	13
619.207	1	9
619.377	1	18
619.546	1	16
619.716	1	7
619.885	1	15
620.055	1	11
620.225	1	11
620.394	1	17
620.564	1	18
620.734	1	8
620.903	1	6
621.073	1	14
621.242	1	-4
621.412	1	10
621.582	1	-5
621.751	1	10
621.921	1	6
622.091	1	6
622.260	1	17
622.430	1	1
622.599	1	13
622.769	1	10
622.939	1	18
623.108	1	7
623.278	1	11
623.448	1	11
623.617	1	11
623.787	1	14
623.956	1	12
624.126	1	25
624.296	1	5
624.465	1	4
624.635	1	2
624.804	1	10
624.974	1	10
625.144	1	17
625.313	1	9
625.483	1	4
625.652	1	8
625.822	1	12
625.992	1	20
626.161	1	0
626.331	1	3
626.501	1	2
626.670	1	8
626.840	1	-8
627.009	1	6
627.179	1	9
627.348	1	16
627.518	1	17
627.688	1	12
627.857	1	3
628.027	1	15
628.196	1	5
628.366	1	6
628.536	1	12
628.705	1	6
628.875	1	5
629.044	1	11
629.214	1	9
629.384	1	15
629.553	1	12
629.723	1	13
629.892	1	12
630.062	1	25
630.232	1	4
630.401	1	1
630.571	1	8
630.740	1	11
630.910	1	21
631.079	1	11
631.249	1	7
631.419	1	24
631.588	1	3
631.758	1	2
631.927	1	8
632.097	1	6
632.266	1	8
632.436	1	4
632.606	1	12
632.775	1	16
632.945	1	8
633.114	1	6
633.284	1	5
633.453	1	12
633.623	1	9
633.793	1	1
633.962	1	6
634.132	1	18
634.301	1	15
634.471	1	22
634.640	1	13
634.810	1	20
634.979	1	17
635.149	1	7
635.319	1	11
635.488	1	9
635.658	1	1
635.827	1	16
635.997	1	3
636.166	1	14
636.336	1	17
636.505	1	23
636.675	1	7
636.845	1	19
637.014	1	16
637.184	1	3
637.353	1	13
637.523	1	14
637.692	1	11
637.862	1	5
638.031	1	13
638.201	1	17
638.370	1	10
638.540	1	13
638.710	1	17
638.879	1	13
639.049	1	10
639.218	1	6
639.388	1	25
639.557	1	15
639.727	1	7
639.896	1	8
640.066	1	19
640.235	1	11
640.405	1	7
640.574	1	17
640.744	1	18
640.914	1	1
641.083	1	7
641.253	1	16
641.422	1	11
641.592	1	-3
641.761	1	21
641.931	1	14
642.100	1	15
642.270	1	6
642.439	1	3
642.609	1	11
642.778	1	13
642.948	1	9
643.117	1	17
643.287	1	9
643.456	1	1
643.626	1	16
643.795	1	17
643.965	1	11
644.134	1	0
644.304	1	18
644.473	1	2
644.643	1	13
644.812	1	16
644.982	1	3
645.151	1	-2
645.321	1	11
645.490	1	12
645.660	1	14
645.829	1	3
645.999	1	29
646.168	1	18
646.338	1	11
646.507	1	4
646.677	1	22
646.846	1	15
647.016	1	14
647.185	1	12
647.355	1	17
647.524	1	15
647.694	1	10
647.863	1	13
648.033	1	23
648.202	1	18
648.372	1	0
648.541	1	16
648.711	1	14
648.880	1	14
649.050	1	8
649.219	1	9
649.389	1	20
649.558	1	9
649.728	1	2
649.897	1	6
650.067	1	-1
650.236	1	16
650.406	1	-8
650.575	1	24
650.745	1	19
650.914	1	13
651.084	1	10
651.253	1	22
651.423	1	2
651.592	1	7
651.762	1	11
651.931	1	18
652.101	1	12
652.270	1	3
652.440	1	8
652.609	1	18
652.778	1	6
652.948	1	6
653.117	1	18
653.287	1	11
653.456	1	14
653.626	1	12
653.795	1	19
653.965	1	16
654.134	1	4
654.304	1	14
654.473	1	11
654.643	1	16
654.812	1	8
654.982	1	23
655.151	1	22
655.320	1	9
655.490	1	0
655.659	1	14
655.829	1	-8
655.998	1	10
656.168	1	11
656.337	1	18
656.507	1	4
656.676	1	17
656.846	1	16
657.015	1	21
657.184	1	4
657.354	1	16
657.523	1	8
657.693	1	5
657.862	1	15
658.032	1	6
658.201	1	10
658.371	1	24
658.540	1	19
658.709	1	14
658.879	1	6
659.048	1	4
659.218	1	14
659.387	1	12
659.557	1	12
659.726	1	16
659.895	1	12
660.065	1	4
660.234	1	24
660.404	1	28
660.573	1	9
660.743	1	11
660.912	1	14
661.081	1	7
661.251	1	5
661.420	1	18
661.590	1	16
661.759	1	13
661.929	1	23
662.098	1	15
662.267	1	17
662.437	1	14
662.606	1	12
662.776	1	15
662.945	1	15
663.115	1	6
663.284	1	8
663.453	1	1
663.623	1	15
663.792	1	15
663.962	1	12
664.131	1	11
664.300	1	17
664.470	1	4
664.639	1	10
664.809	1	11
664.978	1	13
665.148	1	24
665.317	1	11
665.486	1	11
665.656	1	13
665.825	1	15
665.995	1	10
666.164	1	14
666.333	1	16
666.503	1	18
666.672	1	14
666.842	1	7
667.011	1	15
667.180	1	6
667.350	1	23
667.519	1	4
667.689	1	16
667.858	1	27
668.027	1	15
668.197	1	18
668.366	1	24
668.536	1	15
668.705	1	11
668.874	1	17
669.044	1	11
669.213	1	13
669.382	1	25
669.552	1	13
669.721	1	6
669.891	1	10
670.060	1	13
670.229	1	17
670.399	1	15
670.568	1	22
670.738	1	14
670.907	1	12
671.076	1	16
671.246	1	11
671.415	1	10
671.584	1	8
671.754	1	21
671.923	1	11
672.093	1	19
672.262	1	10
672.431	1	26
672.601	1	7
672.770	1	3
672.939	1	18
673.109	1	10
673.278	1	26
673.448	1	7
673.617	1	8
673.786	1	1
