325.333	1	14
325.504	1	20
325.675	1	6
325.846	1	11
326.017	1	20
326.188	1	23
326.359	1	15
326.531	1	12
326.702	1	13
326.873	1	18
327.044	1	20
327.215	1	19
327.386	1	13
327.557	1	29
327.728	1	15
327.899	1	12
328.070	1	22
328.241	1	22
328.412	1	7
328.583	1	15
328.754	1	13
328.926	1	23
329.097	1	20
329.268	1	18
329.439	1	31
329.610	1	22
329.781	1	19
329.952	1	27
330.123	1	17
330.294	1	24
330.465	1	30
330.636	1	19
330.807	1	16
330.978	1	20
331.149	1	13
331.320	1	27
331.492	1	34
331.663	1	25
331.834	1	26
332.005	1	26
332.176	1	15
332.347	1	22
332.518	1	25
332.689	1	18
332.860	1	19
333.031	1	33
333.202	1	28
333.373	1	27
333.544	1	32
333.715	1	18
333.886	1	28
334.057	1	35
334.228	1	23
334.399	1	33
334.570	1	37
334.741	1	20
334.912	1	29
335.084	1	35
335.255	1	23
335.426	1	20
335.597	1	33
335.768	1	19
335.939	1	30
336.110	1	22
336.281	1	38
336.452	1	43
336.623	1	19
336.794	1	29
336.965	1	36
337.136	1	21
337.307	1	46
337.478	1	28
337.649	1	26
337.820	1	35
337.991	1	33
338.162	1	34
338.333	1	28
338.504	1	33
338.675	1	34
338.846	1	44
339.017	1	33
339.188	1	34
339.359	1	33
339.530	1	36
339.701	1	31
339.872	1	30
340.043	1	43
340.214	1	36
340.385	1	43
340.556	1	41
340.727	1	39
340.898	1	35
341.069	1	39
341.240	1	34
341.411	1	44
341.582	1	38
341.753	1	40
341.924	1	37
342.095	1	37
342.266	1	38
342.437	1	47
342.608	1	30
342.779	1	35
342.950	1	44
343.121	1	45
343.292	1	39
343.463	1	38
343.634	1	47
343.805	1	41
343.976	1	30
344.147	1	41
344.318	1	37
344.489	1	41
344.660	1	44
344.831	1	39
345.002	1	38
345.173	1	43
345.344	1	33
345.515	1	46
345.686	1	46
345.857	1	44
346.028	1	50
346.199	1	48
346.370	1	46
346.541	1	52
346.712	1	45
346.883	1	48
347.054	1	33
347.225	1	43
347.396	1	57
347.567	1	54
347.738	1	45
347.909	1	46
348.080	1	51
348.251	1	41
348.422	1	61
348.593	1	42
348.764	1	48
348.935	1	42
349.106	1	47
349.277	1	66
349.448	1	48
349.619	1	57
349.790	1	55
349.961	1	57
350.132	1	49
350.303	1	60
350.474	1	58
350.645	1	51
350.816	1	56
350.987	1	48
351.157	1	49
351.328	1	52
351.499	1	53
351.670	1	49
351.841	1	52
352.012	1	59
352.183	1	47
352.354	1	54
352.525	1	55
352.696	1	45
352.867	1	45
353.038	1	56
353.209	1	56
353.380	1	60
353.551	1	58
353.722	1	60
353.893	1	61
354.064	1	57
354.235	1	61
354.406	1	54
354.576	1	61
354.747	1	71
354.918	1	65
355.089	1	64
355.260	1	59
355.431	1	68
355.602	1	69
355.773	1	62
355.944	1	63
356.115	1	54
356.286	1	56
356.457	1	60
356.628	1	77
356.799	1	54
356.970	1	62
357.141	1	78
357.311	1	66
357.482	1	56
357.653	1	61
357.824	1	69
357.995	1	66
358.166	1	74
358.337	1	57
358.508	1	71
358.679	1	51
358.850	1	54
359.021	1	70
359.192	1	66
359.363	1	64
359.533	1	77
359.704	1	63
359.875	1	72
360.046	1	67
360.217	1	61
360.388	1	67
360.559	1	75
360.730	1	56
360.901	1	70
361.072	1	69
361.243	1	64
361.414	1	59
361.584	1	71
361.755	1	72
361.926	1	51
362.097	1	62
362.268	1	72
362.439	1	71
362.610	1	70
362.781	1	64
362.952	1	67
363.123	1	77
363.293	1	71
363.464	1	71
363.635	1	77
363.806	1	69
363.977	1	66
364.148	1	58
364.319	1	69
364.490	1	81
364.661	1	72
364.832	1	75
365.002	1	68
365.173	1	69
365.344	1	57
365.515	1	82
365.686	1	68
365.857	1	71
366.028	1	59
366.199	1	67
366.370	1	77
366.540	1	83
366.711	1	74
366.882	1	67
367.053	1	74
367.224	1	66
367.395	1	69
367.566	1	73
367.737	1	80
367.908	1	76
368.078	1	85
368.249	1	75
368.420	1	84
368.591	1	85
368.762	1	75
368.933	1	54
369.104	1	75
369.274	1	78
369.445	1	76
369.616	1	75
369.787	1	77
369.958	1	74
370.129	1	76
370.300	1	76
370.471	1	84
370.641	1	76
370.812	1	67
370.983	1	74
371.154	1	72
371.325	1	84
371.496	1	64
371.667	1	81
371.837	1	85
372.008	1	76
372.179	1	78
372.350	1	91
372.521	1	71
372.692	1	80
372.863	1	75
373.033	1	77
373.204	1	80
373.375	1	86
373.546	1	84
373.717	1	73
373.888	1	73
374.059	1	94
374.229	1	92
374.400	1	69
374.571	1	78
374.742	1	85
374.913	1	73
375.084	1	75
375.254	1	81
375.425	1	75
375.596	1	77
375.767	1	75
375.938	1	88
376.109	1	73
376.279	1	74
376.450	1	78
376.621	1	82
376.792	1	79
376.963	1	88
377.134	1	94
377.304	1	76
377.475	1	80
377.646	1	83
377.817	1	63
377.988	1	72
378.159	1	72
378.329	1	79
378.500	1	95
378.671	1	90
378.842	1	70
379.013	1	96
379.184	1	95
379.354	1	63
379.525	1	89
379.696	1	90
379.867	1	91
380.038	1	70
380.209	1	80
380.379	1	82
380.550	1	81
380.721	1	98
380.892	1	84
381.063	1	82
381.233	1	76
381.404	1	92
381.575	1	98
381.746	1	89
381.917	1	86
382.087	1	105
382.258	1	91
382.429	1	91
382.600	1	85
382.771	1	96
382.941	1	93
383.112	1	99
383.283	1	86
383.454	1	91
383.625	1	96
383.795	1	103
383.966	1	96
384.137	1	90
384.308	1	98
384.479	1	92
384.649	1	97
384.820	1	96
384.991	1	91
385.162	1	86
385.333	1	98
385.503	1	98
385.674	1	96
385.845	1	95
386.016	1	105
386.187	1	80
386.357	1	101
386.528	1	82
386.699	1	88
386.870	1	108
387.041	1	87
387.211	1	92
387.382	1	101
387.553	1	97
387.724	1	102
387.894	1	94
388.065	1	91
388.236	1	88
388.407	1	89
388.578	1	97
388.748	1	97
388.919	1	106
389.090	1	96
389.261	1	102
389.431	1	109
389.602	1	100
389.773	1	96
389.944	1	92
390.114	1	97
390.285	1	102
390.456	1	96
390.627	1	108
390.798	1	112
390.968	1	90
391.139	1	89
391.310	1	112
391.481	1	103
391.651	1	112
391.822	1	96
391.993	1	110
392.164	1	90
392.334	1	97
392.505	1	92
392.676	1	101
392.847	1	101
393.017	1	123
393.188	1	107
393.359	1	107
393.530	1	108
393.700	1	104
393.871	1	104
394.042	1	98
394.213	1	109
394.383	1	105
394.554	1	101
394.725	1	104
394.896	1	109
395.066	1	104
395.237	1	95
395.408	1	112
395.579	1	97
395.749	1	107
395.920	1	91
396.091	1	106
396.262	1	109
396.432	1	104
396.603	1	101
396.774	1	97
396.945	1	102
397.115	1	108
397.286	1	101
397.457	1	125
397.627	1	94
397.798	1	101
397.969	1	100
398.140	1	107
398.310	1	102
398.481	1	96
398.652	1	119
398.823	1	105
398.993	1	112
399.164	1	118
399.335	1	104
399.505	1	108
399.676	1	102
399.847	1	100
400.018	1	111
400.188	1	106
400.359	1	105
400.530	1	110
400.700	1	113
400.871	1	128
401.042	1	116
401.213	1	96
401.383	1	106
401.554	1	103
401.725	1	118
401.895	1	120
402.066	1	106
402.237	1	115
402.408	1	120
402.578	1	115
402.749	1	110
402.920	1	113
403.090	1	116
403.261	1	117
403.432	1	110
403.603	1	116
403.773	1	106
403.944	1	116
404.115	1	119
404.285	1	119
404.456	1	110
404.627	1	102
404.797	1	108
404.968	1	123
405.139	1	94
405.310	1	104
405.480	1	110
405.651	1	118
405.822	1	114
405.992	1	111
406.163	1	115
406.334	1	100
406.504	1	105
406.675	1	107
406.846	1	112
407.016	1	104
407.187	1	121
407.358	1	104
407.528	1	100
407.699	1	121
407.870	1	111
408.041	1	115
408.211	1	107
408.382	1	110
408.553	1	121
408.723	1	117
408.894	1	110
409.065	1	122
409.235	1	114
409.406	1	104
409.577	1	103
409.747	1	111
409.918	1	105
410.089	1	115
410.259	1	119
410.430	1	111
410.601	1	112
410.771	1	124
410.942	1	119
411.113	1	110
411.283	1	110
411.454	1	120
411.625	1	108
411.795	1	119
411.966	1	111
412.137	1	122
412.307	1	125
412.478	1	115
412.649	1	113
412.819	1	121
412.990	1	116
413.161	1	123
413.331	1	119
413.502	1	124
413.672	1	120
413.843	1	123
414.014	1	125
414.184	1	108
414.355	1	120
414.526	1	119
414.696	1	116
414.867	1	120
415.038	1	105
415.208	1	120
415.379	1	124
415.550	1	119
415.720	1	116
415.891	1	110
416.062	1	115
416.232	1	109
416.403	1	118
416.573	1	125
416.744	1	111
416.915	1	123
417.085	1	117
417.256	1	123
417.427	1	116
417.597	1	105
417.768	1	101
417.939	1	117
418.109	1	109
418.280	1	99
418.450	1	113
418.621	1	100
418.792	1	101
418.962	1	111
419.133	1	103
419.304	1	109
419.474	1	104
419.645	1	110
419.815	1	102
419.986	1	108
420.157	1	97
420.327	1	101
420.498	1	91
420.669	1	113
420.839	1	110
421.010	1	123
421.180	1	108
421.351	1	107
421.522	1	96
421.692	1	103
421.863	1	105
422.033	1	110
422.204	1	112
422.375	1	118
422.545	1	108
422.716	1	108
422.886	1	108
423.057	1	96
423.228	1	106
423.398	1	115
423.569	1	104
423.740	1	109
423.910	1	99
424.081	1	115
424.251	1	100
424.422	1	119
424.593	1	102
424.763	1	111
424.934	1	90
425.104	1	112
425.275	1	119
425.445	1	113
425.616	1	108
425.787	1	95
425.957	1	117
426.128	1	94
426.298	1	97
426.469	1	99
426.640	1	108
426.810	1	104
426.981	1	102
427.151	1	109
427.322	1	108
427.493	1	94
427.663	1	100
427.834	1	108
428.004	1	93
428.175	1	109
428.345	1	108
428.516	1	106
428.687	1	106
428.857	1	99
429.028	1	105
429.198	1	110
429.369	1	103
429.540	1	96
429.710	1	93
429.881	1	96
430.051	1	98
430.222	1	107
430.392	1	112
430.563	1	101
430.734	1	94
430.904	1	99
431.075	1	98
431.245	1	101
431.416	1	102
431.586	1	86
431.757	1	98
431.927	1	97
432.098	1	95
432.269	1	105
432.439	1	114
432.610	1	106
432.780	1	105
432.951	1	89
433.121	1	96
433.292	1	89
433.462	1	84
433.633	1	100
433.804	1	115
433.974	1	85
434.145	1	107
434.315	1	100
434.486	1	112
434.656	1	103
434.827	1	91
434.997	1	92
435.168	1	92
435.339	1	103
435.509	1	92
435.680	1	98
435.850	1	87
436.021	1	102
436.191	1	99
436.362	1	106
436.532	1	97
436.703	1	90
436.873	1	97
437.044	1	84
437.214	1	110
437.385	1	90
437.556	1	98
437.726	1	96
437.897	1	94
438.067	1	92
438.238	1	90
438.408	1	98
438.579	1	105
438.749	1	96
438.920	1	97
439.090	1	86
439.261	1	87
439.431	1	95
439.602	1	94
439.772	1	97
439.943	1	97
440.113	1	84
440.284	1	85
440.455	1	89
440.625	1	96
440.796	1	94
440.966	1	73
441.137	1	82
441.307	1	94
441.478	1	92
441.648	1	82
441.819	1	86
441.989	1	83
442.160	1	82
442.330	1	93
442.501	1	94
442.671	1	90
442.842	1	89
443.012	1	85
443.183	1	82
443.353	1	83
443.524	1	88
443.694	1	80
443.865	1	86
444.035	1	92
444.206	1	87
444.376	1	86
444.547	1	88
444.717	1	77
444.888	1	84
445.058	1	92
445.229	1	85
445.399	1	99
445.570	1	89
445.740	1	87
445.911	1	79
446.081	1	78
446.252	1	87
446.422	1	83
446.593	1	75
446.763	1	97
446.934	1	81
447.104	1	85
447.275	1	79
447.445	1	73
447.616	1	83
447.786	1	86
447.957	1	91
448.127	1	71
448.298	1	79
448.468	1	80
448.639	1	81
448.809	1	98
448.979	1	67
449.150	1	78
449.320	1	66
449.491	1	88
449.661	1	87
449.832	1	83
450.002	1	73
450.173	1	76
450.343	1	90
450.514	1	73
450.684	1	69
450.855	1	90
451.025	1	76
451.196	1	72
451.366	1	85
451.537	1	80
451.707	1	84
451.878	1	71
452.048	1	81
452.218	1	86
452.389	1	81
452.559	1	89
452.730	1	75
452.900	1	80
453.071	1	69
453.241	1	73
453.412	1	80
453.582	1	70
453.753	1	73
453.923	1	88
454.093	1	82
454.264	1	75
454.434	1	76
454.605	1	86
454.775	1	74
454.946	1	80
455.116	1	78
455.287	1	71
455.457	1	78
455.628	1	76
455.798	1	72
455.968	1	65
456.139	1	74
456.309	1	75
456.480	1	75
456.650	1	67
456.821	1	77
456.991	1	71
457.161	1	70
457.332	1	80
457.502	1	71
457.673	1	76
457.843	1	65
458.014	1	76
458.184	1	73
458.355	1	65
458.525	1	64
458.695	1	75
458.866	1	63
459.036	1	88
459.207	1	71
459.377	1	69
459.548	1	77
459.718	1	63
459.888	1	79
460.059	1	83
460.229	1	58
460.400	1	65
460.570	1	70
460.740	1	64
460.911	1	67
461.081	1	63
461.252	1	69
461.422	1	60
461.593	1	69
461.763	1	69
461.933	1	58
462.104	1	66
462.274	1	67
462.445	1	70
462.615	1	75
462.785	1	66
462.956	1	66
463.126	1	65
463.297	1	73
463.467	1	68
463.638	1	67
463.808	1	62
463.978	1	64
464.149	1	65
464.319	1	56
464.490	1	69
464.660	1	75
464.830	1	64
465.001	1	65
465.171	1	61
465.342	1	60
465.512	1	67
465.682	1	67
465.853	1	66
466.023	1	84
466.194	1	54
466.364	1	62
466.534	1	63
466.705	1	54
466.875	1	64
467.045	1	64
467.216	1	59
467.386	1	57
467.557	1	76
467.727	1	64
467.897	1	68
468.068	1	69
468.238	1	68
468.409	1	62
468.579	1	68
468.749	1	59
468.920	1	71
469.090	1	59
469.260	1	67
469.431	1	68
469.601	1	72
469.772	1	63
469.942	1	65
470.112	1	66
470.283	1	58
470.453	1	64
470.623	1	59
470.794	1	45
470.964	1	65
471.135	1	61
471.305	1	63
471.475	1	71
471.646	1	59
471.816	1	69
471.986	1	48
472.157	1	55
472.327	1	52
472.497	1	59
472.668	1	47
472.838	1	49
473.009	1	52
473.179	1	71
473.349	1	46
473.520	1	58
473.690	1	53
473.860	1	55
474.031	1	70
474.201	1	63
474.371	1	59
474.542	1	65
474.712	1	46
474.882	1	60
475.053	1	49
475.223	1	50
475.394	1	38
475.564	1	53
475.734	1	54
475.905	1	61
476.075	1	45
476.245	1	46
476.416	1	52
476.586	1	51
476.756	1	50
476.927	1	74
477.097	1	55
477.267	1	52
477.438	1	45
477.608	1	54
477.778	1	54
477.949	1	60
478.119	1	47
478.289	1	43
478.460	1	54
478.630	1	64
478.800	1	55
478.971	1	49
479.141	1	46
479.311	1	40
479.482	1	38
479.652	1	65
479.822	1	46
479.993	1	57
480.163	1	52
480.333	1	58
480.504	1	44
480.674	1	42
480.844	1	43
481.015	1	51
481.185	1	57
481.355	1	40
481.525	1	44
481.696	1	44
481.866	1	54
482.036	1	58
482.207	1	57
482.377	1	52
482.547	1	45
482.718	1	45
482.888	1	50
483.058	1	61
483.229	1	50
483.399	1	38
483.569	1	45
483.740	1	47
483.910	1	52
484.080	1	64
484.250	1	49
484.421	1	50
484.591	1	51
484.761	1	44
484.932	1	62
485.102	1	49
485.272	1	47
485.443	1	45
485.613	1	40
485.783	1	51
485.953	1	47
486.124	1	55
486.294	1	46
486.464	1	47
486.635	1	31
486.805	1	49
486.975	1	43
487.146	1	41
487.316	1	37
487.486	1	46
487.656	1	58
487.827	1	46
487.997	1	37
488.167	1	48
488.338	1	53
488.508	1	43
488.678	1	47
488.848	1	49
489.019	1	33
489.189	1	28
489.359	1	52
489.529	1	39
489.700	1	35
489.870	1	40
490.040	1	34
490.211	1	41
490.381	1	54
490.551	1	41
490.721	1	54
490.892	1	51
491.062	1	45
491.232	1	42
491.402	1	26
491.573	1	40
491.743	1	42
491.913	1	47
492.084	1	41
492.254	1	55
492.424	1	34
492.594	1	36
492.765	1	38
492.935	1	28
493.105	1	37
493.275	1	40
493.446	1	46
493.616	1	37
493.786	1	38
493.956	1	46
494.127	1	44
494.297	1	45
494.467	1	43
494.637	1	38
494.808	1	44
494.978	1	26
495.148	1	47
495.318	1	46
495.489	1	43
495.659	1	39
495.829	1	43
495.999	1	31
496.170	1	45
496.340	1	39
496.510	1	45
496.680	1	39
496.851	1	38
497.021	1	44
497.191	1	35
497.361	1	46
497.532	1	42
497.702	1	39
497.872	1	37
498.042	1	57
498.213	1	47
498.383	1	33
498.553	1	41
498.723	1	39
498.894	1	48
499.064	1	32
499.234	1	37
499.404	1	39
499.574	1	37
499.745	1	32
499.915	1	29
500.085	1	38
500.255	1	29
500.426	1	29
500.596	1	41
500.766	1	34
500.936	1	38
501.106	1	48
501.277	1	45
501.447	1	37
501.617	1	41
501.787	1	41
501.958	1	28
502.128	1	34
502.298	1	47
502.468	1	40
502.638	1	46
502.809	1	42
502.979	1	43
503.149	1	33
503.319	1	34
503.489	1	29
503.660	1	37
503.830	1	37
504.000	1	31
504.170	1	42
504.340	1	33
504.511	1	37
504.681	1	33
504.851	1	29
505.021	1	32
505.192	1	36
505.362	1	44
505.532	1	37
505.702	1	31
505.872	1	28
506.043	1	23
506.213	1	32
506.383	1	33
506.553	1	45
506.723	1	31
506.893	1	32
507.064	1	30
507.234	1	28
507.404	1	41
507.574	1	28
507.744	1	34
507.915	1	30
508.085	1	35
508.255	1	24
508.425	1	21
508.595	1	24
508.766	1	30
508.936	1	18
509.106	1	42
509.276	1	17
509.446	1	19
509.616	1	42
509.787	1	33
509.957	1	39
510.127	1	35
510.297	1	33
510.467	1	38
510.638	1	23
510.808	1	29
510.978	1	28
511.148	1	23
511.318	1	49
511.488	1	19
511.659	1	14
511.829	1	28
511.999	1	25
512.169	1	18
512.339	1	36
512.509	1	31
512.680	1	27
512.850	1	33
513.020	1	39
513.190	1	26
513.360	1	23
513.530	1	28
513.700	1	44
513.871	1	24
514.041	1	31
514.211	1	41
514.381	1	23
514.551	1	31
514.721	1	25
514.892	1	23
515.062	1	26
515.232	1	25
515.402	1	26
515.572	1	25
515.742	1	34
515.912	1	36
516.083	1	28
516.253	1	30
516.423	1	17
516.593	1	19
516.763	1	26
516.933	1	17
517.104	1	28
517.274	1	25
517.444	1	21
517.614	1	32
517.784	1	23
517.954	1	29
518.124	1	12
518.294	1	24
518.465	1	20
518.635	1	22
518.805	1	24
518.975	1	30
519.145	1	18
519.315	1	30
519.485	1	18
519.656	1	30
519.826	1	30
519.996	1	16
520.166	1	24
520.336	1	35
520.506	1	25
520.676	1	28
520.846	1	20
521.017	1	28
521.187	1	28
521.357	1	16
521.527	1	28
521.697	1	23
521.867	1	23
522.037	1	25
522.207	1	21
522.377	1	20
522.548	1	21
522.718	1	30
522.888	1	17
523.058	1	17
523.228	1	26
523.398	1	17
523.568	1	24
523.738	1	26
523.909	1	22
524.079	1	24
524.249	1	20
524.419	1	26
524.589	1	24
524.759	1	21
524.929	1	21
525.099	1	33
525.269	1	17
525.439	1	17
525.610	1	18
525.780	1	24
525.950	1	18
526.120	1	27
526.290	1	27
526.460	1	24
526.630	1	21
526.800	1	24
526.970	1	28
527.140	1	30
527.311	1	12
527.481	1	12
527.651	1	25
527.821	1	15
527.991	1	25
528.161	1	22
528.331	1	18
528.501	1	27
528.671	1	15
528.841	1	17
529.011	1	10
529.181	1	33
529.352	1	19
529.522	1	22
529.692	1	24
529.862	1	23
530.032	1	33
530.202	1	19
530.372	1	17
530.542	1	31
530.712	1	9
530.882	1	13
531.052	1	17
531.222	1	24
531.392	1	21
531.563	1	14
531.733	1	26
531.903	1	23
532.073	1	21
532.243	1	23
532.413	1	14
532.583	1	18
532.753	1	16
532.923	1	25
533.093	1	6
533.263	1	16
533.433	1	28
533.603	1	18
533.773	1	15
533.943	1	16
534.113	1	30
534.284	1	26
534.454	1	17
534.624	1	13
534.794	1	22
534.964	1	24
535.134	1	13
535.304	1	26
535.474	1	6
535.644	1	26
535.814	1	21
535.984	1	16
536.154	1	16
536.324	1	18
536.494	1	20
536.664	1	7
536.834	1	14
537.004	1	14
537.174	1	22
537.344	1	41
537.514	1	22
537.685	1	12
537.855	1	17
538.025	1	12
538.195	1	21
538.365	1	20
538.535	1	17
538.705	1	15
538.875	1	15
539.045	1	19
539.215	1	30
539.385	1	0
539.555	1	15
539.725	1	19
539.895	1	19
540.065	1	9
540.235	1	16
540.405	1	19
540.575	1	23
540.745	1	12
540.915	1	20
541.085	1	20
541.255	1	24
541.425	1	8
541.595	1	8
541.765	1	15
541.935	1	26
542.105	1	19
542.275	1	10
542.445	1	23
542.615	1	15
542.785	1	17
542.955	1	19
543.125	1	15
543.295	1	28
543.465	1	16
543.635	1	10
543.805	1	16
543.975	1	3
544.145	1	21
544.315	1	12
544.485	1	10
544.655	1	17
544.825	1	18
544.995	1	24
545.165	1	24
545.335	1	14
545.505	1	15
545.675	1	19
545.845	1	1
546.015	1	11
546.185	1	17
546.355	1	4
546.525	1	12
546.695	1	12
546.865	1	7
547.035	1	22
547.205	1	18
547.375	1	17
547.545	1	7
547.715	1	13
547.885	1	16
548.055	1	9
548.225	1	10
548.395	1	25
548.565	1	14
548.735	1	24
548.905	1	12
549.075	1	19
549.245	1	17
549.415	1	20
549.585	1	21
549.755	1	5
549.925	1	3
550.095	1	8
550.265	1	4
550.435	1	15
550.605	1	9
550.775	1	16
550.945	1	16
551.115	1	15
551.285	1	13
551.455	1	7
551.625	1	14
551.795	1	14
551.965	1	11
552.135	1	4
552.305	1	4
552.475	1	20
552.645	1	27
552.815	1	12
552.985	1	18
553.155	1	6
553.325	1	8
553.495	1	12
553.665	1	9
553.835	1	3
554.004	1	18
554.174	1	3
554.344	1	11
554.514	1	18
554.684	1	9
554.854	1	14
555.024	1	25
555.194	1	17
555.364	1	12
555.534	1	5
555.704	1	7
555.874	1	14
556.044	1	11
556.214	1	4
556.384	1	15
556.554	1	13
556.724	1	13
556.894	1	16
557.064	1	1
557.234	1	5
557.404	1	12
557.573	1	8
557.743	1	18
557.913	1	4
558.083	1	10
558.253	1	18
558.423	1	9
558.593	1	20
558.763	1	14
558.933	1	16
559.103	1	18
559.273	1	6
559.443	1	10
559.613	1	12
559.783	1	6
559.953	1	21
560.122	1	9
560.292	1	15
560.462	1	14
560.632	1	10
560.802	1	10
560.972	1	11
561.142	1	14
561.312	1	7
561.482	1	11
561.652	1	21
561.822	1	9
561.992	1	19
562.162	1	5
562.331	1	-7
562.501	1	10
562.671	1	19
562.841	1	17
563.011	1	19
563.181	1	24
563.351	1	10
563.521	1	18
563.691	1	5
563.861	1	20
564.031	1	13
564.201	1	7
564.370	1	21
564.540	1	11
564.710	1	8
564.880	1	25
565.050	1	10
565.220	1	9
565.390	1	16
565.560	1	18
565.730	1	15
565.900	1	-2
566.069	1	19
566.239	1	4
566.409	1	12
566.579	1	15
566.749	1	27
566.919	1	14
567.089	1	-1
567.259	1	14
567.429	1	11
567.599	1	7
567.768	1	3
567.938	1	2
568.108	1	13
568.278	1	14
568.448	1	14
568.618	1	18
568.788	1	16
568.958	1	17
569.128	1	-1
569.297	1	12
569.467	1	20
569.637	1	7
569.807	1	11
569.977	1	15
570.147	1	0
570.317	1	26
570.487	1	12
570.656	1	11
570.826	1	17
570.996	1	7
571.166	1	9
571.336	1	5
571.506	1	7
571.676	1	15
571.846	1	10
572.015	1	13
572.185	1	7
572.355	1	13
572.525	1	6
572.695	1	14
572.865	1	12
573.035	1	3
573.205	1	7
573.374	1	12
573.544	1	3
573.714	1	27
573.884	1	10
574.054	1	14
574.224	1	4
574.394	1	5
574.563	1	16
574.733	1	15
574.903	1	16
575.073	1	11
575.243	1	8
575.413	1	9
575.583	1	0
575.752	1	6
575.922	1	1
576.092	1	15
576.262	1	19
576.432	1	17
576.602	1	3
576.772	1	13
576.941	1	18
577.111	1	12
577.281	1	13
577.451	1	15
577.621	1	1
577.791	1	-4
577.960	1	6
578.130	1	-3
578.300	1	23
578.470	1	11
578.640	1	12
578.810	1	10
578.979	1	11
579.149	1	1
579.319	1	3
579.489	1	3
579.659	1	6
579.829	1	10
579.998	1	3
580.168	1	10
580.338	1	13
580.508	1	13
580.678	1	2
580.848	1	7
581.017	1	25
581.187	1	9
581.357	1	7
581.527	1	8
581.697	1	15
581.867	1	-2
582.036	1	12
582.206	1	15
582.376	1	7
582.546	1	7
582.716	1	6
582.885	1	14
583.055	1	8
583.225	1	4
583.395	1	12
583.565	1	14
583.735	1	0
583.904	1	6
584.074	1	14
584.244	1	18
584.414	1	5
584.584	1	-2
584.753	1	17
584.923	1	11
585.093	1	13
585.263	1	16
585.433	1	11
585.602	1	14
585.772	1	12
585.942	1	3
586.112	1	17
586.282	1	12
586.451	1	2
586.621	1	7
586.791	1	8
586.961	1	11
587.131	1	15
587.300	1	1
587.470	1	14
587.640	1	6
587.810	1	-1
587.980	1	13
588.149	1	16
588.319	1	9
588.489	1	12
588.659	1	5
588.829	1	6
588.998	1	7
589.168	1	8
589.338	1	17
589.508	1	8
589.677	1	5
589.847	1	9
590.017	1	9
590.187	1	12
590.357	1	11
590.526	1	21
590.696	1	17
590.866	1	12
591.036	1	7
591.205	1	4
591.375	1	8
591.545	1	5
591.715	1	16
591.885	1	11
592.054	1	17
592.224	1	8
592.394	1	13
592.564	1	2
592.733	1	18
592.903	1	16
593.073	1	19
593.243	1	10
593.412	1	5
593.582	1	14
593.752	1	19
593.922	1	-4
594.091	1	16
594.261	1	10
594.431	1	7
594.601	1	8
594.771	1	2
594.940	1	10
595.110	1	12
595.280	1	4
595.450	1	13
595.619	1	5
595.789	1	12
595.959	1	6
596.129	1	18
596.298	1	11
596.468	1	14
596.638	1	24
596.808	1	22
596.977	1	9
597.147	1	8
597.317	1	18
597.487	1	7
597.656	1	9
597.826	1	10
597.996	1	12
598.166	1	13
598.335	1	19
598.505	1	15
598.675	1	12
598.844	1	5
599.014	1	13
599.184	1	13
599.354	1	8
599.523	1	14
599.693	1	22
599.863	1	8
600.033	1	7
600.202	1	5
600.372	1	7
600.542	1	11
600.712	1	10
600.881	1	4
601.051	1	17
601.221	1	3
601.390	1	15
601.560	1	12
601.730	1	16
601.900	1	12
602.069	1	13
602.239	1	4
602.409	1	14
602.578	1	6
602.748	1	24
602.918	1	6
603.088	1	9
603.257	1	14
603.427	1	15
603.597	1	8
603.767	1	6
603.936	1	17
604.106	1	14
604.276	1	7
604.445	1	2
604.615	1	-6
604.785	1	15
604.954	1	11
605.124	1	11
605.294	1	6
605.464	1	19
605.633	1	14
605.803	1	7
605.973	1	10
606.142	1	16
606.312	1	6
606.482	1	13
606.652	1	25
606.821	1	8
606.991	1	17
607.161	1	21
607.330	1	3
607.500	1	7
607.670	1	7
607.839	1	5
608.009	1	8
608.179	1	11
608.348	1	30
608.518	1	10
608.688	1	19
608.858	1	11
609.027	1	14
609.197	1	18
609.367	1	17
609.536	1	1
609.706	1	19
609.876	1	11
610.045	1	17
610.215	1	13
610.385	1	23
610.554	1	8
610.724	1	25
610.894	1	7
611.063	1	-2
611.233	1	6
611.403	1	15
611.572	1	14
611.742	1	10
611.912	1	11
612.081	1	3
612.251	1	16
612.421	1	9
612.590	1	12
612.760	1	14
612.930	1	0
613.099	1	9
613.269	1	13
613.439	1	18
613.608	1	23
613.778	1	4
613.948	1	21
614.117	1	22
614.287	1	8
614.457	1	8
614.626	1	9
614.796	1	9
614.966	1	12
615.135	1	9
615.305	1	15
615.475	1	21
615.644	1	17
615.814	1	5
615.984	1	16
616.153	1	0
616.323	1	10
616.493	1	13
616.662	1	21
616.832	1	20
617.002	1	22
617.171	1	7
617.341	1	17
617.511	1	21
617.680	1	16
617.850	1	15
618.019	1	13
618.189	1	15
618.359	1	13
618.528	1	21
618.698	1	11
618.868	1	22
619.037	1	15
619.207	1	16
619.377	1	14
619.546	1	7
619.716	1	3
619.885	1	22
620.055	1	18
620.225	1	19
620.394	1	17
620.564	1	29
620.734	1	11
620.903	1	17
621.073	1	19
621.242	1	-1
621.412	1	17
621.582	1	18
621.751	1	7
621.921	1	7
622.091	1	9
622.260	1	16
622.430	1	10
622.599	1	9
622.769	1	19
622.939	1	21
623.108	1	21
623.278	1	15
623.448	1	11
623.617	1	8
623.787	1	23
623.956	1	17
624.126	1	20
624.296	1	21
624.465	1	15
624.635	1	10
624.804	1	15
624.974	1	19
625.144	1	17
625.313	1	5
625.483	1	18
625.652	1	24
625.822	1	9
625.992	1	21
626.161	1	15
626.331	1	8
626.501	1	18
626.670	1	11
626.840	1	11
627.009	1	7
627.179	1	23
627.348	1	14
627.518	1	27
627.688	1	11
627.857	1	15
628.027	1	15
628.196	1	18
628.366	1	8
628.536	1	15
628.705	1	11
628.875	1	9
629.044	1	15
629.214	1	27
629.384	1	7
629.553	1	16
629.723	1	14
629.892	1	12
630.062	1	22
630.232	1	9
630.401	1	15
630.571	1	17
630.740	1	11
630.910	1	18
631.079	1	20
631.249	1	11
631.419	1	20
631.588	1	6
631.758	1	8
631.927	1	13
632.097	1	17
632.266	1	15
632.436	1	12
632.606	1	19
632.775	1	23
632.945	1	7
633.114	1	14
633.284	1	17
633.453	1	20
633.623	1	12
633.793	1	14
633.962	1	12
634.132	1	20
634.301	1	26
634.471	1	20
634.640	1	24
634.810	1	33
634.979	1	28
635.149	1	23
635.319	1	17
635.488	1	12
635.658	1	12
635.827	1	18
635.997	1	11
636.166	1	25
636.336	1	15
636.505	1	21
636.675	1	8
636.845	1	15
637.014	1	17
637.184	1	20
637.353	1	15
637.523	1	15
637.692	1	14
637.862	1	12
638.031	1	15
638.201	1	17
638.370	1	16
638.540	1	12
638.710	1	28
638.879	1	7
639.049	1	16
639.218	1	19
639.388	1	31
639.557	1	16
639.727	1	10
639.896	1	16
640.066	1	25
640.235	1	18
640.405	1	19
640.574	1	22
640.744	1	22
640.914	1	17
641.083	1	13
641.253	1	10
641.422	1	19
641.592	1	20
641.761	1	32
641.931	1	20
642.100	1	28
642.270	1	23
642.439	1	5
642.609	1	21
642.778	1	16
642.948	1	14
643.117	1	24
643.287	1	12
643.456	1	8
643.626	1	20
643.795	1	27
643.965	1	21
644.134	1	11
644.304	1	20
644.473	1	20
644.643	1	11
644.812	1	19
644.982	1	16
645.151	1	16
645.321	1	10
645.490	1	22
645.660	1	19
645.829	1	17
645.999	1	27
646.168	1	28
646.338	1	14
646.507	1	-4
646.677	1	19
646.846	1	24
647.016	1	20
647.185	1	25
647.355	1	20
647.524	1	22
647.694	1	21
647.863	1	9
648.033	1	22
648.202	1	20
648.372	1	21
648.541	1	28
648.711	1	18
648.880	1	23
649.050	1	21
649.219	1	6
649.389	1	20
649.558	1	29
649.728	1	22
649.897	1	17
650.067	1	15
650.236	1	19
650.406	1	11
650.575	1	15
650.745	1	17
650.914	1	13
651.084	1	17
651.253	1	27
651.423	1	9
651.592	1	30
651.762	1	22
651.931	1	21
652.101	1	26
652.270	1	19
652.440	1	17
652.609	1	22
652.778	1	17
652.948	1	10
653.117	1	37
653.287	1	19
653.456	1	27
653.626	1	12
653.795	1	28
653.965	1	29
654.134	1	19
654.304	1	23
654.473	1	16
654.643	1	24
654.812	1	26
654.982	1	32
655.151	1	18
655.320	1	26
655.490	1	10
655.659	1	19
655.829	1	8
655.998	1	21
656.168	1	10
656.337	1	21
656.507	1	19
656.676	1	16
656.846	1	20
657.015	1	29
657.184	1	23
657.354	1	13
657.523	1	20
657.693	1	13
657.862	1	15
658.032	1	12
658.201	1	16
658.371	1	24
658.540	1	30
658.709	1	28
658.879	1	7
659.048	1	17
659.218	1	27
659.387	1	16
659.557	1	14
659.726	1	22
659.895	1	23
660.065	1	26
660.234	1	22
660.404	1	33
660.573	1	18
660.743	1	20
660.912	1	21
661.081	1	21
661.251	1	12
661.420	1	20
661.590	1	23
661.759	1	21
661.929	1	35
662.098	1	11
662.267	1	33
662.437	1	16
662.606	1	24
662.776	1	24
662.945	1	25
663.115	1	4
663.284	1	25
663.453	1	25
663.623	1	25
663.792	1	27
663.962	1	15
664.131	1	12
664.300	1	22
664.470	1	7
664.639	1	22
664.809	1	13
664.978	1	22
665.148	1	26
665.317	1	18
665.486	1	19
665.656	1	10
665.825	1	23
665.995	1	26
666.164	1	34
666.333	1	29
666.503	1	26
666.672	1	19
666.842	1	13
667.011	1	27
667.180	1	15
667.350	1	25
667.519	1	19
667.689	1	36
667.858	1	30
668.027	1	23
668.197	1	28
668.366	1	29
668.536	1	11
668.705	1	30
668.874	1	27
669.044	1	13
669.213	1	21
669.382	1	39
669.552	1	18
669.721	1	16
669.891	1	22
670.060	1	13
670.229	1	27
670.399	1	21
670.568	1	34
670.738	1	17
670.907	1	25
671.076	1	25
671.246	1	16
671.415	1	24
671.584	1	17
671.754	1	26
671.923	1	28
672.093	1	34
672.262	1	31
672.431	1	36
672.601	1	22
672.770	1	22
672.939	1	15
673.109	1	24
673.278	1	33
673.448	1	14
673.617	1	19
673.786	1	14
