325.333	1	-4
325.504	1	10
325.675	1	-1
325.846	1	-1
326.017	1	3
326.188	1	-2
326.359	1	5
326.531	1	2
326.702	1	6
326.873	1	7
327.044	1	2
327.215	1	-4
327.386	1	-4
327.557	1	5
327.728	1	-4
327.899	1	2
328.070	1	1
328.241	1	14
328.412	1	3
328.583	1	6
328.754	1	-2
328.926	1	1
329.097	1	3
329.268	1	9
329.439	1	6
329.610	1	9
329.781	1	9
329.952	1	-2
330.123	1	2
330.294	1	11
330.465	1	12
330.636	1	2
330.807	1	11
330.978	1	9
331.149	1	4
331.320	1	5
331.492	1	17
331.663	1	0
331.834	1	8
332.005	1	2
332.176	1	3
332.347	1	7
332.518	1	0
332.689	1	9
332.860	1	-3
333.031	1	9
333.202	1	12
333.373	1	3
333.544	1	1
333.715	1	-6
333.886	1	0
334.057	1	-1
334.228	1	8
334.399	1	1
334.570	1	9
334.741	1	9
334.912	1	12
335.084	1	1
335.255	1	-1
335.426	1	-5
335.597	1	4
335.768	1	-14
335.939	1	4
336.110	1	0
336.281	1	-1
336.452	1	11
336.623	1	9
336.794	1	-1
336.965	1	4
337.136	1	-3
337.307	1	14
337.478	1	4
337.649	1	5
337.820	1	-2
337.991	1	8
338.162	1	-4
338.333	1	1
338.504	1	-5
338.675	1	5
338.846	1	5
339.017	1	8
339.188	1	6
339.359	1	1
339.530	1	3
339.701	1	2
339.872	1	0
340.043	1	5
340.214	1	10
340.385	1	7
340.556	1	7
340.727	1	-2
340.898	1	5
341.069	1	3
341.240	1	8
341.411	1	0
341.582	1	7
341.753	1	-6
341.924	1	11
342.095	1	2
342.266	1	-2
342.437	1	-8
342.608	1	-3
342.779	1	-3
342.950	1	2
343.121	1	2
343.292	1	2
343.463	1	10
343.634	1	13
343.805	1	6
343.976	1	9
344.147	1	4
344.318	1	6
344.489	1	-4
344.660	1	1
344.831	1	1
345.002	1	2
345.173	1	9
345.344	1	-8
345.515	1	17
345.686	1	-2
345.857	1	9
346.028	1	8
346.199	1	4
346.370	1	1
346.541	1	21
346.712	1	-3
346.883	1	8
347.054	1	-9
347.225	1	5
347.396	1	-4
347.567	1	15
347.738	1	14
347.909	1	3
348.080	1	-3
348.251	1	-3
348.422	1	7
348.593	1	3
348.764	1	-3
348.935	1	1
349.106	1	5
349.277	1	11
349.448	1	9
349.619	1	12
349.790	1	3
349.961	1	1
350.132	1	3
350.303	1	12
350.474	1	7
350.645	1	-3
350.816	1	8
350.987	1	-2
351.157	1	-2
351.328	1	12
351.499	1	4
351.670	1	2
351.841	1	-6
352.012	1	7
352.183	1	-8
352.354	1	5
352.525	1	1
352.696	1	6
352.867	1	-1
353.038	1	4
353.209	1	14
353.380	1	6
353.551	1	6
353.722	1	-1
353.893	1	0
354.064	1	4
354.235	1	11
354.406	1	4
354.576	1	-2
354.747	1	5
354.918	1	12
355.089	1	12
355.260	1	7
355.431	1	9
355.602	1	12
355.773	1	3
355.944	1	5
356.115	1	-4
356.286	1	6
356.457	1	6
356.628	1	15
356.799	1	2
356.970	1	8
357.141	1	16
357.311	1	16
357.482	1	-1
357.653	1	-1
357.824	1	21
357.995	1	18
358.166	1	6
358.337	1	-11
358.508	1	9
358.679	1	3
358.850	1	2
359.021	1	0
359.192	1	8
359.363	1	8
359.533	1	4
359.704	1	12
359.875	1	17
360.046	1	13
360.217	1	-1
360.388	1	8
360.559	1	8
360.730	1	7
360.901	1	4
361.072	1	6
361.243	1	-2
361.414	1	5
361.584	1	8
361.755	1	12
361.926	1	0
362.097	1	3
362.268	1	-1
362.439	1	2
362.610	1	-2
362.781	1	7
362.952	1	11
363.123	1	14
363.293	1	9
363.464	1	-5
363.635	1	-1
363.806	1	15
363.977	1	4
364.148	1	-5
364.319	1	9
364.490	1	2
364.661	1	15
364.832	1	20
365.002	1	11
365.173	1	4
365.344	1	4
365.515	1	2
365.686	1	7
365.857	1	18
366.028	1	-8
366.199	1	12
366.370	1	16
366.540	1	19
366.711	1	8
366.882	1	5
367.053	1	11
367.224	1	-7
367.395	1	13
367.566	1	9
367.737	1	10
367.908	1	10
368.078	1	18
368.249	1	13
368.420	1	8
368.591	1	14
368.762	1	10
368.933	1	2
369.104	1	8
369.274	1	-3
369.445	1	8
369.616	1	13
369.787	1	13
369.958	1	11
370.129	1	7
370.300	1	-1
370.471	1	18
370.641	1	8
370.812	1	10
370.983	1	14
371.154	1	15
371.325	1	10
371.496	1	3
371.667	1	15
371.837	1	9
372.008	1	7
372.179	1	11
372.350	1	1
372.521	1	13
372.692	1	17
372.863	1	9
373.033	1	9
373.204	1	6
373.375	1	15
373.546	1	14
373.717	1	9
373.888	1	12
374.059	1	14
374.229	1	13
374.400	1	2
374.571	1	2
374.742	1	9
374.913	1	4
375.084	1	15
375.254	1	11
375.425	1	2
375.596	1	7
375.767	1	0
375.938	1	2
376.109	1	6
376.279	1	-1
376.450	1	11
376.621	1	16
376.792	1	4
376.963	1	6
377.134	1	12
377.304	1	12
377.475	1	6
377.646	1	5
377.817	1	-10
377.988	1	-1
378.159	1	2
378.329	1	14
378.500	1	9
378.671	1	4
378.842	1	0
379.013	1	15
379.184	1	12
379.354	1	-7
379.525	1	4
379.696	1	3
379.867	1	10
380.038	1	6
380.209	1	0
380.379	1	8
380.550	1	13
380.721	1	21
380.892	1	3
381.063	1	4
381.233	1	2
381.404	1	14
381.575	1	13
381.746	1	7
381.917	1	5
382.087	1	11
382.258	1	8
382.429	1	13
382.600	1	5
382.771	1	14
382.941	1	10
383.112	1	10
383.283	1	2
383.454	1	7
383.625	1	15
383.795	1	10
383.966	1	5
384.137	1	4
384.308	1	10
384.479	1	1
384.649	1	19
384.820	1	9
384.991	1	9
385.162	1	8
385.333	1	11
385.503	1	6
385.674	1	12
385.845	1	10
386.016	1	1
386.187	1	3
386.357	1	13
386.528	1	4
386.699	1	8
386.870	1	7
387.041	1	4
387.211	1	8
387.382	1	5
387.553	1	11
387.724	1	5
387.894	1	5
388.065	1	6
388.236	1	0
388.407	1	13
388.578	1	1
388.748	1	11
388.919	1	14
389.090	1	13
389.261	1	19
389.431	1	18
389.602	1	10
389.773	1	14
389.944	1	5
390.114	1	12
390.285	1	6
390.456	1	0
390.627	1	8
390.798	1	19
390.968	1	3
391.139	1	5
391.310	1	30
391.481	1	5
391.651	1	20
391.822	1	8
391.993	1	13
392.164	1	-1
392.334	1	9
392.505	1	5
392.676	1	15
392.847	1	6
393.017	1	18
393.188	1	7
393.359	1	11
393.530	1	18
393.700	1	11
393.871	1	2
394.042	1	8
394.213	1	4
394.383	1	22
394.554	1	8
394.725	1	11
394.896	1	8
395.066	1	6
395.237	1	10
395.408	1	17
395.579	1	18
395.749	1	21
395.920	1	4
396.091	1	11
396.262	1	9
396.432	1	9
396.603	1	9
396.774	1	4
396.945	1	15
397.115	1	9
397.286	1	1
397.457	1	12
397.627	1	12
397.798	1	5
397.969	1	6
398.140	1	11
398.310	1	4
398.481	1	6
398.652	1	18
398.823	1	7
398.993	1	6
399.164	1	9
399.335	1	11
399.505	1	5
399.676	1	5
399.847	1	12
400.018	1	5
400.188	1	6
400.359	1	13
400.530	1	0
400.700	1	16
400.871	1	16
401.042	1	8
401.213	1	9
401.383	1	1
401.554	1	11
401.725	1	20
401.895	1	18
402.066	1	9
402.237	1	16
402.408	1	15
402.578	1	12
402.749	1	17
402.920	1	7
403.090	1	9
403.261	1	4
403.432	1	11
403.603	1	9
403.773	1	23
403.944	1	4
404.115	1	17
404.285	1	13
404.456	1	19
404.627	1	6
404.797	1	-4
404.968	1	25
405.139	1	4
405.310	1	13
405.480	1	11
405.651	1	15
405.822	1	17
405.992	1	10
406.163	1	14
406.334	1	6
406.504	1	16
406.675	1	1
406.846	1	6
407.016	1	-1
407.187	1	19
407.358	1	-1
407.528	1	8
407.699	1	10
407.870	1	-1
408.041	1	19
408.211	1	11
408.382	1	22
408.553	1	1
408.723	1	22
408.894	1	12
409.065	1	10
409.235	1	14
409.406	1	5
409.577	1	15
409.747	1	11
409.918	1	10
410.089	1	11
410.259	1	24
410.430	1	8
410.601	1	14
410.771	1	14
410.942	1	21
411.113	1	-4
411.283	1	12
411.454	1	3
411.625	1	7
411.795	1	17
411.966	1	11
412.137	1	15
412.307	1	12
412.478	1	15
412.649	1	10
412.819	1	3
412.990	1	7
413.161	1	10
413.331	1	14
413.502	1	9
413.672	1	11
413.843	1	18
414.014	1	11
414.184	1	8
414.355	1	16
414.526	1	17
414.696	1	12
414.867	1	16
415.038	1	4
415.208	1	10
415.379	1	11
415.550	1	11
415.720	1	15
415.891	1	12
416.062	1	10
416.232	1	10
416.403	1	15
416.573	1	14
416.744	1	11
416.915	1	20
417.085	1	12
417.256	1	25
417.427	1	15
417.597	1	5
417.768	1	12
417.939	1	24
418.109	1	4
418.280	1	9
418.450	1	15
418.621	1	10
418.792	1	4
418.962	1	20
419.133	1	11
419.304	1	16
419.474	1	8
419.645	1	7
419.815	1	16
419.986	1	14
420.157	1	-1
420.327	1	15
420.498	1	4
420.669	1	8
420.839	1	14
421.010	1	17
421.180	1	6
421.351	1	14
421.522	1	3
421.692	1	10
421.863	1	7
422.033	1	24
422.204	1	10
422.375	1	13
422.545	1	11
422.716	1	14
422.886	1	4
423.057	1	4
423.228	1	10
423.398	1	18
423.569	1	12
423.740	1	3
423.910	1	13
424.081	1	12
424.251	1	-4
424.422	1	11
424.593	1	8
424.763	1	14
424.934	1	9
425.104	1	11
425.275	1	14
425.445	1	16
425.616	1	8
425.787	1	0
425.957	1	16
426.128	1	-2
426.298	1	7
426.469	1	3
426.640	1	16
426.810	1	4
426.981	1	9
427.151	1	15
427.322	1	19
427.493	1	6
427.663	1	8
427.834	1	11
428.004	1	7
428.175	1	1
428.345	1	5
428.516	1	13
428.687	1	11
428.857	1	9
429.028	1	8
429.198	1	1
429.369	1	10
429.540	1	4
429.710	1	11
429.881	1	9
430.051	1	7
430.222	1	13
430.392	1	20
430.563	1	13
430.734	1	9
430.904	1	14
431.075	1	15
431.245	1	-2
431.416	1	7
431.586	1	11
431.757	1	-2
431.927	1	11
432.098	1	24
432.269	1	15
432.439	1	19
432.610	1	17
432.780	1	20
432.951	1	2
433.121	1	0
433.292	1	17
433.462	1	9
433.633	1	13
433.804	1	25
433.974	1	-3
434.145	1	3
434.315	1	15
434.486	1	12
434.656	1	12
434.827	1	11
434.997	1	11
435.168	1	11
435.339	1	4
435.509	1	10
435.680	1	6
435.850	1	10
436.021	1	14
436.191	1	11
436.362	1	10
436.532	1	19
436.703	1	-1
436.873	1	16
437.044	1	-1
437.214	1	18
437.385	1	16
437.556	1	16
437.726	1	4
437.897	1	5
438.067	1	2
438.238	1	1
438.408	1	2
438.579	1	11
438.749	1	9
438.920	1	7
439.090	1	9
439.261	1	-1
439.431	1	3
439.602	1	10
439.772	1	15
439.943	1	10
440.113	1	1
440.284	1	8
440.455	1	18
440.625	1	15
440.796	1	7
440.966	1	2
441.137	1	11
441.307	1	14
441.478	1	3
441.648	1	1
441.819	1	1
441.989	1	12
442.160	1	-13
442.330	1	20
442.501	1	12
442.671	1	-4
442.842	1	11
443.012	1	5
443.183	1	4
443.353	1	9
443.524	1	-3
443.694	1	9
443.865	1	-1
444.035	1	3
444.206	1	12
444.376	1	6
444.547	1	13
444.717	1	14
444.888	1	6
445.058	1	25
445.229	1	9
445.399	1	11
445.570	1	21
445.740	1	9
445.911	1	1
446.081	1	6
446.252	1	14
446.422	1	9
446.593	1	-5
446.763	1	17
446.934	1	-5
447.104	1	12
447.275	1	0
447.445	1	-3
447.616	1	4
447.786	1	9
447.957	1	14
448.127	1	6
448.298	1	10
448.468	1	9
448.639	1	7
448.809	1	20
448.979	1	2
449.150	1	13
449.320	1	8
449.491	1	4
449.661	1	6
449.832	1	1
450.002	1	4
450.173	1	12
450.343	1	13
450.514	1	9
450.684	1	5
450.855	1	7
451.025	1	10
451.196	1	3
451.366	1	4
451.537	1	6
451.707	1	13
451.878	1	3
452.048	1	6
452.218	1	5
452.389	1	23
452.559	1	8
452.730	1	5
452.900	1	8
453.071	1	7
453.241	1	-4
453.412	1	5
453.582	1	14
453.753	1	2
453.923	1	10
454.093	1	15
454.264	1	-5
454.434	1	8
454.605	1	3
454.775	1	6
454.946	1	3
455.116	1	5
455.287	1	16
455.457	1	9
455.628	1	2
455.798	1	-6
455.968	1	8
456.139	1	16
456.309	1	13
456.480	1	9
456.650	1	5
456.821	1	10
456.991	1	3
457.161	1	9
457.332	1	16
457.502	1	10
457.673	1	7
457.843	1	4
458.014	1	12
458.184	1	15
458.355	1	10
458.525	1	9
458.695	1	13
458.866	1	18
459.036	1	12
459.207	1	11
459.377	1	2
459.548	1	16
459.718	1	0
459.888	1	12
460.059	1	7
460.229	1	13
460.400	1	11
460.570	1	9
460.740	1	17
460.911	1	11
461.081	1	0
461.252	1	8
461.422	1	3
461.593	1	2
461.763	1	12
461.933	1	8
462.104	1	17
462.274	1	5
462.445	1	11
462.615	1	17
462.785	1	10
462.956	1	3
463.126	1	13
463.297	1	14
463.467	1	13
463.638	1	9
463.808	1	16
463.978	1	7
464.149	1	7
464.319	1	1
464.490	1	4
464.660	1	21
464.830	1	4
465.001	1	2
465.171	1	-5
465.342	1	7
465.512	1	3
465.682	1	10
465.853	1	11
466.023	1	18
466.194	1	-4
466.364	1	6
466.534	1	1
466.705	1	7
466.875	1	8
467.045	1	17
467.216	1	4
467.386	1	13
467.557	1	19
467.727	1	-1
467.897	1	17
468.068	1	-9
468.238	1	14
468.409	1	13
468.579	1	12
468.749	1	17
468.920	1	12
469.090	1	6
469.260	1	29
469.431	1	7
469.601	1	12
469.772	1	-2
469.942	1	3
470.112	1	12
470.283	1	11
470.453	1	9
470.623	1	9
470.794	1	7
470.964	1	17
471.135	1	17
471.305	1	3
471.475	1	15
471.646	1	-3
471.816	1	8
471.986	1	4
472.157	1	-6
472.327	1	8
472.497	1	10
472.668	1	5
472.838	1	9
473.009	1	3
473.179	1	13
473.349	1	0
473.520	1	4
473.690	1	10
473.860	1	6
474.031	1	2
474.201	1	8
474.371	1	11
474.542	1	16
474.712	1	7
474.882	1	3
475.053	1	1
475.223	1	-5
475.394	1	-2
475.564	1	5
475.734	1	4
475.905	1	9
476.075	1	7
476.245	1	12
476.416	1	4
476.586	1	1
476.756	1	9
476.927	1	5
477.097	1	19
477.267	1	5
477.438	1	4
477.608	1	13
477.778	1	14
477.949	1	15
478.119	1	-4
478.289	1	-7
478.460	1	9
478.630	1	14
478.800	1	8
478.971	1	8
479.141	1	2
479.311	1	3
479.482	1	-8
479.652	1	9
479.822	1	-3
479.993	1	16
480.163	1	6
480.333	1	18
480.504	1	5
480.674	1	-6
480.844	1	-2
481.015	1	5
481.185	1	14
481.355	1	-7
481.525	1	-5
481.696	1	0
481.866	1	2
482.036	1	4
482.207	1	10
482.377	1	13
482.547	1	6
482.718	1	-3
482.888	1	-7
483.058	1	5
483.229	1	11
483.399	1	2
483.569	1	3
483.740	1	6
483.910	1	8
484.080	1	6
484.250	1	-2
484.421	1	12
484.591	1	5
484.761	1	6
484.932	1	16
485.102	1	3
485.272	1	3
485.443	1	2
485.613	1	-6
485.783	1	7
485.953	1	0
486.124	1	6
486.294	1	9
486.464	1	4
486.635	1	5
486.805	1	17
486.975	1	11
487.146	1	-2
487.316	1	-4
487.486	1	-1
487.656	1	11
487.827	1	9
487.997	1	-2
488.167	1	15
488.338	1	6
488.508	1	4
488.678	1	5
488.848	1	0
489.019	1	9
489.189	1	-2
489.359	1	3
489.529	1	-1
489.700	1	2
489.870	1	7
490.040	1	-5
490.211	1	3
490.381	1	16
490.551	1	0
490.721	1	7
490.892	1	10
491.062	1	6
491.232	1	3
491.402	1	0
491.573	1	1
491.743	1	-1
491.913	1	3
492.084	1	10
492.254	1	20
492.424	1	0
492.594	1	4
492.765	1	2
492.935	1	2
493.105	1	-4
493.275	1	8
493.446	1	7
493.616	1	-5
493.786	1	3
493.956	1	2
494.127	1	1
494.297	1	11
494.467	1	0
494.637	1	14
494.808	1	1
494.978	1	9
495.148	1	13
495.318	1	2
495.489	1	-1
495.659	1	6
495.829	1	3
495.999	1	5
496.170	1	5
496.340	1	11
496.510	1	12
496.680	1	7
496.851	1	17
497.021	1	11
497.191	1	-1
497.361	1	12
497.532	1	6
497.702	1	3
497.872	1	0
498.042	1	21
498.213	1	-1
498.383	1	4
498.553	1	8
498.723	1	-3
498.894	1	7
499.064	1	-6
499.234	1	11
499.404	1	7
499.574	1	5
499.745	1	4
499.915	1	-10
500.085	1	2
500.255	1	1
500.426	1	-4
500.596	1	9
500.766	1	11
500.936	1	13
501.106	1	7
501.277	1	4
501.447	1	6
501.617	1	9
501.787	1	6
501.958	1	-2
502.128	1	11
502.298	1	22
502.468	1	6
502.638	1	18
502.809	1	10
502.979	1	-3
503.149	1	0
503.319	1	10
503.489	1	9
503.660	1	5
503.830	1	5
504.000	1	10
504.170	1	7
504.340	1	-3
504.511	1	5
504.681	1	-8
504.851	1	-3
505.021	1	1
505.192	1	-2
505.362	1	10
505.532	1	4
505.702	1	-1
505.872	1	3
506.043	1	-20
506.213	1	2
506.383	1	5
506.553	1	-1
506.723	1	7
506.893	1	2
507.064	1	18
507.234	1	-5
507.404	1	9
507.574	1	-4
507.744	1	2
507.915	1	2
508.085	1	8
508.255	1	2
508.425	1	6
508.595	1	-2
508.766	1	0
508.936	1	3
509.106	1	-2
509.276	1	7
509.446	1	-3
509.616	1	19
509.787	1	5
509.957	1	3
510.127	1	5
510.297	1	2
510.467	1	1
510.638	1	-8
510.808	1	-2
510.978	1	5
511.148	1	-1
511.318	1	10
511.488	1	9
511.659	1	-7
511.829	1	-1
511.999	1	-1
512.169	1	0
512.339	1	2
512.509	1	9
512.680	1	0
512.850	1	6
513.020	1	-1
513.190	1	0
513.360	1	2
513.530	1	1
513.700	1	5
513.871	1	9
514.041	1	15
514.211	1	11
514.381	1	-4
514.551	1	2
514.721	1	0
514.892	1	6
515.062	1	1
515.232	1	1
515.402	1	10
515.572	1	-1
515.742	1	-1
515.912	1	10
516.083	1	4
516.253	1	5
516.423	1	8
516.593	1	3
516.763	1	3
516.933	1	4
517.104	1	-2
517.274	1	13
517.444	1	-2
517.614	1	5
517.784	1	-3
517.954	1	-1
518.124	1	-6
518.294	1	9
518.465	1	0
518.635	1	1
518.805	1	-4
518.975	1	1
519.145	1	8
519.315	1	3
519.485	1	3
519.656	1	4
519.826	1	3
519.996	1	0
520.166	1	4
520.336	1	8
520.506	1	4
520.676	1	0
520.846	1	12
521.017	1	-10
521.187	1	6
521.357	1	2
521.527	1	5
521.697	1	-4
521.867	1	0
522.037	1	6
522.207	1	2
522.377	1	-9
522.548	1	5
522.718	1	8
522.888	1	-3
523.058	1	-1
523.228	1	3
523.398	1	-3
523.568	1	-4
523.738	1	4
523.909	1	3
524.079	1	2
524.249	1	-4
524.419	1	0
524.589	1	6
524.759	1	7
524.929	1	8
525.099	1	9
525.269	1	10
525.439	1	4
525.610	1	8
525.780	1	-4
525.950	1	1
526.120	1	6
526.290	1	7
526.460	1	1
526.630	1	0
526.800	1	-2
526.970	1	0
527.140	1	10
527.311	1	-3
527.481	1	2
527.651	1	5
527.821	1	1
527.991	1	11
528.161	1	-8
528.331	1	8
528.501	1	7
528.671	1	9
528.841	1	0
529.011	1	10
529.181	1	9
529.352	1	-15
529.522	1	-1
529.692	1	2
529.862	1	5
530.032	1	3
530.202	1	9
530.372	1	2
530.542	1	3
530.712	1	-3
530.882	1	-2
531.052	1	4
531.222	1	0
531.392	1	0
531.563	1	-1
531.733	1	11
531.903	1	0
532.073	1	6
532.243	1	6
532.413	1	7
532.583	1	-7
532.753	1	1
532.923	1	19
533.093	1	-3
533.263	1	3
533.433	1	15
533.603	1	-3
533.773	1	2
533.943	1	-1
534.113	1	11
534.284	1	5
534.454	1	-7
534.624	1	-7
534.794	1	6
534.964	1	3
535.134	1	2
535.304	1	12
535.474	1	-10
535.644	1	6
535.814	1	-4
535.984	1	7
536.154	1	3
536.324	1	-2
536.494	1	13
536.664	1	-5
536.834	1	0
537.004	1	-3
537.174	1	-1
537.344	1	12
537.514	1	-3
537.685	1	8
537.855	1	5
538.025	1	-7
538.195	1	2
538.365	1	10
538.535	1	7
538.705	1	-2
538.875	1	0
539.045	1	5
539.215	1	15
539.385	1	4
539.555	1	0
539.725	1	7
539.895	1	18
540.065	1	4
540.235	1	-6
540.405	1	8
540.575	1	0
540.745	1	9
540.915	1	11
541.085	1	6
541.255	1	3
541.425	1	-3
541.595	1	6
541.765	1	1
541.935	1	7
542.105	1	-5
542.275	1	5
542.445	1	1
542.615	1	15
542.785	1	8
542.955	1	-7
543.125	1	-4
543.295	1	9
543.465	1	-3
543.635	1	-9
543.805	1	7
543.975	1	-7
544.145	1	7
544.315	1	5
544.485	1	13
544.655	1	7
544.825	1	-1
544.995	1	8
545.165	1	2
545.335	1	-7
545.505	1	-2
545.675	1	9
545.845	1	-5
546.015	1	9
546.185	1	-9
546.355	1	-3
546.525	1	3
546.695	1	3
546.865	1	-11
547.035	1	3
547.205	1	8
547.375	1	2
547.545	1	5
547.715	1	5
547.885	1	9
548.055	1	2
548.225	1	-5
548.395	1	13
548.565	1	-5
548.735	1	5
548.905	1	5
549.075	1	15
549.245	1	12
549.415	1	7
549.585	1	12
549.755	1	1
549.925	1	-8
550.095	1	-6
550.265	1	2
550.435	1	-2
550.605	1	1
550.775	1	6
550.945	1	-1
551.115	1	-7
551.285	1	-3
551.455	1	4
551.625	1	5
551.795	1	-5
551.965	1	1
552.135	1	-9
552.305	1	0
552.475	1	8
552.645	1	8
552.815	1	7
552.985	1	-4
553.155	1	1
553.325	1	1
553.495	1	7
553.665	1	-1
553.835	1	-1
554.004	1	4
554.174	1	-2
554.344	1	-1
554.514	1	3
554.684	1	-3
554.854	1	-8
555.024	1	20
555.194	1	13
555.364	1	3
555.534	1	1
555.704	1	0
555.874	1	17
556.044	1	7
556.214	1	-14
556.384	1	3
556.554	1	-8
556.724	1	-10
556.894	1	1
557.064	1	5
557.234	1	0
557.404	1	10
557.573	1	-4
557.743	1	8
557.913	1	0
558.083	1	-12
558.253	1	-3
558.423	1	2
558.593	1	-3
558.763	1	0
558.933	1	5
559.103	1	6
559.273	1	0
559.443	1	-6
559.613	1	-4
559.783	1	8
559.953	1	2
560.122	1	1
560.292	1	-1
560.462	1	-1
560.632	1	11
560.802	1	7
560.972	1	14
561.142	1	-5
561.312	1	5
561.482	1	-2
561.652	1	0
561.822	1	-2
561.992	1	3
562.162	1	-1
562.331	1	-5
562.501	1	-2
562.671	1	3
562.841	1	11
563.011	1	12
563.181	1	10
563.351	1	0
563.521	1	5
563.691	1	-8
563.861	1	4
564.031	1	-1
564.201	1	4
564.370	1	9
564.540	1	11
564.710	1	12
564.880	1	9
565.050	1	-7
565.220	1	-2
565.390	1	1
565.560	1	7
565.730	1	3
565.900	1	-1
566.069	1	9
566.239	1	-5
566.409	1	6
566.579	1	-3
566.749	1	9
566.919	1	-1
567.089	1	-7
567.259	1	2
567.429	1	2
567.599	1	4
567.768	1	-9
567.938	1	-14
568.108	1	3
568.278	1	10
568.448	1	6
568.618	1	5
568.788	1	-1
568.958	1	11
569.128	1	3
569.297	1	12
569.467	1	-2
569.637	1	0
569.807	1	0
569.977	1	4
570.147	1	-8
570.317	1	19
570.487	1	0
570.656	1	-6
570.826	1	11
570.996	1	1
571.166	1	6
571.336	1	11
571.506	1	0
571.676	1	15
571.846	1	-1
572.015	1	4
572.185	1	4
572.355	1	5
572.525	1	-1
572.695	1	2
572.865	1	-2
573.035	1	-2
573.205	1	-4
573.374	1	5
573.544	1	-7
573.714	1	4
573.884	1	10
574.054	1	9
574.224	1	4
574.394	1	-7
574.563	1	-3
574.733	1	8
574.903	1	10
575.073	1	6
575.243	1	-8
575.413	1	9
575.583	1	6
575.752	1	2
575.922	1	-5
576.092	1	-2
576.262	1	17
576.432	1	5
576.602	1	-11
576.772	1	-4
576.941	1	8
577.111	1	0
577.281	1	0
577.451	1	11
577.621	1	4
577.791	1	-10
577.960	1	3
578.130	1	-2
578.300	1	5
578.470	1	3
578.640	1	-7
578.810	1	7
578.979	1	-2
579.149	1	-5
579.319	1	2
579.489	1	1
579.659	1	-7
579.829	1	3
579.998	1	0
580.168	1	-9
580.338	1	-1
580.508	1	2
580.678	1	-8
580.848	1	1
581.017	1	18
581.187	1	3
581.357	1	-6
581.527	1	-2
581.697	1	4
581.867	1	-5
582.036	1	-3
582.206	1	9
582.376	1	-6
582.546	1	-1
582.716	1	-2
582.885	1	4
583.055	1	-2
583.225	1	-10
583.395	1	4
583.565	1	15
583.735	1	-8
583.904	1	-4
584.074	1	13
584.244	1	12
584.414	1	2
584.584	1	0
584.753	1	12
584.923	1	2
585.093	1	-3
585.263	1	2
585.433	1	2
585.602	1	5
585.772	1	4
585.942	1	-6
586.112	1	4
586.282	1	4
586.451	1	-6
586.621	1	5
586.791	1	1
586.961	1	0
587.131	1	8
587.300	1	-13
587.470	1	-4
587.640	1	0
587.810	1	-5
587.980	1	4
588.149	1	11
588.319	1	2
588.489	1	12
588.659	1	-6
588.829	1	4
588.998	1	15
589.168	1	-1
589.338	1	-1
589.508	1	0
589.677	1	12
589.847	1	0
590.017	1	2
590.187	1	-4
590.357	1	-7
590.526	1	8
590.696	1	6
590.866	1	-5
591.036	1	-12
591.205	1	-7
591.375	1	3
591.545	1	0
591.715	1	3
591.885	1	-2
592.054	1	0
592.224	1	-4
592.394	1	3
592.564	1	-5
592.733	1	20
592.903	1	1
593.073	1	5
593.243	1	7
593.412	1	0
593.582	1	8
593.752	1	-3
593.922	1	-2
594.091	1	12
594.261	1	5
594.431	1	-2
594.601	1	1
594.771	1	-2
594.940	1	-5
595.110	1	5
595.280	1	7
595.450	1	-1
595.619	1	-7
595.789	1	-6
595.959	1	-2
596.129	1	-1
596.298	1	10
596.468	1	5
596.638	1	5
596.808	1	6
596.977	1	5
597.147	1	9
597.317	1	3
597.487	1	0
597.656	1	-10
597.826	1	-1
597.996	1	7
598.166	1	9
598.335	1	5
598.505	1	-4
598.675	1	-3
598.844	1	-6
599.014	1	-5
599.184	1	17
599.354	1	-7
599.523	1	1
599.693	1	6
599.863	1	11
600.033	1	-2
600.202	1	-7
600.372	1	3
600.542	1	2
600.712	1	1
600.881	1	5
601.051	1	1
601.221	1	3
601.390	1	6
601.560	1	-4
601.730	1	7
601.900	1	-3
602.069	1	-4
602.239	1	-12
602.409	1	6
602.578	1	6
602.748	1	5
602.918	1	-3
603.088	1	6
603.257	1	2
603.427	1	1
603.597	1	-1
603.767	1	6
603.936	1	9
604.106	1	3
604.276	1	-8
604.445	1	4
604.615	1	-6
604.785	1	-2
604.954	1	3
605.124	1	4
605.294	1	0
605.464	1	11
605.633	1	7
605.803	1	2
605.973	1	3
606.142	1	10
606.312	1	1
606.482	1	0
606.652	1	16
606.821	1	6
606.991	1	3
607.161	1	11
607.330	1	-11
607.500	1	1
607.670	1	-5
607.839	1	2
608.009	1	-6
608.179	1	0
608.348	1	13
608.518	1	3
608.688	1	5
608.858	1	0
609.027	1	5
609.197	1	5
609.367	1	-4
609.536	1	-3
609.706	1	-2
609.876	1	3
610.045	1	4
610.215	1	0
610.385	1	10
610.554	1	-3
610.724	1	11
610.894	1	7
611.063	1	-10
611.233	1	10
611.403	1	0
611.572	1	4
611.742	1	-4
611.912	1	2
612.081	1	10
612.251	1	3
612.421	1	0
612.590	1	-2
612.760	1	7
612.930	1	5
613.099	1	7
613.269	1	-2
613.439	1	6
613.608	1	10
613.778	1	8
613.948	1	7
614.117	1	3
614.287	1	3
614.457	1	-3
614.626	1	-8
614.796	1	-5
614.966	1	-2
615.135	1	-3
615.305	1	5
615.475	1	0
615.644	1	9
615.814	1	0
615.984	1	-1
616.153	1	9
616.323	1	-5
616.493	1	6
616.662	1	7
616.832	1	4
617.002	1	7
617.171	1	-9
617.341	1	-2
617.511	1	3
617.680	1	9
617.850	1	-3
618.019	1	9
618.189	1	-4
618.359	1	0
618.528	1	10
618.698	1	3
618.868	1	5
619.037	1	-4
619.207	1	6
619.377	1	11
619.546	1	6
619.716	1	0
619.885	1	14
620.055	1	10
620.225	1	4
620.394	1	7
620.564	1	11
620.734	1	0
620.903	1	10
621.073	1	9
621.242	1	-7
621.412	1	4
621.582	1	2
621.751	1	-4
621.921	1	10
622.091	1	-2
622.260	1	10
622.430	1	-6
622.599	1	9
622.769	1	3
622.939	1	10
623.108	1	11
623.278	1	7
623.448	1	3
623.617	1	-2
623.787	1	13
623.956	1	-9
624.126	1	12
624.296	1	-3
624.465	1	-1
624.635	1	-9
624.804	1	6
624.974	1	5
625.144	1	5
625.313	1	-3
625.483	1	6
625.652	1	6
625.822	1	8
625.992	1	8
626.161	1	-13
626.331	1	5
626.501	1	7
626.670	1	-5
626.840	1	-2
627.009	1	0
627.179	1	15
627.348	1	-1
627.518	1	17
627.688	1	-1
627.857	1	-6
628.027	1	6
628.196	1	8
628.366	1	8
628.536	1	0
628.705	1	1
628.875	1	-2
629.044	1	-9
629.214	1	1
629.384	1	3
629.553	1	5
629.723	1	-5
629.892	1	0
630.062	1	6
630.232	1	-5
630.401	1	3
630.571	1	8
630.740	1	-2
630.910	1	4
631.079	1	3
631.249	1	0
631.419	1	-2
631.588	1	-12
631.758	1	8
631.927	1	-5
632.097	1	9
632.266	1	4
632.436	1	-4
632.606	1	11
632.775	1	4
632.945	1	-9
633.114	1	2
633.284	1	-7
633.453	1	-9
633.623	1	9
633.793	1	5
633.962	1	-7
634.132	1	17
634.301	1	10
634.471	1	8
634.640	1	2
634.810	1	11
634.979	1	5
635.149	1	1
635.319	1	-2
635.488	1	-2
635.658	1	-9
635.827	1	3
635.997	1	6
636.166	1	12
636.336	1	7
636.505	1	11
636.675	1	-2
636.845	1	10
637.014	1	2
637.184	1	0
637.353	1	2
637.523	1	3
637.692	1	9
637.862	1	-4
638.031	1	5
638.201	1	6
638.370	1	-2
638.540	1	-2
638.710	1	4
638.879	1	-8
639.049	1	6
639.218	1	-1
639.388	1	5
639.557	1	0
639.727	1	2
639.896	1	7
640.066	1	-2
640.235	1	8
640.405	1	0
640.574	1	3
640.744	1	4
640.914	1	9
641.083	1	-5
641.253	1	0
641.422	1	3
641.592	1	-3
641.761	1	13
641.931	1	-2
642.100	1	5
642.270	1	7
642.439	1	0
642.609	1	5
642.778	1	5
642.948	1	-2
643.117	1	0
643.287	1	0
643.456	1	-14
643.626	1	5
643.795	1	9
643.965	1	-6
644.134	1	-3
644.304	1	10
644.473	1	12
644.643	1	-6
644.812	1	-2
644.982	1	4
645.151	1	5
645.321	1	7
645.490	1	4
645.660	1	0
645.829	1	-5
645.999	1	12
646.168	1	18
646.338	1	8
646.507	1	-10
646.677	1	13
646.846	1	5
647.016	1	11
647.185	1	5
647.355	1	0
647.524	1	-1
647.694	1	2
647.863	1	-10
648.033	1	3
648.202	1	7
648.372	1	-1
648.541	1	4
648.711	1	6
648.880	1	13
649.050	1	8
649.219	1	0
649.389	1	8
649.558	1	-1
649.728	1	-7
649.897	1	-5
650.067	1	-1
650.236	1	11
650.406	1	1
650.575	1	9
650.745	1	3
650.914	1	5
651.084	1	-1
651.253	1	-3
651.423	1	0
651.592	1	8
651.762	1	3
651.931	1	7
652.101	1	-3
652.270	1	3
652.440	1	12
652.609	1	4
652.778	1	8
652.948	1	-7
653.117	1	13
653.287	1	-6
653.456	1	14
653.626	1	0
653.795	1	-5
653.965	1	16
654.134	1	0
654.304	1	6
654.473	1	9
654.643	1	2
654.812	1	7
654.982	1	8
655.151	1	5
655.320	1	7
655.490	1	-5
655.659	1	5
655.829	1	-5
655.998	1	5
656.168	1	-2
656.337	1	8
656.507	1	1
656.676	1	-4
656.846	1	-1
657.015	1	16
657.184	1	-4
657.354	1	-1
657.523	1	6
657.693	1	-4
657.862	1	4
658.032	1	-2
658.201	1	0
658.371	1	0
658.540	1	15
658.709	1	10
658.879	1	-2
659.048	1	-6
659.218	1	-1
659.387	1	7
659.557	1	5
659.726	1	9
659.895	1	2
660.065	1	-8
660.234	1	10
660.404	1	18
660.573	1	2
660.743	1	7
660.912	1	10
661.081	1	1
661.251	1	-1
661.420	1	10
661.590	1	14
661.759	1	-2
661.929	1	18
662.098	1	2
662.267	1	11
662.437	1	-2
662.606	1	4
662.776	1	2
662.945	1	8
663.115	1	-12
663.284	1	-3
663.453	1	-1
663.623	1	4
663.792	1	4
663.962	1	1
664.131	1	1
664.300	1	2
664.470	1	-5
664.639	1	-7
664.809	1	3
664.978	1	9
665.148	1	14
665.317	1	7
665.486	1	6
665.656	1	1
665.825	1	2
665.995	1	1
666.164	1	5
666.333	1	10
666.503	1	18
666.672	1	9
666.842	1	-6
667.011	1	6
667.180	1	5
667.350	1	7
667.519	1	4
667.689	1	10
667.858	1	11
668.027	1	4
668.197	1	5
668.366	1	7
668.536	1	2
668.705	1	16
668.874	1	11
669.044	1	-4
669.213	1	5
669.382	1	16
669.552	1	1
669.721	1	-8
669.891	1	-6
670.060	1	-5
670.229	1	0
670.399	1	1
670.568	1	10
670.738	1	5
670.907	1	3
671.076	1	2
671.246	1	-17
671.415	1	11
671.584	1	1
671.754	1	-1
671.923	1	-5
672.093	1	12
672.262	1	5
672.431	1	20
672.601	1	6
672.770	1	-2
672.939	1	1
673.109	1	-4
673.278	1	12
673.448	1	1
673.617	1	-5
673.786	1	-9
