325.333	1	-4
325.504	1	7
325.675	1	9
325.846	1	2
326.017	1	7
326.188	1	9
326.359	1	4
326.531	1	-9
326.702	1	4
326.873	1	5
327.044	1	6
327.215	1	-2
327.386	1	-10
327.557	1	10
327.728	1	-6
327.899	1	6
328.070	1	2
328.241	1	8
328.412	1	-15
328.583	1	0
328.754	1	-3
328.926	1	1
329.097	1	-2
329.268	1	3
329.439	1	2
329.610	1	8
329.781	1	13
329.952	1	0
330.123	1	1
330.294	1	4
330.465	1	5
330.636	1	6
330.807	1	-8
330.978	1	9
331.149	1	-2
331.320	1	4
331.492	1	7
331.663	1	-1
331.834	1	4
332.005	1	-1
332.176	1	2
332.347	1	14
332.518	1	-1
332.689	1	8
332.860	1	0
333.031	1	11
333.202	1	18
333.373	1	7
333.544	1	-5
333.715	1	4
333.886	1	-6
334.057	1	2
334.228	1	6
334.399	1	6
334.570	1	11
334.741	1	4
334.912	1	6
335.084	1	5
335.255	1	0
335.426	1	-5
335.597	1	10
335.768	1	3
335.939	1	-1
336.110	1	1
336.281	1	3
336.452	1	19
336.623	1	5
336.794	1	1
336.965	1	4
337.136	1	1
337.307	1	7
337.478	1	-2
337.649	1	-5
337.820	1	-3
337.991	1	11
338.162	1	14
338.333	1	-1
338.504	1	-12
338.675	1	6
338.846	1	8
339.017	1	8
339.188	1	7
339.359	1	5
339.530	1	-8
339.701	1	-1
339.872	1	10
340.043	1	1
340.214	1	5
340.385	1	6
340.556	1	2
340.727	1	4
340.898	1	-5
341.069	1	12
341.240	1	12
341.411	1	10
341.582	1	9
341.753	1	2
341.924	1	10
342.095	1	-2
342.266	1	-11
342.437	1	-6
342.608	1	-5
342.779	1	2
342.950	1	3
343.121	1	3
343.292	1	11
343.463	1	6
343.634	1	9
343.805	1	1
343.976	1	0
344.147	1	0
344.318	1	-5
344.489	1	4
344.660	1	11
344.831	1	8
345.002	1	0
345.173	1	5
345.344	1	-7
345.515	1	4
345.686	1	4
345.857	1	9
346.028	1	15
346.199	1	2
346.370	1	2
346.541	1	18
346.712	1	-4
346.883	1	9
347.054	1	-6
347.225	1	-1
347.396	1	17
347.567	1	3
347.738	1	3
347.909	1	4
348.080	1	-5
348.251	1	-1
348.422	1	4
348.593	1	1
348.764	1	-1
348.935	1	-3
349.106	1	4
349.277	1	14
349.448	1	10
349.619	1	11
349.790	1	17
349.961	1	6
350.132	1	-6
350.303	1	13
350.474	1	2
350.645	1	0
350.816	1	12
350.987	1	10
351.157	1	10
351.328	1	5
351.499	1	3
351.670	1	5
351.841	1	0
352.012	1	7
352.183	1	-6
352.354	1	3
352.525	1	-7
352.696	1	5
352.867	1	4
353.038	1	14
353.209	1	7
353.380	1	8
353.551	1	8
353.722	1	7
353.893	1	5
354.064	1	8
354.235	1	-6
354.406	1	6
354.576	1	6
354.747	1	8
354.918	1	0
355.089	1	4
355.260	1	16
355.431	1	14
355.602	1	4
355.773	1	6
355.944	1	4
356.115	1	-1
356.286	1	8
356.457	1	8
356.628	1	19
356.799	1	-8
356.970	1	9
357.141	1	16
357.311	1	14
357.482	1	9
357.653	1	-1
357.824	1	16
357.995	1	10
358.166	1	4
358.337	1	-3
358.508	1	5
358.679	1	-4
358.850	1	7
359.021	1	7
359.192	1	2
359.363	1	10
359.533	1	14
359.704	1	9
359.875	1	17
360.046	1	6
360.217	1	4
360.388	1	8
360.559	1	7
360.730	1	0
360.901	1	2
361.072	1	6
361.243	1	6
361.414	1	9
361.584	1	8
361.755	1	10
361.926	1	-1
362.097	1	11
362.268	1	6
362.439	1	3
362.610	1	9
362.781	1	6
362.952	1	13
363.123	1	18
363.293	1	9
363.464	1	-4
363.635	1	10
363.806	1	5
363.977	1	-2
364.148	1	0
364.319	1	6
364.490	1	6
364.661	1	13
364.832	1	8
365.002	1	21
365.173	1	9
365.344	1	8
365.515	1	7
365.686	1	5
365.857	1	13
366.028	1	2
366.199	1	17
366.370	1	11
366.540	1	5
366.711	1	1
366.882	1	5
367.053	1	10
367.224	1	4
367.395	1	1
367.566	1	18
367.737	1	13
367.908	1	9
368.078	1	21
368.249	1	-4
368.420	1	10
368.591	1	7
368.762	1	16
368.933	1	-1
369.104	1	10
369.274	1	7
369.445	1	20
369.616	1	11
369.787	1	7
369.958	1	12
370.129	1	9
370.300	1	9
370.471	1	10
370.641	1	-2
370.812	1	4
370.983	1	13
371.154	1	14
371.325	1	6
371.496	1	4
371.667	1	19
371.837	1	12
372.008	1	11
372.179	1	8
372.350	1	4
372.521	1	14
372.692	1	21
372.863	1	4
373.033	1	0
373.204	1	8
373.375	1	10
373.546	1	5
373.717	1	0
373.888	1	3
374.059	1	19
374.229	1	4
374.400	1	0
374.571	1	14
374.742	1	17
374.913	1	2
375.084	1	8
375.254	1	20
375.425	1	-3
375.596	1	12
375.767	1	10
375.938	1	8
376.109	1	-4
376.279	1	0
376.450	1	14
376.621	1	19
376.792	1	1
376.963	1	8
377.134	1	11
377.304	1	10
377.475	1	8
377.646	1	6
377.817	1	0
377.988	1	6
378.159	1	4
378.329	1	16
378.500	1	8
378.671	1	13
378.842	1	3
379.013	1	10
379.184	1	18
379.354	1	-2
379.525	1	7
379.696	1	-1
379.867	1	1
380.038	1	-8
380.209	1	7
380.379	1	7
380.550	1	6
380.721	1	13
380.892	1	11
381.063	1	5
381.233	1	7
381.404	1	8
381.575	1	14
381.746	1	15
381.917	1	-2
382.087	1	14
382.258	1	10
382.429	1	15
382.600	1	12
382.771	1	10
382.941	1	9
383.112	1	-4
383.283	1	12
383.454	1	11
383.625	1	7
383.795	1	9
383.966	1	9
384.137	1	10
384.308	1	15
384.479	1	1
384.649	1	7
384.820	1	2
384.991	1	5
385.162	1	10
385.333	1	18
385.503	1	9
385.674	1	10
385.845	1	8
386.016	1	12
386.187	1	0
386.357	1	9
386.528	1	-1
386.699	1	6
386.870	1	6
387.041	1	14
387.211	1	9
387.382	1	9
387.553	1	3
387.724	1	-1
387.894	1	11
388.065	1	8
388.236	1	5
388.407	1	15
388.578	1	3
388.748	1	13
388.919	1	16
389.090	1	15
389.261	1	12
389.431	1	19
389.602	1	23
389.773	1	1
389.944	1	1
390.114	1	18
390.285	1	-4
390.456	1	16
390.627	1	14
390.798	1	13
390.968	1	3
391.139	1	6
391.310	1	22
391.481	1	-3
391.651	1	11
391.822	1	0
391.993	1	20
392.164	1	2
392.334	1	12
392.505	1	9
392.676	1	10
392.847	1	15
393.017	1	14
393.188	1	13
393.359	1	15
393.530	1	14
393.700	1	16
393.871	1	7
394.042	1	5
394.213	1	17
394.383	1	16
394.554	1	15
394.725	1	13
394.896	1	14
395.066	1	12
395.237	1	13
395.408	1	11
395.579	1	17
395.749	1	9
395.920	1	5
396.091	1	6
396.262	1	19
396.432	1	4
396.603	1	5
396.774	1	16
396.945	1	12
397.115	1	16
397.286	1	8
397.457	1	13
397.627	1	17
397.798	1	-5
397.969	1	4
398.140	1	12
398.310	1	8
398.481	1	10
398.652	1	20
398.823	1	18
398.993	1	9
399.164	1	5
399.335	1	8
399.505	1	13
399.676	1	11
399.847	1	4
400.018	1	10
400.188	1	13
400.359	1	8
400.530	1	5
400.700	1	12
400.871	1	17
401.042	1	4
401.213	1	-3
401.383	1	7
401.554	1	6
401.725	1	19
401.895	1	25
402.066	1	19
402.237	1	12
402.408	1	27
402.578	1	16
402.749	1	4
402.920	1	19
403.090	1	11
403.261	1	14
403.432	1	2
403.603	1	4
403.773	1	30
403.944	1	14
404.115	1	17
404.285	1	15
404.456	1	7
404.627	1	4
404.797	1	5
404.968	1	26
405.139	1	-1
405.310	1	9
405.480	1	18
405.651	1	24
405.822	1	14
405.992	1	8
406.163	1	20
406.334	1	4
406.504	1	9
406.675	1	10
406.846	1	4
407.016	1	7
407.187	1	23
407.358	1	16
407.528	1	8
407.699	1	12
407.870	1	2
408.041	1	7
408.211	1	5
408.382	1	12
408.553	1	4
408.723	1	10
408.894	1	16
409.065	1	23
409.235	1	27
409.406	1	16
409.577	1	18
409.747	1	3
409.918	1	11
410.089	1	24
410.259	1	21
410.430	1	12
410.601	1	18
410.771	1	23
410.942	1	25
411.113	1	3
411.283	1	13
411.454	1	17
411.625	1	18
411.795	1	22
411.966	1	16
412.137	1	11
412.307	1	23
412.478	1	10
412.649	1	18
412.819	1	4
412.990	1	14
413.161	1	5
413.331	1	15
413.502	1	13
413.672	1	11
413.843	1	18
414.014	1	20
414.184	1	15
414.355	1	23
414.526	1	13
414.696	1	19
414.867	1	22
415.038	1	5
415.208	1	19
415.379	1	13
415.550	1	14
415.720	1	20
415.891	1	7
416.062	1	10
416.232	1	9
416.403	1	19
416.573	1	19
416.744	1	12
416.915	1	17
417.085	1	21
417.256	1	14
417.427	1	26
417.597	1	7
417.768	1	3
417.939	1	19
418.109	1	11
418.280	1	12
418.450	1	18
418.621	1	7
418.792	1	15
418.962	1	18
419.133	1	8
419.304	1	14
419.474	1	4
419.645	1	6
419.815	1	14
419.986	1	9
420.157	1	3
420.327	1	17
420.498	1	6
420.669	1	17
420.839	1	13
421.010	1	18
421.180	1	16
421.351	1	17
421.522	1	10
421.692	1	21
421.863	1	7
422.033	1	25
422.204	1	12
422.375	1	23
422.545	1	11
422.716	1	11
422.886	1	5
423.057	1	0
423.228	1	7
423.398	1	19
423.569	1	12
423.740	1	-1
423.910	1	12
424.081	1	16
424.251	1	6
424.422	1	22
424.593	1	8
424.763	1	19
424.934	1	14
425.104	1	17
425.275	1	13
425.445	1	15
425.616	1	5
425.787	1	7
425.957	1	12
426.128	1	-3
426.298	1	7
426.469	1	4
426.640	1	17
426.810	1	9
426.981	1	5
427.151	1	16
427.322	1	17
427.493	1	-3
427.663	1	10
427.834	1	12
428.004	1	7
428.175	1	9
428.345	1	11
428.516	1	25
428.687	1	4
428.857	1	9
429.028	1	6
429.198	1	6
429.369	1	4
429.540	1	4
429.710	1	4
429.881	1	13
430.051	1	7
430.222	1	-5
430.392	1	22
430.563	1	11
430.734	1	10
430.904	1	15
431.075	1	3
431.245	1	19
431.416	1	11
431.586	1	9
431.757	1	11
431.927	1	11
432.098	1	18
432.269	1	4
432.439	1	21
432.610	1	15
432.780	1	15
432.951	1	7
433.121	1	7
433.292	1	6
433.462	1	4
433.633	1	2
433.804	1	21
433.974	1	5
434.145	1	12
434.315	1	9
434.486	1	9
434.656	1	9
434.827	1	6
434.997	1	6
435.168	1	16
435.339	1	9
435.509	1	11
435.680	1	10
435.850	1	4
436.021	1	16
436.191	1	8
436.362	1	5
436.532	1	16
436.703	1	8
436.873	1	12
437.044	1	10
437.214	1	16
437.385	1	12
437.556	1	13
437.726	1	7
437.897	1	6
438.067	1	0
438.238	1	9
438.408	1	14
438.579	1	21
438.749	1	17
438.920	1	13
439.090	1	6
439.261	1	1
439.431	1	9
439.602	1	9
439.772	1	10
439.943	1	5
440.113	1	5
440.284	1	2
440.455	1	15
440.625	1	20
440.796	1	10
440.966	1	2
441.137	1	3
441.307	1	16
441.478	1	3
441.648	1	9
441.819	1	23
441.989	1	12
442.160	1	5
442.330	1	21
442.501	1	19
442.671	1	4
442.842	1	2
443.012	1	20
443.183	1	6
443.353	1	9
443.524	1	5
443.694	1	9
443.865	1	11
444.035	1	3
444.206	1	20
444.376	1	9
444.547	1	12
444.717	1	13
444.888	1	9
445.058	1	20
445.229	1	4
445.399	1	13
445.570	1	19
445.740	1	13
445.911	1	0
446.081	1	8
446.252	1	14
446.422	1	10
446.593	1	9
446.763	1	25
446.934	1	3
447.104	1	12
447.275	1	10
447.445	1	7
447.616	1	0
447.786	1	13
447.957	1	17
448.127	1	5
448.298	1	4
448.468	1	4
448.639	1	16
448.809	1	16
448.979	1	4
449.150	1	4
449.320	1	5
449.491	1	3
449.661	1	8
449.832	1	11
450.002	1	6
450.173	1	6
450.343	1	13
450.514	1	5
450.684	1	16
450.855	1	7
451.025	1	14
451.196	1	5
451.366	1	7
451.537	1	17
451.707	1	8
451.878	1	3
452.048	1	8
452.218	1	9
452.389	1	12
452.559	1	10
452.730	1	7
452.900	1	16
453.071	1	8
453.241	1	-1
453.412	1	5
453.582	1	4
453.753	1	12
453.923	1	12
454.093	1	18
454.264	1	8
454.434	1	12
454.605	1	7
454.775	1	7
454.946	1	-2
455.116	1	9
455.287	1	6
455.457	1	13
455.628	1	7
455.798	1	0
455.968	1	2
456.139	1	18
456.309	1	19
456.480	1	5
456.650	1	-3
456.821	1	10
456.991	1	7
457.161	1	7
457.332	1	16
457.502	1	10
457.673	1	8
457.843	1	0
458.014	1	9
458.184	1	10
458.355	1	6
458.525	1	13
458.695	1	10
458.866	1	12
459.036	1	15
459.207	1	18
459.377	1	10
459.548	1	-1
459.718	1	5
459.888	1	14
460.059	1	18
460.229	1	4
460.400	1	2
460.570	1	12
460.740	1	8
460.911	1	7
461.081	1	2
461.252	1	7
461.422	1	-3
461.593	1	15
461.763	1	5
461.933	1	16
462.104	1	12
462.274	1	5
462.445	1	1
462.615	1	8
462.785	1	5
462.956	1	6
463.126	1	15
463.297	1	19
463.467	1	15
463.638	1	10
463.808	1	7
463.978	1	5
464.149	1	7
464.319	1	10
464.490	1	10
464.660	1	18
464.830	1	5
465.001	1	8
465.171	1	2
465.342	1	8
465.512	1	12
465.682	1	14
465.853	1	8
466.023	1	18
466.194	1	-2
466.364	1	5
466.534	1	-2
466.705	1	5
466.875	1	10
467.045	1	9
467.216	1	4
467.386	1	9
467.557	1	15
467.727	1	6
467.897	1	19
468.068	1	3
468.238	1	-7
468.409	1	10
468.579	1	14
468.749	1	6
468.920	1	11
469.090	1	5
469.260	1	17
469.431	1	7
469.601	1	4
469.772	1	5
469.942	1	9
470.112	1	14
470.283	1	1
470.453	1	15
470.623	1	8
470.794	1	9
470.964	1	1
471.135	1	14
471.305	1	11
471.475	1	14
471.646	1	8
471.816	1	7
471.986	1	2
472.157	1	8
472.327	1	12
472.497	1	10
472.668	1	4
472.838	1	3
473.009	1	8
473.179	1	8
473.349	1	3
473.520	1	-3
473.690	1	10
473.860	1	5
474.031	1	3
474.201	1	10
474.371	1	18
474.542	1	10
474.712	1	2
474.882	1	7
475.053	1	4
475.223	1	1
475.394	1	6
475.564	1	4
475.734	1	7
475.905	1	0
476.075	1	6
476.245	1	2
476.416	1	7
476.586	1	12
476.756	1	2
476.927	1	14
477.097	1	4
477.267	1	12
477.438	1	-4
477.608	1	6
477.778	1	5
477.949	1	10
478.119	1	-2
478.289	1	-1
478.460	1	9
478.630	1	8
478.800	1	13
478.971	1	4
479.141	1	9
479.311	1	2
479.482	1	-9
479.652	1	15
479.822	1	3
479.993	1	25
480.163	1	5
480.333	1	17
480.504	1	-1
480.674	1	-3
480.844	1	1
481.015	1	6
481.185	1	5
481.355	1	7
481.525	1	5
481.696	1	2
481.866	1	14
482.036	1	6
482.207	1	0
482.377	1	10
482.547	1	-1
482.718	1	-2
482.888	1	-5
483.058	1	8
483.229	1	3
483.399	1	0
483.569	1	-3
483.740	1	6
483.910	1	16
484.080	1	8
484.250	1	-1
484.421	1	6
484.591	1	13
484.761	1	12
484.932	1	19
485.102	1	-6
485.272	1	13
485.443	1	5
485.613	1	5
485.783	1	1
485.953	1	6
486.124	1	11
486.294	1	10
486.464	1	6
486.635	1	-5
486.805	1	11
486.975	1	-2
487.146	1	2
487.316	1	-5
487.486	1	-2
487.656	1	12
487.827	1	-2
487.997	1	16
488.167	1	15
488.338	1	9
488.508	1	4
488.678	1	4
488.848	1	4
489.019	1	7
489.189	1	1
489.359	1	0
489.529	1	-6
489.700	1	6
489.870	1	9
490.040	1	-5
490.211	1	1
490.381	1	14
490.551	1	0
490.721	1	7
490.892	1	17
491.062	1	9
491.232	1	0
491.402	1	3
491.573	1	-4
491.743	1	4
491.913	1	5
492.084	1	1
492.254	1	17
492.424	1	-3
492.594	1	0
492.765	1	9
492.935	1	4
493.105	1	0
493.275	1	1
493.446	1	3
493.616	1	-1
493.786	1	7
493.956	1	8
494.127	1	3
494.297	1	12
494.467	1	5
494.637	1	5
494.808	1	2
494.978	1	-1
495.148	1	17
495.318	1	8
495.489	1	12
495.659	1	10
495.829	1	9
495.999	1	4
496.170	1	-4
496.340	1	10
496.510	1	12
496.680	1	14
496.851	1	9
497.021	1	15
497.191	1	2
497.361	1	10
497.532	1	4
497.702	1	1
497.872	1	4
498.042	1	17
498.213	1	1
498.383	1	4
498.553	1	4
498.723	1	-1
498.894	1	15
499.064	1	-5
499.234	1	14
499.404	1	8
499.574	1	0
499.745	1	0
499.915	1	9
500.085	1	-1
500.255	1	-9
500.426	1	1
500.596	1	8
500.766	1	-1
500.936	1	5
501.106	1	5
501.277	1	10
501.447	1	-1
501.617	1	15
501.787	1	7
501.958	1	1
502.128	1	0
502.298	1	14
502.468	1	0
502.638	1	16
502.809	1	11
502.979	1	15
503.149	1	-2
503.319	1	5
503.489	1	-5
503.660	1	4
503.830	1	6
504.000	1	1
504.170	1	-2
504.340	1	1
504.511	1	11
504.681	1	-2
504.851	1	6
505.021	1	3
505.192	1	8
505.362	1	4
505.532	1	6
505.702	1	-1
505.872	1	17
506.043	1	-5
506.213	1	8
506.383	1	1
506.553	1	0
506.723	1	4
506.893	1	-6
507.064	1	12
507.234	1	3
507.404	1	11
507.574	1	9
507.744	1	-2
507.915	1	-3
508.085	1	-2
508.255	1	3
508.425	1	-1
508.595	1	2
508.766	1	7
508.936	1	7
509.106	1	-2
509.276	1	11
509.446	1	-5
509.616	1	17
509.787	1	0
509.957	1	0
510.127	1	7
510.297	1	5
510.467	1	4
510.638	1	-6
510.808	1	6
510.978	1	6
511.148	1	-8
511.318	1	9
511.488	1	2
511.659	1	-1
511.829	1	2
511.999	1	-1
512.169	1	-5
512.339	1	3
512.509	1	7
512.680	1	10
512.850	1	1
513.020	1	13
513.190	1	6
513.360	1	-1
513.530	1	10
513.700	1	4
513.871	1	-2
514.041	1	6
514.211	1	15
514.381	1	-3
514.551	1	1
514.721	1	9
514.892	1	5
515.062	1	4
515.232	1	-4
515.402	1	11
515.572	1	6
515.742	1	5
515.912	1	12
516.083	1	-2
516.253	1	6
516.423	1	4
516.593	1	5
516.763	1	6
516.933	1	4
517.104	1	2
517.274	1	3
517.444	1	2
517.614	1	2
517.784	1	1
517.954	1	7
518.124	1	1
518.294	1	15
518.465	1	6
518.635	1	0
518.805	1	3
518.975	1	14
519.145	1	3
519.315	1	13
519.485	1	-5
519.656	1	6
519.826	1	3
519.996	1	-5
520.166	1	9
520.336	1	20
520.506	1	7
520.676	1	0
520.846	1	-2
521.017	1	2
521.187	1	6
521.357	1	4
521.527	1	3
521.697	1	-1
521.867	1	4
522.037	1	4
522.207	1	6
522.377	1	1
522.548	1	6
522.718	1	8
522.888	1	-5
523.058	1	1
523.228	1	13
523.398	1	-1
523.568	1	-2
523.738	1	4
523.909	1	7
524.079	1	5
524.249	1	-4
524.419	1	5
524.589	1	11
524.759	1	-5
524.929	1	3
525.099	1	11
525.269	1	6
525.439	1	2
525.610	1	3
525.780	1	4
525.950	1	4
526.120	1	6
526.290	1	6
526.460	1	15
526.630	1	9
526.800	1	-5
526.970	1	2
527.140	1	8
527.311	1	7
527.481	1	9
527.651	1	-3
527.821	1	-6
527.991	1	3
528.161	1	12
528.331	1	-9
528.501	1	3
528.671	1	12
528.841	1	7
529.011	1	-4
529.181	1	13
529.352	1	5
529.522	1	-2
529.692	1	10
529.862	1	3
530.032	1	8
530.202	1	0
530.372	1	-2
530.542	1	7
530.712	1	1
530.882	1	1
531.052	1	-2
531.222	1	-4
531.392	1	3
531.563	1	0
531.733	1	13
531.903	1	10
532.073	1	-5
532.243	1	8
532.413	1	8
532.583	1	-1
532.753	1	7
532.923	1	0
533.093	1	-6
533.263	1	-9
533.433	1	14
533.603	1	-1
533.773	1	-1
533.943	1	4
534.113	1	7
534.284	1	10
534.454	1	2
534.624	1	4
534.794	1	4
534.964	1	7
535.134	1	-3
535.304	1	0
535.474	1	-6
535.644	1	14
535.814	1	2
535.984	1	-1
536.154	1	7
536.324	1	-1
536.494	1	3
536.664	1	-10
536.834	1	-7
537.004	1	-7
537.174	1	6
537.344	1	14
537.514	1	11
537.685	1	-9
537.855	1	4
538.025	1	0
538.195	1	3
538.365	1	5
538.535	1	7
538.705	1	-1
538.875	1	14
539.045	1	4
539.215	1	13
539.385	1	-5
539.555	1	-2
539.725	1	6
539.895	1	14
540.065	1	2
540.235	1	-15
540.405	1	9
540.575	1	8
540.745	1	-6
540.915	1	5
541.085	1	-2
541.255	1	3
541.425	1	-3
541.595	1	-5
541.765	1	-6
541.935	1	2
542.105	1	-4
542.275	1	1
542.445	1	2
542.615	1	5
542.785	1	9
542.955	1	-1
543.125	1	0
543.295	1	7
543.465	1	-1
543.635	1	-9
543.805	1	6
543.975	1	-2
544.145	1	7
544.315	1	8
544.485	1	8
544.655	1	17
544.825	1	5
544.995	1	-5
545.165	1	4
545.335	1	1
545.505	1	-1
545.675	1	8
545.845	1	-2
546.015	1	3
546.185	1	-9
546.355	1	-4
546.525	1	2
546.695	1	-2
546.865	1	-6
547.035	1	8
547.205	1	3
547.375	1	6
547.545	1	8
547.715	1	10
547.885	1	5
548.055	1	6
548.225	1	-3
548.395	1	2
548.565	1	-12
548.735	1	5
548.905	1	3
549.075	1	12
549.245	1	-1
549.415	1	8
549.585	1	10
549.755	1	4
549.925	1	-3
550.095	1	3
550.265	1	-9
550.435	1	-2
550.605	1	1
550.775	1	8
550.945	1	7
551.115	1	-4
551.285	1	1
551.455	1	2
551.625	1	6
551.795	1	2
551.965	1	-2
552.135	1	-15
552.305	1	7
552.475	1	2
552.645	1	11
552.815	1	-7
552.985	1	-3
553.155	1	-6
553.325	1	3
553.495	1	6
553.665	1	15
553.835	1	-10
554.004	1	-4
554.174	1	2
554.344	1	1
554.514	1	12
554.684	1	-5
554.854	1	1
555.024	1	12
555.194	1	8
555.364	1	0
555.534	1	10
555.704	1	5
555.874	1	2
556.044	1	8
556.214	1	-6
556.384	1	6
556.554	1	-1
556.724	1	-10
556.894	1	4
557.064	1	2
557.234	1	2
557.404	1	-4
557.573	1	3
557.743	1	12
557.913	1	1
558.083	1	-1
558.253	1	0
558.423	1	5
558.593	1	10
558.763	1	2
558.933	1	12
559.103	1	5
559.273	1	10
559.443	1	-4
559.613	1	-11
559.783	1	6
559.953	1	0
560.122	1	-7
560.292	1	5
560.462	1	7
560.632	1	-3
560.802	1	7
560.972	1	1
561.142	1	-1
561.312	1	6
561.482	1	7
561.652	1	8
561.822	1	0
561.992	1	5
562.162	1	-2
562.331	1	-8
562.501	1	-1
562.671	1	6
562.841	1	16
563.011	1	4
563.181	1	15
563.351	1	-1
563.521	1	6
563.691	1	1
563.861	1	1
564.031	1	-1
564.201	1	6
564.370	1	-3
564.540	1	15
564.710	1	5
564.880	1	10
565.050	1	-7
565.220	1	-4
565.390	1	8
565.560	1	8
565.730	1	6
565.900	1	-5
566.069	1	4
566.239	1	-17
566.409	1	9
566.579	1	6
566.749	1	12
566.919	1	5
567.089	1	-4
567.259	1	8
567.429	1	2
567.599	1	-3
567.768	1	-6
567.938	1	-7
568.108	1	3
568.278	1	-2
568.448	1	10
568.618	1	6
568.788	1	6
568.958	1	10
569.128	1	0
569.297	1	0
569.467	1	6
569.637	1	0
569.807	1	-5
569.977	1	1
570.147	1	-9
570.317	1	16
570.487	1	9
570.656	1	1
570.826	1	11
570.996	1	-1
571.166	1	1
571.336	1	2
571.506	1	-1
571.676	1	-2
571.846	1	3
572.015	1	7
572.185	1	10
572.355	1	3
572.525	1	5
572.695	1	-1
572.865	1	2
573.035	1	-6
573.205	1	-13
573.374	1	0
573.544	1	-2
573.714	1	11
573.884	1	8
574.054	1	5
574.224	1	5
574.394	1	6
574.563	1	-5
574.733	1	1
574.903	1	2
575.073	1	2
575.243	1	-1
575.413	1	5
575.583	1	4
575.752	1	-7
575.922	1	4
576.092	1	4
576.262	1	8
576.432	1	4
576.602	1	-1
576.772	1	-12
576.941	1	8
577.111	1	4
577.281	1	-2
577.451	1	13
577.621	1	0
577.791	1	-9
577.960	1	7
578.130	1	0
578.300	1	3
578.470	1	3
578.640	1	2
578.810	1	5
578.979	1	5
579.149	1	-1
579.319	1	-7
579.489	1	-6
579.659	1	6
579.829	1	-6
579.998	1	0
580.168	1	-3
580.338	1	0
580.508	1	6
580.678	1	-2
580.848	1	9
581.017	1	17
581.187	1	0
581.357	1	-7
581.527	1	-3
581.697	1	12
581.867	1	-4
582.036	1	-1
582.206	1	-1
582.376	1	5
582.546	1	-10
582.716	1	1
582.885	1	6
583.055	1	1
583.225	1	-8
583.395	1	0
583.565	1	16
583.735	1	-6
583.904	1	2
584.074	1	1
584.244	1	2
584.414	1	11
584.584	1	-2
584.753	1	11
584.923	1	4
585.093	1	-1
585.263	1	10
585.433	1	7
585.602	1	-3
585.772	1	4
585.942	1	-12
586.112	1	3
586.282	1	-2
586.451	1	-7
586.621	1	0
586.791	1	7
586.961	1	8
587.131	1	6
587.300	1	-10
587.470	1	2
587.640	1	-4
587.810	1	-10
587.980	1	2
588.149	1	7
588.319	1	-5
588.489	1	10
588.659	1	-3
588.829	1	5
588.998	1	3
589.168	1	3
589.338	1	3
589.508	1	2
589.677	1	6
589.847	1	-3
590.017	1	11
590.187	1	-3
590.357	1	0
590.526	1	11
590.696	1	14
590.866	1	5
591.036	1	-1
591.205	1	-11
591.375	1	-1
591.545	1	2
591.715	1	9
591.885	1	11
592.054	1	3
592.224	1	2
592.394	1	3
592.564	1	-1
592.733	1	2
592.903	1	1
593.073	1	3
593.243	1	9
593.412	1	-2
593.582	1	5
593.752	1	8
593.922	1	3
594.091	1	5
594.261	1	7
594.431	1	-5
594.601	1	6
594.771	1	1
594.940	1	-4
595.110	1	-1
595.280	1	-1
595.450	1	-2
595.619	1	6
595.789	1	-1
595.959	1	1
596.129	1	7
596.298	1	5
596.468	1	3
596.638	1	10
596.808	1	4
596.977	1	11
597.147	1	11
597.317	1	3
597.487	1	-10
597.656	1	-6
597.826	1	0
597.996	1	2
598.166	1	0
598.335	1	4
598.505	1	5
598.675	1	-7
598.844	1	7
599.014	1	3
599.184	1	14
599.354	1	-2
599.523	1	-7
599.693	1	-1
599.863	1	-7
600.033	1	-1
600.202	1	-8
600.372	1	3
600.542	1	12
600.712	1	5
600.881	1	12
601.051	1	4
601.221	1	3
601.390	1	4
601.560	1	-5
601.730	1	0
601.900	1	7
602.069	1	5
602.239	1	-10
602.409	1	15
602.578	1	-6
602.748	1	7
602.918	1	6
603.088	1	9
603.257	1	3
603.427	1	4
603.597	1	1
603.767	1	-1
603.936	1	3
604.106	1	4
604.276	1	1
604.445	1	2
604.615	1	-7
604.785	1	-7
604.954	1	0
605.124	1	-3
605.294	1	4
605.464	1	7
605.633	1	5
605.803	1	3
605.973	1	1
606.142	1	1
606.312	1	0
606.482	1	-7
606.652	1	13
606.821	1	-1
606.991	1	3
607.161	1	15
607.330	1	-9
607.500	1	5
607.670	1	0
607.839	1	8
608.009	1	-9
608.179	1	-10
608.348	1	7
608.518	1	-1
608.688	1	12
608.858	1	0
609.027	1	7
609.197	1	11
609.367	1	-5
609.536	1	0
609.706	1	1
609.876	1	-5
610.045	1	4
610.215	1	-3
610.385	1	2
610.554	1	0
610.724	1	-1
610.894	1	0
611.063	1	1
611.233	1	10
611.403	1	14
611.572	1	2
611.742	1	-5
611.912	1	6
612.081	1	0
612.251	1	11
612.421	1	7
612.590	1	-4
612.760	1	10
612.930	1	-3
613.099	1	13
613.269	1	3
613.439	1	4
613.608	1	9
613.778	1	0
613.948	1	0
614.117	1	-2
614.287	1	-6
614.457	1	-1
614.626	1	8
614.796	1	5
614.966	1	0
615.135	1	-2
615.305	1	-3
615.475	1	2
615.644	1	1
615.814	1	-8
615.984	1	6
616.153	1	0
616.323	1	-5
616.493	1	2
616.662	1	10
616.832	1	9
617.002	1	10
617.171	1	-11
617.341	1	3
617.511	1	6
617.680	1	4
617.850	1	3
618.019	1	6
618.189	1	3
618.359	1	-5
618.528	1	14
618.698	1	3
618.868	1	18
619.037	1	3
619.207	1	1
619.377	1	5
619.546	1	7
619.716	1	2
619.885	1	18
620.055	1	1
620.225	1	5
620.394	1	8
620.564	1	3
620.734	1	-7
620.903	1	5
621.073	1	11
621.242	1	-13
621.412	1	1
621.582	1	-3
621.751	1	4
621.921	1	-2
622.091	1	-6
622.260	1	4
622.430	1	11
622.599	1	15
622.769	1	2
622.939	1	1
623.108	1	8
623.278	1	16
623.448	1	-8
623.617	1	2
623.787	1	5
623.956	1	-8
624.126	1	18
624.296	1	6
624.465	1	0
624.635	1	2
624.804	1	8
624.974	1	3
625.144	1	8
625.313	1	-8
625.483	1	7
625.652	1	4
625.822	1	3
625.992	1	-1
626.161	1	-4
626.331	1	1
626.501	1	7
626.670	1	-1
626.840	1	1
627.009	1	-3
627.179	1	5
627.348	1	1
627.518	1	19
627.688	1	0
627.857	1	2
628.027	1	-1
628.196	1	12
628.366	1	5
628.536	1	2
628.705	1	3
628.875	1	1
629.044	1	0
629.214	1	3
629.384	1	0
629.553	1	9
629.723	1	-6
629.892	1	2
630.062	1	7
630.232	1	-1
630.401	1	-11
630.571	1	9
630.740	1	6
630.910	1	15
631.079	1	2
631.249	1	-10
631.419	1	-4
631.588	1	0
631.758	1	-3
631.927	1	-4
632.097	1	11
632.266	1	3
632.436	1	-3
632.606	1	4
632.775	1	6
632.945	1	-7
633.114	1	1
633.284	1	-2
633.453	1	10
633.623	1	-1
633.793	1	-1
633.962	1	-8
634.132	1	6
634.301	1	1
634.471	1	9
634.640	1	14
634.810	1	13
634.979	1	8
635.149	1	1
635.319	1	1
635.488	1	-1
635.658	1	-6
635.827	1	0
635.997	1	-3
636.166	1	1
636.336	1	5
636.505	1	11
636.675	1	5
636.845	1	7
637.014	1	6
637.184	1	1
637.353	1	1
637.523	1	-5
637.692	1	1
637.862	1	-2
638.031	1	-3
638.201	1	16
638.370	1	10
638.540	1	9
638.710	1	6
638.879	1	-6
639.049	1	2
639.218	1	-10
639.388	1	5
639.557	1	-4
639.727	1	-5
639.896	1	3
640.066	1	6
640.235	1	12
640.405	1	1
640.574	1	4
640.744	1	11
640.914	1	5
641.083	1	-7
641.253	1	-1
641.422	1	7
641.592	1	4
641.761	1	20
641.931	1	2
642.100	1	5
642.270	1	-2
642.439	1	-2
642.609	1	5
642.778	1	-2
642.948	1	-4
643.117	1	2
643.287	1	-4
643.456	1	-1
643.626	1	3
643.795	1	5
643.965	1	4
644.134	1	1
644.304	1	9
644.473	1	6
644.643	1	2
644.812	1	13
644.982	1	-3
645.151	1	-3
645.321	1	3
645.490	1	6
645.660	1	1
645.829	1	-1
645.999	1	9
646.168	1	5
646.338	1	2
646.507	1	-3
646.677	1	8
646.846	1	11
647.016	1	8
647.185	1	8
647.355	1	3
647.524	1	-10
647.694	1	-1
647.863	1	6
648.033	1	0
648.202	1	3
648.372	1	-2
648.541	1	5
648.711	1	7
648.880	1	13
649.050	1	9
649.219	1	0
649.389	1	7
649.558	1	-1
649.728	1	-12
649.897	1	-7
650.067	1	-2
650.236	1	6
650.406	1	-2
650.575	1	13
650.745	1	0
650.914	1	13
651.084	1	-12
651.253	1	10
651.423	1	-8
651.592	1	-2
651.762	1	3
651.931	1	2
652.101	1	0
652.270	1	2
652.440	1	8
652.609	1	12
652.778	1	4
652.948	1	-5
653.117	1	17
653.287	1	2
653.456	1	6
653.626	1	4
653.795	1	8
653.965	1	6
654.134	1	0
654.304	1	3
654.473	1	16
654.643	1	-1
654.812	1	-3
654.982	1	3
655.151	1	2
655.320	1	1
655.490	1	1
655.659	1	-1
655.829	1	3
655.998	1	1
656.168	1	0
656.337	1	8
656.507	1	-3
656.676	1	0
656.846	1	0
657.015	1	18
657.184	1	1
657.354	1	6
657.523	1	6
657.693	1	-3
657.862	1	-3
658.032	1	-6
658.201	1	-9
658.371	1	8
658.540	1	7
658.709	1	5
658.879	1	-8
659.048	1	4
659.218	1	-4
659.387	1	3
659.557	1	2
659.726	1	0
659.895	1	1
660.065	1	-6
660.234	1	-2
660.404	1	20
660.573	1	5
660.743	1	6
660.912	1	16
661.081	1	5
661.251	1	-7
661.420	1	8
661.590	1	12
661.759	1	2
661.929	1	2
662.098	1	4
662.267	1	9
662.437	1	1
662.606	1	-1
662.776	1	-1
662.945	1	9
663.115	1	-7
663.284	1	-3
663.453	1	-5
663.623	1	6
663.792	1	1
663.962	1	10
664.131	1	-3
664.300	1	7
664.470	1	-8
664.639	1	-6
664.809	1	3
664.978	1	10
665.148	1	12
665.317	1	1
665.486	1	-3
665.656	1	0
665.825	1	7
665.995	1	11
666.164	1	9
666.333	1	-2
666.503	1	15
666.672	1	4
666.842	1	-13
667.011	1	0
667.180	1	-3
667.350	1	4
667.519	1	-3
667.689	1	15
667.858	1	4
668.027	1	4
668.197	1	12
668.366	1	0
668.536	1	4
668.705	1	14
668.874	1	5
669.044	1	-9
669.213	1	1
669.382	1	12
669.552	1	-8
669.721	1	2
669.891	1	-7
670.060	1	-4
670.229	1	9
670.399	1	9
670.568	1	9
670.738	1	-6
670.907	1	-5
671.076	1	5
671.246	1	1
671.415	1	3
671.584	1	-2
671.754	1	9
671.923	1	2
672.093	1	6
672.262	1	-5
672.431	1	15
672.601	1	0
672.770	1	-2
672.939	1	-2
673.109	1	4
673.278	1	13
673.448	1	-6
673.617	1	7
673.786	1	-5
