325.333	1	16
325.504	1	33
325.675	1	21
325.846	1	24
326.017	1	23
326.188	1	29
326.359	1	41
326.531	1	28
326.702	1	26
326.873	1	32
327.044	1	23
327.215	1	23
327.386	1	17
327.557	1	40
327.728	1	20
327.899	1	28
328.070	1	27
328.241	1	36
328.412	1	32
328.583	1	34
328.754	1	28
328.926	1	31
329.097	1	31
329.268	1	39
329.439	1	36
329.610	1	33
329.781	1	45
329.952	1	33
330.123	1	26
330.294	1	35
330.465	1	40
330.636	1	25
330.807	1	27
330.978	1	33
331.149	1	39
331.320	1	33
331.492	1	47
331.663	1	36
331.834	1	37
332.005	1	26
332.176	1	29
332.347	1	41
332.518	1	27
332.689	1	44
332.860	1	36
333.031	1	41
333.202	1	55
333.373	1	44
333.544	1	30
333.715	1	41
333.886	1	41
334.057	1	28
334.228	1	36
334.399	1	43
334.570	1	33
334.741	1	40
334.912	1	48
335.084	1	37
335.255	1	27
335.426	1	41
335.597	1	46
335.768	1	32
335.939	1	47
336.110	1	35
336.281	1	40
336.452	1	58
336.623	1	38
336.794	1	38
336.965	1	47
337.136	1	34
337.307	1	58
337.478	1	34
337.649	1	45
337.820	1	37
337.991	1	36
338.162	1	49
338.333	1	43
338.504	1	51
338.675	1	51
338.846	1	56
339.017	1	45
339.188	1	48
339.359	1	55
339.530	1	50
339.701	1	48
339.872	1	46
340.043	1	51
340.214	1	43
340.385	1	66
340.556	1	48
340.727	1	48
340.898	1	44
341.069	1	58
341.240	1	59
341.411	1	51
341.582	1	65
341.753	1	60
341.924	1	51
342.095	1	54
342.266	1	45
342.437	1	50
342.608	1	42
342.779	1	46
342.950	1	54
343.121	1	59
343.292	1	50
343.463	1	66
343.634	1	61
343.805	1	55
343.976	1	69
344.147	1	59
344.318	1	49
344.489	1	58
344.660	1	66
344.831	1	56
345.002	1	46
345.173	1	65
345.344	1	54
345.515	1	63
345.686	1	59
345.857	1	67
346.028	1	74
346.199	1	68
346.370	1	59
346.541	1	80
346.712	1	52
346.883	1	65
347.054	1	62
347.225	1	71
347.396	1	71
347.567	1	67
347.738	1	67
347.909	1	76
348.080	1	71
348.251	1	73
348.422	1	66
348.593	1	65
348.764	1	66
348.935	1	64
349.106	1	57
349.277	1	76
349.448	1	71
349.619	1	75
349.790	1	75
349.961	1	76
350.132	1	56
350.303	1	82
350.474	1	73
350.645	1	61
350.816	1	79
350.987	1	77
351.157	1	71
351.328	1	87
351.499	1	74
351.670	1	77
351.841	1	70
352.012	1	69
352.183	1	64
352.354	1	76
352.525	1	70
352.696	1	67
352.867	1	74
353.038	1	72
353.209	1	92
353.380	1	85
353.551	1	80
353.722	1	84
353.893	1	77
354.064	1	93
354.235	1	79
354.406	1	74
354.576	1	73
354.747	1	78
354.918	1	79
355.089	1	89
355.260	1	85
355.431	1	84
355.602	1	83
355.773	1	82
355.944	1	83
356.115	1	76
356.286	1	89
356.457	1	86
356.628	1	91
356.799	1	81
356.970	1	87
357.141	1	98
357.311	1	99
357.482	1	81
357.653	1	77
357.824	1	96
357.995	1	89
358.166	1	85
358.337	1	80
358.508	1	103
358.679	1	88
358.850	1	94
359.021	1	96
359.192	1	94
359.363	1	101
359.533	1	105
359.704	1	90
359.875	1	93
360.046	1	86
360.217	1	95
360.388	1	101
360.559	1	96
360.730	1	88
360.901	1	101
361.072	1	93
361.243	1	92
361.414	1	92
361.584	1	101
361.755	1	116
361.926	1	90
362.097	1	87
362.268	1	87
362.439	1	98
362.610	1	98
362.781	1	94
362.952	1	108
363.123	1	105
363.293	1	108
363.464	1	108
363.635	1	103
363.806	1	93
363.977	1	99
364.148	1	91
364.319	1	100
364.490	1	104
364.661	1	103
364.832	1	105
365.002	1	105
365.173	1	104
365.344	1	106
365.515	1	95
365.686	1	110
365.857	1	97
366.028	1	106
366.199	1	114
366.370	1	101
366.540	1	106
366.711	1	93
366.882	1	96
367.053	1	97
367.224	1	109
367.395	1	114
367.566	1	105
367.737	1	108
367.908	1	97
368.078	1	113
368.249	1	101
368.420	1	111
368.591	1	108
368.762	1	113
368.933	1	86
369.104	1	95
369.274	1	97
369.445	1	117
369.616	1	104
369.787	1	99
369.958	1	104
370.129	1	108
370.300	1	102
370.471	1	115
370.641	1	103
370.812	1	107
370.983	1	110
371.154	1	111
371.325	1	107
371.496	1	111
371.667	1	116
371.837	1	118
372.008	1	109
372.179	1	114
372.350	1	112
372.521	1	117
372.692	1	101
372.863	1	116
373.033	1	117
373.204	1	110
373.375	1	114
373.546	1	126
373.717	1	104
373.888	1	115
374.059	1	127
374.229	1	121
374.400	1	107
374.571	1	133
374.742	1	114
374.913	1	95
375.084	1	125
375.254	1	128
375.425	1	110
375.596	1	107
375.767	1	113
375.938	1	116
376.109	1	98
376.279	1	99
376.450	1	124
376.621	1	115
376.792	1	102
376.963	1	111
377.134	1	128
377.304	1	109
377.475	1	110
377.646	1	109
377.817	1	107
377.988	1	121
378.159	1	109
378.329	1	124
378.500	1	115
378.671	1	120
378.842	1	122
379.013	1	129
379.184	1	131
379.354	1	108
379.525	1	126
379.696	1	117
379.867	1	116
380.038	1	108
380.209	1	109
380.379	1	120
380.550	1	130
380.721	1	139
380.892	1	118
381.063	1	128
381.233	1	121
381.404	1	131
381.575	1	114
381.746	1	127
381.917	1	122
382.087	1	130
382.258	1	132
382.429	1	129
382.600	1	126
382.771	1	134
382.941	1	130
383.112	1	121
383.283	1	133
383.454	1	129
383.625	1	138
383.795	1	138
383.966	1	126
384.137	1	131
384.308	1	131
384.479	1	142
384.649	1	134
384.820	1	124
384.991	1	123
385.162	1	137
385.333	1	136
385.503	1	122
385.674	1	131
385.845	1	147
386.016	1	135
386.187	1	120
386.357	1	147
386.528	1	115
386.699	1	134
386.870	1	142
387.041	1	127
387.211	1	132
387.382	1	135
387.553	1	135
387.724	1	124
387.894	1	123
388.065	1	129
388.236	1	135
388.407	1	141
388.578	1	134
388.748	1	139
388.919	1	148
389.090	1	143
389.261	1	137
389.431	1	143
389.602	1	140
389.773	1	135
389.944	1	144
390.114	1	135
390.285	1	142
390.456	1	136
390.627	1	134
390.798	1	140
390.968	1	142
391.139	1	136
391.310	1	154
391.481	1	137
391.651	1	148
391.822	1	154
391.993	1	154
392.164	1	148
392.334	1	150
392.505	1	125
392.676	1	150
392.847	1	145
393.017	1	162
393.188	1	147
393.359	1	152
393.530	1	148
393.700	1	143
393.871	1	149
394.042	1	145
394.213	1	142
394.383	1	147
394.554	1	132
394.725	1	134
394.896	1	143
395.066	1	147
395.237	1	138
395.408	1	154
395.579	1	145
395.749	1	141
395.920	1	146
396.091	1	144
396.262	1	159
396.432	1	134
396.603	1	133
396.774	1	144
396.945	1	148
397.115	1	139
397.286	1	136
397.457	1	157
397.627	1	147
397.798	1	134
397.969	1	136
398.140	1	147
398.310	1	150
398.481	1	151
398.652	1	160
398.823	1	145
398.993	1	138
399.164	1	144
399.335	1	142
399.505	1	155
399.676	1	147
399.847	1	155
400.018	1	154
400.188	1	151
400.359	1	146
400.530	1	140
400.700	1	136
400.871	1	157
401.042	1	136
401.213	1	148
401.383	1	150
401.554	1	152
401.725	1	168
401.895	1	165
402.066	1	167
402.237	1	166
402.408	1	170
402.578	1	152
402.749	1	150
402.920	1	154
403.090	1	149
403.261	1	160
403.432	1	156
403.603	1	149
403.773	1	160
403.944	1	142
404.115	1	156
404.285	1	149
404.456	1	157
404.627	1	164
404.797	1	148
404.968	1	164
405.139	1	168
405.310	1	163
405.480	1	160
405.651	1	158
405.822	1	158
405.992	1	155
406.163	1	158
406.334	1	142
406.504	1	146
406.675	1	139
406.846	1	145
407.016	1	155
407.187	1	160
407.358	1	140
407.528	1	145
407.699	1	158
407.870	1	165
408.041	1	154
408.211	1	153
408.382	1	162
408.553	1	143
408.723	1	174
408.894	1	159
409.065	1	150
409.235	1	140
409.406	1	164
409.577	1	152
409.747	1	153
409.918	1	145
410.089	1	165
410.259	1	177
410.430	1	166
410.601	1	159
410.771	1	158
410.942	1	180
411.113	1	156
411.283	1	154
411.454	1	164
411.625	1	149
411.795	1	156
411.966	1	157
412.137	1	165
412.307	1	161
412.478	1	173
412.649	1	162
412.819	1	168
412.990	1	161
413.161	1	159
413.331	1	153
413.502	1	175
413.672	1	155
413.843	1	165
414.014	1	177
414.184	1	146
414.355	1	157
414.526	1	176
414.696	1	169
414.867	1	157
415.038	1	150
415.208	1	161
415.379	1	148
415.550	1	187
415.720	1	174
415.891	1	160
416.062	1	156
416.232	1	164
416.403	1	159
416.573	1	160
416.744	1	158
416.915	1	163
417.085	1	161
417.256	1	157
417.427	1	152
417.597	1	152
417.768	1	159
417.939	1	162
418.109	1	155
418.280	1	161
418.450	1	146
418.621	1	157
418.792	1	152
418.962	1	151
419.133	1	161
419.304	1	148
419.474	1	143
419.645	1	148
419.815	1	141
419.986	1	145
420.157	1	149
420.327	1	147
420.498	1	133
420.669	1	150
420.839	1	142
421.010	1	152
421.180	1	153
421.351	1	147
421.522	1	144
421.692	1	170
421.863	1	150
422.033	1	145
422.204	1	148
422.375	1	151
422.545	1	139
422.716	1	140
422.886	1	153
423.057	1	138
423.228	1	144
423.398	1	155
423.569	1	147
423.740	1	158
423.910	1	138
424.081	1	144
424.251	1	138
424.422	1	143
424.593	1	154
424.763	1	149
424.934	1	162
425.104	1	155
425.275	1	161
425.445	1	146
425.616	1	137
425.787	1	139
425.957	1	148
426.128	1	130
426.298	1	140
426.469	1	135
426.640	1	151
426.810	1	138
426.981	1	144
427.151	1	153
427.322	1	141
427.493	1	158
427.663	1	143
427.834	1	144
428.004	1	145
428.175	1	148
428.345	1	134
428.516	1	151
428.687	1	141
428.857	1	130
429.028	1	147
429.198	1	134
429.369	1	139
429.540	1	132
429.710	1	130
429.881	1	137
430.051	1	134
430.222	1	131
430.392	1	142
430.563	1	156
430.734	1	133
430.904	1	135
431.075	1	130
431.245	1	133
431.416	1	129
431.586	1	133
431.757	1	138
431.927	1	136
432.098	1	137
432.269	1	124
432.439	1	146
432.610	1	147
432.780	1	130
432.951	1	123
433.121	1	138
433.292	1	130
433.462	1	137
433.633	1	131
433.804	1	145
433.974	1	124
434.145	1	135
434.315	1	126
434.486	1	144
434.656	1	134
434.827	1	129
434.997	1	135
435.168	1	131
435.339	1	144
435.509	1	135
435.680	1	134
435.850	1	136
436.021	1	137
436.191	1	131
436.362	1	129
436.532	1	131
436.703	1	125
436.873	1	140
437.044	1	129
437.214	1	144
437.385	1	141
437.556	1	133
437.726	1	127
437.897	1	137
438.067	1	120
438.238	1	126
438.408	1	127
438.579	1	137
438.749	1	139
438.920	1	134
439.090	1	129
439.261	1	119
439.431	1	121
439.602	1	136
439.772	1	152
439.943	1	133
440.113	1	122
440.284	1	127
440.455	1	126
440.625	1	140
440.796	1	130
440.966	1	120
441.137	1	120
441.307	1	130
441.478	1	137
441.648	1	114
441.819	1	137
441.989	1	124
442.160	1	122
442.330	1	117
442.501	1	130
442.671	1	113
442.842	1	125
443.012	1	121
443.183	1	123
443.353	1	117
443.524	1	116
443.694	1	118
443.865	1	122
444.035	1	106
444.206	1	121
444.376	1	112
444.547	1	123
444.717	1	114
444.888	1	105
445.058	1	131
445.229	1	113
445.399	1	126
445.570	1	124
445.740	1	118
445.911	1	111
446.081	1	117
446.252	1	115
446.422	1	115
446.593	1	111
446.763	1	122
446.934	1	115
447.104	1	107
447.275	1	105
447.445	1	93
447.616	1	105
447.786	1	126
447.957	1	113
448.127	1	116
448.298	1	112
448.468	1	115
448.639	1	116
448.809	1	122
448.979	1	107
449.150	1	106
449.320	1	103
449.491	1	115
449.661	1	112
449.832	1	107
450.002	1	105
450.173	1	109
450.343	1	118
450.514	1	111
450.684	1	111
450.855	1	114
451.025	1	115
451.196	1	104
451.366	1	113
451.537	1	113
451.707	1	105
451.878	1	103
452.048	1	106
452.218	1	104
452.389	1	125
452.559	1	107
452.730	1	108
452.900	1	109
453.071	1	110
453.241	1	96
453.412	1	110
453.582	1	107
453.753	1	109
453.923	1	103
454.093	1	102
454.264	1	105
454.434	1	101
454.605	1	107
454.775	1	89
454.946	1	96
455.116	1	112
455.287	1	110
455.457	1	102
455.628	1	90
455.798	1	106
455.968	1	107
456.139	1	95
456.309	1	110
456.480	1	93
456.650	1	101
456.821	1	98
456.991	1	99
457.161	1	98
457.332	1	102
457.502	1	105
457.673	1	102
457.843	1	98
458.014	1	104
458.184	1	97
458.355	1	92
458.525	1	104
458.695	1	97
458.866	1	98
459.036	1	97
459.207	1	96
459.377	1	95
459.548	1	92
459.718	1	88
459.888	1	95
460.059	1	98
460.229	1	92
460.400	1	101
460.570	1	99
460.740	1	88
460.911	1	101
461.081	1	94
461.252	1	89
461.422	1	93
461.593	1	95
461.763	1	94
461.933	1	95
462.104	1	93
462.274	1	87
462.445	1	88
462.615	1	93
462.785	1	96
462.956	1	89
463.126	1	102
463.297	1	96
463.467	1	86
463.638	1	88
463.808	1	95
463.978	1	82
464.149	1	97
464.319	1	84
464.490	1	85
464.660	1	104
464.830	1	86
465.001	1	91
465.171	1	93
465.342	1	79
465.512	1	99
465.682	1	87
465.853	1	91
466.023	1	93
466.194	1	78
466.364	1	87
466.534	1	73
466.705	1	83
466.875	1	90
467.045	1	89
467.216	1	77
467.386	1	85
467.557	1	103
467.727	1	91
467.897	1	105
468.068	1	92
468.238	1	80
468.409	1	86
468.579	1	88
468.749	1	92
468.920	1	94
469.090	1	79
469.260	1	89
469.431	1	83
469.601	1	79
469.772	1	81
469.942	1	91
470.112	1	77
470.283	1	83
470.453	1	85
470.623	1	87
470.794	1	72
470.964	1	91
471.135	1	82
471.305	1	73
471.475	1	83
471.646	1	78
471.816	1	80
471.986	1	68
472.157	1	74
472.327	1	81
472.497	1	77
472.668	1	79
472.838	1	75
473.009	1	74
473.179	1	78
473.349	1	71
473.520	1	68
473.690	1	69
473.860	1	67
474.031	1	64
474.201	1	77
474.371	1	81
474.542	1	78
474.712	1	74
474.882	1	66
475.053	1	66
475.223	1	81
475.394	1	55
475.564	1	75
475.734	1	72
475.905	1	79
476.075	1	65
476.245	1	79
476.416	1	76
476.586	1	76
476.756	1	68
476.927	1	73
477.097	1	81
477.267	1	69
477.438	1	63
477.608	1	70
477.778	1	82
477.949	1	76
478.119	1	63
478.289	1	63
478.460	1	72
478.630	1	73
478.800	1	69
478.971	1	71
479.141	1	69
479.311	1	75
479.482	1	58
479.652	1	79
479.822	1	67
479.993	1	76
480.163	1	80
480.333	1	91
480.504	1	73
480.674	1	63
480.844	1	68
481.015	1	71
481.185	1	67
481.355	1	69
481.525	1	53
481.696	1	63
481.866	1	65
482.036	1	60
482.207	1	73
482.377	1	82
482.547	1	67
482.718	1	67
482.888	1	65
483.058	1	74
483.229	1	72
483.399	1	57
483.569	1	62
483.740	1	70
483.910	1	68
484.080	1	80
484.250	1	62
484.421	1	68
484.591	1	66
484.761	1	63
484.932	1	73
485.102	1	54
485.272	1	56
485.443	1	68
485.613	1	60
485.783	1	62
485.953	1	51
486.124	1	73
486.294	1	69
486.464	1	68
486.635	1	56
486.805	1	64
486.975	1	59
487.146	1	57
487.316	1	60
487.486	1	55
487.656	1	66
487.827	1	76
487.997	1	57
488.167	1	71
488.338	1	56
488.508	1	52
488.678	1	66
488.848	1	64
489.019	1	51
489.189	1	51
489.359	1	60
489.529	1	53
489.700	1	59
489.870	1	56
490.040	1	44
490.211	1	55
490.381	1	61
490.551	1	52
490.721	1	58
490.892	1	71
491.062	1	42
491.232	1	60
491.402	1	55
491.573	1	59
491.743	1	50
491.913	1	70
492.084	1	51
492.254	1	64
492.424	1	57
492.594	1	55
492.765	1	44
492.935	1	45
493.105	1	42
493.275	1	64
493.446	1	49
493.616	1	52
493.786	1	49
493.956	1	55
494.127	1	48
494.297	1	55
494.467	1	58
494.637	1	59
494.808	1	55
494.978	1	44
495.148	1	55
495.318	1	56
495.489	1	64
495.659	1	50
495.829	1	57
495.999	1	50
496.170	1	45
496.340	1	51
496.510	1	69
496.680	1	57
496.851	1	60
497.021	1	63
497.191	1	50
497.361	1	58
497.532	1	55
497.702	1	57
497.872	1	49
498.042	1	61
498.213	1	56
498.383	1	70
498.553	1	57
498.723	1	42
498.894	1	61
499.064	1	53
499.234	1	63
499.404	1	58
499.574	1	64
499.745	1	37
499.915	1	54
500.085	1	52
500.255	1	48
500.426	1	48
500.596	1	51
500.766	1	49
500.936	1	54
501.106	1	52
501.277	1	53
501.447	1	40
501.617	1	50
501.787	1	59
501.958	1	52
502.128	1	55
502.298	1	53
502.468	1	58
502.638	1	57
502.809	1	58
502.979	1	50
503.149	1	44
503.319	1	55
503.489	1	49
503.660	1	44
503.830	1	44
504.000	1	54
504.170	1	40
504.340	1	47
504.511	1	50
504.681	1	50
504.851	1	44
505.021	1	51
505.192	1	48
505.362	1	55
505.532	1	40
505.702	1	44
505.872	1	48
506.043	1	46
506.213	1	39
506.383	1	40
506.553	1	46
506.723	1	45
506.893	1	48
507.064	1	49
507.234	1	41
507.404	1	56
507.574	1	38
507.744	1	36
507.915	1	50
508.085	1	38
508.255	1	47
508.425	1	41
508.595	1	28
508.766	1	49
508.936	1	41
509.106	1	51
509.276	1	53
509.446	1	28
509.616	1	48
509.787	1	55
509.957	1	47
510.127	1	41
510.297	1	38
510.467	1	53
510.638	1	40
510.808	1	44
510.978	1	47
511.148	1	32
511.318	1	57
511.488	1	35
511.659	1	28
511.829	1	41
511.999	1	43
512.169	1	36
512.339	1	46
512.509	1	41
512.680	1	38
512.850	1	37
513.020	1	40
513.190	1	36
513.360	1	38
513.530	1	40
513.700	1	42
513.871	1	52
514.041	1	43
514.211	1	51
514.381	1	33
514.551	1	43
514.721	1	43
514.892	1	37
515.062	1	33
515.232	1	36
515.402	1	42
515.572	1	35
515.742	1	30
515.912	1	38
516.083	1	36
516.253	1	36
516.423	1	34
516.593	1	39
516.763	1	43
516.933	1	37
517.104	1	37
517.274	1	43
517.444	1	43
517.614	1	31
517.784	1	32
517.954	1	27
518.124	1	31
518.294	1	48
518.465	1	34
518.635	1	29
518.805	1	37
518.975	1	41
519.145	1	32
519.315	1	48
519.485	1	30
519.656	1	54
519.826	1	35
519.996	1	34
520.166	1	39
520.336	1	34
520.506	1	40
520.676	1	38
520.846	1	30
521.017	1	33
521.187	1	28
521.357	1	35
521.527	1	37
521.697	1	40
521.867	1	28
522.037	1	38
522.207	1	27
522.377	1	29
522.548	1	42
522.718	1	36
522.888	1	20
523.058	1	26
523.228	1	47
523.398	1	30
523.568	1	39
523.738	1	37
523.909	1	45
524.079	1	25
524.249	1	36
524.419	1	33
524.589	1	38
524.759	1	31
524.929	1	45
525.099	1	45
525.269	1	47
525.439	1	25
525.610	1	40
525.780	1	35
525.950	1	29
526.120	1	38
526.290	1	41
526.460	1	33
526.630	1	33
526.800	1	36
526.970	1	39
527.140	1	44
527.311	1	28
527.481	1	33
527.651	1	30
527.821	1	21
527.991	1	35
528.161	1	32
528.331	1	23
528.501	1	30
528.671	1	35
528.841	1	32
529.011	1	19
529.181	1	42
529.352	1	20
529.522	1	20
529.692	1	26
529.862	1	30
530.032	1	35
530.202	1	28
530.372	1	37
530.542	1	32
530.712	1	14
530.882	1	31
531.052	1	18
531.222	1	23
531.392	1	29
531.563	1	25
531.733	1	32
531.903	1	34
532.073	1	26
532.243	1	20
532.413	1	35
532.583	1	13
532.753	1	27
532.923	1	34
533.093	1	9
533.263	1	22
533.433	1	26
533.603	1	24
533.773	1	32
533.943	1	30
534.113	1	26
534.284	1	39
534.454	1	29
534.624	1	12
534.794	1	31
534.964	1	31
535.134	1	16
535.304	1	33
535.474	1	13
535.644	1	33
535.814	1	12
535.984	1	11
536.154	1	31
536.324	1	14
536.494	1	24
536.664	1	5
536.834	1	17
537.004	1	12
537.174	1	34
537.344	1	25
537.514	1	24
537.685	1	37
537.855	1	29
538.025	1	27
538.195	1	30
538.365	1	18
538.535	1	29
538.705	1	5
538.875	1	27
539.045	1	20
539.215	1	36
539.385	1	19
539.555	1	23
539.725	1	26
539.895	1	29
540.065	1	21
540.235	1	27
540.405	1	30
540.575	1	23
540.745	1	27
540.915	1	32
541.085	1	15
541.255	1	31
541.425	1	25
541.595	1	18
541.765	1	25
541.935	1	31
542.105	1	22
542.275	1	26
542.445	1	17
542.615	1	30
542.785	1	23
542.955	1	21
543.125	1	15
543.295	1	38
543.465	1	18
543.635	1	14
543.805	1	29
543.975	1	16
544.145	1	31
544.315	1	7
544.485	1	23
544.655	1	32
544.825	1	21
544.995	1	23
545.165	1	32
545.335	1	26
545.505	1	18
545.675	1	25
545.845	1	18
546.015	1	24
546.185	1	13
546.355	1	15
546.525	1	18
546.695	1	25
546.865	1	22
547.035	1	24
547.205	1	16
547.375	1	25
547.545	1	8
547.715	1	27
547.885	1	19
548.055	1	26
548.225	1	20
548.395	1	28
548.565	1	23
548.735	1	20
548.905	1	21
549.075	1	26
549.245	1	23
549.415	1	23
549.585	1	26
549.755	1	23
549.925	1	19
550.095	1	17
550.265	1	9
550.435	1	17
550.605	1	15
550.775	1	23
550.945	1	16
551.115	1	19
551.285	1	10
551.455	1	11
551.625	1	21
551.795	1	26
551.965	1	28
552.135	1	4
552.305	1	16
552.475	1	29
552.645	1	25
552.815	1	14
552.985	1	14
553.155	1	19
553.325	1	7
553.495	1	15
553.665	1	9
553.835	1	24
554.004	1	11
554.174	1	11
554.344	1	23
554.514	1	23
554.684	1	14
554.854	1	9
555.024	1	28
555.194	1	17
555.364	1	19
555.534	1	20
555.704	1	3
555.874	1	20
556.044	1	25
556.214	1	11
556.384	1	23
556.554	1	10
556.724	1	12
556.894	1	22
557.064	1	17
557.234	1	14
557.404	1	24
557.573	1	11
557.743	1	13
557.913	1	22
558.083	1	7
558.253	1	9
558.423	1	15
558.593	1	30
558.763	1	18
558.933	1	19
559.103	1	15
559.273	1	21
559.443	1	7
559.613	1	9
559.783	1	13
559.953	1	13
560.122	1	21
560.292	1	16
560.462	1	16
560.632	1	13
560.802	1	13
560.972	1	12
561.142	1	28
561.312	1	16
561.482	1	3
561.652	1	17
561.822	1	15
561.992	1	17
562.162	1	15
562.331	1	12
562.501	1	25
562.671	1	22
562.841	1	27
563.011	1	33
563.181	1	25
563.351	1	11
563.521	1	14
563.691	1	5
563.861	1	17
564.031	1	11
564.201	1	12
564.370	1	20
564.540	1	15
564.710	1	24
564.880	1	25
565.050	1	14
565.220	1	17
565.390	1	19
565.560	1	20
565.730	1	17
565.900	1	7
566.069	1	22
566.239	1	9
566.409	1	24
566.579	1	20
566.749	1	12
566.919	1	15
567.089	1	8
567.259	1	16
567.429	1	18
567.599	1	3
567.768	1	12
567.938	1	6
568.108	1	19
568.278	1	14
568.448	1	28
568.618	1	29
568.788	1	21
568.958	1	20
569.128	1	20
569.297	1	14
569.467	1	19
569.637	1	14
569.807	1	21
569.977	1	21
570.147	1	5
570.317	1	20
570.487	1	17
570.656	1	16
570.826	1	29
570.996	1	13
571.166	1	30
571.336	1	20
571.506	1	13
571.676	1	31
571.846	1	14
572.015	1	17
572.185	1	14
572.355	1	5
572.525	1	15
572.695	1	7
572.865	1	17
573.035	1	18
573.205	1	10
573.374	1	19
573.544	1	15
573.714	1	18
573.884	1	18
574.054	1	25
574.224	1	10
574.394	1	11
574.563	1	13
574.733	1	13
574.903	1	10
575.073	1	17
575.243	1	18
575.413	1	16
575.583	1	15
575.752	1	6
575.922	1	10
576.092	1	15
576.262	1	15
576.432	1	17
576.602	1	6
576.772	1	8
576.941	1	8
577.111	1	21
577.281	1	21
577.451	1	23
577.621	1	12
577.791	1	11
577.960	1	16
578.130	1	14
578.300	1	15
578.470	1	7
578.640	1	17
578.810	1	8
578.979	1	10
579.149	1	1
579.319	1	9
579.489	1	8
579.659	1	21
579.829	1	16
579.998	1	6
580.168	1	8
580.338	1	21
580.508	1	12
580.678	1	6
580.848	1	28
581.017	1	19
581.187	1	22
581.357	1	0
581.527	1	9
581.697	1	13
581.867	1	6
582.036	1	11
582.206	1	13
582.376	1	10
582.546	1	1
582.716	1	12
582.885	1	12
583.055	1	8
583.225	1	9
583.395	1	20
583.565	1	24
583.735	1	12
583.904	1	20
584.074	1	15
584.244	1	15
584.414	1	10
584.584	1	4
584.753	1	23
584.923	1	13
585.093	1	23
585.263	1	19
585.433	1	10
585.602	1	15
585.772	1	14
585.942	1	17
586.112	1	16
586.282	1	18
586.451	1	7
586.621	1	19
586.791	1	16
586.961	1	15
587.131	1	22
587.300	1	9
587.470	1	19
587.640	1	10
587.810	1	7
587.980	1	19
588.149	1	26
588.319	1	11
588.489	1	21
588.659	1	11
588.829	1	11
588.998	1	17
589.168	1	10
589.338	1	13
589.508	1	6
589.677	1	14
589.847	1	14
590.017	1	18
590.187	1	16
590.357	1	6
590.526	1	25
590.696	1	19
590.866	1	17
591.036	1	13
591.205	1	8
591.375	1	9
591.545	1	12
591.715	1	14
591.885	1	12
592.054	1	15
592.224	1	13
592.394	1	15
592.564	1	12
592.733	1	16
592.903	1	24
593.073	1	14
593.243	1	18
593.412	1	2
593.582	1	13
593.752	1	29
593.922	1	7
594.091	1	18
594.261	1	14
594.431	1	15
594.601	1	9
594.771	1	17
594.940	1	16
595.110	1	24
595.280	1	15
595.450	1	13
595.619	1	10
595.789	1	7
595.959	1	9
596.129	1	16
596.298	1	14
596.468	1	17
596.638	1	26
596.808	1	28
596.977	1	19
597.147	1	26
597.317	1	16
597.487	1	11
597.656	1	19
597.826	1	11
597.996	1	18
598.166	1	6
598.335	1	27
598.505	1	11
598.675	1	14
598.844	1	6
599.014	1	16
599.184	1	28
599.354	1	5
599.523	1	13
599.693	1	13
599.863	1	16
600.033	1	13
600.202	1	3
600.372	1	2
600.542	1	19
600.712	1	14
600.881	1	23
601.051	1	16
601.221	1	14
601.390	1	15
601.560	1	0
601.730	1	32
601.900	1	8
602.069	1	18
602.239	1	10
602.409	1	18
602.578	1	14
602.748	1	17
602.918	1	9
603.088	1	13
603.257	1	22
603.427	1	11
603.597	1	10
603.767	1	12
603.936	1	22
604.106	1	24
604.276	1	15
604.445	1	4
604.615	1	9
604.785	1	19
604.954	1	23
605.124	1	4
605.294	1	20
605.464	1	26
605.633	1	30
605.803	1	4
605.973	1	11
606.142	1	18
606.312	1	4
606.482	1	8
606.652	1	20
606.821	1	16
606.991	1	19
607.161	1	34
607.330	1	15
607.500	1	14
607.670	1	17
607.839	1	25
608.009	1	14
608.179	1	17
608.348	1	24
608.518	1	23
608.688	1	22
608.858	1	16
609.027	1	15
609.197	1	20
609.367	1	18
609.536	1	10
609.706	1	18
609.876	1	8
610.045	1	15
610.215	1	16
610.385	1	28
610.554	1	10
610.724	1	25
610.894	1	17
611.063	1	14
611.233	1	15
611.403	1	12
611.572	1	10
611.742	1	4
611.912	1	20
612.081	1	15
612.251	1	23
612.421	1	13
612.590	1	11
612.760	1	21
612.930	1	9
613.099	1	17
613.269	1	14
613.439	1	25
613.608	1	19
613.778	1	16
613.948	1	31
614.117	1	21
614.287	1	16
614.457	1	-1
614.626	1	12
614.796	1	21
614.966	1	7
615.135	1	19
615.305	1	17
615.475	1	11
615.644	1	21
615.814	1	13
615.984	1	7
616.153	1	13
616.323	1	15
616.493	1	21
616.662	1	18
616.832	1	26
617.002	1	27
617.171	1	16
617.341	1	14
617.511	1	11
617.680	1	19
617.850	1	9
618.019	1	20
618.189	1	25
618.359	1	4
618.528	1	24
618.698	1	21
618.868	1	39
619.037	1	14
619.207	1	16
619.377	1	31
619.546	1	19
619.716	1	13
619.885	1	30
620.055	1	7
620.225	1	26
620.394	1	23
620.564	1	26
620.734	1	16
620.903	1	16
621.073	1	16
621.242	1	11
621.412	1	12
621.582	1	17
621.751	1	15
621.921	1	15
622.091	1	16
622.260	1	26
622.430	1	14
622.599	1	19
622.769	1	10
622.939	1	29
623.108	1	19
623.278	1	29
623.448	1	16
623.617	1	10
623.787	1	19
623.956	1	10
624.126	1	21
624.296	1	30
624.465	1	13
624.635	1	9
624.804	1	22
624.974	1	20
625.144	1	27
625.313	1	8
625.483	1	17
625.652	1	25
625.822	1	22
625.992	1	17
626.161	1	10
626.331	1	11
626.501	1	18
626.670	1	18
626.840	1	7
627.009	1	24
627.179	1	19
627.348	1	32
627.518	1	25
627.688	1	12
627.857	1	25
628.027	1	18
628.196	1	23
628.366	1	13
628.536	1	17
628.705	1	12
628.875	1	24
629.044	1	18
629.214	1	17
629.384	1	25
629.553	1	22
629.723	1	16
629.892	1	17
630.062	1	29
630.232	1	9
630.401	1	16
630.571	1	16
630.740	1	16
630.910	1	24
631.079	1	18
631.249	1	12
631.419	1	24
631.588	1	18
631.758	1	17
631.927	1	24
632.097	1	23
632.266	1	12
632.436	1	13
632.606	1	28
632.775	1	16
632.945	1	10
633.114	1	16
633.284	1	17
633.453	1	17
633.623	1	15
633.793	1	21
633.962	1	12
634.132	1	26
634.301	1	24
634.471	1	25
634.640	1	32
634.810	1	19
634.979	1	25
635.149	1	22
635.319	1	18
635.488	1	19
635.658	1	8
635.827	1	26
635.997	1	19
636.166	1	23
636.336	1	26
636.505	1	36
636.675	1	15
636.845	1	33
637.014	1	24
637.184	1	22
637.353	1	28
637.523	1	15
637.692	1	26
637.862	1	14
638.031	1	21
638.201	1	27
638.370	1	26
638.540	1	25
638.710	1	27
638.879	1	12
639.049	1	24
639.218	1	11
639.388	1	25
639.557	1	18
639.727	1	22
639.896	1	18
640.066	1	26
640.235	1	26
640.405	1	21
640.574	1	26
640.744	1	29
640.914	1	29
641.083	1	21
641.253	1	19
641.422	1	24
641.592	1	26
641.761	1	30
641.931	1	14
642.100	1	17
642.270	1	25
642.439	1	20
642.609	1	25
642.778	1	24
642.948	1	21
643.117	1	27
643.287	1	12
643.456	1	14
643.626	1	23
643.795	1	24
643.965	1	26
644.134	1	33
644.304	1	33
644.473	1	20
644.643	1	22
644.812	1	26
644.982	1	33
645.151	1	20
645.321	1	21
645.490	1	30
645.660	1	27
645.829	1	19
645.999	1	37
646.168	1	25
646.338	1	28
646.507	1	11
646.677	1	25
646.846	1	34
647.016	1	28
647.185	1	23
647.355	1	35
647.524	1	17
647.694	1	29
647.863	1	25
648.033	1	23
648.202	1	28
648.372	1	14
648.541	1	19
648.711	1	20
648.880	1	31
649.050	1	19
649.219	1	26
649.389	1	36
649.558	1	24
649.728	1	15
649.897	1	37
650.067	1	19
650.236	1	34
650.406	1	17
650.575	1	22
650.745	1	26
650.914	1	32
651.084	1	21
651.253	1	32
651.423	1	36
651.592	1	25
651.762	1	34
651.931	1	32
652.101	1	27
652.270	1	28
652.440	1	31
652.609	1	19
652.778	1	32
652.948	1	12
653.117	1	36
653.287	1	37
653.456	1	25
653.626	1	30
653.795	1	37
653.965	1	36
654.134	1	40
654.304	1	25
654.473	1	31
654.643	1	39
654.812	1	37
654.982	1	42
655.151	1	42
655.320	1	33
655.490	1	23
655.659	1	20
655.829	1	19
655.998	1	41
656.168	1	23
656.337	1	28
656.507	1	23
656.676	1	27
656.846	1	24
657.015	1	32
657.184	1	18
657.354	1	35
657.523	1	27
657.693	1	21
657.862	1	31
658.032	1	28
658.201	1	26
658.371	1	33
658.540	1	47
658.709	1	24
658.879	1	27
659.048	1	29
659.218	1	19
659.387	1	31
659.557	1	35
659.726	1	38
659.895	1	25
660.065	1	29
660.234	1	32
660.404	1	45
660.573	1	22
660.743	1	30
660.912	1	39
661.081	1	30
661.251	1	11
661.420	1	38
661.590	1	40
661.759	1	28
661.929	1	46
662.098	1	34
662.267	1	40
662.437	1	42
662.606	1	32
662.776	1	32
662.945	1	41
663.115	1	20
663.284	1	24
663.453	1	26
663.623	1	34
663.792	1	27
663.962	1	36
664.131	1	33
664.300	1	38
664.470	1	20
664.639	1	24
664.809	1	37
664.978	1	26
665.148	1	28
665.317	1	26
665.486	1	22
665.656	1	32
665.825	1	34
665.995	1	39
666.164	1	34
666.333	1	27
666.503	1	38
666.672	1	25
666.842	1	20
667.011	1	22
667.180	1	26
667.350	1	37
667.519	1	36
667.689	1	31
667.858	1	45
668.027	1	37
668.197	1	33
668.366	1	37
668.536	1	33
668.705	1	51
668.874	1	43
669.044	1	33
669.213	1	35
669.382	1	41
669.552	1	35
669.721	1	30
669.891	1	31
670.060	1	30
670.229	1	36
670.399	1	42
670.568	1	45
670.738	1	22
670.907	1	37
671.076	1	34
671.246	1	19
671.415	1	39
671.584	1	27
671.754	1	32
671.923	1	26
672.093	1	42
672.262	1	28
672.431	1	40
672.601	1	32
672.770	1	31
672.939	1	31
673.109	1	35
673.278	1	48
673.448	1	39
673.617	1	27
673.786	1	31
