325.333	1	20
325.504	1	22
325.675	1	14
325.846	1	26
326.017	1	21
326.188	1	32
326.359	1	31
326.531	1	14
326.702	1	22
326.873	1	36
327.044	1	15
327.215	1	21
327.386	1	23
327.557	1	27
327.728	1	18
327.899	1	21
328.070	1	18
328.241	1	24
328.412	1	17
328.583	1	30
328.754	1	16
328.926	1	25
329.097	1	29
329.268	1	32
329.439	1	27
329.610	1	37
329.781	1	34
329.952	1	25
330.123	1	31
330.294	1	35
330.465	1	41
330.636	1	20
330.807	1	29
330.978	1	36
331.149	1	25
331.320	1	25
331.492	1	33
331.663	1	37
331.834	1	40
332.005	1	24
332.176	1	36
332.347	1	42
332.518	1	29
332.689	1	33
332.860	1	32
333.031	1	39
333.202	1	37
333.373	1	40
333.544	1	37
333.715	1	37
333.886	1	38
334.057	1	43
334.228	1	39
334.399	1	40
334.570	1	43
334.741	1	35
334.912	1	37
335.084	1	35
335.255	1	36
335.426	1	39
335.597	1	40
335.768	1	38
335.939	1	40
336.110	1	25
336.281	1	42
336.452	1	45
336.623	1	43
336.794	1	29
336.965	1	38
337.136	1	31
337.307	1	40
337.478	1	39
337.649	1	31
337.820	1	33
337.991	1	39
338.162	1	37
338.333	1	41
338.504	1	36
338.675	1	42
338.846	1	37
339.017	1	40
339.188	1	39
339.359	1	44
339.530	1	47
339.701	1	39
339.872	1	42
340.043	1	47
340.214	1	42
340.385	1	52
340.556	1	43
340.727	1	50
340.898	1	39
341.069	1	50
341.240	1	63
341.411	1	48
341.582	1	50
341.753	1	30
341.924	1	57
342.095	1	47
342.266	1	43
342.437	1	50
342.608	1	42
342.779	1	42
342.950	1	46
343.121	1	52
343.292	1	54
343.463	1	56
343.634	1	45
343.805	1	50
343.976	1	49
344.147	1	57
344.318	1	55
344.489	1	60
344.660	1	45
344.831	1	47
345.002	1	51
345.173	1	59
345.344	1	40
345.515	1	51
345.686	1	43
345.857	1	65
346.028	1	70
346.199	1	59
346.370	1	57
346.541	1	62
346.712	1	51
346.883	1	69
347.054	1	56
347.225	1	54
347.396	1	63
347.567	1	67
347.738	1	58
347.909	1	72
348.080	1	54
348.251	1	44
348.422	1	61
348.593	1	55
348.764	1	67
348.935	1	61
349.106	1	49
349.277	1	63
349.448	1	68
349.619	1	63
349.790	1	68
349.961	1	63
350.132	1	66
350.303	1	71
350.474	1	63
350.645	1	64
350.816	1	60
350.987	1	62
351.157	1	69
351.328	1	72
351.499	1	58
351.670	1	69
351.841	1	70
352.012	1	56
352.183	1	66
352.354	1	68
352.525	1	63
352.696	1	63
352.867	1	54
353.038	1	71
353.209	1	83
353.380	1	77
353.551	1	90
353.722	1	75
353.893	1	63
354.064	1	78
354.235	1	86
354.406	1	74
354.576	1	67
354.747	1	74
354.918	1	66
355.089	1	72
355.260	1	74
355.431	1	85
355.602	1	83
355.773	1	76
355.944	1	65
356.115	1	72
356.286	1	71
356.457	1	92
356.628	1	84
356.799	1	79
356.970	1	69
357.141	1	87
357.311	1	93
357.482	1	72
357.653	1	71
357.824	1	82
357.995	1	85
358.166	1	72
358.337	1	78
358.508	1	75
358.679	1	81
358.850	1	86
359.021	1	82
359.192	1	85
359.363	1	84
359.533	1	74
359.704	1	88
359.875	1	81
360.046	1	81
360.217	1	87
360.388	1	80
360.559	1	90
360.730	1	79
360.901	1	81
361.072	1	88
361.243	1	79
361.414	1	85
361.584	1	88
361.755	1	101
361.926	1	86
362.097	1	94
362.268	1	77
362.439	1	88
362.610	1	93
362.781	1	84
362.952	1	86
363.123	1	105
363.293	1	82
363.464	1	87
363.635	1	95
363.806	1	80
363.977	1	89
364.148	1	81
364.319	1	80
364.490	1	96
364.661	1	89
364.832	1	95
365.002	1	96
365.173	1	93
365.344	1	89
365.515	1	100
365.686	1	92
365.857	1	97
366.028	1	78
366.199	1	86
366.370	1	102
366.540	1	95
366.711	1	85
366.882	1	94
367.053	1	91
367.224	1	86
367.395	1	91
367.566	1	100
367.737	1	102
367.908	1	98
368.078	1	113
368.249	1	81
368.420	1	94
368.591	1	105
368.762	1	88
368.933	1	88
369.104	1	94
369.274	1	100
369.445	1	105
369.616	1	82
369.787	1	94
369.958	1	102
370.129	1	94
370.300	1	95
370.471	1	98
370.641	1	98
370.812	1	93
370.983	1	84
371.154	1	97
371.325	1	101
371.496	1	91
371.667	1	99
371.837	1	112
372.008	1	105
372.179	1	101
372.350	1	107
372.521	1	113
372.692	1	99
372.863	1	95
373.033	1	100
373.204	1	101
373.375	1	108
373.546	1	103
373.717	1	89
373.888	1	100
374.059	1	105
374.229	1	107
374.400	1	86
374.571	1	105
374.742	1	100
374.913	1	77
375.084	1	107
375.254	1	107
375.425	1	90
375.596	1	99
375.767	1	108
375.938	1	99
376.109	1	85
376.279	1	90
376.450	1	104
376.621	1	121
376.792	1	105
376.963	1	96
377.134	1	116
377.304	1	95
377.475	1	97
377.646	1	105
377.817	1	92
377.988	1	88
378.159	1	100
378.329	1	104
378.500	1	91
378.671	1	105
378.842	1	107
379.013	1	112
379.184	1	118
379.354	1	89
379.525	1	104
379.696	1	112
379.867	1	102
380.038	1	103
380.209	1	108
380.379	1	121
380.550	1	107
380.721	1	122
380.892	1	102
381.063	1	116
381.233	1	101
381.404	1	117
381.575	1	110
381.746	1	118
381.917	1	104
382.087	1	109
382.258	1	126
382.429	1	118
382.600	1	106
382.771	1	115
382.941	1	123
383.112	1	109
383.283	1	122
383.454	1	109
383.625	1	114
383.795	1	117
383.966	1	114
384.137	1	132
384.308	1	122
384.479	1	116
384.649	1	124
384.820	1	114
384.991	1	114
385.162	1	115
385.333	1	116
385.503	1	113
385.674	1	114
385.845	1	126
386.016	1	118
386.187	1	118
386.357	1	122
386.528	1	113
386.699	1	106
386.870	1	113
387.041	1	126
387.211	1	115
387.382	1	117
387.553	1	122
387.724	1	111
387.894	1	111
388.065	1	116
388.236	1	112
388.407	1	121
388.578	1	109
388.748	1	128
388.919	1	127
389.090	1	119
389.261	1	130
389.431	1	132
389.602	1	123
389.773	1	113
389.944	1	119
390.114	1	128
390.285	1	119
390.456	1	119
390.627	1	124
390.798	1	134
390.968	1	120
391.139	1	115
391.310	1	131
391.481	1	123
391.651	1	138
391.822	1	127
391.993	1	122
392.164	1	119
392.334	1	130
392.505	1	119
392.676	1	132
392.847	1	119
393.017	1	130
393.188	1	139
393.359	1	142
393.530	1	141
393.700	1	136
393.871	1	132
394.042	1	121
394.213	1	111
394.383	1	116
394.554	1	124
394.725	1	141
394.896	1	121
395.066	1	133
395.237	1	129
395.408	1	119
395.579	1	134
395.749	1	127
395.920	1	134
396.091	1	123
396.262	1	135
396.432	1	134
396.603	1	134
396.774	1	131
396.945	1	138
397.115	1	128
397.286	1	138
397.457	1	132
397.627	1	130
397.798	1	117
397.969	1	133
398.140	1	132
398.310	1	127
398.481	1	129
398.652	1	145
398.823	1	125
398.993	1	142
399.164	1	135
399.335	1	140
399.505	1	139
399.676	1	135
399.847	1	126
400.018	1	130
400.188	1	137
400.359	1	124
400.530	1	132
400.700	1	145
400.871	1	151
401.042	1	139
401.213	1	142
401.383	1	138
401.554	1	150
401.725	1	145
401.895	1	149
402.066	1	129
402.237	1	143
402.408	1	147
402.578	1	141
402.749	1	142
402.920	1	139
403.090	1	128
403.261	1	127
403.432	1	144
403.603	1	140
403.773	1	145
403.944	1	139
404.115	1	146
404.285	1	131
404.456	1	138
404.627	1	138
404.797	1	140
404.968	1	160
405.139	1	134
405.310	1	148
405.480	1	135
405.651	1	148
405.822	1	136
405.992	1	135
406.163	1	148
406.334	1	129
406.504	1	127
406.675	1	133
406.846	1	129
407.016	1	132
407.187	1	143
407.358	1	148
407.528	1	131
407.699	1	152
407.870	1	139
408.041	1	140
408.211	1	137
408.382	1	144
408.553	1	130
408.723	1	149
408.894	1	133
409.065	1	146
409.235	1	137
409.406	1	136
409.577	1	133
409.747	1	138
409.918	1	130
410.089	1	153
410.259	1	148
410.430	1	145
410.601	1	132
410.771	1	142
410.942	1	147
411.113	1	136
411.283	1	145
411.454	1	143
411.625	1	138
411.795	1	147
411.966	1	138
412.137	1	141
412.307	1	156
412.478	1	157
412.649	1	138
412.819	1	138
412.990	1	141
413.161	1	146
413.331	1	143
413.502	1	141
413.672	1	150
413.843	1	143
414.014	1	144
414.184	1	140
414.355	1	159
414.526	1	155
414.696	1	150
414.867	1	155
415.038	1	135
415.208	1	136
415.379	1	140
415.550	1	157
415.720	1	139
415.891	1	130
416.062	1	140
416.232	1	132
416.403	1	142
416.573	1	148
416.744	1	145
416.915	1	147
417.085	1	143
417.256	1	128
417.427	1	134
417.597	1	126
417.768	1	131
417.939	1	144
418.109	1	132
418.280	1	129
418.450	1	128
418.621	1	133
418.792	1	138
418.962	1	146
419.133	1	136
419.304	1	139
419.474	1	124
419.645	1	134
419.815	1	124
419.986	1	133
420.157	1	121
420.327	1	142
420.498	1	140
420.669	1	136
420.839	1	121
421.010	1	132
421.180	1	142
421.351	1	125
421.522	1	126
421.692	1	131
421.863	1	138
422.033	1	135
422.204	1	129
422.375	1	127
422.545	1	138
422.716	1	126
422.886	1	136
423.057	1	128
423.228	1	135
423.398	1	132
423.569	1	139
423.740	1	124
423.910	1	126
424.081	1	122
424.251	1	125
424.422	1	131
424.593	1	113
424.763	1	127
424.934	1	125
425.104	1	122
425.275	1	132
425.445	1	143
425.616	1	129
425.787	1	122
425.957	1	133
426.128	1	122
426.298	1	117
426.469	1	126
426.640	1	134
426.810	1	131
426.981	1	136
427.151	1	137
427.322	1	129
427.493	1	127
427.663	1	121
427.834	1	131
428.004	1	129
428.175	1	123
428.345	1	121
428.516	1	133
428.687	1	124
428.857	1	129
429.028	1	130
429.198	1	136
429.369	1	128
429.540	1	123
429.710	1	128
429.881	1	127
430.051	1	123
430.222	1	113
430.392	1	123
430.563	1	125
430.734	1	125
430.904	1	112
431.075	1	125
431.245	1	120
431.416	1	123
431.586	1	112
431.757	1	116
431.927	1	114
432.098	1	117
432.269	1	115
432.439	1	126
432.610	1	126
432.780	1	117
432.951	1	129
433.121	1	118
433.292	1	108
433.462	1	120
433.633	1	104
433.804	1	122
433.974	1	115
434.145	1	116
434.315	1	126
434.486	1	108
434.656	1	110
434.827	1	114
434.997	1	132
435.168	1	128
435.339	1	119
435.509	1	116
435.680	1	120
435.850	1	110
436.021	1	121
436.191	1	112
436.362	1	111
436.532	1	121
436.703	1	117
436.873	1	126
437.044	1	117
437.214	1	122
437.385	1	128
437.556	1	116
437.726	1	115
437.897	1	121
438.067	1	108
438.238	1	92
438.408	1	120
438.579	1	117
438.749	1	119
438.920	1	117
439.090	1	121
439.261	1	117
439.431	1	121
439.602	1	123
439.772	1	114
439.943	1	114
440.113	1	118
440.284	1	120
440.455	1	118
440.625	1	125
440.796	1	125
440.966	1	111
441.137	1	115
441.307	1	120
441.478	1	117
441.648	1	107
441.819	1	114
441.989	1	105
442.160	1	108
442.330	1	114
442.501	1	110
442.671	1	106
442.842	1	102
443.012	1	110
443.183	1	110
443.353	1	113
443.524	1	115
443.694	1	116
443.865	1	102
444.035	1	103
444.206	1	109
444.376	1	110
444.547	1	106
444.717	1	109
444.888	1	102
445.058	1	111
445.229	1	111
445.399	1	97
445.570	1	104
445.740	1	108
445.911	1	100
446.081	1	112
446.252	1	110
446.422	1	106
446.593	1	91
446.763	1	119
446.934	1	94
447.104	1	101
447.275	1	96
447.445	1	92
447.616	1	94
447.786	1	116
447.957	1	102
448.127	1	103
448.298	1	89
448.468	1	105
448.639	1	107
448.809	1	105
448.979	1	88
449.150	1	99
449.320	1	101
449.491	1	94
449.661	1	97
449.832	1	96
450.002	1	95
450.173	1	98
450.343	1	111
450.514	1	101
450.684	1	103
450.855	1	105
451.025	1	96
451.196	1	82
451.366	1	99
451.537	1	107
451.707	1	99
451.878	1	97
452.048	1	98
452.218	1	101
452.389	1	99
452.559	1	107
452.730	1	83
452.900	1	103
453.071	1	109
453.241	1	81
453.412	1	96
453.582	1	101
453.753	1	92
453.923	1	103
454.093	1	101
454.264	1	97
454.434	1	89
454.605	1	97
454.775	1	89
454.946	1	87
455.116	1	95
455.287	1	95
455.457	1	99
455.628	1	90
455.798	1	90
455.968	1	93
456.139	1	106
456.309	1	102
456.480	1	92
456.650	1	87
456.821	1	93
456.991	1	81
457.161	1	95
457.332	1	96
457.502	1	107
457.673	1	94
457.843	1	86
458.014	1	96
458.184	1	82
458.355	1	89
458.525	1	94
458.695	1	95
458.866	1	88
459.036	1	99
459.207	1	92
459.377	1	76
459.548	1	95
459.718	1	78
459.888	1	72
460.059	1	86
460.229	1	71
460.400	1	89
460.570	1	98
460.740	1	85
460.911	1	72
461.081	1	84
461.252	1	75
461.422	1	81
461.593	1	80
461.763	1	88
461.933	1	88
462.104	1	87
462.274	1	83
462.445	1	86
462.615	1	90
462.785	1	86
462.956	1	70
463.126	1	79
463.297	1	82
463.467	1	82
463.638	1	78
463.808	1	83
463.978	1	74
464.149	1	92
464.319	1	86
464.490	1	74
464.660	1	88
464.830	1	82
465.001	1	76
465.171	1	75
465.342	1	82
465.512	1	79
465.682	1	87
465.853	1	78
466.023	1	91
466.194	1	67
466.364	1	70
466.534	1	68
466.705	1	80
466.875	1	82
467.045	1	78
467.216	1	82
467.386	1	87
467.557	1	82
467.727	1	82
467.897	1	82
468.068	1	76
468.238	1	77
468.409	1	72
468.579	1	82
468.749	1	75
468.920	1	76
469.090	1	71
469.260	1	84
469.431	1	76
469.601	1	68
469.772	1	72
469.942	1	78
470.112	1	74
470.283	1	70
470.453	1	80
470.623	1	72
470.794	1	84
470.964	1	72
471.135	1	71
471.305	1	62
471.475	1	78
471.646	1	72
471.816	1	77
471.986	1	61
472.157	1	61
472.327	1	70
472.497	1	67
472.668	1	64
472.838	1	82
473.009	1	67
473.179	1	80
473.349	1	57
473.520	1	62
473.690	1	66
473.860	1	66
474.031	1	67
474.201	1	76
474.371	1	77
474.542	1	79
474.712	1	71
474.882	1	75
475.053	1	56
475.223	1	63
475.394	1	64
475.564	1	69
475.734	1	70
475.905	1	68
476.075	1	60
476.245	1	77
476.416	1	56
476.586	1	70
476.756	1	61
476.927	1	75
477.097	1	82
477.267	1	69
477.438	1	57
477.608	1	69
477.778	1	67
477.949	1	74
478.119	1	71
478.289	1	58
478.460	1	66
478.630	1	73
478.800	1	62
478.971	1	53
479.141	1	59
479.311	1	56
479.482	1	43
479.652	1	64
479.822	1	59
479.993	1	70
480.163	1	70
480.333	1	86
480.504	1	70
480.674	1	51
480.844	1	62
481.015	1	68
481.185	1	64
481.355	1	61
481.525	1	59
481.696	1	63
481.866	1	64
482.036	1	55
482.207	1	65
482.377	1	66
482.547	1	64
482.718	1	54
482.888	1	50
483.058	1	60
483.229	1	71
483.399	1	56
483.569	1	50
483.740	1	61
483.910	1	71
484.080	1	73
484.250	1	60
484.421	1	73
484.591	1	49
484.761	1	53
484.932	1	66
485.102	1	55
485.272	1	55
485.443	1	66
485.613	1	45
485.783	1	58
485.953	1	58
486.124	1	65
486.294	1	60
486.464	1	54
486.635	1	53
486.805	1	65
486.975	1	63
487.146	1	48
487.316	1	45
487.486	1	50
487.656	1	68
487.827	1	55
487.997	1	53
488.167	1	62
488.338	1	56
488.508	1	52
488.678	1	57
488.848	1	59
489.019	1	47
489.189	1	46
489.359	1	53
489.529	1	56
489.700	1	48
489.870	1	48
490.040	1	36
490.211	1	59
490.381	1	74
490.551	1	43
490.721	1	61
490.892	1	55
491.062	1	49
491.232	1	48
491.402	1	41
491.573	1	44
491.743	1	40
491.913	1	48
492.084	1	47
492.254	1	59
492.424	1	44
492.594	1	46
492.765	1	48
492.935	1	42
493.105	1	35
493.275	1	54
493.446	1	61
493.616	1	46
493.786	1	38
493.956	1	56
494.127	1	46
494.297	1	57
494.467	1	47
494.637	1	52
494.808	1	44
494.978	1	41
495.148	1	53
495.318	1	59
495.489	1	55
495.659	1	47
495.829	1	45
495.999	1	47
496.170	1	51
496.340	1	47
496.510	1	55
496.680	1	43
496.851	1	50
497.021	1	56
497.191	1	42
497.361	1	48
497.532	1	48
497.702	1	49
497.872	1	42
498.042	1	59
498.213	1	45
498.383	1	55
498.553	1	45
498.723	1	41
498.894	1	46
499.064	1	34
499.234	1	44
499.404	1	48
499.574	1	46
499.745	1	40
499.915	1	38
500.085	1	45
500.255	1	39
500.426	1	34
500.596	1	54
500.766	1	37
500.936	1	52
501.106	1	51
501.277	1	58
501.447	1	45
501.617	1	45
501.787	1	45
501.958	1	42
502.128	1	51
502.298	1	57
502.468	1	42
502.638	1	54
502.809	1	53
502.979	1	48
503.149	1	48
503.319	1	48
503.489	1	47
503.660	1	42
503.830	1	46
504.000	1	42
504.170	1	38
504.340	1	39
504.511	1	49
504.681	1	47
504.851	1	42
505.021	1	45
505.192	1	44
505.362	1	53
505.532	1	45
505.702	1	35
505.872	1	56
506.043	1	30
506.213	1	47
506.383	1	35
506.553	1	43
506.723	1	36
506.893	1	44
507.064	1	53
507.234	1	38
507.404	1	45
507.574	1	40
507.744	1	32
507.915	1	40
508.085	1	37
508.255	1	39
508.425	1	40
508.595	1	38
508.766	1	43
508.936	1	35
509.106	1	39
509.276	1	44
509.446	1	30
509.616	1	56
509.787	1	41
509.957	1	39
510.127	1	49
510.297	1	41
510.467	1	44
510.638	1	33
510.808	1	27
510.978	1	39
511.148	1	34
511.318	1	51
511.488	1	39
511.659	1	28
511.829	1	39
511.999	1	32
512.169	1	28
512.339	1	34
512.509	1	44
512.680	1	41
512.850	1	38
513.020	1	37
513.190	1	31
513.360	1	39
513.530	1	36
513.700	1	42
513.871	1	39
514.041	1	43
514.211	1	50
514.381	1	30
514.551	1	32
514.721	1	42
514.892	1	41
515.062	1	26
515.232	1	34
515.402	1	37
515.572	1	31
515.742	1	34
515.912	1	44
516.083	1	39
516.253	1	29
516.423	1	29
516.593	1	38
516.763	1	38
516.933	1	40
517.104	1	30
517.274	1	29
517.444	1	38
517.614	1	27
517.784	1	18
517.954	1	34
518.124	1	29
518.294	1	39
518.465	1	35
518.635	1	28
518.805	1	28
518.975	1	38
519.145	1	32
519.315	1	29
519.485	1	31
519.656	1	43
519.826	1	38
519.996	1	40
520.166	1	40
520.336	1	43
520.506	1	31
520.676	1	28
520.846	1	41
521.017	1	8
521.187	1	29
521.357	1	26
521.527	1	33
521.697	1	35
521.867	1	12
522.037	1	27
522.207	1	42
522.377	1	26
522.548	1	18
522.718	1	36
522.888	1	19
523.058	1	26
523.228	1	35
523.398	1	26
523.568	1	34
523.738	1	27
523.909	1	31
524.079	1	39
524.249	1	15
524.419	1	21
524.589	1	37
524.759	1	25
524.929	1	35
525.099	1	38
525.269	1	31
525.439	1	25
525.610	1	27
525.780	1	20
525.950	1	27
526.120	1	33
526.290	1	34
526.460	1	17
526.630	1	32
526.800	1	28
526.970	1	29
527.140	1	38
527.311	1	24
527.481	1	25
527.651	1	25
527.821	1	15
527.991	1	26
528.161	1	27
528.331	1	20
528.501	1	25
528.671	1	19
528.841	1	25
529.011	1	18
529.181	1	28
529.352	1	27
529.522	1	12
529.692	1	20
529.862	1	25
530.032	1	28
530.202	1	29
530.372	1	23
530.542	1	38
530.712	1	3
530.882	1	18
531.052	1	22
531.222	1	16
531.392	1	21
531.563	1	17
531.733	1	35
531.903	1	25
532.073	1	19
532.243	1	26
532.413	1	28
532.583	1	15
532.753	1	29
532.923	1	27
533.093	1	10
533.263	1	24
533.433	1	30
533.603	1	25
533.773	1	33
533.943	1	17
534.113	1	22
534.284	1	27
534.454	1	18
534.624	1	7
534.794	1	25
534.964	1	24
535.134	1	27
535.304	1	19
535.474	1	11
535.644	1	28
535.814	1	13
535.984	1	12
536.154	1	34
536.324	1	14
536.494	1	26
536.664	1	15
536.834	1	25
537.004	1	25
537.174	1	20
537.344	1	27
537.514	1	26
537.685	1	12
537.855	1	24
538.025	1	26
538.195	1	20
538.365	1	23
538.535	1	11
538.705	1	20
538.875	1	27
539.045	1	30
539.215	1	22
539.385	1	21
539.555	1	19
539.725	1	28
539.895	1	26
540.065	1	12
540.235	1	13
540.405	1	29
540.575	1	25
540.745	1	14
540.915	1	29
541.085	1	28
541.255	1	16
541.425	1	14
541.595	1	4
541.765	1	22
541.935	1	34
542.105	1	18
542.275	1	20
542.445	1	27
542.615	1	18
542.785	1	25
542.955	1	6
543.125	1	15
543.295	1	19
543.465	1	20
543.635	1	14
543.805	1	10
543.975	1	17
544.145	1	22
544.315	1	17
544.485	1	21
544.655	1	26
544.825	1	21
544.995	1	22
545.165	1	26
545.335	1	11
545.505	1	21
545.675	1	23
545.845	1	19
546.015	1	19
546.185	1	20
546.355	1	9
546.525	1	10
546.695	1	16
546.865	1	15
547.035	1	15
547.205	1	22
547.375	1	15
547.545	1	25
547.715	1	19
547.885	1	21
548.055	1	29
548.225	1	17
548.395	1	27
548.565	1	4
548.735	1	21
548.905	1	9
549.075	1	18
549.245	1	19
549.415	1	21
549.585	1	31
549.755	1	31
549.925	1	21
550.095	1	16
550.265	1	16
550.435	1	18
550.605	1	13
550.775	1	18
550.945	1	22
551.115	1	19
551.285	1	17
551.455	1	8
551.625	1	23
551.795	1	20
551.965	1	20
552.135	1	-7
552.305	1	21
552.475	1	33
552.645	1	29
552.815	1	9
552.985	1	6
553.155	1	7
553.325	1	14
553.495	1	19
553.665	1	14
553.835	1	11
554.004	1	13
554.174	1	3
554.344	1	20
554.514	1	22
554.684	1	12
554.854	1	19
555.024	1	28
555.194	1	21
555.364	1	14
555.534	1	17
555.704	1	14
555.874	1	24
556.044	1	18
556.214	1	3
556.384	1	9
556.554	1	10
556.724	1	6
556.894	1	12
557.064	1	19
557.234	1	14
557.404	1	17
557.573	1	20
557.743	1	17
557.913	1	8
558.083	1	11
558.253	1	12
558.423	1	18
558.593	1	17
558.763	1	13
558.933	1	17
559.103	1	12
559.273	1	19
559.443	1	14
559.613	1	15
559.783	1	16
559.953	1	13
560.122	1	3
560.292	1	9
560.462	1	14
560.632	1	16
560.802	1	13
560.972	1	18
561.142	1	18
561.312	1	19
561.482	1	9
561.652	1	17
561.822	1	18
561.992	1	15
562.162	1	16
562.331	1	12
562.501	1	9
562.671	1	12
562.841	1	29
563.011	1	31
563.181	1	26
563.351	1	12
563.521	1	16
563.691	1	11
563.861	1	19
564.031	1	9
564.201	1	9
564.370	1	13
564.540	1	14
564.710	1	24
564.880	1	17
565.050	1	11
565.220	1	17
565.390	1	19
565.560	1	18
565.730	1	19
565.900	1	6
566.069	1	22
566.239	1	4
566.409	1	22
566.579	1	15
566.749	1	22
566.919	1	17
567.089	1	7
567.259	1	15
567.429	1	15
567.599	1	3
567.768	1	19
567.938	1	3
568.108	1	17
568.278	1	17
568.448	1	28
568.618	1	22
568.788	1	13
568.958	1	22
569.128	1	11
569.297	1	13
569.467	1	5
569.637	1	7
569.807	1	10
569.977	1	13
570.147	1	5
570.317	1	27
570.487	1	10
570.656	1	10
570.826	1	23
570.996	1	7
571.166	1	17
571.336	1	12
571.506	1	6
571.676	1	29
571.846	1	12
572.015	1	16
572.185	1	18
572.355	1	12
572.525	1	12
572.695	1	16
572.865	1	14
573.035	1	10
573.205	1	10
573.374	1	16
573.544	1	3
573.714	1	13
573.884	1	15
574.054	1	15
574.224	1	17
574.394	1	9
574.563	1	23
574.733	1	16
574.903	1	18
575.073	1	6
575.243	1	11
575.413	1	14
575.583	1	13
575.752	1	5
575.922	1	10
576.092	1	10
576.262	1	11
576.432	1	18
576.602	1	5
576.772	1	-5
576.941	1	22
577.111	1	14
577.281	1	18
577.451	1	20
577.621	1	14
577.791	1	-3
577.960	1	25
578.130	1	0
578.300	1	19
578.470	1	13
578.640	1	12
578.810	1	10
578.979	1	13
579.149	1	6
579.319	1	17
579.489	1	2
579.659	1	6
579.829	1	14
579.998	1	15
580.168	1	17
580.338	1	11
580.508	1	18
580.678	1	2
580.848	1	11
581.017	1	26
581.187	1	11
581.357	1	-1
581.527	1	17
581.697	1	10
581.867	1	8
582.036	1	1
582.206	1	16
582.376	1	13
582.546	1	7
582.716	1	9
582.885	1	12
583.055	1	14
583.225	1	10
583.395	1	16
583.565	1	18
583.735	1	5
583.904	1	14
584.074	1	18
584.244	1	11
584.414	1	14
584.584	1	7
584.753	1	23
584.923	1	13
585.093	1	13
585.263	1	25
585.433	1	9
585.602	1	16
585.772	1	10
585.942	1	12
586.112	1	14
586.282	1	12
586.451	1	2
586.621	1	22
586.791	1	4
586.961	1	16
587.131	1	16
587.300	1	4
587.470	1	12
587.640	1	8
587.810	1	12
587.980	1	22
588.149	1	16
588.319	1	20
588.489	1	25
588.659	1	10
588.829	1	11
588.998	1	12
589.168	1	10
589.338	1	17
589.508	1	20
589.677	1	21
589.847	1	14
590.017	1	12
590.187	1	8
590.357	1	10
590.526	1	25
590.696	1	14
590.866	1	21
591.036	1	15
591.205	1	-3
591.375	1	7
591.545	1	13
591.715	1	19
591.885	1	15
592.054	1	14
592.224	1	17
592.394	1	10
592.564	1	12
592.733	1	14
592.903	1	14
593.073	1	13
593.243	1	19
593.412	1	4
593.582	1	20
593.752	1	17
593.922	1	7
594.091	1	17
594.261	1	7
594.431	1	7
594.601	1	16
594.771	1	1
594.940	1	15
595.110	1	15
595.280	1	16
595.450	1	16
595.619	1	17
595.789	1	8
595.959	1	14
596.129	1	14
596.298	1	17
596.468	1	9
596.638	1	24
596.808	1	14
596.977	1	17
597.147	1	19
597.317	1	22
597.487	1	7
597.656	1	15
597.826	1	6
597.996	1	11
598.166	1	6
598.335	1	24
598.505	1	19
598.675	1	5
598.844	1	8
599.014	1	13
599.184	1	25
599.354	1	11
599.523	1	11
599.693	1	15
599.863	1	6
600.033	1	10
600.202	1	2
600.372	1	9
600.542	1	22
600.712	1	17
600.881	1	15
601.051	1	18
601.221	1	10
601.390	1	19
601.560	1	9
601.730	1	16
601.900	1	8
602.069	1	15
602.239	1	0
602.409	1	16
602.578	1	17
602.748	1	14
602.918	1	-2
603.088	1	9
603.257	1	25
603.427	1	8
603.597	1	18
603.767	1	4
603.936	1	23
604.106	1	16
604.276	1	18
604.445	1	12
604.615	1	17
604.785	1	9
604.954	1	21
605.124	1	10
605.294	1	14
605.464	1	24
605.633	1	19
605.803	1	9
605.973	1	13
606.142	1	10
606.312	1	19
606.482	1	14
606.652	1	18
606.821	1	14
606.991	1	20
607.161	1	27
607.330	1	1
607.500	1	9
607.670	1	18
607.839	1	13
608.009	1	-1
608.179	1	7
608.348	1	22
608.518	1	13
608.688	1	25
608.858	1	20
609.027	1	15
609.197	1	24
609.367	1	7
609.536	1	3
609.706	1	7
609.876	1	11
610.045	1	5
610.215	1	11
610.385	1	22
610.554	1	10
610.724	1	15
610.894	1	17
611.063	1	0
611.233	1	12
611.403	1	14
611.572	1	5
611.742	1	5
611.912	1	7
612.081	1	11
612.251	1	15
612.421	1	17
612.590	1	15
612.760	1	12
612.930	1	4
613.099	1	25
613.269	1	8
613.439	1	17
613.608	1	25
613.778	1	14
613.948	1	19
614.117	1	17
614.287	1	11
614.457	1	12
614.626	1	8
614.796	1	5
614.966	1	14
615.135	1	11
615.305	1	23
615.475	1	19
615.644	1	24
615.814	1	16
615.984	1	12
616.153	1	6
616.323	1	7
616.493	1	24
616.662	1	13
616.832	1	25
617.002	1	19
617.171	1	4
617.341	1	16
617.511	1	8
617.680	1	22
617.850	1	18
618.019	1	21
618.189	1	13
618.359	1	17
618.528	1	26
618.698	1	17
618.868	1	20
619.037	1	14
619.207	1	15
619.377	1	22
619.546	1	14
619.716	1	13
619.885	1	28
620.055	1	23
620.225	1	17
620.394	1	17
620.564	1	22
620.734	1	16
620.903	1	17
621.073	1	21
621.242	1	1
621.412	1	17
621.582	1	13
621.751	1	12
621.921	1	17
622.091	1	18
622.260	1	21
622.430	1	16
622.599	1	18
622.769	1	13
622.939	1	19
623.108	1	24
623.278	1	25
623.448	1	15
623.617	1	15
623.787	1	13
623.956	1	10
624.126	1	26
624.296	1	18
624.465	1	11
624.635	1	14
624.804	1	12
624.974	1	16
625.144	1	19
625.313	1	12
625.483	1	10
625.652	1	24
625.822	1	23
625.992	1	17
626.161	1	11
626.331	1	14
626.501	1	17
626.670	1	22
626.840	1	12
627.009	1	25
627.179	1	32
627.348	1	20
627.518	1	16
627.688	1	26
627.857	1	20
628.027	1	15
628.196	1	17
628.366	1	11
628.536	1	20
628.705	1	24
628.875	1	16
629.044	1	11
629.214	1	8
629.384	1	22
629.553	1	17
629.723	1	15
629.892	1	18
630.062	1	19
630.232	1	9
630.401	1	23
630.571	1	21
630.740	1	13
630.910	1	23
631.079	1	26
631.249	1	16
631.419	1	17
631.588	1	10
631.758	1	13
631.927	1	17
632.097	1	32
632.266	1	18
632.436	1	13
632.606	1	24
632.775	1	21
632.945	1	17
633.114	1	12
633.284	1	14
633.453	1	28
633.623	1	21
633.793	1	22
633.962	1	18
634.132	1	21
634.301	1	22
634.471	1	28
634.640	1	33
634.810	1	30
634.979	1	27
635.149	1	24
635.319	1	20
635.488	1	19
635.658	1	9
635.827	1	23
635.997	1	14
636.166	1	22
636.336	1	30
636.505	1	18
636.675	1	11
636.845	1	25
637.014	1	16
637.184	1	17
637.353	1	19
637.523	1	15
637.692	1	23
637.862	1	22
638.031	1	18
638.201	1	24
638.370	1	20
638.540	1	15
638.710	1	21
638.879	1	14
639.049	1	20
639.218	1	14
639.388	1	27
639.557	1	18
639.727	1	17
639.896	1	19
640.066	1	17
640.235	1	21
640.405	1	11
640.574	1	23
640.744	1	27
640.914	1	22
641.083	1	15
641.253	1	21
641.422	1	22
641.592	1	25
641.761	1	26
641.931	1	21
642.100	1	25
642.270	1	24
642.439	1	8
642.609	1	29
642.778	1	23
642.948	1	11
643.117	1	23
643.287	1	10
643.456	1	17
643.626	1	22
643.795	1	18
643.965	1	26
644.134	1	19
644.304	1	28
644.473	1	22
644.643	1	11
644.812	1	20
644.982	1	19
645.151	1	20
645.321	1	16
645.490	1	24
645.660	1	21
645.829	1	13
645.999	1	32
646.168	1	31
646.338	1	19
646.507	1	18
646.677	1	22
646.846	1	20
647.016	1	26
647.185	1	23
647.355	1	23
647.524	1	20
647.694	1	23
647.863	1	24
648.033	1	24
648.202	1	22
648.372	1	22
648.541	1	22
648.711	1	26
648.880	1	27
649.050	1	22
649.219	1	24
649.389	1	27
649.558	1	24
649.728	1	24
649.897	1	17
650.067	1	17
650.236	1	25
650.406	1	0
650.575	1	25
650.745	1	21
650.914	1	30
651.084	1	17
651.253	1	23
651.423	1	19
651.592	1	17
651.762	1	24
651.931	1	23
652.101	1	24
652.270	1	22
652.440	1	21
652.609	1	18
652.778	1	28
652.948	1	16
653.117	1	27
653.287	1	17
653.456	1	31
653.626	1	25
653.795	1	29
653.965	1	37
654.134	1	23
654.304	1	30
654.473	1	35
654.643	1	22
654.812	1	26
654.982	1	35
655.151	1	25
655.320	1	26
655.490	1	21
655.659	1	27
655.829	1	22
655.998	1	24
656.168	1	16
656.337	1	37
656.507	1	18
656.676	1	19
656.846	1	28
657.015	1	28
657.184	1	14
657.354	1	34
657.523	1	28
657.693	1	19
657.862	1	31
658.032	1	21
658.201	1	22
658.371	1	26
658.540	1	30
658.709	1	31
658.879	1	11
659.048	1	30
659.218	1	18
659.387	1	26
659.557	1	29
659.726	1	30
659.895	1	21
660.065	1	28
660.234	1	28
660.404	1	40
660.573	1	27
660.743	1	36
660.912	1	31
661.081	1	22
661.251	1	22
661.420	1	29
661.590	1	28
661.759	1	29
661.929	1	35
662.098	1	28
662.267	1	35
662.437	1	18
662.606	1	26
662.776	1	34
662.945	1	37
663.115	1	16
663.284	1	16
663.453	1	25
663.623	1	22
663.792	1	26
663.962	1	15
664.131	1	29
664.300	1	16
664.470	1	7
664.639	1	20
664.809	1	22
664.978	1	39
665.148	1	29
665.317	1	29
665.486	1	28
665.656	1	18
665.825	1	38
665.995	1	28
666.164	1	41
666.333	1	30
666.503	1	30
666.672	1	43
666.842	1	14
667.011	1	25
667.180	1	29
667.350	1	32
667.519	1	23
667.689	1	46
667.858	1	32
668.027	1	25
668.197	1	34
668.366	1	31
668.536	1	21
668.705	1	43
668.874	1	32
669.044	1	27
669.213	1	31
669.382	1	31
669.552	1	27
669.721	1	26
669.891	1	18
670.060	1	32
670.229	1	36
670.399	1	20
670.568	1	37
670.738	1	25
670.907	1	27
671.076	1	34
671.246	1	16
671.415	1	28
671.584	1	28
671.754	1	29
671.923	1	28
672.093	1	33
672.262	1	23
672.431	1	49
672.601	1	15
672.770	1	28
672.939	1	28
673.109	1	25
673.278	1	35
673.448	1	33
673.617	1	25
673.786	1	30
