325.333	1	-3
325.504	1	6
325.675	1	4
325.846	1	1
326.017	1	7
326.188	1	0
326.359	1	13
326.531	1	-2
326.702	1	10
326.873	1	9
327.044	1	3
327.215	1	-2
327.386	1	-1
327.557	1	16
327.728	1	-14
327.899	1	7
328.070	1	10
328.241	1	8
328.412	1	-2
328.583	1	1
328.754	1	-7
328.926	1	6
329.097	1	8
329.268	1	4
329.439	1	-6
329.610	1	3
329.781	1	10
329.952	1	4
330.123	1	-3
330.294	1	9
330.465	1	5
330.636	1	-1
330.807	1	7
330.978	1	3
331.149	1	-2
331.320	1	1
331.492	1	12
331.663	1	0
331.834	1	9
332.005	1	-7
332.176	1	6
332.347	1	3
332.518	1	0
332.689	1	8
332.860	1	-3
333.031	1	10
333.202	1	10
333.373	1	5
333.544	1	-4
333.715	1	1
333.886	1	4
334.057	1	8
334.228	1	7
334.399	1	6
334.570	1	11
334.741	1	5
334.912	1	7
335.084	1	6
335.255	1	6
335.426	1	4
335.597	1	5
335.768	1	-4
335.939	1	-1
336.110	1	7
336.281	1	8
336.452	1	14
336.623	1	0
336.794	1	0
336.965	1	6
337.136	1	4
337.307	1	6
337.478	1	7
337.649	1	-3
337.820	1	-5
337.991	1	8
338.162	1	4
338.333	1	7
338.504	1	-3
338.675	1	10
338.846	1	6
339.017	1	-2
339.188	1	7
339.359	1	0
339.530	1	11
339.701	1	3
339.872	1	3
340.043	1	14
340.214	1	12
340.385	1	13
340.556	1	4
340.727	1	6
340.898	1	-1
341.069	1	10
341.240	1	12
341.411	1	8
341.582	1	-1
341.753	1	-1
341.924	1	8
342.095	1	9
342.266	1	-4
342.437	1	-2
342.608	1	-4
342.779	1	-3
342.950	1	4
343.121	1	15
343.292	1	15
343.463	1	12
343.634	1	11
343.805	1	5
343.976	1	6
344.147	1	9
344.318	1	-1
344.489	1	12
344.660	1	10
344.831	1	-1
345.002	1	-1
345.173	1	11
345.344	1	-4
345.515	1	6
345.686	1	-3
345.857	1	11
346.028	1	10
346.199	1	9
346.370	1	2
346.541	1	13
346.712	1	-3
346.883	1	5
347.054	1	8
347.225	1	6
347.396	1	3
347.567	1	13
347.738	1	10
347.909	1	6
348.080	1	3
348.251	1	3
348.422	1	15
348.593	1	10
348.764	1	1
348.935	1	9
349.106	1	1
349.277	1	18
349.448	1	1
349.619	1	13
349.790	1	11
349.961	1	5
350.132	1	11
350.303	1	10
350.474	1	13
350.645	1	6
350.816	1	15
350.987	1	5
351.157	1	9
351.328	1	12
351.499	1	4
351.670	1	12
351.841	1	-4
352.012	1	6
352.183	1	3
352.354	1	13
352.525	1	2
352.696	1	7
352.867	1	0
353.038	1	5
353.209	1	8
353.380	1	10
353.551	1	11
353.722	1	11
353.893	1	11
354.064	1	2
354.235	1	6
354.406	1	6
354.576	1	7
354.747	1	8
354.918	1	14
355.089	1	5
355.260	1	15
355.431	1	9
355.602	1	3
355.773	1	9
355.944	1	3
356.115	1	4
356.286	1	7
356.457	1	9
356.628	1	21
356.799	1	9
356.970	1	4
357.141	1	7
357.311	1	24
357.482	1	6
357.653	1	7
357.824	1	20
357.995	1	17
358.166	1	17
358.337	1	4
358.508	1	10
358.679	1	1
358.850	1	8
359.021	1	2
359.192	1	7
359.363	1	7
359.533	1	7
359.704	1	13
359.875	1	21
360.046	1	0
360.217	1	3
360.388	1	3
360.559	1	19
360.730	1	5
360.901	1	11
361.072	1	10
361.243	1	9
361.414	1	6
361.584	1	21
361.755	1	12
361.926	1	7
362.097	1	5
362.268	1	12
362.439	1	11
362.610	1	13
362.781	1	6
362.952	1	10
363.123	1	26
363.293	1	10
363.464	1	8
363.635	1	9
363.806	1	15
363.977	1	4
364.148	1	-5
364.319	1	8
364.490	1	4
364.661	1	11
364.832	1	19
365.002	1	12
365.173	1	12
365.344	1	11
365.515	1	12
365.686	1	18
365.857	1	14
366.028	1	5
366.199	1	19
366.370	1	15
366.540	1	17
366.711	1	12
366.882	1	7
367.053	1	10
367.224	1	3
367.395	1	12
367.566	1	21
367.737	1	11
367.908	1	5
368.078	1	23
368.249	1	3
368.420	1	12
368.591	1	16
368.762	1	10
368.933	1	6
369.104	1	16
369.274	1	6
369.445	1	15
369.616	1	9
369.787	1	4
369.958	1	19
370.129	1	16
370.300	1	9
370.471	1	20
370.641	1	10
370.812	1	16
370.983	1	8
371.154	1	12
371.325	1	11
371.496	1	14
371.667	1	14
371.837	1	14
372.008	1	14
372.179	1	17
372.350	1	13
372.521	1	16
372.692	1	13
372.863	1	10
373.033	1	19
373.204	1	4
373.375	1	7
373.546	1	20
373.717	1	9
373.888	1	9
374.059	1	24
374.229	1	16
374.400	1	6
374.571	1	23
374.742	1	14
374.913	1	8
375.084	1	16
375.254	1	23
375.425	1	3
375.596	1	19
375.767	1	13
375.938	1	15
376.109	1	9
376.279	1	7
376.450	1	0
376.621	1	25
376.792	1	14
376.963	1	14
377.134	1	17
377.304	1	25
377.475	1	7
377.646	1	9
377.817	1	0
377.988	1	6
378.159	1	7
378.329	1	16
378.500	1	14
378.671	1	11
378.842	1	1
379.013	1	20
379.184	1	19
379.354	1	2
379.525	1	11
379.696	1	5
379.867	1	6
380.038	1	2
380.209	1	10
380.379	1	13
380.550	1	12
380.721	1	24
380.892	1	17
381.063	1	12
381.233	1	3
381.404	1	12
381.575	1	14
381.746	1	14
381.917	1	8
382.087	1	16
382.258	1	14
382.429	1	6
382.600	1	18
382.771	1	17
382.941	1	8
383.112	1	12
383.283	1	18
383.454	1	17
383.625	1	14
383.795	1	21
383.966	1	13
384.137	1	17
384.308	1	12
384.479	1	7
384.649	1	17
384.820	1	11
384.991	1	9
385.162	1	11
385.333	1	25
385.503	1	13
385.674	1	13
385.845	1	20
386.016	1	16
386.187	1	11
386.357	1	19
386.528	1	3
386.699	1	15
386.870	1	21
387.041	1	5
387.211	1	12
387.382	1	17
387.553	1	7
387.724	1	13
387.894	1	14
388.065	1	12
388.236	1	3
388.407	1	17
388.578	1	5
388.748	1	21
388.919	1	23
389.090	1	16
389.261	1	12
389.431	1	23
389.602	1	17
389.773	1	13
389.944	1	5
390.114	1	20
390.285	1	8
390.456	1	9
390.627	1	12
390.798	1	20
390.968	1	6
391.139	1	16
391.310	1	24
391.481	1	3
391.651	1	10
391.822	1	10
391.993	1	22
392.164	1	5
392.334	1	20
392.505	1	3
392.676	1	17
392.847	1	22
393.017	1	22
393.188	1	20
393.359	1	19
393.530	1	22
393.700	1	19
393.871	1	9
394.042	1	9
394.213	1	11
394.383	1	15
394.554	1	24
394.725	1	14
394.896	1	21
395.066	1	17
395.237	1	21
395.408	1	17
395.579	1	19
395.749	1	17
395.920	1	22
396.091	1	7
396.262	1	15
396.432	1	10
396.603	1	10
396.774	1	12
396.945	1	16
397.115	1	15
397.286	1	18
397.457	1	16
397.627	1	12
397.798	1	8
397.969	1	15
398.140	1	8
398.310	1	20
398.481	1	18
398.652	1	23
398.823	1	15
398.993	1	14
399.164	1	16
399.335	1	11
399.505	1	13
399.676	1	19
399.847	1	17
400.018	1	14
400.188	1	10
400.359	1	16
400.530	1	17
400.700	1	12
400.871	1	24
401.042	1	11
401.213	1	7
401.383	1	21
401.554	1	16
401.725	1	25
401.895	1	23
402.066	1	10
402.237	1	21
402.408	1	19
402.578	1	16
402.749	1	17
402.920	1	22
403.090	1	15
403.261	1	22
403.432	1	13
403.603	1	11
403.773	1	20
403.944	1	21
404.115	1	11
404.285	1	19
404.456	1	22
404.627	1	10
404.797	1	13
404.968	1	25
405.139	1	12
405.310	1	10
405.480	1	17
405.651	1	13
405.822	1	21
405.992	1	21
406.163	1	23
406.334	1	15
406.504	1	16
406.675	1	9
406.846	1	11
407.016	1	10
407.187	1	28
407.358	1	16
407.528	1	13
407.699	1	20
407.870	1	16
408.041	1	24
408.211	1	10
408.382	1	21
408.553	1	12
408.723	1	18
408.894	1	10
409.065	1	27
409.235	1	23
409.406	1	8
409.577	1	22
409.747	1	11
409.918	1	14
410.089	1	19
410.259	1	23
410.430	1	11
410.601	1	15
410.771	1	21
410.942	1	32
411.113	1	7
411.283	1	3
411.454	1	17
411.625	1	19
411.795	1	15
411.966	1	25
412.137	1	15
412.307	1	27
412.478	1	19
412.649	1	14
412.819	1	16
412.990	1	19
413.161	1	20
413.331	1	18
413.502	1	20
413.672	1	24
413.843	1	25
414.014	1	22
414.184	1	23
414.355	1	30
414.526	1	19
414.696	1	8
414.867	1	22
415.038	1	14
415.208	1	28
415.379	1	23
415.550	1	23
415.720	1	15
415.891	1	17
416.062	1	16
416.232	1	8
416.403	1	24
416.573	1	26
416.744	1	16
416.915	1	15
417.085	1	15
417.256	1	17
417.427	1	16
417.597	1	2
417.768	1	6
417.939	1	21
418.109	1	21
418.280	1	13
418.450	1	24
418.621	1	11
418.792	1	8
418.962	1	21
419.133	1	16
419.304	1	12
419.474	1	15
419.645	1	18
419.815	1	8
419.986	1	11
420.157	1	16
420.327	1	15
420.498	1	12
420.669	1	23
420.839	1	15
421.010	1	14
421.180	1	17
421.351	1	20
421.522	1	10
421.692	1	23
421.863	1	21
422.033	1	27
422.204	1	15
422.375	1	20
422.545	1	14
422.716	1	12
422.886	1	12
423.057	1	19
423.228	1	13
423.398	1	20
423.569	1	14
423.740	1	15
423.910	1	5
424.081	1	22
424.251	1	8
424.422	1	17
424.593	1	12
424.763	1	20
424.934	1	15
425.104	1	14
425.275	1	12
425.445	1	16
425.616	1	10
425.787	1	18
425.957	1	24
426.128	1	1
426.298	1	5
426.469	1	9
426.640	1	24
426.810	1	15
426.981	1	13
427.151	1	22
427.322	1	15
427.493	1	14
427.663	1	10
427.834	1	12
428.004	1	12
428.175	1	20
428.345	1	9
428.516	1	24
428.687	1	17
428.857	1	11
429.028	1	15
429.198	1	13
429.369	1	13
429.540	1	7
429.710	1	17
429.881	1	7
430.051	1	7
430.222	1	14
430.392	1	25
430.563	1	28
430.734	1	18
430.904	1	19
431.075	1	10
431.245	1	21
431.416	1	20
431.586	1	14
431.757	1	14
431.927	1	16
432.098	1	13
432.269	1	13
432.439	1	27
432.610	1	21
432.780	1	15
432.951	1	10
433.121	1	15
433.292	1	12
433.462	1	17
433.633	1	3
433.804	1	7
433.974	1	5
434.145	1	18
434.315	1	15
434.486	1	17
434.656	1	15
434.827	1	18
434.997	1	20
435.168	1	14
435.339	1	15
435.509	1	22
435.680	1	17
435.850	1	4
436.021	1	9
436.191	1	18
436.362	1	13
436.532	1	27
436.703	1	10
436.873	1	14
437.044	1	6
437.214	1	25
437.385	1	16
437.556	1	13
437.726	1	7
437.897	1	15
438.067	1	9
438.238	1	2
438.408	1	8
438.579	1	25
438.749	1	14
438.920	1	19
439.090	1	15
439.261	1	5
439.431	1	10
439.602	1	18
439.772	1	14
439.943	1	11
440.113	1	2
440.284	1	14
440.455	1	18
440.625	1	21
440.796	1	17
440.966	1	9
441.137	1	10
441.307	1	21
441.478	1	10
441.648	1	2
441.819	1	23
441.989	1	26
442.160	1	12
442.330	1	7
442.501	1	17
442.671	1	14
442.842	1	6
443.012	1	21
443.183	1	11
443.353	1	13
443.524	1	10
443.694	1	6
443.865	1	9
444.035	1	10
444.206	1	16
444.376	1	14
444.547	1	12
444.717	1	15
444.888	1	11
445.058	1	22
445.229	1	14
445.399	1	17
445.570	1	22
445.740	1	11
445.911	1	-1
446.081	1	14
446.252	1	12
446.422	1	16
446.593	1	6
446.763	1	23
446.934	1	10
447.104	1	11
447.275	1	6
447.445	1	3
447.616	1	4
447.786	1	18
447.957	1	10
448.127	1	9
448.298	1	15
448.468	1	15
448.639	1	13
448.809	1	19
448.979	1	11
449.150	1	3
449.320	1	11
449.491	1	11
449.661	1	13
449.832	1	7
450.002	1	7
450.173	1	18
450.343	1	21
450.514	1	23
450.684	1	5
450.855	1	13
451.025	1	11
451.196	1	10
451.366	1	18
451.537	1	13
451.707	1	13
451.878	1	12
452.048	1	10
452.218	1	5
452.389	1	14
452.559	1	12
452.730	1	7
452.900	1	14
453.071	1	13
453.241	1	5
453.412	1	4
453.582	1	7
453.753	1	12
453.923	1	11
454.093	1	14
454.264	1	12
454.434	1	9
454.605	1	15
454.775	1	3
454.946	1	12
455.116	1	2
455.287	1	8
455.457	1	19
455.628	1	11
455.798	1	7
455.968	1	8
456.139	1	16
456.309	1	26
456.480	1	8
456.650	1	3
456.821	1	21
456.991	1	2
457.161	1	14
457.332	1	15
457.502	1	18
457.673	1	9
457.843	1	1
458.014	1	18
458.184	1	8
458.355	1	17
458.525	1	9
458.695	1	13
458.866	1	10
459.036	1	7
459.207	1	12
459.377	1	9
459.548	1	20
459.718	1	0
459.888	1	11
460.059	1	21
460.229	1	8
460.400	1	13
460.570	1	13
460.740	1	13
460.911	1	12
461.081	1	6
461.252	1	2
461.422	1	4
461.593	1	6
461.763	1	17
461.933	1	26
462.104	1	19
462.274	1	13
462.445	1	3
462.615	1	16
462.785	1	12
462.956	1	4
463.126	1	11
463.297	1	10
463.467	1	20
463.638	1	8
463.808	1	5
463.978	1	8
464.149	1	9
464.319	1	10
464.490	1	5
464.660	1	20
464.830	1	11
465.001	1	6
465.171	1	0
465.342	1	5
465.512	1	12
465.682	1	8
465.853	1	10
466.023	1	20
466.194	1	4
466.364	1	8
466.534	1	11
466.705	1	-1
466.875	1	14
467.045	1	14
467.216	1	11
467.386	1	7
467.557	1	18
467.727	1	8
467.897	1	20
468.068	1	5
468.238	1	11
468.409	1	12
468.579	1	14
468.749	1	12
468.920	1	12
469.090	1	4
469.260	1	17
469.431	1	5
469.601	1	12
469.772	1	2
469.942	1	5
470.112	1	10
470.283	1	7
470.453	1	10
470.623	1	18
470.794	1	7
470.964	1	18
471.135	1	20
471.305	1	5
471.475	1	15
471.646	1	7
471.816	1	8
471.986	1	4
472.157	1	8
472.327	1	14
472.497	1	13
472.668	1	10
472.838	1	16
473.009	1	18
473.179	1	14
473.349	1	3
473.520	1	4
473.690	1	7
473.860	1	3
474.031	1	6
474.201	1	2
474.371	1	17
474.542	1	10
474.712	1	4
474.882	1	2
475.053	1	9
475.223	1	9
475.394	1	1
475.564	1	10
475.734	1	10
475.905	1	12
476.075	1	2
476.245	1	10
476.416	1	6
476.586	1	6
476.756	1	11
476.927	1	9
477.097	1	17
477.267	1	11
477.438	1	11
477.608	1	7
477.778	1	12
477.949	1	9
478.119	1	5
478.289	1	7
478.460	1	8
478.630	1	21
478.800	1	15
478.971	1	9
479.141	1	7
479.311	1	6
479.482	1	-5
479.652	1	13
479.822	1	1
479.993	1	22
480.163	1	15
480.333	1	19
480.504	1	12
480.674	1	-4
480.844	1	14
481.015	1	5
481.185	1	11
481.355	1	9
481.525	1	-1
481.696	1	4
481.866	1	5
482.036	1	8
482.207	1	10
482.377	1	11
482.547	1	2
482.718	1	2
482.888	1	-2
483.058	1	10
483.229	1	13
483.399	1	4
483.569	1	-3
483.740	1	7
483.910	1	16
484.080	1	24
484.250	1	10
484.421	1	9
484.591	1	6
484.761	1	0
484.932	1	22
485.102	1	2
485.272	1	3
485.443	1	18
485.613	1	-6
485.783	1	11
485.953	1	-6
486.124	1	16
486.294	1	6
486.464	1	6
486.635	1	12
486.805	1	11
486.975	1	11
487.146	1	5
487.316	1	0
487.486	1	-2
487.656	1	12
487.827	1	15
487.997	1	16
488.167	1	10
488.338	1	11
488.508	1	7
488.678	1	7
488.848	1	15
489.019	1	3
489.189	1	3
489.359	1	3
489.529	1	6
489.700	1	4
489.870	1	1
490.040	1	6
490.211	1	1
490.381	1	21
490.551	1	-4
490.721	1	11
490.892	1	24
491.062	1	5
491.232	1	7
491.402	1	-1
491.573	1	5
491.743	1	3
491.913	1	2
492.084	1	5
492.254	1	22
492.424	1	-2
492.594	1	12
492.765	1	5
492.935	1	4
493.105	1	-1
493.275	1	10
493.446	1	8
493.616	1	2
493.786	1	1
493.956	1	2
494.127	1	10
494.297	1	15
494.467	1	18
494.637	1	16
494.808	1	7
494.978	1	-2
495.148	1	10
495.318	1	12
495.489	1	9
495.659	1	13
495.829	1	9
495.999	1	-6
496.170	1	2
496.340	1	10
496.510	1	17
496.680	1	13
496.851	1	13
497.021	1	13
497.191	1	7
497.361	1	10
497.532	1	9
497.702	1	9
497.872	1	7
498.042	1	16
498.213	1	5
498.383	1	4
498.553	1	16
498.723	1	11
498.894	1	18
499.064	1	2
499.234	1	8
499.404	1	3
499.574	1	10
499.745	1	-3
499.915	1	3
500.085	1	0
500.255	1	9
500.426	1	3
500.596	1	5
500.766	1	5
500.936	1	8
501.106	1	15
501.277	1	14
501.447	1	10
501.617	1	4
501.787	1	11
501.958	1	6
502.128	1	5
502.298	1	10
502.468	1	6
502.638	1	14
502.809	1	14
502.979	1	8
503.149	1	1
503.319	1	9
503.489	1	11
503.660	1	7
503.830	1	-1
504.000	1	7
504.170	1	13
504.340	1	0
504.511	1	6
504.681	1	9
504.851	1	0
505.021	1	11
505.192	1	8
505.362	1	10
505.532	1	4
505.702	1	8
505.872	1	16
506.043	1	-9
506.213	1	5
506.383	1	3
506.553	1	2
506.723	1	1
506.893	1	-4
507.064	1	19
507.234	1	1
507.404	1	22
507.574	1	0
507.744	1	-1
507.915	1	7
508.085	1	4
508.255	1	-2
508.425	1	1
508.595	1	1
508.766	1	12
508.936	1	4
509.106	1	11
509.276	1	4
509.446	1	-1
509.616	1	15
509.787	1	3
509.957	1	8
510.127	1	4
510.297	1	7
510.467	1	1
510.638	1	-4
510.808	1	-2
510.978	1	12
511.148	1	1
511.318	1	18
511.488	1	-4
511.659	1	-6
511.829	1	8
511.999	1	12
512.169	1	-6
512.339	1	-2
512.509	1	9
512.680	1	7
512.850	1	0
513.020	1	2
513.190	1	6
513.360	1	6
513.530	1	2
513.700	1	5
513.871	1	13
514.041	1	6
514.211	1	16
514.381	1	5
514.551	1	2
514.721	1	0
514.892	1	10
515.062	1	11
515.232	1	7
515.402	1	8
515.572	1	5
515.742	1	6
515.912	1	13
516.083	1	2
516.253	1	7
516.423	1	2
516.593	1	3
516.763	1	6
516.933	1	1
517.104	1	2
517.274	1	8
517.444	1	5
517.614	1	-2
517.784	1	3
517.954	1	7
518.124	1	0
518.294	1	14
518.465	1	1
518.635	1	-2
518.805	1	9
518.975	1	7
519.145	1	-2
519.315	1	-1
519.485	1	2
519.656	1	9
519.826	1	11
519.996	1	3
520.166	1	6
520.336	1	12
520.506	1	4
520.676	1	9
520.846	1	2
521.017	1	-1
521.187	1	-3
521.357	1	5
521.527	1	7
521.697	1	6
521.867	1	8
522.037	1	5
522.207	1	5
522.377	1	-5
522.548	1	10
522.718	1	9
522.888	1	-6
523.058	1	-7
523.228	1	6
523.398	1	-1
523.568	1	3
523.738	1	4
523.909	1	6
524.079	1	2
524.249	1	-5
524.419	1	-6
524.589	1	12
524.759	1	4
524.929	1	3
525.099	1	7
525.269	1	5
525.439	1	-3
525.610	1	10
525.780	1	6
525.950	1	4
526.120	1	2
526.290	1	9
526.460	1	5
526.630	1	10
526.800	1	10
526.970	1	0
527.140	1	4
527.311	1	5
527.481	1	5
527.651	1	-1
527.821	1	0
527.991	1	13
528.161	1	0
528.331	1	2
528.501	1	4
528.671	1	12
528.841	1	2
529.011	1	-12
529.181	1	14
529.352	1	1
529.522	1	-8
529.692	1	2
529.862	1	4
530.032	1	-1
530.202	1	4
530.372	1	-1
530.542	1	6
530.712	1	-6
530.882	1	2
531.052	1	10
531.222	1	2
531.392	1	1
531.563	1	-2
531.733	1	10
531.903	1	8
532.073	1	0
532.243	1	0
532.413	1	5
532.583	1	-5
532.753	1	5
532.923	1	6
533.093	1	-6
533.263	1	1
533.433	1	7
533.603	1	0
533.773	1	9
533.943	1	3
534.113	1	10
534.284	1	3
534.454	1	2
534.624	1	-2
534.794	1	3
534.964	1	6
535.134	1	9
535.304	1	11
535.474	1	-7
535.644	1	4
535.814	1	1
535.984	1	-9
536.154	1	6
536.324	1	0
536.494	1	0
536.664	1	-8
536.834	1	4
537.004	1	-3
537.174	1	11
537.344	1	10
537.514	1	2
537.685	1	6
537.855	1	6
538.025	1	3
538.195	1	7
538.365	1	7
538.535	1	6
538.705	1	4
538.875	1	10
539.045	1	2
539.215	1	11
539.385	1	-7
539.555	1	-7
539.725	1	5
539.895	1	11
540.065	1	0
540.235	1	-2
540.405	1	14
540.575	1	11
540.745	1	-3
540.915	1	5
541.085	1	1
541.255	1	8
541.425	1	-3
541.595	1	-13
541.765	1	-2
541.935	1	7
542.105	1	0
542.275	1	9
542.445	1	8
542.615	1	1
542.785	1	12
542.955	1	-2
543.125	1	-2
543.295	1	7
543.465	1	-5
543.635	1	-6
543.805	1	2
543.975	1	8
544.145	1	3
544.315	1	6
544.485	1	3
544.655	1	3
544.825	1	-5
544.995	1	8
545.165	1	7
545.335	1	3
545.505	1	-2
545.675	1	10
545.845	1	1
546.015	1	9
546.185	1	-2
546.355	1	8
546.525	1	-3
546.695	1	1
546.865	1	0
547.035	1	4
547.205	1	1
547.375	1	17
547.545	1	-12
547.715	1	15
547.885	1	-1
548.055	1	1
548.225	1	-1
548.395	1	8
548.565	1	6
548.735	1	1
548.905	1	9
549.075	1	11
549.245	1	11
549.415	1	10
549.585	1	9
549.755	1	7
549.925	1	4
550.095	1	-6
550.265	1	1
550.435	1	4
550.605	1	13
550.775	1	9
550.945	1	7
551.115	1	7
551.285	1	-5
551.455	1	-6
551.625	1	11
551.795	1	1
551.965	1	-1
552.135	1	-9
552.305	1	5
552.475	1	9
552.645	1	5
552.815	1	2
552.985	1	-6
553.155	1	-2
553.325	1	1
553.495	1	10
553.665	1	7
553.835	1	-8
554.004	1	3
554.174	1	0
554.344	1	15
554.514	1	6
554.684	1	2
554.854	1	-6
555.024	1	7
555.194	1	3
555.364	1	-1
555.534	1	8
555.704	1	3
555.874	1	7
556.044	1	1
556.214	1	-2
556.384	1	4
556.554	1	-5
556.724	1	-5
556.894	1	-7
557.064	1	1
557.234	1	6
557.404	1	7
557.573	1	3
557.743	1	10
557.913	1	-7
558.083	1	0
558.253	1	0
558.423	1	-2
558.593	1	8
558.763	1	1
558.933	1	0
559.103	1	0
559.273	1	2
559.443	1	-1
559.613	1	0
559.783	1	0
559.953	1	-7
560.122	1	7
560.292	1	5
560.462	1	-2
560.632	1	1
560.802	1	9
560.972	1	9
561.142	1	5
561.312	1	0
561.482	1	0
561.652	1	4
561.822	1	-2
561.992	1	-2
562.162	1	-4
562.331	1	-5
562.501	1	2
562.671	1	12
562.841	1	8
563.011	1	10
563.181	1	15
563.351	1	3
563.521	1	2
563.691	1	-3
563.861	1	1
564.031	1	0
564.201	1	-3
564.370	1	3
564.540	1	6
564.710	1	10
564.880	1	7
565.050	1	-1
565.220	1	-4
565.390	1	4
565.560	1	4
565.730	1	9
565.900	1	-1
566.069	1	15
566.239	1	-14
566.409	1	12
566.579	1	3
566.749	1	15
566.919	1	1
567.089	1	1
567.259	1	2
567.429	1	5
567.599	1	3
567.768	1	-8
567.938	1	-11
568.108	1	9
568.278	1	-1
568.448	1	11
568.618	1	12
568.788	1	9
568.958	1	7
569.128	1	-2
569.297	1	-3
569.467	1	11
569.637	1	-4
569.807	1	10
569.977	1	3
570.147	1	-13
570.317	1	11
570.487	1	4
570.656	1	1
570.826	1	11
570.996	1	-5
571.166	1	-7
571.336	1	0
571.506	1	2
571.676	1	14
571.846	1	-4
572.015	1	-1
572.185	1	4
572.355	1	-3
572.525	1	-3
572.695	1	7
572.865	1	1
573.035	1	5
573.205	1	-10
573.374	1	1
573.544	1	1
573.714	1	12
573.884	1	9
574.054	1	9
574.224	1	2
574.394	1	3
574.563	1	-3
574.733	1	2
574.903	1	6
575.073	1	0
575.243	1	2
575.413	1	6
575.583	1	-8
575.752	1	-4
575.922	1	7
576.092	1	3
576.262	1	6
576.432	1	12
576.602	1	-6
576.772	1	-6
576.941	1	4
577.111	1	4
577.281	1	-4
577.451	1	14
577.621	1	3
577.791	1	-4
577.960	1	10
578.130	1	-7
578.300	1	7
578.470	1	3
578.640	1	1
578.810	1	9
578.979	1	0
579.149	1	-4
579.319	1	-2
579.489	1	-5
579.659	1	3
579.829	1	2
579.998	1	-5
580.168	1	8
580.338	1	3
580.508	1	6
580.678	1	-11
580.848	1	3
581.017	1	18
581.187	1	0
581.357	1	-3
581.527	1	-4
581.697	1	2
581.867	1	-6
582.036	1	4
582.206	1	4
582.376	1	-1
582.546	1	-2
582.716	1	-13
582.885	1	0
583.055	1	-1
583.225	1	-6
583.395	1	6
583.565	1	12
583.735	1	-3
583.904	1	-3
584.074	1	2
584.244	1	1
584.414	1	7
584.584	1	-9
584.753	1	5
584.923	1	9
585.093	1	2
585.263	1	8
585.433	1	-2
585.602	1	0
585.772	1	4
585.942	1	-3
586.112	1	2
586.282	1	8
586.451	1	-8
586.621	1	7
586.791	1	3
586.961	1	0
587.131	1	10
587.300	1	-17
587.470	1	3
587.640	1	-1
587.810	1	-13
587.980	1	8
588.149	1	7
588.319	1	5
588.489	1	13
588.659	1	4
588.829	1	8
588.998	1	0
589.168	1	-4
589.338	1	2
589.508	1	2
589.677	1	5
589.847	1	2
590.017	1	1
590.187	1	-7
590.357	1	4
590.526	1	13
590.696	1	-3
590.866	1	7
591.036	1	5
591.205	1	-13
591.375	1	1
591.545	1	3
591.715	1	9
591.885	1	11
592.054	1	7
592.224	1	-4
592.394	1	4
592.564	1	0
592.733	1	12
592.903	1	-9
593.073	1	5
593.243	1	4
593.412	1	-1
593.582	1	4
593.752	1	22
593.922	1	-4
594.091	1	3
594.261	1	0
594.431	1	4
594.601	1	1
594.771	1	-6
594.940	1	4
595.110	1	-2
595.280	1	3
595.450	1	-1
595.619	1	-5
595.789	1	10
595.959	1	1
596.129	1	6
596.298	1	9
596.468	1	3
596.638	1	15
596.808	1	5
596.977	1	10
597.147	1	6
597.317	1	3
597.487	1	1
597.656	1	0
597.826	1	0
597.996	1	1
598.166	1	4
598.335	1	-3
598.505	1	5
598.675	1	1
598.844	1	-6
599.014	1	0
599.184	1	20
599.354	1	-7
599.523	1	-1
599.693	1	4
599.863	1	7
600.033	1	-5
600.202	1	-2
600.372	1	-1
600.542	1	9
600.712	1	7
600.881	1	6
601.051	1	11
601.221	1	4
601.390	1	10
601.560	1	-12
601.730	1	5
601.900	1	7
602.069	1	11
602.239	1	-14
602.409	1	14
602.578	1	-2
602.748	1	6
602.918	1	5
603.088	1	8
603.257	1	-1
603.427	1	2
603.597	1	2
603.767	1	-2
603.936	1	9
604.106	1	5
604.276	1	3
604.445	1	0
604.615	1	-8
604.785	1	-1
604.954	1	9
605.124	1	1
605.294	1	6
605.464	1	11
605.633	1	12
605.803	1	6
605.973	1	-4
606.142	1	0
606.312	1	-5
606.482	1	4
606.652	1	9
606.821	1	5
606.991	1	12
607.161	1	15
607.330	1	-5
607.500	1	5
607.670	1	-5
607.839	1	7
608.009	1	-10
608.179	1	-2
608.348	1	17
608.518	1	10
608.688	1	8
608.858	1	-1
609.027	1	7
609.197	1	2
609.367	1	4
609.536	1	-3
609.706	1	2
609.876	1	-4
610.045	1	0
610.215	1	-1
610.385	1	8
610.554	1	5
610.724	1	16
610.894	1	5
611.063	1	-5
611.233	1	3
611.403	1	-1
611.572	1	3
611.742	1	-4
611.912	1	3
612.081	1	5
612.251	1	17
612.421	1	4
612.590	1	-10
612.760	1	7
612.930	1	-4
613.099	1	0
613.269	1	5
613.439	1	7
613.608	1	11
613.778	1	0
613.948	1	8
614.117	1	4
614.287	1	2
614.457	1	-3
614.626	1	-10
614.796	1	-8
614.966	1	-10
615.135	1	-4
615.305	1	4
615.475	1	0
615.644	1	11
615.814	1	-5
615.984	1	5
616.153	1	1
616.323	1	1
616.493	1	7
616.662	1	6
616.832	1	5
617.002	1	12
617.171	1	-3
617.341	1	-5
617.511	1	0
617.680	1	4
617.850	1	-2
618.019	1	7
618.189	1	4
618.359	1	6
618.528	1	12
618.698	1	0
618.868	1	7
619.037	1	9
619.207	1	-2
619.377	1	5
619.546	1	-5
619.716	1	2
619.885	1	13
620.055	1	4
620.225	1	7
620.394	1	5
620.564	1	4
620.734	1	-2
620.903	1	8
621.073	1	5
621.242	1	-2
621.412	1	1
621.582	1	-8
621.751	1	-1
621.921	1	6
622.091	1	-1
622.260	1	8
622.430	1	6
622.599	1	11
622.769	1	2
622.939	1	14
623.108	1	7
623.278	1	1
623.448	1	2
623.617	1	-4
623.787	1	13
623.956	1	4
624.126	1	10
624.296	1	8
624.465	1	-7
624.635	1	-2
624.804	1	5
624.974	1	-1
625.144	1	2
625.313	1	2
625.483	1	4
625.652	1	-4
625.822	1	3
625.992	1	3
626.161	1	-2
626.331	1	6
626.501	1	-3
626.670	1	-4
626.840	1	-6
627.009	1	-3
627.179	1	13
627.348	1	6
627.518	1	12
627.688	1	-3
627.857	1	-6
628.027	1	8
628.196	1	1
628.366	1	3
628.536	1	0
628.705	1	4
628.875	1	-2
629.044	1	5
629.214	1	5
629.384	1	8
629.553	1	-3
629.723	1	-2
629.892	1	6
630.062	1	9
630.232	1	-2
630.401	1	4
630.571	1	-2
630.740	1	0
630.910	1	5
631.079	1	7
631.249	1	0
631.419	1	13
631.588	1	-5
631.758	1	11
631.927	1	2
632.097	1	6
632.266	1	1
632.436	1	10
632.606	1	15
632.775	1	10
632.945	1	-8
633.114	1	-2
633.284	1	-6
633.453	1	8
633.623	1	8
633.793	1	7
633.962	1	-2
634.132	1	10
634.301	1	5
634.471	1	12
634.640	1	3
634.810	1	20
634.979	1	6
635.149	1	-1
635.319	1	9
635.488	1	5
635.658	1	1
635.827	1	-1
635.997	1	6
636.166	1	5
636.336	1	3
636.505	1	7
636.675	1	1
636.845	1	11
637.014	1	-2
637.184	1	-1
637.353	1	4
637.523	1	2
637.692	1	2
637.862	1	-2
638.031	1	2
638.201	1	9
638.370	1	2
638.540	1	6
638.710	1	5
638.879	1	-2
639.049	1	7
639.218	1	2
639.388	1	11
639.557	1	0
639.727	1	0
639.896	1	1
640.066	1	-6
640.235	1	-1
640.405	1	3
640.574	1	0
640.744	1	13
640.914	1	7
641.083	1	10
641.253	1	8
641.422	1	13
641.592	1	6
641.761	1	2
641.931	1	-8
642.100	1	18
642.270	1	2
642.439	1	10
642.609	1	8
642.778	1	15
642.948	1	1
643.117	1	4
643.287	1	8
643.456	1	-9
643.626	1	9
643.795	1	4
643.965	1	5
644.134	1	-3
644.304	1	14
644.473	1	-2
644.643	1	1
644.812	1	-1
644.982	1	4
645.151	1	4
645.321	1	-3
645.490	1	9
645.660	1	-6
645.829	1	2
645.999	1	15
646.168	1	7
646.338	1	7
646.507	1	-5
646.677	1	16
646.846	1	4
647.016	1	-3
647.185	1	0
647.355	1	9
647.524	1	0
647.694	1	-3
647.863	1	-4
648.033	1	10
648.202	1	-6
648.372	1	11
648.541	1	0
648.711	1	2
648.880	1	11
649.050	1	6
649.219	1	-2
649.389	1	6
649.558	1	-3
649.728	1	3
649.897	1	1
650.067	1	-8
650.236	1	13
650.406	1	-6
650.575	1	8
650.745	1	2
650.914	1	-1
651.084	1	0
651.253	1	10
651.423	1	-7
651.592	1	3
651.762	1	2
651.931	1	5
652.101	1	-1
652.270	1	9
652.440	1	13
652.609	1	1
652.778	1	5
652.948	1	-8
653.117	1	25
653.287	1	6
653.456	1	7
653.626	1	1
653.795	1	10
653.965	1	11
654.134	1	5
654.304	1	-3
654.473	1	6
654.643	1	5
654.812	1	7
654.982	1	4
655.151	1	13
655.320	1	4
655.490	1	-3
655.659	1	4
655.829	1	0
655.998	1	0
656.168	1	1
656.337	1	4
656.507	1	3
656.676	1	-1
656.846	1	1
657.015	1	13
657.184	1	-2
657.354	1	1
657.523	1	9
657.693	1	-2
657.862	1	-8
658.032	1	-3
658.201	1	3
658.371	1	2
658.540	1	5
658.709	1	13
658.879	1	-4
659.048	1	-9
659.218	1	5
659.387	1	5
659.557	1	2
659.726	1	11
659.895	1	0
660.065	1	7
660.234	1	7
660.404	1	13
660.573	1	10
660.743	1	-4
660.912	1	6
661.081	1	3
661.251	1	0
661.420	1	3
661.590	1	4
661.759	1	9
661.929	1	13
662.098	1	3
662.267	1	7
662.437	1	11
662.606	1	9
662.776	1	6
662.945	1	0
663.115	1	-3
663.284	1	1
663.453	1	7
663.623	1	9
663.792	1	13
663.962	1	-3
664.131	1	1
664.300	1	5
664.470	1	-9
664.639	1	-3
664.809	1	4
664.978	1	6
665.148	1	18
665.317	1	9
665.486	1	14
665.656	1	2
665.825	1	3
665.995	1	5
666.164	1	7
666.333	1	5
666.503	1	12
666.672	1	3
666.842	1	1
667.011	1	8
667.180	1	4
667.350	1	9
667.519	1	-6
667.689	1	17
667.858	1	15
668.027	1	4
668.197	1	3
668.366	1	14
668.536	1	3
668.705	1	9
668.874	1	15
669.044	1	2
669.213	1	3
669.382	1	19
669.552	1	-8
669.721	1	8
669.891	1	-1
670.060	1	-2
670.229	1	0
670.399	1	2
670.568	1	21
670.738	1	-2
670.907	1	11
671.076	1	4
671.246	1	2
671.415	1	0
671.584	1	3
671.754	1	10
671.923	1	4
672.093	1	1
672.262	1	5
672.431	1	2
672.601	1	-6
672.770	1	-1
672.939	1	3
673.109	1	4
673.278	1	14
673.448	1	-3
673.617	1	1
673.786	1	2
