340.368	1	8
340.539	1	4
340.710	1	10
340.881	1	3
341.052	1	-7
341.223	1	-7
341.394	1	1
341.565	1	1
341.737	1	-1
341.908	1	2
342.079	1	5
342.250	1	12
342.421	1	9
342.592	1	11
342.763	1	-2
342.934	1	3
343.105	1	2
343.276	1	6
343.447	1	4
343.618	1	2
343.789	1	5
343.960	1	-5
344.131	1	4
344.302	1	1
344.473	1	-1
344.644	1	2
344.815	1	-8
344.986	1	9
345.157	1	-11
345.328	1	5
345.499	1	-10
345.670	1	5
345.841	1	4
346.012	1	3
346.183	1	4
346.354	1	-11
346.526	1	8
346.697	1	3
346.868	1	10
347.039	1	0
347.210	1	0
347.381	1	2
347.552	1	0
347.723	1	9
347.894	1	1
348.065	1	11
348.236	1	-1
348.407	1	9
348.578	1	-7
348.749	1	9
348.920	1	7
349.091	1	7
349.262	1	13
349.433	1	12
349.604	1	2
349.775	1	4
349.946	1	5
350.117	1	5
350.288	1	-7
350.459	1	0
350.630	1	14
350.801	1	-2
350.972	1	5
351.143	1	4
351.314	1	-1
351.485	1	9
351.656	1	7
351.827	1	-1
351.998	1	1
352.169	1	5
352.340	1	18
352.511	1	3
352.682	1	2
352.853	1	-3
353.024	1	5
353.195	1	-3
353.366	1	3
353.537	1	-5
353.708	1	-5
353.879	1	2
354.050	1	6
354.221	1	9
354.392	1	11
354.563	1	8
354.734	1	-1
354.905	1	12
355.076	1	5
355.247	1	2
355.418	1	0
355.589	1	-2
355.760	1	-8
355.931	1	2
356.102	1	6
356.273	1	3
356.444	1	-12
356.615	1	-2
356.785	1	8
356.956	1	7
357.127	1	5
357.298	1	-4
357.469	1	-7
357.640	1	10
357.811	1	4
357.982	1	10
358.153	1	-5
358.324	1	4
358.495	1	6
358.666	1	2
358.837	1	-2
359.008	1	17
359.179	1	-1
359.350	1	-2
359.521	1	0
359.692	1	1
359.863	1	6
360.034	1	1
360.205	1	6
360.376	1	2
360.547	1	-4
360.718	1	4
360.889	1	7
361.060	1	3
361.231	1	-1
361.401	1	-4
361.572	1	13
361.743	1	5
361.914	1	10
362.085	1	16
362.256	1	4
362.427	1	6
362.598	1	9
362.769	1	7
362.940	1	-2
363.111	1	12
363.282	1	4
363.453	1	5
363.624	1	11
363.795	1	5
363.966	1	17
364.137	1	4
364.308	1	10
364.478	1	10
364.649	1	8
364.820	1	16
364.991	1	5
365.162	1	10
365.333	1	-1
365.504	1	11
365.675	1	7
365.846	1	16
366.017	1	18
366.188	1	10
366.359	1	10
366.530	1	15
366.701	1	16
366.871	1	15
367.042	1	18
367.213	1	15
367.384	1	15
367.555	1	17
367.726	1	16
367.897	1	8
368.068	1	6
368.239	1	10
368.410	1	6
368.581	1	19
368.752	1	24
368.923	1	22
369.093	1	13
369.264	1	4
369.435	1	8
369.606	1	20
369.777	1	8
369.948	1	16
370.119	1	14
370.290	1	14
370.461	1	13
370.632	1	3
370.803	1	12
370.973	1	17
371.144	1	11
371.315	1	17
371.486	1	12
371.657	1	-3
371.828	1	2
371.999	1	9
372.170	1	-4
372.341	1	10
372.512	1	7
372.682	1	13
372.853	1	-2
373.024	1	7
373.195	1	7
373.366	1	12
373.537	1	12
373.708	1	15
373.879	1	17
374.050	1	16
374.220	1	-2
374.391	1	12
374.562	1	-2
374.733	1	6
374.904	1	2
375.075	1	22
375.246	1	14
375.417	1	4
375.588	1	11
375.758	1	-9
375.929	1	2
376.100	1	19
376.271	1	14
376.442	1	12
376.613	1	0
376.784	1	5
376.955	1	10
377.125	1	9
377.296	1	9
377.467	1	11
377.638	1	-1
377.809	1	-1
377.980	1	-1
378.151	1	7
378.321	1	13
378.492	1	11
378.663	1	8
378.834	1	9
379.005	1	8
379.176	1	7
379.347	1	0
379.518	1	22
379.688	1	11
379.859	1	9
380.030	1	2
380.201	1	16
380.372	1	0
380.543	1	5
380.714	1	7
380.884	1	5
381.055	1	5
381.226	1	7
381.397	1	4
381.568	1	-4
381.739	1	16
381.910	1	11
382.080	1	-8
382.251	1	5
382.422	1	8
382.593	1	2
382.764	1	9
382.935	1	2
383.105	1	3
383.276	1	-1
383.447	1	8
383.618	1	15
383.789	1	8
383.960	1	-6
384.130	1	11
384.301	1	6
384.472	1	8
384.643	1	8
384.814	1	4
384.985	1	8
385.156	1	1
385.326	1	3
385.497	1	3
385.668	1	12
385.839	1	4
386.010	1	6
386.180	1	13
386.351	1	5
386.522	1	3
386.693	1	6
386.864	1	7
387.035	1	10
387.205	1	1
387.376	1	2
387.547	1	11
387.718	1	3
387.889	1	4
388.060	1	0
388.230	1	-2
388.401	1	1
388.572	1	5
388.743	1	11
388.914	1	6
389.084	1	4
389.255	1	-2
389.426	1	9
389.597	1	-4
389.768	1	5
389.939	1	8
390.109	1	2
390.280	1	14
390.451	1	4
390.622	1	1
390.793	1	8
390.963	1	7
391.134	1	-1
391.305	1	-4
391.476	1	5
391.647	1	10
391.817	1	8
391.988	1	10
392.159	1	6
392.330	1	-2
392.501	1	3
392.671	1	4
392.842	1	15
393.013	1	7
393.184	1	1
393.355	1	5
393.525	1	7
393.696	1	-1
393.867	1	13
394.038	1	11
394.208	1	-4
394.379	1	-3
394.550	1	3
394.721	1	23
394.892	1	1
395.062	1	-1
395.233	1	-4
395.404	1	-7
395.575	1	2
395.746	1	15
395.916	1	10
396.087	1	11
396.258	1	5
396.429	1	12
396.599	1	13
396.770	1	2
396.941	1	9
397.112	1	8
397.283	1	-4
397.453	1	6
397.624	1	5
397.795	1	-2
397.966	1	7
398.136	1	7
398.307	1	10
398.478	1	14
398.649	1	-2
398.819	1	-3
398.990	1	7
399.161	1	2
399.332	1	5
399.503	1	17
399.673	1	6
399.844	1	-2
400.015	1	-1
400.186	1	8
400.356	1	4
400.527	1	10
400.698	1	-1
400.869	1	6
401.039	1	-2
401.210	1	0
401.381	1	12
401.552	1	13
401.722	1	11
401.893	1	-5
402.064	1	-2
402.235	1	13
402.405	1	6
402.576	1	8
402.747	1	13
402.918	1	13
403.088	1	-1
403.259	1	-6
403.430	1	2
403.601	1	14
403.771	1	10
403.942	1	2
404.113	1	2
404.284	1	2
404.454	1	11
404.625	1	14
404.796	1	10
404.967	1	-4
405.137	1	6
405.308	1	-1
405.479	1	-2
405.649	1	3
405.820	1	8
405.991	1	9
406.162	1	-5
406.332	1	10
406.503	1	-1
406.674	1	9
406.845	1	1
407.015	1	8
407.186	1	17
407.357	1	-4
407.527	1	1
407.698	1	9
407.869	1	10
408.040	1	7
408.210	1	13
408.381	1	14
408.552	1	-2
408.722	1	7
408.893	1	6
409.064	1	5
409.235	1	-5
409.405	1	17
409.576	1	2
409.747	1	-3
409.917	1	1
410.088	1	9
410.259	1	5
410.430	1	17
410.600	1	10
410.771	1	-19
410.942	1	0
411.112	1	9
411.283	1	3
411.454	1	3
411.625	1	10
411.795	1	7
411.966	1	-2
412.137	1	-2
412.307	1	8
412.478	1	-5
412.649	1	11
412.819	1	9
412.990	1	0
413.161	1	16
413.332	1	-1
413.502	1	18
413.673	1	7
413.844	1	4
414.014	1	7
414.185	1	12
414.356	1	11
414.526	1	9
414.697	1	2
414.868	1	0
415.038	1	7
415.209	1	0
415.380	1	15
415.550	1	-1
415.721	1	4
415.892	1	3
416.063	1	3
416.233	1	8
416.404	1	12
416.575	1	5
416.745	1	1
416.916	1	-8
417.087	1	10
417.257	1	3
417.428	1	5
417.599	1	-4
417.769	1	6
417.940	1	6
418.111	1	9
418.281	1	0
418.452	1	7
418.623	1	10
418.793	1	-9
418.964	1	-2
419.135	1	9
419.305	1	1
419.476	1	4
419.647	1	9
419.817	1	3
419.988	1	10
420.159	1	5
420.329	1	7
420.500	1	4
420.671	1	2
420.841	1	4
421.012	1	10
421.183	1	15
421.353	1	0
421.524	1	8
421.695	1	3
421.865	1	9
422.036	1	4
422.206	1	3
422.377	1	9
422.548	1	16
422.718	1	11
422.889	1	-5
423.060	1	2
423.230	1	11
423.401	1	9
423.572	1	-2
423.742	1	5
423.913	1	8
424.084	1	10
424.254	1	14
424.425	1	7
424.595	1	10
424.766	1	7
424.937	1	2
425.107	1	8
425.278	1	5
425.449	1	3
425.619	1	2
425.790	1	9
425.961	1	12
426.131	1	9
426.302	1	13
426.472	1	-1
426.643	1	2
426.814	1	1
426.984	1	7
427.155	1	1
427.326	1	3
427.496	1	8
427.667	1	9
427.837	1	14
428.008	1	3
428.179	1	-1
428.349	1	9
428.520	1	8
428.691	1	12
428.861	1	-3
429.032	1	5
429.202	1	10
429.373	1	9
429.544	1	-1
429.714	1	-3
429.885	1	6
430.055	1	3
430.226	1	-2
430.397	1	0
430.567	1	4
430.738	1	4
430.909	1	1
431.079	1	12
431.250	1	16
431.420	1	3
431.591	1	5
431.762	1	7
431.932	1	3
432.103	1	2
432.273	1	14
432.444	1	9
432.615	1	13
432.785	1	5
432.956	1	-5
433.126	1	1
433.297	1	11
433.468	1	5
433.638	1	2
433.809	1	23
433.979	1	12
434.150	1	7
434.320	1	6
434.491	1	-1
434.662	1	8
434.832	1	3
435.003	1	14
435.173	1	8
435.344	1	9
435.515	1	5
435.685	1	3
435.856	1	-5
436.026	1	0
436.197	1	7
436.368	1	0
436.538	1	3
436.709	1	0
436.879	1	9
437.050	1	8
437.220	1	5
437.391	1	10
437.562	1	5
437.732	1	18
437.903	1	11
438.073	1	2
438.244	1	10
438.414	1	9
438.585	1	18
438.756	1	-10
438.926	1	6
439.097	1	10
439.267	1	1
439.438	1	8
439.608	1	17
439.779	1	15
439.949	1	8
440.120	1	2
440.291	1	7
440.461	1	16
440.632	1	11
440.802	1	-6
440.973	1	5
441.143	1	2
441.314	1	0
441.485	1	4
441.655	1	11
441.826	1	4
441.996	1	13
442.167	1	6
442.337	1	7
442.508	1	2
442.678	1	-2
442.849	1	4
443.019	1	3
443.190	1	8
443.361	1	2
443.531	1	7
443.702	1	3
443.872	1	11
444.043	1	-2
444.213	1	10
444.384	1	-6
444.554	1	0
444.725	1	15
444.895	1	2
445.066	1	4
445.237	1	-6
445.407	1	4
445.578	1	4
445.748	1	10
445.919	1	-2
446.089	1	6
446.260	1	10
446.430	1	-1
446.601	1	11
446.771	1	8
446.942	1	4
447.112	1	0
447.283	1	4
447.453	1	0
447.624	1	-1
447.794	1	6
447.965	1	-1
448.135	1	4
448.306	1	4
448.477	1	7
448.647	1	22
448.818	1	-4
448.988	1	-1
449.159	1	6
449.329	1	-1
449.500	1	-9
449.670	1	0
449.841	1	-9
450.011	1	7
450.182	1	18
450.352	1	7
450.523	1	8
450.693	1	4
450.864	1	-3
451.034	1	-2
451.205	1	8
451.375	1	7
451.546	1	16
451.716	1	-8
451.887	1	-5
452.057	1	12
452.228	1	7
452.398	1	-2
452.569	1	3
452.739	1	6
452.910	1	3
453.080	1	7
453.251	1	14
453.421	1	6
453.592	1	4
453.762	1	8
453.933	1	8
454.103	1	-1
454.274	1	1
454.444	1	10
454.615	1	-7
454.785	1	6
454.956	1	-2
455.126	1	1
455.297	1	6
455.467	1	1
455.638	1	2
455.808	1	3
455.979	1	9
456.149	1	-2
456.320	1	7
456.490	1	8
456.661	1	5
456.831	1	-6
457.001	1	3
457.172	1	0
457.342	1	0
457.513	1	2
457.683	1	5
457.854	1	3
458.024	1	20
458.195	1	-7
458.365	1	1
458.536	1	1
458.706	1	1
458.877	1	24
459.047	1	-8
459.218	1	11
459.388	1	0
459.559	1	3
459.729	1	-1
459.899	1	7
460.070	1	13
460.240	1	13
460.411	1	2
460.581	1	1
460.752	1	3
460.922	1	3
461.093	1	10
461.263	1	14
461.434	1	6
461.604	1	-9
461.775	1	1
461.945	1	13
462.115	1	-7
462.286	1	9
462.456	1	5
462.627	1	8
462.797	1	0
462.968	1	-3
463.138	1	1
463.309	1	3
463.479	1	10
463.649	1	-1
463.820	1	0
463.990	1	8
464.161	1	4
464.331	1	0
464.502	1	-1
464.672	1	2
464.843	1	-3
465.013	1	3
465.183	1	16
465.354	1	0
465.524	1	0
465.695	1	5
465.865	1	4
466.036	1	-1
466.206	1	1
466.376	1	6
466.547	1	-8
466.717	1	14
466.888	1	0
467.058	1	7
467.229	1	5
467.399	1	-2
467.569	1	-1
467.740	1	12
467.910	1	-2
468.081	1	11
468.251	1	6
468.422	1	16
468.592	1	1
468.762	1	-2
468.933	1	10
469.103	1	-2
469.274	1	7
469.444	1	-2
469.614	1	4
469.785	1	7
469.955	1	-3
470.126	1	-7
470.296	1	-1
470.467	1	3
470.637	1	14
470.807	1	1
470.978	1	-5
471.148	1	8
471.319	1	-1
471.489	1	0
471.659	1	-4
471.830	1	5
472.000	1	5
472.171	1	4
472.341	1	0
472.511	1	6
472.682	1	1
472.852	1	3
473.023	1	2
473.193	1	10
473.363	1	16
473.534	1	6
473.704	1	0
473.875	1	13
474.045	1	8
474.215	1	2
474.386	1	9
474.556	1	12
474.727	1	1
474.897	1	-11
475.067	1	0
475.238	1	7
475.408	1	10
475.578	1	-5
475.749	1	13
475.919	1	-5
476.090	1	8
476.260	1	2
476.430	1	13
476.601	1	2
476.771	1	-8
476.942	1	17
477.112	1	11
477.282	1	3
477.453	1	2
477.623	1	-10
477.793	1	-7
477.964	1	-3
478.134	1	12
478.305	1	12
478.475	1	-4
478.645	1	-1
478.816	1	3
478.986	1	-1
479.156	1	1
479.327	1	-3
479.497	1	9
479.667	1	9
479.838	1	2
480.008	1	-1
480.179	1	-7
480.349	1	2
480.519	1	-10
480.690	1	2
480.860	1	12
481.030	1	8
481.201	1	1
481.371	1	6
481.541	1	7
481.712	1	1
481.882	1	1
482.053	1	-3
482.223	1	4
482.393	1	11
482.564	1	2
482.734	1	-2
482.904	1	5
483.075	1	13
483.245	1	-2
483.415	1	1
483.586	1	9
483.756	1	-2
483.926	1	6
484.097	1	-8
484.267	1	6
484.437	1	-7
484.608	1	3
484.778	1	10
484.948	1	4
485.119	1	9
485.289	1	-3
485.459	1	-3
485.630	1	8
485.800	1	16
485.970	1	-1
486.141	1	5
486.311	1	15
486.481	1	4
486.652	1	10
486.822	1	14
486.992	1	6
487.163	1	-6
487.333	1	-4
487.503	1	-2
487.674	1	4
487.844	1	-3
488.014	1	1
488.185	1	8
488.355	1	5
488.525	1	6
488.696	1	0
488.866	1	5
489.036	1	3
489.207	1	7
489.377	1	1
489.547	1	11
489.718	1	7
489.888	1	10
490.058	1	11
490.228	1	6
490.399	1	12
490.569	1	9
490.739	1	5
490.910	1	0
491.080	1	9
491.250	1	5
491.421	1	11
491.591	1	-4
491.761	1	-4
491.932	1	2
492.102	1	10
492.272	1	2
492.442	1	1
492.613	1	5
492.783	1	-4
492.953	1	10
493.124	1	4
493.294	1	1
493.464	1	-1
493.635	1	10
493.805	1	-3
493.975	1	10
494.145	1	7
494.316	1	9
494.486	1	12
494.656	1	1
494.827	1	2
494.997	1	-5
495.167	1	5
495.337	1	5
495.508	1	-2
495.678	1	-2
495.848	1	4
496.019	1	2
496.189	1	11
496.359	1	5
496.529	1	1
496.700	1	4
496.870	1	-6
497.040	1	0
497.211	1	1
497.381	1	-1
497.551	1	13
497.721	1	2
497.892	1	4
498.062	1	1
498.232	1	7
498.403	1	-2
498.573	1	5
498.743	1	8
498.913	1	12
499.084	1	20
499.254	1	7
499.424	1	-4
499.594	1	-3
499.765	1	8
499.935	1	3
500.105	1	8
500.275	1	13
500.446	1	8
500.616	1	-3
500.786	1	10
500.956	1	2
501.127	1	3
501.297	1	3
501.467	1	-1
501.638	1	2
501.808	1	4
501.978	1	-5
502.148	1	-3
502.319	1	9
502.489	1	8
502.659	1	2
502.829	1	-6
503.000	1	6
503.170	1	-4
503.340	1	-1
503.510	1	3
503.681	1	0
503.851	1	2
504.021	1	-1
504.191	1	4
504.362	1	-1
504.532	1	-1
504.702	1	1
504.872	1	3
505.042	1	12
505.213	1	0
505.383	1	8
505.553	1	1
505.723	1	17
505.894	1	14
506.064	1	5
506.234	1	1
506.404	1	3
506.575	1	6
506.745	1	-4
506.915	1	3
507.085	1	11
507.256	1	16
507.426	1	9
507.596	1	4
507.766	1	3
507.936	1	-1
508.107	1	-2
508.277	1	3
508.447	1	11
508.617	1	7
508.788	1	4
508.958	1	13
509.128	1	14
509.298	1	4
509.468	1	-12
509.639	1	1
509.809	1	1
509.979	1	-6
510.149	1	10
510.319	1	9
510.490	1	8
510.660	1	-12
510.830	1	18
511.000	1	5
511.171	1	21
511.341	1	-8
511.511	1	-4
511.681	1	-3
511.851	1	12
512.022	1	8
512.192	1	-10
512.362	1	-2
512.532	1	8
512.702	1	7
512.873	1	5
513.043	1	2
513.213	1	6
513.383	1	3
513.553	1	9
513.724	1	-1
513.894	1	-4
514.064	1	-1
514.234	1	15
514.404	1	14
514.575	1	-1
514.745	1	0
514.915	1	3
515.085	1	8
515.255	1	2
515.425	1	4
515.596	1	2
515.766	1	7
515.936	1	15
516.106	1	1
516.276	1	7
516.447	1	1
516.617	1	2
516.787	1	0
516.957	1	-2
517.127	1	14
517.297	1	2
517.468	1	10
517.638	1	14
517.808	1	3
517.978	1	4
518.148	1	3
518.319	1	1
518.489	1	13
518.659	1	3
518.829	1	9
518.999	1	4
519.169	1	6
519.340	1	-2
519.510	1	-5
519.680	1	6
519.850	1	15
520.020	1	0
520.190	1	3
520.361	1	-8
520.531	1	13
520.701	1	8
520.871	1	-8
521.041	1	17
521.211	1	8
521.382	1	11
521.552	1	9
521.722	1	12
521.892	1	10
522.062	1	5
522.232	1	-8
522.402	1	0
522.573	1	3
522.743	1	11
522.913	1	12
523.083	1	0
523.253	1	7
523.423	1	3
523.593	1	16
523.764	1	-2
523.934	1	5
524.104	1	11
524.274	1	-3
524.444	1	4
524.614	1	0
524.784	1	13
524.955	1	10
525.125	1	9
525.295	1	8
525.465	1	3
525.635	1	2
525.805	1	8
525.975	1	16
526.146	1	0
526.316	1	8
526.486	1	0
526.656	1	9
526.826	1	8
526.996	1	5
527.166	1	10
527.337	1	11
527.507	1	12
527.677	1	3
527.847	1	9
528.017	1	3
528.187	1	9
528.357	1	12
528.527	1	5
528.698	1	2
528.868	1	0
529.038	1	-2
529.208	1	-5
529.378	1	11
529.548	1	4
529.718	1	12
529.888	1	3
530.058	1	2
530.229	1	7
530.399	1	7
530.569	1	9
530.739	1	6
530.909	1	9
531.079	1	10
531.249	1	9
531.419	1	12
531.589	1	4
531.760	1	-7
531.930	1	3
532.100	1	9
532.270	1	9
532.440	1	7
532.610	1	7
532.780	1	-4
532.950	1	12
533.120	1	3
533.290	1	13
533.461	1	-2
533.631	1	5
533.801	1	15
533.971	1	9
534.141	1	13
534.311	1	4
534.481	1	10
534.651	1	3
534.821	1	12
534.991	1	-2
535.162	1	12
535.332	1	9
535.502	1	12
535.672	1	7
535.842	1	10
536.012	1	21
536.182	1	2
536.352	1	3
536.522	1	-3
536.692	1	5
536.862	1	-5
537.032	1	4
537.203	1	-9
537.373	1	7
537.543	1	8
537.713	1	17
537.883	1	-8
538.053	1	-3
538.223	1	5
538.393	1	22
538.563	1	12
538.733	1	11
538.903	1	17
539.073	1	7
539.243	1	8
539.413	1	3
539.584	1	5
539.754	1	-3
539.924	1	1
540.094	1	1
540.264	1	1
540.434	1	14
540.604	1	9
540.774	1	4
540.944	1	9
541.114	1	6
541.284	1	0
541.454	1	4
541.624	1	12
541.794	1	11
541.964	1	6
542.134	1	0
542.305	1	-1
542.475	1	2
542.645	1	4
542.815	1	8
542.985	1	3
543.155	1	1
543.325	1	4
543.495	1	0
543.665	1	11
543.835	1	11
544.005	1	10
544.175	1	-1
544.345	1	8
544.515	1	12
544.685	1	3
544.855	1	-6
545.025	1	0
545.195	1	5
545.365	1	10
545.535	1	18
545.705	1	5
545.875	1	16
546.045	1	7
546.216	1	15
546.386	1	2
546.556	1	-3
546.726	1	-1
546.896	1	2
547.066	1	7
547.236	1	3
547.406	1	-2
547.576	1	8
547.746	1	5
547.916	1	-3
548.086	1	-4
548.256	1	-2
548.426	1	9
548.596	1	5
548.766	1	7
548.936	1	10
549.106	1	4
549.276	1	-7
549.446	1	1
549.616	1	1
549.786	1	5
549.956	1	-1
550.126	1	9
550.296	1	-3
550.466	1	12
550.636	1	1
550.806	1	4
550.976	1	2
551.146	1	5
551.316	1	6
551.486	1	6
551.656	1	7
551.826	1	5
551.996	1	8
552.166	1	13
552.336	1	9
552.506	1	5
552.676	1	6
552.846	1	2
553.016	1	4
553.186	1	3
553.356	1	2
553.526	1	6
553.696	1	1
553.866	1	-17
554.036	1	-5
554.206	1	2
554.376	1	6
554.546	1	13
554.716	1	7
554.886	1	1
555.056	1	-1
555.226	1	2
555.396	1	-8
555.566	1	7
555.736	1	2
555.906	1	1
556.076	1	3
556.246	1	4
556.416	1	9
556.586	1	9
556.756	1	15
556.926	1	1
557.096	1	0
557.266	1	4
557.436	1	-1
557.606	1	3
557.776	1	3
557.946	1	7
558.116	1	7
558.286	1	14
558.456	1	6
558.626	1	-5
558.796	1	11
558.966	1	3
559.136	1	4
559.306	1	2
559.476	1	3
559.646	1	5
559.816	1	13
559.986	1	0
560.155	1	-4
560.325	1	-8
560.495	1	-5
560.665	1	9
560.835	1	4
561.005	1	5
561.175	1	10
561.345	1	7
561.515	1	1
561.685	1	-1
561.855	1	-2
562.025	1	0
562.195	1	-1
562.365	1	11
562.535	1	2
562.705	1	8
562.875	1	5
563.045	1	1
563.215	1	0
563.385	1	2
563.555	1	4
563.725	1	1
563.895	1	10
564.064	1	5
564.234	1	26
564.404	1	-2
564.574	1	16
564.744	1	1
564.914	1	-2
565.084	1	2
565.254	1	-6
565.424	1	4
565.594	1	7
565.764	1	2
565.934	1	3
566.104	1	9
566.274	1	2
566.444	1	14
566.614	1	2
566.783	1	12
566.953	1	-7
567.123	1	6
567.293	1	7
567.463	1	7
567.633	1	-11
567.803	1	15
567.973	1	6
568.143	1	16
568.313	1	-12
568.483	1	8
568.653	1	2
568.823	1	-7
568.993	1	-2
569.162	1	7
569.332	1	3
569.502	1	-6
569.672	1	2
569.842	1	3
570.012	1	2
570.182	1	-1
570.352	1	-7
570.522	1	-9
570.692	1	8
570.862	1	12
571.031	1	12
571.201	1	-1
571.371	1	4
571.541	1	-5
571.711	1	5
571.881	1	-1
572.051	1	5
572.221	1	5
572.391	1	6
572.561	1	12
572.731	1	11
572.900	1	7
573.070	1	-2
573.240	1	-7
573.410	1	1
573.580	1	10
573.750	1	1
573.920	1	3
574.090	1	-3
574.260	1	5
574.430	1	5
574.599	1	6
574.769	1	0
574.939	1	4
575.109	1	14
575.279	1	-4
575.449	1	13
575.619	1	10
575.789	1	0
575.959	1	2
576.128	1	0
576.298	1	2
576.468	1	-2
576.638	1	-4
576.808	1	-4
576.978	1	-4
577.148	1	7
577.318	1	4
577.487	1	21
577.657	1	4
577.827	1	8
577.997	1	10
578.167	1	-7
578.337	1	9
578.507	1	-9
578.677	1	10
578.846	1	6
579.016	1	5
579.186	1	0
579.356	1	4
579.526	1	0
579.696	1	-7
579.866	1	-3
580.036	1	5
580.205	1	-5
580.375	1	-2
580.545	1	-3
580.715	1	15
580.885	1	13
581.055	1	-3
581.225	1	-5
581.394	1	2
581.564	1	0
581.734	1	11
581.904	1	7
582.074	1	-3
582.244	1	-6
582.414	1	0
582.583	1	7
582.753	1	-2
582.923	1	7
583.093	1	8
583.263	1	8
583.433	1	7
583.603	1	0
583.772	1	12
583.942	1	4
584.112	1	12
584.282	1	-6
584.452	1	6
584.622	1	0
584.791	1	2
584.961	1	8
585.131	1	16
585.301	1	3
585.471	1	5
585.641	1	9
585.811	1	0
585.980	1	1
586.150	1	14
586.320	1	6
586.490	1	-2
586.660	1	-5
586.830	1	-8
586.999	1	-11
587.169	1	9
587.339	1	-4
587.509	1	0
587.679	1	2
587.849	1	3
588.018	1	10
588.188	1	8
588.358	1	-5
588.528	1	11
588.698	1	2
588.867	1	10
589.037	1	8
589.207	1	4
589.377	1	6
589.547	1	-4
589.717	1	-1
589.886	1	5
590.056	1	-5
590.226	1	6
590.396	1	0
590.566	1	10
590.735	1	1
590.905	1	10
591.075	1	3
591.245	1	2
591.415	1	8
591.585	1	9
591.754	1	-6
591.924	1	5
592.094	1	0
592.264	1	-3
592.434	1	3
592.603	1	1
592.773	1	13
592.943	1	-4
593.113	1	0
593.283	1	-4
593.452	1	6
593.622	1	4
593.792	1	-8
593.962	1	6
594.132	1	0
594.301	1	-7
594.471	1	6
594.641	1	9
594.811	1	7
594.981	1	-5
595.150	1	-1
595.320	1	11
595.490	1	3
595.660	1	0
595.829	1	2
595.999	1	9
596.169	1	9
596.339	1	3
596.509	1	2
596.678	1	-7
596.848	1	4
597.018	1	0
597.188	1	-1
597.358	1	-5
597.527	1	-4
597.697	1	3
597.867	1	4
598.037	1	11
598.206	1	6
598.376	1	-8
598.546	1	-1
598.716	1	-1
598.885	1	10
599.055	1	-5
599.225	1	10
599.395	1	0
599.565	1	11
599.734	1	-4
599.904	1	-5
600.074	1	0
600.244	1	-6
600.413	1	4
600.583	1	1
600.753	1	-6
600.923	1	2
601.092	1	-7
601.262	1	1
601.432	1	-2
601.602	1	-1
601.771	1	9
601.941	1	-2
602.111	1	-1
602.281	1	7
602.451	1	0
602.620	1	6
602.790	1	0
602.960	1	-3
603.130	1	9
603.299	1	7
603.469	1	2
603.639	1	-7
603.809	1	5
603.978	1	7
604.148	1	-1
604.318	1	1
604.487	1	13
604.657	1	-13
604.827	1	1
604.997	1	12
605.166	1	9
605.336	1	12
605.506	1	5
605.676	1	-4
605.845	1	-4
606.015	1	-8
606.185	1	9
606.355	1	9
606.524	1	-3
606.694	1	-6
606.864	1	19
607.034	1	7
607.203	1	-4
607.373	1	4
607.543	1	-2
607.712	1	4
607.882	1	17
608.052	1	-2
608.222	1	-11
608.391	1	7
608.561	1	3
608.731	1	2
608.901	1	9
609.070	1	7
609.240	1	-4
609.410	1	16
609.579	1	7
609.749	1	9
609.919	1	7
610.089	1	7
610.258	1	2
610.428	1	7
610.598	1	1
610.767	1	6
610.937	1	10
611.107	1	1
611.277	1	2
611.446	1	5
611.616	1	5
611.786	1	9
611.955	1	-5
612.125	1	11
612.295	1	5
612.465	1	-3
612.634	1	-2
612.804	1	14
612.974	1	6
613.143	1	3
613.313	1	-5
613.483	1	-5
613.652	1	-8
613.822	1	6
613.992	1	1
614.162	1	3
614.331	1	9
614.501	1	8
614.671	1	5
614.840	1	-7
615.010	1	5
615.180	1	6
615.349	1	9
615.519	1	-4
615.689	1	9
615.858	1	0
616.028	1	7
616.198	1	3
616.368	1	2
616.537	1	11
616.707	1	8
616.877	1	3
617.046	1	13
617.216	1	9
617.386	1	-9
617.555	1	-1
617.725	1	1
617.895	1	2
618.064	1	5
618.234	1	5
618.404	1	0
618.573	1	-4
618.743	1	10
618.913	1	12
619.082	1	-4
619.252	1	-9
619.422	1	1
619.591	1	4
619.761	1	10
619.931	1	-4
620.100	1	-3
620.270	1	1
620.440	1	8
620.609	1	-8
620.779	1	0
620.949	1	5
621.118	1	1
621.288	1	-2
621.458	1	1
621.627	1	4
621.797	1	-5
621.967	1	4
622.136	1	13
622.306	1	11
622.476	1	2
622.645	1	8
622.815	1	-4
622.985	1	8
623.154	1	2
623.324	1	-4
623.494	1	8
623.663	1	6
623.833	1	11
624.002	1	9
624.172	1	10
624.342	1	4
624.511	1	2
624.681	1	7
624.851	1	-4
625.020	1	5
625.190	1	-3
625.360	1	4
625.529	1	4
625.699	1	-5
625.869	1	3
626.038	1	0
626.208	1	-2
626.377	1	0
626.547	1	9
626.717	1	9
626.886	1	-1
627.056	1	19
627.226	1	-3
627.395	1	-1
627.565	1	5
627.735	1	6
627.904	1	7
628.074	1	7
628.243	1	9
628.413	1	3
628.583	1	-14
628.752	1	10
628.922	1	-3
629.091	1	-3
629.261	1	-9
629.431	1	1
629.600	1	2
629.770	1	-3
629.940	1	8
630.109	1	11
630.279	1	13
630.448	1	9
630.618	1	0
630.788	1	-1
630.957	1	4
631.127	1	3
631.297	1	-1
631.466	1	13
631.636	1	12
631.805	1	3
631.975	1	2
632.145	1	3
632.314	1	3
632.484	1	1
632.653	1	1
632.823	1	-1
632.993	1	3
633.162	1	8
633.332	1	3
633.501	1	15
633.671	1	-5
633.841	1	10
634.010	1	-3
634.180	1	7
634.349	1	-2
634.519	1	15
634.689	1	7
634.858	1	8
635.028	1	-1
635.197	1	2
635.367	1	4
635.537	1	-10
635.706	1	4
635.876	1	5
636.045	1	19
636.215	1	10
636.384	1	-5
636.554	1	10
636.724	1	10
636.893	1	4
637.063	1	6
637.232	1	-8
637.402	1	-2
637.572	1	8
637.741	1	8
637.911	1	7
638.080	1	8
638.250	1	6
638.419	1	18
638.589	1	-3
638.759	1	-7
638.928	1	0
639.098	1	1
639.267	1	3
639.437	1	7
639.606	1	5
639.776	1	5
639.946	1	1
640.115	1	6
640.285	1	-1
640.454	1	7
640.624	1	-12
640.793	1	3
640.963	1	1
641.132	1	9
641.302	1	10
641.472	1	-1
641.641	1	12
641.811	1	1
641.980	1	4
642.150	1	-7
642.319	1	17
642.489	1	-5
642.659	1	0
642.828	1	5
642.998	1	6
643.167	1	8
643.337	1	2
643.506	1	10
643.676	1	0
643.845	1	-10
644.015	1	12
644.184	1	-5
644.354	1	-4
644.524	1	-5
644.693	1	6
644.863	1	-8
645.032	1	7
645.202	1	15
645.371	1	19
645.541	1	5
645.710	1	3
645.880	1	6
646.049	1	-7
646.219	1	2
646.388	1	-1
646.558	1	0
646.728	1	10
646.897	1	3
647.067	1	0
647.236	1	1
647.406	1	1
647.575	1	4
647.745	1	2
647.914	1	-11
648.084	1	-8
648.253	1	2
648.423	1	16
648.592	1	-6
648.762	1	2
648.931	1	-1
649.101	1	-7
649.270	1	-9
649.440	1	2
649.610	1	2
649.779	1	9
649.949	1	6
650.118	1	1
650.288	1	12
650.457	1	-1
650.627	1	5
650.796	1	1
650.966	1	6
651.135	1	5
651.305	1	1
651.474	1	5
651.644	1	6
651.813	1	2
651.983	1	-11
652.152	1	3
652.322	1	1
652.491	1	6
652.661	1	-1
652.830	1	7
653.000	1	0
653.169	1	10
653.339	1	6
653.508	1	5
653.678	1	12
653.847	1	-1
654.017	1	-2
654.186	1	0
654.356	1	-1
654.525	1	0
654.695	1	10
654.864	1	6
655.034	1	-4
655.203	1	4
655.373	1	4
655.542	1	3
655.712	1	0
655.881	1	6
656.051	1	-3
656.220	1	-3
656.390	1	4
656.559	1	7
656.729	1	-1
656.898	1	-2
657.068	1	-1
657.237	1	1
657.406	1	4
657.576	1	-4
657.745	1	10
657.915	1	7
658.084	1	-1
658.254	1	-4
658.423	1	7
658.593	1	8
658.762	1	10
658.932	1	15
659.101	1	5
659.271	1	2
659.440	1	-3
659.610	1	4
659.779	1	2
659.949	1	-3
660.118	1	-3
660.288	1	7
660.457	1	8
660.626	1	2
660.796	1	2
660.965	1	8
661.135	1	6
661.304	1	4
661.474	1	12
661.643	1	0
661.813	1	-5
661.982	1	-7
662.152	1	2
662.321	1	-6
662.491	1	17
662.660	1	6
662.829	1	14
662.999	1	9
663.168	1	0
663.338	1	6
663.507	1	2
663.677	1	8
663.846	1	4
664.016	1	3
664.185	1	-3
664.354	1	14
664.524	1	-2
664.693	1	4
664.863	1	0
665.032	1	6
665.202	1	2
665.371	1	-4
665.541	1	-3
665.710	1	5
665.879	1	-3
666.049	1	6
666.218	1	4
666.388	1	0
666.557	1	5
666.727	1	-4
666.896	1	9
667.065	1	0
667.235	1	1
667.404	1	4
667.574	1	13
667.743	1	0
667.913	1	15
668.082	1	4
668.251	1	-5
668.421	1	-13
668.590	1	9
668.760	1	-2
668.929	1	4
669.099	1	-12
669.268	1	3
669.437	1	7
669.607	1	0
669.776	1	9
669.946	1	9
670.115	1	12
670.285	1	9
670.454	1	-3
670.623	1	19
670.793	1	-9
670.962	1	3
671.132	1	8
671.301	1	3
671.470	1	4
671.640	1	-1
671.809	1	0
671.979	1	2
672.148	1	-9
672.317	1	7
672.487	1	-11
672.656	1	-3
672.826	1	-2
672.995	1	10
673.164	1	5
673.334	1	-1
673.503	1	-6
673.673	1	1
673.842	1	-3
674.011	1	7
674.181	1	9
674.350	1	9
674.520	1	1
674.689	1	11
674.858	1	-3
675.028	1	6
675.197	1	4
675.367	1	-7
675.536	1	4
675.705	1	11
675.875	1	3
676.044	1	4
676.214	1	9
676.383	1	3
676.552	1	8
676.722	1	3
676.891	1	0
677.060	1	6
677.230	1	11
677.399	1	-1
677.569	1	-1
677.738	1	7
677.907	1	11
678.077	1	3
678.246	1	0
678.416	1	-4
678.585	1	-2
678.754	1	8
678.924	1	-6
679.093	1	5
679.262	1	4
679.432	1	8
679.601	1	3
679.771	1	3
679.940	1	-2
680.109	1	12
680.279	1	1
680.448	1	9
680.617	1	-10
680.787	1	8
680.956	1	-3
681.125	1	8
681.295	1	4
681.464	1	0
681.634	1	10
681.803	1	-2
681.972	1	-1
682.142	1	-6
682.311	1	-12
682.480	1	10
682.650	1	6
682.819	1	5
682.988	1	-7
683.158	1	-1
683.327	1	7
683.496	1	5
683.666	1	5
683.835	1	-8
684.004	1	2
684.174	1	10
684.343	1	1
684.512	1	8
684.682	1	-8
684.851	1	0
685.021	1	-1
685.190	1	-3
685.359	1	4
685.529	1	-5
685.698	1	-1
685.867	1	2
686.037	1	6
686.206	1	12
686.375	1	3
686.545	1	2
686.714	1	-11
686.883	1	1
687.053	1	3
687.222	1	2
687.391	1	11
687.561	1	9
687.730	1	0
687.899	1	-2
688.069	1	3
688.238	1	10
688.407	1	8
688.577	1	-11
688.746	1	14
