340.368	1	3
340.539	1	12
340.710	1	13
340.881	1	3
341.052	1	1
341.223	1	2
341.394	1	0
341.565	1	-9
341.737	1	-5
341.908	1	7
342.079	1	7
342.250	1	10
342.421	1	9
342.592	1	2
342.763	1	11
342.934	1	7
343.105	1	10
343.276	1	2
343.447	1	2
343.618	1	-5
343.789	1	5
343.960	1	-3
344.131	1	2
344.302	1	4
344.473	1	9
344.644	1	10
344.815	1	-12
344.986	1	17
345.157	1	-8
345.328	1	10
345.499	1	-4
345.670	1	6
345.841	1	-4
346.012	1	2
346.183	1	8
346.354	1	1
346.526	1	1
346.697	1	-1
346.868	1	2
347.039	1	2
347.210	1	1
347.381	1	6
347.552	1	-3
347.723	1	7
347.894	1	0
348.065	1	7
348.236	1	4
348.407	1	15
348.578	1	4
348.749	1	6
348.920	1	-8
349.091	1	9
349.262	1	13
349.433	1	4
349.604	1	3
349.775	1	1
349.946	1	1
350.117	1	15
350.288	1	-2
350.459	1	-11
350.630	1	6
350.801	1	0
350.972	1	10
351.143	1	2
351.314	1	1
351.485	1	7
351.656	1	10
351.827	1	-7
351.998	1	5
352.169	1	0
352.340	1	15
352.511	1	-4
352.682	1	2
352.853	1	3
353.024	1	-1
353.195	1	0
353.366	1	7
353.537	1	-2
353.708	1	-2
353.879	1	1
354.050	1	9
354.221	1	10
354.392	1	15
354.563	1	7
354.734	1	-1
354.905	1	8
355.076	1	7
355.247	1	4
355.418	1	-4
355.589	1	-10
355.760	1	3
355.931	1	3
356.102	1	2
356.273	1	11
356.444	1	-5
356.615	1	6
356.785	1	3
356.956	1	4
357.127	1	15
357.298	1	4
357.469	1	8
357.640	1	15
357.811	1	8
357.982	1	12
358.153	1	4
358.324	1	3
358.495	1	9
358.666	1	-4
358.837	1	7
359.008	1	9
359.179	1	6
359.350	1	-5
359.521	1	-1
359.692	1	17
359.863	1	4
360.034	1	6
360.205	1	8
360.376	1	5
360.547	1	1
360.718	1	6
360.889	1	2
361.060	1	4
361.231	1	8
361.401	1	-6
361.572	1	11
361.743	1	5
361.914	1	2
362.085	1	14
362.256	1	-5
362.427	1	11
362.598	1	7
362.769	1	5
362.940	1	-4
363.111	1	18
363.282	1	9
363.453	1	7
363.624	1	8
363.795	1	10
363.966	1	16
364.137	1	8
364.308	1	14
364.478	1	12
364.649	1	13
364.820	1	17
364.991	1	11
365.162	1	7
365.333	1	8
365.504	1	14
365.675	1	12
365.846	1	17
366.017	1	13
366.188	1	18
366.359	1	16
366.530	1	7
366.701	1	20
366.871	1	25
367.042	1	24
367.213	1	25
367.384	1	19
367.555	1	20
367.726	1	10
367.897	1	9
368.068	1	10
368.239	1	19
368.410	1	6
368.581	1	13
368.752	1	18
368.923	1	27
369.093	1	16
369.264	1	24
369.435	1	9
369.606	1	28
369.777	1	9
369.948	1	17
370.119	1	18
370.290	1	14
370.461	1	19
370.632	1	5
370.803	1	15
370.973	1	8
371.144	1	10
371.315	1	18
371.486	1	14
371.657	1	-2
371.828	1	18
371.999	1	9
372.170	1	6
372.341	1	16
372.512	1	13
372.682	1	11
372.853	1	4
373.024	1	12
373.195	1	8
373.366	1	1
373.537	1	16
373.708	1	4
373.879	1	24
374.050	1	17
374.220	1	2
374.391	1	10
374.562	1	-1
374.733	1	-1
374.904	1	3
375.075	1	12
375.246	1	13
375.417	1	0
375.588	1	3
375.758	1	-6
375.929	1	-1
376.100	1	10
376.271	1	9
376.442	1	2
376.613	1	-6
376.784	1	7
376.955	1	7
377.125	1	5
377.296	1	9
377.467	1	21
377.638	1	-5
377.809	1	-3
377.980	1	0
378.151	1	7
378.321	1	7
378.492	1	9
378.663	1	9
378.834	1	4
379.005	1	11
379.176	1	6
379.347	1	4
379.518	1	9
379.688	1	6
379.859	1	5
380.030	1	9
380.201	1	4
380.372	1	11
380.543	1	7
380.714	1	17
380.884	1	-4
381.055	1	6
381.226	1	5
381.397	1	6
381.568	1	-5
381.739	1	10
381.910	1	12
382.080	1	7
382.251	1	5
382.422	1	19
382.593	1	6
382.764	1	2
382.935	1	5
383.105	1	-1
383.276	1	3
383.447	1	11
383.618	1	2
383.789	1	9
383.960	1	6
384.130	1	11
384.301	1	6
384.472	1	14
384.643	1	22
384.814	1	5
384.985	1	14
385.156	1	2
385.326	1	7
385.497	1	-1
385.668	1	16
385.839	1	5
386.010	1	1
386.180	1	4
386.351	1	1
386.522	1	-1
386.693	1	1
386.864	1	7
387.035	1	9
387.205	1	-1
387.376	1	7
387.547	1	15
387.718	1	3
387.889	1	-9
388.060	1	9
388.230	1	2
388.401	1	8
388.572	1	5
388.743	1	7
388.914	1	15
389.084	1	7
389.255	1	2
389.426	1	6
389.597	1	-3
389.768	1	0
389.939	1	6
390.109	1	3
390.280	1	6
390.451	1	6
390.622	1	3
390.793	1	8
390.963	1	2
391.134	1	-2
391.305	1	6
391.476	1	10
391.647	1	7
391.817	1	5
391.988	1	7
392.159	1	-3
392.330	1	8
392.501	1	4
392.671	1	0
392.842	1	10
393.013	1	3
393.184	1	-4
393.355	1	0
393.525	1	6
393.696	1	0
393.867	1	7
394.038	1	7
394.208	1	1
394.379	1	5
394.550	1	6
394.721	1	8
394.892	1	9
395.062	1	-3
395.233	1	8
395.404	1	1
395.575	1	5
395.746	1	5
395.916	1	21
396.087	1	9
396.258	1	2
396.429	1	10
396.599	1	10
396.770	1	12
396.941	1	-1
397.112	1	8
397.283	1	13
397.453	1	8
397.624	1	5
397.795	1	-7
397.966	1	10
398.136	1	8
398.307	1	10
398.478	1	3
398.649	1	5
398.819	1	-9
398.990	1	6
399.161	1	19
399.332	1	8
399.503	1	6
399.673	1	7
399.844	1	0
400.015	1	12
400.186	1	8
400.356	1	10
400.527	1	7
400.698	1	3
400.869	1	14
401.039	1	17
401.210	1	3
401.381	1	4
401.552	1	7
401.722	1	2
401.893	1	-7
402.064	1	-4
402.235	1	4
402.405	1	7
402.576	1	8
402.747	1	4
402.918	1	8
403.088	1	9
403.259	1	-9
403.430	1	13
403.601	1	-1
403.771	1	6
403.942	1	-6
404.113	1	-2
404.284	1	-3
404.454	1	15
404.625	1	7
404.796	1	8
404.967	1	-3
405.137	1	13
405.308	1	5
405.479	1	4
405.649	1	6
405.820	1	20
405.991	1	10
406.162	1	-3
406.332	1	14
406.503	1	3
406.674	1	17
406.845	1	0
407.015	1	20
407.186	1	11
407.357	1	4
407.527	1	10
407.698	1	6
407.869	1	12
408.040	1	2
408.210	1	10
408.381	1	14
408.552	1	-3
408.722	1	-2
408.893	1	8
409.064	1	2
409.235	1	5
409.405	1	5
409.576	1	8
409.747	1	0
409.917	1	-3
410.088	1	18
410.259	1	4
410.430	1	18
410.600	1	6
410.771	1	-3
410.942	1	1
411.112	1	4
411.283	1	-3
411.454	1	7
411.625	1	14
411.795	1	2
411.966	1	0
412.137	1	-6
412.307	1	1
412.478	1	2
412.649	1	11
412.819	1	7
412.990	1	6
413.161	1	13
413.332	1	-5
413.502	1	15
413.673	1	-2
413.844	1	5
414.014	1	9
414.185	1	6
414.356	1	9
414.526	1	1
414.697	1	3
414.868	1	-1
415.038	1	2
415.209	1	5
415.380	1	3
415.550	1	8
415.721	1	2
415.892	1	15
416.063	1	8
416.233	1	17
416.404	1	9
416.575	1	14
416.745	1	9
416.916	1	8
417.087	1	6
417.257	1	3
417.428	1	7
417.599	1	0
417.769	1	3
417.940	1	11
418.111	1	4
418.281	1	2
418.452	1	4
418.623	1	5
418.793	1	-3
418.964	1	1
419.135	1	6
419.305	1	2
419.476	1	-3
419.647	1	12
419.817	1	4
419.988	1	14
420.159	1	11
420.329	1	14
420.500	1	8
420.671	1	2
420.841	1	10
421.012	1	-6
421.183	1	14
421.353	1	4
421.524	1	10
421.695	1	5
421.865	1	6
422.036	1	-3
422.206	1	3
422.377	1	8
422.548	1	15
422.718	1	3
422.889	1	4
423.060	1	6
423.230	1	2
423.401	1	2
423.572	1	2
423.742	1	8
423.913	1	1
424.084	1	13
424.254	1	14
424.425	1	11
424.595	1	4
424.766	1	8
424.937	1	-3
425.107	1	14
425.278	1	-3
425.449	1	7
425.619	1	8
425.790	1	14
425.961	1	9
426.131	1	18
426.302	1	14
426.472	1	3
426.643	1	4
426.814	1	11
426.984	1	3
427.155	1	-4
427.326	1	0
427.496	1	2
427.667	1	16
427.837	1	10
428.008	1	4
428.179	1	14
428.349	1	7
428.520	1	9
428.691	1	0
428.861	1	1
429.032	1	7
429.202	1	9
429.373	1	4
429.544	1	11
429.714	1	-1
429.885	1	-3
430.055	1	2
430.226	1	1
430.397	1	-4
430.567	1	11
430.738	1	-2
430.909	1	7
431.079	1	17
431.250	1	10
431.420	1	14
431.591	1	-4
431.762	1	-2
431.932	1	2
432.103	1	-5
432.273	1	9
432.444	1	12
432.615	1	14
432.785	1	5
432.956	1	-8
433.126	1	6
433.297	1	15
433.468	1	4
433.638	1	0
433.809	1	7
433.979	1	13
434.150	1	-1
434.320	1	8
434.491	1	5
434.662	1	12
434.832	1	2
435.003	1	10
435.173	1	3
435.344	1	10
435.515	1	8
435.685	1	-3
435.856	1	0
436.026	1	7
436.197	1	6
436.368	1	6
436.538	1	5
436.709	1	6
436.879	1	3
437.050	1	10
437.220	1	-9
437.391	1	22
437.562	1	8
437.732	1	0
437.903	1	13
438.073	1	23
438.244	1	18
438.414	1	6
438.585	1	7
438.756	1	3
438.926	1	-3
439.097	1	9
439.267	1	8
439.438	1	6
439.608	1	16
439.779	1	8
439.949	1	12
440.120	1	12
440.291	1	10
440.461	1	11
440.632	1	3
440.802	1	-15
440.973	1	11
441.143	1	5
441.314	1	8
441.485	1	4
441.655	1	13
441.826	1	4
441.996	1	8
442.167	1	5
442.337	1	8
442.508	1	-10
442.678	1	3
442.849	1	6
443.019	1	4
443.190	1	0
443.361	1	0
443.531	1	4
443.702	1	9
443.872	1	8
444.043	1	0
444.213	1	6
444.384	1	-2
444.554	1	6
444.725	1	10
444.895	1	5
445.066	1	7
445.237	1	3
445.407	1	-1
445.578	1	1
445.748	1	13
445.919	1	-2
446.089	1	3
446.260	1	6
446.430	1	0
446.601	1	4
446.771	1	4
446.942	1	8
447.112	1	-1
447.283	1	1
447.453	1	-4
447.624	1	5
447.794	1	17
447.965	1	6
448.135	1	12
448.306	1	9
448.477	1	2
448.647	1	19
448.818	1	-3
448.988	1	6
449.159	1	2
449.329	1	-7
449.500	1	-5
449.670	1	-1
449.841	1	-6
450.011	1	-3
450.182	1	13
450.352	1	9
450.523	1	12
450.693	1	5
450.864	1	3
451.034	1	-4
451.205	1	-1
451.375	1	7
451.546	1	13
451.716	1	-5
451.887	1	-2
452.057	1	17
452.228	1	13
452.398	1	-5
452.569	1	12
452.739	1	4
452.910	1	11
453.080	1	2
453.251	1	11
453.421	1	5
453.592	1	8
453.762	1	9
453.933	1	7
454.103	1	9
454.274	1	-6
454.444	1	8
454.615	1	9
454.785	1	11
454.956	1	1
455.126	1	-1
455.297	1	14
455.467	1	0
455.638	1	4
455.808	1	12
455.979	1	5
456.149	1	-7
456.320	1	8
456.490	1	9
456.661	1	-6
456.831	1	13
457.001	1	2
457.172	1	-2
457.342	1	2
457.513	1	-3
457.683	1	10
457.854	1	2
458.024	1	24
458.195	1	-14
458.365	1	7
458.536	1	1
458.706	1	12
458.877	1	16
459.047	1	-12
459.218	1	5
459.388	1	9
459.559	1	3
459.729	1	-3
459.899	1	-1
460.070	1	6
460.240	1	19
460.411	1	7
460.581	1	-1
460.752	1	11
460.922	1	4
461.093	1	5
461.263	1	11
461.434	1	11
461.604	1	-10
461.775	1	5
461.945	1	13
462.115	1	4
462.286	1	8
462.456	1	8
462.627	1	6
462.797	1	6
462.968	1	-1
463.138	1	3
463.309	1	7
463.479	1	7
463.649	1	3
463.820	1	-9
463.990	1	-2
464.161	1	-3
464.331	1	12
464.502	1	6
464.672	1	13
464.843	1	3
465.013	1	0
465.183	1	8
465.354	1	8
465.524	1	-3
465.695	1	5
465.865	1	-9
466.036	1	7
466.206	1	3
466.376	1	-1
466.547	1	-10
466.717	1	14
466.888	1	7
467.058	1	8
467.229	1	-2
467.399	1	-1
467.569	1	5
467.740	1	11
467.910	1	-10
468.081	1	13
468.251	1	3
468.422	1	5
468.592	1	8
468.762	1	5
468.933	1	6
469.103	1	5
469.274	1	6
469.444	1	1
469.614	1	12
469.785	1	11
469.955	1	-7
470.126	1	-7
470.296	1	2
470.467	1	1
470.637	1	5
470.807	1	4
470.978	1	0
471.148	1	-8
471.319	1	1
471.489	1	-1
471.659	1	-6
471.830	1	8
472.000	1	5
472.171	1	0
472.341	1	2
472.511	1	4
472.682	1	3
472.852	1	3
473.023	1	13
473.193	1	12
473.363	1	13
473.534	1	-2
473.704	1	-7
473.875	1	15
474.045	1	3
474.215	1	3
474.386	1	-3
474.556	1	2
474.727	1	4
474.897	1	2
475.067	1	6
475.238	1	11
475.408	1	4
475.578	1	3
475.749	1	8
475.919	1	-4
476.090	1	9
476.260	1	11
476.430	1	12
476.601	1	1
476.771	1	-14
476.942	1	13
477.112	1	3
477.282	1	4
477.453	1	6
477.623	1	4
477.793	1	0
477.964	1	-3
478.134	1	5
478.305	1	12
478.475	1	5
478.645	1	-3
478.816	1	5
478.986	1	-1
479.156	1	-1
479.327	1	-4
479.497	1	12
479.667	1	2
479.838	1	0
480.008	1	0
480.179	1	0
480.349	1	3
480.519	1	2
480.690	1	-3
480.860	1	16
481.030	1	-1
481.201	1	8
481.371	1	4
481.541	1	7
481.712	1	3
481.882	1	1
482.053	1	6
482.223	1	4
482.393	1	6
482.564	1	-1
482.734	1	-3
482.904	1	12
483.075	1	16
483.245	1	7
483.415	1	10
483.586	1	0
483.756	1	1
483.926	1	13
484.097	1	1
484.267	1	10
484.437	1	3
484.608	1	15
484.778	1	12
484.948	1	-1
485.119	1	15
485.289	1	3
485.459	1	-5
485.630	1	-6
485.800	1	17
485.970	1	-3
486.141	1	3
486.311	1	7
486.481	1	-1
486.652	1	2
486.822	1	16
486.992	1	-4
487.163	1	-1
487.333	1	-4
487.503	1	-13
487.674	1	11
487.844	1	1
488.014	1	8
488.185	1	8
488.355	1	18
488.525	1	6
488.696	1	-3
488.866	1	-5
489.036	1	6
489.207	1	-9
489.377	1	0
489.547	1	-1
489.718	1	6
489.888	1	15
490.058	1	0
490.228	1	3
490.399	1	2
490.569	1	4
490.739	1	2
490.910	1	-2
491.080	1	-1
491.250	1	9
491.421	1	8
491.591	1	3
491.761	1	-2
491.932	1	1
492.102	1	10
492.272	1	5
492.442	1	4
492.613	1	-1
492.783	1	-2
492.953	1	4
493.124	1	11
493.294	1	5
493.464	1	1
493.635	1	8
493.805	1	-1
493.975	1	17
494.145	1	-3
494.316	1	9
494.486	1	11
494.656	1	-2
494.827	1	11
494.997	1	3
495.167	1	5
495.337	1	-4
495.508	1	1
495.678	1	1
495.848	1	13
496.019	1	-8
496.189	1	2
496.359	1	5
496.529	1	12
496.700	1	2
496.870	1	2
497.040	1	13
497.211	1	-4
497.381	1	-3
497.551	1	11
497.721	1	9
497.892	1	8
498.062	1	-14
498.232	1	8
498.403	1	-1
498.573	1	11
498.743	1	6
498.913	1	12
499.084	1	8
499.254	1	6
499.424	1	-7
499.594	1	2
499.765	1	4
499.935	1	-1
500.105	1	11
500.275	1	3
500.446	1	0
500.616	1	-6
500.786	1	11
500.956	1	2
501.127	1	9
501.297	1	-2
501.467	1	1
501.638	1	6
501.808	1	0
501.978	1	-1
502.148	1	6
502.319	1	4
502.489	1	7
502.659	1	4
502.829	1	-1
503.000	1	8
503.170	1	5
503.340	1	-3
503.510	1	3
503.681	1	-3
503.851	1	4
504.021	1	2
504.191	1	7
504.362	1	8
504.532	1	2
504.702	1	9
504.872	1	2
505.042	1	8
505.213	1	3
505.383	1	2
505.553	1	2
505.723	1	14
505.894	1	16
506.064	1	8
506.234	1	1
506.404	1	2
506.575	1	-11
506.745	1	5
506.915	1	5
507.085	1	9
507.256	1	9
507.426	1	2
507.596	1	10
507.766	1	9
507.936	1	1
508.107	1	0
508.277	1	5
508.447	1	8
508.617	1	1
508.788	1	0
508.958	1	7
509.128	1	8
509.298	1	-3
509.468	1	-6
509.639	1	2
509.809	1	5
509.979	1	-1
510.149	1	1
510.319	1	13
510.490	1	9
510.660	1	2
510.830	1	13
511.000	1	17
511.171	1	14
511.341	1	3
511.511	1	1
511.681	1	10
511.851	1	8
512.022	1	10
512.192	1	-7
512.362	1	0
512.532	1	-2
512.702	1	9
512.873	1	2
513.043	1	8
513.213	1	12
513.383	1	23
513.553	1	12
513.724	1	-1
513.894	1	4
514.064	1	-6
514.234	1	15
514.404	1	16
514.575	1	1
514.745	1	2
514.915	1	-1
515.085	1	9
515.255	1	12
515.425	1	0
515.596	1	-2
515.766	1	13
515.936	1	11
516.106	1	3
516.276	1	-4
516.447	1	-1
516.617	1	9
516.787	1	6
516.957	1	-1
517.127	1	5
517.297	1	1
517.468	1	10
517.638	1	14
517.808	1	-3
517.978	1	-1
518.148	1	3
518.319	1	0
518.489	1	14
518.659	1	9
518.829	1	5
518.999	1	0
519.169	1	11
519.340	1	-3
519.510	1	4
519.680	1	8
519.850	1	12
520.020	1	11
520.190	1	19
520.361	1	8
520.531	1	7
520.701	1	0
520.871	1	3
521.041	1	21
521.211	1	23
521.382	1	7
521.552	1	9
521.722	1	8
521.892	1	13
522.062	1	10
522.232	1	-1
522.402	1	0
522.573	1	1
522.743	1	9
522.913	1	8
523.083	1	-1
523.253	1	7
523.423	1	15
523.593	1	11
523.764	1	9
523.934	1	3
524.104	1	6
524.274	1	-1
524.444	1	7
524.614	1	6
524.784	1	14
524.955	1	12
525.125	1	11
525.295	1	4
525.465	1	4
525.635	1	3
525.805	1	-3
525.975	1	11
526.146	1	4
526.316	1	-4
526.486	1	8
526.656	1	0
526.826	1	14
526.996	1	8
527.166	1	17
527.337	1	9
527.507	1	0
527.677	1	-6
527.847	1	-2
528.017	1	9
528.187	1	14
528.357	1	6
528.527	1	10
528.698	1	3
528.868	1	7
529.038	1	2
529.208	1	0
529.378	1	9
529.548	1	-7
529.718	1	14
529.888	1	3
530.058	1	4
530.229	1	-2
530.399	1	0
530.569	1	13
530.739	1	5
530.909	1	6
531.079	1	5
531.249	1	8
531.419	1	3
531.589	1	11
531.760	1	9
531.930	1	8
532.100	1	8
532.270	1	7
532.440	1	10
532.610	1	0
532.780	1	10
532.950	1	9
533.120	1	7
533.290	1	15
533.461	1	0
533.631	1	9
533.801	1	16
533.971	1	5
534.141	1	11
534.311	1	3
534.481	1	7
534.651	1	14
534.821	1	7
534.991	1	0
535.162	1	11
535.332	1	8
535.502	1	7
535.672	1	8
535.842	1	20
536.012	1	1
536.182	1	13
536.352	1	7
536.522	1	-7
536.692	1	3
536.862	1	9
537.032	1	10
537.203	1	-9
537.373	1	12
537.543	1	6
537.713	1	19
537.883	1	6
538.053	1	-4
538.223	1	13
538.393	1	17
538.563	1	8
538.733	1	-2
538.903	1	8
539.073	1	7
539.243	1	9
539.413	1	10
539.584	1	5
539.754	1	1
539.924	1	1
540.094	1	3
540.264	1	-1
540.434	1	6
540.604	1	3
540.774	1	16
540.944	1	7
541.114	1	2
541.284	1	9
541.454	1	5
541.624	1	14
541.794	1	5
541.964	1	-6
542.134	1	7
542.305	1	5
542.475	1	11
542.645	1	-4
542.815	1	10
542.985	1	9
543.155	1	9
543.325	1	0
543.495	1	1
543.665	1	4
543.835	1	12
544.005	1	5
544.175	1	-1
544.345	1	0
544.515	1	12
544.685	1	14
544.855	1	3
545.025	1	11
545.195	1	4
545.365	1	10
545.535	1	14
545.705	1	-5
545.875	1	16
546.045	1	4
546.216	1	14
546.386	1	-1
546.556	1	-8
546.726	1	2
546.896	1	9
547.066	1	7
547.236	1	-4
547.406	1	-8
547.576	1	22
547.746	1	-2
547.916	1	3
548.086	1	-3
548.256	1	7
548.426	1	0
548.596	1	8
548.766	1	4
548.936	1	8
549.106	1	1
549.276	1	5
549.446	1	0
549.616	1	2
549.786	1	6
549.956	1	1
550.126	1	11
550.296	1	8
550.466	1	9
550.636	1	4
550.806	1	6
550.976	1	-3
551.146	1	-7
551.316	1	2
551.486	1	0
551.656	1	0
551.826	1	-1
551.996	1	19
552.166	1	16
552.336	1	10
552.506	1	5
552.676	1	8
552.846	1	-7
553.016	1	3
553.186	1	5
553.356	1	7
553.526	1	0
553.696	1	0
553.866	1	-2
554.036	1	1
554.206	1	-4
554.376	1	9
554.546	1	6
554.716	1	10
554.886	1	8
555.056	1	1
555.226	1	8
555.396	1	-2
555.566	1	10
555.736	1	-4
555.906	1	3
556.076	1	3
556.246	1	18
556.416	1	3
556.586	1	11
556.756	1	7
556.926	1	0
557.096	1	2
557.266	1	16
557.436	1	5
557.606	1	0
557.776	1	6
557.946	1	12
558.116	1	-3
558.286	1	19
558.456	1	4
558.626	1	-6
558.796	1	10
558.966	1	-1
559.136	1	7
559.306	1	-1
559.476	1	-6
559.646	1	3
559.816	1	6
559.986	1	4
560.155	1	1
560.325	1	-7
560.495	1	0
560.665	1	8
560.835	1	3
561.005	1	7
561.175	1	5
561.345	1	6
561.515	1	3
561.685	1	10
561.855	1	-3
562.025	1	0
562.195	1	0
562.365	1	3
562.535	1	-2
562.705	1	11
562.875	1	7
563.045	1	3
563.215	1	7
563.385	1	8
563.555	1	13
563.725	1	1
563.895	1	6
564.064	1	13
564.234	1	12
564.404	1	5
564.574	1	12
564.744	1	4
564.914	1	-1
565.084	1	8
565.254	1	5
565.424	1	5
565.594	1	12
565.764	1	8
565.934	1	5
566.104	1	4
566.274	1	5
566.444	1	15
566.614	1	4
566.783	1	8
566.953	1	0
567.123	1	3
567.293	1	3
567.463	1	7
567.633	1	-5
567.803	1	0
567.973	1	5
568.143	1	18
568.313	1	7
568.483	1	3
568.653	1	-4
568.823	1	1
568.993	1	-2
569.162	1	8
569.332	1	6
569.502	1	4
569.672	1	-1
569.842	1	2
570.012	1	1
570.182	1	1
570.352	1	-4
570.522	1	-10
570.692	1	3
570.862	1	15
571.031	1	8
571.201	1	17
571.371	1	4
571.541	1	6
571.711	1	8
571.881	1	-1
572.051	1	6
572.221	1	2
572.391	1	11
572.561	1	11
572.731	1	15
572.900	1	2
573.070	1	-3
573.240	1	2
573.410	1	6
573.580	1	5
573.750	1	2
573.920	1	11
574.090	1	-4
574.260	1	2
574.430	1	10
574.599	1	8
574.769	1	-8
574.939	1	4
575.109	1	12
575.279	1	2
575.449	1	2
575.619	1	7
575.789	1	7
575.959	1	-3
576.128	1	1
576.298	1	8
576.468	1	13
576.638	1	-5
576.808	1	7
576.978	1	-8
577.148	1	6
577.318	1	2
577.487	1	20
577.657	1	16
577.827	1	-1
577.997	1	3
578.167	1	-4
578.337	1	10
578.507	1	-10
578.677	1	11
578.846	1	4
579.016	1	5
579.186	1	5
579.356	1	3
579.526	1	9
579.696	1	-2
579.866	1	0
580.036	1	3
580.205	1	-6
580.375	1	5
580.545	1	-4
580.715	1	12
580.885	1	1
581.055	1	10
581.225	1	-2
581.394	1	-3
581.564	1	-5
581.734	1	4
581.904	1	0
582.074	1	0
582.244	1	-1
582.414	1	1
582.583	1	9
582.753	1	2
582.923	1	9
583.093	1	1
583.263	1	3
583.433	1	5
583.603	1	1
583.772	1	6
583.942	1	3
584.112	1	3
584.282	1	-1
584.452	1	8
584.622	1	-5
584.791	1	5
584.961	1	5
585.131	1	14
585.301	1	8
585.471	1	-6
585.641	1	13
585.811	1	1
585.980	1	8
586.150	1	8
586.320	1	1
586.490	1	4
586.660	1	-7
586.830	1	-7
586.999	1	1
587.169	1	-9
587.339	1	7
587.509	1	6
587.679	1	5
587.849	1	7
588.018	1	-1
588.188	1	12
588.358	1	5
588.528	1	1
588.698	1	8
588.867	1	4
589.037	1	9
589.207	1	3
589.377	1	13
589.547	1	0
589.717	1	7
589.886	1	0
590.056	1	3
590.226	1	11
590.396	1	6
590.566	1	-4
590.735	1	3
590.905	1	14
591.075	1	9
591.245	1	-1
591.415	1	8
591.585	1	8
591.754	1	-10
591.924	1	-5
592.094	1	4
592.264	1	4
592.434	1	13
592.603	1	6
592.773	1	12
592.943	1	4
593.113	1	-4
593.283	1	-7
593.452	1	9
593.622	1	10
593.792	1	-17
593.962	1	10
594.132	1	-3
594.301	1	-6
594.471	1	2
594.641	1	13
594.811	1	7
594.981	1	-3
595.150	1	-8
595.320	1	0
595.490	1	-1
595.660	1	10
595.829	1	7
595.999	1	12
596.169	1	5
596.339	1	0
596.509	1	3
596.678	1	0
596.848	1	2
597.018	1	-3
597.188	1	-2
597.358	1	1
597.527	1	-10
597.697	1	0
597.867	1	8
598.037	1	3
598.206	1	0
598.376	1	-3
598.546	1	1
598.716	1	14
598.885	1	9
599.055	1	8
599.225	1	4
599.395	1	-7
599.565	1	2
599.734	1	-4
599.904	1	-4
600.074	1	7
600.244	1	-6
600.413	1	11
600.583	1	1
600.753	1	1
600.923	1	-4
601.092	1	3
601.262	1	1
601.432	1	-2
601.602	1	-5
601.771	1	7
601.941	1	-9
602.111	1	0
602.281	1	3
602.451	1	2
602.620	1	-3
602.790	1	7
602.960	1	7
603.130	1	5
603.299	1	1
603.469	1	1
603.639	1	-10
603.809	1	-2
603.978	1	3
604.148	1	11
604.318	1	5
604.487	1	14
604.657	1	-10
604.827	1	2
604.997	1	4
605.166	1	7
605.336	1	-1
605.506	1	0
605.676	1	1
605.845	1	-2
606.015	1	4
606.185	1	11
606.355	1	6
606.524	1	1
606.694	1	3
606.864	1	6
607.034	1	6
607.203	1	-2
607.373	1	8
607.543	1	8
607.712	1	8
607.882	1	9
608.052	1	0
608.222	1	-6
608.391	1	10
608.561	1	-3
608.731	1	4
608.901	1	1
609.070	1	6
609.240	1	-10
609.410	1	17
609.579	1	4
609.749	1	4
609.919	1	15
610.089	1	2
610.258	1	1
610.428	1	3
610.598	1	2
610.767	1	3
610.937	1	8
611.107	1	5
611.277	1	6
611.446	1	12
611.616	1	0
611.786	1	-1
611.955	1	4
612.125	1	-2
612.295	1	6
612.465	1	0
612.634	1	4
612.804	1	15
612.974	1	8
613.143	1	4
613.313	1	1
613.483	1	-3
613.652	1	-2
613.822	1	-8
613.992	1	0
614.162	1	-1
614.331	1	-1
614.501	1	17
614.671	1	10
614.840	1	8
615.010	1	4
615.180	1	5
615.349	1	6
615.519	1	-2
615.689	1	11
615.858	1	-10
616.028	1	11
616.198	1	11
616.368	1	14
616.537	1	9
616.707	1	12
616.877	1	5
617.046	1	9
617.216	1	3
617.386	1	-6
617.555	1	-7
617.725	1	7
617.895	1	3
618.064	1	7
618.234	1	4
618.404	1	0
618.573	1	1
618.743	1	6
618.913	1	2
619.082	1	-3
619.252	1	-3
619.422	1	2
619.591	1	8
619.761	1	1
619.931	1	-6
620.100	1	-10
620.270	1	4
620.440	1	3
620.609	1	-7
620.779	1	8
620.949	1	-4
621.118	1	11
621.288	1	-8
621.458	1	1
621.627	1	4
621.797	1	5
621.967	1	6
622.136	1	10
622.306	1	6
622.476	1	9
622.645	1	9
622.815	1	-4
622.985	1	3
623.154	1	-1
623.324	1	-6
623.494	1	0
623.663	1	0
623.833	1	11
624.002	1	9
624.172	1	-2
624.342	1	8
624.511	1	11
624.681	1	0
624.851	1	-2
625.020	1	2
625.190	1	2
625.360	1	4
625.529	1	-3
625.699	1	2
625.869	1	4
626.038	1	14
626.208	1	1
626.377	1	5
626.547	1	-1
626.717	1	8
626.886	1	1
627.056	1	12
627.226	1	-3
627.395	1	-1
627.565	1	0
627.735	1	11
627.904	1	15
628.074	1	-2
628.243	1	10
628.413	1	4
628.583	1	-13
628.752	1	0
628.922	1	0
629.091	1	3
629.261	1	-12
629.431	1	-1
629.600	1	-3
629.770	1	-2
629.940	1	10
630.109	1	12
630.279	1	13
630.448	1	10
630.618	1	-2
630.788	1	-3
630.957	1	-2
631.127	1	1
631.297	1	-2
631.466	1	16
631.636	1	6
631.805	1	10
631.975	1	8
632.145	1	-6
632.314	1	4
632.484	1	-2
632.653	1	1
632.823	1	-2
632.993	1	7
633.162	1	2
633.332	1	-7
633.501	1	10
633.671	1	-1
633.841	1	9
634.010	1	-4
634.180	1	7
634.349	1	7
634.519	1	13
634.689	1	5
634.858	1	5
635.028	1	9
635.197	1	3
635.367	1	2
635.537	1	-7
635.706	1	1
635.876	1	9
636.045	1	12
636.215	1	12
636.384	1	-1
636.554	1	4
636.724	1	12
636.893	1	7
637.063	1	7
637.232	1	-6
637.402	1	-4
637.572	1	-5
637.741	1	12
637.911	1	-2
638.080	1	16
638.250	1	6
638.419	1	4
638.589	1	0
638.759	1	1
638.928	1	-1
639.098	1	-4
639.267	1	5
639.437	1	11
639.606	1	5
639.776	1	11
639.946	1	1
640.115	1	8
640.285	1	4
640.454	1	5
640.624	1	-11
640.793	1	-9
640.963	1	-6
641.132	1	8
641.302	1	11
641.472	1	7
641.641	1	4
641.811	1	4
641.980	1	2
642.150	1	-3
642.319	1	9
642.489	1	-2
642.659	1	-10
642.828	1	5
642.998	1	10
643.167	1	0
643.337	1	2
643.506	1	12
643.676	1	11
643.845	1	-6
644.015	1	13
644.184	1	-5
644.354	1	-4
644.524	1	-6
644.693	1	-2
644.863	1	10
645.032	1	13
645.202	1	11
645.371	1	15
645.541	1	9
645.710	1	11
645.880	1	-2
646.049	1	-14
646.219	1	-4
646.388	1	5
646.558	1	2
646.728	1	9
646.897	1	-3
647.067	1	7
647.236	1	3
647.406	1	7
647.575	1	-4
647.745	1	7
647.914	1	-4
648.084	1	1
648.253	1	2
648.423	1	9
648.592	1	5
648.762	1	-5
648.931	1	-3
649.101	1	-7
649.270	1	-8
649.440	1	5
649.610	1	-2
649.779	1	3
649.949	1	-2
650.118	1	3
650.288	1	10
650.457	1	-1
650.627	1	2
650.796	1	-11
650.966	1	2
651.135	1	10
651.305	1	-7
651.474	1	6
651.644	1	1
651.813	1	4
651.983	1	0
652.152	1	9
652.322	1	-6
652.491	1	7
652.661	1	3
652.830	1	5
653.000	1	1
653.169	1	7
653.339	1	-4
653.508	1	4
653.678	1	-5
653.847	1	9
654.017	1	-8
654.186	1	-9
654.356	1	6
654.525	1	3
654.695	1	-2
654.864	1	-7
655.034	1	2
655.203	1	7
655.373	1	3
655.542	1	-1
655.712	1	1
655.881	1	5
656.051	1	3
656.220	1	4
656.390	1	-3
656.559	1	6
656.729	1	-3
656.898	1	0
657.068	1	-10
657.237	1	6
657.406	1	4
657.576	1	-3
657.745	1	0
657.915	1	10
658.084	1	-2
658.254	1	1
658.423	1	0
658.593	1	9
658.762	1	11
658.932	1	9
659.101	1	2
659.271	1	9
659.440	1	-2
659.610	1	-1
659.779	1	3
659.949	1	-2
660.118	1	-3
660.288	1	1
660.457	1	0
660.626	1	1
660.796	1	4
660.965	1	2
661.135	1	9
661.304	1	4
661.474	1	5
661.643	1	7
661.813	1	-4
661.982	1	-5
662.152	1	7
662.321	1	4
662.491	1	14
662.660	1	-1
662.829	1	5
662.999	1	3
663.168	1	-9
663.338	1	3
663.507	1	1
663.677	1	1
663.846	1	9
664.016	1	10
664.185	1	1
664.354	1	-1
664.524	1	-4
664.693	1	12
664.863	1	-2
665.032	1	7
665.202	1	-8
665.371	1	6
665.541	1	-4
665.710	1	-3
665.879	1	1
666.049	1	0
666.218	1	13
666.388	1	5
666.557	1	10
666.727	1	-13
666.896	1	11
667.065	1	7
667.235	1	3
667.404	1	3
667.574	1	11
667.743	1	-2
667.913	1	8
668.082	1	6
668.251	1	2
668.421	1	-1
668.590	1	6
668.760	1	-5
668.929	1	14
669.099	1	-1
669.268	1	-2
669.437	1	-8
669.607	1	1
669.776	1	-4
669.946	1	13
670.115	1	5
670.285	1	7
670.454	1	1
670.623	1	13
670.793	1	-9
670.962	1	-3
671.132	1	2
671.301	1	-1
671.470	1	14
671.640	1	-2
671.809	1	0
671.979	1	14
672.148	1	9
672.317	1	-3
672.487	1	-8
672.656	1	-4
672.826	1	1
672.995	1	-1
673.164	1	3
673.334	1	-6
673.503	1	-7
673.673	1	8
673.842	1	2
674.011	1	8
674.181	1	4
674.350	1	1
674.520	1	1
674.689	1	6
674.858	1	-5
675.028	1	14
675.197	1	-11
675.367	1	-3
675.536	1	3
675.705	1	15
675.875	1	3
676.044	1	-2
676.214	1	8
676.383	1	2
676.552	1	-3
676.722	1	1
676.891	1	-1
677.060	1	8
677.230	1	7
677.399	1	2
677.569	1	2
677.738	1	-4
677.907	1	0
678.077	1	8
678.246	1	10
678.416	1	5
678.585	1	1
678.754	1	6
678.924	1	9
679.093	1	4
679.262	1	1
679.432	1	5
679.601	1	8
679.771	1	3
679.940	1	-9
680.109	1	-1
680.279	1	6
680.448	1	4
680.617	1	-8
680.787	1	7
680.956	1	2
681.125	1	8
681.295	1	-1
681.464	1	4
681.634	1	9
681.803	1	1
681.972	1	-4
682.142	1	-2
682.311	1	-3
682.480	1	10
682.650	1	-4
682.819	1	2
682.988	1	-2
683.158	1	-7
683.327	1	0
683.496	1	6
683.666	1	-2
683.835	1	1
684.004	1	1
684.174	1	12
684.343	1	-5
684.512	1	11
684.682	1	5
684.851	1	-7
685.021	1	0
685.190	1	4
685.359	1	-1
685.529	1	-6
685.698	1	-6
685.867	1	7
686.037	1	-2
686.206	1	2
686.375	1	5
686.545	1	-6
686.714	1	-2
686.883	1	1
687.053	1	-3
687.222	1	8
687.391	1	1
687.561	1	13
687.730	1	-5
687.899	1	3
688.069	1	9
688.238	1	2
688.407	1	9
688.577	1	-3
688.746	1	9
