340.368	1	1
340.539	1	9
340.710	1	4
340.881	1	7
341.052	1	0
341.223	1	-16
341.394	1	1
341.565	1	-11
341.737	1	7
341.908	1	0
342.079	1	10
342.250	1	8
342.421	1	8
342.592	1	-3
342.763	1	3
342.934	1	2
343.105	1	7
343.276	1	4
343.447	1	5
343.618	1	-4
343.789	1	2
343.960	1	0
344.131	1	10
344.302	1	12
344.473	1	6
344.644	1	12
344.815	1	-10
344.986	1	10
345.157	1	-18
345.328	1	2
345.499	1	1
345.670	1	4
345.841	1	-3
346.012	1	3
346.183	1	6
346.354	1	0
346.526	1	4
346.697	1	2
346.868	1	1
347.039	1	-15
347.210	1	-1
347.381	1	6
347.552	1	-6
347.723	1	10
347.894	1	-4
348.065	1	10
348.236	1	1
348.407	1	1
348.578	1	-7
348.749	1	3
348.920	1	10
349.091	1	0
349.262	1	12
349.433	1	7
349.604	1	7
349.775	1	3
349.946	1	7
350.117	1	7
350.288	1	-5
350.459	1	-2
350.630	1	10
350.801	1	-4
350.972	1	11
351.143	1	-2
351.314	1	4
351.485	1	11
351.656	1	15
351.827	1	8
351.998	1	-4
352.169	1	-5
352.340	1	-1
352.511	1	3
352.682	1	-2
352.853	1	16
353.024	1	3
353.195	1	-4
353.366	1	13
353.537	1	-1
353.708	1	-2
353.879	1	3
354.050	1	1
354.221	1	2
354.392	1	8
354.563	1	-10
354.734	1	9
354.905	1	15
355.076	1	0
355.247	1	-5
355.418	1	6
355.589	1	-4
355.760	1	-1
355.931	1	13
356.102	1	3
356.273	1	10
356.444	1	-13
356.615	1	7
356.785	1	8
356.956	1	10
357.127	1	9
357.298	1	-2
357.469	1	-8
357.640	1	-5
357.811	1	0
357.982	1	7
358.153	1	7
358.324	1	0
358.495	1	4
358.666	1	10
358.837	1	10
359.008	1	10
359.179	1	-6
359.350	1	0
359.521	1	-2
359.692	1	9
359.863	1	-3
360.034	1	6
360.205	1	-5
360.376	1	5
360.547	1	0
360.718	1	6
360.889	1	4
361.060	1	0
361.231	1	-5
361.401	1	3
361.572	1	12
361.743	1	15
361.914	1	0
362.085	1	8
362.256	1	5
362.427	1	14
362.598	1	2
362.769	1	6
362.940	1	-10
363.111	1	22
363.282	1	18
363.453	1	-6
363.624	1	9
363.795	1	1
363.966	1	13
364.137	1	-2
364.308	1	15
364.478	1	3
364.649	1	6
364.820	1	11
364.991	1	7
365.162	1	6
365.333	1	2
365.504	1	14
365.675	1	16
365.846	1	15
366.017	1	9
366.188	1	10
366.359	1	14
366.530	1	4
366.701	1	12
366.871	1	18
367.042	1	11
367.213	1	10
367.384	1	14
367.555	1	19
367.726	1	8
367.897	1	6
368.068	1	14
368.239	1	13
368.410	1	9
368.581	1	17
368.752	1	16
368.923	1	15
369.093	1	18
369.264	1	4
369.435	1	9
369.606	1	14
369.777	1	11
369.948	1	14
370.119	1	12
370.290	1	13
370.461	1	14
370.632	1	5
370.803	1	10
370.973	1	12
371.144	1	7
371.315	1	17
371.486	1	13
371.657	1	8
371.828	1	4
371.999	1	4
372.170	1	10
372.341	1	5
372.512	1	10
372.682	1	5
372.853	1	-1
373.024	1	5
373.195	1	0
373.366	1	6
373.537	1	10
373.708	1	8
373.879	1	12
374.050	1	14
374.220	1	9
374.391	1	7
374.562	1	1
374.733	1	-1
374.904	1	4
375.075	1	17
375.246	1	16
375.417	1	2
375.588	1	6
375.758	1	-3
375.929	1	-3
376.100	1	5
376.271	1	15
376.442	1	10
376.613	1	0
376.784	1	5
376.955	1	4
377.125	1	15
377.296	1	9
377.467	1	9
377.638	1	-2
377.809	1	4
377.980	1	0
378.151	1	12
378.321	1	-1
378.492	1	6
378.663	1	2
378.834	1	1
379.005	1	16
379.176	1	3
379.347	1	6
379.518	1	0
379.688	1	0
379.859	1	11
380.030	1	6
380.201	1	11
380.372	1	14
380.543	1	1
380.714	1	14
380.884	1	1
381.055	1	1
381.226	1	5
381.397	1	7
381.568	1	-2
381.739	1	5
381.910	1	11
382.080	1	-8
382.251	1	4
382.422	1	8
382.593	1	0
382.764	1	1
382.935	1	5
383.105	1	1
383.276	1	-4
383.447	1	9
383.618	1	0
383.789	1	6
383.960	1	-6
384.130	1	13
384.301	1	6
384.472	1	6
384.643	1	3
384.814	1	4
384.985	1	8
385.156	1	0
385.326	1	7
385.497	1	3
385.668	1	4
385.839	1	8
386.010	1	9
386.180	1	10
386.351	1	7
386.522	1	1
386.693	1	10
386.864	1	6
387.035	1	11
387.205	1	3
387.376	1	8
387.547	1	5
387.718	1	-2
387.889	1	-7
388.060	1	7
388.230	1	8
388.401	1	8
388.572	1	14
388.743	1	13
388.914	1	3
389.084	1	0
389.255	1	5
389.426	1	17
389.597	1	-5
389.768	1	-5
389.939	1	7
390.109	1	8
390.280	1	13
390.451	1	6
390.622	1	6
390.793	1	8
390.963	1	6
391.134	1	-9
391.305	1	-1
391.476	1	6
391.647	1	9
391.817	1	18
391.988	1	7
392.159	1	4
392.330	1	9
392.501	1	6
392.671	1	-7
392.842	1	7
393.013	1	4
393.184	1	7
393.355	1	8
393.525	1	1
393.696	1	-4
393.867	1	10
394.038	1	11
394.208	1	-2
394.379	1	4
394.550	1	9
394.721	1	5
394.892	1	0
395.062	1	-5
395.233	1	6
395.404	1	-9
395.575	1	5
395.746	1	7
395.916	1	17
396.087	1	14
396.258	1	-1
396.429	1	7
396.599	1	7
396.770	1	5
396.941	1	2
397.112	1	7
397.283	1	0
397.453	1	5
397.624	1	-3
397.795	1	5
397.966	1	5
398.136	1	3
398.307	1	12
398.478	1	7
398.649	1	3
398.819	1	-11
398.990	1	2
399.161	1	6
399.332	1	8
399.503	1	12
399.673	1	15
399.844	1	-5
400.015	1	9
400.186	1	2
400.356	1	8
400.527	1	1
400.698	1	-2
400.869	1	12
401.039	1	10
401.210	1	-1
401.381	1	11
401.552	1	9
401.722	1	1
401.893	1	-6
402.064	1	-7
402.235	1	-2
402.405	1	5
402.576	1	1
402.747	1	15
402.918	1	5
403.088	1	0
403.259	1	7
403.430	1	8
403.601	1	14
403.771	1	11
403.942	1	-1
404.113	1	3
404.284	1	8
404.454	1	8
404.625	1	15
404.796	1	6
404.967	1	4
405.137	1	15
405.308	1	-4
405.479	1	10
405.649	1	2
405.820	1	12
405.991	1	4
406.162	1	1
406.332	1	10
406.503	1	10
406.674	1	8
406.845	1	7
407.015	1	4
407.186	1	7
407.357	1	9
407.527	1	5
407.698	1	2
407.869	1	2
408.040	1	-6
408.210	1	5
408.381	1	11
408.552	1	-7
408.722	1	4
408.893	1	3
409.064	1	4
409.235	1	2
409.405	1	0
409.576	1	11
409.747	1	-6
409.917	1	2
410.088	1	14
410.259	1	6
410.430	1	10
410.600	1	11
410.771	1	-8
410.942	1	1
411.112	1	22
411.283	1	5
411.454	1	0
411.625	1	-5
411.795	1	4
411.966	1	3
412.137	1	3
412.307	1	2
412.478	1	2
412.649	1	6
412.819	1	6
412.990	1	8
413.161	1	8
413.332	1	-6
413.502	1	13
413.673	1	1
413.844	1	9
414.014	1	9
414.185	1	9
414.356	1	12
414.526	1	8
414.697	1	-4
414.868	1	-2
415.038	1	7
415.209	1	1
415.380	1	15
415.550	1	-1
415.721	1	5
415.892	1	12
416.063	1	2
416.233	1	12
416.404	1	6
416.575	1	6
416.745	1	4
416.916	1	-1
417.087	1	8
417.257	1	6
417.428	1	8
417.599	1	3
417.769	1	7
417.940	1	3
418.111	1	12
418.281	1	4
418.452	1	7
418.623	1	1
418.793	1	-6
418.964	1	1
419.135	1	18
419.305	1	7
419.476	1	1
419.647	1	5
419.817	1	7
419.988	1	14
420.159	1	-2
420.329	1	20
420.500	1	4
420.671	1	4
420.841	1	2
421.012	1	7
421.183	1	6
421.353	1	-2
421.524	1	4
421.695	1	-5
421.865	1	9
422.036	1	1
422.206	1	-1
422.377	1	13
422.548	1	7
422.718	1	2
422.889	1	13
423.060	1	11
423.230	1	3
423.401	1	6
423.572	1	-9
423.742	1	6
423.913	1	4
424.084	1	5
424.254	1	7
424.425	1	8
424.595	1	9
424.766	1	3
424.937	1	5
425.107	1	0
425.278	1	4
425.449	1	5
425.619	1	12
425.790	1	12
425.961	1	5
426.131	1	12
426.302	1	9
426.472	1	4
426.643	1	-2
426.814	1	6
426.984	1	4
427.155	1	6
427.326	1	-1
427.496	1	0
427.667	1	15
427.837	1	1
428.008	1	-2
428.179	1	8
428.349	1	4
428.520	1	14
428.691	1	-2
428.861	1	-4
429.032	1	6
429.202	1	7
429.373	1	15
429.544	1	10
429.714	1	-3
429.885	1	8
430.055	1	-2
430.226	1	10
430.397	1	-4
430.567	1	-1
430.738	1	-1
430.909	1	11
431.079	1	16
431.250	1	14
431.420	1	4
431.591	1	-5
431.762	1	0
431.932	1	-3
432.103	1	-4
432.273	1	6
432.444	1	11
432.615	1	-2
432.785	1	8
432.956	1	-6
433.126	1	-1
433.297	1	8
433.468	1	12
433.638	1	14
433.809	1	5
433.979	1	12
434.150	1	14
434.320	1	8
434.491	1	-3
434.662	1	-2
434.832	1	-2
435.003	1	20
435.173	1	0
435.344	1	10
435.515	1	2
435.685	1	-8
435.856	1	-4
436.026	1	13
436.197	1	5
436.368	1	2
436.538	1	8
436.709	1	2
436.879	1	7
437.050	1	5
437.220	1	-2
437.391	1	18
437.562	1	10
437.732	1	11
437.903	1	1
438.073	1	14
438.244	1	5
438.414	1	-1
438.585	1	13
438.756	1	9
438.926	1	1
439.097	1	-4
439.267	1	-9
439.438	1	10
439.608	1	16
439.779	1	5
439.949	1	7
440.120	1	3
440.291	1	9
440.461	1	17
440.632	1	12
440.802	1	0
440.973	1	12
441.143	1	2
441.314	1	1
441.485	1	1
441.655	1	11
441.826	1	7
441.996	1	11
442.167	1	-3
442.337	1	8
442.508	1	7
442.678	1	-1
442.849	1	7
443.019	1	7
443.190	1	11
443.361	1	4
443.531	1	-2
443.702	1	12
443.872	1	13
444.043	1	-1
444.213	1	4
444.384	1	-5
444.554	1	3
444.725	1	11
444.895	1	-4
445.066	1	-2
445.237	1	-6
445.407	1	4
445.578	1	-6
445.748	1	7
445.919	1	6
446.089	1	18
446.260	1	7
446.430	1	1
446.601	1	5
446.771	1	-4
446.942	1	-9
447.112	1	-1
447.283	1	7
447.453	1	1
447.624	1	4
447.794	1	18
447.965	1	0
448.135	1	23
448.306	1	4
448.477	1	2
448.647	1	15
448.818	1	7
448.988	1	2
449.159	1	2
449.329	1	4
449.500	1	3
449.670	1	1
449.841	1	-10
450.011	1	-3
450.182	1	15
450.352	1	7
450.523	1	7
450.693	1	0
450.864	1	2
451.034	1	-8
451.205	1	4
451.375	1	14
451.546	1	15
451.716	1	-10
451.887	1	-13
452.057	1	16
452.228	1	6
452.398	1	-3
452.569	1	-3
452.739	1	6
452.910	1	4
453.080	1	-2
453.251	1	10
453.421	1	1
453.592	1	7
453.762	1	8
453.933	1	1
454.103	1	-7
454.274	1	3
454.444	1	-1
454.615	1	4
454.785	1	15
454.956	1	-9
455.126	1	-6
455.297	1	16
455.467	1	9
455.638	1	3
455.808	1	-1
455.979	1	9
456.149	1	-2
456.320	1	0
456.490	1	14
456.661	1	2
456.831	1	9
457.001	1	5
457.172	1	5
457.342	1	11
457.513	1	-3
457.683	1	2
457.854	1	1
458.024	1	19
458.195	1	-3
458.365	1	2
458.536	1	3
458.706	1	4
458.877	1	20
459.047	1	-12
459.218	1	1
459.388	1	8
459.559	1	1
459.729	1	5
459.899	1	-1
460.070	1	8
460.240	1	12
460.411	1	4
460.581	1	6
460.752	1	7
460.922	1	3
461.093	1	12
461.263	1	6
461.434	1	7
461.604	1	-14
461.775	1	-8
461.945	1	7
462.115	1	-1
462.286	1	0
462.456	1	10
462.627	1	-7
462.797	1	7
462.968	1	2
463.138	1	1
463.309	1	7
463.479	1	9
463.649	1	-1
463.820	1	-5
463.990	1	1
464.161	1	-4
464.331	1	3
464.502	1	-3
464.672	1	3
464.843	1	8
465.013	1	-1
465.183	1	11
465.354	1	3
465.524	1	5
465.695	1	11
465.865	1	-8
466.036	1	-4
466.206	1	6
466.376	1	1
466.547	1	2
466.717	1	3
466.888	1	10
467.058	1	10
467.229	1	3
467.399	1	1
467.569	1	7
467.740	1	15
467.910	1	-4
468.081	1	7
468.251	1	5
468.422	1	5
468.592	1	4
468.762	1	-7
468.933	1	3
469.103	1	12
469.274	1	11
469.444	1	3
469.614	1	2
469.785	1	2
469.955	1	-5
470.126	1	-5
470.296	1	3
470.467	1	3
470.637	1	7
470.807	1	4
470.978	1	5
471.148	1	0
471.319	1	-3
471.489	1	-5
471.659	1	-12
471.830	1	9
472.000	1	8
472.171	1	-3
472.341	1	-4
472.511	1	3
472.682	1	11
472.852	1	8
473.023	1	8
473.193	1	2
473.363	1	15
473.534	1	12
473.704	1	2
473.875	1	12
474.045	1	3
474.215	1	3
474.386	1	0
474.556	1	6
474.727	1	2
474.897	1	-2
475.067	1	1
475.238	1	14
475.408	1	13
475.578	1	-3
475.749	1	5
475.919	1	-10
476.090	1	1
476.260	1	2
476.430	1	19
476.601	1	0
476.771	1	-17
476.942	1	8
477.112	1	12
477.282	1	7
477.453	1	2
477.623	1	-2
477.793	1	-3
477.964	1	-5
478.134	1	10
478.305	1	16
478.475	1	2
478.645	1	4
478.816	1	8
478.986	1	-12
479.156	1	-3
479.327	1	-11
479.497	1	-4
479.667	1	7
479.838	1	4
480.008	1	-7
480.179	1	-4
480.349	1	8
480.519	1	-2
480.690	1	6
480.860	1	10
481.030	1	8
481.201	1	9
481.371	1	12
481.541	1	5
481.712	1	0
481.882	1	-4
482.053	1	9
482.223	1	-4
482.393	1	5
482.564	1	-8
482.734	1	3
482.904	1	12
483.075	1	6
483.245	1	-6
483.415	1	-8
483.586	1	4
483.756	1	3
483.926	1	0
484.097	1	-5
484.267	1	3
484.437	1	3
484.608	1	16
484.778	1	15
484.948	1	0
485.119	1	8
485.289	1	1
485.459	1	-4
485.630	1	1
485.800	1	10
485.970	1	-7
486.141	1	0
486.311	1	22
486.481	1	-2
486.652	1	1
486.822	1	8
486.992	1	12
487.163	1	0
487.333	1	2
487.503	1	-14
487.674	1	2
487.844	1	-10
488.014	1	8
488.185	1	15
488.355	1	20
488.525	1	1
488.696	1	-3
488.866	1	3
489.036	1	5
489.207	1	-4
489.377	1	-10
489.547	1	-4
489.718	1	10
489.888	1	13
490.058	1	11
490.228	1	2
490.399	1	10
490.569	1	1
490.739	1	0
490.910	1	-3
491.080	1	8
491.250	1	13
491.421	1	8
491.591	1	-7
491.761	1	2
491.932	1	10
492.102	1	7
492.272	1	-5
492.442	1	-4
492.613	1	-2
492.783	1	-3
492.953	1	-5
493.124	1	3
493.294	1	4
493.464	1	4
493.635	1	-3
493.805	1	6
493.975	1	13
494.145	1	-7
494.316	1	8
494.486	1	9
494.656	1	-4
494.827	1	2
494.997	1	-1
495.167	1	8
495.337	1	-2
495.508	1	-4
495.678	1	-1
495.848	1	3
496.019	1	-8
496.189	1	6
496.359	1	7
496.529	1	22
496.700	1	-6
496.870	1	2
497.040	1	12
497.211	1	-9
497.381	1	9
497.551	1	11
497.721	1	1
497.892	1	3
498.062	1	-4
498.232	1	7
498.403	1	-11
498.573	1	1
498.743	1	6
498.913	1	4
499.084	1	14
499.254	1	5
499.424	1	-3
499.594	1	-1
499.765	1	-2
499.935	1	3
500.105	1	7
500.275	1	9
500.446	1	4
500.616	1	5
500.786	1	1
500.956	1	-4
501.127	1	6
501.297	1	1
501.467	1	-1
501.638	1	1
501.808	1	4
501.978	1	2
502.148	1	5
502.319	1	3
502.489	1	7
502.659	1	2
502.829	1	3
503.000	1	9
503.170	1	-13
503.340	1	-3
503.510	1	15
503.681	1	0
503.851	1	2
504.021	1	1
504.191	1	-2
504.362	1	3
504.532	1	3
504.702	1	6
504.872	1	4
505.042	1	9
505.213	1	5
505.383	1	6
505.553	1	3
505.723	1	17
505.894	1	4
506.064	1	9
506.234	1	0
506.404	1	4
506.575	1	-5
506.745	1	5
506.915	1	2
507.085	1	16
507.256	1	13
507.426	1	11
507.596	1	1
507.766	1	7
507.936	1	-6
508.107	1	7
508.277	1	-2
508.447	1	11
508.617	1	0
508.788	1	-8
508.958	1	5
509.128	1	1
509.298	1	-4
509.468	1	0
509.639	1	10
509.809	1	8
509.979	1	-5
510.149	1	6
510.319	1	12
510.490	1	6
510.660	1	-11
510.830	1	16
511.000	1	9
511.171	1	18
511.341	1	-6
511.511	1	0
511.681	1	14
511.851	1	7
512.022	1	10
512.192	1	-7
512.362	1	2
512.532	1	-3
512.702	1	6
512.873	1	6
513.043	1	2
513.213	1	5
513.383	1	10
513.553	1	11
513.724	1	-2
513.894	1	3
514.064	1	2
514.234	1	9
514.404	1	16
514.575	1	1
514.745	1	-1
514.915	1	-5
515.085	1	10
515.255	1	1
515.425	1	0
515.596	1	-5
515.766	1	6
515.936	1	16
516.106	1	-1
516.276	1	1
516.447	1	1
516.617	1	7
516.787	1	4
516.957	1	2
517.127	1	6
517.297	1	4
517.468	1	2
517.638	1	13
517.808	1	-1
517.978	1	2
518.148	1	9
518.319	1	0
518.489	1	-4
518.659	1	-5
518.829	1	10
518.999	1	12
519.169	1	2
519.340	1	7
519.510	1	2
519.680	1	4
519.850	1	15
520.020	1	4
520.190	1	16
520.361	1	-2
520.531	1	14
520.701	1	-2
520.871	1	-2
521.041	1	17
521.211	1	12
521.382	1	5
521.552	1	5
521.722	1	1
521.892	1	6
522.062	1	5
522.232	1	-7
522.402	1	8
522.573	1	-2
522.743	1	8
522.913	1	5
523.083	1	3
523.253	1	4
523.423	1	7
523.593	1	10
523.764	1	3
523.934	1	1
524.104	1	8
524.274	1	2
524.444	1	4
524.614	1	8
524.784	1	9
524.955	1	13
525.125	1	4
525.295	1	3
525.465	1	5
525.635	1	-4
525.805	1	-5
525.975	1	6
526.146	1	-1
526.316	1	5
526.486	1	11
526.656	1	5
526.826	1	7
526.996	1	-2
527.166	1	13
527.337	1	11
527.507	1	11
527.677	1	-5
527.847	1	2
528.017	1	-3
528.187	1	14
528.357	1	4
528.527	1	11
528.698	1	-3
528.868	1	4
529.038	1	-4
529.208	1	7
529.378	1	10
529.548	1	13
529.718	1	6
529.888	1	4
530.058	1	1
530.229	1	6
530.399	1	9
530.569	1	5
530.739	1	5
530.909	1	6
531.079	1	6
531.249	1	10
531.419	1	21
531.589	1	12
531.760	1	-5
531.930	1	5
532.100	1	9
532.270	1	6
532.440	1	2
532.610	1	-5
532.780	1	-1
532.950	1	15
533.120	1	10
533.290	1	15
533.461	1	3
533.631	1	0
533.801	1	14
533.971	1	-3
534.141	1	7
534.311	1	8
534.481	1	2
534.651	1	15
534.821	1	7
534.991	1	7
535.162	1	7
535.332	1	8
535.502	1	10
535.672	1	-2
535.842	1	5
536.012	1	-3
536.182	1	14
536.352	1	0
536.522	1	6
536.692	1	1
536.862	1	7
537.032	1	9
537.203	1	0
537.373	1	0
537.543	1	6
537.713	1	12
537.883	1	5
538.053	1	-11
538.223	1	11
538.393	1	21
538.563	1	9
538.733	1	2
538.903	1	5
539.073	1	6
539.243	1	7
539.413	1	6
539.584	1	0
539.754	1	0
539.924	1	0
540.094	1	8
540.264	1	-2
540.434	1	-6
540.604	1	4
540.774	1	8
540.944	1	9
541.114	1	-11
541.284	1	11
541.454	1	3
541.624	1	18
541.794	1	10
541.964	1	-8
542.134	1	3
542.305	1	4
542.475	1	1
542.645	1	-4
542.815	1	9
542.985	1	7
543.155	1	11
543.325	1	1
543.495	1	-1
543.665	1	10
543.835	1	11
544.005	1	9
544.175	1	1
544.345	1	8
544.515	1	8
544.685	1	11
544.855	1	-2
545.025	1	4
545.195	1	7
545.365	1	7
545.535	1	14
545.705	1	3
545.875	1	9
546.045	1	8
546.216	1	12
546.386	1	-1
546.556	1	-10
546.726	1	0
546.896	1	11
547.066	1	2
547.236	1	0
547.406	1	-10
547.576	1	5
547.746	1	-1
547.916	1	4
548.086	1	-4
548.256	1	0
548.426	1	1
548.596	1	11
548.766	1	6
548.936	1	11
549.106	1	-6
549.276	1	-2
549.446	1	3
549.616	1	7
549.786	1	-3
549.956	1	5
550.126	1	11
550.296	1	1
550.466	1	14
550.636	1	-2
550.806	1	18
550.976	1	-6
551.146	1	-4
551.316	1	-1
551.486	1	4
551.656	1	4
551.826	1	7
551.996	1	3
552.166	1	9
552.336	1	1
552.506	1	6
552.676	1	9
552.846	1	-5
553.016	1	4
553.186	1	-2
553.356	1	11
553.526	1	-1
553.696	1	7
553.866	1	-6
554.036	1	7
554.206	1	9
554.376	1	13
554.546	1	3
554.716	1	2
554.886	1	0
555.056	1	11
555.226	1	9
555.396	1	-6
555.566	1	-1
555.736	1	8
555.906	1	-4
556.076	1	2
556.246	1	2
556.416	1	4
556.586	1	3
556.756	1	6
556.926	1	7
557.096	1	-1
557.266	1	5
557.436	1	-1
557.606	1	6
557.776	1	7
557.946	1	4
558.116	1	-2
558.286	1	-2
558.456	1	1
558.626	1	-8
558.796	1	8
558.966	1	0
559.136	1	4
559.306	1	3
559.476	1	0
559.646	1	8
559.816	1	3
559.986	1	2
560.155	1	-1
560.325	1	-6
560.495	1	4
560.665	1	8
560.835	1	12
561.005	1	10
561.175	1	-1
561.345	1	4
561.515	1	-4
561.685	1	12
561.855	1	-4
562.025	1	-2
562.195	1	12
562.365	1	12
562.535	1	4
562.705	1	9
562.875	1	-1
563.045	1	0
563.215	1	2
563.385	1	11
563.555	1	11
563.725	1	1
563.895	1	5
564.064	1	6
564.234	1	15
564.404	1	3
564.574	1	10
564.744	1	0
564.914	1	-3
565.084	1	0
565.254	1	-1
565.424	1	-1
565.594	1	5
565.764	1	5
565.934	1	-1
566.104	1	2
566.274	1	12
566.444	1	3
566.614	1	7
566.783	1	0
566.953	1	5
567.123	1	-2
567.293	1	6
567.463	1	-2
567.633	1	-6
567.803	1	13
567.973	1	4
568.143	1	8
568.313	1	-3
568.483	1	1
568.653	1	0
568.823	1	-9
568.993	1	-2
569.162	1	0
569.332	1	9
569.502	1	0
569.672	1	7
569.842	1	4
570.012	1	0
570.182	1	-1
570.352	1	-5
570.522	1	-10
570.692	1	7
570.862	1	11
571.031	1	6
571.201	1	5
571.371	1	-4
571.541	1	8
571.711	1	7
571.881	1	0
572.051	1	6
572.221	1	1
572.391	1	7
572.561	1	3
572.731	1	3
572.900	1	9
573.070	1	-10
573.240	1	0
573.410	1	7
573.580	1	4
573.750	1	4
573.920	1	17
574.090	1	-3
574.260	1	5
574.430	1	5
574.599	1	4
574.769	1	-2
574.939	1	7
575.109	1	5
575.279	1	-7
575.449	1	7
575.619	1	4
575.789	1	6
575.959	1	8
576.128	1	1
576.298	1	8
576.468	1	3
576.638	1	3
576.808	1	3
576.978	1	-3
577.148	1	6
577.318	1	3
577.487	1	8
577.657	1	14
577.827	1	-7
577.997	1	5
578.167	1	2
578.337	1	3
578.507	1	-9
578.677	1	7
578.846	1	3
579.016	1	3
579.186	1	4
579.356	1	5
579.526	1	11
579.696	1	-7
579.866	1	0
580.036	1	0
580.205	1	0
580.375	1	-1
580.545	1	-13
580.715	1	10
580.885	1	12
581.055	1	7
581.225	1	-6
581.394	1	3
581.564	1	-2
581.734	1	4
581.904	1	2
582.074	1	7
582.244	1	-5
582.414	1	-2
582.583	1	14
582.753	1	10
582.923	1	-1
583.093	1	-2
583.263	1	3
583.433	1	12
583.603	1	2
583.772	1	7
583.942	1	6
584.112	1	11
584.282	1	-10
584.452	1	10
584.622	1	-7
584.791	1	6
584.961	1	0
585.131	1	8
585.301	1	-1
585.471	1	-3
585.641	1	11
585.811	1	9
585.980	1	4
586.150	1	10
586.320	1	5
586.490	1	11
586.660	1	-12
586.830	1	-9
586.999	1	-10
587.169	1	10
587.339	1	-2
587.509	1	3
587.679	1	7
587.849	1	5
588.018	1	3
588.188	1	3
588.358	1	-6
588.528	1	8
588.698	1	-7
588.867	1	2
589.037	1	2
589.207	1	2
589.377	1	11
589.547	1	-1
589.717	1	1
589.886	1	6
590.056	1	0
590.226	1	10
590.396	1	7
590.566	1	5
590.735	1	12
590.905	1	17
591.075	1	6
591.245	1	-7
591.415	1	11
591.585	1	-4
591.754	1	-2
591.924	1	0
592.094	1	-1
592.264	1	4
592.434	1	8
592.603	1	-1
592.773	1	9
592.943	1	4
593.113	1	1
593.283	1	-8
593.452	1	0
593.622	1	9
593.792	1	-9
593.962	1	12
594.132	1	-5
594.301	1	-8
594.471	1	-3
594.641	1	6
594.811	1	9
594.981	1	-6
595.150	1	-4
595.320	1	2
595.490	1	-7
595.660	1	8
595.829	1	-4
595.999	1	12
596.169	1	4
596.339	1	13
596.509	1	3
596.678	1	2
596.848	1	2
597.018	1	7
597.188	1	-2
597.358	1	-3
597.527	1	-10
597.697	1	-6
597.867	1	5
598.037	1	6
598.206	1	-1
598.376	1	6
598.546	1	1
598.716	1	6
598.885	1	10
599.055	1	0
599.225	1	6
599.395	1	-9
599.565	1	-3
599.734	1	2
599.904	1	-5
600.074	1	11
600.244	1	-1
600.413	1	6
600.583	1	-1
600.753	1	0
600.923	1	4
601.092	1	-3
601.262	1	9
601.432	1	-8
601.602	1	-1
601.771	1	16
601.941	1	-6
602.111	1	-7
602.281	1	3
602.451	1	7
602.620	1	2
602.790	1	1
602.960	1	-5
603.130	1	3
603.299	1	1
603.469	1	7
603.639	1	-6
603.809	1	3
603.978	1	6
604.148	1	3
604.318	1	-5
604.487	1	12
604.657	1	-7
604.827	1	-4
604.997	1	14
605.166	1	10
605.336	1	12
605.506	1	2
605.676	1	1
605.845	1	-4
606.015	1	0
606.185	1	14
606.355	1	10
606.524	1	-1
606.694	1	-4
606.864	1	8
607.034	1	10
607.203	1	4
607.373	1	7
607.543	1	-2
607.712	1	0
607.882	1	7
608.052	1	4
608.222	1	-10
608.391	1	2
608.561	1	-2
608.731	1	0
608.901	1	16
609.070	1	6
609.240	1	-9
609.410	1	4
609.579	1	12
609.749	1	6
609.919	1	9
610.089	1	-1
610.258	1	4
610.428	1	6
610.598	1	1
610.767	1	5
610.937	1	10
611.107	1	6
611.277	1	5
611.446	1	0
611.616	1	-1
611.786	1	-6
611.955	1	-7
612.125	1	11
612.295	1	11
612.465	1	-1
612.634	1	-4
612.804	1	11
612.974	1	2
613.143	1	14
613.313	1	-1
613.483	1	0
613.652	1	-11
613.822	1	6
613.992	1	2
614.162	1	1
614.331	1	4
614.501	1	12
614.671	1	4
614.840	1	-5
615.010	1	-9
615.180	1	-3
615.349	1	3
615.519	1	4
615.689	1	8
615.858	1	-7
616.028	1	10
616.198	1	9
616.368	1	9
616.537	1	4
616.707	1	14
616.877	1	-5
617.046	1	5
617.216	1	2
617.386	1	-3
617.555	1	-2
617.725	1	-1
617.895	1	3
618.064	1	10
618.234	1	3
618.404	1	-1
618.573	1	0
618.743	1	2
618.913	1	7
619.082	1	-1
619.252	1	4
619.422	1	-1
619.591	1	8
619.761	1	12
619.931	1	1
620.100	1	-7
620.270	1	5
620.440	1	6
620.609	1	-4
620.779	1	8
620.949	1	-12
621.118	1	0
621.288	1	-2
621.458	1	1
621.627	1	9
621.797	1	4
621.967	1	-1
622.136	1	8
622.306	1	-5
622.476	1	5
622.645	1	9
622.815	1	-6
622.985	1	6
623.154	1	-3
623.324	1	2
623.494	1	4
623.663	1	8
623.833	1	7
624.002	1	9
624.172	1	-6
624.342	1	5
624.511	1	4
624.681	1	3
624.851	1	-2
625.020	1	-2
625.190	1	0
625.360	1	-3
625.529	1	0
625.699	1	-5
625.869	1	4
626.038	1	3
626.208	1	-5
626.377	1	4
626.547	1	10
626.717	1	18
626.886	1	-7
627.056	1	5
627.226	1	-4
627.395	1	-4
627.565	1	-6
627.735	1	16
627.904	1	-2
628.074	1	16
628.243	1	2
628.413	1	15
628.583	1	-6
628.752	1	-2
628.922	1	-9
629.091	1	-2
629.261	1	-8
629.431	1	2
629.600	1	6
629.770	1	4
629.940	1	18
630.109	1	11
630.279	1	10
630.448	1	-1
630.618	1	-5
630.788	1	-9
630.957	1	0
631.127	1	-7
631.297	1	7
631.466	1	8
631.636	1	13
631.805	1	9
631.975	1	6
632.145	1	-13
632.314	1	-2
632.484	1	-4
632.653	1	-1
632.823	1	2
632.993	1	14
633.162	1	4
633.332	1	-6
633.501	1	17
633.671	1	-8
633.841	1	7
634.010	1	-1
634.180	1	14
634.349	1	1
634.519	1	9
634.689	1	9
634.858	1	1
635.028	1	9
635.197	1	-8
635.367	1	7
635.537	1	0
635.706	1	1
635.876	1	-1
636.045	1	13
636.215	1	6
636.384	1	0
636.554	1	8
636.724	1	14
636.893	1	2
637.063	1	8
637.232	1	1
637.402	1	0
637.572	1	-3
637.741	1	0
637.911	1	0
638.080	1	12
638.250	1	4
638.419	1	5
638.589	1	-2
638.759	1	-2
638.928	1	5
639.098	1	2
639.267	1	-2
639.437	1	9
639.606	1	7
639.776	1	-7
639.946	1	5
640.115	1	8
640.285	1	1
640.454	1	13
640.624	1	0
640.793	1	-4
640.963	1	-4
641.132	1	0
641.302	1	15
641.472	1	-7
641.641	1	3
641.811	1	3
641.980	1	4
642.150	1	-7
642.319	1	9
642.489	1	-10
642.659	1	9
642.828	1	4
642.998	1	9
643.167	1	8
643.337	1	-2
643.506	1	9
643.676	1	-1
643.845	1	1
644.015	1	9
644.184	1	-4
644.354	1	-2
644.524	1	4
644.693	1	1
644.863	1	-3
645.032	1	6
645.202	1	4
645.371	1	11
645.541	1	1
645.710	1	15
645.880	1	8
646.049	1	-4
646.219	1	-2
646.388	1	2
646.558	1	-2
646.728	1	5
646.897	1	-3
647.067	1	3
647.236	1	2
647.406	1	5
647.575	1	-1
647.745	1	1
647.914	1	-9
648.084	1	-4
648.253	1	6
648.423	1	12
648.592	1	-4
648.762	1	1
648.931	1	-4
649.101	1	2
649.270	1	-1
649.440	1	4
649.610	1	0
649.779	1	1
649.949	1	7
650.118	1	9
650.288	1	13
650.457	1	1
650.627	1	3
650.796	1	-13
650.966	1	-2
651.135	1	4
651.305	1	0
651.474	1	-8
651.644	1	8
651.813	1	5
651.983	1	-7
652.152	1	-5
652.322	1	5
652.491	1	8
652.661	1	2
652.830	1	1
653.000	1	-3
653.169	1	-1
653.339	1	2
653.508	1	12
653.678	1	-3
653.847	1	-5
654.017	1	-10
654.186	1	-9
654.356	1	11
654.525	1	-9
654.695	1	3
654.864	1	-4
655.034	1	-5
655.203	1	3
655.373	1	5
655.542	1	-10
655.712	1	-1
655.881	1	6
656.051	1	-1
656.220	1	1
656.390	1	-4
656.559	1	8
656.729	1	10
656.898	1	1
657.068	1	-6
657.237	1	-1
657.406	1	-4
657.576	1	0
657.745	1	-3
657.915	1	2
658.084	1	3
658.254	1	-2
658.423	1	9
658.593	1	4
658.762	1	14
658.932	1	14
659.101	1	4
659.271	1	6
659.440	1	-2
659.610	1	4
659.779	1	8
659.949	1	1
660.118	1	-3
660.288	1	-5
660.457	1	-4
660.626	1	-1
660.796	1	5
660.965	1	3
661.135	1	8
661.304	1	1
661.474	1	4
661.643	1	1
661.813	1	0
661.982	1	2
662.152	1	-2
662.321	1	-2
662.491	1	16
662.660	1	3
662.829	1	14
662.999	1	0
663.168	1	-2
663.338	1	-3
663.507	1	0
663.677	1	6
663.846	1	1
664.016	1	7
664.185	1	-3
664.354	1	4
664.524	1	1
664.693	1	2
664.863	1	2
665.032	1	-1
665.202	1	-4
665.371	1	-1
665.541	1	-6
665.710	1	-5
665.879	1	1
666.049	1	9
666.218	1	6
666.388	1	2
666.557	1	7
666.727	1	-6
666.896	1	1
667.065	1	5
667.235	1	11
667.404	1	2
667.574	1	13
667.743	1	-3
667.913	1	7
668.082	1	1
668.251	1	0
668.421	1	-7
668.590	1	1
668.760	1	-1
668.929	1	4
669.099	1	-5
669.268	1	-1
669.437	1	-2
669.607	1	-4
669.776	1	4
669.946	1	8
670.115	1	10
670.285	1	5
670.454	1	-3
670.623	1	6
670.793	1	-2
670.962	1	1
671.132	1	5
671.301	1	6
671.470	1	13
671.640	1	-6
671.809	1	-2
671.979	1	-2
672.148	1	5
672.317	1	-3
672.487	1	-6
672.656	1	-4
672.826	1	-5
672.995	1	2
673.164	1	5
673.334	1	-2
673.503	1	-10
673.673	1	6
673.842	1	1
674.011	1	-5
674.181	1	6
674.350	1	12
674.520	1	-4
674.689	1	10
674.858	1	-3
675.028	1	17
675.197	1	-4
675.367	1	-2
675.536	1	6
675.705	1	12
675.875	1	1
676.044	1	3
676.214	1	4
676.383	1	5
676.552	1	-1
676.722	1	-1
676.891	1	-5
677.060	1	-2
677.230	1	9
677.399	1	1
677.569	1	2
677.738	1	-1
677.907	1	1
678.077	1	0
678.246	1	6
678.416	1	7
678.585	1	-7
678.754	1	6
678.924	1	-7
679.093	1	-2
679.262	1	5
679.432	1	3
679.601	1	10
679.771	1	7
679.940	1	3
680.109	1	1
680.279	1	4
680.448	1	2
680.617	1	-14
680.787	1	2
680.956	1	-9
681.125	1	12
681.295	1	2
681.464	1	-4
681.634	1	7
681.803	1	6
681.972	1	1
682.142	1	-9
682.311	1	-11
682.480	1	10
682.650	1	3
682.819	1	4
682.988	1	-6
683.158	1	9
683.327	1	-8
683.496	1	-3
683.666	1	1
683.835	1	-5
684.004	1	1
684.174	1	1
684.343	1	0
684.512	1	12
684.682	1	-3
684.851	1	5
685.021	1	10
685.190	1	5
685.359	1	-11
685.529	1	1
685.698	1	-6
685.867	1	-2
686.037	1	-3
686.206	1	7
686.375	1	3
686.545	1	3
686.714	1	-14
686.883	1	-1
687.053	1	5
687.222	1	-5
687.391	1	0
687.561	1	8
687.730	1	-12
687.899	1	2
688.069	1	7
688.238	1	4
688.407	1	-3
688.577	1	5
688.746	1	7
