340.368	1	3
340.539	1	6
340.710	1	8
340.881	1	4
341.052	1	-2
341.223	1	-3
341.394	1	-2
341.565	1	0
341.737	1	4
341.908	1	-2
342.079	1	-4
342.250	1	12
342.421	1	11
342.592	1	3
342.763	1	5
342.934	1	-1
343.105	1	4
343.276	1	0
343.447	1	3
343.618	1	6
343.789	1	5
343.960	1	-12
344.131	1	5
344.302	1	4
344.473	1	-3
344.644	1	0
344.815	1	-6
344.986	1	8
345.157	1	-8
345.328	1	8
345.499	1	-5
345.670	1	8
345.841	1	0
346.012	1	-3
346.183	1	19
346.354	1	-8
346.526	1	1
346.697	1	2
346.868	1	-2
347.039	1	-3
347.210	1	2
347.381	1	11
347.552	1	2
347.723	1	-3
347.894	1	0
348.065	1	3
348.236	1	-1
348.407	1	3
348.578	1	-4
348.749	1	3
348.920	1	-8
349.091	1	-2
349.262	1	9
349.433	1	3
349.604	1	8
349.775	1	2
349.946	1	6
350.117	1	6
350.288	1	-10
350.459	1	-6
350.630	1	-2
350.801	1	6
350.972	1	15
351.143	1	-6
351.314	1	1
351.485	1	10
351.656	1	7
351.827	1	5
351.998	1	-2
352.169	1	0
352.340	1	7
352.511	1	3
352.682	1	2
352.853	1	10
353.024	1	3
353.195	1	-5
353.366	1	6
353.537	1	-3
353.708	1	2
353.879	1	4
354.050	1	7
354.221	1	10
354.392	1	1
354.563	1	7
354.734	1	1
354.905	1	8
355.076	1	5
355.247	1	3
355.418	1	10
355.589	1	-1
355.760	1	6
355.931	1	-1
356.102	1	2
356.273	1	5
356.444	1	-9
356.615	1	-2
356.785	1	7
356.956	1	11
357.127	1	6
357.298	1	4
357.469	1	-5
357.640	1	9
357.811	1	-5
357.982	1	3
358.153	1	1
358.324	1	8
358.495	1	5
358.666	1	8
358.837	1	7
359.008	1	1
359.179	1	7
359.350	1	0
359.521	1	1
359.692	1	1
359.863	1	5
360.034	1	5
360.205	1	-5
360.376	1	14
360.547	1	-3
360.718	1	1
360.889	1	5
361.060	1	5
361.231	1	2
361.401	1	-8
361.572	1	12
361.743	1	12
361.914	1	10
362.085	1	15
362.256	1	5
362.427	1	7
362.598	1	7
362.769	1	13
362.940	1	10
363.111	1	15
363.282	1	11
363.453	1	-1
363.624	1	7
363.795	1	11
363.966	1	17
364.137	1	-3
364.308	1	12
364.478	1	13
364.649	1	10
364.820	1	8
364.991	1	5
365.162	1	6
365.333	1	3
365.504	1	7
365.675	1	13
365.846	1	13
366.017	1	11
366.188	1	10
366.359	1	13
366.530	1	7
366.701	1	11
366.871	1	28
367.042	1	14
367.213	1	16
367.384	1	17
367.555	1	11
367.726	1	11
367.897	1	9
368.068	1	7
368.239	1	15
368.410	1	5
368.581	1	21
368.752	1	16
368.923	1	16
369.093	1	15
369.264	1	2
369.435	1	8
369.606	1	20
369.777	1	11
369.948	1	19
370.119	1	22
370.290	1	15
370.461	1	9
370.632	1	4
370.803	1	6
370.973	1	15
371.144	1	9
371.315	1	19
371.486	1	4
371.657	1	-2
371.828	1	10
371.999	1	3
372.170	1	6
372.341	1	13
372.512	1	10
372.682	1	6
372.853	1	1
373.024	1	8
373.195	1	3
373.366	1	8
373.537	1	17
373.708	1	14
373.879	1	13
374.050	1	12
374.220	1	7
374.391	1	6
374.562	1	-10
374.733	1	-3
374.904	1	4
375.075	1	20
375.246	1	4
375.417	1	-1
375.588	1	12
375.758	1	0
375.929	1	-1
376.100	1	-1
376.271	1	3
376.442	1	0
376.613	1	-5
376.784	1	4
376.955	1	9
377.125	1	9
377.296	1	1
377.467	1	18
377.638	1	-6
377.809	1	-4
377.980	1	8
378.151	1	6
378.321	1	9
378.492	1	15
378.663	1	15
378.834	1	2
379.005	1	17
379.176	1	6
379.347	1	2
379.518	1	10
379.688	1	0
379.859	1	1
380.030	1	4
380.201	1	14
380.372	1	7
380.543	1	4
380.714	1	21
380.884	1	7
381.055	1	8
381.226	1	3
381.397	1	8
381.568	1	1
381.739	1	14
381.910	1	13
382.080	1	-6
382.251	1	4
382.422	1	11
382.593	1	8
382.764	1	5
382.935	1	8
383.105	1	1
383.276	1	-2
383.447	1	2
383.618	1	10
383.789	1	10
383.960	1	-1
384.130	1	6
384.301	1	-1
384.472	1	11
384.643	1	14
384.814	1	10
384.985	1	2
385.156	1	6
385.326	1	12
385.497	1	3
385.668	1	2
385.839	1	10
386.010	1	0
386.180	1	4
386.351	1	6
386.522	1	-3
386.693	1	7
386.864	1	10
387.035	1	14
387.205	1	3
387.376	1	4
387.547	1	11
387.718	1	1
387.889	1	-1
388.060	1	0
388.230	1	-7
388.401	1	11
388.572	1	15
388.743	1	11
388.914	1	8
389.084	1	10
389.255	1	-4
389.426	1	8
389.597	1	-1
389.768	1	-2
389.939	1	10
390.109	1	10
390.280	1	10
390.451	1	13
390.622	1	-3
390.793	1	13
390.963	1	7
391.134	1	5
391.305	1	9
391.476	1	9
391.647	1	11
391.817	1	10
391.988	1	6
392.159	1	5
392.330	1	-3
392.501	1	2
392.671	1	-2
392.842	1	4
393.013	1	4
393.184	1	8
393.355	1	-2
393.525	1	10
393.696	1	0
393.867	1	12
394.038	1	14
394.208	1	-3
394.379	1	1
394.550	1	2
394.721	1	6
394.892	1	10
395.062	1	-1
395.233	1	3
395.404	1	-8
395.575	1	10
395.746	1	15
395.916	1	6
396.087	1	10
396.258	1	2
396.429	1	4
396.599	1	14
396.770	1	17
396.941	1	8
397.112	1	3
397.283	1	4
397.453	1	15
397.624	1	4
397.795	1	-12
397.966	1	3
398.136	1	7
398.307	1	11
398.478	1	7
398.649	1	-8
398.819	1	-9
398.990	1	11
399.161	1	8
399.332	1	2
399.503	1	12
399.673	1	2
399.844	1	-4
400.015	1	11
400.186	1	1
400.356	1	8
400.527	1	17
400.698	1	-7
400.869	1	0
401.039	1	6
401.210	1	3
401.381	1	8
401.552	1	5
401.722	1	-2
401.893	1	-3
402.064	1	-4
402.235	1	11
402.405	1	14
402.576	1	-1
402.747	1	1
402.918	1	4
403.088	1	3
403.259	1	0
403.430	1	10
403.601	1	9
403.771	1	2
403.942	1	0
404.113	1	7
404.284	1	2
404.454	1	6
404.625	1	5
404.796	1	4
404.967	1	1
405.137	1	10
405.308	1	0
405.479	1	-1
405.649	1	3
405.820	1	5
405.991	1	7
406.162	1	7
406.332	1	8
406.503	1	3
406.674	1	6
406.845	1	-3
407.015	1	7
407.186	1	8
407.357	1	3
407.527	1	2
407.698	1	5
407.869	1	6
408.040	1	14
408.210	1	5
408.381	1	9
408.552	1	0
408.722	1	10
408.893	1	8
409.064	1	6
409.235	1	-2
409.405	1	15
409.576	1	1
409.747	1	-1
409.917	1	1
410.088	1	14
410.259	1	10
410.430	1	15
410.600	1	6
410.771	1	-4
410.942	1	0
411.112	1	6
411.283	1	1
411.454	1	7
411.625	1	0
411.795	1	8
411.966	1	-1
412.137	1	-3
412.307	1	0
412.478	1	4
412.649	1	14
412.819	1	4
412.990	1	4
413.161	1	6
413.332	1	1
413.502	1	15
413.673	1	7
413.844	1	6
414.014	1	8
414.185	1	9
414.356	1	9
414.526	1	4
414.697	1	1
414.868	1	1
415.038	1	3
415.209	1	1
415.380	1	2
415.550	1	-2
415.721	1	5
415.892	1	6
416.063	1	5
416.233	1	8
416.404	1	9
416.575	1	-1
416.745	1	1
416.916	1	6
417.087	1	1
417.257	1	12
417.428	1	4
417.599	1	2
417.769	1	13
417.940	1	15
418.111	1	12
418.281	1	-5
418.452	1	1
418.623	1	5
418.793	1	-7
418.964	1	-9
419.135	1	12
419.305	1	7
419.476	1	9
419.647	1	2
419.817	1	6
419.988	1	14
420.159	1	0
420.329	1	12
420.500	1	3
420.671	1	5
420.841	1	10
421.012	1	3
421.183	1	4
421.353	1	-7
421.524	1	6
421.695	1	8
421.865	1	12
422.036	1	3
422.206	1	5
422.377	1	9
422.548	1	10
422.718	1	-2
422.889	1	2
423.060	1	5
423.230	1	5
423.401	1	14
423.572	1	-2
423.742	1	13
423.913	1	3
424.084	1	7
424.254	1	16
424.425	1	9
424.595	1	8
424.766	1	-7
424.937	1	2
425.107	1	-2
425.278	1	3
425.449	1	9
425.619	1	3
425.790	1	14
425.961	1	-1
426.131	1	11
426.302	1	8
426.472	1	1
426.643	1	10
426.814	1	4
426.984	1	6
427.155	1	5
427.326	1	6
427.496	1	7
427.667	1	9
427.837	1	4
428.008	1	-6
428.179	1	7
428.349	1	5
428.520	1	4
428.691	1	9
428.861	1	0
429.032	1	1
429.202	1	-1
429.373	1	13
429.544	1	16
429.714	1	-7
429.885	1	-2
430.055	1	-3
430.226	1	3
430.397	1	-3
430.567	1	4
430.738	1	-2
430.909	1	4
431.079	1	13
431.250	1	10
431.420	1	5
431.591	1	9
431.762	1	-1
431.932	1	-1
432.103	1	-3
432.273	1	7
432.444	1	7
432.615	1	13
432.785	1	9
432.956	1	-5
433.126	1	8
433.297	1	10
433.468	1	0
433.638	1	10
433.809	1	13
433.979	1	13
434.150	1	2
434.320	1	2
434.491	1	9
434.662	1	10
434.832	1	-6
435.003	1	12
435.173	1	2
435.344	1	15
435.515	1	15
435.685	1	-8
435.856	1	0
436.026	1	1
436.197	1	10
436.368	1	3
436.538	1	14
436.709	1	2
436.879	1	4
437.050	1	3
437.220	1	-4
437.391	1	14
437.562	1	10
437.732	1	4
437.903	1	-4
438.073	1	11
438.244	1	9
438.414	1	-5
438.585	1	4
438.756	1	6
438.926	1	2
439.097	1	8
439.267	1	-7
439.438	1	8
439.608	1	6
439.779	1	7
439.949	1	10
440.120	1	9
440.291	1	12
440.461	1	11
440.632	1	1
440.802	1	-1
440.973	1	8
441.143	1	1
441.314	1	3
441.485	1	11
441.655	1	18
441.826	1	-1
441.996	1	-1
442.167	1	8
442.337	1	7
442.508	1	4
442.678	1	-8
442.849	1	7
443.019	1	6
443.190	1	0
443.361	1	3
443.531	1	7
443.702	1	7
443.872	1	4
444.043	1	1
444.213	1	2
444.384	1	-10
444.554	1	0
444.725	1	14
444.895	1	3
445.066	1	7
445.237	1	2
445.407	1	-4
445.578	1	-2
445.748	1	16
445.919	1	10
446.089	1	4
446.260	1	2
446.430	1	1
446.601	1	4
446.771	1	8
446.942	1	0
447.112	1	11
447.283	1	12
447.453	1	7
447.624	1	3
447.794	1	10
447.965	1	1
448.135	1	13
448.306	1	5
448.477	1	3
448.647	1	10
448.818	1	-7
448.988	1	3
449.159	1	6
449.329	1	0
449.500	1	2
449.670	1	-4
449.841	1	-9
450.011	1	-4
450.182	1	9
450.352	1	12
450.523	1	7
450.693	1	4
450.864	1	1
451.034	1	-2
451.205	1	4
451.375	1	3
451.546	1	19
451.716	1	1
451.887	1	-2
452.057	1	16
452.228	1	11
452.398	1	-3
452.569	1	2
452.739	1	4
452.910	1	7
453.080	1	9
453.251	1	10
453.421	1	3
453.592	1	8
453.762	1	-4
453.933	1	2
454.103	1	6
454.274	1	-10
454.444	1	3
454.615	1	4
454.785	1	12
454.956	1	-4
455.126	1	-9
455.297	1	11
455.467	1	-1
455.638	1	10
455.808	1	5
455.979	1	9
456.149	1	5
456.320	1	-2
456.490	1	9
456.661	1	6
456.831	1	2
457.001	1	-6
457.172	1	6
457.342	1	7
457.513	1	2
457.683	1	1
457.854	1	-4
458.024	1	19
458.195	1	-1
458.365	1	12
458.536	1	-7
458.706	1	2
458.877	1	23
459.047	1	-8
459.218	1	6
459.388	1	-2
459.559	1	8
459.729	1	3
459.899	1	4
460.070	1	2
460.240	1	21
460.411	1	5
460.581	1	0
460.752	1	3
460.922	1	2
461.093	1	7
461.263	1	9
461.434	1	-6
461.604	1	-10
461.775	1	7
461.945	1	9
462.115	1	2
462.286	1	3
462.456	1	7
462.627	1	-1
462.797	1	4
462.968	1	1
463.138	1	1
463.309	1	-3
463.479	1	7
463.649	1	-1
463.820	1	-4
463.990	1	-2
464.161	1	-8
464.331	1	2
464.502	1	3
464.672	1	6
464.843	1	6
465.013	1	-4
465.183	1	17
465.354	1	7
465.524	1	-5
465.695	1	2
465.865	1	-6
466.036	1	8
466.206	1	2
466.376	1	-1
466.547	1	-5
466.717	1	10
466.888	1	0
467.058	1	0
467.229	1	2
467.399	1	1
467.569	1	1
467.740	1	13
467.910	1	-3
468.081	1	11
468.251	1	-2
468.422	1	8
468.592	1	7
468.762	1	3
468.933	1	4
469.103	1	2
469.274	1	8
469.444	1	2
469.614	1	3
469.785	1	9
469.955	1	4
470.126	1	-10
470.296	1	0
470.467	1	0
470.637	1	4
470.807	1	2
470.978	1	-1
471.148	1	2
471.319	1	0
471.489	1	-10
471.659	1	-4
471.830	1	0
472.000	1	3
472.171	1	-1
472.341	1	0
472.511	1	6
472.682	1	10
472.852	1	-3
473.023	1	-2
473.193	1	9
473.363	1	14
473.534	1	2
473.704	1	-2
473.875	1	13
474.045	1	-6
474.215	1	-1
474.386	1	4
474.556	1	9
474.727	1	5
474.897	1	-4
475.067	1	-3
475.238	1	15
475.408	1	-2
475.578	1	8
475.749	1	-3
475.919	1	7
476.090	1	2
476.260	1	3
476.430	1	16
476.601	1	5
476.771	1	-13
476.942	1	7
477.112	1	4
477.282	1	-1
477.453	1	2
477.623	1	-6
477.793	1	7
477.964	1	2
478.134	1	16
478.305	1	9
478.475	1	-1
478.645	1	1
478.816	1	1
478.986	1	-1
479.156	1	-5
479.327	1	-4
479.497	1	4
479.667	1	7
479.838	1	2
480.008	1	-2
480.179	1	5
480.349	1	-7
480.519	1	-1
480.690	1	0
480.860	1	1
481.030	1	2
481.201	1	8
481.371	1	6
481.541	1	-3
481.712	1	9
481.882	1	0
482.053	1	7
482.223	1	-1
482.393	1	3
482.564	1	-2
482.734	1	0
482.904	1	12
483.075	1	11
483.245	1	2
483.415	1	-6
483.586	1	7
483.756	1	1
483.926	1	3
484.097	1	-2
484.267	1	5
484.437	1	-5
484.608	1	12
484.778	1	9
484.948	1	-1
485.119	1	-1
485.289	1	-2
485.459	1	-6
485.630	1	-5
485.800	1	4
485.970	1	4
486.141	1	0
486.311	1	19
486.481	1	-1
486.652	1	9
486.822	1	6
486.992	1	1
487.163	1	-2
487.333	1	-10
487.503	1	-3
487.674	1	2
487.844	1	-10
488.014	1	10
488.185	1	7
488.355	1	15
488.525	1	9
488.696	1	-7
488.866	1	3
489.036	1	7
489.207	1	5
489.377	1	-3
489.547	1	-1
489.718	1	8
489.888	1	4
490.058	1	6
490.228	1	0
490.399	1	6
490.569	1	-5
490.739	1	10
490.910	1	2
491.080	1	0
491.250	1	10
491.421	1	7
491.591	1	-2
491.761	1	1
491.932	1	4
492.102	1	11
492.272	1	1
492.442	1	2
492.613	1	0
492.783	1	-7
492.953	1	3
493.124	1	6
493.294	1	10
493.464	1	-2
493.635	1	7
493.805	1	3
493.975	1	7
494.145	1	8
494.316	1	1
494.486	1	8
494.656	1	-2
494.827	1	11
494.997	1	3
495.167	1	4
495.337	1	1
495.508	1	2
495.678	1	-2
495.848	1	7
496.019	1	3
496.189	1	13
496.359	1	13
496.529	1	12
496.700	1	-2
496.870	1	-4
497.040	1	14
497.211	1	-5
497.381	1	-1
497.551	1	10
497.721	1	3
497.892	1	5
498.062	1	1
498.232	1	7
498.403	1	-6
498.573	1	6
498.743	1	19
498.913	1	14
499.084	1	9
499.254	1	9
499.424	1	-8
499.594	1	4
499.765	1	-4
499.935	1	-3
500.105	1	-2
500.275	1	10
500.446	1	1
500.616	1	10
500.786	1	9
500.956	1	11
501.127	1	13
501.297	1	-4
501.467	1	8
501.638	1	-2
501.808	1	4
501.978	1	0
502.148	1	3
502.319	1	-2
502.489	1	1
502.659	1	7
502.829	1	7
503.000	1	9
503.170	1	-8
503.340	1	1
503.510	1	8
503.681	1	5
503.851	1	8
504.021	1	4
504.191	1	0
504.362	1	12
504.532	1	10
504.702	1	15
504.872	1	7
505.042	1	4
505.213	1	2
505.383	1	6
505.553	1	5
505.723	1	18
505.894	1	4
506.064	1	7
506.234	1	0
506.404	1	-3
506.575	1	10
506.745	1	3
506.915	1	2
507.085	1	2
507.256	1	12
507.426	1	7
507.596	1	3
507.766	1	4
507.936	1	-6
508.107	1	9
508.277	1	-3
508.447	1	8
508.617	1	-1
508.788	1	2
508.958	1	14
509.128	1	10
509.298	1	-4
509.468	1	-3
509.639	1	5
509.809	1	-3
509.979	1	4
510.149	1	6
510.319	1	14
510.490	1	0
510.660	1	1
510.830	1	10
511.000	1	-5
511.171	1	6
511.341	1	-1
511.511	1	-4
511.681	1	4
511.851	1	8
512.022	1	5
512.192	1	-10
512.362	1	-3
512.532	1	0
512.702	1	13
512.873	1	3
513.043	1	3
513.213	1	8
513.383	1	9
513.553	1	4
513.724	1	-4
513.894	1	-8
514.064	1	0
514.234	1	11
514.404	1	19
514.575	1	1
514.745	1	-3
514.915	1	5
515.085	1	6
515.255	1	5
515.425	1	13
515.596	1	-2
515.766	1	11
515.936	1	15
516.106	1	2
516.276	1	16
516.447	1	4
516.617	1	13
516.787	1	1
516.957	1	-1
517.127	1	7
517.297	1	0
517.468	1	9
517.638	1	-5
517.808	1	-13
517.978	1	-1
518.148	1	3
518.319	1	-3
518.489	1	5
518.659	1	1
518.829	1	16
518.999	1	3
519.169	1	10
519.340	1	-4
519.510	1	5
519.680	1	10
519.850	1	15
520.020	1	7
520.190	1	14
520.361	1	-5
520.531	1	13
520.701	1	-4
520.871	1	-4
521.041	1	11
521.211	1	7
521.382	1	5
521.552	1	7
521.722	1	4
521.892	1	7
522.062	1	5
522.232	1	-2
522.402	1	-1
522.573	1	10
522.743	1	6
522.913	1	11
523.083	1	5
523.253	1	11
523.423	1	11
523.593	1	6
523.764	1	8
523.934	1	4
524.104	1	-1
524.274	1	-7
524.444	1	8
524.614	1	3
524.784	1	15
524.955	1	8
525.125	1	6
525.295	1	12
525.465	1	7
525.635	1	-4
525.805	1	0
525.975	1	14
526.146	1	-3
526.316	1	0
526.486	1	0
526.656	1	-4
526.826	1	15
526.996	1	6
527.166	1	19
527.337	1	11
527.507	1	13
527.677	1	-4
527.847	1	6
528.017	1	1
528.187	1	12
528.357	1	11
528.527	1	13
528.698	1	0
528.868	1	-1
529.038	1	-2
529.208	1	5
529.378	1	9
529.548	1	0
529.718	1	7
529.888	1	5
530.058	1	3
530.229	1	9
530.399	1	4
530.569	1	3
530.739	1	0
530.909	1	10
531.079	1	-5
531.249	1	17
531.419	1	3
531.589	1	1
531.760	1	-3
531.930	1	2
532.100	1	11
532.270	1	-5
532.440	1	5
532.610	1	5
532.780	1	4
532.950	1	9
533.120	1	14
533.290	1	10
533.461	1	8
533.631	1	1
533.801	1	16
533.971	1	-3
534.141	1	-3
534.311	1	11
534.481	1	9
534.651	1	10
534.821	1	7
534.991	1	-1
535.162	1	14
535.332	1	16
535.502	1	1
535.672	1	8
535.842	1	8
536.012	1	2
536.182	1	6
536.352	1	-2
536.522	1	-2
536.692	1	6
536.862	1	5
537.032	1	3
537.203	1	-4
537.373	1	1
537.543	1	6
537.713	1	0
537.883	1	1
538.053	1	-6
538.223	1	15
538.393	1	16
538.563	1	11
538.733	1	7
538.903	1	15
539.073	1	0
539.243	1	-1
539.413	1	13
539.584	1	2
539.754	1	9
539.924	1	2
540.094	1	8
540.264	1	2
540.434	1	10
540.604	1	6
540.774	1	0
540.944	1	0
541.114	1	-9
541.284	1	9
541.454	1	-1
541.624	1	11
541.794	1	5
541.964	1	6
542.134	1	1
542.305	1	0
542.475	1	-2
542.645	1	0
542.815	1	9
542.985	1	3
543.155	1	11
543.325	1	10
543.495	1	-1
543.665	1	8
543.835	1	3
544.005	1	18
544.175	1	5
544.345	1	7
544.515	1	8
544.685	1	8
544.855	1	11
545.025	1	4
545.195	1	9
545.365	1	8
545.535	1	14
545.705	1	2
545.875	1	5
546.045	1	5
546.216	1	16
546.386	1	0
546.556	1	-4
546.726	1	-3
546.896	1	4
547.066	1	10
547.236	1	-4
547.406	1	-6
547.576	1	3
547.746	1	1
547.916	1	2
548.086	1	5
548.256	1	-8
548.426	1	14
548.596	1	5
548.766	1	-1
548.936	1	8
549.106	1	2
549.276	1	3
549.446	1	3
549.616	1	2
549.786	1	10
549.956	1	4
550.126	1	10
550.296	1	1
550.466	1	15
550.636	1	-1
550.806	1	3
550.976	1	-2
551.146	1	-3
551.316	1	-8
551.486	1	8
551.656	1	2
551.826	1	-5
551.996	1	2
552.166	1	10
552.336	1	15
552.506	1	5
552.676	1	9
552.846	1	-7
553.016	1	3
553.186	1	3
553.356	1	3
553.526	1	9
553.696	1	4
553.866	1	-8
554.036	1	4
554.206	1	-5
554.376	1	12
554.546	1	-2
554.716	1	-5
554.886	1	7
555.056	1	12
555.226	1	6
555.396	1	-7
555.566	1	3
555.736	1	7
555.906	1	0
556.076	1	-2
556.246	1	2
556.416	1	10
556.586	1	4
556.756	1	4
556.926	1	-2
557.096	1	5
557.266	1	2
557.436	1	6
557.606	1	1
557.776	1	-3
557.946	1	6
558.116	1	2
558.286	1	11
558.456	1	10
558.626	1	-4
558.796	1	10
558.966	1	-6
559.136	1	-4
559.306	1	13
559.476	1	10
559.646	1	6
559.816	1	7
559.986	1	2
560.155	1	-1
560.325	1	-6
560.495	1	2
560.665	1	10
560.835	1	-1
561.005	1	1
561.175	1	12
561.345	1	14
561.515	1	-2
561.685	1	5
561.855	1	-2
562.025	1	2
562.195	1	4
562.365	1	8
562.535	1	7
562.705	1	5
562.875	1	2
563.045	1	1
563.215	1	0
563.385	1	11
563.555	1	7
563.725	1	5
563.895	1	-1
564.064	1	10
564.234	1	10
564.404	1	8
564.574	1	7
564.744	1	-2
564.914	1	3
565.084	1	5
565.254	1	-1
565.424	1	-8
565.594	1	8
565.764	1	15
565.934	1	4
566.104	1	4
566.274	1	5
566.444	1	9
566.614	1	7
566.783	1	8
566.953	1	0
567.123	1	-1
567.293	1	0
567.463	1	3
567.633	1	-6
567.803	1	7
567.973	1	0
568.143	1	8
568.313	1	0
568.483	1	2
568.653	1	0
568.823	1	-3
568.993	1	-6
569.162	1	9
569.332	1	9
569.502	1	9
569.672	1	-4
569.842	1	2
570.012	1	9
570.182	1	0
570.352	1	6
570.522	1	-11
570.692	1	7
570.862	1	12
571.031	1	5
571.201	1	3
571.371	1	2
571.541	1	-7
571.711	1	4
571.881	1	3
572.051	1	2
572.221	1	5
572.391	1	9
572.561	1	0
572.731	1	5
572.900	1	6
573.070	1	-3
573.240	1	11
573.410	1	-1
573.580	1	1
573.750	1	0
573.920	1	10
574.090	1	-5
574.260	1	7
574.430	1	7
574.599	1	5
574.769	1	-10
574.939	1	4
575.109	1	12
575.279	1	-10
575.449	1	7
575.619	1	8
575.789	1	10
575.959	1	4
576.128	1	-4
576.298	1	2
576.468	1	8
576.638	1	1
576.808	1	6
576.978	1	-1
577.148	1	0
577.318	1	9
577.487	1	5
577.657	1	14
577.827	1	-12
577.997	1	10
578.167	1	3
578.337	1	-5
578.507	1	-8
578.677	1	15
578.846	1	1
579.016	1	-3
579.186	1	-4
579.356	1	12
579.526	1	4
579.696	1	-12
579.866	1	11
580.036	1	-2
580.205	1	-1
580.375	1	-2
580.545	1	2
580.715	1	6
580.885	1	1
581.055	1	-2
581.225	1	-11
581.394	1	4
581.564	1	-4
581.734	1	7
581.904	1	0
582.074	1	6
582.244	1	-7
582.414	1	-1
582.583	1	11
582.753	1	5
582.923	1	4
583.093	1	13
583.263	1	8
583.433	1	9
583.603	1	6
583.772	1	3
583.942	1	0
584.112	1	4
584.282	1	-11
584.452	1	8
584.622	1	-7
584.791	1	-3
584.961	1	4
585.131	1	9
585.301	1	13
585.471	1	-1
585.641	1	5
585.811	1	-1
585.980	1	1
586.150	1	11
586.320	1	5
586.490	1	2
586.660	1	-10
586.830	1	-2
586.999	1	-6
587.169	1	8
587.339	1	-2
587.509	1	5
587.679	1	12
587.849	1	1
588.018	1	8
588.188	1	7
588.358	1	-11
588.528	1	-3
588.698	1	0
588.867	1	-5
589.037	1	-3
589.207	1	-4
589.377	1	3
589.547	1	-6
589.717	1	2
589.886	1	8
590.056	1	-1
590.226	1	9
590.396	1	5
590.566	1	7
590.735	1	3
590.905	1	17
591.075	1	8
591.245	1	-11
591.415	1	11
591.585	1	9
591.754	1	-8
591.924	1	4
592.094	1	12
592.264	1	-2
592.434	1	11
592.603	1	2
592.773	1	18
592.943	1	-1
593.113	1	8
593.283	1	-7
593.452	1	8
593.622	1	6
593.792	1	-14
593.962	1	7
594.132	1	12
594.301	1	-8
594.471	1	5
594.641	1	3
594.811	1	4
594.981	1	-8
595.150	1	-3
595.320	1	7
595.490	1	7
595.660	1	2
595.829	1	-3
595.999	1	8
596.169	1	11
596.339	1	4
596.509	1	-7
596.678	1	-2
596.848	1	5
597.018	1	-3
597.188	1	-3
597.358	1	-1
597.527	1	-3
597.697	1	13
597.867	1	0
598.037	1	9
598.206	1	3
598.376	1	0
598.546	1	4
598.716	1	14
598.885	1	5
599.055	1	-2
599.225	1	-3
599.395	1	-1
599.565	1	0
599.734	1	-1
599.904	1	-3
600.074	1	1
600.244	1	1
600.413	1	6
600.583	1	-3
600.753	1	2
600.923	1	-6
601.092	1	-2
601.262	1	1
601.432	1	-5
601.602	1	1
601.771	1	12
601.941	1	-6
602.111	1	-1
602.281	1	1
602.451	1	7
602.620	1	6
602.790	1	-4
602.960	1	1
603.130	1	1
603.299	1	8
603.469	1	6
603.639	1	-5
603.809	1	-1
603.978	1	2
604.148	1	3
604.318	1	4
604.487	1	9
604.657	1	-19
604.827	1	-5
604.997	1	17
605.166	1	14
605.336	1	12
605.506	1	2
605.676	1	-2
605.845	1	-11
606.015	1	0
606.185	1	2
606.355	1	10
606.524	1	-2
606.694	1	-3
606.864	1	8
607.034	1	5
607.203	1	-4
607.373	1	5
607.543	1	-1
607.712	1	-3
607.882	1	10
608.052	1	2
608.222	1	-5
608.391	1	-2
608.561	1	1
608.731	1	0
608.901	1	8
609.070	1	3
609.240	1	-7
609.410	1	11
609.579	1	8
609.749	1	11
609.919	1	9
610.089	1	3
610.258	1	4
610.428	1	6
610.598	1	1
610.767	1	3
610.937	1	4
611.107	1	8
611.277	1	6
611.446	1	14
611.616	1	-4
611.786	1	-2
611.955	1	-6
612.125	1	-2
612.295	1	15
612.465	1	1
612.634	1	1
612.804	1	6
612.974	1	6
613.143	1	3
613.313	1	0
613.483	1	-3
613.652	1	-6
613.822	1	-11
613.992	1	3
614.162	1	11
614.331	1	6
614.501	1	20
614.671	1	3
614.840	1	2
615.010	1	-5
615.180	1	3
615.349	1	1
615.519	1	-2
615.689	1	1
615.858	1	1
616.028	1	6
616.198	1	15
616.368	1	8
616.537	1	10
616.707	1	17
616.877	1	3
617.046	1	7
617.216	1	7
617.386	1	-7
617.555	1	-6
617.725	1	11
617.895	1	2
618.064	1	4
618.234	1	-3
618.404	1	-5
618.573	1	4
618.743	1	3
618.913	1	-1
619.082	1	5
619.252	1	-1
619.422	1	4
619.591	1	5
619.761	1	6
619.931	1	2
620.100	1	-3
620.270	1	-2
620.440	1	2
620.609	1	-5
620.779	1	5
620.949	1	4
621.118	1	-3
621.288	1	-5
621.458	1	5
621.627	1	8
621.797	1	6
621.967	1	-2
622.136	1	2
622.306	1	8
622.476	1	12
622.645	1	9
622.815	1	-8
622.985	1	5
623.154	1	4
623.324	1	-2
623.494	1	7
623.663	1	-3
623.833	1	7
624.002	1	14
624.172	1	-1
624.342	1	6
624.511	1	0
624.681	1	-2
624.851	1	-1
625.020	1	-3
625.190	1	-3
625.360	1	2
625.529	1	-2
625.699	1	-1
625.869	1	1
626.038	1	4
626.208	1	3
626.377	1	19
626.547	1	1
626.717	1	3
626.886	1	-3
627.056	1	11
627.226	1	-4
627.395	1	-10
627.565	1	7
627.735	1	9
627.904	1	9
628.074	1	3
628.243	1	5
628.413	1	-4
628.583	1	-9
628.752	1	-4
628.922	1	-7
629.091	1	3
629.261	1	-15
629.431	1	4
629.600	1	4
629.770	1	3
629.940	1	-1
630.109	1	6
630.279	1	11
630.448	1	-1
630.618	1	-12
630.788	1	-1
630.957	1	2
631.127	1	-3
631.297	1	2
631.466	1	7
631.636	1	10
631.805	1	3
631.975	1	6
632.145	1	0
632.314	1	1
632.484	1	-5
632.653	1	1
632.823	1	-6
632.993	1	7
633.162	1	-5
633.332	1	1
633.501	1	17
633.671	1	-5
633.841	1	18
634.010	1	-6
634.180	1	14
634.349	1	3
634.519	1	3
634.689	1	6
634.858	1	-2
635.028	1	12
635.197	1	6
635.367	1	-5
635.537	1	-7
635.706	1	1
635.876	1	1
636.045	1	9
636.215	1	6
636.384	1	-2
636.554	1	8
636.724	1	12
636.893	1	7
637.063	1	5
637.232	1	-6
637.402	1	-10
637.572	1	-4
637.741	1	20
637.911	1	7
638.080	1	7
638.250	1	13
638.419	1	-1
638.589	1	2
638.759	1	-1
638.928	1	2
639.098	1	1
639.267	1	12
639.437	1	16
639.606	1	2
639.776	1	4
639.946	1	-5
640.115	1	11
640.285	1	12
640.454	1	12
640.624	1	-8
640.793	1	0
640.963	1	-2
641.132	1	10
641.302	1	6
641.472	1	0
641.641	1	-6
641.811	1	7
641.980	1	1
642.150	1	-14
642.319	1	6
642.489	1	3
642.659	1	-2
642.828	1	-6
642.998	1	-6
643.167	1	3
643.337	1	0
643.506	1	7
643.676	1	4
643.845	1	-3
644.015	1	7
644.184	1	-2
644.354	1	-3
644.524	1	3
644.693	1	-3
644.863	1	3
645.032	1	6
645.202	1	0
645.371	1	14
645.541	1	3
645.710	1	6
645.880	1	7
646.049	1	-11
646.219	1	-4
646.388	1	4
646.558	1	-2
646.728	1	12
646.897	1	-2
647.067	1	7
647.236	1	3
647.406	1	5
647.575	1	-5
647.745	1	0
647.914	1	-3
648.084	1	0
648.253	1	-1
648.423	1	7
648.592	1	-6
648.762	1	6
648.931	1	-3
649.101	1	-3
649.270	1	1
649.440	1	6
649.610	1	-1
649.779	1	11
649.949	1	11
650.118	1	-6
650.288	1	8
650.457	1	-1
650.627	1	3
650.796	1	-7
650.966	1	6
651.135	1	6
651.305	1	8
651.474	1	1
651.644	1	4
651.813	1	1
651.983	1	-4
652.152	1	-1
652.322	1	0
652.491	1	5
652.661	1	-1
652.830	1	11
653.000	1	1
653.169	1	0
653.339	1	-1
653.508	1	11
653.678	1	0
653.847	1	-1
654.017	1	-4
654.186	1	-10
654.356	1	-2
654.525	1	4
654.695	1	-4
654.864	1	-3
655.034	1	-4
655.203	1	6
655.373	1	0
655.542	1	2
655.712	1	-5
655.881	1	7
656.051	1	-1
656.220	1	0
656.390	1	-9
656.559	1	11
656.729	1	3
656.898	1	-10
657.068	1	-1
657.237	1	7
657.406	1	0
657.576	1	3
657.745	1	2
657.915	1	7
658.084	1	2
658.254	1	3
658.423	1	5
658.593	1	-3
658.762	1	10
658.932	1	14
659.101	1	6
659.271	1	4
659.440	1	-11
659.610	1	-4
659.779	1	8
659.949	1	0
660.118	1	-1
660.288	1	1
660.457	1	1
660.626	1	0
660.796	1	0
660.965	1	-1
661.135	1	9
661.304	1	4
661.474	1	13
661.643	1	5
661.813	1	-3
661.982	1	0
662.152	1	-1
662.321	1	2
662.491	1	13
662.660	1	-2
662.829	1	12
662.999	1	1
663.168	1	-5
663.338	1	-3
663.507	1	6
663.677	1	10
663.846	1	2
664.016	1	5
664.185	1	0
664.354	1	4
664.524	1	-2
664.693	1	17
664.863	1	10
665.032	1	6
665.202	1	-3
665.371	1	-11
665.541	1	-1
665.710	1	4
665.879	1	3
666.049	1	-1
666.218	1	0
666.388	1	5
666.557	1	4
666.727	1	-1
666.896	1	11
667.065	1	4
667.235	1	6
667.404	1	0
667.574	1	16
667.743	1	6
667.913	1	7
668.082	1	4
668.251	1	1
668.421	1	-2
668.590	1	0
668.760	1	3
668.929	1	3
669.099	1	-7
669.268	1	0
669.437	1	-6
669.607	1	2
669.776	1	-1
669.946	1	10
670.115	1	16
670.285	1	3
670.454	1	-8
670.623	1	9
670.793	1	2
670.962	1	-5
671.132	1	1
671.301	1	-5
671.470	1	14
671.640	1	-11
671.809	1	-5
671.979	1	2
672.148	1	2
672.317	1	3
672.487	1	-11
672.656	1	3
672.826	1	3
672.995	1	11
673.164	1	11
673.334	1	0
673.503	1	-8
673.673	1	10
673.842	1	5
674.011	1	-1
674.181	1	6
674.350	1	-3
674.520	1	0
674.689	1	8
674.858	1	-1
675.028	1	8
675.197	1	5
675.367	1	0
675.536	1	10
675.705	1	11
675.875	1	1
676.044	1	6
676.214	1	9
676.383	1	13
676.552	1	6
676.722	1	0
676.891	1	-4
677.060	1	-3
677.230	1	14
677.399	1	0
677.569	1	-3
677.738	1	5
677.907	1	-3
678.077	1	5
678.246	1	11
678.416	1	10
678.585	1	7
678.754	1	0
678.924	1	-4
679.093	1	-5
679.262	1	4
679.432	1	5
679.601	1	-5
679.771	1	4
679.940	1	-3
680.109	1	10
680.279	1	1
680.448	1	7
680.617	1	-12
680.787	1	8
680.956	1	1
681.125	1	8
681.295	1	4
681.464	1	0
681.634	1	12
681.803	1	-1
681.972	1	-2
682.142	1	-1
682.311	1	-5
682.480	1	12
682.650	1	-2
682.819	1	3
682.988	1	-1
683.158	1	2
683.327	1	0
683.496	1	4
683.666	1	3
683.835	1	0
684.004	1	-3
684.174	1	7
684.343	1	0
684.512	1	8
684.682	1	-6
684.851	1	1
685.021	1	-2
685.190	1	1
685.359	1	-5
685.529	1	-7
685.698	1	-5
685.867	1	-3
686.037	1	9
686.206	1	8
686.375	1	9
686.545	1	-7
686.714	1	-5
686.883	1	-6
687.053	1	5
687.222	1	4
687.391	1	0
687.561	1	10
687.730	1	-3
687.899	1	7
688.069	1	3
688.238	1	6
688.407	1	4
688.577	1	-1
688.746	1	5
