340.368	1	2
340.539	1	6
340.710	1	-11
340.881	1	6
341.052	1	-1
341.223	1	-1
341.394	1	-2
341.565	1	2
341.737	1	10
341.908	1	3
342.079	1	4
342.250	1	9
342.421	1	7
342.592	1	1
342.763	1	2
342.934	1	10
343.105	1	3
343.276	1	5
343.447	1	2
343.618	1	0
343.789	1	12
343.960	1	1
344.131	1	3
344.302	1	9
344.473	1	3
344.644	1	3
344.815	1	-12
344.986	1	13
345.157	1	-5
345.328	1	15
345.499	1	0
345.670	1	2
345.841	1	1
346.012	1	-3
346.183	1	11
346.354	1	4
346.526	1	0
346.697	1	8
346.868	1	4
347.039	1	-8
347.210	1	-4
347.381	1	3
347.552	1	4
347.723	1	11
347.894	1	-3
348.065	1	11
348.236	1	4
348.407	1	8
348.578	1	0
348.749	1	10
348.920	1	1
349.091	1	-4
349.262	1	6
349.433	1	11
349.604	1	6
349.775	1	4
349.946	1	10
350.117	1	9
350.288	1	-3
350.459	1	-7
350.630	1	13
350.801	1	3
350.972	1	9
351.143	1	11
351.314	1	-1
351.485	1	7
351.656	1	16
351.827	1	11
351.998	1	4
352.169	1	6
352.340	1	16
352.511	1	5
352.682	1	1
352.853	1	6
353.024	1	5
353.195	1	0
353.366	1	7
353.537	1	3
353.708	1	5
353.879	1	2
354.050	1	9
354.221	1	16
354.392	1	11
354.563	1	2
354.734	1	4
354.905	1	11
355.076	1	6
355.247	1	4
355.418	1	6
355.589	1	4
355.760	1	9
355.931	1	10
356.102	1	-1
356.273	1	14
356.444	1	-7
356.615	1	10
356.785	1	15
356.956	1	16
357.127	1	20
357.298	1	3
357.469	1	8
357.640	1	6
357.811	1	5
357.982	1	12
358.153	1	1
358.324	1	10
358.495	1	4
358.666	1	10
358.837	1	11
359.008	1	15
359.179	1	1
359.350	1	9
359.521	1	-9
359.692	1	14
359.863	1	10
360.034	1	14
360.205	1	10
360.376	1	11
360.547	1	3
360.718	1	19
360.889	1	4
361.060	1	25
361.231	1	3
361.401	1	9
361.572	1	19
361.743	1	12
361.914	1	19
362.085	1	24
362.256	1	9
362.427	1	22
362.598	1	24
362.769	1	23
362.940	1	10
363.111	1	28
363.282	1	23
363.453	1	15
363.624	1	32
363.795	1	13
363.966	1	39
364.137	1	18
364.308	1	36
364.478	1	31
364.649	1	29
364.820	1	41
364.991	1	29
365.162	1	21
365.333	1	26
365.504	1	37
365.675	1	31
365.846	1	45
366.017	1	46
366.188	1	38
366.359	1	52
366.530	1	44
366.701	1	46
366.871	1	50
367.042	1	48
367.213	1	40
367.384	1	43
367.555	1	46
367.726	1	38
367.897	1	47
368.068	1	41
368.239	1	50
368.410	1	42
368.581	1	51
368.752	1	51
368.923	1	55
369.093	1	51
369.264	1	41
369.435	1	30
369.606	1	50
369.777	1	36
369.948	1	40
370.119	1	49
370.290	1	46
370.461	1	38
370.632	1	31
370.803	1	34
370.973	1	34
371.144	1	35
371.315	1	43
371.486	1	32
371.657	1	26
371.828	1	30
371.999	1	31
372.170	1	36
372.341	1	29
372.512	1	41
372.682	1	31
372.853	1	17
373.024	1	31
373.195	1	24
373.366	1	25
373.537	1	32
373.708	1	20
373.879	1	38
374.050	1	29
374.220	1	11
374.391	1	34
374.562	1	16
374.733	1	20
374.904	1	31
375.075	1	24
375.246	1	33
375.417	1	23
375.588	1	20
375.758	1	7
375.929	1	19
376.100	1	15
376.271	1	26
376.442	1	17
376.613	1	19
376.784	1	17
376.955	1	19
377.125	1	15
377.296	1	13
377.467	1	24
377.638	1	10
377.809	1	17
377.980	1	10
378.151	1	18
378.321	1	14
378.492	1	22
378.663	1	11
378.834	1	15
379.005	1	23
379.176	1	17
379.347	1	15
379.518	1	15
379.688	1	10
379.859	1	16
380.030	1	16
380.201	1	25
380.372	1	12
380.543	1	15
380.714	1	19
380.884	1	11
381.055	1	19
381.226	1	19
381.397	1	17
381.568	1	13
381.739	1	22
381.910	1	20
382.080	1	16
382.251	1	19
382.422	1	17
382.593	1	10
382.764	1	13
382.935	1	13
383.105	1	10
383.276	1	13
383.447	1	22
383.618	1	7
383.789	1	13
383.960	1	12
384.130	1	18
384.301	1	7
384.472	1	16
384.643	1	17
384.814	1	16
384.985	1	20
385.156	1	12
385.326	1	17
385.497	1	9
385.668	1	17
385.839	1	11
386.010	1	19
386.180	1	13
386.351	1	15
386.522	1	3
386.693	1	4
386.864	1	14
387.035	1	21
387.205	1	8
387.376	1	6
387.547	1	11
387.718	1	16
387.889	1	4
388.060	1	13
388.230	1	2
388.401	1	13
388.572	1	12
388.743	1	16
388.914	1	12
389.084	1	11
389.255	1	9
389.426	1	20
389.597	1	-2
389.768	1	-2
389.939	1	12
390.109	1	22
390.280	1	13
390.451	1	16
390.622	1	0
390.793	1	16
390.963	1	24
391.134	1	7
391.305	1	16
391.476	1	14
391.647	1	12
391.817	1	14
391.988	1	10
392.159	1	4
392.330	1	11
392.501	1	17
392.671	1	7
392.842	1	18
393.013	1	14
393.184	1	14
393.355	1	9
393.525	1	10
393.696	1	1
393.867	1	11
394.038	1	6
394.208	1	0
394.379	1	16
394.550	1	13
394.721	1	20
394.892	1	16
395.062	1	-4
395.233	1	3
395.404	1	5
395.575	1	4
395.746	1	18
395.916	1	18
396.087	1	22
396.258	1	10
396.429	1	13
396.599	1	15
396.770	1	22
396.941	1	6
397.112	1	9
397.283	1	8
397.453	1	13
397.624	1	6
397.795	1	3
397.966	1	17
398.136	1	2
398.307	1	11
398.478	1	15
398.649	1	12
398.819	1	-7
398.990	1	3
399.161	1	14
399.332	1	14
399.503	1	13
399.673	1	11
399.844	1	5
400.015	1	8
400.186	1	-1
400.356	1	12
400.527	1	13
400.698	1	11
400.869	1	13
401.039	1	18
401.210	1	6
401.381	1	11
401.552	1	16
401.722	1	7
401.893	1	-3
402.064	1	-6
402.235	1	11
402.405	1	5
402.576	1	8
402.747	1	3
402.918	1	7
403.088	1	5
403.259	1	4
403.430	1	13
403.601	1	5
403.771	1	9
403.942	1	5
404.113	1	5
404.284	1	5
404.454	1	11
404.625	1	17
404.796	1	9
404.967	1	2
405.137	1	13
405.308	1	4
405.479	1	3
405.649	1	13
405.820	1	18
405.991	1	8
406.162	1	4
406.332	1	20
406.503	1	17
406.674	1	14
406.845	1	1
407.015	1	12
407.186	1	2
407.357	1	3
407.527	1	13
407.698	1	3
407.869	1	17
408.040	1	8
408.210	1	9
408.381	1	11
408.552	1	2
408.722	1	10
408.893	1	6
409.064	1	12
409.235	1	2
409.405	1	17
409.576	1	12
409.747	1	16
409.917	1	4
410.088	1	18
410.259	1	11
410.430	1	11
410.600	1	11
410.771	1	-10
410.942	1	9
411.112	1	12
411.283	1	6
411.454	1	2
411.625	1	4
411.795	1	10
411.966	1	8
412.137	1	7
412.307	1	6
412.478	1	1
412.649	1	10
412.819	1	12
412.990	1	9
413.161	1	10
413.332	1	-2
413.502	1	7
413.673	1	10
413.844	1	7
414.014	1	15
414.185	1	5
414.356	1	12
414.526	1	2
414.697	1	7
414.868	1	5
415.038	1	12
415.209	1	7
415.380	1	11
415.550	1	9
415.721	1	-1
415.892	1	2
416.063	1	6
416.233	1	16
416.404	1	14
416.575	1	13
416.745	1	8
416.916	1	4
417.087	1	20
417.257	1	12
417.428	1	12
417.599	1	8
417.769	1	9
417.940	1	15
418.111	1	14
418.281	1	0
418.452	1	6
418.623	1	8
418.793	1	2
418.964	1	0
419.135	1	10
419.305	1	5
419.476	1	7
419.647	1	14
419.817	1	10
419.988	1	21
420.159	1	3
420.329	1	14
420.500	1	9
420.671	1	-4
420.841	1	11
421.012	1	1
421.183	1	22
421.353	1	-4
421.524	1	10
421.695	1	0
421.865	1	9
422.036	1	3
422.206	1	12
422.377	1	7
422.548	1	20
422.718	1	13
422.889	1	1
423.060	1	11
423.230	1	13
423.401	1	11
423.572	1	-3
423.742	1	7
423.913	1	7
424.084	1	13
424.254	1	18
424.425	1	18
424.595	1	5
424.766	1	18
424.937	1	11
425.107	1	9
425.278	1	1
425.449	1	12
425.619	1	8
425.790	1	10
425.961	1	17
426.131	1	25
426.302	1	11
426.472	1	2
426.643	1	15
426.814	1	8
426.984	1	3
427.155	1	1
427.326	1	8
427.496	1	10
427.667	1	4
427.837	1	18
428.008	1	7
428.179	1	12
428.349	1	2
428.520	1	12
428.691	1	10
428.861	1	4
429.032	1	0
429.202	1	15
429.373	1	10
429.544	1	5
429.714	1	5
429.885	1	-1
430.055	1	6
430.226	1	0
430.397	1	-10
430.567	1	7
430.738	1	0
430.909	1	8
431.079	1	18
431.250	1	5
431.420	1	6
431.591	1	3
431.762	1	10
431.932	1	1
432.103	1	-8
432.273	1	17
432.444	1	16
432.615	1	13
432.785	1	5
432.956	1	-2
433.126	1	4
433.297	1	17
433.468	1	11
433.638	1	-1
433.809	1	7
433.979	1	16
434.150	1	10
434.320	1	3
434.491	1	1
434.662	1	8
434.832	1	2
435.003	1	17
435.173	1	8
435.344	1	14
435.515	1	3
435.685	1	-3
435.856	1	4
436.026	1	13
436.197	1	7
436.368	1	7
436.538	1	10
436.709	1	8
436.879	1	3
437.050	1	9
437.220	1	3
437.391	1	15
437.562	1	11
437.732	1	7
437.903	1	12
438.073	1	11
438.244	1	4
438.414	1	2
438.585	1	8
438.756	1	9
438.926	1	10
439.097	1	13
439.267	1	2
439.438	1	17
439.608	1	20
439.779	1	7
439.949	1	18
440.120	1	7
440.291	1	13
440.461	1	14
440.632	1	8
440.802	1	-2
440.973	1	11
441.143	1	0
441.314	1	1
441.485	1	10
441.655	1	13
441.826	1	12
441.996	1	10
442.167	1	4
442.337	1	9
442.508	1	11
442.678	1	9
442.849	1	7
443.019	1	5
443.190	1	8
443.361	1	8
443.531	1	4
443.702	1	11
443.872	1	8
444.043	1	4
444.213	1	0
444.384	1	8
444.554	1	1
444.725	1	10
444.895	1	4
445.066	1	4
445.237	1	1
445.407	1	-2
445.578	1	5
445.748	1	12
445.919	1	1
446.089	1	1
446.260	1	4
446.430	1	8
446.601	1	10
446.771	1	8
446.942	1	5
447.112	1	7
447.283	1	12
447.453	1	3
447.624	1	2
447.794	1	14
447.965	1	13
448.135	1	14
448.306	1	3
448.477	1	11
448.647	1	13
448.818	1	-1
448.988	1	2
449.159	1	7
449.329	1	2
449.500	1	-4
449.670	1	-6
449.841	1	-7
450.011	1	4
450.182	1	14
450.352	1	13
450.523	1	6
450.693	1	5
450.864	1	1
451.034	1	3
451.205	1	7
451.375	1	9
451.546	1	5
451.716	1	2
451.887	1	6
452.057	1	11
452.228	1	14
452.398	1	-3
452.569	1	2
452.739	1	1
452.910	1	8
453.080	1	4
453.251	1	15
453.421	1	4
453.592	1	8
453.762	1	3
453.933	1	9
454.103	1	3
454.274	1	2
454.444	1	5
454.615	1	-2
454.785	1	16
454.956	1	0
455.126	1	-3
455.297	1	16
455.467	1	11
455.638	1	10
455.808	1	15
455.979	1	15
456.149	1	2
456.320	1	-2
456.490	1	-2
456.661	1	5
456.831	1	14
457.001	1	9
457.172	1	5
457.342	1	8
457.513	1	-9
457.683	1	3
457.854	1	10
458.024	1	15
458.195	1	-6
458.365	1	14
458.536	1	11
458.706	1	11
458.877	1	17
459.047	1	-6
459.218	1	4
459.388	1	4
459.559	1	8
459.729	1	-3
459.899	1	-1
460.070	1	3
460.240	1	20
460.411	1	13
460.581	1	2
460.752	1	0
460.922	1	13
461.093	1	12
461.263	1	7
461.434	1	10
461.604	1	-11
461.775	1	7
461.945	1	11
462.115	1	-1
462.286	1	8
462.456	1	3
462.627	1	2
462.797	1	10
462.968	1	-5
463.138	1	2
463.309	1	8
463.479	1	10
463.649	1	-4
463.820	1	-1
463.990	1	4
464.161	1	-1
464.331	1	12
464.502	1	8
464.672	1	12
464.843	1	8
465.013	1	-4
465.183	1	11
465.354	1	-3
465.524	1	3
465.695	1	11
465.865	1	-5
466.036	1	2
466.206	1	4
466.376	1	5
466.547	1	-5
466.717	1	9
466.888	1	12
467.058	1	8
467.229	1	4
467.399	1	4
467.569	1	4
467.740	1	15
467.910	1	-2
468.081	1	16
468.251	1	5
468.422	1	0
468.592	1	4
468.762	1	2
468.933	1	12
469.103	1	6
469.274	1	6
469.444	1	6
469.614	1	11
469.785	1	14
469.955	1	6
470.126	1	-6
470.296	1	1
470.467	1	9
470.637	1	4
470.807	1	7
470.978	1	-2
471.148	1	4
471.319	1	7
471.489	1	2
471.659	1	-3
471.830	1	2
472.000	1	5
472.171	1	6
472.341	1	-1
472.511	1	2
472.682	1	10
472.852	1	11
473.023	1	3
473.193	1	8
473.363	1	10
473.534	1	2
473.704	1	0
473.875	1	10
474.045	1	2
474.215	1	-9
474.386	1	2
474.556	1	1
474.727	1	4
474.897	1	5
475.067	1	3
475.238	1	19
475.408	1	1
475.578	1	1
475.749	1	12
475.919	1	-4
476.090	1	2
476.260	1	8
476.430	1	6
476.601	1	7
476.771	1	-7
476.942	1	11
477.112	1	5
477.282	1	12
477.453	1	6
477.623	1	-3
477.793	1	0
477.964	1	-2
478.134	1	12
478.305	1	7
478.475	1	-4
478.645	1	2
478.816	1	13
478.986	1	1
479.156	1	9
479.327	1	5
479.497	1	14
479.667	1	6
479.838	1	4
480.008	1	1
480.179	1	-1
480.349	1	6
480.519	1	1
480.690	1	4
480.860	1	13
481.030	1	1
481.201	1	17
481.371	1	9
481.541	1	1
481.712	1	5
481.882	1	2
482.053	1	2
482.223	1	-4
482.393	1	11
482.564	1	-2
482.734	1	10
482.904	1	13
483.075	1	14
483.245	1	6
483.415	1	-2
483.586	1	9
483.756	1	-1
483.926	1	9
484.097	1	2
484.267	1	11
484.437	1	0
484.608	1	21
484.778	1	17
484.948	1	0
485.119	1	4
485.289	1	3
485.459	1	-7
485.630	1	5
485.800	1	21
485.970	1	6
486.141	1	7
486.311	1	12
486.481	1	-4
486.652	1	6
486.822	1	7
486.992	1	9
487.163	1	3
487.333	1	0
487.503	1	4
487.674	1	10
487.844	1	-2
488.014	1	5
488.185	1	8
488.355	1	21
488.525	1	13
488.696	1	12
488.866	1	4
489.036	1	3
489.207	1	5
489.377	1	12
489.547	1	5
489.718	1	8
489.888	1	18
490.058	1	11
490.228	1	10
490.399	1	11
490.569	1	10
490.739	1	5
490.910	1	-7
491.080	1	13
491.250	1	13
491.421	1	8
491.591	1	-7
491.761	1	11
491.932	1	13
492.102	1	14
492.272	1	4
492.442	1	7
492.613	1	-7
492.783	1	-7
492.953	1	8
493.124	1	8
493.294	1	10
493.464	1	2
493.635	1	11
493.805	1	8
493.975	1	12
494.145	1	-4
494.316	1	8
494.486	1	17
494.656	1	4
494.827	1	18
494.997	1	10
495.167	1	7
495.337	1	9
495.508	1	3
495.678	1	4
495.848	1	6
496.019	1	-11
496.189	1	8
496.359	1	20
496.529	1	7
496.700	1	2
496.870	1	7
497.040	1	20
497.211	1	0
497.381	1	9
497.551	1	7
497.721	1	2
497.892	1	10
498.062	1	-1
498.232	1	16
498.403	1	-1
498.573	1	9
498.743	1	16
498.913	1	15
499.084	1	20
499.254	1	4
499.424	1	-3
499.594	1	0
499.765	1	11
499.935	1	6
500.105	1	15
500.275	1	18
500.446	1	7
500.616	1	5
500.786	1	19
500.956	1	9
501.127	1	9
501.297	1	9
501.467	1	8
501.638	1	13
501.808	1	10
501.978	1	6
502.148	1	14
502.319	1	3
502.489	1	9
502.659	1	17
502.829	1	1
503.000	1	8
503.170	1	3
503.340	1	7
503.510	1	15
503.681	1	9
503.851	1	8
504.021	1	16
504.191	1	15
504.362	1	11
504.532	1	13
504.702	1	11
504.872	1	7
505.042	1	7
505.213	1	13
505.383	1	13
505.553	1	19
505.723	1	14
505.894	1	9
506.064	1	17
506.234	1	8
506.404	1	2
506.575	1	16
506.745	1	18
506.915	1	15
507.085	1	18
507.256	1	16
507.426	1	11
507.596	1	2
507.766	1	10
507.936	1	1
508.107	1	7
508.277	1	5
508.447	1	19
508.617	1	8
508.788	1	14
508.958	1	24
509.128	1	13
509.298	1	18
509.468	1	1
509.639	1	15
509.809	1	10
509.979	1	14
510.149	1	12
510.319	1	27
510.490	1	20
510.660	1	3
510.830	1	23
511.000	1	14
511.171	1	10
511.341	1	18
511.511	1	9
511.681	1	15
511.851	1	9
512.022	1	19
512.192	1	10
512.362	1	12
512.532	1	12
512.702	1	24
512.873	1	14
513.043	1	26
513.213	1	25
513.383	1	24
513.553	1	10
513.724	1	1
513.894	1	1
514.064	1	4
514.234	1	16
514.404	1	20
514.575	1	3
514.745	1	21
514.915	1	7
515.085	1	19
515.255	1	15
515.425	1	9
515.596	1	15
515.766	1	20
515.936	1	25
516.106	1	11
516.276	1	9
516.447	1	10
516.617	1	18
516.787	1	14
516.957	1	12
517.127	1	22
517.297	1	12
517.468	1	11
517.638	1	19
517.808	1	17
517.978	1	13
518.148	1	16
518.319	1	10
518.489	1	13
518.659	1	14
518.829	1	16
518.999	1	6
519.169	1	23
519.340	1	9
519.510	1	12
519.680	1	19
519.850	1	19
520.020	1	10
520.190	1	22
520.361	1	8
520.531	1	26
520.701	1	19
520.871	1	11
521.041	1	26
521.211	1	22
521.382	1	15
521.552	1	13
521.722	1	21
521.892	1	17
522.062	1	12
522.232	1	18
522.402	1	14
522.573	1	22
522.743	1	9
522.913	1	14
523.083	1	21
523.253	1	15
523.423	1	14
523.593	1	12
523.764	1	17
523.934	1	16
524.104	1	18
524.274	1	10
524.444	1	12
524.614	1	30
524.784	1	23
524.955	1	24
525.125	1	23
525.295	1	21
525.465	1	20
525.635	1	7
525.805	1	11
525.975	1	18
526.146	1	17
526.316	1	10
526.486	1	21
526.656	1	15
526.826	1	25
526.996	1	9
527.166	1	17
527.337	1	21
527.507	1	29
527.677	1	11
527.847	1	8
528.017	1	16
528.187	1	24
528.357	1	21
528.527	1	19
528.698	1	9
528.868	1	11
529.038	1	12
529.208	1	10
529.378	1	10
529.548	1	13
529.718	1	24
529.888	1	11
530.058	1	11
530.229	1	17
530.399	1	14
530.569	1	11
530.739	1	12
530.909	1	27
531.079	1	13
531.249	1	9
531.419	1	24
531.589	1	18
531.760	1	11
531.930	1	22
532.100	1	13
532.270	1	22
532.440	1	19
532.610	1	17
532.780	1	6
532.950	1	14
533.120	1	27
533.290	1	22
533.461	1	22
533.631	1	24
533.801	1	32
533.971	1	9
534.141	1	16
534.311	1	30
534.481	1	18
534.651	1	19
534.821	1	25
534.991	1	22
535.162	1	16
535.332	1	22
535.502	1	16
535.672	1	14
535.842	1	16
536.012	1	22
536.182	1	22
536.352	1	18
536.522	1	8
536.692	1	13
536.862	1	8
537.032	1	20
537.203	1	1
537.373	1	20
537.543	1	18
537.713	1	16
537.883	1	7
538.053	1	8
538.223	1	16
538.393	1	19
538.563	1	19
538.733	1	13
538.903	1	25
539.073	1	16
539.243	1	19
539.413	1	25
539.584	1	22
539.754	1	14
539.924	1	16
540.094	1	14
540.264	1	15
540.434	1	11
540.604	1	30
540.774	1	22
540.944	1	17
541.114	1	-1
541.284	1	19
541.454	1	12
541.624	1	26
541.794	1	15
541.964	1	19
542.134	1	7
542.305	1	17
542.475	1	13
542.645	1	1
542.815	1	23
542.985	1	17
543.155	1	6
543.325	1	19
543.495	1	11
543.665	1	19
543.835	1	20
544.005	1	18
544.175	1	18
544.345	1	19
544.515	1	19
544.685	1	25
544.855	1	12
545.025	1	8
545.195	1	17
545.365	1	25
545.535	1	35
545.705	1	10
545.875	1	31
546.045	1	16
546.216	1	34
546.386	1	18
546.556	1	9
546.726	1	11
546.896	1	13
547.066	1	17
547.236	1	9
547.406	1	-2
547.576	1	20
547.746	1	14
547.916	1	10
548.086	1	8
548.256	1	7
548.426	1	18
548.596	1	12
548.766	1	5
548.936	1	21
549.106	1	14
549.276	1	3
549.446	1	7
549.616	1	12
549.786	1	7
549.956	1	0
550.126	1	19
550.296	1	6
550.466	1	19
550.636	1	10
550.806	1	31
550.976	1	5
551.146	1	12
551.316	1	15
551.486	1	20
551.656	1	15
551.826	1	13
551.996	1	18
552.166	1	18
552.336	1	18
552.506	1	14
552.676	1	9
552.846	1	12
553.016	1	19
553.186	1	6
553.356	1	12
553.526	1	15
553.696	1	8
553.866	1	3
554.036	1	7
554.206	1	2
554.376	1	27
554.546	1	10
554.716	1	11
554.886	1	6
555.056	1	22
555.226	1	9
555.396	1	2
555.566	1	10
555.736	1	14
555.906	1	8
556.076	1	11
556.246	1	18
556.416	1	13
556.586	1	16
556.756	1	14
556.926	1	5
557.096	1	9
557.266	1	4
557.436	1	11
557.606	1	2
557.776	1	9
557.946	1	14
558.116	1	12
558.286	1	21
558.456	1	14
558.626	1	4
558.796	1	12
558.966	1	7
559.136	1	14
559.306	1	7
559.476	1	8
559.646	1	17
559.816	1	17
559.986	1	9
560.155	1	6
560.325	1	4
560.495	1	-1
560.665	1	16
560.835	1	21
561.005	1	11
561.175	1	17
561.345	1	17
561.515	1	7
561.685	1	9
561.855	1	10
562.025	1	6
562.195	1	2
562.365	1	15
562.535	1	13
562.705	1	15
562.875	1	16
563.045	1	10
563.215	1	24
563.385	1	8
563.555	1	12
563.725	1	13
563.895	1	11
564.064	1	11
564.234	1	24
564.404	1	6
564.574	1	8
564.744	1	8
564.914	1	17
565.084	1	10
565.254	1	6
565.424	1	1
565.594	1	13
565.764	1	12
565.934	1	8
566.104	1	9
566.274	1	17
566.444	1	12
566.614	1	6
566.783	1	11
566.953	1	2
567.123	1	11
567.293	1	11
567.463	1	17
567.633	1	1
567.803	1	13
567.973	1	-2
568.143	1	14
568.313	1	1
568.483	1	14
568.653	1	6
568.823	1	2
568.993	1	0
569.162	1	6
569.332	1	8
569.502	1	15
569.672	1	-3
569.842	1	4
570.012	1	2
570.182	1	5
570.352	1	0
570.522	1	-8
570.692	1	21
570.862	1	28
571.031	1	5
571.201	1	8
571.371	1	6
571.541	1	3
571.711	1	14
571.881	1	13
572.051	1	6
572.221	1	18
572.391	1	9
572.561	1	13
572.731	1	17
572.900	1	11
573.070	1	7
573.240	1	5
573.410	1	-8
573.580	1	4
573.750	1	3
573.920	1	23
574.090	1	9
574.260	1	7
574.430	1	11
574.599	1	12
574.769	1	6
574.939	1	8
575.109	1	17
575.279	1	-6
575.449	1	13
575.619	1	9
575.789	1	18
575.959	1	3
576.128	1	7
576.298	1	2
576.468	1	6
576.638	1	9
576.808	1	-1
576.978	1	-5
577.148	1	3
577.318	1	4
577.487	1	14
577.657	1	14
577.827	1	8
577.997	1	7
578.167	1	10
578.337	1	5
578.507	1	5
578.677	1	12
578.846	1	8
579.016	1	15
579.186	1	7
579.356	1	12
579.526	1	21
579.696	1	2
579.866	1	9
580.036	1	4
580.205	1	-1
580.375	1	6
580.545	1	10
580.715	1	11
580.885	1	9
581.055	1	7
581.225	1	8
581.394	1	10
581.564	1	3
581.734	1	11
581.904	1	10
582.074	1	-3
582.244	1	-7
582.414	1	1
582.583	1	22
582.753	1	13
582.923	1	6
583.093	1	4
583.263	1	2
583.433	1	8
583.603	1	8
583.772	1	14
583.942	1	-2
584.112	1	12
584.282	1	-3
584.452	1	20
584.622	1	-10
584.791	1	5
584.961	1	12
585.131	1	4
585.301	1	15
585.471	1	5
585.641	1	18
585.811	1	11
585.980	1	-3
586.150	1	11
586.320	1	7
586.490	1	3
586.660	1	-9
586.830	1	-2
586.999	1	-3
587.169	1	11
587.339	1	10
587.509	1	12
587.679	1	10
587.849	1	14
588.018	1	5
588.188	1	9
588.358	1	5
588.528	1	23
588.698	1	-1
588.867	1	4
589.037	1	4
589.207	1	7
589.377	1	12
589.547	1	8
589.717	1	4
589.886	1	9
590.056	1	5
590.226	1	14
590.396	1	14
590.566	1	-3
590.735	1	8
590.905	1	10
591.075	1	18
591.245	1	3
591.415	1	8
591.585	1	12
591.754	1	-1
591.924	1	4
592.094	1	2
592.264	1	4
592.434	1	9
592.603	1	2
592.773	1	18
592.943	1	8
593.113	1	7
593.283	1	-4
593.452	1	8
593.622	1	7
593.792	1	-8
593.962	1	11
594.132	1	5
594.301	1	2
594.471	1	1
594.641	1	19
594.811	1	0
594.981	1	-5
595.150	1	0
595.320	1	6
595.490	1	12
595.660	1	0
595.829	1	-6
595.999	1	9
596.169	1	8
596.339	1	2
596.509	1	7
596.678	1	5
596.848	1	9
597.018	1	3
597.188	1	2
597.358	1	-1
597.527	1	1
597.697	1	2
597.867	1	9
598.037	1	4
598.206	1	3
598.376	1	6
598.546	1	6
598.716	1	16
598.885	1	7
599.055	1	2
599.225	1	9
599.395	1	6
599.565	1	1
599.734	1	3
599.904	1	2
600.074	1	-2
600.244	1	2
600.413	1	5
600.583	1	8
600.753	1	-5
600.923	1	4
601.092	1	4
601.262	1	6
601.432	1	-4
601.602	1	13
601.771	1	14
601.941	1	4
602.111	1	-5
602.281	1	8
602.451	1	6
602.620	1	8
602.790	1	5
602.960	1	5
603.130	1	6
603.299	1	-4
603.469	1	6
603.639	1	-12
603.809	1	6
603.978	1	10
604.148	1	15
604.318	1	0
604.487	1	12
604.657	1	-5
604.827	1	7
604.997	1	19
605.166	1	8
605.336	1	12
605.506	1	-5
605.676	1	5
605.845	1	-1
606.015	1	8
606.185	1	7
606.355	1	6
606.524	1	-3
606.694	1	1
606.864	1	12
607.034	1	20
607.203	1	-4
607.373	1	13
607.543	1	14
607.712	1	5
607.882	1	10
608.052	1	3
608.222	1	-8
608.391	1	13
608.561	1	2
608.731	1	6
608.901	1	11
609.070	1	6
609.240	1	4
609.410	1	11
609.579	1	14
609.749	1	0
609.919	1	10
610.089	1	0
610.258	1	3
610.428	1	5
610.598	1	-1
610.767	1	5
610.937	1	17
611.107	1	10
611.277	1	6
611.446	1	7
611.616	1	-1
611.786	1	-4
611.955	1	-3
612.125	1	7
612.295	1	12
612.465	1	-6
612.634	1	7
612.804	1	15
612.974	1	14
613.143	1	6
613.313	1	-3
613.483	1	-7
613.652	1	-8
613.822	1	4
613.992	1	8
614.162	1	12
614.331	1	3
614.501	1	10
614.671	1	1
614.840	1	3
615.010	1	-3
615.180	1	1
615.349	1	7
615.519	1	0
615.689	1	14
615.858	1	-5
616.028	1	11
616.198	1	8
616.368	1	9
616.537	1	16
616.707	1	22
616.877	1	0
617.046	1	12
617.216	1	5
617.386	1	9
617.555	1	-6
617.725	1	9
617.895	1	13
618.064	1	12
618.234	1	2
618.404	1	2
618.573	1	-3
618.743	1	5
618.913	1	8
619.082	1	-4
619.252	1	0
619.422	1	6
619.591	1	5
619.761	1	9
619.931	1	-6
620.100	1	-4
620.270	1	7
620.440	1	11
620.609	1	-5
620.779	1	-1
620.949	1	0
621.118	1	-1
621.288	1	-5
621.458	1	11
621.627	1	18
621.797	1	8
621.967	1	7
622.136	1	4
622.306	1	2
622.476	1	3
622.645	1	15
622.815	1	2
622.985	1	2
623.154	1	-1
623.324	1	-2
623.494	1	12
623.663	1	1
623.833	1	9
624.002	1	-1
624.172	1	5
624.342	1	3
624.511	1	8
624.681	1	12
624.851	1	6
625.020	1	9
625.190	1	8
625.360	1	8
625.529	1	10
625.699	1	7
625.869	1	11
626.038	1	3
626.208	1	-4
626.377	1	9
626.547	1	7
626.717	1	7
626.886	1	-4
627.056	1	13
627.226	1	2
627.395	1	5
627.565	1	-4
627.735	1	15
627.904	1	3
628.074	1	11
628.243	1	4
628.413	1	3
628.583	1	-13
628.752	1	5
628.922	1	-1
629.091	1	-1
629.261	1	-7
629.431	1	1
629.600	1	6
629.770	1	7
629.940	1	10
630.109	1	13
630.279	1	8
630.448	1	5
630.618	1	-6
630.788	1	-4
630.957	1	8
631.127	1	14
631.297	1	-11
631.466	1	12
631.636	1	12
631.805	1	10
631.975	1	9
632.145	1	1
632.314	1	-3
632.484	1	-11
632.653	1	5
632.823	1	8
632.993	1	13
633.162	1	4
633.332	1	0
633.501	1	18
633.671	1	-6
633.841	1	8
634.010	1	-9
634.180	1	12
634.349	1	5
634.519	1	10
634.689	1	7
634.858	1	12
635.028	1	6
635.197	1	8
635.367	1	6
635.537	1	-3
635.706	1	1
635.876	1	9
636.045	1	13
636.215	1	14
636.384	1	6
636.554	1	12
636.724	1	6
636.893	1	-2
637.063	1	6
637.232	1	-7
637.402	1	-1
637.572	1	7
637.741	1	16
637.911	1	9
638.080	1	11
638.250	1	10
638.419	1	6
638.589	1	4
638.759	1	1
638.928	1	0
639.098	1	7
639.267	1	1
639.437	1	11
639.606	1	8
639.776	1	2
639.946	1	1
640.115	1	10
640.285	1	7
640.454	1	4
640.624	1	-4
640.793	1	-7
640.963	1	-2
641.132	1	19
641.302	1	20
641.472	1	6
641.641	1	0
641.811	1	6
641.980	1	-2
642.150	1	-8
642.319	1	6
642.489	1	2
642.659	1	-4
642.828	1	5
642.998	1	14
643.167	1	5
643.337	1	2
643.506	1	8
643.676	1	6
643.845	1	-1
644.015	1	6
644.184	1	4
644.354	1	-2
644.524	1	3
644.693	1	3
644.863	1	0
645.032	1	5
645.202	1	9
645.371	1	14
645.541	1	3
645.710	1	7
645.880	1	2
646.049	1	-6
646.219	1	9
646.388	1	3
646.558	1	4
646.728	1	7
646.897	1	2
647.067	1	10
647.236	1	-10
647.406	1	12
647.575	1	-2
647.745	1	6
647.914	1	-4
648.084	1	4
648.253	1	0
648.423	1	10
648.592	1	-1
648.762	1	10
648.931	1	-7
649.101	1	0
649.270	1	-8
649.440	1	10
649.610	1	4
649.779	1	7
649.949	1	8
650.118	1	2
650.288	1	11
650.457	1	-2
650.627	1	3
650.796	1	-1
650.966	1	5
651.135	1	10
651.305	1	3
651.474	1	-4
651.644	1	5
651.813	1	5
651.983	1	-6
652.152	1	9
652.322	1	-2
652.491	1	7
652.661	1	-2
652.830	1	9
653.000	1	1
653.169	1	4
653.339	1	1
653.508	1	8
653.678	1	2
653.847	1	4
654.017	1	-5
654.186	1	-8
654.356	1	-1
654.525	1	10
654.695	1	-1
654.864	1	6
655.034	1	0
655.203	1	2
655.373	1	2
655.542	1	-2
655.712	1	5
655.881	1	15
656.051	1	-1
656.220	1	2
656.390	1	-4
656.559	1	6
656.729	1	9
656.898	1	1
657.068	1	1
657.237	1	9
657.406	1	2
657.576	1	2
657.745	1	8
657.915	1	10
658.084	1	6
658.254	1	-8
658.423	1	3
658.593	1	-1
658.762	1	10
658.932	1	15
659.101	1	8
659.271	1	9
659.440	1	6
659.610	1	7
659.779	1	0
659.949	1	-1
660.118	1	-1
660.288	1	4
660.457	1	-1
660.626	1	2
660.796	1	5
660.965	1	2
661.135	1	11
661.304	1	6
661.474	1	6
661.643	1	7
661.813	1	1
661.982	1	-2
662.152	1	12
662.321	1	-1
662.491	1	14
662.660	1	8
662.829	1	9
662.999	1	2
663.168	1	7
663.338	1	7
663.507	1	10
663.677	1	-4
663.846	1	-3
664.016	1	2
664.185	1	5
664.354	1	15
664.524	1	-4
664.693	1	10
664.863	1	5
665.032	1	9
665.202	1	7
665.371	1	0
665.541	1	-3
665.710	1	5
665.879	1	4
666.049	1	6
666.218	1	2
666.388	1	6
666.557	1	6
666.727	1	-4
666.896	1	9
667.065	1	10
667.235	1	12
667.404	1	0
667.574	1	19
667.743	1	-6
667.913	1	2
668.082	1	5
668.251	1	19
668.421	1	3
668.590	1	7
668.760	1	-3
668.929	1	3
669.099	1	-13
669.268	1	8
669.437	1	-2
669.607	1	2
669.776	1	1
669.946	1	5
670.115	1	14
670.285	1	5
670.454	1	-6
670.623	1	15
670.793	1	-8
670.962	1	-2
671.132	1	-3
671.301	1	4
671.470	1	15
671.640	1	2
671.809	1	-2
671.979	1	-3
672.148	1	0
672.317	1	7
672.487	1	-7
672.656	1	7
672.826	1	4
672.995	1	13
673.164	1	15
673.334	1	-3
673.503	1	3
673.673	1	5
673.842	1	-2
674.011	1	6
674.181	1	16
674.350	1	4
674.520	1	0
674.689	1	12
674.858	1	-1
675.028	1	4
675.197	1	0
675.367	1	-6
675.536	1	12
675.705	1	11
675.875	1	10
676.044	1	8
676.214	1	10
676.383	1	5
676.552	1	9
676.722	1	7
676.891	1	3
677.060	1	11
677.230	1	5
677.399	1	4
677.569	1	1
677.738	1	-1
677.907	1	3
678.077	1	4
678.246	1	11
678.416	1	16
678.585	1	4
678.754	1	16
678.924	1	12
679.093	1	7
679.262	1	2
679.432	1	7
679.601	1	10
679.771	1	7
679.940	1	0
680.109	1	-2
680.279	1	11
680.448	1	14
680.617	1	-11
680.787	1	5
680.956	1	-7
681.125	1	11
681.295	1	5
681.464	1	-5
681.634	1	17
681.803	1	-5
681.972	1	8
682.142	1	8
682.311	1	2
682.480	1	1
682.650	1	-3
682.819	1	6
682.988	1	0
683.158	1	3
683.327	1	0
683.496	1	-5
683.666	1	7
683.835	1	1
684.004	1	8
684.174	1	7
684.343	1	3
684.512	1	11
684.682	1	6
684.851	1	-5
685.021	1	3
685.190	1	0
685.359	1	-5
685.529	1	0
685.698	1	3
685.867	1	6
686.037	1	4
686.206	1	5
686.375	1	-5
686.545	1	2
686.714	1	-7
686.883	1	3
687.053	1	-1
687.222	1	-3
687.391	1	-1
687.561	1	10
687.730	1	8
687.899	1	6
688.069	1	3
688.238	1	7
688.407	1	3
688.577	1	2
688.746	1	6
