340.368	1	11
340.539	1	15
340.710	1	8
340.881	1	3
341.052	1	-4
341.223	1	-1
341.394	1	5
341.565	1	-3
341.737	1	3
341.908	1	-1
342.079	1	2
342.250	1	13
342.421	1	19
342.592	1	4
342.763	1	8
342.934	1	2
343.105	1	1
343.276	1	3
343.447	1	13
343.618	1	3
343.789	1	5
343.960	1	-9
344.131	1	8
344.302	1	8
344.473	1	5
344.644	1	8
344.815	1	-6
344.986	1	6
345.157	1	-9
345.328	1	10
345.499	1	4
345.670	1	1
345.841	1	-2
346.012	1	13
346.183	1	5
346.354	1	0
346.526	1	0
346.697	1	3
346.868	1	10
347.039	1	5
347.210	1	5
347.381	1	10
347.552	1	4
347.723	1	8
347.894	1	-3
348.065	1	-2
348.236	1	5
348.407	1	4
348.578	1	4
348.749	1	6
348.920	1	10
349.091	1	12
349.262	1	14
349.433	1	9
349.604	1	8
349.775	1	-2
349.946	1	8
350.117	1	14
350.288	1	0
350.459	1	-10
350.630	1	0
350.801	1	-3
350.972	1	14
351.143	1	4
351.314	1	1
351.485	1	7
351.656	1	19
351.827	1	3
351.998	1	10
352.169	1	8
352.340	1	11
352.511	1	2
352.682	1	10
352.853	1	14
353.024	1	16
353.195	1	4
353.366	1	17
353.537	1	3
353.708	1	6
353.879	1	1
354.050	1	8
354.221	1	13
354.392	1	4
354.563	1	3
354.734	1	9
354.905	1	12
355.076	1	7
355.247	1	4
355.418	1	14
355.589	1	0
355.760	1	3
355.931	1	4
356.102	1	-1
356.273	1	10
356.444	1	1
356.615	1	4
356.785	1	17
356.956	1	15
357.127	1	9
357.298	1	6
357.469	1	1
357.640	1	7
357.811	1	16
357.982	1	13
358.153	1	10
358.324	1	6
358.495	1	17
358.666	1	9
358.837	1	10
359.008	1	22
359.179	1	8
359.350	1	14
359.521	1	11
359.692	1	24
359.863	1	14
360.034	1	19
360.205	1	21
360.376	1	19
360.547	1	17
360.718	1	23
360.889	1	5
361.060	1	12
361.231	1	8
361.401	1	18
361.572	1	23
361.743	1	22
361.914	1	18
362.085	1	23
362.256	1	16
362.427	1	27
362.598	1	24
362.769	1	31
362.940	1	17
363.111	1	32
363.282	1	39
363.453	1	23
363.624	1	19
363.795	1	36
363.966	1	49
364.137	1	28
364.308	1	46
364.478	1	36
364.649	1	46
364.820	1	43
364.991	1	51
365.162	1	41
365.333	1	36
365.504	1	51
365.675	1	52
365.846	1	43
366.017	1	49
366.188	1	43
366.359	1	65
366.530	1	45
366.701	1	61
366.871	1	66
367.042	1	63
367.213	1	57
367.384	1	63
367.555	1	65
367.726	1	63
367.897	1	50
368.068	1	65
368.239	1	62
368.410	1	48
368.581	1	62
368.752	1	61
368.923	1	62
369.093	1	52
369.264	1	53
369.435	1	47
369.606	1	67
369.777	1	58
369.948	1	52
370.119	1	57
370.290	1	54
370.461	1	48
370.632	1	41
370.803	1	45
370.973	1	51
371.144	1	48
371.315	1	61
371.486	1	47
371.657	1	45
371.828	1	42
371.999	1	38
372.170	1	40
372.341	1	39
372.512	1	43
372.682	1	31
372.853	1	33
373.024	1	32
373.195	1	36
373.366	1	41
373.537	1	40
373.708	1	34
373.879	1	42
374.050	1	36
374.220	1	31
374.391	1	42
374.562	1	29
374.733	1	29
374.904	1	37
375.075	1	46
375.246	1	37
375.417	1	24
375.588	1	27
375.758	1	23
375.929	1	15
376.100	1	21
376.271	1	44
376.442	1	18
376.613	1	22
376.784	1	41
376.955	1	31
377.125	1	21
377.296	1	34
377.467	1	35
377.638	1	9
377.809	1	21
377.980	1	24
378.151	1	28
378.321	1	5
378.492	1	27
378.663	1	17
378.834	1	10
379.005	1	24
379.176	1	14
379.347	1	22
379.518	1	29
379.688	1	14
379.859	1	20
380.030	1	17
380.201	1	26
380.372	1	24
380.543	1	22
380.714	1	22
380.884	1	16
381.055	1	15
381.226	1	17
381.397	1	14
381.568	1	9
381.739	1	26
381.910	1	24
382.080	1	8
382.251	1	25
382.422	1	23
382.593	1	11
382.764	1	10
382.935	1	15
383.105	1	19
383.276	1	15
383.447	1	23
383.618	1	17
383.789	1	21
383.960	1	12
384.130	1	14
384.301	1	12
384.472	1	17
384.643	1	21
384.814	1	14
384.985	1	18
385.156	1	9
385.326	1	13
385.497	1	14
385.668	1	21
385.839	1	13
386.010	1	9
386.180	1	14
386.351	1	25
386.522	1	15
386.693	1	13
386.864	1	30
387.035	1	23
387.205	1	9
387.376	1	13
387.547	1	14
387.718	1	17
387.889	1	10
388.060	1	13
388.230	1	17
388.401	1	22
388.572	1	12
388.743	1	19
388.914	1	11
389.084	1	7
389.255	1	15
389.426	1	21
389.597	1	-8
389.768	1	14
389.939	1	10
390.109	1	17
390.280	1	14
390.451	1	13
390.622	1	9
390.793	1	16
390.963	1	18
391.134	1	11
391.305	1	7
391.476	1	16
391.647	1	9
391.817	1	19
391.988	1	15
392.159	1	10
392.330	1	5
392.501	1	8
392.671	1	5
392.842	1	21
393.013	1	9
393.184	1	13
393.355	1	12
393.525	1	20
393.696	1	18
393.867	1	10
394.038	1	5
394.208	1	5
394.379	1	15
394.550	1	19
394.721	1	18
394.892	1	14
395.062	1	5
395.233	1	11
395.404	1	1
395.575	1	6
395.746	1	14
395.916	1	15
396.087	1	23
396.258	1	11
396.429	1	12
396.599	1	16
396.770	1	13
396.941	1	16
397.112	1	18
397.283	1	14
397.453	1	15
397.624	1	15
397.795	1	12
397.966	1	13
398.136	1	12
398.307	1	16
398.478	1	20
398.649	1	14
398.819	1	-10
398.990	1	6
399.161	1	13
399.332	1	23
399.503	1	20
399.673	1	12
399.844	1	8
400.015	1	22
400.186	1	7
400.356	1	15
400.527	1	7
400.698	1	10
400.869	1	18
401.039	1	18
401.210	1	2
401.381	1	13
401.552	1	21
401.722	1	4
401.893	1	5
402.064	1	2
402.235	1	14
402.405	1	11
402.576	1	15
402.747	1	14
402.918	1	11
403.088	1	10
403.259	1	0
403.430	1	5
403.601	1	13
403.771	1	9
403.942	1	8
404.113	1	10
404.284	1	10
404.454	1	12
404.625	1	22
404.796	1	13
404.967	1	12
405.137	1	14
405.308	1	15
405.479	1	14
405.649	1	5
405.820	1	17
405.991	1	17
406.162	1	7
406.332	1	15
406.503	1	6
406.674	1	19
406.845	1	3
407.015	1	14
407.186	1	17
407.357	1	19
407.527	1	1
407.698	1	12
407.869	1	13
408.040	1	10
408.210	1	17
408.381	1	18
408.552	1	0
408.722	1	10
408.893	1	12
409.064	1	12
409.235	1	4
409.405	1	22
409.576	1	22
409.747	1	3
409.917	1	2
410.088	1	20
410.259	1	12
410.430	1	14
410.600	1	13
410.771	1	-3
410.942	1	5
411.112	1	13
411.283	1	6
411.454	1	19
411.625	1	10
411.795	1	16
411.966	1	1
412.137	1	3
412.307	1	5
412.478	1	5
412.649	1	12
412.819	1	14
412.990	1	12
413.161	1	10
413.332	1	1
413.502	1	13
413.673	1	10
413.844	1	10
414.014	1	14
414.185	1	26
414.356	1	11
414.526	1	5
414.697	1	5
414.868	1	11
415.038	1	12
415.209	1	3
415.380	1	13
415.550	1	8
415.721	1	2
415.892	1	25
416.063	1	3
416.233	1	18
416.404	1	10
416.575	1	8
416.745	1	7
416.916	1	-5
417.087	1	-3
417.257	1	10
417.428	1	11
417.599	1	11
417.769	1	12
417.940	1	20
418.111	1	8
418.281	1	4
418.452	1	11
418.623	1	0
418.793	1	-2
418.964	1	4
419.135	1	20
419.305	1	11
419.476	1	5
419.647	1	18
419.817	1	2
419.988	1	15
420.159	1	10
420.329	1	14
420.500	1	5
420.671	1	6
420.841	1	17
421.012	1	11
421.183	1	11
421.353	1	-3
421.524	1	12
421.695	1	2
421.865	1	12
422.036	1	12
422.206	1	12
422.377	1	4
422.548	1	13
422.718	1	7
422.889	1	7
423.060	1	12
423.230	1	10
423.401	1	10
423.572	1	2
423.742	1	14
423.913	1	9
424.084	1	8
424.254	1	17
424.425	1	10
424.595	1	13
424.766	1	6
424.937	1	9
425.107	1	1
425.278	1	7
425.449	1	7
425.619	1	10
425.790	1	11
425.961	1	16
426.131	1	24
426.302	1	13
426.472	1	4
426.643	1	10
426.814	1	14
426.984	1	6
427.155	1	6
427.326	1	2
427.496	1	4
427.667	1	14
427.837	1	19
428.008	1	11
428.179	1	15
428.349	1	3
428.520	1	7
428.691	1	6
428.861	1	-1
429.032	1	23
429.202	1	4
429.373	1	16
429.544	1	21
429.714	1	9
429.885	1	12
430.055	1	2
430.226	1	6
430.397	1	-1
430.567	1	-1
430.738	1	-2
430.909	1	14
431.079	1	22
431.250	1	11
431.420	1	10
431.591	1	8
431.762	1	6
431.932	1	9
432.103	1	-3
432.273	1	10
432.444	1	6
432.615	1	10
432.785	1	7
432.956	1	-6
433.126	1	16
433.297	1	13
433.468	1	8
433.638	1	11
433.809	1	10
433.979	1	8
434.150	1	-3
434.320	1	11
434.491	1	8
434.662	1	8
434.832	1	6
435.003	1	7
435.173	1	5
435.344	1	11
435.515	1	13
435.685	1	-5
435.856	1	-1
436.026	1	14
436.197	1	11
436.368	1	-3
436.538	1	7
436.709	1	1
436.879	1	12
437.050	1	15
437.220	1	-3
437.391	1	15
437.562	1	11
437.732	1	7
437.903	1	11
438.073	1	13
438.244	1	7
438.414	1	0
438.585	1	10
438.756	1	18
438.926	1	9
439.097	1	7
439.267	1	5
439.438	1	-1
439.608	1	19
439.779	1	16
439.949	1	10
440.120	1	2
440.291	1	9
440.461	1	21
440.632	1	20
440.802	1	-5
440.973	1	13
441.143	1	-2
441.314	1	4
441.485	1	11
441.655	1	17
441.826	1	1
441.996	1	5
442.167	1	6
442.337	1	8
442.508	1	9
442.678	1	5
442.849	1	11
443.019	1	10
443.190	1	6
443.361	1	-6
443.531	1	10
443.702	1	12
443.872	1	15
444.043	1	3
444.213	1	4
444.384	1	-4
444.554	1	5
444.725	1	15
444.895	1	-1
445.066	1	6
445.237	1	-2
445.407	1	2
445.578	1	5
445.748	1	15
445.919	1	-2
446.089	1	5
446.260	1	2
446.430	1	9
446.601	1	8
446.771	1	9
446.942	1	3
447.112	1	6
447.283	1	4
447.453	1	3
447.624	1	4
447.794	1	26
447.965	1	7
448.135	1	21
448.306	1	16
448.477	1	8
448.647	1	13
448.818	1	5
448.988	1	7
449.159	1	6
449.329	1	-6
449.500	1	0
449.670	1	6
449.841	1	-2
450.011	1	5
450.182	1	19
450.352	1	13
450.523	1	8
450.693	1	8
450.864	1	0
451.034	1	5
451.205	1	5
451.375	1	2
451.546	1	12
451.716	1	-8
451.887	1	1
452.057	1	15
452.228	1	7
452.398	1	0
452.569	1	5
452.739	1	11
452.910	1	7
453.080	1	-1
453.251	1	18
453.421	1	4
453.592	1	12
453.762	1	4
453.933	1	13
454.103	1	-1
454.274	1	-6
454.444	1	7
454.615	1	2
454.785	1	9
454.956	1	-2
455.126	1	-2
455.297	1	18
455.467	1	2
455.638	1	15
455.808	1	5
455.979	1	11
456.149	1	-5
456.320	1	5
456.490	1	6
456.661	1	0
456.831	1	10
457.001	1	8
457.172	1	0
457.342	1	7
457.513	1	-1
457.683	1	7
457.854	1	8
458.024	1	7
458.195	1	-3
458.365	1	18
458.536	1	3
458.706	1	5
458.877	1	25
459.047	1	-8
459.218	1	4
459.388	1	-3
459.559	1	-3
459.729	1	4
459.899	1	13
460.070	1	7
460.240	1	15
460.411	1	9
460.581	1	1
460.752	1	2
460.922	1	4
461.093	1	6
461.263	1	2
461.434	1	10
461.604	1	-13
461.775	1	8
461.945	1	13
462.115	1	1
462.286	1	7
462.456	1	4
462.627	1	4
462.797	1	15
462.968	1	3
463.138	1	4
463.309	1	1
463.479	1	10
463.649	1	-2
463.820	1	-2
463.990	1	3
464.161	1	-9
464.331	1	8
464.502	1	9
464.672	1	6
464.843	1	-1
465.013	1	11
465.183	1	10
465.354	1	5
465.524	1	-3
465.695	1	15
465.865	1	-13
466.036	1	9
466.206	1	10
466.376	1	17
466.547	1	-5
466.717	1	15
466.888	1	10
467.058	1	8
467.229	1	-3
467.399	1	-5
467.569	1	6
467.740	1	20
467.910	1	3
468.081	1	21
468.251	1	5
468.422	1	11
468.592	1	4
468.762	1	1
468.933	1	10
469.103	1	10
469.274	1	12
469.444	1	8
469.614	1	1
469.785	1	2
469.955	1	0
470.126	1	-8
470.296	1	-1
470.467	1	5
470.637	1	12
470.807	1	-1
470.978	1	2
471.148	1	8
471.319	1	8
471.489	1	-2
471.659	1	0
471.830	1	12
472.000	1	4
472.171	1	0
472.341	1	-4
472.511	1	1
472.682	1	3
472.852	1	11
473.023	1	1
473.193	1	11
473.363	1	13
473.534	1	0
473.704	1	10
473.875	1	25
474.045	1	-3
474.215	1	9
474.386	1	-6
474.556	1	12
474.727	1	6
474.897	1	3
475.067	1	1
475.238	1	15
475.408	1	7
475.578	1	5
475.749	1	6
475.919	1	1
476.090	1	0
476.260	1	0
476.430	1	14
476.601	1	6
476.771	1	-2
476.942	1	9
477.112	1	9
477.282	1	13
477.453	1	11
477.623	1	-15
477.793	1	5
477.964	1	3
478.134	1	19
478.305	1	17
478.475	1	-3
478.645	1	6
478.816	1	5
478.986	1	-3
479.156	1	2
479.327	1	-6
479.497	1	8
479.667	1	9
479.838	1	4
480.008	1	6
480.179	1	5
480.349	1	12
480.519	1	-4
480.690	1	7
480.860	1	15
481.030	1	9
481.201	1	10
481.371	1	9
481.541	1	5
481.712	1	11
481.882	1	5
482.053	1	10
482.223	1	2
482.393	1	13
482.564	1	-3
482.734	1	8
482.904	1	11
483.075	1	16
483.245	1	3
483.415	1	2
483.586	1	2
483.756	1	7
483.926	1	13
484.097	1	8
484.267	1	13
484.437	1	0
484.608	1	17
484.778	1	16
484.948	1	11
485.119	1	10
485.289	1	5
485.459	1	-7
485.630	1	10
485.800	1	9
485.970	1	0
486.141	1	2
486.311	1	17
486.481	1	6
486.652	1	5
486.822	1	8
486.992	1	8
487.163	1	6
487.333	1	6
487.503	1	-4
487.674	1	10
487.844	1	-4
488.014	1	13
488.185	1	11
488.355	1	11
488.525	1	18
488.696	1	10
488.866	1	14
489.036	1	13
489.207	1	11
489.377	1	10
489.547	1	3
489.718	1	15
489.888	1	11
490.058	1	12
490.228	1	7
490.399	1	8
490.569	1	13
490.739	1	9
490.910	1	0
491.080	1	2
491.250	1	13
491.421	1	8
491.591	1	8
491.761	1	7
491.932	1	12
492.102	1	14
492.272	1	7
492.442	1	9
492.613	1	4
492.783	1	2
492.953	1	7
493.124	1	7
493.294	1	24
493.464	1	7
493.635	1	15
493.805	1	3
493.975	1	13
494.145	1	6
494.316	1	6
494.486	1	22
494.656	1	9
494.827	1	13
494.997	1	8
495.167	1	8
495.337	1	10
495.508	1	-5
495.678	1	4
495.848	1	15
496.019	1	5
496.189	1	18
496.359	1	15
496.529	1	13
496.700	1	6
496.870	1	25
497.040	1	14
497.211	1	-5
497.381	1	16
497.551	1	18
497.721	1	5
497.892	1	11
498.062	1	13
498.232	1	27
498.403	1	-5
498.573	1	14
498.743	1	20
498.913	1	13
499.084	1	4
499.254	1	12
499.424	1	5
499.594	1	9
499.765	1	8
499.935	1	8
500.105	1	12
500.275	1	21
500.446	1	11
500.616	1	7
500.786	1	9
500.956	1	8
501.127	1	18
501.297	1	8
501.467	1	12
501.638	1	3
501.808	1	19
501.978	1	14
502.148	1	17
502.319	1	11
502.489	1	13
502.659	1	12
502.829	1	15
503.000	1	17
503.170	1	3
503.340	1	10
503.510	1	18
503.681	1	14
503.851	1	17
504.021	1	10
504.191	1	13
504.362	1	8
504.532	1	19
504.702	1	10
504.872	1	18
505.042	1	13
505.213	1	7
505.383	1	22
505.553	1	16
505.723	1	16
505.894	1	17
506.064	1	26
506.234	1	5
506.404	1	10
506.575	1	14
506.745	1	19
506.915	1	19
507.085	1	16
507.256	1	22
507.426	1	10
507.596	1	14
507.766	1	18
507.936	1	10
508.107	1	11
508.277	1	20
508.447	1	30
508.617	1	13
508.788	1	10
508.958	1	15
509.128	1	16
509.298	1	9
509.468	1	9
509.639	1	22
509.809	1	23
509.979	1	19
510.149	1	25
510.319	1	18
510.490	1	21
510.660	1	4
510.830	1	28
511.000	1	23
511.171	1	27
511.341	1	6
511.511	1	13
511.681	1	21
511.851	1	26
512.022	1	15
512.192	1	6
512.362	1	22
512.532	1	19
512.702	1	18
512.873	1	13
513.043	1	21
513.213	1	19
513.383	1	24
513.553	1	23
513.724	1	11
513.894	1	5
514.064	1	12
514.234	1	25
514.404	1	32
514.575	1	12
514.745	1	16
514.915	1	5
515.085	1	22
515.255	1	17
515.425	1	16
515.596	1	14
515.766	1	20
515.936	1	20
516.106	1	20
516.276	1	20
516.447	1	11
516.617	1	20
516.787	1	15
516.957	1	10
517.127	1	22
517.297	1	9
517.468	1	20
517.638	1	23
517.808	1	18
517.978	1	21
518.148	1	27
518.319	1	18
518.489	1	20
518.659	1	18
518.829	1	23
518.999	1	28
519.169	1	22
519.340	1	9
519.510	1	25
519.680	1	17
519.850	1	31
520.020	1	26
520.190	1	26
520.361	1	14
520.531	1	27
520.701	1	19
520.871	1	11
521.041	1	26
521.211	1	26
521.382	1	22
521.552	1	24
521.722	1	24
521.892	1	22
522.062	1	15
522.232	1	14
522.402	1	20
522.573	1	13
522.743	1	26
522.913	1	23
523.083	1	18
523.253	1	22
523.423	1	31
523.593	1	24
523.764	1	21
523.934	1	12
524.104	1	22
524.274	1	5
524.444	1	21
524.614	1	22
524.784	1	33
524.955	1	24
525.125	1	23
525.295	1	26
525.465	1	28
525.635	1	9
525.805	1	15
525.975	1	37
526.146	1	23
526.316	1	13
526.486	1	35
526.656	1	14
526.826	1	27
526.996	1	24
527.166	1	26
527.337	1	25
527.507	1	22
527.677	1	8
527.847	1	23
528.017	1	35
528.187	1	27
528.357	1	24
528.527	1	41
528.698	1	18
528.868	1	16
529.038	1	15
529.208	1	13
529.378	1	17
529.548	1	9
529.718	1	28
529.888	1	25
530.058	1	13
530.229	1	26
530.399	1	25
530.569	1	25
530.739	1	12
530.909	1	14
531.079	1	28
531.249	1	23
531.419	1	28
531.589	1	21
531.760	1	20
531.930	1	20
532.100	1	28
532.270	1	28
532.440	1	32
532.610	1	17
532.780	1	26
532.950	1	25
533.120	1	27
533.290	1	32
533.461	1	14
533.631	1	30
533.801	1	32
533.971	1	22
534.141	1	23
534.311	1	35
534.481	1	23
534.651	1	19
534.821	1	34
534.991	1	22
535.162	1	23
535.332	1	25
535.502	1	19
535.672	1	29
535.842	1	23
536.012	1	20
536.182	1	26
536.352	1	29
536.522	1	19
536.692	1	25
536.862	1	26
537.032	1	18
537.203	1	7
537.373	1	28
537.543	1	13
537.713	1	27
537.883	1	21
538.053	1	11
538.223	1	24
538.393	1	31
538.563	1	26
538.733	1	20
538.903	1	26
539.073	1	15
539.243	1	26
539.413	1	16
539.584	1	17
539.754	1	12
539.924	1	25
540.094	1	16
540.264	1	16
540.434	1	24
540.604	1	29
540.774	1	25
540.944	1	26
541.114	1	8
541.284	1	15
541.454	1	9
541.624	1	28
541.794	1	25
541.964	1	12
542.134	1	26
542.305	1	27
542.475	1	20
542.645	1	30
542.815	1	27
542.985	1	11
543.155	1	16
543.325	1	16
543.495	1	15
543.665	1	22
543.835	1	18
544.005	1	23
544.175	1	13
544.345	1	8
544.515	1	20
544.685	1	31
544.855	1	16
545.025	1	13
545.195	1	13
545.365	1	18
545.535	1	32
545.705	1	14
545.875	1	32
546.045	1	15
546.216	1	30
546.386	1	18
546.556	1	9
546.726	1	7
546.896	1	17
547.066	1	15
547.236	1	12
547.406	1	4
547.576	1	25
547.746	1	17
547.916	1	17
548.086	1	7
548.256	1	7
548.426	1	20
548.596	1	26
548.766	1	20
548.936	1	25
549.106	1	1
549.276	1	10
549.446	1	10
549.616	1	27
549.786	1	27
549.956	1	10
550.126	1	36
550.296	1	14
550.466	1	17
550.636	1	20
550.806	1	30
550.976	1	18
551.146	1	13
551.316	1	15
551.486	1	13
551.656	1	16
551.826	1	23
551.996	1	23
552.166	1	22
552.336	1	14
552.506	1	28
552.676	1	20
552.846	1	17
553.016	1	20
553.186	1	16
553.356	1	16
553.526	1	24
553.696	1	11
553.866	1	12
554.036	1	19
554.206	1	13
554.376	1	20
554.546	1	23
554.716	1	11
554.886	1	8
555.056	1	15
555.226	1	12
555.396	1	16
555.566	1	17
555.736	1	15
555.906	1	19
556.076	1	12
556.246	1	15
556.416	1	25
556.586	1	13
556.756	1	17
556.926	1	15
557.096	1	15
557.266	1	13
557.436	1	17
557.606	1	21
557.776	1	16
557.946	1	17
558.116	1	11
558.286	1	26
558.456	1	13
558.626	1	-1
558.796	1	19
558.966	1	14
559.136	1	13
559.306	1	16
559.476	1	20
559.646	1	15
559.816	1	18
559.986	1	12
560.155	1	15
560.325	1	8
560.495	1	11
560.665	1	18
560.835	1	19
561.005	1	17
561.175	1	17
561.345	1	18
561.515	1	11
561.685	1	17
561.855	1	4
562.025	1	1
562.195	1	0
562.365	1	13
562.535	1	12
562.705	1	15
562.875	1	15
563.045	1	13
563.215	1	20
563.385	1	18
563.555	1	23
563.725	1	-3
563.895	1	15
564.064	1	15
564.234	1	20
564.404	1	11
564.574	1	13
564.744	1	12
564.914	1	16
565.084	1	16
565.254	1	13
565.424	1	5
565.594	1	21
565.764	1	12
565.934	1	24
566.104	1	6
566.274	1	16
566.444	1	24
566.614	1	14
566.783	1	21
566.953	1	8
567.123	1	11
567.293	1	22
567.463	1	-3
567.633	1	7
567.803	1	20
567.973	1	11
568.143	1	14
568.313	1	15
568.483	1	18
568.653	1	6
568.823	1	-2
568.993	1	12
569.162	1	8
569.332	1	15
569.502	1	15
569.672	1	2
569.842	1	9
570.012	1	0
570.182	1	20
570.352	1	4
570.522	1	5
570.692	1	11
570.862	1	35
571.031	1	17
571.201	1	11
571.371	1	9
571.541	1	0
571.711	1	7
571.881	1	2
572.051	1	13
572.221	1	21
572.391	1	16
572.561	1	13
572.731	1	11
572.900	1	10
573.070	1	12
573.240	1	5
573.410	1	4
573.580	1	11
573.750	1	5
573.920	1	13
574.090	1	6
574.260	1	8
574.430	1	14
574.599	1	12
574.769	1	-1
574.939	1	17
575.109	1	17
575.279	1	14
575.449	1	15
575.619	1	10
575.789	1	16
575.959	1	13
576.128	1	5
576.298	1	11
576.468	1	0
576.638	1	6
576.808	1	10
576.978	1	3
577.148	1	15
577.318	1	17
577.487	1	9
577.657	1	20
577.827	1	-5
577.997	1	11
578.167	1	5
578.337	1	12
578.507	1	-3
578.677	1	24
578.846	1	13
579.016	1	14
579.186	1	4
579.356	1	15
579.526	1	11
579.696	1	7
579.866	1	7
580.036	1	7
580.205	1	7
580.375	1	-4
580.545	1	4
580.715	1	13
580.885	1	6
581.055	1	8
581.225	1	6
581.394	1	14
581.564	1	2
581.734	1	17
581.904	1	6
582.074	1	10
582.244	1	4
582.414	1	2
582.583	1	18
582.753	1	9
582.923	1	11
583.093	1	6
583.263	1	-1
583.433	1	9
583.603	1	6
583.772	1	16
583.942	1	3
584.112	1	12
584.282	1	2
584.452	1	10
584.622	1	-5
584.791	1	17
584.961	1	-2
585.131	1	7
585.301	1	11
585.471	1	8
585.641	1	24
585.811	1	7
585.980	1	7
586.150	1	17
586.320	1	6
586.490	1	7
586.660	1	-1
586.830	1	2
586.999	1	-1
587.169	1	5
587.339	1	-2
587.509	1	15
587.679	1	19
587.849	1	7
588.018	1	10
588.188	1	6
588.358	1	-3
588.528	1	9
588.698	1	9
588.867	1	5
589.037	1	7
589.207	1	3
589.377	1	17
589.547	1	-4
589.717	1	-3
589.886	1	2
590.056	1	9
590.226	1	8
590.396	1	3
590.566	1	13
590.735	1	8
590.905	1	11
591.075	1	8
591.245	1	9
591.415	1	22
591.585	1	3
591.754	1	1
591.924	1	7
592.094	1	1
592.264	1	6
592.434	1	10
592.603	1	10
592.773	1	9
592.943	1	6
593.113	1	5
593.283	1	2
593.452	1	3
593.622	1	16
593.792	1	-11
593.962	1	11
594.132	1	6
594.301	1	6
594.471	1	5
594.641	1	11
594.811	1	8
594.981	1	-6
595.150	1	-3
595.320	1	11
595.490	1	0
595.660	1	4
595.829	1	0
595.999	1	13
596.169	1	6
596.339	1	12
596.509	1	-4
596.678	1	-3
596.848	1	13
597.018	1	9
597.188	1	14
597.358	1	2
597.527	1	-2
597.697	1	10
597.867	1	12
598.037	1	4
598.206	1	11
598.376	1	-1
598.546	1	10
598.716	1	16
598.885	1	8
599.055	1	1
599.225	1	15
599.395	1	-16
599.565	1	11
599.734	1	9
599.904	1	3
600.074	1	8
600.244	1	4
600.413	1	12
600.583	1	8
600.753	1	0
600.923	1	12
601.092	1	6
601.262	1	2
601.432	1	-6
601.602	1	-1
601.771	1	9
601.941	1	7
602.111	1	14
602.281	1	18
602.451	1	4
602.620	1	6
602.790	1	7
602.960	1	-1
603.130	1	7
603.299	1	7
603.469	1	4
603.639	1	-3
603.809	1	9
603.978	1	17
604.148	1	-1
604.318	1	3
604.487	1	14
604.657	1	-9
604.827	1	-6
604.997	1	13
605.166	1	15
605.336	1	3
605.506	1	6
605.676	1	3
605.845	1	4
606.015	1	15
606.185	1	6
606.355	1	11
606.524	1	5
606.694	1	0
606.864	1	20
607.034	1	13
607.203	1	-5
607.373	1	-1
607.543	1	9
607.712	1	6
607.882	1	7
608.052	1	5
608.222	1	9
608.391	1	7
608.561	1	8
608.731	1	6
608.901	1	16
609.070	1	15
609.240	1	-2
609.410	1	4
609.579	1	11
609.749	1	4
609.919	1	7
610.089	1	7
610.258	1	10
610.428	1	10
610.598	1	4
610.767	1	10
610.937	1	10
611.107	1	11
611.277	1	0
611.446	1	-2
611.616	1	-7
611.786	1	4
611.955	1	9
612.125	1	15
612.295	1	19
612.465	1	6
612.634	1	1
612.804	1	18
612.974	1	12
613.143	1	9
613.313	1	7
613.483	1	-10
613.652	1	-6
613.822	1	2
613.992	1	2
614.162	1	4
614.331	1	14
614.501	1	16
614.671	1	6
614.840	1	3
615.010	1	-6
615.180	1	4
615.349	1	-1
615.519	1	6
615.689	1	7
615.858	1	0
616.028	1	9
616.198	1	2
616.368	1	10
616.537	1	4
616.707	1	14
616.877	1	5
617.046	1	13
617.216	1	12
617.386	1	4
617.555	1	-4
617.725	1	5
617.895	1	8
618.064	1	4
618.234	1	9
618.404	1	0
618.573	1	12
618.743	1	15
618.913	1	2
619.082	1	1
619.252	1	-7
619.422	1	4
619.591	1	9
619.761	1	11
619.931	1	-3
620.100	1	-5
620.270	1	1
620.440	1	11
620.609	1	-4
620.779	1	9
620.949	1	3
621.118	1	7
621.288	1	-3
621.458	1	11
621.627	1	14
621.797	1	-1
621.967	1	13
622.136	1	6
622.306	1	5
622.476	1	4
622.645	1	11
622.815	1	-3
622.985	1	10
623.154	1	1
623.324	1	1
623.494	1	17
623.663	1	1
623.833	1	12
624.002	1	19
624.172	1	-1
624.342	1	10
624.511	1	15
624.681	1	12
624.851	1	-1
625.020	1	12
625.190	1	6
625.360	1	-3
625.529	1	-2
625.699	1	1
625.869	1	9
626.038	1	4
626.208	1	0
626.377	1	10
626.547	1	10
626.717	1	8
626.886	1	-1
627.056	1	11
627.226	1	-1
627.395	1	-5
627.565	1	1
627.735	1	14
627.904	1	4
628.074	1	5
628.243	1	8
628.413	1	2
628.583	1	-4
628.752	1	7
628.922	1	3
629.091	1	-8
629.261	1	-8
629.431	1	7
629.600	1	9
629.770	1	-2
629.940	1	15
630.109	1	9
630.279	1	15
630.448	1	-1
630.618	1	5
630.788	1	3
630.957	1	0
631.127	1	-5
631.297	1	3
631.466	1	7
631.636	1	9
631.805	1	9
631.975	1	10
632.145	1	0
632.314	1	4
632.484	1	-4
632.653	1	-2
632.823	1	0
632.993	1	10
633.162	1	4
633.332	1	-1
633.501	1	16
633.671	1	1
633.841	1	17
634.010	1	-7
634.180	1	11
634.349	1	5
634.519	1	6
634.689	1	8
634.858	1	15
635.028	1	0
635.197	1	5
635.367	1	5
635.537	1	11
635.706	1	1
635.876	1	7
636.045	1	19
636.215	1	9
636.384	1	6
636.554	1	10
636.724	1	12
636.893	1	8
637.063	1	6
637.232	1	-1
637.402	1	-2
637.572	1	3
637.741	1	13
637.911	1	-1
638.080	1	9
638.250	1	9
638.419	1	15
638.589	1	-1
638.759	1	16
638.928	1	-2
639.098	1	-6
639.267	1	11
639.437	1	16
639.606	1	11
639.776	1	3
639.946	1	0
640.115	1	10
640.285	1	8
640.454	1	7
640.624	1	-11
640.793	1	-11
640.963	1	-3
641.132	1	15
641.302	1	18
641.472	1	11
641.641	1	12
641.811	1	0
641.980	1	3
642.150	1	-6
642.319	1	8
642.489	1	2
642.659	1	0
642.828	1	3
642.998	1	12
643.167	1	8
643.337	1	4
643.506	1	5
643.676	1	7
643.845	1	-5
644.015	1	13
644.184	1	-1
644.354	1	0
644.524	1	3
644.693	1	7
644.863	1	2
645.032	1	8
645.202	1	10
645.371	1	5
645.541	1	0
645.710	1	8
645.880	1	11
646.049	1	-10
646.219	1	1
646.388	1	9
646.558	1	4
646.728	1	0
646.897	1	0
647.067	1	3
647.236	1	0
647.406	1	7
647.575	1	-7
647.745	1	3
647.914	1	-2
648.084	1	2
648.253	1	8
648.423	1	12
648.592	1	-6
648.762	1	0
648.931	1	1
649.101	1	0
649.270	1	5
649.440	1	-5
649.610	1	-3
649.779	1	6
649.949	1	-2
650.118	1	4
650.288	1	17
650.457	1	7
650.627	1	3
650.796	1	2
650.966	1	14
651.135	1	6
651.305	1	0
651.474	1	3
651.644	1	-1
651.813	1	3
651.983	1	-3
652.152	1	8
652.322	1	0
652.491	1	6
652.661	1	4
652.830	1	13
653.000	1	-1
653.169	1	-3
653.339	1	-3
653.508	1	1
653.678	1	-2
653.847	1	8
654.017	1	1
654.186	1	-2
654.356	1	3
654.525	1	15
654.695	1	-4
654.864	1	8
655.034	1	1
655.203	1	-6
655.373	1	4
655.542	1	-3
655.712	1	5
655.881	1	15
656.051	1	5
656.220	1	5
656.390	1	-7
656.559	1	9
656.729	1	6
656.898	1	17
657.068	1	-3
657.237	1	5
657.406	1	0
657.576	1	4
657.745	1	9
657.915	1	10
658.084	1	3
658.254	1	9
658.423	1	2
658.593	1	0
658.762	1	20
658.932	1	14
659.101	1	9
659.271	1	7
659.440	1	-9
659.610	1	5
659.779	1	6
659.949	1	6
660.118	1	0
660.288	1	-3
660.457	1	-5
660.626	1	7
660.796	1	3
660.965	1	5
661.135	1	6
661.304	1	8
661.474	1	1
661.643	1	6
661.813	1	10
661.982	1	5
662.152	1	8
662.321	1	1
662.491	1	8
662.660	1	0
662.829	1	6
662.999	1	1
663.168	1	-4
663.338	1	-8
663.507	1	0
663.677	1	6
663.846	1	0
664.016	1	9
664.185	1	-9
664.354	1	7
664.524	1	2
664.693	1	8
664.863	1	-4
665.032	1	10
665.202	1	0
665.371	1	4
665.541	1	-10
665.710	1	0
665.879	1	1
666.049	1	9
666.218	1	14
666.388	1	3
666.557	1	3
666.727	1	-2
666.896	1	9
667.065	1	10
667.235	1	12
667.404	1	6
667.574	1	10
667.743	1	3
667.913	1	6
668.082	1	7
668.251	1	4
668.421	1	2
668.590	1	5
668.760	1	3
668.929	1	8
669.099	1	-11
669.268	1	4
669.437	1	0
669.607	1	11
669.776	1	2
669.946	1	2
670.115	1	15
670.285	1	2
670.454	1	2
670.623	1	12
670.793	1	-3
670.962	1	1
671.132	1	-3
671.301	1	7
671.470	1	17
671.640	1	-4
671.809	1	1
671.979	1	2
672.148	1	6
672.317	1	6
672.487	1	-7
672.656	1	0
672.826	1	-1
672.995	1	4
673.164	1	9
673.334	1	-7
673.503	1	-8
673.673	1	7
673.842	1	9
674.011	1	5
674.181	1	20
674.350	1	8
674.520	1	0
674.689	1	0
674.858	1	-2
675.028	1	5
675.197	1	7
675.367	1	-7
675.536	1	10
675.705	1	5
675.875	1	7
676.044	1	9
676.214	1	16
676.383	1	1
676.552	1	2
676.722	1	-8
676.891	1	-8
677.060	1	9
677.230	1	10
677.399	1	0
677.569	1	6
677.738	1	3
677.907	1	0
678.077	1	3
678.246	1	9
678.416	1	6
678.585	1	4
678.754	1	0
678.924	1	7
679.093	1	4
679.262	1	5
679.432	1	3
679.601	1	10
679.771	1	12
679.940	1	-4
680.109	1	2
680.279	1	8
680.448	1	4
680.617	1	-8
680.787	1	15
680.956	1	-1
681.125	1	8
681.295	1	-3
681.464	1	0
681.634	1	9
681.803	1	2
681.972	1	6
682.142	1	-5
682.311	1	-2
682.480	1	10
682.650	1	1
682.819	1	0
682.988	1	-13
683.158	1	4
683.327	1	1
683.496	1	1
683.666	1	7
683.835	1	1
684.004	1	8
684.174	1	2
684.343	1	2
684.512	1	8
684.682	1	7
684.851	1	-11
685.021	1	10
685.190	1	3
685.359	1	-9
685.529	1	2
685.698	1	1
685.867	1	8
686.037	1	-4
686.206	1	11
686.375	1	7
686.545	1	-2
686.714	1	-1
686.883	1	2
687.053	1	11
687.222	1	-4
687.391	1	12
687.561	1	1
687.730	1	-2
687.899	1	2
688.069	1	-5
688.238	1	10
688.407	1	8
688.577	1	1
688.746	1	15
