340.368	1	-1
340.539	1	10
340.710	1	6
340.881	1	9
341.052	1	-1
341.223	1	-4
341.394	1	-4
341.565	1	-2
341.737	1	3
341.908	1	-2
342.079	1	-1
342.250	1	11
342.421	1	3
342.592	1	5
342.763	1	-2
342.934	1	5
343.105	1	16
343.276	1	-1
343.447	1	4
343.618	1	1
343.789	1	3
343.960	1	-14
344.131	1	4
344.302	1	4
344.473	1	-8
344.644	1	5
344.815	1	-5
344.986	1	9
345.157	1	-18
345.328	1	8
345.499	1	-9
345.670	1	5
345.841	1	-6
346.012	1	1
346.183	1	9
346.354	1	-3
346.526	1	6
346.697	1	0
346.868	1	4
347.039	1	2
347.210	1	3
347.381	1	3
347.552	1	2
347.723	1	9
347.894	1	-3
348.065	1	5
348.236	1	-7
348.407	1	-1
348.578	1	3
348.749	1	11
348.920	1	2
349.091	1	-1
349.262	1	14
349.433	1	5
349.604	1	0
349.775	1	3
349.946	1	1
350.117	1	4
350.288	1	-4
350.459	1	-8
350.630	1	11
350.801	1	-1
350.972	1	3
351.143	1	3
351.314	1	0
351.485	1	12
351.656	1	12
351.827	1	4
351.998	1	5
352.169	1	3
352.340	1	11
352.511	1	2
352.682	1	0
352.853	1	7
353.024	1	-3
353.195	1	2
353.366	1	5
353.537	1	5
353.708	1	-9
353.879	1	-2
354.050	1	0
354.221	1	5
354.392	1	6
354.563	1	-1
354.734	1	4
354.905	1	5
355.076	1	1
355.247	1	-1
355.418	1	12
355.589	1	-3
355.760	1	1
355.931	1	-4
356.102	1	0
356.273	1	6
356.444	1	0
356.615	1	0
356.785	1	1
356.956	1	11
357.127	1	7
357.298	1	3
357.469	1	2
357.640	1	2
357.811	1	-2
357.982	1	-2
358.153	1	-8
358.324	1	-4
358.495	1	12
358.666	1	8
358.837	1	6
359.008	1	7
359.179	1	-3
359.350	1	-1
359.521	1	-1
359.692	1	7
359.863	1	0
360.034	1	3
360.205	1	3
360.376	1	5
360.547	1	-4
360.718	1	1
360.889	1	7
361.060	1	1
361.231	1	-11
361.401	1	-4
361.572	1	9
361.743	1	3
361.914	1	2
362.085	1	16
362.256	1	6
362.427	1	20
362.598	1	3
362.769	1	7
362.940	1	-4
363.111	1	14
363.282	1	14
363.453	1	-5
363.624	1	5
363.795	1	-4
363.966	1	14
364.137	1	5
364.308	1	7
364.478	1	8
364.649	1	17
364.820	1	16
364.991	1	1
365.162	1	5
365.333	1	6
365.504	1	8
365.675	1	-1
365.846	1	9
366.017	1	10
366.188	1	10
366.359	1	16
366.530	1	11
366.701	1	18
366.871	1	17
367.042	1	17
367.213	1	15
367.384	1	22
367.555	1	10
367.726	1	1
367.897	1	8
368.068	1	4
368.239	1	12
368.410	1	8
368.581	1	27
368.752	1	28
368.923	1	14
369.093	1	8
369.264	1	12
369.435	1	-1
369.606	1	21
369.777	1	1
369.948	1	8
370.119	1	8
370.290	1	11
370.461	1	6
370.632	1	11
370.803	1	7
370.973	1	13
371.144	1	5
371.315	1	11
371.486	1	12
371.657	1	5
371.828	1	7
371.999	1	11
372.170	1	3
372.341	1	5
372.512	1	5
372.682	1	13
372.853	1	2
373.024	1	1
373.195	1	6
373.366	1	10
373.537	1	10
373.708	1	9
373.879	1	11
374.050	1	8
374.220	1	-7
374.391	1	8
374.562	1	-4
374.733	1	3
374.904	1	6
375.075	1	11
375.246	1	0
375.417	1	-1
375.588	1	1
375.758	1	-6
375.929	1	-1
376.100	1	4
376.271	1	2
376.442	1	13
376.613	1	-1
376.784	1	8
376.955	1	3
377.125	1	7
377.296	1	3
377.467	1	13
377.638	1	-14
377.809	1	-9
377.980	1	-10
378.151	1	5
378.321	1	8
378.492	1	9
378.663	1	3
378.834	1	4
379.005	1	13
379.176	1	3
379.347	1	-2
379.518	1	10
379.688	1	1
379.859	1	4
380.030	1	1
380.201	1	8
380.372	1	15
380.543	1	-7
380.714	1	21
380.884	1	-5
381.055	1	6
381.226	1	9
381.397	1	11
381.568	1	6
381.739	1	-1
381.910	1	0
382.080	1	-3
382.251	1	6
382.422	1	10
382.593	1	9
382.764	1	7
382.935	1	0
383.105	1	1
383.276	1	0
383.447	1	3
383.618	1	5
383.789	1	11
383.960	1	-4
384.130	1	9
384.301	1	-3
384.472	1	16
384.643	1	8
384.814	1	2
384.985	1	14
385.156	1	1
385.326	1	-4
385.497	1	-3
385.668	1	4
385.839	1	2
386.010	1	2
386.180	1	13
386.351	1	3
386.522	1	6
386.693	1	-3
386.864	1	6
387.035	1	15
387.205	1	0
387.376	1	4
387.547	1	10
387.718	1	6
387.889	1	0
388.060	1	-1
388.230	1	-7
388.401	1	2
388.572	1	0
388.743	1	12
388.914	1	-1
389.084	1	12
389.255	1	-4
389.426	1	3
389.597	1	-6
389.768	1	1
389.939	1	4
390.109	1	4
390.280	1	11
390.451	1	9
390.622	1	6
390.793	1	7
390.963	1	7
391.134	1	3
391.305	1	-5
391.476	1	-1
391.647	1	-6
391.817	1	2
391.988	1	11
392.159	1	1
392.330	1	-2
392.501	1	11
392.671	1	-10
392.842	1	1
393.013	1	4
393.184	1	10
393.355	1	8
393.525	1	-3
393.696	1	1
393.867	1	8
394.038	1	8
394.208	1	-7
394.379	1	8
394.550	1	8
394.721	1	2
394.892	1	4
395.062	1	2
395.233	1	2
395.404	1	1
395.575	1	8
395.746	1	7
395.916	1	18
396.087	1	11
396.258	1	8
396.429	1	6
396.599	1	11
396.770	1	12
396.941	1	10
397.112	1	8
397.283	1	3
397.453	1	7
397.624	1	3
397.795	1	5
397.966	1	9
398.136	1	7
398.307	1	11
398.478	1	1
398.649	1	-2
398.819	1	-8
398.990	1	0
399.161	1	4
399.332	1	2
399.503	1	10
399.673	1	6
399.844	1	-3
400.015	1	13
400.186	1	-4
400.356	1	-2
400.527	1	10
400.698	1	6
400.869	1	16
401.039	1	4
401.210	1	-8
401.381	1	7
401.552	1	6
401.722	1	5
401.893	1	-11
402.064	1	-2
402.235	1	5
402.405	1	14
402.576	1	-4
402.747	1	4
402.918	1	7
403.088	1	5
403.259	1	-8
403.430	1	9
403.601	1	-1
403.771	1	13
403.942	1	4
404.113	1	5
404.284	1	-3
404.454	1	15
404.625	1	5
404.796	1	10
404.967	1	-2
405.137	1	7
405.308	1	-11
405.479	1	1
405.649	1	4
405.820	1	4
405.991	1	6
406.162	1	-2
406.332	1	12
406.503	1	-1
406.674	1	14
406.845	1	-5
407.015	1	7
407.186	1	-3
407.357	1	12
407.527	1	1
407.698	1	2
407.869	1	15
408.040	1	-2
408.210	1	13
408.381	1	13
408.552	1	-1
408.722	1	9
408.893	1	12
409.064	1	2
409.235	1	1
409.405	1	14
409.576	1	5
409.747	1	6
409.917	1	-1
410.088	1	16
410.259	1	3
410.430	1	11
410.600	1	5
410.771	1	-15
410.942	1	12
411.112	1	13
411.283	1	0
411.454	1	5
411.625	1	-3
411.795	1	6
411.966	1	-4
412.137	1	1
412.307	1	-5
412.478	1	2
412.649	1	5
412.819	1	3
412.990	1	-1
413.161	1	9
413.332	1	-6
413.502	1	10
413.673	1	2
413.844	1	5
414.014	1	3
414.185	1	4
414.356	1	14
414.526	1	4
414.697	1	4
414.868	1	3
415.038	1	-3
415.209	1	5
415.380	1	5
415.550	1	8
415.721	1	4
415.892	1	8
416.063	1	-6
416.233	1	-2
416.404	1	9
416.575	1	14
416.745	1	-2
416.916	1	9
417.087	1	2
417.257	1	-6
417.428	1	2
417.599	1	5
417.769	1	10
417.940	1	4
418.111	1	4
418.281	1	3
418.452	1	4
418.623	1	3
418.793	1	-2
418.964	1	5
419.135	1	10
419.305	1	2
419.476	1	-1
419.647	1	14
419.817	1	11
419.988	1	16
420.159	1	2
420.329	1	10
420.500	1	2
420.671	1	-1
420.841	1	-2
421.012	1	2
421.183	1	6
421.353	1	0
421.524	1	5
421.695	1	-2
421.865	1	8
422.036	1	7
422.206	1	1
422.377	1	0
422.548	1	6
422.718	1	0
422.889	1	5
423.060	1	5
423.230	1	3
423.401	1	7
423.572	1	0
423.742	1	1
423.913	1	5
424.084	1	12
424.254	1	10
424.425	1	4
424.595	1	-5
424.766	1	3
424.937	1	8
425.107	1	-2
425.278	1	6
425.449	1	1
425.619	1	17
425.790	1	17
425.961	1	7
426.131	1	8
426.302	1	12
426.472	1	4
426.643	1	0
426.814	1	5
426.984	1	2
427.155	1	4
427.326	1	2
427.496	1	8
427.667	1	5
427.837	1	4
428.008	1	-7
428.179	1	2
428.349	1	1
428.520	1	10
428.691	1	12
428.861	1	0
429.032	1	6
429.202	1	9
429.373	1	4
429.544	1	10
429.714	1	-4
429.885	1	1
430.055	1	-2
430.226	1	8
430.397	1	-1
430.567	1	12
430.738	1	-2
430.909	1	7
431.079	1	25
431.250	1	5
431.420	1	-7
431.591	1	3
431.762	1	8
431.932	1	0
432.103	1	-9
432.273	1	-1
432.444	1	8
432.615	1	9
432.785	1	10
432.956	1	-5
433.126	1	9
433.297	1	6
433.468	1	0
433.638	1	3
433.809	1	12
433.979	1	10
434.150	1	4
434.320	1	5
434.491	1	-5
434.662	1	10
434.832	1	4
435.003	1	21
435.173	1	-1
435.344	1	7
435.515	1	6
435.685	1	-8
435.856	1	-10
436.026	1	2
436.197	1	5
436.368	1	9
436.538	1	4
436.709	1	1
436.879	1	7
437.050	1	11
437.220	1	-11
437.391	1	13
437.562	1	4
437.732	1	-1
437.903	1	4
438.073	1	14
438.244	1	11
438.414	1	-1
438.585	1	9
438.756	1	2
438.926	1	-7
439.097	1	-2
439.267	1	2
439.438	1	-2
439.608	1	14
439.779	1	10
439.949	1	13
440.120	1	-2
440.291	1	5
440.461	1	13
440.632	1	7
440.802	1	-7
440.973	1	13
441.143	1	-6
441.314	1	8
441.485	1	4
441.655	1	13
441.826	1	3
441.996	1	8
442.167	1	2
442.337	1	6
442.508	1	2
442.678	1	-4
442.849	1	1
443.019	1	8
443.190	1	-1
443.361	1	6
443.531	1	-2
443.702	1	7
443.872	1	7
444.043	1	5
444.213	1	1
444.384	1	-9
444.554	1	8
444.725	1	8
444.895	1	6
445.066	1	4
445.237	1	2
445.407	1	-3
445.578	1	1
445.748	1	8
445.919	1	1
446.089	1	9
446.260	1	7
446.430	1	4
446.601	1	9
446.771	1	10
446.942	1	-2
447.112	1	-6
447.283	1	8
447.453	1	4
447.624	1	2
447.794	1	15
447.965	1	0
448.135	1	12
448.306	1	0
448.477	1	9
448.647	1	13
448.818	1	2
448.988	1	9
449.159	1	7
449.329	1	-10
449.500	1	4
449.670	1	3
449.841	1	-6
450.011	1	-3
450.182	1	6
450.352	1	3
450.523	1	5
450.693	1	-1
450.864	1	3
451.034	1	-7
451.205	1	-3
451.375	1	3
451.546	1	10
451.716	1	-1
451.887	1	-3
452.057	1	15
452.228	1	7
452.398	1	1
452.569	1	4
452.739	1	-4
452.910	1	0
453.080	1	-2
453.251	1	7
453.421	1	9
453.592	1	4
453.762	1	7
453.933	1	1
454.103	1	-1
454.274	1	-5
454.444	1	9
454.615	1	1
454.785	1	6
454.956	1	1
455.126	1	-3
455.297	1	16
455.467	1	2
455.638	1	5
455.808	1	4
455.979	1	12
456.149	1	-6
456.320	1	-3
456.490	1	0
456.661	1	-1
456.831	1	4
457.001	1	2
457.172	1	2
457.342	1	2
457.513	1	-6
457.683	1	1
457.854	1	5
458.024	1	14
458.195	1	-5
458.365	1	8
458.536	1	6
458.706	1	6
458.877	1	10
459.047	1	-11
459.218	1	8
459.388	1	-8
459.559	1	7
459.729	1	3
459.899	1	7
460.070	1	1
460.240	1	10
460.411	1	7
460.581	1	1
460.752	1	6
460.922	1	4
461.093	1	11
461.263	1	0
461.434	1	6
461.604	1	-11
461.775	1	-4
461.945	1	7
462.115	1	1
462.286	1	10
462.456	1	-2
462.627	1	-5
462.797	1	-1
462.968	1	3
463.138	1	1
463.309	1	6
463.479	1	5
463.649	1	-4
463.820	1	-5
463.990	1	0
464.161	1	-5
464.331	1	2
464.502	1	4
464.672	1	0
464.843	1	0
465.013	1	0
465.183	1	16
465.354	1	7
465.524	1	-1
465.695	1	8
465.865	1	-8
466.036	1	1
466.206	1	1
466.376	1	0
466.547	1	-1
466.717	1	8
466.888	1	5
467.058	1	5
467.229	1	2
467.399	1	4
467.569	1	1
467.740	1	12
467.910	1	-6
468.081	1	11
468.251	1	14
468.422	1	7
468.592	1	-2
468.762	1	-9
468.933	1	5
469.103	1	1
469.274	1	6
469.444	1	3
469.614	1	10
469.785	1	10
469.955	1	-4
470.126	1	-4
470.296	1	-1
470.467	1	1
470.637	1	5
470.807	1	6
470.978	1	0
471.148	1	6
471.319	1	5
471.489	1	-3
471.659	1	-9
471.830	1	9
472.000	1	-2
472.171	1	5
472.341	1	-3
472.511	1	6
472.682	1	7
472.852	1	9
473.023	1	3
473.193	1	1
473.363	1	12
473.534	1	0
473.704	1	2
473.875	1	12
474.045	1	4
474.215	1	6
474.386	1	-1
474.556	1	4
474.727	1	1
474.897	1	-5
475.067	1	8
475.238	1	11
475.408	1	14
475.578	1	-1
475.749	1	3
475.919	1	0
476.090	1	-5
476.260	1	8
476.430	1	-1
476.601	1	-6
476.771	1	-3
476.942	1	5
477.112	1	7
477.282	1	1
477.453	1	3
477.623	1	-6
477.793	1	7
477.964	1	-1
478.134	1	16
478.305	1	7
478.475	1	6
478.645	1	-1
478.816	1	6
478.986	1	2
479.156	1	-1
479.327	1	-3
479.497	1	9
479.667	1	7
479.838	1	-1
480.008	1	-2
480.179	1	-4
480.349	1	1
480.519	1	-6
480.690	1	10
480.860	1	12
481.030	1	1
481.201	1	2
481.371	1	5
481.541	1	2
481.712	1	2
481.882	1	15
482.053	1	1
482.223	1	-4
482.393	1	3
482.564	1	1
482.734	1	1
482.904	1	6
483.075	1	17
483.245	1	10
483.415	1	-1
483.586	1	-5
483.756	1	1
483.926	1	3
484.097	1	0
484.267	1	-3
484.437	1	-6
484.608	1	4
484.778	1	7
484.948	1	6
485.119	1	1
485.289	1	6
485.459	1	-16
485.630	1	0
485.800	1	7
485.970	1	2
486.141	1	4
486.311	1	14
486.481	1	3
486.652	1	3
486.822	1	5
486.992	1	-7
487.163	1	-1
487.333	1	3
487.503	1	-7
487.674	1	-2
487.844	1	3
488.014	1	5
488.185	1	2
488.355	1	5
488.525	1	14
488.696	1	2
488.866	1	2
489.036	1	10
489.207	1	2
489.377	1	1
489.547	1	7
489.718	1	8
489.888	1	12
490.058	1	3
490.228	1	3
490.399	1	6
490.569	1	5
490.739	1	-1
490.910	1	-7
491.080	1	2
491.250	1	4
491.421	1	6
491.591	1	-10
491.761	1	-1
491.932	1	1
492.102	1	10
492.272	1	4
492.442	1	-3
492.613	1	-5
492.783	1	-9
492.953	1	-3
493.124	1	-2
493.294	1	1
493.464	1	0
493.635	1	4
493.805	1	-2
493.975	1	11
494.145	1	-2
494.316	1	11
494.486	1	14
494.656	1	-1
494.827	1	-4
494.997	1	-8
495.167	1	3
495.337	1	-3
495.508	1	-7
495.678	1	6
495.848	1	4
496.019	1	-5
496.189	1	2
496.359	1	8
496.529	1	8
496.700	1	7
496.870	1	-4
497.040	1	11
497.211	1	-3
497.381	1	2
497.551	1	14
497.721	1	1
497.892	1	-1
498.062	1	-9
498.232	1	13
498.403	1	-8
498.573	1	7
498.743	1	9
498.913	1	9
499.084	1	11
499.254	1	7
499.424	1	-6
499.594	1	0
499.765	1	-2
499.935	1	-3
500.105	1	8
500.275	1	3
500.446	1	3
500.616	1	0
500.786	1	7
500.956	1	2
501.127	1	0
501.297	1	5
501.467	1	2
501.638	1	9
501.808	1	3
501.978	1	4
502.148	1	1
502.319	1	2
502.489	1	6
502.659	1	-5
502.829	1	-1
503.000	1	10
503.170	1	-3
503.340	1	1
503.510	1	7
503.681	1	-5
503.851	1	-2
504.021	1	-1
504.191	1	0
504.362	1	-1
504.532	1	5
504.702	1	2
504.872	1	8
505.042	1	9
505.213	1	1
505.383	1	9
505.553	1	-7
505.723	1	9
505.894	1	3
506.064	1	5
506.234	1	-1
506.404	1	-2
506.575	1	-1
506.745	1	-5
506.915	1	-6
507.085	1	12
507.256	1	5
507.426	1	14
507.596	1	3
507.766	1	4
507.936	1	0
508.107	1	-1
508.277	1	5
508.447	1	8
508.617	1	-2
508.788	1	9
508.958	1	7
509.128	1	15
509.298	1	5
509.468	1	-1
509.639	1	13
509.809	1	-6
509.979	1	-3
510.149	1	4
510.319	1	12
510.490	1	4
510.660	1	-5
510.830	1	16
511.000	1	7
511.171	1	6
511.341	1	-4
511.511	1	-1
511.681	1	2
511.851	1	5
512.022	1	2
512.192	1	-10
512.362	1	-3
512.532	1	4
512.702	1	5
512.873	1	3
513.043	1	10
513.213	1	16
513.383	1	5
513.553	1	3
513.724	1	-9
513.894	1	-5
514.064	1	-9
514.234	1	15
514.404	1	7
514.575	1	-2
514.745	1	0
514.915	1	-8
515.085	1	8
515.255	1	2
515.425	1	-3
515.596	1	-8
515.766	1	-1
515.936	1	17
516.106	1	-6
516.276	1	6
516.447	1	2
516.617	1	8
516.787	1	4
516.957	1	-3
517.127	1	-2
517.297	1	1
517.468	1	-4
517.638	1	16
517.808	1	2
517.978	1	-2
518.148	1	7
518.319	1	-1
518.489	1	6
518.659	1	5
518.829	1	4
518.999	1	6
519.169	1	8
519.340	1	-7
519.510	1	-6
519.680	1	-1
519.850	1	24
520.020	1	7
520.190	1	18
520.361	1	3
520.531	1	9
520.701	1	2
520.871	1	-10
521.041	1	4
521.211	1	12
521.382	1	6
521.552	1	10
521.722	1	8
521.892	1	13
522.062	1	-1
522.232	1	-7
522.402	1	0
522.573	1	-2
522.743	1	4
522.913	1	8
523.083	1	11
523.253	1	6
523.423	1	0
523.593	1	13
523.764	1	4
523.934	1	3
524.104	1	2
524.274	1	-8
524.444	1	1
524.614	1	1
524.784	1	6
524.955	1	7
525.125	1	-8
525.295	1	3
525.465	1	3
525.635	1	5
525.805	1	-2
525.975	1	13
526.146	1	4
526.316	1	2
526.486	1	10
526.656	1	9
526.826	1	11
526.996	1	4
527.166	1	3
527.337	1	16
527.507	1	5
527.677	1	6
527.847	1	6
528.017	1	9
528.187	1	12
528.357	1	5
528.527	1	6
528.698	1	1
528.868	1	0
529.038	1	-1
529.208	1	-1
529.378	1	0
529.548	1	-1
529.718	1	14
529.888	1	-3
530.058	1	3
530.229	1	4
530.399	1	13
530.569	1	3
530.739	1	8
530.909	1	7
531.079	1	-2
531.249	1	1
531.419	1	2
531.589	1	17
531.760	1	-4
531.930	1	0
532.100	1	14
532.270	1	3
532.440	1	5
532.610	1	3
532.780	1	3
532.950	1	6
533.120	1	10
533.290	1	17
533.461	1	0
533.631	1	11
533.801	1	18
533.971	1	10
534.141	1	13
534.311	1	10
534.481	1	-1
534.651	1	10
534.821	1	6
534.991	1	1
535.162	1	5
535.332	1	3
535.502	1	3
535.672	1	6
535.842	1	15
536.012	1	-2
536.182	1	6
536.352	1	2
536.522	1	0
536.692	1	3
536.862	1	4
537.032	1	4
537.203	1	1
537.373	1	6
537.543	1	13
537.713	1	13
537.883	1	-4
538.053	1	-7
538.223	1	1
538.393	1	16
538.563	1	13
538.733	1	6
538.903	1	7
539.073	1	3
539.243	1	0
539.413	1	8
539.584	1	5
539.754	1	-1
539.924	1	6
540.094	1	1
540.264	1	2
540.434	1	-5
540.604	1	2
540.774	1	5
540.944	1	0
541.114	1	-2
541.284	1	4
541.454	1	-1
541.624	1	13
541.794	1	6
541.964	1	2
542.134	1	8
542.305	1	4
542.475	1	3
542.645	1	-7
542.815	1	4
542.985	1	4
543.155	1	7
543.325	1	0
543.495	1	3
543.665	1	4
543.835	1	12
544.005	1	3
544.175	1	9
544.345	1	-5
544.515	1	8
544.685	1	16
544.855	1	4
545.025	1	8
545.195	1	-6
545.365	1	10
545.535	1	16
545.705	1	0
545.875	1	9
546.045	1	6
546.216	1	9
546.386	1	1
546.556	1	1
546.726	1	-5
546.896	1	5
547.066	1	2
547.236	1	-9
547.406	1	-3
547.576	1	5
547.746	1	4
547.916	1	1
548.086	1	-7
548.256	1	0
548.426	1	7
548.596	1	7
548.766	1	8
548.936	1	10
549.106	1	-7
549.276	1	-2
549.446	1	5
549.616	1	1
549.786	1	1
549.956	1	-1
550.126	1	11
550.296	1	2
550.466	1	0
550.636	1	-6
550.806	1	13
550.976	1	-3
551.146	1	8
551.316	1	4
551.486	1	10
551.656	1	1
551.826	1	7
551.996	1	5
552.166	1	9
552.336	1	0
552.506	1	10
552.676	1	8
552.846	1	7
553.016	1	3
553.186	1	-1
553.356	1	7
553.526	1	9
553.696	1	-4
553.866	1	-11
554.036	1	-8
554.206	1	1
554.376	1	15
554.546	1	2
554.716	1	3
554.886	1	-2
555.056	1	3
555.226	1	8
555.396	1	-4
555.566	1	2
555.736	1	1
555.906	1	2
556.076	1	3
556.246	1	10
556.416	1	7
556.586	1	0
556.756	1	-2
556.926	1	4
557.096	1	2
557.266	1	-6
557.436	1	-2
557.606	1	6
557.776	1	5
557.946	1	6
558.116	1	-11
558.286	1	3
558.456	1	4
558.626	1	-11
558.796	1	9
558.966	1	-3
559.136	1	10
559.306	1	-4
559.476	1	9
559.646	1	-3
559.816	1	5
559.986	1	2
560.155	1	1
560.325	1	-1
560.495	1	-4
560.665	1	3
560.835	1	6
561.005	1	-1
561.175	1	4
561.345	1	5
561.515	1	-5
561.685	1	1
561.855	1	-5
562.025	1	1
562.195	1	-5
562.365	1	15
562.535	1	7
562.705	1	-2
562.875	1	4
563.045	1	-4
563.215	1	8
563.385	1	-5
563.555	1	6
563.725	1	3
563.895	1	1
564.064	1	14
564.234	1	8
564.404	1	-1
564.574	1	4
564.744	1	-1
564.914	1	-4
565.084	1	3
565.254	1	-6
565.424	1	-1
565.594	1	-3
565.764	1	5
565.934	1	-3
566.104	1	2
566.274	1	9
566.444	1	7
566.614	1	2
566.783	1	12
566.953	1	3
567.123	1	5
567.293	1	13
567.463	1	0
567.633	1	-1
567.803	1	8
567.973	1	0
568.143	1	13
568.313	1	-1
568.483	1	6
568.653	1	2
568.823	1	-2
568.993	1	-1
569.162	1	3
569.332	1	-7
569.502	1	-4
569.672	1	-6
569.842	1	3
570.012	1	-6
570.182	1	5
570.352	1	-10
570.522	1	-9
570.692	1	3
570.862	1	22
571.031	1	8
571.201	1	7
571.371	1	0
571.541	1	-2
571.711	1	8
571.881	1	7
572.051	1	0
572.221	1	5
572.391	1	2
572.561	1	10
572.731	1	4
572.900	1	6
573.070	1	-4
573.240	1	-5
573.410	1	0
573.580	1	0
573.750	1	1
573.920	1	5
574.090	1	-2
574.260	1	0
574.430	1	10
574.599	1	7
574.769	1	-6
574.939	1	0
575.109	1	12
575.279	1	-8
575.449	1	-1
575.619	1	10
575.789	1	4
575.959	1	3
576.128	1	-1
576.298	1	1
576.468	1	3
576.638	1	0
576.808	1	5
576.978	1	-13
577.148	1	9
577.318	1	5
577.487	1	9
577.657	1	13
577.827	1	-4
577.997	1	11
578.167	1	3
578.337	1	-1
578.507	1	-6
578.677	1	0
578.846	1	-4
579.016	1	-3
579.186	1	-7
579.356	1	2
579.526	1	11
579.696	1	2
579.866	1	9
580.036	1	5
580.205	1	-10
580.375	1	-3
580.545	1	-2
580.715	1	-2
580.885	1	10
581.055	1	1
581.225	1	-3
581.394	1	3
581.564	1	2
581.734	1	-3
581.904	1	5
582.074	1	-8
582.244	1	-9
582.414	1	1
582.583	1	6
582.753	1	-1
582.923	1	7
583.093	1	6
583.263	1	-1
583.433	1	7
583.603	1	3
583.772	1	4
583.942	1	-4
584.112	1	11
584.282	1	-5
584.452	1	12
584.622	1	-6
584.791	1	1
584.961	1	8
585.131	1	5
585.301	1	0
585.471	1	1
585.641	1	4
585.811	1	2
585.980	1	3
586.150	1	9
586.320	1	2
586.490	1	3
586.660	1	-3
586.830	1	-11
586.999	1	-9
587.169	1	0
587.339	1	-4
587.509	1	3
587.679	1	10
587.849	1	6
588.018	1	2
588.188	1	9
588.358	1	-5
588.528	1	15
588.698	1	5
588.867	1	5
589.037	1	-3
589.207	1	-1
589.377	1	6
589.547	1	7
589.717	1	9
589.886	1	1
590.056	1	-6
590.226	1	16
590.396	1	-7
590.566	1	-2
590.735	1	-6
590.905	1	8
591.075	1	1
591.245	1	-5
591.415	1	8
591.585	1	12
591.754	1	-6
591.924	1	0
592.094	1	-6
592.264	1	1
592.434	1	1
592.603	1	-4
592.773	1	17
592.943	1	-3
593.113	1	-8
593.283	1	-10
593.452	1	3
593.622	1	0
593.792	1	-8
593.962	1	7
594.132	1	13
594.301	1	-12
594.471	1	6
594.641	1	5
594.811	1	5
594.981	1	-7
595.150	1	0
595.320	1	13
595.490	1	9
595.660	1	-2
595.829	1	-4
595.999	1	8
596.169	1	9
596.339	1	9
596.509	1	0
596.678	1	-7
596.848	1	4
597.018	1	-2
597.188	1	19
597.358	1	-6
597.527	1	3
597.697	1	-8
597.867	1	12
598.037	1	-1
598.206	1	-3
598.376	1	-10
598.546	1	5
598.716	1	10
598.885	1	13
599.055	1	-2
599.225	1	7
599.395	1	-3
599.565	1	2
599.734	1	-3
599.904	1	1
600.074	1	3
600.244	1	0
600.413	1	1
600.583	1	-4
600.753	1	0
600.923	1	4
601.092	1	5
601.262	1	1
601.432	1	-1
601.602	1	-8
601.771	1	11
601.941	1	-2
602.111	1	6
602.281	1	9
602.451	1	10
602.620	1	-1
602.790	1	2
602.960	1	-3
603.130	1	3
603.299	1	7
603.469	1	5
603.639	1	-8
603.809	1	3
603.978	1	1
604.148	1	12
604.318	1	-8
604.487	1	10
604.657	1	-13
604.827	1	9
604.997	1	1
605.166	1	5
605.336	1	5
605.506	1	5
605.676	1	-2
605.845	1	-3
606.015	1	5
606.185	1	3
606.355	1	9
606.524	1	3
606.694	1	-4
606.864	1	11
607.034	1	10
607.203	1	2
607.373	1	6
607.543	1	1
607.712	1	13
607.882	1	12
608.052	1	-2
608.222	1	-7
608.391	1	7
608.561	1	0
608.731	1	5
608.901	1	6
609.070	1	4
609.240	1	-2
609.410	1	5
609.579	1	9
609.749	1	-1
609.919	1	13
610.089	1	0
610.258	1	5
610.428	1	-1
610.598	1	-4
610.767	1	4
610.937	1	12
611.107	1	15
611.277	1	1
611.446	1	4
611.616	1	-5
611.786	1	4
611.955	1	-5
612.125	1	4
612.295	1	-1
612.465	1	-7
612.634	1	-1
612.804	1	3
612.974	1	-1
613.143	1	4
613.313	1	-4
613.483	1	0
613.652	1	-3
613.822	1	-8
613.992	1	3
614.162	1	-3
614.331	1	3
614.501	1	13
614.671	1	5
614.840	1	-9
615.010	1	2
615.180	1	8
615.349	1	7
615.519	1	-1
615.689	1	6
615.858	1	-4
616.028	1	11
616.198	1	13
616.368	1	2
616.537	1	6
616.707	1	14
616.877	1	-4
617.046	1	12
617.216	1	8
617.386	1	3
617.555	1	-7
617.725	1	4
617.895	1	2
618.064	1	5
618.234	1	7
618.404	1	4
618.573	1	9
618.743	1	8
618.913	1	2
619.082	1	10
619.252	1	-10
619.422	1	1
619.591	1	-7
619.761	1	7
619.931	1	-7
620.100	1	-4
620.270	1	-2
620.440	1	1
620.609	1	-9
620.779	1	3
620.949	1	-1
621.118	1	9
621.288	1	-3
621.458	1	6
621.627	1	7
621.797	1	-6
621.967	1	5
622.136	1	2
622.306	1	5
622.476	1	8
622.645	1	6
622.815	1	-2
622.985	1	2
623.154	1	5
623.324	1	-6
623.494	1	7
623.663	1	-1
623.833	1	7
624.002	1	2
624.172	1	0
624.342	1	12
624.511	1	6
624.681	1	2
624.851	1	-3
625.020	1	7
625.190	1	-2
625.360	1	4
625.529	1	-1
625.699	1	-5
625.869	1	1
626.038	1	12
626.208	1	1
626.377	1	7
626.547	1	3
626.717	1	5
626.886	1	2
627.056	1	4
627.226	1	0
627.395	1	-8
627.565	1	7
627.735	1	2
627.904	1	7
628.074	1	3
628.243	1	9
628.413	1	-1
628.583	1	-2
628.752	1	4
628.922	1	-4
629.091	1	-1
629.261	1	-3
629.431	1	1
629.600	1	4
629.770	1	-2
629.940	1	7
630.109	1	7
630.279	1	13
630.448	1	10
630.618	1	-3
630.788	1	0
630.957	1	-1
631.127	1	-12
631.297	1	-2
631.466	1	10
631.636	1	3
631.805	1	5
631.975	1	8
632.145	1	-1
632.314	1	1
632.484	1	-2
632.653	1	0
632.823	1	10
632.993	1	0
633.162	1	3
633.332	1	-1
633.501	1	5
633.671	1	-1
633.841	1	7
634.010	1	-11
634.180	1	15
634.349	1	5
634.519	1	13
634.689	1	9
634.858	1	5
635.028	1	11
635.197	1	-2
635.367	1	7
635.537	1	-9
635.706	1	2
635.876	1	-2
636.045	1	17
636.215	1	1
636.384	1	3
636.554	1	6
636.724	1	12
636.893	1	8
637.063	1	4
637.232	1	-7
637.402	1	-3
637.572	1	-7
637.741	1	10
637.911	1	2
638.080	1	17
638.250	1	18
638.419	1	0
638.589	1	-2
638.759	1	3
638.928	1	-2
639.098	1	-1
639.267	1	-1
639.437	1	14
639.606	1	11
639.776	1	4
639.946	1	-2
640.115	1	5
640.285	1	1
640.454	1	4
640.624	1	4
640.793	1	-10
640.963	1	-7
641.132	1	8
641.302	1	16
641.472	1	-4
641.641	1	8
641.811	1	-8
641.980	1	-5
642.150	1	-10
642.319	1	11
642.489	1	1
642.659	1	-7
642.828	1	2
642.998	1	0
643.167	1	0
643.337	1	4
643.506	1	8
643.676	1	9
643.845	1	-7
644.015	1	10
644.184	1	-4
644.354	1	-9
644.524	1	0
644.693	1	-2
644.863	1	-2
645.032	1	5
645.202	1	7
645.371	1	13
645.541	1	3
645.710	1	13
645.880	1	7
646.049	1	-3
646.219	1	2
646.388	1	9
646.558	1	-9
646.728	1	4
646.897	1	4
647.067	1	-2
647.236	1	2
647.406	1	11
647.575	1	-12
647.745	1	7
647.914	1	-2
648.084	1	-10
648.253	1	-1
648.423	1	9
648.592	1	3
648.762	1	3
648.931	1	-8
649.101	1	-5
649.270	1	-2
649.440	1	3
649.610	1	7
649.779	1	-4
649.949	1	0
650.118	1	-3
650.288	1	7
650.457	1	0
650.627	1	0
650.796	1	-11
650.966	1	0
651.135	1	14
651.305	1	-2
651.474	1	-2
651.644	1	2
651.813	1	7
651.983	1	-6
652.152	1	5
652.322	1	-6
652.491	1	10
652.661	1	4
652.830	1	7
653.000	1	-2
653.169	1	1
653.339	1	3
653.508	1	9
653.678	1	-7
653.847	1	-1
654.017	1	3
654.186	1	-8
654.356	1	-3
654.525	1	3
654.695	1	1
654.864	1	4
655.034	1	1
655.203	1	-1
655.373	1	-5
655.542	1	-10
655.712	1	4
655.881	1	11
656.051	1	-6
656.220	1	0
656.390	1	-3
656.559	1	3
656.729	1	2
656.898	1	-8
657.068	1	-4
657.237	1	3
657.406	1	2
657.576	1	-8
657.745	1	3
657.915	1	2
658.084	1	-1
658.254	1	-3
658.423	1	10
658.593	1	1
658.762	1	13
658.932	1	16
659.101	1	12
659.271	1	6
659.440	1	-4
659.610	1	-5
659.779	1	7
659.949	1	2
660.118	1	-6
660.288	1	-4
660.457	1	0
660.626	1	4
660.796	1	5
660.965	1	8
661.135	1	11
661.304	1	-1
661.474	1	3
661.643	1	0
661.813	1	4
661.982	1	-1
662.152	1	3
662.321	1	-7
662.491	1	13
662.660	1	9
662.829	1	10
662.999	1	0
663.168	1	-8
663.338	1	-1
663.507	1	3
663.677	1	2
663.846	1	-4
664.016	1	-4
664.185	1	-2
664.354	1	5
664.524	1	-4
664.693	1	3
664.863	1	1
665.032	1	5
665.202	1	-4
665.371	1	-2
665.541	1	-2
665.710	1	6
665.879	1	2
666.049	1	-2
666.218	1	-4
666.388	1	6
666.557	1	3
666.727	1	-13
666.896	1	2
667.065	1	8
667.235	1	11
667.404	1	-2
667.574	1	5
667.743	1	1
667.913	1	-1
668.082	1	-2
668.251	1	2
668.421	1	-5
668.590	1	1
668.760	1	-5
668.929	1	3
669.099	1	-6
669.268	1	3
669.437	1	1
669.607	1	0
669.776	1	0
669.946	1	6
670.115	1	7
670.285	1	4
670.454	1	-1
670.623	1	12
670.793	1	-8
670.962	1	0
671.132	1	3
671.301	1	-1
671.470	1	10
671.640	1	-6
671.809	1	-3
671.979	1	-5
672.148	1	-1
672.317	1	-3
672.487	1	-12
672.656	1	5
672.826	1	3
672.995	1	2
673.164	1	8
673.334	1	-4
673.503	1	-5
673.673	1	9
673.842	1	-2
674.011	1	5
674.181	1	13
674.350	1	5
674.520	1	1
674.689	1	3
674.858	1	-6
675.028	1	8
675.197	1	2
675.367	1	2
675.536	1	5
675.705	1	13
675.875	1	-4
676.044	1	4
676.214	1	5
676.383	1	7
676.552	1	1
676.722	1	-2
676.891	1	-10
677.060	1	2
677.230	1	15
677.399	1	-1
677.569	1	4
677.738	1	-9
677.907	1	8
678.077	1	3
678.246	1	7
678.416	1	5
678.585	1	4
678.754	1	4
678.924	1	7
679.093	1	10
679.262	1	-8
679.432	1	-2
679.601	1	1
679.771	1	14
679.940	1	2
680.109	1	4
680.279	1	-1
680.448	1	6
680.617	1	-10
680.787	1	8
680.956	1	-6
681.125	1	6
681.295	1	4
681.464	1	-1
681.634	1	10
681.803	1	-1
681.972	1	0
682.142	1	-5
682.311	1	-8
682.480	1	8
682.650	1	-7
682.819	1	2
682.988	1	-9
683.158	1	0
683.327	1	0
683.496	1	-6
683.666	1	-3
683.835	1	-12
684.004	1	2
684.174	1	10
684.343	1	2
684.512	1	1
684.682	1	3
684.851	1	2
685.021	1	0
685.190	1	0
685.359	1	-6
685.529	1	-9
685.698	1	-3
685.867	1	-2
686.037	1	6
686.206	1	7
686.375	1	2
686.545	1	-9
686.714	1	-14
686.883	1	-4
687.053	1	3
687.222	1	4
687.391	1	5
687.561	1	3
687.730	1	-10
687.899	1	1
688.069	1	5
688.238	1	9
688.407	1	7
688.577	1	2
688.746	1	6
