340.368	1	-1
340.539	1	13
340.710	1	7
340.881	1	4
341.052	1	-8
341.223	1	-6
341.394	1	5
341.565	1	5
341.737	1	10
341.908	1	7
342.079	1	7
342.250	1	17
342.421	1	9
342.592	1	9
342.763	1	-1
342.934	1	11
343.105	1	6
343.276	1	1
343.447	1	1
343.618	1	2
343.789	1	6
343.960	1	-6
344.131	1	-1
344.302	1	7
344.473	1	-3
344.644	1	-3
344.815	1	-2
344.986	1	10
345.157	1	-4
345.328	1	6
345.499	1	-5
345.670	1	4
345.841	1	-1
346.012	1	2
346.183	1	4
346.354	1	6
346.526	1	8
346.697	1	0
346.868	1	4
347.039	1	-8
347.210	1	3
347.381	1	7
347.552	1	4
347.723	1	11
347.894	1	6
348.065	1	11
348.236	1	-3
348.407	1	3
348.578	1	-2
348.749	1	8
348.920	1	9
349.091	1	8
349.262	1	9
349.433	1	19
349.604	1	5
349.775	1	4
349.946	1	9
350.117	1	6
350.288	1	-7
350.459	1	-7
350.630	1	5
350.801	1	13
350.972	1	11
351.143	1	3
351.314	1	-3
351.485	1	12
351.656	1	13
351.827	1	9
351.998	1	3
352.169	1	4
352.340	1	12
352.511	1	6
352.682	1	3
352.853	1	13
353.024	1	5
353.195	1	1
353.366	1	14
353.537	1	3
353.708	1	4
353.879	1	8
354.050	1	13
354.221	1	9
354.392	1	9
354.563	1	6
354.734	1	10
354.905	1	20
355.076	1	4
355.247	1	6
355.418	1	13
355.589	1	13
355.760	1	9
355.931	1	7
356.102	1	4
356.273	1	22
356.444	1	-2
356.615	1	12
356.785	1	15
356.956	1	18
357.127	1	8
357.298	1	16
357.469	1	7
357.640	1	8
357.811	1	15
357.982	1	15
358.153	1	11
358.324	1	16
358.495	1	24
358.666	1	16
358.837	1	14
359.008	1	15
359.179	1	16
359.350	1	13
359.521	1	9
359.692	1	20
359.863	1	23
360.034	1	22
360.205	1	22
360.376	1	17
360.547	1	20
360.718	1	22
360.889	1	27
361.060	1	29
361.231	1	13
361.401	1	32
361.572	1	53
361.743	1	35
361.914	1	41
362.085	1	45
362.256	1	36
362.427	1	37
362.598	1	39
362.769	1	45
362.940	1	42
363.111	1	57
363.282	1	49
363.453	1	45
363.624	1	54
363.795	1	51
363.966	1	60
364.137	1	50
364.308	1	62
364.478	1	52
364.649	1	65
364.820	1	59
364.991	1	70
365.162	1	78
365.333	1	66
365.504	1	72
365.675	1	74
365.846	1	75
366.017	1	85
366.188	1	72
366.359	1	104
366.530	1	79
366.701	1	87
366.871	1	95
367.042	1	99
367.213	1	94
367.384	1	89
367.555	1	102
367.726	1	99
367.897	1	87
368.068	1	89
368.239	1	99
368.410	1	94
368.581	1	102
368.752	1	98
368.923	1	101
369.093	1	91
369.264	1	89
369.435	1	91
369.606	1	102
369.777	1	87
369.948	1	90
370.119	1	94
370.290	1	81
370.461	1	80
370.632	1	67
370.803	1	79
370.973	1	66
371.144	1	77
371.315	1	76
371.486	1	80
371.657	1	67
371.828	1	69
371.999	1	62
372.170	1	55
372.341	1	62
372.512	1	67
372.682	1	48
372.853	1	53
373.024	1	62
373.195	1	63
373.366	1	62
373.537	1	68
373.708	1	56
373.879	1	64
374.050	1	60
374.220	1	51
374.391	1	51
374.562	1	42
374.733	1	53
374.904	1	52
375.075	1	60
375.246	1	49
375.417	1	45
375.588	1	41
375.758	1	37
375.929	1	35
376.100	1	38
376.271	1	45
376.442	1	28
376.613	1	29
376.784	1	54
376.955	1	44
377.125	1	44
377.296	1	27
377.467	1	44
377.638	1	28
377.809	1	35
377.980	1	25
378.151	1	26
378.321	1	23
378.492	1	35
378.663	1	26
378.834	1	21
379.005	1	53
379.176	1	28
379.347	1	35
379.518	1	35
379.688	1	30
379.859	1	21
380.030	1	26
380.201	1	37
380.372	1	26
380.543	1	27
380.714	1	33
380.884	1	28
381.055	1	32
381.226	1	19
381.397	1	33
381.568	1	28
381.739	1	26
381.910	1	32
382.080	1	15
382.251	1	20
382.422	1	40
382.593	1	23
382.764	1	20
382.935	1	24
383.105	1	26
383.276	1	19
383.447	1	25
383.618	1	19
383.789	1	43
383.960	1	23
384.130	1	32
384.301	1	26
384.472	1	30
384.643	1	28
384.814	1	16
384.985	1	32
385.156	1	11
385.326	1	21
385.497	1	28
385.668	1	29
385.839	1	25
386.010	1	23
386.180	1	34
386.351	1	20
386.522	1	22
386.693	1	24
386.864	1	25
387.035	1	28
387.205	1	20
387.376	1	17
387.547	1	16
387.718	1	21
387.889	1	5
388.060	1	18
388.230	1	18
388.401	1	22
388.572	1	20
388.743	1	20
388.914	1	20
389.084	1	19
389.255	1	20
389.426	1	24
389.597	1	10
389.768	1	16
389.939	1	15
390.109	1	29
390.280	1	24
390.451	1	24
390.622	1	19
390.793	1	21
390.963	1	22
391.134	1	20
391.305	1	21
391.476	1	19
391.647	1	25
391.817	1	22
391.988	1	32
392.159	1	9
392.330	1	19
392.501	1	29
392.671	1	8
392.842	1	23
393.013	1	31
393.184	1	15
393.355	1	15
393.525	1	20
393.696	1	13
393.867	1	18
394.038	1	25
394.208	1	12
394.379	1	25
394.550	1	28
394.721	1	14
394.892	1	20
395.062	1	9
395.233	1	17
395.404	1	2
395.575	1	16
395.746	1	17
395.916	1	21
396.087	1	23
396.258	1	15
396.429	1	14
396.599	1	17
396.770	1	20
396.941	1	23
397.112	1	17
397.283	1	19
397.453	1	17
397.624	1	14
397.795	1	2
397.966	1	22
398.136	1	14
398.307	1	21
398.478	1	10
398.649	1	12
398.819	1	0
398.990	1	14
399.161	1	21
399.332	1	13
399.503	1	25
399.673	1	15
399.844	1	5
400.015	1	24
400.186	1	10
400.356	1	14
400.527	1	15
400.698	1	14
400.869	1	22
401.039	1	17
401.210	1	-2
401.381	1	10
401.552	1	22
401.722	1	10
401.893	1	-1
402.064	1	6
402.235	1	16
402.405	1	20
402.576	1	12
402.747	1	19
402.918	1	17
403.088	1	7
403.259	1	5
403.430	1	18
403.601	1	12
403.771	1	25
403.942	1	10
404.113	1	19
404.284	1	13
404.454	1	21
404.625	1	21
404.796	1	13
404.967	1	11
405.137	1	20
405.308	1	6
405.479	1	15
405.649	1	8
405.820	1	23
405.991	1	15
406.162	1	11
406.332	1	14
406.503	1	10
406.674	1	16
406.845	1	11
407.015	1	10
407.186	1	14
407.357	1	22
407.527	1	3
407.698	1	6
407.869	1	18
408.040	1	10
408.210	1	15
408.381	1	13
408.552	1	10
408.722	1	15
408.893	1	21
409.064	1	19
409.235	1	3
409.405	1	10
409.576	1	4
409.747	1	6
409.917	1	-2
410.088	1	27
410.259	1	9
410.430	1	23
410.600	1	7
410.771	1	-1
410.942	1	16
411.112	1	18
411.283	1	6
411.454	1	12
411.625	1	8
411.795	1	9
411.966	1	15
412.137	1	5
412.307	1	4
412.478	1	12
412.649	1	18
412.819	1	7
412.990	1	16
413.161	1	16
413.332	1	13
413.502	1	16
413.673	1	5
413.844	1	11
414.014	1	21
414.185	1	13
414.356	1	14
414.526	1	6
414.697	1	6
414.868	1	2
415.038	1	13
415.209	1	2
415.380	1	16
415.550	1	13
415.721	1	5
415.892	1	12
416.063	1	11
416.233	1	15
416.404	1	13
416.575	1	12
416.745	1	4
416.916	1	8
417.087	1	9
417.257	1	8
417.428	1	-4
417.599	1	5
417.769	1	14
417.940	1	18
418.111	1	13
418.281	1	6
418.452	1	11
418.623	1	8
418.793	1	3
418.964	1	10
419.135	1	9
419.305	1	6
419.476	1	7
419.647	1	20
419.817	1	8
419.988	1	22
420.159	1	7
420.329	1	7
420.500	1	4
420.671	1	2
420.841	1	17
421.012	1	10
421.183	1	15
421.353	1	9
421.524	1	8
421.695	1	5
421.865	1	9
422.036	1	13
422.206	1	9
422.377	1	15
422.548	1	21
422.718	1	13
422.889	1	7
423.060	1	19
423.230	1	9
423.401	1	11
423.572	1	2
423.742	1	5
423.913	1	6
424.084	1	11
424.254	1	15
424.425	1	10
424.595	1	7
424.766	1	18
424.937	1	15
425.107	1	2
425.278	1	5
425.449	1	12
425.619	1	7
425.790	1	13
425.961	1	17
426.131	1	19
426.302	1	21
426.472	1	2
426.643	1	4
426.814	1	16
426.984	1	2
427.155	1	9
427.326	1	4
427.496	1	2
427.667	1	14
427.837	1	15
428.008	1	5
428.179	1	15
428.349	1	13
428.520	1	25
428.691	1	8
428.861	1	13
429.032	1	6
429.202	1	5
429.373	1	20
429.544	1	12
429.714	1	7
429.885	1	2
430.055	1	7
430.226	1	10
430.397	1	1
430.567	1	5
430.738	1	7
430.909	1	4
431.079	1	20
431.250	1	11
431.420	1	7
431.591	1	0
431.762	1	13
431.932	1	6
432.103	1	0
432.273	1	15
432.444	1	6
432.615	1	14
432.785	1	13
432.956	1	3
433.126	1	10
433.297	1	14
433.468	1	5
433.638	1	5
433.809	1	10
433.979	1	6
434.150	1	7
434.320	1	13
434.491	1	6
434.662	1	10
434.832	1	8
435.003	1	17
435.173	1	11
435.344	1	3
435.515	1	10
435.685	1	-10
435.856	1	5
436.026	1	5
436.197	1	10
436.368	1	-4
436.538	1	12
436.709	1	0
436.879	1	6
437.050	1	8
437.220	1	3
437.391	1	14
437.562	1	8
437.732	1	7
437.903	1	8
438.073	1	11
438.244	1	11
438.414	1	6
438.585	1	9
438.756	1	4
438.926	1	12
439.097	1	5
439.267	1	4
439.438	1	10
439.608	1	11
439.779	1	12
439.949	1	10
440.120	1	4
440.291	1	10
440.461	1	16
440.632	1	5
440.802	1	3
440.973	1	5
441.143	1	-8
441.314	1	11
441.485	1	11
441.655	1	17
441.826	1	13
441.996	1	10
442.167	1	15
442.337	1	11
442.508	1	4
442.678	1	1
442.849	1	6
443.019	1	11
443.190	1	4
443.361	1	-1
443.531	1	4
443.702	1	13
443.872	1	14
444.043	1	7
444.213	1	4
444.384	1	2
444.554	1	12
444.725	1	5
444.895	1	-5
445.066	1	5
445.237	1	0
445.407	1	5
445.578	1	2
445.748	1	18
445.919	1	2
446.089	1	5
446.260	1	12
446.430	1	-1
446.601	1	9
446.771	1	7
446.942	1	13
447.112	1	0
447.283	1	5
447.453	1	7
447.624	1	4
447.794	1	18
447.965	1	6
448.135	1	18
448.306	1	4
448.477	1	5
448.647	1	14
448.818	1	7
448.988	1	14
449.159	1	12
449.329	1	10
449.500	1	0
449.670	1	1
449.841	1	-6
450.011	1	-3
450.182	1	15
450.352	1	6
450.523	1	14
450.693	1	-1
450.864	1	4
451.034	1	3
451.205	1	13
451.375	1	12
451.546	1	8
451.716	1	-3
451.887	1	-4
452.057	1	11
452.228	1	12
452.398	1	-15
452.569	1	13
452.739	1	7
452.910	1	13
453.080	1	3
453.251	1	12
453.421	1	19
453.592	1	8
453.762	1	13
453.933	1	2
454.103	1	8
454.274	1	-4
454.444	1	5
454.615	1	7
454.785	1	14
454.956	1	10
455.126	1	3
455.297	1	11
455.467	1	3
455.638	1	16
455.808	1	12
455.979	1	15
456.149	1	-2
456.320	1	5
456.490	1	3
456.661	1	1
456.831	1	11
457.001	1	4
457.172	1	9
457.342	1	4
457.513	1	-2
457.683	1	-1
457.854	1	12
458.024	1	13
458.195	1	-2
458.365	1	9
458.536	1	7
458.706	1	10
458.877	1	29
459.047	1	0
459.218	1	13
459.388	1	-4
459.559	1	8
459.729	1	6
459.899	1	5
460.070	1	7
460.240	1	11
460.411	1	13
460.581	1	4
460.752	1	15
460.922	1	6
461.093	1	9
461.263	1	13
461.434	1	14
461.604	1	-1
461.775	1	-4
461.945	1	14
462.115	1	-12
462.286	1	10
462.456	1	7
462.627	1	-1
462.797	1	5
462.968	1	8
463.138	1	2
463.309	1	16
463.479	1	6
463.649	1	0
463.820	1	3
463.990	1	-2
464.161	1	-9
464.331	1	12
464.502	1	1
464.672	1	13
464.843	1	0
465.013	1	8
465.183	1	10
465.354	1	12
465.524	1	3
465.695	1	15
465.865	1	-2
466.036	1	6
466.206	1	4
466.376	1	8
466.547	1	-3
466.717	1	12
466.888	1	7
467.058	1	11
467.229	1	6
467.399	1	1
467.569	1	7
467.740	1	10
467.910	1	0
468.081	1	12
468.251	1	11
468.422	1	13
468.592	1	5
468.762	1	2
468.933	1	2
469.103	1	11
469.274	1	13
469.444	1	0
469.614	1	12
469.785	1	8
469.955	1	-4
470.126	1	3
470.296	1	-1
470.467	1	10
470.637	1	6
470.807	1	9
470.978	1	2
471.148	1	8
471.319	1	3
471.489	1	2
471.659	1	9
471.830	1	11
472.000	1	5
472.171	1	12
472.341	1	-6
472.511	1	6
472.682	1	8
472.852	1	9
473.023	1	1
473.193	1	15
473.363	1	17
473.534	1	9
473.704	1	6
473.875	1	20
474.045	1	-6
474.215	1	3
474.386	1	7
474.556	1	14
474.727	1	8
474.897	1	3
475.067	1	15
475.238	1	14
475.408	1	4
475.578	1	4
475.749	1	9
475.919	1	8
476.090	1	9
476.260	1	16
476.430	1	9
476.601	1	6
476.771	1	-6
476.942	1	13
477.112	1	13
477.282	1	8
477.453	1	10
477.623	1	1
477.793	1	5
477.964	1	-2
478.134	1	18
478.305	1	17
478.475	1	0
478.645	1	4
478.816	1	11
478.986	1	0
479.156	1	5
479.327	1	5
479.497	1	1
479.667	1	8
479.838	1	7
480.008	1	3
480.179	1	4
480.349	1	3
480.519	1	2
480.690	1	12
480.860	1	11
481.030	1	-1
481.201	1	11
481.371	1	16
481.541	1	8
481.712	1	15
481.882	1	3
482.053	1	4
482.223	1	7
482.393	1	11
482.564	1	5
482.734	1	13
482.904	1	11
483.075	1	20
483.245	1	1
483.415	1	8
483.586	1	8
483.756	1	8
483.926	1	5
484.097	1	-6
484.267	1	15
484.437	1	3
484.608	1	29
484.778	1	13
484.948	1	8
485.119	1	16
485.289	1	7
485.459	1	-1
485.630	1	-5
485.800	1	8
485.970	1	10
486.141	1	16
486.311	1	26
486.481	1	0
486.652	1	7
486.822	1	19
486.992	1	14
487.163	1	3
487.333	1	1
487.503	1	5
487.674	1	10
487.844	1	9
488.014	1	20
488.185	1	13
488.355	1	22
488.525	1	10
488.696	1	13
488.866	1	10
489.036	1	11
489.207	1	-1
489.377	1	8
489.547	1	13
489.718	1	14
489.888	1	27
490.058	1	23
490.228	1	14
490.399	1	13
490.569	1	4
490.739	1	23
490.910	1	1
491.080	1	15
491.250	1	17
491.421	1	15
491.591	1	11
491.761	1	9
491.932	1	7
492.102	1	14
492.272	1	16
492.442	1	12
492.613	1	10
492.783	1	3
492.953	1	16
493.124	1	11
493.294	1	16
493.464	1	5
493.635	1	25
493.805	1	14
493.975	1	20
494.145	1	7
494.316	1	18
494.486	1	10
494.656	1	13
494.827	1	23
494.997	1	13
495.167	1	13
495.337	1	13
495.508	1	19
495.678	1	14
495.848	1	14
496.019	1	2
496.189	1	11
496.359	1	25
496.529	1	21
496.700	1	21
496.870	1	26
497.040	1	25
497.211	1	9
497.381	1	14
497.551	1	19
497.721	1	17
497.892	1	15
498.062	1	3
498.232	1	24
498.403	1	15
498.573	1	30
498.743	1	37
498.913	1	25
499.084	1	18
499.254	1	31
499.424	1	6
499.594	1	14
499.765	1	20
499.935	1	11
500.105	1	21
500.275	1	28
500.446	1	28
500.616	1	13
500.786	1	26
500.956	1	13
501.127	1	14
501.297	1	12
501.467	1	30
501.638	1	21
501.808	1	19
501.978	1	23
502.148	1	13
502.319	1	17
502.489	1	24
502.659	1	9
502.829	1	20
503.000	1	17
503.170	1	13
503.340	1	14
503.510	1	22
503.681	1	15
503.851	1	21
504.021	1	17
504.191	1	19
504.362	1	23
504.532	1	27
504.702	1	24
504.872	1	20
505.042	1	30
505.213	1	14
505.383	1	29
505.553	1	32
505.723	1	31
505.894	1	26
506.064	1	27
506.234	1	25
506.404	1	28
506.575	1	12
506.745	1	26
506.915	1	13
507.085	1	21
507.256	1	31
507.426	1	24
507.596	1	23
507.766	1	22
507.936	1	18
508.107	1	35
508.277	1	16
508.447	1	33
508.617	1	28
508.788	1	18
508.958	1	25
509.128	1	32
509.298	1	16
509.468	1	30
509.639	1	37
509.809	1	28
509.979	1	33
510.149	1	35
510.319	1	39
510.490	1	35
510.660	1	23
510.830	1	35
511.000	1	35
511.171	1	37
511.341	1	24
511.511	1	28
511.681	1	36
511.851	1	43
512.022	1	35
512.192	1	22
512.362	1	21
512.532	1	33
512.702	1	39
512.873	1	25
513.043	1	40
513.213	1	33
513.383	1	36
513.553	1	33
513.724	1	30
513.894	1	29
514.064	1	24
514.234	1	47
514.404	1	40
514.575	1	26
514.745	1	24
514.915	1	27
515.085	1	37
515.255	1	25
515.425	1	34
515.596	1	31
515.766	1	30
515.936	1	46
516.106	1	31
516.276	1	26
516.447	1	25
516.617	1	36
516.787	1	28
516.957	1	37
517.127	1	38
517.297	1	31
517.468	1	32
517.638	1	34
517.808	1	29
517.978	1	40
518.148	1	42
518.319	1	22
518.489	1	41
518.659	1	38
518.829	1	44
518.999	1	30
519.169	1	40
519.340	1	24
519.510	1	35
519.680	1	38
519.850	1	45
520.020	1	41
520.190	1	41
520.361	1	33
520.531	1	50
520.701	1	27
520.871	1	46
521.041	1	48
521.211	1	44
521.382	1	35
521.552	1	32
521.722	1	33
521.892	1	35
522.062	1	46
522.232	1	33
522.402	1	35
522.573	1	37
522.743	1	42
522.913	1	34
523.083	1	31
523.253	1	35
523.423	1	43
523.593	1	48
523.764	1	33
523.934	1	32
524.104	1	38
524.274	1	29
524.444	1	41
524.614	1	38
524.784	1	28
524.955	1	32
525.125	1	36
525.295	1	34
525.465	1	43
525.635	1	36
525.805	1	27
525.975	1	50
526.146	1	31
526.316	1	34
526.486	1	40
526.656	1	36
526.826	1	49
526.996	1	39
527.166	1	46
527.337	1	46
527.507	1	37
527.677	1	30
527.847	1	33
528.017	1	37
528.187	1	50
528.357	1	48
528.527	1	42
528.698	1	35
528.868	1	35
529.038	1	37
529.208	1	25
529.378	1	45
529.548	1	30
529.718	1	45
529.888	1	53
530.058	1	48
530.229	1	45
530.399	1	39
530.569	1	44
530.739	1	41
530.909	1	46
531.079	1	44
531.249	1	45
531.419	1	51
531.589	1	37
531.760	1	33
531.930	1	37
532.100	1	41
532.270	1	42
532.440	1	44
532.610	1	36
532.780	1	37
532.950	1	35
533.120	1	42
533.290	1	46
533.461	1	34
533.631	1	42
533.801	1	43
533.971	1	47
534.141	1	37
534.311	1	43
534.481	1	30
534.651	1	42
534.821	1	54
534.991	1	35
535.162	1	42
535.332	1	41
535.502	1	48
535.672	1	38
535.842	1	43
536.012	1	44
536.182	1	46
536.352	1	38
536.522	1	38
536.692	1	48
536.862	1	38
537.032	1	43
537.203	1	29
537.373	1	40
537.543	1	45
537.713	1	41
537.883	1	30
538.053	1	33
538.223	1	46
538.393	1	41
538.563	1	45
538.733	1	30
538.903	1	45
539.073	1	29
539.243	1	39
539.413	1	45
539.584	1	33
539.754	1	29
539.924	1	34
540.094	1	34
540.264	1	27
540.434	1	36
540.604	1	36
540.774	1	46
540.944	1	41
541.114	1	31
541.284	1	41
541.454	1	30
541.624	1	47
541.794	1	48
541.964	1	27
542.134	1	24
542.305	1	38
542.475	1	25
542.645	1	30
542.815	1	32
542.985	1	42
543.155	1	28
543.325	1	34
543.495	1	26
543.665	1	36
543.835	1	31
544.005	1	38
544.175	1	33
544.345	1	36
544.515	1	25
544.685	1	44
544.855	1	32
545.025	1	24
545.195	1	34
545.365	1	42
545.535	1	50
545.705	1	26
545.875	1	40
546.045	1	34
546.216	1	46
546.386	1	29
546.556	1	29
546.726	1	30
546.896	1	29
547.066	1	27
547.236	1	29
547.406	1	22
547.576	1	30
547.746	1	33
547.916	1	28
548.086	1	22
548.256	1	28
548.426	1	40
548.596	1	30
548.766	1	37
548.936	1	36
549.106	1	31
549.276	1	21
549.446	1	31
549.616	1	32
549.786	1	40
549.956	1	24
550.126	1	34
550.296	1	33
550.466	1	38
550.636	1	33
550.806	1	27
550.976	1	25
551.146	1	34
551.316	1	16
551.486	1	32
551.656	1	30
551.826	1	27
551.996	1	39
552.166	1	35
552.336	1	33
552.506	1	28
552.676	1	34
552.846	1	29
553.016	1	31
553.186	1	28
553.356	1	33
553.526	1	29
553.696	1	31
553.866	1	26
554.036	1	33
554.206	1	26
554.376	1	43
554.546	1	33
554.716	1	27
554.886	1	24
555.056	1	34
555.226	1	37
555.396	1	25
555.566	1	34
555.736	1	31
555.906	1	29
556.076	1	23
556.246	1	33
556.416	1	24
556.586	1	34
556.756	1	28
556.926	1	21
557.096	1	26
557.266	1	30
557.436	1	23
557.606	1	26
557.776	1	37
557.946	1	25
558.116	1	28
558.286	1	32
558.456	1	18
558.626	1	20
558.796	1	28
558.966	1	32
559.136	1	28
559.306	1	18
559.476	1	26
559.646	1	27
559.816	1	32
559.986	1	22
560.155	1	16
560.325	1	26
560.495	1	11
560.665	1	32
560.835	1	32
561.005	1	27
561.175	1	33
561.345	1	27
561.515	1	22
561.685	1	27
561.855	1	12
562.025	1	15
562.195	1	20
562.365	1	21
562.535	1	21
562.705	1	12
562.875	1	11
563.045	1	18
563.215	1	21
563.385	1	21
563.555	1	27
563.725	1	16
563.895	1	34
564.064	1	20
564.234	1	26
564.404	1	16
564.574	1	28
564.744	1	22
564.914	1	20
565.084	1	19
565.254	1	15
565.424	1	25
565.594	1	20
565.764	1	27
565.934	1	19
566.104	1	15
566.274	1	16
566.444	1	31
566.614	1	18
566.783	1	24
566.953	1	20
567.123	1	19
567.293	1	24
567.463	1	18
567.633	1	18
567.803	1	19
567.973	1	18
568.143	1	28
568.313	1	14
568.483	1	14
568.653	1	9
568.823	1	10
568.993	1	9
569.162	1	17
569.332	1	18
569.502	1	21
569.672	1	8
569.842	1	22
570.012	1	10
570.182	1	20
570.352	1	17
570.522	1	5
570.692	1	27
570.862	1	25
571.031	1	19
571.201	1	24
571.371	1	15
571.541	1	17
571.711	1	15
571.881	1	18
572.051	1	22
572.221	1	23
572.391	1	21
572.561	1	17
572.731	1	27
572.900	1	8
573.070	1	10
573.240	1	11
573.410	1	18
573.580	1	19
573.750	1	11
573.920	1	24
574.090	1	11
574.260	1	6
574.430	1	17
574.599	1	28
574.769	1	6
574.939	1	23
575.109	1	17
575.279	1	4
575.449	1	14
575.619	1	17
575.789	1	26
575.959	1	15
576.128	1	8
576.298	1	3
576.468	1	20
576.638	1	7
576.808	1	26
576.978	1	11
577.148	1	24
577.318	1	18
577.487	1	22
577.657	1	23
577.827	1	12
577.997	1	10
578.167	1	13
578.337	1	7
578.507	1	5
578.677	1	16
578.846	1	7
579.016	1	14
579.186	1	9
579.356	1	15
579.526	1	13
579.696	1	0
579.866	1	22
580.036	1	4
580.205	1	7
580.375	1	11
580.545	1	3
580.715	1	17
580.885	1	20
581.055	1	16
581.225	1	7
581.394	1	11
581.564	1	14
581.734	1	19
581.904	1	23
582.074	1	3
582.244	1	1
582.414	1	8
582.583	1	23
582.753	1	11
582.923	1	19
583.093	1	11
583.263	1	10
583.433	1	12
583.603	1	16
583.772	1	16
583.942	1	6
584.112	1	15
584.282	1	6
584.452	1	11
584.622	1	12
584.791	1	18
584.961	1	6
585.131	1	17
585.301	1	15
585.471	1	10
585.641	1	11
585.811	1	9
585.980	1	9
586.150	1	12
586.320	1	1
586.490	1	1
586.660	1	1
586.830	1	-4
586.999	1	4
587.169	1	14
587.339	1	13
587.509	1	15
587.679	1	14
587.849	1	11
588.018	1	24
588.188	1	15
588.358	1	8
588.528	1	16
588.698	1	6
588.867	1	17
589.037	1	12
589.207	1	1
589.377	1	13
589.547	1	6
589.717	1	6
589.886	1	2
590.056	1	4
590.226	1	20
590.396	1	10
590.566	1	9
590.735	1	4
590.905	1	12
591.075	1	13
591.245	1	10
591.415	1	18
591.585	1	12
591.754	1	-1
591.924	1	9
592.094	1	0
592.264	1	8
592.434	1	7
592.603	1	5
592.773	1	21
592.943	1	5
593.113	1	4
593.283	1	9
593.452	1	12
593.622	1	14
593.792	1	-11
593.962	1	10
594.132	1	4
594.301	1	10
594.471	1	17
594.641	1	13
594.811	1	7
594.981	1	-1
595.150	1	7
595.320	1	11
595.490	1	11
595.660	1	6
595.829	1	9
595.999	1	18
596.169	1	12
596.339	1	21
596.509	1	11
596.678	1	4
596.848	1	9
597.018	1	9
597.188	1	8
597.358	1	6
597.527	1	8
597.697	1	6
597.867	1	9
598.037	1	13
598.206	1	7
598.376	1	6
598.546	1	0
598.716	1	10
598.885	1	20
599.055	1	4
599.225	1	8
599.395	1	3
599.565	1	8
599.734	1	2
599.904	1	7
600.074	1	8
600.244	1	-1
600.413	1	14
600.583	1	2
600.753	1	4
600.923	1	5
601.092	1	12
601.262	1	6
601.432	1	6
601.602	1	5
601.771	1	11
601.941	1	1
602.111	1	8
602.281	1	11
602.451	1	17
602.620	1	7
602.790	1	13
602.960	1	4
603.130	1	9
603.299	1	1
603.469	1	6
603.639	1	1
603.809	1	9
603.978	1	5
604.148	1	13
604.318	1	2
604.487	1	16
604.657	1	-1
604.827	1	11
604.997	1	14
605.166	1	10
605.336	1	14
605.506	1	13
605.676	1	8
605.845	1	-5
606.015	1	4
606.185	1	8
606.355	1	14
606.524	1	3
606.694	1	6
606.864	1	19
607.034	1	9
607.203	1	-3
607.373	1	0
607.543	1	11
607.712	1	14
607.882	1	10
608.052	1	-5
608.222	1	-3
608.391	1	16
608.561	1	2
608.731	1	11
608.901	1	14
609.070	1	11
609.240	1	0
609.410	1	16
609.579	1	15
609.749	1	9
609.919	1	15
610.089	1	6
610.258	1	3
610.428	1	16
610.598	1	0
610.767	1	6
610.937	1	2
611.107	1	14
611.277	1	14
611.446	1	5
611.616	1	3
611.786	1	8
611.955	1	7
612.125	1	14
612.295	1	11
612.465	1	10
612.634	1	11
612.804	1	18
612.974	1	8
613.143	1	11
613.313	1	0
613.483	1	-4
613.652	1	0
613.822	1	7
613.992	1	11
614.162	1	9
614.331	1	7
614.501	1	25
614.671	1	9
614.840	1	-2
615.010	1	-1
615.180	1	12
615.349	1	10
615.519	1	2
615.689	1	13
615.858	1	5
616.028	1	11
616.198	1	14
616.368	1	2
616.537	1	3
616.707	1	12
616.877	1	8
617.046	1	12
617.216	1	5
617.386	1	10
617.555	1	0
617.725	1	10
617.895	1	2
618.064	1	5
618.234	1	0
618.404	1	-5
618.573	1	5
618.743	1	12
618.913	1	14
619.082	1	2
619.252	1	3
619.422	1	12
619.591	1	6
619.761	1	7
619.931	1	0
620.100	1	8
620.270	1	12
620.440	1	11
620.609	1	0
620.779	1	3
620.949	1	-1
621.118	1	12
621.288	1	-2
621.458	1	12
621.627	1	8
621.797	1	1
621.967	1	9
622.136	1	12
622.306	1	8
622.476	1	13
622.645	1	6
622.815	1	7
622.985	1	7
623.154	1	4
623.324	1	-7
623.494	1	13
623.663	1	1
623.833	1	11
624.002	1	12
624.172	1	13
624.342	1	8
624.511	1	7
624.681	1	7
624.851	1	7
625.020	1	11
625.190	1	2
625.360	1	5
625.529	1	0
625.699	1	3
625.869	1	10
626.038	1	4
626.208	1	5
626.377	1	9
626.547	1	4
626.717	1	12
626.886	1	7
627.056	1	7
627.226	1	4
627.395	1	-1
627.565	1	6
627.735	1	11
627.904	1	19
628.074	1	19
628.243	1	8
628.413	1	3
628.583	1	-7
628.752	1	1
628.922	1	-5
629.091	1	-1
629.261	1	3
629.431	1	13
629.600	1	10
629.770	1	0
629.940	1	16
630.109	1	9
630.279	1	17
630.448	1	2
630.618	1	1
630.788	1	-6
630.957	1	7
631.127	1	3
631.297	1	4
631.466	1	9
631.636	1	13
631.805	1	3
631.975	1	7
632.145	1	-1
632.314	1	7
632.484	1	-13
632.653	1	8
632.823	1	4
632.993	1	13
633.162	1	7
633.332	1	9
633.501	1	16
633.671	1	2
633.841	1	20
634.010	1	-4
634.180	1	13
634.349	1	11
634.519	1	11
634.689	1	10
634.858	1	11
635.028	1	5
635.197	1	8
635.367	1	10
635.537	1	-3
635.706	1	-3
635.876	1	6
636.045	1	17
636.215	1	10
636.384	1	6
636.554	1	10
636.724	1	9
636.893	1	11
637.063	1	8
637.232	1	0
637.402	1	1
637.572	1	-1
637.741	1	3
637.911	1	-1
638.080	1	17
638.250	1	14
638.419	1	9
638.589	1	4
638.759	1	-1
638.928	1	5
639.098	1	4
639.267	1	9
639.437	1	8
639.606	1	8
639.776	1	-7
639.946	1	1
640.115	1	11
640.285	1	4
640.454	1	3
640.624	1	-8
640.793	1	-5
640.963	1	-1
641.132	1	15
641.302	1	14
641.472	1	7
641.641	1	9
641.811	1	9
641.980	1	7
642.150	1	1
642.319	1	19
642.489	1	4
642.659	1	-4
642.828	1	5
642.998	1	10
643.167	1	8
643.337	1	-3
643.506	1	14
643.676	1	8
643.845	1	-9
644.015	1	12
644.184	1	2
644.354	1	-1
644.524	1	-9
644.693	1	5
644.863	1	2
645.032	1	5
645.202	1	14
645.371	1	17
645.541	1	13
645.710	1	11
645.880	1	17
646.049	1	-8
646.219	1	1
646.388	1	6
646.558	1	3
646.728	1	3
646.897	1	3
647.067	1	12
647.236	1	-3
647.406	1	0
647.575	1	-3
647.745	1	6
647.914	1	5
648.084	1	0
648.253	1	3
648.423	1	14
648.592	1	-3
648.762	1	8
648.931	1	1
649.101	1	2
649.270	1	-8
649.440	1	6
649.610	1	3
649.779	1	2
649.949	1	0
650.118	1	1
650.288	1	9
650.457	1	1
650.627	1	13
650.796	1	-4
650.966	1	14
651.135	1	7
651.305	1	9
651.474	1	6
651.644	1	-4
651.813	1	11
651.983	1	-12
652.152	1	5
652.322	1	1
652.491	1	11
652.661	1	7
652.830	1	11
653.000	1	3
653.169	1	1
653.339	1	4
653.508	1	8
653.678	1	-8
653.847	1	6
654.017	1	-2
654.186	1	6
654.356	1	11
654.525	1	7
654.695	1	14
654.864	1	5
655.034	1	10
655.203	1	16
655.373	1	3
655.542	1	-3
655.712	1	-1
655.881	1	6
656.051	1	1
656.220	1	1
656.390	1	6
656.559	1	4
656.729	1	5
656.898	1	0
657.068	1	4
657.237	1	5
657.406	1	4
657.576	1	-2
657.745	1	4
657.915	1	8
658.084	1	-5
658.254	1	-2
658.423	1	-2
658.593	1	4
658.762	1	15
658.932	1	10
659.101	1	3
659.271	1	10
659.440	1	-7
659.610	1	12
659.779	1	11
659.949	1	4
660.118	1	6
660.288	1	-4
660.457	1	4
660.626	1	18
660.796	1	7
660.965	1	1
661.135	1	8
661.304	1	9
661.474	1	2
661.643	1	8
661.813	1	2
661.982	1	5
662.152	1	1
662.321	1	-5
662.491	1	19
662.660	1	6
662.829	1	3
662.999	1	-2
663.168	1	-6
663.338	1	5
663.507	1	3
663.677	1	4
663.846	1	9
664.016	1	3
664.185	1	1
664.354	1	5
664.524	1	-1
664.693	1	7
664.863	1	10
665.032	1	22
665.202	1	5
665.371	1	0
665.541	1	5
665.710	1	4
665.879	1	4
666.049	1	4
666.218	1	0
666.388	1	4
666.557	1	2
666.727	1	-4
666.896	1	5
667.065	1	8
667.235	1	12
667.404	1	7
667.574	1	10
667.743	1	-10
667.913	1	5
668.082	1	10
668.251	1	-4
668.421	1	-7
668.590	1	1
668.760	1	4
668.929	1	14
669.099	1	0
669.268	1	5
669.437	1	-4
669.607	1	-7
669.776	1	-2
669.946	1	6
670.115	1	9
670.285	1	15
670.454	1	4
670.623	1	16
670.793	1	-2
670.962	1	-4
671.132	1	-2
671.301	1	9
671.470	1	15
671.640	1	2
671.809	1	-3
671.979	1	11
672.148	1	3
672.317	1	7
672.487	1	-11
672.656	1	-1
672.826	1	-3
672.995	1	7
673.164	1	11
673.334	1	-10
673.503	1	-3
673.673	1	5
673.842	1	6
674.011	1	7
674.181	1	20
674.350	1	4
674.520	1	2
674.689	1	5
674.858	1	4
675.028	1	15
675.197	1	-2
675.367	1	1
675.536	1	10
675.705	1	11
675.875	1	4
676.044	1	3
676.214	1	15
676.383	1	-2
676.552	1	2
676.722	1	-6
676.891	1	8
677.060	1	-5
677.230	1	12
677.399	1	3
677.569	1	5
677.738	1	1
677.907	1	9
678.077	1	6
678.246	1	16
678.416	1	2
678.585	1	3
678.754	1	7
678.924	1	7
679.093	1	5
679.262	1	9
679.432	1	8
679.601	1	4
679.771	1	5
679.940	1	7
680.109	1	-1
680.279	1	7
680.448	1	4
680.617	1	-4
680.787	1	13
680.956	1	7
681.125	1	10
681.295	1	5
681.464	1	-3
681.634	1	16
681.803	1	7
681.972	1	0
682.142	1	2
682.311	1	-8
682.480	1	17
682.650	1	-4
682.819	1	13
682.988	1	-4
683.158	1	4
683.327	1	10
683.496	1	2
683.666	1	3
683.835	1	4
684.004	1	11
684.174	1	11
684.343	1	5
684.512	1	14
684.682	1	-1
684.851	1	-1
685.021	1	1
685.190	1	10
685.359	1	-3
685.529	1	-7
685.698	1	-1
685.867	1	15
686.037	1	13
686.206	1	3
686.375	1	-3
686.545	1	0
686.714	1	-7
686.883	1	0
687.053	1	4
687.222	1	1
687.391	1	20
687.561	1	14
687.730	1	-5
687.899	1	3
688.069	1	4
688.238	1	18
688.407	1	8
688.577	1	2
688.746	1	10
