340.368	1	12
340.539	1	0
340.710	1	6
340.881	1	2
341.052	1	2
341.223	1	-5
341.394	1	-3
341.565	1	-9
341.737	1	4
341.908	1	3
342.079	1	1
342.250	1	12
342.421	1	4
342.592	1	2
342.763	1	-5
342.934	1	5
343.105	1	2
343.276	1	3
343.447	1	3
343.618	1	4
343.789	1	3
343.960	1	-11
344.131	1	5
344.302	1	6
344.473	1	6
344.644	1	3
344.815	1	8
344.986	1	6
345.157	1	-11
345.328	1	9
345.499	1	-7
345.670	1	0
345.841	1	-4
346.012	1	0
346.183	1	11
346.354	1	-3
346.526	1	8
346.697	1	2
346.868	1	3
347.039	1	-1
347.210	1	-2
347.381	1	4
347.552	1	-2
347.723	1	2
347.894	1	4
348.065	1	8
348.236	1	-3
348.407	1	-1
348.578	1	2
348.749	1	11
348.920	1	-9
349.091	1	6
349.262	1	12
349.433	1	4
349.604	1	5
349.775	1	0
349.946	1	3
350.117	1	12
350.288	1	-6
350.459	1	-2
350.630	1	0
350.801	1	-2
350.972	1	12
351.143	1	-2
351.314	1	-3
351.485	1	-2
351.656	1	8
351.827	1	-3
351.998	1	4
352.169	1	6
352.340	1	17
352.511	1	3
352.682	1	0
352.853	1	14
353.024	1	1
353.195	1	-5
353.366	1	11
353.537	1	1
353.708	1	4
353.879	1	-2
354.050	1	9
354.221	1	5
354.392	1	11
354.563	1	-6
354.734	1	-5
354.905	1	11
355.076	1	-2
355.247	1	0
355.418	1	3
355.589	1	3
355.760	1	4
355.931	1	1
356.102	1	5
356.273	1	5
356.444	1	-11
356.615	1	3
356.785	1	5
356.956	1	10
357.127	1	7
357.298	1	0
357.469	1	2
357.640	1	-1
357.811	1	-2
357.982	1	-4
358.153	1	6
358.324	1	10
358.495	1	2
358.666	1	-3
358.837	1	5
359.008	1	1
359.179	1	4
359.350	1	0
359.521	1	0
359.692	1	3
359.863	1	3
360.034	1	-1
360.205	1	-3
360.376	1	8
360.547	1	-4
360.718	1	11
360.889	1	-6
361.060	1	1
361.231	1	-4
361.401	1	3
361.572	1	6
361.743	1	9
361.914	1	5
362.085	1	17
362.256	1	6
362.427	1	5
362.598	1	12
362.769	1	-1
362.940	1	-4
363.111	1	13
363.282	1	18
363.453	1	-7
363.624	1	10
363.795	1	3
363.966	1	12
364.137	1	0
364.308	1	14
364.478	1	3
364.649	1	2
364.820	1	13
364.991	1	9
365.162	1	11
365.333	1	6
365.504	1	8
365.675	1	5
365.846	1	2
366.017	1	9
366.188	1	11
366.359	1	4
366.530	1	10
366.701	1	20
366.871	1	10
367.042	1	18
367.213	1	15
367.384	1	26
367.555	1	10
367.726	1	11
367.897	1	4
368.068	1	6
368.239	1	12
368.410	1	3
368.581	1	15
368.752	1	23
368.923	1	7
369.093	1	13
369.264	1	10
369.435	1	-3
369.606	1	16
369.777	1	4
369.948	1	5
370.119	1	10
370.290	1	15
370.461	1	15
370.632	1	5
370.803	1	2
370.973	1	8
371.144	1	7
371.315	1	11
371.486	1	-1
371.657	1	1
371.828	1	9
371.999	1	-1
372.170	1	4
372.341	1	4
372.512	1	12
372.682	1	-2
372.853	1	-7
373.024	1	11
373.195	1	7
373.366	1	7
373.537	1	9
373.708	1	7
373.879	1	7
374.050	1	4
374.220	1	-8
374.391	1	5
374.562	1	1
374.733	1	1
374.904	1	12
375.075	1	13
375.246	1	8
375.417	1	-3
375.588	1	3
375.758	1	-5
375.929	1	-6
376.100	1	2
376.271	1	11
376.442	1	16
376.613	1	5
376.784	1	8
376.955	1	9
377.125	1	7
377.296	1	3
377.467	1	10
377.638	1	-4
377.809	1	4
377.980	1	-5
378.151	1	1
378.321	1	10
378.492	1	11
378.663	1	4
378.834	1	3
379.005	1	15
379.176	1	0
379.347	1	-2
379.518	1	6
379.688	1	-1
379.859	1	8
380.030	1	0
380.201	1	8
380.372	1	14
380.543	1	7
380.714	1	16
380.884	1	-3
381.055	1	-1
381.226	1	9
381.397	1	4
381.568	1	4
381.739	1	6
381.910	1	11
382.080	1	-2
382.251	1	6
382.422	1	11
382.593	1	-4
382.764	1	1
382.935	1	-3
383.105	1	8
383.276	1	0
383.447	1	10
383.618	1	9
383.789	1	11
383.960	1	0
384.130	1	9
384.301	1	4
384.472	1	11
384.643	1	-1
384.814	1	2
384.985	1	5
385.156	1	0
385.326	1	5
385.497	1	-5
385.668	1	0
385.839	1	7
386.010	1	2
386.180	1	6
386.351	1	-1
386.522	1	-1
386.693	1	4
386.864	1	5
387.035	1	12
387.205	1	3
387.376	1	5
387.547	1	6
387.718	1	10
387.889	1	0
388.060	1	-2
388.230	1	-2
388.401	1	3
388.572	1	5
388.743	1	15
388.914	1	2
389.084	1	8
389.255	1	-1
389.426	1	6
389.597	1	-9
389.768	1	-2
389.939	1	1
390.109	1	2
390.280	1	7
390.451	1	16
390.622	1	3
390.793	1	8
390.963	1	5
391.134	1	3
391.305	1	2
391.476	1	-1
391.647	1	0
391.817	1	7
391.988	1	7
392.159	1	-5
392.330	1	-2
392.501	1	12
392.671	1	3
392.842	1	11
393.013	1	2
393.184	1	-2
393.355	1	1
393.525	1	4
393.696	1	3
393.867	1	5
394.038	1	9
394.208	1	-11
394.379	1	11
394.550	1	10
394.721	1	1
394.892	1	2
395.062	1	-3
395.233	1	4
395.404	1	-5
395.575	1	3
395.746	1	8
395.916	1	13
396.087	1	14
396.258	1	8
396.429	1	8
396.599	1	11
396.770	1	3
396.941	1	6
397.112	1	6
397.283	1	4
397.453	1	9
397.624	1	5
397.795	1	-7
397.966	1	11
398.136	1	11
398.307	1	8
398.478	1	0
398.649	1	5
398.819	1	-4
398.990	1	-2
399.161	1	10
399.332	1	8
399.503	1	13
399.673	1	2
399.844	1	4
400.015	1	5
400.186	1	0
400.356	1	6
400.527	1	13
400.698	1	5
400.869	1	16
401.039	1	-1
401.210	1	-5
401.381	1	10
401.552	1	10
401.722	1	3
401.893	1	-8
402.064	1	-6
402.235	1	8
402.405	1	12
402.576	1	2
402.747	1	11
402.918	1	5
403.088	1	2
403.259	1	2
403.430	1	7
403.601	1	13
403.771	1	-3
403.942	1	8
404.113	1	4
404.284	1	-7
404.454	1	15
404.625	1	11
404.796	1	13
404.967	1	-5
405.137	1	12
405.308	1	9
405.479	1	-1
405.649	1	6
405.820	1	16
405.991	1	3
406.162	1	1
406.332	1	6
406.503	1	1
406.674	1	-1
406.845	1	0
407.015	1	8
407.186	1	6
407.357	1	7
407.527	1	-2
407.698	1	4
407.869	1	8
408.040	1	15
408.210	1	10
408.381	1	1
408.552	1	-1
408.722	1	6
408.893	1	7
409.064	1	5
409.235	1	-2
409.405	1	10
409.576	1	3
409.747	1	0
409.917	1	-1
410.088	1	16
410.259	1	1
410.430	1	15
410.600	1	4
410.771	1	-8
410.942	1	12
411.112	1	17
411.283	1	-5
411.454	1	9
411.625	1	13
411.795	1	-3
411.966	1	-6
412.137	1	-12
412.307	1	7
412.478	1	-9
412.649	1	17
412.819	1	-2
412.990	1	2
413.161	1	5
413.332	1	-1
413.502	1	9
413.673	1	-6
413.844	1	-2
414.014	1	15
414.185	1	10
414.356	1	6
414.526	1	-2
414.697	1	6
414.868	1	2
415.038	1	2
415.209	1	-1
415.380	1	8
415.550	1	2
415.721	1	-3
415.892	1	6
416.063	1	2
416.233	1	8
416.404	1	16
416.575	1	7
416.745	1	6
416.916	1	6
417.087	1	9
417.257	1	-1
417.428	1	-4
417.599	1	4
417.769	1	4
417.940	1	12
418.111	1	17
418.281	1	1
418.452	1	0
418.623	1	4
418.793	1	7
418.964	1	1
419.135	1	0
419.305	1	-1
419.476	1	0
419.647	1	16
419.817	1	2
419.988	1	3
420.159	1	10
420.329	1	8
420.500	1	12
420.671	1	-5
420.841	1	7
421.012	1	1
421.183	1	1
421.353	1	0
421.524	1	7
421.695	1	4
421.865	1	6
422.036	1	5
422.206	1	5
422.377	1	12
422.548	1	11
422.718	1	-1
422.889	1	-1
423.060	1	3
423.230	1	2
423.401	1	15
423.572	1	-9
423.742	1	5
423.913	1	11
424.084	1	6
424.254	1	13
424.425	1	2
424.595	1	4
424.766	1	5
424.937	1	-1
425.107	1	6
425.278	1	-3
425.449	1	6
425.619	1	9
425.790	1	16
425.961	1	3
426.131	1	13
426.302	1	6
426.472	1	4
426.643	1	5
426.814	1	9
426.984	1	-2
427.155	1	4
427.326	1	9
427.496	1	5
427.667	1	9
427.837	1	9
428.008	1	1
428.179	1	4
428.349	1	8
428.520	1	14
428.691	1	-4
428.861	1	-1
429.032	1	-8
429.202	1	10
429.373	1	13
429.544	1	11
429.714	1	0
429.885	1	5
430.055	1	-1
430.226	1	-2
430.397	1	-7
430.567	1	-3
430.738	1	0
430.909	1	2
431.079	1	21
431.250	1	3
431.420	1	11
431.591	1	-9
431.762	1	0
431.932	1	3
432.103	1	-7
432.273	1	6
432.444	1	7
432.615	1	10
432.785	1	5
432.956	1	-2
433.126	1	7
433.297	1	13
433.468	1	3
433.638	1	11
433.809	1	5
433.979	1	9
434.150	1	-2
434.320	1	4
434.491	1	2
434.662	1	10
434.832	1	4
435.003	1	12
435.173	1	-5
435.344	1	7
435.515	1	5
435.685	1	-6
435.856	1	-12
436.026	1	5
436.197	1	-4
436.368	1	3
436.538	1	12
436.709	1	2
436.879	1	-3
437.050	1	9
437.220	1	0
437.391	1	18
437.562	1	5
437.732	1	0
437.903	1	8
438.073	1	5
438.244	1	8
438.414	1	1
438.585	1	0
438.756	1	2
438.926	1	-2
439.097	1	4
439.267	1	1
439.438	1	7
439.608	1	16
439.779	1	17
439.949	1	13
440.120	1	2
440.291	1	10
440.461	1	15
440.632	1	7
440.802	1	-4
440.973	1	7
441.143	1	-6
441.314	1	11
441.485	1	10
441.655	1	18
441.826	1	4
441.996	1	10
442.167	1	-3
442.337	1	8
442.508	1	9
442.678	1	-4
442.849	1	1
443.019	1	9
443.190	1	3
443.361	1	5
443.531	1	3
443.702	1	0
443.872	1	4
444.043	1	-2
444.213	1	-6
444.384	1	2
444.554	1	-7
444.725	1	16
444.895	1	-2
445.066	1	-9
445.237	1	0
445.407	1	-2
445.578	1	2
445.748	1	10
445.919	1	1
446.089	1	13
446.260	1	8
446.430	1	3
446.601	1	9
446.771	1	3
446.942	1	-2
447.112	1	-1
447.283	1	11
447.453	1	-2
447.624	1	-2
447.794	1	18
447.965	1	6
448.135	1	9
448.306	1	3
448.477	1	6
448.647	1	8
448.818	1	-10
448.988	1	2
449.159	1	4
449.329	1	-9
449.500	1	0
449.670	1	4
449.841	1	-6
450.011	1	-5
450.182	1	10
450.352	1	8
450.523	1	2
450.693	1	-1
450.864	1	0
451.034	1	-10
451.205	1	4
451.375	1	13
451.546	1	12
451.716	1	-2
451.887	1	-4
452.057	1	11
452.228	1	7
452.398	1	-9
452.569	1	4
452.739	1	13
452.910	1	1
453.080	1	7
453.251	1	20
453.421	1	3
453.592	1	8
453.762	1	3
453.933	1	6
454.103	1	3
454.274	1	-2
454.444	1	3
454.615	1	3
454.785	1	15
454.956	1	5
455.126	1	-5
455.297	1	9
455.467	1	3
455.638	1	7
455.808	1	10
455.979	1	11
456.149	1	-15
456.320	1	0
456.490	1	5
456.661	1	3
456.831	1	14
457.001	1	-5
457.172	1	-3
457.342	1	6
457.513	1	0
457.683	1	-3
457.854	1	4
458.024	1	14
458.195	1	-4
458.365	1	9
458.536	1	4
458.706	1	3
458.877	1	26
459.047	1	-12
459.218	1	9
459.388	1	5
459.559	1	4
459.729	1	-3
459.899	1	4
460.070	1	13
460.240	1	8
460.411	1	7
460.581	1	-7
460.752	1	7
460.922	1	3
461.093	1	8
461.263	1	11
461.434	1	7
461.604	1	-10
461.775	1	-3
461.945	1	15
462.115	1	-5
462.286	1	6
462.456	1	-1
462.627	1	-1
462.797	1	-2
462.968	1	7
463.138	1	7
463.309	1	3
463.479	1	3
463.649	1	-6
463.820	1	1
463.990	1	3
464.161	1	-14
464.331	1	7
464.502	1	3
464.672	1	9
464.843	1	-3
465.013	1	3
465.183	1	12
465.354	1	5
465.524	1	-8
465.695	1	9
465.865	1	-2
466.036	1	-5
466.206	1	2
466.376	1	-5
466.547	1	-11
466.717	1	2
466.888	1	1
467.058	1	6
467.229	1	4
467.399	1	9
467.569	1	12
467.740	1	12
467.910	1	4
468.081	1	4
468.251	1	2
468.422	1	1
468.592	1	3
468.762	1	1
468.933	1	6
469.103	1	7
469.274	1	6
469.444	1	4
469.614	1	3
469.785	1	6
469.955	1	-5
470.126	1	-12
470.296	1	-8
470.467	1	-1
470.637	1	9
470.807	1	5
470.978	1	3
471.148	1	2
471.319	1	3
471.489	1	0
471.659	1	-4
471.830	1	6
472.000	1	-1
472.171	1	0
472.341	1	-9
472.511	1	4
472.682	1	15
472.852	1	4
473.023	1	4
473.193	1	1
473.363	1	14
473.534	1	1
473.704	1	-3
473.875	1	18
474.045	1	-2
474.215	1	7
474.386	1	2
474.556	1	4
474.727	1	-1
474.897	1	-2
475.067	1	7
475.238	1	10
475.408	1	7
475.578	1	6
475.749	1	6
475.919	1	-7
476.090	1	4
476.260	1	-7
476.430	1	13
476.601	1	2
476.771	1	-10
476.942	1	-4
477.112	1	6
477.282	1	0
477.453	1	3
477.623	1	-13
477.793	1	2
477.964	1	-2
478.134	1	9
478.305	1	14
478.475	1	0
478.645	1	0
478.816	1	10
478.986	1	1
479.156	1	1
479.327	1	-3
479.497	1	6
479.667	1	10
479.838	1	7
480.008	1	1
480.179	1	5
480.349	1	4
480.519	1	-5
480.690	1	1
480.860	1	-1
481.030	1	3
481.201	1	11
481.371	1	6
481.541	1	5
481.712	1	-3
481.882	1	-3
482.053	1	5
482.223	1	-2
482.393	1	9
482.564	1	-4
482.734	1	-1
482.904	1	4
483.075	1	16
483.245	1	-8
483.415	1	-1
483.586	1	-1
483.756	1	2
483.926	1	-1
484.097	1	0
484.267	1	4
484.437	1	-5
484.608	1	11
484.778	1	6
484.948	1	2
485.119	1	2
485.289	1	-1
485.459	1	-6
485.630	1	3
485.800	1	16
485.970	1	1
486.141	1	-2
486.311	1	9
486.481	1	-1
486.652	1	10
486.822	1	12
486.992	1	4
487.163	1	-4
487.333	1	-6
487.503	1	-6
487.674	1	7
487.844	1	-2
488.014	1	7
488.185	1	1
488.355	1	10
488.525	1	11
488.696	1	5
488.866	1	1
489.036	1	6
489.207	1	-1
489.377	1	-5
489.547	1	-2
489.718	1	-1
489.888	1	11
490.058	1	3
490.228	1	5
490.399	1	8
490.569	1	5
490.739	1	6
490.910	1	-4
491.080	1	1
491.250	1	10
491.421	1	6
491.591	1	-13
491.761	1	-5
491.932	1	1
492.102	1	6
492.272	1	4
492.442	1	1
492.613	1	-5
492.783	1	-10
492.953	1	6
493.124	1	2
493.294	1	8
493.464	1	-5
493.635	1	9
493.805	1	4
493.975	1	14
494.145	1	-1
494.316	1	7
494.486	1	3
494.656	1	7
494.827	1	4
494.997	1	-6
495.167	1	9
495.337	1	3
495.508	1	-2
495.678	1	1
495.848	1	12
496.019	1	0
496.189	1	1
496.359	1	3
496.529	1	11
496.700	1	10
496.870	1	-2
497.040	1	3
497.211	1	-7
497.381	1	-1
497.551	1	15
497.721	1	-3
497.892	1	7
498.062	1	-2
498.232	1	4
498.403	1	0
498.573	1	4
498.743	1	6
498.913	1	10
499.084	1	12
499.254	1	10
499.424	1	-16
499.594	1	1
499.765	1	0
499.935	1	0
500.105	1	-3
500.275	1	8
500.446	1	7
500.616	1	7
500.786	1	10
500.956	1	-6
501.127	1	-4
501.297	1	4
501.467	1	2
501.638	1	13
501.808	1	3
501.978	1	-3
502.148	1	8
502.319	1	12
502.489	1	0
502.659	1	5
502.829	1	5
503.000	1	6
503.170	1	-2
503.340	1	0
503.510	1	2
503.681	1	-7
503.851	1	7
504.021	1	1
504.191	1	3
504.362	1	-2
504.532	1	3
504.702	1	8
504.872	1	2
505.042	1	4
505.213	1	5
505.383	1	8
505.553	1	1
505.723	1	8
505.894	1	4
506.064	1	2
506.234	1	5
506.404	1	2
506.575	1	8
506.745	1	9
506.915	1	2
507.085	1	6
507.256	1	14
507.426	1	12
507.596	1	0
507.766	1	11
507.936	1	-3
508.107	1	4
508.277	1	-4
508.447	1	17
508.617	1	-3
508.788	1	4
508.958	1	1
509.128	1	12
509.298	1	-2
509.468	1	2
509.639	1	3
509.809	1	2
509.979	1	0
510.149	1	7
510.319	1	14
510.490	1	7
510.660	1	4
510.830	1	14
511.000	1	7
511.171	1	12
511.341	1	-2
511.511	1	0
511.681	1	5
511.851	1	11
512.022	1	11
512.192	1	-9
512.362	1	2
512.532	1	0
512.702	1	9
512.873	1	1
513.043	1	1
513.213	1	16
513.383	1	6
513.553	1	11
513.724	1	-6
513.894	1	-2
514.064	1	5
514.234	1	7
514.404	1	5
514.575	1	-9
514.745	1	7
514.915	1	-5
515.085	1	13
515.255	1	-2
515.425	1	5
515.596	1	-5
515.766	1	5
515.936	1	3
516.106	1	-4
516.276	1	0
516.447	1	3
516.617	1	5
516.787	1	15
516.957	1	0
517.127	1	2
517.297	1	-1
517.468	1	12
517.638	1	2
517.808	1	-2
517.978	1	4
518.148	1	4
518.319	1	-5
518.489	1	0
518.659	1	-2
518.829	1	5
518.999	1	-1
519.169	1	4
519.340	1	-8
519.510	1	2
519.680	1	6
519.850	1	7
520.020	1	3
520.190	1	13
520.361	1	-1
520.531	1	9
520.701	1	1
520.871	1	-2
521.041	1	12
521.211	1	4
521.382	1	13
521.552	1	6
521.722	1	6
521.892	1	1
522.062	1	-2
522.232	1	-9
522.402	1	-5
522.573	1	-6
522.743	1	4
522.913	1	11
523.083	1	2
523.253	1	7
523.423	1	7
523.593	1	1
523.764	1	-7
523.934	1	-7
524.104	1	3
524.274	1	-5
524.444	1	1
524.614	1	13
524.784	1	8
524.955	1	8
525.125	1	-1
525.295	1	12
525.465	1	11
525.635	1	9
525.805	1	-7
525.975	1	9
526.146	1	-5
526.316	1	2
526.486	1	3
526.656	1	4
526.826	1	8
526.996	1	2
527.166	1	12
527.337	1	10
527.507	1	15
527.677	1	6
527.847	1	3
528.017	1	-1
528.187	1	18
528.357	1	2
528.527	1	11
528.698	1	0
528.868	1	0
529.038	1	-2
529.208	1	-7
529.378	1	11
529.548	1	3
529.718	1	13
529.888	1	-8
530.058	1	-5
530.229	1	6
530.399	1	-3
530.569	1	2
530.739	1	3
530.909	1	6
531.079	1	3
531.249	1	9
531.419	1	3
531.589	1	1
531.760	1	-4
531.930	1	9
532.100	1	11
532.270	1	2
532.440	1	1
532.610	1	-2
532.780	1	3
532.950	1	14
533.120	1	4
533.290	1	9
533.461	1	4
533.631	1	4
533.801	1	10
533.971	1	-1
534.141	1	3
534.311	1	7
534.481	1	0
534.651	1	4
534.821	1	17
534.991	1	3
535.162	1	7
535.332	1	6
535.502	1	5
535.672	1	7
535.842	1	6
536.012	1	7
536.182	1	4
536.352	1	8
536.522	1	-2
536.692	1	11
536.862	1	3
537.032	1	4
537.203	1	-8
537.373	1	10
537.543	1	8
537.713	1	1
537.883	1	-3
538.053	1	-12
538.223	1	8
538.393	1	16
538.563	1	4
538.733	1	6
538.903	1	16
539.073	1	11
539.243	1	-2
539.413	1	6
539.584	1	8
539.754	1	-2
539.924	1	-4
540.094	1	8
540.264	1	2
540.434	1	20
540.604	1	6
540.774	1	6
540.944	1	9
541.114	1	-13
541.284	1	1
541.454	1	6
541.624	1	16
541.794	1	3
541.964	1	-6
542.134	1	1
542.305	1	-4
542.475	1	1
542.645	1	-2
542.815	1	17
542.985	1	8
543.155	1	1
543.325	1	2
543.495	1	2
543.665	1	14
543.835	1	5
544.005	1	1
544.175	1	-2
544.345	1	4
544.515	1	8
544.685	1	13
544.855	1	0
545.025	1	-3
545.195	1	4
545.365	1	13
545.535	1	21
545.705	1	10
545.875	1	9
546.045	1	3
546.216	1	11
546.386	1	9
546.556	1	-5
546.726	1	-6
546.896	1	-2
547.066	1	5
547.236	1	-3
547.406	1	-3
547.576	1	3
547.746	1	7
547.916	1	-4
548.086	1	-14
548.256	1	-3
548.426	1	-5
548.596	1	5
548.766	1	10
548.936	1	20
549.106	1	-2
549.276	1	-5
549.446	1	3
549.616	1	3
549.786	1	4
549.956	1	-3
550.126	1	8
550.296	1	-1
550.466	1	9
550.636	1	4
550.806	1	7
550.976	1	-9
551.146	1	3
551.316	1	-2
551.486	1	-2
551.656	1	7
551.826	1	7
551.996	1	4
552.166	1	6
552.336	1	-2
552.506	1	3
552.676	1	6
552.846	1	-5
553.016	1	3
553.186	1	6
553.356	1	11
553.526	1	1
553.696	1	-1
553.866	1	-4
554.036	1	-2
554.206	1	1
554.376	1	5
554.546	1	13
554.716	1	5
554.886	1	2
555.056	1	9
555.226	1	10
555.396	1	-10
555.566	1	2
555.736	1	-3
555.906	1	-5
556.076	1	0
556.246	1	4
556.416	1	5
556.586	1	6
556.756	1	1
556.926	1	5
557.096	1	-1
557.266	1	2
557.436	1	4
557.606	1	3
557.776	1	1
557.946	1	5
558.116	1	2
558.286	1	13
558.456	1	10
558.626	1	-5
558.796	1	9
558.966	1	0
559.136	1	-8
559.306	1	4
559.476	1	4
559.646	1	0
559.816	1	6
559.986	1	-1
560.155	1	5
560.325	1	-4
560.495	1	-1
560.665	1	12
560.835	1	4
561.005	1	-2
561.175	1	7
561.345	1	8
561.515	1	2
561.685	1	1
561.855	1	1
562.025	1	-7
562.195	1	4
562.365	1	2
562.535	1	-2
562.705	1	5
562.875	1	0
563.045	1	1
563.215	1	9
563.385	1	9
563.555	1	16
563.725	1	0
563.895	1	6
564.064	1	-1
564.234	1	-1
564.404	1	2
564.574	1	2
564.744	1	2
564.914	1	-1
565.084	1	7
565.254	1	1
565.424	1	-2
565.594	1	10
565.764	1	5
565.934	1	4
566.104	1	-2
566.274	1	-8
566.444	1	9
566.614	1	9
566.783	1	12
566.953	1	8
567.123	1	-2
567.293	1	9
567.463	1	-1
567.633	1	-4
567.803	1	9
567.973	1	5
568.143	1	13
568.313	1	-5
568.483	1	-8
568.653	1	2
568.823	1	0
568.993	1	1
569.162	1	5
569.332	1	7
569.502	1	1
569.672	1	-2
569.842	1	0
570.012	1	5
570.182	1	5
570.352	1	-5
570.522	1	-12
570.692	1	4
570.862	1	10
571.031	1	3
571.201	1	-1
571.371	1	8
571.541	1	-4
571.711	1	1
571.881	1	-4
572.051	1	9
572.221	1	15
572.391	1	17
572.561	1	0
572.731	1	2
572.900	1	4
573.070	1	-2
573.240	1	1
573.410	1	-5
573.580	1	-4
573.750	1	5
573.920	1	12
574.090	1	6
574.260	1	12
574.430	1	-3
574.599	1	7
574.769	1	0
574.939	1	11
575.109	1	9
575.279	1	-3
575.449	1	11
575.619	1	6
575.789	1	2
575.959	1	-2
576.128	1	-1
576.298	1	6
576.468	1	-4
576.638	1	-10
576.808	1	-12
576.978	1	-4
577.148	1	1
577.318	1	-1
577.487	1	8
577.657	1	14
577.827	1	-7
577.997	1	3
578.167	1	-4
578.337	1	1
578.507	1	2
578.677	1	14
578.846	1	-3
579.016	1	7
579.186	1	-4
579.356	1	17
579.526	1	4
579.696	1	5
579.866	1	13
580.036	1	1
580.205	1	0
580.375	1	-6
580.545	1	4
580.715	1	-1
580.885	1	7
581.055	1	5
581.225	1	-1
581.394	1	-4
581.564	1	2
581.734	1	7
581.904	1	10
582.074	1	3
582.244	1	-3
582.414	1	-1
582.583	1	4
582.753	1	4
582.923	1	11
583.093	1	5
583.263	1	5
583.433	1	5
583.603	1	8
583.772	1	-6
583.942	1	-6
584.112	1	7
584.282	1	1
584.452	1	10
584.622	1	-5
584.791	1	9
584.961	1	-6
585.131	1	9
585.301	1	3
585.471	1	1
585.641	1	12
585.811	1	5
585.980	1	6
586.150	1	7
586.320	1	0
586.490	1	-3
586.660	1	-5
586.830	1	-1
586.999	1	-5
587.169	1	12
587.339	1	-1
587.509	1	-1
587.679	1	3
587.849	1	5
588.018	1	15
588.188	1	11
588.358	1	-6
588.528	1	9
588.698	1	5
588.867	1	7
589.037	1	5
589.207	1	3
589.377	1	-11
589.547	1	1
589.717	1	-1
589.886	1	7
590.056	1	-13
590.226	1	8
590.396	1	1
590.566	1	-2
590.735	1	-4
590.905	1	8
591.075	1	3
591.245	1	-4
591.415	1	4
591.585	1	8
591.754	1	-4
591.924	1	-3
592.094	1	6
592.264	1	3
592.434	1	5
592.603	1	4
592.773	1	4
592.943	1	8
593.113	1	-3
593.283	1	-1
593.452	1	5
593.622	1	8
593.792	1	-12
593.962	1	1
594.132	1	-4
594.301	1	2
594.471	1	9
594.641	1	7
594.811	1	3
594.981	1	-10
595.150	1	-4
595.320	1	4
595.490	1	3
595.660	1	4
595.829	1	6
595.999	1	13
596.169	1	5
596.339	1	13
596.509	1	3
596.678	1	0
596.848	1	3
597.018	1	7
597.188	1	2
597.358	1	0
597.527	1	-7
597.697	1	-3
597.867	1	1
598.037	1	11
598.206	1	5
598.376	1	-4
598.546	1	3
598.716	1	-2
598.885	1	16
599.055	1	2
599.225	1	11
599.395	1	-9
599.565	1	7
599.734	1	-9
599.904	1	1
600.074	1	3
600.244	1	-9
600.413	1	3
600.583	1	2
600.753	1	0
600.923	1	9
601.092	1	-10
601.262	1	10
601.432	1	-4
601.602	1	-7
601.771	1	8
601.941	1	-3
602.111	1	1
602.281	1	8
602.451	1	2
602.620	1	5
602.790	1	0
602.960	1	0
603.130	1	1
603.299	1	6
603.469	1	1
603.639	1	-7
603.809	1	9
603.978	1	7
604.148	1	6
604.318	1	-8
604.487	1	9
604.657	1	-11
604.827	1	4
604.997	1	14
605.166	1	12
605.336	1	-1
605.506	1	-2
605.676	1	-1
605.845	1	0
606.015	1	-9
606.185	1	0
606.355	1	15
606.524	1	6
606.694	1	1
606.864	1	15
607.034	1	10
607.203	1	-12
607.373	1	8
607.543	1	-3
607.712	1	4
607.882	1	7
608.052	1	8
608.222	1	-7
608.391	1	11
608.561	1	-6
608.731	1	0
608.901	1	6
609.070	1	8
609.240	1	-5
609.410	1	5
609.579	1	6
609.749	1	-1
609.919	1	13
610.089	1	5
610.258	1	0
610.428	1	2
610.598	1	2
610.767	1	-3
610.937	1	4
611.107	1	3
611.277	1	13
611.446	1	8
611.616	1	-10
611.786	1	-2
611.955	1	1
612.125	1	0
612.295	1	4
612.465	1	2
612.634	1	1
612.804	1	6
612.974	1	10
613.143	1	8
613.313	1	5
613.483	1	-2
613.652	1	-6
613.822	1	1
613.992	1	0
614.162	1	5
614.331	1	8
614.501	1	11
614.671	1	2
614.840	1	4
615.010	1	-2
615.180	1	-3
615.349	1	1
615.519	1	-1
615.689	1	8
615.858	1	-5
616.028	1	9
616.198	1	0
616.368	1	4
616.537	1	9
616.707	1	17
616.877	1	3
617.046	1	13
617.216	1	11
617.386	1	6
617.555	1	0
617.725	1	5
617.895	1	5
618.064	1	10
618.234	1	3
618.404	1	-3
618.573	1	6
618.743	1	7
618.913	1	0
619.082	1	0
619.252	1	-10
619.422	1	3
619.591	1	2
619.761	1	15
619.931	1	-7
620.100	1	-10
620.270	1	3
620.440	1	2
620.609	1	-7
620.779	1	3
620.949	1	-8
621.118	1	10
621.288	1	5
621.458	1	11
621.627	1	7
621.797	1	2
621.967	1	-5
622.136	1	5
622.306	1	-1
622.476	1	5
622.645	1	16
622.815	1	1
622.985	1	6
623.154	1	0
623.324	1	-7
623.494	1	10
623.663	1	-1
623.833	1	-1
624.002	1	7
624.172	1	-9
624.342	1	3
624.511	1	4
624.681	1	2
624.851	1	-1
625.020	1	7
625.190	1	3
625.360	1	10
625.529	1	6
625.699	1	-5
625.869	1	-5
626.038	1	5
626.208	1	1
626.377	1	5
626.547	1	0
626.717	1	7
626.886	1	-5
627.056	1	7
627.226	1	-1
627.395	1	-2
627.565	1	0
627.735	1	11
627.904	1	9
628.074	1	7
628.243	1	4
628.413	1	7
628.583	1	-9
628.752	1	7
628.922	1	-9
629.091	1	-6
629.261	1	-10
629.431	1	7
629.600	1	11
629.770	1	-4
629.940	1	7
630.109	1	3
630.279	1	14
630.448	1	5
630.618	1	-13
630.788	1	-6
630.957	1	0
631.127	1	-3
631.297	1	-2
631.466	1	14
631.636	1	12
631.805	1	2
631.975	1	1
632.145	1	-3
632.314	1	0
632.484	1	-8
632.653	1	2
632.823	1	3
632.993	1	10
633.162	1	3
633.332	1	-1
633.501	1	13
633.671	1	-6
633.841	1	7
634.010	1	-5
634.180	1	9
634.349	1	2
634.519	1	12
634.689	1	6
634.858	1	3
635.028	1	9
635.197	1	7
635.367	1	6
635.537	1	4
635.706	1	2
635.876	1	-1
636.045	1	16
636.215	1	6
636.384	1	-10
636.554	1	7
636.724	1	9
636.893	1	2
637.063	1	6
637.232	1	-4
637.402	1	2
637.572	1	-3
637.741	1	15
637.911	1	-2
638.080	1	10
638.250	1	5
638.419	1	2
638.589	1	8
638.759	1	3
638.928	1	-1
639.098	1	-1
639.267	1	6
639.437	1	8
639.606	1	3
639.776	1	-1
639.946	1	0
640.115	1	9
640.285	1	5
640.454	1	7
640.624	1	-17
640.793	1	-12
640.963	1	-7
641.132	1	8
641.302	1	9
641.472	1	-6
641.641	1	8
641.811	1	9
641.980	1	0
642.150	1	-8
642.319	1	14
642.489	1	-12
642.659	1	-4
642.828	1	-3
642.998	1	8
643.167	1	-1
643.337	1	1
643.506	1	12
643.676	1	3
643.845	1	-7
644.015	1	11
644.184	1	1
644.354	1	-4
644.524	1	-7
644.693	1	-6
644.863	1	6
645.032	1	10
645.202	1	4
645.371	1	6
645.541	1	-2
645.710	1	9
645.880	1	5
646.049	1	-4
646.219	1	5
646.388	1	3
646.558	1	-10
646.728	1	4
646.897	1	3
647.067	1	3
647.236	1	-10
647.406	1	7
647.575	1	-1
647.745	1	-3
647.914	1	0
648.084	1	-5
648.253	1	3
648.423	1	4
648.592	1	-11
648.762	1	3
648.931	1	-5
649.101	1	-6
649.270	1	-1
649.440	1	7
649.610	1	-5
649.779	1	5
649.949	1	-4
650.118	1	2
650.288	1	13
650.457	1	-4
650.627	1	-1
650.796	1	-1
650.966	1	3
651.135	1	3
651.305	1	1
651.474	1	0
651.644	1	-4
651.813	1	5
651.983	1	-3
652.152	1	6
652.322	1	6
652.491	1	-3
652.661	1	-3
652.830	1	4
653.000	1	-1
653.169	1	3
653.339	1	4
653.508	1	6
653.678	1	-1
653.847	1	2
654.017	1	-1
654.186	1	-3
654.356	1	12
654.525	1	3
654.695	1	4
654.864	1	-8
655.034	1	-5
655.203	1	-2
655.373	1	6
655.542	1	-7
655.712	1	-3
655.881	1	7
656.051	1	-2
656.220	1	4
656.390	1	1
656.559	1	5
656.729	1	-2
656.898	1	1
657.068	1	-2
657.237	1	3
657.406	1	11
657.576	1	-13
657.745	1	-1
657.915	1	10
658.084	1	0
658.254	1	-2
658.423	1	0
658.593	1	0
658.762	1	24
658.932	1	16
659.101	1	4
659.271	1	-2
659.440	1	-3
659.610	1	-3
659.779	1	-1
659.949	1	-2
660.118	1	0
660.288	1	0
660.457	1	0
660.626	1	3
660.796	1	6
660.965	1	-3
661.135	1	5
661.304	1	8
661.474	1	5
661.643	1	5
661.813	1	2
661.982	1	-7
662.152	1	-8
662.321	1	-6
662.491	1	13
662.660	1	10
662.829	1	16
662.999	1	0
663.168	1	3
663.338	1	2
663.507	1	7
663.677	1	-2
663.846	1	-3
664.016	1	1
664.185	1	1
664.354	1	9
664.524	1	5
664.693	1	10
664.863	1	9
665.032	1	0
665.202	1	0
665.371	1	0
665.541	1	-9
665.710	1	7
665.879	1	-3
666.049	1	-1
666.218	1	5
666.388	1	2
666.557	1	5
666.727	1	-13
666.896	1	1
667.065	1	3
667.235	1	8
667.404	1	2
667.574	1	20
667.743	1	-3
667.913	1	6
668.082	1	3
668.251	1	12
668.421	1	-2
668.590	1	-1
668.760	1	5
668.929	1	3
669.099	1	-8
669.268	1	-5
669.437	1	-5
669.607	1	-2
669.776	1	5
669.946	1	6
670.115	1	11
670.285	1	5
670.454	1	-2
670.623	1	12
670.793	1	-2
670.962	1	1
671.132	1	-4
671.301	1	9
671.470	1	9
671.640	1	-2
671.809	1	5
671.979	1	6
672.148	1	3
672.317	1	-5
672.487	1	-3
672.656	1	-2
672.826	1	3
672.995	1	-4
673.164	1	13
673.334	1	-7
673.503	1	-5
673.673	1	1
673.842	1	-5
674.011	1	-2
674.181	1	7
674.350	1	8
674.520	1	5
674.689	1	4
674.858	1	2
675.028	1	8
675.197	1	0
675.367	1	-4
675.536	1	5
675.705	1	10
675.875	1	3
676.044	1	-2
676.214	1	6
676.383	1	5
676.552	1	6
676.722	1	-2
676.891	1	-5
677.060	1	8
677.230	1	6
677.399	1	-2
677.569	1	6
677.738	1	3
677.907	1	4
678.077	1	2
678.246	1	7
678.416	1	11
678.585	1	1
678.754	1	-3
678.924	1	8
679.093	1	1
679.262	1	-2
679.432	1	6
679.601	1	3
679.771	1	7
679.940	1	0
680.109	1	4
680.279	1	5
680.448	1	-2
680.617	1	-7
680.787	1	3
680.956	1	-13
681.125	1	19
681.295	1	4
681.464	1	-3
681.634	1	12
681.803	1	-6
681.972	1	2
682.142	1	-3
682.311	1	-12
682.480	1	8
682.650	1	-6
682.819	1	-3
682.988	1	3
683.158	1	0
683.327	1	5
683.496	1	-2
683.666	1	0
683.835	1	-3
684.004	1	7
684.174	1	10
684.343	1	4
684.512	1	7
684.682	1	1
684.851	1	1
685.021	1	2
685.190	1	-3
685.359	1	-3
685.529	1	-3
685.698	1	5
685.867	1	9
686.037	1	10
686.206	1	4
686.375	1	-7
686.545	1	-9
686.714	1	-12
686.883	1	-7
687.053	1	0
687.222	1	3
687.391	1	10
687.561	1	10
687.730	1	-5
687.899	1	6
688.069	1	-3
688.238	1	5
688.407	1	1
688.577	1	-7
688.746	1	0
