340.368	1	8
340.539	1	3
340.710	1	11
340.881	1	5
341.052	1	3
341.223	1	6
341.394	1	-8
341.565	1	3
341.737	1	5
341.908	1	5
342.079	1	-1
342.250	1	11
342.421	1	5
342.592	1	6
342.763	1	-3
342.934	1	2
343.105	1	3
343.276	1	9
343.447	1	9
343.618	1	2
343.789	1	6
343.960	1	-7
344.131	1	6
344.302	1	6
344.473	1	-6
344.644	1	5
344.815	1	3
344.986	1	10
345.157	1	-7
345.328	1	9
345.499	1	9
345.670	1	3
345.841	1	-5
346.012	1	-1
346.183	1	-4
346.354	1	-3
346.526	1	-4
346.697	1	5
346.868	1	1
347.039	1	-3
347.210	1	4
347.381	1	11
347.552	1	0
347.723	1	5
347.894	1	2
348.065	1	5
348.236	1	2
348.407	1	-1
348.578	1	1
348.749	1	5
348.920	1	9
349.091	1	2
349.262	1	7
349.433	1	15
349.604	1	10
349.775	1	1
349.946	1	3
350.117	1	6
350.288	1	-4
350.459	1	-7
350.630	1	5
350.801	1	-2
350.972	1	8
351.143	1	9
351.314	1	-2
351.485	1	14
351.656	1	12
351.827	1	6
351.998	1	2
352.169	1	5
352.340	1	11
352.511	1	-3
352.682	1	-1
352.853	1	11
353.024	1	0
353.195	1	1
353.366	1	8
353.537	1	5
353.708	1	2
353.879	1	1
354.050	1	6
354.221	1	6
354.392	1	7
354.563	1	5
354.734	1	-5
354.905	1	6
355.076	1	4
355.247	1	6
355.418	1	12
355.589	1	8
355.760	1	9
355.931	1	6
356.102	1	-2
356.273	1	6
356.444	1	-7
356.615	1	-6
356.785	1	16
356.956	1	10
357.127	1	7
357.298	1	4
357.469	1	2
357.640	1	6
357.811	1	-3
357.982	1	8
358.153	1	2
358.324	1	14
358.495	1	10
358.666	1	2
358.837	1	5
359.008	1	12
359.179	1	7
359.350	1	6
359.521	1	4
359.692	1	8
359.863	1	9
360.034	1	7
360.205	1	3
360.376	1	11
360.547	1	-2
360.718	1	6
360.889	1	3
361.060	1	6
361.231	1	7
361.401	1	4
361.572	1	22
361.743	1	10
361.914	1	12
362.085	1	17
362.256	1	2
362.427	1	22
362.598	1	8
362.769	1	17
362.940	1	-2
363.111	1	17
363.282	1	21
363.453	1	10
363.624	1	15
363.795	1	8
363.966	1	30
364.137	1	13
364.308	1	23
364.478	1	17
364.649	1	17
364.820	1	21
364.991	1	20
365.162	1	16
365.333	1	19
365.504	1	23
365.675	1	28
365.846	1	20
366.017	1	29
366.188	1	23
366.359	1	25
366.530	1	14
366.701	1	20
366.871	1	33
367.042	1	23
367.213	1	32
367.384	1	32
367.555	1	22
367.726	1	30
367.897	1	13
368.068	1	17
368.239	1	35
368.410	1	10
368.581	1	29
368.752	1	30
368.923	1	35
369.093	1	17
369.264	1	23
369.435	1	23
369.606	1	30
369.777	1	23
369.948	1	26
370.119	1	17
370.290	1	15
370.461	1	23
370.632	1	15
370.803	1	7
370.973	1	24
371.144	1	20
371.315	1	30
371.486	1	17
371.657	1	6
371.828	1	19
371.999	1	16
372.170	1	12
372.341	1	13
372.512	1	21
372.682	1	18
372.853	1	12
373.024	1	12
373.195	1	11
373.366	1	12
373.537	1	19
373.708	1	10
373.879	1	24
374.050	1	13
374.220	1	14
374.391	1	22
374.562	1	7
374.733	1	9
374.904	1	13
375.075	1	19
375.246	1	16
375.417	1	8
375.588	1	12
375.758	1	4
375.929	1	7
376.100	1	10
376.271	1	18
376.442	1	9
376.613	1	3
376.784	1	12
376.955	1	3
377.125	1	16
377.296	1	2
377.467	1	10
377.638	1	10
377.809	1	14
377.980	1	7
378.151	1	3
378.321	1	9
378.492	1	13
378.663	1	12
378.834	1	9
379.005	1	24
379.176	1	9
379.347	1	-2
379.518	1	12
379.688	1	7
379.859	1	8
380.030	1	5
380.201	1	16
380.372	1	16
380.543	1	10
380.714	1	11
380.884	1	5
381.055	1	14
381.226	1	5
381.397	1	1
381.568	1	1
381.739	1	12
381.910	1	10
382.080	1	0
382.251	1	4
382.422	1	6
382.593	1	11
382.764	1	10
382.935	1	7
383.105	1	8
383.276	1	2
383.447	1	3
383.618	1	8
383.789	1	10
383.960	1	5
384.130	1	12
384.301	1	11
384.472	1	12
384.643	1	15
384.814	1	10
384.985	1	12
385.156	1	3
385.326	1	9
385.497	1	0
385.668	1	11
385.839	1	9
386.010	1	-2
386.180	1	14
386.351	1	-1
386.522	1	12
386.693	1	8
386.864	1	11
387.035	1	13
387.205	1	4
387.376	1	6
387.547	1	8
387.718	1	3
387.889	1	0
388.060	1	10
388.230	1	2
388.401	1	14
388.572	1	6
388.743	1	14
388.914	1	8
389.084	1	14
389.255	1	6
389.426	1	10
389.597	1	0
389.768	1	-5
389.939	1	10
390.109	1	10
390.280	1	16
390.451	1	13
390.622	1	8
390.793	1	9
390.963	1	13
391.134	1	-2
391.305	1	6
391.476	1	5
391.647	1	7
391.817	1	20
391.988	1	12
392.159	1	4
392.330	1	11
392.501	1	15
392.671	1	5
392.842	1	16
393.013	1	10
393.184	1	15
393.355	1	5
393.525	1	7
393.696	1	7
393.867	1	3
394.038	1	11
394.208	1	3
394.379	1	10
394.550	1	8
394.721	1	6
394.892	1	13
395.062	1	0
395.233	1	11
395.404	1	2
395.575	1	6
395.746	1	13
395.916	1	20
396.087	1	10
396.258	1	7
396.429	1	19
396.599	1	16
396.770	1	17
396.941	1	14
397.112	1	19
397.283	1	10
397.453	1	13
397.624	1	1
397.795	1	5
397.966	1	12
398.136	1	5
398.307	1	11
398.478	1	4
398.649	1	8
398.819	1	-9
398.990	1	6
399.161	1	4
399.332	1	8
399.503	1	14
399.673	1	5
399.844	1	-5
400.015	1	10
400.186	1	1
400.356	1	16
400.527	1	17
400.698	1	10
400.869	1	7
401.039	1	8
401.210	1	3
401.381	1	7
401.552	1	13
401.722	1	2
401.893	1	-1
402.064	1	-6
402.235	1	12
402.405	1	2
402.576	1	5
402.747	1	15
402.918	1	15
403.088	1	9
403.259	1	2
403.430	1	8
403.601	1	8
403.771	1	9
403.942	1	2
404.113	1	3
404.284	1	-2
404.454	1	13
404.625	1	11
404.796	1	1
404.967	1	5
405.137	1	22
405.308	1	7
405.479	1	3
405.649	1	10
405.820	1	14
405.991	1	7
406.162	1	-1
406.332	1	20
406.503	1	14
406.674	1	10
406.845	1	1
407.015	1	8
407.186	1	9
407.357	1	-6
407.527	1	3
407.698	1	11
407.869	1	9
408.040	1	12
408.210	1	10
408.381	1	7
408.552	1	6
408.722	1	7
408.893	1	8
409.064	1	19
409.235	1	1
409.405	1	11
409.576	1	0
409.747	1	5
409.917	1	8
410.088	1	14
410.259	1	9
410.430	1	18
410.600	1	8
410.771	1	-19
410.942	1	-2
411.112	1	0
411.283	1	-7
411.454	1	9
411.625	1	10
411.795	1	0
411.966	1	9
412.137	1	1
412.307	1	6
412.478	1	1
412.649	1	14
412.819	1	15
412.990	1	1
413.161	1	12
413.332	1	4
413.502	1	5
413.673	1	3
413.844	1	7
414.014	1	9
414.185	1	11
414.356	1	8
414.526	1	5
414.697	1	8
414.868	1	2
415.038	1	-1
415.209	1	13
415.380	1	11
415.550	1	-1
415.721	1	3
415.892	1	6
416.063	1	13
416.233	1	14
416.404	1	9
416.575	1	14
416.745	1	6
416.916	1	4
417.087	1	5
417.257	1	11
417.428	1	-2
417.599	1	3
417.769	1	8
417.940	1	7
418.111	1	-2
418.281	1	10
418.452	1	4
418.623	1	14
418.793	1	5
418.964	1	3
419.135	1	14
419.305	1	-2
419.476	1	-3
419.647	1	11
419.817	1	6
419.988	1	10
420.159	1	2
420.329	1	12
420.500	1	1
420.671	1	-1
420.841	1	3
421.012	1	10
421.183	1	6
421.353	1	1
421.524	1	11
421.695	1	4
421.865	1	2
422.036	1	6
422.206	1	7
422.377	1	3
422.548	1	9
422.718	1	7
422.889	1	3
423.060	1	14
423.230	1	2
423.401	1	4
423.572	1	-6
423.742	1	9
423.913	1	11
424.084	1	2
424.254	1	14
424.425	1	9
424.595	1	12
424.766	1	-2
424.937	1	0
425.107	1	17
425.278	1	-5
425.449	1	5
425.619	1	7
425.790	1	11
425.961	1	11
426.131	1	20
426.302	1	5
426.472	1	-3
426.643	1	10
426.814	1	4
426.984	1	11
427.155	1	3
427.326	1	9
427.496	1	11
427.667	1	5
427.837	1	7
428.008	1	15
428.179	1	7
428.349	1	9
428.520	1	4
428.691	1	12
428.861	1	3
429.032	1	1
429.202	1	8
429.373	1	5
429.544	1	14
429.714	1	-4
429.885	1	11
430.055	1	0
430.226	1	1
430.397	1	0
430.567	1	14
430.738	1	-1
430.909	1	10
431.079	1	18
431.250	1	5
431.420	1	5
431.591	1	3
431.762	1	4
431.932	1	4
432.103	1	-12
432.273	1	15
432.444	1	9
432.615	1	15
432.785	1	4
432.956	1	1
433.126	1	19
433.297	1	7
433.468	1	2
433.638	1	3
433.809	1	9
433.979	1	9
434.150	1	1
434.320	1	13
434.491	1	8
434.662	1	7
434.832	1	9
435.003	1	12
435.173	1	5
435.344	1	13
435.515	1	6
435.685	1	2
435.856	1	-4
436.026	1	11
436.197	1	13
436.368	1	6
436.538	1	13
436.709	1	-1
436.879	1	6
437.050	1	2
437.220	1	1
437.391	1	17
437.562	1	9
437.732	1	4
437.903	1	14
438.073	1	11
438.244	1	12
438.414	1	5
438.585	1	10
438.756	1	2
438.926	1	0
439.097	1	13
439.267	1	4
439.438	1	7
439.608	1	9
439.779	1	14
439.949	1	7
440.120	1	-1
440.291	1	7
440.461	1	18
440.632	1	0
440.802	1	-9
440.973	1	8
441.143	1	-4
441.314	1	11
441.485	1	4
441.655	1	22
441.826	1	6
441.996	1	0
442.167	1	0
442.337	1	2
442.508	1	9
442.678	1	-2
442.849	1	12
443.019	1	12
443.190	1	2
443.361	1	1
443.531	1	3
443.702	1	6
443.872	1	2
444.043	1	4
444.213	1	12
444.384	1	-6
444.554	1	4
444.725	1	4
444.895	1	0
445.066	1	0
445.237	1	1
445.407	1	5
445.578	1	5
445.748	1	11
445.919	1	-1
446.089	1	2
446.260	1	6
446.430	1	5
446.601	1	15
446.771	1	3
446.942	1	9
447.112	1	-1
447.283	1	9
447.453	1	5
447.624	1	8
447.794	1	15
447.965	1	-1
448.135	1	13
448.306	1	10
448.477	1	8
448.647	1	16
448.818	1	-4
448.988	1	1
449.159	1	1
449.329	1	2
449.500	1	6
449.670	1	2
449.841	1	-7
450.011	1	-5
450.182	1	19
450.352	1	13
450.523	1	7
450.693	1	1
450.864	1	-11
451.034	1	3
451.205	1	8
451.375	1	-6
451.546	1	11
451.716	1	-9
451.887	1	-4
452.057	1	5
452.228	1	16
452.398	1	-2
452.569	1	11
452.739	1	10
452.910	1	5
453.080	1	-4
453.251	1	10
453.421	1	11
453.592	1	13
453.762	1	8
453.933	1	3
454.103	1	-1
454.274	1	10
454.444	1	-3
454.615	1	2
454.785	1	15
454.956	1	2
455.126	1	-16
455.297	1	10
455.467	1	2
455.638	1	8
455.808	1	12
455.979	1	4
456.149	1	-5
456.320	1	-2
456.490	1	9
456.661	1	-1
456.831	1	8
457.001	1	4
457.172	1	1
457.342	1	6
457.513	1	0
457.683	1	-3
457.854	1	7
458.024	1	12
458.195	1	1
458.365	1	9
458.536	1	11
458.706	1	-2
458.877	1	31
459.047	1	-8
459.218	1	9
459.388	1	1
459.559	1	6
459.729	1	1
459.899	1	5
460.070	1	1
460.240	1	15
460.411	1	18
460.581	1	-1
460.752	1	13
460.922	1	5
461.093	1	13
461.263	1	6
461.434	1	11
461.604	1	-12
461.775	1	3
461.945	1	7
462.115	1	-2
462.286	1	4
462.456	1	7
462.627	1	8
462.797	1	11
462.968	1	2
463.138	1	-1
463.309	1	5
463.479	1	5
463.649	1	2
463.820	1	0
463.990	1	-1
464.161	1	-6
464.331	1	0
464.502	1	1
464.672	1	6
464.843	1	0
465.013	1	4
465.183	1	4
465.354	1	2
465.524	1	-7
465.695	1	11
465.865	1	1
466.036	1	2
466.206	1	6
466.376	1	7
466.547	1	-6
466.717	1	7
466.888	1	7
467.058	1	12
467.229	1	0
467.399	1	-1
467.569	1	5
467.740	1	9
467.910	1	-4
468.081	1	13
468.251	1	6
468.422	1	3
468.592	1	2
468.762	1	0
468.933	1	12
469.103	1	-6
469.274	1	19
469.444	1	-1
469.614	1	12
469.785	1	13
469.955	1	-2
470.126	1	-2
470.296	1	2
470.467	1	9
470.637	1	8
470.807	1	-1
470.978	1	-3
471.148	1	-1
471.319	1	5
471.489	1	-6
471.659	1	4
471.830	1	9
472.000	1	5
472.171	1	12
472.341	1	-8
472.511	1	5
472.682	1	3
472.852	1	7
473.023	1	4
473.193	1	4
473.363	1	15
473.534	1	-3
473.704	1	-5
473.875	1	7
474.045	1	-3
474.215	1	8
474.386	1	4
474.556	1	6
474.727	1	1
474.897	1	3
475.067	1	9
475.238	1	10
475.408	1	9
475.578	1	8
475.749	1	1
475.919	1	-1
476.090	1	5
476.260	1	10
476.430	1	10
476.601	1	0
476.771	1	-5
476.942	1	6
477.112	1	6
477.282	1	12
477.453	1	8
477.623	1	-11
477.793	1	1
477.964	1	8
478.134	1	17
478.305	1	11
478.475	1	-3
478.645	1	0
478.816	1	-3
478.986	1	1
479.156	1	-4
479.327	1	-3
479.497	1	6
479.667	1	8
479.838	1	6
480.008	1	4
480.179	1	-1
480.349	1	-4
480.519	1	-7
480.690	1	3
480.860	1	16
481.030	1	1
481.201	1	13
481.371	1	8
481.541	1	5
481.712	1	8
481.882	1	-2
482.053	1	2
482.223	1	3
482.393	1	9
482.564	1	1
482.734	1	7
482.904	1	3
483.075	1	18
483.245	1	-8
483.415	1	0
483.586	1	-1
483.756	1	3
483.926	1	2
484.097	1	-2
484.267	1	7
484.437	1	7
484.608	1	17
484.778	1	13
484.948	1	2
485.119	1	15
485.289	1	4
485.459	1	-16
485.630	1	-4
485.800	1	4
485.970	1	-3
486.141	1	1
486.311	1	16
486.481	1	4
486.652	1	4
486.822	1	9
486.992	1	7
487.163	1	-1
487.333	1	-2
487.503	1	-5
487.674	1	0
487.844	1	-5
488.014	1	8
488.185	1	8
488.355	1	9
488.525	1	3
488.696	1	3
488.866	1	5
489.036	1	9
489.207	1	-8
489.377	1	3
489.547	1	-3
489.718	1	10
489.888	1	13
490.058	1	10
490.228	1	6
490.399	1	7
490.569	1	-1
490.739	1	5
490.910	1	5
491.080	1	-1
491.250	1	16
491.421	1	9
491.591	1	-1
491.761	1	7
491.932	1	7
492.102	1	17
492.272	1	-6
492.442	1	3
492.613	1	4
492.783	1	2
492.953	1	6
493.124	1	-2
493.294	1	13
493.464	1	3
493.635	1	11
493.805	1	4
493.975	1	16
494.145	1	-1
494.316	1	6
494.486	1	10
494.656	1	-2
494.827	1	5
494.997	1	4
495.167	1	16
495.337	1	0
495.508	1	-3
495.678	1	2
495.848	1	4
496.019	1	3
496.189	1	12
496.359	1	16
496.529	1	19
496.700	1	-1
496.870	1	7
497.040	1	22
497.211	1	2
497.381	1	8
497.551	1	9
497.721	1	11
497.892	1	6
498.062	1	1
498.232	1	6
498.403	1	-4
498.573	1	15
498.743	1	14
498.913	1	18
499.084	1	10
499.254	1	10
499.424	1	-1
499.594	1	7
499.765	1	5
499.935	1	9
500.105	1	4
500.275	1	10
500.446	1	8
500.616	1	2
500.786	1	12
500.956	1	6
501.127	1	5
501.297	1	3
501.467	1	2
501.638	1	5
501.808	1	5
501.978	1	9
502.148	1	12
502.319	1	4
502.489	1	7
502.659	1	10
502.829	1	9
503.000	1	7
503.170	1	-9
503.340	1	3
503.510	1	-4
503.681	1	8
503.851	1	11
504.021	1	0
504.191	1	14
504.362	1	6
504.532	1	15
504.702	1	8
504.872	1	5
505.042	1	7
505.213	1	0
505.383	1	6
505.553	1	8
505.723	1	15
505.894	1	10
506.064	1	12
506.234	1	-2
506.404	1	9
506.575	1	1
506.745	1	10
506.915	1	0
507.085	1	6
507.256	1	12
507.426	1	5
507.596	1	0
507.766	1	9
507.936	1	-2
508.107	1	13
508.277	1	-1
508.447	1	10
508.617	1	5
508.788	1	5
508.958	1	15
509.128	1	7
509.298	1	-1
509.468	1	7
509.639	1	8
509.809	1	7
509.979	1	4
510.149	1	5
510.319	1	15
510.490	1	5
510.660	1	-3
510.830	1	18
511.000	1	11
511.171	1	12
511.341	1	7
511.511	1	-1
511.681	1	10
511.851	1	11
512.022	1	20
512.192	1	-4
512.362	1	6
512.532	1	10
512.702	1	14
512.873	1	4
513.043	1	14
513.213	1	8
513.383	1	9
513.553	1	11
513.724	1	2
513.894	1	5
514.064	1	7
514.234	1	11
514.404	1	15
514.575	1	0
514.745	1	6
514.915	1	0
515.085	1	19
515.255	1	12
515.425	1	0
515.596	1	9
515.766	1	15
515.936	1	15
516.106	1	7
516.276	1	12
516.447	1	6
516.617	1	10
516.787	1	12
516.957	1	1
517.127	1	10
517.297	1	6
517.468	1	18
517.638	1	8
517.808	1	3
517.978	1	14
518.148	1	15
518.319	1	-2
518.489	1	8
518.659	1	9
518.829	1	15
518.999	1	14
519.169	1	10
519.340	1	3
519.510	1	-5
519.680	1	8
519.850	1	21
520.020	1	8
520.190	1	11
520.361	1	15
520.531	1	10
520.701	1	3
520.871	1	-4
521.041	1	16
521.211	1	6
521.382	1	16
521.552	1	1
521.722	1	11
521.892	1	21
522.062	1	6
522.232	1	1
522.402	1	2
522.573	1	11
522.743	1	6
522.913	1	10
523.083	1	10
523.253	1	14
523.423	1	6
523.593	1	16
523.764	1	9
523.934	1	10
524.104	1	3
524.274	1	2
524.444	1	9
524.614	1	5
524.784	1	13
524.955	1	12
525.125	1	6
525.295	1	9
525.465	1	19
525.635	1	10
525.805	1	3
525.975	1	18
526.146	1	12
526.316	1	4
526.486	1	13
526.656	1	17
526.826	1	10
526.996	1	7
527.166	1	10
527.337	1	17
527.507	1	8
527.677	1	2
527.847	1	6
528.017	1	7
528.187	1	12
528.357	1	9
528.527	1	22
528.698	1	3
528.868	1	5
529.038	1	3
529.208	1	1
529.378	1	11
529.548	1	-1
529.718	1	18
529.888	1	3
530.058	1	10
530.229	1	18
530.399	1	7
530.569	1	11
530.739	1	10
530.909	1	19
531.079	1	8
531.249	1	10
531.419	1	6
531.589	1	6
531.760	1	6
531.930	1	13
532.100	1	14
532.270	1	20
532.440	1	19
532.610	1	10
532.780	1	7
532.950	1	10
533.120	1	14
533.290	1	18
533.461	1	9
533.631	1	9
533.801	1	23
533.971	1	10
534.141	1	12
534.311	1	19
534.481	1	5
534.651	1	12
534.821	1	15
534.991	1	6
535.162	1	15
535.332	1	16
535.502	1	12
535.672	1	16
535.842	1	10
536.012	1	19
536.182	1	16
536.352	1	4
536.522	1	-8
536.692	1	18
536.862	1	-3
537.032	1	8
537.203	1	1
537.373	1	6
537.543	1	11
537.713	1	8
537.883	1	2
538.053	1	-10
538.223	1	14
538.393	1	18
538.563	1	13
538.733	1	6
538.903	1	8
539.073	1	6
539.243	1	14
539.413	1	10
539.584	1	9
539.754	1	1
539.924	1	9
540.094	1	4
540.264	1	3
540.434	1	11
540.604	1	17
540.774	1	14
540.944	1	7
541.114	1	1
541.284	1	6
541.454	1	12
541.624	1	22
541.794	1	5
541.964	1	13
542.134	1	10
542.305	1	9
542.475	1	11
542.645	1	-1
542.815	1	7
542.985	1	10
543.155	1	0
543.325	1	15
543.495	1	1
543.665	1	14
543.835	1	11
544.005	1	7
544.175	1	-3
544.345	1	7
544.515	1	11
544.685	1	19
544.855	1	2
545.025	1	2
545.195	1	11
545.365	1	14
545.535	1	22
545.705	1	9
545.875	1	15
546.045	1	9
546.216	1	16
546.386	1	8
546.556	1	-4
546.726	1	6
546.896	1	8
547.066	1	8
547.236	1	5
547.406	1	-5
547.576	1	9
547.746	1	8
547.916	1	4
548.086	1	1
548.256	1	11
548.426	1	12
548.596	1	13
548.766	1	12
548.936	1	17
549.106	1	5
549.276	1	2
549.446	1	4
549.616	1	9
549.786	1	11
549.956	1	7
550.126	1	11
550.296	1	7
550.466	1	12
550.636	1	-3
550.806	1	14
550.976	1	2
551.146	1	12
551.316	1	9
551.486	1	2
551.656	1	5
551.826	1	2
551.996	1	15
552.166	1	17
552.336	1	11
552.506	1	0
552.676	1	16
552.846	1	3
553.016	1	6
553.186	1	8
553.356	1	17
553.526	1	9
553.696	1	0
553.866	1	0
554.036	1	5
554.206	1	6
554.376	1	8
554.546	1	10
554.716	1	4
554.886	1	3
555.056	1	11
555.226	1	12
555.396	1	-5
555.566	1	2
555.736	1	6
555.906	1	4
556.076	1	4
556.246	1	6
556.416	1	19
556.586	1	6
556.756	1	1
556.926	1	-1
557.096	1	11
557.266	1	10
557.436	1	11
557.606	1	2
557.776	1	11
557.946	1	6
558.116	1	5
558.286	1	21
558.456	1	9
558.626	1	-3
558.796	1	15
558.966	1	0
559.136	1	12
559.306	1	1
559.476	1	14
559.646	1	8
559.816	1	8
559.986	1	10
560.155	1	-8
560.325	1	-2
560.495	1	5
560.665	1	8
560.835	1	5
561.005	1	-2
561.175	1	13
561.345	1	12
561.515	1	2
561.685	1	4
561.855	1	6
562.025	1	7
562.195	1	1
562.365	1	8
562.535	1	4
562.705	1	9
562.875	1	3
563.045	1	3
563.215	1	0
563.385	1	9
563.555	1	17
563.725	1	10
563.895	1	6
564.064	1	13
564.234	1	10
564.404	1	11
564.574	1	7
564.744	1	3
564.914	1	8
565.084	1	1
565.254	1	2
565.424	1	0
565.594	1	13
565.764	1	5
565.934	1	-2
566.104	1	-1
566.274	1	8
566.444	1	8
566.614	1	7
566.783	1	8
566.953	1	7
567.123	1	1
567.293	1	7
567.463	1	2
567.633	1	-2
567.803	1	12
567.973	1	13
568.143	1	14
568.313	1	4
568.483	1	2
568.653	1	6
568.823	1	-5
568.993	1	2
569.162	1	10
569.332	1	13
569.502	1	7
569.672	1	2
569.842	1	-5
570.012	1	4
570.182	1	11
570.352	1	-4
570.522	1	-13
570.692	1	12
570.862	1	18
571.031	1	8
571.201	1	4
571.371	1	1
571.541	1	10
571.711	1	16
571.881	1	7
572.051	1	11
572.221	1	10
572.391	1	12
572.561	1	3
572.731	1	17
572.900	1	4
573.070	1	4
573.240	1	6
573.410	1	2
573.580	1	-3
573.750	1	4
573.920	1	17
574.090	1	-5
574.260	1	7
574.430	1	-5
574.599	1	13
574.769	1	-3
574.939	1	10
575.109	1	13
575.279	1	-6
575.449	1	13
575.619	1	9
575.789	1	16
575.959	1	-3
576.128	1	-4
576.298	1	10
576.468	1	6
576.638	1	4
576.808	1	0
576.978	1	-1
577.148	1	4
577.318	1	7
577.487	1	8
577.657	1	14
577.827	1	3
577.997	1	16
578.167	1	10
578.337	1	4
578.507	1	-10
578.677	1	14
578.846	1	14
579.016	1	5
579.186	1	-5
579.356	1	11
579.526	1	7
579.696	1	3
579.866	1	2
580.036	1	4
580.205	1	3
580.375	1	-2
580.545	1	4
580.715	1	11
580.885	1	7
581.055	1	4
581.225	1	-2
581.394	1	1
581.564	1	0
581.734	1	11
581.904	1	2
582.074	1	8
582.244	1	0
582.414	1	2
582.583	1	4
582.753	1	0
582.923	1	-6
583.093	1	5
583.263	1	5
583.433	1	7
583.603	1	5
583.772	1	11
583.942	1	-3
584.112	1	5
584.282	1	0
584.452	1	13
584.622	1	-7
584.791	1	9
584.961	1	-1
585.131	1	6
585.301	1	0
585.471	1	-3
585.641	1	17
585.811	1	0
585.980	1	3
586.150	1	14
586.320	1	0
586.490	1	4
586.660	1	-9
586.830	1	0
586.999	1	3
587.169	1	7
587.339	1	-1
587.509	1	4
587.679	1	9
587.849	1	10
588.018	1	7
588.188	1	9
588.358	1	-1
588.528	1	10
588.698	1	1
588.867	1	3
589.037	1	8
589.207	1	-10
589.377	1	7
589.547	1	-4
589.717	1	2
589.886	1	1
590.056	1	2
590.226	1	17
590.396	1	6
590.566	1	-2
590.735	1	4
590.905	1	12
591.075	1	6
591.245	1	2
591.415	1	7
591.585	1	2
591.754	1	6
591.924	1	0
592.094	1	7
592.264	1	3
592.434	1	3
592.603	1	-2
592.773	1	11
592.943	1	13
593.113	1	-1
593.283	1	-3
593.452	1	7
593.622	1	13
593.792	1	-3
593.962	1	-1
594.132	1	-1
594.301	1	-4
594.471	1	4
594.641	1	10
594.811	1	9
594.981	1	-6
595.150	1	-4
595.320	1	9
595.490	1	2
595.660	1	5
595.829	1	9
595.999	1	6
596.169	1	3
596.339	1	13
596.509	1	2
596.678	1	-1
596.848	1	-7
597.018	1	5
597.188	1	1
597.358	1	-3
597.527	1	2
597.697	1	7
597.867	1	4
598.037	1	0
598.206	1	4
598.376	1	-7
598.546	1	1
598.716	1	2
598.885	1	3
599.055	1	-4
599.225	1	6
599.395	1	2
599.565	1	10
599.734	1	4
599.904	1	-4
600.074	1	1
600.244	1	-2
600.413	1	6
600.583	1	-5
600.753	1	7
600.923	1	2
601.092	1	5
601.262	1	4
601.432	1	3
601.602	1	3
601.771	1	6
601.941	1	-7
602.111	1	4
602.281	1	0
602.451	1	8
602.620	1	4
602.790	1	1
602.960	1	2
603.130	1	14
603.299	1	-2
603.469	1	-3
603.639	1	-12
603.809	1	9
603.978	1	6
604.148	1	8
604.318	1	5
604.487	1	18
604.657	1	-3
604.827	1	1
604.997	1	11
605.166	1	9
605.336	1	7
605.506	1	5
605.676	1	3
605.845	1	3
606.015	1	1
606.185	1	-1
606.355	1	7
606.524	1	3
606.694	1	1
606.864	1	7
607.034	1	2
607.203	1	-7
607.373	1	8
607.543	1	11
607.712	1	4
607.882	1	11
608.052	1	3
608.222	1	-2
608.391	1	8
608.561	1	4
608.731	1	5
608.901	1	12
609.070	1	10
609.240	1	1
609.410	1	11
609.579	1	6
609.749	1	5
609.919	1	13
610.089	1	11
610.258	1	9
610.428	1	11
610.598	1	3
610.767	1	-4
610.937	1	11
611.107	1	9
611.277	1	9
611.446	1	4
611.616	1	-2
611.786	1	-3
611.955	1	5
612.125	1	2
612.295	1	7
612.465	1	-6
612.634	1	3
612.804	1	5
612.974	1	12
613.143	1	2
613.313	1	8
613.483	1	-6
613.652	1	3
613.822	1	-8
613.992	1	8
614.162	1	5
614.331	1	3
614.501	1	18
614.671	1	7
614.840	1	-3
615.010	1	-4
615.180	1	3
615.349	1	6
615.519	1	1
615.689	1	4
615.858	1	1
616.028	1	10
616.198	1	5
616.368	1	-1
616.537	1	8
616.707	1	18
616.877	1	0
617.046	1	10
617.216	1	6
617.386	1	8
617.555	1	-2
617.725	1	2
617.895	1	6
618.064	1	5
618.234	1	1
618.404	1	4
618.573	1	8
618.743	1	10
618.913	1	12
619.082	1	4
619.252	1	-2
619.422	1	-1
619.591	1	5
619.761	1	8
619.931	1	-11
620.100	1	-3
620.270	1	6
620.440	1	-2
620.609	1	2
620.779	1	-1
620.949	1	6
621.118	1	4
621.288	1	1
621.458	1	0
621.627	1	6
621.797	1	-8
621.967	1	9
622.136	1	4
622.306	1	3
622.476	1	9
622.645	1	12
622.815	1	-2
622.985	1	12
623.154	1	1
623.324	1	-12
623.494	1	3
623.663	1	-2
623.833	1	9
624.002	1	12
624.172	1	2
624.342	1	4
624.511	1	5
624.681	1	10
624.851	1	2
625.020	1	13
625.190	1	-6
625.360	1	5
625.529	1	-3
625.699	1	0
625.869	1	2
626.038	1	11
626.208	1	6
626.377	1	5
626.547	1	6
626.717	1	2
626.886	1	-3
627.056	1	10
627.226	1	-4
627.395	1	-2
627.565	1	9
627.735	1	17
627.904	1	14
628.074	1	7
628.243	1	-2
628.413	1	8
628.583	1	-7
628.752	1	2
628.922	1	-10
629.091	1	-11
629.261	1	-5
629.431	1	14
629.600	1	1
629.770	1	-2
629.940	1	11
630.109	1	7
630.279	1	13
630.448	1	13
630.618	1	-4
630.788	1	0
630.957	1	5
631.127	1	0
631.297	1	1
631.466	1	10
631.636	1	4
631.805	1	6
631.975	1	12
632.145	1	-1
632.314	1	-4
632.484	1	-2
632.653	1	5
632.823	1	4
632.993	1	7
633.162	1	9
633.332	1	-5
633.501	1	14
633.671	1	-6
633.841	1	10
634.010	1	-2
634.180	1	20
634.349	1	4
634.519	1	13
634.689	1	4
634.858	1	8
635.028	1	3
635.197	1	2
635.367	1	0
635.537	1	-10
635.706	1	3
635.876	1	0
636.045	1	2
636.215	1	5
636.384	1	1
636.554	1	11
636.724	1	8
636.893	1	10
637.063	1	7
637.232	1	1
637.402	1	0
637.572	1	5
637.741	1	7
637.911	1	7
638.080	1	17
638.250	1	13
638.419	1	16
638.589	1	3
638.759	1	5
638.928	1	2
639.098	1	-12
639.267	1	6
639.437	1	12
639.606	1	7
639.776	1	-4
639.946	1	7
640.115	1	12
640.285	1	-7
640.454	1	8
640.624	1	-2
640.793	1	-6
640.963	1	1
641.132	1	6
641.302	1	23
641.472	1	3
641.641	1	4
641.811	1	5
641.980	1	6
642.150	1	-6
642.319	1	8
642.489	1	-8
642.659	1	-1
642.828	1	-4
642.998	1	12
643.167	1	4
643.337	1	-3
643.506	1	2
643.676	1	6
643.845	1	0
644.015	1	9
644.184	1	-4
644.354	1	1
644.524	1	9
644.693	1	0
644.863	1	-3
645.032	1	6
645.202	1	4
645.371	1	10
645.541	1	1
645.710	1	8
645.880	1	6
646.049	1	-16
646.219	1	-1
646.388	1	0
646.558	1	1
646.728	1	6
646.897	1	2
647.067	1	13
647.236	1	-6
647.406	1	5
647.575	1	2
647.745	1	4
647.914	1	-12
648.084	1	-4
648.253	1	5
648.423	1	3
648.592	1	0
648.762	1	4
648.931	1	0
649.101	1	-4
649.270	1	-1
649.440	1	7
649.610	1	-6
649.779	1	0
649.949	1	5
650.118	1	4
650.288	1	5
650.457	1	9
650.627	1	3
650.796	1	-6
650.966	1	18
651.135	1	7
651.305	1	0
651.474	1	0
651.644	1	7
651.813	1	10
651.983	1	-6
652.152	1	7
652.322	1	-2
652.491	1	3
652.661	1	-4
652.830	1	12
653.000	1	-3
653.169	1	1
653.339	1	9
653.508	1	5
653.678	1	6
653.847	1	-4
654.017	1	2
654.186	1	-2
654.356	1	9
654.525	1	2
654.695	1	7
654.864	1	5
655.034	1	2
655.203	1	0
655.373	1	1
655.542	1	-6
655.712	1	2
655.881	1	0
656.051	1	3
656.220	1	-6
656.390	1	4
656.559	1	4
656.729	1	-1
656.898	1	-2
657.068	1	0
657.237	1	1
657.406	1	1
657.576	1	-3
657.745	1	5
657.915	1	13
658.084	1	0
658.254	1	1
658.423	1	-1
658.593	1	-2
658.762	1	15
658.932	1	16
659.101	1	3
659.271	1	5
659.440	1	0
659.610	1	2
659.779	1	3
659.949	1	1
660.118	1	-5
660.288	1	-11
660.457	1	-6
660.626	1	11
660.796	1	3
660.965	1	8
661.135	1	14
661.304	1	7
661.474	1	8
661.643	1	5
661.813	1	-2
661.982	1	-11
662.152	1	-3
662.321	1	-3
662.491	1	10
662.660	1	2
662.829	1	16
662.999	1	3
663.168	1	1
663.338	1	3
663.507	1	1
663.677	1	-3
663.846	1	4
664.016	1	9
664.185	1	-4
664.354	1	5
664.524	1	-5
664.693	1	8
664.863	1	4
665.032	1	7
665.202	1	-2
665.371	1	-1
665.541	1	-8
665.710	1	4
665.879	1	7
666.049	1	1
666.218	1	0
666.388	1	10
666.557	1	7
666.727	1	3
666.896	1	3
667.065	1	11
667.235	1	7
667.404	1	-3
667.574	1	13
667.743	1	-3
667.913	1	9
668.082	1	2
668.251	1	3
668.421	1	9
668.590	1	1
668.760	1	-1
668.929	1	4
669.099	1	-12
669.268	1	0
669.437	1	1
669.607	1	3
669.776	1	0
669.946	1	13
670.115	1	6
670.285	1	1
670.454	1	-5
670.623	1	15
670.793	1	-8
670.962	1	3
671.132	1	1
671.301	1	1
671.470	1	16
671.640	1	-4
671.809	1	-6
671.979	1	3
672.148	1	6
672.317	1	-6
672.487	1	-9
672.656	1	-4
672.826	1	2
672.995	1	-3
673.164	1	9
673.334	1	0
673.503	1	-4
673.673	1	8
673.842	1	5
674.011	1	-4
674.181	1	12
674.350	1	8
674.520	1	1
674.689	1	6
674.858	1	1
675.028	1	3
675.197	1	4
675.367	1	-2
675.536	1	13
675.705	1	11
675.875	1	-1
676.044	1	2
676.214	1	7
676.383	1	1
676.552	1	5
676.722	1	-1
676.891	1	3
677.060	1	5
677.230	1	13
677.399	1	0
677.569	1	-2
677.738	1	-7
677.907	1	7
678.077	1	4
678.246	1	6
678.416	1	2
678.585	1	1
678.754	1	7
678.924	1	12
679.093	1	-1
679.262	1	2
679.432	1	0
679.601	1	4
679.771	1	5
679.940	1	3
680.109	1	0
680.279	1	1
680.448	1	11
680.617	1	-5
680.787	1	4
680.956	1	-2
681.125	1	11
681.295	1	2
681.464	1	-1
681.634	1	13
681.803	1	2
681.972	1	-5
682.142	1	-1
682.311	1	-8
682.480	1	9
682.650	1	-3
682.819	1	2
682.988	1	-6
683.158	1	6
683.327	1	3
683.496	1	-3
683.666	1	-3
683.835	1	-3
684.004	1	7
684.174	1	11
684.343	1	2
684.512	1	12
684.682	1	1
684.851	1	-6
685.021	1	6
685.190	1	4
685.359	1	-9
685.529	1	-5
685.698	1	-7
685.867	1	7
686.037	1	2
686.206	1	-2
686.375	1	-4
686.545	1	5
686.714	1	-16
686.883	1	-4
687.053	1	-1
687.222	1	7
687.391	1	12
687.561	1	0
687.730	1	-6
687.899	1	3
688.069	1	1
688.238	1	3
688.407	1	3
688.577	1	-15
688.746	1	13
