340.368	1	9
340.539	1	8
340.710	1	5
340.881	1	7
341.052	1	-2
341.223	1	-4
341.394	1	-7
341.565	1	3
341.737	1	10
341.908	1	6
342.079	1	2
342.250	1	19
342.421	1	10
342.592	1	2
342.763	1	10
342.934	1	0
343.105	1	6
343.276	1	-11
343.447	1	10
343.618	1	4
343.789	1	5
343.960	1	-2
344.131	1	1
344.302	1	17
344.473	1	6
344.644	1	12
344.815	1	-4
344.986	1	11
345.157	1	-9
345.328	1	12
345.499	1	0
345.670	1	9
345.841	1	2
346.012	1	14
346.183	1	14
346.354	1	-3
346.526	1	7
346.697	1	8
346.868	1	-3
347.039	1	3
347.210	1	2
347.381	1	1
347.552	1	1
347.723	1	7
347.894	1	10
348.065	1	9
348.236	1	0
348.407	1	8
348.578	1	3
348.749	1	13
348.920	1	4
349.091	1	11
349.262	1	11
349.433	1	6
349.604	1	9
349.775	1	5
349.946	1	8
350.117	1	6
350.288	1	-5
350.459	1	-3
350.630	1	4
350.801	1	5
350.972	1	7
351.143	1	8
351.314	1	-1
351.485	1	18
351.656	1	8
351.827	1	1
351.998	1	8
352.169	1	10
352.340	1	8
352.511	1	11
352.682	1	7
352.853	1	7
353.024	1	5
353.195	1	12
353.366	1	13
353.537	1	0
353.708	1	9
353.879	1	16
354.050	1	13
354.221	1	9
354.392	1	17
354.563	1	8
354.734	1	4
354.905	1	10
355.076	1	11
355.247	1	11
355.418	1	14
355.589	1	7
355.760	1	14
355.931	1	17
356.102	1	10
356.273	1	10
356.444	1	9
356.615	1	15
356.785	1	15
356.956	1	20
357.127	1	19
357.298	1	9
357.469	1	8
357.640	1	22
357.811	1	14
357.982	1	27
358.153	1	9
358.324	1	16
358.495	1	21
358.666	1	20
358.837	1	16
359.008	1	18
359.179	1	25
359.350	1	14
359.521	1	14
359.692	1	22
359.863	1	27
360.034	1	34
360.205	1	28
360.376	1	32
360.547	1	36
360.718	1	31
360.889	1	25
361.060	1	34
361.231	1	33
361.401	1	35
361.572	1	42
361.743	1	51
361.914	1	41
362.085	1	54
362.256	1	45
362.427	1	55
362.598	1	43
362.769	1	52
362.940	1	37
363.111	1	51
363.282	1	57
363.453	1	63
363.624	1	65
363.795	1	59
363.966	1	80
364.137	1	74
364.308	1	66
364.478	1	70
364.649	1	82
364.820	1	88
364.991	1	68
365.162	1	93
365.333	1	82
365.504	1	103
365.675	1	97
365.846	1	92
366.017	1	103
366.188	1	97
366.359	1	118
366.530	1	111
366.701	1	113
366.871	1	120
367.042	1	131
367.213	1	112
367.384	1	131
367.555	1	132
367.726	1	124
367.897	1	122
368.068	1	116
368.239	1	125
368.410	1	109
368.581	1	138
368.752	1	126
368.923	1	117
369.093	1	108
369.264	1	114
369.435	1	105
369.606	1	126
369.777	1	105
369.948	1	117
370.119	1	116
370.290	1	108
370.461	1	99
370.632	1	98
370.803	1	87
370.973	1	91
371.144	1	97
371.315	1	96
371.486	1	88
371.657	1	81
371.828	1	73
371.999	1	73
372.170	1	75
372.341	1	77
372.512	1	81
372.682	1	76
372.853	1	65
373.024	1	72
373.195	1	67
373.366	1	69
373.537	1	66
373.708	1	69
373.879	1	76
374.050	1	69
374.220	1	49
374.391	1	63
374.562	1	42
374.733	1	51
374.904	1	60
375.075	1	58
375.246	1	59
375.417	1	47
375.588	1	61
375.758	1	38
375.929	1	47
376.100	1	55
376.271	1	51
376.442	1	43
376.613	1	37
376.784	1	44
376.955	1	47
377.125	1	46
377.296	1	35
377.467	1	53
377.638	1	24
377.809	1	37
377.980	1	34
378.151	1	38
378.321	1	41
378.492	1	44
378.663	1	35
378.834	1	24
379.005	1	48
379.176	1	41
379.347	1	31
379.518	1	53
379.688	1	26
379.859	1	29
380.030	1	26
380.201	1	43
380.372	1	29
380.543	1	35
380.714	1	47
380.884	1	31
381.055	1	31
381.226	1	27
381.397	1	40
381.568	1	29
381.739	1	30
381.910	1	32
382.080	1	21
382.251	1	37
382.422	1	43
382.593	1	35
382.764	1	27
382.935	1	40
383.105	1	33
383.276	1	32
383.447	1	28
383.618	1	33
383.789	1	31
383.960	1	29
384.130	1	37
384.301	1	24
384.472	1	35
384.643	1	32
384.814	1	32
384.985	1	43
385.156	1	28
385.326	1	23
385.497	1	20
385.668	1	35
385.839	1	26
386.010	1	22
386.180	1	31
386.351	1	19
386.522	1	19
386.693	1	35
386.864	1	30
387.035	1	35
387.205	1	29
387.376	1	19
387.547	1	31
387.718	1	21
387.889	1	22
388.060	1	24
388.230	1	14
388.401	1	25
388.572	1	17
388.743	1	22
388.914	1	22
389.084	1	29
389.255	1	24
389.426	1	19
389.597	1	12
389.768	1	3
389.939	1	26
390.109	1	21
390.280	1	24
390.451	1	26
390.622	1	21
390.793	1	18
390.963	1	18
391.134	1	17
391.305	1	23
391.476	1	24
391.647	1	21
391.817	1	24
391.988	1	18
392.159	1	20
392.330	1	13
392.501	1	20
392.671	1	22
392.842	1	28
393.013	1	20
393.184	1	29
393.355	1	14
393.525	1	21
393.696	1	16
393.867	1	20
394.038	1	20
394.208	1	16
394.379	1	24
394.550	1	23
394.721	1	15
394.892	1	18
395.062	1	12
395.233	1	14
395.404	1	7
395.575	1	13
395.746	1	25
395.916	1	27
396.087	1	25
396.258	1	22
396.429	1	15
396.599	1	15
396.770	1	23
396.941	1	24
397.112	1	10
397.283	1	9
397.453	1	20
397.624	1	25
397.795	1	3
397.966	1	17
398.136	1	25
398.307	1	10
398.478	1	13
398.649	1	9
398.819	1	1
398.990	1	24
399.161	1	21
399.332	1	23
399.503	1	19
399.673	1	22
399.844	1	9
400.015	1	21
400.186	1	14
400.356	1	19
400.527	1	20
400.698	1	14
400.869	1	13
401.039	1	15
401.210	1	3
401.381	1	17
401.552	1	19
401.722	1	10
401.893	1	9
402.064	1	1
402.235	1	13
402.405	1	14
402.576	1	14
402.747	1	14
402.918	1	26
403.088	1	12
403.259	1	3
403.430	1	15
403.601	1	14
403.771	1	15
403.942	1	12
404.113	1	11
404.284	1	16
404.454	1	15
404.625	1	25
404.796	1	13
404.967	1	14
405.137	1	23
405.308	1	13
405.479	1	11
405.649	1	20
405.820	1	25
405.991	1	13
406.162	1	11
406.332	1	10
406.503	1	18
406.674	1	21
406.845	1	3
407.015	1	19
407.186	1	20
407.357	1	17
407.527	1	17
407.698	1	10
407.869	1	12
408.040	1	11
408.210	1	21
408.381	1	17
408.552	1	2
408.722	1	19
408.893	1	18
409.064	1	12
409.235	1	7
409.405	1	18
409.576	1	18
409.747	1	2
409.917	1	14
410.088	1	20
410.259	1	12
410.430	1	20
410.600	1	4
410.771	1	-2
410.942	1	9
411.112	1	11
411.283	1	12
411.454	1	3
411.625	1	15
411.795	1	8
411.966	1	20
412.137	1	7
412.307	1	10
412.478	1	9
412.649	1	20
412.819	1	15
412.990	1	13
413.161	1	8
413.332	1	2
413.502	1	21
413.673	1	16
413.844	1	8
414.014	1	15
414.185	1	15
414.356	1	11
414.526	1	13
414.697	1	9
414.868	1	-1
415.038	1	10
415.209	1	3
415.380	1	18
415.550	1	8
415.721	1	10
415.892	1	16
416.063	1	2
416.233	1	16
416.404	1	10
416.575	1	13
416.745	1	10
416.916	1	9
417.087	1	14
417.257	1	15
417.428	1	13
417.599	1	11
417.769	1	22
417.940	1	15
418.111	1	12
418.281	1	7
418.452	1	11
418.623	1	18
418.793	1	5
418.964	1	10
419.135	1	17
419.305	1	11
419.476	1	5
419.647	1	19
419.817	1	5
419.988	1	21
420.159	1	8
420.329	1	13
420.500	1	12
420.671	1	6
420.841	1	4
421.012	1	8
421.183	1	15
421.353	1	1
421.524	1	13
421.695	1	2
421.865	1	16
422.036	1	11
422.206	1	13
422.377	1	10
422.548	1	25
422.718	1	12
422.889	1	7
423.060	1	14
423.230	1	9
423.401	1	12
423.572	1	-3
423.742	1	13
423.913	1	12
424.084	1	10
424.254	1	19
424.425	1	16
424.595	1	13
424.766	1	6
424.937	1	12
425.107	1	12
425.278	1	8
425.449	1	15
425.619	1	14
425.790	1	10
425.961	1	13
426.131	1	12
426.302	1	14
426.472	1	14
426.643	1	4
426.814	1	12
426.984	1	10
427.155	1	6
427.326	1	9
427.496	1	15
427.667	1	8
427.837	1	7
428.008	1	6
428.179	1	5
428.349	1	9
428.520	1	11
428.691	1	9
428.861	1	10
429.032	1	14
429.202	1	7
429.373	1	13
429.544	1	16
429.714	1	1
429.885	1	12
430.055	1	3
430.226	1	1
430.397	1	-6
430.567	1	5
430.738	1	-7
430.909	1	3
431.079	1	22
431.250	1	16
431.420	1	11
431.591	1	11
431.762	1	11
431.932	1	2
432.103	1	-4
432.273	1	13
432.444	1	16
432.615	1	14
432.785	1	7
432.956	1	1
433.126	1	8
433.297	1	21
433.468	1	3
433.638	1	11
433.809	1	16
433.979	1	8
434.150	1	5
434.320	1	17
434.491	1	-3
434.662	1	2
434.832	1	15
435.003	1	17
435.173	1	14
435.344	1	6
435.515	1	7
435.685	1	3
435.856	1	-4
436.026	1	12
436.197	1	9
436.368	1	0
436.538	1	4
436.709	1	7
436.879	1	16
437.050	1	10
437.220	1	-1
437.391	1	21
437.562	1	18
437.732	1	6
437.903	1	21
438.073	1	17
438.244	1	11
438.414	1	-3
438.585	1	9
438.756	1	17
438.926	1	4
439.097	1	11
439.267	1	5
439.438	1	13
439.608	1	10
439.779	1	24
439.949	1	25
440.120	1	13
440.291	1	2
440.461	1	15
440.632	1	4
440.802	1	4
440.973	1	4
441.143	1	1
441.314	1	9
441.485	1	13
441.655	1	23
441.826	1	8
441.996	1	18
442.167	1	12
442.337	1	3
442.508	1	2
442.678	1	-2
442.849	1	9
443.019	1	11
443.190	1	10
443.361	1	2
443.531	1	10
443.702	1	7
443.872	1	13
444.043	1	2
444.213	1	1
444.384	1	6
444.554	1	5
444.725	1	10
444.895	1	5
445.066	1	7
445.237	1	-1
445.407	1	-2
445.578	1	1
445.748	1	16
445.919	1	-3
446.089	1	5
446.260	1	3
446.430	1	4
446.601	1	13
446.771	1	21
446.942	1	2
447.112	1	6
447.283	1	12
447.453	1	3
447.624	1	6
447.794	1	11
447.965	1	12
448.135	1	17
448.306	1	8
448.477	1	9
448.647	1	20
448.818	1	2
448.988	1	21
449.159	1	3
449.329	1	3
449.500	1	-1
449.670	1	3
449.841	1	-5
450.011	1	6
450.182	1	22
450.352	1	11
450.523	1	14
450.693	1	15
450.864	1	9
451.034	1	-5
451.205	1	5
451.375	1	6
451.546	1	11
451.716	1	4
451.887	1	1
452.057	1	14
452.228	1	15
452.398	1	-1
452.569	1	10
452.739	1	13
452.910	1	4
453.080	1	9
453.251	1	23
453.421	1	6
453.592	1	15
453.762	1	14
453.933	1	4
454.103	1	5
454.274	1	4
454.444	1	6
454.615	1	7
454.785	1	12
454.956	1	1
455.126	1	-15
455.297	1	8
455.467	1	10
455.638	1	14
455.808	1	16
455.979	1	14
456.149	1	2
456.320	1	12
456.490	1	6
456.661	1	4
456.831	1	11
457.001	1	9
457.172	1	3
457.342	1	6
457.513	1	0
457.683	1	1
457.854	1	2
458.024	1	10
458.195	1	2
458.365	1	21
458.536	1	6
458.706	1	7
458.877	1	26
459.047	1	0
459.218	1	1
459.388	1	6
459.559	1	5
459.729	1	3
459.899	1	-4
460.070	1	11
460.240	1	12
460.411	1	18
460.581	1	1
460.752	1	13
460.922	1	0
461.093	1	14
461.263	1	0
461.434	1	17
461.604	1	-7
461.775	1	2
461.945	1	10
462.115	1	6
462.286	1	9
462.456	1	10
462.627	1	4
462.797	1	15
462.968	1	7
463.138	1	2
463.309	1	15
463.479	1	16
463.649	1	9
463.820	1	4
463.990	1	4
464.161	1	0
464.331	1	8
464.502	1	10
464.672	1	13
464.843	1	7
465.013	1	2
465.183	1	13
465.354	1	13
465.524	1	-3
465.695	1	8
465.865	1	-2
466.036	1	6
466.206	1	12
466.376	1	3
466.547	1	2
466.717	1	6
466.888	1	5
467.058	1	5
467.229	1	4
467.399	1	4
467.569	1	-1
467.740	1	16
467.910	1	8
468.081	1	20
468.251	1	5
468.422	1	10
468.592	1	3
468.762	1	4
468.933	1	3
469.103	1	10
469.274	1	13
469.444	1	0
469.614	1	8
469.785	1	8
469.955	1	6
470.126	1	-1
470.296	1	-5
470.467	1	-2
470.637	1	6
470.807	1	7
470.978	1	5
471.148	1	0
471.319	1	16
471.489	1	-1
471.659	1	4
471.830	1	7
472.000	1	12
472.171	1	6
472.341	1	-1
472.511	1	2
472.682	1	20
472.852	1	7
473.023	1	5
473.193	1	2
473.363	1	14
473.534	1	8
473.704	1	7
473.875	1	16
474.045	1	7
474.215	1	1
474.386	1	9
474.556	1	13
474.727	1	7
474.897	1	3
475.067	1	0
475.238	1	20
475.408	1	7
475.578	1	5
475.749	1	8
475.919	1	-5
476.090	1	8
476.260	1	8
476.430	1	11
476.601	1	-1
476.771	1	-9
476.942	1	11
477.112	1	18
477.282	1	21
477.453	1	10
477.623	1	1
477.793	1	12
477.964	1	7
478.134	1	20
478.305	1	8
478.475	1	3
478.645	1	4
478.816	1	9
478.986	1	7
479.156	1	4
479.327	1	13
479.497	1	12
479.667	1	15
479.838	1	6
480.008	1	0
480.179	1	0
480.349	1	2
480.519	1	9
480.690	1	10
480.860	1	21
481.030	1	9
481.201	1	18
481.371	1	12
481.541	1	11
481.712	1	20
481.882	1	7
482.053	1	8
482.223	1	6
482.393	1	20
482.564	1	1
482.734	1	16
482.904	1	11
483.075	1	21
483.245	1	1
483.415	1	9
483.586	1	4
483.756	1	11
483.926	1	4
484.097	1	11
484.267	1	19
484.437	1	6
484.608	1	16
484.778	1	11
484.948	1	10
485.119	1	15
485.289	1	8
485.459	1	-8
485.630	1	1
485.800	1	16
485.970	1	-2
486.141	1	14
486.311	1	12
486.481	1	12
486.652	1	15
486.822	1	15
486.992	1	5
487.163	1	4
487.333	1	4
487.503	1	10
487.674	1	7
487.844	1	5
488.014	1	17
488.185	1	16
488.355	1	23
488.525	1	25
488.696	1	13
488.866	1	14
489.036	1	15
489.207	1	12
489.377	1	15
489.547	1	8
489.718	1	11
489.888	1	19
490.058	1	19
490.228	1	21
490.399	1	18
490.569	1	13
490.739	1	21
490.910	1	4
491.080	1	10
491.250	1	14
491.421	1	28
491.591	1	10
491.761	1	16
491.932	1	18
492.102	1	16
492.272	1	18
492.442	1	23
492.613	1	11
492.783	1	1
492.953	1	18
493.124	1	9
493.294	1	11
493.464	1	17
493.635	1	12
493.805	1	19
493.975	1	22
494.145	1	9
494.316	1	15
494.486	1	24
494.656	1	14
494.827	1	24
494.997	1	13
495.167	1	20
495.337	1	19
495.508	1	12
495.678	1	17
495.848	1	25
496.019	1	20
496.189	1	22
496.359	1	26
496.529	1	26
496.700	1	8
496.870	1	20
497.040	1	26
497.211	1	15
497.381	1	18
497.551	1	29
497.721	1	19
497.892	1	21
498.062	1	12
498.232	1	23
498.403	1	18
498.573	1	26
498.743	1	31
498.913	1	26
499.084	1	25
499.254	1	17
499.424	1	19
499.594	1	12
499.765	1	14
499.935	1	27
500.105	1	28
500.275	1	27
500.446	1	32
500.616	1	31
500.786	1	28
500.956	1	15
501.127	1	29
501.297	1	20
501.467	1	22
501.638	1	31
501.808	1	19
501.978	1	18
502.148	1	33
502.319	1	24
502.489	1	32
502.659	1	26
502.829	1	16
503.000	1	35
503.170	1	10
503.340	1	17
503.510	1	34
503.681	1	25
503.851	1	26
504.021	1	23
504.191	1	22
504.362	1	25
504.532	1	23
504.702	1	20
504.872	1	25
505.042	1	34
505.213	1	29
505.383	1	26
505.553	1	36
505.723	1	38
505.894	1	33
506.064	1	34
506.234	1	28
506.404	1	32
506.575	1	29
506.745	1	32
506.915	1	26
507.085	1	43
507.256	1	44
507.426	1	38
507.596	1	21
507.766	1	23
507.936	1	36
508.107	1	33
508.277	1	34
508.447	1	41
508.617	1	31
508.788	1	36
508.958	1	31
509.128	1	39
509.298	1	30
509.468	1	35
509.639	1	43
509.809	1	31
509.979	1	34
510.149	1	34
510.319	1	53
510.490	1	39
510.660	1	25
510.830	1	46
511.000	1	36
511.171	1	46
511.341	1	32
511.511	1	32
511.681	1	44
511.851	1	40
512.022	1	40
512.192	1	27
512.362	1	39
512.532	1	28
512.702	1	43
512.873	1	37
513.043	1	40
513.213	1	43
513.383	1	39
513.553	1	48
513.724	1	34
513.894	1	25
514.064	1	33
514.234	1	44
514.404	1	48
514.575	1	29
514.745	1	46
514.915	1	24
515.085	1	43
515.255	1	45
515.425	1	39
515.596	1	39
515.766	1	51
515.936	1	47
516.106	1	29
516.276	1	46
516.447	1	44
516.617	1	42
516.787	1	48
516.957	1	35
517.127	1	38
517.297	1	33
517.468	1	42
517.638	1	45
517.808	1	36
517.978	1	40
518.148	1	38
518.319	1	32
518.489	1	50
518.659	1	41
518.829	1	52
518.999	1	49
519.169	1	53
519.340	1	36
519.510	1	38
519.680	1	44
519.850	1	59
520.020	1	47
520.190	1	52
520.361	1	32
520.531	1	55
520.701	1	35
520.871	1	36
521.041	1	54
521.211	1	43
521.382	1	48
521.552	1	43
521.722	1	55
521.892	1	56
522.062	1	36
522.232	1	41
522.402	1	32
522.573	1	43
522.743	1	48
522.913	1	53
523.083	1	42
523.253	1	47
523.423	1	47
523.593	1	51
523.764	1	41
523.934	1	42
524.104	1	36
524.274	1	42
524.444	1	41
524.614	1	60
524.784	1	53
524.955	1	44
525.125	1	44
525.295	1	44
525.465	1	52
525.635	1	47
525.805	1	42
525.975	1	56
526.146	1	47
526.316	1	49
526.486	1	47
526.656	1	36
526.826	1	44
526.996	1	45
527.166	1	56
527.337	1	51
527.507	1	45
527.677	1	39
527.847	1	49
528.017	1	47
528.187	1	53
528.357	1	47
528.527	1	50
528.698	1	48
528.868	1	45
529.038	1	40
529.208	1	44
529.378	1	59
529.548	1	48
529.718	1	48
529.888	1	47
530.058	1	42
530.229	1	48
530.399	1	43
530.569	1	43
530.739	1	54
530.909	1	40
531.079	1	53
531.249	1	55
531.419	1	57
531.589	1	55
531.760	1	42
531.930	1	41
532.100	1	56
532.270	1	50
532.440	1	47
532.610	1	51
532.780	1	43
532.950	1	53
533.120	1	51
533.290	1	52
533.461	1	45
533.631	1	48
533.801	1	58
533.971	1	50
534.141	1	55
534.311	1	47
534.481	1	51
534.651	1	51
534.821	1	48
534.991	1	40
535.162	1	56
535.332	1	53
535.502	1	52
535.672	1	49
535.842	1	47
536.012	1	47
536.182	1	54
536.352	1	50
536.522	1	42
536.692	1	48
536.862	1	54
537.032	1	46
537.203	1	45
537.373	1	42
537.543	1	56
537.713	1	51
537.883	1	36
538.053	1	46
538.223	1	47
538.393	1	58
538.563	1	43
538.733	1	43
538.903	1	53
539.073	1	42
539.243	1	36
539.413	1	48
539.584	1	52
539.754	1	44
539.924	1	48
540.094	1	43
540.264	1	40
540.434	1	48
540.604	1	47
540.774	1	46
540.944	1	42
541.114	1	36
541.284	1	39
541.454	1	44
541.624	1	47
541.794	1	53
541.964	1	46
542.134	1	32
542.305	1	33
542.475	1	48
542.645	1	36
542.815	1	42
542.985	1	36
543.155	1	39
543.325	1	34
543.495	1	37
543.665	1	47
543.835	1	46
544.005	1	46
544.175	1	39
544.345	1	34
544.515	1	40
544.685	1	49
544.855	1	41
545.025	1	37
545.195	1	33
545.365	1	48
545.535	1	51
545.705	1	30
545.875	1	45
546.045	1	34
546.216	1	42
546.386	1	46
546.556	1	33
546.726	1	29
546.896	1	32
547.066	1	41
547.236	1	36
547.406	1	28
547.576	1	42
547.746	1	33
547.916	1	39
548.086	1	28
548.256	1	35
548.426	1	36
548.596	1	46
548.766	1	41
548.936	1	43
549.106	1	38
549.276	1	24
549.446	1	38
549.616	1	39
549.786	1	37
549.956	1	35
550.126	1	57
550.296	1	31
550.466	1	36
550.636	1	34
550.806	1	51
550.976	1	34
551.146	1	36
551.316	1	40
551.486	1	36
551.656	1	36
551.826	1	32
551.996	1	42
552.166	1	47
552.336	1	39
552.506	1	37
552.676	1	47
552.846	1	33
553.016	1	41
553.186	1	51
553.356	1	43
553.526	1	41
553.696	1	37
553.866	1	23
554.036	1	33
554.206	1	33
554.376	1	41
554.546	1	46
554.716	1	33
554.886	1	31
555.056	1	49
555.226	1	39
555.396	1	29
555.566	1	35
555.736	1	40
555.906	1	36
556.076	1	29
556.246	1	35
556.416	1	40
556.586	1	35
556.756	1	38
556.926	1	48
557.096	1	36
557.266	1	35
557.436	1	39
557.606	1	21
557.776	1	38
557.946	1	37
558.116	1	27
558.286	1	44
558.456	1	34
558.626	1	25
558.796	1	53
558.966	1	22
559.136	1	30
559.306	1	30
559.476	1	28
559.646	1	33
559.816	1	38
559.986	1	33
560.155	1	23
560.325	1	20
560.495	1	28
560.665	1	35
560.835	1	29
561.005	1	31
561.175	1	32
561.345	1	43
561.515	1	21
561.685	1	35
561.855	1	16
562.025	1	12
562.195	1	21
562.365	1	22
562.535	1	26
562.705	1	30
562.875	1	18
563.045	1	25
563.215	1	37
563.385	1	27
563.555	1	44
563.725	1	25
563.895	1	24
564.064	1	39
564.234	1	42
564.404	1	19
564.574	1	44
564.744	1	22
564.914	1	31
565.084	1	22
565.254	1	27
565.424	1	19
565.594	1	24
565.764	1	27
565.934	1	28
566.104	1	27
566.274	1	18
566.444	1	39
566.614	1	27
566.783	1	24
566.953	1	24
567.123	1	27
567.293	1	24
567.463	1	11
567.633	1	13
567.803	1	19
567.973	1	17
568.143	1	32
568.313	1	19
568.483	1	22
568.653	1	10
568.823	1	18
568.993	1	16
569.162	1	30
569.332	1	25
569.502	1	24
569.672	1	8
569.842	1	24
570.012	1	13
570.182	1	22
570.352	1	18
570.522	1	0
570.692	1	24
570.862	1	25
571.031	1	14
571.201	1	19
571.371	1	16
571.541	1	18
571.711	1	15
571.881	1	17
572.051	1	21
572.221	1	29
572.391	1	30
572.561	1	21
572.731	1	20
572.900	1	17
573.070	1	23
573.240	1	17
573.410	1	10
573.580	1	12
573.750	1	11
573.920	1	29
574.090	1	18
574.260	1	22
574.430	1	17
574.599	1	29
574.769	1	13
574.939	1	17
575.109	1	27
575.279	1	13
575.449	1	23
575.619	1	28
575.789	1	15
575.959	1	18
576.128	1	11
576.298	1	21
576.468	1	14
576.638	1	12
576.808	1	10
576.978	1	13
577.148	1	16
577.318	1	13
577.487	1	20
577.657	1	26
577.827	1	18
577.997	1	23
578.167	1	20
578.337	1	9
578.507	1	11
578.677	1	25
578.846	1	17
579.016	1	9
579.186	1	23
579.356	1	24
579.526	1	22
579.696	1	6
579.866	1	16
580.036	1	13
580.205	1	4
580.375	1	10
580.545	1	19
580.715	1	23
580.885	1	23
581.055	1	12
581.225	1	8
581.394	1	22
581.564	1	11
581.734	1	15
581.904	1	19
582.074	1	10
582.244	1	-1
582.414	1	10
582.583	1	23
582.753	1	12
582.923	1	14
583.093	1	14
583.263	1	20
583.433	1	25
583.603	1	11
583.772	1	21
583.942	1	10
584.112	1	12
584.282	1	6
584.452	1	20
584.622	1	9
584.791	1	17
584.961	1	11
585.131	1	19
585.301	1	10
585.471	1	1
585.641	1	22
585.811	1	11
585.980	1	8
586.150	1	28
586.320	1	20
586.490	1	11
586.660	1	0
586.830	1	10
586.999	1	-2
587.169	1	20
587.339	1	8
587.509	1	15
587.679	1	9
587.849	1	11
588.018	1	19
588.188	1	21
588.358	1	16
588.528	1	17
588.698	1	17
588.867	1	14
589.037	1	9
589.207	1	11
589.377	1	19
589.547	1	2
589.717	1	4
589.886	1	10
590.056	1	9
590.226	1	28
590.396	1	15
590.566	1	14
590.735	1	13
590.905	1	14
591.075	1	20
591.245	1	3
591.415	1	13
591.585	1	14
591.754	1	6
591.924	1	11
592.094	1	17
592.264	1	2
592.434	1	16
592.603	1	-1
592.773	1	20
592.943	1	7
593.113	1	6
593.283	1	9
593.452	1	24
593.622	1	13
593.792	1	0
593.962	1	12
594.132	1	4
594.301	1	6
594.471	1	10
594.641	1	12
594.811	1	11
594.981	1	-1
595.150	1	5
595.320	1	16
595.490	1	13
595.660	1	11
595.829	1	6
595.999	1	16
596.169	1	-2
596.339	1	13
596.509	1	3
596.678	1	8
596.848	1	9
597.018	1	14
597.188	1	9
597.358	1	3
597.527	1	1
597.697	1	6
597.867	1	11
598.037	1	13
598.206	1	8
598.376	1	10
598.546	1	12
598.716	1	16
598.885	1	15
599.055	1	17
599.225	1	9
599.395	1	1
599.565	1	6
599.734	1	-1
599.904	1	7
600.074	1	8
600.244	1	11
600.413	1	20
600.583	1	4
600.753	1	12
600.923	1	6
601.092	1	4
601.262	1	2
601.432	1	0
601.602	1	15
601.771	1	18
601.941	1	3
602.111	1	9
602.281	1	20
602.451	1	5
602.620	1	2
602.790	1	7
602.960	1	1
603.130	1	7
603.299	1	12
603.469	1	15
603.639	1	2
603.809	1	9
603.978	1	12
604.148	1	3
604.318	1	4
604.487	1	14
604.657	1	0
604.827	1	11
604.997	1	23
605.166	1	10
605.336	1	14
605.506	1	9
605.676	1	11
605.845	1	-3
606.015	1	4
606.185	1	8
606.355	1	18
606.524	1	7
606.694	1	9
606.864	1	18
607.034	1	14
607.203	1	0
607.373	1	9
607.543	1	4
607.712	1	5
607.882	1	17
608.052	1	8
608.222	1	-4
608.391	1	8
608.561	1	2
608.731	1	9
608.901	1	6
609.070	1	11
609.240	1	5
609.410	1	6
609.579	1	15
609.749	1	10
609.919	1	14
610.089	1	14
610.258	1	0
610.428	1	11
610.598	1	6
610.767	1	15
610.937	1	2
611.107	1	11
611.277	1	6
611.446	1	12
611.616	1	3
611.786	1	7
611.955	1	0
612.125	1	10
612.295	1	13
612.465	1	-2
612.634	1	-1
612.804	1	13
612.974	1	21
613.143	1	17
613.313	1	11
613.483	1	3
613.652	1	0
613.822	1	0
613.992	1	4
614.162	1	8
614.331	1	9
614.501	1	18
614.671	1	9
614.840	1	6
615.010	1	3
615.180	1	12
615.349	1	2
615.519	1	1
615.689	1	3
615.858	1	-1
616.028	1	17
616.198	1	15
616.368	1	7
616.537	1	12
616.707	1	19
616.877	1	1
617.046	1	10
617.216	1	7
617.386	1	12
617.555	1	-8
617.725	1	5
617.895	1	2
618.064	1	20
618.234	1	10
618.404	1	5
618.573	1	19
618.743	1	7
618.913	1	6
619.082	1	1
619.252	1	-2
619.422	1	12
619.591	1	-2
619.761	1	14
619.931	1	-5
620.100	1	9
620.270	1	2
620.440	1	13
620.609	1	0
620.779	1	3
620.949	1	0
621.118	1	6
621.288	1	-2
621.458	1	6
621.627	1	13
621.797	1	8
621.967	1	18
622.136	1	12
622.306	1	13
622.476	1	9
622.645	1	18
622.815	1	3
622.985	1	9
623.154	1	3
623.324	1	-6
623.494	1	14
623.663	1	-5
623.833	1	11
624.002	1	15
624.172	1	-1
624.342	1	6
624.511	1	2
624.681	1	7
624.851	1	5
625.020	1	17
625.190	1	5
625.360	1	5
625.529	1	3
625.699	1	3
625.869	1	6
626.038	1	9
626.208	1	-1
626.377	1	15
626.547	1	7
626.717	1	5
626.886	1	6
627.056	1	11
627.226	1	5
627.395	1	-3
627.565	1	2
627.735	1	12
627.904	1	8
628.074	1	19
628.243	1	15
628.413	1	6
628.583	1	-9
628.752	1	-1
628.922	1	3
629.091	1	1
629.261	1	-2
629.431	1	10
629.600	1	6
629.770	1	-1
629.940	1	15
630.109	1	10
630.279	1	7
630.448	1	8
630.618	1	4
630.788	1	-5
630.957	1	-5
631.127	1	2
631.297	1	6
631.466	1	3
631.636	1	16
631.805	1	5
631.975	1	12
632.145	1	3
632.314	1	1
632.484	1	-11
632.653	1	5
632.823	1	6
632.993	1	9
633.162	1	7
633.332	1	-1
633.501	1	20
633.671	1	4
633.841	1	15
634.010	1	2
634.180	1	12
634.349	1	6
634.519	1	10
634.689	1	15
634.858	1	11
635.028	1	4
635.197	1	2
635.367	1	5
635.537	1	0
635.706	1	7
635.876	1	14
636.045	1	13
636.215	1	10
636.384	1	0
636.554	1	7
636.724	1	6
636.893	1	7
637.063	1	14
637.232	1	1
637.402	1	-3
637.572	1	0
637.741	1	9
637.911	1	3
638.080	1	16
638.250	1	11
638.419	1	17
638.589	1	1
638.759	1	11
638.928	1	-6
639.098	1	1
639.267	1	14
639.437	1	6
639.606	1	8
639.776	1	4
639.946	1	11
640.115	1	7
640.285	1	6
640.454	1	5
640.624	1	-15
640.793	1	2
640.963	1	0
641.132	1	7
641.302	1	19
641.472	1	10
641.641	1	-7
641.811	1	3
641.980	1	1
642.150	1	-7
642.319	1	14
642.489	1	-1
642.659	1	1
642.828	1	4
642.998	1	13
643.167	1	5
643.337	1	6
643.506	1	8
643.676	1	13
643.845	1	1
644.015	1	11
644.184	1	-2
644.354	1	-5
644.524	1	4
644.693	1	4
644.863	1	2
645.032	1	4
645.202	1	18
645.371	1	10
645.541	1	5
645.710	1	14
645.880	1	11
646.049	1	-7
646.219	1	9
646.388	1	11
646.558	1	2
646.728	1	12
646.897	1	-3
647.067	1	6
647.236	1	2
647.406	1	4
647.575	1	4
647.745	1	1
647.914	1	-3
648.084	1	3
648.253	1	15
648.423	1	10
648.592	1	6
648.762	1	4
648.931	1	-6
649.101	1	-8
649.270	1	5
649.440	1	4
649.610	1	1
649.779	1	-1
649.949	1	5
650.118	1	-1
650.288	1	13
650.457	1	-2
650.627	1	4
650.796	1	4
650.966	1	6
651.135	1	9
651.305	1	1
651.474	1	0
651.644	1	5
651.813	1	14
651.983	1	-9
652.152	1	6
652.322	1	-14
652.491	1	4
652.661	1	10
652.830	1	9
653.000	1	-1
653.169	1	6
653.339	1	5
653.508	1	16
653.678	1	6
653.847	1	3
654.017	1	-1
654.186	1	4
654.356	1	6
654.525	1	8
654.695	1	5
654.864	1	1
655.034	1	4
655.203	1	0
655.373	1	7
655.542	1	0
655.712	1	1
655.881	1	7
656.051	1	9
656.220	1	-4
656.390	1	2
656.559	1	3
656.729	1	8
656.898	1	1
657.068	1	0
657.237	1	7
657.406	1	8
657.576	1	-6
657.745	1	2
657.915	1	2
658.084	1	4
658.254	1	12
658.423	1	1
658.593	1	5
658.762	1	17
658.932	1	19
659.101	1	6
659.271	1	4
659.440	1	0
659.610	1	0
659.779	1	4
659.949	1	4
660.118	1	-4
660.288	1	6
660.457	1	2
660.626	1	7
660.796	1	6
660.965	1	8
661.135	1	11
661.304	1	5
661.474	1	11
661.643	1	9
661.813	1	8
661.982	1	-4
662.152	1	4
662.321	1	2
662.491	1	8
662.660	1	-1
662.829	1	13
662.999	1	1
663.168	1	7
663.338	1	3
663.507	1	-1
663.677	1	11
663.846	1	13
664.016	1	8
664.185	1	-4
664.354	1	2
664.524	1	2
664.693	1	2
664.863	1	11
665.032	1	8
665.202	1	10
665.371	1	3
665.541	1	3
665.710	1	10
665.879	1	14
666.049	1	0
666.218	1	10
666.388	1	12
666.557	1	4
666.727	1	1
666.896	1	6
667.065	1	11
667.235	1	9
667.404	1	-8
667.574	1	16
667.743	1	-9
667.913	1	-1
668.082	1	5
668.251	1	8
668.421	1	-7
668.590	1	15
668.760	1	4
668.929	1	10
669.099	1	-3
669.268	1	-3
669.437	1	0
669.607	1	-2
669.776	1	9
669.946	1	14
670.115	1	18
670.285	1	5
670.454	1	5
670.623	1	12
670.793	1	-1
670.962	1	-2
671.132	1	2
671.301	1	-1
671.470	1	13
671.640	1	-3
671.809	1	0
671.979	1	5
672.148	1	12
672.317	1	4
672.487	1	-7
672.656	1	12
672.826	1	3
672.995	1	2
673.164	1	6
673.334	1	-5
673.503	1	5
673.673	1	12
673.842	1	-4
674.011	1	8
674.181	1	8
674.350	1	6
674.520	1	10
674.689	1	10
674.858	1	-3
675.028	1	17
675.197	1	-2
675.367	1	4
675.536	1	1
675.705	1	15
675.875	1	0
676.044	1	14
676.214	1	19
676.383	1	5
676.552	1	9
676.722	1	4
676.891	1	5
677.060	1	7
677.230	1	9
677.399	1	0
677.569	1	4
677.738	1	1
677.907	1	6
678.077	1	3
678.246	1	14
678.416	1	12
678.585	1	9
678.754	1	1
678.924	1	12
679.093	1	2
679.262	1	3
679.432	1	1
679.601	1	9
679.771	1	1
679.940	1	0
680.109	1	12
680.279	1	3
680.448	1	8
680.617	1	-6
680.787	1	8
680.956	1	-3
681.125	1	13
681.295	1	0
681.464	1	3
681.634	1	10
681.803	1	-1
681.972	1	3
682.142	1	-1
682.311	1	0
682.480	1	16
682.650	1	1
682.819	1	6
682.988	1	2
683.158	1	5
683.327	1	5
683.496	1	5
683.666	1	14
683.835	1	5
684.004	1	16
684.174	1	15
684.343	1	15
684.512	1	8
684.682	1	-10
684.851	1	5
685.021	1	8
685.190	1	2
685.359	1	4
685.529	1	-2
685.698	1	-5
685.867	1	7
686.037	1	5
686.206	1	18
686.375	1	3
686.545	1	2
686.714	1	-2
686.883	1	15
687.053	1	15
687.222	1	4
687.391	1	11
687.561	1	10
687.730	1	10
687.899	1	9
688.069	1	12
688.238	1	14
688.407	1	13
688.577	1	4
688.746	1	10
