340.368	1	9
340.539	1	8
340.710	1	5
340.881	1	8
341.052	1	-8
341.223	1	-4
341.394	1	-2
341.565	1	-1
341.737	1	2
341.908	1	10
342.079	1	6
342.250	1	17
342.421	1	9
342.592	1	0
342.763	1	1
342.934	1	2
343.105	1	-7
343.276	1	6
343.447	1	5
343.618	1	0
343.789	1	7
343.960	1	-8
344.131	1	8
344.302	1	1
344.473	1	7
344.644	1	4
344.815	1	3
344.986	1	6
345.157	1	-11
345.328	1	13
345.499	1	6
345.670	1	7
345.841	1	9
346.012	1	4
346.183	1	12
346.354	1	1
346.526	1	-2
346.697	1	1
346.868	1	6
347.039	1	-3
347.210	1	-1
347.381	1	-1
347.552	1	1
347.723	1	4
347.894	1	8
348.065	1	5
348.236	1	3
348.407	1	8
348.578	1	5
348.749	1	8
348.920	1	4
349.091	1	2
349.262	1	5
349.433	1	4
349.604	1	2
349.775	1	3
349.946	1	7
350.117	1	12
350.288	1	-5
350.459	1	-7
350.630	1	3
350.801	1	5
350.972	1	8
351.143	1	4
351.314	1	-1
351.485	1	3
351.656	1	12
351.827	1	6
351.998	1	0
352.169	1	-1
352.340	1	8
352.511	1	9
352.682	1	1
352.853	1	9
353.024	1	-3
353.195	1	3
353.366	1	9
353.537	1	12
353.708	1	-5
353.879	1	1
354.050	1	4
354.221	1	5
354.392	1	4
354.563	1	11
354.734	1	4
354.905	1	7
355.076	1	4
355.247	1	-1
355.418	1	13
355.589	1	-3
355.760	1	2
355.931	1	9
356.102	1	6
356.273	1	5
356.444	1	-4
356.615	1	-5
356.785	1	9
356.956	1	12
357.127	1	9
357.298	1	-7
357.469	1	-4
357.640	1	5
357.811	1	7
357.982	1	12
358.153	1	2
358.324	1	-5
358.495	1	7
358.666	1	2
358.837	1	2
359.008	1	17
359.179	1	2
359.350	1	2
359.521	1	2
359.692	1	7
359.863	1	9
360.034	1	3
360.205	1	-3
360.376	1	6
360.547	1	2
360.718	1	15
360.889	1	2
361.060	1	6
361.231	1	-4
361.401	1	-2
361.572	1	7
361.743	1	7
361.914	1	8
362.085	1	9
362.256	1	4
362.427	1	15
362.598	1	4
362.769	1	9
362.940	1	-6
363.111	1	17
363.282	1	18
363.453	1	-1
363.624	1	9
363.795	1	6
363.966	1	25
364.137	1	11
364.308	1	11
364.478	1	10
364.649	1	14
364.820	1	11
364.991	1	10
365.162	1	11
365.333	1	9
365.504	1	13
365.675	1	14
365.846	1	15
366.017	1	28
366.188	1	14
366.359	1	9
366.530	1	13
366.701	1	12
366.871	1	23
367.042	1	18
367.213	1	22
367.384	1	28
367.555	1	22
367.726	1	8
367.897	1	13
368.068	1	15
368.239	1	15
368.410	1	6
368.581	1	16
368.752	1	21
368.923	1	30
369.093	1	14
369.264	1	13
369.435	1	2
369.606	1	22
369.777	1	20
369.948	1	11
370.119	1	22
370.290	1	27
370.461	1	15
370.632	1	6
370.803	1	20
370.973	1	11
371.144	1	18
371.315	1	17
371.486	1	5
371.657	1	2
371.828	1	8
371.999	1	16
372.170	1	7
372.341	1	12
372.512	1	9
372.682	1	7
372.853	1	1
373.024	1	16
373.195	1	11
373.366	1	13
373.537	1	12
373.708	1	8
373.879	1	17
374.050	1	15
374.220	1	8
374.391	1	14
374.562	1	9
374.733	1	0
374.904	1	12
375.075	1	15
375.246	1	2
375.417	1	0
375.588	1	8
375.758	1	2
375.929	1	6
376.100	1	5
376.271	1	13
376.442	1	10
376.613	1	-1
376.784	1	5
376.955	1	9
377.125	1	5
377.296	1	7
377.467	1	15
377.638	1	0
377.809	1	5
377.980	1	-5
378.151	1	11
378.321	1	16
378.492	1	18
378.663	1	12
378.834	1	5
379.005	1	22
379.176	1	1
379.347	1	-2
379.518	1	19
379.688	1	0
379.859	1	7
380.030	1	-3
380.201	1	17
380.372	1	12
380.543	1	13
380.714	1	15
380.884	1	3
381.055	1	12
381.226	1	16
381.397	1	1
381.568	1	4
381.739	1	6
381.910	1	3
382.080	1	-3
382.251	1	8
382.422	1	10
382.593	1	10
382.764	1	5
382.935	1	15
383.105	1	0
383.276	1	4
383.447	1	7
383.618	1	14
383.789	1	4
383.960	1	5
384.130	1	6
384.301	1	7
384.472	1	10
384.643	1	8
384.814	1	4
384.985	1	15
385.156	1	-7
385.326	1	2
385.497	1	1
385.668	1	15
385.839	1	13
386.010	1	6
386.180	1	11
386.351	1	3
386.522	1	12
386.693	1	5
386.864	1	13
387.035	1	14
387.205	1	-1
387.376	1	10
387.547	1	8
387.718	1	-5
387.889	1	7
388.060	1	13
388.230	1	1
388.401	1	9
388.572	1	16
388.743	1	9
388.914	1	6
389.084	1	8
389.255	1	0
389.426	1	16
389.597	1	-2
389.768	1	5
389.939	1	8
390.109	1	11
390.280	1	12
390.451	1	8
390.622	1	8
390.793	1	10
390.963	1	6
391.134	1	0
391.305	1	0
391.476	1	5
391.647	1	7
391.817	1	7
391.988	1	5
392.159	1	7
392.330	1	6
392.501	1	10
392.671	1	-2
392.842	1	3
393.013	1	3
393.184	1	7
393.355	1	0
393.525	1	10
393.696	1	-1
393.867	1	11
394.038	1	3
394.208	1	1
394.379	1	2
394.550	1	9
394.721	1	4
394.892	1	8
395.062	1	2
395.233	1	-1
395.404	1	-6
395.575	1	8
395.746	1	8
395.916	1	16
396.087	1	18
396.258	1	9
396.429	1	10
396.599	1	11
396.770	1	14
396.941	1	4
397.112	1	6
397.283	1	2
397.453	1	15
397.624	1	-1
397.795	1	3
397.966	1	13
398.136	1	9
398.307	1	2
398.478	1	14
398.649	1	3
398.819	1	-5
398.990	1	0
399.161	1	12
399.332	1	8
399.503	1	14
399.673	1	12
399.844	1	1
400.015	1	10
400.186	1	1
400.356	1	4
400.527	1	12
400.698	1	1
400.869	1	4
401.039	1	6
401.210	1	-3
401.381	1	14
401.552	1	8
401.722	1	7
401.893	1	0
402.064	1	5
402.235	1	2
402.405	1	10
402.576	1	2
402.747	1	16
402.918	1	17
403.088	1	5
403.259	1	-2
403.430	1	7
403.601	1	3
403.771	1	8
403.942	1	3
404.113	1	1
404.284	1	-2
404.454	1	7
404.625	1	9
404.796	1	0
404.967	1	5
405.137	1	16
405.308	1	13
405.479	1	0
405.649	1	6
405.820	1	11
405.991	1	2
406.162	1	-1
406.332	1	6
406.503	1	10
406.674	1	11
406.845	1	0
407.015	1	-4
407.186	1	3
407.357	1	8
407.527	1	7
407.698	1	4
407.869	1	15
408.040	1	18
408.210	1	11
408.381	1	16
408.552	1	1
408.722	1	9
408.893	1	10
409.064	1	6
409.235	1	2
409.405	1	8
409.576	1	10
409.747	1	6
409.917	1	-3
410.088	1	19
410.259	1	12
410.430	1	12
410.600	1	5
410.771	1	-8
410.942	1	7
411.112	1	14
411.283	1	2
411.454	1	7
411.625	1	6
411.795	1	11
411.966	1	4
412.137	1	-5
412.307	1	5
412.478	1	5
412.649	1	9
412.819	1	8
412.990	1	0
413.161	1	10
413.332	1	0
413.502	1	6
413.673	1	5
413.844	1	4
414.014	1	9
414.185	1	6
414.356	1	14
414.526	1	5
414.697	1	-10
414.868	1	-3
415.038	1	7
415.209	1	6
415.380	1	11
415.550	1	1
415.721	1	12
415.892	1	8
416.063	1	6
416.233	1	10
416.404	1	20
416.575	1	7
416.745	1	-1
416.916	1	0
417.087	1	12
417.257	1	11
417.428	1	2
417.599	1	5
417.769	1	11
417.940	1	12
418.111	1	2
418.281	1	6
418.452	1	2
418.623	1	14
418.793	1	-4
418.964	1	-2
419.135	1	16
419.305	1	0
419.476	1	0
419.647	1	0
419.817	1	1
419.988	1	6
420.159	1	11
420.329	1	8
420.500	1	2
420.671	1	-4
420.841	1	11
421.012	1	11
421.183	1	9
421.353	1	-8
421.524	1	7
421.695	1	-9
421.865	1	6
422.036	1	9
422.206	1	5
422.377	1	-1
422.548	1	13
422.718	1	3
422.889	1	3
423.060	1	14
423.230	1	1
423.401	1	4
423.572	1	0
423.742	1	6
423.913	1	9
424.084	1	7
424.254	1	13
424.425	1	5
424.595	1	6
424.766	1	11
424.937	1	4
425.107	1	6
425.278	1	9
425.449	1	5
425.619	1	9
425.790	1	8
425.961	1	15
426.131	1	17
426.302	1	12
426.472	1	3
426.643	1	3
426.814	1	2
426.984	1	4
427.155	1	-2
427.326	1	3
427.496	1	9
427.667	1	13
427.837	1	11
428.008	1	4
428.179	1	4
428.349	1	13
428.520	1	4
428.691	1	0
428.861	1	0
429.032	1	-3
429.202	1	4
429.373	1	10
429.544	1	18
429.714	1	-4
429.885	1	5
430.055	1	-7
430.226	1	2
430.397	1	-4
430.567	1	5
430.738	1	2
430.909	1	1
431.079	1	18
431.250	1	9
431.420	1	1
431.591	1	3
431.762	1	7
431.932	1	-1
432.103	1	-1
432.273	1	7
432.444	1	13
432.615	1	12
432.785	1	8
432.956	1	10
433.126	1	13
433.297	1	11
433.468	1	7
433.638	1	1
433.809	1	15
433.979	1	10
434.150	1	8
434.320	1	15
434.491	1	-5
434.662	1	4
434.832	1	3
435.003	1	14
435.173	1	5
435.344	1	7
435.515	1	-1
435.685	1	4
435.856	1	2
436.026	1	5
436.197	1	14
436.368	1	6
436.538	1	8
436.709	1	-2
436.879	1	5
437.050	1	10
437.220	1	-3
437.391	1	5
437.562	1	6
437.732	1	10
437.903	1	15
438.073	1	6
438.244	1	2
438.414	1	-4
438.585	1	7
438.756	1	-1
438.926	1	8
439.097	1	5
439.267	1	10
439.438	1	4
439.608	1	16
439.779	1	7
439.949	1	11
440.120	1	3
440.291	1	14
440.461	1	18
440.632	1	-5
440.802	1	-7
440.973	1	7
441.143	1	-2
441.314	1	8
441.485	1	13
441.655	1	18
441.826	1	7
441.996	1	11
442.167	1	7
442.337	1	-1
442.508	1	11
442.678	1	-2
442.849	1	6
443.019	1	9
443.190	1	6
443.361	1	1
443.531	1	7
443.702	1	7
443.872	1	19
444.043	1	3
444.213	1	1
444.384	1	-5
444.554	1	8
444.725	1	7
444.895	1	-2
445.066	1	8
445.237	1	-2
445.407	1	0
445.578	1	-4
445.748	1	18
445.919	1	1
446.089	1	3
446.260	1	1
446.430	1	8
446.601	1	16
446.771	1	10
446.942	1	3
447.112	1	7
447.283	1	5
447.453	1	3
447.624	1	-1
447.794	1	9
447.965	1	6
448.135	1	3
448.306	1	9
448.477	1	3
448.647	1	15
448.818	1	1
448.988	1	1
449.159	1	2
449.329	1	-3
449.500	1	4
449.670	1	2
449.841	1	-5
450.011	1	-6
450.182	1	2
450.352	1	10
450.523	1	9
450.693	1	-3
450.864	1	-1
451.034	1	-1
451.205	1	8
451.375	1	4
451.546	1	10
451.716	1	-9
451.887	1	-2
452.057	1	16
452.228	1	2
452.398	1	-8
452.569	1	6
452.739	1	7
452.910	1	9
453.080	1	-1
453.251	1	21
453.421	1	6
453.592	1	10
453.762	1	6
453.933	1	7
454.103	1	3
454.274	1	-6
454.444	1	3
454.615	1	3
454.785	1	2
454.956	1	1
455.126	1	-3
455.297	1	17
455.467	1	7
455.638	1	12
455.808	1	8
455.979	1	10
456.149	1	-4
456.320	1	0
456.490	1	5
456.661	1	1
456.831	1	8
457.001	1	6
457.172	1	-4
457.342	1	3
457.513	1	-3
457.683	1	8
457.854	1	0
458.024	1	26
458.195	1	-7
458.365	1	6
458.536	1	1
458.706	1	6
458.877	1	24
459.047	1	-5
459.218	1	6
459.388	1	-1
459.559	1	3
459.729	1	1
459.899	1	5
460.070	1	2
460.240	1	20
460.411	1	10
460.581	1	-9
460.752	1	2
460.922	1	6
461.093	1	7
461.263	1	-2
461.434	1	9
461.604	1	-11
461.775	1	2
461.945	1	8
462.115	1	4
462.286	1	6
462.456	1	5
462.627	1	-4
462.797	1	-1
462.968	1	2
463.138	1	6
463.309	1	6
463.479	1	9
463.649	1	7
463.820	1	-1
463.990	1	-6
464.161	1	-2
464.331	1	8
464.502	1	-1
464.672	1	7
464.843	1	-1
465.013	1	-6
465.183	1	9
465.354	1	4
465.524	1	-2
465.695	1	6
465.865	1	-3
466.036	1	2
466.206	1	3
466.376	1	3
466.547	1	-8
466.717	1	6
466.888	1	10
467.058	1	1
467.229	1	-1
467.399	1	-5
467.569	1	2
467.740	1	22
467.910	1	-4
468.081	1	9
468.251	1	9
468.422	1	6
468.592	1	-4
468.762	1	-1
468.933	1	3
469.103	1	3
469.274	1	8
469.444	1	1
469.614	1	7
469.785	1	1
469.955	1	4
470.126	1	-4
470.296	1	-1
470.467	1	2
470.637	1	12
470.807	1	-2
470.978	1	0
471.148	1	5
471.319	1	6
471.489	1	0
471.659	1	0
471.830	1	2
472.000	1	3
472.171	1	2
472.341	1	4
472.511	1	-3
472.682	1	7
472.852	1	12
473.023	1	6
473.193	1	5
473.363	1	13
473.534	1	4
473.704	1	-16
473.875	1	13
474.045	1	1
474.215	1	5
474.386	1	-2
474.556	1	-3
474.727	1	6
474.897	1	2
475.067	1	8
475.238	1	14
475.408	1	3
475.578	1	1
475.749	1	16
475.919	1	0
476.090	1	3
476.260	1	5
476.430	1	10
476.601	1	-1
476.771	1	-9
476.942	1	0
477.112	1	11
477.282	1	10
477.453	1	-6
477.623	1	-1
477.793	1	0
477.964	1	-1
478.134	1	14
478.305	1	6
478.475	1	2
478.645	1	6
478.816	1	7
478.986	1	5
479.156	1	3
479.327	1	-3
479.497	1	3
479.667	1	6
479.838	1	7
480.008	1	2
480.179	1	0
480.349	1	7
480.519	1	-4
480.690	1	6
480.860	1	13
481.030	1	3
481.201	1	12
481.371	1	5
481.541	1	9
481.712	1	5
481.882	1	5
482.053	1	5
482.223	1	6
482.393	1	2
482.564	1	0
482.734	1	0
482.904	1	14
483.075	1	6
483.245	1	2
483.415	1	-2
483.586	1	2
483.756	1	-5
483.926	1	6
484.097	1	2
484.267	1	3
484.437	1	6
484.608	1	19
484.778	1	14
484.948	1	-1
485.119	1	5
485.289	1	0
485.459	1	-3
485.630	1	4
485.800	1	13
485.970	1	4
486.141	1	0
486.311	1	8
486.481	1	-5
486.652	1	3
486.822	1	10
486.992	1	4
487.163	1	1
487.333	1	-1
487.503	1	-9
487.674	1	11
487.844	1	5
488.014	1	8
488.185	1	3
488.355	1	25
488.525	1	5
488.696	1	4
488.866	1	6
489.036	1	10
489.207	1	5
489.377	1	1
489.547	1	-1
489.718	1	5
489.888	1	17
490.058	1	5
490.228	1	-4
490.399	1	3
490.569	1	1
490.739	1	12
490.910	1	-8
491.080	1	-1
491.250	1	1
491.421	1	6
491.591	1	5
491.761	1	2
491.932	1	13
492.102	1	6
492.272	1	0
492.442	1	1
492.613	1	-1
492.783	1	-10
492.953	1	4
493.124	1	4
493.294	1	9
493.464	1	2
493.635	1	3
493.805	1	6
493.975	1	10
494.145	1	3
494.316	1	6
494.486	1	14
494.656	1	2
494.827	1	11
494.997	1	1
495.167	1	14
495.337	1	0
495.508	1	5
495.678	1	-5
495.848	1	7
496.019	1	-5
496.189	1	5
496.359	1	17
496.529	1	23
496.700	1	-4
496.870	1	1
497.040	1	4
497.211	1	-4
497.381	1	5
497.551	1	17
497.721	1	1
497.892	1	4
498.062	1	7
498.232	1	19
498.403	1	6
498.573	1	2
498.743	1	10
498.913	1	18
499.084	1	6
499.254	1	9
499.424	1	2
499.594	1	11
499.765	1	3
499.935	1	0
500.105	1	6
500.275	1	9
500.446	1	2
500.616	1	5
500.786	1	-1
500.956	1	10
501.127	1	0
501.297	1	6
501.467	1	0
501.638	1	-2
501.808	1	1
501.978	1	9
502.148	1	8
502.319	1	2
502.489	1	-1
502.659	1	10
502.829	1	10
503.000	1	1
503.170	1	-6
503.340	1	9
503.510	1	6
503.681	1	2
503.851	1	0
504.021	1	2
504.191	1	-4
504.362	1	2
504.532	1	14
504.702	1	7
504.872	1	9
505.042	1	3
505.213	1	3
505.383	1	8
505.553	1	8
505.723	1	11
505.894	1	11
506.064	1	9
506.234	1	-1
506.404	1	2
506.575	1	-4
506.745	1	-8
506.915	1	1
507.085	1	9
507.256	1	-1
507.426	1	10
507.596	1	7
507.766	1	5
507.936	1	-2
508.107	1	10
508.277	1	6
508.447	1	14
508.617	1	1
508.788	1	1
508.958	1	18
509.128	1	3
509.298	1	5
509.468	1	-1
509.639	1	5
509.809	1	-3
509.979	1	1
510.149	1	7
510.319	1	18
510.490	1	5
510.660	1	2
510.830	1	13
511.000	1	9
511.171	1	11
511.341	1	-3
511.511	1	2
511.681	1	5
511.851	1	2
512.022	1	12
512.192	1	-8
512.362	1	-2
512.532	1	9
512.702	1	18
512.873	1	-1
513.043	1	6
513.213	1	14
513.383	1	9
513.553	1	4
513.724	1	4
513.894	1	-1
514.064	1	1
514.234	1	4
514.404	1	15
514.575	1	-2
514.745	1	8
514.915	1	-2
515.085	1	16
515.255	1	-3
515.425	1	3
515.596	1	14
515.766	1	11
515.936	1	17
516.106	1	-11
516.276	1	5
516.447	1	0
516.617	1	0
516.787	1	-3
516.957	1	5
517.127	1	6
517.297	1	0
517.468	1	7
517.638	1	11
517.808	1	0
517.978	1	3
518.148	1	4
518.319	1	0
518.489	1	9
518.659	1	4
518.829	1	16
518.999	1	-1
519.169	1	7
519.340	1	0
519.510	1	2
519.680	1	0
519.850	1	16
520.020	1	-1
520.190	1	17
520.361	1	5
520.531	1	7
520.701	1	-9
520.871	1	-1
521.041	1	15
521.211	1	15
521.382	1	9
521.552	1	11
521.722	1	17
521.892	1	10
522.062	1	5
522.232	1	-1
522.402	1	6
522.573	1	7
522.743	1	11
522.913	1	9
523.083	1	-7
523.253	1	10
523.423	1	11
523.593	1	10
523.764	1	0
523.934	1	3
524.104	1	2
524.274	1	7
524.444	1	7
524.614	1	10
524.784	1	14
524.955	1	13
525.125	1	6
525.295	1	10
525.465	1	5
525.635	1	-4
525.805	1	0
525.975	1	9
526.146	1	2
526.316	1	-4
526.486	1	2
526.656	1	13
526.826	1	13
526.996	1	3
527.166	1	6
527.337	1	17
527.507	1	5
527.677	1	3
527.847	1	-2
528.017	1	2
528.187	1	13
528.357	1	5
528.527	1	11
528.698	1	1
528.868	1	-1
529.038	1	-2
529.208	1	5
529.378	1	10
529.548	1	2
529.718	1	3
529.888	1	-1
530.058	1	1
530.229	1	5
530.399	1	2
530.569	1	5
530.739	1	6
530.909	1	14
531.079	1	6
531.249	1	11
531.419	1	4
531.589	1	12
531.760	1	-3
531.930	1	11
532.100	1	4
532.270	1	4
532.440	1	11
532.610	1	5
532.780	1	7
532.950	1	0
533.120	1	15
533.290	1	18
533.461	1	11
533.631	1	7
533.801	1	20
533.971	1	11
534.141	1	4
534.311	1	11
534.481	1	1
534.651	1	13
534.821	1	23
534.991	1	11
535.162	1	8
535.332	1	2
535.502	1	3
535.672	1	7
535.842	1	7
536.012	1	10
536.182	1	11
536.352	1	6
536.522	1	-1
536.692	1	5
536.862	1	7
537.032	1	13
537.203	1	1
537.373	1	10
537.543	1	12
537.713	1	-3
537.883	1	-1
538.053	1	-8
538.223	1	4
538.393	1	16
538.563	1	0
538.733	1	3
538.903	1	11
539.073	1	13
539.243	1	11
539.413	1	11
539.584	1	4
539.754	1	11
539.924	1	4
540.094	1	4
540.264	1	-2
540.434	1	11
540.604	1	14
540.774	1	15
540.944	1	7
541.114	1	-15
541.284	1	6
541.454	1	2
541.624	1	11
541.794	1	8
541.964	1	4
542.134	1	4
542.305	1	-6
542.475	1	4
542.645	1	1
542.815	1	11
542.985	1	0
543.155	1	4
543.325	1	8
543.495	1	8
543.665	1	17
543.835	1	2
544.005	1	11
544.175	1	7
544.345	1	5
544.515	1	10
544.685	1	8
544.855	1	5
545.025	1	-3
545.195	1	9
545.365	1	5
545.535	1	12
545.705	1	8
545.875	1	22
546.045	1	11
546.216	1	11
546.386	1	4
546.556	1	-7
546.726	1	-2
546.896	1	6
547.066	1	8
547.236	1	-3
547.406	1	-5
547.576	1	8
547.746	1	11
547.916	1	4
548.086	1	6
548.256	1	-6
548.426	1	3
548.596	1	4
548.766	1	1
548.936	1	15
549.106	1	6
549.276	1	2
549.446	1	-1
549.616	1	8
549.786	1	8
549.956	1	2
550.126	1	12
550.296	1	0
550.466	1	9
550.636	1	-1
550.806	1	6
550.976	1	-1
551.146	1	4
551.316	1	9
551.486	1	2
551.656	1	3
551.826	1	0
551.996	1	4
552.166	1	17
552.336	1	6
552.506	1	1
552.676	1	8
552.846	1	3
553.016	1	2
553.186	1	2
553.356	1	8
553.526	1	1
553.696	1	8
553.866	1	-9
554.036	1	4
554.206	1	8
554.376	1	11
554.546	1	13
554.716	1	9
554.886	1	-5
555.056	1	5
555.226	1	13
555.396	1	-5
555.566	1	8
555.736	1	2
555.906	1	6
556.076	1	-3
556.246	1	5
556.416	1	2
556.586	1	12
556.756	1	9
556.926	1	-3
557.096	1	3
557.266	1	11
557.436	1	12
557.606	1	3
557.776	1	2
557.946	1	0
558.116	1	9
558.286	1	12
558.456	1	1
558.626	1	-4
558.796	1	11
558.966	1	-1
559.136	1	5
559.306	1	0
559.476	1	1
559.646	1	7
559.816	1	10
559.986	1	1
560.155	1	-5
560.325	1	-5
560.495	1	1
560.665	1	11
560.835	1	5
561.005	1	5
561.175	1	10
561.345	1	15
561.515	1	2
561.685	1	3
561.855	1	-3
562.025	1	1
562.195	1	-3
562.365	1	11
562.535	1	-1
562.705	1	8
562.875	1	2
563.045	1	4
563.215	1	8
563.385	1	1
563.555	1	18
563.725	1	1
563.895	1	4
564.064	1	17
564.234	1	8
564.404	1	7
564.574	1	6
564.744	1	8
564.914	1	1
565.084	1	-2
565.254	1	-1
565.424	1	3
565.594	1	9
565.764	1	10
565.934	1	1
566.104	1	10
566.274	1	5
566.444	1	19
566.614	1	5
566.783	1	15
566.953	1	2
567.123	1	0
567.293	1	6
567.463	1	0
567.633	1	-1
567.803	1	13
567.973	1	3
568.143	1	10
568.313	1	-1
568.483	1	3
568.653	1	-3
568.823	1	-4
568.993	1	3
569.162	1	8
569.332	1	11
569.502	1	4
569.672	1	8
569.842	1	0
570.012	1	-2
570.182	1	0
570.352	1	-2
570.522	1	-20
570.692	1	11
570.862	1	21
571.031	1	4
571.201	1	2
571.371	1	0
571.541	1	2
571.711	1	5
571.881	1	8
572.051	1	8
572.221	1	13
572.391	1	10
572.561	1	9
572.731	1	6
572.900	1	4
573.070	1	3
573.240	1	-2
573.410	1	3
573.580	1	0
573.750	1	4
573.920	1	6
574.090	1	3
574.260	1	5
574.430	1	10
574.599	1	14
574.769	1	-2
574.939	1	1
575.109	1	11
575.279	1	-2
575.449	1	8
575.619	1	5
575.789	1	1
575.959	1	2
576.128	1	-9
576.298	1	2
576.468	1	0
576.638	1	3
576.808	1	2
576.978	1	-1
577.148	1	3
577.318	1	9
577.487	1	-1
577.657	1	11
577.827	1	-4
577.997	1	6
578.167	1	2
578.337	1	2
578.507	1	-3
578.677	1	16
578.846	1	-1
579.016	1	5
579.186	1	-4
579.356	1	6
579.526	1	12
579.696	1	-2
579.866	1	5
580.036	1	-3
580.205	1	6
580.375	1	-4
580.545	1	-2
580.715	1	6
580.885	1	12
581.055	1	5
581.225	1	-15
581.394	1	-2
581.564	1	0
581.734	1	11
581.904	1	6
582.074	1	3
582.244	1	-4
582.414	1	-6
582.583	1	6
582.753	1	6
582.923	1	6
583.093	1	7
583.263	1	9
583.433	1	13
583.603	1	1
583.772	1	6
583.942	1	3
584.112	1	10
584.282	1	-2
584.452	1	14
584.622	1	-10
584.791	1	7
584.961	1	2
585.131	1	4
585.301	1	11
585.471	1	1
585.641	1	15
585.811	1	1
585.980	1	4
586.150	1	3
586.320	1	1
586.490	1	2
586.660	1	-6
586.830	1	-11
586.999	1	-5
587.169	1	15
587.339	1	3
587.509	1	2
587.679	1	13
587.849	1	4
588.018	1	1
588.188	1	11
588.358	1	-4
588.528	1	6
588.698	1	-2
588.867	1	2
589.037	1	-1
589.207	1	-4
589.377	1	5
589.547	1	-1
589.717	1	-3
589.886	1	4
590.056	1	-11
590.226	1	14
590.396	1	6
590.566	1	5
590.735	1	1
590.905	1	9
591.075	1	6
591.245	1	-3
591.415	1	15
591.585	1	1
591.754	1	-5
591.924	1	-1
592.094	1	-2
592.264	1	2
592.434	1	7
592.603	1	3
592.773	1	14
592.943	1	3
593.113	1	2
593.283	1	-10
593.452	1	15
593.622	1	15
593.792	1	-2
593.962	1	11
594.132	1	-9
594.301	1	-12
594.471	1	7
594.641	1	5
594.811	1	7
594.981	1	-9
595.150	1	1
595.320	1	8
595.490	1	9
595.660	1	0
595.829	1	-3
595.999	1	7
596.169	1	12
596.339	1	10
596.509	1	3
596.678	1	-9
596.848	1	7
597.018	1	1
597.188	1	7
597.358	1	-6
597.527	1	-6
597.697	1	5
597.867	1	5
598.037	1	2
598.206	1	6
598.376	1	13
598.546	1	8
598.716	1	2
598.885	1	5
599.055	1	2
599.225	1	10
599.395	1	3
599.565	1	13
599.734	1	0
599.904	1	2
600.074	1	7
600.244	1	1
600.413	1	10
600.583	1	2
600.753	1	4
600.923	1	1
601.092	1	-4
601.262	1	-4
601.432	1	-5
601.602	1	3
601.771	1	10
601.941	1	0
602.111	1	-5
602.281	1	6
602.451	1	13
602.620	1	8
602.790	1	-1
602.960	1	6
603.130	1	4
603.299	1	6
603.469	1	1
603.639	1	2
603.809	1	4
603.978	1	2
604.148	1	8
604.318	1	-1
604.487	1	4
604.657	1	-9
604.827	1	-2
604.997	1	20
605.166	1	5
605.336	1	6
605.506	1	0
605.676	1	-2
605.845	1	-3
606.015	1	4
606.185	1	7
606.355	1	6
606.524	1	-1
606.694	1	-11
606.864	1	17
607.034	1	10
607.203	1	1
607.373	1	4
607.543	1	0
607.712	1	12
607.882	1	3
608.052	1	-1
608.222	1	-4
608.391	1	17
608.561	1	-8
608.731	1	8
608.901	1	18
609.070	1	11
609.240	1	2
609.410	1	4
609.579	1	16
609.749	1	-5
609.919	1	14
610.089	1	9
610.258	1	3
610.428	1	1
610.598	1	-3
610.767	1	6
610.937	1	13
611.107	1	5
611.277	1	5
611.446	1	-1
611.616	1	-5
611.786	1	3
611.955	1	-6
612.125	1	7
612.295	1	9
612.465	1	-6
612.634	1	-2
612.804	1	8
612.974	1	11
613.143	1	8
613.313	1	4
613.483	1	-4
613.652	1	-3
613.822	1	-4
613.992	1	0
614.162	1	15
614.331	1	-2
614.501	1	14
614.671	1	9
614.840	1	5
615.010	1	-2
615.180	1	10
615.349	1	-4
615.519	1	-5
615.689	1	6
615.858	1	-1
616.028	1	14
616.198	1	7
616.368	1	12
616.537	1	9
616.707	1	13
616.877	1	-10
617.046	1	8
617.216	1	10
617.386	1	-2
617.555	1	0
617.725	1	-1
617.895	1	7
618.064	1	5
618.234	1	4
618.404	1	-2
618.573	1	14
618.743	1	10
618.913	1	10
619.082	1	8
619.252	1	-2
619.422	1	5
619.591	1	-1
619.761	1	12
619.931	1	-4
620.100	1	-5
620.270	1	0
620.440	1	9
620.609	1	1
620.779	1	5
620.949	1	-6
621.118	1	-3
621.288	1	3
621.458	1	10
621.627	1	10
621.797	1	4
621.967	1	1
622.136	1	4
622.306	1	3
622.476	1	15
622.645	1	13
622.815	1	5
622.985	1	5
623.154	1	0
623.324	1	-13
623.494	1	1
623.663	1	0
623.833	1	8
624.002	1	13
624.172	1	0
624.342	1	12
624.511	1	0
624.681	1	2
624.851	1	6
625.020	1	10
625.190	1	3
625.360	1	7
625.529	1	2
625.699	1	2
625.869	1	2
626.038	1	6
626.208	1	0
626.377	1	10
626.547	1	5
626.717	1	-1
626.886	1	-1
627.056	1	14
627.226	1	3
627.395	1	-6
627.565	1	-2
627.735	1	8
627.904	1	11
628.074	1	8
628.243	1	2
628.413	1	3
628.583	1	-5
628.752	1	8
628.922	1	-3
629.091	1	-7
629.261	1	-9
629.431	1	3
629.600	1	7
629.770	1	11
629.940	1	11
630.109	1	12
630.279	1	12
630.448	1	-6
630.618	1	-1
630.788	1	-8
630.957	1	-4
631.127	1	0
631.297	1	3
631.466	1	19
631.636	1	-1
631.805	1	10
631.975	1	8
632.145	1	-11
632.314	1	1
632.484	1	-1
632.653	1	-2
632.823	1	1
632.993	1	7
633.162	1	2
633.332	1	4
633.501	1	14
633.671	1	0
633.841	1	12
634.010	1	-6
634.180	1	3
634.349	1	0
634.519	1	5
634.689	1	4
634.858	1	13
635.028	1	14
635.197	1	8
635.367	1	8
635.537	1	-5
635.706	1	-3
635.876	1	5
636.045	1	10
636.215	1	5
636.384	1	4
636.554	1	16
636.724	1	9
636.893	1	6
637.063	1	-1
637.232	1	-3
637.402	1	3
637.572	1	3
637.741	1	5
637.911	1	-5
638.080	1	9
638.250	1	5
638.419	1	4
638.589	1	5
638.759	1	-3
638.928	1	8
639.098	1	-2
639.267	1	3
639.437	1	1
639.606	1	6
639.776	1	-4
639.946	1	10
640.115	1	7
640.285	1	4
640.454	1	2
640.624	1	-12
640.793	1	0
640.963	1	3
641.132	1	9
641.302	1	10
641.472	1	7
641.641	1	3
641.811	1	1
641.980	1	6
642.150	1	-11
642.319	1	7
642.489	1	-6
642.659	1	-1
642.828	1	-6
642.998	1	10
643.167	1	-4
643.337	1	4
643.506	1	3
643.676	1	1
643.845	1	-5
644.015	1	10
644.184	1	-7
644.354	1	0
644.524	1	2
644.693	1	-1
644.863	1	0
645.032	1	0
645.202	1	7
645.371	1	7
645.541	1	-7
645.710	1	9
645.880	1	11
646.049	1	-7
646.219	1	4
646.388	1	3
646.558	1	0
646.728	1	9
646.897	1	-1
647.067	1	9
647.236	1	-6
647.406	1	11
647.575	1	-13
647.745	1	2
647.914	1	-4
648.084	1	-1
648.253	1	8
648.423	1	13
648.592	1	-3
648.762	1	6
648.931	1	-2
649.101	1	-1
649.270	1	-7
649.440	1	3
649.610	1	8
649.779	1	2
649.949	1	6
650.118	1	-2
650.288	1	4
650.457	1	-3
650.627	1	7
650.796	1	-7
650.966	1	4
651.135	1	3
651.305	1	9
651.474	1	-2
651.644	1	8
651.813	1	5
651.983	1	-15
652.152	1	10
652.322	1	-6
652.491	1	1
652.661	1	0
652.830	1	15
653.000	1	0
653.169	1	4
653.339	1	0
653.508	1	2
653.678	1	-1
653.847	1	0
654.017	1	2
654.186	1	-15
654.356	1	3
654.525	1	1
654.695	1	4
654.864	1	2
655.034	1	-1
655.203	1	3
655.373	1	1
655.542	1	2
655.712	1	8
655.881	1	7
656.051	1	-1
656.220	1	1
656.390	1	-3
656.559	1	12
656.729	1	6
656.898	1	1
657.068	1	4
657.237	1	4
657.406	1	8
657.576	1	-2
657.745	1	-8
657.915	1	8
658.084	1	1
658.254	1	-3
658.423	1	4
658.593	1	6
658.762	1	20
658.932	1	10
659.101	1	6
659.271	1	9
659.440	1	-5
659.610	1	-7
659.779	1	2
659.949	1	-6
660.118	1	-7
660.288	1	-2
660.457	1	0
660.626	1	7
660.796	1	1
660.965	1	2
661.135	1	10
661.304	1	6
661.474	1	1
661.643	1	-3
661.813	1	-4
661.982	1	-3
662.152	1	10
662.321	1	-7
662.491	1	18
662.660	1	-3
662.829	1	3
662.999	1	5
663.168	1	-11
663.338	1	9
663.507	1	2
663.677	1	3
663.846	1	-5
664.016	1	1
664.185	1	0
664.354	1	10
664.524	1	-4
664.693	1	10
664.863	1	3
665.032	1	5
665.202	1	6
665.371	1	-2
665.541	1	2
665.710	1	3
665.879	1	4
666.049	1	0
666.218	1	-2
666.388	1	5
666.557	1	-5
666.727	1	2
666.896	1	5
667.065	1	6
667.235	1	-3
667.404	1	3
667.574	1	15
667.743	1	-5
667.913	1	9
668.082	1	8
668.251	1	3
668.421	1	0
668.590	1	6
668.760	1	2
668.929	1	11
669.099	1	-10
669.268	1	-1
669.437	1	-3
669.607	1	2
669.776	1	-5
669.946	1	8
670.115	1	12
670.285	1	18
670.454	1	-2
670.623	1	7
670.793	1	-4
670.962	1	-3
671.132	1	7
671.301	1	-2
671.470	1	19
671.640	1	-4
671.809	1	-10
671.979	1	5
672.148	1	1
672.317	1	-4
672.487	1	-6
672.656	1	-1
672.826	1	4
672.995	1	0
673.164	1	13
673.334	1	1
673.503	1	1
673.673	1	7
673.842	1	-10
674.011	1	4
674.181	1	7
674.350	1	-4
674.520	1	4
674.689	1	8
674.858	1	-5
675.028	1	10
675.197	1	5
675.367	1	-1
675.536	1	7
675.705	1	10
675.875	1	7
676.044	1	1
676.214	1	4
676.383	1	12
676.552	1	2
676.722	1	3
676.891	1	-3
677.060	1	5
677.230	1	15
677.399	1	4
677.569	1	3
677.738	1	-3
677.907	1	9
678.077	1	0
678.246	1	8
678.416	1	-1
678.585	1	-9
678.754	1	9
678.924	1	12
679.093	1	5
679.262	1	3
679.432	1	7
679.601	1	12
679.771	1	11
679.940	1	-5
680.109	1	0
680.279	1	5
680.448	1	5
680.617	1	-3
680.787	1	11
680.956	1	-7
681.125	1	12
681.295	1	6
681.464	1	-1
681.634	1	5
681.803	1	3
681.972	1	10
682.142	1	-4
682.311	1	-12
682.480	1	15
682.650	1	5
682.819	1	3
682.988	1	-8
683.158	1	1
683.327	1	3
683.496	1	0
683.666	1	7
683.835	1	-7
684.004	1	3
684.174	1	9
684.343	1	-1
684.512	1	13
684.682	1	1
684.851	1	2
685.021	1	2
685.190	1	-1
685.359	1	-12
685.529	1	-2
685.698	1	1
685.867	1	5
686.037	1	3
686.206	1	11
686.375	1	-3
686.545	1	-2
686.714	1	-14
686.883	1	-3
687.053	1	-2
687.222	1	7
687.391	1	4
687.561	1	14
687.730	1	-8
687.899	1	2
688.069	1	0
688.238	1	14
688.407	1	2
688.577	1	-2
688.746	1	4
