340.368	1	9
340.539	1	14
340.710	1	6
340.881	1	0
341.052	1	2
341.223	1	0
341.394	1	2
341.565	1	0
341.737	1	3
341.908	1	4
342.079	1	1
342.250	1	10
342.421	1	8
342.592	1	9
342.763	1	3
342.934	1	6
343.105	1	4
343.276	1	6
343.447	1	6
343.618	1	-3
343.789	1	10
343.960	1	-9
344.131	1	10
344.302	1	17
344.473	1	4
344.644	1	5
344.815	1	-5
344.986	1	15
345.157	1	-3
345.328	1	16
345.499	1	5
345.670	1	1
345.841	1	-1
346.012	1	8
346.183	1	1
346.354	1	-1
346.526	1	5
346.697	1	11
346.868	1	12
347.039	1	2
347.210	1	8
347.381	1	4
347.552	1	7
347.723	1	12
347.894	1	14
348.065	1	10
348.236	1	1
348.407	1	2
348.578	1	5
348.749	1	5
348.920	1	-1
349.091	1	6
349.262	1	6
349.433	1	12
349.604	1	6
349.775	1	1
349.946	1	4
350.117	1	12
350.288	1	5
350.459	1	-6
350.630	1	15
350.801	1	-4
350.972	1	11
351.143	1	6
351.314	1	0
351.485	1	14
351.656	1	13
351.827	1	4
351.998	1	8
352.169	1	12
352.340	1	9
352.511	1	14
352.682	1	11
352.853	1	17
353.024	1	0
353.195	1	0
353.366	1	13
353.537	1	4
353.708	1	7
353.879	1	0
354.050	1	16
354.221	1	19
354.392	1	9
354.563	1	9
354.734	1	9
354.905	1	11
355.076	1	7
355.247	1	5
355.418	1	15
355.589	1	14
355.760	1	19
355.931	1	21
356.102	1	15
356.273	1	14
356.444	1	5
356.615	1	10
356.785	1	14
356.956	1	13
357.127	1	9
357.298	1	1
357.469	1	9
357.640	1	10
357.811	1	21
357.982	1	18
358.153	1	16
358.324	1	14
358.495	1	21
358.666	1	20
358.837	1	16
359.008	1	14
359.179	1	23
359.350	1	13
359.521	1	18
359.692	1	27
359.863	1	12
360.034	1	28
360.205	1	26
360.376	1	31
360.547	1	33
360.718	1	39
360.889	1	24
361.060	1	35
361.231	1	30
361.401	1	32
361.572	1	46
361.743	1	43
361.914	1	33
362.085	1	43
362.256	1	39
362.427	1	48
362.598	1	52
362.769	1	40
362.940	1	43
363.111	1	57
363.282	1	63
363.453	1	47
363.624	1	55
363.795	1	51
363.966	1	74
364.137	1	50
364.308	1	74
364.478	1	65
364.649	1	68
364.820	1	82
364.991	1	67
365.162	1	77
365.333	1	67
365.504	1	86
365.675	1	94
365.846	1	83
366.017	1	97
366.188	1	103
366.359	1	98
366.530	1	97
366.701	1	101
366.871	1	107
367.042	1	108
367.213	1	103
367.384	1	116
367.555	1	108
367.726	1	107
367.897	1	108
368.068	1	103
368.239	1	122
368.410	1	99
368.581	1	108
368.752	1	122
368.923	1	102
369.093	1	106
369.264	1	102
369.435	1	95
369.606	1	116
369.777	1	95
369.948	1	98
370.119	1	96
370.290	1	101
370.461	1	101
370.632	1	90
370.803	1	83
370.973	1	83
371.144	1	81
371.315	1	96
371.486	1	81
371.657	1	78
371.828	1	74
371.999	1	63
372.170	1	73
372.341	1	70
372.512	1	69
372.682	1	76
372.853	1	67
373.024	1	75
373.195	1	64
373.366	1	62
373.537	1	47
373.708	1	57
373.879	1	52
374.050	1	67
374.220	1	49
374.391	1	62
374.562	1	44
374.733	1	52
374.904	1	55
375.075	1	55
375.246	1	57
375.417	1	45
375.588	1	46
375.758	1	40
375.929	1	35
376.100	1	41
376.271	1	54
376.442	1	50
376.613	1	52
376.784	1	50
376.955	1	44
377.125	1	48
377.296	1	42
377.467	1	48
377.638	1	36
377.809	1	39
377.980	1	28
378.151	1	41
378.321	1	36
378.492	1	46
378.663	1	35
378.834	1	38
379.005	1	40
379.176	1	32
379.347	1	25
379.518	1	33
379.688	1	23
379.859	1	27
380.030	1	32
380.201	1	26
380.372	1	36
380.543	1	33
380.714	1	41
380.884	1	29
381.055	1	27
381.226	1	32
381.397	1	27
381.568	1	27
381.739	1	37
381.910	1	42
382.080	1	22
382.251	1	25
382.422	1	39
382.593	1	30
382.764	1	22
382.935	1	32
383.105	1	31
383.276	1	26
383.447	1	26
383.618	1	32
383.789	1	32
383.960	1	22
384.130	1	36
384.301	1	27
384.472	1	30
384.643	1	29
384.814	1	24
384.985	1	33
385.156	1	20
385.326	1	38
385.497	1	26
385.668	1	25
385.839	1	25
386.010	1	27
386.180	1	19
386.351	1	16
386.522	1	23
386.693	1	15
386.864	1	32
387.035	1	33
387.205	1	29
387.376	1	29
387.547	1	23
387.718	1	29
387.889	1	24
388.060	1	20
388.230	1	16
388.401	1	25
388.572	1	22
388.743	1	28
388.914	1	16
389.084	1	11
389.255	1	21
389.426	1	31
389.597	1	4
389.768	1	11
389.939	1	32
390.109	1	20
390.280	1	17
390.451	1	25
390.622	1	21
390.793	1	28
390.963	1	17
391.134	1	9
391.305	1	22
391.476	1	10
391.647	1	20
391.817	1	29
391.988	1	27
392.159	1	9
392.330	1	10
392.501	1	24
392.671	1	9
392.842	1	22
393.013	1	20
393.184	1	22
393.355	1	18
393.525	1	19
393.696	1	15
393.867	1	24
394.038	1	18
394.208	1	17
394.379	1	18
394.550	1	17
394.721	1	21
394.892	1	13
395.062	1	14
395.233	1	19
395.404	1	1
395.575	1	14
395.746	1	26
395.916	1	26
396.087	1	26
396.258	1	16
396.429	1	19
396.599	1	20
396.770	1	15
396.941	1	20
397.112	1	11
397.283	1	7
397.453	1	23
397.624	1	11
397.795	1	8
397.966	1	16
398.136	1	12
398.307	1	27
398.478	1	22
398.649	1	22
398.819	1	5
398.990	1	12
399.161	1	9
399.332	1	11
399.503	1	23
399.673	1	10
399.844	1	10
400.015	1	11
400.186	1	13
400.356	1	25
400.527	1	26
400.698	1	16
400.869	1	13
401.039	1	14
401.210	1	10
401.381	1	17
401.552	1	22
401.722	1	12
401.893	1	-2
402.064	1	1
402.235	1	13
402.405	1	14
402.576	1	17
402.747	1	19
402.918	1	24
403.088	1	15
403.259	1	9
403.430	1	22
403.601	1	22
403.771	1	18
403.942	1	7
404.113	1	10
404.284	1	14
404.454	1	21
404.625	1	27
404.796	1	13
404.967	1	11
405.137	1	11
405.308	1	13
405.479	1	7
405.649	1	16
405.820	1	15
405.991	1	18
406.162	1	16
406.332	1	20
406.503	1	14
406.674	1	20
406.845	1	-1
407.015	1	5
407.186	1	13
407.357	1	21
407.527	1	7
407.698	1	17
407.869	1	15
408.040	1	18
408.210	1	11
408.381	1	12
408.552	1	7
408.722	1	7
408.893	1	8
409.064	1	13
409.235	1	9
409.405	1	18
409.576	1	21
409.747	1	11
409.917	1	3
410.088	1	22
410.259	1	20
410.430	1	26
410.600	1	17
410.771	1	1
410.942	1	8
411.112	1	16
411.283	1	8
411.454	1	13
411.625	1	10
411.795	1	17
411.966	1	5
412.137	1	-1
412.307	1	7
412.478	1	7
412.649	1	22
412.819	1	11
412.990	1	7
413.161	1	15
413.332	1	5
413.502	1	22
413.673	1	4
413.844	1	13
414.014	1	18
414.185	1	12
414.356	1	11
414.526	1	15
414.697	1	10
414.868	1	6
415.038	1	9
415.209	1	9
415.380	1	10
415.550	1	4
415.721	1	4
415.892	1	9
416.063	1	3
416.233	1	17
416.404	1	14
416.575	1	10
416.745	1	10
416.916	1	5
417.087	1	1
417.257	1	12
417.428	1	13
417.599	1	-1
417.769	1	14
417.940	1	13
418.111	1	6
418.281	1	5
418.452	1	9
418.623	1	16
418.793	1	-4
418.964	1	3
419.135	1	12
419.305	1	10
419.476	1	6
419.647	1	13
419.817	1	4
419.988	1	7
420.159	1	5
420.329	1	14
420.500	1	14
420.671	1	4
420.841	1	8
421.012	1	9
421.183	1	13
421.353	1	6
421.524	1	7
421.695	1	1
421.865	1	14
422.036	1	7
422.206	1	11
422.377	1	10
422.548	1	13
422.718	1	13
422.889	1	8
423.060	1	14
423.230	1	4
423.401	1	4
423.572	1	-3
423.742	1	3
423.913	1	4
424.084	1	21
424.254	1	15
424.425	1	20
424.595	1	13
424.766	1	3
424.937	1	13
425.107	1	10
425.278	1	7
425.449	1	12
425.619	1	12
425.790	1	12
425.961	1	13
426.131	1	16
426.302	1	15
426.472	1	6
426.643	1	12
426.814	1	2
426.984	1	10
427.155	1	2
427.326	1	8
427.496	1	-2
427.667	1	20
427.837	1	17
428.008	1	9
428.179	1	6
428.349	1	2
428.520	1	17
428.691	1	10
428.861	1	-5
429.032	1	3
429.202	1	15
429.373	1	6
429.544	1	15
429.714	1	6
429.885	1	7
430.055	1	-3
430.226	1	8
430.397	1	-3
430.567	1	9
430.738	1	5
430.909	1	13
431.079	1	15
431.250	1	16
431.420	1	17
431.591	1	10
431.762	1	6
431.932	1	4
432.103	1	-2
432.273	1	15
432.444	1	9
432.615	1	16
432.785	1	12
432.956	1	9
433.126	1	18
433.297	1	15
433.468	1	5
433.638	1	4
433.809	1	4
433.979	1	15
434.150	1	10
434.320	1	13
434.491	1	12
434.662	1	17
434.832	1	12
435.003	1	11
435.173	1	16
435.344	1	9
435.515	1	5
435.685	1	2
435.856	1	-4
436.026	1	14
436.197	1	12
436.368	1	4
436.538	1	18
436.709	1	-3
436.879	1	6
437.050	1	17
437.220	1	-3
437.391	1	10
437.562	1	12
437.732	1	4
437.903	1	16
438.073	1	10
438.244	1	18
438.414	1	9
438.585	1	14
438.756	1	6
438.926	1	6
439.097	1	6
439.267	1	7
439.438	1	22
439.608	1	13
439.779	1	16
439.949	1	23
440.120	1	12
440.291	1	14
440.461	1	15
440.632	1	7
440.802	1	0
440.973	1	5
441.143	1	-5
441.314	1	1
441.485	1	11
441.655	1	15
441.826	1	6
441.996	1	10
442.167	1	5
442.337	1	7
442.508	1	7
442.678	1	2
442.849	1	14
443.019	1	13
443.190	1	11
443.361	1	13
443.531	1	14
443.702	1	10
443.872	1	9
444.043	1	11
444.213	1	11
444.384	1	2
444.554	1	9
444.725	1	10
444.895	1	1
445.066	1	-2
445.237	1	-1
445.407	1	4
445.578	1	4
445.748	1	14
445.919	1	-3
446.089	1	4
446.260	1	4
446.430	1	11
446.601	1	7
446.771	1	11
446.942	1	11
447.112	1	1
447.283	1	3
447.453	1	5
447.624	1	0
447.794	1	14
447.965	1	-3
448.135	1	13
448.306	1	8
448.477	1	12
448.647	1	18
448.818	1	2
448.988	1	10
449.159	1	4
449.329	1	-1
449.500	1	-1
449.670	1	7
449.841	1	-1
450.011	1	6
450.182	1	16
450.352	1	8
450.523	1	16
450.693	1	-1
450.864	1	5
451.034	1	-2
451.205	1	11
451.375	1	12
451.546	1	16
451.716	1	1
451.887	1	-1
452.057	1	21
452.228	1	7
452.398	1	-6
452.569	1	10
452.739	1	10
452.910	1	1
453.080	1	0
453.251	1	16
453.421	1	1
453.592	1	12
453.762	1	10
453.933	1	6
454.103	1	6
454.274	1	-1
454.444	1	10
454.615	1	3
454.785	1	14
454.956	1	-3
455.126	1	-5
455.297	1	12
455.467	1	8
455.638	1	9
455.808	1	9
455.979	1	3
456.149	1	-1
456.320	1	1
456.490	1	10
456.661	1	1
456.831	1	10
457.001	1	6
457.172	1	-1
457.342	1	9
457.513	1	8
457.683	1	6
457.854	1	10
458.024	1	13
458.195	1	-7
458.365	1	6
458.536	1	6
458.706	1	12
458.877	1	26
459.047	1	-1
459.218	1	2
459.388	1	1
459.559	1	5
459.729	1	5
459.899	1	6
460.070	1	6
460.240	1	17
460.411	1	3
460.581	1	1
460.752	1	13
460.922	1	11
461.093	1	9
461.263	1	4
461.434	1	14
461.604	1	-2
461.775	1	1
461.945	1	13
462.115	1	-6
462.286	1	9
462.456	1	1
462.627	1	0
462.797	1	0
462.968	1	3
463.138	1	0
463.309	1	5
463.479	1	15
463.649	1	1
463.820	1	0
463.990	1	-1
464.161	1	1
464.331	1	2
464.502	1	2
464.672	1	1
464.843	1	2
465.013	1	-2
465.183	1	27
465.354	1	0
465.524	1	13
465.695	1	4
465.865	1	-1
466.036	1	10
466.206	1	9
466.376	1	8
466.547	1	-1
466.717	1	13
466.888	1	-1
467.058	1	14
467.229	1	4
467.399	1	3
467.569	1	9
467.740	1	22
467.910	1	-1
468.081	1	20
468.251	1	9
468.422	1	9
468.592	1	4
468.762	1	2
468.933	1	7
469.103	1	3
469.274	1	12
469.444	1	2
469.614	1	7
469.785	1	4
469.955	1	5
470.126	1	-6
470.296	1	5
470.467	1	3
470.637	1	12
470.807	1	7
470.978	1	-3
471.148	1	0
471.319	1	12
471.489	1	-2
471.659	1	-3
471.830	1	4
472.000	1	5
472.171	1	7
472.341	1	4
472.511	1	-1
472.682	1	14
472.852	1	20
473.023	1	9
473.193	1	7
473.363	1	14
473.534	1	5
473.704	1	1
473.875	1	19
474.045	1	0
474.215	1	8
474.386	1	-7
474.556	1	10
474.727	1	5
474.897	1	-5
475.067	1	8
475.238	1	19
475.408	1	6
475.578	1	-2
475.749	1	12
475.919	1	-5
476.090	1	12
476.260	1	7
476.430	1	7
476.601	1	4
476.771	1	-1
476.942	1	15
477.112	1	15
477.282	1	1
477.453	1	6
477.623	1	1
477.793	1	-2
477.964	1	4
478.134	1	14
478.305	1	17
478.475	1	2
478.645	1	2
478.816	1	12
478.986	1	5
479.156	1	0
479.327	1	6
479.497	1	13
479.667	1	12
479.838	1	16
480.008	1	10
480.179	1	5
480.349	1	5
480.519	1	-1
480.690	1	9
480.860	1	12
481.030	1	4
481.201	1	16
481.371	1	24
481.541	1	6
481.712	1	9
481.882	1	3
482.053	1	0
482.223	1	8
482.393	1	21
482.564	1	1
482.734	1	6
482.904	1	13
483.075	1	23
483.245	1	4
483.415	1	0
483.586	1	3
483.756	1	9
483.926	1	13
484.097	1	8
484.267	1	7
484.437	1	5
484.608	1	16
484.778	1	21
484.948	1	4
485.119	1	9
485.289	1	11
485.459	1	-1
485.630	1	3
485.800	1	21
485.970	1	7
486.141	1	5
486.311	1	22
486.481	1	-1
486.652	1	15
486.822	1	16
486.992	1	5
487.163	1	5
487.333	1	9
487.503	1	7
487.674	1	15
487.844	1	3
488.014	1	16
488.185	1	12
488.355	1	21
488.525	1	17
488.696	1	4
488.866	1	16
489.036	1	15
489.207	1	2
489.377	1	3
489.547	1	14
489.718	1	11
489.888	1	20
490.058	1	16
490.228	1	17
490.399	1	9
490.569	1	10
490.739	1	17
490.910	1	9
491.080	1	3
491.250	1	17
491.421	1	30
491.591	1	5
491.761	1	13
491.932	1	11
492.102	1	18
492.272	1	5
492.442	1	13
492.613	1	8
492.783	1	6
492.953	1	18
493.124	1	12
493.294	1	18
493.464	1	11
493.635	1	23
493.805	1	7
493.975	1	22
494.145	1	10
494.316	1	20
494.486	1	17
494.656	1	27
494.827	1	19
494.997	1	22
495.167	1	27
495.337	1	9
495.508	1	10
495.678	1	17
495.848	1	17
496.019	1	12
496.189	1	11
496.359	1	20
496.529	1	22
496.700	1	26
496.870	1	20
497.040	1	12
497.211	1	1
497.381	1	26
497.551	1	33
497.721	1	9
497.892	1	10
498.062	1	13
498.232	1	19
498.403	1	11
498.573	1	24
498.743	1	27
498.913	1	16
499.084	1	26
499.254	1	22
499.424	1	15
499.594	1	18
499.765	1	20
499.935	1	16
500.105	1	23
500.275	1	21
500.446	1	23
500.616	1	19
500.786	1	21
500.956	1	11
501.127	1	30
501.297	1	20
501.467	1	14
501.638	1	26
501.808	1	26
501.978	1	20
502.148	1	17
502.319	1	21
502.489	1	30
502.659	1	27
502.829	1	18
503.000	1	27
503.170	1	13
503.340	1	18
503.510	1	18
503.681	1	24
503.851	1	14
504.021	1	19
504.191	1	25
504.362	1	23
504.532	1	19
504.702	1	20
504.872	1	20
505.042	1	25
505.213	1	26
505.383	1	34
505.553	1	29
505.723	1	33
505.894	1	40
506.064	1	33
506.234	1	21
506.404	1	19
506.575	1	35
506.745	1	18
506.915	1	22
507.085	1	40
507.256	1	32
507.426	1	27
507.596	1	22
507.766	1	37
507.936	1	29
508.107	1	27
508.277	1	30
508.447	1	38
508.617	1	29
508.788	1	29
508.958	1	46
509.128	1	36
509.298	1	38
509.468	1	25
509.639	1	41
509.809	1	34
509.979	1	27
510.149	1	29
510.319	1	44
510.490	1	40
510.660	1	36
510.830	1	57
511.000	1	32
511.171	1	37
511.341	1	33
511.511	1	37
511.681	1	39
511.851	1	35
512.022	1	36
512.192	1	29
512.362	1	32
512.532	1	31
512.702	1	42
512.873	1	35
513.043	1	35
513.213	1	43
513.383	1	42
513.553	1	43
513.724	1	35
513.894	1	23
514.064	1	24
514.234	1	44
514.404	1	44
514.575	1	32
514.745	1	40
514.915	1	33
515.085	1	43
515.255	1	33
515.425	1	35
515.596	1	38
515.766	1	38
515.936	1	51
516.106	1	36
516.276	1	27
516.447	1	33
516.617	1	29
516.787	1	40
516.957	1	31
517.127	1	37
517.297	1	38
517.468	1	41
517.638	1	40
517.808	1	40
517.978	1	37
518.148	1	42
518.319	1	32
518.489	1	39
518.659	1	46
518.829	1	42
518.999	1	45
519.169	1	41
519.340	1	38
519.510	1	34
519.680	1	37
519.850	1	52
520.020	1	45
520.190	1	50
520.361	1	35
520.531	1	41
520.701	1	37
520.871	1	35
521.041	1	54
521.211	1	45
521.382	1	48
521.552	1	44
521.722	1	47
521.892	1	38
522.062	1	47
522.232	1	43
522.402	1	34
522.573	1	44
522.743	1	42
522.913	1	40
523.083	1	46
523.253	1	42
523.423	1	45
523.593	1	52
523.764	1	40
523.934	1	41
524.104	1	43
524.274	1	37
524.444	1	41
524.614	1	46
524.784	1	54
524.955	1	44
525.125	1	43
525.295	1	50
525.465	1	38
525.635	1	43
525.805	1	29
525.975	1	52
526.146	1	33
526.316	1	40
526.486	1	27
526.656	1	43
526.826	1	50
526.996	1	33
527.166	1	39
527.337	1	52
527.507	1	45
527.677	1	22
527.847	1	43
528.017	1	44
528.187	1	53
528.357	1	42
528.527	1	43
528.698	1	40
528.868	1	44
529.038	1	30
529.208	1	37
529.378	1	40
529.548	1	36
529.718	1	44
529.888	1	38
530.058	1	45
530.229	1	37
530.399	1	42
530.569	1	51
530.739	1	47
530.909	1	44
531.079	1	48
531.249	1	52
531.419	1	39
531.589	1	42
531.760	1	45
531.930	1	47
532.100	1	44
532.270	1	36
532.440	1	53
532.610	1	41
532.780	1	44
532.950	1	44
533.120	1	45
533.290	1	58
533.461	1	48
533.631	1	42
533.801	1	50
533.971	1	43
534.141	1	37
534.311	1	47
534.481	1	42
534.651	1	42
534.821	1	46
534.991	1	41
535.162	1	50
535.332	1	40
535.502	1	41
535.672	1	44
535.842	1	54
536.012	1	46
536.182	1	46
536.352	1	40
536.522	1	41
536.692	1	38
536.862	1	40
537.032	1	41
537.203	1	29
537.373	1	33
537.543	1	56
537.713	1	46
537.883	1	41
538.053	1	28
538.223	1	42
538.393	1	53
538.563	1	46
538.733	1	48
538.903	1	45
539.073	1	39
539.243	1	41
539.413	1	47
539.584	1	42
539.754	1	37
539.924	1	44
540.094	1	42
540.264	1	30
540.434	1	42
540.604	1	46
540.774	1	42
540.944	1	42
541.114	1	25
541.284	1	40
541.454	1	35
541.624	1	56
541.794	1	46
541.964	1	30
542.134	1	40
542.305	1	38
542.475	1	40
542.645	1	32
542.815	1	44
542.985	1	43
543.155	1	41
543.325	1	33
543.495	1	24
543.665	1	34
543.835	1	36
544.005	1	33
544.175	1	40
544.345	1	39
544.515	1	45
544.685	1	50
544.855	1	29
545.025	1	38
545.195	1	41
545.365	1	43
545.535	1	45
545.705	1	33
545.875	1	45
546.045	1	37
546.216	1	44
546.386	1	42
546.556	1	32
546.726	1	34
546.896	1	41
547.066	1	33
547.236	1	33
547.406	1	26
547.576	1	44
547.746	1	39
547.916	1	31
548.086	1	28
548.256	1	35
548.426	1	43
548.596	1	30
548.766	1	39
548.936	1	40
549.106	1	26
549.276	1	33
549.446	1	35
549.616	1	41
549.786	1	42
549.956	1	32
550.126	1	36
550.296	1	41
550.466	1	32
550.636	1	29
550.806	1	46
550.976	1	30
551.146	1	31
551.316	1	28
551.486	1	35
551.656	1	35
551.826	1	38
551.996	1	47
552.166	1	38
552.336	1	26
552.506	1	44
552.676	1	37
552.846	1	25
553.016	1	44
553.186	1	30
553.356	1	48
553.526	1	36
553.696	1	31
553.866	1	26
554.036	1	35
554.206	1	29
554.376	1	44
554.546	1	35
554.716	1	33
554.886	1	23
555.056	1	41
555.226	1	42
555.396	1	13
555.566	1	34
555.736	1	39
555.906	1	35
556.076	1	30
556.246	1	34
556.416	1	37
556.586	1	35
556.756	1	36
556.926	1	30
557.096	1	37
557.266	1	36
557.436	1	41
557.606	1	27
557.776	1	34
557.946	1	33
558.116	1	36
558.286	1	46
558.456	1	35
558.626	1	17
558.796	1	33
558.966	1	22
559.136	1	25
559.306	1	22
559.476	1	26
559.646	1	33
559.816	1	33
559.986	1	24
560.155	1	28
560.325	1	19
560.495	1	21
560.665	1	33
560.835	1	31
561.005	1	19
561.175	1	31
561.345	1	32
561.515	1	15
561.685	1	33
561.855	1	25
562.025	1	18
562.195	1	20
562.365	1	27
562.535	1	24
562.705	1	23
562.875	1	27
563.045	1	31
563.215	1	23
563.385	1	29
563.555	1	30
563.725	1	17
563.895	1	35
564.064	1	27
564.234	1	28
564.404	1	23
564.574	1	27
564.744	1	23
564.914	1	23
565.084	1	24
565.254	1	18
565.424	1	9
565.594	1	28
565.764	1	19
565.934	1	27
566.104	1	20
566.274	1	25
566.444	1	34
566.614	1	24
566.783	1	27
566.953	1	15
567.123	1	25
567.293	1	25
567.463	1	23
567.633	1	16
567.803	1	24
567.973	1	16
568.143	1	18
568.313	1	5
568.483	1	16
568.653	1	22
568.823	1	6
568.993	1	19
569.162	1	24
569.332	1	20
569.502	1	27
569.672	1	15
569.842	1	23
570.012	1	23
570.182	1	19
570.352	1	12
570.522	1	12
570.692	1	28
570.862	1	38
571.031	1	12
571.201	1	16
571.371	1	13
571.541	1	23
571.711	1	17
571.881	1	20
572.051	1	19
572.221	1	23
572.391	1	22
572.561	1	17
572.731	1	35
572.900	1	18
573.070	1	15
573.240	1	19
573.410	1	26
573.580	1	14
573.750	1	14
573.920	1	31
574.090	1	14
574.260	1	9
574.430	1	11
574.599	1	23
574.769	1	8
574.939	1	22
575.109	1	21
575.279	1	20
575.449	1	18
575.619	1	16
575.789	1	25
575.959	1	17
576.128	1	19
576.298	1	15
576.468	1	19
576.638	1	9
576.808	1	17
576.978	1	9
577.148	1	23
577.318	1	17
577.487	1	22
577.657	1	20
577.827	1	8
577.997	1	18
578.167	1	16
578.337	1	17
578.507	1	6
578.677	1	28
578.846	1	8
579.016	1	16
579.186	1	12
579.356	1	20
579.526	1	15
579.696	1	12
579.866	1	24
580.036	1	8
580.205	1	12
580.375	1	11
580.545	1	17
580.715	1	14
580.885	1	17
581.055	1	20
581.225	1	11
581.394	1	11
581.564	1	9
581.734	1	26
581.904	1	17
582.074	1	18
582.244	1	6
582.414	1	14
582.583	1	21
582.753	1	11
582.923	1	14
583.093	1	20
583.263	1	6
583.433	1	19
583.603	1	24
583.772	1	16
583.942	1	13
584.112	1	19
584.282	1	4
584.452	1	19
584.622	1	5
584.791	1	16
584.961	1	10
585.131	1	25
585.301	1	12
585.471	1	20
585.641	1	17
585.811	1	5
585.980	1	13
586.150	1	21
586.320	1	6
586.490	1	9
586.660	1	11
586.830	1	5
586.999	1	4
587.169	1	19
587.339	1	17
587.509	1	10
587.679	1	14
587.849	1	11
588.018	1	23
588.188	1	17
588.358	1	9
588.528	1	16
588.698	1	4
588.867	1	12
589.037	1	20
589.207	1	6
589.377	1	16
589.547	1	7
589.717	1	8
589.886	1	11
590.056	1	6
590.226	1	14
590.396	1	15
590.566	1	1
590.735	1	10
590.905	1	22
591.075	1	17
591.245	1	5
591.415	1	9
591.585	1	14
591.754	1	0
591.924	1	9
592.094	1	8
592.264	1	2
592.434	1	7
592.603	1	9
592.773	1	16
592.943	1	6
593.113	1	15
593.283	1	8
593.452	1	11
593.622	1	13
593.792	1	-4
593.962	1	11
594.132	1	7
594.301	1	-5
594.471	1	6
594.641	1	13
594.811	1	9
594.981	1	0
595.150	1	5
595.320	1	15
595.490	1	17
595.660	1	5
595.829	1	16
595.999	1	14
596.169	1	10
596.339	1	17
596.509	1	5
596.678	1	6
596.848	1	12
597.018	1	10
597.188	1	9
597.358	1	-8
597.527	1	3
597.697	1	6
597.867	1	7
598.037	1	11
598.206	1	7
598.376	1	7
598.546	1	8
598.716	1	5
598.885	1	16
599.055	1	8
599.225	1	12
599.395	1	0
599.565	1	11
599.734	1	-1
599.904	1	6
600.074	1	14
600.244	1	14
600.413	1	8
600.583	1	4
600.753	1	-4
600.923	1	8
601.092	1	11
601.262	1	15
601.432	1	6
601.602	1	10
601.771	1	13
601.941	1	2
602.111	1	8
602.281	1	6
602.451	1	10
602.620	1	5
602.790	1	14
602.960	1	3
603.130	1	16
603.299	1	15
603.469	1	14
603.639	1	1
603.809	1	8
603.978	1	11
604.148	1	20
604.318	1	4
604.487	1	20
604.657	1	-4
604.827	1	17
604.997	1	25
605.166	1	9
605.336	1	12
605.506	1	-3
605.676	1	4
605.845	1	1
606.015	1	4
606.185	1	6
606.355	1	6
606.524	1	4
606.694	1	-6
606.864	1	13
607.034	1	17
607.203	1	4
607.373	1	19
607.543	1	13
607.712	1	12
607.882	1	16
608.052	1	-3
608.222	1	-3
608.391	1	10
608.561	1	12
608.731	1	8
608.901	1	12
609.070	1	12
609.240	1	3
609.410	1	16
609.579	1	6
609.749	1	-3
609.919	1	8
610.089	1	13
610.258	1	11
610.428	1	9
610.598	1	5
610.767	1	12
610.937	1	9
611.107	1	9
611.277	1	11
611.446	1	11
611.616	1	3
611.786	1	3
611.955	1	6
612.125	1	3
612.295	1	12
612.465	1	-1
612.634	1	3
612.804	1	2
612.974	1	15
613.143	1	6
613.313	1	4
613.483	1	6
613.652	1	4
613.822	1	4
613.992	1	9
614.162	1	21
614.331	1	2
614.501	1	29
614.671	1	4
614.840	1	3
615.010	1	6
615.180	1	2
615.349	1	1
615.519	1	3
615.689	1	4
615.858	1	3
616.028	1	22
616.198	1	16
616.368	1	15
616.537	1	10
616.707	1	11
616.877	1	-1
617.046	1	13
617.216	1	9
617.386	1	7
617.555	1	5
617.725	1	13
617.895	1	3
618.064	1	0
618.234	1	10
618.404	1	5
618.573	1	9
618.743	1	7
618.913	1	5
619.082	1	0
619.252	1	-5
619.422	1	8
619.591	1	9
619.761	1	14
619.931	1	1
620.100	1	-1
620.270	1	2
620.440	1	8
620.609	1	-8
620.779	1	9
620.949	1	3
621.118	1	4
621.288	1	1
621.458	1	10
621.627	1	23
621.797	1	4
621.967	1	6
622.136	1	9
622.306	1	14
622.476	1	9
622.645	1	10
622.815	1	1
622.985	1	18
623.154	1	6
623.324	1	-3
623.494	1	5
623.663	1	1
623.833	1	9
624.002	1	15
624.172	1	-3
624.342	1	9
624.511	1	5
624.681	1	7
624.851	1	12
625.020	1	9
625.190	1	-1
625.360	1	1
625.529	1	0
625.699	1	-1
625.869	1	11
626.038	1	10
626.208	1	-6
626.377	1	3
626.547	1	7
626.717	1	8
626.886	1	8
627.056	1	7
627.226	1	16
627.395	1	-7
627.565	1	10
627.735	1	14
627.904	1	9
628.074	1	11
628.243	1	4
628.413	1	7
628.583	1	-8
628.752	1	10
628.922	1	1
629.091	1	8
629.261	1	-4
629.431	1	12
629.600	1	13
629.770	1	6
629.940	1	6
630.109	1	11
630.279	1	11
630.448	1	11
630.618	1	0
630.788	1	5
630.957	1	10
631.127	1	9
631.297	1	4
631.466	1	6
631.636	1	9
631.805	1	12
631.975	1	9
632.145	1	2
632.314	1	8
632.484	1	-9
632.653	1	2
632.823	1	6
632.993	1	14
633.162	1	1
633.332	1	4
633.501	1	17
633.671	1	-2
633.841	1	12
634.010	1	3
634.180	1	15
634.349	1	3
634.519	1	13
634.689	1	9
634.858	1	10
635.028	1	3
635.197	1	15
635.367	1	8
635.537	1	-3
635.706	1	0
635.876	1	2
636.045	1	16
636.215	1	8
636.384	1	5
636.554	1	11
636.724	1	15
636.893	1	8
637.063	1	11
637.232	1	1
637.402	1	-7
637.572	1	0
637.741	1	6
637.911	1	13
638.080	1	10
638.250	1	12
638.419	1	13
638.589	1	4
638.759	1	-5
638.928	1	-4
639.098	1	0
639.267	1	12
639.437	1	15
639.606	1	15
639.776	1	-1
639.946	1	3
640.115	1	10
640.285	1	9
640.454	1	13
640.624	1	-1
640.793	1	-7
640.963	1	-4
641.132	1	9
641.302	1	16
641.472	1	2
641.641	1	3
641.811	1	8
641.980	1	3
642.150	1	-5
642.319	1	14
642.489	1	-3
642.659	1	-1
642.828	1	4
642.998	1	-2
643.167	1	9
643.337	1	3
643.506	1	11
643.676	1	6
643.845	1	-4
644.015	1	4
644.184	1	1
644.354	1	-1
644.524	1	1
644.693	1	-5
644.863	1	5
645.032	1	6
645.202	1	15
645.371	1	14
645.541	1	16
645.710	1	12
645.880	1	12
646.049	1	-4
646.219	1	3
646.388	1	-3
646.558	1	8
646.728	1	3
646.897	1	6
647.067	1	-2
647.236	1	3
647.406	1	-2
647.575	1	-7
647.745	1	8
647.914	1	-6
648.084	1	4
648.253	1	-2
648.423	1	20
648.592	1	4
648.762	1	10
648.931	1	-1
649.101	1	3
649.270	1	-1
649.440	1	7
649.610	1	2
649.779	1	10
649.949	1	12
650.118	1	0
650.288	1	3
650.457	1	-3
650.627	1	10
650.796	1	-5
650.966	1	10
651.135	1	5
651.305	1	7
651.474	1	4
651.644	1	12
651.813	1	19
651.983	1	-7
652.152	1	9
652.322	1	-5
652.491	1	10
652.661	1	4
652.830	1	13
653.000	1	5
653.169	1	-3
653.339	1	3
653.508	1	11
653.678	1	6
653.847	1	-4
654.017	1	-3
654.186	1	6
654.356	1	-3
654.525	1	13
654.695	1	-2
654.864	1	7
655.034	1	11
655.203	1	12
655.373	1	4
655.542	1	3
655.712	1	12
655.881	1	9
656.051	1	8
656.220	1	7
656.390	1	4
656.559	1	6
656.729	1	7
656.898	1	-5
657.068	1	4
657.237	1	6
657.406	1	9
657.576	1	0
657.745	1	2
657.915	1	16
658.084	1	3
658.254	1	-2
658.423	1	5
658.593	1	6
658.762	1	23
658.932	1	25
659.101	1	12
659.271	1	9
659.440	1	1
659.610	1	-1
659.779	1	0
659.949	1	1
660.118	1	0
660.288	1	3
660.457	1	4
660.626	1	4
660.796	1	8
660.965	1	3
661.135	1	14
661.304	1	5
661.474	1	12
661.643	1	1
661.813	1	10
661.982	1	-14
662.152	1	2
662.321	1	-11
662.491	1	7
662.660	1	7
662.829	1	7
662.999	1	2
663.168	1	4
663.338	1	4
663.507	1	5
663.677	1	8
663.846	1	3
664.016	1	6
664.185	1	-3
664.354	1	12
664.524	1	3
664.693	1	13
664.863	1	1
665.032	1	16
665.202	1	-3
665.371	1	4
665.541	1	-4
665.710	1	2
665.879	1	1
666.049	1	5
666.218	1	7
666.388	1	3
666.557	1	4
666.727	1	-5
666.896	1	6
667.065	1	9
667.235	1	14
667.404	1	4
667.574	1	24
667.743	1	-2
667.913	1	9
668.082	1	10
668.251	1	5
668.421	1	-6
668.590	1	7
668.760	1	1
668.929	1	5
669.099	1	-9
669.268	1	7
669.437	1	2
669.607	1	0
669.776	1	-6
669.946	1	6
670.115	1	5
670.285	1	4
670.454	1	-1
670.623	1	18
670.793	1	3
670.962	1	6
671.132	1	1
671.301	1	3
671.470	1	1
671.640	1	-6
671.809	1	1
671.979	1	0
672.148	1	-4
672.317	1	3
672.487	1	-3
672.656	1	8
672.826	1	5
672.995	1	8
673.164	1	11
673.334	1	1
673.503	1	-1
673.673	1	11
673.842	1	3
674.011	1	5
674.181	1	15
674.350	1	-4
674.520	1	6
674.689	1	8
674.858	1	5
675.028	1	12
675.197	1	4
675.367	1	-9
675.536	1	6
675.705	1	14
675.875	1	3
676.044	1	16
676.214	1	9
676.383	1	8
676.552	1	4
676.722	1	1
676.891	1	2
677.060	1	7
677.230	1	14
677.399	1	2
677.569	1	7
677.738	1	-6
677.907	1	8
678.077	1	11
678.246	1	11
678.416	1	9
678.585	1	0
678.754	1	9
678.924	1	1
679.093	1	12
679.262	1	3
679.432	1	9
679.601	1	5
679.771	1	5
679.940	1	-1
680.109	1	4
680.279	1	13
680.448	1	4
680.617	1	-7
680.787	1	18
680.956	1	-3
681.125	1	17
681.295	1	1
681.464	1	2
681.634	1	12
681.803	1	-4
681.972	1	7
682.142	1	6
682.311	1	-3
682.480	1	4
682.650	1	-3
682.819	1	1
682.988	1	7
683.158	1	3
683.327	1	9
683.496	1	-3
683.666	1	11
683.835	1	-5
684.004	1	8
684.174	1	15
684.343	1	0
684.512	1	9
684.682	1	-6
684.851	1	6
685.021	1	8
685.190	1	9
685.359	1	0
685.529	1	-5
685.698	1	-1
685.867	1	2
686.037	1	12
686.206	1	4
686.375	1	1
686.545	1	-3
686.714	1	-1
686.883	1	-2
687.053	1	8
687.222	1	5
687.391	1	5
687.561	1	6
687.730	1	3
687.899	1	5
688.069	1	4
688.238	1	18
688.407	1	14
688.577	1	4
688.746	1	13
