340.368	1	-1
340.539	1	6
340.710	1	-1
340.881	1	8
341.052	1	1
341.223	1	-7
341.394	1	9
341.565	1	3
341.737	1	6
341.908	1	-1
342.079	1	3
342.250	1	10
342.421	1	2
342.592	1	-2
342.763	1	2
342.934	1	1
343.105	1	2
343.276	1	-2
343.447	1	-1
343.618	1	4
343.789	1	5
343.960	1	-6
344.131	1	3
344.302	1	12
344.473	1	-3
344.644	1	12
344.815	1	-7
344.986	1	14
345.157	1	-3
345.328	1	8
345.499	1	-4
345.670	1	5
345.841	1	-5
346.012	1	6
346.183	1	-2
346.354	1	-5
346.526	1	5
346.697	1	0
346.868	1	7
347.039	1	-3
347.210	1	-7
347.381	1	-2
347.552	1	-2
347.723	1	1
347.894	1	4
348.065	1	9
348.236	1	-4
348.407	1	2
348.578	1	-3
348.749	1	5
348.920	1	3
349.091	1	4
349.262	1	8
349.433	1	4
349.604	1	3
349.775	1	-4
349.946	1	9
350.117	1	14
350.288	1	-10
350.459	1	-4
350.630	1	3
350.801	1	-1
350.972	1	8
351.143	1	4
351.314	1	2
351.485	1	12
351.656	1	8
351.827	1	0
351.998	1	0
352.169	1	5
352.340	1	14
352.511	1	10
352.682	1	-5
352.853	1	9
353.024	1	3
353.195	1	-8
353.366	1	6
353.537	1	-1
353.708	1	5
353.879	1	2
354.050	1	8
354.221	1	11
354.392	1	1
354.563	1	-6
354.734	1	-3
354.905	1	2
355.076	1	0
355.247	1	3
355.418	1	8
355.589	1	5
355.760	1	2
355.931	1	1
356.102	1	0
356.273	1	4
356.444	1	-16
356.615	1	-1
356.785	1	2
356.956	1	10
357.127	1	8
357.298	1	-6
357.469	1	2
357.640	1	3
357.811	1	2
357.982	1	8
358.153	1	4
358.324	1	-5
358.495	1	4
358.666	1	-7
358.837	1	6
359.008	1	8
359.179	1	-2
359.350	1	-3
359.521	1	-1
359.692	1	8
359.863	1	-9
360.034	1	3
360.205	1	-5
360.376	1	0
360.547	1	-2
360.718	1	9
360.889	1	-9
361.060	1	-2
361.231	1	-5
361.401	1	-11
361.572	1	14
361.743	1	11
361.914	1	5
362.085	1	2
362.256	1	-1
362.427	1	3
362.598	1	3
362.769	1	1
362.940	1	-1
363.111	1	10
363.282	1	4
363.453	1	1
363.624	1	9
363.795	1	5
363.966	1	7
364.137	1	3
364.308	1	7
364.478	1	1
364.649	1	6
364.820	1	6
364.991	1	8
365.162	1	0
365.333	1	3
365.504	1	14
365.675	1	3
365.846	1	8
366.017	1	8
366.188	1	8
366.359	1	5
366.530	1	3
366.701	1	3
366.871	1	9
367.042	1	10
367.213	1	13
367.384	1	14
367.555	1	10
367.726	1	4
367.897	1	-4
368.068	1	-4
368.239	1	14
368.410	1	6
368.581	1	13
368.752	1	10
368.923	1	9
369.093	1	-2
369.264	1	-4
369.435	1	10
369.606	1	15
369.777	1	3
369.948	1	-1
370.119	1	5
370.290	1	9
370.461	1	14
370.632	1	-9
370.803	1	1
370.973	1	2
371.144	1	9
371.315	1	5
371.486	1	6
371.657	1	-11
371.828	1	12
371.999	1	-1
372.170	1	0
372.341	1	10
372.512	1	11
372.682	1	7
372.853	1	-2
373.024	1	-1
373.195	1	-1
373.366	1	-2
373.537	1	2
373.708	1	4
373.879	1	10
374.050	1	4
374.220	1	3
374.391	1	4
374.562	1	3
374.733	1	-3
374.904	1	-1
375.075	1	13
375.246	1	6
375.417	1	8
375.588	1	-5
375.758	1	-11
375.929	1	-1
376.100	1	4
376.271	1	8
376.442	1	-3
376.613	1	-2
376.784	1	6
376.955	1	1
377.125	1	7
377.296	1	-2
377.467	1	14
377.638	1	-8
377.809	1	0
377.980	1	-8
378.151	1	3
378.321	1	5
378.492	1	13
378.663	1	3
378.834	1	3
379.005	1	16
379.176	1	-5
379.347	1	-5
379.518	1	7
379.688	1	2
379.859	1	3
380.030	1	-1
380.201	1	14
380.372	1	6
380.543	1	1
380.714	1	11
380.884	1	-3
381.055	1	7
381.226	1	2
381.397	1	4
381.568	1	6
381.739	1	7
381.910	1	9
382.080	1	-3
382.251	1	3
382.422	1	13
382.593	1	-2
382.764	1	2
382.935	1	-1
383.105	1	0
383.276	1	0
383.447	1	10
383.618	1	-1
383.789	1	4
383.960	1	-2
384.130	1	6
384.301	1	4
384.472	1	5
384.643	1	5
384.814	1	1
384.985	1	0
385.156	1	-3
385.326	1	9
385.497	1	4
385.668	1	1
385.839	1	-2
386.010	1	0
386.180	1	7
386.351	1	3
386.522	1	0
386.693	1	6
386.864	1	10
387.035	1	6
387.205	1	-2
387.376	1	0
387.547	1	11
387.718	1	7
387.889	1	-4
388.060	1	2
388.230	1	-7
388.401	1	1
388.572	1	4
388.743	1	13
388.914	1	1
389.084	1	5
389.255	1	3
389.426	1	8
389.597	1	-9
389.768	1	-11
389.939	1	8
390.109	1	4
390.280	1	11
390.451	1	8
390.622	1	3
390.793	1	4
390.963	1	5
391.134	1	10
391.305	1	3
391.476	1	-2
391.647	1	8
391.817	1	4
391.988	1	7
392.159	1	-4
392.330	1	-3
392.501	1	4
392.671	1	-1
392.842	1	8
393.013	1	1
393.184	1	2
393.355	1	6
393.525	1	-1
393.696	1	-2
393.867	1	13
394.038	1	8
394.208	1	-14
394.379	1	7
394.550	1	16
394.721	1	8
394.892	1	13
395.062	1	-2
395.233	1	-4
395.404	1	-9
395.575	1	1
395.746	1	11
395.916	1	1
396.087	1	6
396.258	1	-2
396.429	1	-3
396.599	1	6
396.770	1	16
396.941	1	11
397.112	1	6
397.283	1	-9
397.453	1	6
397.624	1	3
397.795	1	-14
397.966	1	9
398.136	1	3
398.307	1	4
398.478	1	-2
398.649	1	6
398.819	1	-11
398.990	1	2
399.161	1	9
399.332	1	7
399.503	1	12
399.673	1	3
399.844	1	1
400.015	1	5
400.186	1	5
400.356	1	4
400.527	1	5
400.698	1	-3
400.869	1	3
401.039	1	5
401.210	1	-7
401.381	1	2
401.552	1	13
401.722	1	10
401.893	1	-10
402.064	1	-9
402.235	1	13
402.405	1	6
402.576	1	2
402.747	1	5
402.918	1	9
403.088	1	3
403.259	1	1
403.430	1	11
403.601	1	8
403.771	1	7
403.942	1	10
404.113	1	-2
404.284	1	0
404.454	1	4
404.625	1	5
404.796	1	7
404.967	1	4
405.137	1	5
405.308	1	1
405.479	1	9
405.649	1	6
405.820	1	4
405.991	1	-2
406.162	1	-5
406.332	1	6
406.503	1	5
406.674	1	6
406.845	1	5
407.015	1	-1
407.186	1	7
407.357	1	-7
407.527	1	5
407.698	1	7
407.869	1	-2
408.040	1	1
408.210	1	7
408.381	1	18
408.552	1	2
408.722	1	10
408.893	1	4
409.064	1	7
409.235	1	-3
409.405	1	0
409.576	1	5
409.747	1	4
409.917	1	2
410.088	1	8
410.259	1	4
410.430	1	11
410.600	1	-1
410.771	1	-8
410.942	1	9
411.112	1	9
411.283	1	3
411.454	1	-2
411.625	1	12
411.795	1	5
411.966	1	4
412.137	1	2
412.307	1	3
412.478	1	-7
412.649	1	-2
412.819	1	9
412.990	1	5
413.161	1	4
413.332	1	-4
413.502	1	5
413.673	1	-1
413.844	1	-1
414.014	1	6
414.185	1	4
414.356	1	9
414.526	1	0
414.697	1	-6
414.868	1	-1
415.038	1	-1
415.209	1	-2
415.380	1	0
415.550	1	4
415.721	1	1
415.892	1	5
416.063	1	-4
416.233	1	14
416.404	1	10
416.575	1	8
416.745	1	-5
416.916	1	-12
417.087	1	-5
417.257	1	11
417.428	1	4
417.599	1	3
417.769	1	8
417.940	1	13
418.111	1	-1
418.281	1	1
418.452	1	-6
418.623	1	2
418.793	1	0
418.964	1	-6
419.135	1	11
419.305	1	6
419.476	1	-1
419.647	1	7
419.817	1	-1
419.988	1	14
420.159	1	4
420.329	1	1
420.500	1	7
420.671	1	-4
420.841	1	15
421.012	1	1
421.183	1	13
421.353	1	-6
421.524	1	4
421.695	1	0
421.865	1	2
422.036	1	3
422.206	1	5
422.377	1	4
422.548	1	16
422.718	1	2
422.889	1	7
423.060	1	5
423.230	1	12
423.401	1	0
423.572	1	-2
423.742	1	-4
423.913	1	-1
424.084	1	6
424.254	1	7
424.425	1	10
424.595	1	1
424.766	1	7
424.937	1	-3
425.107	1	7
425.278	1	-4
425.449	1	4
425.619	1	6
425.790	1	4
425.961	1	6
426.131	1	8
426.302	1	13
426.472	1	-1
426.643	1	6
426.814	1	-4
426.984	1	-1
427.155	1	0
427.326	1	1
427.496	1	5
427.667	1	1
427.837	1	3
428.008	1	0
428.179	1	10
428.349	1	-4
428.520	1	6
428.691	1	3
428.861	1	1
429.032	1	2
429.202	1	8
429.373	1	7
429.544	1	13
429.714	1	-2
429.885	1	10
430.055	1	-8
430.226	1	-3
430.397	1	7
430.567	1	7
430.738	1	-4
430.909	1	-1
431.079	1	15
431.250	1	13
431.420	1	-1
431.591	1	7
431.762	1	9
431.932	1	3
432.103	1	-8
432.273	1	1
432.444	1	2
432.615	1	13
432.785	1	2
432.956	1	-4
433.126	1	5
433.297	1	11
433.468	1	9
433.638	1	2
433.809	1	15
433.979	1	6
434.150	1	-3
434.320	1	-6
434.491	1	-2
434.662	1	-2
434.832	1	3
435.003	1	17
435.173	1	5
435.344	1	8
435.515	1	-4
435.685	1	-9
435.856	1	-6
436.026	1	3
436.197	1	4
436.368	1	6
436.538	1	8
436.709	1	-9
436.879	1	9
437.050	1	6
437.220	1	-1
437.391	1	7
437.562	1	4
437.732	1	1
437.903	1	7
438.073	1	28
438.244	1	8
438.414	1	-10
438.585	1	10
438.756	1	0
438.926	1	5
439.097	1	-2
439.267	1	5
439.438	1	0
439.608	1	9
439.779	1	11
439.949	1	5
440.120	1	-1
440.291	1	6
440.461	1	17
440.632	1	-3
440.802	1	-5
440.973	1	5
441.143	1	-9
441.314	1	6
441.485	1	11
441.655	1	14
441.826	1	2
441.996	1	9
442.167	1	2
442.337	1	1
442.508	1	2
442.678	1	-2
442.849	1	1
443.019	1	8
443.190	1	-2
443.361	1	6
443.531	1	3
443.702	1	2
443.872	1	3
444.043	1	-2
444.213	1	6
444.384	1	1
444.554	1	2
444.725	1	4
444.895	1	0
445.066	1	-11
445.237	1	0
445.407	1	-5
445.578	1	-4
445.748	1	7
445.919	1	7
446.089	1	3
446.260	1	1
446.430	1	-2
446.601	1	8
446.771	1	4
446.942	1	-3
447.112	1	-4
447.283	1	11
447.453	1	3
447.624	1	0
447.794	1	6
447.965	1	2
448.135	1	5
448.306	1	1
448.477	1	9
448.647	1	15
448.818	1	0
448.988	1	1
449.159	1	7
449.329	1	3
449.500	1	-1
449.670	1	-5
449.841	1	0
450.011	1	3
450.182	1	10
450.352	1	-6
450.523	1	3
450.693	1	-1
450.864	1	-6
451.034	1	-4
451.205	1	4
451.375	1	2
451.546	1	5
451.716	1	-9
451.887	1	-8
452.057	1	4
452.228	1	11
452.398	1	-9
452.569	1	0
452.739	1	8
452.910	1	6
453.080	1	8
453.251	1	14
453.421	1	7
453.592	1	0
453.762	1	9
453.933	1	3
454.103	1	8
454.274	1	-2
454.444	1	5
454.615	1	3
454.785	1	6
454.956	1	-4
455.126	1	-7
455.297	1	9
455.467	1	5
455.638	1	-4
455.808	1	11
455.979	1	7
456.149	1	0
456.320	1	1
456.490	1	6
456.661	1	-4
456.831	1	-3
457.001	1	5
457.172	1	3
457.342	1	6
457.513	1	-6
457.683	1	0
457.854	1	6
458.024	1	12
458.195	1	2
458.365	1	7
458.536	1	-2
458.706	1	-13
458.877	1	19
459.047	1	-5
459.218	1	3
459.388	1	4
459.559	1	6
459.729	1	-1
459.899	1	4
460.070	1	5
460.240	1	7
460.411	1	1
460.581	1	-6
460.752	1	13
460.922	1	8
461.093	1	4
461.263	1	2
461.434	1	4
461.604	1	-11
461.775	1	-1
461.945	1	6
462.115	1	-8
462.286	1	-1
462.456	1	0
462.627	1	2
462.797	1	12
462.968	1	-5
463.138	1	3
463.309	1	1
463.479	1	13
463.649	1	-9
463.820	1	-5
463.990	1	-4
464.161	1	-5
464.331	1	10
464.502	1	13
464.672	1	9
464.843	1	-3
465.013	1	-3
465.183	1	6
465.354	1	5
465.524	1	-4
465.695	1	12
465.865	1	-3
466.036	1	-2
466.206	1	0
466.376	1	-3
466.547	1	-2
466.717	1	1
466.888	1	7
467.058	1	1
467.229	1	-4
467.399	1	-7
467.569	1	4
467.740	1	14
467.910	1	-3
468.081	1	9
468.251	1	0
468.422	1	5
468.592	1	4
468.762	1	-1
468.933	1	3
469.103	1	2
469.274	1	10
469.444	1	-3
469.614	1	8
469.785	1	5
469.955	1	-5
470.126	1	-3
470.296	1	6
470.467	1	10
470.637	1	2
470.807	1	2
470.978	1	0
471.148	1	4
471.319	1	2
471.489	1	3
471.659	1	-5
471.830	1	0
472.000	1	5
472.171	1	11
472.341	1	-12
472.511	1	-4
472.682	1	9
472.852	1	16
473.023	1	6
473.193	1	3
473.363	1	6
473.534	1	-4
473.704	1	-10
473.875	1	7
474.045	1	3
474.215	1	2
474.386	1	5
474.556	1	-1
474.727	1	3
474.897	1	-7
475.067	1	4
475.238	1	4
475.408	1	9
475.578	1	-3
475.749	1	6
475.919	1	-8
476.090	1	2
476.260	1	-1
476.430	1	8
476.601	1	2
476.771	1	-6
476.942	1	8
477.112	1	6
477.282	1	5
477.453	1	0
477.623	1	-7
477.793	1	-5
477.964	1	5
478.134	1	11
478.305	1	8
478.475	1	4
478.645	1	4
478.816	1	12
478.986	1	-12
479.156	1	-5
479.327	1	-1
479.497	1	1
479.667	1	3
479.838	1	11
480.008	1	5
480.179	1	-9
480.349	1	-7
480.519	1	-6
480.690	1	7
480.860	1	2
481.030	1	8
481.201	1	13
481.371	1	7
481.541	1	-1
481.712	1	6
481.882	1	-3
482.053	1	4
482.223	1	0
482.393	1	6
482.564	1	-5
482.734	1	9
482.904	1	3
483.075	1	21
483.245	1	-4
483.415	1	3
483.586	1	-5
483.756	1	-1
483.926	1	-3
484.097	1	3
484.267	1	-1
484.437	1	-2
484.608	1	10
484.778	1	8
484.948	1	4
485.119	1	9
485.289	1	1
485.459	1	-8
485.630	1	2
485.800	1	0
485.970	1	2
486.141	1	0
486.311	1	6
486.481	1	1
486.652	1	-1
486.822	1	4
486.992	1	-4
487.163	1	-1
487.333	1	5
487.503	1	-8
487.674	1	4
487.844	1	2
488.014	1	2
488.185	1	3
488.355	1	11
488.525	1	2
488.696	1	8
488.866	1	0
489.036	1	1
489.207	1	-6
489.377	1	-1
489.547	1	-7
489.718	1	4
489.888	1	0
490.058	1	3
490.228	1	6
490.399	1	6
490.569	1	2
490.739	1	8
490.910	1	-2
491.080	1	-3
491.250	1	1
491.421	1	1
491.591	1	-4
491.761	1	-3
491.932	1	6
492.102	1	2
492.272	1	2
492.442	1	-3
492.613	1	-3
492.783	1	-15
492.953	1	0
493.124	1	-1
493.294	1	9
493.464	1	-1
493.635	1	2
493.805	1	5
493.975	1	14
494.145	1	-9
494.316	1	6
494.486	1	13
494.656	1	2
494.827	1	2
494.997	1	1
495.167	1	9
495.337	1	7
495.508	1	-1
495.678	1	-6
495.848	1	6
496.019	1	-3
496.189	1	3
496.359	1	8
496.529	1	6
496.700	1	2
496.870	1	-3
497.040	1	11
497.211	1	-4
497.381	1	15
497.551	1	13
497.721	1	0
497.892	1	5
498.062	1	-4
498.232	1	4
498.403	1	-7
498.573	1	4
498.743	1	7
498.913	1	11
499.084	1	12
499.254	1	12
499.424	1	-11
499.594	1	-3
499.765	1	-7
499.935	1	4
500.105	1	3
500.275	1	2
500.446	1	0
500.616	1	-3
500.786	1	13
500.956	1	3
501.127	1	3
501.297	1	-6
501.467	1	-1
501.638	1	-3
501.808	1	9
501.978	1	1
502.148	1	4
502.319	1	1
502.489	1	-6
502.659	1	-2
502.829	1	1
503.000	1	2
503.170	1	-7
503.340	1	-3
503.510	1	2
503.681	1	-2
503.851	1	3
504.021	1	7
504.191	1	8
504.362	1	-6
504.532	1	-7
504.702	1	0
504.872	1	8
505.042	1	-3
505.213	1	7
505.383	1	8
505.553	1	8
505.723	1	6
505.894	1	1
506.064	1	5
506.234	1	5
506.404	1	0
506.575	1	-2
506.745	1	-1
506.915	1	-4
507.085	1	12
507.256	1	13
507.426	1	3
507.596	1	-5
507.766	1	-1
507.936	1	-8
508.107	1	4
508.277	1	1
508.447	1	7
508.617	1	-1
508.788	1	-2
508.958	1	4
509.128	1	5
509.298	1	-3
509.468	1	-2
509.639	1	8
509.809	1	2
509.979	1	-4
510.149	1	4
510.319	1	11
510.490	1	8
510.660	1	-9
510.830	1	11
511.000	1	5
511.171	1	10
511.341	1	-7
511.511	1	-5
511.681	1	0
511.851	1	6
512.022	1	6
512.192	1	-10
512.362	1	1
512.532	1	-2
512.702	1	15
512.873	1	0
513.043	1	11
513.213	1	1
513.383	1	1
513.553	1	12
513.724	1	-7
513.894	1	0
514.064	1	-4
514.234	1	11
514.404	1	1
514.575	1	-11
514.745	1	2
514.915	1	-9
515.085	1	-1
515.255	1	-2
515.425	1	2
515.596	1	-4
515.766	1	9
515.936	1	14
516.106	1	-4
516.276	1	-1
516.447	1	-6
516.617	1	5
516.787	1	10
516.957	1	-8
517.127	1	3
517.297	1	1
517.468	1	6
517.638	1	3
517.808	1	14
517.978	1	-3
518.148	1	7
518.319	1	-12
518.489	1	1
518.659	1	8
518.829	1	-2
518.999	1	2
519.169	1	1
519.340	1	-8
519.510	1	1
519.680	1	-2
519.850	1	12
520.020	1	0
520.190	1	13
520.361	1	4
520.531	1	13
520.701	1	4
520.871	1	-4
521.041	1	7
521.211	1	4
521.382	1	1
521.552	1	4
521.722	1	-3
521.892	1	7
522.062	1	6
522.232	1	-3
522.402	1	-7
522.573	1	-3
522.743	1	9
522.913	1	9
523.083	1	5
523.253	1	4
523.423	1	9
523.593	1	12
523.764	1	-2
523.934	1	2
524.104	1	10
524.274	1	-2
524.444	1	1
524.614	1	11
524.784	1	3
524.955	1	1
525.125	1	-1
525.295	1	3
525.465	1	7
525.635	1	-1
525.805	1	-2
525.975	1	10
526.146	1	-1
526.316	1	0
526.486	1	-4
526.656	1	-5
526.826	1	7
526.996	1	6
527.166	1	6
527.337	1	12
527.507	1	3
527.677	1	0
527.847	1	2
528.017	1	5
528.187	1	21
528.357	1	15
528.527	1	8
528.698	1	-9
528.868	1	-6
529.038	1	-4
529.208	1	-2
529.378	1	1
529.548	1	-4
529.718	1	8
529.888	1	5
530.058	1	3
530.229	1	5
530.399	1	-3
530.569	1	4
530.739	1	3
530.909	1	1
531.079	1	3
531.249	1	2
531.419	1	13
531.589	1	11
531.760	1	-1
531.930	1	0
532.100	1	4
532.270	1	-3
532.440	1	3
532.610	1	1
532.780	1	-1
532.950	1	-1
533.120	1	7
533.290	1	9
533.461	1	1
533.631	1	2
533.801	1	7
533.971	1	4
534.141	1	-3
534.311	1	16
534.481	1	-1
534.651	1	7
534.821	1	8
534.991	1	0
535.162	1	5
535.332	1	3
535.502	1	5
535.672	1	8
535.842	1	3
536.012	1	6
536.182	1	1
536.352	1	-4
536.522	1	-7
536.692	1	3
536.862	1	3
537.032	1	8
537.203	1	0
537.373	1	4
537.543	1	12
537.713	1	5
537.883	1	3
538.053	1	-8
538.223	1	8
538.393	1	10
538.563	1	13
538.733	1	6
538.903	1	10
539.073	1	-1
539.243	1	0
539.413	1	5
539.584	1	8
539.754	1	-4
539.924	1	-2
540.094	1	7
540.264	1	4
540.434	1	4
540.604	1	8
540.774	1	-6
540.944	1	9
541.114	1	-3
541.284	1	10
541.454	1	3
541.624	1	17
541.794	1	6
541.964	1	-5
542.134	1	3
542.305	1	5
542.475	1	3
542.645	1	0
542.815	1	1
542.985	1	10
543.155	1	5
543.325	1	4
543.495	1	2
543.665	1	0
543.835	1	7
544.005	1	4
544.175	1	-4
544.345	1	4
544.515	1	-3
544.685	1	16
544.855	1	4
545.025	1	6
545.195	1	6
545.365	1	1
545.535	1	8
545.705	1	-3
545.875	1	14
546.045	1	7
546.216	1	13
546.386	1	-2
546.556	1	3
546.726	1	-4
546.896	1	6
547.066	1	6
547.236	1	-4
547.406	1	-16
547.576	1	2
547.746	1	7
547.916	1	2
548.086	1	-6
548.256	1	-6
548.426	1	-6
548.596	1	3
548.766	1	7
548.936	1	4
549.106	1	-8
549.276	1	-4
549.446	1	-14
549.616	1	-1
549.786	1	2
549.956	1	-3
550.126	1	12
550.296	1	1
550.466	1	10
550.636	1	-5
550.806	1	13
550.976	1	1
551.146	1	4
551.316	1	-3
551.486	1	2
551.656	1	-2
551.826	1	1
551.996	1	1
552.166	1	4
552.336	1	5
552.506	1	13
552.676	1	4
552.846	1	-2
553.016	1	-1
553.186	1	8
553.356	1	6
553.526	1	3
553.696	1	-1
553.866	1	-9
554.036	1	3
554.206	1	-1
554.376	1	12
554.546	1	4
554.716	1	5
554.886	1	-3
555.056	1	3
555.226	1	6
555.396	1	-7
555.566	1	-5
555.736	1	4
555.906	1	-4
556.076	1	-3
556.246	1	8
556.416	1	6
556.586	1	-2
556.756	1	6
556.926	1	-2
557.096	1	3
557.266	1	-6
557.436	1	3
557.606	1	-2
557.776	1	-5
557.946	1	5
558.116	1	-2
558.286	1	9
558.456	1	4
558.626	1	-10
558.796	1	7
558.966	1	1
559.136	1	-2
559.306	1	4
559.476	1	2
559.646	1	10
559.816	1	3
559.986	1	-2
560.155	1	-9
560.325	1	-4
560.495	1	2
560.665	1	10
560.835	1	-1
561.005	1	-3
561.175	1	11
561.345	1	10
561.515	1	-1
561.685	1	0
561.855	1	-10
562.025	1	-4
562.195	1	-10
562.365	1	8
562.535	1	5
562.705	1	-10
562.875	1	-9
563.045	1	-4
563.215	1	8
563.385	1	5
563.555	1	9
563.725	1	0
563.895	1	7
564.064	1	2
564.234	1	5
564.404	1	-3
564.574	1	11
564.744	1	3
564.914	1	6
565.084	1	2
565.254	1	-12
565.424	1	-4
565.594	1	6
565.764	1	5
565.934	1	-7
566.104	1	2
566.274	1	2
566.444	1	20
566.614	1	3
566.783	1	2
566.953	1	4
567.123	1	7
567.293	1	11
567.463	1	-1
567.633	1	-3
567.803	1	4
567.973	1	4
568.143	1	12
568.313	1	1
568.483	1	6
568.653	1	-1
568.823	1	-5
568.993	1	-1
569.162	1	11
569.332	1	2
569.502	1	-5
569.672	1	-3
569.842	1	2
570.012	1	2
570.182	1	-1
570.352	1	-6
570.522	1	-15
570.692	1	13
570.862	1	21
571.031	1	4
571.201	1	7
571.371	1	4
571.541	1	-4
571.711	1	9
571.881	1	4
572.051	1	2
572.221	1	9
572.391	1	8
572.561	1	7
572.731	1	1
572.900	1	3
573.070	1	3
573.240	1	-5
573.410	1	-3
573.580	1	-4
573.750	1	-3
573.920	1	5
574.090	1	-9
574.260	1	9
574.430	1	5
574.599	1	7
574.769	1	-2
574.939	1	4
575.109	1	9
575.279	1	-10
575.449	1	5
575.619	1	0
575.789	1	3
575.959	1	2
576.128	1	-4
576.298	1	6
576.468	1	2
576.638	1	-6
576.808	1	-7
576.978	1	-9
577.148	1	5
577.318	1	2
577.487	1	8
577.657	1	12
577.827	1	-6
577.997	1	7
578.167	1	5
578.337	1	5
578.507	1	-8
578.677	1	5
578.846	1	2
579.016	1	-6
579.186	1	3
579.356	1	8
579.526	1	0
579.696	1	0
579.866	1	3
580.036	1	7
580.205	1	-3
580.375	1	-3
580.545	1	-8
580.715	1	9
580.885	1	11
581.055	1	3
581.225	1	-7
581.394	1	5
581.564	1	2
581.734	1	2
581.904	1	-1
582.074	1	-1
582.244	1	-8
582.414	1	0
582.583	1	14
582.753	1	3
582.923	1	1
583.093	1	11
583.263	1	0
583.433	1	13
583.603	1	0
583.772	1	3
583.942	1	-16
584.112	1	12
584.282	1	-3
584.452	1	8
584.622	1	0
584.791	1	-6
584.961	1	-5
585.131	1	2
585.301	1	-5
585.471	1	-5
585.641	1	12
585.811	1	-7
585.980	1	9
586.150	1	3
586.320	1	2
586.490	1	-5
586.660	1	-7
586.830	1	1
586.999	1	-7
587.169	1	1
587.339	1	-2
587.509	1	0
587.679	1	3
587.849	1	5
588.018	1	9
588.188	1	8
588.358	1	-11
588.528	1	13
588.698	1	4
588.867	1	0
589.037	1	0
589.207	1	0
589.377	1	0
589.547	1	6
589.717	1	1
589.886	1	1
590.056	1	-3
590.226	1	10
590.396	1	1
590.566	1	6
590.735	1	-2
590.905	1	10
591.075	1	3
591.245	1	1
591.415	1	9
591.585	1	3
591.754	1	-11
591.924	1	-8
592.094	1	1
592.264	1	-5
592.434	1	3
592.603	1	-5
592.773	1	14
592.943	1	-1
593.113	1	4
593.283	1	-9
593.452	1	5
593.622	1	3
593.792	1	-8
593.962	1	9
594.132	1	-1
594.301	1	-6
594.471	1	9
594.641	1	5
594.811	1	0
594.981	1	-8
595.150	1	0
595.320	1	13
595.490	1	1
595.660	1	3
595.829	1	-6
595.999	1	11
596.169	1	3
596.339	1	1
596.509	1	1
596.678	1	-1
596.848	1	-5
597.018	1	-3
597.188	1	3
597.358	1	-4
597.527	1	-4
597.697	1	-1
597.867	1	-2
598.037	1	8
598.206	1	5
598.376	1	1
598.546	1	3
598.716	1	1
598.885	1	2
599.055	1	3
599.225	1	1
599.395	1	-4
599.565	1	7
599.734	1	2
599.904	1	-5
600.074	1	1
600.244	1	7
600.413	1	7
600.583	1	-10
600.753	1	4
600.923	1	7
601.092	1	3
601.262	1	-5
601.432	1	-2
601.602	1	-14
601.771	1	6
601.941	1	-4
602.111	1	2
602.281	1	3
602.451	1	4
602.620	1	3
602.790	1	10
602.960	1	-5
603.130	1	5
603.299	1	4
603.469	1	-1
603.639	1	-5
603.809	1	6
603.978	1	2
604.148	1	4
604.318	1	-5
604.487	1	11
604.657	1	-7
604.827	1	1
604.997	1	16
605.166	1	11
605.336	1	6
605.506	1	7
605.676	1	3
605.845	1	-9
606.015	1	-4
606.185	1	0
606.355	1	-3
606.524	1	0
606.694	1	-13
606.864	1	8
607.034	1	6
607.203	1	-8
607.373	1	9
607.543	1	0
607.712	1	1
607.882	1	4
608.052	1	-2
608.222	1	-4
608.391	1	8
608.561	1	3
608.731	1	7
608.901	1	11
609.070	1	9
609.240	1	-2
609.410	1	7
609.579	1	4
609.749	1	6
609.919	1	8
610.089	1	-1
610.258	1	-8
610.428	1	2
610.598	1	-5
610.767	1	-3
610.937	1	8
611.107	1	13
611.277	1	9
611.446	1	1
611.616	1	-9
611.786	1	5
611.955	1	-1
612.125	1	-2
612.295	1	10
612.465	1	3
612.634	1	6
612.804	1	14
612.974	1	3
613.143	1	-1
613.313	1	2
613.483	1	-6
613.652	1	-5
613.822	1	-3
613.992	1	6
614.162	1	2
614.331	1	4
614.501	1	9
614.671	1	7
614.840	1	-1
615.010	1	1
615.180	1	8
615.349	1	1
615.519	1	-6
615.689	1	0
615.858	1	-7
616.028	1	12
616.198	1	13
616.368	1	-6
616.537	1	2
616.707	1	7
616.877	1	-2
617.046	1	8
617.216	1	6
617.386	1	-6
617.555	1	2
617.725	1	1
617.895	1	1
618.064	1	6
618.234	1	0
618.404	1	-1
618.573	1	0
618.743	1	7
618.913	1	-1
619.082	1	-1
619.252	1	-15
619.422	1	1
619.591	1	2
619.761	1	1
619.931	1	-14
620.100	1	-5
620.270	1	-2
620.440	1	3
620.609	1	-12
620.779	1	5
620.949	1	-4
621.118	1	-1
621.288	1	-1
621.458	1	8
621.627	1	9
621.797	1	-3
621.967	1	5
622.136	1	4
622.306	1	8
622.476	1	12
622.645	1	7
622.815	1	5
622.985	1	-1
623.154	1	4
623.324	1	-8
623.494	1	6
623.663	1	-5
623.833	1	2
624.002	1	-2
624.172	1	5
624.342	1	9
624.511	1	4
624.681	1	2
624.851	1	-1
625.020	1	0
625.190	1	-2
625.360	1	-1
625.529	1	1
625.699	1	-7
625.869	1	5
626.038	1	13
626.208	1	4
626.377	1	4
626.547	1	1
626.717	1	3
626.886	1	-3
627.056	1	5
627.226	1	4
627.395	1	-9
627.565	1	5
627.735	1	7
627.904	1	-1
628.074	1	2
628.243	1	6
628.413	1	1
628.583	1	-12
628.752	1	-1
628.922	1	-10
629.091	1	-6
629.261	1	-10
629.431	1	10
629.600	1	5
629.770	1	-4
629.940	1	4
630.109	1	13
630.279	1	8
630.448	1	4
630.618	1	-4
630.788	1	0
630.957	1	1
631.127	1	3
631.297	1	-4
631.466	1	15
631.636	1	2
631.805	1	7
631.975	1	2
632.145	1	1
632.314	1	-4
632.484	1	-3
632.653	1	-2
632.823	1	0
632.993	1	14
633.162	1	9
633.332	1	1
633.501	1	12
633.671	1	-1
633.841	1	16
634.010	1	-5
634.180	1	15
634.349	1	4
634.519	1	11
634.689	1	14
634.858	1	9
635.028	1	9
635.197	1	1
635.367	1	4
635.537	1	-15
635.706	1	-4
635.876	1	5
636.045	1	-1
636.215	1	1
636.384	1	-8
636.554	1	7
636.724	1	10
636.893	1	-6
637.063	1	8
637.232	1	-7
637.402	1	-5
637.572	1	3
637.741	1	6
637.911	1	-3
638.080	1	7
638.250	1	9
638.419	1	1
638.589	1	2
638.759	1	-3
638.928	1	2
639.098	1	-7
639.267	1	1
639.437	1	6
639.606	1	2
639.776	1	0
639.946	1	4
640.115	1	-1
640.285	1	-7
640.454	1	9
640.624	1	-14
640.793	1	-2
640.963	1	-7
641.132	1	8
641.302	1	8
641.472	1	4
641.641	1	1
641.811	1	-4
641.980	1	0
642.150	1	-4
642.319	1	9
642.489	1	-3
642.659	1	-4
642.828	1	-2
642.998	1	7
643.167	1	4
643.337	1	0
643.506	1	9
643.676	1	5
643.845	1	-2
644.015	1	6
644.184	1	-7
644.354	1	-2
644.524	1	-1
644.693	1	1
644.863	1	-1
645.032	1	-5
645.202	1	7
645.371	1	5
645.541	1	-3
645.710	1	10
645.880	1	6
646.049	1	-8
646.219	1	10
646.388	1	1
646.558	1	6
646.728	1	7
646.897	1	1
647.067	1	2
647.236	1	-8
647.406	1	-3
647.575	1	0
647.745	1	0
647.914	1	-12
648.084	1	-5
648.253	1	5
648.423	1	4
648.592	1	-1
648.762	1	3
648.931	1	-8
649.101	1	-3
649.270	1	-3
649.440	1	0
649.610	1	8
649.779	1	4
649.949	1	4
650.118	1	3
650.288	1	7
650.457	1	-5
650.627	1	5
650.796	1	-11
650.966	1	4
651.135	1	7
651.305	1	-6
651.474	1	1
651.644	1	3
651.813	1	12
651.983	1	-12
652.152	1	13
652.322	1	-10
652.491	1	1
652.661	1	-1
652.830	1	3
653.000	1	0
653.169	1	2
653.339	1	7
653.508	1	4
653.678	1	7
653.847	1	-9
654.017	1	0
654.186	1	-8
654.356	1	-3
654.525	1	-3
654.695	1	11
654.864	1	7
655.034	1	3
655.203	1	-2
655.373	1	2
655.542	1	0
655.712	1	-6
655.881	1	1
656.051	1	12
656.220	1	-1
656.390	1	-1
656.559	1	-1
656.729	1	10
656.898	1	-6
657.068	1	-7
657.237	1	6
657.406	1	6
657.576	1	-4
657.745	1	-3
657.915	1	11
658.084	1	1
658.254	1	-1
658.423	1	0
658.593	1	0
658.762	1	13
658.932	1	6
659.101	1	14
659.271	1	3
659.440	1	-11
659.610	1	-1
659.779	1	4
659.949	1	4
660.118	1	-2
660.288	1	0
660.457	1	-1
660.626	1	5
660.796	1	0
660.965	1	-4
661.135	1	2
661.304	1	2
661.474	1	4
661.643	1	2
661.813	1	-8
661.982	1	-3
662.152	1	-3
662.321	1	2
662.491	1	10
662.660	1	7
662.829	1	10
662.999	1	-2
663.168	1	-5
663.338	1	0
663.507	1	4
663.677	1	-5
663.846	1	-2
664.016	1	-5
664.185	1	2
664.354	1	2
664.524	1	1
664.693	1	3
664.863	1	-5
665.032	1	4
665.202	1	-7
665.371	1	3
665.541	1	-3
665.710	1	0
665.879	1	4
666.049	1	-1
666.218	1	5
666.388	1	5
666.557	1	11
666.727	1	-10
666.896	1	-2
667.065	1	4
667.235	1	-3
667.404	1	0
667.574	1	10
667.743	1	-3
667.913	1	11
668.082	1	12
668.251	1	10
668.421	1	-4
668.590	1	-4
668.760	1	-13
668.929	1	3
669.099	1	-13
669.268	1	-5
669.437	1	-3
669.607	1	-1
669.776	1	0
669.946	1	8
670.115	1	13
670.285	1	-2
670.454	1	13
670.623	1	11
670.793	1	-8
670.962	1	-3
671.132	1	-4
671.301	1	11
671.470	1	5
671.640	1	-13
671.809	1	7
671.979	1	-2
672.148	1	-8
672.317	1	-9
672.487	1	-3
672.656	1	-6
672.826	1	7
672.995	1	-8
673.164	1	8
673.334	1	-14
673.503	1	-5
673.673	1	11
673.842	1	-3
674.011	1	7
674.181	1	11
674.350	1	-1
674.520	1	-3
674.689	1	10
674.858	1	-1
675.028	1	0
675.197	1	2
675.367	1	1
675.536	1	0
675.705	1	18
675.875	1	4
676.044	1	-1
676.214	1	4
676.383	1	2
676.552	1	3
676.722	1	-2
676.891	1	2
677.060	1	4
677.230	1	9
677.399	1	-6
677.569	1	4
677.738	1	0
677.907	1	8
678.077	1	1
678.246	1	10
678.416	1	5
678.585	1	0
678.754	1	-5
678.924	1	1
679.093	1	5
679.262	1	-5
679.432	1	-5
679.601	1	8
679.771	1	1
679.940	1	-2
680.109	1	-3
680.279	1	-4
680.448	1	3
680.617	1	-5
680.787	1	0
680.956	1	6
681.125	1	6
681.295	1	-5
681.464	1	-4
681.634	1	-2
681.803	1	-9
681.972	1	2
682.142	1	-10
682.311	1	-16
682.480	1	11
682.650	1	-12
682.819	1	1
682.988	1	-10
683.158	1	5
683.327	1	-6
683.496	1	-3
683.666	1	-11
683.835	1	-8
684.004	1	12
684.174	1	0
684.343	1	1
684.512	1	2
684.682	1	0
684.851	1	-3
685.021	1	4
685.190	1	-2
685.359	1	-12
685.529	1	-7
685.698	1	-4
685.867	1	-1
686.037	1	1
686.206	1	0
686.375	1	2
686.545	1	-6
686.714	1	-9
686.883	1	-2
687.053	1	8
687.222	1	-3
687.391	1	2
687.561	1	9
687.730	1	-8
687.899	1	2
688.069	1	0
688.238	1	3
688.407	1	3
688.577	1	-5
688.746	1	3
