340.368	1	5
340.539	1	8
340.710	1	3
340.881	1	8
341.052	1	-15
341.223	1	-8
341.394	1	1
341.565	1	3
341.737	1	5
341.908	1	6
342.079	1	0
342.250	1	12
342.421	1	6
342.592	1	-1
342.763	1	-1
342.934	1	4
343.105	1	4
343.276	1	0
343.447	1	6
343.618	1	-3
343.789	1	1
343.960	1	-4
344.131	1	7
344.302	1	10
344.473	1	-2
344.644	1	7
344.815	1	0
344.986	1	16
345.157	1	-13
345.328	1	10
345.499	1	1
345.670	1	2
345.841	1	0
346.012	1	6
346.183	1	6
346.354	1	4
346.526	1	-7
346.697	1	-1
346.868	1	-1
347.039	1	-5
347.210	1	7
347.381	1	7
347.552	1	-10
347.723	1	14
347.894	1	1
348.065	1	7
348.236	1	1
348.407	1	5
348.578	1	0
348.749	1	0
348.920	1	4
349.091	1	9
349.262	1	10
349.433	1	1
349.604	1	-2
349.775	1	2
349.946	1	6
350.117	1	13
350.288	1	-7
350.459	1	-4
350.630	1	8
350.801	1	0
350.972	1	11
351.143	1	-3
351.314	1	-8
351.485	1	8
351.656	1	3
351.827	1	4
351.998	1	0
352.169	1	2
352.340	1	7
352.511	1	-1
352.682	1	0
352.853	1	13
353.024	1	-7
353.195	1	2
353.366	1	-2
353.537	1	2
353.708	1	-10
353.879	1	-3
354.050	1	2
354.221	1	8
354.392	1	1
354.563	1	-6
354.734	1	1
354.905	1	0
355.076	1	7
355.247	1	-2
355.418	1	2
355.589	1	8
355.760	1	5
355.931	1	-10
356.102	1	-2
356.273	1	8
356.444	1	-10
356.615	1	-1
356.785	1	11
356.956	1	8
357.127	1	6
357.298	1	-10
357.469	1	-3
357.640	1	-5
357.811	1	-2
357.982	1	9
358.153	1	12
358.324	1	0
358.495	1	2
358.666	1	2
358.837	1	4
359.008	1	11
359.179	1	-2
359.350	1	-2
359.521	1	-13
359.692	1	10
359.863	1	-4
360.034	1	0
360.205	1	5
360.376	1	10
360.547	1	-2
360.718	1	9
360.889	1	3
361.060	1	-8
361.231	1	-3
361.401	1	-1
361.572	1	11
361.743	1	13
361.914	1	8
362.085	1	8
362.256	1	-3
362.427	1	15
362.598	1	-2
362.769	1	6
362.940	1	-1
363.111	1	13
363.282	1	12
363.453	1	-1
363.624	1	5
363.795	1	3
363.966	1	13
364.137	1	5
364.308	1	15
364.478	1	1
364.649	1	9
364.820	1	10
364.991	1	4
365.162	1	-2
365.333	1	-4
365.504	1	11
365.675	1	4
365.846	1	6
366.017	1	6
366.188	1	0
366.359	1	7
366.530	1	0
366.701	1	9
366.871	1	17
367.042	1	14
367.213	1	4
367.384	1	9
367.555	1	5
367.726	1	8
367.897	1	8
368.068	1	-3
368.239	1	8
368.410	1	2
368.581	1	9
368.752	1	17
368.923	1	14
369.093	1	16
369.264	1	6
369.435	1	1
369.606	1	17
369.777	1	7
369.948	1	14
370.119	1	9
370.290	1	10
370.461	1	16
370.632	1	-2
370.803	1	4
370.973	1	5
371.144	1	13
371.315	1	12
371.486	1	6
371.657	1	0
371.828	1	10
371.999	1	3
372.170	1	1
372.341	1	12
372.512	1	18
372.682	1	10
372.853	1	-7
373.024	1	10
373.195	1	-6
373.366	1	4
373.537	1	-1
373.708	1	5
373.879	1	7
374.050	1	12
374.220	1	4
374.391	1	13
374.562	1	0
374.733	1	-3
374.904	1	15
375.075	1	15
375.246	1	10
375.417	1	-6
375.588	1	-4
375.758	1	-8
375.929	1	4
376.100	1	0
376.271	1	6
376.442	1	6
376.613	1	-3
376.784	1	3
376.955	1	1
377.125	1	9
377.296	1	-2
377.467	1	18
377.638	1	-10
377.809	1	5
377.980	1	2
378.151	1	8
378.321	1	-3
378.492	1	1
378.663	1	-7
378.834	1	9
379.005	1	15
379.176	1	7
379.347	1	1
379.518	1	8
379.688	1	-8
379.859	1	0
380.030	1	-4
380.201	1	12
380.372	1	9
380.543	1	11
380.714	1	7
380.884	1	-1
381.055	1	3
381.226	1	9
381.397	1	4
381.568	1	14
381.739	1	15
381.910	1	5
382.080	1	-2
382.251	1	3
382.422	1	13
382.593	1	-1
382.764	1	-3
382.935	1	7
383.105	1	1
383.276	1	-1
383.447	1	7
383.618	1	6
383.789	1	8
383.960	1	-4
384.130	1	7
384.301	1	11
384.472	1	6
384.643	1	7
384.814	1	9
384.985	1	14
385.156	1	1
385.326	1	8
385.497	1	-5
385.668	1	4
385.839	1	3
386.010	1	2
386.180	1	10
386.351	1	-3
386.522	1	-2
386.693	1	7
386.864	1	6
387.035	1	11
387.205	1	-6
387.376	1	-4
387.547	1	4
387.718	1	6
387.889	1	-1
388.060	1	-2
388.230	1	0
388.401	1	5
388.572	1	7
388.743	1	10
388.914	1	4
389.084	1	0
389.255	1	2
389.426	1	10
389.597	1	-14
389.768	1	-7
389.939	1	3
390.109	1	8
390.280	1	9
390.451	1	8
390.622	1	1
390.793	1	5
390.963	1	1
391.134	1	2
391.305	1	9
391.476	1	1
391.647	1	-3
391.817	1	5
391.988	1	8
392.159	1	9
392.330	1	-2
392.501	1	14
392.671	1	-6
392.842	1	6
393.013	1	8
393.184	1	8
393.355	1	4
393.525	1	-3
393.696	1	-8
393.867	1	8
394.038	1	9
394.208	1	-2
394.379	1	8
394.550	1	0
394.721	1	4
394.892	1	4
395.062	1	6
395.233	1	-6
395.404	1	-6
395.575	1	12
395.746	1	13
395.916	1	13
396.087	1	17
396.258	1	6
396.429	1	5
396.599	1	7
396.770	1	5
396.941	1	10
397.112	1	3
397.283	1	0
397.453	1	10
397.624	1	-7
397.795	1	-5
397.966	1	3
398.136	1	6
398.307	1	2
398.478	1	7
398.649	1	8
398.819	1	-10
398.990	1	7
399.161	1	3
399.332	1	4
399.503	1	3
399.673	1	8
399.844	1	0
400.015	1	8
400.186	1	-1
400.356	1	10
400.527	1	9
400.698	1	4
400.869	1	4
401.039	1	7
401.210	1	-4
401.381	1	3
401.552	1	7
401.722	1	-2
401.893	1	-12
402.064	1	-1
402.235	1	7
402.405	1	10
402.576	1	-5
402.747	1	4
402.918	1	13
403.088	1	-1
403.259	1	-6
403.430	1	9
403.601	1	11
403.771	1	0
403.942	1	3
404.113	1	-4
404.284	1	8
404.454	1	4
404.625	1	6
404.796	1	17
404.967	1	3
405.137	1	8
405.308	1	0
405.479	1	7
405.649	1	1
405.820	1	13
405.991	1	0
406.162	1	5
406.332	1	12
406.503	1	2
406.674	1	1
406.845	1	-1
407.015	1	0
407.186	1	8
407.357	1	-3
407.527	1	2
407.698	1	3
407.869	1	7
408.040	1	12
408.210	1	6
408.381	1	7
408.552	1	2
408.722	1	8
408.893	1	1
409.064	1	3
409.235	1	-14
409.405	1	7
409.576	1	4
409.747	1	-2
409.917	1	-3
410.088	1	14
410.259	1	4
410.430	1	5
410.600	1	6
410.771	1	-9
410.942	1	3
411.112	1	11
411.283	1	3
411.454	1	8
411.625	1	4
411.795	1	10
411.966	1	12
412.137	1	0
412.307	1	-9
412.478	1	3
412.649	1	9
412.819	1	17
412.990	1	0
413.161	1	13
413.332	1	2
413.502	1	12
413.673	1	1
413.844	1	3
414.014	1	18
414.185	1	4
414.356	1	14
414.526	1	12
414.697	1	5
414.868	1	3
415.038	1	7
415.209	1	-2
415.380	1	5
415.550	1	1
415.721	1	0
415.892	1	6
416.063	1	2
416.233	1	8
416.404	1	12
416.575	1	8
416.745	1	9
416.916	1	3
417.087	1	3
417.257	1	7
417.428	1	2
417.599	1	0
417.769	1	14
417.940	1	3
418.111	1	8
418.281	1	0
418.452	1	4
418.623	1	2
418.793	1	-6
418.964	1	-1
419.135	1	8
419.305	1	1
419.476	1	7
419.647	1	15
419.817	1	2
419.988	1	14
420.159	1	12
420.329	1	9
420.500	1	5
420.671	1	6
420.841	1	3
421.012	1	-2
421.183	1	7
421.353	1	1
421.524	1	5
421.695	1	-1
421.865	1	9
422.036	1	2
422.206	1	-3
422.377	1	15
422.548	1	13
422.718	1	1
422.889	1	1
423.060	1	8
423.230	1	1
423.401	1	9
423.572	1	-11
423.742	1	9
423.913	1	7
424.084	1	5
424.254	1	11
424.425	1	6
424.595	1	7
424.766	1	3
424.937	1	6
425.107	1	1
425.278	1	0
425.449	1	6
425.619	1	6
425.790	1	8
425.961	1	8
426.131	1	16
426.302	1	11
426.472	1	-3
426.643	1	-1
426.814	1	5
426.984	1	8
427.155	1	-9
427.326	1	-1
427.496	1	-6
427.667	1	6
427.837	1	3
428.008	1	1
428.179	1	2
428.349	1	-4
428.520	1	13
428.691	1	-1
428.861	1	3
429.032	1	6
429.202	1	20
429.373	1	8
429.544	1	2
429.714	1	-7
429.885	1	7
430.055	1	-5
430.226	1	5
430.397	1	-4
430.567	1	-7
430.738	1	-3
430.909	1	12
431.079	1	8
431.250	1	9
431.420	1	-5
431.591	1	2
431.762	1	4
431.932	1	7
432.103	1	-9
432.273	1	7
432.444	1	10
432.615	1	10
432.785	1	8
432.956	1	0
433.126	1	13
433.297	1	14
433.468	1	5
433.638	1	0
433.809	1	10
433.979	1	4
434.150	1	-3
434.320	1	5
434.491	1	0
434.662	1	-3
434.832	1	2
435.003	1	5
435.173	1	6
435.344	1	3
435.515	1	1
435.685	1	-7
435.856	1	0
436.026	1	-4
436.197	1	10
436.368	1	3
436.538	1	4
436.709	1	4
436.879	1	4
437.050	1	16
437.220	1	2
437.391	1	15
437.562	1	3
437.732	1	2
437.903	1	6
438.073	1	8
438.244	1	8
438.414	1	-3
438.585	1	5
438.756	1	6
438.926	1	1
439.097	1	-3
439.267	1	7
439.438	1	2
439.608	1	9
439.779	1	12
439.949	1	13
440.120	1	2
440.291	1	8
440.461	1	10
440.632	1	2
440.802	1	-8
440.973	1	7
441.143	1	-6
441.314	1	8
441.485	1	5
441.655	1	14
441.826	1	-1
441.996	1	8
442.167	1	1
442.337	1	8
442.508	1	-4
442.678	1	-1
442.849	1	7
443.019	1	10
443.190	1	4
443.361	1	-2
443.531	1	3
443.702	1	3
443.872	1	13
444.043	1	-4
444.213	1	0
444.384	1	-4
444.554	1	10
444.725	1	16
444.895	1	-3
445.066	1	7
445.237	1	2
445.407	1	-2
445.578	1	-10
445.748	1	11
445.919	1	2
446.089	1	8
446.260	1	5
446.430	1	2
446.601	1	8
446.771	1	6
446.942	1	-2
447.112	1	4
447.283	1	3
447.453	1	10
447.624	1	-5
447.794	1	15
447.965	1	0
448.135	1	19
448.306	1	3
448.477	1	7
448.647	1	5
448.818	1	-4
448.988	1	4
449.159	1	4
449.329	1	2
449.500	1	-2
449.670	1	-2
449.841	1	-8
450.011	1	3
450.182	1	18
450.352	1	11
450.523	1	9
450.693	1	3
450.864	1	4
451.034	1	2
451.205	1	1
451.375	1	7
451.546	1	13
451.716	1	-6
451.887	1	-10
452.057	1	9
452.228	1	1
452.398	1	-4
452.569	1	13
452.739	1	6
452.910	1	1
453.080	1	7
453.251	1	14
453.421	1	9
453.592	1	8
453.762	1	2
453.933	1	2
454.103	1	-1
454.274	1	-3
454.444	1	1
454.615	1	5
454.785	1	21
454.956	1	-4
455.126	1	-3
455.297	1	9
455.467	1	-2
455.638	1	6
455.808	1	3
455.979	1	8
456.149	1	-1
456.320	1	-2
456.490	1	7
456.661	1	-1
456.831	1	5
457.001	1	1
457.172	1	1
457.342	1	2
457.513	1	-8
457.683	1	-5
457.854	1	1
458.024	1	12
458.195	1	-7
458.365	1	13
458.536	1	10
458.706	1	6
458.877	1	24
459.047	1	-4
459.218	1	3
459.388	1	2
459.559	1	7
459.729	1	-1
459.899	1	2
460.070	1	2
460.240	1	9
460.411	1	10
460.581	1	1
460.752	1	5
460.922	1	0
461.093	1	7
461.263	1	7
461.434	1	13
461.604	1	-6
461.775	1	-3
461.945	1	2
462.115	1	4
462.286	1	7
462.456	1	8
462.627	1	6
462.797	1	-5
462.968	1	0
463.138	1	1
463.309	1	7
463.479	1	14
463.649	1	-5
463.820	1	-8
463.990	1	-1
464.161	1	-2
464.331	1	4
464.502	1	7
464.672	1	6
464.843	1	0
465.013	1	-1
465.183	1	7
465.354	1	1
465.524	1	-3
465.695	1	5
465.865	1	-11
466.036	1	5
466.206	1	11
466.376	1	7
466.547	1	-10
466.717	1	5
466.888	1	7
467.058	1	3
467.229	1	-2
467.399	1	-10
467.569	1	4
467.740	1	15
467.910	1	-1
468.081	1	8
468.251	1	9
468.422	1	6
468.592	1	1
468.762	1	-13
468.933	1	2
469.103	1	6
469.274	1	5
469.444	1	0
469.614	1	-1
469.785	1	5
469.955	1	-2
470.126	1	-9
470.296	1	0
470.467	1	9
470.637	1	-5
470.807	1	5
470.978	1	-3
471.148	1	-3
471.319	1	5
471.489	1	0
471.659	1	-3
471.830	1	5
472.000	1	8
472.171	1	7
472.341	1	-5
472.511	1	6
472.682	1	4
472.852	1	8
473.023	1	2
473.193	1	5
473.363	1	7
473.534	1	-3
473.704	1	-6
473.875	1	10
474.045	1	2
474.215	1	11
474.386	1	-5
474.556	1	7
474.727	1	2
474.897	1	3
475.067	1	-4
475.238	1	14
475.408	1	6
475.578	1	-3
475.749	1	0
475.919	1	-5
476.090	1	5
476.260	1	1
476.430	1	10
476.601	1	3
476.771	1	-11
476.942	1	8
477.112	1	3
477.282	1	5
477.453	1	3
477.623	1	6
477.793	1	-5
477.964	1	-1
478.134	1	17
478.305	1	6
478.475	1	7
478.645	1	0
478.816	1	7
478.986	1	-9
479.156	1	-1
479.327	1	-2
479.497	1	1
479.667	1	7
479.838	1	7
480.008	1	-6
480.179	1	-6
480.349	1	1
480.519	1	-14
480.690	1	10
480.860	1	6
481.030	1	2
481.201	1	8
481.371	1	11
481.541	1	-2
481.712	1	12
481.882	1	1
482.053	1	4
482.223	1	-4
482.393	1	6
482.564	1	-4
482.734	1	-5
482.904	1	7
483.075	1	16
483.245	1	0
483.415	1	0
483.586	1	-4
483.756	1	-1
483.926	1	-2
484.097	1	4
484.267	1	2
484.437	1	-3
484.608	1	9
484.778	1	10
484.948	1	2
485.119	1	11
485.289	1	-4
485.459	1	-9
485.630	1	-4
485.800	1	6
485.970	1	4
486.141	1	5
486.311	1	17
486.481	1	-4
486.652	1	1
486.822	1	4
486.992	1	4
487.163	1	4
487.333	1	1
487.503	1	-18
487.674	1	-7
487.844	1	-5
488.014	1	-2
488.185	1	0
488.355	1	3
488.525	1	1
488.696	1	1
488.866	1	4
489.036	1	8
489.207	1	7
489.377	1	-1
489.547	1	11
489.718	1	3
489.888	1	5
490.058	1	3
490.228	1	0
490.399	1	-1
490.569	1	9
490.739	1	8
490.910	1	1
491.080	1	1
491.250	1	8
491.421	1	5
491.591	1	1
491.761	1	-3
491.932	1	2
492.102	1	4
492.272	1	0
492.442	1	-2
492.613	1	2
492.783	1	-16
492.953	1	3
493.124	1	-2
493.294	1	-3
493.464	1	3
493.635	1	4
493.805	1	1
493.975	1	9
494.145	1	0
494.316	1	10
494.486	1	7
494.656	1	-2
494.827	1	4
494.997	1	1
495.167	1	5
495.337	1	-1
495.508	1	-1
495.678	1	-6
495.848	1	7
496.019	1	-8
496.189	1	9
496.359	1	18
496.529	1	7
496.700	1	0
496.870	1	5
497.040	1	8
497.211	1	-3
497.381	1	-5
497.551	1	11
497.721	1	0
497.892	1	5
498.062	1	-11
498.232	1	1
498.403	1	-8
498.573	1	8
498.743	1	7
498.913	1	11
499.084	1	7
499.254	1	4
499.424	1	-8
499.594	1	5
499.765	1	-5
499.935	1	-3
500.105	1	1
500.275	1	14
500.446	1	8
500.616	1	1
500.786	1	-2
500.956	1	-1
501.127	1	0
501.297	1	-5
501.467	1	9
501.638	1	5
501.808	1	-1
501.978	1	-4
502.148	1	6
502.319	1	6
502.489	1	-1
502.659	1	2
502.829	1	1
503.000	1	7
503.170	1	2
503.340	1	-4
503.510	1	10
503.681	1	-6
503.851	1	1
504.021	1	0
504.191	1	0
504.362	1	-3
504.532	1	3
504.702	1	2
504.872	1	-4
505.042	1	5
505.213	1	4
505.383	1	6
505.553	1	-2
505.723	1	15
505.894	1	6
506.064	1	4
506.234	1	-1
506.404	1	6
506.575	1	-1
506.745	1	-1
506.915	1	3
507.085	1	8
507.256	1	8
507.426	1	3
507.596	1	-7
507.766	1	0
507.936	1	-7
508.107	1	10
508.277	1	-8
508.447	1	17
508.617	1	-6
508.788	1	-2
508.958	1	2
509.128	1	10
509.298	1	-2
509.468	1	-4
509.639	1	1
509.809	1	-4
509.979	1	-5
510.149	1	2
510.319	1	8
510.490	1	7
510.660	1	-6
510.830	1	13
511.000	1	-3
511.171	1	10
511.341	1	-4
511.511	1	-2
511.681	1	8
511.851	1	10
512.022	1	6
512.192	1	-7
512.362	1	-4
512.532	1	-1
512.702	1	9
512.873	1	-1
513.043	1	0
513.213	1	6
513.383	1	0
513.553	1	2
513.724	1	-4
513.894	1	-9
514.064	1	0
514.234	1	8
514.404	1	14
514.575	1	-5
514.745	1	-3
514.915	1	-2
515.085	1	8
515.255	1	9
515.425	1	8
515.596	1	2
515.766	1	0
515.936	1	8
516.106	1	-3
516.276	1	-3
516.447	1	1
516.617	1	6
516.787	1	7
516.957	1	0
517.127	1	2
517.297	1	-6
517.468	1	9
517.638	1	8
517.808	1	2
517.978	1	-2
518.148	1	7
518.319	1	2
518.489	1	4
518.659	1	6
518.829	1	1
518.999	1	3
519.169	1	1
519.340	1	-10
519.510	1	-3
519.680	1	5
519.850	1	10
520.020	1	1
520.190	1	14
520.361	1	2
520.531	1	11
520.701	1	3
520.871	1	-4
521.041	1	8
521.211	1	4
521.382	1	6
521.552	1	8
521.722	1	6
521.892	1	10
522.062	1	0
522.232	1	-12
522.402	1	-1
522.573	1	3
522.743	1	6
522.913	1	6
523.083	1	6
523.253	1	8
523.423	1	10
523.593	1	14
523.764	1	4
523.934	1	-3
524.104	1	5
524.274	1	-6
524.444	1	1
524.614	1	4
524.784	1	7
524.955	1	-3
525.125	1	5
525.295	1	10
525.465	1	0
525.635	1	2
525.805	1	-9
525.975	1	21
526.146	1	6
526.316	1	-7
526.486	1	6
526.656	1	6
526.826	1	15
526.996	1	6
527.166	1	4
527.337	1	10
527.507	1	18
527.677	1	2
527.847	1	4
528.017	1	-1
528.187	1	3
528.357	1	5
528.527	1	4
528.698	1	-6
528.868	1	-2
529.038	1	-6
529.208	1	4
529.378	1	8
529.548	1	-2
529.718	1	6
529.888	1	6
530.058	1	-3
530.229	1	2
530.399	1	2
530.569	1	1
530.739	1	13
530.909	1	8
531.079	1	4
531.249	1	10
531.419	1	6
531.589	1	-2
531.760	1	0
531.930	1	-4
532.100	1	-2
532.270	1	12
532.440	1	10
532.610	1	6
532.780	1	1
532.950	1	9
533.120	1	13
533.290	1	10
533.461	1	4
533.631	1	9
533.801	1	7
533.971	1	1
534.141	1	3
534.311	1	8
534.481	1	0
534.651	1	8
534.821	1	12
534.991	1	1
535.162	1	1
535.332	1	7
535.502	1	-5
535.672	1	2
535.842	1	9
536.012	1	1
536.182	1	13
536.352	1	-7
536.522	1	-4
536.692	1	8
536.862	1	-2
537.032	1	-5
537.203	1	4
537.373	1	8
537.543	1	6
537.713	1	7
537.883	1	-7
538.053	1	-9
538.223	1	11
538.393	1	9
538.563	1	5
538.733	1	5
538.903	1	13
539.073	1	2
539.243	1	6
539.413	1	4
539.584	1	1
539.754	1	-6
539.924	1	2
540.094	1	4
540.264	1	0
540.434	1	1
540.604	1	14
540.774	1	6
540.944	1	3
541.114	1	-16
541.284	1	5
541.454	1	16
541.624	1	5
541.794	1	4
541.964	1	3
542.134	1	-9
542.305	1	1
542.475	1	-3
542.645	1	-10
542.815	1	8
542.985	1	2
543.155	1	-3
543.325	1	5
543.495	1	4
543.665	1	4
543.835	1	7
544.005	1	12
544.175	1	-1
544.345	1	5
544.515	1	4
544.685	1	9
544.855	1	-1
545.025	1	-3
545.195	1	-7
545.365	1	4
545.535	1	21
545.705	1	-3
545.875	1	15
546.045	1	-5
546.216	1	12
546.386	1	-5
546.556	1	-21
546.726	1	4
546.896	1	9
547.066	1	7
547.236	1	-4
547.406	1	-7
547.576	1	3
547.746	1	2
547.916	1	-7
548.086	1	-8
548.256	1	-3
548.426	1	4
548.596	1	4
548.766	1	8
548.936	1	10
549.106	1	3
549.276	1	-1
549.446	1	2
549.616	1	-3
549.786	1	1
549.956	1	-3
550.126	1	8
550.296	1	-2
550.466	1	5
550.636	1	-8
550.806	1	4
550.976	1	-2
551.146	1	-2
551.316	1	7
551.486	1	-4
551.656	1	-4
551.826	1	7
551.996	1	3
552.166	1	2
552.336	1	5
552.506	1	4
552.676	1	1
552.846	1	-5
553.016	1	4
553.186	1	2
553.356	1	5
553.526	1	5
553.696	1	0
553.866	1	-8
554.036	1	-2
554.206	1	3
554.376	1	6
554.546	1	5
554.716	1	-2
554.886	1	0
555.056	1	-1
555.226	1	-4
555.396	1	0
555.566	1	6
555.736	1	6
555.906	1	1
556.076	1	-6
556.246	1	-1
556.416	1	10
556.586	1	2
556.756	1	7
556.926	1	1
557.096	1	-4
557.266	1	1
557.436	1	-5
557.606	1	0
557.776	1	8
557.946	1	-2
558.116	1	-1
558.286	1	9
558.456	1	6
558.626	1	-9
558.796	1	11
558.966	1	-2
559.136	1	10
559.306	1	-2
559.476	1	-2
559.646	1	7
559.816	1	2
559.986	1	-2
560.155	1	1
560.325	1	-4
560.495	1	5
560.665	1	9
560.835	1	12
561.005	1	-4
561.175	1	5
561.345	1	-2
561.515	1	-3
561.685	1	0
561.855	1	-10
562.025	1	-3
562.195	1	3
562.365	1	13
562.535	1	2
562.705	1	4
562.875	1	-2
563.045	1	-2
563.215	1	-7
563.385	1	7
563.555	1	6
563.725	1	-2
563.895	1	-3
564.064	1	12
564.234	1	9
564.404	1	4
564.574	1	11
564.744	1	3
564.914	1	4
565.084	1	2
565.254	1	-10
565.424	1	-2
565.594	1	9
565.764	1	6
565.934	1	-10
566.104	1	-2
566.274	1	7
566.444	1	9
566.614	1	6
566.783	1	8
566.953	1	-2
567.123	1	4
567.293	1	11
567.463	1	1
567.633	1	-6
567.803	1	9
567.973	1	-2
568.143	1	0
568.313	1	0
568.483	1	5
568.653	1	-4
568.823	1	-3
568.993	1	1
569.162	1	10
569.332	1	9
569.502	1	0
569.672	1	-2
569.842	1	0
570.012	1	-10
570.182	1	5
570.352	1	-8
570.522	1	-11
570.692	1	4
570.862	1	17
571.031	1	9
571.201	1	5
571.371	1	0
571.541	1	-2
571.711	1	12
571.881	1	-5
572.051	1	4
572.221	1	9
572.391	1	12
572.561	1	6
572.731	1	9
572.900	1	0
573.070	1	-4
573.240	1	-3
573.410	1	5
573.580	1	6
573.750	1	1
573.920	1	6
574.090	1	-7
574.260	1	5
574.430	1	3
574.599	1	7
574.769	1	0
574.939	1	6
575.109	1	3
575.279	1	-6
575.449	1	10
575.619	1	10
575.789	1	4
575.959	1	0
576.128	1	0
576.298	1	0
576.468	1	0
576.638	1	-2
576.808	1	2
576.978	1	-5
577.148	1	5
577.318	1	10
577.487	1	6
577.657	1	11
577.827	1	2
577.997	1	4
578.167	1	3
578.337	1	4
578.507	1	-2
578.677	1	7
578.846	1	1
579.016	1	-6
579.186	1	-5
579.356	1	11
579.526	1	3
579.696	1	11
579.866	1	4
580.036	1	3
580.205	1	-6
580.375	1	0
580.545	1	4
580.715	1	5
580.885	1	4
581.055	1	5
581.225	1	-7
581.394	1	4
581.564	1	9
581.734	1	11
581.904	1	-5
582.074	1	0
582.244	1	-16
582.414	1	-10
582.583	1	4
582.753	1	3
582.923	1	-1
583.093	1	6
583.263	1	0
583.433	1	3
583.603	1	3
583.772	1	5
583.942	1	-7
584.112	1	6
584.282	1	-4
584.452	1	19
584.622	1	-12
584.791	1	3
584.961	1	-8
585.131	1	16
585.301	1	4
585.471	1	5
585.641	1	5
585.811	1	5
585.980	1	-7
586.150	1	1
586.320	1	0
586.490	1	-6
586.660	1	-7
586.830	1	-10
586.999	1	-3
587.169	1	2
587.339	1	-5
587.509	1	5
587.679	1	6
587.849	1	12
588.018	1	6
588.188	1	16
588.358	1	-7
588.528	1	7
588.698	1	8
588.867	1	-4
589.037	1	-2
589.207	1	-10
589.377	1	6
589.547	1	-4
589.717	1	-5
589.886	1	-1
590.056	1	-2
590.226	1	11
590.396	1	0
590.566	1	-5
590.735	1	3
590.905	1	2
591.075	1	12
591.245	1	-6
591.415	1	14
591.585	1	3
591.754	1	-5
591.924	1	5
592.094	1	4
592.264	1	-2
592.434	1	-3
592.603	1	-2
592.773	1	11
592.943	1	4
593.113	1	-8
593.283	1	-5
593.452	1	4
593.622	1	16
593.792	1	-6
593.962	1	3
594.132	1	-3
594.301	1	-6
594.471	1	6
594.641	1	7
594.811	1	-2
594.981	1	-10
595.150	1	-3
595.320	1	13
595.490	1	3
595.660	1	-4
595.829	1	-6
595.999	1	11
596.169	1	8
596.339	1	5
596.509	1	1
596.678	1	-3
596.848	1	2
597.018	1	4
597.188	1	-3
597.358	1	0
597.527	1	1
597.697	1	0
597.867	1	9
598.037	1	10
598.206	1	-4
598.376	1	6
598.546	1	9
598.716	1	3
598.885	1	11
599.055	1	-6
599.225	1	5
599.395	1	-11
599.565	1	9
599.734	1	-1
599.904	1	-2
600.074	1	7
600.244	1	6
600.413	1	6
600.583	1	-9
600.753	1	-4
600.923	1	7
601.092	1	-3
601.262	1	5
601.432	1	-5
601.602	1	3
601.771	1	7
601.941	1	0
602.111	1	2
602.281	1	11
602.451	1	6
602.620	1	1
602.790	1	-3
602.960	1	4
603.130	1	6
603.299	1	3
603.469	1	2
603.639	1	-11
603.809	1	2
603.978	1	7
604.148	1	5
604.318	1	0
604.487	1	9
604.657	1	-12
604.827	1	2
604.997	1	13
605.166	1	1
605.336	1	2
605.506	1	6
605.676	1	4
605.845	1	2
606.015	1	-6
606.185	1	6
606.355	1	8
606.524	1	7
606.694	1	-9
606.864	1	6
607.034	1	5
607.203	1	3
607.373	1	3
607.543	1	-4
607.712	1	7
607.882	1	9
608.052	1	-3
608.222	1	-10
608.391	1	2
608.561	1	0
608.731	1	4
608.901	1	14
609.070	1	0
609.240	1	-5
609.410	1	1
609.579	1	4
609.749	1	4
609.919	1	5
610.089	1	-1
610.258	1	4
610.428	1	8
610.598	1	4
610.767	1	9
610.937	1	9
611.107	1	2
611.277	1	1
611.446	1	13
611.616	1	-7
611.786	1	-4
611.955	1	-7
612.125	1	8
612.295	1	9
612.465	1	-11
612.634	1	-8
612.804	1	18
612.974	1	-1
613.143	1	10
613.313	1	7
613.483	1	5
613.652	1	-4
613.822	1	-3
613.992	1	-7
614.162	1	3
614.331	1	6
614.501	1	8
614.671	1	2
614.840	1	0
615.010	1	2
615.180	1	8
615.349	1	0
615.519	1	-1
615.689	1	1
615.858	1	1
616.028	1	5
616.198	1	10
616.368	1	3
616.537	1	10
616.707	1	15
616.877	1	5
617.046	1	13
617.216	1	10
617.386	1	-4
617.555	1	-1
617.725	1	2
617.895	1	3
618.064	1	0
618.234	1	1
618.404	1	-2
618.573	1	6
618.743	1	5
618.913	1	4
619.082	1	6
619.252	1	-8
619.422	1	3
619.591	1	-3
619.761	1	12
619.931	1	-7
620.100	1	6
620.270	1	4
620.440	1	9
620.609	1	-9
620.779	1	1
620.949	1	-1
621.118	1	2
621.288	1	-2
621.458	1	9
621.627	1	4
621.797	1	1
621.967	1	4
622.136	1	6
622.306	1	3
622.476	1	9
622.645	1	9
622.815	1	2
622.985	1	12
623.154	1	1
623.324	1	-2
623.494	1	3
623.663	1	-1
623.833	1	8
624.002	1	6
624.172	1	-5
624.342	1	-3
624.511	1	2
624.681	1	3
624.851	1	-1
625.020	1	0
625.190	1	-4
625.360	1	6
625.529	1	-5
625.699	1	3
625.869	1	1
626.038	1	4
626.208	1	-4
626.377	1	7
626.547	1	9
626.717	1	-2
626.886	1	10
627.056	1	6
627.226	1	-5
627.395	1	1
627.565	1	3
627.735	1	10
627.904	1	-8
628.074	1	9
628.243	1	2
628.413	1	2
628.583	1	-9
628.752	1	2
628.922	1	-1
629.091	1	-1
629.261	1	-5
629.431	1	12
629.600	1	11
629.770	1	1
629.940	1	5
630.109	1	-2
630.279	1	11
630.448	1	-5
630.618	1	1
630.788	1	-4
630.957	1	-3
631.127	1	4
631.297	1	0
631.466	1	8
631.636	1	9
631.805	1	0
631.975	1	8
632.145	1	-6
632.314	1	2
632.484	1	-4
632.653	1	4
632.823	1	0
632.993	1	6
633.162	1	2
633.332	1	0
633.501	1	10
633.671	1	-1
633.841	1	6
634.010	1	5
634.180	1	11
634.349	1	1
634.519	1	7
634.689	1	15
634.858	1	8
635.028	1	17
635.197	1	3
635.367	1	1
635.537	1	-11
635.706	1	-4
635.876	1	4
636.045	1	9
636.215	1	3
636.384	1	8
636.554	1	10
636.724	1	14
636.893	1	3
637.063	1	2
637.232	1	-3
637.402	1	-7
637.572	1	2
637.741	1	0
637.911	1	1
638.080	1	8
638.250	1	4
638.419	1	2
638.589	1	7
638.759	1	0
638.928	1	-9
639.098	1	-7
639.267	1	7
639.437	1	13
639.606	1	8
639.776	1	6
639.946	1	5
640.115	1	5
640.285	1	-3
640.454	1	4
640.624	1	-9
640.793	1	-9
640.963	1	-2
641.132	1	12
641.302	1	3
641.472	1	2
641.641	1	0
641.811	1	-5
641.980	1	-6
642.150	1	-7
642.319	1	7
642.489	1	4
642.659	1	-4
642.828	1	-2
642.998	1	0
643.167	1	3
643.337	1	1
643.506	1	3
643.676	1	6
643.845	1	-9
644.015	1	13
644.184	1	3
644.354	1	-6
644.524	1	3
644.693	1	-3
644.863	1	3
645.032	1	2
645.202	1	5
645.371	1	7
645.541	1	3
645.710	1	16
645.880	1	5
646.049	1	-3
646.219	1	4
646.388	1	2
646.558	1	0
646.728	1	7
646.897	1	7
647.067	1	8
647.236	1	0
647.406	1	6
647.575	1	-7
647.745	1	-5
647.914	1	-4
648.084	1	1
648.253	1	0
648.423	1	11
648.592	1	-5
648.762	1	0
648.931	1	-3
649.101	1	-1
649.270	1	-3
649.440	1	5
649.610	1	10
649.779	1	2
649.949	1	2
650.118	1	10
650.288	1	4
650.457	1	-3
650.627	1	3
650.796	1	3
650.966	1	-1
651.135	1	9
651.305	1	-10
651.474	1	-2
651.644	1	-4
651.813	1	8
651.983	1	-19
652.152	1	14
652.322	1	-3
652.491	1	2
652.661	1	-1
652.830	1	9
653.000	1	-1
653.169	1	-4
653.339	1	1
653.508	1	5
653.678	1	-1
653.847	1	-1
654.017	1	-2
654.186	1	-8
654.356	1	2
654.525	1	-3
654.695	1	4
654.864	1	0
655.034	1	2
655.203	1	12
655.373	1	4
655.542	1	-8
655.712	1	-7
655.881	1	2
656.051	1	8
656.220	1	-2
656.390	1	7
656.559	1	-2
656.729	1	2
656.898	1	2
657.068	1	-1
657.237	1	8
657.406	1	2
657.576	1	-1
657.745	1	-2
657.915	1	0
658.084	1	6
658.254	1	5
658.423	1	2
658.593	1	4
658.762	1	18
658.932	1	15
659.101	1	4
659.271	1	1
659.440	1	-12
659.610	1	6
659.779	1	0
659.949	1	3
660.118	1	-6
660.288	1	0
660.457	1	6
660.626	1	-1
660.796	1	11
660.965	1	0
661.135	1	9
661.304	1	1
661.474	1	1
661.643	1	8
661.813	1	0
661.982	1	-4
662.152	1	5
662.321	1	-3
662.491	1	13
662.660	1	9
662.829	1	5
662.999	1	-2
663.168	1	-7
663.338	1	-1
663.507	1	8
663.677	1	3
663.846	1	-1
664.016	1	2
664.185	1	3
664.354	1	5
664.524	1	-1
664.693	1	7
664.863	1	-7
665.032	1	8
665.202	1	-3
665.371	1	-2
665.541	1	-12
665.710	1	3
665.879	1	8
666.049	1	-2
666.218	1	7
666.388	1	8
666.557	1	6
666.727	1	-7
666.896	1	0
667.065	1	12
667.235	1	-1
667.404	1	1
667.574	1	14
667.743	1	-3
667.913	1	11
668.082	1	-2
668.251	1	4
668.421	1	-4
668.590	1	1
668.760	1	8
668.929	1	13
669.099	1	-7
669.268	1	-1
669.437	1	-8
669.607	1	-6
669.776	1	-9
669.946	1	7
670.115	1	13
670.285	1	9
670.454	1	-2
670.623	1	11
670.793	1	-2
670.962	1	-2
671.132	1	9
671.301	1	2
671.470	1	4
671.640	1	-16
671.809	1	-2
671.979	1	-2
672.148	1	6
672.317	1	-4
672.487	1	-9
672.656	1	-7
672.826	1	-1
672.995	1	2
673.164	1	9
673.334	1	-6
673.503	1	-2
673.673	1	7
673.842	1	-1
674.011	1	-3
674.181	1	8
674.350	1	-3
674.520	1	5
674.689	1	4
674.858	1	1
675.028	1	6
675.197	1	0
675.367	1	-4
675.536	1	9
675.705	1	9
675.875	1	2
676.044	1	12
676.214	1	8
676.383	1	2
676.552	1	3
676.722	1	-4
676.891	1	2
677.060	1	2
677.230	1	9
677.399	1	3
677.569	1	1
677.738	1	-5
677.907	1	1
678.077	1	-3
678.246	1	3
678.416	1	3
678.585	1	7
678.754	1	4
678.924	1	-1
679.093	1	-3
679.262	1	1
679.432	1	5
679.601	1	4
679.771	1	2
679.940	1	-6
680.109	1	5
680.279	1	3
680.448	1	7
680.617	1	-7
680.787	1	13
680.956	1	0
681.125	1	9
681.295	1	-2
681.464	1	0
681.634	1	4
681.803	1	-8
681.972	1	1
682.142	1	-2
682.311	1	-1
682.480	1	6
682.650	1	-2
682.819	1	-3
682.988	1	0
683.158	1	0
683.327	1	6
683.496	1	-4
683.666	1	-6
683.835	1	-1
684.004	1	2
684.174	1	1
684.343	1	9
684.512	1	15
684.682	1	-3
684.851	1	-8
685.021	1	3
685.190	1	-1
685.359	1	-2
685.529	1	-7
685.698	1	0
685.867	1	-2
686.037	1	6
686.206	1	5
686.375	1	5
686.545	1	-4
686.714	1	-9
686.883	1	-4
687.053	1	-3
687.222	1	3
687.391	1	6
687.561	1	13
687.730	1	4
687.899	1	2
688.069	1	6
688.238	1	9
688.407	1	1
688.577	1	-1
688.746	1	-1
