340.368	1	0
340.539	1	12
340.710	1	9
340.881	1	7
341.052	1	-8
341.223	1	-6
341.394	1	6
341.565	1	-4
341.737	1	8
341.908	1	6
342.079	1	5
342.250	1	12
342.421	1	10
342.592	1	4
342.763	1	-3
342.934	1	1
343.105	1	-7
343.276	1	4
343.447	1	4
343.618	1	6
343.789	1	2
343.960	1	-9
344.131	1	9
344.302	1	15
344.473	1	0
344.644	1	12
344.815	1	5
344.986	1	16
345.157	1	-6
345.328	1	12
345.499	1	3
345.670	1	-1
345.841	1	-1
346.012	1	-2
346.183	1	11
346.354	1	4
346.526	1	1
346.697	1	6
346.868	1	6
347.039	1	-1
347.210	1	0
347.381	1	13
347.552	1	-2
347.723	1	15
347.894	1	9
348.065	1	14
348.236	1	-6
348.407	1	4
348.578	1	3
348.749	1	4
348.920	1	6
349.091	1	1
349.262	1	17
349.433	1	8
349.604	1	7
349.775	1	2
349.946	1	13
350.117	1	16
350.288	1	-4
350.459	1	-1
350.630	1	6
350.801	1	10
350.972	1	8
351.143	1	-2
351.314	1	11
351.485	1	19
351.656	1	13
351.827	1	1
351.998	1	11
352.169	1	5
352.340	1	17
352.511	1	11
352.682	1	9
352.853	1	13
353.024	1	4
353.195	1	4
353.366	1	14
353.537	1	-1
353.708	1	4
353.879	1	11
354.050	1	14
354.221	1	12
354.392	1	15
354.563	1	10
354.734	1	-3
354.905	1	15
355.076	1	2
355.247	1	15
355.418	1	19
355.589	1	9
355.760	1	0
355.931	1	14
356.102	1	1
356.273	1	12
356.444	1	3
356.615	1	5
356.785	1	15
356.956	1	17
357.127	1	14
357.298	1	4
357.469	1	-1
357.640	1	11
357.811	1	11
357.982	1	16
358.153	1	14
358.324	1	21
358.495	1	20
358.666	1	12
358.837	1	10
359.008	1	19
359.179	1	18
359.350	1	11
359.521	1	9
359.692	1	19
359.863	1	10
360.034	1	28
360.205	1	14
360.376	1	22
360.547	1	17
360.718	1	24
360.889	1	17
361.060	1	25
361.231	1	19
361.401	1	22
361.572	1	29
361.743	1	31
361.914	1	29
362.085	1	26
362.256	1	30
362.427	1	32
362.598	1	27
362.769	1	29
362.940	1	29
363.111	1	49
363.282	1	33
363.453	1	41
363.624	1	43
363.795	1	33
363.966	1	46
364.137	1	47
364.308	1	45
364.478	1	50
364.649	1	53
364.820	1	54
364.991	1	47
365.162	1	52
365.333	1	47
365.504	1	64
365.675	1	54
365.846	1	59
366.017	1	63
366.188	1	54
366.359	1	76
366.530	1	66
366.701	1	74
366.871	1	72
367.042	1	83
367.213	1	79
367.384	1	89
367.555	1	80
367.726	1	75
367.897	1	75
368.068	1	73
368.239	1	83
368.410	1	72
368.581	1	84
368.752	1	77
368.923	1	86
369.093	1	72
369.264	1	61
369.435	1	74
369.606	1	75
369.777	1	69
369.948	1	71
370.119	1	79
370.290	1	67
370.461	1	61
370.632	1	59
370.803	1	64
370.973	1	52
371.144	1	59
371.315	1	56
371.486	1	53
371.657	1	56
371.828	1	62
371.999	1	52
372.170	1	44
372.341	1	56
372.512	1	49
372.682	1	45
372.853	1	38
373.024	1	41
373.195	1	47
373.366	1	42
373.537	1	45
373.708	1	46
373.879	1	49
374.050	1	46
374.220	1	42
374.391	1	35
374.562	1	34
374.733	1	35
374.904	1	46
375.075	1	56
375.246	1	43
375.417	1	29
375.588	1	31
375.758	1	26
375.929	1	26
376.100	1	28
376.271	1	36
376.442	1	36
376.613	1	26
376.784	1	38
376.955	1	30
377.125	1	38
377.296	1	33
377.467	1	36
377.638	1	21
377.809	1	21
377.980	1	10
378.151	1	33
378.321	1	27
378.492	1	32
378.663	1	36
378.834	1	17
379.005	1	29
379.176	1	31
379.347	1	21
379.518	1	31
379.688	1	24
379.859	1	20
380.030	1	23
380.201	1	37
380.372	1	24
380.543	1	20
380.714	1	35
380.884	1	26
381.055	1	25
381.226	1	16
381.397	1	21
381.568	1	13
381.739	1	21
381.910	1	18
382.080	1	7
382.251	1	22
382.422	1	31
382.593	1	19
382.764	1	18
382.935	1	24
383.105	1	22
383.276	1	18
383.447	1	19
383.618	1	17
383.789	1	30
383.960	1	14
384.130	1	20
384.301	1	16
384.472	1	22
384.643	1	24
384.814	1	18
384.985	1	25
385.156	1	22
385.326	1	9
385.497	1	13
385.668	1	23
385.839	1	26
386.010	1	6
386.180	1	21
386.351	1	5
386.522	1	13
386.693	1	11
386.864	1	17
387.035	1	32
387.205	1	12
387.376	1	18
387.547	1	17
387.718	1	20
387.889	1	13
388.060	1	20
388.230	1	8
388.401	1	13
388.572	1	21
388.743	1	26
388.914	1	22
389.084	1	24
389.255	1	21
389.426	1	18
389.597	1	3
389.768	1	3
389.939	1	18
390.109	1	15
390.280	1	21
390.451	1	17
390.622	1	21
390.793	1	19
390.963	1	29
391.134	1	15
391.305	1	8
391.476	1	9
391.647	1	10
391.817	1	18
391.988	1	23
392.159	1	11
392.330	1	9
392.501	1	22
392.671	1	14
392.842	1	28
393.013	1	19
393.184	1	15
393.355	1	9
393.525	1	13
393.696	1	10
393.867	1	16
394.038	1	23
394.208	1	8
394.379	1	16
394.550	1	19
394.721	1	20
394.892	1	12
395.062	1	9
395.233	1	10
395.404	1	8
395.575	1	13
395.746	1	19
395.916	1	19
396.087	1	21
396.258	1	15
396.429	1	26
396.599	1	15
396.770	1	14
396.941	1	7
397.112	1	14
397.283	1	7
397.453	1	15
397.624	1	10
397.795	1	12
397.966	1	12
398.136	1	15
398.307	1	15
398.478	1	11
398.649	1	10
398.819	1	0
398.990	1	15
399.161	1	17
399.332	1	8
399.503	1	26
399.673	1	14
399.844	1	12
400.015	1	14
400.186	1	7
400.356	1	20
400.527	1	17
400.698	1	15
400.869	1	19
401.039	1	18
401.210	1	10
401.381	1	12
401.552	1	15
401.722	1	17
401.893	1	5
402.064	1	-6
402.235	1	17
402.405	1	20
402.576	1	11
402.747	1	15
402.918	1	19
403.088	1	18
403.259	1	6
403.430	1	13
403.601	1	16
403.771	1	13
403.942	1	3
404.113	1	11
404.284	1	12
404.454	1	20
404.625	1	12
404.796	1	9
404.967	1	6
405.137	1	20
405.308	1	10
405.479	1	4
405.649	1	-4
405.820	1	15
405.991	1	11
406.162	1	10
406.332	1	11
406.503	1	8
406.674	1	14
406.845	1	0
407.015	1	13
407.186	1	13
407.357	1	5
407.527	1	12
407.698	1	8
407.869	1	8
408.040	1	14
408.210	1	17
408.381	1	21
408.552	1	1
408.722	1	8
408.893	1	14
409.064	1	25
409.235	1	7
409.405	1	14
409.576	1	6
409.747	1	4
409.917	1	4
410.088	1	17
410.259	1	18
410.430	1	16
410.600	1	18
410.771	1	-2
410.942	1	13
411.112	1	6
411.283	1	7
411.454	1	2
411.625	1	13
411.795	1	16
411.966	1	12
412.137	1	8
412.307	1	9
412.478	1	0
412.649	1	19
412.819	1	14
412.990	1	11
413.161	1	17
413.332	1	6
413.502	1	14
413.673	1	11
413.844	1	9
414.014	1	13
414.185	1	20
414.356	1	6
414.526	1	12
414.697	1	1
414.868	1	8
415.038	1	9
415.209	1	10
415.380	1	16
415.550	1	10
415.721	1	10
415.892	1	11
416.063	1	3
416.233	1	15
416.404	1	9
416.575	1	7
416.745	1	12
416.916	1	-6
417.087	1	7
417.257	1	10
417.428	1	3
417.599	1	8
417.769	1	12
417.940	1	13
418.111	1	8
418.281	1	11
418.452	1	7
418.623	1	1
418.793	1	5
418.964	1	6
419.135	1	15
419.305	1	7
419.476	1	10
419.647	1	22
419.817	1	6
419.988	1	19
420.159	1	18
420.329	1	16
420.500	1	10
420.671	1	1
420.841	1	7
421.012	1	8
421.183	1	11
421.353	1	7
421.524	1	6
421.695	1	10
421.865	1	17
422.036	1	5
422.206	1	7
422.377	1	11
422.548	1	15
422.718	1	6
422.889	1	5
423.060	1	14
423.230	1	-1
423.401	1	10
423.572	1	-2
423.742	1	6
423.913	1	7
424.084	1	11
424.254	1	17
424.425	1	17
424.595	1	11
424.766	1	5
424.937	1	12
425.107	1	6
425.278	1	0
425.449	1	12
425.619	1	16
425.790	1	14
425.961	1	12
426.131	1	20
426.302	1	11
426.472	1	5
426.643	1	10
426.814	1	9
426.984	1	11
427.155	1	4
427.326	1	2
427.496	1	11
427.667	1	7
427.837	1	6
428.008	1	17
428.179	1	6
428.349	1	5
428.520	1	10
428.691	1	7
428.861	1	4
429.032	1	5
429.202	1	5
429.373	1	13
429.544	1	17
429.714	1	10
429.885	1	10
430.055	1	10
430.226	1	-1
430.397	1	2
430.567	1	11
430.738	1	-4
430.909	1	13
431.079	1	26
431.250	1	19
431.420	1	6
431.591	1	0
431.762	1	12
431.932	1	6
432.103	1	3
432.273	1	13
432.444	1	8
432.615	1	18
432.785	1	8
432.956	1	5
433.126	1	13
433.297	1	17
433.468	1	9
433.638	1	8
433.809	1	14
433.979	1	7
434.150	1	6
434.320	1	8
434.491	1	17
434.662	1	6
434.832	1	12
435.003	1	10
435.173	1	3
435.344	1	16
435.515	1	11
435.685	1	0
435.856	1	-2
436.026	1	10
436.197	1	8
436.368	1	11
436.538	1	8
436.709	1	3
436.879	1	5
437.050	1	12
437.220	1	9
437.391	1	15
437.562	1	12
437.732	1	13
437.903	1	16
438.073	1	17
438.244	1	12
438.414	1	-1
438.585	1	15
438.756	1	8
438.926	1	18
439.097	1	7
439.267	1	7
439.438	1	19
439.608	1	10
439.779	1	19
439.949	1	10
440.120	1	4
440.291	1	12
440.461	1	23
440.632	1	7
440.802	1	-2
440.973	1	16
441.143	1	-3
441.314	1	5
441.485	1	10
441.655	1	21
441.826	1	7
441.996	1	12
442.167	1	16
442.337	1	8
442.508	1	6
442.678	1	0
442.849	1	14
443.019	1	19
443.190	1	7
443.361	1	2
443.531	1	-1
443.702	1	13
443.872	1	17
444.043	1	1
444.213	1	-1
444.384	1	6
444.554	1	5
444.725	1	12
444.895	1	5
445.066	1	2
445.237	1	1
445.407	1	5
445.578	1	-7
445.748	1	16
445.919	1	-1
446.089	1	7
446.260	1	-2
446.430	1	12
446.601	1	11
446.771	1	13
446.942	1	1
447.112	1	9
447.283	1	6
447.453	1	8
447.624	1	15
447.794	1	13
447.965	1	6
448.135	1	10
448.306	1	14
448.477	1	14
448.647	1	17
448.818	1	-1
448.988	1	10
449.159	1	-5
449.329	1	3
449.500	1	-4
449.670	1	3
449.841	1	-8
450.011	1	8
450.182	1	17
450.352	1	14
450.523	1	11
450.693	1	8
450.864	1	6
451.034	1	0
451.205	1	1
451.375	1	15
451.546	1	10
451.716	1	-1
451.887	1	5
452.057	1	17
452.228	1	4
452.398	1	2
452.569	1	9
452.739	1	8
452.910	1	2
453.080	1	8
453.251	1	15
453.421	1	9
453.592	1	-1
453.762	1	5
453.933	1	1
454.103	1	2
454.274	1	-4
454.444	1	0
454.615	1	8
454.785	1	18
454.956	1	2
455.126	1	-6
455.297	1	9
455.467	1	5
455.638	1	17
455.808	1	9
455.979	1	10
456.149	1	0
456.320	1	7
456.490	1	8
456.661	1	10
456.831	1	4
457.001	1	7
457.172	1	17
457.342	1	-2
457.513	1	-3
457.683	1	-3
457.854	1	10
458.024	1	18
458.195	1	-6
458.365	1	16
458.536	1	8
458.706	1	0
458.877	1	14
459.047	1	2
459.218	1	14
459.388	1	2
459.559	1	3
459.729	1	7
459.899	1	12
460.070	1	9
460.240	1	15
460.411	1	13
460.581	1	-4
460.752	1	11
460.922	1	5
461.093	1	5
461.263	1	9
461.434	1	13
461.604	1	-4
461.775	1	6
461.945	1	10
462.115	1	3
462.286	1	13
462.456	1	2
462.627	1	-2
462.797	1	5
462.968	1	2
463.138	1	4
463.309	1	9
463.479	1	18
463.649	1	-1
463.820	1	-5
463.990	1	0
464.161	1	3
464.331	1	13
464.502	1	11
464.672	1	8
464.843	1	8
465.013	1	-6
465.183	1	8
465.354	1	0
465.524	1	5
465.695	1	11
465.865	1	-1
466.036	1	5
466.206	1	-2
466.376	1	9
466.547	1	0
466.717	1	13
466.888	1	-2
467.058	1	14
467.229	1	3
467.399	1	6
467.569	1	10
467.740	1	17
467.910	1	0
468.081	1	12
468.251	1	14
468.422	1	15
468.592	1	2
468.762	1	-4
468.933	1	17
469.103	1	8
469.274	1	17
469.444	1	11
469.614	1	13
469.785	1	7
469.955	1	5
470.126	1	-5
470.296	1	-1
470.467	1	6
470.637	1	3
470.807	1	9
470.978	1	5
471.148	1	3
471.319	1	0
471.489	1	1
471.659	1	2
471.830	1	6
472.000	1	18
472.171	1	5
472.341	1	-3
472.511	1	8
472.682	1	8
472.852	1	14
473.023	1	-2
473.193	1	6
473.363	1	16
473.534	1	3
473.704	1	-1
473.875	1	10
474.045	1	2
474.215	1	8
474.386	1	5
474.556	1	10
474.727	1	8
474.897	1	-6
475.067	1	12
475.238	1	9
475.408	1	14
475.578	1	-3
475.749	1	7
475.919	1	-3
476.090	1	8
476.260	1	6
476.430	1	17
476.601	1	7
476.771	1	-2
476.942	1	8
477.112	1	3
477.282	1	11
477.453	1	7
477.623	1	3
477.793	1	-3
477.964	1	2
478.134	1	12
478.305	1	19
478.475	1	-3
478.645	1	9
478.816	1	1
478.986	1	6
479.156	1	-8
479.327	1	7
479.497	1	15
479.667	1	24
479.838	1	6
480.008	1	9
480.179	1	9
480.349	1	2
480.519	1	3
480.690	1	11
480.860	1	8
481.030	1	6
481.201	1	18
481.371	1	16
481.541	1	4
481.712	1	16
481.882	1	6
482.053	1	7
482.223	1	4
482.393	1	12
482.564	1	2
482.734	1	11
482.904	1	10
483.075	1	19
483.245	1	1
483.415	1	-2
483.586	1	10
483.756	1	0
483.926	1	3
484.097	1	14
484.267	1	16
484.437	1	6
484.608	1	16
484.778	1	15
484.948	1	13
485.119	1	15
485.289	1	-1
485.459	1	-4
485.630	1	3
485.800	1	18
485.970	1	-1
486.141	1	10
486.311	1	19
486.481	1	8
486.652	1	10
486.822	1	2
486.992	1	9
487.163	1	10
487.333	1	9
487.503	1	-2
487.674	1	8
487.844	1	10
488.014	1	16
488.185	1	13
488.355	1	20
488.525	1	7
488.696	1	12
488.866	1	9
489.036	1	11
489.207	1	9
489.377	1	9
489.547	1	9
489.718	1	13
489.888	1	12
490.058	1	9
490.228	1	14
490.399	1	10
490.569	1	11
490.739	1	7
490.910	1	-1
491.080	1	8
491.250	1	13
491.421	1	14
491.591	1	3
491.761	1	6
491.932	1	8
492.102	1	18
492.272	1	0
492.442	1	11
492.613	1	8
492.783	1	0
492.953	1	6
493.124	1	6
493.294	1	13
493.464	1	10
493.635	1	13
493.805	1	14
493.975	1	21
494.145	1	3
494.316	1	16
494.486	1	22
494.656	1	2
494.827	1	11
494.997	1	9
495.167	1	21
495.337	1	7
495.508	1	9
495.678	1	8
495.848	1	15
496.019	1	3
496.189	1	19
496.359	1	17
496.529	1	23
496.700	1	13
496.870	1	9
497.040	1	22
497.211	1	13
497.381	1	10
497.551	1	26
497.721	1	14
497.892	1	12
498.062	1	0
498.232	1	13
498.403	1	15
498.573	1	19
498.743	1	18
498.913	1	21
499.084	1	27
499.254	1	14
499.424	1	7
499.594	1	16
499.765	1	9
499.935	1	10
500.105	1	16
500.275	1	12
500.446	1	8
500.616	1	16
500.786	1	19
500.956	1	10
501.127	1	14
501.297	1	12
501.467	1	15
501.638	1	12
501.808	1	22
501.978	1	15
502.148	1	18
502.319	1	12
502.489	1	13
502.659	1	14
502.829	1	19
503.000	1	18
503.170	1	12
503.340	1	15
503.510	1	13
503.681	1	16
503.851	1	16
504.021	1	9
504.191	1	16
504.362	1	14
504.532	1	24
504.702	1	24
504.872	1	18
505.042	1	17
505.213	1	16
505.383	1	20
505.553	1	16
505.723	1	30
505.894	1	11
506.064	1	24
506.234	1	14
506.404	1	21
506.575	1	17
506.745	1	19
506.915	1	14
507.085	1	24
507.256	1	30
507.426	1	20
507.596	1	17
507.766	1	27
507.936	1	6
508.107	1	27
508.277	1	20
508.447	1	30
508.617	1	28
508.788	1	16
508.958	1	25
509.128	1	31
509.298	1	17
509.468	1	17
509.639	1	28
509.809	1	17
509.979	1	16
510.149	1	13
510.319	1	33
510.490	1	28
510.660	1	19
510.830	1	31
511.000	1	19
511.171	1	30
511.341	1	12
511.511	1	16
511.681	1	17
511.851	1	29
512.022	1	25
512.192	1	13
512.362	1	18
512.532	1	23
512.702	1	23
512.873	1	17
513.043	1	18
513.213	1	21
513.383	1	27
513.553	1	28
513.724	1	13
513.894	1	9
514.064	1	19
514.234	1	32
514.404	1	25
514.575	1	17
514.745	1	28
514.915	1	11
515.085	1	25
515.255	1	28
515.425	1	24
515.596	1	20
515.766	1	32
515.936	1	30
516.106	1	18
516.276	1	29
516.447	1	19
516.617	1	25
516.787	1	26
516.957	1	18
517.127	1	34
517.297	1	14
517.468	1	28
517.638	1	29
517.808	1	24
517.978	1	23
518.148	1	26
518.319	1	20
518.489	1	27
518.659	1	23
518.829	1	25
518.999	1	28
519.169	1	12
519.340	1	18
519.510	1	32
519.680	1	24
519.850	1	44
520.020	1	24
520.190	1	27
520.361	1	26
520.531	1	29
520.701	1	25
520.871	1	19
521.041	1	37
521.211	1	26
521.382	1	30
521.552	1	33
521.722	1	22
521.892	1	40
522.062	1	37
522.232	1	23
522.402	1	23
522.573	1	25
522.743	1	42
522.913	1	30
523.083	1	36
523.253	1	37
523.423	1	31
523.593	1	37
523.764	1	26
523.934	1	29
524.104	1	30
524.274	1	24
524.444	1	36
524.614	1	31
524.784	1	36
524.955	1	31
525.125	1	22
525.295	1	27
525.465	1	41
525.635	1	24
525.805	1	29
525.975	1	41
526.146	1	34
526.316	1	20
526.486	1	23
526.656	1	28
526.826	1	33
526.996	1	28
527.166	1	37
527.337	1	42
527.507	1	36
527.677	1	21
527.847	1	29
528.017	1	30
528.187	1	21
528.357	1	28
528.527	1	31
528.698	1	20
528.868	1	15
529.038	1	26
529.208	1	21
529.378	1	30
529.548	1	27
529.718	1	27
529.888	1	37
530.058	1	34
530.229	1	31
530.399	1	37
530.569	1	30
530.739	1	28
530.909	1	33
531.079	1	33
531.249	1	35
531.419	1	44
531.589	1	36
531.760	1	26
531.930	1	31
532.100	1	35
532.270	1	36
532.440	1	34
532.610	1	28
532.780	1	30
532.950	1	39
533.120	1	41
533.290	1	44
533.461	1	28
533.631	1	31
533.801	1	45
533.971	1	33
534.141	1	35
534.311	1	38
534.481	1	31
534.651	1	30
534.821	1	40
534.991	1	28
535.162	1	40
535.332	1	31
535.502	1	30
535.672	1	36
535.842	1	31
536.012	1	37
536.182	1	33
536.352	1	32
536.522	1	29
536.692	1	34
536.862	1	33
537.032	1	28
537.203	1	26
537.373	1	32
537.543	1	43
537.713	1	37
537.883	1	28
538.053	1	21
538.223	1	43
538.393	1	41
538.563	1	35
538.733	1	27
538.903	1	32
539.073	1	31
539.243	1	30
539.413	1	25
539.584	1	28
539.754	1	29
539.924	1	23
540.094	1	32
540.264	1	25
540.434	1	19
540.604	1	28
540.774	1	32
540.944	1	32
541.114	1	5
541.284	1	25
541.454	1	30
541.624	1	31
541.794	1	30
541.964	1	28
542.134	1	20
542.305	1	29
542.475	1	27
542.645	1	10
542.815	1	37
542.985	1	32
543.155	1	22
543.325	1	24
543.495	1	29
543.665	1	31
543.835	1	27
544.005	1	30
544.175	1	18
544.345	1	18
544.515	1	17
544.685	1	35
544.855	1	13
545.025	1	22
545.195	1	25
545.365	1	29
545.535	1	32
545.705	1	16
545.875	1	34
546.045	1	22
546.216	1	26
546.386	1	17
546.556	1	12
546.726	1	20
546.896	1	22
547.066	1	31
547.236	1	4
547.406	1	11
547.576	1	32
547.746	1	16
547.916	1	13
548.086	1	17
548.256	1	21
548.426	1	21
548.596	1	25
548.766	1	30
548.936	1	28
549.106	1	15
549.276	1	30
549.446	1	14
549.616	1	24
549.786	1	30
549.956	1	13
550.126	1	23
550.296	1	40
550.466	1	26
550.636	1	18
550.806	1	27
550.976	1	20
551.146	1	29
551.316	1	23
551.486	1	28
551.656	1	25
551.826	1	18
551.996	1	33
552.166	1	19
552.336	1	24
552.506	1	34
552.676	1	23
552.846	1	13
553.016	1	29
553.186	1	22
553.356	1	25
553.526	1	28
553.696	1	9
553.866	1	20
554.036	1	28
554.206	1	19
554.376	1	37
554.546	1	30
554.716	1	16
554.886	1	22
555.056	1	33
555.226	1	26
555.396	1	6
555.566	1	22
555.736	1	11
555.906	1	15
556.076	1	19
556.246	1	28
556.416	1	34
556.586	1	15
556.756	1	26
556.926	1	15
557.096	1	16
557.266	1	16
557.436	1	23
557.606	1	16
557.776	1	12
557.946	1	19
558.116	1	21
558.286	1	20
558.456	1	15
558.626	1	7
558.796	1	31
558.966	1	14
559.136	1	16
559.306	1	15
559.476	1	25
559.646	1	20
559.816	1	25
559.986	1	11
560.155	1	17
560.325	1	5
560.495	1	13
560.665	1	17
560.835	1	25
561.005	1	14
561.175	1	24
561.345	1	24
561.515	1	15
561.685	1	23
561.855	1	21
562.025	1	14
562.195	1	7
562.365	1	11
562.535	1	17
562.705	1	33
562.875	1	15
563.045	1	15
563.215	1	21
563.385	1	17
563.555	1	26
563.725	1	14
563.895	1	18
564.064	1	20
564.234	1	14
564.404	1	17
564.574	1	30
564.744	1	11
564.914	1	12
565.084	1	20
565.254	1	11
565.424	1	10
565.594	1	14
565.764	1	18
565.934	1	10
566.104	1	12
566.274	1	20
566.444	1	21
566.614	1	9
566.783	1	14
566.953	1	16
567.123	1	7
567.293	1	19
567.463	1	12
567.633	1	8
567.803	1	26
567.973	1	17
568.143	1	20
568.313	1	14
568.483	1	9
568.653	1	13
568.823	1	6
568.993	1	13
569.162	1	16
569.332	1	18
569.502	1	17
569.672	1	6
569.842	1	16
570.012	1	10
570.182	1	16
570.352	1	13
570.522	1	4
570.692	1	20
570.862	1	34
571.031	1	18
571.201	1	18
571.371	1	13
571.541	1	17
571.711	1	17
571.881	1	7
572.051	1	22
572.221	1	26
572.391	1	27
572.561	1	11
572.731	1	25
572.900	1	16
573.070	1	20
573.240	1	0
573.410	1	3
573.580	1	13
573.750	1	12
573.920	1	20
574.090	1	0
574.260	1	14
574.430	1	17
574.599	1	14
574.769	1	13
574.939	1	21
575.109	1	8
575.279	1	3
575.449	1	20
575.619	1	12
575.789	1	14
575.959	1	18
576.128	1	5
576.298	1	13
576.468	1	8
576.638	1	4
576.808	1	12
576.978	1	14
577.148	1	17
577.318	1	12
577.487	1	8
577.657	1	26
577.827	1	7
577.997	1	17
578.167	1	12
578.337	1	9
578.507	1	5
578.677	1	26
578.846	1	8
579.016	1	15
579.186	1	9
579.356	1	19
579.526	1	16
579.696	1	6
579.866	1	14
580.036	1	7
580.205	1	1
580.375	1	2
580.545	1	4
580.715	1	18
580.885	1	18
581.055	1	10
581.225	1	5
581.394	1	14
581.564	1	6
581.734	1	6
581.904	1	12
582.074	1	5
582.244	1	-2
582.414	1	4
582.583	1	8
582.753	1	11
582.923	1	13
583.093	1	12
583.263	1	12
583.433	1	25
583.603	1	10
583.772	1	14
583.942	1	12
584.112	1	13
584.282	1	6
584.452	1	21
584.622	1	0
584.791	1	11
584.961	1	4
585.131	1	6
585.301	1	5
585.471	1	2
585.641	1	18
585.811	1	13
585.980	1	14
586.150	1	15
586.320	1	10
586.490	1	12
586.660	1	-6
586.830	1	-6
586.999	1	8
587.169	1	19
587.339	1	5
587.509	1	15
587.679	1	13
587.849	1	14
588.018	1	16
588.188	1	12
588.358	1	6
588.528	1	10
588.698	1	7
588.867	1	9
589.037	1	13
589.207	1	-4
589.377	1	5
589.547	1	2
589.717	1	5
589.886	1	5
590.056	1	4
590.226	1	17
590.396	1	13
590.566	1	0
590.735	1	-1
590.905	1	14
591.075	1	17
591.245	1	3
591.415	1	11
591.585	1	20
591.754	1	1
591.924	1	5
592.094	1	10
592.264	1	7
592.434	1	6
592.603	1	-2
592.773	1	17
592.943	1	6
593.113	1	3
593.283	1	3
593.452	1	20
593.622	1	11
593.792	1	-4
593.962	1	13
594.132	1	5
594.301	1	1
594.471	1	7
594.641	1	21
594.811	1	8
594.981	1	-3
595.150	1	-3
595.320	1	13
595.490	1	10
595.660	1	6
595.829	1	7
595.999	1	12
596.169	1	7
596.339	1	12
596.509	1	0
596.678	1	-9
596.848	1	11
597.018	1	7
597.188	1	13
597.358	1	-1
597.527	1	9
597.697	1	6
597.867	1	8
598.037	1	7
598.206	1	2
598.376	1	2
598.546	1	2
598.716	1	3
598.885	1	17
599.055	1	10
599.225	1	14
599.395	1	4
599.565	1	6
599.734	1	1
599.904	1	0
600.074	1	10
600.244	1	4
600.413	1	5
600.583	1	5
600.753	1	9
600.923	1	12
601.092	1	11
601.262	1	-1
601.432	1	-3
601.602	1	3
601.771	1	10
601.941	1	-4
602.111	1	4
602.281	1	17
602.451	1	-1
602.620	1	7
602.790	1	5
602.960	1	8
603.130	1	19
603.299	1	7
603.469	1	13
603.639	1	0
603.809	1	6
603.978	1	4
604.148	1	10
604.318	1	4
604.487	1	9
604.657	1	3
604.827	1	10
604.997	1	26
605.166	1	20
605.336	1	4
605.506	1	10
605.676	1	-2
605.845	1	0
606.015	1	1
606.185	1	4
606.355	1	18
606.524	1	8
606.694	1	-4
606.864	1	13
607.034	1	16
607.203	1	12
607.373	1	7
607.543	1	7
607.712	1	0
607.882	1	13
608.052	1	7
608.222	1	1
608.391	1	15
608.561	1	-3
608.731	1	7
608.901	1	15
609.070	1	12
609.240	1	3
609.410	1	8
609.579	1	8
609.749	1	9
609.919	1	8
610.089	1	8
610.258	1	-2
610.428	1	7
610.598	1	6
610.767	1	5
610.937	1	8
611.107	1	11
611.277	1	7
611.446	1	14
611.616	1	4
611.786	1	2
611.955	1	2
612.125	1	3
612.295	1	13
612.465	1	-7
612.634	1	-6
612.804	1	23
612.974	1	11
613.143	1	12
613.313	1	6
613.483	1	-1
613.652	1	-12
613.822	1	5
613.992	1	5
614.162	1	11
614.331	1	11
614.501	1	16
614.671	1	9
614.840	1	-3
615.010	1	5
615.180	1	9
615.349	1	7
615.519	1	-1
615.689	1	12
615.858	1	2
616.028	1	8
616.198	1	7
616.368	1	4
616.537	1	9
616.707	1	18
616.877	1	1
617.046	1	16
617.216	1	9
617.386	1	11
617.555	1	12
617.725	1	5
617.895	1	1
618.064	1	10
618.234	1	11
618.404	1	15
618.573	1	2
618.743	1	7
618.913	1	8
619.082	1	9
619.252	1	5
619.422	1	7
619.591	1	-2
619.761	1	12
619.931	1	6
620.100	1	-4
620.270	1	-2
620.440	1	13
620.609	1	1
620.779	1	1
620.949	1	-4
621.118	1	8
621.288	1	8
621.458	1	9
621.627	1	9
621.797	1	8
621.967	1	4
622.136	1	-5
622.306	1	8
622.476	1	8
622.645	1	17
622.815	1	-5
622.985	1	10
623.154	1	6
623.324	1	-4
623.494	1	7
623.663	1	-4
623.833	1	11
624.002	1	7
624.172	1	4
624.342	1	6
624.511	1	-1
624.681	1	0
624.851	1	10
625.020	1	10
625.190	1	1
625.360	1	6
625.529	1	2
625.699	1	-3
625.869	1	2
626.038	1	8
626.208	1	1
626.377	1	8
626.547	1	6
626.717	1	7
626.886	1	0
627.056	1	12
627.226	1	0
627.395	1	0
627.565	1	6
627.735	1	10
627.904	1	8
628.074	1	5
628.243	1	4
628.413	1	1
628.583	1	-5
628.752	1	11
628.922	1	-11
629.091	1	0
629.261	1	-10
629.431	1	12
629.600	1	2
629.770	1	13
629.940	1	8
630.109	1	14
630.279	1	3
630.448	1	2
630.618	1	-3
630.788	1	14
630.957	1	13
631.127	1	7
631.297	1	-1
631.466	1	15
631.636	1	5
631.805	1	3
631.975	1	11
632.145	1	0
632.314	1	6
632.484	1	-7
632.653	1	5
632.823	1	4
632.993	1	5
633.162	1	9
633.332	1	-1
633.501	1	19
633.671	1	2
633.841	1	10
634.010	1	-1
634.180	1	13
634.349	1	-2
634.519	1	10
634.689	1	13
634.858	1	6
635.028	1	4
635.197	1	1
635.367	1	4
635.537	1	0
635.706	1	6
635.876	1	8
636.045	1	19
636.215	1	6
636.384	1	9
636.554	1	7
636.724	1	13
636.893	1	9
637.063	1	9
637.232	1	6
637.402	1	1
637.572	1	-6
637.741	1	13
637.911	1	4
638.080	1	12
638.250	1	10
638.419	1	8
638.589	1	4
638.759	1	7
638.928	1	5
639.098	1	4
639.267	1	16
639.437	1	13
639.606	1	4
639.776	1	0
639.946	1	-1
640.115	1	2
640.285	1	9
640.454	1	8
640.624	1	-6
640.793	1	-7
640.963	1	7
641.132	1	12
641.302	1	16
641.472	1	-3
641.641	1	7
641.811	1	-10
641.980	1	5
642.150	1	-10
642.319	1	7
642.489	1	7
642.659	1	-1
642.828	1	13
642.998	1	19
643.167	1	-1
643.337	1	1
643.506	1	14
643.676	1	14
643.845	1	-1
644.015	1	8
644.184	1	3
644.354	1	-7
644.524	1	-2
644.693	1	5
644.863	1	1
645.032	1	12
645.202	1	9
645.371	1	8
645.541	1	4
645.710	1	22
645.880	1	2
646.049	1	-2
646.219	1	6
646.388	1	5
646.558	1	4
646.728	1	5
646.897	1	7
647.067	1	6
647.236	1	5
647.406	1	1
647.575	1	-10
647.745	1	0
647.914	1	-3
648.084	1	2
648.253	1	7
648.423	1	15
648.592	1	9
648.762	1	13
648.931	1	3
649.101	1	-6
649.270	1	-1
649.440	1	-1
649.610	1	0
649.779	1	7
649.949	1	3
650.118	1	14
650.288	1	13
650.457	1	0
650.627	1	1
650.796	1	-15
650.966	1	9
651.135	1	10
651.305	1	-1
651.474	1	-3
651.644	1	8
651.813	1	18
651.983	1	-7
652.152	1	7
652.322	1	2
652.491	1	7
652.661	1	6
652.830	1	8
653.000	1	8
653.169	1	0
653.339	1	8
653.508	1	5
653.678	1	-4
653.847	1	-4
654.017	1	-3
654.186	1	-3
654.356	1	0
654.525	1	1
654.695	1	4
654.864	1	10
655.034	1	8
655.203	1	5
655.373	1	-1
655.542	1	-7
655.712	1	1
655.881	1	10
656.051	1	13
656.220	1	2
656.390	1	-2
656.559	1	17
656.729	1	3
656.898	1	-2
657.068	1	-4
657.237	1	8
657.406	1	8
657.576	1	0
657.745	1	-2
657.915	1	6
658.084	1	8
658.254	1	10
658.423	1	3
658.593	1	-1
658.762	1	16
658.932	1	12
659.101	1	12
659.271	1	9
659.440	1	2
659.610	1	2
659.779	1	-3
659.949	1	-3
660.118	1	1
660.288	1	3
660.457	1	1
660.626	1	2
660.796	1	15
660.965	1	3
661.135	1	19
661.304	1	5
661.474	1	10
661.643	1	6
661.813	1	4
661.982	1	3
662.152	1	5
662.321	1	-13
662.491	1	17
662.660	1	10
662.829	1	4
662.999	1	-1
663.168	1	-5
663.338	1	-1
663.507	1	4
663.677	1	8
663.846	1	6
664.016	1	1
664.185	1	-4
664.354	1	9
664.524	1	8
664.693	1	16
664.863	1	-2
665.032	1	6
665.202	1	-1
665.371	1	3
665.541	1	-4
665.710	1	2
665.879	1	2
666.049	1	8
666.218	1	-1
666.388	1	9
666.557	1	1
666.727	1	-7
666.896	1	9
667.065	1	14
667.235	1	9
667.404	1	4
667.574	1	18
667.743	1	5
667.913	1	-1
668.082	1	6
668.251	1	8
668.421	1	-5
668.590	1	10
668.760	1	0
668.929	1	10
669.099	1	-7
669.268	1	6
669.437	1	0
669.607	1	-3
669.776	1	11
669.946	1	14
670.115	1	11
670.285	1	9
670.454	1	7
670.623	1	13
670.793	1	2
670.962	1	8
671.132	1	2
671.301	1	-2
671.470	1	7
671.640	1	0
671.809	1	-2
671.979	1	1
672.148	1	1
672.317	1	5
672.487	1	4
672.656	1	4
672.826	1	4
672.995	1	-2
673.164	1	9
673.334	1	0
673.503	1	-5
673.673	1	12
673.842	1	-2
674.011	1	10
674.181	1	11
674.350	1	5
674.520	1	3
674.689	1	14
674.858	1	-9
675.028	1	8
675.197	1	-1
675.367	1	2
675.536	1	11
675.705	1	17
675.875	1	2
676.044	1	1
676.214	1	15
676.383	1	2
676.552	1	1
676.722	1	0
676.891	1	4
677.060	1	12
677.230	1	15
677.399	1	7
677.569	1	6
677.738	1	-3
677.907	1	10
678.077	1	8
678.246	1	5
678.416	1	4
678.585	1	9
678.754	1	12
678.924	1	5
679.093	1	9
679.262	1	10
679.432	1	5
679.601	1	4
679.771	1	4
679.940	1	2
680.109	1	-1
680.279	1	2
680.448	1	4
680.617	1	-5
680.787	1	11
680.956	1	0
681.125	1	11
681.295	1	1
681.464	1	2
681.634	1	12
681.803	1	1
681.972	1	0
682.142	1	4
682.311	1	-1
682.480	1	25
682.650	1	4
682.819	1	5
682.988	1	-7
683.158	1	1
683.327	1	7
683.496	1	-6
683.666	1	5
683.835	1	-3
684.004	1	8
684.174	1	9
684.343	1	9
684.512	1	6
684.682	1	4
684.851	1	4
685.021	1	2
685.190	1	4
685.359	1	-3
685.529	1	5
685.698	1	3
685.867	1	10
686.037	1	13
686.206	1	11
686.375	1	-1
686.545	1	7
686.714	1	-8
686.883	1	3
687.053	1	6
687.222	1	4
687.391	1	2
687.561	1	20
687.730	1	-6
687.899	1	3
688.069	1	2
688.238	1	13
688.407	1	12
688.577	1	5
688.746	1	9
