340.368	1	1
340.539	1	1
340.710	1	15
340.881	1	0
341.052	1	7
341.223	1	5
341.394	1	12
341.565	1	5
341.737	1	2
341.908	1	2
342.079	1	-1
342.250	1	12
342.421	1	10
342.592	1	-1
342.763	1	5
342.934	1	7
343.105	1	9
343.276	1	1
343.447	1	4
343.618	1	2
343.789	1	1
343.960	1	-5
344.131	1	7
344.302	1	9
344.473	1	-3
344.644	1	1
344.815	1	-6
344.986	1	5
345.157	1	-9
345.328	1	4
345.499	1	2
345.670	1	2
345.841	1	-2
346.012	1	7
346.183	1	-7
346.354	1	5
346.526	1	0
346.697	1	7
346.868	1	5
347.039	1	-7
347.210	1	2
347.381	1	2
347.552	1	-1
347.723	1	9
347.894	1	4
348.065	1	-4
348.236	1	8
348.407	1	-3
348.578	1	2
348.749	1	5
348.920	1	-2
349.091	1	7
349.262	1	7
349.433	1	8
349.604	1	11
349.775	1	6
349.946	1	9
350.117	1	9
350.288	1	-10
350.459	1	-13
350.630	1	6
350.801	1	5
350.972	1	1
351.143	1	0
351.314	1	-3
351.485	1	16
351.656	1	7
351.827	1	6
351.998	1	4
352.169	1	-3
352.340	1	7
352.511	1	1
352.682	1	-3
352.853	1	10
353.024	1	9
353.195	1	5
353.366	1	9
353.537	1	5
353.708	1	-11
353.879	1	6
354.050	1	4
354.221	1	10
354.392	1	6
354.563	1	-2
354.734	1	-3
354.905	1	14
355.076	1	-1
355.247	1	3
355.418	1	-2
355.589	1	-1
355.760	1	4
355.931	1	11
356.102	1	3
356.273	1	22
356.444	1	-1
356.615	1	10
356.785	1	15
356.956	1	10
357.127	1	4
357.298	1	-2
357.469	1	1
357.640	1	-1
357.811	1	4
357.982	1	10
358.153	1	6
358.324	1	1
358.495	1	10
358.666	1	5
358.837	1	12
359.008	1	10
359.179	1	6
359.350	1	0
359.521	1	2
359.692	1	4
359.863	1	7
360.034	1	12
360.205	1	11
360.376	1	5
360.547	1	4
360.718	1	9
360.889	1	1
361.060	1	8
361.231	1	2
361.401	1	6
361.572	1	13
361.743	1	11
361.914	1	12
362.085	1	21
362.256	1	11
362.427	1	21
362.598	1	11
362.769	1	11
362.940	1	7
363.111	1	14
363.282	1	17
363.453	1	8
363.624	1	13
363.795	1	11
363.966	1	17
364.137	1	16
364.308	1	22
364.478	1	18
364.649	1	16
364.820	1	34
364.991	1	21
365.162	1	19
365.333	1	15
365.504	1	16
365.675	1	20
365.846	1	9
366.017	1	22
366.188	1	20
366.359	1	18
366.530	1	26
366.701	1	27
366.871	1	23
367.042	1	32
367.213	1	37
367.384	1	25
367.555	1	34
367.726	1	25
367.897	1	26
368.068	1	14
368.239	1	24
368.410	1	29
368.581	1	28
368.752	1	27
368.923	1	19
369.093	1	29
369.264	1	16
369.435	1	21
369.606	1	32
369.777	1	12
369.948	1	13
370.119	1	24
370.290	1	30
370.461	1	20
370.632	1	7
370.803	1	24
370.973	1	23
371.144	1	16
371.315	1	30
371.486	1	18
371.657	1	11
371.828	1	17
371.999	1	13
372.170	1	12
372.341	1	9
372.512	1	18
372.682	1	23
372.853	1	17
373.024	1	17
373.195	1	18
373.366	1	19
373.537	1	15
373.708	1	6
373.879	1	21
374.050	1	17
374.220	1	13
374.391	1	10
374.562	1	2
374.733	1	2
374.904	1	16
375.075	1	13
375.246	1	21
375.417	1	3
375.588	1	12
375.758	1	7
375.929	1	3
376.100	1	5
376.271	1	17
376.442	1	10
376.613	1	11
376.784	1	9
376.955	1	12
377.125	1	14
377.296	1	10
377.467	1	16
377.638	1	4
377.809	1	8
377.980	1	-3
378.151	1	9
378.321	1	8
378.492	1	18
378.663	1	11
378.834	1	8
379.005	1	23
379.176	1	9
379.347	1	7
379.518	1	15
379.688	1	-2
379.859	1	11
380.030	1	-1
380.201	1	10
380.372	1	16
380.543	1	7
380.714	1	24
380.884	1	3
381.055	1	4
381.226	1	14
381.397	1	11
381.568	1	6
381.739	1	7
381.910	1	18
382.080	1	7
382.251	1	6
382.422	1	22
382.593	1	9
382.764	1	1
382.935	1	11
383.105	1	9
383.276	1	-5
383.447	1	3
383.618	1	7
383.789	1	13
383.960	1	9
384.130	1	13
384.301	1	6
384.472	1	22
384.643	1	13
384.814	1	16
384.985	1	13
385.156	1	-1
385.326	1	8
385.497	1	-3
385.668	1	6
385.839	1	7
386.010	1	10
386.180	1	5
386.351	1	-3
386.522	1	3
386.693	1	3
386.864	1	13
387.035	1	21
387.205	1	5
387.376	1	9
387.547	1	10
387.718	1	-1
387.889	1	5
388.060	1	4
388.230	1	3
388.401	1	7
388.572	1	18
388.743	1	18
388.914	1	12
389.084	1	4
389.255	1	-1
389.426	1	13
389.597	1	3
389.768	1	7
389.939	1	9
390.109	1	11
390.280	1	6
390.451	1	9
390.622	1	5
390.793	1	7
390.963	1	7
391.134	1	12
391.305	1	17
391.476	1	4
391.647	1	10
391.817	1	11
391.988	1	11
392.159	1	-2
392.330	1	11
392.501	1	6
392.671	1	4
392.842	1	14
393.013	1	6
393.184	1	-1
393.355	1	4
393.525	1	8
393.696	1	4
393.867	1	15
394.038	1	4
394.208	1	2
394.379	1	10
394.550	1	9
394.721	1	11
394.892	1	10
395.062	1	1
395.233	1	2
395.404	1	-7
395.575	1	8
395.746	1	14
395.916	1	13
396.087	1	17
396.258	1	-1
396.429	1	3
396.599	1	8
396.770	1	14
396.941	1	8
397.112	1	8
397.283	1	3
397.453	1	12
397.624	1	-3
397.795	1	-3
397.966	1	9
398.136	1	15
398.307	1	19
398.478	1	5
398.649	1	9
398.819	1	-9
398.990	1	6
399.161	1	7
399.332	1	11
399.503	1	11
399.673	1	5
399.844	1	6
400.015	1	15
400.186	1	9
400.356	1	18
400.527	1	6
400.698	1	7
400.869	1	10
401.039	1	10
401.210	1	-9
401.381	1	3
401.552	1	18
401.722	1	7
401.893	1	-11
402.064	1	-1
402.235	1	8
402.405	1	16
402.576	1	7
402.747	1	14
402.918	1	21
403.088	1	5
403.259	1	-10
403.430	1	18
403.601	1	16
403.771	1	10
403.942	1	7
404.113	1	6
404.284	1	1
404.454	1	9
404.625	1	19
404.796	1	12
404.967	1	7
405.137	1	12
405.308	1	8
405.479	1	0
405.649	1	5
405.820	1	14
405.991	1	6
406.162	1	0
406.332	1	10
406.503	1	12
406.674	1	19
406.845	1	5
407.015	1	10
407.186	1	9
407.357	1	4
407.527	1	2
407.698	1	12
407.869	1	15
408.040	1	9
408.210	1	11
408.381	1	13
408.552	1	0
408.722	1	4
408.893	1	8
409.064	1	6
409.235	1	-1
409.405	1	16
409.576	1	10
409.747	1	5
409.917	1	8
410.088	1	8
410.259	1	6
410.430	1	11
410.600	1	3
410.771	1	-13
410.942	1	11
411.112	1	10
411.283	1	1
411.454	1	12
411.625	1	4
411.795	1	0
411.966	1	10
412.137	1	0
412.307	1	6
412.478	1	6
412.649	1	10
412.819	1	8
412.990	1	8
413.161	1	9
413.332	1	3
413.502	1	14
413.673	1	2
413.844	1	2
414.014	1	12
414.185	1	10
414.356	1	12
414.526	1	7
414.697	1	7
414.868	1	3
415.038	1	6
415.209	1	7
415.380	1	2
415.550	1	6
415.721	1	5
415.892	1	12
416.063	1	4
416.233	1	10
416.404	1	10
416.575	1	10
416.745	1	-2
416.916	1	10
417.087	1	8
417.257	1	10
417.428	1	8
417.599	1	4
417.769	1	10
417.940	1	4
418.111	1	13
418.281	1	0
418.452	1	1
418.623	1	15
418.793	1	-5
418.964	1	5
419.135	1	7
419.305	1	0
419.476	1	2
419.647	1	8
419.817	1	13
419.988	1	13
420.159	1	14
420.329	1	8
420.500	1	1
420.671	1	-3
420.841	1	3
421.012	1	12
421.183	1	11
421.353	1	1
421.524	1	-2
421.695	1	2
421.865	1	10
422.036	1	4
422.206	1	6
422.377	1	4
422.548	1	11
422.718	1	1
422.889	1	7
423.060	1	9
423.230	1	3
423.401	1	-2
423.572	1	0
423.742	1	8
423.913	1	5
424.084	1	5
424.254	1	11
424.425	1	13
424.595	1	3
424.766	1	10
424.937	1	10
425.107	1	7
425.278	1	3
425.449	1	5
425.619	1	14
425.790	1	10
425.961	1	11
426.131	1	17
426.302	1	7
426.472	1	12
426.643	1	8
426.814	1	15
426.984	1	8
427.155	1	0
427.326	1	8
427.496	1	5
427.667	1	9
427.837	1	3
428.008	1	5
428.179	1	2
428.349	1	7
428.520	1	8
428.691	1	6
428.861	1	-2
429.032	1	3
429.202	1	5
429.373	1	10
429.544	1	10
429.714	1	8
429.885	1	2
430.055	1	4
430.226	1	5
430.397	1	-6
430.567	1	2
430.738	1	6
430.909	1	9
431.079	1	23
431.250	1	8
431.420	1	13
431.591	1	-2
431.762	1	5
431.932	1	3
432.103	1	-5
432.273	1	13
432.444	1	10
432.615	1	13
432.785	1	6
432.956	1	1
433.126	1	5
433.297	1	14
433.468	1	1
433.638	1	3
433.809	1	13
433.979	1	3
434.150	1	7
434.320	1	4
434.491	1	-3
434.662	1	5
434.832	1	-3
435.003	1	12
435.173	1	13
435.344	1	10
435.515	1	7
435.685	1	-2
435.856	1	0
436.026	1	8
436.197	1	1
436.368	1	1
436.538	1	1
436.709	1	9
436.879	1	7
437.050	1	5
437.220	1	-2
437.391	1	17
437.562	1	6
437.732	1	5
437.903	1	5
438.073	1	18
438.244	1	9
438.414	1	3
438.585	1	10
438.756	1	11
438.926	1	2
439.097	1	9
439.267	1	10
439.438	1	15
439.608	1	14
439.779	1	9
439.949	1	17
440.120	1	6
440.291	1	12
440.461	1	17
440.632	1	2
440.802	1	-6
440.973	1	15
441.143	1	3
441.314	1	8
441.485	1	-2
441.655	1	13
441.826	1	2
441.996	1	12
442.167	1	7
442.337	1	12
442.508	1	-9
442.678	1	1
442.849	1	12
443.019	1	5
443.190	1	12
443.361	1	8
443.531	1	6
443.702	1	4
443.872	1	5
444.043	1	3
444.213	1	-2
444.384	1	-1
444.554	1	9
444.725	1	12
444.895	1	-3
445.066	1	1
445.237	1	-4
445.407	1	1
445.578	1	-3
445.748	1	11
445.919	1	0
446.089	1	5
446.260	1	8
446.430	1	3
446.601	1	9
446.771	1	10
446.942	1	6
447.112	1	5
447.283	1	7
447.453	1	-4
447.624	1	2
447.794	1	27
447.965	1	-3
448.135	1	8
448.306	1	11
448.477	1	4
448.647	1	7
448.818	1	0
448.988	1	11
449.159	1	10
449.329	1	3
449.500	1	7
449.670	1	-2
449.841	1	-12
450.011	1	0
450.182	1	8
450.352	1	12
450.523	1	13
450.693	1	4
450.864	1	2
451.034	1	0
451.205	1	0
451.375	1	3
451.546	1	9
451.716	1	-1
451.887	1	-4
452.057	1	13
452.228	1	12
452.398	1	-3
452.569	1	13
452.739	1	6
452.910	1	-1
453.080	1	4
453.251	1	16
453.421	1	12
453.592	1	9
453.762	1	-3
453.933	1	1
454.103	1	-3
454.274	1	1
454.444	1	4
454.615	1	1
454.785	1	13
454.956	1	-2
455.126	1	2
455.297	1	15
455.467	1	-1
455.638	1	9
455.808	1	16
455.979	1	10
456.149	1	1
456.320	1	2
456.490	1	19
456.661	1	-4
456.831	1	5
457.001	1	4
457.172	1	0
457.342	1	-1
457.513	1	1
457.683	1	-4
457.854	1	5
458.024	1	12
458.195	1	-4
458.365	1	12
458.536	1	4
458.706	1	0
458.877	1	21
459.047	1	-2
459.218	1	1
459.388	1	3
459.559	1	5
459.729	1	3
459.899	1	-2
460.070	1	9
460.240	1	17
460.411	1	8
460.581	1	4
460.752	1	7
460.922	1	6
461.093	1	3
461.263	1	3
461.434	1	7
461.604	1	-10
461.775	1	5
461.945	1	6
462.115	1	-6
462.286	1	11
462.456	1	11
462.627	1	9
462.797	1	9
462.968	1	1
463.138	1	4
463.309	1	7
463.479	1	8
463.649	1	0
463.820	1	2
463.990	1	-1
464.161	1	-5
464.331	1	8
464.502	1	10
464.672	1	5
464.843	1	-4
465.013	1	-2
465.183	1	12
465.354	1	9
465.524	1	5
465.695	1	15
465.865	1	-11
466.036	1	7
466.206	1	6
466.376	1	10
466.547	1	2
466.717	1	12
466.888	1	-2
467.058	1	6
467.229	1	2
467.399	1	-3
467.569	1	5
467.740	1	11
467.910	1	-2
468.081	1	15
468.251	1	4
468.422	1	3
468.592	1	11
468.762	1	-7
468.933	1	7
469.103	1	3
469.274	1	14
469.444	1	0
469.614	1	7
469.785	1	9
469.955	1	0
470.126	1	-7
470.296	1	6
470.467	1	2
470.637	1	0
470.807	1	7
470.978	1	3
471.148	1	-1
471.319	1	2
471.489	1	0
471.659	1	-6
471.830	1	-1
472.000	1	5
472.171	1	2
472.341	1	-2
472.511	1	4
472.682	1	13
472.852	1	12
473.023	1	8
473.193	1	16
473.363	1	16
473.534	1	5
473.704	1	-8
473.875	1	12
474.045	1	1
474.215	1	9
474.386	1	2
474.556	1	8
474.727	1	15
474.897	1	-4
475.067	1	-1
475.238	1	18
475.408	1	10
475.578	1	-4
475.749	1	8
475.919	1	-14
476.090	1	5
476.260	1	4
476.430	1	8
476.601	1	4
476.771	1	-6
476.942	1	3
477.112	1	6
477.282	1	-1
477.453	1	5
477.623	1	-7
477.793	1	2
477.964	1	-4
478.134	1	14
478.305	1	15
478.475	1	10
478.645	1	2
478.816	1	5
478.986	1	-4
479.156	1	-11
479.327	1	-7
479.497	1	3
479.667	1	11
479.838	1	4
480.008	1	3
480.179	1	0
480.349	1	10
480.519	1	-16
480.690	1	6
480.860	1	16
481.030	1	-2
481.201	1	5
481.371	1	9
481.541	1	11
481.712	1	3
481.882	1	4
482.053	1	6
482.223	1	4
482.393	1	9
482.564	1	1
482.734	1	1
482.904	1	5
483.075	1	15
483.245	1	3
483.415	1	9
483.586	1	5
483.756	1	3
483.926	1	4
484.097	1	3
484.267	1	4
484.437	1	-1
484.608	1	12
484.778	1	14
484.948	1	-2
485.119	1	8
485.289	1	1
485.459	1	-9
485.630	1	-3
485.800	1	26
485.970	1	4
486.141	1	6
486.311	1	13
486.481	1	-3
486.652	1	7
486.822	1	7
486.992	1	8
487.163	1	3
487.333	1	2
487.503	1	-7
487.674	1	9
487.844	1	-2
488.014	1	9
488.185	1	-2
488.355	1	14
488.525	1	12
488.696	1	2
488.866	1	3
489.036	1	13
489.207	1	4
489.377	1	-9
489.547	1	1
489.718	1	5
489.888	1	9
490.058	1	7
490.228	1	6
490.399	1	-5
490.569	1	1
490.739	1	8
490.910	1	-7
491.080	1	7
491.250	1	8
491.421	1	9
491.591	1	-10
491.761	1	1
491.932	1	4
492.102	1	12
492.272	1	0
492.442	1	7
492.613	1	-6
492.783	1	-5
492.953	1	-2
493.124	1	4
493.294	1	14
493.464	1	1
493.635	1	9
493.805	1	-1
493.975	1	15
494.145	1	-1
494.316	1	2
494.486	1	10
494.656	1	6
494.827	1	13
494.997	1	1
495.167	1	10
495.337	1	0
495.508	1	3
495.678	1	-6
495.848	1	6
496.019	1	2
496.189	1	16
496.359	1	20
496.529	1	11
496.700	1	10
496.870	1	3
497.040	1	13
497.211	1	-6
497.381	1	1
497.551	1	14
497.721	1	7
497.892	1	-1
498.062	1	-6
498.232	1	5
498.403	1	-9
498.573	1	12
498.743	1	11
498.913	1	10
499.084	1	16
499.254	1	8
499.424	1	-1
499.594	1	6
499.765	1	1
499.935	1	6
500.105	1	8
500.275	1	16
500.446	1	5
500.616	1	3
500.786	1	9
500.956	1	2
501.127	1	7
501.297	1	-9
501.467	1	1
501.638	1	5
501.808	1	12
501.978	1	8
502.148	1	8
502.319	1	2
502.489	1	8
502.659	1	2
502.829	1	0
503.000	1	3
503.170	1	3
503.340	1	-2
503.510	1	13
503.681	1	7
503.851	1	12
504.021	1	3
504.191	1	4
504.362	1	13
504.532	1	6
504.702	1	4
504.872	1	-1
505.042	1	17
505.213	1	4
505.383	1	9
505.553	1	6
505.723	1	12
505.894	1	3
506.064	1	14
506.234	1	4
506.404	1	-6
506.575	1	2
506.745	1	5
506.915	1	6
507.085	1	5
507.256	1	13
507.426	1	5
507.596	1	9
507.766	1	15
507.936	1	-5
508.107	1	7
508.277	1	8
508.447	1	11
508.617	1	2
508.788	1	8
508.958	1	12
509.128	1	9
509.298	1	7
509.468	1	-6
509.639	1	10
509.809	1	9
509.979	1	5
510.149	1	2
510.319	1	17
510.490	1	6
510.660	1	-3
510.830	1	18
511.000	1	12
511.171	1	20
511.341	1	2
511.511	1	-8
511.681	1	15
511.851	1	13
512.022	1	10
512.192	1	0
512.362	1	2
512.532	1	7
512.702	1	16
512.873	1	2
513.043	1	7
513.213	1	7
513.383	1	13
513.553	1	15
513.724	1	7
513.894	1	0
514.064	1	2
514.234	1	17
514.404	1	8
514.575	1	9
514.745	1	-4
514.915	1	2
515.085	1	15
515.255	1	10
515.425	1	10
515.596	1	5
515.766	1	12
515.936	1	22
516.106	1	7
516.276	1	8
516.447	1	8
516.617	1	15
516.787	1	12
516.957	1	3
517.127	1	9
517.297	1	-2
517.468	1	12
517.638	1	11
517.808	1	8
517.978	1	-1
518.148	1	11
518.319	1	3
518.489	1	8
518.659	1	11
518.829	1	16
518.999	1	5
519.169	1	13
519.340	1	1
519.510	1	2
519.680	1	8
519.850	1	12
520.020	1	10
520.190	1	14
520.361	1	7
520.531	1	15
520.701	1	11
520.871	1	6
521.041	1	16
521.211	1	19
521.382	1	22
521.552	1	23
521.722	1	5
521.892	1	12
522.062	1	6
522.232	1	7
522.402	1	-3
522.573	1	0
522.743	1	17
522.913	1	12
523.083	1	10
523.253	1	12
523.423	1	13
523.593	1	8
523.764	1	8
523.934	1	2
524.104	1	11
524.274	1	0
524.444	1	-1
524.614	1	13
524.784	1	19
524.955	1	16
525.125	1	8
525.295	1	11
525.465	1	9
525.635	1	7
525.805	1	6
525.975	1	12
526.146	1	5
526.316	1	5
526.486	1	10
526.656	1	13
526.826	1	10
526.996	1	7
527.166	1	13
527.337	1	22
527.507	1	22
527.677	1	-2
527.847	1	11
528.017	1	7
528.187	1	18
528.357	1	20
528.527	1	13
528.698	1	11
528.868	1	6
529.038	1	7
529.208	1	2
529.378	1	11
529.548	1	-4
529.718	1	12
529.888	1	9
530.058	1	10
530.229	1	14
530.399	1	13
530.569	1	22
530.739	1	5
530.909	1	8
531.079	1	1
531.249	1	8
531.419	1	9
531.589	1	22
531.760	1	4
531.930	1	6
532.100	1	12
532.270	1	7
532.440	1	10
532.610	1	7
532.780	1	7
532.950	1	12
533.120	1	14
533.290	1	20
533.461	1	11
533.631	1	13
533.801	1	24
533.971	1	13
534.141	1	11
534.311	1	10
534.481	1	6
534.651	1	9
534.821	1	17
534.991	1	10
535.162	1	9
535.332	1	27
535.502	1	5
535.672	1	7
535.842	1	9
536.012	1	13
536.182	1	12
536.352	1	6
536.522	1	2
536.692	1	11
536.862	1	7
537.032	1	8
537.203	1	-8
537.373	1	15
537.543	1	13
537.713	1	12
537.883	1	2
538.053	1	0
538.223	1	10
538.393	1	11
538.563	1	14
538.733	1	4
538.903	1	19
539.073	1	8
539.243	1	8
539.413	1	10
539.584	1	4
539.754	1	-9
539.924	1	7
540.094	1	10
540.264	1	3
540.434	1	9
540.604	1	8
540.774	1	21
540.944	1	8
541.114	1	-3
541.284	1	10
541.454	1	10
541.624	1	22
541.794	1	3
541.964	1	5
542.134	1	11
542.305	1	4
542.475	1	3
542.645	1	3
542.815	1	9
542.985	1	13
543.155	1	4
543.325	1	11
543.495	1	8
543.665	1	18
543.835	1	14
544.005	1	11
544.175	1	8
544.345	1	6
544.515	1	13
544.685	1	10
544.855	1	9
545.025	1	15
545.195	1	15
545.365	1	15
545.535	1	16
545.705	1	7
545.875	1	12
546.045	1	5
546.216	1	15
546.386	1	11
546.556	1	1
546.726	1	4
546.896	1	15
547.066	1	13
547.236	1	3
547.406	1	-13
547.576	1	17
547.746	1	8
547.916	1	8
548.086	1	2
548.256	1	6
548.426	1	3
548.596	1	4
548.766	1	16
548.936	1	9
549.106	1	2
549.276	1	2
549.446	1	7
549.616	1	10
549.786	1	9
549.956	1	-5
550.126	1	10
550.296	1	3
550.466	1	11
550.636	1	3
550.806	1	12
550.976	1	-1
551.146	1	6
551.316	1	14
551.486	1	9
551.656	1	9
551.826	1	13
551.996	1	9
552.166	1	5
552.336	1	8
552.506	1	14
552.676	1	5
552.846	1	3
553.016	1	8
553.186	1	-2
553.356	1	12
553.526	1	10
553.696	1	10
553.866	1	-4
554.036	1	13
554.206	1	3
554.376	1	12
554.546	1	1
554.716	1	4
554.886	1	10
555.056	1	9
555.226	1	12
555.396	1	2
555.566	1	2
555.736	1	4
555.906	1	-1
556.076	1	7
556.246	1	12
556.416	1	10
556.586	1	6
556.756	1	7
556.926	1	12
557.096	1	5
557.266	1	8
557.436	1	12
557.606	1	6
557.776	1	8
557.946	1	0
558.116	1	-1
558.286	1	22
558.456	1	15
558.626	1	3
558.796	1	10
558.966	1	-1
559.136	1	7
559.306	1	3
559.476	1	11
559.646	1	11
559.816	1	8
559.986	1	4
560.155	1	3
560.325	1	0
560.495	1	5
560.665	1	12
560.835	1	15
561.005	1	7
561.175	1	17
561.345	1	11
561.515	1	9
561.685	1	1
561.855	1	-7
562.025	1	8
562.195	1	6
562.365	1	8
562.535	1	11
562.705	1	4
562.875	1	11
563.045	1	1
563.215	1	11
563.385	1	6
563.555	1	18
563.725	1	1
563.895	1	6
564.064	1	7
564.234	1	11
564.404	1	1
564.574	1	9
564.744	1	10
564.914	1	-4
565.084	1	5
565.254	1	-2
565.424	1	5
565.594	1	11
565.764	1	9
565.934	1	12
566.104	1	1
566.274	1	5
566.444	1	11
566.614	1	8
566.783	1	16
566.953	1	2
567.123	1	12
567.293	1	8
567.463	1	-1
567.633	1	2
567.803	1	16
567.973	1	6
568.143	1	9
568.313	1	-2
568.483	1	7
568.653	1	2
568.823	1	-4
568.993	1	1
569.162	1	10
569.332	1	4
569.502	1	9
569.672	1	3
569.842	1	3
570.012	1	4
570.182	1	-3
570.352	1	2
570.522	1	-7
570.692	1	4
570.862	1	14
571.031	1	8
571.201	1	6
571.371	1	1
571.541	1	0
571.711	1	14
571.881	1	6
572.051	1	3
572.221	1	12
572.391	1	12
572.561	1	7
572.731	1	13
572.900	1	8
573.070	1	7
573.240	1	15
573.410	1	0
573.580	1	6
573.750	1	4
573.920	1	13
574.090	1	-1
574.260	1	-2
574.430	1	7
574.599	1	5
574.769	1	9
574.939	1	11
575.109	1	18
575.279	1	2
575.449	1	11
575.619	1	12
575.789	1	4
575.959	1	2
576.128	1	0
576.298	1	10
576.468	1	9
576.638	1	6
576.808	1	-2
576.978	1	1
577.148	1	14
577.318	1	-4
577.487	1	11
577.657	1	18
577.827	1	-1
577.997	1	10
578.167	1	9
578.337	1	8
578.507	1	-5
578.677	1	10
578.846	1	1
579.016	1	4
579.186	1	4
579.356	1	6
579.526	1	0
579.696	1	5
579.866	1	13
580.036	1	5
580.205	1	-1
580.375	1	-2
580.545	1	-3
580.715	1	8
580.885	1	9
581.055	1	7
581.225	1	-5
581.394	1	1
581.564	1	1
581.734	1	10
581.904	1	9
582.074	1	13
582.244	1	-3
582.414	1	-3
582.583	1	6
582.753	1	1
582.923	1	3
583.093	1	3
583.263	1	4
583.433	1	16
583.603	1	7
583.772	1	4
583.942	1	7
584.112	1	10
584.282	1	-1
584.452	1	14
584.622	1	0
584.791	1	3
584.961	1	-2
585.131	1	5
585.301	1	6
585.471	1	3
585.641	1	13
585.811	1	5
585.980	1	5
586.150	1	5
586.320	1	9
586.490	1	-4
586.660	1	-5
586.830	1	-16
586.999	1	-2
587.169	1	14
587.339	1	7
587.509	1	1
587.679	1	1
587.849	1	0
588.018	1	19
588.188	1	15
588.358	1	-10
588.528	1	17
588.698	1	4
588.867	1	4
589.037	1	4
589.207	1	4
589.377	1	11
589.547	1	-1
589.717	1	2
589.886	1	15
590.056	1	-7
590.226	1	12
590.396	1	4
590.566	1	5
590.735	1	1
590.905	1	9
591.075	1	7
591.245	1	-3
591.415	1	9
591.585	1	-2
591.754	1	3
591.924	1	-3
592.094	1	4
592.264	1	6
592.434	1	12
592.603	1	-6
592.773	1	7
592.943	1	0
593.113	1	3
593.283	1	-4
593.452	1	6
593.622	1	7
593.792	1	-14
593.962	1	13
594.132	1	-3
594.301	1	2
594.471	1	6
594.641	1	9
594.811	1	0
594.981	1	-4
595.150	1	1
595.320	1	10
595.490	1	3
595.660	1	3
595.829	1	5
595.999	1	12
596.169	1	3
596.339	1	11
596.509	1	6
596.678	1	-9
596.848	1	9
597.018	1	7
597.188	1	7
597.358	1	1
597.527	1	5
597.697	1	2
597.867	1	-3
598.037	1	-1
598.206	1	7
598.376	1	10
598.546	1	3
598.716	1	4
598.885	1	14
599.055	1	-3
599.225	1	5
599.395	1	-6
599.565	1	9
599.734	1	0
599.904	1	-4
600.074	1	-3
600.244	1	-5
600.413	1	9
600.583	1	-3
600.753	1	3
600.923	1	-2
601.092	1	4
601.262	1	-2
601.432	1	0
601.602	1	3
601.771	1	10
601.941	1	-5
602.111	1	1
602.281	1	5
602.451	1	2
602.620	1	8
602.790	1	2
602.960	1	2
603.130	1	1
603.299	1	7
603.469	1	-7
603.639	1	4
603.809	1	-4
603.978	1	-5
604.148	1	12
604.318	1	1
604.487	1	7
604.657	1	-10
604.827	1	1
604.997	1	11
605.166	1	9
605.336	1	10
605.506	1	1
605.676	1	-2
605.845	1	-3
606.015	1	-4
606.185	1	2
606.355	1	9
606.524	1	6
606.694	1	-8
606.864	1	7
607.034	1	1
607.203	1	3
607.373	1	2
607.543	1	1
607.712	1	4
607.882	1	12
608.052	1	-1
608.222	1	1
608.391	1	16
608.561	1	-3
608.731	1	4
608.901	1	6
609.070	1	4
609.240	1	-1
609.410	1	9
609.579	1	8
609.749	1	8
609.919	1	14
610.089	1	-1
610.258	1	-2
610.428	1	3
610.598	1	7
610.767	1	6
610.937	1	-1
611.107	1	2
611.277	1	9
611.446	1	6
611.616	1	-4
611.786	1	5
611.955	1	-1
612.125	1	8
612.295	1	3
612.465	1	-4
612.634	1	-5
612.804	1	7
612.974	1	-2
613.143	1	6
613.313	1	0
613.483	1	-11
613.652	1	-6
613.822	1	7
613.992	1	0
614.162	1	4
614.331	1	3
614.501	1	14
614.671	1	-7
614.840	1	4
615.010	1	-7
615.180	1	7
615.349	1	-2
615.519	1	2
615.689	1	7
615.858	1	1
616.028	1	8
616.198	1	9
616.368	1	7
616.537	1	13
616.707	1	15
616.877	1	4
617.046	1	11
617.216	1	8
617.386	1	-3
617.555	1	-11
617.725	1	1
617.895	1	14
618.064	1	5
618.234	1	-1
618.404	1	-4
618.573	1	10
618.743	1	12
618.913	1	5
619.082	1	6
619.252	1	-4
619.422	1	5
619.591	1	6
619.761	1	11
619.931	1	-9
620.100	1	1
620.270	1	4
620.440	1	9
620.609	1	-4
620.779	1	5
620.949	1	2
621.118	1	1
621.288	1	-5
621.458	1	9
621.627	1	11
621.797	1	2
621.967	1	4
622.136	1	2
622.306	1	6
622.476	1	2
622.645	1	7
622.815	1	-9
622.985	1	5
623.154	1	7
623.324	1	-14
623.494	1	6
623.663	1	5
623.833	1	1
624.002	1	1
624.172	1	6
624.342	1	1
624.511	1	10
624.681	1	4
624.851	1	-5
625.020	1	6
625.190	1	7
625.360	1	11
625.529	1	1
625.699	1	-6
625.869	1	8
626.038	1	10
626.208	1	12
626.377	1	7
626.547	1	8
626.717	1	1
626.886	1	3
627.056	1	4
627.226	1	6
627.395	1	3
627.565	1	0
627.735	1	13
627.904	1	9
628.074	1	4
628.243	1	11
628.413	1	6
628.583	1	-6
628.752	1	3
628.922	1	2
629.091	1	1
629.261	1	-9
629.431	1	8
629.600	1	4
629.770	1	0
629.940	1	4
630.109	1	7
630.279	1	10
630.448	1	-2
630.618	1	2
630.788	1	3
630.957	1	7
631.127	1	-2
631.297	1	0
631.466	1	8
631.636	1	8
631.805	1	12
631.975	1	7
632.145	1	5
632.314	1	-2
632.484	1	-5
632.653	1	2
632.823	1	-3
632.993	1	3
633.162	1	3
633.332	1	-1
633.501	1	11
633.671	1	3
633.841	1	8
634.010	1	-5
634.180	1	4
634.349	1	5
634.519	1	12
634.689	1	1
634.858	1	5
635.028	1	6
635.197	1	1
635.367	1	13
635.537	1	-7
635.706	1	6
635.876	1	13
636.045	1	15
636.215	1	5
636.384	1	-4
636.554	1	5
636.724	1	13
636.893	1	1
637.063	1	9
637.232	1	-4
637.402	1	-5
637.572	1	5
637.741	1	11
637.911	1	7
638.080	1	5
638.250	1	4
638.419	1	10
638.589	1	0
638.759	1	-1
638.928	1	-1
639.098	1	-14
639.267	1	9
639.437	1	17
639.606	1	4
639.776	1	-4
639.946	1	3
640.115	1	5
640.285	1	7
640.454	1	7
640.624	1	-5
640.793	1	-5
640.963	1	-6
641.132	1	10
641.302	1	13
641.472	1	0
641.641	1	-4
641.811	1	7
641.980	1	-6
642.150	1	-1
642.319	1	10
642.489	1	0
642.659	1	-6
642.828	1	2
642.998	1	12
643.167	1	4
643.337	1	5
643.506	1	5
643.676	1	1
643.845	1	-3
644.015	1	12
644.184	1	-3
644.354	1	-1
644.524	1	2
644.693	1	-8
644.863	1	4
645.032	1	7
645.202	1	3
645.371	1	15
645.541	1	3
645.710	1	11
645.880	1	-2
646.049	1	-7
646.219	1	-6
646.388	1	3
646.558	1	3
646.728	1	9
646.897	1	1
647.067	1	11
647.236	1	-3
647.406	1	-1
647.575	1	-6
647.745	1	12
647.914	1	5
648.084	1	3
648.253	1	2
648.423	1	12
648.592	1	-1
648.762	1	5
648.931	1	-3
649.101	1	-2
649.270	1	-2
649.440	1	10
649.610	1	-1
649.779	1	4
649.949	1	4
650.118	1	3
650.288	1	5
650.457	1	4
650.627	1	7
650.796	1	1
650.966	1	-4
651.135	1	8
651.305	1	0
651.474	1	-5
651.644	1	3
651.813	1	9
651.983	1	-11
652.152	1	2
652.322	1	0
652.491	1	4
652.661	1	6
652.830	1	5
653.000	1	-2
653.169	1	-2
653.339	1	4
653.508	1	13
653.678	1	-5
653.847	1	9
654.017	1	4
654.186	1	-2
654.356	1	12
654.525	1	1
654.695	1	-4
654.864	1	-1
655.034	1	-8
655.203	1	-1
655.373	1	12
655.542	1	-5
655.712	1	10
655.881	1	11
656.051	1	13
656.220	1	7
656.390	1	5
656.559	1	8
656.729	1	2
656.898	1	1
657.068	1	-1
657.237	1	4
657.406	1	9
657.576	1	1
657.745	1	5
657.915	1	19
658.084	1	3
658.254	1	-1
658.423	1	4
658.593	1	7
658.762	1	11
658.932	1	12
659.101	1	9
659.271	1	12
659.440	1	-7
659.610	1	3
659.779	1	-4
659.949	1	9
660.118	1	-5
660.288	1	5
660.457	1	-8
660.626	1	2
660.796	1	-1
660.965	1	1
661.135	1	2
661.304	1	8
661.474	1	6
661.643	1	6
661.813	1	-2
661.982	1	-1
662.152	1	6
662.321	1	-1
662.491	1	9
662.660	1	6
662.829	1	6
662.999	1	4
663.168	1	-8
663.338	1	3
663.507	1	3
663.677	1	0
663.846	1	2
664.016	1	2
664.185	1	-10
664.354	1	5
664.524	1	2
664.693	1	15
664.863	1	-2
665.032	1	9
665.202	1	1
665.371	1	10
665.541	1	0
665.710	1	4
665.879	1	1
666.049	1	6
666.218	1	5
666.388	1	7
666.557	1	5
666.727	1	-6
666.896	1	5
667.065	1	9
667.235	1	3
667.404	1	1
667.574	1	10
667.743	1	-1
667.913	1	3
668.082	1	3
668.251	1	2
668.421	1	-1
668.590	1	6
668.760	1	-1
668.929	1	9
669.099	1	-13
669.268	1	2
669.437	1	-4
669.607	1	-5
669.776	1	-5
669.946	1	7
670.115	1	12
670.285	1	2
670.454	1	5
670.623	1	15
670.793	1	2
670.962	1	-6
671.132	1	6
671.301	1	-1
671.470	1	7
671.640	1	-14
671.809	1	-2
671.979	1	-3
672.148	1	1
672.317	1	-7
672.487	1	-3
672.656	1	-8
672.826	1	3
672.995	1	0
673.164	1	4
673.334	1	-9
673.503	1	-1
673.673	1	1
673.842	1	-2
674.011	1	3
674.181	1	21
674.350	1	4
674.520	1	-1
674.689	1	15
674.858	1	1
675.028	1	8
675.197	1	-8
675.367	1	-8
675.536	1	9
675.705	1	8
675.875	1	3
676.044	1	10
676.214	1	11
676.383	1	-2
676.552	1	3
676.722	1	1
676.891	1	3
677.060	1	-8
677.230	1	9
677.399	1	0
677.569	1	-3
677.738	1	1
677.907	1	-1
678.077	1	1
678.246	1	7
678.416	1	2
678.585	1	7
678.754	1	0
678.924	1	3
679.093	1	7
679.262	1	1
679.432	1	6
679.601	1	3
679.771	1	0
679.940	1	-7
680.109	1	1
680.279	1	-2
680.448	1	8
680.617	1	-12
680.787	1	8
680.956	1	2
681.125	1	13
681.295	1	-8
681.464	1	1
681.634	1	9
681.803	1	-2
681.972	1	5
682.142	1	2
682.311	1	-3
682.480	1	9
682.650	1	-6
682.819	1	3
682.988	1	-4
683.158	1	2
683.327	1	1
683.496	1	-2
683.666	1	8
683.835	1	-8
684.004	1	1
684.174	1	0
684.343	1	6
684.512	1	16
684.682	1	-2
684.851	1	3
685.021	1	8
685.190	1	4
685.359	1	-12
685.529	1	2
685.698	1	-2
685.867	1	4
686.037	1	7
686.206	1	2
686.375	1	0
686.545	1	-2
686.714	1	-5
686.883	1	-1
687.053	1	9
687.222	1	1
687.391	1	5
687.561	1	11
687.730	1	-4
687.899	1	6
688.069	1	0
688.238	1	9
688.407	1	-5
688.577	1	-2
688.746	1	2
