340.368	1	6
340.539	1	12
340.710	1	14
340.881	1	7
341.052	1	-7
341.223	1	-6
341.394	1	-4
341.565	1	0
341.737	1	-1
341.908	1	11
342.079	1	10
342.250	1	6
342.421	1	10
342.592	1	7
342.763	1	0
342.934	1	7
343.105	1	1
343.276	1	9
343.447	1	7
343.618	1	-2
343.789	1	7
343.960	1	-11
344.131	1	2
344.302	1	4
344.473	1	7
344.644	1	14
344.815	1	2
344.986	1	8
345.157	1	-8
345.328	1	11
345.499	1	2
345.670	1	5
345.841	1	-7
346.012	1	6
346.183	1	9
346.354	1	11
346.526	1	-1
346.697	1	9
346.868	1	11
347.039	1	2
347.210	1	5
347.381	1	-2
347.552	1	0
347.723	1	15
347.894	1	1
348.065	1	16
348.236	1	4
348.407	1	11
348.578	1	9
348.749	1	5
348.920	1	2
349.091	1	6
349.262	1	11
349.433	1	7
349.604	1	8
349.775	1	1
349.946	1	-1
350.117	1	4
350.288	1	0
350.459	1	-1
350.630	1	-3
350.801	1	3
350.972	1	6
351.143	1	10
351.314	1	-2
351.485	1	10
351.656	1	18
351.827	1	5
351.998	1	2
352.169	1	4
352.340	1	12
352.511	1	5
352.682	1	3
352.853	1	6
353.024	1	-1
353.195	1	12
353.366	1	8
353.537	1	5
353.708	1	-3
353.879	1	-5
354.050	1	3
354.221	1	11
354.392	1	9
354.563	1	1
354.734	1	0
354.905	1	5
355.076	1	12
355.247	1	12
355.418	1	7
355.589	1	4
355.760	1	4
355.931	1	6
356.102	1	1
356.273	1	8
356.444	1	-9
356.615	1	9
356.785	1	10
356.956	1	20
357.127	1	14
357.298	1	2
357.469	1	6
357.640	1	6
357.811	1	11
357.982	1	2
358.153	1	7
358.324	1	7
358.495	1	6
358.666	1	8
358.837	1	3
359.008	1	24
359.179	1	10
359.350	1	4
359.521	1	8
359.692	1	9
359.863	1	4
360.034	1	20
360.205	1	0
360.376	1	13
360.547	1	7
360.718	1	15
360.889	1	15
361.060	1	14
361.231	1	8
361.401	1	3
361.572	1	19
361.743	1	26
361.914	1	9
362.085	1	22
362.256	1	5
362.427	1	19
362.598	1	12
362.769	1	14
362.940	1	15
363.111	1	27
363.282	1	26
363.453	1	13
363.624	1	29
363.795	1	12
363.966	1	26
364.137	1	25
364.308	1	33
364.478	1	17
364.649	1	37
364.820	1	29
364.991	1	25
365.162	1	34
365.333	1	21
365.504	1	23
365.675	1	37
365.846	1	40
366.017	1	28
366.188	1	37
366.359	1	40
366.530	1	25
366.701	1	33
366.871	1	38
367.042	1	44
367.213	1	46
367.384	1	45
367.555	1	39
367.726	1	43
367.897	1	35
368.068	1	29
368.239	1	50
368.410	1	28
368.581	1	46
368.752	1	46
368.923	1	39
369.093	1	35
369.264	1	36
369.435	1	35
369.606	1	53
369.777	1	33
369.948	1	39
370.119	1	39
370.290	1	41
370.461	1	25
370.632	1	25
370.803	1	31
370.973	1	23
371.144	1	34
371.315	1	42
371.486	1	21
371.657	1	21
371.828	1	31
371.999	1	21
372.170	1	13
372.341	1	33
372.512	1	21
372.682	1	25
372.853	1	20
373.024	1	33
373.195	1	25
373.366	1	19
373.537	1	32
373.708	1	36
373.879	1	24
374.050	1	32
374.220	1	21
374.391	1	22
374.562	1	23
374.733	1	13
374.904	1	18
375.075	1	32
375.246	1	24
375.417	1	12
375.588	1	7
375.758	1	1
375.929	1	8
376.100	1	8
376.271	1	25
376.442	1	19
376.613	1	15
376.784	1	31
376.955	1	12
377.125	1	14
377.296	1	16
377.467	1	12
377.638	1	0
377.809	1	3
377.980	1	11
378.151	1	7
378.321	1	13
378.492	1	15
378.663	1	21
378.834	1	12
379.005	1	28
379.176	1	7
379.347	1	20
379.518	1	17
379.688	1	11
379.859	1	9
380.030	1	8
380.201	1	15
380.372	1	9
380.543	1	13
380.714	1	21
380.884	1	7
381.055	1	17
381.226	1	14
381.397	1	12
381.568	1	14
381.739	1	21
381.910	1	21
382.080	1	-1
382.251	1	2
382.422	1	16
382.593	1	8
382.764	1	7
382.935	1	15
383.105	1	6
383.276	1	-5
383.447	1	18
383.618	1	20
383.789	1	21
383.960	1	11
384.130	1	12
384.301	1	8
384.472	1	18
384.643	1	13
384.814	1	9
384.985	1	21
385.156	1	1
385.326	1	12
385.497	1	-2
385.668	1	14
385.839	1	9
386.010	1	9
386.180	1	7
386.351	1	7
386.522	1	6
386.693	1	9
386.864	1	18
387.035	1	23
387.205	1	16
387.376	1	16
387.547	1	15
387.718	1	13
387.889	1	6
388.060	1	14
388.230	1	6
388.401	1	12
388.572	1	14
388.743	1	6
388.914	1	11
389.084	1	-1
389.255	1	4
389.426	1	10
389.597	1	2
389.768	1	-1
389.939	1	14
390.109	1	16
390.280	1	15
390.451	1	14
390.622	1	9
390.793	1	7
390.963	1	13
391.134	1	6
391.305	1	13
391.476	1	4
391.647	1	7
391.817	1	19
391.988	1	18
392.159	1	9
392.330	1	0
392.501	1	15
392.671	1	5
392.842	1	13
393.013	1	10
393.184	1	20
393.355	1	5
393.525	1	0
393.696	1	-3
393.867	1	14
394.038	1	15
394.208	1	-3
394.379	1	16
394.550	1	19
394.721	1	5
394.892	1	9
395.062	1	12
395.233	1	9
395.404	1	-8
395.575	1	7
395.746	1	20
395.916	1	16
396.087	1	15
396.258	1	9
396.429	1	10
396.599	1	13
396.770	1	8
396.941	1	15
397.112	1	9
397.283	1	16
397.453	1	23
397.624	1	10
397.795	1	8
397.966	1	16
398.136	1	12
398.307	1	12
398.478	1	2
398.649	1	5
398.819	1	-10
398.990	1	-2
399.161	1	18
399.332	1	15
399.503	1	26
399.673	1	5
399.844	1	10
400.015	1	10
400.186	1	5
400.356	1	5
400.527	1	15
400.698	1	2
400.869	1	5
401.039	1	17
401.210	1	0
401.381	1	3
401.552	1	15
401.722	1	16
401.893	1	0
402.064	1	-7
402.235	1	4
402.405	1	13
402.576	1	9
402.747	1	24
402.918	1	15
403.088	1	7
403.259	1	1
403.430	1	12
403.601	1	10
403.771	1	15
403.942	1	5
404.113	1	8
404.284	1	7
404.454	1	11
404.625	1	25
404.796	1	9
404.967	1	3
405.137	1	16
405.308	1	4
405.479	1	11
405.649	1	-1
405.820	1	13
405.991	1	4
406.162	1	1
406.332	1	13
406.503	1	18
406.674	1	7
406.845	1	-3
407.015	1	7
407.186	1	12
407.357	1	2
407.527	1	4
407.698	1	1
407.869	1	9
408.040	1	15
408.210	1	6
408.381	1	14
408.552	1	2
408.722	1	10
408.893	1	15
409.064	1	9
409.235	1	-7
409.405	1	15
409.576	1	7
409.747	1	6
409.917	1	2
410.088	1	15
410.259	1	6
410.430	1	15
410.600	1	7
410.771	1	-6
410.942	1	9
411.112	1	10
411.283	1	1
411.454	1	4
411.625	1	7
411.795	1	8
411.966	1	12
412.137	1	9
412.307	1	3
412.478	1	11
412.649	1	21
412.819	1	0
412.990	1	3
413.161	1	24
413.332	1	2
413.502	1	11
413.673	1	10
413.844	1	-1
414.014	1	15
414.185	1	16
414.356	1	19
414.526	1	7
414.697	1	3
414.868	1	8
415.038	1	13
415.209	1	4
415.380	1	12
415.550	1	6
415.721	1	7
415.892	1	9
416.063	1	10
416.233	1	8
416.404	1	10
416.575	1	6
416.745	1	7
416.916	1	-3
417.087	1	6
417.257	1	10
417.428	1	9
417.599	1	7
417.769	1	15
417.940	1	11
418.111	1	7
418.281	1	10
418.452	1	9
418.623	1	5
418.793	1	4
418.964	1	3
419.135	1	17
419.305	1	8
419.476	1	11
419.647	1	18
419.817	1	5
419.988	1	10
420.159	1	8
420.329	1	17
420.500	1	8
420.671	1	6
420.841	1	21
421.012	1	14
421.183	1	12
421.353	1	-4
421.524	1	3
421.695	1	8
421.865	1	2
422.036	1	16
422.206	1	11
422.377	1	10
422.548	1	14
422.718	1	14
422.889	1	13
423.060	1	12
423.230	1	7
423.401	1	16
423.572	1	1
423.742	1	5
423.913	1	19
424.084	1	5
424.254	1	16
424.425	1	11
424.595	1	6
424.766	1	6
424.937	1	7
425.107	1	13
425.278	1	-1
425.449	1	2
425.619	1	10
425.790	1	10
425.961	1	10
426.131	1	9
426.302	1	18
426.472	1	5
426.643	1	7
426.814	1	7
426.984	1	12
427.155	1	4
427.326	1	5
427.496	1	15
427.667	1	4
427.837	1	13
428.008	1	9
428.179	1	16
428.349	1	11
428.520	1	6
428.691	1	1
428.861	1	2
429.032	1	0
429.202	1	8
429.373	1	15
429.544	1	13
429.714	1	1
429.885	1	-1
430.055	1	6
430.226	1	2
430.397	1	-4
430.567	1	0
430.738	1	1
430.909	1	11
431.079	1	21
431.250	1	8
431.420	1	6
431.591	1	5
431.762	1	14
431.932	1	9
432.103	1	1
432.273	1	13
432.444	1	11
432.615	1	13
432.785	1	13
432.956	1	7
433.126	1	11
433.297	1	9
433.468	1	13
433.638	1	7
433.809	1	16
433.979	1	10
434.150	1	-4
434.320	1	1
434.491	1	4
434.662	1	6
434.832	1	5
435.003	1	28
435.173	1	4
435.344	1	13
435.515	1	6
435.685	1	-5
435.856	1	6
436.026	1	10
436.197	1	6
436.368	1	4
436.538	1	7
436.709	1	8
436.879	1	13
437.050	1	5
437.220	1	0
437.391	1	16
437.562	1	11
437.732	1	3
437.903	1	6
438.073	1	6
438.244	1	9
438.414	1	15
438.585	1	7
438.756	1	11
438.926	1	11
439.097	1	9
439.267	1	4
439.438	1	10
439.608	1	8
439.779	1	10
439.949	1	10
440.120	1	8
440.291	1	13
440.461	1	21
440.632	1	10
440.802	1	-2
440.973	1	1
441.143	1	-7
441.314	1	5
441.485	1	12
441.655	1	12
441.826	1	10
441.996	1	14
442.167	1	7
442.337	1	13
442.508	1	9
442.678	1	5
442.849	1	6
443.019	1	12
443.190	1	10
443.361	1	7
443.531	1	4
443.702	1	6
443.872	1	11
444.043	1	0
444.213	1	8
444.384	1	-5
444.554	1	10
444.725	1	2
444.895	1	7
445.066	1	4
445.237	1	2
445.407	1	5
445.578	1	-1
445.748	1	11
445.919	1	-7
446.089	1	8
446.260	1	11
446.430	1	4
446.601	1	12
446.771	1	10
446.942	1	8
447.112	1	3
447.283	1	13
447.453	1	3
447.624	1	9
447.794	1	11
447.965	1	3
448.135	1	9
448.306	1	6
448.477	1	0
448.647	1	23
448.818	1	-4
448.988	1	5
449.159	1	10
449.329	1	-1
449.500	1	6
449.670	1	-4
449.841	1	-5
450.011	1	-4
450.182	1	17
450.352	1	15
450.523	1	18
450.693	1	7
450.864	1	6
451.034	1	-3
451.205	1	3
451.375	1	18
451.546	1	15
451.716	1	0
451.887	1	-5
452.057	1	16
452.228	1	14
452.398	1	4
452.569	1	0
452.739	1	1
452.910	1	3
453.080	1	7
453.251	1	19
453.421	1	2
453.592	1	8
453.762	1	15
453.933	1	6
454.103	1	2
454.274	1	-4
454.444	1	14
454.615	1	5
454.785	1	17
454.956	1	-1
455.126	1	-6
455.297	1	15
455.467	1	10
455.638	1	13
455.808	1	14
455.979	1	15
456.149	1	-5
456.320	1	5
456.490	1	6
456.661	1	0
456.831	1	3
457.001	1	8
457.172	1	9
457.342	1	3
457.513	1	2
457.683	1	1
457.854	1	3
458.024	1	16
458.195	1	-6
458.365	1	10
458.536	1	1
458.706	1	6
458.877	1	23
459.047	1	-4
459.218	1	5
459.388	1	-1
459.559	1	5
459.729	1	1
459.899	1	0
460.070	1	12
460.240	1	19
460.411	1	17
460.581	1	-7
460.752	1	6
460.922	1	8
461.093	1	8
461.263	1	6
461.434	1	10
461.604	1	-5
461.775	1	4
461.945	1	14
462.115	1	0
462.286	1	3
462.456	1	3
462.627	1	-3
462.797	1	12
462.968	1	-1
463.138	1	10
463.309	1	1
463.479	1	11
463.649	1	3
463.820	1	-2
463.990	1	-1
464.161	1	-7
464.331	1	8
464.502	1	4
464.672	1	3
464.843	1	6
465.013	1	-5
465.183	1	16
465.354	1	6
465.524	1	1
465.695	1	10
465.865	1	-4
466.036	1	7
466.206	1	7
466.376	1	0
466.547	1	-9
466.717	1	7
466.888	1	15
467.058	1	8
467.229	1	2
467.399	1	-9
467.569	1	-2
467.740	1	17
467.910	1	0
468.081	1	11
468.251	1	5
468.422	1	5
468.592	1	0
468.762	1	8
468.933	1	5
469.103	1	2
469.274	1	14
469.444	1	10
469.614	1	3
469.785	1	11
469.955	1	4
470.126	1	-1
470.296	1	0
470.467	1	3
470.637	1	3
470.807	1	-2
470.978	1	-4
471.148	1	8
471.319	1	5
471.489	1	1
471.659	1	-5
471.830	1	10
472.000	1	8
472.171	1	7
472.341	1	-9
472.511	1	8
472.682	1	12
472.852	1	12
473.023	1	2
473.193	1	-2
473.363	1	11
473.534	1	7
473.704	1	2
473.875	1	13
474.045	1	-10
474.215	1	6
474.386	1	10
474.556	1	1
474.727	1	-1
474.897	1	0
475.067	1	1
475.238	1	28
475.408	1	9
475.578	1	2
475.749	1	5
475.919	1	2
476.090	1	8
476.260	1	6
476.430	1	9
476.601	1	2
476.771	1	-6
476.942	1	9
477.112	1	12
477.282	1	2
477.453	1	13
477.623	1	-9
477.793	1	6
477.964	1	-6
478.134	1	16
478.305	1	18
478.475	1	-2
478.645	1	0
478.816	1	12
478.986	1	6
479.156	1	0
479.327	1	-2
479.497	1	10
479.667	1	5
479.838	1	3
480.008	1	2
480.179	1	-7
480.349	1	2
480.519	1	-2
480.690	1	10
480.860	1	7
481.030	1	-3
481.201	1	6
481.371	1	9
481.541	1	4
481.712	1	5
481.882	1	7
482.053	1	-1
482.223	1	-3
482.393	1	8
482.564	1	1
482.734	1	4
482.904	1	4
483.075	1	25
483.245	1	-3
483.415	1	4
483.586	1	6
483.756	1	-2
483.926	1	3
484.097	1	-6
484.267	1	15
484.437	1	0
484.608	1	12
484.778	1	15
484.948	1	5
485.119	1	11
485.289	1	0
485.459	1	-2
485.630	1	-1
485.800	1	20
485.970	1	9
486.141	1	9
486.311	1	18
486.481	1	3
486.652	1	8
486.822	1	12
486.992	1	9
487.163	1	1
487.333	1	-1
487.503	1	-4
487.674	1	8
487.844	1	8
488.014	1	8
488.185	1	10
488.355	1	4
488.525	1	15
488.696	1	2
488.866	1	10
489.036	1	10
489.207	1	8
489.377	1	2
489.547	1	3
489.718	1	0
489.888	1	13
490.058	1	9
490.228	1	2
490.399	1	5
490.569	1	2
490.739	1	12
490.910	1	-2
491.080	1	4
491.250	1	2
491.421	1	11
491.591	1	6
491.761	1	1
491.932	1	8
492.102	1	18
492.272	1	5
492.442	1	13
492.613	1	2
492.783	1	2
492.953	1	10
493.124	1	3
493.294	1	11
493.464	1	-5
493.635	1	10
493.805	1	5
493.975	1	11
494.145	1	0
494.316	1	9
494.486	1	22
494.656	1	9
494.827	1	14
494.997	1	9
495.167	1	5
495.337	1	9
495.508	1	8
495.678	1	8
495.848	1	8
496.019	1	0
496.189	1	13
496.359	1	9
496.529	1	14
496.700	1	4
496.870	1	8
497.040	1	16
497.211	1	7
497.381	1	11
497.551	1	20
497.721	1	7
497.892	1	10
498.062	1	1
498.232	1	11
498.403	1	10
498.573	1	13
498.743	1	8
498.913	1	16
499.084	1	16
499.254	1	8
499.424	1	7
499.594	1	3
499.765	1	3
499.935	1	4
500.105	1	5
500.275	1	9
500.446	1	10
500.616	1	8
500.786	1	21
500.956	1	10
501.127	1	8
501.297	1	-1
501.467	1	1
501.638	1	7
501.808	1	12
501.978	1	0
502.148	1	10
502.319	1	11
502.489	1	7
502.659	1	10
502.829	1	8
503.000	1	3
503.170	1	-7
503.340	1	2
503.510	1	12
503.681	1	7
503.851	1	1
504.021	1	7
504.191	1	13
504.362	1	12
504.532	1	1
504.702	1	11
504.872	1	16
505.042	1	15
505.213	1	7
505.383	1	11
505.553	1	13
505.723	1	21
505.894	1	11
506.064	1	9
506.234	1	-2
506.404	1	3
506.575	1	8
506.745	1	6
506.915	1	17
507.085	1	10
507.256	1	17
507.426	1	16
507.596	1	6
507.766	1	6
507.936	1	-5
508.107	1	3
508.277	1	9
508.447	1	17
508.617	1	-3
508.788	1	8
508.958	1	13
509.128	1	16
509.298	1	4
509.468	1	6
509.639	1	16
509.809	1	7
509.979	1	5
510.149	1	15
510.319	1	11
510.490	1	13
510.660	1	6
510.830	1	15
511.000	1	11
511.171	1	16
511.341	1	4
511.511	1	-4
511.681	1	9
511.851	1	17
512.022	1	16
512.192	1	2
512.362	1	3
512.532	1	14
512.702	1	18
512.873	1	8
513.043	1	10
513.213	1	19
513.383	1	14
513.553	1	16
513.724	1	0
513.894	1	10
514.064	1	12
514.234	1	15
514.404	1	16
514.575	1	1
514.745	1	8
514.915	1	9
515.085	1	21
515.255	1	18
515.425	1	10
515.596	1	10
515.766	1	22
515.936	1	20
516.106	1	8
516.276	1	3
516.447	1	12
516.617	1	7
516.787	1	4
516.957	1	7
517.127	1	9
517.297	1	3
517.468	1	17
517.638	1	19
517.808	1	14
517.978	1	12
518.148	1	17
518.319	1	3
518.489	1	15
518.659	1	9
518.829	1	15
518.999	1	15
519.169	1	19
519.340	1	-2
519.510	1	15
519.680	1	12
519.850	1	27
520.020	1	8
520.190	1	21
520.361	1	8
520.531	1	14
520.701	1	6
520.871	1	11
521.041	1	24
521.211	1	17
521.382	1	17
521.552	1	18
521.722	1	13
521.892	1	23
522.062	1	17
522.232	1	11
522.402	1	8
522.573	1	11
522.743	1	13
522.913	1	17
523.083	1	6
523.253	1	13
523.423	1	22
523.593	1	13
523.764	1	20
523.934	1	12
524.104	1	14
524.274	1	0
524.444	1	8
524.614	1	20
524.784	1	20
524.955	1	15
525.125	1	15
525.295	1	19
525.465	1	21
525.635	1	6
525.805	1	7
525.975	1	22
526.146	1	2
526.316	1	7
526.486	1	14
526.656	1	11
526.826	1	15
526.996	1	17
527.166	1	14
527.337	1	18
527.507	1	18
527.677	1	0
527.847	1	20
528.017	1	12
528.187	1	19
528.357	1	18
528.527	1	16
528.698	1	15
528.868	1	12
529.038	1	14
529.208	1	12
529.378	1	10
529.548	1	10
529.718	1	17
529.888	1	12
530.058	1	15
530.229	1	26
530.399	1	20
530.569	1	12
530.739	1	10
530.909	1	9
531.079	1	19
531.249	1	13
531.419	1	17
531.589	1	15
531.760	1	8
531.930	1	8
532.100	1	13
532.270	1	19
532.440	1	11
532.610	1	13
532.780	1	11
532.950	1	18
533.120	1	20
533.290	1	13
533.461	1	19
533.631	1	12
533.801	1	28
533.971	1	18
534.141	1	14
534.311	1	21
534.481	1	14
534.651	1	13
534.821	1	22
534.991	1	10
535.162	1	9
535.332	1	19
535.502	1	7
535.672	1	18
535.842	1	13
536.012	1	12
536.182	1	18
536.352	1	12
536.522	1	10
536.692	1	14
536.862	1	14
537.032	1	11
537.203	1	5
537.373	1	22
537.543	1	18
537.713	1	20
537.883	1	9
538.053	1	-5
538.223	1	19
538.393	1	29
538.563	1	26
538.733	1	22
538.903	1	17
539.073	1	6
539.243	1	12
539.413	1	17
539.584	1	16
539.754	1	6
539.924	1	10
540.094	1	14
540.264	1	6
540.434	1	11
540.604	1	18
540.774	1	14
540.944	1	22
541.114	1	-5
541.284	1	7
541.454	1	23
541.624	1	26
541.794	1	11
541.964	1	9
542.134	1	8
542.305	1	13
542.475	1	8
542.645	1	10
542.815	1	20
542.985	1	12
543.155	1	9
543.325	1	13
543.495	1	17
543.665	1	12
543.835	1	13
544.005	1	19
544.175	1	9
544.345	1	13
544.515	1	11
544.685	1	21
544.855	1	12
545.025	1	3
545.195	1	10
545.365	1	17
545.535	1	22
545.705	1	0
545.875	1	31
546.045	1	10
546.216	1	20
546.386	1	11
546.556	1	0
546.726	1	13
546.896	1	15
547.066	1	6
547.236	1	2
547.406	1	1
547.576	1	14
547.746	1	9
547.916	1	4
548.086	1	9
548.256	1	10
548.426	1	16
548.596	1	10
548.766	1	11
548.936	1	19
549.106	1	3
549.276	1	3
549.446	1	17
549.616	1	9
549.786	1	8
549.956	1	12
550.126	1	10
550.296	1	5
550.466	1	23
550.636	1	9
550.806	1	21
550.976	1	5
551.146	1	19
551.316	1	18
551.486	1	12
551.656	1	16
551.826	1	8
551.996	1	11
552.166	1	17
552.336	1	14
552.506	1	13
552.676	1	22
552.846	1	8
553.016	1	10
553.186	1	15
553.356	1	19
553.526	1	14
553.696	1	11
553.866	1	8
554.036	1	20
554.206	1	7
554.376	1	17
554.546	1	11
554.716	1	11
554.886	1	11
555.056	1	18
555.226	1	11
555.396	1	5
555.566	1	4
555.736	1	3
555.906	1	10
556.076	1	3
556.246	1	17
556.416	1	14
556.586	1	14
556.756	1	15
556.926	1	8
557.096	1	6
557.266	1	11
557.436	1	11
557.606	1	6
557.776	1	9
557.946	1	12
558.116	1	6
558.286	1	17
558.456	1	1
558.626	1	-1
558.796	1	17
558.966	1	8
559.136	1	16
559.306	1	6
559.476	1	8
559.646	1	18
559.816	1	10
559.986	1	18
560.155	1	6
560.325	1	1
560.495	1	0
560.665	1	14
560.835	1	0
561.005	1	9
561.175	1	7
561.345	1	10
561.515	1	-2
561.685	1	7
561.855	1	10
562.025	1	10
562.195	1	-11
562.365	1	11
562.535	1	7
562.705	1	14
562.875	1	10
563.045	1	2
563.215	1	7
563.385	1	15
563.555	1	13
563.725	1	8
563.895	1	11
564.064	1	16
564.234	1	11
564.404	1	6
564.574	1	11
564.744	1	2
564.914	1	8
565.084	1	-3
565.254	1	8
565.424	1	5
565.594	1	12
565.764	1	9
565.934	1	4
566.104	1	0
566.274	1	5
566.444	1	21
566.614	1	10
566.783	1	17
566.953	1	8
567.123	1	4
567.293	1	16
567.463	1	-1
567.633	1	0
567.803	1	11
567.973	1	1
568.143	1	16
568.313	1	5
568.483	1	8
568.653	1	8
568.823	1	-3
568.993	1	5
569.162	1	18
569.332	1	15
569.502	1	10
569.672	1	1
569.842	1	7
570.012	1	6
570.182	1	3
570.352	1	-6
570.522	1	-11
570.692	1	13
570.862	1	20
571.031	1	13
571.201	1	5
571.371	1	6
571.541	1	1
571.711	1	10
571.881	1	-2
572.051	1	10
572.221	1	6
572.391	1	21
572.561	1	2
572.731	1	14
572.900	1	12
573.070	1	3
573.240	1	2
573.410	1	6
573.580	1	9
573.750	1	7
573.920	1	5
574.090	1	3
574.260	1	4
574.430	1	13
574.599	1	4
574.769	1	6
574.939	1	12
575.109	1	14
575.279	1	-1
575.449	1	12
575.619	1	10
575.789	1	8
575.959	1	11
576.128	1	-2
576.298	1	8
576.468	1	7
576.638	1	3
576.808	1	2
576.978	1	0
577.148	1	4
577.318	1	8
577.487	1	13
577.657	1	11
577.827	1	-3
577.997	1	9
578.167	1	9
578.337	1	1
578.507	1	-3
578.677	1	12
578.846	1	0
579.016	1	8
579.186	1	5
579.356	1	9
579.526	1	13
579.696	1	7
579.866	1	17
580.036	1	1
580.205	1	2
580.375	1	-1
580.545	1	5
580.715	1	9
580.885	1	13
581.055	1	0
581.225	1	1
581.394	1	1
581.564	1	9
581.734	1	8
581.904	1	1
582.074	1	4
582.244	1	2
582.414	1	-2
582.583	1	16
582.753	1	6
582.923	1	10
583.093	1	10
583.263	1	3
583.433	1	8
583.603	1	6
583.772	1	8
583.942	1	2
584.112	1	9
584.282	1	7
584.452	1	14
584.622	1	-6
584.791	1	8
584.961	1	-2
585.131	1	7
585.301	1	7
585.471	1	14
585.641	1	12
585.811	1	6
585.980	1	9
586.150	1	9
586.320	1	2
586.490	1	2
586.660	1	-3
586.830	1	-3
586.999	1	-3
587.169	1	4
587.339	1	4
587.509	1	7
587.679	1	5
587.849	1	11
588.018	1	11
588.188	1	5
588.358	1	-4
588.528	1	9
588.698	1	3
588.867	1	9
589.037	1	7
589.207	1	3
589.377	1	10
589.547	1	2
589.717	1	2
589.886	1	9
590.056	1	4
590.226	1	11
590.396	1	2
590.566	1	5
590.735	1	5
590.905	1	7
591.075	1	10
591.245	1	6
591.415	1	16
591.585	1	7
591.754	1	-2
591.924	1	-1
592.094	1	2
592.264	1	1
592.434	1	9
592.603	1	0
592.773	1	9
592.943	1	-1
593.113	1	-5
593.283	1	-2
593.452	1	9
593.622	1	10
593.792	1	-5
593.962	1	12
594.132	1	3
594.301	1	-11
594.471	1	7
594.641	1	11
594.811	1	5
594.981	1	-5
595.150	1	6
595.320	1	11
595.490	1	8
595.660	1	1
595.829	1	4
595.999	1	9
596.169	1	5
596.339	1	16
596.509	1	-1
596.678	1	4
596.848	1	9
597.018	1	14
597.188	1	9
597.358	1	-9
597.527	1	0
597.697	1	2
597.867	1	13
598.037	1	6
598.206	1	2
598.376	1	8
598.546	1	13
598.716	1	4
598.885	1	11
599.055	1	-2
599.225	1	11
599.395	1	-3
599.565	1	5
599.734	1	-3
599.904	1	3
600.074	1	7
600.244	1	2
600.413	1	6
600.583	1	-2
600.753	1	7
600.923	1	5
601.092	1	1
601.262	1	-1
601.432	1	3
601.602	1	3
601.771	1	13
601.941	1	-4
602.111	1	4
602.281	1	11
602.451	1	2
602.620	1	0
602.790	1	3
602.960	1	3
603.130	1	3
603.299	1	8
603.469	1	5
603.639	1	-10
603.809	1	7
603.978	1	8
604.148	1	15
604.318	1	-8
604.487	1	8
604.657	1	-5
604.827	1	6
604.997	1	17
605.166	1	6
605.336	1	3
605.506	1	0
605.676	1	0
605.845	1	0
606.015	1	4
606.185	1	6
606.355	1	15
606.524	1	2
606.694	1	0
606.864	1	9
607.034	1	6
607.203	1	-1
607.373	1	8
607.543	1	4
607.712	1	9
607.882	1	7
608.052	1	-1
608.222	1	-2
608.391	1	13
608.561	1	0
608.731	1	8
608.901	1	15
609.070	1	7
609.240	1	2
609.410	1	11
609.579	1	14
609.749	1	-4
609.919	1	17
610.089	1	9
610.258	1	11
610.428	1	9
610.598	1	8
610.767	1	9
610.937	1	15
611.107	1	7
611.277	1	7
611.446	1	7
611.616	1	-1
611.786	1	8
611.955	1	2
612.125	1	6
612.295	1	4
612.465	1	-2
612.634	1	1
612.804	1	12
612.974	1	2
613.143	1	10
613.313	1	0
613.483	1	0
613.652	1	-2
613.822	1	-8
613.992	1	4
614.162	1	5
614.331	1	0
614.501	1	21
614.671	1	-1
614.840	1	1
615.010	1	-3
615.180	1	14
615.349	1	2
615.519	1	-2
615.689	1	9
615.858	1	2
616.028	1	9
616.198	1	9
616.368	1	3
616.537	1	10
616.707	1	16
616.877	1	-1
617.046	1	5
617.216	1	8
617.386	1	1
617.555	1	-9
617.725	1	-1
617.895	1	7
618.064	1	15
618.234	1	-1
618.404	1	7
618.573	1	5
618.743	1	9
618.913	1	-8
619.082	1	0
619.252	1	-5
619.422	1	4
619.591	1	-3
619.761	1	11
619.931	1	-4
620.100	1	-3
620.270	1	0
620.440	1	2
620.609	1	-6
620.779	1	0
620.949	1	-2
621.118	1	-3
621.288	1	-5
621.458	1	8
621.627	1	16
621.797	1	4
621.967	1	7
622.136	1	5
622.306	1	11
622.476	1	0
622.645	1	18
622.815	1	-3
622.985	1	6
623.154	1	4
623.324	1	4
623.494	1	9
623.663	1	5
623.833	1	13
624.002	1	13
624.172	1	1
624.342	1	3
624.511	1	7
624.681	1	8
624.851	1	-4
625.020	1	4
625.190	1	8
625.360	1	9
625.529	1	9
625.699	1	-6
625.869	1	3
626.038	1	14
626.208	1	1
626.377	1	13
626.547	1	-4
626.717	1	12
626.886	1	3
627.056	1	3
627.226	1	-5
627.395	1	-1
627.565	1	6
627.735	1	18
627.904	1	3
628.074	1	15
628.243	1	11
628.413	1	2
628.583	1	-10
628.752	1	0
628.922	1	0
629.091	1	2
629.261	1	-18
629.431	1	8
629.600	1	2
629.770	1	-5
629.940	1	12
630.109	1	12
630.279	1	8
630.448	1	6
630.618	1	2
630.788	1	-5
630.957	1	2
631.127	1	0
631.297	1	-5
631.466	1	12
631.636	1	5
631.805	1	7
631.975	1	10
632.145	1	-10
632.314	1	12
632.484	1	2
632.653	1	-2
632.823	1	2
632.993	1	0
633.162	1	13
633.332	1	-4
633.501	1	6
633.671	1	-6
633.841	1	13
634.010	1	-9
634.180	1	12
634.349	1	4
634.519	1	5
634.689	1	12
634.858	1	9
635.028	1	7
635.197	1	8
635.367	1	8
635.537	1	-7
635.706	1	3
635.876	1	9
636.045	1	6
636.215	1	0
636.384	1	7
636.554	1	10
636.724	1	17
636.893	1	1
637.063	1	6
637.232	1	-4
637.402	1	1
637.572	1	-1
637.741	1	11
637.911	1	2
638.080	1	13
638.250	1	5
638.419	1	2
638.589	1	2
638.759	1	5
638.928	1	3
639.098	1	4
639.267	1	11
639.437	1	10
639.606	1	6
639.776	1	2
639.946	1	5
640.115	1	5
640.285	1	7
640.454	1	6
640.624	1	-9
640.793	1	-5
640.963	1	-2
641.132	1	12
641.302	1	11
641.472	1	10
641.641	1	3
641.811	1	-5
641.980	1	0
642.150	1	-4
642.319	1	14
642.489	1	2
642.659	1	4
642.828	1	5
642.998	1	12
643.167	1	3
643.337	1	5
643.506	1	13
643.676	1	6
643.845	1	-4
644.015	1	7
644.184	1	4
644.354	1	0
644.524	1	-8
644.693	1	1
644.863	1	1
645.032	1	-1
645.202	1	6
645.371	1	15
645.541	1	2
645.710	1	17
645.880	1	11
646.049	1	5
646.219	1	5
646.388	1	10
646.558	1	-1
646.728	1	13
646.897	1	3
647.067	1	-4
647.236	1	1
647.406	1	8
647.575	1	-2
647.745	1	9
647.914	1	-1
648.084	1	-3
648.253	1	9
648.423	1	13
648.592	1	-1
648.762	1	2
648.931	1	3
649.101	1	-3
649.270	1	-8
649.440	1	-1
649.610	1	0
649.779	1	3
649.949	1	1
650.118	1	-3
650.288	1	11
650.457	1	2
650.627	1	5
650.796	1	-6
650.966	1	9
651.135	1	15
651.305	1	-10
651.474	1	0
651.644	1	1
651.813	1	-4
651.983	1	-7
652.152	1	8
652.322	1	-3
652.491	1	1
652.661	1	-4
652.830	1	3
653.000	1	10
653.169	1	2
653.339	1	-2
653.508	1	7
653.678	1	0
653.847	1	3
654.017	1	-2
654.186	1	-7
654.356	1	10
654.525	1	0
654.695	1	4
654.864	1	2
655.034	1	2
655.203	1	-4
655.373	1	0
655.542	1	-1
655.712	1	7
655.881	1	14
656.051	1	8
656.220	1	0
656.390	1	-7
656.559	1	0
656.729	1	1
656.898	1	0
657.068	1	6
657.237	1	9
657.406	1	9
657.576	1	1
657.745	1	3
657.915	1	9
658.084	1	4
658.254	1	2
658.423	1	4
658.593	1	6
658.762	1	13
658.932	1	16
659.101	1	-2
659.271	1	1
659.440	1	-5
659.610	1	4
659.779	1	-2
659.949	1	3
660.118	1	4
660.288	1	-2
660.457	1	-4
660.626	1	-4
660.796	1	7
660.965	1	-1
661.135	1	5
661.304	1	8
661.474	1	5
661.643	1	7
661.813	1	2
661.982	1	0
662.152	1	-5
662.321	1	-4
662.491	1	11
662.660	1	11
662.829	1	9
662.999	1	0
663.168	1	-3
663.338	1	6
663.507	1	5
663.677	1	7
663.846	1	-2
664.016	1	14
664.185	1	-2
664.354	1	12
664.524	1	-4
664.693	1	9
664.863	1	-1
665.032	1	2
665.202	1	-7
665.371	1	-1
665.541	1	4
665.710	1	2
665.879	1	2
666.049	1	7
666.218	1	4
666.388	1	0
666.557	1	4
666.727	1	-9
666.896	1	4
667.065	1	22
667.235	1	11
667.404	1	2
667.574	1	15
667.743	1	0
667.913	1	6
668.082	1	10
668.251	1	6
668.421	1	-6
668.590	1	5
668.760	1	1
668.929	1	12
669.099	1	-13
669.268	1	1
669.437	1	-7
669.607	1	5
669.776	1	6
669.946	1	11
670.115	1	8
670.285	1	6
670.454	1	1
670.623	1	14
670.793	1	-7
670.962	1	-3
671.132	1	1
671.301	1	0
671.470	1	7
671.640	1	-14
671.809	1	0
671.979	1	5
672.148	1	5
672.317	1	-8
672.487	1	-5
672.656	1	2
672.826	1	-2
672.995	1	9
673.164	1	3
673.334	1	-10
673.503	1	-4
673.673	1	12
673.842	1	7
674.011	1	9
674.181	1	13
674.350	1	4
674.520	1	4
674.689	1	12
674.858	1	4
675.028	1	5
675.197	1	1
675.367	1	-4
675.536	1	5
675.705	1	14
675.875	1	11
676.044	1	9
676.214	1	10
676.383	1	6
676.552	1	0
676.722	1	4
676.891	1	6
677.060	1	9
677.230	1	8
677.399	1	0
677.569	1	9
677.738	1	-6
677.907	1	8
678.077	1	1
678.246	1	9
678.416	1	5
678.585	1	8
678.754	1	12
678.924	1	-4
679.093	1	3
679.262	1	1
679.432	1	1
679.601	1	1
679.771	1	4
679.940	1	1
680.109	1	-1
680.279	1	11
680.448	1	4
680.617	1	-13
680.787	1	9
680.956	1	1
681.125	1	8
681.295	1	-2
681.464	1	-1
681.634	1	13
681.803	1	0
681.972	1	-5
682.142	1	-1
682.311	1	-1
682.480	1	16
682.650	1	-3
682.819	1	0
682.988	1	-5
683.158	1	-5
683.327	1	0
683.496	1	-3
683.666	1	5
683.835	1	-6
684.004	1	2
684.174	1	7
684.343	1	-2
684.512	1	7
684.682	1	-7
684.851	1	1
685.021	1	15
685.190	1	9
685.359	1	-4
685.529	1	-3
685.698	1	3
685.867	1	-1
686.037	1	6
686.206	1	7
686.375	1	0
686.545	1	-1
686.714	1	-6
686.883	1	3
687.053	1	3
687.222	1	2
687.391	1	-3
687.561	1	8
687.730	1	-5
687.899	1	-1
688.069	1	-1
688.238	1	8
688.407	1	9
688.577	1	3
688.746	1	8
