340.368	1	6
340.539	1	3
340.710	1	17
340.881	1	10
341.052	1	-1
341.223	1	6
341.394	1	0
341.565	1	4
341.737	1	-1
341.908	1	12
342.079	1	11
342.250	1	8
342.421	1	12
342.592	1	2
342.763	1	13
342.934	1	8
343.105	1	10
343.276	1	4
343.447	1	2
343.618	1	3
343.789	1	4
343.960	1	-2
344.131	1	11
344.302	1	15
344.473	1	13
344.644	1	6
344.815	1	2
344.986	1	18
345.157	1	5
345.328	1	8
345.499	1	-4
345.670	1	2
345.841	1	0
346.012	1	10
346.183	1	9
346.354	1	3
346.526	1	6
346.697	1	6
346.868	1	7
347.039	1	4
347.210	1	9
347.381	1	5
347.552	1	4
347.723	1	11
347.894	1	3
348.065	1	6
348.236	1	7
348.407	1	10
348.578	1	10
348.749	1	10
348.920	1	9
349.091	1	8
349.262	1	9
349.433	1	17
349.604	1	6
349.775	1	5
349.946	1	6
350.117	1	18
350.288	1	-2
350.459	1	5
350.630	1	8
350.801	1	1
350.972	1	17
351.143	1	8
351.314	1	2
351.485	1	15
351.656	1	17
351.827	1	10
351.998	1	17
352.169	1	14
352.340	1	19
352.511	1	12
352.682	1	13
352.853	1	15
353.024	1	16
353.195	1	9
353.366	1	21
353.537	1	13
353.708	1	9
353.879	1	19
354.050	1	14
354.221	1	16
354.392	1	25
354.563	1	18
354.734	1	18
354.905	1	21
355.076	1	22
355.247	1	24
355.418	1	28
355.589	1	16
355.760	1	22
355.931	1	20
356.102	1	17
356.273	1	25
356.444	1	20
356.615	1	21
356.785	1	34
356.956	1	44
357.127	1	34
357.298	1	20
357.469	1	41
357.640	1	37
357.811	1	37
357.982	1	42
358.153	1	32
358.324	1	33
358.495	1	42
358.666	1	50
358.837	1	49
359.008	1	54
359.179	1	57
359.350	1	49
359.521	1	48
359.692	1	50
359.863	1	63
360.034	1	73
360.205	1	68
360.376	1	67
360.547	1	71
360.718	1	74
360.889	1	80
361.060	1	93
361.231	1	88
361.401	1	87
361.572	1	108
361.743	1	122
361.914	1	117
362.085	1	134
362.256	1	127
362.427	1	142
362.598	1	146
362.769	1	167
362.940	1	153
363.111	1	188
363.282	1	201
363.453	1	200
363.624	1	230
363.795	1	231
363.966	1	250
364.137	1	270
364.308	1	302
364.478	1	302
364.649	1	335
364.820	1	336
364.991	1	359
365.162	1	384
365.333	1	400
365.504	1	434
365.675	1	449
365.846	1	476
366.017	1	480
366.188	1	515
366.359	1	514
366.530	1	562
366.701	1	545
366.871	1	568
367.042	1	599
367.213	1	615
367.384	1	617
367.555	1	590
367.726	1	622
367.897	1	627
368.068	1	606
368.239	1	609
368.410	1	593
368.581	1	602
368.752	1	568
368.923	1	583
369.093	1	571
369.264	1	541
369.435	1	522
369.606	1	522
369.777	1	504
369.948	1	478
370.119	1	452
370.290	1	459
370.461	1	430
370.632	1	399
370.803	1	392
370.973	1	377
371.144	1	374
371.315	1	363
371.486	1	372
371.657	1	327
371.828	1	314
371.999	1	323
372.170	1	319
372.341	1	296
372.512	1	284
372.682	1	289
372.853	1	261
373.024	1	258
373.195	1	272
373.366	1	248
373.537	1	264
373.708	1	228
373.879	1	237
374.050	1	241
374.220	1	229
374.391	1	216
374.562	1	213
374.733	1	206
374.904	1	199
375.075	1	207
375.246	1	202
375.417	1	191
375.588	1	175
375.758	1	170
375.929	1	176
376.100	1	155
376.271	1	162
376.442	1	172
376.613	1	144
376.784	1	142
376.955	1	159
377.125	1	140
377.296	1	136
377.467	1	132
377.638	1	124
377.809	1	116
377.980	1	127
378.151	1	130
378.321	1	121
378.492	1	117
378.663	1	129
378.834	1	118
379.005	1	116
379.176	1	111
379.347	1	109
379.518	1	108
379.688	1	103
379.859	1	99
380.030	1	105
380.201	1	108
380.372	1	102
380.543	1	102
380.714	1	109
380.884	1	105
381.055	1	104
381.226	1	114
381.397	1	104
381.568	1	99
381.739	1	114
381.910	1	117
382.080	1	106
382.251	1	113
382.422	1	124
382.593	1	112
382.764	1	115
382.935	1	113
383.105	1	134
383.276	1	108
383.447	1	124
383.618	1	127
383.789	1	119
383.960	1	127
384.130	1	128
384.301	1	120
384.472	1	123
384.643	1	138
384.814	1	129
384.985	1	136
385.156	1	141
385.326	1	142
385.497	1	135
385.668	1	135
385.839	1	141
386.010	1	130
386.180	1	139
386.351	1	136
386.522	1	141
386.693	1	140
386.864	1	148
387.035	1	142
387.205	1	134
387.376	1	128
387.547	1	127
387.718	1	122
387.889	1	122
388.060	1	124
388.230	1	122
388.401	1	116
388.572	1	129
388.743	1	118
388.914	1	111
389.084	1	118
389.255	1	116
389.426	1	115
389.597	1	103
389.768	1	97
389.939	1	124
390.109	1	110
390.280	1	108
390.451	1	109
390.622	1	105
390.793	1	105
390.963	1	114
391.134	1	114
391.305	1	109
391.476	1	112
391.647	1	111
391.817	1	114
391.988	1	98
392.159	1	103
392.330	1	96
392.501	1	114
392.671	1	96
392.842	1	102
393.013	1	112
393.184	1	97
393.355	1	111
393.525	1	108
393.696	1	95
393.867	1	93
394.038	1	106
394.208	1	87
394.379	1	95
394.550	1	104
394.721	1	108
394.892	1	107
395.062	1	96
395.233	1	95
395.404	1	86
395.575	1	105
395.746	1	107
395.916	1	105
396.087	1	109
396.258	1	102
396.429	1	103
396.599	1	97
396.770	1	103
396.941	1	95
397.112	1	99
397.283	1	92
397.453	1	95
397.624	1	98
397.795	1	86
397.966	1	97
398.136	1	101
398.307	1	105
398.478	1	96
398.649	1	105
398.819	1	85
398.990	1	101
399.161	1	102
399.332	1	100
399.503	1	107
399.673	1	98
399.844	1	92
400.015	1	98
400.186	1	80
400.356	1	91
400.527	1	98
400.698	1	78
400.869	1	81
401.039	1	86
401.210	1	73
401.381	1	86
401.552	1	81
401.722	1	69
401.893	1	52
402.064	1	62
402.235	1	71
402.405	1	79
402.576	1	72
402.747	1	68
402.918	1	72
403.088	1	59
403.259	1	62
403.430	1	72
403.601	1	72
403.771	1	65
403.942	1	69
404.113	1	64
404.284	1	54
404.454	1	76
404.625	1	69
404.796	1	70
404.967	1	61
405.137	1	77
405.308	1	59
405.479	1	58
405.649	1	62
405.820	1	78
405.991	1	67
406.162	1	56
406.332	1	68
406.503	1	66
406.674	1	76
406.845	1	60
407.015	1	74
407.186	1	57
407.357	1	58
407.527	1	60
407.698	1	69
407.869	1	73
408.040	1	60
408.210	1	53
408.381	1	68
408.552	1	53
408.722	1	66
408.893	1	58
409.064	1	65
409.235	1	41
409.405	1	64
409.576	1	54
409.747	1	48
409.917	1	48
410.088	1	63
410.259	1	64
410.430	1	66
410.600	1	55
410.771	1	43
410.942	1	50
411.112	1	61
411.283	1	44
411.454	1	50
411.625	1	50
411.795	1	47
411.966	1	43
412.137	1	39
412.307	1	57
412.478	1	48
412.649	1	60
412.819	1	46
412.990	1	44
413.161	1	50
413.332	1	48
413.502	1	63
413.673	1	47
413.844	1	42
414.014	1	47
414.185	1	47
414.356	1	43
414.526	1	43
414.697	1	31
414.868	1	34
415.038	1	34
415.209	1	40
415.380	1	49
415.550	1	39
415.721	1	39
415.892	1	44
416.063	1	40
416.233	1	47
416.404	1	50
416.575	1	46
416.745	1	44
416.916	1	32
417.087	1	43
417.257	1	38
417.428	1	44
417.599	1	44
417.769	1	38
417.940	1	42
418.111	1	40
418.281	1	34
418.452	1	46
418.623	1	35
418.793	1	41
418.964	1	43
419.135	1	46
419.305	1	38
419.476	1	48
419.647	1	41
419.817	1	35
419.988	1	42
420.159	1	42
420.329	1	49
420.500	1	29
420.671	1	29
420.841	1	50
421.012	1	37
421.183	1	45
421.353	1	40
421.524	1	30
421.695	1	29
421.865	1	40
422.036	1	33
422.206	1	34
422.377	1	30
422.548	1	39
422.718	1	29
422.889	1	28
423.060	1	27
423.230	1	33
423.401	1	35
423.572	1	19
423.742	1	33
423.913	1	37
424.084	1	44
424.254	1	40
424.425	1	28
424.595	1	28
424.766	1	33
424.937	1	34
425.107	1	31
425.278	1	19
425.449	1	31
425.619	1	36
425.790	1	32
425.961	1	38
426.131	1	45
426.302	1	19
426.472	1	30
426.643	1	27
426.814	1	25
426.984	1	26
427.155	1	27
427.326	1	27
427.496	1	43
427.667	1	35
427.837	1	29
428.008	1	36
428.179	1	33
428.349	1	29
428.520	1	31
428.691	1	24
428.861	1	22
429.032	1	25
429.202	1	27
429.373	1	22
429.544	1	40
429.714	1	24
429.885	1	29
430.055	1	24
430.226	1	25
430.397	1	23
430.567	1	35
430.738	1	23
430.909	1	26
431.079	1	40
431.250	1	36
431.420	1	14
431.591	1	22
431.762	1	29
431.932	1	24
432.103	1	9
432.273	1	25
432.444	1	33
432.615	1	28
432.785	1	19
432.956	1	13
433.126	1	22
433.297	1	30
433.468	1	26
433.638	1	21
433.809	1	36
433.979	1	22
434.150	1	9
434.320	1	23
434.491	1	20
434.662	1	17
434.832	1	18
435.003	1	33
435.173	1	25
435.344	1	33
435.515	1	19
435.685	1	17
435.856	1	18
436.026	1	20
436.197	1	34
436.368	1	18
436.538	1	25
436.709	1	20
436.879	1	14
437.050	1	22
437.220	1	13
437.391	1	26
437.562	1	20
437.732	1	24
437.903	1	24
438.073	1	30
438.244	1	23
438.414	1	17
438.585	1	20
438.756	1	28
438.926	1	16
439.097	1	24
439.267	1	32
439.438	1	18
439.608	1	26
439.779	1	34
439.949	1	24
440.120	1	11
440.291	1	27
440.461	1	32
440.632	1	20
440.802	1	8
440.973	1	13
441.143	1	6
441.314	1	14
441.485	1	24
441.655	1	19
441.826	1	17
441.996	1	28
442.167	1	15
442.337	1	20
442.508	1	17
442.678	1	5
442.849	1	23
443.019	1	18
443.190	1	20
443.361	1	18
443.531	1	12
443.702	1	19
443.872	1	18
444.043	1	3
444.213	1	11
444.384	1	22
444.554	1	18
444.725	1	23
444.895	1	18
445.066	1	15
445.237	1	8
445.407	1	20
445.578	1	10
445.748	1	23
445.919	1	8
446.089	1	14
446.260	1	10
446.430	1	16
446.601	1	22
446.771	1	13
446.942	1	14
447.112	1	9
447.283	1	26
447.453	1	17
447.624	1	16
447.794	1	27
447.965	1	12
448.135	1	18
448.306	1	17
448.477	1	22
448.647	1	27
448.818	1	11
448.988	1	19
449.159	1	17
449.329	1	19
449.500	1	5
449.670	1	9
449.841	1	-1
450.011	1	10
450.182	1	29
450.352	1	14
450.523	1	19
450.693	1	17
450.864	1	12
451.034	1	10
451.205	1	12
451.375	1	13
451.546	1	29
451.716	1	7
451.887	1	2
452.057	1	31
452.228	1	13
452.398	1	8
452.569	1	13
452.739	1	12
452.910	1	21
453.080	1	10
453.251	1	21
453.421	1	20
453.592	1	23
453.762	1	18
453.933	1	12
454.103	1	10
454.274	1	15
454.444	1	19
454.615	1	14
454.785	1	16
454.956	1	8
455.126	1	4
455.297	1	13
455.467	1	8
455.638	1	20
455.808	1	28
455.979	1	21
456.149	1	12
456.320	1	5
456.490	1	21
456.661	1	17
456.831	1	11
457.001	1	9
457.172	1	12
457.342	1	13
457.513	1	18
457.683	1	14
457.854	1	18
458.024	1	23
458.195	1	11
458.365	1	25
458.536	1	11
458.706	1	17
458.877	1	24
459.047	1	10
459.218	1	13
459.388	1	13
459.559	1	6
459.729	1	19
459.899	1	4
460.070	1	23
460.240	1	21
460.411	1	17
460.581	1	7
460.752	1	18
460.922	1	14
461.093	1	17
461.263	1	23
461.434	1	28
461.604	1	6
461.775	1	4
461.945	1	20
462.115	1	9
462.286	1	23
462.456	1	15
462.627	1	11
462.797	1	10
462.968	1	15
463.138	1	15
463.309	1	19
463.479	1	19
463.649	1	11
463.820	1	20
463.990	1	15
464.161	1	12
464.331	1	20
464.502	1	9
464.672	1	14
464.843	1	20
465.013	1	8
465.183	1	14
465.354	1	14
465.524	1	10
465.695	1	18
465.865	1	7
466.036	1	15
466.206	1	20
466.376	1	12
466.547	1	8
466.717	1	26
466.888	1	10
467.058	1	13
467.229	1	14
467.399	1	9
467.569	1	5
467.740	1	29
467.910	1	16
468.081	1	25
468.251	1	6
468.422	1	18
468.592	1	13
468.762	1	10
468.933	1	21
469.103	1	25
469.274	1	27
469.444	1	10
469.614	1	17
469.785	1	12
469.955	1	13
470.126	1	12
470.296	1	15
470.467	1	14
470.637	1	10
470.807	1	18
470.978	1	14
471.148	1	11
471.319	1	12
471.489	1	5
471.659	1	12
471.830	1	21
472.000	1	17
472.171	1	21
472.341	1	6
472.511	1	22
472.682	1	17
472.852	1	23
473.023	1	14
473.193	1	20
473.363	1	19
473.534	1	20
473.704	1	7
473.875	1	24
474.045	1	17
474.215	1	19
474.386	1	20
474.556	1	20
474.727	1	23
474.897	1	15
475.067	1	18
475.238	1	19
475.408	1	21
475.578	1	12
475.749	1	24
475.919	1	12
476.090	1	23
476.260	1	21
476.430	1	15
476.601	1	17
476.771	1	14
476.942	1	25
477.112	1	23
477.282	1	21
477.453	1	21
477.623	1	12
477.793	1	20
477.964	1	9
478.134	1	24
478.305	1	19
478.475	1	13
478.645	1	18
478.816	1	15
478.986	1	22
479.156	1	17
479.327	1	10
479.497	1	19
479.667	1	22
479.838	1	20
480.008	1	19
480.179	1	16
480.349	1	25
480.519	1	6
480.690	1	21
480.860	1	28
481.030	1	25
481.201	1	27
481.371	1	29
481.541	1	19
481.712	1	23
481.882	1	19
482.053	1	20
482.223	1	20
482.393	1	27
482.564	1	22
482.734	1	23
482.904	1	27
483.075	1	25
483.245	1	24
483.415	1	22
483.586	1	22
483.756	1	23
483.926	1	21
484.097	1	33
484.267	1	28
484.437	1	18
484.608	1	43
484.778	1	28
484.948	1	29
485.119	1	37
485.289	1	29
485.459	1	19
485.630	1	26
485.800	1	46
485.970	1	28
486.141	1	30
486.311	1	40
486.481	1	25
486.652	1	39
486.822	1	47
486.992	1	26
487.163	1	39
487.333	1	22
487.503	1	31
487.674	1	42
487.844	1	32
488.014	1	47
488.185	1	39
488.355	1	53
488.525	1	35
488.696	1	36
488.866	1	42
489.036	1	36
489.207	1	33
489.377	1	39
489.547	1	46
489.718	1	50
489.888	1	51
490.058	1	49
490.228	1	42
490.399	1	44
490.569	1	43
490.739	1	51
490.910	1	37
491.080	1	43
491.250	1	51
491.421	1	52
491.591	1	54
491.761	1	51
491.932	1	47
492.102	1	58
492.272	1	45
492.442	1	54
492.613	1	52
492.783	1	51
492.953	1	52
493.124	1	50
493.294	1	57
493.464	1	51
493.635	1	55
493.805	1	61
493.975	1	63
494.145	1	62
494.316	1	59
494.486	1	62
494.656	1	55
494.827	1	66
494.997	1	60
495.167	1	59
495.337	1	62
495.508	1	57
495.678	1	60
495.848	1	75
496.019	1	55
496.189	1	59
496.359	1	73
496.529	1	79
496.700	1	60
496.870	1	72
497.040	1	75
497.211	1	66
497.381	1	75
497.551	1	87
497.721	1	69
497.892	1	70
498.062	1	61
498.232	1	75
498.403	1	66
498.573	1	82
498.743	1	71
498.913	1	92
499.084	1	87
499.254	1	76
499.424	1	71
499.594	1	80
499.765	1	74
499.935	1	71
500.105	1	66
500.275	1	78
500.446	1	79
500.616	1	81
500.786	1	85
500.956	1	83
501.127	1	81
501.297	1	74
501.467	1	79
501.638	1	91
501.808	1	78
501.978	1	81
502.148	1	89
502.319	1	91
502.489	1	86
502.659	1	89
502.829	1	95
503.000	1	95
503.170	1	90
503.340	1	84
503.510	1	93
503.681	1	96
503.851	1	94
504.021	1	90
504.191	1	96
504.362	1	100
504.532	1	104
504.702	1	101
504.872	1	106
505.042	1	105
505.213	1	100
505.383	1	104
505.553	1	112
505.723	1	127
505.894	1	109
506.064	1	105
506.234	1	109
506.404	1	104
506.575	1	114
506.745	1	115
506.915	1	125
507.085	1	114
507.256	1	123
507.426	1	119
507.596	1	114
507.766	1	117
507.936	1	122
508.107	1	124
508.277	1	108
508.447	1	121
508.617	1	117
508.788	1	119
508.958	1	129
509.128	1	138
509.298	1	105
509.468	1	122
509.639	1	133
509.809	1	129
509.979	1	121
510.149	1	121
510.319	1	132
510.490	1	120
510.660	1	115
510.830	1	141
511.000	1	128
511.171	1	135
511.341	1	134
511.511	1	130
511.681	1	130
511.851	1	134
512.022	1	122
512.192	1	120
512.362	1	123
512.532	1	139
512.702	1	143
512.873	1	138
513.043	1	136
513.213	1	135
513.383	1	137
513.553	1	140
513.724	1	136
513.894	1	136
514.064	1	120
514.234	1	140
514.404	1	141
514.575	1	141
514.745	1	127
514.915	1	135
515.085	1	143
515.255	1	136
515.425	1	138
515.596	1	127
515.766	1	148
515.936	1	164
516.106	1	142
516.276	1	139
516.447	1	145
516.617	1	145
516.787	1	141
516.957	1	139
517.127	1	148
517.297	1	147
517.468	1	159
517.638	1	171
517.808	1	146
517.978	1	140
518.148	1	151
518.319	1	147
518.489	1	153
518.659	1	155
518.829	1	173
518.999	1	154
519.169	1	175
519.340	1	157
519.510	1	148
519.680	1	170
519.850	1	180
520.020	1	173
520.190	1	168
520.361	1	180
520.531	1	176
520.701	1	170
520.871	1	159
521.041	1	191
521.211	1	174
521.382	1	182
521.552	1	176
521.722	1	174
521.892	1	171
522.062	1	171
522.232	1	161
522.402	1	177
522.573	1	178
522.743	1	173
522.913	1	182
523.083	1	178
523.253	1	179
523.423	1	183
523.593	1	186
523.764	1	172
523.934	1	169
524.104	1	169
524.274	1	164
524.444	1	168
524.614	1	168
524.784	1	184
524.955	1	182
525.125	1	170
525.295	1	165
525.465	1	175
525.635	1	170
525.805	1	178
525.975	1	183
526.146	1	170
526.316	1	162
526.486	1	179
526.656	1	182
526.826	1	190
526.996	1	181
527.166	1	171
527.337	1	175
527.507	1	191
527.677	1	160
527.847	1	185
528.017	1	160
528.187	1	173
528.357	1	167
528.527	1	179
528.698	1	166
528.868	1	171
529.038	1	163
529.208	1	181
529.378	1	182
529.548	1	167
529.718	1	170
529.888	1	172
530.058	1	190
530.229	1	178
530.399	1	185
530.569	1	179
530.739	1	180
530.909	1	174
531.079	1	176
531.249	1	179
531.419	1	171
531.589	1	174
531.760	1	184
531.930	1	176
532.100	1	192
532.270	1	185
532.440	1	187
532.610	1	184
532.780	1	168
532.950	1	202
533.120	1	177
533.290	1	193
533.461	1	175
533.631	1	189
533.801	1	190
533.971	1	173
534.141	1	190
534.311	1	182
534.481	1	183
534.651	1	186
534.821	1	187
534.991	1	175
535.162	1	183
535.332	1	193
535.502	1	172
535.672	1	180
535.842	1	185
536.012	1	185
536.182	1	173
536.352	1	184
536.522	1	177
536.692	1	181
536.862	1	172
537.032	1	172
537.203	1	171
537.373	1	182
537.543	1	181
537.713	1	190
537.883	1	174
538.053	1	158
538.223	1	166
538.393	1	177
538.563	1	180
538.733	1	178
538.903	1	179
539.073	1	172
539.243	1	162
539.413	1	188
539.584	1	169
539.754	1	155
539.924	1	162
540.094	1	151
540.264	1	155
540.434	1	166
540.604	1	164
540.774	1	163
540.944	1	160
541.114	1	154
541.284	1	170
541.454	1	160
541.624	1	165
541.794	1	154
541.964	1	150
542.134	1	148
542.305	1	162
542.475	1	156
542.645	1	142
542.815	1	162
542.985	1	149
543.155	1	143
543.325	1	159
543.495	1	145
543.665	1	147
543.835	1	144
544.005	1	162
544.175	1	138
544.345	1	154
544.515	1	148
544.685	1	157
544.855	1	140
545.025	1	139
545.195	1	135
545.365	1	162
545.535	1	149
545.705	1	152
545.875	1	150
546.045	1	142
546.216	1	156
546.386	1	138
546.556	1	136
546.726	1	134
546.896	1	134
547.066	1	149
547.236	1	136
547.406	1	134
547.576	1	145
547.746	1	147
547.916	1	146
548.086	1	137
548.256	1	137
548.426	1	150
548.596	1	144
548.766	1	144
548.936	1	156
549.106	1	128
549.276	1	131
549.446	1	141
549.616	1	149
549.786	1	144
549.956	1	142
550.126	1	147
550.296	1	143
550.466	1	150
550.636	1	132
550.806	1	146
550.976	1	140
551.146	1	137
551.316	1	145
551.486	1	142
551.656	1	133
551.826	1	142
551.996	1	139
552.166	1	134
552.336	1	154
552.506	1	143
552.676	1	144
552.846	1	136
553.016	1	145
553.186	1	136
553.356	1	145
553.526	1	140
553.696	1	128
553.866	1	125
554.036	1	143
554.206	1	140
554.376	1	144
554.546	1	130
554.716	1	129
554.886	1	129
555.056	1	140
555.226	1	132
555.396	1	117
555.566	1	114
555.736	1	121
555.906	1	124
556.076	1	119
556.246	1	124
556.416	1	121
556.586	1	126
556.756	1	124
556.926	1	122
557.096	1	124
557.266	1	119
557.436	1	126
557.606	1	122
557.776	1	109
557.946	1	125
558.116	1	112
558.286	1	115
558.456	1	107
558.626	1	117
558.796	1	129
558.966	1	101
559.136	1	121
559.306	1	103
559.476	1	105
559.646	1	112
559.816	1	113
559.986	1	115
560.155	1	102
560.325	1	106
560.495	1	107
560.665	1	124
560.835	1	116
561.005	1	105
561.175	1	113
561.345	1	108
561.515	1	108
561.685	1	110
561.855	1	99
562.025	1	107
562.195	1	93
562.365	1	108
562.535	1	107
562.705	1	98
562.875	1	101
563.045	1	76
563.215	1	109
563.385	1	107
563.555	1	101
563.725	1	93
563.895	1	98
564.064	1	104
564.234	1	101
564.404	1	92
564.574	1	93
564.744	1	94
564.914	1	99
565.084	1	87
565.254	1	91
565.424	1	79
565.594	1	87
565.764	1	97
565.934	1	87
566.104	1	93
566.274	1	95
566.444	1	98
566.614	1	91
566.783	1	100
566.953	1	80
567.123	1	93
567.293	1	90
567.463	1	83
567.633	1	86
567.803	1	88
567.973	1	79
568.143	1	98
568.313	1	80
568.483	1	99
568.653	1	80
568.823	1	81
568.993	1	87
569.162	1	92
569.332	1	87
569.502	1	78
569.672	1	70
569.842	1	73
570.012	1	77
570.182	1	79
570.352	1	73
570.522	1	65
570.692	1	90
570.862	1	92
571.031	1	94
571.201	1	86
571.371	1	70
571.541	1	84
571.711	1	84
571.881	1	87
572.051	1	66
572.221	1	83
572.391	1	83
572.561	1	79
572.731	1	78
572.900	1	78
573.070	1	84
573.240	1	74
573.410	1	74
573.580	1	72
573.750	1	75
573.920	1	77
574.090	1	66
574.260	1	69
574.430	1	56
574.599	1	76
574.769	1	69
574.939	1	78
575.109	1	73
575.279	1	63
575.449	1	58
575.619	1	72
575.789	1	65
575.959	1	71
576.128	1	65
576.298	1	65
576.468	1	68
576.638	1	64
576.808	1	57
576.978	1	59
577.148	1	65
577.318	1	62
577.487	1	63
577.657	1	82
577.827	1	59
577.997	1	73
578.167	1	60
578.337	1	59
578.507	1	58
578.677	1	67
578.846	1	58
579.016	1	57
579.186	1	58
579.356	1	71
579.526	1	71
579.696	1	47
579.866	1	64
580.036	1	49
580.205	1	56
580.375	1	51
580.545	1	47
580.715	1	60
580.885	1	66
581.055	1	55
581.225	1	52
581.394	1	69
581.564	1	53
581.734	1	52
581.904	1	55
582.074	1	52
582.244	1	45
582.414	1	51
582.583	1	57
582.753	1	51
582.923	1	57
583.093	1	59
583.263	1	59
583.433	1	57
583.603	1	50
583.772	1	55
583.942	1	49
584.112	1	48
584.282	1	38
584.452	1	63
584.622	1	51
584.791	1	63
584.961	1	42
585.131	1	60
585.301	1	55
585.471	1	49
585.641	1	63
585.811	1	50
585.980	1	51
586.150	1	55
586.320	1	54
586.490	1	53
586.660	1	37
586.830	1	40
586.999	1	49
587.169	1	47
587.339	1	50
587.509	1	48
587.679	1	53
587.849	1	64
588.018	1	55
588.188	1	55
588.358	1	49
588.528	1	43
588.698	1	44
588.867	1	57
589.037	1	43
589.207	1	54
589.377	1	42
589.547	1	43
589.717	1	39
589.886	1	45
590.056	1	48
590.226	1	54
590.396	1	46
590.566	1	46
590.735	1	43
590.905	1	56
591.075	1	56
591.245	1	44
591.415	1	47
591.585	1	40
591.754	1	39
591.924	1	35
592.094	1	36
592.264	1	43
592.434	1	48
592.603	1	36
592.773	1	50
592.943	1	46
593.113	1	44
593.283	1	27
593.452	1	40
593.622	1	44
593.792	1	20
593.962	1	43
594.132	1	40
594.301	1	33
594.471	1	37
594.641	1	43
594.811	1	48
594.981	1	36
595.150	1	36
595.320	1	42
595.490	1	36
595.660	1	46
595.829	1	42
595.999	1	41
596.169	1	27
596.339	1	34
596.509	1	36
596.678	1	32
596.848	1	44
597.018	1	41
597.188	1	31
597.358	1	29
597.527	1	32
597.697	1	32
597.867	1	42
598.037	1	33
598.206	1	29
598.376	1	42
598.546	1	32
598.716	1	37
598.885	1	41
599.055	1	29
599.225	1	38
599.395	1	37
599.565	1	33
599.734	1	33
599.904	1	32
600.074	1	41
600.244	1	41
600.413	1	31
600.583	1	23
600.753	1	33
600.923	1	28
601.092	1	24
601.262	1	32
601.432	1	22
601.602	1	23
601.771	1	39
601.941	1	45
602.111	1	25
602.281	1	37
602.451	1	36
602.620	1	31
602.790	1	35
602.960	1	32
603.130	1	37
603.299	1	20
603.469	1	23
603.639	1	25
603.809	1	27
603.978	1	27
604.148	1	41
604.318	1	25
604.487	1	32
604.657	1	28
604.827	1	28
604.997	1	36
605.166	1	38
605.336	1	34
605.506	1	18
605.676	1	32
605.845	1	29
606.015	1	30
606.185	1	31
606.355	1	33
606.524	1	34
606.694	1	18
606.864	1	46
607.034	1	39
607.203	1	22
607.373	1	27
607.543	1	29
607.712	1	27
607.882	1	28
608.052	1	32
608.222	1	20
608.391	1	28
608.561	1	21
608.731	1	25
608.901	1	36
609.070	1	36
609.240	1	22
609.410	1	35
609.579	1	29
609.749	1	34
609.919	1	38
610.089	1	24
610.258	1	26
610.428	1	34
610.598	1	26
610.767	1	35
610.937	1	39
611.107	1	21
611.277	1	33
611.446	1	28
611.616	1	22
611.786	1	34
611.955	1	18
612.125	1	34
612.295	1	37
612.465	1	17
612.634	1	34
612.804	1	36
612.974	1	27
613.143	1	36
613.313	1	17
613.483	1	14
613.652	1	18
613.822	1	23
613.992	1	17
614.162	1	18
614.331	1	28
614.501	1	36
614.671	1	29
614.840	1	12
615.010	1	25
615.180	1	32
615.349	1	22
615.519	1	31
615.689	1	28
615.858	1	17
616.028	1	37
616.198	1	24
616.368	1	23
616.537	1	35
616.707	1	26
616.877	1	21
617.046	1	33
617.216	1	29
617.386	1	21
617.555	1	24
617.725	1	23
617.895	1	17
618.064	1	26
618.234	1	13
618.404	1	19
618.573	1	20
618.743	1	28
618.913	1	20
619.082	1	21
619.252	1	9
619.422	1	14
619.591	1	18
619.761	1	23
619.931	1	9
620.100	1	15
620.270	1	18
620.440	1	19
620.609	1	15
620.779	1	15
620.949	1	23
621.118	1	19
621.288	1	20
621.458	1	19
621.627	1	30
621.797	1	12
621.967	1	32
622.136	1	14
622.306	1	24
622.476	1	28
622.645	1	31
622.815	1	14
622.985	1	15
623.154	1	9
623.324	1	15
623.494	1	16
623.663	1	9
623.833	1	18
624.002	1	20
624.172	1	14
624.342	1	23
624.511	1	18
624.681	1	14
624.851	1	11
625.020	1	15
625.190	1	11
625.360	1	14
625.529	1	17
625.699	1	8
625.869	1	26
626.038	1	21
626.208	1	16
626.377	1	24
626.547	1	17
626.717	1	20
626.886	1	13
627.056	1	30
627.226	1	11
627.395	1	0
627.565	1	12
627.735	1	28
627.904	1	20
628.074	1	23
628.243	1	20
628.413	1	14
628.583	1	9
628.752	1	19
628.922	1	14
629.091	1	17
629.261	1	6
629.431	1	13
629.600	1	20
629.770	1	9
629.940	1	21
630.109	1	32
630.279	1	28
630.448	1	22
630.618	1	22
630.788	1	18
630.957	1	15
631.127	1	18
631.297	1	16
631.466	1	22
631.636	1	15
631.805	1	22
631.975	1	23
632.145	1	15
632.314	1	15
632.484	1	3
632.653	1	12
632.823	1	6
632.993	1	29
633.162	1	21
633.332	1	11
633.501	1	32
633.671	1	11
633.841	1	37
634.010	1	14
634.180	1	13
634.349	1	25
634.519	1	21
634.689	1	20
634.858	1	19
635.028	1	25
635.197	1	26
635.367	1	20
635.537	1	14
635.706	1	10
635.876	1	18
636.045	1	31
636.215	1	21
636.384	1	7
636.554	1	20
636.724	1	26
636.893	1	23
637.063	1	6
637.232	1	14
637.402	1	8
637.572	1	13
637.741	1	22
637.911	1	6
638.080	1	25
638.250	1	22
638.419	1	20
638.589	1	15
638.759	1	12
638.928	1	22
639.098	1	7
639.267	1	18
639.437	1	12
639.606	1	15
639.776	1	18
639.946	1	14
640.115	1	14
640.285	1	21
640.454	1	17
640.624	1	-2
640.793	1	3
640.963	1	6
641.132	1	14
641.302	1	24
641.472	1	13
641.641	1	12
641.811	1	7
641.980	1	8
642.150	1	-1
642.319	1	26
642.489	1	4
642.659	1	16
642.828	1	13
642.998	1	7
643.167	1	20
643.337	1	9
643.506	1	16
643.676	1	11
643.845	1	7
644.015	1	13
644.184	1	2
644.354	1	8
644.524	1	11
644.693	1	11
644.863	1	5
645.032	1	15
645.202	1	14
645.371	1	27
645.541	1	12
645.710	1	18
645.880	1	9
646.049	1	7
646.219	1	22
646.388	1	16
646.558	1	4
646.728	1	23
646.897	1	6
647.067	1	15
647.236	1	6
647.406	1	14
647.575	1	8
647.745	1	18
647.914	1	-1
648.084	1	20
648.253	1	18
648.423	1	25
648.592	1	13
648.762	1	18
648.931	1	-3
649.101	1	9
649.270	1	14
649.440	1	17
649.610	1	9
649.779	1	11
649.949	1	17
650.118	1	10
650.288	1	15
650.457	1	8
650.627	1	12
650.796	1	10
650.966	1	13
651.135	1	14
651.305	1	18
651.474	1	14
651.644	1	13
651.813	1	23
651.983	1	2
652.152	1	6
652.322	1	10
652.491	1	23
652.661	1	9
652.830	1	15
653.000	1	5
653.169	1	10
653.339	1	12
653.508	1	19
653.678	1	17
653.847	1	13
654.017	1	7
654.186	1	6
654.356	1	16
654.525	1	16
654.695	1	14
654.864	1	11
655.034	1	11
655.203	1	16
655.373	1	17
655.542	1	9
655.712	1	7
655.881	1	19
656.051	1	15
656.220	1	15
656.390	1	5
656.559	1	14
656.729	1	14
656.898	1	9
657.068	1	11
657.237	1	11
657.406	1	14
657.576	1	3
657.745	1	14
657.915	1	27
658.084	1	9
658.254	1	3
658.423	1	13
658.593	1	16
658.762	1	19
658.932	1	27
659.101	1	12
659.271	1	17
659.440	1	1
659.610	1	7
659.779	1	11
659.949	1	3
660.118	1	1
660.288	1	10
660.457	1	10
660.626	1	7
660.796	1	16
660.965	1	9
661.135	1	15
661.304	1	23
661.474	1	15
661.643	1	17
661.813	1	10
661.982	1	12
662.152	1	10
662.321	1	3
662.491	1	17
662.660	1	8
662.829	1	10
662.999	1	8
663.168	1	4
663.338	1	14
663.507	1	14
663.677	1	4
663.846	1	9
664.016	1	17
664.185	1	1
664.354	1	11
664.524	1	7
664.693	1	20
664.863	1	14
665.032	1	17
665.202	1	7
665.371	1	9
665.541	1	2
665.710	1	-1
665.879	1	13
666.049	1	18
666.218	1	16
666.388	1	8
666.557	1	7
666.727	1	5
666.896	1	22
667.065	1	17
667.235	1	10
667.404	1	4
667.574	1	28
667.743	1	15
667.913	1	14
668.082	1	10
668.251	1	11
668.421	1	0
668.590	1	9
668.760	1	13
668.929	1	9
669.099	1	-2
669.268	1	12
669.437	1	-1
669.607	1	4
669.776	1	8
669.946	1	21
670.115	1	24
670.285	1	19
670.454	1	13
670.623	1	18
670.793	1	-3
670.962	1	4
671.132	1	2
671.301	1	8
671.470	1	14
671.640	1	-2
671.809	1	7
671.979	1	10
672.148	1	14
672.317	1	7
672.487	1	0
672.656	1	9
672.826	1	11
672.995	1	3
673.164	1	17
673.334	1	5
673.503	1	6
673.673	1	16
673.842	1	8
674.011	1	9
674.181	1	15
674.350	1	4
674.520	1	7
674.689	1	16
674.858	1	14
675.028	1	11
675.197	1	8
675.367	1	12
675.536	1	20
675.705	1	14
675.875	1	8
676.044	1	8
676.214	1	15
676.383	1	11
676.552	1	9
676.722	1	4
676.891	1	6
677.060	1	19
677.230	1	24
677.399	1	13
677.569	1	7
677.738	1	6
677.907	1	21
678.077	1	8
678.246	1	15
678.416	1	17
678.585	1	11
678.754	1	10
678.924	1	18
679.093	1	5
679.262	1	7
679.432	1	20
679.601	1	14
679.771	1	8
679.940	1	6
680.109	1	13
680.279	1	13
680.448	1	10
680.617	1	4
680.787	1	20
680.956	1	3
681.125	1	16
681.295	1	5
681.464	1	7
681.634	1	11
681.803	1	6
681.972	1	7
682.142	1	12
682.311	1	4
682.480	1	18
682.650	1	8
682.819	1	21
682.988	1	15
683.158	1	5
683.327	1	10
683.496	1	4
683.666	1	10
683.835	1	4
684.004	1	7
684.174	1	10
684.343	1	12
684.512	1	21
684.682	1	9
684.851	1	15
685.021	1	11
685.190	1	15
685.359	1	0
685.529	1	0
685.698	1	13
685.867	1	7
686.037	1	21
686.206	1	20
686.375	1	9
686.545	1	16
686.714	1	6
686.883	1	12
687.053	1	9
687.222	1	18
687.391	1	6
687.561	1	20
687.730	1	9
687.899	1	18
688.069	1	21
688.238	1	27
688.407	1	13
688.577	1	13
688.746	1	18
