340.368	1	12
340.539	1	15
340.710	1	5
340.881	1	13
341.052	1	-1
341.223	1	-1
341.394	1	-5
341.565	1	7
341.737	1	12
341.908	1	1
342.079	1	-3
342.250	1	14
342.421	1	14
342.592	1	3
342.763	1	2
342.934	1	0
343.105	1	-2
343.276	1	0
343.447	1	15
343.618	1	5
343.789	1	4
343.960	1	2
344.131	1	8
344.302	1	12
344.473	1	5
344.644	1	8
344.815	1	-3
344.986	1	1
345.157	1	-3
345.328	1	4
345.499	1	11
345.670	1	4
345.841	1	0
346.012	1	4
346.183	1	9
346.354	1	10
346.526	1	1
346.697	1	5
346.868	1	15
347.039	1	2
347.210	1	12
347.381	1	1
347.552	1	-4
347.723	1	12
347.894	1	10
348.065	1	7
348.236	1	6
348.407	1	2
348.578	1	5
348.749	1	4
348.920	1	18
349.091	1	5
349.262	1	16
349.433	1	12
349.604	1	10
349.775	1	-5
349.946	1	7
350.117	1	6
350.288	1	0
350.459	1	-2
350.630	1	13
350.801	1	5
350.972	1	12
351.143	1	12
351.314	1	-2
351.485	1	17
351.656	1	15
351.827	1	10
351.998	1	12
352.169	1	18
352.340	1	13
352.511	1	11
352.682	1	5
352.853	1	16
353.024	1	13
353.195	1	4
353.366	1	13
353.537	1	1
353.708	1	10
353.879	1	12
354.050	1	14
354.221	1	11
354.392	1	22
354.563	1	7
354.734	1	12
354.905	1	16
355.076	1	20
355.247	1	11
355.418	1	24
355.589	1	12
355.760	1	19
355.931	1	16
356.102	1	15
356.273	1	23
356.444	1	4
356.615	1	15
356.785	1	20
356.956	1	31
357.127	1	19
357.298	1	19
357.469	1	20
357.640	1	21
357.811	1	17
357.982	1	27
358.153	1	26
358.324	1	27
358.495	1	30
358.666	1	29
358.837	1	32
359.008	1	44
359.179	1	41
359.350	1	34
359.521	1	40
359.692	1	43
359.863	1	40
360.034	1	45
360.205	1	42
360.376	1	50
360.547	1	46
360.718	1	61
360.889	1	56
361.060	1	44
361.231	1	54
361.401	1	58
361.572	1	63
361.743	1	73
361.914	1	73
362.085	1	72
362.256	1	71
362.427	1	79
362.598	1	79
362.769	1	95
362.940	1	101
363.111	1	114
363.282	1	113
363.453	1	109
363.624	1	120
363.795	1	126
363.966	1	157
364.137	1	139
364.308	1	152
364.478	1	154
364.649	1	170
364.820	1	155
364.991	1	179
365.162	1	189
365.333	1	185
365.504	1	194
365.675	1	206
365.846	1	223
366.017	1	229
366.188	1	236
366.359	1	252
366.530	1	266
366.701	1	267
366.871	1	279
367.042	1	265
367.213	1	284
367.384	1	267
367.555	1	289
367.726	1	270
367.897	1	277
368.068	1	274
368.239	1	285
368.410	1	262
368.581	1	275
368.752	1	268
368.923	1	268
369.093	1	255
369.264	1	253
369.435	1	252
369.606	1	249
369.777	1	226
369.948	1	237
370.119	1	218
370.290	1	234
370.461	1	218
370.632	1	191
370.803	1	201
370.973	1	188
371.144	1	198
371.315	1	193
371.486	1	174
371.657	1	162
371.828	1	174
371.999	1	171
372.170	1	153
372.341	1	145
372.512	1	158
372.682	1	147
372.853	1	140
373.024	1	142
373.195	1	132
373.366	1	133
373.537	1	136
373.708	1	125
373.879	1	123
374.050	1	118
374.220	1	110
374.391	1	115
374.562	1	110
374.733	1	110
374.904	1	109
375.075	1	112
375.246	1	117
375.417	1	92
375.588	1	97
375.758	1	74
375.929	1	91
376.100	1	91
376.271	1	87
376.442	1	88
376.613	1	86
376.784	1	87
376.955	1	83
377.125	1	77
377.296	1	67
377.467	1	84
377.638	1	67
377.809	1	68
377.980	1	70
378.151	1	75
378.321	1	71
378.492	1	82
378.663	1	60
378.834	1	60
379.005	1	80
379.176	1	67
379.347	1	73
379.518	1	65
379.688	1	54
379.859	1	53
380.030	1	62
380.201	1	64
380.372	1	64
380.543	1	62
380.714	1	65
380.884	1	58
381.055	1	51
381.226	1	59
381.397	1	52
381.568	1	59
381.739	1	56
381.910	1	59
382.080	1	53
382.251	1	57
382.422	1	71
382.593	1	64
382.764	1	62
382.935	1	60
383.105	1	52
383.276	1	53
383.447	1	56
383.618	1	67
383.789	1	61
383.960	1	58
384.130	1	61
384.301	1	56
384.472	1	63
384.643	1	64
384.814	1	54
384.985	1	63
385.156	1	58
385.326	1	53
385.497	1	65
385.668	1	63
385.839	1	71
386.010	1	58
386.180	1	68
386.351	1	58
386.522	1	65
386.693	1	66
386.864	1	65
387.035	1	69
387.205	1	59
387.376	1	71
387.547	1	61
387.718	1	61
387.889	1	44
388.060	1	43
388.230	1	41
388.401	1	57
388.572	1	51
388.743	1	61
388.914	1	38
389.084	1	49
389.255	1	40
389.426	1	61
389.597	1	40
389.768	1	40
389.939	1	52
390.109	1	49
390.280	1	50
390.451	1	46
390.622	1	44
390.793	1	46
390.963	1	59
391.134	1	50
391.305	1	49
391.476	1	47
391.647	1	47
391.817	1	56
391.988	1	50
392.159	1	45
392.330	1	48
392.501	1	47
392.671	1	42
392.842	1	48
393.013	1	43
393.184	1	49
393.355	1	45
393.525	1	44
393.696	1	38
393.867	1	44
394.038	1	48
394.208	1	37
394.379	1	49
394.550	1	43
394.721	1	52
394.892	1	45
395.062	1	36
395.233	1	36
395.404	1	29
395.575	1	42
395.746	1	44
395.916	1	46
396.087	1	48
396.258	1	31
396.429	1	46
396.599	1	51
396.770	1	49
396.941	1	44
397.112	1	46
397.283	1	47
397.453	1	50
397.624	1	42
397.795	1	31
397.966	1	36
398.136	1	36
398.307	1	40
398.478	1	38
398.649	1	45
398.819	1	36
398.990	1	48
399.161	1	39
399.332	1	44
399.503	1	39
399.673	1	43
399.844	1	33
400.015	1	50
400.186	1	28
400.356	1	43
400.527	1	33
400.698	1	41
400.869	1	39
401.039	1	42
401.210	1	33
401.381	1	39
401.552	1	40
401.722	1	30
401.893	1	30
402.064	1	28
402.235	1	34
402.405	1	37
402.576	1	30
402.747	1	36
402.918	1	35
403.088	1	32
403.259	1	22
403.430	1	33
403.601	1	34
403.771	1	37
403.942	1	30
404.113	1	30
404.284	1	16
404.454	1	37
404.625	1	37
404.796	1	21
404.967	1	30
405.137	1	27
405.308	1	22
405.479	1	36
405.649	1	23
405.820	1	33
405.991	1	30
406.162	1	19
406.332	1	25
406.503	1	28
406.674	1	30
406.845	1	22
407.015	1	20
407.186	1	27
407.357	1	40
407.527	1	26
407.698	1	29
407.869	1	22
408.040	1	28
408.210	1	32
408.381	1	27
408.552	1	16
408.722	1	30
408.893	1	26
409.064	1	25
409.235	1	16
409.405	1	25
409.576	1	25
409.747	1	17
409.917	1	10
410.088	1	31
410.259	1	29
410.430	1	28
410.600	1	19
410.771	1	19
410.942	1	22
411.112	1	28
411.283	1	23
411.454	1	22
411.625	1	9
411.795	1	26
411.966	1	16
412.137	1	16
412.307	1	26
412.478	1	20
412.649	1	29
412.819	1	30
412.990	1	14
413.161	1	27
413.332	1	19
413.502	1	41
413.673	1	13
413.844	1	14
414.014	1	26
414.185	1	22
414.356	1	21
414.526	1	6
414.697	1	14
414.868	1	17
415.038	1	11
415.209	1	12
415.380	1	22
415.550	1	10
415.721	1	15
415.892	1	17
416.063	1	22
416.233	1	11
416.404	1	20
416.575	1	22
416.745	1	14
416.916	1	11
417.087	1	17
417.257	1	20
417.428	1	10
417.599	1	7
417.769	1	26
417.940	1	26
418.111	1	13
418.281	1	18
418.452	1	21
418.623	1	28
418.793	1	8
418.964	1	15
419.135	1	16
419.305	1	20
419.476	1	11
419.647	1	24
419.817	1	25
419.988	1	24
420.159	1	20
420.329	1	20
420.500	1	16
420.671	1	13
420.841	1	18
421.012	1	14
421.183	1	22
421.353	1	16
421.524	1	19
421.695	1	10
421.865	1	20
422.036	1	17
422.206	1	20
422.377	1	21
422.548	1	24
422.718	1	4
422.889	1	13
423.060	1	13
423.230	1	16
423.401	1	22
423.572	1	11
423.742	1	17
423.913	1	14
424.084	1	16
424.254	1	19
424.425	1	18
424.595	1	21
424.766	1	18
424.937	1	7
425.107	1	16
425.278	1	7
425.449	1	13
425.619	1	14
425.790	1	30
425.961	1	16
426.131	1	31
426.302	1	17
426.472	1	7
426.643	1	14
426.814	1	18
426.984	1	14
427.155	1	9
427.326	1	9
427.496	1	16
427.667	1	18
427.837	1	15
428.008	1	9
428.179	1	15
428.349	1	9
428.520	1	13
428.691	1	9
428.861	1	9
429.032	1	6
429.202	1	11
429.373	1	15
429.544	1	18
429.714	1	11
429.885	1	13
430.055	1	2
430.226	1	10
430.397	1	3
430.567	1	3
430.738	1	12
430.909	1	13
431.079	1	25
431.250	1	14
431.420	1	10
431.591	1	9
431.762	1	7
431.932	1	14
432.103	1	-2
432.273	1	8
432.444	1	14
432.615	1	23
432.785	1	15
432.956	1	3
433.126	1	24
433.297	1	18
433.468	1	15
433.638	1	12
433.809	1	19
433.979	1	14
434.150	1	19
434.320	1	10
434.491	1	9
434.662	1	11
434.832	1	6
435.003	1	21
435.173	1	12
435.344	1	20
435.515	1	12
435.685	1	-4
435.856	1	6
436.026	1	12
436.197	1	9
436.368	1	16
436.538	1	12
436.709	1	12
436.879	1	14
437.050	1	13
437.220	1	3
437.391	1	16
437.562	1	12
437.732	1	4
437.903	1	17
438.073	1	15
438.244	1	13
438.414	1	8
438.585	1	9
438.756	1	10
438.926	1	4
439.097	1	6
439.267	1	15
439.438	1	12
439.608	1	13
439.779	1	13
439.949	1	18
440.120	1	10
440.291	1	18
440.461	1	22
440.632	1	10
440.802	1	7
440.973	1	13
441.143	1	1
441.314	1	15
441.485	1	14
441.655	1	14
441.826	1	15
441.996	1	15
442.167	1	-5
442.337	1	9
442.508	1	11
442.678	1	14
442.849	1	5
443.019	1	14
443.190	1	10
443.361	1	10
443.531	1	4
443.702	1	11
443.872	1	13
444.043	1	6
444.213	1	11
444.384	1	4
444.554	1	10
444.725	1	22
444.895	1	5
445.066	1	9
445.237	1	-2
445.407	1	9
445.578	1	8
445.748	1	20
445.919	1	10
446.089	1	9
446.260	1	13
446.430	1	1
446.601	1	8
446.771	1	8
446.942	1	5
447.112	1	13
447.283	1	12
447.453	1	4
447.624	1	7
447.794	1	23
447.965	1	16
448.135	1	19
448.306	1	14
448.477	1	4
448.647	1	19
448.818	1	8
448.988	1	7
449.159	1	10
449.329	1	6
449.500	1	4
449.670	1	9
449.841	1	-3
450.011	1	7
450.182	1	23
450.352	1	22
450.523	1	19
450.693	1	3
450.864	1	6
451.034	1	6
451.205	1	7
451.375	1	6
451.546	1	14
451.716	1	1
451.887	1	-2
452.057	1	24
452.228	1	11
452.398	1	4
452.569	1	4
452.739	1	19
452.910	1	7
453.080	1	8
453.251	1	24
453.421	1	14
453.592	1	5
453.762	1	13
453.933	1	20
454.103	1	9
454.274	1	0
454.444	1	3
454.615	1	9
454.785	1	11
454.956	1	9
455.126	1	0
455.297	1	25
455.467	1	12
455.638	1	9
455.808	1	13
455.979	1	9
456.149	1	-2
456.320	1	5
456.490	1	12
456.661	1	8
456.831	1	16
457.001	1	4
457.172	1	2
457.342	1	14
457.513	1	-2
457.683	1	12
457.854	1	7
458.024	1	17
458.195	1	2
458.365	1	13
458.536	1	13
458.706	1	2
458.877	1	28
459.047	1	-2
459.218	1	15
459.388	1	1
459.559	1	-3
459.729	1	12
459.899	1	11
460.070	1	13
460.240	1	11
460.411	1	17
460.581	1	-1
460.752	1	10
460.922	1	11
461.093	1	7
461.263	1	9
461.434	1	9
461.604	1	-8
461.775	1	10
461.945	1	11
462.115	1	7
462.286	1	6
462.456	1	6
462.627	1	5
462.797	1	9
462.968	1	9
463.138	1	5
463.309	1	10
463.479	1	19
463.649	1	7
463.820	1	-1
463.990	1	5
464.161	1	4
464.331	1	14
464.502	1	6
464.672	1	13
464.843	1	7
465.013	1	2
465.183	1	16
465.354	1	14
465.524	1	10
465.695	1	17
465.865	1	0
466.036	1	9
466.206	1	11
466.376	1	8
466.547	1	0
466.717	1	15
466.888	1	13
467.058	1	9
467.229	1	2
467.399	1	5
467.569	1	7
467.740	1	17
467.910	1	11
468.081	1	16
468.251	1	10
468.422	1	9
468.592	1	7
468.762	1	0
468.933	1	18
469.103	1	6
469.274	1	14
469.444	1	0
469.614	1	10
469.785	1	20
469.955	1	3
470.126	1	-8
470.296	1	8
470.467	1	7
470.637	1	14
470.807	1	14
470.978	1	8
471.148	1	6
471.319	1	7
471.489	1	6
471.659	1	9
471.830	1	3
472.000	1	6
472.171	1	3
472.341	1	3
472.511	1	15
472.682	1	17
472.852	1	8
473.023	1	15
473.193	1	9
473.363	1	16
473.534	1	10
473.704	1	5
473.875	1	14
474.045	1	7
474.215	1	12
474.386	1	8
474.556	1	15
474.727	1	12
474.897	1	-1
475.067	1	11
475.238	1	11
475.408	1	13
475.578	1	13
475.749	1	8
475.919	1	2
476.090	1	11
476.260	1	17
476.430	1	22
476.601	1	4
476.771	1	-1
476.942	1	20
477.112	1	6
477.282	1	18
477.453	1	15
477.623	1	13
477.793	1	1
477.964	1	5
478.134	1	21
478.305	1	18
478.475	1	14
478.645	1	10
478.816	1	24
478.986	1	8
479.156	1	6
479.327	1	10
479.497	1	10
479.667	1	4
479.838	1	12
480.008	1	12
480.179	1	7
480.349	1	10
480.519	1	8
480.690	1	5
480.860	1	22
481.030	1	11
481.201	1	24
481.371	1	24
481.541	1	25
481.712	1	19
481.882	1	13
482.053	1	10
482.223	1	12
482.393	1	18
482.564	1	4
482.734	1	10
482.904	1	17
483.075	1	26
483.245	1	10
483.415	1	14
483.586	1	14
483.756	1	12
483.926	1	24
484.097	1	11
484.267	1	25
484.437	1	17
484.608	1	22
484.778	1	34
484.948	1	10
485.119	1	20
485.289	1	4
485.459	1	-2
485.630	1	15
485.800	1	22
485.970	1	14
486.141	1	19
486.311	1	35
486.481	1	17
486.652	1	21
486.822	1	22
486.992	1	19
487.163	1	19
487.333	1	17
487.503	1	18
487.674	1	20
487.844	1	14
488.014	1	27
488.185	1	16
488.355	1	28
488.525	1	17
488.696	1	10
488.866	1	20
489.036	1	19
489.207	1	23
489.377	1	19
489.547	1	16
489.718	1	15
489.888	1	30
490.058	1	29
490.228	1	26
490.399	1	31
490.569	1	29
490.739	1	17
490.910	1	24
491.080	1	34
491.250	1	28
491.421	1	35
491.591	1	23
491.761	1	20
491.932	1	30
492.102	1	41
492.272	1	23
492.442	1	28
492.613	1	30
492.783	1	18
492.953	1	34
493.124	1	28
493.294	1	39
493.464	1	31
493.635	1	39
493.805	1	37
493.975	1	34
494.145	1	33
494.316	1	34
494.486	1	44
494.656	1	37
494.827	1	41
494.997	1	35
495.167	1	38
495.337	1	48
495.508	1	36
495.678	1	31
495.848	1	42
496.019	1	30
496.189	1	42
496.359	1	44
496.529	1	44
496.700	1	42
496.870	1	39
497.040	1	45
497.211	1	36
497.381	1	44
497.551	1	43
497.721	1	27
497.892	1	41
498.062	1	36
498.232	1	36
498.403	1	34
498.573	1	35
498.743	1	48
498.913	1	55
499.084	1	55
499.254	1	54
499.424	1	29
499.594	1	31
499.765	1	34
499.935	1	41
500.105	1	40
500.275	1	54
500.446	1	47
500.616	1	52
500.786	1	44
500.956	1	51
501.127	1	44
501.297	1	39
501.467	1	45
501.638	1	51
501.808	1	50
501.978	1	49
502.148	1	53
502.319	1	50
502.489	1	41
502.659	1	51
502.829	1	59
503.000	1	54
503.170	1	48
503.340	1	50
503.510	1	56
503.681	1	55
503.851	1	55
504.021	1	57
504.191	1	64
504.362	1	60
504.532	1	56
504.702	1	51
504.872	1	46
505.042	1	57
505.213	1	57
505.383	1	68
505.553	1	62
505.723	1	63
505.894	1	67
506.064	1	62
506.234	1	57
506.404	1	53
506.575	1	57
506.745	1	56
506.915	1	66
507.085	1	72
507.256	1	70
507.426	1	59
507.596	1	61
507.766	1	73
507.936	1	54
508.107	1	67
508.277	1	68
508.447	1	87
508.617	1	66
508.788	1	69
508.958	1	82
509.128	1	68
509.298	1	75
509.468	1	57
509.639	1	73
509.809	1	72
509.979	1	63
510.149	1	75
510.319	1	73
510.490	1	72
510.660	1	58
510.830	1	78
511.000	1	69
511.171	1	79
511.341	1	73
511.511	1	74
511.681	1	72
511.851	1	79
512.022	1	68
512.192	1	65
512.362	1	74
512.532	1	71
512.702	1	82
512.873	1	80
513.043	1	71
513.213	1	84
513.383	1	71
513.553	1	79
513.724	1	68
513.894	1	82
514.064	1	73
514.234	1	86
514.404	1	83
514.575	1	69
514.745	1	75
514.915	1	71
515.085	1	83
515.255	1	75
515.425	1	82
515.596	1	75
515.766	1	88
515.936	1	77
516.106	1	72
516.276	1	79
516.447	1	79
516.617	1	90
516.787	1	80
516.957	1	72
517.127	1	77
517.297	1	65
517.468	1	88
517.638	1	86
517.808	1	85
517.978	1	82
518.148	1	75
518.319	1	76
518.489	1	89
518.659	1	87
518.829	1	87
518.999	1	74
519.169	1	83
519.340	1	88
519.510	1	83
519.680	1	89
519.850	1	105
520.020	1	94
520.190	1	103
520.361	1	86
520.531	1	97
520.701	1	91
520.871	1	83
521.041	1	92
521.211	1	96
521.382	1	90
521.552	1	86
521.722	1	97
521.892	1	100
522.062	1	86
522.232	1	87
522.402	1	89
522.573	1	84
522.743	1	101
522.913	1	95
523.083	1	96
523.253	1	100
523.423	1	96
523.593	1	95
523.764	1	90
523.934	1	95
524.104	1	81
524.274	1	81
524.444	1	85
524.614	1	92
524.784	1	98
524.955	1	102
525.125	1	83
525.295	1	100
525.465	1	98
525.635	1	85
525.805	1	88
525.975	1	95
526.146	1	83
526.316	1	97
526.486	1	86
526.656	1	96
526.826	1	99
526.996	1	89
527.166	1	99
527.337	1	97
527.507	1	110
527.677	1	85
527.847	1	86
528.017	1	93
528.187	1	91
528.357	1	90
528.527	1	93
528.698	1	81
528.868	1	92
529.038	1	89
529.208	1	101
529.378	1	88
529.548	1	87
529.718	1	99
529.888	1	88
530.058	1	89
530.229	1	101
530.399	1	96
530.569	1	106
530.739	1	94
530.909	1	101
531.079	1	104
531.249	1	99
531.419	1	102
531.589	1	101
531.760	1	89
531.930	1	100
532.100	1	107
532.270	1	100
532.440	1	93
532.610	1	91
532.780	1	104
532.950	1	96
533.120	1	99
533.290	1	97
533.461	1	89
533.631	1	98
533.801	1	91
533.971	1	95
534.141	1	91
534.311	1	101
534.481	1	95
534.651	1	101
534.821	1	106
534.991	1	96
535.162	1	103
535.332	1	104
535.502	1	95
535.672	1	96
535.842	1	82
536.012	1	97
536.182	1	99
536.352	1	88
536.522	1	86
536.692	1	95
536.862	1	101
537.032	1	101
537.203	1	85
537.373	1	97
537.543	1	100
537.713	1	93
537.883	1	81
538.053	1	77
538.223	1	87
538.393	1	106
538.563	1	97
538.733	1	98
538.903	1	93
539.073	1	83
539.243	1	93
539.413	1	83
539.584	1	88
539.754	1	86
539.924	1	78
540.094	1	93
540.264	1	84
540.434	1	81
540.604	1	100
540.774	1	93
540.944	1	89
541.114	1	79
541.284	1	85
541.454	1	85
541.624	1	87
541.794	1	86
541.964	1	72
542.134	1	84
542.305	1	73
542.475	1	69
542.645	1	81
542.815	1	87
542.985	1	90
543.155	1	73
543.325	1	78
543.495	1	85
543.665	1	80
543.835	1	87
544.005	1	90
544.175	1	74
544.345	1	74
544.515	1	71
544.685	1	96
544.855	1	72
545.025	1	79
545.195	1	78
545.365	1	79
545.535	1	100
545.705	1	75
545.875	1	82
546.045	1	72
546.216	1	85
546.386	1	70
546.556	1	67
546.726	1	75
546.896	1	77
547.066	1	84
547.236	1	65
547.406	1	67
547.576	1	92
547.746	1	71
547.916	1	78
548.086	1	64
548.256	1	71
548.426	1	86
548.596	1	89
548.766	1	84
548.936	1	81
549.106	1	64
549.276	1	67
549.446	1	69
549.616	1	78
549.786	1	81
549.956	1	69
550.126	1	79
550.296	1	78
550.466	1	85
550.636	1	72
550.806	1	86
550.976	1	73
551.146	1	79
551.316	1	78
551.486	1	65
551.656	1	71
551.826	1	77
551.996	1	79
552.166	1	81
552.336	1	86
552.506	1	76
552.676	1	78
552.846	1	75
553.016	1	75
553.186	1	76
553.356	1	57
553.526	1	76
553.696	1	72
553.866	1	56
554.036	1	72
554.206	1	70
554.376	1	76
554.546	1	84
554.716	1	66
554.886	1	57
555.056	1	70
555.226	1	70
555.396	1	56
555.566	1	68
555.736	1	71
555.906	1	64
556.076	1	58
556.246	1	67
556.416	1	74
556.586	1	69
556.756	1	66
556.926	1	64
557.096	1	65
557.266	1	67
557.436	1	59
557.606	1	64
557.776	1	72
557.946	1	65
558.116	1	65
558.286	1	72
558.456	1	74
558.626	1	57
558.796	1	68
558.966	1	61
559.136	1	68
559.306	1	80
559.476	1	57
559.646	1	58
559.816	1	58
559.986	1	54
560.155	1	45
560.325	1	53
560.495	1	48
560.665	1	65
560.835	1	64
561.005	1	51
561.175	1	60
561.345	1	59
561.515	1	61
561.685	1	56
561.855	1	51
562.025	1	51
562.195	1	48
562.365	1	55
562.535	1	57
562.705	1	57
562.875	1	57
563.045	1	49
563.215	1	57
563.385	1	62
563.555	1	48
563.725	1	45
563.895	1	57
564.064	1	46
564.234	1	57
564.404	1	52
564.574	1	56
564.744	1	51
564.914	1	50
565.084	1	62
565.254	1	49
565.424	1	45
565.594	1	56
565.764	1	54
565.934	1	47
566.104	1	52
566.274	1	48
566.444	1	52
566.614	1	45
566.783	1	55
566.953	1	42
567.123	1	55
567.293	1	55
567.463	1	48
567.633	1	35
567.803	1	54
567.973	1	50
568.143	1	60
568.313	1	47
568.483	1	41
568.653	1	44
568.823	1	36
568.993	1	43
569.162	1	51
569.332	1	50
569.502	1	49
569.672	1	51
569.842	1	47
570.012	1	39
570.182	1	42
570.352	1	44
570.522	1	30
570.692	1	55
570.862	1	52
571.031	1	51
571.201	1	38
571.371	1	48
571.541	1	37
571.711	1	48
571.881	1	41
572.051	1	41
572.221	1	42
572.391	1	46
572.561	1	39
572.731	1	47
572.900	1	39
573.070	1	46
573.240	1	35
573.410	1	35
573.580	1	40
573.750	1	29
573.920	1	47
574.090	1	38
574.260	1	38
574.430	1	42
574.599	1	49
574.769	1	38
574.939	1	42
575.109	1	54
575.279	1	31
575.449	1	36
575.619	1	41
575.789	1	40
575.959	1	35
576.128	1	25
576.298	1	39
576.468	1	42
576.638	1	31
576.808	1	34
576.978	1	35
577.148	1	37
577.318	1	38
577.487	1	32
577.657	1	42
577.827	1	16
577.997	1	35
578.167	1	32
578.337	1	25
578.507	1	34
578.677	1	54
578.846	1	32
579.016	1	37
579.186	1	31
579.356	1	36
579.526	1	31
579.696	1	29
579.866	1	29
580.036	1	38
580.205	1	29
580.375	1	26
580.545	1	27
580.715	1	37
580.885	1	48
581.055	1	38
581.225	1	30
581.394	1	25
581.564	1	26
581.734	1	24
581.904	1	31
582.074	1	31
582.244	1	19
582.414	1	25
582.583	1	50
582.753	1	36
582.923	1	29
583.093	1	25
583.263	1	29
583.433	1	43
583.603	1	25
583.772	1	38
583.942	1	27
584.112	1	30
584.282	1	32
584.452	1	46
584.622	1	13
584.791	1	37
584.961	1	33
585.131	1	24
585.301	1	31
585.471	1	30
585.641	1	35
585.811	1	36
585.980	1	26
586.150	1	26
586.320	1	19
586.490	1	30
586.660	1	10
586.830	1	16
586.999	1	21
587.169	1	25
587.339	1	9
587.509	1	36
587.679	1	29
587.849	1	26
588.018	1	28
588.188	1	41
588.358	1	19
588.528	1	30
588.698	1	29
588.867	1	18
589.037	1	22
589.207	1	24
589.377	1	23
589.547	1	22
589.717	1	27
589.886	1	22
590.056	1	16
590.226	1	35
590.396	1	20
590.566	1	21
590.735	1	37
590.905	1	19
591.075	1	27
591.245	1	23
591.415	1	25
591.585	1	28
591.754	1	15
591.924	1	18
592.094	1	15
592.264	1	20
592.434	1	24
592.603	1	20
592.773	1	31
592.943	1	19
593.113	1	26
593.283	1	9
593.452	1	27
593.622	1	30
593.792	1	9
593.962	1	14
594.132	1	15
594.301	1	8
594.471	1	17
594.641	1	23
594.811	1	22
594.981	1	6
595.150	1	19
595.320	1	23
595.490	1	24
595.660	1	19
595.829	1	21
595.999	1	24
596.169	1	22
596.339	1	21
596.509	1	13
596.678	1	13
596.848	1	17
597.018	1	22
597.188	1	16
597.358	1	9
597.527	1	9
597.697	1	13
597.867	1	16
598.037	1	25
598.206	1	17
598.376	1	16
598.546	1	13
598.716	1	19
598.885	1	28
599.055	1	9
599.225	1	20
599.395	1	1
599.565	1	23
599.734	1	9
599.904	1	17
600.074	1	18
600.244	1	15
600.413	1	19
600.583	1	19
600.753	1	11
600.923	1	16
601.092	1	20
601.262	1	1
601.432	1	5
601.602	1	17
601.771	1	23
601.941	1	19
602.111	1	15
602.281	1	22
602.451	1	5
602.620	1	11
602.790	1	5
602.960	1	9
603.130	1	22
603.299	1	18
603.469	1	24
603.639	1	3
603.809	1	19
603.978	1	20
604.148	1	28
604.318	1	11
604.487	1	19
604.657	1	0
604.827	1	11
604.997	1	29
605.166	1	24
605.336	1	31
605.506	1	13
605.676	1	5
605.845	1	14
606.015	1	12
606.185	1	13
606.355	1	18
606.524	1	13
606.694	1	8
606.864	1	25
607.034	1	20
607.203	1	15
607.373	1	9
607.543	1	17
607.712	1	17
607.882	1	21
608.052	1	12
608.222	1	13
608.391	1	16
608.561	1	13
608.731	1	10
608.901	1	17
609.070	1	24
609.240	1	9
609.410	1	24
609.579	1	16
609.749	1	20
609.919	1	14
610.089	1	10
610.258	1	13
610.428	1	20
610.598	1	8
610.767	1	14
610.937	1	13
611.107	1	10
611.277	1	11
611.446	1	20
611.616	1	8
611.786	1	15
611.955	1	10
612.125	1	14
612.295	1	13
612.465	1	9
612.634	1	13
612.804	1	24
612.974	1	20
613.143	1	18
613.313	1	15
613.483	1	13
613.652	1	6
613.822	1	5
613.992	1	11
614.162	1	11
614.331	1	8
614.501	1	21
614.671	1	15
614.840	1	12
615.010	1	10
615.180	1	15
615.349	1	9
615.519	1	12
615.689	1	23
615.858	1	10
616.028	1	20
616.198	1	21
616.368	1	15
616.537	1	13
616.707	1	23
616.877	1	5
617.046	1	16
617.216	1	19
617.386	1	4
617.555	1	10
617.725	1	15
617.895	1	17
618.064	1	21
618.234	1	5
618.404	1	9
618.573	1	8
618.743	1	14
618.913	1	16
619.082	1	10
619.252	1	1
619.422	1	14
619.591	1	7
619.761	1	19
619.931	1	-5
620.100	1	11
620.270	1	15
620.440	1	15
620.609	1	0
620.779	1	18
620.949	1	11
621.118	1	11
621.288	1	2
621.458	1	21
621.627	1	23
621.797	1	5
621.967	1	13
622.136	1	11
622.306	1	15
622.476	1	16
622.645	1	23
622.815	1	10
622.985	1	4
623.154	1	11
623.324	1	4
623.494	1	16
623.663	1	3
623.833	1	20
624.002	1	17
624.172	1	19
624.342	1	9
624.511	1	3
624.681	1	12
624.851	1	3
625.020	1	2
625.190	1	10
625.360	1	7
625.529	1	10
625.699	1	5
625.869	1	14
626.038	1	18
626.208	1	4
626.377	1	10
626.547	1	10
626.717	1	11
626.886	1	10
627.056	1	14
627.226	1	2
627.395	1	5
627.565	1	5
627.735	1	16
627.904	1	10
628.074	1	14
628.243	1	14
628.413	1	11
628.583	1	-4
628.752	1	16
628.922	1	10
629.091	1	9
629.261	1	-8
629.431	1	9
629.600	1	9
629.770	1	4
629.940	1	20
630.109	1	14
630.279	1	12
630.448	1	11
630.618	1	10
630.788	1	4
630.957	1	12
631.127	1	9
631.297	1	16
631.466	1	20
631.636	1	15
631.805	1	6
631.975	1	8
632.145	1	-3
632.314	1	8
632.484	1	-6
632.653	1	11
632.823	1	8
632.993	1	21
633.162	1	9
633.332	1	3
633.501	1	20
633.671	1	0
633.841	1	15
634.010	1	4
634.180	1	20
634.349	1	10
634.519	1	14
634.689	1	14
634.858	1	14
635.028	1	10
635.197	1	8
635.367	1	11
635.537	1	4
635.706	1	11
635.876	1	6
636.045	1	22
636.215	1	11
636.384	1	15
636.554	1	17
636.724	1	13
636.893	1	13
637.063	1	20
637.232	1	-10
637.402	1	5
637.572	1	-3
637.741	1	19
637.911	1	14
638.080	1	20
638.250	1	14
638.419	1	11
638.589	1	11
638.759	1	-1
638.928	1	9
639.098	1	-2
639.267	1	13
639.437	1	15
639.606	1	12
639.776	1	3
639.946	1	6
640.115	1	15
640.285	1	5
640.454	1	12
640.624	1	-4
640.793	1	-6
640.963	1	2
641.132	1	13
641.302	1	19
641.472	1	2
641.641	1	12
641.811	1	1
641.980	1	9
642.150	1	-2
642.319	1	16
642.489	1	8
642.659	1	5
642.828	1	2
642.998	1	12
643.167	1	2
643.337	1	11
643.506	1	15
643.676	1	15
643.845	1	8
644.015	1	8
644.184	1	2
644.354	1	4
644.524	1	0
644.693	1	6
644.863	1	2
645.032	1	10
645.202	1	18
645.371	1	8
645.541	1	6
645.710	1	18
645.880	1	8
646.049	1	3
646.219	1	5
646.388	1	5
646.558	1	8
646.728	1	15
646.897	1	9
647.067	1	12
647.236	1	1
647.406	1	12
647.575	1	3
647.745	1	16
647.914	1	-1
648.084	1	4
648.253	1	8
648.423	1	21
648.592	1	3
648.762	1	7
648.931	1	6
649.101	1	2
649.270	1	10
649.440	1	4
649.610	1	13
649.779	1	8
649.949	1	14
650.118	1	0
650.288	1	3
650.457	1	6
650.627	1	12
650.796	1	1
650.966	1	16
651.135	1	6
651.305	1	8
651.474	1	-2
651.644	1	8
651.813	1	10
651.983	1	-9
652.152	1	14
652.322	1	2
652.491	1	6
652.661	1	8
652.830	1	13
653.000	1	4
653.169	1	7
653.339	1	12
653.508	1	5
653.678	1	0
653.847	1	2
654.017	1	2
654.186	1	-2
654.356	1	9
654.525	1	6
654.695	1	2
654.864	1	0
655.034	1	3
655.203	1	5
655.373	1	14
655.542	1	2
655.712	1	2
655.881	1	14
656.051	1	13
656.220	1	3
656.390	1	6
656.559	1	15
656.729	1	8
656.898	1	5
657.068	1	1
657.237	1	6
657.406	1	8
657.576	1	3
657.745	1	4
657.915	1	14
658.084	1	7
658.254	1	1
658.423	1	2
658.593	1	6
658.762	1	21
658.932	1	18
659.101	1	5
659.271	1	14
659.440	1	6
659.610	1	11
659.779	1	8
659.949	1	13
660.118	1	-5
660.288	1	1
660.457	1	4
660.626	1	11
660.796	1	6
660.965	1	12
661.135	1	15
661.304	1	9
661.474	1	16
661.643	1	19
661.813	1	2
661.982	1	4
662.152	1	1
662.321	1	-9
662.491	1	12
662.660	1	5
662.829	1	17
662.999	1	0
663.168	1	-3
663.338	1	1
663.507	1	6
663.677	1	6
663.846	1	3
664.016	1	11
664.185	1	2
664.354	1	6
664.524	1	0
664.693	1	12
664.863	1	3
665.032	1	13
665.202	1	13
665.371	1	3
665.541	1	2
665.710	1	4
665.879	1	14
666.049	1	3
666.218	1	6
666.388	1	9
666.557	1	9
666.727	1	-7
666.896	1	15
667.065	1	12
667.235	1	11
667.404	1	11
667.574	1	12
667.743	1	-5
667.913	1	6
668.082	1	1
668.251	1	4
668.421	1	3
668.590	1	14
668.760	1	6
668.929	1	4
669.099	1	-1
669.268	1	-5
669.437	1	2
669.607	1	6
669.776	1	2
669.946	1	6
670.115	1	19
670.285	1	12
670.454	1	-2
670.623	1	9
670.793	1	-1
670.962	1	8
671.132	1	14
671.301	1	10
671.470	1	16
671.640	1	3
671.809	1	10
671.979	1	9
672.148	1	4
672.317	1	5
672.487	1	0
672.656	1	7
672.826	1	11
672.995	1	-1
673.164	1	13
673.334	1	-1
673.503	1	3
673.673	1	5
673.842	1	3
674.011	1	6
674.181	1	18
674.350	1	10
674.520	1	5
674.689	1	4
674.858	1	3
675.028	1	6
675.197	1	6
675.367	1	-1
675.536	1	17
675.705	1	6
675.875	1	4
676.044	1	12
676.214	1	14
676.383	1	7
676.552	1	8
676.722	1	8
676.891	1	4
677.060	1	20
677.230	1	10
677.399	1	4
677.569	1	-3
677.738	1	2
677.907	1	1
678.077	1	8
678.246	1	16
678.416	1	19
678.585	1	7
678.754	1	13
678.924	1	6
679.093	1	-1
679.262	1	12
679.432	1	11
679.601	1	7
679.771	1	19
679.940	1	-6
680.109	1	7
680.279	1	9
680.448	1	19
680.617	1	3
680.787	1	13
680.956	1	9
681.125	1	18
681.295	1	3
681.464	1	4
681.634	1	7
681.803	1	1
681.972	1	3
682.142	1	-3
682.311	1	2
682.480	1	18
682.650	1	10
682.819	1	13
682.988	1	1
683.158	1	13
683.327	1	10
683.496	1	3
683.666	1	8
683.835	1	1
684.004	1	5
684.174	1	5
684.343	1	11
684.512	1	16
684.682	1	6
684.851	1	4
685.021	1	15
685.190	1	3
685.359	1	5
685.529	1	8
685.698	1	5
685.867	1	14
686.037	1	12
686.206	1	20
686.375	1	5
686.545	1	4
686.714	1	1
686.883	1	5
687.053	1	8
687.222	1	5
687.391	1	8
687.561	1	23
687.730	1	9
687.899	1	7
688.069	1	9
688.238	1	25
688.407	1	15
688.577	1	7
688.746	1	8
