340.368	1	4
340.539	1	11
340.710	1	8
340.881	1	10
341.052	1	-10
341.223	1	-9
341.394	1	0
341.565	1	-8
341.737	1	6
341.908	1	-3
342.079	1	-2
342.250	1	10
342.421	1	15
342.592	1	8
342.763	1	7
342.934	1	9
343.105	1	5
343.276	1	7
343.447	1	2
343.618	1	-12
343.789	1	0
343.960	1	-11
344.131	1	0
344.302	1	13
344.473	1	2
344.644	1	15
344.815	1	-5
344.986	1	8
345.157	1	-14
345.328	1	6
345.499	1	-5
345.670	1	3
345.841	1	0
346.012	1	4
346.183	1	6
346.354	1	5
346.526	1	-2
346.697	1	1
346.868	1	1
347.039	1	-3
347.210	1	3
347.381	1	1
347.552	1	-3
347.723	1	12
347.894	1	7
348.065	1	9
348.236	1	-2
348.407	1	9
348.578	1	1
348.749	1	-1
348.920	1	-1
349.091	1	9
349.262	1	16
349.433	1	5
349.604	1	7
349.775	1	3
349.946	1	5
350.117	1	6
350.288	1	-6
350.459	1	-9
350.630	1	3
350.801	1	1
350.972	1	16
351.143	1	1
351.314	1	2
351.485	1	14
351.656	1	10
351.827	1	-5
351.998	1	-8
352.169	1	-3
352.340	1	12
352.511	1	4
352.682	1	6
352.853	1	11
353.024	1	2
353.195	1	4
353.366	1	5
353.537	1	-3
353.708	1	-13
353.879	1	-1
354.050	1	2
354.221	1	8
354.392	1	7
354.563	1	9
354.734	1	-3
354.905	1	2
355.076	1	2
355.247	1	0
355.418	1	6
355.589	1	-3
355.760	1	6
355.931	1	-1
356.102	1	-2
356.273	1	8
356.444	1	-11
356.615	1	0
356.785	1	8
356.956	1	13
357.127	1	4
357.298	1	-4
357.469	1	-3
357.640	1	2
357.811	1	1
357.982	1	2
358.153	1	-1
358.324	1	4
358.495	1	7
358.666	1	3
358.837	1	6
359.008	1	0
359.179	1	2
359.350	1	-1
359.521	1	-3
359.692	1	6
359.863	1	-3
360.034	1	-7
360.205	1	2
360.376	1	10
360.547	1	-1
360.718	1	5
360.889	1	-2
361.060	1	10
361.231	1	-3
361.401	1	-1
361.572	1	12
361.743	1	8
361.914	1	-5
362.085	1	6
362.256	1	1
362.427	1	14
362.598	1	-1
362.769	1	2
362.940	1	-4
363.111	1	16
363.282	1	10
363.453	1	-1
363.624	1	1
363.795	1	5
363.966	1	14
364.137	1	5
364.308	1	7
364.478	1	1
364.649	1	5
364.820	1	18
364.991	1	6
365.162	1	2
365.333	1	11
365.504	1	15
365.675	1	9
365.846	1	13
366.017	1	18
366.188	1	7
366.359	1	6
366.530	1	9
366.701	1	12
366.871	1	12
367.042	1	23
367.213	1	19
367.384	1	10
367.555	1	13
367.726	1	9
367.897	1	7
368.068	1	-3
368.239	1	10
368.410	1	1
368.581	1	13
368.752	1	17
368.923	1	10
369.093	1	11
369.264	1	15
369.435	1	11
369.606	1	14
369.777	1	6
369.948	1	9
370.119	1	13
370.290	1	10
370.461	1	6
370.632	1	0
370.803	1	16
370.973	1	7
371.144	1	7
371.315	1	10
371.486	1	9
371.657	1	-4
371.828	1	5
371.999	1	1
372.170	1	2
372.341	1	4
372.512	1	14
372.682	1	10
372.853	1	6
373.024	1	9
373.195	1	-5
373.366	1	3
373.537	1	-1
373.708	1	8
373.879	1	13
374.050	1	13
374.220	1	5
374.391	1	6
374.562	1	-4
374.733	1	-2
374.904	1	14
375.075	1	9
375.246	1	16
375.417	1	4
375.588	1	-5
375.758	1	-2
375.929	1	3
376.100	1	6
376.271	1	8
376.442	1	4
376.613	1	6
376.784	1	4
376.955	1	9
377.125	1	5
377.296	1	8
377.467	1	13
377.638	1	-5
377.809	1	3
377.980	1	0
378.151	1	2
378.321	1	9
378.492	1	9
378.663	1	0
378.834	1	2
379.005	1	12
379.176	1	9
379.347	1	7
379.518	1	6
379.688	1	-8
379.859	1	-3
380.030	1	1
380.201	1	16
380.372	1	12
380.543	1	4
380.714	1	13
380.884	1	6
381.055	1	-2
381.226	1	14
381.397	1	-6
381.568	1	0
381.739	1	1
381.910	1	9
382.080	1	-7
382.251	1	5
382.422	1	18
382.593	1	1
382.764	1	2
382.935	1	1
383.105	1	6
383.276	1	5
383.447	1	-1
383.618	1	5
383.789	1	9
383.960	1	0
384.130	1	5
384.301	1	-3
384.472	1	3
384.643	1	5
384.814	1	-6
384.985	1	3
385.156	1	0
385.326	1	11
385.497	1	7
385.668	1	5
385.839	1	13
386.010	1	7
386.180	1	9
386.351	1	-3
386.522	1	2
386.693	1	3
386.864	1	5
387.035	1	7
387.205	1	-2
387.376	1	7
387.547	1	-1
387.718	1	-7
387.889	1	-7
388.060	1	7
388.230	1	2
388.401	1	6
388.572	1	4
388.743	1	19
388.914	1	-5
389.084	1	1
389.255	1	0
389.426	1	10
389.597	1	-10
389.768	1	-8
389.939	1	7
390.109	1	10
390.280	1	7
390.451	1	1
390.622	1	1
390.793	1	5
390.963	1	9
391.134	1	-7
391.305	1	10
391.476	1	1
391.647	1	17
391.817	1	8
391.988	1	8
392.159	1	5
392.330	1	-2
392.501	1	13
392.671	1	1
392.842	1	2
393.013	1	4
393.184	1	6
393.355	1	5
393.525	1	7
393.696	1	5
393.867	1	8
394.038	1	7
394.208	1	-4
394.379	1	10
394.550	1	12
394.721	1	3
394.892	1	1
395.062	1	-2
395.233	1	-7
395.404	1	-5
395.575	1	5
395.746	1	9
395.916	1	13
396.087	1	10
396.258	1	4
396.429	1	6
396.599	1	13
396.770	1	6
396.941	1	7
397.112	1	8
397.283	1	-2
397.453	1	2
397.624	1	-4
397.795	1	-7
397.966	1	8
398.136	1	5
398.307	1	18
398.478	1	-7
398.649	1	2
398.819	1	-6
398.990	1	2
399.161	1	11
399.332	1	9
399.503	1	8
399.673	1	5
399.844	1	-4
400.015	1	10
400.186	1	6
400.356	1	9
400.527	1	15
400.698	1	-6
400.869	1	3
401.039	1	14
401.210	1	-2
401.381	1	9
401.552	1	12
401.722	1	4
401.893	1	-8
402.064	1	0
402.235	1	10
402.405	1	8
402.576	1	-3
402.747	1	7
402.918	1	0
403.088	1	1
403.259	1	-2
403.430	1	11
403.601	1	-1
403.771	1	5
403.942	1	-5
404.113	1	11
404.284	1	5
404.454	1	8
404.625	1	10
404.796	1	1
404.967	1	8
405.137	1	13
405.308	1	0
405.479	1	2
405.649	1	14
405.820	1	6
405.991	1	8
406.162	1	0
406.332	1	16
406.503	1	7
406.674	1	12
406.845	1	1
407.015	1	4
407.186	1	4
407.357	1	-5
407.527	1	-5
407.698	1	8
407.869	1	9
408.040	1	4
408.210	1	6
408.381	1	7
408.552	1	4
408.722	1	20
408.893	1	6
409.064	1	-2
409.235	1	-2
409.405	1	3
409.576	1	6
409.747	1	-5
409.917	1	-6
410.088	1	15
410.259	1	12
410.430	1	9
410.600	1	0
410.771	1	-6
410.942	1	4
411.112	1	7
411.283	1	0
411.454	1	7
411.625	1	11
411.795	1	2
411.966	1	6
412.137	1	-3
412.307	1	-2
412.478	1	-1
412.649	1	13
412.819	1	8
412.990	1	-2
413.161	1	2
413.332	1	6
413.502	1	13
413.673	1	-1
413.844	1	5
414.014	1	11
414.185	1	9
414.356	1	6
414.526	1	3
414.697	1	3
414.868	1	-3
415.038	1	5
415.209	1	1
415.380	1	7
415.550	1	1
415.721	1	2
415.892	1	13
416.063	1	-2
416.233	1	13
416.404	1	11
416.575	1	4
416.745	1	3
416.916	1	-4
417.087	1	1
417.257	1	-1
417.428	1	3
417.599	1	1
417.769	1	14
417.940	1	8
418.111	1	4
418.281	1	-3
418.452	1	11
418.623	1	2
418.793	1	0
418.964	1	4
419.135	1	7
419.305	1	8
419.476	1	5
419.647	1	12
419.817	1	7
419.988	1	7
420.159	1	-2
420.329	1	8
420.500	1	3
420.671	1	5
420.841	1	1
421.012	1	-9
421.183	1	7
421.353	1	10
421.524	1	-2
421.695	1	-2
421.865	1	4
422.036	1	-9
422.206	1	8
422.377	1	5
422.548	1	7
422.718	1	3
422.889	1	0
423.060	1	5
423.230	1	9
423.401	1	14
423.572	1	-11
423.742	1	8
423.913	1	2
424.084	1	7
424.254	1	7
424.425	1	3
424.595	1	12
424.766	1	11
424.937	1	1
425.107	1	3
425.278	1	-5
425.449	1	5
425.619	1	0
425.790	1	12
425.961	1	1
426.131	1	13
426.302	1	3
426.472	1	11
426.643	1	-1
426.814	1	2
426.984	1	-5
427.155	1	2
427.326	1	1
427.496	1	1
427.667	1	10
427.837	1	5
428.008	1	3
428.179	1	4
428.349	1	0
428.520	1	6
428.691	1	-6
428.861	1	-3
429.032	1	-5
429.202	1	6
429.373	1	8
429.544	1	11
429.714	1	-5
429.885	1	-3
430.055	1	1
430.226	1	0
430.397	1	-2
430.567	1	9
430.738	1	-3
430.909	1	-4
431.079	1	14
431.250	1	12
431.420	1	3
431.591	1	5
431.762	1	5
431.932	1	-5
432.103	1	-10
432.273	1	8
432.444	1	15
432.615	1	9
432.785	1	6
432.956	1	-1
433.126	1	6
433.297	1	21
433.468	1	1
433.638	1	3
433.809	1	6
433.979	1	11
434.150	1	3
434.320	1	1
434.491	1	2
434.662	1	11
434.832	1	4
435.003	1	10
435.173	1	5
435.344	1	4
435.515	1	-5
435.685	1	-8
435.856	1	1
436.026	1	6
436.197	1	12
436.368	1	4
436.538	1	8
436.709	1	2
436.879	1	2
437.050	1	7
437.220	1	3
437.391	1	10
437.562	1	4
437.732	1	3
437.903	1	9
438.073	1	9
438.244	1	3
438.414	1	-6
438.585	1	-1
438.756	1	4
438.926	1	0
439.097	1	15
439.267	1	4
439.438	1	5
439.608	1	7
439.779	1	9
439.949	1	9
440.120	1	8
440.291	1	8
440.461	1	8
440.632	1	1
440.802	1	-4
440.973	1	0
441.143	1	-4
441.314	1	6
441.485	1	18
441.655	1	17
441.826	1	-6
441.996	1	13
442.167	1	-9
442.337	1	10
442.508	1	3
442.678	1	-5
442.849	1	4
443.019	1	7
443.190	1	8
443.361	1	0
443.531	1	4
443.702	1	2
443.872	1	6
444.043	1	2
444.213	1	5
444.384	1	-1
444.554	1	5
444.725	1	1
444.895	1	8
445.066	1	-4
445.237	1	6
445.407	1	-2
445.578	1	6
445.748	1	10
445.919	1	1
446.089	1	3
446.260	1	0
446.430	1	-1
446.601	1	5
446.771	1	14
446.942	1	3
447.112	1	3
447.283	1	6
447.453	1	3
447.624	1	3
447.794	1	20
447.965	1	-3
448.135	1	11
448.306	1	-1
448.477	1	1
448.647	1	18
448.818	1	-3
448.988	1	-7
449.159	1	7
449.329	1	-1
449.500	1	0
449.670	1	0
449.841	1	-2
450.011	1	-2
450.182	1	8
450.352	1	8
450.523	1	10
450.693	1	1
450.864	1	4
451.034	1	-2
451.205	1	2
451.375	1	14
451.546	1	7
451.716	1	2
451.887	1	-17
452.057	1	19
452.228	1	7
452.398	1	-7
452.569	1	-1
452.739	1	8
452.910	1	-1
453.080	1	-5
453.251	1	14
453.421	1	1
453.592	1	2
453.762	1	5
453.933	1	10
454.103	1	2
454.274	1	-7
454.444	1	-2
454.615	1	-3
454.785	1	7
454.956	1	1
455.126	1	-7
455.297	1	7
455.467	1	5
455.638	1	2
455.808	1	9
455.979	1	5
456.149	1	-1
456.320	1	-2
456.490	1	4
456.661	1	5
456.831	1	-5
457.001	1	1
457.172	1	-7
457.342	1	-3
457.513	1	-4
457.683	1	0
457.854	1	8
458.024	1	15
458.195	1	0
458.365	1	7
458.536	1	6
458.706	1	2
458.877	1	18
459.047	1	-6
459.218	1	11
459.388	1	-7
459.559	1	0
459.729	1	4
459.899	1	5
460.070	1	1
460.240	1	7
460.411	1	13
460.581	1	-4
460.752	1	10
460.922	1	0
461.093	1	7
461.263	1	8
461.434	1	7
461.604	1	-12
461.775	1	0
461.945	1	7
462.115	1	-4
462.286	1	2
462.456	1	4
462.627	1	3
462.797	1	4
462.968	1	2
463.138	1	2
463.309	1	8
463.479	1	7
463.649	1	6
463.820	1	-7
463.990	1	-1
464.161	1	-11
464.331	1	12
464.502	1	5
464.672	1	8
464.843	1	-3
465.013	1	-2
465.183	1	12
465.354	1	14
465.524	1	6
465.695	1	10
465.865	1	-7
466.036	1	8
466.206	1	3
466.376	1	-3
466.547	1	-1
466.717	1	8
466.888	1	6
467.058	1	6
467.229	1	-1
467.399	1	1
467.569	1	-4
467.740	1	17
467.910	1	-4
468.081	1	10
468.251	1	-1
468.422	1	8
468.592	1	7
468.762	1	3
468.933	1	11
469.103	1	6
469.274	1	9
469.444	1	-1
469.614	1	9
469.785	1	6
469.955	1	-5
470.126	1	-4
470.296	1	-6
470.467	1	6
470.637	1	8
470.807	1	10
470.978	1	0
471.148	1	4
471.319	1	6
471.489	1	-10
471.659	1	-6
471.830	1	0
472.000	1	-2
472.171	1	4
472.341	1	-9
472.511	1	10
472.682	1	8
472.852	1	5
473.023	1	10
473.193	1	0
473.363	1	8
473.534	1	2
473.704	1	-5
473.875	1	13
474.045	1	-4
474.215	1	1
474.386	1	7
474.556	1	0
474.727	1	-1
474.897	1	-7
475.067	1	0
475.238	1	13
475.408	1	1
475.578	1	6
475.749	1	16
475.919	1	-1
476.090	1	-3
476.260	1	5
476.430	1	12
476.601	1	0
476.771	1	-13
476.942	1	4
477.112	1	4
477.282	1	5
477.453	1	8
477.623	1	-8
477.793	1	-3
477.964	1	4
478.134	1	10
478.305	1	11
478.475	1	0
478.645	1	-5
478.816	1	11
478.986	1	-1
479.156	1	10
479.327	1	0
479.497	1	0
479.667	1	9
479.838	1	1
480.008	1	1
480.179	1	-3
480.349	1	2
480.519	1	-5
480.690	1	7
480.860	1	5
481.030	1	6
481.201	1	12
481.371	1	14
481.541	1	3
481.712	1	7
481.882	1	2
482.053	1	2
482.223	1	4
482.393	1	10
482.564	1	-9
482.734	1	-4
482.904	1	9
483.075	1	12
483.245	1	1
483.415	1	0
483.586	1	3
483.756	1	-6
483.926	1	0
484.097	1	-1
484.267	1	13
484.437	1	1
484.608	1	11
484.778	1	16
484.948	1	-5
485.119	1	8
485.289	1	-10
485.459	1	-9
485.630	1	-1
485.800	1	8
485.970	1	0
486.141	1	1
486.311	1	9
486.481	1	4
486.652	1	-4
486.822	1	7
486.992	1	4
487.163	1	-1
487.333	1	-10
487.503	1	-1
487.674	1	6
487.844	1	-2
488.014	1	11
488.185	1	4
488.355	1	10
488.525	1	8
488.696	1	-3
488.866	1	3
489.036	1	14
489.207	1	8
489.377	1	-5
489.547	1	-2
489.718	1	-2
489.888	1	11
490.058	1	12
490.228	1	1
490.399	1	6
490.569	1	7
490.739	1	1
490.910	1	-8
491.080	1	-8
491.250	1	13
491.421	1	8
491.591	1	-4
491.761	1	4
491.932	1	0
492.102	1	3
492.272	1	1
492.442	1	7
492.613	1	4
492.783	1	-4
492.953	1	2
493.124	1	0
493.294	1	7
493.464	1	7
493.635	1	-4
493.805	1	9
493.975	1	12
494.145	1	-5
494.316	1	6
494.486	1	17
494.656	1	4
494.827	1	3
494.997	1	1
495.167	1	7
495.337	1	8
495.508	1	-3
495.678	1	-1
495.848	1	7
496.019	1	-9
496.189	1	13
496.359	1	5
496.529	1	11
496.700	1	-1
496.870	1	1
497.040	1	13
497.211	1	0
497.381	1	12
497.551	1	17
497.721	1	5
497.892	1	8
498.062	1	-5
498.232	1	2
498.403	1	2
498.573	1	15
498.743	1	8
498.913	1	13
499.084	1	17
499.254	1	6
499.424	1	-13
499.594	1	-1
499.765	1	-8
499.935	1	10
500.105	1	7
500.275	1	8
500.446	1	6
500.616	1	1
500.786	1	3
500.956	1	0
501.127	1	3
501.297	1	-4
501.467	1	3
501.638	1	-9
501.808	1	8
501.978	1	3
502.148	1	7
502.319	1	1
502.489	1	8
502.659	1	2
502.829	1	0
503.000	1	2
503.170	1	-6
503.340	1	0
503.510	1	0
503.681	1	2
503.851	1	2
504.021	1	1
504.191	1	0
504.362	1	6
504.532	1	5
504.702	1	4
504.872	1	-5
505.042	1	0
505.213	1	-1
505.383	1	6
505.553	1	2
505.723	1	11
505.894	1	10
506.064	1	8
506.234	1	-1
506.404	1	-4
506.575	1	-9
506.745	1	3
506.915	1	-1
507.085	1	10
507.256	1	13
507.426	1	1
507.596	1	2
507.766	1	13
507.936	1	2
508.107	1	-2
508.277	1	0
508.447	1	4
508.617	1	-9
508.788	1	-3
508.958	1	0
509.128	1	6
509.298	1	4
509.468	1	-5
509.639	1	-5
509.809	1	5
509.979	1	0
510.149	1	1
510.319	1	12
510.490	1	8
510.660	1	-2
510.830	1	20
511.000	1	5
511.171	1	15
511.341	1	-4
511.511	1	-5
511.681	1	6
511.851	1	6
512.022	1	8
512.192	1	0
512.362	1	-4
512.532	1	5
512.702	1	4
512.873	1	9
513.043	1	7
513.213	1	3
513.383	1	5
513.553	1	11
513.724	1	5
513.894	1	2
514.064	1	0
514.234	1	12
514.404	1	7
514.575	1	-6
514.745	1	2
514.915	1	-3
515.085	1	15
515.255	1	9
515.425	1	8
515.596	1	3
515.766	1	10
515.936	1	7
516.106	1	3
516.276	1	4
516.447	1	0
516.617	1	9
516.787	1	9
516.957	1	-6
517.127	1	6
517.297	1	-6
517.468	1	6
517.638	1	8
517.808	1	8
517.978	1	-2
518.148	1	1
518.319	1	-5
518.489	1	0
518.659	1	2
518.829	1	3
518.999	1	4
519.169	1	7
519.340	1	-2
519.510	1	-2
519.680	1	-3
519.850	1	12
520.020	1	2
520.190	1	7
520.361	1	-8
520.531	1	10
520.701	1	3
520.871	1	5
521.041	1	14
521.211	1	11
521.382	1	10
521.552	1	2
521.722	1	10
521.892	1	11
522.062	1	8
522.232	1	-9
522.402	1	-6
522.573	1	-1
522.743	1	5
522.913	1	6
523.083	1	0
523.253	1	8
523.423	1	5
523.593	1	14
523.764	1	2
523.934	1	2
524.104	1	-4
524.274	1	-3
524.444	1	7
524.614	1	12
524.784	1	9
524.955	1	-1
525.125	1	9
525.295	1	7
525.465	1	8
525.635	1	0
525.805	1	-2
525.975	1	11
526.146	1	4
526.316	1	-1
526.486	1	7
526.656	1	-1
526.826	1	9
526.996	1	2
527.166	1	5
527.337	1	15
527.507	1	4
527.677	1	4
527.847	1	10
528.017	1	11
528.187	1	11
528.357	1	8
528.527	1	6
528.698	1	-6
528.868	1	-1
529.038	1	-7
529.208	1	6
529.378	1	7
529.548	1	-5
529.718	1	15
529.888	1	2
530.058	1	5
530.229	1	-1
530.399	1	4
530.569	1	2
530.739	1	1
530.909	1	3
531.079	1	6
531.249	1	22
531.419	1	7
531.589	1	17
531.760	1	7
531.930	1	1
532.100	1	13
532.270	1	1
532.440	1	7
532.610	1	-2
532.780	1	14
532.950	1	11
533.120	1	6
533.290	1	6
533.461	1	-2
533.631	1	0
533.801	1	19
533.971	1	6
534.141	1	6
534.311	1	11
534.481	1	5
534.651	1	6
534.821	1	7
534.991	1	-2
535.162	1	5
535.332	1	10
535.502	1	10
535.672	1	9
535.842	1	13
536.012	1	8
536.182	1	16
536.352	1	4
536.522	1	-4
536.692	1	7
536.862	1	2
537.032	1	1
537.203	1	-2
537.373	1	0
537.543	1	15
537.713	1	8
537.883	1	5
538.053	1	-8
538.223	1	8
538.393	1	20
538.563	1	7
538.733	1	2
538.903	1	13
539.073	1	-5
539.243	1	-1
539.413	1	17
539.584	1	15
539.754	1	1
539.924	1	-1
540.094	1	10
540.264	1	-1
540.434	1	4
540.604	1	8
540.774	1	6
540.944	1	6
541.114	1	5
541.284	1	-2
541.454	1	8
541.624	1	13
541.794	1	12
541.964	1	-2
542.134	1	-1
542.305	1	2
542.475	1	8
542.645	1	-3
542.815	1	11
542.985	1	-1
543.155	1	6
543.325	1	0
543.495	1	4
543.665	1	7
543.835	1	7
544.005	1	9
544.175	1	3
544.345	1	4
544.515	1	2
544.685	1	8
544.855	1	-3
545.025	1	2
545.195	1	1
545.365	1	15
545.535	1	17
545.705	1	2
545.875	1	12
546.045	1	-1
546.216	1	18
546.386	1	4
546.556	1	-3
546.726	1	-2
546.896	1	-2
547.066	1	8
547.236	1	5
547.406	1	-8
547.576	1	4
547.746	1	3
547.916	1	4
548.086	1	2
548.256	1	-7
548.426	1	8
548.596	1	8
548.766	1	6
548.936	1	13
549.106	1	-2
549.276	1	0
549.446	1	3
549.616	1	11
549.786	1	7
549.956	1	-4
550.126	1	10
550.296	1	1
550.466	1	6
550.636	1	0
550.806	1	7
550.976	1	-3
551.146	1	-2
551.316	1	-1
551.486	1	5
551.656	1	1
551.826	1	6
551.996	1	6
552.166	1	8
552.336	1	7
552.506	1	8
552.676	1	9
552.846	1	-5
553.016	1	2
553.186	1	-2
553.356	1	9
553.526	1	2
553.696	1	-3
553.866	1	-3
554.036	1	2
554.206	1	-3
554.376	1	11
554.546	1	8
554.716	1	-3
554.886	1	8
555.056	1	13
555.226	1	3
555.396	1	-14
555.566	1	9
555.736	1	4
555.906	1	-1
556.076	1	0
556.246	1	5
556.416	1	7
556.586	1	10
556.756	1	4
556.926	1	10
557.096	1	8
557.266	1	-6
557.436	1	13
557.606	1	-1
557.776	1	7
557.946	1	9
558.116	1	0
558.286	1	12
558.456	1	7
558.626	1	-10
558.796	1	11
558.966	1	-1
559.136	1	5
559.306	1	-4
559.476	1	-3
559.646	1	4
559.816	1	5
559.986	1	4
560.155	1	-8
560.325	1	2
560.495	1	2
560.665	1	6
560.835	1	-3
561.005	1	1
561.175	1	-1
561.345	1	10
561.515	1	-1
561.685	1	9
561.855	1	-1
562.025	1	0
562.195	1	-1
562.365	1	7
562.535	1	4
562.705	1	9
562.875	1	6
563.045	1	9
563.215	1	-1
563.385	1	0
563.555	1	13
563.725	1	0
563.895	1	4
564.064	1	8
564.234	1	7
564.404	1	10
564.574	1	8
564.744	1	12
564.914	1	2
565.084	1	3
565.254	1	-6
565.424	1	-2
565.594	1	10
565.764	1	3
565.934	1	3
566.104	1	9
566.274	1	8
566.444	1	8
566.614	1	-1
566.783	1	7
566.953	1	1
567.123	1	3
567.293	1	5
567.463	1	-1
567.633	1	-5
567.803	1	-2
567.973	1	-2
568.143	1	18
568.313	1	-4
568.483	1	9
568.653	1	-6
568.823	1	-7
568.993	1	3
569.162	1	7
569.332	1	7
569.502	1	-1
569.672	1	-3
569.842	1	-1
570.012	1	-8
570.182	1	0
570.352	1	-19
570.522	1	-2
570.692	1	3
570.862	1	11
571.031	1	3
571.201	1	5
571.371	1	6
571.541	1	-5
571.711	1	4
571.881	1	0
572.051	1	4
572.221	1	10
572.391	1	10
572.561	1	10
572.731	1	9
572.900	1	3
573.070	1	7
573.240	1	-1
573.410	1	3
573.580	1	-1
573.750	1	-8
573.920	1	7
574.090	1	2
574.260	1	9
574.430	1	6
574.599	1	14
574.769	1	-10
574.939	1	13
575.109	1	10
575.279	1	-14
575.449	1	4
575.619	1	10
575.789	1	-1
575.959	1	7
576.128	1	-7
576.298	1	4
576.468	1	-1
576.638	1	-5
576.808	1	8
576.978	1	-8
577.148	1	5
577.318	1	10
577.487	1	9
577.657	1	17
577.827	1	-3
577.997	1	1
578.167	1	-2
578.337	1	2
578.507	1	-2
578.677	1	16
578.846	1	-5
579.016	1	7
579.186	1	-1
579.356	1	11
579.526	1	0
579.696	1	2
579.866	1	5
580.036	1	2
580.205	1	-12
580.375	1	-1
580.545	1	2
580.715	1	4
580.885	1	5
581.055	1	1
581.225	1	-4
581.394	1	-6
581.564	1	1
581.734	1	5
581.904	1	4
582.074	1	4
582.244	1	-5
582.414	1	-9
582.583	1	8
582.753	1	3
582.923	1	-5
583.093	1	11
583.263	1	4
583.433	1	9
583.603	1	4
583.772	1	-2
583.942	1	-6
584.112	1	13
584.282	1	-2
584.452	1	7
584.622	1	-11
584.791	1	4
584.961	1	-2
585.131	1	10
585.301	1	3
585.471	1	9
585.641	1	20
585.811	1	0
585.980	1	-4
586.150	1	6
586.320	1	-1
586.490	1	10
586.660	1	-8
586.830	1	-3
586.999	1	-9
587.169	1	3
587.339	1	-2
587.509	1	3
587.679	1	8
587.849	1	9
588.018	1	0
588.188	1	6
588.358	1	-7
588.528	1	14
588.698	1	-2
588.867	1	3
589.037	1	4
589.207	1	1
589.377	1	1
589.547	1	-1
589.717	1	-8
589.886	1	4
590.056	1	-4
590.226	1	13
590.396	1	7
590.566	1	3
590.735	1	7
590.905	1	2
591.075	1	9
591.245	1	-1
591.415	1	12
591.585	1	11
591.754	1	-7
591.924	1	2
592.094	1	9
592.264	1	3
592.434	1	11
592.603	1	-1
592.773	1	2
592.943	1	2
593.113	1	-3
593.283	1	-3
593.452	1	-3
593.622	1	9
593.792	1	-12
593.962	1	4
594.132	1	2
594.301	1	2
594.471	1	6
594.641	1	6
594.811	1	6
594.981	1	-5
595.150	1	-5
595.320	1	13
595.490	1	7
595.660	1	5
595.829	1	2
595.999	1	6
596.169	1	7
596.339	1	3
596.509	1	-1
596.678	1	-8
596.848	1	9
597.018	1	12
597.188	1	-4
597.358	1	-6
597.527	1	2
597.697	1	3
597.867	1	3
598.037	1	14
598.206	1	1
598.376	1	4
598.546	1	2
598.716	1	13
598.885	1	3
599.055	1	-2
599.225	1	6
599.395	1	2
599.565	1	3
599.734	1	-3
599.904	1	2
600.074	1	4
600.244	1	3
600.413	1	1
600.583	1	-2
600.753	1	7
600.923	1	2
601.092	1	-2
601.262	1	-2
601.432	1	-5
601.602	1	0
601.771	1	11
601.941	1	8
602.111	1	6
602.281	1	9
602.451	1	1
602.620	1	4
602.790	1	-3
602.960	1	0
603.130	1	5
603.299	1	-1
603.469	1	-1
603.639	1	-11
603.809	1	4
603.978	1	-2
604.148	1	13
604.318	1	6
604.487	1	13
604.657	1	-5
604.827	1	0
604.997	1	6
605.166	1	8
605.336	1	9
605.506	1	9
605.676	1	-6
605.845	1	1
606.015	1	-2
606.185	1	11
606.355	1	7
606.524	1	4
606.694	1	-7
606.864	1	0
607.034	1	-4
607.203	1	-9
607.373	1	5
607.543	1	7
607.712	1	-2
607.882	1	8
608.052	1	5
608.222	1	-3
608.391	1	-7
608.561	1	-1
608.731	1	8
608.901	1	13
609.070	1	3
609.240	1	-10
609.410	1	6
609.579	1	11
609.749	1	2
609.919	1	8
610.089	1	1
610.258	1	-7
610.428	1	-6
610.598	1	4
610.767	1	1
610.937	1	10
611.107	1	11
611.277	1	8
611.446	1	5
611.616	1	-4
611.786	1	-5
611.955	1	-1
612.125	1	2
612.295	1	12
612.465	1	-3
612.634	1	6
612.804	1	7
612.974	1	-2
613.143	1	4
613.313	1	5
613.483	1	-5
613.652	1	-10
613.822	1	5
613.992	1	-2
614.162	1	5
614.331	1	5
614.501	1	16
614.671	1	4
614.840	1	-2
615.010	1	-5
615.180	1	3
615.349	1	-2
615.519	1	-6
615.689	1	4
615.858	1	3
616.028	1	8
616.198	1	6
616.368	1	2
616.537	1	12
616.707	1	6
616.877	1	-4
617.046	1	4
617.216	1	9
617.386	1	1
617.555	1	-2
617.725	1	-2
617.895	1	0
618.064	1	0
618.234	1	2
618.404	1	3
618.573	1	4
618.743	1	3
618.913	1	10
619.082	1	-1
619.252	1	-3
619.422	1	6
619.591	1	9
619.761	1	9
619.931	1	-1
620.100	1	-3
620.270	1	-2
620.440	1	-1
620.609	1	-6
620.779	1	4
620.949	1	-2
621.118	1	2
621.288	1	-12
621.458	1	9
621.627	1	13
621.797	1	0
621.967	1	2
622.136	1	3
622.306	1	7
622.476	1	6
622.645	1	8
622.815	1	-7
622.985	1	15
623.154	1	-3
623.324	1	-6
623.494	1	14
623.663	1	0
623.833	1	5
624.002	1	4
624.172	1	-5
624.342	1	4
624.511	1	3
624.681	1	0
624.851	1	-2
625.020	1	-2
625.190	1	-2
625.360	1	2
625.529	1	4
625.699	1	-8
625.869	1	-7
626.038	1	6
626.208	1	4
626.377	1	-2
626.547	1	1
626.717	1	7
626.886	1	-7
627.056	1	14
627.226	1	0
627.395	1	-3
627.565	1	2
627.735	1	9
627.904	1	15
628.074	1	7
628.243	1	15
628.413	1	1
628.583	1	-15
628.752	1	2
628.922	1	-10
629.091	1	2
629.261	1	-6
629.431	1	-3
629.600	1	-4
629.770	1	-2
629.940	1	6
630.109	1	7
630.279	1	9
630.448	1	4
630.618	1	-3
630.788	1	-4
630.957	1	2
631.127	1	-1
631.297	1	-4
631.466	1	8
631.636	1	5
631.805	1	4
631.975	1	1
632.145	1	-6
632.314	1	-2
632.484	1	-6
632.653	1	-3
632.823	1	0
632.993	1	-5
633.162	1	5
633.332	1	2
633.501	1	19
633.671	1	1
633.841	1	8
634.010	1	1
634.180	1	10
634.349	1	8
634.519	1	13
634.689	1	4
634.858	1	0
635.028	1	3
635.197	1	6
635.367	1	-12
635.537	1	-8
635.706	1	2
635.876	1	6
636.045	1	11
636.215	1	10
636.384	1	8
636.554	1	1
636.724	1	12
636.893	1	-2
637.063	1	10
637.232	1	-4
637.402	1	-3
637.572	1	7
637.741	1	7
637.911	1	-9
638.080	1	6
638.250	1	14
638.419	1	4
638.589	1	2
638.759	1	-2
638.928	1	-4
639.098	1	-4
639.267	1	9
639.437	1	4
639.606	1	5
639.776	1	4
639.946	1	2
640.115	1	3
640.285	1	7
640.454	1	12
640.624	1	-14
640.793	1	-3
640.963	1	0
641.132	1	17
641.302	1	10
641.472	1	-3
641.641	1	-8
641.811	1	-8
641.980	1	-5
642.150	1	-13
642.319	1	-3
642.489	1	0
642.659	1	5
642.828	1	-2
642.998	1	9
643.167	1	2
643.337	1	3
643.506	1	16
643.676	1	8
643.845	1	-8
644.015	1	4
644.184	1	-3
644.354	1	-1
644.524	1	7
644.693	1	-3
644.863	1	-7
645.032	1	-6
645.202	1	7
645.371	1	17
645.541	1	1
645.710	1	4
645.880	1	3
646.049	1	-6
646.219	1	7
646.388	1	6
646.558	1	-2
646.728	1	3
646.897	1	3
647.067	1	11
647.236	1	1
647.406	1	11
647.575	1	-2
647.745	1	7
647.914	1	-12
648.084	1	5
648.253	1	2
648.423	1	2
648.592	1	3
648.762	1	0
648.931	1	-13
649.101	1	-9
649.270	1	9
649.440	1	-1
649.610	1	-2
649.779	1	-2
649.949	1	0
650.118	1	4
650.288	1	13
650.457	1	2
650.627	1	2
650.796	1	2
650.966	1	3
651.135	1	2
651.305	1	-7
651.474	1	-4
651.644	1	0
651.813	1	9
651.983	1	-8
652.152	1	14
652.322	1	1
652.491	1	3
652.661	1	-1
652.830	1	11
653.000	1	-5
653.169	1	1
653.339	1	-2
653.508	1	8
653.678	1	-4
653.847	1	4
654.017	1	-3
654.186	1	5
654.356	1	-6
654.525	1	8
654.695	1	1
654.864	1	-1
655.034	1	1
655.203	1	7
655.373	1	4
655.542	1	-9
655.712	1	-4
655.881	1	4
656.051	1	9
656.220	1	-1
656.390	1	0
656.559	1	8
656.729	1	-1
656.898	1	-2
657.068	1	-1
657.237	1	9
657.406	1	3
657.576	1	-1
657.745	1	0
657.915	1	8
658.084	1	-2
658.254	1	-4
658.423	1	7
658.593	1	5
658.762	1	7
658.932	1	14
659.101	1	0
659.271	1	5
659.440	1	-7
659.610	1	5
659.779	1	4
659.949	1	-7
660.118	1	-5
660.288	1	9
660.457	1	-5
660.626	1	6
660.796	1	3
660.965	1	0
661.135	1	12
661.304	1	10
661.474	1	0
661.643	1	5
661.813	1	-2
661.982	1	-3
662.152	1	-6
662.321	1	-10
662.491	1	18
662.660	1	-2
662.829	1	6
662.999	1	2
663.168	1	2
663.338	1	2
663.507	1	9
663.677	1	2
663.846	1	8
664.016	1	4
664.185	1	-3
664.354	1	8
664.524	1	-1
664.693	1	7
664.863	1	10
665.032	1	5
665.202	1	-2
665.371	1	-1
665.541	1	8
665.710	1	12
665.879	1	-2
666.049	1	9
666.218	1	1
666.388	1	3
666.557	1	5
666.727	1	-15
666.896	1	4
667.065	1	4
667.235	1	13
667.404	1	0
667.574	1	20
667.743	1	-9
667.913	1	6
668.082	1	-6
668.251	1	4
668.421	1	1
668.590	1	-2
668.760	1	-4
668.929	1	12
669.099	1	-5
669.268	1	-11
669.437	1	-9
669.607	1	1
669.776	1	4
669.946	1	16
670.115	1	15
670.285	1	8
670.454	1	-9
670.623	1	13
670.793	1	-1
670.962	1	-2
671.132	1	5
671.301	1	-1
671.470	1	5
671.640	1	-4
671.809	1	-4
671.979	1	5
672.148	1	-2
672.317	1	6
672.487	1	0
672.656	1	-4
672.826	1	-8
672.995	1	-7
673.164	1	5
673.334	1	-7
673.503	1	-6
673.673	1	15
673.842	1	3
674.011	1	-1
674.181	1	13
674.350	1	-3
674.520	1	-3
674.689	1	7
674.858	1	-10
675.028	1	6
675.197	1	-2
675.367	1	-6
675.536	1	7
675.705	1	17
675.875	1	-2
676.044	1	8
676.214	1	8
676.383	1	-2
676.552	1	-2
676.722	1	-8
676.891	1	0
677.060	1	4
677.230	1	0
677.399	1	-8
677.569	1	5
677.738	1	-3
677.907	1	-1
678.077	1	0
678.246	1	11
678.416	1	1
678.585	1	1
678.754	1	6
678.924	1	8
679.093	1	5
679.262	1	7
679.432	1	4
679.601	1	-2
679.771	1	9
679.940	1	0
680.109	1	1
680.279	1	7
680.448	1	5
680.617	1	-7
680.787	1	8
680.956	1	2
681.125	1	6
681.295	1	0
681.464	1	-3
681.634	1	2
681.803	1	-1
681.972	1	-5
682.142	1	-6
682.311	1	-11
682.480	1	18
682.650	1	-5
682.819	1	6
682.988	1	-2
683.158	1	8
683.327	1	1
683.496	1	4
683.666	1	-1
683.835	1	-7
684.004	1	-1
684.174	1	1
684.343	1	3
684.512	1	6
684.682	1	5
684.851	1	-13
685.021	1	12
685.190	1	4
685.359	1	-4
685.529	1	-12
685.698	1	-1
685.867	1	0
686.037	1	6
686.206	1	8
686.375	1	2
686.545	1	-2
686.714	1	-2
686.883	1	-3
687.053	1	3
687.222	1	5
687.391	1	5
687.561	1	6
687.730	1	-3
687.899	1	2
688.069	1	0
688.238	1	5
688.407	1	5
688.577	1	2
688.746	1	4
