340.368	1	4
340.539	1	7
340.710	1	5
340.881	1	17
341.052	1	-6
341.223	1	-6
341.394	1	8
341.565	1	-2
341.737	1	4
341.908	1	6
342.079	1	5
342.250	1	19
342.421	1	20
342.592	1	6
342.763	1	7
342.934	1	6
343.105	1	7
343.276	1	2
343.447	1	7
343.618	1	6
343.789	1	6
343.960	1	-12
344.131	1	7
344.302	1	17
344.473	1	-4
344.644	1	10
344.815	1	0
344.986	1	5
345.157	1	-8
345.328	1	13
345.499	1	-1
345.670	1	-2
345.841	1	-2
346.012	1	6
346.183	1	11
346.354	1	4
346.526	1	-2
346.697	1	7
346.868	1	2
347.039	1	-7
347.210	1	11
347.381	1	12
347.552	1	1
347.723	1	8
347.894	1	7
348.065	1	5
348.236	1	7
348.407	1	9
348.578	1	-1
348.749	1	6
348.920	1	0
349.091	1	6
349.262	1	8
349.433	1	11
349.604	1	11
349.775	1	1
349.946	1	12
350.117	1	16
350.288	1	-17
350.459	1	-10
350.630	1	19
350.801	1	0
350.972	1	9
351.143	1	9
351.314	1	-1
351.485	1	7
351.656	1	17
351.827	1	2
351.998	1	10
352.169	1	-2
352.340	1	16
352.511	1	16
352.682	1	6
352.853	1	9
353.024	1	1
353.195	1	4
353.366	1	10
353.537	1	2
353.708	1	-1
353.879	1	1
354.050	1	9
354.221	1	16
354.392	1	10
354.563	1	7
354.734	1	-3
354.905	1	12
355.076	1	4
355.247	1	7
355.418	1	17
355.589	1	7
355.760	1	16
355.931	1	9
356.102	1	7
356.273	1	19
356.444	1	-1
356.615	1	19
356.785	1	15
356.956	1	29
357.127	1	17
357.298	1	9
357.469	1	6
357.640	1	15
357.811	1	18
357.982	1	12
358.153	1	16
358.324	1	13
358.495	1	14
358.666	1	9
358.837	1	18
359.008	1	17
359.179	1	12
359.350	1	14
359.521	1	14
359.692	1	18
359.863	1	17
360.034	1	21
360.205	1	15
360.376	1	16
360.547	1	11
360.718	1	18
360.889	1	18
361.060	1	13
361.231	1	21
361.401	1	15
361.572	1	23
361.743	1	23
361.914	1	32
362.085	1	23
362.256	1	27
362.427	1	29
362.598	1	20
362.769	1	31
362.940	1	25
363.111	1	37
363.282	1	39
363.453	1	23
363.624	1	34
363.795	1	31
363.966	1	46
364.137	1	37
364.308	1	45
364.478	1	40
364.649	1	55
364.820	1	52
364.991	1	48
365.162	1	48
365.333	1	52
365.504	1	51
365.675	1	53
365.846	1	53
366.017	1	65
366.188	1	56
366.359	1	67
366.530	1	63
366.701	1	64
366.871	1	75
367.042	1	70
367.213	1	72
367.384	1	72
367.555	1	69
367.726	1	70
367.897	1	68
368.068	1	62
368.239	1	65
368.410	1	69
368.581	1	78
368.752	1	72
368.923	1	71
369.093	1	70
369.264	1	65
369.435	1	56
369.606	1	78
369.777	1	70
369.948	1	63
370.119	1	70
370.290	1	67
370.461	1	64
370.632	1	46
370.803	1	55
370.973	1	58
371.144	1	64
371.315	1	64
371.486	1	57
371.657	1	39
371.828	1	53
371.999	1	51
372.170	1	41
372.341	1	46
372.512	1	36
372.682	1	41
372.853	1	45
373.024	1	45
373.195	1	37
373.366	1	46
373.537	1	44
373.708	1	36
373.879	1	54
374.050	1	49
374.220	1	31
374.391	1	42
374.562	1	36
374.733	1	30
374.904	1	35
375.075	1	46
375.246	1	39
375.417	1	27
375.588	1	35
375.758	1	22
375.929	1	25
376.100	1	28
376.271	1	29
376.442	1	39
376.613	1	26
376.784	1	23
376.955	1	30
377.125	1	33
377.296	1	20
377.467	1	33
377.638	1	18
377.809	1	21
377.980	1	11
378.151	1	33
378.321	1	23
378.492	1	24
378.663	1	29
378.834	1	19
379.005	1	40
379.176	1	20
379.347	1	25
379.518	1	34
379.688	1	13
379.859	1	23
380.030	1	22
380.201	1	26
380.372	1	16
380.543	1	9
380.714	1	33
380.884	1	22
381.055	1	14
381.226	1	26
381.397	1	17
381.568	1	15
381.739	1	14
381.910	1	31
382.080	1	9
382.251	1	21
382.422	1	21
382.593	1	20
382.764	1	12
382.935	1	16
383.105	1	16
383.276	1	15
383.447	1	21
383.618	1	28
383.789	1	24
383.960	1	15
384.130	1	17
384.301	1	16
384.472	1	17
384.643	1	18
384.814	1	16
384.985	1	25
385.156	1	19
385.326	1	10
385.497	1	8
385.668	1	17
385.839	1	27
386.010	1	10
386.180	1	19
386.351	1	2
386.522	1	12
386.693	1	10
386.864	1	27
387.035	1	28
387.205	1	19
387.376	1	1
387.547	1	15
387.718	1	11
387.889	1	7
388.060	1	16
388.230	1	16
388.401	1	23
388.572	1	25
388.743	1	18
388.914	1	12
389.084	1	18
389.255	1	12
389.426	1	21
389.597	1	-1
389.768	1	17
389.939	1	19
390.109	1	17
390.280	1	24
390.451	1	16
390.622	1	9
390.793	1	8
390.963	1	18
391.134	1	12
391.305	1	13
391.476	1	17
391.647	1	17
391.817	1	26
391.988	1	11
392.159	1	14
392.330	1	12
392.501	1	17
392.671	1	5
392.842	1	24
393.013	1	15
393.184	1	20
393.355	1	14
393.525	1	13
393.696	1	2
393.867	1	26
394.038	1	16
394.208	1	12
394.379	1	23
394.550	1	15
394.721	1	19
394.892	1	11
395.062	1	6
395.233	1	2
395.404	1	0
395.575	1	18
395.746	1	15
395.916	1	18
396.087	1	17
396.258	1	8
396.429	1	6
396.599	1	4
396.770	1	9
396.941	1	15
397.112	1	6
397.283	1	10
397.453	1	19
397.624	1	15
397.795	1	6
397.966	1	25
398.136	1	9
398.307	1	16
398.478	1	10
398.649	1	8
398.819	1	8
398.990	1	4
399.161	1	16
399.332	1	13
399.503	1	16
399.673	1	20
399.844	1	6
400.015	1	16
400.186	1	7
400.356	1	12
400.527	1	16
400.698	1	18
400.869	1	6
401.039	1	21
401.210	1	4
401.381	1	13
401.552	1	15
401.722	1	9
401.893	1	0
402.064	1	9
402.235	1	8
402.405	1	19
402.576	1	6
402.747	1	15
402.918	1	16
403.088	1	10
403.259	1	5
403.430	1	23
403.601	1	7
403.771	1	15
403.942	1	7
404.113	1	5
404.284	1	13
404.454	1	15
404.625	1	17
404.796	1	9
404.967	1	15
405.137	1	15
405.308	1	12
405.479	1	7
405.649	1	17
405.820	1	18
405.991	1	6
406.162	1	6
406.332	1	11
406.503	1	13
406.674	1	24
406.845	1	-7
407.015	1	11
407.186	1	14
407.357	1	15
407.527	1	11
407.698	1	12
407.869	1	13
408.040	1	2
408.210	1	9
408.381	1	6
408.552	1	5
408.722	1	7
408.893	1	16
409.064	1	14
409.235	1	8
409.405	1	9
409.576	1	17
409.747	1	6
409.917	1	-3
410.088	1	8
410.259	1	5
410.430	1	21
410.600	1	14
410.771	1	1
410.942	1	13
411.112	1	18
411.283	1	7
411.454	1	8
411.625	1	6
411.795	1	5
411.966	1	8
412.137	1	-1
412.307	1	8
412.478	1	5
412.649	1	21
412.819	1	7
412.990	1	9
413.161	1	15
413.332	1	5
413.502	1	21
413.673	1	-3
413.844	1	6
414.014	1	13
414.185	1	16
414.356	1	16
414.526	1	5
414.697	1	14
414.868	1	6
415.038	1	12
415.209	1	8
415.380	1	9
415.550	1	9
415.721	1	9
415.892	1	10
416.063	1	15
416.233	1	18
416.404	1	12
416.575	1	5
416.745	1	-1
416.916	1	5
417.087	1	4
417.257	1	15
417.428	1	6
417.599	1	6
417.769	1	13
417.940	1	21
418.111	1	11
418.281	1	7
418.452	1	3
418.623	1	8
418.793	1	-8
418.964	1	7
419.135	1	12
419.305	1	15
419.476	1	16
419.647	1	14
419.817	1	7
419.988	1	20
420.159	1	4
420.329	1	12
420.500	1	9
420.671	1	7
420.841	1	21
421.012	1	3
421.183	1	11
421.353	1	4
421.524	1	9
421.695	1	9
421.865	1	6
422.036	1	6
422.206	1	12
422.377	1	19
422.548	1	19
422.718	1	9
422.889	1	7
423.060	1	12
423.230	1	0
423.401	1	13
423.572	1	0
423.742	1	12
423.913	1	16
424.084	1	5
424.254	1	17
424.425	1	8
424.595	1	10
424.766	1	9
424.937	1	6
425.107	1	5
425.278	1	6
425.449	1	6
425.619	1	10
425.790	1	9
425.961	1	12
426.131	1	14
426.302	1	12
426.472	1	8
426.643	1	6
426.814	1	8
426.984	1	6
427.155	1	0
427.326	1	10
427.496	1	5
427.667	1	16
427.837	1	15
428.008	1	5
428.179	1	8
428.349	1	15
428.520	1	7
428.691	1	7
428.861	1	9
429.032	1	11
429.202	1	10
429.373	1	11
429.544	1	18
429.714	1	4
429.885	1	12
430.055	1	13
430.226	1	-2
430.397	1	0
430.567	1	14
430.738	1	7
430.909	1	10
431.079	1	20
431.250	1	13
431.420	1	3
431.591	1	3
431.762	1	9
431.932	1	3
432.103	1	-3
432.273	1	4
432.444	1	12
432.615	1	8
432.785	1	3
432.956	1	-1
433.126	1	10
433.297	1	12
433.468	1	4
433.638	1	20
433.809	1	16
433.979	1	11
434.150	1	9
434.320	1	1
434.491	1	9
434.662	1	6
434.832	1	5
435.003	1	19
435.173	1	9
435.344	1	14
435.515	1	7
435.685	1	-8
435.856	1	5
436.026	1	13
436.197	1	2
436.368	1	-5
436.538	1	8
436.709	1	-2
436.879	1	11
437.050	1	11
437.220	1	-1
437.391	1	15
437.562	1	10
437.732	1	9
437.903	1	18
438.073	1	15
438.244	1	10
438.414	1	-4
438.585	1	16
438.756	1	5
438.926	1	7
439.097	1	7
439.267	1	6
439.438	1	4
439.608	1	10
439.779	1	15
439.949	1	19
440.120	1	4
440.291	1	11
440.461	1	21
440.632	1	9
440.802	1	-3
440.973	1	9
441.143	1	1
441.314	1	8
441.485	1	2
441.655	1	19
441.826	1	9
441.996	1	16
442.167	1	6
442.337	1	10
442.508	1	4
442.678	1	-5
442.849	1	13
443.019	1	13
443.190	1	13
443.361	1	6
443.531	1	1
443.702	1	9
443.872	1	6
444.043	1	4
444.213	1	6
444.384	1	-1
444.554	1	4
444.725	1	11
444.895	1	-1
445.066	1	-3
445.237	1	-2
445.407	1	0
445.578	1	-3
445.748	1	15
445.919	1	3
446.089	1	8
446.260	1	8
446.430	1	0
446.601	1	6
446.771	1	4
446.942	1	3
447.112	1	6
447.283	1	2
447.453	1	-1
447.624	1	4
447.794	1	19
447.965	1	5
448.135	1	12
448.306	1	8
448.477	1	1
448.647	1	15
448.818	1	0
448.988	1	12
449.159	1	16
449.329	1	0
449.500	1	2
449.670	1	4
449.841	1	-1
450.011	1	-1
450.182	1	17
450.352	1	14
450.523	1	13
450.693	1	13
450.864	1	5
451.034	1	-4
451.205	1	8
451.375	1	7
451.546	1	10
451.716	1	-1
451.887	1	-16
452.057	1	17
452.228	1	13
452.398	1	2
452.569	1	7
452.739	1	2
452.910	1	8
453.080	1	6
453.251	1	17
453.421	1	10
453.592	1	6
453.762	1	2
453.933	1	5
454.103	1	3
454.274	1	-3
454.444	1	7
454.615	1	-4
454.785	1	16
454.956	1	4
455.126	1	1
455.297	1	13
455.467	1	4
455.638	1	6
455.808	1	12
455.979	1	3
456.149	1	4
456.320	1	2
456.490	1	8
456.661	1	-3
456.831	1	7
457.001	1	5
457.172	1	0
457.342	1	14
457.513	1	-3
457.683	1	0
457.854	1	0
458.024	1	19
458.195	1	4
458.365	1	15
458.536	1	9
458.706	1	7
458.877	1	19
459.047	1	-5
459.218	1	10
459.388	1	1
459.559	1	2
459.729	1	1
459.899	1	-1
460.070	1	16
460.240	1	21
460.411	1	18
460.581	1	7
460.752	1	13
460.922	1	8
461.093	1	13
461.263	1	14
461.434	1	17
461.604	1	-7
461.775	1	0
461.945	1	7
462.115	1	7
462.286	1	7
462.456	1	10
462.627	1	-2
462.797	1	13
462.968	1	5
463.138	1	6
463.309	1	16
463.479	1	1
463.649	1	-4
463.820	1	-7
463.990	1	-3
464.161	1	-7
464.331	1	13
464.502	1	7
464.672	1	12
464.843	1	6
465.013	1	-3
465.183	1	13
465.354	1	0
465.524	1	8
465.695	1	8
465.865	1	4
466.036	1	0
466.206	1	5
466.376	1	9
466.547	1	5
466.717	1	16
466.888	1	2
467.058	1	7
467.229	1	4
467.399	1	-8
467.569	1	0
467.740	1	15
467.910	1	3
468.081	1	12
468.251	1	8
468.422	1	16
468.592	1	14
468.762	1	0
468.933	1	14
469.103	1	13
469.274	1	13
469.444	1	-4
469.614	1	25
469.785	1	10
469.955	1	5
470.126	1	-4
470.296	1	6
470.467	1	10
470.637	1	15
470.807	1	5
470.978	1	0
471.148	1	6
471.319	1	4
471.489	1	0
471.659	1	-1
471.830	1	13
472.000	1	11
472.171	1	12
472.341	1	2
472.511	1	9
472.682	1	9
472.852	1	11
473.023	1	0
473.193	1	11
473.363	1	12
473.534	1	5
473.704	1	1
473.875	1	12
474.045	1	8
474.215	1	0
474.386	1	6
474.556	1	14
474.727	1	4
474.897	1	1
475.067	1	14
475.238	1	14
475.408	1	5
475.578	1	5
475.749	1	5
475.919	1	3
476.090	1	2
476.260	1	3
476.430	1	10
476.601	1	14
476.771	1	-7
476.942	1	13
477.112	1	5
477.282	1	5
477.453	1	15
477.623	1	-8
477.793	1	5
477.964	1	-1
478.134	1	9
478.305	1	15
478.475	1	3
478.645	1	-8
478.816	1	8
478.986	1	3
479.156	1	1
479.327	1	4
479.497	1	3
479.667	1	7
479.838	1	7
480.008	1	7
480.179	1	6
480.349	1	-4
480.519	1	-1
480.690	1	12
480.860	1	14
481.030	1	10
481.201	1	7
481.371	1	15
481.541	1	4
481.712	1	14
481.882	1	7
482.053	1	0
482.223	1	10
482.393	1	10
482.564	1	-1
482.734	1	6
482.904	1	14
483.075	1	19
483.245	1	8
483.415	1	4
483.586	1	7
483.756	1	5
483.926	1	8
484.097	1	8
484.267	1	11
484.437	1	3
484.608	1	11
484.778	1	15
484.948	1	8
485.119	1	16
485.289	1	2
485.459	1	-7
485.630	1	4
485.800	1	8
485.970	1	10
486.141	1	2
486.311	1	22
486.481	1	7
486.652	1	9
486.822	1	18
486.992	1	2
487.163	1	5
487.333	1	-2
487.503	1	-1
487.674	1	9
487.844	1	3
488.014	1	11
488.185	1	4
488.355	1	17
488.525	1	14
488.696	1	3
488.866	1	13
489.036	1	10
489.207	1	8
489.377	1	5
489.547	1	6
489.718	1	11
489.888	1	13
490.058	1	13
490.228	1	10
490.399	1	10
490.569	1	6
490.739	1	6
490.910	1	4
491.080	1	4
491.250	1	9
491.421	1	9
491.591	1	11
491.761	1	9
491.932	1	11
492.102	1	23
492.272	1	4
492.442	1	-4
492.613	1	1
492.783	1	-1
492.953	1	19
493.124	1	3
493.294	1	17
493.464	1	11
493.635	1	18
493.805	1	9
493.975	1	27
494.145	1	5
494.316	1	17
494.486	1	26
494.656	1	9
494.827	1	20
494.997	1	7
495.167	1	13
495.337	1	2
495.508	1	8
495.678	1	11
495.848	1	21
496.019	1	4
496.189	1	5
496.359	1	14
496.529	1	21
496.700	1	14
496.870	1	21
497.040	1	16
497.211	1	11
497.381	1	12
497.551	1	16
497.721	1	10
497.892	1	7
498.062	1	4
498.232	1	21
498.403	1	11
498.573	1	18
498.743	1	18
498.913	1	16
499.084	1	21
499.254	1	20
499.424	1	13
499.594	1	2
499.765	1	8
499.935	1	18
500.105	1	13
500.275	1	24
500.446	1	8
500.616	1	12
500.786	1	13
500.956	1	10
501.127	1	17
501.297	1	12
501.467	1	14
501.638	1	14
501.808	1	26
501.978	1	11
502.148	1	9
502.319	1	8
502.489	1	16
502.659	1	20
502.829	1	22
503.000	1	17
503.170	1	9
503.340	1	11
503.510	1	18
503.681	1	10
503.851	1	14
504.021	1	13
504.191	1	14
504.362	1	14
504.532	1	17
504.702	1	9
504.872	1	21
505.042	1	23
505.213	1	17
505.383	1	17
505.553	1	21
505.723	1	23
505.894	1	23
506.064	1	25
506.234	1	13
506.404	1	20
506.575	1	13
506.745	1	18
506.915	1	19
507.085	1	22
507.256	1	21
507.426	1	19
507.596	1	14
507.766	1	23
507.936	1	16
508.107	1	17
508.277	1	18
508.447	1	19
508.617	1	11
508.788	1	12
508.958	1	30
509.128	1	26
509.298	1	15
509.468	1	15
509.639	1	25
509.809	1	23
509.979	1	10
510.149	1	18
510.319	1	22
510.490	1	17
510.660	1	1
510.830	1	33
511.000	1	23
511.171	1	21
511.341	1	14
511.511	1	25
511.681	1	23
511.851	1	29
512.022	1	35
512.192	1	14
512.362	1	14
512.532	1	26
512.702	1	19
512.873	1	15
513.043	1	25
513.213	1	29
513.383	1	18
513.553	1	20
513.724	1	10
513.894	1	10
514.064	1	10
514.234	1	28
514.404	1	27
514.575	1	21
514.745	1	15
514.915	1	20
515.085	1	22
515.255	1	29
515.425	1	23
515.596	1	15
515.766	1	32
515.936	1	31
516.106	1	15
516.276	1	28
516.447	1	24
516.617	1	15
516.787	1	27
516.957	1	23
517.127	1	23
517.297	1	17
517.468	1	34
517.638	1	31
517.808	1	17
517.978	1	28
518.148	1	30
518.319	1	15
518.489	1	32
518.659	1	32
518.829	1	31
518.999	1	33
519.169	1	24
519.340	1	10
519.510	1	29
519.680	1	17
519.850	1	31
520.020	1	30
520.190	1	37
520.361	1	18
520.531	1	39
520.701	1	24
520.871	1	21
521.041	1	36
521.211	1	38
521.382	1	38
521.552	1	25
521.722	1	27
521.892	1	27
522.062	1	21
522.232	1	21
522.402	1	23
522.573	1	20
522.743	1	33
522.913	1	33
523.083	1	24
523.253	1	36
523.423	1	37
523.593	1	22
523.764	1	27
523.934	1	17
524.104	1	29
524.274	1	19
524.444	1	25
524.614	1	37
524.784	1	32
524.955	1	29
525.125	1	37
525.295	1	28
525.465	1	24
525.635	1	20
525.805	1	19
525.975	1	39
526.146	1	20
526.316	1	15
526.486	1	24
526.656	1	18
526.826	1	30
526.996	1	23
527.166	1	34
527.337	1	30
527.507	1	26
527.677	1	26
527.847	1	22
528.017	1	18
528.187	1	34
528.357	1	23
528.527	1	29
528.698	1	25
528.868	1	27
529.038	1	11
529.208	1	35
529.378	1	32
529.548	1	15
529.718	1	32
529.888	1	31
530.058	1	19
530.229	1	20
530.399	1	37
530.569	1	20
530.739	1	24
530.909	1	40
531.079	1	30
531.249	1	35
531.419	1	35
531.589	1	28
531.760	1	25
531.930	1	23
532.100	1	25
532.270	1	30
532.440	1	21
532.610	1	22
532.780	1	32
532.950	1	28
533.120	1	23
533.290	1	32
533.461	1	22
533.631	1	25
533.801	1	32
533.971	1	23
534.141	1	27
534.311	1	34
534.481	1	24
534.651	1	37
534.821	1	43
534.991	1	29
535.162	1	27
535.332	1	32
535.502	1	29
535.672	1	20
535.842	1	42
536.012	1	31
536.182	1	27
536.352	1	30
536.522	1	21
536.692	1	23
536.862	1	21
537.032	1	39
537.203	1	8
537.373	1	27
537.543	1	34
537.713	1	29
537.883	1	11
538.053	1	24
538.223	1	23
538.393	1	40
538.563	1	42
538.733	1	29
538.903	1	42
539.073	1	34
539.243	1	34
539.413	1	25
539.584	1	30
539.754	1	18
539.924	1	20
540.094	1	30
540.264	1	24
540.434	1	18
540.604	1	28
540.774	1	36
540.944	1	31
541.114	1	11
541.284	1	35
541.454	1	26
541.624	1	29
541.794	1	28
541.964	1	22
542.134	1	22
542.305	1	18
542.475	1	37
542.645	1	15
542.815	1	25
542.985	1	24
543.155	1	29
543.325	1	22
543.495	1	26
543.665	1	31
543.835	1	29
544.005	1	39
544.175	1	23
544.345	1	28
544.515	1	25
544.685	1	29
544.855	1	19
545.025	1	12
545.195	1	15
545.365	1	34
545.535	1	33
545.705	1	24
545.875	1	40
546.045	1	19
546.216	1	17
546.386	1	28
546.556	1	11
546.726	1	21
546.896	1	36
547.066	1	20
547.236	1	10
547.406	1	22
547.576	1	29
547.746	1	21
547.916	1	18
548.086	1	12
548.256	1	14
548.426	1	14
548.596	1	19
548.766	1	27
548.936	1	37
549.106	1	12
549.276	1	8
549.446	1	21
549.616	1	20
549.786	1	18
549.956	1	11
550.126	1	28
550.296	1	24
550.466	1	27
550.636	1	16
550.806	1	22
550.976	1	4
551.146	1	17
551.316	1	27
551.486	1	18
551.656	1	26
551.826	1	31
551.996	1	17
552.166	1	16
552.336	1	31
552.506	1	28
552.676	1	21
552.846	1	21
553.016	1	35
553.186	1	18
553.356	1	9
553.526	1	25
553.696	1	20
553.866	1	18
554.036	1	16
554.206	1	21
554.376	1	34
554.546	1	14
554.716	1	16
554.886	1	15
555.056	1	33
555.226	1	26
555.396	1	10
555.566	1	21
555.736	1	19
555.906	1	24
556.076	1	23
556.246	1	26
556.416	1	31
556.586	1	25
556.756	1	12
556.926	1	25
557.096	1	14
557.266	1	21
557.436	1	17
557.606	1	16
557.776	1	21
557.946	1	23
558.116	1	19
558.286	1	23
558.456	1	22
558.626	1	9
558.796	1	23
558.966	1	3
559.136	1	16
559.306	1	24
559.476	1	20
559.646	1	17
559.816	1	12
559.986	1	17
560.155	1	8
560.325	1	13
560.495	1	20
560.665	1	17
560.835	1	19
561.005	1	14
561.175	1	21
561.345	1	18
561.515	1	8
561.685	1	17
561.855	1	21
562.025	1	18
562.195	1	12
562.365	1	20
562.535	1	22
562.705	1	18
562.875	1	11
563.045	1	9
563.215	1	21
563.385	1	16
563.555	1	20
563.725	1	12
563.895	1	17
564.064	1	21
564.234	1	19
564.404	1	7
564.574	1	16
564.744	1	12
564.914	1	19
565.084	1	21
565.254	1	11
565.424	1	14
565.594	1	18
565.764	1	18
565.934	1	14
566.104	1	8
566.274	1	13
566.444	1	24
566.614	1	14
566.783	1	23
566.953	1	20
567.123	1	8
567.293	1	21
567.463	1	17
567.633	1	1
567.803	1	18
567.973	1	18
568.143	1	24
568.313	1	6
568.483	1	7
568.653	1	10
568.823	1	-3
568.993	1	4
569.162	1	12
569.332	1	17
569.502	1	4
569.672	1	17
569.842	1	7
570.012	1	7
570.182	1	13
570.352	1	2
570.522	1	1
570.692	1	18
570.862	1	29
571.031	1	20
571.201	1	11
571.371	1	11
571.541	1	-1
571.711	1	18
571.881	1	9
572.051	1	7
572.221	1	13
572.391	1	15
572.561	1	10
572.731	1	13
572.900	1	21
573.070	1	16
573.240	1	7
573.410	1	7
573.580	1	16
573.750	1	12
573.920	1	18
574.090	1	1
574.260	1	15
574.430	1	16
574.599	1	10
574.769	1	9
574.939	1	20
575.109	1	9
575.279	1	5
575.449	1	11
575.619	1	16
575.789	1	16
575.959	1	12
576.128	1	11
576.298	1	6
576.468	1	7
576.638	1	11
576.808	1	13
576.978	1	-3
577.148	1	7
577.318	1	7
577.487	1	13
577.657	1	22
577.827	1	8
577.997	1	10
578.167	1	11
578.337	1	5
578.507	1	5
578.677	1	16
578.846	1	6
579.016	1	12
579.186	1	11
579.356	1	15
579.526	1	9
579.696	1	10
579.866	1	15
580.036	1	10
580.205	1	-2
580.375	1	3
580.545	1	6
580.715	1	11
580.885	1	14
581.055	1	19
581.225	1	4
581.394	1	3
581.564	1	10
581.734	1	6
581.904	1	8
582.074	1	4
582.244	1	-4
582.414	1	7
582.583	1	15
582.753	1	14
582.923	1	15
583.093	1	8
583.263	1	10
583.433	1	16
583.603	1	12
583.772	1	14
583.942	1	11
584.112	1	11
584.282	1	12
584.452	1	28
584.622	1	8
584.791	1	11
584.961	1	14
585.131	1	13
585.301	1	13
585.471	1	3
585.641	1	6
585.811	1	9
585.980	1	-1
586.150	1	19
586.320	1	5
586.490	1	8
586.660	1	-1
586.830	1	0
586.999	1	1
587.169	1	16
587.339	1	8
587.509	1	8
587.679	1	10
587.849	1	12
588.018	1	5
588.188	1	12
588.358	1	0
588.528	1	24
588.698	1	15
588.867	1	3
589.037	1	0
589.207	1	6
589.377	1	10
589.547	1	1
589.717	1	6
589.886	1	11
590.056	1	6
590.226	1	22
590.396	1	4
590.566	1	15
590.735	1	13
590.905	1	8
591.075	1	9
591.245	1	7
591.415	1	7
591.585	1	7
591.754	1	4
591.924	1	11
592.094	1	4
592.264	1	4
592.434	1	11
592.603	1	7
592.773	1	12
592.943	1	1
593.113	1	5
593.283	1	-6
593.452	1	12
593.622	1	14
593.792	1	1
593.962	1	11
594.132	1	-2
594.301	1	-5
594.471	1	14
594.641	1	9
594.811	1	5
594.981	1	-3
595.150	1	3
595.320	1	6
595.490	1	4
595.660	1	5
595.829	1	-3
595.999	1	10
596.169	1	13
596.339	1	15
596.509	1	7
596.678	1	-1
596.848	1	16
597.018	1	6
597.188	1	6
597.358	1	-1
597.527	1	-5
597.697	1	-5
597.867	1	8
598.037	1	6
598.206	1	6
598.376	1	-2
598.546	1	4
598.716	1	12
598.885	1	20
599.055	1	8
599.225	1	2
599.395	1	-2
599.565	1	6
599.734	1	5
599.904	1	1
600.074	1	16
600.244	1	5
600.413	1	10
600.583	1	4
600.753	1	0
600.923	1	9
601.092	1	8
601.262	1	4
601.432	1	-5
601.602	1	5
601.771	1	11
601.941	1	0
602.111	1	0
602.281	1	9
602.451	1	7
602.620	1	-1
602.790	1	3
602.960	1	6
603.130	1	15
603.299	1	10
603.469	1	3
603.639	1	-3
603.809	1	3
603.978	1	10
604.148	1	10
604.318	1	2
604.487	1	8
604.657	1	-4
604.827	1	1
604.997	1	14
605.166	1	10
605.336	1	16
605.506	1	15
605.676	1	-1
605.845	1	-1
606.015	1	0
606.185	1	6
606.355	1	10
606.524	1	7
606.694	1	1
606.864	1	16
607.034	1	8
607.203	1	0
607.373	1	9
607.543	1	11
607.712	1	11
607.882	1	12
608.052	1	4
608.222	1	-1
608.391	1	11
608.561	1	1
608.731	1	1
608.901	1	10
609.070	1	2
609.240	1	-2
609.410	1	13
609.579	1	11
609.749	1	0
609.919	1	16
610.089	1	2
610.258	1	-1
610.428	1	-2
610.598	1	4
610.767	1	4
610.937	1	15
611.107	1	13
611.277	1	8
611.446	1	7
611.616	1	2
611.786	1	-1
611.955	1	-2
612.125	1	7
612.295	1	9
612.465	1	-5
612.634	1	8
612.804	1	16
612.974	1	5
613.143	1	7
613.313	1	7
613.483	1	-1
613.652	1	-2
613.822	1	5
613.992	1	9
614.162	1	4
614.331	1	6
614.501	1	23
614.671	1	15
614.840	1	-1
615.010	1	2
615.180	1	3
615.349	1	4
615.519	1	-7
615.689	1	2
615.858	1	2
616.028	1	21
616.198	1	4
616.368	1	16
616.537	1	10
616.707	1	13
616.877	1	0
617.046	1	15
617.216	1	11
617.386	1	2
617.555	1	-4
617.725	1	0
617.895	1	6
618.064	1	8
618.234	1	8
618.404	1	-5
618.573	1	0
618.743	1	7
618.913	1	6
619.082	1	2
619.252	1	-9
619.422	1	3
619.591	1	5
619.761	1	16
619.931	1	-7
620.100	1	-1
620.270	1	10
620.440	1	-2
620.609	1	4
620.779	1	4
620.949	1	7
621.118	1	15
621.288	1	-4
621.458	1	3
621.627	1	19
621.797	1	-2
621.967	1	0
622.136	1	12
622.306	1	18
622.476	1	12
622.645	1	16
622.815	1	9
622.985	1	14
623.154	1	-1
623.324	1	2
623.494	1	3
623.663	1	3
623.833	1	6
624.002	1	5
624.172	1	3
624.342	1	9
624.511	1	12
624.681	1	6
624.851	1	-1
625.020	1	8
625.190	1	-1
625.360	1	4
625.529	1	3
625.699	1	0
625.869	1	13
626.038	1	8
626.208	1	0
626.377	1	-2
626.547	1	11
626.717	1	6
626.886	1	-9
627.056	1	8
627.226	1	2
627.395	1	2
627.565	1	1
627.735	1	10
627.904	1	5
628.074	1	5
628.243	1	8
628.413	1	2
628.583	1	-12
628.752	1	17
628.922	1	-3
629.091	1	7
629.261	1	4
629.431	1	6
629.600	1	10
629.770	1	1
629.940	1	10
630.109	1	8
630.279	1	15
630.448	1	5
630.618	1	9
630.788	1	-2
630.957	1	5
631.127	1	5
631.297	1	7
631.466	1	12
631.636	1	4
631.805	1	9
631.975	1	6
632.145	1	2
632.314	1	0
632.484	1	2
632.653	1	0
632.823	1	6
632.993	1	-3
633.162	1	6
633.332	1	-2
633.501	1	13
633.671	1	-1
633.841	1	15
634.010	1	2
634.180	1	17
634.349	1	-2
634.519	1	6
634.689	1	11
634.858	1	11
635.028	1	9
635.197	1	-2
635.367	1	14
635.537	1	-1
635.706	1	10
635.876	1	4
636.045	1	10
636.215	1	3
636.384	1	10
636.554	1	11
636.724	1	8
636.893	1	6
637.063	1	9
637.232	1	-3
637.402	1	5
637.572	1	6
637.741	1	10
637.911	1	8
638.080	1	9
638.250	1	2
638.419	1	9
638.589	1	-4
638.759	1	6
638.928	1	1
639.098	1	6
639.267	1	5
639.437	1	19
639.606	1	9
639.776	1	1
639.946	1	4
640.115	1	3
640.285	1	-2
640.454	1	10
640.624	1	-8
640.793	1	-6
640.963	1	-7
641.132	1	15
641.302	1	17
641.472	1	8
641.641	1	3
641.811	1	0
641.980	1	-1
642.150	1	-10
642.319	1	0
642.489	1	-5
642.659	1	1
642.828	1	2
642.998	1	16
643.167	1	6
643.337	1	2
643.506	1	12
643.676	1	6
643.845	1	-7
644.015	1	9
644.184	1	-6
644.354	1	1
644.524	1	12
644.693	1	8
644.863	1	2
645.032	1	3
645.202	1	5
645.371	1	16
645.541	1	-3
645.710	1	17
645.880	1	8
646.049	1	1
646.219	1	5
646.388	1	7
646.558	1	-3
646.728	1	14
646.897	1	-1
647.067	1	1
647.236	1	-3
647.406	1	7
647.575	1	2
647.745	1	7
647.914	1	3
648.084	1	4
648.253	1	2
648.423	1	14
648.592	1	0
648.762	1	6
648.931	1	-4
649.101	1	0
649.270	1	-7
649.440	1	0
649.610	1	-2
649.779	1	7
649.949	1	9
650.118	1	-8
650.288	1	4
650.457	1	4
650.627	1	5
650.796	1	6
650.966	1	5
651.135	1	9
651.305	1	-4
651.474	1	-2
651.644	1	4
651.813	1	6
651.983	1	-3
652.152	1	13
652.322	1	3
652.491	1	4
652.661	1	7
652.830	1	5
653.000	1	-3
653.169	1	1
653.339	1	6
653.508	1	8
653.678	1	-1
653.847	1	5
654.017	1	4
654.186	1	-8
654.356	1	-1
654.525	1	7
654.695	1	-1
654.864	1	2
655.034	1	3
655.203	1	4
655.373	1	1
655.542	1	3
655.712	1	12
655.881	1	14
656.051	1	9
656.220	1	-1
656.390	1	0
656.559	1	8
656.729	1	1
656.898	1	-8
657.068	1	2
657.237	1	9
657.406	1	11
657.576	1	-2
657.745	1	3
657.915	1	8
658.084	1	3
658.254	1	0
658.423	1	5
658.593	1	10
658.762	1	13
658.932	1	22
659.101	1	2
659.271	1	2
659.440	1	2
659.610	1	6
659.779	1	11
659.949	1	-2
660.118	1	-2
660.288	1	3
660.457	1	2
660.626	1	8
660.796	1	11
660.965	1	8
661.135	1	17
661.304	1	8
661.474	1	0
661.643	1	0
661.813	1	0
661.982	1	1
662.152	1	9
662.321	1	0
662.491	1	19
662.660	1	-1
662.829	1	8
662.999	1	-4
663.168	1	5
663.338	1	8
663.507	1	7
663.677	1	-5
663.846	1	-3
664.016	1	8
664.185	1	4
664.354	1	1
664.524	1	-3
664.693	1	10
664.863	1	14
665.032	1	5
665.202	1	-6
665.371	1	1
665.541	1	4
665.710	1	0
665.879	1	0
666.049	1	2
666.218	1	1
666.388	1	9
666.557	1	-1
666.727	1	1
666.896	1	5
667.065	1	9
667.235	1	10
667.404	1	5
667.574	1	13
667.743	1	-2
667.913	1	4
668.082	1	9
668.251	1	2
668.421	1	0
668.590	1	6
668.760	1	-1
668.929	1	10
669.099	1	-8
669.268	1	5
669.437	1	0
669.607	1	-2
669.776	1	2
669.946	1	9
670.115	1	11
670.285	1	8
670.454	1	1
670.623	1	16
670.793	1	5
670.962	1	0
671.132	1	-5
671.301	1	6
671.470	1	8
671.640	1	-1
671.809	1	0
671.979	1	0
672.148	1	7
672.317	1	1
672.487	1	-12
672.656	1	5
672.826	1	7
672.995	1	4
673.164	1	13
673.334	1	-3
673.503	1	7
673.673	1	10
673.842	1	-6
674.011	1	0
674.181	1	13
674.350	1	0
674.520	1	4
674.689	1	8
674.858	1	-3
675.028	1	11
675.197	1	-2
675.367	1	-1
675.536	1	7
675.705	1	18
675.875	1	3
676.044	1	9
676.214	1	15
676.383	1	11
676.552	1	-4
676.722	1	6
676.891	1	5
677.060	1	1
677.230	1	12
677.399	1	5
677.569	1	-5
677.738	1	-2
677.907	1	3
678.077	1	9
678.246	1	14
678.416	1	10
678.585	1	13
678.754	1	11
678.924	1	7
679.093	1	6
679.262	1	4
679.432	1	4
679.601	1	6
679.771	1	6
679.940	1	1
680.109	1	5
680.279	1	1
680.448	1	6
680.617	1	-5
680.787	1	5
680.956	1	-9
681.125	1	2
681.295	1	11
681.464	1	-1
681.634	1	9
681.803	1	-5
681.972	1	-2
682.142	1	-4
682.311	1	-8
682.480	1	14
682.650	1	1
682.819	1	-1
682.988	1	1
683.158	1	7
683.327	1	11
683.496	1	5
683.666	1	1
683.835	1	-7
684.004	1	10
684.174	1	11
684.343	1	2
684.512	1	5
684.682	1	-3
684.851	1	-3
685.021	1	15
685.190	1	3
685.359	1	2
685.529	1	-2
685.698	1	-3
685.867	1	5
686.037	1	4
686.206	1	9
686.375	1	10
686.545	1	4
686.714	1	-8
686.883	1	3
687.053	1	-1
687.222	1	10
687.391	1	4
687.561	1	16
687.730	1	-7
687.899	1	1
688.069	1	5
688.238	1	13
688.407	1	14
688.577	1	2
688.746	1	6
