340.368	1	1
340.539	1	5
340.710	1	9
340.881	1	4
341.052	1	4
341.223	1	-2
341.394	1	2
341.565	1	2
341.737	1	6
341.908	1	9
342.079	1	0
342.250	1	15
342.421	1	11
342.592	1	11
342.763	1	11
342.934	1	1
343.105	1	-2
343.276	1	2
343.447	1	5
343.618	1	0
343.789	1	5
343.960	1	-4
344.131	1	13
344.302	1	9
344.473	1	9
344.644	1	9
344.815	1	-6
344.986	1	10
345.157	1	-9
345.328	1	10
345.499	1	-2
345.670	1	11
345.841	1	2
346.012	1	2
346.183	1	7
346.354	1	5
346.526	1	1
346.697	1	3
346.868	1	1
347.039	1	-4
347.210	1	4
347.381	1	4
347.552	1	5
347.723	1	11
347.894	1	5
348.065	1	12
348.236	1	2
348.407	1	6
348.578	1	1
348.749	1	9
348.920	1	6
349.091	1	17
349.262	1	8
349.433	1	10
349.604	1	5
349.775	1	7
349.946	1	13
350.117	1	18
350.288	1	-3
350.459	1	6
350.630	1	14
350.801	1	1
350.972	1	10
351.143	1	10
351.314	1	2
351.485	1	7
351.656	1	14
351.827	1	2
351.998	1	13
352.169	1	4
352.340	1	11
352.511	1	6
352.682	1	6
352.853	1	16
353.024	1	9
353.195	1	1
353.366	1	17
353.537	1	7
353.708	1	4
353.879	1	8
354.050	1	13
354.221	1	5
354.392	1	11
354.563	1	5
354.734	1	9
354.905	1	17
355.076	1	14
355.247	1	16
355.418	1	14
355.589	1	15
355.760	1	7
355.931	1	16
356.102	1	-1
356.273	1	14
356.444	1	0
356.615	1	14
356.785	1	25
356.956	1	20
357.127	1	19
357.298	1	6
357.469	1	11
357.640	1	17
357.811	1	23
357.982	1	26
358.153	1	8
358.324	1	15
358.495	1	25
358.666	1	26
358.837	1	12
359.008	1	25
359.179	1	17
359.350	1	18
359.521	1	22
359.692	1	24
359.863	1	22
360.034	1	35
360.205	1	40
360.376	1	32
360.547	1	40
360.718	1	37
360.889	1	33
361.060	1	42
361.231	1	29
361.401	1	27
361.572	1	45
361.743	1	45
361.914	1	49
362.085	1	48
362.256	1	42
362.427	1	50
362.598	1	52
362.769	1	48
362.940	1	49
363.111	1	66
363.282	1	66
363.453	1	46
363.624	1	59
363.795	1	65
363.966	1	78
364.137	1	62
364.308	1	87
364.478	1	84
364.649	1	88
364.820	1	96
364.991	1	85
365.162	1	92
365.333	1	90
365.504	1	90
365.675	1	103
365.846	1	104
366.017	1	104
366.188	1	111
366.359	1	112
366.530	1	118
366.701	1	131
366.871	1	124
367.042	1	124
367.213	1	136
367.384	1	144
367.555	1	128
367.726	1	132
367.897	1	135
368.068	1	129
368.239	1	141
368.410	1	122
368.581	1	135
368.752	1	127
368.923	1	138
369.093	1	126
369.264	1	118
369.435	1	112
369.606	1	136
369.777	1	116
369.948	1	109
370.119	1	119
370.290	1	121
370.461	1	113
370.632	1	107
370.803	1	96
370.973	1	101
371.144	1	88
371.315	1	104
371.486	1	87
371.657	1	84
371.828	1	87
371.999	1	87
372.170	1	82
372.341	1	85
372.512	1	80
372.682	1	76
372.853	1	70
373.024	1	75
373.195	1	80
373.366	1	69
373.537	1	72
373.708	1	65
373.879	1	84
374.050	1	66
374.220	1	60
374.391	1	62
374.562	1	63
374.733	1	56
374.904	1	64
375.075	1	72
375.246	1	70
375.417	1	56
375.588	1	53
375.758	1	45
375.929	1	54
376.100	1	50
376.271	1	61
376.442	1	50
376.613	1	35
376.784	1	36
376.955	1	51
377.125	1	55
377.296	1	46
377.467	1	61
377.638	1	36
377.809	1	39
377.980	1	31
378.151	1	50
378.321	1	51
378.492	1	46
378.663	1	46
378.834	1	44
379.005	1	53
379.176	1	29
379.347	1	36
379.518	1	37
379.688	1	34
379.859	1	44
380.030	1	38
380.201	1	40
380.372	1	47
380.543	1	34
380.714	1	44
380.884	1	30
381.055	1	36
381.226	1	36
381.397	1	32
381.568	1	29
381.739	1	34
381.910	1	34
382.080	1	32
382.251	1	37
382.422	1	42
382.593	1	31
382.764	1	37
382.935	1	30
383.105	1	32
383.276	1	24
383.447	1	43
383.618	1	31
383.789	1	30
383.960	1	29
384.130	1	42
384.301	1	22
384.472	1	48
384.643	1	31
384.814	1	34
384.985	1	35
385.156	1	29
385.326	1	28
385.497	1	24
385.668	1	31
385.839	1	31
386.010	1	36
386.180	1	42
386.351	1	26
386.522	1	29
386.693	1	25
386.864	1	35
387.035	1	42
387.205	1	33
387.376	1	28
387.547	1	40
387.718	1	32
387.889	1	19
388.060	1	26
388.230	1	36
388.401	1	22
388.572	1	35
388.743	1	40
388.914	1	22
389.084	1	30
389.255	1	26
389.426	1	33
389.597	1	19
389.768	1	21
389.939	1	24
390.109	1	33
390.280	1	37
390.451	1	23
390.622	1	29
390.793	1	21
390.963	1	26
391.134	1	30
391.305	1	17
391.476	1	15
391.647	1	24
391.817	1	33
391.988	1	26
392.159	1	28
392.330	1	25
392.501	1	19
392.671	1	11
392.842	1	28
393.013	1	22
393.184	1	16
393.355	1	12
393.525	1	12
393.696	1	17
393.867	1	18
394.038	1	20
394.208	1	13
394.379	1	28
394.550	1	29
394.721	1	20
394.892	1	15
395.062	1	8
395.233	1	13
395.404	1	5
395.575	1	21
395.746	1	27
395.916	1	36
396.087	1	21
396.258	1	13
396.429	1	33
396.599	1	18
396.770	1	22
396.941	1	23
397.112	1	16
397.283	1	17
397.453	1	26
397.624	1	18
397.795	1	18
397.966	1	28
398.136	1	19
398.307	1	22
398.478	1	13
398.649	1	16
398.819	1	10
398.990	1	25
399.161	1	21
399.332	1	20
399.503	1	37
399.673	1	17
399.844	1	18
400.015	1	27
400.186	1	9
400.356	1	16
400.527	1	23
400.698	1	25
400.869	1	20
401.039	1	26
401.210	1	19
401.381	1	19
401.552	1	20
401.722	1	7
401.893	1	1
402.064	1	13
402.235	1	12
402.405	1	24
402.576	1	16
402.747	1	17
402.918	1	19
403.088	1	9
403.259	1	11
403.430	1	15
403.601	1	14
403.771	1	12
403.942	1	15
404.113	1	18
404.284	1	17
404.454	1	20
404.625	1	26
404.796	1	19
404.967	1	10
405.137	1	31
405.308	1	15
405.479	1	15
405.649	1	12
405.820	1	20
405.991	1	10
406.162	1	7
406.332	1	15
406.503	1	6
406.674	1	21
406.845	1	10
407.015	1	20
407.186	1	7
407.357	1	13
407.527	1	4
407.698	1	12
407.869	1	17
408.040	1	18
408.210	1	20
408.381	1	13
408.552	1	-1
408.722	1	17
408.893	1	16
409.064	1	14
409.235	1	7
409.405	1	21
409.576	1	7
409.747	1	12
409.917	1	12
410.088	1	23
410.259	1	16
410.430	1	30
410.600	1	6
410.771	1	10
410.942	1	7
411.112	1	13
411.283	1	4
411.454	1	15
411.625	1	14
411.795	1	12
411.966	1	15
412.137	1	7
412.307	1	3
412.478	1	10
412.649	1	28
412.819	1	10
412.990	1	11
413.161	1	14
413.332	1	10
413.502	1	25
413.673	1	3
413.844	1	17
414.014	1	14
414.185	1	15
414.356	1	13
414.526	1	4
414.697	1	9
414.868	1	10
415.038	1	18
415.209	1	8
415.380	1	14
415.550	1	17
415.721	1	21
415.892	1	13
416.063	1	9
416.233	1	14
416.404	1	10
416.575	1	19
416.745	1	10
416.916	1	14
417.087	1	12
417.257	1	19
417.428	1	13
417.599	1	14
417.769	1	17
417.940	1	19
418.111	1	12
418.281	1	7
418.452	1	18
418.623	1	8
418.793	1	-1
418.964	1	15
419.135	1	9
419.305	1	9
419.476	1	9
419.647	1	17
419.817	1	9
419.988	1	24
420.159	1	15
420.329	1	13
420.500	1	14
420.671	1	10
420.841	1	18
421.012	1	10
421.183	1	18
421.353	1	4
421.524	1	7
421.695	1	6
421.865	1	9
422.036	1	10
422.206	1	6
422.377	1	10
422.548	1	17
422.718	1	15
422.889	1	1
423.060	1	15
423.230	1	11
423.401	1	16
423.572	1	2
423.742	1	7
423.913	1	13
424.084	1	11
424.254	1	16
424.425	1	12
424.595	1	7
424.766	1	11
424.937	1	7
425.107	1	17
425.278	1	10
425.449	1	13
425.619	1	20
425.790	1	22
425.961	1	9
426.131	1	13
426.302	1	10
426.472	1	8
426.643	1	2
426.814	1	7
426.984	1	5
427.155	1	8
427.326	1	7
427.496	1	14
427.667	1	8
427.837	1	6
428.008	1	9
428.179	1	14
428.349	1	8
428.520	1	18
428.691	1	8
428.861	1	7
429.032	1	11
429.202	1	6
429.373	1	22
429.544	1	14
429.714	1	6
429.885	1	4
430.055	1	6
430.226	1	3
430.397	1	3
430.567	1	-1
430.738	1	6
430.909	1	10
431.079	1	26
431.250	1	20
431.420	1	8
431.591	1	8
431.762	1	1
431.932	1	16
432.103	1	1
432.273	1	8
432.444	1	6
432.615	1	18
432.785	1	11
432.956	1	-2
433.126	1	20
433.297	1	24
433.468	1	2
433.638	1	14
433.809	1	7
433.979	1	9
434.150	1	14
434.320	1	17
434.491	1	4
434.662	1	6
434.832	1	2
435.003	1	13
435.173	1	13
435.344	1	9
435.515	1	-3
435.685	1	-6
435.856	1	-2
436.026	1	2
436.197	1	12
436.368	1	9
436.538	1	12
436.709	1	2
436.879	1	11
437.050	1	9
437.220	1	2
437.391	1	20
437.562	1	0
437.732	1	10
437.903	1	21
438.073	1	16
438.244	1	7
438.414	1	5
438.585	1	11
438.756	1	-2
438.926	1	12
439.097	1	8
439.267	1	13
439.438	1	10
439.608	1	14
439.779	1	19
439.949	1	12
440.120	1	11
440.291	1	17
440.461	1	22
440.632	1	2
440.802	1	-6
440.973	1	12
441.143	1	-1
441.314	1	8
441.485	1	10
441.655	1	17
441.826	1	4
441.996	1	16
442.167	1	5
442.337	1	13
442.508	1	5
442.678	1	-4
442.849	1	20
443.019	1	14
443.190	1	9
443.361	1	2
443.531	1	7
443.702	1	9
443.872	1	7
444.043	1	3
444.213	1	5
444.384	1	2
444.554	1	11
444.725	1	11
444.895	1	9
445.066	1	0
445.237	1	3
445.407	1	4
445.578	1	3
445.748	1	21
445.919	1	0
446.089	1	0
446.260	1	14
446.430	1	7
446.601	1	16
446.771	1	11
446.942	1	2
447.112	1	6
447.283	1	4
447.453	1	5
447.624	1	2
447.794	1	21
447.965	1	14
448.135	1	11
448.306	1	15
448.477	1	7
448.647	1	7
448.818	1	-6
448.988	1	10
449.159	1	6
449.329	1	3
449.500	1	-1
449.670	1	12
449.841	1	-1
450.011	1	3
450.182	1	15
450.352	1	11
450.523	1	7
450.693	1	1
450.864	1	8
451.034	1	8
451.205	1	3
451.375	1	5
451.546	1	14
451.716	1	3
451.887	1	6
452.057	1	18
452.228	1	5
452.398	1	1
452.569	1	8
452.739	1	6
452.910	1	7
453.080	1	9
453.251	1	20
453.421	1	8
453.592	1	16
453.762	1	2
453.933	1	7
454.103	1	-2
454.274	1	-6
454.444	1	9
454.615	1	0
454.785	1	9
454.956	1	-4
455.126	1	0
455.297	1	12
455.467	1	3
455.638	1	5
455.808	1	11
455.979	1	18
456.149	1	-1
456.320	1	2
456.490	1	10
456.661	1	0
456.831	1	4
457.001	1	9
457.172	1	2
457.342	1	13
457.513	1	3
457.683	1	14
457.854	1	5
458.024	1	22
458.195	1	8
458.365	1	16
458.536	1	12
458.706	1	14
458.877	1	21
459.047	1	-1
459.218	1	7
459.388	1	6
459.559	1	4
459.729	1	2
459.899	1	2
460.070	1	11
460.240	1	12
460.411	1	12
460.581	1	2
460.752	1	5
460.922	1	8
461.093	1	14
461.263	1	15
461.434	1	11
461.604	1	-8
461.775	1	10
461.945	1	15
462.115	1	10
462.286	1	8
462.456	1	6
462.627	1	-3
462.797	1	14
462.968	1	8
463.138	1	9
463.309	1	20
463.479	1	14
463.649	1	4
463.820	1	0
463.990	1	11
464.161	1	-8
464.331	1	5
464.502	1	5
464.672	1	2
464.843	1	9
465.013	1	7
465.183	1	15
465.354	1	11
465.524	1	7
465.695	1	14
465.865	1	-6
466.036	1	5
466.206	1	4
466.376	1	13
466.547	1	-9
466.717	1	3
466.888	1	18
467.058	1	12
467.229	1	14
467.399	1	-8
467.569	1	-2
467.740	1	16
467.910	1	4
468.081	1	12
468.251	1	8
468.422	1	10
468.592	1	1
468.762	1	7
468.933	1	8
469.103	1	2
469.274	1	8
469.444	1	5
469.614	1	13
469.785	1	11
469.955	1	-1
470.126	1	-3
470.296	1	3
470.467	1	12
470.637	1	10
470.807	1	3
470.978	1	-7
471.148	1	13
471.319	1	7
471.489	1	5
471.659	1	3
471.830	1	12
472.000	1	10
472.171	1	12
472.341	1	-5
472.511	1	13
472.682	1	9
472.852	1	18
473.023	1	9
473.193	1	1
473.363	1	14
473.534	1	1
473.704	1	7
473.875	1	13
474.045	1	5
474.215	1	12
474.386	1	5
474.556	1	9
474.727	1	13
474.897	1	-4
475.067	1	5
475.238	1	21
475.408	1	6
475.578	1	16
475.749	1	14
475.919	1	0
476.090	1	2
476.260	1	2
476.430	1	7
476.601	1	5
476.771	1	-5
476.942	1	6
477.112	1	1
477.282	1	15
477.453	1	5
477.623	1	-4
477.793	1	2
477.964	1	8
478.134	1	14
478.305	1	18
478.475	1	8
478.645	1	11
478.816	1	8
478.986	1	2
479.156	1	6
479.327	1	0
479.497	1	2
479.667	1	9
479.838	1	8
480.008	1	0
480.179	1	-1
480.349	1	14
480.519	1	-5
480.690	1	4
480.860	1	16
481.030	1	9
481.201	1	13
481.371	1	17
481.541	1	11
481.712	1	16
481.882	1	5
482.053	1	0
482.223	1	9
482.393	1	7
482.564	1	5
482.734	1	4
482.904	1	15
483.075	1	20
483.245	1	12
483.415	1	14
483.586	1	9
483.756	1	8
483.926	1	4
484.097	1	7
484.267	1	13
484.437	1	3
484.608	1	20
484.778	1	16
484.948	1	5
485.119	1	27
485.289	1	8
485.459	1	-4
485.630	1	3
485.800	1	15
485.970	1	12
486.141	1	12
486.311	1	15
486.481	1	9
486.652	1	10
486.822	1	17
486.992	1	18
487.163	1	11
487.333	1	3
487.503	1	1
487.674	1	13
487.844	1	5
488.014	1	22
488.185	1	16
488.355	1	26
488.525	1	19
488.696	1	6
488.866	1	12
489.036	1	24
489.207	1	1
489.377	1	12
489.547	1	12
489.718	1	19
489.888	1	24
490.058	1	11
490.228	1	23
490.399	1	13
490.569	1	10
490.739	1	10
490.910	1	8
491.080	1	16
491.250	1	21
491.421	1	24
491.591	1	9
491.761	1	5
491.932	1	12
492.102	1	23
492.272	1	14
492.442	1	14
492.613	1	10
492.783	1	8
492.953	1	19
493.124	1	17
493.294	1	22
493.464	1	19
493.635	1	18
493.805	1	13
493.975	1	26
494.145	1	19
494.316	1	21
494.486	1	28
494.656	1	14
494.827	1	15
494.997	1	12
495.167	1	31
495.337	1	22
495.508	1	15
495.678	1	22
495.848	1	31
496.019	1	13
496.189	1	27
496.359	1	31
496.529	1	18
496.700	1	25
496.870	1	12
497.040	1	33
497.211	1	17
497.381	1	17
497.551	1	38
497.721	1	17
497.892	1	19
498.062	1	19
498.232	1	29
498.403	1	17
498.573	1	29
498.743	1	22
498.913	1	22
499.084	1	25
499.254	1	26
499.424	1	12
499.594	1	20
499.765	1	17
499.935	1	18
500.105	1	26
500.275	1	22
500.446	1	24
500.616	1	20
500.786	1	25
500.956	1	17
501.127	1	26
501.297	1	22
501.467	1	26
501.638	1	22
501.808	1	20
501.978	1	35
502.148	1	22
502.319	1	28
502.489	1	34
502.659	1	22
502.829	1	32
503.000	1	30
503.170	1	16
503.340	1	26
503.510	1	29
503.681	1	17
503.851	1	26
504.021	1	20
504.191	1	31
504.362	1	32
504.532	1	25
504.702	1	30
504.872	1	41
505.042	1	39
505.213	1	32
505.383	1	35
505.553	1	39
505.723	1	46
505.894	1	28
506.064	1	33
506.234	1	32
506.404	1	20
506.575	1	28
506.745	1	36
506.915	1	31
507.085	1	41
507.256	1	34
507.426	1	40
507.596	1	39
507.766	1	48
507.936	1	20
508.107	1	45
508.277	1	31
508.447	1	38
508.617	1	35
508.788	1	32
508.958	1	51
509.128	1	37
509.298	1	35
509.468	1	34
509.639	1	39
509.809	1	31
509.979	1	37
510.149	1	52
510.319	1	51
510.490	1	40
510.660	1	23
510.830	1	40
511.000	1	38
511.171	1	50
511.341	1	31
511.511	1	32
511.681	1	51
511.851	1	50
512.022	1	39
512.192	1	37
512.362	1	35
512.532	1	41
512.702	1	46
512.873	1	37
513.043	1	32
513.213	1	47
513.383	1	44
513.553	1	51
513.724	1	39
513.894	1	36
514.064	1	34
514.234	1	50
514.404	1	44
514.575	1	35
514.745	1	41
514.915	1	30
515.085	1	55
515.255	1	49
515.425	1	46
515.596	1	39
515.766	1	39
515.936	1	53
516.106	1	29
516.276	1	46
516.447	1	44
516.617	1	44
516.787	1	44
516.957	1	47
517.127	1	43
517.297	1	51
517.468	1	45
517.638	1	50
517.808	1	38
517.978	1	42
518.148	1	48
518.319	1	39
518.489	1	45
518.659	1	41
518.829	1	51
518.999	1	52
519.169	1	49
519.340	1	45
519.510	1	52
519.680	1	42
519.850	1	50
520.020	1	46
520.190	1	46
520.361	1	42
520.531	1	61
520.701	1	40
520.871	1	47
521.041	1	51
521.211	1	52
521.382	1	51
521.552	1	60
521.722	1	51
521.892	1	58
522.062	1	50
522.232	1	40
522.402	1	42
522.573	1	42
522.743	1	56
522.913	1	50
523.083	1	47
523.253	1	52
523.423	1	53
523.593	1	62
523.764	1	45
523.934	1	50
524.104	1	44
524.274	1	42
524.444	1	53
524.614	1	49
524.784	1	51
524.955	1	49
525.125	1	53
525.295	1	42
525.465	1	57
525.635	1	41
525.805	1	54
525.975	1	58
526.146	1	42
526.316	1	36
526.486	1	50
526.656	1	56
526.826	1	47
526.996	1	46
527.166	1	60
527.337	1	57
527.507	1	48
527.677	1	56
527.847	1	44
528.017	1	49
528.187	1	58
528.357	1	62
528.527	1	54
528.698	1	42
528.868	1	50
529.038	1	45
529.208	1	39
529.378	1	46
529.548	1	40
529.718	1	58
529.888	1	51
530.058	1	53
530.229	1	55
530.399	1	55
530.569	1	48
530.739	1	54
530.909	1	63
531.079	1	55
531.249	1	45
531.419	1	55
531.589	1	58
531.760	1	56
531.930	1	56
532.100	1	53
532.270	1	57
532.440	1	50
532.610	1	39
532.780	1	53
532.950	1	57
533.120	1	50
533.290	1	53
533.461	1	54
533.631	1	44
533.801	1	54
533.971	1	45
534.141	1	54
534.311	1	50
534.481	1	55
534.651	1	52
534.821	1	54
534.991	1	56
535.162	1	51
535.332	1	54
535.502	1	53
535.672	1	53
535.842	1	49
536.012	1	52
536.182	1	54
536.352	1	42
536.522	1	46
536.692	1	44
536.862	1	54
537.032	1	51
537.203	1	41
537.373	1	50
537.543	1	54
537.713	1	58
537.883	1	38
538.053	1	41
538.223	1	50
538.393	1	56
538.563	1	55
538.733	1	56
538.903	1	59
539.073	1	44
539.243	1	44
539.413	1	56
539.584	1	50
539.754	1	43
539.924	1	51
540.094	1	51
540.264	1	41
540.434	1	48
540.604	1	42
540.774	1	48
540.944	1	57
541.114	1	30
541.284	1	41
541.454	1	47
541.624	1	46
541.794	1	49
541.964	1	45
542.134	1	49
542.305	1	46
542.475	1	41
542.645	1	40
542.815	1	42
542.985	1	49
543.155	1	55
543.325	1	36
543.495	1	38
543.665	1	57
543.835	1	53
544.005	1	47
544.175	1	37
544.345	1	45
544.515	1	42
544.685	1	51
544.855	1	45
545.025	1	42
545.195	1	36
545.365	1	47
545.535	1	52
545.705	1	48
545.875	1	56
546.045	1	46
546.216	1	47
546.386	1	44
546.556	1	31
546.726	1	41
546.896	1	48
547.066	1	49
547.236	1	30
547.406	1	30
547.576	1	47
547.746	1	44
547.916	1	45
548.086	1	40
548.256	1	31
548.426	1	40
548.596	1	50
548.766	1	44
548.936	1	47
549.106	1	43
549.276	1	41
549.446	1	40
549.616	1	35
549.786	1	49
549.956	1	27
550.126	1	50
550.296	1	31
550.466	1	55
550.636	1	37
550.806	1	49
550.976	1	32
551.146	1	45
551.316	1	41
551.486	1	42
551.656	1	41
551.826	1	43
551.996	1	48
552.166	1	44
552.336	1	48
552.506	1	45
552.676	1	52
552.846	1	35
553.016	1	38
553.186	1	39
553.356	1	41
553.526	1	37
553.696	1	32
553.866	1	28
554.036	1	45
554.206	1	34
554.376	1	55
554.546	1	47
554.716	1	31
554.886	1	35
555.056	1	42
555.226	1	45
555.396	1	24
555.566	1	34
555.736	1	47
555.906	1	29
556.076	1	31
556.246	1	40
556.416	1	50
556.586	1	47
556.756	1	30
556.926	1	45
557.096	1	34
557.266	1	36
557.436	1	37
557.606	1	37
557.776	1	38
557.946	1	36
558.116	1	27
558.286	1	35
558.456	1	32
558.626	1	30
558.796	1	35
558.966	1	37
559.136	1	42
559.306	1	37
559.476	1	28
559.646	1	41
559.816	1	34
559.986	1	32
560.155	1	28
560.325	1	28
560.495	1	30
560.665	1	39
560.835	1	38
561.005	1	30
561.175	1	26
561.345	1	34
561.515	1	20
561.685	1	21
561.855	1	25
562.025	1	28
562.195	1	18
562.365	1	41
562.535	1	30
562.705	1	24
562.875	1	25
563.045	1	24
563.215	1	35
563.385	1	37
563.555	1	31
563.725	1	23
563.895	1	37
564.064	1	28
564.234	1	29
564.404	1	28
564.574	1	24
564.744	1	23
564.914	1	33
565.084	1	27
565.254	1	13
565.424	1	21
565.594	1	29
565.764	1	29
565.934	1	36
566.104	1	16
566.274	1	30
566.444	1	26
566.614	1	18
566.783	1	33
566.953	1	14
567.123	1	15
567.293	1	41
567.463	1	29
567.633	1	22
567.803	1	30
567.973	1	26
568.143	1	32
568.313	1	15
568.483	1	17
568.653	1	22
568.823	1	18
568.993	1	17
569.162	1	19
569.332	1	24
569.502	1	25
569.672	1	16
569.842	1	18
570.012	1	27
570.182	1	13
570.352	1	10
570.522	1	16
570.692	1	27
570.862	1	29
571.031	1	36
571.201	1	28
571.371	1	21
571.541	1	16
571.711	1	19
571.881	1	27
572.051	1	19
572.221	1	22
572.391	1	35
572.561	1	18
572.731	1	25
572.900	1	33
573.070	1	22
573.240	1	21
573.410	1	27
573.580	1	18
573.750	1	18
573.920	1	26
574.090	1	13
574.260	1	16
574.430	1	28
574.599	1	22
574.769	1	25
574.939	1	35
575.109	1	31
575.279	1	24
575.449	1	25
575.619	1	15
575.789	1	31
575.959	1	20
576.128	1	22
576.298	1	23
576.468	1	23
576.638	1	24
576.808	1	17
576.978	1	18
577.148	1	22
577.318	1	14
577.487	1	15
577.657	1	30
577.827	1	23
577.997	1	22
578.167	1	22
578.337	1	18
578.507	1	12
578.677	1	22
578.846	1	16
579.016	1	9
579.186	1	6
579.356	1	21
579.526	1	22
579.696	1	12
579.866	1	25
580.036	1	15
580.205	1	12
580.375	1	14
580.545	1	10
580.715	1	17
580.885	1	17
581.055	1	22
581.225	1	19
581.394	1	6
581.564	1	15
581.734	1	19
581.904	1	20
582.074	1	9
582.244	1	14
582.414	1	6
582.583	1	32
582.753	1	18
582.923	1	15
583.093	1	18
583.263	1	9
583.433	1	16
583.603	1	11
583.772	1	24
583.942	1	7
584.112	1	15
584.282	1	6
584.452	1	30
584.622	1	7
584.791	1	16
584.961	1	14
585.131	1	22
585.301	1	20
585.471	1	12
585.641	1	21
585.811	1	18
585.980	1	5
586.150	1	23
586.320	1	12
586.490	1	20
586.660	1	3
586.830	1	10
586.999	1	8
587.169	1	18
587.339	1	15
587.509	1	10
587.679	1	11
587.849	1	23
588.018	1	28
588.188	1	19
588.358	1	6
588.528	1	22
588.698	1	9
588.867	1	19
589.037	1	8
589.207	1	9
589.377	1	10
589.547	1	5
589.717	1	18
589.886	1	13
590.056	1	5
590.226	1	20
590.396	1	21
590.566	1	12
590.735	1	8
590.905	1	11
591.075	1	12
591.245	1	-1
591.415	1	28
591.585	1	11
591.754	1	7
591.924	1	5
592.094	1	13
592.264	1	12
592.434	1	14
592.603	1	14
592.773	1	20
592.943	1	5
593.113	1	8
593.283	1	2
593.452	1	19
593.622	1	11
593.792	1	-1
593.962	1	14
594.132	1	6
594.301	1	-3
594.471	1	16
594.641	1	17
594.811	1	15
594.981	1	3
595.150	1	6
595.320	1	12
595.490	1	13
595.660	1	12
595.829	1	9
595.999	1	15
596.169	1	10
596.339	1	23
596.509	1	11
596.678	1	13
596.848	1	10
597.018	1	15
597.188	1	15
597.358	1	1
597.527	1	7
597.697	1	7
597.867	1	9
598.037	1	7
598.206	1	17
598.376	1	12
598.546	1	4
598.716	1	20
598.885	1	15
599.055	1	12
599.225	1	3
599.395	1	4
599.565	1	10
599.734	1	2
599.904	1	2
600.074	1	14
600.244	1	9
600.413	1	7
600.583	1	9
600.753	1	4
600.923	1	18
601.092	1	6
601.262	1	4
601.432	1	0
601.602	1	7
601.771	1	9
601.941	1	4
602.111	1	3
602.281	1	24
602.451	1	11
602.620	1	18
602.790	1	6
602.960	1	6
603.130	1	18
603.299	1	15
603.469	1	6
603.639	1	-1
603.809	1	24
603.978	1	10
604.148	1	18
604.318	1	6
604.487	1	22
604.657	1	1
604.827	1	8
604.997	1	19
605.166	1	10
605.336	1	8
605.506	1	7
605.676	1	3
605.845	1	4
606.015	1	4
606.185	1	9
606.355	1	13
606.524	1	9
606.694	1	3
606.864	1	10
607.034	1	12
607.203	1	10
607.373	1	8
607.543	1	5
607.712	1	9
607.882	1	14
608.052	1	8
608.222	1	-7
608.391	1	18
608.561	1	6
608.731	1	17
608.901	1	11
609.070	1	12
609.240	1	5
609.410	1	15
609.579	1	14
609.749	1	10
609.919	1	5
610.089	1	16
610.258	1	9
610.428	1	4
610.598	1	5
610.767	1	13
610.937	1	14
611.107	1	10
611.277	1	15
611.446	1	10
611.616	1	1
611.786	1	16
611.955	1	2
612.125	1	6
612.295	1	17
612.465	1	2
612.634	1	1
612.804	1	20
612.974	1	9
613.143	1	16
613.313	1	4
613.483	1	1
613.652	1	-4
613.822	1	7
613.992	1	6
614.162	1	10
614.331	1	10
614.501	1	18
614.671	1	8
614.840	1	2
615.010	1	6
615.180	1	14
615.349	1	-1
615.519	1	3
615.689	1	8
615.858	1	3
616.028	1	11
616.198	1	5
616.368	1	9
616.537	1	15
616.707	1	11
616.877	1	6
617.046	1	19
617.216	1	13
617.386	1	-2
617.555	1	-2
617.725	1	9
617.895	1	11
618.064	1	7
618.234	1	8
618.404	1	2
618.573	1	12
618.743	1	7
618.913	1	5
619.082	1	17
619.252	1	0
619.422	1	0
619.591	1	0
619.761	1	8
619.931	1	-4
620.100	1	11
620.270	1	8
620.440	1	13
620.609	1	-2
620.779	1	11
620.949	1	4
621.118	1	13
621.288	1	0
621.458	1	10
621.627	1	14
621.797	1	8
621.967	1	4
622.136	1	1
622.306	1	9
622.476	1	7
622.645	1	18
622.815	1	10
622.985	1	16
623.154	1	-1
623.324	1	5
623.494	1	14
623.663	1	15
623.833	1	16
624.002	1	6
624.172	1	11
624.342	1	7
624.511	1	4
624.681	1	12
624.851	1	2
625.020	1	8
625.190	1	1
625.360	1	20
625.529	1	3
625.699	1	0
625.869	1	9
626.038	1	6
626.208	1	1
626.377	1	9
626.547	1	7
626.717	1	7
626.886	1	0
627.056	1	17
627.226	1	5
627.395	1	1
627.565	1	3
627.735	1	13
627.904	1	6
628.074	1	8
628.243	1	8
628.413	1	-4
628.583	1	-4
628.752	1	14
628.922	1	-5
629.091	1	3
629.261	1	3
629.431	1	7
629.600	1	10
629.770	1	4
629.940	1	5
630.109	1	5
630.279	1	6
630.448	1	8
630.618	1	1
630.788	1	-2
630.957	1	3
631.127	1	1
631.297	1	5
631.466	1	6
631.636	1	16
631.805	1	9
631.975	1	7
632.145	1	4
632.314	1	8
632.484	1	0
632.653	1	11
632.823	1	-1
632.993	1	1
633.162	1	5
633.332	1	4
633.501	1	18
633.671	1	-2
633.841	1	17
634.010	1	4
634.180	1	22
634.349	1	2
634.519	1	6
634.689	1	14
634.858	1	10
635.028	1	15
635.197	1	6
635.367	1	9
635.537	1	-7
635.706	1	7
635.876	1	8
636.045	1	11
636.215	1	6
636.384	1	8
636.554	1	13
636.724	1	16
636.893	1	8
637.063	1	8
637.232	1	1
637.402	1	2
637.572	1	7
637.741	1	12
637.911	1	5
638.080	1	17
638.250	1	12
638.419	1	10
638.589	1	2
638.759	1	12
638.928	1	9
639.098	1	-2
639.267	1	10
639.437	1	12
639.606	1	3
639.776	1	-7
639.946	1	8
640.115	1	10
640.285	1	1
640.454	1	6
640.624	1	-12
640.793	1	-1
640.963	1	7
641.132	1	13
641.302	1	11
641.472	1	6
641.641	1	4
641.811	1	1
641.980	1	2
642.150	1	-2
642.319	1	14
642.489	1	0
642.659	1	4
642.828	1	0
642.998	1	12
643.167	1	7
643.337	1	7
643.506	1	10
643.676	1	16
643.845	1	-4
644.015	1	18
644.184	1	-1
644.354	1	0
644.524	1	6
644.693	1	-1
644.863	1	9
645.032	1	-1
645.202	1	12
645.371	1	14
645.541	1	8
645.710	1	6
645.880	1	6
646.049	1	-11
646.219	1	8
646.388	1	5
646.558	1	8
646.728	1	8
646.897	1	6
647.067	1	6
647.236	1	3
647.406	1	8
647.575	1	5
647.745	1	9
647.914	1	-2
648.084	1	7
648.253	1	0
648.423	1	15
648.592	1	-2
648.762	1	6
648.931	1	3
649.101	1	3
649.270	1	1
649.440	1	4
649.610	1	3
649.779	1	3
649.949	1	9
650.118	1	7
650.288	1	9
650.457	1	8
650.627	1	10
650.796	1	0
650.966	1	-2
651.135	1	7
651.305	1	7
651.474	1	4
651.644	1	6
651.813	1	9
651.983	1	-10
652.152	1	10
652.322	1	7
652.491	1	7
652.661	1	7
652.830	1	3
653.000	1	1
653.169	1	0
653.339	1	10
653.508	1	9
653.678	1	4
653.847	1	-5
654.017	1	4
654.186	1	-2
654.356	1	9
654.525	1	-3
654.695	1	4
654.864	1	11
655.034	1	8
655.203	1	9
655.373	1	6
655.542	1	3
655.712	1	1
655.881	1	5
656.051	1	2
656.220	1	9
656.390	1	6
656.559	1	1
656.729	1	10
656.898	1	-8
657.068	1	-1
657.237	1	1
657.406	1	9
657.576	1	1
657.745	1	3
657.915	1	9
658.084	1	7
658.254	1	2
658.423	1	2
658.593	1	-4
658.762	1	14
658.932	1	14
659.101	1	18
659.271	1	6
659.440	1	-6
659.610	1	12
659.779	1	7
659.949	1	3
660.118	1	4
660.288	1	0
660.457	1	3
660.626	1	3
660.796	1	7
660.965	1	5
661.135	1	9
661.304	1	7
661.474	1	10
661.643	1	10
661.813	1	-3
661.982	1	-4
662.152	1	5
662.321	1	6
662.491	1	11
662.660	1	4
662.829	1	17
662.999	1	0
663.168	1	2
663.338	1	2
663.507	1	1
663.677	1	-1
663.846	1	3
664.016	1	5
664.185	1	-1
664.354	1	8
664.524	1	2
664.693	1	3
664.863	1	10
665.032	1	12
665.202	1	0
665.371	1	-3
665.541	1	3
665.710	1	9
665.879	1	9
666.049	1	6
666.218	1	7
666.388	1	7
666.557	1	3
666.727	1	-3
666.896	1	7
667.065	1	10
667.235	1	15
667.404	1	-4
667.574	1	19
667.743	1	-2
667.913	1	11
668.082	1	7
668.251	1	3
668.421	1	-6
668.590	1	4
668.760	1	4
668.929	1	13
669.099	1	-9
669.268	1	2
669.437	1	-11
669.607	1	12
669.776	1	6
669.946	1	8
670.115	1	17
670.285	1	10
670.454	1	3
670.623	1	19
670.793	1	0
670.962	1	1
671.132	1	9
671.301	1	2
671.470	1	22
671.640	1	-1
671.809	1	-2
671.979	1	6
672.148	1	1
672.317	1	-1
672.487	1	-8
672.656	1	-1
672.826	1	9
672.995	1	4
673.164	1	14
673.334	1	2
673.503	1	6
673.673	1	-1
673.842	1	1
674.011	1	-7
674.181	1	16
674.350	1	-6
674.520	1	3
674.689	1	10
674.858	1	-5
675.028	1	12
675.197	1	-2
675.367	1	-4
675.536	1	6
675.705	1	10
675.875	1	-1
676.044	1	10
676.214	1	15
676.383	1	13
676.552	1	7
676.722	1	-3
676.891	1	-2
677.060	1	6
677.230	1	8
677.399	1	2
677.569	1	1
677.738	1	-1
677.907	1	8
678.077	1	4
678.246	1	19
678.416	1	4
678.585	1	0
678.754	1	8
678.924	1	11
679.093	1	8
679.262	1	10
679.432	1	6
679.601	1	9
679.771	1	5
679.940	1	6
680.109	1	10
680.279	1	3
680.448	1	8
680.617	1	-10
680.787	1	10
680.956	1	-3
681.125	1	14
681.295	1	0
681.464	1	7
681.634	1	4
681.803	1	5
681.972	1	4
682.142	1	-6
682.311	1	-6
682.480	1	13
682.650	1	8
682.819	1	8
682.988	1	5
683.158	1	4
683.327	1	2
683.496	1	9
683.666	1	14
683.835	1	-8
684.004	1	7
684.174	1	9
684.343	1	0
684.512	1	13
684.682	1	5
684.851	1	2
685.021	1	9
685.190	1	7
685.359	1	2
685.529	1	-1
685.698	1	0
685.867	1	-2
686.037	1	11
686.206	1	9
686.375	1	2
686.545	1	5
686.714	1	-2
686.883	1	15
687.053	1	12
687.222	1	4
687.391	1	4
687.561	1	18
687.730	1	5
687.899	1	7
688.069	1	2
688.238	1	10
688.407	1	9
688.577	1	8
688.746	1	10
