340.368	1	5
340.539	1	9
340.710	1	10
340.881	1	4
341.052	1	-1
341.223	1	-5
341.394	1	-5
341.565	1	3
341.737	1	9
341.908	1	6
342.079	1	-2
342.250	1	21
342.421	1	-2
342.592	1	-1
342.763	1	4
342.934	1	8
343.105	1	8
343.276	1	6
343.447	1	16
343.618	1	0
343.789	1	7
343.960	1	-5
344.131	1	16
344.302	1	7
344.473	1	3
344.644	1	8
344.815	1	-4
344.986	1	7
345.157	1	-17
345.328	1	12
345.499	1	2
345.670	1	15
345.841	1	-8
346.012	1	3
346.183	1	6
346.354	1	6
346.526	1	3
346.697	1	7
346.868	1	2
347.039	1	-3
347.210	1	0
347.381	1	13
347.552	1	3
347.723	1	6
347.894	1	7
348.065	1	7
348.236	1	0
348.407	1	9
348.578	1	10
348.749	1	7
348.920	1	10
349.091	1	9
349.262	1	16
349.433	1	7
349.604	1	6
349.775	1	6
349.946	1	17
350.117	1	10
350.288	1	-13
350.459	1	2
350.630	1	10
350.801	1	4
350.972	1	17
351.143	1	1
351.314	1	5
351.485	1	21
351.656	1	13
351.827	1	5
351.998	1	8
352.169	1	3
352.340	1	21
352.511	1	12
352.682	1	8
352.853	1	11
353.024	1	3
353.195	1	4
353.366	1	10
353.537	1	10
353.708	1	1
353.879	1	7
354.050	1	11
354.221	1	18
354.392	1	21
354.563	1	8
354.734	1	9
354.905	1	13
355.076	1	14
355.247	1	19
355.418	1	12
355.589	1	20
355.760	1	12
355.931	1	6
356.102	1	12
356.273	1	22
356.444	1	3
356.615	1	9
356.785	1	27
356.956	1	23
357.127	1	23
357.298	1	15
357.469	1	8
357.640	1	18
357.811	1	30
357.982	1	18
358.153	1	9
358.324	1	29
358.495	1	22
358.666	1	27
358.837	1	33
359.008	1	41
359.179	1	29
359.350	1	30
359.521	1	30
359.692	1	41
359.863	1	47
360.034	1	52
360.205	1	43
360.376	1	45
360.547	1	48
360.718	1	50
360.889	1	47
361.060	1	51
361.231	1	50
361.401	1	52
361.572	1	78
361.743	1	65
361.914	1	69
362.085	1	72
362.256	1	74
362.427	1	81
362.598	1	81
362.769	1	88
362.940	1	80
363.111	1	100
363.282	1	107
363.453	1	98
363.624	1	111
363.795	1	120
363.966	1	131
364.137	1	133
364.308	1	137
364.478	1	145
364.649	1	143
364.820	1	158
364.991	1	160
365.162	1	177
365.333	1	165
365.504	1	200
365.675	1	205
365.846	1	206
366.017	1	200
366.188	1	219
366.359	1	222
366.530	1	214
366.701	1	243
366.871	1	243
367.042	1	236
367.213	1	256
367.384	1	262
367.555	1	266
367.726	1	246
367.897	1	256
368.068	1	260
368.239	1	260
368.410	1	255
368.581	1	253
368.752	1	252
368.923	1	250
369.093	1	234
369.264	1	238
369.435	1	228
369.606	1	227
369.777	1	213
369.948	1	212
370.119	1	226
370.290	1	213
370.461	1	202
370.632	1	186
370.803	1	179
370.973	1	182
371.144	1	183
371.315	1	169
371.486	1	164
371.657	1	138
371.828	1	158
371.999	1	137
372.170	1	152
372.341	1	146
372.512	1	139
372.682	1	130
372.853	1	135
373.024	1	140
373.195	1	129
373.366	1	122
373.537	1	116
373.708	1	118
373.879	1	126
374.050	1	126
374.220	1	118
374.391	1	105
374.562	1	108
374.733	1	101
374.904	1	104
375.075	1	100
375.246	1	98
375.417	1	88
375.588	1	99
375.758	1	79
375.929	1	74
376.100	1	84
376.271	1	101
376.442	1	75
376.613	1	83
376.784	1	84
376.955	1	76
377.125	1	69
377.296	1	71
377.467	1	74
377.638	1	63
377.809	1	55
377.980	1	57
378.151	1	55
378.321	1	72
378.492	1	73
378.663	1	58
378.834	1	66
379.005	1	68
379.176	1	56
379.347	1	54
379.518	1	56
379.688	1	54
379.859	1	58
380.030	1	53
380.201	1	46
380.372	1	54
380.543	1	47
380.714	1	60
380.884	1	43
381.055	1	56
381.226	1	56
381.397	1	59
381.568	1	48
381.739	1	49
381.910	1	57
382.080	1	48
382.251	1	54
382.422	1	56
382.593	1	45
382.764	1	49
382.935	1	59
383.105	1	54
383.276	1	54
383.447	1	61
383.618	1	55
383.789	1	48
383.960	1	56
384.130	1	53
384.301	1	56
384.472	1	52
384.643	1	57
384.814	1	42
384.985	1	67
385.156	1	48
385.326	1	51
385.497	1	52
385.668	1	48
385.839	1	59
386.010	1	52
386.180	1	62
386.351	1	43
386.522	1	51
386.693	1	55
386.864	1	65
387.035	1	67
387.205	1	44
387.376	1	55
387.547	1	56
387.718	1	45
387.889	1	37
388.060	1	49
388.230	1	45
388.401	1	46
388.572	1	45
388.743	1	47
388.914	1	46
389.084	1	36
389.255	1	43
389.426	1	55
389.597	1	36
389.768	1	35
389.939	1	48
390.109	1	43
390.280	1	56
390.451	1	49
390.622	1	37
390.793	1	37
390.963	1	46
391.134	1	37
391.305	1	50
391.476	1	38
391.647	1	39
391.817	1	43
391.988	1	44
392.159	1	39
392.330	1	36
392.501	1	39
392.671	1	28
392.842	1	45
393.013	1	43
393.184	1	36
393.355	1	43
393.525	1	39
393.696	1	34
393.867	1	42
394.038	1	32
394.208	1	34
394.379	1	46
394.550	1	31
394.721	1	39
394.892	1	28
395.062	1	37
395.233	1	31
395.404	1	30
395.575	1	39
395.746	1	37
395.916	1	39
396.087	1	38
396.258	1	33
396.429	1	44
396.599	1	41
396.770	1	44
396.941	1	38
397.112	1	41
397.283	1	35
397.453	1	48
397.624	1	38
397.795	1	23
397.966	1	41
398.136	1	41
398.307	1	38
398.478	1	35
398.649	1	30
398.819	1	28
398.990	1	31
399.161	1	34
399.332	1	35
399.503	1	38
399.673	1	34
399.844	1	36
400.015	1	35
400.186	1	35
400.356	1	35
400.527	1	45
400.698	1	29
400.869	1	27
401.039	1	30
401.210	1	21
401.381	1	22
401.552	1	43
401.722	1	30
401.893	1	15
402.064	1	12
402.235	1	40
402.405	1	25
402.576	1	21
402.747	1	34
402.918	1	27
403.088	1	27
403.259	1	25
403.430	1	26
403.601	1	36
403.771	1	32
403.942	1	28
404.113	1	21
404.284	1	24
404.454	1	27
404.625	1	27
404.796	1	25
404.967	1	23
405.137	1	32
405.308	1	19
405.479	1	22
405.649	1	22
405.820	1	24
405.991	1	20
406.162	1	13
406.332	1	18
406.503	1	30
406.674	1	24
406.845	1	17
407.015	1	16
407.186	1	25
407.357	1	17
407.527	1	13
407.698	1	18
407.869	1	22
408.040	1	25
408.210	1	22
408.381	1	33
408.552	1	17
408.722	1	24
408.893	1	30
409.064	1	22
409.235	1	12
409.405	1	32
409.576	1	18
409.747	1	18
409.917	1	23
410.088	1	24
410.259	1	18
410.430	1	26
410.600	1	24
410.771	1	8
410.942	1	18
411.112	1	14
411.283	1	14
411.454	1	21
411.625	1	21
411.795	1	21
411.966	1	9
412.137	1	6
412.307	1	22
412.478	1	19
412.649	1	26
412.819	1	30
412.990	1	20
413.161	1	22
413.332	1	17
413.502	1	27
413.673	1	17
413.844	1	15
414.014	1	20
414.185	1	24
414.356	1	21
414.526	1	15
414.697	1	14
414.868	1	13
415.038	1	22
415.209	1	11
415.380	1	29
415.550	1	15
415.721	1	15
415.892	1	19
416.063	1	15
416.233	1	10
416.404	1	21
416.575	1	11
416.745	1	9
416.916	1	13
417.087	1	12
417.257	1	21
417.428	1	15
417.599	1	11
417.769	1	16
417.940	1	18
418.111	1	15
418.281	1	17
418.452	1	14
418.623	1	23
418.793	1	7
418.964	1	12
419.135	1	23
419.305	1	11
419.476	1	11
419.647	1	18
419.817	1	12
419.988	1	24
420.159	1	7
420.329	1	19
420.500	1	13
420.671	1	14
420.841	1	20
421.012	1	9
421.183	1	28
421.353	1	18
421.524	1	17
421.695	1	6
421.865	1	16
422.036	1	8
422.206	1	10
422.377	1	18
422.548	1	17
422.718	1	12
422.889	1	13
423.060	1	22
423.230	1	11
423.401	1	18
423.572	1	-1
423.742	1	8
423.913	1	15
424.084	1	16
424.254	1	19
424.425	1	12
424.595	1	14
424.766	1	15
424.937	1	9
425.107	1	14
425.278	1	-3
425.449	1	4
425.619	1	16
425.790	1	23
425.961	1	16
426.131	1	22
426.302	1	17
426.472	1	2
426.643	1	16
426.814	1	17
426.984	1	10
427.155	1	10
427.326	1	9
427.496	1	11
427.667	1	11
427.837	1	18
428.008	1	13
428.179	1	10
428.349	1	12
428.520	1	11
428.691	1	7
428.861	1	17
429.032	1	9
429.202	1	14
429.373	1	13
429.544	1	21
429.714	1	5
429.885	1	6
430.055	1	6
430.226	1	12
430.397	1	5
430.567	1	8
430.738	1	6
430.909	1	17
431.079	1	19
431.250	1	13
431.420	1	5
431.591	1	8
431.762	1	9
431.932	1	5
432.103	1	14
432.273	1	19
432.444	1	15
432.615	1	14
432.785	1	5
432.956	1	10
433.126	1	11
433.297	1	25
433.468	1	10
433.638	1	12
433.809	1	12
433.979	1	17
434.150	1	13
434.320	1	12
434.491	1	12
434.662	1	5
434.832	1	6
435.003	1	17
435.173	1	19
435.344	1	7
435.515	1	12
435.685	1	5
435.856	1	4
436.026	1	17
436.197	1	11
436.368	1	3
436.538	1	14
436.709	1	1
436.879	1	12
437.050	1	19
437.220	1	-1
437.391	1	30
437.562	1	9
437.732	1	15
437.903	1	8
438.073	1	20
438.244	1	13
438.414	1	7
438.585	1	13
438.756	1	7
438.926	1	3
439.097	1	7
439.267	1	8
439.438	1	16
439.608	1	18
439.779	1	7
439.949	1	18
440.120	1	11
440.291	1	14
440.461	1	21
440.632	1	10
440.802	1	-1
440.973	1	13
441.143	1	7
441.314	1	10
441.485	1	15
441.655	1	14
441.826	1	-1
441.996	1	21
442.167	1	13
442.337	1	11
442.508	1	15
442.678	1	2
442.849	1	5
443.019	1	13
443.190	1	10
443.361	1	4
443.531	1	4
443.702	1	1
443.872	1	15
444.043	1	2
444.213	1	10
444.384	1	12
444.554	1	13
444.725	1	17
444.895	1	13
445.066	1	4
445.237	1	5
445.407	1	5
445.578	1	2
445.748	1	18
445.919	1	8
446.089	1	11
446.260	1	13
446.430	1	3
446.601	1	17
446.771	1	20
446.942	1	7
447.112	1	11
447.283	1	3
447.453	1	4
447.624	1	1
447.794	1	17
447.965	1	8
448.135	1	19
448.306	1	9
448.477	1	8
448.647	1	24
448.818	1	6
448.988	1	4
449.159	1	9
449.329	1	1
449.500	1	-9
449.670	1	5
449.841	1	1
450.011	1	4
450.182	1	10
450.352	1	19
450.523	1	18
450.693	1	9
450.864	1	-1
451.034	1	5
451.205	1	12
451.375	1	11
451.546	1	9
451.716	1	0
451.887	1	-1
452.057	1	20
452.228	1	15
452.398	1	-2
452.569	1	10
452.739	1	16
452.910	1	7
453.080	1	6
453.251	1	25
453.421	1	14
453.592	1	10
453.762	1	18
453.933	1	11
454.103	1	3
454.274	1	2
454.444	1	6
454.615	1	12
454.785	1	14
454.956	1	0
455.126	1	1
455.297	1	16
455.467	1	14
455.638	1	13
455.808	1	22
455.979	1	14
456.149	1	2
456.320	1	4
456.490	1	15
456.661	1	4
456.831	1	15
457.001	1	12
457.172	1	1
457.342	1	5
457.513	1	4
457.683	1	5
457.854	1	8
458.024	1	11
458.195	1	8
458.365	1	6
458.536	1	12
458.706	1	10
458.877	1	25
459.047	1	-7
459.218	1	13
459.388	1	0
459.559	1	10
459.729	1	8
459.899	1	9
460.070	1	7
460.240	1	14
460.411	1	18
460.581	1	0
460.752	1	6
460.922	1	12
461.093	1	15
461.263	1	13
461.434	1	13
461.604	1	-2
461.775	1	0
461.945	1	17
462.115	1	2
462.286	1	7
462.456	1	4
462.627	1	6
462.797	1	12
462.968	1	8
463.138	1	7
463.309	1	7
463.479	1	10
463.649	1	2
463.820	1	5
463.990	1	11
464.161	1	4
464.331	1	14
464.502	1	15
464.672	1	9
464.843	1	2
465.013	1	7
465.183	1	6
465.354	1	6
465.524	1	2
465.695	1	20
465.865	1	4
466.036	1	5
466.206	1	6
466.376	1	9
466.547	1	-11
466.717	1	10
466.888	1	7
467.058	1	12
467.229	1	7
467.399	1	2
467.569	1	4
467.740	1	14
467.910	1	4
468.081	1	9
468.251	1	13
468.422	1	11
468.592	1	7
468.762	1	10
468.933	1	14
469.103	1	6
469.274	1	11
469.444	1	7
469.614	1	16
469.785	1	9
469.955	1	3
470.126	1	2
470.296	1	3
470.467	1	11
470.637	1	9
470.807	1	12
470.978	1	-4
471.148	1	7
471.319	1	2
471.489	1	-1
471.659	1	0
471.830	1	14
472.000	1	16
472.171	1	10
472.341	1	3
472.511	1	22
472.682	1	18
472.852	1	15
473.023	1	5
473.193	1	10
473.363	1	19
473.534	1	5
473.704	1	3
473.875	1	20
474.045	1	7
474.215	1	7
474.386	1	10
474.556	1	15
474.727	1	7
474.897	1	9
475.067	1	10
475.238	1	17
475.408	1	7
475.578	1	6
475.749	1	14
475.919	1	5
476.090	1	14
476.260	1	8
476.430	1	11
476.601	1	11
476.771	1	-6
476.942	1	17
477.112	1	15
477.282	1	16
477.453	1	11
477.623	1	8
477.793	1	9
477.964	1	4
478.134	1	27
478.305	1	23
478.475	1	9
478.645	1	0
478.816	1	13
478.986	1	9
479.156	1	4
479.327	1	4
479.497	1	14
479.667	1	15
479.838	1	10
480.008	1	11
480.179	1	7
480.349	1	-2
480.519	1	13
480.690	1	4
480.860	1	20
481.030	1	4
481.201	1	15
481.371	1	11
481.541	1	7
481.712	1	15
481.882	1	16
482.053	1	9
482.223	1	10
482.393	1	21
482.564	1	10
482.734	1	15
482.904	1	13
483.075	1	24
483.245	1	9
483.415	1	15
483.586	1	16
483.756	1	9
483.926	1	18
484.097	1	10
484.267	1	17
484.437	1	12
484.608	1	30
484.778	1	31
484.948	1	10
485.119	1	18
485.289	1	18
485.459	1	2
485.630	1	15
485.800	1	20
485.970	1	22
486.141	1	15
486.311	1	25
486.481	1	11
486.652	1	19
486.822	1	15
486.992	1	18
487.163	1	9
487.333	1	6
487.503	1	15
487.674	1	19
487.844	1	22
488.014	1	22
488.185	1	24
488.355	1	25
488.525	1	29
488.696	1	17
488.866	1	25
489.036	1	26
489.207	1	17
489.377	1	19
489.547	1	21
489.718	1	29
489.888	1	38
490.058	1	21
490.228	1	11
490.399	1	29
490.569	1	15
490.739	1	23
490.910	1	17
491.080	1	25
491.250	1	29
491.421	1	36
491.591	1	26
491.761	1	20
491.932	1	37
492.102	1	31
492.272	1	20
492.442	1	29
492.613	1	19
492.783	1	20
492.953	1	31
493.124	1	25
493.294	1	43
493.464	1	35
493.635	1	26
493.805	1	37
493.975	1	49
494.145	1	19
494.316	1	40
494.486	1	43
494.656	1	30
494.827	1	33
494.997	1	30
495.167	1	39
495.337	1	38
495.508	1	30
495.678	1	26
495.848	1	38
496.019	1	35
496.189	1	37
496.359	1	38
496.529	1	40
496.700	1	35
496.870	1	30
497.040	1	41
497.211	1	35
497.381	1	36
497.551	1	48
497.721	1	30
497.892	1	41
498.062	1	34
498.232	1	43
498.403	1	31
498.573	1	45
498.743	1	43
498.913	1	44
499.084	1	37
499.254	1	42
499.424	1	32
499.594	1	39
499.765	1	39
499.935	1	41
500.105	1	46
500.275	1	54
500.446	1	46
500.616	1	39
500.786	1	54
500.956	1	48
501.127	1	47
501.297	1	44
501.467	1	45
501.638	1	48
501.808	1	40
501.978	1	42
502.148	1	41
502.319	1	41
502.489	1	55
502.659	1	46
502.829	1	40
503.000	1	49
503.170	1	45
503.340	1	39
503.510	1	56
503.681	1	42
503.851	1	51
504.021	1	46
504.191	1	61
504.362	1	38
504.532	1	45
504.702	1	45
504.872	1	52
505.042	1	53
505.213	1	57
505.383	1	55
505.553	1	58
505.723	1	68
505.894	1	59
506.064	1	50
506.234	1	60
506.404	1	58
506.575	1	66
506.745	1	58
506.915	1	65
507.085	1	65
507.256	1	63
507.426	1	75
507.596	1	68
507.766	1	57
507.936	1	57
508.107	1	72
508.277	1	62
508.447	1	75
508.617	1	49
508.788	1	66
508.958	1	66
509.128	1	71
509.298	1	55
509.468	1	55
509.639	1	73
509.809	1	60
509.979	1	63
510.149	1	66
510.319	1	72
510.490	1	73
510.660	1	62
510.830	1	76
511.000	1	66
511.171	1	74
511.341	1	68
511.511	1	65
511.681	1	70
511.851	1	66
512.022	1	71
512.192	1	57
512.362	1	65
512.532	1	61
512.702	1	77
512.873	1	67
513.043	1	75
513.213	1	84
513.383	1	78
513.553	1	72
513.724	1	63
513.894	1	69
514.064	1	69
514.234	1	70
514.404	1	65
514.575	1	66
514.745	1	74
514.915	1	72
515.085	1	80
515.255	1	77
515.425	1	68
515.596	1	77
515.766	1	71
515.936	1	76
516.106	1	68
516.276	1	72
516.447	1	72
516.617	1	73
516.787	1	70
516.957	1	73
517.127	1	76
517.297	1	76
517.468	1	74
517.638	1	79
517.808	1	69
517.978	1	75
518.148	1	80
518.319	1	72
518.489	1	84
518.659	1	78
518.829	1	85
518.999	1	85
519.169	1	77
519.340	1	66
519.510	1	77
519.680	1	84
519.850	1	102
520.020	1	75
520.190	1	83
520.361	1	76
520.531	1	90
520.701	1	83
520.871	1	78
521.041	1	87
521.211	1	97
521.382	1	84
521.552	1	91
521.722	1	88
521.892	1	85
522.062	1	91
522.232	1	78
522.402	1	81
522.573	1	83
522.743	1	90
522.913	1	93
523.083	1	90
523.253	1	86
523.423	1	89
523.593	1	86
523.764	1	93
523.934	1	78
524.104	1	90
524.274	1	74
524.444	1	82
524.614	1	93
524.784	1	88
524.955	1	86
525.125	1	76
525.295	1	86
525.465	1	81
525.635	1	88
525.805	1	81
525.975	1	93
526.146	1	79
526.316	1	76
526.486	1	83
526.656	1	91
526.826	1	84
526.996	1	81
527.166	1	84
527.337	1	95
527.507	1	93
527.677	1	77
527.847	1	92
528.017	1	91
528.187	1	91
528.357	1	95
528.527	1	89
528.698	1	74
528.868	1	85
529.038	1	75
529.208	1	89
529.378	1	96
529.548	1	77
529.718	1	99
529.888	1	87
530.058	1	97
530.229	1	92
530.399	1	90
530.569	1	98
530.739	1	96
530.909	1	92
531.079	1	98
531.249	1	78
531.419	1	93
531.589	1	86
531.760	1	77
531.930	1	83
532.100	1	100
532.270	1	88
532.440	1	87
532.610	1	90
532.780	1	87
532.950	1	90
533.120	1	92
533.290	1	105
533.461	1	81
533.631	1	83
533.801	1	98
533.971	1	98
534.141	1	88
534.311	1	93
534.481	1	90
534.651	1	87
534.821	1	96
534.991	1	88
535.162	1	82
535.332	1	93
535.502	1	84
535.672	1	91
535.842	1	80
536.012	1	85
536.182	1	91
536.352	1	85
536.522	1	81
536.692	1	91
536.862	1	96
537.032	1	86
537.203	1	75
537.373	1	86
537.543	1	88
537.713	1	78
537.883	1	76
538.053	1	75
538.223	1	82
538.393	1	88
538.563	1	77
538.733	1	80
538.903	1	90
539.073	1	74
539.243	1	80
539.413	1	84
539.584	1	91
539.754	1	80
539.924	1	86
540.094	1	78
540.264	1	70
540.434	1	81
540.604	1	84
540.774	1	76
540.944	1	79
541.114	1	71
541.284	1	84
541.454	1	88
541.624	1	86
541.794	1	76
541.964	1	75
542.134	1	78
542.305	1	70
542.475	1	73
542.645	1	73
542.815	1	85
542.985	1	83
543.155	1	86
543.325	1	80
543.495	1	70
543.665	1	83
543.835	1	88
544.005	1	81
544.175	1	67
544.345	1	80
544.515	1	71
544.685	1	84
544.855	1	78
545.025	1	70
545.195	1	76
545.365	1	72
545.535	1	81
545.705	1	80
545.875	1	77
546.045	1	76
546.216	1	77
546.386	1	81
546.556	1	70
546.726	1	71
546.896	1	68
547.066	1	69
547.236	1	72
547.406	1	68
547.576	1	76
547.746	1	69
547.916	1	65
548.086	1	62
548.256	1	60
548.426	1	76
548.596	1	73
548.766	1	72
548.936	1	75
549.106	1	71
549.276	1	69
549.446	1	69
549.616	1	67
549.786	1	76
549.956	1	63
550.126	1	81
550.296	1	71
550.466	1	74
550.636	1	60
550.806	1	76
550.976	1	67
551.146	1	69
551.316	1	72
551.486	1	74
551.656	1	66
551.826	1	70
551.996	1	76
552.166	1	77
552.336	1	62
552.506	1	63
552.676	1	79
552.846	1	63
553.016	1	67
553.186	1	64
553.356	1	78
553.526	1	64
553.696	1	65
553.866	1	47
554.036	1	78
554.206	1	65
554.376	1	74
554.546	1	63
554.716	1	65
554.886	1	60
555.056	1	62
555.226	1	69
555.396	1	53
555.566	1	61
555.736	1	71
555.906	1	60
556.076	1	64
556.246	1	64
556.416	1	70
556.586	1	58
556.756	1	54
556.926	1	63
557.096	1	59
557.266	1	64
557.436	1	60
557.606	1	58
557.776	1	61
557.946	1	65
558.116	1	58
558.286	1	68
558.456	1	58
558.626	1	48
558.796	1	68
558.966	1	58
559.136	1	58
559.306	1	62
559.476	1	53
559.646	1	48
559.816	1	54
559.986	1	55
560.155	1	51
560.325	1	48
560.495	1	43
560.665	1	54
560.835	1	59
561.005	1	53
561.175	1	49
561.345	1	60
561.515	1	40
561.685	1	52
561.855	1	48
562.025	1	52
562.195	1	38
562.365	1	52
562.535	1	46
562.705	1	47
562.875	1	53
563.045	1	51
563.215	1	52
563.385	1	40
563.555	1	58
563.725	1	44
563.895	1	48
564.064	1	54
564.234	1	48
564.404	1	51
564.574	1	46
564.744	1	47
564.914	1	51
565.084	1	42
565.254	1	41
565.424	1	41
565.594	1	47
565.764	1	40
565.934	1	46
566.104	1	48
566.274	1	37
566.444	1	50
566.614	1	45
566.783	1	55
566.953	1	52
567.123	1	44
567.293	1	60
567.463	1	34
567.633	1	35
567.803	1	45
567.973	1	53
568.143	1	53
568.313	1	41
568.483	1	41
568.653	1	38
568.823	1	41
568.993	1	36
569.162	1	52
569.332	1	39
569.502	1	44
569.672	1	38
569.842	1	42
570.012	1	31
570.182	1	47
570.352	1	39
570.522	1	29
570.692	1	45
570.862	1	46
571.031	1	52
571.201	1	36
571.371	1	43
571.541	1	39
571.711	1	43
571.881	1	36
572.051	1	36
572.221	1	45
572.391	1	50
572.561	1	46
572.731	1	44
572.900	1	39
573.070	1	43
573.240	1	38
573.410	1	30
573.580	1	36
573.750	1	36
573.920	1	40
574.090	1	28
574.260	1	33
574.430	1	35
574.599	1	38
574.769	1	32
574.939	1	30
575.109	1	42
575.279	1	32
575.449	1	30
575.619	1	40
575.789	1	32
575.959	1	43
576.128	1	29
576.298	1	44
576.468	1	26
576.638	1	28
576.808	1	31
576.978	1	21
577.148	1	41
577.318	1	34
577.487	1	39
577.657	1	45
577.827	1	26
577.997	1	40
578.167	1	38
578.337	1	26
578.507	1	19
578.677	1	39
578.846	1	23
579.016	1	23
579.186	1	39
579.356	1	32
579.526	1	24
579.696	1	25
579.866	1	34
580.036	1	24
580.205	1	34
580.375	1	32
580.545	1	24
580.715	1	35
580.885	1	33
581.055	1	31
581.225	1	23
581.394	1	33
581.564	1	28
581.734	1	36
581.904	1	35
582.074	1	23
582.244	1	18
582.414	1	26
582.583	1	35
582.753	1	28
582.923	1	37
583.093	1	28
583.263	1	35
583.433	1	34
583.603	1	34
583.772	1	31
583.942	1	25
584.112	1	26
584.282	1	27
584.452	1	28
584.622	1	5
584.791	1	21
584.961	1	26
585.131	1	34
585.301	1	25
585.471	1	32
585.641	1	45
585.811	1	18
585.980	1	30
586.150	1	30
586.320	1	21
586.490	1	27
586.660	1	11
586.830	1	16
586.999	1	13
587.169	1	26
587.339	1	18
587.509	1	24
587.679	1	23
587.849	1	22
588.018	1	23
588.188	1	35
588.358	1	17
588.528	1	28
588.698	1	18
588.867	1	20
589.037	1	16
589.207	1	17
589.377	1	25
589.547	1	12
589.717	1	15
589.886	1	13
590.056	1	21
590.226	1	22
590.396	1	21
590.566	1	10
590.735	1	15
590.905	1	34
591.075	1	24
591.245	1	12
591.415	1	35
591.585	1	23
591.754	1	20
591.924	1	13
592.094	1	16
592.264	1	17
592.434	1	20
592.603	1	17
592.773	1	28
592.943	1	20
593.113	1	13
593.283	1	3
593.452	1	25
593.622	1	26
593.792	1	1
593.962	1	19
594.132	1	20
594.301	1	18
594.471	1	16
594.641	1	14
594.811	1	15
594.981	1	1
595.150	1	11
595.320	1	27
595.490	1	18
595.660	1	14
595.829	1	17
595.999	1	21
596.169	1	12
596.339	1	21
596.509	1	15
596.678	1	13
596.848	1	21
597.018	1	18
597.188	1	13
597.358	1	13
597.527	1	7
597.697	1	14
597.867	1	21
598.037	1	11
598.206	1	12
598.376	1	6
598.546	1	17
598.716	1	24
598.885	1	19
599.055	1	15
599.225	1	21
599.395	1	7
599.565	1	7
599.734	1	17
599.904	1	0
600.074	1	20
600.244	1	21
600.413	1	25
600.583	1	11
600.753	1	21
600.923	1	12
601.092	1	16
601.262	1	16
601.432	1	1
601.602	1	4
601.771	1	23
601.941	1	11
602.111	1	19
602.281	1	8
602.451	1	18
602.620	1	11
602.790	1	18
602.960	1	15
603.130	1	17
603.299	1	17
603.469	1	14
603.639	1	10
603.809	1	15
603.978	1	16
604.148	1	14
604.318	1	9
604.487	1	26
604.657	1	0
604.827	1	15
604.997	1	23
605.166	1	21
605.336	1	23
605.506	1	20
605.676	1	12
605.845	1	11
606.015	1	9
606.185	1	14
606.355	1	22
606.524	1	24
606.694	1	5
606.864	1	26
607.034	1	15
607.203	1	11
607.373	1	18
607.543	1	11
607.712	1	20
607.882	1	16
608.052	1	7
608.222	1	7
608.391	1	20
608.561	1	12
608.731	1	15
608.901	1	21
609.070	1	14
609.240	1	9
609.410	1	22
609.579	1	24
609.749	1	13
609.919	1	20
610.089	1	12
610.258	1	11
610.428	1	10
610.598	1	15
610.767	1	19
610.937	1	11
611.107	1	19
611.277	1	15
611.446	1	17
611.616	1	1
611.786	1	16
611.955	1	7
612.125	1	12
612.295	1	11
612.465	1	9
612.634	1	1
612.804	1	21
612.974	1	9
613.143	1	16
613.313	1	16
613.483	1	2
613.652	1	0
613.822	1	10
613.992	1	13
614.162	1	18
614.331	1	15
614.501	1	27
614.671	1	22
614.840	1	8
615.010	1	11
615.180	1	22
615.349	1	23
615.519	1	7
615.689	1	13
615.858	1	5
616.028	1	16
616.198	1	8
616.368	1	12
616.537	1	12
616.707	1	16
616.877	1	8
617.046	1	17
617.216	1	19
617.386	1	9
617.555	1	-4
617.725	1	6
617.895	1	10
618.064	1	13
618.234	1	8
618.404	1	3
618.573	1	16
618.743	1	16
618.913	1	14
619.082	1	12
619.252	1	8
619.422	1	9
619.591	1	3
619.761	1	7
619.931	1	4
620.100	1	14
620.270	1	14
620.440	1	13
620.609	1	2
620.779	1	10
620.949	1	3
621.118	1	10
621.288	1	10
621.458	1	13
621.627	1	13
621.797	1	14
621.967	1	8
622.136	1	15
622.306	1	11
622.476	1	12
622.645	1	20
622.815	1	-4
622.985	1	9
623.154	1	2
623.324	1	1
623.494	1	18
623.663	1	2
623.833	1	12
624.002	1	20
624.172	1	13
624.342	1	16
624.511	1	7
624.681	1	12
624.851	1	9
625.020	1	10
625.190	1	2
625.360	1	4
625.529	1	13
625.699	1	-2
625.869	1	23
626.038	1	8
626.208	1	11
626.377	1	8
626.547	1	6
626.717	1	12
626.886	1	8
627.056	1	9
627.226	1	8
627.395	1	-2
627.565	1	7
627.735	1	11
627.904	1	15
628.074	1	17
628.243	1	18
628.413	1	9
628.583	1	-5
628.752	1	11
628.922	1	-5
629.091	1	12
629.261	1	-8
629.431	1	4
629.600	1	6
629.770	1	5
629.940	1	16
630.109	1	15
630.279	1	9
630.448	1	5
630.618	1	1
630.788	1	5
630.957	1	10
631.127	1	3
631.297	1	8
631.466	1	16
631.636	1	13
631.805	1	9
631.975	1	9
632.145	1	2
632.314	1	6
632.484	1	-1
632.653	1	12
632.823	1	8
632.993	1	12
633.162	1	9
633.332	1	1
633.501	1	21
633.671	1	2
633.841	1	19
634.010	1	-2
634.180	1	20
634.349	1	10
634.519	1	15
634.689	1	14
634.858	1	15
635.028	1	7
635.197	1	15
635.367	1	2
635.537	1	0
635.706	1	8
635.876	1	10
636.045	1	17
636.215	1	-3
636.384	1	3
636.554	1	19
636.724	1	14
636.893	1	15
637.063	1	7
637.232	1	-2
637.402	1	-7
637.572	1	3
637.741	1	17
637.911	1	3
638.080	1	16
638.250	1	8
638.419	1	14
638.589	1	9
638.759	1	12
638.928	1	-1
639.098	1	4
639.267	1	10
639.437	1	12
639.606	1	11
639.776	1	8
639.946	1	0
640.115	1	8
640.285	1	6
640.454	1	11
640.624	1	-3
640.793	1	-8
640.963	1	8
641.132	1	17
641.302	1	16
641.472	1	7
641.641	1	12
641.811	1	8
641.980	1	0
642.150	1	-1
642.319	1	2
642.489	1	-2
642.659	1	3
642.828	1	8
642.998	1	14
643.167	1	8
643.337	1	6
643.506	1	13
643.676	1	3
643.845	1	4
644.015	1	13
644.184	1	1
644.354	1	1
644.524	1	4
644.693	1	4
644.863	1	5
645.032	1	9
645.202	1	11
645.371	1	14
645.541	1	8
645.710	1	15
645.880	1	13
646.049	1	-3
646.219	1	9
646.388	1	12
646.558	1	8
646.728	1	10
646.897	1	8
647.067	1	5
647.236	1	-1
647.406	1	3
647.575	1	-1
647.745	1	9
647.914	1	-3
648.084	1	9
648.253	1	4
648.423	1	12
648.592	1	8
648.762	1	10
648.931	1	1
649.101	1	7
649.270	1	1
649.440	1	9
649.610	1	8
649.779	1	4
649.949	1	7
650.118	1	5
650.288	1	10
650.457	1	0
650.627	1	6
650.796	1	2
650.966	1	14
651.135	1	13
651.305	1	3
651.474	1	4
651.644	1	1
651.813	1	13
651.983	1	-6
652.152	1	9
652.322	1	-2
652.491	1	9
652.661	1	-3
652.830	1	15
653.000	1	10
653.169	1	3
653.339	1	15
653.508	1	15
653.678	1	5
653.847	1	2
654.017	1	3
654.186	1	13
654.356	1	7
654.525	1	4
654.695	1	8
654.864	1	4
655.034	1	5
655.203	1	4
655.373	1	0
655.542	1	3
655.712	1	12
655.881	1	9
656.051	1	4
656.220	1	4
656.390	1	3
656.559	1	9
656.729	1	4
656.898	1	2
657.068	1	2
657.237	1	10
657.406	1	9
657.576	1	2
657.745	1	4
657.915	1	13
658.084	1	7
658.254	1	6
658.423	1	2
658.593	1	5
658.762	1	19
658.932	1	24
659.101	1	9
659.271	1	1
659.440	1	-7
659.610	1	4
659.779	1	7
659.949	1	7
660.118	1	0
660.288	1	3
660.457	1	3
660.626	1	9
660.796	1	18
660.965	1	2
661.135	1	9
661.304	1	8
661.474	1	-1
661.643	1	7
661.813	1	-4
661.982	1	4
662.152	1	0
662.321	1	3
662.491	1	16
662.660	1	18
662.829	1	13
662.999	1	5
663.168	1	5
663.338	1	11
663.507	1	3
663.677	1	-2
663.846	1	7
664.016	1	8
664.185	1	2
664.354	1	12
664.524	1	0
664.693	1	10
664.863	1	16
665.032	1	11
665.202	1	9
665.371	1	-2
665.541	1	-1
665.710	1	8
665.879	1	9
666.049	1	18
666.218	1	13
666.388	1	9
666.557	1	4
666.727	1	-2
666.896	1	5
667.065	1	16
667.235	1	7
667.404	1	9
667.574	1	16
667.743	1	3
667.913	1	8
668.082	1	7
668.251	1	7
668.421	1	-1
668.590	1	10
668.760	1	4
668.929	1	16
669.099	1	-10
669.268	1	-1
669.437	1	-6
669.607	1	10
669.776	1	5
669.946	1	15
670.115	1	13
670.285	1	12
670.454	1	5
670.623	1	16
670.793	1	6
670.962	1	1
671.132	1	8
671.301	1	14
671.470	1	12
671.640	1	-4
671.809	1	5
671.979	1	7
672.148	1	4
672.317	1	4
672.487	1	-3
672.656	1	-6
672.826	1	4
672.995	1	13
673.164	1	15
673.334	1	-2
673.503	1	7
673.673	1	8
673.842	1	3
674.011	1	15
674.181	1	16
674.350	1	4
674.520	1	6
674.689	1	8
674.858	1	4
675.028	1	8
675.197	1	6
675.367	1	3
675.536	1	16
675.705	1	16
675.875	1	2
676.044	1	10
676.214	1	9
676.383	1	6
676.552	1	5
676.722	1	3
676.891	1	8
677.060	1	3
677.230	1	13
677.399	1	7
677.569	1	11
677.738	1	1
677.907	1	8
678.077	1	15
678.246	1	10
678.416	1	10
678.585	1	6
678.754	1	10
678.924	1	12
679.093	1	5
679.262	1	2
679.432	1	8
679.601	1	4
679.771	1	3
679.940	1	1
680.109	1	4
680.279	1	12
680.448	1	11
680.617	1	-4
680.787	1	11
680.956	1	3
681.125	1	7
681.295	1	6
681.464	1	0
681.634	1	17
681.803	1	0
681.972	1	5
682.142	1	5
682.311	1	0
682.480	1	14
682.650	1	1
682.819	1	11
682.988	1	2
683.158	1	15
683.327	1	5
683.496	1	11
683.666	1	15
683.835	1	7
684.004	1	7
684.174	1	21
684.343	1	11
684.512	1	14
684.682	1	6
684.851	1	3
685.021	1	12
685.190	1	6
685.359	1	-2
685.529	1	4
685.698	1	6
685.867	1	9
686.037	1	12
686.206	1	9
686.375	1	7
686.545	1	8
686.714	1	0
686.883	1	11
687.053	1	2
687.222	1	11
687.391	1	8
687.561	1	17
687.730	1	10
687.899	1	2
688.069	1	0
688.238	1	13
688.407	1	18
688.577	1	8
688.746	1	7
