340.368	1	2
340.539	1	3
340.710	1	14
340.881	1	4
341.052	1	2
341.223	1	-1
341.394	1	1
341.565	1	8
341.737	1	-3
341.908	1	8
342.079	1	6
342.250	1	14
342.421	1	5
342.592	1	2
342.763	1	6
342.934	1	4
343.105	1	3
343.276	1	0
343.447	1	7
343.618	1	1
343.789	1	2
343.960	1	-5
344.131	1	1
344.302	1	12
344.473	1	5
344.644	1	7
344.815	1	0
344.986	1	9
345.157	1	-6
345.328	1	12
345.499	1	6
345.670	1	3
345.841	1	-6
346.012	1	4
346.183	1	7
346.354	1	8
346.526	1	4
346.697	1	6
346.868	1	5
347.039	1	-1
347.210	1	11
347.381	1	5
347.552	1	0
347.723	1	13
347.894	1	-9
348.065	1	9
348.236	1	1
348.407	1	3
348.578	1	3
348.749	1	-3
348.920	1	12
349.091	1	8
349.262	1	8
349.433	1	6
349.604	1	7
349.775	1	-1
349.946	1	2
350.117	1	5
350.288	1	-6
350.459	1	-10
350.630	1	7
350.801	1	7
350.972	1	8
351.143	1	-4
351.314	1	-10
351.485	1	10
351.656	1	11
351.827	1	4
351.998	1	7
352.169	1	3
352.340	1	12
352.511	1	7
352.682	1	7
352.853	1	3
353.024	1	3
353.195	1	7
353.366	1	13
353.537	1	0
353.708	1	-1
353.879	1	-2
354.050	1	4
354.221	1	8
354.392	1	5
354.563	1	3
354.734	1	3
354.905	1	5
355.076	1	10
355.247	1	4
355.418	1	13
355.589	1	7
355.760	1	3
355.931	1	9
356.102	1	3
356.273	1	9
356.444	1	-4
356.615	1	0
356.785	1	4
356.956	1	13
357.127	1	11
357.298	1	0
357.469	1	3
357.640	1	-2
357.811	1	13
357.982	1	12
358.153	1	1
358.324	1	5
358.495	1	5
358.666	1	8
358.837	1	4
359.008	1	9
359.179	1	6
359.350	1	5
359.521	1	4
359.692	1	15
359.863	1	7
360.034	1	9
360.205	1	10
360.376	1	8
360.547	1	3
360.718	1	19
360.889	1	11
361.060	1	19
361.231	1	8
361.401	1	6
361.572	1	19
361.743	1	23
361.914	1	19
362.085	1	22
362.256	1	8
362.427	1	14
362.598	1	15
362.769	1	20
362.940	1	1
363.111	1	25
363.282	1	20
363.453	1	12
363.624	1	19
363.795	1	22
363.966	1	32
364.137	1	16
364.308	1	19
364.478	1	19
364.649	1	20
364.820	1	29
364.991	1	31
365.162	1	27
365.333	1	18
365.504	1	33
365.675	1	29
365.846	1	21
366.017	1	30
366.188	1	31
366.359	1	33
366.530	1	36
366.701	1	39
366.871	1	47
367.042	1	36
367.213	1	33
367.384	1	41
367.555	1	45
367.726	1	39
367.897	1	41
368.068	1	20
368.239	1	37
368.410	1	35
368.581	1	42
368.752	1	37
368.923	1	42
369.093	1	28
369.264	1	44
369.435	1	33
369.606	1	47
369.777	1	28
369.948	1	35
370.119	1	31
370.290	1	40
370.461	1	39
370.632	1	33
370.803	1	29
370.973	1	31
371.144	1	20
371.315	1	40
371.486	1	33
371.657	1	26
371.828	1	30
371.999	1	19
372.170	1	28
372.341	1	24
372.512	1	27
372.682	1	27
372.853	1	15
373.024	1	25
373.195	1	27
373.366	1	22
373.537	1	23
373.708	1	22
373.879	1	22
374.050	1	22
374.220	1	11
374.391	1	25
374.562	1	22
374.733	1	24
374.904	1	15
375.075	1	31
375.246	1	21
375.417	1	5
375.588	1	19
375.758	1	9
375.929	1	11
376.100	1	19
376.271	1	18
376.442	1	21
376.613	1	15
376.784	1	28
376.955	1	19
377.125	1	12
377.296	1	4
377.467	1	21
377.638	1	-4
377.809	1	13
377.980	1	7
378.151	1	11
378.321	1	9
378.492	1	17
378.663	1	15
378.834	1	13
379.005	1	26
379.176	1	4
379.347	1	7
379.518	1	16
379.688	1	4
379.859	1	11
380.030	1	11
380.201	1	25
380.372	1	14
380.543	1	3
380.714	1	18
380.884	1	3
381.055	1	7
381.226	1	15
381.397	1	4
381.568	1	3
381.739	1	19
381.910	1	18
382.080	1	6
382.251	1	4
382.422	1	15
382.593	1	7
382.764	1	7
382.935	1	19
383.105	1	6
383.276	1	-3
383.447	1	26
383.618	1	11
383.789	1	14
383.960	1	7
384.130	1	20
384.301	1	12
384.472	1	14
384.643	1	22
384.814	1	5
384.985	1	16
385.156	1	10
385.326	1	21
385.497	1	5
385.668	1	13
385.839	1	10
386.010	1	7
386.180	1	16
386.351	1	12
386.522	1	13
386.693	1	11
386.864	1	13
387.035	1	17
387.205	1	5
387.376	1	8
387.547	1	12
387.718	1	11
387.889	1	-3
388.060	1	11
388.230	1	7
388.401	1	7
388.572	1	13
388.743	1	4
388.914	1	6
389.084	1	9
389.255	1	5
389.426	1	29
389.597	1	-6
389.768	1	-5
389.939	1	16
390.109	1	11
390.280	1	13
390.451	1	19
390.622	1	7
390.793	1	6
390.963	1	11
391.134	1	8
391.305	1	10
391.476	1	5
391.647	1	12
391.817	1	7
391.988	1	13
392.159	1	8
392.330	1	-2
392.501	1	5
392.671	1	7
392.842	1	13
393.013	1	3
393.184	1	16
393.355	1	9
393.525	1	19
393.696	1	0
393.867	1	10
394.038	1	18
394.208	1	6
394.379	1	13
394.550	1	14
394.721	1	5
394.892	1	10
395.062	1	6
395.233	1	5
395.404	1	-4
395.575	1	3
395.746	1	14
395.916	1	12
396.087	1	16
396.258	1	0
396.429	1	12
396.599	1	11
396.770	1	12
396.941	1	0
397.112	1	6
397.283	1	10
397.453	1	19
397.624	1	2
397.795	1	2
397.966	1	11
398.136	1	9
398.307	1	14
398.478	1	6
398.649	1	8
398.819	1	3
398.990	1	13
399.161	1	9
399.332	1	15
399.503	1	11
399.673	1	7
399.844	1	-1
400.015	1	15
400.186	1	5
400.356	1	9
400.527	1	16
400.698	1	-5
400.869	1	11
401.039	1	16
401.210	1	-3
401.381	1	8
401.552	1	15
401.722	1	12
401.893	1	-7
402.064	1	0
402.235	1	5
402.405	1	10
402.576	1	0
402.747	1	18
402.918	1	17
403.088	1	14
403.259	1	5
403.430	1	16
403.601	1	4
403.771	1	19
403.942	1	10
404.113	1	9
404.284	1	6
404.454	1	15
404.625	1	5
404.796	1	12
404.967	1	2
405.137	1	15
405.308	1	11
405.479	1	10
405.649	1	14
405.820	1	21
405.991	1	11
406.162	1	4
406.332	1	10
406.503	1	7
406.674	1	12
406.845	1	13
407.015	1	12
407.186	1	5
407.357	1	10
407.527	1	7
407.698	1	4
407.869	1	15
408.040	1	7
408.210	1	8
408.381	1	25
408.552	1	-4
408.722	1	15
408.893	1	18
409.064	1	9
409.235	1	7
409.405	1	13
409.576	1	-2
409.747	1	-2
409.917	1	8
410.088	1	12
410.259	1	10
410.430	1	15
410.600	1	4
410.771	1	-3
410.942	1	3
411.112	1	12
411.283	1	-2
411.454	1	10
411.625	1	1
411.795	1	17
411.966	1	8
412.137	1	-2
412.307	1	3
412.478	1	1
412.649	1	15
412.819	1	8
412.990	1	7
413.161	1	10
413.332	1	-8
413.502	1	17
413.673	1	0
413.844	1	13
414.014	1	16
414.185	1	17
414.356	1	5
414.526	1	11
414.697	1	1
414.868	1	6
415.038	1	5
415.209	1	3
415.380	1	3
415.550	1	1
415.721	1	11
415.892	1	12
416.063	1	10
416.233	1	12
416.404	1	12
416.575	1	9
416.745	1	4
416.916	1	-2
417.087	1	7
417.257	1	8
417.428	1	9
417.599	1	12
417.769	1	6
417.940	1	7
418.111	1	13
418.281	1	6
418.452	1	10
418.623	1	10
418.793	1	4
418.964	1	1
419.135	1	6
419.305	1	10
419.476	1	9
419.647	1	7
419.817	1	7
419.988	1	19
420.159	1	9
420.329	1	15
420.500	1	9
420.671	1	0
420.841	1	17
421.012	1	1
421.183	1	18
421.353	1	-2
421.524	1	14
421.695	1	-1
421.865	1	8
422.036	1	7
422.206	1	11
422.377	1	14
422.548	1	13
422.718	1	5
422.889	1	13
423.060	1	10
423.230	1	3
423.401	1	2
423.572	1	-7
423.742	1	15
423.913	1	12
424.084	1	13
424.254	1	11
424.425	1	13
424.595	1	6
424.766	1	6
424.937	1	4
425.107	1	2
425.278	1	-5
425.449	1	-2
425.619	1	14
425.790	1	17
425.961	1	13
426.131	1	10
426.302	1	19
426.472	1	6
426.643	1	8
426.814	1	8
426.984	1	2
427.155	1	4
427.326	1	5
427.496	1	9
427.667	1	9
427.837	1	6
428.008	1	6
428.179	1	8
428.349	1	7
428.520	1	3
428.691	1	2
428.861	1	4
429.032	1	4
429.202	1	10
429.373	1	4
429.544	1	14
429.714	1	-1
429.885	1	0
430.055	1	1
430.226	1	5
430.397	1	-7
430.567	1	2
430.738	1	-2
430.909	1	6
431.079	1	24
431.250	1	13
431.420	1	8
431.591	1	5
431.762	1	5
431.932	1	4
432.103	1	-8
432.273	1	15
432.444	1	2
432.615	1	16
432.785	1	11
432.956	1	-1
433.126	1	14
433.297	1	18
433.468	1	12
433.638	1	4
433.809	1	13
433.979	1	6
434.150	1	-4
434.320	1	12
434.491	1	7
434.662	1	7
434.832	1	-4
435.003	1	15
435.173	1	15
435.344	1	11
435.515	1	-5
435.685	1	-5
435.856	1	1
436.026	1	17
436.197	1	8
436.368	1	0
436.538	1	5
436.709	1	-4
436.879	1	7
437.050	1	14
437.220	1	1
437.391	1	19
437.562	1	4
437.732	1	7
437.903	1	15
438.073	1	11
438.244	1	5
438.414	1	-2
438.585	1	11
438.756	1	2
438.926	1	8
439.097	1	4
439.267	1	8
439.438	1	6
439.608	1	18
439.779	1	7
439.949	1	11
440.120	1	10
440.291	1	7
440.461	1	17
440.632	1	7
440.802	1	-5
440.973	1	12
441.143	1	-4
441.314	1	4
441.485	1	3
441.655	1	15
441.826	1	-4
441.996	1	11
442.167	1	1
442.337	1	8
442.508	1	9
442.678	1	6
442.849	1	15
443.019	1	11
443.190	1	10
443.361	1	8
443.531	1	3
443.702	1	3
443.872	1	16
444.043	1	0
444.213	1	7
444.384	1	1
444.554	1	8
444.725	1	14
444.895	1	3
445.066	1	0
445.237	1	2
445.407	1	-1
445.578	1	-6
445.748	1	15
445.919	1	5
446.089	1	16
446.260	1	6
446.430	1	-2
446.601	1	-1
446.771	1	11
446.942	1	8
447.112	1	5
447.283	1	2
447.453	1	1
447.624	1	6
447.794	1	19
447.965	1	4
448.135	1	8
448.306	1	12
448.477	1	10
448.647	1	13
448.818	1	6
448.988	1	-6
449.159	1	10
449.329	1	1
449.500	1	-3
449.670	1	3
449.841	1	-4
450.011	1	4
450.182	1	17
450.352	1	13
450.523	1	10
450.693	1	5
450.864	1	-1
451.034	1	-1
451.205	1	5
451.375	1	9
451.546	1	14
451.716	1	-6
451.887	1	-6
452.057	1	12
452.228	1	11
452.398	1	-14
452.569	1	6
452.739	1	11
452.910	1	7
453.080	1	2
453.251	1	13
453.421	1	8
453.592	1	13
453.762	1	5
453.933	1	9
454.103	1	3
454.274	1	6
454.444	1	7
454.615	1	7
454.785	1	11
454.956	1	0
455.126	1	-1
455.297	1	15
455.467	1	6
455.638	1	-1
455.808	1	11
455.979	1	13
456.149	1	-4
456.320	1	1
456.490	1	11
456.661	1	14
456.831	1	6
457.001	1	8
457.172	1	3
457.342	1	10
457.513	1	-1
457.683	1	9
457.854	1	4
458.024	1	21
458.195	1	-7
458.365	1	10
458.536	1	3
458.706	1	6
458.877	1	19
459.047	1	-11
459.218	1	10
459.388	1	5
459.559	1	0
459.729	1	-1
459.899	1	5
460.070	1	8
460.240	1	5
460.411	1	12
460.581	1	5
460.752	1	12
460.922	1	0
461.093	1	7
461.263	1	7
461.434	1	9
461.604	1	-3
461.775	1	2
461.945	1	13
462.115	1	0
462.286	1	6
462.456	1	4
462.627	1	7
462.797	1	-1
462.968	1	14
463.138	1	3
463.309	1	3
463.479	1	9
463.649	1	-4
463.820	1	-5
463.990	1	0
464.161	1	-3
464.331	1	16
464.502	1	7
464.672	1	12
464.843	1	9
465.013	1	-4
465.183	1	15
465.354	1	0
465.524	1	10
465.695	1	7
465.865	1	-8
466.036	1	3
466.206	1	6
466.376	1	7
466.547	1	-4
466.717	1	12
466.888	1	9
467.058	1	8
467.229	1	3
467.399	1	4
467.569	1	7
467.740	1	18
467.910	1	1
468.081	1	11
468.251	1	5
468.422	1	0
468.592	1	-3
468.762	1	4
468.933	1	7
469.103	1	6
469.274	1	8
469.444	1	0
469.614	1	8
469.785	1	0
469.955	1	-7
470.126	1	-5
470.296	1	-1
470.467	1	14
470.637	1	10
470.807	1	-5
470.978	1	-5
471.148	1	1
471.319	1	-2
471.489	1	-3
471.659	1	7
471.830	1	6
472.000	1	4
472.171	1	10
472.341	1	4
472.511	1	-2
472.682	1	6
472.852	1	13
473.023	1	5
473.193	1	5
473.363	1	14
473.534	1	5
473.704	1	7
473.875	1	9
474.045	1	-3
474.215	1	5
474.386	1	4
474.556	1	12
474.727	1	-2
474.897	1	-1
475.067	1	1
475.238	1	10
475.408	1	0
475.578	1	9
475.749	1	15
475.919	1	-2
476.090	1	8
476.260	1	4
476.430	1	15
476.601	1	1
476.771	1	-14
476.942	1	14
477.112	1	11
477.282	1	3
477.453	1	8
477.623	1	-4
477.793	1	2
477.964	1	-9
478.134	1	13
478.305	1	11
478.475	1	6
478.645	1	-5
478.816	1	10
478.986	1	-3
479.156	1	-2
479.327	1	6
479.497	1	8
479.667	1	2
479.838	1	11
480.008	1	5
480.179	1	5
480.349	1	-4
480.519	1	-5
480.690	1	4
480.860	1	15
481.030	1	3
481.201	1	18
481.371	1	10
481.541	1	3
481.712	1	8
481.882	1	3
482.053	1	8
482.223	1	5
482.393	1	5
482.564	1	-2
482.734	1	12
482.904	1	11
483.075	1	11
483.245	1	-5
483.415	1	1
483.586	1	-3
483.756	1	1
483.926	1	0
484.097	1	-8
484.267	1	2
484.437	1	11
484.608	1	12
484.778	1	15
484.948	1	-2
485.119	1	8
485.289	1	-2
485.459	1	0
485.630	1	5
485.800	1	3
485.970	1	-1
486.141	1	-2
486.311	1	16
486.481	1	6
486.652	1	8
486.822	1	12
486.992	1	4
487.163	1	1
487.333	1	-1
487.503	1	-14
487.674	1	1
487.844	1	4
488.014	1	7
488.185	1	6
488.355	1	10
488.525	1	7
488.696	1	3
488.866	1	5
489.036	1	16
489.207	1	-2
489.377	1	-3
489.547	1	-1
489.718	1	6
489.888	1	15
490.058	1	5
490.228	1	9
490.399	1	11
490.569	1	5
490.739	1	7
490.910	1	-6
491.080	1	2
491.250	1	13
491.421	1	8
491.591	1	0
491.761	1	7
491.932	1	6
492.102	1	7
492.272	1	4
492.442	1	13
492.613	1	-6
492.783	1	-7
492.953	1	7
493.124	1	-1
493.294	1	9
493.464	1	-4
493.635	1	2
493.805	1	10
493.975	1	12
494.145	1	2
494.316	1	4
494.486	1	24
494.656	1	6
494.827	1	6
494.997	1	-2
495.167	1	4
495.337	1	1
495.508	1	-7
495.678	1	7
495.848	1	7
496.019	1	7
496.189	1	6
496.359	1	22
496.529	1	19
496.700	1	5
496.870	1	0
497.040	1	7
497.211	1	6
497.381	1	7
497.551	1	10
497.721	1	2
497.892	1	11
498.062	1	-1
498.232	1	23
498.403	1	-3
498.573	1	16
498.743	1	13
498.913	1	4
499.084	1	9
499.254	1	6
499.424	1	4
499.594	1	5
499.765	1	5
499.935	1	4
500.105	1	5
500.275	1	17
500.446	1	16
500.616	1	1
500.786	1	10
500.956	1	6
501.127	1	4
501.297	1	4
501.467	1	4
501.638	1	11
501.808	1	2
501.978	1	7
502.148	1	11
502.319	1	9
502.489	1	5
502.659	1	11
502.829	1	3
503.000	1	17
503.170	1	0
503.340	1	7
503.510	1	10
503.681	1	4
503.851	1	6
504.021	1	9
504.191	1	1
504.362	1	0
504.532	1	11
504.702	1	10
504.872	1	17
505.042	1	14
505.213	1	8
505.383	1	13
505.553	1	12
505.723	1	22
505.894	1	8
506.064	1	12
506.234	1	7
506.404	1	3
506.575	1	0
506.745	1	7
506.915	1	15
507.085	1	7
507.256	1	8
507.426	1	7
507.596	1	0
507.766	1	10
507.936	1	-6
508.107	1	9
508.277	1	-1
508.447	1	14
508.617	1	8
508.788	1	13
508.958	1	10
509.128	1	13
509.298	1	8
509.468	1	5
509.639	1	10
509.809	1	9
509.979	1	9
510.149	1	-1
510.319	1	19
510.490	1	20
510.660	1	7
510.830	1	16
511.000	1	8
511.171	1	13
511.341	1	8
511.511	1	3
511.681	1	18
511.851	1	17
512.022	1	14
512.192	1	2
512.362	1	3
512.532	1	9
512.702	1	19
512.873	1	9
513.043	1	2
513.213	1	18
513.383	1	14
513.553	1	21
513.724	1	5
513.894	1	6
514.064	1	12
514.234	1	20
514.404	1	17
514.575	1	9
514.745	1	6
514.915	1	-8
515.085	1	16
515.255	1	4
515.425	1	2
515.596	1	16
515.766	1	15
515.936	1	20
516.106	1	2
516.276	1	15
516.447	1	20
516.617	1	14
516.787	1	19
516.957	1	7
517.127	1	20
517.297	1	0
517.468	1	14
517.638	1	18
517.808	1	17
517.978	1	6
518.148	1	6
518.319	1	2
518.489	1	9
518.659	1	22
518.829	1	12
518.999	1	16
519.169	1	11
519.340	1	3
519.510	1	6
519.680	1	16
519.850	1	17
520.020	1	10
520.190	1	16
520.361	1	6
520.531	1	11
520.701	1	7
520.871	1	-1
521.041	1	26
521.211	1	10
521.382	1	12
521.552	1	7
521.722	1	13
521.892	1	12
522.062	1	22
522.232	1	5
522.402	1	8
522.573	1	10
522.743	1	17
522.913	1	9
523.083	1	12
523.253	1	19
523.423	1	16
523.593	1	14
523.764	1	13
523.934	1	9
524.104	1	9
524.274	1	4
524.444	1	16
524.614	1	15
524.784	1	19
524.955	1	9
525.125	1	10
525.295	1	19
525.465	1	15
525.635	1	17
525.805	1	8
525.975	1	24
526.146	1	3
526.316	1	13
526.486	1	12
526.656	1	8
526.826	1	19
526.996	1	13
527.166	1	19
527.337	1	17
527.507	1	17
527.677	1	6
527.847	1	3
528.017	1	10
528.187	1	19
528.357	1	17
528.527	1	12
528.698	1	8
528.868	1	11
529.038	1	8
529.208	1	6
529.378	1	16
529.548	1	14
529.718	1	21
529.888	1	13
530.058	1	11
530.229	1	16
530.399	1	14
530.569	1	18
530.739	1	16
530.909	1	12
531.079	1	19
531.249	1	14
531.419	1	12
531.589	1	18
531.760	1	11
531.930	1	11
532.100	1	16
532.270	1	17
532.440	1	22
532.610	1	12
532.780	1	12
532.950	1	20
533.120	1	16
533.290	1	20
533.461	1	8
533.631	1	15
533.801	1	35
533.971	1	17
534.141	1	22
534.311	1	15
534.481	1	14
534.651	1	17
534.821	1	15
534.991	1	13
535.162	1	7
535.332	1	17
535.502	1	21
535.672	1	20
535.842	1	18
536.012	1	15
536.182	1	24
536.352	1	12
536.522	1	12
536.692	1	5
536.862	1	16
537.032	1	13
537.203	1	18
537.373	1	11
537.543	1	12
537.713	1	16
537.883	1	2
538.053	1	4
538.223	1	9
538.393	1	23
538.563	1	10
538.733	1	10
538.903	1	22
539.073	1	19
539.243	1	5
539.413	1	23
539.584	1	19
539.754	1	5
539.924	1	14
540.094	1	18
540.264	1	13
540.434	1	14
540.604	1	15
540.774	1	20
540.944	1	8
541.114	1	4
541.284	1	12
541.454	1	16
541.624	1	22
541.794	1	8
541.964	1	11
542.134	1	16
542.305	1	6
542.475	1	9
542.645	1	12
542.815	1	23
542.985	1	18
543.155	1	7
543.325	1	12
543.495	1	14
543.665	1	15
543.835	1	16
544.005	1	21
544.175	1	7
544.345	1	15
544.515	1	7
544.685	1	19
544.855	1	3
545.025	1	8
545.195	1	13
545.365	1	13
545.535	1	18
545.705	1	8
545.875	1	22
546.045	1	15
546.216	1	11
546.386	1	6
546.556	1	9
546.726	1	5
546.896	1	16
547.066	1	13
547.236	1	-4
547.406	1	6
547.576	1	14
547.746	1	2
547.916	1	8
548.086	1	0
548.256	1	1
548.426	1	13
548.596	1	10
548.766	1	14
548.936	1	20
549.106	1	-2
549.276	1	5
549.446	1	9
549.616	1	12
549.786	1	12
549.956	1	3
550.126	1	19
550.296	1	0
550.466	1	14
550.636	1	9
550.806	1	9
550.976	1	2
551.146	1	9
551.316	1	12
551.486	1	3
551.656	1	15
551.826	1	11
551.996	1	14
552.166	1	16
552.336	1	14
552.506	1	6
552.676	1	22
552.846	1	8
553.016	1	4
553.186	1	15
553.356	1	15
553.526	1	17
553.696	1	11
553.866	1	-1
554.036	1	10
554.206	1	10
554.376	1	18
554.546	1	9
554.716	1	10
554.886	1	13
555.056	1	16
555.226	1	5
555.396	1	2
555.566	1	8
555.736	1	10
555.906	1	9
556.076	1	6
556.246	1	14
556.416	1	14
556.586	1	4
556.756	1	12
556.926	1	-1
557.096	1	10
557.266	1	12
557.436	1	14
557.606	1	9
557.776	1	2
557.946	1	14
558.116	1	12
558.286	1	23
558.456	1	15
558.626	1	9
558.796	1	20
558.966	1	7
559.136	1	10
559.306	1	10
559.476	1	8
559.646	1	8
559.816	1	16
559.986	1	13
560.155	1	-7
560.325	1	-2
560.495	1	11
560.665	1	11
560.835	1	9
561.005	1	4
561.175	1	6
561.345	1	15
561.515	1	10
561.685	1	10
561.855	1	2
562.025	1	12
562.195	1	1
562.365	1	6
562.535	1	8
562.705	1	18
562.875	1	10
563.045	1	5
563.215	1	17
563.385	1	20
563.555	1	13
563.725	1	2
563.895	1	0
564.064	1	16
564.234	1	17
564.404	1	5
564.574	1	4
564.744	1	12
564.914	1	5
565.084	1	15
565.254	1	5
565.424	1	-6
565.594	1	6
565.764	1	9
565.934	1	4
566.104	1	5
566.274	1	11
566.444	1	11
566.614	1	2
566.783	1	15
566.953	1	6
567.123	1	9
567.293	1	14
567.463	1	4
567.633	1	-5
567.803	1	17
567.973	1	10
568.143	1	20
568.313	1	7
568.483	1	6
568.653	1	2
568.823	1	-1
568.993	1	9
569.162	1	4
569.332	1	11
569.502	1	7
569.672	1	6
569.842	1	-3
570.012	1	1
570.182	1	16
570.352	1	5
570.522	1	-5
570.692	1	15
570.862	1	27
571.031	1	15
571.201	1	8
571.371	1	0
571.541	1	9
571.711	1	0
571.881	1	3
572.051	1	1
572.221	1	12
572.391	1	13
572.561	1	8
572.731	1	9
572.900	1	7
573.070	1	1
573.240	1	2
573.410	1	-3
573.580	1	6
573.750	1	6
573.920	1	14
574.090	1	-7
574.260	1	8
574.430	1	10
574.599	1	11
574.769	1	4
574.939	1	0
575.109	1	11
575.279	1	-7
575.449	1	3
575.619	1	16
575.789	1	14
575.959	1	6
576.128	1	1
576.298	1	4
576.468	1	8
576.638	1	-4
576.808	1	3
576.978	1	-3
577.148	1	10
577.318	1	2
577.487	1	2
577.657	1	13
577.827	1	6
577.997	1	15
578.167	1	13
578.337	1	12
578.507	1	-2
578.677	1	21
578.846	1	4
579.016	1	6
579.186	1	4
579.356	1	14
579.526	1	7
579.696	1	-2
579.866	1	5
580.036	1	5
580.205	1	4
580.375	1	1
580.545	1	1
580.715	1	8
580.885	1	4
581.055	1	13
581.225	1	-5
581.394	1	3
581.564	1	-4
581.734	1	3
581.904	1	5
582.074	1	-2
582.244	1	-2
582.414	1	4
582.583	1	13
582.753	1	2
582.923	1	14
583.093	1	13
583.263	1	-1
583.433	1	11
583.603	1	4
583.772	1	15
583.942	1	-5
584.112	1	8
584.282	1	0
584.452	1	11
584.622	1	-5
584.791	1	8
584.961	1	4
585.131	1	12
585.301	1	7
585.471	1	6
585.641	1	18
585.811	1	5
585.980	1	1
586.150	1	7
586.320	1	2
586.490	1	2
586.660	1	-10
586.830	1	1
586.999	1	-5
587.169	1	14
587.339	1	8
587.509	1	17
587.679	1	3
587.849	1	11
588.018	1	16
588.188	1	8
588.358	1	-2
588.528	1	9
588.698	1	7
588.867	1	9
589.037	1	1
589.207	1	1
589.377	1	6
589.547	1	3
589.717	1	8
589.886	1	7
590.056	1	5
590.226	1	8
590.396	1	2
590.566	1	-2
590.735	1	10
590.905	1	9
591.075	1	8
591.245	1	1
591.415	1	12
591.585	1	4
591.754	1	1
591.924	1	7
592.094	1	4
592.264	1	3
592.434	1	2
592.603	1	3
592.773	1	10
592.943	1	-4
593.113	1	-2
593.283	1	-1
593.452	1	20
593.622	1	12
593.792	1	-8
593.962	1	11
594.132	1	3
594.301	1	-1
594.471	1	3
594.641	1	8
594.811	1	5
594.981	1	-5
595.150	1	-4
595.320	1	7
595.490	1	9
595.660	1	4
595.829	1	-3
595.999	1	14
596.169	1	8
596.339	1	1
596.509	1	1
596.678	1	-1
596.848	1	6
597.018	1	2
597.188	1	10
597.358	1	-1
597.527	1	4
597.697	1	-5
597.867	1	2
598.037	1	6
598.206	1	3
598.376	1	3
598.546	1	8
598.716	1	14
598.885	1	7
599.055	1	11
599.225	1	2
599.395	1	2
599.565	1	10
599.734	1	6
599.904	1	3
600.074	1	11
600.244	1	10
600.413	1	-1
600.583	1	-3
600.753	1	12
600.923	1	5
601.092	1	7
601.262	1	5
601.432	1	-1
601.602	1	1
601.771	1	8
601.941	1	3
602.111	1	1
602.281	1	5
602.451	1	6
602.620	1	-3
602.790	1	4
602.960	1	-4
603.130	1	8
603.299	1	3
603.469	1	11
603.639	1	-6
603.809	1	6
603.978	1	8
604.148	1	-1
604.318	1	8
604.487	1	12
604.657	1	-8
604.827	1	8
604.997	1	16
605.166	1	5
605.336	1	8
605.506	1	-1
605.676	1	4
605.845	1	-1
606.015	1	-5
606.185	1	6
606.355	1	8
606.524	1	11
606.694	1	1
606.864	1	13
607.034	1	6
607.203	1	3
607.373	1	3
607.543	1	-1
607.712	1	3
607.882	1	8
608.052	1	6
608.222	1	-12
608.391	1	12
608.561	1	1
608.731	1	15
608.901	1	8
609.070	1	4
609.240	1	-6
609.410	1	7
609.579	1	9
609.749	1	11
609.919	1	11
610.089	1	1
610.258	1	13
610.428	1	8
610.598	1	7
610.767	1	3
610.937	1	15
611.107	1	5
611.277	1	3
611.446	1	8
611.616	1	2
611.786	1	2
611.955	1	-8
612.125	1	9
612.295	1	13
612.465	1	4
612.634	1	2
612.804	1	9
612.974	1	3
613.143	1	7
613.313	1	11
613.483	1	-1
613.652	1	4
613.822	1	2
613.992	1	4
614.162	1	9
614.331	1	13
614.501	1	11
614.671	1	-1
614.840	1	2
615.010	1	6
615.180	1	10
615.349	1	0
615.519	1	6
615.689	1	12
615.858	1	-7
616.028	1	23
616.198	1	19
616.368	1	11
616.537	1	12
616.707	1	10
616.877	1	-3
617.046	1	3
617.216	1	11
617.386	1	8
617.555	1	-1
617.725	1	-1
617.895	1	2
618.064	1	7
618.234	1	1
618.404	1	6
618.573	1	11
618.743	1	12
618.913	1	5
619.082	1	-1
619.252	1	-6
619.422	1	-2
619.591	1	-9
619.761	1	6
619.931	1	0
620.100	1	2
620.270	1	2
620.440	1	5
620.609	1	12
620.779	1	-2
620.949	1	-1
621.118	1	8
621.288	1	-6
621.458	1	7
621.627	1	9
621.797	1	0
621.967	1	5
622.136	1	6
622.306	1	9
622.476	1	13
622.645	1	7
622.815	1	0
622.985	1	10
623.154	1	3
623.324	1	1
623.494	1	10
623.663	1	-5
623.833	1	6
624.002	1	13
624.172	1	5
624.342	1	11
624.511	1	4
624.681	1	6
624.851	1	-6
625.020	1	-2
625.190	1	-2
625.360	1	1
625.529	1	1
625.699	1	-1
625.869	1	6
626.038	1	18
626.208	1	5
626.377	1	5
626.547	1	4
626.717	1	9
626.886	1	-3
627.056	1	12
627.226	1	4
627.395	1	9
627.565	1	8
627.735	1	10
627.904	1	7
628.074	1	5
628.243	1	10
628.413	1	4
628.583	1	-12
628.752	1	11
628.922	1	0
629.091	1	2
629.261	1	-8
629.431	1	6
629.600	1	5
629.770	1	5
629.940	1	16
630.109	1	9
630.279	1	14
630.448	1	0
630.618	1	1
630.788	1	-5
630.957	1	4
631.127	1	1
631.297	1	2
631.466	1	17
631.636	1	15
631.805	1	9
631.975	1	2
632.145	1	4
632.314	1	3
632.484	1	-5
632.653	1	1
632.823	1	1
632.993	1	13
633.162	1	1
633.332	1	9
633.501	1	13
633.671	1	-6
633.841	1	14
634.010	1	-4
634.180	1	10
634.349	1	5
634.519	1	4
634.689	1	11
634.858	1	12
635.028	1	12
635.197	1	9
635.367	1	-1
635.537	1	-6
635.706	1	-1
635.876	1	4
636.045	1	21
636.215	1	10
636.384	1	2
636.554	1	7
636.724	1	13
636.893	1	2
637.063	1	3
637.232	1	-1
637.402	1	-2
637.572	1	0
637.741	1	6
637.911	1	4
638.080	1	13
638.250	1	12
638.419	1	12
638.589	1	3
638.759	1	2
638.928	1	2
639.098	1	-6
639.267	1	5
639.437	1	12
639.606	1	8
639.776	1	2
639.946	1	3
640.115	1	3
640.285	1	8
640.454	1	11
640.624	1	-3
640.793	1	-3
640.963	1	-3
641.132	1	17
641.302	1	13
641.472	1	4
641.641	1	1
641.811	1	15
641.980	1	0
642.150	1	-11
642.319	1	2
642.489	1	-9
642.659	1	3
642.828	1	-3
642.998	1	11
643.167	1	3
643.337	1	-5
643.506	1	7
643.676	1	8
643.845	1	2
644.015	1	4
644.184	1	-7
644.354	1	3
644.524	1	-1
644.693	1	10
644.863	1	3
645.032	1	7
645.202	1	13
645.371	1	18
645.541	1	1
645.710	1	10
645.880	1	8
646.049	1	-5
646.219	1	8
646.388	1	6
646.558	1	0
646.728	1	1
646.897	1	7
647.067	1	5
647.236	1	3
647.406	1	8
647.575	1	-1
647.745	1	15
647.914	1	-14
648.084	1	-3
648.253	1	-4
648.423	1	4
648.592	1	4
648.762	1	6
648.931	1	-3
649.101	1	-3
649.270	1	-2
649.440	1	10
649.610	1	1
649.779	1	10
649.949	1	4
650.118	1	-2
650.288	1	4
650.457	1	6
650.627	1	-4
650.796	1	-1
650.966	1	7
651.135	1	5
651.305	1	3
651.474	1	2
651.644	1	1
651.813	1	6
651.983	1	-10
652.152	1	3
652.322	1	4
652.491	1	4
652.661	1	3
652.830	1	6
653.000	1	-6
653.169	1	-5
653.339	1	5
653.508	1	12
653.678	1	3
653.847	1	4
654.017	1	-4
654.186	1	2
654.356	1	8
654.525	1	4
654.695	1	-2
654.864	1	-2
655.034	1	4
655.203	1	7
655.373	1	4
655.542	1	-2
655.712	1	0
655.881	1	6
656.051	1	2
656.220	1	1
656.390	1	10
656.559	1	-2
656.729	1	10
656.898	1	-3
657.068	1	-2
657.237	1	-1
657.406	1	6
657.576	1	-1
657.745	1	4
657.915	1	11
658.084	1	-1
658.254	1	2
658.423	1	1
658.593	1	7
658.762	1	14
658.932	1	8
659.101	1	8
659.271	1	5
659.440	1	5
659.610	1	-2
659.779	1	0
659.949	1	2
660.118	1	-3
660.288	1	3
660.457	1	-2
660.626	1	5
660.796	1	5
660.965	1	8
661.135	1	9
661.304	1	1
661.474	1	-1
661.643	1	3
661.813	1	4
661.982	1	2
662.152	1	3
662.321	1	-4
662.491	1	11
662.660	1	7
662.829	1	11
662.999	1	-4
663.168	1	1
663.338	1	1
663.507	1	1
663.677	1	6
663.846	1	8
664.016	1	11
664.185	1	-13
664.354	1	7
664.524	1	1
664.693	1	11
664.863	1	-6
665.032	1	16
665.202	1	2
665.371	1	-5
665.541	1	-1
665.710	1	11
665.879	1	4
666.049	1	11
666.218	1	4
666.388	1	3
666.557	1	-1
666.727	1	-4
666.896	1	5
667.065	1	5
667.235	1	11
667.404	1	7
667.574	1	22
667.743	1	1
667.913	1	10
668.082	1	1
668.251	1	5
668.421	1	4
668.590	1	2
668.760	1	-3
668.929	1	9
669.099	1	-8
669.268	1	-6
669.437	1	-5
669.607	1	1
669.776	1	9
669.946	1	8
670.115	1	7
670.285	1	2
670.454	1	2
670.623	1	14
670.793	1	-6
670.962	1	-1
671.132	1	5
671.301	1	0
671.470	1	3
671.640	1	-3
671.809	1	3
671.979	1	8
672.148	1	-2
672.317	1	-2
672.487	1	-9
672.656	1	1
672.826	1	-1
672.995	1	0
673.164	1	7
673.334	1	2
673.503	1	-2
673.673	1	15
673.842	1	-4
674.011	1	7
674.181	1	14
674.350	1	-1
674.520	1	-1
674.689	1	16
674.858	1	1
675.028	1	9
675.197	1	2
675.367	1	4
675.536	1	8
675.705	1	6
675.875	1	8
676.044	1	9
676.214	1	6
676.383	1	3
676.552	1	-11
676.722	1	-3
676.891	1	-6
677.060	1	7
677.230	1	7
677.399	1	1
677.569	1	1
677.738	1	-3
677.907	1	5
678.077	1	2
678.246	1	3
678.416	1	0
678.585	1	4
678.754	1	4
678.924	1	6
679.093	1	1
679.262	1	4
679.432	1	11
679.601	1	1
679.771	1	8
679.940	1	-4
680.109	1	14
680.279	1	2
680.448	1	6
680.617	1	-10
680.787	1	12
680.956	1	-3
681.125	1	9
681.295	1	2
681.464	1	3
681.634	1	16
681.803	1	-2
681.972	1	4
682.142	1	2
682.311	1	2
682.480	1	11
682.650	1	1
682.819	1	9
682.988	1	-6
683.158	1	-1
683.327	1	5
683.496	1	-2
683.666	1	0
683.835	1	-6
684.004	1	6
684.174	1	13
684.343	1	2
684.512	1	13
684.682	1	1
684.851	1	-7
685.021	1	2
685.190	1	-3
685.359	1	1
685.529	1	-2
685.698	1	2
685.867	1	4
686.037	1	9
686.206	1	6
686.375	1	5
686.545	1	-3
686.714	1	-16
686.883	1	4
687.053	1	7
687.222	1	6
687.391	1	4
687.561	1	9
687.730	1	0
687.899	1	2
688.069	1	0
688.238	1	11
688.407	1	4
688.577	1	-2
688.746	1	-8
