340.368	1	18
340.539	1	26
340.710	1	22
340.881	1	15
341.052	1	16
341.223	1	13
341.394	1	18
341.565	1	20
341.737	1	21
341.908	1	30
342.079	1	21
342.250	1	38
342.421	1	29
342.592	1	20
342.763	1	15
342.934	1	28
343.105	1	21
343.276	1	18
343.447	1	20
343.618	1	8
343.789	1	20
343.960	1	11
344.131	1	14
344.302	1	18
344.473	1	10
344.644	1	20
344.815	1	7
344.986	1	26
345.157	1	6
345.328	1	25
345.499	1	24
345.670	1	19
345.841	1	12
346.012	1	25
346.183	1	16
346.354	1	16
346.526	1	22
346.697	1	27
346.868	1	28
347.039	1	24
347.210	1	13
347.381	1	22
347.552	1	25
347.723	1	27
347.894	1	14
348.065	1	29
348.236	1	19
348.407	1	21
348.578	1	27
348.749	1	33
348.920	1	20
349.091	1	32
349.262	1	27
349.433	1	26
349.604	1	33
349.775	1	23
349.946	1	20
350.117	1	37
350.288	1	21
350.459	1	20
350.630	1	43
350.801	1	29
350.972	1	39
351.143	1	27
351.314	1	27
351.485	1	39
351.656	1	34
351.827	1	33
351.998	1	37
352.169	1	32
352.340	1	48
352.511	1	28
352.682	1	41
352.853	1	42
353.024	1	51
353.195	1	44
353.366	1	44
353.537	1	43
353.708	1	34
353.879	1	27
354.050	1	38
354.221	1	47
354.392	1	55
354.563	1	35
354.734	1	43
354.905	1	47
355.076	1	52
355.247	1	48
355.418	1	58
355.589	1	48
355.760	1	49
355.931	1	56
356.102	1	56
356.273	1	61
356.444	1	35
356.615	1	41
356.785	1	62
356.956	1	66
357.127	1	79
357.298	1	67
357.469	1	64
357.640	1	69
357.811	1	72
357.982	1	83
358.153	1	75
358.324	1	77
358.495	1	91
358.666	1	82
358.837	1	84
359.008	1	105
359.179	1	91
359.350	1	95
359.521	1	96
359.692	1	117
359.863	1	117
360.034	1	119
360.205	1	138
360.376	1	139
360.547	1	146
360.718	1	168
360.889	1	160
361.060	1	176
361.231	1	205
361.401	1	203
361.572	1	237
361.743	1	249
361.914	1	271
362.085	1	295
362.256	1	320
362.427	1	343
362.598	1	374
362.769	1	414
362.940	1	437
363.111	1	513
363.282	1	545
363.453	1	571
363.624	1	611
363.795	1	700
363.966	1	776
364.137	1	840
364.308	1	919
364.478	1	1037
364.649	1	1120
364.820	1	1202
364.991	1	1320
365.162	1	1453
365.333	1	1542
365.504	1	1688
365.675	1	1851
365.846	1	1987
366.017	1	2106
366.188	1	2232
366.359	1	2398
366.530	1	2508
366.701	1	2613
366.871	1	2695
367.042	1	2848
367.213	1	2866
367.384	1	2932
367.555	1	2956
367.726	1	3057
367.897	1	2985
368.068	1	2983
368.239	1	2942
368.410	1	2927
368.581	1	2878
368.752	1	2785
368.923	1	2673
369.093	1	2568
369.264	1	2485
369.435	1	2353
369.606	1	2283
369.777	1	2137
369.948	1	2043
370.119	1	1927
370.290	1	1794
370.461	1	1733
370.632	1	1597
370.803	1	1547
370.973	1	1481
371.144	1	1388
371.315	1	1332
371.486	1	1274
371.657	1	1214
371.828	1	1176
371.999	1	1135
372.170	1	1095
372.341	1	1057
372.512	1	1014
372.682	1	991
372.853	1	952
373.024	1	931
373.195	1	909
373.366	1	904
373.537	1	873
373.708	1	862
373.879	1	850
374.050	1	823
374.220	1	840
374.391	1	821
374.562	1	787
374.733	1	768
374.904	1	760
375.075	1	734
375.246	1	715
375.417	1	715
375.588	1	685
375.758	1	634
375.929	1	639
376.100	1	653
376.271	1	624
376.442	1	645
376.613	1	617
376.784	1	619
376.955	1	629
377.125	1	634
377.296	1	621
377.467	1	638
377.638	1	624
377.809	1	650
377.980	1	624
378.151	1	678
378.321	1	710
378.492	1	744
378.663	1	742
378.834	1	778
379.005	1	810
379.176	1	844
379.347	1	859
379.518	1	921
379.688	1	967
379.859	1	1012
380.030	1	1074
380.201	1	1130
380.372	1	1174
380.543	1	1251
380.714	1	1353
380.884	1	1427
381.055	1	1533
381.226	1	1632
381.397	1	1730
381.568	1	1836
381.739	1	1956
381.910	1	2083
382.080	1	2189
382.251	1	2349
382.422	1	2521
382.593	1	2647
382.764	1	2777
382.935	1	2931
383.105	1	3083
383.276	1	3187
383.447	1	3391
383.618	1	3547
383.789	1	3670
383.960	1	3831
384.130	1	3973
384.301	1	4099
384.472	1	4245
384.643	1	4429
384.814	1	4533
384.985	1	4670
385.156	1	4781
385.326	1	4880
385.497	1	5040
385.668	1	5068
385.839	1	5210
386.010	1	5252
386.180	1	5330
386.351	1	5327
386.522	1	5363
386.693	1	5360
386.864	1	5383
387.035	1	5390
387.205	1	5355
387.376	1	5346
387.547	1	5235
387.718	1	5265
387.889	1	5180
388.060	1	5121
388.230	1	5050
388.401	1	4965
388.572	1	4930
388.743	1	4874
388.914	1	4835
389.084	1	4703
389.255	1	4614
389.426	1	4546
389.597	1	4534
389.768	1	4464
389.939	1	4442
390.109	1	4423
390.280	1	4386
390.451	1	4348
390.622	1	4330
390.793	1	4285
390.963	1	4281
391.134	1	4255
391.305	1	4211
391.476	1	4202
391.647	1	4193
391.817	1	4215
391.988	1	4265
392.159	1	4259
392.330	1	4229
392.501	1	4233
392.671	1	4249
392.842	1	4268
393.013	1	4272
393.184	1	4247
393.355	1	4202
393.525	1	4215
393.696	1	4184
393.867	1	4239
394.038	1	4211
394.208	1	4196
394.379	1	4182
394.550	1	4213
394.721	1	4193
394.892	1	4261
395.062	1	4238
395.233	1	4214
395.404	1	4199
395.575	1	4250
395.746	1	4272
395.916	1	4313
396.087	1	4256
396.258	1	4310
396.429	1	4353
396.599	1	4355
396.770	1	4394
396.941	1	4435
397.112	1	4392
397.283	1	4430
397.453	1	4471
397.624	1	4493
397.795	1	4434
397.966	1	4508
398.136	1	4448
398.307	1	4502
398.478	1	4492
398.649	1	4501
398.819	1	4410
398.990	1	4426
399.161	1	4383
399.332	1	4298
399.503	1	4269
399.673	1	4288
399.844	1	4168
400.015	1	4103
400.186	1	4044
400.356	1	3983
400.527	1	3921
400.698	1	3840
400.869	1	3830
401.039	1	3694
401.210	1	3640
401.381	1	3524
401.552	1	3496
401.722	1	3453
401.893	1	3352
402.064	1	3326
402.235	1	3263
402.405	1	3243
402.576	1	3120
402.747	1	3142
402.918	1	3071
403.088	1	3031
403.259	1	3009
403.430	1	3002
403.601	1	3010
403.771	1	2960
403.942	1	2933
404.113	1	2921
404.284	1	2935
404.454	1	2882
404.625	1	2870
404.796	1	2873
404.967	1	2859
405.137	1	2886
405.308	1	2819
405.479	1	2877
405.649	1	2902
405.820	1	2874
405.991	1	2847
406.162	1	2868
406.332	1	2893
406.503	1	2847
406.674	1	2809
406.845	1	2791
407.015	1	2758
407.186	1	2746
407.357	1	2728
407.527	1	2716
407.698	1	2698
407.869	1	2681
408.040	1	2666
408.210	1	2621
408.381	1	2614
408.552	1	2567
408.722	1	2600
408.893	1	2546
409.064	1	2533
409.235	1	2521
409.405	1	2491
409.576	1	2464
409.747	1	2432
409.917	1	2388
410.088	1	2399
410.259	1	2400
410.430	1	2342
410.600	1	2310
410.771	1	2277
410.942	1	2297
411.112	1	2269
411.283	1	2227
411.454	1	2208
411.625	1	2182
411.795	1	2157
411.966	1	2129
412.137	1	2121
412.307	1	2088
412.478	1	2095
412.649	1	2043
412.819	1	2011
412.990	1	2013
413.161	1	1963
413.332	1	1946
413.502	1	1958
413.673	1	1908
413.844	1	1884
414.014	1	1863
414.185	1	1829
414.356	1	1810
414.526	1	1772
414.697	1	1758
414.868	1	1722
415.038	1	1735
415.209	1	1694
415.380	1	1671
415.550	1	1661
415.721	1	1637
415.892	1	1641
416.063	1	1599
416.233	1	1624
416.404	1	1583
416.575	1	1583
416.745	1	1596
416.916	1	1566
417.087	1	1562
417.257	1	1549
417.428	1	1544
417.599	1	1543
417.769	1	1561
417.940	1	1542
418.111	1	1529
418.281	1	1520
418.452	1	1538
418.623	1	1514
418.793	1	1507
418.964	1	1503
419.135	1	1532
419.305	1	1509
419.476	1	1524
419.647	1	1459
419.817	1	1451
419.988	1	1494
420.159	1	1476
420.329	1	1459
420.500	1	1438
420.671	1	1421
420.841	1	1402
421.012	1	1399
421.183	1	1387
421.353	1	1371
421.524	1	1347
421.695	1	1321
421.865	1	1303
422.036	1	1306
422.206	1	1303
422.377	1	1225
422.548	1	1248
422.718	1	1237
422.889	1	1186
423.060	1	1231
423.230	1	1199
423.401	1	1135
423.572	1	1110
423.742	1	1114
423.913	1	1127
424.084	1	1089
424.254	1	1087
424.425	1	1071
424.595	1	1025
424.766	1	1016
424.937	1	1006
425.107	1	1008
425.278	1	989
425.449	1	987
425.619	1	975
425.790	1	978
425.961	1	967
426.131	1	980
426.302	1	940
426.472	1	944
426.643	1	911
426.814	1	918
426.984	1	896
427.155	1	912
427.326	1	921
427.496	1	901
427.667	1	908
427.837	1	910
428.008	1	885
428.179	1	907
428.349	1	917
428.520	1	890
428.691	1	883
428.861	1	875
429.032	1	876
429.202	1	871
429.373	1	861
429.544	1	854
429.714	1	848
429.885	1	838
430.055	1	825
430.226	1	843
430.397	1	824
430.567	1	806
430.738	1	798
430.909	1	798
431.079	1	804
431.250	1	793
431.420	1	760
431.591	1	764
431.762	1	758
431.932	1	748
432.103	1	720
432.273	1	746
432.444	1	723
432.615	1	716
432.785	1	689
432.956	1	674
433.126	1	679
433.297	1	667
433.468	1	643
433.638	1	637
433.809	1	651
433.979	1	644
434.150	1	600
434.320	1	611
434.491	1	594
434.662	1	589
434.832	1	583
435.003	1	588
435.173	1	578
435.344	1	570
435.515	1	569
435.685	1	550
435.856	1	543
436.026	1	542
436.197	1	527
436.368	1	524
436.538	1	534
436.709	1	515
436.879	1	522
437.050	1	527
437.220	1	516
437.391	1	509
437.562	1	514
437.732	1	510
437.903	1	496
438.073	1	484
438.244	1	501
438.414	1	487
438.585	1	491
438.756	1	466
438.926	1	491
439.097	1	474
439.267	1	457
439.438	1	471
439.608	1	455
439.779	1	459
439.949	1	460
440.120	1	456
440.291	1	436
440.461	1	449
440.632	1	423
440.802	1	414
440.973	1	420
441.143	1	415
441.314	1	424
441.485	1	424
441.655	1	405
441.826	1	397
441.996	1	408
442.167	1	393
442.337	1	389
442.508	1	361
442.678	1	370
442.849	1	383
443.019	1	376
443.190	1	362
443.361	1	375
443.531	1	364
443.702	1	359
443.872	1	367
444.043	1	346
444.213	1	356
444.384	1	334
444.554	1	334
444.725	1	326
444.895	1	341
445.066	1	343
445.237	1	339
445.407	1	333
445.578	1	331
445.748	1	325
445.919	1	329
446.089	1	326
446.260	1	315
446.430	1	322
446.601	1	322
446.771	1	322
446.942	1	325
447.112	1	324
447.283	1	312
447.453	1	299
447.624	1	323
447.794	1	317
447.965	1	297
448.135	1	312
448.306	1	305
448.477	1	287
448.647	1	307
448.818	1	269
448.988	1	290
449.159	1	292
449.329	1	276
449.500	1	286
449.670	1	278
449.841	1	252
450.011	1	258
450.182	1	273
450.352	1	248
450.523	1	267
450.693	1	267
450.864	1	256
451.034	1	246
451.205	1	251
451.375	1	254
451.546	1	250
451.716	1	225
451.887	1	219
452.057	1	242
452.228	1	220
452.398	1	206
452.569	1	242
452.739	1	227
452.910	1	231
453.080	1	224
453.251	1	229
453.421	1	228
453.592	1	221
453.762	1	210
453.933	1	214
454.103	1	193
454.274	1	202
454.444	1	218
454.615	1	208
454.785	1	210
454.956	1	193
455.126	1	204
455.297	1	220
455.467	1	211
455.638	1	204
455.808	1	198
455.979	1	215
456.149	1	188
456.320	1	193
456.490	1	203
456.661	1	193
456.831	1	199
457.001	1	191
457.172	1	178
457.342	1	183
457.513	1	197
457.683	1	183
457.854	1	185
458.024	1	210
458.195	1	178
458.365	1	182
458.536	1	173
458.706	1	180
458.877	1	193
459.047	1	187
459.218	1	195
459.388	1	169
459.559	1	160
459.729	1	172
459.899	1	164
460.070	1	168
460.240	1	166
460.411	1	172
460.581	1	164
460.752	1	176
460.922	1	148
461.093	1	166
461.263	1	145
461.434	1	154
461.604	1	137
461.775	1	146
461.945	1	147
462.115	1	145
462.286	1	146
462.456	1	141
462.627	1	130
462.797	1	136
462.968	1	133
463.138	1	134
463.309	1	133
463.479	1	133
463.649	1	128
463.820	1	116
463.990	1	127
464.161	1	121
464.331	1	127
464.502	1	141
464.672	1	137
464.843	1	121
465.013	1	129
465.183	1	135
465.354	1	124
465.524	1	125
465.695	1	123
465.865	1	129
466.036	1	121
466.206	1	128
466.376	1	126
466.547	1	116
466.717	1	130
466.888	1	124
467.058	1	137
467.229	1	124
467.399	1	128
467.569	1	118
467.740	1	132
467.910	1	113
468.081	1	125
468.251	1	113
468.422	1	125
468.592	1	120
468.762	1	112
468.933	1	125
469.103	1	134
469.274	1	127
469.444	1	108
469.614	1	116
469.785	1	120
469.955	1	115
470.126	1	102
470.296	1	110
470.467	1	118
470.637	1	113
470.807	1	112
470.978	1	101
471.148	1	101
471.319	1	112
471.489	1	92
471.659	1	113
471.830	1	105
472.000	1	114
472.171	1	114
472.341	1	108
472.511	1	101
472.682	1	114
472.852	1	114
473.023	1	109
473.193	1	106
473.363	1	110
473.534	1	92
473.704	1	89
473.875	1	110
474.045	1	97
474.215	1	98
474.386	1	94
474.556	1	98
474.727	1	99
474.897	1	90
475.067	1	97
475.238	1	106
475.408	1	99
475.578	1	99
475.749	1	100
475.919	1	87
476.090	1	93
476.260	1	93
476.430	1	95
476.601	1	94
476.771	1	93
476.942	1	98
477.112	1	89
477.282	1	97
477.453	1	101
477.623	1	90
477.793	1	98
477.964	1	84
478.134	1	104
478.305	1	95
478.475	1	81
478.645	1	105
478.816	1	95
478.986	1	107
479.156	1	91
479.327	1	85
479.497	1	97
479.667	1	98
479.838	1	94
480.008	1	82
480.179	1	88
480.349	1	98
480.519	1	89
480.690	1	92
480.860	1	104
481.030	1	93
481.201	1	108
481.371	1	105
481.541	1	99
481.712	1	97
481.882	1	100
482.053	1	96
482.223	1	95
482.393	1	101
482.564	1	94
482.734	1	99
482.904	1	93
483.075	1	114
483.245	1	88
483.415	1	92
483.586	1	94
483.756	1	99
483.926	1	102
484.097	1	107
484.267	1	101
484.437	1	92
484.608	1	102
484.778	1	97
484.948	1	103
485.119	1	111
485.289	1	100
485.459	1	99
485.630	1	92
485.800	1	113
485.970	1	101
486.141	1	89
486.311	1	110
486.481	1	94
486.652	1	99
486.822	1	119
486.992	1	109
487.163	1	108
487.333	1	106
487.503	1	104
487.674	1	111
487.844	1	117
488.014	1	110
488.185	1	109
488.355	1	126
488.525	1	119
488.696	1	120
488.866	1	115
489.036	1	119
489.207	1	122
489.377	1	125
489.547	1	120
489.718	1	133
489.888	1	124
490.058	1	127
490.228	1	133
490.399	1	127
490.569	1	120
490.739	1	146
490.910	1	126
491.080	1	124
491.250	1	142
491.421	1	150
491.591	1	137
491.761	1	135
491.932	1	142
492.102	1	147
492.272	1	140
492.442	1	151
492.613	1	162
492.783	1	140
492.953	1	142
493.124	1	154
493.294	1	154
493.464	1	155
493.635	1	172
493.805	1	161
493.975	1	172
494.145	1	146
494.316	1	169
494.486	1	169
494.656	1	167
494.827	1	176
494.997	1	178
495.167	1	187
495.337	1	179
495.508	1	169
495.678	1	170
495.848	1	173
496.019	1	165
496.189	1	175
496.359	1	181
496.529	1	184
496.700	1	188
496.870	1	183
497.040	1	179
497.211	1	172
497.381	1	190
497.551	1	195
497.721	1	175
497.892	1	186
498.062	1	180
498.232	1	198
498.403	1	176
498.573	1	193
498.743	1	203
498.913	1	195
499.084	1	203
499.254	1	192
499.424	1	185
499.594	1	191
499.765	1	209
499.935	1	205
500.105	1	215
500.275	1	222
500.446	1	221
500.616	1	210
500.786	1	199
500.956	1	217
501.127	1	220
501.297	1	213
501.467	1	220
501.638	1	240
501.808	1	224
501.978	1	240
502.148	1	239
502.319	1	248
502.489	1	235
502.659	1	240
502.829	1	246
503.000	1	244
503.170	1	243
503.340	1	245
503.510	1	242
503.681	1	247
503.851	1	242
504.021	1	248
504.191	1	248
504.362	1	261
504.532	1	269
504.702	1	271
504.872	1	274
505.042	1	288
505.213	1	291
505.383	1	294
505.553	1	300
505.723	1	300
505.894	1	319
506.064	1	303
506.234	1	294
506.404	1	315
506.575	1	327
506.745	1	305
506.915	1	319
507.085	1	319
507.256	1	326
507.426	1	327
507.596	1	312
507.766	1	318
507.936	1	320
508.107	1	326
508.277	1	337
508.447	1	347
508.617	1	343
508.788	1	338
508.958	1	349
509.128	1	342
509.298	1	330
509.468	1	341
509.639	1	350
509.809	1	351
509.979	1	358
510.149	1	366
510.319	1	368
510.490	1	358
510.660	1	343
510.830	1	379
511.000	1	363
511.171	1	364
511.341	1	365
511.511	1	361
511.681	1	360
511.851	1	358
512.022	1	366
512.192	1	358
512.362	1	353
512.532	1	352
512.702	1	383
512.873	1	372
513.043	1	366
513.213	1	386
513.383	1	380
513.553	1	388
513.724	1	376
513.894	1	375
514.064	1	377
514.234	1	407
514.404	1	394
514.575	1	373
514.745	1	384
514.915	1	376
515.085	1	383
515.255	1	378
515.425	1	389
515.596	1	408
515.766	1	412
515.936	1	411
516.106	1	398
516.276	1	406
516.447	1	420
516.617	1	422
516.787	1	408
516.957	1	403
517.127	1	435
517.297	1	420
517.468	1	439
517.638	1	427
517.808	1	442
517.978	1	466
518.148	1	434
518.319	1	465
518.489	1	465
518.659	1	455
518.829	1	488
518.999	1	464
519.169	1	481
519.340	1	464
519.510	1	473
519.680	1	469
519.850	1	494
520.020	1	496
520.190	1	514
520.361	1	488
520.531	1	501
520.701	1	509
520.871	1	510
521.041	1	512
521.211	1	496
521.382	1	514
521.552	1	516
521.722	1	513
521.892	1	527
522.062	1	505
522.232	1	522
522.402	1	527
522.573	1	526
522.743	1	525
522.913	1	538
523.083	1	535
523.253	1	525
523.423	1	523
523.593	1	521
523.764	1	524
523.934	1	519
524.104	1	527
524.274	1	539
524.444	1	533
524.614	1	546
524.784	1	548
524.955	1	535
525.125	1	539
525.295	1	537
525.465	1	538
525.635	1	549
525.805	1	526
525.975	1	546
526.146	1	532
526.316	1	537
526.486	1	538
526.656	1	542
526.826	1	559
526.996	1	552
527.166	1	571
527.337	1	558
527.507	1	562
527.677	1	535
527.847	1	555
528.017	1	550
528.187	1	557
528.357	1	563
528.527	1	572
528.698	1	551
528.868	1	565
529.038	1	574
529.208	1	566
529.378	1	554
529.548	1	573
529.718	1	597
529.888	1	587
530.058	1	590
530.229	1	588
530.399	1	593
530.569	1	589
530.739	1	608
530.909	1	608
531.079	1	606
531.249	1	591
531.419	1	606
531.589	1	612
531.760	1	621
531.930	1	631
532.100	1	632
532.270	1	617
532.440	1	638
532.610	1	620
532.780	1	621
532.950	1	640
533.120	1	612
533.290	1	642
533.461	1	630
533.631	1	646
533.801	1	662
533.971	1	647
534.141	1	640
534.311	1	660
534.481	1	650
534.651	1	647
534.821	1	670
534.991	1	655
535.162	1	657
535.332	1	658
535.502	1	651
535.672	1	668
535.842	1	658
536.012	1	674
536.182	1	673
536.352	1	659
536.522	1	646
536.692	1	664
536.862	1	654
537.032	1	664
537.203	1	652
537.373	1	653
537.543	1	668
537.713	1	668
537.883	1	657
538.053	1	653
538.223	1	662
538.393	1	682
538.563	1	655
538.733	1	661
538.903	1	684
539.073	1	643
539.243	1	681
539.413	1	659
539.584	1	681
539.754	1	668
539.924	1	658
540.094	1	650
540.264	1	654
540.434	1	654
540.604	1	642
540.774	1	670
540.944	1	655
541.114	1	651
541.284	1	662
541.454	1	632
541.624	1	656
541.794	1	664
541.964	1	662
542.134	1	645
542.305	1	655
542.475	1	651
542.645	1	622
542.815	1	655
542.985	1	658
543.155	1	640
543.325	1	661
543.495	1	645
543.665	1	648
543.835	1	653
544.005	1	652
544.175	1	651
544.345	1	634
544.515	1	644
544.685	1	647
544.855	1	618
545.025	1	624
545.195	1	645
545.365	1	649
545.535	1	674
545.705	1	662
545.875	1	652
546.045	1	643
546.216	1	648
546.386	1	650
546.556	1	647
546.726	1	651
546.896	1	664
547.066	1	662
547.236	1	668
547.406	1	657
547.576	1	670
547.746	1	683
547.916	1	667
548.086	1	652
548.256	1	668
548.426	1	674
548.596	1	657
548.766	1	682
548.936	1	680
549.106	1	680
549.276	1	676
549.446	1	701
549.616	1	684
549.786	1	715
549.956	1	698
550.126	1	694
550.296	1	711
550.466	1	721
550.636	1	719
550.806	1	714
550.976	1	715
551.146	1	723
551.316	1	718
551.486	1	717
551.656	1	742
551.826	1	720
551.996	1	751
552.166	1	740
552.336	1	755
552.506	1	715
552.676	1	744
552.846	1	728
553.016	1	744
553.186	1	749
553.356	1	770
553.526	1	759
553.696	1	732
553.866	1	725
554.036	1	742
554.206	1	742
554.376	1	762
554.546	1	750
554.716	1	731
554.886	1	739
555.056	1	740
555.226	1	770
555.396	1	733
555.566	1	740
555.736	1	738
555.906	1	741
556.076	1	730
556.246	1	747
556.416	1	736
556.586	1	744
556.756	1	742
556.926	1	730
557.096	1	720
557.266	1	726
557.436	1	739
557.606	1	734
557.776	1	701
557.946	1	739
558.116	1	708
558.286	1	734
558.456	1	729
558.626	1	685
558.796	1	718
558.966	1	705
559.136	1	734
559.306	1	719
559.476	1	708
559.646	1	732
559.816	1	718
559.986	1	704
560.155	1	682
560.325	1	701
560.495	1	703
560.665	1	705
560.835	1	697
561.005	1	683
561.175	1	700
561.345	1	693
561.515	1	702
561.685	1	710
561.855	1	663
562.025	1	682
562.195	1	697
562.365	1	715
562.535	1	680
562.705	1	708
562.875	1	680
563.045	1	686
563.215	1	685
563.385	1	668
563.555	1	691
563.725	1	679
563.895	1	690
564.064	1	663
564.234	1	668
564.404	1	684
564.574	1	685
564.744	1	670
564.914	1	668
565.084	1	676
565.254	1	653
565.424	1	668
565.594	1	675
565.764	1	658
565.934	1	687
566.104	1	689
566.274	1	672
566.444	1	693
566.614	1	674
566.783	1	678
566.953	1	662
567.123	1	674
567.293	1	656
567.463	1	678
567.633	1	663
567.803	1	666
567.973	1	655
568.143	1	689
568.313	1	648
568.483	1	659
568.653	1	671
568.823	1	654
568.993	1	671
569.162	1	657
569.332	1	655
569.502	1	646
569.672	1	677
569.842	1	677
570.012	1	676
570.182	1	656
570.352	1	654
570.522	1	655
570.692	1	676
570.862	1	683
571.031	1	677
571.201	1	677
571.371	1	674
571.541	1	661
571.711	1	679
571.881	1	655
572.051	1	664
572.221	1	668
572.391	1	666
572.561	1	669
572.731	1	661
572.900	1	658
573.070	1	652
573.240	1	651
573.410	1	635
573.580	1	661
573.750	1	662
573.920	1	651
574.090	1	632
574.260	1	642
574.430	1	645
574.599	1	653
574.769	1	658
574.939	1	653
575.109	1	662
575.279	1	623
575.449	1	642
575.619	1	649
575.789	1	656
575.959	1	653
576.128	1	650
576.298	1	624
576.468	1	637
576.638	1	624
576.808	1	633
576.978	1	610
577.148	1	647
577.318	1	637
577.487	1	637
577.657	1	651
577.827	1	643
577.997	1	622
578.167	1	621
578.337	1	619
578.507	1	608
578.677	1	613
578.846	1	616
579.016	1	610
579.186	1	632
579.356	1	622
579.526	1	629
579.696	1	619
579.866	1	616
580.036	1	624
580.205	1	590
580.375	1	600
580.545	1	595
580.715	1	641
580.885	1	617
581.055	1	634
581.225	1	604
581.394	1	615
581.564	1	600
581.734	1	608
581.904	1	598
582.074	1	615
582.244	1	595
582.414	1	601
582.583	1	609
582.753	1	615
582.923	1	604
583.093	1	602
583.263	1	609
583.433	1	604
583.603	1	597
583.772	1	611
583.942	1	605
584.112	1	623
584.282	1	604
584.452	1	613
584.622	1	583
584.791	1	605
584.961	1	586
585.131	1	611
585.301	1	606
585.471	1	580
585.641	1	611
585.811	1	620
585.980	1	597
586.150	1	592
586.320	1	599
586.490	1	612
586.660	1	594
586.830	1	592
586.999	1	591
587.169	1	601
587.339	1	601
587.509	1	607
587.679	1	593
587.849	1	584
588.018	1	603
588.188	1	593
588.358	1	600
588.528	1	601
588.698	1	609
588.867	1	592
589.037	1	580
589.207	1	595
589.377	1	596
589.547	1	564
589.717	1	564
589.886	1	580
590.056	1	570
590.226	1	596
590.396	1	576
590.566	1	576
590.735	1	569
590.905	1	581
591.075	1	565
591.245	1	558
591.415	1	572
591.585	1	556
591.754	1	545
591.924	1	554
592.094	1	566
592.264	1	559
592.434	1	549
592.603	1	539
592.773	1	545
592.943	1	552
593.113	1	556
593.283	1	513
593.452	1	540
593.622	1	552
593.792	1	534
593.962	1	537
594.132	1	539
594.301	1	519
594.471	1	536
594.641	1	541
594.811	1	527
594.981	1	526
595.150	1	529
595.320	1	530
595.490	1	520
595.660	1	543
595.829	1	517
595.999	1	512
596.169	1	519
596.339	1	524
596.509	1	505
596.678	1	528
596.848	1	506
597.018	1	506
597.188	1	499
597.358	1	494
597.527	1	486
597.697	1	499
597.867	1	503
598.037	1	502
598.206	1	485
598.376	1	498
598.546	1	486
598.716	1	492
598.885	1	508
599.055	1	493
599.225	1	463
599.395	1	472
599.565	1	485
599.734	1	483
599.904	1	467
600.074	1	486
600.244	1	492
600.413	1	478
600.583	1	470
600.753	1	489
600.923	1	471
601.092	1	466
601.262	1	463
601.432	1	464
601.602	1	458
601.771	1	456
601.941	1	450
602.111	1	468
602.281	1	455
602.451	1	481
602.620	1	452
602.790	1	478
602.960	1	451
603.130	1	474
603.299	1	458
603.469	1	467
603.639	1	469
603.809	1	450
603.978	1	479
604.148	1	459
604.318	1	472
604.487	1	472
604.657	1	453
604.827	1	456
604.997	1	471
605.166	1	476
605.336	1	472
605.506	1	476
605.676	1	459
605.845	1	456
606.015	1	473
606.185	1	467
606.355	1	470
606.524	1	468
606.694	1	449
606.864	1	476
607.034	1	472
607.203	1	458
607.373	1	465
607.543	1	478
607.712	1	470
607.882	1	456
608.052	1	466
608.222	1	453
608.391	1	478
608.561	1	472
608.731	1	486
608.901	1	472
609.070	1	454
609.240	1	479
609.410	1	469
609.579	1	475
609.749	1	462
609.919	1	472
610.089	1	459
610.258	1	463
610.428	1	458
610.598	1	450
610.767	1	457
610.937	1	453
611.107	1	475
611.277	1	469
611.446	1	450
611.616	1	442
611.786	1	469
611.955	1	453
612.125	1	443
612.295	1	452
612.465	1	430
612.634	1	457
612.804	1	452
612.974	1	442
613.143	1	460
613.313	1	434
613.483	1	409
613.652	1	433
613.822	1	439
613.992	1	432
614.162	1	427
614.331	1	418
614.501	1	442
614.671	1	442
614.840	1	432
615.010	1	401
615.180	1	412
615.349	1	421
615.519	1	408
615.689	1	410
615.858	1	409
616.028	1	422
616.198	1	409
616.368	1	411
616.537	1	414
616.707	1	422
616.877	1	396
617.046	1	404
617.216	1	399
617.386	1	386
617.555	1	393
617.725	1	389
617.895	1	388
618.064	1	379
618.234	1	378
618.404	1	377
618.573	1	380
618.743	1	382
618.913	1	381
619.082	1	379
619.252	1	371
619.422	1	368
619.591	1	396
619.761	1	368
619.931	1	375
620.100	1	357
620.270	1	364
620.440	1	363
620.609	1	352
620.779	1	366
620.949	1	359
621.118	1	366
621.288	1	352
621.458	1	362
621.627	1	345
621.797	1	349
621.967	1	346
622.136	1	358
622.306	1	343
622.476	1	360
622.645	1	366
622.815	1	337
622.985	1	341
623.154	1	333
623.324	1	328
623.494	1	366
623.663	1	332
623.833	1	342
624.002	1	319
624.172	1	335
624.342	1	337
624.511	1	322
624.681	1	332
624.851	1	325
625.020	1	322
625.190	1	328
625.360	1	323
625.529	1	324
625.699	1	321
625.869	1	315
626.038	1	334
626.208	1	320
626.377	1	335
626.547	1	310
626.717	1	328
626.886	1	328
627.056	1	330
627.226	1	326
627.395	1	313
627.565	1	323
627.735	1	337
627.904	1	314
628.074	1	318
628.243	1	317
628.413	1	306
628.583	1	312
628.752	1	304
628.922	1	317
629.091	1	309
629.261	1	305
629.431	1	309
629.600	1	314
629.770	1	301
629.940	1	314
630.109	1	323
630.279	1	320
630.448	1	310
630.618	1	324
630.788	1	304
630.957	1	309
631.127	1	310
631.297	1	318
631.466	1	316
631.636	1	304
631.805	1	287
631.975	1	296
632.145	1	295
632.314	1	289
632.484	1	294
632.653	1	307
632.823	1	303
632.993	1	302
633.162	1	301
633.332	1	303
633.501	1	306
633.671	1	302
633.841	1	313
634.010	1	294
634.180	1	306
634.349	1	290
634.519	1	303
634.689	1	305
634.858	1	283
635.028	1	298
635.197	1	288
635.367	1	286
635.537	1	279
635.706	1	282
635.876	1	295
636.045	1	299
636.215	1	297
636.384	1	280
636.554	1	280
636.724	1	303
636.893	1	283
637.063	1	281
637.232	1	274
637.402	1	282
637.572	1	269
637.741	1	288
637.911	1	278
638.080	1	282
638.250	1	284
638.419	1	274
638.589	1	285
638.759	1	278
638.928	1	261
639.098	1	276
639.267	1	273
639.437	1	269
639.606	1	280
639.776	1	267
639.946	1	259
640.115	1	269
640.285	1	271
640.454	1	270
640.624	1	260
640.793	1	244
640.963	1	251
641.132	1	271
641.302	1	256
641.472	1	260
641.641	1	245
641.811	1	251
641.980	1	252
642.150	1	240
642.319	1	270
642.489	1	252
642.659	1	253
642.828	1	246
642.998	1	254
643.167	1	250
643.337	1	253
643.506	1	243
643.676	1	251
643.845	1	239
644.015	1	251
644.184	1	222
644.354	1	220
644.524	1	244
644.693	1	249
644.863	1	249
645.032	1	240
645.202	1	243
645.371	1	241
645.541	1	227
645.710	1	246
645.880	1	241
646.049	1	216
646.219	1	239
646.388	1	253
646.558	1	231
646.728	1	231
646.897	1	241
647.067	1	240
647.236	1	238
647.406	1	221
647.575	1	232
647.745	1	227
647.914	1	214
648.084	1	224
648.253	1	228
648.423	1	238
648.592	1	222
648.762	1	230
648.931	1	203
649.101	1	221
649.270	1	227
649.440	1	222
649.610	1	227
649.779	1	238
649.949	1	234
650.118	1	201
650.288	1	241
650.457	1	218
650.627	1	240
650.796	1	214
650.966	1	226
651.135	1	221
651.305	1	216
651.474	1	215
651.644	1	222
651.813	1	209
651.983	1	193
652.152	1	218
652.322	1	210
652.491	1	215
652.661	1	208
652.830	1	209
653.000	1	220
653.169	1	216
653.339	1	207
653.508	1	219
653.678	1	213
653.847	1	199
654.017	1	201
654.186	1	196
654.356	1	201
654.525	1	214
654.695	1	207
654.864	1	198
655.034	1	216
655.203	1	213
655.373	1	200
655.542	1	200
655.712	1	201
655.881	1	208
656.051	1	208
656.220	1	202
656.390	1	204
656.559	1	203
656.729	1	200
656.898	1	198
657.068	1	202
657.237	1	196
657.406	1	191
657.576	1	189
657.745	1	204
657.915	1	200
658.084	1	199
658.254	1	188
658.423	1	191
658.593	1	172
658.762	1	197
658.932	1	203
659.101	1	198
659.271	1	196
659.440	1	177
659.610	1	182
659.779	1	183
659.949	1	181
660.118	1	177
660.288	1	188
660.457	1	171
660.626	1	184
660.796	1	192
660.965	1	188
661.135	1	202
661.304	1	188
661.474	1	183
661.643	1	171
661.813	1	177
661.982	1	179
662.152	1	179
662.321	1	169
662.491	1	182
662.660	1	183
662.829	1	180
662.999	1	166
663.168	1	164
663.338	1	167
663.507	1	185
663.677	1	181
663.846	1	181
664.016	1	174
664.185	1	156
664.354	1	163
664.524	1	151
664.693	1	178
664.863	1	162
665.032	1	178
665.202	1	159
665.371	1	164
665.541	1	157
665.710	1	179
665.879	1	156
666.049	1	163
666.218	1	170
666.388	1	163
666.557	1	156
666.727	1	145
666.896	1	145
667.065	1	162
667.235	1	149
667.404	1	158
667.574	1	171
667.743	1	147
667.913	1	151
668.082	1	151
668.251	1	145
668.421	1	143
668.590	1	155
668.760	1	150
668.929	1	159
669.099	1	129
669.268	1	147
669.437	1	137
669.607	1	150
669.776	1	140
669.946	1	147
670.115	1	144
670.285	1	154
670.454	1	155
670.623	1	158
670.793	1	136
670.962	1	139
671.132	1	129
671.301	1	137
671.470	1	146
671.640	1	129
671.809	1	137
671.979	1	144
672.148	1	141
672.317	1	138
672.487	1	127
672.656	1	138
672.826	1	136
672.995	1	137
673.164	1	144
673.334	1	134
673.503	1	140
673.673	1	153
673.842	1	139
674.011	1	129
674.181	1	139
674.350	1	131
674.520	1	134
674.689	1	137
674.858	1	115
675.028	1	152
675.197	1	132
675.367	1	136
675.536	1	143
675.705	1	142
675.875	1	131
676.044	1	138
676.214	1	144
676.383	1	142
676.552	1	128
676.722	1	131
676.891	1	138
677.060	1	144
677.230	1	140
677.399	1	117
677.569	1	140
677.738	1	129
677.907	1	129
678.077	1	140
678.246	1	140
678.416	1	146
678.585	1	126
678.754	1	125
678.924	1	133
679.093	1	131
679.262	1	123
679.432	1	125
679.601	1	131
679.771	1	135
679.940	1	129
680.109	1	127
680.279	1	134
680.448	1	130
680.617	1	121
680.787	1	140
680.956	1	129
681.125	1	140
681.295	1	125
681.464	1	125
681.634	1	142
681.803	1	129
681.972	1	127
682.142	1	119
682.311	1	120
682.480	1	129
682.650	1	122
682.819	1	126
682.988	1	121
683.158	1	130
683.327	1	141
683.496	1	123
683.666	1	127
683.835	1	111
684.004	1	127
684.174	1	132
684.343	1	122
684.512	1	138
684.682	1	125
684.851	1	125
685.021	1	128
685.190	1	121
685.359	1	112
685.529	1	120
685.698	1	133
685.867	1	123
686.037	1	126
686.206	1	136
686.375	1	123
686.545	1	115
686.714	1	113
686.883	1	119
687.053	1	120
687.222	1	117
687.391	1	127
687.561	1	130
687.730	1	109
687.899	1	141
688.069	1	120
688.238	1	134
688.407	1	126
688.577	1	129
688.746	1	127
