340.368	1	-2
340.539	1	13
340.710	1	8
340.881	1	-2
341.052	1	0
341.223	1	-5
341.394	1	7
341.565	1	-4
341.737	1	8
341.908	1	8
342.079	1	-2
342.250	1	3
342.421	1	11
342.592	1	-4
342.763	1	0
342.934	1	4
343.105	1	9
343.276	1	3
343.447	1	7
343.618	1	0
343.789	1	4
343.960	1	-15
344.131	1	7
344.302	1	12
344.473	1	-5
344.644	1	-4
344.815	1	0
344.986	1	15
345.157	1	-6
345.328	1	11
345.499	1	2
345.670	1	6
345.841	1	-1
346.012	1	1
346.183	1	8
346.354	1	6
346.526	1	0
346.697	1	11
346.868	1	13
347.039	1	-1
347.210	1	1
347.381	1	-2
347.552	1	3
347.723	1	4
347.894	1	3
348.065	1	8
348.236	1	3
348.407	1	-1
348.578	1	-2
348.749	1	7
348.920	1	7
349.091	1	3
349.262	1	4
349.433	1	5
349.604	1	-2
349.775	1	-10
349.946	1	7
350.117	1	4
350.288	1	-16
350.459	1	-10
350.630	1	10
350.801	1	1
350.972	1	9
351.143	1	2
351.314	1	1
351.485	1	10
351.656	1	10
351.827	1	-1
351.998	1	-5
352.169	1	4
352.340	1	8
352.511	1	2
352.682	1	2
352.853	1	8
353.024	1	-3
353.195	1	-3
353.366	1	8
353.537	1	-5
353.708	1	-2
353.879	1	3
354.050	1	6
354.221	1	8
354.392	1	8
354.563	1	-2
354.734	1	-12
354.905	1	7
355.076	1	2
355.247	1	-2
355.418	1	5
355.589	1	1
355.760	1	9
355.931	1	2
356.102	1	-8
356.273	1	9
356.444	1	-12
356.615	1	-5
356.785	1	4
356.956	1	9
357.127	1	8
357.298	1	-4
357.469	1	-2
357.640	1	7
357.811	1	4
357.982	1	-5
358.153	1	0
358.324	1	4
358.495	1	-2
358.666	1	9
358.837	1	11
359.008	1	16
359.179	1	-3
359.350	1	-1
359.521	1	-2
359.692	1	12
359.863	1	-2
360.034	1	5
360.205	1	4
360.376	1	1
360.547	1	-8
360.718	1	12
360.889	1	3
361.060	1	-2
361.231	1	4
361.401	1	-6
361.572	1	15
361.743	1	1
361.914	1	5
362.085	1	4
362.256	1	-1
362.427	1	14
362.598	1	10
362.769	1	7
362.940	1	-11
363.111	1	12
363.282	1	3
363.453	1	-11
363.624	1	8
363.795	1	-7
363.966	1	15
364.137	1	1
364.308	1	17
364.478	1	5
364.649	1	7
364.820	1	2
364.991	1	-1
365.162	1	-4
365.333	1	4
365.504	1	6
365.675	1	8
365.846	1	-1
366.017	1	11
366.188	1	-1
366.359	1	2
366.530	1	1
366.701	1	4
366.871	1	9
367.042	1	2
367.213	1	9
367.384	1	4
367.555	1	8
367.726	1	2
367.897	1	-4
368.068	1	-4
368.239	1	11
368.410	1	3
368.581	1	6
368.752	1	0
368.923	1	13
369.093	1	-2
369.264	1	-10
369.435	1	-5
369.606	1	15
369.777	1	-8
369.948	1	1
370.119	1	5
370.290	1	9
370.461	1	-1
370.632	1	-3
370.803	1	-4
370.973	1	-7
371.144	1	-6
371.315	1	7
371.486	1	-1
371.657	1	-10
371.828	1	4
371.999	1	-10
372.170	1	3
372.341	1	4
372.512	1	7
372.682	1	-4
372.853	1	-9
373.024	1	6
373.195	1	5
373.366	1	-4
373.537	1	3
373.708	1	7
373.879	1	2
374.050	1	7
374.220	1	-3
374.391	1	-3
374.562	1	-6
374.733	1	-7
374.904	1	2
375.075	1	-2
375.246	1	9
375.417	1	-3
375.588	1	-2
375.758	1	-16
375.929	1	-7
376.100	1	5
376.271	1	9
376.442	1	3
376.613	1	-3
376.784	1	3
376.955	1	8
377.125	1	11
377.296	1	4
377.467	1	6
377.638	1	-8
377.809	1	-4
377.980	1	-8
378.151	1	1
378.321	1	6
378.492	1	4
378.663	1	7
378.834	1	-2
379.005	1	20
379.176	1	2
379.347	1	-7
379.518	1	6
379.688	1	1
379.859	1	-1
380.030	1	-3
380.201	1	10
380.372	1	4
380.543	1	0
380.714	1	17
380.884	1	-4
381.055	1	3
381.226	1	-1
381.397	1	-1
381.568	1	1
381.739	1	9
381.910	1	11
382.080	1	-5
382.251	1	-2
382.422	1	1
382.593	1	5
382.764	1	-2
382.935	1	-1
383.105	1	-1
383.276	1	1
383.447	1	0
383.618	1	5
383.789	1	6
383.960	1	7
384.130	1	9
384.301	1	1
384.472	1	-1
384.643	1	3
384.814	1	-2
384.985	1	7
385.156	1	-7
385.326	1	4
385.497	1	-2
385.668	1	2
385.839	1	1
386.010	1	-2
386.180	1	3
386.351	1	-5
386.522	1	0
386.693	1	-2
386.864	1	14
387.035	1	-4
387.205	1	5
387.376	1	-1
387.547	1	2
387.718	1	-5
387.889	1	-7
388.060	1	6
388.230	1	-2
388.401	1	-1
388.572	1	-4
388.743	1	7
388.914	1	-2
389.084	1	-6
389.255	1	1
389.426	1	5
389.597	1	-15
389.768	1	-10
389.939	1	4
390.109	1	3
390.280	1	3
390.451	1	0
390.622	1	5
390.793	1	-2
390.963	1	5
391.134	1	3
391.305	1	8
391.476	1	1
391.647	1	9
391.817	1	8
391.988	1	7
392.159	1	4
392.330	1	1
392.501	1	-7
392.671	1	-8
392.842	1	6
393.013	1	1
393.184	1	1
393.355	1	0
393.525	1	-2
393.696	1	-5
393.867	1	1
394.038	1	4
394.208	1	-5
394.379	1	10
394.550	1	5
394.721	1	-3
394.892	1	5
395.062	1	-3
395.233	1	-2
395.404	1	-8
395.575	1	-2
395.746	1	5
395.916	1	2
396.087	1	3
396.258	1	-3
396.429	1	-3
396.599	1	8
396.770	1	8
396.941	1	7
397.112	1	0
397.283	1	1
397.453	1	6
397.624	1	-6
397.795	1	-7
397.966	1	7
398.136	1	7
398.307	1	5
398.478	1	5
398.649	1	5
398.819	1	-13
398.990	1	-1
399.161	1	6
399.332	1	7
399.503	1	7
399.673	1	2
399.844	1	-1
400.015	1	4
400.186	1	-6
400.356	1	9
400.527	1	11
400.698	1	0
400.869	1	-10
401.039	1	7
401.210	1	-4
401.381	1	7
401.552	1	3
401.722	1	3
401.893	1	-11
402.064	1	-13
402.235	1	0
402.405	1	5
402.576	1	-3
402.747	1	5
402.918	1	0
403.088	1	3
403.259	1	-5
403.430	1	11
403.601	1	1
403.771	1	2
403.942	1	0
404.113	1	14
404.284	1	-4
404.454	1	4
404.625	1	16
404.796	1	5
404.967	1	-2
405.137	1	8
405.308	1	0
405.479	1	-2
405.649	1	-1
405.820	1	7
405.991	1	8
406.162	1	0
406.332	1	3
406.503	1	3
406.674	1	4
406.845	1	-7
407.015	1	11
407.186	1	6
407.357	1	-4
407.527	1	-5
407.698	1	3
407.869	1	3
408.040	1	4
408.210	1	-3
408.381	1	9
408.552	1	-3
408.722	1	-3
408.893	1	2
409.064	1	12
409.235	1	-4
409.405	1	6
409.576	1	11
409.747	1	2
409.917	1	0
410.088	1	8
410.259	1	2
410.430	1	7
410.600	1	2
410.771	1	-12
410.942	1	10
411.112	1	6
411.283	1	-12
411.454	1	6
411.625	1	2
411.795	1	-1
411.966	1	6
412.137	1	2
412.307	1	-3
412.478	1	-3
412.649	1	10
412.819	1	2
412.990	1	-5
413.161	1	8
413.332	1	-6
413.502	1	7
413.673	1	-1
413.844	1	2
414.014	1	5
414.185	1	7
414.356	1	9
414.526	1	-2
414.697	1	1
414.868	1	0
415.038	1	5
415.209	1	-2
415.380	1	5
415.550	1	-1
415.721	1	3
415.892	1	4
416.063	1	-7
416.233	1	7
416.404	1	9
416.575	1	4
416.745	1	1
416.916	1	-9
417.087	1	-5
417.257	1	2
417.428	1	0
417.599	1	6
417.769	1	3
417.940	1	11
418.111	1	2
418.281	1	-1
418.452	1	-2
418.623	1	0
418.793	1	-7
418.964	1	-6
419.135	1	1
419.305	1	1
419.476	1	-9
419.647	1	8
419.817	1	6
419.988	1	5
420.159	1	1
420.329	1	4
420.500	1	2
420.671	1	-6
420.841	1	4
421.012	1	1
421.183	1	8
421.353	1	-4
421.524	1	3
421.695	1	7
421.865	1	-2
422.036	1	-4
422.206	1	-2
422.377	1	-5
422.548	1	9
422.718	1	1
422.889	1	-5
423.060	1	10
423.230	1	-4
423.401	1	5
423.572	1	-13
423.742	1	-5
423.913	1	5
424.084	1	-1
424.254	1	12
424.425	1	2
424.595	1	10
424.766	1	3
424.937	1	7
425.107	1	-4
425.278	1	-5
425.449	1	-7
425.619	1	3
425.790	1	8
425.961	1	6
426.131	1	14
426.302	1	6
426.472	1	-7
426.643	1	-2
426.814	1	2
426.984	1	1
427.155	1	-5
427.326	1	-8
427.496	1	3
427.667	1	2
427.837	1	3
428.008	1	-5
428.179	1	-1
428.349	1	6
428.520	1	5
428.691	1	6
428.861	1	3
429.032	1	-1
429.202	1	2
429.373	1	5
429.544	1	4
429.714	1	-4
429.885	1	1
430.055	1	-2
430.226	1	-2
430.397	1	-15
430.567	1	0
430.738	1	-4
430.909	1	3
431.079	1	13
431.250	1	7
431.420	1	7
431.591	1	-11
431.762	1	4
431.932	1	-5
432.103	1	-7
432.273	1	0
432.444	1	0
432.615	1	6
432.785	1	4
432.956	1	-10
433.126	1	8
433.297	1	7
433.468	1	9
433.638	1	2
433.809	1	0
433.979	1	1
434.150	1	-5
434.320	1	-2
434.491	1	1
434.662	1	1
434.832	1	2
435.003	1	15
435.173	1	10
435.344	1	7
435.515	1	-4
435.685	1	-17
435.856	1	0
436.026	1	3
436.197	1	8
436.368	1	2
436.538	1	1
436.709	1	-2
436.879	1	0
437.050	1	6
437.220	1	-10
437.391	1	11
437.562	1	7
437.732	1	2
437.903	1	9
438.073	1	14
438.244	1	5
438.414	1	-11
438.585	1	3
438.756	1	-4
438.926	1	-6
439.097	1	7
439.267	1	3
439.438	1	6
439.608	1	7
439.779	1	7
439.949	1	5
440.120	1	-6
440.291	1	6
440.461	1	15
440.632	1	6
440.802	1	-10
440.973	1	5
441.143	1	-2
441.314	1	4
441.485	1	13
441.655	1	6
441.826	1	-4
441.996	1	4
442.167	1	6
442.337	1	2
442.508	1	-12
442.678	1	-8
442.849	1	0
443.019	1	4
443.190	1	-8
443.361	1	-8
443.531	1	3
443.702	1	1
443.872	1	8
444.043	1	2
444.213	1	1
444.384	1	-8
444.554	1	-1
444.725	1	4
444.895	1	-4
445.066	1	-8
445.237	1	-3
445.407	1	-6
445.578	1	-5
445.748	1	14
445.919	1	2
446.089	1	3
446.260	1	4
446.430	1	2
446.601	1	6
446.771	1	-3
446.942	1	-6
447.112	1	-4
447.283	1	5
447.453	1	-6
447.624	1	5
447.794	1	5
447.965	1	-1
448.135	1	9
448.306	1	3
448.477	1	6
448.647	1	10
448.818	1	-4
448.988	1	0
449.159	1	9
449.329	1	-2
449.500	1	1
449.670	1	1
449.841	1	-8
450.011	1	-6
450.182	1	17
450.352	1	7
450.523	1	6
450.693	1	4
450.864	1	4
451.034	1	-7
451.205	1	-4
451.375	1	7
451.546	1	11
451.716	1	-13
451.887	1	-7
452.057	1	11
452.228	1	-2
452.398	1	-6
452.569	1	11
452.739	1	4
452.910	1	-1
453.080	1	-5
453.251	1	15
453.421	1	4
453.592	1	5
453.762	1	1
453.933	1	-4
454.103	1	-6
454.274	1	0
454.444	1	9
454.615	1	3
454.785	1	11
454.956	1	-8
455.126	1	-11
455.297	1	5
455.467	1	2
455.638	1	8
455.808	1	10
455.979	1	5
456.149	1	-7
456.320	1	2
456.490	1	6
456.661	1	-1
456.831	1	0
457.001	1	-1
457.172	1	-3
457.342	1	7
457.513	1	-10
457.683	1	-2
457.854	1	-5
458.024	1	8
458.195	1	-9
458.365	1	0
458.536	1	9
458.706	1	2
458.877	1	17
459.047	1	-10
459.218	1	6
459.388	1	-8
459.559	1	1
459.729	1	-2
459.899	1	-2
460.070	1	2
460.240	1	9
460.411	1	3
460.581	1	4
460.752	1	3
460.922	1	4
461.093	1	2
461.263	1	5
461.434	1	4
461.604	1	-13
461.775	1	-4
461.945	1	9
462.115	1	1
462.286	1	3
462.456	1	-2
462.627	1	-6
462.797	1	1
462.968	1	-3
463.138	1	0
463.309	1	11
463.479	1	10
463.649	1	-3
463.820	1	-6
463.990	1	0
464.161	1	-9
464.331	1	7
464.502	1	8
464.672	1	13
464.843	1	1
465.013	1	-7
465.183	1	7
465.354	1	-4
465.524	1	4
465.695	1	7
465.865	1	3
466.036	1	-1
466.206	1	16
466.376	1	3
466.547	1	-8
466.717	1	3
466.888	1	-2
467.058	1	1
467.229	1	-2
467.399	1	-1
467.569	1	-2
467.740	1	15
467.910	1	-1
468.081	1	11
468.251	1	11
468.422	1	6
468.592	1	6
468.762	1	-4
468.933	1	4
469.103	1	-4
469.274	1	5
469.444	1	-5
469.614	1	7
469.785	1	14
469.955	1	-1
470.126	1	-8
470.296	1	-7
470.467	1	8
470.637	1	4
470.807	1	-4
470.978	1	-2
471.148	1	4
471.319	1	0
471.489	1	-9
471.659	1	-6
471.830	1	-6
472.000	1	6
472.171	1	1
472.341	1	-7
472.511	1	6
472.682	1	10
472.852	1	5
473.023	1	1
473.193	1	7
473.363	1	12
473.534	1	0
473.704	1	-8
473.875	1	9
474.045	1	1
474.215	1	-5
474.386	1	-5
474.556	1	-2
474.727	1	4
474.897	1	-5
475.067	1	12
475.238	1	14
475.408	1	2
475.578	1	-2
475.749	1	-2
475.919	1	-3
476.090	1	6
476.260	1	-6
476.430	1	6
476.601	1	8
476.771	1	-14
476.942	1	16
477.112	1	9
477.282	1	7
477.453	1	1
477.623	1	-4
477.793	1	-4
477.964	1	-10
478.134	1	11
478.305	1	8
478.475	1	-4
478.645	1	3
478.816	1	8
478.986	1	3
479.156	1	-3
479.327	1	0
479.497	1	3
479.667	1	3
479.838	1	0
480.008	1	-4
480.179	1	-3
480.349	1	3
480.519	1	-6
480.690	1	7
480.860	1	7
481.030	1	-6
481.201	1	8
481.371	1	15
481.541	1	-6
481.712	1	7
481.882	1	3
482.053	1	6
482.223	1	-2
482.393	1	5
482.564	1	-13
482.734	1	2
482.904	1	1
483.075	1	15
483.245	1	-4
483.415	1	0
483.586	1	1
483.756	1	11
483.926	1	3
484.097	1	-3
484.267	1	7
484.437	1	-11
484.608	1	12
484.778	1	14
484.948	1	11
485.119	1	2
485.289	1	3
485.459	1	-8
485.630	1	6
485.800	1	11
485.970	1	8
486.141	1	0
486.311	1	11
486.481	1	-4
486.652	1	7
486.822	1	18
486.992	1	6
487.163	1	3
487.333	1	-6
487.503	1	-1
487.674	1	6
487.844	1	-2
488.014	1	9
488.185	1	2
488.355	1	8
488.525	1	6
488.696	1	2
488.866	1	2
489.036	1	2
489.207	1	-3
489.377	1	-3
489.547	1	-4
489.718	1	8
489.888	1	13
490.058	1	8
490.228	1	-9
490.399	1	3
490.569	1	0
490.739	1	8
490.910	1	-7
491.080	1	-4
491.250	1	14
491.421	1	8
491.591	1	1
491.761	1	0
491.932	1	3
492.102	1	7
492.272	1	3
492.442	1	0
492.613	1	3
492.783	1	-7
492.953	1	0
493.124	1	-4
493.294	1	3
493.464	1	5
493.635	1	6
493.805	1	0
493.975	1	12
494.145	1	2
494.316	1	3
494.486	1	14
494.656	1	6
494.827	1	-4
494.997	1	-5
495.167	1	6
495.337	1	-3
495.508	1	-4
495.678	1	-3
495.848	1	8
496.019	1	-4
496.189	1	4
496.359	1	4
496.529	1	11
496.700	1	8
496.870	1	-3
497.040	1	7
497.211	1	-8
497.381	1	-3
497.551	1	7
497.721	1	5
497.892	1	1
498.062	1	-5
498.232	1	4
498.403	1	-7
498.573	1	3
498.743	1	6
498.913	1	8
499.084	1	13
499.254	1	6
499.424	1	-5
499.594	1	-3
499.765	1	-6
499.935	1	4
500.105	1	-1
500.275	1	0
500.446	1	3
500.616	1	2
500.786	1	-1
500.956	1	-7
501.127	1	1
501.297	1	-1
501.467	1	-1
501.638	1	8
501.808	1	3
501.978	1	3
502.148	1	-1
502.319	1	0
502.489	1	-1
502.659	1	0
502.829	1	-3
503.000	1	-2
503.170	1	-6
503.340	1	1
503.510	1	10
503.681	1	-8
503.851	1	2
504.021	1	-5
504.191	1	3
504.362	1	0
504.532	1	4
504.702	1	4
504.872	1	0
505.042	1	3
505.213	1	4
505.383	1	9
505.553	1	9
505.723	1	12
505.894	1	1
506.064	1	7
506.234	1	0
506.404	1	-3
506.575	1	-2
506.745	1	0
506.915	1	0
507.085	1	1
507.256	1	4
507.426	1	5
507.596	1	5
507.766	1	2
507.936	1	-3
508.107	1	3
508.277	1	3
508.447	1	3
508.617	1	0
508.788	1	-8
508.958	1	7
509.128	1	3
509.298	1	-9
509.468	1	3
509.639	1	6
509.809	1	-4
509.979	1	-6
510.149	1	6
510.319	1	12
510.490	1	5
510.660	1	-9
510.830	1	16
511.000	1	-1
511.171	1	5
511.341	1	-7
511.511	1	-7
511.681	1	3
511.851	1	4
512.022	1	8
512.192	1	-15
512.362	1	3
512.532	1	-5
512.702	1	7
512.873	1	0
513.043	1	4
513.213	1	8
513.383	1	10
513.553	1	2
513.724	1	-3
513.894	1	-1
514.064	1	1
514.234	1	11
514.404	1	14
514.575	1	-8
514.745	1	2
514.915	1	1
515.085	1	2
515.255	1	4
515.425	1	2
515.596	1	1
515.766	1	9
515.936	1	20
516.106	1	-2
516.276	1	5
516.447	1	-6
516.617	1	3
516.787	1	1
516.957	1	-3
517.127	1	-1
517.297	1	-5
517.468	1	-1
517.638	1	4
517.808	1	1
517.978	1	-5
518.148	1	9
518.319	1	-6
518.489	1	9
518.659	1	-6
518.829	1	5
518.999	1	-6
519.169	1	6
519.340	1	-6
519.510	1	-12
519.680	1	6
519.850	1	9
520.020	1	5
520.190	1	15
520.361	1	0
520.531	1	5
520.701	1	-9
520.871	1	-1
521.041	1	12
521.211	1	4
521.382	1	4
521.552	1	1
521.722	1	8
521.892	1	11
522.062	1	5
522.232	1	-6
522.402	1	-5
522.573	1	-3
522.743	1	7
522.913	1	8
523.083	1	-1
523.253	1	-5
523.423	1	2
523.593	1	5
523.764	1	-1
523.934	1	-3
524.104	1	-2
524.274	1	-13
524.444	1	4
524.614	1	11
524.784	1	12
524.955	1	-1
525.125	1	0
525.295	1	5
525.465	1	10
525.635	1	-14
525.805	1	1
525.975	1	7
526.146	1	-8
526.316	1	-1
526.486	1	4
526.656	1	4
526.826	1	5
526.996	1	1
527.166	1	5
527.337	1	7
527.507	1	10
527.677	1	1
527.847	1	3
528.017	1	3
528.187	1	9
528.357	1	7
528.527	1	-1
528.698	1	-2
528.868	1	-9
529.038	1	5
529.208	1	-7
529.378	1	5
529.548	1	-7
529.718	1	3
529.888	1	13
530.058	1	-7
530.229	1	3
530.399	1	8
530.569	1	2
530.739	1	-2
530.909	1	2
531.079	1	10
531.249	1	4
531.419	1	10
531.589	1	3
531.760	1	-2
531.930	1	2
532.100	1	4
532.270	1	3
532.440	1	11
532.610	1	-1
532.780	1	-6
532.950	1	-1
533.120	1	7
533.290	1	8
533.461	1	0
533.631	1	4
533.801	1	10
533.971	1	0
534.141	1	0
534.311	1	7
534.481	1	1
534.651	1	8
534.821	1	8
534.991	1	7
535.162	1	7
535.332	1	3
535.502	1	7
535.672	1	8
535.842	1	0
536.012	1	0
536.182	1	-1
536.352	1	0
536.522	1	0
536.692	1	1
536.862	1	0
537.032	1	2
537.203	1	-3
537.373	1	1
537.543	1	7
537.713	1	5
537.883	1	-6
538.053	1	-16
538.223	1	7
538.393	1	16
538.563	1	3
538.733	1	0
538.903	1	7
539.073	1	1
539.243	1	-4
539.413	1	-4
539.584	1	-4
539.754	1	0
539.924	1	1
540.094	1	5
540.264	1	-2
540.434	1	1
540.604	1	3
540.774	1	10
540.944	1	3
541.114	1	2
541.284	1	-3
541.454	1	9
541.624	1	6
541.794	1	4
541.964	1	1
542.134	1	4
542.305	1	-1
542.475	1	-2
542.645	1	-2
542.815	1	-2
542.985	1	15
543.155	1	1
543.325	1	-3
543.495	1	8
543.665	1	5
543.835	1	1
544.005	1	7
544.175	1	2
544.345	1	-5
544.515	1	-2
544.685	1	3
544.855	1	-4
545.025	1	-5
545.195	1	7
545.365	1	13
545.535	1	8
545.705	1	4
545.875	1	0
546.045	1	10
546.216	1	6
546.386	1	1
546.556	1	-10
546.726	1	-3
546.896	1	-8
547.066	1	-5
547.236	1	-8
547.406	1	-11
547.576	1	3
547.746	1	5
547.916	1	1
548.086	1	-5
548.256	1	-1
548.426	1	10
548.596	1	0
548.766	1	3
548.936	1	2
549.106	1	-6
549.276	1	-3
549.446	1	-4
549.616	1	1
549.786	1	3
549.956	1	-14
550.126	1	7
550.296	1	6
550.466	1	3
550.636	1	-5
550.806	1	-4
550.976	1	-6
551.146	1	1
551.316	1	4
551.486	1	-2
551.656	1	5
551.826	1	-2
551.996	1	3
552.166	1	6
552.336	1	-4
552.506	1	-4
552.676	1	-2
552.846	1	0
553.016	1	10
553.186	1	4
553.356	1	12
553.526	1	-1
553.696	1	-3
553.866	1	-6
554.036	1	3
554.206	1	-7
554.376	1	4
554.546	1	3
554.716	1	-6
554.886	1	8
555.056	1	0
555.226	1	4
555.396	1	-7
555.566	1	-8
555.736	1	3
555.906	1	-9
556.076	1	-6
556.246	1	5
556.416	1	-2
556.586	1	-1
556.756	1	11
556.926	1	0
557.096	1	-4
557.266	1	-3
557.436	1	-1
557.606	1	5
557.776	1	-5
557.946	1	3
558.116	1	0
558.286	1	6
558.456	1	-5
558.626	1	-5
558.796	1	10
558.966	1	-11
559.136	1	-8
559.306	1	2
559.476	1	-4
559.646	1	-1
559.816	1	6
559.986	1	6
560.155	1	-5
560.325	1	-9
560.495	1	3
560.665	1	11
560.835	1	11
561.005	1	-14
561.175	1	-1
561.345	1	5
561.515	1	2
561.685	1	5
561.855	1	-4
562.025	1	-6
562.195	1	-12
562.365	1	7
562.535	1	-1
562.705	1	-2
562.875	1	7
563.045	1	-8
563.215	1	9
563.385	1	4
563.555	1	9
563.725	1	-10
563.895	1	2
564.064	1	11
564.234	1	2
564.404	1	0
564.574	1	7
564.744	1	8
564.914	1	12
565.084	1	-9
565.254	1	-3
565.424	1	4
565.594	1	3
565.764	1	5
565.934	1	-4
566.104	1	6
566.274	1	-3
566.444	1	10
566.614	1	4
566.783	1	13
566.953	1	-1
567.123	1	9
567.293	1	10
567.463	1	0
567.633	1	-13
567.803	1	10
567.973	1	3
568.143	1	7
568.313	1	-9
568.483	1	-6
568.653	1	-4
568.823	1	-3
568.993	1	4
569.162	1	5
569.332	1	-1
569.502	1	0
569.672	1	-8
569.842	1	4
570.012	1	-9
570.182	1	-1
570.352	1	1
570.522	1	-11
570.692	1	8
570.862	1	6
571.031	1	8
571.201	1	2
571.371	1	-3
571.541	1	-12
571.711	1	1
571.881	1	1
572.051	1	4
572.221	1	3
572.391	1	8
572.561	1	6
572.731	1	3
572.900	1	3
573.070	1	1
573.240	1	-1
573.410	1	-11
573.580	1	-7
573.750	1	-7
573.920	1	7
574.090	1	-6
574.260	1	7
574.430	1	2
574.599	1	10
574.769	1	-10
574.939	1	11
575.109	1	5
575.279	1	-14
575.449	1	1
575.619	1	7
575.789	1	7
575.959	1	0
576.128	1	0
576.298	1	0
576.468	1	-1
576.638	1	-17
576.808	1	-3
576.978	1	-8
577.148	1	-1
577.318	1	4
577.487	1	4
577.657	1	19
577.827	1	-7
577.997	1	6
578.167	1	-4
578.337	1	-5
578.507	1	-8
578.677	1	7
578.846	1	-5
579.016	1	4
579.186	1	8
579.356	1	13
579.526	1	4
579.696	1	-7
579.866	1	3
580.036	1	-2
580.205	1	-2
580.375	1	-5
580.545	1	-3
580.715	1	-3
580.885	1	10
581.055	1	3
581.225	1	-1
581.394	1	11
581.564	1	-3
581.734	1	7
581.904	1	5
582.074	1	-5
582.244	1	-10
582.414	1	-2
582.583	1	19
582.753	1	-1
582.923	1	2
583.093	1	-4
583.263	1	4
583.433	1	5
583.603	1	7
583.772	1	6
583.942	1	0
584.112	1	4
584.282	1	-5
584.452	1	10
584.622	1	-5
584.791	1	0
584.961	1	-3
585.131	1	12
585.301	1	2
585.471	1	1
585.641	1	10
585.811	1	-3
585.980	1	2
586.150	1	2
586.320	1	-1
586.490	1	10
586.660	1	0
586.830	1	-2
586.999	1	-10
587.169	1	4
587.339	1	-4
587.509	1	7
587.679	1	-2
587.849	1	11
588.018	1	-3
588.188	1	9
588.358	1	0
588.528	1	16
588.698	1	-5
588.867	1	9
589.037	1	-4
589.207	1	-5
589.377	1	0
589.547	1	5
589.717	1	-6
589.886	1	7
590.056	1	0
590.226	1	11
590.396	1	-4
590.566	1	0
590.735	1	5
590.905	1	8
591.075	1	4
591.245	1	-4
591.415	1	4
591.585	1	2
591.754	1	4
591.924	1	5
592.094	1	6
592.264	1	2
592.434	1	2
592.603	1	5
592.773	1	6
592.943	1	1
593.113	1	0
593.283	1	-6
593.452	1	6
593.622	1	9
593.792	1	-11
593.962	1	8
594.132	1	-8
594.301	1	-2
594.471	1	-7
594.641	1	4
594.811	1	-1
594.981	1	-9
595.150	1	-2
595.320	1	7
595.490	1	8
595.660	1	3
595.829	1	-1
595.999	1	7
596.169	1	0
596.339	1	10
596.509	1	0
596.678	1	5
596.848	1	6
597.018	1	6
597.188	1	3
597.358	1	-2
597.527	1	4
597.697	1	-3
597.867	1	3
598.037	1	1
598.206	1	-2
598.376	1	3
598.546	1	2
598.716	1	4
598.885	1	9
599.055	1	1
599.225	1	6
599.395	1	-3
599.565	1	-10
599.734	1	-8
599.904	1	0
600.074	1	6
600.244	1	-4
600.413	1	8
600.583	1	0
600.753	1	2
600.923	1	5
601.092	1	9
601.262	1	-4
601.432	1	-3
601.602	1	-6
601.771	1	11
601.941	1	0
602.111	1	3
602.281	1	9
602.451	1	1
602.620	1	7
602.790	1	-12
602.960	1	1
603.130	1	14
603.299	1	3
603.469	1	-5
603.639	1	-9
603.809	1	3
603.978	1	-3
604.148	1	11
604.318	1	-10
604.487	1	14
604.657	1	-9
604.827	1	2
604.997	1	11
605.166	1	9
605.336	1	6
605.506	1	10
605.676	1	-5
605.845	1	-5
606.015	1	1
606.185	1	7
606.355	1	9
606.524	1	2
606.694	1	-4
606.864	1	14
607.034	1	3
607.203	1	0
607.373	1	-7
607.543	1	3
607.712	1	4
607.882	1	13
608.052	1	2
608.222	1	-5
608.391	1	3
608.561	1	4
608.731	1	1
608.901	1	-3
609.070	1	2
609.240	1	-6
609.410	1	8
609.579	1	4
609.749	1	5
609.919	1	9
610.089	1	6
610.258	1	4
610.428	1	10
610.598	1	0
610.767	1	-6
610.937	1	3
611.107	1	11
611.277	1	3
611.446	1	0
611.616	1	-5
611.786	1	7
611.955	1	-5
612.125	1	-1
612.295	1	-2
612.465	1	-10
612.634	1	-1
612.804	1	7
612.974	1	10
613.143	1	9
613.313	1	10
613.483	1	-2
613.652	1	-10
613.822	1	1
613.992	1	-7
614.162	1	4
614.331	1	8
614.501	1	16
614.671	1	2
614.840	1	0
615.010	1	-1
615.180	1	1
615.349	1	11
615.519	1	4
615.689	1	5
615.858	1	-6
616.028	1	9
616.198	1	9
616.368	1	-2
616.537	1	2
616.707	1	14
616.877	1	1
617.046	1	14
617.216	1	7
617.386	1	4
617.555	1	-3
617.725	1	-4
617.895	1	-2
618.064	1	11
618.234	1	10
618.404	1	-4
618.573	1	9
618.743	1	-1
618.913	1	6
619.082	1	-4
619.252	1	-3
619.422	1	4
619.591	1	3
619.761	1	8
619.931	1	-1
620.100	1	9
620.270	1	1
620.440	1	13
620.609	1	-11
620.779	1	4
620.949	1	-2
621.118	1	3
621.288	1	-5
621.458	1	8
621.627	1	9
621.797	1	1
621.967	1	9
622.136	1	3
622.306	1	3
622.476	1	3
622.645	1	11
622.815	1	-1
622.985	1	16
623.154	1	3
623.324	1	-4
623.494	1	14
623.663	1	-6
623.833	1	7
624.002	1	9
624.172	1	-2
624.342	1	-4
624.511	1	10
624.681	1	9
624.851	1	-12
625.020	1	10
625.190	1	-4
625.360	1	-1
625.529	1	-3
625.699	1	-1
625.869	1	4
626.038	1	8
626.208	1	-7
626.377	1	6
626.547	1	11
626.717	1	16
626.886	1	-2
627.056	1	3
627.226	1	-4
627.395	1	-8
627.565	1	5
627.735	1	11
627.904	1	1
628.074	1	7
628.243	1	9
628.413	1	-4
628.583	1	-11
628.752	1	0
628.922	1	-4
629.091	1	-8
629.261	1	-9
629.431	1	2
629.600	1	11
629.770	1	0
629.940	1	10
630.109	1	-3
630.279	1	5
630.448	1	8
630.618	1	-8
630.788	1	3
630.957	1	7
631.127	1	-4
631.297	1	0
631.466	1	7
631.636	1	5
631.805	1	8
631.975	1	3
632.145	1	-3
632.314	1	3
632.484	1	-3
632.653	1	0
632.823	1	-1
632.993	1	9
633.162	1	10
633.332	1	-9
633.501	1	19
633.671	1	1
633.841	1	11
634.010	1	-5
634.180	1	1
634.349	1	7
634.519	1	4
634.689	1	9
634.858	1	11
635.028	1	5
635.197	1	-1
635.367	1	-1
635.537	1	1
635.706	1	3
635.876	1	8
636.045	1	11
636.215	1	2
636.384	1	1
636.554	1	7
636.724	1	12
636.893	1	-1
637.063	1	-3
637.232	1	-3
637.402	1	-4
637.572	1	-10
637.741	1	3
637.911	1	7
638.080	1	10
638.250	1	8
638.419	1	-3
638.589	1	4
638.759	1	-3
638.928	1	-9
639.098	1	-7
639.267	1	5
639.437	1	5
639.606	1	-2
639.776	1	6
639.946	1	8
640.115	1	1
640.285	1	5
640.454	1	5
640.624	1	-6
640.793	1	-7
640.963	1	-8
641.132	1	8
641.302	1	8
641.472	1	-1
641.641	1	0
641.811	1	-1
641.980	1	1
642.150	1	-8
642.319	1	9
642.489	1	1
642.659	1	0
642.828	1	-3
642.998	1	6
643.167	1	12
643.337	1	4
643.506	1	6
643.676	1	-6
643.845	1	2
644.015	1	4
644.184	1	-2
644.354	1	-8
644.524	1	-8
644.693	1	2
644.863	1	8
645.032	1	3
645.202	1	15
645.371	1	14
645.541	1	3
645.710	1	3
645.880	1	5
646.049	1	-13
646.219	1	-3
646.388	1	-2
646.558	1	8
646.728	1	2
646.897	1	0
647.067	1	5
647.236	1	-1
647.406	1	-1
647.575	1	-12
647.745	1	7
647.914	1	-6
648.084	1	-5
648.253	1	2
648.423	1	11
648.592	1	1
648.762	1	3
648.931	1	-2
649.101	1	0
649.270	1	-4
649.440	1	7
649.610	1	0
649.779	1	8
649.949	1	-2
650.118	1	2
650.288	1	12
650.457	1	-4
650.627	1	-1
650.796	1	3
650.966	1	-4
651.135	1	14
651.305	1	-3
651.474	1	0
651.644	1	-5
651.813	1	8
651.983	1	-7
652.152	1	-5
652.322	1	-4
652.491	1	4
652.661	1	-2
652.830	1	0
653.000	1	-4
653.169	1	-1
653.339	1	2
653.508	1	4
653.678	1	0
653.847	1	-2
654.017	1	0
654.186	1	-8
654.356	1	2
654.525	1	-2
654.695	1	2
654.864	1	5
655.034	1	-4
655.203	1	8
655.373	1	5
655.542	1	4
655.712	1	0
655.881	1	6
656.051	1	-2
656.220	1	-7
656.390	1	-3
656.559	1	1
656.729	1	6
656.898	1	-5
657.068	1	-2
657.237	1	13
657.406	1	-2
657.576	1	-4
657.745	1	-7
657.915	1	9
658.084	1	1
658.254	1	-2
658.423	1	5
658.593	1	4
658.762	1	19
658.932	1	14
659.101	1	4
659.271	1	3
659.440	1	-2
659.610	1	-5
659.779	1	11
659.949	1	5
660.118	1	-15
660.288	1	3
660.457	1	-1
660.626	1	-2
660.796	1	10
660.965	1	-4
661.135	1	11
661.304	1	5
661.474	1	4
661.643	1	3
661.813	1	-7
661.982	1	-2
662.152	1	3
662.321	1	-6
662.491	1	14
662.660	1	1
662.829	1	14
662.999	1	-7
663.168	1	-8
663.338	1	-3
663.507	1	5
663.677	1	-1
663.846	1	0
664.016	1	3
664.185	1	0
664.354	1	11
664.524	1	2
664.693	1	9
664.863	1	-8
665.032	1	-3
665.202	1	-6
665.371	1	-3
665.541	1	-3
665.710	1	8
665.879	1	6
666.049	1	10
666.218	1	4
666.388	1	2
666.557	1	3
666.727	1	-6
666.896	1	3
667.065	1	8
667.235	1	4
667.404	1	2
667.574	1	12
667.743	1	7
667.913	1	5
668.082	1	8
668.251	1	-1
668.421	1	-4
668.590	1	4
668.760	1	0
668.929	1	5
669.099	1	-11
669.268	1	-6
669.437	1	-5
669.607	1	-1
669.776	1	1
669.946	1	7
670.115	1	12
670.285	1	6
670.454	1	2
670.623	1	16
670.793	1	4
670.962	1	-4
671.132	1	2
671.301	1	2
671.470	1	9
671.640	1	-2
671.809	1	0
671.979	1	1
672.148	1	-3
672.317	1	-7
672.487	1	-11
672.656	1	-4
672.826	1	8
672.995	1	6
673.164	1	9
673.334	1	-9
673.503	1	-3
673.673	1	7
673.842	1	-3
674.011	1	3
674.181	1	12
674.350	1	-4
674.520	1	0
674.689	1	-3
674.858	1	11
675.028	1	13
675.197	1	1
675.367	1	-6
675.536	1	10
675.705	1	3
675.875	1	-1
676.044	1	-2
676.214	1	8
676.383	1	6
676.552	1	7
676.722	1	1
676.891	1	10
677.060	1	4
677.230	1	7
677.399	1	1
677.569	1	-2
677.738	1	-11
677.907	1	8
678.077	1	8
678.246	1	0
678.416	1	0
678.585	1	1
678.754	1	4
678.924	1	5
679.093	1	4
679.262	1	1
679.432	1	1
679.601	1	6
679.771	1	-1
679.940	1	-1
680.109	1	4
680.279	1	7
680.448	1	10
680.617	1	-8
680.787	1	11
680.956	1	-5
681.125	1	8
681.295	1	-4
681.464	1	-4
681.634	1	7
681.803	1	-6
681.972	1	-1
682.142	1	-6
682.311	1	-4
682.480	1	15
682.650	1	-2
682.819	1	7
682.988	1	-4
683.158	1	3
683.327	1	0
683.496	1	7
683.666	1	4
683.835	1	-4
684.004	1	1
684.174	1	-2
684.343	1	2
684.512	1	2
684.682	1	6
684.851	1	-8
685.021	1	4
685.190	1	-5
685.359	1	-2
685.529	1	-3
685.698	1	3
685.867	1	-2
686.037	1	7
686.206	1	-4
686.375	1	3
686.545	1	-1
686.714	1	-8
686.883	1	-4
687.053	1	4
687.222	1	1
687.391	1	9
687.561	1	9
687.730	1	1
687.899	1	-1
688.069	1	-4
688.238	1	4
688.407	1	7
688.577	1	8
688.746	1	9
