340.368	1	10
340.539	1	10
340.710	1	8
340.881	1	2
341.052	1	-2
341.223	1	-3
341.394	1	2
341.565	1	-5
341.737	1	3
341.908	1	15
342.079	1	5
342.250	1	3
342.421	1	12
342.592	1	1
342.763	1	8
342.934	1	8
343.105	1	7
343.276	1	6
343.447	1	6
343.618	1	-1
343.789	1	6
343.960	1	-11
344.131	1	1
344.302	1	11
344.473	1	4
344.644	1	9
344.815	1	-6
344.986	1	11
345.157	1	-9
345.328	1	4
345.499	1	1
345.670	1	4
345.841	1	-4
346.012	1	3
346.183	1	24
346.354	1	4
346.526	1	-4
346.697	1	3
346.868	1	11
347.039	1	6
347.210	1	3
347.381	1	12
347.552	1	12
347.723	1	1
347.894	1	1
348.065	1	6
348.236	1	10
348.407	1	8
348.578	1	6
348.749	1	4
348.920	1	4
349.091	1	6
349.262	1	12
349.433	1	9
349.604	1	7
349.775	1	-3
349.946	1	17
350.117	1	4
350.288	1	-7
350.459	1	-4
350.630	1	9
350.801	1	11
350.972	1	13
351.143	1	5
351.314	1	-1
351.485	1	10
351.656	1	4
351.827	1	2
351.998	1	2
352.169	1	7
352.340	1	22
352.511	1	10
352.682	1	-4
352.853	1	17
353.024	1	0
353.195	1	-3
353.366	1	9
353.537	1	5
353.708	1	7
353.879	1	7
354.050	1	-1
354.221	1	9
354.392	1	13
354.563	1	4
354.734	1	5
354.905	1	1
355.076	1	4
355.247	1	2
355.418	1	10
355.589	1	7
355.760	1	9
355.931	1	9
356.102	1	-4
356.273	1	9
356.444	1	-13
356.615	1	-5
356.785	1	6
356.956	1	22
357.127	1	24
357.298	1	-4
357.469	1	14
357.640	1	11
357.811	1	12
357.982	1	11
358.153	1	3
358.324	1	9
358.495	1	8
358.666	1	13
358.837	1	10
359.008	1	15
359.179	1	6
359.350	1	8
359.521	1	2
359.692	1	14
359.863	1	9
360.034	1	17
360.205	1	9
360.376	1	20
360.547	1	4
360.718	1	23
360.889	1	19
361.060	1	17
361.231	1	24
361.401	1	11
361.572	1	12
361.743	1	26
361.914	1	20
362.085	1	20
362.256	1	8
362.427	1	17
362.598	1	19
362.769	1	22
362.940	1	13
363.111	1	40
363.282	1	26
363.453	1	8
363.624	1	26
363.795	1	18
363.966	1	35
364.137	1	25
364.308	1	36
364.478	1	18
364.649	1	40
364.820	1	39
364.991	1	29
365.162	1	30
365.333	1	24
365.504	1	39
365.675	1	40
365.846	1	41
366.017	1	49
366.188	1	46
366.359	1	39
366.530	1	44
366.701	1	45
366.871	1	52
367.042	1	46
367.213	1	48
367.384	1	52
367.555	1	50
367.726	1	48
367.897	1	43
368.068	1	46
368.239	1	54
368.410	1	37
368.581	1	44
368.752	1	49
368.923	1	53
369.093	1	48
369.264	1	42
369.435	1	31
369.606	1	51
369.777	1	36
369.948	1	48
370.119	1	59
370.290	1	42
370.461	1	38
370.632	1	38
370.803	1	41
370.973	1	38
371.144	1	43
371.315	1	45
371.486	1	31
371.657	1	36
371.828	1	34
371.999	1	33
372.170	1	30
372.341	1	31
372.512	1	29
372.682	1	31
372.853	1	22
373.024	1	40
373.195	1	28
373.366	1	24
373.537	1	25
373.708	1	27
373.879	1	16
374.050	1	30
374.220	1	13
374.391	1	27
374.562	1	23
374.733	1	18
374.904	1	26
375.075	1	41
375.246	1	21
375.417	1	18
375.588	1	13
375.758	1	2
375.929	1	16
376.100	1	24
376.271	1	26
376.442	1	17
376.613	1	21
376.784	1	24
376.955	1	25
377.125	1	19
377.296	1	17
377.467	1	24
377.638	1	12
377.809	1	11
377.980	1	9
378.151	1	12
378.321	1	22
378.492	1	24
378.663	1	15
378.834	1	21
379.005	1	22
379.176	1	14
379.347	1	15
379.518	1	20
379.688	1	22
379.859	1	17
380.030	1	15
380.201	1	22
380.372	1	16
380.543	1	13
380.714	1	17
380.884	1	20
381.055	1	14
381.226	1	16
381.397	1	12
381.568	1	7
381.739	1	11
381.910	1	10
382.080	1	-4
382.251	1	13
382.422	1	13
382.593	1	1
382.764	1	12
382.935	1	15
383.105	1	14
383.276	1	2
383.447	1	18
383.618	1	12
383.789	1	13
383.960	1	10
384.130	1	20
384.301	1	12
384.472	1	15
384.643	1	12
384.814	1	11
384.985	1	13
385.156	1	12
385.326	1	6
385.497	1	11
385.668	1	2
385.839	1	16
386.010	1	7
386.180	1	20
386.351	1	18
386.522	1	8
386.693	1	3
386.864	1	21
387.035	1	14
387.205	1	5
387.376	1	11
387.547	1	18
387.718	1	10
387.889	1	13
388.060	1	14
388.230	1	15
388.401	1	18
388.572	1	12
388.743	1	18
388.914	1	19
389.084	1	11
389.255	1	20
389.426	1	7
389.597	1	2
389.768	1	4
389.939	1	17
390.109	1	17
390.280	1	23
390.451	1	8
390.622	1	6
390.793	1	4
390.963	1	12
391.134	1	11
391.305	1	10
391.476	1	10
391.647	1	12
391.817	1	13
391.988	1	13
392.159	1	14
392.330	1	4
392.501	1	12
392.671	1	5
392.842	1	9
393.013	1	8
393.184	1	13
393.355	1	4
393.525	1	14
393.696	1	8
393.867	1	6
394.038	1	14
394.208	1	5
394.379	1	18
394.550	1	16
394.721	1	11
394.892	1	6
395.062	1	7
395.233	1	12
395.404	1	10
395.575	1	12
395.746	1	10
395.916	1	22
396.087	1	1
396.258	1	7
396.429	1	21
396.599	1	16
396.770	1	13
396.941	1	7
397.112	1	9
397.283	1	16
397.453	1	10
397.624	1	3
397.795	1	2
397.966	1	17
398.136	1	13
398.307	1	12
398.478	1	14
398.649	1	6
398.819	1	-5
398.990	1	9
399.161	1	8
399.332	1	17
399.503	1	17
399.673	1	10
399.844	1	7
400.015	1	10
400.186	1	4
400.356	1	13
400.527	1	15
400.698	1	3
400.869	1	9
401.039	1	15
401.210	1	7
401.381	1	10
401.552	1	20
401.722	1	-1
401.893	1	-5
402.064	1	4
402.235	1	9
402.405	1	8
402.576	1	14
402.747	1	10
402.918	1	9
403.088	1	-2
403.259	1	0
403.430	1	16
403.601	1	9
403.771	1	9
403.942	1	5
404.113	1	11
404.284	1	10
404.454	1	16
404.625	1	28
404.796	1	13
404.967	1	3
405.137	1	17
405.308	1	4
405.479	1	10
405.649	1	3
405.820	1	7
405.991	1	8
406.162	1	11
406.332	1	13
406.503	1	8
406.674	1	17
406.845	1	-5
407.015	1	10
407.186	1	4
407.357	1	17
407.527	1	2
407.698	1	9
407.869	1	12
408.040	1	9
408.210	1	8
408.381	1	12
408.552	1	-5
408.722	1	15
408.893	1	14
409.064	1	9
409.235	1	0
409.405	1	6
409.576	1	4
409.747	1	1
409.917	1	-3
410.088	1	17
410.259	1	8
410.430	1	13
410.600	1	5
410.771	1	-2
410.942	1	6
411.112	1	18
411.283	1	5
411.454	1	6
411.625	1	11
411.795	1	9
411.966	1	9
412.137	1	7
412.307	1	7
412.478	1	4
412.649	1	16
412.819	1	7
412.990	1	12
413.161	1	19
413.332	1	5
413.502	1	22
413.673	1	1
413.844	1	9
414.014	1	10
414.185	1	7
414.356	1	8
414.526	1	2
414.697	1	9
414.868	1	-2
415.038	1	15
415.209	1	4
415.380	1	8
415.550	1	5
415.721	1	6
415.892	1	17
416.063	1	2
416.233	1	14
416.404	1	8
416.575	1	9
416.745	1	1
416.916	1	8
417.087	1	4
417.257	1	15
417.428	1	7
417.599	1	12
417.769	1	19
417.940	1	9
418.111	1	6
418.281	1	11
418.452	1	8
418.623	1	19
418.793	1	9
418.964	1	2
419.135	1	8
419.305	1	11
419.476	1	13
419.647	1	9
419.817	1	12
419.988	1	17
420.159	1	1
420.329	1	10
420.500	1	10
420.671	1	5
420.841	1	12
421.012	1	15
421.183	1	17
421.353	1	5
421.524	1	5
421.695	1	5
421.865	1	5
422.036	1	14
422.206	1	4
422.377	1	11
422.548	1	13
422.718	1	5
422.889	1	1
423.060	1	15
423.230	1	3
423.401	1	8
423.572	1	-5
423.742	1	5
423.913	1	15
424.084	1	15
424.254	1	11
424.425	1	12
424.595	1	15
424.766	1	7
424.937	1	13
425.107	1	3
425.278	1	5
425.449	1	14
425.619	1	3
425.790	1	18
425.961	1	8
426.131	1	16
426.302	1	12
426.472	1	2
426.643	1	4
426.814	1	17
426.984	1	6
427.155	1	3
427.326	1	9
427.496	1	11
427.667	1	13
427.837	1	10
428.008	1	5
428.179	1	1
428.349	1	14
428.520	1	5
428.691	1	7
428.861	1	1
429.032	1	7
429.202	1	5
429.373	1	11
429.544	1	9
429.714	1	6
429.885	1	13
430.055	1	6
430.226	1	9
430.397	1	-2
430.567	1	4
430.738	1	4
430.909	1	11
431.079	1	19
431.250	1	12
431.420	1	4
431.591	1	3
431.762	1	1
431.932	1	-5
432.103	1	-6
432.273	1	0
432.444	1	5
432.615	1	13
432.785	1	10
432.956	1	4
433.126	1	12
433.297	1	8
433.468	1	8
433.638	1	5
433.809	1	13
433.979	1	16
434.150	1	11
434.320	1	10
434.491	1	2
434.662	1	14
434.832	1	10
435.003	1	21
435.173	1	8
435.344	1	1
435.515	1	15
435.685	1	-5
435.856	1	2
436.026	1	13
436.197	1	7
436.368	1	0
436.538	1	10
436.709	1	4
436.879	1	8
437.050	1	16
437.220	1	-6
437.391	1	22
437.562	1	13
437.732	1	14
437.903	1	16
438.073	1	15
438.244	1	4
438.414	1	6
438.585	1	4
438.756	1	2
438.926	1	7
439.097	1	10
439.267	1	5
439.438	1	11
439.608	1	20
439.779	1	16
439.949	1	9
440.120	1	1
440.291	1	10
440.461	1	17
440.632	1	1
440.802	1	8
440.973	1	6
441.143	1	-2
441.314	1	4
441.485	1	8
441.655	1	11
441.826	1	-2
441.996	1	10
442.167	1	9
442.337	1	15
442.508	1	0
442.678	1	-6
442.849	1	6
443.019	1	10
443.190	1	12
443.361	1	15
443.531	1	3
443.702	1	5
443.872	1	9
444.043	1	6
444.213	1	0
444.384	1	1
444.554	1	2
444.725	1	15
444.895	1	9
445.066	1	6
445.237	1	2
445.407	1	7
445.578	1	-7
445.748	1	13
445.919	1	7
446.089	1	3
446.260	1	9
446.430	1	14
446.601	1	8
446.771	1	13
446.942	1	12
447.112	1	2
447.283	1	8
447.453	1	1
447.624	1	11
447.794	1	11
447.965	1	4
448.135	1	10
448.306	1	6
448.477	1	3
448.647	1	18
448.818	1	3
448.988	1	7
449.159	1	3
449.329	1	4
449.500	1	3
449.670	1	0
449.841	1	-10
450.011	1	-1
450.182	1	16
450.352	1	17
450.523	1	15
450.693	1	2
450.864	1	9
451.034	1	-6
451.205	1	10
451.375	1	5
451.546	1	23
451.716	1	-11
451.887	1	-3
452.057	1	13
452.228	1	5
452.398	1	-3
452.569	1	14
452.739	1	10
452.910	1	5
453.080	1	9
453.251	1	11
453.421	1	9
453.592	1	3
453.762	1	16
453.933	1	1
454.103	1	1
454.274	1	1
454.444	1	4
454.615	1	5
454.785	1	8
454.956	1	6
455.126	1	-2
455.297	1	12
455.467	1	-1
455.638	1	9
455.808	1	5
455.979	1	8
456.149	1	-4
456.320	1	6
456.490	1	9
456.661	1	2
456.831	1	7
457.001	1	11
457.172	1	-1
457.342	1	8
457.513	1	-3
457.683	1	2
457.854	1	4
458.024	1	19
458.195	1	-8
458.365	1	14
458.536	1	2
458.706	1	13
458.877	1	24
459.047	1	-6
459.218	1	12
459.388	1	0
459.559	1	5
459.729	1	1
459.899	1	3
460.070	1	2
460.240	1	17
460.411	1	18
460.581	1	1
460.752	1	13
460.922	1	1
461.093	1	15
461.263	1	9
461.434	1	11
461.604	1	-8
461.775	1	7
461.945	1	3
462.115	1	2
462.286	1	12
462.456	1	-1
462.627	1	-6
462.797	1	0
462.968	1	7
463.138	1	8
463.309	1	5
463.479	1	10
463.649	1	-2
463.820	1	6
463.990	1	4
464.161	1	-3
464.331	1	18
464.502	1	3
464.672	1	13
464.843	1	0
465.013	1	0
465.183	1	12
465.354	1	-1
465.524	1	7
465.695	1	12
465.865	1	-5
466.036	1	0
466.206	1	4
466.376	1	3
466.547	1	0
466.717	1	5
466.888	1	4
467.058	1	13
467.229	1	1
467.399	1	0
467.569	1	1
467.740	1	11
467.910	1	-1
468.081	1	7
468.251	1	2
468.422	1	7
468.592	1	0
468.762	1	2
468.933	1	13
469.103	1	8
469.274	1	8
469.444	1	-2
469.614	1	12
469.785	1	12
469.955	1	1
470.126	1	-5
470.296	1	3
470.467	1	6
470.637	1	8
470.807	1	6
470.978	1	9
471.148	1	2
471.319	1	13
471.489	1	3
471.659	1	5
471.830	1	3
472.000	1	6
472.171	1	9
472.341	1	2
472.511	1	7
472.682	1	12
472.852	1	10
473.023	1	10
473.193	1	7
473.363	1	16
473.534	1	3
473.704	1	-3
473.875	1	9
474.045	1	7
474.215	1	1
474.386	1	6
474.556	1	6
474.727	1	9
474.897	1	-8
475.067	1	10
475.238	1	17
475.408	1	6
475.578	1	6
475.749	1	11
475.919	1	-3
476.090	1	12
476.260	1	8
476.430	1	17
476.601	1	-5
476.771	1	-8
476.942	1	11
477.112	1	10
477.282	1	13
477.453	1	12
477.623	1	5
477.793	1	4
477.964	1	-3
478.134	1	13
478.305	1	7
478.475	1	2
478.645	1	10
478.816	1	12
478.986	1	-11
479.156	1	-1
479.327	1	-3
479.497	1	0
479.667	1	10
479.838	1	3
480.008	1	0
480.179	1	0
480.349	1	5
480.519	1	6
480.690	1	8
480.860	1	3
481.030	1	8
481.201	1	3
481.371	1	13
481.541	1	0
481.712	1	9
481.882	1	6
482.053	1	2
482.223	1	-2
482.393	1	18
482.564	1	0
482.734	1	11
482.904	1	12
483.075	1	12
483.245	1	-10
483.415	1	1
483.586	1	6
483.756	1	11
483.926	1	3
484.097	1	0
484.267	1	17
484.437	1	-5
484.608	1	13
484.778	1	25
484.948	1	1
485.119	1	6
485.289	1	0
485.459	1	0
485.630	1	9
485.800	1	14
485.970	1	10
486.141	1	7
486.311	1	21
486.481	1	0
486.652	1	9
486.822	1	12
486.992	1	7
487.163	1	-2
487.333	1	7
487.503	1	-8
487.674	1	8
487.844	1	0
488.014	1	17
488.185	1	6
488.355	1	19
488.525	1	12
488.696	1	8
488.866	1	-6
489.036	1	7
489.207	1	-7
489.377	1	0
489.547	1	1
489.718	1	11
489.888	1	15
490.058	1	3
490.228	1	9
490.399	1	3
490.569	1	9
490.739	1	4
490.910	1	4
491.080	1	7
491.250	1	13
491.421	1	14
491.591	1	0
491.761	1	7
491.932	1	14
492.102	1	8
492.272	1	10
492.442	1	7
492.613	1	0
492.783	1	0
492.953	1	4
493.124	1	4
493.294	1	11
493.464	1	3
493.635	1	12
493.805	1	2
493.975	1	13
494.145	1	0
494.316	1	9
494.486	1	19
494.656	1	1
494.827	1	11
494.997	1	5
495.167	1	11
495.337	1	6
495.508	1	4
495.678	1	4
495.848	1	13
496.019	1	-1
496.189	1	15
496.359	1	11
496.529	1	12
496.700	1	10
496.870	1	8
497.040	1	20
497.211	1	4
497.381	1	15
497.551	1	18
497.721	1	11
497.892	1	7
498.062	1	-2
498.232	1	14
498.403	1	2
498.573	1	17
498.743	1	13
498.913	1	19
499.084	1	22
499.254	1	15
499.424	1	6
499.594	1	11
499.765	1	2
499.935	1	12
500.105	1	12
500.275	1	18
500.446	1	16
500.616	1	10
500.786	1	14
500.956	1	7
501.127	1	13
501.297	1	8
501.467	1	9
501.638	1	8
501.808	1	13
501.978	1	10
502.148	1	8
502.319	1	15
502.489	1	12
502.659	1	9
502.829	1	6
503.000	1	13
503.170	1	1
503.340	1	0
503.510	1	13
503.681	1	8
503.851	1	8
504.021	1	6
504.191	1	15
504.362	1	9
504.532	1	5
504.702	1	7
504.872	1	7
505.042	1	13
505.213	1	14
505.383	1	14
505.553	1	11
505.723	1	16
505.894	1	16
506.064	1	15
506.234	1	6
506.404	1	12
506.575	1	13
506.745	1	-3
506.915	1	10
507.085	1	6
507.256	1	12
507.426	1	15
507.596	1	-1
507.766	1	12
507.936	1	10
508.107	1	5
508.277	1	4
508.447	1	23
508.617	1	1
508.788	1	13
508.958	1	23
509.128	1	21
509.298	1	11
509.468	1	5
509.639	1	13
509.809	1	6
509.979	1	10
510.149	1	14
510.319	1	28
510.490	1	11
510.660	1	8
510.830	1	34
511.000	1	22
511.171	1	23
511.341	1	7
511.511	1	5
511.681	1	6
511.851	1	13
512.022	1	21
512.192	1	13
512.362	1	5
512.532	1	15
512.702	1	12
512.873	1	5
513.043	1	15
513.213	1	11
513.383	1	21
513.553	1	21
513.724	1	11
513.894	1	13
514.064	1	9
514.234	1	22
514.404	1	15
514.575	1	8
514.745	1	16
514.915	1	3
515.085	1	22
515.255	1	16
515.425	1	11
515.596	1	10
515.766	1	12
515.936	1	14
516.106	1	13
516.276	1	8
516.447	1	10
516.617	1	17
516.787	1	17
516.957	1	15
517.127	1	13
517.297	1	11
517.468	1	20
517.638	1	25
517.808	1	8
517.978	1	11
518.148	1	26
518.319	1	11
518.489	1	13
518.659	1	18
518.829	1	19
518.999	1	12
519.169	1	19
519.340	1	6
519.510	1	14
519.680	1	16
519.850	1	25
520.020	1	22
520.190	1	20
520.361	1	10
520.531	1	27
520.701	1	17
520.871	1	9
521.041	1	27
521.211	1	25
521.382	1	18
521.552	1	22
521.722	1	11
521.892	1	27
522.062	1	18
522.232	1	6
522.402	1	14
522.573	1	13
522.743	1	13
522.913	1	21
523.083	1	22
523.253	1	22
523.423	1	19
523.593	1	23
523.764	1	21
523.934	1	23
524.104	1	12
524.274	1	7
524.444	1	21
524.614	1	22
524.784	1	19
524.955	1	22
525.125	1	20
525.295	1	20
525.465	1	17
525.635	1	13
525.805	1	13
525.975	1	20
526.146	1	18
526.316	1	17
526.486	1	15
526.656	1	18
526.826	1	30
526.996	1	15
527.166	1	8
527.337	1	24
527.507	1	21
527.677	1	13
527.847	1	14
528.017	1	13
528.187	1	13
528.357	1	23
528.527	1	16
528.698	1	8
528.868	1	8
529.038	1	12
529.208	1	14
529.378	1	17
529.548	1	16
529.718	1	27
529.888	1	22
530.058	1	19
530.229	1	19
530.399	1	21
530.569	1	19
530.739	1	20
530.909	1	23
531.079	1	17
531.249	1	15
531.419	1	22
531.589	1	25
531.760	1	12
531.930	1	15
532.100	1	16
532.270	1	18
532.440	1	21
532.610	1	8
532.780	1	17
532.950	1	16
533.120	1	18
533.290	1	20
533.461	1	23
533.631	1	15
533.801	1	28
533.971	1	14
534.141	1	19
534.311	1	23
534.481	1	22
534.651	1	16
534.821	1	26
534.991	1	11
535.162	1	22
535.332	1	19
535.502	1	19
535.672	1	20
535.842	1	20
536.012	1	10
536.182	1	19
536.352	1	12
536.522	1	7
536.692	1	26
536.862	1	13
537.032	1	19
537.203	1	3
537.373	1	19
537.543	1	19
537.713	1	23
537.883	1	6
538.053	1	9
538.223	1	27
538.393	1	29
538.563	1	21
538.733	1	10
538.903	1	24
539.073	1	19
539.243	1	11
539.413	1	23
539.584	1	21
539.754	1	16
539.924	1	12
540.094	1	10
540.264	1	11
540.434	1	15
540.604	1	10
540.774	1	27
540.944	1	21
541.114	1	2
541.284	1	14
541.454	1	14
541.624	1	16
541.794	1	13
541.964	1	12
542.134	1	11
542.305	1	23
542.475	1	11
542.645	1	8
542.815	1	12
542.985	1	19
543.155	1	10
543.325	1	9
543.495	1	17
543.665	1	28
543.835	1	17
544.005	1	16
544.175	1	12
544.345	1	29
544.515	1	17
544.685	1	24
544.855	1	16
545.025	1	-2
545.195	1	5
545.365	1	17
545.535	1	36
545.705	1	8
545.875	1	20
546.045	1	3
546.216	1	21
546.386	1	16
546.556	1	-3
546.726	1	12
546.896	1	15
547.066	1	10
547.236	1	5
547.406	1	3
547.576	1	16
547.746	1	19
547.916	1	9
548.086	1	6
548.256	1	14
548.426	1	26
548.596	1	14
548.766	1	15
548.936	1	20
549.106	1	4
549.276	1	8
549.446	1	16
549.616	1	11
549.786	1	10
549.956	1	0
550.126	1	28
550.296	1	9
550.466	1	16
550.636	1	14
550.806	1	25
550.976	1	12
551.146	1	12
551.316	1	16
551.486	1	13
551.656	1	16
551.826	1	11
551.996	1	17
552.166	1	22
552.336	1	15
552.506	1	15
552.676	1	12
552.846	1	14
553.016	1	11
553.186	1	15
553.356	1	25
553.526	1	12
553.696	1	9
553.866	1	3
554.036	1	12
554.206	1	15
554.376	1	23
554.546	1	14
554.716	1	8
554.886	1	9
555.056	1	17
555.226	1	22
555.396	1	6
555.566	1	10
555.736	1	12
555.906	1	5
556.076	1	19
556.246	1	17
556.416	1	20
556.586	1	19
556.756	1	15
556.926	1	14
557.096	1	12
557.266	1	6
557.436	1	13
557.606	1	7
557.776	1	12
557.946	1	16
558.116	1	12
558.286	1	26
558.456	1	14
558.626	1	2
558.796	1	12
558.966	1	6
559.136	1	11
559.306	1	16
559.476	1	14
559.646	1	19
559.816	1	14
559.986	1	17
560.155	1	13
560.325	1	1
560.495	1	9
560.665	1	23
560.835	1	12
561.005	1	19
561.175	1	13
561.345	1	18
561.515	1	11
561.685	1	7
561.855	1	8
562.025	1	2
562.195	1	4
562.365	1	17
562.535	1	10
562.705	1	8
562.875	1	14
563.045	1	5
563.215	1	13
563.385	1	4
563.555	1	20
563.725	1	0
563.895	1	4
564.064	1	20
564.234	1	9
564.404	1	8
564.574	1	5
564.744	1	14
564.914	1	11
565.084	1	16
565.254	1	3
565.424	1	4
565.594	1	14
565.764	1	9
565.934	1	-2
566.104	1	10
566.274	1	18
566.444	1	21
566.614	1	16
566.783	1	22
566.953	1	2
567.123	1	3
567.293	1	19
567.463	1	6
567.633	1	0
567.803	1	16
567.973	1	13
568.143	1	22
568.313	1	12
568.483	1	11
568.653	1	7
568.823	1	4
568.993	1	1
569.162	1	17
569.332	1	5
569.502	1	3
569.672	1	5
569.842	1	3
570.012	1	8
570.182	1	3
570.352	1	2
570.522	1	3
570.692	1	12
570.862	1	20
571.031	1	16
571.201	1	14
571.371	1	8
571.541	1	19
571.711	1	17
571.881	1	4
572.051	1	4
572.221	1	23
572.391	1	14
572.561	1	5
572.731	1	8
572.900	1	13
573.070	1	7
573.240	1	9
573.410	1	7
573.580	1	9
573.750	1	2
573.920	1	19
574.090	1	5
574.260	1	10
574.430	1	10
574.599	1	11
574.769	1	4
574.939	1	11
575.109	1	15
575.279	1	-3
575.449	1	1
575.619	1	14
575.789	1	8
575.959	1	13
576.128	1	2
576.298	1	8
576.468	1	12
576.638	1	2
576.808	1	4
576.978	1	2
577.148	1	3
577.318	1	9
577.487	1	13
577.657	1	21
577.827	1	-1
577.997	1	19
578.167	1	14
578.337	1	4
578.507	1	0
578.677	1	10
578.846	1	11
579.016	1	-4
579.186	1	7
579.356	1	11
579.526	1	8
579.696	1	6
579.866	1	10
580.036	1	6
580.205	1	-8
580.375	1	8
580.545	1	9
580.715	1	18
580.885	1	8
581.055	1	14
581.225	1	-3
581.394	1	3
581.564	1	1
581.734	1	4
581.904	1	7
582.074	1	3
582.244	1	3
582.414	1	5
582.583	1	16
582.753	1	12
582.923	1	14
583.093	1	14
583.263	1	3
583.433	1	4
583.603	1	6
583.772	1	12
583.942	1	-1
584.112	1	14
584.282	1	5
584.452	1	22
584.622	1	-2
584.791	1	1
584.961	1	13
585.131	1	5
585.301	1	9
585.471	1	5
585.641	1	15
585.811	1	6
585.980	1	5
586.150	1	16
586.320	1	4
586.490	1	5
586.660	1	-3
586.830	1	-5
586.999	1	-2
587.169	1	11
587.339	1	9
587.509	1	11
587.679	1	4
587.849	1	3
588.018	1	15
588.188	1	7
588.358	1	5
588.528	1	15
588.698	1	4
588.867	1	5
589.037	1	-2
589.207	1	3
589.377	1	15
589.547	1	15
589.717	1	2
589.886	1	5
590.056	1	-7
590.226	1	8
590.396	1	6
590.566	1	2
590.735	1	10
590.905	1	14
591.075	1	14
591.245	1	3
591.415	1	17
591.585	1	12
591.754	1	3
591.924	1	-2
592.094	1	-2
592.264	1	4
592.434	1	9
592.603	1	5
592.773	1	19
592.943	1	12
593.113	1	-1
593.283	1	-1
593.452	1	3
593.622	1	18
593.792	1	-11
593.962	1	10
594.132	1	5
594.301	1	-7
594.471	1	6
594.641	1	15
594.811	1	8
594.981	1	-6
595.150	1	-6
595.320	1	8
595.490	1	4
595.660	1	9
595.829	1	5
595.999	1	10
596.169	1	0
596.339	1	5
596.509	1	4
596.678	1	-1
596.848	1	5
597.018	1	3
597.188	1	0
597.358	1	5
597.527	1	12
597.697	1	13
597.867	1	6
598.037	1	5
598.206	1	6
598.376	1	4
598.546	1	-3
598.716	1	9
598.885	1	7
599.055	1	5
599.225	1	9
599.395	1	-1
599.565	1	12
599.734	1	2
599.904	1	0
600.074	1	14
600.244	1	6
600.413	1	20
600.583	1	11
600.753	1	5
600.923	1	8
601.092	1	2
601.262	1	7
601.432	1	-2
601.602	1	-4
601.771	1	16
601.941	1	10
602.111	1	8
602.281	1	7
602.451	1	14
602.620	1	7
602.790	1	1
602.960	1	1
603.130	1	14
603.299	1	1
603.469	1	5
603.639	1	-11
603.809	1	3
603.978	1	4
604.148	1	19
604.318	1	-2
604.487	1	12
604.657	1	-6
604.827	1	0
604.997	1	13
605.166	1	14
605.336	1	11
605.506	1	10
605.676	1	-4
605.845	1	6
606.015	1	-2
606.185	1	11
606.355	1	6
606.524	1	12
606.694	1	0
606.864	1	10
607.034	1	1
607.203	1	7
607.373	1	18
607.543	1	-2
607.712	1	6
607.882	1	2
608.052	1	3
608.222	1	-12
608.391	1	8
608.561	1	6
608.731	1	11
608.901	1	4
609.070	1	13
609.240	1	1
609.410	1	9
609.579	1	12
609.749	1	-3
609.919	1	5
610.089	1	3
610.258	1	6
610.428	1	14
610.598	1	11
610.767	1	2
610.937	1	8
611.107	1	7
611.277	1	-1
611.446	1	8
611.616	1	-3
611.786	1	6
611.955	1	-2
612.125	1	4
612.295	1	13
612.465	1	-3
612.634	1	8
612.804	1	21
612.974	1	5
613.143	1	5
613.313	1	6
613.483	1	4
613.652	1	-7
613.822	1	-3
613.992	1	9
614.162	1	4
614.331	1	16
614.501	1	9
614.671	1	5
614.840	1	1
615.010	1	2
615.180	1	4
615.349	1	12
615.519	1	2
615.689	1	2
615.858	1	2
616.028	1	15
616.198	1	12
616.368	1	1
616.537	1	11
616.707	1	9
616.877	1	-9
617.046	1	9
617.216	1	12
617.386	1	-10
617.555	1	-4
617.725	1	7
617.895	1	6
618.064	1	2
618.234	1	4
618.404	1	3
618.573	1	2
618.743	1	4
618.913	1	5
619.082	1	5
619.252	1	-1
619.422	1	1
619.591	1	8
619.761	1	6
619.931	1	-3
620.100	1	-1
620.270	1	6
620.440	1	5
620.609	1	-9
620.779	1	10
620.949	1	-4
621.118	1	2
621.288	1	-1
621.458	1	8
621.627	1	20
621.797	1	4
621.967	1	0
622.136	1	-2
622.306	1	4
622.476	1	16
622.645	1	13
622.815	1	3
622.985	1	6
623.154	1	4
623.324	1	-11
623.494	1	9
623.663	1	4
623.833	1	10
624.002	1	10
624.172	1	-2
624.342	1	12
624.511	1	7
624.681	1	7
624.851	1	-1
625.020	1	12
625.190	1	1
625.360	1	-1
625.529	1	-7
625.699	1	3
625.869	1	0
626.038	1	14
626.208	1	5
626.377	1	16
626.547	1	2
626.717	1	11
626.886	1	2
627.056	1	7
627.226	1	1
627.395	1	6
627.565	1	9
627.735	1	12
627.904	1	8
628.074	1	13
628.243	1	6
628.413	1	-4
628.583	1	-5
628.752	1	12
628.922	1	-3
629.091	1	0
629.261	1	-10
629.431	1	6
629.600	1	7
629.770	1	5
629.940	1	14
630.109	1	-2
630.279	1	13
630.448	1	6
630.618	1	-3
630.788	1	-4
630.957	1	-3
631.127	1	1
631.297	1	0
631.466	1	11
631.636	1	12
631.805	1	8
631.975	1	9
632.145	1	0
632.314	1	4
632.484	1	-6
632.653	1	-3
632.823	1	1
632.993	1	11
633.162	1	5
633.332	1	0
633.501	1	22
633.671	1	-7
633.841	1	8
634.010	1	-2
634.180	1	15
634.349	1	7
634.519	1	6
634.689	1	12
634.858	1	15
635.028	1	12
635.197	1	2
635.367	1	-3
635.537	1	-5
635.706	1	-2
635.876	1	6
636.045	1	15
636.215	1	8
636.384	1	13
636.554	1	7
636.724	1	11
636.893	1	5
637.063	1	11
637.232	1	4
637.402	1	2
637.572	1	-4
637.741	1	3
637.911	1	9
638.080	1	5
638.250	1	9
638.419	1	-5
638.589	1	1
638.759	1	5
638.928	1	-3
639.098	1	1
639.267	1	11
639.437	1	6
639.606	1	3
639.776	1	3
639.946	1	3
640.115	1	5
640.285	1	6
640.454	1	-1
640.624	1	-8
640.793	1	-7
640.963	1	-2
641.132	1	16
641.302	1	17
641.472	1	-5
641.641	1	4
641.811	1	0
641.980	1	-4
642.150	1	0
642.319	1	2
642.489	1	-1
642.659	1	-7
642.828	1	3
642.998	1	13
643.167	1	7
643.337	1	4
643.506	1	5
643.676	1	7
643.845	1	-6
644.015	1	12
644.184	1	0
644.354	1	3
644.524	1	1
644.693	1	4
644.863	1	1
645.032	1	1
645.202	1	2
645.371	1	17
645.541	1	3
645.710	1	11
645.880	1	11
646.049	1	-9
646.219	1	3
646.388	1	7
646.558	1	7
646.728	1	8
646.897	1	0
647.067	1	7
647.236	1	1
647.406	1	8
647.575	1	-14
647.745	1	3
647.914	1	3
648.084	1	0
648.253	1	14
648.423	1	5
648.592	1	-4
648.762	1	8
648.931	1	2
649.101	1	5
649.270	1	0
649.440	1	5
649.610	1	-4
649.779	1	7
649.949	1	0
650.118	1	3
650.288	1	8
650.457	1	4
650.627	1	8
650.796	1	5
650.966	1	2
651.135	1	11
651.305	1	4
651.474	1	7
651.644	1	2
651.813	1	4
651.983	1	-7
652.152	1	11
652.322	1	5
652.491	1	6
652.661	1	-5
652.830	1	8
653.000	1	-2
653.169	1	2
653.339	1	3
653.508	1	11
653.678	1	-1
653.847	1	1
654.017	1	8
654.186	1	-3
654.356	1	9
654.525	1	5
654.695	1	1
654.864	1	-4
655.034	1	3
655.203	1	-2
655.373	1	-2
655.542	1	0
655.712	1	3
655.881	1	6
656.051	1	7
656.220	1	2
656.390	1	7
656.559	1	3
656.729	1	-1
656.898	1	1
657.068	1	1
657.237	1	2
657.406	1	6
657.576	1	3
657.745	1	4
657.915	1	6
658.084	1	-3
658.254	1	1
658.423	1	2
658.593	1	-5
658.762	1	16
658.932	1	21
659.101	1	10
659.271	1	8
659.440	1	-1
659.610	1	3
659.779	1	7
659.949	1	-3
660.118	1	0
660.288	1	3
660.457	1	-1
660.626	1	4
660.796	1	5
660.965	1	8
661.135	1	17
661.304	1	3
661.474	1	6
661.643	1	2
661.813	1	5
661.982	1	-5
662.152	1	3
662.321	1	-4
662.491	1	17
662.660	1	8
662.829	1	11
662.999	1	6
663.168	1	-3
663.338	1	0
663.507	1	3
663.677	1	4
663.846	1	-2
664.016	1	4
664.185	1	-3
664.354	1	6
664.524	1	-3
664.693	1	10
664.863	1	13
665.032	1	16
665.202	1	-1
665.371	1	3
665.541	1	1
665.710	1	10
665.879	1	3
666.049	1	4
666.218	1	2
666.388	1	2
666.557	1	4
666.727	1	0
666.896	1	6
667.065	1	12
667.235	1	13
667.404	1	6
667.574	1	12
667.743	1	-3
667.913	1	4
668.082	1	11
668.251	1	5
668.421	1	2
668.590	1	7
668.760	1	-6
668.929	1	7
669.099	1	-2
669.268	1	-3
669.437	1	-9
669.607	1	0
669.776	1	6
669.946	1	12
670.115	1	14
670.285	1	10
670.454	1	5
670.623	1	10
670.793	1	-9
670.962	1	1
671.132	1	2
671.301	1	4
671.470	1	4
671.640	1	-10
671.809	1	0
671.979	1	6
672.148	1	4
672.317	1	-1
672.487	1	-6
672.656	1	0
672.826	1	6
672.995	1	-3
673.164	1	3
673.334	1	-7
673.503	1	-2
673.673	1	13
673.842	1	1
674.011	1	1
674.181	1	2
674.350	1	6
674.520	1	6
674.689	1	7
674.858	1	-3
675.028	1	1
675.197	1	-3
675.367	1	-5
675.536	1	13
675.705	1	9
675.875	1	4
676.044	1	6
676.214	1	5
676.383	1	3
676.552	1	4
676.722	1	-3
676.891	1	-1
677.060	1	20
677.230	1	10
677.399	1	4
677.569	1	6
677.738	1	0
677.907	1	9
678.077	1	6
678.246	1	5
678.416	1	11
678.585	1	6
678.754	1	10
678.924	1	5
679.093	1	5
679.262	1	2
679.432	1	2
679.601	1	5
679.771	1	5
679.940	1	-5
680.109	1	5
680.279	1	8
680.448	1	7
680.617	1	-7
680.787	1	7
680.956	1	7
681.125	1	18
681.295	1	-3
681.464	1	1
681.634	1	11
681.803	1	1
681.972	1	8
682.142	1	4
682.311	1	-2
682.480	1	11
682.650	1	4
682.819	1	3
682.988	1	-2
683.158	1	7
683.327	1	4
683.496	1	-2
683.666	1	7
683.835	1	9
684.004	1	3
684.174	1	7
684.343	1	2
684.512	1	7
684.682	1	1
684.851	1	2
685.021	1	6
685.190	1	11
685.359	1	-12
685.529	1	-5
685.698	1	1
685.867	1	8
686.037	1	-3
686.206	1	7
686.375	1	-5
686.545	1	0
686.714	1	-11
686.883	1	5
687.053	1	2
687.222	1	7
687.391	1	5
687.561	1	13
687.730	1	-6
687.899	1	6
688.069	1	0
688.238	1	16
688.407	1	5
688.577	1	4
688.746	1	6
