340.368	1	10
340.539	1	10
340.710	1	7
340.881	1	7
341.052	1	-1
341.223	1	0
341.394	1	-2
341.565	1	7
341.737	1	4
341.908	1	5
342.079	1	10
342.250	1	16
342.421	1	6
342.592	1	0
342.763	1	2
342.934	1	3
343.105	1	4
343.276	1	0
343.447	1	7
343.618	1	4
343.789	1	4
343.960	1	-6
344.131	1	2
344.302	1	12
344.473	1	1
344.644	1	5
344.815	1	-8
344.986	1	7
345.157	1	-9
345.328	1	10
345.499	1	2
345.670	1	-1
345.841	1	-7
346.012	1	3
346.183	1	-5
346.354	1	3
346.526	1	1
346.697	1	6
346.868	1	3
347.039	1	2
347.210	1	2
347.381	1	8
347.552	1	4
347.723	1	1
347.894	1	-5
348.065	1	-1
348.236	1	-6
348.407	1	3
348.578	1	3
348.749	1	10
348.920	1	2
349.091	1	11
349.262	1	2
349.433	1	8
349.604	1	-3
349.775	1	2
349.946	1	0
350.117	1	9
350.288	1	-8
350.459	1	-9
350.630	1	9
350.801	1	7
350.972	1	8
351.143	1	5
351.314	1	1
351.485	1	11
351.656	1	1
351.827	1	6
351.998	1	8
352.169	1	-5
352.340	1	11
352.511	1	-5
352.682	1	0
352.853	1	8
353.024	1	2
353.195	1	2
353.366	1	12
353.537	1	-6
353.708	1	4
353.879	1	2
354.050	1	6
354.221	1	9
354.392	1	11
354.563	1	4
354.734	1	3
354.905	1	9
355.076	1	5
355.247	1	-3
355.418	1	7
355.589	1	9
355.760	1	12
355.931	1	7
356.102	1	-2
356.273	1	10
356.444	1	-5
356.615	1	6
356.785	1	16
356.956	1	14
357.127	1	10
357.298	1	6
357.469	1	3
357.640	1	0
357.811	1	3
357.982	1	12
358.153	1	1
358.324	1	-1
358.495	1	7
358.666	1	12
358.837	1	8
359.008	1	18
359.179	1	13
359.350	1	1
359.521	1	-1
359.692	1	14
359.863	1	10
360.034	1	11
360.205	1	4
360.376	1	14
360.547	1	-2
360.718	1	13
360.889	1	8
361.060	1	5
361.231	1	-1
361.401	1	3
361.572	1	9
361.743	1	18
361.914	1	12
362.085	1	12
362.256	1	4
362.427	1	15
362.598	1	16
362.769	1	13
362.940	1	10
363.111	1	22
363.282	1	11
363.453	1	3
363.624	1	17
363.795	1	13
363.966	1	20
364.137	1	13
364.308	1	18
364.478	1	5
364.649	1	19
364.820	1	25
364.991	1	21
365.162	1	19
365.333	1	8
365.504	1	26
365.675	1	20
365.846	1	22
366.017	1	22
366.188	1	26
366.359	1	24
366.530	1	18
366.701	1	31
366.871	1	20
367.042	1	21
367.213	1	28
367.384	1	27
367.555	1	33
367.726	1	22
367.897	1	24
368.068	1	17
368.239	1	22
368.410	1	28
368.581	1	32
368.752	1	29
368.923	1	35
369.093	1	27
369.264	1	23
369.435	1	29
369.606	1	32
369.777	1	16
369.948	1	27
370.119	1	23
370.290	1	24
370.461	1	33
370.632	1	13
370.803	1	10
370.973	1	24
371.144	1	24
371.315	1	23
371.486	1	18
371.657	1	8
371.828	1	15
371.999	1	11
372.170	1	15
372.341	1	16
372.512	1	14
372.682	1	10
372.853	1	9
373.024	1	22
373.195	1	16
373.366	1	11
373.537	1	9
373.708	1	18
373.879	1	13
374.050	1	18
374.220	1	12
374.391	1	24
374.562	1	11
374.733	1	19
374.904	1	11
375.075	1	22
375.246	1	14
375.417	1	6
375.588	1	17
375.758	1	0
375.929	1	1
376.100	1	4
376.271	1	17
376.442	1	8
376.613	1	8
376.784	1	11
376.955	1	5
377.125	1	15
377.296	1	-3
377.467	1	22
377.638	1	-1
377.809	1	12
377.980	1	7
378.151	1	9
378.321	1	13
378.492	1	22
378.663	1	15
378.834	1	14
379.005	1	15
379.176	1	6
379.347	1	9
379.518	1	12
379.688	1	6
379.859	1	-1
380.030	1	15
380.201	1	23
380.372	1	15
380.543	1	3
380.714	1	27
380.884	1	2
381.055	1	9
381.226	1	9
381.397	1	10
381.568	1	6
381.739	1	12
381.910	1	6
382.080	1	9
382.251	1	1
382.422	1	18
382.593	1	12
382.764	1	7
382.935	1	12
383.105	1	4
383.276	1	5
383.447	1	8
383.618	1	11
383.789	1	10
383.960	1	11
384.130	1	11
384.301	1	6
384.472	1	7
384.643	1	4
384.814	1	9
384.985	1	18
385.156	1	-1
385.326	1	12
385.497	1	7
385.668	1	3
385.839	1	11
386.010	1	11
386.180	1	7
386.351	1	4
386.522	1	6
386.693	1	10
386.864	1	22
387.035	1	15
387.205	1	9
387.376	1	2
387.547	1	6
387.718	1	4
387.889	1	4
388.060	1	11
388.230	1	9
388.401	1	6
388.572	1	15
388.743	1	15
388.914	1	8
389.084	1	9
389.255	1	2
389.426	1	1
389.597	1	-6
389.768	1	2
389.939	1	16
390.109	1	13
390.280	1	12
390.451	1	13
390.622	1	6
390.793	1	6
390.963	1	5
391.134	1	-4
391.305	1	13
391.476	1	0
391.647	1	12
391.817	1	20
391.988	1	13
392.159	1	8
392.330	1	1
392.501	1	7
392.671	1	3
392.842	1	14
393.013	1	6
393.184	1	13
393.355	1	1
393.525	1	8
393.696	1	6
393.867	1	9
394.038	1	8
394.208	1	3
394.379	1	5
394.550	1	17
394.721	1	-1
394.892	1	4
395.062	1	0
395.233	1	9
395.404	1	-5
395.575	1	1
395.746	1	5
395.916	1	12
396.087	1	21
396.258	1	-1
396.429	1	3
396.599	1	4
396.770	1	17
396.941	1	4
397.112	1	9
397.283	1	3
397.453	1	17
397.624	1	11
397.795	1	2
397.966	1	7
398.136	1	4
398.307	1	9
398.478	1	9
398.649	1	2
398.819	1	-10
398.990	1	11
399.161	1	6
399.332	1	6
399.503	1	22
399.673	1	8
399.844	1	-2
400.015	1	11
400.186	1	2
400.356	1	10
400.527	1	6
400.698	1	4
400.869	1	20
401.039	1	8
401.210	1	13
401.381	1	9
401.552	1	11
401.722	1	12
401.893	1	0
402.064	1	-8
402.235	1	2
402.405	1	19
402.576	1	2
402.747	1	8
402.918	1	10
403.088	1	7
403.259	1	1
403.430	1	9
403.601	1	5
403.771	1	12
403.942	1	4
404.113	1	8
404.284	1	5
404.454	1	13
404.625	1	17
404.796	1	7
404.967	1	8
405.137	1	17
405.308	1	3
405.479	1	4
405.649	1	13
405.820	1	15
405.991	1	4
406.162	1	3
406.332	1	-1
406.503	1	13
406.674	1	13
406.845	1	3
407.015	1	9
407.186	1	4
407.357	1	8
407.527	1	3
407.698	1	4
407.869	1	8
408.040	1	15
408.210	1	11
408.381	1	11
408.552	1	-1
408.722	1	5
408.893	1	8
409.064	1	0
409.235	1	-6
409.405	1	5
409.576	1	10
409.747	1	7
409.917	1	7
410.088	1	10
410.259	1	20
410.430	1	18
410.600	1	1
410.771	1	-10
410.942	1	-3
411.112	1	12
411.283	1	5
411.454	1	8
411.625	1	9
411.795	1	6
411.966	1	-1
412.137	1	-2
412.307	1	-1
412.478	1	4
412.649	1	7
412.819	1	17
412.990	1	5
413.161	1	6
413.332	1	-7
413.502	1	11
413.673	1	5
413.844	1	9
414.014	1	15
414.185	1	14
414.356	1	11
414.526	1	10
414.697	1	-7
414.868	1	-4
415.038	1	12
415.209	1	1
415.380	1	8
415.550	1	0
415.721	1	9
415.892	1	1
416.063	1	3
416.233	1	6
416.404	1	15
416.575	1	10
416.745	1	3
416.916	1	5
417.087	1	12
417.257	1	6
417.428	1	0
417.599	1	-2
417.769	1	15
417.940	1	13
418.111	1	7
418.281	1	-3
418.452	1	4
418.623	1	17
418.793	1	0
418.964	1	12
419.135	1	10
419.305	1	7
419.476	1	0
419.647	1	12
419.817	1	1
419.988	1	17
420.159	1	8
420.329	1	7
420.500	1	3
420.671	1	6
420.841	1	12
421.012	1	1
421.183	1	19
421.353	1	1
421.524	1	8
421.695	1	-5
421.865	1	3
422.036	1	13
422.206	1	8
422.377	1	7
422.548	1	18
422.718	1	13
422.889	1	1
423.060	1	3
423.230	1	6
423.401	1	8
423.572	1	-9
423.742	1	2
423.913	1	4
424.084	1	8
424.254	1	5
424.425	1	10
424.595	1	8
424.766	1	7
424.937	1	1
425.107	1	12
425.278	1	3
425.449	1	10
425.619	1	9
425.790	1	14
425.961	1	9
426.131	1	16
426.302	1	10
426.472	1	3
426.643	1	5
426.814	1	1
426.984	1	7
427.155	1	1
427.326	1	8
427.496	1	9
427.667	1	1
427.837	1	14
428.008	1	1
428.179	1	12
428.349	1	3
428.520	1	13
428.691	1	6
428.861	1	2
429.032	1	2
429.202	1	4
429.373	1	7
429.544	1	10
429.714	1	1
429.885	1	8
430.055	1	2
430.226	1	2
430.397	1	-3
430.567	1	7
430.738	1	-1
430.909	1	13
431.079	1	26
431.250	1	10
431.420	1	2
431.591	1	7
431.762	1	3
431.932	1	3
432.103	1	-6
432.273	1	12
432.444	1	4
432.615	1	10
432.785	1	5
432.956	1	-8
433.126	1	13
433.297	1	11
433.468	1	11
433.638	1	7
433.809	1	20
433.979	1	12
434.150	1	1
434.320	1	13
434.491	1	3
434.662	1	1
434.832	1	4
435.003	1	17
435.173	1	10
435.344	1	4
435.515	1	5
435.685	1	-11
435.856	1	-5
436.026	1	9
436.197	1	10
436.368	1	0
436.538	1	12
436.709	1	2
436.879	1	8
437.050	1	13
437.220	1	-5
437.391	1	17
437.562	1	-1
437.732	1	9
437.903	1	5
438.073	1	14
438.244	1	11
438.414	1	0
438.585	1	11
438.756	1	2
438.926	1	5
439.097	1	2
439.267	1	3
439.438	1	5
439.608	1	4
439.779	1	9
439.949	1	10
440.120	1	6
440.291	1	14
440.461	1	12
440.632	1	10
440.802	1	-4
440.973	1	9
441.143	1	2
441.314	1	1
441.485	1	7
441.655	1	11
441.826	1	10
441.996	1	10
442.167	1	9
442.337	1	-4
442.508	1	15
442.678	1	-3
442.849	1	9
443.019	1	10
443.190	1	9
443.361	1	9
443.531	1	7
443.702	1	6
443.872	1	0
444.043	1	6
444.213	1	10
444.384	1	8
444.554	1	1
444.725	1	7
444.895	1	-1
445.066	1	-10
445.237	1	-9
445.407	1	1
445.578	1	-7
445.748	1	13
445.919	1	-5
446.089	1	9
446.260	1	-2
446.430	1	0
446.601	1	12
446.771	1	7
446.942	1	4
447.112	1	1
447.283	1	7
447.453	1	-3
447.624	1	0
447.794	1	17
447.965	1	5
448.135	1	15
448.306	1	7
448.477	1	1
448.647	1	28
448.818	1	-5
448.988	1	13
449.159	1	2
449.329	1	-6
449.500	1	0
449.670	1	9
449.841	1	-3
450.011	1	-3
450.182	1	11
450.352	1	7
450.523	1	10
450.693	1	-2
450.864	1	9
451.034	1	1
451.205	1	4
451.375	1	11
451.546	1	15
451.716	1	1
451.887	1	1
452.057	1	8
452.228	1	12
452.398	1	-6
452.569	1	-5
452.739	1	3
452.910	1	7
453.080	1	2
453.251	1	15
453.421	1	8
453.592	1	15
453.762	1	6
453.933	1	6
454.103	1	5
454.274	1	8
454.444	1	10
454.615	1	-8
454.785	1	8
454.956	1	-2
455.126	1	6
455.297	1	7
455.467	1	7
455.638	1	16
455.808	1	20
455.979	1	12
456.149	1	-8
456.320	1	-3
456.490	1	5
456.661	1	7
456.831	1	17
457.001	1	2
457.172	1	-3
457.342	1	9
457.513	1	2
457.683	1	3
457.854	1	-5
458.024	1	14
458.195	1	-7
458.365	1	2
458.536	1	8
458.706	1	-2
458.877	1	17
459.047	1	-5
459.218	1	9
459.388	1	-7
459.559	1	5
459.729	1	0
459.899	1	10
460.070	1	9
460.240	1	12
460.411	1	11
460.581	1	6
460.752	1	5
460.922	1	10
461.093	1	5
461.263	1	11
461.434	1	4
461.604	1	0
461.775	1	11
461.945	1	11
462.115	1	8
462.286	1	6
462.456	1	3
462.627	1	-2
462.797	1	-3
462.968	1	7
463.138	1	1
463.309	1	20
463.479	1	6
463.649	1	-2
463.820	1	-5
463.990	1	5
464.161	1	-14
464.331	1	5
464.502	1	-4
464.672	1	5
464.843	1	-1
465.013	1	-6
465.183	1	13
465.354	1	3
465.524	1	3
465.695	1	2
465.865	1	2
466.036	1	-1
466.206	1	3
466.376	1	-4
466.547	1	-4
466.717	1	13
466.888	1	-1
467.058	1	6
467.229	1	-2
467.399	1	6
467.569	1	-1
467.740	1	26
467.910	1	-3
468.081	1	15
468.251	1	5
468.422	1	12
468.592	1	0
468.762	1	-3
468.933	1	13
469.103	1	2
469.274	1	8
469.444	1	-4
469.614	1	8
469.785	1	11
469.955	1	-3
470.126	1	-1
470.296	1	3
470.467	1	9
470.637	1	5
470.807	1	7
470.978	1	0
471.148	1	2
471.319	1	5
471.489	1	7
471.659	1	-4
471.830	1	7
472.000	1	5
472.171	1	3
472.341	1	-2
472.511	1	1
472.682	1	1
472.852	1	8
473.023	1	7
473.193	1	8
473.363	1	12
473.534	1	8
473.704	1	-3
473.875	1	9
474.045	1	1
474.215	1	1
474.386	1	0
474.556	1	8
474.727	1	6
474.897	1	-6
475.067	1	8
475.238	1	17
475.408	1	8
475.578	1	-1
475.749	1	4
475.919	1	-7
476.090	1	4
476.260	1	2
476.430	1	10
476.601	1	3
476.771	1	-11
476.942	1	17
477.112	1	7
477.282	1	4
477.453	1	9
477.623	1	-2
477.793	1	-4
477.964	1	-9
478.134	1	15
478.305	1	14
478.475	1	6
478.645	1	0
478.816	1	11
478.986	1	6
479.156	1	0
479.327	1	-8
479.497	1	4
479.667	1	-1
479.838	1	6
480.008	1	-2
480.179	1	-2
480.349	1	2
480.519	1	-2
480.690	1	-1
480.860	1	16
481.030	1	2
481.201	1	16
481.371	1	11
481.541	1	3
481.712	1	13
481.882	1	3
482.053	1	4
482.223	1	-4
482.393	1	14
482.564	1	5
482.734	1	4
482.904	1	11
483.075	1	18
483.245	1	4
483.415	1	-3
483.586	1	-2
483.756	1	9
483.926	1	-4
484.097	1	10
484.267	1	10
484.437	1	1
484.608	1	13
484.778	1	12
484.948	1	-3
485.119	1	6
485.289	1	6
485.459	1	-6
485.630	1	-7
485.800	1	9
485.970	1	1
486.141	1	5
486.311	1	8
486.481	1	2
486.652	1	0
486.822	1	7
486.992	1	4
487.163	1	3
487.333	1	-1
487.503	1	-5
487.674	1	2
487.844	1	4
488.014	1	12
488.185	1	11
488.355	1	9
488.525	1	7
488.696	1	4
488.866	1	4
489.036	1	4
489.207	1	1
489.377	1	3
489.547	1	7
489.718	1	8
489.888	1	9
490.058	1	5
490.228	1	1
490.399	1	6
490.569	1	6
490.739	1	2
490.910	1	11
491.080	1	3
491.250	1	6
491.421	1	9
491.591	1	-1
491.761	1	8
491.932	1	0
492.102	1	3
492.272	1	-2
492.442	1	9
492.613	1	1
492.783	1	-8
492.953	1	2
493.124	1	0
493.294	1	7
493.464	1	3
493.635	1	15
493.805	1	11
493.975	1	9
494.145	1	-2
494.316	1	0
494.486	1	13
494.656	1	1
494.827	1	11
494.997	1	7
495.167	1	8
495.337	1	-3
495.508	1	-4
495.678	1	0
495.848	1	4
496.019	1	-5
496.189	1	12
496.359	1	16
496.529	1	8
496.700	1	6
496.870	1	2
497.040	1	14
497.211	1	1
497.381	1	9
497.551	1	17
497.721	1	10
497.892	1	6
498.062	1	6
498.232	1	9
498.403	1	-5
498.573	1	10
498.743	1	7
498.913	1	9
499.084	1	1
499.254	1	13
499.424	1	-11
499.594	1	2
499.765	1	4
499.935	1	5
500.105	1	6
500.275	1	15
500.446	1	8
500.616	1	2
500.786	1	9
500.956	1	3
501.127	1	7
501.297	1	5
501.467	1	1
501.638	1	2
501.808	1	2
501.978	1	6
502.148	1	-2
502.319	1	-2
502.489	1	3
502.659	1	3
502.829	1	2
503.000	1	7
503.170	1	6
503.340	1	-2
503.510	1	10
503.681	1	-2
503.851	1	-2
504.021	1	-2
504.191	1	8
504.362	1	15
504.532	1	10
504.702	1	10
504.872	1	9
505.042	1	4
505.213	1	5
505.383	1	4
505.553	1	1
505.723	1	23
505.894	1	10
506.064	1	12
506.234	1	5
506.404	1	9
506.575	1	-7
506.745	1	5
506.915	1	15
507.085	1	6
507.256	1	14
507.426	1	9
507.596	1	1
507.766	1	4
507.936	1	7
508.107	1	14
508.277	1	6
508.447	1	15
508.617	1	1
508.788	1	4
508.958	1	6
509.128	1	16
509.298	1	-1
509.468	1	2
509.639	1	13
509.809	1	4
509.979	1	7
510.149	1	16
510.319	1	15
510.490	1	11
510.660	1	0
510.830	1	20
511.000	1	10
511.171	1	19
511.341	1	-8
511.511	1	0
511.681	1	11
511.851	1	17
512.022	1	6
512.192	1	-3
512.362	1	6
512.532	1	10
512.702	1	14
512.873	1	1
513.043	1	25
513.213	1	14
513.383	1	10
513.553	1	8
513.724	1	-4
513.894	1	5
514.064	1	6
514.234	1	6
514.404	1	18
514.575	1	12
514.745	1	11
514.915	1	4
515.085	1	4
515.255	1	6
515.425	1	0
515.596	1	1
515.766	1	16
515.936	1	18
516.106	1	6
516.276	1	6
516.447	1	-6
516.617	1	6
516.787	1	14
516.957	1	4
517.127	1	5
517.297	1	9
517.468	1	5
517.638	1	17
517.808	1	2
517.978	1	6
518.148	1	15
518.319	1	4
518.489	1	7
518.659	1	6
518.829	1	16
518.999	1	8
519.169	1	8
519.340	1	3
519.510	1	2
519.680	1	13
519.850	1	20
520.020	1	3
520.190	1	14
520.361	1	3
520.531	1	15
520.701	1	8
520.871	1	-4
521.041	1	13
521.211	1	15
521.382	1	21
521.552	1	13
521.722	1	7
521.892	1	9
522.062	1	13
522.232	1	4
522.402	1	-1
522.573	1	3
522.743	1	15
522.913	1	12
523.083	1	14
523.253	1	18
523.423	1	17
523.593	1	17
523.764	1	8
523.934	1	2
524.104	1	9
524.274	1	9
524.444	1	12
524.614	1	13
524.784	1	13
524.955	1	11
525.125	1	2
525.295	1	5
525.465	1	4
525.635	1	4
525.805	1	7
525.975	1	20
526.146	1	7
526.316	1	4
526.486	1	14
526.656	1	0
526.826	1	11
526.996	1	8
527.166	1	18
527.337	1	17
527.507	1	10
527.677	1	3
527.847	1	9
528.017	1	13
528.187	1	15
528.357	1	10
528.527	1	5
528.698	1	-1
528.868	1	6
529.038	1	-1
529.208	1	12
529.378	1	4
529.548	1	6
529.718	1	13
529.888	1	11
530.058	1	8
530.229	1	17
530.399	1	5
530.569	1	11
530.739	1	10
530.909	1	3
531.079	1	8
531.249	1	15
531.419	1	16
531.589	1	14
531.760	1	3
531.930	1	7
532.100	1	15
532.270	1	9
532.440	1	16
532.610	1	8
532.780	1	8
532.950	1	16
533.120	1	17
533.290	1	13
533.461	1	1
533.631	1	9
533.801	1	25
533.971	1	15
534.141	1	8
534.311	1	9
534.481	1	4
534.651	1	7
534.821	1	24
534.991	1	10
535.162	1	12
535.332	1	14
535.502	1	13
535.672	1	6
535.842	1	7
536.012	1	8
536.182	1	24
536.352	1	10
536.522	1	7
536.692	1	12
536.862	1	15
537.032	1	16
537.203	1	1
537.373	1	14
537.543	1	14
537.713	1	10
537.883	1	4
538.053	1	-5
538.223	1	18
538.393	1	21
538.563	1	8
538.733	1	3
538.903	1	17
539.073	1	10
539.243	1	12
539.413	1	9
539.584	1	15
539.754	1	0
539.924	1	2
540.094	1	11
540.264	1	8
540.434	1	14
540.604	1	5
540.774	1	22
540.944	1	17
541.114	1	0
541.284	1	6
541.454	1	12
541.624	1	9
541.794	1	12
541.964	1	5
542.134	1	8
542.305	1	11
542.475	1	10
542.645	1	8
542.815	1	18
542.985	1	16
543.155	1	5
543.325	1	5
543.495	1	3
543.665	1	16
543.835	1	16
544.005	1	7
544.175	1	10
544.345	1	11
544.515	1	7
544.685	1	18
544.855	1	4
545.025	1	4
545.195	1	8
545.365	1	12
545.535	1	22
545.705	1	7
545.875	1	17
546.045	1	14
546.216	1	19
546.386	1	5
546.556	1	-2
546.726	1	12
546.896	1	13
547.066	1	2
547.236	1	2
547.406	1	-8
547.576	1	7
547.746	1	10
547.916	1	7
548.086	1	-1
548.256	1	6
548.426	1	9
548.596	1	16
548.766	1	11
548.936	1	14
549.106	1	2
549.276	1	5
549.446	1	11
549.616	1	10
549.786	1	10
549.956	1	-2
550.126	1	15
550.296	1	4
550.466	1	15
550.636	1	-5
550.806	1	2
550.976	1	-5
551.146	1	12
551.316	1	8
551.486	1	5
551.656	1	8
551.826	1	1
551.996	1	11
552.166	1	11
552.336	1	12
552.506	1	4
552.676	1	14
552.846	1	0
553.016	1	5
553.186	1	14
553.356	1	11
553.526	1	8
553.696	1	7
553.866	1	-5
554.036	1	9
554.206	1	12
554.376	1	15
554.546	1	2
554.716	1	3
554.886	1	3
555.056	1	14
555.226	1	9
555.396	1	-2
555.566	1	10
555.736	1	10
555.906	1	1
556.076	1	-1
556.246	1	10
556.416	1	9
556.586	1	7
556.756	1	7
556.926	1	17
557.096	1	8
557.266	1	7
557.436	1	2
557.606	1	8
557.776	1	1
557.946	1	2
558.116	1	8
558.286	1	19
558.456	1	11
558.626	1	-1
558.796	1	18
558.966	1	5
559.136	1	7
559.306	1	13
559.476	1	2
559.646	1	12
559.816	1	9
559.986	1	12
560.155	1	-5
560.325	1	-4
560.495	1	13
560.665	1	11
560.835	1	11
561.005	1	2
561.175	1	7
561.345	1	20
561.515	1	2
561.685	1	9
561.855	1	4
562.025	1	6
562.195	1	3
562.365	1	8
562.535	1	6
562.705	1	10
562.875	1	7
563.045	1	4
563.215	1	16
563.385	1	9
563.555	1	12
563.725	1	-2
563.895	1	11
564.064	1	12
564.234	1	13
564.404	1	4
564.574	1	16
564.744	1	4
564.914	1	10
565.084	1	11
565.254	1	-4
565.424	1	-3
565.594	1	0
565.764	1	9
565.934	1	14
566.104	1	6
566.274	1	9
566.444	1	14
566.614	1	6
566.783	1	10
566.953	1	0
567.123	1	14
567.293	1	12
567.463	1	5
567.633	1	-1
567.803	1	10
567.973	1	8
568.143	1	19
568.313	1	-2
568.483	1	2
568.653	1	-10
568.823	1	0
568.993	1	3
569.162	1	11
569.332	1	12
569.502	1	5
569.672	1	-6
569.842	1	1
570.012	1	2
570.182	1	1
570.352	1	-2
570.522	1	-20
570.692	1	12
570.862	1	19
571.031	1	1
571.201	1	8
571.371	1	-4
571.541	1	8
571.711	1	14
571.881	1	9
572.051	1	7
572.221	1	19
572.391	1	11
572.561	1	6
572.731	1	5
572.900	1	18
573.070	1	9
573.240	1	-5
573.410	1	-1
573.580	1	-4
573.750	1	1
573.920	1	-1
574.090	1	3
574.260	1	6
574.430	1	5
574.599	1	8
574.769	1	2
574.939	1	11
575.109	1	14
575.279	1	0
575.449	1	10
575.619	1	7
575.789	1	13
575.959	1	11
576.128	1	-3
576.298	1	0
576.468	1	1
576.638	1	7
576.808	1	-2
576.978	1	5
577.148	1	10
577.318	1	8
577.487	1	9
577.657	1	11
577.827	1	-2
577.997	1	8
578.167	1	5
578.337	1	8
578.507	1	-1
578.677	1	11
578.846	1	0
579.016	1	3
579.186	1	10
579.356	1	6
579.526	1	7
579.696	1	-1
579.866	1	7
580.036	1	-1
580.205	1	-3
580.375	1	-4
580.545	1	1
580.715	1	6
580.885	1	10
581.055	1	9
581.225	1	3
581.394	1	0
581.564	1	5
581.734	1	8
581.904	1	4
582.074	1	-6
582.244	1	5
582.414	1	-3
582.583	1	20
582.753	1	4
582.923	1	14
583.093	1	4
583.263	1	1
583.433	1	6
583.603	1	5
583.772	1	4
583.942	1	6
584.112	1	6
584.282	1	2
584.452	1	14
584.622	1	-8
584.791	1	7
584.961	1	-5
585.131	1	2
585.301	1	7
585.471	1	5
585.641	1	20
585.811	1	-5
585.980	1	1
586.150	1	17
586.320	1	8
586.490	1	6
586.660	1	-6
586.830	1	-6
586.999	1	0
587.169	1	17
587.339	1	-3
587.509	1	-3
587.679	1	15
587.849	1	11
588.018	1	6
588.188	1	9
588.358	1	-7
588.528	1	11
588.698	1	7
588.867	1	3
589.037	1	6
589.207	1	-2
589.377	1	5
589.547	1	6
589.717	1	-8
589.886	1	0
590.056	1	-4
590.226	1	11
590.396	1	3
590.566	1	2
590.735	1	9
590.905	1	1
591.075	1	5
591.245	1	6
591.415	1	7
591.585	1	7
591.754	1	-6
591.924	1	-6
592.094	1	7
592.264	1	9
592.434	1	3
592.603	1	4
592.773	1	7
592.943	1	5
593.113	1	2
593.283	1	-5
593.452	1	4
593.622	1	6
593.792	1	-6
593.962	1	13
594.132	1	0
594.301	1	-2
594.471	1	5
594.641	1	1
594.811	1	7
594.981	1	-9
595.150	1	-5
595.320	1	11
595.490	1	3
595.660	1	5
595.829	1	0
595.999	1	10
596.169	1	8
596.339	1	10
596.509	1	3
596.678	1	-3
596.848	1	6
597.018	1	0
597.188	1	2
597.358	1	2
597.527	1	2
597.697	1	3
597.867	1	6
598.037	1	4
598.206	1	2
598.376	1	-2
598.546	1	7
598.716	1	4
598.885	1	8
599.055	1	2
599.225	1	2
599.395	1	-3
599.565	1	1
599.734	1	1
599.904	1	-1
600.074	1	1
600.244	1	2
600.413	1	7
600.583	1	0
600.753	1	3
600.923	1	3
601.092	1	7
601.262	1	6
601.432	1	-1
601.602	1	-4
601.771	1	7
601.941	1	-4
602.111	1	2
602.281	1	7
602.451	1	13
602.620	1	2
602.790	1	-4
602.960	1	-3
603.130	1	9
603.299	1	6
603.469	1	8
603.639	1	-7
603.809	1	-1
603.978	1	3
604.148	1	12
604.318	1	-3
604.487	1	14
604.657	1	-5
604.827	1	7
604.997	1	15
605.166	1	10
605.336	1	7
605.506	1	-2
605.676	1	4
605.845	1	-2
606.015	1	-3
606.185	1	4
606.355	1	7
606.524	1	7
606.694	1	-11
606.864	1	20
607.034	1	2
607.203	1	-5
607.373	1	4
607.543	1	5
607.712	1	0
607.882	1	6
608.052	1	9
608.222	1	-2
608.391	1	13
608.561	1	-3
608.731	1	10
608.901	1	8
609.070	1	5
609.240	1	-7
609.410	1	2
609.579	1	16
609.749	1	6
609.919	1	8
610.089	1	-2
610.258	1	4
610.428	1	7
610.598	1	9
610.767	1	6
610.937	1	5
611.107	1	8
611.277	1	5
611.446	1	7
611.616	1	-5
611.786	1	5
611.955	1	0
612.125	1	4
612.295	1	9
612.465	1	-7
612.634	1	-6
612.804	1	14
612.974	1	9
613.143	1	2
613.313	1	2
613.483	1	-7
613.652	1	3
613.822	1	-4
613.992	1	0
614.162	1	3
614.331	1	5
614.501	1	15
614.671	1	-1
614.840	1	-11
615.010	1	1
615.180	1	5
615.349	1	0
615.519	1	3
615.689	1	7
615.858	1	-10
616.028	1	8
616.198	1	12
616.368	1	7
616.537	1	7
616.707	1	14
616.877	1	-3
617.046	1	7
617.216	1	1
617.386	1	-2
617.555	1	2
617.725	1	7
617.895	1	-1
618.064	1	7
618.234	1	-8
618.404	1	7
618.573	1	6
618.743	1	13
618.913	1	6
619.082	1	8
619.252	1	-9
619.422	1	8
619.591	1	0
619.761	1	2
619.931	1	-8
620.100	1	-2
620.270	1	5
620.440	1	9
620.609	1	-6
620.779	1	7
620.949	1	-3
621.118	1	1
621.288	1	5
621.458	1	9
621.627	1	9
621.797	1	1
621.967	1	1
622.136	1	-1
622.306	1	12
622.476	1	6
622.645	1	15
622.815	1	-3
622.985	1	7
623.154	1	7
623.324	1	-8
623.494	1	7
623.663	1	2
623.833	1	14
624.002	1	8
624.172	1	2
624.342	1	10
624.511	1	-1
624.681	1	4
624.851	1	3
625.020	1	8
625.190	1	2
625.360	1	4
625.529	1	4
625.699	1	0
625.869	1	10
626.038	1	7
626.208	1	1
626.377	1	1
626.547	1	0
626.717	1	9
626.886	1	3
627.056	1	2
627.226	1	0
627.395	1	-4
627.565	1	4
627.735	1	6
627.904	1	5
628.074	1	10
628.243	1	4
628.413	1	-2
628.583	1	-13
628.752	1	0
628.922	1	-6
629.091	1	-1
629.261	1	-10
629.431	1	7
629.600	1	5
629.770	1	-2
629.940	1	7
630.109	1	1
630.279	1	4
630.448	1	13
630.618	1	-5
630.788	1	-3
630.957	1	0
631.127	1	4
631.297	1	-3
631.466	1	14
631.636	1	6
631.805	1	7
631.975	1	3
632.145	1	-7
632.314	1	9
632.484	1	-5
632.653	1	2
632.823	1	-2
632.993	1	16
633.162	1	3
633.332	1	-1
633.501	1	13
633.671	1	-6
633.841	1	11
634.010	1	-6
634.180	1	13
634.349	1	6
634.519	1	7
634.689	1	14
634.858	1	9
635.028	1	8
635.197	1	2
635.367	1	5
635.537	1	2
635.706	1	2
635.876	1	12
636.045	1	22
636.215	1	9
636.384	1	-3
636.554	1	14
636.724	1	9
636.893	1	6
637.063	1	-3
637.232	1	-3
637.402	1	-4
637.572	1	-3
637.741	1	7
637.911	1	8
638.080	1	17
638.250	1	0
638.419	1	7
638.589	1	-4
638.759	1	5
638.928	1	-10
639.098	1	-4
639.267	1	8
639.437	1	9
639.606	1	1
639.776	1	7
639.946	1	8
640.115	1	12
640.285	1	7
640.454	1	4
640.624	1	-7
640.793	1	-6
640.963	1	0
641.132	1	12
641.302	1	10
641.472	1	6
641.641	1	4
641.811	1	1
641.980	1	5
642.150	1	4
642.319	1	8
642.489	1	-1
642.659	1	-4
642.828	1	5
642.998	1	10
643.167	1	5
643.337	1	-4
643.506	1	13
643.676	1	5
643.845	1	-7
644.015	1	6
644.184	1	-5
644.354	1	7
644.524	1	5
644.693	1	3
644.863	1	0
645.032	1	9
645.202	1	-1
645.371	1	4
645.541	1	6
645.710	1	6
645.880	1	16
646.049	1	1
646.219	1	13
646.388	1	2
646.558	1	8
646.728	1	8
646.897	1	-1
647.067	1	15
647.236	1	-2
647.406	1	8
647.575	1	-6
647.745	1	8
647.914	1	-11
648.084	1	-1
648.253	1	5
648.423	1	17
648.592	1	-1
648.762	1	-3
648.931	1	-1
649.101	1	-3
649.270	1	-1
649.440	1	6
649.610	1	3
649.779	1	4
649.949	1	3
650.118	1	-6
650.288	1	8
650.457	1	1
650.627	1	12
650.796	1	1
650.966	1	4
651.135	1	11
651.305	1	1
651.474	1	-3
651.644	1	0
651.813	1	7
651.983	1	-2
652.152	1	7
652.322	1	0
652.491	1	1
652.661	1	4
652.830	1	8
653.000	1	2
653.169	1	-10
653.339	1	-11
653.508	1	6
653.678	1	0
653.847	1	0
654.017	1	0
654.186	1	-2
654.356	1	7
654.525	1	9
654.695	1	2
654.864	1	0
655.034	1	1
655.203	1	3
655.373	1	2
655.542	1	-7
655.712	1	4
655.881	1	5
656.051	1	11
656.220	1	0
656.390	1	-1
656.559	1	3
656.729	1	2
656.898	1	-1
657.068	1	-2
657.237	1	0
657.406	1	6
657.576	1	-1
657.745	1	-7
657.915	1	17
658.084	1	-3
658.254	1	1
658.423	1	4
658.593	1	6
658.762	1	20
658.932	1	12
659.101	1	7
659.271	1	2
659.440	1	-2
659.610	1	9
659.779	1	3
659.949	1	-8
660.118	1	2
660.288	1	-5
660.457	1	2
660.626	1	3
660.796	1	12
660.965	1	3
661.135	1	4
661.304	1	4
661.474	1	6
661.643	1	8
661.813	1	-5
661.982	1	-7
662.152	1	-1
662.321	1	-6
662.491	1	14
662.660	1	4
662.829	1	16
662.999	1	1
663.168	1	-1
663.338	1	3
663.507	1	10
663.677	1	2
663.846	1	-2
664.016	1	3
664.185	1	0
664.354	1	15
664.524	1	-4
664.693	1	12
664.863	1	7
665.032	1	13
665.202	1	3
665.371	1	2
665.541	1	-2
665.710	1	2
665.879	1	3
666.049	1	4
666.218	1	5
666.388	1	4
666.557	1	5
666.727	1	-10
666.896	1	8
667.065	1	6
667.235	1	5
667.404	1	4
667.574	1	14
667.743	1	0
667.913	1	6
668.082	1	3
668.251	1	5
668.421	1	-2
668.590	1	8
668.760	1	5
668.929	1	5
669.099	1	-16
669.268	1	4
669.437	1	-4
669.607	1	-1
669.776	1	6
669.946	1	6
670.115	1	10
670.285	1	4
670.454	1	1
670.623	1	3
670.793	1	-2
670.962	1	-6
671.132	1	-2
671.301	1	1
671.470	1	7
671.640	1	2
671.809	1	2
671.979	1	7
672.148	1	-2
672.317	1	5
672.487	1	-10
672.656	1	-4
672.826	1	6
672.995	1	2
673.164	1	6
673.334	1	-9
673.503	1	-1
673.673	1	0
673.842	1	3
674.011	1	7
674.181	1	1
674.350	1	10
674.520	1	0
674.689	1	9
674.858	1	-2
675.028	1	9
675.197	1	0
675.367	1	4
675.536	1	13
675.705	1	15
675.875	1	2
676.044	1	4
676.214	1	10
676.383	1	4
676.552	1	6
676.722	1	-2
676.891	1	3
677.060	1	5
677.230	1	1
677.399	1	-4
677.569	1	1
677.738	1	2
677.907	1	4
678.077	1	6
678.246	1	7
678.416	1	1
678.585	1	4
678.754	1	11
678.924	1	3
679.093	1	8
679.262	1	6
679.432	1	5
679.601	1	11
679.771	1	12
679.940	1	-3
680.109	1	0
680.279	1	-14
680.448	1	5
680.617	1	-8
680.787	1	6
680.956	1	3
681.125	1	19
681.295	1	4
681.464	1	-2
681.634	1	12
681.803	1	1
681.972	1	1
682.142	1	-4
682.311	1	-6
682.480	1	10
682.650	1	-1
682.819	1	4
682.988	1	0
683.158	1	1
683.327	1	3
683.496	1	-1
683.666	1	7
683.835	1	-12
684.004	1	7
684.174	1	3
684.343	1	-9
684.512	1	6
684.682	1	2
684.851	1	1
685.021	1	6
685.190	1	6
685.359	1	-12
685.529	1	-4
685.698	1	-3
685.867	1	7
686.037	1	3
686.206	1	6
686.375	1	-6
686.545	1	6
686.714	1	-9
686.883	1	-2
687.053	1	5
687.222	1	5
687.391	1	11
687.561	1	16
687.730	1	4
687.899	1	-1
688.069	1	2
688.238	1	5
688.407	1	11
688.577	1	-3
688.746	1	3
