340.368	1	7
340.539	1	8
340.710	1	7
340.881	1	11
341.052	1	-1
341.223	1	-8
341.394	1	-2
341.565	1	7
341.737	1	6
341.908	1	7
342.079	1	1
342.250	1	10
342.421	1	7
342.592	1	-1
342.763	1	2
342.934	1	11
343.105	1	6
343.276	1	0
343.447	1	7
343.618	1	2
343.789	1	3
343.960	1	-12
344.131	1	0
344.302	1	5
344.473	1	0
344.644	1	3
344.815	1	-16
344.986	1	9
345.157	1	-1
345.328	1	14
345.499	1	-2
345.670	1	4
345.841	1	2
346.012	1	13
346.183	1	7
346.354	1	14
346.526	1	2
346.697	1	1
346.868	1	7
347.039	1	-1
347.210	1	7
347.381	1	9
347.552	1	5
347.723	1	11
347.894	1	5
348.065	1	4
348.236	1	-2
348.407	1	-2
348.578	1	7
348.749	1	8
348.920	1	3
349.091	1	7
349.262	1	8
349.433	1	9
349.604	1	3
349.775	1	9
349.946	1	10
350.117	1	21
350.288	1	2
350.459	1	-5
350.630	1	13
350.801	1	0
350.972	1	12
351.143	1	8
351.314	1	3
351.485	1	12
351.656	1	15
351.827	1	1
351.998	1	-4
352.169	1	9
352.340	1	17
352.511	1	9
352.682	1	2
352.853	1	12
353.024	1	-1
353.195	1	8
353.366	1	10
353.537	1	-1
353.708	1	3
353.879	1	3
354.050	1	8
354.221	1	1
354.392	1	8
354.563	1	4
354.734	1	11
354.905	1	11
355.076	1	4
355.247	1	11
355.418	1	9
355.589	1	8
355.760	1	10
355.931	1	9
356.102	1	2
356.273	1	12
356.444	1	0
356.615	1	8
356.785	1	11
356.956	1	16
357.127	1	2
357.298	1	2
357.469	1	6
357.640	1	7
357.811	1	17
357.982	1	6
358.153	1	13
358.324	1	7
358.495	1	10
358.666	1	11
358.837	1	10
359.008	1	16
359.179	1	12
359.350	1	15
359.521	1	13
359.692	1	16
359.863	1	12
360.034	1	20
360.205	1	25
360.376	1	17
360.547	1	5
360.718	1	28
360.889	1	17
361.060	1	13
361.231	1	15
361.401	1	22
361.572	1	26
361.743	1	24
361.914	1	27
362.085	1	27
362.256	1	22
362.427	1	34
362.598	1	25
362.769	1	32
362.940	1	21
363.111	1	38
363.282	1	37
363.453	1	33
363.624	1	35
363.795	1	39
363.966	1	45
364.137	1	35
364.308	1	50
364.478	1	41
364.649	1	43
364.820	1	43
364.991	1	56
365.162	1	55
365.333	1	43
365.504	1	53
365.675	1	51
365.846	1	46
366.017	1	68
366.188	1	56
366.359	1	60
366.530	1	55
366.701	1	62
366.871	1	66
367.042	1	67
367.213	1	62
367.384	1	74
367.555	1	66
367.726	1	72
367.897	1	65
368.068	1	68
368.239	1	65
368.410	1	65
368.581	1	73
368.752	1	76
368.923	1	71
369.093	1	66
369.264	1	59
369.435	1	53
369.606	1	71
369.777	1	64
369.948	1	67
370.119	1	64
370.290	1	64
370.461	1	58
370.632	1	56
370.803	1	61
370.973	1	43
371.144	1	56
371.315	1	50
371.486	1	50
371.657	1	45
371.828	1	60
371.999	1	40
372.170	1	30
372.341	1	62
372.512	1	50
372.682	1	46
372.853	1	39
373.024	1	47
373.195	1	41
373.366	1	47
373.537	1	41
373.708	1	41
373.879	1	32
374.050	1	42
374.220	1	38
374.391	1	31
374.562	1	38
374.733	1	40
374.904	1	44
375.075	1	44
375.246	1	38
375.417	1	25
375.588	1	31
375.758	1	22
375.929	1	24
376.100	1	41
376.271	1	40
376.442	1	32
376.613	1	33
376.784	1	32
376.955	1	33
377.125	1	31
377.296	1	27
377.467	1	36
377.638	1	8
377.809	1	31
377.980	1	25
378.151	1	28
378.321	1	26
378.492	1	31
378.663	1	19
378.834	1	18
379.005	1	27
379.176	1	24
379.347	1	23
379.518	1	19
379.688	1	14
379.859	1	20
380.030	1	13
380.201	1	20
380.372	1	26
380.543	1	19
380.714	1	20
380.884	1	15
381.055	1	13
381.226	1	20
381.397	1	24
381.568	1	18
381.739	1	25
381.910	1	18
382.080	1	13
382.251	1	13
382.422	1	32
382.593	1	20
382.764	1	20
382.935	1	24
383.105	1	17
383.276	1	6
383.447	1	19
383.618	1	25
383.789	1	18
383.960	1	11
384.130	1	13
384.301	1	16
384.472	1	10
384.643	1	16
384.814	1	16
384.985	1	25
385.156	1	19
385.326	1	11
385.497	1	12
385.668	1	15
385.839	1	24
386.010	1	17
386.180	1	27
386.351	1	5
386.522	1	17
386.693	1	9
386.864	1	20
387.035	1	24
387.205	1	10
387.376	1	7
387.547	1	23
387.718	1	12
387.889	1	10
388.060	1	13
388.230	1	10
388.401	1	11
388.572	1	10
388.743	1	25
388.914	1	17
389.084	1	15
389.255	1	15
389.426	1	17
389.597	1	7
389.768	1	9
389.939	1	9
390.109	1	12
390.280	1	24
390.451	1	18
390.622	1	9
390.793	1	10
390.963	1	16
391.134	1	8
391.305	1	18
391.476	1	12
391.647	1	14
391.817	1	15
391.988	1	11
392.159	1	10
392.330	1	3
392.501	1	16
392.671	1	15
392.842	1	15
393.013	1	12
393.184	1	14
393.355	1	19
393.525	1	7
393.696	1	11
393.867	1	11
394.038	1	11
394.208	1	5
394.379	1	12
394.550	1	16
394.721	1	19
394.892	1	8
395.062	1	6
395.233	1	4
395.404	1	-1
395.575	1	11
395.746	1	13
395.916	1	17
396.087	1	21
396.258	1	10
396.429	1	13
396.599	1	13
396.770	1	15
396.941	1	11
397.112	1	9
397.283	1	7
397.453	1	21
397.624	1	13
397.795	1	8
397.966	1	24
398.136	1	14
398.307	1	15
398.478	1	10
398.649	1	5
398.819	1	-5
398.990	1	3
399.161	1	15
399.332	1	19
399.503	1	19
399.673	1	15
399.844	1	13
400.015	1	10
400.186	1	5
400.356	1	12
400.527	1	13
400.698	1	9
400.869	1	18
401.039	1	12
401.210	1	7
401.381	1	8
401.552	1	21
401.722	1	11
401.893	1	2
402.064	1	0
402.235	1	11
402.405	1	15
402.576	1	9
402.747	1	18
402.918	1	13
403.088	1	5
403.259	1	4
403.430	1	15
403.601	1	18
403.771	1	12
403.942	1	12
404.113	1	3
404.284	1	7
404.454	1	10
404.625	1	11
404.796	1	7
404.967	1	14
405.137	1	10
405.308	1	-2
405.479	1	8
405.649	1	16
405.820	1	11
405.991	1	9
406.162	1	4
406.332	1	9
406.503	1	9
406.674	1	13
406.845	1	4
407.015	1	8
407.186	1	13
407.357	1	2
407.527	1	10
407.698	1	8
407.869	1	11
408.040	1	12
408.210	1	11
408.381	1	13
408.552	1	12
408.722	1	9
408.893	1	10
409.064	1	15
409.235	1	3
409.405	1	13
409.576	1	12
409.747	1	7
409.917	1	10
410.088	1	22
410.259	1	13
410.430	1	22
410.600	1	8
410.771	1	-1
410.942	1	3
411.112	1	16
411.283	1	4
411.454	1	16
411.625	1	10
411.795	1	18
411.966	1	12
412.137	1	7
412.307	1	0
412.478	1	-1
412.649	1	14
412.819	1	0
412.990	1	-4
413.161	1	14
413.332	1	2
413.502	1	23
413.673	1	1
413.844	1	1
414.014	1	10
414.185	1	12
414.356	1	16
414.526	1	0
414.697	1	6
414.868	1	9
415.038	1	9
415.209	1	5
415.380	1	14
415.550	1	9
415.721	1	4
415.892	1	16
416.063	1	8
416.233	1	14
416.404	1	11
416.575	1	7
416.745	1	0
416.916	1	3
417.087	1	13
417.257	1	8
417.428	1	8
417.599	1	9
417.769	1	11
417.940	1	8
418.111	1	23
418.281	1	7
418.452	1	7
418.623	1	13
418.793	1	3
418.964	1	7
419.135	1	10
419.305	1	5
419.476	1	9
419.647	1	9
419.817	1	7
419.988	1	23
420.159	1	12
420.329	1	7
420.500	1	10
420.671	1	8
420.841	1	10
421.012	1	7
421.183	1	18
421.353	1	5
421.524	1	1
421.695	1	9
421.865	1	0
422.036	1	17
422.206	1	8
422.377	1	11
422.548	1	16
422.718	1	5
422.889	1	12
423.060	1	-2
423.230	1	4
423.401	1	17
423.572	1	7
423.742	1	11
423.913	1	15
424.084	1	15
424.254	1	15
424.425	1	16
424.595	1	14
424.766	1	16
424.937	1	4
425.107	1	14
425.278	1	7
425.449	1	13
425.619	1	8
425.790	1	13
425.961	1	10
426.131	1	16
426.302	1	11
426.472	1	9
426.643	1	8
426.814	1	1
426.984	1	11
427.155	1	3
427.326	1	3
427.496	1	12
427.667	1	-1
427.837	1	13
428.008	1	0
428.179	1	5
428.349	1	14
428.520	1	14
428.691	1	6
428.861	1	3
429.032	1	-1
429.202	1	9
429.373	1	12
429.544	1	14
429.714	1	4
429.885	1	6
430.055	1	6
430.226	1	13
430.397	1	4
430.567	1	16
430.738	1	-5
430.909	1	11
431.079	1	21
431.250	1	9
431.420	1	11
431.591	1	5
431.762	1	5
431.932	1	8
432.103	1	-3
432.273	1	13
432.444	1	10
432.615	1	16
432.785	1	2
432.956	1	2
433.126	1	13
433.297	1	13
433.468	1	10
433.638	1	6
433.809	1	9
433.979	1	5
434.150	1	6
434.320	1	10
434.491	1	13
434.662	1	12
434.832	1	7
435.003	1	16
435.173	1	9
435.344	1	8
435.515	1	6
435.685	1	-6
435.856	1	7
436.026	1	11
436.197	1	12
436.368	1	12
436.538	1	2
436.709	1	-7
436.879	1	7
437.050	1	6
437.220	1	1
437.391	1	14
437.562	1	9
437.732	1	5
437.903	1	-1
438.073	1	18
438.244	1	7
438.414	1	-8
438.585	1	6
438.756	1	8
438.926	1	5
439.097	1	20
439.267	1	8
439.438	1	7
439.608	1	14
439.779	1	11
439.949	1	9
440.120	1	5
440.291	1	8
440.461	1	17
440.632	1	3
440.802	1	-4
440.973	1	5
441.143	1	3
441.314	1	16
441.485	1	13
441.655	1	6
441.826	1	2
441.996	1	12
442.167	1	8
442.337	1	10
442.508	1	4
442.678	1	5
442.849	1	8
443.019	1	7
443.190	1	11
443.361	1	3
443.531	1	3
443.702	1	13
443.872	1	9
444.043	1	7
444.213	1	1
444.384	1	6
444.554	1	5
444.725	1	5
444.895	1	11
445.066	1	11
445.237	1	-1
445.407	1	-3
445.578	1	3
445.748	1	17
445.919	1	0
446.089	1	2
446.260	1	6
446.430	1	4
446.601	1	-4
446.771	1	18
446.942	1	17
447.112	1	-3
447.283	1	13
447.453	1	8
447.624	1	10
447.794	1	15
447.965	1	8
448.135	1	10
448.306	1	7
448.477	1	1
448.647	1	19
448.818	1	-1
448.988	1	8
449.159	1	11
449.329	1	10
449.500	1	4
449.670	1	7
449.841	1	-3
450.011	1	-2
450.182	1	10
450.352	1	8
450.523	1	12
450.693	1	6
450.864	1	2
451.034	1	1
451.205	1	1
451.375	1	15
451.546	1	5
451.716	1	-5
451.887	1	3
452.057	1	11
452.228	1	3
452.398	1	-4
452.569	1	7
452.739	1	11
452.910	1	10
453.080	1	5
453.251	1	17
453.421	1	7
453.592	1	11
453.762	1	6
453.933	1	11
454.103	1	7
454.274	1	8
454.444	1	-1
454.615	1	-4
454.785	1	12
454.956	1	3
455.126	1	-2
455.297	1	7
455.467	1	1
455.638	1	9
455.808	1	12
455.979	1	13
456.149	1	-1
456.320	1	5
456.490	1	10
456.661	1	2
456.831	1	12
457.001	1	2
457.172	1	12
457.342	1	5
457.513	1	-7
457.683	1	6
457.854	1	6
458.024	1	24
458.195	1	1
458.365	1	7
458.536	1	3
458.706	1	14
458.877	1	25
459.047	1	-8
459.218	1	13
459.388	1	5
459.559	1	2
459.729	1	4
459.899	1	2
460.070	1	6
460.240	1	15
460.411	1	13
460.581	1	-3
460.752	1	4
460.922	1	10
461.093	1	16
461.263	1	8
461.434	1	5
461.604	1	0
461.775	1	-6
461.945	1	11
462.115	1	4
462.286	1	10
462.456	1	7
462.627	1	1
462.797	1	3
462.968	1	-4
463.138	1	4
463.309	1	6
463.479	1	14
463.649	1	1
463.820	1	-4
463.990	1	9
464.161	1	-4
464.331	1	3
464.502	1	4
464.672	1	6
464.843	1	2
465.013	1	-2
465.183	1	9
465.354	1	3
465.524	1	0
465.695	1	18
465.865	1	-2
466.036	1	11
466.206	1	10
466.376	1	7
466.547	1	1
466.717	1	4
466.888	1	0
467.058	1	4
467.229	1	3
467.399	1	10
467.569	1	8
467.740	1	14
467.910	1	1
468.081	1	13
468.251	1	14
468.422	1	6
468.592	1	8
468.762	1	-1
468.933	1	11
469.103	1	7
469.274	1	9
469.444	1	7
469.614	1	8
469.785	1	5
469.955	1	0
470.126	1	0
470.296	1	-3
470.467	1	0
470.637	1	10
470.807	1	5
470.978	1	-1
471.148	1	-1
471.319	1	12
471.489	1	3
471.659	1	4
471.830	1	2
472.000	1	10
472.171	1	8
472.341	1	-4
472.511	1	13
472.682	1	22
472.852	1	13
473.023	1	13
473.193	1	5
473.363	1	17
473.534	1	1
473.704	1	2
473.875	1	14
474.045	1	-1
474.215	1	8
474.386	1	12
474.556	1	10
474.727	1	7
474.897	1	-3
475.067	1	14
475.238	1	25
475.408	1	6
475.578	1	4
475.749	1	10
475.919	1	10
476.090	1	11
476.260	1	8
476.430	1	3
476.601	1	3
476.771	1	-12
476.942	1	11
477.112	1	5
477.282	1	18
477.453	1	12
477.623	1	4
477.793	1	5
477.964	1	-1
478.134	1	14
478.305	1	17
478.475	1	5
478.645	1	-1
478.816	1	5
478.986	1	0
479.156	1	-4
479.327	1	0
479.497	1	8
479.667	1	9
479.838	1	8
480.008	1	-2
480.179	1	8
480.349	1	0
480.519	1	-12
480.690	1	2
480.860	1	15
481.030	1	0
481.201	1	12
481.371	1	8
481.541	1	6
481.712	1	9
481.882	1	3
482.053	1	8
482.223	1	4
482.393	1	1
482.564	1	7
482.734	1	-2
482.904	1	10
483.075	1	13
483.245	1	4
483.415	1	4
483.586	1	5
483.756	1	9
483.926	1	11
484.097	1	-1
484.267	1	7
484.437	1	0
484.608	1	16
484.778	1	12
484.948	1	1
485.119	1	18
485.289	1	6
485.459	1	-7
485.630	1	1
485.800	1	7
485.970	1	11
486.141	1	1
486.311	1	25
486.481	1	7
486.652	1	8
486.822	1	5
486.992	1	6
487.163	1	10
487.333	1	4
487.503	1	1
487.674	1	5
487.844	1	3
488.014	1	21
488.185	1	6
488.355	1	12
488.525	1	9
488.696	1	1
488.866	1	14
489.036	1	12
489.207	1	6
489.377	1	9
489.547	1	9
489.718	1	16
489.888	1	15
490.058	1	6
490.228	1	8
490.399	1	10
490.569	1	6
490.739	1	21
490.910	1	-3
491.080	1	12
491.250	1	17
491.421	1	14
491.591	1	5
491.761	1	5
491.932	1	13
492.102	1	11
492.272	1	7
492.442	1	11
492.613	1	3
492.783	1	5
492.953	1	21
493.124	1	13
493.294	1	12
493.464	1	6
493.635	1	14
493.805	1	11
493.975	1	7
494.145	1	12
494.316	1	15
494.486	1	23
494.656	1	14
494.827	1	5
494.997	1	6
495.167	1	10
495.337	1	8
495.508	1	-2
495.678	1	2
495.848	1	9
496.019	1	10
496.189	1	13
496.359	1	14
496.529	1	20
496.700	1	5
496.870	1	9
497.040	1	16
497.211	1	4
497.381	1	5
497.551	1	19
497.721	1	13
497.892	1	10
498.062	1	4
498.232	1	18
498.403	1	8
498.573	1	19
498.743	1	18
498.913	1	13
499.084	1	18
499.254	1	14
499.424	1	-2
499.594	1	17
499.765	1	9
499.935	1	6
500.105	1	10
500.275	1	19
500.446	1	11
500.616	1	10
500.786	1	13
500.956	1	15
501.127	1	18
501.297	1	6
501.467	1	14
501.638	1	13
501.808	1	5
501.978	1	18
502.148	1	17
502.319	1	19
502.489	1	15
502.659	1	16
502.829	1	13
503.000	1	25
503.170	1	9
503.340	1	13
503.510	1	18
503.681	1	12
503.851	1	12
504.021	1	16
504.191	1	17
504.362	1	16
504.532	1	14
504.702	1	15
504.872	1	20
505.042	1	20
505.213	1	25
505.383	1	17
505.553	1	12
505.723	1	27
505.894	1	21
506.064	1	22
506.234	1	13
506.404	1	12
506.575	1	21
506.745	1	14
506.915	1	22
507.085	1	15
507.256	1	22
507.426	1	11
507.596	1	18
507.766	1	27
507.936	1	8
508.107	1	17
508.277	1	12
508.447	1	28
508.617	1	-2
508.788	1	25
508.958	1	16
509.128	1	22
509.298	1	28
509.468	1	21
509.639	1	16
509.809	1	15
509.979	1	22
510.149	1	16
510.319	1	30
510.490	1	16
510.660	1	13
510.830	1	22
511.000	1	22
511.171	1	19
511.341	1	15
511.511	1	14
511.681	1	26
511.851	1	28
512.022	1	23
512.192	1	11
512.362	1	17
512.532	1	17
512.702	1	24
512.873	1	22
513.043	1	19
513.213	1	24
513.383	1	22
513.553	1	27
513.724	1	15
513.894	1	19
514.064	1	10
514.234	1	19
514.404	1	25
514.575	1	16
514.745	1	24
514.915	1	14
515.085	1	20
515.255	1	27
515.425	1	19
515.596	1	19
515.766	1	29
515.936	1	25
516.106	1	10
516.276	1	17
516.447	1	19
516.617	1	26
516.787	1	23
516.957	1	18
517.127	1	22
517.297	1	12
517.468	1	25
517.638	1	30
517.808	1	28
517.978	1	20
518.148	1	14
518.319	1	17
518.489	1	27
518.659	1	22
518.829	1	31
518.999	1	15
519.169	1	25
519.340	1	16
519.510	1	21
519.680	1	26
519.850	1	22
520.020	1	15
520.190	1	23
520.361	1	17
520.531	1	44
520.701	1	16
520.871	1	15
521.041	1	37
521.211	1	29
521.382	1	29
521.552	1	26
521.722	1	18
521.892	1	26
522.062	1	25
522.232	1	18
522.402	1	10
522.573	1	18
522.743	1	27
522.913	1	35
523.083	1	16
523.253	1	27
523.423	1	27
523.593	1	24
523.764	1	18
523.934	1	11
524.104	1	24
524.274	1	10
524.444	1	30
524.614	1	33
524.784	1	28
524.955	1	34
525.125	1	26
525.295	1	21
525.465	1	30
525.635	1	26
525.805	1	18
525.975	1	36
526.146	1	27
526.316	1	17
526.486	1	30
526.656	1	29
526.826	1	30
526.996	1	22
527.166	1	37
527.337	1	29
527.507	1	32
527.677	1	22
527.847	1	22
528.017	1	39
528.187	1	34
528.357	1	22
528.527	1	31
528.698	1	20
528.868	1	23
529.038	1	16
529.208	1	18
529.378	1	37
529.548	1	19
529.718	1	36
529.888	1	28
530.058	1	27
530.229	1	29
530.399	1	31
530.569	1	30
530.739	1	17
530.909	1	31
531.079	1	32
531.249	1	25
531.419	1	36
531.589	1	31
531.760	1	24
531.930	1	36
532.100	1	32
532.270	1	22
532.440	1	36
532.610	1	20
532.780	1	27
532.950	1	26
533.120	1	35
533.290	1	44
533.461	1	23
533.631	1	26
533.801	1	37
533.971	1	20
534.141	1	24
534.311	1	37
534.481	1	22
534.651	1	38
534.821	1	41
534.991	1	22
535.162	1	29
535.332	1	35
535.502	1	24
535.672	1	23
535.842	1	38
536.012	1	20
536.182	1	26
536.352	1	37
536.522	1	25
536.692	1	24
536.862	1	16
537.032	1	34
537.203	1	10
537.373	1	24
537.543	1	28
537.713	1	31
537.883	1	24
538.053	1	13
538.223	1	35
538.393	1	40
538.563	1	34
538.733	1	30
538.903	1	25
539.073	1	28
539.243	1	24
539.413	1	26
539.584	1	25
539.754	1	17
539.924	1	20
540.094	1	21
540.264	1	17
540.434	1	27
540.604	1	29
540.774	1	24
540.944	1	39
541.114	1	10
541.284	1	15
541.454	1	25
541.624	1	20
541.794	1	15
541.964	1	11
542.134	1	25
542.305	1	22
542.475	1	17
542.645	1	21
542.815	1	23
542.985	1	31
543.155	1	18
543.325	1	19
543.495	1	25
543.665	1	27
543.835	1	22
544.005	1	28
544.175	1	21
544.345	1	16
544.515	1	28
544.685	1	25
544.855	1	13
545.025	1	19
545.195	1	13
545.365	1	32
545.535	1	26
545.705	1	25
545.875	1	30
546.045	1	18
546.216	1	27
546.386	1	14
546.556	1	16
546.726	1	14
546.896	1	25
547.066	1	17
547.236	1	14
547.406	1	12
547.576	1	25
547.746	1	21
547.916	1	20
548.086	1	20
548.256	1	9
548.426	1	16
548.596	1	27
548.766	1	10
548.936	1	32
549.106	1	6
549.276	1	21
549.446	1	13
549.616	1	11
549.786	1	31
549.956	1	12
550.126	1	28
550.296	1	22
550.466	1	31
550.636	1	12
550.806	1	20
550.976	1	10
551.146	1	17
551.316	1	16
551.486	1	13
551.656	1	17
551.826	1	15
551.996	1	16
552.166	1	16
552.336	1	22
552.506	1	21
552.676	1	33
552.846	1	22
553.016	1	15
553.186	1	14
553.356	1	36
553.526	1	22
553.696	1	15
553.866	1	6
554.036	1	17
554.206	1	22
554.376	1	25
554.546	1	23
554.716	1	21
554.886	1	18
555.056	1	16
555.226	1	17
555.396	1	15
555.566	1	18
555.736	1	22
555.906	1	11
556.076	1	12
556.246	1	17
556.416	1	21
556.586	1	17
556.756	1	13
556.926	1	17
557.096	1	19
557.266	1	18
557.436	1	11
557.606	1	14
557.776	1	12
557.946	1	16
558.116	1	15
558.286	1	21
558.456	1	15
558.626	1	0
558.796	1	26
558.966	1	19
559.136	1	10
559.306	1	13
559.476	1	15
559.646	1	17
559.816	1	16
559.986	1	12
560.155	1	12
560.325	1	6
560.495	1	13
560.665	1	15
560.835	1	16
561.005	1	11
561.175	1	15
561.345	1	15
561.515	1	17
561.685	1	22
561.855	1	2
562.025	1	5
562.195	1	9
562.365	1	24
562.535	1	17
562.705	1	15
562.875	1	5
563.045	1	9
563.215	1	15
563.385	1	17
563.555	1	21
563.725	1	12
563.895	1	13
564.064	1	21
564.234	1	20
564.404	1	9
564.574	1	22
564.744	1	3
564.914	1	8
565.084	1	7
565.254	1	6
565.424	1	8
565.594	1	9
565.764	1	23
565.934	1	18
566.104	1	12
566.274	1	10
566.444	1	17
566.614	1	20
566.783	1	15
566.953	1	5
567.123	1	11
567.293	1	25
567.463	1	8
567.633	1	10
567.803	1	20
567.973	1	13
568.143	1	18
568.313	1	10
568.483	1	22
568.653	1	6
568.823	1	4
568.993	1	1
569.162	1	11
569.332	1	15
569.502	1	5
569.672	1	3
569.842	1	8
570.012	1	8
570.182	1	17
570.352	1	7
570.522	1	6
570.692	1	14
570.862	1	19
571.031	1	19
571.201	1	8
571.371	1	6
571.541	1	8
571.711	1	17
571.881	1	9
572.051	1	14
572.221	1	14
572.391	1	9
572.561	1	13
572.731	1	18
572.900	1	4
573.070	1	17
573.240	1	3
573.410	1	9
573.580	1	10
573.750	1	10
573.920	1	20
574.090	1	6
574.260	1	16
574.430	1	17
574.599	1	19
574.769	1	12
574.939	1	13
575.109	1	19
575.279	1	1
575.449	1	16
575.619	1	18
575.789	1	17
575.959	1	15
576.128	1	20
576.298	1	13
576.468	1	9
576.638	1	4
576.808	1	12
576.978	1	2
577.148	1	9
577.318	1	21
577.487	1	10
577.657	1	18
577.827	1	-1
577.997	1	19
578.167	1	7
578.337	1	10
578.507	1	3
578.677	1	16
578.846	1	7
579.016	1	11
579.186	1	17
579.356	1	22
579.526	1	11
579.696	1	0
579.866	1	8
580.036	1	16
580.205	1	7
580.375	1	12
580.545	1	3
580.715	1	21
580.885	1	13
581.055	1	6
581.225	1	3
581.394	1	7
581.564	1	3
581.734	1	7
581.904	1	10
582.074	1	5
582.244	1	6
582.414	1	6
582.583	1	19
582.753	1	11
582.923	1	6
583.093	1	5
583.263	1	2
583.433	1	11
583.603	1	11
583.772	1	11
583.942	1	1
584.112	1	13
584.282	1	8
584.452	1	21
584.622	1	1
584.791	1	7
584.961	1	4
585.131	1	12
585.301	1	1
585.471	1	5
585.641	1	14
585.811	1	8
585.980	1	-2
586.150	1	12
586.320	1	2
586.490	1	11
586.660	1	-3
586.830	1	-6
586.999	1	0
587.169	1	12
587.339	1	10
587.509	1	2
587.679	1	12
587.849	1	8
588.018	1	15
588.188	1	16
588.358	1	-4
588.528	1	20
588.698	1	11
588.867	1	0
589.037	1	7
589.207	1	10
589.377	1	10
589.547	1	8
589.717	1	7
589.886	1	15
590.056	1	5
590.226	1	14
590.396	1	7
590.566	1	2
590.735	1	10
590.905	1	11
591.075	1	15
591.245	1	1
591.415	1	19
591.585	1	17
591.754	1	4
591.924	1	5
592.094	1	6
592.264	1	7
592.434	1	6
592.603	1	1
592.773	1	12
592.943	1	14
593.113	1	10
593.283	1	4
593.452	1	3
593.622	1	16
593.792	1	4
593.962	1	18
594.132	1	8
594.301	1	-4
594.471	1	7
594.641	1	2
594.811	1	12
594.981	1	-5
595.150	1	8
595.320	1	4
595.490	1	7
595.660	1	5
595.829	1	12
595.999	1	2
596.169	1	18
596.339	1	12
596.509	1	9
596.678	1	-1
596.848	1	6
597.018	1	5
597.188	1	8
597.358	1	-1
597.527	1	4
597.697	1	3
597.867	1	4
598.037	1	8
598.206	1	14
598.376	1	-3
598.546	1	10
598.716	1	6
598.885	1	10
599.055	1	1
599.225	1	5
599.395	1	1
599.565	1	8
599.734	1	2
599.904	1	0
600.074	1	5
600.244	1	6
600.413	1	17
600.583	1	2
600.753	1	4
600.923	1	3
601.092	1	5
601.262	1	7
601.432	1	-1
601.602	1	4
601.771	1	11
601.941	1	2
602.111	1	2
602.281	1	6
602.451	1	10
602.620	1	1
602.790	1	1
602.960	1	-4
603.130	1	11
603.299	1	11
603.469	1	2
603.639	1	-5
603.809	1	7
603.978	1	3
604.148	1	15
604.318	1	7
604.487	1	18
604.657	1	-7
604.827	1	-1
604.997	1	16
605.166	1	18
605.336	1	12
605.506	1	6
605.676	1	3
605.845	1	8
606.015	1	0
606.185	1	9
606.355	1	12
606.524	1	11
606.694	1	-12
606.864	1	16
607.034	1	11
607.203	1	12
607.373	1	-2
607.543	1	0
607.712	1	11
607.882	1	14
608.052	1	-1
608.222	1	-4
608.391	1	7
608.561	1	-3
608.731	1	5
608.901	1	5
609.070	1	12
609.240	1	-7
609.410	1	9
609.579	1	13
609.749	1	12
609.919	1	18
610.089	1	3
610.258	1	7
610.428	1	6
610.598	1	4
610.767	1	-2
610.937	1	9
611.107	1	5
611.277	1	11
611.446	1	13
611.616	1	0
611.786	1	5
611.955	1	-1
612.125	1	13
612.295	1	9
612.465	1	5
612.634	1	4
612.804	1	15
612.974	1	10
613.143	1	13
613.313	1	4
613.483	1	-1
613.652	1	11
613.822	1	-1
613.992	1	5
614.162	1	9
614.331	1	8
614.501	1	20
614.671	1	4
614.840	1	6
615.010	1	-4
615.180	1	15
615.349	1	3
615.519	1	7
615.689	1	17
615.858	1	-10
616.028	1	8
616.198	1	13
616.368	1	7
616.537	1	9
616.707	1	15
616.877	1	-7
617.046	1	8
617.216	1	8
617.386	1	2
617.555	1	3
617.725	1	1
617.895	1	15
618.064	1	7
618.234	1	4
618.404	1	2
618.573	1	10
618.743	1	7
618.913	1	5
619.082	1	-1
619.252	1	-1
619.422	1	10
619.591	1	6
619.761	1	4
619.931	1	-8
620.100	1	-1
620.270	1	6
620.440	1	5
620.609	1	-4
620.779	1	6
620.949	1	-2
621.118	1	9
621.288	1	6
621.458	1	11
621.627	1	13
621.797	1	4
621.967	1	13
622.136	1	0
622.306	1	7
622.476	1	12
622.645	1	14
622.815	1	4
622.985	1	6
623.154	1	6
623.324	1	0
623.494	1	12
623.663	1	-1
623.833	1	12
624.002	1	13
624.172	1	2
624.342	1	4
624.511	1	11
624.681	1	7
624.851	1	-2
625.020	1	7
625.190	1	2
625.360	1	11
625.529	1	0
625.699	1	0
625.869	1	-5
626.038	1	11
626.208	1	-2
626.377	1	9
626.547	1	5
626.717	1	6
626.886	1	1
627.056	1	11
627.226	1	0
627.395	1	8
627.565	1	8
627.735	1	10
627.904	1	5
628.074	1	10
628.243	1	16
628.413	1	-5
628.583	1	-3
628.752	1	8
628.922	1	7
629.091	1	-3
629.261	1	-9
629.431	1	15
629.600	1	3
629.770	1	2
629.940	1	11
630.109	1	10
630.279	1	15
630.448	1	6
630.618	1	-4
630.788	1	1
630.957	1	12
631.127	1	1
631.297	1	-8
631.466	1	13
631.636	1	13
631.805	1	2
631.975	1	4
632.145	1	-3
632.314	1	13
632.484	1	2
632.653	1	1
632.823	1	11
632.993	1	1
633.162	1	0
633.332	1	4
633.501	1	20
633.671	1	-4
633.841	1	11
634.010	1	-4
634.180	1	15
634.349	1	0
634.519	1	8
634.689	1	13
634.858	1	6
635.028	1	1
635.197	1	5
635.367	1	6
635.537	1	-6
635.706	1	2
635.876	1	3
636.045	1	22
636.215	1	3
636.384	1	3
636.554	1	9
636.724	1	10
636.893	1	5
637.063	1	8
637.232	1	-2
637.402	1	3
637.572	1	8
637.741	1	19
637.911	1	4
638.080	1	11
638.250	1	11
638.419	1	1
638.589	1	0
638.759	1	4
638.928	1	3
639.098	1	2
639.267	1	3
639.437	1	5
639.606	1	10
639.776	1	10
639.946	1	4
640.115	1	3
640.285	1	7
640.454	1	5
640.624	1	-1
640.793	1	-11
640.963	1	-5
641.132	1	7
641.302	1	20
641.472	1	4
641.641	1	4
641.811	1	-5
641.980	1	3
642.150	1	-10
642.319	1	14
642.489	1	0
642.659	1	-2
642.828	1	-5
642.998	1	9
643.167	1	11
643.337	1	4
643.506	1	19
643.676	1	2
643.845	1	-1
644.015	1	14
644.184	1	0
644.354	1	-3
644.524	1	-2
644.693	1	2
644.863	1	3
645.032	1	8
645.202	1	15
645.371	1	17
645.541	1	0
645.710	1	10
645.880	1	9
646.049	1	-5
646.219	1	10
646.388	1	4
646.558	1	7
646.728	1	5
646.897	1	-2
647.067	1	10
647.236	1	3
647.406	1	15
647.575	1	0
647.745	1	9
647.914	1	-6
648.084	1	-4
648.253	1	10
648.423	1	10
648.592	1	-4
648.762	1	-4
648.931	1	-8
649.101	1	0
649.270	1	5
649.440	1	6
649.610	1	3
649.779	1	4
649.949	1	9
650.118	1	4
650.288	1	11
650.457	1	0
650.627	1	-3
650.796	1	-3
650.966	1	16
651.135	1	11
651.305	1	9
651.474	1	-6
651.644	1	8
651.813	1	10
651.983	1	-14
652.152	1	7
652.322	1	-4
652.491	1	7
652.661	1	1
652.830	1	9
653.000	1	1
653.169	1	6
653.339	1	12
653.508	1	2
653.678	1	-7
653.847	1	16
654.017	1	-1
654.186	1	-1
654.356	1	5
654.525	1	0
654.695	1	8
654.864	1	6
655.034	1	2
655.203	1	2
655.373	1	1
655.542	1	0
655.712	1	6
655.881	1	9
656.051	1	-1
656.220	1	2
656.390	1	-8
656.559	1	7
656.729	1	4
656.898	1	-1
657.068	1	-6
657.237	1	-2
657.406	1	4
657.576	1	0
657.745	1	8
657.915	1	9
658.084	1	11
658.254	1	-4
658.423	1	4
658.593	1	3
658.762	1	9
658.932	1	11
659.101	1	1
659.271	1	11
659.440	1	-9
659.610	1	9
659.779	1	2
659.949	1	0
660.118	1	8
660.288	1	7
660.457	1	-9
660.626	1	3
660.796	1	10
660.965	1	-1
661.135	1	12
661.304	1	13
661.474	1	12
661.643	1	17
661.813	1	-1
661.982	1	3
662.152	1	2
662.321	1	-3
662.491	1	16
662.660	1	7
662.829	1	14
662.999	1	5
663.168	1	0
663.338	1	4
663.507	1	3
663.677	1	4
663.846	1	6
664.016	1	8
664.185	1	-7
664.354	1	9
664.524	1	2
664.693	1	17
664.863	1	7
665.032	1	12
665.202	1	1
665.371	1	1
665.541	1	-6
665.710	1	2
665.879	1	3
666.049	1	0
666.218	1	-1
666.388	1	5
666.557	1	0
666.727	1	-1
666.896	1	1
667.065	1	13
667.235	1	8
667.404	1	-3
667.574	1	20
667.743	1	5
667.913	1	10
668.082	1	4
668.251	1	3
668.421	1	3
668.590	1	8
668.760	1	-7
668.929	1	11
669.099	1	-14
669.268	1	8
669.437	1	1
669.607	1	3
669.776	1	2
669.946	1	10
670.115	1	14
670.285	1	3
670.454	1	-4
670.623	1	13
670.793	1	-5
670.962	1	6
671.132	1	5
671.301	1	3
671.470	1	8
671.640	1	-10
671.809	1	3
671.979	1	4
672.148	1	2
672.317	1	-2
672.487	1	-7
672.656	1	3
672.826	1	9
672.995	1	6
673.164	1	15
673.334	1	-6
673.503	1	0
673.673	1	4
673.842	1	5
674.011	1	11
674.181	1	11
674.350	1	6
674.520	1	-1
674.689	1	8
674.858	1	-2
675.028	1	13
675.197	1	-2
675.367	1	3
675.536	1	2
675.705	1	6
675.875	1	0
676.044	1	10
676.214	1	10
676.383	1	11
676.552	1	4
676.722	1	5
676.891	1	3
677.060	1	10
677.230	1	7
677.399	1	-1
677.569	1	-6
677.738	1	3
677.907	1	0
678.077	1	11
678.246	1	5
678.416	1	12
678.585	1	3
678.754	1	5
678.924	1	7
679.093	1	5
679.262	1	6
679.432	1	9
679.601	1	8
679.771	1	9
679.940	1	4
680.109	1	8
680.279	1	5
680.448	1	6
680.617	1	-9
680.787	1	6
680.956	1	-5
681.125	1	11
681.295	1	9
681.464	1	4
681.634	1	14
681.803	1	2
681.972	1	4
682.142	1	-7
682.311	1	-4
682.480	1	17
682.650	1	-2
682.819	1	2
682.988	1	2
683.158	1	7
683.327	1	5
683.496	1	0
683.666	1	-2
683.835	1	-6
684.004	1	5
684.174	1	10
684.343	1	9
684.512	1	13
684.682	1	3
684.851	1	1
685.021	1	5
685.190	1	5
685.359	1	-3
685.529	1	8
685.698	1	2
685.867	1	2
686.037	1	9
686.206	1	13
686.375	1	-2
686.545	1	2
686.714	1	-5
686.883	1	3
687.053	1	5
687.222	1	-7
687.391	1	10
687.561	1	15
687.730	1	-3
687.899	1	3
688.069	1	10
688.238	1	10
688.407	1	8
688.577	1	-1
688.746	1	18
