340.368	1	8
340.539	1	8
340.710	1	10
340.881	1	12
341.052	1	-7
341.223	1	-6
341.394	1	0
341.565	1	7
341.737	1	5
341.908	1	11
342.079	1	2
342.250	1	17
342.421	1	8
342.592	1	-1
342.763	1	3
342.934	1	0
343.105	1	2
343.276	1	-5
343.447	1	12
343.618	1	4
343.789	1	14
343.960	1	-9
344.131	1	6
344.302	1	8
344.473	1	3
344.644	1	3
344.815	1	-10
344.986	1	10
345.157	1	-5
345.328	1	4
345.499	1	-2
345.670	1	-3
345.841	1	3
346.012	1	3
346.183	1	9
346.354	1	-8
346.526	1	4
346.697	1	5
346.868	1	9
347.039	1	3
347.210	1	0
347.381	1	8
347.552	1	0
347.723	1	7
347.894	1	-2
348.065	1	4
348.236	1	-2
348.407	1	4
348.578	1	8
348.749	1	7
348.920	1	9
349.091	1	14
349.262	1	7
349.433	1	21
349.604	1	5
349.775	1	5
349.946	1	3
350.117	1	21
350.288	1	-2
350.459	1	7
350.630	1	10
350.801	1	1
350.972	1	8
351.143	1	-5
351.314	1	-2
351.485	1	14
351.656	1	13
351.827	1	12
351.998	1	2
352.169	1	1
352.340	1	15
352.511	1	9
352.682	1	3
352.853	1	18
353.024	1	-1
353.195	1	2
353.366	1	9
353.537	1	6
353.708	1	0
353.879	1	14
354.050	1	2
354.221	1	14
354.392	1	2
354.563	1	8
354.734	1	-1
354.905	1	12
355.076	1	6
355.247	1	5
355.418	1	5
355.589	1	12
355.760	1	9
355.931	1	14
356.102	1	13
356.273	1	13
356.444	1	-2
356.615	1	8
356.785	1	9
356.956	1	14
357.127	1	4
357.298	1	7
357.469	1	5
357.640	1	13
357.811	1	9
357.982	1	6
358.153	1	6
358.324	1	3
358.495	1	14
358.666	1	10
358.837	1	12
359.008	1	23
359.179	1	1
359.350	1	5
359.521	1	5
359.692	1	10
359.863	1	10
360.034	1	13
360.205	1	7
360.376	1	24
360.547	1	8
360.718	1	13
360.889	1	0
361.060	1	20
361.231	1	3
361.401	1	10
361.572	1	20
361.743	1	20
361.914	1	16
362.085	1	17
362.256	1	11
362.427	1	22
362.598	1	20
362.769	1	11
362.940	1	16
363.111	1	37
363.282	1	32
363.453	1	20
363.624	1	30
363.795	1	28
363.966	1	41
364.137	1	25
364.308	1	41
364.478	1	24
364.649	1	33
364.820	1	37
364.991	1	22
365.162	1	34
365.333	1	35
365.504	1	35
365.675	1	34
365.846	1	45
366.017	1	48
366.188	1	33
366.359	1	45
366.530	1	50
366.701	1	42
366.871	1	54
367.042	1	41
367.213	1	44
367.384	1	42
367.555	1	48
367.726	1	41
367.897	1	41
368.068	1	37
368.239	1	49
368.410	1	42
368.581	1	49
368.752	1	54
368.923	1	55
369.093	1	43
369.264	1	40
369.435	1	33
369.606	1	53
369.777	1	41
369.948	1	46
370.119	1	41
370.290	1	41
370.461	1	46
370.632	1	38
370.803	1	28
370.973	1	35
371.144	1	40
371.315	1	37
371.486	1	35
371.657	1	27
371.828	1	44
371.999	1	24
372.170	1	27
372.341	1	36
372.512	1	33
372.682	1	31
372.853	1	18
373.024	1	26
373.195	1	23
373.366	1	28
373.537	1	19
373.708	1	24
373.879	1	37
374.050	1	25
374.220	1	22
374.391	1	39
374.562	1	15
374.733	1	13
374.904	1	31
375.075	1	28
375.246	1	26
375.417	1	19
375.588	1	22
375.758	1	6
375.929	1	6
376.100	1	13
376.271	1	20
376.442	1	27
376.613	1	18
376.784	1	19
376.955	1	20
377.125	1	18
377.296	1	16
377.467	1	24
377.638	1	14
377.809	1	16
377.980	1	8
378.151	1	19
378.321	1	12
378.492	1	29
378.663	1	25
378.834	1	14
379.005	1	30
379.176	1	15
379.347	1	17
379.518	1	21
379.688	1	11
379.859	1	13
380.030	1	6
380.201	1	21
380.372	1	24
380.543	1	7
380.714	1	22
380.884	1	13
381.055	1	14
381.226	1	14
381.397	1	6
381.568	1	9
381.739	1	5
381.910	1	10
382.080	1	14
382.251	1	14
382.422	1	22
382.593	1	14
382.764	1	12
382.935	1	18
383.105	1	12
383.276	1	6
383.447	1	11
383.618	1	9
383.789	1	12
383.960	1	6
384.130	1	14
384.301	1	21
384.472	1	19
384.643	1	22
384.814	1	6
384.985	1	9
385.156	1	12
385.326	1	9
385.497	1	9
385.668	1	15
385.839	1	9
386.010	1	17
386.180	1	15
386.351	1	13
386.522	1	12
386.693	1	16
386.864	1	7
387.035	1	17
387.205	1	15
387.376	1	14
387.547	1	10
387.718	1	10
387.889	1	5
388.060	1	1
388.230	1	3
388.401	1	15
388.572	1	10
388.743	1	7
388.914	1	12
389.084	1	11
389.255	1	15
389.426	1	11
389.597	1	-8
389.768	1	6
389.939	1	15
390.109	1	11
390.280	1	18
390.451	1	12
390.622	1	11
390.793	1	21
390.963	1	13
391.134	1	19
391.305	1	18
391.476	1	2
391.647	1	12
391.817	1	19
391.988	1	23
392.159	1	7
392.330	1	6
392.501	1	14
392.671	1	1
392.842	1	14
393.013	1	18
393.184	1	21
393.355	1	9
393.525	1	8
393.696	1	4
393.867	1	9
394.038	1	13
394.208	1	4
394.379	1	13
394.550	1	15
394.721	1	17
394.892	1	5
395.062	1	10
395.233	1	15
395.404	1	-6
395.575	1	12
395.746	1	13
395.916	1	18
396.087	1	19
396.258	1	12
396.429	1	11
396.599	1	16
396.770	1	14
396.941	1	16
397.112	1	8
397.283	1	5
397.453	1	16
397.624	1	6
397.795	1	4
397.966	1	13
398.136	1	12
398.307	1	15
398.478	1	13
398.649	1	7
398.819	1	-1
398.990	1	8
399.161	1	5
399.332	1	19
399.503	1	14
399.673	1	8
399.844	1	1
400.015	1	24
400.186	1	8
400.356	1	10
400.527	1	16
400.698	1	10
400.869	1	16
401.039	1	20
401.210	1	9
401.381	1	17
401.552	1	5
401.722	1	5
401.893	1	-3
402.064	1	-7
402.235	1	15
402.405	1	16
402.576	1	10
402.747	1	20
402.918	1	15
403.088	1	12
403.259	1	0
403.430	1	5
403.601	1	22
403.771	1	10
403.942	1	6
404.113	1	6
404.284	1	5
404.454	1	12
404.625	1	18
404.796	1	13
404.967	1	6
405.137	1	15
405.308	1	8
405.479	1	8
405.649	1	9
405.820	1	17
405.991	1	15
406.162	1	4
406.332	1	5
406.503	1	5
406.674	1	14
406.845	1	2
407.015	1	9
407.186	1	7
407.357	1	15
407.527	1	2
407.698	1	7
407.869	1	16
408.040	1	15
408.210	1	9
408.381	1	16
408.552	1	7
408.722	1	12
408.893	1	14
409.064	1	16
409.235	1	7
409.405	1	13
409.576	1	6
409.747	1	8
409.917	1	5
410.088	1	7
410.259	1	7
410.430	1	17
410.600	1	8
410.771	1	-4
410.942	1	11
411.112	1	8
411.283	1	5
411.454	1	13
411.625	1	5
411.795	1	7
411.966	1	11
412.137	1	7
412.307	1	3
412.478	1	3
412.649	1	15
412.819	1	4
412.990	1	9
413.161	1	19
413.332	1	2
413.502	1	2
413.673	1	2
413.844	1	9
414.014	1	9
414.185	1	17
414.356	1	15
414.526	1	9
414.697	1	3
414.868	1	8
415.038	1	10
415.209	1	6
415.380	1	11
415.550	1	10
415.721	1	4
415.892	1	7
416.063	1	3
416.233	1	14
416.404	1	10
416.575	1	12
416.745	1	5
416.916	1	4
417.087	1	5
417.257	1	9
417.428	1	2
417.599	1	21
417.769	1	10
417.940	1	9
418.111	1	1
418.281	1	8
418.452	1	11
418.623	1	17
418.793	1	-7
418.964	1	17
419.135	1	14
419.305	1	3
419.476	1	9
419.647	1	9
419.817	1	7
419.988	1	17
420.159	1	18
420.329	1	7
420.500	1	6
420.671	1	2
420.841	1	13
421.012	1	1
421.183	1	12
421.353	1	2
421.524	1	16
421.695	1	10
421.865	1	11
422.036	1	10
422.206	1	10
422.377	1	21
422.548	1	5
422.718	1	-1
422.889	1	10
423.060	1	9
423.230	1	6
423.401	1	12
423.572	1	0
423.742	1	13
423.913	1	6
424.084	1	14
424.254	1	19
424.425	1	7
424.595	1	7
424.766	1	3
424.937	1	4
425.107	1	9
425.278	1	6
425.449	1	13
425.619	1	16
425.790	1	17
425.961	1	8
426.131	1	14
426.302	1	13
426.472	1	6
426.643	1	9
426.814	1	4
426.984	1	3
427.155	1	8
427.326	1	4
427.496	1	11
427.667	1	8
427.837	1	10
428.008	1	4
428.179	1	15
428.349	1	14
428.520	1	11
428.691	1	8
428.861	1	9
429.032	1	6
429.202	1	3
429.373	1	5
429.544	1	5
429.714	1	-3
429.885	1	10
430.055	1	5
430.226	1	13
430.397	1	-6
430.567	1	4
430.738	1	0
430.909	1	11
431.079	1	20
431.250	1	14
431.420	1	7
431.591	1	5
431.762	1	2
431.932	1	-2
432.103	1	4
432.273	1	14
432.444	1	9
432.615	1	20
432.785	1	10
432.956	1	-2
433.126	1	13
433.297	1	7
433.468	1	9
433.638	1	8
433.809	1	17
433.979	1	13
434.150	1	8
434.320	1	11
434.491	1	11
434.662	1	9
434.832	1	4
435.003	1	19
435.173	1	19
435.344	1	8
435.515	1	3
435.685	1	-5
435.856	1	5
436.026	1	18
436.197	1	8
436.368	1	-4
436.538	1	13
436.709	1	3
436.879	1	8
437.050	1	11
437.220	1	9
437.391	1	13
437.562	1	2
437.732	1	13
437.903	1	16
438.073	1	8
438.244	1	6
438.414	1	8
438.585	1	10
438.756	1	4
438.926	1	11
439.097	1	3
439.267	1	0
439.438	1	15
439.608	1	8
439.779	1	9
439.949	1	13
440.120	1	9
440.291	1	10
440.461	1	18
440.632	1	3
440.802	1	8
440.973	1	1
441.143	1	-4
441.314	1	4
441.485	1	12
441.655	1	19
441.826	1	5
441.996	1	14
442.167	1	-1
442.337	1	7
442.508	1	1
442.678	1	1
442.849	1	5
443.019	1	8
443.190	1	6
443.361	1	11
443.531	1	12
443.702	1	13
443.872	1	19
444.043	1	1
444.213	1	-1
444.384	1	0
444.554	1	5
444.725	1	11
444.895	1	10
445.066	1	9
445.237	1	2
445.407	1	10
445.578	1	0
445.748	1	16
445.919	1	4
446.089	1	2
446.260	1	-1
446.430	1	7
446.601	1	6
446.771	1	12
446.942	1	5
447.112	1	1
447.283	1	2
447.453	1	-2
447.624	1	1
447.794	1	19
447.965	1	8
448.135	1	15
448.306	1	8
448.477	1	13
448.647	1	18
448.818	1	6
448.988	1	12
449.159	1	11
449.329	1	0
449.500	1	-4
449.670	1	5
449.841	1	-1
450.011	1	10
450.182	1	14
450.352	1	12
450.523	1	11
450.693	1	1
450.864	1	1
451.034	1	9
451.205	1	9
451.375	1	10
451.546	1	12
451.716	1	2
451.887	1	0
452.057	1	22
452.228	1	6
452.398	1	-1
452.569	1	-3
452.739	1	4
452.910	1	2
453.080	1	1
453.251	1	20
453.421	1	4
453.592	1	18
453.762	1	10
453.933	1	6
454.103	1	8
454.274	1	-2
454.444	1	-2
454.615	1	10
454.785	1	20
454.956	1	-1
455.126	1	2
455.297	1	18
455.467	1	4
455.638	1	11
455.808	1	12
455.979	1	8
456.149	1	-3
456.320	1	2
456.490	1	10
456.661	1	1
456.831	1	13
457.001	1	5
457.172	1	6
457.342	1	7
457.513	1	-2
457.683	1	7
457.854	1	10
458.024	1	10
458.195	1	-4
458.365	1	7
458.536	1	9
458.706	1	13
458.877	1	23
459.047	1	-11
459.218	1	9
459.388	1	-4
459.559	1	5
459.729	1	3
459.899	1	3
460.070	1	10
460.240	1	18
460.411	1	18
460.581	1	0
460.752	1	8
460.922	1	12
461.093	1	11
461.263	1	14
461.434	1	10
461.604	1	-10
461.775	1	2
461.945	1	11
462.115	1	0
462.286	1	6
462.456	1	5
462.627	1	8
462.797	1	12
462.968	1	6
463.138	1	-5
463.309	1	0
463.479	1	12
463.649	1	3
463.820	1	-4
463.990	1	3
464.161	1	-3
464.331	1	0
464.502	1	10
464.672	1	11
464.843	1	4
465.013	1	6
465.183	1	11
465.354	1	1
465.524	1	4
465.695	1	14
465.865	1	-6
466.036	1	0
466.206	1	-2
466.376	1	9
466.547	1	4
466.717	1	8
466.888	1	6
467.058	1	12
467.229	1	-2
467.399	1	-1
467.569	1	9
467.740	1	11
467.910	1	1
468.081	1	3
468.251	1	9
468.422	1	13
468.592	1	2
468.762	1	0
468.933	1	7
469.103	1	-2
469.274	1	12
469.444	1	4
469.614	1	9
469.785	1	6
469.955	1	7
470.126	1	-4
470.296	1	6
470.467	1	3
470.637	1	11
470.807	1	3
470.978	1	0
471.148	1	5
471.319	1	7
471.489	1	-3
471.659	1	-4
471.830	1	4
472.000	1	4
472.171	1	7
472.341	1	-6
472.511	1	9
472.682	1	14
472.852	1	6
473.023	1	6
473.193	1	13
473.363	1	11
473.534	1	7
473.704	1	7
473.875	1	16
474.045	1	-7
474.215	1	5
474.386	1	5
474.556	1	13
474.727	1	7
474.897	1	-5
475.067	1	4
475.238	1	18
475.408	1	2
475.578	1	9
475.749	1	9
475.919	1	-2
476.090	1	5
476.260	1	3
476.430	1	14
476.601	1	0
476.771	1	-4
476.942	1	16
477.112	1	9
477.282	1	10
477.453	1	6
477.623	1	-7
477.793	1	1
477.964	1	3
478.134	1	21
478.305	1	18
478.475	1	4
478.645	1	4
478.816	1	14
478.986	1	8
479.156	1	6
479.327	1	9
479.497	1	12
479.667	1	3
479.838	1	3
480.008	1	-2
480.179	1	0
480.349	1	1
480.519	1	-3
480.690	1	9
480.860	1	4
481.030	1	6
481.201	1	12
481.371	1	8
481.541	1	3
481.712	1	8
481.882	1	7
482.053	1	9
482.223	1	-6
482.393	1	16
482.564	1	0
482.734	1	6
482.904	1	12
483.075	1	17
483.245	1	9
483.415	1	0
483.586	1	5
483.756	1	-1
483.926	1	8
484.097	1	-2
484.267	1	3
484.437	1	4
484.608	1	18
484.778	1	10
484.948	1	13
485.119	1	9
485.289	1	-4
485.459	1	0
485.630	1	6
485.800	1	10
485.970	1	9
486.141	1	1
486.311	1	22
486.481	1	1
486.652	1	7
486.822	1	8
486.992	1	3
487.163	1	4
487.333	1	-8
487.503	1	-1
487.674	1	10
487.844	1	1
488.014	1	11
488.185	1	9
488.355	1	21
488.525	1	10
488.696	1	8
488.866	1	7
489.036	1	6
489.207	1	0
489.377	1	-10
489.547	1	5
489.718	1	9
489.888	1	11
490.058	1	6
490.228	1	6
490.399	1	4
490.569	1	11
490.739	1	4
490.910	1	3
491.080	1	4
491.250	1	9
491.421	1	11
491.591	1	6
491.761	1	6
491.932	1	3
492.102	1	17
492.272	1	2
492.442	1	4
492.613	1	6
492.783	1	-1
492.953	1	9
493.124	1	-1
493.294	1	19
493.464	1	6
493.635	1	19
493.805	1	8
493.975	1	14
494.145	1	-4
494.316	1	18
494.486	1	12
494.656	1	7
494.827	1	11
494.997	1	0
495.167	1	15
495.337	1	6
495.508	1	6
495.678	1	13
495.848	1	12
496.019	1	2
496.189	1	12
496.359	1	15
496.529	1	3
496.700	1	0
496.870	1	12
497.040	1	19
497.211	1	-5
497.381	1	0
497.551	1	23
497.721	1	5
497.892	1	14
498.062	1	1
498.232	1	12
498.403	1	-6
498.573	1	17
498.743	1	16
498.913	1	15
499.084	1	19
499.254	1	7
499.424	1	4
499.594	1	19
499.765	1	6
499.935	1	10
500.105	1	16
500.275	1	19
500.446	1	8
500.616	1	12
500.786	1	17
500.956	1	6
501.127	1	8
501.297	1	2
501.467	1	11
501.638	1	1
501.808	1	12
501.978	1	7
502.148	1	9
502.319	1	16
502.489	1	9
502.659	1	9
502.829	1	13
503.000	1	16
503.170	1	-1
503.340	1	3
503.510	1	10
503.681	1	5
503.851	1	8
504.021	1	13
504.191	1	8
504.362	1	12
504.532	1	14
504.702	1	6
504.872	1	14
505.042	1	21
505.213	1	3
505.383	1	20
505.553	1	15
505.723	1	21
505.894	1	17
506.064	1	15
506.234	1	8
506.404	1	8
506.575	1	14
506.745	1	11
506.915	1	-5
507.085	1	11
507.256	1	14
507.426	1	16
507.596	1	2
507.766	1	10
507.936	1	5
508.107	1	7
508.277	1	3
508.447	1	21
508.617	1	9
508.788	1	11
508.958	1	15
509.128	1	20
509.298	1	17
509.468	1	12
509.639	1	13
509.809	1	18
509.979	1	5
510.149	1	9
510.319	1	21
510.490	1	20
510.660	1	1
510.830	1	20
511.000	1	15
511.171	1	13
511.341	1	1
511.511	1	12
511.681	1	17
511.851	1	9
512.022	1	15
512.192	1	1
512.362	1	13
512.532	1	16
512.702	1	19
512.873	1	14
513.043	1	15
513.213	1	16
513.383	1	14
513.553	1	22
513.724	1	0
513.894	1	11
514.064	1	8
514.234	1	22
514.404	1	20
514.575	1	10
514.745	1	14
514.915	1	8
515.085	1	16
515.255	1	20
515.425	1	14
515.596	1	20
515.766	1	14
515.936	1	16
516.106	1	6
516.276	1	16
516.447	1	12
516.617	1	16
516.787	1	19
516.957	1	13
517.127	1	16
517.297	1	2
517.468	1	14
517.638	1	25
517.808	1	7
517.978	1	-1
518.148	1	15
518.319	1	6
518.489	1	14
518.659	1	12
518.829	1	25
518.999	1	16
519.169	1	19
519.340	1	4
519.510	1	12
519.680	1	15
519.850	1	23
520.020	1	19
520.190	1	27
520.361	1	11
520.531	1	20
520.701	1	13
520.871	1	8
521.041	1	28
521.211	1	21
521.382	1	15
521.552	1	13
521.722	1	18
521.892	1	35
522.062	1	19
522.232	1	4
522.402	1	12
522.573	1	15
522.743	1	18
522.913	1	27
523.083	1	8
523.253	1	14
523.423	1	17
523.593	1	17
523.764	1	23
523.934	1	16
524.104	1	16
524.274	1	6
524.444	1	18
524.614	1	16
524.784	1	21
524.955	1	18
525.125	1	15
525.295	1	25
525.465	1	22
525.635	1	12
525.805	1	9
525.975	1	25
526.146	1	11
526.316	1	13
526.486	1	14
526.656	1	21
526.826	1	17
526.996	1	11
527.166	1	19
527.337	1	24
527.507	1	24
527.677	1	8
527.847	1	12
528.017	1	17
528.187	1	14
528.357	1	19
528.527	1	19
528.698	1	4
528.868	1	9
529.038	1	13
529.208	1	9
529.378	1	16
529.548	1	1
529.718	1	16
529.888	1	13
530.058	1	3
530.229	1	10
530.399	1	21
530.569	1	21
530.739	1	13
530.909	1	18
531.079	1	20
531.249	1	22
531.419	1	19
531.589	1	13
531.760	1	21
531.930	1	13
532.100	1	25
532.270	1	18
532.440	1	27
532.610	1	4
532.780	1	9
532.950	1	21
533.120	1	20
533.290	1	27
533.461	1	14
533.631	1	10
533.801	1	26
533.971	1	17
534.141	1	21
534.311	1	27
534.481	1	20
534.651	1	17
534.821	1	24
534.991	1	14
535.162	1	18
535.332	1	18
535.502	1	21
535.672	1	12
535.842	1	12
536.012	1	17
536.182	1	15
536.352	1	12
536.522	1	7
536.692	1	19
536.862	1	18
537.032	1	22
537.203	1	7
537.373	1	13
537.543	1	17
537.713	1	24
537.883	1	12
538.053	1	15
538.223	1	22
538.393	1	27
538.563	1	23
538.733	1	17
538.903	1	25
539.073	1	19
539.243	1	16
539.413	1	16
539.584	1	16
539.754	1	9
539.924	1	9
540.094	1	16
540.264	1	9
540.434	1	22
540.604	1	26
540.774	1	16
540.944	1	17
541.114	1	1
541.284	1	13
541.454	1	21
541.624	1	23
541.794	1	20
541.964	1	15
542.134	1	12
542.305	1	17
542.475	1	10
542.645	1	9
542.815	1	19
542.985	1	21
543.155	1	12
543.325	1	12
543.495	1	9
543.665	1	26
543.835	1	21
544.005	1	26
544.175	1	7
544.345	1	21
544.515	1	11
544.685	1	17
544.855	1	12
545.025	1	12
545.195	1	10
545.365	1	16
545.535	1	20
545.705	1	14
545.875	1	18
546.045	1	15
546.216	1	24
546.386	1	10
546.556	1	6
546.726	1	15
546.896	1	18
547.066	1	9
547.236	1	10
547.406	1	1
547.576	1	20
547.746	1	8
547.916	1	15
548.086	1	8
548.256	1	3
548.426	1	21
548.596	1	15
548.766	1	16
548.936	1	15
549.106	1	13
549.276	1	4
549.446	1	5
549.616	1	19
549.786	1	22
549.956	1	7
550.126	1	24
550.296	1	10
550.466	1	13
550.636	1	11
550.806	1	13
550.976	1	9
551.146	1	18
551.316	1	12
551.486	1	12
551.656	1	18
551.826	1	18
551.996	1	11
552.166	1	20
552.336	1	14
552.506	1	13
552.676	1	18
552.846	1	3
553.016	1	16
553.186	1	18
553.356	1	14
553.526	1	15
553.696	1	10
553.866	1	0
554.036	1	7
554.206	1	7
554.376	1	24
554.546	1	15
554.716	1	7
554.886	1	17
555.056	1	15
555.226	1	6
555.396	1	16
555.566	1	12
555.736	1	12
555.906	1	5
556.076	1	7
556.246	1	15
556.416	1	22
556.586	1	8
556.756	1	3
556.926	1	2
557.096	1	5
557.266	1	11
557.436	1	14
557.606	1	19
557.776	1	11
557.946	1	10
558.116	1	10
558.286	1	16
558.456	1	5
558.626	1	0
558.796	1	21
558.966	1	5
559.136	1	12
559.306	1	3
559.476	1	8
559.646	1	13
559.816	1	17
559.986	1	12
560.155	1	4
560.325	1	7
560.495	1	14
560.665	1	12
560.835	1	14
561.005	1	12
561.175	1	16
561.345	1	10
561.515	1	4
561.685	1	11
561.855	1	5
562.025	1	2
562.195	1	16
562.365	1	15
562.535	1	6
562.705	1	17
562.875	1	12
563.045	1	8
563.215	1	13
563.385	1	15
563.555	1	18
563.725	1	6
563.895	1	5
564.064	1	14
564.234	1	14
564.404	1	13
564.574	1	14
564.744	1	13
564.914	1	12
565.084	1	7
565.254	1	1
565.424	1	8
565.594	1	12
565.764	1	10
565.934	1	8
566.104	1	3
566.274	1	14
566.444	1	15
566.614	1	12
566.783	1	15
566.953	1	8
567.123	1	11
567.293	1	13
567.463	1	8
567.633	1	5
567.803	1	12
567.973	1	7
568.143	1	16
568.313	1	4
568.483	1	14
568.653	1	4
568.823	1	-1
568.993	1	6
569.162	1	14
569.332	1	9
569.502	1	7
569.672	1	4
569.842	1	6
570.012	1	8
570.182	1	1
570.352	1	-4
570.522	1	1
570.692	1	2
570.862	1	21
571.031	1	21
571.201	1	13
571.371	1	-1
571.541	1	3
571.711	1	19
571.881	1	10
572.051	1	11
572.221	1	17
572.391	1	18
572.561	1	3
572.731	1	17
572.900	1	11
573.070	1	10
573.240	1	9
573.410	1	-5
573.580	1	9
573.750	1	2
573.920	1	18
574.090	1	-4
574.260	1	5
574.430	1	5
574.599	1	11
574.769	1	4
574.939	1	10
575.109	1	17
575.279	1	0
575.449	1	2
575.619	1	9
575.789	1	15
575.959	1	13
576.128	1	0
576.298	1	8
576.468	1	14
576.638	1	-3
576.808	1	-2
576.978	1	0
577.148	1	13
577.318	1	11
577.487	1	10
577.657	1	19
577.827	1	-8
577.997	1	13
578.167	1	2
578.337	1	1
578.507	1	-4
578.677	1	14
578.846	1	11
579.016	1	3
579.186	1	5
579.356	1	15
579.526	1	12
579.696	1	7
579.866	1	7
580.036	1	3
580.205	1	4
580.375	1	-4
580.545	1	6
580.715	1	6
580.885	1	17
581.055	1	13
581.225	1	5
581.394	1	1
581.564	1	0
581.734	1	8
581.904	1	4
582.074	1	6
582.244	1	3
582.414	1	0
582.583	1	14
582.753	1	8
582.923	1	8
583.093	1	14
583.263	1	7
583.433	1	9
583.603	1	14
583.772	1	1
583.942	1	7
584.112	1	7
584.282	1	6
584.452	1	19
584.622	1	4
584.791	1	6
584.961	1	5
585.131	1	4
585.301	1	7
585.471	1	6
585.641	1	14
585.811	1	5
585.980	1	9
586.150	1	8
586.320	1	8
586.490	1	7
586.660	1	2
586.830	1	-5
586.999	1	-4
587.169	1	11
587.339	1	3
587.509	1	7
587.679	1	9
587.849	1	6
588.018	1	12
588.188	1	12
588.358	1	-2
588.528	1	18
588.698	1	3
588.867	1	7
589.037	1	9
589.207	1	12
589.377	1	4
589.547	1	-6
589.717	1	4
589.886	1	1
590.056	1	3
590.226	1	11
590.396	1	15
590.566	1	0
590.735	1	3
590.905	1	10
591.075	1	10
591.245	1	7
591.415	1	14
591.585	1	7
591.754	1	-10
591.924	1	0
592.094	1	4
592.264	1	6
592.434	1	13
592.603	1	4
592.773	1	14
592.943	1	4
593.113	1	4
593.283	1	-2
593.452	1	4
593.622	1	10
593.792	1	-12
593.962	1	5
594.132	1	7
594.301	1	-4
594.471	1	11
594.641	1	7
594.811	1	11
594.981	1	-9
595.150	1	1
595.320	1	12
595.490	1	10
595.660	1	9
595.829	1	1
595.999	1	7
596.169	1	5
596.339	1	16
596.509	1	11
596.678	1	-3
596.848	1	4
597.018	1	1
597.188	1	8
597.358	1	-1
597.527	1	0
597.697	1	2
597.867	1	9
598.037	1	7
598.206	1	3
598.376	1	9
598.546	1	2
598.716	1	4
598.885	1	2
599.055	1	1
599.225	1	12
599.395	1	-4
599.565	1	2
599.734	1	8
599.904	1	0
600.074	1	10
600.244	1	3
600.413	1	9
600.583	1	-3
600.753	1	7
600.923	1	7
601.092	1	7
601.262	1	3
601.432	1	-4
601.602	1	0
601.771	1	18
601.941	1	0
602.111	1	11
602.281	1	15
602.451	1	6
602.620	1	0
602.790	1	1
602.960	1	0
603.130	1	7
603.299	1	6
603.469	1	2
603.639	1	-1
603.809	1	1
603.978	1	0
604.148	1	9
604.318	1	0
604.487	1	11
604.657	1	1
604.827	1	8
604.997	1	24
605.166	1	8
605.336	1	11
605.506	1	8
605.676	1	-4
605.845	1	5
606.015	1	-2
606.185	1	5
606.355	1	5
606.524	1	11
606.694	1	-8
606.864	1	16
607.034	1	5
607.203	1	3
607.373	1	9
607.543	1	8
607.712	1	3
607.882	1	10
608.052	1	11
608.222	1	-6
608.391	1	12
608.561	1	0
608.731	1	2
608.901	1	11
609.070	1	12
609.240	1	-8
609.410	1	13
609.579	1	7
609.749	1	5
609.919	1	6
610.089	1	8
610.258	1	4
610.428	1	3
610.598	1	1
610.767	1	1
610.937	1	17
611.107	1	7
611.277	1	6
611.446	1	10
611.616	1	6
611.786	1	2
611.955	1	3
612.125	1	9
612.295	1	17
612.465	1	2
612.634	1	0
612.804	1	18
612.974	1	9
613.143	1	-4
613.313	1	0
613.483	1	-2
613.652	1	-2
613.822	1	0
613.992	1	4
614.162	1	9
614.331	1	7
614.501	1	11
614.671	1	2
614.840	1	2
615.010	1	-1
615.180	1	7
615.349	1	2
615.519	1	5
615.689	1	7
615.858	1	-1
616.028	1	15
616.198	1	13
616.368	1	7
616.537	1	17
616.707	1	18
616.877	1	1
617.046	1	12
617.216	1	6
617.386	1	-1
617.555	1	-11
617.725	1	6
617.895	1	-4
618.064	1	9
618.234	1	3
618.404	1	4
618.573	1	3
618.743	1	9
618.913	1	7
619.082	1	11
619.252	1	-2
619.422	1	7
619.591	1	15
619.761	1	8
619.931	1	0
620.100	1	0
620.270	1	6
620.440	1	-1
620.609	1	-7
620.779	1	8
620.949	1	11
621.118	1	0
621.288	1	2
621.458	1	4
621.627	1	10
621.797	1	-1
621.967	1	5
622.136	1	4
622.306	1	10
622.476	1	13
622.645	1	12
622.815	1	0
622.985	1	6
623.154	1	6
623.324	1	-4
623.494	1	8
623.663	1	-2
623.833	1	9
624.002	1	11
624.172	1	4
624.342	1	6
624.511	1	7
624.681	1	7
624.851	1	2
625.020	1	7
625.190	1	3
625.360	1	8
625.529	1	5
625.699	1	-2
625.869	1	9
626.038	1	11
626.208	1	0
626.377	1	9
626.547	1	4
626.717	1	10
626.886	1	-2
627.056	1	2
627.226	1	-4
627.395	1	8
627.565	1	8
627.735	1	10
627.904	1	6
628.074	1	9
628.243	1	6
628.413	1	6
628.583	1	3
628.752	1	3
628.922	1	-7
629.091	1	7
629.261	1	-6
629.431	1	9
629.600	1	11
629.770	1	9
629.940	1	6
630.109	1	2
630.279	1	14
630.448	1	7
630.618	1	2
630.788	1	0
630.957	1	9
631.127	1	2
631.297	1	2
631.466	1	10
631.636	1	14
631.805	1	5
631.975	1	6
632.145	1	-4
632.314	1	3
632.484	1	1
632.653	1	14
632.823	1	3
632.993	1	3
633.162	1	9
633.332	1	6
633.501	1	17
633.671	1	0
633.841	1	13
634.010	1	4
634.180	1	21
634.349	1	5
634.519	1	10
634.689	1	9
634.858	1	6
635.028	1	17
635.197	1	0
635.367	1	3
635.537	1	-8
635.706	1	3
635.876	1	11
636.045	1	21
636.215	1	10
636.384	1	4
636.554	1	6
636.724	1	10
636.893	1	5
637.063	1	8
637.232	1	0
637.402	1	0
637.572	1	5
637.741	1	19
637.911	1	6
638.080	1	3
638.250	1	8
638.419	1	-6
638.589	1	11
638.759	1	4
638.928	1	4
639.098	1	-6
639.267	1	18
639.437	1	1
639.606	1	9
639.776	1	3
639.946	1	8
640.115	1	-3
640.285	1	5
640.454	1	10
640.624	1	-5
640.793	1	-6
640.963	1	-1
641.132	1	9
641.302	1	15
641.472	1	7
641.641	1	4
641.811	1	-1
641.980	1	0
642.150	1	-6
642.319	1	11
642.489	1	-2
642.659	1	-1
642.828	1	-2
642.998	1	7
643.167	1	5
643.337	1	-2
643.506	1	14
643.676	1	10
643.845	1	3
644.015	1	14
644.184	1	2
644.354	1	0
644.524	1	-1
644.693	1	2
644.863	1	0
645.032	1	9
645.202	1	18
645.371	1	7
645.541	1	4
645.710	1	8
645.880	1	4
646.049	1	-5
646.219	1	1
646.388	1	3
646.558	1	0
646.728	1	-2
646.897	1	5
647.067	1	8
647.236	1	3
647.406	1	3
647.575	1	-1
647.745	1	2
647.914	1	-3
648.084	1	-2
648.253	1	8
648.423	1	14
648.592	1	-4
648.762	1	3
648.931	1	0
649.101	1	2
649.270	1	-7
649.440	1	6
649.610	1	3
649.779	1	3
649.949	1	9
650.118	1	2
650.288	1	4
650.457	1	2
650.627	1	2
650.796	1	1
650.966	1	-2
651.135	1	16
651.305	1	-3
651.474	1	2
651.644	1	10
651.813	1	8
651.983	1	-4
652.152	1	10
652.322	1	3
652.491	1	11
652.661	1	3
652.830	1	-2
653.000	1	0
653.169	1	4
653.339	1	12
653.508	1	2
653.678	1	7
653.847	1	5
654.017	1	-8
654.186	1	-8
654.356	1	2
654.525	1	2
654.695	1	14
654.864	1	0
655.034	1	2
655.203	1	5
655.373	1	6
655.542	1	2
655.712	1	-5
655.881	1	7
656.051	1	4
656.220	1	5
656.390	1	0
656.559	1	4
656.729	1	3
656.898	1	-2
657.068	1	-1
657.237	1	4
657.406	1	5
657.576	1	4
657.745	1	-3
657.915	1	9
658.084	1	4
658.254	1	-1
658.423	1	0
658.593	1	-1
658.762	1	16
658.932	1	20
659.101	1	12
659.271	1	7
659.440	1	-3
659.610	1	4
659.779	1	-3
659.949	1	0
660.118	1	-3
660.288	1	7
660.457	1	2
660.626	1	3
660.796	1	4
660.965	1	6
661.135	1	16
661.304	1	1
661.474	1	1
661.643	1	4
661.813	1	6
661.982	1	-1
662.152	1	8
662.321	1	-6
662.491	1	11
662.660	1	10
662.829	1	10
662.999	1	-1
663.168	1	-4
663.338	1	1
663.507	1	6
663.677	1	8
663.846	1	5
664.016	1	1
664.185	1	-3
664.354	1	16
664.524	1	3
664.693	1	6
664.863	1	3
665.032	1	13
665.202	1	2
665.371	1	2
665.541	1	1
665.710	1	5
665.879	1	2
666.049	1	9
666.218	1	8
666.388	1	5
666.557	1	7
666.727	1	-6
666.896	1	16
667.065	1	11
667.235	1	1
667.404	1	5
667.574	1	18
667.743	1	11
667.913	1	11
668.082	1	3
668.251	1	0
668.421	1	-7
668.590	1	4
668.760	1	7
668.929	1	8
669.099	1	-4
669.268	1	1
669.437	1	-6
669.607	1	0
669.776	1	11
669.946	1	9
670.115	1	15
670.285	1	10
670.454	1	2
670.623	1	11
670.793	1	-3
670.962	1	-3
671.132	1	3
671.301	1	-7
671.470	1	8
671.640	1	-15
671.809	1	-3
671.979	1	3
672.148	1	3
672.317	1	5
672.487	1	-2
672.656	1	7
672.826	1	9
672.995	1	0
673.164	1	10
673.334	1	2
673.503	1	-2
673.673	1	7
673.842	1	5
674.011	1	3
674.181	1	13
674.350	1	3
674.520	1	-9
674.689	1	9
674.858	1	-4
675.028	1	9
675.197	1	1
675.367	1	-6
675.536	1	2
675.705	1	9
675.875	1	0
676.044	1	3
676.214	1	10
676.383	1	10
676.552	1	5
676.722	1	5
676.891	1	-5
677.060	1	1
677.230	1	7
677.399	1	2
677.569	1	3
677.738	1	1
677.907	1	7
678.077	1	0
678.246	1	7
678.416	1	4
678.585	1	2
678.754	1	18
678.924	1	12
679.093	1	3
679.262	1	4
679.432	1	0
679.601	1	7
679.771	1	3
679.940	1	-1
680.109	1	7
680.279	1	1
680.448	1	9
680.617	1	-6
680.787	1	13
680.956	1	1
681.125	1	11
681.295	1	-1
681.464	1	-1
681.634	1	5
681.803	1	0
681.972	1	7
682.142	1	-7
682.311	1	-6
682.480	1	9
682.650	1	6
682.819	1	5
682.988	1	-8
683.158	1	4
683.327	1	7
683.496	1	3
683.666	1	4
683.835	1	-7
684.004	1	5
684.174	1	12
684.343	1	9
684.512	1	8
684.682	1	-2
684.851	1	-5
685.021	1	1
685.190	1	2
685.359	1	3
685.529	1	5
685.698	1	-2
685.867	1	5
686.037	1	11
686.206	1	5
686.375	1	-1
686.545	1	-7
686.714	1	-11
686.883	1	-1
687.053	1	-5
687.222	1	5
687.391	1	12
687.561	1	11
687.730	1	1
687.899	1	-7
688.069	1	9
688.238	1	13
688.407	1	8
688.577	1	-9
688.746	1	6
