340.368	1	3
340.539	1	4
340.710	1	-5
340.881	1	6
341.052	1	-12
341.223	1	3
341.394	1	-2
341.565	1	6
341.737	1	0
341.908	1	-4
342.079	1	0
342.250	1	8
342.421	1	-2
342.592	1	-6
342.763	1	3
342.934	1	1
343.105	1	0
343.276	1	0
343.447	1	5
343.618	1	-5
343.789	1	3
343.960	1	-17
344.131	1	2
344.302	1	7
344.473	1	-3
344.644	1	5
344.815	1	-4
344.986	1	6
345.157	1	-7
345.328	1	-3
345.499	1	0
345.670	1	-7
345.841	1	3
346.012	1	-2
346.183	1	11
346.354	1	-6
346.526	1	-3
346.697	1	-3
346.868	1	4
347.039	1	-4
347.210	1	4
347.381	1	-2
347.552	1	5
347.723	1	8
347.894	1	-4
348.065	1	-4
348.236	1	-5
348.407	1	-6
348.578	1	3
348.749	1	-3
348.920	1	6
349.091	1	-4
349.262	1	1
349.433	1	2
349.604	1	6
349.775	1	-2
349.946	1	3
350.117	1	8
350.288	1	-13
350.459	1	-7
350.630	1	1
350.801	1	-1
350.972	1	4
351.143	1	-5
351.314	1	3
351.485	1	2
351.656	1	10
351.827	1	-6
351.998	1	-2
352.169	1	-6
352.340	1	10
352.511	1	4
352.682	1	3
352.853	1	9
353.024	1	-8
353.195	1	-2
353.366	1	6
353.537	1	-2
353.708	1	-6
353.879	1	-9
354.050	1	-4
354.221	1	9
354.392	1	7
354.563	1	2
354.734	1	0
354.905	1	8
355.076	1	4
355.247	1	-5
355.418	1	1
355.589	1	2
355.760	1	14
355.931	1	5
356.102	1	-2
356.273	1	6
356.444	1	-12
356.615	1	4
356.785	1	3
356.956	1	12
357.127	1	-2
357.298	1	-7
357.469	1	-13
357.640	1	7
357.811	1	1
357.982	1	9
358.153	1	-6
358.324	1	4
358.495	1	2
358.666	1	-1
358.837	1	8
359.008	1	8
359.179	1	4
359.350	1	-10
359.521	1	-5
359.692	1	4
359.863	1	0
360.034	1	7
360.205	1	6
360.376	1	2
360.547	1	-14
360.718	1	2
360.889	1	-1
361.060	1	3
361.231	1	-4
361.401	1	-11
361.572	1	5
361.743	1	4
361.914	1	10
362.085	1	4
362.256	1	-1
362.427	1	5
362.598	1	4
362.769	1	10
362.940	1	-2
363.111	1	9
363.282	1	9
363.453	1	-11
363.624	1	6
363.795	1	0
363.966	1	6
364.137	1	-1
364.308	1	5
364.478	1	-1
364.649	1	6
364.820	1	9
364.991	1	-7
365.162	1	3
365.333	1	-5
365.504	1	-2
365.675	1	3
365.846	1	3
366.017	1	12
366.188	1	-2
366.359	1	6
366.530	1	-8
366.701	1	7
366.871	1	9
367.042	1	5
367.213	1	-4
367.384	1	14
367.555	1	6
367.726	1	-3
367.897	1	-4
368.068	1	-7
368.239	1	-3
368.410	1	-3
368.581	1	6
368.752	1	7
368.923	1	4
369.093	1	3
369.264	1	0
369.435	1	5
369.606	1	13
369.777	1	-1
369.948	1	-3
370.119	1	8
370.290	1	3
370.461	1	0
370.632	1	-11
370.803	1	-7
370.973	1	3
371.144	1	-7
371.315	1	14
371.486	1	3
371.657	1	1
371.828	1	-5
371.999	1	-6
372.170	1	-5
372.341	1	-4
372.512	1	-3
372.682	1	0
372.853	1	-4
373.024	1	1
373.195	1	-3
373.366	1	-2
373.537	1	9
373.708	1	5
373.879	1	5
374.050	1	-1
374.220	1	-9
374.391	1	4
374.562	1	1
374.733	1	1
374.904	1	-3
375.075	1	7
375.246	1	3
375.417	1	-13
375.588	1	4
375.758	1	-17
375.929	1	-13
376.100	1	-5
376.271	1	-4
376.442	1	-1
376.613	1	-5
376.784	1	4
376.955	1	0
377.125	1	-4
377.296	1	-7
377.467	1	12
377.638	1	-13
377.809	1	-14
377.980	1	-6
378.151	1	7
378.321	1	-2
378.492	1	5
378.663	1	5
378.834	1	-3
379.005	1	6
379.176	1	-5
379.347	1	-1
379.518	1	8
379.688	1	0
379.859	1	7
380.030	1	-2
380.201	1	12
380.372	1	6
380.543	1	2
380.714	1	6
380.884	1	-5
381.055	1	-3
381.226	1	3
381.397	1	3
381.568	1	3
381.739	1	3
381.910	1	8
382.080	1	-11
382.251	1	3
382.422	1	-2
382.593	1	0
382.764	1	-5
382.935	1	-2
383.105	1	0
383.276	1	-1
383.447	1	5
383.618	1	-3
383.789	1	3
383.960	1	2
384.130	1	-3
384.301	1	2
384.472	1	6
384.643	1	-4
384.814	1	0
384.985	1	3
385.156	1	-1
385.326	1	2
385.497	1	0
385.668	1	-3
385.839	1	7
386.010	1	-3
386.180	1	1
386.351	1	-10
386.522	1	3
386.693	1	-4
386.864	1	-2
387.035	1	5
387.205	1	1
387.376	1	-10
387.547	1	1
387.718	1	2
387.889	1	-5
388.060	1	-1
388.230	1	-6
388.401	1	-3
388.572	1	3
388.743	1	-1
388.914	1	-5
389.084	1	6
389.255	1	4
389.426	1	0
389.597	1	-16
389.768	1	-8
389.939	1	6
390.109	1	4
390.280	1	5
390.451	1	7
390.622	1	4
390.793	1	2
390.963	1	4
391.134	1	-8
391.305	1	-2
391.476	1	0
391.647	1	5
391.817	1	3
391.988	1	2
392.159	1	-6
392.330	1	-2
392.501	1	2
392.671	1	-2
392.842	1	1
393.013	1	-1
393.184	1	2
393.355	1	0
393.525	1	1
393.696	1	-12
393.867	1	1
394.038	1	4
394.208	1	-14
394.379	1	11
394.550	1	4
394.721	1	3
394.892	1	9
395.062	1	-3
395.233	1	2
395.404	1	-16
395.575	1	-2
395.746	1	6
395.916	1	7
396.087	1	17
396.258	1	-5
396.429	1	5
396.599	1	-3
396.770	1	-6
396.941	1	5
397.112	1	3
397.283	1	-3
397.453	1	16
397.624	1	-2
397.795	1	-13
397.966	1	-2
398.136	1	3
398.307	1	-2
398.478	1	3
398.649	1	-8
398.819	1	-11
398.990	1	-2
399.161	1	5
399.332	1	4
399.503	1	4
399.673	1	-2
399.844	1	-2
400.015	1	3
400.186	1	1
400.356	1	8
400.527	1	1
400.698	1	-2
400.869	1	-2
401.039	1	1
401.210	1	-12
401.381	1	1
401.552	1	3
401.722	1	1
401.893	1	-15
402.064	1	-9
402.235	1	0
402.405	1	3
402.576	1	-1
402.747	1	5
402.918	1	7
403.088	1	-2
403.259	1	-9
403.430	1	1
403.601	1	-3
403.771	1	4
403.942	1	4
404.113	1	1
404.284	1	-1
404.454	1	3
404.625	1	3
404.796	1	1
404.967	1	-2
405.137	1	4
405.308	1	-13
405.479	1	3
405.649	1	1
405.820	1	17
405.991	1	-1
406.162	1	2
406.332	1	-4
406.503	1	-3
406.674	1	8
406.845	1	-13
407.015	1	1
407.186	1	-5
407.357	1	-8
407.527	1	0
407.698	1	-4
407.869	1	-5
408.040	1	-2
408.210	1	0
408.381	1	-5
408.552	1	1
408.722	1	4
408.893	1	-1
409.064	1	-1
409.235	1	-6
409.405	1	6
409.576	1	1
409.747	1	-2
409.917	1	-2
410.088	1	5
410.259	1	1
410.430	1	2
410.600	1	3
410.771	1	-6
410.942	1	-6
411.112	1	9
411.283	1	-9
411.454	1	-2
411.625	1	-5
411.795	1	3
411.966	1	-2
412.137	1	-5
412.307	1	-9
412.478	1	2
412.649	1	16
412.819	1	3
412.990	1	1
413.161	1	3
413.332	1	-5
413.502	1	5
413.673	1	0
413.844	1	-5
414.014	1	9
414.185	1	9
414.356	1	6
414.526	1	-4
414.697	1	6
414.868	1	-6
415.038	1	3
415.209	1	-7
415.380	1	2
415.550	1	-8
415.721	1	0
415.892	1	2
416.063	1	-6
416.233	1	7
416.404	1	-2
416.575	1	0
416.745	1	-2
416.916	1	-5
417.087	1	-3
417.257	1	4
417.428	1	-1
417.599	1	-7
417.769	1	9
417.940	1	1
418.111	1	9
418.281	1	-9
418.452	1	0
418.623	1	-1
418.793	1	-9
418.964	1	-8
419.135	1	0
419.305	1	-2
419.476	1	-1
419.647	1	8
419.817	1	-1
419.988	1	10
420.159	1	-1
420.329	1	9
420.500	1	-5
420.671	1	-5
420.841	1	2
421.012	1	1
421.183	1	5
421.353	1	4
421.524	1	-1
421.695	1	0
421.865	1	0
422.036	1	4
422.206	1	2
422.377	1	-3
422.548	1	3
422.718	1	-7
422.889	1	1
423.060	1	9
423.230	1	-8
423.401	1	10
423.572	1	-6
423.742	1	-5
423.913	1	3
424.084	1	0
424.254	1	8
424.425	1	3
424.595	1	5
424.766	1	1
424.937	1	-6
425.107	1	5
425.278	1	-12
425.449	1	4
425.619	1	6
425.790	1	6
425.961	1	1
426.131	1	9
426.302	1	3
426.472	1	0
426.643	1	-2
426.814	1	-4
426.984	1	-8
427.155	1	-9
427.326	1	-2
427.496	1	3
427.667	1	11
427.837	1	-4
428.008	1	-4
428.179	1	0
428.349	1	12
428.520	1	6
428.691	1	7
428.861	1	0
429.032	1	-8
429.202	1	1
429.373	1	2
429.544	1	5
429.714	1	-8
429.885	1	0
430.055	1	-2
430.226	1	-8
430.397	1	-6
430.567	1	2
430.738	1	-7
430.909	1	-3
431.079	1	13
431.250	1	0
431.420	1	-1
431.591	1	-3
431.762	1	8
431.932	1	-5
432.103	1	-11
432.273	1	2
432.444	1	-2
432.615	1	7
432.785	1	5
432.956	1	-8
433.126	1	-2
433.297	1	6
433.468	1	3
433.638	1	2
433.809	1	3
433.979	1	2
434.150	1	-3
434.320	1	9
434.491	1	-3
434.662	1	2
434.832	1	4
435.003	1	12
435.173	1	-1
435.344	1	4
435.515	1	1
435.685	1	-12
435.856	1	-8
436.026	1	-5
436.197	1	1
436.368	1	-4
436.538	1	3
436.709	1	-11
436.879	1	6
437.050	1	0
437.220	1	4
437.391	1	4
437.562	1	11
437.732	1	-7
437.903	1	2
438.073	1	6
438.244	1	3
438.414	1	-2
438.585	1	9
438.756	1	-6
438.926	1	3
439.097	1	5
439.267	1	-1
439.438	1	-5
439.608	1	7
439.779	1	8
439.949	1	0
440.120	1	-1
440.291	1	2
440.461	1	12
440.632	1	1
440.802	1	-7
440.973	1	6
441.143	1	-13
441.314	1	1
441.485	1	4
441.655	1	-3
441.826	1	-9
441.996	1	11
442.167	1	-6
442.337	1	-2
442.508	1	0
442.678	1	-6
442.849	1	8
443.019	1	2
443.190	1	9
443.361	1	-8
443.531	1	-5
443.702	1	-10
443.872	1	10
444.043	1	1
444.213	1	4
444.384	1	-3
444.554	1	4
444.725	1	2
444.895	1	5
445.066	1	-5
445.237	1	-11
445.407	1	-3
445.578	1	-4
445.748	1	3
445.919	1	-2
446.089	1	1
446.260	1	-1
446.430	1	-12
446.601	1	9
446.771	1	7
446.942	1	0
447.112	1	-2
447.283	1	-4
447.453	1	-8
447.624	1	-5
447.794	1	11
447.965	1	2
448.135	1	11
448.306	1	3
448.477	1	1
448.647	1	3
448.818	1	-10
448.988	1	-1
449.159	1	-2
449.329	1	-4
449.500	1	-4
449.670	1	0
449.841	1	-20
450.011	1	-7
450.182	1	7
450.352	1	4
450.523	1	2
450.693	1	1
450.864	1	-5
451.034	1	-2
451.205	1	8
451.375	1	4
451.546	1	4
451.716	1	-14
451.887	1	-4
452.057	1	14
452.228	1	-3
452.398	1	-11
452.569	1	-3
452.739	1	2
452.910	1	4
453.080	1	-2
453.251	1	15
453.421	1	-2
453.592	1	4
453.762	1	5
453.933	1	0
454.103	1	-2
454.274	1	-6
454.444	1	2
454.615	1	-7
454.785	1	6
454.956	1	3
455.126	1	-12
455.297	1	5
455.467	1	-6
455.638	1	-4
455.808	1	8
455.979	1	3
456.149	1	-15
456.320	1	-5
456.490	1	7
456.661	1	-5
456.831	1	7
457.001	1	1
457.172	1	0
457.342	1	1
457.513	1	-9
457.683	1	-1
457.854	1	1
458.024	1	11
458.195	1	-6
458.365	1	7
458.536	1	13
458.706	1	-5
458.877	1	15
459.047	1	-15
459.218	1	1
459.388	1	-3
459.559	1	-6
459.729	1	1
459.899	1	-7
460.070	1	0
460.240	1	14
460.411	1	5
460.581	1	1
460.752	1	1
460.922	1	11
461.093	1	6
461.263	1	2
461.434	1	4
461.604	1	-6
461.775	1	0
461.945	1	-2
462.115	1	-1
462.286	1	1
462.456	1	-5
462.627	1	-5
462.797	1	5
462.968	1	-6
463.138	1	-4
463.309	1	0
463.479	1	11
463.649	1	-4
463.820	1	-8
463.990	1	5
464.161	1	-6
464.331	1	9
464.502	1	-2
464.672	1	-2
464.843	1	-4
465.013	1	-10
465.183	1	-5
465.354	1	6
465.524	1	3
465.695	1	3
465.865	1	-6
466.036	1	-4
466.206	1	0
466.376	1	-2
466.547	1	-4
466.717	1	1
466.888	1	1
467.058	1	10
467.229	1	-3
467.399	1	4
467.569	1	-4
467.740	1	10
467.910	1	-4
468.081	1	12
468.251	1	4
468.422	1	4
468.592	1	-1
468.762	1	0
468.933	1	10
469.103	1	3
469.274	1	3
469.444	1	-5
469.614	1	0
469.785	1	10
469.955	1	0
470.126	1	-1
470.296	1	-5
470.467	1	1
470.637	1	3
470.807	1	0
470.978	1	-6
471.148	1	-1
471.319	1	5
471.489	1	-2
471.659	1	1
471.830	1	0
472.000	1	-5
472.171	1	-2
472.341	1	-10
472.511	1	-2
472.682	1	5
472.852	1	9
473.023	1	1
473.193	1	7
473.363	1	8
473.534	1	-3
473.704	1	-13
473.875	1	15
474.045	1	-5
474.215	1	-2
474.386	1	-7
474.556	1	8
474.727	1	6
474.897	1	-12
475.067	1	6
475.238	1	5
475.408	1	-1
475.578	1	-1
475.749	1	8
475.919	1	-2
476.090	1	2
476.260	1	-4
476.430	1	11
476.601	1	-1
476.771	1	-13
476.942	1	8
477.112	1	-1
477.282	1	5
477.453	1	3
477.623	1	-1
477.793	1	2
477.964	1	-7
478.134	1	13
478.305	1	6
478.475	1	-2
478.645	1	1
478.816	1	1
478.986	1	-9
479.156	1	-10
479.327	1	0
479.497	1	-3
479.667	1	-1
479.838	1	4
480.008	1	-5
480.179	1	2
480.349	1	-3
480.519	1	-4
480.690	1	4
480.860	1	7
481.030	1	-4
481.201	1	9
481.371	1	13
481.541	1	3
481.712	1	-3
481.882	1	2
482.053	1	5
482.223	1	0
482.393	1	7
482.564	1	-4
482.734	1	1
482.904	1	-3
483.075	1	17
483.245	1	-6
483.415	1	-6
483.586	1	-6
483.756	1	4
483.926	1	5
484.097	1	1
484.267	1	2
484.437	1	-6
484.608	1	8
484.778	1	11
484.948	1	-6
485.119	1	7
485.289	1	1
485.459	1	-22
485.630	1	-3
485.800	1	12
485.970	1	-7
486.141	1	3
486.311	1	14
486.481	1	-2
486.652	1	-1
486.822	1	4
486.992	1	-3
487.163	1	3
487.333	1	-6
487.503	1	-2
487.674	1	-1
487.844	1	1
488.014	1	-2
488.185	1	5
488.355	1	12
488.525	1	4
488.696	1	-3
488.866	1	-2
489.036	1	-2
489.207	1	-6
489.377	1	-1
489.547	1	0
489.718	1	2
489.888	1	-3
490.058	1	9
490.228	1	1
490.399	1	2
490.569	1	5
490.739	1	3
490.910	1	-2
491.080	1	-6
491.250	1	0
491.421	1	7
491.591	1	0
491.761	1	-4
491.932	1	6
492.102	1	7
492.272	1	-6
492.442	1	3
492.613	1	-8
492.783	1	-10
492.953	1	2
493.124	1	-2
493.294	1	9
493.464	1	-10
493.635	1	9
493.805	1	6
493.975	1	0
494.145	1	-18
494.316	1	0
494.486	1	3
494.656	1	-2
494.827	1	4
494.997	1	-6
495.167	1	6
495.337	1	-11
495.508	1	-5
495.678	1	-5
495.848	1	7
496.019	1	-4
496.189	1	-3
496.359	1	11
496.529	1	9
496.700	1	2
496.870	1	5
497.040	1	0
497.211	1	-8
497.381	1	-1
497.551	1	2
497.721	1	-5
497.892	1	-5
498.062	1	-1
498.232	1	5
498.403	1	-18
498.573	1	-1
498.743	1	7
498.913	1	4
499.084	1	1
499.254	1	3
499.424	1	-7
499.594	1	-4
499.765	1	0
499.935	1	5
500.105	1	6
500.275	1	5
500.446	1	1
500.616	1	-1
500.786	1	4
500.956	1	-3
501.127	1	6
501.297	1	-5
501.467	1	5
501.638	1	-6
501.808	1	1
501.978	1	-8
502.148	1	0
502.319	1	-6
502.489	1	4
502.659	1	3
502.829	1	-1
503.000	1	10
503.170	1	-10
503.340	1	4
503.510	1	-5
503.681	1	-4
503.851	1	-2
504.021	1	-21
504.191	1	-5
504.362	1	3
504.532	1	3
504.702	1	8
504.872	1	0
505.042	1	9
505.213	1	5
505.383	1	5
505.553	1	-1
505.723	1	7
505.894	1	3
506.064	1	5
506.234	1	0
506.404	1	-8
506.575	1	-4
506.745	1	2
506.915	1	-3
507.085	1	8
507.256	1	3
507.426	1	3
507.596	1	0
507.766	1	3
507.936	1	-10
508.107	1	2
508.277	1	-8
508.447	1	14
508.617	1	-9
508.788	1	9
508.958	1	7
509.128	1	13
509.298	1	-5
509.468	1	-6
509.639	1	-8
509.809	1	-6
509.979	1	-4
510.149	1	2
510.319	1	13
510.490	1	1
510.660	1	-10
510.830	1	10
511.000	1	3
511.171	1	8
511.341	1	-6
511.511	1	-4
511.681	1	-3
511.851	1	9
512.022	1	0
512.192	1	-17
512.362	1	-7
512.532	1	3
512.702	1	1
512.873	1	2
513.043	1	7
513.213	1	5
513.383	1	7
513.553	1	-1
513.724	1	-5
513.894	1	-9
514.064	1	-8
514.234	1	7
514.404	1	-3
514.575	1	-10
514.745	1	-4
514.915	1	-6
515.085	1	15
515.255	1	4
515.425	1	1
515.596	1	-12
515.766	1	-1
515.936	1	3
516.106	1	-2
516.276	1	10
516.447	1	0
516.617	1	7
516.787	1	0
516.957	1	-1
517.127	1	-3
517.297	1	-11
517.468	1	3
517.638	1	7
517.808	1	4
517.978	1	-2
518.148	1	3
518.319	1	-3
518.489	1	-1
518.659	1	-1
518.829	1	10
518.999	1	-1
519.169	1	-2
519.340	1	-9
519.510	1	-4
519.680	1	-1
519.850	1	8
520.020	1	6
520.190	1	7
520.361	1	-7
520.531	1	6
520.701	1	-4
520.871	1	-6
521.041	1	2
521.211	1	9
521.382	1	5
521.552	1	-2
521.722	1	-5
521.892	1	4
522.062	1	3
522.232	1	-16
522.402	1	-4
522.573	1	3
522.743	1	7
522.913	1	6
523.083	1	-6
523.253	1	0
523.423	1	0
523.593	1	1
523.764	1	-5
523.934	1	-11
524.104	1	-3
524.274	1	-15
524.444	1	3
524.614	1	5
524.784	1	0
524.955	1	4
525.125	1	-10
525.295	1	0
525.465	1	4
525.635	1	-7
525.805	1	-1
525.975	1	12
526.146	1	1
526.316	1	-9
526.486	1	3
526.656	1	-6
526.826	1	11
526.996	1	-9
527.166	1	-3
527.337	1	7
527.507	1	2
527.677	1	1
527.847	1	-7
528.017	1	2
528.187	1	1
528.357	1	3
528.527	1	1
528.698	1	-4
528.868	1	-4
529.038	1	-7
529.208	1	-1
529.378	1	2
529.548	1	-8
529.718	1	6
529.888	1	1
530.058	1	-7
530.229	1	2
530.399	1	3
530.569	1	-3
530.739	1	0
530.909	1	5
531.079	1	9
531.249	1	5
531.419	1	4
531.589	1	2
531.760	1	-9
531.930	1	-7
532.100	1	-1
532.270	1	0
532.440	1	7
532.610	1	-2
532.780	1	-3
532.950	1	5
533.120	1	7
533.290	1	14
533.461	1	-3
533.631	1	1
533.801	1	5
533.971	1	-1
534.141	1	0
534.311	1	4
534.481	1	-3
534.651	1	0
534.821	1	7
534.991	1	-6
535.162	1	6
535.332	1	7
535.502	1	-1
535.672	1	-4
535.842	1	4
536.012	1	0
536.182	1	1
536.352	1	-10
536.522	1	-5
536.692	1	3
536.862	1	-4
537.032	1	2
537.203	1	-15
537.373	1	3
537.543	1	-2
537.713	1	6
537.883	1	-9
538.053	1	-7
538.223	1	8
538.393	1	12
538.563	1	0
538.733	1	-2
538.903	1	10
539.073	1	6
539.243	1	-3
539.413	1	-3
539.584	1	9
539.754	1	-3
539.924	1	-4
540.094	1	-6
540.264	1	-1
540.434	1	4
540.604	1	2
540.774	1	3
540.944	1	-5
541.114	1	-7
541.284	1	8
541.454	1	-1
541.624	1	5
541.794	1	1
541.964	1	1
542.134	1	-6
542.305	1	-6
542.475	1	-10
542.645	1	-8
542.815	1	5
542.985	1	4
543.155	1	0
543.325	1	-3
543.495	1	-1
543.665	1	2
543.835	1	14
544.005	1	8
544.175	1	10
544.345	1	-9
544.515	1	0
544.685	1	1
544.855	1	3
545.025	1	5
545.195	1	-8
545.365	1	11
545.535	1	14
545.705	1	-5
545.875	1	7
546.045	1	-2
546.216	1	19
546.386	1	2
546.556	1	-9
546.726	1	-5
546.896	1	0
547.066	1	3
547.236	1	-6
547.406	1	-8
547.576	1	3
547.746	1	4
547.916	1	-4
548.086	1	-5
548.256	1	-10
548.426	1	5
548.596	1	-4
548.766	1	-1
548.936	1	8
549.106	1	-4
549.276	1	-11
549.446	1	-8
549.616	1	-8
549.786	1	1
549.956	1	-4
550.126	1	8
550.296	1	8
550.466	1	3
550.636	1	-6
550.806	1	7
550.976	1	-5
551.146	1	-3
551.316	1	2
551.486	1	-1
551.656	1	2
551.826	1	-4
551.996	1	8
552.166	1	5
552.336	1	0
552.506	1	-5
552.676	1	11
552.846	1	0
553.016	1	-11
553.186	1	-6
553.356	1	1
553.526	1	2
553.696	1	-2
553.866	1	-16
554.036	1	5
554.206	1	-3
554.376	1	0
554.546	1	2
554.716	1	-6
554.886	1	-2
555.056	1	0
555.226	1	19
555.396	1	-16
555.566	1	-2
555.736	1	0
555.906	1	-4
556.076	1	-6
556.246	1	-6
556.416	1	7
556.586	1	-7
556.756	1	2
556.926	1	3
557.096	1	-3
557.266	1	-4
557.436	1	-1
557.606	1	-18
557.776	1	-1
557.946	1	5
558.116	1	2
558.286	1	4
558.456	1	1
558.626	1	-16
558.796	1	9
558.966	1	-9
559.136	1	-10
559.306	1	2
559.476	1	-2
559.646	1	1
559.816	1	9
559.986	1	-3
560.155	1	-9
560.325	1	-16
560.495	1	-3
560.665	1	6
560.835	1	7
561.005	1	2
561.175	1	-3
561.345	1	-7
561.515	1	-6
561.685	1	-8
561.855	1	-4
562.025	1	1
562.195	1	-4
562.365	1	-2
562.535	1	1
562.705	1	5
562.875	1	-8
563.045	1	-11
563.215	1	6
563.385	1	-5
563.555	1	8
563.725	1	1
563.895	1	3
564.064	1	4
564.234	1	5
564.404	1	-2
564.574	1	8
564.744	1	3
564.914	1	5
565.084	1	1
565.254	1	-11
565.424	1	-13
565.594	1	6
565.764	1	4
565.934	1	-1
566.104	1	-8
566.274	1	8
566.444	1	4
566.614	1	-7
566.783	1	4
566.953	1	2
567.123	1	-9
567.293	1	11
567.463	1	0
567.633	1	-17
567.803	1	-2
567.973	1	0
568.143	1	18
568.313	1	-1
568.483	1	3
568.653	1	-7
568.823	1	-7
568.993	1	-1
569.162	1	2
569.332	1	4
569.502	1	3
569.672	1	-6
569.842	1	-10
570.012	1	3
570.182	1	2
570.352	1	-16
570.522	1	-17
570.692	1	16
570.862	1	7
571.031	1	11
571.201	1	3
571.371	1	-8
571.541	1	0
571.711	1	-1
571.881	1	2
572.051	1	0
572.221	1	8
572.391	1	13
572.561	1	2
572.731	1	10
572.900	1	-2
573.070	1	1
573.240	1	-4
573.410	1	4
573.580	1	-3
573.750	1	1
573.920	1	8
574.090	1	-10
574.260	1	3
574.430	1	-5
574.599	1	11
574.769	1	-10
574.939	1	1
575.109	1	4
575.279	1	-12
575.449	1	7
575.619	1	4
575.789	1	7
575.959	1	2
576.128	1	-6
576.298	1	-5
576.468	1	2
576.638	1	-5
576.808	1	0
576.978	1	-1
577.148	1	8
577.318	1	3
577.487	1	-8
577.657	1	0
577.827	1	-12
577.997	1	7
578.167	1	-8
578.337	1	0
578.507	1	-2
578.677	1	9
578.846	1	1
579.016	1	3
579.186	1	-4
579.356	1	12
579.526	1	4
579.696	1	-2
579.866	1	-7
580.036	1	-5
580.205	1	-5
580.375	1	-4
580.545	1	-5
580.715	1	4
580.885	1	2
581.055	1	6
581.225	1	-1
581.394	1	6
581.564	1	-9
581.734	1	2
581.904	1	2
582.074	1	1
582.244	1	-4
582.414	1	-2
582.583	1	8
582.753	1	-5
582.923	1	-6
583.093	1	-2
583.263	1	-1
583.433	1	0
583.603	1	0
583.772	1	-4
583.942	1	0
584.112	1	0
584.282	1	-5
584.452	1	15
584.622	1	-4
584.791	1	0
584.961	1	-10
585.131	1	4
585.301	1	0
585.471	1	-7
585.641	1	8
585.811	1	4
585.980	1	-1
586.150	1	-3
586.320	1	4
586.490	1	2
586.660	1	-12
586.830	1	-5
586.999	1	-12
587.169	1	10
587.339	1	-7
587.509	1	-8
587.679	1	7
587.849	1	1
588.018	1	11
588.188	1	8
588.358	1	-5
588.528	1	4
588.698	1	-2
588.867	1	4
589.037	1	4
589.207	1	0
589.377	1	8
589.547	1	-5
589.717	1	0
589.886	1	-2
590.056	1	-12
590.226	1	4
590.396	1	0
590.566	1	0
590.735	1	6
590.905	1	8
591.075	1	11
591.245	1	-3
591.415	1	9
591.585	1	14
591.754	1	0
591.924	1	-2
592.094	1	-1
592.264	1	-3
592.434	1	0
592.603	1	-1
592.773	1	2
592.943	1	3
593.113	1	-3
593.283	1	-17
593.452	1	7
593.622	1	10
593.792	1	-12
593.962	1	0
594.132	1	0
594.301	1	-7
594.471	1	-7
594.641	1	3
594.811	1	-8
594.981	1	-23
595.150	1	-3
595.320	1	5
595.490	1	-8
595.660	1	-5
595.829	1	1
595.999	1	7
596.169	1	1
596.339	1	8
596.509	1	5
596.678	1	-4
596.848	1	3
597.018	1	-2
597.188	1	0
597.358	1	-7
597.527	1	0
597.697	1	3
597.867	1	5
598.037	1	1
598.206	1	1
598.376	1	4
598.546	1	2
598.716	1	-4
598.885	1	6
599.055	1	-6
599.225	1	-2
599.395	1	-13
599.565	1	0
599.734	1	-3
599.904	1	-7
600.074	1	5
600.244	1	-4
600.413	1	13
600.583	1	-6
600.753	1	1
600.923	1	2
601.092	1	3
601.262	1	-6
601.432	1	-10
601.602	1	-1
601.771	1	5
601.941	1	0
602.111	1	-3
602.281	1	1
602.451	1	-3
602.620	1	-2
602.790	1	-2
602.960	1	-9
603.130	1	4
603.299	1	6
603.469	1	-3
603.639	1	-5
603.809	1	1
603.978	1	-2
604.148	1	9
604.318	1	-5
604.487	1	8
604.657	1	-10
604.827	1	-6
604.997	1	5
605.166	1	8
605.336	1	10
605.506	1	-6
605.676	1	0
605.845	1	-7
606.015	1	-6
606.185	1	4
606.355	1	9
606.524	1	5
606.694	1	-6
606.864	1	16
607.034	1	11
607.203	1	-2
607.373	1	-2
607.543	1	3
607.712	1	-1
607.882	1	8
608.052	1	-6
608.222	1	-5
608.391	1	9
608.561	1	3
608.731	1	-1
608.901	1	7
609.070	1	9
609.240	1	-6
609.410	1	7
609.579	1	2
609.749	1	-5
609.919	1	4
610.089	1	2
610.258	1	-2
610.428	1	4
610.598	1	5
610.767	1	0
610.937	1	4
611.107	1	5
611.277	1	5
611.446	1	3
611.616	1	-6
611.786	1	3
611.955	1	-8
612.125	1	3
612.295	1	13
612.465	1	0
612.634	1	1
612.804	1	-1
612.974	1	2
613.143	1	6
613.313	1	-4
613.483	1	-2
613.652	1	3
613.822	1	-4
613.992	1	2
614.162	1	-1
614.331	1	-9
614.501	1	9
614.671	1	4
614.840	1	-3
615.010	1	-2
615.180	1	-1
615.349	1	3
615.519	1	1
615.689	1	7
615.858	1	-8
616.028	1	13
616.198	1	4
616.368	1	4
616.537	1	4
616.707	1	2
616.877	1	-3
617.046	1	2
617.216	1	-3
617.386	1	-2
617.555	1	5
617.725	1	-4
617.895	1	1
618.064	1	3
618.234	1	6
618.404	1	-4
618.573	1	7
618.743	1	4
618.913	1	5
619.082	1	-4
619.252	1	-9
619.422	1	-2
619.591	1	-5
619.761	1	-3
619.931	1	-14
620.100	1	0
620.270	1	7
620.440	1	5
620.609	1	-5
620.779	1	5
620.949	1	-8
621.118	1	-8
621.288	1	-2
621.458	1	4
621.627	1	8
621.797	1	8
621.967	1	5
622.136	1	-1
622.306	1	0
622.476	1	-1
622.645	1	19
622.815	1	-2
622.985	1	1
623.154	1	-4
623.324	1	-2
623.494	1	4
623.663	1	-3
623.833	1	12
624.002	1	2
624.172	1	-1
624.342	1	2
624.511	1	5
624.681	1	-5
624.851	1	-2
625.020	1	9
625.190	1	-3
625.360	1	-6
625.529	1	-6
625.699	1	-3
625.869	1	3
626.038	1	-6
626.208	1	1
626.377	1	6
626.547	1	-3
626.717	1	5
626.886	1	-2
627.056	1	16
627.226	1	-7
627.395	1	-6
627.565	1	-9
627.735	1	6
627.904	1	0
628.074	1	3
628.243	1	10
628.413	1	8
628.583	1	-9
628.752	1	4
628.922	1	-11
629.091	1	-3
629.261	1	-9
629.431	1	-5
629.600	1	-5
629.770	1	0
629.940	1	3
630.109	1	-1
630.279	1	11
630.448	1	6
630.618	1	-5
630.788	1	-4
630.957	1	-1
631.127	1	-4
631.297	1	-7
631.466	1	7
631.636	1	9
631.805	1	-2
631.975	1	3
632.145	1	-7
632.314	1	2
632.484	1	-10
632.653	1	0
632.823	1	-2
632.993	1	8
633.162	1	-3
633.332	1	-3
633.501	1	18
633.671	1	-14
633.841	1	10
634.010	1	-7
634.180	1	2
634.349	1	-9
634.519	1	4
634.689	1	6
634.858	1	8
635.028	1	13
635.197	1	4
635.367	1	4
635.537	1	-4
635.706	1	-4
635.876	1	0
636.045	1	13
636.215	1	5
636.384	1	0
636.554	1	6
636.724	1	3
636.893	1	2
637.063	1	5
637.232	1	-13
637.402	1	-12
637.572	1	-4
637.741	1	-2
637.911	1	0
638.080	1	15
638.250	1	10
638.419	1	6
638.589	1	-3
638.759	1	2
638.928	1	-5
639.098	1	-11
639.267	1	-5
639.437	1	2
639.606	1	-4
639.776	1	-1
639.946	1	-1
640.115	1	6
640.285	1	-2
640.454	1	1
640.624	1	-15
640.793	1	-12
640.963	1	-11
641.132	1	7
641.302	1	10
641.472	1	2
641.641	1	-1
641.811	1	-3
641.980	1	-1
642.150	1	-9
642.319	1	18
642.489	1	-11
642.659	1	-6
642.828	1	0
642.998	1	8
643.167	1	2
643.337	1	2
643.506	1	9
643.676	1	7
643.845	1	-9
644.015	1	8
644.184	1	-5
644.354	1	-6
644.524	1	-2
644.693	1	1
644.863	1	-2
645.032	1	3
645.202	1	6
645.371	1	11
645.541	1	1
645.710	1	4
645.880	1	4
646.049	1	-10
646.219	1	1
646.388	1	-1
646.558	1	4
646.728	1	7
646.897	1	-3
647.067	1	3
647.236	1	-9
647.406	1	-1
647.575	1	-8
647.745	1	-2
647.914	1	-1
648.084	1	-4
648.253	1	8
648.423	1	4
648.592	1	-6
648.762	1	0
648.931	1	-4
649.101	1	-1
649.270	1	0
649.440	1	-6
649.610	1	-6
649.779	1	4
649.949	1	3
650.118	1	-2
650.288	1	-2
650.457	1	-3
650.627	1	7
650.796	1	-11
650.966	1	0
651.135	1	7
651.305	1	-2
651.474	1	-3
651.644	1	6
651.813	1	3
651.983	1	-12
652.152	1	4
652.322	1	-10
652.491	1	10
652.661	1	-7
652.830	1	4
653.000	1	-1
653.169	1	2
653.339	1	-5
653.508	1	0
653.678	1	-4
653.847	1	-2
654.017	1	-2
654.186	1	-1
654.356	1	3
654.525	1	4
654.695	1	-3
654.864	1	4
655.034	1	2
655.203	1	-3
655.373	1	-4
655.542	1	2
655.712	1	-7
655.881	1	7
656.051	1	-3
656.220	1	-1
656.390	1	-7
656.559	1	6
656.729	1	7
656.898	1	6
657.068	1	-6
657.237	1	-1
657.406	1	0
657.576	1	3
657.745	1	-7
657.915	1	6
658.084	1	-9
658.254	1	0
658.423	1	-1
658.593	1	-2
658.762	1	7
658.932	1	3
659.101	1	2
659.271	1	1
659.440	1	-2
659.610	1	-1
659.779	1	-6
659.949	1	1
660.118	1	-5
660.288	1	-2
660.457	1	-6
660.626	1	11
660.796	1	4
660.965	1	-2
661.135	1	6
661.304	1	8
661.474	1	3
661.643	1	-1
661.813	1	2
661.982	1	-5
662.152	1	0
662.321	1	-2
662.491	1	10
662.660	1	2
662.829	1	7
662.999	1	-5
663.168	1	-4
663.338	1	-6
663.507	1	1
663.677	1	-1
663.846	1	-2
664.016	1	2
664.185	1	-4
664.354	1	6
664.524	1	0
664.693	1	4
664.863	1	3
665.032	1	4
665.202	1	-2
665.371	1	-5
665.541	1	-9
665.710	1	2
665.879	1	2
666.049	1	2
666.218	1	5
666.388	1	2
666.557	1	-1
666.727	1	-8
666.896	1	14
667.065	1	10
667.235	1	6
667.404	1	-4
667.574	1	15
667.743	1	-5
667.913	1	6
668.082	1	-6
668.251	1	0
668.421	1	-6
668.590	1	9
668.760	1	-8
668.929	1	6
669.099	1	-17
669.268	1	-9
669.437	1	-2
669.607	1	-2
669.776	1	-4
669.946	1	3
670.115	1	14
670.285	1	3
670.454	1	1
670.623	1	12
670.793	1	-10
670.962	1	-7
671.132	1	6
671.301	1	0
671.470	1	13
671.640	1	-4
671.809	1	-3
671.979	1	-1
672.148	1	1
672.317	1	-6
672.487	1	-7
672.656	1	-7
672.826	1	0
672.995	1	1
673.164	1	14
673.334	1	-2
673.503	1	-3
673.673	1	6
673.842	1	-3
674.011	1	3
674.181	1	5
674.350	1	3
674.520	1	-10
674.689	1	9
674.858	1	-8
675.028	1	6
675.197	1	-11
675.367	1	-2
675.536	1	4
675.705	1	3
675.875	1	-6
676.044	1	4
676.214	1	6
676.383	1	-1
676.552	1	-1
676.722	1	-1
676.891	1	1
677.060	1	-6
677.230	1	3
677.399	1	4
677.569	1	-1
677.738	1	-5
677.907	1	5
678.077	1	8
678.246	1	-1
678.416	1	-4
678.585	1	-4
678.754	1	-2
678.924	1	-10
679.093	1	3
679.262	1	0
679.432	1	1
679.601	1	-6
679.771	1	-2
679.940	1	3
680.109	1	-2
680.279	1	-4
680.448	1	2
680.617	1	-11
680.787	1	1
680.956	1	-1
681.125	1	9
681.295	1	9
681.464	1	-9
681.634	1	-2
681.803	1	-2
681.972	1	-3
682.142	1	-7
682.311	1	-6
682.480	1	11
682.650	1	3
682.819	1	3
682.988	1	-2
683.158	1	8
683.327	1	-1
683.496	1	0
683.666	1	-2
683.835	1	-4
684.004	1	-2
684.174	1	2
684.343	1	2
684.512	1	6
684.682	1	2
684.851	1	-1
685.021	1	5
685.190	1	5
685.359	1	-6
685.529	1	-8
685.698	1	-1
685.867	1	-4
686.037	1	-1
686.206	1	0
686.375	1	5
686.545	1	-2
686.714	1	-13
686.883	1	-11
687.053	1	-5
687.222	1	-7
687.391	1	6
687.561	1	5
687.730	1	-7
687.899	1	3
688.069	1	2
688.238	1	9
688.407	1	10
688.577	1	-2
688.746	1	-4
