340.368	1	-2
340.539	1	9
340.710	1	11
340.881	1	7
341.052	1	1
341.223	1	11
341.394	1	2
341.565	1	-2
341.737	1	13
341.908	1	7
342.079	1	5
342.250	1	15
342.421	1	6
342.592	1	10
342.763	1	6
342.934	1	11
343.105	1	11
343.276	1	-5
343.447	1	4
343.618	1	-3
343.789	1	3
343.960	1	-12
344.131	1	7
344.302	1	7
344.473	1	6
344.644	1	13
344.815	1	-5
344.986	1	16
345.157	1	-14
345.328	1	11
345.499	1	-7
345.670	1	2
345.841	1	-1
346.012	1	3
346.183	1	2
346.354	1	3
346.526	1	10
346.697	1	1
346.868	1	7
347.039	1	-1
347.210	1	2
347.381	1	4
347.552	1	-1
347.723	1	5
347.894	1	-1
348.065	1	3
348.236	1	5
348.407	1	5
348.578	1	-1
348.749	1	5
348.920	1	4
349.091	1	1
349.262	1	12
349.433	1	12
349.604	1	5
349.775	1	0
349.946	1	5
350.117	1	9
350.288	1	-4
350.459	1	-7
350.630	1	9
350.801	1	5
350.972	1	4
351.143	1	-1
351.314	1	4
351.485	1	12
351.656	1	7
351.827	1	11
351.998	1	7
352.169	1	1
352.340	1	7
352.511	1	5
352.682	1	-2
352.853	1	15
353.024	1	0
353.195	1	2
353.366	1	6
353.537	1	6
353.708	1	7
353.879	1	1
354.050	1	7
354.221	1	12
354.392	1	9
354.563	1	2
354.734	1	6
354.905	1	6
355.076	1	5
355.247	1	9
355.418	1	3
355.589	1	1
355.760	1	15
355.931	1	4
356.102	1	-6
356.273	1	4
356.444	1	-3
356.615	1	10
356.785	1	6
356.956	1	8
357.127	1	8
357.298	1	7
357.469	1	6
357.640	1	6
357.811	1	9
357.982	1	3
358.153	1	2
358.324	1	6
358.495	1	17
358.666	1	8
358.837	1	4
359.008	1	5
359.179	1	4
359.350	1	0
359.521	1	14
359.692	1	6
359.863	1	2
360.034	1	7
360.205	1	2
360.376	1	7
360.547	1	2
360.718	1	19
360.889	1	10
361.060	1	14
361.231	1	8
361.401	1	12
361.572	1	28
361.743	1	17
361.914	1	8
362.085	1	13
362.256	1	8
362.427	1	19
362.598	1	9
362.769	1	20
362.940	1	10
363.111	1	27
363.282	1	21
363.453	1	10
363.624	1	18
363.795	1	12
363.966	1	19
364.137	1	20
364.308	1	26
364.478	1	17
364.649	1	23
364.820	1	29
364.991	1	27
365.162	1	30
365.333	1	26
365.504	1	29
365.675	1	31
365.846	1	26
366.017	1	38
366.188	1	26
366.359	1	23
366.530	1	30
366.701	1	42
366.871	1	30
367.042	1	34
367.213	1	25
367.384	1	35
367.555	1	38
367.726	1	38
367.897	1	33
368.068	1	36
368.239	1	43
368.410	1	24
368.581	1	46
368.752	1	40
368.923	1	47
369.093	1	26
369.264	1	32
369.435	1	31
369.606	1	48
369.777	1	36
369.948	1	31
370.119	1	34
370.290	1	46
370.461	1	32
370.632	1	33
370.803	1	31
370.973	1	27
371.144	1	28
371.315	1	37
371.486	1	30
371.657	1	23
371.828	1	31
371.999	1	16
372.170	1	24
372.341	1	32
372.512	1	26
372.682	1	26
372.853	1	23
373.024	1	22
373.195	1	14
373.366	1	23
373.537	1	25
373.708	1	21
373.879	1	23
374.050	1	18
374.220	1	17
374.391	1	20
374.562	1	18
374.733	1	14
374.904	1	19
375.075	1	25
375.246	1	25
375.417	1	13
375.588	1	18
375.758	1	6
375.929	1	8
376.100	1	26
376.271	1	17
376.442	1	19
376.613	1	16
376.784	1	11
376.955	1	17
377.125	1	18
377.296	1	7
377.467	1	22
377.638	1	5
377.809	1	14
377.980	1	4
378.151	1	16
378.321	1	15
378.492	1	19
378.663	1	15
378.834	1	10
379.005	1	22
379.176	1	10
379.347	1	7
379.518	1	26
379.688	1	9
379.859	1	9
380.030	1	8
380.201	1	14
380.372	1	13
380.543	1	14
380.714	1	22
380.884	1	2
381.055	1	10
381.226	1	15
381.397	1	10
381.568	1	7
381.739	1	21
381.910	1	11
382.080	1	7
382.251	1	5
382.422	1	14
382.593	1	9
382.764	1	14
382.935	1	2
383.105	1	9
383.276	1	5
383.447	1	10
383.618	1	11
383.789	1	14
383.960	1	14
384.130	1	16
384.301	1	2
384.472	1	9
384.643	1	11
384.814	1	5
384.985	1	12
385.156	1	8
385.326	1	20
385.497	1	5
385.668	1	11
385.839	1	10
386.010	1	2
386.180	1	8
386.351	1	6
386.522	1	15
386.693	1	2
386.864	1	17
387.035	1	15
387.205	1	8
387.376	1	4
387.547	1	12
387.718	1	13
387.889	1	5
388.060	1	17
388.230	1	11
388.401	1	10
388.572	1	16
388.743	1	12
388.914	1	0
389.084	1	9
389.255	1	4
389.426	1	19
389.597	1	-4
389.768	1	3
389.939	1	12
390.109	1	10
390.280	1	13
390.451	1	10
390.622	1	8
390.793	1	13
390.963	1	8
391.134	1	0
391.305	1	12
391.476	1	15
391.647	1	14
391.817	1	11
391.988	1	13
392.159	1	13
392.330	1	3
392.501	1	9
392.671	1	-1
392.842	1	13
393.013	1	10
393.184	1	13
393.355	1	2
393.525	1	9
393.696	1	-5
393.867	1	14
394.038	1	12
394.208	1	8
394.379	1	15
394.550	1	5
394.721	1	2
394.892	1	12
395.062	1	-3
395.233	1	9
395.404	1	1
395.575	1	8
395.746	1	16
395.916	1	13
396.087	1	15
396.258	1	16
396.429	1	15
396.599	1	3
396.770	1	12
396.941	1	5
397.112	1	14
397.283	1	13
397.453	1	25
397.624	1	11
397.795	1	-3
397.966	1	5
398.136	1	12
398.307	1	6
398.478	1	8
398.649	1	10
398.819	1	-2
398.990	1	5
399.161	1	13
399.332	1	18
399.503	1	14
399.673	1	12
399.844	1	2
400.015	1	10
400.186	1	2
400.356	1	12
400.527	1	9
400.698	1	10
400.869	1	5
401.039	1	12
401.210	1	1
401.381	1	12
401.552	1	14
401.722	1	4
401.893	1	10
402.064	1	-16
402.235	1	10
402.405	1	13
402.576	1	4
402.747	1	15
402.918	1	14
403.088	1	3
403.259	1	4
403.430	1	7
403.601	1	5
403.771	1	12
403.942	1	1
404.113	1	7
404.284	1	1
404.454	1	17
404.625	1	16
404.796	1	5
404.967	1	3
405.137	1	17
405.308	1	13
405.479	1	7
405.649	1	5
405.820	1	16
405.991	1	5
406.162	1	-3
406.332	1	13
406.503	1	12
406.674	1	7
406.845	1	5
407.015	1	15
407.186	1	8
407.357	1	8
407.527	1	6
407.698	1	5
407.869	1	0
408.040	1	9
408.210	1	8
408.381	1	22
408.552	1	-3
408.722	1	18
408.893	1	7
409.064	1	14
409.235	1	7
409.405	1	10
409.576	1	2
409.747	1	7
409.917	1	11
410.088	1	12
410.259	1	11
410.430	1	15
410.600	1	8
410.771	1	-5
410.942	1	12
411.112	1	8
411.283	1	1
411.454	1	4
411.625	1	-5
411.795	1	8
411.966	1	11
412.137	1	11
412.307	1	-11
412.478	1	7
412.649	1	16
412.819	1	4
412.990	1	5
413.161	1	15
413.332	1	10
413.502	1	11
413.673	1	7
413.844	1	5
414.014	1	12
414.185	1	9
414.356	1	16
414.526	1	11
414.697	1	3
414.868	1	6
415.038	1	10
415.209	1	10
415.380	1	12
415.550	1	9
415.721	1	12
415.892	1	8
416.063	1	11
416.233	1	8
416.404	1	11
416.575	1	16
416.745	1	6
416.916	1	3
417.087	1	10
417.257	1	1
417.428	1	8
417.599	1	-1
417.769	1	10
417.940	1	10
418.111	1	8
418.281	1	4
418.452	1	8
418.623	1	7
418.793	1	0
418.964	1	6
419.135	1	15
419.305	1	9
419.476	1	-1
419.647	1	12
419.817	1	10
419.988	1	11
420.159	1	8
420.329	1	17
420.500	1	7
420.671	1	3
420.841	1	13
421.012	1	12
421.183	1	13
421.353	1	1
421.524	1	4
421.695	1	1
421.865	1	2
422.036	1	9
422.206	1	9
422.377	1	6
422.548	1	13
422.718	1	3
422.889	1	7
423.060	1	7
423.230	1	0
423.401	1	9
423.572	1	-6
423.742	1	10
423.913	1	9
424.084	1	9
424.254	1	10
424.425	1	6
424.595	1	9
424.766	1	2
424.937	1	9
425.107	1	4
425.278	1	3
425.449	1	8
425.619	1	8
425.790	1	14
425.961	1	12
426.131	1	10
426.302	1	4
426.472	1	2
426.643	1	1
426.814	1	8
426.984	1	7
427.155	1	4
427.326	1	4
427.496	1	12
427.667	1	10
427.837	1	8
428.008	1	8
428.179	1	14
428.349	1	7
428.520	1	17
428.691	1	9
428.861	1	2
429.032	1	1
429.202	1	3
429.373	1	14
429.544	1	5
429.714	1	-2
429.885	1	12
430.055	1	-2
430.226	1	7
430.397	1	2
430.567	1	10
430.738	1	-3
430.909	1	9
431.079	1	18
431.250	1	17
431.420	1	4
431.591	1	2
431.762	1	19
431.932	1	-1
432.103	1	-3
432.273	1	9
432.444	1	15
432.615	1	13
432.785	1	8
432.956	1	2
433.126	1	15
433.297	1	12
433.468	1	7
433.638	1	10
433.809	1	15
433.979	1	9
434.150	1	2
434.320	1	10
434.491	1	4
434.662	1	10
434.832	1	3
435.003	1	16
435.173	1	3
435.344	1	11
435.515	1	10
435.685	1	3
435.856	1	-5
436.026	1	10
436.197	1	3
436.368	1	-4
436.538	1	11
436.709	1	5
436.879	1	5
437.050	1	7
437.220	1	0
437.391	1	21
437.562	1	10
437.732	1	6
437.903	1	15
438.073	1	17
438.244	1	16
438.414	1	-3
438.585	1	11
438.756	1	7
438.926	1	1
439.097	1	6
439.267	1	14
439.438	1	11
439.608	1	13
439.779	1	11
439.949	1	2
440.120	1	8
440.291	1	6
440.461	1	16
440.632	1	12
440.802	1	1
440.973	1	14
441.143	1	5
441.314	1	9
441.485	1	14
441.655	1	14
441.826	1	-2
441.996	1	12
442.167	1	10
442.337	1	4
442.508	1	-2
442.678	1	-3
442.849	1	10
443.019	1	10
443.190	1	6
443.361	1	3
443.531	1	-2
443.702	1	9
443.872	1	10
444.043	1	8
444.213	1	3
444.384	1	0
444.554	1	7
444.725	1	6
444.895	1	2
445.066	1	6
445.237	1	-3
445.407	1	3
445.578	1	6
445.748	1	19
445.919	1	1
446.089	1	5
446.260	1	8
446.430	1	1
446.601	1	10
446.771	1	9
446.942	1	7
447.112	1	-2
447.283	1	12
447.453	1	9
447.624	1	5
447.794	1	16
447.965	1	0
448.135	1	10
448.306	1	1
448.477	1	2
448.647	1	12
448.818	1	2
448.988	1	4
449.159	1	6
449.329	1	8
449.500	1	-4
449.670	1	-1
449.841	1	-1
450.011	1	-3
450.182	1	13
450.352	1	9
450.523	1	4
450.693	1	7
450.864	1	-5
451.034	1	1
451.205	1	1
451.375	1	12
451.546	1	7
451.716	1	-4
451.887	1	-7
452.057	1	6
452.228	1	13
452.398	1	-1
452.569	1	12
452.739	1	3
452.910	1	6
453.080	1	9
453.251	1	12
453.421	1	0
453.592	1	8
453.762	1	2
453.933	1	3
454.103	1	6
454.274	1	7
454.444	1	3
454.615	1	2
454.785	1	18
454.956	1	-3
455.126	1	-2
455.297	1	18
455.467	1	0
455.638	1	15
455.808	1	1
455.979	1	11
456.149	1	6
456.320	1	-5
456.490	1	8
456.661	1	-2
456.831	1	2
457.001	1	-5
457.172	1	2
457.342	1	6
457.513	1	-4
457.683	1	-2
457.854	1	8
458.024	1	7
458.195	1	5
458.365	1	11
458.536	1	12
458.706	1	11
458.877	1	24
459.047	1	-7
459.218	1	10
459.388	1	-5
459.559	1	13
459.729	1	-1
459.899	1	5
460.070	1	0
460.240	1	7
460.411	1	11
460.581	1	-1
460.752	1	11
460.922	1	2
461.093	1	19
461.263	1	1
461.434	1	14
461.604	1	-7
461.775	1	1
461.945	1	11
462.115	1	3
462.286	1	12
462.456	1	10
462.627	1	2
462.797	1	4
462.968	1	6
463.138	1	5
463.309	1	3
463.479	1	5
463.649	1	-4
463.820	1	-6
463.990	1	-4
464.161	1	-7
464.331	1	7
464.502	1	0
464.672	1	6
464.843	1	6
465.013	1	-2
465.183	1	7
465.354	1	8
465.524	1	-3
465.695	1	11
465.865	1	-5
466.036	1	8
466.206	1	0
466.376	1	13
466.547	1	-9
466.717	1	14
466.888	1	8
467.058	1	3
467.229	1	2
467.399	1	-4
467.569	1	10
467.740	1	10
467.910	1	7
468.081	1	4
468.251	1	7
468.422	1	5
468.592	1	5
468.762	1	-9
468.933	1	4
469.103	1	-1
469.274	1	6
469.444	1	-2
469.614	1	11
469.785	1	7
469.955	1	-4
470.126	1	-7
470.296	1	-6
470.467	1	7
470.637	1	1
470.807	1	5
470.978	1	-4
471.148	1	1
471.319	1	10
471.489	1	-3
471.659	1	0
471.830	1	-2
472.000	1	10
472.171	1	2
472.341	1	-1
472.511	1	8
472.682	1	7
472.852	1	7
473.023	1	3
473.193	1	5
473.363	1	15
473.534	1	11
473.704	1	-9
473.875	1	11
474.045	1	2
474.215	1	2
474.386	1	4
474.556	1	6
474.727	1	9
474.897	1	-2
475.067	1	3
475.238	1	10
475.408	1	11
475.578	1	1
475.749	1	18
475.919	1	-7
476.090	1	3
476.260	1	0
476.430	1	17
476.601	1	-3
476.771	1	-4
476.942	1	2
477.112	1	10
477.282	1	14
477.453	1	14
477.623	1	-4
477.793	1	-1
477.964	1	2
478.134	1	6
478.305	1	16
478.475	1	2
478.645	1	5
478.816	1	5
478.986	1	9
479.156	1	-1
479.327	1	9
479.497	1	7
479.667	1	8
479.838	1	2
480.008	1	2
480.179	1	3
480.349	1	-2
480.519	1	-2
480.690	1	0
480.860	1	20
481.030	1	7
481.201	1	13
481.371	1	6
481.541	1	0
481.712	1	2
481.882	1	0
482.053	1	0
482.223	1	0
482.393	1	8
482.564	1	0
482.734	1	1
482.904	1	5
483.075	1	11
483.245	1	0
483.415	1	7
483.586	1	4
483.756	1	1
483.926	1	2
484.097	1	2
484.267	1	13
484.437	1	4
484.608	1	20
484.778	1	9
484.948	1	6
485.119	1	11
485.289	1	2
485.459	1	-6
485.630	1	-2
485.800	1	11
485.970	1	11
486.141	1	-1
486.311	1	12
486.481	1	8
486.652	1	4
486.822	1	11
486.992	1	8
487.163	1	-8
487.333	1	-2
487.503	1	4
487.674	1	10
487.844	1	0
488.014	1	13
488.185	1	0
488.355	1	5
488.525	1	9
488.696	1	11
488.866	1	-1
489.036	1	6
489.207	1	4
489.377	1	3
489.547	1	8
489.718	1	7
489.888	1	2
490.058	1	12
490.228	1	13
490.399	1	8
490.569	1	3
490.739	1	7
490.910	1	-1
491.080	1	5
491.250	1	4
491.421	1	7
491.591	1	3
491.761	1	-1
491.932	1	4
492.102	1	14
492.272	1	1
492.442	1	12
492.613	1	-5
492.783	1	-6
492.953	1	10
493.124	1	7
493.294	1	10
493.464	1	3
493.635	1	9
493.805	1	0
493.975	1	16
494.145	1	-2
494.316	1	17
494.486	1	14
494.656	1	1
494.827	1	4
494.997	1	-1
495.167	1	8
495.337	1	5
495.508	1	1
495.678	1	9
495.848	1	8
496.019	1	2
496.189	1	8
496.359	1	20
496.529	1	10
496.700	1	10
496.870	1	8
497.040	1	10
497.211	1	6
497.381	1	-2
497.551	1	19
497.721	1	4
497.892	1	8
498.062	1	-5
498.232	1	15
498.403	1	-1
498.573	1	10
498.743	1	16
498.913	1	12
499.084	1	23
499.254	1	12
499.424	1	-1
499.594	1	7
499.765	1	1
499.935	1	1
500.105	1	11
500.275	1	11
500.446	1	9
500.616	1	6
500.786	1	11
500.956	1	8
501.127	1	16
501.297	1	1
501.467	1	3
501.638	1	6
501.808	1	8
501.978	1	16
502.148	1	8
502.319	1	5
502.489	1	16
502.659	1	7
502.829	1	9
503.000	1	7
503.170	1	1
503.340	1	8
503.510	1	8
503.681	1	3
503.851	1	3
504.021	1	5
504.191	1	14
504.362	1	-3
504.532	1	8
504.702	1	4
504.872	1	12
505.042	1	15
505.213	1	10
505.383	1	10
505.553	1	10
505.723	1	17
505.894	1	11
506.064	1	8
506.234	1	-1
506.404	1	0
506.575	1	-1
506.745	1	6
506.915	1	10
507.085	1	15
507.256	1	14
507.426	1	11
507.596	1	13
507.766	1	11
507.936	1	2
508.107	1	4
508.277	1	8
508.447	1	22
508.617	1	7
508.788	1	11
508.958	1	18
509.128	1	16
509.298	1	11
509.468	1	12
509.639	1	17
509.809	1	4
509.979	1	-2
510.149	1	19
510.319	1	14
510.490	1	6
510.660	1	3
510.830	1	16
511.000	1	12
511.171	1	17
511.341	1	2
511.511	1	2
511.681	1	15
511.851	1	15
512.022	1	12
512.192	1	-4
512.362	1	22
512.532	1	9
512.702	1	18
512.873	1	5
513.043	1	11
513.213	1	11
513.383	1	12
513.553	1	17
513.724	1	8
513.894	1	6
514.064	1	9
514.234	1	17
514.404	1	15
514.575	1	-2
514.745	1	0
514.915	1	-4
515.085	1	15
515.255	1	6
515.425	1	11
515.596	1	7
515.766	1	14
515.936	1	23
516.106	1	6
516.276	1	14
516.447	1	16
516.617	1	14
516.787	1	9
516.957	1	5
517.127	1	13
517.297	1	-2
517.468	1	13
517.638	1	12
517.808	1	9
517.978	1	15
518.148	1	15
518.319	1	4
518.489	1	13
518.659	1	11
518.829	1	15
518.999	1	12
519.169	1	15
519.340	1	-4
519.510	1	7
519.680	1	16
519.850	1	28
520.020	1	24
520.190	1	10
520.361	1	7
520.531	1	22
520.701	1	16
520.871	1	8
521.041	1	18
521.211	1	19
521.382	1	18
521.552	1	7
521.722	1	12
521.892	1	19
522.062	1	15
522.232	1	4
522.402	1	5
522.573	1	7
522.743	1	11
522.913	1	20
523.083	1	14
523.253	1	16
523.423	1	14
523.593	1	16
523.764	1	10
523.934	1	9
524.104	1	17
524.274	1	4
524.444	1	12
524.614	1	14
524.784	1	22
524.955	1	23
525.125	1	18
525.295	1	12
525.465	1	13
525.635	1	10
525.805	1	2
525.975	1	21
526.146	1	11
526.316	1	22
526.486	1	9
526.656	1	24
526.826	1	11
526.996	1	10
527.166	1	20
527.337	1	19
527.507	1	22
527.677	1	2
527.847	1	11
528.017	1	14
528.187	1	15
528.357	1	18
528.527	1	14
528.698	1	6
528.868	1	5
529.038	1	4
529.208	1	6
529.378	1	11
529.548	1	8
529.718	1	23
529.888	1	5
530.058	1	11
530.229	1	18
530.399	1	8
530.569	1	14
530.739	1	10
530.909	1	8
531.079	1	15
531.249	1	17
531.419	1	16
531.589	1	21
531.760	1	5
531.930	1	11
532.100	1	14
532.270	1	16
532.440	1	21
532.610	1	14
532.780	1	9
532.950	1	19
533.120	1	9
533.290	1	23
533.461	1	10
533.631	1	11
533.801	1	21
533.971	1	13
534.141	1	16
534.311	1	21
534.481	1	17
534.651	1	16
534.821	1	19
534.991	1	16
535.162	1	21
535.332	1	17
535.502	1	8
535.672	1	11
535.842	1	14
536.012	1	16
536.182	1	18
536.352	1	15
536.522	1	4
536.692	1	13
536.862	1	7
537.032	1	11
537.203	1	4
537.373	1	11
537.543	1	16
537.713	1	12
537.883	1	6
538.053	1	3
538.223	1	11
538.393	1	22
538.563	1	15
538.733	1	15
538.903	1	23
539.073	1	9
539.243	1	17
539.413	1	14
539.584	1	12
539.754	1	13
539.924	1	5
540.094	1	15
540.264	1	9
540.434	1	17
540.604	1	21
540.774	1	17
540.944	1	9
541.114	1	14
541.284	1	16
541.454	1	15
541.624	1	17
541.794	1	14
541.964	1	8
542.134	1	5
542.305	1	9
542.475	1	16
542.645	1	11
542.815	1	16
542.985	1	9
543.155	1	16
543.325	1	6
543.495	1	3
543.665	1	15
543.835	1	11
544.005	1	12
544.175	1	3
544.345	1	14
544.515	1	15
544.685	1	19
544.855	1	9
545.025	1	7
545.195	1	7
545.365	1	25
545.535	1	15
545.705	1	7
545.875	1	19
546.045	1	5
546.216	1	18
546.386	1	13
546.556	1	1
546.726	1	-4
546.896	1	14
547.066	1	9
547.236	1	2
547.406	1	7
547.576	1	15
547.746	1	6
547.916	1	5
548.086	1	-4
548.256	1	12
548.426	1	6
548.596	1	15
548.766	1	13
548.936	1	19
549.106	1	5
549.276	1	3
549.446	1	14
549.616	1	13
549.786	1	11
549.956	1	6
550.126	1	19
550.296	1	11
550.466	1	12
550.636	1	6
550.806	1	13
550.976	1	1
551.146	1	6
551.316	1	9
551.486	1	12
551.656	1	11
551.826	1	5
551.996	1	10
552.166	1	5
552.336	1	11
552.506	1	16
552.676	1	13
552.846	1	0
553.016	1	23
553.186	1	12
553.356	1	21
553.526	1	7
553.696	1	9
553.866	1	-2
554.036	1	12
554.206	1	3
554.376	1	11
554.546	1	14
554.716	1	14
554.886	1	1
555.056	1	20
555.226	1	14
555.396	1	4
555.566	1	7
555.736	1	10
555.906	1	14
556.076	1	6
556.246	1	10
556.416	1	11
556.586	1	18
556.756	1	9
556.926	1	12
557.096	1	2
557.266	1	10
557.436	1	12
557.606	1	8
557.776	1	4
557.946	1	12
558.116	1	10
558.286	1	14
558.456	1	7
558.626	1	2
558.796	1	17
558.966	1	2
559.136	1	11
559.306	1	2
559.476	1	9
559.646	1	17
559.816	1	10
559.986	1	6
560.155	1	12
560.325	1	-7
560.495	1	3
560.665	1	12
560.835	1	10
561.005	1	8
561.175	1	14
561.345	1	15
561.515	1	6
561.685	1	11
561.855	1	-10
562.025	1	10
562.195	1	0
562.365	1	13
562.535	1	7
562.705	1	13
562.875	1	9
563.045	1	1
563.215	1	1
563.385	1	9
563.555	1	11
563.725	1	2
563.895	1	13
564.064	1	15
564.234	1	19
564.404	1	5
564.574	1	16
564.744	1	10
564.914	1	8
565.084	1	16
565.254	1	-5
565.424	1	-1
565.594	1	18
565.764	1	8
565.934	1	11
566.104	1	6
566.274	1	9
566.444	1	17
566.614	1	5
566.783	1	9
566.953	1	10
567.123	1	-1
567.293	1	23
567.463	1	8
567.633	1	6
567.803	1	11
567.973	1	4
568.143	1	9
568.313	1	3
568.483	1	8
568.653	1	5
568.823	1	3
568.993	1	4
569.162	1	12
569.332	1	14
569.502	1	9
569.672	1	-2
569.842	1	1
570.012	1	6
570.182	1	9
570.352	1	-3
570.522	1	-11
570.692	1	14
570.862	1	15
571.031	1	5
571.201	1	7
571.371	1	14
571.541	1	3
571.711	1	5
571.881	1	6
572.051	1	8
572.221	1	6
572.391	1	7
572.561	1	13
572.731	1	10
572.900	1	11
573.070	1	9
573.240	1	2
573.410	1	-4
573.580	1	-4
573.750	1	-1
573.920	1	15
574.090	1	3
574.260	1	8
574.430	1	15
574.599	1	13
574.769	1	5
574.939	1	12
575.109	1	10
575.279	1	-3
575.449	1	9
575.619	1	16
575.789	1	9
575.959	1	4
576.128	1	11
576.298	1	0
576.468	1	4
576.638	1	4
576.808	1	4
576.978	1	1
577.148	1	6
577.318	1	12
577.487	1	8
577.657	1	20
577.827	1	1
577.997	1	7
578.167	1	-6
578.337	1	6
578.507	1	4
578.677	1	16
578.846	1	5
579.016	1	3
579.186	1	6
579.356	1	16
579.526	1	7
579.696	1	1
579.866	1	3
580.036	1	2
580.205	1	-6
580.375	1	2
580.545	1	5
580.715	1	11
580.885	1	15
581.055	1	3
581.225	1	3
581.394	1	-8
581.564	1	0
581.734	1	7
581.904	1	10
582.074	1	5
582.244	1	-4
582.414	1	-4
582.583	1	7
582.753	1	8
582.923	1	13
583.093	1	5
583.263	1	8
583.433	1	15
583.603	1	12
583.772	1	23
583.942	1	-2
584.112	1	12
584.282	1	-2
584.452	1	14
584.622	1	-7
584.791	1	9
584.961	1	0
585.131	1	12
585.301	1	0
585.471	1	5
585.641	1	14
585.811	1	7
585.980	1	4
586.150	1	9
586.320	1	0
586.490	1	5
586.660	1	-5
586.830	1	-2
586.999	1	0
587.169	1	7
587.339	1	3
587.509	1	5
587.679	1	5
587.849	1	4
588.018	1	14
588.188	1	12
588.358	1	-3
588.528	1	11
588.698	1	2
588.867	1	2
589.037	1	3
589.207	1	5
589.377	1	9
589.547	1	7
589.717	1	5
589.886	1	1
590.056	1	-3
590.226	1	23
590.396	1	4
590.566	1	8
590.735	1	12
590.905	1	10
591.075	1	8
591.245	1	6
591.415	1	5
591.585	1	5
591.754	1	-3
591.924	1	9
592.094	1	4
592.264	1	2
592.434	1	1
592.603	1	7
592.773	1	13
592.943	1	5
593.113	1	-7
593.283	1	-2
593.452	1	-4
593.622	1	15
593.792	1	-4
593.962	1	12
594.132	1	-5
594.301	1	-3
594.471	1	-3
594.641	1	4
594.811	1	5
594.981	1	-3
595.150	1	-2
595.320	1	8
595.490	1	1
595.660	1	3
595.829	1	8
595.999	1	11
596.169	1	6
596.339	1	7
596.509	1	2
596.678	1	-7
596.848	1	7
597.018	1	5
597.188	1	9
597.358	1	-1
597.527	1	3
597.697	1	-1
597.867	1	5
598.037	1	8
598.206	1	6
598.376	1	5
598.546	1	-1
598.716	1	0
598.885	1	8
599.055	1	3
599.225	1	10
599.395	1	2
599.565	1	4
599.734	1	-3
599.904	1	-1
600.074	1	0
600.244	1	5
600.413	1	12
600.583	1	0
600.753	1	3
600.923	1	3
601.092	1	2
601.262	1	3
601.432	1	-9
601.602	1	0
601.771	1	11
601.941	1	-3
602.111	1	10
602.281	1	0
602.451	1	14
602.620	1	-2
602.790	1	7
602.960	1	5
603.130	1	2
603.299	1	12
603.469	1	4
603.639	1	-2
603.809	1	-4
603.978	1	5
604.148	1	9
604.318	1	11
604.487	1	15
604.657	1	-3
604.827	1	4
604.997	1	15
605.166	1	2
605.336	1	4
605.506	1	3
605.676	1	6
605.845	1	6
606.015	1	6
606.185	1	9
606.355	1	5
606.524	1	5
606.694	1	3
606.864	1	14
607.034	1	9
607.203	1	-4
607.373	1	1
607.543	1	-1
607.712	1	4
607.882	1	13
608.052	1	5
608.222	1	1
608.391	1	7
608.561	1	1
608.731	1	-2
608.901	1	11
609.070	1	18
609.240	1	-8
609.410	1	8
609.579	1	15
609.749	1	2
609.919	1	11
610.089	1	4
610.258	1	6
610.428	1	0
610.598	1	9
610.767	1	2
610.937	1	13
611.107	1	5
611.277	1	4
611.446	1	12
611.616	1	4
611.786	1	-1
611.955	1	-1
612.125	1	1
612.295	1	10
612.465	1	-4
612.634	1	0
612.804	1	17
612.974	1	7
613.143	1	10
613.313	1	6
613.483	1	4
613.652	1	3
613.822	1	6
613.992	1	0
614.162	1	5
614.331	1	4
614.501	1	21
614.671	1	6
614.840	1	4
615.010	1	-2
615.180	1	5
615.349	1	-2
615.519	1	1
615.689	1	15
615.858	1	1
616.028	1	10
616.198	1	20
616.368	1	5
616.537	1	7
616.707	1	10
616.877	1	-6
617.046	1	5
617.216	1	4
617.386	1	-4
617.555	1	1
617.725	1	6
617.895	1	7
618.064	1	6
618.234	1	1
618.404	1	6
618.573	1	8
618.743	1	3
618.913	1	-2
619.082	1	0
619.252	1	0
619.422	1	-2
619.591	1	-3
619.761	1	9
619.931	1	0
620.100	1	-2
620.270	1	-4
620.440	1	3
620.609	1	-4
620.779	1	-13
620.949	1	1
621.118	1	4
621.288	1	0
621.458	1	6
621.627	1	17
621.797	1	5
621.967	1	7
622.136	1	3
622.306	1	7
622.476	1	5
622.645	1	13
622.815	1	-4
622.985	1	9
623.154	1	1
623.324	1	-4
623.494	1	6
623.663	1	6
623.833	1	14
624.002	1	5
624.172	1	1
624.342	1	5
624.511	1	3
624.681	1	14
624.851	1	4
625.020	1	4
625.190	1	1
625.360	1	1
625.529	1	-1
625.699	1	-2
625.869	1	13
626.038	1	11
626.208	1	1
626.377	1	5
626.547	1	6
626.717	1	12
626.886	1	0
627.056	1	10
627.226	1	-3
627.395	1	-2
627.565	1	12
627.735	1	12
627.904	1	6
628.074	1	8
628.243	1	0
628.413	1	6
628.583	1	-7
628.752	1	5
628.922	1	-2
629.091	1	2
629.261	1	-1
629.431	1	10
629.600	1	5
629.770	1	-1
629.940	1	14
630.109	1	6
630.279	1	11
630.448	1	9
630.618	1	0
630.788	1	2
630.957	1	2
631.127	1	6
631.297	1	1
631.466	1	12
631.636	1	7
631.805	1	5
631.975	1	8
632.145	1	-1
632.314	1	3
632.484	1	-3
632.653	1	-3
632.823	1	2
632.993	1	8
633.162	1	2
633.332	1	-9
633.501	1	16
633.671	1	-3
633.841	1	10
634.010	1	-1
634.180	1	16
634.349	1	0
634.519	1	4
634.689	1	4
634.858	1	13
635.028	1	11
635.197	1	9
635.367	1	4
635.537	1	-5
635.706	1	0
635.876	1	14
636.045	1	23
636.215	1	3
636.384	1	3
636.554	1	13
636.724	1	4
636.893	1	6
637.063	1	9
637.232	1	-9
637.402	1	-4
637.572	1	0
637.741	1	9
637.911	1	2
638.080	1	-4
638.250	1	6
638.419	1	4
638.589	1	11
638.759	1	-5
638.928	1	2
639.098	1	-16
639.267	1	18
639.437	1	11
639.606	1	0
639.776	1	5
639.946	1	2
640.115	1	14
640.285	1	-1
640.454	1	6
640.624	1	-10
640.793	1	-10
640.963	1	-6
641.132	1	12
641.302	1	5
641.472	1	5
641.641	1	7
641.811	1	1
641.980	1	-1
642.150	1	-5
642.319	1	12
642.489	1	-5
642.659	1	1
642.828	1	5
642.998	1	-3
643.167	1	11
643.337	1	-3
643.506	1	5
643.676	1	2
643.845	1	6
644.015	1	8
644.184	1	5
644.354	1	1
644.524	1	-4
644.693	1	2
644.863	1	1
645.032	1	8
645.202	1	9
645.371	1	17
645.541	1	8
645.710	1	19
645.880	1	5
646.049	1	-3
646.219	1	3
646.388	1	6
646.558	1	1
646.728	1	0
646.897	1	-5
647.067	1	4
647.236	1	7
647.406	1	6
647.575	1	-3
647.745	1	3
647.914	1	-8
648.084	1	7
648.253	1	-2
648.423	1	19
648.592	1	-1
648.762	1	10
648.931	1	3
649.101	1	-6
649.270	1	2
649.440	1	9
649.610	1	4
649.779	1	10
649.949	1	-1
650.118	1	-7
650.288	1	14
650.457	1	-1
650.627	1	1
650.796	1	-1
650.966	1	6
651.135	1	6
651.305	1	1
651.474	1	0
651.644	1	-2
651.813	1	10
651.983	1	-7
652.152	1	9
652.322	1	4
652.491	1	2
652.661	1	-6
652.830	1	1
653.000	1	-2
653.169	1	4
653.339	1	3
653.508	1	10
653.678	1	6
653.847	1	6
654.017	1	2
654.186	1	-4
654.356	1	-2
654.525	1	0
654.695	1	3
654.864	1	-3
655.034	1	7
655.203	1	8
655.373	1	11
655.542	1	-5
655.712	1	-4
655.881	1	13
656.051	1	9
656.220	1	-1
656.390	1	-1
656.559	1	-7
656.729	1	0
656.898	1	-2
657.068	1	-8
657.237	1	2
657.406	1	9
657.576	1	3
657.745	1	7
657.915	1	8
658.084	1	4
658.254	1	-1
658.423	1	-1
658.593	1	2
658.762	1	15
658.932	1	20
659.101	1	4
659.271	1	6
659.440	1	-7
659.610	1	3
659.779	1	10
659.949	1	2
660.118	1	-5
660.288	1	-3
660.457	1	-4
660.626	1	0
660.796	1	10
660.965	1	8
661.135	1	18
661.304	1	8
661.474	1	10
661.643	1	-1
661.813	1	3
661.982	1	-8
662.152	1	1
662.321	1	-8
662.491	1	17
662.660	1	3
662.829	1	18
662.999	1	-3
663.168	1	0
663.338	1	-6
663.507	1	-2
663.677	1	-2
663.846	1	3
664.016	1	10
664.185	1	-3
664.354	1	10
664.524	1	1
664.693	1	11
664.863	1	5
665.032	1	10
665.202	1	1
665.371	1	4
665.541	1	-9
665.710	1	-2
665.879	1	-4
666.049	1	10
666.218	1	10
666.388	1	9
666.557	1	8
666.727	1	-6
666.896	1	0
667.065	1	8
667.235	1	4
667.404	1	12
667.574	1	10
667.743	1	1
667.913	1	7
668.082	1	8
668.251	1	-4
668.421	1	-5
668.590	1	3
668.760	1	2
668.929	1	13
669.099	1	-5
669.268	1	3
669.437	1	-11
669.607	1	-1
669.776	1	0
669.946	1	11
670.115	1	8
670.285	1	6
670.454	1	5
670.623	1	12
670.793	1	-2
670.962	1	-3
671.132	1	-5
671.301	1	6
671.470	1	11
671.640	1	-13
671.809	1	-8
671.979	1	4
672.148	1	-1
672.317	1	-2
672.487	1	-5
672.656	1	-3
672.826	1	7
672.995	1	7
673.164	1	5
673.334	1	0
673.503	1	-2
673.673	1	13
673.842	1	0
674.011	1	-5
674.181	1	9
674.350	1	-4
674.520	1	0
674.689	1	10
674.858	1	1
675.028	1	4
675.197	1	1
675.367	1	1
675.536	1	6
675.705	1	17
675.875	1	2
676.044	1	3
676.214	1	6
676.383	1	2
676.552	1	1
676.722	1	-3
676.891	1	6
677.060	1	3
677.230	1	17
677.399	1	3
677.569	1	7
677.738	1	-5
677.907	1	-4
678.077	1	4
678.246	1	13
678.416	1	14
678.585	1	-2
678.754	1	13
678.924	1	0
679.093	1	5
679.262	1	4
679.432	1	6
679.601	1	6
679.771	1	10
679.940	1	0
680.109	1	-5
680.279	1	8
680.448	1	-6
680.617	1	-10
680.787	1	2
680.956	1	-1
681.125	1	7
681.295	1	6
681.464	1	2
681.634	1	12
681.803	1	1
681.972	1	-1
682.142	1	0
682.311	1	-2
682.480	1	6
682.650	1	3
682.819	1	4
682.988	1	-1
683.158	1	6
683.327	1	10
683.496	1	5
683.666	1	4
683.835	1	-6
684.004	1	7
684.174	1	6
684.343	1	5
684.512	1	11
684.682	1	8
684.851	1	-6
685.021	1	8
685.190	1	0
685.359	1	3
685.529	1	-3
685.698	1	-3
685.867	1	8
686.037	1	6
686.206	1	11
686.375	1	3
686.545	1	0
686.714	1	-3
686.883	1	5
687.053	1	0
687.222	1	-3
687.391	1	2
687.561	1	14
687.730	1	1
687.899	1	12
688.069	1	2
688.238	1	6
688.407	1	2
688.577	1	4
688.746	1	9
