340.368	1	3
340.539	1	16
340.710	1	9
340.881	1	5
341.052	1	-8
341.223	1	-2
341.394	1	-5
341.565	1	-5
341.737	1	6
341.908	1	7
342.079	1	3
342.250	1	11
342.421	1	15
342.592	1	0
342.763	1	-5
342.934	1	10
343.105	1	-2
343.276	1	-4
343.447	1	6
343.618	1	3
343.789	1	-3
343.960	1	-16
344.131	1	4
344.302	1	11
344.473	1	7
344.644	1	4
344.815	1	-7
344.986	1	7
345.157	1	-14
345.328	1	11
345.499	1	-3
345.670	1	4
345.841	1	-2
346.012	1	4
346.183	1	9
346.354	1	2
346.526	1	-14
346.697	1	2
346.868	1	6
347.039	1	-5
347.210	1	-4
347.381	1	4
347.552	1	-6
347.723	1	4
347.894	1	2
348.065	1	11
348.236	1	-2
348.407	1	-4
348.578	1	-3
348.749	1	8
348.920	1	1
349.091	1	-3
349.262	1	0
349.433	1	10
349.604	1	-1
349.775	1	-8
349.946	1	1
350.117	1	8
350.288	1	-2
350.459	1	-8
350.630	1	7
350.801	1	8
350.972	1	10
351.143	1	-1
351.314	1	-4
351.485	1	9
351.656	1	3
351.827	1	-2
351.998	1	-5
352.169	1	8
352.340	1	10
352.511	1	1
352.682	1	8
352.853	1	10
353.024	1	-5
353.195	1	2
353.366	1	6
353.537	1	-5
353.708	1	-1
353.879	1	-4
354.050	1	9
354.221	1	13
354.392	1	2
354.563	1	3
354.734	1	-4
354.905	1	4
355.076	1	4
355.247	1	6
355.418	1	2
355.589	1	-5
355.760	1	2
355.931	1	5
356.102	1	6
356.273	1	4
356.444	1	-11
356.615	1	-2
356.785	1	8
356.956	1	7
357.127	1	5
357.298	1	-5
357.469	1	0
357.640	1	-2
357.811	1	2
357.982	1	-5
358.153	1	-8
358.324	1	3
358.495	1	5
358.666	1	4
358.837	1	0
359.008	1	2
359.179	1	-2
359.350	1	-3
359.521	1	-5
359.692	1	8
359.863	1	-1
360.034	1	3
360.205	1	-4
360.376	1	7
360.547	1	2
360.718	1	11
360.889	1	3
361.060	1	-4
361.231	1	-2
361.401	1	-5
361.572	1	16
361.743	1	16
361.914	1	2
362.085	1	6
362.256	1	-3
362.427	1	6
362.598	1	4
362.769	1	4
362.940	1	-5
363.111	1	20
363.282	1	9
363.453	1	0
363.624	1	10
363.795	1	2
363.966	1	7
364.137	1	8
364.308	1	10
364.478	1	6
364.649	1	4
364.820	1	11
364.991	1	-1
365.162	1	5
365.333	1	-8
365.504	1	8
365.675	1	-1
365.846	1	2
366.017	1	3
366.188	1	10
366.359	1	5
366.530	1	0
366.701	1	10
366.871	1	8
367.042	1	13
367.213	1	6
367.384	1	16
367.555	1	10
367.726	1	5
367.897	1	0
368.068	1	1
368.239	1	4
368.410	1	2
368.581	1	8
368.752	1	19
368.923	1	12
369.093	1	4
369.264	1	5
369.435	1	7
369.606	1	9
369.777	1	1
369.948	1	3
370.119	1	2
370.290	1	-3
370.461	1	9
370.632	1	-5
370.803	1	1
370.973	1	1
371.144	1	9
371.315	1	14
371.486	1	4
371.657	1	-4
371.828	1	5
371.999	1	4
372.170	1	3
372.341	1	1
372.512	1	5
372.682	1	14
372.853	1	-1
373.024	1	1
373.195	1	-1
373.366	1	7
373.537	1	2
373.708	1	6
373.879	1	8
374.050	1	8
374.220	1	0
374.391	1	6
374.562	1	-5
374.733	1	-10
374.904	1	7
375.075	1	13
375.246	1	5
375.417	1	-9
375.588	1	5
375.758	1	0
375.929	1	-1
376.100	1	1
376.271	1	5
376.442	1	0
376.613	1	0
376.784	1	7
376.955	1	5
377.125	1	1
377.296	1	4
377.467	1	9
377.638	1	-6
377.809	1	0
377.980	1	-6
378.151	1	10
378.321	1	6
378.492	1	3
378.663	1	4
378.834	1	6
379.005	1	10
379.176	1	2
379.347	1	-2
379.518	1	12
379.688	1	4
379.859	1	3
380.030	1	-3
380.201	1	6
380.372	1	8
380.543	1	10
380.714	1	13
380.884	1	-5
381.055	1	0
381.226	1	6
381.397	1	4
381.568	1	1
381.739	1	2
381.910	1	7
382.080	1	-10
382.251	1	4
382.422	1	-2
382.593	1	12
382.764	1	-3
382.935	1	13
383.105	1	7
383.276	1	-4
383.447	1	12
383.618	1	4
383.789	1	2
383.960	1	5
384.130	1	9
384.301	1	-1
384.472	1	7
384.643	1	3
384.814	1	4
384.985	1	10
385.156	1	5
385.326	1	1
385.497	1	6
385.668	1	5
385.839	1	0
386.010	1	-1
386.180	1	11
386.351	1	5
386.522	1	-7
386.693	1	-1
386.864	1	4
387.035	1	23
387.205	1	-6
387.376	1	10
387.547	1	2
387.718	1	5
387.889	1	-1
388.060	1	-1
388.230	1	-8
388.401	1	4
388.572	1	5
388.743	1	4
388.914	1	-5
389.084	1	3
389.255	1	-1
389.426	1	1
389.597	1	-11
389.768	1	-8
389.939	1	3
390.109	1	5
390.280	1	12
390.451	1	2
390.622	1	8
390.793	1	9
390.963	1	9
391.134	1	1
391.305	1	5
391.476	1	0
391.647	1	5
391.817	1	6
391.988	1	12
392.159	1	7
392.330	1	-3
392.501	1	6
392.671	1	-12
392.842	1	8
393.013	1	9
393.184	1	-8
393.355	1	4
393.525	1	2
393.696	1	-3
393.867	1	9
394.038	1	9
394.208	1	-11
394.379	1	2
394.550	1	3
394.721	1	2
394.892	1	10
395.062	1	2
395.233	1	-3
395.404	1	-14
395.575	1	-6
395.746	1	15
395.916	1	8
396.087	1	10
396.258	1	3
396.429	1	0
396.599	1	10
396.770	1	6
396.941	1	2
397.112	1	7
397.283	1	0
397.453	1	16
397.624	1	0
397.795	1	-1
397.966	1	4
398.136	1	7
398.307	1	10
398.478	1	-4
398.649	1	2
398.819	1	-9
398.990	1	6
399.161	1	4
399.332	1	10
399.503	1	5
399.673	1	4
399.844	1	-9
400.015	1	9
400.186	1	-1
400.356	1	6
400.527	1	3
400.698	1	-2
400.869	1	10
401.039	1	6
401.210	1	-4
401.381	1	2
401.552	1	11
401.722	1	-5
401.893	1	-7
402.064	1	-17
402.235	1	9
402.405	1	4
402.576	1	2
402.747	1	6
402.918	1	7
403.088	1	-1
403.259	1	-5
403.430	1	4
403.601	1	11
403.771	1	6
403.942	1	1
404.113	1	5
404.284	1	-1
404.454	1	15
404.625	1	7
404.796	1	-1
404.967	1	9
405.137	1	7
405.308	1	2
405.479	1	-8
405.649	1	6
405.820	1	18
405.991	1	15
406.162	1	-5
406.332	1	5
406.503	1	4
406.674	1	6
406.845	1	-5
407.015	1	2
407.186	1	4
407.357	1	2
407.527	1	0
407.698	1	15
407.869	1	-4
408.040	1	-1
408.210	1	-2
408.381	1	7
408.552	1	0
408.722	1	4
408.893	1	5
409.064	1	9
409.235	1	-7
409.405	1	5
409.576	1	5
409.747	1	4
409.917	1	4
410.088	1	5
410.259	1	0
410.430	1	5
410.600	1	-1
410.771	1	-5
410.942	1	4
411.112	1	15
411.283	1	-2
411.454	1	6
411.625	1	6
411.795	1	0
411.966	1	2
412.137	1	-12
412.307	1	0
412.478	1	-5
412.649	1	6
412.819	1	6
412.990	1	-2
413.161	1	3
413.332	1	-15
413.502	1	13
413.673	1	9
413.844	1	8
414.014	1	6
414.185	1	3
414.356	1	7
414.526	1	3
414.697	1	1
414.868	1	1
415.038	1	8
415.209	1	-2
415.380	1	13
415.550	1	0
415.721	1	4
415.892	1	9
416.063	1	-7
416.233	1	7
416.404	1	-3
416.575	1	1
416.745	1	4
416.916	1	-3
417.087	1	9
417.257	1	-5
417.428	1	8
417.599	1	-2
417.769	1	11
417.940	1	4
418.111	1	-2
418.281	1	-5
418.452	1	13
418.623	1	6
418.793	1	-5
418.964	1	-4
419.135	1	4
419.305	1	7
419.476	1	-3
419.647	1	7
419.817	1	-3
419.988	1	11
420.159	1	5
420.329	1	9
420.500	1	6
420.671	1	1
420.841	1	11
421.012	1	-4
421.183	1	-2
421.353	1	-4
421.524	1	3
421.695	1	-12
421.865	1	11
422.036	1	-1
422.206	1	7
422.377	1	7
422.548	1	14
422.718	1	1
422.889	1	-8
423.060	1	3
423.230	1	6
423.401	1	7
423.572	1	1
423.742	1	5
423.913	1	4
424.084	1	14
424.254	1	4
424.425	1	10
424.595	1	1
424.766	1	3
424.937	1	5
425.107	1	12
425.278	1	-4
425.449	1	2
425.619	1	6
425.790	1	9
425.961	1	13
426.131	1	14
426.302	1	10
426.472	1	7
426.643	1	1
426.814	1	2
426.984	1	-1
427.155	1	0
427.326	1	2
427.496	1	-3
427.667	1	6
427.837	1	1
428.008	1	0
428.179	1	-4
428.349	1	-1
428.520	1	6
428.691	1	4
428.861	1	-1
429.032	1	-4
429.202	1	4
429.373	1	3
429.544	1	9
429.714	1	-4
429.885	1	4
430.055	1	-5
430.226	1	-1
430.397	1	-7
430.567	1	10
430.738	1	-13
430.909	1	4
431.079	1	19
431.250	1	12
431.420	1	-4
431.591	1	2
431.762	1	-3
431.932	1	-2
432.103	1	-11
432.273	1	1
432.444	1	3
432.615	1	8
432.785	1	4
432.956	1	-6
433.126	1	4
433.297	1	7
433.468	1	4
433.638	1	6
433.809	1	11
433.979	1	6
434.150	1	-3
434.320	1	3
434.491	1	3
434.662	1	7
434.832	1	-1
435.003	1	9
435.173	1	-3
435.344	1	9
435.515	1	8
435.685	1	-7
435.856	1	-7
436.026	1	5
436.197	1	1
436.368	1	-8
436.538	1	6
436.709	1	-7
436.879	1	2
437.050	1	1
437.220	1	1
437.391	1	12
437.562	1	-4
437.732	1	16
437.903	1	3
438.073	1	11
438.244	1	8
438.414	1	2
438.585	1	8
438.756	1	4
438.926	1	-1
439.097	1	8
439.267	1	-5
439.438	1	5
439.608	1	10
439.779	1	5
439.949	1	13
440.120	1	-1
440.291	1	0
440.461	1	15
440.632	1	4
440.802	1	-2
440.973	1	3
441.143	1	-3
441.314	1	3
441.485	1	5
441.655	1	15
441.826	1	4
441.996	1	11
442.167	1	1
442.337	1	10
442.508	1	-4
442.678	1	-1
442.849	1	3
443.019	1	6
443.190	1	-2
443.361	1	-2
443.531	1	0
443.702	1	4
443.872	1	6
444.043	1	-1
444.213	1	0
444.384	1	-6
444.554	1	2
444.725	1	1
444.895	1	2
445.066	1	1
445.237	1	0
445.407	1	2
445.578	1	-4
445.748	1	2
445.919	1	2
446.089	1	10
446.260	1	4
446.430	1	-5
446.601	1	6
446.771	1	4
446.942	1	7
447.112	1	3
447.283	1	4
447.453	1	-4
447.624	1	-5
447.794	1	9
447.965	1	6
448.135	1	14
448.306	1	3
448.477	1	7
448.647	1	12
448.818	1	1
448.988	1	2
449.159	1	-1
449.329	1	-14
449.500	1	-7
449.670	1	4
449.841	1	-11
450.011	1	-3
450.182	1	14
450.352	1	9
450.523	1	2
450.693	1	-4
450.864	1	-1
451.034	1	-5
451.205	1	5
451.375	1	4
451.546	1	5
451.716	1	2
451.887	1	-6
452.057	1	12
452.228	1	3
452.398	1	3
452.569	1	-5
452.739	1	4
452.910	1	12
453.080	1	-3
453.251	1	11
453.421	1	-1
453.592	1	6
453.762	1	6
453.933	1	9
454.103	1	3
454.274	1	2
454.444	1	5
454.615	1	-8
454.785	1	8
454.956	1	-5
455.126	1	-11
455.297	1	6
455.467	1	4
455.638	1	7
455.808	1	7
455.979	1	13
456.149	1	-14
456.320	1	5
456.490	1	-5
456.661	1	-2
456.831	1	-2
457.001	1	9
457.172	1	6
457.342	1	-1
457.513	1	-8
457.683	1	4
457.854	1	2
458.024	1	16
458.195	1	0
458.365	1	8
458.536	1	4
458.706	1	0
458.877	1	21
459.047	1	-3
459.218	1	5
459.388	1	1
459.559	1	-7
459.729	1	-2
459.899	1	0
460.070	1	10
460.240	1	9
460.411	1	10
460.581	1	3
460.752	1	1
460.922	1	0
461.093	1	4
461.263	1	6
461.434	1	12
461.604	1	-12
461.775	1	0
461.945	1	7
462.115	1	-9
462.286	1	-2
462.456	1	5
462.627	1	-8
462.797	1	-3
462.968	1	0
463.138	1	-2
463.309	1	4
463.479	1	8
463.649	1	1
463.820	1	-4
463.990	1	-2
464.161	1	-4
464.331	1	6
464.502	1	2
464.672	1	3
464.843	1	3
465.013	1	-4
465.183	1	7
465.354	1	-4
465.524	1	7
465.695	1	7
465.865	1	-3
466.036	1	6
466.206	1	-1
466.376	1	2
466.547	1	-1
466.717	1	3
466.888	1	-3
467.058	1	0
467.229	1	7
467.399	1	-2
467.569	1	1
467.740	1	6
467.910	1	-1
468.081	1	1
468.251	1	6
468.422	1	10
468.592	1	-4
468.762	1	-4
468.933	1	2
469.103	1	8
469.274	1	12
469.444	1	-1
469.614	1	8
469.785	1	12
469.955	1	-5
470.126	1	-6
470.296	1	-5
470.467	1	3
470.637	1	1
470.807	1	-3
470.978	1	-6
471.148	1	3
471.319	1	2
471.489	1	-1
471.659	1	3
471.830	1	0
472.000	1	9
472.171	1	-1
472.341	1	-4
472.511	1	-4
472.682	1	13
472.852	1	2
473.023	1	5
473.193	1	1
473.363	1	13
473.534	1	5
473.704	1	-3
473.875	1	10
474.045	1	2
474.215	1	1
474.386	1	6
474.556	1	-3
474.727	1	5
474.897	1	-1
475.067	1	2
475.238	1	10
475.408	1	1
475.578	1	-7
475.749	1	0
475.919	1	-4
476.090	1	-2
476.260	1	4
476.430	1	6
476.601	1	4
476.771	1	-11
476.942	1	11
477.112	1	-1
477.282	1	-1
477.453	1	2
477.623	1	1
477.793	1	6
477.964	1	-3
478.134	1	12
478.305	1	7
478.475	1	-6
478.645	1	-2
478.816	1	12
478.986	1	-9
479.156	1	6
479.327	1	1
479.497	1	2
479.667	1	3
479.838	1	-7
480.008	1	-3
480.179	1	1
480.349	1	5
480.519	1	-5
480.690	1	6
480.860	1	7
481.030	1	4
481.201	1	9
481.371	1	10
481.541	1	6
481.712	1	1
481.882	1	-6
482.053	1	3
482.223	1	3
482.393	1	7
482.564	1	-2
482.734	1	1
482.904	1	7
483.075	1	13
483.245	1	-2
483.415	1	4
483.586	1	-1
483.756	1	6
483.926	1	0
484.097	1	-1
484.267	1	5
484.437	1	4
484.608	1	11
484.778	1	7
484.948	1	2
485.119	1	10
485.289	1	2
485.459	1	-9
485.630	1	-1
485.800	1	9
485.970	1	3
486.141	1	6
486.311	1	10
486.481	1	-1
486.652	1	7
486.822	1	12
486.992	1	-2
487.163	1	5
487.333	1	-5
487.503	1	0
487.674	1	-5
487.844	1	5
488.014	1	12
488.185	1	5
488.355	1	14
488.525	1	-1
488.696	1	-11
488.866	1	3
489.036	1	8
489.207	1	-2
489.377	1	-5
489.547	1	-1
489.718	1	5
489.888	1	9
490.058	1	10
490.228	1	4
490.399	1	-5
490.569	1	2
490.739	1	-2
490.910	1	-11
491.080	1	-8
491.250	1	11
491.421	1	7
491.591	1	-2
491.761	1	-7
491.932	1	0
492.102	1	9
492.272	1	-9
492.442	1	-3
492.613	1	-9
492.783	1	-7
492.953	1	-2
493.124	1	6
493.294	1	4
493.464	1	-2
493.635	1	6
493.805	1	8
493.975	1	10
494.145	1	0
494.316	1	-3
494.486	1	4
494.656	1	1
494.827	1	-1
494.997	1	-1
495.167	1	4
495.337	1	2
495.508	1	-5
495.678	1	-1
495.848	1	3
496.019	1	-7
496.189	1	-1
496.359	1	5
496.529	1	5
496.700	1	-3
496.870	1	6
497.040	1	12
497.211	1	-1
497.381	1	4
497.551	1	13
497.721	1	1
497.892	1	9
498.062	1	-1
498.232	1	4
498.403	1	-5
498.573	1	1
498.743	1	11
498.913	1	5
499.084	1	3
499.254	1	3
499.424	1	-16
499.594	1	1
499.765	1	3
499.935	1	4
500.105	1	7
500.275	1	2
500.446	1	4
500.616	1	-7
500.786	1	8
500.956	1	4
501.127	1	0
501.297	1	9
501.467	1	0
501.638	1	3
501.808	1	2
501.978	1	5
502.148	1	8
502.319	1	-2
502.489	1	3
502.659	1	1
502.829	1	0
503.000	1	-2
503.170	1	-6
503.340	1	-4
503.510	1	3
503.681	1	-5
503.851	1	-12
504.021	1	3
504.191	1	0
504.362	1	3
504.532	1	5
504.702	1	-3
504.872	1	7
505.042	1	-2
505.213	1	5
505.383	1	0
505.553	1	-1
505.723	1	13
505.894	1	4
506.064	1	11
506.234	1	-1
506.404	1	0
506.575	1	-3
506.745	1	-4
506.915	1	-4
507.085	1	4
507.256	1	16
507.426	1	3
507.596	1	-1
507.766	1	0
507.936	1	9
508.107	1	4
508.277	1	-4
508.447	1	13
508.617	1	-4
508.788	1	6
508.958	1	-1
509.128	1	9
509.298	1	-6
509.468	1	-5
509.639	1	-2
509.809	1	0
509.979	1	-7
510.149	1	8
510.319	1	17
510.490	1	8
510.660	1	-4
510.830	1	10
511.000	1	0
511.171	1	7
511.341	1	-4
511.511	1	-1
511.681	1	4
511.851	1	5
512.022	1	2
512.192	1	-8
512.362	1	0
512.532	1	-5
512.702	1	9
512.873	1	-1
513.043	1	1
513.213	1	8
513.383	1	11
513.553	1	4
513.724	1	-2
513.894	1	-4
514.064	1	-7
514.234	1	12
514.404	1	8
514.575	1	-7
514.745	1	7
514.915	1	-3
515.085	1	0
515.255	1	0
515.425	1	6
515.596	1	-1
515.766	1	6
515.936	1	10
516.106	1	-5
516.276	1	7
516.447	1	-3
516.617	1	17
516.787	1	10
516.957	1	-1
517.127	1	8
517.297	1	-8
517.468	1	4
517.638	1	11
517.808	1	-1
517.978	1	0
518.148	1	6
518.319	1	-4
518.489	1	2
518.659	1	-3
518.829	1	-1
518.999	1	-4
519.169	1	2
519.340	1	-9
519.510	1	0
519.680	1	6
519.850	1	13
520.020	1	6
520.190	1	10
520.361	1	4
520.531	1	9
520.701	1	-2
520.871	1	-7
521.041	1	12
521.211	1	7
521.382	1	10
521.552	1	-5
521.722	1	1
521.892	1	-2
522.062	1	-4
522.232	1	-3
522.402	1	-1
522.573	1	0
522.743	1	6
522.913	1	9
523.083	1	3
523.253	1	2
523.423	1	3
523.593	1	7
523.764	1	-3
523.934	1	-2
524.104	1	0
524.274	1	-11
524.444	1	-1
524.614	1	6
524.784	1	12
524.955	1	8
525.125	1	8
525.295	1	12
525.465	1	5
525.635	1	-4
525.805	1	-9
525.975	1	9
526.146	1	8
526.316	1	-1
526.486	1	-5
526.656	1	8
526.826	1	17
526.996	1	-2
527.166	1	6
527.337	1	11
527.507	1	8
527.677	1	-7
527.847	1	-3
528.017	1	3
528.187	1	10
528.357	1	10
528.527	1	9
528.698	1	-7
528.868	1	2
529.038	1	-15
529.208	1	-2
529.378	1	-6
529.548	1	-4
529.718	1	4
529.888	1	1
530.058	1	4
530.229	1	5
530.399	1	2
530.569	1	7
530.739	1	5
530.909	1	1
531.079	1	5
531.249	1	10
531.419	1	8
531.589	1	0
531.760	1	-12
531.930	1	2
532.100	1	6
532.270	1	5
532.440	1	0
532.610	1	2
532.780	1	-1
532.950	1	3
533.120	1	6
533.290	1	12
533.461	1	1
533.631	1	6
533.801	1	14
533.971	1	7
534.141	1	13
534.311	1	13
534.481	1	2
534.651	1	1
534.821	1	3
534.991	1	1
535.162	1	6
535.332	1	11
535.502	1	-1
535.672	1	8
535.842	1	16
536.012	1	-2
536.182	1	8
536.352	1	-2
536.522	1	6
536.692	1	1
536.862	1	2
537.032	1	8
537.203	1	-8
537.373	1	6
537.543	1	8
537.713	1	10
537.883	1	-1
538.053	1	-3
538.223	1	0
538.393	1	2
538.563	1	13
538.733	1	-1
538.903	1	4
539.073	1	1
539.243	1	-2
539.413	1	6
539.584	1	7
539.754	1	-4
539.924	1	1
540.094	1	5
540.264	1	-4
540.434	1	-1
540.604	1	6
540.774	1	4
540.944	1	3
541.114	1	-16
541.284	1	1
541.454	1	-5
541.624	1	9
541.794	1	9
541.964	1	-1
542.134	1	2
542.305	1	2
542.475	1	-1
542.645	1	-1
542.815	1	9
542.985	1	0
543.155	1	4
543.325	1	-1
543.495	1	-2
543.665	1	6
543.835	1	7
544.005	1	7
544.175	1	2
544.345	1	6
544.515	1	1
544.685	1	11
544.855	1	-4
545.025	1	5
545.195	1	10
545.365	1	8
545.535	1	8
545.705	1	0
545.875	1	1
546.045	1	7
546.216	1	7
546.386	1	1
546.556	1	-12
546.726	1	-5
546.896	1	0
547.066	1	11
547.236	1	2
547.406	1	-13
547.576	1	11
547.746	1	3
547.916	1	-2
548.086	1	-6
548.256	1	-1
548.426	1	4
548.596	1	-1
548.766	1	7
548.936	1	17
549.106	1	-4
549.276	1	-4
549.446	1	4
549.616	1	-1
549.786	1	1
549.956	1	-5
550.126	1	0
550.296	1	1
550.466	1	2
550.636	1	-5
550.806	1	7
550.976	1	-4
551.146	1	2
551.316	1	-2
551.486	1	4
551.656	1	7
551.826	1	-3
551.996	1	6
552.166	1	10
552.336	1	6
552.506	1	2
552.676	1	-1
552.846	1	-4
553.016	1	4
553.186	1	1
553.356	1	0
553.526	1	1
553.696	1	-1
553.866	1	-6
554.036	1	-4
554.206	1	-1
554.376	1	12
554.546	1	5
554.716	1	-3
554.886	1	0
555.056	1	1
555.226	1	2
555.396	1	-2
555.566	1	0
555.736	1	7
555.906	1	-3
556.076	1	-6
556.246	1	10
556.416	1	-1
556.586	1	0
556.756	1	5
556.926	1	1
557.096	1	-9
557.266	1	4
557.436	1	-1
557.606	1	0
557.776	1	-7
557.946	1	0
558.116	1	3
558.286	1	0
558.456	1	-5
558.626	1	-17
558.796	1	0
558.966	1	0
559.136	1	7
559.306	1	0
559.476	1	4
559.646	1	1
559.816	1	6
559.986	1	3
560.155	1	2
560.325	1	-8
560.495	1	-2
560.665	1	6
560.835	1	3
561.005	1	5
561.175	1	9
561.345	1	1
561.515	1	6
561.685	1	4
561.855	1	7
562.025	1	-5
562.195	1	-3
562.365	1	-3
562.535	1	1
562.705	1	13
562.875	1	4
563.045	1	-3
563.215	1	-6
563.385	1	7
563.555	1	6
563.725	1	4
563.895	1	-3
564.064	1	9
564.234	1	3
564.404	1	15
564.574	1	11
564.744	1	6
564.914	1	4
565.084	1	-2
565.254	1	2
565.424	1	-3
565.594	1	8
565.764	1	-1
565.934	1	2
566.104	1	3
566.274	1	5
566.444	1	11
566.614	1	0
566.783	1	13
566.953	1	1
567.123	1	4
567.293	1	7
567.463	1	-3
567.633	1	-5
567.803	1	5
567.973	1	-3
568.143	1	12
568.313	1	-7
568.483	1	9
568.653	1	1
568.823	1	-9
568.993	1	3
569.162	1	2
569.332	1	8
569.502	1	3
569.672	1	0
569.842	1	1
570.012	1	-3
570.182	1	6
570.352	1	-4
570.522	1	-11
570.692	1	6
570.862	1	23
571.031	1	4
571.201	1	-4
571.371	1	-7
571.541	1	-6
571.711	1	-4
571.881	1	1
572.051	1	7
572.221	1	-2
572.391	1	5
572.561	1	3
572.731	1	6
572.900	1	3
573.070	1	4
573.240	1	-1
573.410	1	-13
573.580	1	-7
573.750	1	-1
573.920	1	6
574.090	1	-10
574.260	1	-2
574.430	1	5
574.599	1	9
574.769	1	1
574.939	1	4
575.109	1	11
575.279	1	-9
575.449	1	4
575.619	1	15
575.789	1	2
575.959	1	-4
576.128	1	-11
576.298	1	5
576.468	1	5
576.638	1	-6
576.808	1	2
576.978	1	-2
577.148	1	5
577.318	1	2
577.487	1	10
577.657	1	11
577.827	1	-4
577.997	1	2
578.167	1	9
578.337	1	4
578.507	1	1
578.677	1	2
578.846	1	2
579.016	1	-6
579.186	1	-7
579.356	1	7
579.526	1	8
579.696	1	-9
579.866	1	-1
580.036	1	-1
580.205	1	-2
580.375	1	-10
580.545	1	-5
580.715	1	2
580.885	1	5
581.055	1	-6
581.225	1	-6
581.394	1	1
581.564	1	-7
581.734	1	1
581.904	1	9
582.074	1	-6
582.244	1	-9
582.414	1	-3
582.583	1	13
582.753	1	8
582.923	1	9
583.093	1	2
583.263	1	-2
583.433	1	5
583.603	1	6
583.772	1	4
583.942	1	-4
584.112	1	0
584.282	1	-5
584.452	1	17
584.622	1	-3
584.791	1	2
584.961	1	-2
585.131	1	15
585.301	1	-4
585.471	1	2
585.641	1	11
585.811	1	4
585.980	1	1
586.150	1	3
586.320	1	-4
586.490	1	6
586.660	1	-1
586.830	1	-9
586.999	1	-6
587.169	1	-2
587.339	1	-4
587.509	1	-3
587.679	1	-4
587.849	1	3
588.018	1	9
588.188	1	6
588.358	1	-9
588.528	1	15
588.698	1	4
588.867	1	10
589.037	1	-3
589.207	1	-5
589.377	1	13
589.547	1	-4
589.717	1	-2
589.886	1	-1
590.056	1	2
590.226	1	2
590.396	1	3
590.566	1	-2
590.735	1	-3
590.905	1	10
591.075	1	9
591.245	1	6
591.415	1	3
591.585	1	6
591.754	1	-9
591.924	1	2
592.094	1	6
592.264	1	8
592.434	1	9
592.603	1	-1
592.773	1	16
592.943	1	1
593.113	1	-5
593.283	1	-14
593.452	1	10
593.622	1	5
593.792	1	-13
593.962	1	12
594.132	1	-4
594.301	1	-10
594.471	1	-6
594.641	1	8
594.811	1	4
594.981	1	-7
595.150	1	3
595.320	1	1
595.490	1	2
595.660	1	0
595.829	1	12
595.999	1	10
596.169	1	3
596.339	1	1
596.509	1	4
596.678	1	2
596.848	1	1
597.018	1	4
597.188	1	5
597.358	1	-4
597.527	1	6
597.697	1	-7
597.867	1	3
598.037	1	6
598.206	1	-4
598.376	1	2
598.546	1	4
598.716	1	10
598.885	1	11
599.055	1	1
599.225	1	4
599.395	1	-4
599.565	1	1
599.734	1	-1
599.904	1	-1
600.074	1	2
600.244	1	-2
600.413	1	5
600.583	1	-2
600.753	1	-1
600.923	1	3
601.092	1	4
601.262	1	3
601.432	1	-13
601.602	1	-6
601.771	1	2
601.941	1	1
602.111	1	4
602.281	1	13
602.451	1	10
602.620	1	5
602.790	1	4
602.960	1	-6
603.130	1	-1
603.299	1	9
603.469	1	0
603.639	1	-9
603.809	1	7
603.978	1	-1
604.148	1	7
604.318	1	-1
604.487	1	8
604.657	1	-4
604.827	1	0
604.997	1	8
605.166	1	6
605.336	1	6
605.506	1	1
605.676	1	0
605.845	1	-2
606.015	1	-1
606.185	1	2
606.355	1	2
606.524	1	-3
606.694	1	-12
606.864	1	7
607.034	1	9
607.203	1	-3
607.373	1	0
607.543	1	2
607.712	1	2
607.882	1	12
608.052	1	-5
608.222	1	-5
608.391	1	11
608.561	1	-6
608.731	1	1
608.901	1	6
609.070	1	1
609.240	1	-10
609.410	1	10
609.579	1	10
609.749	1	3
609.919	1	5
610.089	1	4
610.258	1	1
610.428	1	7
610.598	1	-1
610.767	1	-2
610.937	1	8
611.107	1	-2
611.277	1	7
611.446	1	10
611.616	1	-8
611.786	1	-1
611.955	1	-4
612.125	1	8
612.295	1	8
612.465	1	-10
612.634	1	-7
612.804	1	6
612.974	1	7
613.143	1	4
613.313	1	-2
613.483	1	-8
613.652	1	-9
613.822	1	-2
613.992	1	6
614.162	1	4
614.331	1	12
614.501	1	13
614.671	1	3
614.840	1	-10
615.010	1	-5
615.180	1	6
615.349	1	-11
615.519	1	8
615.689	1	5
615.858	1	-2
616.028	1	5
616.198	1	4
616.368	1	7
616.537	1	2
616.707	1	7
616.877	1	-3
617.046	1	11
617.216	1	12
617.386	1	-1
617.555	1	-9
617.725	1	9
617.895	1	2
618.064	1	-1
618.234	1	5
618.404	1	-1
618.573	1	4
618.743	1	9
618.913	1	-4
619.082	1	5
619.252	1	-9
619.422	1	12
619.591	1	-2
619.761	1	7
619.931	1	-9
620.100	1	3
620.270	1	8
620.440	1	2
620.609	1	-10
620.779	1	5
620.949	1	-5
621.118	1	-1
621.288	1	-1
621.458	1	7
621.627	1	8
621.797	1	-2
621.967	1	2
622.136	1	13
622.306	1	11
622.476	1	8
622.645	1	16
622.815	1	-5
622.985	1	-5
623.154	1	1
623.324	1	-3
623.494	1	4
623.663	1	1
623.833	1	5
624.002	1	9
624.172	1	-7
624.342	1	2
624.511	1	2
624.681	1	4
624.851	1	-5
625.020	1	8
625.190	1	-5
625.360	1	-1
625.529	1	-2
625.699	1	-1
625.869	1	6
626.038	1	8
626.208	1	-5
626.377	1	13
626.547	1	11
626.717	1	8
626.886	1	-2
627.056	1	7
627.226	1	4
627.395	1	-1
627.565	1	-2
627.735	1	3
627.904	1	-2
628.074	1	3
628.243	1	5
628.413	1	1
628.583	1	-5
628.752	1	7
628.922	1	-3
629.091	1	2
629.261	1	-16
629.431	1	2
629.600	1	-1
629.770	1	-12
629.940	1	5
630.109	1	-3
630.279	1	12
630.448	1	4
630.618	1	-10
630.788	1	-1
630.957	1	5
631.127	1	2
631.297	1	-4
631.466	1	1
631.636	1	6
631.805	1	8
631.975	1	3
632.145	1	2
632.314	1	-5
632.484	1	-10
632.653	1	4
632.823	1	1
632.993	1	6
633.162	1	7
633.332	1	-2
633.501	1	8
633.671	1	0
633.841	1	7
634.010	1	0
634.180	1	14
634.349	1	3
634.519	1	10
634.689	1	7
634.858	1	3
635.028	1	1
635.197	1	7
635.367	1	10
635.537	1	-3
635.706	1	-7
635.876	1	7
636.045	1	10
636.215	1	14
636.384	1	-1
636.554	1	13
636.724	1	7
636.893	1	3
637.063	1	2
637.232	1	-2
637.402	1	-8
637.572	1	1
637.741	1	12
637.911	1	3
638.080	1	16
638.250	1	8
638.419	1	5
638.589	1	3
638.759	1	-2
638.928	1	-6
639.098	1	0
639.267	1	5
639.437	1	2
639.606	1	-1
639.776	1	-5
639.946	1	2
640.115	1	5
640.285	1	8
640.454	1	16
640.624	1	-9
640.793	1	-7
640.963	1	-1
641.132	1	15
641.302	1	0
641.472	1	-1
641.641	1	-2
641.811	1	-2
641.980	1	0
642.150	1	-2
642.319	1	18
642.489	1	-3
642.659	1	3
642.828	1	-5
642.998	1	9
643.167	1	-3
643.337	1	8
643.506	1	10
643.676	1	7
643.845	1	-5
644.015	1	20
644.184	1	1
644.354	1	-4
644.524	1	5
644.693	1	-5
644.863	1	0
645.032	1	0
645.202	1	9
645.371	1	6
645.541	1	7
645.710	1	19
645.880	1	13
646.049	1	-8
646.219	1	6
646.388	1	-6
646.558	1	-5
646.728	1	0
646.897	1	2
647.067	1	4
647.236	1	1
647.406	1	4
647.575	1	-4
647.745	1	-2
647.914	1	0
648.084	1	0
648.253	1	6
648.423	1	2
648.592	1	0
648.762	1	4
648.931	1	-8
649.101	1	-5
649.270	1	-6
649.440	1	8
649.610	1	0
649.779	1	5
649.949	1	5
650.118	1	0
650.288	1	15
650.457	1	-5
650.627	1	-4
650.796	1	-7
650.966	1	13
651.135	1	-7
651.305	1	6
651.474	1	-1
651.644	1	3
651.813	1	8
651.983	1	-19
652.152	1	10
652.322	1	2
652.491	1	0
652.661	1	5
652.830	1	2
653.000	1	-1
653.169	1	0
653.339	1	11
653.508	1	7
653.678	1	2
653.847	1	-1
654.017	1	-4
654.186	1	-6
654.356	1	3
654.525	1	-1
654.695	1	1
654.864	1	-5
655.034	1	-2
655.203	1	-5
655.373	1	8
655.542	1	-1
655.712	1	5
655.881	1	-4
656.051	1	7
656.220	1	-3
656.390	1	-4
656.559	1	4
656.729	1	9
656.898	1	-3
657.068	1	1
657.237	1	3
657.406	1	8
657.576	1	-2
657.745	1	-9
657.915	1	3
658.084	1	-1
658.254	1	-9
658.423	1	10
658.593	1	-1
658.762	1	11
658.932	1	11
659.101	1	8
659.271	1	8
659.440	1	-7
659.610	1	4
659.779	1	2
659.949	1	-8
660.118	1	-6
660.288	1	3
660.457	1	2
660.626	1	5
660.796	1	8
660.965	1	7
661.135	1	3
661.304	1	8
661.474	1	4
661.643	1	10
661.813	1	0
661.982	1	-10
662.152	1	-3
662.321	1	-4
662.491	1	10
662.660	1	7
662.829	1	11
662.999	1	0
663.168	1	-11
663.338	1	-6
663.507	1	7
663.677	1	3
663.846	1	3
664.016	1	-6
664.185	1	2
664.354	1	9
664.524	1	-9
664.693	1	6
664.863	1	2
665.032	1	14
665.202	1	-2
665.371	1	-5
665.541	1	-4
665.710	1	9
665.879	1	1
666.049	1	0
666.218	1	-1
666.388	1	5
666.557	1	5
666.727	1	-3
666.896	1	5
667.065	1	1
667.235	1	6
667.404	1	0
667.574	1	15
667.743	1	-4
667.913	1	9
668.082	1	7
668.251	1	-5
668.421	1	-7
668.590	1	3
668.760	1	-7
668.929	1	7
669.099	1	-10
669.268	1	-2
669.437	1	-11
669.607	1	-9
669.776	1	2
669.946	1	7
670.115	1	10
670.285	1	5
670.454	1	1
670.623	1	12
670.793	1	-2
670.962	1	1
671.132	1	-2
671.301	1	5
671.470	1	4
671.640	1	-5
671.809	1	-4
671.979	1	5
672.148	1	-6
672.317	1	-5
672.487	1	-4
672.656	1	-4
672.826	1	0
672.995	1	-2
673.164	1	5
673.334	1	-3
673.503	1	2
673.673	1	9
673.842	1	-8
674.011	1	-4
674.181	1	7
674.350	1	-5
674.520	1	7
674.689	1	14
674.858	1	-2
675.028	1	8
675.197	1	-3
675.367	1	3
675.536	1	2
675.705	1	7
675.875	1	3
676.044	1	0
676.214	1	11
676.383	1	3
676.552	1	4
676.722	1	-2
676.891	1	1
677.060	1	6
677.230	1	7
677.399	1	5
677.569	1	-3
677.738	1	2
677.907	1	-3
678.077	1	2
678.246	1	1
678.416	1	5
678.585	1	-1
678.754	1	10
678.924	1	3
679.093	1	7
679.262	1	-3
679.432	1	3
679.601	1	-3
679.771	1	8
679.940	1	-7
680.109	1	6
680.279	1	3
680.448	1	4
680.617	1	-9
680.787	1	11
680.956	1	-6
681.125	1	11
681.295	1	3
681.464	1	-8
681.634	1	7
681.803	1	-6
681.972	1	-7
682.142	1	-2
682.311	1	-6
682.480	1	9
682.650	1	-1
682.819	1	4
682.988	1	-9
683.158	1	-5
683.327	1	1
683.496	1	-4
683.666	1	1
683.835	1	-3
684.004	1	-3
684.174	1	7
684.343	1	-5
684.512	1	14
684.682	1	-5
684.851	1	-5
685.021	1	2
685.190	1	4
685.359	1	-10
685.529	1	-1
685.698	1	0
685.867	1	-8
686.037	1	3
686.206	1	-3
686.375	1	0
686.545	1	6
686.714	1	-12
686.883	1	-3
687.053	1	5
687.222	1	4
687.391	1	1
687.561	1	5
687.730	1	-3
687.899	1	2
688.069	1	3
688.238	1	14
688.407	1	-2
688.577	1	-10
688.746	1	3
