340.368	1	5
340.539	1	5
340.710	1	3
340.881	1	8
341.052	1	-10
341.223	1	3
341.394	1	4
341.565	1	0
341.737	1	0
341.908	1	5
342.079	1	11
342.250	1	13
342.421	1	13
342.592	1	4
342.763	1	11
342.934	1	10
343.105	1	7
343.276	1	4
343.447	1	11
343.618	1	3
343.789	1	5
343.960	1	1
344.131	1	8
344.302	1	10
344.473	1	3
344.644	1	14
344.815	1	-4
344.986	1	6
345.157	1	-9
345.328	1	2
345.499	1	9
345.670	1	-2
345.841	1	4
346.012	1	6
346.183	1	2
346.354	1	1
346.526	1	-6
346.697	1	7
346.868	1	4
347.039	1	-9
347.210	1	1
347.381	1	4
347.552	1	-4
347.723	1	11
347.894	1	8
348.065	1	11
348.236	1	3
348.407	1	6
348.578	1	0
348.749	1	10
348.920	1	1
349.091	1	2
349.262	1	8
349.433	1	16
349.604	1	18
349.775	1	-5
349.946	1	8
350.117	1	5
350.288	1	2
350.459	1	-8
350.630	1	7
350.801	1	-2
350.972	1	8
351.143	1	13
351.314	1	-2
351.485	1	8
351.656	1	11
351.827	1	11
351.998	1	10
352.169	1	4
352.340	1	9
352.511	1	7
352.682	1	4
352.853	1	9
353.024	1	-3
353.195	1	7
353.366	1	9
353.537	1	3
353.708	1	0
353.879	1	5
354.050	1	12
354.221	1	10
354.392	1	15
354.563	1	2
354.734	1	6
354.905	1	6
355.076	1	6
355.247	1	8
355.418	1	16
355.589	1	-4
355.760	1	3
355.931	1	15
356.102	1	6
356.273	1	7
356.444	1	-3
356.615	1	2
356.785	1	13
356.956	1	11
357.127	1	11
357.298	1	14
357.469	1	6
357.640	1	5
357.811	1	17
357.982	1	11
358.153	1	-1
358.324	1	11
358.495	1	13
358.666	1	17
358.837	1	12
359.008	1	19
359.179	1	15
359.350	1	3
359.521	1	13
359.692	1	18
359.863	1	11
360.034	1	10
360.205	1	7
360.376	1	19
360.547	1	7
360.718	1	12
360.889	1	6
361.060	1	15
361.231	1	14
361.401	1	10
361.572	1	28
361.743	1	26
361.914	1	19
362.085	1	24
362.256	1	18
362.427	1	28
362.598	1	20
362.769	1	19
362.940	1	11
363.111	1	32
363.282	1	25
363.453	1	21
363.624	1	25
363.795	1	30
363.966	1	49
364.137	1	28
364.308	1	45
364.478	1	37
364.649	1	53
364.820	1	37
364.991	1	36
365.162	1	36
365.333	1	33
365.504	1	38
365.675	1	40
365.846	1	38
366.017	1	51
366.188	1	50
366.359	1	56
366.530	1	44
366.701	1	48
366.871	1	59
367.042	1	47
367.213	1	51
367.384	1	63
367.555	1	66
367.726	1	59
367.897	1	55
368.068	1	48
368.239	1	75
368.410	1	52
368.581	1	61
368.752	1	60
368.923	1	56
369.093	1	43
369.264	1	55
369.435	1	52
369.606	1	64
369.777	1	50
369.948	1	48
370.119	1	52
370.290	1	53
370.461	1	43
370.632	1	41
370.803	1	44
370.973	1	43
371.144	1	35
371.315	1	55
371.486	1	54
371.657	1	31
371.828	1	37
371.999	1	43
372.170	1	35
372.341	1	39
372.512	1	35
372.682	1	43
372.853	1	27
373.024	1	41
373.195	1	45
373.366	1	36
373.537	1	28
373.708	1	43
373.879	1	39
374.050	1	36
374.220	1	23
374.391	1	31
374.562	1	28
374.733	1	24
374.904	1	36
375.075	1	39
375.246	1	37
375.417	1	19
375.588	1	26
375.758	1	13
375.929	1	16
376.100	1	33
376.271	1	21
376.442	1	27
376.613	1	26
376.784	1	23
376.955	1	22
377.125	1	36
377.296	1	18
377.467	1	29
377.638	1	13
377.809	1	3
377.980	1	9
378.151	1	16
378.321	1	13
378.492	1	26
378.663	1	24
378.834	1	14
379.005	1	32
379.176	1	1
379.347	1	18
379.518	1	16
379.688	1	5
379.859	1	12
380.030	1	24
380.201	1	14
380.372	1	19
380.543	1	24
380.714	1	25
380.884	1	19
381.055	1	17
381.226	1	24
381.397	1	13
381.568	1	4
381.739	1	15
381.910	1	23
382.080	1	8
382.251	1	14
382.422	1	25
382.593	1	5
382.764	1	16
382.935	1	14
383.105	1	17
383.276	1	7
383.447	1	21
383.618	1	11
383.789	1	15
383.960	1	19
384.130	1	16
384.301	1	13
384.472	1	20
384.643	1	17
384.814	1	15
384.985	1	23
385.156	1	15
385.326	1	11
385.497	1	11
385.668	1	14
385.839	1	14
386.010	1	9
386.180	1	19
386.351	1	19
386.522	1	16
386.693	1	14
386.864	1	25
387.035	1	24
387.205	1	13
387.376	1	19
387.547	1	15
387.718	1	8
387.889	1	4
388.060	1	6
388.230	1	15
388.401	1	14
388.572	1	23
388.743	1	10
388.914	1	28
389.084	1	12
389.255	1	9
389.426	1	25
389.597	1	10
389.768	1	-4
389.939	1	11
390.109	1	20
390.280	1	24
390.451	1	17
390.622	1	22
390.793	1	7
390.963	1	9
391.134	1	11
391.305	1	11
391.476	1	2
391.647	1	14
391.817	1	11
391.988	1	15
392.159	1	6
392.330	1	13
392.501	1	6
392.671	1	9
392.842	1	13
393.013	1	11
393.184	1	20
393.355	1	8
393.525	1	6
393.696	1	9
393.867	1	15
394.038	1	12
394.208	1	6
394.379	1	19
394.550	1	13
394.721	1	19
394.892	1	2
395.062	1	7
395.233	1	5
395.404	1	-2
395.575	1	18
395.746	1	26
395.916	1	19
396.087	1	19
396.258	1	10
396.429	1	17
396.599	1	11
396.770	1	16
396.941	1	14
397.112	1	19
397.283	1	7
397.453	1	15
397.624	1	14
397.795	1	2
397.966	1	10
398.136	1	9
398.307	1	16
398.478	1	12
398.649	1	13
398.819	1	-6
398.990	1	5
399.161	1	23
399.332	1	21
399.503	1	9
399.673	1	17
399.844	1	7
400.015	1	11
400.186	1	3
400.356	1	21
400.527	1	13
400.698	1	7
400.869	1	11
401.039	1	15
401.210	1	6
401.381	1	9
401.552	1	16
401.722	1	1
401.893	1	-8
402.064	1	4
402.235	1	6
402.405	1	26
402.576	1	3
402.747	1	13
402.918	1	14
403.088	1	11
403.259	1	-3
403.430	1	16
403.601	1	6
403.771	1	14
403.942	1	7
404.113	1	11
404.284	1	0
404.454	1	9
404.625	1	24
404.796	1	9
404.967	1	6
405.137	1	9
405.308	1	14
405.479	1	2
405.649	1	19
405.820	1	18
405.991	1	13
406.162	1	3
406.332	1	14
406.503	1	8
406.674	1	18
406.845	1	9
407.015	1	-2
407.186	1	23
407.357	1	15
407.527	1	11
407.698	1	3
407.869	1	0
408.040	1	12
408.210	1	12
408.381	1	26
408.552	1	6
408.722	1	10
408.893	1	13
409.064	1	12
409.235	1	6
409.405	1	9
409.576	1	22
409.747	1	5
409.917	1	0
410.088	1	7
410.259	1	13
410.430	1	19
410.600	1	7
410.771	1	1
410.942	1	6
411.112	1	15
411.283	1	3
411.454	1	18
411.625	1	0
411.795	1	9
411.966	1	5
412.137	1	2
412.307	1	0
412.478	1	12
412.649	1	13
412.819	1	16
412.990	1	8
413.161	1	16
413.332	1	11
413.502	1	9
413.673	1	2
413.844	1	11
414.014	1	16
414.185	1	13
414.356	1	17
414.526	1	10
414.697	1	2
414.868	1	7
415.038	1	13
415.209	1	-3
415.380	1	7
415.550	1	14
415.721	1	6
415.892	1	16
416.063	1	3
416.233	1	4
416.404	1	15
416.575	1	8
416.745	1	9
416.916	1	1
417.087	1	4
417.257	1	16
417.428	1	-5
417.599	1	9
417.769	1	15
417.940	1	12
418.111	1	4
418.281	1	11
418.452	1	9
418.623	1	10
418.793	1	0
418.964	1	3
419.135	1	13
419.305	1	0
419.476	1	11
419.647	1	17
419.817	1	16
419.988	1	20
420.159	1	8
420.329	1	12
420.500	1	5
420.671	1	-2
420.841	1	5
421.012	1	5
421.183	1	13
421.353	1	-2
421.524	1	12
421.695	1	11
421.865	1	16
422.036	1	8
422.206	1	10
422.377	1	14
422.548	1	7
422.718	1	6
422.889	1	11
423.060	1	5
423.230	1	7
423.401	1	9
423.572	1	3
423.742	1	4
423.913	1	10
424.084	1	13
424.254	1	20
424.425	1	8
424.595	1	4
424.766	1	13
424.937	1	15
425.107	1	10
425.278	1	1
425.449	1	11
425.619	1	10
425.790	1	19
425.961	1	7
426.131	1	15
426.302	1	19
426.472	1	13
426.643	1	10
426.814	1	3
426.984	1	10
427.155	1	5
427.326	1	7
427.496	1	8
427.667	1	12
427.837	1	8
428.008	1	3
428.179	1	10
428.349	1	14
428.520	1	6
428.691	1	7
428.861	1	6
429.032	1	0
429.202	1	10
429.373	1	5
429.544	1	18
429.714	1	-9
429.885	1	13
430.055	1	4
430.226	1	6
430.397	1	0
430.567	1	0
430.738	1	4
430.909	1	7
431.079	1	23
431.250	1	21
431.420	1	7
431.591	1	5
431.762	1	3
431.932	1	1
432.103	1	0
432.273	1	10
432.444	1	15
432.615	1	10
432.785	1	8
432.956	1	5
433.126	1	16
433.297	1	18
433.468	1	13
433.638	1	1
433.809	1	7
433.979	1	3
434.150	1	4
434.320	1	5
434.491	1	9
434.662	1	11
434.832	1	1
435.003	1	26
435.173	1	18
435.344	1	12
435.515	1	4
435.685	1	-4
435.856	1	7
436.026	1	5
436.197	1	5
436.368	1	7
436.538	1	14
436.709	1	0
436.879	1	1
437.050	1	15
437.220	1	-7
437.391	1	13
437.562	1	7
437.732	1	-2
437.903	1	12
438.073	1	12
438.244	1	16
438.414	1	7
438.585	1	12
438.756	1	10
438.926	1	9
439.097	1	11
439.267	1	10
439.438	1	10
439.608	1	18
439.779	1	13
439.949	1	8
440.120	1	7
440.291	1	10
440.461	1	17
440.632	1	8
440.802	1	-1
440.973	1	11
441.143	1	6
441.314	1	10
441.485	1	12
441.655	1	13
441.826	1	0
441.996	1	11
442.167	1	7
442.337	1	-1
442.508	1	5
442.678	1	-2
442.849	1	11
443.019	1	5
443.190	1	4
443.361	1	1
443.531	1	3
443.702	1	7
443.872	1	7
444.043	1	3
444.213	1	0
444.384	1	-5
444.554	1	12
444.725	1	15
444.895	1	2
445.066	1	15
445.237	1	-4
445.407	1	0
445.578	1	5
445.748	1	11
445.919	1	1
446.089	1	12
446.260	1	7
446.430	1	5
446.601	1	16
446.771	1	11
446.942	1	7
447.112	1	3
447.283	1	6
447.453	1	7
447.624	1	4
447.794	1	20
447.965	1	-5
448.135	1	16
448.306	1	4
448.477	1	2
448.647	1	18
448.818	1	9
448.988	1	13
449.159	1	12
449.329	1	0
449.500	1	-2
449.670	1	-2
449.841	1	0
450.011	1	-3
450.182	1	15
450.352	1	3
450.523	1	12
450.693	1	0
450.864	1	8
451.034	1	-2
451.205	1	5
451.375	1	14
451.546	1	13
451.716	1	-4
451.887	1	-2
452.057	1	19
452.228	1	15
452.398	1	-2
452.569	1	6
452.739	1	10
452.910	1	3
453.080	1	10
453.251	1	14
453.421	1	3
453.592	1	9
453.762	1	14
453.933	1	1
454.103	1	-2
454.274	1	4
454.444	1	12
454.615	1	0
454.785	1	11
454.956	1	-2
455.126	1	-1
455.297	1	11
455.467	1	6
455.638	1	9
455.808	1	16
455.979	1	6
456.149	1	-3
456.320	1	1
456.490	1	2
456.661	1	4
456.831	1	14
457.001	1	2
457.172	1	8
457.342	1	7
457.513	1	-4
457.683	1	-3
457.854	1	3
458.024	1	12
458.195	1	-1
458.365	1	8
458.536	1	8
458.706	1	16
458.877	1	22
459.047	1	-4
459.218	1	6
459.388	1	1
459.559	1	6
459.729	1	8
459.899	1	7
460.070	1	7
460.240	1	19
460.411	1	17
460.581	1	3
460.752	1	1
460.922	1	8
461.093	1	10
461.263	1	11
461.434	1	14
461.604	1	-3
461.775	1	2
461.945	1	10
462.115	1	5
462.286	1	9
462.456	1	4
462.627	1	8
462.797	1	7
462.968	1	-1
463.138	1	0
463.309	1	7
463.479	1	17
463.649	1	5
463.820	1	5
463.990	1	5
464.161	1	0
464.331	1	7
464.502	1	12
464.672	1	6
464.843	1	-1
465.013	1	-7
465.183	1	8
465.354	1	9
465.524	1	1
465.695	1	10
465.865	1	-11
466.036	1	8
466.206	1	0
466.376	1	12
466.547	1	-4
466.717	1	10
466.888	1	8
467.058	1	5
467.229	1	4
467.399	1	3
467.569	1	1
467.740	1	18
467.910	1	-8
468.081	1	11
468.251	1	1
468.422	1	10
468.592	1	10
468.762	1	5
468.933	1	8
469.103	1	10
469.274	1	10
469.444	1	6
469.614	1	3
469.785	1	5
469.955	1	2
470.126	1	-9
470.296	1	2
470.467	1	13
470.637	1	9
470.807	1	9
470.978	1	7
471.148	1	10
471.319	1	7
471.489	1	-8
471.659	1	0
471.830	1	3
472.000	1	11
472.171	1	7
472.341	1	-2
472.511	1	5
472.682	1	10
472.852	1	5
473.023	1	7
473.193	1	3
473.363	1	8
473.534	1	2
473.704	1	-4
473.875	1	13
474.045	1	2
474.215	1	-3
474.386	1	6
474.556	1	8
474.727	1	5
474.897	1	2
475.067	1	-1
475.238	1	14
475.408	1	6
475.578	1	7
475.749	1	12
475.919	1	-3
476.090	1	12
476.260	1	7
476.430	1	13
476.601	1	5
476.771	1	-2
476.942	1	4
477.112	1	4
477.282	1	3
477.453	1	13
477.623	1	5
477.793	1	7
477.964	1	-4
478.134	1	25
478.305	1	9
478.475	1	2
478.645	1	11
478.816	1	13
478.986	1	-2
479.156	1	1
479.327	1	1
479.497	1	13
479.667	1	6
479.838	1	11
480.008	1	-2
480.179	1	3
480.349	1	-4
480.519	1	6
480.690	1	4
480.860	1	13
481.030	1	-1
481.201	1	15
481.371	1	8
481.541	1	20
481.712	1	5
481.882	1	9
482.053	1	5
482.223	1	-2
482.393	1	7
482.564	1	3
482.734	1	1
482.904	1	7
483.075	1	18
483.245	1	2
483.415	1	4
483.586	1	-1
483.756	1	6
483.926	1	13
484.097	1	11
484.267	1	13
484.437	1	4
484.608	1	16
484.778	1	20
484.948	1	11
485.119	1	10
485.289	1	0
485.459	1	-1
485.630	1	1
485.800	1	6
485.970	1	8
486.141	1	15
486.311	1	20
486.481	1	0
486.652	1	6
486.822	1	17
486.992	1	11
487.163	1	0
487.333	1	-3
487.503	1	-3
487.674	1	6
487.844	1	-2
488.014	1	12
488.185	1	3
488.355	1	18
488.525	1	14
488.696	1	2
488.866	1	5
489.036	1	10
489.207	1	7
489.377	1	-3
489.547	1	9
489.718	1	8
489.888	1	16
490.058	1	5
490.228	1	9
490.399	1	11
490.569	1	6
490.739	1	9
490.910	1	-6
491.080	1	7
491.250	1	2
491.421	1	17
491.591	1	-6
491.761	1	0
491.932	1	13
492.102	1	14
492.272	1	7
492.442	1	6
492.613	1	2
492.783	1	4
492.953	1	11
493.124	1	8
493.294	1	7
493.464	1	4
493.635	1	6
493.805	1	13
493.975	1	23
494.145	1	5
494.316	1	12
494.486	1	24
494.656	1	4
494.827	1	20
494.997	1	-1
495.167	1	12
495.337	1	4
495.508	1	3
495.678	1	9
495.848	1	13
496.019	1	8
496.189	1	21
496.359	1	20
496.529	1	19
496.700	1	1
496.870	1	17
497.040	1	15
497.211	1	10
497.381	1	6
497.551	1	14
497.721	1	5
497.892	1	13
498.062	1	2
498.232	1	16
498.403	1	3
498.573	1	12
498.743	1	20
498.913	1	14
499.084	1	22
499.254	1	20
499.424	1	6
499.594	1	10
499.765	1	9
499.935	1	13
500.105	1	21
500.275	1	7
500.446	1	9
500.616	1	4
500.786	1	17
500.956	1	14
501.127	1	16
501.297	1	2
501.467	1	9
501.638	1	17
501.808	1	15
501.978	1	9
502.148	1	5
502.319	1	11
502.489	1	18
502.659	1	13
502.829	1	13
503.000	1	13
503.170	1	3
503.340	1	5
503.510	1	24
503.681	1	1
503.851	1	12
504.021	1	14
504.191	1	10
504.362	1	14
504.532	1	21
504.702	1	16
504.872	1	10
505.042	1	12
505.213	1	15
505.383	1	15
505.553	1	9
505.723	1	19
505.894	1	29
506.064	1	10
506.234	1	11
506.404	1	9
506.575	1	8
506.745	1	7
506.915	1	12
507.085	1	25
507.256	1	14
507.426	1	19
507.596	1	-1
507.766	1	24
507.936	1	11
508.107	1	19
508.277	1	15
508.447	1	22
508.617	1	12
508.788	1	3
508.958	1	22
509.128	1	21
509.298	1	14
509.468	1	0
509.639	1	20
509.809	1	10
509.979	1	5
510.149	1	14
510.319	1	22
510.490	1	27
510.660	1	12
510.830	1	29
511.000	1	14
511.171	1	31
511.341	1	11
511.511	1	17
511.681	1	23
511.851	1	23
512.022	1	20
512.192	1	6
512.362	1	28
512.532	1	16
512.702	1	22
512.873	1	11
513.043	1	17
513.213	1	20
513.383	1	17
513.553	1	15
513.724	1	9
513.894	1	10
514.064	1	17
514.234	1	23
514.404	1	26
514.575	1	12
514.745	1	7
514.915	1	5
515.085	1	24
515.255	1	19
515.425	1	13
515.596	1	12
515.766	1	23
515.936	1	24
516.106	1	14
516.276	1	14
516.447	1	16
516.617	1	14
516.787	1	22
516.957	1	18
517.127	1	19
517.297	1	25
517.468	1	21
517.638	1	18
517.808	1	24
517.978	1	10
518.148	1	15
518.319	1	11
518.489	1	12
518.659	1	17
518.829	1	38
518.999	1	26
519.169	1	16
519.340	1	9
519.510	1	11
519.680	1	21
519.850	1	26
520.020	1	26
520.190	1	31
520.361	1	12
520.531	1	25
520.701	1	21
520.871	1	14
521.041	1	27
521.211	1	21
521.382	1	26
521.552	1	17
521.722	1	19
521.892	1	22
522.062	1	23
522.232	1	12
522.402	1	19
522.573	1	11
522.743	1	25
522.913	1	24
523.083	1	22
523.253	1	25
523.423	1	26
523.593	1	27
523.764	1	15
523.934	1	18
524.104	1	19
524.274	1	15
524.444	1	12
524.614	1	18
524.784	1	27
524.955	1	21
525.125	1	21
525.295	1	30
525.465	1	25
525.635	1	12
525.805	1	23
525.975	1	28
526.146	1	16
526.316	1	16
526.486	1	19
526.656	1	26
526.826	1	24
526.996	1	17
527.166	1	26
527.337	1	25
527.507	1	25
527.677	1	10
527.847	1	12
528.017	1	14
528.187	1	29
528.357	1	29
528.527	1	22
528.698	1	13
528.868	1	14
529.038	1	14
529.208	1	11
529.378	1	12
529.548	1	12
529.718	1	31
529.888	1	24
530.058	1	13
530.229	1	24
530.399	1	21
530.569	1	26
530.739	1	20
530.909	1	21
531.079	1	17
531.249	1	18
531.419	1	19
531.589	1	27
531.760	1	19
531.930	1	28
532.100	1	22
532.270	1	18
532.440	1	27
532.610	1	16
532.780	1	15
532.950	1	24
533.120	1	22
533.290	1	27
533.461	1	15
533.631	1	16
533.801	1	26
533.971	1	18
534.141	1	17
534.311	1	26
534.481	1	27
534.651	1	21
534.821	1	25
534.991	1	15
535.162	1	21
535.332	1	29
535.502	1	24
535.672	1	5
535.842	1	25
536.012	1	13
536.182	1	25
536.352	1	17
536.522	1	14
536.692	1	19
536.862	1	19
537.032	1	20
537.203	1	13
537.373	1	13
537.543	1	19
537.713	1	18
537.883	1	6
538.053	1	14
538.223	1	26
538.393	1	26
538.563	1	32
538.733	1	18
538.903	1	27
539.073	1	29
539.243	1	21
539.413	1	20
539.584	1	28
539.754	1	14
539.924	1	16
540.094	1	20
540.264	1	15
540.434	1	19
540.604	1	29
540.774	1	21
540.944	1	30
541.114	1	7
541.284	1	20
541.454	1	25
541.624	1	24
541.794	1	19
541.964	1	11
542.134	1	15
542.305	1	23
542.475	1	19
542.645	1	14
542.815	1	24
542.985	1	23
543.155	1	10
543.325	1	19
543.495	1	13
543.665	1	21
543.835	1	22
544.005	1	23
544.175	1	13
544.345	1	14
544.515	1	10
544.685	1	20
544.855	1	15
545.025	1	10
545.195	1	27
545.365	1	27
545.535	1	22
545.705	1	16
545.875	1	30
546.045	1	21
546.216	1	15
546.386	1	13
546.556	1	5
546.726	1	7
546.896	1	18
547.066	1	20
547.236	1	12
547.406	1	12
547.576	1	26
547.746	1	17
547.916	1	17
548.086	1	18
548.256	1	9
548.426	1	15
548.596	1	13
548.766	1	15
548.936	1	22
549.106	1	12
549.276	1	12
549.446	1	18
549.616	1	22
549.786	1	16
549.956	1	11
550.126	1	23
550.296	1	10
550.466	1	14
550.636	1	11
550.806	1	19
550.976	1	9
551.146	1	18
551.316	1	17
551.486	1	21
551.656	1	13
551.826	1	17
551.996	1	14
552.166	1	26
552.336	1	10
552.506	1	21
552.676	1	16
552.846	1	7
553.016	1	14
553.186	1	14
553.356	1	18
553.526	1	14
553.696	1	16
553.866	1	1
554.036	1	13
554.206	1	8
554.376	1	33
554.546	1	13
554.716	1	9
554.886	1	12
555.056	1	18
555.226	1	19
555.396	1	0
555.566	1	10
555.736	1	22
555.906	1	9
556.076	1	17
556.246	1	21
556.416	1	16
556.586	1	13
556.756	1	13
556.926	1	18
557.096	1	10
557.266	1	17
557.436	1	10
557.606	1	16
557.776	1	19
557.946	1	19
558.116	1	11
558.286	1	16
558.456	1	13
558.626	1	0
558.796	1	13
558.966	1	14
559.136	1	9
559.306	1	4
559.476	1	9
559.646	1	15
559.816	1	25
559.986	1	8
560.155	1	9
560.325	1	2
560.495	1	14
560.665	1	14
560.835	1	10
561.005	1	4
561.175	1	14
561.345	1	26
561.515	1	10
561.685	1	8
561.855	1	3
562.025	1	4
562.195	1	5
562.365	1	11
562.535	1	17
562.705	1	11
562.875	1	20
563.045	1	13
563.215	1	19
563.385	1	6
563.555	1	21
563.725	1	8
563.895	1	9
564.064	1	21
564.234	1	10
564.404	1	12
564.574	1	29
564.744	1	9
564.914	1	12
565.084	1	15
565.254	1	10
565.424	1	6
565.594	1	17
565.764	1	12
565.934	1	9
566.104	1	14
566.274	1	6
566.444	1	20
566.614	1	13
566.783	1	25
566.953	1	9
567.123	1	12
567.293	1	12
567.463	1	9
567.633	1	0
567.803	1	11
567.973	1	7
568.143	1	21
568.313	1	6
568.483	1	11
568.653	1	8
568.823	1	-3
568.993	1	2
569.162	1	20
569.332	1	13
569.502	1	6
569.672	1	5
569.842	1	0
570.012	1	6
570.182	1	9
570.352	1	9
570.522	1	-9
570.692	1	11
570.862	1	20
571.031	1	15
571.201	1	17
571.371	1	11
571.541	1	4
571.711	1	15
571.881	1	13
572.051	1	12
572.221	1	18
572.391	1	17
572.561	1	9
572.731	1	15
572.900	1	5
573.070	1	3
573.240	1	2
573.410	1	11
573.580	1	9
573.750	1	8
573.920	1	30
574.090	1	-1
574.260	1	9
574.430	1	10
574.599	1	12
574.769	1	-1
574.939	1	12
575.109	1	12
575.279	1	0
575.449	1	7
575.619	1	13
575.789	1	13
575.959	1	11
576.128	1	-2
576.298	1	-1
576.468	1	0
576.638	1	6
576.808	1	9
576.978	1	5
577.148	1	8
577.318	1	10
577.487	1	11
577.657	1	19
577.827	1	6
577.997	1	9
578.167	1	7
578.337	1	17
578.507	1	-2
578.677	1	9
578.846	1	10
579.016	1	7
579.186	1	1
579.356	1	11
579.526	1	6
579.696	1	1
579.866	1	0
580.036	1	10
580.205	1	9
580.375	1	5
580.545	1	4
580.715	1	13
580.885	1	12
581.055	1	11
581.225	1	-3
581.394	1	4
581.564	1	1
581.734	1	10
581.904	1	1
582.074	1	3
582.244	1	-1
582.414	1	0
582.583	1	12
582.753	1	7
582.923	1	6
583.093	1	10
583.263	1	6
583.433	1	9
583.603	1	4
583.772	1	8
583.942	1	8
584.112	1	17
584.282	1	-3
584.452	1	10
584.622	1	-2
584.791	1	10
584.961	1	8
585.131	1	11
585.301	1	1
585.471	1	4
585.641	1	11
585.811	1	7
585.980	1	1
586.150	1	11
586.320	1	11
586.490	1	1
586.660	1	1
586.830	1	4
586.999	1	2
587.169	1	-1
587.339	1	13
587.509	1	1
587.679	1	11
587.849	1	3
588.018	1	20
588.188	1	4
588.358	1	1
588.528	1	13
588.698	1	9
588.867	1	10
589.037	1	4
589.207	1	0
589.377	1	2
589.547	1	3
589.717	1	3
589.886	1	5
590.056	1	-2
590.226	1	11
590.396	1	16
590.566	1	3
590.735	1	7
590.905	1	7
591.075	1	16
591.245	1	-4
591.415	1	19
591.585	1	1
591.754	1	3
591.924	1	2
592.094	1	10
592.264	1	6
592.434	1	10
592.603	1	-1
592.773	1	18
592.943	1	5
593.113	1	9
593.283	1	-1
593.452	1	4
593.622	1	14
593.792	1	-11
593.962	1	13
594.132	1	8
594.301	1	-7
594.471	1	7
594.641	1	4
594.811	1	3
594.981	1	2
595.150	1	6
595.320	1	13
595.490	1	5
595.660	1	5
595.829	1	-4
595.999	1	18
596.169	1	12
596.339	1	20
596.509	1	8
596.678	1	-6
596.848	1	7
597.018	1	5
597.188	1	2
597.358	1	1
597.527	1	3
597.697	1	3
597.867	1	4
598.037	1	5
598.206	1	2
598.376	1	3
598.546	1	3
598.716	1	10
598.885	1	13
599.055	1	7
599.225	1	9
599.395	1	-6
599.565	1	8
599.734	1	7
599.904	1	1
600.074	1	5
600.244	1	1
600.413	1	6
600.583	1	-3
600.753	1	9
600.923	1	5
601.092	1	2
601.262	1	6
601.432	1	-3
601.602	1	-4
601.771	1	7
601.941	1	4
602.111	1	1
602.281	1	2
602.451	1	0
602.620	1	2
602.790	1	13
602.960	1	8
603.130	1	12
603.299	1	6
603.469	1	2
603.639	1	-3
603.809	1	9
603.978	1	8
604.148	1	4
604.318	1	2
604.487	1	12
604.657	1	3
604.827	1	6
604.997	1	16
605.166	1	20
605.336	1	7
605.506	1	2
605.676	1	-4
605.845	1	12
606.015	1	-4
606.185	1	14
606.355	1	21
606.524	1	12
606.694	1	-1
606.864	1	16
607.034	1	6
607.203	1	-2
607.373	1	7
607.543	1	6
607.712	1	3
607.882	1	8
608.052	1	5
608.222	1	-2
608.391	1	8
608.561	1	3
608.731	1	9
608.901	1	10
609.070	1	19
609.240	1	-1
609.410	1	10
609.579	1	16
609.749	1	5
609.919	1	13
610.089	1	0
610.258	1	3
610.428	1	6
610.598	1	12
610.767	1	5
610.937	1	2
611.107	1	15
611.277	1	11
611.446	1	15
611.616	1	-3
611.786	1	4
611.955	1	3
612.125	1	6
612.295	1	15
612.465	1	2
612.634	1	11
612.804	1	8
612.974	1	7
613.143	1	9
613.313	1	-4
613.483	1	5
613.652	1	-7
613.822	1	6
613.992	1	3
614.162	1	8
614.331	1	9
614.501	1	15
614.671	1	7
614.840	1	0
615.010	1	8
615.180	1	3
615.349	1	4
615.519	1	-2
615.689	1	6
615.858	1	5
616.028	1	14
616.198	1	9
616.368	1	8
616.537	1	11
616.707	1	11
616.877	1	6
617.046	1	17
617.216	1	13
617.386	1	-10
617.555	1	-7
617.725	1	1
617.895	1	7
618.064	1	7
618.234	1	11
618.404	1	6
618.573	1	7
618.743	1	13
618.913	1	12
619.082	1	0
619.252	1	2
619.422	1	5
619.591	1	16
619.761	1	4
619.931	1	3
620.100	1	-1
620.270	1	6
620.440	1	6
620.609	1	-1
620.779	1	5
620.949	1	10
621.118	1	4
621.288	1	0
621.458	1	12
621.627	1	11
621.797	1	6
621.967	1	14
622.136	1	8
622.306	1	13
622.476	1	6
622.645	1	13
622.815	1	0
622.985	1	9
623.154	1	4
623.324	1	4
623.494	1	11
623.663	1	0
623.833	1	11
624.002	1	11
624.172	1	-1
624.342	1	3
624.511	1	10
624.681	1	10
624.851	1	1
625.020	1	12
625.190	1	-11
625.360	1	4
625.529	1	1
625.699	1	3
625.869	1	11
626.038	1	9
626.208	1	0
626.377	1	15
626.547	1	7
626.717	1	5
626.886	1	10
627.056	1	19
627.226	1	2
627.395	1	0
627.565	1	7
627.735	1	14
627.904	1	5
628.074	1	16
628.243	1	8
628.413	1	1
628.583	1	0
628.752	1	12
628.922	1	8
629.091	1	2
629.261	1	-8
629.431	1	3
629.600	1	1
629.770	1	0
629.940	1	6
630.109	1	10
630.279	1	1
630.448	1	6
630.618	1	4
630.788	1	-4
630.957	1	11
631.127	1	1
631.297	1	0
631.466	1	4
631.636	1	11
631.805	1	9
631.975	1	11
632.145	1	-5
632.314	1	3
632.484	1	-1
632.653	1	0
632.823	1	0
632.993	1	7
633.162	1	4
633.332	1	7
633.501	1	14
633.671	1	-8
633.841	1	15
634.010	1	3
634.180	1	13
634.349	1	1
634.519	1	11
634.689	1	18
634.858	1	8
635.028	1	8
635.197	1	12
635.367	1	6
635.537	1	-4
635.706	1	4
635.876	1	16
636.045	1	13
636.215	1	1
636.384	1	1
636.554	1	9
636.724	1	14
636.893	1	6
637.063	1	9
637.232	1	1
637.402	1	-4
637.572	1	-2
637.741	1	8
637.911	1	0
638.080	1	16
638.250	1	7
638.419	1	7
638.589	1	-1
638.759	1	7
638.928	1	3
639.098	1	0
639.267	1	8
639.437	1	7
639.606	1	5
639.776	1	-2
639.946	1	8
640.115	1	8
640.285	1	15
640.454	1	9
640.624	1	1
640.793	1	-1
640.963	1	1
641.132	1	18
641.302	1	12
641.472	1	8
641.641	1	8
641.811	1	0
641.980	1	1
642.150	1	-6
642.319	1	11
642.489	1	-1
642.659	1	3
642.828	1	3
642.998	1	6
643.167	1	8
643.337	1	4
643.506	1	9
643.676	1	6
643.845	1	-3
644.015	1	4
644.184	1	-6
644.354	1	2
644.524	1	-1
644.693	1	1
644.863	1	1
645.032	1	7
645.202	1	5
645.371	1	19
645.541	1	-1
645.710	1	11
645.880	1	6
646.049	1	-4
646.219	1	3
646.388	1	1
646.558	1	2
646.728	1	10
646.897	1	1
647.067	1	8
647.236	1	-5
647.406	1	0
647.575	1	3
647.745	1	7
647.914	1	-1
648.084	1	8
648.253	1	9
648.423	1	12
648.592	1	5
648.762	1	1
648.931	1	-3
649.101	1	-16
649.270	1	1
649.440	1	2
649.610	1	5
649.779	1	10
649.949	1	3
650.118	1	0
650.288	1	9
650.457	1	5
650.627	1	2
650.796	1	-1
650.966	1	12
651.135	1	6
651.305	1	6
651.474	1	2
651.644	1	6
651.813	1	0
651.983	1	-11
652.152	1	8
652.322	1	2
652.491	1	10
652.661	1	-3
652.830	1	6
653.000	1	-4
653.169	1	0
653.339	1	5
653.508	1	10
653.678	1	0
653.847	1	4
654.017	1	-4
654.186	1	5
654.356	1	4
654.525	1	5
654.695	1	-4
654.864	1	-3
655.034	1	6
655.203	1	14
655.373	1	6
655.542	1	5
655.712	1	2
655.881	1	9
656.051	1	-4
656.220	1	-4
656.390	1	3
656.559	1	8
656.729	1	10
656.898	1	8
657.068	1	3
657.237	1	13
657.406	1	3
657.576	1	5
657.745	1	7
657.915	1	4
658.084	1	1
658.254	1	-10
658.423	1	1
658.593	1	2
658.762	1	12
658.932	1	19
659.101	1	7
659.271	1	10
659.440	1	5
659.610	1	5
659.779	1	8
659.949	1	8
660.118	1	-9
660.288	1	5
660.457	1	1
660.626	1	7
660.796	1	6
660.965	1	6
661.135	1	14
661.304	1	18
661.474	1	9
661.643	1	10
661.813	1	2
661.982	1	-1
662.152	1	2
662.321	1	-8
662.491	1	20
662.660	1	5
662.829	1	13
662.999	1	-4
663.168	1	0
663.338	1	6
663.507	1	8
663.677	1	-2
663.846	1	5
664.016	1	9
664.185	1	3
664.354	1	6
664.524	1	-1
664.693	1	11
664.863	1	2
665.032	1	9
665.202	1	4
665.371	1	-1
665.541	1	5
665.710	1	9
665.879	1	4
666.049	1	-2
666.218	1	13
666.388	1	5
666.557	1	10
666.727	1	-7
666.896	1	14
667.065	1	10
667.235	1	5
667.404	1	0
667.574	1	21
667.743	1	2
667.913	1	12
668.082	1	4
668.251	1	6
668.421	1	-2
668.590	1	8
668.760	1	2
668.929	1	6
669.099	1	-11
669.268	1	-2
669.437	1	0
669.607	1	2
669.776	1	-4
669.946	1	11
670.115	1	20
670.285	1	13
670.454	1	8
670.623	1	3
670.793	1	-4
670.962	1	-2
671.132	1	1
671.301	1	12
671.470	1	3
671.640	1	-2
671.809	1	2
671.979	1	17
672.148	1	1
672.317	1	3
672.487	1	-10
672.656	1	-10
672.826	1	11
672.995	1	3
673.164	1	8
673.334	1	5
673.503	1	-3
673.673	1	9
673.842	1	-6
674.011	1	7
674.181	1	11
674.350	1	1
674.520	1	-1
674.689	1	13
674.858	1	-3
675.028	1	18
675.197	1	-2
675.367	1	0
675.536	1	3
675.705	1	13
675.875	1	5
676.044	1	6
676.214	1	10
676.383	1	0
676.552	1	-4
676.722	1	8
676.891	1	10
677.060	1	14
677.230	1	1
677.399	1	11
677.569	1	-4
677.738	1	-5
677.907	1	6
678.077	1	14
678.246	1	10
678.416	1	8
678.585	1	2
678.754	1	0
678.924	1	3
679.093	1	4
679.262	1	8
679.432	1	4
679.601	1	7
679.771	1	15
679.940	1	1
680.109	1	7
680.279	1	2
680.448	1	10
680.617	1	-8
680.787	1	2
680.956	1	-4
681.125	1	3
681.295	1	2
681.464	1	11
681.634	1	8
681.803	1	0
681.972	1	-1
682.142	1	5
682.311	1	-7
682.480	1	15
682.650	1	0
682.819	1	9
682.988	1	-2
683.158	1	1
683.327	1	2
683.496	1	4
683.666	1	3
683.835	1	-3
684.004	1	5
684.174	1	7
684.343	1	7
684.512	1	12
684.682	1	-7
684.851	1	4
685.021	1	6
685.190	1	6
685.359	1	-6
685.529	1	-2
685.698	1	-5
685.867	1	-2
686.037	1	7
686.206	1	10
686.375	1	6
686.545	1	2
686.714	1	0
686.883	1	2
687.053	1	6
687.222	1	12
687.391	1	12
687.561	1	16
687.730	1	-5
687.899	1	8
688.069	1	8
688.238	1	7
688.407	1	12
688.577	1	10
688.746	1	6
