340.368	1	3
340.539	1	2
340.710	1	7
340.881	1	10
341.052	1	1
341.223	1	-7
341.394	1	2
341.565	1	2
341.737	1	2
341.908	1	2
342.079	1	-1
342.250	1	6
342.421	1	9
342.592	1	-1
342.763	1	6
342.934	1	10
343.105	1	3
343.276	1	-9
343.447	1	8
343.618	1	7
343.789	1	6
343.960	1	-12
344.131	1	10
344.302	1	6
344.473	1	3
344.644	1	7
344.815	1	4
344.986	1	6
345.157	1	-11
345.328	1	6
345.499	1	-1
345.670	1	-1
345.841	1	0
346.012	1	-4
346.183	1	9
346.354	1	-6
346.526	1	-2
346.697	1	1
346.868	1	2
347.039	1	-5
347.210	1	2
347.381	1	1
347.552	1	-1
347.723	1	-4
347.894	1	-2
348.065	1	10
348.236	1	2
348.407	1	3
348.578	1	-3
348.749	1	8
348.920	1	-1
349.091	1	-3
349.262	1	5
349.433	1	6
349.604	1	1
349.775	1	2
349.946	1	3
350.117	1	15
350.288	1	-14
350.459	1	1
350.630	1	7
350.801	1	2
350.972	1	2
351.143	1	1
351.314	1	2
351.485	1	4
351.656	1	13
351.827	1	3
351.998	1	0
352.169	1	-2
352.340	1	17
352.511	1	4
352.682	1	-5
352.853	1	5
353.024	1	-4
353.195	1	3
353.366	1	10
353.537	1	-2
353.708	1	-5
353.879	1	-3
354.050	1	3
354.221	1	11
354.392	1	4
354.563	1	-5
354.734	1	-3
354.905	1	5
355.076	1	13
355.247	1	-3
355.418	1	5
355.589	1	4
355.760	1	8
355.931	1	4
356.102	1	-7
356.273	1	11
356.444	1	-10
356.615	1	1
356.785	1	1
356.956	1	7
357.127	1	2
357.298	1	-7
357.469	1	-11
357.640	1	3
357.811	1	1
357.982	1	3
358.153	1	-3
358.324	1	1
358.495	1	10
358.666	1	0
358.837	1	-2
359.008	1	2
359.179	1	-5
359.350	1	-5
359.521	1	-7
359.692	1	6
359.863	1	-5
360.034	1	4
360.205	1	-7
360.376	1	10
360.547	1	-1
360.718	1	9
360.889	1	-9
361.060	1	-2
361.231	1	-4
361.401	1	-12
361.572	1	4
361.743	1	8
361.914	1	-2
362.085	1	6
362.256	1	-4
362.427	1	4
362.598	1	-3
362.769	1	4
362.940	1	-5
363.111	1	12
363.282	1	6
363.453	1	-11
363.624	1	2
363.795	1	6
363.966	1	11
364.137	1	-3
364.308	1	1
364.478	1	-1
364.649	1	6
364.820	1	1
364.991	1	9
365.162	1	-3
365.333	1	-2
365.504	1	-2
365.675	1	6
365.846	1	-3
366.017	1	12
366.188	1	-3
366.359	1	5
366.530	1	-4
366.701	1	3
366.871	1	14
367.042	1	0
367.213	1	6
367.384	1	4
367.555	1	6
367.726	1	-3
367.897	1	-5
368.068	1	-9
368.239	1	10
368.410	1	-4
368.581	1	4
368.752	1	12
368.923	1	5
369.093	1	-3
369.264	1	5
369.435	1	0
369.606	1	9
369.777	1	-4
369.948	1	-2
370.119	1	7
370.290	1	0
370.461	1	4
370.632	1	-4
370.803	1	-2
370.973	1	-9
371.144	1	1
371.315	1	10
371.486	1	-2
371.657	1	-3
371.828	1	11
371.999	1	2
372.170	1	-9
372.341	1	7
372.512	1	-4
372.682	1	-6
372.853	1	-4
373.024	1	5
373.195	1	-8
373.366	1	-5
373.537	1	3
373.708	1	3
373.879	1	14
374.050	1	-1
374.220	1	-12
374.391	1	4
374.562	1	-7
374.733	1	-12
374.904	1	9
375.075	1	14
375.246	1	7
375.417	1	-4
375.588	1	5
375.758	1	-12
375.929	1	-4
376.100	1	-2
376.271	1	0
376.442	1	8
376.613	1	-2
376.784	1	8
376.955	1	12
377.125	1	-1
377.296	1	0
377.467	1	4
377.638	1	-8
377.809	1	-1
377.980	1	-6
378.151	1	0
378.321	1	1
378.492	1	8
378.663	1	-2
378.834	1	-1
379.005	1	15
379.176	1	-3
379.347	1	-4
379.518	1	7
379.688	1	-1
379.859	1	8
380.030	1	1
380.201	1	7
380.372	1	5
380.543	1	-1
380.714	1	15
380.884	1	-3
381.055	1	-2
381.226	1	4
381.397	1	3
381.568	1	6
381.739	1	3
381.910	1	12
382.080	1	-2
382.251	1	1
382.422	1	11
382.593	1	-4
382.764	1	-8
382.935	1	2
383.105	1	7
383.276	1	-7
383.447	1	-1
383.618	1	7
383.789	1	4
383.960	1	-6
384.130	1	5
384.301	1	0
384.472	1	6
384.643	1	-4
384.814	1	-5
384.985	1	8
385.156	1	4
385.326	1	1
385.497	1	-5
385.668	1	-5
385.839	1	-2
386.010	1	-1
386.180	1	11
386.351	1	-2
386.522	1	-2
386.693	1	-10
386.864	1	-1
387.035	1	8
387.205	1	-5
387.376	1	11
387.547	1	10
387.718	1	-4
387.889	1	-12
388.060	1	2
388.230	1	-4
388.401	1	2
388.572	1	8
388.743	1	9
388.914	1	-1
389.084	1	9
389.255	1	0
389.426	1	6
389.597	1	-14
389.768	1	-10
389.939	1	3
390.109	1	0
390.280	1	2
390.451	1	10
390.622	1	6
390.793	1	10
390.963	1	-1
391.134	1	-3
391.305	1	3
391.476	1	8
391.647	1	3
391.817	1	7
391.988	1	1
392.159	1	-6
392.330	1	-9
392.501	1	7
392.671	1	-4
392.842	1	17
393.013	1	1
393.184	1	6
393.355	1	-3
393.525	1	3
393.696	1	-5
393.867	1	-4
394.038	1	5
394.208	1	-12
394.379	1	3
394.550	1	4
394.721	1	3
394.892	1	-2
395.062	1	-1
395.233	1	1
395.404	1	-11
395.575	1	-5
395.746	1	3
395.916	1	5
396.087	1	14
396.258	1	3
396.429	1	1
396.599	1	-2
396.770	1	8
396.941	1	4
397.112	1	-4
397.283	1	3
397.453	1	9
397.624	1	-2
397.795	1	-1
397.966	1	5
398.136	1	1
398.307	1	4
398.478	1	12
398.649	1	0
398.819	1	-14
398.990	1	-5
399.161	1	2
399.332	1	2
399.503	1	1
399.673	1	7
399.844	1	-3
400.015	1	1
400.186	1	-6
400.356	1	4
400.527	1	5
400.698	1	-8
400.869	1	1
401.039	1	-1
401.210	1	-4
401.381	1	0
401.552	1	2
401.722	1	3
401.893	1	-3
402.064	1	-3
402.235	1	1
402.405	1	1
402.576	1	-2
402.747	1	6
402.918	1	5
403.088	1	5
403.259	1	-8
403.430	1	1
403.601	1	-5
403.771	1	9
403.942	1	3
404.113	1	-3
404.284	1	-5
404.454	1	13
404.625	1	9
404.796	1	-5
404.967	1	4
405.137	1	8
405.308	1	-7
405.479	1	-3
405.649	1	0
405.820	1	18
405.991	1	1
406.162	1	-1
406.332	1	3
406.503	1	-3
406.674	1	5
406.845	1	-7
407.015	1	3
407.186	1	6
407.357	1	4
407.527	1	3
407.698	1	-3
407.869	1	4
408.040	1	2
408.210	1	5
408.381	1	1
408.552	1	-12
408.722	1	-2
408.893	1	9
409.064	1	10
409.235	1	11
409.405	1	2
409.576	1	5
409.747	1	-11
409.917	1	-3
410.088	1	14
410.259	1	2
410.430	1	11
410.600	1	-4
410.771	1	-13
410.942	1	5
411.112	1	7
411.283	1	-7
411.454	1	-4
411.625	1	-1
411.795	1	6
411.966	1	3
412.137	1	-5
412.307	1	-3
412.478	1	-4
412.649	1	5
412.819	1	7
412.990	1	2
413.161	1	15
413.332	1	-2
413.502	1	5
413.673	1	-8
413.844	1	-2
414.014	1	9
414.185	1	10
414.356	1	4
414.526	1	2
414.697	1	-3
414.868	1	1
415.038	1	7
415.209	1	-3
415.380	1	7
415.550	1	-4
415.721	1	-3
415.892	1	7
416.063	1	-2
416.233	1	10
416.404	1	13
416.575	1	3
416.745	1	0
416.916	1	-4
417.087	1	4
417.257	1	-2
417.428	1	-1
417.599	1	-2
417.769	1	4
417.940	1	0
418.111	1	5
418.281	1	-6
418.452	1	6
418.623	1	0
418.793	1	-8
418.964	1	-9
419.135	1	7
419.305	1	0
419.476	1	6
419.647	1	12
419.817	1	-2
419.988	1	5
420.159	1	-1
420.329	1	8
420.500	1	-3
420.671	1	-2
420.841	1	2
421.012	1	-4
421.183	1	7
421.353	1	0
421.524	1	0
421.695	1	-1
421.865	1	7
422.036	1	7
422.206	1	-5
422.377	1	5
422.548	1	8
422.718	1	3
422.889	1	5
423.060	1	0
423.230	1	-1
423.401	1	4
423.572	1	-15
423.742	1	0
423.913	1	0
424.084	1	-1
424.254	1	4
424.425	1	-1
424.595	1	9
424.766	1	-1
424.937	1	5
425.107	1	-1
425.278	1	-1
425.449	1	7
425.619	1	2
425.790	1	11
425.961	1	6
426.131	1	8
426.302	1	1
426.472	1	2
426.643	1	2
426.814	1	1
426.984	1	1
427.155	1	-15
427.326	1	5
427.496	1	1
427.667	1	0
427.837	1	2
428.008	1	-3
428.179	1	2
428.349	1	0
428.520	1	6
428.691	1	-10
428.861	1	-9
429.032	1	-7
429.202	1	2
429.373	1	6
429.544	1	2
429.714	1	-8
429.885	1	1
430.055	1	7
430.226	1	-3
430.397	1	-13
430.567	1	2
430.738	1	-5
430.909	1	0
431.079	1	19
431.250	1	4
431.420	1	1
431.591	1	-9
431.762	1	-2
431.932	1	-6
432.103	1	-8
432.273	1	5
432.444	1	3
432.615	1	14
432.785	1	-4
432.956	1	-3
433.126	1	5
433.297	1	12
433.468	1	-5
433.638	1	3
433.809	1	5
433.979	1	8
434.150	1	-6
434.320	1	5
434.491	1	-7
434.662	1	8
434.832	1	3
435.003	1	18
435.173	1	-6
435.344	1	8
435.515	1	-4
435.685	1	-17
435.856	1	0
436.026	1	6
436.197	1	-2
436.368	1	-4
436.538	1	5
436.709	1	-2
436.879	1	3
437.050	1	3
437.220	1	-2
437.391	1	9
437.562	1	3
437.732	1	0
437.903	1	6
438.073	1	1
438.244	1	10
438.414	1	-4
438.585	1	-3
438.756	1	3
438.926	1	-3
439.097	1	4
439.267	1	0
439.438	1	0
439.608	1	17
439.779	1	8
439.949	1	7
440.120	1	-12
440.291	1	4
440.461	1	11
440.632	1	1
440.802	1	-5
440.973	1	4
441.143	1	-12
441.314	1	4
441.485	1	4
441.655	1	13
441.826	1	0
441.996	1	0
442.167	1	5
442.337	1	-4
442.508	1	-5
442.678	1	-9
442.849	1	7
443.019	1	8
443.190	1	-5
443.361	1	-3
443.531	1	-1
443.702	1	4
443.872	1	3
444.043	1	-6
444.213	1	1
444.384	1	-3
444.554	1	0
444.725	1	-1
444.895	1	5
445.066	1	-8
445.237	1	-4
445.407	1	-2
445.578	1	-6
445.748	1	11
445.919	1	7
446.089	1	2
446.260	1	1
446.430	1	0
446.601	1	8
446.771	1	2
446.942	1	-2
447.112	1	-3
447.283	1	-3
447.453	1	2
447.624	1	9
447.794	1	15
447.965	1	7
448.135	1	3
448.306	1	10
448.477	1	5
448.647	1	7
448.818	1	0
448.988	1	9
449.159	1	5
449.329	1	-12
449.500	1	2
449.670	1	1
449.841	1	-5
450.011	1	-11
450.182	1	15
450.352	1	4
450.523	1	-2
450.693	1	3
450.864	1	-4
451.034	1	-14
451.205	1	4
451.375	1	5
451.546	1	9
451.716	1	-2
451.887	1	-8
452.057	1	10
452.228	1	7
452.398	1	-6
452.569	1	-2
452.739	1	2
452.910	1	2
453.080	1	-1
453.251	1	11
453.421	1	7
453.592	1	6
453.762	1	7
453.933	1	1
454.103	1	6
454.274	1	-6
454.444	1	-2
454.615	1	-2
454.785	1	13
454.956	1	1
455.126	1	-8
455.297	1	3
455.467	1	-1
455.638	1	9
455.808	1	10
455.979	1	12
456.149	1	-5
456.320	1	1
456.490	1	9
456.661	1	-5
456.831	1	12
457.001	1	1
457.172	1	5
457.342	1	0
457.513	1	-9
457.683	1	-3
457.854	1	1
458.024	1	15
458.195	1	-13
458.365	1	10
458.536	1	4
458.706	1	13
458.877	1	11
459.047	1	1
459.218	1	3
459.388	1	-12
459.559	1	2
459.729	1	-3
459.899	1	-5
460.070	1	8
460.240	1	12
460.411	1	14
460.581	1	2
460.752	1	9
460.922	1	4
461.093	1	2
461.263	1	7
461.434	1	7
461.604	1	-13
461.775	1	-7
461.945	1	8
462.115	1	-2
462.286	1	11
462.456	1	-1
462.627	1	-6
462.797	1	11
462.968	1	-4
463.138	1	14
463.309	1	6
463.479	1	3
463.649	1	2
463.820	1	-1
463.990	1	0
464.161	1	-6
464.331	1	12
464.502	1	7
464.672	1	6
464.843	1	-2
465.013	1	-4
465.183	1	5
465.354	1	9
465.524	1	-2
465.695	1	4
465.865	1	-7
466.036	1	8
466.206	1	4
466.376	1	2
466.547	1	-8
466.717	1	0
466.888	1	2
467.058	1	4
467.229	1	8
467.399	1	3
467.569	1	-4
467.740	1	14
467.910	1	1
468.081	1	8
468.251	1	0
468.422	1	1
468.592	1	3
468.762	1	-2
468.933	1	6
469.103	1	5
469.274	1	12
469.444	1	11
469.614	1	8
469.785	1	5
469.955	1	-8
470.126	1	-7
470.296	1	-7
470.467	1	7
470.637	1	6
470.807	1	7
470.978	1	4
471.148	1	-9
471.319	1	6
471.489	1	-1
471.659	1	-5
471.830	1	-2
472.000	1	1
472.171	1	4
472.341	1	-1
472.511	1	4
472.682	1	4
472.852	1	4
473.023	1	5
473.193	1	2
473.363	1	5
473.534	1	3
473.704	1	-5
473.875	1	24
474.045	1	1
474.215	1	2
474.386	1	1
474.556	1	11
474.727	1	5
474.897	1	-6
475.067	1	9
475.238	1	13
475.408	1	1
475.578	1	2
475.749	1	7
475.919	1	-11
476.090	1	5
476.260	1	5
476.430	1	14
476.601	1	-7
476.771	1	-10
476.942	1	6
477.112	1	2
477.282	1	10
477.453	1	5
477.623	1	-9
477.793	1	-8
477.964	1	-7
478.134	1	16
478.305	1	6
478.475	1	-1
478.645	1	-6
478.816	1	11
478.986	1	-3
479.156	1	3
479.327	1	1
479.497	1	5
479.667	1	3
479.838	1	7
480.008	1	-3
480.179	1	-1
480.349	1	-3
480.519	1	-7
480.690	1	1
480.860	1	5
481.030	1	8
481.201	1	11
481.371	1	13
481.541	1	4
481.712	1	-1
481.882	1	-5
482.053	1	-3
482.223	1	4
482.393	1	14
482.564	1	6
482.734	1	-1
482.904	1	6
483.075	1	8
483.245	1	-5
483.415	1	3
483.586	1	5
483.756	1	-3
483.926	1	9
484.097	1	-2
484.267	1	6
484.437	1	-4
484.608	1	15
484.778	1	0
484.948	1	7
485.119	1	-4
485.289	1	-6
485.459	1	-16
485.630	1	-2
485.800	1	6
485.970	1	1
486.141	1	-2
486.311	1	11
486.481	1	-5
486.652	1	6
486.822	1	-1
486.992	1	0
487.163	1	2
487.333	1	-11
487.503	1	-4
487.674	1	5
487.844	1	2
488.014	1	6
488.185	1	2
488.355	1	8
488.525	1	7
488.696	1	4
488.866	1	4
489.036	1	4
489.207	1	-3
489.377	1	2
489.547	1	-1
489.718	1	5
489.888	1	6
490.058	1	-1
490.228	1	-2
490.399	1	6
490.569	1	-1
490.739	1	6
490.910	1	2
491.080	1	-6
491.250	1	10
491.421	1	7
491.591	1	-1
491.761	1	-9
491.932	1	-2
492.102	1	-1
492.272	1	-2
492.442	1	0
492.613	1	-9
492.783	1	-6
492.953	1	3
493.124	1	3
493.294	1	1
493.464	1	3
493.635	1	3
493.805	1	3
493.975	1	11
494.145	1	1
494.316	1	3
494.486	1	14
494.656	1	-1
494.827	1	6
494.997	1	-2
495.167	1	-1
495.337	1	-2
495.508	1	3
495.678	1	-1
495.848	1	12
496.019	1	-5
496.189	1	1
496.359	1	10
496.529	1	13
496.700	1	-2
496.870	1	4
497.040	1	4
497.211	1	-1
497.381	1	1
497.551	1	17
497.721	1	3
497.892	1	2
498.062	1	-7
498.232	1	5
498.403	1	1
498.573	1	8
498.743	1	6
498.913	1	2
499.084	1	9
499.254	1	8
499.424	1	-1
499.594	1	-5
499.765	1	3
499.935	1	0
500.105	1	-1
500.275	1	0
500.446	1	-2
500.616	1	2
500.786	1	2
500.956	1	2
501.127	1	4
501.297	1	-4
501.467	1	3
501.638	1	9
501.808	1	-3
501.978	1	-5
502.148	1	-7
502.319	1	-10
502.489	1	1
502.659	1	-2
502.829	1	-1
503.000	1	7
503.170	1	-10
503.340	1	-1
503.510	1	3
503.681	1	-2
503.851	1	2
504.021	1	3
504.191	1	9
504.362	1	8
504.532	1	3
504.702	1	5
504.872	1	4
505.042	1	6
505.213	1	6
505.383	1	7
505.553	1	4
505.723	1	8
505.894	1	1
506.064	1	2
506.234	1	5
506.404	1	0
506.575	1	1
506.745	1	-2
506.915	1	-5
507.085	1	8
507.256	1	4
507.426	1	10
507.596	1	-2
507.766	1	-1
507.936	1	-2
508.107	1	-6
508.277	1	3
508.447	1	6
508.617	1	-3
508.788	1	0
508.958	1	9
509.128	1	10
509.298	1	-4
509.468	1	-9
509.639	1	-3
509.809	1	5
509.979	1	-7
510.149	1	-1
510.319	1	9
510.490	1	10
510.660	1	-6
510.830	1	4
511.000	1	0
511.171	1	8
511.341	1	-5
511.511	1	-1
511.681	1	9
511.851	1	6
512.022	1	4
512.192	1	-7
512.362	1	-1
512.532	1	-1
512.702	1	5
512.873	1	0
513.043	1	-3
513.213	1	5
513.383	1	7
513.553	1	8
513.724	1	1
513.894	1	-5
514.064	1	-3
514.234	1	9
514.404	1	11
514.575	1	-19
514.745	1	-5
514.915	1	-3
515.085	1	5
515.255	1	4
515.425	1	0
515.596	1	-7
515.766	1	-3
515.936	1	10
516.106	1	2
516.276	1	0
516.447	1	-2
516.617	1	9
516.787	1	1
516.957	1	-11
517.127	1	6
517.297	1	-4
517.468	1	1
517.638	1	0
517.808	1	1
517.978	1	7
518.148	1	3
518.319	1	-5
518.489	1	-1
518.659	1	8
518.829	1	10
518.999	1	-1
519.169	1	1
519.340	1	-7
519.510	1	4
519.680	1	2
519.850	1	2
520.020	1	0
520.190	1	13
520.361	1	-6
520.531	1	2
520.701	1	-5
520.871	1	-1
521.041	1	7
521.211	1	2
521.382	1	-1
521.552	1	2
521.722	1	8
521.892	1	9
522.062	1	5
522.232	1	-6
522.402	1	-3
522.573	1	1
522.743	1	1
522.913	1	10
523.083	1	-7
523.253	1	1
523.423	1	7
523.593	1	1
523.764	1	-5
523.934	1	-5
524.104	1	-3
524.274	1	-8
524.444	1	6
524.614	1	1
524.784	1	8
524.955	1	9
525.125	1	3
525.295	1	-1
525.465	1	10
525.635	1	-8
525.805	1	-10
525.975	1	11
526.146	1	2
526.316	1	-3
526.486	1	-1
526.656	1	2
526.826	1	12
526.996	1	-1
527.166	1	4
527.337	1	7
527.507	1	5
527.677	1	-4
527.847	1	-2
528.017	1	6
528.187	1	10
528.357	1	4
528.527	1	-2
528.698	1	1
528.868	1	5
529.038	1	-6
529.208	1	5
529.378	1	2
529.548	1	-10
529.718	1	7
529.888	1	1
530.058	1	0
530.229	1	-1
530.399	1	-1
530.569	1	-3
530.739	1	-2
530.909	1	0
531.079	1	5
531.249	1	6
531.419	1	-2
531.589	1	6
531.760	1	-6
531.930	1	-5
532.100	1	-8
532.270	1	1
532.440	1	9
532.610	1	3
532.780	1	-3
532.950	1	6
533.120	1	3
533.290	1	9
533.461	1	-8
533.631	1	-1
533.801	1	8
533.971	1	-1
534.141	1	4
534.311	1	8
534.481	1	4
534.651	1	9
534.821	1	8
534.991	1	1
535.162	1	6
535.332	1	8
535.502	1	-2
535.672	1	12
535.842	1	10
536.012	1	4
536.182	1	1
536.352	1	-1
536.522	1	4
536.692	1	6
536.862	1	-2
537.032	1	-3
537.203	1	-3
537.373	1	4
537.543	1	5
537.713	1	5
537.883	1	-2
538.053	1	-4
538.223	1	-2
538.393	1	9
538.563	1	1
538.733	1	-8
538.903	1	9
539.073	1	7
539.243	1	0
539.413	1	12
539.584	1	2
539.754	1	-3
539.924	1	4
540.094	1	3
540.264	1	7
540.434	1	3
540.604	1	-1
540.774	1	8
540.944	1	7
541.114	1	-2
541.284	1	7
541.454	1	2
541.624	1	3
541.794	1	-3
541.964	1	-7
542.134	1	3
542.305	1	7
542.475	1	-2
542.645	1	-6
542.815	1	3
542.985	1	-3
543.155	1	-2
543.325	1	1
543.495	1	-7
543.665	1	10
543.835	1	4
544.005	1	16
544.175	1	-9
544.345	1	0
544.515	1	0
544.685	1	4
544.855	1	-1
545.025	1	-3
545.195	1	3
545.365	1	3
545.535	1	11
545.705	1	3
545.875	1	2
546.045	1	2
546.216	1	12
546.386	1	-9
546.556	1	-14
546.726	1	-1
546.896	1	-1
547.066	1	3
547.236	1	0
547.406	1	-10
547.576	1	6
547.746	1	-2
547.916	1	-6
548.086	1	-5
548.256	1	-4
548.426	1	-2
548.596	1	0
548.766	1	2
548.936	1	11
549.106	1	-4
549.276	1	1
549.446	1	-5
549.616	1	4
549.786	1	4
549.956	1	1
550.126	1	4
550.296	1	-9
550.466	1	3
550.636	1	-3
550.806	1	-8
550.976	1	-3
551.146	1	5
551.316	1	7
551.486	1	-2
551.656	1	1
551.826	1	3
551.996	1	8
552.166	1	16
552.336	1	6
552.506	1	5
552.676	1	9
552.846	1	-1
553.016	1	-2
553.186	1	-5
553.356	1	7
553.526	1	-3
553.696	1	-3
553.866	1	-19
554.036	1	8
554.206	1	2
554.376	1	13
554.546	1	5
554.716	1	5
554.886	1	-7
555.056	1	1
555.226	1	1
555.396	1	-5
555.566	1	9
555.736	1	3
555.906	1	3
556.076	1	-1
556.246	1	-2
556.416	1	9
556.586	1	4
556.756	1	-5
556.926	1	2
557.096	1	2
557.266	1	-2
557.436	1	1
557.606	1	0
557.776	1	1
557.946	1	4
558.116	1	-4
558.286	1	9
558.456	1	2
558.626	1	-3
558.796	1	3
558.966	1	-2
559.136	1	5
559.306	1	13
559.476	1	-7
559.646	1	5
559.816	1	8
559.986	1	-1
560.155	1	7
560.325	1	-6
560.495	1	-2
560.665	1	0
560.835	1	2
561.005	1	3
561.175	1	4
561.345	1	2
561.515	1	4
561.685	1	2
561.855	1	-13
562.025	1	-7
562.195	1	2
562.365	1	-2
562.535	1	2
562.705	1	4
562.875	1	7
563.045	1	-6
563.215	1	8
563.385	1	3
563.555	1	6
563.725	1	-6
563.895	1	5
564.064	1	4
564.234	1	11
564.404	1	-5
564.574	1	9
564.744	1	6
564.914	1	3
565.084	1	0
565.254	1	-8
565.424	1	-10
565.594	1	2
565.764	1	-2
565.934	1	2
566.104	1	-7
566.274	1	3
566.444	1	13
566.614	1	-2
566.783	1	11
566.953	1	-1
567.123	1	-8
567.293	1	7
567.463	1	1
567.633	1	-12
567.803	1	10
567.973	1	2
568.143	1	13
568.313	1	-6
568.483	1	1
568.653	1	-1
568.823	1	-8
568.993	1	-3
569.162	1	9
569.332	1	7
569.502	1	3
569.672	1	-12
569.842	1	0
570.012	1	-2
570.182	1	-3
570.352	1	-3
570.522	1	-23
570.692	1	10
570.862	1	15
571.031	1	4
571.201	1	5
571.371	1	1
571.541	1	-2
571.711	1	-4
571.881	1	1
572.051	1	4
572.221	1	-11
572.391	1	-2
572.561	1	7
572.731	1	2
572.900	1	-3
573.070	1	-3
573.240	1	-5
573.410	1	-5
573.580	1	-4
573.750	1	1
573.920	1	9
574.090	1	-6
574.260	1	-3
574.430	1	2
574.599	1	10
574.769	1	-2
574.939	1	11
575.109	1	14
575.279	1	-6
575.449	1	11
575.619	1	5
575.789	1	11
575.959	1	-2
576.128	1	3
576.298	1	3
576.468	1	-4
576.638	1	-2
576.808	1	2
576.978	1	4
577.148	1	6
577.318	1	7
577.487	1	7
577.657	1	10
577.827	1	-11
577.997	1	1
578.167	1	6
578.337	1	-5
578.507	1	0
578.677	1	10
578.846	1	-1
579.016	1	-3
579.186	1	-5
579.356	1	11
579.526	1	13
579.696	1	3
579.866	1	11
580.036	1	-6
580.205	1	-6
580.375	1	-4
580.545	1	8
580.715	1	10
580.885	1	6
581.055	1	-3
581.225	1	-14
581.394	1	-2
581.564	1	0
581.734	1	8
581.904	1	10
582.074	1	-2
582.244	1	-6
582.414	1	-5
582.583	1	12
582.753	1	-1
582.923	1	-3
583.093	1	1
583.263	1	8
583.433	1	12
583.603	1	-9
583.772	1	6
583.942	1	-5
584.112	1	4
584.282	1	4
584.452	1	15
584.622	1	-1
584.791	1	7
584.961	1	1
585.131	1	12
585.301	1	3
585.471	1	-3
585.641	1	-3
585.811	1	-8
585.980	1	0
586.150	1	6
586.320	1	4
586.490	1	-4
586.660	1	-7
586.830	1	-8
586.999	1	-2
587.169	1	1
587.339	1	7
587.509	1	5
587.679	1	0
587.849	1	2
588.018	1	11
588.188	1	10
588.358	1	-3
588.528	1	7
588.698	1	5
588.867	1	-2
589.037	1	-8
589.207	1	-2
589.377	1	8
589.547	1	-8
589.717	1	-1
589.886	1	2
590.056	1	8
590.226	1	4
590.396	1	3
590.566	1	3
590.735	1	2
590.905	1	16
591.075	1	8
591.245	1	8
591.415	1	1
591.585	1	7
591.754	1	3
591.924	1	-9
592.094	1	-14
592.264	1	1
592.434	1	7
592.603	1	1
592.773	1	7
592.943	1	5
593.113	1	6
593.283	1	-3
593.452	1	5
593.622	1	-6
593.792	1	-16
593.962	1	-10
594.132	1	-7
594.301	1	-5
594.471	1	-1
594.641	1	5
594.811	1	-3
594.981	1	-10
595.150	1	-2
595.320	1	7
595.490	1	0
595.660	1	-3
595.829	1	-3
595.999	1	14
596.169	1	2
596.339	1	10
596.509	1	-1
596.678	1	-1
596.848	1	7
597.018	1	1
597.188	1	4
597.358	1	-4
597.527	1	-2
597.697	1	4
597.867	1	-5
598.037	1	8
598.206	1	6
598.376	1	1
598.546	1	-1
598.716	1	-1
598.885	1	6
599.055	1	2
599.225	1	5
599.395	1	-7
599.565	1	4
599.734	1	3
599.904	1	0
600.074	1	3
600.244	1	-4
600.413	1	7
600.583	1	-4
600.753	1	7
600.923	1	6
601.092	1	8
601.262	1	-1
601.432	1	-2
601.602	1	-1
601.771	1	5
601.941	1	-3
602.111	1	-2
602.281	1	6
602.451	1	5
602.620	1	-2
602.790	1	-1
602.960	1	3
603.130	1	10
603.299	1	-2
603.469	1	10
603.639	1	-3
603.809	1	7
603.978	1	4
604.148	1	9
604.318	1	-11
604.487	1	11
604.657	1	-12
604.827	1	4
604.997	1	14
605.166	1	8
605.336	1	2
605.506	1	10
605.676	1	3
605.845	1	0
606.015	1	2
606.185	1	7
606.355	1	7
606.524	1	2
606.694	1	-2
606.864	1	13
607.034	1	8
607.203	1	5
607.373	1	-2
607.543	1	-3
607.712	1	11
607.882	1	14
608.052	1	4
608.222	1	-5
608.391	1	9
608.561	1	-7
608.731	1	-2
608.901	1	5
609.070	1	8
609.240	1	-6
609.410	1	8
609.579	1	6
609.749	1	9
609.919	1	3
610.089	1	-5
610.258	1	-9
610.428	1	6
610.598	1	4
610.767	1	7
610.937	1	7
611.107	1	1
611.277	1	1
611.446	1	2
611.616	1	-10
611.786	1	5
611.955	1	-2
612.125	1	4
612.295	1	6
612.465	1	-6
612.634	1	-1
612.804	1	6
612.974	1	0
613.143	1	-3
613.313	1	5
613.483	1	5
613.652	1	-16
613.822	1	6
613.992	1	5
614.162	1	8
614.331	1	5
614.501	1	10
614.671	1	1
614.840	1	0
615.010	1	0
615.180	1	6
615.349	1	5
615.519	1	-1
615.689	1	12
615.858	1	-4
616.028	1	5
616.198	1	12
616.368	1	5
616.537	1	5
616.707	1	3
616.877	1	2
617.046	1	11
617.216	1	5
617.386	1	-4
617.555	1	-5
617.725	1	2
617.895	1	7
618.064	1	5
618.234	1	6
618.404	1	-3
618.573	1	0
618.743	1	7
618.913	1	9
619.082	1	1
619.252	1	-10
619.422	1	-3
619.591	1	-4
619.761	1	9
619.931	1	-11
620.100	1	-2
620.270	1	3
620.440	1	-2
620.609	1	-4
620.779	1	6
620.949	1	6
621.118	1	0
621.288	1	-11
621.458	1	2
621.627	1	4
621.797	1	-1
621.967	1	4
622.136	1	-5
622.306	1	5
622.476	1	8
622.645	1	8
622.815	1	-2
622.985	1	-1
623.154	1	0
623.324	1	-13
623.494	1	10
623.663	1	-2
623.833	1	7
624.002	1	8
624.172	1	4
624.342	1	7
624.511	1	1
624.681	1	-1
624.851	1	2
625.020	1	5
625.190	1	-1
625.360	1	6
625.529	1	1
625.699	1	3
625.869	1	4
626.038	1	2
626.208	1	6
626.377	1	12
626.547	1	2
626.717	1	1
626.886	1	3
627.056	1	2
627.226	1	2
627.395	1	-10
627.565	1	1
627.735	1	10
627.904	1	4
628.074	1	1
628.243	1	10
628.413	1	5
628.583	1	-6
628.752	1	6
628.922	1	-1
629.091	1	-8
629.261	1	-14
629.431	1	0
629.600	1	1
629.770	1	7
629.940	1	6
630.109	1	8
630.279	1	12
630.448	1	7
630.618	1	-3
630.788	1	2
630.957	1	7
631.127	1	-4
631.297	1	-4
631.466	1	8
631.636	1	1
631.805	1	10
631.975	1	2
632.145	1	-3
632.314	1	-7
632.484	1	-6
632.653	1	2
632.823	1	-5
632.993	1	-3
633.162	1	5
633.332	1	-3
633.501	1	8
633.671	1	-7
633.841	1	11
634.010	1	-3
634.180	1	14
634.349	1	4
634.519	1	3
634.689	1	9
634.858	1	9
635.028	1	8
635.197	1	-2
635.367	1	4
635.537	1	-6
635.706	1	5
635.876	1	5
636.045	1	15
636.215	1	1
636.384	1	-4
636.554	1	10
636.724	1	3
636.893	1	1
637.063	1	3
637.232	1	-7
637.402	1	-9
637.572	1	-8
637.741	1	10
637.911	1	4
638.080	1	12
638.250	1	13
638.419	1	5
638.589	1	1
638.759	1	0
638.928	1	-8
639.098	1	2
639.267	1	10
639.437	1	2
639.606	1	6
639.776	1	2
639.946	1	3
640.115	1	3
640.285	1	5
640.454	1	3
640.624	1	-9
640.793	1	-6
640.963	1	-10
641.132	1	11
641.302	1	16
641.472	1	-2
641.641	1	2
641.811	1	4
641.980	1	0
642.150	1	-12
642.319	1	10
642.489	1	-8
642.659	1	-7
642.828	1	-8
642.998	1	11
643.167	1	2
643.337	1	-3
643.506	1	13
643.676	1	3
643.845	1	-10
644.015	1	4
644.184	1	2
644.354	1	-3
644.524	1	-4
644.693	1	1
644.863	1	3
645.032	1	-4
645.202	1	5
645.371	1	7
645.541	1	-8
645.710	1	10
645.880	1	6
646.049	1	-9
646.219	1	2
646.388	1	7
646.558	1	4
646.728	1	9
646.897	1	2
647.067	1	1
647.236	1	-6
647.406	1	1
647.575	1	4
647.745	1	1
647.914	1	-3
648.084	1	-2
648.253	1	4
648.423	1	9
648.592	1	-5
648.762	1	11
648.931	1	-6
649.101	1	-6
649.270	1	-8
649.440	1	4
649.610	1	1
649.779	1	3
649.949	1	4
650.118	1	-7
650.288	1	0
650.457	1	-8
650.627	1	2
650.796	1	-6
650.966	1	0
651.135	1	4
651.305	1	0
651.474	1	3
651.644	1	-1
651.813	1	4
651.983	1	-4
652.152	1	5
652.322	1	-2
652.491	1	-1
652.661	1	-3
652.830	1	7
653.000	1	4
653.169	1	1
653.339	1	8
653.508	1	4
653.678	1	-5
653.847	1	0
654.017	1	-5
654.186	1	-10
654.356	1	-4
654.525	1	6
654.695	1	-2
654.864	1	-6
655.034	1	5
655.203	1	7
655.373	1	-1
655.542	1	-1
655.712	1	0
655.881	1	2
656.051	1	4
656.220	1	-3
656.390	1	3
656.559	1	5
656.729	1	11
656.898	1	6
657.068	1	-4
657.237	1	3
657.406	1	2
657.576	1	4
657.745	1	-2
657.915	1	12
658.084	1	4
658.254	1	2
658.423	1	7
658.593	1	8
658.762	1	16
658.932	1	10
659.101	1	5
659.271	1	0
659.440	1	-15
659.610	1	-6
659.779	1	0
659.949	1	-2
660.118	1	-3
660.288	1	1
660.457	1	-8
660.626	1	4
660.796	1	-2
660.965	1	5
661.135	1	11
661.304	1	4
661.474	1	-2
661.643	1	-1
661.813	1	0
661.982	1	-7
662.152	1	5
662.321	1	-1
662.491	1	15
662.660	1	2
662.829	1	4
662.999	1	-3
663.168	1	0
663.338	1	-3
663.507	1	-1
663.677	1	-1
663.846	1	-1
664.016	1	3
664.185	1	4
664.354	1	7
664.524	1	-11
664.693	1	4
664.863	1	5
665.032	1	7
665.202	1	4
665.371	1	-4
665.541	1	-3
665.710	1	7
665.879	1	-4
666.049	1	0
666.218	1	-8
666.388	1	10
666.557	1	3
666.727	1	-10
666.896	1	5
667.065	1	5
667.235	1	6
667.404	1	8
667.574	1	9
667.743	1	-6
667.913	1	-1
668.082	1	12
668.251	1	-1
668.421	1	-3
668.590	1	-5
668.760	1	6
668.929	1	6
669.099	1	-12
669.268	1	1
669.437	1	-6
669.607	1	6
669.776	1	0
669.946	1	14
670.115	1	13
670.285	1	-3
670.454	1	-7
670.623	1	16
670.793	1	-11
670.962	1	-3
671.132	1	5
671.301	1	5
671.470	1	12
671.640	1	-4
671.809	1	-1
671.979	1	5
672.148	1	8
672.317	1	-2
672.487	1	-5
672.656	1	-1
672.826	1	5
672.995	1	8
673.164	1	4
673.334	1	-5
673.503	1	1
673.673	1	7
673.842	1	-5
674.011	1	-8
674.181	1	18
674.350	1	7
674.520	1	-2
674.689	1	11
674.858	1	-3
675.028	1	14
675.197	1	-5
675.367	1	-7
675.536	1	6
675.705	1	17
675.875	1	3
676.044	1	0
676.214	1	9
676.383	1	11
676.552	1	3
676.722	1	-3
676.891	1	-4
677.060	1	4
677.230	1	11
677.399	1	-4
677.569	1	2
677.738	1	5
677.907	1	-1
678.077	1	4
678.246	1	8
678.416	1	-6
678.585	1	-2
678.754	1	1
678.924	1	3
679.093	1	3
679.262	1	2
679.432	1	4
679.601	1	7
679.771	1	10
679.940	1	6
680.109	1	-3
680.279	1	-5
680.448	1	3
680.617	1	-2
680.787	1	11
680.956	1	6
681.125	1	13
681.295	1	2
681.464	1	5
681.634	1	4
681.803	1	-4
681.972	1	6
682.142	1	-8
682.311	1	-9
682.480	1	4
682.650	1	6
682.819	1	6
682.988	1	-1
683.158	1	-5
683.327	1	-6
683.496	1	-3
683.666	1	8
683.835	1	-6
684.004	1	6
684.174	1	4
684.343	1	10
684.512	1	14
684.682	1	0
684.851	1	-2
685.021	1	3
685.190	1	-9
685.359	1	-6
685.529	1	-7
685.698	1	-1
685.867	1	-3
686.037	1	11
686.206	1	5
686.375	1	8
686.545	1	4
686.714	1	-13
686.883	1	-6
687.053	1	-2
687.222	1	-2
687.391	1	8
687.561	1	8
687.730	1	-6
687.899	1	3
688.069	1	1
688.238	1	17
688.407	1	5
688.577	1	5
688.746	1	4
