340.368	1	4
340.539	1	11
340.710	1	3
340.881	1	10
341.052	1	-5
341.223	1	1
341.394	1	3
341.565	1	9
341.737	1	10
341.908	1	6
342.079	1	5
342.250	1	13
342.421	1	5
342.592	1	6
342.763	1	12
342.934	1	4
343.105	1	5
343.276	1	2
343.447	1	10
343.618	1	4
343.789	1	6
343.960	1	-2
344.131	1	7
344.302	1	10
344.473	1	10
344.644	1	6
344.815	1	0
344.986	1	13
345.157	1	-4
345.328	1	16
345.499	1	-4
345.670	1	9
345.841	1	-5
346.012	1	6
346.183	1	11
346.354	1	3
346.526	1	5
346.697	1	10
346.868	1	1
347.039	1	3
347.210	1	9
347.381	1	2
347.552	1	0
347.723	1	14
347.894	1	0
348.065	1	11
348.236	1	-1
348.407	1	2
348.578	1	-1
348.749	1	10
348.920	1	9
349.091	1	1
349.262	1	7
349.433	1	13
349.604	1	10
349.775	1	3
349.946	1	10
350.117	1	16
350.288	1	4
350.459	1	0
350.630	1	15
350.801	1	6
350.972	1	10
351.143	1	11
351.314	1	7
351.485	1	10
351.656	1	12
351.827	1	11
351.998	1	4
352.169	1	5
352.340	1	13
352.511	1	9
352.682	1	2
352.853	1	23
353.024	1	2
353.195	1	4
353.366	1	9
353.537	1	3
353.708	1	1
353.879	1	0
354.050	1	12
354.221	1	9
354.392	1	8
354.563	1	-2
354.734	1	13
354.905	1	15
355.076	1	6
355.247	1	1
355.418	1	9
355.589	1	8
355.760	1	12
355.931	1	13
356.102	1	1
356.273	1	21
356.444	1	7
356.615	1	18
356.785	1	22
356.956	1	22
357.127	1	14
357.298	1	7
357.469	1	9
357.640	1	6
357.811	1	15
357.982	1	19
358.153	1	3
358.324	1	19
358.495	1	27
358.666	1	22
358.837	1	15
359.008	1	13
359.179	1	18
359.350	1	13
359.521	1	18
359.692	1	23
359.863	1	22
360.034	1	27
360.205	1	27
360.376	1	28
360.547	1	20
360.718	1	29
360.889	1	13
361.060	1	18
361.231	1	23
361.401	1	23
361.572	1	43
361.743	1	44
361.914	1	46
362.085	1	38
362.256	1	31
362.427	1	45
362.598	1	39
362.769	1	39
362.940	1	39
363.111	1	63
363.282	1	46
363.453	1	44
363.624	1	60
363.795	1	47
363.966	1	67
364.137	1	59
364.308	1	81
364.478	1	65
364.649	1	74
364.820	1	72
364.991	1	76
365.162	1	72
365.333	1	87
365.504	1	88
365.675	1	82
365.846	1	87
366.017	1	88
366.188	1	87
366.359	1	93
366.530	1	96
366.701	1	86
366.871	1	111
367.042	1	114
367.213	1	98
367.384	1	106
367.555	1	112
367.726	1	105
367.897	1	108
368.068	1	102
368.239	1	111
368.410	1	99
368.581	1	121
368.752	1	107
368.923	1	111
369.093	1	102
369.264	1	90
369.435	1	97
369.606	1	103
369.777	1	94
369.948	1	90
370.119	1	94
370.290	1	100
370.461	1	91
370.632	1	70
370.803	1	93
370.973	1	75
371.144	1	86
371.315	1	86
371.486	1	83
371.657	1	63
371.828	1	81
371.999	1	58
372.170	1	67
372.341	1	79
372.512	1	60
372.682	1	70
372.853	1	61
373.024	1	57
373.195	1	58
373.366	1	55
373.537	1	60
373.708	1	71
373.879	1	65
374.050	1	68
374.220	1	48
374.391	1	65
374.562	1	46
374.733	1	45
374.904	1	47
375.075	1	60
375.246	1	52
375.417	1	41
375.588	1	49
375.758	1	41
375.929	1	35
376.100	1	43
376.271	1	42
376.442	1	47
376.613	1	47
376.784	1	42
376.955	1	40
377.125	1	46
377.296	1	32
377.467	1	37
377.638	1	32
377.809	1	28
377.980	1	31
378.151	1	29
378.321	1	32
378.492	1	33
378.663	1	38
378.834	1	40
379.005	1	35
379.176	1	38
379.347	1	32
379.518	1	34
379.688	1	32
379.859	1	36
380.030	1	28
380.201	1	32
380.372	1	35
380.543	1	29
380.714	1	36
380.884	1	28
381.055	1	36
381.226	1	26
381.397	1	28
381.568	1	27
381.739	1	23
381.910	1	33
382.080	1	14
382.251	1	21
382.422	1	37
382.593	1	28
382.764	1	24
382.935	1	37
383.105	1	29
383.276	1	23
383.447	1	36
383.618	1	32
383.789	1	32
383.960	1	30
384.130	1	31
384.301	1	39
384.472	1	30
384.643	1	32
384.814	1	20
384.985	1	36
385.156	1	28
385.326	1	23
385.497	1	22
385.668	1	35
385.839	1	26
386.010	1	15
386.180	1	27
386.351	1	12
386.522	1	12
386.693	1	17
386.864	1	34
387.035	1	33
387.205	1	24
387.376	1	17
387.547	1	22
387.718	1	27
387.889	1	6
388.060	1	23
388.230	1	14
388.401	1	27
388.572	1	19
388.743	1	20
388.914	1	23
389.084	1	23
389.255	1	17
389.426	1	19
389.597	1	5
389.768	1	8
389.939	1	21
390.109	1	23
390.280	1	28
390.451	1	19
390.622	1	30
390.793	1	22
390.963	1	23
391.134	1	20
391.305	1	14
391.476	1	17
391.647	1	17
391.817	1	25
391.988	1	19
392.159	1	18
392.330	1	20
392.501	1	19
392.671	1	7
392.842	1	17
393.013	1	17
393.184	1	20
393.355	1	20
393.525	1	17
393.696	1	8
393.867	1	25
394.038	1	20
394.208	1	5
394.379	1	14
394.550	1	23
394.721	1	24
394.892	1	15
395.062	1	4
395.233	1	8
395.404	1	13
395.575	1	19
395.746	1	15
395.916	1	27
396.087	1	22
396.258	1	11
396.429	1	26
396.599	1	20
396.770	1	16
396.941	1	9
397.112	1	17
397.283	1	19
397.453	1	21
397.624	1	18
397.795	1	13
397.966	1	14
398.136	1	17
398.307	1	24
398.478	1	14
398.649	1	11
398.819	1	4
398.990	1	17
399.161	1	23
399.332	1	21
399.503	1	24
399.673	1	18
399.844	1	7
400.015	1	9
400.186	1	11
400.356	1	15
400.527	1	26
400.698	1	13
400.869	1	15
401.039	1	10
401.210	1	6
401.381	1	12
401.552	1	17
401.722	1	10
401.893	1	5
402.064	1	6
402.235	1	16
402.405	1	16
402.576	1	12
402.747	1	20
402.918	1	23
403.088	1	15
403.259	1	-1
403.430	1	16
403.601	1	15
403.771	1	18
403.942	1	5
404.113	1	5
404.284	1	10
404.454	1	18
404.625	1	20
404.796	1	11
404.967	1	15
405.137	1	20
405.308	1	13
405.479	1	11
405.649	1	9
405.820	1	12
405.991	1	13
406.162	1	2
406.332	1	18
406.503	1	13
406.674	1	23
406.845	1	11
407.015	1	7
407.186	1	11
407.357	1	18
407.527	1	18
407.698	1	10
407.869	1	17
408.040	1	19
408.210	1	21
408.381	1	15
408.552	1	6
408.722	1	9
408.893	1	12
409.064	1	10
409.235	1	8
409.405	1	17
409.576	1	12
409.747	1	3
409.917	1	-3
410.088	1	14
410.259	1	3
410.430	1	26
410.600	1	17
410.771	1	-5
410.942	1	11
411.112	1	22
411.283	1	0
411.454	1	13
411.625	1	17
411.795	1	13
411.966	1	12
412.137	1	-4
412.307	1	9
412.478	1	8
412.649	1	13
412.819	1	11
412.990	1	15
413.161	1	21
413.332	1	-2
413.502	1	21
413.673	1	8
413.844	1	15
414.014	1	17
414.185	1	20
414.356	1	18
414.526	1	3
414.697	1	12
414.868	1	6
415.038	1	12
415.209	1	12
415.380	1	14
415.550	1	17
415.721	1	12
415.892	1	14
416.063	1	10
416.233	1	16
416.404	1	22
416.575	1	12
416.745	1	11
416.916	1	0
417.087	1	-1
417.257	1	10
417.428	1	4
417.599	1	16
417.769	1	6
417.940	1	12
418.111	1	8
418.281	1	9
418.452	1	12
418.623	1	12
418.793	1	4
418.964	1	1
419.135	1	12
419.305	1	16
419.476	1	7
419.647	1	13
419.817	1	5
419.988	1	10
420.159	1	5
420.329	1	24
420.500	1	14
420.671	1	9
420.841	1	11
421.012	1	13
421.183	1	9
421.353	1	5
421.524	1	8
421.695	1	9
421.865	1	7
422.036	1	8
422.206	1	10
422.377	1	12
422.548	1	15
422.718	1	-3
422.889	1	11
423.060	1	17
423.230	1	6
423.401	1	9
423.572	1	-4
423.742	1	9
423.913	1	3
424.084	1	9
424.254	1	18
424.425	1	9
424.595	1	12
424.766	1	14
424.937	1	8
425.107	1	16
425.278	1	-2
425.449	1	11
425.619	1	8
425.790	1	14
425.961	1	14
426.131	1	19
426.302	1	10
426.472	1	11
426.643	1	6
426.814	1	9
426.984	1	5
427.155	1	1
427.326	1	-4
427.496	1	9
427.667	1	17
427.837	1	16
428.008	1	-5
428.179	1	10
428.349	1	13
428.520	1	20
428.691	1	5
428.861	1	0
429.032	1	-1
429.202	1	9
429.373	1	11
429.544	1	16
429.714	1	6
429.885	1	10
430.055	1	10
430.226	1	1
430.397	1	5
430.567	1	4
430.738	1	1
430.909	1	5
431.079	1	30
431.250	1	10
431.420	1	2
431.591	1	3
431.762	1	1
431.932	1	10
432.103	1	-1
432.273	1	4
432.444	1	11
432.615	1	13
432.785	1	1
432.956	1	-5
433.126	1	7
433.297	1	13
433.468	1	7
433.638	1	6
433.809	1	13
433.979	1	11
434.150	1	13
434.320	1	10
434.491	1	3
434.662	1	-4
434.832	1	3
435.003	1	23
435.173	1	9
435.344	1	6
435.515	1	6
435.685	1	-4
435.856	1	-3
436.026	1	6
436.197	1	8
436.368	1	1
436.538	1	9
436.709	1	2
436.879	1	5
437.050	1	4
437.220	1	3
437.391	1	21
437.562	1	13
437.732	1	1
437.903	1	13
438.073	1	12
438.244	1	11
438.414	1	-3
438.585	1	8
438.756	1	15
438.926	1	8
439.097	1	9
439.267	1	2
439.438	1	12
439.608	1	3
439.779	1	8
439.949	1	7
440.120	1	11
440.291	1	12
440.461	1	22
440.632	1	6
440.802	1	9
440.973	1	11
441.143	1	2
441.314	1	9
441.485	1	8
441.655	1	18
441.826	1	3
441.996	1	11
442.167	1	11
442.337	1	4
442.508	1	7
442.678	1	0
442.849	1	13
443.019	1	15
443.190	1	8
443.361	1	9
443.531	1	2
443.702	1	4
443.872	1	6
444.043	1	5
444.213	1	4
444.384	1	0
444.554	1	3
444.725	1	11
444.895	1	5
445.066	1	9
445.237	1	-8
445.407	1	-1
445.578	1	-1
445.748	1	12
445.919	1	2
446.089	1	11
446.260	1	11
446.430	1	7
446.601	1	13
446.771	1	14
446.942	1	9
447.112	1	8
447.283	1	12
447.453	1	2
447.624	1	14
447.794	1	15
447.965	1	-3
448.135	1	5
448.306	1	8
448.477	1	7
448.647	1	22
448.818	1	9
448.988	1	11
449.159	1	12
449.329	1	-2
449.500	1	2
449.670	1	3
449.841	1	-2
450.011	1	-9
450.182	1	17
450.352	1	13
450.523	1	16
450.693	1	5
450.864	1	-4
451.034	1	3
451.205	1	4
451.375	1	6
451.546	1	1
451.716	1	-4
451.887	1	-5
452.057	1	13
452.228	1	10
452.398	1	-4
452.569	1	12
452.739	1	8
452.910	1	8
453.080	1	8
453.251	1	12
453.421	1	-1
453.592	1	8
453.762	1	13
453.933	1	6
454.103	1	-1
454.274	1	-1
454.444	1	4
454.615	1	-4
454.785	1	9
454.956	1	1
455.126	1	2
455.297	1	7
455.467	1	1
455.638	1	15
455.808	1	11
455.979	1	9
456.149	1	-2
456.320	1	5
456.490	1	11
456.661	1	0
456.831	1	1
457.001	1	3
457.172	1	1
457.342	1	7
457.513	1	8
457.683	1	16
457.854	1	10
458.024	1	15
458.195	1	-8
458.365	1	5
458.536	1	10
458.706	1	12
458.877	1	17
459.047	1	-3
459.218	1	5
459.388	1	3
459.559	1	5
459.729	1	-1
459.899	1	4
460.070	1	7
460.240	1	19
460.411	1	8
460.581	1	0
460.752	1	10
460.922	1	4
461.093	1	17
461.263	1	19
461.434	1	10
461.604	1	-3
461.775	1	6
461.945	1	10
462.115	1	7
462.286	1	9
462.456	1	8
462.627	1	-4
462.797	1	1
462.968	1	3
463.138	1	5
463.309	1	11
463.479	1	11
463.649	1	-2
463.820	1	2
463.990	1	6
464.161	1	-7
464.331	1	12
464.502	1	4
464.672	1	10
464.843	1	6
465.013	1	-4
465.183	1	7
465.354	1	13
465.524	1	9
465.695	1	15
465.865	1	-2
466.036	1	6
466.206	1	8
466.376	1	13
466.547	1	-3
466.717	1	2
466.888	1	11
467.058	1	7
467.229	1	0
467.399	1	-7
467.569	1	5
467.740	1	6
467.910	1	-1
468.081	1	19
468.251	1	14
468.422	1	10
468.592	1	5
468.762	1	2
468.933	1	7
469.103	1	4
469.274	1	10
469.444	1	4
469.614	1	7
469.785	1	9
469.955	1	2
470.126	1	-3
470.296	1	5
470.467	1	6
470.637	1	9
470.807	1	8
470.978	1	-3
471.148	1	9
471.319	1	9
471.489	1	1
471.659	1	2
471.830	1	12
472.000	1	11
472.171	1	-2
472.341	1	-2
472.511	1	-3
472.682	1	15
472.852	1	24
473.023	1	13
473.193	1	-2
473.363	1	10
473.534	1	4
473.704	1	4
473.875	1	18
474.045	1	8
474.215	1	1
474.386	1	10
474.556	1	19
474.727	1	16
474.897	1	4
475.067	1	3
475.238	1	11
475.408	1	9
475.578	1	5
475.749	1	5
475.919	1	-3
476.090	1	12
476.260	1	7
476.430	1	20
476.601	1	-1
476.771	1	-1
476.942	1	3
477.112	1	6
477.282	1	14
477.453	1	6
477.623	1	-1
477.793	1	-3
477.964	1	9
478.134	1	14
478.305	1	13
478.475	1	6
478.645	1	10
478.816	1	12
478.986	1	-4
479.156	1	7
479.327	1	-1
479.497	1	6
479.667	1	9
479.838	1	8
480.008	1	6
480.179	1	4
480.349	1	7
480.519	1	1
480.690	1	9
480.860	1	18
481.030	1	-2
481.201	1	5
481.371	1	17
481.541	1	16
481.712	1	0
481.882	1	15
482.053	1	7
482.223	1	6
482.393	1	10
482.564	1	5
482.734	1	19
482.904	1	15
483.075	1	17
483.245	1	0
483.415	1	9
483.586	1	6
483.756	1	5
483.926	1	11
484.097	1	9
484.267	1	15
484.437	1	4
484.608	1	23
484.778	1	11
484.948	1	10
485.119	1	11
485.289	1	10
485.459	1	-3
485.630	1	2
485.800	1	19
485.970	1	8
486.141	1	16
486.311	1	25
486.481	1	9
486.652	1	9
486.822	1	18
486.992	1	9
487.163	1	0
487.333	1	1
487.503	1	0
487.674	1	17
487.844	1	10
488.014	1	18
488.185	1	8
488.355	1	22
488.525	1	7
488.696	1	11
488.866	1	8
489.036	1	7
489.207	1	11
489.377	1	4
489.547	1	7
489.718	1	23
489.888	1	23
490.058	1	7
490.228	1	12
490.399	1	13
490.569	1	8
490.739	1	16
490.910	1	-2
491.080	1	11
491.250	1	18
491.421	1	25
491.591	1	12
491.761	1	14
491.932	1	14
492.102	1	18
492.272	1	10
492.442	1	10
492.613	1	7
492.783	1	3
492.953	1	13
493.124	1	13
493.294	1	18
493.464	1	17
493.635	1	18
493.805	1	10
493.975	1	22
494.145	1	5
494.316	1	20
494.486	1	26
494.656	1	12
494.827	1	17
494.997	1	14
495.167	1	26
495.337	1	13
495.508	1	3
495.678	1	7
495.848	1	9
496.019	1	11
496.189	1	12
496.359	1	25
496.529	1	22
496.700	1	14
496.870	1	17
497.040	1	30
497.211	1	14
497.381	1	13
497.551	1	31
497.721	1	18
497.892	1	14
498.062	1	11
498.232	1	18
498.403	1	20
498.573	1	17
498.743	1	29
498.913	1	17
499.084	1	33
499.254	1	12
499.424	1	7
499.594	1	21
499.765	1	7
499.935	1	25
500.105	1	18
500.275	1	31
500.446	1	24
500.616	1	23
500.786	1	33
500.956	1	15
501.127	1	12
501.297	1	16
501.467	1	21
501.638	1	21
501.808	1	14
501.978	1	11
502.148	1	27
502.319	1	23
502.489	1	22
502.659	1	22
502.829	1	18
503.000	1	19
503.170	1	18
503.340	1	19
503.510	1	24
503.681	1	19
503.851	1	17
504.021	1	24
504.191	1	19
504.362	1	31
504.532	1	26
504.702	1	25
504.872	1	22
505.042	1	20
505.213	1	22
505.383	1	31
505.553	1	27
505.723	1	27
505.894	1	39
506.064	1	35
506.234	1	20
506.404	1	19
506.575	1	20
506.745	1	22
506.915	1	21
507.085	1	32
507.256	1	37
507.426	1	31
507.596	1	31
507.766	1	31
507.936	1	23
508.107	1	34
508.277	1	25
508.447	1	38
508.617	1	17
508.788	1	28
508.958	1	33
509.128	1	31
509.298	1	30
509.468	1	26
509.639	1	40
509.809	1	26
509.979	1	26
510.149	1	29
510.319	1	44
510.490	1	36
510.660	1	25
510.830	1	39
511.000	1	33
511.171	1	52
511.341	1	33
511.511	1	36
511.681	1	37
511.851	1	32
512.022	1	34
512.192	1	28
512.362	1	30
512.532	1	35
512.702	1	34
512.873	1	32
513.043	1	38
513.213	1	43
513.383	1	35
513.553	1	32
513.724	1	30
513.894	1	36
514.064	1	35
514.234	1	41
514.404	1	40
514.575	1	28
514.745	1	35
514.915	1	28
515.085	1	45
515.255	1	36
515.425	1	40
515.596	1	34
515.766	1	38
515.936	1	41
516.106	1	33
516.276	1	40
516.447	1	29
516.617	1	43
516.787	1	39
516.957	1	33
517.127	1	32
517.297	1	35
517.468	1	40
517.638	1	47
517.808	1	37
517.978	1	29
518.148	1	39
518.319	1	33
518.489	1	39
518.659	1	26
518.829	1	41
518.999	1	42
519.169	1	45
519.340	1	36
519.510	1	26
519.680	1	45
519.850	1	41
520.020	1	48
520.190	1	50
520.361	1	38
520.531	1	42
520.701	1	39
520.871	1	37
521.041	1	52
521.211	1	37
521.382	1	52
521.552	1	39
521.722	1	44
521.892	1	47
522.062	1	44
522.232	1	27
522.402	1	43
522.573	1	36
522.743	1	46
522.913	1	44
523.083	1	49
523.253	1	44
523.423	1	45
523.593	1	43
523.764	1	35
523.934	1	39
524.104	1	40
524.274	1	27
524.444	1	38
524.614	1	48
524.784	1	57
524.955	1	48
525.125	1	37
525.295	1	48
525.465	1	47
525.635	1	37
525.805	1	28
525.975	1	48
526.146	1	32
526.316	1	45
526.486	1	42
526.656	1	43
526.826	1	42
526.996	1	42
527.166	1	42
527.337	1	47
527.507	1	42
527.677	1	36
527.847	1	42
528.017	1	41
528.187	1	43
528.357	1	43
528.527	1	54
528.698	1	40
528.868	1	31
529.038	1	38
529.208	1	30
529.378	1	44
529.548	1	23
529.718	1	51
529.888	1	39
530.058	1	40
530.229	1	49
530.399	1	48
530.569	1	53
530.739	1	49
530.909	1	51
531.079	1	37
531.249	1	43
531.419	1	46
531.589	1	46
531.760	1	31
531.930	1	49
532.100	1	51
532.270	1	49
532.440	1	44
532.610	1	44
532.780	1	40
532.950	1	37
533.120	1	46
533.290	1	43
533.461	1	39
533.631	1	43
533.801	1	48
533.971	1	39
534.141	1	50
534.311	1	46
534.481	1	41
534.651	1	43
534.821	1	38
534.991	1	43
535.162	1	49
535.332	1	43
535.502	1	49
535.672	1	50
535.842	1	45
536.012	1	46
536.182	1	46
536.352	1	42
536.522	1	34
536.692	1	39
536.862	1	40
537.032	1	44
537.203	1	42
537.373	1	38
537.543	1	51
537.713	1	37
537.883	1	31
538.053	1	19
538.223	1	50
538.393	1	49
538.563	1	40
538.733	1	42
538.903	1	53
539.073	1	46
539.243	1	38
539.413	1	39
539.584	1	46
539.754	1	28
539.924	1	43
540.094	1	40
540.264	1	46
540.434	1	44
540.604	1	40
540.774	1	40
540.944	1	40
541.114	1	29
541.284	1	39
541.454	1	43
541.624	1	40
541.794	1	43
541.964	1	22
542.134	1	35
542.305	1	32
542.475	1	48
542.645	1	24
542.815	1	38
542.985	1	41
543.155	1	37
543.325	1	37
543.495	1	25
543.665	1	39
543.835	1	33
544.005	1	47
544.175	1	39
544.345	1	35
544.515	1	35
544.685	1	41
544.855	1	32
545.025	1	32
545.195	1	30
545.365	1	45
545.535	1	52
545.705	1	30
545.875	1	50
546.045	1	31
546.216	1	46
546.386	1	27
546.556	1	27
546.726	1	37
546.896	1	36
547.066	1	34
547.236	1	28
547.406	1	27
547.576	1	43
547.746	1	39
547.916	1	36
548.086	1	26
548.256	1	18
548.426	1	24
548.596	1	40
548.766	1	36
548.936	1	35
549.106	1	28
549.276	1	28
549.446	1	28
549.616	1	38
549.786	1	46
549.956	1	31
550.126	1	45
550.296	1	34
550.466	1	40
550.636	1	29
550.806	1	37
550.976	1	26
551.146	1	36
551.316	1	27
551.486	1	35
551.656	1	37
551.826	1	42
551.996	1	36
552.166	1	35
552.336	1	32
552.506	1	31
552.676	1	33
552.846	1	30
553.016	1	29
553.186	1	35
553.356	1	43
553.526	1	39
553.696	1	31
553.866	1	17
554.036	1	26
554.206	1	33
554.376	1	47
554.546	1	40
554.716	1	29
554.886	1	28
555.056	1	41
555.226	1	40
555.396	1	25
555.566	1	22
555.736	1	29
555.906	1	29
556.076	1	9
556.246	1	31
556.416	1	38
556.586	1	24
556.756	1	25
556.926	1	29
557.096	1	36
557.266	1	22
557.436	1	31
557.606	1	30
557.776	1	28
557.946	1	36
558.116	1	20
558.286	1	54
558.456	1	23
558.626	1	8
558.796	1	42
558.966	1	18
559.136	1	22
559.306	1	23
559.476	1	21
559.646	1	18
559.816	1	32
559.986	1	21
560.155	1	11
560.325	1	24
560.495	1	18
560.665	1	31
560.835	1	28
561.005	1	24
561.175	1	17
561.345	1	25
561.515	1	23
561.685	1	15
561.855	1	18
562.025	1	18
562.195	1	20
562.365	1	18
562.535	1	19
562.705	1	19
562.875	1	24
563.045	1	13
563.215	1	21
563.385	1	15
563.555	1	35
563.725	1	21
563.895	1	29
564.064	1	36
564.234	1	24
564.404	1	40
564.574	1	31
564.744	1	22
564.914	1	26
565.084	1	11
565.254	1	22
565.424	1	12
565.594	1	13
565.764	1	30
565.934	1	10
566.104	1	17
566.274	1	38
566.444	1	25
566.614	1	20
566.783	1	28
566.953	1	12
567.123	1	35
567.293	1	22
567.463	1	23
567.633	1	17
567.803	1	32
567.973	1	11
568.143	1	20
568.313	1	21
568.483	1	25
568.653	1	14
568.823	1	11
568.993	1	18
569.162	1	25
569.332	1	24
569.502	1	23
569.672	1	21
569.842	1	10
570.012	1	22
570.182	1	14
570.352	1	13
570.522	1	7
570.692	1	30
570.862	1	27
571.031	1	20
571.201	1	11
571.371	1	14
571.541	1	14
571.711	1	17
571.881	1	17
572.051	1	22
572.221	1	20
572.391	1	15
572.561	1	10
572.731	1	21
572.900	1	12
573.070	1	16
573.240	1	11
573.410	1	14
573.580	1	18
573.750	1	13
573.920	1	37
574.090	1	13
574.260	1	23
574.430	1	18
574.599	1	21
574.769	1	11
574.939	1	18
575.109	1	17
575.279	1	5
575.449	1	24
575.619	1	13
575.789	1	17
575.959	1	27
576.128	1	6
576.298	1	13
576.468	1	10
576.638	1	11
576.808	1	18
576.978	1	10
577.148	1	16
577.318	1	16
577.487	1	23
577.657	1	25
577.827	1	8
577.997	1	13
578.167	1	27
578.337	1	13
578.507	1	12
578.677	1	22
578.846	1	15
579.016	1	14
579.186	1	17
579.356	1	15
579.526	1	10
579.696	1	19
579.866	1	20
580.036	1	12
580.205	1	9
580.375	1	7
580.545	1	13
580.715	1	14
580.885	1	24
581.055	1	17
581.225	1	5
581.394	1	18
581.564	1	16
581.734	1	13
581.904	1	16
582.074	1	14
582.244	1	3
582.414	1	2
582.583	1	21
582.753	1	14
582.923	1	15
583.093	1	16
583.263	1	6
583.433	1	22
583.603	1	14
583.772	1	11
583.942	1	1
584.112	1	22
584.282	1	6
584.452	1	19
584.622	1	2
584.791	1	24
584.961	1	8
585.131	1	20
585.301	1	18
585.471	1	18
585.641	1	20
585.811	1	8
585.980	1	9
586.150	1	20
586.320	1	11
586.490	1	8
586.660	1	1
586.830	1	10
586.999	1	5
587.169	1	10
587.339	1	19
587.509	1	13
587.679	1	18
587.849	1	14
588.018	1	11
588.188	1	14
588.358	1	10
588.528	1	19
588.698	1	22
588.867	1	24
589.037	1	8
589.207	1	6
589.377	1	21
589.547	1	5
589.717	1	7
589.886	1	14
590.056	1	2
590.226	1	20
590.396	1	17
590.566	1	10
590.735	1	13
590.905	1	17
591.075	1	15
591.245	1	6
591.415	1	20
591.585	1	13
591.754	1	4
591.924	1	11
592.094	1	12
592.264	1	15
592.434	1	14
592.603	1	9
592.773	1	16
592.943	1	4
593.113	1	3
593.283	1	-4
593.452	1	6
593.622	1	14
593.792	1	-5
593.962	1	10
594.132	1	11
594.301	1	2
594.471	1	18
594.641	1	16
594.811	1	6
594.981	1	-5
595.150	1	0
595.320	1	9
595.490	1	19
595.660	1	11
595.829	1	8
595.999	1	17
596.169	1	9
596.339	1	15
596.509	1	-1
596.678	1	4
596.848	1	4
597.018	1	12
597.188	1	9
597.358	1	-8
597.527	1	7
597.697	1	5
597.867	1	9
598.037	1	11
598.206	1	6
598.376	1	9
598.546	1	13
598.716	1	9
598.885	1	7
599.055	1	5
599.225	1	15
599.395	1	6
599.565	1	13
599.734	1	12
599.904	1	-2
600.074	1	10
600.244	1	1
600.413	1	17
600.583	1	2
600.753	1	8
600.923	1	7
601.092	1	12
601.262	1	4
601.432	1	4
601.602	1	4
601.771	1	12
601.941	1	4
602.111	1	12
602.281	1	6
602.451	1	11
602.620	1	7
602.790	1	5
602.960	1	4
603.130	1	13
603.299	1	10
603.469	1	-3
603.639	1	-1
603.809	1	11
603.978	1	11
604.148	1	9
604.318	1	0
604.487	1	20
604.657	1	-6
604.827	1	12
604.997	1	20
605.166	1	11
605.336	1	18
605.506	1	15
605.676	1	10
605.845	1	7
606.015	1	9
606.185	1	11
606.355	1	15
606.524	1	8
606.694	1	-3
606.864	1	22
607.034	1	6
607.203	1	8
607.373	1	10
607.543	1	9
607.712	1	7
607.882	1	15
608.052	1	7
608.222	1	3
608.391	1	9
608.561	1	-6
608.731	1	7
608.901	1	19
609.070	1	12
609.240	1	2
609.410	1	21
609.579	1	17
609.749	1	2
609.919	1	11
610.089	1	7
610.258	1	6
610.428	1	15
610.598	1	7
610.767	1	4
610.937	1	11
611.107	1	13
611.277	1	11
611.446	1	8
611.616	1	-4
611.786	1	11
611.955	1	-1
612.125	1	12
612.295	1	15
612.465	1	0
612.634	1	-1
612.804	1	15
612.974	1	12
613.143	1	15
613.313	1	10
613.483	1	7
613.652	1	3
613.822	1	-1
613.992	1	6
614.162	1	6
614.331	1	9
614.501	1	12
614.671	1	13
614.840	1	-3
615.010	1	4
615.180	1	12
615.349	1	12
615.519	1	12
615.689	1	5
615.858	1	2
616.028	1	8
616.198	1	8
616.368	1	4
616.537	1	5
616.707	1	18
616.877	1	3
617.046	1	14
617.216	1	10
617.386	1	2
617.555	1	-12
617.725	1	6
617.895	1	2
618.064	1	2
618.234	1	-1
618.404	1	1
618.573	1	9
618.743	1	9
618.913	1	8
619.082	1	8
619.252	1	-2
619.422	1	11
619.591	1	1
619.761	1	5
619.931	1	-1
620.100	1	11
620.270	1	5
620.440	1	1
620.609	1	-12
620.779	1	12
620.949	1	3
621.118	1	7
621.288	1	-2
621.458	1	8
621.627	1	19
621.797	1	1
621.967	1	7
622.136	1	8
622.306	1	3
622.476	1	17
622.645	1	9
622.815	1	4
622.985	1	12
623.154	1	-1
623.324	1	0
623.494	1	7
623.663	1	3
623.833	1	8
624.002	1	17
624.172	1	7
624.342	1	7
624.511	1	3
624.681	1	11
624.851	1	2
625.020	1	13
625.190	1	-4
625.360	1	9
625.529	1	1
625.699	1	-2
625.869	1	9
626.038	1	10
626.208	1	10
626.377	1	4
626.547	1	2
626.717	1	15
626.886	1	0
627.056	1	5
627.226	1	11
627.395	1	-1
627.565	1	2
627.735	1	16
627.904	1	8
628.074	1	7
628.243	1	14
628.413	1	6
628.583	1	-8
628.752	1	10
628.922	1	4
629.091	1	0
629.261	1	-6
629.431	1	7
629.600	1	12
629.770	1	2
629.940	1	13
630.109	1	15
630.279	1	16
630.448	1	9
630.618	1	-2
630.788	1	-5
630.957	1	6
631.127	1	4
631.297	1	5
631.466	1	13
631.636	1	10
631.805	1	13
631.975	1	4
632.145	1	5
632.314	1	5
632.484	1	-1
632.653	1	-9
632.823	1	-3
632.993	1	12
633.162	1	2
633.332	1	-1
633.501	1	25
633.671	1	1
633.841	1	12
634.010	1	-6
634.180	1	21
634.349	1	14
634.519	1	22
634.689	1	7
634.858	1	8
635.028	1	6
635.197	1	3
635.367	1	-1
635.537	1	4
635.706	1	5
635.876	1	8
636.045	1	22
636.215	1	14
636.384	1	8
636.554	1	10
636.724	1	16
636.893	1	4
637.063	1	9
637.232	1	2
637.402	1	-1
637.572	1	-1
637.741	1	17
637.911	1	5
638.080	1	13
638.250	1	-2
638.419	1	5
638.589	1	1
638.759	1	-5
638.928	1	4
639.098	1	6
639.267	1	19
639.437	1	1
639.606	1	10
639.776	1	2
639.946	1	7
640.115	1	3
640.285	1	12
640.454	1	10
640.624	1	-11
640.793	1	-7
640.963	1	1
641.132	1	9
641.302	1	12
641.472	1	-2
641.641	1	0
641.811	1	0
641.980	1	7
642.150	1	-9
642.319	1	13
642.489	1	-1
642.659	1	4
642.828	1	4
642.998	1	6
643.167	1	14
643.337	1	-4
643.506	1	16
643.676	1	10
643.845	1	-1
644.015	1	3
644.184	1	3
644.354	1	-2
644.524	1	4
644.693	1	3
644.863	1	-10
645.032	1	3
645.202	1	7
645.371	1	15
645.541	1	9
645.710	1	18
645.880	1	14
646.049	1	-10
646.219	1	9
646.388	1	0
646.558	1	8
646.728	1	9
646.897	1	6
647.067	1	3
647.236	1	3
647.406	1	8
647.575	1	-7
647.745	1	7
647.914	1	4
648.084	1	3
648.253	1	9
648.423	1	11
648.592	1	-2
648.762	1	4
648.931	1	2
649.101	1	-2
649.270	1	6
649.440	1	5
649.610	1	-4
649.779	1	3
649.949	1	4
650.118	1	3
650.288	1	13
650.457	1	-1
650.627	1	2
650.796	1	1
650.966	1	8
651.135	1	10
651.305	1	2
651.474	1	-1
651.644	1	9
651.813	1	14
651.983	1	-5
652.152	1	-2
652.322	1	0
652.491	1	10
652.661	1	3
652.830	1	12
653.000	1	5
653.169	1	1
653.339	1	6
653.508	1	8
653.678	1	1
653.847	1	3
654.017	1	-2
654.186	1	6
654.356	1	8
654.525	1	5
654.695	1	-2
654.864	1	6
655.034	1	-4
655.203	1	8
655.373	1	2
655.542	1	0
655.712	1	-6
655.881	1	8
656.051	1	9
656.220	1	-1
656.390	1	3
656.559	1	7
656.729	1	-1
656.898	1	3
657.068	1	-8
657.237	1	9
657.406	1	-5
657.576	1	-5
657.745	1	4
657.915	1	15
658.084	1	-4
658.254	1	3
658.423	1	0
658.593	1	1
658.762	1	15
658.932	1	16
659.101	1	5
659.271	1	4
659.440	1	-6
659.610	1	5
659.779	1	14
659.949	1	-1
660.118	1	-12
660.288	1	4
660.457	1	-4
660.626	1	5
660.796	1	7
660.965	1	-2
661.135	1	7
661.304	1	6
661.474	1	12
661.643	1	12
661.813	1	3
661.982	1	-9
662.152	1	-3
662.321	1	0
662.491	1	10
662.660	1	12
662.829	1	12
662.999	1	2
663.168	1	7
663.338	1	8
663.507	1	6
663.677	1	-2
663.846	1	-1
664.016	1	9
664.185	1	-2
664.354	1	21
664.524	1	2
664.693	1	13
664.863	1	4
665.032	1	9
665.202	1	2
665.371	1	0
665.541	1	2
665.710	1	8
665.879	1	6
666.049	1	2
666.218	1	9
666.388	1	3
666.557	1	9
666.727	1	0
666.896	1	13
667.065	1	4
667.235	1	6
667.404	1	6
667.574	1	14
667.743	1	1
667.913	1	7
668.082	1	5
668.251	1	6
668.421	1	-4
668.590	1	12
668.760	1	4
668.929	1	7
669.099	1	-13
669.268	1	2
669.437	1	-2
669.607	1	2
669.776	1	-5
669.946	1	18
670.115	1	12
670.285	1	13
670.454	1	6
670.623	1	12
670.793	1	-4
670.962	1	-10
671.132	1	-2
671.301	1	-5
671.470	1	21
671.640	1	-6
671.809	1	1
671.979	1	-1
672.148	1	-6
672.317	1	-6
672.487	1	-8
672.656	1	4
672.826	1	12
672.995	1	6
673.164	1	8
673.334	1	6
673.503	1	-1
673.673	1	9
673.842	1	5
674.011	1	4
674.181	1	23
674.350	1	11
674.520	1	-6
674.689	1	9
674.858	1	-3
675.028	1	15
675.197	1	8
675.367	1	-2
675.536	1	8
675.705	1	12
675.875	1	3
676.044	1	1
676.214	1	8
676.383	1	-2
676.552	1	8
676.722	1	-2
676.891	1	10
677.060	1	7
677.230	1	9
677.399	1	1
677.569	1	1
677.738	1	-5
677.907	1	3
678.077	1	7
678.246	1	14
678.416	1	4
678.585	1	7
678.754	1	17
678.924	1	6
679.093	1	2
679.262	1	14
679.432	1	2
679.601	1	3
679.771	1	10
679.940	1	6
680.109	1	10
680.279	1	4
680.448	1	12
680.617	1	-12
680.787	1	17
680.956	1	0
681.125	1	14
681.295	1	11
681.464	1	-1
681.634	1	6
681.803	1	-5
681.972	1	3
682.142	1	-2
682.311	1	-7
682.480	1	9
682.650	1	2
682.819	1	8
682.988	1	6
683.158	1	4
683.327	1	1
683.496	1	4
683.666	1	6
683.835	1	2
684.004	1	4
684.174	1	8
684.343	1	5
684.512	1	5
684.682	1	-2
684.851	1	6
685.021	1	13
685.190	1	6
685.359	1	-9
685.529	1	-2
685.698	1	5
685.867	1	6
686.037	1	8
686.206	1	11
686.375	1	-6
686.545	1	1
686.714	1	-4
686.883	1	0
687.053	1	8
687.222	1	8
687.391	1	7
687.561	1	22
687.730	1	-1
687.899	1	14
688.069	1	2
688.238	1	24
688.407	1	15
688.577	1	10
688.746	1	7
