340.368	1	0
340.539	1	7
340.710	1	9
340.881	1	3
341.052	1	-8
341.223	1	0
341.394	1	8
341.565	1	1
341.737	1	-2
341.908	1	-2
342.079	1	9
342.250	1	4
342.421	1	6
342.592	1	12
342.763	1	10
342.934	1	8
343.105	1	1
343.276	1	1
343.447	1	6
343.618	1	-7
343.789	1	5
343.960	1	-13
344.131	1	9
344.302	1	10
344.473	1	2
344.644	1	7
344.815	1	-2
344.986	1	14
345.157	1	-10
345.328	1	6
345.499	1	-1
345.670	1	-2
345.841	1	-6
346.012	1	-1
346.183	1	8
346.354	1	2
346.526	1	1
346.697	1	1
346.868	1	9
347.039	1	-2
347.210	1	8
347.381	1	0
347.552	1	6
347.723	1	6
347.894	1	2
348.065	1	11
348.236	1	-3
348.407	1	1
348.578	1	0
348.749	1	14
348.920	1	8
349.091	1	4
349.262	1	4
349.433	1	10
349.604	1	2
349.775	1	5
349.946	1	5
350.117	1	6
350.288	1	-13
350.459	1	0
350.630	1	5
350.801	1	7
350.972	1	14
351.143	1	11
351.314	1	2
351.485	1	7
351.656	1	10
351.827	1	2
351.998	1	5
352.169	1	4
352.340	1	6
352.511	1	5
352.682	1	4
352.853	1	5
353.024	1	2
353.195	1	6
353.366	1	14
353.537	1	6
353.708	1	3
353.879	1	-2
354.050	1	6
354.221	1	16
354.392	1	2
354.563	1	-4
354.734	1	5
354.905	1	4
355.076	1	0
355.247	1	11
355.418	1	4
355.589	1	2
355.760	1	2
355.931	1	-1
356.102	1	-1
356.273	1	8
356.444	1	-3
356.615	1	7
356.785	1	6
356.956	1	13
357.127	1	13
357.298	1	2
357.469	1	4
357.640	1	7
357.811	1	10
357.982	1	4
358.153	1	1
358.324	1	-5
358.495	1	6
358.666	1	8
358.837	1	-3
359.008	1	15
359.179	1	9
359.350	1	2
359.521	1	-5
359.692	1	4
359.863	1	4
360.034	1	9
360.205	1	14
360.376	1	8
360.547	1	2
360.718	1	13
360.889	1	3
361.060	1	8
361.231	1	11
361.401	1	10
361.572	1	11
361.743	1	9
361.914	1	15
362.085	1	17
362.256	1	-3
362.427	1	14
362.598	1	12
362.769	1	13
362.940	1	5
363.111	1	18
363.282	1	14
363.453	1	15
363.624	1	16
363.795	1	11
363.966	1	21
364.137	1	14
364.308	1	19
364.478	1	15
364.649	1	15
364.820	1	22
364.991	1	18
365.162	1	21
365.333	1	4
365.504	1	17
365.675	1	16
365.846	1	8
366.017	1	19
366.188	1	26
366.359	1	17
366.530	1	22
366.701	1	24
366.871	1	26
367.042	1	23
367.213	1	21
367.384	1	28
367.555	1	20
367.726	1	21
367.897	1	6
368.068	1	14
368.239	1	20
368.410	1	19
368.581	1	28
368.752	1	25
368.923	1	23
369.093	1	28
369.264	1	25
369.435	1	15
369.606	1	34
369.777	1	22
369.948	1	18
370.119	1	20
370.290	1	24
370.461	1	27
370.632	1	5
370.803	1	10
370.973	1	11
371.144	1	22
371.315	1	29
371.486	1	23
371.657	1	9
371.828	1	22
371.999	1	9
372.170	1	22
372.341	1	22
372.512	1	20
372.682	1	16
372.853	1	16
373.024	1	15
373.195	1	18
373.366	1	12
373.537	1	13
373.708	1	11
373.879	1	15
374.050	1	22
374.220	1	5
374.391	1	4
374.562	1	11
374.733	1	7
374.904	1	12
375.075	1	15
375.246	1	17
375.417	1	11
375.588	1	3
375.758	1	-6
375.929	1	1
376.100	1	14
376.271	1	10
376.442	1	6
376.613	1	10
376.784	1	26
376.955	1	12
377.125	1	15
377.296	1	3
377.467	1	15
377.638	1	-8
377.809	1	8
377.980	1	-2
378.151	1	12
378.321	1	9
378.492	1	24
378.663	1	5
378.834	1	14
379.005	1	23
379.176	1	8
379.347	1	5
379.518	1	14
379.688	1	11
379.859	1	6
380.030	1	7
380.201	1	16
380.372	1	14
380.543	1	11
380.714	1	19
380.884	1	7
381.055	1	5
381.226	1	7
381.397	1	5
381.568	1	8
381.739	1	16
381.910	1	14
382.080	1	4
382.251	1	15
382.422	1	13
382.593	1	10
382.764	1	12
382.935	1	9
383.105	1	4
383.276	1	8
383.447	1	4
383.618	1	24
383.789	1	15
383.960	1	1
384.130	1	7
384.301	1	2
384.472	1	19
384.643	1	16
384.814	1	10
384.985	1	15
385.156	1	4
385.326	1	4
385.497	1	9
385.668	1	7
385.839	1	9
386.010	1	9
386.180	1	12
386.351	1	1
386.522	1	10
386.693	1	7
386.864	1	12
387.035	1	17
387.205	1	4
387.376	1	13
387.547	1	14
387.718	1	8
387.889	1	1
388.060	1	6
388.230	1	8
388.401	1	11
388.572	1	19
388.743	1	14
388.914	1	12
389.084	1	10
389.255	1	7
389.426	1	11
389.597	1	-7
389.768	1	-10
389.939	1	11
390.109	1	6
390.280	1	10
390.451	1	7
390.622	1	3
390.793	1	13
390.963	1	6
391.134	1	3
391.305	1	15
391.476	1	10
391.647	1	4
391.817	1	10
391.988	1	19
392.159	1	10
392.330	1	7
392.501	1	8
392.671	1	0
392.842	1	15
393.013	1	7
393.184	1	-1
393.355	1	9
393.525	1	7
393.696	1	-5
393.867	1	8
394.038	1	8
394.208	1	0
394.379	1	17
394.550	1	6
394.721	1	12
394.892	1	3
395.062	1	2
395.233	1	-1
395.404	1	-11
395.575	1	14
395.746	1	8
395.916	1	22
396.087	1	11
396.258	1	8
396.429	1	14
396.599	1	14
396.770	1	9
396.941	1	20
397.112	1	6
397.283	1	5
397.453	1	18
397.624	1	6
397.795	1	2
397.966	1	7
398.136	1	-1
398.307	1	22
398.478	1	10
398.649	1	-3
398.819	1	-5
398.990	1	-1
399.161	1	9
399.332	1	18
399.503	1	18
399.673	1	9
399.844	1	4
400.015	1	14
400.186	1	9
400.356	1	9
400.527	1	9
400.698	1	14
400.869	1	2
401.039	1	12
401.210	1	-8
401.381	1	4
401.552	1	6
401.722	1	9
401.893	1	3
402.064	1	1
402.235	1	10
402.405	1	7
402.576	1	18
402.747	1	12
402.918	1	12
403.088	1	0
403.259	1	-7
403.430	1	15
403.601	1	2
403.771	1	12
403.942	1	9
404.113	1	5
404.284	1	6
404.454	1	11
404.625	1	14
404.796	1	8
404.967	1	4
405.137	1	17
405.308	1	0
405.479	1	5
405.649	1	8
405.820	1	9
405.991	1	13
406.162	1	5
406.332	1	11
406.503	1	4
406.674	1	8
406.845	1	5
407.015	1	7
407.186	1	12
407.357	1	2
407.527	1	4
407.698	1	5
407.869	1	11
408.040	1	-2
408.210	1	12
408.381	1	9
408.552	1	5
408.722	1	4
408.893	1	13
409.064	1	8
409.235	1	1
409.405	1	5
409.576	1	1
409.747	1	0
409.917	1	8
410.088	1	19
410.259	1	5
410.430	1	17
410.600	1	6
410.771	1	-11
410.942	1	-5
411.112	1	14
411.283	1	-1
411.454	1	10
411.625	1	10
411.795	1	9
411.966	1	7
412.137	1	2
412.307	1	6
412.478	1	4
412.649	1	13
412.819	1	11
412.990	1	7
413.161	1	15
413.332	1	1
413.502	1	18
413.673	1	2
413.844	1	5
414.014	1	16
414.185	1	11
414.356	1	16
414.526	1	8
414.697	1	3
414.868	1	5
415.038	1	13
415.209	1	5
415.380	1	3
415.550	1	3
415.721	1	6
415.892	1	5
416.063	1	9
416.233	1	10
416.404	1	8
416.575	1	17
416.745	1	9
416.916	1	7
417.087	1	3
417.257	1	7
417.428	1	5
417.599	1	5
417.769	1	11
417.940	1	12
418.111	1	12
418.281	1	13
418.452	1	0
418.623	1	6
418.793	1	6
418.964	1	1
419.135	1	0
419.305	1	7
419.476	1	8
419.647	1	7
419.817	1	9
419.988	1	16
420.159	1	15
420.329	1	2
420.500	1	10
420.671	1	-1
420.841	1	16
421.012	1	14
421.183	1	14
421.353	1	10
421.524	1	5
421.695	1	-4
421.865	1	6
422.036	1	1
422.206	1	5
422.377	1	5
422.548	1	16
422.718	1	1
422.889	1	4
423.060	1	5
423.230	1	-1
423.401	1	14
423.572	1	-5
423.742	1	2
423.913	1	11
424.084	1	9
424.254	1	2
424.425	1	14
424.595	1	1
424.766	1	13
424.937	1	5
425.107	1	1
425.278	1	4
425.449	1	8
425.619	1	5
425.790	1	12
425.961	1	8
426.131	1	25
426.302	1	14
426.472	1	5
426.643	1	9
426.814	1	2
426.984	1	4
427.155	1	1
427.326	1	5
427.496	1	-1
427.667	1	11
427.837	1	10
428.008	1	9
428.179	1	-2
428.349	1	8
428.520	1	16
428.691	1	-1
428.861	1	6
429.032	1	6
429.202	1	8
429.373	1	9
429.544	1	7
429.714	1	-2
429.885	1	5
430.055	1	2
430.226	1	1
430.397	1	-3
430.567	1	3
430.738	1	2
430.909	1	8
431.079	1	14
431.250	1	7
431.420	1	4
431.591	1	6
431.762	1	11
431.932	1	3
432.103	1	-1
432.273	1	10
432.444	1	7
432.615	1	12
432.785	1	7
432.956	1	1
433.126	1	8
433.297	1	22
433.468	1	4
433.638	1	13
433.809	1	17
433.979	1	6
434.150	1	3
434.320	1	13
434.491	1	12
434.662	1	11
434.832	1	1
435.003	1	15
435.173	1	7
435.344	1	11
435.515	1	5
435.685	1	2
435.856	1	-1
436.026	1	13
436.197	1	3
436.368	1	-2
436.538	1	16
436.709	1	5
436.879	1	4
437.050	1	16
437.220	1	-2
437.391	1	11
437.562	1	8
437.732	1	3
437.903	1	14
438.073	1	12
438.244	1	8
438.414	1	-2
438.585	1	-1
438.756	1	8
438.926	1	11
439.097	1	3
439.267	1	1
439.438	1	16
439.608	1	4
439.779	1	5
439.949	1	0
440.120	1	7
440.291	1	17
440.461	1	15
440.632	1	3
440.802	1	0
440.973	1	9
441.143	1	1
441.314	1	0
441.485	1	5
441.655	1	14
441.826	1	8
441.996	1	16
442.167	1	4
442.337	1	8
442.508	1	-6
442.678	1	-1
442.849	1	11
443.019	1	9
443.190	1	2
443.361	1	10
443.531	1	14
443.702	1	6
443.872	1	13
444.043	1	5
444.213	1	11
444.384	1	-1
444.554	1	3
444.725	1	7
444.895	1	1
445.066	1	-3
445.237	1	1
445.407	1	7
445.578	1	1
445.748	1	11
445.919	1	8
446.089	1	3
446.260	1	3
446.430	1	4
446.601	1	8
446.771	1	6
446.942	1	7
447.112	1	5
447.283	1	5
447.453	1	-7
447.624	1	3
447.794	1	15
447.965	1	6
448.135	1	12
448.306	1	5
448.477	1	12
448.647	1	13
448.818	1	2
448.988	1	12
449.159	1	9
449.329	1	-7
449.500	1	1
449.670	1	13
449.841	1	-7
450.011	1	-2
450.182	1	15
450.352	1	16
450.523	1	12
450.693	1	1
450.864	1	6
451.034	1	0
451.205	1	11
451.375	1	10
451.546	1	10
451.716	1	-4
451.887	1	-5
452.057	1	12
452.228	1	-1
452.398	1	1
452.569	1	-3
452.739	1	8
452.910	1	3
453.080	1	6
453.251	1	7
453.421	1	5
453.592	1	5
453.762	1	9
453.933	1	2
454.103	1	1
454.274	1	-6
454.444	1	1
454.615	1	5
454.785	1	5
454.956	1	0
455.126	1	-1
455.297	1	17
455.467	1	1
455.638	1	5
455.808	1	8
455.979	1	4
456.149	1	-5
456.320	1	7
456.490	1	5
456.661	1	6
456.831	1	6
457.001	1	7
457.172	1	16
457.342	1	-6
457.513	1	-4
457.683	1	3
457.854	1	1
458.024	1	14
458.195	1	-5
458.365	1	14
458.536	1	4
458.706	1	10
458.877	1	15
459.047	1	-2
459.218	1	-3
459.388	1	1
459.559	1	7
459.729	1	0
459.899	1	9
460.070	1	9
460.240	1	12
460.411	1	18
460.581	1	-5
460.752	1	7
460.922	1	0
461.093	1	5
461.263	1	2
461.434	1	4
461.604	1	-10
461.775	1	5
461.945	1	16
462.115	1	8
462.286	1	7
462.456	1	-2
462.627	1	1
462.797	1	11
462.968	1	7
463.138	1	7
463.309	1	5
463.479	1	16
463.649	1	-2
463.820	1	-2
463.990	1	4
464.161	1	-8
464.331	1	11
464.502	1	0
464.672	1	7
464.843	1	0
465.013	1	-5
465.183	1	9
465.354	1	-1
465.524	1	-1
465.695	1	10
465.865	1	-1
466.036	1	10
466.206	1	2
466.376	1	12
466.547	1	-4
466.717	1	13
466.888	1	4
467.058	1	9
467.229	1	-7
467.399	1	-6
467.569	1	4
467.740	1	16
467.910	1	2
468.081	1	8
468.251	1	5
468.422	1	5
468.592	1	-4
468.762	1	0
468.933	1	2
469.103	1	6
469.274	1	14
469.444	1	7
469.614	1	6
469.785	1	3
469.955	1	0
470.126	1	-6
470.296	1	-2
470.467	1	8
470.637	1	9
470.807	1	7
470.978	1	-2
471.148	1	-4
471.319	1	0
471.489	1	2
471.659	1	5
471.830	1	12
472.000	1	5
472.171	1	4
472.341	1	-4
472.511	1	9
472.682	1	3
472.852	1	13
473.023	1	4
473.193	1	8
473.363	1	13
473.534	1	5
473.704	1	0
473.875	1	9
474.045	1	-5
474.215	1	6
474.386	1	-2
474.556	1	8
474.727	1	1
474.897	1	9
475.067	1	5
475.238	1	22
475.408	1	6
475.578	1	12
475.749	1	7
475.919	1	-4
476.090	1	3
476.260	1	7
476.430	1	5
476.601	1	-2
476.771	1	-10
476.942	1	5
477.112	1	5
477.282	1	5
477.453	1	4
477.623	1	2
477.793	1	0
477.964	1	-3
478.134	1	19
478.305	1	12
478.475	1	-6
478.645	1	-3
478.816	1	5
478.986	1	1
479.156	1	-3
479.327	1	1
479.497	1	14
479.667	1	4
479.838	1	4
480.008	1	8
480.179	1	4
480.349	1	-2
480.519	1	4
480.690	1	2
480.860	1	16
481.030	1	3
481.201	1	16
481.371	1	1
481.541	1	8
481.712	1	6
481.882	1	6
482.053	1	-2
482.223	1	1
482.393	1	14
482.564	1	2
482.734	1	6
482.904	1	2
483.075	1	14
483.245	1	5
483.415	1	6
483.586	1	5
483.756	1	6
483.926	1	1
484.097	1	0
484.267	1	13
484.437	1	0
484.608	1	10
484.778	1	11
484.948	1	7
485.119	1	10
485.289	1	8
485.459	1	-1
485.630	1	-1
485.800	1	6
485.970	1	7
486.141	1	3
486.311	1	16
486.481	1	0
486.652	1	6
486.822	1	6
486.992	1	2
487.163	1	-1
487.333	1	0
487.503	1	2
487.674	1	-1
487.844	1	1
488.014	1	4
488.185	1	9
488.355	1	10
488.525	1	-1
488.696	1	2
488.866	1	3
489.036	1	8
489.207	1	1
489.377	1	-5
489.547	1	2
489.718	1	11
489.888	1	11
490.058	1	2
490.228	1	9
490.399	1	4
490.569	1	3
490.739	1	8
490.910	1	-6
491.080	1	1
491.250	1	8
491.421	1	14
491.591	1	-6
491.761	1	-3
491.932	1	6
492.102	1	8
492.272	1	-5
492.442	1	1
492.613	1	6
492.783	1	0
492.953	1	5
493.124	1	1
493.294	1	3
493.464	1	4
493.635	1	8
493.805	1	11
493.975	1	10
494.145	1	-4
494.316	1	4
494.486	1	10
494.656	1	7
494.827	1	5
494.997	1	-4
495.167	1	13
495.337	1	1
495.508	1	-2
495.678	1	-5
495.848	1	5
496.019	1	9
496.189	1	10
496.359	1	14
496.529	1	17
496.700	1	-3
496.870	1	6
497.040	1	9
497.211	1	1
497.381	1	3
497.551	1	23
497.721	1	5
497.892	1	5
498.062	1	-7
498.232	1	12
498.403	1	-1
498.573	1	11
498.743	1	17
498.913	1	9
499.084	1	17
499.254	1	14
499.424	1	1
499.594	1	2
499.765	1	2
499.935	1	2
500.105	1	11
500.275	1	6
500.446	1	1
500.616	1	0
500.786	1	12
500.956	1	6
501.127	1	10
501.297	1	3
501.467	1	-6
501.638	1	9
501.808	1	1
501.978	1	11
502.148	1	-1
502.319	1	6
502.489	1	8
502.659	1	3
502.829	1	9
503.000	1	7
503.170	1	0
503.340	1	-3
503.510	1	10
503.681	1	0
503.851	1	0
504.021	1	12
504.191	1	10
504.362	1	2
504.532	1	10
504.702	1	-12
504.872	1	7
505.042	1	9
505.213	1	10
505.383	1	12
505.553	1	14
505.723	1	18
505.894	1	2
506.064	1	-4
506.234	1	6
506.404	1	7
506.575	1	-3
506.745	1	7
506.915	1	2
507.085	1	12
507.256	1	18
507.426	1	9
507.596	1	2
507.766	1	9
507.936	1	-2
508.107	1	11
508.277	1	-2
508.447	1	14
508.617	1	3
508.788	1	7
508.958	1	20
509.128	1	1
509.298	1	-1
509.468	1	12
509.639	1	14
509.809	1	-1
509.979	1	-4
510.149	1	7
510.319	1	14
510.490	1	14
510.660	1	-1
510.830	1	16
511.000	1	4
511.171	1	13
511.341	1	2
511.511	1	-3
511.681	1	12
511.851	1	14
512.022	1	13
512.192	1	-12
512.362	1	4
512.532	1	4
512.702	1	12
512.873	1	7
513.043	1	16
513.213	1	7
513.383	1	5
513.553	1	4
513.724	1	7
513.894	1	-1
514.064	1	0
514.234	1	12
514.404	1	13
514.575	1	-6
514.745	1	8
514.915	1	4
515.085	1	12
515.255	1	1
515.425	1	-3
515.596	1	-8
515.766	1	10
515.936	1	15
516.106	1	8
516.276	1	8
516.447	1	7
516.617	1	14
516.787	1	5
516.957	1	1
517.127	1	11
517.297	1	3
517.468	1	7
517.638	1	-1
517.808	1	-2
517.978	1	-1
518.148	1	11
518.319	1	4
518.489	1	1
518.659	1	5
518.829	1	11
518.999	1	14
519.169	1	7
519.340	1	-2
519.510	1	8
519.680	1	5
519.850	1	22
520.020	1	7
520.190	1	14
520.361	1	4
520.531	1	16
520.701	1	6
520.871	1	0
521.041	1	9
521.211	1	8
521.382	1	8
521.552	1	14
521.722	1	15
521.892	1	8
522.062	1	8
522.232	1	1
522.402	1	10
522.573	1	-4
522.743	1	5
522.913	1	16
523.083	1	14
523.253	1	13
523.423	1	11
523.593	1	8
523.764	1	3
523.934	1	-1
524.104	1	11
524.274	1	4
524.444	1	12
524.614	1	16
524.784	1	11
524.955	1	6
525.125	1	4
525.295	1	15
525.465	1	11
525.635	1	4
525.805	1	7
525.975	1	17
526.146	1	5
526.316	1	-3
526.486	1	10
526.656	1	10
526.826	1	31
526.996	1	2
527.166	1	14
527.337	1	7
527.507	1	16
527.677	1	10
527.847	1	14
528.017	1	13
528.187	1	19
528.357	1	16
528.527	1	16
528.698	1	-1
528.868	1	9
529.038	1	-4
529.208	1	5
529.378	1	4
529.548	1	5
529.718	1	15
529.888	1	8
530.058	1	1
530.229	1	11
530.399	1	11
530.569	1	15
530.739	1	10
530.909	1	14
531.079	1	13
531.249	1	6
531.419	1	10
531.589	1	16
531.760	1	5
531.930	1	6
532.100	1	6
532.270	1	11
532.440	1	10
532.610	1	6
532.780	1	-6
532.950	1	16
533.120	1	9
533.290	1	16
533.461	1	8
533.631	1	13
533.801	1	19
533.971	1	4
534.141	1	13
534.311	1	10
534.481	1	7
534.651	1	10
534.821	1	12
534.991	1	9
535.162	1	11
535.332	1	18
535.502	1	5
535.672	1	10
535.842	1	17
536.012	1	11
536.182	1	4
536.352	1	13
536.522	1	1
536.692	1	17
536.862	1	5
537.032	1	16
537.203	1	-3
537.373	1	14
537.543	1	13
537.713	1	9
537.883	1	6
538.053	1	-4
538.223	1	16
538.393	1	19
538.563	1	16
538.733	1	3
538.903	1	14
539.073	1	15
539.243	1	7
539.413	1	15
539.584	1	13
539.754	1	10
539.924	1	0
540.094	1	3
540.264	1	-2
540.434	1	13
540.604	1	4
540.774	1	19
540.944	1	8
541.114	1	-3
541.284	1	10
541.454	1	7
541.624	1	15
541.794	1	5
541.964	1	2
542.134	1	3
542.305	1	8
542.475	1	3
542.645	1	2
542.815	1	13
542.985	1	18
543.155	1	-1
543.325	1	2
543.495	1	13
543.665	1	19
543.835	1	13
544.005	1	18
544.175	1	1
544.345	1	7
544.515	1	4
544.685	1	8
544.855	1	12
545.025	1	8
545.195	1	5
545.365	1	16
545.535	1	25
545.705	1	8
545.875	1	13
546.045	1	4
546.216	1	13
546.386	1	0
546.556	1	-6
546.726	1	-3
546.896	1	11
547.066	1	0
547.236	1	4
547.406	1	-3
547.576	1	14
547.746	1	2
547.916	1	7
548.086	1	-8
548.256	1	1
548.426	1	12
548.596	1	13
548.766	1	13
548.936	1	12
549.106	1	-1
549.276	1	0
549.446	1	1
549.616	1	4
549.786	1	5
549.956	1	6
550.126	1	15
550.296	1	5
550.466	1	16
550.636	1	-5
550.806	1	10
550.976	1	1
551.146	1	14
551.316	1	7
551.486	1	4
551.656	1	10
551.826	1	0
551.996	1	6
552.166	1	0
552.336	1	4
552.506	1	14
552.676	1	18
552.846	1	3
553.016	1	5
553.186	1	5
553.356	1	15
553.526	1	6
553.696	1	-9
553.866	1	-7
554.036	1	4
554.206	1	5
554.376	1	13
554.546	1	13
554.716	1	7
554.886	1	6
555.056	1	4
555.226	1	9
555.396	1	-7
555.566	1	2
555.736	1	-3
555.906	1	4
556.076	1	-4
556.246	1	7
556.416	1	8
556.586	1	12
556.756	1	15
556.926	1	4
557.096	1	11
557.266	1	6
557.436	1	4
557.606	1	9
557.776	1	9
557.946	1	7
558.116	1	6
558.286	1	8
558.456	1	16
558.626	1	0
558.796	1	18
558.966	1	9
559.136	1	-2
559.306	1	7
559.476	1	12
559.646	1	2
559.816	1	17
559.986	1	9
560.155	1	2
560.325	1	-3
560.495	1	0
560.665	1	11
560.835	1	6
561.005	1	10
561.175	1	7
561.345	1	13
561.515	1	9
561.685	1	9
561.855	1	-3
562.025	1	5
562.195	1	-6
562.365	1	15
562.535	1	3
562.705	1	13
562.875	1	2
563.045	1	8
563.215	1	5
563.385	1	5
563.555	1	11
563.725	1	3
563.895	1	7
564.064	1	13
564.234	1	8
564.404	1	4
564.574	1	13
564.744	1	3
564.914	1	5
565.084	1	4
565.254	1	-9
565.424	1	-9
565.594	1	6
565.764	1	5
565.934	1	10
566.104	1	4
566.274	1	5
566.444	1	18
566.614	1	2
566.783	1	8
566.953	1	4
567.123	1	-2
567.293	1	13
567.463	1	2
567.633	1	-2
567.803	1	5
567.973	1	14
568.143	1	14
568.313	1	3
568.483	1	10
568.653	1	9
568.823	1	-11
568.993	1	-2
569.162	1	14
569.332	1	6
569.502	1	9
569.672	1	-3
569.842	1	5
570.012	1	1
570.182	1	3
570.352	1	5
570.522	1	-11
570.692	1	9
570.862	1	14
571.031	1	7
571.201	1	13
571.371	1	1
571.541	1	-2
571.711	1	10
571.881	1	9
572.051	1	5
572.221	1	11
572.391	1	2
572.561	1	1
572.731	1	14
572.900	1	7
573.070	1	13
573.240	1	-1
573.410	1	3
573.580	1	3
573.750	1	4
573.920	1	14
574.090	1	5
574.260	1	6
574.430	1	8
574.599	1	15
574.769	1	7
574.939	1	11
575.109	1	12
575.279	1	-6
575.449	1	3
575.619	1	1
575.789	1	6
575.959	1	1
576.128	1	1
576.298	1	7
576.468	1	10
576.638	1	-4
576.808	1	-1
576.978	1	-5
577.148	1	6
577.318	1	5
577.487	1	5
577.657	1	15
577.827	1	-2
577.997	1	7
578.167	1	11
578.337	1	9
578.507	1	-6
578.677	1	10
578.846	1	0
579.016	1	4
579.186	1	-3
579.356	1	2
579.526	1	10
579.696	1	-2
579.866	1	9
580.036	1	10
580.205	1	2
580.375	1	6
580.545	1	9
580.715	1	9
580.885	1	4
581.055	1	-3
581.225	1	8
581.394	1	8
581.564	1	6
581.734	1	13
581.904	1	0
582.074	1	-1
582.244	1	-3
582.414	1	4
582.583	1	12
582.753	1	9
582.923	1	3
583.093	1	-4
583.263	1	9
583.433	1	6
583.603	1	17
583.772	1	10
583.942	1	5
584.112	1	4
584.282	1	2
584.452	1	12
584.622	1	-6
584.791	1	-2
584.961	1	1
585.131	1	9
585.301	1	5
585.471	1	12
585.641	1	17
585.811	1	2
585.980	1	7
586.150	1	5
586.320	1	5
586.490	1	3
586.660	1	0
586.830	1	-1
586.999	1	-3
587.169	1	15
587.339	1	10
587.509	1	11
587.679	1	6
587.849	1	-2
588.018	1	8
588.188	1	10
588.358	1	2
588.528	1	6
588.698	1	9
588.867	1	2
589.037	1	10
589.207	1	1
589.377	1	7
589.547	1	-4
589.717	1	0
589.886	1	5
590.056	1	1
590.226	1	3
590.396	1	8
590.566	1	5
590.735	1	12
590.905	1	0
591.075	1	16
591.245	1	3
591.415	1	4
591.585	1	8
591.754	1	-5
591.924	1	5
592.094	1	1
592.264	1	5
592.434	1	-1
592.603	1	-3
592.773	1	4
592.943	1	2
593.113	1	5
593.283	1	0
593.452	1	1
593.622	1	6
593.792	1	-4
593.962	1	12
594.132	1	8
594.301	1	-6
594.471	1	0
594.641	1	-4
594.811	1	2
594.981	1	-3
595.150	1	3
595.320	1	7
595.490	1	7
595.660	1	1
595.829	1	4
595.999	1	16
596.169	1	4
596.339	1	13
596.509	1	3
596.678	1	3
596.848	1	10
597.018	1	5
597.188	1	11
597.358	1	-4
597.527	1	7
597.697	1	-4
597.867	1	9
598.037	1	0
598.206	1	4
598.376	1	3
598.546	1	9
598.716	1	4
598.885	1	8
599.055	1	0
599.225	1	-2
599.395	1	-11
599.565	1	9
599.734	1	6
599.904	1	1
600.074	1	7
600.244	1	5
600.413	1	6
600.583	1	-4
600.753	1	4
600.923	1	1
601.092	1	3
601.262	1	-2
601.432	1	-2
601.602	1	-5
601.771	1	3
601.941	1	-3
602.111	1	0
602.281	1	10
602.451	1	8
602.620	1	3
602.790	1	0
602.960	1	-1
603.130	1	10
603.299	1	9
603.469	1	4
603.639	1	-4
603.809	1	9
603.978	1	4
604.148	1	15
604.318	1	-4
604.487	1	11
604.657	1	-17
604.827	1	5
604.997	1	11
605.166	1	8
605.336	1	8
605.506	1	-4
605.676	1	-7
605.845	1	8
606.015	1	4
606.185	1	11
606.355	1	8
606.524	1	-5
606.694	1	-9
606.864	1	1
607.034	1	9
607.203	1	-1
607.373	1	3
607.543	1	6
607.712	1	4
607.882	1	6
608.052	1	0
608.222	1	-5
608.391	1	8
608.561	1	-1
608.731	1	6
608.901	1	7
609.070	1	19
609.240	1	0
609.410	1	11
609.579	1	9
609.749	1	2
609.919	1	18
610.089	1	-6
610.258	1	1
610.428	1	4
610.598	1	7
610.767	1	3
610.937	1	6
611.107	1	1
611.277	1	11
611.446	1	11
611.616	1	-2
611.786	1	8
611.955	1	2
612.125	1	0
612.295	1	9
612.465	1	-5
612.634	1	-2
612.804	1	16
612.974	1	-2
613.143	1	6
613.313	1	1
613.483	1	-5
613.652	1	-4
613.822	1	-4
613.992	1	2
614.162	1	2
614.331	1	7
614.501	1	11
614.671	1	15
614.840	1	-2
615.010	1	5
615.180	1	2
615.349	1	2
615.519	1	1
615.689	1	2
615.858	1	-7
616.028	1	11
616.198	1	11
616.368	1	5
616.537	1	13
616.707	1	11
616.877	1	-2
617.046	1	6
617.216	1	8
617.386	1	0
617.555	1	2
617.725	1	4
617.895	1	5
618.064	1	1
618.234	1	3
618.404	1	6
618.573	1	11
618.743	1	8
618.913	1	6
619.082	1	-4
619.252	1	-4
619.422	1	-3
619.591	1	11
619.761	1	11
619.931	1	1
620.100	1	-7
620.270	1	2
620.440	1	8
620.609	1	-3
620.779	1	5
620.949	1	-6
621.118	1	-2
621.288	1	-6
621.458	1	11
621.627	1	7
621.797	1	2
621.967	1	1
622.136	1	2
622.306	1	2
622.476	1	10
622.645	1	11
622.815	1	1
622.985	1	4
623.154	1	-1
623.324	1	-9
623.494	1	11
623.663	1	3
623.833	1	6
624.002	1	16
624.172	1	1
624.342	1	9
624.511	1	-1
624.681	1	4
624.851	1	-2
625.020	1	-5
625.190	1	1
625.360	1	10
625.529	1	3
625.699	1	4
625.869	1	7
626.038	1	13
626.208	1	2
626.377	1	8
626.547	1	-3
626.717	1	7
626.886	1	1
627.056	1	18
627.226	1	5
627.395	1	0
627.565	1	8
627.735	1	1
627.904	1	5
628.074	1	7
628.243	1	-5
628.413	1	-3
628.583	1	-3
628.752	1	2
628.922	1	-8
629.091	1	1
629.261	1	-15
629.431	1	9
629.600	1	1
629.770	1	2
629.940	1	10
630.109	1	9
630.279	1	3
630.448	1	7
630.618	1	1
630.788	1	-1
630.957	1	4
631.127	1	-3
631.297	1	2
631.466	1	14
631.636	1	5
631.805	1	8
631.975	1	-1
632.145	1	-4
632.314	1	-1
632.484	1	1
632.653	1	11
632.823	1	1
632.993	1	7
633.162	1	-3
633.332	1	-7
633.501	1	2
633.671	1	-4
633.841	1	5
634.010	1	-6
634.180	1	16
634.349	1	-2
634.519	1	10
634.689	1	10
634.858	1	7
635.028	1	0
635.197	1	5
635.367	1	8
635.537	1	-9
635.706	1	-1
635.876	1	7
636.045	1	20
636.215	1	5
636.384	1	1
636.554	1	10
636.724	1	4
636.893	1	3
637.063	1	10
637.232	1	-4
637.402	1	-7
637.572	1	-2
637.741	1	13
637.911	1	-9
638.080	1	4
638.250	1	11
638.419	1	8
638.589	1	3
638.759	1	8
638.928	1	7
639.098	1	-6
639.267	1	7
639.437	1	13
639.606	1	10
639.776	1	0
639.946	1	-2
640.115	1	1
640.285	1	3
640.454	1	6
640.624	1	-4
640.793	1	-9
640.963	1	2
641.132	1	9
641.302	1	13
641.472	1	0
641.641	1	2
641.811	1	1
641.980	1	2
642.150	1	-8
642.319	1	15
642.489	1	1
642.659	1	3
642.828	1	4
642.998	1	6
643.167	1	7
643.337	1	3
643.506	1	13
643.676	1	0
643.845	1	-2
644.015	1	8
644.184	1	-4
644.354	1	0
644.524	1	-1
644.693	1	-3
644.863	1	2
645.032	1	6
645.202	1	6
645.371	1	10
645.541	1	8
645.710	1	5
645.880	1	-2
646.049	1	-7
646.219	1	4
646.388	1	4
646.558	1	3
646.728	1	8
646.897	1	3
647.067	1	19
647.236	1	2
647.406	1	6
647.575	1	-7
647.745	1	3
647.914	1	5
648.084	1	5
648.253	1	9
648.423	1	8
648.592	1	-9
648.762	1	0
648.931	1	-5
649.101	1	-1
649.270	1	-1
649.440	1	6
649.610	1	-1
649.779	1	12
649.949	1	9
650.118	1	-4
650.288	1	0
650.457	1	-3
650.627	1	3
650.796	1	-2
650.966	1	7
651.135	1	9
651.305	1	2
651.474	1	2
651.644	1	7
651.813	1	13
651.983	1	-10
652.152	1	2
652.322	1	2
652.491	1	4
652.661	1	-2
652.830	1	8
653.000	1	-2
653.169	1	4
653.339	1	4
653.508	1	10
653.678	1	0
653.847	1	0
654.017	1	-5
654.186	1	-11
654.356	1	6
654.525	1	0
654.695	1	-2
654.864	1	-3
655.034	1	2
655.203	1	0
655.373	1	7
655.542	1	3
655.712	1	3
655.881	1	-1
656.051	1	3
656.220	1	1
656.390	1	-7
656.559	1	3
656.729	1	5
656.898	1	-3
657.068	1	-1
657.237	1	11
657.406	1	6
657.576	1	4
657.745	1	-6
657.915	1	9
658.084	1	2
658.254	1	4
658.423	1	7
658.593	1	7
658.762	1	12
658.932	1	17
659.101	1	8
659.271	1	7
659.440	1	-8
659.610	1	3
659.779	1	5
659.949	1	8
660.118	1	-7
660.288	1	5
660.457	1	7
660.626	1	10
660.796	1	8
660.965	1	-4
661.135	1	15
661.304	1	6
661.474	1	4
661.643	1	-2
661.813	1	-2
661.982	1	-3
662.152	1	4
662.321	1	-1
662.491	1	22
662.660	1	12
662.829	1	14
662.999	1	0
663.168	1	-11
663.338	1	-3
663.507	1	9
663.677	1	-4
663.846	1	2
664.016	1	8
664.185	1	-6
664.354	1	10
664.524	1	-5
664.693	1	5
664.863	1	-1
665.032	1	12
665.202	1	0
665.371	1	3
665.541	1	-5
665.710	1	3
665.879	1	7
666.049	1	4
666.218	1	3
666.388	1	-2
666.557	1	2
666.727	1	-8
666.896	1	11
667.065	1	15
667.235	1	9
667.404	1	-3
667.574	1	4
667.743	1	-1
667.913	1	5
668.082	1	4
668.251	1	-2
668.421	1	-5
668.590	1	4
668.760	1	4
668.929	1	2
669.099	1	-7
669.268	1	0
669.437	1	-2
669.607	1	3
669.776	1	0
669.946	1	8
670.115	1	18
670.285	1	9
670.454	1	5
670.623	1	10
670.793	1	-4
670.962	1	-3
671.132	1	0
671.301	1	2
671.470	1	16
671.640	1	-2
671.809	1	0
671.979	1	3
672.148	1	7
672.317	1	-5
672.487	1	-10
672.656	1	2
672.826	1	-4
672.995	1	3
673.164	1	8
673.334	1	2
673.503	1	-8
673.673	1	11
673.842	1	-4
674.011	1	10
674.181	1	12
674.350	1	0
674.520	1	-1
674.689	1	2
674.858	1	5
675.028	1	7
675.197	1	3
675.367	1	6
675.536	1	10
675.705	1	17
675.875	1	-5
676.044	1	6
676.214	1	10
676.383	1	4
676.552	1	2
676.722	1	4
676.891	1	-4
677.060	1	11
677.230	1	6
677.399	1	-3
677.569	1	8
677.738	1	3
677.907	1	2
678.077	1	4
678.246	1	5
678.416	1	6
678.585	1	2
678.754	1	8
678.924	1	2
679.093	1	5
679.262	1	0
679.432	1	8
679.601	1	7
679.771	1	5
679.940	1	4
680.109	1	-6
680.279	1	4
680.448	1	1
680.617	1	-17
680.787	1	4
680.956	1	6
681.125	1	9
681.295	1	3
681.464	1	-2
681.634	1	6
681.803	1	-5
681.972	1	0
682.142	1	-3
682.311	1	-8
682.480	1	8
682.650	1	5
682.819	1	4
682.988	1	4
683.158	1	3
683.327	1	-3
683.496	1	-3
683.666	1	6
683.835	1	5
684.004	1	10
684.174	1	14
684.343	1	-2
684.512	1	6
684.682	1	1
684.851	1	2
685.021	1	9
685.190	1	-2
685.359	1	-4
685.529	1	-10
685.698	1	1
685.867	1	12
686.037	1	1
686.206	1	4
686.375	1	-4
686.545	1	7
686.714	1	-6
686.883	1	1
687.053	1	2
687.222	1	1
687.391	1	4
687.561	1	6
687.730	1	1
687.899	1	1
688.069	1	6
688.238	1	11
688.407	1	0
688.577	1	-4
688.746	1	7
