340.368	1	4
340.539	1	11
340.710	1	7
340.881	1	5
341.052	1	1
341.223	1	2
341.394	1	1
341.565	1	-4
341.737	1	-5
341.908	1	1
342.079	1	-1
342.250	1	6
342.421	1	1
342.592	1	3
342.763	1	8
342.934	1	15
343.105	1	9
343.276	1	11
343.447	1	-2
343.618	1	-2
343.789	1	0
343.960	1	-9
344.131	1	1
344.302	1	17
344.473	1	2
344.644	1	12
344.815	1	-9
344.986	1	11
345.157	1	-7
345.328	1	12
345.499	1	0
345.670	1	-10
345.841	1	-3
346.012	1	6
346.183	1	15
346.354	1	8
346.526	1	2
346.697	1	3
346.868	1	3
347.039	1	0
347.210	1	1
347.381	1	0
347.552	1	-1
347.723	1	6
347.894	1	5
348.065	1	7
348.236	1	6
348.407	1	-2
348.578	1	6
348.749	1	6
348.920	1	7
349.091	1	11
349.262	1	4
349.433	1	4
349.604	1	5
349.775	1	-4
349.946	1	0
350.117	1	11
350.288	1	-8
350.459	1	-4
350.630	1	9
350.801	1	1
350.972	1	6
351.143	1	1
351.314	1	-4
351.485	1	8
351.656	1	9
351.827	1	-2
351.998	1	4
352.169	1	0
352.340	1	15
352.511	1	8
352.682	1	3
352.853	1	11
353.024	1	1
353.195	1	7
353.366	1	5
353.537	1	1
353.708	1	-10
353.879	1	4
354.050	1	9
354.221	1	10
354.392	1	9
354.563	1	-1
354.734	1	-4
354.905	1	8
355.076	1	2
355.247	1	-2
355.418	1	3
355.589	1	-1
355.760	1	8
355.931	1	9
356.102	1	7
356.273	1	4
356.444	1	-8
356.615	1	1
356.785	1	2
356.956	1	5
357.127	1	7
357.298	1	-1
357.469	1	-1
357.640	1	9
357.811	1	11
357.982	1	18
358.153	1	-7
358.324	1	-2
358.495	1	1
358.666	1	4
358.837	1	5
359.008	1	9
359.179	1	1
359.350	1	1
359.521	1	0
359.692	1	1
359.863	1	15
360.034	1	2
360.205	1	4
360.376	1	11
360.547	1	4
360.718	1	19
360.889	1	4
361.060	1	2
361.231	1	-4
361.401	1	3
361.572	1	12
361.743	1	12
361.914	1	10
362.085	1	2
362.256	1	7
362.427	1	13
362.598	1	9
362.769	1	13
362.940	1	0
363.111	1	15
363.282	1	8
363.453	1	-3
363.624	1	11
363.795	1	7
363.966	1	26
364.137	1	9
364.308	1	20
364.478	1	6
364.649	1	18
364.820	1	8
364.991	1	12
365.162	1	7
365.333	1	18
365.504	1	25
365.675	1	15
365.846	1	10
366.017	1	22
366.188	1	14
366.359	1	11
366.530	1	7
366.701	1	15
366.871	1	21
367.042	1	24
367.213	1	20
367.384	1	24
367.555	1	20
367.726	1	17
367.897	1	10
368.068	1	10
368.239	1	14
368.410	1	15
368.581	1	16
368.752	1	23
368.923	1	18
369.093	1	15
369.264	1	15
369.435	1	17
369.606	1	25
369.777	1	10
369.948	1	20
370.119	1	19
370.290	1	15
370.461	1	17
370.632	1	9
370.803	1	12
370.973	1	16
371.144	1	11
371.315	1	21
371.486	1	13
371.657	1	6
371.828	1	12
371.999	1	7
372.170	1	8
372.341	1	12
372.512	1	19
372.682	1	12
372.853	1	7
373.024	1	9
373.195	1	9
373.366	1	8
373.537	1	14
373.708	1	21
373.879	1	14
374.050	1	14
374.220	1	2
374.391	1	6
374.562	1	10
374.733	1	2
374.904	1	19
375.075	1	13
375.246	1	18
375.417	1	2
375.588	1	4
375.758	1	-4
375.929	1	-4
376.100	1	-1
376.271	1	4
376.442	1	10
376.613	1	-3
376.784	1	7
376.955	1	7
377.125	1	17
377.296	1	12
377.467	1	21
377.638	1	-7
377.809	1	1
377.980	1	4
378.151	1	8
378.321	1	3
378.492	1	15
378.663	1	12
378.834	1	1
379.005	1	20
379.176	1	7
379.347	1	6
379.518	1	4
379.688	1	-3
379.859	1	3
380.030	1	4
380.201	1	19
380.372	1	6
380.543	1	6
380.714	1	18
380.884	1	9
381.055	1	8
381.226	1	4
381.397	1	12
381.568	1	2
381.739	1	15
381.910	1	6
382.080	1	0
382.251	1	8
382.422	1	21
382.593	1	2
382.764	1	5
382.935	1	0
383.105	1	7
383.276	1	5
383.447	1	8
383.618	1	8
383.789	1	12
383.960	1	8
384.130	1	14
384.301	1	0
384.472	1	18
384.643	1	5
384.814	1	-3
384.985	1	10
385.156	1	-3
385.326	1	7
385.497	1	-1
385.668	1	3
385.839	1	5
386.010	1	5
386.180	1	14
386.351	1	1
386.522	1	2
386.693	1	0
386.864	1	2
387.035	1	16
387.205	1	2
387.376	1	16
387.547	1	0
387.718	1	5
387.889	1	0
388.060	1	3
388.230	1	-1
388.401	1	5
388.572	1	15
388.743	1	8
388.914	1	7
389.084	1	7
389.255	1	10
389.426	1	9
389.597	1	-4
389.768	1	9
389.939	1	8
390.109	1	5
390.280	1	9
390.451	1	3
390.622	1	5
390.793	1	11
390.963	1	8
391.134	1	3
391.305	1	5
391.476	1	15
391.647	1	11
391.817	1	13
391.988	1	9
392.159	1	-3
392.330	1	3
392.501	1	6
392.671	1	3
392.842	1	7
393.013	1	1
393.184	1	4
393.355	1	-1
393.525	1	6
393.696	1	-2
393.867	1	11
394.038	1	9
394.208	1	1
394.379	1	2
394.550	1	11
394.721	1	9
394.892	1	4
395.062	1	-5
395.233	1	5
395.404	1	0
395.575	1	3
395.746	1	15
395.916	1	7
396.087	1	10
396.258	1	1
396.429	1	6
396.599	1	11
396.770	1	6
396.941	1	8
397.112	1	11
397.283	1	11
397.453	1	13
397.624	1	9
397.795	1	4
397.966	1	11
398.136	1	6
398.307	1	21
398.478	1	5
398.649	1	13
398.819	1	-6
398.990	1	5
399.161	1	8
399.332	1	6
399.503	1	17
399.673	1	3
399.844	1	0
400.015	1	9
400.186	1	4
400.356	1	11
400.527	1	14
400.698	1	3
400.869	1	3
401.039	1	4
401.210	1	6
401.381	1	9
401.552	1	13
401.722	1	6
401.893	1	-12
402.064	1	-4
402.235	1	-3
402.405	1	-2
402.576	1	0
402.747	1	15
402.918	1	10
403.088	1	6
403.259	1	1
403.430	1	7
403.601	1	11
403.771	1	4
403.942	1	2
404.113	1	0
404.284	1	3
404.454	1	11
404.625	1	6
404.796	1	6
404.967	1	4
405.137	1	20
405.308	1	7
405.479	1	1
405.649	1	11
405.820	1	6
405.991	1	11
406.162	1	-7
406.332	1	10
406.503	1	2
406.674	1	14
406.845	1	3
407.015	1	12
407.186	1	5
407.357	1	1
407.527	1	10
407.698	1	5
407.869	1	1
408.040	1	8
408.210	1	8
408.381	1	11
408.552	1	-4
408.722	1	13
408.893	1	11
409.064	1	1
409.235	1	3
409.405	1	3
409.576	1	4
409.747	1	-2
409.917	1	-1
410.088	1	10
410.259	1	13
410.430	1	7
410.600	1	13
410.771	1	-4
410.942	1	9
411.112	1	15
411.283	1	-1
411.454	1	-3
411.625	1	8
411.795	1	9
411.966	1	13
412.137	1	-10
412.307	1	-1
412.478	1	4
412.649	1	20
412.819	1	9
412.990	1	5
413.161	1	11
413.332	1	-1
413.502	1	16
413.673	1	5
413.844	1	1
414.014	1	8
414.185	1	5
414.356	1	7
414.526	1	7
414.697	1	0
414.868	1	4
415.038	1	2
415.209	1	9
415.380	1	11
415.550	1	2
415.721	1	7
415.892	1	6
416.063	1	-1
416.233	1	6
416.404	1	8
416.575	1	9
416.745	1	7
416.916	1	1
417.087	1	13
417.257	1	13
417.428	1	6
417.599	1	13
417.769	1	11
417.940	1	6
418.111	1	4
418.281	1	1
418.452	1	10
418.623	1	10
418.793	1	0
418.964	1	-2
419.135	1	9
419.305	1	7
419.476	1	-1
419.647	1	12
419.817	1	7
419.988	1	13
420.159	1	8
420.329	1	5
420.500	1	5
420.671	1	4
420.841	1	9
421.012	1	4
421.183	1	15
421.353	1	-1
421.524	1	-1
421.695	1	0
421.865	1	6
422.036	1	11
422.206	1	-2
422.377	1	9
422.548	1	12
422.718	1	9
422.889	1	4
423.060	1	11
423.230	1	1
423.401	1	9
423.572	1	-13
423.742	1	6
423.913	1	10
424.084	1	5
424.254	1	6
424.425	1	4
424.595	1	6
424.766	1	8
424.937	1	13
425.107	1	5
425.278	1	2
425.449	1	18
425.619	1	9
425.790	1	8
425.961	1	1
426.131	1	13
426.302	1	6
426.472	1	1
426.643	1	-8
426.814	1	10
426.984	1	10
427.155	1	6
427.326	1	-2
427.496	1	17
427.667	1	17
427.837	1	10
428.008	1	7
428.179	1	6
428.349	1	-1
428.520	1	10
428.691	1	11
428.861	1	2
429.032	1	-6
429.202	1	5
429.373	1	5
429.544	1	13
429.714	1	-2
429.885	1	7
430.055	1	4
430.226	1	6
430.397	1	-7
430.567	1	-2
430.738	1	7
430.909	1	4
431.079	1	16
431.250	1	18
431.420	1	12
431.591	1	8
431.762	1	1
431.932	1	6
432.103	1	-3
432.273	1	5
432.444	1	7
432.615	1	13
432.785	1	-6
432.956	1	-3
433.126	1	15
433.297	1	5
433.468	1	1
433.638	1	7
433.809	1	10
433.979	1	6
434.150	1	8
434.320	1	6
434.491	1	12
434.662	1	2
434.832	1	-2
435.003	1	14
435.173	1	6
435.344	1	11
435.515	1	10
435.685	1	3
435.856	1	0
436.026	1	15
436.197	1	6
436.368	1	5
436.538	1	16
436.709	1	6
436.879	1	-1
437.050	1	14
437.220	1	-5
437.391	1	19
437.562	1	14
437.732	1	9
437.903	1	13
438.073	1	13
438.244	1	7
438.414	1	-7
438.585	1	4
438.756	1	5
438.926	1	-1
439.097	1	2
439.267	1	-2
439.438	1	4
439.608	1	19
439.779	1	5
439.949	1	11
440.120	1	6
440.291	1	11
440.461	1	15
440.632	1	3
440.802	1	-6
440.973	1	3
441.143	1	-2
441.314	1	0
441.485	1	10
441.655	1	21
441.826	1	3
441.996	1	9
442.167	1	7
442.337	1	6
442.508	1	0
442.678	1	-4
442.849	1	7
443.019	1	7
443.190	1	3
443.361	1	5
443.531	1	1
443.702	1	3
443.872	1	9
444.043	1	-5
444.213	1	5
444.384	1	-10
444.554	1	1
444.725	1	7
444.895	1	5
445.066	1	4
445.237	1	0
445.407	1	3
445.578	1	-3
445.748	1	20
445.919	1	1
446.089	1	6
446.260	1	6
446.430	1	-5
446.601	1	8
446.771	1	9
446.942	1	14
447.112	1	4
447.283	1	8
447.453	1	3
447.624	1	10
447.794	1	21
447.965	1	0
448.135	1	9
448.306	1	7
448.477	1	6
448.647	1	11
448.818	1	-6
448.988	1	12
449.159	1	7
449.329	1	6
449.500	1	-3
449.670	1	8
449.841	1	-4
450.011	1	-8
450.182	1	7
450.352	1	10
450.523	1	6
450.693	1	-5
450.864	1	2
451.034	1	-1
451.205	1	4
451.375	1	3
451.546	1	14
451.716	1	-6
451.887	1	1
452.057	1	13
452.228	1	3
452.398	1	-8
452.569	1	4
452.739	1	10
452.910	1	3
453.080	1	0
453.251	1	13
453.421	1	8
453.592	1	1
453.762	1	-3
453.933	1	2
454.103	1	-1
454.274	1	-5
454.444	1	2
454.615	1	7
454.785	1	13
454.956	1	-3
455.126	1	-8
455.297	1	14
455.467	1	9
455.638	1	9
455.808	1	9
455.979	1	6
456.149	1	-6
456.320	1	-3
456.490	1	5
456.661	1	-2
456.831	1	9
457.001	1	2
457.172	1	5
457.342	1	5
457.513	1	-8
457.683	1	2
457.854	1	8
458.024	1	15
458.195	1	-6
458.365	1	17
458.536	1	5
458.706	1	1
458.877	1	20
459.047	1	-4
459.218	1	5
459.388	1	0
459.559	1	6
459.729	1	2
459.899	1	4
460.070	1	3
460.240	1	13
460.411	1	8
460.581	1	-6
460.752	1	18
460.922	1	2
461.093	1	6
461.263	1	9
461.434	1	13
461.604	1	-4
461.775	1	7
461.945	1	7
462.115	1	-3
462.286	1	6
462.456	1	5
462.627	1	0
462.797	1	6
462.968	1	5
463.138	1	-4
463.309	1	6
463.479	1	5
463.649	1	-6
463.820	1	-2
463.990	1	2
464.161	1	-5
464.331	1	4
464.502	1	3
464.672	1	12
464.843	1	1
465.013	1	-3
465.183	1	13
465.354	1	3
465.524	1	-6
465.695	1	6
465.865	1	-11
466.036	1	2
466.206	1	0
466.376	1	9
466.547	1	-9
466.717	1	2
466.888	1	4
467.058	1	12
467.229	1	0
467.399	1	1
467.569	1	-3
467.740	1	23
467.910	1	4
468.081	1	13
468.251	1	4
468.422	1	2
468.592	1	4
468.762	1	-5
468.933	1	2
469.103	1	9
469.274	1	10
469.444	1	-1
469.614	1	10
469.785	1	12
469.955	1	-10
470.126	1	1
470.296	1	2
470.467	1	2
470.637	1	4
470.807	1	6
470.978	1	-2
471.148	1	0
471.319	1	5
471.489	1	0
471.659	1	-9
471.830	1	6
472.000	1	9
472.171	1	7
472.341	1	-3
472.511	1	1
472.682	1	4
472.852	1	3
473.023	1	10
473.193	1	1
473.363	1	8
473.534	1	-5
473.704	1	-5
473.875	1	14
474.045	1	-8
474.215	1	6
474.386	1	-4
474.556	1	11
474.727	1	10
474.897	1	6
475.067	1	5
475.238	1	16
475.408	1	8
475.578	1	6
475.749	1	7
475.919	1	-2
476.090	1	3
476.260	1	9
476.430	1	9
476.601	1	3
476.771	1	-6
476.942	1	6
477.112	1	16
477.282	1	14
477.453	1	1
477.623	1	-13
477.793	1	3
477.964	1	-2
478.134	1	7
478.305	1	3
478.475	1	-2
478.645	1	3
478.816	1	2
478.986	1	-3
479.156	1	-1
479.327	1	-11
479.497	1	7
479.667	1	9
479.838	1	10
480.008	1	-1
480.179	1	1
480.349	1	-6
480.519	1	-7
480.690	1	4
480.860	1	11
481.030	1	8
481.201	1	6
481.371	1	5
481.541	1	0
481.712	1	9
481.882	1	2
482.053	1	-2
482.223	1	-5
482.393	1	12
482.564	1	1
482.734	1	1
482.904	1	5
483.075	1	15
483.245	1	6
483.415	1	-3
483.586	1	-1
483.756	1	-6
483.926	1	6
484.097	1	4
484.267	1	11
484.437	1	-3
484.608	1	8
484.778	1	7
484.948	1	1
485.119	1	15
485.289	1	4
485.459	1	-9
485.630	1	-8
485.800	1	9
485.970	1	-2
486.141	1	3
486.311	1	10
486.481	1	-4
486.652	1	1
486.822	1	8
486.992	1	7
487.163	1	-2
487.333	1	-4
487.503	1	-4
487.674	1	12
487.844	1	3
488.014	1	3
488.185	1	1
488.355	1	15
488.525	1	8
488.696	1	1
488.866	1	10
489.036	1	5
489.207	1	-5
489.377	1	-6
489.547	1	3
489.718	1	6
489.888	1	8
490.058	1	5
490.228	1	3
490.399	1	2
490.569	1	-1
490.739	1	7
490.910	1	2
491.080	1	-3
491.250	1	6
491.421	1	8
491.591	1	-14
491.761	1	-1
491.932	1	-2
492.102	1	13
492.272	1	-5
492.442	1	-1
492.613	1	3
492.783	1	-4
492.953	1	4
493.124	1	1
493.294	1	8
493.464	1	4
493.635	1	5
493.805	1	4
493.975	1	10
494.145	1	-3
494.316	1	6
494.486	1	18
494.656	1	-6
494.827	1	-4
494.997	1	-1
495.167	1	15
495.337	1	-5
495.508	1	4
495.678	1	10
495.848	1	8
496.019	1	-5
496.189	1	14
496.359	1	8
496.529	1	4
496.700	1	-5
496.870	1	-2
497.040	1	6
497.211	1	5
497.381	1	4
497.551	1	13
497.721	1	2
497.892	1	5
498.062	1	-3
498.232	1	10
498.403	1	-3
498.573	1	18
498.743	1	9
498.913	1	4
499.084	1	9
499.254	1	8
499.424	1	-6
499.594	1	7
499.765	1	-1
499.935	1	-2
500.105	1	5
500.275	1	9
500.446	1	13
500.616	1	5
500.786	1	13
500.956	1	6
501.127	1	2
501.297	1	2
501.467	1	4
501.638	1	6
501.808	1	3
501.978	1	2
502.148	1	8
502.319	1	-2
502.489	1	5
502.659	1	0
502.829	1	10
503.000	1	2
503.170	1	-4
503.340	1	-3
503.510	1	3
503.681	1	-2
503.851	1	1
504.021	1	-2
504.191	1	1
504.362	1	3
504.532	1	2
504.702	1	2
504.872	1	4
505.042	1	7
505.213	1	4
505.383	1	11
505.553	1	9
505.723	1	18
505.894	1	8
506.064	1	8
506.234	1	0
506.404	1	4
506.575	1	-5
506.745	1	7
506.915	1	-1
507.085	1	12
507.256	1	11
507.426	1	19
507.596	1	-4
507.766	1	18
507.936	1	-3
508.107	1	-2
508.277	1	7
508.447	1	9
508.617	1	-2
508.788	1	-2
508.958	1	14
509.128	1	8
509.298	1	-3
509.468	1	-2
509.639	1	8
509.809	1	3
509.979	1	2
510.149	1	0
510.319	1	14
510.490	1	0
510.660	1	-5
510.830	1	19
511.000	1	5
511.171	1	14
511.341	1	0
511.511	1	2
511.681	1	9
511.851	1	5
512.022	1	13
512.192	1	-8
512.362	1	3
512.532	1	1
512.702	1	9
512.873	1	3
513.043	1	17
513.213	1	10
513.383	1	15
513.553	1	7
513.724	1	-2
513.894	1	-1
514.064	1	5
514.234	1	7
514.404	1	14
514.575	1	-9
514.745	1	10
514.915	1	0
515.085	1	6
515.255	1	18
515.425	1	11
515.596	1	-1
515.766	1	12
515.936	1	8
516.106	1	1
516.276	1	3
516.447	1	6
516.617	1	1
516.787	1	2
516.957	1	3
517.127	1	9
517.297	1	-7
517.468	1	3
517.638	1	5
517.808	1	18
517.978	1	-3
518.148	1	13
518.319	1	1
518.489	1	10
518.659	1	-5
518.829	1	10
518.999	1	3
519.169	1	13
519.340	1	-4
519.510	1	3
519.680	1	9
519.850	1	15
520.020	1	14
520.190	1	12
520.361	1	0
520.531	1	16
520.701	1	5
520.871	1	3
521.041	1	16
521.211	1	8
521.382	1	5
521.552	1	9
521.722	1	11
521.892	1	4
522.062	1	4
522.232	1	5
522.402	1	-2
522.573	1	6
522.743	1	19
522.913	1	12
523.083	1	4
523.253	1	12
523.423	1	4
523.593	1	4
523.764	1	-5
523.934	1	4
524.104	1	2
524.274	1	3
524.444	1	7
524.614	1	10
524.784	1	17
524.955	1	12
525.125	1	6
525.295	1	12
525.465	1	7
525.635	1	5
525.805	1	3
525.975	1	19
526.146	1	1
526.316	1	0
526.486	1	6
526.656	1	4
526.826	1	17
526.996	1	-3
527.166	1	10
527.337	1	17
527.507	1	16
527.677	1	8
527.847	1	10
528.017	1	8
528.187	1	5
528.357	1	7
528.527	1	9
528.698	1	5
528.868	1	1
529.038	1	-8
529.208	1	9
529.378	1	6
529.548	1	5
529.718	1	16
529.888	1	3
530.058	1	0
530.229	1	9
530.399	1	3
530.569	1	10
530.739	1	2
530.909	1	14
531.079	1	1
531.249	1	12
531.419	1	16
531.589	1	13
531.760	1	-5
531.930	1	14
532.100	1	14
532.270	1	-2
532.440	1	4
532.610	1	12
532.780	1	0
532.950	1	11
533.120	1	16
533.290	1	12
533.461	1	6
533.631	1	2
533.801	1	18
533.971	1	10
534.141	1	7
534.311	1	10
534.481	1	10
534.651	1	9
534.821	1	9
534.991	1	4
535.162	1	17
535.332	1	15
535.502	1	11
535.672	1	11
535.842	1	17
536.012	1	2
536.182	1	11
536.352	1	7
536.522	1	4
536.692	1	2
536.862	1	4
537.032	1	8
537.203	1	4
537.373	1	4
537.543	1	11
537.713	1	4
537.883	1	-5
538.053	1	-4
538.223	1	7
538.393	1	11
538.563	1	16
538.733	1	8
538.903	1	19
539.073	1	5
539.243	1	11
539.413	1	16
539.584	1	1
539.754	1	7
539.924	1	0
540.094	1	3
540.264	1	-4
540.434	1	8
540.604	1	17
540.774	1	6
540.944	1	8
541.114	1	3
541.284	1	1
541.454	1	4
541.624	1	20
541.794	1	13
541.964	1	9
542.134	1	2
542.305	1	10
542.475	1	2
542.645	1	1
542.815	1	7
542.985	1	9
543.155	1	3
543.325	1	11
543.495	1	3
543.665	1	9
543.835	1	12
544.005	1	11
544.175	1	6
544.345	1	9
544.515	1	6
544.685	1	12
544.855	1	9
545.025	1	3
545.195	1	10
545.365	1	17
545.535	1	13
545.705	1	1
545.875	1	14
546.045	1	8
546.216	1	16
546.386	1	5
546.556	1	5
546.726	1	4
546.896	1	3
547.066	1	11
547.236	1	-1
547.406	1	-8
547.576	1	12
547.746	1	5
547.916	1	4
548.086	1	0
548.256	1	-4
548.426	1	6
548.596	1	6
548.766	1	6
548.936	1	13
549.106	1	3
549.276	1	0
549.446	1	-3
549.616	1	2
549.786	1	3
549.956	1	-1
550.126	1	10
550.296	1	1
550.466	1	10
550.636	1	2
550.806	1	12
550.976	1	3
551.146	1	9
551.316	1	17
551.486	1	8
551.656	1	10
551.826	1	5
551.996	1	6
552.166	1	-1
552.336	1	5
552.506	1	1
552.676	1	6
552.846	1	-2
553.016	1	11
553.186	1	0
553.356	1	12
553.526	1	9
553.696	1	3
553.866	1	-8
554.036	1	-2
554.206	1	4
554.376	1	17
554.546	1	14
554.716	1	2
554.886	1	-3
555.056	1	11
555.226	1	12
555.396	1	-3
555.566	1	5
555.736	1	2
555.906	1	0
556.076	1	7
556.246	1	4
556.416	1	9
556.586	1	7
556.756	1	10
556.926	1	-2
557.096	1	-4
557.266	1	-1
557.436	1	7
557.606	1	5
557.776	1	5
557.946	1	11
558.116	1	5
558.286	1	18
558.456	1	7
558.626	1	-7
558.796	1	18
558.966	1	10
559.136	1	0
559.306	1	6
559.476	1	3
559.646	1	8
559.816	1	12
559.986	1	4
560.155	1	-6
560.325	1	-6
560.495	1	2
560.665	1	16
560.835	1	13
561.005	1	6
561.175	1	13
561.345	1	12
561.515	1	1
561.685	1	7
561.855	1	2
562.025	1	1
562.195	1	2
562.365	1	15
562.535	1	8
562.705	1	8
562.875	1	9
563.045	1	-1
563.215	1	10
563.385	1	6
563.555	1	13
563.725	1	6
563.895	1	8
564.064	1	1
564.234	1	5
564.404	1	5
564.574	1	14
564.744	1	6
564.914	1	6
565.084	1	-1
565.254	1	-6
565.424	1	1
565.594	1	10
565.764	1	6
565.934	1	6
566.104	1	2
566.274	1	7
566.444	1	11
566.614	1	11
566.783	1	10
566.953	1	0
567.123	1	7
567.293	1	17
567.463	1	-1
567.633	1	-7
567.803	1	14
567.973	1	8
568.143	1	13
568.313	1	-5
568.483	1	4
568.653	1	-2
568.823	1	-1
568.993	1	7
569.162	1	7
569.332	1	13
569.502	1	2
569.672	1	1
569.842	1	-3
570.012	1	-3
570.182	1	1
570.352	1	-2
570.522	1	-9
570.692	1	6
570.862	1	22
571.031	1	8
571.201	1	8
571.371	1	5
571.541	1	0
571.711	1	6
571.881	1	7
572.051	1	12
572.221	1	6
572.391	1	6
572.561	1	12
572.731	1	10
572.900	1	7
573.070	1	-3
573.240	1	-6
573.410	1	-3
573.580	1	-1
573.750	1	-2
573.920	1	13
574.090	1	-6
574.260	1	-3
574.430	1	8
574.599	1	12
574.769	1	0
574.939	1	9
575.109	1	14
575.279	1	2
575.449	1	12
575.619	1	2
575.789	1	13
575.959	1	5
576.128	1	5
576.298	1	-2
576.468	1	-2
576.638	1	-4
576.808	1	-3
576.978	1	-1
577.148	1	10
577.318	1	-8
577.487	1	8
577.657	1	7
577.827	1	-5
577.997	1	3
578.167	1	2
578.337	1	4
578.507	1	-1
578.677	1	7
578.846	1	4
579.016	1	4
579.186	1	9
579.356	1	6
579.526	1	0
579.696	1	4
579.866	1	0
580.036	1	6
580.205	1	-5
580.375	1	-2
580.545	1	-2
580.715	1	17
580.885	1	16
581.055	1	12
581.225	1	-3
581.394	1	5
581.564	1	9
581.734	1	4
581.904	1	6
582.074	1	0
582.244	1	-2
582.414	1	5
582.583	1	14
582.753	1	5
582.923	1	1
583.093	1	4
583.263	1	4
583.433	1	7
583.603	1	5
583.772	1	13
583.942	1	-4
584.112	1	8
584.282	1	-10
584.452	1	8
584.622	1	-4
584.791	1	6
584.961	1	5
585.131	1	16
585.301	1	1
585.471	1	7
585.641	1	16
585.811	1	0
585.980	1	-2
586.150	1	17
586.320	1	2
586.490	1	3
586.660	1	-9
586.830	1	-8
586.999	1	-7
587.169	1	5
587.339	1	2
587.509	1	9
587.679	1	10
587.849	1	7
588.018	1	4
588.188	1	6
588.358	1	0
588.528	1	5
588.698	1	0
588.867	1	-4
589.037	1	6
589.207	1	5
589.377	1	8
589.547	1	-13
589.717	1	-2
589.886	1	-6
590.056	1	-8
590.226	1	12
590.396	1	4
590.566	1	4
590.735	1	9
590.905	1	5
591.075	1	7
591.245	1	-6
591.415	1	12
591.585	1	12
591.754	1	-3
591.924	1	4
592.094	1	-1
592.264	1	9
592.434	1	9
592.603	1	3
592.773	1	4
592.943	1	6
593.113	1	-6
593.283	1	-2
593.452	1	11
593.622	1	10
593.792	1	-11
593.962	1	5
594.132	1	4
594.301	1	-9
594.471	1	7
594.641	1	7
594.811	1	7
594.981	1	-3
595.150	1	4
595.320	1	5
595.490	1	5
595.660	1	-1
595.829	1	-3
595.999	1	11
596.169	1	7
596.339	1	8
596.509	1	2
596.678	1	0
596.848	1	-4
597.018	1	0
597.188	1	6
597.358	1	-4
597.527	1	-6
597.697	1	-3
597.867	1	11
598.037	1	8
598.206	1	3
598.376	1	5
598.546	1	4
598.716	1	3
598.885	1	5
599.055	1	10
599.225	1	4
599.395	1	-8
599.565	1	-3
599.734	1	-2
599.904	1	-5
600.074	1	2
600.244	1	-8
600.413	1	10
600.583	1	-5
600.753	1	-1
600.923	1	2
601.092	1	9
601.262	1	-5
601.432	1	-7
601.602	1	-9
601.771	1	8
601.941	1	-4
602.111	1	-5
602.281	1	6
602.451	1	6
602.620	1	9
602.790	1	-2
602.960	1	-5
603.130	1	4
603.299	1	10
603.469	1	0
603.639	1	-5
603.809	1	7
603.978	1	6
604.148	1	11
604.318	1	6
604.487	1	15
604.657	1	3
604.827	1	1
604.997	1	18
605.166	1	12
605.336	1	8
605.506	1	-1
605.676	1	-5
605.845	1	-3
606.015	1	0
606.185	1	5
606.355	1	6
606.524	1	1
606.694	1	-8
606.864	1	11
607.034	1	14
607.203	1	8
607.373	1	1
607.543	1	9
607.712	1	1
607.882	1	13
608.052	1	4
608.222	1	-5
608.391	1	6
608.561	1	-4
608.731	1	7
608.901	1	6
609.070	1	7
609.240	1	0
609.410	1	5
609.579	1	6
609.749	1	5
609.919	1	12
610.089	1	-1
610.258	1	3
610.428	1	-1
610.598	1	6
610.767	1	9
610.937	1	5
611.107	1	4
611.277	1	7
611.446	1	0
611.616	1	-5
611.786	1	6
611.955	1	2
612.125	1	4
612.295	1	12
612.465	1	-3
612.634	1	2
612.804	1	9
612.974	1	0
613.143	1	4
613.313	1	5
613.483	1	-1
613.652	1	-3
613.822	1	0
613.992	1	3
614.162	1	3
614.331	1	4
614.501	1	17
614.671	1	0
614.840	1	-4
615.010	1	5
615.180	1	7
615.349	1	-3
615.519	1	-12
615.689	1	6
615.858	1	0
616.028	1	10
616.198	1	10
616.368	1	4
616.537	1	6
616.707	1	15
616.877	1	2
617.046	1	12
617.216	1	9
617.386	1	-9
617.555	1	-2
617.725	1	6
617.895	1	2
618.064	1	12
618.234	1	2
618.404	1	0
618.573	1	7
618.743	1	4
618.913	1	4
619.082	1	-4
619.252	1	-6
619.422	1	-3
619.591	1	-3
619.761	1	12
619.931	1	-6
620.100	1	-2
620.270	1	-1
620.440	1	2
620.609	1	-12
620.779	1	2
620.949	1	-1
621.118	1	3
621.288	1	-1
621.458	1	4
621.627	1	6
621.797	1	-3
621.967	1	13
622.136	1	10
622.306	1	-3
622.476	1	8
622.645	1	14
622.815	1	-5
622.985	1	0
623.154	1	6
623.324	1	-5
623.494	1	13
623.663	1	-2
623.833	1	6
624.002	1	7
624.172	1	8
624.342	1	5
624.511	1	10
624.681	1	-6
624.851	1	3
625.020	1	-6
625.190	1	-5
625.360	1	-2
625.529	1	-2
625.699	1	-4
625.869	1	12
626.038	1	2
626.208	1	3
626.377	1	6
626.547	1	1
626.717	1	3
626.886	1	0
627.056	1	14
627.226	1	4
627.395	1	-13
627.565	1	2
627.735	1	2
627.904	1	3
628.074	1	10
628.243	1	8
628.413	1	5
628.583	1	-8
628.752	1	0
628.922	1	-2
629.091	1	-5
629.261	1	-4
629.431	1	9
629.600	1	5
629.770	1	3
629.940	1	15
630.109	1	7
630.279	1	16
630.448	1	0
630.618	1	-6
630.788	1	-3
630.957	1	7
631.127	1	1
631.297	1	7
631.466	1	7
631.636	1	14
631.805	1	-1
631.975	1	3
632.145	1	3
632.314	1	3
632.484	1	1
632.653	1	2
632.823	1	6
632.993	1	1
633.162	1	-4
633.332	1	-6
633.501	1	17
633.671	1	-1
633.841	1	11
634.010	1	-8
634.180	1	3
634.349	1	8
634.519	1	8
634.689	1	14
634.858	1	4
635.028	1	10
635.197	1	8
635.367	1	6
635.537	1	-11
635.706	1	-2
635.876	1	11
636.045	1	16
636.215	1	8
636.384	1	-4
636.554	1	15
636.724	1	13
636.893	1	4
637.063	1	-3
637.232	1	4
637.402	1	-1
637.572	1	-2
637.741	1	10
637.911	1	1
638.080	1	11
638.250	1	8
638.419	1	1
638.589	1	0
638.759	1	4
638.928	1	3
639.098	1	3
639.267	1	5
639.437	1	11
639.606	1	8
639.776	1	-3
639.946	1	-2
640.115	1	12
640.285	1	3
640.454	1	3
640.624	1	-7
640.793	1	-10
640.963	1	-4
641.132	1	15
641.302	1	22
641.472	1	1
641.641	1	1
641.811	1	1
641.980	1	0
642.150	1	-3
642.319	1	14
642.489	1	-10
642.659	1	-1
642.828	1	-1
642.998	1	14
643.167	1	2
643.337	1	2
643.506	1	0
643.676	1	6
643.845	1	3
644.015	1	2
644.184	1	5
644.354	1	2
644.524	1	4
644.693	1	-7
644.863	1	-1
645.032	1	3
645.202	1	-3
645.371	1	12
645.541	1	1
645.710	1	9
645.880	1	17
646.049	1	-9
646.219	1	1
646.388	1	11
646.558	1	-3
646.728	1	-7
646.897	1	-6
647.067	1	8
647.236	1	-5
647.406	1	7
647.575	1	0
647.745	1	5
647.914	1	-5
648.084	1	-4
648.253	1	5
648.423	1	8
648.592	1	-1
648.762	1	0
648.931	1	-6
649.101	1	4
649.270	1	-6
649.440	1	2
649.610	1	-3
649.779	1	12
649.949	1	7
650.118	1	5
650.288	1	0
650.457	1	2
650.627	1	3
650.796	1	7
650.966	1	2
651.135	1	9
651.305	1	-1
651.474	1	2
651.644	1	-1
651.813	1	8
651.983	1	-6
652.152	1	1
652.322	1	5
652.491	1	-3
652.661	1	3
652.830	1	5
653.000	1	11
653.169	1	4
653.339	1	1
653.508	1	8
653.678	1	5
653.847	1	-4
654.017	1	0
654.186	1	-8
654.356	1	9
654.525	1	3
654.695	1	1
654.864	1	1
655.034	1	7
655.203	1	-7
655.373	1	0
655.542	1	-4
655.712	1	3
655.881	1	7
656.051	1	6
656.220	1	1
656.390	1	-3
656.559	1	4
656.729	1	1
656.898	1	1
657.068	1	-3
657.237	1	9
657.406	1	7
657.576	1	3
657.745	1	1
657.915	1	5
658.084	1	-5
658.254	1	-1
658.423	1	7
658.593	1	4
658.762	1	17
658.932	1	15
659.101	1	5
659.271	1	-1
659.440	1	-3
659.610	1	5
659.779	1	7
659.949	1	5
660.118	1	0
660.288	1	-1
660.457	1	-1
660.626	1	3
660.796	1	4
660.965	1	5
661.135	1	7
661.304	1	11
661.474	1	8
661.643	1	1
661.813	1	-2
661.982	1	2
662.152	1	6
662.321	1	-1
662.491	1	20
662.660	1	2
662.829	1	6
662.999	1	1
663.168	1	-3
663.338	1	-4
663.507	1	-4
663.677	1	2
663.846	1	7
664.016	1	1
664.185	1	-5
664.354	1	10
664.524	1	-6
664.693	1	19
664.863	1	2
665.032	1	10
665.202	1	9
665.371	1	5
665.541	1	0
665.710	1	3
665.879	1	11
666.049	1	12
666.218	1	-1
666.388	1	6
666.557	1	-2
666.727	1	-6
666.896	1	8
667.065	1	13
667.235	1	5
667.404	1	5
667.574	1	16
667.743	1	-1
667.913	1	3
668.082	1	-2
668.251	1	8
668.421	1	-8
668.590	1	2
668.760	1	-4
668.929	1	7
669.099	1	-8
669.268	1	-4
669.437	1	-4
669.607	1	7
669.776	1	-4
669.946	1	12
670.115	1	10
670.285	1	14
670.454	1	5
670.623	1	14
670.793	1	-6
670.962	1	7
671.132	1	-1
671.301	1	-2
671.470	1	9
671.640	1	0
671.809	1	-1
671.979	1	13
672.148	1	0
672.317	1	4
672.487	1	-2
672.656	1	-4
672.826	1	3
672.995	1	1
673.164	1	10
673.334	1	1
673.503	1	-7
673.673	1	3
673.842	1	-2
674.011	1	5
674.181	1	12
674.350	1	2
674.520	1	2
674.689	1	0
674.858	1	-3
675.028	1	15
675.197	1	3
675.367	1	-12
675.536	1	16
675.705	1	5
675.875	1	2
676.044	1	0
676.214	1	18
676.383	1	1
676.552	1	5
676.722	1	-1
676.891	1	-6
677.060	1	10
677.230	1	6
677.399	1	3
677.569	1	-4
677.738	1	-4
677.907	1	-1
678.077	1	5
678.246	1	10
678.416	1	4
678.585	1	3
678.754	1	3
678.924	1	-3
679.093	1	1
679.262	1	-3
679.432	1	2
679.601	1	6
679.771	1	6
679.940	1	2
680.109	1	0
680.279	1	0
680.448	1	4
680.617	1	-7
680.787	1	4
680.956	1	3
681.125	1	14
681.295	1	5
681.464	1	-7
681.634	1	8
681.803	1	3
681.972	1	9
682.142	1	-5
682.311	1	-3
682.480	1	11
682.650	1	-3
682.819	1	-1
682.988	1	-3
683.158	1	3
683.327	1	7
683.496	1	-4
683.666	1	-6
683.835	1	-1
684.004	1	1
684.174	1	7
684.343	1	2
684.512	1	12
684.682	1	-3
684.851	1	-5
685.021	1	1
685.190	1	8
685.359	1	-6
685.529	1	0
685.698	1	2
685.867	1	-5
686.037	1	9
686.206	1	8
686.375	1	-1
686.545	1	-3
686.714	1	-8
686.883	1	-1
687.053	1	1
687.222	1	-2
687.391	1	-3
687.561	1	10
687.730	1	0
687.899	1	10
688.069	1	-1
688.238	1	5
688.407	1	3
688.577	1	1
688.746	1	9
