340.368	1	6
340.539	1	4
340.710	1	10
340.881	1	3
341.052	1	-10
341.223	1	-8
341.394	1	2
341.565	1	-10
341.737	1	-3
341.908	1	4
342.079	1	5
342.250	1	15
342.421	1	6
342.592	1	5
342.763	1	6
342.934	1	-3
343.105	1	8
343.276	1	0
343.447	1	9
343.618	1	-4
343.789	1	7
343.960	1	-10
344.131	1	3
344.302	1	7
344.473	1	1
344.644	1	7
344.815	1	4
344.986	1	8
345.157	1	-10
345.328	1	2
345.499	1	-6
345.670	1	-3
345.841	1	-3
346.012	1	3
346.183	1	7
346.354	1	5
346.526	1	-5
346.697	1	-2
346.868	1	6
347.039	1	-4
347.210	1	8
347.381	1	3
347.552	1	8
347.723	1	3
347.894	1	7
348.065	1	7
348.236	1	-2
348.407	1	12
348.578	1	-1
348.749	1	-1
348.920	1	3
349.091	1	7
349.262	1	10
349.433	1	18
349.604	1	10
349.775	1	9
349.946	1	15
350.117	1	5
350.288	1	-7
350.459	1	-2
350.630	1	10
350.801	1	3
350.972	1	16
351.143	1	0
351.314	1	-5
351.485	1	12
351.656	1	14
351.827	1	0
351.998	1	5
352.169	1	-2
352.340	1	19
352.511	1	2
352.682	1	5
352.853	1	13
353.024	1	-1
353.195	1	-5
353.366	1	6
353.537	1	5
353.708	1	-1
353.879	1	3
354.050	1	6
354.221	1	6
354.392	1	13
354.563	1	12
354.734	1	1
354.905	1	11
355.076	1	8
355.247	1	5
355.418	1	14
355.589	1	3
355.760	1	11
355.931	1	15
356.102	1	2
356.273	1	9
356.444	1	0
356.615	1	4
356.785	1	11
356.956	1	24
357.127	1	2
357.298	1	-3
357.469	1	5
357.640	1	0
357.811	1	9
357.982	1	20
358.153	1	8
358.324	1	13
358.495	1	13
358.666	1	6
358.837	1	15
359.008	1	21
359.179	1	2
359.350	1	6
359.521	1	8
359.692	1	15
359.863	1	6
360.034	1	13
360.205	1	10
360.376	1	14
360.547	1	8
360.718	1	10
360.889	1	11
361.060	1	16
361.231	1	7
361.401	1	6
361.572	1	23
361.743	1	15
361.914	1	14
362.085	1	11
362.256	1	17
362.427	1	14
362.598	1	4
362.769	1	22
362.940	1	8
363.111	1	25
363.282	1	25
363.453	1	11
363.624	1	22
363.795	1	26
363.966	1	36
364.137	1	21
364.308	1	34
364.478	1	21
364.649	1	32
364.820	1	41
364.991	1	24
365.162	1	30
365.333	1	27
365.504	1	22
365.675	1	35
365.846	1	41
366.017	1	35
366.188	1	45
366.359	1	43
366.530	1	37
366.701	1	37
366.871	1	36
367.042	1	44
367.213	1	41
367.384	1	51
367.555	1	41
367.726	1	55
367.897	1	39
368.068	1	37
368.239	1	45
368.410	1	37
368.581	1	51
368.752	1	46
368.923	1	51
369.093	1	47
369.264	1	40
369.435	1	29
369.606	1	51
369.777	1	31
369.948	1	37
370.119	1	50
370.290	1	47
370.461	1	35
370.632	1	33
370.803	1	26
370.973	1	36
371.144	1	43
371.315	1	39
371.486	1	30
371.657	1	28
371.828	1	29
371.999	1	29
372.170	1	36
372.341	1	41
372.512	1	34
372.682	1	35
372.853	1	24
373.024	1	36
373.195	1	27
373.366	1	21
373.537	1	31
373.708	1	27
373.879	1	26
374.050	1	37
374.220	1	8
374.391	1	24
374.562	1	18
374.733	1	17
374.904	1	24
375.075	1	26
375.246	1	28
375.417	1	14
375.588	1	27
375.758	1	10
375.929	1	5
376.100	1	20
376.271	1	20
376.442	1	24
376.613	1	12
376.784	1	21
376.955	1	22
377.125	1	16
377.296	1	15
377.467	1	24
377.638	1	27
377.809	1	9
377.980	1	8
378.151	1	30
378.321	1	19
378.492	1	22
378.663	1	22
378.834	1	12
379.005	1	27
379.176	1	15
379.347	1	10
379.518	1	10
379.688	1	8
379.859	1	18
380.030	1	11
380.201	1	22
380.372	1	13
380.543	1	16
380.714	1	24
380.884	1	5
381.055	1	14
381.226	1	16
381.397	1	9
381.568	1	10
381.739	1	10
381.910	1	13
382.080	1	5
382.251	1	18
382.422	1	23
382.593	1	16
382.764	1	8
382.935	1	18
383.105	1	14
383.276	1	5
383.447	1	17
383.618	1	14
383.789	1	14
383.960	1	13
384.130	1	20
384.301	1	9
384.472	1	15
384.643	1	19
384.814	1	8
384.985	1	17
385.156	1	9
385.326	1	18
385.497	1	7
385.668	1	25
385.839	1	14
386.010	1	14
386.180	1	9
386.351	1	7
386.522	1	11
386.693	1	8
386.864	1	24
387.035	1	19
387.205	1	18
387.376	1	4
387.547	1	20
387.718	1	14
387.889	1	10
388.060	1	5
388.230	1	5
388.401	1	12
388.572	1	14
388.743	1	20
388.914	1	9
389.084	1	4
389.255	1	14
389.426	1	12
389.597	1	2
389.768	1	7
389.939	1	12
390.109	1	16
390.280	1	14
390.451	1	17
390.622	1	11
390.793	1	5
390.963	1	14
391.134	1	10
391.305	1	13
391.476	1	0
391.647	1	17
391.817	1	22
391.988	1	24
392.159	1	5
392.330	1	7
392.501	1	3
392.671	1	7
392.842	1	21
393.013	1	12
393.184	1	13
393.355	1	9
393.525	1	10
393.696	1	7
393.867	1	12
394.038	1	11
394.208	1	7
394.379	1	19
394.550	1	15
394.721	1	11
394.892	1	14
395.062	1	12
395.233	1	7
395.404	1	-2
395.575	1	12
395.746	1	22
395.916	1	18
396.087	1	14
396.258	1	11
396.429	1	10
396.599	1	23
396.770	1	24
396.941	1	14
397.112	1	15
397.283	1	11
397.453	1	18
397.624	1	13
397.795	1	6
397.966	1	13
398.136	1	9
398.307	1	19
398.478	1	7
398.649	1	6
398.819	1	-7
398.990	1	-2
399.161	1	18
399.332	1	10
399.503	1	15
399.673	1	12
399.844	1	6
400.015	1	8
400.186	1	11
400.356	1	9
400.527	1	26
400.698	1	12
400.869	1	16
401.039	1	12
401.210	1	4
401.381	1	15
401.552	1	20
401.722	1	17
401.893	1	-4
402.064	1	-6
402.235	1	4
402.405	1	14
402.576	1	12
402.747	1	15
402.918	1	16
403.088	1	11
403.259	1	1
403.430	1	14
403.601	1	18
403.771	1	12
403.942	1	1
404.113	1	6
404.284	1	3
404.454	1	21
404.625	1	14
404.796	1	6
404.967	1	12
405.137	1	11
405.308	1	7
405.479	1	10
405.649	1	3
405.820	1	13
405.991	1	7
406.162	1	-4
406.332	1	11
406.503	1	11
406.674	1	16
406.845	1	2
407.015	1	3
407.186	1	2
407.357	1	9
407.527	1	13
407.698	1	13
407.869	1	12
408.040	1	10
408.210	1	7
408.381	1	14
408.552	1	-5
408.722	1	9
408.893	1	18
409.064	1	6
409.235	1	1
409.405	1	10
409.576	1	6
409.747	1	3
409.917	1	5
410.088	1	16
410.259	1	12
410.430	1	16
410.600	1	12
410.771	1	-14
410.942	1	8
411.112	1	20
411.283	1	2
411.454	1	9
411.625	1	7
411.795	1	1
411.966	1	0
412.137	1	-2
412.307	1	9
412.478	1	1
412.649	1	23
412.819	1	6
412.990	1	7
413.161	1	12
413.332	1	7
413.502	1	18
413.673	1	12
413.844	1	-1
414.014	1	12
414.185	1	19
414.356	1	12
414.526	1	9
414.697	1	0
414.868	1	10
415.038	1	15
415.209	1	13
415.380	1	10
415.550	1	2
415.721	1	7
415.892	1	15
416.063	1	7
416.233	1	8
416.404	1	11
416.575	1	16
416.745	1	12
416.916	1	8
417.087	1	6
417.257	1	10
417.428	1	5
417.599	1	0
417.769	1	13
417.940	1	16
418.111	1	5
418.281	1	11
418.452	1	7
418.623	1	7
418.793	1	2
418.964	1	11
419.135	1	14
419.305	1	8
419.476	1	2
419.647	1	3
419.817	1	18
419.988	1	12
420.159	1	10
420.329	1	14
420.500	1	14
420.671	1	-6
420.841	1	8
421.012	1	9
421.183	1	10
421.353	1	-1
421.524	1	19
421.695	1	10
421.865	1	11
422.036	1	16
422.206	1	15
422.377	1	8
422.548	1	15
422.718	1	10
422.889	1	7
423.060	1	11
423.230	1	2
423.401	1	12
423.572	1	-7
423.742	1	13
423.913	1	5
424.084	1	12
424.254	1	18
424.425	1	6
424.595	1	10
424.766	1	6
424.937	1	13
425.107	1	4
425.278	1	3
425.449	1	4
425.619	1	15
425.790	1	15
425.961	1	13
426.131	1	16
426.302	1	16
426.472	1	11
426.643	1	-3
426.814	1	14
426.984	1	0
427.155	1	0
427.326	1	2
427.496	1	3
427.667	1	15
427.837	1	15
428.008	1	4
428.179	1	10
428.349	1	2
428.520	1	20
428.691	1	7
428.861	1	4
429.032	1	3
429.202	1	1
429.373	1	3
429.544	1	11
429.714	1	-4
429.885	1	1
430.055	1	-2
430.226	1	7
430.397	1	0
430.567	1	2
430.738	1	1
430.909	1	7
431.079	1	22
431.250	1	12
431.420	1	13
431.591	1	18
431.762	1	7
431.932	1	9
432.103	1	3
432.273	1	8
432.444	1	12
432.615	1	13
432.785	1	8
432.956	1	-4
433.126	1	9
433.297	1	15
433.468	1	11
433.638	1	10
433.809	1	10
433.979	1	11
434.150	1	10
434.320	1	16
434.491	1	4
434.662	1	6
434.832	1	2
435.003	1	20
435.173	1	10
435.344	1	6
435.515	1	9
435.685	1	-16
435.856	1	-2
436.026	1	9
436.197	1	8
436.368	1	6
436.538	1	11
436.709	1	-3
436.879	1	8
437.050	1	3
437.220	1	8
437.391	1	12
437.562	1	2
437.732	1	4
437.903	1	3
438.073	1	13
438.244	1	8
438.414	1	-7
438.585	1	11
438.756	1	7
438.926	1	11
439.097	1	4
439.267	1	0
439.438	1	11
439.608	1	15
439.779	1	3
439.949	1	11
440.120	1	3
440.291	1	5
440.461	1	14
440.632	1	2
440.802	1	0
440.973	1	6
441.143	1	1
441.314	1	4
441.485	1	12
441.655	1	6
441.826	1	10
441.996	1	12
442.167	1	4
442.337	1	12
442.508	1	4
442.678	1	0
442.849	1	5
443.019	1	15
443.190	1	10
443.361	1	5
443.531	1	9
443.702	1	5
443.872	1	11
444.043	1	-9
444.213	1	14
444.384	1	3
444.554	1	13
444.725	1	13
444.895	1	-7
445.066	1	-2
445.237	1	2
445.407	1	-3
445.578	1	-10
445.748	1	12
445.919	1	2
446.089	1	8
446.260	1	6
446.430	1	7
446.601	1	10
446.771	1	8
446.942	1	0
447.112	1	0
447.283	1	9
447.453	1	1
447.624	1	-3
447.794	1	8
447.965	1	7
448.135	1	11
448.306	1	7
448.477	1	10
448.647	1	12
448.818	1	0
448.988	1	6
449.159	1	5
449.329	1	-2
449.500	1	3
449.670	1	2
449.841	1	-7
450.011	1	-2
450.182	1	11
450.352	1	10
450.523	1	9
450.693	1	-8
450.864	1	-3
451.034	1	5
451.205	1	6
451.375	1	13
451.546	1	10
451.716	1	-10
451.887	1	3
452.057	1	14
452.228	1	9
452.398	1	2
452.569	1	9
452.739	1	5
452.910	1	8
453.080	1	13
453.251	1	13
453.421	1	4
453.592	1	9
453.762	1	5
453.933	1	7
454.103	1	2
454.274	1	-8
454.444	1	1
454.615	1	-5
454.785	1	8
454.956	1	-8
455.126	1	-4
455.297	1	6
455.467	1	9
455.638	1	11
455.808	1	8
455.979	1	8
456.149	1	-2
456.320	1	-2
456.490	1	3
456.661	1	10
456.831	1	10
457.001	1	5
457.172	1	9
457.342	1	0
457.513	1	-5
457.683	1	5
457.854	1	14
458.024	1	14
458.195	1	-1
458.365	1	8
458.536	1	11
458.706	1	9
458.877	1	19
459.047	1	-4
459.218	1	8
459.388	1	3
459.559	1	6
459.729	1	-6
459.899	1	-6
460.070	1	6
460.240	1	14
460.411	1	13
460.581	1	2
460.752	1	14
460.922	1	-1
461.093	1	1
461.263	1	10
461.434	1	10
461.604	1	2
461.775	1	4
461.945	1	7
462.115	1	-6
462.286	1	9
462.456	1	5
462.627	1	8
462.797	1	4
462.968	1	-1
463.138	1	-1
463.309	1	7
463.479	1	18
463.649	1	4
463.820	1	-11
463.990	1	2
464.161	1	-1
464.331	1	8
464.502	1	4
464.672	1	10
464.843	1	-9
465.013	1	-4
465.183	1	5
465.354	1	3
465.524	1	1
465.695	1	8
465.865	1	-8
466.036	1	14
466.206	1	5
466.376	1	4
466.547	1	-4
466.717	1	13
466.888	1	3
467.058	1	6
467.229	1	1
467.399	1	-3
467.569	1	9
467.740	1	8
467.910	1	1
468.081	1	9
468.251	1	11
468.422	1	6
468.592	1	6
468.762	1	3
468.933	1	-3
469.103	1	5
469.274	1	9
469.444	1	-2
469.614	1	8
469.785	1	5
469.955	1	0
470.126	1	-8
470.296	1	-5
470.467	1	4
470.637	1	3
470.807	1	-1
470.978	1	-4
471.148	1	3
471.319	1	8
471.489	1	2
471.659	1	0
471.830	1	1
472.000	1	-2
472.171	1	2
472.341	1	-4
472.511	1	0
472.682	1	1
472.852	1	8
473.023	1	0
473.193	1	13
473.363	1	9
473.534	1	7
473.704	1	-1
473.875	1	16
474.045	1	1
474.215	1	6
474.386	1	5
474.556	1	12
474.727	1	4
474.897	1	2
475.067	1	5
475.238	1	8
475.408	1	2
475.578	1	9
475.749	1	10
475.919	1	7
476.090	1	7
476.260	1	0
476.430	1	11
476.601	1	0
476.771	1	-6
476.942	1	12
477.112	1	13
477.282	1	12
477.453	1	15
477.623	1	0
477.793	1	5
477.964	1	9
478.134	1	17
478.305	1	12
478.475	1	0
478.645	1	-2
478.816	1	8
478.986	1	-7
479.156	1	5
479.327	1	4
479.497	1	15
479.667	1	4
479.838	1	3
480.008	1	0
480.179	1	2
480.349	1	-9
480.519	1	-1
480.690	1	8
480.860	1	10
481.030	1	0
481.201	1	16
481.371	1	9
481.541	1	0
481.712	1	-1
481.882	1	-1
482.053	1	6
482.223	1	3
482.393	1	15
482.564	1	-3
482.734	1	0
482.904	1	2
483.075	1	14
483.245	1	-1
483.415	1	6
483.586	1	6
483.756	1	1
483.926	1	-2
484.097	1	5
484.267	1	3
484.437	1	8
484.608	1	21
484.778	1	13
484.948	1	7
485.119	1	6
485.289	1	2
485.459	1	1
485.630	1	-4
485.800	1	13
485.970	1	0
486.141	1	6
486.311	1	15
486.481	1	1
486.652	1	1
486.822	1	13
486.992	1	7
487.163	1	-1
487.333	1	-6
487.503	1	-4
487.674	1	4
487.844	1	6
488.014	1	16
488.185	1	5
488.355	1	10
488.525	1	7
488.696	1	-1
488.866	1	2
489.036	1	12
489.207	1	12
489.377	1	1
489.547	1	-2
489.718	1	11
489.888	1	11
490.058	1	11
490.228	1	-2
490.399	1	11
490.569	1	3
490.739	1	3
490.910	1	-9
491.080	1	5
491.250	1	10
491.421	1	10
491.591	1	1
491.761	1	4
491.932	1	7
492.102	1	3
492.272	1	0
492.442	1	3
492.613	1	1
492.783	1	-7
492.953	1	3
493.124	1	8
493.294	1	5
493.464	1	2
493.635	1	5
493.805	1	7
493.975	1	15
494.145	1	-1
494.316	1	11
494.486	1	18
494.656	1	11
494.827	1	9
494.997	1	8
495.167	1	14
495.337	1	2
495.508	1	1
495.678	1	-2
495.848	1	4
496.019	1	6
496.189	1	9
496.359	1	14
496.529	1	9
496.700	1	-2
496.870	1	11
497.040	1	11
497.211	1	3
497.381	1	13
497.551	1	17
497.721	1	3
497.892	1	7
498.062	1	1
498.232	1	16
498.403	1	2
498.573	1	11
498.743	1	16
498.913	1	12
499.084	1	15
499.254	1	10
499.424	1	3
499.594	1	2
499.765	1	10
499.935	1	11
500.105	1	12
500.275	1	16
500.446	1	17
500.616	1	3
500.786	1	11
500.956	1	7
501.127	1	9
501.297	1	9
501.467	1	7
501.638	1	7
501.808	1	17
501.978	1	4
502.148	1	2
502.319	1	17
502.489	1	12
502.659	1	3
502.829	1	7
503.000	1	14
503.170	1	8
503.340	1	8
503.510	1	20
503.681	1	0
503.851	1	-4
504.021	1	7
504.191	1	14
504.362	1	11
504.532	1	8
504.702	1	9
504.872	1	17
505.042	1	13
505.213	1	12
505.383	1	15
505.553	1	19
505.723	1	17
505.894	1	6
506.064	1	11
506.234	1	3
506.404	1	18
506.575	1	1
506.745	1	3
506.915	1	11
507.085	1	20
507.256	1	19
507.426	1	17
507.596	1	3
507.766	1	13
507.936	1	-6
508.107	1	11
508.277	1	12
508.447	1	21
508.617	1	9
508.788	1	5
508.958	1	14
509.128	1	19
509.298	1	9
509.468	1	4
509.639	1	13
509.809	1	9
509.979	1	2
510.149	1	7
510.319	1	17
510.490	1	16
510.660	1	3
510.830	1	25
511.000	1	11
511.171	1	18
511.341	1	9
511.511	1	5
511.681	1	8
511.851	1	15
512.022	1	23
512.192	1	3
512.362	1	14
512.532	1	7
512.702	1	18
512.873	1	2
513.043	1	7
513.213	1	28
513.383	1	18
513.553	1	17
513.724	1	3
513.894	1	14
514.064	1	10
514.234	1	24
514.404	1	21
514.575	1	7
514.745	1	11
514.915	1	0
515.085	1	23
515.255	1	8
515.425	1	18
515.596	1	5
515.766	1	11
515.936	1	19
516.106	1	10
516.276	1	15
516.447	1	9
516.617	1	22
516.787	1	13
516.957	1	13
517.127	1	10
517.297	1	8
517.468	1	15
517.638	1	12
517.808	1	14
517.978	1	12
518.148	1	10
518.319	1	12
518.489	1	11
518.659	1	9
518.829	1	18
518.999	1	14
519.169	1	25
519.340	1	3
519.510	1	8
519.680	1	14
519.850	1	23
520.020	1	15
520.190	1	26
520.361	1	10
520.531	1	22
520.701	1	6
520.871	1	12
521.041	1	22
521.211	1	12
521.382	1	17
521.552	1	15
521.722	1	11
521.892	1	24
522.062	1	13
522.232	1	1
522.402	1	6
522.573	1	10
522.743	1	16
522.913	1	22
523.083	1	19
523.253	1	20
523.423	1	21
523.593	1	18
523.764	1	9
523.934	1	9
524.104	1	10
524.274	1	6
524.444	1	20
524.614	1	19
524.784	1	17
524.955	1	19
525.125	1	14
525.295	1	26
525.465	1	16
525.635	1	19
525.805	1	8
525.975	1	19
526.146	1	7
526.316	1	19
526.486	1	27
526.656	1	12
526.826	1	22
526.996	1	9
527.166	1	15
527.337	1	20
527.507	1	36
527.677	1	1
527.847	1	14
528.017	1	24
528.187	1	22
528.357	1	21
528.527	1	9
528.698	1	13
528.868	1	11
529.038	1	-2
529.208	1	17
529.378	1	23
529.548	1	13
529.718	1	18
529.888	1	16
530.058	1	11
530.229	1	15
530.399	1	19
530.569	1	15
530.739	1	13
530.909	1	18
531.079	1	15
531.249	1	20
531.419	1	20
531.589	1	20
531.760	1	14
531.930	1	15
532.100	1	16
532.270	1	22
532.440	1	22
532.610	1	16
532.780	1	11
532.950	1	22
533.120	1	23
533.290	1	28
533.461	1	12
533.631	1	15
533.801	1	21
533.971	1	10
534.141	1	14
534.311	1	37
534.481	1	16
534.651	1	15
534.821	1	19
534.991	1	13
535.162	1	23
535.332	1	21
535.502	1	13
535.672	1	15
535.842	1	19
536.012	1	8
536.182	1	20
536.352	1	16
536.522	1	14
536.692	1	23
536.862	1	12
537.032	1	21
537.203	1	20
537.373	1	11
537.543	1	23
537.713	1	12
537.883	1	13
538.053	1	5
538.223	1	17
538.393	1	22
538.563	1	13
538.733	1	16
538.903	1	29
539.073	1	13
539.243	1	16
539.413	1	15
539.584	1	17
539.754	1	10
539.924	1	11
540.094	1	15
540.264	1	10
540.434	1	15
540.604	1	13
540.774	1	18
540.944	1	17
541.114	1	10
541.284	1	18
541.454	1	17
541.624	1	19
541.794	1	14
541.964	1	7
542.134	1	9
542.305	1	16
542.475	1	14
542.645	1	9
542.815	1	17
542.985	1	14
543.155	1	15
543.325	1	9
543.495	1	10
543.665	1	16
543.835	1	19
544.005	1	23
544.175	1	7
544.345	1	8
544.515	1	8
544.685	1	15
544.855	1	17
545.025	1	8
545.195	1	7
545.365	1	17
545.535	1	32
545.705	1	8
545.875	1	21
546.045	1	18
546.216	1	25
546.386	1	11
546.556	1	-2
546.726	1	7
546.896	1	3
547.066	1	3
547.236	1	14
547.406	1	-4
547.576	1	10
547.746	1	8
547.916	1	10
548.086	1	7
548.256	1	8
548.426	1	9
548.596	1	10
548.766	1	12
548.936	1	16
549.106	1	3
549.276	1	0
549.446	1	12
549.616	1	12
549.786	1	14
549.956	1	3
550.126	1	16
550.296	1	12
550.466	1	20
550.636	1	2
550.806	1	20
550.976	1	3
551.146	1	11
551.316	1	10
551.486	1	16
551.656	1	10
551.826	1	11
551.996	1	13
552.166	1	19
552.336	1	19
552.506	1	21
552.676	1	17
552.846	1	2
553.016	1	10
553.186	1	13
553.356	1	13
553.526	1	19
553.696	1	5
553.866	1	0
554.036	1	11
554.206	1	18
554.376	1	17
554.546	1	19
554.716	1	5
554.886	1	4
555.056	1	17
555.226	1	15
555.396	1	3
555.566	1	14
555.736	1	13
555.906	1	10
556.076	1	8
556.246	1	10
556.416	1	14
556.586	1	14
556.756	1	5
556.926	1	12
557.096	1	6
557.266	1	18
557.436	1	16
557.606	1	14
557.776	1	8
557.946	1	17
558.116	1	6
558.286	1	18
558.456	1	9
558.626	1	3
558.796	1	14
558.966	1	6
559.136	1	14
559.306	1	15
559.476	1	8
559.646	1	9
559.816	1	12
559.986	1	9
560.155	1	2
560.325	1	1
560.495	1	7
560.665	1	17
560.835	1	12
561.005	1	5
561.175	1	19
561.345	1	12
561.515	1	7
561.685	1	13
561.855	1	12
562.025	1	4
562.195	1	5
562.365	1	9
562.535	1	7
562.705	1	15
562.875	1	10
563.045	1	5
563.215	1	18
563.385	1	15
563.555	1	15
563.725	1	10
563.895	1	10
564.064	1	19
564.234	1	20
564.404	1	5
564.574	1	12
564.744	1	13
564.914	1	6
565.084	1	16
565.254	1	-1
565.424	1	4
565.594	1	8
565.764	1	14
565.934	1	4
566.104	1	7
566.274	1	15
566.444	1	18
566.614	1	14
566.783	1	13
566.953	1	4
567.123	1	3
567.293	1	22
567.463	1	6
567.633	1	-4
567.803	1	15
567.973	1	3
568.143	1	18
568.313	1	7
568.483	1	19
568.653	1	0
568.823	1	4
568.993	1	0
569.162	1	19
569.332	1	13
569.502	1	12
569.672	1	4
569.842	1	8
570.012	1	8
570.182	1	6
570.352	1	3
570.522	1	-10
570.692	1	15
570.862	1	17
571.031	1	1
571.201	1	8
571.371	1	6
571.541	1	12
571.711	1	11
571.881	1	11
572.051	1	8
572.221	1	14
572.391	1	10
572.561	1	7
572.731	1	7
572.900	1	9
573.070	1	13
573.240	1	6
573.410	1	4
573.580	1	3
573.750	1	0
573.920	1	13
574.090	1	2
574.260	1	14
574.430	1	9
574.599	1	13
574.769	1	7
574.939	1	27
575.109	1	17
575.279	1	1
575.449	1	9
575.619	1	9
575.789	1	8
575.959	1	6
576.128	1	-3
576.298	1	6
576.468	1	8
576.638	1	2
576.808	1	4
576.978	1	4
577.148	1	5
577.318	1	4
577.487	1	14
577.657	1	17
577.827	1	7
577.997	1	10
578.167	1	11
578.337	1	2
578.507	1	1
578.677	1	10
578.846	1	8
579.016	1	7
579.186	1	4
579.356	1	5
579.526	1	7
579.696	1	0
579.866	1	9
580.036	1	8
580.205	1	2
580.375	1	3
580.545	1	5
580.715	1	9
580.885	1	14
581.055	1	7
581.225	1	-2
581.394	1	9
581.564	1	0
581.734	1	21
581.904	1	5
582.074	1	18
582.244	1	-12
582.414	1	9
582.583	1	14
582.753	1	11
582.923	1	4
583.093	1	8
583.263	1	4
583.433	1	8
583.603	1	0
583.772	1	3
583.942	1	2
584.112	1	20
584.282	1	-6
584.452	1	12
584.622	1	0
584.791	1	6
584.961	1	6
585.131	1	9
585.301	1	9
585.471	1	-6
585.641	1	13
585.811	1	9
585.980	1	7
586.150	1	11
586.320	1	5
586.490	1	3
586.660	1	0
586.830	1	-4
586.999	1	-6
587.169	1	8
587.339	1	7
587.509	1	13
587.679	1	4
587.849	1	14
588.018	1	17
588.188	1	11
588.358	1	2
588.528	1	12
588.698	1	1
588.867	1	5
589.037	1	6
589.207	1	4
589.377	1	16
589.547	1	6
589.717	1	3
589.886	1	9
590.056	1	-1
590.226	1	9
590.396	1	5
590.566	1	6
590.735	1	3
590.905	1	13
591.075	1	10
591.245	1	0
591.415	1	12
591.585	1	9
591.754	1	-3
591.924	1	4
592.094	1	5
592.264	1	12
592.434	1	-1
592.603	1	-2
592.773	1	14
592.943	1	7
593.113	1	5
593.283	1	-8
593.452	1	9
593.622	1	11
593.792	1	-1
593.962	1	7
594.132	1	3
594.301	1	1
594.471	1	6
594.641	1	11
594.811	1	6
594.981	1	2
595.150	1	-1
595.320	1	12
595.490	1	12
595.660	1	7
595.829	1	1
595.999	1	6
596.169	1	8
596.339	1	11
596.509	1	8
596.678	1	7
596.848	1	7
597.018	1	4
597.188	1	8
597.358	1	1
597.527	1	8
597.697	1	7
597.867	1	14
598.037	1	12
598.206	1	-2
598.376	1	2
598.546	1	4
598.716	1	8
598.885	1	13
599.055	1	-3
599.225	1	1
599.395	1	-6
599.565	1	4
599.734	1	0
599.904	1	4
600.074	1	5
600.244	1	5
600.413	1	14
600.583	1	2
600.753	1	5
600.923	1	4
601.092	1	0
601.262	1	-1
601.432	1	-6
601.602	1	3
601.771	1	10
601.941	1	2
602.111	1	4
602.281	1	11
602.451	1	8
602.620	1	6
602.790	1	6
602.960	1	3
603.130	1	3
603.299	1	11
603.469	1	10
603.639	1	-3
603.809	1	0
603.978	1	4
604.148	1	8
604.318	1	9
604.487	1	13
604.657	1	4
604.827	1	0
604.997	1	17
605.166	1	10
605.336	1	13
605.506	1	4
605.676	1	2
605.845	1	5
606.015	1	7
606.185	1	10
606.355	1	13
606.524	1	9
606.694	1	-10
606.864	1	15
607.034	1	15
607.203	1	-2
607.373	1	6
607.543	1	1
607.712	1	11
607.882	1	4
608.052	1	5
608.222	1	-2
608.391	1	19
608.561	1	5
608.731	1	3
608.901	1	10
609.070	1	13
609.240	1	-4
609.410	1	11
609.579	1	15
609.749	1	-1
609.919	1	8
610.089	1	6
610.258	1	10
610.428	1	3
610.598	1	4
610.767	1	6
610.937	1	14
611.107	1	3
611.277	1	9
611.446	1	-1
611.616	1	-9
611.786	1	6
611.955	1	4
612.125	1	9
612.295	1	15
612.465	1	-2
612.634	1	2
612.804	1	8
612.974	1	10
613.143	1	9
613.313	1	4
613.483	1	-4
613.652	1	-14
613.822	1	3
613.992	1	-3
614.162	1	12
614.331	1	8
614.501	1	20
614.671	1	9
614.840	1	4
615.010	1	3
615.180	1	3
615.349	1	2
615.519	1	0
615.689	1	-3
615.858	1	-5
616.028	1	11
616.198	1	9
616.368	1	9
616.537	1	11
616.707	1	11
616.877	1	-3
617.046	1	11
617.216	1	6
617.386	1	0
617.555	1	-6
617.725	1	3
617.895	1	7
618.064	1	8
618.234	1	1
618.404	1	10
618.573	1	12
618.743	1	11
618.913	1	7
619.082	1	0
619.252	1	-2
619.422	1	8
619.591	1	4
619.761	1	2
619.931	1	2
620.100	1	-4
620.270	1	0
620.440	1	5
620.609	1	3
620.779	1	4
620.949	1	3
621.118	1	-1
621.288	1	0
621.458	1	13
621.627	1	23
621.797	1	8
621.967	1	2
622.136	1	7
622.306	1	2
622.476	1	8
622.645	1	9
622.815	1	-1
622.985	1	4
623.154	1	4
623.324	1	-5
623.494	1	15
623.663	1	0
623.833	1	3
624.002	1	6
624.172	1	0
624.342	1	13
624.511	1	9
624.681	1	4
624.851	1	4
625.020	1	5
625.190	1	9
625.360	1	1
625.529	1	1
625.699	1	4
625.869	1	5
626.038	1	9
626.208	1	-1
626.377	1	8
626.547	1	3
626.717	1	5
626.886	1	1
627.056	1	3
627.226	1	-1
627.395	1	-5
627.565	1	7
627.735	1	12
627.904	1	6
628.074	1	17
628.243	1	13
628.413	1	2
628.583	1	-3
628.752	1	7
628.922	1	1
629.091	1	-5
629.261	1	-8
629.431	1	-3
629.600	1	19
629.770	1	2
629.940	1	16
630.109	1	1
630.279	1	8
630.448	1	1
630.618	1	3
630.788	1	5
630.957	1	8
631.127	1	8
631.297	1	-6
631.466	1	13
631.636	1	4
631.805	1	12
631.975	1	2
632.145	1	4
632.314	1	5
632.484	1	5
632.653	1	2
632.823	1	10
632.993	1	11
633.162	1	4
633.332	1	-3
633.501	1	18
633.671	1	-1
633.841	1	13
634.010	1	-8
634.180	1	12
634.349	1	0
634.519	1	5
634.689	1	6
634.858	1	6
635.028	1	10
635.197	1	5
635.367	1	1
635.537	1	-7
635.706	1	-4
635.876	1	3
636.045	1	11
636.215	1	7
636.384	1	4
636.554	1	1
636.724	1	8
636.893	1	-1
637.063	1	14
637.232	1	2
637.402	1	-1
637.572	1	3
637.741	1	10
637.911	1	0
638.080	1	10
638.250	1	13
638.419	1	-2
638.589	1	4
638.759	1	10
638.928	1	7
639.098	1	5
639.267	1	12
639.437	1	15
639.606	1	10
639.776	1	9
639.946	1	1
640.115	1	-1
640.285	1	-8
640.454	1	5
640.624	1	-12
640.793	1	-5
640.963	1	-10
641.132	1	8
641.302	1	14
641.472	1	6
641.641	1	10
641.811	1	5
641.980	1	-3
642.150	1	-8
642.319	1	14
642.489	1	0
642.659	1	-6
642.828	1	5
642.998	1	2
643.167	1	10
643.337	1	3
643.506	1	11
643.676	1	2
643.845	1	-5
644.015	1	8
644.184	1	1
644.354	1	0
644.524	1	2
644.693	1	2
644.863	1	-2
645.032	1	4
645.202	1	11
645.371	1	11
645.541	1	2
645.710	1	5
645.880	1	7
646.049	1	-4
646.219	1	12
646.388	1	4
646.558	1	-1
646.728	1	12
646.897	1	0
647.067	1	7
647.236	1	-3
647.406	1	8
647.575	1	-5
647.745	1	5
647.914	1	2
648.084	1	4
648.253	1	1
648.423	1	14
648.592	1	-1
648.762	1	2
648.931	1	-7
649.101	1	-7
649.270	1	-9
649.440	1	8
649.610	1	1
649.779	1	6
649.949	1	3
650.118	1	-5
650.288	1	11
650.457	1	-3
650.627	1	-1
650.796	1	1
650.966	1	8
651.135	1	8
651.305	1	0
651.474	1	3
651.644	1	5
651.813	1	6
651.983	1	-10
652.152	1	5
652.322	1	-4
652.491	1	6
652.661	1	-3
652.830	1	3
653.000	1	3
653.169	1	7
653.339	1	4
653.508	1	6
653.678	1	0
653.847	1	1
654.017	1	6
654.186	1	6
654.356	1	7
654.525	1	-2
654.695	1	0
654.864	1	-2
655.034	1	-1
655.203	1	8
655.373	1	7
655.542	1	-8
655.712	1	1
655.881	1	4
656.051	1	5
656.220	1	-3
656.390	1	-5
656.559	1	-1
656.729	1	0
656.898	1	7
657.068	1	2
657.237	1	1
657.406	1	1
657.576	1	7
657.745	1	3
657.915	1	7
658.084	1	-3
658.254	1	9
658.423	1	1
658.593	1	5
658.762	1	17
658.932	1	17
659.101	1	3
659.271	1	8
659.440	1	-8
659.610	1	1
659.779	1	1
659.949	1	9
660.118	1	-8
660.288	1	4
660.457	1	2
660.626	1	12
660.796	1	11
660.965	1	3
661.135	1	11
661.304	1	0
661.474	1	-2
661.643	1	5
661.813	1	5
661.982	1	-9
662.152	1	-4
662.321	1	0
662.491	1	14
662.660	1	15
662.829	1	5
662.999	1	-3
663.168	1	-4
663.338	1	7
663.507	1	4
663.677	1	3
663.846	1	-1
664.016	1	2
664.185	1	-1
664.354	1	8
664.524	1	-2
664.693	1	12
664.863	1	2
665.032	1	7
665.202	1	-1
665.371	1	-4
665.541	1	2
665.710	1	-1
665.879	1	4
666.049	1	1
666.218	1	19
666.388	1	11
666.557	1	9
666.727	1	-8
666.896	1	2
667.065	1	10
667.235	1	6
667.404	1	8
667.574	1	17
667.743	1	5
667.913	1	3
668.082	1	7
668.251	1	1
668.421	1	-2
668.590	1	6
668.760	1	6
668.929	1	3
669.099	1	-3
669.268	1	2
669.437	1	-9
669.607	1	-2
669.776	1	2
669.946	1	14
670.115	1	17
670.285	1	10
670.454	1	-3
670.623	1	10
670.793	1	4
670.962	1	-1
671.132	1	5
671.301	1	0
671.470	1	7
671.640	1	-5
671.809	1	1
671.979	1	5
672.148	1	1
672.317	1	7
672.487	1	-5
672.656	1	-7
672.826	1	1
672.995	1	4
673.164	1	16
673.334	1	-8
673.503	1	-1
673.673	1	3
673.842	1	-1
674.011	1	5
674.181	1	14
674.350	1	7
674.520	1	2
674.689	1	6
674.858	1	-6
675.028	1	10
675.197	1	-4
675.367	1	3
675.536	1	8
675.705	1	12
675.875	1	8
676.044	1	-7
676.214	1	18
676.383	1	-1
676.552	1	-6
676.722	1	4
676.891	1	1
677.060	1	2
677.230	1	10
677.399	1	7
677.569	1	4
677.738	1	-1
677.907	1	6
678.077	1	8
678.246	1	7
678.416	1	4
678.585	1	5
678.754	1	6
678.924	1	15
679.093	1	-1
679.262	1	3
679.432	1	10
679.601	1	9
679.771	1	5
679.940	1	0
680.109	1	1
680.279	1	7
680.448	1	0
680.617	1	-7
680.787	1	5
680.956	1	3
681.125	1	15
681.295	1	11
681.464	1	3
681.634	1	12
681.803	1	-7
681.972	1	2
682.142	1	-8
682.311	1	-5
682.480	1	7
682.650	1	0
682.819	1	-1
682.988	1	-1
683.158	1	0
683.327	1	-2
683.496	1	-6
683.666	1	-1
683.835	1	-2
684.004	1	7
684.174	1	13
684.343	1	1
684.512	1	15
684.682	1	-1
684.851	1	-1
685.021	1	7
685.190	1	9
685.359	1	-3
685.529	1	0
685.698	1	1
685.867	1	2
686.037	1	4
686.206	1	8
686.375	1	1
686.545	1	-2
686.714	1	-8
686.883	1	1
687.053	1	-4
687.222	1	12
687.391	1	9
687.561	1	18
687.730	1	-1
687.899	1	7
688.069	1	-2
688.238	1	14
688.407	1	1
688.577	1	6
688.746	1	8
