340.368	1	0
340.539	1	-9
340.710	1	-5
340.881	1	2
341.052	1	13
341.223	1	8
341.394	1	7
341.565	1	-5
341.737	1	14
341.908	1	8
342.079	1	5
342.250	1	-5
342.421	1	4
342.592	1	19
342.763	1	12
342.934	1	5
343.105	1	10
343.276	1	2
343.447	1	1
343.618	1	1
343.789	1	1
343.960	1	6
344.131	1	2
344.302	1	7
344.473	1	7
344.644	1	18
344.815	1	7
344.986	1	3
345.157	1	-2
345.328	1	13
345.499	1	14
345.670	1	-1
345.841	1	10
346.012	1	15
346.183	1	1
346.354	1	12
346.526	1	-4
346.697	1	11
346.868	1	12
347.039	1	10
347.210	1	-8
347.381	1	11
347.552	1	10
347.723	1	1
347.894	1	4
348.065	1	8
348.236	1	19
348.407	1	5
348.578	1	14
348.749	1	5
348.920	1	16
349.091	1	-11
349.262	1	11
349.433	1	11
349.604	1	10
349.775	1	13
349.946	1	1
350.117	1	18
350.288	1	16
350.459	1	8
350.630	1	10
350.801	1	5
350.972	1	10
351.143	1	8
351.314	1	22
351.485	1	6
351.656	1	20
351.827	1	15
351.998	1	17
352.169	1	12
352.340	1	22
352.511	1	15
352.682	1	12
352.853	1	9
353.024	1	20
353.195	1	23
353.366	1	19
353.537	1	19
353.708	1	21
353.879	1	25
354.050	1	12
354.221	1	13
354.392	1	20
354.563	1	20
354.734	1	21
354.905	1	26
355.076	1	18
355.247	1	21
355.418	1	9
355.589	1	16
355.760	1	26
355.931	1	20
356.102	1	27
356.273	1	21
356.444	1	26
356.615	1	25
356.785	1	41
356.956	1	41
357.127	1	32
357.298	1	39
357.469	1	50
357.640	1	40
357.811	1	32
357.982	1	42
358.153	1	47
358.324	1	32
358.495	1	44
358.666	1	40
358.837	1	41
359.008	1	45
359.179	1	47
359.350	1	51
359.521	1	51
359.692	1	65
359.863	1	63
360.034	1	68
360.205	1	65
360.376	1	80
360.547	1	70
360.718	1	72
360.889	1	78
361.060	1	83
361.231	1	86
361.401	1	90
361.572	1	106
361.743	1	92
361.914	1	104
362.085	1	104
362.256	1	105
362.427	1	116
362.598	1	117
362.769	1	127
362.940	1	138
363.111	1	146
363.282	1	141
363.453	1	144
363.624	1	163
363.795	1	167
363.966	1	189
364.137	1	201
364.308	1	206
364.478	1	219
364.649	1	236
364.820	1	242
364.991	1	232
365.162	1	266
365.333	1	271
365.504	1	285
365.675	1	302
365.846	1	311
366.017	1	326
366.188	1	344
366.359	1	364
366.530	1	395
366.701	1	396
366.871	1	415
367.042	1	427
367.213	1	452
367.384	1	456
367.555	1	497
367.726	1	483
367.897	1	505
368.068	1	530
368.239	1	537
368.410	1	566
368.581	1	547
368.752	1	550
368.923	1	573
369.093	1	602
369.264	1	567
369.435	1	594
369.606	1	593
369.777	1	591
369.948	1	594
370.119	1	593
370.290	1	562
370.461	1	575
370.632	1	576
370.803	1	568
370.973	1	565
371.144	1	541
371.315	1	532
371.486	1	516
371.657	1	539
371.828	1	501
371.999	1	489
372.170	1	471
372.341	1	474
372.512	1	454
372.682	1	427
372.853	1	414
373.024	1	400
373.195	1	402
373.366	1	383
373.537	1	383
373.708	1	372
373.879	1	359
374.050	1	359
374.220	1	355
374.391	1	332
374.562	1	337
374.733	1	331
374.904	1	309
375.075	1	298
375.246	1	309
375.417	1	284
375.588	1	295
375.758	1	270
375.929	1	266
376.100	1	280
376.271	1	264
376.442	1	230
376.613	1	228
376.784	1	233
376.955	1	221
377.125	1	222
377.296	1	208
377.467	1	216
377.638	1	219
377.809	1	194
377.980	1	206
378.151	1	201
378.321	1	182
378.492	1	186
378.663	1	174
378.834	1	167
379.005	1	173
379.176	1	160
379.347	1	153
379.518	1	153
379.688	1	141
379.859	1	135
380.030	1	136
380.201	1	133
380.372	1	127
380.543	1	140
380.714	1	132
380.884	1	125
381.055	1	130
381.226	1	113
381.397	1	123
381.568	1	115
381.739	1	125
381.910	1	107
382.080	1	125
382.251	1	102
382.422	1	100
382.593	1	102
382.764	1	95
382.935	1	82
383.105	1	98
383.276	1	95
383.447	1	75
383.618	1	92
383.789	1	81
383.960	1	87
384.130	1	89
384.301	1	79
384.472	1	87
384.643	1	91
384.814	1	73
384.985	1	82
385.156	1	67
385.326	1	95
385.497	1	79
385.668	1	81
385.839	1	76
386.010	1	66
386.180	1	72
386.351	1	71
386.522	1	73
386.693	1	55
386.864	1	71
387.035	1	67
387.205	1	67
387.376	1	71
387.547	1	54
387.718	1	58
387.889	1	56
388.060	1	65
388.230	1	57
388.401	1	50
388.572	1	50
388.743	1	46
388.914	1	51
389.084	1	49
389.255	1	37
389.426	1	45
389.597	1	43
389.768	1	48
389.939	1	52
390.109	1	44
390.280	1	44
390.451	1	30
390.622	1	39
390.793	1	41
390.963	1	51
391.134	1	43
391.305	1	40
391.476	1	40
391.647	1	46
391.817	1	46
391.988	1	39
392.159	1	37
392.330	1	40
392.501	1	41
392.671	1	47
392.842	1	32
393.013	1	36
393.184	1	42
393.355	1	45
393.525	1	20
393.696	1	41
393.867	1	31
394.038	1	31
394.208	1	36
394.379	1	35
394.550	1	42
394.721	1	23
394.892	1	23
395.062	1	29
395.233	1	20
395.404	1	17
395.575	1	33
395.746	1	21
395.916	1	18
396.087	1	30
396.258	1	26
396.429	1	27
396.599	1	18
396.770	1	18
396.941	1	22
397.112	1	18
397.283	1	23
397.453	1	31
397.624	1	19
397.795	1	29
397.966	1	16
398.136	1	15
398.307	1	20
398.478	1	17
398.649	1	21
398.819	1	14
398.990	1	23
399.161	1	36
399.332	1	24
399.503	1	17
399.673	1	27
399.844	1	27
400.015	1	7
400.186	1	18
400.356	1	19
400.527	1	15
400.698	1	14
400.869	1	18
401.039	1	11
401.210	1	22
401.381	1	9
401.552	1	6
401.722	1	19
401.893	1	15
402.064	1	22
402.235	1	16
402.405	1	14
402.576	1	14
402.747	1	8
402.918	1	21
403.088	1	14
403.259	1	18
403.430	1	9
403.601	1	7
403.771	1	20
403.942	1	29
404.113	1	5
404.284	1	24
404.454	1	14
404.625	1	20
404.796	1	10
404.967	1	10
405.137	1	27
405.308	1	15
405.479	1	19
405.649	1	13
405.820	1	4
405.991	1	8
406.162	1	23
406.332	1	17
406.503	1	9
406.674	1	11
406.845	1	13
407.015	1	16
407.186	1	21
407.357	1	4
407.527	1	13
407.698	1	18
407.869	1	6
408.040	1	4
408.210	1	11
408.381	1	13
408.552	1	10
408.722	1	-1
408.893	1	12
409.064	1	14
409.235	1	6
409.405	1	14
409.576	1	6
409.747	1	6
409.917	1	17
410.088	1	6
410.259	1	8
410.430	1	15
410.600	1	9
410.771	1	14
410.942	1	12
411.112	1	7
411.283	1	16
411.454	1	13
411.625	1	15
411.795	1	9
411.966	1	5
412.137	1	9
412.307	1	-1
412.478	1	11
412.649	1	4
412.819	1	7
412.990	1	9
413.161	1	11
413.332	1	11
413.502	1	6
413.673	1	15
413.844	1	6
414.014	1	-8
414.185	1	3
414.356	1	5
414.526	1	11
414.697	1	17
414.868	1	13
415.038	1	15
415.209	1	4
415.380	1	2
415.550	1	4
415.721	1	9
415.892	1	-1
416.063	1	4
416.233	1	13
416.404	1	10
416.575	1	10
416.745	1	4
416.916	1	6
417.087	1	13
417.257	1	7
417.428	1	9
417.599	1	12
417.769	1	14
417.940	1	9
418.111	1	9
418.281	1	8
418.452	1	1
418.623	1	7
418.793	1	10
418.964	1	0
419.135	1	0
419.305	1	12
419.476	1	23
419.647	1	7
419.817	1	10
419.988	1	1
420.159	1	6
420.329	1	-7
420.500	1	4
420.671	1	17
420.841	1	24
421.012	1	9
421.183	1	2
421.353	1	6
421.524	1	1
421.695	1	6
421.865	1	7
422.036	1	14
422.206	1	15
422.377	1	9
422.548	1	-2
422.718	1	13
422.889	1	-4
423.060	1	4
423.230	1	8
423.401	1	6
423.572	1	1
423.742	1	11
423.913	1	7
424.084	1	3
424.254	1	11
424.425	1	1
424.595	1	13
424.766	1	0
424.937	1	4
425.107	1	6
425.278	1	8
425.449	1	7
425.619	1	8
425.790	1	1
425.961	1	3
426.131	1	10
426.302	1	2
426.472	1	5
426.643	1	15
426.814	1	2
426.984	1	1
427.155	1	4
427.326	1	9
427.496	1	6
427.667	1	7
427.837	1	8
428.008	1	15
428.179	1	0
428.349	1	8
428.520	1	0
428.691	1	10
428.861	1	-3
429.032	1	11
429.202	1	7
429.373	1	6
429.544	1	-1
429.714	1	4
429.885	1	7
430.055	1	9
430.226	1	-3
430.397	1	-1
430.567	1	7
430.738	1	3
430.909	1	7
431.079	1	-1
431.250	1	3
431.420	1	2
431.591	1	0
431.762	1	12
431.932	1	-3
432.103	1	10
432.273	1	-3
432.444	1	11
432.615	1	-3
432.785	1	11
432.956	1	-6
433.126	1	2
433.297	1	1
433.468	1	-1
433.638	1	-1
433.809	1	14
433.979	1	12
434.150	1	14
434.320	1	8
434.491	1	3
434.662	1	8
434.832	1	3
435.003	1	2
435.173	1	-5
435.344	1	14
435.515	1	15
435.685	1	6
435.856	1	4
436.026	1	10
436.197	1	5
436.368	1	2
436.538	1	-7
436.709	1	2
436.879	1	1
437.050	1	-2
437.220	1	10
437.391	1	8
437.562	1	10
437.732	1	-3
437.903	1	-2
438.073	1	6
438.244	1	4
438.414	1	-1
438.585	1	2
438.756	1	0
438.926	1	-4
439.097	1	0
439.267	1	3
439.438	1	6
439.608	1	-7
439.779	1	6
439.949	1	7
440.120	1	12
440.291	1	4
440.461	1	17
440.632	1	7
440.802	1	0
440.973	1	-2
441.143	1	9
441.314	1	5
441.485	1	8
441.655	1	6
441.826	1	12
441.996	1	10
442.167	1	7
442.337	1	-6
442.508	1	5
442.678	1	-9
442.849	1	17
443.019	1	11
443.190	1	5
443.361	1	5
443.531	1	9
443.702	1	13
443.872	1	7
444.043	1	6
444.213	1	-2
444.384	1	-1
444.554	1	12
444.725	1	2
444.895	1	0
445.066	1	8
445.237	1	5
445.407	1	4
445.578	1	5
445.748	1	5
445.919	1	-3
446.089	1	0
446.260	1	4
446.430	1	-1
446.601	1	5
446.771	1	12
446.942	1	6
447.112	1	-4
447.283	1	-2
447.453	1	-4
447.624	1	7
447.794	1	8
447.965	1	0
448.135	1	10
448.306	1	-1
448.477	1	1
448.647	1	5
448.818	1	10
448.988	1	-5
449.159	1	-3
449.329	1	6
449.500	1	0
449.670	1	12
449.841	1	14
450.011	1	12
450.182	1	2
450.352	1	1
450.523	1	-8
450.693	1	3
450.864	1	6
451.034	1	5
451.205	1	17
451.375	1	2
451.546	1	2
451.716	1	4
451.887	1	-10
452.057	1	5
452.228	1	-6
452.398	1	4
452.569	1	2
452.739	1	7
452.910	1	8
453.080	1	3
453.251	1	3
453.421	1	9
453.592	1	18
453.762	1	8
453.933	1	3
454.103	1	-2
454.274	1	-1
454.444	1	-5
454.615	1	13
454.785	1	7
454.956	1	6
455.126	1	-1
455.297	1	21
455.467	1	5
455.638	1	5
455.808	1	7
455.979	1	5
456.149	1	8
456.320	1	3
456.490	1	-1
456.661	1	13
456.831	1	10
457.001	1	10
457.172	1	5
457.342	1	3
457.513	1	4
457.683	1	4
457.854	1	2
458.024	1	-7
458.195	1	-3
458.365	1	0
458.536	1	10
458.706	1	10
458.877	1	12
459.047	1	13
459.218	1	-3
459.388	1	12
459.559	1	11
459.729	1	5
459.899	1	7
460.070	1	12
460.240	1	3
460.411	1	8
460.581	1	22
460.752	1	3
460.922	1	9
461.093	1	11
461.263	1	7
461.434	1	7
461.604	1	2
461.775	1	3
461.945	1	5
462.115	1	16
462.286	1	10
462.456	1	0
462.627	1	7
462.797	1	3
462.968	1	1
463.138	1	3
463.309	1	-1
463.479	1	2
463.649	1	11
463.820	1	3
463.990	1	6
464.161	1	3
464.331	1	-2
464.502	1	5
464.672	1	6
464.843	1	10
465.013	1	1
465.183	1	-5
465.354	1	12
465.524	1	5
465.695	1	3
465.865	1	2
466.036	1	0
466.206	1	20
466.376	1	-8
466.547	1	3
466.717	1	9
466.888	1	11
467.058	1	-2
467.229	1	5
467.399	1	8
467.569	1	16
467.740	1	7
467.910	1	2
468.081	1	1
468.251	1	13
468.422	1	-4
468.592	1	5
468.762	1	-9
468.933	1	-1
469.103	1	-6
469.274	1	11
469.444	1	-6
469.614	1	11
469.785	1	-7
469.955	1	7
470.126	1	-5
470.296	1	3
470.467	1	10
470.637	1	7
470.807	1	11
470.978	1	5
471.148	1	1
471.319	1	-1
471.489	1	1
471.659	1	3
471.830	1	2
472.000	1	3
472.171	1	19
472.341	1	4
472.511	1	-2
472.682	1	7
472.852	1	2
473.023	1	7
473.193	1	14
473.363	1	2
473.534	1	13
473.704	1	8
473.875	1	18
474.045	1	0
474.215	1	17
474.386	1	18
474.556	1	4
474.727	1	8
474.897	1	9
475.067	1	6
475.238	1	5
475.408	1	5
475.578	1	8
475.749	1	5
475.919	1	4
476.090	1	12
476.260	1	5
476.430	1	8
476.601	1	10
476.771	1	6
476.942	1	7
477.112	1	9
477.282	1	1
477.453	1	6
477.623	1	-4
477.793	1	2
477.964	1	4
478.134	1	3
478.305	1	7
478.475	1	11
478.645	1	21
478.816	1	11
478.986	1	5
479.156	1	20
479.327	1	-2
479.497	1	10
479.667	1	9
479.838	1	11
480.008	1	8
480.179	1	6
480.349	1	6
480.519	1	16
480.690	1	5
480.860	1	3
481.030	1	-1
481.201	1	2
481.371	1	9
481.541	1	10
481.712	1	11
481.882	1	28
482.053	1	2
482.223	1	7
482.393	1	3
482.564	1	11
482.734	1	10
482.904	1	3
483.075	1	7
483.245	1	12
483.415	1	13
483.586	1	8
483.756	1	18
483.926	1	1
484.097	1	9
484.267	1	-1
484.437	1	3
484.608	1	13
484.778	1	10
484.948	1	1
485.119	1	6
485.289	1	2
485.459	1	16
485.630	1	8
485.800	1	-3
485.970	1	2
486.141	1	6
486.311	1	14
486.481	1	9
486.652	1	14
486.822	1	19
486.992	1	17
487.163	1	12
487.333	1	13
487.503	1	7
487.674	1	14
487.844	1	13
488.014	1	7
488.185	1	16
488.355	1	16
488.525	1	8
488.696	1	5
488.866	1	16
489.036	1	19
489.207	1	7
489.377	1	9
489.547	1	9
489.718	1	9
489.888	1	-2
490.058	1	1
490.228	1	15
490.399	1	1
490.569	1	17
490.739	1	12
490.910	1	8
491.080	1	27
491.250	1	6
491.421	1	7
491.591	1	10
491.761	1	16
491.932	1	2
492.102	1	3
492.272	1	13
492.442	1	24
492.613	1	6
492.783	1	19
492.953	1	9
493.124	1	19
493.294	1	9
493.464	1	27
493.635	1	14
493.805	1	16
493.975	1	15
494.145	1	13
494.316	1	10
494.486	1	20
494.656	1	8
494.827	1	21
494.997	1	13
495.167	1	20
495.337	1	21
495.508	1	13
495.678	1	7
495.848	1	19
496.019	1	14
496.189	1	17
496.359	1	11
496.529	1	13
496.700	1	11
496.870	1	11
497.040	1	3
497.211	1	8
497.381	1	12
497.551	1	11
497.721	1	15
497.892	1	11
498.062	1	16
498.232	1	7
498.403	1	16
498.573	1	11
498.743	1	15
498.913	1	20
499.084	1	13
499.254	1	14
499.424	1	13
499.594	1	25
499.765	1	7
499.935	1	17
500.105	1	17
500.275	1	18
500.446	1	11
500.616	1	16
500.786	1	14
500.956	1	11
501.127	1	16
501.297	1	10
501.467	1	22
501.638	1	13
501.808	1	26
501.978	1	28
502.148	1	21
502.319	1	25
502.489	1	18
502.659	1	29
502.829	1	29
503.000	1	10
503.170	1	28
503.340	1	27
503.510	1	21
503.681	1	4
503.851	1	12
504.021	1	15
504.191	1	25
504.362	1	4
504.532	1	31
504.702	1	15
504.872	1	28
505.042	1	21
505.213	1	17
505.383	1	25
505.553	1	26
505.723	1	12
505.894	1	17
506.064	1	28
506.234	1	29
506.404	1	35
506.575	1	25
506.745	1	39
506.915	1	30
507.085	1	10
507.256	1	30
507.426	1	21
507.596	1	28
507.766	1	31
507.936	1	18
508.107	1	26
508.277	1	22
508.447	1	32
508.617	1	21
508.788	1	41
508.958	1	19
509.128	1	16
509.298	1	36
509.468	1	29
509.639	1	23
509.809	1	27
509.979	1	25
510.149	1	26
510.319	1	27
510.490	1	33
510.660	1	29
510.830	1	28
511.000	1	23
511.171	1	16
511.341	1	22
511.511	1	28
511.681	1	32
511.851	1	18
512.022	1	21
512.192	1	33
512.362	1	11
512.532	1	29
512.702	1	29
512.873	1	28
513.043	1	42
513.213	1	15
513.383	1	19
513.553	1	13
513.724	1	19
513.894	1	18
514.064	1	47
514.234	1	19
514.404	1	23
514.575	1	39
514.745	1	19
514.915	1	39
515.085	1	29
515.255	1	18
515.425	1	22
515.596	1	39
515.766	1	11
515.936	1	17
516.106	1	26
516.276	1	11
516.447	1	35
516.617	1	40
516.787	1	30
516.957	1	34
517.127	1	29
517.297	1	28
517.468	1	28
517.638	1	33
517.808	1	24
517.978	1	35
518.148	1	33
518.319	1	39
518.489	1	24
518.659	1	32
518.829	1	32
518.999	1	37
519.169	1	45
519.340	1	38
519.510	1	33
519.680	1	43
519.850	1	27
520.020	1	35
520.190	1	31
520.361	1	32
520.531	1	39
520.701	1	38
520.871	1	33
521.041	1	41
521.211	1	21
521.382	1	26
521.552	1	39
521.722	1	43
521.892	1	34
522.062	1	42
522.232	1	32
522.402	1	35
522.573	1	23
522.743	1	28
522.913	1	26
523.083	1	35
523.253	1	39
523.423	1	51
523.593	1	21
523.764	1	45
523.934	1	42
524.104	1	43
524.274	1	36
524.444	1	40
524.614	1	32
524.784	1	29
524.955	1	33
525.125	1	40
525.295	1	23
525.465	1	49
525.635	1	33
525.805	1	25
525.975	1	31
526.146	1	27
526.316	1	51
526.486	1	38
526.656	1	41
526.826	1	39
526.996	1	52
527.166	1	29
527.337	1	30
527.507	1	44
527.677	1	49
527.847	1	38
528.017	1	36
528.187	1	33
528.357	1	36
528.527	1	53
528.698	1	54
528.868	1	36
529.038	1	43
529.208	1	36
529.378	1	46
529.548	1	34
529.718	1	45
529.888	1	51
530.058	1	45
530.229	1	38
530.399	1	46
530.569	1	28
530.739	1	44
530.909	1	36
531.079	1	44
531.249	1	38
531.419	1	47
531.589	1	43
531.760	1	51
531.930	1	42
532.100	1	38
532.270	1	43
532.440	1	44
532.610	1	31
532.780	1	42
532.950	1	44
533.120	1	52
533.290	1	41
533.461	1	47
533.631	1	48
533.801	1	62
533.971	1	35
534.141	1	35
534.311	1	49
534.481	1	36
534.651	1	37
534.821	1	47
534.991	1	44
535.162	1	45
535.332	1	45
535.502	1	42
535.672	1	44
535.842	1	44
536.012	1	47
536.182	1	46
536.352	1	41
536.522	1	37
536.692	1	40
536.862	1	40
537.032	1	54
537.203	1	33
537.373	1	50
537.543	1	44
537.713	1	46
537.883	1	38
538.053	1	35
538.223	1	44
538.393	1	53
538.563	1	56
538.733	1	49
538.903	1	32
539.073	1	36
539.243	1	44
539.413	1	33
539.584	1	37
539.754	1	42
539.924	1	47
540.094	1	49
540.264	1	42
540.434	1	54
540.604	1	40
540.774	1	42
540.944	1	30
541.114	1	39
541.284	1	41
541.454	1	43
541.624	1	47
541.794	1	44
541.964	1	48
542.134	1	46
542.305	1	36
542.475	1	45
542.645	1	44
542.815	1	39
542.985	1	37
543.155	1	38
543.325	1	43
543.495	1	43
543.665	1	45
543.835	1	52
544.005	1	57
544.175	1	40
544.345	1	47
544.515	1	36
544.685	1	42
544.855	1	44
545.025	1	42
545.195	1	43
545.365	1	36
545.535	1	48
545.705	1	41
545.875	1	36
546.045	1	54
546.216	1	45
546.386	1	48
546.556	1	44
546.726	1	47
546.896	1	40
547.066	1	43
547.236	1	52
547.406	1	48
547.576	1	52
547.746	1	41
547.916	1	48
548.086	1	50
548.256	1	40
548.426	1	34
548.596	1	48
548.766	1	46
548.936	1	48
549.106	1	63
549.276	1	50
549.446	1	45
549.616	1	53
549.786	1	55
549.956	1	57
550.126	1	62
550.296	1	54
550.466	1	46
550.636	1	56
550.806	1	50
550.976	1	56
551.146	1	52
551.316	1	55
551.486	1	51
551.656	1	39
551.826	1	51
551.996	1	61
552.166	1	51
552.336	1	46
552.506	1	50
552.676	1	70
552.846	1	56
553.016	1	52
553.186	1	57
553.356	1	49
553.526	1	49
553.696	1	55
553.866	1	44
554.036	1	45
554.206	1	52
554.376	1	44
554.546	1	57
554.716	1	48
554.886	1	44
555.056	1	53
555.226	1	42
555.396	1	53
555.566	1	48
555.736	1	53
555.906	1	58
556.076	1	41
556.246	1	43
556.416	1	28
556.586	1	48
556.756	1	45
556.926	1	53
557.096	1	45
557.266	1	35
557.436	1	36
557.606	1	51
557.776	1	48
557.946	1	60
558.116	1	47
558.286	1	53
558.456	1	40
558.626	1	50
558.796	1	48
558.966	1	56
559.136	1	45
559.306	1	41
559.476	1	47
559.646	1	39
559.816	1	43
559.986	1	36
560.155	1	60
560.325	1	40
560.495	1	47
560.665	1	45
560.835	1	42
561.005	1	43
561.175	1	55
561.345	1	47
561.515	1	49
561.685	1	46
561.855	1	37
562.025	1	44
562.195	1	48
562.365	1	40
562.535	1	45
562.705	1	53
562.875	1	46
563.045	1	41
563.215	1	56
563.385	1	35
563.555	1	48
563.725	1	47
563.895	1	48
564.064	1	47
564.234	1	43
564.404	1	48
564.574	1	45
564.744	1	52
564.914	1	47
565.084	1	50
565.254	1	49
565.424	1	50
565.594	1	42
565.764	1	51
565.934	1	40
566.104	1	54
566.274	1	48
566.444	1	39
566.614	1	41
566.783	1	41
566.953	1	56
567.123	1	43
567.293	1	55
567.463	1	49
567.633	1	49
567.803	1	39
567.973	1	40
568.143	1	47
568.313	1	47
568.483	1	56
568.653	1	43
568.823	1	48
568.993	1	50
569.162	1	60
569.332	1	41
569.502	1	41
569.672	1	50
569.842	1	49
570.012	1	53
570.182	1	54
570.352	1	44
570.522	1	41
570.692	1	48
570.862	1	42
571.031	1	41
571.201	1	52
571.371	1	42
571.541	1	53
571.711	1	47
571.881	1	58
572.051	1	40
572.221	1	41
572.391	1	34
572.561	1	50
572.731	1	38
572.900	1	38
573.070	1	39
573.240	1	50
573.410	1	56
573.580	1	48
573.750	1	44
573.920	1	49
574.090	1	60
574.260	1	50
574.430	1	40
574.599	1	51
574.769	1	45
574.939	1	44
575.109	1	51
575.279	1	54
575.449	1	41
575.619	1	42
575.789	1	31
575.959	1	31
576.128	1	28
576.298	1	59
576.468	1	37
576.638	1	40
576.808	1	43
576.978	1	40
577.148	1	44
577.318	1	57
577.487	1	42
577.657	1	37
577.827	1	38
577.997	1	36
578.167	1	35
578.337	1	48
578.507	1	42
578.677	1	50
578.846	1	48
579.016	1	46
579.186	1	40
579.356	1	39
579.526	1	48
579.696	1	58
579.866	1	40
580.036	1	38
580.205	1	43
580.375	1	47
580.545	1	46
580.715	1	41
580.885	1	41
581.055	1	42
581.225	1	51
581.394	1	44
581.564	1	53
581.734	1	40
581.904	1	43
582.074	1	35
582.244	1	34
582.414	1	45
582.583	1	55
582.753	1	32
582.923	1	40
583.093	1	41
583.263	1	51
583.433	1	45
583.603	1	47
583.772	1	37
583.942	1	42
584.112	1	43
584.282	1	44
584.452	1	48
584.622	1	39
584.791	1	36
584.961	1	46
585.131	1	40
585.301	1	31
585.471	1	47
585.641	1	31
585.811	1	51
585.980	1	51
586.150	1	46
586.320	1	34
586.490	1	53
586.660	1	40
586.830	1	45
586.999	1	43
587.169	1	47
587.339	1	45
587.509	1	31
587.679	1	51
587.849	1	40
588.018	1	49
588.188	1	39
588.358	1	42
588.528	1	43
588.698	1	47
588.867	1	42
589.037	1	41
589.207	1	36
589.377	1	47
589.547	1	37
589.717	1	41
589.886	1	36
590.056	1	33
590.226	1	50
590.396	1	39
590.566	1	41
590.735	1	37
590.905	1	38
591.075	1	32
591.245	1	27
591.415	1	37
591.585	1	43
591.754	1	40
591.924	1	31
592.094	1	37
592.264	1	35
592.434	1	39
592.603	1	34
592.773	1	32
592.943	1	41
593.113	1	37
593.283	1	35
593.452	1	36
593.622	1	39
593.792	1	40
593.962	1	39
594.132	1	43
594.301	1	39
594.471	1	47
594.641	1	20
594.811	1	40
594.981	1	19
595.150	1	36
595.320	1	27
595.490	1	37
595.660	1	34
595.829	1	30
595.999	1	24
596.169	1	42
596.339	1	38
596.509	1	31
596.678	1	33
596.848	1	38
597.018	1	24
597.188	1	29
597.358	1	39
597.527	1	30
597.697	1	28
597.867	1	22
598.037	1	23
598.206	1	37
598.376	1	39
598.546	1	34
598.716	1	49
598.885	1	25
599.055	1	34
599.225	1	23
599.395	1	37
599.565	1	26
599.734	1	33
599.904	1	32
600.074	1	38
600.244	1	32
600.413	1	35
600.583	1	47
600.753	1	35
600.923	1	21
601.092	1	40
601.262	1	34
601.432	1	26
601.602	1	47
601.771	1	35
601.941	1	40
602.111	1	37
602.281	1	37
602.451	1	36
602.620	1	37
602.790	1	31
602.960	1	40
603.130	1	39
603.299	1	29
603.469	1	28
603.639	1	32
603.809	1	27
603.978	1	33
604.148	1	35
604.318	1	42
604.487	1	31
604.657	1	36
604.827	1	39
604.997	1	44
605.166	1	38
605.336	1	49
605.506	1	35
605.676	1	30
605.845	1	35
606.015	1	26
606.185	1	43
606.355	1	39
606.524	1	30
606.694	1	30
606.864	1	36
607.034	1	34
607.203	1	36
607.373	1	34
607.543	1	33
607.712	1	27
607.882	1	45
608.052	1	30
608.222	1	38
608.391	1	39
608.561	1	32
608.731	1	39
608.901	1	37
609.070	1	38
609.240	1	30
609.410	1	37
609.579	1	38
609.749	1	35
609.919	1	33
610.089	1	29
610.258	1	39
610.428	1	33
610.598	1	29
610.767	1	37
610.937	1	33
611.107	1	29
611.277	1	29
611.446	1	32
611.616	1	29
611.786	1	50
611.955	1	33
612.125	1	35
612.295	1	23
612.465	1	40
612.634	1	31
612.804	1	34
612.974	1	26
613.143	1	34
613.313	1	26
613.483	1	29
613.652	1	29
613.822	1	19
613.992	1	29
614.162	1	43
614.331	1	29
614.501	1	30
614.671	1	33
614.840	1	24
615.010	1	21
615.180	1	26
615.349	1	42
615.519	1	27
615.689	1	34
615.858	1	28
616.028	1	25
616.198	1	29
616.368	1	30
616.537	1	21
616.707	1	33
616.877	1	32
617.046	1	38
617.216	1	18
617.386	1	27
617.555	1	30
617.725	1	32
617.895	1	33
618.064	1	27
618.234	1	18
618.404	1	22
618.573	1	21
618.743	1	27
618.913	1	33
619.082	1	22
619.252	1	32
619.422	1	14
619.591	1	23
619.761	1	27
619.931	1	25
620.100	1	31
620.270	1	23
620.440	1	24
620.609	1	31
620.779	1	19
620.949	1	26
621.118	1	20
621.288	1	28
621.458	1	24
621.627	1	28
621.797	1	27
621.967	1	15
622.136	1	45
622.306	1	23
622.476	1	21
622.645	1	33
622.815	1	38
622.985	1	18
623.154	1	34
623.324	1	31
623.494	1	30
623.663	1	31
623.833	1	33
624.002	1	8
624.172	1	27
624.342	1	34
624.511	1	20
624.681	1	30
624.851	1	22
625.020	1	17
625.190	1	30
625.360	1	28
625.529	1	20
625.699	1	24
625.869	1	36
626.038	1	20
626.208	1	31
626.377	1	36
626.547	1	30
626.717	1	27
626.886	1	29
627.056	1	15
627.226	1	23
627.395	1	28
627.565	1	26
627.735	1	16
627.904	1	25
628.074	1	15
628.243	1	20
628.413	1	26
628.583	1	26
628.752	1	23
628.922	1	31
629.091	1	22
629.261	1	36
629.431	1	18
629.600	1	34
629.770	1	18
629.940	1	18
630.109	1	15
630.279	1	18
630.448	1	20
630.618	1	32
630.788	1	30
630.957	1	28
631.127	1	33
631.297	1	16
631.466	1	35
631.636	1	9
631.805	1	17
631.975	1	42
632.145	1	15
632.314	1	27
632.484	1	24
632.653	1	30
632.823	1	28
632.993	1	10
633.162	1	33
633.332	1	26
633.501	1	10
633.671	1	22
633.841	1	22
634.010	1	15
634.180	1	26
634.349	1	30
634.519	1	7
634.689	1	28
634.858	1	28
635.028	1	19
635.197	1	32
635.367	1	11
635.537	1	16
635.706	1	27
635.876	1	24
636.045	1	27
636.215	1	26
636.384	1	29
636.554	1	30
636.724	1	20
636.893	1	18
637.063	1	25
637.232	1	19
637.402	1	14
637.572	1	30
637.741	1	19
637.911	1	19
638.080	1	13
638.250	1	18
638.419	1	2
638.589	1	18
638.759	1	6
638.928	1	16
639.098	1	22
639.267	1	33
639.437	1	20
639.606	1	20
639.776	1	17
639.946	1	10
640.115	1	15
640.285	1	30
640.454	1	17
640.624	1	15
640.793	1	34
640.963	1	17
641.132	1	26
641.302	1	7
641.472	1	23
641.641	1	-1
641.811	1	10
641.980	1	17
642.150	1	13
642.319	1	8
642.489	1	17
642.659	1	27
642.828	1	20
642.998	1	19
643.167	1	21
643.337	1	24
643.506	1	6
643.676	1	21
643.845	1	22
644.015	1	22
644.184	1	21
644.354	1	29
644.524	1	15
644.693	1	23
644.863	1	11
645.032	1	7
645.202	1	7
645.371	1	19
645.541	1	20
645.710	1	12
645.880	1	15
646.049	1	9
646.219	1	17
646.388	1	18
646.558	1	19
646.728	1	16
646.897	1	16
647.067	1	18
647.236	1	19
647.406	1	6
647.575	1	22
647.745	1	15
647.914	1	21
648.084	1	24
648.253	1	23
648.423	1	23
648.592	1	10
648.762	1	29
648.931	1	29
649.101	1	12
649.270	1	14
649.440	1	14
649.610	1	6
649.779	1	17
649.949	1	15
650.118	1	24
650.288	1	19
650.457	1	18
650.627	1	21
650.796	1	27
650.966	1	22
651.135	1	5
651.305	1	24
651.474	1	10
651.644	1	22
651.813	1	20
651.983	1	8
652.152	1	20
652.322	1	17
652.491	1	16
652.661	1	5
652.830	1	25
653.000	1	21
653.169	1	20
653.339	1	10
653.508	1	16
653.678	1	4
653.847	1	16
654.017	1	20
654.186	1	14
654.356	1	18
654.525	1	14
654.695	1	24
654.864	1	10
655.034	1	18
655.203	1	13
655.373	1	18
655.542	1	15
655.712	1	19
655.881	1	18
656.051	1	13
656.220	1	1
656.390	1	13
656.559	1	10
656.729	1	21
656.898	1	7
657.068	1	10
657.237	1	5
657.406	1	11
657.576	1	17
657.745	1	5
657.915	1	17
658.084	1	24
658.254	1	16
658.423	1	18
658.593	1	21
658.762	1	24
658.932	1	2
659.101	1	18
659.271	1	18
659.440	1	13
659.610	1	22
659.779	1	12
659.949	1	10
660.118	1	19
660.288	1	13
660.457	1	13
660.626	1	19
660.796	1	8
660.965	1	17
661.135	1	10
661.304	1	11
661.474	1	3
661.643	1	17
661.813	1	33
661.982	1	14
662.152	1	22
662.321	1	20
662.491	1	4
662.660	1	18
662.829	1	6
662.999	1	14
663.168	1	9
663.338	1	18
663.507	1	16
663.677	1	23
663.846	1	7
664.016	1	12
664.185	1	18
664.354	1	19
664.524	1	17
664.693	1	15
664.863	1	8
665.032	1	14
665.202	1	22
665.371	1	18
665.541	1	3
665.710	1	21
665.879	1	13
666.049	1	9
666.218	1	6
666.388	1	22
666.557	1	16
666.727	1	12
666.896	1	3
667.065	1	5
667.235	1	12
667.404	1	10
667.574	1	10
667.743	1	16
667.913	1	14
668.082	1	11
668.251	1	14
668.421	1	9
668.590	1	17
668.760	1	11
668.929	1	-2
669.099	1	6
669.268	1	9
669.437	1	23
669.607	1	4
669.776	1	4
669.946	1	10
670.115	1	7
670.285	1	18
670.454	1	16
670.623	1	10
670.793	1	7
670.962	1	16
671.132	1	13
671.301	1	17
671.470	1	12
671.640	1	18
671.809	1	10
671.979	1	-1
672.148	1	7
672.317	1	24
672.487	1	12
672.656	1	5
672.826	1	9
672.995	1	24
673.164	1	17
673.334	1	12
673.503	1	8
673.673	1	18
673.842	1	16
674.011	1	9
674.181	1	20
674.350	1	19
674.520	1	15
674.689	1	15
674.858	1	16
675.028	1	11
675.197	1	0
675.367	1	25
675.536	1	16
675.705	1	14
675.875	1	10
676.044	1	10
676.214	1	17
676.383	1	12
676.552	1	17
676.722	1	14
676.891	1	17
677.060	1	1
677.230	1	7
677.399	1	3
677.569	1	14
677.738	1	22
677.907	1	10
678.077	1	15
678.246	1	9
678.416	1	13
678.585	1	11
678.754	1	12
678.924	1	11
679.093	1	24
679.262	1	9
679.432	1	15
679.601	1	14
679.771	1	9
679.940	1	15
680.109	1	22
680.279	1	10
680.448	1	15
680.617	1	3
680.787	1	6
680.956	1	12
681.125	1	15
681.295	1	16
681.464	1	17
681.634	1	24
681.803	1	14
681.972	1	7
682.142	1	14
682.311	1	23
682.480	1	17
682.650	1	21
682.819	1	10
682.988	1	18
683.158	1	7
683.327	1	14
683.496	1	12
683.666	1	4
683.835	1	11
684.004	1	22
684.174	1	8
684.343	1	-2
684.512	1	18
684.682	1	7
684.851	1	15
685.021	1	11
685.190	1	7
685.359	1	19
685.529	1	7
685.698	1	22
685.867	1	8
686.037	1	24
686.206	1	6
686.375	1	24
686.545	1	20
686.714	1	8
686.883	1	7
687.053	1	25
687.222	1	18
687.391	1	23
687.561	1	22
687.730	1	9
687.899	1	3
688.069	1	12
688.238	1	10
688.407	1	9
688.577	1	16
688.746	1	4
