340.368	1	-2
340.539	1	-16
340.710	1	-14
340.881	1	-8
341.052	1	3
341.223	1	-13
341.394	1	-6
341.565	1	-12
341.737	1	0
341.908	1	0
342.079	1	-14
342.250	1	-16
342.421	1	1
342.592	1	1
342.763	1	4
342.934	1	-3
343.105	1	2
343.276	1	2
343.447	1	-6
343.618	1	6
343.789	1	-6
343.960	1	5
344.131	1	-4
344.302	1	3
344.473	1	-3
344.644	1	3
344.815	1	0
344.986	1	-2
345.157	1	-10
345.328	1	1
345.499	1	-7
345.670	1	-13
345.841	1	0
346.012	1	11
346.183	1	-2
346.354	1	0
346.526	1	-11
346.697	1	1
346.868	1	0
347.039	1	9
347.210	1	-5
347.381	1	-2
347.552	1	-12
347.723	1	-7
347.894	1	0
348.065	1	4
348.236	1	9
348.407	1	-3
348.578	1	6
348.749	1	-9
348.920	1	-6
349.091	1	-6
349.262	1	-6
349.433	1	3
349.604	1	9
349.775	1	12
349.946	1	-5
350.117	1	-4
350.288	1	13
350.459	1	-14
350.630	1	1
350.801	1	-2
350.972	1	1
351.143	1	9
351.314	1	1
351.485	1	4
351.656	1	11
351.827	1	-6
351.998	1	3
352.169	1	-4
352.340	1	-2
352.511	1	-5
352.682	1	5
352.853	1	-1
353.024	1	0
353.195	1	2
353.366	1	8
353.537	1	-4
353.708	1	-2
353.879	1	-3
354.050	1	-12
354.221	1	-8
354.392	1	-16
354.563	1	2
354.734	1	3
354.905	1	-5
355.076	1	-7
355.247	1	9
355.418	1	-19
355.589	1	-5
355.760	1	0
355.931	1	6
356.102	1	6
356.273	1	-10
356.444	1	11
356.615	1	-8
356.785	1	5
356.956	1	5
357.127	1	-3
357.298	1	-1
357.469	1	-3
357.640	1	0
357.811	1	-3
357.982	1	-3
358.153	1	4
358.324	1	-7
358.495	1	4
358.666	1	-4
358.837	1	-16
359.008	1	-6
359.179	1	0
359.350	1	1
359.521	1	-1
359.692	1	4
359.863	1	0
360.034	1	7
360.205	1	-4
360.376	1	3
360.547	1	-2
360.718	1	-3
360.889	1	-3
361.060	1	5
361.231	1	-1
361.401	1	-4
361.572	1	6
361.743	1	-4
361.914	1	4
362.085	1	12
362.256	1	1
362.427	1	8
362.598	1	-7
362.769	1	1
362.940	1	2
363.111	1	-2
363.282	1	6
363.453	1	-2
363.624	1	9
363.795	1	1
363.966	1	-8
364.137	1	0
364.308	1	0
364.478	1	7
364.649	1	19
364.820	1	-10
364.991	1	1
365.162	1	13
365.333	1	-5
365.504	1	11
365.675	1	-3
365.846	1	7
366.017	1	-5
366.188	1	0
366.359	1	-6
366.530	1	10
366.701	1	3
366.871	1	7
367.042	1	9
367.213	1	19
367.384	1	13
367.555	1	8
367.726	1	11
367.897	1	10
368.068	1	13
368.239	1	10
368.410	1	16
368.581	1	0
368.752	1	6
368.923	1	-3
369.093	1	1
369.264	1	9
369.435	1	10
369.606	1	11
369.777	1	1
369.948	1	10
370.119	1	2
370.290	1	1
370.461	1	20
370.632	1	13
370.803	1	19
370.973	1	14
371.144	1	2
371.315	1	4
371.486	1	6
371.657	1	18
371.828	1	8
371.999	1	2
372.170	1	14
372.341	1	11
372.512	1	3
372.682	1	8
372.853	1	18
373.024	1	8
373.195	1	-2
373.366	1	5
373.537	1	11
373.708	1	4
373.879	1	0
374.050	1	8
374.220	1	11
374.391	1	10
374.562	1	11
374.733	1	5
374.904	1	2
375.075	1	2
375.246	1	8
375.417	1	7
375.588	1	9
375.758	1	8
375.929	1	9
376.100	1	7
376.271	1	4
376.442	1	-6
376.613	1	-3
376.784	1	-4
376.955	1	-4
377.125	1	6
377.296	1	-7
377.467	1	9
377.638	1	2
377.809	1	11
377.980	1	9
378.151	1	0
378.321	1	-2
378.492	1	-3
378.663	1	0
378.834	1	-11
379.005	1	6
379.176	1	6
379.347	1	8
379.518	1	2
379.688	1	6
379.859	1	0
380.030	1	5
380.201	1	8
380.372	1	8
380.543	1	5
380.714	1	15
380.884	1	-3
381.055	1	11
381.226	1	-1
381.397	1	1
381.568	1	8
381.739	1	3
381.910	1	-1
382.080	1	-4
382.251	1	-8
382.422	1	-3
382.593	1	-4
382.764	1	0
382.935	1	-4
383.105	1	1
383.276	1	10
383.447	1	4
383.618	1	4
383.789	1	-6
383.960	1	6
384.130	1	4
384.301	1	3
384.472	1	-5
384.643	1	8
384.814	1	-6
384.985	1	2
385.156	1	0
385.326	1	10
385.497	1	8
385.668	1	8
385.839	1	-2
386.010	1	-12
386.180	1	-2
386.351	1	5
386.522	1	9
386.693	1	-13
386.864	1	-2
387.035	1	6
387.205	1	-2
387.376	1	-2
387.547	1	-11
387.718	1	6
387.889	1	1
388.060	1	17
388.230	1	7
388.401	1	-1
388.572	1	-1
388.743	1	-1
388.914	1	5
389.084	1	0
389.255	1	-6
389.426	1	0
389.597	1	0
389.768	1	-3
389.939	1	2
390.109	1	6
390.280	1	7
390.451	1	-3
390.622	1	0
390.793	1	-5
390.963	1	12
391.134	1	9
391.305	1	-4
391.476	1	-3
391.647	1	6
391.817	1	0
391.988	1	1
392.159	1	-7
392.330	1	12
392.501	1	-5
392.671	1	-11
392.842	1	-5
393.013	1	0
393.184	1	4
393.355	1	-4
393.525	1	0
393.696	1	7
393.867	1	0
394.038	1	0
394.208	1	5
394.379	1	2
394.550	1	3
394.721	1	-8
394.892	1	0
395.062	1	5
395.233	1	5
395.404	1	1
395.575	1	-1
395.746	1	13
395.916	1	4
396.087	1	-6
396.258	1	2
396.429	1	-7
396.599	1	-10
396.770	1	-1
396.941	1	-3
397.112	1	7
397.283	1	1
397.453	1	15
397.624	1	3
397.795	1	3
397.966	1	0
398.136	1	-10
398.307	1	-6
398.478	1	-2
398.649	1	-5
398.819	1	-6
398.990	1	-3
399.161	1	12
399.332	1	3
399.503	1	-5
399.673	1	-2
399.844	1	-1
400.015	1	-14
400.186	1	-8
400.356	1	-8
400.527	1	-8
400.698	1	-5
400.869	1	-7
401.039	1	7
401.210	1	2
401.381	1	-8
401.552	1	-18
401.722	1	6
401.893	1	3
402.064	1	-10
402.235	1	-2
402.405	1	4
402.576	1	-1
402.747	1	1
402.918	1	8
403.088	1	5
403.259	1	-1
403.430	1	-5
403.601	1	1
403.771	1	4
403.942	1	9
404.113	1	-8
404.284	1	1
404.454	1	2
404.625	1	2
404.796	1	5
404.967	1	-1
405.137	1	8
405.308	1	8
405.479	1	-1
405.649	1	-5
405.820	1	-25
405.991	1	-4
406.162	1	8
406.332	1	-1
406.503	1	0
406.674	1	3
406.845	1	4
407.015	1	14
407.186	1	8
407.357	1	2
407.527	1	-6
407.698	1	4
407.869	1	-6
408.040	1	-4
408.210	1	-2
408.381	1	1
408.552	1	-6
408.722	1	-11
408.893	1	3
409.064	1	1
409.235	1	-3
409.405	1	3
409.576	1	-5
409.747	1	2
409.917	1	-6
410.088	1	6
410.259	1	3
410.430	1	4
410.600	1	-5
410.771	1	-1
410.942	1	1
411.112	1	-7
411.283	1	8
411.454	1	1
411.625	1	-1
411.795	1	-7
411.966	1	-1
412.137	1	1
412.307	1	-5
412.478	1	13
412.649	1	-1
412.819	1	-10
412.990	1	-2
413.161	1	-3
413.332	1	0
413.502	1	-1
413.673	1	5
413.844	1	0
414.014	1	5
414.185	1	3
414.356	1	-4
414.526	1	-4
414.697	1	7
414.868	1	5
415.038	1	0
415.209	1	-2
415.380	1	-3
415.550	1	0
415.721	1	-2
415.892	1	-1
416.063	1	-6
416.233	1	2
416.404	1	-7
416.575	1	6
416.745	1	-10
416.916	1	-5
417.087	1	2
417.257	1	-7
417.428	1	-1
417.599	1	6
417.769	1	17
417.940	1	13
418.111	1	0
418.281	1	6
418.452	1	-16
418.623	1	-8
418.793	1	-2
418.964	1	-1
419.135	1	-2
419.305	1	2
419.476	1	6
419.647	1	0
419.817	1	1
419.988	1	-1
420.159	1	4
420.329	1	-5
420.500	1	-10
420.671	1	7
420.841	1	13
421.012	1	3
421.183	1	-6
421.353	1	-4
421.524	1	-12
421.695	1	-7
421.865	1	6
422.036	1	-1
422.206	1	-2
422.377	1	-8
422.548	1	-12
422.718	1	2
422.889	1	-2
423.060	1	-9
423.230	1	0
423.401	1	-5
423.572	1	-2
423.742	1	1
423.913	1	3
424.084	1	1
424.254	1	3
424.425	1	6
424.595	1	-3
424.766	1	-4
424.937	1	2
425.107	1	-12
425.278	1	10
425.449	1	5
425.619	1	-5
425.790	1	-14
425.961	1	-4
426.131	1	-4
426.302	1	9
426.472	1	-5
426.643	1	4
426.814	1	7
426.984	1	-2
427.155	1	-8
427.326	1	0
427.496	1	0
427.667	1	0
427.837	1	-8
428.008	1	3
428.179	1	-3
428.349	1	-12
428.520	1	-8
428.691	1	6
428.861	1	-5
429.032	1	1
429.202	1	1
429.373	1	-1
429.544	1	3
429.714	1	-1
429.885	1	0
430.055	1	-9
430.226	1	1
430.397	1	-4
430.567	1	-10
430.738	1	0
430.909	1	1
431.079	1	-10
431.250	1	-5
431.420	1	-7
431.591	1	4
431.762	1	7
431.932	1	3
432.103	1	-3
432.273	1	-11
432.444	1	1
432.615	1	-7
432.785	1	1
432.956	1	-5
433.126	1	-6
433.297	1	6
433.468	1	-5
433.638	1	-2
433.809	1	-2
433.979	1	5
434.150	1	5
434.320	1	1
434.491	1	-10
434.662	1	-4
434.832	1	-1
435.003	1	-5
435.173	1	-4
435.344	1	-2
435.515	1	14
435.685	1	-1
435.856	1	-1
436.026	1	9
436.197	1	-4
436.368	1	0
436.538	1	-15
436.709	1	5
436.879	1	-5
437.050	1	1
437.220	1	8
437.391	1	3
437.562	1	3
437.732	1	-7
437.903	1	3
438.073	1	-9
438.244	1	1
438.414	1	-10
438.585	1	-2
438.756	1	0
438.926	1	-7
439.097	1	-6
439.267	1	-3
439.438	1	-11
439.608	1	-11
439.779	1	0
439.949	1	5
440.120	1	-4
440.291	1	6
440.461	1	-5
440.632	1	-2
440.802	1	-1
440.973	1	-4
441.143	1	6
441.314	1	-2
441.485	1	4
441.655	1	2
441.826	1	-5
441.996	1	6
442.167	1	3
442.337	1	2
442.508	1	-2
442.678	1	-8
442.849	1	11
443.019	1	3
443.190	1	1
443.361	1	-5
443.531	1	6
443.702	1	-7
443.872	1	5
444.043	1	0
444.213	1	1
444.384	1	0
444.554	1	4
444.725	1	-6
444.895	1	-2
445.066	1	-11
445.237	1	1
445.407	1	-1
445.578	1	-5
445.748	1	8
445.919	1	-4
446.089	1	1
446.260	1	-3
446.430	1	2
446.601	1	-4
446.771	1	3
446.942	1	7
447.112	1	-2
447.283	1	4
447.453	1	-12
447.624	1	-2
447.794	1	-9
447.965	1	3
448.135	1	-10
448.306	1	-4
448.477	1	5
448.647	1	-14
448.818	1	4
448.988	1	-2
449.159	1	-6
449.329	1	-4
449.500	1	-6
449.670	1	12
449.841	1	-1
450.011	1	1
450.182	1	-13
450.352	1	3
450.523	1	0
450.693	1	-5
450.864	1	-5
451.034	1	1
451.205	1	11
451.375	1	2
451.546	1	-6
451.716	1	-4
451.887	1	-20
452.057	1	6
452.228	1	-2
452.398	1	0
452.569	1	-5
452.739	1	4
452.910	1	-2
453.080	1	1
453.251	1	-4
453.421	1	-4
453.592	1	0
453.762	1	-5
453.933	1	3
454.103	1	-4
454.274	1	-1
454.444	1	-10
454.615	1	4
454.785	1	0
454.956	1	3
455.126	1	-10
455.297	1	5
455.467	1	-3
455.638	1	3
455.808	1	-1
455.979	1	2
456.149	1	-2
456.320	1	-9
456.490	1	-3
456.661	1	7
456.831	1	9
457.001	1	-5
457.172	1	-3
457.342	1	1
457.513	1	7
457.683	1	0
457.854	1	-2
458.024	1	-9
458.195	1	-11
458.365	1	-7
458.536	1	2
458.706	1	4
458.877	1	0
459.047	1	4
459.218	1	-2
459.388	1	0
459.559	1	3
459.729	1	1
459.899	1	2
460.070	1	-10
460.240	1	-3
460.411	1	-4
460.581	1	4
460.752	1	-1
460.922	1	2
461.093	1	2
461.263	1	1
461.434	1	-1
461.604	1	2
461.775	1	0
461.945	1	6
462.115	1	-3
462.286	1	1
462.456	1	-12
462.627	1	14
462.797	1	0
462.968	1	3
463.138	1	-3
463.309	1	-4
463.479	1	2
463.649	1	-8
463.820	1	6
463.990	1	-4
464.161	1	-5
464.331	1	-1
464.502	1	-9
464.672	1	-6
464.843	1	-8
465.013	1	-2
465.183	1	-2
465.354	1	5
465.524	1	-2
465.695	1	-3
465.865	1	-6
466.036	1	-9
466.206	1	13
466.376	1	-5
466.547	1	-2
466.717	1	-1
466.888	1	8
467.058	1	-13
467.229	1	-9
467.399	1	18
467.569	1	7
467.740	1	1
467.910	1	-6
468.081	1	-5
468.251	1	-6
468.422	1	-5
468.592	1	10
468.762	1	-10
468.933	1	-6
469.103	1	-17
469.274	1	7
469.444	1	0
469.614	1	6
469.785	1	-16
469.955	1	-10
470.126	1	-11
470.296	1	-2
470.467	1	-5
470.637	1	-6
470.807	1	3
470.978	1	-5
471.148	1	4
471.319	1	-6
471.489	1	-6
471.659	1	-12
471.830	1	-2
472.000	1	-3
472.171	1	5
472.341	1	-2
472.511	1	-9
472.682	1	-3
472.852	1	-3
473.023	1	3
473.193	1	3
473.363	1	-17
473.534	1	3
473.704	1	-6
473.875	1	12
474.045	1	-5
474.215	1	11
474.386	1	7
474.556	1	0
474.727	1	-8
474.897	1	7
475.067	1	0
475.238	1	6
475.408	1	-4
475.578	1	-7
475.749	1	-10
475.919	1	-1
476.090	1	-1
476.260	1	6
476.430	1	5
476.601	1	-10
476.771	1	-1
476.942	1	11
477.112	1	-7
477.282	1	-8
477.453	1	-5
477.623	1	-9
477.793	1	0
477.964	1	-4
478.134	1	-16
478.305	1	-2
478.475	1	2
478.645	1	5
478.816	1	-5
478.986	1	3
479.156	1	6
479.327	1	1
479.497	1	-5
479.667	1	-14
479.838	1	1
480.008	1	-7
480.179	1	5
480.349	1	-10
480.519	1	0
480.690	1	4
480.860	1	-5
481.030	1	-3
481.201	1	0
481.371	1	3
481.541	1	-9
481.712	1	1
481.882	1	2
482.053	1	5
482.223	1	-6
482.393	1	-3
482.564	1	1
482.734	1	3
482.904	1	-13
483.075	1	3
483.245	1	1
483.415	1	-2
483.586	1	-6
483.756	1	-1
483.926	1	-2
484.097	1	-11
484.267	1	-3
484.437	1	0
484.608	1	-3
484.778	1	-4
484.948	1	-4
485.119	1	-2
485.289	1	-2
485.459	1	9
485.630	1	-4
485.800	1	-3
485.970	1	-4
486.141	1	1
486.311	1	5
486.481	1	-3
486.652	1	-2
486.822	1	9
486.992	1	5
487.163	1	-5
487.333	1	4
487.503	1	-2
487.674	1	-5
487.844	1	4
488.014	1	2
488.185	1	7
488.355	1	-8
488.525	1	1
488.696	1	-9
488.866	1	2
489.036	1	9
489.207	1	1
489.377	1	-3
489.547	1	1
489.718	1	-1
489.888	1	-11
490.058	1	-6
490.228	1	13
490.399	1	2
490.569	1	6
490.739	1	-3
490.910	1	5
491.080	1	7
491.250	1	-4
491.421	1	-10
491.591	1	-4
491.761	1	-1
491.932	1	-1
492.102	1	-4
492.272	1	3
492.442	1	-3
492.613	1	-12
492.783	1	7
492.953	1	1
493.124	1	3
493.294	1	-5
493.464	1	4
493.635	1	0
493.805	1	-8
493.975	1	-7
494.145	1	2
494.316	1	-4
494.486	1	2
494.656	1	1
494.827	1	4
494.997	1	-1
495.167	1	0
495.337	1	5
495.508	1	-3
495.678	1	-7
495.848	1	6
496.019	1	4
496.189	1	-3
496.359	1	-3
496.529	1	-4
496.700	1	2
496.870	1	7
497.040	1	-4
497.211	1	-7
497.381	1	-6
497.551	1	-1
497.721	1	-5
497.892	1	-9
498.062	1	3
498.232	1	-12
498.403	1	3
498.573	1	-5
498.743	1	5
498.913	1	5
499.084	1	0
499.254	1	2
499.424	1	2
499.594	1	8
499.765	1	-5
499.935	1	-2
500.105	1	-4
500.275	1	-8
500.446	1	-12
500.616	1	-2
500.786	1	-3
500.956	1	-2
501.127	1	3
501.297	1	-8
501.467	1	-8
501.638	1	-6
501.808	1	5
501.978	1	3
502.148	1	-1
502.319	1	-4
502.489	1	-2
502.659	1	-10
502.829	1	3
503.000	1	3
503.170	1	9
503.340	1	-2
503.510	1	7
503.681	1	-11
503.851	1	-3
504.021	1	-6
504.191	1	5
504.362	1	-1
504.532	1	4
504.702	1	-10
504.872	1	-8
505.042	1	-5
505.213	1	1
505.383	1	-3
505.553	1	-11
505.723	1	3
505.894	1	-11
506.064	1	6
506.234	1	-4
506.404	1	1
506.575	1	-5
506.745	1	1
506.915	1	4
507.085	1	-10
507.256	1	0
507.426	1	3
507.596	1	-2
507.766	1	5
507.936	1	-1
508.107	1	-4
508.277	1	-2
508.447	1	4
508.617	1	-1
508.788	1	13
508.958	1	-3
509.128	1	7
509.298	1	-5
509.468	1	0
509.639	1	-16
509.809	1	9
509.979	1	0
510.149	1	3
510.319	1	5
510.490	1	0
510.660	1	-8
510.830	1	5
511.000	1	1
511.171	1	-1
511.341	1	7
511.511	1	1
511.681	1	7
511.851	1	2
512.022	1	2
512.192	1	6
512.362	1	-12
512.532	1	-3
512.702	1	-3
512.873	1	8
513.043	1	10
513.213	1	-1
513.383	1	-11
513.553	1	-15
513.724	1	-1
513.894	1	-7
514.064	1	0
514.234	1	-7
514.404	1	-2
514.575	1	13
514.745	1	-3
514.915	1	-1
515.085	1	-5
515.255	1	-7
515.425	1	-3
515.596	1	5
515.766	1	-9
515.936	1	-2
516.106	1	-1
516.276	1	-16
516.447	1	10
516.617	1	4
516.787	1	-2
516.957	1	5
517.127	1	-1
517.297	1	-3
517.468	1	-3
517.638	1	9
517.808	1	-6
517.978	1	2
518.148	1	0
518.319	1	-3
518.489	1	-3
518.659	1	-12
518.829	1	-1
518.999	1	1
519.169	1	-1
519.340	1	5
519.510	1	-2
519.680	1	3
519.850	1	4
520.020	1	-2
520.190	1	-4
520.361	1	3
520.531	1	5
520.701	1	2
520.871	1	13
521.041	1	2
521.211	1	-9
521.382	1	-8
521.552	1	1
521.722	1	1
521.892	1	-5
522.062	1	5
522.232	1	3
522.402	1	0
522.573	1	1
522.743	1	1
522.913	1	6
523.083	1	-5
523.253	1	-4
523.423	1	4
523.593	1	-4
523.764	1	8
523.934	1	-3
524.104	1	-1
524.274	1	-6
524.444	1	-5
524.614	1	-5
524.784	1	-4
524.955	1	-7
525.125	1	-2
525.295	1	2
525.465	1	11
525.635	1	-4
525.805	1	0
525.975	1	-2
526.146	1	-1
526.316	1	6
526.486	1	-6
526.656	1	-6
526.826	1	-2
526.996	1	3
527.166	1	-8
527.337	1	-3
527.507	1	5
527.677	1	-1
527.847	1	2
528.017	1	-7
528.187	1	-3
528.357	1	-2
528.527	1	3
528.698	1	-3
528.868	1	-4
529.038	1	-1
529.208	1	0
529.378	1	10
529.548	1	-8
529.718	1	10
529.888	1	6
530.058	1	-1
530.229	1	2
530.399	1	13
530.569	1	-10
530.739	1	-4
530.909	1	-7
531.079	1	5
531.249	1	-10
531.419	1	1
531.589	1	5
531.760	1	-1
531.930	1	-4
532.100	1	-8
532.270	1	3
532.440	1	-2
532.610	1	-3
532.780	1	-10
532.950	1	9
533.120	1	3
533.290	1	0
533.461	1	-3
533.631	1	-2
533.801	1	7
533.971	1	-4
534.141	1	1
534.311	1	9
534.481	1	-7
534.651	1	-4
534.821	1	0
534.991	1	-2
535.162	1	7
535.332	1	1
535.502	1	-6
535.672	1	8
535.842	1	5
536.012	1	-3
536.182	1	-4
536.352	1	-6
536.522	1	-1
536.692	1	-2
536.862	1	4
537.032	1	11
537.203	1	-6
537.373	1	1
537.543	1	-10
537.713	1	-1
537.883	1	-6
538.053	1	-4
538.223	1	6
538.393	1	3
538.563	1	0
538.733	1	0
538.903	1	-13
539.073	1	-5
539.243	1	2
539.413	1	1
539.584	1	-4
539.754	1	-2
539.924	1	9
540.094	1	0
540.264	1	-7
540.434	1	-5
540.604	1	2
540.774	1	2
540.944	1	1
541.114	1	-3
541.284	1	9
541.454	1	3
541.624	1	10
541.794	1	0
541.964	1	10
542.134	1	0
542.305	1	9
542.475	1	2
542.645	1	-4
542.815	1	2
542.985	1	1
543.155	1	14
543.325	1	-5
543.495	1	3
543.665	1	3
543.835	1	3
544.005	1	6
544.175	1	-4
544.345	1	7
544.515	1	-1
544.685	1	-2
544.855	1	5
545.025	1	-8
545.195	1	-3
545.365	1	1
545.535	1	6
545.705	1	-12
545.875	1	-14
546.045	1	-5
546.216	1	10
546.386	1	7
546.556	1	-4
546.726	1	-11
546.896	1	0
547.066	1	2
547.236	1	9
547.406	1	3
547.576	1	11
547.746	1	-4
547.916	1	-3
548.086	1	2
548.256	1	-1
548.426	1	-6
548.596	1	-7
548.766	1	2
548.936	1	-1
549.106	1	4
549.276	1	-2
549.446	1	-5
549.616	1	-6
549.786	1	-10
549.956	1	5
550.126	1	11
550.296	1	1
550.466	1	-1
550.636	1	10
550.806	1	-6
550.976	1	7
551.146	1	-4
551.316	1	3
551.486	1	-11
551.656	1	4
551.826	1	3
551.996	1	17
552.166	1	-7
552.336	1	-2
552.506	1	9
552.676	1	12
552.846	1	1
553.016	1	11
553.186	1	1
553.356	1	0
553.526	1	2
553.696	1	12
553.866	1	6
554.036	1	-5
554.206	1	1
554.376	1	-5
554.546	1	4
554.716	1	1
554.886	1	8
555.056	1	1
555.226	1	-5
555.396	1	-3
555.566	1	7
555.736	1	-4
555.906	1	8
556.076	1	-2
556.246	1	9
556.416	1	-8
556.586	1	0
556.756	1	-4
556.926	1	-6
557.096	1	-8
557.266	1	-4
557.436	1	2
557.606	1	4
557.776	1	-5
557.946	1	11
558.116	1	0
558.286	1	5
558.456	1	-2
558.626	1	0
558.796	1	2
558.966	1	-2
559.136	1	8
559.306	1	-7
559.476	1	-9
559.646	1	-5
559.816	1	-4
559.986	1	-7
560.155	1	8
560.325	1	-5
560.495	1	-3
560.665	1	2
560.835	1	5
561.005	1	-2
561.175	1	-2
561.345	1	1
561.515	1	-3
561.685	1	-5
561.855	1	-8
562.025	1	-5
562.195	1	10
562.365	1	9
562.535	1	-2
562.705	1	2
562.875	1	7
563.045	1	-2
563.215	1	3
563.385	1	-6
563.555	1	-3
563.725	1	0
563.895	1	1
564.064	1	-7
564.234	1	-3
564.404	1	7
564.574	1	4
564.744	1	0
564.914	1	1
565.084	1	-6
565.254	1	7
565.424	1	0
565.594	1	3
565.764	1	1
565.934	1	14
566.104	1	-5
566.274	1	-2
566.444	1	-11
566.614	1	-3
566.783	1	-2
566.953	1	5
567.123	1	5
567.293	1	15
567.463	1	11
567.633	1	5
567.803	1	-10
567.973	1	-8
568.143	1	-4
568.313	1	8
568.483	1	0
568.653	1	-8
568.823	1	-1
568.993	1	3
569.162	1	4
569.332	1	5
569.502	1	-8
569.672	1	8
569.842	1	0
570.012	1	2
570.182	1	-5
570.352	1	-5
570.522	1	-7
570.692	1	7
570.862	1	-9
571.031	1	4
571.201	1	6
571.371	1	0
571.541	1	0
571.711	1	2
571.881	1	11
572.051	1	-1
572.221	1	-13
572.391	1	-14
572.561	1	-8
572.731	1	4
572.900	1	-2
573.070	1	2
573.240	1	5
573.410	1	10
573.580	1	4
573.750	1	1
573.920	1	8
574.090	1	2
574.260	1	6
574.430	1	1
574.599	1	-3
574.769	1	2
574.939	1	-4
575.109	1	6
575.279	1	1
575.449	1	-7
575.619	1	12
575.789	1	-9
575.959	1	-8
576.128	1	-5
576.298	1	9
576.468	1	-1
576.638	1	-5
576.808	1	2
576.978	1	2
577.148	1	1
577.318	1	1
577.487	1	-4
577.657	1	-6
577.827	1	-6
577.997	1	1
578.167	1	2
578.337	1	11
578.507	1	1
578.677	1	8
578.846	1	6
579.016	1	4
579.186	1	-6
579.356	1	-4
579.526	1	2
579.696	1	3
579.866	1	7
580.036	1	0
580.205	1	2
580.375	1	-2
580.545	1	0
580.715	1	-5
580.885	1	-1
581.055	1	3
581.225	1	0
581.394	1	0
581.564	1	4
581.734	1	-2
581.904	1	9
582.074	1	-3
582.244	1	-5
582.414	1	4
582.583	1	8
582.753	1	-9
582.923	1	-6
583.093	1	-6
583.263	1	2
583.433	1	-6
583.603	1	3
583.772	1	7
583.942	1	5
584.112	1	4
584.282	1	0
584.452	1	8
584.622	1	-6
584.791	1	-1
584.961	1	2
585.131	1	-5
585.301	1	0
585.471	1	13
585.641	1	-7
585.811	1	5
585.980	1	8
586.150	1	-2
586.320	1	0
586.490	1	-3
586.660	1	11
586.830	1	4
586.999	1	-9
587.169	1	1
587.339	1	1
587.509	1	-10
587.679	1	6
587.849	1	-2
588.018	1	7
588.188	1	4
588.358	1	-5
588.528	1	-1
588.698	1	2
588.867	1	3
589.037	1	1
589.207	1	5
589.377	1	6
589.547	1	1
589.717	1	-6
589.886	1	-7
590.056	1	0
590.226	1	1
590.396	1	12
590.566	1	-10
590.735	1	-13
590.905	1	-8
591.075	1	10
591.245	1	0
591.415	1	3
591.585	1	12
591.754	1	-4
591.924	1	-1
592.094	1	-9
592.264	1	-3
592.434	1	-1
592.603	1	4
592.773	1	-2
592.943	1	1
593.113	1	-3
593.283	1	-2
593.452	1	7
593.622	1	-1
593.792	1	11
593.962	1	-3
594.132	1	9
594.301	1	-1
594.471	1	7
594.641	1	-1
594.811	1	0
594.981	1	-7
595.150	1	-2
595.320	1	-7
595.490	1	4
595.660	1	-5
595.829	1	-4
595.999	1	-8
596.169	1	7
596.339	1	4
596.509	1	-5
596.678	1	-10
596.848	1	-4
597.018	1	-8
597.188	1	-1
597.358	1	2
597.527	1	-4
597.697	1	-5
597.867	1	-11
598.037	1	-4
598.206	1	-7
598.376	1	3
598.546	1	-2
598.716	1	8
598.885	1	-7
599.055	1	5
599.225	1	-10
599.395	1	-3
599.565	1	-8
599.734	1	-1
599.904	1	-5
600.074	1	4
600.244	1	-10
600.413	1	10
600.583	1	9
600.753	1	2
600.923	1	2
601.092	1	5
601.262	1	3
601.432	1	-6
601.602	1	9
601.771	1	7
601.941	1	-4
602.111	1	4
602.281	1	6
602.451	1	7
602.620	1	-5
602.790	1	-3
602.960	1	-12
603.130	1	3
603.299	1	-3
603.469	1	-12
603.639	1	-5
603.809	1	0
603.978	1	-8
604.148	1	5
604.318	1	-1
604.487	1	-3
604.657	1	-4
604.827	1	4
604.997	1	1
605.166	1	6
605.336	1	7
605.506	1	0
605.676	1	-9
605.845	1	-3
606.015	1	-3
606.185	1	1
606.355	1	0
606.524	1	-6
606.694	1	4
606.864	1	-1
607.034	1	-13
607.203	1	1
607.373	1	-3
607.543	1	-4
607.712	1	-4
607.882	1	1
608.052	1	-6
608.222	1	5
608.391	1	5
608.561	1	-2
608.731	1	-11
608.901	1	5
609.070	1	4
609.240	1	-8
609.410	1	-1
609.579	1	5
609.749	1	1
609.919	1	4
610.089	1	3
610.258	1	8
610.428	1	-3
610.598	1	-2
610.767	1	-4
610.937	1	-5
611.107	1	4
611.277	1	4
611.446	1	10
611.616	1	-8
611.786	1	1
611.955	1	-7
612.125	1	-5
612.295	1	0
612.465	1	1
612.634	1	-6
612.804	1	-8
612.974	1	-16
613.143	1	-3
613.313	1	4
613.483	1	2
613.652	1	3
613.822	1	-3
613.992	1	-6
614.162	1	10
614.331	1	1
614.501	1	-5
614.671	1	10
614.840	1	-2
615.010	1	-7
615.180	1	-3
615.349	1	3
615.519	1	-9
615.689	1	9
615.858	1	0
616.028	1	-3
616.198	1	-2
616.368	1	-6
616.537	1	-6
616.707	1	1
616.877	1	-3
617.046	1	-2
617.216	1	-7
617.386	1	2
617.555	1	1
617.725	1	3
617.895	1	7
618.064	1	0
618.234	1	-10
618.404	1	0
618.573	1	-6
618.743	1	-1
618.913	1	3
619.082	1	-1
619.252	1	-5
619.422	1	-8
619.591	1	-8
619.761	1	0
619.931	1	3
620.100	1	6
620.270	1	-8
620.440	1	3
620.609	1	3
620.779	1	-6
620.949	1	4
621.118	1	3
621.288	1	-1
621.458	1	-2
621.627	1	-4
621.797	1	0
621.967	1	-2
622.136	1	8
622.306	1	-6
622.476	1	3
622.645	1	14
622.815	1	5
622.985	1	-2
623.154	1	10
623.324	1	-5
623.494	1	12
623.663	1	-1
623.833	1	8
624.002	1	-5
624.172	1	4
624.342	1	7
624.511	1	-8
624.681	1	5
624.851	1	-6
625.020	1	2
625.190	1	-1
625.360	1	0
625.529	1	-1
625.699	1	-6
625.869	1	11
626.038	1	-11
626.208	1	-1
626.377	1	6
626.547	1	-2
626.717	1	2
626.886	1	4
627.056	1	-16
627.226	1	-1
627.395	1	5
627.565	1	4
627.735	1	-4
627.904	1	-1
628.074	1	-4
628.243	1	2
628.413	1	1
628.583	1	1
628.752	1	0
628.922	1	4
629.091	1	-9
629.261	1	2
629.431	1	-6
629.600	1	13
629.770	1	-8
629.940	1	-4
630.109	1	-12
630.279	1	2
630.448	1	1
630.618	1	1
630.788	1	-3
630.957	1	2
631.127	1	2
631.297	1	0
631.466	1	0
631.636	1	-6
631.805	1	0
631.975	1	10
632.145	1	-5
632.314	1	3
632.484	1	-2
632.653	1	-2
632.823	1	-6
632.993	1	5
633.162	1	-1
633.332	1	3
633.501	1	-3
633.671	1	0
633.841	1	-11
634.010	1	-4
634.180	1	-3
634.349	1	-1
634.519	1	-7
634.689	1	2
634.858	1	-8
635.028	1	3
635.197	1	8
635.367	1	1
635.537	1	-15
635.706	1	6
635.876	1	2
636.045	1	8
636.215	1	-6
636.384	1	-1
636.554	1	-1
636.724	1	-6
636.893	1	4
637.063	1	-1
637.232	1	0
637.402	1	-2
637.572	1	3
637.741	1	-4
637.911	1	3
638.080	1	-9
638.250	1	1
638.419	1	-6
638.589	1	0
638.759	1	-4
638.928	1	-4
639.098	1	2
639.267	1	-1
639.437	1	4
639.606	1	-1
639.776	1	-8
639.946	1	2
640.115	1	-5
640.285	1	4
640.454	1	-4
640.624	1	-4
640.793	1	6
640.963	1	-4
641.132	1	2
641.302	1	-7
641.472	1	7
641.641	1	-11
641.811	1	-3
641.980	1	4
642.150	1	-15
642.319	1	0
642.489	1	10
642.659	1	7
642.828	1	-3
642.998	1	-3
643.167	1	-2
643.337	1	3
643.506	1	-4
643.676	1	6
643.845	1	-4
644.015	1	7
644.184	1	1
644.354	1	-3
644.524	1	0
644.693	1	12
644.863	1	-8
645.032	1	0
645.202	1	0
645.371	1	-3
645.541	1	0
645.710	1	3
645.880	1	-3
646.049	1	-11
646.219	1	0
646.388	1	-1
646.558	1	-1
646.728	1	-9
646.897	1	1
647.067	1	1
647.236	1	2
647.406	1	-2
647.575	1	-1
647.745	1	-4
647.914	1	-7
648.084	1	-5
648.253	1	10
648.423	1	-11
648.592	1	-6
648.762	1	3
648.931	1	12
649.101	1	-2
649.270	1	7
649.440	1	-2
649.610	1	-4
649.779	1	2
649.949	1	-2
650.118	1	13
650.288	1	11
650.457	1	9
650.627	1	-10
650.796	1	8
650.966	1	1
651.135	1	-7
651.305	1	0
651.474	1	-7
651.644	1	14
651.813	1	-8
651.983	1	1
652.152	1	-4
652.322	1	4
652.491	1	0
652.661	1	-5
652.830	1	3
653.000	1	-4
653.169	1	-1
653.339	1	3
653.508	1	-8
653.678	1	-2
653.847	1	3
654.017	1	-2
654.186	1	-4
654.356	1	1
654.525	1	-1
654.695	1	5
654.864	1	-6
655.034	1	-2
655.203	1	-7
655.373	1	6
655.542	1	-7
655.712	1	5
655.881	1	1
656.051	1	-2
656.220	1	-9
656.390	1	0
656.559	1	2
656.729	1	8
656.898	1	-3
657.068	1	4
657.237	1	-5
657.406	1	2
657.576	1	-6
657.745	1	-1
657.915	1	-9
658.084	1	10
658.254	1	-12
658.423	1	8
658.593	1	7
658.762	1	3
658.932	1	1
659.101	1	14
659.271	1	2
659.440	1	6
659.610	1	-2
659.779	1	-2
659.949	1	-12
660.118	1	-1
660.288	1	11
660.457	1	-9
660.626	1	4
660.796	1	-8
660.965	1	2
661.135	1	-4
661.304	1	1
661.474	1	-10
661.643	1	4
661.813	1	7
661.982	1	10
662.152	1	-6
662.321	1	10
662.491	1	3
662.660	1	1
662.829	1	-12
662.999	1	-2
663.168	1	-1
663.338	1	4
663.507	1	-3
663.677	1	-4
663.846	1	-7
664.016	1	-5
664.185	1	0
664.354	1	10
664.524	1	3
664.693	1	9
664.863	1	-3
665.032	1	-2
665.202	1	-1
665.371	1	-1
665.541	1	-14
665.710	1	0
665.879	1	-11
666.049	1	-2
666.218	1	-8
666.388	1	11
666.557	1	-4
666.727	1	-7
666.896	1	-6
667.065	1	1
667.235	1	1
667.404	1	-4
667.574	1	-1
667.743	1	10
667.913	1	0
668.082	1	6
668.251	1	-9
668.421	1	-5
668.590	1	-1
668.760	1	-3
668.929	1	-13
669.099	1	3
669.268	1	-8
669.437	1	0
669.607	1	0
669.776	1	-2
669.946	1	-3
670.115	1	5
670.285	1	12
670.454	1	4
670.623	1	-7
670.793	1	5
670.962	1	-5
671.132	1	5
671.301	1	-2
671.470	1	4
671.640	1	-2
671.809	1	-1
671.979	1	-6
672.148	1	4
672.317	1	2
672.487	1	-2
672.656	1	0
672.826	1	-2
672.995	1	3
673.164	1	3
673.334	1	-6
673.503	1	5
673.673	1	4
673.842	1	0
674.011	1	1
674.181	1	4
674.350	1	-2
674.520	1	-6
674.689	1	-8
674.858	1	4
675.028	1	1
675.197	1	-7
675.367	1	8
675.536	1	6
675.705	1	2
675.875	1	-5
676.044	1	-4
676.214	1	-1
676.383	1	6
676.552	1	-3
676.722	1	8
676.891	1	5
677.060	1	-10
677.230	1	-3
677.399	1	-11
677.569	1	-10
677.738	1	10
677.907	1	-1
678.077	1	8
678.246	1	1
678.416	1	-2
678.585	1	1
678.754	1	-13
678.924	1	9
679.093	1	6
679.262	1	-12
679.432	1	-3
679.601	1	-1
679.771	1	-4
679.940	1	-5
680.109	1	8
680.279	1	-10
680.448	1	2
680.617	1	-4
680.787	1	0
680.956	1	2
681.125	1	4
681.295	1	-5
681.464	1	0
681.634	1	2
681.803	1	-3
681.972	1	-7
682.142	1	0
682.311	1	6
682.480	1	9
682.650	1	2
682.819	1	2
682.988	1	1
683.158	1	1
683.327	1	-6
683.496	1	0
683.666	1	-7
683.835	1	5
684.004	1	1
684.174	1	0
684.343	1	0
684.512	1	3
684.682	1	-10
684.851	1	5
685.021	1	-8
685.190	1	3
685.359	1	0
685.529	1	-3
685.698	1	-1
685.867	1	-3
686.037	1	-4
686.206	1	-2
686.375	1	11
686.545	1	-6
686.714	1	-5
686.883	1	-3
687.053	1	2
687.222	1	3
687.391	1	-8
687.561	1	-2
687.730	1	-1
687.899	1	-3
688.069	1	1
688.238	1	-1
688.407	1	-1
688.577	1	-8
688.746	1	-1
