340.368	1	4
340.539	1	-14
340.710	1	-10
340.881	1	-3
341.052	1	6
341.223	1	-10
341.394	1	-7
341.565	1	-6
341.737	1	4
341.908	1	9
342.079	1	-6
342.250	1	-5
342.421	1	5
342.592	1	1
342.763	1	9
342.934	1	0
343.105	1	0
343.276	1	8
343.447	1	-5
343.618	1	-4
343.789	1	-3
343.960	1	-4
344.131	1	-3
344.302	1	-2
344.473	1	7
344.644	1	5
344.815	1	-5
344.986	1	5
345.157	1	-10
345.328	1	3
345.499	1	3
345.670	1	-6
345.841	1	14
346.012	1	2
346.183	1	-4
346.354	1	-3
346.526	1	-5
346.697	1	-3
346.868	1	4
347.039	1	7
347.210	1	2
347.381	1	3
347.552	1	-7
347.723	1	0
347.894	1	-8
348.065	1	-1
348.236	1	8
348.407	1	-1
348.578	1	2
348.749	1	-10
348.920	1	-1
349.091	1	-17
349.262	1	-1
349.433	1	-3
349.604	1	13
349.775	1	5
349.946	1	3
350.117	1	10
350.288	1	13
350.459	1	0
350.630	1	8
350.801	1	-3
350.972	1	2
351.143	1	-3
351.314	1	6
351.485	1	7
351.656	1	12
351.827	1	5
351.998	1	7
352.169	1	-1
352.340	1	8
352.511	1	-8
352.682	1	8
352.853	1	11
353.024	1	8
353.195	1	5
353.366	1	12
353.537	1	4
353.708	1	5
353.879	1	8
354.050	1	-7
354.221	1	-5
354.392	1	1
354.563	1	3
354.734	1	-5
354.905	1	14
355.076	1	6
355.247	1	14
355.418	1	-4
355.589	1	-4
355.760	1	3
355.931	1	0
356.102	1	7
356.273	1	-5
356.444	1	8
356.615	1	11
356.785	1	15
356.956	1	2
357.127	1	2
357.298	1	1
357.469	1	6
357.640	1	-2
357.811	1	2
357.982	1	-2
358.153	1	6
358.324	1	11
358.495	1	10
358.666	1	4
358.837	1	-9
359.008	1	-7
359.179	1	3
359.350	1	0
359.521	1	12
359.692	1	6
359.863	1	8
360.034	1	9
360.205	1	-1
360.376	1	10
360.547	1	10
360.718	1	11
360.889	1	16
361.060	1	9
361.231	1	0
361.401	1	6
361.572	1	8
361.743	1	2
361.914	1	11
362.085	1	15
362.256	1	5
362.427	1	18
362.598	1	1
362.769	1	3
362.940	1	6
363.111	1	12
363.282	1	14
363.453	1	2
363.624	1	18
363.795	1	15
363.966	1	22
364.137	1	24
364.308	1	13
364.478	1	33
364.649	1	18
364.820	1	13
364.991	1	23
365.162	1	30
365.333	1	21
365.504	1	23
365.675	1	15
365.846	1	33
366.017	1	15
366.188	1	21
366.359	1	29
366.530	1	28
366.701	1	32
366.871	1	28
367.042	1	32
367.213	1	39
367.384	1	39
367.555	1	34
367.726	1	34
367.897	1	29
368.068	1	34
368.239	1	39
368.410	1	45
368.581	1	20
368.752	1	31
368.923	1	30
369.093	1	35
369.264	1	35
369.435	1	41
369.606	1	35
369.777	1	31
369.948	1	43
370.119	1	38
370.290	1	30
370.461	1	46
370.632	1	38
370.803	1	31
370.973	1	37
371.144	1	28
371.315	1	29
371.486	1	40
371.657	1	42
371.828	1	39
371.999	1	34
372.170	1	41
372.341	1	33
372.512	1	19
372.682	1	28
372.853	1	42
373.024	1	38
373.195	1	27
373.366	1	25
373.537	1	25
373.708	1	24
373.879	1	19
374.050	1	34
374.220	1	43
374.391	1	30
374.562	1	33
374.733	1	33
374.904	1	23
375.075	1	16
375.246	1	21
375.417	1	25
375.588	1	21
375.758	1	13
375.929	1	28
376.100	1	22
376.271	1	26
376.442	1	8
376.613	1	4
376.784	1	15
376.955	1	15
377.125	1	28
377.296	1	14
377.467	1	18
377.638	1	18
377.809	1	26
377.980	1	18
378.151	1	17
378.321	1	16
378.492	1	16
378.663	1	14
378.834	1	14
379.005	1	15
379.176	1	12
379.347	1	7
379.518	1	5
379.688	1	10
379.859	1	4
380.030	1	12
380.201	1	15
380.372	1	16
380.543	1	24
380.714	1	13
380.884	1	15
381.055	1	15
381.226	1	4
381.397	1	5
381.568	1	14
381.739	1	13
381.910	1	-5
382.080	1	22
382.251	1	4
382.422	1	20
382.593	1	4
382.764	1	14
382.935	1	-6
383.105	1	8
383.276	1	15
383.447	1	7
383.618	1	14
383.789	1	5
383.960	1	9
384.130	1	13
384.301	1	0
384.472	1	5
384.643	1	13
384.814	1	12
384.985	1	5
385.156	1	0
385.326	1	17
385.497	1	11
385.668	1	7
385.839	1	8
386.010	1	5
386.180	1	9
386.351	1	14
386.522	1	17
386.693	1	-2
386.864	1	13
387.035	1	0
387.205	1	0
387.376	1	11
387.547	1	-2
387.718	1	5
387.889	1	0
388.060	1	13
388.230	1	12
388.401	1	5
388.572	1	0
388.743	1	7
388.914	1	5
389.084	1	9
389.255	1	-2
389.426	1	1
389.597	1	15
389.768	1	0
389.939	1	5
390.109	1	2
390.280	1	6
390.451	1	1
390.622	1	-1
390.793	1	8
390.963	1	6
391.134	1	5
391.305	1	9
391.476	1	-5
391.647	1	6
391.817	1	0
391.988	1	6
392.159	1	2
392.330	1	12
392.501	1	-3
392.671	1	7
392.842	1	4
393.013	1	-2
393.184	1	9
393.355	1	13
393.525	1	1
393.696	1	12
393.867	1	2
394.038	1	2
394.208	1	-4
394.379	1	-2
394.550	1	12
394.721	1	4
394.892	1	2
395.062	1	3
395.233	1	3
395.404	1	-3
395.575	1	2
395.746	1	8
395.916	1	7
396.087	1	-9
396.258	1	5
396.429	1	4
396.599	1	2
396.770	1	-3
396.941	1	-4
397.112	1	2
397.283	1	6
397.453	1	13
397.624	1	6
397.795	1	5
397.966	1	0
398.136	1	-5
398.307	1	9
398.478	1	-6
398.649	1	-11
398.819	1	1
398.990	1	6
399.161	1	10
399.332	1	2
399.503	1	0
399.673	1	5
399.844	1	3
400.015	1	-5
400.186	1	2
400.356	1	-14
400.527	1	0
400.698	1	-5
400.869	1	-1
401.039	1	5
401.210	1	9
401.381	1	-2
401.552	1	-3
401.722	1	14
401.893	1	-1
402.064	1	-1
402.235	1	4
402.405	1	-1
402.576	1	1
402.747	1	-12
402.918	1	11
403.088	1	11
403.259	1	7
403.430	1	-14
403.601	1	-11
403.771	1	0
403.942	1	17
404.113	1	-2
404.284	1	5
404.454	1	10
404.625	1	-1
404.796	1	13
404.967	1	10
405.137	1	8
405.308	1	2
405.479	1	1
405.649	1	-2
405.820	1	-6
405.991	1	0
406.162	1	4
406.332	1	2
406.503	1	-3
406.674	1	11
406.845	1	3
407.015	1	6
407.186	1	4
407.357	1	-2
407.527	1	-3
407.698	1	11
407.869	1	7
408.040	1	-5
408.210	1	-2
408.381	1	2
408.552	1	-5
408.722	1	-11
408.893	1	1
409.064	1	-3
409.235	1	-6
409.405	1	9
409.576	1	-2
409.747	1	-4
409.917	1	0
410.088	1	-1
410.259	1	3
410.430	1	11
410.600	1	-5
410.771	1	4
410.942	1	11
411.112	1	-1
411.283	1	9
411.454	1	-1
411.625	1	-2
411.795	1	-8
411.966	1	5
412.137	1	5
412.307	1	11
412.478	1	12
412.649	1	8
412.819	1	-5
412.990	1	6
413.161	1	-2
413.332	1	2
413.502	1	-7
413.673	1	4
413.844	1	2
414.014	1	-2
414.185	1	3
414.356	1	3
414.526	1	-1
414.697	1	5
414.868	1	0
415.038	1	4
415.209	1	0
415.380	1	-2
415.550	1	-3
415.721	1	3
415.892	1	-1
416.063	1	2
416.233	1	7
416.404	1	4
416.575	1	10
416.745	1	-8
416.916	1	-2
417.087	1	7
417.257	1	6
417.428	1	4
417.599	1	-5
417.769	1	10
417.940	1	4
418.111	1	7
418.281	1	3
418.452	1	-4
418.623	1	-1
418.793	1	1
418.964	1	-8
419.135	1	-15
419.305	1	9
419.476	1	5
419.647	1	1
419.817	1	2
419.988	1	11
420.159	1	2
420.329	1	-8
420.500	1	-2
420.671	1	0
420.841	1	11
421.012	1	2
421.183	1	2
421.353	1	7
421.524	1	0
421.695	1	-1
421.865	1	3
422.036	1	2
422.206	1	-2
422.377	1	3
422.548	1	-4
422.718	1	15
422.889	1	-8
423.060	1	0
423.230	1	-2
423.401	1	3
423.572	1	3
423.742	1	-4
423.913	1	1
424.084	1	2
424.254	1	-10
424.425	1	-3
424.595	1	0
424.766	1	0
424.937	1	0
425.107	1	-10
425.278	1	16
425.449	1	12
425.619	1	3
425.790	1	-7
425.961	1	-3
426.131	1	1
426.302	1	5
426.472	1	2
426.643	1	15
426.814	1	-8
426.984	1	-1
427.155	1	-3
427.326	1	2
427.496	1	2
427.667	1	-3
427.837	1	0
428.008	1	9
428.179	1	0
428.349	1	-8
428.520	1	2
428.691	1	8
428.861	1	1
429.032	1	2
429.202	1	2
429.373	1	4
429.544	1	-4
429.714	1	-2
429.885	1	5
430.055	1	4
430.226	1	-10
430.397	1	0
430.567	1	2
430.738	1	0
430.909	1	2
431.079	1	-8
431.250	1	1
431.420	1	-11
431.591	1	2
431.762	1	7
431.932	1	-5
432.103	1	6
432.273	1	-8
432.444	1	10
432.615	1	-11
432.785	1	5
432.956	1	-8
433.126	1	-8
433.297	1	-1
433.468	1	-10
433.638	1	-13
433.809	1	5
433.979	1	7
434.150	1	1
434.320	1	7
434.491	1	-5
434.662	1	-2
434.832	1	9
435.003	1	8
435.173	1	-8
435.344	1	2
435.515	1	7
435.685	1	-8
435.856	1	0
436.026	1	15
436.197	1	1
436.368	1	1
436.538	1	-9
436.709	1	-4
436.879	1	2
437.050	1	4
437.220	1	8
437.391	1	20
437.562	1	6
437.732	1	-10
437.903	1	-1
438.073	1	4
438.244	1	-9
438.414	1	-5
438.585	1	-6
438.756	1	-5
438.926	1	3
439.097	1	-2
439.267	1	5
439.438	1	3
439.608	1	-7
439.779	1	-12
439.949	1	4
440.120	1	4
440.291	1	8
440.461	1	11
440.632	1	-1
440.802	1	-4
440.973	1	-7
441.143	1	4
441.314	1	-5
441.485	1	-1
441.655	1	0
441.826	1	-2
441.996	1	3
442.167	1	1
442.337	1	-5
442.508	1	-4
442.678	1	2
442.849	1	7
443.019	1	1
443.190	1	-5
443.361	1	8
443.531	1	10
443.702	1	-3
443.872	1	8
444.043	1	3
444.213	1	4
444.384	1	-7
444.554	1	12
444.725	1	2
444.895	1	-10
445.066	1	-4
445.237	1	-6
445.407	1	-5
445.578	1	-7
445.748	1	-2
445.919	1	-7
446.089	1	4
446.260	1	-2
446.430	1	1
446.601	1	-1
446.771	1	5
446.942	1	-1
447.112	1	1
447.283	1	5
447.453	1	-10
447.624	1	1
447.794	1	1
447.965	1	-7
448.135	1	-2
448.306	1	-4
448.477	1	2
448.647	1	-5
448.818	1	1
448.988	1	10
449.159	1	-2
449.329	1	11
449.500	1	-1
449.670	1	4
449.841	1	1
450.011	1	7
450.182	1	-6
450.352	1	-2
450.523	1	-2
450.693	1	-14
450.864	1	-1
451.034	1	-11
451.205	1	13
451.375	1	1
451.546	1	2
451.716	1	2
451.887	1	-6
452.057	1	4
452.228	1	-1
452.398	1	-5
452.569	1	-4
452.739	1	2
452.910	1	-3
453.080	1	-2
453.251	1	7
453.421	1	3
453.592	1	-4
453.762	1	2
453.933	1	-5
454.103	1	3
454.274	1	-1
454.444	1	0
454.615	1	5
454.785	1	0
454.956	1	-1
455.126	1	-6
455.297	1	4
455.467	1	6
455.638	1	7
455.808	1	-4
455.979	1	-5
456.149	1	3
456.320	1	0
456.490	1	1
456.661	1	10
456.831	1	5
457.001	1	-3
457.172	1	-6
457.342	1	5
457.513	1	4
457.683	1	-10
457.854	1	2
458.024	1	-5
458.195	1	1
458.365	1	-6
458.536	1	6
458.706	1	4
458.877	1	-1
459.047	1	-3
459.218	1	7
459.388	1	7
459.559	1	7
459.729	1	7
459.899	1	3
460.070	1	0
460.240	1	-2
460.411	1	-4
460.581	1	12
460.752	1	6
460.922	1	2
461.093	1	6
461.263	1	-15
461.434	1	2
461.604	1	-11
461.775	1	0
461.945	1	-2
462.115	1	5
462.286	1	0
462.456	1	-3
462.627	1	9
462.797	1	-1
462.968	1	4
463.138	1	-6
463.309	1	-5
463.479	1	-1
463.649	1	-4
463.820	1	-3
463.990	1	-1
464.161	1	-3
464.331	1	-5
464.502	1	9
464.672	1	8
464.843	1	-1
465.013	1	-5
465.183	1	-1
465.354	1	5
465.524	1	-6
465.695	1	-5
465.865	1	-7
466.036	1	-7
466.206	1	13
466.376	1	-3
466.547	1	-9
466.717	1	-5
466.888	1	7
467.058	1	-3
467.229	1	1
467.399	1	5
467.569	1	9
467.740	1	-2
467.910	1	0
468.081	1	0
468.251	1	4
468.422	1	-4
468.592	1	-3
468.762	1	-4
468.933	1	3
469.103	1	-3
469.274	1	4
469.444	1	-11
469.614	1	3
469.785	1	-6
469.955	1	-4
470.126	1	1
470.296	1	-3
470.467	1	-6
470.637	1	-2
470.807	1	-2
470.978	1	-3
471.148	1	8
471.319	1	4
471.489	1	2
471.659	1	-7
471.830	1	9
472.000	1	4
472.171	1	8
472.341	1	-2
472.511	1	-15
472.682	1	5
472.852	1	4
473.023	1	5
473.193	1	4
473.363	1	1
473.534	1	15
473.704	1	-1
473.875	1	11
474.045	1	-5
474.215	1	9
474.386	1	16
474.556	1	4
474.727	1	2
474.897	1	-4
475.067	1	4
475.238	1	0
475.408	1	6
475.578	1	-5
475.749	1	2
475.919	1	0
476.090	1	0
476.260	1	3
476.430	1	0
476.601	1	2
476.771	1	-6
476.942	1	2
477.112	1	-9
477.282	1	-2
477.453	1	-7
477.623	1	-1
477.793	1	2
477.964	1	3
478.134	1	1
478.305	1	0
478.475	1	-6
478.645	1	11
478.816	1	2
478.986	1	-2
479.156	1	7
479.327	1	-11
479.497	1	0
479.667	1	0
479.838	1	-3
480.008	1	-5
480.179	1	8
480.349	1	-16
480.519	1	8
480.690	1	-2
480.860	1	-7
481.030	1	-12
481.201	1	1
481.371	1	1
481.541	1	0
481.712	1	3
481.882	1	13
482.053	1	3
482.223	1	5
482.393	1	-6
482.564	1	8
482.734	1	-16
482.904	1	0
483.075	1	-8
483.245	1	7
483.415	1	4
483.586	1	-1
483.756	1	8
483.926	1	8
484.097	1	0
484.267	1	-9
484.437	1	-4
484.608	1	-2
484.778	1	14
484.948	1	-6
485.119	1	-2
485.289	1	0
485.459	1	10
485.630	1	-3
485.800	1	-1
485.970	1	-4
486.141	1	-8
486.311	1	4
486.481	1	1
486.652	1	5
486.822	1	3
486.992	1	8
487.163	1	1
487.333	1	7
487.503	1	2
487.674	1	5
487.844	1	-1
488.014	1	2
488.185	1	6
488.355	1	4
488.525	1	4
488.696	1	4
488.866	1	7
489.036	1	10
489.207	1	-2
489.377	1	-6
489.547	1	4
489.718	1	-9
489.888	1	-4
490.058	1	0
490.228	1	4
490.399	1	-6
490.569	1	5
490.739	1	-1
490.910	1	0
491.080	1	14
491.250	1	1
491.421	1	0
491.591	1	-10
491.761	1	-7
491.932	1	1
492.102	1	2
492.272	1	4
492.442	1	10
492.613	1	-7
492.783	1	3
492.953	1	-5
493.124	1	9
493.294	1	3
493.464	1	14
493.635	1	-2
493.805	1	3
493.975	1	5
494.145	1	0
494.316	1	-6
494.486	1	7
494.656	1	4
494.827	1	8
494.997	1	-8
495.167	1	-2
495.337	1	11
495.508	1	5
495.678	1	7
495.848	1	5
496.019	1	1
496.189	1	10
496.359	1	0
496.529	1	-4
496.700	1	5
496.870	1	9
497.040	1	4
497.211	1	-1
497.381	1	7
497.551	1	14
497.721	1	-5
497.892	1	4
498.062	1	-1
498.232	1	-3
498.403	1	-3
498.573	1	-5
498.743	1	-4
498.913	1	-2
499.084	1	-2
499.254	1	6
499.424	1	10
499.594	1	2
499.765	1	-6
499.935	1	8
500.105	1	3
500.275	1	-1
500.446	1	-6
500.616	1	-1
500.786	1	-10
500.956	1	7
501.127	1	2
501.297	1	-9
501.467	1	-7
501.638	1	-3
501.808	1	8
501.978	1	11
502.148	1	10
502.319	1	-2
502.489	1	1
502.659	1	-2
502.829	1	7
503.000	1	1
503.170	1	7
503.340	1	5
503.510	1	5
503.681	1	0
503.851	1	-1
504.021	1	6
504.191	1	4
504.362	1	1
504.532	1	4
504.702	1	-2
504.872	1	-3
505.042	1	-2
505.213	1	9
505.383	1	-5
505.553	1	-11
505.723	1	3
505.894	1	0
506.064	1	10
506.234	1	1
506.404	1	4
506.575	1	11
506.745	1	-1
506.915	1	3
507.085	1	-6
507.256	1	6
507.426	1	1
507.596	1	7
507.766	1	10
507.936	1	9
508.107	1	-6
508.277	1	-2
508.447	1	5
508.617	1	1
508.788	1	16
508.958	1	2
509.128	1	1
509.298	1	0
509.468	1	4
509.639	1	0
509.809	1	7
509.979	1	-4
510.149	1	10
510.319	1	13
510.490	1	5
510.660	1	-7
510.830	1	0
511.000	1	-3
511.171	1	6
511.341	1	5
511.511	1	1
511.681	1	3
511.851	1	6
512.022	1	-8
512.192	1	3
512.362	1	-5
512.532	1	-5
512.702	1	-2
512.873	1	10
513.043	1	3
513.213	1	6
513.383	1	1
513.553	1	-1
513.724	1	-1
513.894	1	-6
514.064	1	9
514.234	1	-1
514.404	1	0
514.575	1	14
514.745	1	-1
514.915	1	6
515.085	1	-1
515.255	1	-5
515.425	1	-1
515.596	1	2
515.766	1	1
515.936	1	2
516.106	1	-2
516.276	1	-7
516.447	1	10
516.617	1	16
516.787	1	9
516.957	1	8
517.127	1	-3
517.297	1	-8
517.468	1	5
517.638	1	12
517.808	1	2
517.978	1	9
518.148	1	5
518.319	1	4
518.489	1	0
518.659	1	1
518.829	1	6
518.999	1	0
519.169	1	1
519.340	1	6
519.510	1	7
519.680	1	2
519.850	1	4
520.020	1	13
520.190	1	5
520.361	1	-3
520.531	1	7
520.701	1	8
520.871	1	1
521.041	1	4
521.211	1	-6
521.382	1	-14
521.552	1	6
521.722	1	-1
521.892	1	3
522.062	1	8
522.232	1	4
522.402	1	0
522.573	1	-3
522.743	1	2
522.913	1	2
523.083	1	-4
523.253	1	-4
523.423	1	10
523.593	1	3
523.764	1	6
523.934	1	1
524.104	1	6
524.274	1	-6
524.444	1	-2
524.614	1	3
524.784	1	2
524.955	1	-5
525.125	1	-4
525.295	1	7
525.465	1	5
525.635	1	-4
525.805	1	-8
525.975	1	0
526.146	1	2
526.316	1	6
526.486	1	12
526.656	1	-5
526.826	1	0
526.996	1	-2
527.166	1	-7
527.337	1	2
527.507	1	3
527.677	1	9
527.847	1	-3
528.017	1	-15
528.187	1	-1
528.357	1	2
528.527	1	16
528.698	1	7
528.868	1	3
529.038	1	15
529.208	1	-4
529.378	1	5
529.548	1	-2
529.718	1	12
529.888	1	10
530.058	1	1
530.229	1	5
530.399	1	15
530.569	1	-9
530.739	1	10
530.909	1	4
531.079	1	7
531.249	1	-1
531.419	1	14
531.589	1	14
531.760	1	3
531.930	1	4
532.100	1	-1
532.270	1	-9
532.440	1	-1
532.610	1	-6
532.780	1	5
532.950	1	8
533.120	1	2
533.290	1	15
533.461	1	6
533.631	1	10
533.801	1	12
533.971	1	-2
534.141	1	-10
534.311	1	16
534.481	1	-9
534.651	1	-1
534.821	1	18
534.991	1	1
535.162	1	0
535.332	1	4
535.502	1	0
535.672	1	8
535.842	1	7
536.012	1	1
536.182	1	-1
536.352	1	-5
536.522	1	6
536.692	1	2
536.862	1	9
537.032	1	8
537.203	1	-4
537.373	1	2
537.543	1	-3
537.713	1	1
537.883	1	2
538.053	1	1
538.223	1	8
538.393	1	17
538.563	1	5
538.733	1	6
538.903	1	-2
539.073	1	7
539.243	1	3
539.413	1	4
539.584	1	-2
539.754	1	8
539.924	1	10
540.094	1	7
540.264	1	-4
540.434	1	-3
540.604	1	11
540.774	1	10
540.944	1	-2
541.114	1	-1
541.284	1	3
541.454	1	-3
541.624	1	14
541.794	1	1
541.964	1	5
542.134	1	7
542.305	1	9
542.475	1	8
542.645	1	9
542.815	1	-3
542.985	1	12
543.155	1	7
543.325	1	5
543.495	1	-6
543.665	1	16
543.835	1	12
544.005	1	6
544.175	1	-7
544.345	1	10
544.515	1	0
544.685	1	-3
544.855	1	-6
545.025	1	13
545.195	1	7
545.365	1	0
545.535	1	7
545.705	1	1
545.875	1	-11
546.045	1	-1
546.216	1	4
546.386	1	9
546.556	1	-3
546.726	1	-11
546.896	1	-1
547.066	1	1
547.236	1	2
547.406	1	11
547.576	1	10
547.746	1	-16
547.916	1	-11
548.086	1	6
548.256	1	2
548.426	1	-10
548.596	1	-4
548.766	1	4
548.936	1	10
549.106	1	4
549.276	1	-2
549.446	1	3
549.616	1	-4
549.786	1	-2
549.956	1	7
550.126	1	4
550.296	1	-6
550.466	1	2
550.636	1	9
550.806	1	-4
550.976	1	11
551.146	1	10
551.316	1	4
551.486	1	1
551.656	1	5
551.826	1	10
551.996	1	11
552.166	1	-4
552.336	1	3
552.506	1	14
552.676	1	9
552.846	1	2
553.016	1	14
553.186	1	11
553.356	1	7
553.526	1	0
553.696	1	8
553.866	1	-7
554.036	1	4
554.206	1	9
554.376	1	8
554.546	1	4
554.716	1	11
554.886	1	1
555.056	1	3
555.226	1	-9
555.396	1	-6
555.566	1	5
555.736	1	4
555.906	1	2
556.076	1	4
556.246	1	2
556.416	1	-9
556.586	1	-2
556.756	1	8
556.926	1	6
557.096	1	0
557.266	1	-2
557.436	1	3
557.606	1	6
557.776	1	10
557.946	1	11
558.116	1	0
558.286	1	4
558.456	1	2
558.626	1	12
558.796	1	-7
558.966	1	2
559.136	1	7
559.306	1	0
559.476	1	-5
559.646	1	-4
559.816	1	-6
559.986	1	1
560.155	1	10
560.325	1	4
560.495	1	1
560.665	1	1
560.835	1	1
561.005	1	-3
561.175	1	8
561.345	1	8
561.515	1	10
561.685	1	5
561.855	1	-5
562.025	1	5
562.195	1	1
562.365	1	1
562.535	1	0
562.705	1	7
562.875	1	5
563.045	1	8
563.215	1	5
563.385	1	-10
563.555	1	3
563.725	1	5
563.895	1	2
564.064	1	9
564.234	1	5
564.404	1	14
564.574	1	6
564.744	1	6
564.914	1	5
565.084	1	-2
565.254	1	10
565.424	1	4
565.594	1	12
565.764	1	4
565.934	1	5
566.104	1	10
566.274	1	1
566.444	1	2
566.614	1	-5
566.783	1	-1
566.953	1	6
567.123	1	5
567.293	1	8
567.463	1	5
567.633	1	-5
567.803	1	-6
567.973	1	1
568.143	1	1
568.313	1	3
568.483	1	3
568.653	1	-6
568.823	1	4
568.993	1	5
569.162	1	4
569.332	1	-2
569.502	1	-4
569.672	1	10
569.842	1	11
570.012	1	8
570.182	1	5
570.352	1	8
570.522	1	-5
570.692	1	9
570.862	1	5
571.031	1	3
571.201	1	5
571.371	1	-4
571.541	1	0
571.711	1	15
571.881	1	24
572.051	1	1
572.221	1	-7
572.391	1	-8
572.561	1	0
572.731	1	7
572.900	1	-4
573.070	1	0
573.240	1	5
573.410	1	11
573.580	1	14
573.750	1	-3
573.920	1	-1
574.090	1	1
574.260	1	7
574.430	1	3
574.599	1	-1
574.769	1	13
574.939	1	9
575.109	1	9
575.279	1	13
575.449	1	9
575.619	1	9
575.789	1	-16
575.959	1	3
576.128	1	-12
576.298	1	6
576.468	1	-2
576.638	1	-3
576.808	1	4
576.978	1	8
577.148	1	10
577.318	1	4
577.487	1	-4
577.657	1	-6
577.827	1	3
577.997	1	-1
578.167	1	2
578.337	1	11
578.507	1	10
578.677	1	3
578.846	1	3
579.016	1	4
579.186	1	-3
579.356	1	0
579.526	1	1
579.696	1	2
579.866	1	4
580.036	1	2
580.205	1	2
580.375	1	11
580.545	1	4
580.715	1	7
580.885	1	2
581.055	1	10
581.225	1	1
581.394	1	2
581.564	1	5
581.734	1	-2
581.904	1	7
582.074	1	-2
582.244	1	-2
582.414	1	15
582.583	1	11
582.753	1	-7
582.923	1	-1
583.093	1	0
583.263	1	1
583.433	1	-1
583.603	1	0
583.772	1	13
583.942	1	-1
584.112	1	-5
584.282	1	-5
584.452	1	-1
584.622	1	1
584.791	1	-3
584.961	1	6
585.131	1	7
585.301	1	-8
585.471	1	3
585.641	1	-5
585.811	1	1
585.980	1	12
586.150	1	-2
586.320	1	1
586.490	1	16
586.660	1	2
586.830	1	1
586.999	1	4
587.169	1	2
587.339	1	-2
587.509	1	0
587.679	1	6
587.849	1	10
588.018	1	5
588.188	1	12
588.358	1	-3
588.528	1	6
588.698	1	11
588.867	1	7
589.037	1	8
589.207	1	9
589.377	1	-3
589.547	1	5
589.717	1	-1
589.886	1	-1
590.056	1	2
590.226	1	8
590.396	1	1
590.566	1	2
590.735	1	-7
590.905	1	3
591.075	1	10
591.245	1	-7
591.415	1	4
591.585	1	11
591.754	1	2
591.924	1	0
592.094	1	-3
592.264	1	3
592.434	1	-2
592.603	1	6
592.773	1	1
592.943	1	-4
593.113	1	7
593.283	1	3
593.452	1	4
593.622	1	1
593.792	1	10
593.962	1	5
594.132	1	6
594.301	1	1
594.471	1	12
594.641	1	9
594.811	1	10
594.981	1	-5
595.150	1	-6
595.320	1	1
595.490	1	7
595.660	1	5
595.829	1	-3
595.999	1	-8
596.169	1	4
596.339	1	8
596.509	1	5
596.678	1	-4
596.848	1	4
597.018	1	-12
597.188	1	-6
597.358	1	3
597.527	1	-10
597.697	1	1
597.867	1	-6
598.037	1	5
598.206	1	4
598.376	1	11
598.546	1	0
598.716	1	1
598.885	1	-5
599.055	1	6
599.225	1	-7
599.395	1	2
599.565	1	-8
599.734	1	4
599.904	1	-1
600.074	1	-1
600.244	1	-3
600.413	1	8
600.583	1	10
600.753	1	1
600.923	1	5
601.092	1	13
601.262	1	7
601.432	1	-4
601.602	1	19
601.771	1	6
601.941	1	5
602.111	1	7
602.281	1	16
602.451	1	13
602.620	1	1
602.790	1	-1
602.960	1	8
603.130	1	-1
603.299	1	-3
603.469	1	-1
603.639	1	-6
603.809	1	1
603.978	1	-6
604.148	1	16
604.318	1	2
604.487	1	2
604.657	1	0
604.827	1	6
604.997	1	5
605.166	1	8
605.336	1	2
605.506	1	3
605.676	1	-5
605.845	1	6
606.015	1	1
606.185	1	2
606.355	1	6
606.524	1	-5
606.694	1	0
606.864	1	3
607.034	1	-3
607.203	1	7
607.373	1	1
607.543	1	-6
607.712	1	-7
607.882	1	4
608.052	1	-2
608.222	1	-3
608.391	1	2
608.561	1	2
608.731	1	8
608.901	1	8
609.070	1	1
609.240	1	-4
609.410	1	3
609.579	1	8
609.749	1	6
609.919	1	12
610.089	1	-8
610.258	1	4
610.428	1	1
610.598	1	0
610.767	1	2
610.937	1	-1
611.107	1	-3
611.277	1	6
611.446	1	4
611.616	1	-1
611.786	1	8
611.955	1	4
612.125	1	1
612.295	1	3
612.465	1	9
612.634	1	-3
612.804	1	11
612.974	1	-4
613.143	1	-5
613.313	1	6
613.483	1	4
613.652	1	6
613.822	1	4
613.992	1	-4
614.162	1	12
614.331	1	0
614.501	1	-3
614.671	1	1
614.840	1	1
615.010	1	-6
615.180	1	-4
615.349	1	5
615.519	1	1
615.689	1	3
615.858	1	0
616.028	1	5
616.198	1	1
616.368	1	6
616.537	1	-6
616.707	1	7
616.877	1	-1
617.046	1	13
617.216	1	-2
617.386	1	16
617.555	1	9
617.725	1	1
617.895	1	7
618.064	1	-9
618.234	1	2
618.404	1	-1
618.573	1	1
618.743	1	7
618.913	1	-5
619.082	1	-1
619.252	1	5
619.422	1	2
619.591	1	-4
619.761	1	-4
619.931	1	11
620.100	1	8
620.270	1	-8
620.440	1	4
620.609	1	6
620.779	1	-5
620.949	1	1
621.118	1	2
621.288	1	6
621.458	1	-2
621.627	1	9
621.797	1	4
621.967	1	-1
622.136	1	7
622.306	1	0
622.476	1	3
622.645	1	18
622.815	1	9
622.985	1	6
623.154	1	2
623.324	1	-8
623.494	1	10
623.663	1	-8
623.833	1	0
624.002	1	-10
624.172	1	-2
624.342	1	16
624.511	1	4
624.681	1	1
624.851	1	-4
625.020	1	-2
625.190	1	0
625.360	1	-1
625.529	1	2
625.699	1	5
625.869	1	12
626.038	1	-10
626.208	1	3
626.377	1	3
626.547	1	12
626.717	1	3
626.886	1	3
627.056	1	-7
627.226	1	12
627.395	1	8
627.565	1	3
627.735	1	2
627.904	1	-1
628.074	1	9
628.243	1	6
628.413	1	-4
628.583	1	-1
628.752	1	3
628.922	1	5
629.091	1	-7
629.261	1	3
629.431	1	6
629.600	1	11
629.770	1	-13
629.940	1	-7
630.109	1	-6
630.279	1	-11
630.448	1	1
630.618	1	4
630.788	1	14
630.957	1	4
631.127	1	11
631.297	1	-4
631.466	1	3
631.636	1	-8
631.805	1	0
631.975	1	18
632.145	1	-5
632.314	1	-1
632.484	1	2
632.653	1	-3
632.823	1	3
632.993	1	-3
633.162	1	7
633.332	1	0
633.501	1	3
633.671	1	-3
633.841	1	-1
634.010	1	-5
634.180	1	7
634.349	1	4
634.519	1	-9
634.689	1	-1
634.858	1	0
635.028	1	12
635.197	1	12
635.367	1	0
635.537	1	-2
635.706	1	-3
635.876	1	-4
636.045	1	13
636.215	1	5
636.384	1	3
636.554	1	7
636.724	1	4
636.893	1	-4
637.063	1	7
637.232	1	2
637.402	1	4
637.572	1	-1
637.741	1	-4
637.911	1	-2
638.080	1	-6
638.250	1	1
638.419	1	5
638.589	1	5
638.759	1	-2
638.928	1	3
639.098	1	7
639.267	1	-5
639.437	1	11
639.606	1	6
639.776	1	-4
639.946	1	-3
640.115	1	-4
640.285	1	11
640.454	1	-4
640.624	1	4
640.793	1	8
640.963	1	0
641.132	1	4
641.302	1	-3
641.472	1	-2
641.641	1	-7
641.811	1	4
641.980	1	-2
642.150	1	-13
642.319	1	-4
642.489	1	3
642.659	1	7
642.828	1	0
642.998	1	-7
643.167	1	-3
643.337	1	4
643.506	1	-15
643.676	1	-7
643.845	1	-4
644.015	1	3
644.184	1	5
644.354	1	-2
644.524	1	1
644.693	1	8
644.863	1	-6
645.032	1	3
645.202	1	2
645.371	1	-12
645.541	1	8
645.710	1	1
645.880	1	4
646.049	1	-5
646.219	1	-3
646.388	1	-3
646.558	1	-4
646.728	1	2
646.897	1	-2
647.067	1	5
647.236	1	1
647.406	1	-7
647.575	1	6
647.745	1	-4
647.914	1	3
648.084	1	-3
648.253	1	3
648.423	1	-12
648.592	1	1
648.762	1	2
648.931	1	10
649.101	1	0
649.270	1	1
649.440	1	2
649.610	1	-8
649.779	1	10
649.949	1	-4
650.118	1	12
650.288	1	6
650.457	1	1
650.627	1	-4
650.796	1	-1
650.966	1	4
651.135	1	1
651.305	1	10
651.474	1	-6
651.644	1	10
651.813	1	3
651.983	1	-3
652.152	1	12
652.322	1	4
652.491	1	3
652.661	1	5
652.830	1	11
653.000	1	-1
653.169	1	4
653.339	1	2
653.508	1	4
653.678	1	0
653.847	1	1
654.017	1	-3
654.186	1	1
654.356	1	2
654.525	1	0
654.695	1	12
654.864	1	4
655.034	1	1
655.203	1	-3
655.373	1	14
655.542	1	4
655.712	1	2
655.881	1	-2
656.051	1	7
656.220	1	-9
656.390	1	-3
656.559	1	7
656.729	1	7
656.898	1	-5
657.068	1	-2
657.237	1	9
657.406	1	3
657.576	1	0
657.745	1	-8
657.915	1	-1
658.084	1	-3
658.254	1	2
658.423	1	9
658.593	1	11
658.762	1	1
658.932	1	-4
659.101	1	6
659.271	1	7
659.440	1	-1
659.610	1	3
659.779	1	1
659.949	1	-3
660.118	1	4
660.288	1	9
660.457	1	2
660.626	1	7
660.796	1	-11
660.965	1	9
661.135	1	-13
661.304	1	-4
661.474	1	-1
661.643	1	5
661.813	1	9
661.982	1	14
662.152	1	6
662.321	1	6
662.491	1	-7
662.660	1	7
662.829	1	-6
662.999	1	-4
663.168	1	6
663.338	1	12
663.507	1	8
663.677	1	2
663.846	1	-5
664.016	1	-2
664.185	1	6
664.354	1	0
664.524	1	4
664.693	1	8
664.863	1	3
665.032	1	9
665.202	1	12
665.371	1	0
665.541	1	-3
665.710	1	4
665.879	1	-3
666.049	1	-12
666.218	1	-3
666.388	1	-2
666.557	1	-7
666.727	1	2
666.896	1	-5
667.065	1	7
667.235	1	1
667.404	1	12
667.574	1	-6
667.743	1	7
667.913	1	9
668.082	1	8
668.251	1	-2
668.421	1	-6
668.590	1	-1
668.760	1	-1
668.929	1	-12
669.099	1	5
669.268	1	4
669.437	1	1
669.607	1	-3
669.776	1	-5
669.946	1	-1
670.115	1	1
670.285	1	4
670.454	1	4
670.623	1	0
670.793	1	-1
670.962	1	6
671.132	1	11
671.301	1	2
671.470	1	-4
671.640	1	2
671.809	1	-2
671.979	1	-3
672.148	1	-2
672.317	1	3
672.487	1	4
672.656	1	-6
672.826	1	3
672.995	1	6
673.164	1	10
673.334	1	4
673.503	1	1
673.673	1	0
673.842	1	1
674.011	1	10
674.181	1	1
674.350	1	12
674.520	1	3
674.689	1	3
674.858	1	6
675.028	1	5
675.197	1	-4
675.367	1	-1
675.536	1	-1
675.705	1	-4
675.875	1	-1
676.044	1	3
676.214	1	-2
676.383	1	9
676.552	1	4
676.722	1	-4
676.891	1	8
677.060	1	-4
677.230	1	-5
677.399	1	-3
677.569	1	-1
677.738	1	8
677.907	1	3
678.077	1	5
678.246	1	-4
678.416	1	1
678.585	1	6
678.754	1	-2
678.924	1	-7
679.093	1	4
679.262	1	5
679.432	1	9
679.601	1	-6
679.771	1	-7
679.940	1	-1
680.109	1	7
680.279	1	-9
680.448	1	2
680.617	1	3
680.787	1	-2
680.956	1	11
681.125	1	13
681.295	1	-1
681.464	1	-9
681.634	1	8
681.803	1	-3
681.972	1	-6
682.142	1	4
682.311	1	7
682.480	1	17
682.650	1	5
682.819	1	4
682.988	1	2
683.158	1	2
683.327	1	-5
683.496	1	4
683.666	1	-8
683.835	1	1
684.004	1	5
684.174	1	1
684.343	1	-7
684.512	1	5
684.682	1	-4
684.851	1	3
685.021	1	-3
685.190	1	-2
685.359	1	10
685.529	1	0
685.698	1	14
685.867	1	-5
686.037	1	3
686.206	1	-6
686.375	1	18
686.545	1	-11
686.714	1	-3
686.883	1	0
687.053	1	0
687.222	1	9
687.391	1	6
687.561	1	8
687.730	1	4
687.899	1	6
688.069	1	2
688.238	1	3
688.407	1	2
688.577	1	10
688.746	1	6
