340.368	1	5
340.539	1	-4
340.710	1	-18
340.881	1	-3
341.052	1	2
341.223	1	-11
341.394	1	-9
341.565	1	-12
341.737	1	-3
341.908	1	-5
342.079	1	-10
342.250	1	-10
342.421	1	-7
342.592	1	4
342.763	1	7
342.934	1	-4
343.105	1	-3
343.276	1	1
343.447	1	-7
343.618	1	-2
343.789	1	-9
343.960	1	4
344.131	1	2
344.302	1	0
344.473	1	1
344.644	1	-3
344.815	1	6
344.986	1	-3
345.157	1	-4
345.328	1	-6
345.499	1	1
345.670	1	-9
345.841	1	9
346.012	1	-2
346.183	1	-13
346.354	1	-1
346.526	1	-10
346.697	1	-5
346.868	1	4
347.039	1	7
347.210	1	-12
347.381	1	1
347.552	1	-2
347.723	1	0
347.894	1	5
348.065	1	-4
348.236	1	6
348.407	1	3
348.578	1	0
348.749	1	-8
348.920	1	-6
349.091	1	-8
349.262	1	3
349.433	1	6
349.604	1	3
349.775	1	1
349.946	1	-5
350.117	1	1
350.288	1	10
350.459	1	-4
350.630	1	4
350.801	1	-5
350.972	1	5
351.143	1	-1
351.314	1	9
351.485	1	6
351.656	1	2
351.827	1	8
351.998	1	3
352.169	1	-1
352.340	1	2
352.511	1	0
352.682	1	2
352.853	1	-5
353.024	1	4
353.195	1	0
353.366	1	10
353.537	1	-9
353.708	1	2
353.879	1	9
354.050	1	-10
354.221	1	-3
354.392	1	1
354.563	1	2
354.734	1	0
354.905	1	8
355.076	1	-4
355.247	1	0
355.418	1	-11
355.589	1	-8
355.760	1	-6
355.931	1	1
356.102	1	12
356.273	1	-6
356.444	1	4
356.615	1	-3
356.785	1	3
356.956	1	1
357.127	1	8
357.298	1	5
357.469	1	0
357.640	1	5
357.811	1	3
357.982	1	-1
358.153	1	-4
358.324	1	-4
358.495	1	6
358.666	1	-1
358.837	1	-4
359.008	1	-8
359.179	1	2
359.350	1	-5
359.521	1	7
359.692	1	10
359.863	1	-4
360.034	1	9
360.205	1	-3
360.376	1	8
360.547	1	2
360.718	1	7
360.889	1	2
361.060	1	9
361.231	1	-5
361.401	1	-3
361.572	1	12
361.743	1	-2
361.914	1	0
362.085	1	7
362.256	1	4
362.427	1	4
362.598	1	-2
362.769	1	2
362.940	1	1
363.111	1	0
363.282	1	7
363.453	1	-1
363.624	1	17
363.795	1	-5
363.966	1	-4
364.137	1	6
364.308	1	-2
364.478	1	7
364.649	1	12
364.820	1	5
364.991	1	1
365.162	1	15
365.333	1	4
365.504	1	10
365.675	1	-5
365.846	1	12
366.017	1	7
366.188	1	1
366.359	1	12
366.530	1	20
366.701	1	18
366.871	1	3
367.042	1	6
367.213	1	21
367.384	1	7
367.555	1	-1
367.726	1	10
367.897	1	10
368.068	1	11
368.239	1	17
368.410	1	30
368.581	1	10
368.752	1	6
368.923	1	5
369.093	1	8
369.264	1	7
369.435	1	6
369.606	1	8
369.777	1	14
369.948	1	18
370.119	1	13
370.290	1	6
370.461	1	20
370.632	1	19
370.803	1	17
370.973	1	9
371.144	1	8
371.315	1	15
371.486	1	18
371.657	1	15
371.828	1	14
371.999	1	14
372.170	1	25
372.341	1	11
372.512	1	2
372.682	1	6
372.853	1	9
373.024	1	12
373.195	1	11
373.366	1	7
373.537	1	8
373.708	1	6
373.879	1	6
374.050	1	9
374.220	1	20
374.391	1	13
374.562	1	14
374.733	1	9
374.904	1	7
375.075	1	8
375.246	1	7
375.417	1	10
375.588	1	-1
375.758	1	13
375.929	1	6
376.100	1	14
376.271	1	15
376.442	1	0
376.613	1	2
376.784	1	-1
376.955	1	3
377.125	1	4
377.296	1	1
377.467	1	4
377.638	1	7
377.809	1	16
377.980	1	10
378.151	1	17
378.321	1	-2
378.492	1	-3
378.663	1	-2
378.834	1	-3
379.005	1	12
379.176	1	1
379.347	1	8
379.518	1	-1
379.688	1	17
379.859	1	4
380.030	1	1
380.201	1	0
380.372	1	9
380.543	1	12
380.714	1	11
380.884	1	3
381.055	1	18
381.226	1	0
381.397	1	1
381.568	1	8
381.739	1	3
381.910	1	6
382.080	1	0
382.251	1	-7
382.422	1	3
382.593	1	9
382.764	1	-4
382.935	1	-3
383.105	1	1
383.276	1	5
383.447	1	-8
383.618	1	8
383.789	1	0
383.960	1	5
384.130	1	0
384.301	1	2
384.472	1	6
384.643	1	4
384.814	1	1
384.985	1	-1
385.156	1	-4
385.326	1	9
385.497	1	6
385.668	1	13
385.839	1	2
386.010	1	-1
386.180	1	1
386.351	1	4
386.522	1	6
386.693	1	-10
386.864	1	6
387.035	1	-1
387.205	1	-2
387.376	1	-7
387.547	1	-4
387.718	1	1
387.889	1	-8
388.060	1	9
388.230	1	11
388.401	1	6
388.572	1	-2
388.743	1	1
388.914	1	4
389.084	1	0
389.255	1	-2
389.426	1	-3
389.597	1	8
389.768	1	3
389.939	1	6
390.109	1	3
390.280	1	3
390.451	1	-2
390.622	1	-1
390.793	1	-4
390.963	1	13
391.134	1	5
391.305	1	11
391.476	1	-7
391.647	1	5
391.817	1	3
391.988	1	10
392.159	1	-1
392.330	1	1
392.501	1	1
392.671	1	-3
392.842	1	-7
393.013	1	-5
393.184	1	-1
393.355	1	6
393.525	1	5
393.696	1	5
393.867	1	-7
394.038	1	2
394.208	1	3
394.379	1	3
394.550	1	7
394.721	1	-4
394.892	1	11
395.062	1	1
395.233	1	3
395.404	1	1
395.575	1	3
395.746	1	3
395.916	1	-5
396.087	1	3
396.258	1	1
396.429	1	1
396.599	1	-6
396.770	1	-12
396.941	1	-2
397.112	1	7
397.283	1	8
397.453	1	14
397.624	1	-3
397.795	1	1
397.966	1	-4
398.136	1	-9
398.307	1	-4
398.478	1	7
398.649	1	-14
398.819	1	-1
398.990	1	-2
399.161	1	7
399.332	1	4
399.503	1	7
399.673	1	4
399.844	1	1
400.015	1	-2
400.186	1	-5
400.356	1	-7
400.527	1	-2
400.698	1	1
400.869	1	-3
401.039	1	4
401.210	1	1
401.381	1	3
401.552	1	-5
401.722	1	8
401.893	1	2
402.064	1	-4
402.235	1	-6
402.405	1	0
402.576	1	-3
402.747	1	-9
402.918	1	10
403.088	1	7
403.259	1	11
403.430	1	-1
403.601	1	-11
403.771	1	2
403.942	1	10
404.113	1	-8
404.284	1	9
404.454	1	0
404.625	1	10
404.796	1	-3
404.967	1	5
405.137	1	6
405.308	1	2
405.479	1	-3
405.649	1	-10
405.820	1	-20
405.991	1	-1
406.162	1	2
406.332	1	10
406.503	1	5
406.674	1	-10
406.845	1	11
407.015	1	0
407.186	1	0
407.357	1	-7
407.527	1	-6
407.698	1	6
407.869	1	-8
408.040	1	-8
408.210	1	8
408.381	1	6
408.552	1	-2
408.722	1	-12
408.893	1	-3
409.064	1	0
409.235	1	-8
409.405	1	-5
409.576	1	-7
409.747	1	-1
409.917	1	-2
410.088	1	6
410.259	1	-1
410.430	1	2
410.600	1	2
410.771	1	-6
410.942	1	-1
411.112	1	2
411.283	1	0
411.454	1	-7
411.625	1	-7
411.795	1	-5
411.966	1	4
412.137	1	1
412.307	1	-3
412.478	1	11
412.649	1	0
412.819	1	-9
412.990	1	-6
413.161	1	1
413.332	1	3
413.502	1	-2
413.673	1	12
413.844	1	-1
414.014	1	1
414.185	1	6
414.356	1	-2
414.526	1	-5
414.697	1	3
414.868	1	-3
415.038	1	3
415.209	1	-3
415.380	1	-6
415.550	1	-4
415.721	1	0
415.892	1	0
416.063	1	1
416.233	1	2
416.404	1	-3
416.575	1	5
416.745	1	-6
416.916	1	-8
417.087	1	0
417.257	1	-6
417.428	1	-7
417.599	1	11
417.769	1	15
417.940	1	10
418.111	1	-1
418.281	1	1
418.452	1	-11
418.623	1	0
418.793	1	-7
418.964	1	-9
419.135	1	-4
419.305	1	5
419.476	1	6
419.647	1	-7
419.817	1	1
419.988	1	8
420.159	1	3
420.329	1	-2
420.500	1	-4
420.671	1	-1
420.841	1	11
421.012	1	-7
421.183	1	4
421.353	1	-6
421.524	1	-2
421.695	1	-10
421.865	1	6
422.036	1	6
422.206	1	1
422.377	1	0
422.548	1	-10
422.718	1	8
422.889	1	-15
423.060	1	-2
423.230	1	1
423.401	1	6
423.572	1	-1
423.742	1	1
423.913	1	-4
424.084	1	-3
424.254	1	2
424.425	1	-5
424.595	1	-3
424.766	1	-2
424.937	1	0
425.107	1	4
425.278	1	4
425.449	1	0
425.619	1	7
425.790	1	2
425.961	1	-9
426.131	1	-4
426.302	1	-1
426.472	1	-6
426.643	1	8
426.814	1	-2
426.984	1	1
427.155	1	1
427.326	1	6
427.496	1	6
427.667	1	4
427.837	1	0
428.008	1	1
428.179	1	-1
428.349	1	-21
428.520	1	0
428.691	1	3
428.861	1	-2
429.032	1	9
429.202	1	-5
429.373	1	6
429.544	1	-6
429.714	1	4
429.885	1	1
430.055	1	-1
430.226	1	-4
430.397	1	-5
430.567	1	4
430.738	1	0
430.909	1	6
431.079	1	-3
431.250	1	5
431.420	1	-3
431.591	1	0
431.762	1	6
431.932	1	0
432.103	1	2
432.273	1	2
432.444	1	9
432.615	1	-5
432.785	1	2
432.956	1	-6
433.126	1	-6
433.297	1	4
433.468	1	-13
433.638	1	-4
433.809	1	9
433.979	1	-1
434.150	1	2
434.320	1	-5
434.491	1	-6
434.662	1	-5
434.832	1	3
435.003	1	-3
435.173	1	-6
435.344	1	3
435.515	1	8
435.685	1	-8
435.856	1	-4
436.026	1	-3
436.197	1	7
436.368	1	4
436.538	1	-14
436.709	1	2
436.879	1	-10
437.050	1	-6
437.220	1	-6
437.391	1	9
437.562	1	-5
437.732	1	-10
437.903	1	-6
438.073	1	5
438.244	1	-4
438.414	1	-15
438.585	1	-6
438.756	1	-4
438.926	1	-3
439.097	1	-15
439.267	1	-1
439.438	1	-5
439.608	1	0
439.779	1	0
439.949	1	-2
440.120	1	-3
440.291	1	-4
440.461	1	-1
440.632	1	5
440.802	1	-7
440.973	1	-10
441.143	1	-3
441.314	1	-2
441.485	1	3
441.655	1	-1
441.826	1	-7
441.996	1	3
442.167	1	1
442.337	1	2
442.508	1	-10
442.678	1	-5
442.849	1	4
443.019	1	5
443.190	1	0
443.361	1	-3
443.531	1	6
443.702	1	-1
443.872	1	3
444.043	1	1
444.213	1	5
444.384	1	-2
444.554	1	9
444.725	1	-14
444.895	1	0
445.066	1	-1
445.237	1	2
445.407	1	12
445.578	1	-15
445.748	1	2
445.919	1	-9
446.089	1	4
446.260	1	-12
446.430	1	-7
446.601	1	0
446.771	1	15
446.942	1	1
447.112	1	-3
447.283	1	-8
447.453	1	-15
447.624	1	7
447.794	1	5
447.965	1	2
448.135	1	-1
448.306	1	7
448.477	1	0
448.647	1	-9
448.818	1	4
448.988	1	-4
449.159	1	-1
449.329	1	-2
449.500	1	-4
449.670	1	2
449.841	1	10
450.011	1	13
450.182	1	-4
450.352	1	-3
450.523	1	-6
450.693	1	-1
450.864	1	1
451.034	1	-15
451.205	1	0
451.375	1	2
451.546	1	-3
451.716	1	6
451.887	1	-13
452.057	1	-4
452.228	1	1
452.398	1	-3
452.569	1	0
452.739	1	2
452.910	1	-4
453.080	1	0
453.251	1	-3
453.421	1	-7
453.592	1	4
453.762	1	0
453.933	1	0
454.103	1	6
454.274	1	-6
454.444	1	-17
454.615	1	9
454.785	1	2
454.956	1	-1
455.126	1	-9
455.297	1	9
455.467	1	2
455.638	1	3
455.808	1	0
455.979	1	-8
456.149	1	4
456.320	1	8
456.490	1	6
456.661	1	3
456.831	1	5
457.001	1	-11
457.172	1	-5
457.342	1	-6
457.513	1	5
457.683	1	-8
457.854	1	-1
458.024	1	-7
458.195	1	-9
458.365	1	-7
458.536	1	12
458.706	1	7
458.877	1	-1
459.047	1	3
459.218	1	-6
459.388	1	8
459.559	1	-2
459.729	1	-1
459.899	1	1
460.070	1	5
460.240	1	1
460.411	1	-3
460.581	1	9
460.752	1	-2
460.922	1	7
461.093	1	10
461.263	1	-5
461.434	1	-10
461.604	1	-4
461.775	1	3
461.945	1	-4
462.115	1	3
462.286	1	5
462.456	1	-10
462.627	1	14
462.797	1	-5
462.968	1	-2
463.138	1	-7
463.309	1	-17
463.479	1	0
463.649	1	1
463.820	1	-7
463.990	1	-6
464.161	1	-5
464.331	1	1
464.502	1	7
464.672	1	-1
464.843	1	2
465.013	1	1
465.183	1	-4
465.354	1	-4
465.524	1	-8
465.695	1	-5
465.865	1	-5
466.036	1	10
466.206	1	11
466.376	1	-10
466.547	1	-5
466.717	1	-4
466.888	1	10
467.058	1	-8
467.229	1	-2
467.399	1	6
467.569	1	17
467.740	1	-5
467.910	1	-2
468.081	1	-8
468.251	1	-5
468.422	1	-13
468.592	1	-5
468.762	1	-2
468.933	1	-4
469.103	1	-4
469.274	1	-6
469.444	1	-8
469.614	1	1
469.785	1	-15
469.955	1	5
470.126	1	-6
470.296	1	-5
470.467	1	-6
470.637	1	1
470.807	1	3
470.978	1	-5
471.148	1	-1
471.319	1	-4
471.489	1	4
471.659	1	-7
471.830	1	-8
472.000	1	-8
472.171	1	8
472.341	1	4
472.511	1	-4
472.682	1	2
472.852	1	0
473.023	1	-4
473.193	1	9
473.363	1	-5
473.534	1	8
473.704	1	-9
473.875	1	13
474.045	1	-1
474.215	1	3
474.386	1	19
474.556	1	1
474.727	1	-10
474.897	1	8
475.067	1	4
475.238	1	5
475.408	1	-5
475.578	1	-8
475.749	1	-8
475.919	1	-1
476.090	1	8
476.260	1	-9
476.430	1	-1
476.601	1	4
476.771	1	-5
476.942	1	8
477.112	1	-2
477.282	1	-5
477.453	1	-12
477.623	1	-11
477.793	1	-5
477.964	1	-2
478.134	1	-7
478.305	1	1
478.475	1	4
478.645	1	5
478.816	1	-8
478.986	1	-5
479.156	1	-7
479.327	1	-4
479.497	1	-5
479.667	1	-3
479.838	1	-2
480.008	1	1
480.179	1	0
480.349	1	-6
480.519	1	2
480.690	1	-7
480.860	1	-3
481.030	1	-14
481.201	1	-2
481.371	1	2
481.541	1	1
481.712	1	6
481.882	1	9
482.053	1	3
482.223	1	-3
482.393	1	2
482.564	1	-1
482.734	1	-6
482.904	1	-17
483.075	1	1
483.245	1	4
483.415	1	2
483.586	1	5
483.756	1	6
483.926	1	-4
484.097	1	0
484.267	1	-3
484.437	1	-7
484.608	1	0
484.778	1	-2
484.948	1	-8
485.119	1	1
485.289	1	-3
485.459	1	13
485.630	1	-7
485.800	1	2
485.970	1	-6
486.141	1	-8
486.311	1	-3
486.481	1	0
486.652	1	22
486.822	1	-2
486.992	1	0
487.163	1	2
487.333	1	2
487.503	1	0
487.674	1	3
487.844	1	3
488.014	1	-3
488.185	1	-2
488.355	1	7
488.525	1	8
488.696	1	-6
488.866	1	2
489.036	1	2
489.207	1	-5
489.377	1	-15
489.547	1	-3
489.718	1	-4
489.888	1	-7
490.058	1	1
490.228	1	14
490.399	1	-4
490.569	1	9
490.739	1	-2
490.910	1	11
491.080	1	4
491.250	1	-5
491.421	1	2
491.591	1	-1
491.761	1	3
491.932	1	8
492.102	1	-11
492.272	1	2
492.442	1	9
492.613	1	-4
492.783	1	4
492.953	1	-6
493.124	1	10
493.294	1	-8
493.464	1	11
493.635	1	0
493.805	1	-5
493.975	1	2
494.145	1	1
494.316	1	7
494.486	1	5
494.656	1	-2
494.827	1	5
494.997	1	2
495.167	1	1
495.337	1	2
495.508	1	-4
495.678	1	-7
495.848	1	10
496.019	1	-4
496.189	1	0
496.359	1	-8
496.529	1	5
496.700	1	7
496.870	1	5
497.040	1	1
497.211	1	-2
497.381	1	-3
497.551	1	1
497.721	1	-6
497.892	1	2
498.062	1	-8
498.232	1	-5
498.403	1	-3
498.573	1	-9
498.743	1	-3
498.913	1	5
499.084	1	-5
499.254	1	9
499.424	1	-1
499.594	1	2
499.765	1	-2
499.935	1	3
500.105	1	4
500.275	1	5
500.446	1	-14
500.616	1	-12
500.786	1	-4
500.956	1	3
501.127	1	-5
501.297	1	-7
501.467	1	2
501.638	1	-3
501.808	1	1
501.978	1	2
502.148	1	-4
502.319	1	-5
502.489	1	3
502.659	1	-2
502.829	1	10
503.000	1	-2
503.170	1	8
503.340	1	2
503.510	1	3
503.681	1	-14
503.851	1	-7
504.021	1	-6
504.191	1	12
504.362	1	-5
504.532	1	7
504.702	1	-6
504.872	1	1
505.042	1	-2
505.213	1	6
505.383	1	-2
505.553	1	1
505.723	1	-6
505.894	1	1
506.064	1	1
506.234	1	7
506.404	1	3
506.575	1	5
506.745	1	-3
506.915	1	-5
507.085	1	5
507.256	1	6
507.426	1	7
507.596	1	-1
507.766	1	4
507.936	1	-2
508.107	1	-2
508.277	1	-7
508.447	1	3
508.617	1	3
508.788	1	15
508.958	1	0
509.128	1	-7
509.298	1	1
509.468	1	1
509.639	1	-4
509.809	1	-1
509.979	1	6
510.149	1	1
510.319	1	6
510.490	1	0
510.660	1	-4
510.830	1	4
511.000	1	-5
511.171	1	-6
511.341	1	4
511.511	1	9
511.681	1	-1
511.851	1	1
512.022	1	0
512.192	1	3
512.362	1	-5
512.532	1	-1
512.702	1	-2
512.873	1	7
513.043	1	6
513.213	1	2
513.383	1	-3
513.553	1	-16
513.724	1	-1
513.894	1	-4
514.064	1	14
514.234	1	-5
514.404	1	0
514.575	1	8
514.745	1	-6
514.915	1	-1
515.085	1	6
515.255	1	-2
515.425	1	-6
515.596	1	6
515.766	1	-8
515.936	1	4
516.106	1	-2
516.276	1	-11
516.447	1	6
516.617	1	12
516.787	1	0
516.957	1	-2
517.127	1	-7
517.297	1	0
517.468	1	-8
517.638	1	-3
517.808	1	-7
517.978	1	1
518.148	1	0
518.319	1	2
518.489	1	1
518.659	1	-4
518.829	1	4
518.999	1	-1
519.169	1	3
519.340	1	3
519.510	1	0
519.680	1	4
519.850	1	7
520.020	1	8
520.190	1	-1
520.361	1	-7
520.531	1	0
520.701	1	0
520.871	1	3
521.041	1	13
521.211	1	-14
521.382	1	-10
521.552	1	3
521.722	1	-4
521.892	1	-1
522.062	1	-1
522.232	1	8
522.402	1	6
522.573	1	-7
522.743	1	-9
522.913	1	-1
523.083	1	-3
523.253	1	1
523.423	1	7
523.593	1	-1
523.764	1	-1
523.934	1	2
524.104	1	5
524.274	1	3
524.444	1	-5
524.614	1	0
524.784	1	-8
524.955	1	-7
525.125	1	3
525.295	1	3
525.465	1	14
525.635	1	-10
525.805	1	-9
525.975	1	-1
526.146	1	0
526.316	1	4
526.486	1	2
526.656	1	-4
526.826	1	10
526.996	1	6
527.166	1	-6
527.337	1	-1
527.507	1	-8
527.677	1	4
527.847	1	2
528.017	1	-10
528.187	1	5
528.357	1	-2
528.527	1	5
528.698	1	1
528.868	1	3
529.038	1	-2
529.208	1	-8
529.378	1	2
529.548	1	0
529.718	1	-1
529.888	1	8
530.058	1	-2
530.229	1	2
530.399	1	8
530.569	1	-8
530.739	1	9
530.909	1	1
531.079	1	-3
531.249	1	0
531.419	1	-3
531.589	1	2
531.760	1	5
531.930	1	10
532.100	1	5
532.270	1	-6
532.440	1	0
532.610	1	1
532.780	1	-9
532.950	1	5
533.120	1	11
533.290	1	1
533.461	1	-2
533.631	1	4
533.801	1	14
533.971	1	0
534.141	1	-11
534.311	1	-1
534.481	1	-13
534.651	1	2
534.821	1	4
534.991	1	4
535.162	1	-1
535.332	1	3
535.502	1	2
535.672	1	6
535.842	1	2
536.012	1	2
536.182	1	1
536.352	1	1
536.522	1	3
536.692	1	8
536.862	1	5
537.032	1	6
537.203	1	-7
537.373	1	3
537.543	1	-4
537.713	1	4
537.883	1	-4
538.053	1	-4
538.223	1	-2
538.393	1	4
538.563	1	-5
538.733	1	-6
538.903	1	-7
539.073	1	-2
539.243	1	2
539.413	1	-10
539.584	1	6
539.754	1	2
539.924	1	13
540.094	1	-6
540.264	1	-6
540.434	1	4
540.604	1	6
540.774	1	1
540.944	1	2
541.114	1	-9
541.284	1	11
541.454	1	-7
541.624	1	6
541.794	1	0
541.964	1	11
542.134	1	4
542.305	1	0
542.475	1	3
542.645	1	-3
542.815	1	-4
542.985	1	-2
543.155	1	-6
543.325	1	-5
543.495	1	-6
543.665	1	10
543.835	1	9
544.005	1	10
544.175	1	-2
544.345	1	-3
544.515	1	-7
544.685	1	-7
544.855	1	3
545.025	1	5
545.195	1	-3
545.365	1	4
545.535	1	-5
545.705	1	1
545.875	1	-5
546.045	1	-5
546.216	1	1
546.386	1	-3
546.556	1	-7
546.726	1	-9
546.896	1	6
547.066	1	5
547.236	1	10
547.406	1	-3
547.576	1	8
547.746	1	-11
547.916	1	-8
548.086	1	-4
548.256	1	-9
548.426	1	-8
548.596	1	1
548.766	1	4
548.936	1	3
549.106	1	-5
549.276	1	-5
549.446	1	-5
549.616	1	-1
549.786	1	-4
549.956	1	11
550.126	1	9
550.296	1	-2
550.466	1	-1
550.636	1	11
550.806	1	-5
550.976	1	14
551.146	1	0
551.316	1	0
551.486	1	7
551.656	1	0
551.826	1	1
551.996	1	13
552.166	1	8
552.336	1	1
552.506	1	8
552.676	1	9
552.846	1	3
553.016	1	7
553.186	1	6
553.356	1	3
553.526	1	4
553.696	1	6
553.866	1	-5
554.036	1	-4
554.206	1	-3
554.376	1	5
554.546	1	4
554.716	1	5
554.886	1	2
555.056	1	4
555.226	1	-4
555.396	1	-10
555.566	1	1
555.736	1	-14
555.906	1	2
556.076	1	8
556.246	1	1
556.416	1	-13
556.586	1	1
556.756	1	1
556.926	1	-6
557.096	1	-7
557.266	1	-6
557.436	1	4
557.606	1	8
557.776	1	1
557.946	1	6
558.116	1	-7
558.286	1	2
558.456	1	3
558.626	1	-3
558.796	1	2
558.966	1	3
559.136	1	1
559.306	1	-7
559.476	1	6
559.646	1	0
559.816	1	-5
559.986	1	-6
560.155	1	7
560.325	1	-7
560.495	1	9
560.665	1	-6
560.835	1	2
561.005	1	4
561.175	1	0
561.345	1	-8
561.515	1	-9
561.685	1	-3
561.855	1	-7
562.025	1	-2
562.195	1	0
562.365	1	6
562.535	1	0
562.705	1	-1
562.875	1	-6
563.045	1	-1
563.215	1	2
563.385	1	-17
563.555	1	-4
563.725	1	0
563.895	1	2
564.064	1	1
564.234	1	-3
564.404	1	0
564.574	1	7
564.744	1	0
564.914	1	-2
565.084	1	-7
565.254	1	5
565.424	1	1
565.594	1	4
565.764	1	0
565.934	1	5
566.104	1	3
566.274	1	-5
566.444	1	-7
566.614	1	-1
566.783	1	2
566.953	1	8
567.123	1	13
567.293	1	9
567.463	1	-5
567.633	1	-5
567.803	1	-7
567.973	1	4
568.143	1	-2
568.313	1	5
568.483	1	2
568.653	1	-4
568.823	1	-2
568.993	1	2
569.162	1	7
569.332	1	-4
569.502	1	-1
569.672	1	6
569.842	1	10
570.012	1	4
570.182	1	1
570.352	1	-5
570.522	1	-10
570.692	1	3
570.862	1	-2
571.031	1	-2
571.201	1	3
571.371	1	3
571.541	1	2
571.711	1	5
571.881	1	16
572.051	1	-7
572.221	1	1
572.391	1	-9
572.561	1	-4
572.731	1	0
572.900	1	-5
573.070	1	2
573.240	1	2
573.410	1	14
573.580	1	6
573.750	1	-5
573.920	1	4
574.090	1	-1
574.260	1	7
574.430	1	0
574.599	1	2
574.769	1	3
574.939	1	-1
575.109	1	7
575.279	1	11
575.449	1	5
575.619	1	7
575.789	1	-4
575.959	1	-6
576.128	1	-17
576.298	1	8
576.468	1	0
576.638	1	3
576.808	1	-4
576.978	1	8
577.148	1	8
577.318	1	0
577.487	1	-6
577.657	1	-11
577.827	1	-5
577.997	1	-6
578.167	1	-3
578.337	1	12
578.507	1	-4
578.677	1	5
578.846	1	-3
579.016	1	9
579.186	1	-2
579.356	1	0
579.526	1	5
579.696	1	0
579.866	1	0
580.036	1	-2
580.205	1	0
580.375	1	2
580.545	1	0
580.715	1	0
580.885	1	7
581.055	1	2
581.225	1	-2
581.394	1	1
581.564	1	-8
581.734	1	-5
581.904	1	13
582.074	1	-6
582.244	1	-5
582.414	1	3
582.583	1	14
582.753	1	-3
582.923	1	4
583.093	1	0
583.263	1	5
583.433	1	-6
583.603	1	0
583.772	1	2
583.942	1	-5
584.112	1	3
584.282	1	-7
584.452	1	14
584.622	1	-4
584.791	1	-5
584.961	1	0
585.131	1	5
585.301	1	-7
585.471	1	6
585.641	1	-3
585.811	1	5
585.980	1	3
586.150	1	-2
586.320	1	-2
586.490	1	7
586.660	1	5
586.830	1	5
586.999	1	-7
587.169	1	-6
587.339	1	6
587.509	1	5
587.679	1	11
587.849	1	-3
588.018	1	10
588.188	1	-4
588.358	1	-3
588.528	1	5
588.698	1	-4
588.867	1	-3
589.037	1	3
589.207	1	9
589.377	1	-6
589.547	1	-2
589.717	1	1
589.886	1	-5
590.056	1	1
590.226	1	2
590.396	1	6
590.566	1	-3
590.735	1	-3
590.905	1	-4
591.075	1	2
591.245	1	1
591.415	1	2
591.585	1	-3
591.754	1	0
591.924	1	-6
592.094	1	-1
592.264	1	6
592.434	1	-7
592.603	1	11
592.773	1	4
592.943	1	2
593.113	1	6
593.283	1	-1
593.452	1	8
593.622	1	-5
593.792	1	10
593.962	1	0
594.132	1	2
594.301	1	10
594.471	1	14
594.641	1	-11
594.811	1	-3
594.981	1	-5
595.150	1	4
595.320	1	-1
595.490	1	-1
595.660	1	2
595.829	1	-4
595.999	1	-2
596.169	1	9
596.339	1	2
596.509	1	-1
596.678	1	-7
596.848	1	-2
597.018	1	-3
597.188	1	-1
597.358	1	6
597.527	1	-7
597.697	1	1
597.867	1	-14
598.037	1	-6
598.206	1	-6
598.376	1	-1
598.546	1	-3
598.716	1	4
598.885	1	-19
599.055	1	9
599.225	1	-6
599.395	1	7
599.565	1	-10
599.734	1	1
599.904	1	7
600.074	1	-3
600.244	1	-4
600.413	1	7
600.583	1	9
600.753	1	1
600.923	1	0
601.092	1	14
601.262	1	4
601.432	1	-6
601.602	1	9
601.771	1	6
601.941	1	-1
602.111	1	3
602.281	1	11
602.451	1	5
602.620	1	-2
602.790	1	0
602.960	1	-4
603.130	1	6
603.299	1	-2
603.469	1	-4
603.639	1	-6
603.809	1	7
603.978	1	6
604.148	1	9
604.318	1	3
604.487	1	3
604.657	1	1
604.827	1	7
604.997	1	4
605.166	1	-5
605.336	1	6
605.506	1	-2
605.676	1	-8
605.845	1	8
606.015	1	-5
606.185	1	5
606.355	1	-1
606.524	1	-2
606.694	1	-6
606.864	1	-7
607.034	1	-9
607.203	1	-6
607.373	1	1
607.543	1	6
607.712	1	-1
607.882	1	0
608.052	1	-1
608.222	1	3
608.391	1	-4
608.561	1	6
608.731	1	-1
608.901	1	-1
609.070	1	-4
609.240	1	-4
609.410	1	7
609.579	1	2
609.749	1	-2
609.919	1	6
610.089	1	-3
610.258	1	2
610.428	1	4
610.598	1	2
610.767	1	1
610.937	1	-2
611.107	1	-3
611.277	1	2
611.446	1	4
611.616	1	6
611.786	1	3
611.955	1	-1
612.125	1	1
612.295	1	3
612.465	1	9
612.634	1	-6
612.804	1	3
612.974	1	-8
613.143	1	-3
613.313	1	7
613.483	1	-3
613.652	1	-4
613.822	1	10
613.992	1	2
614.162	1	12
614.331	1	-4
614.501	1	-2
614.671	1	7
614.840	1	2
615.010	1	-9
615.180	1	-2
615.349	1	7
615.519	1	-1
615.689	1	8
615.858	1	11
616.028	1	2
616.198	1	-2
616.368	1	0
616.537	1	1
616.707	1	-2
616.877	1	-2
617.046	1	-1
617.216	1	-7
617.386	1	5
617.555	1	8
617.725	1	-4
617.895	1	2
618.064	1	-8
618.234	1	0
618.404	1	0
618.573	1	-6
618.743	1	-3
618.913	1	6
619.082	1	6
619.252	1	-2
619.422	1	-8
619.591	1	-6
619.761	1	11
619.931	1	6
620.100	1	-1
620.270	1	2
620.440	1	6
620.609	1	-2
620.779	1	-3
620.949	1	2
621.118	1	-2
621.288	1	-3
621.458	1	-2
621.627	1	9
621.797	1	-10
621.967	1	-4
622.136	1	6
622.306	1	-1
622.476	1	1
622.645	1	0
622.815	1	10
622.985	1	3
623.154	1	9
623.324	1	1
623.494	1	12
623.663	1	-9
623.833	1	0
624.002	1	1
624.172	1	-4
624.342	1	4
624.511	1	-1
624.681	1	9
624.851	1	-10
625.020	1	4
625.190	1	-3
625.360	1	3
625.529	1	-2
625.699	1	-11
625.869	1	2
626.038	1	-5
626.208	1	-3
626.377	1	7
626.547	1	6
626.717	1	0
626.886	1	1
627.056	1	-18
627.226	1	0
627.395	1	0
627.565	1	-2
627.735	1	-1
627.904	1	-6
628.074	1	2
628.243	1	4
628.413	1	-5
628.583	1	-3
628.752	1	4
628.922	1	1
629.091	1	-9
629.261	1	0
629.431	1	-9
629.600	1	7
629.770	1	-22
629.940	1	1
630.109	1	-10
630.279	1	-3
630.448	1	-2
630.618	1	-2
630.788	1	7
630.957	1	3
631.127	1	11
631.297	1	-3
631.466	1	-3
631.636	1	-8
631.805	1	-2
631.975	1	12
632.145	1	-9
632.314	1	4
632.484	1	-1
632.653	1	-1
632.823	1	-2
632.993	1	0
633.162	1	6
633.332	1	4
633.501	1	-8
633.671	1	-5
633.841	1	-6
634.010	1	-1
634.180	1	3
634.349	1	8
634.519	1	-7
634.689	1	4
634.858	1	3
635.028	1	1
635.197	1	2
635.367	1	-5
635.537	1	-1
635.706	1	-2
635.876	1	-6
636.045	1	10
636.215	1	5
636.384	1	-9
636.554	1	8
636.724	1	2
636.893	1	-6
637.063	1	-14
637.232	1	-8
637.402	1	0
637.572	1	-3
637.741	1	-3
637.911	1	-2
638.080	1	-1
638.250	1	-4
638.419	1	1
638.589	1	-2
638.759	1	-5
638.928	1	-5
639.098	1	6
639.267	1	2
639.437	1	-4
639.606	1	3
639.776	1	-3
639.946	1	2
640.115	1	4
640.285	1	4
640.454	1	1
640.624	1	-13
640.793	1	3
640.963	1	-4
641.132	1	8
641.302	1	-5
641.472	1	0
641.641	1	-10
641.811	1	4
641.980	1	8
642.150	1	-2
642.319	1	-7
642.489	1	0
642.659	1	-3
642.828	1	-1
642.998	1	8
643.167	1	-6
643.337	1	7
643.506	1	-10
643.676	1	1
643.845	1	-3
644.015	1	1
644.184	1	-3
644.354	1	3
644.524	1	-10
644.693	1	9
644.863	1	-3
645.032	1	3
645.202	1	-3
645.371	1	-2
645.541	1	0
645.710	1	-4
645.880	1	1
646.049	1	-5
646.219	1	4
646.388	1	8
646.558	1	-5
646.728	1	2
646.897	1	0
647.067	1	-6
647.236	1	1
647.406	1	-6
647.575	1	1
647.745	1	4
647.914	1	0
648.084	1	-4
648.253	1	6
648.423	1	3
648.592	1	-14
648.762	1	4
648.931	1	8
649.101	1	-2
649.270	1	-4
649.440	1	-3
649.610	1	-3
649.779	1	-2
649.949	1	0
650.118	1	10
650.288	1	9
650.457	1	6
650.627	1	-4
650.796	1	4
650.966	1	4
651.135	1	-3
651.305	1	-8
651.474	1	1
651.644	1	10
651.813	1	-1
651.983	1	-3
652.152	1	2
652.322	1	-5
652.491	1	-9
652.661	1	0
652.830	1	-2
653.000	1	-3
653.169	1	0
653.339	1	8
653.508	1	1
653.678	1	0
653.847	1	2
654.017	1	-4
654.186	1	-1
654.356	1	-1
654.525	1	7
654.695	1	7
654.864	1	1
655.034	1	9
655.203	1	-9
655.373	1	7
655.542	1	-3
655.712	1	4
655.881	1	2
656.051	1	2
656.220	1	2
656.390	1	-8
656.559	1	-1
656.729	1	12
656.898	1	-11
657.068	1	-7
657.237	1	-4
657.406	1	9
657.576	1	8
657.745	1	-5
657.915	1	-4
658.084	1	-2
658.254	1	-10
658.423	1	4
658.593	1	2
658.762	1	6
658.932	1	6
659.101	1	6
659.271	1	3
659.440	1	-4
659.610	1	-7
659.779	1	6
659.949	1	2
660.118	1	5
660.288	1	11
660.457	1	-4
660.626	1	3
660.796	1	-21
660.965	1	5
661.135	1	-6
661.304	1	-4
661.474	1	6
661.643	1	0
661.813	1	8
661.982	1	9
662.152	1	2
662.321	1	0
662.491	1	2
662.660	1	2
662.829	1	-3
662.999	1	-5
663.168	1	3
663.338	1	6
663.507	1	14
663.677	1	3
663.846	1	1
664.016	1	-8
664.185	1	4
664.354	1	5
664.524	1	-6
664.693	1	7
664.863	1	5
665.032	1	-1
665.202	1	8
665.371	1	-4
665.541	1	-6
665.710	1	-13
665.879	1	1
666.049	1	-5
666.218	1	-8
666.388	1	13
666.557	1	-2
666.727	1	4
666.896	1	2
667.065	1	2
667.235	1	1
667.404	1	2
667.574	1	4
667.743	1	-2
667.913	1	-7
668.082	1	-4
668.251	1	-7
668.421	1	-6
668.590	1	1
668.760	1	-6
668.929	1	-7
669.099	1	-1
669.268	1	-2
669.437	1	-5
669.607	1	4
669.776	1	-4
669.946	1	3
670.115	1	-8
670.285	1	2
670.454	1	-1
670.623	1	-7
670.793	1	0
670.962	1	3
671.132	1	14
671.301	1	-3
671.470	1	-6
671.640	1	2
671.809	1	-12
671.979	1	-6
672.148	1	-4
672.317	1	1
672.487	1	4
672.656	1	0
672.826	1	-1
672.995	1	6
673.164	1	-3
673.334	1	-3
673.503	1	1
673.673	1	5
673.842	1	-7
674.011	1	3
674.181	1	5
674.350	1	8
674.520	1	3
674.689	1	3
674.858	1	3
675.028	1	-6
675.197	1	-15
675.367	1	-1
675.536	1	-3
675.705	1	7
675.875	1	-1
676.044	1	3
676.214	1	0
676.383	1	5
676.552	1	10
676.722	1	4
676.891	1	7
677.060	1	2
677.230	1	-4
677.399	1	0
677.569	1	-6
677.738	1	-2
677.907	1	-1
678.077	1	9
678.246	1	-1
678.416	1	-7
678.585	1	-5
678.754	1	-6
678.924	1	2
679.093	1	9
679.262	1	-5
679.432	1	-8
679.601	1	-4
679.771	1	5
679.940	1	-6
680.109	1	2
680.279	1	-9
680.448	1	10
680.617	1	0
680.787	1	-4
680.956	1	-1
681.125	1	9
681.295	1	-1
681.464	1	-1
681.634	1	-4
681.803	1	0
681.972	1	-7
682.142	1	14
682.311	1	3
682.480	1	10
682.650	1	7
682.819	1	-1
682.988	1	0
683.158	1	-3
683.327	1	-12
683.496	1	1
683.666	1	-10
683.835	1	0
684.004	1	-2
684.174	1	6
684.343	1	-14
684.512	1	8
684.682	1	-1
684.851	1	4
685.021	1	-4
685.190	1	-5
685.359	1	5
685.529	1	5
685.698	1	6
685.867	1	-2
686.037	1	5
686.206	1	0
686.375	1	5
686.545	1	-4
686.714	1	-3
686.883	1	0
687.053	1	-3
687.222	1	1
687.391	1	0
687.561	1	11
687.730	1	1
687.899	1	2
688.069	1	0
688.238	1	8
688.407	1	1
688.577	1	-7
688.746	1	0
