340.368	1	10
340.539	1	-14
340.710	1	-6
340.881	1	-10
341.052	1	0
341.223	1	8
341.394	1	4
341.565	1	-3
341.737	1	16
341.908	1	2
342.079	1	-7
342.250	1	-6
342.421	1	5
342.592	1	2
342.763	1	11
342.934	1	-2
343.105	1	10
343.276	1	1
343.447	1	-2
343.618	1	2
343.789	1	0
343.960	1	9
344.131	1	-1
344.302	1	2
344.473	1	3
344.644	1	11
344.815	1	2
344.986	1	4
345.157	1	2
345.328	1	12
345.499	1	4
345.670	1	0
345.841	1	7
346.012	1	10
346.183	1	-1
346.354	1	4
346.526	1	-7
346.697	1	2
346.868	1	6
347.039	1	6
347.210	1	-9
347.381	1	-4
347.552	1	-1
347.723	1	1
347.894	1	4
348.065	1	9
348.236	1	15
348.407	1	3
348.578	1	4
348.749	1	4
348.920	1	3
349.091	1	-16
349.262	1	-3
349.433	1	6
349.604	1	2
349.775	1	13
349.946	1	3
350.117	1	10
350.288	1	21
350.459	1	0
350.630	1	11
350.801	1	8
350.972	1	11
351.143	1	12
351.314	1	7
351.485	1	1
351.656	1	10
351.827	1	10
351.998	1	14
352.169	1	10
352.340	1	13
352.511	1	5
352.682	1	10
352.853	1	4
353.024	1	14
353.195	1	9
353.366	1	25
353.537	1	12
353.708	1	15
353.879	1	15
354.050	1	3
354.221	1	9
354.392	1	8
354.563	1	1
354.734	1	24
354.905	1	14
355.076	1	16
355.247	1	12
355.418	1	4
355.589	1	10
355.760	1	14
355.931	1	8
356.102	1	23
356.273	1	5
356.444	1	13
356.615	1	18
356.785	1	24
356.956	1	17
357.127	1	7
357.298	1	14
357.469	1	21
357.640	1	18
357.811	1	12
357.982	1	15
358.153	1	24
358.324	1	17
358.495	1	13
358.666	1	18
358.837	1	15
359.008	1	19
359.179	1	18
359.350	1	24
359.521	1	37
359.692	1	23
359.863	1	26
360.034	1	25
360.205	1	20
360.376	1	32
360.547	1	35
360.718	1	36
360.889	1	33
361.060	1	30
361.231	1	35
361.401	1	43
361.572	1	34
361.743	1	29
361.914	1	46
362.085	1	56
362.256	1	53
362.427	1	64
362.598	1	50
362.769	1	55
362.940	1	54
363.111	1	51
363.282	1	62
363.453	1	56
363.624	1	62
363.795	1	70
363.966	1	61
364.137	1	83
364.308	1	68
364.478	1	77
364.649	1	87
364.820	1	83
364.991	1	90
365.162	1	100
365.333	1	89
365.504	1	110
365.675	1	93
365.846	1	121
366.017	1	101
366.188	1	121
366.359	1	111
366.530	1	106
366.701	1	128
366.871	1	124
367.042	1	138
367.213	1	139
367.384	1	148
367.555	1	140
367.726	1	148
367.897	1	157
368.068	1	153
368.239	1	155
368.410	1	181
368.581	1	173
368.752	1	148
368.923	1	177
369.093	1	170
369.264	1	167
369.435	1	164
369.606	1	181
369.777	1	175
369.948	1	175
370.119	1	178
370.290	1	177
370.461	1	183
370.632	1	179
370.803	1	170
370.973	1	168
371.144	1	168
371.315	1	166
371.486	1	154
371.657	1	164
371.828	1	158
371.999	1	152
372.170	1	150
372.341	1	151
372.512	1	134
372.682	1	142
372.853	1	135
373.024	1	142
373.195	1	127
373.366	1	125
373.537	1	131
373.708	1	125
373.879	1	117
374.050	1	116
374.220	1	127
374.391	1	103
374.562	1	109
374.733	1	109
374.904	1	99
375.075	1	100
375.246	1	101
375.417	1	86
375.588	1	109
375.758	1	97
375.929	1	96
376.100	1	93
376.271	1	98
376.442	1	83
376.613	1	79
376.784	1	79
376.955	1	73
377.125	1	78
377.296	1	72
377.467	1	76
377.638	1	74
377.809	1	75
377.980	1	72
378.151	1	66
378.321	1	57
378.492	1	54
378.663	1	60
378.834	1	65
379.005	1	68
379.176	1	52
379.347	1	55
379.518	1	54
379.688	1	64
379.859	1	46
380.030	1	50
380.201	1	48
380.372	1	48
380.543	1	46
380.714	1	55
380.884	1	47
381.055	1	61
381.226	1	35
381.397	1	36
381.568	1	61
381.739	1	54
381.910	1	49
382.080	1	37
382.251	1	37
382.422	1	36
382.593	1	39
382.764	1	29
382.935	1	36
383.105	1	40
383.276	1	39
383.447	1	42
383.618	1	41
383.789	1	37
383.960	1	33
384.130	1	29
384.301	1	37
384.472	1	32
384.643	1	43
384.814	1	23
384.985	1	29
385.156	1	25
385.326	1	42
385.497	1	30
385.668	1	33
385.839	1	30
386.010	1	34
386.180	1	26
386.351	1	28
386.522	1	40
386.693	1	21
386.864	1	26
387.035	1	28
387.205	1	18
387.376	1	28
387.547	1	23
387.718	1	27
387.889	1	24
388.060	1	35
388.230	1	32
388.401	1	20
388.572	1	19
388.743	1	32
388.914	1	22
389.084	1	13
389.255	1	25
389.426	1	19
389.597	1	27
389.768	1	19
389.939	1	20
390.109	1	24
390.280	1	17
390.451	1	2
390.622	1	21
390.793	1	3
390.963	1	23
391.134	1	31
391.305	1	15
391.476	1	14
391.647	1	17
391.817	1	20
391.988	1	19
392.159	1	10
392.330	1	22
392.501	1	24
392.671	1	12
392.842	1	5
393.013	1	25
393.184	1	16
393.355	1	18
393.525	1	14
393.696	1	20
393.867	1	10
394.038	1	14
394.208	1	13
394.379	1	23
394.550	1	16
394.721	1	8
394.892	1	3
395.062	1	14
395.233	1	8
395.404	1	7
395.575	1	16
395.746	1	20
395.916	1	20
396.087	1	7
396.258	1	9
396.429	1	16
396.599	1	7
396.770	1	4
396.941	1	9
397.112	1	9
397.283	1	19
397.453	1	20
397.624	1	9
397.795	1	13
397.966	1	15
398.136	1	1
398.307	1	16
398.478	1	15
398.649	1	0
398.819	1	10
398.990	1	-1
399.161	1	25
399.332	1	17
399.503	1	8
399.673	1	7
399.844	1	9
400.015	1	7
400.186	1	12
400.356	1	1
400.527	1	7
400.698	1	9
400.869	1	3
401.039	1	15
401.210	1	11
401.381	1	9
401.552	1	-2
401.722	1	4
401.893	1	-8
402.064	1	3
402.235	1	3
402.405	1	3
402.576	1	4
402.747	1	-1
402.918	1	13
403.088	1	9
403.259	1	18
403.430	1	-1
403.601	1	-4
403.771	1	5
403.942	1	16
404.113	1	0
404.284	1	10
404.454	1	9
404.625	1	12
404.796	1	16
404.967	1	2
405.137	1	19
405.308	1	2
405.479	1	8
405.649	1	6
405.820	1	0
405.991	1	-2
406.162	1	4
406.332	1	11
406.503	1	12
406.674	1	7
406.845	1	12
407.015	1	13
407.186	1	11
407.357	1	0
407.527	1	-2
407.698	1	10
407.869	1	2
408.040	1	1
408.210	1	6
408.381	1	4
408.552	1	2
408.722	1	-7
408.893	1	7
409.064	1	2
409.235	1	-2
409.405	1	11
409.576	1	6
409.747	1	1
409.917	1	2
410.088	1	7
410.259	1	1
410.430	1	8
410.600	1	3
410.771	1	12
410.942	1	8
411.112	1	6
411.283	1	13
411.454	1	4
411.625	1	3
411.795	1	2
411.966	1	3
412.137	1	7
412.307	1	-2
412.478	1	11
412.649	1	-1
412.819	1	4
412.990	1	11
413.161	1	7
413.332	1	14
413.502	1	3
413.673	1	10
413.844	1	-3
414.014	1	3
414.185	1	10
414.356	1	12
414.526	1	8
414.697	1	8
414.868	1	10
415.038	1	2
415.209	1	5
415.380	1	-5
415.550	1	0
415.721	1	4
415.892	1	0
416.063	1	-4
416.233	1	18
416.404	1	6
416.575	1	16
416.745	1	2
416.916	1	-1
417.087	1	3
417.257	1	-3
417.428	1	5
417.599	1	1
417.769	1	14
417.940	1	13
418.111	1	5
418.281	1	8
418.452	1	-6
418.623	1	-1
418.793	1	3
418.964	1	-7
419.135	1	-2
419.305	1	10
419.476	1	12
419.647	1	1
419.817	1	16
419.988	1	1
420.159	1	2
420.329	1	4
420.500	1	1
420.671	1	0
420.841	1	13
421.012	1	-3
421.183	1	0
421.353	1	5
421.524	1	-3
421.695	1	6
421.865	1	7
422.036	1	8
422.206	1	-2
422.377	1	6
422.548	1	-2
422.718	1	11
422.889	1	0
423.060	1	0
423.230	1	2
423.401	1	3
423.572	1	-2
423.742	1	7
423.913	1	0
424.084	1	2
424.254	1	5
424.425	1	3
424.595	1	3
424.766	1	2
424.937	1	0
425.107	1	3
425.278	1	8
425.449	1	9
425.619	1	9
425.790	1	-7
425.961	1	6
426.131	1	10
426.302	1	3
426.472	1	1
426.643	1	12
426.814	1	-1
426.984	1	4
427.155	1	-5
427.326	1	9
427.496	1	-4
427.667	1	10
427.837	1	0
428.008	1	6
428.179	1	2
428.349	1	-9
428.520	1	-2
428.691	1	8
428.861	1	-3
429.032	1	8
429.202	1	5
429.373	1	13
429.544	1	0
429.714	1	1
429.885	1	6
430.055	1	6
430.226	1	-3
430.397	1	2
430.567	1	6
430.738	1	10
430.909	1	5
431.079	1	-8
431.250	1	5
431.420	1	-5
431.591	1	14
431.762	1	9
431.932	1	-6
432.103	1	6
432.273	1	2
432.444	1	14
432.615	1	-9
432.785	1	0
432.956	1	0
433.126	1	-4
433.297	1	2
433.468	1	-3
433.638	1	7
433.809	1	-2
433.979	1	3
434.150	1	11
434.320	1	9
434.491	1	3
434.662	1	4
434.832	1	11
435.003	1	9
435.173	1	-8
435.344	1	12
435.515	1	9
435.685	1	2
435.856	1	7
436.026	1	5
436.197	1	3
436.368	1	4
436.538	1	-4
436.709	1	1
436.879	1	3
437.050	1	-6
437.220	1	7
437.391	1	7
437.562	1	-1
437.732	1	1
437.903	1	3
438.073	1	7
438.244	1	4
438.414	1	-4
438.585	1	-2
438.756	1	-10
438.926	1	0
439.097	1	-4
439.267	1	2
439.438	1	1
439.608	1	-4
439.779	1	5
439.949	1	13
440.120	1	1
440.291	1	5
440.461	1	8
440.632	1	4
440.802	1	6
440.973	1	1
441.143	1	7
441.314	1	-3
441.485	1	7
441.655	1	4
441.826	1	7
441.996	1	5
442.167	1	2
442.337	1	-2
442.508	1	-12
442.678	1	-3
442.849	1	13
443.019	1	10
443.190	1	6
443.361	1	3
443.531	1	7
443.702	1	0
443.872	1	7
444.043	1	14
444.213	1	1
444.384	1	-4
444.554	1	16
444.725	1	4
444.895	1	6
445.066	1	-2
445.237	1	1
445.407	1	11
445.578	1	-4
445.748	1	5
445.919	1	-1
446.089	1	8
446.260	1	3
446.430	1	-4
446.601	1	1
446.771	1	12
446.942	1	7
447.112	1	-6
447.283	1	2
447.453	1	-1
447.624	1	5
447.794	1	7
447.965	1	7
448.135	1	-1
448.306	1	3
448.477	1	11
448.647	1	-3
448.818	1	8
448.988	1	3
449.159	1	-2
449.329	1	8
449.500	1	-2
449.670	1	17
449.841	1	9
450.011	1	-2
450.182	1	-4
450.352	1	1
450.523	1	-4
450.693	1	-9
450.864	1	3
451.034	1	-1
451.205	1	12
451.375	1	-2
451.546	1	-1
451.716	1	1
451.887	1	-17
452.057	1	11
452.228	1	5
452.398	1	7
452.569	1	-2
452.739	1	2
452.910	1	4
453.080	1	3
453.251	1	-2
453.421	1	-5
453.592	1	7
453.762	1	7
453.933	1	3
454.103	1	-7
454.274	1	2
454.444	1	-6
454.615	1	13
454.785	1	0
454.956	1	-2
455.126	1	0
455.297	1	12
455.467	1	4
455.638	1	-3
455.808	1	9
455.979	1	-3
456.149	1	11
456.320	1	4
456.490	1	3
456.661	1	10
456.831	1	2
457.001	1	1
457.172	1	-1
457.342	1	5
457.513	1	13
457.683	1	10
457.854	1	-2
458.024	1	2
458.195	1	4
458.365	1	-5
458.536	1	6
458.706	1	2
458.877	1	6
459.047	1	10
459.218	1	1
459.388	1	2
459.559	1	4
459.729	1	7
459.899	1	-5
460.070	1	0
460.240	1	0
460.411	1	-7
460.581	1	13
460.752	1	-2
460.922	1	-3
461.093	1	4
461.263	1	1
461.434	1	6
461.604	1	3
461.775	1	0
461.945	1	5
462.115	1	2
462.286	1	2
462.456	1	1
462.627	1	13
462.797	1	-5
462.968	1	9
463.138	1	1
463.309	1	-4
463.479	1	5
463.649	1	-3
463.820	1	-2
463.990	1	10
464.161	1	7
464.331	1	1
464.502	1	3
464.672	1	-8
464.843	1	8
465.013	1	-5
465.183	1	3
465.354	1	10
465.524	1	-5
465.695	1	-5
465.865	1	4
466.036	1	-1
466.206	1	19
466.376	1	-5
466.547	1	-2
466.717	1	7
466.888	1	-2
467.058	1	0
467.229	1	4
467.399	1	6
467.569	1	13
467.740	1	-3
467.910	1	5
468.081	1	-3
468.251	1	4
468.422	1	-3
468.592	1	6
468.762	1	-1
468.933	1	2
469.103	1	-9
469.274	1	4
469.444	1	-2
469.614	1	12
469.785	1	-9
469.955	1	2
470.126	1	-5
470.296	1	5
470.467	1	0
470.637	1	-2
470.807	1	3
470.978	1	-4
471.148	1	2
471.319	1	1
471.489	1	3
471.659	1	1
471.830	1	2
472.000	1	-3
472.171	1	8
472.341	1	0
472.511	1	-6
472.682	1	-2
472.852	1	7
473.023	1	1
473.193	1	12
473.363	1	10
473.534	1	8
473.704	1	4
473.875	1	14
474.045	1	1
474.215	1	9
474.386	1	17
474.556	1	9
474.727	1	0
474.897	1	12
475.067	1	6
475.238	1	11
475.408	1	4
475.578	1	-2
475.749	1	6
475.919	1	-1
476.090	1	3
476.260	1	4
476.430	1	5
476.601	1	1
476.771	1	-1
476.942	1	8
477.112	1	-2
477.282	1	-4
477.453	1	-6
477.623	1	-10
477.793	1	8
477.964	1	2
478.134	1	-8
478.305	1	1
478.475	1	6
478.645	1	15
478.816	1	7
478.986	1	-1
479.156	1	8
479.327	1	3
479.497	1	-6
479.667	1	-2
479.838	1	1
480.008	1	5
480.179	1	9
480.349	1	7
480.519	1	9
480.690	1	7
480.860	1	-4
481.030	1	-4
481.201	1	5
481.371	1	9
481.541	1	5
481.712	1	11
481.882	1	7
482.053	1	9
482.223	1	6
482.393	1	2
482.564	1	13
482.734	1	-3
482.904	1	-4
483.075	1	0
483.245	1	6
483.415	1	2
483.586	1	1
483.756	1	4
483.926	1	5
484.097	1	7
484.267	1	0
484.437	1	7
484.608	1	6
484.778	1	8
484.948	1	-2
485.119	1	-8
485.289	1	7
485.459	1	19
485.630	1	6
485.800	1	2
485.970	1	-1
486.141	1	-1
486.311	1	3
486.481	1	12
486.652	1	13
486.822	1	4
486.992	1	11
487.163	1	2
487.333	1	10
487.503	1	0
487.674	1	13
487.844	1	10
488.014	1	11
488.185	1	7
488.355	1	-1
488.525	1	-1
488.696	1	0
488.866	1	3
489.036	1	16
489.207	1	-3
489.377	1	-8
489.547	1	11
489.718	1	13
489.888	1	-5
490.058	1	6
490.228	1	9
490.399	1	4
490.569	1	8
490.739	1	4
490.910	1	11
491.080	1	8
491.250	1	5
491.421	1	3
491.591	1	-4
491.761	1	4
491.932	1	2
492.102	1	11
492.272	1	7
492.442	1	10
492.613	1	10
492.783	1	8
492.953	1	-4
493.124	1	6
493.294	1	4
493.464	1	16
493.635	1	8
493.805	1	1
493.975	1	-7
494.145	1	5
494.316	1	8
494.486	1	11
494.656	1	-1
494.827	1	13
494.997	1	16
495.167	1	6
495.337	1	20
495.508	1	8
495.678	1	8
495.848	1	15
496.019	1	4
496.189	1	10
496.359	1	-3
496.529	1	0
496.700	1	9
496.870	1	6
497.040	1	2
497.211	1	5
497.381	1	-2
497.551	1	9
497.721	1	8
497.892	1	6
498.062	1	-1
498.232	1	-1
498.403	1	9
498.573	1	-3
498.743	1	8
498.913	1	5
499.084	1	10
499.254	1	5
499.424	1	-2
499.594	1	6
499.765	1	9
499.935	1	7
500.105	1	6
500.275	1	6
500.446	1	0
500.616	1	6
500.786	1	9
500.956	1	5
501.127	1	6
501.297	1	2
501.467	1	3
501.638	1	6
501.808	1	11
501.978	1	6
502.148	1	9
502.319	1	4
502.489	1	18
502.659	1	14
502.829	1	2
503.000	1	0
503.170	1	19
503.340	1	11
503.510	1	14
503.681	1	4
503.851	1	-2
504.021	1	15
504.191	1	18
504.362	1	4
504.532	1	11
504.702	1	3
504.872	1	14
505.042	1	1
505.213	1	14
505.383	1	11
505.553	1	2
505.723	1	9
505.894	1	7
506.064	1	15
506.234	1	13
506.404	1	15
506.575	1	11
506.745	1	19
506.915	1	11
507.085	1	1
507.256	1	11
507.426	1	11
507.596	1	13
507.766	1	9
507.936	1	8
508.107	1	15
508.277	1	6
508.447	1	19
508.617	1	8
508.788	1	29
508.958	1	0
509.128	1	22
509.298	1	2
509.468	1	15
509.639	1	2
509.809	1	9
509.979	1	4
510.149	1	4
510.319	1	18
510.490	1	0
510.660	1	5
510.830	1	11
511.000	1	7
511.171	1	1
511.341	1	16
511.511	1	13
511.681	1	15
511.851	1	8
512.022	1	3
512.192	1	8
512.362	1	12
512.532	1	13
512.702	1	5
512.873	1	16
513.043	1	23
513.213	1	14
513.383	1	-2
513.553	1	1
513.724	1	12
513.894	1	-8
514.064	1	25
514.234	1	17
514.404	1	4
514.575	1	10
514.745	1	5
514.915	1	1
515.085	1	9
515.255	1	9
515.425	1	10
515.596	1	13
515.766	1	1
515.936	1	11
516.106	1	9
516.276	1	-1
516.447	1	25
516.617	1	15
516.787	1	23
516.957	1	6
517.127	1	20
517.297	1	5
517.468	1	3
517.638	1	5
517.808	1	12
517.978	1	13
518.148	1	16
518.319	1	19
518.489	1	12
518.659	1	-11
518.829	1	23
518.999	1	17
519.169	1	15
519.340	1	21
519.510	1	10
519.680	1	17
519.850	1	13
520.020	1	17
520.190	1	9
520.361	1	10
520.531	1	14
520.701	1	18
520.871	1	11
521.041	1	20
521.211	1	2
521.382	1	5
521.552	1	15
521.722	1	14
521.892	1	10
522.062	1	13
522.232	1	7
522.402	1	26
522.573	1	13
522.743	1	17
522.913	1	14
523.083	1	18
523.253	1	13
523.423	1	21
523.593	1	3
523.764	1	8
523.934	1	14
524.104	1	13
524.274	1	12
524.444	1	14
524.614	1	10
524.784	1	15
524.955	1	4
525.125	1	16
525.295	1	24
525.465	1	20
525.635	1	5
525.805	1	8
525.975	1	15
526.146	1	6
526.316	1	22
526.486	1	14
526.656	1	9
526.826	1	20
526.996	1	25
527.166	1	7
527.337	1	4
527.507	1	17
527.677	1	23
527.847	1	16
528.017	1	9
528.187	1	14
528.357	1	17
528.527	1	16
528.698	1	15
528.868	1	10
529.038	1	22
529.208	1	8
529.378	1	21
529.548	1	9
529.718	1	18
529.888	1	23
530.058	1	20
530.229	1	17
530.399	1	27
530.569	1	11
530.739	1	14
530.909	1	-1
531.079	1	19
531.249	1	14
531.419	1	18
531.589	1	24
531.760	1	21
531.930	1	24
532.100	1	10
532.270	1	8
532.440	1	19
532.610	1	6
532.780	1	6
532.950	1	12
533.120	1	24
533.290	1	18
533.461	1	15
533.631	1	23
533.801	1	26
533.971	1	5
534.141	1	10
534.311	1	18
534.481	1	10
534.651	1	12
534.821	1	23
534.991	1	20
535.162	1	13
535.332	1	12
535.502	1	12
535.672	1	24
535.842	1	21
536.012	1	9
536.182	1	18
536.352	1	5
536.522	1	0
536.692	1	17
536.862	1	30
537.032	1	26
537.203	1	8
537.373	1	20
537.543	1	15
537.713	1	15
537.883	1	11
538.053	1	9
538.223	1	16
538.393	1	27
538.563	1	13
538.733	1	16
538.903	1	9
539.073	1	17
539.243	1	7
539.413	1	11
539.584	1	8
539.754	1	25
539.924	1	15
540.094	1	17
540.264	1	12
540.434	1	21
540.604	1	18
540.774	1	19
540.944	1	14
541.114	1	7
541.284	1	15
541.454	1	13
541.624	1	26
541.794	1	9
541.964	1	24
542.134	1	14
542.305	1	19
542.475	1	20
542.645	1	20
542.815	1	11
542.985	1	22
543.155	1	12
543.325	1	19
543.495	1	11
543.665	1	29
543.835	1	18
544.005	1	24
544.175	1	2
544.345	1	17
544.515	1	16
544.685	1	18
544.855	1	15
545.025	1	19
545.195	1	3
545.365	1	16
545.535	1	26
545.705	1	9
545.875	1	10
546.045	1	7
546.216	1	23
546.386	1	16
546.556	1	5
546.726	1	11
546.896	1	13
547.066	1	28
547.236	1	12
547.406	1	14
547.576	1	28
547.746	1	1
547.916	1	10
548.086	1	15
548.256	1	17
548.426	1	13
548.596	1	17
548.766	1	18
548.936	1	20
549.106	1	16
549.276	1	19
549.446	1	12
549.616	1	13
549.786	1	17
549.956	1	28
550.126	1	31
550.296	1	18
550.466	1	17
550.636	1	30
550.806	1	22
550.976	1	25
551.146	1	22
551.316	1	32
551.486	1	10
551.656	1	29
551.826	1	26
551.996	1	27
552.166	1	26
552.336	1	28
552.506	1	17
552.676	1	36
552.846	1	23
553.016	1	30
553.186	1	27
553.356	1	35
553.526	1	15
553.696	1	29
553.866	1	17
554.036	1	22
554.206	1	29
554.376	1	12
554.546	1	25
554.716	1	31
554.886	1	18
555.056	1	26
555.226	1	13
555.396	1	12
555.566	1	23
555.736	1	17
555.906	1	20
556.076	1	17
556.246	1	13
556.416	1	12
556.586	1	19
556.756	1	20
556.926	1	25
557.096	1	24
557.266	1	15
557.436	1	24
557.606	1	20
557.776	1	13
557.946	1	29
558.116	1	17
558.286	1	19
558.456	1	17
558.626	1	15
558.796	1	21
558.966	1	18
559.136	1	13
559.306	1	5
559.476	1	18
559.646	1	8
559.816	1	16
559.986	1	16
560.155	1	21
560.325	1	8
560.495	1	16
560.665	1	19
560.835	1	12
561.005	1	10
561.175	1	15
561.345	1	13
561.515	1	14
561.685	1	20
561.855	1	8
562.025	1	17
562.195	1	21
562.365	1	25
562.535	1	16
562.705	1	12
562.875	1	18
563.045	1	11
563.215	1	22
563.385	1	6
563.555	1	17
563.725	1	15
563.895	1	21
564.064	1	14
564.234	1	14
564.404	1	14
564.574	1	17
564.744	1	9
564.914	1	17
565.084	1	18
565.254	1	35
565.424	1	22
565.594	1	21
565.764	1	19
565.934	1	19
566.104	1	19
566.274	1	4
566.444	1	13
566.614	1	15
566.783	1	15
566.953	1	26
567.123	1	27
567.293	1	24
567.463	1	22
567.633	1	27
567.803	1	5
567.973	1	12
568.143	1	23
568.313	1	20
568.483	1	19
568.653	1	23
568.823	1	22
568.993	1	18
569.162	1	31
569.332	1	22
569.502	1	20
569.672	1	26
569.842	1	15
570.012	1	23
570.182	1	25
570.352	1	10
570.522	1	14
570.692	1	22
570.862	1	18
571.031	1	21
571.201	1	15
571.371	1	17
571.541	1	22
571.711	1	31
571.881	1	31
572.051	1	11
572.221	1	9
572.391	1	6
572.561	1	17
572.731	1	12
572.900	1	9
573.070	1	15
573.240	1	18
573.410	1	25
573.580	1	14
573.750	1	15
573.920	1	31
574.090	1	16
574.260	1	26
574.430	1	23
574.599	1	18
574.769	1	11
574.939	1	19
575.109	1	20
575.279	1	27
575.449	1	14
575.619	1	18
575.789	1	20
575.959	1	2
576.128	1	10
576.298	1	24
576.468	1	22
576.638	1	-2
576.808	1	12
576.978	1	23
577.148	1	19
577.318	1	29
577.487	1	15
577.657	1	13
577.827	1	21
577.997	1	10
578.167	1	15
578.337	1	35
578.507	1	20
578.677	1	23
578.846	1	26
579.016	1	23
579.186	1	25
579.356	1	21
579.526	1	11
579.696	1	27
579.866	1	25
580.036	1	12
580.205	1	28
580.375	1	30
580.545	1	16
580.715	1	25
580.885	1	17
581.055	1	17
581.225	1	21
581.394	1	10
581.564	1	21
581.734	1	9
581.904	1	29
582.074	1	6
582.244	1	9
582.414	1	19
582.583	1	27
582.753	1	11
582.923	1	15
583.093	1	15
583.263	1	20
583.433	1	14
583.603	1	23
583.772	1	24
583.942	1	18
584.112	1	15
584.282	1	9
584.452	1	17
584.622	1	17
584.791	1	21
584.961	1	19
585.131	1	19
585.301	1	19
585.471	1	21
585.641	1	13
585.811	1	27
585.980	1	16
586.150	1	18
586.320	1	13
586.490	1	17
586.660	1	22
586.830	1	15
586.999	1	13
587.169	1	6
587.339	1	22
587.509	1	11
587.679	1	25
587.849	1	20
588.018	1	16
588.188	1	23
588.358	1	9
588.528	1	19
588.698	1	17
588.867	1	18
589.037	1	21
589.207	1	20
589.377	1	25
589.547	1	7
589.717	1	17
589.886	1	15
590.056	1	15
590.226	1	18
590.396	1	20
590.566	1	17
590.735	1	6
590.905	1	17
591.075	1	17
591.245	1	14
591.415	1	12
591.585	1	20
591.754	1	18
591.924	1	13
592.094	1	6
592.264	1	30
592.434	1	19
592.603	1	18
592.773	1	13
592.943	1	24
593.113	1	10
593.283	1	12
593.452	1	15
593.622	1	9
593.792	1	27
593.962	1	14
594.132	1	15
594.301	1	23
594.471	1	29
594.641	1	5
594.811	1	16
594.981	1	5
595.150	1	14
595.320	1	15
595.490	1	31
595.660	1	12
595.829	1	10
595.999	1	6
596.169	1	13
596.339	1	13
596.509	1	7
596.678	1	6
596.848	1	11
597.018	1	9
597.188	1	7
597.358	1	16
597.527	1	2
597.697	1	13
597.867	1	10
598.037	1	13
598.206	1	16
598.376	1	17
598.546	1	29
598.716	1	18
598.885	1	9
599.055	1	23
599.225	1	0
599.395	1	9
599.565	1	4
599.734	1	10
599.904	1	10
600.074	1	8
600.244	1	6
600.413	1	30
600.583	1	18
600.753	1	19
600.923	1	27
601.092	1	16
601.262	1	13
601.432	1	10
601.602	1	22
601.771	1	24
601.941	1	10
602.111	1	21
602.281	1	23
602.451	1	13
602.620	1	6
602.790	1	1
602.960	1	22
603.130	1	21
603.299	1	9
603.469	1	16
603.639	1	3
603.809	1	20
603.978	1	21
604.148	1	5
604.318	1	10
604.487	1	3
604.657	1	12
604.827	1	16
604.997	1	16
605.166	1	15
605.336	1	18
605.506	1	16
605.676	1	1
605.845	1	18
606.015	1	8
606.185	1	15
606.355	1	15
606.524	1	4
606.694	1	12
606.864	1	16
607.034	1	11
607.203	1	9
607.373	1	19
607.543	1	11
607.712	1	3
607.882	1	20
608.052	1	4
608.222	1	14
608.391	1	22
608.561	1	20
608.731	1	17
608.901	1	13
609.070	1	14
609.240	1	19
609.410	1	13
609.579	1	25
609.749	1	24
609.919	1	15
610.089	1	8
610.258	1	35
610.428	1	18
610.598	1	12
610.767	1	26
610.937	1	9
611.107	1	6
611.277	1	15
611.446	1	13
611.616	1	15
611.786	1	21
611.955	1	16
612.125	1	14
612.295	1	11
612.465	1	25
612.634	1	16
612.804	1	15
612.974	1	-6
613.143	1	15
613.313	1	14
613.483	1	15
613.652	1	18
613.822	1	10
613.992	1	12
614.162	1	27
614.331	1	14
614.501	1	1
614.671	1	15
614.840	1	10
615.010	1	2
615.180	1	10
615.349	1	14
615.519	1	14
615.689	1	15
615.858	1	23
616.028	1	4
616.198	1	12
616.368	1	12
616.537	1	9
616.707	1	7
616.877	1	18
617.046	1	11
617.216	1	9
617.386	1	18
617.555	1	5
617.725	1	15
617.895	1	6
618.064	1	2
618.234	1	1
618.404	1	3
618.573	1	9
618.743	1	16
618.913	1	15
619.082	1	11
619.252	1	12
619.422	1	8
619.591	1	6
619.761	1	16
619.931	1	20
620.100	1	18
620.270	1	3
620.440	1	10
620.609	1	15
620.779	1	8
620.949	1	8
621.118	1	6
621.288	1	17
621.458	1	6
621.627	1	18
621.797	1	8
621.967	1	18
622.136	1	22
622.306	1	2
622.476	1	13
622.645	1	16
622.815	1	20
622.985	1	7
623.154	1	13
623.324	1	11
623.494	1	17
623.663	1	15
623.833	1	24
624.002	1	5
624.172	1	13
624.342	1	18
624.511	1	0
624.681	1	17
624.851	1	1
625.020	1	10
625.190	1	18
625.360	1	16
625.529	1	9
625.699	1	0
625.869	1	19
626.038	1	9
626.208	1	10
626.377	1	14
626.547	1	10
626.717	1	9
626.886	1	14
627.056	1	-3
627.226	1	15
627.395	1	18
627.565	1	-3
627.735	1	19
627.904	1	6
628.074	1	12
628.243	1	14
628.413	1	23
628.583	1	8
628.752	1	5
628.922	1	12
629.091	1	7
629.261	1	6
629.431	1	10
629.600	1	16
629.770	1	-10
629.940	1	14
630.109	1	3
630.279	1	5
630.448	1	0
630.618	1	5
630.788	1	19
630.957	1	13
631.127	1	18
631.297	1	12
631.466	1	12
631.636	1	-6
631.805	1	13
631.975	1	22
632.145	1	11
632.314	1	8
632.484	1	10
632.653	1	11
632.823	1	5
632.993	1	8
633.162	1	12
633.332	1	5
633.501	1	12
633.671	1	5
633.841	1	4
634.010	1	2
634.180	1	15
634.349	1	20
634.519	1	-1
634.689	1	10
634.858	1	3
635.028	1	11
635.197	1	19
635.367	1	10
635.537	1	-2
635.706	1	10
635.876	1	1
636.045	1	14
636.215	1	12
636.384	1	9
636.554	1	16
636.724	1	7
636.893	1	5
637.063	1	-1
637.232	1	2
637.402	1	10
637.572	1	6
637.741	1	10
637.911	1	16
638.080	1	13
638.250	1	16
638.419	1	-2
638.589	1	11
638.759	1	6
638.928	1	1
639.098	1	4
639.267	1	15
639.437	1	16
639.606	1	13
639.776	1	5
639.946	1	11
640.115	1	6
640.285	1	5
640.454	1	5
640.624	1	8
640.793	1	12
640.963	1	9
641.132	1	16
641.302	1	4
641.472	1	19
641.641	1	2
641.811	1	9
641.980	1	15
642.150	1	5
642.319	1	5
642.489	1	19
642.659	1	10
642.828	1	-2
642.998	1	12
643.167	1	0
643.337	1	5
643.506	1	5
643.676	1	18
643.845	1	9
644.015	1	9
644.184	1	10
644.354	1	8
644.524	1	8
644.693	1	13
644.863	1	12
645.032	1	7
645.202	1	12
645.371	1	9
645.541	1	6
645.710	1	12
645.880	1	13
646.049	1	2
646.219	1	11
646.388	1	10
646.558	1	10
646.728	1	11
646.897	1	10
647.067	1	12
647.236	1	7
647.406	1	3
647.575	1	13
647.745	1	3
647.914	1	5
648.084	1	3
648.253	1	16
648.423	1	7
648.592	1	5
648.762	1	6
648.931	1	17
649.101	1	8
649.270	1	6
649.440	1	10
649.610	1	13
649.779	1	5
649.949	1	4
650.118	1	13
650.288	1	13
650.457	1	13
650.627	1	8
650.796	1	10
650.966	1	14
651.135	1	-9
651.305	1	9
651.474	1	6
651.644	1	23
651.813	1	11
651.983	1	13
652.152	1	-2
652.322	1	8
652.491	1	2
652.661	1	0
652.830	1	14
653.000	1	10
653.169	1	11
653.339	1	16
653.508	1	10
653.678	1	4
653.847	1	8
654.017	1	3
654.186	1	-1
654.356	1	-1
654.525	1	6
654.695	1	9
654.864	1	4
655.034	1	6
655.203	1	-2
655.373	1	19
655.542	1	1
655.712	1	6
655.881	1	5
656.051	1	14
656.220	1	-4
656.390	1	5
656.559	1	7
656.729	1	20
656.898	1	1
657.068	1	8
657.237	1	-6
657.406	1	15
657.576	1	1
657.745	1	13
657.915	1	8
658.084	1	7
658.254	1	-5
658.423	1	16
658.593	1	13
658.762	1	0
658.932	1	5
659.101	1	12
659.271	1	8
659.440	1	6
659.610	1	-1
659.779	1	11
659.949	1	1
660.118	1	11
660.288	1	11
660.457	1	2
660.626	1	15
660.796	1	-4
660.965	1	14
661.135	1	6
661.304	1	5
661.474	1	7
661.643	1	9
661.813	1	21
661.982	1	14
662.152	1	11
662.321	1	6
662.491	1	0
662.660	1	5
662.829	1	-2
662.999	1	-3
663.168	1	5
663.338	1	14
663.507	1	7
663.677	1	13
663.846	1	1
664.016	1	10
664.185	1	9
664.354	1	13
664.524	1	10
664.693	1	16
664.863	1	8
665.032	1	2
665.202	1	10
665.371	1	15
665.541	1	-10
665.710	1	9
665.879	1	-6
666.049	1	9
666.218	1	7
666.388	1	18
666.557	1	4
666.727	1	8
666.896	1	-4
667.065	1	17
667.235	1	17
667.404	1	8
667.574	1	5
667.743	1	3
667.913	1	3
668.082	1	-1
668.251	1	5
668.421	1	2
668.590	1	8
668.760	1	-1
668.929	1	-6
669.099	1	5
669.268	1	7
669.437	1	9
669.607	1	3
669.776	1	4
669.946	1	7
670.115	1	13
670.285	1	6
670.454	1	3
670.623	1	5
670.793	1	8
670.962	1	2
671.132	1	10
671.301	1	6
671.470	1	10
671.640	1	7
671.809	1	1
671.979	1	11
672.148	1	7
672.317	1	7
672.487	1	8
672.656	1	4
672.826	1	13
672.995	1	4
673.164	1	19
673.334	1	6
673.503	1	11
673.673	1	5
673.842	1	13
674.011	1	4
674.181	1	14
674.350	1	2
674.520	1	2
674.689	1	4
674.858	1	9
675.028	1	3
675.197	1	-1
675.367	1	3
675.536	1	12
675.705	1	5
675.875	1	9
676.044	1	5
676.214	1	-2
676.383	1	11
676.552	1	3
676.722	1	4
676.891	1	20
677.060	1	5
677.230	1	1
677.399	1	4
677.569	1	1
677.738	1	12
677.907	1	15
678.077	1	11
678.246	1	5
678.416	1	11
678.585	1	4
678.754	1	11
678.924	1	9
679.093	1	14
679.262	1	5
679.432	1	-3
679.601	1	0
679.771	1	3
679.940	1	7
680.109	1	12
680.279	1	8
680.448	1	7
680.617	1	8
680.787	1	6
680.956	1	5
681.125	1	8
681.295	1	15
681.464	1	12
681.634	1	14
681.803	1	4
681.972	1	-4
682.142	1	15
682.311	1	12
682.480	1	12
682.650	1	14
682.819	1	8
682.988	1	4
683.158	1	10
683.327	1	13
683.496	1	7
683.666	1	8
683.835	1	5
684.004	1	12
684.174	1	2
684.343	1	0
684.512	1	8
684.682	1	4
684.851	1	10
685.021	1	5
685.190	1	1
685.359	1	15
685.529	1	8
685.698	1	25
685.867	1	10
686.037	1	7
686.206	1	5
686.375	1	14
686.545	1	-6
686.714	1	8
686.883	1	11
687.053	1	18
687.222	1	13
687.391	1	-1
687.561	1	13
687.730	1	8
687.899	1	3
688.069	1	15
688.238	1	12
688.407	1	9
688.577	1	8
688.746	1	5
