340.368	1	9
340.539	1	3
340.710	1	5
340.881	1	3
341.052	1	9
341.223	1	2
341.394	1	8
341.565	1	-6
341.737	1	9
341.908	1	0
342.079	1	5
342.250	1	-3
342.421	1	3
342.592	1	10
342.763	1	3
342.934	1	4
343.105	1	12
343.276	1	7
343.447	1	-3
343.618	1	3
343.789	1	11
343.960	1	6
344.131	1	7
344.302	1	3
344.473	1	6
344.644	1	13
344.815	1	-2
344.986	1	3
345.157	1	11
345.328	1	17
345.499	1	12
345.670	1	14
345.841	1	17
346.012	1	14
346.183	1	7
346.354	1	12
346.526	1	9
346.697	1	12
346.868	1	14
347.039	1	11
347.210	1	4
347.381	1	12
347.552	1	13
347.723	1	7
347.894	1	12
348.065	1	12
348.236	1	19
348.407	1	9
348.578	1	10
348.749	1	12
348.920	1	2
349.091	1	2
349.262	1	9
349.433	1	15
349.604	1	16
349.775	1	14
349.946	1	5
350.117	1	9
350.288	1	19
350.459	1	9
350.630	1	17
350.801	1	9
350.972	1	12
351.143	1	14
351.314	1	23
351.485	1	18
351.656	1	13
351.827	1	23
351.998	1	18
352.169	1	20
352.340	1	28
352.511	1	8
352.682	1	21
352.853	1	30
353.024	1	21
353.195	1	30
353.366	1	35
353.537	1	13
353.708	1	23
353.879	1	31
354.050	1	25
354.221	1	29
354.392	1	28
354.563	1	36
354.734	1	29
354.905	1	35
355.076	1	43
355.247	1	47
355.418	1	28
355.589	1	35
355.760	1	38
355.931	1	39
356.102	1	50
356.273	1	42
356.444	1	54
356.615	1	47
356.785	1	49
356.956	1	49
357.127	1	56
357.298	1	59
357.469	1	66
357.640	1	67
357.811	1	63
357.982	1	64
358.153	1	68
358.324	1	71
358.495	1	66
358.666	1	78
358.837	1	65
359.008	1	75
359.179	1	83
359.350	1	85
359.521	1	101
359.692	1	101
359.863	1	115
360.034	1	114
360.205	1	110
360.376	1	129
360.547	1	130
360.718	1	129
360.889	1	147
361.060	1	153
361.231	1	168
361.401	1	176
361.572	1	199
361.743	1	187
361.914	1	217
362.085	1	229
362.256	1	245
362.427	1	245
362.598	1	257
362.769	1	259
362.940	1	278
363.111	1	313
363.282	1	327
363.453	1	331
363.624	1	388
363.795	1	411
363.966	1	425
364.137	1	481
364.308	1	482
364.478	1	515
364.649	1	547
364.820	1	576
364.991	1	644
365.162	1	666
365.333	1	721
365.504	1	771
365.675	1	801
365.846	1	857
366.017	1	915
366.188	1	974
366.359	1	999
366.530	1	1079
366.701	1	1134
366.871	1	1184
367.042	1	1270
367.213	1	1326
367.384	1	1399
367.555	1	1416
367.726	1	1517
367.897	1	1575
368.068	1	1645
368.239	1	1687
368.410	1	1762
368.581	1	1762
368.752	1	1796
368.923	1	1847
369.093	1	1860
369.264	1	1916
369.435	1	1924
369.606	1	1940
369.777	1	1947
369.948	1	1903
370.119	1	1928
370.290	1	1953
370.461	1	1891
370.632	1	1883
370.803	1	1810
370.973	1	1813
371.144	1	1752
371.315	1	1756
371.486	1	1692
371.657	1	1637
371.828	1	1608
371.999	1	1574
372.170	1	1517
372.341	1	1420
372.512	1	1395
372.682	1	1370
372.853	1	1308
373.024	1	1311
373.195	1	1232
373.366	1	1195
373.537	1	1169
373.708	1	1109
373.879	1	1112
374.050	1	1070
374.220	1	1050
374.391	1	1021
374.562	1	980
374.733	1	962
374.904	1	959
375.075	1	909
375.246	1	862
375.417	1	874
375.588	1	836
375.758	1	817
375.929	1	778
376.100	1	765
376.271	1	747
376.442	1	698
376.613	1	679
376.784	1	661
376.955	1	636
377.125	1	626
377.296	1	621
377.467	1	595
377.638	1	578
377.809	1	564
377.980	1	541
378.151	1	546
378.321	1	495
378.492	1	494
378.663	1	486
378.834	1	450
379.005	1	443
379.176	1	428
379.347	1	416
379.518	1	391
379.688	1	398
379.859	1	391
380.030	1	373
380.201	1	362
380.372	1	342
380.543	1	337
380.714	1	335
380.884	1	320
381.055	1	311
381.226	1	290
381.397	1	301
381.568	1	287
381.739	1	285
381.910	1	281
382.080	1	267
382.251	1	255
382.422	1	272
382.593	1	247
382.764	1	244
382.935	1	225
383.105	1	233
383.276	1	225
383.447	1	232
383.618	1	225
383.789	1	205
383.960	1	216
384.130	1	213
384.301	1	200
384.472	1	199
384.643	1	209
384.814	1	201
384.985	1	186
385.156	1	186
385.326	1	205
385.497	1	200
385.668	1	202
385.839	1	185
386.010	1	182
386.180	1	170
386.351	1	180
386.522	1	193
386.693	1	160
386.864	1	169
387.035	1	167
387.205	1	156
387.376	1	157
387.547	1	147
387.718	1	146
387.889	1	148
388.060	1	145
388.230	1	125
388.401	1	132
388.572	1	114
388.743	1	114
388.914	1	123
389.084	1	118
389.255	1	118
389.426	1	111
389.597	1	107
389.768	1	109
389.939	1	106
390.109	1	101
390.280	1	106
390.451	1	97
390.622	1	104
390.793	1	111
390.963	1	112
391.134	1	103
391.305	1	102
391.476	1	99
391.647	1	89
391.817	1	94
391.988	1	101
392.159	1	95
392.330	1	95
392.501	1	89
392.671	1	89
392.842	1	75
393.013	1	89
393.184	1	93
393.355	1	76
393.525	1	78
393.696	1	80
393.867	1	65
394.038	1	77
394.208	1	66
394.379	1	75
394.550	1	81
394.721	1	55
394.892	1	74
395.062	1	63
395.233	1	62
395.404	1	62
395.575	1	62
395.746	1	68
395.916	1	58
396.087	1	49
396.258	1	64
396.429	1	68
396.599	1	58
396.770	1	57
396.941	1	53
397.112	1	58
397.283	1	62
397.453	1	64
397.624	1	54
397.795	1	55
397.966	1	56
398.136	1	42
398.307	1	53
398.478	1	52
398.649	1	47
398.819	1	44
398.990	1	58
399.161	1	70
399.332	1	64
399.503	1	54
399.673	1	46
399.844	1	55
400.015	1	44
400.186	1	51
400.356	1	47
400.527	1	48
400.698	1	42
400.869	1	44
401.039	1	50
401.210	1	48
401.381	1	37
401.552	1	28
401.722	1	41
401.893	1	42
402.064	1	35
402.235	1	37
402.405	1	41
402.576	1	38
402.747	1	32
402.918	1	45
403.088	1	42
403.259	1	31
403.430	1	40
403.601	1	37
403.771	1	39
403.942	1	50
404.113	1	40
404.284	1	34
404.454	1	36
404.625	1	39
404.796	1	38
404.967	1	37
405.137	1	47
405.308	1	41
405.479	1	31
405.649	1	35
405.820	1	15
405.991	1	33
406.162	1	38
406.332	1	46
406.503	1	32
406.674	1	25
406.845	1	38
407.015	1	30
407.186	1	39
407.357	1	38
407.527	1	17
407.698	1	28
407.869	1	27
408.040	1	27
408.210	1	30
408.381	1	33
408.552	1	24
408.722	1	23
408.893	1	28
409.064	1	19
409.235	1	22
409.405	1	36
409.576	1	14
409.747	1	34
409.917	1	24
410.088	1	15
410.259	1	26
410.430	1	35
410.600	1	9
410.771	1	29
410.942	1	30
411.112	1	26
411.283	1	35
411.454	1	17
411.625	1	25
411.795	1	26
411.966	1	20
412.137	1	28
412.307	1	24
412.478	1	34
412.649	1	22
412.819	1	29
412.990	1	38
413.161	1	26
413.332	1	27
413.502	1	20
413.673	1	25
413.844	1	29
414.014	1	19
414.185	1	24
414.356	1	25
414.526	1	14
414.697	1	31
414.868	1	10
415.038	1	25
415.209	1	20
415.380	1	15
415.550	1	17
415.721	1	22
415.892	1	21
416.063	1	9
416.233	1	18
416.404	1	18
416.575	1	27
416.745	1	5
416.916	1	19
417.087	1	13
417.257	1	22
417.428	1	19
417.599	1	21
417.769	1	39
417.940	1	17
418.111	1	16
418.281	1	22
418.452	1	15
418.623	1	19
418.793	1	24
418.964	1	0
419.135	1	4
419.305	1	26
419.476	1	17
419.647	1	13
419.817	1	27
419.988	1	12
420.159	1	14
420.329	1	12
420.500	1	9
420.671	1	26
420.841	1	33
421.012	1	19
421.183	1	15
421.353	1	13
421.524	1	14
421.695	1	16
421.865	1	10
422.036	1	7
422.206	1	15
422.377	1	5
422.548	1	7
422.718	1	19
422.889	1	12
423.060	1	7
423.230	1	6
423.401	1	12
423.572	1	12
423.742	1	15
423.913	1	24
424.084	1	14
424.254	1	20
424.425	1	18
424.595	1	17
424.766	1	10
424.937	1	20
425.107	1	4
425.278	1	22
425.449	1	22
425.619	1	15
425.790	1	0
425.961	1	11
426.131	1	13
426.302	1	21
426.472	1	22
426.643	1	27
426.814	1	20
426.984	1	9
427.155	1	13
427.326	1	9
427.496	1	15
427.667	1	22
427.837	1	5
428.008	1	25
428.179	1	13
428.349	1	1
428.520	1	10
428.691	1	19
428.861	1	19
429.032	1	27
429.202	1	14
429.373	1	14
429.544	1	7
429.714	1	17
429.885	1	9
430.055	1	16
430.226	1	8
430.397	1	18
430.567	1	17
430.738	1	16
430.909	1	17
431.079	1	14
431.250	1	15
431.420	1	10
431.591	1	22
431.762	1	20
431.932	1	5
432.103	1	6
432.273	1	10
432.444	1	19
432.615	1	0
432.785	1	14
432.956	1	1
433.126	1	8
433.297	1	14
433.468	1	6
433.638	1	7
433.809	1	20
433.979	1	14
434.150	1	11
434.320	1	13
434.491	1	1
434.662	1	17
434.832	1	15
435.003	1	11
435.173	1	9
435.344	1	19
435.515	1	15
435.685	1	16
435.856	1	16
436.026	1	15
436.197	1	12
436.368	1	20
436.538	1	2
436.709	1	14
436.879	1	8
437.050	1	10
437.220	1	19
437.391	1	25
437.562	1	15
437.732	1	11
437.903	1	23
438.073	1	7
438.244	1	9
438.414	1	13
438.585	1	10
438.756	1	8
438.926	1	7
439.097	1	2
439.267	1	13
439.438	1	15
439.608	1	7
439.779	1	16
439.949	1	20
440.120	1	11
440.291	1	18
440.461	1	15
440.632	1	18
440.802	1	8
440.973	1	1
441.143	1	20
441.314	1	9
441.485	1	11
441.655	1	14
441.826	1	13
441.996	1	16
442.167	1	16
442.337	1	15
442.508	1	0
442.678	1	7
442.849	1	24
443.019	1	13
443.190	1	16
443.361	1	8
443.531	1	23
443.702	1	15
443.872	1	17
444.043	1	16
444.213	1	11
444.384	1	6
444.554	1	24
444.725	1	15
444.895	1	7
445.066	1	9
445.237	1	10
445.407	1	16
445.578	1	-2
445.748	1	10
445.919	1	12
446.089	1	7
446.260	1	4
446.430	1	2
446.601	1	9
446.771	1	15
446.942	1	14
447.112	1	11
447.283	1	9
447.453	1	-4
447.624	1	13
447.794	1	10
447.965	1	14
448.135	1	5
448.306	1	16
448.477	1	11
448.647	1	10
448.818	1	11
448.988	1	12
449.159	1	7
449.329	1	3
449.500	1	6
449.670	1	22
449.841	1	12
450.011	1	13
450.182	1	13
450.352	1	10
450.523	1	10
450.693	1	5
450.864	1	12
451.034	1	14
451.205	1	24
451.375	1	11
451.546	1	7
451.716	1	3
451.887	1	1
452.057	1	16
452.228	1	13
452.398	1	10
452.569	1	11
452.739	1	8
452.910	1	13
453.080	1	11
453.251	1	14
453.421	1	10
453.592	1	15
453.762	1	17
453.933	1	16
454.103	1	6
454.274	1	11
454.444	1	1
454.615	1	17
454.785	1	10
454.956	1	13
455.126	1	7
455.297	1	13
455.467	1	20
455.638	1	11
455.808	1	1
455.979	1	13
456.149	1	22
456.320	1	17
456.490	1	19
456.661	1	19
456.831	1	15
457.001	1	16
457.172	1	8
457.342	1	10
457.513	1	23
457.683	1	12
457.854	1	16
458.024	1	10
458.195	1	7
458.365	1	-1
458.536	1	13
458.706	1	13
458.877	1	12
459.047	1	19
459.218	1	15
459.388	1	26
459.559	1	11
459.729	1	22
459.899	1	9
460.070	1	18
460.240	1	7
460.411	1	6
460.581	1	18
460.752	1	4
460.922	1	15
461.093	1	18
461.263	1	10
461.434	1	8
461.604	1	7
461.775	1	6
461.945	1	19
462.115	1	19
462.286	1	16
462.456	1	6
462.627	1	16
462.797	1	11
462.968	1	11
463.138	1	7
463.309	1	7
463.479	1	11
463.649	1	16
463.820	1	20
463.990	1	13
464.161	1	7
464.331	1	4
464.502	1	18
464.672	1	5
464.843	1	9
465.013	1	8
465.183	1	11
465.354	1	20
465.524	1	16
465.695	1	4
465.865	1	10
466.036	1	11
466.206	1	16
466.376	1	9
466.547	1	6
466.717	1	5
466.888	1	20
467.058	1	9
467.229	1	8
467.399	1	20
467.569	1	22
467.740	1	12
467.910	1	16
468.081	1	17
468.251	1	15
468.422	1	2
468.592	1	11
468.762	1	6
468.933	1	9
469.103	1	5
469.274	1	17
469.444	1	3
469.614	1	17
469.785	1	8
469.955	1	19
470.126	1	7
470.296	1	7
470.467	1	21
470.637	1	16
470.807	1	11
470.978	1	13
471.148	1	14
471.319	1	8
471.489	1	10
471.659	1	8
471.830	1	8
472.000	1	14
472.171	1	11
472.341	1	11
472.511	1	9
472.682	1	19
472.852	1	19
473.023	1	19
473.193	1	16
473.363	1	9
473.534	1	19
473.704	1	15
473.875	1	17
474.045	1	13
474.215	1	13
474.386	1	23
474.556	1	23
474.727	1	14
474.897	1	14
475.067	1	13
475.238	1	13
475.408	1	22
475.578	1	8
475.749	1	13
475.919	1	10
476.090	1	13
476.260	1	4
476.430	1	16
476.601	1	13
476.771	1	8
476.942	1	18
477.112	1	17
477.282	1	16
477.453	1	10
477.623	1	5
477.793	1	14
477.964	1	14
478.134	1	3
478.305	1	17
478.475	1	19
478.645	1	19
478.816	1	23
478.986	1	14
479.156	1	18
479.327	1	19
479.497	1	16
479.667	1	17
479.838	1	14
480.008	1	13
480.179	1	26
480.349	1	20
480.519	1	23
480.690	1	23
480.860	1	23
481.030	1	14
481.201	1	26
481.371	1	18
481.541	1	6
481.712	1	26
481.882	1	23
482.053	1	13
482.223	1	28
482.393	1	22
482.564	1	24
482.734	1	17
482.904	1	7
483.075	1	21
483.245	1	23
483.415	1	19
483.586	1	35
483.756	1	21
483.926	1	20
484.097	1	31
484.267	1	19
484.437	1	20
484.608	1	33
484.778	1	29
484.948	1	19
485.119	1	26
485.289	1	26
485.459	1	42
485.630	1	18
485.800	1	28
485.970	1	19
486.141	1	22
486.311	1	32
486.481	1	26
486.652	1	28
486.822	1	29
486.992	1	30
487.163	1	27
487.333	1	33
487.503	1	32
487.674	1	37
487.844	1	34
488.014	1	32
488.185	1	28
488.355	1	29
488.525	1	28
488.696	1	29
488.866	1	28
489.036	1	43
489.207	1	31
489.377	1	32
489.547	1	38
489.718	1	37
489.888	1	27
490.058	1	32
490.228	1	44
490.399	1	38
490.569	1	47
490.739	1	45
490.910	1	36
491.080	1	50
491.250	1	35
491.421	1	37
491.591	1	21
491.761	1	39
491.932	1	42
492.102	1	38
492.272	1	39
492.442	1	35
492.613	1	37
492.783	1	52
492.953	1	24
493.124	1	42
493.294	1	27
493.464	1	61
493.635	1	43
493.805	1	43
493.975	1	42
494.145	1	38
494.316	1	36
494.486	1	38
494.656	1	46
494.827	1	42
494.997	1	43
495.167	1	40
495.337	1	52
495.508	1	44
495.678	1	39
495.848	1	54
496.019	1	40
496.189	1	52
496.359	1	40
496.529	1	38
496.700	1	39
496.870	1	45
497.040	1	43
497.211	1	47
497.381	1	46
497.551	1	42
497.721	1	43
497.892	1	47
498.062	1	50
498.232	1	42
498.403	1	52
498.573	1	44
498.743	1	54
498.913	1	45
499.084	1	40
499.254	1	58
499.424	1	46
499.594	1	56
499.765	1	43
499.935	1	56
500.105	1	45
500.275	1	54
500.446	1	42
500.616	1	49
500.786	1	57
500.956	1	58
501.127	1	57
501.297	1	46
501.467	1	52
501.638	1	52
501.808	1	61
501.978	1	58
502.148	1	56
502.319	1	51
502.489	1	66
502.659	1	59
502.829	1	55
503.000	1	61
503.170	1	67
503.340	1	69
503.510	1	74
503.681	1	63
503.851	1	61
504.021	1	62
504.191	1	76
504.362	1	61
504.532	1	76
504.702	1	69
504.872	1	74
505.042	1	60
505.213	1	70
505.383	1	69
505.553	1	66
505.723	1	64
505.894	1	68
506.064	1	70
506.234	1	83
506.404	1	75
506.575	1	82
506.745	1	77
506.915	1	82
507.085	1	59
507.256	1	76
507.426	1	71
507.596	1	77
507.766	1	76
507.936	1	79
508.107	1	73
508.277	1	79
508.447	1	93
508.617	1	74
508.788	1	78
508.958	1	84
509.128	1	82
509.298	1	76
509.468	1	79
509.639	1	75
509.809	1	81
509.979	1	84
510.149	1	80
510.319	1	85
510.490	1	84
510.660	1	78
510.830	1	82
511.000	1	83
511.171	1	86
511.341	1	80
511.511	1	88
511.681	1	85
511.851	1	76
512.022	1	87
512.192	1	80
512.362	1	88
512.532	1	91
512.702	1	88
512.873	1	88
513.043	1	93
513.213	1	90
513.383	1	89
513.553	1	82
513.724	1	97
513.894	1	84
514.064	1	100
514.234	1	93
514.404	1	83
514.575	1	106
514.745	1	78
514.915	1	97
515.085	1	96
515.255	1	85
515.425	1	92
515.596	1	93
515.766	1	98
515.936	1	96
516.106	1	94
516.276	1	92
516.447	1	104
516.617	1	109
516.787	1	108
516.957	1	107
517.127	1	98
517.297	1	105
517.468	1	112
517.638	1	104
517.808	1	102
517.978	1	111
518.148	1	102
518.319	1	107
518.489	1	107
518.659	1	90
518.829	1	103
518.999	1	108
519.169	1	105
519.340	1	112
519.510	1	114
519.680	1	123
519.850	1	112
520.020	1	126
520.190	1	113
520.361	1	113
520.531	1	107
520.701	1	117
520.871	1	117
521.041	1	132
521.211	1	110
521.382	1	112
521.552	1	125
521.722	1	122
521.892	1	114
522.062	1	113
522.232	1	118
522.402	1	122
522.573	1	113
522.743	1	113
522.913	1	117
523.083	1	127
523.253	1	122
523.423	1	125
523.593	1	113
523.764	1	121
523.934	1	127
524.104	1	118
524.274	1	117
524.444	1	122
524.614	1	126
524.784	1	123
524.955	1	112
525.125	1	124
525.295	1	113
525.465	1	129
525.635	1	115
525.805	1	110
525.975	1	128
526.146	1	130
526.316	1	127
526.486	1	120
526.656	1	123
526.826	1	114
526.996	1	134
527.166	1	127
527.337	1	128
527.507	1	127
527.677	1	133
527.847	1	135
528.017	1	121
528.187	1	128
528.357	1	134
528.527	1	141
528.698	1	140
528.868	1	116
529.038	1	148
529.208	1	141
529.378	1	133
529.548	1	132
529.718	1	146
529.888	1	144
530.058	1	142
530.229	1	148
530.399	1	153
530.569	1	124
530.739	1	147
530.909	1	142
531.079	1	142
531.249	1	140
531.419	1	150
531.589	1	158
531.760	1	162
531.930	1	154
532.100	1	152
532.270	1	164
532.440	1	149
532.610	1	155
532.780	1	157
532.950	1	152
533.120	1	167
533.290	1	157
533.461	1	156
533.631	1	164
533.801	1	174
533.971	1	150
534.141	1	146
534.311	1	160
534.481	1	163
534.651	1	160
534.821	1	162
534.991	1	157
535.162	1	156
535.332	1	156
535.502	1	150
535.672	1	163
535.842	1	174
536.012	1	161
536.182	1	163
536.352	1	159
536.522	1	164
536.692	1	164
536.862	1	154
537.032	1	151
537.203	1	154
537.373	1	150
537.543	1	155
537.713	1	174
537.883	1	155
538.053	1	154
538.223	1	159
538.393	1	174
538.563	1	167
538.733	1	148
538.903	1	140
539.073	1	150
539.243	1	158
539.413	1	141
539.584	1	154
539.754	1	156
539.924	1	160
540.094	1	161
540.264	1	149
540.434	1	159
540.604	1	150
540.774	1	168
540.944	1	164
541.114	1	137
541.284	1	155
541.454	1	152
541.624	1	149
541.794	1	144
541.964	1	167
542.134	1	167
542.305	1	156
542.475	1	167
542.645	1	162
542.815	1	168
542.985	1	164
543.155	1	153
543.325	1	158
543.495	1	152
543.665	1	169
543.835	1	171
544.005	1	182
544.175	1	156
544.345	1	158
544.515	1	157
544.685	1	147
544.855	1	177
545.025	1	165
545.195	1	183
545.365	1	155
545.535	1	180
545.705	1	167
545.875	1	170
546.045	1	170
546.216	1	181
546.386	1	164
546.556	1	169
546.726	1	172
546.896	1	170
547.066	1	186
547.236	1	185
547.406	1	175
547.576	1	183
547.746	1	174
547.916	1	185
548.086	1	190
548.256	1	184
548.426	1	184
548.596	1	198
548.766	1	204
548.936	1	195
549.106	1	190
549.276	1	185
549.446	1	183
549.616	1	184
549.786	1	196
549.956	1	202
550.126	1	204
550.296	1	205
550.466	1	214
550.636	1	208
550.806	1	196
550.976	1	203
551.146	1	194
551.316	1	204
551.486	1	209
551.656	1	207
551.826	1	201
551.996	1	213
552.166	1	206
552.336	1	212
552.506	1	198
552.676	1	210
552.846	1	204
553.016	1	207
553.186	1	211
553.356	1	190
553.526	1	209
553.696	1	221
553.866	1	205
554.036	1	202
554.206	1	207
554.376	1	201
554.546	1	204
554.716	1	206
554.886	1	209
555.056	1	203
555.226	1	179
555.396	1	181
555.566	1	210
555.736	1	183
555.906	1	192
556.076	1	195
556.246	1	194
556.416	1	171
556.586	1	186
556.756	1	193
556.926	1	188
557.096	1	193
557.266	1	191
557.436	1	194
557.606	1	172
557.776	1	177
557.946	1	202
558.116	1	192
558.286	1	185
558.456	1	197
558.626	1	191
558.796	1	193
558.966	1	178
559.136	1	186
559.306	1	179
559.476	1	186
559.646	1	205
559.816	1	190
559.986	1	196
560.155	1	189
560.325	1	185
560.495	1	194
560.665	1	195
560.835	1	185
561.005	1	194
561.175	1	190
561.345	1	184
561.515	1	184
561.685	1	175
561.855	1	180
562.025	1	183
562.195	1	193
562.365	1	199
562.535	1	196
562.705	1	190
562.875	1	183
563.045	1	173
563.215	1	171
563.385	1	177
563.555	1	185
563.725	1	189
563.895	1	188
564.064	1	194
564.234	1	191
564.404	1	184
564.574	1	199
564.744	1	181
564.914	1	201
565.084	1	192
565.254	1	196
565.424	1	189
565.594	1	198
565.764	1	199
565.934	1	175
566.104	1	188
566.274	1	197
566.444	1	190
566.614	1	203
566.783	1	189
566.953	1	218
567.123	1	196
567.293	1	199
567.463	1	188
567.633	1	192
567.803	1	190
567.973	1	190
568.143	1	187
568.313	1	193
568.483	1	203
568.653	1	205
568.823	1	194
568.993	1	189
569.162	1	199
569.332	1	202
569.502	1	189
569.672	1	198
569.842	1	199
570.012	1	202
570.182	1	194
570.352	1	185
570.522	1	186
570.692	1	192
570.862	1	184
571.031	1	185
571.201	1	189
571.371	1	176
571.541	1	192
571.711	1	198
571.881	1	191
572.051	1	194
572.221	1	191
572.391	1	175
572.561	1	186
572.731	1	183
572.900	1	188
573.070	1	180
573.240	1	192
573.410	1	200
573.580	1	181
573.750	1	194
573.920	1	186
574.090	1	190
574.260	1	185
574.430	1	168
574.599	1	189
574.769	1	184
574.939	1	194
575.109	1	182
575.279	1	198
575.449	1	183
575.619	1	198
575.789	1	167
575.959	1	171
576.128	1	165
576.298	1	206
576.468	1	182
576.638	1	182
576.808	1	183
576.978	1	192
577.148	1	191
577.318	1	175
577.487	1	177
577.657	1	190
577.827	1	192
577.997	1	168
578.167	1	175
578.337	1	194
578.507	1	186
578.677	1	188
578.846	1	192
579.016	1	185
579.186	1	182
579.356	1	184
579.526	1	174
579.696	1	189
579.866	1	171
580.036	1	178
580.205	1	184
580.375	1	177
580.545	1	169
580.715	1	175
580.885	1	184
581.055	1	176
581.225	1	175
581.394	1	169
581.564	1	185
581.734	1	179
581.904	1	193
582.074	1	184
582.244	1	171
582.414	1	191
582.583	1	190
582.753	1	190
582.923	1	173
583.093	1	176
583.263	1	195
583.433	1	177
583.603	1	197
583.772	1	193
583.942	1	178
584.112	1	176
584.282	1	172
584.452	1	196
584.622	1	179
584.791	1	172
584.961	1	174
585.131	1	187
585.301	1	178
585.471	1	185
585.641	1	183
585.811	1	185
585.980	1	175
586.150	1	176
586.320	1	181
586.490	1	196
586.660	1	166
586.830	1	170
586.999	1	173
587.169	1	178
587.339	1	174
587.509	1	188
587.679	1	192
587.849	1	167
588.018	1	174
588.188	1	175
588.358	1	161
588.528	1	175
588.698	1	169
588.867	1	189
589.037	1	178
589.207	1	172
589.377	1	183
589.547	1	173
589.717	1	166
589.886	1	164
590.056	1	164
590.226	1	162
590.396	1	152
590.566	1	157
590.735	1	166
590.905	1	147
591.075	1	159
591.245	1	148
591.415	1	171
591.585	1	168
591.754	1	146
591.924	1	153
592.094	1	154
592.264	1	159
592.434	1	149
592.603	1	156
592.773	1	146
592.943	1	147
593.113	1	148
593.283	1	147
593.452	1	148
593.622	1	155
593.792	1	161
593.962	1	144
594.132	1	150
594.301	1	155
594.471	1	160
594.641	1	157
594.811	1	145
594.981	1	144
595.150	1	137
595.320	1	143
595.490	1	148
595.660	1	142
595.829	1	150
595.999	1	144
596.169	1	140
596.339	1	151
596.509	1	149
596.678	1	147
596.848	1	148
597.018	1	131
597.188	1	146
597.358	1	138
597.527	1	132
597.697	1	139
597.867	1	139
598.037	1	129
598.206	1	143
598.376	1	136
598.546	1	141
598.716	1	140
598.885	1	132
599.055	1	142
599.225	1	132
599.395	1	141
599.565	1	129
599.734	1	132
599.904	1	140
600.074	1	150
600.244	1	127
600.413	1	146
600.583	1	154
600.753	1	140
600.923	1	148
601.092	1	157
601.262	1	134
601.432	1	129
601.602	1	146
601.771	1	149
601.941	1	139
602.111	1	149
602.281	1	143
602.451	1	144
602.620	1	133
602.790	1	135
602.960	1	137
603.130	1	145
603.299	1	142
603.469	1	139
603.639	1	135
603.809	1	145
603.978	1	134
604.148	1	144
604.318	1	139
604.487	1	141
604.657	1	129
604.827	1	133
604.997	1	146
605.166	1	155
605.336	1	146
605.506	1	174
605.676	1	126
605.845	1	144
606.015	1	147
606.185	1	149
606.355	1	140
606.524	1	142
606.694	1	137
606.864	1	147
607.034	1	147
607.203	1	148
607.373	1	144
607.543	1	151
607.712	1	147
607.882	1	140
608.052	1	139
608.222	1	149
608.391	1	138
608.561	1	139
608.731	1	143
608.901	1	149
609.070	1	147
609.240	1	136
609.410	1	139
609.579	1	148
609.749	1	134
609.919	1	148
610.089	1	133
610.258	1	147
610.428	1	138
610.598	1	137
610.767	1	133
610.937	1	137
611.107	1	132
611.277	1	129
611.446	1	130
611.616	1	126
611.786	1	141
611.955	1	121
612.125	1	126
612.295	1	118
612.465	1	138
612.634	1	141
612.804	1	125
612.974	1	111
613.143	1	123
613.313	1	121
613.483	1	126
613.652	1	127
613.822	1	124
613.992	1	122
614.162	1	143
614.331	1	133
614.501	1	114
614.671	1	129
614.840	1	112
615.010	1	108
615.180	1	109
615.349	1	120
615.519	1	106
615.689	1	127
615.858	1	123
616.028	1	114
616.198	1	123
616.368	1	124
616.537	1	109
616.707	1	119
616.877	1	107
617.046	1	117
617.216	1	120
617.386	1	114
617.555	1	118
617.725	1	104
617.895	1	112
618.064	1	107
618.234	1	111
618.404	1	111
618.573	1	107
618.743	1	114
618.913	1	116
619.082	1	115
619.252	1	109
619.422	1	97
619.591	1	94
619.761	1	109
619.931	1	108
620.100	1	115
620.270	1	103
620.440	1	104
620.609	1	108
620.779	1	105
620.949	1	111
621.118	1	109
621.288	1	101
621.458	1	109
621.627	1	106
621.797	1	97
621.967	1	104
622.136	1	111
622.306	1	104
622.476	1	112
622.645	1	116
622.815	1	101
622.985	1	103
623.154	1	98
623.324	1	90
623.494	1	99
623.663	1	107
623.833	1	104
624.002	1	96
624.172	1	102
624.342	1	113
624.511	1	88
624.681	1	102
624.851	1	91
625.020	1	99
625.190	1	104
625.360	1	101
625.529	1	106
625.699	1	93
625.869	1	105
626.038	1	93
626.208	1	82
626.377	1	109
626.547	1	93
626.717	1	87
626.886	1	109
627.056	1	85
627.226	1	107
627.395	1	99
627.565	1	105
627.735	1	98
627.904	1	94
628.074	1	101
628.243	1	95
628.413	1	87
628.583	1	90
628.752	1	104
628.922	1	100
629.091	1	90
629.261	1	93
629.431	1	89
629.600	1	102
629.770	1	87
629.940	1	99
630.109	1	89
630.279	1	89
630.448	1	89
630.618	1	92
630.788	1	92
630.957	1	95
631.127	1	96
631.297	1	91
631.466	1	94
631.636	1	85
631.805	1	83
631.975	1	108
632.145	1	102
632.314	1	92
632.484	1	86
632.653	1	97
632.823	1	85
632.993	1	87
633.162	1	86
633.332	1	80
633.501	1	92
633.671	1	84
633.841	1	74
634.010	1	83
634.180	1	94
634.349	1	93
634.519	1	84
634.689	1	82
634.858	1	88
635.028	1	91
635.197	1	96
635.367	1	85
635.537	1	77
635.706	1	87
635.876	1	72
636.045	1	92
636.215	1	81
636.384	1	86
636.554	1	89
636.724	1	81
636.893	1	82
637.063	1	81
637.232	1	80
637.402	1	87
637.572	1	89
637.741	1	74
637.911	1	72
638.080	1	90
638.250	1	78
638.419	1	87
638.589	1	90
638.759	1	67
638.928	1	78
639.098	1	88
639.267	1	86
639.437	1	76
639.606	1	71
639.776	1	79
639.946	1	90
640.115	1	75
640.285	1	80
640.454	1	76
640.624	1	72
640.793	1	81
640.963	1	75
641.132	1	83
641.302	1	71
641.472	1	72
641.641	1	60
641.811	1	84
641.980	1	89
642.150	1	68
642.319	1	71
642.489	1	84
642.659	1	79
642.828	1	72
642.998	1	74
643.167	1	62
643.337	1	74
643.506	1	66
643.676	1	80
643.845	1	74
644.015	1	80
644.184	1	67
644.354	1	79
644.524	1	62
644.693	1	81
644.863	1	59
645.032	1	73
645.202	1	78
645.371	1	74
645.541	1	76
645.710	1	69
645.880	1	74
646.049	1	58
646.219	1	68
646.388	1	66
646.558	1	67
646.728	1	74
646.897	1	70
647.067	1	68
647.236	1	73
647.406	1	62
647.575	1	74
647.745	1	71
647.914	1	66
648.084	1	63
648.253	1	76
648.423	1	62
648.592	1	64
648.762	1	66
648.931	1	69
649.101	1	67
649.270	1	67
649.440	1	63
649.610	1	68
649.779	1	72
649.949	1	66
650.118	1	71
650.288	1	72
650.457	1	82
650.627	1	59
650.796	1	64
650.966	1	77
651.135	1	55
651.305	1	73
651.474	1	52
651.644	1	79
651.813	1	70
651.983	1	62
652.152	1	70
652.322	1	59
652.491	1	63
652.661	1	56
652.830	1	64
653.000	1	66
653.169	1	75
653.339	1	63
653.508	1	63
653.678	1	79
653.847	1	66
654.017	1	67
654.186	1	63
654.356	1	69
654.525	1	59
654.695	1	68
654.864	1	58
655.034	1	58
655.203	1	56
655.373	1	74
655.542	1	62
655.712	1	47
655.881	1	65
656.051	1	53
656.220	1	47
656.390	1	55
656.559	1	56
656.729	1	61
656.898	1	58
657.068	1	61
657.237	1	54
657.406	1	65
657.576	1	59
657.745	1	57
657.915	1	53
658.084	1	64
658.254	1	46
658.423	1	67
658.593	1	62
658.762	1	51
658.932	1	54
659.101	1	63
659.271	1	54
659.440	1	45
659.610	1	54
659.779	1	54
659.949	1	56
660.118	1	59
660.288	1	62
660.457	1	60
660.626	1	53
660.796	1	44
660.965	1	65
661.135	1	51
661.304	1	50
661.474	1	48
661.643	1	67
661.813	1	58
661.982	1	59
662.152	1	57
662.321	1	53
662.491	1	44
662.660	1	56
662.829	1	46
662.999	1	46
663.168	1	50
663.338	1	51
663.507	1	55
663.677	1	49
663.846	1	39
664.016	1	51
664.185	1	46
664.354	1	52
664.524	1	46
664.693	1	51
664.863	1	47
665.032	1	52
665.202	1	50
665.371	1	57
665.541	1	38
665.710	1	41
665.879	1	39
666.049	1	43
666.218	1	52
666.388	1	57
666.557	1	49
666.727	1	42
666.896	1	47
667.065	1	57
667.235	1	45
667.404	1	42
667.574	1	44
667.743	1	52
667.913	1	43
668.082	1	50
668.251	1	44
668.421	1	44
668.590	1	44
668.760	1	37
668.929	1	37
669.099	1	47
669.268	1	42
669.437	1	54
669.607	1	40
669.776	1	50
669.946	1	46
670.115	1	57
670.285	1	34
670.454	1	47
670.623	1	37
670.793	1	44
670.962	1	42
671.132	1	51
671.301	1	55
671.470	1	47
671.640	1	40
671.809	1	39
671.979	1	42
672.148	1	40
672.317	1	44
672.487	1	52
672.656	1	40
672.826	1	45
672.995	1	55
673.164	1	56
673.334	1	50
673.503	1	49
673.673	1	47
673.842	1	41
674.011	1	41
674.181	1	47
674.350	1	60
674.520	1	41
674.689	1	53
674.858	1	47
675.028	1	41
675.197	1	38
675.367	1	46
675.536	1	39
675.705	1	54
675.875	1	42
676.044	1	43
676.214	1	38
676.383	1	45
676.552	1	46
676.722	1	45
676.891	1	48
677.060	1	43
677.230	1	41
677.399	1	35
677.569	1	36
677.738	1	44
677.907	1	56
678.077	1	48
678.246	1	52
678.416	1	47
678.585	1	50
678.754	1	39
678.924	1	42
679.093	1	46
679.262	1	35
679.432	1	48
679.601	1	39
679.771	1	42
679.940	1	43
680.109	1	49
680.279	1	37
680.448	1	41
680.617	1	43
680.787	1	38
680.956	1	50
681.125	1	42
681.295	1	43
681.464	1	39
681.634	1	44
681.803	1	28
681.972	1	27
682.142	1	48
682.311	1	48
682.480	1	55
682.650	1	45
682.819	1	51
682.988	1	39
683.158	1	35
683.327	1	38
683.496	1	45
683.666	1	42
683.835	1	44
684.004	1	53
684.174	1	36
684.343	1	41
684.512	1	40
684.682	1	36
684.851	1	40
685.021	1	43
685.190	1	42
685.359	1	57
685.529	1	39
685.698	1	43
685.867	1	38
686.037	1	44
686.206	1	35
686.375	1	50
686.545	1	36
686.714	1	32
686.883	1	38
687.053	1	38
687.222	1	39
687.391	1	40
687.561	1	41
687.730	1	36
687.899	1	48
688.069	1	48
688.238	1	40
688.407	1	40
688.577	1	29
688.746	1	29
