340.368	1	-4
340.539	1	-13
340.710	1	0
340.881	1	-7
341.052	1	7
341.223	1	5
341.394	1	-8
341.565	1	-2
341.737	1	13
341.908	1	-1
342.079	1	1
342.250	1	-7
342.421	1	5
342.592	1	2
342.763	1	8
342.934	1	-8
343.105	1	9
343.276	1	1
343.447	1	-10
343.618	1	3
343.789	1	-13
343.960	1	7
344.131	1	-4
344.302	1	0
344.473	1	-5
344.644	1	4
344.815	1	-1
344.986	1	-4
345.157	1	3
345.328	1	-9
345.499	1	4
345.670	1	-2
345.841	1	13
346.012	1	11
346.183	1	4
346.354	1	9
346.526	1	-1
346.697	1	2
346.868	1	9
347.039	1	10
347.210	1	-7
347.381	1	8
347.552	1	-5
347.723	1	-6
347.894	1	1
348.065	1	-1
348.236	1	11
348.407	1	0
348.578	1	6
348.749	1	-5
348.920	1	-2
349.091	1	-9
349.262	1	1
349.433	1	-2
349.604	1	3
349.775	1	7
349.946	1	5
350.117	1	5
350.288	1	10
350.459	1	-5
350.630	1	6
350.801	1	6
350.972	1	4
351.143	1	-6
351.314	1	-2
351.485	1	5
351.656	1	7
351.827	1	4
351.998	1	7
352.169	1	4
352.340	1	8
352.511	1	4
352.682	1	5
352.853	1	7
353.024	1	4
353.195	1	6
353.366	1	15
353.537	1	-1
353.708	1	-3
353.879	1	8
354.050	1	-8
354.221	1	-6
354.392	1	4
354.563	1	5
354.734	1	7
354.905	1	5
355.076	1	0
355.247	1	9
355.418	1	-4
355.589	1	-9
355.760	1	5
355.931	1	8
356.102	1	18
356.273	1	-10
356.444	1	2
356.615	1	-4
356.785	1	11
356.956	1	-2
357.127	1	6
357.298	1	-4
357.469	1	5
357.640	1	2
357.811	1	2
357.982	1	0
358.153	1	12
358.324	1	8
358.495	1	9
358.666	1	5
358.837	1	-2
359.008	1	-4
359.179	1	15
359.350	1	-4
359.521	1	17
359.692	1	9
359.863	1	5
360.034	1	7
360.205	1	4
360.376	1	7
360.547	1	6
360.718	1	4
360.889	1	3
361.060	1	8
361.231	1	-1
361.401	1	11
361.572	1	13
361.743	1	7
361.914	1	11
362.085	1	12
362.256	1	8
362.427	1	18
362.598	1	-3
362.769	1	7
362.940	1	7
363.111	1	5
363.282	1	10
363.453	1	11
363.624	1	17
363.795	1	12
363.966	1	10
364.137	1	17
364.308	1	7
364.478	1	18
364.649	1	19
364.820	1	15
364.991	1	12
365.162	1	23
365.333	1	11
365.504	1	23
365.675	1	10
365.846	1	22
366.017	1	20
366.188	1	22
366.359	1	24
366.530	1	20
366.701	1	27
366.871	1	26
367.042	1	27
367.213	1	33
367.384	1	39
367.555	1	29
367.726	1	32
367.897	1	39
368.068	1	41
368.239	1	39
368.410	1	48
368.581	1	27
368.752	1	28
368.923	1	29
369.093	1	34
369.264	1	38
369.435	1	22
369.606	1	35
369.777	1	33
369.948	1	39
370.119	1	37
370.290	1	27
370.461	1	45
370.632	1	40
370.803	1	32
370.973	1	37
371.144	1	32
371.315	1	38
371.486	1	34
371.657	1	41
371.828	1	25
371.999	1	29
372.170	1	33
372.341	1	33
372.512	1	25
372.682	1	37
372.853	1	33
373.024	1	31
373.195	1	19
373.366	1	42
373.537	1	31
373.708	1	15
373.879	1	30
374.050	1	26
374.220	1	30
374.391	1	29
374.562	1	31
374.733	1	17
374.904	1	18
375.075	1	19
375.246	1	18
375.417	1	20
375.588	1	30
375.758	1	26
375.929	1	21
376.100	1	12
376.271	1	29
376.442	1	19
376.613	1	16
376.784	1	23
376.955	1	13
377.125	1	20
377.296	1	14
377.467	1	16
377.638	1	9
377.809	1	13
377.980	1	13
378.151	1	22
378.321	1	5
378.492	1	13
378.663	1	10
378.834	1	13
379.005	1	10
379.176	1	11
379.347	1	16
379.518	1	15
379.688	1	7
379.859	1	6
380.030	1	13
380.201	1	5
380.372	1	16
380.543	1	20
380.714	1	19
380.884	1	5
381.055	1	18
381.226	1	1
381.397	1	8
381.568	1	13
381.739	1	25
381.910	1	11
382.080	1	1
382.251	1	7
382.422	1	15
382.593	1	-2
382.764	1	5
382.935	1	-4
383.105	1	4
383.276	1	20
383.447	1	1
383.618	1	7
383.789	1	-4
383.960	1	7
384.130	1	5
384.301	1	7
384.472	1	4
384.643	1	20
384.814	1	7
384.985	1	4
385.156	1	-5
385.326	1	10
385.497	1	23
385.668	1	14
385.839	1	9
386.010	1	10
386.180	1	1
386.351	1	1
386.522	1	15
386.693	1	1
386.864	1	7
387.035	1	13
387.205	1	4
387.376	1	0
387.547	1	-3
387.718	1	15
387.889	1	1
388.060	1	15
388.230	1	12
388.401	1	-3
388.572	1	0
388.743	1	2
388.914	1	9
389.084	1	5
389.255	1	-6
389.426	1	7
389.597	1	3
389.768	1	8
389.939	1	4
390.109	1	0
390.280	1	3
390.451	1	-1
390.622	1	0
390.793	1	1
390.963	1	14
391.134	1	11
391.305	1	1
391.476	1	-13
391.647	1	9
391.817	1	5
391.988	1	6
392.159	1	0
392.330	1	8
392.501	1	0
392.671	1	9
392.842	1	-3
393.013	1	0
393.184	1	0
393.355	1	9
393.525	1	12
393.696	1	-1
393.867	1	2
394.038	1	3
394.208	1	3
394.379	1	9
394.550	1	14
394.721	1	-7
394.892	1	5
395.062	1	3
395.233	1	-3
395.404	1	-2
395.575	1	5
395.746	1	6
395.916	1	7
396.087	1	8
396.258	1	13
396.429	1	-1
396.599	1	-1
396.770	1	-4
396.941	1	3
397.112	1	3
397.283	1	2
397.453	1	5
397.624	1	5
397.795	1	5
397.966	1	8
398.136	1	-1
398.307	1	0
398.478	1	1
398.649	1	-10
398.819	1	1
398.990	1	-2
399.161	1	5
399.332	1	1
399.503	1	6
399.673	1	8
399.844	1	4
400.015	1	3
400.186	1	-2
400.356	1	-12
400.527	1	0
400.698	1	-5
400.869	1	1
401.039	1	1
401.210	1	6
401.381	1	-6
401.552	1	-5
401.722	1	0
401.893	1	-5
402.064	1	6
402.235	1	-3
402.405	1	-5
402.576	1	-3
402.747	1	-8
402.918	1	12
403.088	1	6
403.259	1	11
403.430	1	0
403.601	1	4
403.771	1	-2
403.942	1	9
404.113	1	1
404.284	1	7
404.454	1	-1
404.625	1	6
404.796	1	8
404.967	1	2
405.137	1	9
405.308	1	-5
405.479	1	8
405.649	1	4
405.820	1	-12
405.991	1	-1
406.162	1	5
406.332	1	5
406.503	1	5
406.674	1	-4
406.845	1	7
407.015	1	6
407.186	1	-1
407.357	1	-1
407.527	1	-2
407.698	1	7
407.869	1	-6
408.040	1	-4
408.210	1	3
408.381	1	5
408.552	1	4
408.722	1	-12
408.893	1	-1
409.064	1	7
409.235	1	0
409.405	1	2
409.576	1	-3
409.747	1	1
409.917	1	4
410.088	1	6
410.259	1	-1
410.430	1	-3
410.600	1	-5
410.771	1	6
410.942	1	10
411.112	1	3
411.283	1	9
411.454	1	-5
411.625	1	-1
411.795	1	-2
411.966	1	-1
412.137	1	5
412.307	1	-6
412.478	1	8
412.649	1	-3
412.819	1	-2
412.990	1	5
413.161	1	-6
413.332	1	5
413.502	1	-5
413.673	1	8
413.844	1	2
414.014	1	-1
414.185	1	6
414.356	1	7
414.526	1	-8
414.697	1	4
414.868	1	8
415.038	1	7
415.209	1	-2
415.380	1	7
415.550	1	-6
415.721	1	-1
415.892	1	5
416.063	1	-2
416.233	1	6
416.404	1	-4
416.575	1	11
416.745	1	-4
416.916	1	-4
417.087	1	-5
417.257	1	5
417.428	1	6
417.599	1	-4
417.769	1	6
417.940	1	9
418.111	1	-2
418.281	1	9
418.452	1	-5
418.623	1	1
418.793	1	-10
418.964	1	-13
419.135	1	-13
419.305	1	-5
419.476	1	7
419.647	1	0
419.817	1	16
419.988	1	0
420.159	1	2
420.329	1	-5
420.500	1	-2
420.671	1	5
420.841	1	13
421.012	1	7
421.183	1	-2
421.353	1	-5
421.524	1	-16
421.695	1	5
421.865	1	3
422.036	1	-3
422.206	1	1
422.377	1	-2
422.548	1	-5
422.718	1	10
422.889	1	-9
423.060	1	-3
423.230	1	-2
423.401	1	4
423.572	1	2
423.742	1	8
423.913	1	2
424.084	1	-3
424.254	1	-1
424.425	1	8
424.595	1	-2
424.766	1	-4
424.937	1	4
425.107	1	2
425.278	1	5
425.449	1	1
425.619	1	-4
425.790	1	-7
425.961	1	4
426.131	1	2
426.302	1	1
426.472	1	0
426.643	1	7
426.814	1	9
426.984	1	2
427.155	1	1
427.326	1	7
427.496	1	-5
427.667	1	10
427.837	1	-4
428.008	1	5
428.179	1	-5
428.349	1	-17
428.520	1	1
428.691	1	10
428.861	1	-2
429.032	1	6
429.202	1	4
429.373	1	5
429.544	1	2
429.714	1	3
429.885	1	4
430.055	1	2
430.226	1	-3
430.397	1	-3
430.567	1	8
430.738	1	-6
430.909	1	4
431.079	1	5
431.250	1	3
431.420	1	2
431.591	1	-1
431.762	1	-4
431.932	1	-7
432.103	1	-2
432.273	1	-5
432.444	1	13
432.615	1	-12
432.785	1	-1
432.956	1	0
433.126	1	-1
433.297	1	5
433.468	1	-6
433.638	1	1
433.809	1	4
433.979	1	1
434.150	1	-2
434.320	1	7
434.491	1	-4
434.662	1	8
434.832	1	5
435.003	1	4
435.173	1	-9
435.344	1	-6
435.515	1	9
435.685	1	-1
435.856	1	8
436.026	1	11
436.197	1	0
436.368	1	0
436.538	1	-13
436.709	1	-9
436.879	1	-3
437.050	1	3
437.220	1	3
437.391	1	4
437.562	1	-1
437.732	1	-2
437.903	1	1
438.073	1	-4
438.244	1	7
438.414	1	-9
438.585	1	-6
438.756	1	-2
438.926	1	-8
439.097	1	-7
439.267	1	1
439.438	1	2
439.608	1	-3
439.779	1	-3
439.949	1	-1
440.120	1	5
440.291	1	7
440.461	1	-1
440.632	1	-2
440.802	1	1
440.973	1	-8
441.143	1	6
441.314	1	-1
441.485	1	6
441.655	1	13
441.826	1	-2
441.996	1	9
442.167	1	-6
442.337	1	-4
442.508	1	-9
442.678	1	-3
442.849	1	14
443.019	1	7
443.190	1	-2
443.361	1	2
443.531	1	5
443.702	1	3
443.872	1	6
444.043	1	15
444.213	1	-3
444.384	1	-7
444.554	1	8
444.725	1	-7
444.895	1	-3
445.066	1	-5
445.237	1	0
445.407	1	6
445.578	1	-6
445.748	1	3
445.919	1	2
446.089	1	4
446.260	1	-5
446.430	1	3
446.601	1	8
446.771	1	13
446.942	1	-2
447.112	1	2
447.283	1	-5
447.453	1	-7
447.624	1	0
447.794	1	0
447.965	1	1
448.135	1	3
448.306	1	-3
448.477	1	7
448.647	1	-11
448.818	1	0
448.988	1	-1
449.159	1	-6
449.329	1	3
449.500	1	-9
449.670	1	3
449.841	1	5
450.011	1	4
450.182	1	-1
450.352	1	2
450.523	1	-3
450.693	1	4
450.864	1	-2
451.034	1	-6
451.205	1	6
451.375	1	-3
451.546	1	0
451.716	1	1
451.887	1	-12
452.057	1	12
452.228	1	3
452.398	1	3
452.569	1	-3
452.739	1	-1
452.910	1	-3
453.080	1	3
453.251	1	-1
453.421	1	6
453.592	1	3
453.762	1	0
453.933	1	7
454.103	1	-1
454.274	1	-9
454.444	1	-7
454.615	1	16
454.785	1	-7
454.956	1	-2
455.126	1	-8
455.297	1	13
455.467	1	0
455.638	1	-5
455.808	1	5
455.979	1	2
456.149	1	4
456.320	1	-5
456.490	1	2
456.661	1	10
456.831	1	4
457.001	1	-4
457.172	1	-6
457.342	1	1
457.513	1	1
457.683	1	-5
457.854	1	4
458.024	1	-3
458.195	1	-2
458.365	1	-11
458.536	1	-1
458.706	1	1
458.877	1	3
459.047	1	10
459.218	1	1
459.388	1	8
459.559	1	-3
459.729	1	7
459.899	1	3
460.070	1	7
460.240	1	3
460.411	1	-11
460.581	1	16
460.752	1	2
460.922	1	7
461.093	1	-6
461.263	1	-1
461.434	1	1
461.604	1	6
461.775	1	2
461.945	1	1
462.115	1	6
462.286	1	-7
462.456	1	-5
462.627	1	13
462.797	1	3
462.968	1	2
463.138	1	4
463.309	1	-12
463.479	1	-2
463.649	1	-2
463.820	1	-2
463.990	1	-2
464.161	1	-5
464.331	1	0
464.502	1	8
464.672	1	2
464.843	1	-5
465.013	1	-4
465.183	1	-3
465.354	1	-1
465.524	1	-6
465.695	1	-12
465.865	1	-4
466.036	1	-1
466.206	1	10
466.376	1	-8
466.547	1	1
466.717	1	10
466.888	1	6
467.058	1	-6
467.229	1	-6
467.399	1	8
467.569	1	1
467.740	1	0
467.910	1	1
468.081	1	5
468.251	1	0
468.422	1	2
468.592	1	-3
468.762	1	-5
468.933	1	-3
469.103	1	-1
469.274	1	-2
469.444	1	-9
469.614	1	-8
469.785	1	-10
469.955	1	-2
470.126	1	-3
470.296	1	-4
470.467	1	-8
470.637	1	5
470.807	1	0
470.978	1	9
471.148	1	1
471.319	1	-1
471.489	1	-5
471.659	1	-6
471.830	1	3
472.000	1	1
472.171	1	-2
472.341	1	3
472.511	1	0
472.682	1	6
472.852	1	5
473.023	1	2
473.193	1	1
473.363	1	-1
473.534	1	8
473.704	1	-6
473.875	1	8
474.045	1	-10
474.215	1	10
474.386	1	9
474.556	1	10
474.727	1	1
474.897	1	-2
475.067	1	6
475.238	1	-5
475.408	1	1
475.578	1	-9
475.749	1	3
475.919	1	-3
476.090	1	-5
476.260	1	-9
476.430	1	10
476.601	1	0
476.771	1	2
476.942	1	4
477.112	1	3
477.282	1	0
477.453	1	-5
477.623	1	-11
477.793	1	-7
477.964	1	-3
478.134	1	-9
478.305	1	-1
478.475	1	-3
478.645	1	7
478.816	1	5
478.986	1	-4
479.156	1	-4
479.327	1	-9
479.497	1	-6
479.667	1	-1
479.838	1	-2
480.008	1	-6
480.179	1	5
480.349	1	2
480.519	1	2
480.690	1	1
480.860	1	-7
481.030	1	-10
481.201	1	-4
481.371	1	0
481.541	1	-2
481.712	1	2
481.882	1	4
482.053	1	9
482.223	1	-5
482.393	1	-2
482.564	1	10
482.734	1	-5
482.904	1	-13
483.075	1	-7
483.245	1	4
483.415	1	-8
483.586	1	0
483.756	1	6
483.926	1	5
484.097	1	-2
484.267	1	-7
484.437	1	3
484.608	1	11
484.778	1	-3
484.948	1	-9
485.119	1	8
485.289	1	-5
485.459	1	10
485.630	1	6
485.800	1	2
485.970	1	-6
486.141	1	-1
486.311	1	8
486.481	1	-4
486.652	1	7
486.822	1	4
486.992	1	6
487.163	1	-1
487.333	1	-2
487.503	1	2
487.674	1	1
487.844	1	4
488.014	1	1
488.185	1	3
488.355	1	4
488.525	1	-6
488.696	1	-7
488.866	1	5
489.036	1	1
489.207	1	-3
489.377	1	8
489.547	1	-5
489.718	1	6
489.888	1	-4
490.058	1	-2
490.228	1	3
490.399	1	6
490.569	1	8
490.739	1	4
490.910	1	6
491.080	1	9
491.250	1	-7
491.421	1	-11
491.591	1	-3
491.761	1	4
491.932	1	6
492.102	1	4
492.272	1	-3
492.442	1	12
492.613	1	-6
492.783	1	10
492.953	1	-3
493.124	1	-2
493.294	1	1
493.464	1	13
493.635	1	0
493.805	1	4
493.975	1	7
494.145	1	0
494.316	1	-2
494.486	1	5
494.656	1	-4
494.827	1	7
494.997	1	3
495.167	1	-4
495.337	1	7
495.508	1	1
495.678	1	0
495.848	1	10
496.019	1	2
496.189	1	1
496.359	1	3
496.529	1	1
496.700	1	2
496.870	1	7
497.040	1	-2
497.211	1	-9
497.381	1	-2
497.551	1	-2
497.721	1	-1
497.892	1	5
498.062	1	-6
498.232	1	3
498.403	1	3
498.573	1	-2
498.743	1	1
498.913	1	-2
499.084	1	-13
499.254	1	3
499.424	1	5
499.594	1	9
499.765	1	-2
499.935	1	1
500.105	1	3
500.275	1	-1
500.446	1	-9
500.616	1	-4
500.786	1	-2
500.956	1	5
501.127	1	8
501.297	1	-1
501.467	1	2
501.638	1	-1
501.808	1	-7
501.978	1	6
502.148	1	-4
502.319	1	-8
502.489	1	1
502.659	1	-1
502.829	1	-2
503.000	1	-3
503.170	1	12
503.340	1	7
503.510	1	8
503.681	1	-15
503.851	1	-5
504.021	1	-3
504.191	1	6
504.362	1	1
504.532	1	9
504.702	1	0
504.872	1	8
505.042	1	-8
505.213	1	11
505.383	1	1
505.553	1	0
505.723	1	-3
505.894	1	-5
506.064	1	2
506.234	1	11
506.404	1	8
506.575	1	8
506.745	1	-1
506.915	1	2
507.085	1	-5
507.256	1	-1
507.426	1	-5
507.596	1	3
507.766	1	1
507.936	1	3
508.107	1	6
508.277	1	2
508.447	1	5
508.617	1	-3
508.788	1	10
508.958	1	-3
509.128	1	0
509.298	1	4
509.468	1	2
509.639	1	-1
509.809	1	-2
509.979	1	7
510.149	1	3
510.319	1	4
510.490	1	10
510.660	1	0
510.830	1	3
511.000	1	-7
511.171	1	-5
511.341	1	-2
511.511	1	7
511.681	1	10
511.851	1	-2
512.022	1	-6
512.192	1	0
512.362	1	-6
512.532	1	4
512.702	1	2
512.873	1	5
513.043	1	4
513.213	1	-3
513.383	1	-6
513.553	1	-7
513.724	1	-2
513.894	1	-9
514.064	1	9
514.234	1	2
514.404	1	6
514.575	1	8
514.745	1	-1
514.915	1	5
515.085	1	-1
515.255	1	-7
515.425	1	-6
515.596	1	10
515.766	1	-15
515.936	1	-3
516.106	1	6
516.276	1	-6
516.447	1	11
516.617	1	10
516.787	1	9
516.957	1	1
517.127	1	-4
517.297	1	-5
517.468	1	2
517.638	1	-3
517.808	1	-8
517.978	1	12
518.148	1	5
518.319	1	6
518.489	1	-1
518.659	1	-4
518.829	1	13
518.999	1	9
519.169	1	-2
519.340	1	6
519.510	1	6
519.680	1	14
519.850	1	6
520.020	1	5
520.190	1	-1
520.361	1	5
520.531	1	-7
520.701	1	4
520.871	1	7
521.041	1	5
521.211	1	-9
521.382	1	-7
521.552	1	8
521.722	1	-2
521.892	1	6
522.062	1	9
522.232	1	9
522.402	1	-1
522.573	1	8
522.743	1	8
522.913	1	5
523.083	1	5
523.253	1	7
523.423	1	18
523.593	1	1
523.764	1	7
523.934	1	-2
524.104	1	3
524.274	1	-1
524.444	1	1
524.614	1	-1
524.784	1	1
524.955	1	-3
525.125	1	-3
525.295	1	3
525.465	1	22
525.635	1	0
525.805	1	-7
525.975	1	3
526.146	1	0
526.316	1	13
526.486	1	-9
526.656	1	-3
526.826	1	1
526.996	1	11
527.166	1	0
527.337	1	-5
527.507	1	8
527.677	1	4
527.847	1	2
528.017	1	-10
528.187	1	4
528.357	1	4
528.527	1	7
528.698	1	-6
528.868	1	3
529.038	1	-1
529.208	1	7
529.378	1	1
529.548	1	-8
529.718	1	12
529.888	1	1
530.058	1	7
530.229	1	5
530.399	1	-1
530.569	1	-8
530.739	1	-5
530.909	1	-1
531.079	1	8
531.249	1	-5
531.419	1	1
531.589	1	5
531.760	1	11
531.930	1	6
532.100	1	3
532.270	1	-2
532.440	1	-3
532.610	1	-5
532.780	1	-3
532.950	1	7
533.120	1	8
533.290	1	1
533.461	1	3
533.631	1	7
533.801	1	15
533.971	1	-3
534.141	1	-8
534.311	1	12
534.481	1	-7
534.651	1	-5
534.821	1	9
534.991	1	4
535.162	1	5
535.332	1	-7
535.502	1	-12
535.672	1	-2
535.842	1	5
536.012	1	10
536.182	1	0
536.352	1	-3
536.522	1	-6
536.692	1	2
536.862	1	11
537.032	1	4
537.203	1	-4
537.373	1	12
537.543	1	4
537.713	1	4
537.883	1	2
538.053	1	6
538.223	1	1
538.393	1	11
538.563	1	-2
538.733	1	9
538.903	1	-5
539.073	1	4
539.243	1	0
539.413	1	-3
539.584	1	6
539.754	1	3
539.924	1	10
540.094	1	9
540.264	1	-4
540.434	1	0
540.604	1	1
540.774	1	20
540.944	1	-7
541.114	1	2
541.284	1	1
541.454	1	4
541.624	1	-1
541.794	1	1
541.964	1	10
542.134	1	8
542.305	1	6
542.475	1	6
542.645	1	7
542.815	1	-4
542.985	1	6
543.155	1	6
543.325	1	2
543.495	1	1
543.665	1	12
543.835	1	10
544.005	1	14
544.175	1	-8
544.345	1	5
544.515	1	1
544.685	1	4
544.855	1	6
545.025	1	-5
545.195	1	-4
545.365	1	0
545.535	1	13
545.705	1	5
545.875	1	-8
546.045	1	6
546.216	1	4
546.386	1	14
546.556	1	-6
546.726	1	-4
546.896	1	-4
547.066	1	3
547.236	1	7
547.406	1	7
547.576	1	13
547.746	1	-9
547.916	1	-3
548.086	1	12
548.256	1	-3
548.426	1	-2
548.596	1	3
548.766	1	4
548.936	1	-3
549.106	1	5
549.276	1	-1
549.446	1	10
549.616	1	3
549.786	1	-1
549.956	1	9
550.126	1	9
550.296	1	-4
550.466	1	-1
550.636	1	16
550.806	1	4
550.976	1	5
551.146	1	6
551.316	1	9
551.486	1	0
551.656	1	13
551.826	1	1
551.996	1	15
552.166	1	3
552.336	1	-3
552.506	1	1
552.676	1	8
552.846	1	8
553.016	1	7
553.186	1	2
553.356	1	6
553.526	1	3
553.696	1	7
553.866	1	10
554.036	1	3
554.206	1	11
554.376	1	16
554.546	1	4
554.716	1	5
554.886	1	2
555.056	1	2
555.226	1	-8
555.396	1	0
555.566	1	15
555.736	1	-3
555.906	1	7
556.076	1	11
556.246	1	1
556.416	1	3
556.586	1	-2
556.756	1	5
556.926	1	7
557.096	1	4
557.266	1	-4
557.436	1	4
557.606	1	11
557.776	1	4
557.946	1	10
558.116	1	6
558.286	1	2
558.456	1	9
558.626	1	10
558.796	1	5
558.966	1	5
559.136	1	4
559.306	1	-6
559.476	1	0
559.646	1	0
559.816	1	1
559.986	1	-3
560.155	1	8
560.325	1	2
560.495	1	4
560.665	1	1
560.835	1	8
561.005	1	-4
561.175	1	-1
561.345	1	10
561.515	1	5
561.685	1	2
561.855	1	-5
562.025	1	0
562.195	1	1
562.365	1	-1
562.535	1	3
562.705	1	4
562.875	1	9
563.045	1	-7
563.215	1	7
563.385	1	-2
563.555	1	-1
563.725	1	-1
563.895	1	5
564.064	1	7
564.234	1	9
564.404	1	11
564.574	1	9
564.744	1	4
564.914	1	6
565.084	1	2
565.254	1	5
565.424	1	1
565.594	1	7
565.764	1	3
565.934	1	10
566.104	1	5
566.274	1	1
566.444	1	1
566.614	1	-2
566.783	1	-9
566.953	1	4
567.123	1	-2
567.293	1	9
567.463	1	11
567.633	1	4
567.803	1	-3
567.973	1	1
568.143	1	3
568.313	1	10
568.483	1	5
568.653	1	3
568.823	1	0
568.993	1	1
569.162	1	11
569.332	1	6
569.502	1	2
569.672	1	14
569.842	1	3
570.012	1	-4
570.182	1	7
570.352	1	1
570.522	1	-10
570.692	1	13
570.862	1	0
571.031	1	4
571.201	1	12
571.371	1	-9
571.541	1	12
571.711	1	1
571.881	1	13
572.051	1	2
572.221	1	-2
572.391	1	-6
572.561	1	5
572.731	1	3
572.900	1	-4
573.070	1	4
573.240	1	9
573.410	1	14
573.580	1	6
573.750	1	0
573.920	1	5
574.090	1	-5
574.260	1	9
574.430	1	5
574.599	1	2
574.769	1	1
574.939	1	8
575.109	1	7
575.279	1	11
575.449	1	-16
575.619	1	14
575.789	1	-4
575.959	1	-5
576.128	1	-5
576.298	1	19
576.468	1	2
576.638	1	1
576.808	1	9
576.978	1	9
577.148	1	1
577.318	1	7
577.487	1	2
577.657	1	-4
577.827	1	-3
577.997	1	-7
578.167	1	2
578.337	1	15
578.507	1	3
578.677	1	12
578.846	1	12
579.016	1	3
579.186	1	-3
579.356	1	-1
579.526	1	10
579.696	1	12
579.866	1	7
580.036	1	1
580.205	1	5
580.375	1	5
580.545	1	6
580.715	1	-1
580.885	1	2
581.055	1	1
581.225	1	12
581.394	1	6
581.564	1	8
581.734	1	0
581.904	1	9
582.074	1	-7
582.244	1	1
582.414	1	7
582.583	1	11
582.753	1	-5
582.923	1	-1
583.093	1	0
583.263	1	12
583.433	1	7
583.603	1	1
583.772	1	7
583.942	1	-6
584.112	1	-3
584.282	1	-1
584.452	1	2
584.622	1	-4
584.791	1	7
584.961	1	5
585.131	1	12
585.301	1	-8
585.471	1	2
585.641	1	2
585.811	1	-1
585.980	1	8
586.150	1	0
586.320	1	6
586.490	1	5
586.660	1	7
586.830	1	-1
586.999	1	3
587.169	1	1
587.339	1	6
587.509	1	-3
587.679	1	6
587.849	1	0
588.018	1	7
588.188	1	5
588.358	1	11
588.528	1	8
588.698	1	2
588.867	1	9
589.037	1	-2
589.207	1	14
589.377	1	2
589.547	1	1
589.717	1	2
589.886	1	0
590.056	1	-5
590.226	1	8
590.396	1	8
590.566	1	3
590.735	1	1
590.905	1	2
591.075	1	6
591.245	1	-6
591.415	1	4
591.585	1	1
591.754	1	1
591.924	1	0
592.094	1	7
592.264	1	4
592.434	1	-4
592.603	1	5
592.773	1	2
592.943	1	9
593.113	1	2
593.283	1	0
593.452	1	3
593.622	1	-4
593.792	1	8
593.962	1	7
594.132	1	-6
594.301	1	8
594.471	1	-1
594.641	1	3
594.811	1	5
594.981	1	-7
595.150	1	9
595.320	1	8
595.490	1	16
595.660	1	7
595.829	1	1
595.999	1	-7
596.169	1	10
596.339	1	6
596.509	1	0
596.678	1	-5
596.848	1	3
597.018	1	-3
597.188	1	-4
597.358	1	-1
597.527	1	-9
597.697	1	5
597.867	1	-3
598.037	1	0
598.206	1	-3
598.376	1	10
598.546	1	0
598.716	1	15
598.885	1	-1
599.055	1	5
599.225	1	-5
599.395	1	6
599.565	1	-2
599.734	1	2
599.904	1	2
600.074	1	2
600.244	1	-3
600.413	1	2
600.583	1	9
600.753	1	2
600.923	1	6
601.092	1	19
601.262	1	6
601.432	1	-5
601.602	1	14
601.771	1	-10
601.941	1	-2
602.111	1	3
602.281	1	8
602.451	1	7
602.620	1	1
602.790	1	-2
602.960	1	2
603.130	1	4
603.299	1	5
603.469	1	-5
603.639	1	-2
603.809	1	18
603.978	1	3
604.148	1	3
604.318	1	2
604.487	1	1
604.657	1	-3
604.827	1	8
604.997	1	-1
605.166	1	2
605.336	1	5
605.506	1	6
605.676	1	-8
605.845	1	10
606.015	1	5
606.185	1	13
606.355	1	3
606.524	1	-3
606.694	1	3
606.864	1	-4
607.034	1	-1
607.203	1	0
607.373	1	2
607.543	1	1
607.712	1	-3
607.882	1	4
608.052	1	0
608.222	1	7
608.391	1	3
608.561	1	4
608.731	1	2
608.901	1	3
609.070	1	5
609.240	1	2
609.410	1	10
609.579	1	11
609.749	1	2
609.919	1	17
610.089	1	-3
610.258	1	3
610.428	1	5
610.598	1	4
610.767	1	-3
610.937	1	2
611.107	1	-2
611.277	1	0
611.446	1	11
611.616	1	0
611.786	1	9
611.955	1	4
612.125	1	-3
612.295	1	-3
612.465	1	-1
612.634	1	0
612.804	1	6
612.974	1	-3
613.143	1	5
613.313	1	7
613.483	1	7
613.652	1	0
613.822	1	-4
613.992	1	-10
614.162	1	6
614.331	1	1
614.501	1	6
614.671	1	6
614.840	1	3
615.010	1	-5
615.180	1	3
615.349	1	4
615.519	1	-6
615.689	1	9
615.858	1	5
616.028	1	4
616.198	1	0
616.368	1	7
616.537	1	8
616.707	1	6
616.877	1	-1
617.046	1	-5
617.216	1	-10
617.386	1	5
617.555	1	3
617.725	1	4
617.895	1	9
618.064	1	-9
618.234	1	0
618.404	1	0
618.573	1	-8
618.743	1	7
618.913	1	4
619.082	1	4
619.252	1	4
619.422	1	-6
619.591	1	3
619.761	1	8
619.931	1	5
620.100	1	4
620.270	1	-1
620.440	1	1
620.609	1	9
620.779	1	-3
620.949	1	-4
621.118	1	-7
621.288	1	7
621.458	1	6
621.627	1	-2
621.797	1	-3
621.967	1	0
622.136	1	19
622.306	1	-2
622.476	1	3
622.645	1	10
622.815	1	6
622.985	1	0
623.154	1	15
623.324	1	4
623.494	1	13
623.663	1	0
623.833	1	11
624.002	1	-8
624.172	1	1
624.342	1	10
624.511	1	-7
624.681	1	1
624.851	1	-8
625.020	1	4
625.190	1	5
625.360	1	4
625.529	1	1
625.699	1	-8
625.869	1	1
626.038	1	-2
626.208	1	1
626.377	1	3
626.547	1	2
626.717	1	-1
626.886	1	6
627.056	1	-1
627.226	1	12
627.395	1	12
627.565	1	4
627.735	1	3
627.904	1	2
628.074	1	-2
628.243	1	14
628.413	1	5
628.583	1	-3
628.752	1	5
628.922	1	6
629.091	1	-1
629.261	1	-6
629.431	1	-2
629.600	1	9
629.770	1	-9
629.940	1	3
630.109	1	-6
630.279	1	-1
630.448	1	-6
630.618	1	-3
630.788	1	3
630.957	1	1
631.127	1	0
631.297	1	-3
631.466	1	-1
631.636	1	-7
631.805	1	1
631.975	1	11
632.145	1	-1
632.314	1	4
632.484	1	2
632.653	1	-3
632.823	1	-1
632.993	1	-5
633.162	1	0
633.332	1	2
633.501	1	-7
633.671	1	5
633.841	1	-5
634.010	1	2
634.180	1	11
634.349	1	5
634.519	1	-9
634.689	1	1
634.858	1	-3
635.028	1	5
635.197	1	10
635.367	1	-1
635.537	1	3
635.706	1	3
635.876	1	8
636.045	1	23
636.215	1	-1
636.384	1	-8
636.554	1	3
636.724	1	8
636.893	1	-3
637.063	1	-4
637.232	1	-2
637.402	1	2
637.572	1	-1
637.741	1	2
637.911	1	4
638.080	1	3
638.250	1	0
638.419	1	-14
638.589	1	-1
638.759	1	-2
638.928	1	1
639.098	1	16
639.267	1	3
639.437	1	-2
639.606	1	5
639.776	1	-3
639.946	1	8
640.115	1	1
640.285	1	9
640.454	1	-9
640.624	1	-6
640.793	1	9
640.963	1	2
641.132	1	5
641.302	1	0
641.472	1	2
641.641	1	-6
641.811	1	-7
641.980	1	4
642.150	1	-7
642.319	1	2
642.489	1	9
642.659	1	5
642.828	1	6
642.998	1	5
643.167	1	-2
643.337	1	6
643.506	1	-3
643.676	1	3
643.845	1	3
644.015	1	1
644.184	1	7
644.354	1	4
644.524	1	-4
644.693	1	2
644.863	1	-8
645.032	1	5
645.202	1	-5
645.371	1	-5
645.541	1	1
645.710	1	5
645.880	1	0
646.049	1	-7
646.219	1	1
646.388	1	3
646.558	1	0
646.728	1	6
646.897	1	-3
647.067	1	1
647.236	1	10
647.406	1	-5
647.575	1	9
647.745	1	0
647.914	1	2
648.084	1	-3
648.253	1	4
648.423	1	-3
648.592	1	3
648.762	1	-4
648.931	1	8
649.101	1	-4
649.270	1	9
649.440	1	1
649.610	1	-4
649.779	1	1
649.949	1	2
650.118	1	8
650.288	1	9
650.457	1	4
650.627	1	-2
650.796	1	-4
650.966	1	2
651.135	1	2
651.305	1	7
651.474	1	3
651.644	1	15
651.813	1	10
651.983	1	5
652.152	1	-2
652.322	1	-2
652.491	1	-4
652.661	1	-9
652.830	1	-7
653.000	1	2
653.169	1	2
653.339	1	10
653.508	1	4
653.678	1	-3
653.847	1	14
654.017	1	-3
654.186	1	-6
654.356	1	-4
654.525	1	-6
654.695	1	4
654.864	1	3
655.034	1	5
655.203	1	-2
655.373	1	8
655.542	1	3
655.712	1	4
655.881	1	-2
656.051	1	-8
656.220	1	0
656.390	1	6
656.559	1	5
656.729	1	14
656.898	1	-3
657.068	1	4
657.237	1	-9
657.406	1	7
657.576	1	0
657.745	1	5
657.915	1	-1
658.084	1	1
658.254	1	0
658.423	1	5
658.593	1	3
658.762	1	6
658.932	1	-2
659.101	1	14
659.271	1	10
659.440	1	-1
659.610	1	-13
659.779	1	-2
659.949	1	6
660.118	1	-2
660.288	1	11
660.457	1	5
660.626	1	7
660.796	1	-10
660.965	1	-1
661.135	1	2
661.304	1	1
661.474	1	1
661.643	1	6
661.813	1	16
661.982	1	10
662.152	1	11
662.321	1	6
662.491	1	7
662.660	1	5
662.829	1	-4
662.999	1	-8
663.168	1	0
663.338	1	3
663.507	1	4
663.677	1	-1
663.846	1	4
664.016	1	-4
664.185	1	8
664.354	1	13
664.524	1	1
664.693	1	18
664.863	1	-2
665.032	1	-7
665.202	1	4
665.371	1	4
665.541	1	-1
665.710	1	6
665.879	1	-1
666.049	1	-1
666.218	1	2
666.388	1	4
666.557	1	-3
666.727	1	-2
666.896	1	-8
667.065	1	1
667.235	1	2
667.404	1	5
667.574	1	4
667.743	1	4
667.913	1	1
668.082	1	10
668.251	1	-5
668.421	1	-5
668.590	1	-3
668.760	1	-4
668.929	1	-9
669.099	1	9
669.268	1	2
669.437	1	5
669.607	1	-8
669.776	1	2
669.946	1	3
670.115	1	1
670.285	1	5
670.454	1	-1
670.623	1	4
670.793	1	-1
670.962	1	15
671.132	1	5
671.301	1	-2
671.470	1	-1
671.640	1	1
671.809	1	8
671.979	1	2
672.148	1	-3
672.317	1	9
672.487	1	5
672.656	1	-1
672.826	1	2
672.995	1	5
673.164	1	11
673.334	1	3
673.503	1	0
673.673	1	12
673.842	1	-5
674.011	1	1
674.181	1	-3
674.350	1	8
674.520	1	0
674.689	1	10
674.858	1	-3
675.028	1	0
675.197	1	-8
675.367	1	4
675.536	1	6
675.705	1	-10
675.875	1	1
676.044	1	5
676.214	1	-5
676.383	1	8
676.552	1	-2
676.722	1	-8
676.891	1	12
677.060	1	0
677.230	1	-7
677.399	1	-4
677.569	1	-3
677.738	1	2
677.907	1	1
678.077	1	5
678.246	1	0
678.416	1	4
678.585	1	-4
678.754	1	-5
678.924	1	-2
679.093	1	14
679.262	1	8
679.432	1	-3
679.601	1	0
679.771	1	-8
679.940	1	1
680.109	1	3
680.279	1	3
680.448	1	2
680.617	1	2
680.787	1	-5
680.956	1	7
681.125	1	0
681.295	1	-2
681.464	1	-1
681.634	1	2
681.803	1	-1
681.972	1	-2
682.142	1	4
682.311	1	2
682.480	1	7
682.650	1	4
682.819	1	4
682.988	1	0
683.158	1	2
683.327	1	-4
683.496	1	-8
683.666	1	-2
683.835	1	4
684.004	1	1
684.174	1	-6
684.343	1	-4
684.512	1	6
684.682	1	-3
684.851	1	3
685.021	1	5
685.190	1	-2
685.359	1	8
685.529	1	-1
685.698	1	5
685.867	1	-3
686.037	1	-5
686.206	1	-9
686.375	1	10
686.545	1	-3
686.714	1	3
686.883	1	-1
687.053	1	4
687.222	1	6
687.391	1	8
687.561	1	4
687.730	1	2
687.899	1	10
688.069	1	8
688.238	1	5
688.407	1	1
688.577	1	1
688.746	1	5
