340.368	1	14
340.539	1	-8
340.710	1	4
340.881	1	-14
341.052	1	13
341.223	1	3
341.394	1	0
341.565	1	-4
341.737	1	14
341.908	1	7
342.079	1	-4
342.250	1	-4
342.421	1	3
342.592	1	20
342.763	1	10
342.934	1	8
343.105	1	2
343.276	1	16
343.447	1	-2
343.618	1	8
343.789	1	-1
343.960	1	9
344.131	1	2
344.302	1	6
344.473	1	4
344.644	1	18
344.815	1	3
344.986	1	9
345.157	1	4
345.328	1	16
345.499	1	3
345.670	1	5
345.841	1	17
346.012	1	6
346.183	1	-1
346.354	1	14
346.526	1	7
346.697	1	10
346.868	1	12
347.039	1	13
347.210	1	5
347.381	1	6
347.552	1	5
347.723	1	3
347.894	1	13
348.065	1	9
348.236	1	19
348.407	1	10
348.578	1	11
348.749	1	6
348.920	1	5
349.091	1	-2
349.262	1	11
349.433	1	9
349.604	1	4
349.775	1	13
349.946	1	-3
350.117	1	13
350.288	1	25
350.459	1	3
350.630	1	15
350.801	1	3
350.972	1	10
351.143	1	7
351.314	1	21
351.485	1	19
351.656	1	19
351.827	1	20
351.998	1	18
352.169	1	9
352.340	1	18
352.511	1	10
352.682	1	24
352.853	1	10
353.024	1	17
353.195	1	12
353.366	1	32
353.537	1	16
353.708	1	28
353.879	1	32
354.050	1	12
354.221	1	12
354.392	1	27
354.563	1	18
354.734	1	21
354.905	1	28
355.076	1	18
355.247	1	29
355.418	1	19
355.589	1	17
355.760	1	25
355.931	1	28
356.102	1	39
356.273	1	23
356.444	1	29
356.615	1	31
356.785	1	38
356.956	1	41
357.127	1	28
357.298	1	45
357.469	1	34
357.640	1	44
357.811	1	43
357.982	1	41
358.153	1	44
358.324	1	37
358.495	1	50
358.666	1	35
358.837	1	39
359.008	1	48
359.179	1	40
359.350	1	60
359.521	1	69
359.692	1	69
359.863	1	62
360.034	1	73
360.205	1	60
360.376	1	71
360.547	1	74
360.718	1	77
360.889	1	66
361.060	1	80
361.231	1	76
361.401	1	93
361.572	1	96
361.743	1	95
361.914	1	110
362.085	1	117
362.256	1	105
362.427	1	125
362.598	1	117
362.769	1	134
362.940	1	127
363.111	1	155
363.282	1	153
363.453	1	169
363.624	1	183
363.795	1	192
363.966	1	189
364.137	1	221
364.308	1	208
364.478	1	227
364.649	1	253
364.820	1	257
364.991	1	254
365.162	1	297
365.333	1	292
365.504	1	321
365.675	1	301
365.846	1	331
366.017	1	366
366.188	1	371
366.359	1	397
366.530	1	426
366.701	1	411
366.871	1	425
367.042	1	465
367.213	1	470
367.384	1	496
367.555	1	512
367.726	1	528
367.897	1	563
368.068	1	552
368.239	1	571
368.410	1	602
368.581	1	599
368.752	1	596
368.923	1	599
369.093	1	636
369.264	1	616
369.435	1	632
369.606	1	621
369.777	1	634
369.948	1	637
370.119	1	626
370.290	1	621
370.461	1	626
370.632	1	613
370.803	1	614
370.973	1	591
371.144	1	600
371.315	1	565
371.486	1	571
371.657	1	555
371.828	1	538
371.999	1	537
372.170	1	528
372.341	1	487
372.512	1	462
372.682	1	456
372.853	1	461
373.024	1	442
373.195	1	421
373.366	1	410
373.537	1	413
373.708	1	380
373.879	1	385
374.050	1	379
374.220	1	391
374.391	1	358
374.562	1	349
374.733	1	339
374.904	1	332
375.075	1	317
375.246	1	327
375.417	1	310
375.588	1	309
375.758	1	291
375.929	1	291
376.100	1	286
376.271	1	290
376.442	1	267
376.613	1	248
376.784	1	246
376.955	1	224
377.125	1	234
377.296	1	213
377.467	1	233
377.638	1	222
377.809	1	227
377.980	1	216
378.151	1	217
378.321	1	176
378.492	1	197
378.663	1	177
378.834	1	189
379.005	1	190
379.176	1	173
379.347	1	166
379.518	1	168
379.688	1	163
379.859	1	154
380.030	1	141
380.201	1	144
380.372	1	149
380.543	1	135
380.714	1	137
380.884	1	125
381.055	1	124
381.226	1	119
381.397	1	122
381.568	1	120
381.739	1	116
381.910	1	115
382.080	1	110
382.251	1	101
382.422	1	112
382.593	1	93
382.764	1	98
382.935	1	104
383.105	1	98
383.276	1	97
383.447	1	98
383.618	1	89
383.789	1	92
383.960	1	78
384.130	1	87
384.301	1	94
384.472	1	83
384.643	1	95
384.814	1	80
384.985	1	70
385.156	1	84
385.326	1	85
385.497	1	81
385.668	1	86
385.839	1	82
386.010	1	76
386.180	1	71
386.351	1	73
386.522	1	81
386.693	1	58
386.864	1	57
387.035	1	69
387.205	1	59
387.376	1	68
387.547	1	67
387.718	1	66
387.889	1	53
388.060	1	68
388.230	1	56
388.401	1	48
388.572	1	50
388.743	1	60
388.914	1	67
389.084	1	38
389.255	1	45
389.426	1	52
389.597	1	48
389.768	1	44
389.939	1	47
390.109	1	51
390.280	1	42
390.451	1	42
390.622	1	42
390.793	1	42
390.963	1	54
391.134	1	52
391.305	1	45
391.476	1	30
391.647	1	44
391.817	1	39
391.988	1	45
392.159	1	40
392.330	1	40
392.501	1	46
392.671	1	39
392.842	1	34
393.013	1	34
393.184	1	25
393.355	1	40
393.525	1	26
393.696	1	35
393.867	1	31
394.038	1	33
394.208	1	38
394.379	1	35
394.550	1	38
394.721	1	30
394.892	1	26
395.062	1	36
395.233	1	26
395.404	1	22
395.575	1	28
395.746	1	33
395.916	1	25
396.087	1	21
396.258	1	32
396.429	1	26
396.599	1	27
396.770	1	30
396.941	1	34
397.112	1	34
397.283	1	29
397.453	1	30
397.624	1	32
397.795	1	27
397.966	1	22
398.136	1	24
398.307	1	25
398.478	1	26
398.649	1	18
398.819	1	22
398.990	1	29
399.161	1	36
399.332	1	18
399.503	1	24
399.673	1	20
399.844	1	27
400.015	1	18
400.186	1	20
400.356	1	22
400.527	1	24
400.698	1	17
400.869	1	22
401.039	1	22
401.210	1	15
401.381	1	12
401.552	1	12
401.722	1	18
401.893	1	10
402.064	1	7
402.235	1	11
402.405	1	22
402.576	1	16
402.747	1	10
402.918	1	21
403.088	1	15
403.259	1	16
403.430	1	9
403.601	1	9
403.771	1	18
403.942	1	22
404.113	1	8
404.284	1	21
404.454	1	16
404.625	1	15
404.796	1	22
404.967	1	13
405.137	1	23
405.308	1	15
405.479	1	13
405.649	1	18
405.820	1	4
405.991	1	9
406.162	1	7
406.332	1	22
406.503	1	16
406.674	1	12
406.845	1	17
407.015	1	19
407.186	1	14
407.357	1	8
407.527	1	0
407.698	1	19
407.869	1	12
408.040	1	13
408.210	1	2
408.381	1	22
408.552	1	5
408.722	1	-3
408.893	1	13
409.064	1	12
409.235	1	3
409.405	1	14
409.576	1	7
409.747	1	18
409.917	1	6
410.088	1	15
410.259	1	13
410.430	1	9
410.600	1	-3
410.771	1	10
410.942	1	11
411.112	1	11
411.283	1	16
411.454	1	-4
411.625	1	14
411.795	1	14
411.966	1	15
412.137	1	12
412.307	1	6
412.478	1	20
412.649	1	12
412.819	1	7
412.990	1	12
413.161	1	2
413.332	1	7
413.502	1	11
413.673	1	12
413.844	1	14
414.014	1	1
414.185	1	13
414.356	1	4
414.526	1	16
414.697	1	11
414.868	1	5
415.038	1	11
415.209	1	4
415.380	1	7
415.550	1	10
415.721	1	8
415.892	1	10
416.063	1	11
416.233	1	22
416.404	1	0
416.575	1	15
416.745	1	7
416.916	1	2
417.087	1	9
417.257	1	5
417.428	1	15
417.599	1	8
417.769	1	15
417.940	1	18
418.111	1	6
418.281	1	7
418.452	1	8
418.623	1	1
418.793	1	3
418.964	1	-1
419.135	1	2
419.305	1	10
419.476	1	19
419.647	1	8
419.817	1	14
419.988	1	7
420.159	1	8
420.329	1	4
420.500	1	5
420.671	1	4
420.841	1	20
421.012	1	8
421.183	1	13
421.353	1	3
421.524	1	6
421.695	1	6
421.865	1	6
422.036	1	15
422.206	1	6
422.377	1	7
422.548	1	-4
422.718	1	10
422.889	1	-4
423.060	1	4
423.230	1	10
423.401	1	-4
423.572	1	9
423.742	1	11
423.913	1	7
424.084	1	11
424.254	1	10
424.425	1	11
424.595	1	1
424.766	1	9
424.937	1	11
425.107	1	0
425.278	1	17
425.449	1	6
425.619	1	8
425.790	1	-4
425.961	1	-1
426.131	1	8
426.302	1	10
426.472	1	5
426.643	1	16
426.814	1	14
426.984	1	6
427.155	1	7
427.326	1	14
427.496	1	7
427.667	1	15
427.837	1	5
428.008	1	8
428.179	1	-3
428.349	1	-3
428.520	1	7
428.691	1	18
428.861	1	2
429.032	1	12
429.202	1	14
429.373	1	6
429.544	1	9
429.714	1	3
429.885	1	10
430.055	1	7
430.226	1	-3
430.397	1	12
430.567	1	1
430.738	1	5
430.909	1	12
431.079	1	2
431.250	1	9
431.420	1	4
431.591	1	12
431.762	1	11
431.932	1	6
432.103	1	1
432.273	1	9
432.444	1	11
432.615	1	0
432.785	1	3
432.956	1	0
433.126	1	10
433.297	1	3
433.468	1	-5
433.638	1	2
433.809	1	11
433.979	1	12
434.150	1	13
434.320	1	15
434.491	1	2
434.662	1	0
434.832	1	9
435.003	1	6
435.173	1	-1
435.344	1	11
435.515	1	17
435.685	1	4
435.856	1	8
436.026	1	6
436.197	1	6
436.368	1	2
436.538	1	-1
436.709	1	10
436.879	1	4
437.050	1	1
437.220	1	11
437.391	1	13
437.562	1	8
437.732	1	7
437.903	1	2
438.073	1	4
438.244	1	4
438.414	1	-9
438.585	1	3
438.756	1	-2
438.926	1	-1
439.097	1	2
439.267	1	13
439.438	1	2
439.608	1	-5
439.779	1	4
439.949	1	9
440.120	1	3
440.291	1	10
440.461	1	18
440.632	1	13
440.802	1	3
440.973	1	1
441.143	1	5
441.314	1	7
441.485	1	6
441.655	1	0
441.826	1	4
441.996	1	4
442.167	1	12
442.337	1	2
442.508	1	3
442.678	1	2
442.849	1	10
443.019	1	12
443.190	1	9
443.361	1	-2
443.531	1	4
443.702	1	4
443.872	1	17
444.043	1	3
444.213	1	4
444.384	1	1
444.554	1	17
444.725	1	5
444.895	1	-4
445.066	1	0
445.237	1	-5
445.407	1	14
445.578	1	-3
445.748	1	13
445.919	1	3
446.089	1	14
446.260	1	3
446.430	1	3
446.601	1	6
446.771	1	14
446.942	1	2
447.112	1	4
447.283	1	5
447.453	1	-12
447.624	1	10
447.794	1	4
447.965	1	4
448.135	1	6
448.306	1	-3
448.477	1	7
448.647	1	-4
448.818	1	6
448.988	1	6
449.159	1	-2
449.329	1	4
449.500	1	5
449.670	1	10
449.841	1	15
450.011	1	14
450.182	1	-1
450.352	1	5
450.523	1	0
450.693	1	-7
450.864	1	10
451.034	1	2
451.205	1	8
451.375	1	7
451.546	1	19
451.716	1	4
451.887	1	-6
452.057	1	-1
452.228	1	0
452.398	1	2
452.569	1	0
452.739	1	10
452.910	1	0
453.080	1	3
453.251	1	13
453.421	1	5
453.592	1	3
453.762	1	12
453.933	1	0
454.103	1	4
454.274	1	3
454.444	1	2
454.615	1	13
454.785	1	4
454.956	1	3
455.126	1	-3
455.297	1	16
455.467	1	4
455.638	1	-1
455.808	1	12
455.979	1	0
456.149	1	9
456.320	1	-1
456.490	1	10
456.661	1	14
456.831	1	15
457.001	1	2
457.172	1	3
457.342	1	4
457.513	1	6
457.683	1	4
457.854	1	4
458.024	1	3
458.195	1	2
458.365	1	5
458.536	1	5
458.706	1	9
458.877	1	-1
459.047	1	11
459.218	1	3
459.388	1	7
459.559	1	5
459.729	1	10
459.899	1	0
460.070	1	7
460.240	1	1
460.411	1	1
460.581	1	24
460.752	1	9
460.922	1	-2
461.093	1	13
461.263	1	-2
461.434	1	-1
461.604	1	2
461.775	1	0
461.945	1	2
462.115	1	-1
462.286	1	5
462.456	1	-1
462.627	1	7
462.797	1	-4
462.968	1	3
463.138	1	4
463.309	1	-4
463.479	1	4
463.649	1	2
463.820	1	5
463.990	1	0
464.161	1	5
464.331	1	-7
464.502	1	14
464.672	1	8
464.843	1	7
465.013	1	3
465.183	1	-7
465.354	1	6
465.524	1	-1
465.695	1	1
465.865	1	3
466.036	1	7
466.206	1	7
466.376	1	-2
466.547	1	5
466.717	1	2
466.888	1	17
467.058	1	8
467.229	1	-3
467.399	1	23
467.569	1	10
467.740	1	14
467.910	1	4
468.081	1	9
468.251	1	0
468.422	1	2
468.592	1	6
468.762	1	-5
468.933	1	5
469.103	1	6
469.274	1	7
469.444	1	0
469.614	1	9
469.785	1	1
469.955	1	-2
470.126	1	-3
470.296	1	0
470.467	1	0
470.637	1	2
470.807	1	5
470.978	1	8
471.148	1	10
471.319	1	4
471.489	1	3
471.659	1	-5
471.830	1	5
472.000	1	8
472.171	1	14
472.341	1	2
472.511	1	0
472.682	1	8
472.852	1	3
473.023	1	-1
473.193	1	13
473.363	1	7
473.534	1	19
473.704	1	0
473.875	1	22
474.045	1	3
474.215	1	13
474.386	1	18
474.556	1	14
474.727	1	-3
474.897	1	18
475.067	1	9
475.238	1	3
475.408	1	7
475.578	1	1
475.749	1	5
475.919	1	3
476.090	1	14
476.260	1	10
476.430	1	7
476.601	1	7
476.771	1	-3
476.942	1	9
477.112	1	8
477.282	1	2
477.453	1	0
477.623	1	5
477.793	1	1
477.964	1	12
478.134	1	-5
478.305	1	8
478.475	1	11
478.645	1	11
478.816	1	4
478.986	1	1
479.156	1	11
479.327	1	1
479.497	1	1
479.667	1	9
479.838	1	11
480.008	1	5
480.179	1	6
480.349	1	14
480.519	1	14
480.690	1	8
480.860	1	1
481.030	1	-2
481.201	1	2
481.371	1	2
481.541	1	8
481.712	1	12
481.882	1	23
482.053	1	6
482.223	1	4
482.393	1	12
482.564	1	10
482.734	1	3
482.904	1	2
483.075	1	9
483.245	1	15
483.415	1	5
483.586	1	7
483.756	1	17
483.926	1	4
484.097	1	11
484.267	1	9
484.437	1	1
484.608	1	11
484.778	1	20
484.948	1	-4
485.119	1	3
485.289	1	1
485.459	1	23
485.630	1	10
485.800	1	9
485.970	1	3
486.141	1	9
486.311	1	13
486.481	1	13
486.652	1	18
486.822	1	19
486.992	1	16
487.163	1	7
487.333	1	17
487.503	1	6
487.674	1	18
487.844	1	16
488.014	1	8
488.185	1	7
488.355	1	7
488.525	1	9
488.696	1	-1
488.866	1	14
489.036	1	20
489.207	1	6
489.377	1	10
489.547	1	3
489.718	1	13
489.888	1	9
490.058	1	5
490.228	1	20
490.399	1	8
490.569	1	24
490.739	1	6
490.910	1	15
491.080	1	13
491.250	1	9
491.421	1	14
491.591	1	9
491.761	1	16
491.932	1	4
492.102	1	13
492.272	1	20
492.442	1	20
492.613	1	8
492.783	1	23
492.953	1	8
493.124	1	18
493.294	1	4
493.464	1	19
493.635	1	19
493.805	1	21
493.975	1	5
494.145	1	16
494.316	1	25
494.486	1	19
494.656	1	11
494.827	1	29
494.997	1	17
495.167	1	19
495.337	1	22
495.508	1	7
495.678	1	9
495.848	1	25
496.019	1	19
496.189	1	25
496.359	1	10
496.529	1	19
496.700	1	7
496.870	1	21
497.040	1	13
497.211	1	8
497.381	1	13
497.551	1	13
497.721	1	10
497.892	1	15
498.062	1	15
498.232	1	10
498.403	1	12
498.573	1	14
498.743	1	8
498.913	1	18
499.084	1	6
499.254	1	15
499.424	1	16
499.594	1	22
499.765	1	12
499.935	1	19
500.105	1	17
500.275	1	17
500.446	1	13
500.616	1	8
500.786	1	3
500.956	1	23
501.127	1	17
501.297	1	6
501.467	1	11
501.638	1	22
501.808	1	22
501.978	1	21
502.148	1	28
502.319	1	19
502.489	1	21
502.659	1	24
502.829	1	13
503.000	1	17
503.170	1	35
503.340	1	23
503.510	1	27
503.681	1	31
503.851	1	18
504.021	1	27
504.191	1	23
504.362	1	15
504.532	1	27
504.702	1	13
504.872	1	22
505.042	1	29
505.213	1	31
505.383	1	32
505.553	1	26
505.723	1	24
505.894	1	23
506.064	1	23
506.234	1	33
506.404	1	29
506.575	1	27
506.745	1	33
506.915	1	30
507.085	1	26
507.256	1	28
507.426	1	28
507.596	1	29
507.766	1	27
507.936	1	31
508.107	1	28
508.277	1	19
508.447	1	43
508.617	1	25
508.788	1	35
508.958	1	22
509.128	1	29
509.298	1	37
509.468	1	29
509.639	1	23
509.809	1	29
509.979	1	25
510.149	1	33
510.319	1	42
510.490	1	38
510.660	1	35
510.830	1	33
511.000	1	28
511.171	1	25
511.341	1	26
511.511	1	21
511.681	1	31
511.851	1	25
512.022	1	16
512.192	1	37
512.362	1	27
512.532	1	27
512.702	1	22
512.873	1	35
513.043	1	34
513.213	1	22
513.383	1	25
513.553	1	27
513.724	1	29
513.894	1	21
514.064	1	38
514.234	1	38
514.404	1	28
514.575	1	35
514.745	1	37
514.915	1	30
515.085	1	32
515.255	1	32
515.425	1	31
515.596	1	34
515.766	1	22
515.936	1	25
516.106	1	35
516.276	1	25
516.447	1	51
516.617	1	33
516.787	1	34
516.957	1	20
517.127	1	39
517.297	1	29
517.468	1	20
517.638	1	41
517.808	1	35
517.978	1	34
518.148	1	30
518.319	1	33
518.489	1	33
518.659	1	27
518.829	1	32
518.999	1	43
519.169	1	37
519.340	1	42
519.510	1	26
519.680	1	36
519.850	1	36
520.020	1	35
520.190	1	36
520.361	1	31
520.531	1	45
520.701	1	37
520.871	1	40
521.041	1	48
521.211	1	29
521.382	1	31
521.552	1	42
521.722	1	35
521.892	1	36
522.062	1	54
522.232	1	33
522.402	1	35
522.573	1	33
522.743	1	45
522.913	1	42
523.083	1	39
523.253	1	35
523.423	1	39
523.593	1	30
523.764	1	43
523.934	1	37
524.104	1	42
524.274	1	38
524.444	1	37
524.614	1	38
524.784	1	30
524.955	1	36
525.125	1	45
525.295	1	40
525.465	1	40
525.635	1	44
525.805	1	35
525.975	1	34
526.146	1	22
526.316	1	59
526.486	1	35
526.656	1	40
526.826	1	49
526.996	1	45
527.166	1	46
527.337	1	41
527.507	1	41
527.677	1	43
527.847	1	42
528.017	1	42
528.187	1	49
528.357	1	44
528.527	1	42
528.698	1	47
528.868	1	33
529.038	1	42
529.208	1	35
529.378	1	44
529.548	1	53
529.718	1	48
529.888	1	50
530.058	1	47
530.229	1	53
530.399	1	55
530.569	1	36
530.739	1	56
530.909	1	34
531.079	1	48
531.249	1	47
531.419	1	53
531.589	1	46
531.760	1	57
531.930	1	50
532.100	1	48
532.270	1	34
532.440	1	49
532.610	1	41
532.780	1	38
532.950	1	47
533.120	1	54
533.290	1	55
533.461	1	55
533.631	1	55
533.801	1	67
533.971	1	34
534.141	1	36
534.311	1	45
534.481	1	43
534.651	1	40
534.821	1	53
534.991	1	48
535.162	1	47
535.332	1	44
535.502	1	41
535.672	1	51
535.842	1	59
536.012	1	51
536.182	1	41
536.352	1	50
536.522	1	44
536.692	1	43
536.862	1	49
537.032	1	52
537.203	1	46
537.373	1	48
537.543	1	42
537.713	1	61
537.883	1	46
538.053	1	46
538.223	1	43
538.393	1	50
538.563	1	52
538.733	1	49
538.903	1	43
539.073	1	47
539.243	1	38
539.413	1	33
539.584	1	37
539.754	1	50
539.924	1	43
540.094	1	42
540.264	1	39
540.434	1	43
540.604	1	48
540.774	1	58
540.944	1	44
541.114	1	43
541.284	1	46
541.454	1	41
541.624	1	51
541.794	1	52
541.964	1	55
542.134	1	44
542.305	1	52
542.475	1	57
542.645	1	49
542.815	1	44
542.985	1	44
543.155	1	42
543.325	1	40
543.495	1	42
543.665	1	57
543.835	1	51
544.005	1	46
544.175	1	30
544.345	1	45
544.515	1	41
544.685	1	39
544.855	1	49
545.025	1	50
545.195	1	45
545.365	1	39
545.535	1	56
545.705	1	42
545.875	1	40
546.045	1	47
546.216	1	58
546.386	1	47
546.556	1	43
546.726	1	38
546.896	1	50
547.066	1	51
547.236	1	52
547.406	1	51
547.576	1	58
547.746	1	37
547.916	1	45
548.086	1	54
548.256	1	46
548.426	1	44
548.596	1	50
548.766	1	47
548.936	1	63
549.106	1	57
549.276	1	55
549.446	1	47
549.616	1	46
549.786	1	52
549.956	1	64
550.126	1	67
550.296	1	60
550.466	1	52
550.636	1	60
550.806	1	55
550.976	1	56
551.146	1	46
551.316	1	58
551.486	1	50
551.656	1	52
551.826	1	54
551.996	1	65
552.166	1	51
552.336	1	59
552.506	1	73
552.676	1	57
552.846	1	56
553.016	1	59
553.186	1	66
553.356	1	54
553.526	1	46
553.696	1	57
553.866	1	54
554.036	1	47
554.206	1	57
554.376	1	56
554.546	1	56
554.716	1	48
554.886	1	61
555.056	1	44
555.226	1	51
555.396	1	43
555.566	1	58
555.736	1	48
555.906	1	52
556.076	1	57
556.246	1	54
556.416	1	45
556.586	1	52
556.756	1	50
556.926	1	53
557.096	1	48
557.266	1	49
557.436	1	52
557.606	1	54
557.776	1	44
557.946	1	61
558.116	1	45
558.286	1	53
558.456	1	51
558.626	1	52
558.796	1	51
558.966	1	55
559.136	1	61
559.306	1	35
559.476	1	51
559.646	1	49
559.816	1	45
559.986	1	48
560.155	1	49
560.325	1	39
560.495	1	55
560.665	1	54
560.835	1	57
561.005	1	38
561.175	1	55
561.345	1	46
561.515	1	54
561.685	1	50
561.855	1	46
562.025	1	49
562.195	1	52
562.365	1	44
562.535	1	46
562.705	1	49
562.875	1	47
563.045	1	41
563.215	1	58
563.385	1	43
563.555	1	40
563.725	1	48
563.895	1	53
564.064	1	43
564.234	1	46
564.404	1	54
564.574	1	47
564.744	1	49
564.914	1	47
565.084	1	51
565.254	1	57
565.424	1	68
565.594	1	49
565.764	1	51
565.934	1	60
566.104	1	56
566.274	1	52
566.444	1	53
566.614	1	46
566.783	1	40
566.953	1	50
567.123	1	56
567.293	1	58
567.463	1	55
567.633	1	50
567.803	1	53
567.973	1	47
568.143	1	48
568.313	1	57
568.483	1	48
568.653	1	47
568.823	1	57
568.993	1	51
569.162	1	62
569.332	1	55
569.502	1	50
569.672	1	46
569.842	1	55
570.012	1	52
570.182	1	47
570.352	1	45
570.522	1	42
570.692	1	61
570.862	1	50
571.031	1	47
571.201	1	55
571.371	1	42
571.541	1	51
571.711	1	58
571.881	1	49
572.051	1	42
572.221	1	40
572.391	1	42
572.561	1	47
572.731	1	47
572.900	1	42
573.070	1	51
573.240	1	51
573.410	1	54
573.580	1	48
573.750	1	45
573.920	1	57
574.090	1	47
574.260	1	63
574.430	1	48
574.599	1	49
574.769	1	51
574.939	1	52
575.109	1	51
575.279	1	53
575.449	1	32
575.619	1	54
575.789	1	37
575.959	1	44
576.128	1	42
576.298	1	61
576.468	1	52
576.638	1	39
576.808	1	40
576.978	1	58
577.148	1	51
577.318	1	55
577.487	1	44
577.657	1	51
577.827	1	47
577.997	1	45
578.167	1	44
578.337	1	50
578.507	1	45
578.677	1	54
578.846	1	49
579.016	1	57
579.186	1	52
579.356	1	34
579.526	1	44
579.696	1	50
579.866	1	57
580.036	1	39
580.205	1	42
580.375	1	62
580.545	1	47
580.715	1	52
580.885	1	46
581.055	1	51
581.225	1	52
581.394	1	49
581.564	1	54
581.734	1	38
581.904	1	58
582.074	1	36
582.244	1	38
582.414	1	56
582.583	1	52
582.753	1	49
582.923	1	50
583.093	1	49
583.263	1	48
583.433	1	42
583.603	1	50
583.772	1	50
583.942	1	39
584.112	1	49
584.282	1	39
584.452	1	48
584.622	1	42
584.791	1	39
584.961	1	50
585.131	1	54
585.301	1	45
585.471	1	51
585.641	1	47
585.811	1	50
585.980	1	37
586.150	1	42
586.320	1	44
586.490	1	44
586.660	1	45
586.830	1	55
586.999	1	46
587.169	1	39
587.339	1	50
587.509	1	46
587.679	1	48
587.849	1	51
588.018	1	48
588.188	1	53
588.358	1	39
588.528	1	46
588.698	1	52
588.867	1	56
589.037	1	45
589.207	1	45
589.377	1	44
589.547	1	42
589.717	1	43
589.886	1	41
590.056	1	44
590.226	1	49
590.396	1	45
590.566	1	33
590.735	1	38
590.905	1	55
591.075	1	43
591.245	1	40
591.415	1	42
591.585	1	49
591.754	1	49
591.924	1	47
592.094	1	38
592.264	1	39
592.434	1	39
592.603	1	40
592.773	1	44
592.943	1	49
593.113	1	35
593.283	1	40
593.452	1	41
593.622	1	40
593.792	1	46
593.962	1	39
594.132	1	29
594.301	1	52
594.471	1	50
594.641	1	43
594.811	1	39
594.981	1	34
595.150	1	40
595.320	1	36
595.490	1	45
595.660	1	43
595.829	1	42
595.999	1	32
596.169	1	49
596.339	1	39
596.509	1	30
596.678	1	36
596.848	1	38
597.018	1	35
597.188	1	30
597.358	1	36
597.527	1	24
597.697	1	41
597.867	1	35
598.037	1	34
598.206	1	31
598.376	1	42
598.546	1	38
598.716	1	44
598.885	1	26
599.055	1	45
599.225	1	40
599.395	1	36
599.565	1	24
599.734	1	33
599.904	1	35
600.074	1	39
600.244	1	37
600.413	1	39
600.583	1	60
600.753	1	38
600.923	1	39
601.092	1	53
601.262	1	35
601.432	1	29
601.602	1	52
601.771	1	45
601.941	1	35
602.111	1	42
602.281	1	55
602.451	1	35
602.620	1	34
602.790	1	36
602.960	1	35
603.130	1	43
603.299	1	37
603.469	1	30
603.639	1	38
603.809	1	39
603.978	1	33
604.148	1	45
604.318	1	36
604.487	1	36
604.657	1	39
604.827	1	42
604.997	1	35
605.166	1	40
605.336	1	43
605.506	1	40
605.676	1	25
605.845	1	43
606.015	1	42
606.185	1	44
606.355	1	33
606.524	1	34
606.694	1	39
606.864	1	41
607.034	1	28
607.203	1	36
607.373	1	35
607.543	1	41
607.712	1	46
607.882	1	35
608.052	1	41
608.222	1	43
608.391	1	46
608.561	1	44
608.731	1	48
608.901	1	38
609.070	1	41
609.240	1	37
609.410	1	44
609.579	1	40
609.749	1	40
609.919	1	39
610.089	1	34
610.258	1	47
610.428	1	32
610.598	1	32
610.767	1	31
610.937	1	40
611.107	1	31
611.277	1	32
611.446	1	46
611.616	1	35
611.786	1	41
611.955	1	41
612.125	1	33
612.295	1	26
612.465	1	46
612.634	1	30
612.804	1	48
612.974	1	23
613.143	1	42
613.313	1	37
613.483	1	34
613.652	1	37
613.822	1	31
613.992	1	38
614.162	1	40
614.331	1	30
614.501	1	28
614.671	1	26
614.840	1	29
615.010	1	30
615.180	1	28
615.349	1	38
615.519	1	21
615.689	1	44
615.858	1	42
616.028	1	37
616.198	1	41
616.368	1	38
616.537	1	28
616.707	1	32
616.877	1	35
617.046	1	31
617.216	1	25
617.386	1	37
617.555	1	38
617.725	1	37
617.895	1	36
618.064	1	33
618.234	1	25
618.404	1	27
618.573	1	30
618.743	1	28
618.913	1	38
619.082	1	35
619.252	1	32
619.422	1	22
619.591	1	26
619.761	1	37
619.931	1	34
620.100	1	36
620.270	1	19
620.440	1	31
620.609	1	36
620.779	1	28
620.949	1	28
621.118	1	29
621.288	1	31
621.458	1	43
621.627	1	32
621.797	1	18
621.967	1	29
622.136	1	34
622.306	1	15
622.476	1	39
622.645	1	49
622.815	1	20
622.985	1	28
623.154	1	40
623.324	1	14
623.494	1	39
623.663	1	23
623.833	1	32
624.002	1	20
624.172	1	22
624.342	1	36
624.511	1	24
624.681	1	33
624.851	1	12
625.020	1	19
625.190	1	21
625.360	1	22
625.529	1	25
625.699	1	19
625.869	1	37
626.038	1	25
626.208	1	27
626.377	1	25
626.547	1	27
626.717	1	35
626.886	1	29
627.056	1	20
627.226	1	24
627.395	1	29
627.565	1	29
627.735	1	26
627.904	1	26
628.074	1	27
628.243	1	37
628.413	1	27
628.583	1	31
628.752	1	28
628.922	1	33
629.091	1	21
629.261	1	23
629.431	1	35
629.600	1	41
629.770	1	16
629.940	1	33
630.109	1	20
630.279	1	17
630.448	1	23
630.618	1	28
630.788	1	38
630.957	1	27
631.127	1	34
631.297	1	24
631.466	1	31
631.636	1	12
631.805	1	25
631.975	1	37
632.145	1	18
632.314	1	27
632.484	1	25
632.653	1	24
632.823	1	26
632.993	1	18
633.162	1	14
633.332	1	24
633.501	1	18
633.671	1	19
633.841	1	29
634.010	1	10
634.180	1	33
634.349	1	27
634.519	1	18
634.689	1	37
634.858	1	8
635.028	1	44
635.197	1	27
635.367	1	18
635.537	1	25
635.706	1	20
635.876	1	18
636.045	1	35
636.215	1	12
636.384	1	16
636.554	1	30
636.724	1	19
636.893	1	18
637.063	1	25
637.232	1	9
637.402	1	18
637.572	1	30
637.741	1	19
637.911	1	29
638.080	1	33
638.250	1	16
638.419	1	37
638.589	1	22
638.759	1	19
638.928	1	24
639.098	1	32
639.267	1	26
639.437	1	23
639.606	1	29
639.776	1	28
639.946	1	27
640.115	1	21
640.285	1	21
640.454	1	19
640.624	1	25
640.793	1	24
640.963	1	23
641.132	1	40
641.302	1	16
641.472	1	28
641.641	1	9
641.811	1	20
641.980	1	37
642.150	1	3
642.319	1	18
642.489	1	25
642.659	1	13
642.828	1	18
642.998	1	15
643.167	1	21
643.337	1	32
643.506	1	4
643.676	1	20
643.845	1	30
644.015	1	17
644.184	1	17
644.354	1	32
644.524	1	16
644.693	1	24
644.863	1	11
645.032	1	21
645.202	1	17
645.371	1	20
645.541	1	19
645.710	1	17
645.880	1	19
646.049	1	8
646.219	1	20
646.388	1	18
646.558	1	15
646.728	1	19
646.897	1	19
647.067	1	21
647.236	1	18
647.406	1	15
647.575	1	21
647.745	1	16
647.914	1	19
648.084	1	14
648.253	1	30
648.423	1	19
648.592	1	11
648.762	1	9
648.931	1	32
649.101	1	12
649.270	1	24
649.440	1	28
649.610	1	16
649.779	1	26
649.949	1	23
650.118	1	25
650.288	1	28
650.457	1	31
650.627	1	14
650.796	1	18
650.966	1	23
651.135	1	10
651.305	1	7
651.474	1	10
651.644	1	30
651.813	1	27
651.983	1	21
652.152	1	21
652.322	1	16
652.491	1	11
652.661	1	16
652.830	1	21
653.000	1	11
653.169	1	20
653.339	1	19
653.508	1	10
653.678	1	23
653.847	1	21
654.017	1	21
654.186	1	16
654.356	1	9
654.525	1	14
654.695	1	18
654.864	1	11
655.034	1	9
655.203	1	14
655.373	1	34
655.542	1	29
655.712	1	15
655.881	1	15
656.051	1	20
656.220	1	11
656.390	1	12
656.559	1	16
656.729	1	20
656.898	1	10
657.068	1	21
657.237	1	17
657.406	1	20
657.576	1	20
657.745	1	4
657.915	1	18
658.084	1	17
658.254	1	16
658.423	1	23
658.593	1	24
658.762	1	24
658.932	1	14
659.101	1	28
659.271	1	23
659.440	1	11
659.610	1	11
659.779	1	15
659.949	1	16
660.118	1	22
660.288	1	26
660.457	1	13
660.626	1	22
660.796	1	5
660.965	1	22
661.135	1	14
661.304	1	19
661.474	1	8
661.643	1	10
661.813	1	24
661.982	1	27
662.152	1	15
662.321	1	17
662.491	1	15
662.660	1	23
662.829	1	10
662.999	1	11
663.168	1	21
663.338	1	18
663.507	1	22
663.677	1	22
663.846	1	5
664.016	1	6
664.185	1	16
664.354	1	15
664.524	1	16
664.693	1	17
664.863	1	16
665.032	1	20
665.202	1	13
665.371	1	10
665.541	1	-2
665.710	1	10
665.879	1	6
666.049	1	12
666.218	1	14
666.388	1	14
666.557	1	0
666.727	1	6
666.896	1	13
667.065	1	18
667.235	1	22
667.404	1	18
667.574	1	11
667.743	1	14
667.913	1	16
668.082	1	20
668.251	1	6
668.421	1	7
668.590	1	11
668.760	1	12
668.929	1	0
669.099	1	14
669.268	1	7
669.437	1	5
669.607	1	9
669.776	1	16
669.946	1	5
670.115	1	18
670.285	1	15
670.454	1	17
670.623	1	8
670.793	1	7
670.962	1	10
671.132	1	21
671.301	1	5
671.470	1	16
671.640	1	17
671.809	1	10
671.979	1	5
672.148	1	18
672.317	1	11
672.487	1	23
672.656	1	16
672.826	1	20
672.995	1	7
673.164	1	11
673.334	1	16
673.503	1	19
673.673	1	18
673.842	1	11
674.011	1	17
674.181	1	10
674.350	1	23
674.520	1	7
674.689	1	9
674.858	1	14
675.028	1	6
675.197	1	9
675.367	1	17
675.536	1	24
675.705	1	11
675.875	1	6
676.044	1	9
676.214	1	8
676.383	1	16
676.552	1	15
676.722	1	13
676.891	1	21
677.060	1	2
677.230	1	19
677.399	1	3
677.569	1	5
677.738	1	14
677.907	1	12
678.077	1	20
678.246	1	17
678.416	1	15
678.585	1	19
678.754	1	7
678.924	1	15
679.093	1	23
679.262	1	3
679.432	1	17
679.601	1	11
679.771	1	16
679.940	1	5
680.109	1	29
680.279	1	10
680.448	1	15
680.617	1	6
680.787	1	12
680.956	1	11
681.125	1	22
681.295	1	13
681.464	1	6
681.634	1	13
681.803	1	14
681.972	1	7
682.142	1	20
682.311	1	20
682.480	1	20
682.650	1	19
682.819	1	11
682.988	1	11
683.158	1	7
683.327	1	18
683.496	1	16
683.666	1	13
683.835	1	15
684.004	1	19
684.174	1	14
684.343	1	12
684.512	1	17
684.682	1	10
684.851	1	18
685.021	1	4
685.190	1	13
685.359	1	21
685.529	1	19
685.698	1	21
685.867	1	18
686.037	1	13
686.206	1	14
686.375	1	21
686.545	1	8
686.714	1	13
686.883	1	20
687.053	1	9
687.222	1	25
687.391	1	16
687.561	1	23
687.730	1	9
687.899	1	18
688.069	1	23
688.238	1	20
688.407	1	14
688.577	1	15
688.746	1	15
