340.368	1	4
340.539	1	-15
340.710	1	-11
340.881	1	-20
341.052	1	11
341.223	1	-2
341.394	1	-7
341.565	1	-5
341.737	1	2
341.908	1	2
342.079	1	-1
342.250	1	-8
342.421	1	5
342.592	1	7
342.763	1	4
342.934	1	1
343.105	1	10
343.276	1	1
343.447	1	-7
343.618	1	-1
343.789	1	8
343.960	1	-1
344.131	1	-3
344.302	1	5
344.473	1	-1
344.644	1	5
344.815	1	5
344.986	1	-1
345.157	1	-3
345.328	1	5
345.499	1	3
345.670	1	-4
345.841	1	4
346.012	1	1
346.183	1	-5
346.354	1	3
346.526	1	-6
346.697	1	3
346.868	1	10
347.039	1	10
347.210	1	-9
347.381	1	5
347.552	1	-4
347.723	1	-1
347.894	1	7
348.065	1	2
348.236	1	10
348.407	1	8
348.578	1	3
348.749	1	-1
348.920	1	5
349.091	1	-12
349.262	1	1
349.433	1	9
349.604	1	-1
349.775	1	7
349.946	1	-5
350.117	1	10
350.288	1	6
350.459	1	0
350.630	1	1
350.801	1	-1
350.972	1	2
351.143	1	-2
351.314	1	-1
351.485	1	4
351.656	1	0
351.827	1	4
351.998	1	6
352.169	1	-7
352.340	1	2
352.511	1	-2
352.682	1	15
352.853	1	5
353.024	1	10
353.195	1	13
353.366	1	16
353.537	1	-2
353.708	1	6
353.879	1	10
354.050	1	-7
354.221	1	-4
354.392	1	0
354.563	1	8
354.734	1	4
354.905	1	14
355.076	1	7
355.247	1	7
355.418	1	-8
355.589	1	9
355.760	1	1
355.931	1	0
356.102	1	19
356.273	1	4
356.444	1	4
356.615	1	6
356.785	1	17
356.956	1	8
357.127	1	7
357.298	1	13
357.469	1	11
357.640	1	8
357.811	1	5
357.982	1	13
358.153	1	22
358.324	1	-1
358.495	1	16
358.666	1	8
358.837	1	-3
359.008	1	0
359.179	1	8
359.350	1	1
359.521	1	18
359.692	1	16
359.863	1	3
360.034	1	6
360.205	1	6
360.376	1	15
360.547	1	19
360.718	1	11
360.889	1	4
361.060	1	6
361.231	1	16
361.401	1	21
361.572	1	14
361.743	1	12
361.914	1	13
362.085	1	23
362.256	1	15
362.427	1	18
362.598	1	8
362.769	1	16
362.940	1	18
363.111	1	22
363.282	1	12
363.453	1	17
363.624	1	27
363.795	1	22
363.966	1	13
364.137	1	26
364.308	1	19
364.478	1	27
364.649	1	26
364.820	1	21
364.991	1	34
365.162	1	37
365.333	1	36
365.504	1	30
365.675	1	26
365.846	1	37
366.017	1	42
366.188	1	37
366.359	1	38
366.530	1	49
366.701	1	50
366.871	1	39
367.042	1	40
367.213	1	58
367.384	1	47
367.555	1	48
367.726	1	45
367.897	1	55
368.068	1	54
368.239	1	58
368.410	1	61
368.581	1	51
368.752	1	45
368.923	1	43
369.093	1	50
369.264	1	65
369.435	1	58
369.606	1	56
369.777	1	50
369.948	1	57
370.119	1	50
370.290	1	55
370.461	1	66
370.632	1	46
370.803	1	59
370.973	1	57
371.144	1	42
371.315	1	44
371.486	1	51
371.657	1	60
371.828	1	49
371.999	1	49
372.170	1	56
372.341	1	51
372.512	1	42
372.682	1	47
372.853	1	50
373.024	1	52
373.195	1	40
373.366	1	43
373.537	1	40
373.708	1	36
373.879	1	40
374.050	1	43
374.220	1	45
374.391	1	35
374.562	1	40
374.733	1	43
374.904	1	32
375.075	1	24
375.246	1	32
375.417	1	36
375.588	1	31
375.758	1	42
375.929	1	38
376.100	1	41
376.271	1	36
376.442	1	31
376.613	1	24
376.784	1	33
376.955	1	19
377.125	1	32
377.296	1	26
377.467	1	26
377.638	1	31
377.809	1	28
377.980	1	30
378.151	1	34
378.321	1	26
378.492	1	20
378.663	1	11
378.834	1	10
379.005	1	29
379.176	1	16
379.347	1	18
379.518	1	23
379.688	1	19
379.859	1	25
380.030	1	16
380.201	1	10
380.372	1	21
380.543	1	16
380.714	1	13
380.884	1	19
381.055	1	25
381.226	1	11
381.397	1	12
381.568	1	21
381.739	1	11
381.910	1	14
382.080	1	15
382.251	1	7
382.422	1	4
382.593	1	7
382.764	1	9
382.935	1	10
383.105	1	8
383.276	1	16
383.447	1	6
383.618	1	17
383.789	1	8
383.960	1	13
384.130	1	10
384.301	1	13
384.472	1	7
384.643	1	20
384.814	1	7
384.985	1	16
385.156	1	6
385.326	1	21
385.497	1	11
385.668	1	13
385.839	1	13
386.010	1	13
386.180	1	16
386.351	1	8
386.522	1	9
386.693	1	-2
386.864	1	13
387.035	1	6
387.205	1	1
387.376	1	12
387.547	1	2
387.718	1	7
387.889	1	13
388.060	1	9
388.230	1	12
388.401	1	8
388.572	1	1
388.743	1	11
388.914	1	8
389.084	1	5
389.255	1	6
389.426	1	13
389.597	1	10
389.768	1	7
389.939	1	10
390.109	1	8
390.280	1	9
390.451	1	3
390.622	1	10
390.793	1	2
390.963	1	15
391.134	1	5
391.305	1	14
391.476	1	9
391.647	1	7
391.817	1	10
391.988	1	12
392.159	1	1
392.330	1	9
392.501	1	2
392.671	1	7
392.842	1	0
393.013	1	2
393.184	1	5
393.355	1	10
393.525	1	2
393.696	1	7
393.867	1	0
394.038	1	6
394.208	1	1
394.379	1	4
394.550	1	9
394.721	1	-3
394.892	1	2
395.062	1	10
395.233	1	4
395.404	1	0
395.575	1	10
395.746	1	8
395.916	1	-1
396.087	1	3
396.258	1	9
396.429	1	11
396.599	1	-9
396.770	1	2
396.941	1	10
397.112	1	15
397.283	1	5
397.453	1	17
397.624	1	10
397.795	1	4
397.966	1	8
398.136	1	-10
398.307	1	0
398.478	1	1
398.649	1	-9
398.819	1	3
398.990	1	2
399.161	1	19
399.332	1	8
399.503	1	12
399.673	1	9
399.844	1	1
400.015	1	4
400.186	1	-5
400.356	1	0
400.527	1	0
400.698	1	-1
400.869	1	0
401.039	1	8
401.210	1	8
401.381	1	-3
401.552	1	-3
401.722	1	-4
401.893	1	5
402.064	1	4
402.235	1	0
402.405	1	6
402.576	1	-5
402.747	1	6
402.918	1	6
403.088	1	13
403.259	1	4
403.430	1	-8
403.601	1	-3
403.771	1	8
403.942	1	12
404.113	1	-4
404.284	1	13
404.454	1	8
404.625	1	12
404.796	1	8
404.967	1	8
405.137	1	15
405.308	1	4
405.479	1	1
405.649	1	12
405.820	1	-9
405.991	1	3
406.162	1	4
406.332	1	7
406.503	1	0
406.674	1	3
406.845	1	9
407.015	1	9
407.186	1	11
407.357	1	-2
407.527	1	-6
407.698	1	14
407.869	1	4
408.040	1	-3
408.210	1	10
408.381	1	8
408.552	1	-4
408.722	1	-13
408.893	1	5
409.064	1	4
409.235	1	-5
409.405	1	7
409.576	1	-5
409.747	1	8
409.917	1	-7
410.088	1	3
410.259	1	8
410.430	1	-1
410.600	1	-4
410.771	1	10
410.942	1	2
411.112	1	-3
411.283	1	6
411.454	1	1
411.625	1	7
411.795	1	-3
411.966	1	4
412.137	1	9
412.307	1	4
412.478	1	10
412.649	1	-1
412.819	1	-3
412.990	1	9
413.161	1	-1
413.332	1	10
413.502	1	4
413.673	1	4
413.844	1	3
414.014	1	4
414.185	1	7
414.356	1	5
414.526	1	-3
414.697	1	5
414.868	1	-4
415.038	1	5
415.209	1	-5
415.380	1	4
415.550	1	-2
415.721	1	1
415.892	1	-2
416.063	1	-3
416.233	1	8
416.404	1	-3
416.575	1	15
416.745	1	1
416.916	1	-5
417.087	1	-7
417.257	1	4
417.428	1	-2
417.599	1	5
417.769	1	8
417.940	1	7
418.111	1	0
418.281	1	5
418.452	1	0
418.623	1	5
418.793	1	-2
418.964	1	1
419.135	1	-3
419.305	1	2
419.476	1	8
419.647	1	0
419.817	1	9
419.988	1	0
420.159	1	12
420.329	1	-7
420.500	1	3
420.671	1	6
420.841	1	15
421.012	1	5
421.183	1	3
421.353	1	-2
421.524	1	-3
421.695	1	-4
421.865	1	2
422.036	1	11
422.206	1	-3
422.377	1	6
422.548	1	-13
422.718	1	11
422.889	1	-8
423.060	1	-2
423.230	1	-2
423.401	1	-1
423.572	1	1
423.742	1	6
423.913	1	1
424.084	1	-4
424.254	1	2
424.425	1	9
424.595	1	-7
424.766	1	3
424.937	1	0
425.107	1	4
425.278	1	4
425.449	1	8
425.619	1	1
425.790	1	-2
425.961	1	-6
426.131	1	0
426.302	1	6
426.472	1	-4
426.643	1	17
426.814	1	11
426.984	1	5
427.155	1	-4
427.326	1	6
427.496	1	-8
427.667	1	10
427.837	1	-4
428.008	1	2
428.179	1	-9
428.349	1	-10
428.520	1	3
428.691	1	1
428.861	1	-4
429.032	1	7
429.202	1	2
429.373	1	4
429.544	1	-6
429.714	1	10
429.885	1	3
430.055	1	10
430.226	1	0
430.397	1	2
430.567	1	3
430.738	1	10
430.909	1	-3
431.079	1	-7
431.250	1	-10
431.420	1	-9
431.591	1	5
431.762	1	-1
431.932	1	-1
432.103	1	4
432.273	1	-2
432.444	1	10
432.615	1	-5
432.785	1	2
432.956	1	-9
433.126	1	1
433.297	1	0
433.468	1	-2
433.638	1	6
433.809	1	7
433.979	1	14
434.150	1	-3
434.320	1	6
434.491	1	-6
434.662	1	-1
434.832	1	3
435.003	1	6
435.173	1	-4
435.344	1	8
435.515	1	12
435.685	1	-4
435.856	1	4
436.026	1	6
436.197	1	-3
436.368	1	9
436.538	1	-1
436.709	1	-5
436.879	1	-5
437.050	1	-1
437.220	1	6
437.391	1	8
437.562	1	6
437.732	1	-14
437.903	1	-1
438.073	1	-5
438.244	1	5
438.414	1	-4
438.585	1	-1
438.756	1	1
438.926	1	-4
439.097	1	-10
439.267	1	8
439.438	1	-6
439.608	1	-6
439.779	1	3
439.949	1	13
440.120	1	-2
440.291	1	1
440.461	1	-2
440.632	1	5
440.802	1	-10
440.973	1	-7
441.143	1	11
441.314	1	-2
441.485	1	4
441.655	1	2
441.826	1	1
441.996	1	11
442.167	1	2
442.337	1	6
442.508	1	-12
442.678	1	-9
442.849	1	2
443.019	1	12
443.190	1	3
443.361	1	3
443.531	1	10
443.702	1	-1
443.872	1	8
444.043	1	6
444.213	1	0
444.384	1	-3
444.554	1	10
444.725	1	0
444.895	1	-2
445.066	1	-5
445.237	1	-3
445.407	1	7
445.578	1	-3
445.748	1	3
445.919	1	-4
446.089	1	6
446.260	1	-6
446.430	1	-4
446.601	1	-1
446.771	1	6
446.942	1	6
447.112	1	-5
447.283	1	5
447.453	1	-11
447.624	1	2
447.794	1	5
447.965	1	3
448.135	1	0
448.306	1	1
448.477	1	-2
448.647	1	-13
448.818	1	10
448.988	1	2
449.159	1	-3
449.329	1	4
449.500	1	4
449.670	1	3
449.841	1	9
450.011	1	7
450.182	1	-8
450.352	1	5
450.523	1	-12
450.693	1	-2
450.864	1	-2
451.034	1	3
451.205	1	9
451.375	1	0
451.546	1	1
451.716	1	4
451.887	1	-8
452.057	1	1
452.228	1	6
452.398	1	-2
452.569	1	5
452.739	1	10
452.910	1	3
453.080	1	-5
453.251	1	1
453.421	1	-3
453.592	1	5
453.762	1	0
453.933	1	-4
454.103	1	-1
454.274	1	-9
454.444	1	-7
454.615	1	5
454.785	1	3
454.956	1	2
455.126	1	-3
455.297	1	5
455.467	1	9
455.638	1	6
455.808	1	5
455.979	1	3
456.149	1	3
456.320	1	-7
456.490	1	4
456.661	1	7
456.831	1	4
457.001	1	1
457.172	1	-1
457.342	1	3
457.513	1	11
457.683	1	-6
457.854	1	7
458.024	1	-6
458.195	1	8
458.365	1	1
458.536	1	2
458.706	1	-5
458.877	1	-2
459.047	1	6
459.218	1	2
459.388	1	5
459.559	1	7
459.729	1	3
459.899	1	-2
460.070	1	5
460.240	1	11
460.411	1	-19
460.581	1	10
460.752	1	-3
460.922	1	2
461.093	1	10
461.263	1	3
461.434	1	-6
461.604	1	4
461.775	1	3
461.945	1	0
462.115	1	3
462.286	1	-3
462.456	1	-10
462.627	1	9
462.797	1	-7
462.968	1	8
463.138	1	2
463.309	1	-7
463.479	1	-5
463.649	1	-7
463.820	1	0
463.990	1	-8
464.161	1	5
464.331	1	-1
464.502	1	-1
464.672	1	0
464.843	1	6
465.013	1	3
465.183	1	-6
465.354	1	2
465.524	1	-1
465.695	1	-5
465.865	1	-1
466.036	1	2
466.206	1	15
466.376	1	-6
466.547	1	-5
466.717	1	3
466.888	1	17
467.058	1	1
467.229	1	0
467.399	1	4
467.569	1	11
467.740	1	-1
467.910	1	4
468.081	1	-6
468.251	1	-4
468.422	1	-3
468.592	1	5
468.762	1	-3
468.933	1	1
469.103	1	-3
469.274	1	9
469.444	1	-8
469.614	1	1
469.785	1	-3
469.955	1	-12
470.126	1	-5
470.296	1	3
470.467	1	-4
470.637	1	-7
470.807	1	-5
470.978	1	4
471.148	1	-1
471.319	1	8
471.489	1	-3
471.659	1	-1
471.830	1	5
472.000	1	-5
472.171	1	5
472.341	1	0
472.511	1	-9
472.682	1	4
472.852	1	0
473.023	1	6
473.193	1	0
473.363	1	-1
473.534	1	6
473.704	1	1
473.875	1	13
474.045	1	-8
474.215	1	13
474.386	1	6
474.556	1	2
474.727	1	3
474.897	1	14
475.067	1	3
475.238	1	0
475.408	1	-1
475.578	1	-6
475.749	1	-7
475.919	1	0
476.090	1	1
476.260	1	0
476.430	1	8
476.601	1	4
476.771	1	-6
476.942	1	3
477.112	1	2
477.282	1	3
477.453	1	2
477.623	1	-6
477.793	1	-4
477.964	1	1
478.134	1	-11
478.305	1	-5
478.475	1	-3
478.645	1	15
478.816	1	2
478.986	1	2
479.156	1	4
479.327	1	-11
479.497	1	1
479.667	1	-7
479.838	1	-6
480.008	1	-2
480.179	1	5
480.349	1	3
480.519	1	4
480.690	1	0
480.860	1	10
481.030	1	-11
481.201	1	-6
481.371	1	9
481.541	1	5
481.712	1	5
481.882	1	10
482.053	1	-1
482.223	1	2
482.393	1	8
482.564	1	6
482.734	1	-4
482.904	1	-1
483.075	1	-8
483.245	1	1
483.415	1	2
483.586	1	5
483.756	1	7
483.926	1	4
484.097	1	-4
484.267	1	5
484.437	1	-3
484.608	1	7
484.778	1	2
484.948	1	-7
485.119	1	-2
485.289	1	-2
485.459	1	18
485.630	1	0
485.800	1	-1
485.970	1	-11
486.141	1	1
486.311	1	0
486.481	1	11
486.652	1	6
486.822	1	5
486.992	1	5
487.163	1	1
487.333	1	-2
487.503	1	4
487.674	1	-2
487.844	1	-8
488.014	1	9
488.185	1	-1
488.355	1	2
488.525	1	-13
488.696	1	-7
488.866	1	1
489.036	1	11
489.207	1	3
489.377	1	-2
489.547	1	-1
489.718	1	3
489.888	1	9
490.058	1	-8
490.228	1	7
490.399	1	2
490.569	1	14
490.739	1	-4
490.910	1	-2
491.080	1	8
491.250	1	1
491.421	1	0
491.591	1	-1
491.761	1	2
491.932	1	8
492.102	1	-6
492.272	1	8
492.442	1	9
492.613	1	-8
492.783	1	-5
492.953	1	-2
493.124	1	5
493.294	1	2
493.464	1	16
493.635	1	3
493.805	1	-3
493.975	1	-1
494.145	1	0
494.316	1	7
494.486	1	4
494.656	1	9
494.827	1	9
494.997	1	-2
495.167	1	-5
495.337	1	6
495.508	1	4
495.678	1	1
495.848	1	0
496.019	1	-7
496.189	1	9
496.359	1	-4
496.529	1	3
496.700	1	2
496.870	1	14
497.040	1	0
497.211	1	4
497.381	1	2
497.551	1	8
497.721	1	4
497.892	1	-1
498.062	1	8
498.232	1	-4
498.403	1	13
498.573	1	-4
498.743	1	6
498.913	1	14
499.084	1	-5
499.254	1	2
499.424	1	4
499.594	1	1
499.765	1	11
499.935	1	9
500.105	1	3
500.275	1	7
500.446	1	-5
500.616	1	4
500.786	1	-3
500.956	1	-1
501.127	1	4
501.297	1	-7
501.467	1	-10
501.638	1	-1
501.808	1	2
501.978	1	7
502.148	1	6
502.319	1	4
502.489	1	-1
502.659	1	-3
502.829	1	4
503.000	1	1
503.170	1	12
503.340	1	11
503.510	1	6
503.681	1	-6
503.851	1	1
504.021	1	0
504.191	1	8
504.362	1	-2
504.532	1	7
504.702	1	3
504.872	1	3
505.042	1	-4
505.213	1	15
505.383	1	7
505.553	1	8
505.723	1	-1
505.894	1	4
506.064	1	5
506.234	1	6
506.404	1	1
506.575	1	-2
506.745	1	18
506.915	1	8
507.085	1	-8
507.256	1	4
507.426	1	5
507.596	1	6
507.766	1	7
507.936	1	5
508.107	1	1
508.277	1	-4
508.447	1	8
508.617	1	9
508.788	1	12
508.958	1	-5
509.128	1	-3
509.298	1	0
509.468	1	1
509.639	1	-2
509.809	1	7
509.979	1	1
510.149	1	0
510.319	1	4
510.490	1	11
510.660	1	-1
510.830	1	8
511.000	1	2
511.171	1	5
511.341	1	0
511.511	1	-3
511.681	1	13
511.851	1	8
512.022	1	-10
512.192	1	8
512.362	1	1
512.532	1	3
512.702	1	0
512.873	1	10
513.043	1	6
513.213	1	1
513.383	1	-9
513.553	1	-6
513.724	1	3
513.894	1	0
514.064	1	16
514.234	1	3
514.404	1	9
514.575	1	10
514.745	1	-4
514.915	1	7
515.085	1	-1
515.255	1	0
515.425	1	-7
515.596	1	3
515.766	1	-2
515.936	1	-4
516.106	1	6
516.276	1	-8
516.447	1	8
516.617	1	12
516.787	1	8
516.957	1	11
517.127	1	1
517.297	1	4
517.468	1	-1
517.638	1	10
517.808	1	-4
517.978	1	9
518.148	1	3
518.319	1	6
518.489	1	3
518.659	1	0
518.829	1	12
518.999	1	11
519.169	1	9
519.340	1	6
519.510	1	9
519.680	1	8
519.850	1	7
520.020	1	4
520.190	1	0
520.361	1	8
520.531	1	10
520.701	1	5
520.871	1	2
521.041	1	15
521.211	1	-10
521.382	1	3
521.552	1	16
521.722	1	0
521.892	1	6
522.062	1	16
522.232	1	5
522.402	1	3
522.573	1	5
522.743	1	-1
522.913	1	5
523.083	1	0
523.253	1	6
523.423	1	14
523.593	1	9
523.764	1	1
523.934	1	2
524.104	1	-5
524.274	1	7
524.444	1	1
524.614	1	-4
524.784	1	2
524.955	1	0
525.125	1	8
525.295	1	12
525.465	1	4
525.635	1	2
525.805	1	2
525.975	1	7
526.146	1	-2
526.316	1	14
526.486	1	2
526.656	1	0
526.826	1	3
526.996	1	11
527.166	1	-7
527.337	1	1
527.507	1	7
527.677	1	3
527.847	1	2
528.017	1	2
528.187	1	-1
528.357	1	2
528.527	1	6
528.698	1	3
528.868	1	4
529.038	1	6
529.208	1	-1
529.378	1	11
529.548	1	-5
529.718	1	5
529.888	1	18
530.058	1	2
530.229	1	4
530.399	1	9
530.569	1	-7
530.739	1	2
530.909	1	0
531.079	1	14
531.249	1	2
531.419	1	14
531.589	1	1
531.760	1	14
531.930	1	-5
532.100	1	-4
532.270	1	-4
532.440	1	9
532.610	1	-2
532.780	1	8
532.950	1	5
533.120	1	9
533.290	1	0
533.461	1	4
533.631	1	14
533.801	1	10
533.971	1	3
534.141	1	-8
534.311	1	17
534.481	1	-9
534.651	1	5
534.821	1	11
534.991	1	8
535.162	1	-7
535.332	1	3
535.502	1	2
535.672	1	8
535.842	1	18
536.012	1	-1
536.182	1	17
536.352	1	4
536.522	1	4
536.692	1	8
536.862	1	10
537.032	1	12
537.203	1	2
537.373	1	3
537.543	1	7
537.713	1	3
537.883	1	7
538.053	1	4
538.223	1	10
538.393	1	12
538.563	1	8
538.733	1	10
538.903	1	-3
539.073	1	8
539.243	1	6
539.413	1	-6
539.584	1	2
539.754	1	23
539.924	1	13
540.094	1	5
540.264	1	-5
540.434	1	4
540.604	1	-3
540.774	1	17
540.944	1	0
541.114	1	-1
541.284	1	7
541.454	1	8
541.624	1	3
541.794	1	4
541.964	1	12
542.134	1	17
542.305	1	13
542.475	1	3
542.645	1	5
542.815	1	13
542.985	1	1
543.155	1	2
543.325	1	9
543.495	1	4
543.665	1	7
543.835	1	9
544.005	1	14
544.175	1	-8
544.345	1	5
544.515	1	1
544.685	1	4
544.855	1	11
545.025	1	2
545.195	1	3
545.365	1	4
545.535	1	9
545.705	1	-4
545.875	1	-4
546.045	1	0
546.216	1	18
546.386	1	6
546.556	1	-1
546.726	1	1
546.896	1	-1
547.066	1	4
547.236	1	9
547.406	1	0
547.576	1	8
547.746	1	-6
547.916	1	2
548.086	1	5
548.256	1	-1
548.426	1	7
548.596	1	5
548.766	1	8
548.936	1	10
549.106	1	6
549.276	1	-3
549.446	1	4
549.616	1	2
549.786	1	-4
549.956	1	8
550.126	1	18
550.296	1	7
550.466	1	7
550.636	1	14
550.806	1	6
550.976	1	6
551.146	1	6
551.316	1	2
551.486	1	8
551.656	1	8
551.826	1	11
551.996	1	13
552.166	1	4
552.336	1	3
552.506	1	12
552.676	1	21
552.846	1	4
553.016	1	12
553.186	1	9
553.356	1	5
553.526	1	7
553.696	1	9
553.866	1	4
554.036	1	13
554.206	1	9
554.376	1	9
554.546	1	12
554.716	1	3
554.886	1	9
555.056	1	8
555.226	1	5
555.396	1	-1
555.566	1	11
555.736	1	5
555.906	1	11
556.076	1	-1
556.246	1	10
556.416	1	-1
556.586	1	7
556.756	1	2
556.926	1	10
557.096	1	8
557.266	1	8
557.436	1	3
557.606	1	5
557.776	1	3
557.946	1	7
558.116	1	9
558.286	1	1
558.456	1	9
558.626	1	7
558.796	1	4
558.966	1	-1
559.136	1	10
559.306	1	-2
559.476	1	-4
559.646	1	0
559.816	1	-1
559.986	1	0
560.155	1	14
560.325	1	-7
560.495	1	10
560.665	1	12
560.835	1	0
561.005	1	2
561.175	1	5
561.345	1	9
561.515	1	5
561.685	1	8
561.855	1	-11
562.025	1	8
562.195	1	7
562.365	1	2
562.535	1	4
562.705	1	-3
562.875	1	7
563.045	1	0
563.215	1	9
563.385	1	2
563.555	1	7
563.725	1	15
563.895	1	11
564.064	1	7
564.234	1	1
564.404	1	6
564.574	1	16
564.744	1	15
564.914	1	5
565.084	1	5
565.254	1	9
565.424	1	8
565.594	1	13
565.764	1	3
565.934	1	18
566.104	1	4
566.274	1	-3
566.444	1	-4
566.614	1	-3
566.783	1	-4
566.953	1	5
567.123	1	8
567.293	1	7
567.463	1	13
567.633	1	4
567.803	1	5
567.973	1	7
568.143	1	6
568.313	1	16
568.483	1	9
568.653	1	6
568.823	1	4
568.993	1	9
569.162	1	12
569.332	1	3
569.502	1	5
569.672	1	6
569.842	1	12
570.012	1	6
570.182	1	7
570.352	1	7
570.522	1	-8
570.692	1	11
570.862	1	4
571.031	1	6
571.201	1	12
571.371	1	5
571.541	1	9
571.711	1	2
571.881	1	17
572.051	1	-13
572.221	1	7
572.391	1	-10
572.561	1	2
572.731	1	17
572.900	1	6
573.070	1	5
573.240	1	7
573.410	1	17
573.580	1	9
573.750	1	0
573.920	1	9
574.090	1	6
574.260	1	11
574.430	1	1
574.599	1	4
574.769	1	2
574.939	1	5
575.109	1	-1
575.279	1	18
575.449	1	4
575.619	1	11
575.789	1	-8
575.959	1	-2
576.128	1	-7
576.298	1	14
576.468	1	0
576.638	1	8
576.808	1	0
576.978	1	14
577.148	1	12
577.318	1	19
577.487	1	-3
577.657	1	-1
577.827	1	-3
577.997	1	4
578.167	1	4
578.337	1	12
578.507	1	14
578.677	1	12
578.846	1	11
579.016	1	12
579.186	1	8
579.356	1	2
579.526	1	-2
579.696	1	12
579.866	1	15
580.036	1	-2
580.205	1	2
580.375	1	9
580.545	1	-2
580.715	1	2
580.885	1	3
581.055	1	9
581.225	1	9
581.394	1	4
581.564	1	22
581.734	1	0
581.904	1	-3
582.074	1	-9
582.244	1	7
582.414	1	7
582.583	1	9
582.753	1	8
582.923	1	-7
583.093	1	6
583.263	1	0
583.433	1	9
583.603	1	13
583.772	1	5
583.942	1	6
584.112	1	6
584.282	1	-9
584.452	1	7
584.622	1	12
584.791	1	7
584.961	1	5
585.131	1	12
585.301	1	8
585.471	1	13
585.641	1	12
585.811	1	9
585.980	1	7
586.150	1	6
586.320	1	7
586.490	1	14
586.660	1	13
586.830	1	11
586.999	1	8
587.169	1	13
587.339	1	7
587.509	1	6
587.679	1	8
587.849	1	0
588.018	1	10
588.188	1	16
588.358	1	7
588.528	1	7
588.698	1	11
588.867	1	10
589.037	1	18
589.207	1	1
589.377	1	10
589.547	1	1
589.717	1	12
589.886	1	0
590.056	1	1
590.226	1	9
590.396	1	4
590.566	1	-2
590.735	1	-2
590.905	1	2
591.075	1	8
591.245	1	-3
591.415	1	1
591.585	1	9
591.754	1	12
591.924	1	6
592.094	1	-3
592.264	1	16
592.434	1	-2
592.603	1	10
592.773	1	-7
592.943	1	2
593.113	1	1
593.283	1	-2
593.452	1	11
593.622	1	4
593.792	1	12
593.962	1	4
594.132	1	8
594.301	1	12
594.471	1	11
594.641	1	-5
594.811	1	6
594.981	1	2
595.150	1	5
595.320	1	13
595.490	1	13
595.660	1	9
595.829	1	-3
595.999	1	-3
596.169	1	7
596.339	1	1
596.509	1	0
596.678	1	-2
596.848	1	6
597.018	1	-6
597.188	1	3
597.358	1	3
597.527	1	-3
597.697	1	4
597.867	1	8
598.037	1	-3
598.206	1	7
598.376	1	15
598.546	1	10
598.716	1	13
598.885	1	-8
599.055	1	7
599.225	1	-7
599.395	1	3
599.565	1	-7
599.734	1	13
599.904	1	1
600.074	1	-1
600.244	1	1
600.413	1	15
600.583	1	16
600.753	1	2
600.923	1	2
601.092	1	21
601.262	1	10
601.432	1	-1
601.602	1	14
601.771	1	11
601.941	1	1
602.111	1	9
602.281	1	15
602.451	1	11
602.620	1	8
602.790	1	7
602.960	1	3
603.130	1	11
603.299	1	5
603.469	1	0
603.639	1	-6
603.809	1	13
603.978	1	8
604.148	1	6
604.318	1	7
604.487	1	1
604.657	1	6
604.827	1	10
604.997	1	4
605.166	1	7
605.336	1	-1
605.506	1	13
605.676	1	-5
605.845	1	5
606.015	1	2
606.185	1	8
606.355	1	8
606.524	1	3
606.694	1	0
606.864	1	1
607.034	1	-3
607.203	1	4
607.373	1	3
607.543	1	-1
607.712	1	-4
607.882	1	7
608.052	1	-5
608.222	1	4
608.391	1	7
608.561	1	12
608.731	1	6
608.901	1	7
609.070	1	9
609.240	1	-10
609.410	1	9
609.579	1	13
609.749	1	7
609.919	1	3
610.089	1	0
610.258	1	15
610.428	1	2
610.598	1	1
610.767	1	3
610.937	1	0
611.107	1	4
611.277	1	-3
611.446	1	8
611.616	1	-2
611.786	1	16
611.955	1	2
612.125	1	2
612.295	1	-3
612.465	1	9
612.634	1	-4
612.804	1	3
612.974	1	-4
613.143	1	8
613.313	1	9
613.483	1	8
613.652	1	18
613.822	1	3
613.992	1	1
614.162	1	21
614.331	1	0
614.501	1	4
614.671	1	10
614.840	1	0
615.010	1	-1
615.180	1	4
615.349	1	10
615.519	1	-6
615.689	1	15
615.858	1	2
616.028	1	3
616.198	1	11
616.368	1	7
616.537	1	4
616.707	1	5
616.877	1	2
617.046	1	-1
617.216	1	-1
617.386	1	14
617.555	1	4
617.725	1	-1
617.895	1	4
618.064	1	5
618.234	1	4
618.404	1	2
618.573	1	-3
618.743	1	2
618.913	1	12
619.082	1	3
619.252	1	2
619.422	1	4
619.591	1	-3
619.761	1	8
619.931	1	13
620.100	1	8
620.270	1	-20
620.440	1	6
620.609	1	3
620.779	1	-11
620.949	1	5
621.118	1	3
621.288	1	9
621.458	1	11
621.627	1	2
621.797	1	-9
621.967	1	7
622.136	1	17
622.306	1	-4
622.476	1	3
622.645	1	16
622.815	1	14
622.985	1	8
623.154	1	8
623.324	1	9
623.494	1	16
623.663	1	-5
623.833	1	6
624.002	1	-2
624.172	1	8
624.342	1	12
624.511	1	3
624.681	1	6
624.851	1	-7
625.020	1	4
625.190	1	-3
625.360	1	4
625.529	1	7
625.699	1	0
625.869	1	15
626.038	1	-11
626.208	1	2
626.377	1	16
626.547	1	11
626.717	1	6
626.886	1	5
627.056	1	-8
627.226	1	10
627.395	1	7
627.565	1	9
627.735	1	3
627.904	1	5
628.074	1	5
628.243	1	9
628.413	1	12
628.583	1	-6
628.752	1	4
628.922	1	1
629.091	1	2
629.261	1	2
629.431	1	1
629.600	1	15
629.770	1	-3
629.940	1	2
630.109	1	1
630.279	1	-3
630.448	1	-3
630.618	1	5
630.788	1	11
630.957	1	4
631.127	1	9
631.297	1	5
631.466	1	3
631.636	1	-10
631.805	1	3
631.975	1	15
632.145	1	-9
632.314	1	-1
632.484	1	-1
632.653	1	4
632.823	1	10
632.993	1	0
633.162	1	2
633.332	1	3
633.501	1	0
633.671	1	-3
633.841	1	-9
634.010	1	-5
634.180	1	4
634.349	1	9
634.519	1	3
634.689	1	3
634.858	1	1
635.028	1	14
635.197	1	16
635.367	1	2
635.537	1	3
635.706	1	2
635.876	1	-6
636.045	1	16
636.215	1	-2
636.384	1	6
636.554	1	8
636.724	1	6
636.893	1	7
637.063	1	1
637.232	1	-5
637.402	1	4
637.572	1	-3
637.741	1	0
637.911	1	-3
638.080	1	-3
638.250	1	5
638.419	1	-3
638.589	1	-1
638.759	1	-8
638.928	1	10
639.098	1	6
639.267	1	3
639.437	1	4
639.606	1	6
639.776	1	-5
639.946	1	4
640.115	1	6
640.285	1	4
640.454	1	-5
640.624	1	6
640.793	1	12
640.963	1	2
641.132	1	7
641.302	1	-3
641.472	1	8
641.641	1	-9
641.811	1	6
641.980	1	11
642.150	1	-3
642.319	1	-7
642.489	1	10
642.659	1	0
642.828	1	-8
642.998	1	0
643.167	1	1
643.337	1	4
643.506	1	-5
643.676	1	9
643.845	1	2
644.015	1	2
644.184	1	11
644.354	1	-5
644.524	1	2
644.693	1	9
644.863	1	2
645.032	1	-4
645.202	1	-2
645.371	1	12
645.541	1	4
645.710	1	5
645.880	1	6
646.049	1	-9
646.219	1	14
646.388	1	1
646.558	1	-5
646.728	1	-1
646.897	1	4
647.067	1	7
647.236	1	1
647.406	1	2
647.575	1	9
647.745	1	-2
647.914	1	5
648.084	1	-2
648.253	1	9
648.423	1	6
648.592	1	4
648.762	1	7
648.931	1	17
649.101	1	4
649.270	1	-2
649.440	1	1
649.610	1	0
649.779	1	1
649.949	1	-9
650.118	1	10
650.288	1	4
650.457	1	9
650.627	1	12
650.796	1	1
650.966	1	8
651.135	1	-3
651.305	1	6
651.474	1	-2
651.644	1	14
651.813	1	0
651.983	1	7
652.152	1	5
652.322	1	7
652.491	1	-2
652.661	1	4
652.830	1	4
653.000	1	0
653.169	1	5
653.339	1	9
653.508	1	3
653.678	1	1
653.847	1	14
654.017	1	-2
654.186	1	0
654.356	1	-2
654.525	1	3
654.695	1	4
654.864	1	4
655.034	1	1
655.203	1	-2
655.373	1	12
655.542	1	10
655.712	1	-1
655.881	1	1
656.051	1	2
656.220	1	-4
656.390	1	-7
656.559	1	5
656.729	1	14
656.898	1	-8
657.068	1	8
657.237	1	-6
657.406	1	7
657.576	1	-3
657.745	1	-6
657.915	1	-2
658.084	1	8
658.254	1	-5
658.423	1	12
658.593	1	3
658.762	1	-9
658.932	1	11
659.101	1	7
659.271	1	0
659.440	1	5
659.610	1	-1
659.779	1	8
659.949	1	-6
660.118	1	11
660.288	1	8
660.457	1	4
660.626	1	5
660.796	1	-4
660.965	1	9
661.135	1	-2
661.304	1	-6
661.474	1	-1
661.643	1	7
661.813	1	9
661.982	1	13
662.152	1	4
662.321	1	9
662.491	1	-2
662.660	1	13
662.829	1	-10
662.999	1	-5
663.168	1	10
663.338	1	13
663.507	1	14
663.677	1	7
663.846	1	-2
664.016	1	-3
664.185	1	0
664.354	1	12
664.524	1	8
664.693	1	5
664.863	1	-4
665.032	1	13
665.202	1	6
665.371	1	2
665.541	1	-8
665.710	1	3
665.879	1	1
666.049	1	-7
666.218	1	0
666.388	1	15
666.557	1	-9
666.727	1	-5
666.896	1	3
667.065	1	11
667.235	1	-3
667.404	1	11
667.574	1	-1
667.743	1	4
667.913	1	3
668.082	1	3
668.251	1	-6
668.421	1	5
668.590	1	-6
668.760	1	-1
668.929	1	-7
669.099	1	4
669.268	1	2
669.437	1	4
669.607	1	1
669.776	1	1
669.946	1	2
670.115	1	2
670.285	1	-1
670.454	1	1
670.623	1	1
670.793	1	5
670.962	1	-9
671.132	1	6
671.301	1	-2
671.470	1	4
671.640	1	10
671.809	1	7
671.979	1	-5
672.148	1	14
672.317	1	6
672.487	1	7
672.656	1	5
672.826	1	-2
672.995	1	12
673.164	1	6
673.334	1	1
673.503	1	2
673.673	1	7
673.842	1	0
674.011	1	-2
674.181	1	8
674.350	1	19
674.520	1	-4
674.689	1	-1
674.858	1	13
675.028	1	-3
675.197	1	-5
675.367	1	7
675.536	1	8
675.705	1	12
675.875	1	2
676.044	1	6
676.214	1	1
676.383	1	-4
676.552	1	6
676.722	1	6
676.891	1	17
677.060	1	1
677.230	1	-1
677.399	1	-3
677.569	1	6
677.738	1	-1
677.907	1	5
678.077	1	5
678.246	1	-6
678.416	1	2
678.585	1	2
678.754	1	-1
678.924	1	0
679.093	1	16
679.262	1	6
679.432	1	7
679.601	1	1
679.771	1	13
679.940	1	-1
680.109	1	14
680.279	1	-3
680.448	1	11
680.617	1	-7
680.787	1	8
680.956	1	16
681.125	1	6
681.295	1	-2
681.464	1	-1
681.634	1	6
681.803	1	0
681.972	1	-3
682.142	1	11
682.311	1	12
682.480	1	16
682.650	1	7
682.819	1	-1
682.988	1	-8
683.158	1	-1
683.327	1	-7
683.496	1	8
683.666	1	-4
683.835	1	7
684.004	1	5
684.174	1	9
684.343	1	-7
684.512	1	10
684.682	1	-8
684.851	1	0
685.021	1	-4
685.190	1	2
685.359	1	8
685.529	1	10
685.698	1	6
685.867	1	7
686.037	1	3
686.206	1	-2
686.375	1	16
686.545	1	2
686.714	1	-5
686.883	1	5
687.053	1	9
687.222	1	3
687.391	1	3
687.561	1	14
687.730	1	0
687.899	1	3
688.069	1	2
688.238	1	1
688.407	1	-3
688.577	1	-4
688.746	1	-1
