340.368	1	-1
340.539	1	-11
340.710	1	-6
340.881	1	-6
341.052	1	12
341.223	1	-1
341.394	1	-7
341.565	1	-8
341.737	1	2
341.908	1	6
342.079	1	-1
342.250	1	-5
342.421	1	8
342.592	1	6
342.763	1	18
342.934	1	-5
343.105	1	4
343.276	1	8
343.447	1	3
343.618	1	5
343.789	1	3
343.960	1	-3
344.131	1	-3
344.302	1	-1
344.473	1	1
344.644	1	9
344.815	1	4
344.986	1	-2
345.157	1	1
345.328	1	8
345.499	1	-9
345.670	1	-10
345.841	1	10
346.012	1	5
346.183	1	5
346.354	1	3
346.526	1	-1
346.697	1	-5
346.868	1	14
347.039	1	7
347.210	1	-11
347.381	1	5
347.552	1	-8
347.723	1	-3
347.894	1	5
348.065	1	5
348.236	1	10
348.407	1	8
348.578	1	8
348.749	1	-5
348.920	1	2
349.091	1	-4
349.262	1	-5
349.433	1	7
349.604	1	8
349.775	1	14
349.946	1	-3
350.117	1	-1
350.288	1	-2
350.459	1	2
350.630	1	1
350.801	1	5
350.972	1	7
351.143	1	9
351.314	1	4
351.485	1	3
351.656	1	8
351.827	1	7
351.998	1	6
352.169	1	-6
352.340	1	13
352.511	1	4
352.682	1	12
352.853	1	3
353.024	1	7
353.195	1	5
353.366	1	11
353.537	1	2
353.708	1	11
353.879	1	8
354.050	1	3
354.221	1	-2
354.392	1	0
354.563	1	2
354.734	1	11
354.905	1	7
355.076	1	10
355.247	1	10
355.418	1	-9
355.589	1	4
355.760	1	0
355.931	1	9
356.102	1	9
356.273	1	0
356.444	1	6
356.615	1	-3
356.785	1	13
356.956	1	15
357.127	1	4
357.298	1	10
357.469	1	9
357.640	1	9
357.811	1	14
357.982	1	6
358.153	1	16
358.324	1	-1
358.495	1	10
358.666	1	13
358.837	1	4
359.008	1	6
359.179	1	13
359.350	1	14
359.521	1	14
359.692	1	14
359.863	1	8
360.034	1	2
360.205	1	9
360.376	1	18
360.547	1	21
360.718	1	12
360.889	1	14
361.060	1	13
361.231	1	18
361.401	1	16
361.572	1	23
361.743	1	9
361.914	1	17
362.085	1	27
362.256	1	14
362.427	1	27
362.598	1	16
362.769	1	12
362.940	1	21
363.111	1	25
363.282	1	30
363.453	1	20
363.624	1	27
363.795	1	20
363.966	1	29
364.137	1	24
364.308	1	19
364.478	1	31
364.649	1	27
364.820	1	23
364.991	1	35
365.162	1	40
365.333	1	22
365.504	1	42
365.675	1	35
365.846	1	49
366.017	1	33
366.188	1	40
366.359	1	39
366.530	1	54
366.701	1	49
366.871	1	44
367.042	1	53
367.213	1	59
367.384	1	60
367.555	1	47
367.726	1	49
367.897	1	60
368.068	1	67
368.239	1	63
368.410	1	79
368.581	1	53
368.752	1	57
368.923	1	66
369.093	1	53
369.264	1	66
369.435	1	63
369.606	1	58
369.777	1	68
369.948	1	57
370.119	1	59
370.290	1	54
370.461	1	68
370.632	1	64
370.803	1	63
370.973	1	61
371.144	1	58
371.315	1	51
371.486	1	65
371.657	1	59
371.828	1	59
371.999	1	60
372.170	1	55
372.341	1	57
372.512	1	54
372.682	1	54
372.853	1	43
373.024	1	54
373.195	1	43
373.366	1	52
373.537	1	49
373.708	1	41
373.879	1	41
374.050	1	40
374.220	1	53
374.391	1	33
374.562	1	46
374.733	1	44
374.904	1	34
375.075	1	40
375.246	1	40
375.417	1	36
375.588	1	39
375.758	1	34
375.929	1	37
376.100	1	47
376.271	1	40
376.442	1	29
376.613	1	32
376.784	1	38
376.955	1	28
377.125	1	33
377.296	1	24
377.467	1	23
377.638	1	27
377.809	1	34
377.980	1	36
378.151	1	37
378.321	1	17
378.492	1	22
378.663	1	27
378.834	1	25
379.005	1	34
379.176	1	24
379.347	1	20
379.518	1	30
379.688	1	37
379.859	1	21
380.030	1	21
380.201	1	14
380.372	1	16
380.543	1	33
380.714	1	20
380.884	1	15
381.055	1	31
381.226	1	12
381.397	1	8
381.568	1	28
381.739	1	11
381.910	1	19
382.080	1	13
382.251	1	7
382.422	1	20
382.593	1	18
382.764	1	15
382.935	1	7
383.105	1	8
383.276	1	10
383.447	1	12
383.618	1	17
383.789	1	10
383.960	1	17
384.130	1	22
384.301	1	7
384.472	1	18
384.643	1	30
384.814	1	13
384.985	1	2
385.156	1	12
385.326	1	19
385.497	1	12
385.668	1	10
385.839	1	10
386.010	1	9
386.180	1	12
386.351	1	10
386.522	1	19
386.693	1	0
386.864	1	22
387.035	1	8
387.205	1	7
387.376	1	14
387.547	1	9
387.718	1	8
387.889	1	10
388.060	1	21
388.230	1	19
388.401	1	3
388.572	1	3
388.743	1	9
388.914	1	9
389.084	1	0
389.255	1	7
389.426	1	1
389.597	1	9
389.768	1	11
389.939	1	17
390.109	1	-1
390.280	1	17
390.451	1	5
390.622	1	3
390.793	1	7
390.963	1	15
391.134	1	8
391.305	1	10
391.476	1	7
391.647	1	9
391.817	1	5
391.988	1	6
392.159	1	10
392.330	1	16
392.501	1	2
392.671	1	-3
392.842	1	3
393.013	1	8
393.184	1	12
393.355	1	1
393.525	1	5
393.696	1	4
393.867	1	3
394.038	1	1
394.208	1	16
394.379	1	6
394.550	1	11
394.721	1	3
394.892	1	4
395.062	1	4
395.233	1	5
395.404	1	4
395.575	1	12
395.746	1	12
395.916	1	8
396.087	1	4
396.258	1	9
396.429	1	5
396.599	1	-5
396.770	1	-3
396.941	1	4
397.112	1	11
397.283	1	5
397.453	1	10
397.624	1	4
397.795	1	12
397.966	1	2
398.136	1	-2
398.307	1	8
398.478	1	3
398.649	1	-8
398.819	1	9
398.990	1	11
399.161	1	19
399.332	1	7
399.503	1	3
399.673	1	4
399.844	1	1
400.015	1	0
400.186	1	5
400.356	1	-11
400.527	1	6
400.698	1	2
400.869	1	16
401.039	1	12
401.210	1	4
401.381	1	-6
401.552	1	-4
401.722	1	12
401.893	1	4
402.064	1	2
402.235	1	5
402.405	1	2
402.576	1	8
402.747	1	-4
402.918	1	11
403.088	1	12
403.259	1	15
403.430	1	0
403.601	1	8
403.771	1	5
403.942	1	8
404.113	1	-1
404.284	1	6
404.454	1	7
404.625	1	7
404.796	1	4
404.967	1	7
405.137	1	17
405.308	1	7
405.479	1	-2
405.649	1	9
405.820	1	-7
405.991	1	4
406.162	1	4
406.332	1	8
406.503	1	1
406.674	1	-2
406.845	1	10
407.015	1	8
407.186	1	5
407.357	1	-1
407.527	1	-10
407.698	1	9
407.869	1	4
408.040	1	0
408.210	1	-2
408.381	1	7
408.552	1	-5
408.722	1	-8
408.893	1	-2
409.064	1	3
409.235	1	-4
409.405	1	1
409.576	1	-4
409.747	1	4
409.917	1	1
410.088	1	4
410.259	1	-1
410.430	1	11
410.600	1	2
410.771	1	11
410.942	1	8
411.112	1	2
411.283	1	5
411.454	1	-8
411.625	1	1
411.795	1	-12
411.966	1	3
412.137	1	9
412.307	1	5
412.478	1	17
412.649	1	-2
412.819	1	-8
412.990	1	7
413.161	1	6
413.332	1	4
413.502	1	0
413.673	1	1
413.844	1	6
414.014	1	10
414.185	1	2
414.356	1	7
414.526	1	4
414.697	1	6
414.868	1	3
415.038	1	7
415.209	1	-1
415.380	1	-5
415.550	1	-4
415.721	1	-4
415.892	1	6
416.063	1	-2
416.233	1	8
416.404	1	0
416.575	1	16
416.745	1	3
416.916	1	-8
417.087	1	3
417.257	1	3
417.428	1	0
417.599	1	5
417.769	1	6
417.940	1	3
418.111	1	7
418.281	1	1
418.452	1	-6
418.623	1	3
418.793	1	-3
418.964	1	-1
419.135	1	-6
419.305	1	5
419.476	1	5
419.647	1	-1
419.817	1	15
419.988	1	6
420.159	1	-2
420.329	1	-3
420.500	1	1
420.671	1	4
420.841	1	21
421.012	1	1
421.183	1	3
421.353	1	10
421.524	1	-4
421.695	1	3
421.865	1	9
422.036	1	2
422.206	1	4
422.377	1	-3
422.548	1	-4
422.718	1	4
422.889	1	-3
423.060	1	3
423.230	1	3
423.401	1	4
423.572	1	-3
423.742	1	-2
423.913	1	0
424.084	1	-3
424.254	1	5
424.425	1	-3
424.595	1	3
424.766	1	-1
424.937	1	3
425.107	1	-3
425.278	1	16
425.449	1	-3
425.619	1	3
425.790	1	-11
425.961	1	2
426.131	1	-2
426.302	1	0
426.472	1	8
426.643	1	9
426.814	1	6
426.984	1	9
427.155	1	-5
427.326	1	5
427.496	1	-1
427.667	1	1
427.837	1	-3
428.008	1	14
428.179	1	-9
428.349	1	-9
428.520	1	6
428.691	1	8
428.861	1	-7
429.032	1	2
429.202	1	-1
429.373	1	4
429.544	1	-3
429.714	1	-2
429.885	1	4
430.055	1	5
430.226	1	-3
430.397	1	4
430.567	1	4
430.738	1	0
430.909	1	3
431.079	1	-2
431.250	1	5
431.420	1	0
431.591	1	8
431.762	1	5
431.932	1	-2
432.103	1	2
432.273	1	-8
432.444	1	9
432.615	1	-5
432.785	1	13
432.956	1	2
433.126	1	-2
433.297	1	6
433.468	1	-11
433.638	1	-4
433.809	1	2
433.979	1	9
434.150	1	2
434.320	1	2
434.491	1	2
434.662	1	6
434.832	1	10
435.003	1	6
435.173	1	-9
435.344	1	7
435.515	1	5
435.685	1	6
435.856	1	3
436.026	1	1
436.197	1	0
436.368	1	-3
436.538	1	-10
436.709	1	-2
436.879	1	-9
437.050	1	-5
437.220	1	5
437.391	1	11
437.562	1	7
437.732	1	-3
437.903	1	-10
438.073	1	-6
438.244	1	1
438.414	1	-5
438.585	1	1
438.756	1	-6
438.926	1	0
439.097	1	-3
439.267	1	3
439.438	1	0
439.608	1	-10
439.779	1	5
439.949	1	0
440.120	1	-5
440.291	1	6
440.461	1	-2
440.632	1	6
440.802	1	5
440.973	1	-15
441.143	1	4
441.314	1	-2
441.485	1	1
441.655	1	13
441.826	1	-7
441.996	1	2
442.167	1	3
442.337	1	0
442.508	1	1
442.678	1	-6
442.849	1	13
443.019	1	1
443.190	1	7
443.361	1	-11
443.531	1	13
443.702	1	-1
443.872	1	2
444.043	1	6
444.213	1	0
444.384	1	-10
444.554	1	15
444.725	1	-4
444.895	1	-1
445.066	1	-6
445.237	1	-1
445.407	1	2
445.578	1	-7
445.748	1	4
445.919	1	-5
446.089	1	5
446.260	1	3
446.430	1	1
446.601	1	-3
446.771	1	17
446.942	1	6
447.112	1	-2
447.283	1	0
447.453	1	-5
447.624	1	-2
447.794	1	2
447.965	1	7
448.135	1	-4
448.306	1	-2
448.477	1	1
448.647	1	5
448.818	1	3
448.988	1	-4
449.159	1	-6
449.329	1	7
449.500	1	-4
449.670	1	6
449.841	1	4
450.011	1	12
450.182	1	-2
450.352	1	3
450.523	1	-11
450.693	1	-7
450.864	1	-6
451.034	1	0
451.205	1	12
451.375	1	5
451.546	1	1
451.716	1	-1
451.887	1	-12
452.057	1	0
452.228	1	1
452.398	1	-9
452.569	1	-7
452.739	1	8
452.910	1	-1
453.080	1	8
453.251	1	0
453.421	1	-2
453.592	1	8
453.762	1	0
453.933	1	-5
454.103	1	7
454.274	1	-5
454.444	1	-2
454.615	1	9
454.785	1	5
454.956	1	-9
455.126	1	-4
455.297	1	12
455.467	1	4
455.638	1	-2
455.808	1	-5
455.979	1	-4
456.149	1	3
456.320	1	5
456.490	1	3
456.661	1	10
456.831	1	7
457.001	1	-1
457.172	1	-9
457.342	1	0
457.513	1	4
457.683	1	2
457.854	1	4
458.024	1	11
458.195	1	-9
458.365	1	-4
458.536	1	5
458.706	1	8
458.877	1	7
459.047	1	6
459.218	1	2
459.388	1	6
459.559	1	9
459.729	1	10
459.899	1	-1
460.070	1	1
460.240	1	3
460.411	1	3
460.581	1	11
460.752	1	-4
460.922	1	4
461.093	1	3
461.263	1	-10
461.434	1	-5
461.604	1	0
461.775	1	1
461.945	1	4
462.115	1	5
462.286	1	6
462.456	1	-2
462.627	1	1
462.797	1	-4
462.968	1	-1
463.138	1	2
463.309	1	-9
463.479	1	3
463.649	1	-1
463.820	1	5
463.990	1	-9
464.161	1	3
464.331	1	-5
464.502	1	7
464.672	1	-2
464.843	1	4
465.013	1	-2
465.183	1	-12
465.354	1	6
465.524	1	2
465.695	1	5
465.865	1	0
466.036	1	-9
466.206	1	13
466.376	1	-5
466.547	1	-1
466.717	1	0
466.888	1	2
467.058	1	6
467.229	1	5
467.399	1	8
467.569	1	18
467.740	1	10
467.910	1	8
468.081	1	-1
468.251	1	2
468.422	1	0
468.592	1	5
468.762	1	-5
468.933	1	0
469.103	1	0
469.274	1	6
469.444	1	-1
469.614	1	2
469.785	1	-11
469.955	1	2
470.126	1	-4
470.296	1	-2
470.467	1	-6
470.637	1	3
470.807	1	9
470.978	1	4
471.148	1	1
471.319	1	-1
471.489	1	1
471.659	1	-1
471.830	1	-7
472.000	1	-4
472.171	1	1
472.341	1	1
472.511	1	-4
472.682	1	0
472.852	1	-2
473.023	1	10
473.193	1	4
473.363	1	7
473.534	1	12
473.704	1	1
473.875	1	19
474.045	1	-2
474.215	1	10
474.386	1	6
474.556	1	6
474.727	1	3
474.897	1	6
475.067	1	4
475.238	1	-2
475.408	1	-2
475.578	1	-9
475.749	1	-6
475.919	1	2
476.090	1	2
476.260	1	5
476.430	1	-3
476.601	1	5
476.771	1	-8
476.942	1	9
477.112	1	-1
477.282	1	-8
477.453	1	-5
477.623	1	-8
477.793	1	-1
477.964	1	-1
478.134	1	-4
478.305	1	-1
478.475	1	4
478.645	1	6
478.816	1	-4
478.986	1	0
479.156	1	5
479.327	1	-7
479.497	1	-10
479.667	1	-2
479.838	1	-8
480.008	1	0
480.179	1	3
480.349	1	3
480.519	1	3
480.690	1	-3
480.860	1	2
481.030	1	-4
481.201	1	-7
481.371	1	7
481.541	1	3
481.712	1	2
481.882	1	13
482.053	1	6
482.223	1	4
482.393	1	2
482.564	1	9
482.734	1	-13
482.904	1	-12
483.075	1	5
483.245	1	6
483.415	1	4
483.586	1	2
483.756	1	7
483.926	1	0
484.097	1	0
484.267	1	-5
484.437	1	-1
484.608	1	1
484.778	1	4
484.948	1	-7
485.119	1	-6
485.289	1	4
485.459	1	21
485.630	1	-8
485.800	1	4
485.970	1	-3
486.141	1	-2
486.311	1	-4
486.481	1	3
486.652	1	16
486.822	1	1
486.992	1	10
487.163	1	-1
487.333	1	8
487.503	1	0
487.674	1	3
487.844	1	1
488.014	1	0
488.185	1	4
488.355	1	6
488.525	1	7
488.696	1	-6
488.866	1	6
489.036	1	11
489.207	1	-10
489.377	1	3
489.547	1	2
489.718	1	2
489.888	1	0
490.058	1	0
490.228	1	8
490.399	1	-2
490.569	1	15
490.739	1	1
490.910	1	2
491.080	1	5
491.250	1	6
491.421	1	8
491.591	1	-2
491.761	1	3
491.932	1	1
492.102	1	6
492.272	1	6
492.442	1	2
492.613	1	0
492.783	1	4
492.953	1	-3
493.124	1	10
493.294	1	2
493.464	1	9
493.635	1	1
493.805	1	-1
493.975	1	7
494.145	1	8
494.316	1	9
494.486	1	7
494.656	1	-4
494.827	1	8
494.997	1	4
495.167	1	5
495.337	1	4
495.508	1	4
495.678	1	5
495.848	1	14
496.019	1	2
496.189	1	7
496.359	1	-7
496.529	1	1
496.700	1	5
496.870	1	14
497.040	1	3
497.211	1	-2
497.381	1	2
497.551	1	-4
497.721	1	6
497.892	1	-2
498.062	1	10
498.232	1	3
498.403	1	-3
498.573	1	-8
498.743	1	1
498.913	1	8
499.084	1	0
499.254	1	4
499.424	1	3
499.594	1	20
499.765	1	2
499.935	1	2
500.105	1	3
500.275	1	-1
500.446	1	-1
500.616	1	2
500.786	1	-4
500.956	1	7
501.127	1	4
501.297	1	8
501.467	1	-7
501.638	1	-10
501.808	1	10
501.978	1	10
502.148	1	5
502.319	1	3
502.489	1	6
502.659	1	15
502.829	1	0
503.000	1	4
503.170	1	11
503.340	1	12
503.510	1	5
503.681	1	-6
503.851	1	6
504.021	1	2
504.191	1	11
504.362	1	-3
504.532	1	9
504.702	1	-6
504.872	1	8
505.042	1	-6
505.213	1	10
505.383	1	5
505.553	1	3
505.723	1	-2
505.894	1	-2
506.064	1	4
506.234	1	17
506.404	1	3
506.575	1	9
506.745	1	11
506.915	1	6
507.085	1	-6
507.256	1	3
507.426	1	-1
507.596	1	3
507.766	1	-1
507.936	1	8
508.107	1	-3
508.277	1	-5
508.447	1	13
508.617	1	12
508.788	1	11
508.958	1	1
509.128	1	4
509.298	1	8
509.468	1	7
509.639	1	3
509.809	1	9
509.979	1	-4
510.149	1	10
510.319	1	6
510.490	1	11
510.660	1	3
510.830	1	5
511.000	1	5
511.171	1	-5
511.341	1	2
511.511	1	6
511.681	1	6
511.851	1	3
512.022	1	1
512.192	1	12
512.362	1	-4
512.532	1	-2
512.702	1	3
512.873	1	11
513.043	1	9
513.213	1	-3
513.383	1	-12
513.553	1	-11
513.724	1	11
513.894	1	3
514.064	1	14
514.234	1	-5
514.404	1	3
514.575	1	16
514.745	1	-7
514.915	1	2
515.085	1	5
515.255	1	0
515.425	1	-3
515.596	1	6
515.766	1	7
515.936	1	8
516.106	1	2
516.276	1	-6
516.447	1	16
516.617	1	12
516.787	1	9
516.957	1	-3
517.127	1	1
517.297	1	0
517.468	1	4
517.638	1	10
517.808	1	-3
517.978	1	4
518.148	1	7
518.319	1	11
518.489	1	0
518.659	1	-4
518.829	1	2
518.999	1	2
519.169	1	2
519.340	1	8
519.510	1	-1
519.680	1	12
519.850	1	11
520.020	1	0
520.190	1	2
520.361	1	8
520.531	1	3
520.701	1	4
520.871	1	7
521.041	1	13
521.211	1	1
521.382	1	-9
521.552	1	14
521.722	1	6
521.892	1	13
522.062	1	12
522.232	1	0
522.402	1	7
522.573	1	-2
522.743	1	-1
522.913	1	-1
523.083	1	7
523.253	1	3
523.423	1	17
523.593	1	-5
523.764	1	9
523.934	1	2
524.104	1	10
524.274	1	3
524.444	1	2
524.614	1	1
524.784	1	6
524.955	1	7
525.125	1	7
525.295	1	7
525.465	1	14
525.635	1	6
525.805	1	-11
525.975	1	14
526.146	1	14
526.316	1	12
526.486	1	8
526.656	1	-6
526.826	1	-1
526.996	1	13
527.166	1	5
527.337	1	8
527.507	1	9
527.677	1	8
527.847	1	3
528.017	1	7
528.187	1	2
528.357	1	7
528.527	1	10
528.698	1	7
528.868	1	13
529.038	1	-2
529.208	1	2
529.378	1	13
529.548	1	6
529.718	1	5
529.888	1	6
530.058	1	0
530.229	1	6
530.399	1	10
530.569	1	-9
530.739	1	2
530.909	1	-5
531.079	1	11
531.249	1	-3
531.419	1	13
531.589	1	11
531.760	1	10
531.930	1	0
532.100	1	4
532.270	1	5
532.440	1	4
532.610	1	4
532.780	1	0
532.950	1	-5
533.120	1	13
533.290	1	9
533.461	1	7
533.631	1	21
533.801	1	13
533.971	1	-4
534.141	1	-4
534.311	1	15
534.481	1	-8
534.651	1	-5
534.821	1	8
534.991	1	5
535.162	1	-3
535.332	1	8
535.502	1	5
535.672	1	12
535.842	1	14
536.012	1	7
536.182	1	4
536.352	1	0
536.522	1	-10
536.692	1	6
536.862	1	-1
537.032	1	15
537.203	1	-2
537.373	1	15
537.543	1	5
537.713	1	10
537.883	1	3
538.053	1	4
538.223	1	6
538.393	1	8
538.563	1	12
538.733	1	6
538.903	1	-2
539.073	1	11
539.243	1	-2
539.413	1	2
539.584	1	5
539.754	1	11
539.924	1	11
540.094	1	8
540.264	1	-4
540.434	1	7
540.604	1	8
540.774	1	5
540.944	1	1
541.114	1	0
541.284	1	11
541.454	1	-1
541.624	1	3
541.794	1	3
541.964	1	19
542.134	1	11
542.305	1	7
542.475	1	10
542.645	1	12
542.815	1	0
542.985	1	4
543.155	1	4
543.325	1	-5
543.495	1	3
543.665	1	13
543.835	1	16
544.005	1	11
544.175	1	-3
544.345	1	14
544.515	1	7
544.685	1	-2
544.855	1	6
545.025	1	13
545.195	1	0
545.365	1	5
545.535	1	12
545.705	1	10
545.875	1	-7
546.045	1	1
546.216	1	14
546.386	1	13
546.556	1	-12
546.726	1	-4
546.896	1	5
547.066	1	4
547.236	1	13
547.406	1	16
547.576	1	17
547.746	1	-7
547.916	1	1
548.086	1	8
548.256	1	8
548.426	1	0
548.596	1	4
548.766	1	8
548.936	1	10
549.106	1	5
549.276	1	4
549.446	1	7
549.616	1	7
549.786	1	6
549.956	1	11
550.126	1	15
550.296	1	10
550.466	1	8
550.636	1	13
550.806	1	4
550.976	1	11
551.146	1	11
551.316	1	9
551.486	1	2
551.656	1	9
551.826	1	-4
551.996	1	19
552.166	1	3
552.336	1	1
552.506	1	18
552.676	1	13
552.846	1	2
553.016	1	13
553.186	1	9
553.356	1	6
553.526	1	6
553.696	1	14
553.866	1	3
554.036	1	7
554.206	1	10
554.376	1	12
554.546	1	8
554.716	1	7
554.886	1	9
555.056	1	7
555.226	1	-12
555.396	1	-4
555.566	1	8
555.736	1	10
555.906	1	3
556.076	1	6
556.246	1	3
556.416	1	0
556.586	1	1
556.756	1	6
556.926	1	6
557.096	1	4
557.266	1	2
557.436	1	10
557.606	1	16
557.776	1	18
557.946	1	7
558.116	1	7
558.286	1	7
558.456	1	7
558.626	1	4
558.796	1	11
558.966	1	5
559.136	1	5
559.306	1	2
559.476	1	-3
559.646	1	6
559.816	1	-2
559.986	1	8
560.155	1	12
560.325	1	8
560.495	1	6
560.665	1	10
560.835	1	14
561.005	1	3
561.175	1	5
561.345	1	1
561.515	1	9
561.685	1	5
561.855	1	-3
562.025	1	6
562.195	1	9
562.365	1	11
562.535	1	8
562.705	1	3
562.875	1	7
563.045	1	1
563.215	1	8
563.385	1	2
563.555	1	-4
563.725	1	9
563.895	1	1
564.064	1	9
564.234	1	6
564.404	1	4
564.574	1	10
564.744	1	15
564.914	1	7
565.084	1	0
565.254	1	15
565.424	1	6
565.594	1	11
565.764	1	1
565.934	1	11
566.104	1	10
566.274	1	11
566.444	1	-6
566.614	1	-1
566.783	1	-4
566.953	1	10
567.123	1	4
567.293	1	15
567.463	1	19
567.633	1	12
567.803	1	-4
567.973	1	5
568.143	1	6
568.313	1	10
568.483	1	6
568.653	1	4
568.823	1	4
568.993	1	13
569.162	1	2
569.332	1	2
569.502	1	8
569.672	1	8
569.842	1	12
570.012	1	12
570.182	1	5
570.352	1	14
570.522	1	1
570.692	1	10
570.862	1	9
571.031	1	-1
571.201	1	13
571.371	1	-3
571.541	1	11
571.711	1	7
571.881	1	24
572.051	1	6
572.221	1	-2
572.391	1	-1
572.561	1	4
572.731	1	11
572.900	1	1
573.070	1	6
573.240	1	1
573.410	1	13
573.580	1	1
573.750	1	2
573.920	1	5
574.090	1	9
574.260	1	9
574.430	1	13
574.599	1	2
574.769	1	-7
574.939	1	7
575.109	1	12
575.279	1	15
575.449	1	0
575.619	1	14
575.789	1	3
575.959	1	0
576.128	1	-1
576.298	1	21
576.468	1	3
576.638	1	7
576.808	1	-1
576.978	1	2
577.148	1	16
577.318	1	13
577.487	1	13
577.657	1	-1
577.827	1	-8
577.997	1	-1
578.167	1	2
578.337	1	19
578.507	1	13
578.677	1	12
578.846	1	8
579.016	1	24
579.186	1	4
579.356	1	1
579.526	1	6
579.696	1	11
579.866	1	12
580.036	1	-3
580.205	1	9
580.375	1	7
580.545	1	12
580.715	1	7
580.885	1	6
581.055	1	8
581.225	1	13
581.394	1	4
581.564	1	6
581.734	1	9
581.904	1	7
582.074	1	-4
582.244	1	6
582.414	1	18
582.583	1	15
582.753	1	-4
582.923	1	0
583.093	1	2
583.263	1	2
583.433	1	3
583.603	1	8
583.772	1	10
583.942	1	-4
584.112	1	10
584.282	1	-2
584.452	1	4
584.622	1	-1
584.791	1	2
584.961	1	10
585.131	1	2
585.301	1	-2
585.471	1	13
585.641	1	4
585.811	1	5
585.980	1	17
586.150	1	5
586.320	1	-3
586.490	1	6
586.660	1	18
586.830	1	-1
586.999	1	3
587.169	1	3
587.339	1	4
587.509	1	6
587.679	1	14
587.849	1	5
588.018	1	5
588.188	1	15
588.358	1	1
588.528	1	4
588.698	1	18
588.867	1	10
589.037	1	8
589.207	1	8
589.377	1	2
589.547	1	7
589.717	1	10
589.886	1	-4
590.056	1	6
590.226	1	12
590.396	1	7
590.566	1	-6
590.735	1	1
590.905	1	-1
591.075	1	7
591.245	1	-9
591.415	1	4
591.585	1	6
591.754	1	11
591.924	1	2
592.094	1	10
592.264	1	14
592.434	1	1
592.603	1	9
592.773	1	1
592.943	1	6
593.113	1	8
593.283	1	1
593.452	1	3
593.622	1	13
593.792	1	11
593.962	1	9
594.132	1	6
594.301	1	10
594.471	1	12
594.641	1	4
594.811	1	1
594.981	1	-5
595.150	1	0
595.320	1	4
595.490	1	11
595.660	1	8
595.829	1	8
595.999	1	-7
596.169	1	6
596.339	1	6
596.509	1	3
596.678	1	4
596.848	1	7
597.018	1	-3
597.188	1	4
597.358	1	14
597.527	1	-11
597.697	1	1
597.867	1	2
598.037	1	6
598.206	1	1
598.376	1	0
598.546	1	2
598.716	1	10
598.885	1	-6
599.055	1	13
599.225	1	-1
599.395	1	8
599.565	1	-7
599.734	1	7
599.904	1	3
600.074	1	4
600.244	1	-9
600.413	1	16
600.583	1	17
600.753	1	11
600.923	1	6
601.092	1	16
601.262	1	6
601.432	1	-4
601.602	1	4
601.771	1	6
601.941	1	8
602.111	1	3
602.281	1	14
602.451	1	16
602.620	1	2
602.790	1	8
602.960	1	1
603.130	1	9
603.299	1	3
603.469	1	3
603.639	1	-4
603.809	1	15
603.978	1	4
604.148	1	13
604.318	1	6
604.487	1	5
604.657	1	13
604.827	1	5
604.997	1	8
605.166	1	14
605.336	1	7
605.506	1	12
605.676	1	-3
605.845	1	3
606.015	1	4
606.185	1	5
606.355	1	12
606.524	1	-1
606.694	1	-1
606.864	1	4
607.034	1	-8
607.203	1	3
607.373	1	0
607.543	1	-7
607.712	1	-6
607.882	1	7
608.052	1	-5
608.222	1	8
608.391	1	12
608.561	1	3
608.731	1	6
608.901	1	11
609.070	1	14
609.240	1	-4
609.410	1	12
609.579	1	10
609.749	1	11
609.919	1	20
610.089	1	5
610.258	1	9
610.428	1	1
610.598	1	12
610.767	1	3
610.937	1	1
611.107	1	5
611.277	1	0
611.446	1	11
611.616	1	13
611.786	1	12
611.955	1	2
612.125	1	4
612.295	1	-2
612.465	1	4
612.634	1	1
612.804	1	13
612.974	1	-2
613.143	1	-4
613.313	1	8
613.483	1	11
613.652	1	9
613.822	1	-1
613.992	1	6
614.162	1	13
614.331	1	3
614.501	1	6
614.671	1	12
614.840	1	2
615.010	1	1
615.180	1	3
615.349	1	10
615.519	1	-7
615.689	1	6
615.858	1	-3
616.028	1	11
616.198	1	11
616.368	1	13
616.537	1	-3
616.707	1	-2
616.877	1	2
617.046	1	8
617.216	1	-3
617.386	1	7
617.555	1	12
617.725	1	-2
617.895	1	7
618.064	1	-3
618.234	1	3
618.404	1	1
618.573	1	-2
618.743	1	6
618.913	1	10
619.082	1	-1
619.252	1	4
619.422	1	-2
619.591	1	-8
619.761	1	9
619.931	1	4
620.100	1	15
620.270	1	-5
620.440	1	-5
620.609	1	12
620.779	1	2
620.949	1	7
621.118	1	1
621.288	1	10
621.458	1	-2
621.627	1	11
621.797	1	5
621.967	1	5
622.136	1	14
622.306	1	-5
622.476	1	21
622.645	1	13
622.815	1	14
622.985	1	8
623.154	1	4
623.324	1	3
623.494	1	14
623.663	1	9
623.833	1	8
624.002	1	-12
624.172	1	-3
624.342	1	17
624.511	1	7
624.681	1	2
624.851	1	-8
625.020	1	0
625.190	1	0
625.360	1	8
625.529	1	10
625.699	1	4
625.869	1	9
626.038	1	-2
626.208	1	5
626.377	1	8
626.547	1	-2
626.717	1	3
626.886	1	-1
627.056	1	-3
627.226	1	6
627.395	1	8
627.565	1	5
627.735	1	10
627.904	1	-1
628.074	1	0
628.243	1	7
628.413	1	-3
628.583	1	2
628.752	1	7
628.922	1	11
629.091	1	-4
629.261	1	7
629.431	1	3
629.600	1	13
629.770	1	-3
629.940	1	6
630.109	1	-8
630.279	1	-7
630.448	1	-1
630.618	1	-3
630.788	1	10
630.957	1	-4
631.127	1	15
631.297	1	-6
631.466	1	5
631.636	1	-6
631.805	1	1
631.975	1	15
632.145	1	2
632.314	1	2
632.484	1	-9
632.653	1	11
632.823	1	-3
632.993	1	1
633.162	1	6
633.332	1	-4
633.501	1	-5
633.671	1	0
633.841	1	-1
634.010	1	-5
634.180	1	2
634.349	1	12
634.519	1	5
634.689	1	2
634.858	1	-4
635.028	1	15
635.197	1	6
635.367	1	9
635.537	1	-7
635.706	1	14
635.876	1	3
636.045	1	17
636.215	1	2
636.384	1	1
636.554	1	16
636.724	1	3
636.893	1	-1
637.063	1	-4
637.232	1	0
637.402	1	1
637.572	1	3
637.741	1	10
637.911	1	6
638.080	1	-3
638.250	1	0
638.419	1	4
638.589	1	-1
638.759	1	1
638.928	1	3
639.098	1	5
639.267	1	2
639.437	1	10
639.606	1	11
639.776	1	6
639.946	1	4
640.115	1	8
640.285	1	7
640.454	1	0
640.624	1	2
640.793	1	7
640.963	1	5
641.132	1	10
641.302	1	1
641.472	1	5
641.641	1	-6
641.811	1	5
641.980	1	4
642.150	1	-4
642.319	1	1
642.489	1	18
642.659	1	4
642.828	1	3
642.998	1	8
643.167	1	2
643.337	1	14
643.506	1	-17
643.676	1	6
643.845	1	4
644.015	1	3
644.184	1	7
644.354	1	2
644.524	1	7
644.693	1	0
644.863	1	-9
645.032	1	-1
645.202	1	0
645.371	1	-3
645.541	1	2
645.710	1	2
645.880	1	4
646.049	1	-2
646.219	1	8
646.388	1	5
646.558	1	-2
646.728	1	3
646.897	1	5
647.067	1	5
647.236	1	0
647.406	1	-1
647.575	1	4
647.745	1	-7
647.914	1	1
648.084	1	1
648.253	1	14
648.423	1	-6
648.592	1	-8
648.762	1	0
648.931	1	11
649.101	1	5
649.270	1	8
649.440	1	9
649.610	1	-2
649.779	1	7
649.949	1	8
650.118	1	7
650.288	1	6
650.457	1	6
650.627	1	4
650.796	1	3
650.966	1	11
651.135	1	5
651.305	1	7
651.474	1	3
651.644	1	3
651.813	1	1
651.983	1	6
652.152	1	3
652.322	1	-6
652.491	1	1
652.661	1	6
652.830	1	9
653.000	1	0
653.169	1	0
653.339	1	12
653.508	1	3
653.678	1	6
653.847	1	8
654.017	1	10
654.186	1	-5
654.356	1	4
654.525	1	5
654.695	1	6
654.864	1	-1
655.034	1	4
655.203	1	0
655.373	1	6
655.542	1	0
655.712	1	3
655.881	1	5
656.051	1	-2
656.220	1	-8
656.390	1	-2
656.559	1	5
656.729	1	14
656.898	1	-5
657.068	1	4
657.237	1	-6
657.406	1	5
657.576	1	3
657.745	1	3
657.915	1	-1
658.084	1	0
658.254	1	-16
658.423	1	4
658.593	1	4
658.762	1	8
658.932	1	7
659.101	1	13
659.271	1	6
659.440	1	8
659.610	1	1
659.779	1	-2
659.949	1	-1
660.118	1	3
660.288	1	12
660.457	1	7
660.626	1	10
660.796	1	-5
660.965	1	9
661.135	1	-4
661.304	1	9
661.474	1	1
661.643	1	11
661.813	1	15
661.982	1	15
662.152	1	3
662.321	1	-3
662.491	1	6
662.660	1	0
662.829	1	-6
662.999	1	3
663.168	1	21
663.338	1	4
663.507	1	9
663.677	1	11
663.846	1	0
664.016	1	2
664.185	1	7
664.354	1	4
664.524	1	1
664.693	1	2
664.863	1	0
665.032	1	3
665.202	1	1
665.371	1	9
665.541	1	-8
665.710	1	11
665.879	1	-2
666.049	1	8
666.218	1	2
666.388	1	7
666.557	1	2
666.727	1	-1
666.896	1	3
667.065	1	8
667.235	1	9
667.404	1	2
667.574	1	5
667.743	1	-2
667.913	1	7
668.082	1	-4
668.251	1	-1
668.421	1	-7
668.590	1	2
668.760	1	1
668.929	1	-9
669.099	1	2
669.268	1	1
669.437	1	8
669.607	1	1
669.776	1	-2
669.946	1	4
670.115	1	11
670.285	1	7
670.454	1	2
670.623	1	6
670.793	1	-3
670.962	1	4
671.132	1	5
671.301	1	-3
671.470	1	2
671.640	1	9
671.809	1	0
671.979	1	-7
672.148	1	2
672.317	1	1
672.487	1	15
672.656	1	8
672.826	1	-11
672.995	1	3
673.164	1	6
673.334	1	-10
673.503	1	2
673.673	1	3
673.842	1	8
674.011	1	3
674.181	1	6
674.350	1	13
674.520	1	0
674.689	1	5
674.858	1	2
675.028	1	-7
675.197	1	-5
675.367	1	7
675.536	1	7
675.705	1	9
675.875	1	5
676.044	1	11
676.214	1	-3
676.383	1	0
676.552	1	4
676.722	1	17
676.891	1	10
677.060	1	2
677.230	1	3
677.399	1	-1
677.569	1	-1
677.738	1	9
677.907	1	8
678.077	1	6
678.246	1	2
678.416	1	-2
678.585	1	5
678.754	1	-3
678.924	1	5
679.093	1	7
679.262	1	0
679.432	1	-3
679.601	1	0
679.771	1	2
679.940	1	5
680.109	1	8
680.279	1	-5
680.448	1	6
680.617	1	-4
680.787	1	2
680.956	1	4
681.125	1	7
681.295	1	2
681.464	1	8
681.634	1	3
681.803	1	4
681.972	1	-2
682.142	1	12
682.311	1	9
682.480	1	11
682.650	1	0
682.819	1	5
682.988	1	0
683.158	1	2
683.327	1	-4
683.496	1	-3
683.666	1	-6
683.835	1	7
684.004	1	2
684.174	1	-1
684.343	1	-5
684.512	1	5
684.682	1	-13
684.851	1	10
685.021	1	0
685.190	1	0
685.359	1	8
685.529	1	7
685.698	1	5
685.867	1	10
686.037	1	-1
686.206	1	2
686.375	1	15
686.545	1	-1
686.714	1	1
686.883	1	-1
687.053	1	15
687.222	1	9
687.391	1	10
687.561	1	7
687.730	1	4
687.899	1	7
688.069	1	6
688.238	1	6
688.407	1	-7
688.577	1	1
688.746	1	-1
