340.368	1	11
340.539	1	-3
340.710	1	-6
340.881	1	-2
341.052	1	11
341.223	1	8
341.394	1	13
341.565	1	-9
341.737	1	13
341.908	1	11
342.079	1	3
342.250	1	-8
342.421	1	3
342.592	1	10
342.763	1	15
342.934	1	5
343.105	1	-6
343.276	1	1
343.447	1	6
343.618	1	4
343.789	1	1
343.960	1	4
344.131	1	6
344.302	1	4
344.473	1	15
344.644	1	1
344.815	1	3
344.986	1	-6
345.157	1	3
345.328	1	8
345.499	1	-5
345.670	1	-7
345.841	1	16
346.012	1	14
346.183	1	5
346.354	1	-3
346.526	1	-2
346.697	1	8
346.868	1	12
347.039	1	19
347.210	1	3
347.381	1	5
347.552	1	5
347.723	1	4
347.894	1	15
348.065	1	4
348.236	1	14
348.407	1	8
348.578	1	2
348.749	1	-4
348.920	1	2
349.091	1	-6
349.262	1	3
349.433	1	2
349.604	1	9
349.775	1	20
349.946	1	0
350.117	1	10
350.288	1	20
350.459	1	5
350.630	1	9
350.801	1	8
350.972	1	11
351.143	1	1
351.314	1	14
351.485	1	13
351.656	1	18
351.827	1	5
351.998	1	16
352.169	1	7
352.340	1	17
352.511	1	3
352.682	1	15
352.853	1	9
353.024	1	14
353.195	1	11
353.366	1	22
353.537	1	23
353.708	1	6
353.879	1	12
354.050	1	8
354.221	1	0
354.392	1	15
354.563	1	10
354.734	1	25
354.905	1	20
355.076	1	17
355.247	1	29
355.418	1	6
355.589	1	5
355.760	1	10
355.931	1	14
356.102	1	20
356.273	1	16
356.444	1	11
356.615	1	20
356.785	1	23
356.956	1	28
357.127	1	26
357.298	1	17
357.469	1	26
357.640	1	35
357.811	1	28
357.982	1	19
358.153	1	28
358.324	1	25
358.495	1	40
358.666	1	34
358.837	1	21
359.008	1	29
359.179	1	24
359.350	1	27
359.521	1	37
359.692	1	42
359.863	1	41
360.034	1	40
360.205	1	38
360.376	1	45
360.547	1	52
360.718	1	45
360.889	1	44
361.060	1	39
361.231	1	51
361.401	1	56
361.572	1	67
361.743	1	56
361.914	1	69
362.085	1	72
362.256	1	69
362.427	1	73
362.598	1	67
362.769	1	74
362.940	1	71
363.111	1	78
363.282	1	93
363.453	1	83
363.624	1	99
363.795	1	102
363.966	1	106
364.137	1	99
364.308	1	102
364.478	1	115
364.649	1	121
364.820	1	125
364.991	1	117
365.162	1	149
365.333	1	139
365.504	1	145
365.675	1	144
365.846	1	168
366.017	1	160
366.188	1	176
366.359	1	182
366.530	1	199
366.701	1	188
366.871	1	200
367.042	1	224
367.213	1	230
367.384	1	234
367.555	1	225
367.726	1	238
367.897	1	242
368.068	1	247
368.239	1	248
368.410	1	265
368.581	1	247
368.752	1	261
368.923	1	270
369.093	1	264
369.264	1	284
369.435	1	295
369.606	1	284
369.777	1	275
369.948	1	270
370.119	1	281
370.290	1	273
370.461	1	281
370.632	1	266
370.803	1	250
370.973	1	271
371.144	1	251
371.315	1	268
371.486	1	259
371.657	1	264
371.828	1	254
371.999	1	220
372.170	1	226
372.341	1	228
372.512	1	222
372.682	1	206
372.853	1	208
373.024	1	207
373.195	1	191
373.366	1	202
373.537	1	189
373.708	1	190
373.879	1	170
374.050	1	182
374.220	1	203
374.391	1	172
374.562	1	165
374.733	1	168
374.904	1	152
375.075	1	148
375.246	1	158
375.417	1	154
375.588	1	145
375.758	1	144
375.929	1	129
376.100	1	132
376.271	1	138
376.442	1	119
376.613	1	124
376.784	1	114
376.955	1	110
377.125	1	117
377.296	1	107
377.467	1	110
377.638	1	102
377.809	1	116
377.980	1	92
378.151	1	102
378.321	1	98
378.492	1	91
378.663	1	102
378.834	1	87
379.005	1	101
379.176	1	95
379.347	1	89
379.518	1	83
379.688	1	83
379.859	1	90
380.030	1	83
380.201	1	58
380.372	1	85
380.543	1	70
380.714	1	74
380.884	1	64
381.055	1	74
381.226	1	59
381.397	1	59
381.568	1	70
381.739	1	66
381.910	1	59
382.080	1	62
382.251	1	49
382.422	1	56
382.593	1	50
382.764	1	50
382.935	1	39
383.105	1	52
383.276	1	59
383.447	1	44
383.618	1	60
383.789	1	49
383.960	1	53
384.130	1	42
384.301	1	39
384.472	1	34
384.643	1	45
384.814	1	49
384.985	1	36
385.156	1	34
385.326	1	43
385.497	1	50
385.668	1	48
385.839	1	39
386.010	1	42
386.180	1	42
386.351	1	41
386.522	1	47
386.693	1	31
386.864	1	48
387.035	1	46
387.205	1	36
387.376	1	37
387.547	1	30
387.718	1	34
387.889	1	27
388.060	1	42
388.230	1	38
388.401	1	26
388.572	1	31
388.743	1	35
388.914	1	37
389.084	1	30
389.255	1	23
389.426	1	27
389.597	1	30
389.768	1	28
389.939	1	30
390.109	1	32
390.280	1	29
390.451	1	31
390.622	1	23
390.793	1	20
390.963	1	33
391.134	1	35
391.305	1	24
391.476	1	21
391.647	1	36
391.817	1	19
391.988	1	34
392.159	1	24
392.330	1	27
392.501	1	21
392.671	1	28
392.842	1	18
393.013	1	17
393.184	1	29
393.355	1	18
393.525	1	24
393.696	1	21
393.867	1	15
394.038	1	19
394.208	1	17
394.379	1	20
394.550	1	16
394.721	1	3
394.892	1	16
395.062	1	24
395.233	1	23
395.404	1	19
395.575	1	12
395.746	1	29
395.916	1	21
396.087	1	7
396.258	1	22
396.429	1	9
396.599	1	6
396.770	1	9
396.941	1	24
397.112	1	13
397.283	1	14
397.453	1	27
397.624	1	19
397.795	1	16
397.966	1	11
398.136	1	1
398.307	1	11
398.478	1	14
398.649	1	0
398.819	1	19
398.990	1	4
399.161	1	18
399.332	1	15
399.503	1	11
399.673	1	13
399.844	1	5
400.015	1	4
400.186	1	8
400.356	1	-5
400.527	1	11
400.698	1	19
400.869	1	12
401.039	1	27
401.210	1	12
401.381	1	9
401.552	1	3
401.722	1	7
401.893	1	16
402.064	1	7
402.235	1	7
402.405	1	5
402.576	1	1
402.747	1	3
402.918	1	16
403.088	1	14
403.259	1	9
403.430	1	6
403.601	1	10
403.771	1	10
403.942	1	12
404.113	1	3
404.284	1	22
404.454	1	9
404.625	1	15
404.796	1	8
404.967	1	4
405.137	1	18
405.308	1	9
405.479	1	8
405.649	1	6
405.820	1	-6
405.991	1	-1
406.162	1	12
406.332	1	11
406.503	1	9
406.674	1	6
406.845	1	15
407.015	1	6
407.186	1	8
407.357	1	15
407.527	1	1
407.698	1	2
407.869	1	6
408.040	1	4
408.210	1	13
408.381	1	15
408.552	1	9
408.722	1	-5
408.893	1	4
409.064	1	15
409.235	1	9
409.405	1	16
409.576	1	-7
409.747	1	4
409.917	1	6
410.088	1	10
410.259	1	11
410.430	1	11
410.600	1	5
410.771	1	9
410.942	1	11
411.112	1	2
411.283	1	14
411.454	1	2
411.625	1	8
411.795	1	6
411.966	1	1
412.137	1	8
412.307	1	4
412.478	1	18
412.649	1	7
412.819	1	3
412.990	1	3
413.161	1	7
413.332	1	11
413.502	1	8
413.673	1	4
413.844	1	5
414.014	1	9
414.185	1	10
414.356	1	8
414.526	1	-5
414.697	1	8
414.868	1	4
415.038	1	3
415.209	1	-7
415.380	1	1
415.550	1	-3
415.721	1	0
415.892	1	8
416.063	1	5
416.233	1	13
416.404	1	-4
416.575	1	15
416.745	1	5
416.916	1	7
417.087	1	5
417.257	1	2
417.428	1	5
417.599	1	9
417.769	1	11
417.940	1	17
418.111	1	6
418.281	1	0
418.452	1	-3
418.623	1	4
418.793	1	0
418.964	1	-5
419.135	1	-3
419.305	1	5
419.476	1	14
419.647	1	1
419.817	1	4
419.988	1	8
420.159	1	7
420.329	1	8
420.500	1	6
420.671	1	6
420.841	1	12
421.012	1	6
421.183	1	5
421.353	1	3
421.524	1	-5
421.695	1	3
421.865	1	-3
422.036	1	8
422.206	1	-3
422.377	1	4
422.548	1	-1
422.718	1	9
422.889	1	-5
423.060	1	0
423.230	1	5
423.401	1	13
423.572	1	2
423.742	1	4
423.913	1	-6
424.084	1	-1
424.254	1	8
424.425	1	6
424.595	1	8
424.766	1	3
424.937	1	7
425.107	1	-2
425.278	1	9
425.449	1	1
425.619	1	5
425.790	1	-6
425.961	1	0
426.131	1	-2
426.302	1	11
426.472	1	5
426.643	1	8
426.814	1	13
426.984	1	11
427.155	1	4
427.326	1	16
427.496	1	-1
427.667	1	10
427.837	1	0
428.008	1	10
428.179	1	-1
428.349	1	-12
428.520	1	-1
428.691	1	18
428.861	1	0
429.032	1	6
429.202	1	8
429.373	1	7
429.544	1	6
429.714	1	1
429.885	1	3
430.055	1	5
430.226	1	-6
430.397	1	5
430.567	1	1
430.738	1	5
430.909	1	-1
431.079	1	0
431.250	1	-3
431.420	1	4
431.591	1	5
431.762	1	4
431.932	1	-2
432.103	1	0
432.273	1	1
432.444	1	5
432.615	1	-3
432.785	1	4
432.956	1	3
433.126	1	2
433.297	1	2
433.468	1	3
433.638	1	0
433.809	1	6
433.979	1	4
434.150	1	6
434.320	1	7
434.491	1	-5
434.662	1	-1
434.832	1	4
435.003	1	6
435.173	1	7
435.344	1	2
435.515	1	11
435.685	1	2
435.856	1	5
436.026	1	6
436.197	1	-1
436.368	1	7
436.538	1	-3
436.709	1	1
436.879	1	0
437.050	1	6
437.220	1	13
437.391	1	6
437.562	1	10
437.732	1	-10
437.903	1	-3
438.073	1	-1
438.244	1	6
438.414	1	-6
438.585	1	5
438.756	1	-5
438.926	1	-3
439.097	1	-2
439.267	1	0
439.438	1	5
439.608	1	-5
439.779	1	2
439.949	1	11
440.120	1	-1
440.291	1	11
440.461	1	7
440.632	1	7
440.802	1	2
440.973	1	-2
441.143	1	7
441.314	1	-5
441.485	1	0
441.655	1	4
441.826	1	9
441.996	1	8
442.167	1	7
442.337	1	8
442.508	1	-6
442.678	1	-6
442.849	1	15
443.019	1	9
443.190	1	7
443.361	1	4
443.531	1	9
443.702	1	5
443.872	1	7
444.043	1	15
444.213	1	6
444.384	1	-5
444.554	1	13
444.725	1	-4
444.895	1	1
445.066	1	3
445.237	1	-2
445.407	1	10
445.578	1	-5
445.748	1	9
445.919	1	-7
446.089	1	11
446.260	1	1
446.430	1	7
446.601	1	-3
446.771	1	13
446.942	1	1
447.112	1	-2
447.283	1	7
447.453	1	-6
447.624	1	3
447.794	1	-3
447.965	1	-1
448.135	1	-2
448.306	1	8
448.477	1	5
448.647	1	-5
448.818	1	7
448.988	1	0
449.159	1	-9
449.329	1	0
449.500	1	2
449.670	1	15
449.841	1	8
450.011	1	19
450.182	1	2
450.352	1	7
450.523	1	-5
450.693	1	-3
450.864	1	0
451.034	1	-5
451.205	1	8
451.375	1	-2
451.546	1	-7
451.716	1	0
451.887	1	-8
452.057	1	3
452.228	1	0
452.398	1	3
452.569	1	3
452.739	1	6
452.910	1	-3
453.080	1	-1
453.251	1	12
453.421	1	-2
453.592	1	2
453.762	1	4
453.933	1	-3
454.103	1	7
454.274	1	-6
454.444	1	2
454.615	1	12
454.785	1	-3
454.956	1	1
455.126	1	-8
455.297	1	10
455.467	1	1
455.638	1	2
455.808	1	1
455.979	1	6
456.149	1	12
456.320	1	6
456.490	1	6
456.661	1	3
456.831	1	5
457.001	1	0
457.172	1	1
457.342	1	5
457.513	1	5
457.683	1	1
457.854	1	-1
458.024	1	6
458.195	1	-7
458.365	1	4
458.536	1	10
458.706	1	9
458.877	1	0
459.047	1	7
459.218	1	2
459.388	1	11
459.559	1	13
459.729	1	7
459.899	1	4
460.070	1	2
460.240	1	0
460.411	1	1
460.581	1	13
460.752	1	2
460.922	1	1
461.093	1	2
461.263	1	-3
461.434	1	6
461.604	1	3
461.775	1	-2
461.945	1	10
462.115	1	6
462.286	1	9
462.456	1	-13
462.627	1	9
462.797	1	-1
462.968	1	8
463.138	1	-5
463.309	1	-6
463.479	1	-5
463.649	1	-5
463.820	1	-5
463.990	1	5
464.161	1	2
464.331	1	6
464.502	1	11
464.672	1	7
464.843	1	2
465.013	1	6
465.183	1	0
465.354	1	2
465.524	1	8
465.695	1	3
465.865	1	4
466.036	1	0
466.206	1	14
466.376	1	-1
466.547	1	-1
466.717	1	4
466.888	1	2
467.058	1	-5
467.229	1	0
467.399	1	11
467.569	1	16
467.740	1	1
467.910	1	4
468.081	1	9
468.251	1	-1
468.422	1	-6
468.592	1	2
468.762	1	1
468.933	1	1
469.103	1	-1
469.274	1	14
469.444	1	0
469.614	1	3
469.785	1	-4
469.955	1	5
470.126	1	-1
470.296	1	-2
470.467	1	-5
470.637	1	5
470.807	1	3
470.978	1	4
471.148	1	9
471.319	1	-2
471.489	1	1
471.659	1	5
471.830	1	7
472.000	1	-1
472.171	1	5
472.341	1	8
472.511	1	2
472.682	1	2
472.852	1	4
473.023	1	10
473.193	1	11
473.363	1	7
473.534	1	5
473.704	1	-2
473.875	1	18
474.045	1	-10
474.215	1	12
474.386	1	22
474.556	1	5
474.727	1	-3
474.897	1	15
475.067	1	3
475.238	1	-2
475.408	1	4
475.578	1	-7
475.749	1	1
475.919	1	4
476.090	1	5
476.260	1	6
476.430	1	1
476.601	1	-3
476.771	1	2
476.942	1	11
477.112	1	7
477.282	1	-4
477.453	1	-5
477.623	1	-3
477.793	1	1
477.964	1	-2
478.134	1	-7
478.305	1	4
478.475	1	5
478.645	1	16
478.816	1	1
478.986	1	1
479.156	1	8
479.327	1	-4
479.497	1	10
479.667	1	3
479.838	1	0
480.008	1	-3
480.179	1	5
480.349	1	1
480.519	1	12
480.690	1	6
480.860	1	-2
481.030	1	1
481.201	1	-7
481.371	1	16
481.541	1	1
481.712	1	6
481.882	1	1
482.053	1	1
482.223	1	0
482.393	1	4
482.564	1	10
482.734	1	0
482.904	1	0
483.075	1	11
483.245	1	9
483.415	1	14
483.586	1	7
483.756	1	13
483.926	1	5
484.097	1	5
484.267	1	-1
484.437	1	-4
484.608	1	-3
484.778	1	6
484.948	1	-1
485.119	1	-3
485.289	1	-2
485.459	1	19
485.630	1	2
485.800	1	1
485.970	1	4
486.141	1	-5
486.311	1	10
486.481	1	4
486.652	1	8
486.822	1	4
486.992	1	6
487.163	1	7
487.333	1	5
487.503	1	8
487.674	1	18
487.844	1	2
488.014	1	9
488.185	1	9
488.355	1	8
488.525	1	3
488.696	1	0
488.866	1	6
489.036	1	10
489.207	1	5
489.377	1	1
489.547	1	-3
489.718	1	12
489.888	1	1
490.058	1	4
490.228	1	7
490.399	1	7
490.569	1	21
490.739	1	4
490.910	1	3
491.080	1	21
491.250	1	1
491.421	1	8
491.591	1	-1
491.761	1	-2
491.932	1	1
492.102	1	2
492.272	1	16
492.442	1	11
492.613	1	4
492.783	1	8
492.953	1	0
493.124	1	6
493.294	1	4
493.464	1	18
493.635	1	11
493.805	1	5
493.975	1	3
494.145	1	3
494.316	1	12
494.486	1	10
494.656	1	4
494.827	1	9
494.997	1	-4
495.167	1	11
495.337	1	8
495.508	1	14
495.678	1	15
495.848	1	13
496.019	1	3
496.189	1	17
496.359	1	0
496.529	1	9
496.700	1	8
496.870	1	9
497.040	1	8
497.211	1	10
497.381	1	0
497.551	1	14
497.721	1	-2
497.892	1	3
498.062	1	11
498.232	1	2
498.403	1	0
498.573	1	1
498.743	1	0
498.913	1	13
499.084	1	12
499.254	1	5
499.424	1	9
499.594	1	11
499.765	1	5
499.935	1	10
500.105	1	3
500.275	1	20
500.446	1	7
500.616	1	-2
500.786	1	7
500.956	1	21
501.127	1	12
501.297	1	4
501.467	1	5
501.638	1	4
501.808	1	5
501.978	1	16
502.148	1	15
502.319	1	12
502.489	1	14
502.659	1	6
502.829	1	10
503.000	1	5
503.170	1	15
503.340	1	23
503.510	1	22
503.681	1	4
503.851	1	7
504.021	1	8
504.191	1	6
504.362	1	8
504.532	1	14
504.702	1	6
504.872	1	3
505.042	1	10
505.213	1	28
505.383	1	11
505.553	1	1
505.723	1	7
505.894	1	8
506.064	1	15
506.234	1	15
506.404	1	9
506.575	1	18
506.745	1	18
506.915	1	10
507.085	1	6
507.256	1	13
507.426	1	9
507.596	1	21
507.766	1	9
507.936	1	24
508.107	1	6
508.277	1	13
508.447	1	12
508.617	1	3
508.788	1	18
508.958	1	2
509.128	1	15
509.298	1	11
509.468	1	9
509.639	1	8
509.809	1	21
509.979	1	4
510.149	1	13
510.319	1	24
510.490	1	12
510.660	1	11
510.830	1	9
511.000	1	17
511.171	1	9
511.341	1	19
511.511	1	10
511.681	1	16
511.851	1	13
512.022	1	6
512.192	1	18
512.362	1	15
512.532	1	8
512.702	1	8
512.873	1	11
513.043	1	16
513.213	1	11
513.383	1	-1
513.553	1	3
513.724	1	15
513.894	1	12
514.064	1	24
514.234	1	4
514.404	1	13
514.575	1	13
514.745	1	8
514.915	1	26
515.085	1	2
515.255	1	6
515.425	1	20
515.596	1	29
515.766	1	11
515.936	1	17
516.106	1	17
516.276	1	2
516.447	1	21
516.617	1	21
516.787	1	17
516.957	1	14
517.127	1	21
517.297	1	8
517.468	1	17
517.638	1	26
517.808	1	9
517.978	1	22
518.148	1	23
518.319	1	9
518.489	1	8
518.659	1	9
518.829	1	22
518.999	1	25
519.169	1	3
519.340	1	28
519.510	1	21
519.680	1	16
519.850	1	32
520.020	1	17
520.190	1	19
520.361	1	19
520.531	1	19
520.701	1	21
520.871	1	14
521.041	1	23
521.211	1	10
521.382	1	5
521.552	1	16
521.722	1	16
521.892	1	20
522.062	1	28
522.232	1	15
522.402	1	23
522.573	1	18
522.743	1	21
522.913	1	18
523.083	1	0
523.253	1	13
523.423	1	26
523.593	1	16
523.764	1	13
523.934	1	10
524.104	1	13
524.274	1	17
524.444	1	27
524.614	1	14
524.784	1	24
524.955	1	16
525.125	1	17
525.295	1	24
525.465	1	17
525.635	1	22
525.805	1	25
525.975	1	12
526.146	1	26
526.316	1	34
526.486	1	22
526.656	1	14
526.826	1	25
526.996	1	28
527.166	1	21
527.337	1	20
527.507	1	35
527.677	1	27
527.847	1	20
528.017	1	21
528.187	1	23
528.357	1	14
528.527	1	29
528.698	1	31
528.868	1	12
529.038	1	21
529.208	1	14
529.378	1	16
529.548	1	9
529.718	1	20
529.888	1	16
530.058	1	21
530.229	1	27
530.399	1	31
530.569	1	4
530.739	1	33
530.909	1	19
531.079	1	25
531.249	1	25
531.419	1	28
531.589	1	14
531.760	1	24
531.930	1	20
532.100	1	15
532.270	1	17
532.440	1	17
532.610	1	13
532.780	1	14
532.950	1	22
533.120	1	21
533.290	1	30
533.461	1	20
533.631	1	27
533.801	1	39
533.971	1	19
534.141	1	17
534.311	1	27
534.481	1	21
534.651	1	24
534.821	1	20
534.991	1	22
535.162	1	28
535.332	1	27
535.502	1	16
535.672	1	31
535.842	1	25
536.012	1	20
536.182	1	17
536.352	1	24
536.522	1	17
536.692	1	24
536.862	1	27
537.032	1	23
537.203	1	23
537.373	1	34
537.543	1	17
537.713	1	32
537.883	1	17
538.053	1	13
538.223	1	28
538.393	1	28
538.563	1	27
538.733	1	30
538.903	1	16
539.073	1	13
539.243	1	24
539.413	1	23
539.584	1	14
539.754	1	27
539.924	1	31
540.094	1	21
540.264	1	23
540.434	1	29
540.604	1	15
540.774	1	38
540.944	1	22
541.114	1	14
541.284	1	30
541.454	1	21
541.624	1	20
541.794	1	34
541.964	1	25
542.134	1	26
542.305	1	24
542.475	1	29
542.645	1	24
542.815	1	21
542.985	1	29
543.155	1	29
543.325	1	26
543.495	1	21
543.665	1	32
543.835	1	27
544.005	1	33
544.175	1	23
544.345	1	26
544.515	1	25
544.685	1	26
544.855	1	21
545.025	1	30
545.195	1	22
545.365	1	20
545.535	1	44
545.705	1	26
545.875	1	11
546.045	1	15
546.216	1	29
546.386	1	26
546.556	1	21
546.726	1	21
546.896	1	22
547.066	1	28
547.236	1	31
547.406	1	31
547.576	1	39
547.746	1	16
547.916	1	25
548.086	1	30
548.256	1	28
548.426	1	14
548.596	1	28
548.766	1	34
548.936	1	30
549.106	1	31
549.276	1	23
549.446	1	27
549.616	1	28
549.786	1	24
549.956	1	31
550.126	1	39
550.296	1	18
550.466	1	35
550.636	1	39
550.806	1	20
550.976	1	31
551.146	1	20
551.316	1	38
551.486	1	28
551.656	1	24
551.826	1	32
551.996	1	33
552.166	1	28
552.336	1	30
552.506	1	31
552.676	1	37
552.846	1	29
553.016	1	40
553.186	1	44
553.356	1	25
553.526	1	26
553.696	1	33
553.866	1	33
554.036	1	29
554.206	1	37
554.376	1	28
554.546	1	44
554.716	1	28
554.886	1	31
555.056	1	31
555.226	1	14
555.396	1	15
555.566	1	36
555.736	1	18
555.906	1	24
556.076	1	35
556.246	1	21
556.416	1	21
556.586	1	25
556.756	1	17
556.926	1	28
557.096	1	12
557.266	1	17
557.436	1	32
557.606	1	30
557.776	1	24
557.946	1	36
558.116	1	30
558.286	1	27
558.456	1	22
558.626	1	31
558.796	1	32
558.966	1	37
559.136	1	24
559.306	1	18
559.476	1	22
559.646	1	19
559.816	1	10
559.986	1	19
560.155	1	36
560.325	1	14
560.495	1	31
560.665	1	25
560.835	1	18
561.005	1	29
561.175	1	36
561.345	1	19
561.515	1	26
561.685	1	33
561.855	1	15
562.025	1	24
562.195	1	27
562.365	1	18
562.535	1	29
562.705	1	15
562.875	1	32
563.045	1	22
563.215	1	25
563.385	1	22
563.555	1	18
563.725	1	21
563.895	1	31
564.064	1	21
564.234	1	26
564.404	1	38
564.574	1	27
564.744	1	25
564.914	1	31
565.084	1	37
565.254	1	42
565.424	1	31
565.594	1	29
565.764	1	22
565.934	1	24
566.104	1	26
566.274	1	16
566.444	1	12
566.614	1	25
566.783	1	21
566.953	1	24
567.123	1	27
567.293	1	42
567.463	1	23
567.633	1	36
567.803	1	26
567.973	1	21
568.143	1	28
568.313	1	30
568.483	1	35
568.653	1	23
568.823	1	21
568.993	1	28
569.162	1	31
569.332	1	29
569.502	1	18
569.672	1	31
569.842	1	27
570.012	1	23
570.182	1	22
570.352	1	22
570.522	1	6
570.692	1	28
570.862	1	23
571.031	1	27
571.201	1	37
571.371	1	26
571.541	1	29
571.711	1	38
571.881	1	38
572.051	1	20
572.221	1	18
572.391	1	20
572.561	1	16
572.731	1	38
572.900	1	18
573.070	1	23
573.240	1	19
573.410	1	47
573.580	1	35
573.750	1	12
573.920	1	31
574.090	1	27
574.260	1	27
574.430	1	24
574.599	1	28
574.769	1	15
574.939	1	32
575.109	1	25
575.279	1	33
575.449	1	24
575.619	1	23
575.789	1	15
575.959	1	19
576.128	1	18
576.298	1	34
576.468	1	22
576.638	1	20
576.808	1	20
576.978	1	28
577.148	1	27
577.318	1	22
577.487	1	20
577.657	1	22
577.827	1	20
577.997	1	28
578.167	1	24
578.337	1	27
578.507	1	30
578.677	1	26
578.846	1	20
579.016	1	37
579.186	1	14
579.356	1	8
579.526	1	29
579.696	1	21
579.866	1	23
580.036	1	29
580.205	1	22
580.375	1	24
580.545	1	27
580.715	1	25
580.885	1	26
581.055	1	24
581.225	1	19
581.394	1	28
581.564	1	33
581.734	1	11
581.904	1	33
582.074	1	16
582.244	1	14
582.414	1	31
582.583	1	27
582.753	1	21
582.923	1	26
583.093	1	21
583.263	1	27
583.433	1	28
583.603	1	35
583.772	1	35
583.942	1	28
584.112	1	24
584.282	1	15
584.452	1	26
584.622	1	34
584.791	1	20
584.961	1	20
585.131	1	28
585.301	1	10
585.471	1	28
585.641	1	28
585.811	1	28
585.980	1	19
586.150	1	25
586.320	1	31
586.490	1	27
586.660	1	34
586.830	1	25
586.999	1	29
587.169	1	36
587.339	1	28
587.509	1	20
587.679	1	28
587.849	1	30
588.018	1	14
588.188	1	34
588.358	1	15
588.528	1	26
588.698	1	27
588.867	1	24
589.037	1	29
589.207	1	22
589.377	1	16
589.547	1	28
589.717	1	13
589.886	1	12
590.056	1	18
590.226	1	31
590.396	1	19
590.566	1	14
590.735	1	17
590.905	1	23
591.075	1	15
591.245	1	21
591.415	1	22
591.585	1	18
591.754	1	27
591.924	1	13
592.094	1	21
592.264	1	22
592.434	1	16
592.603	1	33
592.773	1	17
592.943	1	10
593.113	1	23
593.283	1	21
593.452	1	20
593.622	1	22
593.792	1	25
593.962	1	23
594.132	1	22
594.301	1	25
594.471	1	19
594.641	1	17
594.811	1	23
594.981	1	13
595.150	1	19
595.320	1	20
595.490	1	25
595.660	1	18
595.829	1	20
595.999	1	9
596.169	1	22
596.339	1	20
596.509	1	11
596.678	1	15
596.848	1	18
597.018	1	19
597.188	1	16
597.358	1	17
597.527	1	5
597.697	1	19
597.867	1	11
598.037	1	15
598.206	1	9
598.376	1	12
598.546	1	16
598.716	1	23
598.885	1	3
599.055	1	25
599.225	1	14
599.395	1	15
599.565	1	7
599.734	1	19
599.904	1	18
600.074	1	16
600.244	1	18
600.413	1	19
600.583	1	28
600.753	1	31
600.923	1	19
601.092	1	25
601.262	1	21
601.432	1	16
601.602	1	23
601.771	1	22
601.941	1	19
602.111	1	18
602.281	1	26
602.451	1	25
602.620	1	15
602.790	1	16
602.960	1	21
603.130	1	15
603.299	1	20
603.469	1	6
603.639	1	12
603.809	1	18
603.978	1	19
604.148	1	20
604.318	1	14
604.487	1	14
604.657	1	25
604.827	1	26
604.997	1	14
605.166	1	26
605.336	1	19
605.506	1	17
605.676	1	15
605.845	1	18
606.015	1	16
606.185	1	28
606.355	1	16
606.524	1	18
606.694	1	27
606.864	1	14
607.034	1	10
607.203	1	14
607.373	1	21
607.543	1	16
607.712	1	19
607.882	1	16
608.052	1	12
608.222	1	20
608.391	1	16
608.561	1	21
608.731	1	21
608.901	1	15
609.070	1	29
609.240	1	13
609.410	1	24
609.579	1	31
609.749	1	9
609.919	1	25
610.089	1	21
610.258	1	19
610.428	1	17
610.598	1	21
610.767	1	19
610.937	1	19
611.107	1	21
611.277	1	11
611.446	1	21
611.616	1	29
611.786	1	25
611.955	1	20
612.125	1	21
612.295	1	11
612.465	1	23
612.634	1	12
612.804	1	17
612.974	1	10
613.143	1	19
613.313	1	27
613.483	1	19
613.652	1	20
613.822	1	13
613.992	1	15
614.162	1	24
614.331	1	13
614.501	1	10
614.671	1	9
614.840	1	12
615.010	1	16
615.180	1	3
615.349	1	23
615.519	1	11
615.689	1	25
615.858	1	20
616.028	1	21
616.198	1	11
616.368	1	14
616.537	1	11
616.707	1	17
616.877	1	19
617.046	1	5
617.216	1	4
617.386	1	3
617.555	1	17
617.725	1	18
617.895	1	16
618.064	1	11
618.234	1	9
618.404	1	6
618.573	1	11
618.743	1	22
618.913	1	16
619.082	1	19
619.252	1	13
619.422	1	5
619.591	1	2
619.761	1	6
619.931	1	21
620.100	1	20
620.270	1	2
620.440	1	17
620.609	1	19
620.779	1	10
620.949	1	6
621.118	1	7
621.288	1	14
621.458	1	8
621.627	1	16
621.797	1	13
621.967	1	10
622.136	1	18
622.306	1	9
622.476	1	19
622.645	1	27
622.815	1	20
622.985	1	14
623.154	1	28
623.324	1	8
623.494	1	24
623.663	1	18
623.833	1	21
624.002	1	9
624.172	1	16
624.342	1	23
624.511	1	12
624.681	1	15
624.851	1	6
625.020	1	10
625.190	1	13
625.360	1	16
625.529	1	19
625.699	1	1
625.869	1	25
626.038	1	9
626.208	1	9
626.377	1	15
626.547	1	10
626.717	1	15
626.886	1	10
627.056	1	6
627.226	1	12
627.395	1	16
627.565	1	19
627.735	1	20
627.904	1	18
628.074	1	5
628.243	1	15
628.413	1	9
628.583	1	12
628.752	1	12
628.922	1	22
629.091	1	9
629.261	1	13
629.431	1	11
629.600	1	20
629.770	1	8
629.940	1	9
630.109	1	10
630.279	1	7
630.448	1	7
630.618	1	16
630.788	1	21
630.957	1	11
631.127	1	15
631.297	1	11
631.466	1	17
631.636	1	5
631.805	1	8
631.975	1	29
632.145	1	6
632.314	1	16
632.484	1	0
632.653	1	20
632.823	1	9
632.993	1	15
633.162	1	11
633.332	1	12
633.501	1	14
633.671	1	11
633.841	1	5
634.010	1	6
634.180	1	9
634.349	1	25
634.519	1	3
634.689	1	21
634.858	1	3
635.028	1	17
635.197	1	21
635.367	1	14
635.537	1	19
635.706	1	5
635.876	1	5
636.045	1	25
636.215	1	3
636.384	1	14
636.554	1	17
636.724	1	8
636.893	1	8
637.063	1	7
637.232	1	4
637.402	1	14
637.572	1	14
637.741	1	17
637.911	1	10
638.080	1	12
638.250	1	14
638.419	1	5
638.589	1	15
638.759	1	0
638.928	1	5
639.098	1	11
639.267	1	14
639.437	1	10
639.606	1	20
639.776	1	15
639.946	1	4
640.115	1	9
640.285	1	11
640.454	1	6
640.624	1	11
640.793	1	20
640.963	1	10
641.132	1	16
641.302	1	16
641.472	1	22
641.641	1	-1
641.811	1	7
641.980	1	22
642.150	1	8
642.319	1	10
642.489	1	20
642.659	1	20
642.828	1	-3
642.998	1	25
643.167	1	8
643.337	1	8
643.506	1	-3
643.676	1	9
643.845	1	5
644.015	1	11
644.184	1	13
644.354	1	7
644.524	1	8
644.693	1	20
644.863	1	7
645.032	1	15
645.202	1	15
645.371	1	9
645.541	1	12
645.710	1	7
645.880	1	4
646.049	1	8
646.219	1	18
646.388	1	7
646.558	1	4
646.728	1	10
646.897	1	12
647.067	1	12
647.236	1	4
647.406	1	2
647.575	1	16
647.745	1	12
647.914	1	8
648.084	1	10
648.253	1	21
648.423	1	8
648.592	1	9
648.762	1	14
648.931	1	20
649.101	1	9
649.270	1	13
649.440	1	7
649.610	1	16
649.779	1	10
649.949	1	16
650.118	1	16
650.288	1	16
650.457	1	16
650.627	1	14
650.796	1	4
650.966	1	9
651.135	1	7
651.305	1	6
651.474	1	4
651.644	1	16
651.813	1	6
651.983	1	18
652.152	1	14
652.322	1	6
652.491	1	4
652.661	1	8
652.830	1	14
653.000	1	8
653.169	1	13
653.339	1	21
653.508	1	1
653.678	1	5
653.847	1	19
654.017	1	4
654.186	1	13
654.356	1	3
654.525	1	14
654.695	1	13
654.864	1	11
655.034	1	15
655.203	1	-2
655.373	1	13
655.542	1	7
655.712	1	10
655.881	1	5
656.051	1	5
656.220	1	-1
656.390	1	13
656.559	1	14
656.729	1	18
656.898	1	-2
657.068	1	5
657.237	1	-1
657.406	1	11
657.576	1	4
657.745	1	9
657.915	1	8
658.084	1	9
658.254	1	5
658.423	1	15
658.593	1	29
658.762	1	0
658.932	1	10
659.101	1	24
659.271	1	12
659.440	1	10
659.610	1	0
659.779	1	9
659.949	1	2
660.118	1	13
660.288	1	23
660.457	1	10
660.626	1	11
660.796	1	-4
660.965	1	16
661.135	1	1
661.304	1	6
661.474	1	7
661.643	1	1
661.813	1	18
661.982	1	19
662.152	1	13
662.321	1	18
662.491	1	7
662.660	1	13
662.829	1	5
662.999	1	-2
663.168	1	6
663.338	1	12
663.507	1	13
663.677	1	7
663.846	1	5
664.016	1	5
664.185	1	11
664.354	1	15
664.524	1	13
664.693	1	14
664.863	1	15
665.032	1	10
665.202	1	3
665.371	1	11
665.541	1	4
665.710	1	9
665.879	1	2
666.049	1	8
666.218	1	2
666.388	1	8
666.557	1	9
666.727	1	4
666.896	1	-1
667.065	1	8
667.235	1	8
667.404	1	7
667.574	1	5
667.743	1	7
667.913	1	11
668.082	1	13
668.251	1	5
668.421	1	3
668.590	1	5
668.760	1	3
668.929	1	-2
669.099	1	14
669.268	1	2
669.437	1	12
669.607	1	12
669.776	1	2
669.946	1	1
670.115	1	8
670.285	1	4
670.454	1	10
670.623	1	7
670.793	1	6
670.962	1	7
671.132	1	18
671.301	1	1
671.470	1	10
671.640	1	12
671.809	1	10
671.979	1	4
672.148	1	5
672.317	1	11
672.487	1	16
672.656	1	10
672.826	1	14
672.995	1	10
673.164	1	11
673.334	1	4
673.503	1	8
673.673	1	15
673.842	1	5
674.011	1	6
674.181	1	16
674.350	1	8
674.520	1	0
674.689	1	6
674.858	1	7
675.028	1	11
675.197	1	1
675.367	1	16
675.536	1	16
675.705	1	16
675.875	1	7
676.044	1	4
676.214	1	5
676.383	1	9
676.552	1	8
676.722	1	6
676.891	1	17
677.060	1	7
677.230	1	8
677.399	1	5
677.569	1	11
677.738	1	14
677.907	1	10
678.077	1	18
678.246	1	6
678.416	1	6
678.585	1	11
678.754	1	1
678.924	1	5
679.093	1	16
679.262	1	7
679.432	1	20
679.601	1	8
679.771	1	8
679.940	1	9
680.109	1	10
680.279	1	0
680.448	1	12
680.617	1	0
680.787	1	5
680.956	1	8
681.125	1	17
681.295	1	8
681.464	1	8
681.634	1	9
681.803	1	8
681.972	1	-5
682.142	1	19
682.311	1	19
682.480	1	20
682.650	1	13
682.819	1	12
682.988	1	5
683.158	1	7
683.327	1	7
683.496	1	3
683.666	1	0
683.835	1	15
684.004	1	16
684.174	1	13
684.343	1	1
684.512	1	9
684.682	1	5
684.851	1	7
685.021	1	10
685.190	1	16
685.359	1	13
685.529	1	12
685.698	1	13
685.867	1	6
686.037	1	14
686.206	1	8
686.375	1	21
686.545	1	4
686.714	1	-2
686.883	1	13
687.053	1	10
687.222	1	16
687.391	1	7
687.561	1	16
687.730	1	3
687.899	1	5
688.069	1	16
688.238	1	3
688.407	1	4
688.577	1	9
688.746	1	11
