340.368	1	7
340.539	1	-16
340.710	1	-5
340.881	1	-9
341.052	1	-1
341.223	1	-10
341.394	1	-4
341.565	1	-1
341.737	1	-4
341.908	1	0
342.079	1	-1
342.250	1	-3
342.421	1	-5
342.592	1	2
342.763	1	-2
342.934	1	-2
343.105	1	0
343.276	1	5
343.447	1	-8
343.618	1	3
343.789	1	-3
343.960	1	1
344.131	1	0
344.302	1	-4
344.473	1	-2
344.644	1	4
344.815	1	1
344.986	1	-1
345.157	1	2
345.328	1	6
345.499	1	3
345.670	1	-10
345.841	1	0
346.012	1	3
346.183	1	0
346.354	1	4
346.526	1	-6
346.697	1	0
346.868	1	4
347.039	1	7
347.210	1	-13
347.381	1	7
347.552	1	-7
347.723	1	-4
347.894	1	2
348.065	1	3
348.236	1	4
348.407	1	-3
348.578	1	3
348.749	1	-14
348.920	1	6
349.091	1	-10
349.262	1	9
349.433	1	7
349.604	1	-2
349.775	1	5
349.946	1	-8
350.117	1	5
350.288	1	13
350.459	1	-4
350.630	1	2
350.801	1	-2
350.972	1	1
351.143	1	-6
351.314	1	5
351.485	1	6
351.656	1	4
351.827	1	3
351.998	1	7
352.169	1	-4
352.340	1	3
352.511	1	-6
352.682	1	4
352.853	1	-1
353.024	1	8
353.195	1	5
353.366	1	18
353.537	1	1
353.708	1	7
353.879	1	5
354.050	1	-3
354.221	1	-9
354.392	1	-7
354.563	1	1
354.734	1	5
354.905	1	13
355.076	1	2
355.247	1	18
355.418	1	-10
355.589	1	-6
355.760	1	3
355.931	1	-1
356.102	1	9
356.273	1	-1
356.444	1	13
356.615	1	-4
356.785	1	4
356.956	1	7
357.127	1	2
357.298	1	13
357.469	1	5
357.640	1	12
357.811	1	1
357.982	1	5
358.153	1	17
358.324	1	9
358.495	1	8
358.666	1	1
358.837	1	-3
359.008	1	-5
359.179	1	10
359.350	1	-6
359.521	1	13
359.692	1	15
359.863	1	8
360.034	1	8
360.205	1	0
360.376	1	7
360.547	1	11
360.718	1	8
360.889	1	-7
361.060	1	13
361.231	1	4
361.401	1	16
361.572	1	8
361.743	1	10
361.914	1	8
362.085	1	10
362.256	1	21
362.427	1	23
362.598	1	7
362.769	1	5
362.940	1	15
363.111	1	11
363.282	1	18
363.453	1	16
363.624	1	23
363.795	1	16
363.966	1	14
364.137	1	18
364.308	1	7
364.478	1	17
364.649	1	24
364.820	1	16
364.991	1	21
365.162	1	26
365.333	1	15
365.504	1	19
365.675	1	7
365.846	1	26
366.017	1	24
366.188	1	10
366.359	1	30
366.530	1	39
366.701	1	31
366.871	1	26
367.042	1	35
367.213	1	40
367.384	1	43
367.555	1	33
367.726	1	28
367.897	1	40
368.068	1	49
368.239	1	38
368.410	1	44
368.581	1	31
368.752	1	26
368.923	1	30
369.093	1	43
369.264	1	33
369.435	1	37
369.606	1	38
369.777	1	41
369.948	1	47
370.119	1	37
370.290	1	40
370.461	1	56
370.632	1	49
370.803	1	43
370.973	1	40
371.144	1	44
371.315	1	32
371.486	1	36
371.657	1	40
371.828	1	33
371.999	1	34
372.170	1	31
372.341	1	37
372.512	1	24
372.682	1	38
372.853	1	33
373.024	1	33
373.195	1	32
373.366	1	35
373.537	1	28
373.708	1	29
373.879	1	28
374.050	1	26
374.220	1	40
374.391	1	23
374.562	1	39
374.733	1	29
374.904	1	25
375.075	1	32
375.246	1	28
375.417	1	23
375.588	1	20
375.758	1	25
375.929	1	16
376.100	1	26
376.271	1	34
376.442	1	17
376.613	1	15
376.784	1	21
376.955	1	14
377.125	1	27
377.296	1	17
377.467	1	13
377.638	1	25
377.809	1	14
377.980	1	14
378.151	1	19
378.321	1	6
378.492	1	9
378.663	1	4
378.834	1	14
379.005	1	19
379.176	1	16
379.347	1	20
379.518	1	11
379.688	1	19
379.859	1	17
380.030	1	11
380.201	1	20
380.372	1	7
380.543	1	7
380.714	1	18
380.884	1	14
381.055	1	21
381.226	1	2
381.397	1	20
381.568	1	24
381.739	1	15
381.910	1	3
382.080	1	13
382.251	1	0
382.422	1	9
382.593	1	4
382.764	1	-5
382.935	1	0
383.105	1	10
383.276	1	18
383.447	1	-3
383.618	1	6
383.789	1	3
383.960	1	13
384.130	1	5
384.301	1	10
384.472	1	3
384.643	1	14
384.814	1	10
384.985	1	8
385.156	1	7
385.326	1	13
385.497	1	15
385.668	1	8
385.839	1	3
386.010	1	7
386.180	1	8
386.351	1	3
386.522	1	14
386.693	1	-7
386.864	1	13
387.035	1	1
387.205	1	0
387.376	1	21
387.547	1	2
387.718	1	6
387.889	1	8
388.060	1	10
388.230	1	12
388.401	1	14
388.572	1	-8
388.743	1	7
388.914	1	7
389.084	1	2
389.255	1	1
389.426	1	10
389.597	1	3
389.768	1	0
389.939	1	-1
390.109	1	8
390.280	1	4
390.451	1	1
390.622	1	5
390.793	1	0
390.963	1	9
391.134	1	13
391.305	1	16
391.476	1	-4
391.647	1	1
391.817	1	9
391.988	1	0
392.159	1	-4
392.330	1	19
392.501	1	5
392.671	1	3
392.842	1	4
393.013	1	-1
393.184	1	-4
393.355	1	5
393.525	1	0
393.696	1	8
393.867	1	7
394.038	1	9
394.208	1	-3
394.379	1	12
394.550	1	12
394.721	1	-3
394.892	1	-4
395.062	1	1
395.233	1	7
395.404	1	1
395.575	1	-2
395.746	1	10
395.916	1	6
396.087	1	5
396.258	1	8
396.429	1	15
396.599	1	3
396.770	1	3
396.941	1	1
397.112	1	4
397.283	1	-1
397.453	1	16
397.624	1	2
397.795	1	3
397.966	1	2
398.136	1	-4
398.307	1	4
398.478	1	3
398.649	1	-14
398.819	1	-4
398.990	1	2
399.161	1	16
399.332	1	4
399.503	1	3
399.673	1	13
399.844	1	4
400.015	1	-5
400.186	1	-7
400.356	1	-10
400.527	1	1
400.698	1	6
400.869	1	4
401.039	1	7
401.210	1	12
401.381	1	-5
401.552	1	-2
401.722	1	4
401.893	1	-2
402.064	1	-6
402.235	1	0
402.405	1	-3
402.576	1	-4
402.747	1	-6
402.918	1	11
403.088	1	2
403.259	1	3
403.430	1	2
403.601	1	-3
403.771	1	4
403.942	1	8
404.113	1	-4
404.284	1	11
404.454	1	9
404.625	1	9
404.796	1	2
404.967	1	-6
405.137	1	8
405.308	1	11
405.479	1	22
405.649	1	-2
405.820	1	-10
405.991	1	-8
406.162	1	-1
406.332	1	2
406.503	1	8
406.674	1	-3
406.845	1	7
407.015	1	3
407.186	1	9
407.357	1	1
407.527	1	-1
407.698	1	9
407.869	1	-3
408.040	1	-10
408.210	1	3
408.381	1	2
408.552	1	-1
408.722	1	-15
408.893	1	10
409.064	1	5
409.235	1	-5
409.405	1	18
409.576	1	6
409.747	1	1
409.917	1	5
410.088	1	1
410.259	1	2
410.430	1	8
410.600	1	-4
410.771	1	-2
410.942	1	5
411.112	1	2
411.283	1	5
411.454	1	-5
411.625	1	-1
411.795	1	-3
411.966	1	8
412.137	1	12
412.307	1	3
412.478	1	8
412.649	1	-1
412.819	1	-4
412.990	1	2
413.161	1	-6
413.332	1	10
413.502	1	-2
413.673	1	3
413.844	1	1
414.014	1	2
414.185	1	12
414.356	1	9
414.526	1	3
414.697	1	10
414.868	1	-8
415.038	1	3
415.209	1	4
415.380	1	-4
415.550	1	-3
415.721	1	-1
415.892	1	-3
416.063	1	-8
416.233	1	7
416.404	1	-1
416.575	1	4
416.745	1	-8
416.916	1	-7
417.087	1	2
417.257	1	0
417.428	1	0
417.599	1	6
417.769	1	11
417.940	1	10
418.111	1	-3
418.281	1	10
418.452	1	-7
418.623	1	-9
418.793	1	7
418.964	1	-14
419.135	1	-7
419.305	1	7
419.476	1	2
419.647	1	3
419.817	1	4
419.988	1	0
420.159	1	7
420.329	1	-9
420.500	1	-8
420.671	1	1
420.841	1	17
421.012	1	16
421.183	1	0
421.353	1	-1
421.524	1	1
421.695	1	-3
421.865	1	-5
422.036	1	1
422.206	1	-5
422.377	1	-1
422.548	1	-11
422.718	1	10
422.889	1	-9
423.060	1	5
423.230	1	6
423.401	1	12
423.572	1	-2
423.742	1	0
423.913	1	0
424.084	1	1
424.254	1	1
424.425	1	5
424.595	1	-1
424.766	1	-5
424.937	1	3
425.107	1	-7
425.278	1	4
425.449	1	-3
425.619	1	-4
425.790	1	-7
425.961	1	-7
426.131	1	8
426.302	1	-1
426.472	1	4
426.643	1	8
426.814	1	0
426.984	1	3
427.155	1	-3
427.326	1	2
427.496	1	0
427.667	1	6
427.837	1	-2
428.008	1	4
428.179	1	-4
428.349	1	-9
428.520	1	4
428.691	1	5
428.861	1	-5
429.032	1	-4
429.202	1	5
429.373	1	-1
429.544	1	-1
429.714	1	4
429.885	1	3
430.055	1	4
430.226	1	-7
430.397	1	2
430.567	1	-3
430.738	1	-6
430.909	1	5
431.079	1	-5
431.250	1	3
431.420	1	-8
431.591	1	-1
431.762	1	0
431.932	1	-1
432.103	1	8
432.273	1	2
432.444	1	4
432.615	1	-11
432.785	1	-1
432.956	1	-2
433.126	1	1
433.297	1	14
433.468	1	1
433.638	1	-5
433.809	1	4
433.979	1	8
434.150	1	0
434.320	1	8
434.491	1	-4
434.662	1	5
434.832	1	2
435.003	1	8
435.173	1	-10
435.344	1	6
435.515	1	1
435.685	1	-1
435.856	1	0
436.026	1	1
436.197	1	1
436.368	1	6
436.538	1	-4
436.709	1	-1
436.879	1	-2
437.050	1	-7
437.220	1	12
437.391	1	11
437.562	1	6
437.732	1	-5
437.903	1	7
438.073	1	-3
438.244	1	3
438.414	1	-7
438.585	1	-1
438.756	1	-5
438.926	1	3
439.097	1	-12
439.267	1	-3
439.438	1	-6
439.608	1	-10
439.779	1	1
439.949	1	8
440.120	1	5
440.291	1	-5
440.461	1	3
440.632	1	6
440.802	1	-6
440.973	1	-3
441.143	1	4
441.314	1	-9
441.485	1	10
441.655	1	7
441.826	1	8
441.996	1	5
442.167	1	-5
442.337	1	7
442.508	1	-7
442.678	1	-6
442.849	1	4
443.019	1	8
443.190	1	-2
443.361	1	-2
443.531	1	9
443.702	1	-2
443.872	1	7
444.043	1	-4
444.213	1	9
444.384	1	-7
444.554	1	5
444.725	1	-3
444.895	1	2
445.066	1	-3
445.237	1	-4
445.407	1	6
445.578	1	-3
445.748	1	1
445.919	1	-5
446.089	1	9
446.260	1	-6
446.430	1	0
446.601	1	-2
446.771	1	11
446.942	1	12
447.112	1	-6
447.283	1	-4
447.453	1	-4
447.624	1	-12
447.794	1	1
447.965	1	-10
448.135	1	-2
448.306	1	10
448.477	1	6
448.647	1	4
448.818	1	3
448.988	1	-6
449.159	1	-8
449.329	1	-5
449.500	1	-2
449.670	1	1
449.841	1	4
450.011	1	6
450.182	1	-3
450.352	1	0
450.523	1	-10
450.693	1	-10
450.864	1	11
451.034	1	-4
451.205	1	10
451.375	1	1
451.546	1	7
451.716	1	7
451.887	1	-12
452.057	1	2
452.228	1	-1
452.398	1	3
452.569	1	-6
452.739	1	7
452.910	1	-2
453.080	1	-4
453.251	1	0
453.421	1	12
453.592	1	-2
453.762	1	0
453.933	1	2
454.103	1	-2
454.274	1	-10
454.444	1	-8
454.615	1	10
454.785	1	-11
454.956	1	2
455.126	1	-2
455.297	1	10
455.467	1	-3
455.638	1	-2
455.808	1	0
455.979	1	8
456.149	1	1
456.320	1	-5
456.490	1	3
456.661	1	5
456.831	1	7
457.001	1	2
457.172	1	4
457.342	1	-2
457.513	1	7
457.683	1	-5
457.854	1	1
458.024	1	-6
458.195	1	-6
458.365	1	-3
458.536	1	6
458.706	1	3
458.877	1	0
459.047	1	4
459.218	1	-1
459.388	1	4
459.559	1	0
459.729	1	-1
459.899	1	2
460.070	1	0
460.240	1	7
460.411	1	-9
460.581	1	24
460.752	1	7
460.922	1	3
461.093	1	7
461.263	1	-4
461.434	1	-6
461.604	1	0
461.775	1	-5
461.945	1	1
462.115	1	7
462.286	1	-1
462.456	1	-4
462.627	1	6
462.797	1	-6
462.968	1	-3
463.138	1	5
463.309	1	-1
463.479	1	-3
463.649	1	-2
463.820	1	0
463.990	1	-1
464.161	1	-1
464.331	1	-2
464.502	1	-1
464.672	1	-1
464.843	1	5
465.013	1	-2
465.183	1	-4
465.354	1	1
465.524	1	-7
465.695	1	-3
465.865	1	1
466.036	1	12
466.206	1	11
466.376	1	-7
466.547	1	-8
466.717	1	-1
466.888	1	8
467.058	1	3
467.229	1	2
467.399	1	8
467.569	1	17
467.740	1	4
467.910	1	2
468.081	1	2
468.251	1	-5
468.422	1	-5
468.592	1	8
468.762	1	-5
468.933	1	4
469.103	1	-1
469.274	1	3
469.444	1	-11
469.614	1	-2
469.785	1	-9
469.955	1	0
470.126	1	-12
470.296	1	6
470.467	1	-5
470.637	1	7
470.807	1	-5
470.978	1	-7
471.148	1	-3
471.319	1	0
471.489	1	-4
471.659	1	0
471.830	1	1
472.000	1	-3
472.171	1	5
472.341	1	-1
472.511	1	-2
472.682	1	-3
472.852	1	4
473.023	1	-2
473.193	1	5
473.363	1	2
473.534	1	-2
473.704	1	-6
473.875	1	2
474.045	1	-5
474.215	1	7
474.386	1	17
474.556	1	3
474.727	1	1
474.897	1	3
475.067	1	6
475.238	1	3
475.408	1	4
475.578	1	-10
475.749	1	11
475.919	1	-4
476.090	1	4
476.260	1	-7
476.430	1	1
476.601	1	1
476.771	1	-5
476.942	1	6
477.112	1	6
477.282	1	-7
477.453	1	0
477.623	1	-6
477.793	1	-1
477.964	1	-5
478.134	1	-10
478.305	1	-1
478.475	1	-2
478.645	1	12
478.816	1	7
478.986	1	0
479.156	1	1
479.327	1	-3
479.497	1	0
479.667	1	1
479.838	1	-2
480.008	1	-3
480.179	1	3
480.349	1	0
480.519	1	7
480.690	1	3
480.860	1	5
481.030	1	-5
481.201	1	5
481.371	1	6
481.541	1	5
481.712	1	4
481.882	1	2
482.053	1	1
482.223	1	2
482.393	1	8
482.564	1	5
482.734	1	-8
482.904	1	-1
483.075	1	-2
483.245	1	5
483.415	1	1
483.586	1	-2
483.756	1	4
483.926	1	4
484.097	1	-3
484.267	1	-9
484.437	1	-5
484.608	1	5
484.778	1	-2
484.948	1	-3
485.119	1	-2
485.289	1	7
485.459	1	11
485.630	1	0
485.800	1	2
485.970	1	-1
486.141	1	-7
486.311	1	2
486.481	1	-6
486.652	1	8
486.822	1	8
486.992	1	3
487.163	1	-12
487.333	1	-6
487.503	1	6
487.674	1	2
487.844	1	9
488.014	1	-2
488.185	1	-6
488.355	1	0
488.525	1	1
488.696	1	3
488.866	1	1
489.036	1	11
489.207	1	-3
489.377	1	-9
489.547	1	-6
489.718	1	1
489.888	1	-1
490.058	1	-5
490.228	1	9
490.399	1	-6
490.569	1	20
490.739	1	1
490.910	1	4
491.080	1	9
491.250	1	0
491.421	1	2
491.591	1	-5
491.761	1	0
491.932	1	5
492.102	1	-8
492.272	1	0
492.442	1	5
492.613	1	-2
492.783	1	6
492.953	1	4
493.124	1	11
493.294	1	-4
493.464	1	9
493.635	1	7
493.805	1	-3
493.975	1	2
494.145	1	-3
494.316	1	9
494.486	1	1
494.656	1	-1
494.827	1	14
494.997	1	-1
495.167	1	4
495.337	1	17
495.508	1	-2
495.678	1	1
495.848	1	8
496.019	1	-3
496.189	1	-4
496.359	1	6
496.529	1	5
496.700	1	6
496.870	1	0
497.040	1	-6
497.211	1	-1
497.381	1	2
497.551	1	5
497.721	1	-1
497.892	1	-2
498.062	1	-3
498.232	1	-4
498.403	1	3
498.573	1	1
498.743	1	2
498.913	1	2
499.084	1	4
499.254	1	1
499.424	1	5
499.594	1	10
499.765	1	-2
499.935	1	7
500.105	1	-1
500.275	1	-1
500.446	1	-5
500.616	1	-3
500.786	1	-12
500.956	1	5
501.127	1	2
501.297	1	-3
501.467	1	-12
501.638	1	1
501.808	1	1
501.978	1	6
502.148	1	5
502.319	1	-6
502.489	1	4
502.659	1	4
502.829	1	-3
503.000	1	1
503.170	1	12
503.340	1	7
503.510	1	6
503.681	1	-6
503.851	1	1
504.021	1	7
504.191	1	4
504.362	1	5
504.532	1	4
504.702	1	-1
504.872	1	-1
505.042	1	-1
505.213	1	2
505.383	1	-1
505.553	1	-6
505.723	1	6
505.894	1	-5
506.064	1	6
506.234	1	7
506.404	1	8
506.575	1	4
506.745	1	1
506.915	1	-1
507.085	1	-2
507.256	1	17
507.426	1	6
507.596	1	4
507.766	1	0
507.936	1	14
508.107	1	-7
508.277	1	-2
508.447	1	8
508.617	1	8
508.788	1	13
508.958	1	-14
509.128	1	4
509.298	1	3
509.468	1	5
509.639	1	-6
509.809	1	9
509.979	1	-2
510.149	1	4
510.319	1	6
510.490	1	-1
510.660	1	-4
510.830	1	0
511.000	1	5
511.171	1	2
511.341	1	7
511.511	1	4
511.681	1	2
511.851	1	6
512.022	1	-5
512.192	1	6
512.362	1	-6
512.532	1	4
512.702	1	-2
512.873	1	15
513.043	1	4
513.213	1	3
513.383	1	-11
513.553	1	-5
513.724	1	5
513.894	1	-4
514.064	1	10
514.234	1	3
514.404	1	-1
514.575	1	8
514.745	1	-6
514.915	1	6
515.085	1	2
515.255	1	0
515.425	1	-7
515.596	1	6
515.766	1	-7
515.936	1	2
516.106	1	-1
516.276	1	-10
516.447	1	17
516.617	1	9
516.787	1	15
516.957	1	0
517.127	1	2
517.297	1	-3
517.468	1	5
517.638	1	0
517.808	1	4
517.978	1	3
518.148	1	6
518.319	1	7
518.489	1	-5
518.659	1	-4
518.829	1	10
518.999	1	1
519.169	1	4
519.340	1	-1
519.510	1	8
519.680	1	4
519.850	1	18
520.020	1	1
520.190	1	-2
520.361	1	8
520.531	1	9
520.701	1	1
520.871	1	5
521.041	1	3
521.211	1	-6
521.382	1	-3
521.552	1	11
521.722	1	4
521.892	1	1
522.062	1	8
522.232	1	12
522.402	1	6
522.573	1	2
522.743	1	2
522.913	1	-1
523.083	1	-5
523.253	1	0
523.423	1	13
523.593	1	-4
523.764	1	-3
523.934	1	9
524.104	1	5
524.274	1	9
524.444	1	6
524.614	1	0
524.784	1	0
524.955	1	-4
525.125	1	5
525.295	1	-4
525.465	1	8
525.635	1	-3
525.805	1	2
525.975	1	17
526.146	1	-2
526.316	1	12
526.486	1	-3
526.656	1	-5
526.826	1	-1
526.996	1	5
527.166	1	-4
527.337	1	1
527.507	1	10
527.677	1	3
527.847	1	7
528.017	1	-3
528.187	1	10
528.357	1	-4
528.527	1	7
528.698	1	2
528.868	1	2
529.038	1	1
529.208	1	5
529.378	1	1
529.548	1	-7
529.718	1	9
529.888	1	-2
530.058	1	10
530.229	1	-1
530.399	1	13
530.569	1	-2
530.739	1	3
530.909	1	0
531.079	1	3
531.249	1	-10
531.419	1	12
531.589	1	12
531.760	1	9
531.930	1	-3
532.100	1	7
532.270	1	1
532.440	1	3
532.610	1	-8
532.780	1	-5
532.950	1	5
533.120	1	15
533.290	1	8
533.461	1	4
533.631	1	5
533.801	1	18
533.971	1	4
534.141	1	-11
534.311	1	12
534.481	1	-8
534.651	1	3
534.821	1	3
534.991	1	3
535.162	1	-5
535.332	1	7
535.502	1	-4
535.672	1	20
535.842	1	4
536.012	1	-3
536.182	1	10
536.352	1	-1
536.522	1	1
536.692	1	12
536.862	1	10
537.032	1	11
537.203	1	-3
537.373	1	-2
537.543	1	7
537.713	1	10
537.883	1	1
538.053	1	4
538.223	1	5
538.393	1	15
538.563	1	14
538.733	1	4
538.903	1	-11
539.073	1	1
539.243	1	9
539.413	1	-1
539.584	1	-4
539.754	1	12
539.924	1	10
540.094	1	5
540.264	1	-1
540.434	1	3
540.604	1	-7
540.774	1	11
540.944	1	0
541.114	1	4
541.284	1	8
541.454	1	6
541.624	1	9
541.794	1	-3
541.964	1	6
542.134	1	8
542.305	1	5
542.475	1	5
542.645	1	-5
542.815	1	2
542.985	1	7
543.155	1	7
543.325	1	-6
543.495	1	1
543.665	1	13
543.835	1	9
544.005	1	11
544.175	1	-6
544.345	1	13
544.515	1	-2
544.685	1	2
544.855	1	3
545.025	1	13
545.195	1	-3
545.365	1	6
545.535	1	4
545.705	1	11
545.875	1	3
546.045	1	-5
546.216	1	3
546.386	1	2
546.556	1	-9
546.726	1	-1
546.896	1	3
547.066	1	-2
547.236	1	5
547.406	1	10
547.576	1	12
547.746	1	-4
547.916	1	-7
548.086	1	-1
548.256	1	0
548.426	1	-1
548.596	1	4
548.766	1	2
548.936	1	0
549.106	1	0
549.276	1	6
549.446	1	-1
549.616	1	-5
549.786	1	-3
549.956	1	10
550.126	1	11
550.296	1	1
550.466	1	5
550.636	1	21
550.806	1	1
550.976	1	-1
551.146	1	4
551.316	1	5
551.486	1	1
551.656	1	-1
551.826	1	9
551.996	1	18
552.166	1	3
552.336	1	-1
552.506	1	14
552.676	1	14
552.846	1	4
553.016	1	7
553.186	1	0
553.356	1	1
553.526	1	-1
553.696	1	15
553.866	1	9
554.036	1	-2
554.206	1	14
554.376	1	5
554.546	1	11
554.716	1	-2
554.886	1	6
555.056	1	5
555.226	1	0
555.396	1	0
555.566	1	6
555.736	1	10
555.906	1	4
556.076	1	4
556.246	1	5
556.416	1	-1
556.586	1	0
556.756	1	7
556.926	1	2
557.096	1	-5
557.266	1	0
557.436	1	3
557.606	1	-3
557.776	1	0
557.946	1	17
558.116	1	13
558.286	1	5
558.456	1	2
558.626	1	1
558.796	1	11
558.966	1	1
559.136	1	8
559.306	1	6
559.476	1	0
559.646	1	-9
559.816	1	-2
559.986	1	0
560.155	1	12
560.325	1	2
560.495	1	7
560.665	1	4
560.835	1	10
561.005	1	-7
561.175	1	0
561.345	1	-1
561.515	1	-11
561.685	1	2
561.855	1	-10
562.025	1	7
562.195	1	9
562.365	1	4
562.535	1	4
562.705	1	2
562.875	1	-3
563.045	1	2
563.215	1	0
563.385	1	-1
563.555	1	6
563.725	1	-3
563.895	1	9
564.064	1	2
564.234	1	7
564.404	1	1
564.574	1	8
564.744	1	8
564.914	1	-3
565.084	1	-3
565.254	1	10
565.424	1	3
565.594	1	14
565.764	1	5
565.934	1	8
566.104	1	6
566.274	1	5
566.444	1	-2
566.614	1	-1
566.783	1	-9
566.953	1	17
567.123	1	-2
567.293	1	21
567.463	1	10
567.633	1	6
567.803	1	-8
567.973	1	-5
568.143	1	4
568.313	1	9
568.483	1	5
568.653	1	3
568.823	1	6
568.993	1	10
569.162	1	17
569.332	1	-3
569.502	1	4
569.672	1	6
569.842	1	-1
570.012	1	11
570.182	1	0
570.352	1	-5
570.522	1	-5
570.692	1	14
570.862	1	3
571.031	1	2
571.201	1	15
571.371	1	-5
571.541	1	7
571.711	1	7
571.881	1	16
572.051	1	-7
572.221	1	0
572.391	1	-3
572.561	1	0
572.731	1	16
572.900	1	-11
573.070	1	11
573.240	1	5
573.410	1	5
573.580	1	6
573.750	1	-7
573.920	1	6
574.090	1	2
574.260	1	21
574.430	1	9
574.599	1	4
574.769	1	3
574.939	1	1
575.109	1	1
575.279	1	7
575.449	1	3
575.619	1	6
575.789	1	1
575.959	1	-5
576.128	1	-5
576.298	1	15
576.468	1	-2
576.638	1	1
576.808	1	0
576.978	1	6
577.148	1	6
577.318	1	12
577.487	1	-2
577.657	1	-1
577.827	1	4
577.997	1	10
578.167	1	7
578.337	1	18
578.507	1	3
578.677	1	9
578.846	1	6
579.016	1	14
579.186	1	-9
579.356	1	-1
579.526	1	4
579.696	1	10
579.866	1	8
580.036	1	6
580.205	1	0
580.375	1	-1
580.545	1	2
580.715	1	4
580.885	1	6
581.055	1	-4
581.225	1	4
581.394	1	0
581.564	1	10
581.734	1	-8
581.904	1	6
582.074	1	-5
582.244	1	6
582.414	1	18
582.583	1	21
582.753	1	-1
582.923	1	2
583.093	1	9
583.263	1	1
583.433	1	-7
583.603	1	3
583.772	1	9
583.942	1	7
584.112	1	4
584.282	1	-11
584.452	1	5
584.622	1	-5
584.791	1	2
584.961	1	1
585.131	1	17
585.301	1	-9
585.471	1	12
585.641	1	0
585.811	1	9
585.980	1	8
586.150	1	5
586.320	1	2
586.490	1	3
586.660	1	5
586.830	1	0
586.999	1	3
587.169	1	6
587.339	1	13
587.509	1	1
587.679	1	10
587.849	1	8
588.018	1	7
588.188	1	5
588.358	1	-5
588.528	1	-3
588.698	1	4
588.867	1	14
589.037	1	17
589.207	1	7
589.377	1	5
589.547	1	0
589.717	1	2
589.886	1	-13
590.056	1	-2
590.226	1	16
590.396	1	17
590.566	1	4
590.735	1	2
590.905	1	0
591.075	1	8
591.245	1	5
591.415	1	-4
591.585	1	2
591.754	1	3
591.924	1	5
592.094	1	0
592.264	1	6
592.434	1	-4
592.603	1	5
592.773	1	-4
592.943	1	5
593.113	1	3
593.283	1	8
593.452	1	11
593.622	1	-1
593.792	1	2
593.962	1	3
594.132	1	11
594.301	1	13
594.471	1	10
594.641	1	-6
594.811	1	1
594.981	1	2
595.150	1	-9
595.320	1	7
595.490	1	7
595.660	1	7
595.829	1	-1
595.999	1	-4
596.169	1	12
596.339	1	13
596.509	1	3
596.678	1	1
596.848	1	-1
597.018	1	-5
597.188	1	-2
597.358	1	5
597.527	1	-4
597.697	1	9
597.867	1	-8
598.037	1	-2
598.206	1	3
598.376	1	7
598.546	1	-3
598.716	1	5
598.885	1	-13
599.055	1	7
599.225	1	-12
599.395	1	2
599.565	1	-10
599.734	1	5
599.904	1	-2
600.074	1	-4
600.244	1	-6
600.413	1	12
600.583	1	8
600.753	1	6
600.923	1	3
601.092	1	14
601.262	1	2
601.432	1	2
601.602	1	10
601.771	1	8
601.941	1	1
602.111	1	0
602.281	1	18
602.451	1	10
602.620	1	-1
602.790	1	-3
602.960	1	-2
603.130	1	1
603.299	1	7
603.469	1	-6
603.639	1	-14
603.809	1	9
603.978	1	-3
604.148	1	9
604.318	1	-1
604.487	1	-7
604.657	1	5
604.827	1	15
604.997	1	7
605.166	1	2
605.336	1	18
605.506	1	10
605.676	1	-5
605.845	1	-8
606.015	1	1
606.185	1	3
606.355	1	11
606.524	1	0
606.694	1	-3
606.864	1	4
607.034	1	2
607.203	1	0
607.373	1	3
607.543	1	1
607.712	1	-5
607.882	1	9
608.052	1	-4
608.222	1	10
608.391	1	9
608.561	1	9
608.731	1	4
608.901	1	10
609.070	1	12
609.240	1	-4
609.410	1	5
609.579	1	2
609.749	1	4
609.919	1	7
610.089	1	6
610.258	1	8
610.428	1	5
610.598	1	2
610.767	1	-3
610.937	1	10
611.107	1	-2
611.277	1	-4
611.446	1	5
611.616	1	1
611.786	1	4
611.955	1	12
612.125	1	3
612.295	1	4
612.465	1	-2
612.634	1	9
612.804	1	12
612.974	1	-13
613.143	1	1
613.313	1	7
613.483	1	6
613.652	1	1
613.822	1	-3
613.992	1	-5
614.162	1	8
614.331	1	1
614.501	1	6
614.671	1	2
614.840	1	0
615.010	1	-6
615.180	1	0
615.349	1	2
615.519	1	-6
615.689	1	4
615.858	1	11
616.028	1	2
616.198	1	3
616.368	1	5
616.537	1	4
616.707	1	6
616.877	1	6
617.046	1	-1
617.216	1	-2
617.386	1	2
617.555	1	2
617.725	1	3
617.895	1	-3
618.064	1	2
618.234	1	-12
618.404	1	-2
618.573	1	4
618.743	1	7
618.913	1	11
619.082	1	0
619.252	1	-5
619.422	1	-2
619.591	1	1
619.761	1	-1
619.931	1	7
620.100	1	7
620.270	1	-2
620.440	1	4
620.609	1	-2
620.779	1	-1
620.949	1	1
621.118	1	4
621.288	1	0
621.458	1	13
621.627	1	5
621.797	1	0
621.967	1	-6
622.136	1	10
622.306	1	-2
622.476	1	4
622.645	1	7
622.815	1	10
622.985	1	-4
623.154	1	-2
623.324	1	6
623.494	1	14
623.663	1	4
623.833	1	8
624.002	1	-1
624.172	1	4
624.342	1	5
624.511	1	2
624.681	1	0
624.851	1	-14
625.020	1	7
625.190	1	2
625.360	1	-1
625.529	1	5
625.699	1	-4
625.869	1	-1
626.038	1	-7
626.208	1	3
626.377	1	10
626.547	1	0
626.717	1	0
626.886	1	3
627.056	1	-7
627.226	1	-2
627.395	1	7
627.565	1	-2
627.735	1	9
627.904	1	2
628.074	1	1
628.243	1	5
628.413	1	-1
628.583	1	8
628.752	1	8
628.922	1	10
629.091	1	-5
629.261	1	6
629.431	1	-8
629.600	1	11
629.770	1	-6
629.940	1	-4
630.109	1	-6
630.279	1	-8
630.448	1	2
630.618	1	2
630.788	1	1
630.957	1	-4
631.127	1	6
631.297	1	1
631.466	1	1
631.636	1	-2
631.805	1	2
631.975	1	16
632.145	1	3
632.314	1	5
632.484	1	-6
632.653	1	-6
632.823	1	0
632.993	1	0
633.162	1	10
633.332	1	6
633.501	1	0
633.671	1	-3
633.841	1	-8
634.010	1	-1
634.180	1	-1
634.349	1	10
634.519	1	2
634.689	1	3
634.858	1	6
635.028	1	12
635.197	1	10
635.367	1	-3
635.537	1	8
635.706	1	0
635.876	1	-6
636.045	1	4
636.215	1	6
636.384	1	3
636.554	1	7
636.724	1	-3
636.893	1	2
637.063	1	0
637.232	1	0
637.402	1	6
637.572	1	3
637.741	1	3
637.911	1	1
638.080	1	-2
638.250	1	-8
638.419	1	-6
638.589	1	3
638.759	1	8
638.928	1	2
639.098	1	5
639.267	1	5
639.437	1	-7
639.606	1	14
639.776	1	-3
639.946	1	9
640.115	1	1
640.285	1	13
640.454	1	-2
640.624	1	5
640.793	1	8
640.963	1	-6
641.132	1	0
641.302	1	3
641.472	1	-1
641.641	1	-9
641.811	1	4
641.980	1	9
642.150	1	-7
642.319	1	5
642.489	1	6
642.659	1	6
642.828	1	-7
642.998	1	5
643.167	1	-2
643.337	1	-2
643.506	1	-12
643.676	1	6
643.845	1	2
644.015	1	6
644.184	1	4
644.354	1	1
644.524	1	4
644.693	1	8
644.863	1	-5
645.032	1	4
645.202	1	7
645.371	1	-4
645.541	1	-3
645.710	1	2
645.880	1	1
646.049	1	-1
646.219	1	0
646.388	1	10
646.558	1	-3
646.728	1	9
646.897	1	5
647.067	1	-4
647.236	1	-3
647.406	1	-4
647.575	1	9
647.745	1	-2
647.914	1	-2
648.084	1	-8
648.253	1	14
648.423	1	-4
648.592	1	-7
648.762	1	5
648.931	1	10
649.101	1	-1
649.270	1	-8
649.440	1	2
649.610	1	8
649.779	1	4
649.949	1	-6
650.118	1	1
650.288	1	5
650.457	1	5
650.627	1	6
650.796	1	3
650.966	1	7
651.135	1	-8
651.305	1	-3
651.474	1	-1
651.644	1	9
651.813	1	6
651.983	1	0
652.152	1	1
652.322	1	-3
652.491	1	10
652.661	1	2
652.830	1	8
653.000	1	3
653.169	1	2
653.339	1	0
653.508	1	-1
653.678	1	0
653.847	1	12
654.017	1	1
654.186	1	7
654.356	1	1
654.525	1	3
654.695	1	-3
654.864	1	6
655.034	1	5
655.203	1	-3
655.373	1	2
655.542	1	1
655.712	1	8
655.881	1	-3
656.051	1	10
656.220	1	-1
656.390	1	-1
656.559	1	-1
656.729	1	17
656.898	1	-6
657.068	1	1
657.237	1	-8
657.406	1	5
657.576	1	4
657.745	1	-4
657.915	1	-1
658.084	1	0
658.254	1	-9
658.423	1	7
658.593	1	12
658.762	1	-3
658.932	1	6
659.101	1	5
659.271	1	11
659.440	1	0
659.610	1	1
659.779	1	3
659.949	1	-1
660.118	1	11
660.288	1	8
660.457	1	-5
660.626	1	6
660.796	1	-10
660.965	1	15
661.135	1	-6
661.304	1	6
661.474	1	3
661.643	1	4
661.813	1	11
661.982	1	6
662.152	1	2
662.321	1	12
662.491	1	0
662.660	1	7
662.829	1	8
662.999	1	-2
663.168	1	9
663.338	1	10
663.507	1	5
663.677	1	5
663.846	1	-4
664.016	1	4
664.185	1	1
664.354	1	9
664.524	1	-1
664.693	1	10
664.863	1	1
665.032	1	-7
665.202	1	2
665.371	1	-4
665.541	1	-14
665.710	1	0
665.879	1	-3
666.049	1	3
666.218	1	-4
666.388	1	1
666.557	1	0
666.727	1	1
666.896	1	-1
667.065	1	4
667.235	1	1
667.404	1	2
667.574	1	3
667.743	1	-6
667.913	1	3
668.082	1	2
668.251	1	1
668.421	1	0
668.590	1	6
668.760	1	0
668.929	1	-3
669.099	1	-8
669.268	1	0
669.437	1	1
669.607	1	6
669.776	1	-1
669.946	1	4
670.115	1	1
670.285	1	5
670.454	1	10
670.623	1	3
670.793	1	-5
670.962	1	0
671.132	1	13
671.301	1	3
671.470	1	2
671.640	1	13
671.809	1	-2
671.979	1	-6
672.148	1	8
672.317	1	2
672.487	1	4
672.656	1	-4
672.826	1	4
672.995	1	7
673.164	1	3
673.334	1	-1
673.503	1	8
673.673	1	4
673.842	1	0
674.011	1	-5
674.181	1	2
674.350	1	6
674.520	1	2
674.689	1	6
674.858	1	6
675.028	1	5
675.197	1	-1
675.367	1	9
675.536	1	0
675.705	1	-2
675.875	1	-1
676.044	1	1
676.214	1	-4
676.383	1	8
676.552	1	-2
676.722	1	7
676.891	1	15
677.060	1	-2
677.230	1	0
677.399	1	5
677.569	1	-10
677.738	1	5
677.907	1	1
678.077	1	15
678.246	1	1
678.416	1	8
678.585	1	9
678.754	1	4
678.924	1	-5
679.093	1	4
679.262	1	-5
679.432	1	-4
679.601	1	-1
679.771	1	6
679.940	1	-6
680.109	1	13
680.279	1	-3
680.448	1	5
680.617	1	4
680.787	1	-3
680.956	1	3
681.125	1	-2
681.295	1	0
681.464	1	-1
681.634	1	7
681.803	1	4
681.972	1	1
682.142	1	6
682.311	1	3
682.480	1	15
682.650	1	3
682.819	1	-1
682.988	1	-2
683.158	1	-9
683.327	1	-4
683.496	1	7
683.666	1	-2
683.835	1	2
684.004	1	14
684.174	1	11
684.343	1	-11
684.512	1	1
684.682	1	-3
684.851	1	9
685.021	1	-4
685.190	1	-2
685.359	1	12
685.529	1	-2
685.698	1	4
685.867	1	2
686.037	1	6
686.206	1	3
686.375	1	13
686.545	1	-7
686.714	1	-1
686.883	1	4
687.053	1	5
687.222	1	0
687.391	1	2
687.561	1	6
687.730	1	7
687.899	1	9
688.069	1	2
688.238	1	5
688.407	1	-4
688.577	1	1
688.746	1	7
