340.368	1	3
340.539	1	-11
340.710	1	-2
340.881	1	-10
341.052	1	7
341.223	1	2
341.394	1	-3
341.565	1	-8
341.737	1	3
341.908	1	4
342.079	1	-3
342.250	1	-3
342.421	1	0
342.592	1	8
342.763	1	6
342.934	1	-4
343.105	1	1
343.276	1	1
343.447	1	0
343.618	1	3
343.789	1	2
343.960	1	5
344.131	1	3
344.302	1	6
344.473	1	-6
344.644	1	1
344.815	1	-4
344.986	1	-5
345.157	1	4
345.328	1	5
345.499	1	3
345.670	1	-5
345.841	1	5
346.012	1	4
346.183	1	-2
346.354	1	2
346.526	1	-4
346.697	1	-8
346.868	1	-4
347.039	1	7
347.210	1	0
347.381	1	4
347.552	1	0
347.723	1	2
347.894	1	4
348.065	1	-3
348.236	1	8
348.407	1	5
348.578	1	3
348.749	1	-2
348.920	1	2
349.091	1	-13
349.262	1	3
349.433	1	7
349.604	1	3
349.775	1	10
349.946	1	-7
350.117	1	0
350.288	1	9
350.459	1	2
350.630	1	3
350.801	1	-2
350.972	1	9
351.143	1	-2
351.314	1	3
351.485	1	4
351.656	1	-1
351.827	1	4
351.998	1	4
352.169	1	-1
352.340	1	7
352.511	1	-3
352.682	1	10
352.853	1	-1
353.024	1	-1
353.195	1	12
353.366	1	5
353.537	1	1
353.708	1	3
353.879	1	6
354.050	1	0
354.221	1	-5
354.392	1	3
354.563	1	6
354.734	1	6
354.905	1	9
355.076	1	4
355.247	1	7
355.418	1	-5
355.589	1	-1
355.760	1	5
355.931	1	5
356.102	1	10
356.273	1	-2
356.444	1	2
356.615	1	-7
356.785	1	15
356.956	1	9
357.127	1	5
357.298	1	4
357.469	1	8
357.640	1	3
357.811	1	6
357.982	1	7
358.153	1	9
358.324	1	7
358.495	1	10
358.666	1	3
358.837	1	0
359.008	1	-4
359.179	1	3
359.350	1	3
359.521	1	6
359.692	1	8
359.863	1	7
360.034	1	7
360.205	1	-1
360.376	1	14
360.547	1	12
360.718	1	16
360.889	1	3
361.060	1	5
361.231	1	7
361.401	1	10
361.572	1	12
361.743	1	8
361.914	1	12
362.085	1	13
362.256	1	14
362.427	1	25
362.598	1	4
362.769	1	8
362.940	1	11
363.111	1	9
363.282	1	17
363.453	1	17
363.624	1	18
363.795	1	19
363.966	1	6
364.137	1	26
364.308	1	19
364.478	1	25
364.649	1	19
364.820	1	13
364.991	1	28
365.162	1	31
365.333	1	17
365.504	1	29
365.675	1	22
365.846	1	21
366.017	1	30
366.188	1	18
366.359	1	22
366.530	1	32
366.701	1	20
366.871	1	26
367.042	1	24
367.213	1	25
367.384	1	40
367.555	1	31
367.726	1	29
367.897	1	39
368.068	1	46
368.239	1	36
368.410	1	48
368.581	1	28
368.752	1	31
368.923	1	31
369.093	1	29
369.264	1	34
369.435	1	39
369.606	1	38
369.777	1	36
369.948	1	41
370.119	1	41
370.290	1	31
370.461	1	48
370.632	1	36
370.803	1	48
370.973	1	38
371.144	1	32
371.315	1	42
371.486	1	46
371.657	1	40
371.828	1	41
371.999	1	32
372.170	1	37
372.341	1	33
372.512	1	27
372.682	1	37
372.853	1	27
373.024	1	28
373.195	1	34
373.366	1	36
373.537	1	35
373.708	1	32
373.879	1	27
374.050	1	22
374.220	1	37
374.391	1	20
374.562	1	25
374.733	1	39
374.904	1	24
375.075	1	28
375.246	1	29
375.417	1	33
375.588	1	27
375.758	1	35
375.929	1	21
376.100	1	36
376.271	1	34
376.442	1	9
376.613	1	24
376.784	1	22
376.955	1	14
377.125	1	29
377.296	1	13
377.467	1	22
377.638	1	23
377.809	1	19
377.980	1	22
378.151	1	26
378.321	1	3
378.492	1	7
378.663	1	4
378.834	1	10
379.005	1	19
379.176	1	22
379.347	1	18
379.518	1	14
379.688	1	19
379.859	1	13
380.030	1	10
380.201	1	9
380.372	1	9
380.543	1	15
380.714	1	16
380.884	1	11
381.055	1	8
381.226	1	5
381.397	1	12
381.568	1	15
381.739	1	23
381.910	1	13
382.080	1	14
382.251	1	5
382.422	1	14
382.593	1	10
382.764	1	6
382.935	1	1
383.105	1	0
383.276	1	11
383.447	1	-1
383.618	1	15
383.789	1	11
383.960	1	9
384.130	1	8
384.301	1	9
384.472	1	1
384.643	1	13
384.814	1	3
384.985	1	9
385.156	1	-1
385.326	1	10
385.497	1	7
385.668	1	15
385.839	1	7
386.010	1	5
386.180	1	2
386.351	1	10
386.522	1	14
386.693	1	-3
386.864	1	12
387.035	1	9
387.205	1	-3
387.376	1	13
387.547	1	6
387.718	1	5
387.889	1	4
388.060	1	12
388.230	1	15
388.401	1	3
388.572	1	7
388.743	1	6
388.914	1	-1
389.084	1	4
389.255	1	3
389.426	1	1
389.597	1	4
389.768	1	2
389.939	1	3
390.109	1	-4
390.280	1	1
390.451	1	-3
390.622	1	6
390.793	1	3
390.963	1	10
391.134	1	17
391.305	1	2
391.476	1	-10
391.647	1	5
391.817	1	7
391.988	1	13
392.159	1	6
392.330	1	5
392.501	1	6
392.671	1	-3
392.842	1	3
393.013	1	-9
393.184	1	15
393.355	1	13
393.525	1	14
393.696	1	9
393.867	1	5
394.038	1	10
394.208	1	6
394.379	1	6
394.550	1	13
394.721	1	-3
394.892	1	-3
395.062	1	4
395.233	1	4
395.404	1	6
395.575	1	4
395.746	1	6
395.916	1	8
396.087	1	2
396.258	1	2
396.429	1	13
396.599	1	-5
396.770	1	-5
396.941	1	6
397.112	1	12
397.283	1	6
397.453	1	12
397.624	1	3
397.795	1	9
397.966	1	7
398.136	1	-6
398.307	1	4
398.478	1	5
398.649	1	-9
398.819	1	7
398.990	1	11
399.161	1	15
399.332	1	2
399.503	1	7
399.673	1	5
399.844	1	10
400.015	1	-3
400.186	1	-3
400.356	1	-4
400.527	1	2
400.698	1	-1
400.869	1	-5
401.039	1	11
401.210	1	14
401.381	1	-4
401.552	1	-5
401.722	1	8
401.893	1	0
402.064	1	0
402.235	1	7
402.405	1	4
402.576	1	-6
402.747	1	-2
402.918	1	3
403.088	1	7
403.259	1	5
403.430	1	-4
403.601	1	-3
403.771	1	7
403.942	1	12
404.113	1	-11
404.284	1	7
404.454	1	7
404.625	1	11
404.796	1	9
404.967	1	0
405.137	1	14
405.308	1	9
405.479	1	5
405.649	1	-1
405.820	1	-11
405.991	1	1
406.162	1	8
406.332	1	4
406.503	1	7
406.674	1	-9
406.845	1	7
407.015	1	3
407.186	1	2
407.357	1	4
407.527	1	-2
407.698	1	14
407.869	1	-6
408.040	1	-4
408.210	1	4
408.381	1	6
408.552	1	-7
408.722	1	-12
408.893	1	10
409.064	1	5
409.235	1	0
409.405	1	9
409.576	1	4
409.747	1	2
409.917	1	5
410.088	1	-1
410.259	1	6
410.430	1	11
410.600	1	-6
410.771	1	4
410.942	1	8
411.112	1	-2
411.283	1	6
411.454	1	-3
411.625	1	3
411.795	1	-6
411.966	1	7
412.137	1	8
412.307	1	-3
412.478	1	14
412.649	1	-3
412.819	1	0
412.990	1	5
413.161	1	1
413.332	1	5
413.502	1	1
413.673	1	4
413.844	1	-4
414.014	1	-1
414.185	1	14
414.356	1	2
414.526	1	2
414.697	1	6
414.868	1	10
415.038	1	0
415.209	1	0
415.380	1	1
415.550	1	2
415.721	1	-4
415.892	1	4
416.063	1	-5
416.233	1	7
416.404	1	-8
416.575	1	10
416.745	1	-2
416.916	1	-6
417.087	1	7
417.257	1	4
417.428	1	9
417.599	1	-2
417.769	1	7
417.940	1	16
418.111	1	-3
418.281	1	1
418.452	1	0
418.623	1	2
418.793	1	-7
418.964	1	-10
419.135	1	-5
419.305	1	9
419.476	1	-1
419.647	1	-8
419.817	1	15
419.988	1	-1
420.159	1	-5
420.329	1	-6
420.500	1	2
420.671	1	4
420.841	1	13
421.012	1	7
421.183	1	-4
421.353	1	-4
421.524	1	-9
421.695	1	-2
421.865	1	4
422.036	1	1
422.206	1	-2
422.377	1	-9
422.548	1	-8
422.718	1	3
422.889	1	-6
423.060	1	-6
423.230	1	-5
423.401	1	1
423.572	1	5
423.742	1	7
423.913	1	1
424.084	1	6
424.254	1	4
424.425	1	4
424.595	1	-1
424.766	1	3
424.937	1	4
425.107	1	-8
425.278	1	12
425.449	1	2
425.619	1	4
425.790	1	-19
425.961	1	-2
426.131	1	2
426.302	1	4
426.472	1	2
426.643	1	12
426.814	1	-2
426.984	1	3
427.155	1	-7
427.326	1	1
427.496	1	-3
427.667	1	-1
427.837	1	-3
428.008	1	1
428.179	1	-6
428.349	1	-15
428.520	1	-7
428.691	1	11
428.861	1	-2
429.032	1	9
429.202	1	-1
429.373	1	10
429.544	1	1
429.714	1	-7
429.885	1	4
430.055	1	1
430.226	1	-6
430.397	1	-4
430.567	1	11
430.738	1	-2
430.909	1	3
431.079	1	-2
431.250	1	-2
431.420	1	-7
431.591	1	2
431.762	1	6
431.932	1	4
432.103	1	6
432.273	1	8
432.444	1	11
432.615	1	-9
432.785	1	8
432.956	1	-14
433.126	1	-2
433.297	1	9
433.468	1	-5
433.638	1	-7
433.809	1	8
433.979	1	2
434.150	1	9
434.320	1	2
434.491	1	-5
434.662	1	3
434.832	1	-3
435.003	1	6
435.173	1	-6
435.344	1	-3
435.515	1	6
435.685	1	0
435.856	1	5
436.026	1	12
436.197	1	0
436.368	1	8
436.538	1	-10
436.709	1	0
436.879	1	-9
437.050	1	8
437.220	1	8
437.391	1	9
437.562	1	-9
437.732	1	-4
437.903	1	1
438.073	1	2
438.244	1	1
438.414	1	-4
438.585	1	0
438.756	1	-6
438.926	1	-10
439.097	1	-10
439.267	1	1
439.438	1	1
439.608	1	-11
439.779	1	5
439.949	1	8
440.120	1	3
440.291	1	0
440.461	1	7
440.632	1	-3
440.802	1	-3
440.973	1	-5
441.143	1	9
441.314	1	-5
441.485	1	-4
441.655	1	6
441.826	1	-5
441.996	1	-5
442.167	1	-3
442.337	1	8
442.508	1	2
442.678	1	-15
442.849	1	6
443.019	1	7
443.190	1	5
443.361	1	0
443.531	1	5
443.702	1	-3
443.872	1	6
444.043	1	4
444.213	1	-1
444.384	1	-9
444.554	1	3
444.725	1	-3
444.895	1	0
445.066	1	-5
445.237	1	-7
445.407	1	3
445.578	1	0
445.748	1	0
445.919	1	-5
446.089	1	12
446.260	1	-13
446.430	1	-1
446.601	1	7
446.771	1	20
446.942	1	-1
447.112	1	-6
447.283	1	-10
447.453	1	-5
447.624	1	-1
447.794	1	-2
447.965	1	3
448.135	1	4
448.306	1	-3
448.477	1	4
448.647	1	-6
448.818	1	4
448.988	1	-2
449.159	1	1
449.329	1	0
449.500	1	-1
449.670	1	10
449.841	1	7
450.011	1	0
450.182	1	-2
450.352	1	-8
450.523	1	-5
450.693	1	-20
450.864	1	-1
451.034	1	-7
451.205	1	1
451.375	1	9
451.546	1	-5
451.716	1	0
451.887	1	-7
452.057	1	1
452.228	1	0
452.398	1	-5
452.569	1	0
452.739	1	9
452.910	1	-3
453.080	1	2
453.251	1	-4
453.421	1	1
453.592	1	-4
453.762	1	7
453.933	1	-5
454.103	1	3
454.274	1	-6
454.444	1	-11
454.615	1	15
454.785	1	-3
454.956	1	-2
455.126	1	0
455.297	1	7
455.467	1	4
455.638	1	1
455.808	1	-2
455.979	1	-4
456.149	1	5
456.320	1	-6
456.490	1	1
456.661	1	9
456.831	1	0
457.001	1	-1
457.172	1	-2
457.342	1	-7
457.513	1	-2
457.683	1	-4
457.854	1	1
458.024	1	2
458.195	1	-11
458.365	1	-5
458.536	1	7
458.706	1	3
458.877	1	-3
459.047	1	2
459.218	1	-1
459.388	1	6
459.559	1	9
459.729	1	9
459.899	1	-6
460.070	1	2
460.240	1	8
460.411	1	1
460.581	1	13
460.752	1	2
460.922	1	5
461.093	1	7
461.263	1	-1
461.434	1	6
461.604	1	-4
461.775	1	-3
461.945	1	-4
462.115	1	5
462.286	1	3
462.456	1	-12
462.627	1	4
462.797	1	-3
462.968	1	0
463.138	1	-5
463.309	1	0
463.479	1	-2
463.649	1	10
463.820	1	-10
463.990	1	-1
464.161	1	-3
464.331	1	-6
464.502	1	-3
464.672	1	5
464.843	1	-1
465.013	1	-7
465.183	1	-7
465.354	1	2
465.524	1	6
465.695	1	-5
465.865	1	6
466.036	1	-6
466.206	1	9
466.376	1	-5
466.547	1	4
466.717	1	5
466.888	1	10
467.058	1	10
467.229	1	-6
467.399	1	5
467.569	1	10
467.740	1	-4
467.910	1	-10
468.081	1	-4
468.251	1	-2
468.422	1	-6
468.592	1	1
468.762	1	-8
468.933	1	-1
469.103	1	-3
469.274	1	3
469.444	1	-4
469.614	1	0
469.785	1	-11
469.955	1	-2
470.126	1	4
470.296	1	-1
470.467	1	-4
470.637	1	2
470.807	1	5
470.978	1	4
471.148	1	5
471.319	1	-3
471.489	1	3
471.659	1	0
471.830	1	-2
472.000	1	-6
472.171	1	1
472.341	1	12
472.511	1	1
472.682	1	8
472.852	1	2
473.023	1	6
473.193	1	9
473.363	1	3
473.534	1	9
473.704	1	-3
473.875	1	18
474.045	1	-3
474.215	1	6
474.386	1	13
474.556	1	-2
474.727	1	-1
474.897	1	13
475.067	1	3
475.238	1	-4
475.408	1	1
475.578	1	-9
475.749	1	1
475.919	1	-6
476.090	1	-4
476.260	1	2
476.430	1	-2
476.601	1	3
476.771	1	-2
476.942	1	8
477.112	1	6
477.282	1	0
477.453	1	-1
477.623	1	-6
477.793	1	6
477.964	1	-8
478.134	1	-9
478.305	1	-1
478.475	1	-1
478.645	1	9
478.816	1	3
478.986	1	-2
479.156	1	0
479.327	1	-10
479.497	1	-1
479.667	1	3
479.838	1	4
480.008	1	-9
480.179	1	2
480.349	1	-6
480.519	1	5
480.690	1	-3
480.860	1	-2
481.030	1	-11
481.201	1	-3
481.371	1	11
481.541	1	-4
481.712	1	0
481.882	1	8
482.053	1	-4
482.223	1	0
482.393	1	-1
482.564	1	0
482.734	1	-8
482.904	1	-2
483.075	1	-5
483.245	1	4
483.415	1	3
483.586	1	-3
483.756	1	12
483.926	1	-8
484.097	1	-3
484.267	1	-9
484.437	1	-2
484.608	1	7
484.778	1	7
484.948	1	-6
485.119	1	-1
485.289	1	-6
485.459	1	16
485.630	1	-11
485.800	1	1
485.970	1	-7
486.141	1	-3
486.311	1	3
486.481	1	-1
486.652	1	5
486.822	1	9
486.992	1	11
487.163	1	-4
487.333	1	9
487.503	1	-4
487.674	1	3
487.844	1	1
488.014	1	9
488.185	1	3
488.355	1	-1
488.525	1	11
488.696	1	0
488.866	1	7
489.036	1	13
489.207	1	0
489.377	1	-12
489.547	1	-3
489.718	1	-4
489.888	1	2
490.058	1	0
490.228	1	0
490.399	1	-8
490.569	1	9
490.739	1	-3
490.910	1	4
491.080	1	9
491.250	1	-1
491.421	1	-2
491.591	1	-3
491.761	1	-2
491.932	1	-4
492.102	1	-8
492.272	1	2
492.442	1	3
492.613	1	-4
492.783	1	-1
492.953	1	-2
493.124	1	11
493.294	1	0
493.464	1	15
493.635	1	1
493.805	1	-2
493.975	1	5
494.145	1	-5
494.316	1	7
494.486	1	5
494.656	1	0
494.827	1	5
494.997	1	-7
495.167	1	6
495.337	1	12
495.508	1	6
495.678	1	-7
495.848	1	8
496.019	1	-8
496.189	1	12
496.359	1	-9
496.529	1	3
496.700	1	-1
496.870	1	2
497.040	1	6
497.211	1	-4
497.381	1	-4
497.551	1	9
497.721	1	6
497.892	1	0
498.062	1	-3
498.232	1	0
498.403	1	-2
498.573	1	-2
498.743	1	-2
498.913	1	-2
499.084	1	-6
499.254	1	4
499.424	1	3
499.594	1	12
499.765	1	1
499.935	1	-5
500.105	1	-5
500.275	1	0
500.446	1	-15
500.616	1	-8
500.786	1	-4
500.956	1	-2
501.127	1	-3
501.297	1	-1
501.467	1	-1
501.638	1	-4
501.808	1	3
501.978	1	2
502.148	1	3
502.319	1	-1
502.489	1	4
502.659	1	9
502.829	1	0
503.000	1	2
503.170	1	16
503.340	1	10
503.510	1	6
503.681	1	0
503.851	1	0
504.021	1	-9
504.191	1	6
504.362	1	-6
504.532	1	10
504.702	1	-5
504.872	1	1
505.042	1	-2
505.213	1	4
505.383	1	-5
505.553	1	-5
505.723	1	-3
505.894	1	-9
506.064	1	7
506.234	1	8
506.404	1	1
506.575	1	8
506.745	1	14
506.915	1	14
507.085	1	-18
507.256	1	10
507.426	1	0
507.596	1	4
507.766	1	4
507.936	1	-3
508.107	1	-1
508.277	1	-1
508.447	1	11
508.617	1	6
508.788	1	10
508.958	1	-5
509.128	1	3
509.298	1	1
509.468	1	2
509.639	1	0
509.809	1	7
509.979	1	0
510.149	1	13
510.319	1	7
510.490	1	6
510.660	1	-3
510.830	1	8
511.000	1	6
511.171	1	-2
511.341	1	-1
511.511	1	2
511.681	1	2
511.851	1	7
512.022	1	-4
512.192	1	4
512.362	1	6
512.532	1	-9
512.702	1	5
512.873	1	10
513.043	1	7
513.213	1	0
513.383	1	-9
513.553	1	-10
513.724	1	5
513.894	1	-4
514.064	1	15
514.234	1	0
514.404	1	1
514.575	1	4
514.745	1	-9
514.915	1	7
515.085	1	4
515.255	1	-7
515.425	1	-2
515.596	1	4
515.766	1	-2
515.936	1	-1
516.106	1	7
516.276	1	-1
516.447	1	12
516.617	1	8
516.787	1	6
516.957	1	5
517.127	1	5
517.297	1	-1
517.468	1	3
517.638	1	3
517.808	1	-7
517.978	1	-2
518.148	1	4
518.319	1	-5
518.489	1	-2
518.659	1	-12
518.829	1	7
518.999	1	10
519.169	1	-2
519.340	1	9
519.510	1	1
519.680	1	15
519.850	1	-7
520.020	1	-3
520.190	1	4
520.361	1	6
520.531	1	5
520.701	1	10
520.871	1	1
521.041	1	14
521.211	1	-10
521.382	1	1
521.552	1	17
521.722	1	-1
521.892	1	0
522.062	1	15
522.232	1	10
522.402	1	3
522.573	1	6
522.743	1	4
522.913	1	5
523.083	1	7
523.253	1	1
523.423	1	-1
523.593	1	-3
523.764	1	8
523.934	1	4
524.104	1	6
524.274	1	0
524.444	1	-1
524.614	1	-1
524.784	1	-2
524.955	1	-3
525.125	1	-1
525.295	1	4
525.465	1	1
525.635	1	-1
525.805	1	-6
525.975	1	11
526.146	1	11
526.316	1	18
526.486	1	-7
526.656	1	11
526.826	1	2
526.996	1	12
527.166	1	-4
527.337	1	0
527.507	1	8
527.677	1	3
527.847	1	2
528.017	1	-2
528.187	1	3
528.357	1	-3
528.527	1	6
528.698	1	4
528.868	1	2
529.038	1	3
529.208	1	3
529.378	1	6
529.548	1	-9
529.718	1	6
529.888	1	-2
530.058	1	-1
530.229	1	7
530.399	1	14
530.569	1	-5
530.739	1	6
530.909	1	6
531.079	1	9
531.249	1	0
531.419	1	5
531.589	1	3
531.760	1	-1
531.930	1	2
532.100	1	2
532.270	1	-1
532.440	1	2
532.610	1	2
532.780	1	-1
532.950	1	3
533.120	1	17
533.290	1	2
533.461	1	7
533.631	1	7
533.801	1	7
533.971	1	4
534.141	1	0
534.311	1	7
534.481	1	-3
534.651	1	-7
534.821	1	10
534.991	1	1
535.162	1	5
535.332	1	0
535.502	1	-11
535.672	1	8
535.842	1	16
536.012	1	7
536.182	1	-6
536.352	1	5
536.522	1	-1
536.692	1	16
536.862	1	12
537.032	1	10
537.203	1	-3
537.373	1	4
537.543	1	-1
537.713	1	9
537.883	1	4
538.053	1	5
538.223	1	5
538.393	1	11
538.563	1	18
538.733	1	4
538.903	1	-5
539.073	1	0
539.243	1	5
539.413	1	-1
539.584	1	6
539.754	1	14
539.924	1	12
540.094	1	9
540.264	1	2
540.434	1	-5
540.604	1	12
540.774	1	2
540.944	1	5
541.114	1	3
541.284	1	10
541.454	1	5
541.624	1	5
541.794	1	0
541.964	1	11
542.134	1	11
542.305	1	8
542.475	1	9
542.645	1	7
542.815	1	1
542.985	1	5
543.155	1	-1
543.325	1	2
543.495	1	-3
543.665	1	4
543.835	1	13
544.005	1	16
544.175	1	-3
544.345	1	3
544.515	1	0
544.685	1	1
544.855	1	4
545.025	1	6
545.195	1	-1
545.365	1	1
545.535	1	14
545.705	1	4
545.875	1	-2
546.045	1	-1
546.216	1	7
546.386	1	4
546.556	1	-8
546.726	1	-13
546.896	1	4
547.066	1	11
547.236	1	4
547.406	1	4
547.576	1	11
547.746	1	-3
547.916	1	2
548.086	1	-4
548.256	1	3
548.426	1	2
548.596	1	-4
548.766	1	4
548.936	1	8
549.106	1	4
549.276	1	4
549.446	1	6
549.616	1	2
549.786	1	-3
549.956	1	16
550.126	1	17
550.296	1	8
550.466	1	5
550.636	1	14
550.806	1	7
550.976	1	4
551.146	1	0
551.316	1	8
551.486	1	-3
551.656	1	12
551.826	1	6
551.996	1	19
552.166	1	4
552.336	1	0
552.506	1	4
552.676	1	13
552.846	1	-1
553.016	1	9
553.186	1	7
553.356	1	14
553.526	1	-9
553.696	1	7
553.866	1	4
554.036	1	5
554.206	1	13
554.376	1	13
554.546	1	10
554.716	1	15
554.886	1	9
555.056	1	7
555.226	1	-1
555.396	1	-4
555.566	1	7
555.736	1	6
555.906	1	3
556.076	1	8
556.246	1	6
556.416	1	7
556.586	1	5
556.756	1	-1
556.926	1	2
557.096	1	0
557.266	1	-1
557.436	1	1
557.606	1	9
557.776	1	3
557.946	1	15
558.116	1	2
558.286	1	-2
558.456	1	11
558.626	1	5
558.796	1	1
558.966	1	1
559.136	1	11
559.306	1	7
559.476	1	0
559.646	1	1
559.816	1	-5
559.986	1	0
560.155	1	6
560.325	1	3
560.495	1	4
560.665	1	2
560.835	1	-1
561.005	1	3
561.175	1	3
561.345	1	3
561.515	1	2
561.685	1	2
561.855	1	-10
562.025	1	5
562.195	1	12
562.365	1	9
562.535	1	4
562.705	1	-3
562.875	1	2
563.045	1	-7
563.215	1	11
563.385	1	-6
563.555	1	5
563.725	1	1
563.895	1	6
564.064	1	12
564.234	1	5
564.404	1	8
564.574	1	-2
564.744	1	5
564.914	1	4
565.084	1	1
565.254	1	15
565.424	1	6
565.594	1	5
565.764	1	1
565.934	1	9
566.104	1	-3
566.274	1	2
566.444	1	0
566.614	1	4
566.783	1	-5
566.953	1	18
567.123	1	3
567.293	1	11
567.463	1	5
567.633	1	8
567.803	1	-6
567.973	1	-1
568.143	1	-5
568.313	1	8
568.483	1	6
568.653	1	-1
568.823	1	2
568.993	1	11
569.162	1	12
569.332	1	3
569.502	1	-1
569.672	1	-1
569.842	1	10
570.012	1	4
570.182	1	7
570.352	1	4
570.522	1	-2
570.692	1	6
570.862	1	3
571.031	1	11
571.201	1	5
571.371	1	-8
571.541	1	2
571.711	1	12
571.881	1	10
572.051	1	7
572.221	1	1
572.391	1	-5
572.561	1	1
572.731	1	6
572.900	1	-10
573.070	1	-1
573.240	1	7
573.410	1	11
573.580	1	3
573.750	1	-12
573.920	1	11
574.090	1	0
574.260	1	15
574.430	1	6
574.599	1	5
574.769	1	-1
574.939	1	5
575.109	1	7
575.279	1	18
575.449	1	-2
575.619	1	9
575.789	1	-5
575.959	1	0
576.128	1	-4
576.298	1	8
576.468	1	8
576.638	1	-4
576.808	1	-1
576.978	1	11
577.148	1	7
577.318	1	8
577.487	1	-8
577.657	1	-2
577.827	1	2
577.997	1	4
578.167	1	3
578.337	1	13
578.507	1	5
578.677	1	9
578.846	1	1
579.016	1	9
579.186	1	3
579.356	1	-1
579.526	1	3
579.696	1	8
579.866	1	4
580.036	1	0
580.205	1	0
580.375	1	5
580.545	1	2
580.715	1	-6
580.885	1	3
581.055	1	5
581.225	1	3
581.394	1	-4
581.564	1	5
581.734	1	-5
581.904	1	11
582.074	1	2
582.244	1	-4
582.414	1	12
582.583	1	11
582.753	1	5
582.923	1	-7
583.093	1	-2
583.263	1	10
583.433	1	2
583.603	1	5
583.772	1	14
583.942	1	5
584.112	1	-5
584.282	1	-10
584.452	1	6
584.622	1	1
584.791	1	-3
584.961	1	0
585.131	1	12
585.301	1	-10
585.471	1	5
585.641	1	11
585.811	1	-3
585.980	1	4
586.150	1	-1
586.320	1	8
586.490	1	6
586.660	1	1
586.830	1	-4
586.999	1	2
587.169	1	7
587.339	1	8
587.509	1	9
587.679	1	1
587.849	1	9
588.018	1	6
588.188	1	10
588.358	1	1
588.528	1	6
588.698	1	4
588.867	1	12
589.037	1	10
589.207	1	7
589.377	1	-2
589.547	1	-5
589.717	1	2
589.886	1	1
590.056	1	1
590.226	1	6
590.396	1	12
590.566	1	3
590.735	1	3
590.905	1	8
591.075	1	-4
591.245	1	-2
591.415	1	-1
591.585	1	4
591.754	1	-2
591.924	1	8
592.094	1	2
592.264	1	20
592.434	1	5
592.603	1	2
592.773	1	3
592.943	1	7
593.113	1	4
593.283	1	-2
593.452	1	1
593.622	1	11
593.792	1	15
593.962	1	11
594.132	1	1
594.301	1	9
594.471	1	11
594.641	1	1
594.811	1	5
594.981	1	-15
595.150	1	2
595.320	1	2
595.490	1	13
595.660	1	-6
595.829	1	3
595.999	1	-4
596.169	1	10
596.339	1	2
596.509	1	-2
596.678	1	-5
596.848	1	6
597.018	1	1
597.188	1	5
597.358	1	7
597.527	1	-1
597.697	1	4
597.867	1	-1
598.037	1	9
598.206	1	2
598.376	1	5
598.546	1	4
598.716	1	4
598.885	1	-8
599.055	1	8
599.225	1	-1
599.395	1	-2
599.565	1	-9
599.734	1	5
599.904	1	1
600.074	1	1
600.244	1	-3
600.413	1	2
600.583	1	18
600.753	1	7
600.923	1	7
601.092	1	10
601.262	1	5
601.432	1	7
601.602	1	12
601.771	1	10
601.941	1	-3
602.111	1	5
602.281	1	13
602.451	1	8
602.620	1	-7
602.790	1	2
602.960	1	-6
603.130	1	4
603.299	1	2
603.469	1	4
603.639	1	0
603.809	1	2
603.978	1	1
604.148	1	2
604.318	1	5
604.487	1	5
604.657	1	9
604.827	1	2
604.997	1	8
605.166	1	5
605.336	1	3
605.506	1	2
605.676	1	-10
605.845	1	7
606.015	1	3
606.185	1	9
606.355	1	5
606.524	1	8
606.694	1	-1
606.864	1	5
607.034	1	-6
607.203	1	0
607.373	1	-9
607.543	1	-3
607.712	1	-6
607.882	1	12
608.052	1	3
608.222	1	5
608.391	1	5
608.561	1	4
608.731	1	-1
608.901	1	4
609.070	1	0
609.240	1	-5
609.410	1	3
609.579	1	8
609.749	1	1
609.919	1	9
610.089	1	1
610.258	1	13
610.428	1	-5
610.598	1	6
610.767	1	-3
610.937	1	5
611.107	1	-1
611.277	1	-1
611.446	1	9
611.616	1	-2
611.786	1	2
611.955	1	6
612.125	1	7
612.295	1	-5
612.465	1	-2
612.634	1	4
612.804	1	8
612.974	1	-6
613.143	1	3
613.313	1	7
613.483	1	6
613.652	1	2
613.822	1	3
613.992	1	-2
614.162	1	14
614.331	1	0
614.501	1	-2
614.671	1	9
614.840	1	0
615.010	1	-4
615.180	1	-5
615.349	1	11
615.519	1	-6
615.689	1	6
615.858	1	2
616.028	1	1
616.198	1	1
616.368	1	7
616.537	1	4
616.707	1	14
616.877	1	0
617.046	1	-2
617.216	1	-2
617.386	1	7
617.555	1	3
617.725	1	1
617.895	1	1
618.064	1	-4
618.234	1	8
618.404	1	2
618.573	1	-5
618.743	1	7
618.913	1	5
619.082	1	8
619.252	1	0
619.422	1	-5
619.591	1	0
619.761	1	6
619.931	1	9
620.100	1	1
620.270	1	-7
620.440	1	5
620.609	1	2
620.779	1	-5
620.949	1	10
621.118	1	6
621.288	1	7
621.458	1	3
621.627	1	1
621.797	1	-8
621.967	1	-5
622.136	1	6
622.306	1	5
622.476	1	1
622.645	1	7
622.815	1	7
622.985	1	10
623.154	1	7
623.324	1	7
623.494	1	5
623.663	1	-2
623.833	1	6
624.002	1	0
624.172	1	8
624.342	1	12
624.511	1	2
624.681	1	4
624.851	1	-5
625.020	1	6
625.190	1	2
625.360	1	-5
625.529	1	3
625.699	1	-2
625.869	1	7
626.038	1	-4
626.208	1	4
626.377	1	13
626.547	1	-1
626.717	1	4
626.886	1	10
627.056	1	-3
627.226	1	9
627.395	1	15
627.565	1	-2
627.735	1	0
627.904	1	0
628.074	1	-5
628.243	1	-7
628.413	1	2
628.583	1	-1
628.752	1	-2
628.922	1	3
629.091	1	2
629.261	1	2
629.431	1	-4
629.600	1	14
629.770	1	-12
629.940	1	2
630.109	1	-7
630.279	1	-4
630.448	1	-3
630.618	1	1
630.788	1	5
630.957	1	2
631.127	1	10
631.297	1	6
631.466	1	12
631.636	1	2
631.805	1	-4
631.975	1	10
632.145	1	-1
632.314	1	-2
632.484	1	-4
632.653	1	11
632.823	1	8
632.993	1	6
633.162	1	2
633.332	1	7
633.501	1	-5
633.671	1	6
633.841	1	-9
634.010	1	-5
634.180	1	3
634.349	1	1
634.519	1	0
634.689	1	8
634.858	1	0
635.028	1	3
635.197	1	11
635.367	1	1
635.537	1	-12
635.706	1	6
635.876	1	0
636.045	1	11
636.215	1	-1
636.384	1	3
636.554	1	11
636.724	1	4
636.893	1	-12
637.063	1	-6
637.232	1	-1
637.402	1	-2
637.572	1	7
637.741	1	6
637.911	1	2
638.080	1	-3
638.250	1	0
638.419	1	3
638.589	1	0
638.759	1	-6
638.928	1	-4
639.098	1	3
639.267	1	11
639.437	1	12
639.606	1	2
639.776	1	-2
639.946	1	1
640.115	1	-2
640.285	1	8
640.454	1	-4
640.624	1	6
640.793	1	5
640.963	1	6
641.132	1	4
641.302	1	0
641.472	1	9
641.641	1	-9
641.811	1	-4
641.980	1	7
642.150	1	1
642.319	1	3
642.489	1	7
642.659	1	8
642.828	1	-11
642.998	1	4
643.167	1	-11
643.337	1	-2
643.506	1	1
643.676	1	9
643.845	1	4
644.015	1	5
644.184	1	7
644.354	1	3
644.524	1	4
644.693	1	3
644.863	1	-14
645.032	1	4
645.202	1	5
645.371	1	1
645.541	1	3
645.710	1	6
645.880	1	6
646.049	1	-4
646.219	1	-1
646.388	1	-1
646.558	1	6
646.728	1	1
646.897	1	1
647.067	1	10
647.236	1	3
647.406	1	3
647.575	1	6
647.745	1	-2
647.914	1	2
648.084	1	-1
648.253	1	3
648.423	1	-5
648.592	1	1
648.762	1	6
648.931	1	16
649.101	1	0
649.270	1	-5
649.440	1	4
649.610	1	-6
649.779	1	4
649.949	1	-6
650.118	1	15
650.288	1	12
650.457	1	9
650.627	1	-8
650.796	1	10
650.966	1	10
651.135	1	-5
651.305	1	5
651.474	1	-4
651.644	1	7
651.813	1	4
651.983	1	8
652.152	1	-4
652.322	1	-3
652.491	1	12
652.661	1	4
652.830	1	-1
653.000	1	1
653.169	1	9
653.339	1	1
653.508	1	9
653.678	1	9
653.847	1	14
654.017	1	1
654.186	1	-5
654.356	1	-2
654.525	1	-1
654.695	1	11
654.864	1	0
655.034	1	0
655.203	1	5
655.373	1	17
655.542	1	1
655.712	1	6
655.881	1	-2
656.051	1	-7
656.220	1	-19
656.390	1	-10
656.559	1	1
656.729	1	14
656.898	1	-3
657.068	1	3
657.237	1	-5
657.406	1	1
657.576	1	0
657.745	1	-1
657.915	1	1
658.084	1	1
658.254	1	-11
658.423	1	9
658.593	1	10
658.762	1	-4
658.932	1	-1
659.101	1	6
659.271	1	10
659.440	1	1
659.610	1	-5
659.779	1	-1
659.949	1	7
660.118	1	2
660.288	1	8
660.457	1	-7
660.626	1	2
660.796	1	-6
660.965	1	10
661.135	1	-8
661.304	1	-2
661.474	1	-4
661.643	1	1
661.813	1	5
661.982	1	5
662.152	1	-3
662.321	1	10
662.491	1	-6
662.660	1	11
662.829	1	-3
662.999	1	-2
663.168	1	7
663.338	1	8
663.507	1	7
663.677	1	1
663.846	1	3
664.016	1	-5
664.185	1	0
664.354	1	9
664.524	1	8
664.693	1	4
664.863	1	-2
665.032	1	6
665.202	1	1
665.371	1	-3
665.541	1	-11
665.710	1	-4
665.879	1	-5
666.049	1	-3
666.218	1	-3
666.388	1	1
666.557	1	2
666.727	1	0
666.896	1	-5
667.065	1	1
667.235	1	8
667.404	1	9
667.574	1	2
667.743	1	3
667.913	1	6
668.082	1	-2
668.251	1	-4
668.421	1	-2
668.590	1	-11
668.760	1	6
668.929	1	-6
669.099	1	0
669.268	1	0
669.437	1	5
669.607	1	-3
669.776	1	-4
669.946	1	-5
670.115	1	-1
670.285	1	4
670.454	1	8
670.623	1	1
670.793	1	5
670.962	1	6
671.132	1	5
671.301	1	1
671.470	1	-4
671.640	1	-4
671.809	1	-6
671.979	1	2
672.148	1	9
672.317	1	4
672.487	1	7
672.656	1	-1
672.826	1	3
672.995	1	11
673.164	1	5
673.334	1	-8
673.503	1	-4
673.673	1	2
673.842	1	5
674.011	1	4
674.181	1	11
674.350	1	6
674.520	1	-6
674.689	1	15
674.858	1	6
675.028	1	1
675.197	1	-8
675.367	1	9
675.536	1	4
675.705	1	5
675.875	1	-6
676.044	1	-5
676.214	1	-1
676.383	1	-2
676.552	1	2
676.722	1	7
676.891	1	9
677.060	1	-4
677.230	1	5
677.399	1	0
677.569	1	-3
677.738	1	8
677.907	1	3
678.077	1	7
678.246	1	1
678.416	1	2
678.585	1	2
678.754	1	7
678.924	1	0
679.093	1	1
679.262	1	4
679.432	1	-9
679.601	1	0
679.771	1	1
679.940	1	-3
680.109	1	0
680.279	1	-6
680.448	1	4
680.617	1	0
680.787	1	0
680.956	1	13
681.125	1	3
681.295	1	-13
681.464	1	-2
681.634	1	8
681.803	1	0
681.972	1	-13
682.142	1	6
682.311	1	7
682.480	1	15
682.650	1	3
682.819	1	1
682.988	1	-8
683.158	1	0
683.327	1	0
683.496	1	3
683.666	1	-4
683.835	1	-1
684.004	1	8
684.174	1	3
684.343	1	0
684.512	1	4
684.682	1	-2
684.851	1	-3
685.021	1	3
685.190	1	-9
685.359	1	12
685.529	1	-12
685.698	1	6
685.867	1	0
686.037	1	-5
686.206	1	-2
686.375	1	11
686.545	1	-4
686.714	1	3
686.883	1	0
687.053	1	-4
687.222	1	3
687.391	1	0
687.561	1	5
687.730	1	0
687.899	1	7
688.069	1	14
688.238	1	3
688.407	1	-6
688.577	1	-4
688.746	1	2
