340.368	1	1
340.539	1	-2
340.710	1	-6
340.881	1	-7
341.052	1	8
341.223	1	0
341.394	1	-16
341.565	1	-10
341.737	1	8
341.908	1	0
342.079	1	-6
342.250	1	-12
342.421	1	-10
342.592	1	2
342.763	1	1
342.934	1	-4
343.105	1	-6
343.276	1	2
343.447	1	-3
343.618	1	2
343.789	1	-5
343.960	1	-9
344.131	1	3
344.302	1	3
344.473	1	-6
344.644	1	6
344.815	1	-5
344.986	1	5
345.157	1	-3
345.328	1	2
345.499	1	3
345.670	1	-8
345.841	1	6
346.012	1	0
346.183	1	-2
346.354	1	-1
346.526	1	7
346.697	1	-6
346.868	1	10
347.039	1	2
347.210	1	-7
347.381	1	7
347.552	1	2
347.723	1	-3
347.894	1	9
348.065	1	1
348.236	1	9
348.407	1	4
348.578	1	-8
348.749	1	-9
348.920	1	-4
349.091	1	-7
349.262	1	1
349.433	1	1
349.604	1	-4
349.775	1	8
349.946	1	-1
350.117	1	-2
350.288	1	10
350.459	1	-1
350.630	1	6
350.801	1	-7
350.972	1	-1
351.143	1	-9
351.314	1	6
351.485	1	3
351.656	1	2
351.827	1	3
351.998	1	3
352.169	1	1
352.340	1	6
352.511	1	2
352.682	1	7
352.853	1	-7
353.024	1	7
353.195	1	0
353.366	1	4
353.537	1	-2
353.708	1	2
353.879	1	6
354.050	1	-10
354.221	1	-4
354.392	1	-5
354.563	1	7
354.734	1	-5
354.905	1	15
355.076	1	4
355.247	1	7
355.418	1	-11
355.589	1	-7
355.760	1	-5
355.931	1	-3
356.102	1	16
356.273	1	-4
356.444	1	5
356.615	1	4
356.785	1	8
356.956	1	6
357.127	1	-3
357.298	1	7
357.469	1	0
357.640	1	1
357.811	1	-3
357.982	1	-10
358.153	1	9
358.324	1	-2
358.495	1	10
358.666	1	-3
358.837	1	-7
359.008	1	-11
359.179	1	5
359.350	1	1
359.521	1	15
359.692	1	0
359.863	1	-7
360.034	1	4
360.205	1	1
360.376	1	7
360.547	1	11
360.718	1	3
360.889	1	-11
361.060	1	2
361.231	1	-2
361.401	1	4
361.572	1	6
361.743	1	-4
361.914	1	10
362.085	1	7
362.256	1	3
362.427	1	8
362.598	1	4
362.769	1	2
362.940	1	4
363.111	1	-1
363.282	1	7
363.453	1	8
363.624	1	19
363.795	1	-4
363.966	1	3
364.137	1	9
364.308	1	4
364.478	1	1
364.649	1	18
364.820	1	6
364.991	1	14
365.162	1	23
365.333	1	1
365.504	1	20
365.675	1	1
365.846	1	10
366.017	1	13
366.188	1	9
366.359	1	9
366.530	1	17
366.701	1	11
366.871	1	14
367.042	1	18
367.213	1	15
367.384	1	16
367.555	1	2
367.726	1	18
367.897	1	15
368.068	1	9
368.239	1	10
368.410	1	28
368.581	1	12
368.752	1	7
368.923	1	11
369.093	1	9
369.264	1	18
369.435	1	20
369.606	1	19
369.777	1	16
369.948	1	20
370.119	1	21
370.290	1	16
370.461	1	25
370.632	1	25
370.803	1	17
370.973	1	17
371.144	1	10
371.315	1	8
371.486	1	15
371.657	1	25
371.828	1	17
371.999	1	12
372.170	1	18
372.341	1	16
372.512	1	11
372.682	1	21
372.853	1	12
373.024	1	15
373.195	1	13
373.366	1	18
373.537	1	3
373.708	1	4
373.879	1	11
374.050	1	5
374.220	1	29
374.391	1	8
374.562	1	16
374.733	1	22
374.904	1	5
375.075	1	2
375.246	1	5
375.417	1	14
375.588	1	10
375.758	1	12
375.929	1	12
376.100	1	16
376.271	1	12
376.442	1	4
376.613	1	1
376.784	1	11
376.955	1	1
377.125	1	12
377.296	1	-2
377.467	1	6
377.638	1	2
377.809	1	11
377.980	1	3
378.151	1	9
378.321	1	4
378.492	1	0
378.663	1	5
378.834	1	-1
379.005	1	14
379.176	1	-1
379.347	1	14
379.518	1	6
379.688	1	8
379.859	1	2
380.030	1	3
380.201	1	-3
380.372	1	7
380.543	1	15
380.714	1	13
380.884	1	5
381.055	1	5
381.226	1	-4
381.397	1	7
381.568	1	14
381.739	1	11
381.910	1	6
382.080	1	12
382.251	1	-11
382.422	1	2
382.593	1	10
382.764	1	-3
382.935	1	-5
383.105	1	-8
383.276	1	16
383.447	1	-7
383.618	1	6
383.789	1	1
383.960	1	7
384.130	1	9
384.301	1	5
384.472	1	4
384.643	1	7
384.814	1	-7
384.985	1	3
385.156	1	0
385.326	1	8
385.497	1	10
385.668	1	2
385.839	1	-3
386.010	1	4
386.180	1	4
386.351	1	2
386.522	1	5
386.693	1	-5
386.864	1	5
387.035	1	2
387.205	1	-7
387.376	1	3
387.547	1	-1
387.718	1	6
387.889	1	2
388.060	1	14
388.230	1	13
388.401	1	-9
388.572	1	-3
388.743	1	2
388.914	1	-3
389.084	1	6
389.255	1	-7
389.426	1	1
389.597	1	3
389.768	1	2
389.939	1	7
390.109	1	3
390.280	1	2
390.451	1	-3
390.622	1	0
390.793	1	1
390.963	1	4
391.134	1	6
391.305	1	6
391.476	1	-2
391.647	1	8
391.817	1	3
391.988	1	0
392.159	1	5
392.330	1	9
392.501	1	-2
392.671	1	2
392.842	1	-2
393.013	1	-5
393.184	1	7
393.355	1	5
393.525	1	0
393.696	1	5
393.867	1	-1
394.038	1	6
394.208	1	-2
394.379	1	2
394.550	1	11
394.721	1	0
394.892	1	-3
395.062	1	1
395.233	1	-1
395.404	1	-12
395.575	1	-8
395.746	1	8
395.916	1	-5
396.087	1	-3
396.258	1	1
396.429	1	-4
396.599	1	2
396.770	1	-7
396.941	1	7
397.112	1	6
397.283	1	4
397.453	1	9
397.624	1	1
397.795	1	-1
397.966	1	6
398.136	1	-2
398.307	1	-1
398.478	1	4
398.649	1	-8
398.819	1	-1
398.990	1	4
399.161	1	12
399.332	1	0
399.503	1	-1
399.673	1	-1
399.844	1	5
400.015	1	-8
400.186	1	6
400.356	1	-13
400.527	1	-11
400.698	1	1
400.869	1	3
401.039	1	4
401.210	1	-5
401.381	1	-7
401.552	1	-8
401.722	1	7
401.893	1	0
402.064	1	2
402.235	1	0
402.405	1	10
402.576	1	-5
402.747	1	0
402.918	1	11
403.088	1	-1
403.259	1	0
403.430	1	-9
403.601	1	-2
403.771	1	6
403.942	1	7
404.113	1	6
404.284	1	0
404.454	1	4
404.625	1	3
404.796	1	1
404.967	1	3
405.137	1	6
405.308	1	0
405.479	1	1
405.649	1	-5
405.820	1	-12
405.991	1	-5
406.162	1	15
406.332	1	3
406.503	1	-1
406.674	1	-8
406.845	1	14
407.015	1	11
407.186	1	9
407.357	1	9
407.527	1	-14
407.698	1	9
407.869	1	-8
408.040	1	4
408.210	1	-5
408.381	1	3
408.552	1	5
408.722	1	-9
408.893	1	4
409.064	1	-1
409.235	1	-5
409.405	1	10
409.576	1	-3
409.747	1	8
409.917	1	-2
410.088	1	-6
410.259	1	5
410.430	1	10
410.600	1	-3
410.771	1	2
410.942	1	8
411.112	1	2
411.283	1	9
411.454	1	-13
411.625	1	2
411.795	1	-5
411.966	1	5
412.137	1	0
412.307	1	11
412.478	1	15
412.649	1	-2
412.819	1	11
412.990	1	2
413.161	1	6
413.332	1	2
413.502	1	4
413.673	1	-6
413.844	1	8
414.014	1	-3
414.185	1	15
414.356	1	3
414.526	1	1
414.697	1	2
414.868	1	-4
415.038	1	12
415.209	1	1
415.380	1	-8
415.550	1	-3
415.721	1	-8
415.892	1	-1
416.063	1	-1
416.233	1	8
416.404	1	3
416.575	1	15
416.745	1	-5
416.916	1	-3
417.087	1	-2
417.257	1	-3
417.428	1	6
417.599	1	-2
417.769	1	10
417.940	1	6
418.111	1	1
418.281	1	-1
418.452	1	-6
418.623	1	-7
418.793	1	3
418.964	1	-6
419.135	1	-16
419.305	1	1
419.476	1	0
419.647	1	3
419.817	1	8
419.988	1	-9
420.159	1	5
420.329	1	-16
420.500	1	-9
420.671	1	9
420.841	1	13
421.012	1	7
421.183	1	-6
421.353	1	-6
421.524	1	-10
421.695	1	-1
421.865	1	0
422.036	1	-2
422.206	1	-6
422.377	1	3
422.548	1	-18
422.718	1	-2
422.889	1	-8
423.060	1	-10
423.230	1	6
423.401	1	6
423.572	1	-8
423.742	1	4
423.913	1	-2
424.084	1	1
424.254	1	-1
424.425	1	4
424.595	1	-7
424.766	1	-8
424.937	1	5
425.107	1	-3
425.278	1	2
425.449	1	1
425.619	1	0
425.790	1	-17
425.961	1	-9
426.131	1	-1
426.302	1	4
426.472	1	2
426.643	1	12
426.814	1	-4
426.984	1	4
427.155	1	-7
427.326	1	5
427.496	1	-5
427.667	1	5
427.837	1	-5
428.008	1	1
428.179	1	-5
428.349	1	-11
428.520	1	3
428.691	1	8
428.861	1	5
429.032	1	1
429.202	1	0
429.373	1	8
429.544	1	1
429.714	1	-6
429.885	1	-5
430.055	1	9
430.226	1	-7
430.397	1	3
430.567	1	2
430.738	1	-5
430.909	1	4
431.079	1	-5
431.250	1	2
431.420	1	0
431.591	1	1
431.762	1	-5
431.932	1	-1
432.103	1	-2
432.273	1	-6
432.444	1	9
432.615	1	-10
432.785	1	0
432.956	1	7
433.126	1	-3
433.297	1	-4
433.468	1	-15
433.638	1	1
433.809	1	9
433.979	1	2
434.150	1	7
434.320	1	2
434.491	1	-8
434.662	1	-1
434.832	1	0
435.003	1	12
435.173	1	-11
435.344	1	-6
435.515	1	7
435.685	1	-7
435.856	1	4
436.026	1	8
436.197	1	-1
436.368	1	-2
436.538	1	-7
436.709	1	-3
436.879	1	-6
437.050	1	-5
437.220	1	2
437.391	1	12
437.562	1	2
437.732	1	-14
437.903	1	1
438.073	1	3
438.244	1	4
438.414	1	-6
438.585	1	-9
438.756	1	-14
438.926	1	0
439.097	1	-5
439.267	1	-2
439.438	1	1
439.608	1	-9
439.779	1	1
439.949	1	3
440.120	1	13
440.291	1	8
440.461	1	-9
440.632	1	8
440.802	1	-3
440.973	1	-10
441.143	1	1
441.314	1	-11
441.485	1	5
441.655	1	4
441.826	1	-3
441.996	1	0
442.167	1	-1
442.337	1	2
442.508	1	-2
442.678	1	-5
442.849	1	14
443.019	1	3
443.190	1	0
443.361	1	0
443.531	1	5
443.702	1	2
443.872	1	0
444.043	1	-1
444.213	1	-1
444.384	1	0
444.554	1	7
444.725	1	2
444.895	1	1
445.066	1	-6
445.237	1	9
445.407	1	0
445.578	1	-2
445.748	1	0
445.919	1	-7
446.089	1	9
446.260	1	-7
446.430	1	-2
446.601	1	-8
446.771	1	8
446.942	1	-1
447.112	1	-1
447.283	1	-3
447.453	1	-11
447.624	1	-5
447.794	1	2
447.965	1	9
448.135	1	4
448.306	1	-5
448.477	1	3
448.647	1	-9
448.818	1	8
448.988	1	-9
449.159	1	-8
449.329	1	-1
449.500	1	-8
449.670	1	6
449.841	1	8
450.011	1	3
450.182	1	0
450.352	1	-4
450.523	1	-11
450.693	1	-14
450.864	1	-2
451.034	1	-6
451.205	1	14
451.375	1	-6
451.546	1	0
451.716	1	-3
451.887	1	-6
452.057	1	-4
452.228	1	1
452.398	1	-9
452.569	1	-1
452.739	1	0
452.910	1	-2
453.080	1	-7
453.251	1	7
453.421	1	-3
453.592	1	1
453.762	1	5
453.933	1	-9
454.103	1	-8
454.274	1	-7
454.444	1	-2
454.615	1	9
454.785	1	2
454.956	1	1
455.126	1	-3
455.297	1	10
455.467	1	1
455.638	1	5
455.808	1	2
455.979	1	-2
456.149	1	5
456.320	1	-4
456.490	1	6
456.661	1	2
456.831	1	-1
457.001	1	-4
457.172	1	0
457.342	1	0
457.513	1	-2
457.683	1	-4
457.854	1	2
458.024	1	2
458.195	1	-6
458.365	1	-11
458.536	1	0
458.706	1	2
458.877	1	4
459.047	1	8
459.218	1	0
459.388	1	11
459.559	1	-5
459.729	1	5
459.899	1	-1
460.070	1	4
460.240	1	1
460.411	1	-5
460.581	1	4
460.752	1	5
460.922	1	1
461.093	1	7
461.263	1	-10
461.434	1	9
461.604	1	-12
461.775	1	4
461.945	1	6
462.115	1	-1
462.286	1	-9
462.456	1	-11
462.627	1	9
462.797	1	-10
462.968	1	3
463.138	1	-5
463.309	1	-10
463.479	1	1
463.649	1	-4
463.820	1	-9
463.990	1	-5
464.161	1	-1
464.331	1	4
464.502	1	1
464.672	1	1
464.843	1	0
465.013	1	-2
465.183	1	-10
465.354	1	5
465.524	1	8
465.695	1	2
465.865	1	-2
466.036	1	-7
466.206	1	10
466.376	1	-2
466.547	1	-4
466.717	1	-11
466.888	1	11
467.058	1	7
467.229	1	-9
467.399	1	-5
467.569	1	2
467.740	1	-4
467.910	1	-10
468.081	1	5
468.251	1	0
468.422	1	-18
468.592	1	-1
468.762	1	-4
468.933	1	-2
469.103	1	-5
469.274	1	2
469.444	1	-19
469.614	1	4
469.785	1	-6
469.955	1	-4
470.126	1	-8
470.296	1	-7
470.467	1	-10
470.637	1	4
470.807	1	9
470.978	1	1
471.148	1	1
471.319	1	-8
471.489	1	-3
471.659	1	-7
471.830	1	-5
472.000	1	-3
472.171	1	1
472.341	1	0
472.511	1	-6
472.682	1	0
472.852	1	-2
473.023	1	-2
473.193	1	11
473.363	1	1
473.534	1	4
473.704	1	-7
473.875	1	2
474.045	1	-7
474.215	1	10
474.386	1	14
474.556	1	-2
474.727	1	-4
474.897	1	5
475.067	1	1
475.238	1	-1
475.408	1	-4
475.578	1	-5
475.749	1	-3
475.919	1	1
476.090	1	-5
476.260	1	-3
476.430	1	-1
476.601	1	-5
476.771	1	-3
476.942	1	8
477.112	1	6
477.282	1	-6
477.453	1	-5
477.623	1	-14
477.793	1	-5
477.964	1	-3
478.134	1	-10
478.305	1	-1
478.475	1	-1
478.645	1	5
478.816	1	-4
478.986	1	-2
479.156	1	-2
479.327	1	-5
479.497	1	2
479.667	1	2
479.838	1	2
480.008	1	-2
480.179	1	5
480.349	1	-8
480.519	1	0
480.690	1	-2
480.860	1	-4
481.030	1	-10
481.201	1	-9
481.371	1	8
481.541	1	-3
481.712	1	0
481.882	1	3
482.053	1	3
482.223	1	-2
482.393	1	3
482.564	1	1
482.734	1	-7
482.904	1	-8
483.075	1	-1
483.245	1	3
483.415	1	-1
483.586	1	-6
483.756	1	5
483.926	1	-5
484.097	1	-1
484.267	1	2
484.437	1	-2
484.608	1	5
484.778	1	2
484.948	1	1
485.119	1	-7
485.289	1	-6
485.459	1	8
485.630	1	-7
485.800	1	6
485.970	1	-6
486.141	1	-2
486.311	1	1
486.481	1	-9
486.652	1	3
486.822	1	3
486.992	1	6
487.163	1	1
487.333	1	7
487.503	1	1
487.674	1	3
487.844	1	-8
488.014	1	6
488.185	1	0
488.355	1	2
488.525	1	3
488.696	1	-1
488.866	1	0
489.036	1	4
489.207	1	-3
489.377	1	-7
489.547	1	-9
489.718	1	-3
489.888	1	-6
490.058	1	-8
490.228	1	7
490.399	1	-3
490.569	1	13
490.739	1	6
490.910	1	-4
491.080	1	9
491.250	1	-11
491.421	1	-5
491.591	1	-3
491.761	1	0
491.932	1	-1
492.102	1	-6
492.272	1	4
492.442	1	7
492.613	1	-5
492.783	1	6
492.953	1	-2
493.124	1	2
493.294	1	1
493.464	1	12
493.635	1	-4
493.805	1	-4
493.975	1	2
494.145	1	9
494.316	1	-1
494.486	1	-5
494.656	1	-2
494.827	1	5
494.997	1	2
495.167	1	1
495.337	1	6
495.508	1	-8
495.678	1	0
495.848	1	9
496.019	1	-1
496.189	1	3
496.359	1	-5
496.529	1	4
496.700	1	-3
496.870	1	5
497.040	1	2
497.211	1	0
497.381	1	4
497.551	1	1
497.721	1	2
497.892	1	-8
498.062	1	2
498.232	1	-2
498.403	1	9
498.573	1	-7
498.743	1	4
498.913	1	2
499.084	1	2
499.254	1	-1
499.424	1	7
499.594	1	12
499.765	1	-1
499.935	1	-2
500.105	1	0
500.275	1	-3
500.446	1	-7
500.616	1	-3
500.786	1	-3
500.956	1	1
501.127	1	7
501.297	1	-6
501.467	1	-1
501.638	1	-6
501.808	1	5
501.978	1	9
502.148	1	-7
502.319	1	-3
502.489	1	4
502.659	1	14
502.829	1	-3
503.000	1	0
503.170	1	5
503.340	1	4
503.510	1	6
503.681	1	-6
503.851	1	-2
504.021	1	2
504.191	1	4
504.362	1	-2
504.532	1	1
504.702	1	4
504.872	1	-3
505.042	1	-2
505.213	1	6
505.383	1	-2
505.553	1	2
505.723	1	-8
505.894	1	-7
506.064	1	2
506.234	1	8
506.404	1	3
506.575	1	6
506.745	1	5
506.915	1	3
507.085	1	-8
507.256	1	7
507.426	1	3
507.596	1	1
507.766	1	0
507.936	1	5
508.107	1	-6
508.277	1	2
508.447	1	4
508.617	1	-4
508.788	1	7
508.958	1	-7
509.128	1	0
509.298	1	0
509.468	1	-7
509.639	1	0
509.809	1	-2
509.979	1	-4
510.149	1	3
510.319	1	0
510.490	1	-3
510.660	1	-2
510.830	1	7
511.000	1	6
511.171	1	1
511.341	1	3
511.511	1	0
511.681	1	3
511.851	1	1
512.022	1	-1
512.192	1	4
512.362	1	2
512.532	1	-2
512.702	1	-7
512.873	1	15
513.043	1	0
513.213	1	-5
513.383	1	-13
513.553	1	-10
513.724	1	-1
513.894	1	-1
514.064	1	10
514.234	1	-1
514.404	1	6
514.575	1	5
514.745	1	-2
514.915	1	-3
515.085	1	-2
515.255	1	1
515.425	1	-12
515.596	1	2
515.766	1	-12
515.936	1	-3
516.106	1	-5
516.276	1	-13
516.447	1	9
516.617	1	10
516.787	1	0
516.957	1	2
517.127	1	-1
517.297	1	-6
517.468	1	0
517.638	1	-4
517.808	1	-8
517.978	1	5
518.148	1	-2
518.319	1	-4
518.489	1	-2
518.659	1	-3
518.829	1	7
518.999	1	5
519.169	1	-2
519.340	1	4
519.510	1	-2
519.680	1	7
519.850	1	1
520.020	1	-1
520.190	1	-7
520.361	1	-2
520.531	1	4
520.701	1	5
520.871	1	4
521.041	1	15
521.211	1	-8
521.382	1	-7
521.552	1	7
521.722	1	0
521.892	1	-1
522.062	1	4
522.232	1	10
522.402	1	3
522.573	1	3
522.743	1	9
522.913	1	3
523.083	1	-4
523.253	1	-2
523.423	1	6
523.593	1	1
523.764	1	0
523.934	1	0
524.104	1	-9
524.274	1	5
524.444	1	5
524.614	1	2
524.784	1	-1
524.955	1	-9
525.125	1	1
525.295	1	1
525.465	1	8
525.635	1	5
525.805	1	0
525.975	1	0
526.146	1	-6
526.316	1	7
526.486	1	-2
526.656	1	2
526.826	1	1
526.996	1	4
527.166	1	6
527.337	1	-4
527.507	1	-2
527.677	1	11
527.847	1	5
528.017	1	-5
528.187	1	2
528.357	1	7
528.527	1	8
528.698	1	5
528.868	1	5
529.038	1	0
529.208	1	-5
529.378	1	1
529.548	1	4
529.718	1	9
529.888	1	-1
530.058	1	4
530.229	1	-1
530.399	1	5
530.569	1	-8
530.739	1	-6
530.909	1	-9
531.079	1	4
531.249	1	-6
531.419	1	8
531.589	1	6
531.760	1	7
531.930	1	7
532.100	1	1
532.270	1	-7
532.440	1	8
532.610	1	-6
532.780	1	2
532.950	1	-10
533.120	1	9
533.290	1	-2
533.461	1	2
533.631	1	6
533.801	1	8
533.971	1	-3
534.141	1	-2
534.311	1	8
534.481	1	-8
534.651	1	2
534.821	1	6
534.991	1	1
535.162	1	2
535.332	1	-4
535.502	1	-2
535.672	1	2
535.842	1	4
536.012	1	7
536.182	1	3
536.352	1	-4
536.522	1	-11
536.692	1	0
536.862	1	10
537.032	1	10
537.203	1	1
537.373	1	-5
537.543	1	6
537.713	1	2
537.883	1	-4
538.053	1	-2
538.223	1	2
538.393	1	7
538.563	1	4
538.733	1	2
538.903	1	2
539.073	1	1
539.243	1	2
539.413	1	4
539.584	1	-5
539.754	1	10
539.924	1	8
540.094	1	4
540.264	1	-4
540.434	1	0
540.604	1	-1
540.774	1	-2
540.944	1	4
541.114	1	0
541.284	1	13
541.454	1	5
541.624	1	3
541.794	1	-4
541.964	1	2
542.134	1	12
542.305	1	4
542.475	1	6
542.645	1	12
542.815	1	6
542.985	1	-2
543.155	1	0
543.325	1	-5
543.495	1	0
543.665	1	5
543.835	1	3
544.005	1	4
544.175	1	-3
544.345	1	7
544.515	1	2
544.685	1	-3
544.855	1	1
545.025	1	-6
545.195	1	10
545.365	1	0
545.535	1	10
545.705	1	-5
545.875	1	-12
546.045	1	-8
546.216	1	6
546.386	1	2
546.556	1	-2
546.726	1	-9
546.896	1	-6
547.066	1	10
547.236	1	5
547.406	1	5
547.576	1	9
547.746	1	-8
547.916	1	-8
548.086	1	7
548.256	1	-11
548.426	1	-2
548.596	1	6
548.766	1	7
548.936	1	7
549.106	1	-5
549.276	1	3
549.446	1	-7
549.616	1	5
549.786	1	-2
549.956	1	12
550.126	1	15
550.296	1	-2
550.466	1	-6
550.636	1	7
550.806	1	-1
550.976	1	12
551.146	1	-2
551.316	1	3
551.486	1	6
551.656	1	7
551.826	1	12
551.996	1	12
552.166	1	0
552.336	1	-12
552.506	1	3
552.676	1	12
552.846	1	-4
553.016	1	6
553.186	1	9
553.356	1	3
553.526	1	-3
553.696	1	4
553.866	1	-1
554.036	1	-2
554.206	1	1
554.376	1	6
554.546	1	1
554.716	1	0
554.886	1	11
555.056	1	4
555.226	1	-14
555.396	1	3
555.566	1	6
555.736	1	-5
555.906	1	4
556.076	1	-10
556.246	1	-2
556.416	1	-2
556.586	1	-4
556.756	1	4
556.926	1	4
557.096	1	2
557.266	1	-8
557.436	1	1
557.606	1	6
557.776	1	-2
557.946	1	10
558.116	1	2
558.286	1	8
558.456	1	-7
558.626	1	6
558.796	1	2
558.966	1	0
559.136	1	8
559.306	1	-1
559.476	1	-3
559.646	1	-6
559.816	1	-1
559.986	1	2
560.155	1	11
560.325	1	-9
560.495	1	3
560.665	1	-4
560.835	1	0
561.005	1	-1
561.175	1	6
561.345	1	1
561.515	1	-5
561.685	1	-6
561.855	1	-4
562.025	1	4
562.195	1	2
562.365	1	8
562.535	1	-8
562.705	1	-2
562.875	1	-2
563.045	1	-1
563.215	1	8
563.385	1	-15
563.555	1	2
563.725	1	-4
563.895	1	7
564.064	1	-2
564.234	1	8
564.404	1	0
564.574	1	11
564.744	1	7
564.914	1	3
565.084	1	0
565.254	1	2
565.424	1	0
565.594	1	9
565.764	1	2
565.934	1	10
566.104	1	3
566.274	1	-2
566.444	1	-9
566.614	1	-5
566.783	1	-4
566.953	1	1
567.123	1	7
567.293	1	11
567.463	1	3
567.633	1	2
567.803	1	-4
567.973	1	-1
568.143	1	5
568.313	1	3
568.483	1	-1
568.653	1	6
568.823	1	-2
568.993	1	3
569.162	1	4
569.332	1	4
569.502	1	-6
569.672	1	3
569.842	1	6
570.012	1	4
570.182	1	-2
570.352	1	-3
570.522	1	-6
570.692	1	8
570.862	1	-7
571.031	1	-7
571.201	1	7
571.371	1	-6
571.541	1	9
571.711	1	10
571.881	1	7
572.051	1	-16
572.221	1	-1
572.391	1	-17
572.561	1	-9
572.731	1	-1
572.900	1	8
573.070	1	2
573.240	1	6
573.410	1	13
573.580	1	3
573.750	1	-3
573.920	1	7
574.090	1	-7
574.260	1	4
574.430	1	0
574.599	1	3
574.769	1	-4
574.939	1	4
575.109	1	1
575.279	1	6
575.449	1	0
575.619	1	1
575.789	1	-5
575.959	1	-7
576.128	1	-8
576.298	1	4
576.468	1	5
576.638	1	-3
576.808	1	0
576.978	1	4
577.148	1	8
577.318	1	1
577.487	1	-1
577.657	1	-1
577.827	1	-1
577.997	1	-7
578.167	1	-7
578.337	1	15
578.507	1	3
578.677	1	4
578.846	1	-2
579.016	1	11
579.186	1	5
579.356	1	-7
579.526	1	-1
579.696	1	1
579.866	1	0
580.036	1	-4
580.205	1	2
580.375	1	-2
580.545	1	6
580.715	1	-4
580.885	1	4
581.055	1	-3
581.225	1	-1
581.394	1	-5
581.564	1	9
581.734	1	-9
581.904	1	9
582.074	1	-2
582.244	1	3
582.414	1	16
582.583	1	12
582.753	1	-5
582.923	1	0
583.093	1	6
583.263	1	8
583.433	1	-4
583.603	1	12
583.772	1	5
583.942	1	-1
584.112	1	-2
584.282	1	0
584.452	1	5
584.622	1	-1
584.791	1	-7
584.961	1	7
585.131	1	2
585.301	1	-1
585.471	1	12
585.641	1	-5
585.811	1	2
585.980	1	-2
586.150	1	-5
586.320	1	0
586.490	1	3
586.660	1	6
586.830	1	2
586.999	1	1
587.169	1	0
587.339	1	-1
587.509	1	-3
587.679	1	8
587.849	1	1
588.018	1	2
588.188	1	7
588.358	1	1
588.528	1	6
588.698	1	9
588.867	1	1
589.037	1	7
589.207	1	2
589.377	1	-2
589.547	1	-1
589.717	1	5
589.886	1	-6
590.056	1	-6
590.226	1	6
590.396	1	15
590.566	1	1
590.735	1	-2
590.905	1	1
591.075	1	-2
591.245	1	-3
591.415	1	4
591.585	1	-4
591.754	1	8
591.924	1	0
592.094	1	-6
592.264	1	0
592.434	1	-1
592.603	1	8
592.773	1	0
592.943	1	1
593.113	1	-4
593.283	1	7
593.452	1	4
593.622	1	-4
593.792	1	11
593.962	1	0
594.132	1	2
594.301	1	8
594.471	1	8
594.641	1	-5
594.811	1	-2
594.981	1	-12
595.150	1	-3
595.320	1	5
595.490	1	4
595.660	1	-6
595.829	1	-3
595.999	1	-7
596.169	1	4
596.339	1	6
596.509	1	2
596.678	1	-4
596.848	1	3
597.018	1	-5
597.188	1	7
597.358	1	7
597.527	1	-9
597.697	1	-8
597.867	1	-4
598.037	1	-4
598.206	1	-1
598.376	1	-4
598.546	1	-3
598.716	1	7
598.885	1	-5
599.055	1	5
599.225	1	-1
599.395	1	-1
599.565	1	-7
599.734	1	5
599.904	1	4
600.074	1	5
600.244	1	1
600.413	1	7
600.583	1	16
600.753	1	-3
600.923	1	0
601.092	1	13
601.262	1	9
601.432	1	-9
601.602	1	2
601.771	1	-1
601.941	1	6
602.111	1	4
602.281	1	-1
602.451	1	7
602.620	1	5
602.790	1	0
602.960	1	2
603.130	1	6
603.299	1	0
603.469	1	-5
603.639	1	-8
603.809	1	13
603.978	1	-2
604.148	1	-6
604.318	1	-1
604.487	1	7
604.657	1	3
604.827	1	4
604.997	1	-7
605.166	1	9
605.336	1	-1
605.506	1	6
605.676	1	-7
605.845	1	-1
606.015	1	-2
606.185	1	4
606.355	1	-6
606.524	1	-5
606.694	1	2
606.864	1	-3
607.034	1	-7
607.203	1	0
607.373	1	1
607.543	1	-6
607.712	1	-4
607.882	1	10
608.052	1	2
608.222	1	6
608.391	1	-5
608.561	1	-3
608.731	1	-6
608.901	1	0
609.070	1	2
609.240	1	0
609.410	1	-1
609.579	1	9
609.749	1	2
609.919	1	8
610.089	1	-4
610.258	1	4
610.428	1	0
610.598	1	-3
610.767	1	-1
610.937	1	5
611.107	1	5
611.277	1	-7
611.446	1	10
611.616	1	-1
611.786	1	11
611.955	1	-5
612.125	1	-3
612.295	1	-6
612.465	1	12
612.634	1	0
612.804	1	6
612.974	1	-8
613.143	1	8
613.313	1	10
613.483	1	-4
613.652	1	10
613.822	1	1
613.992	1	1
614.162	1	5
614.331	1	8
614.501	1	2
614.671	1	4
614.840	1	-3
615.010	1	-9
615.180	1	-9
615.349	1	6
615.519	1	-12
615.689	1	9
615.858	1	1
616.028	1	3
616.198	1	3
616.368	1	1
616.537	1	-9
616.707	1	4
616.877	1	5
617.046	1	4
617.216	1	-2
617.386	1	-1
617.555	1	4
617.725	1	5
617.895	1	19
618.064	1	-8
618.234	1	-10
618.404	1	4
618.573	1	2
618.743	1	9
618.913	1	7
619.082	1	1
619.252	1	7
619.422	1	0
619.591	1	-4
619.761	1	0
619.931	1	13
620.100	1	5
620.270	1	-16
620.440	1	-2
620.609	1	9
620.779	1	-3
620.949	1	-1
621.118	1	-2
621.288	1	4
621.458	1	9
621.627	1	2
621.797	1	-6
621.967	1	-2
622.136	1	16
622.306	1	-9
622.476	1	8
622.645	1	10
622.815	1	0
622.985	1	-7
623.154	1	1
623.324	1	1
623.494	1	12
623.663	1	2
623.833	1	6
624.002	1	-10
624.172	1	0
624.342	1	9
624.511	1	-1
624.681	1	5
624.851	1	-10
625.020	1	-4
625.190	1	6
625.360	1	0
625.529	1	1
625.699	1	-8
625.869	1	12
626.038	1	-7
626.208	1	2
626.377	1	-2
626.547	1	0
626.717	1	-5
626.886	1	7
627.056	1	-7
627.226	1	1
627.395	1	13
627.565	1	4
627.735	1	8
627.904	1	1
628.074	1	6
628.243	1	-4
628.413	1	1
628.583	1	-7
628.752	1	8
628.922	1	8
629.091	1	-9
629.261	1	-4
629.431	1	-8
629.600	1	15
629.770	1	-4
629.940	1	4
630.109	1	-7
630.279	1	-10
630.448	1	2
630.618	1	-8
630.788	1	14
630.957	1	-1
631.127	1	12
631.297	1	-5
631.466	1	6
631.636	1	-12
631.805	1	6
631.975	1	10
632.145	1	-1
632.314	1	2
632.484	1	-5
632.653	1	0
632.823	1	2
632.993	1	-6
633.162	1	-5
633.332	1	-4
633.501	1	1
633.671	1	-4
633.841	1	-2
634.010	1	1
634.180	1	5
634.349	1	13
634.519	1	-9
634.689	1	4
634.858	1	-2
635.028	1	-1
635.197	1	6
635.367	1	-1
635.537	1	-5
635.706	1	-4
635.876	1	-4
636.045	1	6
636.215	1	3
636.384	1	-4
636.554	1	1
636.724	1	-1
636.893	1	-8
637.063	1	2
637.232	1	-2
637.402	1	-4
637.572	1	-5
637.741	1	-2
637.911	1	-3
638.080	1	2
638.250	1	-2
638.419	1	-7
638.589	1	-11
638.759	1	-5
638.928	1	-2
639.098	1	4
639.267	1	7
639.437	1	6
639.606	1	10
639.776	1	1
639.946	1	5
640.115	1	-10
640.285	1	1
640.454	1	-8
640.624	1	9
640.793	1	12
640.963	1	-5
641.132	1	4
641.302	1	-3
641.472	1	0
641.641	1	-10
641.811	1	3
641.980	1	0
642.150	1	-8
642.319	1	2
642.489	1	11
642.659	1	0
642.828	1	-8
642.998	1	4
643.167	1	-1
643.337	1	3
643.506	1	-14
643.676	1	2
643.845	1	0
644.015	1	4
644.184	1	7
644.354	1	-2
644.524	1	-2
644.693	1	1
644.863	1	-8
645.032	1	4
645.202	1	1
645.371	1	6
645.541	1	-3
645.710	1	-5
645.880	1	4
646.049	1	0
646.219	1	0
646.388	1	-6
646.558	1	-1
646.728	1	-5
646.897	1	-7
647.067	1	-4
647.236	1	0
647.406	1	-3
647.575	1	6
647.745	1	-4
647.914	1	-5
648.084	1	-9
648.253	1	3
648.423	1	-2
648.592	1	6
648.762	1	0
648.931	1	0
649.101	1	-1
649.270	1	3
649.440	1	7
649.610	1	-6
649.779	1	2
649.949	1	0
650.118	1	11
650.288	1	3
650.457	1	12
650.627	1	-7
650.796	1	8
650.966	1	5
651.135	1	-5
651.305	1	-8
651.474	1	-3
651.644	1	12
651.813	1	5
651.983	1	-1
652.152	1	-3
652.322	1	-4
652.491	1	-5
652.661	1	-5
652.830	1	3
653.000	1	-4
653.169	1	5
653.339	1	0
653.508	1	0
653.678	1	2
653.847	1	11
654.017	1	-1
654.186	1	2
654.356	1	-10
654.525	1	0
654.695	1	11
654.864	1	-1
655.034	1	0
655.203	1	0
655.373	1	8
655.542	1	5
655.712	1	-5
655.881	1	-6
656.051	1	-1
656.220	1	-10
656.390	1	-2
656.559	1	4
656.729	1	14
656.898	1	-6
657.068	1	-2
657.237	1	-11
657.406	1	9
657.576	1	-4
657.745	1	5
657.915	1	-5
658.084	1	4
658.254	1	-8
658.423	1	7
658.593	1	9
658.762	1	-2
658.932	1	-3
659.101	1	6
659.271	1	6
659.440	1	3
659.610	1	-3
659.779	1	5
659.949	1	-3
660.118	1	12
660.288	1	6
660.457	1	0
660.626	1	1
660.796	1	-10
660.965	1	9
661.135	1	-4
661.304	1	1
661.474	1	-14
661.643	1	6
661.813	1	18
661.982	1	4
662.152	1	0
662.321	1	5
662.491	1	-2
662.660	1	5
662.829	1	-4
662.999	1	5
663.168	1	4
663.338	1	9
663.507	1	10
663.677	1	6
663.846	1	-6
664.016	1	-11
664.185	1	5
664.354	1	6
664.524	1	3
664.693	1	7
664.863	1	3
665.032	1	2
665.202	1	2
665.371	1	1
665.541	1	-5
665.710	1	-2
665.879	1	-7
666.049	1	-1
666.218	1	-5
666.388	1	10
666.557	1	-1
666.727	1	-1
666.896	1	-8
667.065	1	5
667.235	1	-4
667.404	1	0
667.574	1	1
667.743	1	0
667.913	1	1
668.082	1	2
668.251	1	-5
668.421	1	-5
668.590	1	-3
668.760	1	0
668.929	1	-10
669.099	1	-2
669.268	1	0
669.437	1	5
669.607	1	1
669.776	1	-8
669.946	1	4
670.115	1	1
670.285	1	7
670.454	1	6
670.623	1	1
670.793	1	-2
670.962	1	0
671.132	1	11
671.301	1	3
671.470	1	-6
671.640	1	0
671.809	1	-4
671.979	1	-9
672.148	1	3
672.317	1	3
672.487	1	4
672.656	1	-4
672.826	1	-8
672.995	1	12
673.164	1	6
673.334	1	-10
673.503	1	3
673.673	1	-4
673.842	1	0
674.011	1	1
674.181	1	5
674.350	1	1
674.520	1	-3
674.689	1	4
674.858	1	-3
675.028	1	-1
675.197	1	-7
675.367	1	-2
675.536	1	5
675.705	1	5
675.875	1	-2
676.044	1	2
676.214	1	-4
676.383	1	2
676.552	1	6
676.722	1	8
676.891	1	10
677.060	1	-6
677.230	1	-1
677.399	1	-4
677.569	1	-6
677.738	1	-5
677.907	1	0
678.077	1	2
678.246	1	-2
678.416	1	-7
678.585	1	2
678.754	1	-4
678.924	1	0
679.093	1	6
679.262	1	3
679.432	1	4
679.601	1	0
679.771	1	-5
679.940	1	-12
680.109	1	10
680.279	1	-7
680.448	1	-9
680.617	1	-1
680.787	1	6
680.956	1	3
681.125	1	5
681.295	1	-2
681.464	1	0
681.634	1	-4
681.803	1	-4
681.972	1	-6
682.142	1	11
682.311	1	-4
682.480	1	13
682.650	1	2
682.819	1	7
682.988	1	-3
683.158	1	4
683.327	1	-6
683.496	1	1
683.666	1	-7
683.835	1	2
684.004	1	8
684.174	1	-2
684.343	1	2
684.512	1	-2
684.682	1	-6
684.851	1	2
685.021	1	1
685.190	1	-1
685.359	1	7
685.529	1	-3
685.698	1	4
685.867	1	3
686.037	1	0
686.206	1	-5
686.375	1	9
686.545	1	-3
686.714	1	-8
686.883	1	1
687.053	1	-3
687.222	1	7
687.391	1	-1
687.561	1	1
687.730	1	-3
687.899	1	-2
688.069	1	-3
688.238	1	5
688.407	1	-14
688.577	1	2
688.746	1	6
