340.368	1	6
340.539	1	-10
340.710	1	-11
340.881	1	-3
341.052	1	14
341.223	1	-6
341.394	1	-2
341.565	1	-11
341.737	1	6
341.908	1	8
342.079	1	2
342.250	1	-6
342.421	1	-9
342.592	1	5
342.763	1	7
342.934	1	-3
343.105	1	11
343.276	1	2
343.447	1	0
343.618	1	1
343.789	1	0
343.960	1	12
344.131	1	2
344.302	1	1
344.473	1	-6
344.644	1	5
344.815	1	2
344.986	1	-1
345.157	1	-10
345.328	1	4
345.499	1	0
345.670	1	-5
345.841	1	6
346.012	1	0
346.183	1	-4
346.354	1	2
346.526	1	4
346.697	1	0
346.868	1	5
347.039	1	8
347.210	1	-10
347.381	1	-2
347.552	1	-2
347.723	1	-1
347.894	1	7
348.065	1	4
348.236	1	8
348.407	1	2
348.578	1	2
348.749	1	-12
348.920	1	-4
349.091	1	-10
349.262	1	-1
349.433	1	-1
349.604	1	4
349.775	1	9
349.946	1	-5
350.117	1	3
350.288	1	4
350.459	1	-4
350.630	1	0
350.801	1	-6
350.972	1	8
351.143	1	-4
351.314	1	-1
351.485	1	11
351.656	1	13
351.827	1	-2
351.998	1	7
352.169	1	8
352.340	1	4
352.511	1	-6
352.682	1	7
352.853	1	7
353.024	1	12
353.195	1	0
353.366	1	8
353.537	1	2
353.708	1	-6
353.879	1	-2
354.050	1	-6
354.221	1	2
354.392	1	-2
354.563	1	6
354.734	1	8
354.905	1	0
355.076	1	11
355.247	1	-2
355.418	1	-6
355.589	1	-7
355.760	1	-12
355.931	1	-2
356.102	1	11
356.273	1	-1
356.444	1	4
356.615	1	3
356.785	1	5
356.956	1	0
357.127	1	-8
357.298	1	4
357.469	1	9
357.640	1	-1
357.811	1	1
357.982	1	2
358.153	1	4
358.324	1	-2
358.495	1	-2
358.666	1	3
358.837	1	-7
359.008	1	-7
359.179	1	-3
359.350	1	-1
359.521	1	11
359.692	1	-1
359.863	1	-4
360.034	1	4
360.205	1	0
360.376	1	4
360.547	1	7
360.718	1	2
360.889	1	-6
361.060	1	-1
361.231	1	-6
361.401	1	-3
361.572	1	0
361.743	1	-3
361.914	1	1
362.085	1	10
362.256	1	5
362.427	1	10
362.598	1	-1
362.769	1	-11
362.940	1	-4
363.111	1	1
363.282	1	4
363.453	1	-7
363.624	1	0
363.795	1	4
363.966	1	-6
364.137	1	-3
364.308	1	-4
364.478	1	-4
364.649	1	0
364.820	1	-4
364.991	1	3
365.162	1	13
365.333	1	-4
365.504	1	12
365.675	1	-12
365.846	1	-8
366.017	1	3
366.188	1	-7
366.359	1	-7
366.530	1	3
366.701	1	-3
366.871	1	0
367.042	1	-2
367.213	1	-2
367.384	1	7
367.555	1	-6
367.726	1	6
367.897	1	-2
368.068	1	0
368.239	1	-5
368.410	1	8
368.581	1	0
368.752	1	1
368.923	1	-11
369.093	1	-4
369.264	1	3
369.435	1	12
369.606	1	-12
369.777	1	-9
369.948	1	-3
370.119	1	-7
370.290	1	-4
370.461	1	11
370.632	1	-3
370.803	1	2
370.973	1	5
371.144	1	-2
371.315	1	2
371.486	1	5
371.657	1	6
371.828	1	-1
371.999	1	-3
372.170	1	1
372.341	1	1
372.512	1	-11
372.682	1	-2
372.853	1	0
373.024	1	6
373.195	1	7
373.366	1	10
373.537	1	-3
373.708	1	-4
373.879	1	0
374.050	1	-6
374.220	1	5
374.391	1	5
374.562	1	1
374.733	1	6
374.904	1	-6
375.075	1	5
375.246	1	4
375.417	1	0
375.588	1	0
375.758	1	1
375.929	1	4
376.100	1	4
376.271	1	7
376.442	1	1
376.613	1	1
376.784	1	-2
376.955	1	-4
377.125	1	6
377.296	1	-3
377.467	1	2
377.638	1	5
377.809	1	2
377.980	1	2
378.151	1	2
378.321	1	-13
378.492	1	-11
378.663	1	-1
378.834	1	-8
379.005	1	9
379.176	1	-5
379.347	1	1
379.518	1	6
379.688	1	1
379.859	1	3
380.030	1	-2
380.201	1	1
380.372	1	6
380.543	1	6
380.714	1	4
380.884	1	-11
381.055	1	5
381.226	1	-9
381.397	1	1
381.568	1	6
381.739	1	11
381.910	1	1
382.080	1	6
382.251	1	-5
382.422	1	3
382.593	1	-2
382.764	1	-2
382.935	1	-9
383.105	1	-5
383.276	1	3
383.447	1	-8
383.618	1	8
383.789	1	1
383.960	1	4
384.130	1	3
384.301	1	5
384.472	1	-3
384.643	1	2
384.814	1	-4
384.985	1	0
385.156	1	1
385.326	1	2
385.497	1	0
385.668	1	-1
385.839	1	-1
386.010	1	0
386.180	1	-3
386.351	1	-6
386.522	1	8
386.693	1	-11
386.864	1	5
387.035	1	9
387.205	1	-7
387.376	1	3
387.547	1	-5
387.718	1	-1
387.889	1	-2
388.060	1	10
388.230	1	11
388.401	1	-4
388.572	1	-8
388.743	1	-8
388.914	1	4
389.084	1	5
389.255	1	-1
389.426	1	-6
389.597	1	1
389.768	1	-2
389.939	1	6
390.109	1	3
390.280	1	5
390.451	1	-1
390.622	1	0
390.793	1	1
390.963	1	7
391.134	1	-1
391.305	1	2
391.476	1	0
391.647	1	6
391.817	1	4
391.988	1	6
392.159	1	-1
392.330	1	12
392.501	1	3
392.671	1	-6
392.842	1	0
393.013	1	-8
393.184	1	-1
393.355	1	0
393.525	1	-4
393.696	1	0
393.867	1	0
394.038	1	-1
394.208	1	5
394.379	1	-1
394.550	1	11
394.721	1	-10
394.892	1	-5
395.062	1	-2
395.233	1	4
395.404	1	3
395.575	1	-1
395.746	1	2
395.916	1	-2
396.087	1	-4
396.258	1	3
396.429	1	7
396.599	1	1
396.770	1	1
396.941	1	2
397.112	1	3
397.283	1	6
397.453	1	8
397.624	1	7
397.795	1	-3
397.966	1	-1
398.136	1	-4
398.307	1	-1
398.478	1	6
398.649	1	-4
398.819	1	5
398.990	1	-5
399.161	1	4
399.332	1	1
399.503	1	-2
399.673	1	4
399.844	1	5
400.015	1	-9
400.186	1	-2
400.356	1	-8
400.527	1	3
400.698	1	-13
400.869	1	3
401.039	1	6
401.210	1	2
401.381	1	-5
401.552	1	-2
401.722	1	1
401.893	1	-5
402.064	1	-10
402.235	1	6
402.405	1	2
402.576	1	-1
402.747	1	0
402.918	1	2
403.088	1	7
403.259	1	7
403.430	1	-4
403.601	1	-10
403.771	1	-2
403.942	1	13
404.113	1	-1
404.284	1	16
404.454	1	4
404.625	1	9
404.796	1	2
404.967	1	8
405.137	1	5
405.308	1	9
405.479	1	-3
405.649	1	4
405.820	1	-11
405.991	1	-4
406.162	1	1
406.332	1	7
406.503	1	4
406.674	1	-7
406.845	1	-3
407.015	1	6
407.186	1	10
407.357	1	-11
407.527	1	-6
407.698	1	13
407.869	1	7
408.040	1	2
408.210	1	-10
408.381	1	6
408.552	1	-5
408.722	1	-15
408.893	1	4
409.064	1	-3
409.235	1	-1
409.405	1	8
409.576	1	-13
409.747	1	-1
409.917	1	-3
410.088	1	2
410.259	1	6
410.430	1	11
410.600	1	0
410.771	1	1
410.942	1	6
411.112	1	-3
411.283	1	14
411.454	1	-11
411.625	1	-2
411.795	1	-4
411.966	1	0
412.137	1	7
412.307	1	6
412.478	1	14
412.649	1	-2
412.819	1	-3
412.990	1	10
413.161	1	-4
413.332	1	-1
413.502	1	-4
413.673	1	5
413.844	1	4
414.014	1	5
414.185	1	4
414.356	1	4
414.526	1	-9
414.697	1	5
414.868	1	7
415.038	1	-1
415.209	1	-7
415.380	1	-7
415.550	1	-1
415.721	1	-7
415.892	1	5
416.063	1	0
416.233	1	4
416.404	1	-9
416.575	1	12
416.745	1	-5
416.916	1	-2
417.087	1	1
417.257	1	8
417.428	1	12
417.599	1	0
417.769	1	14
417.940	1	5
418.111	1	-3
418.281	1	6
418.452	1	-7
418.623	1	-2
418.793	1	2
418.964	1	-3
419.135	1	-5
419.305	1	1
419.476	1	6
419.647	1	-8
419.817	1	9
419.988	1	-7
420.159	1	5
420.329	1	-8
420.500	1	-2
420.671	1	8
420.841	1	7
421.012	1	10
421.183	1	1
421.353	1	1
421.524	1	-8
421.695	1	1
421.865	1	4
422.036	1	-3
422.206	1	2
422.377	1	-2
422.548	1	-7
422.718	1	-1
422.889	1	-11
423.060	1	-6
423.230	1	5
423.401	1	0
423.572	1	4
423.742	1	-2
423.913	1	0
424.084	1	-4
424.254	1	8
424.425	1	8
424.595	1	-1
424.766	1	-6
424.937	1	-7
425.107	1	-2
425.278	1	6
425.449	1	-8
425.619	1	7
425.790	1	-12
425.961	1	2
426.131	1	-6
426.302	1	3
426.472	1	0
426.643	1	8
426.814	1	1
426.984	1	5
427.155	1	-6
427.326	1	2
427.496	1	-1
427.667	1	6
427.837	1	-4
428.008	1	11
428.179	1	-5
428.349	1	-12
428.520	1	9
428.691	1	6
428.861	1	-2
429.032	1	3
429.202	1	-10
429.373	1	9
429.544	1	-1
429.714	1	-4
429.885	1	3
430.055	1	3
430.226	1	-6
430.397	1	3
430.567	1	1
430.738	1	0
430.909	1	6
431.079	1	3
431.250	1	-6
431.420	1	-8
431.591	1	8
431.762	1	0
431.932	1	-1
432.103	1	0
432.273	1	4
432.444	1	11
432.615	1	-4
432.785	1	-1
432.956	1	-10
433.126	1	-7
433.297	1	3
433.468	1	-18
433.638	1	2
433.809	1	-2
433.979	1	5
434.150	1	0
434.320	1	4
434.491	1	-11
434.662	1	-1
434.832	1	9
435.003	1	4
435.173	1	-9
435.344	1	-5
435.515	1	9
435.685	1	1
435.856	1	7
436.026	1	3
436.197	1	-3
436.368	1	-3
436.538	1	-11
436.709	1	-2
436.879	1	-6
437.050	1	-8
437.220	1	12
437.391	1	12
437.562	1	4
437.732	1	2
437.903	1	5
438.073	1	0
438.244	1	6
438.414	1	1
438.585	1	0
438.756	1	-5
438.926	1	0
439.097	1	-8
439.267	1	2
439.438	1	-7
439.608	1	-9
439.779	1	3
439.949	1	13
440.120	1	4
440.291	1	0
440.461	1	5
440.632	1	-4
440.802	1	-2
440.973	1	-12
441.143	1	4
441.314	1	-11
441.485	1	2
441.655	1	5
441.826	1	9
441.996	1	-2
442.167	1	6
442.337	1	-6
442.508	1	0
442.678	1	-5
442.849	1	14
443.019	1	-1
443.190	1	2
443.361	1	-1
443.531	1	7
443.702	1	0
443.872	1	6
444.043	1	5
444.213	1	-6
444.384	1	-12
444.554	1	11
444.725	1	0
444.895	1	-1
445.066	1	-4
445.237	1	-6
445.407	1	4
445.578	1	-9
445.748	1	-7
445.919	1	-6
446.089	1	5
446.260	1	1
446.430	1	-2
446.601	1	0
446.771	1	9
446.942	1	2
447.112	1	-8
447.283	1	-7
447.453	1	-18
447.624	1	-7
447.794	1	-4
447.965	1	-5
448.135	1	-2
448.306	1	-1
448.477	1	7
448.647	1	-5
448.818	1	-3
448.988	1	-4
449.159	1	1
449.329	1	5
449.500	1	-3
449.670	1	4
449.841	1	5
450.011	1	5
450.182	1	-5
450.352	1	0
450.523	1	-5
450.693	1	-3
450.864	1	6
451.034	1	-12
451.205	1	8
451.375	1	-9
451.546	1	9
451.716	1	-3
451.887	1	-12
452.057	1	4
452.228	1	-2
452.398	1	0
452.569	1	-2
452.739	1	11
452.910	1	-2
453.080	1	-7
453.251	1	-4
453.421	1	-3
453.592	1	-2
453.762	1	-5
453.933	1	-3
454.103	1	0
454.274	1	-1
454.444	1	-9
454.615	1	7
454.785	1	-6
454.956	1	-2
455.126	1	-3
455.297	1	10
455.467	1	-2
455.638	1	7
455.808	1	5
455.979	1	5
456.149	1	0
456.320	1	-2
456.490	1	-3
456.661	1	6
456.831	1	4
457.001	1	3
457.172	1	-2
457.342	1	-2
457.513	1	10
457.683	1	4
457.854	1	10
458.024	1	-7
458.195	1	-1
458.365	1	-6
458.536	1	3
458.706	1	6
458.877	1	0
459.047	1	10
459.218	1	4
459.388	1	6
459.559	1	0
459.729	1	1
459.899	1	3
460.070	1	-2
460.240	1	2
460.411	1	-1
460.581	1	15
460.752	1	-2
460.922	1	-3
461.093	1	-1
461.263	1	-6
461.434	1	8
461.604	1	-5
461.775	1	-3
461.945	1	0
462.115	1	-7
462.286	1	4
462.456	1	-8
462.627	1	5
462.797	1	-6
462.968	1	-2
463.138	1	2
463.309	1	-11
463.479	1	3
463.649	1	-7
463.820	1	-3
463.990	1	-4
464.161	1	6
464.331	1	-1
464.502	1	1
464.672	1	0
464.843	1	0
465.013	1	-6
465.183	1	-9
465.354	1	3
465.524	1	1
465.695	1	-1
465.865	1	-3
466.036	1	-4
466.206	1	7
466.376	1	1
466.547	1	-2
466.717	1	6
466.888	1	11
467.058	1	-5
467.229	1	-1
467.399	1	12
467.569	1	5
467.740	1	-2
467.910	1	2
468.081	1	3
468.251	1	0
468.422	1	-6
468.592	1	-2
468.762	1	-7
468.933	1	0
469.103	1	-16
469.274	1	6
469.444	1	-9
469.614	1	0
469.785	1	-15
469.955	1	-5
470.126	1	-13
470.296	1	4
470.467	1	1
470.637	1	-5
470.807	1	-1
470.978	1	-5
471.148	1	6
471.319	1	0
471.489	1	2
471.659	1	-9
471.830	1	3
472.000	1	-1
472.171	1	1
472.341	1	7
472.511	1	-8
472.682	1	2
472.852	1	-2
473.023	1	2
473.193	1	-2
473.363	1	-2
473.534	1	3
473.704	1	-3
473.875	1	15
474.045	1	-7
474.215	1	7
474.386	1	8
474.556	1	10
474.727	1	-8
474.897	1	6
475.067	1	4
475.238	1	6
475.408	1	-7
475.578	1	2
475.749	1	-12
475.919	1	1
476.090	1	5
476.260	1	-2
476.430	1	5
476.601	1	2
476.771	1	-3
476.942	1	8
477.112	1	-4
477.282	1	0
477.453	1	-4
477.623	1	-9
477.793	1	-2
477.964	1	-4
478.134	1	-12
478.305	1	-1
478.475	1	3
478.645	1	7
478.816	1	3
478.986	1	0
479.156	1	6
479.327	1	-7
479.497	1	-10
479.667	1	-4
479.838	1	-2
480.008	1	2
480.179	1	-1
480.349	1	-10
480.519	1	1
480.690	1	-4
480.860	1	1
481.030	1	-4
481.201	1	-4
481.371	1	1
481.541	1	-7
481.712	1	4
481.882	1	6
482.053	1	1
482.223	1	-3
482.393	1	3
482.564	1	-2
482.734	1	-14
482.904	1	-6
483.075	1	4
483.245	1	8
483.415	1	10
483.586	1	-6
483.756	1	7
483.926	1	0
484.097	1	1
484.267	1	-9
484.437	1	-10
484.608	1	6
484.778	1	-1
484.948	1	1
485.119	1	-7
485.289	1	-4
485.459	1	12
485.630	1	1
485.800	1	3
485.970	1	-2
486.141	1	-5
486.311	1	-2
486.481	1	2
486.652	1	4
486.822	1	3
486.992	1	7
487.163	1	-2
487.333	1	0
487.503	1	-5
487.674	1	0
487.844	1	0
488.014	1	0
488.185	1	-2
488.355	1	-7
488.525	1	-2
488.696	1	-8
488.866	1	-6
489.036	1	1
489.207	1	-3
489.377	1	-1
489.547	1	4
489.718	1	1
489.888	1	-10
490.058	1	-4
490.228	1	4
490.399	1	-4
490.569	1	23
490.739	1	6
490.910	1	7
491.080	1	5
491.250	1	-2
491.421	1	0
491.591	1	-8
491.761	1	-1
491.932	1	6
492.102	1	-3
492.272	1	-3
492.442	1	9
492.613	1	-3
492.783	1	11
492.953	1	-5
493.124	1	4
493.294	1	-3
493.464	1	15
493.635	1	-2
493.805	1	-5
493.975	1	-1
494.145	1	-4
494.316	1	9
494.486	1	8
494.656	1	-3
494.827	1	12
494.997	1	-4
495.167	1	-10
495.337	1	10
495.508	1	-6
495.678	1	0
495.848	1	12
496.019	1	-1
496.189	1	2
496.359	1	0
496.529	1	-8
496.700	1	4
496.870	1	9
497.040	1	-6
497.211	1	-12
497.381	1	-3
497.551	1	8
497.721	1	0
497.892	1	-1
498.062	1	1
498.232	1	-10
498.403	1	-2
498.573	1	2
498.743	1	5
498.913	1	0
499.084	1	0
499.254	1	0
499.424	1	2
499.594	1	5
499.765	1	-8
499.935	1	0
500.105	1	-2
500.275	1	3
500.446	1	-3
500.616	1	1
500.786	1	-11
500.956	1	4
501.127	1	2
501.297	1	-9
501.467	1	-7
501.638	1	-5
501.808	1	-2
501.978	1	6
502.148	1	2
502.319	1	5
502.489	1	6
502.659	1	6
502.829	1	-2
503.000	1	-3
503.170	1	6
503.340	1	3
503.510	1	6
503.681	1	-6
503.851	1	2
504.021	1	-3
504.191	1	8
504.362	1	-4
504.532	1	-1
504.702	1	-9
504.872	1	5
505.042	1	2
505.213	1	10
505.383	1	-1
505.553	1	-11
505.723	1	-1
505.894	1	-12
506.064	1	10
506.234	1	5
506.404	1	-1
506.575	1	4
506.745	1	1
506.915	1	3
507.085	1	-8
507.256	1	5
507.426	1	-2
507.596	1	1
507.766	1	-1
507.936	1	2
508.107	1	-5
508.277	1	-8
508.447	1	11
508.617	1	7
508.788	1	15
508.958	1	-16
509.128	1	6
509.298	1	-3
509.468	1	0
509.639	1	-9
509.809	1	7
509.979	1	-5
510.149	1	2
510.319	1	6
510.490	1	-4
510.660	1	2
510.830	1	9
511.000	1	0
511.171	1	-3
511.341	1	-5
511.511	1	1
511.681	1	7
511.851	1	3
512.022	1	-5
512.192	1	-4
512.362	1	-3
512.532	1	-1
512.702	1	3
512.873	1	3
513.043	1	1
513.213	1	-7
513.383	1	1
513.553	1	-15
513.724	1	0
513.894	1	-3
514.064	1	8
514.234	1	2
514.404	1	-1
514.575	1	8
514.745	1	-1
514.915	1	2
515.085	1	-2
515.255	1	-11
515.425	1	-6
515.596	1	-1
515.766	1	-2
515.936	1	-6
516.106	1	-3
516.276	1	-8
516.447	1	15
516.617	1	11
516.787	1	5
516.957	1	2
517.127	1	-6
517.297	1	-10
517.468	1	-10
517.638	1	1
517.808	1	-3
517.978	1	12
518.148	1	1
518.319	1	-4
518.489	1	2
518.659	1	-13
518.829	1	10
518.999	1	0
519.169	1	0
519.340	1	1
519.510	1	3
519.680	1	7
519.850	1	8
520.020	1	6
520.190	1	-2
520.361	1	7
520.531	1	2
520.701	1	1
520.871	1	8
521.041	1	15
521.211	1	-14
521.382	1	-5
521.552	1	5
521.722	1	3
521.892	1	8
522.062	1	10
522.232	1	1
522.402	1	1
522.573	1	1
522.743	1	9
522.913	1	8
523.083	1	-3
523.253	1	7
523.423	1	2
523.593	1	-8
523.764	1	3
523.934	1	-3
524.104	1	4
524.274	1	-1
524.444	1	-1
524.614	1	-3
524.784	1	2
524.955	1	-9
525.125	1	8
525.295	1	0
525.465	1	4
525.635	1	-7
525.805	1	-6
525.975	1	8
526.146	1	-6
526.316	1	11
526.486	1	-1
526.656	1	-3
526.826	1	-1
526.996	1	3
527.166	1	5
527.337	1	-5
527.507	1	-3
527.677	1	10
527.847	1	5
528.017	1	-11
528.187	1	7
528.357	1	-4
528.527	1	10
528.698	1	6
528.868	1	5
529.038	1	-5
529.208	1	1
529.378	1	5
529.548	1	1
529.718	1	12
529.888	1	-2
530.058	1	-2
530.229	1	1
530.399	1	11
530.569	1	-11
530.739	1	-5
530.909	1	-8
531.079	1	11
531.249	1	0
531.419	1	-3
531.589	1	10
531.760	1	9
531.930	1	0
532.100	1	0
532.270	1	-6
532.440	1	2
532.610	1	-5
532.780	1	-5
532.950	1	4
533.120	1	3
533.290	1	0
533.461	1	4
533.631	1	9
533.801	1	3
533.971	1	-10
534.141	1	-17
534.311	1	7
534.481	1	-13
534.651	1	-1
534.821	1	-5
534.991	1	5
535.162	1	-6
535.332	1	-1
535.502	1	-4
535.672	1	7
535.842	1	2
536.012	1	-4
536.182	1	-7
536.352	1	-2
536.522	1	-12
536.692	1	2
536.862	1	4
537.032	1	6
537.203	1	-9
537.373	1	4
537.543	1	0
537.713	1	6
537.883	1	-4
538.053	1	-3
538.223	1	-3
538.393	1	5
538.563	1	7
538.733	1	3
538.903	1	-6
539.073	1	-4
539.243	1	-3
539.413	1	-2
539.584	1	-4
539.754	1	2
539.924	1	12
540.094	1	-2
540.264	1	-9
540.434	1	-5
540.604	1	0
540.774	1	3
540.944	1	1
541.114	1	-5
541.284	1	10
541.454	1	-3
541.624	1	-1
541.794	1	-7
541.964	1	11
542.134	1	-1
542.305	1	11
542.475	1	6
542.645	1	-3
542.815	1	0
542.985	1	-2
543.155	1	1
543.325	1	2
543.495	1	-6
543.665	1	1
543.835	1	10
544.005	1	3
544.175	1	0
544.345	1	9
544.515	1	-8
544.685	1	0
544.855	1	0
545.025	1	-5
545.195	1	1
545.365	1	0
545.535	1	9
545.705	1	0
545.875	1	-9
546.045	1	-2
546.216	1	0
546.386	1	7
546.556	1	-1
546.726	1	-6
546.896	1	-1
547.066	1	3
547.236	1	5
547.406	1	-5
547.576	1	5
547.746	1	-8
547.916	1	-9
548.086	1	-5
548.256	1	-4
548.426	1	-3
548.596	1	7
548.766	1	13
548.936	1	0
549.106	1	1
549.276	1	-1
549.446	1	5
549.616	1	-2
549.786	1	-10
549.956	1	5
550.126	1	6
550.296	1	5
550.466	1	-2
550.636	1	6
550.806	1	-2
550.976	1	-3
551.146	1	2
551.316	1	0
551.486	1	-2
551.656	1	7
551.826	1	-1
551.996	1	8
552.166	1	3
552.336	1	-3
552.506	1	1
552.676	1	11
552.846	1	4
553.016	1	8
553.186	1	0
553.356	1	-1
553.526	1	-2
553.696	1	10
553.866	1	4
554.036	1	4
554.206	1	0
554.376	1	-4
554.546	1	-2
554.716	1	2
554.886	1	8
555.056	1	1
555.226	1	-12
555.396	1	-1
555.566	1	-4
555.736	1	-2
555.906	1	6
556.076	1	5
556.246	1	1
556.416	1	-6
556.586	1	-4
556.756	1	-6
556.926	1	12
557.096	1	-6
557.266	1	-2
557.436	1	2
557.606	1	2
557.776	1	-5
557.946	1	8
558.116	1	9
558.286	1	3
558.456	1	-5
558.626	1	7
558.796	1	8
558.966	1	-8
559.136	1	0
559.306	1	10
559.476	1	-3
559.646	1	-5
559.816	1	-7
559.986	1	-2
560.155	1	13
560.325	1	-4
560.495	1	-1
560.665	1	-1
560.835	1	0
561.005	1	-4
561.175	1	4
561.345	1	-3
561.515	1	0
561.685	1	-3
561.855	1	-6
562.025	1	1
562.195	1	-8
562.365	1	-1
562.535	1	-2
562.705	1	0
562.875	1	5
563.045	1	-5
563.215	1	9
563.385	1	-5
563.555	1	0
563.725	1	7
563.895	1	3
564.064	1	0
564.234	1	1
564.404	1	-1
564.574	1	3
564.744	1	1
564.914	1	0
565.084	1	1
565.254	1	14
565.424	1	-10
565.594	1	9
565.764	1	1
565.934	1	-2
566.104	1	-1
566.274	1	3
566.444	1	-5
566.614	1	-6
566.783	1	-10
566.953	1	11
567.123	1	5
567.293	1	18
567.463	1	2
567.633	1	8
567.803	1	-13
567.973	1	-1
568.143	1	0
568.313	1	5
568.483	1	7
568.653	1	6
568.823	1	-1
568.993	1	3
569.162	1	7
569.332	1	-3
569.502	1	-8
569.672	1	11
569.842	1	3
570.012	1	0
570.182	1	-2
570.352	1	3
570.522	1	-10
570.692	1	8
570.862	1	-1
571.031	1	6
571.201	1	3
571.371	1	-7
571.541	1	-2
571.711	1	6
571.881	1	12
572.051	1	-6
572.221	1	-5
572.391	1	-6
572.561	1	-4
572.731	1	2
572.900	1	-12
573.070	1	2
573.240	1	-9
573.410	1	13
573.580	1	-1
573.750	1	-4
573.920	1	-1
574.090	1	3
574.260	1	9
574.430	1	2
574.599	1	-9
574.769	1	-6
574.939	1	-2
575.109	1	5
575.279	1	4
575.449	1	-2
575.619	1	3
575.789	1	-9
575.959	1	-6
576.128	1	-9
576.298	1	14
576.468	1	-5
576.638	1	5
576.808	1	-4
576.978	1	8
577.148	1	-5
577.318	1	14
577.487	1	-1
577.657	1	-11
577.827	1	-2
577.997	1	-5
578.167	1	-6
578.337	1	6
578.507	1	16
578.677	1	4
578.846	1	-3
579.016	1	3
579.186	1	-5
579.356	1	-6
579.526	1	-6
579.696	1	2
579.866	1	7
580.036	1	1
580.205	1	-1
580.375	1	1
580.545	1	0
580.715	1	0
580.885	1	-2
581.055	1	2
581.225	1	3
581.394	1	-5
581.564	1	4
581.734	1	-12
581.904	1	9
582.074	1	0
582.244	1	-6
582.414	1	8
582.583	1	12
582.753	1	7
582.923	1	1
583.093	1	-1
583.263	1	1
583.433	1	-4
583.603	1	3
583.772	1	7
583.942	1	-1
584.112	1	1
584.282	1	-6
584.452	1	12
584.622	1	2
584.791	1	-9
584.961	1	1
585.131	1	8
585.301	1	-4
585.471	1	5
585.641	1	-4
585.811	1	-3
585.980	1	9
586.150	1	-12
586.320	1	-1
586.490	1	3
586.660	1	1
586.830	1	-1
586.999	1	-4
587.169	1	0
587.339	1	-9
587.509	1	-4
587.679	1	3
587.849	1	0
588.018	1	11
588.188	1	6
588.358	1	-3
588.528	1	6
588.698	1	6
588.867	1	7
589.037	1	0
589.207	1	-2
589.377	1	3
589.547	1	2
589.717	1	4
589.886	1	-8
590.056	1	-5
590.226	1	5
590.396	1	2
590.566	1	-7
590.735	1	-8
590.905	1	1
591.075	1	1
591.245	1	2
591.415	1	-1
591.585	1	11
591.754	1	4
591.924	1	5
592.094	1	4
592.264	1	3
592.434	1	1
592.603	1	4
592.773	1	5
592.943	1	6
593.113	1	-11
593.283	1	-1
593.452	1	3
593.622	1	3
593.792	1	7
593.962	1	-4
594.132	1	-1
594.301	1	10
594.471	1	5
594.641	1	-9
594.811	1	0
594.981	1	-7
595.150	1	-6
595.320	1	0
595.490	1	3
595.660	1	2
595.829	1	-2
595.999	1	-6
596.169	1	3
596.339	1	1
596.509	1	2
596.678	1	-3
596.848	1	1
597.018	1	-7
597.188	1	1
597.358	1	1
597.527	1	-4
597.697	1	2
597.867	1	-3
598.037	1	0
598.206	1	-6
598.376	1	-5
598.546	1	1
598.716	1	12
598.885	1	-4
599.055	1	4
599.225	1	-10
599.395	1	1
599.565	1	-10
599.734	1	6
599.904	1	-8
600.074	1	-6
600.244	1	-4
600.413	1	1
600.583	1	7
600.753	1	-3
600.923	1	-2
601.092	1	7
601.262	1	1
601.432	1	-7
601.602	1	13
601.771	1	6
601.941	1	-4
602.111	1	-3
602.281	1	5
602.451	1	4
602.620	1	-6
602.790	1	8
602.960	1	5
603.130	1	5
603.299	1	-3
603.469	1	-11
603.639	1	-15
603.809	1	4
603.978	1	0
604.148	1	-6
604.318	1	1
604.487	1	-11
604.657	1	2
604.827	1	7
604.997	1	6
605.166	1	4
605.336	1	-8
605.506	1	-1
605.676	1	-9
605.845	1	3
606.015	1	1
606.185	1	3
606.355	1	8
606.524	1	-2
606.694	1	1
606.864	1	0
607.034	1	-4
607.203	1	-2
607.373	1	0
607.543	1	-1
607.712	1	-7
607.882	1	2
608.052	1	-4
608.222	1	-1
608.391	1	0
608.561	1	0
608.731	1	5
608.901	1	2
609.070	1	4
609.240	1	-8
609.410	1	4
609.579	1	5
609.749	1	2
609.919	1	8
610.089	1	-4
610.258	1	-4
610.428	1	3
610.598	1	0
610.767	1	-3
610.937	1	3
611.107	1	-1
611.277	1	-2
611.446	1	10
611.616	1	-1
611.786	1	13
611.955	1	-1
612.125	1	-5
612.295	1	-2
612.465	1	9
612.634	1	9
612.804	1	5
612.974	1	-11
613.143	1	2
613.313	1	1
613.483	1	4
613.652	1	-4
613.822	1	0
613.992	1	-3
614.162	1	10
614.331	1	-3
614.501	1	-3
614.671	1	3
614.840	1	-4
615.010	1	-1
615.180	1	-7
615.349	1	0
615.519	1	-11
615.689	1	6
615.858	1	2
616.028	1	2
616.198	1	5
616.368	1	2
616.537	1	-2
616.707	1	-3
616.877	1	-8
617.046	1	-4
617.216	1	-5
617.386	1	7
617.555	1	5
617.725	1	3
617.895	1	0
618.064	1	-8
618.234	1	-1
618.404	1	-2
618.573	1	-4
618.743	1	8
618.913	1	-1
619.082	1	-2
619.252	1	-1
619.422	1	-3
619.591	1	0
619.761	1	3
619.931	1	4
620.100	1	5
620.270	1	-11
620.440	1	-4
620.609	1	3
620.779	1	-2
620.949	1	5
621.118	1	-1
621.288	1	4
621.458	1	0
621.627	1	7
621.797	1	4
621.967	1	-8
622.136	1	12
622.306	1	-1
622.476	1	8
622.645	1	1
622.815	1	7
622.985	1	-2
623.154	1	4
623.324	1	-2
623.494	1	10
623.663	1	-8
623.833	1	8
624.002	1	-7
624.172	1	3
624.342	1	7
624.511	1	-8
624.681	1	1
624.851	1	-6
625.020	1	-4
625.190	1	-7
625.360	1	-6
625.529	1	1
625.699	1	-5
625.869	1	5
626.038	1	-3
626.208	1	7
626.377	1	12
626.547	1	-1
626.717	1	6
626.886	1	3
627.056	1	-15
627.226	1	1
627.395	1	1
627.565	1	-4
627.735	1	6
627.904	1	-3
628.074	1	3
628.243	1	4
628.413	1	0
628.583	1	-1
628.752	1	-7
628.922	1	4
629.091	1	-2
629.261	1	2
629.431	1	-9
629.600	1	13
629.770	1	-4
629.940	1	-6
630.109	1	-17
630.279	1	-5
630.448	1	-5
630.618	1	0
630.788	1	7
630.957	1	-1
631.127	1	2
631.297	1	8
631.466	1	8
631.636	1	-11
631.805	1	0
631.975	1	4
632.145	1	-6
632.314	1	-6
632.484	1	-3
632.653	1	-1
632.823	1	2
632.993	1	-5
633.162	1	1
633.332	1	2
633.501	1	-8
633.671	1	0
633.841	1	-10
634.010	1	-3
634.180	1	0
634.349	1	8
634.519	1	-2
634.689	1	-6
634.858	1	3
635.028	1	5
635.197	1	17
635.367	1	5
635.537	1	-4
635.706	1	1
635.876	1	1
636.045	1	11
636.215	1	5
636.384	1	4
636.554	1	1
636.724	1	-1
636.893	1	-2
637.063	1	1
637.232	1	-7
637.402	1	6
637.572	1	7
637.741	1	3
637.911	1	0
638.080	1	-9
638.250	1	-3
638.419	1	-2
638.589	1	-5
638.759	1	-7
638.928	1	-6
639.098	1	5
639.267	1	0
639.437	1	0
639.606	1	3
639.776	1	-1
639.946	1	13
640.115	1	4
640.285	1	8
640.454	1	-11
640.624	1	-4
640.793	1	10
640.963	1	8
641.132	1	12
641.302	1	-5
641.472	1	1
641.641	1	-8
641.811	1	1
641.980	1	10
642.150	1	-11
642.319	1	-2
642.489	1	7
642.659	1	2
642.828	1	-7
642.998	1	0
643.167	1	-2
643.337	1	-1
643.506	1	-6
643.676	1	2
643.845	1	-10
644.015	1	-3
644.184	1	4
644.354	1	4
644.524	1	-3
644.693	1	6
644.863	1	-7
645.032	1	3
645.202	1	-8
645.371	1	4
645.541	1	6
645.710	1	1
645.880	1	-1
646.049	1	-13
646.219	1	3
646.388	1	11
646.558	1	0
646.728	1	1
646.897	1	4
647.067	1	2
647.236	1	-8
647.406	1	-8
647.575	1	2
647.745	1	-4
647.914	1	-10
648.084	1	5
648.253	1	2
648.423	1	4
648.592	1	-8
648.762	1	0
648.931	1	7
649.101	1	-11
649.270	1	1
649.440	1	8
649.610	1	4
649.779	1	6
649.949	1	-5
650.118	1	11
650.288	1	3
650.457	1	8
650.627	1	0
650.796	1	3
650.966	1	7
651.135	1	-7
651.305	1	8
651.474	1	-5
651.644	1	12
651.813	1	0
651.983	1	-3
652.152	1	3
652.322	1	-1
652.491	1	1
652.661	1	-4
652.830	1	5
653.000	1	2
653.169	1	-1
653.339	1	7
653.508	1	-3
653.678	1	-3
653.847	1	2
654.017	1	-2
654.186	1	1
654.356	1	1
654.525	1	5
654.695	1	5
654.864	1	3
655.034	1	4
655.203	1	-10
655.373	1	1
655.542	1	-1
655.712	1	6
655.881	1	-2
656.051	1	2
656.220	1	-5
656.390	1	-5
656.559	1	2
656.729	1	11
656.898	1	-11
657.068	1	14
657.237	1	-11
657.406	1	4
657.576	1	-2
657.745	1	-6
657.915	1	-3
658.084	1	8
658.254	1	-6
658.423	1	13
658.593	1	3
658.762	1	4
658.932	1	-4
659.101	1	5
659.271	1	1
659.440	1	2
659.610	1	6
659.779	1	2
659.949	1	-9
660.118	1	8
660.288	1	2
660.457	1	1
660.626	1	1
660.796	1	-16
660.965	1	7
661.135	1	-6
661.304	1	-2
661.474	1	2
661.643	1	5
661.813	1	5
661.982	1	14
662.152	1	5
662.321	1	8
662.491	1	1
662.660	1	-1
662.829	1	-8
662.999	1	-4
663.168	1	9
663.338	1	13
663.507	1	13
663.677	1	9
663.846	1	-8
664.016	1	0
664.185	1	-1
664.354	1	13
664.524	1	4
664.693	1	11
664.863	1	5
665.032	1	0
665.202	1	5
665.371	1	0
665.541	1	-10
665.710	1	1
665.879	1	-2
666.049	1	-3
666.218	1	-2
666.388	1	5
666.557	1	1
666.727	1	-1
666.896	1	0
667.065	1	3
667.235	1	1
667.404	1	-4
667.574	1	-3
667.743	1	0
667.913	1	5
668.082	1	0
668.251	1	3
668.421	1	-6
668.590	1	1
668.760	1	5
668.929	1	-9
669.099	1	-1
669.268	1	-3
669.437	1	4
669.607	1	0
669.776	1	-8
669.946	1	-1
670.115	1	5
670.285	1	0
670.454	1	-1
670.623	1	-1
670.793	1	1
670.962	1	-7
671.132	1	16
671.301	1	-3
671.470	1	5
671.640	1	1
671.809	1	-5
671.979	1	-6
672.148	1	0
672.317	1	-2
672.487	1	-2
672.656	1	-6
672.826	1	-4
672.995	1	10
673.164	1	4
673.334	1	0
673.503	1	1
673.673	1	-2
673.842	1	-3
674.011	1	4
674.181	1	8
674.350	1	1
674.520	1	1
674.689	1	0
674.858	1	3
675.028	1	1
675.197	1	-4
675.367	1	4
675.536	1	4
675.705	1	5
675.875	1	-9
676.044	1	1
676.214	1	-8
676.383	1	3
676.552	1	2
676.722	1	10
676.891	1	11
677.060	1	2
677.230	1	3
677.399	1	-5
677.569	1	-8
677.738	1	5
677.907	1	1
678.077	1	10
678.246	1	-5
678.416	1	5
678.585	1	-4
678.754	1	-6
678.924	1	-2
679.093	1	4
679.262	1	-2
679.432	1	-2
679.601	1	-6
679.771	1	5
679.940	1	-1
680.109	1	2
680.279	1	-4
680.448	1	-5
680.617	1	1
680.787	1	-11
680.956	1	1
681.125	1	2
681.295	1	4
681.464	1	6
681.634	1	9
681.803	1	-3
681.972	1	-10
682.142	1	2
682.311	1	1
682.480	1	4
682.650	1	1
682.819	1	1
682.988	1	-1
683.158	1	-1
683.327	1	-9
683.496	1	2
683.666	1	-3
683.835	1	-4
684.004	1	10
684.174	1	-12
684.343	1	2
684.512	1	5
684.682	1	-6
684.851	1	-4
685.021	1	-8
685.190	1	-2
685.359	1	10
685.529	1	3
685.698	1	11
685.867	1	-2
686.037	1	-2
686.206	1	-1
686.375	1	14
686.545	1	-6
686.714	1	1
686.883	1	1
687.053	1	3
687.222	1	-3
687.391	1	3
687.561	1	3
687.730	1	8
687.899	1	-5
688.069	1	16
688.238	1	6
688.407	1	-11
688.577	1	1
688.746	1	-1
