340.368	1	8
340.539	1	-5
340.710	1	-6
340.881	1	-3
341.052	1	2
341.223	1	6
341.394	1	1
341.565	1	-15
341.737	1	4
341.908	1	4
342.079	1	-5
342.250	1	0
342.421	1	-3
342.592	1	12
342.763	1	2
342.934	1	-7
343.105	1	4
343.276	1	11
343.447	1	-10
343.618	1	5
343.789	1	-11
343.960	1	2
344.131	1	4
344.302	1	3
344.473	1	0
344.644	1	13
344.815	1	3
344.986	1	12
345.157	1	-2
345.328	1	1
345.499	1	11
345.670	1	-8
345.841	1	-1
346.012	1	11
346.183	1	-3
346.354	1	10
346.526	1	-1
346.697	1	0
346.868	1	1
347.039	1	11
347.210	1	-8
347.381	1	5
347.552	1	-1
347.723	1	-4
347.894	1	-1
348.065	1	0
348.236	1	7
348.407	1	4
348.578	1	2
348.749	1	-3
348.920	1	-6
349.091	1	-14
349.262	1	-4
349.433	1	10
349.604	1	1
349.775	1	10
349.946	1	1
350.117	1	12
350.288	1	2
350.459	1	3
350.630	1	-2
350.801	1	-4
350.972	1	-2
351.143	1	-2
351.314	1	6
351.485	1	4
351.656	1	10
351.827	1	-1
351.998	1	10
352.169	1	1
352.340	1	5
352.511	1	-7
352.682	1	2
352.853	1	-1
353.024	1	-3
353.195	1	6
353.366	1	13
353.537	1	12
353.708	1	2
353.879	1	0
354.050	1	-5
354.221	1	-8
354.392	1	8
354.563	1	4
354.734	1	6
354.905	1	3
355.076	1	9
355.247	1	10
355.418	1	-4
355.589	1	-8
355.760	1	-7
355.931	1	-1
356.102	1	3
356.273	1	8
356.444	1	4
356.615	1	6
356.785	1	9
356.956	1	4
357.127	1	-7
357.298	1	2
357.469	1	-4
357.640	1	1
357.811	1	-2
357.982	1	-4
358.153	1	4
358.324	1	0
358.495	1	4
358.666	1	0
358.837	1	-6
359.008	1	2
359.179	1	-1
359.350	1	-3
359.521	1	11
359.692	1	9
359.863	1	3
360.034	1	10
360.205	1	6
360.376	1	4
360.547	1	2
360.718	1	6
360.889	1	-8
361.060	1	-6
361.231	1	-7
361.401	1	0
361.572	1	3
361.743	1	-4
361.914	1	7
362.085	1	10
362.256	1	-1
362.427	1	8
362.598	1	-1
362.769	1	5
362.940	1	-2
363.111	1	-8
363.282	1	8
363.453	1	3
363.624	1	9
363.795	1	5
363.966	1	1
364.137	1	7
364.308	1	2
364.478	1	-1
364.649	1	4
364.820	1	-6
364.991	1	4
365.162	1	1
365.333	1	6
365.504	1	4
365.675	1	-10
365.846	1	1
366.017	1	3
366.188	1	-1
366.359	1	-6
366.530	1	7
366.701	1	3
366.871	1	0
367.042	1	8
367.213	1	14
367.384	1	6
367.555	1	-6
367.726	1	-3
367.897	1	2
368.068	1	3
368.239	1	3
368.410	1	13
368.581	1	-10
368.752	1	-8
368.923	1	-10
369.093	1	3
369.264	1	-8
369.435	1	3
369.606	1	-3
369.777	1	-2
369.948	1	5
370.119	1	-5
370.290	1	-7
370.461	1	17
370.632	1	8
370.803	1	-4
370.973	1	5
371.144	1	-9
371.315	1	0
371.486	1	6
371.657	1	13
371.828	1	1
371.999	1	-2
372.170	1	6
372.341	1	9
372.512	1	-3
372.682	1	1
372.853	1	9
373.024	1	-2
373.195	1	-6
373.366	1	13
373.537	1	8
373.708	1	4
373.879	1	3
374.050	1	2
374.220	1	14
374.391	1	-7
374.562	1	3
374.733	1	-3
374.904	1	1
375.075	1	1
375.246	1	7
375.417	1	-1
375.588	1	7
375.758	1	10
375.929	1	3
376.100	1	11
376.271	1	9
376.442	1	-4
376.613	1	1
376.784	1	-4
376.955	1	-10
377.125	1	-7
377.296	1	-4
377.467	1	3
377.638	1	-4
377.809	1	2
377.980	1	8
378.151	1	10
378.321	1	-3
378.492	1	-3
378.663	1	-1
378.834	1	-2
379.005	1	12
379.176	1	-10
379.347	1	5
379.518	1	-12
379.688	1	10
379.859	1	-6
380.030	1	7
380.201	1	-7
380.372	1	2
380.543	1	5
380.714	1	4
380.884	1	-3
381.055	1	7
381.226	1	5
381.397	1	2
381.568	1	0
381.739	1	7
381.910	1	-4
382.080	1	5
382.251	1	-9
382.422	1	-1
382.593	1	-7
382.764	1	-4
382.935	1	-5
383.105	1	-4
383.276	1	8
383.447	1	4
383.618	1	6
383.789	1	-7
383.960	1	5
384.130	1	-6
384.301	1	-6
384.472	1	-9
384.643	1	6
384.814	1	10
384.985	1	8
385.156	1	6
385.326	1	10
385.497	1	2
385.668	1	8
385.839	1	0
386.010	1	3
386.180	1	3
386.351	1	3
386.522	1	5
386.693	1	-15
386.864	1	0
387.035	1	7
387.205	1	-2
387.376	1	3
387.547	1	-9
387.718	1	-2
387.889	1	-3
388.060	1	13
388.230	1	10
388.401	1	-4
388.572	1	0
388.743	1	5
388.914	1	-1
389.084	1	2
389.255	1	-2
389.426	1	-1
389.597	1	7
389.768	1	2
389.939	1	1
390.109	1	1
390.280	1	3
390.451	1	-1
390.622	1	-9
390.793	1	5
390.963	1	-1
391.134	1	10
391.305	1	13
391.476	1	-9
391.647	1	-4
391.817	1	10
391.988	1	9
392.159	1	2
392.330	1	11
392.501	1	0
392.671	1	2
392.842	1	2
393.013	1	0
393.184	1	5
393.355	1	2
393.525	1	-1
393.696	1	5
393.867	1	-6
394.038	1	7
394.208	1	-2
394.379	1	7
394.550	1	3
394.721	1	0
394.892	1	6
395.062	1	3
395.233	1	2
395.404	1	-12
395.575	1	-3
395.746	1	8
395.916	1	9
396.087	1	5
396.258	1	5
396.429	1	6
396.599	1	-1
396.770	1	3
396.941	1	0
397.112	1	8
397.283	1	-5
397.453	1	14
397.624	1	7
397.795	1	11
397.966	1	2
398.136	1	-2
398.307	1	-5
398.478	1	6
398.649	1	-7
398.819	1	1
398.990	1	-3
399.161	1	8
399.332	1	11
399.503	1	7
399.673	1	5
399.844	1	-2
400.015	1	-5
400.186	1	-5
400.356	1	-11
400.527	1	-5
400.698	1	2
400.869	1	-2
401.039	1	16
401.210	1	8
401.381	1	-2
401.552	1	-9
401.722	1	3
401.893	1	-1
402.064	1	3
402.235	1	-1
402.405	1	5
402.576	1	4
402.747	1	-5
402.918	1	10
403.088	1	5
403.259	1	9
403.430	1	0
403.601	1	5
403.771	1	-2
403.942	1	15
404.113	1	4
404.284	1	7
404.454	1	4
404.625	1	4
404.796	1	3
404.967	1	4
405.137	1	10
405.308	1	6
405.479	1	2
405.649	1	0
405.820	1	-9
405.991	1	3
406.162	1	2
406.332	1	4
406.503	1	1
406.674	1	1
406.845	1	12
407.015	1	8
407.186	1	4
407.357	1	-2
407.527	1	-4
407.698	1	5
407.869	1	0
408.040	1	-5
408.210	1	-1
408.381	1	7
408.552	1	-1
408.722	1	-13
408.893	1	3
409.064	1	4
409.235	1	3
409.405	1	2
409.576	1	3
409.747	1	-3
409.917	1	-3
410.088	1	9
410.259	1	4
410.430	1	10
410.600	1	0
410.771	1	-4
410.942	1	6
411.112	1	5
411.283	1	6
411.454	1	-2
411.625	1	4
411.795	1	-2
411.966	1	-3
412.137	1	10
412.307	1	10
412.478	1	18
412.649	1	-3
412.819	1	2
412.990	1	2
413.161	1	-10
413.332	1	2
413.502	1	1
413.673	1	10
413.844	1	8
414.014	1	3
414.185	1	12
414.356	1	0
414.526	1	-6
414.697	1	5
414.868	1	8
415.038	1	10
415.209	1	-5
415.380	1	7
415.550	1	-1
415.721	1	6
415.892	1	1
416.063	1	4
416.233	1	14
416.404	1	-3
416.575	1	8
416.745	1	0
416.916	1	-2
417.087	1	-5
417.257	1	-1
417.428	1	15
417.599	1	4
417.769	1	14
417.940	1	12
418.111	1	-3
418.281	1	10
418.452	1	-5
418.623	1	0
418.793	1	7
418.964	1	-17
419.135	1	-9
419.305	1	6
419.476	1	8
419.647	1	1
419.817	1	8
419.988	1	1
420.159	1	9
420.329	1	1
420.500	1	2
420.671	1	13
420.841	1	16
421.012	1	4
421.183	1	7
421.353	1	-2
421.524	1	0
421.695	1	3
421.865	1	0
422.036	1	5
422.206	1	4
422.377	1	2
422.548	1	-13
422.718	1	5
422.889	1	-5
423.060	1	3
423.230	1	1
423.401	1	0
423.572	1	4
423.742	1	-3
423.913	1	4
424.084	1	3
424.254	1	15
424.425	1	-2
424.595	1	2
424.766	1	1
424.937	1	10
425.107	1	1
425.278	1	9
425.449	1	0
425.619	1	-2
425.790	1	-5
425.961	1	9
426.131	1	4
426.302	1	-4
426.472	1	4
426.643	1	11
426.814	1	-4
426.984	1	6
427.155	1	-2
427.326	1	9
427.496	1	1
427.667	1	7
427.837	1	-4
428.008	1	8
428.179	1	-3
428.349	1	-4
428.520	1	6
428.691	1	12
428.861	1	-3
429.032	1	-2
429.202	1	-1
429.373	1	9
429.544	1	3
429.714	1	-1
429.885	1	4
430.055	1	10
430.226	1	-3
430.397	1	-1
430.567	1	14
430.738	1	4
430.909	1	2
431.079	1	-3
431.250	1	0
431.420	1	-5
431.591	1	5
431.762	1	2
431.932	1	-8
432.103	1	6
432.273	1	0
432.444	1	10
432.615	1	-7
432.785	1	3
432.956	1	-2
433.126	1	-6
433.297	1	1
433.468	1	-9
433.638	1	1
433.809	1	8
433.979	1	0
434.150	1	11
434.320	1	6
434.491	1	-6
434.662	1	5
434.832	1	11
435.003	1	0
435.173	1	-7
435.344	1	5
435.515	1	4
435.685	1	2
435.856	1	-1
436.026	1	10
436.197	1	-3
436.368	1	3
436.538	1	-2
436.709	1	2
436.879	1	-13
437.050	1	2
437.220	1	4
437.391	1	9
437.562	1	2
437.732	1	-4
437.903	1	5
438.073	1	4
438.244	1	1
438.414	1	-5
438.585	1	7
438.756	1	-8
438.926	1	-5
439.097	1	-12
439.267	1	3
439.438	1	-2
439.608	1	-14
439.779	1	-2
439.949	1	5
440.120	1	-2
440.291	1	11
440.461	1	4
440.632	1	-4
440.802	1	-3
440.973	1	-1
441.143	1	6
441.314	1	-1
441.485	1	2
441.655	1	1
441.826	1	2
441.996	1	11
442.167	1	8
442.337	1	6
442.508	1	-2
442.678	1	-4
442.849	1	9
443.019	1	0
443.190	1	-4
443.361	1	4
443.531	1	8
443.702	1	-5
443.872	1	4
444.043	1	9
444.213	1	14
444.384	1	-8
444.554	1	6
444.725	1	0
444.895	1	-2
445.066	1	-10
445.237	1	1
445.407	1	8
445.578	1	-6
445.748	1	-3
445.919	1	-4
446.089	1	14
446.260	1	-8
446.430	1	-6
446.601	1	0
446.771	1	10
446.942	1	3
447.112	1	-1
447.283	1	4
447.453	1	-3
447.624	1	2
447.794	1	0
447.965	1	-9
448.135	1	7
448.306	1	0
448.477	1	8
448.647	1	-8
448.818	1	10
448.988	1	-7
449.159	1	0
449.329	1	-4
449.500	1	-5
449.670	1	5
449.841	1	8
450.011	1	8
450.182	1	5
450.352	1	-7
450.523	1	-4
450.693	1	-2
450.864	1	3
451.034	1	-4
451.205	1	8
451.375	1	8
451.546	1	3
451.716	1	-4
451.887	1	-6
452.057	1	6
452.228	1	-5
452.398	1	-2
452.569	1	3
452.739	1	7
452.910	1	2
453.080	1	0
453.251	1	-2
453.421	1	-4
453.592	1	10
453.762	1	7
453.933	1	-4
454.103	1	2
454.274	1	-9
454.444	1	-15
454.615	1	7
454.785	1	0
454.956	1	7
455.126	1	-6
455.297	1	8
455.467	1	7
455.638	1	7
455.808	1	-7
455.979	1	-1
456.149	1	-3
456.320	1	-7
456.490	1	6
456.661	1	11
456.831	1	5
457.001	1	-5
457.172	1	-1
457.342	1	5
457.513	1	7
457.683	1	-1
457.854	1	1
458.024	1	2
458.195	1	2
458.365	1	-7
458.536	1	5
458.706	1	-2
458.877	1	1
459.047	1	7
459.218	1	10
459.388	1	12
459.559	1	10
459.729	1	8
459.899	1	6
460.070	1	-7
460.240	1	-1
460.411	1	-12
460.581	1	21
460.752	1	-5
460.922	1	6
461.093	1	6
461.263	1	-3
461.434	1	0
461.604	1	1
461.775	1	0
461.945	1	0
462.115	1	5
462.286	1	-11
462.456	1	-8
462.627	1	7
462.797	1	-6
462.968	1	5
463.138	1	-2
463.309	1	0
463.479	1	-5
463.649	1	6
463.820	1	-2
463.990	1	2
464.161	1	-3
464.331	1	-4
464.502	1	4
464.672	1	8
464.843	1	3
465.013	1	-1
465.183	1	-5
465.354	1	-1
465.524	1	-8
465.695	1	1
465.865	1	-2
466.036	1	6
466.206	1	14
466.376	1	-1
466.547	1	-6
466.717	1	4
466.888	1	4
467.058	1	2
467.229	1	0
467.399	1	4
467.569	1	11
467.740	1	-1
467.910	1	4
468.081	1	2
468.251	1	-1
468.422	1	-1
468.592	1	8
468.762	1	1
468.933	1	6
469.103	1	-6
469.274	1	10
469.444	1	-9
469.614	1	-5
469.785	1	-2
469.955	1	-3
470.126	1	-9
470.296	1	0
470.467	1	6
470.637	1	1
470.807	1	0
470.978	1	2
471.148	1	5
471.319	1	2
471.489	1	3
471.659	1	-4
471.830	1	-2
472.000	1	-6
472.171	1	1
472.341	1	1
472.511	1	3
472.682	1	5
472.852	1	-6
473.023	1	6
473.193	1	8
473.363	1	3
473.534	1	8
473.704	1	-2
473.875	1	15
474.045	1	-10
474.215	1	1
474.386	1	12
474.556	1	-3
474.727	1	0
474.897	1	4
475.067	1	-1
475.238	1	0
475.408	1	7
475.578	1	-10
475.749	1	-6
475.919	1	-1
476.090	1	4
476.260	1	2
476.430	1	4
476.601	1	9
476.771	1	-1
476.942	1	5
477.112	1	2
477.282	1	1
477.453	1	1
477.623	1	-2
477.793	1	3
477.964	1	-10
478.134	1	-9
478.305	1	-1
478.475	1	2
478.645	1	6
478.816	1	6
478.986	1	4
479.156	1	-2
479.327	1	-7
479.497	1	8
479.667	1	-4
479.838	1	-7
480.008	1	-3
480.179	1	-6
480.349	1	-2
480.519	1	6
480.690	1	-3
480.860	1	-1
481.030	1	-7
481.201	1	1
481.371	1	0
481.541	1	3
481.712	1	2
481.882	1	4
482.053	1	11
482.223	1	-2
482.393	1	3
482.564	1	6
482.734	1	-11
482.904	1	-9
483.075	1	1
483.245	1	3
483.415	1	5
483.586	1	4
483.756	1	18
483.926	1	4
484.097	1	-2
484.267	1	-4
484.437	1	-9
484.608	1	8
484.778	1	2
484.948	1	-5
485.119	1	-5
485.289	1	4
485.459	1	15
485.630	1	3
485.800	1	8
485.970	1	-3
486.141	1	-1
486.311	1	4
486.481	1	1
486.652	1	5
486.822	1	9
486.992	1	11
487.163	1	8
487.333	1	-8
487.503	1	-4
487.674	1	0
487.844	1	8
488.014	1	4
488.185	1	8
488.355	1	3
488.525	1	-1
488.696	1	2
488.866	1	-2
489.036	1	11
489.207	1	-2
489.377	1	-12
489.547	1	3
489.718	1	1
489.888	1	4
490.058	1	2
490.228	1	8
490.399	1	1
490.569	1	18
490.739	1	-3
490.910	1	-4
491.080	1	13
491.250	1	-1
491.421	1	-2
491.591	1	-8
491.761	1	3
491.932	1	-3
492.102	1	-4
492.272	1	3
492.442	1	11
492.613	1	-16
492.783	1	4
492.953	1	-3
493.124	1	3
493.294	1	-1
493.464	1	16
493.635	1	-3
493.805	1	6
493.975	1	-6
494.145	1	-3
494.316	1	4
494.486	1	4
494.656	1	-3
494.827	1	8
494.997	1	6
495.167	1	4
495.337	1	9
495.508	1	7
495.678	1	5
495.848	1	9
496.019	1	0
496.189	1	6
496.359	1	-8
496.529	1	-8
496.700	1	3
496.870	1	-3
497.040	1	4
497.211	1	2
497.381	1	-1
497.551	1	13
497.721	1	-11
497.892	1	1
498.062	1	-11
498.232	1	-5
498.403	1	0
498.573	1	-6
498.743	1	-1
498.913	1	10
499.084	1	-2
499.254	1	9
499.424	1	6
499.594	1	2
499.765	1	-1
499.935	1	-6
500.105	1	1
500.275	1	0
500.446	1	-5
500.616	1	-2
500.786	1	-1
500.956	1	4
501.127	1	1
501.297	1	-7
501.467	1	-4
501.638	1	-2
501.808	1	6
501.978	1	3
502.148	1	3
502.319	1	-9
502.489	1	3
502.659	1	5
502.829	1	1
503.000	1	0
503.170	1	2
503.340	1	11
503.510	1	0
503.681	1	-7
503.851	1	-5
504.021	1	5
504.191	1	8
504.362	1	-2
504.532	1	-1
504.702	1	-14
504.872	1	-4
505.042	1	-2
505.213	1	5
505.383	1	0
505.553	1	2
505.723	1	3
505.894	1	-3
506.064	1	12
506.234	1	2
506.404	1	5
506.575	1	1
506.745	1	7
506.915	1	6
507.085	1	-1
507.256	1	1
507.426	1	6
507.596	1	-1
507.766	1	7
507.936	1	6
508.107	1	1
508.277	1	-9
508.447	1	9
508.617	1	3
508.788	1	18
508.958	1	-3
509.128	1	1
509.298	1	4
509.468	1	7
509.639	1	-5
509.809	1	-1
509.979	1	1
510.149	1	-1
510.319	1	3
510.490	1	4
510.660	1	-6
510.830	1	7
511.000	1	4
511.171	1	1
511.341	1	1
511.511	1	-1
511.681	1	6
511.851	1	2
512.022	1	-8
512.192	1	5
512.362	1	-1
512.532	1	-6
512.702	1	-8
512.873	1	3
513.043	1	4
513.213	1	-2
513.383	1	-12
513.553	1	-15
513.724	1	0
513.894	1	-7
514.064	1	14
514.234	1	4
514.404	1	0
514.575	1	12
514.745	1	-2
514.915	1	0
515.085	1	-4
515.255	1	2
515.425	1	8
515.596	1	7
515.766	1	-4
515.936	1	3
516.106	1	-3
516.276	1	-6
516.447	1	12
516.617	1	6
516.787	1	2
516.957	1	-1
517.127	1	2
517.297	1	-5
517.468	1	4
517.638	1	9
517.808	1	6
517.978	1	2
518.148	1	1
518.319	1	0
518.489	1	3
518.659	1	-4
518.829	1	2
518.999	1	1
519.169	1	7
519.340	1	9
519.510	1	2
519.680	1	5
519.850	1	7
520.020	1	-2
520.190	1	-8
520.361	1	0
520.531	1	-5
520.701	1	-4
520.871	1	2
521.041	1	16
521.211	1	-7
521.382	1	-4
521.552	1	1
521.722	1	-2
521.892	1	6
522.062	1	2
522.232	1	0
522.402	1	-2
522.573	1	4
522.743	1	2
522.913	1	8
523.083	1	5
523.253	1	-3
523.423	1	4
523.593	1	6
523.764	1	2
523.934	1	-9
524.104	1	-4
524.274	1	-10
524.444	1	1
524.614	1	-4
524.784	1	2
524.955	1	-5
525.125	1	2
525.295	1	-2
525.465	1	7
525.635	1	-8
525.805	1	-8
525.975	1	-4
526.146	1	0
526.316	1	4
526.486	1	2
526.656	1	-2
526.826	1	1
526.996	1	3
527.166	1	-1
527.337	1	-7
527.507	1	-1
527.677	1	-5
527.847	1	0
528.017	1	-17
528.187	1	1
528.357	1	-2
528.527	1	4
528.698	1	-3
528.868	1	5
529.038	1	10
529.208	1	-6
529.378	1	4
529.548	1	2
529.718	1	6
529.888	1	9
530.058	1	2
530.229	1	3
530.399	1	12
530.569	1	-6
530.739	1	1
530.909	1	1
531.079	1	3
531.249	1	-3
531.419	1	-4
531.589	1	8
531.760	1	0
531.930	1	6
532.100	1	3
532.270	1	-4
532.440	1	-3
532.610	1	-10
532.780	1	-3
532.950	1	2
533.120	1	2
533.290	1	2
533.461	1	1
533.631	1	0
533.801	1	13
533.971	1	-6
534.141	1	-7
534.311	1	1
534.481	1	-7
534.651	1	3
534.821	1	6
534.991	1	0
535.162	1	-2
535.332	1	-4
535.502	1	-12
535.672	1	15
535.842	1	10
536.012	1	3
536.182	1	-4
536.352	1	-5
536.522	1	-4
536.692	1	4
536.862	1	7
537.032	1	7
537.203	1	-7
537.373	1	1
537.543	1	6
537.713	1	5
537.883	1	-2
538.053	1	2
538.223	1	0
538.393	1	9
538.563	1	8
538.733	1	7
538.903	1	-3
539.073	1	5
539.243	1	6
539.413	1	2
539.584	1	-8
539.754	1	8
539.924	1	11
540.094	1	6
540.264	1	-6
540.434	1	7
540.604	1	3
540.774	1	11
540.944	1	0
541.114	1	-1
541.284	1	3
541.454	1	-5
541.624	1	12
541.794	1	-7
541.964	1	13
542.134	1	8
542.305	1	3
542.475	1	13
542.645	1	5
542.815	1	3
542.985	1	1
543.155	1	6
543.325	1	4
543.495	1	0
543.665	1	9
543.835	1	9
544.005	1	9
544.175	1	-5
544.345	1	5
544.515	1	4
544.685	1	-8
544.855	1	7
545.025	1	1
545.195	1	-11
545.365	1	-3
545.535	1	7
545.705	1	8
545.875	1	-14
546.045	1	-3
546.216	1	12
546.386	1	0
546.556	1	-15
546.726	1	-3
546.896	1	1
547.066	1	5
547.236	1	1
547.406	1	5
547.576	1	4
547.746	1	-14
547.916	1	-1
548.086	1	4
548.256	1	1
548.426	1	-9
548.596	1	0
548.766	1	-1
548.936	1	3
549.106	1	3
549.276	1	-2
549.446	1	-3
549.616	1	-5
549.786	1	-6
549.956	1	11
550.126	1	1
550.296	1	2
550.466	1	-1
550.636	1	12
550.806	1	-6
550.976	1	1
551.146	1	-1
551.316	1	3
551.486	1	-1
551.656	1	11
551.826	1	4
551.996	1	16
552.166	1	-5
552.336	1	0
552.506	1	15
552.676	1	11
552.846	1	-6
553.016	1	3
553.186	1	6
553.356	1	-4
553.526	1	1
553.696	1	12
553.866	1	7
554.036	1	3
554.206	1	-2
554.376	1	10
554.546	1	2
554.716	1	1
554.886	1	0
555.056	1	6
555.226	1	-5
555.396	1	-2
555.566	1	5
555.736	1	-4
555.906	1	8
556.076	1	3
556.246	1	4
556.416	1	-12
556.586	1	-7
556.756	1	6
556.926	1	8
557.096	1	-2
557.266	1	-1
557.436	1	-1
557.606	1	6
557.776	1	-2
557.946	1	12
558.116	1	-1
558.286	1	-1
558.456	1	-7
558.626	1	15
558.796	1	-1
558.966	1	3
559.136	1	0
559.306	1	-1
559.476	1	0
559.646	1	-10
559.816	1	2
559.986	1	-6
560.155	1	2
560.325	1	-3
560.495	1	6
560.665	1	2
560.835	1	-1
561.005	1	-11
561.175	1	2
561.345	1	2
561.515	1	-10
561.685	1	0
561.855	1	-10
562.025	1	8
562.195	1	2
562.365	1	5
562.535	1	-6
562.705	1	0
562.875	1	4
563.045	1	-4
563.215	1	7
563.385	1	-17
563.555	1	-5
563.725	1	4
563.895	1	3
564.064	1	11
564.234	1	1
564.404	1	-4
564.574	1	5
564.744	1	3
564.914	1	-1
565.084	1	4
565.254	1	5
565.424	1	9
565.594	1	4
565.764	1	8
565.934	1	5
566.104	1	4
566.274	1	-5
566.444	1	-10
566.614	1	2
566.783	1	1
566.953	1	5
567.123	1	6
567.293	1	15
567.463	1	7
567.633	1	9
567.803	1	-8
567.973	1	-8
568.143	1	1
568.313	1	0
568.483	1	4
568.653	1	-3
568.823	1	2
568.993	1	2
569.162	1	6
569.332	1	-8
569.502	1	2
569.672	1	3
569.842	1	4
570.012	1	2
570.182	1	-1
570.352	1	-8
570.522	1	-13
570.692	1	7
570.862	1	-4
571.031	1	3
571.201	1	9
571.371	1	-1
571.541	1	5
571.711	1	5
571.881	1	15
572.051	1	-7
572.221	1	-1
572.391	1	-9
572.561	1	-2
572.731	1	7
572.900	1	0
573.070	1	1
573.240	1	10
573.410	1	7
573.580	1	2
573.750	1	-2
573.920	1	-1
574.090	1	-6
574.260	1	10
574.430	1	0
574.599	1	-1
574.769	1	2
574.939	1	4
575.109	1	2
575.279	1	2
575.449	1	-6
575.619	1	14
575.789	1	-2
575.959	1	-2
576.128	1	-7
576.298	1	8
576.468	1	0
576.638	1	-3
576.808	1	0
576.978	1	6
577.148	1	2
577.318	1	3
577.487	1	2
577.657	1	4
577.827	1	-8
577.997	1	-3
578.167	1	5
578.337	1	13
578.507	1	1
578.677	1	6
578.846	1	8
579.016	1	15
579.186	1	0
579.356	1	-9
579.526	1	-1
579.696	1	7
579.866	1	1
580.036	1	5
580.205	1	1
580.375	1	10
580.545	1	-7
580.715	1	4
580.885	1	7
581.055	1	-3
581.225	1	-4
581.394	1	-1
581.564	1	9
581.734	1	-11
581.904	1	8
582.074	1	-2
582.244	1	-2
582.414	1	5
582.583	1	3
582.753	1	1
582.923	1	1
583.093	1	0
583.263	1	6
583.433	1	-2
583.603	1	6
583.772	1	2
583.942	1	1
584.112	1	-7
584.282	1	-7
584.452	1	0
584.622	1	-6
584.791	1	-9
584.961	1	10
585.131	1	8
585.301	1	-1
585.471	1	14
585.641	1	-9
585.811	1	1
585.980	1	7
586.150	1	5
586.320	1	-4
586.490	1	5
586.660	1	7
586.830	1	3
586.999	1	-5
587.169	1	3
587.339	1	0
587.509	1	-6
587.679	1	11
587.849	1	0
588.018	1	6
588.188	1	4
588.358	1	7
588.528	1	7
588.698	1	7
588.867	1	3
589.037	1	4
589.207	1	2
589.377	1	1
589.547	1	-4
589.717	1	0
589.886	1	-4
590.056	1	1
590.226	1	9
590.396	1	15
590.566	1	12
590.735	1	-6
590.905	1	-5
591.075	1	6
591.245	1	0
591.415	1	-5
591.585	1	8
591.754	1	1
591.924	1	5
592.094	1	-8
592.264	1	5
592.434	1	2
592.603	1	8
592.773	1	1
592.943	1	-1
593.113	1	3
593.283	1	3
593.452	1	-1
593.622	1	6
593.792	1	13
593.962	1	4
594.132	1	5
594.301	1	-4
594.471	1	14
594.641	1	-4
594.811	1	9
594.981	1	-1
595.150	1	-7
595.320	1	4
595.490	1	10
595.660	1	-2
595.829	1	2
595.999	1	-1
596.169	1	8
596.339	1	5
596.509	1	-8
596.678	1	-6
596.848	1	4
597.018	1	-5
597.188	1	7
597.358	1	5
597.527	1	-3
597.697	1	-2
597.867	1	-2
598.037	1	2
598.206	1	7
598.376	1	3
598.546	1	-3
598.716	1	4
598.885	1	-12
599.055	1	10
599.225	1	2
599.395	1	4
599.565	1	-9
599.734	1	2
599.904	1	-5
600.074	1	1
600.244	1	-3
600.413	1	6
600.583	1	9
600.753	1	7
600.923	1	4
601.092	1	10
601.262	1	3
601.432	1	-8
601.602	1	12
601.771	1	11
601.941	1	4
602.111	1	7
602.281	1	9
602.451	1	5
602.620	1	-2
602.790	1	9
602.960	1	3
603.130	1	5
603.299	1	2
603.469	1	-5
603.639	1	-5
603.809	1	8
603.978	1	4
604.148	1	8
604.318	1	-2
604.487	1	-3
604.657	1	6
604.827	1	9
604.997	1	2
605.166	1	0
605.336	1	5
605.506	1	3
605.676	1	-3
605.845	1	-4
606.015	1	-4
606.185	1	6
606.355	1	9
606.524	1	-3
606.694	1	-5
606.864	1	-3
607.034	1	-4
607.203	1	2
607.373	1	-2
607.543	1	2
607.712	1	-9
607.882	1	5
608.052	1	-6
608.222	1	9
608.391	1	3
608.561	1	-4
608.731	1	-3
608.901	1	1
609.070	1	6
609.240	1	-2
609.410	1	5
609.579	1	0
609.749	1	5
609.919	1	6
610.089	1	-2
610.258	1	2
610.428	1	1
610.598	1	-8
610.767	1	4
610.937	1	-5
611.107	1	4
611.277	1	-3
611.446	1	9
611.616	1	4
611.786	1	16
611.955	1	-4
612.125	1	-3
612.295	1	1
612.465	1	8
612.634	1	3
612.804	1	0
612.974	1	-8
613.143	1	4
613.313	1	2
613.483	1	2
613.652	1	4
613.822	1	-4
613.992	1	-1
614.162	1	4
614.331	1	2
614.501	1	-7
614.671	1	4
614.840	1	-2
615.010	1	3
615.180	1	-4
615.349	1	6
615.519	1	-8
615.689	1	15
615.858	1	-1
616.028	1	-6
616.198	1	8
616.368	1	6
616.537	1	-3
616.707	1	-2
616.877	1	5
617.046	1	7
617.216	1	-4
617.386	1	4
617.555	1	-2
617.725	1	0
617.895	1	-4
618.064	1	0
618.234	1	-3
618.404	1	-3
618.573	1	-1
618.743	1	8
618.913	1	6
619.082	1	3
619.252	1	-7
619.422	1	-11
619.591	1	-4
619.761	1	3
619.931	1	0
620.100	1	13
620.270	1	-3
620.440	1	5
620.609	1	1
620.779	1	-3
620.949	1	-4
621.118	1	0
621.288	1	3
621.458	1	-2
621.627	1	8
621.797	1	4
621.967	1	-2
622.136	1	9
622.306	1	-8
622.476	1	9
622.645	1	15
622.815	1	6
622.985	1	-4
623.154	1	12
623.324	1	-4
623.494	1	16
623.663	1	-6
623.833	1	6
624.002	1	-6
624.172	1	5
624.342	1	10
624.511	1	-1
624.681	1	4
624.851	1	-2
625.020	1	4
625.190	1	5
625.360	1	5
625.529	1	-3
625.699	1	-13
625.869	1	11
626.038	1	-1
626.208	1	4
626.377	1	2
626.547	1	0
626.717	1	1
626.886	1	12
627.056	1	-8
627.226	1	1
627.395	1	0
627.565	1	3
627.735	1	5
627.904	1	2
628.074	1	6
628.243	1	3
628.413	1	2
628.583	1	2
628.752	1	7
628.922	1	4
629.091	1	3
629.261	1	1
629.431	1	-7
629.600	1	6
629.770	1	-12
629.940	1	4
630.109	1	-7
630.279	1	2
630.448	1	-1
630.618	1	-2
630.788	1	11
630.957	1	3
631.127	1	-2
631.297	1	-8
631.466	1	3
631.636	1	-8
631.805	1	2
631.975	1	12
632.145	1	-3
632.314	1	2
632.484	1	9
632.653	1	-4
632.823	1	11
632.993	1	2
633.162	1	-2
633.332	1	0
633.501	1	-4
633.671	1	-3
633.841	1	-7
634.010	1	-3
634.180	1	10
634.349	1	13
634.519	1	-3
634.689	1	6
634.858	1	-6
635.028	1	-2
635.197	1	6
635.367	1	5
635.537	1	1
635.706	1	1
635.876	1	3
636.045	1	12
636.215	1	-3
636.384	1	-4
636.554	1	10
636.724	1	2
636.893	1	-2
637.063	1	-9
637.232	1	-2
637.402	1	-3
637.572	1	3
637.741	1	8
637.911	1	-2
638.080	1	4
638.250	1	6
638.419	1	-1
638.589	1	-3
638.759	1	-11
638.928	1	-2
639.098	1	4
639.267	1	4
639.437	1	5
639.606	1	7
639.776	1	-1
639.946	1	9
640.115	1	3
640.285	1	4
640.454	1	0
640.624	1	6
640.793	1	11
640.963	1	-9
641.132	1	-1
641.302	1	7
641.472	1	2
641.641	1	-17
641.811	1	-2
641.980	1	8
642.150	1	-9
642.319	1	-2
642.489	1	9
642.659	1	4
642.828	1	4
642.998	1	2
643.167	1	-7
643.337	1	1
643.506	1	-8
643.676	1	0
643.845	1	-4
644.015	1	3
644.184	1	-2
644.354	1	8
644.524	1	0
644.693	1	10
644.863	1	-11
645.032	1	-1
645.202	1	-3
645.371	1	1
645.541	1	7
645.710	1	4
645.880	1	4
646.049	1	3
646.219	1	1
646.388	1	1
646.558	1	-6
646.728	1	-5
646.897	1	5
647.067	1	6
647.236	1	6
647.406	1	-7
647.575	1	1
647.745	1	0
647.914	1	-4
648.084	1	-3
648.253	1	12
648.423	1	-12
648.592	1	-2
648.762	1	2
648.931	1	12
649.101	1	6
649.270	1	9
649.440	1	6
649.610	1	-2
649.779	1	7
649.949	1	-1
650.118	1	1
650.288	1	2
650.457	1	12
650.627	1	5
650.796	1	-7
650.966	1	3
651.135	1	-13
651.305	1	8
651.474	1	-1
651.644	1	5
651.813	1	-1
651.983	1	7
652.152	1	1
652.322	1	-3
652.491	1	2
652.661	1	1
652.830	1	2
653.000	1	1
653.169	1	-4
653.339	1	9
653.508	1	-6
653.678	1	3
653.847	1	6
654.017	1	6
654.186	1	-2
654.356	1	2
654.525	1	17
654.695	1	10
654.864	1	-5
655.034	1	5
655.203	1	-6
655.373	1	12
655.542	1	5
655.712	1	3
655.881	1	-4
656.051	1	5
656.220	1	-1
656.390	1	-7
656.559	1	2
656.729	1	7
656.898	1	-2
657.068	1	0
657.237	1	-8
657.406	1	7
657.576	1	4
657.745	1	2
657.915	1	2
658.084	1	-2
658.254	1	-7
658.423	1	7
658.593	1	7
658.762	1	-2
658.932	1	-1
659.101	1	14
659.271	1	7
659.440	1	9
659.610	1	-8
659.779	1	1
659.949	1	3
660.118	1	1
660.288	1	3
660.457	1	10
660.626	1	6
660.796	1	-12
660.965	1	8
661.135	1	4
661.304	1	-2
661.474	1	-1
661.643	1	9
661.813	1	6
661.982	1	9
662.152	1	7
662.321	1	9
662.491	1	-1
662.660	1	5
662.829	1	-7
662.999	1	-4
663.168	1	0
663.338	1	13
663.507	1	10
663.677	1	-2
663.846	1	-7
664.016	1	4
664.185	1	8
664.354	1	7
664.524	1	9
664.693	1	10
664.863	1	-2
665.032	1	4
665.202	1	-1
665.371	1	-2
665.541	1	-10
665.710	1	2
665.879	1	-1
666.049	1	6
666.218	1	-5
666.388	1	5
666.557	1	-6
666.727	1	-8
666.896	1	-2
667.065	1	10
667.235	1	4
667.404	1	-6
667.574	1	3
667.743	1	-4
667.913	1	-5
668.082	1	8
668.251	1	-4
668.421	1	0
668.590	1	-2
668.760	1	5
668.929	1	-10
669.099	1	3
669.268	1	-4
669.437	1	10
669.607	1	0
669.776	1	-2
669.946	1	0
670.115	1	4
670.285	1	5
670.454	1	4
670.623	1	-2
670.793	1	6
670.962	1	2
671.132	1	14
671.301	1	0
671.470	1	-3
671.640	1	-1
671.809	1	-5
671.979	1	1
672.148	1	2
672.317	1	2
672.487	1	6
672.656	1	3
672.826	1	-3
672.995	1	8
673.164	1	3
673.334	1	-4
673.503	1	-3
673.673	1	3
673.842	1	-5
674.011	1	1
674.181	1	9
674.350	1	6
674.520	1	-1
674.689	1	1
674.858	1	-1
675.028	1	1
675.197	1	-6
675.367	1	7
675.536	1	5
675.705	1	13
675.875	1	3
676.044	1	8
676.214	1	-2
676.383	1	8
676.552	1	5
676.722	1	12
676.891	1	8
677.060	1	-5
677.230	1	0
677.399	1	-3
677.569	1	-3
677.738	1	5
677.907	1	-1
678.077	1	11
678.246	1	-6
678.416	1	4
678.585	1	-4
678.754	1	-5
678.924	1	2
679.093	1	12
679.262	1	-4
679.432	1	3
679.601	1	-2
679.771	1	-1
679.940	1	-7
680.109	1	9
680.279	1	1
680.448	1	9
680.617	1	5
680.787	1	-7
680.956	1	12
681.125	1	1
681.295	1	1
681.464	1	6
681.634	1	2
681.803	1	-3
681.972	1	-18
682.142	1	13
682.311	1	12
682.480	1	17
682.650	1	0
682.819	1	2
682.988	1	5
683.158	1	-5
683.327	1	4
683.496	1	4
683.666	1	-1
683.835	1	5
684.004	1	8
684.174	1	-5
684.343	1	-8
684.512	1	7
684.682	1	-11
684.851	1	0
685.021	1	-9
685.190	1	-2
685.359	1	11
685.529	1	1
685.698	1	6
685.867	1	-5
686.037	1	-3
686.206	1	-7
686.375	1	10
686.545	1	-7
686.714	1	-2
686.883	1	4
687.053	1	1
687.222	1	10
687.391	1	2
687.561	1	0
687.730	1	1
687.899	1	5
688.069	1	5
688.238	1	7
688.407	1	1
688.577	1	4
688.746	1	-1
