340.368	1	1
340.539	1	-11
340.710	1	-11
340.881	1	-7
341.052	1	16
341.223	1	0
341.394	1	-9
341.565	1	-1
341.737	1	-2
341.908	1	11
342.079	1	-3
342.250	1	0
342.421	1	5
342.592	1	4
342.763	1	6
342.934	1	-9
343.105	1	4
343.276	1	5
343.447	1	-3
343.618	1	9
343.789	1	7
343.960	1	-8
344.131	1	1
344.302	1	3
344.473	1	-2
344.644	1	4
344.815	1	3
344.986	1	0
345.157	1	-2
345.328	1	6
345.499	1	1
345.670	1	-13
345.841	1	8
346.012	1	16
346.183	1	-2
346.354	1	1
346.526	1	1
346.697	1	-1
346.868	1	4
347.039	1	11
347.210	1	-14
347.381	1	3
347.552	1	-2
347.723	1	0
347.894	1	1
348.065	1	4
348.236	1	9
348.407	1	5
348.578	1	3
348.749	1	-4
348.920	1	-1
349.091	1	-6
349.262	1	-6
349.433	1	-3
349.604	1	6
349.775	1	9
349.946	1	5
350.117	1	11
350.288	1	9
350.459	1	-1
350.630	1	9
350.801	1	-1
350.972	1	1
351.143	1	-1
351.314	1	2
351.485	1	18
351.656	1	10
351.827	1	4
351.998	1	13
352.169	1	5
352.340	1	0
352.511	1	-5
352.682	1	7
352.853	1	6
353.024	1	6
353.195	1	11
353.366	1	14
353.537	1	6
353.708	1	15
353.879	1	9
354.050	1	-1
354.221	1	-3
354.392	1	7
354.563	1	5
354.734	1	8
354.905	1	3
355.076	1	2
355.247	1	12
355.418	1	-10
355.589	1	-1
355.760	1	0
355.931	1	8
356.102	1	11
356.273	1	8
356.444	1	5
356.615	1	3
356.785	1	12
356.956	1	9
357.127	1	-5
357.298	1	15
357.469	1	7
357.640	1	8
357.811	1	15
357.982	1	6
358.153	1	11
358.324	1	11
358.495	1	9
358.666	1	1
358.837	1	-5
359.008	1	-2
359.179	1	7
359.350	1	5
359.521	1	8
359.692	1	21
359.863	1	13
360.034	1	8
360.205	1	-4
360.376	1	8
360.547	1	9
360.718	1	8
360.889	1	-2
361.060	1	7
361.231	1	19
361.401	1	17
361.572	1	16
361.743	1	12
361.914	1	11
362.085	1	16
362.256	1	17
362.427	1	21
362.598	1	15
362.769	1	8
362.940	1	18
363.111	1	23
363.282	1	24
363.453	1	8
363.624	1	32
363.795	1	21
363.966	1	17
364.137	1	29
364.308	1	24
364.478	1	21
364.649	1	29
364.820	1	35
364.991	1	23
365.162	1	35
365.333	1	22
365.504	1	44
365.675	1	28
365.846	1	39
366.017	1	44
366.188	1	39
366.359	1	44
366.530	1	48
366.701	1	42
366.871	1	42
367.042	1	44
367.213	1	53
367.384	1	52
367.555	1	46
367.726	1	53
367.897	1	51
368.068	1	41
368.239	1	54
368.410	1	66
368.581	1	44
368.752	1	44
368.923	1	50
369.093	1	44
369.264	1	59
369.435	1	66
369.606	1	55
369.777	1	47
369.948	1	57
370.119	1	51
370.290	1	46
370.461	1	61
370.632	1	52
370.803	1	51
370.973	1	55
371.144	1	49
371.315	1	49
371.486	1	52
371.657	1	53
371.828	1	57
371.999	1	49
372.170	1	45
372.341	1	40
372.512	1	31
372.682	1	47
372.853	1	53
373.024	1	45
373.195	1	37
373.366	1	40
373.537	1	43
373.708	1	46
373.879	1	29
374.050	1	39
374.220	1	51
374.391	1	40
374.562	1	49
374.733	1	37
374.904	1	29
375.075	1	32
375.246	1	35
375.417	1	35
375.588	1	38
375.758	1	26
375.929	1	39
376.100	1	32
376.271	1	41
376.442	1	35
376.613	1	27
376.784	1	24
376.955	1	29
377.125	1	30
377.296	1	26
377.467	1	31
377.638	1	36
377.809	1	37
377.980	1	37
378.151	1	31
378.321	1	21
378.492	1	21
378.663	1	11
378.834	1	24
379.005	1	34
379.176	1	19
379.347	1	29
379.518	1	20
379.688	1	22
379.859	1	23
380.030	1	16
380.201	1	13
380.372	1	21
380.543	1	13
380.714	1	25
380.884	1	16
381.055	1	23
381.226	1	-2
381.397	1	13
381.568	1	25
381.739	1	20
381.910	1	11
382.080	1	8
382.251	1	13
382.422	1	17
382.593	1	16
382.764	1	8
382.935	1	1
383.105	1	7
383.276	1	19
383.447	1	8
383.618	1	13
383.789	1	-1
383.960	1	7
384.130	1	15
384.301	1	10
384.472	1	12
384.643	1	23
384.814	1	9
384.985	1	8
385.156	1	9
385.326	1	24
385.497	1	18
385.668	1	7
385.839	1	13
386.010	1	8
386.180	1	6
386.351	1	6
386.522	1	18
386.693	1	-5
386.864	1	8
387.035	1	10
387.205	1	12
387.376	1	11
387.547	1	8
387.718	1	8
387.889	1	9
388.060	1	13
388.230	1	20
388.401	1	-2
388.572	1	-2
388.743	1	8
388.914	1	15
389.084	1	9
389.255	1	3
389.426	1	4
389.597	1	12
389.768	1	10
389.939	1	2
390.109	1	6
390.280	1	10
390.451	1	1
390.622	1	4
390.793	1	10
390.963	1	13
391.134	1	14
391.305	1	9
391.476	1	3
391.647	1	1
391.817	1	2
391.988	1	10
392.159	1	7
392.330	1	10
392.501	1	5
392.671	1	4
392.842	1	1
393.013	1	9
393.184	1	9
393.355	1	5
393.525	1	7
393.696	1	15
393.867	1	8
394.038	1	7
394.208	1	1
394.379	1	8
394.550	1	11
394.721	1	-3
394.892	1	9
395.062	1	3
395.233	1	2
395.404	1	-1
395.575	1	12
395.746	1	10
395.916	1	7
396.087	1	10
396.258	1	4
396.429	1	6
396.599	1	5
396.770	1	-5
396.941	1	2
397.112	1	10
397.283	1	2
397.453	1	16
397.624	1	4
397.795	1	6
397.966	1	11
398.136	1	1
398.307	1	8
398.478	1	9
398.649	1	-6
398.819	1	7
398.990	1	-3
399.161	1	12
399.332	1	-1
399.503	1	0
399.673	1	1
399.844	1	-4
400.015	1	11
400.186	1	-3
400.356	1	-3
400.527	1	9
400.698	1	1
400.869	1	-2
401.039	1	10
401.210	1	9
401.381	1	-6
401.552	1	-4
401.722	1	8
401.893	1	3
402.064	1	4
402.235	1	5
402.405	1	5
402.576	1	-1
402.747	1	1
402.918	1	2
403.088	1	8
403.259	1	3
403.430	1	-8
403.601	1	0
403.771	1	1
403.942	1	8
404.113	1	-1
404.284	1	3
404.454	1	4
404.625	1	14
404.796	1	-3
404.967	1	7
405.137	1	11
405.308	1	4
405.479	1	8
405.649	1	0
405.820	1	-9
405.991	1	2
406.162	1	8
406.332	1	6
406.503	1	-3
406.674	1	-4
406.845	1	8
407.015	1	14
407.186	1	8
407.357	1	-2
407.527	1	5
407.698	1	6
407.869	1	2
408.040	1	3
408.210	1	8
408.381	1	9
408.552	1	5
408.722	1	-8
408.893	1	6
409.064	1	1
409.235	1	-2
409.405	1	6
409.576	1	-1
409.747	1	-2
409.917	1	10
410.088	1	2
410.259	1	7
410.430	1	6
410.600	1	-6
410.771	1	4
410.942	1	15
411.112	1	-10
411.283	1	3
411.454	1	0
411.625	1	2
411.795	1	2
411.966	1	-4
412.137	1	2
412.307	1	2
412.478	1	18
412.649	1	-2
412.819	1	-1
412.990	1	12
413.161	1	-3
413.332	1	5
413.502	1	-4
413.673	1	5
413.844	1	4
414.014	1	0
414.185	1	7
414.356	1	5
414.526	1	-2
414.697	1	8
414.868	1	7
415.038	1	0
415.209	1	3
415.380	1	-5
415.550	1	3
415.721	1	4
415.892	1	7
416.063	1	8
416.233	1	2
416.404	1	-2
416.575	1	13
416.745	1	-6
416.916	1	-13
417.087	1	-1
417.257	1	-4
417.428	1	5
417.599	1	7
417.769	1	6
417.940	1	12
418.111	1	-2
418.281	1	6
418.452	1	-4
418.623	1	-1
418.793	1	-2
418.964	1	-11
419.135	1	-6
419.305	1	3
419.476	1	14
419.647	1	0
419.817	1	5
419.988	1	5
420.159	1	-2
420.329	1	3
420.500	1	-5
420.671	1	2
420.841	1	18
421.012	1	4
421.183	1	4
421.353	1	-4
421.524	1	-1
421.695	1	4
421.865	1	0
422.036	1	0
422.206	1	0
422.377	1	3
422.548	1	-3
422.718	1	4
422.889	1	-7
423.060	1	-5
423.230	1	1
423.401	1	14
423.572	1	-1
423.742	1	5
423.913	1	-5
424.084	1	4
424.254	1	5
424.425	1	1
424.595	1	-3
424.766	1	1
424.937	1	5
425.107	1	-1
425.278	1	16
425.449	1	5
425.619	1	1
425.790	1	0
425.961	1	-2
426.131	1	-1
426.302	1	9
426.472	1	1
426.643	1	18
426.814	1	10
426.984	1	7
427.155	1	1
427.326	1	0
427.496	1	-8
427.667	1	1
427.837	1	-1
428.008	1	-2
428.179	1	-7
428.349	1	-4
428.520	1	2
428.691	1	7
428.861	1	1
429.032	1	6
429.202	1	1
429.373	1	-2
429.544	1	4
429.714	1	2
429.885	1	6
430.055	1	0
430.226	1	-3
430.397	1	0
430.567	1	-5
430.738	1	7
430.909	1	7
431.079	1	2
431.250	1	1
431.420	1	-7
431.591	1	14
431.762	1	2
431.932	1	-1
432.103	1	6
432.273	1	-3
432.444	1	9
432.615	1	-6
432.785	1	-1
432.956	1	-11
433.126	1	-1
433.297	1	-3
433.468	1	-5
433.638	1	4
433.809	1	12
433.979	1	4
434.150	1	1
434.320	1	1
434.491	1	-4
434.662	1	-1
434.832	1	6
435.003	1	3
435.173	1	-4
435.344	1	0
435.515	1	7
435.685	1	-6
435.856	1	4
436.026	1	-2
436.197	1	3
436.368	1	-1
436.538	1	-1
436.709	1	-5
436.879	1	-7
437.050	1	-6
437.220	1	12
437.391	1	5
437.562	1	4
437.732	1	-5
437.903	1	-1
438.073	1	2
438.244	1	8
438.414	1	8
438.585	1	-9
438.756	1	1
438.926	1	2
439.097	1	-5
439.267	1	0
439.438	1	-7
439.608	1	-12
439.779	1	4
439.949	1	2
440.120	1	-3
440.291	1	6
440.461	1	5
440.632	1	-4
440.802	1	9
440.973	1	-13
441.143	1	9
441.314	1	-4
441.485	1	11
441.655	1	2
441.826	1	-9
441.996	1	7
442.167	1	8
442.337	1	0
442.508	1	-10
442.678	1	-7
442.849	1	5
443.019	1	9
443.190	1	6
443.361	1	3
443.531	1	1
443.702	1	4
443.872	1	6
444.043	1	10
444.213	1	1
444.384	1	-5
444.554	1	13
444.725	1	2
444.895	1	-1
445.066	1	-8
445.237	1	-2
445.407	1	5
445.578	1	-10
445.748	1	-10
445.919	1	-14
446.089	1	0
446.260	1	2
446.430	1	-3
446.601	1	7
446.771	1	11
446.942	1	-3
447.112	1	-1
447.283	1	-4
447.453	1	-11
447.624	1	0
447.794	1	2
447.965	1	7
448.135	1	7
448.306	1	-3
448.477	1	6
448.647	1	-6
448.818	1	3
448.988	1	2
449.159	1	0
449.329	1	-1
449.500	1	-2
449.670	1	15
449.841	1	6
450.011	1	4
450.182	1	3
450.352	1	-1
450.523	1	-14
450.693	1	-1
450.864	1	4
451.034	1	3
451.205	1	8
451.375	1	4
451.546	1	3
451.716	1	3
451.887	1	-5
452.057	1	-3
452.228	1	5
452.398	1	-10
452.569	1	-1
452.739	1	3
452.910	1	11
453.080	1	3
453.251	1	4
453.421	1	2
453.592	1	3
453.762	1	2
453.933	1	2
454.103	1	0
454.274	1	0
454.444	1	-5
454.615	1	4
454.785	1	-4
454.956	1	0
455.126	1	-6
455.297	1	13
455.467	1	5
455.638	1	-3
455.808	1	-8
455.979	1	4
456.149	1	6
456.320	1	0
456.490	1	1
456.661	1	10
456.831	1	6
457.001	1	-1
457.172	1	1
457.342	1	-1
457.513	1	1
457.683	1	-1
457.854	1	4
458.024	1	3
458.195	1	-6
458.365	1	-2
458.536	1	7
458.706	1	5
458.877	1	-1
459.047	1	7
459.218	1	-4
459.388	1	9
459.559	1	0
459.729	1	7
459.899	1	3
460.070	1	2
460.240	1	9
460.411	1	-2
460.581	1	2
460.752	1	2
460.922	1	5
461.093	1	-8
461.263	1	-8
461.434	1	0
461.604	1	-2
461.775	1	4
461.945	1	1
462.115	1	-1
462.286	1	-4
462.456	1	-2
462.627	1	13
462.797	1	0
462.968	1	5
463.138	1	-7
463.309	1	-7
463.479	1	1
463.649	1	-6
463.820	1	-4
463.990	1	-1
464.161	1	-6
464.331	1	1
464.502	1	5
464.672	1	2
464.843	1	-1
465.013	1	-2
465.183	1	-11
465.354	1	1
465.524	1	8
465.695	1	2
465.865	1	7
466.036	1	-2
466.206	1	10
466.376	1	-6
466.547	1	-1
466.717	1	4
466.888	1	5
467.058	1	-6
467.229	1	-1
467.399	1	8
467.569	1	3
467.740	1	2
467.910	1	11
468.081	1	4
468.251	1	-5
468.422	1	-3
468.592	1	-4
468.762	1	-8
468.933	1	-2
469.103	1	-6
469.274	1	6
469.444	1	-4
469.614	1	7
469.785	1	-6
469.955	1	1
470.126	1	-3
470.296	1	-5
470.467	1	0
470.637	1	3
470.807	1	9
470.978	1	0
471.148	1	5
471.319	1	2
471.489	1	-7
471.659	1	-5
471.830	1	4
472.000	1	-10
472.171	1	4
472.341	1	-9
472.511	1	-7
472.682	1	2
472.852	1	5
473.023	1	13
473.193	1	0
473.363	1	-1
473.534	1	9
473.704	1	-6
473.875	1	20
474.045	1	4
474.215	1	11
474.386	1	20
474.556	1	4
474.727	1	-5
474.897	1	7
475.067	1	-4
475.238	1	-2
475.408	1	4
475.578	1	-3
475.749	1	-2
475.919	1	-4
476.090	1	3
476.260	1	11
476.430	1	11
476.601	1	5
476.771	1	1
476.942	1	13
477.112	1	-6
477.282	1	-3
477.453	1	-9
477.623	1	-6
477.793	1	4
477.964	1	-3
478.134	1	-8
478.305	1	5
478.475	1	-2
478.645	1	13
478.816	1	2
478.986	1	1
479.156	1	1
479.327	1	-4
479.497	1	-1
479.667	1	-1
479.838	1	2
480.008	1	0
480.179	1	-3
480.349	1	-5
480.519	1	-1
480.690	1	-6
480.860	1	-3
481.030	1	-4
481.201	1	0
481.371	1	1
481.541	1	-4
481.712	1	1
481.882	1	16
482.053	1	3
482.223	1	6
482.393	1	-2
482.564	1	5
482.734	1	-5
482.904	1	-9
483.075	1	-1
483.245	1	6
483.415	1	3
483.586	1	-3
483.756	1	9
483.926	1	2
484.097	1	1
484.267	1	-7
484.437	1	-6
484.608	1	0
484.778	1	3
484.948	1	-12
485.119	1	1
485.289	1	-1
485.459	1	15
485.630	1	-3
485.800	1	7
485.970	1	2
486.141	1	6
486.311	1	5
486.481	1	-2
486.652	1	2
486.822	1	5
486.992	1	8
487.163	1	-1
487.333	1	6
487.503	1	-4
487.674	1	6
487.844	1	2
488.014	1	1
488.185	1	-8
488.355	1	-5
488.525	1	0
488.696	1	1
488.866	1	3
489.036	1	14
489.207	1	-5
489.377	1	-4
489.547	1	3
489.718	1	-6
489.888	1	-3
490.058	1	-3
490.228	1	9
490.399	1	3
490.569	1	10
490.739	1	6
490.910	1	0
491.080	1	12
491.250	1	0
491.421	1	2
491.591	1	-2
491.761	1	-1
491.932	1	-2
492.102	1	0
492.272	1	0
492.442	1	9
492.613	1	-5
492.783	1	10
492.953	1	-1
493.124	1	9
493.294	1	6
493.464	1	16
493.635	1	-4
493.805	1	1
493.975	1	-7
494.145	1	0
494.316	1	4
494.486	1	7
494.656	1	2
494.827	1	9
494.997	1	-6
495.167	1	2
495.337	1	-1
495.508	1	2
495.678	1	5
495.848	1	12
496.019	1	-6
496.189	1	6
496.359	1	-2
496.529	1	-1
496.700	1	-1
496.870	1	9
497.040	1	6
497.211	1	-2
497.381	1	-7
497.551	1	4
497.721	1	1
497.892	1	3
498.062	1	3
498.232	1	0
498.403	1	7
498.573	1	2
498.743	1	2
498.913	1	2
499.084	1	3
499.254	1	7
499.424	1	8
499.594	1	10
499.765	1	-3
499.935	1	12
500.105	1	-2
500.275	1	11
500.446	1	-7
500.616	1	-1
500.786	1	-13
500.956	1	1
501.127	1	7
501.297	1	-6
501.467	1	-5
501.638	1	-3
501.808	1	-2
501.978	1	4
502.148	1	1
502.319	1	5
502.489	1	5
502.659	1	-2
502.829	1	-3
503.000	1	6
503.170	1	4
503.340	1	8
503.510	1	-2
503.681	1	-7
503.851	1	-3
504.021	1	2
504.191	1	5
504.362	1	4
504.532	1	8
504.702	1	0
504.872	1	6
505.042	1	2
505.213	1	9
505.383	1	6
505.553	1	-4
505.723	1	3
505.894	1	-4
506.064	1	16
506.234	1	4
506.404	1	0
506.575	1	4
506.745	1	14
506.915	1	1
507.085	1	-3
507.256	1	3
507.426	1	10
507.596	1	0
507.766	1	1
507.936	1	4
508.107	1	9
508.277	1	0
508.447	1	1
508.617	1	7
508.788	1	15
508.958	1	-8
509.128	1	3
509.298	1	10
509.468	1	0
509.639	1	-3
509.809	1	9
509.979	1	1
510.149	1	4
510.319	1	3
510.490	1	10
510.660	1	8
510.830	1	4
511.000	1	1
511.171	1	3
511.341	1	-1
511.511	1	5
511.681	1	12
511.851	1	10
512.022	1	-11
512.192	1	4
512.362	1	-2
512.532	1	3
512.702	1	2
512.873	1	12
513.043	1	17
513.213	1	-6
513.383	1	-4
513.553	1	-5
513.724	1	7
513.894	1	-4
514.064	1	12
514.234	1	0
514.404	1	-7
514.575	1	5
514.745	1	2
514.915	1	9
515.085	1	-2
515.255	1	2
515.425	1	3
515.596	1	8
515.766	1	-4
515.936	1	6
516.106	1	7
516.276	1	-4
516.447	1	11
516.617	1	8
516.787	1	11
516.957	1	0
517.127	1	4
517.297	1	3
517.468	1	1
517.638	1	3
517.808	1	5
517.978	1	9
518.148	1	7
518.319	1	5
518.489	1	-5
518.659	1	-6
518.829	1	8
518.999	1	6
519.169	1	1
519.340	1	4
519.510	1	7
519.680	1	5
519.850	1	16
520.020	1	5
520.190	1	6
520.361	1	1
520.531	1	17
520.701	1	2
520.871	1	-3
521.041	1	9
521.211	1	0
521.382	1	1
521.552	1	11
521.722	1	2
521.892	1	7
522.062	1	5
522.232	1	6
522.402	1	6
522.573	1	9
522.743	1	7
522.913	1	13
523.083	1	3
523.253	1	9
523.423	1	6
523.593	1	-4
523.764	1	7
523.934	1	-2
524.104	1	3
524.274	1	8
524.444	1	8
524.614	1	5
524.784	1	3
524.955	1	-1
525.125	1	5
525.295	1	1
525.465	1	6
525.635	1	-4
525.805	1	-3
525.975	1	14
526.146	1	0
526.316	1	4
526.486	1	6
526.656	1	-6
526.826	1	4
526.996	1	12
527.166	1	3
527.337	1	7
527.507	1	10
527.677	1	12
527.847	1	-1
528.017	1	-12
528.187	1	6
528.357	1	5
528.527	1	11
528.698	1	3
528.868	1	6
529.038	1	2
529.208	1	3
529.378	1	4
529.548	1	0
529.718	1	4
529.888	1	6
530.058	1	9
530.229	1	6
530.399	1	18
530.569	1	0
530.739	1	1
530.909	1	5
531.079	1	5
531.249	1	6
531.419	1	7
531.589	1	12
531.760	1	15
531.930	1	5
532.100	1	5
532.270	1	7
532.440	1	11
532.610	1	-5
532.780	1	4
532.950	1	4
533.120	1	12
533.290	1	9
533.461	1	2
533.631	1	4
533.801	1	14
533.971	1	-5
534.141	1	0
534.311	1	13
534.481	1	-10
534.651	1	-6
534.821	1	10
534.991	1	-1
535.162	1	11
535.332	1	-3
535.502	1	3
535.672	1	7
535.842	1	7
536.012	1	9
536.182	1	-5
536.352	1	2
536.522	1	3
536.692	1	9
536.862	1	6
537.032	1	8
537.203	1	0
537.373	1	7
537.543	1	7
537.713	1	11
537.883	1	-4
538.053	1	5
538.223	1	-1
538.393	1	11
538.563	1	4
538.733	1	12
538.903	1	-7
539.073	1	8
539.243	1	4
539.413	1	8
539.584	1	1
539.754	1	6
539.924	1	16
540.094	1	2
540.264	1	-2
540.434	1	6
540.604	1	9
540.774	1	6
540.944	1	1
541.114	1	-3
541.284	1	13
541.454	1	-1
541.624	1	9
541.794	1	11
541.964	1	13
542.134	1	4
542.305	1	11
542.475	1	12
542.645	1	4
542.815	1	-1
542.985	1	16
543.155	1	5
543.325	1	-6
543.495	1	-2
543.665	1	15
543.835	1	20
544.005	1	7
544.175	1	0
544.345	1	7
544.515	1	3
544.685	1	7
544.855	1	7
545.025	1	8
545.195	1	2
545.365	1	1
545.535	1	7
545.705	1	-3
545.875	1	-7
546.045	1	9
546.216	1	1
546.386	1	12
546.556	1	-3
546.726	1	-7
546.896	1	0
547.066	1	6
547.236	1	13
547.406	1	10
547.576	1	14
547.746	1	1
547.916	1	3
548.086	1	8
548.256	1	10
548.426	1	8
548.596	1	5
548.766	1	6
548.936	1	8
549.106	1	8
549.276	1	-4
549.446	1	7
549.616	1	5
549.786	1	8
549.956	1	18
550.126	1	15
550.296	1	5
550.466	1	5
550.636	1	8
550.806	1	-3
550.976	1	12
551.146	1	1
551.316	1	9
551.486	1	10
551.656	1	3
551.826	1	9
551.996	1	21
552.166	1	7
552.336	1	6
552.506	1	8
552.676	1	14
552.846	1	5
553.016	1	10
553.186	1	15
553.356	1	6
553.526	1	-4
553.696	1	5
553.866	1	12
554.036	1	7
554.206	1	15
554.376	1	5
554.546	1	8
554.716	1	15
554.886	1	13
555.056	1	8
555.226	1	-4
555.396	1	-3
555.566	1	6
555.736	1	3
555.906	1	5
556.076	1	11
556.246	1	5
556.416	1	5
556.586	1	9
556.756	1	4
556.926	1	3
557.096	1	5
557.266	1	4
557.436	1	9
557.606	1	8
557.776	1	10
557.946	1	13
558.116	1	3
558.286	1	1
558.456	1	8
558.626	1	10
558.796	1	12
558.966	1	7
559.136	1	8
559.306	1	-4
559.476	1	-1
559.646	1	-3
559.816	1	-6
559.986	1	2
560.155	1	15
560.325	1	-1
560.495	1	8
560.665	1	4
560.835	1	13
561.005	1	-2
561.175	1	4
561.345	1	-2
561.515	1	5
561.685	1	-3
561.855	1	8
562.025	1	5
562.195	1	1
562.365	1	9
562.535	1	-8
562.705	1	5
562.875	1	7
563.045	1	6
563.215	1	8
563.385	1	-6
563.555	1	3
563.725	1	-3
563.895	1	9
564.064	1	5
564.234	1	4
564.404	1	9
564.574	1	8
564.744	1	7
564.914	1	-2
565.084	1	5
565.254	1	12
565.424	1	3
565.594	1	15
565.764	1	2
565.934	1	1
566.104	1	0
566.274	1	6
566.444	1	-3
566.614	1	5
566.783	1	3
566.953	1	17
567.123	1	4
567.293	1	10
567.463	1	6
567.633	1	15
567.803	1	0
567.973	1	-4
568.143	1	6
568.313	1	9
568.483	1	11
568.653	1	10
568.823	1	3
568.993	1	8
569.162	1	17
569.332	1	6
569.502	1	7
569.672	1	1
569.842	1	7
570.012	1	11
570.182	1	4
570.352	1	7
570.522	1	4
570.692	1	8
570.862	1	-1
571.031	1	9
571.201	1	10
571.371	1	1
571.541	1	10
571.711	1	6
571.881	1	12
572.051	1	-3
572.221	1	-2
572.391	1	4
572.561	1	1
572.731	1	8
572.900	1	2
573.070	1	10
573.240	1	2
573.410	1	14
573.580	1	2
573.750	1	11
573.920	1	10
574.090	1	3
574.260	1	15
574.430	1	3
574.599	1	8
574.769	1	-3
574.939	1	7
575.109	1	14
575.279	1	19
575.449	1	6
575.619	1	0
575.789	1	1
575.959	1	2
576.128	1	-3
576.298	1	18
576.468	1	12
576.638	1	-7
576.808	1	2
576.978	1	13
577.148	1	7
577.318	1	11
577.487	1	10
577.657	1	1
577.827	1	7
577.997	1	-5
578.167	1	-2
578.337	1	7
578.507	1	13
578.677	1	8
578.846	1	3
579.016	1	14
579.186	1	6
579.356	1	1
579.526	1	5
579.696	1	14
579.866	1	2
580.036	1	-2
580.205	1	3
580.375	1	5
580.545	1	9
580.715	1	0
580.885	1	7
581.055	1	3
581.225	1	10
581.394	1	11
581.564	1	6
581.734	1	-1
581.904	1	15
582.074	1	11
582.244	1	4
582.414	1	15
582.583	1	20
582.753	1	5
582.923	1	0
583.093	1	11
583.263	1	8
583.433	1	2
583.603	1	7
583.772	1	9
583.942	1	0
584.112	1	1
584.282	1	-1
584.452	1	4
584.622	1	7
584.791	1	5
584.961	1	12
585.131	1	3
585.301	1	-4
585.471	1	13
585.641	1	6
585.811	1	6
585.980	1	11
586.150	1	16
586.320	1	5
586.490	1	8
586.660	1	11
586.830	1	2
586.999	1	7
587.169	1	6
587.339	1	6
587.509	1	4
587.679	1	10
587.849	1	9
588.018	1	13
588.188	1	14
588.358	1	5
588.528	1	9
588.698	1	13
588.867	1	19
589.037	1	11
589.207	1	9
589.377	1	-3
589.547	1	8
589.717	1	8
589.886	1	-3
590.056	1	8
590.226	1	12
590.396	1	10
590.566	1	2
590.735	1	5
590.905	1	-6
591.075	1	8
591.245	1	0
591.415	1	4
591.585	1	8
591.754	1	1
591.924	1	5
592.094	1	7
592.264	1	10
592.434	1	4
592.603	1	12
592.773	1	7
592.943	1	4
593.113	1	4
593.283	1	5
593.452	1	-7
593.622	1	5
593.792	1	11
593.962	1	10
594.132	1	9
594.301	1	16
594.471	1	23
594.641	1	1
594.811	1	6
594.981	1	-1
595.150	1	-4
595.320	1	1
595.490	1	13
595.660	1	5
595.829	1	-2
595.999	1	1
596.169	1	5
596.339	1	-5
596.509	1	2
596.678	1	-4
596.848	1	1
597.018	1	7
597.188	1	3
597.358	1	8
597.527	1	1
597.697	1	5
597.867	1	8
598.037	1	-1
598.206	1	4
598.376	1	13
598.546	1	1
598.716	1	13
598.885	1	-6
599.055	1	17
599.225	1	2
599.395	1	5
599.565	1	-1
599.734	1	2
599.904	1	-6
600.074	1	1
600.244	1	-1
600.413	1	15
600.583	1	18
600.753	1	3
600.923	1	6
601.092	1	6
601.262	1	7
601.432	1	2
601.602	1	19
601.771	1	9
601.941	1	9
602.111	1	6
602.281	1	7
602.451	1	14
602.620	1	0
602.790	1	8
602.960	1	2
603.130	1	15
603.299	1	1
603.469	1	-6
603.639	1	-5
603.809	1	9
603.978	1	5
604.148	1	1
604.318	1	4
604.487	1	3
604.657	1	-1
604.827	1	4
604.997	1	13
605.166	1	7
605.336	1	1
605.506	1	11
605.676	1	-5
605.845	1	-1
606.015	1	7
606.185	1	16
606.355	1	4
606.524	1	-2
606.694	1	-1
606.864	1	5
607.034	1	3
607.203	1	0
607.373	1	3
607.543	1	11
607.712	1	-4
607.882	1	7
608.052	1	-2
608.222	1	3
608.391	1	3
608.561	1	0
608.731	1	7
608.901	1	4
609.070	1	14
609.240	1	6
609.410	1	9
609.579	1	12
609.749	1	10
609.919	1	5
610.089	1	3
610.258	1	15
610.428	1	5
610.598	1	3
610.767	1	0
610.937	1	10
611.107	1	3
611.277	1	1
611.446	1	11
611.616	1	2
611.786	1	17
611.955	1	1
612.125	1	9
612.295	1	-1
612.465	1	5
612.634	1	7
612.804	1	12
612.974	1	-2
613.143	1	8
613.313	1	4
613.483	1	9
613.652	1	7
613.822	1	-1
613.992	1	2
614.162	1	11
614.331	1	7
614.501	1	2
614.671	1	12
614.840	1	7
615.010	1	-5
615.180	1	-3
615.349	1	16
615.519	1	-1
615.689	1	14
615.858	1	7
616.028	1	11
616.198	1	12
616.368	1	3
616.537	1	-2
616.707	1	-2
616.877	1	5
617.046	1	7
617.216	1	-3
617.386	1	7
617.555	1	-1
617.725	1	3
617.895	1	5
618.064	1	7
618.234	1	1
618.404	1	2
618.573	1	-1
618.743	1	7
618.913	1	3
619.082	1	4
619.252	1	0
619.422	1	-1
619.591	1	-5
619.761	1	8
619.931	1	7
620.100	1	6
620.270	1	-1
620.440	1	-3
620.609	1	13
620.779	1	-3
620.949	1	-1
621.118	1	1
621.288	1	11
621.458	1	5
621.627	1	13
621.797	1	4
621.967	1	9
622.136	1	8
622.306	1	-1
622.476	1	11
622.645	1	15
622.815	1	12
622.985	1	2
623.154	1	9
623.324	1	1
623.494	1	8
623.663	1	-2
623.833	1	7
624.002	1	5
624.172	1	3
624.342	1	15
624.511	1	-2
624.681	1	2
624.851	1	-7
625.020	1	7
625.190	1	8
625.360	1	4
625.529	1	2
625.699	1	-4
625.869	1	10
626.038	1	5
626.208	1	7
626.377	1	3
626.547	1	7
626.717	1	6
626.886	1	3
627.056	1	-11
627.226	1	-1
627.395	1	8
627.565	1	-4
627.735	1	5
627.904	1	3
628.074	1	6
628.243	1	5
628.413	1	6
628.583	1	2
628.752	1	12
628.922	1	2
629.091	1	2
629.261	1	11
629.431	1	-7
629.600	1	3
629.770	1	5
629.940	1	0
630.109	1	-5
630.279	1	-14
630.448	1	3
630.618	1	-1
630.788	1	7
630.957	1	4
631.127	1	7
631.297	1	6
631.466	1	5
631.636	1	-8
631.805	1	2
631.975	1	18
632.145	1	-2
632.314	1	0
632.484	1	-6
632.653	1	0
632.823	1	0
632.993	1	1
633.162	1	3
633.332	1	9
633.501	1	-2
633.671	1	6
633.841	1	-5
634.010	1	1
634.180	1	-1
634.349	1	9
634.519	1	-4
634.689	1	4
634.858	1	-6
635.028	1	9
635.197	1	11
635.367	1	5
635.537	1	4
635.706	1	7
635.876	1	2
636.045	1	8
636.215	1	4
636.384	1	9
636.554	1	19
636.724	1	1
636.893	1	-1
637.063	1	-2
637.232	1	3
637.402	1	12
637.572	1	6
637.741	1	6
637.911	1	0
638.080	1	-4
638.250	1	1
638.419	1	-1
638.589	1	-6
638.759	1	-7
638.928	1	-1
639.098	1	18
639.267	1	3
639.437	1	4
639.606	1	5
639.776	1	2
639.946	1	1
640.115	1	-3
640.285	1	8
640.454	1	4
640.624	1	8
640.793	1	11
640.963	1	2
641.132	1	13
641.302	1	-3
641.472	1	4
641.641	1	-5
641.811	1	-3
641.980	1	5
642.150	1	-7
642.319	1	0
642.489	1	12
642.659	1	2
642.828	1	3
642.998	1	4
643.167	1	5
643.337	1	8
643.506	1	-5
643.676	1	2
643.845	1	11
644.015	1	9
644.184	1	9
644.354	1	3
644.524	1	7
644.693	1	7
644.863	1	2
645.032	1	2
645.202	1	1
645.371	1	3
645.541	1	0
645.710	1	5
645.880	1	0
646.049	1	-1
646.219	1	3
646.388	1	-5
646.558	1	-4
646.728	1	2
646.897	1	1
647.067	1	4
647.236	1	3
647.406	1	-5
647.575	1	8
647.745	1	-1
647.914	1	1
648.084	1	-3
648.253	1	12
648.423	1	-10
648.592	1	-2
648.762	1	9
648.931	1	17
649.101	1	1
649.270	1	9
649.440	1	10
649.610	1	1
649.779	1	2
649.949	1	-2
650.118	1	8
650.288	1	10
650.457	1	7
650.627	1	5
650.796	1	-1
650.966	1	10
651.135	1	-6
651.305	1	3
651.474	1	3
651.644	1	11
651.813	1	4
651.983	1	2
652.152	1	8
652.322	1	-2
652.491	1	-1
652.661	1	-5
652.830	1	7
653.000	1	7
653.169	1	3
653.339	1	3
653.508	1	9
653.678	1	-1
653.847	1	6
654.017	1	4
654.186	1	6
654.356	1	-4
654.525	1	-4
654.695	1	5
654.864	1	9
655.034	1	7
655.203	1	1
655.373	1	4
655.542	1	-3
655.712	1	-2
655.881	1	1
656.051	1	8
656.220	1	-8
656.390	1	-8
656.559	1	15
656.729	1	7
656.898	1	-4
657.068	1	2
657.237	1	1
657.406	1	-3
657.576	1	-1
657.745	1	2
657.915	1	3
658.084	1	1
658.254	1	-10
658.423	1	3
658.593	1	7
658.762	1	3
658.932	1	9
659.101	1	13
659.271	1	9
659.440	1	7
659.610	1	-3
659.779	1	-4
659.949	1	-2
660.118	1	0
660.288	1	9
660.457	1	-7
660.626	1	7
660.796	1	-5
660.965	1	12
661.135	1	1
661.304	1	-4
661.474	1	2
661.643	1	4
661.813	1	9
661.982	1	11
662.152	1	3
662.321	1	10
662.491	1	-5
662.660	1	12
662.829	1	-4
662.999	1	-5
663.168	1	5
663.338	1	14
663.507	1	9
663.677	1	9
663.846	1	0
664.016	1	7
664.185	1	7
664.354	1	11
664.524	1	3
664.693	1	8
664.863	1	-3
665.032	1	7
665.202	1	7
665.371	1	7
665.541	1	-13
665.710	1	8
665.879	1	-14
666.049	1	-3
666.218	1	-2
666.388	1	6
666.557	1	-1
666.727	1	-1
666.896	1	-6
667.065	1	6
667.235	1	5
667.404	1	1
667.574	1	-2
667.743	1	2
667.913	1	11
668.082	1	8
668.251	1	7
668.421	1	6
668.590	1	4
668.760	1	3
668.929	1	-13
669.099	1	-1
669.268	1	8
669.437	1	4
669.607	1	-6
669.776	1	1
669.946	1	11
670.115	1	9
670.285	1	9
670.454	1	5
670.623	1	-1
670.793	1	0
670.962	1	13
671.132	1	17
671.301	1	1
671.470	1	8
671.640	1	10
671.809	1	7
671.979	1	1
672.148	1	9
672.317	1	4
672.487	1	4
672.656	1	10
672.826	1	2
672.995	1	6
673.164	1	5
673.334	1	-2
673.503	1	5
673.673	1	10
673.842	1	1
674.011	1	-3
674.181	1	12
674.350	1	-1
674.520	1	1
674.689	1	-5
674.858	1	-1
675.028	1	0
675.197	1	-6
675.367	1	6
675.536	1	5
675.705	1	4
675.875	1	-3
676.044	1	0
676.214	1	-3
676.383	1	1
676.552	1	-1
676.722	1	6
676.891	1	18
677.060	1	-6
677.230	1	7
677.399	1	-9
677.569	1	5
677.738	1	9
677.907	1	9
678.077	1	11
678.246	1	6
678.416	1	7
678.585	1	9
678.754	1	-2
678.924	1	-6
679.093	1	2
679.262	1	6
679.432	1	5
679.601	1	3
679.771	1	4
679.940	1	10
680.109	1	13
680.279	1	-5
680.448	1	-1
680.617	1	4
680.787	1	-6
680.956	1	5
681.125	1	3
681.295	1	3
681.464	1	-5
681.634	1	9
681.803	1	5
681.972	1	-3
682.142	1	9
682.311	1	6
682.480	1	14
682.650	1	7
682.819	1	-2
682.988	1	-3
683.158	1	3
683.327	1	-10
683.496	1	7
683.666	1	3
683.835	1	7
684.004	1	4
684.174	1	-1
684.343	1	1
684.512	1	7
684.682	1	-3
684.851	1	-3
685.021	1	-4
685.190	1	-1
685.359	1	10
685.529	1	4
685.698	1	4
685.867	1	8
686.037	1	4
686.206	1	-7
686.375	1	18
686.545	1	-7
686.714	1	-12
686.883	1	-2
687.053	1	0
687.222	1	11
687.391	1	-1
687.561	1	8
687.730	1	12
687.899	1	0
688.069	1	14
688.238	1	5
688.407	1	1
688.577	1	2
688.746	1	-1
