340.368	1	7
340.539	1	-12
340.710	1	-11
340.881	1	-17
341.052	1	6
341.223	1	0
341.394	1	-1
341.565	1	-10
341.737	1	5
341.908	1	3
342.079	1	-1
342.250	1	-2
342.421	1	1
342.592	1	7
342.763	1	0
342.934	1	9
343.105	1	5
343.276	1	8
343.447	1	-12
343.618	1	10
343.789	1	-7
343.960	1	2
344.131	1	1
344.302	1	2
344.473	1	1
344.644	1	4
344.815	1	-2
344.986	1	2
345.157	1	-7
345.328	1	4
345.499	1	-5
345.670	1	5
345.841	1	-2
346.012	1	5
346.183	1	-7
346.354	1	2
346.526	1	0
346.697	1	7
346.868	1	8
347.039	1	9
347.210	1	-14
347.381	1	9
347.552	1	-1
347.723	1	2
347.894	1	10
348.065	1	-7
348.236	1	10
348.407	1	1
348.578	1	4
348.749	1	-14
348.920	1	-3
349.091	1	-8
349.262	1	3
349.433	1	-1
349.604	1	-2
349.775	1	17
349.946	1	-2
350.117	1	3
350.288	1	4
350.459	1	-2
350.630	1	4
350.801	1	13
350.972	1	0
351.143	1	-2
351.314	1	8
351.485	1	6
351.656	1	5
351.827	1	8
351.998	1	3
352.169	1	14
352.340	1	5
352.511	1	1
352.682	1	9
352.853	1	5
353.024	1	10
353.195	1	15
353.366	1	14
353.537	1	4
353.708	1	3
353.879	1	6
354.050	1	-8
354.221	1	2
354.392	1	-2
354.563	1	3
354.734	1	15
354.905	1	15
355.076	1	12
355.247	1	7
355.418	1	0
355.589	1	2
355.760	1	-2
355.931	1	-11
356.102	1	17
356.273	1	0
356.444	1	11
356.615	1	6
356.785	1	6
356.956	1	9
357.127	1	6
357.298	1	9
357.469	1	13
357.640	1	16
357.811	1	5
357.982	1	-4
358.153	1	11
358.324	1	1
358.495	1	9
358.666	1	1
358.837	1	4
359.008	1	7
359.179	1	6
359.350	1	8
359.521	1	21
359.692	1	20
359.863	1	15
360.034	1	8
360.205	1	10
360.376	1	9
360.547	1	20
360.718	1	15
360.889	1	7
361.060	1	10
361.231	1	3
361.401	1	11
361.572	1	9
361.743	1	12
361.914	1	15
362.085	1	18
362.256	1	19
362.427	1	23
362.598	1	6
362.769	1	8
362.940	1	16
363.111	1	15
363.282	1	17
363.453	1	18
363.624	1	24
363.795	1	18
363.966	1	29
364.137	1	31
364.308	1	11
364.478	1	37
364.649	1	34
364.820	1	13
364.991	1	23
365.162	1	30
365.333	1	22
365.504	1	37
365.675	1	16
365.846	1	35
366.017	1	29
366.188	1	38
366.359	1	35
366.530	1	46
366.701	1	44
366.871	1	33
367.042	1	41
367.213	1	55
367.384	1	60
367.555	1	48
367.726	1	51
367.897	1	57
368.068	1	47
368.239	1	58
368.410	1	68
368.581	1	39
368.752	1	45
368.923	1	47
369.093	1	46
369.264	1	50
369.435	1	58
369.606	1	48
369.777	1	43
369.948	1	52
370.119	1	50
370.290	1	52
370.461	1	50
370.632	1	52
370.803	1	60
370.973	1	55
371.144	1	47
371.315	1	47
371.486	1	55
371.657	1	56
371.828	1	54
371.999	1	45
372.170	1	49
372.341	1	48
372.512	1	34
372.682	1	46
372.853	1	47
373.024	1	51
373.195	1	38
373.366	1	50
373.537	1	32
373.708	1	46
373.879	1	35
374.050	1	41
374.220	1	51
374.391	1	37
374.562	1	48
374.733	1	43
374.904	1	29
375.075	1	28
375.246	1	37
375.417	1	37
375.588	1	39
375.758	1	34
375.929	1	34
376.100	1	40
376.271	1	40
376.442	1	24
376.613	1	25
376.784	1	40
376.955	1	24
377.125	1	31
377.296	1	29
377.467	1	29
377.638	1	34
377.809	1	30
377.980	1	26
378.151	1	27
378.321	1	12
378.492	1	17
378.663	1	15
378.834	1	19
379.005	1	24
379.176	1	19
379.347	1	20
379.518	1	19
379.688	1	22
379.859	1	18
380.030	1	15
380.201	1	20
380.372	1	25
380.543	1	10
380.714	1	27
380.884	1	14
381.055	1	22
381.226	1	22
381.397	1	15
381.568	1	24
381.739	1	19
381.910	1	14
382.080	1	14
382.251	1	7
382.422	1	13
382.593	1	8
382.764	1	13
382.935	1	14
383.105	1	14
383.276	1	12
383.447	1	10
383.618	1	24
383.789	1	3
383.960	1	8
384.130	1	13
384.301	1	14
384.472	1	11
384.643	1	21
384.814	1	17
384.985	1	14
385.156	1	2
385.326	1	14
385.497	1	14
385.668	1	20
385.839	1	11
386.010	1	4
386.180	1	9
386.351	1	11
386.522	1	14
386.693	1	-5
386.864	1	17
387.035	1	18
387.205	1	1
387.376	1	13
387.547	1	-1
387.718	1	6
387.889	1	4
388.060	1	17
388.230	1	15
388.401	1	11
388.572	1	2
388.743	1	15
388.914	1	8
389.084	1	1
389.255	1	-8
389.426	1	11
389.597	1	10
389.768	1	15
389.939	1	9
390.109	1	14
390.280	1	12
390.451	1	8
390.622	1	0
390.793	1	8
390.963	1	22
391.134	1	13
391.305	1	7
391.476	1	1
391.647	1	8
391.817	1	6
391.988	1	19
392.159	1	5
392.330	1	1
392.501	1	9
392.671	1	-1
392.842	1	2
393.013	1	4
393.184	1	1
393.355	1	10
393.525	1	2
393.696	1	11
393.867	1	2
394.038	1	10
394.208	1	10
394.379	1	10
394.550	1	13
394.721	1	3
394.892	1	-2
395.062	1	0
395.233	1	3
395.404	1	3
395.575	1	2
395.746	1	13
395.916	1	7
396.087	1	1
396.258	1	17
396.429	1	11
396.599	1	3
396.770	1	1
396.941	1	4
397.112	1	2
397.283	1	5
397.453	1	11
397.624	1	2
397.795	1	3
397.966	1	1
398.136	1	-1
398.307	1	2
398.478	1	10
398.649	1	-6
398.819	1	4
398.990	1	7
399.161	1	12
399.332	1	7
399.503	1	4
399.673	1	6
399.844	1	-6
400.015	1	-1
400.186	1	-1
400.356	1	-13
400.527	1	4
400.698	1	-2
400.869	1	8
401.039	1	4
401.210	1	4
401.381	1	5
401.552	1	0
401.722	1	2
401.893	1	3
402.064	1	6
402.235	1	2
402.405	1	0
402.576	1	2
402.747	1	-5
402.918	1	7
403.088	1	0
403.259	1	5
403.430	1	3
403.601	1	2
403.771	1	5
403.942	1	15
404.113	1	-1
404.284	1	15
404.454	1	-4
404.625	1	5
404.796	1	6
404.967	1	6
405.137	1	11
405.308	1	4
405.479	1	-5
405.649	1	2
405.820	1	-8
405.991	1	6
406.162	1	4
406.332	1	-5
406.503	1	7
406.674	1	-6
406.845	1	11
407.015	1	6
407.186	1	0
407.357	1	0
407.527	1	-1
407.698	1	10
407.869	1	2
408.040	1	-1
408.210	1	10
408.381	1	-2
408.552	1	3
408.722	1	-7
408.893	1	5
409.064	1	-1
409.235	1	-6
409.405	1	3
409.576	1	-5
409.747	1	3
409.917	1	-5
410.088	1	4
410.259	1	0
410.430	1	11
410.600	1	2
410.771	1	-4
410.942	1	9
411.112	1	-5
411.283	1	12
411.454	1	-2
411.625	1	2
411.795	1	-10
411.966	1	3
412.137	1	3
412.307	1	-1
412.478	1	17
412.649	1	0
412.819	1	6
412.990	1	0
413.161	1	1
413.332	1	7
413.502	1	12
413.673	1	0
413.844	1	-4
414.014	1	4
414.185	1	3
414.356	1	8
414.526	1	2
414.697	1	10
414.868	1	-4
415.038	1	7
415.209	1	2
415.380	1	2
415.550	1	-6
415.721	1	-3
415.892	1	-1
416.063	1	-1
416.233	1	5
416.404	1	-2
416.575	1	16
416.745	1	-4
416.916	1	-8
417.087	1	-3
417.257	1	3
417.428	1	6
417.599	1	4
417.769	1	12
417.940	1	7
418.111	1	-1
418.281	1	1
418.452	1	-2
418.623	1	5
418.793	1	1
418.964	1	-13
419.135	1	-3
419.305	1	11
419.476	1	5
419.647	1	-2
419.817	1	10
419.988	1	2
420.159	1	9
420.329	1	-13
420.500	1	-5
420.671	1	4
420.841	1	17
421.012	1	-6
421.183	1	6
421.353	1	1
421.524	1	8
421.695	1	4
421.865	1	4
422.036	1	8
422.206	1	-5
422.377	1	-1
422.548	1	-12
422.718	1	6
422.889	1	-7
423.060	1	-7
423.230	1	-5
423.401	1	5
423.572	1	4
423.742	1	2
423.913	1	-5
424.084	1	-3
424.254	1	8
424.425	1	4
424.595	1	-4
424.766	1	-3
424.937	1	6
425.107	1	0
425.278	1	11
425.449	1	1
425.619	1	3
425.790	1	-9
425.961	1	-4
426.131	1	1
426.302	1	-3
426.472	1	2
426.643	1	13
426.814	1	2
426.984	1	0
427.155	1	-4
427.326	1	2
427.496	1	4
427.667	1	5
427.837	1	-7
428.008	1	2
428.179	1	-6
428.349	1	-4
428.520	1	-4
428.691	1	4
428.861	1	5
429.032	1	13
429.202	1	0
429.373	1	1
429.544	1	-4
429.714	1	6
429.885	1	-1
430.055	1	1
430.226	1	-16
430.397	1	1
430.567	1	6
430.738	1	6
430.909	1	1
431.079	1	0
431.250	1	4
431.420	1	-2
431.591	1	10
431.762	1	8
431.932	1	-1
432.103	1	-2
432.273	1	-5
432.444	1	9
432.615	1	-10
432.785	1	4
432.956	1	-8
433.126	1	-4
433.297	1	-2
433.468	1	-4
433.638	1	-3
433.809	1	7
433.979	1	2
434.150	1	8
434.320	1	5
434.491	1	0
434.662	1	1
434.832	1	3
435.003	1	5
435.173	1	-1
435.344	1	3
435.515	1	10
435.685	1	-10
435.856	1	1
436.026	1	7
436.197	1	4
436.368	1	4
436.538	1	-6
436.709	1	-2
436.879	1	-4
437.050	1	-2
437.220	1	9
437.391	1	11
437.562	1	-3
437.732	1	-8
437.903	1	3
438.073	1	1
438.244	1	1
438.414	1	-5
438.585	1	-3
438.756	1	-11
438.926	1	1
439.097	1	-6
439.267	1	5
439.438	1	3
439.608	1	-6
439.779	1	2
439.949	1	6
440.120	1	0
440.291	1	8
440.461	1	4
440.632	1	6
440.802	1	-5
440.973	1	1
441.143	1	5
441.314	1	0
441.485	1	4
441.655	1	3
441.826	1	-2
441.996	1	4
442.167	1	4
442.337	1	1
442.508	1	-2
442.678	1	-8
442.849	1	10
443.019	1	11
443.190	1	0
443.361	1	0
443.531	1	8
443.702	1	4
443.872	1	9
444.043	1	8
444.213	1	3
444.384	1	-9
444.554	1	5
444.725	1	-7
444.895	1	-1
445.066	1	-2
445.237	1	-7
445.407	1	5
445.578	1	-7
445.748	1	2
445.919	1	-12
446.089	1	13
446.260	1	1
446.430	1	0
446.601	1	-9
446.771	1	7
446.942	1	1
447.112	1	3
447.283	1	-4
447.453	1	-1
447.624	1	0
447.794	1	8
447.965	1	1
448.135	1	4
448.306	1	2
448.477	1	0
448.647	1	-3
448.818	1	2
448.988	1	-1
449.159	1	-5
449.329	1	-1
449.500	1	-7
449.670	1	15
449.841	1	9
450.011	1	10
450.182	1	-4
450.352	1	-4
450.523	1	-6
450.693	1	3
450.864	1	3
451.034	1	-2
451.205	1	12
451.375	1	-2
451.546	1	3
451.716	1	10
451.887	1	-18
452.057	1	-7
452.228	1	1
452.398	1	2
452.569	1	-3
452.739	1	1
452.910	1	7
453.080	1	0
453.251	1	1
453.421	1	6
453.592	1	-6
453.762	1	3
453.933	1	2
454.103	1	-4
454.274	1	-5
454.444	1	-5
454.615	1	11
454.785	1	-7
454.956	1	1
455.126	1	2
455.297	1	16
455.467	1	7
455.638	1	5
455.808	1	1
455.979	1	-5
456.149	1	4
456.320	1	-2
456.490	1	7
456.661	1	12
456.831	1	7
457.001	1	-2
457.172	1	0
457.342	1	-2
457.513	1	-3
457.683	1	-5
457.854	1	5
458.024	1	4
458.195	1	-2
458.365	1	-1
458.536	1	11
458.706	1	1
458.877	1	0
459.047	1	16
459.218	1	1
459.388	1	10
459.559	1	1
459.729	1	5
459.899	1	5
460.070	1	6
460.240	1	-4
460.411	1	-14
460.581	1	8
460.752	1	2
460.922	1	3
461.093	1	4
461.263	1	-13
461.434	1	3
461.604	1	-7
461.775	1	-1
461.945	1	-7
462.115	1	3
462.286	1	4
462.456	1	-3
462.627	1	13
462.797	1	0
462.968	1	2
463.138	1	9
463.309	1	0
463.479	1	-2
463.649	1	5
463.820	1	-9
463.990	1	0
464.161	1	4
464.331	1	3
464.502	1	4
464.672	1	6
464.843	1	4
465.013	1	-1
465.183	1	-13
465.354	1	4
465.524	1	-4
465.695	1	-7
465.865	1	-5
466.036	1	0
466.206	1	8
466.376	1	-5
466.547	1	1
466.717	1	9
466.888	1	4
467.058	1	0
467.229	1	-6
467.399	1	-3
467.569	1	1
467.740	1	-1
467.910	1	0
468.081	1	9
468.251	1	4
468.422	1	-8
468.592	1	1
468.762	1	-12
468.933	1	3
469.103	1	-2
469.274	1	8
469.444	1	-10
469.614	1	4
469.785	1	-11
469.955	1	-2
470.126	1	-10
470.296	1	0
470.467	1	1
470.637	1	4
470.807	1	-4
470.978	1	-2
471.148	1	3
471.319	1	0
471.489	1	4
471.659	1	-5
471.830	1	5
472.000	1	-2
472.171	1	12
472.341	1	-3
472.511	1	-3
472.682	1	-1
472.852	1	-2
473.023	1	4
473.193	1	8
473.363	1	-1
473.534	1	6
473.704	1	-4
473.875	1	7
474.045	1	0
474.215	1	9
474.386	1	10
474.556	1	-2
474.727	1	4
474.897	1	11
475.067	1	-1
475.238	1	8
475.408	1	4
475.578	1	1
475.749	1	-5
475.919	1	-4
476.090	1	1
476.260	1	10
476.430	1	-2
476.601	1	3
476.771	1	8
476.942	1	6
477.112	1	4
477.282	1	-1
477.453	1	-1
477.623	1	-13
477.793	1	-4
477.964	1	-5
478.134	1	-6
478.305	1	1
478.475	1	-1
478.645	1	4
478.816	1	0
478.986	1	-1
479.156	1	3
479.327	1	-2
479.497	1	6
479.667	1	12
479.838	1	-4
480.008	1	3
480.179	1	4
480.349	1	-3
480.519	1	-1
480.690	1	-1
480.860	1	4
481.030	1	0
481.201	1	-2
481.371	1	5
481.541	1	-3
481.712	1	0
481.882	1	10
482.053	1	10
482.223	1	-2
482.393	1	-5
482.564	1	6
482.734	1	2
482.904	1	4
483.075	1	-3
483.245	1	18
483.415	1	2
483.586	1	2
483.756	1	11
483.926	1	6
484.097	1	0
484.267	1	1
484.437	1	-9
484.608	1	8
484.778	1	2
484.948	1	6
485.119	1	-8
485.289	1	-3
485.459	1	12
485.630	1	1
485.800	1	1
485.970	1	3
486.141	1	5
486.311	1	2
486.481	1	4
486.652	1	9
486.822	1	7
486.992	1	4
487.163	1	2
487.333	1	-3
487.503	1	6
487.674	1	5
487.844	1	1
488.014	1	3
488.185	1	7
488.355	1	7
488.525	1	2
488.696	1	-4
488.866	1	5
489.036	1	12
489.207	1	-1
489.377	1	-2
489.547	1	-2
489.718	1	0
489.888	1	3
490.058	1	-3
490.228	1	2
490.399	1	2
490.569	1	7
490.739	1	0
490.910	1	0
491.080	1	17
491.250	1	-9
491.421	1	2
491.591	1	-1
491.761	1	2
491.932	1	1
492.102	1	-2
492.272	1	12
492.442	1	2
492.613	1	-3
492.783	1	5
492.953	1	-7
493.124	1	-1
493.294	1	-9
493.464	1	17
493.635	1	2
493.805	1	-1
493.975	1	-3
494.145	1	3
494.316	1	4
494.486	1	10
494.656	1	1
494.827	1	5
494.997	1	-11
495.167	1	-1
495.337	1	15
495.508	1	9
495.678	1	3
495.848	1	11
496.019	1	8
496.189	1	4
496.359	1	-6
496.529	1	-1
496.700	1	8
496.870	1	4
497.040	1	2
497.211	1	6
497.381	1	8
497.551	1	5
497.721	1	1
497.892	1	-7
498.062	1	-1
498.232	1	-6
498.403	1	5
498.573	1	-3
498.743	1	-6
498.913	1	9
499.084	1	-5
499.254	1	8
499.424	1	-4
499.594	1	11
499.765	1	2
499.935	1	15
500.105	1	-9
500.275	1	-5
500.446	1	-7
500.616	1	-3
500.786	1	-3
500.956	1	5
501.127	1	8
501.297	1	-1
501.467	1	-9
501.638	1	-1
501.808	1	9
501.978	1	10
502.148	1	15
502.319	1	0
502.489	1	8
502.659	1	-4
502.829	1	6
503.000	1	4
503.170	1	6
503.340	1	11
503.510	1	7
503.681	1	-2
503.851	1	3
504.021	1	5
504.191	1	9
504.362	1	-1
504.532	1	6
504.702	1	0
504.872	1	-7
505.042	1	-1
505.213	1	4
505.383	1	2
505.553	1	1
505.723	1	-2
505.894	1	-7
506.064	1	13
506.234	1	9
506.404	1	13
506.575	1	8
506.745	1	2
506.915	1	0
507.085	1	-12
507.256	1	0
507.426	1	8
507.596	1	-8
507.766	1	3
507.936	1	2
508.107	1	7
508.277	1	4
508.447	1	12
508.617	1	1
508.788	1	13
508.958	1	-11
509.128	1	8
509.298	1	9
509.468	1	4
509.639	1	-5
509.809	1	7
509.979	1	1
510.149	1	14
510.319	1	0
510.490	1	12
510.660	1	-7
510.830	1	8
511.000	1	-5
511.171	1	7
511.341	1	8
511.511	1	4
511.681	1	11
511.851	1	6
512.022	1	2
512.192	1	5
512.362	1	0
512.532	1	2
512.702	1	3
512.873	1	5
513.043	1	7
513.213	1	-4
513.383	1	-5
513.553	1	1
513.724	1	5
513.894	1	-11
514.064	1	16
514.234	1	-3
514.404	1	-7
514.575	1	10
514.745	1	0
514.915	1	10
515.085	1	-2
515.255	1	3
515.425	1	3
515.596	1	5
515.766	1	-7
515.936	1	7
516.106	1	1
516.276	1	-4
516.447	1	15
516.617	1	6
516.787	1	8
516.957	1	2
517.127	1	3
517.297	1	1
517.468	1	7
517.638	1	0
517.808	1	10
517.978	1	15
518.148	1	5
518.319	1	6
518.489	1	-3
518.659	1	-3
518.829	1	17
518.999	1	-1
519.169	1	-3
519.340	1	2
519.510	1	4
519.680	1	11
519.850	1	9
520.020	1	3
520.190	1	4
520.361	1	-2
520.531	1	1
520.701	1	10
520.871	1	-1
521.041	1	16
521.211	1	-8
521.382	1	-1
521.552	1	11
521.722	1	2
521.892	1	4
522.062	1	4
522.232	1	10
522.402	1	9
522.573	1	1
522.743	1	4
522.913	1	7
523.083	1	-4
523.253	1	0
523.423	1	8
523.593	1	-10
523.764	1	5
523.934	1	0
524.104	1	1
524.274	1	2
524.444	1	8
524.614	1	2
524.784	1	-4
524.955	1	-6
525.125	1	3
525.295	1	8
525.465	1	11
525.635	1	-1
525.805	1	5
525.975	1	-5
526.146	1	2
526.316	1	13
526.486	1	4
526.656	1	-2
526.826	1	13
526.996	1	-1
527.166	1	1
527.337	1	3
527.507	1	11
527.677	1	3
527.847	1	7
528.017	1	-5
528.187	1	5
528.357	1	8
528.527	1	6
528.698	1	8
528.868	1	3
529.038	1	2
529.208	1	10
529.378	1	7
529.548	1	7
529.718	1	13
529.888	1	6
530.058	1	5
530.229	1	3
530.399	1	18
530.569	1	-1
530.739	1	5
530.909	1	7
531.079	1	14
531.249	1	-7
531.419	1	7
531.589	1	13
531.760	1	3
531.930	1	-6
532.100	1	1
532.270	1	0
532.440	1	11
532.610	1	-6
532.780	1	0
532.950	1	4
533.120	1	15
533.290	1	10
533.461	1	3
533.631	1	16
533.801	1	16
533.971	1	-9
534.141	1	-9
534.311	1	14
534.481	1	-7
534.651	1	3
534.821	1	12
534.991	1	9
535.162	1	-5
535.332	1	6
535.502	1	7
535.672	1	9
535.842	1	11
536.012	1	11
536.182	1	1
536.352	1	2
536.522	1	-2
536.692	1	6
536.862	1	11
537.032	1	16
537.203	1	-5
537.373	1	8
537.543	1	5
537.713	1	3
537.883	1	2
538.053	1	0
538.223	1	6
538.393	1	6
538.563	1	15
538.733	1	5
538.903	1	-3
539.073	1	-5
539.243	1	0
539.413	1	8
539.584	1	5
539.754	1	14
539.924	1	14
540.094	1	4
540.264	1	-5
540.434	1	1
540.604	1	5
540.774	1	6
540.944	1	1
541.114	1	-2
541.284	1	17
541.454	1	7
541.624	1	2
541.794	1	-1
541.964	1	16
542.134	1	10
542.305	1	11
542.475	1	9
542.645	1	0
542.815	1	-2
542.985	1	4
543.155	1	7
543.325	1	4
543.495	1	6
543.665	1	14
543.835	1	6
544.005	1	15
544.175	1	2
544.345	1	8
544.515	1	4
544.685	1	0
544.855	1	8
545.025	1	8
545.195	1	2
545.365	1	14
545.535	1	15
545.705	1	1
545.875	1	-10
546.045	1	0
546.216	1	7
546.386	1	4
546.556	1	-7
546.726	1	2
546.896	1	14
547.066	1	12
547.236	1	4
547.406	1	10
547.576	1	16
547.746	1	-4
547.916	1	-3
548.086	1	2
548.256	1	-3
548.426	1	1
548.596	1	6
548.766	1	9
548.936	1	5
549.106	1	-3
549.276	1	8
549.446	1	6
549.616	1	9
549.786	1	7
549.956	1	14
550.126	1	16
550.296	1	13
550.466	1	14
550.636	1	10
550.806	1	4
550.976	1	15
551.146	1	8
551.316	1	10
551.486	1	3
551.656	1	14
551.826	1	9
551.996	1	20
552.166	1	14
552.336	1	8
552.506	1	7
552.676	1	11
552.846	1	11
553.016	1	7
553.186	1	6
553.356	1	7
553.526	1	5
553.696	1	12
553.866	1	1
554.036	1	-1
554.206	1	7
554.376	1	10
554.546	1	11
554.716	1	7
554.886	1	6
555.056	1	7
555.226	1	-2
555.396	1	0
555.566	1	6
555.736	1	0
555.906	1	15
556.076	1	19
556.246	1	5
556.416	1	4
556.586	1	10
556.756	1	1
556.926	1	9
557.096	1	6
557.266	1	-8
557.436	1	8
557.606	1	1
557.776	1	1
557.946	1	23
558.116	1	2
558.286	1	12
558.456	1	-1
558.626	1	11
558.796	1	4
558.966	1	-4
559.136	1	10
559.306	1	2
559.476	1	-4
559.646	1	10
559.816	1	-4
559.986	1	-1
560.155	1	6
560.325	1	4
560.495	1	14
560.665	1	5
560.835	1	6
561.005	1	1
561.175	1	10
561.345	1	2
561.515	1	3
561.685	1	10
561.855	1	1
562.025	1	2
562.195	1	13
562.365	1	13
562.535	1	2
562.705	1	-3
562.875	1	8
563.045	1	3
563.215	1	18
563.385	1	-5
563.555	1	-2
563.725	1	1
563.895	1	5
564.064	1	5
564.234	1	-2
564.404	1	11
564.574	1	10
564.744	1	13
564.914	1	5
565.084	1	4
565.254	1	22
565.424	1	1
565.594	1	7
565.764	1	1
565.934	1	18
566.104	1	3
566.274	1	8
566.444	1	-5
566.614	1	0
566.783	1	-3
566.953	1	17
567.123	1	7
567.293	1	14
567.463	1	9
567.633	1	8
567.803	1	5
567.973	1	-2
568.143	1	6
568.313	1	17
568.483	1	3
568.653	1	6
568.823	1	-3
568.993	1	13
569.162	1	16
569.332	1	14
569.502	1	6
569.672	1	14
569.842	1	7
570.012	1	3
570.182	1	9
570.352	1	-1
570.522	1	-1
570.692	1	8
570.862	1	3
571.031	1	16
571.201	1	9
571.371	1	3
571.541	1	15
571.711	1	13
571.881	1	22
572.051	1	-2
572.221	1	1
572.391	1	-2
572.561	1	0
572.731	1	4
572.900	1	2
573.070	1	10
573.240	1	5
573.410	1	21
573.580	1	7
573.750	1	-3
573.920	1	1
574.090	1	5
574.260	1	9
574.430	1	5
574.599	1	-3
574.769	1	11
574.939	1	8
575.109	1	11
575.279	1	18
575.449	1	1
575.619	1	12
575.789	1	-2
575.959	1	-7
576.128	1	3
576.298	1	9
576.468	1	3
576.638	1	2
576.808	1	3
576.978	1	4
577.148	1	10
577.318	1	15
577.487	1	1
577.657	1	-5
577.827	1	-3
577.997	1	0
578.167	1	7
578.337	1	9
578.507	1	3
578.677	1	12
578.846	1	10
579.016	1	12
579.186	1	5
579.356	1	4
579.526	1	-3
579.696	1	18
579.866	1	9
580.036	1	5
580.205	1	1
580.375	1	13
580.545	1	2
580.715	1	5
580.885	1	-1
581.055	1	3
581.225	1	4
581.394	1	6
581.564	1	12
581.734	1	-7
581.904	1	13
582.074	1	2
582.244	1	3
582.414	1	1
582.583	1	13
582.753	1	2
582.923	1	-2
583.093	1	-3
583.263	1	6
583.433	1	6
583.603	1	18
583.772	1	18
583.942	1	7
584.112	1	4
584.282	1	-3
584.452	1	13
584.622	1	-4
584.791	1	-5
584.961	1	13
585.131	1	10
585.301	1	4
585.471	1	9
585.641	1	1
585.811	1	5
585.980	1	9
586.150	1	-4
586.320	1	1
586.490	1	9
586.660	1	8
586.830	1	8
586.999	1	3
587.169	1	2
587.339	1	4
587.509	1	8
587.679	1	16
587.849	1	3
588.018	1	17
588.188	1	14
588.358	1	-1
588.528	1	4
588.698	1	10
588.867	1	16
589.037	1	10
589.207	1	15
589.377	1	3
589.547	1	-2
589.717	1	10
589.886	1	-1
590.056	1	4
590.226	1	2
590.396	1	11
590.566	1	5
590.735	1	-4
590.905	1	10
591.075	1	10
591.245	1	3
591.415	1	-1
591.585	1	8
591.754	1	9
591.924	1	2
592.094	1	1
592.264	1	-5
592.434	1	7
592.603	1	12
592.773	1	9
592.943	1	5
593.113	1	11
593.283	1	6
593.452	1	4
593.622	1	4
593.792	1	3
593.962	1	6
594.132	1	-1
594.301	1	14
594.471	1	9
594.641	1	-4
594.811	1	11
594.981	1	5
595.150	1	2
595.320	1	14
595.490	1	9
595.660	1	7
595.829	1	0
595.999	1	0
596.169	1	15
596.339	1	11
596.509	1	13
596.678	1	-5
596.848	1	6
597.018	1	-4
597.188	1	10
597.358	1	8
597.527	1	-5
597.697	1	3
597.867	1	-4
598.037	1	-2
598.206	1	1
598.376	1	10
598.546	1	6
598.716	1	12
598.885	1	-5
599.055	1	9
599.225	1	4
599.395	1	7
599.565	1	-3
599.734	1	2
599.904	1	5
600.074	1	6
600.244	1	0
600.413	1	10
600.583	1	10
600.753	1	5
600.923	1	4
601.092	1	12
601.262	1	2
601.432	1	-11
601.602	1	6
601.771	1	11
601.941	1	2
602.111	1	12
602.281	1	9
602.451	1	12
602.620	1	9
602.790	1	3
602.960	1	-1
603.130	1	8
603.299	1	5
603.469	1	-1
603.639	1	-1
603.809	1	-4
603.978	1	5
604.148	1	7
604.318	1	4
604.487	1	2
604.657	1	5
604.827	1	12
604.997	1	5
605.166	1	7
605.336	1	11
605.506	1	7
605.676	1	-4
605.845	1	13
606.015	1	3
606.185	1	5
606.355	1	9
606.524	1	5
606.694	1	-2
606.864	1	-3
607.034	1	-7
607.203	1	4
607.373	1	-6
607.543	1	8
607.712	1	4
607.882	1	9
608.052	1	0
608.222	1	5
608.391	1	10
608.561	1	1
608.731	1	7
608.901	1	11
609.070	1	12
609.240	1	0
609.410	1	11
609.579	1	20
609.749	1	-2
609.919	1	13
610.089	1	-2
610.258	1	11
610.428	1	-1
610.598	1	14
610.767	1	1
610.937	1	-2
611.107	1	3
611.277	1	0
611.446	1	17
611.616	1	10
611.786	1	12
611.955	1	9
612.125	1	8
612.295	1	1
612.465	1	9
612.634	1	3
612.804	1	10
612.974	1	-1
613.143	1	6
613.313	1	7
613.483	1	10
613.652	1	12
613.822	1	-1
613.992	1	2
614.162	1	7
614.331	1	3
614.501	1	0
614.671	1	7
614.840	1	2
615.010	1	-4
615.180	1	-6
615.349	1	14
615.519	1	-1
615.689	1	8
615.858	1	8
616.028	1	8
616.198	1	5
616.368	1	1
616.537	1	7
616.707	1	9
616.877	1	-1
617.046	1	7
617.216	1	-1
617.386	1	10
617.555	1	4
617.725	1	1
617.895	1	8
618.064	1	-2
618.234	1	4
618.404	1	-2
618.573	1	6
618.743	1	-1
618.913	1	9
619.082	1	1
619.252	1	0
619.422	1	-2
619.591	1	5
619.761	1	7
619.931	1	10
620.100	1	12
620.270	1	-4
620.440	1	4
620.609	1	8
620.779	1	-4
620.949	1	5
621.118	1	-1
621.288	1	2
621.458	1	5
621.627	1	12
621.797	1	5
621.967	1	2
622.136	1	10
622.306	1	2
622.476	1	3
622.645	1	7
622.815	1	15
622.985	1	14
623.154	1	3
623.324	1	9
623.494	1	11
623.663	1	-2
623.833	1	6
624.002	1	-1
624.172	1	3
624.342	1	15
624.511	1	-2
624.681	1	-1
624.851	1	-9
625.020	1	3
625.190	1	8
625.360	1	8
625.529	1	2
625.699	1	-2
625.869	1	15
626.038	1	0
626.208	1	2
626.377	1	9
626.547	1	1
626.717	1	7
626.886	1	4
627.056	1	-5
627.226	1	6
627.395	1	9
627.565	1	-3
627.735	1	5
627.904	1	-4
628.074	1	1
628.243	1	7
628.413	1	8
628.583	1	5
628.752	1	2
628.922	1	6
629.091	1	-1
629.261	1	5
629.431	1	-4
629.600	1	6
629.770	1	-7
629.940	1	3
630.109	1	-6
630.279	1	-7
630.448	1	2
630.618	1	5
630.788	1	14
630.957	1	4
631.127	1	7
631.297	1	1
631.466	1	5
631.636	1	-10
631.805	1	-7
631.975	1	13
632.145	1	3
632.314	1	4
632.484	1	-1
632.653	1	-4
632.823	1	13
632.993	1	3
633.162	1	8
633.332	1	-5
633.501	1	-7
633.671	1	-1
633.841	1	-5
634.010	1	-2
634.180	1	4
634.349	1	9
634.519	1	-6
634.689	1	5
634.858	1	-1
635.028	1	9
635.197	1	11
635.367	1	-3
635.537	1	1
635.706	1	5
635.876	1	1
636.045	1	8
636.215	1	1
636.384	1	2
636.554	1	17
636.724	1	7
636.893	1	2
637.063	1	-8
637.232	1	-1
637.402	1	12
637.572	1	7
637.741	1	0
637.911	1	3
638.080	1	0
638.250	1	9
638.419	1	-7
638.589	1	3
638.759	1	-5
638.928	1	0
639.098	1	13
639.267	1	2
639.437	1	11
639.606	1	7
639.776	1	-3
639.946	1	12
640.115	1	-1
640.285	1	15
640.454	1	-3
640.624	1	8
640.793	1	14
640.963	1	-3
641.132	1	6
641.302	1	2
641.472	1	7
641.641	1	-8
641.811	1	3
641.980	1	2
642.150	1	-3
642.319	1	5
642.489	1	7
642.659	1	7
642.828	1	-1
642.998	1	16
643.167	1	0
643.337	1	3
643.506	1	-12
643.676	1	8
643.845	1	3
644.015	1	6
644.184	1	2
644.354	1	7
644.524	1	-2
644.693	1	4
644.863	1	-3
645.032	1	0
645.202	1	-3
645.371	1	5
645.541	1	2
645.710	1	2
645.880	1	0
646.049	1	-1
646.219	1	-2
646.388	1	2
646.558	1	1
646.728	1	8
646.897	1	3
647.067	1	6
647.236	1	3
647.406	1	-9
647.575	1	9
647.745	1	-4
647.914	1	1
648.084	1	-2
648.253	1	9
648.423	1	-1
648.592	1	-1
648.762	1	7
648.931	1	14
649.101	1	9
649.270	1	2
649.440	1	-8
649.610	1	-4
649.779	1	3
649.949	1	0
650.118	1	7
650.288	1	3
650.457	1	1
650.627	1	1
650.796	1	-6
650.966	1	10
651.135	1	-13
651.305	1	3
651.474	1	-1
651.644	1	16
651.813	1	6
651.983	1	2
652.152	1	5
652.322	1	-2
652.491	1	6
652.661	1	9
652.830	1	3
653.000	1	-5
653.169	1	2
653.339	1	-2
653.508	1	-3
653.678	1	0
653.847	1	5
654.017	1	2
654.186	1	10
654.356	1	3
654.525	1	0
654.695	1	9
654.864	1	1
655.034	1	10
655.203	1	-5
655.373	1	4
655.542	1	2
655.712	1	3
655.881	1	-4
656.051	1	9
656.220	1	2
656.390	1	11
656.559	1	7
656.729	1	12
656.898	1	-7
657.068	1	5
657.237	1	1
657.406	1	14
657.576	1	5
657.745	1	-9
657.915	1	3
658.084	1	5
658.254	1	-5
658.423	1	8
658.593	1	4
658.762	1	0
658.932	1	5
659.101	1	2
659.271	1	10
659.440	1	-7
659.610	1	-2
659.779	1	3
659.949	1	-2
660.118	1	10
660.288	1	11
660.457	1	7
660.626	1	9
660.796	1	-4
660.965	1	5
661.135	1	-4
661.304	1	5
661.474	1	-1
661.643	1	6
661.813	1	6
661.982	1	8
662.152	1	6
662.321	1	6
662.491	1	0
662.660	1	7
662.829	1	-8
662.999	1	-1
663.168	1	9
663.338	1	3
663.507	1	7
663.677	1	1
663.846	1	5
664.016	1	10
664.185	1	6
664.354	1	6
664.524	1	-1
664.693	1	8
664.863	1	8
665.032	1	1
665.202	1	2
665.371	1	1
665.541	1	-7
665.710	1	-3
665.879	1	-8
666.049	1	-1
666.218	1	-7
666.388	1	9
666.557	1	3
666.727	1	-4
666.896	1	-5
667.065	1	7
667.235	1	6
667.404	1	-2
667.574	1	-2
667.743	1	9
667.913	1	7
668.082	1	8
668.251	1	1
668.421	1	2
668.590	1	1
668.760	1	1
668.929	1	-10
669.099	1	7
669.268	1	2
669.437	1	5
669.607	1	-2
669.776	1	-5
669.946	1	0
670.115	1	13
670.285	1	12
670.454	1	-5
670.623	1	-1
670.793	1	4
670.962	1	17
671.132	1	17
671.301	1	0
671.470	1	5
671.640	1	10
671.809	1	-4
671.979	1	-1
672.148	1	6
672.317	1	1
672.487	1	10
672.656	1	-3
672.826	1	-5
672.995	1	8
673.164	1	4
673.334	1	3
673.503	1	2
673.673	1	2
673.842	1	-4
674.011	1	2
674.181	1	12
674.350	1	7
674.520	1	-4
674.689	1	2
674.858	1	0
675.028	1	-4
675.197	1	-8
675.367	1	7
675.536	1	11
675.705	1	3
675.875	1	-1
676.044	1	3
676.214	1	0
676.383	1	-2
676.552	1	4
676.722	1	-2
676.891	1	14
677.060	1	-1
677.230	1	2
677.399	1	-6
677.569	1	9
677.738	1	10
677.907	1	7
678.077	1	3
678.246	1	5
678.416	1	3
678.585	1	0
678.754	1	-4
678.924	1	9
679.093	1	-1
679.262	1	-1
679.432	1	-3
679.601	1	2
679.771	1	0
679.940	1	0
680.109	1	12
680.279	1	-1
680.448	1	3
680.617	1	2
680.787	1	-3
680.956	1	11
681.125	1	0
681.295	1	6
681.464	1	-9
681.634	1	9
681.803	1	4
681.972	1	1
682.142	1	10
682.311	1	3
682.480	1	27
682.650	1	8
682.819	1	1
682.988	1	3
683.158	1	-1
683.327	1	1
683.496	1	1
683.666	1	5
683.835	1	2
684.004	1	10
684.174	1	-1
684.343	1	-3
684.512	1	4
684.682	1	-4
684.851	1	8
685.021	1	5
685.190	1	-1
685.359	1	13
685.529	1	3
685.698	1	5
685.867	1	-4
686.037	1	-2
686.206	1	0
686.375	1	12
686.545	1	1
686.714	1	-3
686.883	1	-11
687.053	1	3
687.222	1	15
687.391	1	2
687.561	1	1
687.730	1	0
687.899	1	5
688.069	1	13
688.238	1	6
688.407	1	-5
688.577	1	5
688.746	1	3
