340.368	1	1
340.539	1	-10
340.710	1	-13
340.881	1	-6
341.052	1	7
341.223	1	0
341.394	1	3
341.565	1	2
341.737	1	13
341.908	1	5
342.079	1	-9
342.250	1	5
342.421	1	1
342.592	1	7
342.763	1	3
342.934	1	-5
343.105	1	12
343.276	1	3
343.447	1	-5
343.618	1	4
343.789	1	-7
343.960	1	-1
344.131	1	-3
344.302	1	-9
344.473	1	-3
344.644	1	8
344.815	1	-6
344.986	1	0
345.157	1	-5
345.328	1	4
345.499	1	0
345.670	1	-7
345.841	1	6
346.012	1	8
346.183	1	-1
346.354	1	12
346.526	1	-7
346.697	1	7
346.868	1	-1
347.039	1	6
347.210	1	-7
347.381	1	0
347.552	1	-4
347.723	1	-4
347.894	1	2
348.065	1	0
348.236	1	8
348.407	1	1
348.578	1	-5
348.749	1	-8
348.920	1	-4
349.091	1	-9
349.262	1	1
349.433	1	4
349.604	1	8
349.775	1	3
349.946	1	-3
350.117	1	2
350.288	1	11
350.459	1	-1
350.630	1	-3
350.801	1	-3
350.972	1	-2
351.143	1	-1
351.314	1	7
351.485	1	5
351.656	1	-2
351.827	1	2
351.998	1	19
352.169	1	2
352.340	1	2
352.511	1	-1
352.682	1	5
352.853	1	0
353.024	1	-1
353.195	1	4
353.366	1	15
353.537	1	2
353.708	1	-2
353.879	1	10
354.050	1	-7
354.221	1	-5
354.392	1	-5
354.563	1	3
354.734	1	-1
354.905	1	10
355.076	1	8
355.247	1	13
355.418	1	-7
355.589	1	2
355.760	1	5
355.931	1	2
356.102	1	7
356.273	1	-2
356.444	1	7
356.615	1	3
356.785	1	9
356.956	1	12
357.127	1	-3
357.298	1	0
357.469	1	3
357.640	1	2
357.811	1	2
357.982	1	-8
358.153	1	2
358.324	1	5
358.495	1	12
358.666	1	2
358.837	1	-4
359.008	1	2
359.179	1	3
359.350	1	1
359.521	1	5
359.692	1	9
359.863	1	0
360.034	1	4
360.205	1	9
360.376	1	7
360.547	1	11
360.718	1	10
360.889	1	-10
361.060	1	11
361.231	1	-1
361.401	1	-4
361.572	1	8
361.743	1	4
361.914	1	11
362.085	1	16
362.256	1	8
362.427	1	10
362.598	1	0
362.769	1	1
362.940	1	15
363.111	1	-3
363.282	1	13
363.453	1	11
363.624	1	9
363.795	1	13
363.966	1	7
364.137	1	24
364.308	1	4
364.478	1	11
364.649	1	17
364.820	1	15
364.991	1	5
365.162	1	23
365.333	1	10
365.504	1	10
365.675	1	10
365.846	1	16
366.017	1	13
366.188	1	13
366.359	1	10
366.530	1	21
366.701	1	18
366.871	1	11
367.042	1	20
367.213	1	22
367.384	1	20
367.555	1	23
367.726	1	24
367.897	1	28
368.068	1	31
368.239	1	27
368.410	1	35
368.581	1	24
368.752	1	22
368.923	1	29
369.093	1	29
369.264	1	28
369.435	1	26
369.606	1	32
369.777	1	30
369.948	1	27
370.119	1	25
370.290	1	29
370.461	1	41
370.632	1	29
370.803	1	30
370.973	1	33
371.144	1	24
371.315	1	18
371.486	1	31
371.657	1	31
371.828	1	22
371.999	1	31
372.170	1	22
372.341	1	17
372.512	1	20
372.682	1	19
372.853	1	20
373.024	1	14
373.195	1	14
373.366	1	19
373.537	1	23
373.708	1	7
373.879	1	13
374.050	1	24
374.220	1	25
374.391	1	13
374.562	1	27
374.733	1	28
374.904	1	11
375.075	1	9
375.246	1	25
375.417	1	10
375.588	1	10
375.758	1	21
375.929	1	22
376.100	1	15
376.271	1	15
376.442	1	10
376.613	1	19
376.784	1	11
376.955	1	11
377.125	1	4
377.296	1	5
377.467	1	12
377.638	1	12
377.809	1	12
377.980	1	16
378.151	1	22
378.321	1	3
378.492	1	8
378.663	1	9
378.834	1	14
379.005	1	24
379.176	1	5
379.347	1	8
379.518	1	9
379.688	1	16
379.859	1	15
380.030	1	-2
380.201	1	-5
380.372	1	16
380.543	1	19
380.714	1	14
380.884	1	-4
381.055	1	9
381.226	1	-6
381.397	1	5
381.568	1	20
381.739	1	13
381.910	1	8
382.080	1	12
382.251	1	4
382.422	1	1
382.593	1	-1
382.764	1	7
382.935	1	4
383.105	1	-1
383.276	1	11
383.447	1	3
383.618	1	9
383.789	1	7
383.960	1	8
384.130	1	2
384.301	1	2
384.472	1	-4
384.643	1	12
384.814	1	6
384.985	1	1
385.156	1	5
385.326	1	12
385.497	1	13
385.668	1	9
385.839	1	2
386.010	1	-1
386.180	1	3
386.351	1	-1
386.522	1	12
386.693	1	-9
386.864	1	14
387.035	1	0
387.205	1	0
387.376	1	6
387.547	1	4
387.718	1	10
387.889	1	5
388.060	1	8
388.230	1	12
388.401	1	8
388.572	1	0
388.743	1	6
388.914	1	7
389.084	1	0
389.255	1	3
389.426	1	8
389.597	1	3
389.768	1	8
389.939	1	1
390.109	1	10
390.280	1	5
390.451	1	-1
390.622	1	-1
390.793	1	2
390.963	1	9
391.134	1	12
391.305	1	8
391.476	1	-10
391.647	1	6
391.817	1	-2
391.988	1	14
392.159	1	-6
392.330	1	9
392.501	1	5
392.671	1	9
392.842	1	5
393.013	1	-3
393.184	1	-1
393.355	1	10
393.525	1	1
393.696	1	8
393.867	1	-8
394.038	1	5
394.208	1	1
394.379	1	7
394.550	1	12
394.721	1	1
394.892	1	2
395.062	1	3
395.233	1	-6
395.404	1	-6
395.575	1	3
395.746	1	6
395.916	1	-2
396.087	1	4
396.258	1	3
396.429	1	1
396.599	1	-4
396.770	1	0
396.941	1	5
397.112	1	6
397.283	1	-5
397.453	1	14
397.624	1	3
397.795	1	4
397.966	1	11
398.136	1	-5
398.307	1	6
398.478	1	10
398.649	1	-15
398.819	1	7
398.990	1	-3
399.161	1	6
399.332	1	-2
399.503	1	2
399.673	1	0
399.844	1	2
400.015	1	-8
400.186	1	5
400.356	1	-7
400.527	1	3
400.698	1	-2
400.869	1	3
401.039	1	4
401.210	1	6
401.381	1	-3
401.552	1	-4
401.722	1	0
401.893	1	2
402.064	1	-2
402.235	1	-2
402.405	1	6
402.576	1	0
402.747	1	9
402.918	1	5
403.088	1	9
403.259	1	11
403.430	1	-10
403.601	1	-6
403.771	1	3
403.942	1	14
404.113	1	-11
404.284	1	9
404.454	1	1
404.625	1	9
404.796	1	12
404.967	1	-2
405.137	1	4
405.308	1	5
405.479	1	5
405.649	1	6
405.820	1	-9
405.991	1	-1
406.162	1	0
406.332	1	10
406.503	1	3
406.674	1	-1
406.845	1	6
407.015	1	3
407.186	1	0
407.357	1	-6
407.527	1	-16
407.698	1	-2
407.869	1	-2
408.040	1	6
408.210	1	9
408.381	1	2
408.552	1	-9
408.722	1	-10
408.893	1	6
409.064	1	-1
409.235	1	5
409.405	1	8
409.576	1	-13
409.747	1	5
409.917	1	5
410.088	1	0
410.259	1	-5
410.430	1	8
410.600	1	-2
410.771	1	1
410.942	1	1
411.112	1	-2
411.283	1	16
411.454	1	0
411.625	1	5
411.795	1	-2
411.966	1	5
412.137	1	5
412.307	1	-3
412.478	1	11
412.649	1	-3
412.819	1	-5
412.990	1	4
413.161	1	-4
413.332	1	2
413.502	1	0
413.673	1	6
413.844	1	4
414.014	1	4
414.185	1	3
414.356	1	-4
414.526	1	-3
414.697	1	9
414.868	1	-5
415.038	1	5
415.209	1	-10
415.380	1	3
415.550	1	-5
415.721	1	2
415.892	1	0
416.063	1	4
416.233	1	-3
416.404	1	2
416.575	1	5
416.745	1	3
416.916	1	-10
417.087	1	1
417.257	1	0
417.428	1	2
417.599	1	0
417.769	1	8
417.940	1	8
418.111	1	-13
418.281	1	-3
418.452	1	-3
418.623	1	-4
418.793	1	6
418.964	1	-10
419.135	1	-5
419.305	1	-3
419.476	1	2
419.647	1	-1
419.817	1	10
419.988	1	3
420.159	1	-7
420.329	1	-9
420.500	1	-6
420.671	1	5
420.841	1	20
421.012	1	-1
421.183	1	-2
421.353	1	-1
421.524	1	-5
421.695	1	-2
421.865	1	4
422.036	1	8
422.206	1	-1
422.377	1	3
422.548	1	0
422.718	1	9
422.889	1	-14
423.060	1	3
423.230	1	-3
423.401	1	6
423.572	1	-1
423.742	1	1
423.913	1	1
424.084	1	2
424.254	1	-1
424.425	1	1
424.595	1	-6
424.766	1	3
424.937	1	4
425.107	1	-5
425.278	1	1
425.449	1	-2
425.619	1	3
425.790	1	-2
425.961	1	2
426.131	1	-7
426.302	1	9
426.472	1	-4
426.643	1	12
426.814	1	3
426.984	1	7
427.155	1	-5
427.326	1	5
427.496	1	-2
427.667	1	4
427.837	1	-1
428.008	1	5
428.179	1	-9
428.349	1	-7
428.520	1	-2
428.691	1	12
428.861	1	0
429.032	1	13
429.202	1	-8
429.373	1	9
429.544	1	2
429.714	1	10
429.885	1	4
430.055	1	1
430.226	1	-11
430.397	1	-11
430.567	1	6
430.738	1	1
430.909	1	-11
431.079	1	-7
431.250	1	-9
431.420	1	2
431.591	1	0
431.762	1	0
431.932	1	-5
432.103	1	4
432.273	1	5
432.444	1	12
432.615	1	-11
432.785	1	5
432.956	1	-13
433.126	1	-2
433.297	1	3
433.468	1	-9
433.638	1	2
433.809	1	7
433.979	1	0
434.150	1	4
434.320	1	6
434.491	1	-6
434.662	1	-7
434.832	1	1
435.003	1	8
435.173	1	1
435.344	1	5
435.515	1	13
435.685	1	-4
435.856	1	9
436.026	1	-1
436.197	1	-2
436.368	1	4
436.538	1	-8
436.709	1	-1
436.879	1	-10
437.050	1	1
437.220	1	8
437.391	1	14
437.562	1	-1
437.732	1	-2
437.903	1	-3
438.073	1	-2
438.244	1	-5
438.414	1	-6
438.585	1	-12
438.756	1	-4
438.926	1	10
439.097	1	-6
439.267	1	11
439.438	1	1
439.608	1	-9
439.779	1	-2
439.949	1	10
440.120	1	-2
440.291	1	1
440.461	1	1
440.632	1	10
440.802	1	-11
440.973	1	-6
441.143	1	8
441.314	1	0
441.485	1	-1
441.655	1	4
441.826	1	-2
441.996	1	0
442.167	1	-3
442.337	1	3
442.508	1	-9
442.678	1	-4
442.849	1	1
443.019	1	9
443.190	1	5
443.361	1	2
443.531	1	3
443.702	1	-1
443.872	1	1
444.043	1	4
444.213	1	0
444.384	1	-8
444.554	1	8
444.725	1	-8
444.895	1	-3
445.066	1	0
445.237	1	-2
445.407	1	3
445.578	1	-8
445.748	1	-6
445.919	1	-6
446.089	1	6
446.260	1	-6
446.430	1	-5
446.601	1	-8
446.771	1	6
446.942	1	2
447.112	1	-1
447.283	1	-4
447.453	1	-8
447.624	1	1
447.794	1	0
447.965	1	-7
448.135	1	2
448.306	1	5
448.477	1	3
448.647	1	-4
448.818	1	7
448.988	1	0
449.159	1	-2
449.329	1	-1
449.500	1	1
449.670	1	8
449.841	1	2
450.011	1	-2
450.182	1	-7
450.352	1	-1
450.523	1	-11
450.693	1	-8
450.864	1	-5
451.034	1	-3
451.205	1	10
451.375	1	6
451.546	1	-8
451.716	1	-7
451.887	1	-14
452.057	1	4
452.228	1	-4
452.398	1	-6
452.569	1	-7
452.739	1	12
452.910	1	6
453.080	1	5
453.251	1	-1
453.421	1	-3
453.592	1	1
453.762	1	0
453.933	1	-3
454.103	1	3
454.274	1	-8
454.444	1	-7
454.615	1	11
454.785	1	-2
454.956	1	1
455.126	1	-4
455.297	1	5
455.467	1	1
455.638	1	0
455.808	1	-5
455.979	1	-5
456.149	1	12
456.320	1	-1
456.490	1	0
456.661	1	3
456.831	1	6
457.001	1	-2
457.172	1	-5
457.342	1	0
457.513	1	2
457.683	1	1
457.854	1	-4
458.024	1	-4
458.195	1	-11
458.365	1	-2
458.536	1	8
458.706	1	2
458.877	1	0
459.047	1	6
459.218	1	-1
459.388	1	7
459.559	1	-4
459.729	1	0
459.899	1	-6
460.070	1	7
460.240	1	9
460.411	1	-4
460.581	1	11
460.752	1	3
460.922	1	1
461.093	1	10
461.263	1	-7
461.434	1	-7
461.604	1	-3
461.775	1	8
461.945	1	8
462.115	1	0
462.286	1	2
462.456	1	-6
462.627	1	2
462.797	1	0
462.968	1	-5
463.138	1	-9
463.309	1	1
463.479	1	-1
463.649	1	4
463.820	1	2
463.990	1	-1
464.161	1	10
464.331	1	1
464.502	1	0
464.672	1	3
464.843	1	5
465.013	1	-1
465.183	1	-15
465.354	1	-4
465.524	1	1
465.695	1	0
465.865	1	-3
466.036	1	-5
466.206	1	4
466.376	1	-6
466.547	1	2
466.717	1	2
466.888	1	9
467.058	1	-6
467.229	1	-1
467.399	1	5
467.569	1	9
467.740	1	-6
467.910	1	0
468.081	1	5
468.251	1	5
468.422	1	-3
468.592	1	6
468.762	1	-8
468.933	1	-3
469.103	1	-5
469.274	1	9
469.444	1	-7
469.614	1	-8
469.785	1	-16
469.955	1	-2
470.126	1	-9
470.296	1	-6
470.467	1	-2
470.637	1	-8
470.807	1	3
470.978	1	-2
471.148	1	5
471.319	1	-5
471.489	1	-6
471.659	1	4
471.830	1	-1
472.000	1	-4
472.171	1	6
472.341	1	3
472.511	1	-6
472.682	1	6
472.852	1	-2
473.023	1	0
473.193	1	5
473.363	1	-3
473.534	1	10
473.704	1	-10
473.875	1	5
474.045	1	-7
474.215	1	12
474.386	1	10
474.556	1	1
474.727	1	-8
474.897	1	7
475.067	1	5
475.238	1	2
475.408	1	6
475.578	1	3
475.749	1	0
475.919	1	-5
476.090	1	5
476.260	1	-3
476.430	1	5
476.601	1	2
476.771	1	-3
476.942	1	12
477.112	1	0
477.282	1	2
477.453	1	-5
477.623	1	-4
477.793	1	-9
477.964	1	-2
478.134	1	-15
478.305	1	-1
478.475	1	1
478.645	1	14
478.816	1	6
478.986	1	2
479.156	1	-2
479.327	1	-16
479.497	1	-4
479.667	1	-5
479.838	1	-4
480.008	1	8
480.179	1	1
480.349	1	-4
480.519	1	-1
480.690	1	-6
480.860	1	-6
481.030	1	-8
481.201	1	-4
481.371	1	6
481.541	1	-8
481.712	1	5
481.882	1	13
482.053	1	10
482.223	1	0
482.393	1	-5
482.564	1	8
482.734	1	-2
482.904	1	-10
483.075	1	-10
483.245	1	5
483.415	1	13
483.586	1	1
483.756	1	11
483.926	1	2
484.097	1	-3
484.267	1	-8
484.437	1	-13
484.608	1	5
484.778	1	2
484.948	1	-5
485.119	1	-3
485.289	1	3
485.459	1	13
485.630	1	-11
485.800	1	-16
485.970	1	-7
486.141	1	-2
486.311	1	-2
486.481	1	4
486.652	1	7
486.822	1	7
486.992	1	4
487.163	1	3
487.333	1	1
487.503	1	-5
487.674	1	2
487.844	1	3
488.014	1	0
488.185	1	-3
488.355	1	-3
488.525	1	5
488.696	1	2
488.866	1	3
489.036	1	13
489.207	1	-4
489.377	1	-7
489.547	1	-4
489.718	1	5
489.888	1	-7
490.058	1	-6
490.228	1	12
490.399	1	-1
490.569	1	6
490.739	1	-6
490.910	1	-5
491.080	1	9
491.250	1	-3
491.421	1	6
491.591	1	-1
491.761	1	2
491.932	1	8
492.102	1	-2
492.272	1	-1
492.442	1	5
492.613	1	-4
492.783	1	9
492.953	1	1
493.124	1	1
493.294	1	-2
493.464	1	11
493.635	1	-2
493.805	1	-6
493.975	1	-4
494.145	1	4
494.316	1	0
494.486	1	-1
494.656	1	-2
494.827	1	5
494.997	1	4
495.167	1	5
495.337	1	12
495.508	1	-5
495.678	1	-1
495.848	1	5
496.019	1	-1
496.189	1	8
496.359	1	-9
496.529	1	11
496.700	1	4
496.870	1	7
497.040	1	0
497.211	1	-5
497.381	1	-9
497.551	1	9
497.721	1	-4
497.892	1	3
498.062	1	4
498.232	1	2
498.403	1	5
498.573	1	3
498.743	1	1
498.913	1	2
499.084	1	-3
499.254	1	2
499.424	1	6
499.594	1	8
499.765	1	0
499.935	1	1
500.105	1	-3
500.275	1	4
500.446	1	-9
500.616	1	-14
500.786	1	-8
500.956	1	4
501.127	1	5
501.297	1	-2
501.467	1	-8
501.638	1	-3
501.808	1	8
501.978	1	6
502.148	1	2
502.319	1	-7
502.489	1	1
502.659	1	9
502.829	1	-3
503.000	1	5
503.170	1	10
503.340	1	17
503.510	1	8
503.681	1	-2
503.851	1	0
504.021	1	2
504.191	1	0
504.362	1	-4
504.532	1	13
504.702	1	-6
504.872	1	-2
505.042	1	-3
505.213	1	14
505.383	1	8
505.553	1	-7
505.723	1	-2
505.894	1	-5
506.064	1	8
506.234	1	7
506.404	1	8
506.575	1	10
506.745	1	5
506.915	1	1
507.085	1	-2
507.256	1	10
507.426	1	4
507.596	1	2
507.766	1	4
507.936	1	2
508.107	1	-5
508.277	1	-7
508.447	1	9
508.617	1	6
508.788	1	9
508.958	1	-5
509.128	1	4
509.298	1	-1
509.468	1	0
509.639	1	-5
509.809	1	-2
509.979	1	-3
510.149	1	2
510.319	1	5
510.490	1	10
510.660	1	-3
510.830	1	5
511.000	1	-2
511.171	1	2
511.341	1	-3
511.511	1	3
511.681	1	10
511.851	1	3
512.022	1	-2
512.192	1	-6
512.362	1	0
512.532	1	1
512.702	1	2
512.873	1	0
513.043	1	8
513.213	1	1
513.383	1	-4
513.553	1	-8
513.724	1	0
513.894	1	-4
514.064	1	7
514.234	1	-3
514.404	1	2
514.575	1	5
514.745	1	1
514.915	1	5
515.085	1	2
515.255	1	5
515.425	1	-7
515.596	1	-5
515.766	1	3
515.936	1	9
516.106	1	-4
516.276	1	-3
516.447	1	6
516.617	1	6
516.787	1	5
516.957	1	5
517.127	1	1
517.297	1	1
517.468	1	-6
517.638	1	0
517.808	1	-8
517.978	1	3
518.148	1	4
518.319	1	11
518.489	1	0
518.659	1	2
518.829	1	3
518.999	1	1
519.169	1	-1
519.340	1	9
519.510	1	8
519.680	1	18
519.850	1	-1
520.020	1	6
520.190	1	-5
520.361	1	3
520.531	1	0
520.701	1	1
520.871	1	-5
521.041	1	13
521.211	1	-12
521.382	1	-1
521.552	1	4
521.722	1	6
521.892	1	4
522.062	1	20
522.232	1	2
522.402	1	12
522.573	1	-4
522.743	1	1
522.913	1	3
523.083	1	0
523.253	1	7
523.423	1	11
523.593	1	1
523.764	1	3
523.934	1	6
524.104	1	7
524.274	1	1
524.444	1	1
524.614	1	5
524.784	1	-1
524.955	1	1
525.125	1	4
525.295	1	1
525.465	1	10
525.635	1	-1
525.805	1	-5
525.975	1	-2
526.146	1	-8
526.316	1	6
526.486	1	-1
526.656	1	3
526.826	1	3
526.996	1	11
527.166	1	-4
527.337	1	-2
527.507	1	6
527.677	1	7
527.847	1	4
528.017	1	-3
528.187	1	0
528.357	1	6
528.527	1	10
528.698	1	8
528.868	1	4
529.038	1	6
529.208	1	-1
529.378	1	0
529.548	1	-2
529.718	1	3
529.888	1	9
530.058	1	1
530.229	1	11
530.399	1	8
530.569	1	-10
530.739	1	4
530.909	1	-3
531.079	1	6
531.249	1	5
531.419	1	3
531.589	1	-1
531.760	1	-6
531.930	1	6
532.100	1	2
532.270	1	-1
532.440	1	1
532.610	1	-6
532.780	1	7
532.950	1	-6
533.120	1	14
533.290	1	3
533.461	1	10
533.631	1	11
533.801	1	14
533.971	1	1
534.141	1	-7
534.311	1	14
534.481	1	-5
534.651	1	9
534.821	1	8
534.991	1	0
535.162	1	1
535.332	1	-2
535.502	1	1
535.672	1	3
535.842	1	7
536.012	1	8
536.182	1	-5
536.352	1	-3
536.522	1	-7
536.692	1	3
536.862	1	7
537.032	1	8
537.203	1	-7
537.373	1	7
537.543	1	1
537.713	1	16
537.883	1	-16
538.053	1	-7
538.223	1	5
538.393	1	12
538.563	1	5
538.733	1	8
538.903	1	-3
539.073	1	7
539.243	1	-2
539.413	1	4
539.584	1	-1
539.754	1	1
539.924	1	15
540.094	1	5
540.264	1	-9
540.434	1	4
540.604	1	0
540.774	1	14
540.944	1	-5
541.114	1	2
541.284	1	11
541.454	1	4
541.624	1	3
541.794	1	-1
541.964	1	3
542.134	1	14
542.305	1	5
542.475	1	14
542.645	1	1
542.815	1	8
542.985	1	-2
543.155	1	10
543.325	1	1
543.495	1	-2
543.665	1	9
543.835	1	11
544.005	1	7
544.175	1	-3
544.345	1	3
544.515	1	3
544.685	1	-4
544.855	1	9
545.025	1	-4
545.195	1	-3
545.365	1	6
545.535	1	12
545.705	1	-4
545.875	1	-2
546.045	1	-9
546.216	1	5
546.386	1	-1
546.556	1	-5
546.726	1	-12
546.896	1	-2
547.066	1	-1
547.236	1	9
547.406	1	11
547.576	1	13
547.746	1	-3
547.916	1	-9
548.086	1	0
548.256	1	1
548.426	1	3
548.596	1	-4
548.766	1	4
548.936	1	5
549.106	1	4
549.276	1	1
549.446	1	11
549.616	1	5
549.786	1	-5
549.956	1	9
550.126	1	13
550.296	1	-1
550.466	1	5
550.636	1	8
550.806	1	-2
550.976	1	2
551.146	1	1
551.316	1	3
551.486	1	7
551.656	1	4
551.826	1	14
551.996	1	14
552.166	1	0
552.336	1	3
552.506	1	9
552.676	1	14
552.846	1	1
553.016	1	6
553.186	1	13
553.356	1	11
553.526	1	2
553.696	1	14
553.866	1	2
554.036	1	8
554.206	1	9
554.376	1	2
554.546	1	2
554.716	1	6
554.886	1	1
555.056	1	-3
555.226	1	-10
555.396	1	-3
555.566	1	1
555.736	1	-3
555.906	1	5
556.076	1	0
556.246	1	9
556.416	1	-1
556.586	1	8
556.756	1	3
556.926	1	5
557.096	1	0
557.266	1	-1
557.436	1	4
557.606	1	1
557.776	1	-3
557.946	1	12
558.116	1	1
558.286	1	8
558.456	1	-2
558.626	1	8
558.796	1	-5
558.966	1	2
559.136	1	-4
559.306	1	5
559.476	1	-8
559.646	1	1
559.816	1	-5
559.986	1	-2
560.155	1	6
560.325	1	3
560.495	1	-2
560.665	1	0
560.835	1	9
561.005	1	0
561.175	1	-7
561.345	1	-1
561.515	1	1
561.685	1	10
561.855	1	-4
562.025	1	5
562.195	1	1
562.365	1	4
562.535	1	-3
562.705	1	0
562.875	1	0
563.045	1	-3
563.215	1	5
563.385	1	4
563.555	1	0
563.725	1	8
563.895	1	5
564.064	1	-6
564.234	1	7
564.404	1	10
564.574	1	9
564.744	1	8
564.914	1	7
565.084	1	2
565.254	1	2
565.424	1	6
565.594	1	9
565.764	1	1
565.934	1	5
566.104	1	7
566.274	1	5
566.444	1	1
566.614	1	5
566.783	1	-12
566.953	1	9
567.123	1	-2
567.293	1	17
567.463	1	13
567.633	1	3
567.803	1	1
567.973	1	-4
568.143	1	2
568.313	1	10
568.483	1	5
568.653	1	-3
568.823	1	-2
568.993	1	0
569.162	1	5
569.332	1	0
569.502	1	10
569.672	1	2
569.842	1	13
570.012	1	4
570.182	1	2
570.352	1	3
570.522	1	-14
570.692	1	5
570.862	1	-8
571.031	1	5
571.201	1	7
571.371	1	4
571.541	1	7
571.711	1	9
571.881	1	17
572.051	1	-4
572.221	1	4
572.391	1	-5
572.561	1	0
572.731	1	10
572.900	1	-5
573.070	1	8
573.240	1	2
573.410	1	15
573.580	1	13
573.750	1	0
573.920	1	4
574.090	1	0
574.260	1	12
574.430	1	0
574.599	1	-4
574.769	1	0
574.939	1	10
575.109	1	2
575.279	1	10
575.449	1	-5
575.619	1	7
575.789	1	-14
575.959	1	-4
576.128	1	0
576.298	1	15
576.468	1	4
576.638	1	1
576.808	1	0
576.978	1	21
577.148	1	-3
577.318	1	6
577.487	1	0
577.657	1	-2
577.827	1	0
577.997	1	3
578.167	1	-2
578.337	1	19
578.507	1	11
578.677	1	4
578.846	1	7
579.016	1	12
579.186	1	5
579.356	1	5
579.526	1	0
579.696	1	3
579.866	1	5
580.036	1	1
580.205	1	-4
580.375	1	3
580.545	1	2
580.715	1	4
580.885	1	-4
581.055	1	7
581.225	1	2
581.394	1	3
581.564	1	9
581.734	1	-2
581.904	1	11
582.074	1	-3
582.244	1	2
582.414	1	9
582.583	1	16
582.753	1	-4
582.923	1	-3
583.093	1	7
583.263	1	2
583.433	1	0
583.603	1	8
583.772	1	15
583.942	1	2
584.112	1	11
584.282	1	-2
584.452	1	3
584.622	1	3
584.791	1	-3
584.961	1	9
585.131	1	-2
585.301	1	-3
585.471	1	14
585.641	1	1
585.811	1	4
585.980	1	8
586.150	1	2
586.320	1	10
586.490	1	-3
586.660	1	7
586.830	1	2
586.999	1	6
587.169	1	7
587.339	1	5
587.509	1	5
587.679	1	11
587.849	1	4
588.018	1	11
588.188	1	2
588.358	1	-7
588.528	1	8
588.698	1	6
588.867	1	7
589.037	1	5
589.207	1	-2
589.377	1	-3
589.547	1	13
589.717	1	5
589.886	1	-13
590.056	1	-6
590.226	1	3
590.396	1	11
590.566	1	0
590.735	1	6
590.905	1	4
591.075	1	6
591.245	1	2
591.415	1	3
591.585	1	7
591.754	1	5
591.924	1	0
592.094	1	2
592.264	1	5
592.434	1	-2
592.603	1	-2
592.773	1	-2
592.943	1	8
593.113	1	5
593.283	1	-4
593.452	1	1
593.622	1	-3
593.792	1	10
593.962	1	10
594.132	1	8
594.301	1	8
594.471	1	6
594.641	1	-3
594.811	1	4
594.981	1	-5
595.150	1	0
595.320	1	0
595.490	1	11
595.660	1	0
595.829	1	11
595.999	1	-3
596.169	1	17
596.339	1	-5
596.509	1	7
596.678	1	-3
596.848	1	11
597.018	1	-4
597.188	1	1
597.358	1	12
597.527	1	-8
597.697	1	3
597.867	1	-5
598.037	1	2
598.206	1	-4
598.376	1	-3
598.546	1	3
598.716	1	8
598.885	1	-9
599.055	1	8
599.225	1	-8
599.395	1	-5
599.565	1	-5
599.734	1	0
599.904	1	3
600.074	1	2
600.244	1	-4
600.413	1	6
600.583	1	18
600.753	1	3
600.923	1	8
601.092	1	16
601.262	1	3
601.432	1	3
601.602	1	8
601.771	1	8
601.941	1	-4
602.111	1	2
602.281	1	7
602.451	1	5
602.620	1	0
602.790	1	0
602.960	1	-5
603.130	1	4
603.299	1	0
603.469	1	-7
603.639	1	-1
603.809	1	8
603.978	1	2
604.148	1	1
604.318	1	-2
604.487	1	6
604.657	1	1
604.827	1	2
604.997	1	0
605.166	1	10
605.336	1	2
605.506	1	9
605.676	1	-12
605.845	1	5
606.015	1	2
606.185	1	1
606.355	1	6
606.524	1	-1
606.694	1	1
606.864	1	11
607.034	1	-6
607.203	1	0
607.373	1	1
607.543	1	2
607.712	1	-6
607.882	1	3
608.052	1	-10
608.222	1	2
608.391	1	4
608.561	1	3
608.731	1	7
608.901	1	2
609.070	1	4
609.240	1	-2
609.410	1	11
609.579	1	10
609.749	1	0
609.919	1	14
610.089	1	0
610.258	1	4
610.428	1	5
610.598	1	-3
610.767	1	0
610.937	1	-3
611.107	1	6
611.277	1	3
611.446	1	9
611.616	1	-5
611.786	1	10
611.955	1	0
612.125	1	-2
612.295	1	-3
612.465	1	17
612.634	1	-3
612.804	1	7
612.974	1	-7
613.143	1	1
613.313	1	13
613.483	1	11
613.652	1	2
613.822	1	1
613.992	1	7
614.162	1	10
614.331	1	-2
614.501	1	-1
614.671	1	4
614.840	1	2
615.010	1	-10
615.180	1	-2
615.349	1	8
615.519	1	6
615.689	1	6
615.858	1	0
616.028	1	-2
616.198	1	10
616.368	1	5
616.537	1	-3
616.707	1	-1
616.877	1	-6
617.046	1	5
617.216	1	-4
617.386	1	-1
617.555	1	7
617.725	1	0
617.895	1	8
618.064	1	-5
618.234	1	-10
618.404	1	0
618.573	1	0
618.743	1	3
618.913	1	-3
619.082	1	-1
619.252	1	0
619.422	1	-3
619.591	1	-7
619.761	1	0
619.931	1	11
620.100	1	8
620.270	1	-8
620.440	1	2
620.609	1	1
620.779	1	-5
620.949	1	1
621.118	1	1
621.288	1	10
621.458	1	10
621.627	1	-3
621.797	1	-4
621.967	1	-3
622.136	1	13
622.306	1	-11
622.476	1	11
622.645	1	9
622.815	1	10
622.985	1	13
623.154	1	11
623.324	1	5
623.494	1	11
623.663	1	0
623.833	1	6
624.002	1	-8
624.172	1	-8
624.342	1	13
624.511	1	-1
624.681	1	5
624.851	1	-8
625.020	1	0
625.190	1	3
625.360	1	1
625.529	1	1
625.699	1	4
625.869	1	7
626.038	1	3
626.208	1	2
626.377	1	11
626.547	1	2
626.717	1	6
626.886	1	-1
627.056	1	-11
627.226	1	-4
627.395	1	6
627.565	1	3
627.735	1	2
627.904	1	1
628.074	1	11
628.243	1	7
628.413	1	-5
628.583	1	7
628.752	1	2
628.922	1	8
629.091	1	-3
629.261	1	7
629.431	1	-2
629.600	1	12
629.770	1	-7
629.940	1	8
630.109	1	-3
630.279	1	-11
630.448	1	-6
630.618	1	-2
630.788	1	6
630.957	1	5
631.127	1	5
631.297	1	-6
631.466	1	0
631.636	1	-7
631.805	1	3
631.975	1	9
632.145	1	-2
632.314	1	-2
632.484	1	-8
632.653	1	3
632.823	1	2
632.993	1	6
633.162	1	2
633.332	1	0
633.501	1	10
633.671	1	5
633.841	1	-6
634.010	1	-1
634.180	1	4
634.349	1	10
634.519	1	1
634.689	1	1
634.858	1	-6
635.028	1	9
635.197	1	0
635.367	1	6
635.537	1	-7
635.706	1	7
635.876	1	-8
636.045	1	9
636.215	1	-6
636.384	1	1
636.554	1	5
636.724	1	11
636.893	1	-6
637.063	1	8
637.232	1	-4
637.402	1	4
637.572	1	-3
637.741	1	8
637.911	1	5
638.080	1	1
638.250	1	-6
638.419	1	4
638.589	1	-8
638.759	1	-3
638.928	1	3
639.098	1	8
639.267	1	-2
639.437	1	4
639.606	1	12
639.776	1	1
639.946	1	-2
640.115	1	-7
640.285	1	11
640.454	1	-3
640.624	1	7
640.793	1	9
640.963	1	0
641.132	1	6
641.302	1	10
641.472	1	-2
641.641	1	-16
641.811	1	-8
641.980	1	1
642.150	1	4
642.319	1	6
642.489	1	6
642.659	1	7
642.828	1	2
642.998	1	1
643.167	1	1
643.337	1	4
643.506	1	-3
643.676	1	-3
643.845	1	-2
644.015	1	10
644.184	1	-1
644.354	1	8
644.524	1	-9
644.693	1	8
644.863	1	-4
645.032	1	-6
645.202	1	-2
645.371	1	2
645.541	1	4
645.710	1	-8
645.880	1	4
646.049	1	-4
646.219	1	3
646.388	1	5
646.558	1	6
646.728	1	3
646.897	1	2
647.067	1	6
647.236	1	4
647.406	1	-6
647.575	1	-3
647.745	1	-2
647.914	1	1
648.084	1	3
648.253	1	11
648.423	1	-4
648.592	1	-2
648.762	1	6
648.931	1	7
649.101	1	-4
649.270	1	-1
649.440	1	1
649.610	1	-1
649.779	1	7
649.949	1	-10
650.118	1	15
650.288	1	-5
650.457	1	3
650.627	1	-8
650.796	1	6
650.966	1	2
651.135	1	-4
651.305	1	2
651.474	1	4
651.644	1	10
651.813	1	3
651.983	1	7
652.152	1	2
652.322	1	-13
652.491	1	-2
652.661	1	-2
652.830	1	9
653.000	1	11
653.169	1	5
653.339	1	6
653.508	1	-7
653.678	1	-7
653.847	1	7
654.017	1	-2
654.186	1	-2
654.356	1	-4
654.525	1	0
654.695	1	12
654.864	1	6
655.034	1	7
655.203	1	-8
655.373	1	3
655.542	1	-5
655.712	1	6
655.881	1	1
656.051	1	-3
656.220	1	-1
656.390	1	9
656.559	1	4
656.729	1	10
656.898	1	-7
657.068	1	-2
657.237	1	-12
657.406	1	1
657.576	1	-2
657.745	1	-3
657.915	1	4
658.084	1	-1
658.254	1	-13
658.423	1	16
658.593	1	8
658.762	1	-7
658.932	1	-3
659.101	1	1
659.271	1	8
659.440	1	5
659.610	1	2
659.779	1	2
659.949	1	-1
660.118	1	0
660.288	1	6
660.457	1	5
660.626	1	3
660.796	1	-3
660.965	1	1
661.135	1	-1
661.304	1	4
661.474	1	-1
661.643	1	7
661.813	1	8
661.982	1	17
662.152	1	5
662.321	1	7
662.491	1	2
662.660	1	1
662.829	1	-3
662.999	1	-9
663.168	1	7
663.338	1	2
663.507	1	9
663.677	1	-3
663.846	1	-2
664.016	1	1
664.185	1	7
664.354	1	6
664.524	1	-7
664.693	1	5
664.863	1	1
665.032	1	4
665.202	1	11
665.371	1	1
665.541	1	-9
665.710	1	6
665.879	1	-1
666.049	1	3
666.218	1	-7
666.388	1	1
666.557	1	0
666.727	1	3
666.896	1	0
667.065	1	0
667.235	1	1
667.404	1	-5
667.574	1	-1
667.743	1	5
667.913	1	2
668.082	1	5
668.251	1	-11
668.421	1	-8
668.590	1	-1
668.760	1	-6
668.929	1	-11
669.099	1	5
669.268	1	5
669.437	1	11
669.607	1	-4
669.776	1	-7
669.946	1	4
670.115	1	9
670.285	1	-6
670.454	1	7
670.623	1	-5
670.793	1	-5
670.962	1	0
671.132	1	11
671.301	1	7
671.470	1	1
671.640	1	5
671.809	1	0
671.979	1	-6
672.148	1	-8
672.317	1	7
672.487	1	8
672.656	1	2
672.826	1	1
672.995	1	15
673.164	1	4
673.334	1	0
673.503	1	2
673.673	1	3
673.842	1	0
674.011	1	-4
674.181	1	11
674.350	1	3
674.520	1	-2
674.689	1	3
674.858	1	0
675.028	1	-2
675.197	1	-13
675.367	1	5
675.536	1	7
675.705	1	4
675.875	1	-8
676.044	1	1
676.214	1	4
676.383	1	5
676.552	1	2
676.722	1	15
676.891	1	17
677.060	1	-3
677.230	1	-2
677.399	1	2
677.569	1	-6
677.738	1	7
677.907	1	5
678.077	1	11
678.246	1	1
678.416	1	8
678.585	1	-3
678.754	1	-2
678.924	1	-5
679.093	1	14
679.262	1	-1
679.432	1	2
679.601	1	-1
679.771	1	0
679.940	1	4
680.109	1	4
680.279	1	-4
680.448	1	0
680.617	1	-1
680.787	1	-3
680.956	1	8
681.125	1	11
681.295	1	4
681.464	1	4
681.634	1	10
681.803	1	-3
681.972	1	-8
682.142	1	-2
682.311	1	11
682.480	1	6
682.650	1	10
682.819	1	-9
682.988	1	1
683.158	1	2
683.327	1	-3
683.496	1	-8
683.666	1	1
683.835	1	5
684.004	1	-1
684.174	1	-7
684.343	1	1
684.512	1	-3
684.682	1	-1
684.851	1	16
685.021	1	-1
685.190	1	-3
685.359	1	10
685.529	1	-2
685.698	1	7
685.867	1	0
686.037	1	4
686.206	1	2
686.375	1	6
686.545	1	-2
686.714	1	3
686.883	1	1
687.053	1	-1
687.222	1	2
687.391	1	0
687.561	1	9
687.730	1	-7
687.899	1	9
688.069	1	-4
688.238	1	7
688.407	1	-4
688.577	1	3
688.746	1	0
