340.368	1	-2
340.539	1	-6
340.710	1	-9
340.881	1	-5
341.052	1	7
341.223	1	-4
341.394	1	-4
341.565	1	0
341.737	1	10
341.908	1	6
342.079	1	-1
342.250	1	-12
342.421	1	-4
342.592	1	6
342.763	1	1
342.934	1	0
343.105	1	8
343.276	1	-1
343.447	1	-3
343.618	1	3
343.789	1	-4
343.960	1	-1
344.131	1	1
344.302	1	3
344.473	1	-2
344.644	1	15
344.815	1	0
344.986	1	6
345.157	1	-3
345.328	1	5
345.499	1	4
345.670	1	0
345.841	1	13
346.012	1	1
346.183	1	0
346.354	1	-3
346.526	1	2
346.697	1	8
346.868	1	8
347.039	1	16
347.210	1	-2
347.381	1	5
347.552	1	-1
347.723	1	8
347.894	1	6
348.065	1	-3
348.236	1	11
348.407	1	9
348.578	1	4
348.749	1	11
348.920	1	0
349.091	1	-2
349.262	1	3
349.433	1	1
349.604	1	8
349.775	1	13
349.946	1	5
350.117	1	14
350.288	1	12
350.459	1	-2
350.630	1	0
350.801	1	5
350.972	1	5
351.143	1	7
351.314	1	15
351.485	1	13
351.656	1	12
351.827	1	5
351.998	1	14
352.169	1	6
352.340	1	21
352.511	1	4
352.682	1	13
352.853	1	9
353.024	1	9
353.195	1	14
353.366	1	16
353.537	1	10
353.708	1	4
353.879	1	7
354.050	1	5
354.221	1	3
354.392	1	4
354.563	1	16
354.734	1	10
354.905	1	15
355.076	1	8
355.247	1	18
355.418	1	-5
355.589	1	9
355.760	1	3
355.931	1	10
356.102	1	18
356.273	1	10
356.444	1	17
356.615	1	10
356.785	1	13
356.956	1	24
357.127	1	12
357.298	1	18
357.469	1	21
357.640	1	18
357.811	1	11
357.982	1	15
358.153	1	24
358.324	1	24
358.495	1	23
358.666	1	7
358.837	1	19
359.008	1	7
359.179	1	25
359.350	1	20
359.521	1	20
359.692	1	36
359.863	1	30
360.034	1	21
360.205	1	18
360.376	1	23
360.547	1	27
360.718	1	28
360.889	1	22
361.060	1	35
361.231	1	27
361.401	1	32
361.572	1	40
361.743	1	35
361.914	1	48
362.085	1	46
362.256	1	49
362.427	1	55
362.598	1	36
362.769	1	39
362.940	1	41
363.111	1	44
363.282	1	54
363.453	1	53
363.624	1	58
363.795	1	59
363.966	1	56
364.137	1	54
364.308	1	58
364.478	1	73
364.649	1	71
364.820	1	65
364.991	1	68
365.162	1	86
365.333	1	77
365.504	1	87
365.675	1	73
365.846	1	86
366.017	1	89
366.188	1	96
366.359	1	93
366.530	1	103
366.701	1	108
366.871	1	103
367.042	1	111
367.213	1	127
367.384	1	126
367.555	1	123
367.726	1	132
367.897	1	132
368.068	1	125
368.239	1	128
368.410	1	141
368.581	1	140
368.752	1	140
368.923	1	136
369.093	1	128
369.264	1	135
369.435	1	143
369.606	1	147
369.777	1	147
369.948	1	143
370.119	1	141
370.290	1	141
370.461	1	161
370.632	1	146
370.803	1	144
370.973	1	152
371.144	1	126
371.315	1	123
371.486	1	138
371.657	1	140
371.828	1	123
371.999	1	129
372.170	1	127
372.341	1	111
372.512	1	107
372.682	1	126
372.853	1	112
373.024	1	114
373.195	1	108
373.366	1	108
373.537	1	110
373.708	1	102
373.879	1	93
374.050	1	89
374.220	1	117
374.391	1	99
374.562	1	108
374.733	1	97
374.904	1	87
375.075	1	70
375.246	1	86
375.417	1	89
375.588	1	70
375.758	1	84
375.929	1	88
376.100	1	79
376.271	1	81
376.442	1	74
376.613	1	73
376.784	1	67
376.955	1	67
377.125	1	64
377.296	1	62
377.467	1	65
377.638	1	69
377.809	1	51
377.980	1	62
378.151	1	61
378.321	1	55
378.492	1	47
378.663	1	44
378.834	1	46
379.005	1	57
379.176	1	46
379.347	1	45
379.518	1	50
379.688	1	55
379.859	1	46
380.030	1	41
380.201	1	38
380.372	1	44
380.543	1	48
380.714	1	53
380.884	1	41
381.055	1	49
381.226	1	31
381.397	1	31
381.568	1	46
381.739	1	44
381.910	1	39
382.080	1	38
382.251	1	31
382.422	1	36
382.593	1	38
382.764	1	30
382.935	1	27
383.105	1	24
383.276	1	39
383.447	1	22
383.618	1	35
383.789	1	33
383.960	1	38
384.130	1	31
384.301	1	37
384.472	1	26
384.643	1	42
384.814	1	27
384.985	1	26
385.156	1	26
385.326	1	38
385.497	1	29
385.668	1	36
385.839	1	27
386.010	1	20
386.180	1	31
386.351	1	21
386.522	1	29
386.693	1	14
386.864	1	25
387.035	1	33
387.205	1	18
387.376	1	17
387.547	1	27
387.718	1	15
387.889	1	16
388.060	1	37
388.230	1	22
388.401	1	17
388.572	1	9
388.743	1	10
388.914	1	12
389.084	1	15
389.255	1	12
389.426	1	11
389.597	1	20
389.768	1	15
389.939	1	14
390.109	1	11
390.280	1	11
390.451	1	10
390.622	1	13
390.793	1	12
390.963	1	17
391.134	1	18
391.305	1	21
391.476	1	11
391.647	1	7
391.817	1	14
391.988	1	14
392.159	1	8
392.330	1	13
392.501	1	11
392.671	1	11
392.842	1	7
393.013	1	9
393.184	1	21
393.355	1	11
393.525	1	15
393.696	1	12
393.867	1	11
394.038	1	16
394.208	1	4
394.379	1	14
394.550	1	23
394.721	1	3
394.892	1	17
395.062	1	9
395.233	1	10
395.404	1	0
395.575	1	7
395.746	1	13
395.916	1	4
396.087	1	4
396.258	1	9
396.429	1	8
396.599	1	0
396.770	1	3
396.941	1	6
397.112	1	18
397.283	1	5
397.453	1	19
397.624	1	7
397.795	1	10
397.966	1	10
398.136	1	5
398.307	1	15
398.478	1	13
398.649	1	-1
398.819	1	12
398.990	1	8
399.161	1	22
399.332	1	13
399.503	1	22
399.673	1	8
399.844	1	11
400.015	1	-1
400.186	1	6
400.356	1	-8
400.527	1	3
400.698	1	0
400.869	1	10
401.039	1	8
401.210	1	10
401.381	1	-6
401.552	1	2
401.722	1	7
401.893	1	3
402.064	1	5
402.235	1	11
402.405	1	2
402.576	1	-5
402.747	1	4
402.918	1	8
403.088	1	7
403.259	1	13
403.430	1	-1
403.601	1	-4
403.771	1	13
403.942	1	15
404.113	1	1
404.284	1	6
404.454	1	7
404.625	1	10
404.796	1	2
404.967	1	12
405.137	1	14
405.308	1	9
405.479	1	-1
405.649	1	9
405.820	1	-7
405.991	1	0
406.162	1	11
406.332	1	-2
406.503	1	6
406.674	1	-2
406.845	1	13
407.015	1	9
407.186	1	7
407.357	1	9
407.527	1	4
407.698	1	14
407.869	1	1
408.040	1	4
408.210	1	5
408.381	1	-1
408.552	1	7
408.722	1	-5
408.893	1	2
409.064	1	-4
409.235	1	9
409.405	1	14
409.576	1	6
409.747	1	13
409.917	1	6
410.088	1	8
410.259	1	2
410.430	1	9
410.600	1	-2
410.771	1	9
410.942	1	11
411.112	1	2
411.283	1	19
411.454	1	-3
411.625	1	6
411.795	1	4
411.966	1	0
412.137	1	6
412.307	1	2
412.478	1	17
412.649	1	3
412.819	1	2
412.990	1	-3
413.161	1	4
413.332	1	-6
413.502	1	8
413.673	1	7
413.844	1	5
414.014	1	7
414.185	1	14
414.356	1	10
414.526	1	-8
414.697	1	9
414.868	1	1
415.038	1	6
415.209	1	-2
415.380	1	6
415.550	1	-2
415.721	1	8
415.892	1	3
416.063	1	-1
416.233	1	10
416.404	1	1
416.575	1	15
416.745	1	4
416.916	1	-4
417.087	1	0
417.257	1	1
417.428	1	9
417.599	1	5
417.769	1	9
417.940	1	9
418.111	1	-4
418.281	1	3
418.452	1	-1
418.623	1	-1
418.793	1	6
418.964	1	-11
419.135	1	-5
419.305	1	-10
419.476	1	10
419.647	1	1
419.817	1	15
419.988	1	3
420.159	1	2
420.329	1	-5
420.500	1	-1
420.671	1	13
420.841	1	14
421.012	1	4
421.183	1	8
421.353	1	-1
421.524	1	-3
421.695	1	3
421.865	1	4
422.036	1	9
422.206	1	-2
422.377	1	1
422.548	1	-3
422.718	1	12
422.889	1	-5
423.060	1	5
423.230	1	4
423.401	1	1
423.572	1	-4
423.742	1	6
423.913	1	3
424.084	1	0
424.254	1	-2
424.425	1	3
424.595	1	2
424.766	1	5
424.937	1	-3
425.107	1	-3
425.278	1	16
425.449	1	2
425.619	1	2
425.790	1	-4
425.961	1	0
426.131	1	1
426.302	1	5
426.472	1	4
426.643	1	13
426.814	1	2
426.984	1	7
427.155	1	-2
427.326	1	19
427.496	1	1
427.667	1	12
427.837	1	-3
428.008	1	5
428.179	1	3
428.349	1	-12
428.520	1	10
428.691	1	15
428.861	1	-1
429.032	1	9
429.202	1	10
429.373	1	6
429.544	1	4
429.714	1	0
429.885	1	16
430.055	1	-8
430.226	1	-5
430.397	1	-1
430.567	1	1
430.738	1	8
430.909	1	6
431.079	1	-2
431.250	1	5
431.420	1	-4
431.591	1	13
431.762	1	10
431.932	1	0
432.103	1	3
432.273	1	1
432.444	1	12
432.615	1	1
432.785	1	4
432.956	1	-3
433.126	1	0
433.297	1	-5
433.468	1	-7
433.638	1	4
433.809	1	13
433.979	1	2
434.150	1	4
434.320	1	9
434.491	1	-2
434.662	1	-3
434.832	1	3
435.003	1	8
435.173	1	-4
435.344	1	5
435.515	1	9
435.685	1	2
435.856	1	8
436.026	1	6
436.197	1	9
436.368	1	-1
436.538	1	0
436.709	1	0
436.879	1	-5
437.050	1	1
437.220	1	7
437.391	1	12
437.562	1	12
437.732	1	-1
437.903	1	3
438.073	1	7
438.244	1	5
438.414	1	2
438.585	1	2
438.756	1	-5
438.926	1	7
439.097	1	-3
439.267	1	8
439.438	1	-1
439.608	1	-1
439.779	1	4
439.949	1	9
440.120	1	3
440.291	1	0
440.461	1	-4
440.632	1	3
440.802	1	0
440.973	1	3
441.143	1	15
441.314	1	-3
441.485	1	5
441.655	1	6
441.826	1	2
441.996	1	4
442.167	1	5
442.337	1	4
442.508	1	0
442.678	1	-2
442.849	1	10
443.019	1	9
443.190	1	7
443.361	1	-2
443.531	1	6
443.702	1	2
443.872	1	10
444.043	1	2
444.213	1	-2
444.384	1	-5
444.554	1	17
444.725	1	5
444.895	1	1
445.066	1	-1
445.237	1	-4
445.407	1	6
445.578	1	-7
445.748	1	3
445.919	1	-5
446.089	1	11
446.260	1	-4
446.430	1	-4
446.601	1	0
446.771	1	13
446.942	1	5
447.112	1	-4
447.283	1	5
447.453	1	-6
447.624	1	11
447.794	1	5
447.965	1	3
448.135	1	5
448.306	1	8
448.477	1	-1
448.647	1	-5
448.818	1	7
448.988	1	-1
449.159	1	-7
449.329	1	0
449.500	1	1
449.670	1	6
449.841	1	12
450.011	1	3
450.182	1	10
450.352	1	-2
450.523	1	-4
450.693	1	1
450.864	1	15
451.034	1	0
451.205	1	12
451.375	1	11
451.546	1	7
451.716	1	6
451.887	1	-10
452.057	1	4
452.228	1	-10
452.398	1	-4
452.569	1	2
452.739	1	6
452.910	1	-4
453.080	1	6
453.251	1	5
453.421	1	0
453.592	1	4
453.762	1	-1
453.933	1	2
454.103	1	5
454.274	1	-2
454.444	1	-6
454.615	1	16
454.785	1	-3
454.956	1	-1
455.126	1	0
455.297	1	7
455.467	1	0
455.638	1	-2
455.808	1	3
455.979	1	6
456.149	1	3
456.320	1	2
456.490	1	7
456.661	1	16
456.831	1	6
457.001	1	2
457.172	1	0
457.342	1	13
457.513	1	3
457.683	1	3
457.854	1	0
458.024	1	8
458.195	1	-5
458.365	1	-8
458.536	1	7
458.706	1	8
458.877	1	1
459.047	1	11
459.218	1	8
459.388	1	9
459.559	1	4
459.729	1	14
459.899	1	-1
460.070	1	6
460.240	1	8
460.411	1	1
460.581	1	13
460.752	1	8
460.922	1	0
461.093	1	2
461.263	1	-4
461.434	1	0
461.604	1	-1
461.775	1	-3
461.945	1	4
462.115	1	0
462.286	1	4
462.456	1	-1
462.627	1	3
462.797	1	-1
462.968	1	1
463.138	1	-2
463.309	1	-4
463.479	1	2
463.649	1	-3
463.820	1	-5
463.990	1	0
464.161	1	8
464.331	1	-1
464.502	1	7
464.672	1	6
464.843	1	9
465.013	1	-3
465.183	1	-8
465.354	1	4
465.524	1	2
465.695	1	-1
465.865	1	-3
466.036	1	2
466.206	1	9
466.376	1	3
466.547	1	-2
466.717	1	15
466.888	1	8
467.058	1	6
467.229	1	4
467.399	1	6
467.569	1	9
467.740	1	4
467.910	1	-2
468.081	1	6
468.251	1	9
468.422	1	-3
468.592	1	0
468.762	1	3
468.933	1	0
469.103	1	2
469.274	1	9
469.444	1	-4
469.614	1	12
469.785	1	-11
469.955	1	3
470.126	1	-5
470.296	1	6
470.467	1	4
470.637	1	0
470.807	1	9
470.978	1	2
471.148	1	4
471.319	1	-5
471.489	1	3
471.659	1	2
471.830	1	3
472.000	1	-1
472.171	1	9
472.341	1	3
472.511	1	-3
472.682	1	1
472.852	1	2
473.023	1	9
473.193	1	7
473.363	1	0
473.534	1	13
473.704	1	-8
473.875	1	13
474.045	1	-9
474.215	1	12
474.386	1	12
474.556	1	3
474.727	1	-3
474.897	1	5
475.067	1	4
475.238	1	10
475.408	1	6
475.578	1	-4
475.749	1	-3
475.919	1	-10
476.090	1	16
476.260	1	7
476.430	1	9
476.601	1	1
476.771	1	-10
476.942	1	12
477.112	1	4
477.282	1	7
477.453	1	-6
477.623	1	-9
477.793	1	2
477.964	1	2
478.134	1	-4
478.305	1	8
478.475	1	-1
478.645	1	8
478.816	1	-5
478.986	1	0
479.156	1	10
479.327	1	-2
479.497	1	-9
479.667	1	4
479.838	1	6
480.008	1	-2
480.179	1	1
480.349	1	8
480.519	1	7
480.690	1	11
480.860	1	4
481.030	1	0
481.201	1	0
481.371	1	4
481.541	1	-2
481.712	1	4
481.882	1	4
482.053	1	1
482.223	1	3
482.393	1	2
482.564	1	7
482.734	1	-11
482.904	1	-7
483.075	1	5
483.245	1	7
483.415	1	6
483.586	1	4
483.756	1	12
483.926	1	4
484.097	1	5
484.267	1	2
484.437	1	-1
484.608	1	11
484.778	1	13
484.948	1	-4
485.119	1	6
485.289	1	4
485.459	1	14
485.630	1	-3
485.800	1	0
485.970	1	-2
486.141	1	-3
486.311	1	4
486.481	1	3
486.652	1	14
486.822	1	15
486.992	1	22
487.163	1	2
487.333	1	8
487.503	1	1
487.674	1	10
487.844	1	-1
488.014	1	0
488.185	1	8
488.355	1	5
488.525	1	13
488.696	1	6
488.866	1	14
489.036	1	14
489.207	1	-2
489.377	1	1
489.547	1	1
489.718	1	9
489.888	1	-7
490.058	1	1
490.228	1	9
490.399	1	5
490.569	1	19
490.739	1	2
490.910	1	1
491.080	1	18
491.250	1	-7
491.421	1	4
491.591	1	0
491.761	1	4
491.932	1	12
492.102	1	-2
492.272	1	10
492.442	1	14
492.613	1	-1
492.783	1	15
492.953	1	0
493.124	1	6
493.294	1	1
493.464	1	16
493.635	1	9
493.805	1	3
493.975	1	2
494.145	1	4
494.316	1	5
494.486	1	8
494.656	1	6
494.827	1	3
494.997	1	6
495.167	1	10
495.337	1	13
495.508	1	5
495.678	1	1
495.848	1	8
496.019	1	2
496.189	1	15
496.359	1	-1
496.529	1	2
496.700	1	10
496.870	1	11
497.040	1	0
497.211	1	-2
497.381	1	7
497.551	1	8
497.721	1	5
497.892	1	3
498.062	1	6
498.232	1	10
498.403	1	2
498.573	1	-1
498.743	1	-4
498.913	1	9
499.084	1	7
499.254	1	9
499.424	1	8
499.594	1	19
499.765	1	-4
499.935	1	11
500.105	1	3
500.275	1	3
500.446	1	-1
500.616	1	0
500.786	1	-5
500.956	1	8
501.127	1	1
501.297	1	0
501.467	1	-5
501.638	1	10
501.808	1	9
501.978	1	8
502.148	1	11
502.319	1	11
502.489	1	6
502.659	1	7
502.829	1	7
503.000	1	2
503.170	1	13
503.340	1	26
503.510	1	17
503.681	1	4
503.851	1	3
504.021	1	6
504.191	1	10
504.362	1	2
504.532	1	12
504.702	1	-2
504.872	1	1
505.042	1	7
505.213	1	10
505.383	1	-1
505.553	1	1
505.723	1	3
505.894	1	1
506.064	1	14
506.234	1	13
506.404	1	14
506.575	1	10
506.745	1	17
506.915	1	14
507.085	1	-5
507.256	1	21
507.426	1	15
507.596	1	16
507.766	1	6
507.936	1	3
508.107	1	5
508.277	1	9
508.447	1	13
508.617	1	5
508.788	1	18
508.958	1	7
509.128	1	8
509.298	1	12
509.468	1	14
509.639	1	1
509.809	1	8
509.979	1	9
510.149	1	5
510.319	1	5
510.490	1	11
510.660	1	1
510.830	1	10
511.000	1	7
511.171	1	9
511.341	1	4
511.511	1	7
511.681	1	13
511.851	1	4
512.022	1	-3
512.192	1	15
512.362	1	6
512.532	1	14
512.702	1	8
512.873	1	6
513.043	1	13
513.213	1	12
513.383	1	8
513.553	1	-4
513.724	1	10
513.894	1	4
514.064	1	16
514.234	1	8
514.404	1	6
514.575	1	17
514.745	1	4
514.915	1	6
515.085	1	11
515.255	1	15
515.425	1	-2
515.596	1	19
515.766	1	6
515.936	1	5
516.106	1	8
516.276	1	-3
516.447	1	21
516.617	1	15
516.787	1	14
516.957	1	6
517.127	1	14
517.297	1	14
517.468	1	5
517.638	1	10
517.808	1	11
517.978	1	6
518.148	1	21
518.319	1	1
518.489	1	12
518.659	1	4
518.829	1	14
518.999	1	12
519.169	1	13
519.340	1	15
519.510	1	12
519.680	1	8
519.850	1	15
520.020	1	15
520.190	1	6
520.361	1	13
520.531	1	17
520.701	1	16
520.871	1	1
521.041	1	17
521.211	1	-1
521.382	1	1
521.552	1	13
521.722	1	15
521.892	1	15
522.062	1	22
522.232	1	16
522.402	1	18
522.573	1	7
522.743	1	12
522.913	1	7
523.083	1	10
523.253	1	10
523.423	1	10
523.593	1	11
523.764	1	5
523.934	1	3
524.104	1	16
524.274	1	5
524.444	1	13
524.614	1	9
524.784	1	13
524.955	1	4
525.125	1	17
525.295	1	12
525.465	1	11
525.635	1	5
525.805	1	7
525.975	1	9
526.146	1	1
526.316	1	15
526.486	1	13
526.656	1	14
526.826	1	17
526.996	1	6
527.166	1	3
527.337	1	14
527.507	1	12
527.677	1	13
527.847	1	8
528.017	1	10
528.187	1	5
528.357	1	22
528.527	1	13
528.698	1	8
528.868	1	3
529.038	1	20
529.208	1	16
529.378	1	23
529.548	1	4
529.718	1	11
529.888	1	13
530.058	1	24
530.229	1	3
530.399	1	11
530.569	1	14
530.739	1	12
530.909	1	5
531.079	1	26
531.249	1	12
531.419	1	16
531.589	1	11
531.760	1	16
531.930	1	13
532.100	1	5
532.270	1	13
532.440	1	16
532.610	1	13
532.780	1	4
532.950	1	12
533.120	1	21
533.290	1	18
533.461	1	11
533.631	1	20
533.801	1	25
533.971	1	8
534.141	1	-1
534.311	1	23
534.481	1	8
534.651	1	6
534.821	1	15
534.991	1	20
535.162	1	14
535.332	1	11
535.502	1	13
535.672	1	25
535.842	1	18
536.012	1	15
536.182	1	14
536.352	1	9
536.522	1	14
536.692	1	19
536.862	1	20
537.032	1	28
537.203	1	2
537.373	1	13
537.543	1	12
537.713	1	22
537.883	1	4
538.053	1	5
538.223	1	18
538.393	1	22
538.563	1	15
538.733	1	9
538.903	1	4
539.073	1	6
539.243	1	16
539.413	1	7
539.584	1	9
539.754	1	13
539.924	1	19
540.094	1	13
540.264	1	12
540.434	1	15
540.604	1	18
540.774	1	20
540.944	1	16
541.114	1	7
541.284	1	18
541.454	1	12
541.624	1	20
541.794	1	24
541.964	1	21
542.134	1	23
542.305	1	22
542.475	1	16
542.645	1	15
542.815	1	15
542.985	1	18
543.155	1	15
543.325	1	14
543.495	1	13
543.665	1	20
543.835	1	21
544.005	1	17
544.175	1	7
544.345	1	14
544.515	1	5
544.685	1	18
544.855	1	16
545.025	1	16
545.195	1	10
545.365	1	19
545.535	1	24
545.705	1	11
545.875	1	3
546.045	1	2
546.216	1	21
546.386	1	23
546.556	1	10
546.726	1	0
546.896	1	6
547.066	1	19
547.236	1	22
547.406	1	16
547.576	1	30
547.746	1	0
547.916	1	8
548.086	1	23
548.256	1	13
548.426	1	11
548.596	1	26
548.766	1	17
548.936	1	15
549.106	1	10
549.276	1	9
549.446	1	23
549.616	1	13
549.786	1	11
549.956	1	29
550.126	1	19
550.296	1	13
550.466	1	16
550.636	1	22
550.806	1	7
550.976	1	27
551.146	1	25
551.316	1	21
551.486	1	24
551.656	1	25
551.826	1	16
551.996	1	26
552.166	1	7
552.336	1	15
552.506	1	17
552.676	1	32
552.846	1	21
553.016	1	22
553.186	1	16
553.356	1	26
553.526	1	9
553.696	1	22
553.866	1	29
554.036	1	6
554.206	1	22
554.376	1	22
554.546	1	18
554.716	1	19
554.886	1	24
555.056	1	22
555.226	1	14
555.396	1	13
555.566	1	19
555.736	1	13
555.906	1	24
556.076	1	10
556.246	1	18
556.416	1	14
556.586	1	14
556.756	1	10
556.926	1	16
557.096	1	13
557.266	1	8
557.436	1	11
557.606	1	20
557.776	1	15
557.946	1	26
558.116	1	16
558.286	1	18
558.456	1	8
558.626	1	18
558.796	1	16
558.966	1	15
559.136	1	23
559.306	1	10
559.476	1	9
559.646	1	11
559.816	1	6
559.986	1	6
560.155	1	20
560.325	1	11
560.495	1	19
560.665	1	6
560.835	1	16
561.005	1	8
561.175	1	23
561.345	1	18
561.515	1	8
561.685	1	11
561.855	1	2
562.025	1	10
562.195	1	18
562.365	1	22
562.535	1	20
562.705	1	9
562.875	1	17
563.045	1	25
563.215	1	24
563.385	1	5
563.555	1	18
563.725	1	10
563.895	1	20
564.064	1	12
564.234	1	19
564.404	1	7
564.574	1	12
564.744	1	20
564.914	1	12
565.084	1	22
565.254	1	21
565.424	1	15
565.594	1	33
565.764	1	16
565.934	1	20
566.104	1	15
566.274	1	17
566.444	1	10
566.614	1	8
566.783	1	10
566.953	1	15
567.123	1	22
567.293	1	26
567.463	1	26
567.633	1	19
567.803	1	10
567.973	1	8
568.143	1	9
568.313	1	25
568.483	1	22
568.653	1	15
568.823	1	18
568.993	1	25
569.162	1	15
569.332	1	16
569.502	1	14
569.672	1	14
569.842	1	23
570.012	1	13
570.182	1	20
570.352	1	14
570.522	1	6
570.692	1	19
570.862	1	9
571.031	1	15
571.201	1	25
571.371	1	6
571.541	1	24
571.711	1	15
571.881	1	21
572.051	1	11
572.221	1	13
572.391	1	7
572.561	1	14
572.731	1	20
572.900	1	14
573.070	1	8
573.240	1	15
573.410	1	19
573.580	1	18
573.750	1	6
573.920	1	18
574.090	1	4
574.260	1	20
574.430	1	14
574.599	1	13
574.769	1	15
574.939	1	18
575.109	1	25
575.279	1	25
575.449	1	6
575.619	1	13
575.789	1	11
575.959	1	14
576.128	1	15
576.298	1	28
576.468	1	16
576.638	1	18
576.808	1	11
576.978	1	17
577.148	1	29
577.318	1	18
577.487	1	9
577.657	1	13
577.827	1	15
577.997	1	13
578.167	1	13
578.337	1	27
578.507	1	13
578.677	1	14
578.846	1	15
579.016	1	23
579.186	1	16
579.356	1	12
579.526	1	10
579.696	1	22
579.866	1	14
580.036	1	7
580.205	1	6
580.375	1	10
580.545	1	22
580.715	1	19
580.885	1	13
581.055	1	24
581.225	1	16
581.394	1	10
581.564	1	26
581.734	1	7
581.904	1	24
582.074	1	13
582.244	1	2
582.414	1	22
582.583	1	24
582.753	1	13
582.923	1	13
583.093	1	13
583.263	1	14
583.433	1	17
583.603	1	30
583.772	1	16
583.942	1	13
584.112	1	13
584.282	1	9
584.452	1	18
584.622	1	18
584.791	1	10
584.961	1	14
585.131	1	9
585.301	1	5
585.471	1	20
585.641	1	5
585.811	1	18
585.980	1	11
586.150	1	8
586.320	1	18
586.490	1	19
586.660	1	24
586.830	1	17
586.999	1	11
587.169	1	6
587.339	1	21
587.509	1	8
587.679	1	22
587.849	1	19
588.018	1	20
588.188	1	13
588.358	1	11
588.528	1	12
588.698	1	23
588.867	1	15
589.037	1	14
589.207	1	14
589.377	1	14
589.547	1	10
589.717	1	14
589.886	1	7
590.056	1	13
590.226	1	17
590.396	1	19
590.566	1	7
590.735	1	14
590.905	1	3
591.075	1	15
591.245	1	13
591.415	1	13
591.585	1	14
591.754	1	14
591.924	1	12
592.094	1	9
592.264	1	18
592.434	1	6
592.603	1	20
592.773	1	8
592.943	1	9
593.113	1	9
593.283	1	16
593.452	1	11
593.622	1	16
593.792	1	19
593.962	1	12
594.132	1	5
594.301	1	15
594.471	1	18
594.641	1	12
594.811	1	9
594.981	1	4
595.150	1	5
595.320	1	22
595.490	1	14
595.660	1	19
595.829	1	9
595.999	1	4
596.169	1	19
596.339	1	18
596.509	1	15
596.678	1	5
596.848	1	22
597.018	1	6
597.188	1	9
597.358	1	9
597.527	1	15
597.697	1	14
597.867	1	6
598.037	1	16
598.206	1	12
598.376	1	15
598.546	1	3
598.716	1	12
598.885	1	-5
599.055	1	18
599.225	1	2
599.395	1	8
599.565	1	-4
599.734	1	8
599.904	1	18
600.074	1	14
600.244	1	12
600.413	1	13
600.583	1	22
600.753	1	15
600.923	1	10
601.092	1	23
601.262	1	17
601.432	1	6
601.602	1	20
601.771	1	10
601.941	1	18
602.111	1	14
602.281	1	28
602.451	1	11
602.620	1	6
602.790	1	8
602.960	1	13
603.130	1	14
603.299	1	13
603.469	1	4
603.639	1	5
603.809	1	11
603.978	1	15
604.148	1	16
604.318	1	13
604.487	1	9
604.657	1	11
604.827	1	17
604.997	1	12
605.166	1	8
605.336	1	18
605.506	1	13
605.676	1	0
605.845	1	15
606.015	1	8
606.185	1	18
606.355	1	16
606.524	1	10
606.694	1	7
606.864	1	14
607.034	1	11
607.203	1	3
607.373	1	18
607.543	1	17
607.712	1	9
607.882	1	16
608.052	1	13
608.222	1	23
608.391	1	9
608.561	1	3
608.731	1	8
608.901	1	16
609.070	1	17
609.240	1	9
609.410	1	15
609.579	1	19
609.749	1	15
609.919	1	23
610.089	1	10
610.258	1	19
610.428	1	7
610.598	1	11
610.767	1	5
610.937	1	14
611.107	1	13
611.277	1	11
611.446	1	12
611.616	1	11
611.786	1	23
611.955	1	16
612.125	1	5
612.295	1	7
612.465	1	21
612.634	1	4
612.804	1	12
612.974	1	-1
613.143	1	14
613.313	1	22
613.483	1	11
613.652	1	2
613.822	1	11
613.992	1	18
614.162	1	19
614.331	1	7
614.501	1	6
614.671	1	7
614.840	1	15
615.010	1	-5
615.180	1	2
615.349	1	21
615.519	1	0
615.689	1	21
615.858	1	12
616.028	1	5
616.198	1	18
616.368	1	8
616.537	1	3
616.707	1	1
616.877	1	16
617.046	1	9
617.216	1	1
617.386	1	8
617.555	1	12
617.725	1	-6
617.895	1	8
618.064	1	2
618.234	1	8
618.404	1	7
618.573	1	11
618.743	1	12
618.913	1	20
619.082	1	14
619.252	1	9
619.422	1	0
619.591	1	2
619.761	1	11
619.931	1	14
620.100	1	15
620.270	1	3
620.440	1	13
620.609	1	18
620.779	1	4
620.949	1	20
621.118	1	8
621.288	1	12
621.458	1	6
621.627	1	11
621.797	1	6
621.967	1	11
622.136	1	21
622.306	1	-1
622.476	1	12
622.645	1	19
622.815	1	18
622.985	1	10
623.154	1	16
623.324	1	6
623.494	1	17
623.663	1	3
623.833	1	22
624.002	1	0
624.172	1	10
624.342	1	14
624.511	1	12
624.681	1	21
624.851	1	-5
625.020	1	6
625.190	1	9
625.360	1	8
625.529	1	22
625.699	1	3
625.869	1	13
626.038	1	4
626.208	1	12
626.377	1	17
626.547	1	13
626.717	1	12
626.886	1	11
627.056	1	-3
627.226	1	20
627.395	1	15
627.565	1	8
627.735	1	12
627.904	1	9
628.074	1	6
628.243	1	8
628.413	1	16
628.583	1	4
628.752	1	9
628.922	1	12
629.091	1	8
629.261	1	12
629.431	1	0
629.600	1	13
629.770	1	0
629.940	1	11
630.109	1	1
630.279	1	11
630.448	1	9
630.618	1	1
630.788	1	9
630.957	1	12
631.127	1	16
631.297	1	10
631.466	1	10
631.636	1	-2
631.805	1	7
631.975	1	16
632.145	1	5
632.314	1	8
632.484	1	10
632.653	1	9
632.823	1	9
632.993	1	8
633.162	1	10
633.332	1	5
633.501	1	3
633.671	1	9
633.841	1	0
634.010	1	-2
634.180	1	25
634.349	1	23
634.519	1	-1
634.689	1	15
634.858	1	4
635.028	1	12
635.197	1	24
635.367	1	7
635.537	1	14
635.706	1	6
635.876	1	8
636.045	1	16
636.215	1	4
636.384	1	6
636.554	1	18
636.724	1	14
636.893	1	4
637.063	1	-2
637.232	1	9
637.402	1	14
637.572	1	1
637.741	1	7
637.911	1	9
638.080	1	6
638.250	1	-2
638.419	1	6
638.589	1	12
638.759	1	-1
638.928	1	5
639.098	1	8
639.267	1	7
639.437	1	8
639.606	1	5
639.776	1	4
639.946	1	4
640.115	1	6
640.285	1	6
640.454	1	8
640.624	1	19
640.793	1	13
640.963	1	-2
641.132	1	20
641.302	1	-4
641.472	1	13
641.641	1	-4
641.811	1	5
641.980	1	6
642.150	1	-6
642.319	1	15
642.489	1	8
642.659	1	8
642.828	1	-5
642.998	1	12
643.167	1	1
643.337	1	12
643.506	1	0
643.676	1	5
643.845	1	8
644.015	1	17
644.184	1	13
644.354	1	6
644.524	1	5
644.693	1	7
644.863	1	0
645.032	1	10
645.202	1	13
645.371	1	-2
645.541	1	10
645.710	1	4
645.880	1	6
646.049	1	-8
646.219	1	4
646.388	1	6
646.558	1	5
646.728	1	4
646.897	1	11
647.067	1	11
647.236	1	11
647.406	1	1
647.575	1	1
647.745	1	0
647.914	1	11
648.084	1	4
648.253	1	14
648.423	1	4
648.592	1	-2
648.762	1	10
648.931	1	22
649.101	1	5
649.270	1	12
649.440	1	6
649.610	1	12
649.779	1	8
649.949	1	2
650.118	1	17
650.288	1	10
650.457	1	14
650.627	1	10
650.796	1	4
650.966	1	13
651.135	1	0
651.305	1	4
651.474	1	-3
651.644	1	6
651.813	1	15
651.983	1	4
652.152	1	12
652.322	1	-1
652.491	1	11
652.661	1	11
652.830	1	11
653.000	1	12
653.169	1	6
653.339	1	11
653.508	1	6
653.678	1	9
653.847	1	15
654.017	1	4
654.186	1	2
654.356	1	7
654.525	1	1
654.695	1	11
654.864	1	12
655.034	1	6
655.203	1	-4
655.373	1	12
655.542	1	5
655.712	1	8
655.881	1	0
656.051	1	7
656.220	1	5
656.390	1	2
656.559	1	12
656.729	1	9
656.898	1	1
657.068	1	10
657.237	1	1
657.406	1	11
657.576	1	7
657.745	1	-1
657.915	1	9
658.084	1	8
658.254	1	-3
658.423	1	17
658.593	1	4
658.762	1	7
658.932	1	8
659.101	1	9
659.271	1	16
659.440	1	19
659.610	1	2
659.779	1	-1
659.949	1	-1
660.118	1	0
660.288	1	7
660.457	1	5
660.626	1	19
660.796	1	0
660.965	1	3
661.135	1	1
661.304	1	12
661.474	1	3
661.643	1	15
661.813	1	7
661.982	1	19
662.152	1	4
662.321	1	10
662.491	1	10
662.660	1	12
662.829	1	-8
662.999	1	0
663.168	1	5
663.338	1	16
663.507	1	14
663.677	1	12
663.846	1	4
664.016	1	3
664.185	1	9
664.354	1	15
664.524	1	0
664.693	1	8
664.863	1	0
665.032	1	5
665.202	1	0
665.371	1	4
665.541	1	-12
665.710	1	9
665.879	1	-7
666.049	1	2
666.218	1	7
666.388	1	16
666.557	1	2
666.727	1	-1
666.896	1	1
667.065	1	4
667.235	1	-2
667.404	1	4
667.574	1	5
667.743	1	0
667.913	1	5
668.082	1	-2
668.251	1	4
668.421	1	-1
668.590	1	14
668.760	1	1
668.929	1	-3
669.099	1	7
669.268	1	6
669.437	1	-2
669.607	1	1
669.776	1	-1
669.946	1	1
670.115	1	4
670.285	1	10
670.454	1	7
670.623	1	4
670.793	1	8
670.962	1	10
671.132	1	17
671.301	1	5
671.470	1	0
671.640	1	9
671.809	1	-6
671.979	1	1
672.148	1	0
672.317	1	10
672.487	1	9
672.656	1	5
672.826	1	3
672.995	1	24
673.164	1	15
673.334	1	9
673.503	1	9
673.673	1	10
673.842	1	2
674.011	1	1
674.181	1	14
674.350	1	0
674.520	1	7
674.689	1	10
674.858	1	11
675.028	1	7
675.197	1	5
675.367	1	9
675.536	1	10
675.705	1	11
675.875	1	7
676.044	1	1
676.214	1	3
676.383	1	8
676.552	1	7
676.722	1	10
676.891	1	19
677.060	1	3
677.230	1	7
677.399	1	0
677.569	1	6
677.738	1	6
677.907	1	3
678.077	1	11
678.246	1	5
678.416	1	11
678.585	1	3
678.754	1	5
678.924	1	3
679.093	1	12
679.262	1	2
679.432	1	-4
679.601	1	-2
679.771	1	7
679.940	1	2
680.109	1	16
680.279	1	0
680.448	1	11
680.617	1	12
680.787	1	6
680.956	1	12
681.125	1	7
681.295	1	8
681.464	1	5
681.634	1	5
681.803	1	5
681.972	1	-3
682.142	1	18
682.311	1	8
682.480	1	20
682.650	1	8
682.819	1	-1
682.988	1	5
683.158	1	3
683.327	1	0
683.496	1	13
683.666	1	1
683.835	1	12
684.004	1	13
684.174	1	9
684.343	1	7
684.512	1	10
684.682	1	1
684.851	1	12
685.021	1	1
685.190	1	1
685.359	1	25
685.529	1	3
685.698	1	13
685.867	1	5
686.037	1	6
686.206	1	4
686.375	1	14
686.545	1	1
686.714	1	4
686.883	1	6
687.053	1	14
687.222	1	14
687.391	1	8
687.561	1	11
687.730	1	6
687.899	1	11
688.069	1	13
688.238	1	17
688.407	1	4
688.577	1	2
688.746	1	5
