340.368	1	11
340.539	1	-18
340.710	1	-10
340.881	1	-3
341.052	1	10
341.223	1	-4
341.394	1	-1
341.565	1	-3
341.737	1	4
341.908	1	3
342.079	1	-3
342.250	1	-6
342.421	1	-2
342.592	1	6
342.763	1	17
342.934	1	-3
343.105	1	3
343.276	1	-7
343.447	1	-1
343.618	1	7
343.789	1	7
343.960	1	1
344.131	1	5
344.302	1	-4
344.473	1	1
344.644	1	11
344.815	1	3
344.986	1	5
345.157	1	-1
345.328	1	14
345.499	1	-2
345.670	1	-2
345.841	1	10
346.012	1	8
346.183	1	8
346.354	1	2
346.526	1	5
346.697	1	-6
346.868	1	0
347.039	1	11
347.210	1	1
347.381	1	8
347.552	1	8
347.723	1	8
347.894	1	11
348.065	1	13
348.236	1	-1
348.407	1	7
348.578	1	-5
348.749	1	5
348.920	1	2
349.091	1	-5
349.262	1	7
349.433	1	15
349.604	1	5
349.775	1	7
349.946	1	4
350.117	1	10
350.288	1	10
350.459	1	2
350.630	1	9
350.801	1	2
350.972	1	4
351.143	1	6
351.314	1	18
351.485	1	3
351.656	1	4
351.827	1	9
351.998	1	12
352.169	1	1
352.340	1	7
352.511	1	1
352.682	1	11
352.853	1	0
353.024	1	11
353.195	1	10
353.366	1	22
353.537	1	8
353.708	1	6
353.879	1	4
354.050	1	3
354.221	1	-2
354.392	1	-7
354.563	1	8
354.734	1	13
354.905	1	12
355.076	1	23
355.247	1	24
355.418	1	5
355.589	1	19
355.760	1	1
355.931	1	10
356.102	1	24
356.273	1	-2
356.444	1	2
356.615	1	11
356.785	1	11
356.956	1	10
357.127	1	10
357.298	1	18
357.469	1	12
357.640	1	18
357.811	1	13
357.982	1	15
358.153	1	16
358.324	1	12
358.495	1	23
358.666	1	19
358.837	1	9
359.008	1	-3
359.179	1	27
359.350	1	9
359.521	1	27
359.692	1	30
359.863	1	16
360.034	1	21
360.205	1	17
360.376	1	32
360.547	1	27
360.718	1	19
360.889	1	32
361.060	1	23
361.231	1	10
361.401	1	22
361.572	1	44
361.743	1	23
361.914	1	32
362.085	1	46
362.256	1	41
362.427	1	38
362.598	1	32
362.769	1	28
362.940	1	37
363.111	1	44
363.282	1	42
363.453	1	38
363.624	1	48
363.795	1	56
363.966	1	53
364.137	1	57
364.308	1	51
364.478	1	61
364.649	1	54
364.820	1	58
364.991	1	65
365.162	1	71
365.333	1	63
365.504	1	75
365.675	1	62
365.846	1	84
366.017	1	72
366.188	1	81
366.359	1	83
366.530	1	89
366.701	1	88
366.871	1	92
367.042	1	101
367.213	1	93
367.384	1	110
367.555	1	102
367.726	1	107
367.897	1	104
368.068	1	112
368.239	1	101
368.410	1	116
368.581	1	109
368.752	1	114
368.923	1	114
369.093	1	100
369.264	1	121
369.435	1	116
369.606	1	121
369.777	1	99
369.948	1	110
370.119	1	117
370.290	1	116
370.461	1	125
370.632	1	106
370.803	1	113
370.973	1	118
371.144	1	108
371.315	1	101
371.486	1	119
371.657	1	108
371.828	1	113
371.999	1	105
372.170	1	100
372.341	1	99
372.512	1	89
372.682	1	106
372.853	1	97
373.024	1	100
373.195	1	88
373.366	1	86
373.537	1	86
373.708	1	83
373.879	1	77
374.050	1	75
374.220	1	88
374.391	1	80
374.562	1	82
374.733	1	80
374.904	1	73
375.075	1	60
375.246	1	65
375.417	1	79
375.588	1	70
375.758	1	71
375.929	1	58
376.100	1	64
376.271	1	68
376.442	1	55
376.613	1	62
376.784	1	54
376.955	1	56
377.125	1	55
377.296	1	50
377.467	1	51
377.638	1	52
377.809	1	51
377.980	1	54
378.151	1	54
378.321	1	48
378.492	1	44
378.663	1	43
378.834	1	51
379.005	1	51
379.176	1	43
379.347	1	43
379.518	1	44
379.688	1	40
379.859	1	32
380.030	1	41
380.201	1	33
380.372	1	33
380.543	1	43
380.714	1	34
380.884	1	37
381.055	1	29
381.226	1	23
381.397	1	33
381.568	1	44
381.739	1	40
381.910	1	33
382.080	1	28
382.251	1	30
382.422	1	27
382.593	1	25
382.764	1	26
382.935	1	21
383.105	1	17
383.276	1	30
383.447	1	31
383.618	1	30
383.789	1	15
383.960	1	27
384.130	1	31
384.301	1	23
384.472	1	23
384.643	1	30
384.814	1	29
384.985	1	20
385.156	1	24
385.326	1	33
385.497	1	30
385.668	1	22
385.839	1	21
386.010	1	15
386.180	1	16
386.351	1	11
386.522	1	19
386.693	1	10
386.864	1	26
387.035	1	21
387.205	1	7
387.376	1	15
387.547	1	10
387.718	1	16
387.889	1	10
388.060	1	21
388.230	1	17
388.401	1	11
388.572	1	17
388.743	1	13
388.914	1	16
389.084	1	11
389.255	1	7
389.426	1	15
389.597	1	19
389.768	1	17
389.939	1	13
390.109	1	8
390.280	1	8
390.451	1	8
390.622	1	7
390.793	1	21
390.963	1	29
391.134	1	21
391.305	1	21
391.476	1	3
391.647	1	4
391.817	1	9
391.988	1	14
392.159	1	9
392.330	1	14
392.501	1	8
392.671	1	8
392.842	1	12
393.013	1	15
393.184	1	16
393.355	1	10
393.525	1	5
393.696	1	16
393.867	1	3
394.038	1	9
394.208	1	11
394.379	1	13
394.550	1	19
394.721	1	3
394.892	1	16
395.062	1	3
395.233	1	4
395.404	1	3
395.575	1	13
395.746	1	9
395.916	1	11
396.087	1	0
396.258	1	8
396.429	1	4
396.599	1	4
396.770	1	1
396.941	1	12
397.112	1	12
397.283	1	13
397.453	1	16
397.624	1	9
397.795	1	14
397.966	1	4
398.136	1	-4
398.307	1	12
398.478	1	9
398.649	1	-11
398.819	1	5
398.990	1	8
399.161	1	18
399.332	1	11
399.503	1	12
399.673	1	7
399.844	1	7
400.015	1	-4
400.186	1	7
400.356	1	-6
400.527	1	1
400.698	1	12
400.869	1	4
401.039	1	12
401.210	1	12
401.381	1	2
401.552	1	-1
401.722	1	8
401.893	1	-7
402.064	1	10
402.235	1	4
402.405	1	8
402.576	1	15
402.747	1	5
402.918	1	14
403.088	1	11
403.259	1	9
403.430	1	1
403.601	1	-5
403.771	1	11
403.942	1	26
404.113	1	-2
404.284	1	15
404.454	1	3
404.625	1	9
404.796	1	9
404.967	1	6
405.137	1	14
405.308	1	8
405.479	1	12
405.649	1	3
405.820	1	-9
405.991	1	-9
406.162	1	16
406.332	1	6
406.503	1	9
406.674	1	-3
406.845	1	1
407.015	1	4
407.186	1	5
407.357	1	-4
407.527	1	2
407.698	1	14
407.869	1	-5
408.040	1	5
408.210	1	-4
408.381	1	4
408.552	1	-1
408.722	1	-7
408.893	1	7
409.064	1	6
409.235	1	1
409.405	1	14
409.576	1	-4
409.747	1	4
409.917	1	5
410.088	1	10
410.259	1	5
410.430	1	14
410.600	1	-3
410.771	1	2
410.942	1	10
411.112	1	1
411.283	1	9
411.454	1	-2
411.625	1	8
411.795	1	-12
411.966	1	9
412.137	1	7
412.307	1	5
412.478	1	21
412.649	1	2
412.819	1	1
412.990	1	12
413.161	1	6
413.332	1	6
413.502	1	8
413.673	1	13
413.844	1	9
414.014	1	0
414.185	1	-4
414.356	1	1
414.526	1	5
414.697	1	11
414.868	1	4
415.038	1	12
415.209	1	2
415.380	1	7
415.550	1	-3
415.721	1	3
415.892	1	2
416.063	1	-3
416.233	1	2
416.404	1	-2
416.575	1	23
416.745	1	0
416.916	1	-1
417.087	1	5
417.257	1	4
417.428	1	6
417.599	1	5
417.769	1	11
417.940	1	5
418.111	1	2
418.281	1	7
418.452	1	-3
418.623	1	1
418.793	1	0
418.964	1	-5
419.135	1	4
419.305	1	9
419.476	1	5
419.647	1	-9
419.817	1	8
419.988	1	-3
420.159	1	10
420.329	1	-8
420.500	1	4
420.671	1	13
420.841	1	14
421.012	1	13
421.183	1	3
421.353	1	-1
421.524	1	-3
421.695	1	2
421.865	1	4
422.036	1	0
422.206	1	-2
422.377	1	0
422.548	1	2
422.718	1	3
422.889	1	-6
423.060	1	2
423.230	1	-2
423.401	1	5
423.572	1	7
423.742	1	8
423.913	1	1
424.084	1	-2
424.254	1	0
424.425	1	9
424.595	1	5
424.766	1	1
424.937	1	-1
425.107	1	1
425.278	1	6
425.449	1	1
425.619	1	4
425.790	1	-5
425.961	1	5
426.131	1	1
426.302	1	3
426.472	1	7
426.643	1	12
426.814	1	-1
426.984	1	7
427.155	1	1
427.326	1	3
427.496	1	-7
427.667	1	3
427.837	1	-4
428.008	1	13
428.179	1	-12
428.349	1	-8
428.520	1	8
428.691	1	9
428.861	1	9
429.032	1	9
429.202	1	4
429.373	1	7
429.544	1	-4
429.714	1	8
429.885	1	-1
430.055	1	6
430.226	1	0
430.397	1	6
430.567	1	12
430.738	1	2
430.909	1	1
431.079	1	-4
431.250	1	-2
431.420	1	-2
431.591	1	10
431.762	1	2
431.932	1	6
432.103	1	3
432.273	1	1
432.444	1	6
432.615	1	-2
432.785	1	0
432.956	1	-5
433.126	1	-3
433.297	1	5
433.468	1	-4
433.638	1	-4
433.809	1	13
433.979	1	11
434.150	1	1
434.320	1	12
434.491	1	14
434.662	1	-3
434.832	1	2
435.003	1	7
435.173	1	-8
435.344	1	-1
435.515	1	12
435.685	1	7
435.856	1	2
436.026	1	7
436.197	1	-3
436.368	1	8
436.538	1	-8
436.709	1	-1
436.879	1	-4
437.050	1	6
437.220	1	6
437.391	1	8
437.562	1	9
437.732	1	-13
437.903	1	-1
438.073	1	-1
438.244	1	2
438.414	1	0
438.585	1	-4
438.756	1	6
438.926	1	6
439.097	1	-3
439.267	1	7
439.438	1	0
439.608	1	-12
439.779	1	0
439.949	1	15
440.120	1	-1
440.291	1	7
440.461	1	3
440.632	1	2
440.802	1	-5
440.973	1	-1
441.143	1	13
441.314	1	2
441.485	1	0
441.655	1	1
441.826	1	1
441.996	1	10
442.167	1	7
442.337	1	6
442.508	1	-7
442.678	1	-9
442.849	1	12
443.019	1	6
443.190	1	-3
443.361	1	-1
443.531	1	4
443.702	1	-4
443.872	1	10
444.043	1	3
444.213	1	0
444.384	1	-2
444.554	1	17
444.725	1	1
444.895	1	-1
445.066	1	-10
445.237	1	-9
445.407	1	10
445.578	1	-2
445.748	1	12
445.919	1	3
446.089	1	8
446.260	1	0
446.430	1	3
446.601	1	-4
446.771	1	10
446.942	1	-2
447.112	1	-4
447.283	1	-5
447.453	1	-6
447.624	1	7
447.794	1	2
447.965	1	8
448.135	1	2
448.306	1	3
448.477	1	4
448.647	1	-3
448.818	1	3
448.988	1	4
449.159	1	0
449.329	1	5
449.500	1	6
449.670	1	12
449.841	1	14
450.011	1	6
450.182	1	-7
450.352	1	0
450.523	1	-4
450.693	1	1
450.864	1	5
451.034	1	0
451.205	1	14
451.375	1	-6
451.546	1	10
451.716	1	-3
451.887	1	-6
452.057	1	3
452.228	1	3
452.398	1	-4
452.569	1	6
452.739	1	-2
452.910	1	9
453.080	1	7
453.251	1	10
453.421	1	-2
453.592	1	7
453.762	1	5
453.933	1	-2
454.103	1	-5
454.274	1	4
454.444	1	-8
454.615	1	14
454.785	1	0
454.956	1	3
455.126	1	-6
455.297	1	7
455.467	1	5
455.638	1	7
455.808	1	10
455.979	1	3
456.149	1	7
456.320	1	4
456.490	1	-1
456.661	1	15
456.831	1	2
457.001	1	0
457.172	1	-5
457.342	1	3
457.513	1	10
457.683	1	3
457.854	1	4
458.024	1	0
458.195	1	-3
458.365	1	-8
458.536	1	4
458.706	1	6
458.877	1	13
459.047	1	11
459.218	1	-6
459.388	1	11
459.559	1	-2
459.729	1	6
459.899	1	4
460.070	1	5
460.240	1	3
460.411	1	-4
460.581	1	20
460.752	1	1
460.922	1	3
461.093	1	0
461.263	1	-6
461.434	1	4
461.604	1	-1
461.775	1	-2
461.945	1	2
462.115	1	-2
462.286	1	2
462.456	1	-9
462.627	1	8
462.797	1	11
462.968	1	2
463.138	1	-3
463.309	1	-9
463.479	1	-5
463.649	1	3
463.820	1	5
463.990	1	-7
464.161	1	4
464.331	1	-2
464.502	1	3
464.672	1	4
464.843	1	1
465.013	1	-5
465.183	1	-4
465.354	1	11
465.524	1	1
465.695	1	0
465.865	1	4
466.036	1	11
466.206	1	13
466.376	1	-7
466.547	1	0
466.717	1	3
466.888	1	2
467.058	1	4
467.229	1	1
467.399	1	7
467.569	1	9
467.740	1	3
467.910	1	-5
468.081	1	4
468.251	1	4
468.422	1	4
468.592	1	2
468.762	1	-6
468.933	1	-1
469.103	1	-10
469.274	1	15
469.444	1	-2
469.614	1	7
469.785	1	-8
469.955	1	0
470.126	1	-12
470.296	1	7
470.467	1	-1
470.637	1	5
470.807	1	6
470.978	1	0
471.148	1	9
471.319	1	-6
471.489	1	7
471.659	1	-2
471.830	1	0
472.000	1	0
472.171	1	6
472.341	1	-2
472.511	1	-2
472.682	1	3
472.852	1	6
473.023	1	3
473.193	1	13
473.363	1	10
473.534	1	11
473.704	1	-4
473.875	1	17
474.045	1	-6
474.215	1	16
474.386	1	16
474.556	1	1
474.727	1	3
474.897	1	15
475.067	1	-1
475.238	1	5
475.408	1	6
475.578	1	-9
475.749	1	-7
475.919	1	-4
476.090	1	4
476.260	1	-2
476.430	1	10
476.601	1	1
476.771	1	4
476.942	1	16
477.112	1	-2
477.282	1	-4
477.453	1	6
477.623	1	-13
477.793	1	5
477.964	1	1
478.134	1	-10
478.305	1	7
478.475	1	2
478.645	1	17
478.816	1	1
478.986	1	-1
479.156	1	5
479.327	1	-14
479.497	1	-4
479.667	1	1
479.838	1	6
480.008	1	2
480.179	1	-5
480.349	1	-2
480.519	1	-1
480.690	1	7
480.860	1	-3
481.030	1	-4
481.201	1	0
481.371	1	2
481.541	1	0
481.712	1	10
481.882	1	11
482.053	1	0
482.223	1	4
482.393	1	6
482.564	1	8
482.734	1	7
482.904	1	-9
483.075	1	-5
483.245	1	6
483.415	1	0
483.586	1	0
483.756	1	11
483.926	1	8
484.097	1	10
484.267	1	-2
484.437	1	0
484.608	1	8
484.778	1	8
484.948	1	0
485.119	1	-4
485.289	1	0
485.459	1	17
485.630	1	-2
485.800	1	9
485.970	1	0
486.141	1	0
486.311	1	4
486.481	1	4
486.652	1	6
486.822	1	6
486.992	1	9
487.163	1	4
487.333	1	2
487.503	1	1
487.674	1	5
487.844	1	4
488.014	1	-2
488.185	1	9
488.355	1	-4
488.525	1	4
488.696	1	6
488.866	1	2
489.036	1	10
489.207	1	3
489.377	1	1
489.547	1	5
489.718	1	4
489.888	1	-2
490.058	1	0
490.228	1	6
490.399	1	3
490.569	1	15
490.739	1	10
490.910	1	2
491.080	1	6
491.250	1	1
491.421	1	0
491.591	1	1
491.761	1	-2
491.932	1	2
492.102	1	-6
492.272	1	11
492.442	1	7
492.613	1	-3
492.783	1	3
492.953	1	3
493.124	1	10
493.294	1	5
493.464	1	24
493.635	1	10
493.805	1	-1
493.975	1	1
494.145	1	9
494.316	1	10
494.486	1	13
494.656	1	3
494.827	1	9
494.997	1	8
495.167	1	2
495.337	1	9
495.508	1	-5
495.678	1	-1
495.848	1	11
496.019	1	7
496.189	1	8
496.359	1	-1
496.529	1	4
496.700	1	7
496.870	1	10
497.040	1	-1
497.211	1	-2
497.381	1	4
497.551	1	7
497.721	1	2
497.892	1	-1
498.062	1	-1
498.232	1	-2
498.403	1	-1
498.573	1	-5
498.743	1	2
498.913	1	9
499.084	1	3
499.254	1	3
499.424	1	4
499.594	1	0
499.765	1	-5
499.935	1	6
500.105	1	6
500.275	1	11
500.446	1	-6
500.616	1	8
500.786	1	-3
500.956	1	6
501.127	1	-7
501.297	1	1
501.467	1	1
501.638	1	2
501.808	1	5
501.978	1	14
502.148	1	2
502.319	1	4
502.489	1	16
502.659	1	12
502.829	1	12
503.000	1	0
503.170	1	14
503.340	1	12
503.510	1	11
503.681	1	-4
503.851	1	1
504.021	1	10
504.191	1	15
504.362	1	5
504.532	1	9
504.702	1	6
504.872	1	-1
505.042	1	-1
505.213	1	15
505.383	1	9
505.553	1	0
505.723	1	3
505.894	1	1
506.064	1	11
506.234	1	16
506.404	1	15
506.575	1	7
506.745	1	9
506.915	1	8
507.085	1	-4
507.256	1	5
507.426	1	6
507.596	1	9
507.766	1	8
507.936	1	9
508.107	1	1
508.277	1	4
508.447	1	10
508.617	1	4
508.788	1	15
508.958	1	2
509.128	1	8
509.298	1	14
509.468	1	3
509.639	1	10
509.809	1	11
509.979	1	9
510.149	1	4
510.319	1	10
510.490	1	12
510.660	1	4
510.830	1	14
511.000	1	3
511.171	1	-7
511.341	1	8
511.511	1	19
511.681	1	18
511.851	1	6
512.022	1	2
512.192	1	7
512.362	1	0
512.532	1	10
512.702	1	-4
512.873	1	8
513.043	1	12
513.213	1	4
513.383	1	-6
513.553	1	3
513.724	1	8
513.894	1	-4
514.064	1	9
514.234	1	8
514.404	1	5
514.575	1	16
514.745	1	14
514.915	1	10
515.085	1	8
515.255	1	-1
515.425	1	6
515.596	1	16
515.766	1	-10
515.936	1	3
516.106	1	4
516.276	1	-1
516.447	1	12
516.617	1	12
516.787	1	11
516.957	1	5
517.127	1	2
517.297	1	9
517.468	1	9
517.638	1	10
517.808	1	-3
517.978	1	16
518.148	1	13
518.319	1	9
518.489	1	8
518.659	1	6
518.829	1	11
518.999	1	12
519.169	1	7
519.340	1	13
519.510	1	1
519.680	1	5
519.850	1	16
520.020	1	11
520.190	1	4
520.361	1	17
520.531	1	6
520.701	1	15
520.871	1	6
521.041	1	17
521.211	1	-4
521.382	1	2
521.552	1	16
521.722	1	7
521.892	1	8
522.062	1	12
522.232	1	11
522.402	1	21
522.573	1	5
522.743	1	12
522.913	1	12
523.083	1	5
523.253	1	3
523.423	1	20
523.593	1	9
523.764	1	13
523.934	1	10
524.104	1	4
524.274	1	7
524.444	1	6
524.614	1	5
524.784	1	19
524.955	1	-2
525.125	1	14
525.295	1	3
525.465	1	18
525.635	1	4
525.805	1	7
525.975	1	8
526.146	1	8
526.316	1	16
526.486	1	13
526.656	1	3
526.826	1	10
526.996	1	4
527.166	1	8
527.337	1	4
527.507	1	9
527.677	1	4
527.847	1	9
528.017	1	1
528.187	1	13
528.357	1	11
528.527	1	12
528.698	1	13
528.868	1	5
529.038	1	13
529.208	1	12
529.378	1	12
529.548	1	3
529.718	1	12
529.888	1	17
530.058	1	12
530.229	1	13
530.399	1	16
530.569	1	3
530.739	1	14
530.909	1	0
531.079	1	19
531.249	1	3
531.419	1	9
531.589	1	7
531.760	1	18
531.930	1	13
532.100	1	6
532.270	1	8
532.440	1	6
532.610	1	3
532.780	1	13
532.950	1	11
533.120	1	16
533.290	1	17
533.461	1	19
533.631	1	12
533.801	1	15
533.971	1	4
534.141	1	6
534.311	1	18
534.481	1	9
534.651	1	4
534.821	1	26
534.991	1	13
535.162	1	16
535.332	1	4
535.502	1	4
535.672	1	14
535.842	1	16
536.012	1	15
536.182	1	10
536.352	1	10
536.522	1	5
536.692	1	6
536.862	1	15
537.032	1	23
537.203	1	2
537.373	1	13
537.543	1	8
537.713	1	15
537.883	1	12
538.053	1	13
538.223	1	11
538.393	1	14
538.563	1	14
538.733	1	12
538.903	1	2
539.073	1	4
539.243	1	12
539.413	1	12
539.584	1	7
539.754	1	17
539.924	1	21
540.094	1	12
540.264	1	7
540.434	1	6
540.604	1	10
540.774	1	17
540.944	1	8
541.114	1	7
541.284	1	14
541.454	1	10
541.624	1	17
541.794	1	13
541.964	1	18
542.134	1	14
542.305	1	19
542.475	1	16
542.645	1	9
542.815	1	-1
542.985	1	20
543.155	1	16
543.325	1	9
543.495	1	9
543.665	1	19
543.835	1	17
544.005	1	19
544.175	1	3
544.345	1	11
544.515	1	8
544.685	1	10
544.855	1	17
545.025	1	11
545.195	1	12
545.365	1	8
545.535	1	18
545.705	1	9
545.875	1	-6
546.045	1	3
546.216	1	5
546.386	1	11
546.556	1	2
546.726	1	7
546.896	1	12
547.066	1	15
547.236	1	19
547.406	1	12
547.576	1	19
547.746	1	-4
547.916	1	7
548.086	1	14
548.256	1	3
548.426	1	5
548.596	1	20
548.766	1	11
548.936	1	11
549.106	1	10
549.276	1	12
549.446	1	5
549.616	1	15
549.786	1	9
549.956	1	22
550.126	1	15
550.296	1	12
550.466	1	16
550.636	1	32
550.806	1	10
550.976	1	13
551.146	1	18
551.316	1	13
551.486	1	6
551.656	1	22
551.826	1	13
551.996	1	21
552.166	1	12
552.336	1	20
552.506	1	22
552.676	1	27
552.846	1	7
553.016	1	12
553.186	1	22
553.356	1	13
553.526	1	15
553.696	1	22
553.866	1	18
554.036	1	14
554.206	1	13
554.376	1	18
554.546	1	18
554.716	1	20
554.886	1	12
555.056	1	12
555.226	1	4
555.396	1	8
555.566	1	27
555.736	1	7
555.906	1	16
556.076	1	17
556.246	1	13
556.416	1	-4
556.586	1	12
556.756	1	13
556.926	1	9
557.096	1	9
557.266	1	9
557.436	1	10
557.606	1	16
557.776	1	5
557.946	1	26
558.116	1	7
558.286	1	12
558.456	1	12
558.626	1	14
558.796	1	9
558.966	1	8
559.136	1	24
559.306	1	5
559.476	1	10
559.646	1	12
559.816	1	5
559.986	1	10
560.155	1	10
560.325	1	3
560.495	1	11
560.665	1	9
560.835	1	13
561.005	1	-1
561.175	1	12
561.345	1	15
561.515	1	10
561.685	1	14
561.855	1	0
562.025	1	9
562.195	1	15
562.365	1	6
562.535	1	6
562.705	1	6
562.875	1	12
563.045	1	5
563.215	1	14
563.385	1	1
563.555	1	14
563.725	1	9
563.895	1	7
564.064	1	2
564.234	1	8
564.404	1	21
564.574	1	20
564.744	1	14
564.914	1	9
565.084	1	14
565.254	1	23
565.424	1	17
565.594	1	13
565.764	1	5
565.934	1	19
566.104	1	11
566.274	1	13
566.444	1	8
566.614	1	10
566.783	1	-3
566.953	1	17
567.123	1	18
567.293	1	15
567.463	1	17
567.633	1	9
567.803	1	1
567.973	1	2
568.143	1	21
568.313	1	13
568.483	1	16
568.653	1	13
568.823	1	15
568.993	1	12
569.162	1	15
569.332	1	10
569.502	1	11
569.672	1	16
569.842	1	23
570.012	1	21
570.182	1	9
570.352	1	3
570.522	1	1
570.692	1	12
570.862	1	5
571.031	1	3
571.201	1	19
571.371	1	5
571.541	1	16
571.711	1	11
571.881	1	25
572.051	1	9
572.221	1	12
572.391	1	1
572.561	1	1
572.731	1	15
572.900	1	3
573.070	1	13
573.240	1	13
573.410	1	24
573.580	1	13
573.750	1	10
573.920	1	21
574.090	1	6
574.260	1	16
574.430	1	12
574.599	1	19
574.769	1	14
574.939	1	8
575.109	1	21
575.279	1	22
575.449	1	4
575.619	1	11
575.789	1	6
575.959	1	7
576.128	1	-2
576.298	1	14
576.468	1	0
576.638	1	5
576.808	1	6
576.978	1	12
577.148	1	11
577.318	1	25
577.487	1	13
577.657	1	6
577.827	1	15
577.997	1	8
578.167	1	9
578.337	1	23
578.507	1	20
578.677	1	16
578.846	1	11
579.016	1	14
579.186	1	5
579.356	1	4
579.526	1	10
579.696	1	6
579.866	1	12
580.036	1	4
580.205	1	7
580.375	1	10
580.545	1	17
580.715	1	14
580.885	1	15
581.055	1	11
581.225	1	16
581.394	1	14
581.564	1	20
581.734	1	4
581.904	1	11
582.074	1	9
582.244	1	17
582.414	1	20
582.583	1	17
582.753	1	5
582.923	1	12
583.093	1	12
583.263	1	15
583.433	1	11
583.603	1	13
583.772	1	15
583.942	1	10
584.112	1	11
584.282	1	-1
584.452	1	18
584.622	1	11
584.791	1	9
584.961	1	15
585.131	1	18
585.301	1	5
585.471	1	22
585.641	1	10
585.811	1	21
585.980	1	14
586.150	1	7
586.320	1	15
586.490	1	21
586.660	1	15
586.830	1	17
586.999	1	15
587.169	1	12
587.339	1	14
587.509	1	9
587.679	1	25
587.849	1	18
588.018	1	17
588.188	1	20
588.358	1	2
588.528	1	14
588.698	1	11
588.867	1	15
589.037	1	15
589.207	1	12
589.377	1	12
589.547	1	17
589.717	1	16
589.886	1	5
590.056	1	7
590.226	1	23
590.396	1	15
590.566	1	-2
590.735	1	2
590.905	1	9
591.075	1	13
591.245	1	7
591.415	1	7
591.585	1	17
591.754	1	17
591.924	1	24
592.094	1	4
592.264	1	6
592.434	1	21
592.603	1	5
592.773	1	13
592.943	1	18
593.113	1	4
593.283	1	5
593.452	1	9
593.622	1	17
593.792	1	0
593.962	1	13
594.132	1	11
594.301	1	18
594.471	1	20
594.641	1	10
594.811	1	3
594.981	1	2
595.150	1	-1
595.320	1	12
595.490	1	19
595.660	1	10
595.829	1	8
595.999	1	-5
596.169	1	19
596.339	1	17
596.509	1	7
596.678	1	1
596.848	1	4
597.018	1	13
597.188	1	16
597.358	1	15
597.527	1	-5
597.697	1	5
597.867	1	9
598.037	1	6
598.206	1	7
598.376	1	5
598.546	1	8
598.716	1	17
598.885	1	-1
599.055	1	10
599.225	1	5
599.395	1	16
599.565	1	8
599.734	1	5
599.904	1	14
600.074	1	2
600.244	1	5
600.413	1	19
600.583	1	18
600.753	1	9
600.923	1	14
601.092	1	18
601.262	1	19
601.432	1	0
601.602	1	20
601.771	1	8
601.941	1	13
602.111	1	17
602.281	1	15
602.451	1	17
602.620	1	13
602.790	1	7
602.960	1	-4
603.130	1	20
603.299	1	1
603.469	1	2
603.639	1	6
603.809	1	6
603.978	1	18
604.148	1	24
604.318	1	19
604.487	1	3
604.657	1	6
604.827	1	1
604.997	1	10
605.166	1	17
605.336	1	13
605.506	1	14
605.676	1	1
605.845	1	12
606.015	1	6
606.185	1	19
606.355	1	4
606.524	1	5
606.694	1	11
606.864	1	2
607.034	1	5
607.203	1	5
607.373	1	14
607.543	1	10
607.712	1	12
607.882	1	13
608.052	1	6
608.222	1	12
608.391	1	13
608.561	1	7
608.731	1	12
608.901	1	12
609.070	1	10
609.240	1	9
609.410	1	14
609.579	1	0
609.749	1	7
609.919	1	20
610.089	1	5
610.258	1	17
610.428	1	8
610.598	1	11
610.767	1	10
610.937	1	10
611.107	1	13
611.277	1	6
611.446	1	11
611.616	1	13
611.786	1	17
611.955	1	7
612.125	1	15
612.295	1	2
612.465	1	20
612.634	1	8
612.804	1	23
612.974	1	-2
613.143	1	11
613.313	1	13
613.483	1	20
613.652	1	12
613.822	1	9
613.992	1	3
614.162	1	17
614.331	1	4
614.501	1	-2
614.671	1	13
614.840	1	-4
615.010	1	-1
615.180	1	7
615.349	1	16
615.519	1	-3
615.689	1	16
615.858	1	7
616.028	1	5
616.198	1	-2
616.368	1	12
616.537	1	-4
616.707	1	4
616.877	1	6
617.046	1	1
617.216	1	6
617.386	1	8
617.555	1	7
617.725	1	11
617.895	1	10
618.064	1	6
618.234	1	4
618.404	1	6
618.573	1	3
618.743	1	1
618.913	1	17
619.082	1	3
619.252	1	2
619.422	1	2
619.591	1	3
619.761	1	19
619.931	1	15
620.100	1	9
620.270	1	-1
620.440	1	13
620.609	1	9
620.779	1	-2
620.949	1	6
621.118	1	2
621.288	1	10
621.458	1	2
621.627	1	11
621.797	1	8
621.967	1	14
622.136	1	17
622.306	1	4
622.476	1	16
622.645	1	17
622.815	1	10
622.985	1	4
623.154	1	7
623.324	1	6
623.494	1	18
623.663	1	1
623.833	1	15
624.002	1	-4
624.172	1	5
624.342	1	18
624.511	1	0
624.681	1	11
624.851	1	-6
625.020	1	4
625.190	1	10
625.360	1	7
625.529	1	3
625.699	1	1
625.869	1	6
626.038	1	5
626.208	1	7
626.377	1	13
626.547	1	2
626.717	1	5
626.886	1	7
627.056	1	-5
627.226	1	3
627.395	1	10
627.565	1	13
627.735	1	9
627.904	1	-1
628.074	1	6
628.243	1	10
628.413	1	7
628.583	1	-4
628.752	1	3
628.922	1	8
629.091	1	7
629.261	1	14
629.431	1	1
629.600	1	9
629.770	1	-5
629.940	1	11
630.109	1	-1
630.279	1	4
630.448	1	3
630.618	1	9
630.788	1	18
630.957	1	4
631.127	1	4
631.297	1	2
631.466	1	9
631.636	1	-3
631.805	1	6
631.975	1	22
632.145	1	0
632.314	1	7
632.484	1	-1
632.653	1	13
632.823	1	0
632.993	1	1
633.162	1	12
633.332	1	10
633.501	1	4
633.671	1	7
633.841	1	-7
634.010	1	7
634.180	1	-1
634.349	1	10
634.519	1	8
634.689	1	10
634.858	1	7
635.028	1	7
635.197	1	25
635.367	1	12
635.537	1	-1
635.706	1	6
635.876	1	1
636.045	1	12
636.215	1	4
636.384	1	7
636.554	1	10
636.724	1	3
636.893	1	3
637.063	1	7
637.232	1	8
637.402	1	10
637.572	1	9
637.741	1	4
637.911	1	5
638.080	1	12
638.250	1	-1
638.419	1	11
638.589	1	1
638.759	1	8
638.928	1	6
639.098	1	8
639.267	1	15
639.437	1	15
639.606	1	9
639.776	1	3
639.946	1	9
640.115	1	9
640.285	1	15
640.454	1	5
640.624	1	9
640.793	1	13
640.963	1	11
641.132	1	16
641.302	1	-2
641.472	1	8
641.641	1	-7
641.811	1	9
641.980	1	13
642.150	1	3
642.319	1	10
642.489	1	9
642.659	1	9
642.828	1	-3
642.998	1	5
643.167	1	-10
643.337	1	7
643.506	1	-6
643.676	1	9
643.845	1	2
644.015	1	13
644.184	1	10
644.354	1	3
644.524	1	-1
644.693	1	16
644.863	1	2
645.032	1	1
645.202	1	13
645.371	1	5
645.541	1	14
645.710	1	6
645.880	1	5
646.049	1	-1
646.219	1	2
646.388	1	2
646.558	1	1
646.728	1	0
646.897	1	7
647.067	1	8
647.236	1	4
647.406	1	-8
647.575	1	2
647.745	1	3
647.914	1	4
648.084	1	2
648.253	1	12
648.423	1	2
648.592	1	4
648.762	1	6
648.931	1	7
649.101	1	5
649.270	1	2
649.440	1	6
649.610	1	7
649.779	1	5
649.949	1	-5
650.118	1	27
650.288	1	10
650.457	1	13
650.627	1	5
650.796	1	-1
650.966	1	6
651.135	1	-6
651.305	1	-1
651.474	1	3
651.644	1	14
651.813	1	12
651.983	1	4
652.152	1	10
652.322	1	-2
652.491	1	10
652.661	1	8
652.830	1	2
653.000	1	7
653.169	1	1
653.339	1	13
653.508	1	9
653.678	1	0
653.847	1	20
654.017	1	3
654.186	1	9
654.356	1	3
654.525	1	-2
654.695	1	1
654.864	1	8
655.034	1	0
655.203	1	-8
655.373	1	6
655.542	1	6
655.712	1	13
655.881	1	8
656.051	1	-3
656.220	1	-4
656.390	1	6
656.559	1	3
656.729	1	11
656.898	1	5
657.068	1	7
657.237	1	-1
657.406	1	9
657.576	1	9
657.745	1	0
657.915	1	-1
658.084	1	11
658.254	1	-4
658.423	1	14
658.593	1	11
658.762	1	2
658.932	1	1
659.101	1	9
659.271	1	8
659.440	1	7
659.610	1	0
659.779	1	-2
659.949	1	0
660.118	1	11
660.288	1	13
660.457	1	3
660.626	1	4
660.796	1	-7
660.965	1	15
661.135	1	1
661.304	1	2
661.474	1	-1
661.643	1	9
661.813	1	11
661.982	1	12
662.152	1	7
662.321	1	10
662.491	1	3
662.660	1	10
662.829	1	2
662.999	1	-12
663.168	1	3
663.338	1	18
663.507	1	20
663.677	1	5
663.846	1	-2
664.016	1	-2
664.185	1	2
664.354	1	17
664.524	1	12
664.693	1	16
664.863	1	12
665.032	1	1
665.202	1	7
665.371	1	5
665.541	1	-10
665.710	1	3
665.879	1	-10
666.049	1	7
666.218	1	4
666.388	1	13
666.557	1	5
666.727	1	5
666.896	1	1
667.065	1	1
667.235	1	4
667.404	1	1
667.574	1	-5
667.743	1	1
667.913	1	4
668.082	1	6
668.251	1	-2
668.421	1	6
668.590	1	0
668.760	1	2
668.929	1	-6
669.099	1	3
669.268	1	4
669.437	1	15
669.607	1	-2
669.776	1	-9
669.946	1	9
670.115	1	8
670.285	1	4
670.454	1	13
670.623	1	7
670.793	1	2
670.962	1	-2
671.132	1	15
671.301	1	14
671.470	1	0
671.640	1	-1
671.809	1	0
671.979	1	-5
672.148	1	12
672.317	1	5
672.487	1	4
672.656	1	-5
672.826	1	2
672.995	1	9
673.164	1	10
673.334	1	-3
673.503	1	6
673.673	1	3
673.842	1	4
674.011	1	2
674.181	1	8
674.350	1	7
674.520	1	0
674.689	1	8
674.858	1	6
675.028	1	0
675.197	1	8
675.367	1	8
675.536	1	6
675.705	1	6
675.875	1	3
676.044	1	-3
676.214	1	6
676.383	1	4
676.552	1	24
676.722	1	9
676.891	1	14
677.060	1	5
677.230	1	10
677.399	1	-5
677.569	1	2
677.738	1	-1
677.907	1	14
678.077	1	11
678.246	1	8
678.416	1	4
678.585	1	0
678.754	1	0
678.924	1	-1
679.093	1	13
679.262	1	-2
679.432	1	7
679.601	1	6
679.771	1	7
679.940	1	-3
680.109	1	16
680.279	1	-2
680.448	1	7
680.617	1	0
680.787	1	-2
680.956	1	9
681.125	1	11
681.295	1	9
681.464	1	0
681.634	1	10
681.803	1	-1
681.972	1	6
682.142	1	8
682.311	1	10
682.480	1	20
682.650	1	9
682.819	1	1
682.988	1	-2
683.158	1	2
683.327	1	2
683.496	1	10
683.666	1	8
683.835	1	10
684.004	1	15
684.174	1	6
684.343	1	6
684.512	1	10
684.682	1	3
684.851	1	13
685.021	1	2
685.190	1	2
685.359	1	13
685.529	1	3
685.698	1	12
685.867	1	6
686.037	1	3
686.206	1	2
686.375	1	17
686.545	1	6
686.714	1	-2
686.883	1	1
687.053	1	10
687.222	1	0
687.391	1	3
687.561	1	7
687.730	1	6
687.899	1	-1
688.069	1	21
688.238	1	4
688.407	1	-5
688.577	1	1
688.746	1	7
