340.368	1	8
340.539	1	-10
340.710	1	-9
340.881	1	0
341.052	1	10
341.223	1	-2
341.394	1	6
341.565	1	-3
341.737	1	6
341.908	1	5
342.079	1	6
342.250	1	-1
342.421	1	0
342.592	1	8
342.763	1	10
342.934	1	5
343.105	1	5
343.276	1	4
343.447	1	3
343.618	1	10
343.789	1	3
343.960	1	2
344.131	1	-1
344.302	1	8
344.473	1	-1
344.644	1	3
344.815	1	8
344.986	1	-8
345.157	1	1
345.328	1	6
345.499	1	1
345.670	1	2
345.841	1	5
346.012	1	7
346.183	1	1
346.354	1	9
346.526	1	-9
346.697	1	4
346.868	1	1
347.039	1	13
347.210	1	11
347.381	1	8
347.552	1	4
347.723	1	-3
347.894	1	1
348.065	1	3
348.236	1	12
348.407	1	9
348.578	1	3
348.749	1	2
348.920	1	11
349.091	1	-6
349.262	1	5
349.433	1	2
349.604	1	15
349.775	1	19
349.946	1	-4
350.117	1	12
350.288	1	5
350.459	1	9
350.630	1	2
350.801	1	7
350.972	1	10
351.143	1	-1
351.314	1	13
351.485	1	13
351.656	1	16
351.827	1	3
351.998	1	10
352.169	1	6
352.340	1	5
352.511	1	2
352.682	1	11
352.853	1	11
353.024	1	4
353.195	1	11
353.366	1	14
353.537	1	4
353.708	1	6
353.879	1	9
354.050	1	0
354.221	1	6
354.392	1	8
354.563	1	18
354.734	1	19
354.905	1	19
355.076	1	10
355.247	1	14
355.418	1	-11
355.589	1	6
355.760	1	9
355.931	1	9
356.102	1	26
356.273	1	6
356.444	1	24
356.615	1	7
356.785	1	25
356.956	1	21
357.127	1	17
357.298	1	14
357.469	1	12
357.640	1	11
357.811	1	12
357.982	1	13
358.153	1	26
358.324	1	6
358.495	1	22
358.666	1	17
358.837	1	15
359.008	1	12
359.179	1	21
359.350	1	10
359.521	1	27
359.692	1	20
359.863	1	24
360.034	1	35
360.205	1	20
360.376	1	30
360.547	1	28
360.718	1	34
360.889	1	18
361.060	1	36
361.231	1	33
361.401	1	31
361.572	1	44
361.743	1	30
361.914	1	33
362.085	1	43
362.256	1	34
362.427	1	52
362.598	1	35
362.769	1	41
362.940	1	47
363.111	1	49
363.282	1	38
363.453	1	51
363.624	1	63
363.795	1	63
363.966	1	56
364.137	1	63
364.308	1	63
364.478	1	58
364.649	1	76
364.820	1	59
364.991	1	72
365.162	1	93
365.333	1	75
365.504	1	82
365.675	1	72
365.846	1	96
366.017	1	86
366.188	1	89
366.359	1	98
366.530	1	116
366.701	1	100
366.871	1	108
367.042	1	101
367.213	1	121
367.384	1	118
367.555	1	128
367.726	1	127
367.897	1	115
368.068	1	131
368.239	1	139
368.410	1	146
368.581	1	115
368.752	1	134
368.923	1	132
369.093	1	142
369.264	1	138
369.435	1	135
369.606	1	130
369.777	1	142
369.948	1	142
370.119	1	141
370.290	1	139
370.461	1	143
370.632	1	141
370.803	1	144
370.973	1	137
371.144	1	137
371.315	1	129
371.486	1	127
371.657	1	120
371.828	1	125
371.999	1	121
372.170	1	124
372.341	1	124
372.512	1	113
372.682	1	115
372.853	1	106
373.024	1	109
373.195	1	99
373.366	1	108
373.537	1	91
373.708	1	93
373.879	1	98
374.050	1	113
374.220	1	106
374.391	1	91
374.562	1	92
374.733	1	88
374.904	1	72
375.075	1	79
375.246	1	80
375.417	1	84
375.588	1	76
375.758	1	81
375.929	1	85
376.100	1	72
376.271	1	76
376.442	1	71
376.613	1	69
376.784	1	64
376.955	1	63
377.125	1	62
377.296	1	61
377.467	1	59
377.638	1	70
377.809	1	56
377.980	1	62
378.151	1	58
378.321	1	43
378.492	1	49
378.663	1	54
378.834	1	51
379.005	1	58
379.176	1	43
379.347	1	50
379.518	1	44
379.688	1	43
379.859	1	51
380.030	1	51
380.201	1	40
380.372	1	39
380.543	1	44
380.714	1	51
380.884	1	48
381.055	1	43
381.226	1	31
381.397	1	39
381.568	1	40
381.739	1	37
381.910	1	38
382.080	1	32
382.251	1	35
382.422	1	25
382.593	1	35
382.764	1	30
382.935	1	26
383.105	1	28
383.276	1	42
383.447	1	28
383.618	1	35
383.789	1	26
383.960	1	28
384.130	1	34
384.301	1	30
384.472	1	29
384.643	1	37
384.814	1	27
384.985	1	21
385.156	1	19
385.326	1	27
385.497	1	29
385.668	1	27
385.839	1	24
386.010	1	18
386.180	1	32
386.351	1	33
386.522	1	32
386.693	1	8
386.864	1	27
387.035	1	10
387.205	1	13
387.376	1	32
387.547	1	16
387.718	1	22
387.889	1	23
388.060	1	23
388.230	1	24
388.401	1	22
388.572	1	17
388.743	1	22
388.914	1	26
389.084	1	15
389.255	1	15
389.426	1	9
389.597	1	23
389.768	1	17
389.939	1	23
390.109	1	15
390.280	1	19
390.451	1	5
390.622	1	16
390.793	1	13
390.963	1	26
391.134	1	15
391.305	1	16
391.476	1	-1
391.647	1	17
391.817	1	20
391.988	1	16
392.159	1	3
392.330	1	23
392.501	1	11
392.671	1	4
392.842	1	10
393.013	1	7
393.184	1	17
393.355	1	12
393.525	1	15
393.696	1	24
393.867	1	9
394.038	1	14
394.208	1	5
394.379	1	16
394.550	1	15
394.721	1	1
394.892	1	20
395.062	1	12
395.233	1	12
395.404	1	8
395.575	1	20
395.746	1	9
395.916	1	10
396.087	1	0
396.258	1	13
396.429	1	12
396.599	1	3
396.770	1	2
396.941	1	8
397.112	1	7
397.283	1	12
397.453	1	20
397.624	1	14
397.795	1	7
397.966	1	9
398.136	1	7
398.307	1	9
398.478	1	6
398.649	1	-7
398.819	1	16
398.990	1	15
399.161	1	15
399.332	1	5
399.503	1	8
399.673	1	4
399.844	1	1
400.015	1	10
400.186	1	3
400.356	1	1
400.527	1	8
400.698	1	6
400.869	1	3
401.039	1	11
401.210	1	16
401.381	1	-6
401.552	1	-11
401.722	1	5
401.893	1	-4
402.064	1	3
402.235	1	10
402.405	1	8
402.576	1	4
402.747	1	-5
402.918	1	11
403.088	1	20
403.259	1	10
403.430	1	-2
403.601	1	3
403.771	1	9
403.942	1	12
404.113	1	0
404.284	1	10
404.454	1	7
404.625	1	13
404.796	1	5
404.967	1	7
405.137	1	11
405.308	1	3
405.479	1	5
405.649	1	2
405.820	1	-1
405.991	1	2
406.162	1	13
406.332	1	13
406.503	1	8
406.674	1	2
406.845	1	15
407.015	1	10
407.186	1	2
407.357	1	10
407.527	1	-1
407.698	1	8
407.869	1	-6
408.040	1	1
408.210	1	4
408.381	1	14
408.552	1	2
408.722	1	-10
408.893	1	11
409.064	1	4
409.235	1	4
409.405	1	19
409.576	1	-1
409.747	1	4
409.917	1	4
410.088	1	14
410.259	1	-1
410.430	1	9
410.600	1	3
410.771	1	11
410.942	1	9
411.112	1	6
411.283	1	9
411.454	1	0
411.625	1	9
411.795	1	-1
411.966	1	8
412.137	1	9
412.307	1	3
412.478	1	9
412.649	1	2
412.819	1	6
412.990	1	7
413.161	1	0
413.332	1	8
413.502	1	-6
413.673	1	1
413.844	1	2
414.014	1	8
414.185	1	2
414.356	1	0
414.526	1	2
414.697	1	8
414.868	1	6
415.038	1	6
415.209	1	3
415.380	1	-1
415.550	1	-1
415.721	1	1
415.892	1	8
416.063	1	11
416.233	1	8
416.404	1	1
416.575	1	13
416.745	1	6
416.916	1	1
417.087	1	5
417.257	1	9
417.428	1	0
417.599	1	16
417.769	1	10
417.940	1	3
418.111	1	4
418.281	1	8
418.452	1	-3
418.623	1	4
418.793	1	4
418.964	1	-7
419.135	1	-2
419.305	1	7
419.476	1	16
419.647	1	-3
419.817	1	6
419.988	1	-2
420.159	1	8
420.329	1	-11
420.500	1	2
420.671	1	12
420.841	1	16
421.012	1	6
421.183	1	9
421.353	1	-3
421.524	1	-8
421.695	1	-4
421.865	1	13
422.036	1	-2
422.206	1	-2
422.377	1	4
422.548	1	-2
422.718	1	14
422.889	1	0
423.060	1	-5
423.230	1	7
423.401	1	7
423.572	1	0
423.742	1	6
423.913	1	-2
424.084	1	3
424.254	1	2
424.425	1	8
424.595	1	8
424.766	1	6
424.937	1	-2
425.107	1	0
425.278	1	7
425.449	1	5
425.619	1	4
425.790	1	-6
425.961	1	-1
426.131	1	7
426.302	1	5
426.472	1	4
426.643	1	16
426.814	1	4
426.984	1	6
427.155	1	1
427.326	1	9
427.496	1	2
427.667	1	13
427.837	1	0
428.008	1	6
428.179	1	-7
428.349	1	-1
428.520	1	-3
428.691	1	13
428.861	1	4
429.032	1	5
429.202	1	11
429.373	1	10
429.544	1	1
429.714	1	0
429.885	1	4
430.055	1	8
430.226	1	-11
430.397	1	1
430.567	1	3
430.738	1	0
430.909	1	9
431.079	1	-2
431.250	1	0
431.420	1	4
431.591	1	12
431.762	1	8
431.932	1	5
432.103	1	-1
432.273	1	-3
432.444	1	10
432.615	1	-5
432.785	1	-1
432.956	1	-9
433.126	1	-5
433.297	1	-1
433.468	1	-5
433.638	1	12
433.809	1	5
433.979	1	9
434.150	1	3
434.320	1	7
434.491	1	-7
434.662	1	6
434.832	1	2
435.003	1	6
435.173	1	-7
435.344	1	8
435.515	1	9
435.685	1	0
435.856	1	10
436.026	1	6
436.197	1	-3
436.368	1	0
436.538	1	-7
436.709	1	7
436.879	1	0
437.050	1	-7
437.220	1	5
437.391	1	9
437.562	1	7
437.732	1	-10
437.903	1	10
438.073	1	-3
438.244	1	6
438.414	1	-1
438.585	1	0
438.756	1	0
438.926	1	3
439.097	1	-7
439.267	1	1
439.438	1	-11
439.608	1	-2
439.779	1	10
439.949	1	10
440.120	1	-10
440.291	1	8
440.461	1	5
440.632	1	4
440.802	1	-3
440.973	1	-1
441.143	1	14
441.314	1	-5
441.485	1	3
441.655	1	3
441.826	1	-7
441.996	1	12
442.167	1	11
442.337	1	5
442.508	1	-1
442.678	1	-5
442.849	1	-1
443.019	1	12
443.190	1	7
443.361	1	6
443.531	1	3
443.702	1	-1
443.872	1	11
444.043	1	12
444.213	1	4
444.384	1	-9
444.554	1	14
444.725	1	-5
444.895	1	-7
445.066	1	-7
445.237	1	-5
445.407	1	11
445.578	1	-14
445.748	1	10
445.919	1	-6
446.089	1	7
446.260	1	1
446.430	1	9
446.601	1	-4
446.771	1	8
446.942	1	6
447.112	1	5
447.283	1	5
447.453	1	-8
447.624	1	5
447.794	1	6
447.965	1	8
448.135	1	4
448.306	1	-4
448.477	1	0
448.647	1	-6
448.818	1	0
448.988	1	-4
449.159	1	-2
449.329	1	11
449.500	1	5
449.670	1	2
449.841	1	1
450.011	1	12
450.182	1	8
450.352	1	6
450.523	1	-9
450.693	1	-5
450.864	1	0
451.034	1	-2
451.205	1	6
451.375	1	-1
451.546	1	-2
451.716	1	2
451.887	1	-1
452.057	1	2
452.228	1	2
452.398	1	1
452.569	1	-3
452.739	1	5
452.910	1	-2
453.080	1	6
453.251	1	7
453.421	1	-5
453.592	1	6
453.762	1	6
453.933	1	0
454.103	1	-1
454.274	1	-1
454.444	1	-9
454.615	1	9
454.785	1	6
454.956	1	-1
455.126	1	-3
455.297	1	17
455.467	1	5
455.638	1	1
455.808	1	2
455.979	1	3
456.149	1	9
456.320	1	-1
456.490	1	2
456.661	1	9
456.831	1	9
457.001	1	-1
457.172	1	2
457.342	1	-3
457.513	1	10
457.683	1	-10
457.854	1	1
458.024	1	0
458.195	1	4
458.365	1	2
458.536	1	9
458.706	1	9
458.877	1	8
459.047	1	9
459.218	1	2
459.388	1	10
459.559	1	8
459.729	1	6
459.899	1	-2
460.070	1	11
460.240	1	-3
460.411	1	-6
460.581	1	16
460.752	1	4
460.922	1	13
461.093	1	6
461.263	1	-7
461.434	1	2
461.604	1	-2
461.775	1	5
461.945	1	8
462.115	1	6
462.286	1	4
462.456	1	-9
462.627	1	8
462.797	1	-3
462.968	1	-4
463.138	1	-5
463.309	1	-3
463.479	1	1
463.649	1	-1
463.820	1	13
463.990	1	2
464.161	1	7
464.331	1	-5
464.502	1	11
464.672	1	-4
464.843	1	2
465.013	1	4
465.183	1	0
465.354	1	3
465.524	1	2
465.695	1	0
465.865	1	3
466.036	1	2
466.206	1	15
466.376	1	-3
466.547	1	-3
466.717	1	5
466.888	1	6
467.058	1	10
467.229	1	-1
467.399	1	7
467.569	1	12
467.740	1	-3
467.910	1	1
468.081	1	7
468.251	1	6
468.422	1	1
468.592	1	6
468.762	1	-5
468.933	1	1
469.103	1	-4
469.274	1	2
469.444	1	4
469.614	1	10
469.785	1	-9
469.955	1	-2
470.126	1	7
470.296	1	9
470.467	1	-3
470.637	1	1
470.807	1	10
470.978	1	6
471.148	1	1
471.319	1	1
471.489	1	15
471.659	1	-7
471.830	1	2
472.000	1	1
472.171	1	4
472.341	1	-2
472.511	1	-4
472.682	1	6
472.852	1	1
473.023	1	10
473.193	1	12
473.363	1	2
473.534	1	10
473.704	1	-2
473.875	1	9
474.045	1	-1
474.215	1	9
474.386	1	13
474.556	1	8
474.727	1	7
474.897	1	2
475.067	1	4
475.238	1	0
475.408	1	-7
475.578	1	-6
475.749	1	0
475.919	1	6
476.090	1	5
476.260	1	5
476.430	1	12
476.601	1	-2
476.771	1	-1
476.942	1	11
477.112	1	1
477.282	1	-4
477.453	1	-4
477.623	1	3
477.793	1	5
477.964	1	-4
478.134	1	-2
478.305	1	5
478.475	1	3
478.645	1	2
478.816	1	-1
478.986	1	-3
479.156	1	6
479.327	1	-2
479.497	1	7
479.667	1	-1
479.838	1	7
480.008	1	3
480.179	1	14
480.349	1	-2
480.519	1	6
480.690	1	10
480.860	1	-3
481.030	1	0
481.201	1	-1
481.371	1	3
481.541	1	-3
481.712	1	8
481.882	1	12
482.053	1	10
482.223	1	2
482.393	1	8
482.564	1	6
482.734	1	3
482.904	1	-6
483.075	1	3
483.245	1	8
483.415	1	3
483.586	1	6
483.756	1	8
483.926	1	-9
484.097	1	6
484.267	1	-4
484.437	1	3
484.608	1	14
484.778	1	7
484.948	1	3
485.119	1	-4
485.289	1	-4
485.459	1	14
485.630	1	-5
485.800	1	2
485.970	1	-1
486.141	1	-2
486.311	1	1
486.481	1	7
486.652	1	10
486.822	1	2
486.992	1	10
487.163	1	2
487.333	1	-2
487.503	1	9
487.674	1	15
487.844	1	5
488.014	1	5
488.185	1	14
488.355	1	3
488.525	1	-4
488.696	1	8
488.866	1	5
489.036	1	18
489.207	1	2
489.377	1	2
489.547	1	-6
489.718	1	0
489.888	1	-2
490.058	1	5
490.228	1	9
490.399	1	-4
490.569	1	16
490.739	1	0
490.910	1	6
491.080	1	9
491.250	1	-4
491.421	1	-7
491.591	1	7
491.761	1	2
491.932	1	9
492.102	1	2
492.272	1	9
492.442	1	13
492.613	1	-5
492.783	1	12
492.953	1	1
493.124	1	-2
493.294	1	0
493.464	1	17
493.635	1	2
493.805	1	-2
493.975	1	2
494.145	1	9
494.316	1	7
494.486	1	10
494.656	1	9
494.827	1	15
494.997	1	1
495.167	1	6
495.337	1	11
495.508	1	3
495.678	1	5
495.848	1	12
496.019	1	-1
496.189	1	3
496.359	1	-10
496.529	1	8
496.700	1	8
496.870	1	15
497.040	1	2
497.211	1	0
497.381	1	5
497.551	1	8
497.721	1	8
497.892	1	7
498.062	1	-1
498.232	1	3
498.403	1	6
498.573	1	6
498.743	1	3
498.913	1	3
499.084	1	4
499.254	1	6
499.424	1	13
499.594	1	12
499.765	1	3
499.935	1	11
500.105	1	5
500.275	1	2
500.446	1	0
500.616	1	-1
500.786	1	4
500.956	1	3
501.127	1	4
501.297	1	1
501.467	1	-1
501.638	1	1
501.808	1	15
501.978	1	12
502.148	1	10
502.319	1	11
502.489	1	9
502.659	1	9
502.829	1	9
503.000	1	7
503.170	1	2
503.340	1	14
503.510	1	14
503.681	1	0
503.851	1	8
504.021	1	4
504.191	1	12
504.362	1	9
504.532	1	8
504.702	1	10
504.872	1	1
505.042	1	5
505.213	1	14
505.383	1	7
505.553	1	10
505.723	1	6
505.894	1	3
506.064	1	9
506.234	1	16
506.404	1	6
506.575	1	3
506.745	1	10
506.915	1	12
507.085	1	-2
507.256	1	10
507.426	1	15
507.596	1	3
507.766	1	10
507.936	1	8
508.107	1	7
508.277	1	6
508.447	1	8
508.617	1	7
508.788	1	16
508.958	1	-7
509.128	1	21
509.298	1	12
509.468	1	4
509.639	1	5
509.809	1	8
509.979	1	8
510.149	1	6
510.319	1	9
510.490	1	14
510.660	1	7
510.830	1	12
511.000	1	-6
511.171	1	6
511.341	1	3
511.511	1	6
511.681	1	14
511.851	1	8
512.022	1	10
512.192	1	13
512.362	1	3
512.532	1	7
512.702	1	12
512.873	1	12
513.043	1	9
513.213	1	13
513.383	1	6
513.553	1	-7
513.724	1	14
513.894	1	1
514.064	1	16
514.234	1	8
514.404	1	7
514.575	1	20
514.745	1	9
514.915	1	9
515.085	1	1
515.255	1	8
515.425	1	0
515.596	1	16
515.766	1	4
515.936	1	6
516.106	1	12
516.276	1	5
516.447	1	14
516.617	1	25
516.787	1	13
516.957	1	9
517.127	1	11
517.297	1	3
517.468	1	5
517.638	1	8
517.808	1	10
517.978	1	15
518.148	1	8
518.319	1	13
518.489	1	5
518.659	1	0
518.829	1	12
518.999	1	14
519.169	1	12
519.340	1	23
519.510	1	10
519.680	1	17
519.850	1	5
520.020	1	13
520.190	1	17
520.361	1	14
520.531	1	14
520.701	1	16
520.871	1	16
521.041	1	24
521.211	1	-1
521.382	1	0
521.552	1	14
521.722	1	6
521.892	1	16
522.062	1	18
522.232	1	-3
522.402	1	20
522.573	1	7
522.743	1	6
522.913	1	14
523.083	1	8
523.253	1	18
523.423	1	11
523.593	1	3
523.764	1	6
523.934	1	6
524.104	1	10
524.274	1	8
524.444	1	14
524.614	1	16
524.784	1	15
524.955	1	11
525.125	1	8
525.295	1	12
525.465	1	20
525.635	1	12
525.805	1	10
525.975	1	17
526.146	1	14
526.316	1	24
526.486	1	7
526.656	1	13
526.826	1	16
526.996	1	17
527.166	1	5
527.337	1	4
527.507	1	17
527.677	1	20
527.847	1	12
528.017	1	4
528.187	1	14
528.357	1	7
528.527	1	12
528.698	1	19
528.868	1	14
529.038	1	14
529.208	1	9
529.378	1	25
529.548	1	2
529.718	1	18
529.888	1	16
530.058	1	12
530.229	1	13
530.399	1	16
530.569	1	6
530.739	1	14
530.909	1	11
531.079	1	10
531.249	1	7
531.419	1	10
531.589	1	13
531.760	1	14
531.930	1	19
532.100	1	4
532.270	1	15
532.440	1	14
532.610	1	12
532.780	1	12
532.950	1	18
533.120	1	15
533.290	1	23
533.461	1	18
533.631	1	18
533.801	1	18
533.971	1	7
534.141	1	2
534.311	1	21
534.481	1	0
534.651	1	6
534.821	1	19
534.991	1	19
535.162	1	19
535.332	1	20
535.502	1	7
535.672	1	16
535.842	1	26
536.012	1	12
536.182	1	19
536.352	1	4
536.522	1	7
536.692	1	5
536.862	1	14
537.032	1	28
537.203	1	7
537.373	1	12
537.543	1	12
537.713	1	10
537.883	1	10
538.053	1	13
538.223	1	22
538.393	1	24
538.563	1	16
538.733	1	11
538.903	1	13
539.073	1	9
539.243	1	11
539.413	1	4
539.584	1	18
539.754	1	22
539.924	1	19
540.094	1	14
540.264	1	10
540.434	1	14
540.604	1	7
540.774	1	10
540.944	1	12
541.114	1	1
541.284	1	16
541.454	1	13
541.624	1	29
541.794	1	13
541.964	1	23
542.134	1	21
542.305	1	17
542.475	1	18
542.645	1	12
542.815	1	12
542.985	1	13
543.155	1	16
543.325	1	4
543.495	1	10
543.665	1	24
543.835	1	29
544.005	1	23
544.175	1	6
544.345	1	9
544.515	1	4
544.685	1	10
544.855	1	9
545.025	1	15
545.195	1	11
545.365	1	24
545.535	1	19
545.705	1	6
545.875	1	17
546.045	1	3
546.216	1	21
546.386	1	26
546.556	1	14
546.726	1	4
546.896	1	11
547.066	1	15
547.236	1	15
547.406	1	25
547.576	1	24
547.746	1	10
547.916	1	11
548.086	1	11
548.256	1	11
548.426	1	6
548.596	1	12
548.766	1	20
548.936	1	15
549.106	1	12
549.276	1	5
549.446	1	10
549.616	1	11
549.786	1	15
549.956	1	28
550.126	1	27
550.296	1	10
550.466	1	16
550.636	1	26
550.806	1	15
550.976	1	20
551.146	1	14
551.316	1	26
551.486	1	15
551.656	1	14
551.826	1	34
551.996	1	28
552.166	1	21
552.336	1	22
552.506	1	12
552.676	1	27
552.846	1	23
553.016	1	21
553.186	1	24
553.356	1	27
553.526	1	15
553.696	1	17
553.866	1	19
554.036	1	22
554.206	1	26
554.376	1	15
554.546	1	27
554.716	1	11
554.886	1	28
555.056	1	24
555.226	1	4
555.396	1	15
555.566	1	18
555.736	1	8
555.906	1	22
556.076	1	20
556.246	1	17
556.416	1	8
556.586	1	6
556.756	1	15
556.926	1	21
557.096	1	9
557.266	1	11
557.436	1	22
557.606	1	16
557.776	1	20
557.946	1	26
558.116	1	3
558.286	1	15
558.456	1	16
558.626	1	17
558.796	1	12
558.966	1	12
559.136	1	12
559.306	1	7
559.476	1	4
559.646	1	3
559.816	1	10
559.986	1	6
560.155	1	18
560.325	1	7
560.495	1	24
560.665	1	10
560.835	1	19
561.005	1	19
561.175	1	23
561.345	1	17
561.515	1	23
561.685	1	13
561.855	1	4
562.025	1	23
562.195	1	13
562.365	1	8
562.535	1	20
562.705	1	14
562.875	1	6
563.045	1	11
563.215	1	12
563.385	1	3
563.555	1	18
563.725	1	12
563.895	1	15
564.064	1	5
564.234	1	13
564.404	1	21
564.574	1	24
564.744	1	11
564.914	1	17
565.084	1	10
565.254	1	20
565.424	1	16
565.594	1	21
565.764	1	14
565.934	1	28
566.104	1	10
566.274	1	22
566.444	1	19
566.614	1	14
566.783	1	11
566.953	1	17
567.123	1	13
567.293	1	29
567.463	1	17
567.633	1	22
567.803	1	14
567.973	1	10
568.143	1	5
568.313	1	18
568.483	1	21
568.653	1	19
568.823	1	18
568.993	1	14
569.162	1	24
569.332	1	3
569.502	1	9
569.672	1	21
569.842	1	19
570.012	1	12
570.182	1	7
570.352	1	15
570.522	1	7
570.692	1	27
570.862	1	13
571.031	1	12
571.201	1	32
571.371	1	7
571.541	1	21
571.711	1	18
571.881	1	38
572.051	1	-3
572.221	1	9
572.391	1	12
572.561	1	3
572.731	1	17
572.900	1	8
573.070	1	8
573.240	1	13
573.410	1	28
573.580	1	13
573.750	1	11
573.920	1	21
574.090	1	9
574.260	1	24
574.430	1	16
574.599	1	5
574.769	1	10
574.939	1	22
575.109	1	9
575.279	1	19
575.449	1	13
575.619	1	14
575.789	1	18
575.959	1	12
576.128	1	5
576.298	1	24
576.468	1	5
576.638	1	19
576.808	1	16
576.978	1	25
577.148	1	23
577.318	1	11
577.487	1	11
577.657	1	3
577.827	1	13
577.997	1	10
578.167	1	12
578.337	1	17
578.507	1	26
578.677	1	29
578.846	1	21
579.016	1	18
579.186	1	19
579.356	1	10
579.526	1	8
579.696	1	25
579.866	1	29
580.036	1	11
580.205	1	4
580.375	1	22
580.545	1	12
580.715	1	9
580.885	1	18
581.055	1	17
581.225	1	17
581.394	1	4
581.564	1	19
581.734	1	-2
581.904	1	22
582.074	1	6
582.244	1	15
582.414	1	29
582.583	1	27
582.753	1	8
582.923	1	20
583.093	1	17
583.263	1	17
583.433	1	24
583.603	1	12
583.772	1	30
583.942	1	14
584.112	1	10
584.282	1	11
584.452	1	17
584.622	1	6
584.791	1	8
584.961	1	15
585.131	1	18
585.301	1	12
585.471	1	23
585.641	1	17
585.811	1	12
585.980	1	24
586.150	1	13
586.320	1	22
586.490	1	6
586.660	1	14
586.830	1	28
586.999	1	9
587.169	1	18
587.339	1	22
587.509	1	9
587.679	1	25
587.849	1	12
588.018	1	19
588.188	1	16
588.358	1	13
588.528	1	17
588.698	1	23
588.867	1	13
589.037	1	23
589.207	1	17
589.377	1	18
589.547	1	7
589.717	1	15
589.886	1	10
590.056	1	17
590.226	1	12
590.396	1	18
590.566	1	11
590.735	1	16
590.905	1	10
591.075	1	12
591.245	1	10
591.415	1	7
591.585	1	10
591.754	1	10
591.924	1	14
592.094	1	11
592.264	1	13
592.434	1	2
592.603	1	11
592.773	1	6
592.943	1	8
593.113	1	20
593.283	1	12
593.452	1	16
593.622	1	14
593.792	1	14
593.962	1	17
594.132	1	10
594.301	1	16
594.471	1	22
594.641	1	8
594.811	1	13
594.981	1	11
595.150	1	15
595.320	1	18
595.490	1	14
595.660	1	15
595.829	1	13
595.999	1	9
596.169	1	15
596.339	1	11
596.509	1	10
596.678	1	5
596.848	1	17
597.018	1	7
597.188	1	14
597.358	1	19
597.527	1	0
597.697	1	10
597.867	1	10
598.037	1	16
598.206	1	14
598.376	1	9
598.546	1	15
598.716	1	18
598.885	1	-3
599.055	1	20
599.225	1	4
599.395	1	11
599.565	1	3
599.734	1	14
599.904	1	7
600.074	1	14
600.244	1	11
600.413	1	24
600.583	1	23
600.753	1	19
600.923	1	15
601.092	1	21
601.262	1	15
601.432	1	11
601.602	1	21
601.771	1	16
601.941	1	8
602.111	1	19
602.281	1	17
602.451	1	12
602.620	1	15
602.790	1	10
602.960	1	9
603.130	1	9
603.299	1	14
603.469	1	-1
603.639	1	6
603.809	1	20
603.978	1	6
604.148	1	11
604.318	1	20
604.487	1	14
604.657	1	13
604.827	1	14
604.997	1	9
605.166	1	14
605.336	1	15
605.506	1	2
605.676	1	5
605.845	1	15
606.015	1	20
606.185	1	26
606.355	1	10
606.524	1	0
606.694	1	13
606.864	1	22
607.034	1	3
607.203	1	12
607.373	1	26
607.543	1	18
607.712	1	10
607.882	1	21
608.052	1	15
608.222	1	12
608.391	1	12
608.561	1	10
608.731	1	15
608.901	1	15
609.070	1	17
609.240	1	10
609.410	1	22
609.579	1	16
609.749	1	13
609.919	1	12
610.089	1	6
610.258	1	16
610.428	1	12
610.598	1	13
610.767	1	3
610.937	1	11
611.107	1	18
611.277	1	14
611.446	1	12
611.616	1	10
611.786	1	19
611.955	1	13
612.125	1	13
612.295	1	17
612.465	1	16
612.634	1	6
612.804	1	7
612.974	1	8
613.143	1	21
613.313	1	9
613.483	1	4
613.652	1	17
613.822	1	19
613.992	1	3
614.162	1	23
614.331	1	3
614.501	1	6
614.671	1	14
614.840	1	0
615.010	1	5
615.180	1	3
615.349	1	18
615.519	1	8
615.689	1	25
615.858	1	13
616.028	1	10
616.198	1	15
616.368	1	14
616.537	1	8
616.707	1	13
616.877	1	15
617.046	1	11
617.216	1	1
617.386	1	13
617.555	1	15
617.725	1	4
617.895	1	11
618.064	1	9
618.234	1	7
618.404	1	7
618.573	1	7
618.743	1	13
618.913	1	14
619.082	1	7
619.252	1	3
619.422	1	2
619.591	1	6
619.761	1	14
619.931	1	26
620.100	1	10
620.270	1	2
620.440	1	5
620.609	1	13
620.779	1	2
620.949	1	10
621.118	1	13
621.288	1	17
621.458	1	12
621.627	1	12
621.797	1	4
621.967	1	12
622.136	1	16
622.306	1	5
622.476	1	3
622.645	1	18
622.815	1	18
622.985	1	9
623.154	1	17
623.324	1	6
623.494	1	24
623.663	1	3
623.833	1	11
624.002	1	-3
624.172	1	3
624.342	1	22
624.511	1	9
624.681	1	10
624.851	1	-9
625.020	1	10
625.190	1	12
625.360	1	7
625.529	1	6
625.699	1	2
625.869	1	15
626.038	1	-3
626.208	1	10
626.377	1	19
626.547	1	0
626.717	1	15
626.886	1	7
627.056	1	3
627.226	1	10
627.395	1	2
627.565	1	10
627.735	1	17
627.904	1	11
628.074	1	6
628.243	1	13
628.413	1	10
628.583	1	7
628.752	1	8
628.922	1	14
629.091	1	9
629.261	1	12
629.431	1	7
629.600	1	14
629.770	1	5
629.940	1	8
630.109	1	0
630.279	1	0
630.448	1	12
630.618	1	6
630.788	1	20
630.957	1	14
631.127	1	13
631.297	1	12
631.466	1	6
631.636	1	0
631.805	1	8
631.975	1	16
632.145	1	1
632.314	1	3
632.484	1	3
632.653	1	9
632.823	1	6
632.993	1	4
633.162	1	11
633.332	1	18
633.501	1	18
633.671	1	13
633.841	1	-5
634.010	1	0
634.180	1	10
634.349	1	14
634.519	1	12
634.689	1	11
634.858	1	8
635.028	1	14
635.197	1	15
635.367	1	6
635.537	1	-1
635.706	1	3
635.876	1	-1
636.045	1	14
636.215	1	13
636.384	1	14
636.554	1	18
636.724	1	6
636.893	1	2
637.063	1	0
637.232	1	6
637.402	1	10
637.572	1	15
637.741	1	6
637.911	1	10
638.080	1	2
638.250	1	7
638.419	1	6
638.589	1	2
638.759	1	8
638.928	1	9
639.098	1	12
639.267	1	5
639.437	1	12
639.606	1	11
639.776	1	4
639.946	1	11
640.115	1	3
640.285	1	11
640.454	1	4
640.624	1	3
640.793	1	12
640.963	1	14
641.132	1	4
641.302	1	2
641.472	1	16
641.641	1	-2
641.811	1	9
641.980	1	15
642.150	1	-2
642.319	1	12
642.489	1	8
642.659	1	12
642.828	1	9
642.998	1	7
643.167	1	4
643.337	1	7
643.506	1	-2
643.676	1	11
643.845	1	2
644.015	1	7
644.184	1	4
644.354	1	4
644.524	1	13
644.693	1	13
644.863	1	1
645.032	1	1
645.202	1	7
645.371	1	7
645.541	1	11
645.710	1	4
645.880	1	17
646.049	1	1
646.219	1	3
646.388	1	14
646.558	1	2
646.728	1	12
646.897	1	7
647.067	1	9
647.236	1	6
647.406	1	2
647.575	1	13
647.745	1	9
647.914	1	0
648.084	1	1
648.253	1	16
648.423	1	9
648.592	1	2
648.762	1	10
648.931	1	23
649.101	1	8
649.270	1	9
649.440	1	6
649.610	1	-5
649.779	1	12
649.949	1	-2
650.118	1	17
650.288	1	8
650.457	1	20
650.627	1	6
650.796	1	9
650.966	1	5
651.135	1	13
651.305	1	14
651.474	1	2
651.644	1	18
651.813	1	-2
651.983	1	3
652.152	1	11
652.322	1	7
652.491	1	4
652.661	1	5
652.830	1	13
653.000	1	4
653.169	1	8
653.339	1	13
653.508	1	4
653.678	1	5
653.847	1	18
654.017	1	3
654.186	1	6
654.356	1	0
654.525	1	4
654.695	1	8
654.864	1	1
655.034	1	11
655.203	1	-4
655.373	1	16
655.542	1	9
655.712	1	13
655.881	1	-4
656.051	1	15
656.220	1	-8
656.390	1	5
656.559	1	8
656.729	1	7
656.898	1	4
657.068	1	8
657.237	1	1
657.406	1	17
657.576	1	7
657.745	1	6
657.915	1	-1
658.084	1	13
658.254	1	-3
658.423	1	9
658.593	1	11
658.762	1	7
658.932	1	4
659.101	1	14
659.271	1	10
659.440	1	6
659.610	1	3
659.779	1	7
659.949	1	0
660.118	1	6
660.288	1	10
660.457	1	9
660.626	1	12
660.796	1	1
660.965	1	5
661.135	1	5
661.304	1	7
661.474	1	0
661.643	1	15
661.813	1	17
661.982	1	23
662.152	1	12
662.321	1	12
662.491	1	-3
662.660	1	14
662.829	1	3
662.999	1	7
663.168	1	14
663.338	1	14
663.507	1	16
663.677	1	10
663.846	1	-5
664.016	1	4
664.185	1	16
664.354	1	8
664.524	1	9
664.693	1	15
664.863	1	2
665.032	1	10
665.202	1	11
665.371	1	0
665.541	1	0
665.710	1	2
665.879	1	-2
666.049	1	-3
666.218	1	3
666.388	1	11
666.557	1	4
666.727	1	4
666.896	1	-1
667.065	1	7
667.235	1	15
667.404	1	11
667.574	1	4
667.743	1	4
667.913	1	16
668.082	1	6
668.251	1	0
668.421	1	6
668.590	1	6
668.760	1	0
668.929	1	-2
669.099	1	-8
669.268	1	3
669.437	1	10
669.607	1	-1
669.776	1	-7
669.946	1	2
670.115	1	6
670.285	1	9
670.454	1	10
670.623	1	10
670.793	1	5
670.962	1	5
671.132	1	14
671.301	1	5
671.470	1	1
671.640	1	8
671.809	1	-6
671.979	1	8
672.148	1	2
672.317	1	11
672.487	1	13
672.656	1	4
672.826	1	9
672.995	1	16
673.164	1	5
673.334	1	14
673.503	1	-1
673.673	1	3
673.842	1	1
674.011	1	2
674.181	1	11
674.350	1	9
674.520	1	4
674.689	1	6
674.858	1	9
675.028	1	-3
675.197	1	6
675.367	1	10
675.536	1	13
675.705	1	12
675.875	1	-1
676.044	1	3
676.214	1	8
676.383	1	9
676.552	1	16
676.722	1	3
676.891	1	16
677.060	1	-7
677.230	1	5
677.399	1	-4
677.569	1	-1
677.738	1	-3
677.907	1	14
678.077	1	6
678.246	1	7
678.416	1	2
678.585	1	7
678.754	1	4
678.924	1	9
679.093	1	5
679.262	1	14
679.432	1	3
679.601	1	7
679.771	1	12
679.940	1	0
680.109	1	14
680.279	1	6
680.448	1	8
680.617	1	3
680.787	1	12
680.956	1	14
681.125	1	8
681.295	1	2
681.464	1	7
681.634	1	2
681.803	1	6
681.972	1	7
682.142	1	14
682.311	1	14
682.480	1	12
682.650	1	7
682.819	1	9
682.988	1	1
683.158	1	4
683.327	1	2
683.496	1	5
683.666	1	3
683.835	1	6
684.004	1	18
684.174	1	2
684.343	1	-3
684.512	1	7
684.682	1	8
684.851	1	11
685.021	1	6
685.190	1	6
685.359	1	13
685.529	1	0
685.698	1	11
685.867	1	-1
686.037	1	7
686.206	1	-8
686.375	1	22
686.545	1	-3
686.714	1	4
686.883	1	1
687.053	1	6
687.222	1	12
687.391	1	-2
687.561	1	12
687.730	1	9
687.899	1	8
688.069	1	8
688.238	1	5
688.407	1	6
688.577	1	8
688.746	1	7
