340.368	1	-2
340.539	1	-15
340.710	1	-2
340.881	1	-13
341.052	1	10
341.223	1	-1
341.394	1	-4
341.565	1	-10
341.737	1	2
341.908	1	3
342.079	1	4
342.250	1	-7
342.421	1	-3
342.592	1	3
342.763	1	2
342.934	1	-7
343.105	1	3
343.276	1	2
343.447	1	1
343.618	1	-7
343.789	1	-9
343.960	1	-8
344.131	1	-5
344.302	1	-5
344.473	1	-4
344.644	1	4
344.815	1	-3
344.986	1	4
345.157	1	-2
345.328	1	3
345.499	1	0
345.670	1	-8
345.841	1	1
346.012	1	-1
346.183	1	-11
346.354	1	-3
346.526	1	-13
346.697	1	0
346.868	1	6
347.039	1	14
347.210	1	-11
347.381	1	5
347.552	1	-3
347.723	1	-6
347.894	1	-3
348.065	1	4
348.236	1	9
348.407	1	1
348.578	1	-3
348.749	1	-3
348.920	1	4
349.091	1	-3
349.262	1	-10
349.433	1	0
349.604	1	-4
349.775	1	8
349.946	1	-5
350.117	1	-1
350.288	1	13
350.459	1	-1
350.630	1	9
350.801	1	-9
350.972	1	0
351.143	1	2
351.314	1	7
351.485	1	2
351.656	1	0
351.827	1	0
351.998	1	12
352.169	1	0
352.340	1	2
352.511	1	-6
352.682	1	-3
352.853	1	-4
353.024	1	3
353.195	1	0
353.366	1	10
353.537	1	-2
353.708	1	2
353.879	1	1
354.050	1	-3
354.221	1	-4
354.392	1	-12
354.563	1	-3
354.734	1	0
354.905	1	12
355.076	1	-6
355.247	1	1
355.418	1	-16
355.589	1	-7
355.760	1	-5
355.931	1	1
356.102	1	16
356.273	1	-5
356.444	1	5
356.615	1	5
356.785	1	17
356.956	1	5
357.127	1	4
357.298	1	2
357.469	1	1
357.640	1	5
357.811	1	3
357.982	1	0
358.153	1	2
358.324	1	-6
358.495	1	6
358.666	1	4
358.837	1	2
359.008	1	-13
359.179	1	-10
359.350	1	-7
359.521	1	7
359.692	1	16
359.863	1	2
360.034	1	5
360.205	1	3
360.376	1	8
360.547	1	4
360.718	1	13
360.889	1	-2
361.060	1	-4
361.231	1	-8
361.401	1	9
361.572	1	9
361.743	1	4
361.914	1	10
362.085	1	4
362.256	1	6
362.427	1	3
362.598	1	-5
362.769	1	-5
362.940	1	5
363.111	1	12
363.282	1	9
363.453	1	2
363.624	1	14
363.795	1	2
363.966	1	8
364.137	1	11
364.308	1	-2
364.478	1	7
364.649	1	15
364.820	1	3
364.991	1	9
365.162	1	19
365.333	1	6
365.504	1	18
365.675	1	8
365.846	1	7
366.017	1	11
366.188	1	9
366.359	1	9
366.530	1	22
366.701	1	13
366.871	1	15
367.042	1	7
367.213	1	16
367.384	1	12
367.555	1	15
367.726	1	12
367.897	1	13
368.068	1	12
368.239	1	15
368.410	1	29
368.581	1	6
368.752	1	12
368.923	1	16
369.093	1	9
369.264	1	13
369.435	1	16
369.606	1	14
369.777	1	6
369.948	1	9
370.119	1	16
370.290	1	12
370.461	1	34
370.632	1	15
370.803	1	12
370.973	1	25
371.144	1	9
371.315	1	12
371.486	1	24
371.657	1	18
371.828	1	18
371.999	1	11
372.170	1	24
372.341	1	16
372.512	1	4
372.682	1	16
372.853	1	15
373.024	1	8
373.195	1	15
373.366	1	17
373.537	1	13
373.708	1	6
373.879	1	11
374.050	1	12
374.220	1	32
374.391	1	7
374.562	1	12
374.733	1	11
374.904	1	9
375.075	1	8
375.246	1	16
375.417	1	13
375.588	1	14
375.758	1	10
375.929	1	9
376.100	1	5
376.271	1	22
376.442	1	9
376.613	1	3
376.784	1	13
376.955	1	15
377.125	1	12
377.296	1	5
377.467	1	6
377.638	1	10
377.809	1	11
377.980	1	1
378.151	1	4
378.321	1	-1
378.492	1	2
378.663	1	3
378.834	1	17
379.005	1	17
379.176	1	1
379.347	1	-2
379.518	1	0
379.688	1	9
379.859	1	1
380.030	1	5
380.201	1	0
380.372	1	10
380.543	1	13
380.714	1	10
380.884	1	1
381.055	1	6
381.226	1	-5
381.397	1	-2
381.568	1	10
381.739	1	0
381.910	1	7
382.080	1	7
382.251	1	2
382.422	1	8
382.593	1	4
382.764	1	1
382.935	1	-7
383.105	1	4
383.276	1	6
383.447	1	3
383.618	1	8
383.789	1	-13
383.960	1	2
384.130	1	7
384.301	1	-3
384.472	1	1
384.643	1	8
384.814	1	-3
384.985	1	-3
385.156	1	1
385.326	1	15
385.497	1	0
385.668	1	3
385.839	1	5
386.010	1	2
386.180	1	11
386.351	1	-7
386.522	1	3
386.693	1	-5
386.864	1	-2
387.035	1	7
387.205	1	-7
387.376	1	2
387.547	1	-12
387.718	1	0
387.889	1	3
388.060	1	11
388.230	1	13
388.401	1	-1
388.572	1	-3
388.743	1	-2
388.914	1	3
389.084	1	-1
389.255	1	-6
389.426	1	-5
389.597	1	5
389.768	1	2
389.939	1	7
390.109	1	1
390.280	1	3
390.451	1	-5
390.622	1	-3
390.793	1	-5
390.963	1	8
391.134	1	11
391.305	1	4
391.476	1	-11
391.647	1	5
391.817	1	6
391.988	1	8
392.159	1	-10
392.330	1	1
392.501	1	-7
392.671	1	-4
392.842	1	-8
393.013	1	5
393.184	1	6
393.355	1	8
393.525	1	9
393.696	1	4
393.867	1	-5
394.038	1	3
394.208	1	3
394.379	1	2
394.550	1	1
394.721	1	-8
394.892	1	1
395.062	1	-6
395.233	1	6
395.404	1	-5
395.575	1	14
395.746	1	5
395.916	1	7
396.087	1	-6
396.258	1	1
396.429	1	-3
396.599	1	-1
396.770	1	-5
396.941	1	0
397.112	1	5
397.283	1	3
397.453	1	11
397.624	1	-1
397.795	1	2
397.966	1	4
398.136	1	-6
398.307	1	2
398.478	1	1
398.649	1	-5
398.819	1	11
398.990	1	2
399.161	1	7
399.332	1	5
399.503	1	5
399.673	1	2
399.844	1	-2
400.015	1	-1
400.186	1	-5
400.356	1	-6
400.527	1	2
400.698	1	7
400.869	1	0
401.039	1	1
401.210	1	0
401.381	1	-9
401.552	1	-17
401.722	1	8
401.893	1	2
402.064	1	6
402.235	1	0
402.405	1	4
402.576	1	3
402.747	1	-6
402.918	1	12
403.088	1	-3
403.259	1	0
403.430	1	-7
403.601	1	-1
403.771	1	4
403.942	1	9
404.113	1	-14
404.284	1	10
404.454	1	1
404.625	1	-4
404.796	1	0
404.967	1	7
405.137	1	4
405.308	1	6
405.479	1	5
405.649	1	0
405.820	1	-17
405.991	1	-1
406.162	1	7
406.332	1	2
406.503	1	-6
406.674	1	-13
406.845	1	17
407.015	1	1
407.186	1	1
407.357	1	-4
407.527	1	-5
407.698	1	6
407.869	1	-2
408.040	1	-4
408.210	1	7
408.381	1	2
408.552	1	-3
408.722	1	-13
408.893	1	3
409.064	1	8
409.235	1	-1
409.405	1	12
409.576	1	-5
409.747	1	-3
409.917	1	5
410.088	1	-2
410.259	1	-3
410.430	1	8
410.600	1	-8
410.771	1	1
410.942	1	11
411.112	1	1
411.283	1	18
411.454	1	-7
411.625	1	0
411.795	1	-4
411.966	1	5
412.137	1	6
412.307	1	-1
412.478	1	10
412.649	1	5
412.819	1	10
412.990	1	9
413.161	1	-8
413.332	1	-1
413.502	1	4
413.673	1	2
413.844	1	2
414.014	1	-1
414.185	1	2
414.356	1	6
414.526	1	0
414.697	1	6
414.868	1	-1
415.038	1	3
415.209	1	0
415.380	1	-10
415.550	1	1
415.721	1	-1
415.892	1	1
416.063	1	-7
416.233	1	7
416.404	1	-4
416.575	1	17
416.745	1	-10
416.916	1	2
417.087	1	3
417.257	1	-5
417.428	1	2
417.599	1	-1
417.769	1	20
417.940	1	6
418.111	1	5
418.281	1	0
418.452	1	-3
418.623	1	-3
418.793	1	-1
418.964	1	-12
419.135	1	-9
419.305	1	4
419.476	1	6
419.647	1	-6
419.817	1	1
419.988	1	2
420.159	1	0
420.329	1	-6
420.500	1	-4
420.671	1	3
420.841	1	17
421.012	1	4
421.183	1	-5
421.353	1	-8
421.524	1	-3
421.695	1	-4
421.865	1	4
422.036	1	-5
422.206	1	5
422.377	1	-4
422.548	1	-10
422.718	1	-1
422.889	1	-11
423.060	1	-7
423.230	1	-7
423.401	1	3
423.572	1	-4
423.742	1	2
423.913	1	-6
424.084	1	-6
424.254	1	2
424.425	1	1
424.595	1	3
424.766	1	-1
424.937	1	-5
425.107	1	-13
425.278	1	4
425.449	1	3
425.619	1	9
425.790	1	-11
425.961	1	-8
426.131	1	-1
426.302	1	-4
426.472	1	-5
426.643	1	3
426.814	1	6
426.984	1	0
427.155	1	1
427.326	1	7
427.496	1	0
427.667	1	1
427.837	1	-3
428.008	1	1
428.179	1	-6
428.349	1	-7
428.520	1	-2
428.691	1	13
428.861	1	-2
429.032	1	8
429.202	1	-4
429.373	1	1
429.544	1	1
429.714	1	8
429.885	1	2
430.055	1	-1
430.226	1	-10
430.397	1	-7
430.567	1	-5
430.738	1	0
430.909	1	-1
431.079	1	1
431.250	1	-3
431.420	1	-9
431.591	1	7
431.762	1	10
431.932	1	-4
432.103	1	4
432.273	1	-1
432.444	1	11
432.615	1	-5
432.785	1	-5
432.956	1	0
433.126	1	-4
433.297	1	6
433.468	1	-8
433.638	1	-7
433.809	1	1
433.979	1	8
434.150	1	4
434.320	1	-1
434.491	1	-8
434.662	1	-5
434.832	1	10
435.003	1	5
435.173	1	-12
435.344	1	4
435.515	1	6
435.685	1	-6
435.856	1	6
436.026	1	4
436.197	1	-5
436.368	1	-1
436.538	1	5
436.709	1	3
436.879	1	-7
437.050	1	0
437.220	1	4
437.391	1	5
437.562	1	3
437.732	1	-10
437.903	1	-3
438.073	1	2
438.244	1	10
438.414	1	-11
438.585	1	-1
438.756	1	1
438.926	1	5
439.097	1	0
439.267	1	-9
439.438	1	-1
439.608	1	-10
439.779	1	-2
439.949	1	-2
440.120	1	1
440.291	1	4
440.461	1	-1
440.632	1	-4
440.802	1	-5
440.973	1	-12
441.143	1	5
441.314	1	-8
441.485	1	7
441.655	1	-3
441.826	1	-2
441.996	1	2
442.167	1	2
442.337	1	7
442.508	1	5
442.678	1	-9
442.849	1	-1
443.019	1	10
443.190	1	-4
443.361	1	4
443.531	1	1
443.702	1	5
443.872	1	0
444.043	1	3
444.213	1	5
444.384	1	-12
444.554	1	8
444.725	1	-11
444.895	1	-5
445.066	1	-7
445.237	1	-7
445.407	1	5
445.578	1	-12
445.748	1	-8
445.919	1	-12
446.089	1	13
446.260	1	-2
446.430	1	0
446.601	1	-1
446.771	1	11
446.942	1	6
447.112	1	4
447.283	1	0
447.453	1	-12
447.624	1	1
447.794	1	-5
447.965	1	-3
448.135	1	4
448.306	1	-2
448.477	1	-1
448.647	1	-5
448.818	1	1
448.988	1	3
449.159	1	-9
449.329	1	10
449.500	1	0
449.670	1	1
449.841	1	-3
450.011	1	5
450.182	1	2
450.352	1	5
450.523	1	-6
450.693	1	-7
450.864	1	0
451.034	1	-8
451.205	1	5
451.375	1	-10
451.546	1	1
451.716	1	-9
451.887	1	-11
452.057	1	5
452.228	1	0
452.398	1	-5
452.569	1	1
452.739	1	3
452.910	1	-6
453.080	1	1
453.251	1	6
453.421	1	-9
453.592	1	3
453.762	1	-1
453.933	1	-8
454.103	1	-4
454.274	1	-4
454.444	1	-2
454.615	1	15
454.785	1	-11
454.956	1	-4
455.126	1	-3
455.297	1	13
455.467	1	5
455.638	1	0
455.808	1	-1
455.979	1	-5
456.149	1	7
456.320	1	-2
456.490	1	-2
456.661	1	5
456.831	1	1
457.001	1	-5
457.172	1	-7
457.342	1	3
457.513	1	5
457.683	1	0
457.854	1	-9
458.024	1	-1
458.195	1	-7
458.365	1	1
458.536	1	2
458.706	1	1
458.877	1	-4
459.047	1	2
459.218	1	-7
459.388	1	2
459.559	1	9
459.729	1	-2
459.899	1	-1
460.070	1	-2
460.240	1	-1
460.411	1	-4
460.581	1	10
460.752	1	-5
460.922	1	3
461.093	1	5
461.263	1	-5
461.434	1	-4
461.604	1	5
461.775	1	0
461.945	1	-6
462.115	1	4
462.286	1	3
462.456	1	-6
462.627	1	5
462.797	1	-2
462.968	1	-1
463.138	1	-10
463.309	1	-16
463.479	1	1
463.649	1	-2
463.820	1	-6
463.990	1	3
464.161	1	1
464.331	1	-1
464.502	1	-1
464.672	1	-9
464.843	1	1
465.013	1	-11
465.183	1	0
465.354	1	1
465.524	1	-1
465.695	1	-2
465.865	1	3
466.036	1	0
466.206	1	6
466.376	1	-4
466.547	1	-7
466.717	1	3
466.888	1	8
467.058	1	1
467.229	1	1
467.399	1	9
467.569	1	9
467.740	1	-5
467.910	1	-1
468.081	1	6
468.251	1	5
468.422	1	-2
468.592	1	-1
468.762	1	-2
468.933	1	-1
469.103	1	-5
469.274	1	13
469.444	1	-7
469.614	1	-1
469.785	1	-8
469.955	1	3
470.126	1	-7
470.296	1	0
470.467	1	-2
470.637	1	8
470.807	1	-6
470.978	1	-1
471.148	1	-1
471.319	1	0
471.489	1	6
471.659	1	-6
471.830	1	1
472.000	1	1
472.171	1	-4
472.341	1	-6
472.511	1	-7
472.682	1	1
472.852	1	-1
473.023	1	3
473.193	1	5
473.363	1	-1
473.534	1	2
473.704	1	-8
473.875	1	10
474.045	1	1
474.215	1	2
474.386	1	6
474.556	1	3
474.727	1	0
474.897	1	6
475.067	1	3
475.238	1	-4
475.408	1	-7
475.578	1	-4
475.749	1	-7
475.919	1	-5
476.090	1	-5
476.260	1	0
476.430	1	3
476.601	1	3
476.771	1	-6
476.942	1	7
477.112	1	-5
477.282	1	-3
477.453	1	-10
477.623	1	-15
477.793	1	-5
477.964	1	2
478.134	1	-10
478.305	1	-1
478.475	1	-11
478.645	1	8
478.816	1	-5
478.986	1	-7
479.156	1	2
479.327	1	-7
479.497	1	-4
479.667	1	-11
479.838	1	-5
480.008	1	-1
480.179	1	-9
480.349	1	-9
480.519	1	-1
480.690	1	-3
480.860	1	-4
481.030	1	-1
481.201	1	-6
481.371	1	3
481.541	1	-1
481.712	1	2
481.882	1	13
482.053	1	0
482.223	1	-4
482.393	1	-6
482.564	1	9
482.734	1	-6
482.904	1	-8
483.075	1	-1
483.245	1	3
483.415	1	0
483.586	1	-1
483.756	1	12
483.926	1	-4
484.097	1	-6
484.267	1	-10
484.437	1	0
484.608	1	5
484.778	1	12
484.948	1	-6
485.119	1	-3
485.289	1	-11
485.459	1	13
485.630	1	-4
485.800	1	-4
485.970	1	-7
486.141	1	-1
486.311	1	2
486.481	1	-1
486.652	1	2
486.822	1	7
486.992	1	9
487.163	1	-6
487.333	1	-2
487.503	1	5
487.674	1	0
487.844	1	-4
488.014	1	-3
488.185	1	10
488.355	1	3
488.525	1	0
488.696	1	-15
488.866	1	0
489.036	1	9
489.207	1	-6
489.377	1	-2
489.547	1	-7
489.718	1	6
489.888	1	2
490.058	1	2
490.228	1	2
490.399	1	-3
490.569	1	10
490.739	1	-7
490.910	1	0
491.080	1	12
491.250	1	-8
491.421	1	-12
491.591	1	-1
491.761	1	0
491.932	1	5
492.102	1	-5
492.272	1	-3
492.442	1	6
492.613	1	-10
492.783	1	6
492.953	1	-11
493.124	1	6
493.294	1	-7
493.464	1	15
493.635	1	-6
493.805	1	-1
493.975	1	-3
494.145	1	5
494.316	1	5
494.486	1	2
494.656	1	0
494.827	1	19
494.997	1	-3
495.167	1	-7
495.337	1	-1
495.508	1	-1
495.678	1	-6
495.848	1	4
496.019	1	-3
496.189	1	2
496.359	1	-2
496.529	1	1
496.700	1	4
496.870	1	10
497.040	1	-1
497.211	1	-6
497.381	1	-1
497.551	1	-7
497.721	1	0
497.892	1	-1
498.062	1	-2
498.232	1	-16
498.403	1	1
498.573	1	-13
498.743	1	-1
498.913	1	7
499.084	1	-4
499.254	1	3
499.424	1	-5
499.594	1	14
499.765	1	1
499.935	1	4
500.105	1	0
500.275	1	5
500.446	1	-9
500.616	1	-6
500.786	1	0
500.956	1	-3
501.127	1	-7
501.297	1	-3
501.467	1	-5
501.638	1	-4
501.808	1	6
501.978	1	8
502.148	1	-2
502.319	1	-7
502.489	1	-6
502.659	1	0
502.829	1	1
503.000	1	-3
503.170	1	8
503.340	1	8
503.510	1	6
503.681	1	-6
503.851	1	0
504.021	1	2
504.191	1	3
504.362	1	-4
504.532	1	-1
504.702	1	0
504.872	1	5
505.042	1	-2
505.213	1	-1
505.383	1	-1
505.553	1	-1
505.723	1	4
505.894	1	2
506.064	1	6
506.234	1	16
506.404	1	6
506.575	1	3
506.745	1	3
506.915	1	4
507.085	1	-5
507.256	1	0
507.426	1	2
507.596	1	3
507.766	1	-1
507.936	1	0
508.107	1	-3
508.277	1	-1
508.447	1	5
508.617	1	-4
508.788	1	17
508.958	1	0
509.128	1	1
509.298	1	2
509.468	1	1
509.639	1	-5
509.809	1	5
509.979	1	-3
510.149	1	-1
510.319	1	3
510.490	1	11
510.660	1	-2
510.830	1	8
511.000	1	1
511.171	1	-3
511.341	1	6
511.511	1	-1
511.681	1	-2
511.851	1	-6
512.022	1	-10
512.192	1	7
512.362	1	-3
512.532	1	-8
512.702	1	-4
512.873	1	8
513.043	1	4
513.213	1	-10
513.383	1	-7
513.553	1	-8
513.724	1	-1
513.894	1	-7
514.064	1	13
514.234	1	4
514.404	1	5
514.575	1	6
514.745	1	-4
514.915	1	3
515.085	1	0
515.255	1	0
515.425	1	4
515.596	1	2
515.766	1	-4
515.936	1	2
516.106	1	-4
516.276	1	-12
516.447	1	6
516.617	1	5
516.787	1	5
516.957	1	-7
517.127	1	-6
517.297	1	-2
517.468	1	7
517.638	1	-3
517.808	1	-8
517.978	1	13
518.148	1	4
518.319	1	1
518.489	1	-1
518.659	1	-11
518.829	1	6
518.999	1	6
519.169	1	6
519.340	1	10
519.510	1	2
519.680	1	14
519.850	1	-4
520.020	1	2
520.190	1	-5
520.361	1	9
520.531	1	2
520.701	1	-5
520.871	1	7
521.041	1	5
521.211	1	-7
521.382	1	-11
521.552	1	6
521.722	1	7
521.892	1	-4
522.062	1	4
522.232	1	7
522.402	1	7
522.573	1	-7
522.743	1	-6
522.913	1	0
523.083	1	-3
523.253	1	1
523.423	1	-5
523.593	1	-1
523.764	1	2
523.934	1	6
524.104	1	5
524.274	1	2
524.444	1	-1
524.614	1	-10
524.784	1	12
524.955	1	-3
525.125	1	4
525.295	1	-2
525.465	1	7
525.635	1	-4
525.805	1	-10
525.975	1	3
526.146	1	-9
526.316	1	6
526.486	1	-6
526.656	1	-6
526.826	1	-1
526.996	1	6
527.166	1	-5
527.337	1	-3
527.507	1	7
527.677	1	4
527.847	1	3
528.017	1	-13
528.187	1	4
528.357	1	0
528.527	1	7
528.698	1	4
528.868	1	5
529.038	1	-3
529.208	1	2
529.378	1	4
529.548	1	-4
529.718	1	3
529.888	1	2
530.058	1	-2
530.229	1	-1
530.399	1	10
530.569	1	-9
530.739	1	4
530.909	1	-7
531.079	1	4
531.249	1	0
531.419	1	-1
531.589	1	10
531.760	1	3
531.930	1	-3
532.100	1	0
532.270	1	-2
532.440	1	2
532.610	1	-10
532.780	1	-5
532.950	1	4
533.120	1	9
533.290	1	1
533.461	1	6
533.631	1	16
533.801	1	16
533.971	1	-11
534.141	1	-5
534.311	1	4
534.481	1	-11
534.651	1	2
534.821	1	11
534.991	1	-4
535.162	1	-7
535.332	1	1
535.502	1	-2
535.672	1	6
535.842	1	2
536.012	1	4
536.182	1	-4
536.352	1	-7
536.522	1	-3
536.692	1	6
536.862	1	5
537.032	1	2
537.203	1	-1
537.373	1	2
537.543	1	-2
537.713	1	4
537.883	1	-1
538.053	1	-3
538.223	1	-1
538.393	1	11
538.563	1	11
538.733	1	6
538.903	1	-12
539.073	1	-5
539.243	1	9
539.413	1	0
539.584	1	-6
539.754	1	11
539.924	1	8
540.094	1	-6
540.264	1	3
540.434	1	0
540.604	1	-2
540.774	1	8
540.944	1	6
541.114	1	-9
541.284	1	-2
541.454	1	-2
541.624	1	7
541.794	1	0
541.964	1	0
542.134	1	7
542.305	1	-1
542.475	1	14
542.645	1	5
542.815	1	-1
542.985	1	5
543.155	1	-3
543.325	1	9
543.495	1	1
543.665	1	4
543.835	1	7
544.005	1	13
544.175	1	-6
544.345	1	11
544.515	1	-12
544.685	1	-5
544.855	1	-1
545.025	1	6
545.195	1	1
545.365	1	1
545.535	1	8
545.705	1	-6
545.875	1	0
546.045	1	-4
546.216	1	11
546.386	1	4
546.556	1	-9
546.726	1	-19
546.896	1	1
547.066	1	-1
547.236	1	-1
547.406	1	-3
547.576	1	16
547.746	1	-12
547.916	1	-5
548.086	1	6
548.256	1	1
548.426	1	-6
548.596	1	-6
548.766	1	2
548.936	1	9
549.106	1	-6
549.276	1	-7
549.446	1	4
549.616	1	2
549.786	1	-3
549.956	1	-1
550.126	1	10
550.296	1	-3
550.466	1	4
550.636	1	12
550.806	1	-2
550.976	1	7
551.146	1	2
551.316	1	3
551.486	1	-1
551.656	1	6
551.826	1	11
551.996	1	8
552.166	1	8
552.336	1	-1
552.506	1	3
552.676	1	10
552.846	1	-1
553.016	1	10
553.186	1	0
553.356	1	8
553.526	1	-2
553.696	1	5
553.866	1	-2
554.036	1	-5
554.206	1	10
554.376	1	8
554.546	1	5
554.716	1	4
554.886	1	0
555.056	1	4
555.226	1	-14
555.396	1	2
555.566	1	10
555.736	1	0
555.906	1	12
556.076	1	3
556.246	1	2
556.416	1	1
556.586	1	9
556.756	1	-6
556.926	1	10
557.096	1	-1
557.266	1	-1
557.436	1	3
557.606	1	10
557.776	1	-5
557.946	1	8
558.116	1	3
558.286	1	5
558.456	1	-2
558.626	1	3
558.796	1	-1
558.966	1	6
559.136	1	-6
559.306	1	-5
559.476	1	-10
559.646	1	-4
559.816	1	-3
559.986	1	-2
560.155	1	6
560.325	1	-8
560.495	1	3
560.665	1	4
560.835	1	12
561.005	1	-9
561.175	1	-2
561.345	1	-2
561.515	1	-6
561.685	1	-4
561.855	1	-5
562.025	1	-2
562.195	1	6
562.365	1	-1
562.535	1	3
562.705	1	-1
562.875	1	-4
563.045	1	-5
563.215	1	3
563.385	1	-11
563.555	1	4
563.725	1	8
563.895	1	6
564.064	1	6
564.234	1	-1
564.404	1	6
564.574	1	3
564.744	1	3
564.914	1	1
565.084	1	2
565.254	1	14
565.424	1	0
565.594	1	11
565.764	1	4
565.934	1	14
566.104	1	-5
566.274	1	-2
566.444	1	-2
566.614	1	2
566.783	1	2
566.953	1	2
567.123	1	0
567.293	1	16
567.463	1	9
567.633	1	8
567.803	1	-9
567.973	1	-12
568.143	1	-9
568.313	1	6
568.483	1	2
568.653	1	2
568.823	1	-3
568.993	1	6
569.162	1	11
569.332	1	5
569.502	1	2
569.672	1	12
569.842	1	2
570.012	1	0
570.182	1	-6
570.352	1	-2
570.522	1	-4
570.692	1	1
570.862	1	0
571.031	1	-2
571.201	1	9
571.371	1	-2
571.541	1	3
571.711	1	5
571.881	1	7
572.051	1	-1
572.221	1	-1
572.391	1	-6
572.561	1	-9
572.731	1	-2
572.900	1	-10
573.070	1	-2
573.240	1	8
573.410	1	15
573.580	1	5
573.750	1	5
573.920	1	-5
574.090	1	-1
574.260	1	6
574.430	1	3
574.599	1	-5
574.769	1	3
574.939	1	2
575.109	1	5
575.279	1	-4
575.449	1	2
575.619	1	-1
575.789	1	-7
575.959	1	-10
576.128	1	-12
576.298	1	8
576.468	1	2
576.638	1	-2
576.808	1	0
576.978	1	1
577.148	1	-1
577.318	1	12
577.487	1	-8
577.657	1	-3
577.827	1	-1
577.997	1	-4
578.167	1	-8
578.337	1	19
578.507	1	0
578.677	1	6
578.846	1	6
579.016	1	15
579.186	1	-6
579.356	1	7
579.526	1	-10
579.696	1	6
579.866	1	3
580.036	1	-6
580.205	1	-6
580.375	1	11
580.545	1	3
580.715	1	7
580.885	1	4
581.055	1	-7
581.225	1	-1
581.394	1	1
581.564	1	8
581.734	1	-10
581.904	1	3
582.074	1	8
582.244	1	4
582.414	1	2
582.583	1	13
582.753	1	0
582.923	1	-13
583.093	1	-3
583.263	1	1
583.433	1	7
583.603	1	7
583.772	1	11
583.942	1	5
584.112	1	-2
584.282	1	-5
584.452	1	12
584.622	1	2
584.791	1	-4
584.961	1	-1
585.131	1	2
585.301	1	1
585.471	1	2
585.641	1	2
585.811	1	13
585.980	1	5
586.150	1	-8
586.320	1	1
586.490	1	-5
586.660	1	1
586.830	1	-12
586.999	1	-1
587.169	1	7
587.339	1	9
587.509	1	-2
587.679	1	7
587.849	1	2
588.018	1	4
588.188	1	7
588.358	1	-7
588.528	1	-2
588.698	1	1
588.867	1	12
589.037	1	-1
589.207	1	-2
589.377	1	5
589.547	1	7
589.717	1	7
589.886	1	-5
590.056	1	3
590.226	1	-1
590.396	1	5
590.566	1	-2
590.735	1	3
590.905	1	-4
591.075	1	4
591.245	1	-5
591.415	1	-3
591.585	1	1
591.754	1	-2
591.924	1	-6
592.094	1	0
592.264	1	9
592.434	1	1
592.603	1	3
592.773	1	1
592.943	1	3
593.113	1	3
593.283	1	2
593.452	1	5
593.622	1	1
593.792	1	4
593.962	1	0
594.132	1	5
594.301	1	1
594.471	1	4
594.641	1	-2
594.811	1	4
594.981	1	-2
595.150	1	-9
595.320	1	-3
595.490	1	4
595.660	1	1
595.829	1	-1
595.999	1	-5
596.169	1	6
596.339	1	2
596.509	1	-1
596.678	1	-3
596.848	1	3
597.018	1	0
597.188	1	1
597.358	1	10
597.527	1	-7
597.697	1	-4
597.867	1	8
598.037	1	-6
598.206	1	-3
598.376	1	10
598.546	1	1
598.716	1	10
598.885	1	-10
599.055	1	-4
599.225	1	-8
599.395	1	2
599.565	1	-6
599.734	1	2
599.904	1	5
600.074	1	-3
600.244	1	0
600.413	1	12
600.583	1	10
600.753	1	0
600.923	1	2
601.092	1	10
601.262	1	4
601.432	1	-11
601.602	1	14
601.771	1	3
601.941	1	0
602.111	1	-3
602.281	1	11
602.451	1	0
602.620	1	-4
602.790	1	1
602.960	1	3
603.130	1	7
603.299	1	-6
603.469	1	-7
603.639	1	6
603.809	1	12
603.978	1	-5
604.148	1	5
604.318	1	-2
604.487	1	1
604.657	1	-2
604.827	1	10
604.997	1	2
605.166	1	-3
605.336	1	5
605.506	1	3
605.676	1	-16
605.845	1	-2
606.015	1	7
606.185	1	4
606.355	1	-1
606.524	1	1
606.694	1	-4
606.864	1	5
607.034	1	-8
607.203	1	7
607.373	1	-8
607.543	1	6
607.712	1	-5
607.882	1	8
608.052	1	-6
608.222	1	7
608.391	1	6
608.561	1	7
608.731	1	-4
608.901	1	4
609.070	1	7
609.240	1	-11
609.410	1	4
609.579	1	9
609.749	1	-7
609.919	1	4
610.089	1	-2
610.258	1	6
610.428	1	-3
610.598	1	-3
610.767	1	4
610.937	1	0
611.107	1	-1
611.277	1	-6
611.446	1	11
611.616	1	-3
611.786	1	11
611.955	1	3
612.125	1	10
612.295	1	-4
612.465	1	12
612.634	1	-2
612.804	1	-2
612.974	1	-12
613.143	1	10
613.313	1	3
613.483	1	-1
613.652	1	0
613.822	1	-3
613.992	1	2
614.162	1	13
614.331	1	0
614.501	1	-1
614.671	1	12
614.840	1	4
615.010	1	-5
615.180	1	-3
615.349	1	0
615.519	1	-9
615.689	1	8
615.858	1	-1
616.028	1	5
616.198	1	8
616.368	1	-2
616.537	1	-10
616.707	1	-1
616.877	1	0
617.046	1	4
617.216	1	-1
617.386	1	5
617.555	1	6
617.725	1	1
617.895	1	-2
618.064	1	-1
618.234	1	-2
618.404	1	0
618.573	1	-10
618.743	1	1
618.913	1	1
619.082	1	-1
619.252	1	-11
619.422	1	-4
619.591	1	-5
619.761	1	-1
619.931	1	7
620.100	1	-5
620.270	1	-8
620.440	1	3
620.609	1	-4
620.779	1	-7
620.949	1	0
621.118	1	-6
621.288	1	7
621.458	1	-9
621.627	1	9
621.797	1	-2
621.967	1	-6
622.136	1	5
622.306	1	-8
622.476	1	-1
622.645	1	12
622.815	1	7
622.985	1	9
623.154	1	8
623.324	1	-1
623.494	1	10
623.663	1	0
623.833	1	6
624.002	1	-9
624.172	1	-8
624.342	1	-4
624.511	1	-3
624.681	1	2
624.851	1	-5
625.020	1	-10
625.190	1	-2
625.360	1	2
625.529	1	6
625.699	1	-2
625.869	1	13
626.038	1	-10
626.208	1	1
626.377	1	13
626.547	1	-3
626.717	1	2
626.886	1	3
627.056	1	-8
627.226	1	2
627.395	1	4
627.565	1	2
627.735	1	6
627.904	1	-10
628.074	1	-6
628.243	1	-3
628.413	1	-1
628.583	1	-6
628.752	1	4
628.922	1	5
629.091	1	-8
629.261	1	3
629.431	1	-3
629.600	1	2
629.770	1	-7
629.940	1	-4
630.109	1	-10
630.279	1	-4
630.448	1	-5
630.618	1	5
630.788	1	6
630.957	1	-7
631.127	1	6
631.297	1	2
631.466	1	1
631.636	1	-5
631.805	1	-1
631.975	1	14
632.145	1	-1
632.314	1	-1
632.484	1	2
632.653	1	-4
632.823	1	-1
632.993	1	-6
633.162	1	0
633.332	1	1
633.501	1	-4
633.671	1	-10
633.841	1	-3
634.010	1	-8
634.180	1	4
634.349	1	5
634.519	1	-3
634.689	1	0
634.858	1	-2
635.028	1	4
635.197	1	12
635.367	1	-5
635.537	1	4
635.706	1	11
635.876	1	0
636.045	1	11
636.215	1	0
636.384	1	2
636.554	1	8
636.724	1	-2
636.893	1	3
637.063	1	5
637.232	1	-3
637.402	1	-2
637.572	1	2
637.741	1	7
637.911	1	-2
638.080	1	-7
638.250	1	-6
638.419	1	-3
638.589	1	0
638.759	1	-9
638.928	1	-3
639.098	1	5
639.267	1	1
639.437	1	-4
639.606	1	6
639.776	1	-4
639.946	1	-3
640.115	1	-2
640.285	1	7
640.454	1	-4
640.624	1	-2
640.793	1	5
640.963	1	-2
641.132	1	10
641.302	1	-4
641.472	1	9
641.641	1	-15
641.811	1	-6
641.980	1	0
642.150	1	-5
642.319	1	-4
642.489	1	10
642.659	1	-1
642.828	1	-5
642.998	1	-2
643.167	1	-7
643.337	1	-2
643.506	1	-12
643.676	1	-1
643.845	1	-8
644.015	1	2
644.184	1	2
644.354	1	14
644.524	1	-10
644.693	1	5
644.863	1	-18
645.032	1	5
645.202	1	1
645.371	1	-7
645.541	1	7
645.710	1	4
645.880	1	0
646.049	1	-12
646.219	1	4
646.388	1	-9
646.558	1	-2
646.728	1	-5
646.897	1	5
647.067	1	7
647.236	1	-1
647.406	1	-6
647.575	1	-2
647.745	1	-8
647.914	1	-9
648.084	1	0
648.253	1	6
648.423	1	-9
648.592	1	-4
648.762	1	3
648.931	1	21
649.101	1	-5
649.270	1	-4
649.440	1	-4
649.610	1	-5
649.779	1	-2
649.949	1	-9
650.118	1	10
650.288	1	9
650.457	1	9
650.627	1	0
650.796	1	3
650.966	1	-3
651.135	1	-8
651.305	1	-5
651.474	1	-3
651.644	1	9
651.813	1	-4
651.983	1	0
652.152	1	1
652.322	1	0
652.491	1	3
652.661	1	-2
652.830	1	8
653.000	1	-5
653.169	1	-1
653.339	1	-4
653.508	1	0
653.678	1	2
653.847	1	-3
654.017	1	-2
654.186	1	-2
654.356	1	1
654.525	1	-3
654.695	1	2
654.864	1	-2
655.034	1	0
655.203	1	-3
655.373	1	7
655.542	1	-4
655.712	1	-2
655.881	1	-1
656.051	1	12
656.220	1	-6
656.390	1	-1
656.559	1	4
656.729	1	5
656.898	1	-16
657.068	1	0
657.237	1	-2
657.406	1	6
657.576	1	-4
657.745	1	-2
657.915	1	-4
658.084	1	0
658.254	1	-10
658.423	1	3
658.593	1	7
658.762	1	1
658.932	1	-1
659.101	1	11
659.271	1	4
659.440	1	1
659.610	1	-8
659.779	1	-5
659.949	1	-5
660.118	1	1
660.288	1	13
660.457	1	6
660.626	1	3
660.796	1	-10
660.965	1	8
661.135	1	-3
661.304	1	0
661.474	1	-1
661.643	1	6
661.813	1	17
661.982	1	13
662.152	1	13
662.321	1	3
662.491	1	-2
662.660	1	1
662.829	1	-8
662.999	1	-7
663.168	1	-2
663.338	1	5
663.507	1	7
663.677	1	-1
663.846	1	-1
664.016	1	-7
664.185	1	2
664.354	1	1
664.524	1	-2
664.693	1	11
664.863	1	3
665.032	1	-3
665.202	1	2
665.371	1	-5
665.541	1	-3
665.710	1	-2
665.879	1	-7
666.049	1	-4
666.218	1	-6
666.388	1	7
666.557	1	-11
666.727	1	-2
666.896	1	-5
667.065	1	3
667.235	1	7
667.404	1	3
667.574	1	-8
667.743	1	1
667.913	1	4
668.082	1	1
668.251	1	-2
668.421	1	1
668.590	1	0
668.760	1	-5
668.929	1	-12
669.099	1	1
669.268	1	4
669.437	1	-2
669.607	1	-2
669.776	1	-6
669.946	1	0
670.115	1	0
670.285	1	-3
670.454	1	4
670.623	1	0
670.793	1	-10
670.962	1	-5
671.132	1	13
671.301	1	-7
671.470	1	-6
671.640	1	3
671.809	1	-8
671.979	1	-3
672.148	1	6
672.317	1	3
672.487	1	0
672.656	1	-5
672.826	1	1
672.995	1	4
673.164	1	-1
673.334	1	0
673.503	1	-8
673.673	1	-3
673.842	1	0
674.011	1	-1
674.181	1	3
674.350	1	12
674.520	1	-2
674.689	1	-4
674.858	1	2
675.028	1	0
675.197	1	-9
675.367	1	6
675.536	1	5
675.705	1	8
675.875	1	-6
676.044	1	0
676.214	1	-2
676.383	1	-1
676.552	1	5
676.722	1	10
676.891	1	6
677.060	1	-8
677.230	1	-4
677.399	1	-4
677.569	1	1
677.738	1	7
677.907	1	2
678.077	1	4
678.246	1	1
678.416	1	-4
678.585	1	-3
678.754	1	-10
678.924	1	-5
679.093	1	4
679.262	1	-1
679.432	1	-3
679.601	1	-16
679.771	1	-8
679.940	1	-1
680.109	1	4
680.279	1	1
680.448	1	2
680.617	1	1
680.787	1	-6
680.956	1	4
681.125	1	5
681.295	1	-1
681.464	1	9
681.634	1	-1
681.803	1	-5
681.972	1	-6
682.142	1	4
682.311	1	6
682.480	1	16
682.650	1	5
682.819	1	1
682.988	1	-10
683.158	1	-4
683.327	1	-1
683.496	1	-1
683.666	1	-4
683.835	1	-5
684.004	1	5
684.174	1	0
684.343	1	-6
684.512	1	7
684.682	1	-1
684.851	1	10
685.021	1	-6
685.190	1	0
685.359	1	1
685.529	1	-4
685.698	1	-4
685.867	1	1
686.037	1	-2
686.206	1	5
686.375	1	13
686.545	1	-2
686.714	1	-9
686.883	1	-7
687.053	1	-1
687.222	1	5
687.391	1	0
687.561	1	4
687.730	1	-3
687.899	1	-2
688.069	1	5
688.238	1	8
688.407	1	-5
688.577	1	8
688.746	1	2
