340.368	1	2
340.539	1	-11
340.710	1	-9
340.881	1	-5
341.052	1	9
341.223	1	-2
341.394	1	-8
341.565	1	-7
341.737	1	-8
341.908	1	5
342.079	1	0
342.250	1	-8
342.421	1	5
342.592	1	6
342.763	1	5
342.934	1	-2
343.105	1	5
343.276	1	0
343.447	1	1
343.618	1	-5
343.789	1	-4
343.960	1	1
344.131	1	-10
344.302	1	-3
344.473	1	1
344.644	1	6
344.815	1	2
344.986	1	6
345.157	1	-7
345.328	1	2
345.499	1	2
345.670	1	-6
345.841	1	4
346.012	1	8
346.183	1	-5
346.354	1	-10
346.526	1	-12
346.697	1	1
346.868	1	2
347.039	1	5
347.210	1	-14
347.381	1	6
347.552	1	-3
347.723	1	-4
347.894	1	0
348.065	1	-4
348.236	1	11
348.407	1	-4
348.578	1	1
348.749	1	-4
348.920	1	1
349.091	1	-8
349.262	1	-1
349.433	1	-4
349.604	1	4
349.775	1	6
349.946	1	4
350.117	1	4
350.288	1	2
350.459	1	-1
350.630	1	7
350.801	1	2
350.972	1	2
351.143	1	9
351.314	1	3
351.485	1	11
351.656	1	9
351.827	1	3
351.998	1	5
352.169	1	2
352.340	1	-1
352.511	1	-6
352.682	1	11
352.853	1	-4
353.024	1	7
353.195	1	3
353.366	1	13
353.537	1	-1
353.708	1	0
353.879	1	2
354.050	1	-5
354.221	1	-8
354.392	1	3
354.563	1	1
354.734	1	11
354.905	1	8
355.076	1	5
355.247	1	2
355.418	1	-9
355.589	1	0
355.760	1	-7
355.931	1	4
356.102	1	12
356.273	1	-5
356.444	1	2
356.615	1	-3
356.785	1	2
356.956	1	6
357.127	1	2
357.298	1	5
357.469	1	-6
357.640	1	8
357.811	1	3
357.982	1	8
358.153	1	10
358.324	1	4
358.495	1	7
358.666	1	-7
358.837	1	-3
359.008	1	-11
359.179	1	9
359.350	1	-7
359.521	1	15
359.692	1	5
359.863	1	9
360.034	1	7
360.205	1	-7
360.376	1	6
360.547	1	8
360.718	1	17
360.889	1	1
361.060	1	8
361.231	1	2
361.401	1	6
361.572	1	2
361.743	1	-7
361.914	1	11
362.085	1	20
362.256	1	15
362.427	1	13
362.598	1	2
362.769	1	12
362.940	1	1
363.111	1	6
363.282	1	13
363.453	1	-1
363.624	1	9
363.795	1	9
363.966	1	0
364.137	1	11
364.308	1	9
364.478	1	15
364.649	1	18
364.820	1	6
364.991	1	3
365.162	1	26
365.333	1	15
365.504	1	19
365.675	1	9
365.846	1	23
366.017	1	17
366.188	1	13
366.359	1	22
366.530	1	21
366.701	1	12
366.871	1	22
367.042	1	17
367.213	1	26
367.384	1	30
367.555	1	20
367.726	1	23
367.897	1	29
368.068	1	18
368.239	1	33
368.410	1	42
368.581	1	18
368.752	1	18
368.923	1	22
369.093	1	27
369.264	1	30
369.435	1	38
369.606	1	26
369.777	1	22
369.948	1	23
370.119	1	18
370.290	1	36
370.461	1	36
370.632	1	19
370.803	1	32
370.973	1	25
371.144	1	22
371.315	1	28
371.486	1	29
371.657	1	37
371.828	1	23
371.999	1	25
372.170	1	28
372.341	1	23
372.512	1	18
372.682	1	27
372.853	1	32
373.024	1	24
373.195	1	22
373.366	1	25
373.537	1	24
373.708	1	8
373.879	1	9
374.050	1	25
374.220	1	30
374.391	1	13
374.562	1	32
374.733	1	12
374.904	1	8
375.075	1	13
375.246	1	19
375.417	1	17
375.588	1	6
375.758	1	15
375.929	1	19
376.100	1	17
376.271	1	23
376.442	1	19
376.613	1	5
376.784	1	9
376.955	1	4
377.125	1	13
377.296	1	6
377.467	1	7
377.638	1	16
377.809	1	14
377.980	1	26
378.151	1	15
378.321	1	4
378.492	1	15
378.663	1	1
378.834	1	3
379.005	1	19
379.176	1	5
379.347	1	7
379.518	1	3
379.688	1	14
379.859	1	7
380.030	1	8
380.201	1	12
380.372	1	13
380.543	1	11
380.714	1	18
380.884	1	4
381.055	1	14
381.226	1	1
381.397	1	4
381.568	1	12
381.739	1	12
381.910	1	8
382.080	1	13
382.251	1	5
382.422	1	8
382.593	1	2
382.764	1	-4
382.935	1	-1
383.105	1	3
383.276	1	16
383.447	1	5
383.618	1	19
383.789	1	-7
383.960	1	8
384.130	1	6
384.301	1	6
384.472	1	3
384.643	1	13
384.814	1	13
384.985	1	2
385.156	1	-2
385.326	1	15
385.497	1	9
385.668	1	4
385.839	1	4
386.010	1	-4
386.180	1	7
386.351	1	1
386.522	1	3
386.693	1	-15
386.864	1	7
387.035	1	14
387.205	1	5
387.376	1	13
387.547	1	-5
387.718	1	2
387.889	1	0
388.060	1	15
388.230	1	11
388.401	1	9
388.572	1	8
388.743	1	6
388.914	1	10
389.084	1	0
389.255	1	1
389.426	1	4
389.597	1	4
389.768	1	-1
389.939	1	10
390.109	1	4
390.280	1	1
390.451	1	0
390.622	1	-4
390.793	1	3
390.963	1	4
391.134	1	11
391.305	1	5
391.476	1	-14
391.647	1	7
391.817	1	0
391.988	1	12
392.159	1	-4
392.330	1	5
392.501	1	7
392.671	1	0
392.842	1	8
393.013	1	6
393.184	1	-1
393.355	1	3
393.525	1	0
393.696	1	6
393.867	1	2
394.038	1	7
394.208	1	2
394.379	1	-2
394.550	1	11
394.721	1	-7
394.892	1	-3
395.062	1	8
395.233	1	-6
395.404	1	-4
395.575	1	-5
395.746	1	5
395.916	1	3
396.087	1	1
396.258	1	2
396.429	1	2
396.599	1	4
396.770	1	7
396.941	1	-1
397.112	1	23
397.283	1	-2
397.453	1	9
397.624	1	-1
397.795	1	5
397.966	1	7
398.136	1	2
398.307	1	-1
398.478	1	15
398.649	1	-10
398.819	1	1
398.990	1	-5
399.161	1	15
399.332	1	1
399.503	1	3
399.673	1	-12
399.844	1	9
400.015	1	-9
400.186	1	2
400.356	1	2
400.527	1	-1
400.698	1	-7
400.869	1	-3
401.039	1	14
401.210	1	7
401.381	1	-12
401.552	1	-8
401.722	1	6
401.893	1	9
402.064	1	0
402.235	1	-1
402.405	1	4
402.576	1	-4
402.747	1	-6
402.918	1	10
403.088	1	8
403.259	1	7
403.430	1	-7
403.601	1	-5
403.771	1	0
403.942	1	6
404.113	1	-5
404.284	1	1
404.454	1	2
404.625	1	14
404.796	1	7
404.967	1	5
405.137	1	19
405.308	1	11
405.479	1	5
405.649	1	0
405.820	1	-15
405.991	1	4
406.162	1	11
406.332	1	1
406.503	1	0
406.674	1	-5
406.845	1	10
407.015	1	9
407.186	1	6
407.357	1	-1
407.527	1	-11
407.698	1	13
407.869	1	0
408.040	1	-5
408.210	1	-4
408.381	1	13
408.552	1	-3
408.722	1	-19
408.893	1	4
409.064	1	5
409.235	1	4
409.405	1	0
409.576	1	0
409.747	1	-3
409.917	1	3
410.088	1	-5
410.259	1	-7
410.430	1	6
410.600	1	-2
410.771	1	-3
410.942	1	17
411.112	1	-5
411.283	1	5
411.454	1	0
411.625	1	3
411.795	1	-3
411.966	1	1
412.137	1	11
412.307	1	0
412.478	1	17
412.649	1	7
412.819	1	-11
412.990	1	-2
413.161	1	-1
413.332	1	9
413.502	1	-8
413.673	1	-6
413.844	1	9
414.014	1	0
414.185	1	14
414.356	1	8
414.526	1	-1
414.697	1	4
414.868	1	0
415.038	1	3
415.209	1	4
415.380	1	-3
415.550	1	1
415.721	1	-5
415.892	1	-1
416.063	1	-6
416.233	1	6
416.404	1	-3
416.575	1	12
416.745	1	-6
416.916	1	-5
417.087	1	4
417.257	1	-4
417.428	1	3
417.599	1	1
417.769	1	8
417.940	1	18
418.111	1	4
418.281	1	2
418.452	1	-4
418.623	1	-7
418.793	1	10
418.964	1	-12
419.135	1	-3
419.305	1	-5
419.476	1	10
419.647	1	1
419.817	1	6
419.988	1	-1
420.159	1	0
420.329	1	-3
420.500	1	-10
420.671	1	-3
420.841	1	15
421.012	1	3
421.183	1	2
421.353	1	-1
421.524	1	1
421.695	1	0
421.865	1	2
422.036	1	4
422.206	1	4
422.377	1	0
422.548	1	-7
422.718	1	4
422.889	1	-6
423.060	1	-1
423.230	1	3
423.401	1	1
423.572	1	-6
423.742	1	12
423.913	1	-2
424.084	1	3
424.254	1	-2
424.425	1	8
424.595	1	-10
424.766	1	3
424.937	1	5
425.107	1	-2
425.278	1	12
425.449	1	5
425.619	1	-2
425.790	1	-10
425.961	1	-4
426.131	1	-3
426.302	1	8
426.472	1	1
426.643	1	10
426.814	1	-6
426.984	1	3
427.155	1	-12
427.326	1	3
427.496	1	-4
427.667	1	7
427.837	1	1
428.008	1	-1
428.179	1	-5
428.349	1	-11
428.520	1	8
428.691	1	-1
428.861	1	-1
429.032	1	5
429.202	1	0
429.373	1	1
429.544	1	-3
429.714	1	0
429.885	1	4
430.055	1	-1
430.226	1	-3
430.397	1	-2
430.567	1	2
430.738	1	-3
430.909	1	2
431.079	1	-4
431.250	1	0
431.420	1	0
431.591	1	3
431.762	1	4
431.932	1	-5
432.103	1	-6
432.273	1	-2
432.444	1	9
432.615	1	-7
432.785	1	5
432.956	1	-3
433.126	1	0
433.297	1	2
433.468	1	-13
433.638	1	-3
433.809	1	7
433.979	1	-1
434.150	1	3
434.320	1	6
434.491	1	12
434.662	1	1
434.832	1	8
435.003	1	3
435.173	1	-8
435.344	1	-1
435.515	1	13
435.685	1	1
435.856	1	-4
436.026	1	3
436.197	1	2
436.368	1	3
436.538	1	-7
436.709	1	-2
436.879	1	-8
437.050	1	-6
437.220	1	5
437.391	1	10
437.562	1	-5
437.732	1	-5
437.903	1	13
438.073	1	7
438.244	1	7
438.414	1	-16
438.585	1	1
438.756	1	-8
438.926	1	9
439.097	1	-7
439.267	1	-4
439.438	1	0
439.608	1	-2
439.779	1	1
439.949	1	2
440.120	1	-11
440.291	1	7
440.461	1	-2
440.632	1	1
440.802	1	9
440.973	1	0
441.143	1	7
441.314	1	-3
441.485	1	8
441.655	1	5
441.826	1	-9
441.996	1	4
442.167	1	3
442.337	1	5
442.508	1	-11
442.678	1	-7
442.849	1	8
443.019	1	7
443.190	1	2
443.361	1	-1
443.531	1	10
443.702	1	-4
443.872	1	5
444.043	1	0
444.213	1	0
444.384	1	-6
444.554	1	11
444.725	1	-2
444.895	1	-4
445.066	1	-9
445.237	1	1
445.407	1	7
445.578	1	-5
445.748	1	4
445.919	1	-12
446.089	1	1
446.260	1	-3
446.430	1	1
446.601	1	-4
446.771	1	12
446.942	1	0
447.112	1	-11
447.283	1	-3
447.453	1	-15
447.624	1	4
447.794	1	4
447.965	1	8
448.135	1	2
448.306	1	3
448.477	1	3
448.647	1	-8
448.818	1	1
448.988	1	-4
449.159	1	-3
449.329	1	4
449.500	1	0
449.670	1	6
449.841	1	3
450.011	1	3
450.182	1	-6
450.352	1	-7
450.523	1	-9
450.693	1	-9
450.864	1	-2
451.034	1	1
451.205	1	16
451.375	1	4
451.546	1	2
451.716	1	-2
451.887	1	-9
452.057	1	0
452.228	1	2
452.398	1	-3
452.569	1	-1
452.739	1	8
452.910	1	-8
453.080	1	5
453.251	1	5
453.421	1	-1
453.592	1	3
453.762	1	4
453.933	1	-2
454.103	1	-8
454.274	1	-3
454.444	1	-4
454.615	1	10
454.785	1	1
454.956	1	4
455.126	1	1
455.297	1	12
455.467	1	3
455.638	1	9
455.808	1	-3
455.979	1	-8
456.149	1	2
456.320	1	-12
456.490	1	3
456.661	1	2
456.831	1	-2
457.001	1	-1
457.172	1	-1
457.342	1	6
457.513	1	11
457.683	1	1
457.854	1	3
458.024	1	-8
458.195	1	-6
458.365	1	-6
458.536	1	9
458.706	1	5
458.877	1	14
459.047	1	8
459.218	1	4
459.388	1	6
459.559	1	1
459.729	1	6
459.899	1	0
460.070	1	-3
460.240	1	3
460.411	1	-1
460.581	1	21
460.752	1	-4
460.922	1	2
461.093	1	7
461.263	1	-1
461.434	1	-5
461.604	1	-8
461.775	1	-2
461.945	1	-3
462.115	1	4
462.286	1	2
462.456	1	2
462.627	1	11
462.797	1	-7
462.968	1	1
463.138	1	-2
463.309	1	-14
463.479	1	-4
463.649	1	-7
463.820	1	-1
463.990	1	-9
464.161	1	3
464.331	1	-6
464.502	1	-1
464.672	1	-1
464.843	1	5
465.013	1	-8
465.183	1	-6
465.354	1	0
465.524	1	4
465.695	1	-13
465.865	1	3
466.036	1	-3
466.206	1	16
466.376	1	-11
466.547	1	-1
466.717	1	-11
466.888	1	2
467.058	1	-2
467.229	1	0
467.399	1	6
467.569	1	4
467.740	1	-5
467.910	1	3
468.081	1	12
468.251	1	-4
468.422	1	-11
468.592	1	5
468.762	1	2
468.933	1	8
469.103	1	-12
469.274	1	6
469.444	1	-6
469.614	1	3
469.785	1	-10
469.955	1	-6
470.126	1	-3
470.296	1	0
470.467	1	2
470.637	1	-2
470.807	1	-2
470.978	1	-5
471.148	1	0
471.319	1	-9
471.489	1	-2
471.659	1	-6
471.830	1	1
472.000	1	-2
472.171	1	8
472.341	1	-1
472.511	1	-1
472.682	1	-1
472.852	1	3
473.023	1	-1
473.193	1	7
473.363	1	-5
473.534	1	9
473.704	1	-8
473.875	1	19
474.045	1	-1
474.215	1	7
474.386	1	16
474.556	1	-4
474.727	1	-4
474.897	1	4
475.067	1	1
475.238	1	2
475.408	1	1
475.578	1	-11
475.749	1	-5
475.919	1	6
476.090	1	0
476.260	1	-8
476.430	1	-3
476.601	1	1
476.771	1	4
476.942	1	0
477.112	1	-3
477.282	1	-7
477.453	1	-5
477.623	1	-12
477.793	1	7
477.964	1	7
478.134	1	-13
478.305	1	-3
478.475	1	2
478.645	1	10
478.816	1	-1
478.986	1	1
479.156	1	4
479.327	1	-4
479.497	1	1
479.667	1	-7
479.838	1	5
480.008	1	-2
480.179	1	4
480.349	1	-18
480.519	1	-4
480.690	1	-8
480.860	1	-5
481.030	1	-5
481.201	1	-1
481.371	1	-1
481.541	1	2
481.712	1	1
481.882	1	12
482.053	1	1
482.223	1	-4
482.393	1	-1
482.564	1	0
482.734	1	-4
482.904	1	-2
483.075	1	0
483.245	1	11
483.415	1	1
483.586	1	-9
483.756	1	8
483.926	1	7
484.097	1	1
484.267	1	-9
484.437	1	0
484.608	1	1
484.778	1	1
484.948	1	-8
485.119	1	3
485.289	1	3
485.459	1	12
485.630	1	-1
485.800	1	-4
485.970	1	-1
486.141	1	-1
486.311	1	2
486.481	1	7
486.652	1	2
486.822	1	4
486.992	1	8
487.163	1	3
487.333	1	-4
487.503	1	-2
487.674	1	2
487.844	1	4
488.014	1	2
488.185	1	1
488.355	1	0
488.525	1	0
488.696	1	-6
488.866	1	3
489.036	1	3
489.207	1	-1
489.377	1	-8
489.547	1	-2
489.718	1	6
489.888	1	-4
490.058	1	-4
490.228	1	2
490.399	1	-3
490.569	1	15
490.739	1	1
490.910	1	-1
491.080	1	2
491.250	1	-2
491.421	1	1
491.591	1	-11
491.761	1	-5
491.932	1	0
492.102	1	-10
492.272	1	2
492.442	1	9
492.613	1	-5
492.783	1	4
492.953	1	-3
493.124	1	3
493.294	1	-4
493.464	1	11
493.635	1	-3
493.805	1	4
493.975	1	4
494.145	1	4
494.316	1	7
494.486	1	0
494.656	1	2
494.827	1	8
494.997	1	1
495.167	1	-4
495.337	1	10
495.508	1	2
495.678	1	0
495.848	1	3
496.019	1	-6
496.189	1	1
496.359	1	-1
496.529	1	9
496.700	1	-7
496.870	1	2
497.040	1	8
497.211	1	-8
497.381	1	-4
497.551	1	2
497.721	1	1
497.892	1	0
498.062	1	7
498.232	1	-4
498.403	1	-1
498.573	1	0
498.743	1	-1
498.913	1	7
499.084	1	-6
499.254	1	7
499.424	1	1
499.594	1	0
499.765	1	5
499.935	1	-2
500.105	1	3
500.275	1	2
500.446	1	-1
500.616	1	-3
500.786	1	-2
500.956	1	-3
501.127	1	1
501.297	1	-6
501.467	1	-7
501.638	1	-2
501.808	1	6
501.978	1	4
502.148	1	1
502.319	1	2
502.489	1	7
502.659	1	-4
502.829	1	2
503.000	1	-4
503.170	1	10
503.340	1	10
503.510	1	0
503.681	1	-10
503.851	1	0
504.021	1	2
504.191	1	6
504.362	1	-5
504.532	1	-3
504.702	1	-1
504.872	1	-1
505.042	1	-12
505.213	1	2
505.383	1	1
505.553	1	-2
505.723	1	-3
505.894	1	-1
506.064	1	5
506.234	1	2
506.404	1	-9
506.575	1	10
506.745	1	4
506.915	1	2
507.085	1	-6
507.256	1	11
507.426	1	4
507.596	1	1
507.766	1	6
507.936	1	6
508.107	1	2
508.277	1	-2
508.447	1	13
508.617	1	-5
508.788	1	9
508.958	1	2
509.128	1	4
509.298	1	2
509.468	1	1
509.639	1	0
509.809	1	-3
509.979	1	-2
510.149	1	0
510.319	1	4
510.490	1	17
510.660	1	7
510.830	1	6
511.000	1	0
511.171	1	-4
511.341	1	7
511.511	1	8
511.681	1	6
511.851	1	8
512.022	1	-1
512.192	1	-6
512.362	1	-10
512.532	1	8
512.702	1	-1
512.873	1	18
513.043	1	5
513.213	1	-6
513.383	1	-8
513.553	1	-16
513.724	1	-8
513.894	1	-6
514.064	1	9
514.234	1	6
514.404	1	0
514.575	1	6
514.745	1	2
514.915	1	2
515.085	1	10
515.255	1	4
515.425	1	-6
515.596	1	4
515.766	1	-6
515.936	1	-7
516.106	1	-8
516.276	1	-11
516.447	1	11
516.617	1	10
516.787	1	2
516.957	1	4
517.127	1	-1
517.297	1	-8
517.468	1	2
517.638	1	2
517.808	1	8
517.978	1	3
518.148	1	4
518.319	1	0
518.489	1	-7
518.659	1	-9
518.829	1	2
518.999	1	8
519.169	1	5
519.340	1	3
519.510	1	2
519.680	1	8
519.850	1	11
520.020	1	-2
520.190	1	-3
520.361	1	7
520.531	1	9
520.701	1	10
520.871	1	6
521.041	1	13
521.211	1	-2
521.382	1	-7
521.552	1	13
521.722	1	7
521.892	1	1
522.062	1	8
522.232	1	2
522.402	1	1
522.573	1	3
522.743	1	0
522.913	1	6
523.083	1	6
523.253	1	0
523.423	1	0
523.593	1	-3
523.764	1	-1
523.934	1	-2
524.104	1	8
524.274	1	7
524.444	1	4
524.614	1	5
524.784	1	4
524.955	1	-6
525.125	1	1
525.295	1	4
525.465	1	8
525.635	1	10
525.805	1	-4
525.975	1	3
526.146	1	-3
526.316	1	7
526.486	1	1
526.656	1	4
526.826	1	1
526.996	1	0
527.166	1	-1
527.337	1	1
527.507	1	-3
527.677	1	7
527.847	1	5
528.017	1	1
528.187	1	-2
528.357	1	6
528.527	1	11
528.698	1	2
528.868	1	-8
529.038	1	5
529.208	1	3
529.378	1	5
529.548	1	-1
529.718	1	4
529.888	1	7
530.058	1	2
530.229	1	7
530.399	1	3
530.569	1	-4
530.739	1	3
530.909	1	-3
531.079	1	5
531.249	1	3
531.419	1	10
531.589	1	7
531.760	1	10
531.930	1	2
532.100	1	2
532.270	1	-3
532.440	1	2
532.610	1	2
532.780	1	9
532.950	1	6
533.120	1	16
533.290	1	5
533.461	1	-1
533.631	1	6
533.801	1	15
533.971	1	-4
534.141	1	-9
534.311	1	4
534.481	1	-1
534.651	1	2
534.821	1	17
534.991	1	5
535.162	1	2
535.332	1	3
535.502	1	-4
535.672	1	11
535.842	1	9
536.012	1	8
536.182	1	-8
536.352	1	8
536.522	1	-5
536.692	1	-1
536.862	1	3
537.032	1	11
537.203	1	-6
537.373	1	10
537.543	1	4
537.713	1	5
537.883	1	0
538.053	1	-3
538.223	1	-1
538.393	1	7
538.563	1	4
538.733	1	9
538.903	1	3
539.073	1	6
539.243	1	-4
539.413	1	5
539.584	1	7
539.754	1	0
539.924	1	11
540.094	1	0
540.264	1	2
540.434	1	0
540.604	1	2
540.774	1	0
540.944	1	0
541.114	1	-3
541.284	1	8
541.454	1	0
541.624	1	15
541.794	1	0
541.964	1	5
542.134	1	5
542.305	1	9
542.475	1	8
542.645	1	1
542.815	1	-3
542.985	1	9
543.155	1	10
543.325	1	-2
543.495	1	3
543.665	1	13
543.835	1	6
544.005	1	9
544.175	1	-10
544.345	1	10
544.515	1	-1
544.685	1	-1
544.855	1	1
545.025	1	-6
545.195	1	5
545.365	1	0
545.535	1	11
545.705	1	3
545.875	1	-15
546.045	1	-4
546.216	1	1
546.386	1	7
546.556	1	-8
546.726	1	-6
546.896	1	8
547.066	1	6
547.236	1	3
547.406	1	2
547.576	1	10
547.746	1	-12
547.916	1	0
548.086	1	0
548.256	1	2
548.426	1	-7
548.596	1	4
548.766	1	6
548.936	1	13
549.106	1	-2
549.276	1	3
549.446	1	0
549.616	1	-7
549.786	1	-8
549.956	1	14
550.126	1	11
550.296	1	8
550.466	1	9
550.636	1	6
550.806	1	2
550.976	1	1
551.146	1	3
551.316	1	8
551.486	1	-1
551.656	1	7
551.826	1	3
551.996	1	11
552.166	1	-7
552.336	1	2
552.506	1	5
552.676	1	17
552.846	1	11
553.016	1	7
553.186	1	6
553.356	1	10
553.526	1	1
553.696	1	-1
553.866	1	-2
554.036	1	2
554.206	1	8
554.376	1	11
554.546	1	3
554.716	1	-6
554.886	1	-1
555.056	1	5
555.226	1	-6
555.396	1	4
555.566	1	-1
555.736	1	7
555.906	1	11
556.076	1	-2
556.246	1	1
556.416	1	1
556.586	1	-6
556.756	1	1
556.926	1	0
557.096	1	-1
557.266	1	-4
557.436	1	3
557.606	1	1
557.776	1	5
557.946	1	4
558.116	1	-2
558.286	1	9
558.456	1	2
558.626	1	0
558.796	1	8
558.966	1	7
559.136	1	5
559.306	1	-1
559.476	1	-1
559.646	1	-4
559.816	1	-6
559.986	1	-7
560.155	1	11
560.325	1	5
560.495	1	-6
560.665	1	-8
560.835	1	5
561.005	1	-2
561.175	1	7
561.345	1	0
561.515	1	8
561.685	1	-9
561.855	1	-6
562.025	1	-1
562.195	1	11
562.365	1	0
562.535	1	-1
562.705	1	-4
562.875	1	6
563.045	1	-6
563.215	1	9
563.385	1	-14
563.555	1	-3
563.725	1	4
563.895	1	14
564.064	1	7
564.234	1	-3
564.404	1	3
564.574	1	7
564.744	1	5
564.914	1	-3
565.084	1	1
565.254	1	15
565.424	1	4
565.594	1	11
565.764	1	1
565.934	1	9
566.104	1	-2
566.274	1	6
566.444	1	-16
566.614	1	4
566.783	1	7
566.953	1	7
567.123	1	9
567.293	1	13
567.463	1	1
567.633	1	8
567.803	1	0
567.973	1	4
568.143	1	-1
568.313	1	14
568.483	1	10
568.653	1	7
568.823	1	2
568.993	1	8
569.162	1	9
569.332	1	-1
569.502	1	3
569.672	1	0
569.842	1	4
570.012	1	5
570.182	1	1
570.352	1	-3
570.522	1	-10
570.692	1	15
570.862	1	-1
571.031	1	2
571.201	1	2
571.371	1	-1
571.541	1	4
571.711	1	6
571.881	1	19
572.051	1	9
572.221	1	5
572.391	1	0
572.561	1	-1
572.731	1	3
572.900	1	1
573.070	1	-3
573.240	1	4
573.410	1	6
573.580	1	3
573.750	1	-8
573.920	1	6
574.090	1	-2
574.260	1	15
574.430	1	-4
574.599	1	7
574.769	1	4
574.939	1	4
575.109	1	9
575.279	1	9
575.449	1	1
575.619	1	4
575.789	1	1
575.959	1	-6
576.128	1	-14
576.298	1	9
576.468	1	-3
576.638	1	-3
576.808	1	2
576.978	1	8
577.148	1	6
577.318	1	2
577.487	1	5
577.657	1	1
577.827	1	5
577.997	1	7
578.167	1	-4
578.337	1	2
578.507	1	9
578.677	1	10
578.846	1	5
579.016	1	5
579.186	1	7
579.356	1	1
579.526	1	-4
579.696	1	9
579.866	1	-2
580.036	1	-2
580.205	1	0
580.375	1	10
580.545	1	2
580.715	1	-2
580.885	1	11
581.055	1	-2
581.225	1	5
581.394	1	4
581.564	1	12
581.734	1	-8
581.904	1	4
582.074	1	5
582.244	1	2
582.414	1	10
582.583	1	7
582.753	1	-3
582.923	1	7
583.093	1	-2
583.263	1	6
583.433	1	2
583.603	1	1
583.772	1	6
583.942	1	-1
584.112	1	-1
584.282	1	3
584.452	1	3
584.622	1	3
584.791	1	1
584.961	1	4
585.131	1	1
585.301	1	-1
585.471	1	3
585.641	1	-9
585.811	1	6
585.980	1	10
586.150	1	4
586.320	1	2
586.490	1	7
586.660	1	8
586.830	1	5
586.999	1	2
587.169	1	-5
587.339	1	7
587.509	1	-5
587.679	1	7
587.849	1	7
588.018	1	2
588.188	1	8
588.358	1	-1
588.528	1	13
588.698	1	-1
588.867	1	2
589.037	1	9
589.207	1	4
589.377	1	3
589.547	1	-3
589.717	1	1
589.886	1	4
590.056	1	2
590.226	1	6
590.396	1	18
590.566	1	-3
590.735	1	3
590.905	1	3
591.075	1	2
591.245	1	-7
591.415	1	-8
591.585	1	3
591.754	1	-2
591.924	1	4
592.094	1	-4
592.264	1	6
592.434	1	-5
592.603	1	8
592.773	1	-2
592.943	1	0
593.113	1	-2
593.283	1	0
593.452	1	3
593.622	1	-1
593.792	1	8
593.962	1	9
594.132	1	-3
594.301	1	7
594.471	1	13
594.641	1	2
594.811	1	6
594.981	1	-6
595.150	1	-9
595.320	1	0
595.490	1	-3
595.660	1	-5
595.829	1	-10
595.999	1	4
596.169	1	11
596.339	1	3
596.509	1	1
596.678	1	-5
596.848	1	2
597.018	1	-8
597.188	1	-2
597.358	1	7
597.527	1	-3
597.697	1	-3
597.867	1	5
598.037	1	2
598.206	1	-4
598.376	1	7
598.546	1	2
598.716	1	6
598.885	1	-6
599.055	1	6
599.225	1	-6
599.395	1	8
599.565	1	-6
599.734	1	4
599.904	1	2
600.074	1	3
600.244	1	-3
600.413	1	5
600.583	1	14
600.753	1	7
600.923	1	2
601.092	1	9
601.262	1	7
601.432	1	-6
601.602	1	12
601.771	1	2
601.941	1	4
602.111	1	15
602.281	1	13
602.451	1	-5
602.620	1	1
602.790	1	6
602.960	1	0
603.130	1	8
603.299	1	-6
603.469	1	-2
603.639	1	-12
603.809	1	9
603.978	1	3
604.148	1	6
604.318	1	6
604.487	1	-4
604.657	1	12
604.827	1	13
604.997	1	-1
605.166	1	3
605.336	1	4
605.506	1	3
605.676	1	-10
605.845	1	6
606.015	1	-6
606.185	1	5
606.355	1	1
606.524	1	6
606.694	1	1
606.864	1	-4
607.034	1	4
607.203	1	-5
607.373	1	0
607.543	1	1
607.712	1	-3
607.882	1	5
608.052	1	7
608.222	1	9
608.391	1	5
608.561	1	-1
608.731	1	0
608.901	1	11
609.070	1	6
609.240	1	-7
609.410	1	-1
609.579	1	9
609.749	1	2
609.919	1	13
610.089	1	1
610.258	1	8
610.428	1	-2
610.598	1	-1
610.767	1	2
610.937	1	12
611.107	1	-2
611.277	1	-2
611.446	1	9
611.616	1	0
611.786	1	5
611.955	1	-4
612.125	1	2
612.295	1	-3
612.465	1	-1
612.634	1	1
612.804	1	-2
612.974	1	-4
613.143	1	0
613.313	1	16
613.483	1	5
613.652	1	1
613.822	1	-3
613.992	1	-1
614.162	1	11
614.331	1	-3
614.501	1	-2
614.671	1	2
614.840	1	0
615.010	1	-6
615.180	1	-4
615.349	1	4
615.519	1	-7
615.689	1	15
615.858	1	3
616.028	1	-2
616.198	1	0
616.368	1	1
616.537	1	3
616.707	1	5
616.877	1	4
617.046	1	7
617.216	1	0
617.386	1	6
617.555	1	3
617.725	1	-6
617.895	1	0
618.064	1	-5
618.234	1	2
618.404	1	4
618.573	1	-2
618.743	1	3
618.913	1	6
619.082	1	4
619.252	1	-3
619.422	1	-8
619.591	1	0
619.761	1	6
619.931	1	12
620.100	1	1
620.270	1	-3
620.440	1	-10
620.609	1	5
620.779	1	-7
620.949	1	-1
621.118	1	-4
621.288	1	8
621.458	1	8
621.627	1	3
621.797	1	2
621.967	1	-5
622.136	1	7
622.306	1	-5
622.476	1	8
622.645	1	12
622.815	1	13
622.985	1	0
623.154	1	0
623.324	1	-5
623.494	1	7
623.663	1	-6
623.833	1	10
624.002	1	-5
624.172	1	6
624.342	1	8
624.511	1	2
624.681	1	7
624.851	1	-8
625.020	1	4
625.190	1	2
625.360	1	-3
625.529	1	6
625.699	1	-1
625.869	1	7
626.038	1	-8
626.208	1	-2
626.377	1	10
626.547	1	2
626.717	1	6
626.886	1	4
627.056	1	-10
627.226	1	2
627.395	1	7
627.565	1	3
627.735	1	6
627.904	1	-1
628.074	1	-3
628.243	1	7
628.413	1	0
628.583	1	-2
628.752	1	-5
628.922	1	0
629.091	1	-4
629.261	1	7
629.431	1	-9
629.600	1	13
629.770	1	-10
629.940	1	5
630.109	1	-15
630.279	1	0
630.448	1	0
630.618	1	-2
630.788	1	2
630.957	1	9
631.127	1	3
631.297	1	-2
631.466	1	9
631.636	1	-12
631.805	1	0
631.975	1	16
632.145	1	4
632.314	1	1
632.484	1	-2
632.653	1	4
632.823	1	-1
632.993	1	0
633.162	1	-5
633.332	1	4
633.501	1	-2
633.671	1	-1
633.841	1	-11
634.010	1	-9
634.180	1	6
634.349	1	7
634.519	1	-4
634.689	1	5
634.858	1	-1
635.028	1	9
635.197	1	10
635.367	1	-5
635.537	1	-6
635.706	1	6
635.876	1	0
636.045	1	13
636.215	1	2
636.384	1	1
636.554	1	9
636.724	1	2
636.893	1	0
637.063	1	1
637.232	1	0
637.402	1	4
637.572	1	8
637.741	1	3
637.911	1	-1
638.080	1	-2
638.250	1	0
638.419	1	-2
638.589	1	-2
638.759	1	-6
638.928	1	-5
639.098	1	8
639.267	1	4
639.437	1	1
639.606	1	-2
639.776	1	4
639.946	1	8
640.115	1	-5
640.285	1	-1
640.454	1	-7
640.624	1	5
640.793	1	11
640.963	1	9
641.132	1	2
641.302	1	-1
641.472	1	3
641.641	1	-7
641.811	1	-2
641.980	1	8
642.150	1	-7
642.319	1	-2
642.489	1	7
642.659	1	1
642.828	1	0
642.998	1	7
643.167	1	-4
643.337	1	-5
643.506	1	-9
643.676	1	10
643.845	1	-2
644.015	1	5
644.184	1	8
644.354	1	3
644.524	1	-4
644.693	1	5
644.863	1	-5
645.032	1	2
645.202	1	-4
645.371	1	-3
645.541	1	6
645.710	1	1
645.880	1	7
646.049	1	-5
646.219	1	2
646.388	1	6
646.558	1	1
646.728	1	4
646.897	1	7
647.067	1	7
647.236	1	-1
647.406	1	-2
647.575	1	4
647.745	1	-3
647.914	1	-5
648.084	1	-5
648.253	1	19
648.423	1	-15
648.592	1	-8
648.762	1	10
648.931	1	7
649.101	1	1
649.270	1	-1
649.440	1	0
649.610	1	-8
649.779	1	-1
649.949	1	4
650.118	1	9
650.288	1	2
650.457	1	11
650.627	1	8
650.796	1	4
650.966	1	5
651.135	1	-10
651.305	1	4
651.474	1	-5
651.644	1	8
651.813	1	-1
651.983	1	-3
652.152	1	8
652.322	1	-8
652.491	1	4
652.661	1	-3
652.830	1	5
653.000	1	2
653.169	1	4
653.339	1	7
653.508	1	-6
653.678	1	-3
653.847	1	11
654.017	1	-8
654.186	1	2
654.356	1	-9
654.525	1	6
654.695	1	3
654.864	1	-3
655.034	1	0
655.203	1	-9
655.373	1	9
655.542	1	2
655.712	1	-3
655.881	1	-1
656.051	1	3
656.220	1	-1
656.390	1	-1
656.559	1	5
656.729	1	11
656.898	1	-13
657.068	1	0
657.237	1	-7
657.406	1	-4
657.576	1	-7
657.745	1	0
657.915	1	0
658.084	1	10
658.254	1	-3
658.423	1	13
658.593	1	11
658.762	1	-1
658.932	1	2
659.101	1	8
659.271	1	11
659.440	1	-2
659.610	1	4
659.779	1	5
659.949	1	4
660.118	1	3
660.288	1	4
660.457	1	11
660.626	1	8
660.796	1	-5
660.965	1	8
661.135	1	-1
661.304	1	4
661.474	1	-1
661.643	1	2
661.813	1	11
661.982	1	14
662.152	1	1
662.321	1	4
662.491	1	-7
662.660	1	-1
662.829	1	-6
662.999	1	0
663.168	1	-3
663.338	1	7
663.507	1	2
663.677	1	5
663.846	1	4
664.016	1	-5
664.185	1	-2
664.354	1	10
664.524	1	-13
664.693	1	2
664.863	1	-4
665.032	1	-5
665.202	1	-7
665.371	1	-3
665.541	1	-10
665.710	1	-6
665.879	1	0
666.049	1	-1
666.218	1	5
666.388	1	6
666.557	1	6
666.727	1	-7
666.896	1	1
667.065	1	0
667.235	1	3
667.404	1	5
667.574	1	0
667.743	1	8
667.913	1	0
668.082	1	3
668.251	1	0
668.421	1	-1
668.590	1	1
668.760	1	-2
668.929	1	-13
669.099	1	2
669.268	1	5
669.437	1	4
669.607	1	-2
669.776	1	-3
669.946	1	-2
670.115	1	-2
670.285	1	5
670.454	1	2
670.623	1	-7
670.793	1	1
670.962	1	4
671.132	1	7
671.301	1	5
671.470	1	0
671.640	1	2
671.809	1	-14
671.979	1	-1
672.148	1	-5
672.317	1	-2
672.487	1	6
672.656	1	-7
672.826	1	-4
672.995	1	15
673.164	1	5
673.334	1	-3
673.503	1	5
673.673	1	3
673.842	1	0
674.011	1	-3
674.181	1	6
674.350	1	6
674.520	1	-6
674.689	1	-2
674.858	1	7
675.028	1	-2
675.197	1	-5
675.367	1	6
675.536	1	6
675.705	1	7
675.875	1	-9
676.044	1	5
676.214	1	-7
676.383	1	12
676.552	1	4
676.722	1	3
676.891	1	15
677.060	1	-3
677.230	1	-5
677.399	1	-6
677.569	1	-4
677.738	1	5
677.907	1	6
678.077	1	5
678.246	1	3
678.416	1	4
678.585	1	4
678.754	1	5
678.924	1	-5
679.093	1	13
679.262	1	2
679.432	1	-1
679.601	1	2
679.771	1	-3
679.940	1	0
680.109	1	15
680.279	1	-6
680.448	1	-4
680.617	1	2
680.787	1	-2
680.956	1	7
681.125	1	1
681.295	1	0
681.464	1	-1
681.634	1	-1
681.803	1	-4
681.972	1	-6
682.142	1	13
682.311	1	1
682.480	1	5
682.650	1	7
682.819	1	2
682.988	1	1
683.158	1	-6
683.327	1	-1
683.496	1	-7
683.666	1	5
683.835	1	6
684.004	1	1
684.174	1	-10
684.343	1	3
684.512	1	9
684.682	1	3
684.851	1	2
685.021	1	-4
685.190	1	-2
685.359	1	5
685.529	1	2
685.698	1	4
685.867	1	-2
686.037	1	-3
686.206	1	1
686.375	1	10
686.545	1	-11
686.714	1	-3
686.883	1	2
687.053	1	-3
687.222	1	2
687.391	1	-1
687.561	1	6
687.730	1	1
687.899	1	2
688.069	1	10
688.238	1	9
688.407	1	0
688.577	1	-5
688.746	1	-2
