340.368	1	6
340.539	1	-13
340.710	1	-8
340.881	1	-8
341.052	1	8
341.223	1	-8
341.394	1	-7
341.565	1	-1
341.737	1	7
341.908	1	0
342.079	1	-14
342.250	1	-2
342.421	1	-8
342.592	1	11
342.763	1	14
342.934	1	1
343.105	1	3
343.276	1	3
343.447	1	-9
343.618	1	-11
343.789	1	2
343.960	1	4
344.131	1	2
344.302	1	13
344.473	1	-3
344.644	1	1
344.815	1	2
344.986	1	4
345.157	1	-11
345.328	1	7
345.499	1	-1
345.670	1	-2
345.841	1	8
346.012	1	8
346.183	1	-1
346.354	1	-7
346.526	1	-3
346.697	1	0
346.868	1	6
347.039	1	2
347.210	1	-2
347.381	1	3
347.552	1	0
347.723	1	-7
347.894	1	3
348.065	1	2
348.236	1	7
348.407	1	-6
348.578	1	1
348.749	1	-4
348.920	1	1
349.091	1	-15
349.262	1	2
349.433	1	-1
349.604	1	0
349.775	1	7
349.946	1	-7
350.117	1	-1
350.288	1	-5
350.459	1	-2
350.630	1	2
350.801	1	-9
350.972	1	0
351.143	1	-6
351.314	1	4
351.485	1	2
351.656	1	9
351.827	1	3
351.998	1	9
352.169	1	4
352.340	1	5
352.511	1	0
352.682	1	4
352.853	1	2
353.024	1	2
353.195	1	9
353.366	1	8
353.537	1	1
353.708	1	3
353.879	1	3
354.050	1	-2
354.221	1	-12
354.392	1	-4
354.563	1	0
354.734	1	6
354.905	1	-3
355.076	1	-2
355.247	1	8
355.418	1	-5
355.589	1	-6
355.760	1	-1
355.931	1	6
356.102	1	1
356.273	1	-9
356.444	1	-5
356.615	1	2
356.785	1	4
356.956	1	11
357.127	1	-3
357.298	1	5
357.469	1	-4
357.640	1	-3
357.811	1	1
357.982	1	0
358.153	1	5
358.324	1	-6
358.495	1	0
358.666	1	-4
358.837	1	-13
359.008	1	0
359.179	1	7
359.350	1	-7
359.521	1	5
359.692	1	12
359.863	1	-1
360.034	1	2
360.205	1	2
360.376	1	7
360.547	1	15
360.718	1	-2
360.889	1	1
361.060	1	3
361.231	1	0
361.401	1	6
361.572	1	0
361.743	1	0
361.914	1	4
362.085	1	16
362.256	1	2
362.427	1	20
362.598	1	4
362.769	1	3
362.940	1	-4
363.111	1	0
363.282	1	8
363.453	1	-6
363.624	1	9
363.795	1	6
363.966	1	11
364.137	1	13
364.308	1	6
364.478	1	9
364.649	1	3
364.820	1	7
364.991	1	8
365.162	1	14
365.333	1	3
365.504	1	10
365.675	1	1
365.846	1	13
366.017	1	6
366.188	1	16
366.359	1	4
366.530	1	26
366.701	1	-2
366.871	1	5
367.042	1	12
367.213	1	25
367.384	1	13
367.555	1	13
367.726	1	17
367.897	1	19
368.068	1	24
368.239	1	19
368.410	1	27
368.581	1	21
368.752	1	8
368.923	1	8
369.093	1	13
369.264	1	8
369.435	1	24
369.606	1	16
369.777	1	14
369.948	1	16
370.119	1	11
370.290	1	16
370.461	1	29
370.632	1	20
370.803	1	10
370.973	1	13
371.144	1	11
371.315	1	14
371.486	1	20
371.657	1	25
371.828	1	10
371.999	1	14
372.170	1	16
372.341	1	9
372.512	1	16
372.682	1	13
372.853	1	11
373.024	1	7
373.195	1	10
373.366	1	17
373.537	1	6
373.708	1	13
373.879	1	8
374.050	1	8
374.220	1	31
374.391	1	11
374.562	1	13
374.733	1	15
374.904	1	2
375.075	1	8
375.246	1	13
375.417	1	10
375.588	1	6
375.758	1	14
375.929	1	21
376.100	1	4
376.271	1	20
376.442	1	8
376.613	1	3
376.784	1	10
376.955	1	5
377.125	1	9
377.296	1	5
377.467	1	10
377.638	1	6
377.809	1	13
377.980	1	4
378.151	1	5
378.321	1	2
378.492	1	-1
378.663	1	6
378.834	1	5
379.005	1	18
379.176	1	5
379.347	1	6
379.518	1	-5
379.688	1	0
379.859	1	1
380.030	1	-3
380.201	1	4
380.372	1	-1
380.543	1	13
380.714	1	6
380.884	1	13
381.055	1	12
381.226	1	0
381.397	1	2
381.568	1	3
381.739	1	4
381.910	1	6
382.080	1	6
382.251	1	4
382.422	1	-1
382.593	1	-6
382.764	1	-11
382.935	1	4
383.105	1	3
383.276	1	7
383.447	1	7
383.618	1	13
383.789	1	-1
383.960	1	3
384.130	1	1
384.301	1	6
384.472	1	0
384.643	1	7
384.814	1	0
384.985	1	-1
385.156	1	0
385.326	1	12
385.497	1	4
385.668	1	2
385.839	1	-2
386.010	1	6
386.180	1	5
386.351	1	1
386.522	1	9
386.693	1	-6
386.864	1	4
387.035	1	6
387.205	1	-4
387.376	1	1
387.547	1	-8
387.718	1	8
387.889	1	2
388.060	1	9
388.230	1	11
388.401	1	1
388.572	1	9
388.743	1	-1
388.914	1	8
389.084	1	0
389.255	1	-5
389.426	1	5
389.597	1	4
389.768	1	5
389.939	1	0
390.109	1	1
390.280	1	1
390.451	1	-6
390.622	1	-2
390.793	1	0
390.963	1	12
391.134	1	1
391.305	1	4
391.476	1	-2
391.647	1	6
391.817	1	5
391.988	1	9
392.159	1	-6
392.330	1	4
392.501	1	3
392.671	1	-5
392.842	1	3
393.013	1	1
393.184	1	8
393.355	1	2
393.525	1	3
393.696	1	4
393.867	1	5
394.038	1	8
394.208	1	-2
394.379	1	6
394.550	1	4
394.721	1	-1
394.892	1	0
395.062	1	2
395.233	1	-1
395.404	1	-1
395.575	1	3
395.746	1	7
395.916	1	-9
396.087	1	-9
396.258	1	-1
396.429	1	6
396.599	1	-3
396.770	1	-9
396.941	1	4
397.112	1	5
397.283	1	2
397.453	1	4
397.624	1	6
397.795	1	5
397.966	1	4
398.136	1	-17
398.307	1	-1
398.478	1	1
398.649	1	-9
398.819	1	5
398.990	1	5
399.161	1	9
399.332	1	2
399.503	1	1
399.673	1	-1
399.844	1	5
400.015	1	-1
400.186	1	5
400.356	1	-17
400.527	1	4
400.698	1	-1
400.869	1	0
401.039	1	7
401.210	1	-3
401.381	1	-4
401.552	1	-10
401.722	1	12
401.893	1	-8
402.064	1	1
402.235	1	2
402.405	1	2
402.576	1	-3
402.747	1	-3
402.918	1	-4
403.088	1	7
403.259	1	10
403.430	1	-13
403.601	1	-6
403.771	1	-8
403.942	1	6
404.113	1	-6
404.284	1	-2
404.454	1	0
404.625	1	2
404.796	1	9
404.967	1	0
405.137	1	10
405.308	1	0
405.479	1	-3
405.649	1	0
405.820	1	-10
405.991	1	-4
406.162	1	2
406.332	1	4
406.503	1	1
406.674	1	1
406.845	1	13
407.015	1	8
407.186	1	2
407.357	1	-4
407.527	1	-7
407.698	1	9
407.869	1	-9
408.040	1	-3
408.210	1	-5
408.381	1	10
408.552	1	-3
408.722	1	-16
408.893	1	-2
409.064	1	-5
409.235	1	3
409.405	1	-1
409.576	1	-5
409.747	1	-14
409.917	1	-1
410.088	1	4
410.259	1	-1
410.430	1	3
410.600	1	-7
410.771	1	1
410.942	1	12
411.112	1	-4
411.283	1	9
411.454	1	-6
411.625	1	0
411.795	1	-2
411.966	1	2
412.137	1	6
412.307	1	-5
412.478	1	13
412.649	1	3
412.819	1	-5
412.990	1	1
413.161	1	-2
413.332	1	1
413.502	1	-4
413.673	1	0
413.844	1	9
414.014	1	1
414.185	1	8
414.356	1	8
414.526	1	-9
414.697	1	1
414.868	1	3
415.038	1	0
415.209	1	-8
415.380	1	1
415.550	1	-1
415.721	1	-1
415.892	1	6
416.063	1	-6
416.233	1	15
416.404	1	-12
416.575	1	11
416.745	1	-3
416.916	1	-3
417.087	1	-5
417.257	1	-2
417.428	1	-2
417.599	1	-1
417.769	1	9
417.940	1	3
418.111	1	-3
418.281	1	3
418.452	1	1
418.623	1	-2
418.793	1	5
418.964	1	-9
419.135	1	-3
419.305	1	3
419.476	1	0
419.647	1	-2
419.817	1	1
419.988	1	2
420.159	1	3
420.329	1	-10
420.500	1	-4
420.671	1	3
420.841	1	16
421.012	1	3
421.183	1	-3
421.353	1	-6
421.524	1	-15
421.695	1	-12
421.865	1	3
422.036	1	4
422.206	1	6
422.377	1	0
422.548	1	-12
422.718	1	3
422.889	1	-4
423.060	1	-8
423.230	1	-2
423.401	1	5
423.572	1	2
423.742	1	3
423.913	1	1
424.084	1	3
424.254	1	-5
424.425	1	0
424.595	1	-5
424.766	1	-4
424.937	1	3
425.107	1	-6
425.278	1	12
425.449	1	-2
425.619	1	3
425.790	1	-2
425.961	1	0
426.131	1	-1
426.302	1	11
426.472	1	3
426.643	1	10
426.814	1	0
426.984	1	4
427.155	1	-13
427.326	1	2
427.496	1	-9
427.667	1	11
427.837	1	3
428.008	1	5
428.179	1	-3
428.349	1	-10
428.520	1	-5
428.691	1	1
428.861	1	-2
429.032	1	7
429.202	1	-1
429.373	1	-3
429.544	1	-5
429.714	1	-6
429.885	1	-3
430.055	1	5
430.226	1	-6
430.397	1	2
430.567	1	-2
430.738	1	1
430.909	1	5
431.079	1	-4
431.250	1	-4
431.420	1	-6
431.591	1	2
431.762	1	2
431.932	1	-9
432.103	1	-2
432.273	1	1
432.444	1	6
432.615	1	-4
432.785	1	3
432.956	1	-7
433.126	1	-6
433.297	1	3
433.468	1	-6
433.638	1	-5
433.809	1	1
433.979	1	0
434.150	1	9
434.320	1	7
434.491	1	1
434.662	1	-2
434.832	1	0
435.003	1	4
435.173	1	-2
435.344	1	0
435.515	1	7
435.685	1	0
435.856	1	5
436.026	1	6
436.197	1	-4
436.368	1	5
436.538	1	-7
436.709	1	7
436.879	1	-8
437.050	1	-6
437.220	1	5
437.391	1	11
437.562	1	-2
437.732	1	-13
437.903	1	-3
438.073	1	1
438.244	1	11
438.414	1	-4
438.585	1	-6
438.756	1	-7
438.926	1	3
439.097	1	-7
439.267	1	-2
439.438	1	1
439.608	1	-9
439.779	1	-5
439.949	1	7
440.120	1	-1
440.291	1	-4
440.461	1	-7
440.632	1	6
440.802	1	2
440.973	1	-2
441.143	1	6
441.314	1	-5
441.485	1	2
441.655	1	-5
441.826	1	3
441.996	1	6
442.167	1	2
442.337	1	1
442.508	1	-8
442.678	1	2
442.849	1	14
443.019	1	5
443.190	1	7
443.361	1	0
443.531	1	9
443.702	1	0
443.872	1	16
444.043	1	9
444.213	1	0
444.384	1	-12
444.554	1	5
444.725	1	-9
444.895	1	-5
445.066	1	-9
445.237	1	-3
445.407	1	9
445.578	1	-10
445.748	1	1
445.919	1	2
446.089	1	4
446.260	1	-1
446.430	1	-1
446.601	1	-2
446.771	1	9
446.942	1	0
447.112	1	-1
447.283	1	-1
447.453	1	-4
447.624	1	-1
447.794	1	-9
447.965	1	-3
448.135	1	2
448.306	1	0
448.477	1	3
448.647	1	-5
448.818	1	3
448.988	1	-3
449.159	1	-7
449.329	1	-6
449.500	1	-3
449.670	1	12
449.841	1	3
450.011	1	9
450.182	1	-11
450.352	1	-6
450.523	1	-10
450.693	1	-1
450.864	1	-4
451.034	1	1
451.205	1	9
451.375	1	5
451.546	1	-5
451.716	1	-3
451.887	1	-16
452.057	1	5
452.228	1	-6
452.398	1	1
452.569	1	-10
452.739	1	8
452.910	1	-3
453.080	1	-3
453.251	1	10
453.421	1	3
453.592	1	-9
453.762	1	3
453.933	1	-9
454.103	1	-4
454.274	1	-1
454.444	1	-7
454.615	1	-1
454.785	1	-4
454.956	1	-1
455.126	1	0
455.297	1	12
455.467	1	-3
455.638	1	-5
455.808	1	0
455.979	1	-6
456.149	1	9
456.320	1	-2
456.490	1	3
456.661	1	11
456.831	1	-3
457.001	1	-1
457.172	1	-2
457.342	1	6
457.513	1	1
457.683	1	-2
457.854	1	6
458.024	1	8
458.195	1	-5
458.365	1	-12
458.536	1	2
458.706	1	2
458.877	1	3
459.047	1	3
459.218	1	-4
459.388	1	1
459.559	1	0
459.729	1	-1
459.899	1	-1
460.070	1	7
460.240	1	2
460.411	1	-7
460.581	1	8
460.752	1	1
460.922	1	-4
461.093	1	1
461.263	1	0
461.434	1	1
461.604	1	-1
461.775	1	-5
461.945	1	5
462.115	1	-2
462.286	1	2
462.456	1	-9
462.627	1	9
462.797	1	-2
462.968	1	1
463.138	1	-3
463.309	1	-1
463.479	1	-1
463.649	1	3
463.820	1	-5
463.990	1	-3
464.161	1	-6
464.331	1	-1
464.502	1	-3
464.672	1	1
464.843	1	0
465.013	1	-6
465.183	1	-3
465.354	1	6
465.524	1	-6
465.695	1	-5
465.865	1	-5
466.036	1	0
466.206	1	8
466.376	1	-5
466.547	1	1
466.717	1	6
466.888	1	5
467.058	1	-2
467.229	1	-9
467.399	1	15
467.569	1	8
467.740	1	1
467.910	1	-5
468.081	1	1
468.251	1	-6
468.422	1	-9
468.592	1	6
468.762	1	-7
468.933	1	-5
469.103	1	-9
469.274	1	9
469.444	1	-2
469.614	1	12
469.785	1	-10
469.955	1	-9
470.126	1	-3
470.296	1	-6
470.467	1	5
470.637	1	4
470.807	1	6
470.978	1	-4
471.148	1	-4
471.319	1	-2
471.489	1	-1
471.659	1	-9
471.830	1	-8
472.000	1	-1
472.171	1	5
472.341	1	-2
472.511	1	0
472.682	1	-4
472.852	1	1
473.023	1	1
473.193	1	4
473.363	1	-2
473.534	1	7
473.704	1	-7
473.875	1	6
474.045	1	-4
474.215	1	9
474.386	1	12
474.556	1	-4
474.727	1	-7
474.897	1	-2
475.067	1	-3
475.238	1	-2
475.408	1	0
475.578	1	-9
475.749	1	2
475.919	1	-4
476.090	1	2
476.260	1	1
476.430	1	1
476.601	1	1
476.771	1	-4
476.942	1	10
477.112	1	0
477.282	1	2
477.453	1	-5
477.623	1	-5
477.793	1	-6
477.964	1	-2
478.134	1	-12
478.305	1	3
478.475	1	1
478.645	1	8
478.816	1	-1
478.986	1	-2
479.156	1	7
479.327	1	-8
479.497	1	-6
479.667	1	0
479.838	1	3
480.008	1	-5
480.179	1	0
480.349	1	-8
480.519	1	-3
480.690	1	0
480.860	1	1
481.030	1	1
481.201	1	-4
481.371	1	2
481.541	1	1
481.712	1	0
481.882	1	8
482.053	1	2
482.223	1	-6
482.393	1	-4
482.564	1	-1
482.734	1	-1
482.904	1	-2
483.075	1	-3
483.245	1	6
483.415	1	-4
483.586	1	2
483.756	1	1
483.926	1	0
484.097	1	0
484.267	1	-11
484.437	1	5
484.608	1	4
484.778	1	15
484.948	1	-5
485.119	1	3
485.289	1	-6
485.459	1	8
485.630	1	-6
485.800	1	-5
485.970	1	2
486.141	1	3
486.311	1	5
486.481	1	-9
486.652	1	7
486.822	1	6
486.992	1	0
487.163	1	-5
487.333	1	8
487.503	1	3
487.674	1	1
487.844	1	4
488.014	1	-4
488.185	1	-3
488.355	1	-4
488.525	1	1
488.696	1	-6
488.866	1	1
489.036	1	0
489.207	1	-6
489.377	1	-4
489.547	1	-9
489.718	1	7
489.888	1	0
490.058	1	-11
490.228	1	2
490.399	1	-7
490.569	1	7
490.739	1	-5
490.910	1	2
491.080	1	7
491.250	1	-11
491.421	1	-8
491.591	1	0
491.761	1	-4
491.932	1	-2
492.102	1	-11
492.272	1	5
492.442	1	-2
492.613	1	-8
492.783	1	0
492.953	1	2
493.124	1	0
493.294	1	-5
493.464	1	4
493.635	1	5
493.805	1	-8
493.975	1	4
494.145	1	-8
494.316	1	5
494.486	1	-4
494.656	1	0
494.827	1	5
494.997	1	0
495.167	1	2
495.337	1	6
495.508	1	1
495.678	1	-7
495.848	1	14
496.019	1	-12
496.189	1	-3
496.359	1	-4
496.529	1	-1
496.700	1	0
496.870	1	4
497.040	1	6
497.211	1	2
497.381	1	0
497.551	1	4
497.721	1	-3
497.892	1	-1
498.062	1	2
498.232	1	-5
498.403	1	5
498.573	1	-14
498.743	1	5
498.913	1	5
499.084	1	0
499.254	1	2
499.424	1	-1
499.594	1	4
499.765	1	1
499.935	1	-1
500.105	1	1
500.275	1	8
500.446	1	-13
500.616	1	-2
500.786	1	-10
500.956	1	0
501.127	1	1
501.297	1	-4
501.467	1	-11
501.638	1	-3
501.808	1	3
501.978	1	-3
502.148	1	10
502.319	1	-6
502.489	1	2
502.659	1	0
502.829	1	3
503.000	1	-1
503.170	1	9
503.340	1	4
503.510	1	2
503.681	1	-7
503.851	1	-3
504.021	1	-4
504.191	1	6
504.362	1	-10
504.532	1	-6
504.702	1	0
504.872	1	1
505.042	1	-2
505.213	1	5
505.383	1	2
505.553	1	-2
505.723	1	-6
505.894	1	-10
506.064	1	7
506.234	1	7
506.404	1	4
506.575	1	-3
506.745	1	0
506.915	1	7
507.085	1	-9
507.256	1	6
507.426	1	7
507.596	1	2
507.766	1	-1
507.936	1	0
508.107	1	0
508.277	1	-5
508.447	1	10
508.617	1	-2
508.788	1	19
508.958	1	-5
509.128	1	8
509.298	1	10
509.468	1	13
509.639	1	0
509.809	1	8
509.979	1	-2
510.149	1	0
510.319	1	9
510.490	1	4
510.660	1	4
510.830	1	-7
511.000	1	-5
511.171	1	-9
511.341	1	1
511.511	1	6
511.681	1	-1
511.851	1	1
512.022	1	-9
512.192	1	-7
512.362	1	-1
512.532	1	-4
512.702	1	-3
512.873	1	3
513.043	1	2
513.213	1	-1
513.383	1	-12
513.553	1	-11
513.724	1	7
513.894	1	-6
514.064	1	19
514.234	1	-8
514.404	1	5
514.575	1	-3
514.745	1	-2
514.915	1	1
515.085	1	-12
515.255	1	-4
515.425	1	-4
515.596	1	-3
515.766	1	-6
515.936	1	1
516.106	1	4
516.276	1	-16
516.447	1	13
516.617	1	3
516.787	1	9
516.957	1	-3
517.127	1	-3
517.297	1	-5
517.468	1	7
517.638	1	0
517.808	1	2
517.978	1	9
518.148	1	1
518.319	1	2
518.489	1	-8
518.659	1	-4
518.829	1	2
518.999	1	-4
519.169	1	0
519.340	1	-1
519.510	1	10
519.680	1	3
519.850	1	2
520.020	1	-2
520.190	1	-1
520.361	1	1
520.531	1	0
520.701	1	3
520.871	1	-1
521.041	1	5
521.211	1	-14
521.382	1	-11
521.552	1	4
521.722	1	6
521.892	1	0
522.062	1	7
522.232	1	0
522.402	1	3
522.573	1	-6
522.743	1	2
522.913	1	2
523.083	1	2
523.253	1	9
523.423	1	0
523.593	1	-4
523.764	1	6
523.934	1	-1
524.104	1	0
524.274	1	-2
524.444	1	4
524.614	1	8
524.784	1	-10
524.955	1	-6
525.125	1	-2
525.295	1	6
525.465	1	1
525.635	1	-3
525.805	1	-4
525.975	1	-1
526.146	1	-1
526.316	1	9
526.486	1	0
526.656	1	-5
526.826	1	-1
526.996	1	8
527.166	1	-6
527.337	1	-2
527.507	1	1
527.677	1	10
527.847	1	7
528.017	1	-5
528.187	1	4
528.357	1	7
528.527	1	12
528.698	1	-1
528.868	1	1
529.038	1	2
529.208	1	-15
529.378	1	7
529.548	1	-2
529.718	1	10
529.888	1	8
530.058	1	7
530.229	1	1
530.399	1	4
530.569	1	-3
530.739	1	5
530.909	1	-11
531.079	1	8
531.249	1	0
531.419	1	-1
531.589	1	-1
531.760	1	10
531.930	1	2
532.100	1	2
532.270	1	-4
532.440	1	-2
532.610	1	-8
532.780	1	-2
532.950	1	8
533.120	1	11
533.290	1	7
533.461	1	3
533.631	1	4
533.801	1	7
533.971	1	-9
534.141	1	-5
534.311	1	5
534.481	1	1
534.651	1	-5
534.821	1	2
534.991	1	-2
535.162	1	-3
535.332	1	-7
535.502	1	-5
535.672	1	7
535.842	1	1
536.012	1	-2
536.182	1	-7
536.352	1	-6
536.522	1	-2
536.692	1	12
536.862	1	4
537.032	1	3
537.203	1	-2
537.373	1	2
537.543	1	-8
537.713	1	4
537.883	1	-1
538.053	1	-9
538.223	1	0
538.393	1	11
538.563	1	10
538.733	1	-4
538.903	1	-8
539.073	1	-6
539.243	1	-1
539.413	1	-1
539.584	1	-8
539.754	1	7
539.924	1	11
540.094	1	7
540.264	1	-4
540.434	1	4
540.604	1	3
540.774	1	0
540.944	1	0
541.114	1	-6
541.284	1	10
541.454	1	6
541.624	1	13
541.794	1	-5
541.964	1	5
542.134	1	2
542.305	1	4
542.475	1	9
542.645	1	4
542.815	1	-3
542.985	1	5
543.155	1	3
543.325	1	7
543.495	1	-1
543.665	1	13
543.835	1	16
544.005	1	0
544.175	1	-8
544.345	1	10
544.515	1	2
544.685	1	4
544.855	1	3
545.025	1	-1
545.195	1	-5
545.365	1	3
545.535	1	5
545.705	1	0
545.875	1	-11
546.045	1	-3
546.216	1	1
546.386	1	13
546.556	1	-7
546.726	1	-2
546.896	1	3
547.066	1	-2
547.236	1	3
547.406	1	1
547.576	1	12
547.746	1	-11
547.916	1	-5
548.086	1	2
548.256	1	-3
548.426	1	-3
548.596	1	-3
548.766	1	0
548.936	1	4
549.106	1	1
549.276	1	-8
549.446	1	-6
549.616	1	-1
549.786	1	-3
549.956	1	12
550.126	1	13
550.296	1	0
550.466	1	-1
550.636	1	15
550.806	1	-4
550.976	1	-4
551.146	1	7
551.316	1	19
551.486	1	-6
551.656	1	0
551.826	1	3
551.996	1	7
552.166	1	-4
552.336	1	1
552.506	1	0
552.676	1	12
552.846	1	-5
553.016	1	8
553.186	1	6
553.356	1	0
553.526	1	-4
553.696	1	3
553.866	1	-1
554.036	1	2
554.206	1	6
554.376	1	1
554.546	1	3
554.716	1	1
554.886	1	12
555.056	1	2
555.226	1	-8
555.396	1	-9
555.566	1	-1
555.736	1	2
555.906	1	-4
556.076	1	7
556.246	1	3
556.416	1	7
556.586	1	-1
556.756	1	5
556.926	1	4
557.096	1	0
557.266	1	-6
557.436	1	-4
557.606	1	7
557.776	1	3
557.946	1	11
558.116	1	-1
558.286	1	0
558.456	1	-4
558.626	1	0
558.796	1	3
558.966	1	-6
559.136	1	5
559.306	1	-3
559.476	1	-7
559.646	1	-6
559.816	1	-5
559.986	1	-2
560.155	1	8
560.325	1	-2
560.495	1	0
560.665	1	-4
560.835	1	4
561.005	1	-4
561.175	1	3
561.345	1	2
561.515	1	-3
561.685	1	-3
561.855	1	-6
562.025	1	7
562.195	1	-4
562.365	1	7
562.535	1	-3
562.705	1	1
562.875	1	-4
563.045	1	1
563.215	1	18
563.385	1	-10
563.555	1	-3
563.725	1	0
563.895	1	-3
564.064	1	4
564.234	1	-3
564.404	1	5
564.574	1	1
564.744	1	6
564.914	1	-4
565.084	1	2
565.254	1	11
565.424	1	2
565.594	1	10
565.764	1	1
565.934	1	13
566.104	1	1
566.274	1	1
566.444	1	-5
566.614	1	0
566.783	1	-12
566.953	1	0
567.123	1	-5
567.293	1	14
567.463	1	5
567.633	1	1
567.803	1	-2
567.973	1	-3
568.143	1	3
568.313	1	3
568.483	1	5
568.653	1	5
568.823	1	-1
568.993	1	4
569.162	1	6
569.332	1	11
569.502	1	-1
569.672	1	5
569.842	1	15
570.012	1	-7
570.182	1	-10
570.352	1	-2
570.522	1	-4
570.692	1	1
570.862	1	-4
571.031	1	6
571.201	1	11
571.371	1	0
571.541	1	10
571.711	1	-3
571.881	1	14
572.051	1	-4
572.221	1	-2
572.391	1	-12
572.561	1	-7
572.731	1	4
572.900	1	-3
573.070	1	4
573.240	1	-1
573.410	1	16
573.580	1	-1
573.750	1	0
573.920	1	-2
574.090	1	4
574.260	1	6
574.430	1	6
574.599	1	1
574.769	1	2
574.939	1	3
575.109	1	7
575.279	1	8
575.449	1	4
575.619	1	7
575.789	1	-6
575.959	1	-6
576.128	1	-11
576.298	1	10
576.468	1	-1
576.638	1	-3
576.808	1	1
576.978	1	6
577.148	1	3
577.318	1	5
577.487	1	-13
577.657	1	-4
577.827	1	-6
577.997	1	0
578.167	1	1
578.337	1	10
578.507	1	2
578.677	1	6
578.846	1	7
579.016	1	4
579.186	1	-3
579.356	1	0
579.526	1	1
579.696	1	-1
579.866	1	-4
580.036	1	-4
580.205	1	3
580.375	1	5
580.545	1	3
580.715	1	-5
580.885	1	-1
581.055	1	-10
581.225	1	9
581.394	1	8
581.564	1	8
581.734	1	-15
581.904	1	12
582.074	1	-2
582.244	1	-3
582.414	1	10
582.583	1	8
582.753	1	-3
582.923	1	1
583.093	1	0
583.263	1	10
583.433	1	-1
583.603	1	9
583.772	1	11
583.942	1	-6
584.112	1	-4
584.282	1	-10
584.452	1	6
584.622	1	0
584.791	1	3
584.961	1	1
585.131	1	2
585.301	1	1
585.471	1	7
585.641	1	-1
585.811	1	5
585.980	1	13
586.150	1	2
586.320	1	0
586.490	1	5
586.660	1	0
586.830	1	-3
586.999	1	1
587.169	1	11
587.339	1	5
587.509	1	-3
587.679	1	12
587.849	1	5
588.018	1	14
588.188	1	12
588.358	1	-4
588.528	1	0
588.698	1	4
588.867	1	3
589.037	1	9
589.207	1	4
589.377	1	-1
589.547	1	2
589.717	1	1
589.886	1	-2
590.056	1	3
590.226	1	5
590.396	1	-3
590.566	1	9
590.735	1	-7
590.905	1	2
591.075	1	-11
591.245	1	-1
591.415	1	-4
591.585	1	-2
591.754	1	-3
591.924	1	12
592.094	1	2
592.264	1	7
592.434	1	-1
592.603	1	-5
592.773	1	-7
592.943	1	-1
593.113	1	2
593.283	1	-2
593.452	1	-4
593.622	1	-4
593.792	1	5
593.962	1	12
594.132	1	-5
594.301	1	8
594.471	1	9
594.641	1	-6
594.811	1	5
594.981	1	-7
595.150	1	-9
595.320	1	6
595.490	1	7
595.660	1	-5
595.829	1	-5
595.999	1	-6
596.169	1	6
596.339	1	6
596.509	1	0
596.678	1	-17
596.848	1	3
597.018	1	-3
597.188	1	-1
597.358	1	6
597.527	1	-9
597.697	1	1
597.867	1	-3
598.037	1	1
598.206	1	-7
598.376	1	8
598.546	1	3
598.716	1	11
598.885	1	-9
599.055	1	4
599.225	1	-9
599.395	1	-2
599.565	1	-4
599.734	1	7
599.904	1	-1
600.074	1	-4
600.244	1	-8
600.413	1	3
600.583	1	15
600.753	1	-1
600.923	1	-1
601.092	1	15
601.262	1	-2
601.432	1	-7
601.602	1	14
601.771	1	3
601.941	1	1
602.111	1	-5
602.281	1	3
602.451	1	11
602.620	1	7
602.790	1	5
602.960	1	4
603.130	1	2
603.299	1	-7
603.469	1	-15
603.639	1	-5
603.809	1	7
603.978	1	-4
604.148	1	3
604.318	1	-7
604.487	1	0
604.657	1	-1
604.827	1	5
604.997	1	7
605.166	1	9
605.336	1	3
605.506	1	1
605.676	1	-10
605.845	1	7
606.015	1	2
606.185	1	1
606.355	1	5
606.524	1	-8
606.694	1	-6
606.864	1	-4
607.034	1	-1
607.203	1	6
607.373	1	3
607.543	1	-8
607.712	1	-4
607.882	1	-1
608.052	1	-6
608.222	1	5
608.391	1	8
608.561	1	1
608.731	1	-4
608.901	1	-3
609.070	1	14
609.240	1	-5
609.410	1	5
609.579	1	11
609.749	1	6
609.919	1	8
610.089	1	-10
610.258	1	-3
610.428	1	-2
610.598	1	-5
610.767	1	1
610.937	1	3
611.107	1	0
611.277	1	4
611.446	1	13
611.616	1	2
611.786	1	13
611.955	1	-2
612.125	1	1
612.295	1	-7
612.465	1	5
612.634	1	1
612.804	1	8
612.974	1	-6
613.143	1	0
613.313	1	10
613.483	1	3
613.652	1	9
613.822	1	-3
613.992	1	-1
614.162	1	7
614.331	1	0
614.501	1	-1
614.671	1	14
614.840	1	2
615.010	1	-5
615.180	1	0
615.349	1	6
615.519	1	-11
615.689	1	7
615.858	1	3
616.028	1	-6
616.198	1	13
616.368	1	5
616.537	1	-8
616.707	1	0
616.877	1	-3
617.046	1	1
617.216	1	-8
617.386	1	1
617.555	1	7
617.725	1	4
617.895	1	4
618.064	1	-4
618.234	1	-7
618.404	1	1
618.573	1	-5
618.743	1	3
618.913	1	-3
619.082	1	0
619.252	1	-4
619.422	1	-4
619.591	1	0
619.761	1	2
619.931	1	10
620.100	1	6
620.270	1	-2
620.440	1	1
620.609	1	3
620.779	1	-5
620.949	1	5
621.118	1	-10
621.288	1	-1
621.458	1	2
621.627	1	8
621.797	1	-2
621.967	1	-4
622.136	1	12
622.306	1	-4
622.476	1	4
622.645	1	4
622.815	1	16
622.985	1	-4
623.154	1	1
623.324	1	0
623.494	1	17
623.663	1	3
623.833	1	3
624.002	1	-5
624.172	1	-5
624.342	1	11
624.511	1	-5
624.681	1	1
624.851	1	-8
625.020	1	-3
625.190	1	-1
625.360	1	0
625.529	1	-5
625.699	1	-3
625.869	1	6
626.038	1	-9
626.208	1	0
626.377	1	4
626.547	1	1
626.717	1	2
626.886	1	5
627.056	1	-13
627.226	1	-6
627.395	1	0
627.565	1	1
627.735	1	7
627.904	1	-1
628.074	1	-4
628.243	1	-1
628.413	1	-4
628.583	1	-3
628.752	1	-2
628.922	1	2
629.091	1	-2
629.261	1	5
629.431	1	-12
629.600	1	0
629.770	1	-10
629.940	1	-1
630.109	1	-3
630.279	1	-8
630.448	1	-3
630.618	1	-7
630.788	1	3
630.957	1	-4
631.127	1	3
631.297	1	0
631.466	1	7
631.636	1	-5
631.805	1	1
631.975	1	10
632.145	1	-11
632.314	1	-2
632.484	1	-7
632.653	1	-1
632.823	1	-4
632.993	1	-4
633.162	1	-1
633.332	1	-3
633.501	1	1
633.671	1	-8
633.841	1	-9
634.010	1	-8
634.180	1	-1
634.349	1	13
634.519	1	-7
634.689	1	2
634.858	1	-1
635.028	1	0
635.197	1	17
635.367	1	4
635.537	1	-7
635.706	1	2
635.876	1	3
636.045	1	2
636.215	1	2
636.384	1	3
636.554	1	7
636.724	1	5
636.893	1	-5
637.063	1	-3
637.232	1	-13
637.402	1	7
637.572	1	-3
637.741	1	0
637.911	1	-2
638.080	1	-7
638.250	1	3
638.419	1	-9
638.589	1	0
638.759	1	-8
638.928	1	3
639.098	1	5
639.267	1	-1
639.437	1	-2
639.606	1	6
639.776	1	-1
639.946	1	4
640.115	1	-2
640.285	1	4
640.454	1	-3
640.624	1	0
640.793	1	6
640.963	1	-2
641.132	1	12
641.302	1	-5
641.472	1	6
641.641	1	-13
641.811	1	-11
641.980	1	9
642.150	1	-8
642.319	1	-7
642.489	1	8
642.659	1	8
642.828	1	-7
642.998	1	7
643.167	1	-11
643.337	1	-2
643.506	1	-20
643.676	1	3
643.845	1	3
644.015	1	11
644.184	1	3
644.354	1	3
644.524	1	2
644.693	1	7
644.863	1	-8
645.032	1	-7
645.202	1	1
645.371	1	0
645.541	1	3
645.710	1	-1
645.880	1	2
646.049	1	-13
646.219	1	5
646.388	1	-4
646.558	1	-8
646.728	1	1
646.897	1	-3
647.067	1	5
647.236	1	-3
647.406	1	-2
647.575	1	10
647.745	1	-2
647.914	1	-3
648.084	1	-5
648.253	1	0
648.423	1	-4
648.592	1	-8
648.762	1	3
648.931	1	7
649.101	1	-4
649.270	1	6
649.440	1	-1
649.610	1	0
649.779	1	0
649.949	1	-3
650.118	1	17
650.288	1	1
650.457	1	6
650.627	1	1
650.796	1	4
650.966	1	0
651.135	1	-9
651.305	1	-6
651.474	1	-6
651.644	1	11
651.813	1	-1
651.983	1	-3
652.152	1	2
652.322	1	-4
652.491	1	1
652.661	1	3
652.830	1	8
653.000	1	-1
653.169	1	-7
653.339	1	9
653.508	1	3
653.678	1	2
653.847	1	0
654.017	1	4
654.186	1	2
654.356	1	-7
654.525	1	-10
654.695	1	8
654.864	1	4
655.034	1	-5
655.203	1	-2
655.373	1	3
655.542	1	9
655.712	1	-3
655.881	1	-2
656.051	1	3
656.220	1	-4
656.390	1	-6
656.559	1	-2
656.729	1	-4
656.898	1	-11
657.068	1	-2
657.237	1	-9
657.406	1	2
657.576	1	-1
657.745	1	0
657.915	1	2
658.084	1	4
658.254	1	-7
658.423	1	2
658.593	1	-3
658.762	1	-3
658.932	1	-3
659.101	1	4
659.271	1	8
659.440	1	8
659.610	1	1
659.779	1	2
659.949	1	1
660.118	1	7
660.288	1	2
660.457	1	-4
660.626	1	-4
660.796	1	-5
660.965	1	6
661.135	1	-3
661.304	1	0
661.474	1	-4
661.643	1	10
661.813	1	13
661.982	1	12
662.152	1	-4
662.321	1	-3
662.491	1	-3
662.660	1	0
662.829	1	-8
662.999	1	-1
663.168	1	2
663.338	1	8
663.507	1	5
663.677	1	8
663.846	1	-9
664.016	1	-4
664.185	1	-2
664.354	1	4
664.524	1	0
664.693	1	11
664.863	1	-9
665.032	1	2
665.202	1	-6
665.371	1	2
665.541	1	-10
665.710	1	2
665.879	1	-4
666.049	1	-10
666.218	1	-10
666.388	1	2
666.557	1	-3
666.727	1	-4
666.896	1	-6
667.065	1	5
667.235	1	0
667.404	1	-12
667.574	1	-2
667.743	1	-2
667.913	1	1
668.082	1	4
668.251	1	-6
668.421	1	-1
668.590	1	3
668.760	1	-5
668.929	1	-12
669.099	1	-6
669.268	1	4
669.437	1	8
669.607	1	-4
669.776	1	-9
669.946	1	-4
670.115	1	1
670.285	1	2
670.454	1	7
670.623	1	3
670.793	1	-6
670.962	1	-5
671.132	1	6
671.301	1	6
671.470	1	1
671.640	1	2
671.809	1	-3
671.979	1	1
672.148	1	4
672.317	1	-1
672.487	1	-3
672.656	1	1
672.826	1	-5
672.995	1	-1
673.164	1	4
673.334	1	-2
673.503	1	0
673.673	1	2
673.842	1	4
674.011	1	-3
674.181	1	7
674.350	1	1
674.520	1	-2
674.689	1	-1
674.858	1	2
675.028	1	-4
675.197	1	-6
675.367	1	14
675.536	1	1
675.705	1	7
675.875	1	3
676.044	1	-7
676.214	1	-1
676.383	1	-1
676.552	1	3
676.722	1	5
676.891	1	10
677.060	1	-7
677.230	1	9
677.399	1	-4
677.569	1	0
677.738	1	-2
677.907	1	2
678.077	1	-3
678.246	1	2
678.416	1	2
678.585	1	6
678.754	1	2
678.924	1	-4
679.093	1	1
679.262	1	-1
679.432	1	-1
679.601	1	3
679.771	1	1
679.940	1	-4
680.109	1	3
680.279	1	-1
680.448	1	1
680.617	1	2
680.787	1	-1
680.956	1	-1
681.125	1	8
681.295	1	10
681.464	1	-6
681.634	1	2
681.803	1	-4
681.972	1	-10
682.142	1	8
682.311	1	2
682.480	1	3
682.650	1	5
682.819	1	-3
682.988	1	-3
683.158	1	-4
683.327	1	2
683.496	1	0
683.666	1	-7
683.835	1	1
684.004	1	10
684.174	1	3
684.343	1	-4
684.512	1	-3
684.682	1	-11
684.851	1	2
685.021	1	-7
685.190	1	-1
685.359	1	3
685.529	1	-10
685.698	1	0
685.867	1	-1
686.037	1	1
686.206	1	0
686.375	1	6
686.545	1	-9
686.714	1	-8
686.883	1	3
687.053	1	5
687.222	1	8
687.391	1	-8
687.561	1	-4
687.730	1	-5
687.899	1	0
688.069	1	3
688.238	1	2
688.407	1	-2
688.577	1	-1
688.746	1	1
