340.368	1	10
340.539	1	-8
340.710	1	-11
340.881	1	-13
341.052	1	8
341.223	1	-8
341.394	1	-5
341.565	1	-8
341.737	1	4
341.908	1	0
342.079	1	-8
342.250	1	-2
342.421	1	2
342.592	1	3
342.763	1	7
342.934	1	-4
343.105	1	2
343.276	1	-1
343.447	1	-7
343.618	1	-3
343.789	1	-7
343.960	1	-7
344.131	1	-2
344.302	1	-3
344.473	1	-1
344.644	1	5
344.815	1	2
344.986	1	1
345.157	1	-8
345.328	1	6
345.499	1	8
345.670	1	-6
345.841	1	3
346.012	1	2
346.183	1	-5
346.354	1	-3
346.526	1	1
346.697	1	-7
346.868	1	1
347.039	1	5
347.210	1	-5
347.381	1	0
347.552	1	-12
347.723	1	-3
347.894	1	-3
348.065	1	0
348.236	1	6
348.407	1	2
348.578	1	-3
348.749	1	-6
348.920	1	1
349.091	1	-8
349.262	1	-8
349.433	1	-5
349.604	1	2
349.775	1	14
349.946	1	-6
350.117	1	3
350.288	1	10
350.459	1	-8
350.630	1	4
350.801	1	-3
350.972	1	-4
351.143	1	-2
351.314	1	4
351.485	1	-3
351.656	1	6
351.827	1	1
351.998	1	8
352.169	1	-2
352.340	1	2
352.511	1	-5
352.682	1	1
352.853	1	-10
353.024	1	7
353.195	1	2
353.366	1	9
353.537	1	4
353.708	1	0
353.879	1	4
354.050	1	-7
354.221	1	-7
354.392	1	-7
354.563	1	1
354.734	1	10
354.905	1	15
355.076	1	-2
355.247	1	9
355.418	1	-14
355.589	1	3
355.760	1	-2
355.931	1	-5
356.102	1	13
356.273	1	-8
356.444	1	3
356.615	1	-14
356.785	1	1
356.956	1	3
357.127	1	-1
357.298	1	3
357.469	1	7
357.640	1	14
357.811	1	5
357.982	1	3
358.153	1	9
358.324	1	-2
358.495	1	5
358.666	1	6
358.837	1	-5
359.008	1	-13
359.179	1	-6
359.350	1	-7
359.521	1	12
359.692	1	8
359.863	1	-1
360.034	1	8
360.205	1	7
360.376	1	7
360.547	1	11
360.718	1	-2
360.889	1	-2
361.060	1	-2
361.231	1	-3
361.401	1	11
361.572	1	8
361.743	1	9
361.914	1	6
362.085	1	16
362.256	1	3
362.427	1	14
362.598	1	1
362.769	1	8
362.940	1	1
363.111	1	4
363.282	1	7
363.453	1	12
363.624	1	20
363.795	1	2
363.966	1	-1
364.137	1	14
364.308	1	10
364.478	1	10
364.649	1	13
364.820	1	7
364.991	1	13
365.162	1	24
365.333	1	11
365.504	1	19
365.675	1	2
365.846	1	20
366.017	1	6
366.188	1	13
366.359	1	19
366.530	1	19
366.701	1	18
366.871	1	18
367.042	1	14
367.213	1	24
367.384	1	15
367.555	1	16
367.726	1	20
367.897	1	19
368.068	1	20
368.239	1	16
368.410	1	31
368.581	1	8
368.752	1	22
368.923	1	25
369.093	1	15
369.264	1	29
369.435	1	23
369.606	1	22
369.777	1	14
369.948	1	26
370.119	1	26
370.290	1	23
370.461	1	30
370.632	1	30
370.803	1	31
370.973	1	23
371.144	1	23
371.315	1	20
371.486	1	21
371.657	1	20
371.828	1	18
371.999	1	21
372.170	1	33
372.341	1	17
372.512	1	6
372.682	1	25
372.853	1	15
373.024	1	15
373.195	1	13
373.366	1	27
373.537	1	17
373.708	1	8
373.879	1	12
374.050	1	7
374.220	1	31
374.391	1	14
374.562	1	20
374.733	1	15
374.904	1	11
375.075	1	5
375.246	1	21
375.417	1	17
375.588	1	15
375.758	1	13
375.929	1	18
376.100	1	13
376.271	1	11
376.442	1	-2
376.613	1	7
376.784	1	14
376.955	1	6
377.125	1	9
377.296	1	-2
377.467	1	13
377.638	1	8
377.809	1	10
377.980	1	11
378.151	1	18
378.321	1	0
378.492	1	5
378.663	1	6
378.834	1	10
379.005	1	22
379.176	1	10
379.347	1	6
379.518	1	9
379.688	1	12
379.859	1	2
380.030	1	3
380.201	1	3
380.372	1	3
380.543	1	4
380.714	1	10
380.884	1	7
381.055	1	11
381.226	1	-9
381.397	1	6
381.568	1	11
381.739	1	12
381.910	1	14
382.080	1	8
382.251	1	2
382.422	1	5
382.593	1	0
382.764	1	5
382.935	1	3
383.105	1	-1
383.276	1	15
383.447	1	1
383.618	1	13
383.789	1	5
383.960	1	0
384.130	1	7
384.301	1	4
384.472	1	-1
384.643	1	8
384.814	1	-5
384.985	1	-3
385.156	1	-5
385.326	1	16
385.497	1	11
385.668	1	10
385.839	1	2
386.010	1	6
386.180	1	-6
386.351	1	3
386.522	1	7
386.693	1	-5
386.864	1	-1
387.035	1	9
387.205	1	-6
387.376	1	11
387.547	1	-3
387.718	1	6
387.889	1	9
388.060	1	14
388.230	1	14
388.401	1	-2
388.572	1	0
388.743	1	4
388.914	1	3
389.084	1	1
389.255	1	-8
389.426	1	0
389.597	1	0
389.768	1	8
389.939	1	4
390.109	1	4
390.280	1	-5
390.451	1	-9
390.622	1	-3
390.793	1	-1
390.963	1	4
391.134	1	12
391.305	1	3
391.476	1	-7
391.647	1	11
391.817	1	5
391.988	1	9
392.159	1	-1
392.330	1	1
392.501	1	-5
392.671	1	-3
392.842	1	10
393.013	1	-1
393.184	1	6
393.355	1	3
393.525	1	-1
393.696	1	-4
393.867	1	2
394.038	1	8
394.208	1	-4
394.379	1	-1
394.550	1	9
394.721	1	-9
394.892	1	6
395.062	1	1
395.233	1	5
395.404	1	-5
395.575	1	5
395.746	1	4
395.916	1	7
396.087	1	-4
396.258	1	4
396.429	1	17
396.599	1	1
396.770	1	-2
396.941	1	6
397.112	1	8
397.283	1	1
397.453	1	9
397.624	1	4
397.795	1	4
397.966	1	6
398.136	1	-6
398.307	1	-2
398.478	1	0
398.649	1	-5
398.819	1	8
398.990	1	-2
399.161	1	11
399.332	1	-6
399.503	1	-1
399.673	1	1
399.844	1	5
400.015	1	-6
400.186	1	-2
400.356	1	-7
400.527	1	6
400.698	1	0
400.869	1	0
401.039	1	7
401.210	1	-5
401.381	1	-8
401.552	1	-2
401.722	1	4
401.893	1	-7
402.064	1	-4
402.235	1	0
402.405	1	3
402.576	1	0
402.747	1	-6
402.918	1	16
403.088	1	13
403.259	1	2
403.430	1	-1
403.601	1	2
403.771	1	-1
403.942	1	-2
404.113	1	-5
404.284	1	20
404.454	1	4
404.625	1	12
404.796	1	-3
404.967	1	8
405.137	1	5
405.308	1	2
405.479	1	7
405.649	1	1
405.820	1	-11
405.991	1	-9
406.162	1	8
406.332	1	3
406.503	1	2
406.674	1	0
406.845	1	5
407.015	1	-3
407.186	1	-7
407.357	1	-6
407.527	1	-7
407.698	1	2
407.869	1	-7
408.040	1	0
408.210	1	4
408.381	1	2
408.552	1	-8
408.722	1	-14
408.893	1	1
409.064	1	0
409.235	1	-5
409.405	1	7
409.576	1	-7
409.747	1	-5
409.917	1	-3
410.088	1	1
410.259	1	7
410.430	1	1
410.600	1	-5
410.771	1	0
410.942	1	0
411.112	1	-7
411.283	1	13
411.454	1	-7
411.625	1	8
411.795	1	-17
411.966	1	7
412.137	1	10
412.307	1	-1
412.478	1	9
412.649	1	-3
412.819	1	3
412.990	1	6
413.161	1	-4
413.332	1	1
413.502	1	2
413.673	1	-3
413.844	1	9
414.014	1	7
414.185	1	1
414.356	1	0
414.526	1	-4
414.697	1	4
414.868	1	2
415.038	1	-6
415.209	1	3
415.380	1	-2
415.550	1	-5
415.721	1	-1
415.892	1	6
416.063	1	1
416.233	1	6
416.404	1	2
416.575	1	5
416.745	1	-3
416.916	1	-8
417.087	1	7
417.257	1	-5
417.428	1	4
417.599	1	-3
417.769	1	11
417.940	1	-1
418.111	1	0
418.281	1	-2
418.452	1	-11
418.623	1	0
418.793	1	4
418.964	1	-10
419.135	1	-8
419.305	1	-1
419.476	1	6
419.647	1	3
419.817	1	0
419.988	1	-7
420.159	1	-5
420.329	1	0
420.500	1	0
420.671	1	0
420.841	1	9
421.012	1	6
421.183	1	1
421.353	1	0
421.524	1	-15
421.695	1	-7
421.865	1	0
422.036	1	7
422.206	1	1
422.377	1	3
422.548	1	-2
422.718	1	11
422.889	1	-4
423.060	1	-2
423.230	1	4
423.401	1	5
423.572	1	-3
423.742	1	-4
423.913	1	-1
424.084	1	6
424.254	1	0
424.425	1	0
424.595	1	1
424.766	1	4
424.937	1	2
425.107	1	2
425.278	1	6
425.449	1	-3
425.619	1	-7
425.790	1	-8
425.961	1	1
426.131	1	5
426.302	1	3
426.472	1	1
426.643	1	8
426.814	1	3
426.984	1	2
427.155	1	-6
427.326	1	7
427.496	1	1
427.667	1	8
427.837	1	-3
428.008	1	5
428.179	1	-4
428.349	1	-11
428.520	1	5
428.691	1	1
428.861	1	-2
429.032	1	6
429.202	1	-1
429.373	1	-4
429.544	1	-5
429.714	1	-7
429.885	1	6
430.055	1	-3
430.226	1	-1
430.397	1	-5
430.567	1	2
430.738	1	-14
430.909	1	1
431.079	1	-5
431.250	1	-1
431.420	1	1
431.591	1	7
431.762	1	1
431.932	1	-2
432.103	1	3
432.273	1	-8
432.444	1	-4
432.615	1	-13
432.785	1	-1
432.956	1	-9
433.126	1	-3
433.297	1	0
433.468	1	-11
433.638	1	-2
433.809	1	-2
433.979	1	-3
434.150	1	5
434.320	1	7
434.491	1	-5
434.662	1	-8
434.832	1	-2
435.003	1	3
435.173	1	-6
435.344	1	2
435.515	1	10
435.685	1	3
435.856	1	-2
436.026	1	11
436.197	1	1
436.368	1	9
436.538	1	-15
436.709	1	1
436.879	1	2
437.050	1	-2
437.220	1	6
437.391	1	3
437.562	1	0
437.732	1	-7
437.903	1	0
438.073	1	7
438.244	1	-4
438.414	1	-6
438.585	1	-6
438.756	1	2
438.926	1	-2
439.097	1	-8
439.267	1	6
439.438	1	-7
439.608	1	-10
439.779	1	0
439.949	1	4
440.120	1	-2
440.291	1	1
440.461	1	5
440.632	1	3
440.802	1	-6
440.973	1	-4
441.143	1	13
441.314	1	-10
441.485	1	0
441.655	1	4
441.826	1	10
441.996	1	-1
442.167	1	3
442.337	1	1
442.508	1	-2
442.678	1	-15
442.849	1	13
443.019	1	4
443.190	1	4
443.361	1	1
443.531	1	6
443.702	1	1
443.872	1	5
444.043	1	7
444.213	1	-2
444.384	1	-2
444.554	1	14
444.725	1	-12
444.895	1	-8
445.066	1	-7
445.237	1	2
445.407	1	8
445.578	1	-9
445.748	1	1
445.919	1	-3
446.089	1	5
446.260	1	-5
446.430	1	-1
446.601	1	2
446.771	1	14
446.942	1	7
447.112	1	-1
447.283	1	-6
447.453	1	-1
447.624	1	-4
447.794	1	-3
447.965	1	4
448.135	1	7
448.306	1	-4
448.477	1	1
448.647	1	-11
448.818	1	1
448.988	1	0
449.159	1	1
449.329	1	-8
449.500	1	3
449.670	1	5
449.841	1	4
450.011	1	5
450.182	1	0
450.352	1	-3
450.523	1	-4
450.693	1	5
450.864	1	-3
451.034	1	1
451.205	1	13
451.375	1	0
451.546	1	-3
451.716	1	-3
451.887	1	-7
452.057	1	1
452.228	1	-7
452.398	1	-3
452.569	1	4
452.739	1	7
452.910	1	-4
453.080	1	-5
453.251	1	-1
453.421	1	-9
453.592	1	-2
453.762	1	-2
453.933	1	0
454.103	1	3
454.274	1	-2
454.444	1	-4
454.615	1	5
454.785	1	-2
454.956	1	5
455.126	1	-13
455.297	1	8
455.467	1	1
455.638	1	2
455.808	1	-2
455.979	1	2
456.149	1	6
456.320	1	-2
456.490	1	2
456.661	1	1
456.831	1	8
457.001	1	-5
457.172	1	-3
457.342	1	1
457.513	1	-3
457.683	1	-4
457.854	1	-8
458.024	1	2
458.195	1	-5
458.365	1	-7
458.536	1	-2
458.706	1	1
458.877	1	-1
459.047	1	-1
459.218	1	-10
459.388	1	12
459.559	1	6
459.729	1	13
459.899	1	6
460.070	1	-6
460.240	1	5
460.411	1	-9
460.581	1	17
460.752	1	-7
460.922	1	8
461.093	1	4
461.263	1	-4
461.434	1	-8
461.604	1	-5
461.775	1	7
461.945	1	4
462.115	1	-1
462.286	1	-4
462.456	1	-9
462.627	1	6
462.797	1	-3
462.968	1	-6
463.138	1	-4
463.309	1	-6
463.479	1	4
463.649	1	-5
463.820	1	-1
463.990	1	-6
464.161	1	3
464.331	1	1
464.502	1	2
464.672	1	-7
464.843	1	7
465.013	1	-2
465.183	1	-4
465.354	1	-4
465.524	1	-1
465.695	1	-11
465.865	1	1
466.036	1	-3
466.206	1	18
466.376	1	-9
466.547	1	-6
466.717	1	9
466.888	1	8
467.058	1	3
467.229	1	-3
467.399	1	4
467.569	1	9
467.740	1	1
467.910	1	-8
468.081	1	3
468.251	1	2
468.422	1	-9
468.592	1	2
468.762	1	-11
468.933	1	6
469.103	1	-5
469.274	1	10
469.444	1	2
469.614	1	6
469.785	1	-10
469.955	1	-3
470.126	1	-11
470.296	1	3
470.467	1	-1
470.637	1	-1
470.807	1	6
470.978	1	3
471.148	1	-1
471.319	1	0
471.489	1	-3
471.659	1	-2
471.830	1	9
472.000	1	2
472.171	1	11
472.341	1	2
472.511	1	-6
472.682	1	3
472.852	1	3
473.023	1	4
473.193	1	8
473.363	1	-6
473.534	1	1
473.704	1	-2
473.875	1	6
474.045	1	-2
474.215	1	1
474.386	1	21
474.556	1	-1
474.727	1	3
474.897	1	5
475.067	1	7
475.238	1	-12
475.408	1	0
475.578	1	-6
475.749	1	-3
475.919	1	-3
476.090	1	1
476.260	1	-2
476.430	1	4
476.601	1	-2
476.771	1	-4
476.942	1	7
477.112	1	-1
477.282	1	1
477.453	1	-12
477.623	1	-6
477.793	1	-7
477.964	1	-6
478.134	1	-8
478.305	1	-1
478.475	1	1
478.645	1	9
478.816	1	8
478.986	1	-2
479.156	1	6
479.327	1	-4
479.497	1	-5
479.667	1	-1
479.838	1	-2
480.008	1	3
480.179	1	6
480.349	1	-5
480.519	1	-3
480.690	1	5
480.860	1	4
481.030	1	-8
481.201	1	-7
481.371	1	-1
481.541	1	-6
481.712	1	1
481.882	1	9
482.053	1	-9
482.223	1	1
482.393	1	-7
482.564	1	2
482.734	1	-4
482.904	1	2
483.075	1	-5
483.245	1	-1
483.415	1	-1
483.586	1	-4
483.756	1	10
483.926	1	-4
484.097	1	4
484.267	1	-5
484.437	1	3
484.608	1	2
484.778	1	2
484.948	1	-1
485.119	1	-10
485.289	1	0
485.459	1	10
485.630	1	2
485.800	1	-3
485.970	1	-4
486.141	1	-7
486.311	1	4
486.481	1	0
486.652	1	5
486.822	1	10
486.992	1	10
487.163	1	-1
487.333	1	-4
487.503	1	-2
487.674	1	4
487.844	1	2
488.014	1	-4
488.185	1	5
488.355	1	0
488.525	1	-2
488.696	1	-3
488.866	1	0
489.036	1	5
489.207	1	-5
489.377	1	-4
489.547	1	-8
489.718	1	2
489.888	1	-5
490.058	1	0
490.228	1	-2
490.399	1	-2
490.569	1	9
490.739	1	-5
490.910	1	1
491.080	1	11
491.250	1	1
491.421	1	2
491.591	1	-4
491.761	1	3
491.932	1	-3
492.102	1	-8
492.272	1	-3
492.442	1	2
492.613	1	0
492.783	1	1
492.953	1	2
493.124	1	-3
493.294	1	-6
493.464	1	12
493.635	1	8
493.805	1	-9
493.975	1	-7
494.145	1	-2
494.316	1	-2
494.486	1	4
494.656	1	0
494.827	1	10
494.997	1	-1
495.167	1	-4
495.337	1	7
495.508	1	-2
495.678	1	2
495.848	1	12
496.019	1	4
496.189	1	3
496.359	1	-6
496.529	1	-8
496.700	1	1
496.870	1	-3
497.040	1	3
497.211	1	1
497.381	1	0
497.551	1	2
497.721	1	-4
497.892	1	-7
498.062	1	-3
498.232	1	-7
498.403	1	7
498.573	1	-8
498.743	1	6
498.913	1	1
499.084	1	-2
499.254	1	2
499.424	1	-5
499.594	1	3
499.765	1	1
499.935	1	0
500.105	1	-2
500.275	1	2
500.446	1	-10
500.616	1	0
500.786	1	-10
500.956	1	-2
501.127	1	0
501.297	1	2
501.467	1	-6
501.638	1	-3
501.808	1	2
501.978	1	6
502.148	1	6
502.319	1	1
502.489	1	4
502.659	1	5
502.829	1	-4
503.000	1	-8
503.170	1	6
503.340	1	9
503.510	1	0
503.681	1	2
503.851	1	-1
504.021	1	3
504.191	1	12
504.362	1	-12
504.532	1	4
504.702	1	2
504.872	1	-3
505.042	1	-6
505.213	1	4
505.383	1	-5
505.553	1	0
505.723	1	-5
505.894	1	-6
506.064	1	-4
506.234	1	2
506.404	1	4
506.575	1	2
506.745	1	9
506.915	1	-5
507.085	1	-8
507.256	1	7
507.426	1	1
507.596	1	-2
507.766	1	-8
507.936	1	5
508.107	1	1
508.277	1	-4
508.447	1	7
508.617	1	6
508.788	1	-1
508.958	1	-8
509.128	1	15
509.298	1	6
509.468	1	5
509.639	1	-5
509.809	1	9
509.979	1	-6
510.149	1	-4
510.319	1	2
510.490	1	7
510.660	1	-1
510.830	1	4
511.000	1	-8
511.171	1	-5
511.341	1	-1
511.511	1	2
511.681	1	11
511.851	1	4
512.022	1	-5
512.192	1	0
512.362	1	-6
512.532	1	4
512.702	1	-3
512.873	1	6
513.043	1	0
513.213	1	3
513.383	1	-11
513.553	1	-6
513.724	1	2
513.894	1	-3
514.064	1	7
514.234	1	4
514.404	1	1
514.575	1	11
514.745	1	5
514.915	1	7
515.085	1	-5
515.255	1	3
515.425	1	-12
515.596	1	9
515.766	1	-7
515.936	1	7
516.106	1	-7
516.276	1	-8
516.447	1	9
516.617	1	5
516.787	1	9
516.957	1	-1
517.127	1	-5
517.297	1	-8
517.468	1	9
517.638	1	-1
517.808	1	-1
517.978	1	7
518.148	1	2
518.319	1	-4
518.489	1	-10
518.659	1	-8
518.829	1	11
518.999	1	5
519.169	1	3
519.340	1	7
519.510	1	10
519.680	1	5
519.850	1	8
520.020	1	0
520.190	1	-5
520.361	1	-2
520.531	1	1
520.701	1	3
520.871	1	5
521.041	1	6
521.211	1	-7
521.382	1	-11
521.552	1	10
521.722	1	2
521.892	1	2
522.062	1	11
522.232	1	5
522.402	1	9
522.573	1	3
522.743	1	7
522.913	1	5
523.083	1	-7
523.253	1	7
523.423	1	12
523.593	1	0
523.764	1	1
523.934	1	2
524.104	1	-6
524.274	1	11
524.444	1	3
524.614	1	5
524.784	1	-3
524.955	1	-4
525.125	1	5
525.295	1	-4
525.465	1	6
525.635	1	-4
525.805	1	-5
525.975	1	-2
526.146	1	0
526.316	1	13
526.486	1	-6
526.656	1	-1
526.826	1	0
526.996	1	14
527.166	1	1
527.337	1	-10
527.507	1	3
527.677	1	3
527.847	1	10
528.017	1	-6
528.187	1	1
528.357	1	-2
528.527	1	11
528.698	1	2
528.868	1	2
529.038	1	2
529.208	1	-2
529.378	1	11
529.548	1	-2
529.718	1	2
529.888	1	2
530.058	1	8
530.229	1	-2
530.399	1	9
530.569	1	-7
530.739	1	2
530.909	1	-4
531.079	1	4
531.249	1	-4
531.419	1	3
531.589	1	9
531.760	1	5
531.930	1	3
532.100	1	0
532.270	1	-2
532.440	1	8
532.610	1	-8
532.780	1	-2
532.950	1	7
533.120	1	6
533.290	1	-2
533.461	1	7
533.631	1	12
533.801	1	14
533.971	1	1
534.141	1	-11
534.311	1	5
534.481	1	-13
534.651	1	2
534.821	1	2
534.991	1	-2
535.162	1	5
535.332	1	4
535.502	1	-3
535.672	1	2
535.842	1	9
536.012	1	3
536.182	1	-5
536.352	1	2
536.522	1	-12
536.692	1	-2
536.862	1	0
537.032	1	13
537.203	1	-9
537.373	1	8
537.543	1	7
537.713	1	3
537.883	1	4
538.053	1	-3
538.223	1	8
538.393	1	7
538.563	1	8
538.733	1	11
538.903	1	-2
539.073	1	3
539.243	1	4
539.413	1	-5
539.584	1	-7
539.754	1	2
539.924	1	15
540.094	1	-2
540.264	1	-14
540.434	1	7
540.604	1	-3
540.774	1	10
540.944	1	-1
541.114	1	-6
541.284	1	5
541.454	1	3
541.624	1	4
541.794	1	9
541.964	1	10
542.134	1	8
542.305	1	8
542.475	1	1
542.645	1	4
542.815	1	4
542.985	1	6
543.155	1	1
543.325	1	0
543.495	1	2
543.665	1	5
543.835	1	6
544.005	1	13
544.175	1	-9
544.345	1	10
544.515	1	-4
544.685	1	1
544.855	1	6
545.025	1	6
545.195	1	-1
545.365	1	1
545.535	1	14
545.705	1	-4
545.875	1	-14
546.045	1	4
546.216	1	-3
546.386	1	7
546.556	1	-2
546.726	1	-9
546.896	1	4
547.066	1	2
547.236	1	5
547.406	1	5
547.576	1	10
547.746	1	-16
547.916	1	-6
548.086	1	6
548.256	1	-1
548.426	1	-7
548.596	1	-6
548.766	1	-4
548.936	1	6
549.106	1	2
549.276	1	-4
549.446	1	-1
549.616	1	-3
549.786	1	6
549.956	1	8
550.126	1	8
550.296	1	-1
550.466	1	2
550.636	1	3
550.806	1	-6
550.976	1	-6
551.146	1	1
551.316	1	3
551.486	1	3
551.656	1	2
551.826	1	10
551.996	1	4
552.166	1	0
552.336	1	1
552.506	1	6
552.676	1	11
552.846	1	-2
553.016	1	11
553.186	1	6
553.356	1	-9
553.526	1	0
553.696	1	8
553.866	1	6
554.036	1	4
554.206	1	11
554.376	1	3
554.546	1	-2
554.716	1	4
554.886	1	5
555.056	1	2
555.226	1	-4
555.396	1	-14
555.566	1	9
555.736	1	-6
555.906	1	17
556.076	1	-2
556.246	1	3
556.416	1	2
556.586	1	-5
556.756	1	0
556.926	1	13
557.096	1	1
557.266	1	0
557.436	1	2
557.606	1	-8
557.776	1	-10
557.946	1	14
558.116	1	0
558.286	1	8
558.456	1	0
558.626	1	6
558.796	1	-2
558.966	1	4
559.136	1	5
559.306	1	-9
559.476	1	-10
559.646	1	-5
559.816	1	0
559.986	1	-1
560.155	1	12
560.325	1	-3
560.495	1	3
560.665	1	5
560.835	1	-6
561.005	1	-2
561.175	1	-1
561.345	1	4
561.515	1	-6
561.685	1	-2
561.855	1	1
562.025	1	3
562.195	1	-2
562.365	1	1
562.535	1	-3
562.705	1	-2
562.875	1	12
563.045	1	1
563.215	1	9
563.385	1	-16
563.555	1	-2
563.725	1	3
563.895	1	1
564.064	1	-8
564.234	1	1
564.404	1	2
564.574	1	9
564.744	1	4
564.914	1	5
565.084	1	2
565.254	1	9
565.424	1	1
565.594	1	8
565.764	1	3
565.934	1	7
566.104	1	6
566.274	1	1
566.444	1	-3
566.614	1	2
566.783	1	-8
566.953	1	8
567.123	1	6
567.293	1	5
567.463	1	-2
567.633	1	-3
567.803	1	-9
567.973	1	-5
568.143	1	10
568.313	1	0
568.483	1	5
568.653	1	-7
568.823	1	-2
568.993	1	5
569.162	1	7
569.332	1	-6
569.502	1	0
569.672	1	-1
569.842	1	14
570.012	1	6
570.182	1	0
570.352	1	-3
570.522	1	-3
570.692	1	9
570.862	1	0
571.031	1	5
571.201	1	3
571.371	1	-7
571.541	1	1
571.711	1	7
571.881	1	8
572.051	1	-11
572.221	1	-1
572.391	1	-4
572.561	1	2
572.731	1	9
572.900	1	-6
573.070	1	6
573.240	1	4
573.410	1	10
573.580	1	-1
573.750	1	-2
573.920	1	8
574.090	1	3
574.260	1	6
574.430	1	6
574.599	1	-6
574.769	1	3
574.939	1	-2
575.109	1	2
575.279	1	7
575.449	1	-1
575.619	1	11
575.789	1	-5
575.959	1	-5
576.128	1	-6
576.298	1	10
576.468	1	-3
576.638	1	5
576.808	1	2
576.978	1	5
577.148	1	6
577.318	1	7
577.487	1	0
577.657	1	3
577.827	1	-5
577.997	1	-1
578.167	1	-1
578.337	1	10
578.507	1	4
578.677	1	7
578.846	1	1
579.016	1	21
579.186	1	4
579.356	1	-4
579.526	1	-2
579.696	1	9
579.866	1	4
580.036	1	2
580.205	1	-7
580.375	1	5
580.545	1	7
580.715	1	-3
580.885	1	0
581.055	1	-3
581.225	1	9
581.394	1	13
581.564	1	3
581.734	1	-6
581.904	1	14
582.074	1	-8
582.244	1	-1
582.414	1	9
582.583	1	8
582.753	1	-1
582.923	1	4
583.093	1	0
583.263	1	15
583.433	1	6
583.603	1	8
583.772	1	8
583.942	1	6
584.112	1	6
584.282	1	-3
584.452	1	5
584.622	1	-2
584.791	1	-4
584.961	1	3
585.131	1	1
585.301	1	-2
585.471	1	7
585.641	1	-9
585.811	1	7
585.980	1	7
586.150	1	1
586.320	1	1
586.490	1	3
586.660	1	6
586.830	1	-1
586.999	1	2
587.169	1	1
587.339	1	6
587.509	1	1
587.679	1	1
587.849	1	-3
588.018	1	16
588.188	1	3
588.358	1	-8
588.528	1	-4
588.698	1	6
588.867	1	11
589.037	1	6
589.207	1	4
589.377	1	3
589.547	1	1
589.717	1	0
589.886	1	4
590.056	1	-8
590.226	1	10
590.396	1	3
590.566	1	0
590.735	1	-9
590.905	1	0
591.075	1	8
591.245	1	-6
591.415	1	4
591.585	1	8
591.754	1	4
591.924	1	5
592.094	1	-1
592.264	1	5
592.434	1	-5
592.603	1	3
592.773	1	-8
592.943	1	9
593.113	1	-10
593.283	1	2
593.452	1	0
593.622	1	-2
593.792	1	8
593.962	1	8
594.132	1	-6
594.301	1	12
594.471	1	5
594.641	1	0
594.811	1	6
594.981	1	-11
595.150	1	-3
595.320	1	7
595.490	1	5
595.660	1	2
595.829	1	-3
595.999	1	-5
596.169	1	11
596.339	1	10
596.509	1	4
596.678	1	-9
596.848	1	6
597.018	1	-10
597.188	1	3
597.358	1	0
597.527	1	-6
597.697	1	3
597.867	1	-2
598.037	1	-3
598.206	1	0
598.376	1	0
598.546	1	8
598.716	1	2
598.885	1	-11
599.055	1	4
599.225	1	2
599.395	1	-4
599.565	1	-12
599.734	1	8
599.904	1	2
600.074	1	4
600.244	1	-7
600.413	1	8
600.583	1	8
600.753	1	7
600.923	1	2
601.092	1	8
601.262	1	1
601.432	1	-10
601.602	1	6
601.771	1	4
601.941	1	-6
602.111	1	2
602.281	1	11
602.451	1	10
602.620	1	4
602.790	1	2
602.960	1	-1
603.130	1	8
603.299	1	-4
603.469	1	-4
603.639	1	-5
603.809	1	-4
603.978	1	-2
604.148	1	5
604.318	1	6
604.487	1	1
604.657	1	0
604.827	1	8
604.997	1	-1
605.166	1	10
605.336	1	5
605.506	1	4
605.676	1	-5
605.845	1	6
606.015	1	9
606.185	1	4
606.355	1	4
606.524	1	-4
606.694	1	3
606.864	1	3
607.034	1	-8
607.203	1	-9
607.373	1	3
607.543	1	4
607.712	1	-5
607.882	1	2
608.052	1	-8
608.222	1	6
608.391	1	2
608.561	1	0
608.731	1	-5
608.901	1	0
609.070	1	6
609.240	1	5
609.410	1	7
609.579	1	7
609.749	1	5
609.919	1	7
610.089	1	7
610.258	1	5
610.428	1	-1
610.598	1	-3
610.767	1	5
610.937	1	3
611.107	1	-1
611.277	1	0
611.446	1	6
611.616	1	1
611.786	1	7
611.955	1	-2
612.125	1	2
612.295	1	-4
612.465	1	1
612.634	1	-5
612.804	1	8
612.974	1	-10
613.143	1	1
613.313	1	4
613.483	1	10
613.652	1	-1
613.822	1	1
613.992	1	-2
614.162	1	8
614.331	1	-5
614.501	1	-5
614.671	1	3
614.840	1	-9
615.010	1	-11
615.180	1	-5
615.349	1	1
615.519	1	-2
615.689	1	12
615.858	1	1
616.028	1	-8
616.198	1	0
616.368	1	9
616.537	1	-1
616.707	1	-5
616.877	1	7
617.046	1	-1
617.216	1	-10
617.386	1	12
617.555	1	-1
617.725	1	0
617.895	1	5
618.064	1	0
618.234	1	0
618.404	1	0
618.573	1	3
618.743	1	5
618.913	1	6
619.082	1	6
619.252	1	-1
619.422	1	-9
619.591	1	-16
619.761	1	4
619.931	1	0
620.100	1	4
620.270	1	-10
620.440	1	8
620.609	1	11
620.779	1	-6
620.949	1	3
621.118	1	2
621.288	1	2
621.458	1	0
621.627	1	12
621.797	1	-6
621.967	1	4
622.136	1	10
622.306	1	2
622.476	1	-2
622.645	1	2
622.815	1	18
622.985	1	-2
623.154	1	12
623.324	1	-1
623.494	1	9
623.663	1	4
623.833	1	1
624.002	1	-1
624.172	1	-4
624.342	1	5
624.511	1	2
624.681	1	3
624.851	1	-6
625.020	1	-1
625.190	1	1
625.360	1	-3
625.529	1	-2
625.699	1	-4
625.869	1	4
626.038	1	-6
626.208	1	5
626.377	1	3
626.547	1	1
626.717	1	-2
626.886	1	10
627.056	1	-8
627.226	1	3
627.395	1	5
627.565	1	2
627.735	1	7
627.904	1	-5
628.074	1	1
628.243	1	4
628.413	1	-1
628.583	1	-2
628.752	1	-6
628.922	1	0
629.091	1	-2
629.261	1	6
629.431	1	-3
629.600	1	-1
629.770	1	-9
629.940	1	-1
630.109	1	-4
630.279	1	-1
630.448	1	2
630.618	1	-7
630.788	1	6
630.957	1	-6
631.127	1	9
631.297	1	-1
631.466	1	2
631.636	1	-5
631.805	1	-2
631.975	1	7
632.145	1	-6
632.314	1	9
632.484	1	-1
632.653	1	1
632.823	1	-1
632.993	1	-5
633.162	1	3
633.332	1	-4
633.501	1	-1
633.671	1	-3
633.841	1	-9
634.010	1	-5
634.180	1	3
634.349	1	7
634.519	1	-7
634.689	1	-2
634.858	1	4
635.028	1	2
635.197	1	12
635.367	1	-3
635.537	1	-5
635.706	1	-4
635.876	1	-5
636.045	1	10
636.215	1	0
636.384	1	-5
636.554	1	6
636.724	1	11
636.893	1	-6
637.063	1	4
637.232	1	-3
637.402	1	4
637.572	1	-13
637.741	1	4
637.911	1	-9
638.080	1	-5
638.250	1	0
638.419	1	5
638.589	1	-2
638.759	1	-9
638.928	1	7
639.098	1	9
639.267	1	2
639.437	1	7
639.606	1	2
639.776	1	-1
639.946	1	3
640.115	1	-4
640.285	1	15
640.454	1	1
640.624	1	-3
640.793	1	8
640.963	1	-2
641.132	1	1
641.302	1	0
641.472	1	-1
641.641	1	-6
641.811	1	-4
641.980	1	6
642.150	1	-10
642.319	1	-2
642.489	1	9
642.659	1	3
642.828	1	-5
642.998	1	8
643.167	1	5
643.337	1	9
643.506	1	-8
643.676	1	1
643.845	1	-1
644.015	1	8
644.184	1	5
644.354	1	2
644.524	1	-8
644.693	1	4
644.863	1	-2
645.032	1	-3
645.202	1	-3
645.371	1	3
645.541	1	6
645.710	1	3
645.880	1	3
646.049	1	-1
646.219	1	1
646.388	1	2
646.558	1	-5
646.728	1	-5
646.897	1	1
647.067	1	4
647.236	1	9
647.406	1	-4
647.575	1	6
647.745	1	7
647.914	1	-3
648.084	1	0
648.253	1	7
648.423	1	-2
648.592	1	-6
648.762	1	2
648.931	1	9
649.101	1	-4
649.270	1	-2
649.440	1	7
649.610	1	1
649.779	1	9
649.949	1	-1
650.118	1	1
650.288	1	-3
650.457	1	7
650.627	1	2
650.796	1	7
650.966	1	9
651.135	1	-4
651.305	1	-7
651.474	1	-14
651.644	1	13
651.813	1	7
651.983	1	2
652.152	1	1
652.322	1	-7
652.491	1	4
652.661	1	-4
652.830	1	4
653.000	1	6
653.169	1	9
653.339	1	3
653.508	1	-2
653.678	1	-1
653.847	1	4
654.017	1	3
654.186	1	-1
654.356	1	-2
654.525	1	-7
654.695	1	2
654.864	1	-7
655.034	1	4
655.203	1	-6
655.373	1	11
655.542	1	-1
655.712	1	7
655.881	1	-5
656.051	1	-7
656.220	1	-5
656.390	1	0
656.559	1	-2
656.729	1	5
656.898	1	-8
657.068	1	0
657.237	1	-3
657.406	1	15
657.576	1	-6
657.745	1	-4
657.915	1	-1
658.084	1	8
658.254	1	-5
658.423	1	13
658.593	1	2
658.762	1	-2
658.932	1	-3
659.101	1	8
659.271	1	8
659.440	1	1
659.610	1	-4
659.779	1	2
659.949	1	-9
660.118	1	-2
660.288	1	15
660.457	1	-2
660.626	1	8
660.796	1	-6
660.965	1	12
661.135	1	-5
661.304	1	-9
661.474	1	0
661.643	1	9
661.813	1	14
661.982	1	4
662.152	1	7
662.321	1	-1
662.491	1	-2
662.660	1	3
662.829	1	-1
662.999	1	-12
663.168	1	6
663.338	1	2
663.507	1	10
663.677	1	7
663.846	1	-5
664.016	1	-3
664.185	1	10
664.354	1	4
664.524	1	4
664.693	1	14
664.863	1	-5
665.032	1	-7
665.202	1	-1
665.371	1	4
665.541	1	-7
665.710	1	2
665.879	1	-5
666.049	1	1
666.218	1	-7
666.388	1	8
666.557	1	-9
666.727	1	-2
666.896	1	-7
667.065	1	8
667.235	1	10
667.404	1	-3
667.574	1	-2
667.743	1	0
667.913	1	5
668.082	1	7
668.251	1	-4
668.421	1	0
668.590	1	2
668.760	1	3
668.929	1	-10
669.099	1	0
669.268	1	-6
669.437	1	8
669.607	1	-8
669.776	1	2
669.946	1	8
670.115	1	2
670.285	1	4
670.454	1	6
670.623	1	2
670.793	1	-2
670.962	1	7
671.132	1	9
671.301	1	-10
671.470	1	1
671.640	1	6
671.809	1	5
671.979	1	-11
672.148	1	7
672.317	1	13
672.487	1	8
672.656	1	-5
672.826	1	-3
672.995	1	8
673.164	1	5
673.334	1	-1
673.503	1	8
673.673	1	2
673.842	1	-1
674.011	1	-4
674.181	1	3
674.350	1	8
674.520	1	-1
674.689	1	1
674.858	1	-2
675.028	1	0
675.197	1	-13
675.367	1	3
675.536	1	9
675.705	1	6
675.875	1	-1
676.044	1	4
676.214	1	3
676.383	1	2
676.552	1	2
676.722	1	5
676.891	1	12
677.060	1	-2
677.230	1	-2
677.399	1	-1
677.569	1	-8
677.738	1	3
677.907	1	10
678.077	1	8
678.246	1	6
678.416	1	7
678.585	1	0
678.754	1	-7
678.924	1	-3
679.093	1	12
679.262	1	-4
679.432	1	-4
679.601	1	-5
679.771	1	-5
679.940	1	-3
680.109	1	10
680.279	1	-3
680.448	1	1
680.617	1	-18
680.787	1	-4
680.956	1	5
681.125	1	9
681.295	1	-10
681.464	1	-2
681.634	1	4
681.803	1	-4
681.972	1	-9
682.142	1	4
682.311	1	3
682.480	1	5
682.650	1	-1
682.819	1	8
682.988	1	4
683.158	1	-6
683.327	1	-1
683.496	1	0
683.666	1	-2
683.835	1	-3
684.004	1	-1
684.174	1	-6
684.343	1	-5
684.512	1	2
684.682	1	-2
684.851	1	-4
685.021	1	-3
685.190	1	-5
685.359	1	12
685.529	1	-5
685.698	1	6
685.867	1	-6
686.037	1	1
686.206	1	-6
686.375	1	16
686.545	1	-6
686.714	1	-8
686.883	1	4
687.053	1	-3
687.222	1	8
687.391	1	0
687.561	1	1
687.730	1	-7
687.899	1	3
688.069	1	2
688.238	1	4
688.407	1	-10
688.577	1	1
688.746	1	0
