340.368	1	5
340.539	1	-22
340.710	1	-5
340.881	1	-12
341.052	1	5
341.223	1	5
341.394	1	-7
341.565	1	-8
341.737	1	7
341.908	1	-2
342.079	1	2
342.250	1	-1
342.421	1	-2
342.592	1	1
342.763	1	4
342.934	1	-7
343.105	1	4
343.276	1	8
343.447	1	2
343.618	1	0
343.789	1	-5
343.960	1	2
344.131	1	-2
344.302	1	3
344.473	1	-2
344.644	1	1
344.815	1	-8
344.986	1	2
345.157	1	2
345.328	1	7
345.499	1	-1
345.670	1	-3
345.841	1	10
346.012	1	4
346.183	1	-9
346.354	1	6
346.526	1	-3
346.697	1	6
346.868	1	3
347.039	1	4
347.210	1	-6
347.381	1	6
347.552	1	4
347.723	1	1
347.894	1	1
348.065	1	6
348.236	1	12
348.407	1	0
348.578	1	4
348.749	1	-4
348.920	1	-5
349.091	1	-16
349.262	1	-3
349.433	1	-1
349.604	1	2
349.775	1	-1
349.946	1	-11
350.117	1	5
350.288	1	5
350.459	1	-3
350.630	1	4
350.801	1	-1
350.972	1	-6
351.143	1	2
351.314	1	-6
351.485	1	7
351.656	1	6
351.827	1	-1
351.998	1	4
352.169	1	-3
352.340	1	6
352.511	1	-2
352.682	1	5
352.853	1	5
353.024	1	4
353.195	1	0
353.366	1	15
353.537	1	3
353.708	1	-5
353.879	1	14
354.050	1	-4
354.221	1	-10
354.392	1	1
354.563	1	-1
354.734	1	4
354.905	1	7
355.076	1	2
355.247	1	7
355.418	1	-8
355.589	1	3
355.760	1	6
355.931	1	-1
356.102	1	8
356.273	1	-6
356.444	1	3
356.615	1	0
356.785	1	0
356.956	1	13
357.127	1	-1
357.298	1	16
357.469	1	11
357.640	1	5
357.811	1	8
357.982	1	10
358.153	1	4
358.324	1	-3
358.495	1	2
358.666	1	16
358.837	1	-3
359.008	1	-4
359.179	1	0
359.350	1	-2
359.521	1	6
359.692	1	9
359.863	1	10
360.034	1	5
360.205	1	5
360.376	1	9
360.547	1	10
360.718	1	11
360.889	1	5
361.060	1	5
361.231	1	-4
361.401	1	12
361.572	1	8
361.743	1	5
361.914	1	1
362.085	1	14
362.256	1	6
362.427	1	18
362.598	1	-1
362.769	1	12
362.940	1	12
363.111	1	10
363.282	1	10
363.453	1	1
363.624	1	20
363.795	1	16
363.966	1	4
364.137	1	17
364.308	1	9
364.478	1	13
364.649	1	10
364.820	1	14
364.991	1	16
365.162	1	21
365.333	1	11
365.504	1	25
365.675	1	17
365.846	1	25
366.017	1	25
366.188	1	22
366.359	1	7
366.530	1	24
366.701	1	25
366.871	1	23
367.042	1	21
367.213	1	33
367.384	1	31
367.555	1	11
367.726	1	30
367.897	1	35
368.068	1	33
368.239	1	37
368.410	1	38
368.581	1	24
368.752	1	21
368.923	1	21
369.093	1	24
369.264	1	38
369.435	1	35
369.606	1	27
369.777	1	33
369.948	1	32
370.119	1	41
370.290	1	34
370.461	1	38
370.632	1	35
370.803	1	29
370.973	1	31
371.144	1	26
371.315	1	28
371.486	1	36
371.657	1	34
371.828	1	28
371.999	1	27
372.170	1	32
372.341	1	24
372.512	1	17
372.682	1	28
372.853	1	29
373.024	1	31
373.195	1	26
373.366	1	38
373.537	1	29
373.708	1	19
373.879	1	23
374.050	1	26
374.220	1	30
374.391	1	27
374.562	1	28
374.733	1	18
374.904	1	14
375.075	1	7
375.246	1	21
375.417	1	25
375.588	1	14
375.758	1	16
375.929	1	29
376.100	1	21
376.271	1	18
376.442	1	21
376.613	1	12
376.784	1	11
376.955	1	7
377.125	1	25
377.296	1	15
377.467	1	16
377.638	1	10
377.809	1	23
377.980	1	15
378.151	1	14
378.321	1	9
378.492	1	5
378.663	1	7
378.834	1	4
379.005	1	16
379.176	1	6
379.347	1	16
379.518	1	9
379.688	1	11
379.859	1	20
380.030	1	1
380.201	1	3
380.372	1	6
380.543	1	15
380.714	1	9
380.884	1	3
381.055	1	16
381.226	1	6
381.397	1	5
381.568	1	13
381.739	1	18
381.910	1	8
382.080	1	4
382.251	1	6
382.422	1	8
382.593	1	0
382.764	1	2
382.935	1	-4
383.105	1	11
383.276	1	15
383.447	1	6
383.618	1	14
383.789	1	6
383.960	1	6
384.130	1	8
384.301	1	12
384.472	1	6
384.643	1	12
384.814	1	1
384.985	1	6
385.156	1	2
385.326	1	4
385.497	1	5
385.668	1	9
385.839	1	-5
386.010	1	3
386.180	1	10
386.351	1	6
386.522	1	6
386.693	1	-2
386.864	1	15
387.035	1	3
387.205	1	1
387.376	1	11
387.547	1	-1
387.718	1	4
387.889	1	10
388.060	1	9
388.230	1	13
388.401	1	6
388.572	1	0
388.743	1	-9
388.914	1	7
389.084	1	7
389.255	1	2
389.426	1	1
389.597	1	9
389.768	1	5
389.939	1	9
390.109	1	-3
390.280	1	8
390.451	1	2
390.622	1	-1
390.793	1	8
390.963	1	15
391.134	1	9
391.305	1	5
391.476	1	4
391.647	1	2
391.817	1	-1
391.988	1	11
392.159	1	-1
392.330	1	7
392.501	1	3
392.671	1	-5
392.842	1	-2
393.013	1	0
393.184	1	3
393.355	1	7
393.525	1	2
393.696	1	0
393.867	1	6
394.038	1	5
394.208	1	-1
394.379	1	4
394.550	1	1
394.721	1	-1
394.892	1	3
395.062	1	11
395.233	1	-4
395.404	1	2
395.575	1	7
395.746	1	11
395.916	1	-2
396.087	1	-10
396.258	1	3
396.429	1	13
396.599	1	2
396.770	1	-5
396.941	1	12
397.112	1	0
397.283	1	-4
397.453	1	11
397.624	1	1
397.795	1	-5
397.966	1	3
398.136	1	1
398.307	1	4
398.478	1	7
398.649	1	-5
398.819	1	-2
398.990	1	-4
399.161	1	5
399.332	1	-3
399.503	1	10
399.673	1	-6
399.844	1	0
400.015	1	-1
400.186	1	5
400.356	1	-17
400.527	1	4
400.698	1	3
400.869	1	-2
401.039	1	3
401.210	1	-6
401.381	1	6
401.552	1	-9
401.722	1	9
401.893	1	3
402.064	1	6
402.235	1	-6
402.405	1	9
402.576	1	-1
402.747	1	-5
402.918	1	14
403.088	1	6
403.259	1	5
403.430	1	-7
403.601	1	3
403.771	1	8
403.942	1	14
404.113	1	-10
404.284	1	3
404.454	1	-4
404.625	1	2
404.796	1	4
404.967	1	9
405.137	1	12
405.308	1	4
405.479	1	4
405.649	1	-3
405.820	1	-19
405.991	1	-10
406.162	1	6
406.332	1	-1
406.503	1	7
406.674	1	-3
406.845	1	5
407.015	1	17
407.186	1	5
407.357	1	-1
407.527	1	-11
407.698	1	9
407.869	1	-4
408.040	1	-9
408.210	1	1
408.381	1	5
408.552	1	0
408.722	1	-15
408.893	1	6
409.064	1	1
409.235	1	-1
409.405	1	9
409.576	1	4
409.747	1	-1
409.917	1	-2
410.088	1	-2
410.259	1	10
410.430	1	9
410.600	1	0
410.771	1	-4
410.942	1	11
411.112	1	-1
411.283	1	6
411.454	1	-2
411.625	1	8
411.795	1	-4
411.966	1	1
412.137	1	7
412.307	1	3
412.478	1	12
412.649	1	0
412.819	1	-3
412.990	1	3
413.161	1	-3
413.332	1	1
413.502	1	0
413.673	1	10
413.844	1	7
414.014	1	0
414.185	1	6
414.356	1	-4
414.526	1	6
414.697	1	7
414.868	1	3
415.038	1	9
415.209	1	4
415.380	1	1
415.550	1	-4
415.721	1	11
415.892	1	-4
416.063	1	-1
416.233	1	10
416.404	1	4
416.575	1	27
416.745	1	-5
416.916	1	7
417.087	1	-2
417.257	1	0
417.428	1	0
417.599	1	2
417.769	1	10
417.940	1	12
418.111	1	3
418.281	1	12
418.452	1	-9
418.623	1	-4
418.793	1	-1
418.964	1	-12
419.135	1	-7
419.305	1	6
419.476	1	0
419.647	1	3
419.817	1	-5
419.988	1	2
420.159	1	3
420.329	1	-2
420.500	1	0
420.671	1	10
420.841	1	9
421.012	1	8
421.183	1	-2
421.353	1	10
421.524	1	-11
421.695	1	4
421.865	1	3
422.036	1	-1
422.206	1	-2
422.377	1	-4
422.548	1	-4
422.718	1	2
422.889	1	-3
423.060	1	-7
423.230	1	6
423.401	1	-4
423.572	1	-3
423.742	1	17
423.913	1	1
424.084	1	-8
424.254	1	8
424.425	1	1
424.595	1	-1
424.766	1	0
424.937	1	5
425.107	1	-9
425.278	1	3
425.449	1	6
425.619	1	4
425.790	1	-15
425.961	1	-4
426.131	1	2
426.302	1	6
426.472	1	-2
426.643	1	4
426.814	1	9
426.984	1	5
427.155	1	-8
427.326	1	12
427.496	1	-5
427.667	1	6
427.837	1	2
428.008	1	7
428.179	1	3
428.349	1	-8
428.520	1	7
428.691	1	10
428.861	1	-2
429.032	1	3
429.202	1	-1
429.373	1	8
429.544	1	-4
429.714	1	-2
429.885	1	3
430.055	1	1
430.226	1	-10
430.397	1	-1
430.567	1	-2
430.738	1	6
430.909	1	4
431.079	1	-5
431.250	1	2
431.420	1	-2
431.591	1	7
431.762	1	-1
431.932	1	-4
432.103	1	-5
432.273	1	-4
432.444	1	8
432.615	1	-4
432.785	1	-1
432.956	1	-6
433.126	1	-9
433.297	1	7
433.468	1	-8
433.638	1	1
433.809	1	2
433.979	1	12
434.150	1	4
434.320	1	8
434.491	1	-4
434.662	1	0
434.832	1	-1
435.003	1	6
435.173	1	-8
435.344	1	2
435.515	1	4
435.685	1	6
435.856	1	-1
436.026	1	4
436.197	1	-4
436.368	1	4
436.538	1	-13
436.709	1	1
436.879	1	-1
437.050	1	0
437.220	1	0
437.391	1	7
437.562	1	3
437.732	1	-8
437.903	1	4
438.073	1	4
438.244	1	3
438.414	1	-4
438.585	1	2
438.756	1	-8
438.926	1	3
439.097	1	-12
439.267	1	1
439.438	1	-5
439.608	1	-10
439.779	1	3
439.949	1	11
440.120	1	0
440.291	1	3
440.461	1	-5
440.632	1	1
440.802	1	-2
440.973	1	-8
441.143	1	7
441.314	1	-10
441.485	1	5
441.655	1	5
441.826	1	-10
441.996	1	9
442.167	1	1
442.337	1	-2
442.508	1	-7
442.678	1	-9
442.849	1	8
443.019	1	12
443.190	1	1
443.361	1	-1
443.531	1	3
443.702	1	1
443.872	1	9
444.043	1	2
444.213	1	1
444.384	1	-13
444.554	1	5
444.725	1	-3
444.895	1	-4
445.066	1	-4
445.237	1	-1
445.407	1	5
445.578	1	-13
445.748	1	-4
445.919	1	-13
446.089	1	5
446.260	1	0
446.430	1	-2
446.601	1	-6
446.771	1	10
446.942	1	-4
447.112	1	-3
447.283	1	-10
447.453	1	-9
447.624	1	-5
447.794	1	1
447.965	1	-7
448.135	1	-9
448.306	1	-4
448.477	1	0
448.647	1	-5
448.818	1	6
448.988	1	-3
449.159	1	-8
449.329	1	2
449.500	1	-4
449.670	1	1
449.841	1	4
450.011	1	14
450.182	1	-4
450.352	1	-5
450.523	1	-2
450.693	1	-1
450.864	1	-5
451.034	1	-16
451.205	1	10
451.375	1	7
451.546	1	-4
451.716	1	4
451.887	1	-4
452.057	1	-2
452.228	1	-6
452.398	1	-2
452.569	1	2
452.739	1	9
452.910	1	2
453.080	1	-1
453.251	1	-5
453.421	1	-4
453.592	1	6
453.762	1	-3
453.933	1	1
454.103	1	3
454.274	1	-6
454.444	1	-7
454.615	1	11
454.785	1	0
454.956	1	-3
455.126	1	2
455.297	1	4
455.467	1	0
455.638	1	-1
455.808	1	-1
455.979	1	4
456.149	1	1
456.320	1	-2
456.490	1	7
456.661	1	-2
456.831	1	11
457.001	1	-9
457.172	1	1
457.342	1	-1
457.513	1	11
457.683	1	-9
457.854	1	6
458.024	1	-7
458.195	1	0
458.365	1	-8
458.536	1	7
458.706	1	6
458.877	1	-4
459.047	1	3
459.218	1	7
459.388	1	10
459.559	1	2
459.729	1	9
459.899	1	-3
460.070	1	-5
460.240	1	1
460.411	1	1
460.581	1	22
460.752	1	-2
460.922	1	1
461.093	1	7
461.263	1	-3
461.434	1	2
461.604	1	-14
461.775	1	-8
461.945	1	-2
462.115	1	-4
462.286	1	-3
462.456	1	-6
462.627	1	6
462.797	1	0
462.968	1	4
463.138	1	-1
463.309	1	-10
463.479	1	1
463.649	1	-3
463.820	1	-6
463.990	1	-8
464.161	1	6
464.331	1	0
464.502	1	5
464.672	1	0
464.843	1	1
465.013	1	-3
465.183	1	-5
465.354	1	-2
465.524	1	-2
465.695	1	-12
465.865	1	-10
466.036	1	1
466.206	1	14
466.376	1	-5
466.547	1	-11
466.717	1	4
466.888	1	10
467.058	1	2
467.229	1	-3
467.399	1	3
467.569	1	5
467.740	1	3
467.910	1	2
468.081	1	2
468.251	1	0
468.422	1	-6
468.592	1	6
468.762	1	-3
468.933	1	0
469.103	1	-4
469.274	1	4
469.444	1	-11
469.614	1	5
469.785	1	-10
469.955	1	1
470.126	1	-16
470.296	1	-5
470.467	1	-3
470.637	1	12
470.807	1	5
470.978	1	-4
471.148	1	2
471.319	1	-1
471.489	1	-5
471.659	1	-14
471.830	1	-3
472.000	1	-1
472.171	1	0
472.341	1	3
472.511	1	-3
472.682	1	1
472.852	1	-1
473.023	1	3
473.193	1	5
473.363	1	-5
473.534	1	12
473.704	1	-9
473.875	1	16
474.045	1	-2
474.215	1	9
474.386	1	14
474.556	1	-4
474.727	1	-5
474.897	1	6
475.067	1	-3
475.238	1	-6
475.408	1	-5
475.578	1	-14
475.749	1	-6
475.919	1	5
476.090	1	0
476.260	1	-6
476.430	1	6
476.601	1	1
476.771	1	2
476.942	1	13
477.112	1	-7
477.282	1	-2
477.453	1	-8
477.623	1	-9
477.793	1	-6
477.964	1	-4
478.134	1	-12
478.305	1	-5
478.475	1	4
478.645	1	22
478.816	1	5
478.986	1	-2
479.156	1	-9
479.327	1	-9
479.497	1	-3
479.667	1	7
479.838	1	-1
480.008	1	-2
480.179	1	0
480.349	1	-11
480.519	1	9
480.690	1	0
480.860	1	6
481.030	1	-3
481.201	1	-8
481.371	1	0
481.541	1	-1
481.712	1	5
481.882	1	0
482.053	1	2
482.223	1	1
482.393	1	6
482.564	1	-5
482.734	1	-7
482.904	1	-6
483.075	1	-4
483.245	1	-3
483.415	1	4
483.586	1	0
483.756	1	8
483.926	1	-11
484.097	1	1
484.267	1	-7
484.437	1	-6
484.608	1	-6
484.778	1	7
484.948	1	4
485.119	1	2
485.289	1	-3
485.459	1	10
485.630	1	-8
485.800	1	-1
485.970	1	-5
486.141	1	-8
486.311	1	0
486.481	1	-2
486.652	1	12
486.822	1	0
486.992	1	14
487.163	1	-8
487.333	1	-1
487.503	1	2
487.674	1	7
487.844	1	-3
488.014	1	7
488.185	1	-1
488.355	1	-3
488.525	1	-4
488.696	1	0
488.866	1	7
489.036	1	7
489.207	1	-4
489.377	1	-9
489.547	1	-4
489.718	1	-1
489.888	1	-3
490.058	1	0
490.228	1	0
490.399	1	1
490.569	1	11
490.739	1	-2
490.910	1	-3
491.080	1	11
491.250	1	-4
491.421	1	-3
491.591	1	-6
491.761	1	5
491.932	1	-2
492.102	1	-3
492.272	1	5
492.442	1	8
492.613	1	-5
492.783	1	5
492.953	1	-6
493.124	1	4
493.294	1	-4
493.464	1	12
493.635	1	1
493.805	1	-7
493.975	1	-5
494.145	1	5
494.316	1	6
494.486	1	6
494.656	1	-5
494.827	1	1
494.997	1	-2
495.167	1	-5
495.337	1	3
495.508	1	8
495.678	1	0
495.848	1	7
496.019	1	2
496.189	1	12
496.359	1	-3
496.529	1	3
496.700	1	5
496.870	1	13
497.040	1	5
497.211	1	-7
497.381	1	-3
497.551	1	2
497.721	1	-2
497.892	1	4
498.062	1	7
498.232	1	-7
498.403	1	2
498.573	1	2
498.743	1	0
498.913	1	2
499.084	1	-2
499.254	1	-6
499.424	1	7
499.594	1	13
499.765	1	-2
499.935	1	4
500.105	1	6
500.275	1	3
500.446	1	-8
500.616	1	-4
500.786	1	-9
500.956	1	-2
501.127	1	-2
501.297	1	-2
501.467	1	-3
501.638	1	-2
501.808	1	3
501.978	1	4
502.148	1	7
502.319	1	1
502.489	1	5
502.659	1	-3
502.829	1	1
503.000	1	1
503.170	1	15
503.340	1	4
503.510	1	9
503.681	1	-3
503.851	1	-2
504.021	1	1
504.191	1	13
504.362	1	-7
504.532	1	0
504.702	1	-3
504.872	1	-3
505.042	1	0
505.213	1	9
505.383	1	1
505.553	1	-5
505.723	1	-9
505.894	1	-10
506.064	1	13
506.234	1	9
506.404	1	2
506.575	1	3
506.745	1	12
506.915	1	12
507.085	1	-5
507.256	1	13
507.426	1	5
507.596	1	8
507.766	1	3
507.936	1	-2
508.107	1	0
508.277	1	3
508.447	1	9
508.617	1	3
508.788	1	16
508.958	1	-6
509.128	1	10
509.298	1	9
509.468	1	1
509.639	1	-2
509.809	1	2
509.979	1	-1
510.149	1	4
510.319	1	8
510.490	1	8
510.660	1	2
510.830	1	5
511.000	1	-3
511.171	1	-5
511.341	1	-5
511.511	1	5
511.681	1	11
511.851	1	6
512.022	1	-1
512.192	1	10
512.362	1	-6
512.532	1	-7
512.702	1	-2
512.873	1	5
513.043	1	10
513.213	1	2
513.383	1	-7
513.553	1	-8
513.724	1	8
513.894	1	2
514.064	1	8
514.234	1	3
514.404	1	9
514.575	1	9
514.745	1	-4
514.915	1	12
515.085	1	9
515.255	1	4
515.425	1	1
515.596	1	11
515.766	1	4
515.936	1	-11
516.106	1	10
516.276	1	-6
516.447	1	18
516.617	1	11
516.787	1	7
516.957	1	2
517.127	1	2
517.297	1	-3
517.468	1	1
517.638	1	7
517.808	1	-1
517.978	1	5
518.148	1	7
518.319	1	2
518.489	1	-4
518.659	1	-8
518.829	1	11
518.999	1	-2
519.169	1	5
519.340	1	20
519.510	1	2
519.680	1	-3
519.850	1	0
520.020	1	8
520.190	1	7
520.361	1	4
520.531	1	8
520.701	1	2
520.871	1	9
521.041	1	13
521.211	1	-8
521.382	1	-9
521.552	1	6
521.722	1	10
521.892	1	6
522.062	1	10
522.232	1	4
522.402	1	11
522.573	1	5
522.743	1	-5
522.913	1	10
523.083	1	-12
523.253	1	6
523.423	1	0
523.593	1	4
523.764	1	-3
523.934	1	5
524.104	1	-1
524.274	1	-2
524.444	1	-2
524.614	1	3
524.784	1	0
524.955	1	2
525.125	1	12
525.295	1	7
525.465	1	12
525.635	1	7
525.805	1	-3
525.975	1	7
526.146	1	-4
526.316	1	8
526.486	1	-9
526.656	1	3
526.826	1	4
526.996	1	14
527.166	1	1
527.337	1	-7
527.507	1	5
527.677	1	7
527.847	1	4
528.017	1	-9
528.187	1	5
528.357	1	1
528.527	1	4
528.698	1	5
528.868	1	3
529.038	1	8
529.208	1	-7
529.378	1	14
529.548	1	-1
529.718	1	4
529.888	1	8
530.058	1	9
530.229	1	11
530.399	1	6
530.569	1	-8
530.739	1	6
530.909	1	-5
531.079	1	0
531.249	1	-3
531.419	1	4
531.589	1	1
531.760	1	3
531.930	1	0
532.100	1	-2
532.270	1	11
532.440	1	8
532.610	1	7
532.780	1	2
532.950	1	2
533.120	1	11
533.290	1	5
533.461	1	6
533.631	1	4
533.801	1	12
533.971	1	-1
534.141	1	-10
534.311	1	10
534.481	1	-7
534.651	1	-3
534.821	1	7
534.991	1	5
535.162	1	1
535.332	1	4
535.502	1	-10
535.672	1	1
535.842	1	10
536.012	1	-4
536.182	1	0
536.352	1	-7
536.522	1	1
536.692	1	11
536.862	1	4
537.032	1	4
537.203	1	-1
537.373	1	6
537.543	1	2
537.713	1	5
537.883	1	5
538.053	1	1
538.223	1	2
538.393	1	16
538.563	1	12
538.733	1	5
538.903	1	3
539.073	1	12
539.243	1	4
539.413	1	9
539.584	1	3
539.754	1	2
539.924	1	9
540.094	1	-1
540.264	1	-2
540.434	1	9
540.604	1	2
540.774	1	7
540.944	1	-5
541.114	1	-2
541.284	1	10
541.454	1	8
541.624	1	3
541.794	1	7
541.964	1	8
542.134	1	6
542.305	1	5
542.475	1	8
542.645	1	6
542.815	1	1
542.985	1	6
543.155	1	7
543.325	1	-1
543.495	1	2
543.665	1	9
543.835	1	13
544.005	1	18
544.175	1	-6
544.345	1	5
544.515	1	5
544.685	1	8
544.855	1	0
545.025	1	1
545.195	1	-1
545.365	1	-2
545.535	1	5
545.705	1	2
545.875	1	0
546.045	1	7
546.216	1	5
546.386	1	3
546.556	1	-8
546.726	1	-6
546.896	1	7
547.066	1	8
547.236	1	7
547.406	1	4
547.576	1	6
547.746	1	-10
547.916	1	-5
548.086	1	9
548.256	1	-1
548.426	1	-4
548.596	1	3
548.766	1	2
548.936	1	9
549.106	1	7
549.276	1	0
549.446	1	11
549.616	1	-2
549.786	1	2
549.956	1	17
550.126	1	17
550.296	1	5
550.466	1	6
550.636	1	12
550.806	1	-4
550.976	1	1
551.146	1	3
551.316	1	15
551.486	1	8
551.656	1	9
551.826	1	10
551.996	1	11
552.166	1	10
552.336	1	11
552.506	1	8
552.676	1	15
552.846	1	4
553.016	1	13
553.186	1	8
553.356	1	9
553.526	1	6
553.696	1	9
553.866	1	9
554.036	1	0
554.206	1	18
554.376	1	5
554.546	1	10
554.716	1	5
554.886	1	8
555.056	1	8
555.226	1	2
555.396	1	5
555.566	1	8
555.736	1	9
555.906	1	0
556.076	1	-1
556.246	1	-4
556.416	1	3
556.586	1	2
556.756	1	4
556.926	1	9
557.096	1	5
557.266	1	4
557.436	1	4
557.606	1	0
557.776	1	12
557.946	1	10
558.116	1	7
558.286	1	10
558.456	1	13
558.626	1	4
558.796	1	9
558.966	1	7
559.136	1	10
559.306	1	3
559.476	1	-1
559.646	1	-5
559.816	1	3
559.986	1	1
560.155	1	8
560.325	1	2
560.495	1	-4
560.665	1	0
560.835	1	15
561.005	1	1
561.175	1	4
561.345	1	6
561.515	1	-5
561.685	1	3
561.855	1	-3
562.025	1	3
562.195	1	0
562.365	1	10
562.535	1	2
562.705	1	-6
562.875	1	-2
563.045	1	5
563.215	1	16
563.385	1	-2
563.555	1	-1
563.725	1	5
563.895	1	2
564.064	1	4
564.234	1	1
564.404	1	10
564.574	1	11
564.744	1	14
564.914	1	8
565.084	1	8
565.254	1	10
565.424	1	5
565.594	1	7
565.764	1	5
565.934	1	6
566.104	1	0
566.274	1	0
566.444	1	8
566.614	1	7
566.783	1	7
566.953	1	13
567.123	1	4
567.293	1	5
567.463	1	14
567.633	1	7
567.803	1	2
567.973	1	2
568.143	1	-8
568.313	1	6
568.483	1	15
568.653	1	10
568.823	1	6
568.993	1	9
569.162	1	3
569.332	1	-2
569.502	1	3
569.672	1	11
569.842	1	12
570.012	1	12
570.182	1	3
570.352	1	-2
570.522	1	-4
570.692	1	-3
570.862	1	1
571.031	1	-2
571.201	1	14
571.371	1	-1
571.541	1	9
571.711	1	7
571.881	1	8
572.051	1	3
572.221	1	-3
572.391	1	-2
572.561	1	-1
572.731	1	3
572.900	1	7
573.070	1	5
573.240	1	8
573.410	1	11
573.580	1	6
573.750	1	1
573.920	1	2
574.090	1	0
574.260	1	11
574.430	1	7
574.599	1	0
574.769	1	0
574.939	1	8
575.109	1	16
575.279	1	14
575.449	1	-3
575.619	1	4
575.789	1	-9
575.959	1	-7
576.128	1	0
576.298	1	17
576.468	1	-1
576.638	1	13
576.808	1	2
576.978	1	11
577.148	1	10
577.318	1	9
577.487	1	-8
577.657	1	2
577.827	1	0
577.997	1	-1
578.167	1	0
578.337	1	8
578.507	1	13
578.677	1	8
578.846	1	11
579.016	1	12
579.186	1	-2
579.356	1	3
579.526	1	1
579.696	1	17
579.866	1	2
580.036	1	0
580.205	1	5
580.375	1	11
580.545	1	-4
580.715	1	5
580.885	1	5
581.055	1	5
581.225	1	1
581.394	1	-1
581.564	1	12
581.734	1	-3
581.904	1	13
582.074	1	-4
582.244	1	5
582.414	1	12
582.583	1	18
582.753	1	3
582.923	1	1
583.093	1	10
583.263	1	3
583.433	1	-1
583.603	1	15
583.772	1	9
583.942	1	5
584.112	1	1
584.282	1	-2
584.452	1	12
584.622	1	1
584.791	1	8
584.961	1	8
585.131	1	10
585.301	1	-5
585.471	1	8
585.641	1	3
585.811	1	9
585.980	1	15
586.150	1	-1
586.320	1	6
586.490	1	8
586.660	1	10
586.830	1	7
586.999	1	-1
587.169	1	3
587.339	1	8
587.509	1	-7
587.679	1	9
587.849	1	-1
588.018	1	17
588.188	1	9
588.358	1	9
588.528	1	7
588.698	1	7
588.867	1	7
589.037	1	4
589.207	1	11
589.377	1	4
589.547	1	0
589.717	1	4
589.886	1	-1
590.056	1	-6
590.226	1	6
590.396	1	11
590.566	1	1
590.735	1	3
590.905	1	3
591.075	1	4
591.245	1	10
591.415	1	-7
591.585	1	5
591.754	1	6
591.924	1	5
592.094	1	-1
592.264	1	10
592.434	1	-3
592.603	1	9
592.773	1	8
592.943	1	10
593.113	1	10
593.283	1	1
593.452	1	5
593.622	1	2
593.792	1	7
593.962	1	9
594.132	1	0
594.301	1	13
594.471	1	14
594.641	1	1
594.811	1	4
594.981	1	1
595.150	1	4
595.320	1	7
595.490	1	11
595.660	1	9
595.829	1	-2
595.999	1	2
596.169	1	10
596.339	1	5
596.509	1	14
596.678	1	-2
596.848	1	9
597.018	1	0
597.188	1	6
597.358	1	3
597.527	1	-4
597.697	1	8
597.867	1	2
598.037	1	3
598.206	1	6
598.376	1	9
598.546	1	2
598.716	1	3
598.885	1	-12
599.055	1	1
599.225	1	-5
599.395	1	-2
599.565	1	-2
599.734	1	6
599.904	1	-3
600.074	1	3
600.244	1	0
600.413	1	6
600.583	1	23
600.753	1	-4
600.923	1	-1
601.092	1	10
601.262	1	7
601.432	1	3
601.602	1	13
601.771	1	-2
601.941	1	3
602.111	1	0
602.281	1	8
602.451	1	5
602.620	1	2
602.790	1	3
602.960	1	5
603.130	1	10
603.299	1	4
603.469	1	-7
603.639	1	-10
603.809	1	9
603.978	1	9
604.148	1	5
604.318	1	-4
604.487	1	3
604.657	1	-2
604.827	1	11
604.997	1	4
605.166	1	-1
605.336	1	9
605.506	1	6
605.676	1	-6
605.845	1	-2
606.015	1	3
606.185	1	10
606.355	1	9
606.524	1	10
606.694	1	0
606.864	1	-4
607.034	1	-2
607.203	1	6
607.373	1	1
607.543	1	-2
607.712	1	5
607.882	1	8
608.052	1	3
608.222	1	6
608.391	1	10
608.561	1	8
608.731	1	6
608.901	1	12
609.070	1	9
609.240	1	-2
609.410	1	9
609.579	1	0
609.749	1	6
609.919	1	9
610.089	1	1
610.258	1	11
610.428	1	5
610.598	1	0
610.767	1	2
610.937	1	-1
611.107	1	4
611.277	1	6
611.446	1	12
611.616	1	-2
611.786	1	17
611.955	1	13
612.125	1	1
612.295	1	2
612.465	1	8
612.634	1	11
612.804	1	3
612.974	1	-7
613.143	1	-3
613.313	1	4
613.483	1	0
613.652	1	-2
613.822	1	6
613.992	1	10
614.162	1	10
614.331	1	11
614.501	1	4
614.671	1	-2
614.840	1	-2
615.010	1	-2
615.180	1	1
615.349	1	9
615.519	1	-2
615.689	1	12
615.858	1	8
616.028	1	0
616.198	1	0
616.368	1	-2
616.537	1	2
616.707	1	-8
616.877	1	1
617.046	1	-5
617.216	1	3
617.386	1	7
617.555	1	3
617.725	1	1
617.895	1	7
618.064	1	0
618.234	1	-5
618.404	1	-3
618.573	1	0
618.743	1	10
618.913	1	3
619.082	1	6
619.252	1	8
619.422	1	-8
619.591	1	-7
619.761	1	8
619.931	1	11
620.100	1	7
620.270	1	-16
620.440	1	5
620.609	1	6
620.779	1	1
620.949	1	7
621.118	1	4
621.288	1	7
621.458	1	0
621.627	1	11
621.797	1	-12
621.967	1	-2
622.136	1	11
622.306	1	-3
622.476	1	0
622.645	1	8
622.815	1	11
622.985	1	3
623.154	1	2
623.324	1	-3
623.494	1	19
623.663	1	6
623.833	1	11
624.002	1	-9
624.172	1	1
624.342	1	11
624.511	1	3
624.681	1	2
624.851	1	-8
625.020	1	-1
625.190	1	-2
625.360	1	5
625.529	1	7
625.699	1	-3
625.869	1	9
626.038	1	-3
626.208	1	1
626.377	1	9
626.547	1	7
626.717	1	8
626.886	1	9
627.056	1	-3
627.226	1	13
627.395	1	7
627.565	1	-4
627.735	1	0
627.904	1	0
628.074	1	6
628.243	1	8
628.413	1	7
628.583	1	-1
628.752	1	9
628.922	1	7
629.091	1	0
629.261	1	5
629.431	1	1
629.600	1	4
629.770	1	-1
629.940	1	0
630.109	1	-8
630.279	1	-3
630.448	1	-7
630.618	1	2
630.788	1	16
630.957	1	0
631.127	1	8
631.297	1	2
631.466	1	4
631.636	1	-8
631.805	1	2
631.975	1	13
632.145	1	3
632.314	1	-7
632.484	1	-4
632.653	1	-4
632.823	1	0
632.993	1	-4
633.162	1	5
633.332	1	-12
633.501	1	-1
633.671	1	-6
633.841	1	-3
634.010	1	-6
634.180	1	-4
634.349	1	9
634.519	1	2
634.689	1	0
634.858	1	-1
635.028	1	3
635.197	1	23
635.367	1	4
635.537	1	-2
635.706	1	-3
635.876	1	-2
636.045	1	7
636.215	1	0
636.384	1	3
636.554	1	5
636.724	1	3
636.893	1	-7
637.063	1	2
637.232	1	-3
637.402	1	-5
637.572	1	5
637.741	1	2
637.911	1	8
638.080	1	-4
638.250	1	6
638.419	1	1
638.589	1	-4
638.759	1	0
638.928	1	-6
639.098	1	2
639.267	1	1
639.437	1	5
639.606	1	11
639.776	1	-2
639.946	1	-1
640.115	1	2
640.285	1	6
640.454	1	-1
640.624	1	-1
640.793	1	13
640.963	1	-4
641.132	1	5
641.302	1	0
641.472	1	2
641.641	1	-4
641.811	1	-2
641.980	1	10
642.150	1	-6
642.319	1	-5
642.489	1	9
642.659	1	5
642.828	1	-6
642.998	1	0
643.167	1	-6
643.337	1	10
643.506	1	-6
643.676	1	8
643.845	1	5
644.015	1	6
644.184	1	4
644.354	1	8
644.524	1	5
644.693	1	1
644.863	1	-7
645.032	1	1
645.202	1	3
645.371	1	1
645.541	1	6
645.710	1	8
645.880	1	6
646.049	1	-2
646.219	1	5
646.388	1	-4
646.558	1	-8
646.728	1	4
646.897	1	-3
647.067	1	3
647.236	1	-3
647.406	1	-1
647.575	1	1
647.745	1	5
647.914	1	3
648.084	1	1
648.253	1	16
648.423	1	-6
648.592	1	-3
648.762	1	-1
648.931	1	4
649.101	1	-6
649.270	1	-2
649.440	1	9
649.610	1	2
649.779	1	-12
649.949	1	-3
650.118	1	9
650.288	1	5
650.457	1	6
650.627	1	9
650.796	1	1
650.966	1	4
651.135	1	-4
651.305	1	5
651.474	1	0
651.644	1	7
651.813	1	6
651.983	1	0
652.152	1	3
652.322	1	-6
652.491	1	9
652.661	1	1
652.830	1	6
653.000	1	-3
653.169	1	3
653.339	1	4
653.508	1	3
653.678	1	2
653.847	1	6
654.017	1	0
654.186	1	3
654.356	1	4
654.525	1	-1
654.695	1	9
654.864	1	2
655.034	1	8
655.203	1	-12
655.373	1	9
655.542	1	3
655.712	1	16
655.881	1	6
656.051	1	4
656.220	1	3
656.390	1	-5
656.559	1	-4
656.729	1	13
656.898	1	-12
657.068	1	4
657.237	1	-10
657.406	1	7
657.576	1	-4
657.745	1	0
657.915	1	-1
658.084	1	5
658.254	1	-9
658.423	1	6
658.593	1	3
658.762	1	-3
658.932	1	3
659.101	1	5
659.271	1	7
659.440	1	5
659.610	1	-3
659.779	1	0
659.949	1	-5
660.118	1	9
660.288	1	5
660.457	1	-1
660.626	1	4
660.796	1	-2
660.965	1	5
661.135	1	2
661.304	1	5
661.474	1	8
661.643	1	6
661.813	1	2
661.982	1	10
662.152	1	5
662.321	1	4
662.491	1	-5
662.660	1	5
662.829	1	-8
662.999	1	-11
663.168	1	10
663.338	1	8
663.507	1	7
663.677	1	2
663.846	1	-1
664.016	1	7
664.185	1	4
664.354	1	2
664.524	1	6
664.693	1	10
664.863	1	0
665.032	1	-7
665.202	1	-3
665.371	1	2
665.541	1	-11
665.710	1	-2
665.879	1	-10
666.049	1	0
666.218	1	0
666.388	1	9
666.557	1	0
666.727	1	4
666.896	1	-9
667.065	1	9
667.235	1	7
667.404	1	4
667.574	1	0
667.743	1	3
667.913	1	3
668.082	1	4
668.251	1	-3
668.421	1	0
668.590	1	-3
668.760	1	-5
668.929	1	-13
669.099	1	0
669.268	1	1
669.437	1	2
669.607	1	2
669.776	1	-7
669.946	1	10
670.115	1	-1
670.285	1	0
670.454	1	3
670.623	1	0
670.793	1	2
670.962	1	12
671.132	1	20
671.301	1	1
671.470	1	5
671.640	1	4
671.809	1	-8
671.979	1	-2
672.148	1	4
672.317	1	6
672.487	1	6
672.656	1	-2
672.826	1	-1
672.995	1	10
673.164	1	2
673.334	1	-2
673.503	1	4
673.673	1	4
673.842	1	3
674.011	1	-3
674.181	1	5
674.350	1	7
674.520	1	8
674.689	1	-1
674.858	1	6
675.028	1	-3
675.197	1	-13
675.367	1	3
675.536	1	4
675.705	1	8
675.875	1	3
676.044	1	5
676.214	1	1
676.383	1	4
676.552	1	3
676.722	1	7
676.891	1	7
677.060	1	-4
677.230	1	-3
677.399	1	-3
677.569	1	-2
677.738	1	11
677.907	1	2
678.077	1	9
678.246	1	6
678.416	1	1
678.585	1	3
678.754	1	0
678.924	1	3
679.093	1	11
679.262	1	-5
679.432	1	-4
679.601	1	-5
679.771	1	2
679.940	1	0
680.109	1	14
680.279	1	-6
680.448	1	-4
680.617	1	-4
680.787	1	-7
680.956	1	11
681.125	1	2
681.295	1	4
681.464	1	6
681.634	1	3
681.803	1	2
681.972	1	-12
682.142	1	5
682.311	1	8
682.480	1	14
682.650	1	0
682.819	1	1
682.988	1	0
683.158	1	1
683.327	1	7
683.496	1	-1
683.666	1	3
683.835	1	-5
684.004	1	3
684.174	1	-7
684.343	1	-2
684.512	1	17
684.682	1	-4
684.851	1	9
685.021	1	-5
685.190	1	-1
685.359	1	5
685.529	1	-6
685.698	1	12
685.867	1	4
686.037	1	4
686.206	1	5
686.375	1	7
686.545	1	-10
686.714	1	-4
686.883	1	6
687.053	1	1
687.222	1	8
687.391	1	7
687.561	1	5
687.730	1	0
687.899	1	1
688.069	1	11
688.238	1	14
688.407	1	-2
688.577	1	3
688.746	1	-2
