340.368	1	10
340.539	1	-8
340.710	1	-13
340.881	1	-9
341.052	1	9
341.223	1	-6
341.394	1	-4
341.565	1	-12
341.737	1	3
341.908	1	-6
342.079	1	-7
342.250	1	-7
342.421	1	-5
342.592	1	3
342.763	1	1
342.934	1	-4
343.105	1	3
343.276	1	3
343.447	1	-13
343.618	1	-6
343.789	1	-11
343.960	1	-3
344.131	1	-2
344.302	1	-6
344.473	1	-4
344.644	1	2
344.815	1	-5
344.986	1	0
345.157	1	5
345.328	1	0
345.499	1	0
345.670	1	-1
345.841	1	4
346.012	1	1
346.183	1	-5
346.354	1	-1
346.526	1	-9
346.697	1	4
346.868	1	2
347.039	1	5
347.210	1	-10
347.381	1	0
347.552	1	-8
347.723	1	-2
347.894	1	-7
348.065	1	-2
348.236	1	-1
348.407	1	-6
348.578	1	-4
348.749	1	-7
348.920	1	-4
349.091	1	-3
349.262	1	-12
349.433	1	-1
349.604	1	-1
349.775	1	6
349.946	1	-5
350.117	1	10
350.288	1	6
350.459	1	-5
350.630	1	-5
350.801	1	-5
350.972	1	-4
351.143	1	-2
351.314	1	3
351.485	1	1
351.656	1	8
351.827	1	2
351.998	1	9
352.169	1	0
352.340	1	4
352.511	1	3
352.682	1	1
352.853	1	-5
353.024	1	6
353.195	1	4
353.366	1	12
353.537	1	0
353.708	1	1
353.879	1	3
354.050	1	-11
354.221	1	-4
354.392	1	-10
354.563	1	0
354.734	1	2
354.905	1	9
355.076	1	6
355.247	1	7
355.418	1	-10
355.589	1	-13
355.760	1	-1
355.931	1	-1
356.102	1	9
356.273	1	-1
356.444	1	7
356.615	1	-6
356.785	1	7
356.956	1	3
357.127	1	3
357.298	1	-3
357.469	1	-3
357.640	1	-4
357.811	1	2
357.982	1	-7
358.153	1	6
358.324	1	-9
358.495	1	2
358.666	1	4
358.837	1	-8
359.008	1	-5
359.179	1	-3
359.350	1	-3
359.521	1	3
359.692	1	-1
359.863	1	-2
360.034	1	5
360.205	1	-4
360.376	1	6
360.547	1	2
360.718	1	-3
360.889	1	-8
361.060	1	-1
361.231	1	-8
361.401	1	7
361.572	1	0
361.743	1	-7
361.914	1	-1
362.085	1	7
362.256	1	7
362.427	1	8
362.598	1	-3
362.769	1	-1
362.940	1	1
363.111	1	3
363.282	1	5
363.453	1	-10
363.624	1	-4
363.795	1	7
363.966	1	3
364.137	1	4
364.308	1	5
364.478	1	0
364.649	1	4
364.820	1	3
364.991	1	6
365.162	1	9
365.333	1	6
365.504	1	1
365.675	1	-4
365.846	1	9
366.017	1	3
366.188	1	6
366.359	1	10
366.530	1	9
366.701	1	9
366.871	1	3
367.042	1	7
367.213	1	15
367.384	1	13
367.555	1	0
367.726	1	9
367.897	1	10
368.068	1	11
368.239	1	12
368.410	1	18
368.581	1	2
368.752	1	-9
368.923	1	7
369.093	1	0
369.264	1	11
369.435	1	8
369.606	1	8
369.777	1	11
369.948	1	16
370.119	1	6
370.290	1	9
370.461	1	13
370.632	1	10
370.803	1	6
370.973	1	6
371.144	1	12
371.315	1	11
371.486	1	9
371.657	1	12
371.828	1	15
371.999	1	2
372.170	1	13
372.341	1	-5
372.512	1	1
372.682	1	6
372.853	1	10
373.024	1	12
373.195	1	3
373.366	1	4
373.537	1	4
373.708	1	-9
373.879	1	8
374.050	1	1
374.220	1	12
374.391	1	6
374.562	1	10
374.733	1	0
374.904	1	5
375.075	1	0
375.246	1	5
375.417	1	3
375.588	1	0
375.758	1	8
375.929	1	8
376.100	1	8
376.271	1	1
376.442	1	-1
376.613	1	-2
376.784	1	9
376.955	1	-1
377.125	1	5
377.296	1	0
377.467	1	-1
377.638	1	1
377.809	1	9
377.980	1	2
378.151	1	8
378.321	1	-1
378.492	1	-1
378.663	1	0
378.834	1	4
379.005	1	7
379.176	1	-3
379.347	1	7
379.518	1	0
379.688	1	11
379.859	1	-2
380.030	1	1
380.201	1	7
380.372	1	0
380.543	1	5
380.714	1	5
380.884	1	4
381.055	1	9
381.226	1	-6
381.397	1	-2
381.568	1	5
381.739	1	10
381.910	1	7
382.080	1	1
382.251	1	-4
382.422	1	-2
382.593	1	1
382.764	1	-7
382.935	1	-7
383.105	1	-2
383.276	1	4
383.447	1	-3
383.618	1	0
383.789	1	-9
383.960	1	-3
384.130	1	-6
384.301	1	8
384.472	1	0
384.643	1	6
384.814	1	-1
384.985	1	-1
385.156	1	1
385.326	1	9
385.497	1	-2
385.668	1	1
385.839	1	5
386.010	1	0
386.180	1	-2
386.351	1	2
386.522	1	4
386.693	1	-12
386.864	1	3
387.035	1	1
387.205	1	-4
387.376	1	7
387.547	1	-8
387.718	1	5
387.889	1	-7
388.060	1	10
388.230	1	-2
388.401	1	-7
388.572	1	-12
388.743	1	8
388.914	1	0
389.084	1	7
389.255	1	-3
389.426	1	3
389.597	1	17
389.768	1	0
389.939	1	-2
390.109	1	-8
390.280	1	-1
390.451	1	-4
390.622	1	1
390.793	1	-6
390.963	1	9
391.134	1	8
391.305	1	2
391.476	1	4
391.647	1	-2
391.817	1	-3
391.988	1	2
392.159	1	0
392.330	1	4
392.501	1	-12
392.671	1	-4
392.842	1	1
393.013	1	-3
393.184	1	8
393.355	1	10
393.525	1	3
393.696	1	3
393.867	1	-7
394.038	1	-7
394.208	1	0
394.379	1	9
394.550	1	14
394.721	1	0
394.892	1	2
395.062	1	8
395.233	1	2
395.404	1	-9
395.575	1	8
395.746	1	6
395.916	1	5
396.087	1	-4
396.258	1	4
396.429	1	-3
396.599	1	-3
396.770	1	-5
396.941	1	3
397.112	1	0
397.283	1	-1
397.453	1	2
397.624	1	-5
397.795	1	1
397.966	1	11
398.136	1	-13
398.307	1	-7
398.478	1	4
398.649	1	-8
398.819	1	-4
398.990	1	-1
399.161	1	17
399.332	1	5
399.503	1	6
399.673	1	5
399.844	1	4
400.015	1	-7
400.186	1	-4
400.356	1	-12
400.527	1	-4
400.698	1	0
400.869	1	-1
401.039	1	4
401.210	1	-6
401.381	1	-1
401.552	1	-5
401.722	1	8
401.893	1	-1
402.064	1	-2
402.235	1	0
402.405	1	5
402.576	1	-1
402.747	1	-9
402.918	1	7
403.088	1	4
403.259	1	8
403.430	1	-9
403.601	1	-3
403.771	1	-3
403.942	1	12
404.113	1	-7
404.284	1	3
404.454	1	3
404.625	1	9
404.796	1	8
404.967	1	3
405.137	1	5
405.308	1	-5
405.479	1	4
405.649	1	0
405.820	1	-6
405.991	1	-4
406.162	1	4
406.332	1	1
406.503	1	7
406.674	1	-6
406.845	1	3
407.015	1	1
407.186	1	0
407.357	1	0
407.527	1	-9
407.698	1	12
407.869	1	-4
408.040	1	-5
408.210	1	-5
408.381	1	2
408.552	1	-7
408.722	1	-10
408.893	1	5
409.064	1	-2
409.235	1	2
409.405	1	5
409.576	1	1
409.747	1	-3
409.917	1	-1
410.088	1	-1
410.259	1	-9
410.430	1	1
410.600	1	-1
410.771	1	8
410.942	1	6
411.112	1	6
411.283	1	1
411.454	1	-6
411.625	1	4
411.795	1	-5
411.966	1	1
412.137	1	3
412.307	1	3
412.478	1	4
412.649	1	2
412.819	1	-7
412.990	1	3
413.161	1	-3
413.332	1	-4
413.502	1	1
413.673	1	0
413.844	1	-7
414.014	1	-3
414.185	1	3
414.356	1	3
414.526	1	0
414.697	1	9
414.868	1	-5
415.038	1	3
415.209	1	-3
415.380	1	4
415.550	1	-8
415.721	1	-4
415.892	1	-11
416.063	1	-2
416.233	1	1
416.404	1	0
416.575	1	12
416.745	1	2
416.916	1	-3
417.087	1	5
417.257	1	-11
417.428	1	-4
417.599	1	1
417.769	1	7
417.940	1	1
418.111	1	-4
418.281	1	3
418.452	1	-4
418.623	1	-7
418.793	1	-6
418.964	1	-11
419.135	1	-6
419.305	1	-1
419.476	1	2
419.647	1	-6
419.817	1	0
419.988	1	1
420.159	1	-2
420.329	1	-6
420.500	1	-1
420.671	1	-4
420.841	1	15
421.012	1	-8
421.183	1	-2
421.353	1	-2
421.524	1	-8
421.695	1	-6
421.865	1	-4
422.036	1	2
422.206	1	1
422.377	1	-5
422.548	1	-15
422.718	1	-6
422.889	1	-5
423.060	1	-4
423.230	1	-7
423.401	1	-10
423.572	1	-15
423.742	1	-2
423.913	1	-4
424.084	1	0
424.254	1	-2
424.425	1	6
424.595	1	0
424.766	1	-5
424.937	1	0
425.107	1	-7
425.278	1	9
425.449	1	8
425.619	1	-2
425.790	1	-5
425.961	1	-4
426.131	1	-6
426.302	1	-3
426.472	1	3
426.643	1	2
426.814	1	3
426.984	1	2
427.155	1	-3
427.326	1	6
427.496	1	-4
427.667	1	4
427.837	1	0
428.008	1	4
428.179	1	-10
428.349	1	-14
428.520	1	3
428.691	1	18
428.861	1	-5
429.032	1	0
429.202	1	0
429.373	1	2
429.544	1	-3
429.714	1	0
429.885	1	-2
430.055	1	10
430.226	1	-9
430.397	1	3
430.567	1	4
430.738	1	7
430.909	1	-4
431.079	1	-9
431.250	1	-7
431.420	1	-2
431.591	1	4
431.762	1	5
431.932	1	-6
432.103	1	0
432.273	1	-11
432.444	1	-6
432.615	1	-12
432.785	1	-7
432.956	1	-17
433.126	1	-6
433.297	1	3
433.468	1	-12
433.638	1	-6
433.809	1	7
433.979	1	2
434.150	1	9
434.320	1	4
434.491	1	-7
434.662	1	5
434.832	1	1
435.003	1	-2
435.173	1	-7
435.344	1	2
435.515	1	0
435.685	1	1
435.856	1	4
436.026	1	9
436.197	1	-3
436.368	1	-2
436.538	1	-17
436.709	1	2
436.879	1	3
437.050	1	-3
437.220	1	-3
437.391	1	12
437.562	1	4
437.732	1	-3
437.903	1	-12
438.073	1	-1
438.244	1	5
438.414	1	-12
438.585	1	2
438.756	1	-9
438.926	1	1
439.097	1	-5
439.267	1	5
439.438	1	-7
439.608	1	-5
439.779	1	-4
439.949	1	12
440.120	1	0
440.291	1	7
440.461	1	1
440.632	1	4
440.802	1	-5
440.973	1	-3
441.143	1	8
441.314	1	-4
441.485	1	-1
441.655	1	5
441.826	1	2
441.996	1	-3
442.167	1	0
442.337	1	0
442.508	1	-7
442.678	1	-10
442.849	1	7
443.019	1	8
443.190	1	3
443.361	1	6
443.531	1	6
443.702	1	-6
443.872	1	10
444.043	1	2
444.213	1	2
444.384	1	-13
444.554	1	15
444.725	1	-6
444.895	1	-4
445.066	1	-8
445.237	1	-6
445.407	1	9
445.578	1	-9
445.748	1	-6
445.919	1	-1
446.089	1	7
446.260	1	-11
446.430	1	-7
446.601	1	-7
446.771	1	9
446.942	1	-5
447.112	1	-8
447.283	1	-1
447.453	1	-11
447.624	1	-4
447.794	1	-16
447.965	1	-4
448.135	1	1
448.306	1	-3
448.477	1	5
448.647	1	-2
448.818	1	3
448.988	1	-5
449.159	1	1
449.329	1	-6
449.500	1	6
449.670	1	-5
449.841	1	3
450.011	1	2
450.182	1	-9
450.352	1	-8
450.523	1	-11
450.693	1	-5
450.864	1	-1
451.034	1	2
451.205	1	4
451.375	1	8
451.546	1	0
451.716	1	-8
451.887	1	-18
452.057	1	-4
452.228	1	7
452.398	1	5
452.569	1	1
452.739	1	3
452.910	1	-8
453.080	1	5
453.251	1	2
453.421	1	-3
453.592	1	-1
453.762	1	5
453.933	1	-7
454.103	1	-1
454.274	1	-5
454.444	1	-5
454.615	1	19
454.785	1	-2
454.956	1	-4
455.126	1	-2
455.297	1	1
455.467	1	-2
455.638	1	0
455.808	1	-5
455.979	1	-3
456.149	1	-4
456.320	1	-1
456.490	1	-11
456.661	1	4
456.831	1	0
457.001	1	-9
457.172	1	-7
457.342	1	-5
457.513	1	5
457.683	1	-6
457.854	1	1
458.024	1	-2
458.195	1	-6
458.365	1	-2
458.536	1	2
458.706	1	-6
458.877	1	3
459.047	1	6
459.218	1	0
459.388	1	3
459.559	1	5
459.729	1	-1
459.899	1	2
460.070	1	0
460.240	1	8
460.411	1	-8
460.581	1	15
460.752	1	5
460.922	1	5
461.093	1	4
461.263	1	-14
461.434	1	5
461.604	1	-9
461.775	1	-2
461.945	1	1
462.115	1	-3
462.286	1	1
462.456	1	-6
462.627	1	7
462.797	1	1
462.968	1	0
463.138	1	0
463.309	1	-9
463.479	1	-10
463.649	1	-4
463.820	1	-3
463.990	1	-10
464.161	1	-10
464.331	1	-9
464.502	1	6
464.672	1	-6
464.843	1	-5
465.013	1	-1
465.183	1	-11
465.354	1	-11
465.524	1	-2
465.695	1	-6
465.865	1	-3
466.036	1	-8
466.206	1	3
466.376	1	-8
466.547	1	-7
466.717	1	0
466.888	1	3
467.058	1	1
467.229	1	-3
467.399	1	4
467.569	1	3
467.740	1	-3
467.910	1	7
468.081	1	-4
468.251	1	-8
468.422	1	4
468.592	1	-1
468.762	1	-6
468.933	1	-1
469.103	1	3
469.274	1	-4
469.444	1	-15
469.614	1	-1
469.785	1	-16
469.955	1	6
470.126	1	-8
470.296	1	-4
470.467	1	-5
470.637	1	7
470.807	1	-2
470.978	1	-7
471.148	1	-9
471.319	1	-3
471.489	1	0
471.659	1	-8
471.830	1	-4
472.000	1	-9
472.171	1	-3
472.341	1	0
472.511	1	-5
472.682	1	-6
472.852	1	-8
473.023	1	3
473.193	1	2
473.363	1	5
473.534	1	3
473.704	1	-7
473.875	1	4
474.045	1	-8
474.215	1	18
474.386	1	5
474.556	1	-2
474.727	1	1
474.897	1	0
475.067	1	-2
475.238	1	1
475.408	1	4
475.578	1	-11
475.749	1	-2
475.919	1	0
476.090	1	4
476.260	1	1
476.430	1	3
476.601	1	6
476.771	1	-11
476.942	1	7
477.112	1	-6
477.282	1	-4
477.453	1	-9
477.623	1	-2
477.793	1	-7
477.964	1	-3
478.134	1	-2
478.305	1	2
478.475	1	-2
478.645	1	9
478.816	1	-3
478.986	1	3
479.156	1	2
479.327	1	-11
479.497	1	-2
479.667	1	-6
479.838	1	0
480.008	1	-4
480.179	1	5
480.349	1	-3
480.519	1	3
480.690	1	0
480.860	1	-1
481.030	1	-4
481.201	1	-3
481.371	1	7
481.541	1	-5
481.712	1	9
481.882	1	9
482.053	1	-4
482.223	1	1
482.393	1	-3
482.564	1	4
482.734	1	-10
482.904	1	-13
483.075	1	-12
483.245	1	4
483.415	1	-5
483.586	1	-10
483.756	1	3
483.926	1	-1
484.097	1	-1
484.267	1	-5
484.437	1	-2
484.608	1	-3
484.778	1	5
484.948	1	-7
485.119	1	3
485.289	1	-6
485.459	1	12
485.630	1	0
485.800	1	-4
485.970	1	-11
486.141	1	-6
486.311	1	2
486.481	1	9
486.652	1	5
486.822	1	4
486.992	1	1
487.163	1	-7
487.333	1	-2
487.503	1	-4
487.674	1	-2
487.844	1	-3
488.014	1	3
488.185	1	-4
488.355	1	-5
488.525	1	6
488.696	1	-4
488.866	1	-1
489.036	1	4
489.207	1	-3
489.377	1	-5
489.547	1	1
489.718	1	2
489.888	1	-8
490.058	1	-5
490.228	1	-2
490.399	1	-5
490.569	1	5
490.739	1	-3
490.910	1	-7
491.080	1	5
491.250	1	-2
491.421	1	-12
491.591	1	-4
491.761	1	-9
491.932	1	-2
492.102	1	-9
492.272	1	2
492.442	1	-2
492.613	1	0
492.783	1	13
492.953	1	7
493.124	1	-2
493.294	1	-8
493.464	1	11
493.635	1	-6
493.805	1	-4
493.975	1	-3
494.145	1	1
494.316	1	-6
494.486	1	2
494.656	1	-4
494.827	1	-1
494.997	1	0
495.167	1	3
495.337	1	2
495.508	1	-2
495.678	1	-2
495.848	1	9
496.019	1	-3
496.189	1	-3
496.359	1	-6
496.529	1	4
496.700	1	0
496.870	1	-3
497.040	1	-3
497.211	1	-2
497.381	1	-9
497.551	1	6
497.721	1	0
497.892	1	0
498.062	1	3
498.232	1	-4
498.403	1	-1
498.573	1	-13
498.743	1	-2
498.913	1	1
499.084	1	1
499.254	1	-2
499.424	1	-7
499.594	1	11
499.765	1	-4
499.935	1	2
500.105	1	-12
500.275	1	-6
500.446	1	-9
500.616	1	-5
500.786	1	1
500.956	1	2
501.127	1	-5
501.297	1	-1
501.467	1	-13
501.638	1	-4
501.808	1	-3
501.978	1	5
502.148	1	3
502.319	1	-5
502.489	1	-1
502.659	1	-1
502.829	1	-1
503.000	1	-1
503.170	1	4
503.340	1	8
503.510	1	1
503.681	1	-12
503.851	1	-5
504.021	1	2
504.191	1	1
504.362	1	-3
504.532	1	4
504.702	1	-6
504.872	1	-3
505.042	1	-5
505.213	1	7
505.383	1	-5
505.553	1	-5
505.723	1	-4
505.894	1	-9
506.064	1	7
506.234	1	5
506.404	1	10
506.575	1	-5
506.745	1	4
506.915	1	5
507.085	1	-6
507.256	1	1
507.426	1	5
507.596	1	-1
507.766	1	-6
507.936	1	1
508.107	1	-7
508.277	1	-1
508.447	1	3
508.617	1	-3
508.788	1	22
508.958	1	-14
509.128	1	0
509.298	1	8
509.468	1	-6
509.639	1	-9
509.809	1	0
509.979	1	-3
510.149	1	7
510.319	1	-4
510.490	1	-1
510.660	1	-1
510.830	1	1
511.000	1	-9
511.171	1	-3
511.341	1	-5
511.511	1	4
511.681	1	4
511.851	1	-3
512.022	1	0
512.192	1	2
512.362	1	-6
512.532	1	-5
512.702	1	-1
512.873	1	7
513.043	1	8
513.213	1	-8
513.383	1	-7
513.553	1	-5
513.724	1	8
513.894	1	-13
514.064	1	6
514.234	1	1
514.404	1	-5
514.575	1	6
514.745	1	-4
514.915	1	6
515.085	1	-1
515.255	1	-1
515.425	1	-7
515.596	1	4
515.766	1	-16
515.936	1	-8
516.106	1	-3
516.276	1	-8
516.447	1	10
516.617	1	1
516.787	1	-2
516.957	1	-2
517.127	1	-5
517.297	1	-13
517.468	1	-6
517.638	1	3
517.808	1	-6
517.978	1	5
518.148	1	4
518.319	1	-9
518.489	1	-8
518.659	1	-7
518.829	1	3
518.999	1	5
519.169	1	1
519.340	1	5
519.510	1	2
519.680	1	4
519.850	1	8
520.020	1	5
520.190	1	-3
520.361	1	-2
520.531	1	1
520.701	1	-7
520.871	1	3
521.041	1	5
521.211	1	-6
521.382	1	-3
521.552	1	-4
521.722	1	4
521.892	1	1
522.062	1	-4
522.232	1	-5
522.402	1	-1
522.573	1	-7
522.743	1	4
522.913	1	11
523.083	1	4
523.253	1	-8
523.423	1	4
523.593	1	-4
523.764	1	-6
523.934	1	-1
524.104	1	7
524.274	1	-1
524.444	1	-2
524.614	1	7
524.784	1	-3
524.955	1	-6
525.125	1	5
525.295	1	-8
525.465	1	-1
525.635	1	-4
525.805	1	-1
525.975	1	-5
526.146	1	-8
526.316	1	12
526.486	1	0
526.656	1	4
526.826	1	1
526.996	1	8
527.166	1	-8
527.337	1	0
527.507	1	0
527.677	1	5
527.847	1	7
528.017	1	-12
528.187	1	0
528.357	1	0
528.527	1	11
528.698	1	-3
528.868	1	1
529.038	1	1
529.208	1	-5
529.378	1	-6
529.548	1	-10
529.718	1	0
529.888	1	4
530.058	1	-3
530.229	1	7
530.399	1	13
530.569	1	-15
530.739	1	-1
530.909	1	-2
531.079	1	9
531.249	1	-9
531.419	1	11
531.589	1	2
531.760	1	2
531.930	1	4
532.100	1	5
532.270	1	1
532.440	1	0
532.610	1	-4
532.780	1	-5
532.950	1	1
533.120	1	12
533.290	1	-7
533.461	1	2
533.631	1	4
533.801	1	8
533.971	1	-11
534.141	1	-11
534.311	1	1
534.481	1	-12
534.651	1	-4
534.821	1	7
534.991	1	-8
535.162	1	3
535.332	1	-5
535.502	1	-5
535.672	1	0
535.842	1	7
536.012	1	6
536.182	1	-2
536.352	1	1
536.522	1	-3
536.692	1	-2
536.862	1	9
537.032	1	6
537.203	1	-9
537.373	1	-7
537.543	1	4
537.713	1	1
537.883	1	4
538.053	1	-4
538.223	1	0
538.393	1	9
538.563	1	5
538.733	1	3
538.903	1	-10
539.073	1	3
539.243	1	-4
539.413	1	3
539.584	1	-5
539.754	1	-1
539.924	1	11
540.094	1	-6
540.264	1	2
540.434	1	-1
540.604	1	5
540.774	1	1
540.944	1	-10
541.114	1	-7
541.284	1	5
541.454	1	3
541.624	1	0
541.794	1	1
541.964	1	4
542.134	1	11
542.305	1	4
542.475	1	3
542.645	1	0
542.815	1	-4
542.985	1	8
543.155	1	5
543.325	1	2
543.495	1	4
543.665	1	11
543.835	1	4
544.005	1	-3
544.175	1	-4
544.345	1	7
544.515	1	-10
544.685	1	2
544.855	1	-2
545.025	1	-5
545.195	1	-13
545.365	1	-5
545.535	1	5
545.705	1	-4
545.875	1	-19
546.045	1	-4
546.216	1	1
546.386	1	8
546.556	1	-6
546.726	1	1
546.896	1	-3
547.066	1	1
547.236	1	5
547.406	1	7
547.576	1	10
547.746	1	-17
547.916	1	-8
548.086	1	7
548.256	1	-10
548.426	1	-9
548.596	1	-5
548.766	1	3
548.936	1	4
549.106	1	2
549.276	1	-4
549.446	1	-6
549.616	1	-12
549.786	1	-5
549.956	1	7
550.126	1	21
550.296	1	4
550.466	1	-9
550.636	1	3
550.806	1	-5
550.976	1	-2
551.146	1	-4
551.316	1	1
551.486	1	0
551.656	1	-7
551.826	1	5
551.996	1	18
552.166	1	4
552.336	1	-3
552.506	1	3
552.676	1	8
552.846	1	9
553.016	1	-1
553.186	1	4
553.356	1	1
553.526	1	-2
553.696	1	2
553.866	1	-6
554.036	1	-3
554.206	1	3
554.376	1	6
554.546	1	3
554.716	1	1
554.886	1	0
555.056	1	-6
555.226	1	-9
555.396	1	-1
555.566	1	-3
555.736	1	0
555.906	1	-5
556.076	1	-7
556.246	1	3
556.416	1	-7
556.586	1	5
556.756	1	-3
556.926	1	-5
557.096	1	-3
557.266	1	-10
557.436	1	-1
557.606	1	7
557.776	1	-5
557.946	1	7
558.116	1	-2
558.286	1	3
558.456	1	2
558.626	1	4
558.796	1	4
558.966	1	1
559.136	1	8
559.306	1	-7
559.476	1	-4
559.646	1	-5
559.816	1	-6
559.986	1	-5
560.155	1	13
560.325	1	3
560.495	1	-3
560.665	1	-4
560.835	1	7
561.005	1	-9
561.175	1	1
561.345	1	-2
561.515	1	-2
561.685	1	4
561.855	1	-8
562.025	1	6
562.195	1	3
562.365	1	0
562.535	1	-5
562.705	1	0
562.875	1	-4
563.045	1	-9
563.215	1	7
563.385	1	-7
563.555	1	-4
563.725	1	4
563.895	1	10
564.064	1	-1
564.234	1	-6
564.404	1	7
564.574	1	5
564.744	1	-1
564.914	1	-4
565.084	1	-5
565.254	1	11
565.424	1	-9
565.594	1	0
565.764	1	-4
565.934	1	5
566.104	1	-4
566.274	1	-1
566.444	1	-1
566.614	1	-6
566.783	1	-7
566.953	1	-1
567.123	1	-3
567.293	1	12
567.463	1	6
567.633	1	11
567.803	1	-8
567.973	1	-3
568.143	1	-5
568.313	1	2
568.483	1	1
568.653	1	-5
568.823	1	5
568.993	1	6
569.162	1	9
569.332	1	1
569.502	1	-7
569.672	1	0
569.842	1	4
570.012	1	3
570.182	1	-1
570.352	1	0
570.522	1	-9
570.692	1	4
570.862	1	-4
571.031	1	-2
571.201	1	-1
571.371	1	-4
571.541	1	0
571.711	1	-6
571.881	1	12
572.051	1	-5
572.221	1	-2
572.391	1	-9
572.561	1	-11
572.731	1	4
572.900	1	-2
573.070	1	2
573.240	1	-6
573.410	1	7
573.580	1	2
573.750	1	1
573.920	1	5
574.090	1	-8
574.260	1	5
574.430	1	-2
574.599	1	9
574.769	1	-4
574.939	1	4
575.109	1	9
575.279	1	3
575.449	1	-6
575.619	1	-5
575.789	1	-2
575.959	1	-1
576.128	1	-11
576.298	1	3
576.468	1	-7
576.638	1	-8
576.808	1	3
576.978	1	10
577.148	1	6
577.318	1	3
577.487	1	-3
577.657	1	-4
577.827	1	-3
577.997	1	-8
578.167	1	-7
578.337	1	5
578.507	1	5
578.677	1	0
578.846	1	2
579.016	1	5
579.186	1	4
579.356	1	-3
579.526	1	-11
579.696	1	5
579.866	1	1
580.036	1	4
580.205	1	2
580.375	1	5
580.545	1	-5
580.715	1	-3
580.885	1	-7
581.055	1	-3
581.225	1	4
581.394	1	1
581.564	1	2
581.734	1	-2
581.904	1	8
582.074	1	-8
582.244	1	-10
582.414	1	9
582.583	1	5
582.753	1	-9
582.923	1	-3
583.093	1	2
583.263	1	-1
583.433	1	1
583.603	1	8
583.772	1	6
583.942	1	-7
584.112	1	-3
584.282	1	-2
584.452	1	0
584.622	1	-6
584.791	1	-11
584.961	1	10
585.131	1	-3
585.301	1	-1
585.471	1	7
585.641	1	-5
585.811	1	3
585.980	1	-2
586.150	1	0
586.320	1	-8
586.490	1	5
586.660	1	1
586.830	1	-9
586.999	1	4
587.169	1	8
587.339	1	-3
587.509	1	-3
587.679	1	-2
587.849	1	0
588.018	1	3
588.188	1	5
588.358	1	-1
588.528	1	1
588.698	1	4
588.867	1	-1
589.037	1	1
589.207	1	3
589.377	1	4
589.547	1	3
589.717	1	0
589.886	1	-2
590.056	1	-13
590.226	1	6
590.396	1	-2
590.566	1	1
590.735	1	-4
590.905	1	-2
591.075	1	5
591.245	1	0
591.415	1	-4
591.585	1	3
591.754	1	-2
591.924	1	6
592.094	1	3
592.264	1	9
592.434	1	-5
592.603	1	-7
592.773	1	7
592.943	1	-6
593.113	1	1
593.283	1	-7
593.452	1	-8
593.622	1	2
593.792	1	10
593.962	1	9
594.132	1	0
594.301	1	10
594.471	1	7
594.641	1	-11
594.811	1	-9
594.981	1	-7
595.150	1	-2
595.320	1	-1
595.490	1	9
595.660	1	3
595.829	1	-4
595.999	1	-5
596.169	1	1
596.339	1	11
596.509	1	1
596.678	1	-4
596.848	1	0
597.018	1	-3
597.188	1	2
597.358	1	0
597.527	1	-8
597.697	1	2
597.867	1	-4
598.037	1	0
598.206	1	-4
598.376	1	5
598.546	1	2
598.716	1	-2
598.885	1	-8
599.055	1	6
599.225	1	-3
599.395	1	-5
599.565	1	-9
599.734	1	-4
599.904	1	0
600.074	1	0
600.244	1	-4
600.413	1	10
600.583	1	11
600.753	1	8
600.923	1	-6
601.092	1	14
601.262	1	4
601.432	1	-13
601.602	1	3
601.771	1	4
601.941	1	-4
602.111	1	4
602.281	1	3
602.451	1	9
602.620	1	-6
602.790	1	-5
602.960	1	2
603.130	1	2
603.299	1	4
603.469	1	-10
603.639	1	-5
603.809	1	-7
603.978	1	1
604.148	1	5
604.318	1	1
604.487	1	-12
604.657	1	-5
604.827	1	-3
604.997	1	-10
605.166	1	2
605.336	1	10
605.506	1	7
605.676	1	-12
605.845	1	-3
606.015	1	-1
606.185	1	6
606.355	1	-2
606.524	1	-3
606.694	1	-4
606.864	1	-5
607.034	1	-3
607.203	1	9
607.373	1	7
607.543	1	-6
607.712	1	-14
607.882	1	4
608.052	1	-7
608.222	1	1
608.391	1	-2
608.561	1	-5
608.731	1	-7
608.901	1	0
609.070	1	6
609.240	1	-4
609.410	1	7
609.579	1	6
609.749	1	3
609.919	1	2
610.089	1	6
610.258	1	13
610.428	1	0
610.598	1	-9
610.767	1	-1
610.937	1	7
611.107	1	1
611.277	1	-2
611.446	1	10
611.616	1	-3
611.786	1	6
611.955	1	-2
612.125	1	8
612.295	1	-10
612.465	1	-1
612.634	1	-2
612.804	1	9
612.974	1	-8
613.143	1	-2
613.313	1	3
613.483	1	4
613.652	1	-1
613.822	1	-3
613.992	1	-5
614.162	1	9
614.331	1	1
614.501	1	-3
614.671	1	8
614.840	1	4
615.010	1	1
615.180	1	-8
615.349	1	10
615.519	1	-8
615.689	1	2
615.858	1	2
616.028	1	-2
616.198	1	10
616.368	1	-3
616.537	1	8
616.707	1	-4
616.877	1	-3
617.046	1	-14
617.216	1	-5
617.386	1	5
617.555	1	12
617.725	1	-4
617.895	1	10
618.064	1	-3
618.234	1	3
618.404	1	-1
618.573	1	-6
618.743	1	10
618.913	1	-6
619.082	1	-6
619.252	1	5
619.422	1	-15
619.591	1	-3
619.761	1	1
619.931	1	7
620.100	1	9
620.270	1	-8
620.440	1	0
620.609	1	0
620.779	1	-15
620.949	1	2
621.118	1	-3
621.288	1	0
621.458	1	-2
621.627	1	7
621.797	1	-9
621.967	1	-6
622.136	1	14
622.306	1	-3
622.476	1	3
622.645	1	1
622.815	1	14
622.985	1	7
623.154	1	-1
623.324	1	-3
623.494	1	-3
623.663	1	-6
623.833	1	2
624.002	1	-10
624.172	1	3
624.342	1	9
624.511	1	2
624.681	1	4
624.851	1	-4
625.020	1	-1
625.190	1	2
625.360	1	3
625.529	1	-7
625.699	1	-6
625.869	1	0
626.038	1	-1
626.208	1	4
626.377	1	1
626.547	1	-4
626.717	1	-5
626.886	1	5
627.056	1	-6
627.226	1	1
627.395	1	-2
627.565	1	-7
627.735	1	3
627.904	1	3
628.074	1	4
628.243	1	10
628.413	1	-2
628.583	1	-8
628.752	1	2
628.922	1	7
629.091	1	-4
629.261	1	4
629.431	1	-3
629.600	1	4
629.770	1	-13
629.940	1	5
630.109	1	-14
630.279	1	0
630.448	1	-8
630.618	1	-2
630.788	1	1
630.957	1	6
631.127	1	5
631.297	1	1
631.466	1	0
631.636	1	-11
631.805	1	3
631.975	1	6
632.145	1	-2
632.314	1	-10
632.484	1	-5
632.653	1	3
632.823	1	4
632.993	1	-8
633.162	1	7
633.332	1	1
633.501	1	0
633.671	1	-9
633.841	1	-5
634.010	1	-1
634.180	1	4
634.349	1	3
634.519	1	-3
634.689	1	6
634.858	1	-10
635.028	1	0
635.197	1	5
635.367	1	-3
635.537	1	-7
635.706	1	-3
635.876	1	1
636.045	1	8
636.215	1	3
636.384	1	2
636.554	1	1
636.724	1	2
636.893	1	-2
637.063	1	3
637.232	1	-9
637.402	1	2
637.572	1	-1
637.741	1	7
637.911	1	-2
638.080	1	0
638.250	1	-2
638.419	1	-5
638.589	1	-9
638.759	1	-9
638.928	1	-3
639.098	1	4
639.267	1	8
639.437	1	-9
639.606	1	3
639.776	1	-2
639.946	1	2
640.115	1	-3
640.285	1	9
640.454	1	-1
640.624	1	3
640.793	1	7
640.963	1	-5
641.132	1	0
641.302	1	-3
641.472	1	6
641.641	1	-4
641.811	1	4
641.980	1	-7
642.150	1	-16
642.319	1	-8
642.489	1	3
642.659	1	9
642.828	1	1
642.998	1	2
643.167	1	-5
643.337	1	-5
643.506	1	-2
643.676	1	-6
643.845	1	-2
644.015	1	0
644.184	1	7
644.354	1	3
644.524	1	-3
644.693	1	4
644.863	1	-6
645.032	1	-2
645.202	1	2
645.371	1	1
645.541	1	-2
645.710	1	5
645.880	1	-5
646.049	1	-8
646.219	1	0
646.388	1	-2
646.558	1	5
646.728	1	-1
646.897	1	-2
647.067	1	-15
647.236	1	-5
647.406	1	-3
647.575	1	5
647.745	1	-8
647.914	1	-6
648.084	1	-4
648.253	1	4
648.423	1	-12
648.592	1	-3
648.762	1	-3
648.931	1	15
649.101	1	-4
649.270	1	-2
649.440	1	10
649.610	1	3
649.779	1	-1
649.949	1	-8
650.118	1	16
650.288	1	-3
650.457	1	4
650.627	1	0
650.796	1	3
650.966	1	7
651.135	1	-8
651.305	1	-4
651.474	1	-15
651.644	1	16
651.813	1	1
651.983	1	6
652.152	1	10
652.322	1	-10
652.491	1	0
652.661	1	5
652.830	1	6
653.000	1	0
653.169	1	-3
653.339	1	7
653.508	1	-1
653.678	1	-4
653.847	1	9
654.017	1	-3
654.186	1	1
654.356	1	2
654.525	1	-6
654.695	1	3
654.864	1	-8
655.034	1	2
655.203	1	-4
655.373	1	16
655.542	1	1
655.712	1	0
655.881	1	-12
656.051	1	-3
656.220	1	-3
656.390	1	-12
656.559	1	-8
656.729	1	9
656.898	1	-7
657.068	1	9
657.237	1	-10
657.406	1	6
657.576	1	9
657.745	1	0
657.915	1	-5
658.084	1	1
658.254	1	-11
658.423	1	1
658.593	1	6
658.762	1	0
658.932	1	-6
659.101	1	7
659.271	1	3
659.440	1	1
659.610	1	4
659.779	1	4
659.949	1	-4
660.118	1	-4
660.288	1	-2
660.457	1	-4
660.626	1	1
660.796	1	-1
660.965	1	3
661.135	1	-5
661.304	1	-5
661.474	1	-9
661.643	1	8
661.813	1	12
661.982	1	12
662.152	1	-2
662.321	1	-4
662.491	1	-11
662.660	1	7
662.829	1	-1
662.999	1	-7
663.168	1	-5
663.338	1	5
663.507	1	7
663.677	1	4
663.846	1	-5
664.016	1	2
664.185	1	-3
664.354	1	0
664.524	1	-3
664.693	1	15
664.863	1	-1
665.032	1	-6
665.202	1	6
665.371	1	-3
665.541	1	-17
665.710	1	0
665.879	1	-10
666.049	1	1
666.218	1	-4
666.388	1	4
666.557	1	-6
666.727	1	-9
666.896	1	-7
667.065	1	12
667.235	1	2
667.404	1	-1
667.574	1	2
667.743	1	6
667.913	1	-5
668.082	1	8
668.251	1	3
668.421	1	-2
668.590	1	3
668.760	1	1
668.929	1	-4
669.099	1	-5
669.268	1	-10
669.437	1	0
669.607	1	-8
669.776	1	-1
669.946	1	1
670.115	1	-8
670.285	1	-2
670.454	1	4
670.623	1	3
670.793	1	-2
670.962	1	-3
671.132	1	12
671.301	1	-7
671.470	1	-4
671.640	1	-4
671.809	1	-6
671.979	1	-7
672.148	1	-7
672.317	1	-7
672.487	1	3
672.656	1	3
672.826	1	-4
672.995	1	1
673.164	1	4
673.334	1	-10
673.503	1	2
673.673	1	6
673.842	1	1
674.011	1	-1
674.181	1	0
674.350	1	1
674.520	1	5
674.689	1	-3
674.858	1	8
675.028	1	-1
675.197	1	-6
675.367	1	1
675.536	1	5
675.705	1	-1
675.875	1	-3
676.044	1	3
676.214	1	-9
676.383	1	3
676.552	1	-6
676.722	1	4
676.891	1	1
677.060	1	0
677.230	1	6
677.399	1	-4
677.569	1	-3
677.738	1	7
677.907	1	3
678.077	1	6
678.246	1	-1
678.416	1	7
678.585	1	1
678.754	1	0
678.924	1	-10
679.093	1	1
679.262	1	-5
679.432	1	-6
679.601	1	-6
679.771	1	-1
679.940	1	-1
680.109	1	11
680.279	1	1
680.448	1	7
680.617	1	-5
680.787	1	0
680.956	1	1
681.125	1	4
681.295	1	-7
681.464	1	-3
681.634	1	5
681.803	1	0
681.972	1	-9
682.142	1	3
682.311	1	3
682.480	1	7
682.650	1	0
682.819	1	-1
682.988	1	7
683.158	1	-12
683.327	1	-12
683.496	1	4
683.666	1	-1
683.835	1	6
684.004	1	4
684.174	1	-2
684.343	1	0
684.512	1	2
684.682	1	-7
684.851	1	3
685.021	1	-8
685.190	1	-2
685.359	1	3
685.529	1	0
685.698	1	0
685.867	1	-3
686.037	1	-2
686.206	1	-5
686.375	1	4
686.545	1	-4
686.714	1	-7
686.883	1	-1
687.053	1	-1
687.222	1	2
687.391	1	-3
687.561	1	3
687.730	1	-6
687.899	1	-5
688.069	1	7
688.238	1	4
688.407	1	-4
688.577	1	-8
688.746	1	-2
