340.368	1	5
340.539	1	-11
340.710	1	-8
340.881	1	-12
341.052	1	5
341.223	1	-6
341.394	1	0
341.565	1	-15
341.737	1	0
341.908	1	-4
342.079	1	-7
342.250	1	-2
342.421	1	-1
342.592	1	-8
342.763	1	6
342.934	1	-2
343.105	1	-1
343.276	1	4
343.447	1	-17
343.618	1	0
343.789	1	-4
343.960	1	-3
344.131	1	-5
344.302	1	2
344.473	1	-5
344.644	1	6
344.815	1	-3
344.986	1	2
345.157	1	-5
345.328	1	1
345.499	1	3
345.670	1	-4
345.841	1	10
346.012	1	1
346.183	1	-8
346.354	1	3
346.526	1	-6
346.697	1	4
346.868	1	10
347.039	1	-1
347.210	1	-7
347.381	1	-3
347.552	1	-7
347.723	1	-9
347.894	1	6
348.065	1	3
348.236	1	7
348.407	1	8
348.578	1	-9
348.749	1	-3
348.920	1	-2
349.091	1	-15
349.262	1	-5
349.433	1	4
349.604	1	-1
349.775	1	1
349.946	1	-2
350.117	1	4
350.288	1	0
350.459	1	-15
350.630	1	-7
350.801	1	-1
350.972	1	1
351.143	1	1
351.314	1	5
351.485	1	5
351.656	1	-4
351.827	1	-4
351.998	1	6
352.169	1	-5
352.340	1	1
352.511	1	-5
352.682	1	2
352.853	1	8
353.024	1	3
353.195	1	8
353.366	1	11
353.537	1	-5
353.708	1	-5
353.879	1	1
354.050	1	-7
354.221	1	-6
354.392	1	-3
354.563	1	1
354.734	1	5
354.905	1	9
355.076	1	-6
355.247	1	6
355.418	1	-2
355.589	1	-4
355.760	1	-3
355.931	1	-2
356.102	1	5
356.273	1	5
356.444	1	3
356.615	1	7
356.785	1	8
356.956	1	7
357.127	1	-8
357.298	1	9
357.469	1	2
357.640	1	-1
357.811	1	13
357.982	1	2
358.153	1	13
358.324	1	-3
358.495	1	-1
358.666	1	-1
358.837	1	-10
359.008	1	-8
359.179	1	-6
359.350	1	0
359.521	1	12
359.692	1	15
359.863	1	1
360.034	1	5
360.205	1	-3
360.376	1	-3
360.547	1	2
360.718	1	7
360.889	1	-5
361.060	1	6
361.231	1	-2
361.401	1	8
361.572	1	10
361.743	1	-6
361.914	1	6
362.085	1	9
362.256	1	0
362.427	1	13
362.598	1	-4
362.769	1	0
362.940	1	-8
363.111	1	3
363.282	1	9
363.453	1	-3
363.624	1	5
363.795	1	9
363.966	1	-3
364.137	1	4
364.308	1	6
364.478	1	2
364.649	1	6
364.820	1	4
364.991	1	8
365.162	1	14
365.333	1	-2
365.504	1	13
365.675	1	-2
365.846	1	5
366.017	1	4
366.188	1	1
366.359	1	-2
366.530	1	11
366.701	1	18
366.871	1	8
367.042	1	14
367.213	1	17
367.384	1	20
367.555	1	4
367.726	1	16
367.897	1	17
368.068	1	10
368.239	1	2
368.410	1	33
368.581	1	7
368.752	1	4
368.923	1	7
369.093	1	6
369.264	1	15
369.435	1	13
369.606	1	0
369.777	1	7
369.948	1	20
370.119	1	6
370.290	1	3
370.461	1	27
370.632	1	17
370.803	1	8
370.973	1	19
371.144	1	3
371.315	1	8
371.486	1	8
371.657	1	9
371.828	1	15
371.999	1	7
372.170	1	18
372.341	1	4
372.512	1	3
372.682	1	11
372.853	1	8
373.024	1	12
373.195	1	4
373.366	1	16
373.537	1	14
373.708	1	6
373.879	1	7
374.050	1	4
374.220	1	18
374.391	1	3
374.562	1	7
374.733	1	13
374.904	1	7
375.075	1	6
375.246	1	13
375.417	1	9
375.588	1	-5
375.758	1	10
375.929	1	12
376.100	1	13
376.271	1	24
376.442	1	2
376.613	1	9
376.784	1	13
376.955	1	1
377.125	1	18
377.296	1	1
377.467	1	1
377.638	1	10
377.809	1	8
377.980	1	11
378.151	1	9
378.321	1	-5
378.492	1	-8
378.663	1	-5
378.834	1	-3
379.005	1	3
379.176	1	-2
379.347	1	5
379.518	1	-5
379.688	1	1
379.859	1	-5
380.030	1	-8
380.201	1	8
380.372	1	0
380.543	1	14
380.714	1	6
380.884	1	4
381.055	1	9
381.226	1	-7
381.397	1	2
381.568	1	4
381.739	1	7
381.910	1	-6
382.080	1	2
382.251	1	-5
382.422	1	-2
382.593	1	-5
382.764	1	1
382.935	1	-5
383.105	1	-14
383.276	1	5
383.447	1	6
383.618	1	10
383.789	1	5
383.960	1	-3
384.130	1	-11
384.301	1	2
384.472	1	5
384.643	1	19
384.814	1	5
384.985	1	-2
385.156	1	-7
385.326	1	4
385.497	1	7
385.668	1	5
385.839	1	-1
386.010	1	-1
386.180	1	6
386.351	1	10
386.522	1	-1
386.693	1	-10
386.864	1	8
387.035	1	4
387.205	1	-8
387.376	1	-1
387.547	1	1
387.718	1	2
387.889	1	-1
388.060	1	10
388.230	1	13
388.401	1	-5
388.572	1	-6
388.743	1	1
388.914	1	-8
389.084	1	-2
389.255	1	-9
389.426	1	3
389.597	1	-3
389.768	1	-4
389.939	1	2
390.109	1	-2
390.280	1	4
390.451	1	4
390.622	1	-6
390.793	1	7
390.963	1	16
391.134	1	0
391.305	1	2
391.476	1	-9
391.647	1	-4
391.817	1	-1
391.988	1	1
392.159	1	-5
392.330	1	5
392.501	1	2
392.671	1	-12
392.842	1	-4
393.013	1	-5
393.184	1	3
393.355	1	0
393.525	1	-3
393.696	1	2
393.867	1	-2
394.038	1	1
394.208	1	-4
394.379	1	3
394.550	1	15
394.721	1	-4
394.892	1	2
395.062	1	4
395.233	1	5
395.404	1	3
395.575	1	-6
395.746	1	2
395.916	1	2
396.087	1	-2
396.258	1	7
396.429	1	4
396.599	1	-3
396.770	1	2
396.941	1	-1
397.112	1	7
397.283	1	8
397.453	1	9
397.624	1	1
397.795	1	-6
397.966	1	7
398.136	1	-4
398.307	1	-3
398.478	1	-4
398.649	1	-5
398.819	1	-1
398.990	1	14
399.161	1	5
399.332	1	2
399.503	1	1
399.673	1	-6
399.844	1	5
400.015	1	-4
400.186	1	2
400.356	1	-12
400.527	1	0
400.698	1	-2
400.869	1	4
401.039	1	5
401.210	1	8
401.381	1	-5
401.552	1	-6
401.722	1	1
401.893	1	8
402.064	1	-4
402.235	1	-12
402.405	1	11
402.576	1	1
402.747	1	-2
402.918	1	4
403.088	1	1
403.259	1	-2
403.430	1	-1
403.601	1	-10
403.771	1	-3
403.942	1	9
404.113	1	-4
404.284	1	10
404.454	1	6
404.625	1	5
404.796	1	-3
404.967	1	3
405.137	1	7
405.308	1	2
405.479	1	0
405.649	1	0
405.820	1	-8
405.991	1	0
406.162	1	2
406.332	1	4
406.503	1	14
406.674	1	-6
406.845	1	7
407.015	1	-4
407.186	1	-1
407.357	1	-6
407.527	1	-6
407.698	1	7
407.869	1	-12
408.040	1	3
408.210	1	0
408.381	1	9
408.552	1	-9
408.722	1	-15
408.893	1	-1
409.064	1	4
409.235	1	1
409.405	1	7
409.576	1	-11
409.747	1	-4
409.917	1	-5
410.088	1	1
410.259	1	-9
410.430	1	9
410.600	1	-3
410.771	1	10
410.942	1	3
411.112	1	2
411.283	1	9
411.454	1	-8
411.625	1	0
411.795	1	-5
411.966	1	0
412.137	1	2
412.307	1	0
412.478	1	2
412.649	1	-3
412.819	1	2
412.990	1	11
413.161	1	-3
413.332	1	-7
413.502	1	5
413.673	1	9
413.844	1	8
414.014	1	3
414.185	1	2
414.356	1	-3
414.526	1	-4
414.697	1	5
414.868	1	2
415.038	1	10
415.209	1	-2
415.380	1	-6
415.550	1	-11
415.721	1	-2
415.892	1	-2
416.063	1	4
416.233	1	3
416.404	1	-7
416.575	1	9
416.745	1	-4
416.916	1	-7
417.087	1	5
417.257	1	0
417.428	1	-5
417.599	1	4
417.769	1	13
417.940	1	0
418.111	1	-2
418.281	1	6
418.452	1	-6
418.623	1	-2
418.793	1	-2
418.964	1	-18
419.135	1	-10
419.305	1	-4
419.476	1	4
419.647	1	-6
419.817	1	4
419.988	1	-2
420.159	1	3
420.329	1	-3
420.500	1	5
420.671	1	6
420.841	1	9
421.012	1	5
421.183	1	-3
421.353	1	-5
421.524	1	-9
421.695	1	-8
421.865	1	-1
422.036	1	-7
422.206	1	3
422.377	1	-4
422.548	1	-6
422.718	1	-1
422.889	1	-12
423.060	1	-7
423.230	1	-6
423.401	1	5
423.572	1	-3
423.742	1	9
423.913	1	-12
424.084	1	4
424.254	1	8
424.425	1	-4
424.595	1	-5
424.766	1	-6
424.937	1	1
425.107	1	-7
425.278	1	14
425.449	1	2
425.619	1	1
425.790	1	-14
425.961	1	-6
426.131	1	3
426.302	1	4
426.472	1	-2
426.643	1	15
426.814	1	1
426.984	1	-3
427.155	1	1
427.326	1	8
427.496	1	1
427.667	1	5
427.837	1	-7
428.008	1	1
428.179	1	-4
428.349	1	-11
428.520	1	2
428.691	1	3
428.861	1	-3
429.032	1	16
429.202	1	5
429.373	1	0
429.544	1	4
429.714	1	0
429.885	1	-3
430.055	1	1
430.226	1	-8
430.397	1	-6
430.567	1	-2
430.738	1	1
430.909	1	1
431.079	1	-14
431.250	1	-6
431.420	1	-5
431.591	1	9
431.762	1	-1
431.932	1	-3
432.103	1	-7
432.273	1	-3
432.444	1	5
432.615	1	-13
432.785	1	4
432.956	1	-8
433.126	1	-2
433.297	1	-5
433.468	1	-9
433.638	1	0
433.809	1	8
433.979	1	0
434.150	1	4
434.320	1	6
434.491	1	-7
434.662	1	7
434.832	1	-1
435.003	1	5
435.173	1	-6
435.344	1	-6
435.515	1	10
435.685	1	-2
435.856	1	11
436.026	1	-1
436.197	1	-3
436.368	1	1
436.538	1	-14
436.709	1	-1
436.879	1	-7
437.050	1	2
437.220	1	8
437.391	1	-1
437.562	1	2
437.732	1	-10
437.903	1	-2
438.073	1	-4
438.244	1	-2
438.414	1	-10
438.585	1	2
438.756	1	-1
438.926	1	-7
439.097	1	-11
439.267	1	-5
439.438	1	-3
439.608	1	-11
439.779	1	2
439.949	1	2
440.120	1	3
440.291	1	3
440.461	1	-2
440.632	1	4
440.802	1	-6
440.973	1	-4
441.143	1	-2
441.314	1	-14
441.485	1	-6
441.655	1	6
441.826	1	-9
441.996	1	2
442.167	1	-2
442.337	1	-2
442.508	1	-9
442.678	1	-10
442.849	1	8
443.019	1	2
443.190	1	-4
443.361	1	-2
443.531	1	7
443.702	1	2
443.872	1	6
444.043	1	5
444.213	1	2
444.384	1	-11
444.554	1	11
444.725	1	-4
444.895	1	-4
445.066	1	-14
445.237	1	7
445.407	1	5
445.578	1	-4
445.748	1	3
445.919	1	-9
446.089	1	8
446.260	1	-6
446.430	1	-4
446.601	1	-5
446.771	1	8
446.942	1	-8
447.112	1	-2
447.283	1	-10
447.453	1	-9
447.624	1	-3
447.794	1	-4
447.965	1	8
448.135	1	-5
448.306	1	0
448.477	1	3
448.647	1	-11
448.818	1	-4
448.988	1	0
449.159	1	-8
449.329	1	5
449.500	1	0
449.670	1	8
449.841	1	8
450.011	1	9
450.182	1	-3
450.352	1	-1
450.523	1	-6
450.693	1	0
450.864	1	-6
451.034	1	-7
451.205	1	4
451.375	1	6
451.546	1	2
451.716	1	3
451.887	1	-15
452.057	1	6
452.228	1	1
452.398	1	-7
452.569	1	1
452.739	1	0
452.910	1	-3
453.080	1	-2
453.251	1	6
453.421	1	-9
453.592	1	-12
453.762	1	3
453.933	1	-8
454.103	1	-1
454.274	1	-7
454.444	1	-16
454.615	1	-1
454.785	1	-1
454.956	1	7
455.126	1	0
455.297	1	1
455.467	1	4
455.638	1	-1
455.808	1	2
455.979	1	1
456.149	1	7
456.320	1	-5
456.490	1	-10
456.661	1	8
456.831	1	7
457.001	1	-5
457.172	1	-4
457.342	1	-4
457.513	1	5
457.683	1	-2
457.854	1	-7
458.024	1	-4
458.195	1	-4
458.365	1	-4
458.536	1	5
458.706	1	2
458.877	1	4
459.047	1	4
459.218	1	0
459.388	1	4
459.559	1	2
459.729	1	3
459.899	1	-5
460.070	1	-6
460.240	1	5
460.411	1	2
460.581	1	13
460.752	1	-2
460.922	1	14
461.093	1	0
461.263	1	-11
461.434	1	-11
461.604	1	1
461.775	1	-8
461.945	1	4
462.115	1	1
462.286	1	-3
462.456	1	-11
462.627	1	5
462.797	1	-3
462.968	1	7
463.138	1	-4
463.309	1	-5
463.479	1	-3
463.649	1	-2
463.820	1	0
463.990	1	-4
464.161	1	-2
464.331	1	0
464.502	1	-2
464.672	1	0
464.843	1	6
465.013	1	-2
465.183	1	-20
465.354	1	-5
465.524	1	-12
465.695	1	-4
465.865	1	-1
466.036	1	-15
466.206	1	16
466.376	1	-7
466.547	1	-5
466.717	1	-2
466.888	1	9
467.058	1	-8
467.229	1	-1
467.399	1	10
467.569	1	7
467.740	1	-4
467.910	1	-8
468.081	1	6
468.251	1	-5
468.422	1	-8
468.592	1	-2
468.762	1	-2
468.933	1	-4
469.103	1	-5
469.274	1	-5
469.444	1	-9
469.614	1	-4
469.785	1	-16
469.955	1	-2
470.126	1	-5
470.296	1	-2
470.467	1	-3
470.637	1	-1
470.807	1	0
470.978	1	-1
471.148	1	-5
471.319	1	-3
471.489	1	-9
471.659	1	-6
471.830	1	-4
472.000	1	5
472.171	1	-4
472.341	1	-6
472.511	1	-4
472.682	1	2
472.852	1	-3
473.023	1	-2
473.193	1	0
473.363	1	3
473.534	1	9
473.704	1	-10
473.875	1	3
474.045	1	-3
474.215	1	3
474.386	1	1
474.556	1	4
474.727	1	-2
474.897	1	-3
475.067	1	-2
475.238	1	3
475.408	1	5
475.578	1	-5
475.749	1	5
475.919	1	3
476.090	1	-4
476.260	1	-8
476.430	1	-7
476.601	1	-5
476.771	1	-2
476.942	1	15
477.112	1	2
477.282	1	2
477.453	1	-5
477.623	1	-13
477.793	1	-7
477.964	1	-6
478.134	1	-12
478.305	1	-7
478.475	1	0
478.645	1	0
478.816	1	-3
478.986	1	-3
479.156	1	1
479.327	1	-13
479.497	1	-1
479.667	1	-10
479.838	1	0
480.008	1	-9
480.179	1	-6
480.349	1	-8
480.519	1	2
480.690	1	0
480.860	1	2
481.030	1	-10
481.201	1	-5
481.371	1	1
481.541	1	-1
481.712	1	-6
481.882	1	17
482.053	1	1
482.223	1	-1
482.393	1	1
482.564	1	5
482.734	1	-4
482.904	1	-6
483.075	1	0
483.245	1	3
483.415	1	11
483.586	1	1
483.756	1	4
483.926	1	0
484.097	1	-5
484.267	1	-9
484.437	1	3
484.608	1	5
484.778	1	3
484.948	1	-5
485.119	1	2
485.289	1	-2
485.459	1	14
485.630	1	-11
485.800	1	0
485.970	1	-8
486.141	1	1
486.311	1	-9
486.481	1	0
486.652	1	4
486.822	1	11
486.992	1	8
487.163	1	1
487.333	1	4
487.503	1	-6
487.674	1	3
487.844	1	8
488.014	1	2
488.185	1	-2
488.355	1	-2
488.525	1	-1
488.696	1	-7
488.866	1	3
489.036	1	7
489.207	1	-8
489.377	1	-3
489.547	1	-11
489.718	1	-2
489.888	1	-8
490.058	1	-8
490.228	1	-1
490.399	1	-5
490.569	1	8
490.739	1	-5
490.910	1	-2
491.080	1	4
491.250	1	-3
491.421	1	-5
491.591	1	-6
491.761	1	1
491.932	1	-1
492.102	1	-4
492.272	1	-1
492.442	1	5
492.613	1	-5
492.783	1	4
492.953	1	-4
493.124	1	0
493.294	1	1
493.464	1	7
493.635	1	7
493.805	1	-4
493.975	1	-6
494.145	1	-3
494.316	1	1
494.486	1	5
494.656	1	-2
494.827	1	12
494.997	1	1
495.167	1	-5
495.337	1	10
495.508	1	-5
495.678	1	-3
495.848	1	5
496.019	1	-4
496.189	1	2
496.359	1	-13
496.529	1	0
496.700	1	-5
496.870	1	-1
497.040	1	-8
497.211	1	-5
497.381	1	0
497.551	1	5
497.721	1	-6
497.892	1	-1
498.062	1	2
498.232	1	-7
498.403	1	-5
498.573	1	-9
498.743	1	-2
498.913	1	2
499.084	1	-6
499.254	1	-2
499.424	1	4
499.594	1	7
499.765	1	1
499.935	1	-3
500.105	1	-13
500.275	1	4
500.446	1	-12
500.616	1	-5
500.786	1	-8
500.956	1	-4
501.127	1	-2
501.297	1	-6
501.467	1	-8
501.638	1	-12
501.808	1	3
501.978	1	-2
502.148	1	4
502.319	1	2
502.489	1	4
502.659	1	-3
502.829	1	-7
503.000	1	-7
503.170	1	2
503.340	1	10
503.510	1	17
503.681	1	-6
503.851	1	-1
504.021	1	-4
504.191	1	-1
504.362	1	-10
504.532	1	3
504.702	1	-4
504.872	1	6
505.042	1	-3
505.213	1	8
505.383	1	4
505.553	1	-11
505.723	1	-1
505.894	1	-11
506.064	1	10
506.234	1	5
506.404	1	0
506.575	1	4
506.745	1	8
506.915	1	-2
507.085	1	-2
507.256	1	-3
507.426	1	2
507.596	1	-4
507.766	1	2
507.936	1	6
508.107	1	6
508.277	1	-1
508.447	1	2
508.617	1	-7
508.788	1	17
508.958	1	-10
509.128	1	1
509.298	1	0
509.468	1	-4
509.639	1	-3
509.809	1	7
509.979	1	-1
510.149	1	2
510.319	1	5
510.490	1	2
510.660	1	-10
510.830	1	-7
511.000	1	-15
511.171	1	-3
511.341	1	-5
511.511	1	3
511.681	1	-1
511.851	1	2
512.022	1	-18
512.192	1	1
512.362	1	-3
512.532	1	5
512.702	1	-2
512.873	1	3
513.043	1	8
513.213	1	-8
513.383	1	-13
513.553	1	-8
513.724	1	-2
513.894	1	-7
514.064	1	6
514.234	1	-2
514.404	1	1
514.575	1	9
514.745	1	-3
514.915	1	13
515.085	1	-5
515.255	1	-1
515.425	1	-7
515.596	1	5
515.766	1	-9
515.936	1	0
516.106	1	1
516.276	1	-11
516.447	1	10
516.617	1	8
516.787	1	-1
516.957	1	-2
517.127	1	-5
517.297	1	-5
517.468	1	-5
517.638	1	-6
517.808	1	-2
517.978	1	4
518.148	1	0
518.319	1	-1
518.489	1	-1
518.659	1	-8
518.829	1	1
518.999	1	-2
519.169	1	-1
519.340	1	-3
519.510	1	4
519.680	1	4
519.850	1	4
520.020	1	-3
520.190	1	-5
520.361	1	3
520.531	1	1
520.701	1	-4
520.871	1	7
521.041	1	5
521.211	1	-7
521.382	1	-17
521.552	1	2
521.722	1	7
521.892	1	1
522.062	1	8
522.232	1	5
522.402	1	6
522.573	1	-2
522.743	1	7
522.913	1	5
523.083	1	0
523.253	1	-3
523.423	1	6
523.593	1	2
523.764	1	1
523.934	1	-3
524.104	1	-3
524.274	1	0
524.444	1	5
524.614	1	-1
524.784	1	0
524.955	1	-7
525.125	1	2
525.295	1	1
525.465	1	6
525.635	1	5
525.805	1	-10
525.975	1	4
526.146	1	-7
526.316	1	5
526.486	1	-9
526.656	1	1
526.826	1	-4
526.996	1	-8
527.166	1	2
527.337	1	-6
527.507	1	0
527.677	1	3
527.847	1	5
528.017	1	-11
528.187	1	1
528.357	1	-4
528.527	1	5
528.698	1	5
528.868	1	0
529.038	1	4
529.208	1	-4
529.378	1	8
529.548	1	-8
529.718	1	3
529.888	1	-1
530.058	1	4
530.229	1	-1
530.399	1	3
530.569	1	-7
530.739	1	4
530.909	1	4
531.079	1	6
531.249	1	-1
531.419	1	-1
531.589	1	0
531.760	1	12
531.930	1	5
532.100	1	-2
532.270	1	-6
532.440	1	0
532.610	1	-9
532.780	1	-6
532.950	1	-4
533.120	1	-1
533.290	1	0
533.461	1	3
533.631	1	3
533.801	1	6
533.971	1	-10
534.141	1	-4
534.311	1	12
534.481	1	-8
534.651	1	-5
534.821	1	8
534.991	1	-1
535.162	1	-7
535.332	1	-9
535.502	1	-4
535.672	1	4
535.842	1	5
536.012	1	3
536.182	1	5
536.352	1	4
536.522	1	-5
536.692	1	1
536.862	1	-1
537.032	1	6
537.203	1	-10
537.373	1	-1
537.543	1	-4
537.713	1	8
537.883	1	-1
538.053	1	-8
538.223	1	-3
538.393	1	4
538.563	1	5
538.733	1	1
538.903	1	-16
539.073	1	-5
539.243	1	-2
539.413	1	3
539.584	1	0
539.754	1	5
539.924	1	8
540.094	1	1
540.264	1	2
540.434	1	3
540.604	1	-1
540.774	1	4
540.944	1	-5
541.114	1	-11
541.284	1	5
541.454	1	5
541.624	1	11
541.794	1	-9
541.964	1	3
542.134	1	7
542.305	1	1
542.475	1	12
542.645	1	-2
542.815	1	4
542.985	1	1
543.155	1	1
543.325	1	-2
543.495	1	2
543.665	1	0
543.835	1	5
544.005	1	7
544.175	1	0
544.345	1	0
544.515	1	5
544.685	1	2
544.855	1	-6
545.025	1	0
545.195	1	0
545.365	1	-2
545.535	1	7
545.705	1	2
545.875	1	-7
546.045	1	-10
546.216	1	2
546.386	1	10
546.556	1	-11
546.726	1	-3
546.896	1	3
547.066	1	-4
547.236	1	-3
547.406	1	2
547.576	1	12
547.746	1	-12
547.916	1	-2
548.086	1	-6
548.256	1	-6
548.426	1	-2
548.596	1	0
548.766	1	-3
548.936	1	4
549.106	1	8
549.276	1	-2
549.446	1	-7
549.616	1	-1
549.786	1	-6
549.956	1	6
550.126	1	5
550.296	1	0
550.466	1	3
550.636	1	6
550.806	1	-5
550.976	1	5
551.146	1	3
551.316	1	9
551.486	1	2
551.656	1	2
551.826	1	-1
551.996	1	6
552.166	1	2
552.336	1	-2
552.506	1	3
552.676	1	8
552.846	1	1
553.016	1	5
553.186	1	6
553.356	1	-4
553.526	1	-6
553.696	1	2
553.866	1	-3
554.036	1	1
554.206	1	7
554.376	1	-2
554.546	1	8
554.716	1	5
554.886	1	6
555.056	1	2
555.226	1	-14
555.396	1	-1
555.566	1	6
555.736	1	-13
555.906	1	2
556.076	1	-1
556.246	1	3
556.416	1	-2
556.586	1	-4
556.756	1	2
556.926	1	-4
557.096	1	-7
557.266	1	2
557.436	1	-3
557.606	1	7
557.776	1	2
557.946	1	-1
558.116	1	-2
558.286	1	0
558.456	1	5
558.626	1	-2
558.796	1	3
558.966	1	-10
559.136	1	2
559.306	1	-6
559.476	1	-3
559.646	1	-5
559.816	1	-7
559.986	1	-3
560.155	1	8
560.325	1	-10
560.495	1	-2
560.665	1	7
560.835	1	11
561.005	1	-11
561.175	1	0
561.345	1	-5
561.515	1	-9
561.685	1	0
561.855	1	-7
562.025	1	0
562.195	1	-5
562.365	1	3
562.535	1	2
562.705	1	0
562.875	1	-6
563.045	1	-14
563.215	1	9
563.385	1	-10
563.555	1	-3
563.725	1	5
563.895	1	-2
564.064	1	-2
564.234	1	-3
564.404	1	6
564.574	1	9
564.744	1	-3
564.914	1	3
565.084	1	8
565.254	1	7
565.424	1	-5
565.594	1	7
565.764	1	-4
565.934	1	5
566.104	1	5
566.274	1	-1
566.444	1	-7
566.614	1	-7
566.783	1	-10
566.953	1	5
567.123	1	3
567.293	1	14
567.463	1	2
567.633	1	4
567.803	1	-7
567.973	1	-6
568.143	1	4
568.313	1	11
568.483	1	3
568.653	1	-8
568.823	1	1
568.993	1	2
569.162	1	1
569.332	1	-4
569.502	1	-2
569.672	1	1
569.842	1	10
570.012	1	-2
570.182	1	-6
570.352	1	5
570.522	1	-4
570.692	1	4
570.862	1	-1
571.031	1	-5
571.201	1	6
571.371	1	-6
571.541	1	11
571.711	1	2
571.881	1	15
572.051	1	1
572.221	1	-11
572.391	1	-11
572.561	1	-7
572.731	1	-4
572.900	1	-7
573.070	1	0
573.240	1	4
573.410	1	11
573.580	1	6
573.750	1	-6
573.920	1	-1
574.090	1	0
574.260	1	8
574.430	1	6
574.599	1	0
574.769	1	-1
574.939	1	-2
575.109	1	0
575.279	1	11
575.449	1	3
575.619	1	11
575.789	1	-12
575.959	1	-16
576.128	1	-17
576.298	1	15
576.468	1	-1
576.638	1	-5
576.808	1	-3
576.978	1	0
577.148	1	0
577.318	1	10
577.487	1	-4
577.657	1	0
577.827	1	-5
577.997	1	0
578.167	1	-2
578.337	1	6
578.507	1	1
578.677	1	5
578.846	1	0
579.016	1	7
579.186	1	2
579.356	1	1
579.526	1	-5
579.696	1	-1
579.866	1	1
580.036	1	-5
580.205	1	-6
580.375	1	6
580.545	1	-3
580.715	1	2
580.885	1	5
581.055	1	-5
581.225	1	0
581.394	1	0
581.564	1	3
581.734	1	-3
581.904	1	8
582.074	1	-1
582.244	1	-3
582.414	1	4
582.583	1	5
582.753	1	-3
582.923	1	-2
583.093	1	1
583.263	1	5
583.433	1	-3
583.603	1	2
583.772	1	9
583.942	1	1
584.112	1	-10
584.282	1	-7
584.452	1	2
584.622	1	-2
584.791	1	4
584.961	1	-2
585.131	1	5
585.301	1	-4
585.471	1	11
585.641	1	-6
585.811	1	8
585.980	1	4
586.150	1	-6
586.320	1	-4
586.490	1	10
586.660	1	9
586.830	1	0
586.999	1	0
587.169	1	1
587.339	1	2
587.509	1	-3
587.679	1	7
587.849	1	-5
588.018	1	9
588.188	1	7
588.358	1	-6
588.528	1	1
588.698	1	6
588.867	1	2
589.037	1	5
589.207	1	8
589.377	1	11
589.547	1	-5
589.717	1	6
589.886	1	-3
590.056	1	-6
590.226	1	2
590.396	1	4
590.566	1	-5
590.735	1	-1
590.905	1	3
591.075	1	-3
591.245	1	-2
591.415	1	-3
591.585	1	4
591.754	1	2
591.924	1	0
592.094	1	-2
592.264	1	4
592.434	1	3
592.603	1	5
592.773	1	3
592.943	1	6
593.113	1	8
593.283	1	-5
593.452	1	-4
593.622	1	-2
593.792	1	11
593.962	1	5
594.132	1	2
594.301	1	5
594.471	1	9
594.641	1	-10
594.811	1	4
594.981	1	-7
595.150	1	0
595.320	1	0
595.490	1	7
595.660	1	7
595.829	1	0
595.999	1	-15
596.169	1	3
596.339	1	3
596.509	1	0
596.678	1	-11
596.848	1	-3
597.018	1	-4
597.188	1	-4
597.358	1	0
597.527	1	-7
597.697	1	5
597.867	1	-5
598.037	1	-5
598.206	1	0
598.376	1	-2
598.546	1	0
598.716	1	1
598.885	1	-16
599.055	1	9
599.225	1	-7
599.395	1	-6
599.565	1	-11
599.734	1	-3
599.904	1	-2
600.074	1	-3
600.244	1	-8
600.413	1	4
600.583	1	14
600.753	1	3
600.923	1	-1
601.092	1	6
601.262	1	1
601.432	1	4
601.602	1	7
601.771	1	5
601.941	1	-5
602.111	1	1
602.281	1	5
602.451	1	7
602.620	1	-2
602.790	1	-3
602.960	1	4
603.130	1	4
603.299	1	3
603.469	1	-11
603.639	1	-6
603.809	1	1
603.978	1	-4
604.148	1	2
604.318	1	0
604.487	1	-1
604.657	1	-12
604.827	1	13
604.997	1	-6
605.166	1	-1
605.336	1	10
605.506	1	8
605.676	1	-12
605.845	1	6
606.015	1	-4
606.185	1	-7
606.355	1	0
606.524	1	0
606.694	1	-12
606.864	1	4
607.034	1	-6
607.203	1	1
607.373	1	0
607.543	1	4
607.712	1	-7
607.882	1	5
608.052	1	-5
608.222	1	3
608.391	1	5
608.561	1	3
608.731	1	-8
608.901	1	8
609.070	1	3
609.240	1	-5
609.410	1	3
609.579	1	6
609.749	1	1
609.919	1	7
610.089	1	2
610.258	1	3
610.428	1	-1
610.598	1	-2
610.767	1	1
610.937	1	9
611.107	1	-4
611.277	1	-4
611.446	1	9
611.616	1	-2
611.786	1	5
611.955	1	-9
612.125	1	1
612.295	1	-10
612.465	1	14
612.634	1	-3
612.804	1	11
612.974	1	-5
613.143	1	-3
613.313	1	19
613.483	1	10
613.652	1	14
613.822	1	-2
613.992	1	8
614.162	1	8
614.331	1	2
614.501	1	7
614.671	1	2
614.840	1	6
615.010	1	-13
615.180	1	-3
615.349	1	5
615.519	1	-16
615.689	1	11
615.858	1	5
616.028	1	-8
616.198	1	1
616.368	1	3
616.537	1	-5
616.707	1	8
616.877	1	1
617.046	1	4
617.216	1	0
617.386	1	3
617.555	1	-2
617.725	1	0
617.895	1	9
618.064	1	-11
618.234	1	-11
618.404	1	-3
618.573	1	-3
618.743	1	3
618.913	1	1
619.082	1	5
619.252	1	1
619.422	1	-7
619.591	1	-10
619.761	1	8
619.931	1	7
620.100	1	12
620.270	1	-8
620.440	1	0
620.609	1	8
620.779	1	-6
620.949	1	4
621.118	1	-1
621.288	1	7
621.458	1	1
621.627	1	3
621.797	1	-4
621.967	1	-7
622.136	1	7
622.306	1	-2
622.476	1	1
622.645	1	5
622.815	1	7
622.985	1	2
623.154	1	10
623.324	1	-4
623.494	1	7
623.663	1	-10
623.833	1	5
624.002	1	-12
624.172	1	3
624.342	1	12
624.511	1	0
624.681	1	-4
624.851	1	-11
625.020	1	-4
625.190	1	4
625.360	1	-6
625.529	1	-1
625.699	1	-1
625.869	1	7
626.038	1	-7
626.208	1	2
626.377	1	1
626.547	1	5
626.717	1	-3
626.886	1	3
627.056	1	-14
627.226	1	1
627.395	1	4
627.565	1	-4
627.735	1	-2
627.904	1	-5
628.074	1	1
628.243	1	1
628.413	1	4
628.583	1	0
628.752	1	-3
628.922	1	8
629.091	1	-12
629.261	1	-1
629.431	1	-9
629.600	1	6
629.770	1	-6
629.940	1	1
630.109	1	-6
630.279	1	0
630.448	1	-1
630.618	1	-5
630.788	1	1
630.957	1	5
631.127	1	6
631.297	1	-4
631.466	1	-2
631.636	1	-10
631.805	1	0
631.975	1	9
632.145	1	6
632.314	1	1
632.484	1	-2
632.653	1	-2
632.823	1	-8
632.993	1	-5
633.162	1	-2
633.332	1	-5
633.501	1	-4
633.671	1	-8
633.841	1	-7
634.010	1	-2
634.180	1	13
634.349	1	7
634.519	1	-14
634.689	1	2
634.858	1	-3
635.028	1	5
635.197	1	9
635.367	1	2
635.537	1	-2
635.706	1	9
635.876	1	6
636.045	1	0
636.215	1	-7
636.384	1	-1
636.554	1	10
636.724	1	1
636.893	1	-3
637.063	1	-4
637.232	1	-5
637.402	1	-2
637.572	1	-3
637.741	1	-5
637.911	1	-7
638.080	1	-12
638.250	1	-6
638.419	1	-4
638.589	1	-9
638.759	1	7
638.928	1	3
639.098	1	3
639.267	1	3
639.437	1	2
639.606	1	-6
639.776	1	1
639.946	1	1
640.115	1	0
640.285	1	5
640.454	1	-9
640.624	1	-2
640.793	1	6
640.963	1	0
641.132	1	8
641.302	1	-3
641.472	1	0
641.641	1	-1
641.811	1	4
641.980	1	5
642.150	1	-7
642.319	1	1
642.489	1	6
642.659	1	1
642.828	1	-5
642.998	1	-2
643.167	1	4
643.337	1	-1
643.506	1	-11
643.676	1	-3
643.845	1	1
644.015	1	-1
644.184	1	8
644.354	1	-5
644.524	1	-6
644.693	1	4
644.863	1	-2
645.032	1	2
645.202	1	7
645.371	1	2
645.541	1	4
645.710	1	-3
645.880	1	7
646.049	1	-14
646.219	1	6
646.388	1	-8
646.558	1	-3
646.728	1	-5
646.897	1	8
647.067	1	2
647.236	1	-5
647.406	1	-11
647.575	1	4
647.745	1	-1
647.914	1	1
648.084	1	-9
648.253	1	14
648.423	1	-10
648.592	1	-5
648.762	1	-3
648.931	1	4
649.101	1	-8
649.270	1	-3
649.440	1	2
649.610	1	-6
649.779	1	-7
649.949	1	-4
650.118	1	7
650.288	1	1
650.457	1	9
650.627	1	0
650.796	1	-2
650.966	1	7
651.135	1	-5
651.305	1	-1
651.474	1	-1
651.644	1	8
651.813	1	4
651.983	1	3
652.152	1	6
652.322	1	-3
652.491	1	-1
652.661	1	-8
652.830	1	5
653.000	1	-4
653.169	1	3
653.339	1	7
653.508	1	-1
653.678	1	-8
653.847	1	8
654.017	1	0
654.186	1	3
654.356	1	-11
654.525	1	-1
654.695	1	-2
654.864	1	3
655.034	1	-2
655.203	1	-5
655.373	1	4
655.542	1	-6
655.712	1	5
655.881	1	-9
656.051	1	2
656.220	1	2
656.390	1	3
656.559	1	-5
656.729	1	18
656.898	1	-10
657.068	1	1
657.237	1	-5
657.406	1	2
657.576	1	-2
657.745	1	-6
657.915	1	0
658.084	1	2
658.254	1	-8
658.423	1	9
658.593	1	5
658.762	1	-3
658.932	1	1
659.101	1	13
659.271	1	5
659.440	1	-2
659.610	1	-5
659.779	1	1
659.949	1	-7
660.118	1	-6
660.288	1	4
660.457	1	8
660.626	1	11
660.796	1	-7
660.965	1	10
661.135	1	-7
661.304	1	-1
661.474	1	-4
661.643	1	7
661.813	1	15
661.982	1	15
662.152	1	1
662.321	1	3
662.491	1	-3
662.660	1	0
662.829	1	-4
662.999	1	-12
663.168	1	0
663.338	1	10
663.507	1	6
663.677	1	-1
663.846	1	-6
664.016	1	-6
664.185	1	0
664.354	1	9
664.524	1	6
664.693	1	7
664.863	1	-6
665.032	1	-4
665.202	1	1
665.371	1	-2
665.541	1	-21
665.710	1	-2
665.879	1	-8
666.049	1	-6
666.218	1	-1
666.388	1	4
666.557	1	-2
666.727	1	-7
666.896	1	-8
667.065	1	6
667.235	1	0
667.404	1	4
667.574	1	2
667.743	1	-8
667.913	1	2
668.082	1	8
668.251	1	-12
668.421	1	-5
668.590	1	-7
668.760	1	-1
668.929	1	-5
669.099	1	-2
669.268	1	-1
669.437	1	4
669.607	1	-1
669.776	1	-5
669.946	1	-7
670.115	1	5
670.285	1	7
670.454	1	3
670.623	1	0
670.793	1	-12
670.962	1	-4
671.132	1	12
671.301	1	-6
671.470	1	1
671.640	1	7
671.809	1	2
671.979	1	-11
672.148	1	1
672.317	1	-2
672.487	1	6
672.656	1	-4
672.826	1	-4
672.995	1	3
673.164	1	3
673.334	1	-7
673.503	1	4
673.673	1	4
673.842	1	-5
674.011	1	-5
674.181	1	0
674.350	1	2
674.520	1	2
674.689	1	5
674.858	1	-1
675.028	1	-3
675.197	1	-9
675.367	1	5
675.536	1	-3
675.705	1	0
675.875	1	1
676.044	1	-4
676.214	1	-2
676.383	1	-1
676.552	1	5
676.722	1	4
676.891	1	4
677.060	1	-11
677.230	1	-1
677.399	1	-7
677.569	1	-1
677.738	1	9
677.907	1	1
678.077	1	-4
678.246	1	-5
678.416	1	-3
678.585	1	3
678.754	1	-7
678.924	1	-6
679.093	1	3
679.262	1	-6
679.432	1	-4
679.601	1	-7
679.771	1	-2
679.940	1	-6
680.109	1	3
680.279	1	-5
680.448	1	2
680.617	1	4
680.787	1	-6
680.956	1	7
681.125	1	-1
681.295	1	-2
681.464	1	1
681.634	1	7
681.803	1	-2
681.972	1	-3
682.142	1	8
682.311	1	6
682.480	1	16
682.650	1	7
682.819	1	-2
682.988	1	-10
683.158	1	-3
683.327	1	3
683.496	1	11
683.666	1	1
683.835	1	-5
684.004	1	6
684.174	1	-5
684.343	1	-4
684.512	1	1
684.682	1	-12
684.851	1	-4
685.021	1	-4
685.190	1	-8
685.359	1	4
685.529	1	0
685.698	1	-3
685.867	1	-3
686.037	1	-3
686.206	1	-11
686.375	1	6
686.545	1	-4
686.714	1	-2
686.883	1	-5
687.053	1	4
687.222	1	15
687.391	1	-1
687.561	1	2
687.730	1	2
687.899	1	0
688.069	1	3
688.238	1	5
688.407	1	-5
688.577	1	7
688.746	1	-2
