340.368	1	2
340.539	1	-9
340.710	1	-8
340.881	1	-7
341.052	1	20
341.223	1	-8
341.394	1	-3
341.565	1	-4
341.737	1	6
341.908	1	5
342.079	1	-16
342.250	1	-10
342.421	1	4
342.592	1	5
342.763	1	11
342.934	1	0
343.105	1	8
343.276	1	5
343.447	1	-2
343.618	1	1
343.789	1	-1
343.960	1	5
344.131	1	-3
344.302	1	0
344.473	1	6
344.644	1	12
344.815	1	-2
344.986	1	-1
345.157	1	1
345.328	1	-2
345.499	1	8
345.670	1	0
345.841	1	1
346.012	1	1
346.183	1	0
346.354	1	10
346.526	1	-8
346.697	1	7
346.868	1	5
347.039	1	14
347.210	1	-2
347.381	1	-4
347.552	1	3
347.723	1	4
347.894	1	-5
348.065	1	9
348.236	1	6
348.407	1	6
348.578	1	9
348.749	1	-12
348.920	1	3
349.091	1	-11
349.262	1	2
349.433	1	2
349.604	1	-4
349.775	1	16
349.946	1	-13
350.117	1	1
350.288	1	9
350.459	1	-3
350.630	1	4
350.801	1	3
350.972	1	3
351.143	1	1
351.314	1	11
351.485	1	6
351.656	1	0
351.827	1	8
351.998	1	5
352.169	1	-5
352.340	1	8
352.511	1	2
352.682	1	1
352.853	1	13
353.024	1	-3
353.195	1	5
353.366	1	14
353.537	1	2
353.708	1	7
353.879	1	4
354.050	1	-5
354.221	1	-2
354.392	1	5
354.563	1	1
354.734	1	16
354.905	1	12
355.076	1	0
355.247	1	10
355.418	1	1
355.589	1	3
355.760	1	-2
355.931	1	13
356.102	1	21
356.273	1	2
356.444	1	12
356.615	1	5
356.785	1	2
356.956	1	17
357.127	1	6
357.298	1	4
357.469	1	10
357.640	1	12
357.811	1	5
357.982	1	5
358.153	1	18
358.324	1	1
358.495	1	14
358.666	1	7
358.837	1	3
359.008	1	6
359.179	1	9
359.350	1	8
359.521	1	14
359.692	1	14
359.863	1	7
360.034	1	12
360.205	1	7
360.376	1	15
360.547	1	14
360.718	1	15
360.889	1	8
361.060	1	7
361.231	1	5
361.401	1	16
361.572	1	18
361.743	1	4
361.914	1	15
362.085	1	25
362.256	1	17
362.427	1	22
362.598	1	5
362.769	1	17
362.940	1	14
363.111	1	18
363.282	1	21
363.453	1	19
363.624	1	23
363.795	1	19
363.966	1	25
364.137	1	21
364.308	1	24
364.478	1	33
364.649	1	28
364.820	1	33
364.991	1	35
365.162	1	40
365.333	1	31
365.504	1	35
365.675	1	27
365.846	1	33
366.017	1	37
366.188	1	35
366.359	1	34
366.530	1	50
366.701	1	35
366.871	1	37
367.042	1	41
367.213	1	46
367.384	1	49
367.555	1	47
367.726	1	49
367.897	1	39
368.068	1	53
368.239	1	51
368.410	1	59
368.581	1	46
368.752	1	48
368.923	1	43
369.093	1	49
369.264	1	44
369.435	1	49
369.606	1	45
369.777	1	52
369.948	1	58
370.119	1	38
370.290	1	58
370.461	1	67
370.632	1	62
370.803	1	57
370.973	1	60
371.144	1	48
371.315	1	42
371.486	1	54
371.657	1	50
371.828	1	46
371.999	1	52
372.170	1	47
372.341	1	50
372.512	1	41
372.682	1	42
372.853	1	37
373.024	1	45
373.195	1	45
373.366	1	45
373.537	1	34
373.708	1	40
373.879	1	37
374.050	1	41
374.220	1	47
374.391	1	36
374.562	1	41
374.733	1	35
374.904	1	31
375.075	1	28
375.246	1	45
375.417	1	35
375.588	1	33
375.758	1	36
375.929	1	30
376.100	1	28
376.271	1	26
376.442	1	28
376.613	1	26
376.784	1	26
376.955	1	28
377.125	1	33
377.296	1	28
377.467	1	28
377.638	1	34
377.809	1	27
377.980	1	31
378.151	1	35
378.321	1	16
378.492	1	20
378.663	1	26
378.834	1	18
379.005	1	33
379.176	1	23
379.347	1	28
379.518	1	31
379.688	1	25
379.859	1	18
380.030	1	20
380.201	1	13
380.372	1	12
380.543	1	27
380.714	1	17
380.884	1	18
381.055	1	21
381.226	1	-1
381.397	1	11
381.568	1	25
381.739	1	18
381.910	1	16
382.080	1	11
382.251	1	7
382.422	1	9
382.593	1	15
382.764	1	6
382.935	1	9
383.105	1	6
383.276	1	15
383.447	1	8
383.618	1	6
383.789	1	6
383.960	1	9
384.130	1	13
384.301	1	5
384.472	1	14
384.643	1	15
384.814	1	3
384.985	1	10
385.156	1	11
385.326	1	21
385.497	1	15
385.668	1	8
385.839	1	8
386.010	1	9
386.180	1	13
386.351	1	11
386.522	1	11
386.693	1	8
386.864	1	15
387.035	1	8
387.205	1	2
387.376	1	14
387.547	1	7
387.718	1	12
387.889	1	3
388.060	1	11
388.230	1	16
388.401	1	-1
388.572	1	5
388.743	1	17
388.914	1	1
389.084	1	2
389.255	1	-1
389.426	1	7
389.597	1	4
389.768	1	14
389.939	1	3
390.109	1	5
390.280	1	12
390.451	1	1
390.622	1	3
390.793	1	3
390.963	1	13
391.134	1	10
391.305	1	9
391.476	1	-2
391.647	1	4
391.817	1	4
391.988	1	5
392.159	1	3
392.330	1	7
392.501	1	6
392.671	1	0
392.842	1	2
393.013	1	3
393.184	1	8
393.355	1	12
393.525	1	0
393.696	1	12
393.867	1	7
394.038	1	5
394.208	1	4
394.379	1	9
394.550	1	18
394.721	1	-3
394.892	1	6
395.062	1	3
395.233	1	4
395.404	1	-1
395.575	1	14
395.746	1	10
395.916	1	12
396.087	1	1
396.258	1	3
396.429	1	1
396.599	1	-5
396.770	1	3
396.941	1	8
397.112	1	4
397.283	1	1
397.453	1	14
397.624	1	-2
397.795	1	2
397.966	1	4
398.136	1	-10
398.307	1	7
398.478	1	5
398.649	1	-4
398.819	1	5
398.990	1	9
399.161	1	14
399.332	1	4
399.503	1	7
399.673	1	3
399.844	1	11
400.015	1	-6
400.186	1	7
400.356	1	-11
400.527	1	5
400.698	1	2
400.869	1	6
401.039	1	11
401.210	1	2
401.381	1	1
401.552	1	-6
401.722	1	6
401.893	1	0
402.064	1	1
402.235	1	-1
402.405	1	6
402.576	1	3
402.747	1	7
402.918	1	13
403.088	1	7
403.259	1	12
403.430	1	-4
403.601	1	-6
403.771	1	2
403.942	1	20
404.113	1	-1
404.284	1	5
404.454	1	12
404.625	1	9
404.796	1	7
404.967	1	11
405.137	1	4
405.308	1	8
405.479	1	13
405.649	1	-1
405.820	1	-4
405.991	1	-3
406.162	1	6
406.332	1	3
406.503	1	5
406.674	1	1
406.845	1	6
407.015	1	14
407.186	1	-1
407.357	1	3
407.527	1	-5
407.698	1	13
407.869	1	-1
408.040	1	-5
408.210	1	-4
408.381	1	-8
408.552	1	1
408.722	1	-8
408.893	1	9
409.064	1	3
409.235	1	0
409.405	1	22
409.576	1	-1
409.747	1	-4
409.917	1	-9
410.088	1	0
410.259	1	4
410.430	1	4
410.600	1	0
410.771	1	2
410.942	1	7
411.112	1	-2
411.283	1	18
411.454	1	-5
411.625	1	1
411.795	1	-3
411.966	1	3
412.137	1	0
412.307	1	7
412.478	1	14
412.649	1	4
412.819	1	1
412.990	1	0
413.161	1	-4
413.332	1	1
413.502	1	-3
413.673	1	2
413.844	1	9
414.014	1	3
414.185	1	2
414.356	1	2
414.526	1	-6
414.697	1	7
414.868	1	9
415.038	1	7
415.209	1	-4
415.380	1	-2
415.550	1	-11
415.721	1	-4
415.892	1	0
416.063	1	4
416.233	1	9
416.404	1	3
416.575	1	8
416.745	1	-4
416.916	1	-15
417.087	1	0
417.257	1	6
417.428	1	-6
417.599	1	3
417.769	1	12
417.940	1	5
418.111	1	4
418.281	1	3
418.452	1	1
418.623	1	-5
418.793	1	-2
418.964	1	-9
419.135	1	-4
419.305	1	1
419.476	1	4
419.647	1	4
419.817	1	12
419.988	1	3
420.159	1	5
420.329	1	0
420.500	1	-7
420.671	1	2
420.841	1	13
421.012	1	0
421.183	1	-2
421.353	1	-2
421.524	1	-8
421.695	1	-3
421.865	1	2
422.036	1	-2
422.206	1	1
422.377	1	-3
422.548	1	-4
422.718	1	4
422.889	1	-11
423.060	1	3
423.230	1	3
423.401	1	2
423.572	1	3
423.742	1	-3
423.913	1	0
424.084	1	-10
424.254	1	3
424.425	1	6
424.595	1	-5
424.766	1	4
424.937	1	-4
425.107	1	0
425.278	1	10
425.449	1	1
425.619	1	-1
425.790	1	-1
425.961	1	-4
426.131	1	-2
426.302	1	2
426.472	1	4
426.643	1	4
426.814	1	5
426.984	1	-3
427.155	1	-6
427.326	1	8
427.496	1	3
427.667	1	6
427.837	1	2
428.008	1	7
428.179	1	-10
428.349	1	-5
428.520	1	5
428.691	1	10
428.861	1	-2
429.032	1	-1
429.202	1	-1
429.373	1	9
429.544	1	5
429.714	1	2
429.885	1	-2
430.055	1	8
430.226	1	-5
430.397	1	4
430.567	1	-3
430.738	1	3
430.909	1	4
431.079	1	-4
431.250	1	5
431.420	1	-2
431.591	1	1
431.762	1	5
431.932	1	0
432.103	1	-2
432.273	1	1
432.444	1	8
432.615	1	-5
432.785	1	4
432.956	1	-3
433.126	1	-9
433.297	1	11
433.468	1	-20
433.638	1	0
433.809	1	12
433.979	1	4
434.150	1	-1
434.320	1	3
434.491	1	-7
434.662	1	6
434.832	1	8
435.003	1	12
435.173	1	-5
435.344	1	9
435.515	1	14
435.685	1	-2
435.856	1	9
436.026	1	8
436.197	1	4
436.368	1	4
436.538	1	-5
436.709	1	-6
436.879	1	-2
437.050	1	-2
437.220	1	8
437.391	1	13
437.562	1	12
437.732	1	-4
437.903	1	4
438.073	1	11
438.244	1	2
438.414	1	-6
438.585	1	3
438.756	1	2
438.926	1	1
439.097	1	-8
439.267	1	7
439.438	1	6
439.608	1	-12
439.779	1	4
439.949	1	5
440.120	1	-1
440.291	1	0
440.461	1	5
440.632	1	1
440.802	1	-5
440.973	1	-3
441.143	1	9
441.314	1	0
441.485	1	7
441.655	1	11
441.826	1	3
441.996	1	0
442.167	1	4
442.337	1	9
442.508	1	-2
442.678	1	-5
442.849	1	14
443.019	1	4
443.190	1	1
443.361	1	-5
443.531	1	7
443.702	1	-5
443.872	1	4
444.043	1	2
444.213	1	2
444.384	1	-7
444.554	1	6
444.725	1	-1
444.895	1	0
445.066	1	-2
445.237	1	-11
445.407	1	-2
445.578	1	-14
445.748	1	-5
445.919	1	-7
446.089	1	1
446.260	1	-3
446.430	1	8
446.601	1	-5
446.771	1	12
446.942	1	1
447.112	1	-2
447.283	1	2
447.453	1	-12
447.624	1	-4
447.794	1	-1
447.965	1	-2
448.135	1	4
448.306	1	3
448.477	1	9
448.647	1	-3
448.818	1	11
448.988	1	-6
449.159	1	-10
449.329	1	1
449.500	1	0
449.670	1	18
449.841	1	5
450.011	1	2
450.182	1	0
450.352	1	-1
450.523	1	0
450.693	1	-3
450.864	1	3
451.034	1	-10
451.205	1	2
451.375	1	1
451.546	1	1
451.716	1	-3
451.887	1	-13
452.057	1	2
452.228	1	8
452.398	1	2
452.569	1	-1
452.739	1	9
452.910	1	0
453.080	1	5
453.251	1	1
453.421	1	-3
453.592	1	-2
453.762	1	-2
453.933	1	-6
454.103	1	6
454.274	1	3
454.444	1	-7
454.615	1	15
454.785	1	3
454.956	1	-1
455.126	1	8
455.297	1	1
455.467	1	3
455.638	1	4
455.808	1	2
455.979	1	1
456.149	1	9
456.320	1	-5
456.490	1	5
456.661	1	9
456.831	1	15
457.001	1	-1
457.172	1	0
457.342	1	0
457.513	1	9
457.683	1	-1
457.854	1	0
458.024	1	-7
458.195	1	-7
458.365	1	2
458.536	1	10
458.706	1	-5
458.877	1	2
459.047	1	7
459.218	1	6
459.388	1	1
459.559	1	7
459.729	1	11
459.899	1	2
460.070	1	-1
460.240	1	4
460.411	1	-13
460.581	1	18
460.752	1	2
460.922	1	3
461.093	1	1
461.263	1	-4
461.434	1	2
461.604	1	-2
461.775	1	-6
461.945	1	1
462.115	1	1
462.286	1	3
462.456	1	0
462.627	1	8
462.797	1	1
462.968	1	5
463.138	1	-4
463.309	1	-8
463.479	1	-1
463.649	1	3
463.820	1	5
463.990	1	0
464.161	1	3
464.331	1	1
464.502	1	9
464.672	1	3
464.843	1	11
465.013	1	-7
465.183	1	-4
465.354	1	5
465.524	1	4
465.695	1	-4
465.865	1	-4
466.036	1	3
466.206	1	14
466.376	1	-1
466.547	1	0
466.717	1	1
466.888	1	3
467.058	1	1
467.229	1	5
467.399	1	3
467.569	1	10
467.740	1	3
467.910	1	-6
468.081	1	2
468.251	1	7
468.422	1	-3
468.592	1	5
468.762	1	-6
468.933	1	0
469.103	1	-2
469.274	1	0
469.444	1	-6
469.614	1	3
469.785	1	-5
469.955	1	-6
470.126	1	-6
470.296	1	2
470.467	1	1
470.637	1	5
470.807	1	1
470.978	1	2
471.148	1	0
471.319	1	-2
471.489	1	1
471.659	1	-14
471.830	1	0
472.000	1	2
472.171	1	9
472.341	1	-10
472.511	1	3
472.682	1	-2
472.852	1	9
473.023	1	9
473.193	1	6
473.363	1	-3
473.534	1	9
473.704	1	-5
473.875	1	12
474.045	1	-12
474.215	1	12
474.386	1	11
474.556	1	2
474.727	1	-4
474.897	1	7
475.067	1	0
475.238	1	-1
475.408	1	1
475.578	1	-7
475.749	1	0
475.919	1	-6
476.090	1	2
476.260	1	2
476.430	1	6
476.601	1	1
476.771	1	3
476.942	1	5
477.112	1	3
477.282	1	-2
477.453	1	0
477.623	1	-14
477.793	1	4
477.964	1	-7
478.134	1	-2
478.305	1	-4
478.475	1	4
478.645	1	5
478.816	1	7
478.986	1	-5
479.156	1	7
479.327	1	-5
479.497	1	-7
479.667	1	-2
479.838	1	-3
480.008	1	3
480.179	1	3
480.349	1	0
480.519	1	6
480.690	1	6
480.860	1	6
481.030	1	4
481.201	1	-4
481.371	1	5
481.541	1	-4
481.712	1	9
481.882	1	4
482.053	1	3
482.223	1	4
482.393	1	3
482.564	1	5
482.734	1	-13
482.904	1	0
483.075	1	0
483.245	1	11
483.415	1	7
483.586	1	-1
483.756	1	10
483.926	1	-3
484.097	1	2
484.267	1	-18
484.437	1	-6
484.608	1	0
484.778	1	1
484.948	1	-4
485.119	1	5
485.289	1	-2
485.459	1	12
485.630	1	1
485.800	1	-2
485.970	1	-12
486.141	1	-5
486.311	1	-1
486.481	1	7
486.652	1	12
486.822	1	9
486.992	1	9
487.163	1	2
487.333	1	-4
487.503	1	-2
487.674	1	10
487.844	1	8
488.014	1	1
488.185	1	1
488.355	1	0
488.525	1	-6
488.696	1	-7
488.866	1	4
489.036	1	12
489.207	1	3
489.377	1	-4
489.547	1	-5
489.718	1	3
489.888	1	-6
490.058	1	2
490.228	1	14
490.399	1	1
490.569	1	14
490.739	1	-4
490.910	1	4
491.080	1	10
491.250	1	3
491.421	1	-3
491.591	1	-2
491.761	1	9
491.932	1	9
492.102	1	4
492.272	1	3
492.442	1	8
492.613	1	4
492.783	1	13
492.953	1	-3
493.124	1	7
493.294	1	-2
493.464	1	11
493.635	1	-10
493.805	1	1
493.975	1	-5
494.145	1	12
494.316	1	6
494.486	1	10
494.656	1	1
494.827	1	-1
494.997	1	-6
495.167	1	-4
495.337	1	14
495.508	1	-1
495.678	1	-1
495.848	1	24
496.019	1	3
496.189	1	10
496.359	1	-5
496.529	1	4
496.700	1	2
496.870	1	2
497.040	1	1
497.211	1	-2
497.381	1	1
497.551	1	7
497.721	1	3
497.892	1	-1
498.062	1	-2
498.232	1	-2
498.403	1	-1
498.573	1	-8
498.743	1	-8
498.913	1	7
499.084	1	3
499.254	1	4
499.424	1	2
499.594	1	3
499.765	1	3
499.935	1	6
500.105	1	5
500.275	1	-3
500.446	1	-12
500.616	1	-3
500.786	1	-1
500.956	1	2
501.127	1	11
501.297	1	0
501.467	1	-7
501.638	1	-7
501.808	1	12
501.978	1	13
502.148	1	-1
502.319	1	-1
502.489	1	2
502.659	1	1
502.829	1	0
503.000	1	-4
503.170	1	11
503.340	1	1
503.510	1	3
503.681	1	-6
503.851	1	6
504.021	1	9
504.191	1	9
504.362	1	1
504.532	1	8
504.702	1	-8
504.872	1	-7
505.042	1	0
505.213	1	9
505.383	1	-3
505.553	1	-4
505.723	1	2
505.894	1	0
506.064	1	3
506.234	1	8
506.404	1	-1
506.575	1	5
506.745	1	-3
506.915	1	10
507.085	1	1
507.256	1	5
507.426	1	-1
507.596	1	5
507.766	1	-1
507.936	1	11
508.107	1	3
508.277	1	7
508.447	1	16
508.617	1	1
508.788	1	14
508.958	1	-2
509.128	1	2
509.298	1	14
509.468	1	0
509.639	1	-5
509.809	1	2
509.979	1	2
510.149	1	2
510.319	1	5
510.490	1	1
510.660	1	-2
510.830	1	5
511.000	1	1
511.171	1	0
511.341	1	7
511.511	1	9
511.681	1	6
511.851	1	7
512.022	1	-8
512.192	1	9
512.362	1	-3
512.532	1	2
512.702	1	0
512.873	1	9
513.043	1	-4
513.213	1	8
513.383	1	-6
513.553	1	-4
513.724	1	5
513.894	1	-5
514.064	1	5
514.234	1	-1
514.404	1	-2
514.575	1	10
514.745	1	-4
514.915	1	1
515.085	1	4
515.255	1	3
515.425	1	5
515.596	1	13
515.766	1	-10
515.936	1	4
516.106	1	-2
516.276	1	-2
516.447	1	11
516.617	1	13
516.787	1	11
516.957	1	3
517.127	1	-2
517.297	1	1
517.468	1	2
517.638	1	11
517.808	1	-5
517.978	1	10
518.148	1	7
518.319	1	6
518.489	1	5
518.659	1	-1
518.829	1	8
518.999	1	5
519.169	1	-1
519.340	1	8
519.510	1	-2
519.680	1	8
519.850	1	15
520.020	1	4
520.190	1	2
520.361	1	1
520.531	1	3
520.701	1	5
520.871	1	12
521.041	1	8
521.211	1	-8
521.382	1	-5
521.552	1	12
521.722	1	8
521.892	1	3
522.062	1	9
522.232	1	10
522.402	1	1
522.573	1	5
522.743	1	10
522.913	1	3
523.083	1	0
523.253	1	3
523.423	1	7
523.593	1	0
523.764	1	12
523.934	1	-3
524.104	1	6
524.274	1	1
524.444	1	2
524.614	1	8
524.784	1	2
524.955	1	6
525.125	1	5
525.295	1	9
525.465	1	8
525.635	1	0
525.805	1	-4
525.975	1	7
526.146	1	-9
526.316	1	17
526.486	1	8
526.656	1	8
526.826	1	4
526.996	1	4
527.166	1	-5
527.337	1	-1
527.507	1	6
527.677	1	4
527.847	1	3
528.017	1	-5
528.187	1	-4
528.357	1	2
528.527	1	12
528.698	1	10
528.868	1	1
529.038	1	3
529.208	1	6
529.378	1	5
529.548	1	-3
529.718	1	10
529.888	1	1
530.058	1	4
530.229	1	5
530.399	1	12
530.569	1	-4
530.739	1	2
530.909	1	6
531.079	1	9
531.249	1	3
531.419	1	15
531.589	1	9
531.760	1	8
531.930	1	6
532.100	1	7
532.270	1	-1
532.440	1	2
532.610	1	4
532.780	1	-2
532.950	1	7
533.120	1	15
533.290	1	10
533.461	1	9
533.631	1	8
533.801	1	13
533.971	1	6
534.141	1	-10
534.311	1	9
534.481	1	-8
534.651	1	4
534.821	1	4
534.991	1	5
535.162	1	8
535.332	1	2
535.502	1	-1
535.672	1	11
535.842	1	12
536.012	1	8
536.182	1	-6
536.352	1	6
536.522	1	-1
536.692	1	8
536.862	1	7
537.032	1	10
537.203	1	5
537.373	1	6
537.543	1	7
537.713	1	2
537.883	1	6
538.053	1	3
538.223	1	13
538.393	1	14
538.563	1	22
538.733	1	3
538.903	1	6
539.073	1	5
539.243	1	4
539.413	1	2
539.584	1	-7
539.754	1	8
539.924	1	13
540.094	1	4
540.264	1	-5
540.434	1	10
540.604	1	9
540.774	1	16
540.944	1	-5
541.114	1	3
541.284	1	7
541.454	1	6
541.624	1	1
541.794	1	5
541.964	1	7
542.134	1	7
542.305	1	18
542.475	1	20
542.645	1	11
542.815	1	0
542.985	1	9
543.155	1	1
543.325	1	3
543.495	1	6
543.665	1	10
543.835	1	14
544.005	1	11
544.175	1	1
544.345	1	19
544.515	1	-1
544.685	1	-5
544.855	1	8
545.025	1	6
545.195	1	-4
545.365	1	4
545.535	1	11
545.705	1	2
545.875	1	-6
546.045	1	2
546.216	1	18
546.386	1	3
546.556	1	5
546.726	1	-3
546.896	1	4
547.066	1	11
547.236	1	8
547.406	1	-1
547.576	1	14
547.746	1	-6
547.916	1	3
548.086	1	11
548.256	1	3
548.426	1	2
548.596	1	4
548.766	1	10
548.936	1	11
549.106	1	7
549.276	1	-1
549.446	1	12
549.616	1	3
549.786	1	-3
549.956	1	9
550.126	1	13
550.296	1	5
550.466	1	5
550.636	1	20
550.806	1	5
550.976	1	7
551.146	1	6
551.316	1	13
551.486	1	8
551.656	1	14
551.826	1	-2
551.996	1	11
552.166	1	3
552.336	1	6
552.506	1	8
552.676	1	18
552.846	1	3
553.016	1	9
553.186	1	11
553.356	1	8
553.526	1	7
553.696	1	8
553.866	1	4
554.036	1	8
554.206	1	6
554.376	1	8
554.546	1	10
554.716	1	-2
554.886	1	8
555.056	1	8
555.226	1	-4
555.396	1	2
555.566	1	6
555.736	1	-5
555.906	1	13
556.076	1	9
556.246	1	0
556.416	1	6
556.586	1	7
556.756	1	10
556.926	1	9
557.096	1	5
557.266	1	5
557.436	1	-2
557.606	1	9
557.776	1	2
557.946	1	13
558.116	1	6
558.286	1	12
558.456	1	14
558.626	1	5
558.796	1	10
558.966	1	6
559.136	1	10
559.306	1	10
559.476	1	-1
559.646	1	3
559.816	1	-1
559.986	1	3
560.155	1	12
560.325	1	1
560.495	1	1
560.665	1	6
560.835	1	-1
561.005	1	2
561.175	1	4
561.345	1	10
561.515	1	9
561.685	1	7
561.855	1	-8
562.025	1	2
562.195	1	4
562.365	1	10
562.535	1	0
562.705	1	6
562.875	1	6
563.045	1	2
563.215	1	11
563.385	1	-12
563.555	1	8
563.725	1	3
563.895	1	10
564.064	1	7
564.234	1	3
564.404	1	6
564.574	1	6
564.744	1	4
564.914	1	7
565.084	1	6
565.254	1	10
565.424	1	5
565.594	1	17
565.764	1	0
565.934	1	17
566.104	1	1
566.274	1	8
566.444	1	1
566.614	1	2
566.783	1	16
566.953	1	8
567.123	1	4
567.293	1	19
567.463	1	8
567.633	1	1
567.803	1	-1
567.973	1	-4
568.143	1	4
568.313	1	8
568.483	1	17
568.653	1	3
568.823	1	5
568.993	1	2
569.162	1	8
569.332	1	2
569.502	1	1
569.672	1	8
569.842	1	7
570.012	1	0
570.182	1	1
570.352	1	-3
570.522	1	-7
570.692	1	7
570.862	1	8
571.031	1	7
571.201	1	18
571.371	1	7
571.541	1	18
571.711	1	11
571.881	1	11
572.051	1	1
572.221	1	1
572.391	1	-5
572.561	1	5
572.731	1	4
572.900	1	-2
573.070	1	6
573.240	1	10
573.410	1	14
573.580	1	7
573.750	1	3
573.920	1	8
574.090	1	11
574.260	1	10
574.430	1	10
574.599	1	11
574.769	1	12
574.939	1	11
575.109	1	8
575.279	1	17
575.449	1	4
575.619	1	12
575.789	1	-2
575.959	1	0
576.128	1	3
576.298	1	9
576.468	1	3
576.638	1	0
576.808	1	6
576.978	1	9
577.148	1	11
577.318	1	3
577.487	1	3
577.657	1	5
577.827	1	1
577.997	1	1
578.167	1	-4
578.337	1	11
578.507	1	10
578.677	1	13
578.846	1	8
579.016	1	12
579.186	1	7
579.356	1	-5
579.526	1	-1
579.696	1	7
579.866	1	13
580.036	1	-3
580.205	1	1
580.375	1	8
580.545	1	1
580.715	1	7
580.885	1	13
581.055	1	6
581.225	1	10
581.394	1	6
581.564	1	11
581.734	1	4
581.904	1	13
582.074	1	9
582.244	1	2
582.414	1	8
582.583	1	8
582.753	1	6
582.923	1	-5
583.093	1	4
583.263	1	9
583.433	1	7
583.603	1	11
583.772	1	15
583.942	1	2
584.112	1	5
584.282	1	-4
584.452	1	3
584.622	1	8
584.791	1	-3
584.961	1	5
585.131	1	6
585.301	1	3
585.471	1	18
585.641	1	3
585.811	1	3
585.980	1	7
586.150	1	8
586.320	1	9
586.490	1	12
586.660	1	9
586.830	1	6
586.999	1	11
587.169	1	16
587.339	1	9
587.509	1	9
587.679	1	11
587.849	1	8
588.018	1	13
588.188	1	9
588.358	1	7
588.528	1	4
588.698	1	-2
588.867	1	13
589.037	1	10
589.207	1	9
589.377	1	6
589.547	1	-4
589.717	1	10
589.886	1	-8
590.056	1	-7
590.226	1	7
590.396	1	10
590.566	1	1
590.735	1	3
590.905	1	5
591.075	1	6
591.245	1	9
591.415	1	-4
591.585	1	10
591.754	1	2
591.924	1	5
592.094	1	3
592.264	1	16
592.434	1	2
592.603	1	5
592.773	1	0
592.943	1	6
593.113	1	-2
593.283	1	1
593.452	1	10
593.622	1	3
593.792	1	10
593.962	1	9
594.132	1	2
594.301	1	8
594.471	1	13
594.641	1	-5
594.811	1	10
594.981	1	10
595.150	1	4
595.320	1	5
595.490	1	8
595.660	1	8
595.829	1	-3
595.999	1	0
596.169	1	15
596.339	1	6
596.509	1	5
596.678	1	1
596.848	1	0
597.018	1	3
597.188	1	2
597.358	1	14
597.527	1	0
597.697	1	4
597.867	1	4
598.037	1	3
598.206	1	4
598.376	1	7
598.546	1	9
598.716	1	10
598.885	1	-13
599.055	1	4
599.225	1	-9
599.395	1	1
599.565	1	-5
599.734	1	10
599.904	1	-3
600.074	1	2
600.244	1	-4
600.413	1	12
600.583	1	14
600.753	1	13
600.923	1	7
601.092	1	17
601.262	1	4
601.432	1	-2
601.602	1	15
601.771	1	10
601.941	1	-7
602.111	1	10
602.281	1	12
602.451	1	19
602.620	1	7
602.790	1	3
602.960	1	-7
603.130	1	10
603.299	1	3
603.469	1	-3
603.639	1	5
603.809	1	5
603.978	1	-2
604.148	1	8
604.318	1	4
604.487	1	2
604.657	1	9
604.827	1	7
604.997	1	2
605.166	1	12
605.336	1	7
605.506	1	5
605.676	1	-9
605.845	1	1
606.015	1	2
606.185	1	15
606.355	1	4
606.524	1	1
606.694	1	-4
606.864	1	-1
607.034	1	2
607.203	1	3
607.373	1	5
607.543	1	4
607.712	1	-9
607.882	1	9
608.052	1	-1
608.222	1	-2
608.391	1	6
608.561	1	7
608.731	1	7
608.901	1	12
609.070	1	15
609.240	1	0
609.410	1	7
609.579	1	9
609.749	1	-4
609.919	1	5
610.089	1	2
610.258	1	5
610.428	1	-3
610.598	1	4
610.767	1	9
610.937	1	12
611.107	1	4
611.277	1	7
611.446	1	8
611.616	1	-6
611.786	1	12
611.955	1	7
612.125	1	6
612.295	1	3
612.465	1	9
612.634	1	1
612.804	1	13
612.974	1	-11
613.143	1	1
613.313	1	13
613.483	1	7
613.652	1	7
613.822	1	0
613.992	1	0
614.162	1	8
614.331	1	10
614.501	1	2
614.671	1	7
614.840	1	-2
615.010	1	-5
615.180	1	-2
615.349	1	6
615.519	1	-11
615.689	1	7
615.858	1	6
616.028	1	3
616.198	1	-3
616.368	1	7
616.537	1	0
616.707	1	7
616.877	1	5
617.046	1	0
617.216	1	-1
617.386	1	2
617.555	1	9
617.725	1	7
617.895	1	11
618.064	1	-8
618.234	1	6
618.404	1	-1
618.573	1	-3
618.743	1	12
618.913	1	8
619.082	1	11
619.252	1	3
619.422	1	-4
619.591	1	-1
619.761	1	7
619.931	1	11
620.100	1	6
620.270	1	-9
620.440	1	5
620.609	1	3
620.779	1	-3
620.949	1	4
621.118	1	6
621.288	1	3
621.458	1	-1
621.627	1	8
621.797	1	3
621.967	1	5
622.136	1	13
622.306	1	-1
622.476	1	2
622.645	1	10
622.815	1	12
622.985	1	1
623.154	1	5
623.324	1	3
623.494	1	13
623.663	1	4
623.833	1	6
624.002	1	-15
624.172	1	5
624.342	1	15
624.511	1	-6
624.681	1	4
624.851	1	-1
625.020	1	-3
625.190	1	5
625.360	1	9
625.529	1	7
625.699	1	-7
625.869	1	6
626.038	1	-2
626.208	1	5
626.377	1	8
626.547	1	5
626.717	1	3
626.886	1	8
627.056	1	-12
627.226	1	10
627.395	1	11
627.565	1	7
627.735	1	11
627.904	1	3
628.074	1	0
628.243	1	3
628.413	1	7
628.583	1	1
628.752	1	1
628.922	1	10
629.091	1	0
629.261	1	11
629.431	1	-1
629.600	1	10
629.770	1	-2
629.940	1	4
630.109	1	-9
630.279	1	5
630.448	1	-4
630.618	1	7
630.788	1	9
630.957	1	4
631.127	1	11
631.297	1	7
631.466	1	-2
631.636	1	-6
631.805	1	8
631.975	1	15
632.145	1	-2
632.314	1	3
632.484	1	5
632.653	1	7
632.823	1	-5
632.993	1	-5
633.162	1	5
633.332	1	5
633.501	1	-2
633.671	1	-4
633.841	1	-9
634.010	1	5
634.180	1	6
634.349	1	5
634.519	1	-7
634.689	1	5
634.858	1	2
635.028	1	7
635.197	1	9
635.367	1	-1
635.537	1	-1
635.706	1	2
635.876	1	-3
636.045	1	6
636.215	1	-2
636.384	1	-1
636.554	1	12
636.724	1	3
636.893	1	-13
637.063	1	5
637.232	1	-2
637.402	1	4
637.572	1	11
637.741	1	1
637.911	1	-5
638.080	1	-1
638.250	1	-1
638.419	1	3
638.589	1	4
638.759	1	7
638.928	1	4
639.098	1	9
639.267	1	4
639.437	1	-1
639.606	1	10
639.776	1	-3
639.946	1	12
640.115	1	-5
640.285	1	8
640.454	1	-4
640.624	1	-1
640.793	1	5
640.963	1	-3
641.132	1	6
641.302	1	4
641.472	1	13
641.641	1	-11
641.811	1	-4
641.980	1	10
642.150	1	-6
642.319	1	4
642.489	1	2
642.659	1	8
642.828	1	-2
642.998	1	10
643.167	1	1
643.337	1	-3
643.506	1	-1
643.676	1	4
643.845	1	1
644.015	1	8
644.184	1	5
644.354	1	0
644.524	1	0
644.693	1	11
644.863	1	-8
645.032	1	-1
645.202	1	6
645.371	1	-6
645.541	1	4
645.710	1	-6
645.880	1	6
646.049	1	-4
646.219	1	-3
646.388	1	4
646.558	1	4
646.728	1	1
646.897	1	3
647.067	1	6
647.236	1	0
647.406	1	3
647.575	1	6
647.745	1	1
647.914	1	3
648.084	1	0
648.253	1	11
648.423	1	-8
648.592	1	-5
648.762	1	12
648.931	1	13
649.101	1	-1
649.270	1	8
649.440	1	-2
649.610	1	4
649.779	1	8
649.949	1	3
650.118	1	15
650.288	1	4
650.457	1	7
650.627	1	2
650.796	1	15
650.966	1	5
651.135	1	-5
651.305	1	-3
651.474	1	-5
651.644	1	12
651.813	1	6
651.983	1	2
652.152	1	12
652.322	1	1
652.491	1	3
652.661	1	-2
652.830	1	8
653.000	1	-2
653.169	1	-1
653.339	1	18
653.508	1	0
653.678	1	-2
653.847	1	8
654.017	1	8
654.186	1	-9
654.356	1	-4
654.525	1	7
654.695	1	15
654.864	1	2
655.034	1	12
655.203	1	-2
655.373	1	17
655.542	1	1
655.712	1	8
655.881	1	-3
656.051	1	-4
656.220	1	-6
656.390	1	-2
656.559	1	5
656.729	1	9
656.898	1	-3
657.068	1	5
657.237	1	2
657.406	1	3
657.576	1	-2
657.745	1	9
657.915	1	0
658.084	1	-1
658.254	1	-2
658.423	1	10
658.593	1	9
658.762	1	-1
658.932	1	2
659.101	1	6
659.271	1	2
659.440	1	6
659.610	1	1
659.779	1	7
659.949	1	2
660.118	1	7
660.288	1	6
660.457	1	-1
660.626	1	3
660.796	1	-2
660.965	1	4
661.135	1	0
661.304	1	10
661.474	1	0
661.643	1	5
661.813	1	13
661.982	1	11
662.152	1	11
662.321	1	12
662.491	1	2
662.660	1	4
662.829	1	4
662.999	1	-5
663.168	1	4
663.338	1	7
663.507	1	11
663.677	1	0
663.846	1	1
664.016	1	-3
664.185	1	2
664.354	1	4
664.524	1	-4
664.693	1	18
664.863	1	-1
665.032	1	3
665.202	1	8
665.371	1	6
665.541	1	-9
665.710	1	-3
665.879	1	-18
666.049	1	0
666.218	1	-3
666.388	1	13
666.557	1	-5
666.727	1	4
666.896	1	1
667.065	1	-1
667.235	1	8
667.404	1	2
667.574	1	-2
667.743	1	7
667.913	1	5
668.082	1	-2
668.251	1	7
668.421	1	-5
668.590	1	8
668.760	1	3
668.929	1	-9
669.099	1	4
669.268	1	2
669.437	1	6
669.607	1	0
669.776	1	-1
669.946	1	5
670.115	1	-2
670.285	1	10
670.454	1	2
670.623	1	11
670.793	1	4
670.962	1	7
671.132	1	12
671.301	1	-4
671.470	1	2
671.640	1	13
671.809	1	0
671.979	1	-6
672.148	1	5
672.317	1	6
672.487	1	4
672.656	1	12
672.826	1	-6
672.995	1	10
673.164	1	6
673.334	1	4
673.503	1	-1
673.673	1	5
673.842	1	8
674.011	1	1
674.181	1	6
674.350	1	5
674.520	1	7
674.689	1	6
674.858	1	2
675.028	1	1
675.197	1	-6
675.367	1	9
675.536	1	0
675.705	1	2
675.875	1	-1
676.044	1	0
676.214	1	1
676.383	1	3
676.552	1	10
676.722	1	-3
676.891	1	15
677.060	1	9
677.230	1	6
677.399	1	7
677.569	1	-1
677.738	1	6
677.907	1	-1
678.077	1	2
678.246	1	-4
678.416	1	3
678.585	1	1
678.754	1	-2
678.924	1	6
679.093	1	5
679.262	1	-5
679.432	1	-2
679.601	1	5
679.771	1	-3
679.940	1	-1
680.109	1	9
680.279	1	-6
680.448	1	10
680.617	1	2
680.787	1	0
680.956	1	12
681.125	1	6
681.295	1	0
681.464	1	6
681.634	1	3
681.803	1	0
681.972	1	-4
682.142	1	6
682.311	1	8
682.480	1	11
682.650	1	11
682.819	1	8
682.988	1	0
683.158	1	7
683.327	1	-6
683.496	1	-2
683.666	1	0
683.835	1	-3
684.004	1	10
684.174	1	-1
684.343	1	0
684.512	1	5
684.682	1	-8
684.851	1	8
685.021	1	-1
685.190	1	-4
685.359	1	5
685.529	1	9
685.698	1	3
685.867	1	-1
686.037	1	4
686.206	1	2
686.375	1	21
686.545	1	-1
686.714	1	-2
686.883	1	15
687.053	1	4
687.222	1	6
687.391	1	9
687.561	1	11
687.730	1	4
687.899	1	-1
688.069	1	10
688.238	1	0
688.407	1	-1
688.577	1	-1
688.746	1	2
