340.368	1	9
340.539	1	-5
340.710	1	-2
340.881	1	-6
341.052	1	17
341.223	1	5
341.394	1	1
341.565	1	4
341.737	1	9
341.908	1	7
342.079	1	1
342.250	1	-4
342.421	1	4
342.592	1	10
342.763	1	14
342.934	1	9
343.105	1	5
343.276	1	8
343.447	1	0
343.618	1	1
343.789	1	8
343.960	1	12
344.131	1	2
344.302	1	4
344.473	1	-1
344.644	1	6
344.815	1	6
344.986	1	1
345.157	1	5
345.328	1	8
345.499	1	7
345.670	1	-1
345.841	1	15
346.012	1	4
346.183	1	3
346.354	1	0
346.526	1	-4
346.697	1	12
346.868	1	13
347.039	1	8
347.210	1	7
347.381	1	6
347.552	1	6
347.723	1	6
347.894	1	10
348.065	1	4
348.236	1	8
348.407	1	11
348.578	1	11
348.749	1	4
348.920	1	11
349.091	1	-9
349.262	1	3
349.433	1	8
349.604	1	7
349.775	1	18
349.946	1	4
350.117	1	13
350.288	1	23
350.459	1	8
350.630	1	15
350.801	1	9
350.972	1	13
351.143	1	10
351.314	1	16
351.485	1	17
351.656	1	19
351.827	1	14
351.998	1	14
352.169	1	3
352.340	1	7
352.511	1	2
352.682	1	12
352.853	1	7
353.024	1	15
353.195	1	12
353.366	1	24
353.537	1	20
353.708	1	21
353.879	1	19
354.050	1	4
354.221	1	12
354.392	1	10
354.563	1	25
354.734	1	16
354.905	1	29
355.076	1	22
355.247	1	24
355.418	1	19
355.589	1	12
355.760	1	18
355.931	1	20
356.102	1	40
356.273	1	25
356.444	1	19
356.615	1	32
356.785	1	35
356.956	1	23
357.127	1	30
357.298	1	36
357.469	1	21
357.640	1	38
357.811	1	36
357.982	1	25
358.153	1	43
358.324	1	40
358.495	1	39
358.666	1	46
358.837	1	40
359.008	1	33
359.179	1	48
359.350	1	45
359.521	1	58
359.692	1	59
359.863	1	48
360.034	1	52
360.205	1	54
360.376	1	70
360.547	1	63
360.718	1	64
360.889	1	61
361.060	1	67
361.231	1	78
361.401	1	85
361.572	1	87
361.743	1	75
361.914	1	89
362.085	1	113
362.256	1	101
362.427	1	115
362.598	1	99
362.769	1	103
362.940	1	120
363.111	1	128
363.282	1	146
363.453	1	142
363.624	1	161
363.795	1	154
363.966	1	171
364.137	1	174
364.308	1	186
364.478	1	190
364.649	1	205
364.820	1	216
364.991	1	231
365.162	1	243
365.333	1	245
365.504	1	254
365.675	1	260
365.846	1	288
366.017	1	285
366.188	1	292
366.359	1	318
366.530	1	345
366.701	1	342
366.871	1	355
367.042	1	373
367.213	1	402
367.384	1	397
367.555	1	405
367.726	1	426
367.897	1	434
368.068	1	445
368.239	1	473
368.410	1	478
368.581	1	478
368.752	1	474
368.923	1	515
369.093	1	499
369.264	1	521
369.435	1	513
369.606	1	510
369.777	1	501
369.948	1	517
370.119	1	512
370.290	1	500
370.461	1	523
370.632	1	521
370.803	1	489
370.973	1	481
371.144	1	463
371.315	1	452
371.486	1	456
371.657	1	448
371.828	1	433
371.999	1	429
372.170	1	422
372.341	1	395
372.512	1	397
372.682	1	377
372.853	1	377
373.024	1	361
373.195	1	352
373.366	1	353
373.537	1	325
373.708	1	313
373.879	1	319
374.050	1	315
374.220	1	302
374.391	1	296
374.562	1	301
374.733	1	290
374.904	1	274
375.075	1	275
375.246	1	266
375.417	1	256
375.588	1	261
375.758	1	246
375.929	1	235
376.100	1	241
376.271	1	221
376.442	1	212
376.613	1	210
376.784	1	197
376.955	1	185
377.125	1	188
377.296	1	190
377.467	1	190
377.638	1	182
377.809	1	177
377.980	1	165
378.151	1	171
378.321	1	151
378.492	1	154
378.663	1	147
378.834	1	161
379.005	1	137
379.176	1	145
379.347	1	131
379.518	1	121
379.688	1	131
379.859	1	121
380.030	1	118
380.201	1	120
380.372	1	120
380.543	1	120
380.714	1	125
380.884	1	96
381.055	1	109
381.226	1	102
381.397	1	94
381.568	1	114
381.739	1	96
381.910	1	100
382.080	1	103
382.251	1	90
382.422	1	85
382.593	1	89
382.764	1	70
382.935	1	83
383.105	1	86
383.276	1	97
383.447	1	81
383.618	1	86
383.789	1	75
383.960	1	70
384.130	1	78
384.301	1	69
384.472	1	71
384.643	1	76
384.814	1	70
384.985	1	67
385.156	1	61
385.326	1	75
385.497	1	75
385.668	1	65
385.839	1	75
386.010	1	62
386.180	1	60
386.351	1	50
386.522	1	71
386.693	1	55
386.864	1	55
387.035	1	57
387.205	1	54
387.376	1	55
387.547	1	55
387.718	1	49
387.889	1	39
388.060	1	65
388.230	1	65
388.401	1	46
388.572	1	39
388.743	1	51
388.914	1	51
389.084	1	37
389.255	1	26
389.426	1	36
389.597	1	41
389.768	1	30
389.939	1	41
390.109	1	36
390.280	1	40
390.451	1	39
390.622	1	28
390.793	1	36
390.963	1	49
391.134	1	44
391.305	1	38
391.476	1	27
391.647	1	38
391.817	1	26
391.988	1	35
392.159	1	33
392.330	1	43
392.501	1	36
392.671	1	34
392.842	1	29
393.013	1	29
393.184	1	34
393.355	1	40
393.525	1	34
393.696	1	33
393.867	1	30
394.038	1	27
394.208	1	23
394.379	1	26
394.550	1	35
394.721	1	20
394.892	1	41
395.062	1	34
395.233	1	32
395.404	1	25
395.575	1	28
395.746	1	33
395.916	1	25
396.087	1	30
396.258	1	18
396.429	1	34
396.599	1	28
396.770	1	21
396.941	1	20
397.112	1	36
397.283	1	29
397.453	1	23
397.624	1	9
397.795	1	25
397.966	1	20
398.136	1	12
398.307	1	26
398.478	1	23
398.649	1	7
398.819	1	33
398.990	1	21
399.161	1	35
399.332	1	15
399.503	1	20
399.673	1	23
399.844	1	13
400.015	1	17
400.186	1	25
400.356	1	6
400.527	1	14
400.698	1	23
400.869	1	16
401.039	1	11
401.210	1	17
401.381	1	5
401.552	1	-1
401.722	1	12
401.893	1	9
402.064	1	10
402.235	1	11
402.405	1	17
402.576	1	16
402.747	1	8
402.918	1	26
403.088	1	7
403.259	1	25
403.430	1	11
403.601	1	10
403.771	1	16
403.942	1	26
404.113	1	10
404.284	1	21
404.454	1	20
404.625	1	14
404.796	1	15
404.967	1	14
405.137	1	20
405.308	1	10
405.479	1	19
405.649	1	10
405.820	1	0
405.991	1	9
406.162	1	21
406.332	1	14
406.503	1	12
406.674	1	9
406.845	1	18
407.015	1	14
407.186	1	7
407.357	1	7
407.527	1	-1
407.698	1	21
407.869	1	11
408.040	1	7
408.210	1	11
408.381	1	11
408.552	1	14
408.722	1	-9
408.893	1	13
409.064	1	12
409.235	1	11
409.405	1	17
409.576	1	5
409.747	1	4
409.917	1	10
410.088	1	11
410.259	1	2
410.430	1	10
410.600	1	2
410.771	1	16
410.942	1	20
411.112	1	2
411.283	1	7
411.454	1	-3
411.625	1	3
411.795	1	2
411.966	1	13
412.137	1	10
412.307	1	5
412.478	1	24
412.649	1	0
412.819	1	5
412.990	1	14
413.161	1	7
413.332	1	2
413.502	1	2
413.673	1	16
413.844	1	11
414.014	1	8
414.185	1	7
414.356	1	15
414.526	1	11
414.697	1	21
414.868	1	8
415.038	1	15
415.209	1	0
415.380	1	13
415.550	1	6
415.721	1	14
415.892	1	10
416.063	1	4
416.233	1	13
416.404	1	10
416.575	1	19
416.745	1	3
416.916	1	0
417.087	1	7
417.257	1	12
417.428	1	7
417.599	1	11
417.769	1	21
417.940	1	15
418.111	1	5
418.281	1	11
418.452	1	-4
418.623	1	7
418.793	1	7
418.964	1	-5
419.135	1	0
419.305	1	10
419.476	1	12
419.647	1	7
419.817	1	7
419.988	1	6
420.159	1	12
420.329	1	2
420.500	1	13
420.671	1	15
420.841	1	21
421.012	1	11
421.183	1	1
421.353	1	1
421.524	1	-5
421.695	1	5
421.865	1	13
422.036	1	0
422.206	1	8
422.377	1	1
422.548	1	-6
422.718	1	15
422.889	1	1
423.060	1	-3
423.230	1	8
423.401	1	8
423.572	1	6
423.742	1	6
423.913	1	9
424.084	1	5
424.254	1	11
424.425	1	13
424.595	1	2
424.766	1	2
424.937	1	4
425.107	1	0
425.278	1	24
425.449	1	2
425.619	1	2
425.790	1	0
425.961	1	0
426.131	1	7
426.302	1	16
426.472	1	2
426.643	1	15
426.814	1	20
426.984	1	7
427.155	1	4
427.326	1	14
427.496	1	2
427.667	1	16
427.837	1	-1
428.008	1	11
428.179	1	-2
428.349	1	-1
428.520	1	9
428.691	1	11
428.861	1	6
429.032	1	14
429.202	1	7
429.373	1	9
429.544	1	4
429.714	1	4
429.885	1	-1
430.055	1	-7
430.226	1	0
430.397	1	10
430.567	1	9
430.738	1	5
430.909	1	5
431.079	1	-1
431.250	1	-2
431.420	1	-1
431.591	1	11
431.762	1	9
431.932	1	0
432.103	1	4
432.273	1	-3
432.444	1	4
432.615	1	-7
432.785	1	4
432.956	1	-4
433.126	1	-1
433.297	1	3
433.468	1	0
433.638	1	5
433.809	1	7
433.979	1	9
434.150	1	8
434.320	1	13
434.491	1	-2
434.662	1	5
434.832	1	7
435.003	1	5
435.173	1	1
435.344	1	16
435.515	1	15
435.685	1	1
435.856	1	5
436.026	1	6
436.197	1	1
436.368	1	6
436.538	1	-1
436.709	1	4
436.879	1	1
437.050	1	-1
437.220	1	8
437.391	1	2
437.562	1	10
437.732	1	-3
437.903	1	7
438.073	1	3
438.244	1	11
438.414	1	8
438.585	1	1
438.756	1	-2
438.926	1	6
439.097	1	-6
439.267	1	8
439.438	1	4
439.608	1	1
439.779	1	2
439.949	1	16
440.120	1	4
440.291	1	10
440.461	1	8
440.632	1	9
440.802	1	11
440.973	1	-2
441.143	1	19
441.314	1	-6
441.485	1	7
441.655	1	-2
441.826	1	12
441.996	1	10
442.167	1	18
442.337	1	7
442.508	1	3
442.678	1	-4
442.849	1	13
443.019	1	8
443.190	1	12
443.361	1	1
443.531	1	9
443.702	1	7
443.872	1	16
444.043	1	13
444.213	1	-1
444.384	1	-7
444.554	1	15
444.725	1	-2
444.895	1	-3
445.066	1	-8
445.237	1	-2
445.407	1	5
445.578	1	1
445.748	1	-3
445.919	1	-4
446.089	1	17
446.260	1	5
446.430	1	-2
446.601	1	3
446.771	1	20
446.942	1	12
447.112	1	2
447.283	1	3
447.453	1	-9
447.624	1	1
447.794	1	1
447.965	1	2
448.135	1	3
448.306	1	6
448.477	1	6
448.647	1	-1
448.818	1	3
448.988	1	6
449.159	1	5
449.329	1	-3
449.500	1	1
449.670	1	3
449.841	1	3
450.011	1	5
450.182	1	-2
450.352	1	1
450.523	1	3
450.693	1	4
450.864	1	3
451.034	1	-2
451.205	1	17
451.375	1	4
451.546	1	2
451.716	1	3
451.887	1	-11
452.057	1	12
452.228	1	10
452.398	1	2
452.569	1	8
452.739	1	14
452.910	1	4
453.080	1	4
453.251	1	11
453.421	1	-3
453.592	1	7
453.762	1	6
453.933	1	-1
454.103	1	1
454.274	1	-2
454.444	1	-2
454.615	1	6
454.785	1	3
454.956	1	-3
455.126	1	3
455.297	1	16
455.467	1	2
455.638	1	8
455.808	1	3
455.979	1	6
456.149	1	11
456.320	1	-3
456.490	1	8
456.661	1	22
456.831	1	17
457.001	1	1
457.172	1	6
457.342	1	7
457.513	1	17
457.683	1	6
457.854	1	-1
458.024	1	3
458.195	1	-1
458.365	1	6
458.536	1	-4
458.706	1	0
458.877	1	3
459.047	1	16
459.218	1	10
459.388	1	12
459.559	1	14
459.729	1	13
459.899	1	8
460.070	1	-1
460.240	1	4
460.411	1	-4
460.581	1	21
460.752	1	11
460.922	1	9
461.093	1	7
461.263	1	4
461.434	1	3
461.604	1	-2
461.775	1	7
461.945	1	5
462.115	1	12
462.286	1	2
462.456	1	-1
462.627	1	9
462.797	1	-6
462.968	1	-3
463.138	1	-6
463.309	1	-2
463.479	1	2
463.649	1	4
463.820	1	0
463.990	1	5
464.161	1	1
464.331	1	5
464.502	1	9
464.672	1	7
464.843	1	11
465.013	1	-9
465.183	1	4
465.354	1	9
465.524	1	11
465.695	1	-2
465.865	1	5
466.036	1	-4
466.206	1	10
466.376	1	1
466.547	1	-2
466.717	1	5
466.888	1	15
467.058	1	5
467.229	1	-9
467.399	1	14
467.569	1	10
467.740	1	4
467.910	1	2
468.081	1	-1
468.251	1	4
468.422	1	0
468.592	1	6
468.762	1	1
468.933	1	8
469.103	1	-1
469.274	1	11
469.444	1	2
469.614	1	7
469.785	1	-7
469.955	1	2
470.126	1	-1
470.296	1	-3
470.467	1	2
470.637	1	0
470.807	1	12
470.978	1	6
471.148	1	11
471.319	1	7
471.489	1	12
471.659	1	0
471.830	1	4
472.000	1	3
472.171	1	5
472.341	1	-2
472.511	1	0
472.682	1	7
472.852	1	4
473.023	1	0
473.193	1	13
473.363	1	1
473.534	1	3
473.704	1	-5
473.875	1	16
474.045	1	-6
474.215	1	9
474.386	1	21
474.556	1	0
474.727	1	3
474.897	1	13
475.067	1	7
475.238	1	0
475.408	1	5
475.578	1	1
475.749	1	4
475.919	1	9
476.090	1	12
476.260	1	6
476.430	1	7
476.601	1	16
476.771	1	5
476.942	1	12
477.112	1	10
477.282	1	5
477.453	1	-1
477.623	1	-1
477.793	1	13
477.964	1	8
478.134	1	3
478.305	1	7
478.475	1	7
478.645	1	17
478.816	1	11
478.986	1	-1
479.156	1	17
479.327	1	0
479.497	1	0
479.667	1	3
479.838	1	4
480.008	1	7
480.179	1	16
480.349	1	6
480.519	1	9
480.690	1	9
480.860	1	4
481.030	1	3
481.201	1	3
481.371	1	5
481.541	1	4
481.712	1	10
481.882	1	17
482.053	1	13
482.223	1	0
482.393	1	3
482.564	1	19
482.734	1	-10
482.904	1	6
483.075	1	8
483.245	1	14
483.415	1	10
483.586	1	7
483.756	1	14
483.926	1	12
484.097	1	7
484.267	1	1
484.437	1	1
484.608	1	9
484.778	1	14
484.948	1	1
485.119	1	5
485.289	1	8
485.459	1	21
485.630	1	4
485.800	1	9
485.970	1	10
486.141	1	9
486.311	1	4
486.481	1	11
486.652	1	10
486.822	1	14
486.992	1	14
487.163	1	6
487.333	1	10
487.503	1	9
487.674	1	6
487.844	1	8
488.014	1	7
488.185	1	12
488.355	1	13
488.525	1	7
488.696	1	9
488.866	1	7
489.036	1	14
489.207	1	4
489.377	1	-1
489.547	1	20
489.718	1	6
489.888	1	8
490.058	1	11
490.228	1	11
490.399	1	7
490.569	1	16
490.739	1	9
490.910	1	11
491.080	1	13
491.250	1	22
491.421	1	7
491.591	1	3
491.761	1	13
491.932	1	14
492.102	1	3
492.272	1	17
492.442	1	12
492.613	1	9
492.783	1	17
492.953	1	4
493.124	1	6
493.294	1	13
493.464	1	26
493.635	1	12
493.805	1	11
493.975	1	5
494.145	1	10
494.316	1	8
494.486	1	20
494.656	1	15
494.827	1	11
494.997	1	5
495.167	1	15
495.337	1	21
495.508	1	11
495.678	1	11
495.848	1	25
496.019	1	12
496.189	1	16
496.359	1	12
496.529	1	11
496.700	1	9
496.870	1	11
497.040	1	17
497.211	1	14
497.381	1	14
497.551	1	24
497.721	1	13
497.892	1	13
498.062	1	5
498.232	1	11
498.403	1	18
498.573	1	4
498.743	1	20
498.913	1	20
499.084	1	13
499.254	1	15
499.424	1	18
499.594	1	20
499.765	1	10
499.935	1	17
500.105	1	6
500.275	1	16
500.446	1	6
500.616	1	15
500.786	1	7
500.956	1	8
501.127	1	15
501.297	1	9
501.467	1	14
501.638	1	18
501.808	1	20
501.978	1	18
502.148	1	10
502.319	1	23
502.489	1	20
502.659	1	20
502.829	1	23
503.000	1	19
503.170	1	25
503.340	1	25
503.510	1	19
503.681	1	10
503.851	1	17
504.021	1	16
504.191	1	25
504.362	1	16
504.532	1	26
504.702	1	15
504.872	1	18
505.042	1	18
505.213	1	16
505.383	1	15
505.553	1	13
505.723	1	13
505.894	1	12
506.064	1	17
506.234	1	27
506.404	1	22
506.575	1	22
506.745	1	25
506.915	1	25
507.085	1	5
507.256	1	24
507.426	1	16
507.596	1	25
507.766	1	18
507.936	1	18
508.107	1	23
508.277	1	14
508.447	1	26
508.617	1	29
508.788	1	32
508.958	1	11
509.128	1	21
509.298	1	16
509.468	1	24
509.639	1	16
509.809	1	24
509.979	1	26
510.149	1	19
510.319	1	22
510.490	1	26
510.660	1	13
510.830	1	22
511.000	1	15
511.171	1	29
511.341	1	26
511.511	1	24
511.681	1	36
511.851	1	22
512.022	1	12
512.192	1	27
512.362	1	10
512.532	1	12
512.702	1	14
512.873	1	33
513.043	1	26
513.213	1	13
513.383	1	21
513.553	1	15
513.724	1	22
513.894	1	14
514.064	1	37
514.234	1	18
514.404	1	30
514.575	1	24
514.745	1	17
514.915	1	33
515.085	1	26
515.255	1	17
515.425	1	28
515.596	1	29
515.766	1	16
515.936	1	22
516.106	1	27
516.276	1	10
516.447	1	31
516.617	1	46
516.787	1	18
516.957	1	21
517.127	1	28
517.297	1	18
517.468	1	19
517.638	1	25
517.808	1	16
517.978	1	24
518.148	1	29
518.319	1	31
518.489	1	20
518.659	1	31
518.829	1	37
518.999	1	30
519.169	1	27
519.340	1	34
519.510	1	32
519.680	1	28
519.850	1	32
520.020	1	37
520.190	1	26
520.361	1	32
520.531	1	26
520.701	1	24
520.871	1	28
521.041	1	44
521.211	1	28
521.382	1	22
521.552	1	33
521.722	1	31
521.892	1	35
522.062	1	38
522.232	1	40
522.402	1	33
522.573	1	33
522.743	1	31
522.913	1	31
523.083	1	24
523.253	1	33
523.423	1	32
523.593	1	38
523.764	1	32
523.934	1	35
524.104	1	31
524.274	1	29
524.444	1	29
524.614	1	21
524.784	1	26
524.955	1	28
525.125	1	35
525.295	1	36
525.465	1	36
525.635	1	37
525.805	1	29
525.975	1	28
526.146	1	28
526.316	1	45
526.486	1	31
526.656	1	32
526.826	1	24
526.996	1	39
527.166	1	37
527.337	1	32
527.507	1	28
527.677	1	42
527.847	1	34
528.017	1	26
528.187	1	39
528.357	1	35
528.527	1	43
528.698	1	44
528.868	1	33
529.038	1	39
529.208	1	39
529.378	1	43
529.548	1	34
529.718	1	38
529.888	1	44
530.058	1	38
530.229	1	34
530.399	1	41
530.569	1	21
530.739	1	37
530.909	1	29
531.079	1	47
531.249	1	30
531.419	1	47
531.589	1	46
531.760	1	34
531.930	1	33
532.100	1	40
532.270	1	36
532.440	1	35
532.610	1	38
532.780	1	38
532.950	1	40
533.120	1	46
533.290	1	49
533.461	1	39
533.631	1	41
533.801	1	59
533.971	1	42
534.141	1	30
534.311	1	41
534.481	1	39
534.651	1	28
534.821	1	40
534.991	1	41
535.162	1	40
535.332	1	31
535.502	1	36
535.672	1	48
535.842	1	46
536.012	1	43
536.182	1	37
536.352	1	38
536.522	1	34
536.692	1	35
536.862	1	47
537.032	1	47
537.203	1	31
537.373	1	44
537.543	1	38
537.713	1	42
537.883	1	34
538.053	1	32
538.223	1	36
538.393	1	40
538.563	1	37
538.733	1	41
538.903	1	37
539.073	1	38
539.243	1	30
539.413	1	38
539.584	1	29
539.754	1	38
539.924	1	49
540.094	1	34
540.264	1	36
540.434	1	37
540.604	1	42
540.774	1	42
540.944	1	31
541.114	1	30
541.284	1	40
541.454	1	37
541.624	1	40
541.794	1	39
541.964	1	44
542.134	1	36
542.305	1	39
542.475	1	36
542.645	1	38
542.815	1	34
542.985	1	39
543.155	1	42
543.325	1	39
543.495	1	35
543.665	1	40
543.835	1	43
544.005	1	39
544.175	1	31
544.345	1	38
544.515	1	36
544.685	1	44
544.855	1	38
545.025	1	40
545.195	1	27
545.365	1	46
545.535	1	51
545.705	1	31
545.875	1	30
546.045	1	23
546.216	1	35
546.386	1	53
546.556	1	35
546.726	1	36
546.896	1	42
547.066	1	38
547.236	1	52
547.406	1	44
547.576	1	53
547.746	1	32
547.916	1	28
548.086	1	47
548.256	1	40
548.426	1	36
548.596	1	42
548.766	1	42
548.936	1	49
549.106	1	34
549.276	1	34
549.446	1	43
549.616	1	38
549.786	1	43
549.956	1	48
550.126	1	64
550.296	1	43
550.466	1	40
550.636	1	45
550.806	1	39
550.976	1	48
551.146	1	50
551.316	1	49
551.486	1	43
551.656	1	50
551.826	1	51
551.996	1	59
552.166	1	50
552.336	1	40
552.506	1	51
552.676	1	56
552.846	1	45
553.016	1	41
553.186	1	44
553.356	1	64
553.526	1	46
553.696	1	52
553.866	1	47
554.036	1	45
554.206	1	47
554.376	1	39
554.546	1	47
554.716	1	42
554.886	1	39
555.056	1	46
555.226	1	33
555.396	1	44
555.566	1	46
555.736	1	42
555.906	1	42
556.076	1	43
556.246	1	42
556.416	1	36
556.586	1	43
556.756	1	35
556.926	1	43
557.096	1	45
557.266	1	33
557.436	1	44
557.606	1	47
557.776	1	34
557.946	1	44
558.116	1	37
558.286	1	46
558.456	1	37
558.626	1	39
558.796	1	47
558.966	1	42
559.136	1	45
559.306	1	36
559.476	1	34
559.646	1	37
559.816	1	44
559.986	1	34
560.155	1	44
560.325	1	34
560.495	1	39
560.665	1	46
560.835	1	49
561.005	1	39
561.175	1	42
561.345	1	44
561.515	1	37
561.685	1	40
561.855	1	31
562.025	1	36
562.195	1	47
562.365	1	37
562.535	1	28
562.705	1	36
562.875	1	33
563.045	1	33
563.215	1	55
563.385	1	34
563.555	1	34
563.725	1	43
563.895	1	41
564.064	1	37
564.234	1	53
564.404	1	48
564.574	1	36
564.744	1	55
564.914	1	38
565.084	1	37
565.254	1	50
565.424	1	43
565.594	1	51
565.764	1	31
565.934	1	50
566.104	1	38
566.274	1	47
566.444	1	41
566.614	1	41
566.783	1	28
566.953	1	51
567.123	1	45
567.293	1	56
567.463	1	49
567.633	1	45
567.803	1	42
567.973	1	32
568.143	1	42
568.313	1	46
568.483	1	45
568.653	1	43
568.823	1	38
568.993	1	49
569.162	1	47
569.332	1	37
569.502	1	29
569.672	1	49
569.842	1	37
570.012	1	44
570.182	1	42
570.352	1	37
570.522	1	33
570.692	1	47
570.862	1	43
571.031	1	46
571.201	1	42
571.371	1	40
571.541	1	46
571.711	1	44
571.881	1	59
572.051	1	36
572.221	1	35
572.391	1	33
572.561	1	32
572.731	1	38
572.900	1	33
573.070	1	44
573.240	1	39
573.410	1	55
573.580	1	37
573.750	1	42
573.920	1	42
574.090	1	39
574.260	1	44
574.430	1	40
574.599	1	42
574.769	1	37
574.939	1	48
575.109	1	34
575.279	1	47
575.449	1	30
575.619	1	42
575.789	1	38
575.959	1	30
576.128	1	26
576.298	1	46
576.468	1	38
576.638	1	40
576.808	1	42
576.978	1	40
577.148	1	46
577.318	1	47
577.487	1	36
577.657	1	30
577.827	1	35
577.997	1	40
578.167	1	34
578.337	1	55
578.507	1	44
578.677	1	36
578.846	1	37
579.016	1	45
579.186	1	34
579.356	1	37
579.526	1	40
579.696	1	44
579.866	1	44
580.036	1	35
580.205	1	45
580.375	1	44
580.545	1	33
580.715	1	33
580.885	1	46
581.055	1	39
581.225	1	29
581.394	1	25
581.564	1	53
581.734	1	39
581.904	1	43
582.074	1	34
582.244	1	33
582.414	1	47
582.583	1	53
582.753	1	41
582.923	1	37
583.093	1	28
583.263	1	34
583.433	1	42
583.603	1	30
583.772	1	53
583.942	1	37
584.112	1	28
584.282	1	29
584.452	1	42
584.622	1	41
584.791	1	32
584.961	1	41
585.131	1	43
585.301	1	40
585.471	1	48
585.641	1	40
585.811	1	51
585.980	1	35
586.150	1	34
586.320	1	38
586.490	1	40
586.660	1	46
586.830	1	41
586.999	1	26
587.169	1	41
587.339	1	36
587.509	1	29
587.679	1	38
587.849	1	38
588.018	1	44
588.188	1	46
588.358	1	32
588.528	1	41
588.698	1	44
588.867	1	49
589.037	1	45
589.207	1	36
589.377	1	42
589.547	1	38
589.717	1	38
589.886	1	36
590.056	1	30
590.226	1	41
590.396	1	40
590.566	1	35
590.735	1	29
590.905	1	28
591.075	1	30
591.245	1	34
591.415	1	39
591.585	1	36
591.754	1	36
591.924	1	37
592.094	1	25
592.264	1	30
592.434	1	27
592.603	1	36
592.773	1	35
592.943	1	34
593.113	1	38
593.283	1	34
593.452	1	37
593.622	1	31
593.792	1	40
593.962	1	26
594.132	1	32
594.301	1	39
594.471	1	42
594.641	1	29
594.811	1	40
594.981	1	27
595.150	1	30
595.320	1	23
595.490	1	39
595.660	1	30
595.829	1	30
595.999	1	18
596.169	1	27
596.339	1	33
596.509	1	39
596.678	1	15
596.848	1	30
597.018	1	27
597.188	1	24
597.358	1	29
597.527	1	21
597.697	1	24
597.867	1	29
598.037	1	24
598.206	1	34
598.376	1	34
598.546	1	29
598.716	1	40
598.885	1	17
599.055	1	37
599.225	1	17
599.395	1	38
599.565	1	28
599.734	1	30
599.904	1	28
600.074	1	33
600.244	1	25
600.413	1	38
600.583	1	39
600.753	1	40
600.923	1	33
601.092	1	36
601.262	1	35
601.432	1	31
601.602	1	40
601.771	1	39
601.941	1	25
602.111	1	38
602.281	1	32
602.451	1	39
602.620	1	31
602.790	1	27
602.960	1	30
603.130	1	37
603.299	1	34
603.469	1	32
603.639	1	23
603.809	1	36
603.978	1	30
604.148	1	25
604.318	1	36
604.487	1	29
604.657	1	35
604.827	1	39
604.997	1	33
605.166	1	35
605.336	1	40
605.506	1	39
605.676	1	18
605.845	1	35
606.015	1	34
606.185	1	45
606.355	1	43
606.524	1	29
606.694	1	32
606.864	1	33
607.034	1	30
607.203	1	37
607.373	1	33
607.543	1	28
607.712	1	29
607.882	1	35
608.052	1	25
608.222	1	32
608.391	1	30
608.561	1	27
608.731	1	27
608.901	1	35
609.070	1	42
609.240	1	28
609.410	1	34
609.579	1	35
609.749	1	30
609.919	1	41
610.089	1	29
610.258	1	34
610.428	1	35
610.598	1	25
610.767	1	31
610.937	1	27
611.107	1	40
611.277	1	31
611.446	1	40
611.616	1	19
611.786	1	39
611.955	1	28
612.125	1	22
612.295	1	19
612.465	1	36
612.634	1	26
612.804	1	34
612.974	1	21
613.143	1	24
613.313	1	30
613.483	1	35
613.652	1	24
613.822	1	28
613.992	1	21
614.162	1	31
614.331	1	22
614.501	1	24
614.671	1	28
614.840	1	34
615.010	1	23
615.180	1	28
615.349	1	26
615.519	1	17
615.689	1	32
615.858	1	24
616.028	1	28
616.198	1	22
616.368	1	20
616.537	1	35
616.707	1	21
616.877	1	17
617.046	1	27
617.216	1	20
617.386	1	22
617.555	1	29
617.725	1	28
617.895	1	21
618.064	1	22
618.234	1	23
618.404	1	22
618.573	1	24
618.743	1	31
618.913	1	32
619.082	1	21
619.252	1	26
619.422	1	23
619.591	1	11
619.761	1	33
619.931	1	25
620.100	1	30
620.270	1	19
620.440	1	22
620.609	1	24
620.779	1	19
620.949	1	15
621.118	1	24
621.288	1	28
621.458	1	18
621.627	1	30
621.797	1	28
621.967	1	24
622.136	1	42
622.306	1	28
622.476	1	28
622.645	1	28
622.815	1	26
622.985	1	26
623.154	1	28
623.324	1	22
623.494	1	37
623.663	1	23
623.833	1	27
624.002	1	16
624.172	1	21
624.342	1	29
624.511	1	25
624.681	1	6
624.851	1	15
625.020	1	20
625.190	1	15
625.360	1	30
625.529	1	17
625.699	1	17
625.869	1	35
626.038	1	8
626.208	1	16
626.377	1	25
626.547	1	18
626.717	1	20
626.886	1	15
627.056	1	10
627.226	1	22
627.395	1	26
627.565	1	20
627.735	1	21
627.904	1	13
628.074	1	19
628.243	1	18
628.413	1	21
628.583	1	19
628.752	1	18
628.922	1	16
629.091	1	11
629.261	1	18
629.431	1	16
629.600	1	28
629.770	1	-1
629.940	1	18
630.109	1	5
630.279	1	17
630.448	1	17
630.618	1	12
630.788	1	30
630.957	1	14
631.127	1	20
631.297	1	10
631.466	1	22
631.636	1	12
631.805	1	17
631.975	1	25
632.145	1	8
632.314	1	12
632.484	1	6
632.653	1	18
632.823	1	20
632.993	1	15
633.162	1	20
633.332	1	22
633.501	1	17
633.671	1	13
633.841	1	12
634.010	1	11
634.180	1	15
634.349	1	19
634.519	1	12
634.689	1	11
634.858	1	16
635.028	1	20
635.197	1	18
635.367	1	11
635.537	1	8
635.706	1	13
635.876	1	20
636.045	1	20
636.215	1	20
636.384	1	7
636.554	1	25
636.724	1	14
636.893	1	21
637.063	1	14
637.232	1	18
637.402	1	29
637.572	1	20
637.741	1	22
637.911	1	23
638.080	1	10
638.250	1	6
638.419	1	26
638.589	1	11
638.759	1	7
638.928	1	16
639.098	1	20
639.267	1	19
639.437	1	17
639.606	1	25
639.776	1	18
639.946	1	16
640.115	1	19
640.285	1	20
640.454	1	8
640.624	1	18
640.793	1	20
640.963	1	13
641.132	1	18
641.302	1	18
641.472	1	14
641.641	1	8
641.811	1	7
641.980	1	23
642.150	1	9
642.319	1	12
642.489	1	18
642.659	1	26
642.828	1	9
642.998	1	23
643.167	1	10
643.337	1	18
643.506	1	4
643.676	1	14
643.845	1	10
644.015	1	19
644.184	1	16
644.354	1	8
644.524	1	16
644.693	1	18
644.863	1	8
645.032	1	13
645.202	1	18
645.371	1	11
645.541	1	17
645.710	1	22
645.880	1	11
646.049	1	5
646.219	1	15
646.388	1	21
646.558	1	17
646.728	1	12
646.897	1	19
647.067	1	14
647.236	1	19
647.406	1	6
647.575	1	21
647.745	1	15
647.914	1	15
648.084	1	13
648.253	1	24
648.423	1	5
648.592	1	13
648.762	1	10
648.931	1	20
649.101	1	5
649.270	1	15
649.440	1	12
649.610	1	13
649.779	1	12
649.949	1	12
650.118	1	23
650.288	1	15
650.457	1	13
650.627	1	7
650.796	1	8
650.966	1	20
651.135	1	9
651.305	1	7
651.474	1	8
651.644	1	30
651.813	1	15
651.983	1	22
652.152	1	9
652.322	1	3
652.491	1	12
652.661	1	14
652.830	1	9
653.000	1	11
653.169	1	12
653.339	1	18
653.508	1	11
653.678	1	17
653.847	1	30
654.017	1	13
654.186	1	4
654.356	1	19
654.525	1	6
654.695	1	16
654.864	1	19
655.034	1	11
655.203	1	13
655.373	1	9
655.542	1	13
655.712	1	20
655.881	1	-4
656.051	1	16
656.220	1	8
656.390	1	17
656.559	1	15
656.729	1	17
656.898	1	5
657.068	1	21
657.237	1	5
657.406	1	12
657.576	1	13
657.745	1	-4
657.915	1	16
658.084	1	20
658.254	1	10
658.423	1	17
658.593	1	5
658.762	1	9
658.932	1	6
659.101	1	21
659.271	1	13
659.440	1	16
659.610	1	11
659.779	1	18
659.949	1	9
660.118	1	15
660.288	1	27
660.457	1	9
660.626	1	16
660.796	1	6
660.965	1	15
661.135	1	8
661.304	1	9
661.474	1	16
661.643	1	10
661.813	1	14
661.982	1	10
662.152	1	18
662.321	1	10
662.491	1	7
662.660	1	13
662.829	1	1
662.999	1	4
663.168	1	16
663.338	1	20
663.507	1	17
663.677	1	12
663.846	1	2
664.016	1	11
664.185	1	6
664.354	1	13
664.524	1	10
664.693	1	17
664.863	1	14
665.032	1	14
665.202	1	16
665.371	1	17
665.541	1	2
665.710	1	8
665.879	1	3
666.049	1	7
666.218	1	6
666.388	1	9
666.557	1	9
666.727	1	12
666.896	1	7
667.065	1	14
667.235	1	13
667.404	1	9
667.574	1	14
667.743	1	9
667.913	1	10
668.082	1	13
668.251	1	0
668.421	1	9
668.590	1	4
668.760	1	9
668.929	1	1
669.099	1	17
669.268	1	10
669.437	1	15
669.607	1	12
669.776	1	13
669.946	1	10
670.115	1	18
670.285	1	15
670.454	1	13
670.623	1	11
670.793	1	8
670.962	1	12
671.132	1	20
671.301	1	8
671.470	1	12
671.640	1	18
671.809	1	11
671.979	1	6
672.148	1	9
672.317	1	11
672.487	1	13
672.656	1	14
672.826	1	12
672.995	1	19
673.164	1	9
673.334	1	10
673.503	1	18
673.673	1	10
673.842	1	14
674.011	1	7
674.181	1	14
674.350	1	16
674.520	1	15
674.689	1	20
674.858	1	15
675.028	1	8
675.197	1	3
675.367	1	15
675.536	1	13
675.705	1	13
675.875	1	10
676.044	1	12
676.214	1	4
676.383	1	9
676.552	1	13
676.722	1	20
676.891	1	23
677.060	1	13
677.230	1	8
677.399	1	6
677.569	1	6
677.738	1	16
677.907	1	14
678.077	1	17
678.246	1	11
678.416	1	18
678.585	1	19
678.754	1	10
678.924	1	14
679.093	1	18
679.262	1	5
679.432	1	8
679.601	1	11
679.771	1	11
679.940	1	10
680.109	1	25
680.279	1	3
680.448	1	1
680.617	1	14
680.787	1	11
680.956	1	15
681.125	1	21
681.295	1	12
681.464	1	10
681.634	1	13
681.803	1	17
681.972	1	-1
682.142	1	24
682.311	1	12
682.480	1	25
682.650	1	18
682.819	1	20
682.988	1	10
683.158	1	4
683.327	1	3
683.496	1	16
683.666	1	10
683.835	1	11
684.004	1	10
684.174	1	9
684.343	1	16
684.512	1	11
684.682	1	4
684.851	1	20
685.021	1	10
685.190	1	2
685.359	1	22
685.529	1	15
685.698	1	13
685.867	1	18
686.037	1	17
686.206	1	18
686.375	1	26
686.545	1	2
686.714	1	8
686.883	1	6
687.053	1	8
687.222	1	14
687.391	1	21
687.561	1	22
687.730	1	13
687.899	1	15
688.069	1	21
688.238	1	31
688.407	1	2
688.577	1	12
688.746	1	13
