340.368	1	5
340.539	1	-6
340.710	1	-4
340.881	1	-11
341.052	1	5
341.223	1	-6
341.394	1	-12
341.565	1	-12
341.737	1	6
341.908	1	5
342.079	1	1
342.250	1	-6
342.421	1	-1
342.592	1	3
342.763	1	6
342.934	1	7
343.105	1	1
343.276	1	2
343.447	1	-4
343.618	1	-5
343.789	1	-4
343.960	1	6
344.131	1	6
344.302	1	-4
344.473	1	-4
344.644	1	7
344.815	1	2
344.986	1	2
345.157	1	-4
345.328	1	4
345.499	1	-5
345.670	1	-11
345.841	1	11
346.012	1	12
346.183	1	-8
346.354	1	3
346.526	1	0
346.697	1	2
346.868	1	7
347.039	1	6
347.210	1	-10
347.381	1	-2
347.552	1	-4
347.723	1	3
347.894	1	-5
348.065	1	3
348.236	1	-1
348.407	1	8
348.578	1	-5
348.749	1	-6
348.920	1	-3
349.091	1	-10
349.262	1	0
349.433	1	7
349.604	1	-2
349.775	1	9
349.946	1	-8
350.117	1	6
350.288	1	10
350.459	1	-3
350.630	1	-2
350.801	1	0
350.972	1	-2
351.143	1	4
351.314	1	2
351.485	1	7
351.656	1	11
351.827	1	5
351.998	1	7
352.169	1	2
352.340	1	16
352.511	1	-5
352.682	1	2
352.853	1	9
353.024	1	8
353.195	1	16
353.366	1	12
353.537	1	3
353.708	1	-5
353.879	1	3
354.050	1	-3
354.221	1	-5
354.392	1	-3
354.563	1	-2
354.734	1	-1
354.905	1	3
355.076	1	2
355.247	1	4
355.418	1	-15
355.589	1	-10
355.760	1	-10
355.931	1	-3
356.102	1	14
356.273	1	-3
356.444	1	8
356.615	1	-3
356.785	1	11
356.956	1	-3
357.127	1	-1
357.298	1	6
357.469	1	11
357.640	1	5
357.811	1	0
357.982	1	-2
358.153	1	12
358.324	1	2
358.495	1	1
358.666	1	10
358.837	1	-9
359.008	1	-7
359.179	1	2
359.350	1	-6
359.521	1	9
359.692	1	14
359.863	1	5
360.034	1	7
360.205	1	-3
360.376	1	0
360.547	1	5
360.718	1	6
360.889	1	6
361.060	1	3
361.231	1	5
361.401	1	2
361.572	1	10
361.743	1	15
361.914	1	13
362.085	1	22
362.256	1	11
362.427	1	22
362.598	1	6
362.769	1	5
362.940	1	4
363.111	1	8
363.282	1	13
363.453	1	13
363.624	1	21
363.795	1	10
363.966	1	11
364.137	1	17
364.308	1	13
364.478	1	16
364.649	1	20
364.820	1	8
364.991	1	11
365.162	1	24
365.333	1	18
365.504	1	28
365.675	1	1
365.846	1	19
366.017	1	24
366.188	1	14
366.359	1	17
366.530	1	32
366.701	1	17
366.871	1	24
367.042	1	26
367.213	1	29
367.384	1	29
367.555	1	25
367.726	1	30
367.897	1	25
368.068	1	35
368.239	1	35
368.410	1	44
368.581	1	19
368.752	1	25
368.923	1	32
369.093	1	29
369.264	1	26
369.435	1	23
369.606	1	25
369.777	1	37
369.948	1	27
370.119	1	33
370.290	1	29
370.461	1	43
370.632	1	33
370.803	1	36
370.973	1	22
371.144	1	27
371.315	1	27
371.486	1	30
371.657	1	35
371.828	1	36
371.999	1	31
372.170	1	31
372.341	1	24
372.512	1	22
372.682	1	33
372.853	1	27
373.024	1	32
373.195	1	19
373.366	1	31
373.537	1	29
373.708	1	3
373.879	1	20
374.050	1	25
374.220	1	30
374.391	1	25
374.562	1	31
374.733	1	25
374.904	1	29
375.075	1	23
375.246	1	20
375.417	1	20
375.588	1	21
375.758	1	22
375.929	1	16
376.100	1	21
376.271	1	14
376.442	1	23
376.613	1	19
376.784	1	19
376.955	1	11
377.125	1	13
377.296	1	9
377.467	1	11
377.638	1	13
377.809	1	24
377.980	1	14
378.151	1	13
378.321	1	2
378.492	1	15
378.663	1	9
378.834	1	-5
379.005	1	15
379.176	1	2
379.347	1	10
379.518	1	9
379.688	1	15
379.859	1	17
380.030	1	13
380.201	1	10
380.372	1	7
380.543	1	20
380.714	1	11
380.884	1	6
381.055	1	18
381.226	1	1
381.397	1	10
381.568	1	1
381.739	1	7
381.910	1	3
382.080	1	6
382.251	1	2
382.422	1	16
382.593	1	-2
382.764	1	9
382.935	1	-1
383.105	1	3
383.276	1	4
383.447	1	1
383.618	1	15
383.789	1	5
383.960	1	2
384.130	1	15
384.301	1	6
384.472	1	0
384.643	1	14
384.814	1	-3
384.985	1	-6
385.156	1	8
385.326	1	13
385.497	1	8
385.668	1	8
385.839	1	-5
386.010	1	1
386.180	1	4
386.351	1	11
386.522	1	8
386.693	1	-2
386.864	1	19
387.035	1	-1
387.205	1	6
387.376	1	4
387.547	1	-7
387.718	1	6
387.889	1	-4
388.060	1	12
388.230	1	6
388.401	1	0
388.572	1	-4
388.743	1	4
388.914	1	6
389.084	1	11
389.255	1	-8
389.426	1	-2
389.597	1	7
389.768	1	8
389.939	1	-4
390.109	1	7
390.280	1	9
390.451	1	1
390.622	1	3
390.793	1	1
390.963	1	10
391.134	1	9
391.305	1	8
391.476	1	-8
391.647	1	-1
391.817	1	9
391.988	1	5
392.159	1	-10
392.330	1	9
392.501	1	5
392.671	1	-2
392.842	1	-11
393.013	1	-11
393.184	1	9
393.355	1	9
393.525	1	8
393.696	1	14
393.867	1	-5
394.038	1	4
394.208	1	3
394.379	1	7
394.550	1	6
394.721	1	-5
394.892	1	10
395.062	1	6
395.233	1	3
395.404	1	2
395.575	1	10
395.746	1	5
395.916	1	-10
396.087	1	-3
396.258	1	6
396.429	1	8
396.599	1	-2
396.770	1	-1
396.941	1	4
397.112	1	14
397.283	1	-2
397.453	1	13
397.624	1	-5
397.795	1	6
397.966	1	3
398.136	1	3
398.307	1	-7
398.478	1	-2
398.649	1	-5
398.819	1	3
398.990	1	5
399.161	1	15
399.332	1	5
399.503	1	12
399.673	1	-3
399.844	1	0
400.015	1	-1
400.186	1	9
400.356	1	-9
400.527	1	-3
400.698	1	0
400.869	1	-5
401.039	1	3
401.210	1	0
401.381	1	7
401.552	1	-3
401.722	1	-2
401.893	1	-5
402.064	1	2
402.235	1	4
402.405	1	-1
402.576	1	4
402.747	1	-9
402.918	1	10
403.088	1	1
403.259	1	2
403.430	1	-6
403.601	1	-3
403.771	1	9
403.942	1	7
404.113	1	2
404.284	1	0
404.454	1	5
404.625	1	4
404.796	1	4
404.967	1	1
405.137	1	12
405.308	1	-2
405.479	1	-3
405.649	1	-1
405.820	1	-8
405.991	1	-5
406.162	1	7
406.332	1	4
406.503	1	1
406.674	1	-1
406.845	1	6
407.015	1	6
407.186	1	0
407.357	1	1
407.527	1	4
407.698	1	12
407.869	1	-8
408.040	1	0
408.210	1	10
408.381	1	1
408.552	1	-8
408.722	1	-11
408.893	1	-1
409.064	1	0
409.235	1	3
409.405	1	8
409.576	1	-8
409.747	1	-7
409.917	1	-6
410.088	1	7
410.259	1	0
410.430	1	14
410.600	1	-6
410.771	1	0
410.942	1	3
411.112	1	5
411.283	1	6
411.454	1	4
411.625	1	1
411.795	1	0
411.966	1	5
412.137	1	8
412.307	1	-2
412.478	1	12
412.649	1	-4
412.819	1	-11
412.990	1	10
413.161	1	-1
413.332	1	0
413.502	1	7
413.673	1	9
413.844	1	8
414.014	1	-1
414.185	1	0
414.356	1	3
414.526	1	-2
414.697	1	5
414.868	1	3
415.038	1	1
415.209	1	-3
415.380	1	-4
415.550	1	-1
415.721	1	13
415.892	1	6
416.063	1	5
416.233	1	9
416.404	1	1
416.575	1	14
416.745	1	-1
416.916	1	-2
417.087	1	2
417.257	1	3
417.428	1	-1
417.599	1	3
417.769	1	6
417.940	1	7
418.111	1	-2
418.281	1	1
418.452	1	-5
418.623	1	-7
418.793	1	-5
418.964	1	-11
419.135	1	-13
419.305	1	7
419.476	1	6
419.647	1	1
419.817	1	1
419.988	1	2
420.159	1	2
420.329	1	-9
420.500	1	-1
420.671	1	4
420.841	1	15
421.012	1	7
421.183	1	10
421.353	1	0
421.524	1	-6
421.695	1	1
421.865	1	9
422.036	1	-2
422.206	1	-8
422.377	1	2
422.548	1	-1
422.718	1	7
422.889	1	-8
423.060	1	3
423.230	1	-1
423.401	1	1
423.572	1	3
423.742	1	-1
423.913	1	-3
424.084	1	-3
424.254	1	7
424.425	1	5
424.595	1	-1
424.766	1	-2
424.937	1	1
425.107	1	3
425.278	1	10
425.449	1	-3
425.619	1	-3
425.790	1	-6
425.961	1	-7
426.131	1	2
426.302	1	13
426.472	1	3
426.643	1	2
426.814	1	-3
426.984	1	-2
427.155	1	-9
427.326	1	15
427.496	1	-7
427.667	1	7
427.837	1	4
428.008	1	7
428.179	1	-4
428.349	1	-9
428.520	1	2
428.691	1	5
428.861	1	-4
429.032	1	2
429.202	1	1
429.373	1	4
429.544	1	1
429.714	1	-1
429.885	1	3
430.055	1	7
430.226	1	-9
430.397	1	8
430.567	1	4
430.738	1	-12
430.909	1	4
431.079	1	-4
431.250	1	-4
431.420	1	-2
431.591	1	3
431.762	1	-3
431.932	1	3
432.103	1	-7
432.273	1	1
432.444	1	16
432.615	1	-1
432.785	1	6
432.956	1	-7
433.126	1	2
433.297	1	-6
433.468	1	-6
433.638	1	-6
433.809	1	1
433.979	1	12
434.150	1	12
434.320	1	-5
434.491	1	-1
434.662	1	-1
434.832	1	0
435.003	1	2
435.173	1	0
435.344	1	1
435.515	1	10
435.685	1	1
435.856	1	11
436.026	1	-1
436.197	1	-6
436.368	1	1
436.538	1	-10
436.709	1	-4
436.879	1	-8
437.050	1	8
437.220	1	7
437.391	1	13
437.562	1	3
437.732	1	-3
437.903	1	1
438.073	1	-8
438.244	1	1
438.414	1	-4
438.585	1	0
438.756	1	-4
438.926	1	-1
439.097	1	-8
439.267	1	1
439.438	1	-3
439.608	1	-18
439.779	1	-6
439.949	1	6
440.120	1	-2
440.291	1	4
440.461	1	-1
440.632	1	2
440.802	1	-2
440.973	1	-6
441.143	1	8
441.314	1	-5
441.485	1	7
441.655	1	2
441.826	1	9
441.996	1	7
442.167	1	3
442.337	1	3
442.508	1	2
442.678	1	-5
442.849	1	2
443.019	1	3
443.190	1	-2
443.361	1	-6
443.531	1	1
443.702	1	-2
443.872	1	13
444.043	1	4
444.213	1	5
444.384	1	-1
444.554	1	16
444.725	1	-10
444.895	1	-10
445.066	1	0
445.237	1	-1
445.407	1	8
445.578	1	-4
445.748	1	2
445.919	1	-6
446.089	1	8
446.260	1	-4
446.430	1	-1
446.601	1	-2
446.771	1	9
446.942	1	0
447.112	1	-5
447.283	1	1
447.453	1	-7
447.624	1	2
447.794	1	-1
447.965	1	2
448.135	1	7
448.306	1	8
448.477	1	6
448.647	1	-12
448.818	1	-3
448.988	1	-5
449.159	1	-6
449.329	1	0
449.500	1	-6
449.670	1	3
449.841	1	4
450.011	1	10
450.182	1	2
450.352	1	-3
450.523	1	-9
450.693	1	-10
450.864	1	2
451.034	1	-8
451.205	1	7
451.375	1	-3
451.546	1	3
451.716	1	1
451.887	1	-10
452.057	1	0
452.228	1	9
452.398	1	2
452.569	1	1
452.739	1	0
452.910	1	6
453.080	1	-4
453.251	1	3
453.421	1	1
453.592	1	10
453.762	1	7
453.933	1	-1
454.103	1	-1
454.274	1	-7
454.444	1	-6
454.615	1	3
454.785	1	-1
454.956	1	-2
455.126	1	-2
455.297	1	9
455.467	1	2
455.638	1	5
455.808	1	1
455.979	1	5
456.149	1	4
456.320	1	-5
456.490	1	-5
456.661	1	4
456.831	1	1
457.001	1	-1
457.172	1	-2
457.342	1	-2
457.513	1	6
457.683	1	-3
457.854	1	2
458.024	1	-1
458.195	1	0
458.365	1	-6
458.536	1	4
458.706	1	-1
458.877	1	2
459.047	1	1
459.218	1	-8
459.388	1	13
459.559	1	8
459.729	1	0
459.899	1	-4
460.070	1	-5
460.240	1	0
460.411	1	-8
460.581	1	19
460.752	1	0
460.922	1	1
461.093	1	-4
461.263	1	-3
461.434	1	-2
461.604	1	-2
461.775	1	-7
461.945	1	-6
462.115	1	-1
462.286	1	-3
462.456	1	-4
462.627	1	4
462.797	1	-2
462.968	1	0
463.138	1	-3
463.309	1	-2
463.479	1	-7
463.649	1	3
463.820	1	-3
463.990	1	8
464.161	1	0
464.331	1	-5
464.502	1	3
464.672	1	0
464.843	1	5
465.013	1	3
465.183	1	-3
465.354	1	4
465.524	1	-3
465.695	1	-7
465.865	1	0
466.036	1	-10
466.206	1	20
466.376	1	-4
466.547	1	-2
466.717	1	2
466.888	1	12
467.058	1	-8
467.229	1	-2
467.399	1	6
467.569	1	9
467.740	1	2
467.910	1	0
468.081	1	-1
468.251	1	-7
468.422	1	0
468.592	1	-2
468.762	1	-15
468.933	1	-4
469.103	1	-7
469.274	1	9
469.444	1	-1
469.614	1	-3
469.785	1	-2
469.955	1	-7
470.126	1	-14
470.296	1	0
470.467	1	-4
470.637	1	-3
470.807	1	-1
470.978	1	7
471.148	1	10
471.319	1	-3
471.489	1	7
471.659	1	-2
471.830	1	4
472.000	1	2
472.171	1	9
472.341	1	-1
472.511	1	-3
472.682	1	4
472.852	1	-1
473.023	1	4
473.193	1	9
473.363	1	1
473.534	1	6
473.704	1	-10
473.875	1	10
474.045	1	7
474.215	1	9
474.386	1	16
474.556	1	-3
474.727	1	4
474.897	1	4
475.067	1	3
475.238	1	4
475.408	1	-1
475.578	1	-15
475.749	1	-6
475.919	1	2
476.090	1	9
476.260	1	-5
476.430	1	-4
476.601	1	4
476.771	1	-1
476.942	1	11
477.112	1	4
477.282	1	0
477.453	1	0
477.623	1	-1
477.793	1	-7
477.964	1	-5
478.134	1	-7
478.305	1	-1
478.475	1	4
478.645	1	8
478.816	1	2
478.986	1	-7
479.156	1	5
479.327	1	-10
479.497	1	6
479.667	1	3
479.838	1	2
480.008	1	-2
480.179	1	-6
480.349	1	-14
480.519	1	4
480.690	1	2
480.860	1	8
481.030	1	-5
481.201	1	-8
481.371	1	1
481.541	1	0
481.712	1	2
481.882	1	7
482.053	1	2
482.223	1	1
482.393	1	3
482.564	1	4
482.734	1	-9
482.904	1	-7
483.075	1	-5
483.245	1	6
483.415	1	7
483.586	1	-3
483.756	1	10
483.926	1	5
484.097	1	-1
484.267	1	-2
484.437	1	-4
484.608	1	4
484.778	1	0
484.948	1	-8
485.119	1	-2
485.289	1	-2
485.459	1	11
485.630	1	8
485.800	1	-10
485.970	1	-3
486.141	1	-4
486.311	1	3
486.481	1	-8
486.652	1	0
486.822	1	4
486.992	1	9
487.163	1	-4
487.333	1	3
487.503	1	5
487.674	1	-2
487.844	1	2
488.014	1	2
488.185	1	5
488.355	1	-10
488.525	1	2
488.696	1	-1
488.866	1	11
489.036	1	5
489.207	1	2
489.377	1	3
489.547	1	0
489.718	1	-2
489.888	1	1
490.058	1	-8
490.228	1	5
490.399	1	-8
490.569	1	12
490.739	1	4
490.910	1	6
491.080	1	7
491.250	1	-10
491.421	1	-1
491.591	1	2
491.761	1	0
491.932	1	-2
492.102	1	0
492.272	1	0
492.442	1	4
492.613	1	-8
492.783	1	5
492.953	1	-10
493.124	1	6
493.294	1	-5
493.464	1	11
493.635	1	4
493.805	1	2
493.975	1	-5
494.145	1	5
494.316	1	7
494.486	1	2
494.656	1	-5
494.827	1	7
494.997	1	-6
495.167	1	0
495.337	1	0
495.508	1	4
495.678	1	3
495.848	1	10
496.019	1	-4
496.189	1	20
496.359	1	-8
496.529	1	1
496.700	1	2
496.870	1	1
497.040	1	-5
497.211	1	5
497.381	1	5
497.551	1	1
497.721	1	5
497.892	1	4
498.062	1	3
498.232	1	3
498.403	1	4
498.573	1	-11
498.743	1	-1
498.913	1	7
499.084	1	-1
499.254	1	2
499.424	1	-1
499.594	1	5
499.765	1	-4
499.935	1	1
500.105	1	0
500.275	1	3
500.446	1	-3
500.616	1	-2
500.786	1	-5
500.956	1	-4
501.127	1	-6
501.297	1	-4
501.467	1	-3
501.638	1	-4
501.808	1	-4
501.978	1	2
502.148	1	2
502.319	1	3
502.489	1	3
502.659	1	-1
502.829	1	5
503.000	1	-5
503.170	1	6
503.340	1	11
503.510	1	3
503.681	1	-3
503.851	1	-2
504.021	1	4
504.191	1	8
504.362	1	-1
504.532	1	2
504.702	1	0
504.872	1	3
505.042	1	1
505.213	1	9
505.383	1	5
505.553	1	-7
505.723	1	-2
505.894	1	-11
506.064	1	1
506.234	1	1
506.404	1	8
506.575	1	9
506.745	1	13
506.915	1	-1
507.085	1	-7
507.256	1	12
507.426	1	1
507.596	1	2
507.766	1	4
507.936	1	2
508.107	1	1
508.277	1	-4
508.447	1	5
508.617	1	1
508.788	1	11
508.958	1	0
509.128	1	1
509.298	1	8
509.468	1	8
509.639	1	-7
509.809	1	5
509.979	1	4
510.149	1	6
510.319	1	-1
510.490	1	10
510.660	1	0
510.830	1	10
511.000	1	-1
511.171	1	-10
511.341	1	9
511.511	1	8
511.681	1	-1
511.851	1	4
512.022	1	-5
512.192	1	4
512.362	1	-3
512.532	1	9
512.702	1	2
512.873	1	0
513.043	1	12
513.213	1	-8
513.383	1	-3
513.553	1	-7
513.724	1	5
513.894	1	-15
514.064	1	13
514.234	1	8
514.404	1	2
514.575	1	11
514.745	1	-3
514.915	1	3
515.085	1	3
515.255	1	-3
515.425	1	-1
515.596	1	2
515.766	1	-2
515.936	1	2
516.106	1	7
516.276	1	-8
516.447	1	7
516.617	1	11
516.787	1	9
516.957	1	3
517.127	1	0
517.297	1	1
517.468	1	1
517.638	1	6
517.808	1	3
517.978	1	2
518.148	1	0
518.319	1	-7
518.489	1	3
518.659	1	-10
518.829	1	4
518.999	1	-1
519.169	1	8
519.340	1	8
519.510	1	0
519.680	1	3
519.850	1	6
520.020	1	2
520.190	1	1
520.361	1	11
520.531	1	2
520.701	1	4
520.871	1	1
521.041	1	10
521.211	1	-4
521.382	1	-7
521.552	1	14
521.722	1	-1
521.892	1	7
522.062	1	12
522.232	1	10
522.402	1	7
522.573	1	-2
522.743	1	1
522.913	1	9
523.083	1	4
523.253	1	6
523.423	1	7
523.593	1	-1
523.764	1	-3
523.934	1	7
524.104	1	1
524.274	1	3
524.444	1	-2
524.614	1	1
524.784	1	2
524.955	1	-4
525.125	1	6
525.295	1	1
525.465	1	13
525.635	1	0
525.805	1	0
525.975	1	-3
526.146	1	0
526.316	1	15
526.486	1	3
526.656	1	-3
526.826	1	3
526.996	1	10
527.166	1	12
527.337	1	0
527.507	1	14
527.677	1	6
527.847	1	6
528.017	1	-4
528.187	1	10
528.357	1	5
528.527	1	11
528.698	1	7
528.868	1	3
529.038	1	2
529.208	1	-11
529.378	1	8
529.548	1	0
529.718	1	17
529.888	1	-1
530.058	1	1
530.229	1	10
530.399	1	12
530.569	1	-9
530.739	1	3
530.909	1	-3
531.079	1	7
531.249	1	9
531.419	1	10
531.589	1	4
531.760	1	3
531.930	1	15
532.100	1	4
532.270	1	-1
532.440	1	5
532.610	1	3
532.780	1	6
532.950	1	5
533.120	1	13
533.290	1	8
533.461	1	5
533.631	1	10
533.801	1	14
533.971	1	-3
534.141	1	-11
534.311	1	9
534.481	1	-4
534.651	1	5
534.821	1	8
534.991	1	5
535.162	1	2
535.332	1	-7
535.502	1	3
535.672	1	9
535.842	1	5
536.012	1	-1
536.182	1	7
536.352	1	6
536.522	1	-5
536.692	1	6
536.862	1	12
537.032	1	12
537.203	1	-5
537.373	1	12
537.543	1	0
537.713	1	17
537.883	1	8
538.053	1	-6
538.223	1	-2
538.393	1	9
538.563	1	7
538.733	1	6
538.903	1	-3
539.073	1	6
539.243	1	-2
539.413	1	5
539.584	1	7
539.754	1	1
539.924	1	8
540.094	1	8
540.264	1	5
540.434	1	-3
540.604	1	9
540.774	1	9
540.944	1	-1
541.114	1	-2
541.284	1	7
541.454	1	7
541.624	1	6
541.794	1	3
541.964	1	10
542.134	1	3
542.305	1	7
542.475	1	13
542.645	1	2
542.815	1	2
542.985	1	5
543.155	1	11
543.325	1	-3
543.495	1	6
543.665	1	6
543.835	1	11
544.005	1	16
544.175	1	5
544.345	1	5
544.515	1	-2
544.685	1	8
544.855	1	4
545.025	1	-2
545.195	1	-2
545.365	1	8
545.535	1	7
545.705	1	-4
545.875	1	-3
546.045	1	3
546.216	1	11
546.386	1	16
546.556	1	3
546.726	1	0
546.896	1	7
547.066	1	7
547.236	1	7
547.406	1	10
547.576	1	11
547.746	1	-5
547.916	1	0
548.086	1	5
548.256	1	-1
548.426	1	-9
548.596	1	1
548.766	1	7
548.936	1	8
549.106	1	7
549.276	1	5
549.446	1	-5
549.616	1	4
549.786	1	7
549.956	1	19
550.126	1	17
550.296	1	8
550.466	1	6
550.636	1	25
550.806	1	3
550.976	1	6
551.146	1	-2
551.316	1	9
551.486	1	5
551.656	1	4
551.826	1	2
551.996	1	13
552.166	1	3
552.336	1	8
552.506	1	12
552.676	1	15
552.846	1	10
553.016	1	13
553.186	1	9
553.356	1	7
553.526	1	10
553.696	1	12
553.866	1	2
554.036	1	1
554.206	1	14
554.376	1	7
554.546	1	13
554.716	1	7
554.886	1	7
555.056	1	9
555.226	1	-9
555.396	1	-1
555.566	1	3
555.736	1	1
555.906	1	6
556.076	1	11
556.246	1	0
556.416	1	4
556.586	1	7
556.756	1	6
556.926	1	11
557.096	1	3
557.266	1	-1
557.436	1	7
557.606	1	4
557.776	1	5
557.946	1	16
558.116	1	11
558.286	1	11
558.456	1	10
558.626	1	12
558.796	1	1
558.966	1	1
559.136	1	10
559.306	1	-2
559.476	1	0
559.646	1	0
559.816	1	0
559.986	1	-7
560.155	1	6
560.325	1	-10
560.495	1	12
560.665	1	2
560.835	1	20
561.005	1	1
561.175	1	5
561.345	1	12
561.515	1	5
561.685	1	10
561.855	1	1
562.025	1	4
562.195	1	2
562.365	1	7
562.535	1	2
562.705	1	-2
562.875	1	10
563.045	1	3
563.215	1	8
563.385	1	-9
563.555	1	8
563.725	1	2
563.895	1	5
564.064	1	4
564.234	1	7
564.404	1	6
564.574	1	7
564.744	1	5
564.914	1	3
565.084	1	4
565.254	1	13
565.424	1	13
565.594	1	10
565.764	1	2
565.934	1	15
566.104	1	3
566.274	1	0
566.444	1	1
566.614	1	3
566.783	1	-6
566.953	1	11
567.123	1	3
567.293	1	18
567.463	1	8
567.633	1	4
567.803	1	1
567.973	1	-9
568.143	1	-1
568.313	1	9
568.483	1	9
568.653	1	7
568.823	1	8
568.993	1	3
569.162	1	16
569.332	1	14
569.502	1	-2
569.672	1	7
569.842	1	15
570.012	1	10
570.182	1	10
570.352	1	0
570.522	1	-4
570.692	1	11
570.862	1	3
571.031	1	5
571.201	1	8
571.371	1	6
571.541	1	7
571.711	1	9
571.881	1	15
572.051	1	-3
572.221	1	13
572.391	1	-5
572.561	1	8
572.731	1	11
572.900	1	0
573.070	1	-2
573.240	1	11
573.410	1	15
573.580	1	6
573.750	1	-1
573.920	1	9
574.090	1	-3
574.260	1	13
574.430	1	12
574.599	1	-5
574.769	1	-2
574.939	1	9
575.109	1	10
575.279	1	13
575.449	1	-4
575.619	1	17
575.789	1	2
575.959	1	-2
576.128	1	-12
576.298	1	19
576.468	1	8
576.638	1	-5
576.808	1	4
576.978	1	13
577.148	1	7
577.318	1	4
577.487	1	7
577.657	1	-5
577.827	1	4
577.997	1	0
578.167	1	0
578.337	1	16
578.507	1	7
578.677	1	9
578.846	1	15
579.016	1	9
579.186	1	-6
579.356	1	-3
579.526	1	7
579.696	1	14
579.866	1	10
580.036	1	8
580.205	1	12
580.375	1	6
580.545	1	8
580.715	1	-1
580.885	1	7
581.055	1	9
581.225	1	6
581.394	1	4
581.564	1	9
581.734	1	0
581.904	1	19
582.074	1	8
582.244	1	4
582.414	1	7
582.583	1	14
582.753	1	0
582.923	1	2
583.093	1	-3
583.263	1	7
583.433	1	-9
583.603	1	7
583.772	1	9
583.942	1	5
584.112	1	3
584.282	1	0
584.452	1	11
584.622	1	4
584.791	1	-2
584.961	1	4
585.131	1	-1
585.301	1	1
585.471	1	12
585.641	1	2
585.811	1	14
585.980	1	3
586.150	1	-2
586.320	1	4
586.490	1	10
586.660	1	4
586.830	1	-2
586.999	1	2
587.169	1	17
587.339	1	10
587.509	1	0
587.679	1	13
587.849	1	-1
588.018	1	6
588.188	1	15
588.358	1	8
588.528	1	8
588.698	1	10
588.867	1	14
589.037	1	-3
589.207	1	1
589.377	1	5
589.547	1	8
589.717	1	7
589.886	1	-5
590.056	1	1
590.226	1	6
590.396	1	12
590.566	1	5
590.735	1	-9
590.905	1	8
591.075	1	15
591.245	1	1
591.415	1	13
591.585	1	2
591.754	1	3
591.924	1	-2
592.094	1	1
592.264	1	4
592.434	1	5
592.603	1	1
592.773	1	5
592.943	1	3
593.113	1	6
593.283	1	7
593.452	1	9
593.622	1	-6
593.792	1	15
593.962	1	5
594.132	1	3
594.301	1	10
594.471	1	20
594.641	1	-2
594.811	1	7
594.981	1	-5
595.150	1	4
595.320	1	0
595.490	1	10
595.660	1	7
595.829	1	1
595.999	1	-7
596.169	1	15
596.339	1	7
596.509	1	3
596.678	1	-3
596.848	1	13
597.018	1	2
597.188	1	7
597.358	1	7
597.527	1	-6
597.697	1	5
597.867	1	-1
598.037	1	-1
598.206	1	-5
598.376	1	8
598.546	1	3
598.716	1	12
598.885	1	-10
599.055	1	18
599.225	1	-1
599.395	1	-1
599.565	1	-5
599.734	1	3
599.904	1	2
600.074	1	5
600.244	1	2
600.413	1	10
600.583	1	14
600.753	1	14
600.923	1	0
601.092	1	10
601.262	1	9
601.432	1	1
601.602	1	17
601.771	1	3
601.941	1	4
602.111	1	7
602.281	1	10
602.451	1	2
602.620	1	2
602.790	1	7
602.960	1	5
603.130	1	1
603.299	1	-1
603.469	1	-2
603.639	1	-2
603.809	1	-1
603.978	1	0
604.148	1	2
604.318	1	6
604.487	1	8
604.657	1	8
604.827	1	13
604.997	1	3
605.166	1	5
605.336	1	1
605.506	1	-3
605.676	1	-6
605.845	1	5
606.015	1	3
606.185	1	8
606.355	1	5
606.524	1	-4
606.694	1	8
606.864	1	0
607.034	1	3
607.203	1	-4
607.373	1	1
607.543	1	7
607.712	1	0
607.882	1	5
608.052	1	-4
608.222	1	0
608.391	1	12
608.561	1	4
608.731	1	-1
608.901	1	5
609.070	1	11
609.240	1	0
609.410	1	2
609.579	1	7
609.749	1	0
609.919	1	13
610.089	1	7
610.258	1	11
610.428	1	-7
610.598	1	6
610.767	1	8
610.937	1	5
611.107	1	11
611.277	1	4
611.446	1	5
611.616	1	4
611.786	1	14
611.955	1	3
612.125	1	3
612.295	1	-4
612.465	1	15
612.634	1	-5
612.804	1	15
612.974	1	-7
613.143	1	5
613.313	1	14
613.483	1	5
613.652	1	1
613.822	1	-6
613.992	1	-3
614.162	1	11
614.331	1	1
614.501	1	6
614.671	1	18
614.840	1	-3
615.010	1	6
615.180	1	5
615.349	1	11
615.519	1	-8
615.689	1	15
615.858	1	-4
616.028	1	6
616.198	1	5
616.368	1	3
616.537	1	-1
616.707	1	8
616.877	1	3
617.046	1	9
617.216	1	-2
617.386	1	7
617.555	1	6
617.725	1	6
617.895	1	6
618.064	1	-6
618.234	1	-7
618.404	1	8
618.573	1	-6
618.743	1	10
618.913	1	2
619.082	1	6
619.252	1	1
619.422	1	-9
619.591	1	-8
619.761	1	5
619.931	1	6
620.100	1	10
620.270	1	0
620.440	1	2
620.609	1	5
620.779	1	4
620.949	1	-1
621.118	1	8
621.288	1	3
621.458	1	4
621.627	1	5
621.797	1	10
621.967	1	2
622.136	1	10
622.306	1	-5
622.476	1	5
622.645	1	5
622.815	1	11
622.985	1	0
623.154	1	2
623.324	1	4
623.494	1	9
623.663	1	7
623.833	1	1
624.002	1	-8
624.172	1	4
624.342	1	14
624.511	1	-1
624.681	1	2
624.851	1	-14
625.020	1	9
625.190	1	8
625.360	1	11
625.529	1	7
625.699	1	6
625.869	1	9
626.038	1	-4
626.208	1	-3
626.377	1	8
626.547	1	9
626.717	1	4
626.886	1	16
627.056	1	-11
627.226	1	-1
627.395	1	5
627.565	1	0
627.735	1	4
627.904	1	2
628.074	1	1
628.243	1	11
628.413	1	-2
628.583	1	4
628.752	1	6
628.922	1	8
629.091	1	-5
629.261	1	8
629.431	1	-8
629.600	1	18
629.770	1	1
629.940	1	-1
630.109	1	-10
630.279	1	-10
630.448	1	-3
630.618	1	1
630.788	1	5
630.957	1	4
631.127	1	6
631.297	1	8
631.466	1	5
631.636	1	0
631.805	1	-5
631.975	1	10
632.145	1	-1
632.314	1	-1
632.484	1	-2
632.653	1	2
632.823	1	5
632.993	1	-3
633.162	1	4
633.332	1	7
633.501	1	2
633.671	1	2
633.841	1	0
634.010	1	-3
634.180	1	2
634.349	1	7
634.519	1	-7
634.689	1	5
634.858	1	-1
635.028	1	12
635.197	1	8
635.367	1	0
635.537	1	-1
635.706	1	7
635.876	1	-6
636.045	1	16
636.215	1	-1
636.384	1	1
636.554	1	10
636.724	1	6
636.893	1	-6
637.063	1	-6
637.232	1	-5
637.402	1	4
637.572	1	6
637.741	1	0
637.911	1	-2
638.080	1	-1
638.250	1	11
638.419	1	-3
638.589	1	-9
638.759	1	-5
638.928	1	0
639.098	1	5
639.267	1	8
639.437	1	5
639.606	1	5
639.776	1	4
639.946	1	7
640.115	1	-4
640.285	1	2
640.454	1	10
640.624	1	-2
640.793	1	11
640.963	1	-3
641.132	1	6
641.302	1	5
641.472	1	7
641.641	1	-2
641.811	1	5
641.980	1	4
642.150	1	-8
642.319	1	4
642.489	1	-1
642.659	1	6
642.828	1	-7
642.998	1	7
643.167	1	-1
643.337	1	-2
643.506	1	-9
643.676	1	11
643.845	1	0
644.015	1	9
644.184	1	-3
644.354	1	-3
644.524	1	3
644.693	1	8
644.863	1	2
645.032	1	-4
645.202	1	2
645.371	1	4
645.541	1	-4
645.710	1	3
645.880	1	3
646.049	1	-2
646.219	1	4
646.388	1	7
646.558	1	1
646.728	1	5
646.897	1	5
647.067	1	2
647.236	1	-2
647.406	1	-12
647.575	1	3
647.745	1	-1
647.914	1	-11
648.084	1	-3
648.253	1	11
648.423	1	-2
648.592	1	3
648.762	1	2
648.931	1	8
649.101	1	2
649.270	1	-8
649.440	1	1
649.610	1	8
649.779	1	7
649.949	1	1
650.118	1	16
650.288	1	2
650.457	1	2
650.627	1	-1
650.796	1	6
650.966	1	6
651.135	1	-3
651.305	1	-2
651.474	1	3
651.644	1	13
651.813	1	2
651.983	1	-1
652.152	1	8
652.322	1	-3
652.491	1	3
652.661	1	-8
652.830	1	4
653.000	1	-1
653.169	1	7
653.339	1	7
653.508	1	-1
653.678	1	-4
653.847	1	16
654.017	1	2
654.186	1	-3
654.356	1	-1
654.525	1	6
654.695	1	2
654.864	1	1
655.034	1	-1
655.203	1	0
655.373	1	14
655.542	1	6
655.712	1	-4
655.881	1	2
656.051	1	0
656.220	1	-5
656.390	1	-2
656.559	1	-4
656.729	1	15
656.898	1	-5
657.068	1	7
657.237	1	-9
657.406	1	8
657.576	1	-6
657.745	1	2
657.915	1	1
658.084	1	8
658.254	1	-14
658.423	1	7
658.593	1	9
658.762	1	4
658.932	1	4
659.101	1	11
659.271	1	6
659.440	1	-1
659.610	1	0
659.779	1	-1
659.949	1	-1
660.118	1	-1
660.288	1	2
660.457	1	3
660.626	1	7
660.796	1	-4
660.965	1	-2
661.135	1	-1
661.304	1	2
661.474	1	3
661.643	1	7
661.813	1	6
661.982	1	8
662.152	1	-3
662.321	1	0
662.491	1	-7
662.660	1	2
662.829	1	-10
662.999	1	-2
663.168	1	1
663.338	1	12
663.507	1	8
663.677	1	13
663.846	1	-7
664.016	1	-3
664.185	1	0
664.354	1	11
664.524	1	-3
664.693	1	10
664.863	1	-2
665.032	1	7
665.202	1	7
665.371	1	10
665.541	1	-8
665.710	1	-3
665.879	1	-10
666.049	1	-3
666.218	1	-11
666.388	1	7
666.557	1	4
666.727	1	-1
666.896	1	-4
667.065	1	3
667.235	1	4
667.404	1	0
667.574	1	-10
667.743	1	2
667.913	1	-3
668.082	1	7
668.251	1	-7
668.421	1	-2
668.590	1	2
668.760	1	-1
668.929	1	-2
669.099	1	-7
669.268	1	-1
669.437	1	13
669.607	1	8
669.776	1	-4
669.946	1	9
670.115	1	-3
670.285	1	6
670.454	1	4
670.623	1	7
670.793	1	3
670.962	1	3
671.132	1	15
671.301	1	3
671.470	1	4
671.640	1	5
671.809	1	-3
671.979	1	-1
672.148	1	1
672.317	1	4
672.487	1	-5
672.656	1	2
672.826	1	-4
672.995	1	1
673.164	1	-2
673.334	1	7
673.503	1	1
673.673	1	3
673.842	1	7
674.011	1	-1
674.181	1	7
674.350	1	8
674.520	1	-5
674.689	1	3
674.858	1	-8
675.028	1	4
675.197	1	-3
675.367	1	8
675.536	1	6
675.705	1	15
675.875	1	-2
676.044	1	1
676.214	1	2
676.383	1	-3
676.552	1	11
676.722	1	1
676.891	1	9
677.060	1	6
677.230	1	-1
677.399	1	-5
677.569	1	-12
677.738	1	11
677.907	1	1
678.077	1	12
678.246	1	-2
678.416	1	11
678.585	1	3
678.754	1	10
678.924	1	1
679.093	1	7
679.262	1	-4
679.432	1	-3
679.601	1	-3
679.771	1	-4
679.940	1	4
680.109	1	16
680.279	1	-4
680.448	1	0
680.617	1	6
680.787	1	-4
680.956	1	8
681.125	1	7
681.295	1	-2
681.464	1	-4
681.634	1	-2
681.803	1	0
681.972	1	4
682.142	1	9
682.311	1	7
682.480	1	19
682.650	1	-2
682.819	1	0
682.988	1	-8
683.158	1	2
683.327	1	-2
683.496	1	4
683.666	1	-3
683.835	1	2
684.004	1	4
684.174	1	-4
684.343	1	-4
684.512	1	8
684.682	1	-7
684.851	1	6
685.021	1	-4
685.190	1	-2
685.359	1	3
685.529	1	7
685.698	1	-2
685.867	1	-1
686.037	1	11
686.206	1	-1
686.375	1	10
686.545	1	-7
686.714	1	-5
686.883	1	1
687.053	1	-5
687.222	1	9
687.391	1	0
687.561	1	12
687.730	1	-2
687.899	1	9
688.069	1	7
688.238	1	6
688.407	1	-3
688.577	1	4
688.746	1	-1
