340.368	1	2
340.539	1	-15
340.710	1	-14
340.881	1	-3
341.052	1	15
341.223	1	-7
341.394	1	-4
341.565	1	1
341.737	1	6
341.908	1	-3
342.079	1	-4
342.250	1	-13
342.421	1	-4
342.592	1	7
342.763	1	1
342.934	1	-9
343.105	1	-2
343.276	1	1
343.447	1	-1
343.618	1	-3
343.789	1	-8
343.960	1	4
344.131	1	-5
344.302	1	2
344.473	1	-2
344.644	1	-6
344.815	1	-6
344.986	1	-10
345.157	1	1
345.328	1	8
345.499	1	0
345.670	1	-6
345.841	1	13
346.012	1	8
346.183	1	-6
346.354	1	-3
346.526	1	-8
346.697	1	-2
346.868	1	3
347.039	1	5
347.210	1	-8
347.381	1	-3
347.552	1	-6
347.723	1	-2
347.894	1	8
348.065	1	-3
348.236	1	5
348.407	1	-5
348.578	1	-1
348.749	1	-8
348.920	1	2
349.091	1	-18
349.262	1	-3
349.433	1	2
349.604	1	0
349.775	1	3
349.946	1	-16
350.117	1	1
350.288	1	3
350.459	1	-7
350.630	1	0
350.801	1	3
350.972	1	2
351.143	1	2
351.314	1	6
351.485	1	4
351.656	1	5
351.827	1	3
351.998	1	-2
352.169	1	-4
352.340	1	-1
352.511	1	-10
352.682	1	-5
352.853	1	-3
353.024	1	1
353.195	1	2
353.366	1	6
353.537	1	-2
353.708	1	-5
353.879	1	-3
354.050	1	-2
354.221	1	-6
354.392	1	-8
354.563	1	-4
354.734	1	0
354.905	1	-2
355.076	1	5
355.247	1	-1
355.418	1	-9
355.589	1	-8
355.760	1	3
355.931	1	1
356.102	1	13
356.273	1	-10
356.444	1	1
356.615	1	-5
356.785	1	2
356.956	1	4
357.127	1	-5
357.298	1	-3
357.469	1	-4
357.640	1	3
357.811	1	6
357.982	1	-4
358.153	1	-2
358.324	1	4
358.495	1	-1
358.666	1	0
358.837	1	-11
359.008	1	-10
359.179	1	3
359.350	1	-7
359.521	1	4
359.692	1	3
359.863	1	-4
360.034	1	5
360.205	1	-5
360.376	1	4
360.547	1	2
360.718	1	3
360.889	1	-4
361.060	1	-2
361.231	1	-13
361.401	1	-1
361.572	1	4
361.743	1	-1
361.914	1	-6
362.085	1	6
362.256	1	2
362.427	1	16
362.598	1	-11
362.769	1	-8
362.940	1	1
363.111	1	0
363.282	1	5
363.453	1	-10
363.624	1	8
363.795	1	-2
363.966	1	2
364.137	1	11
364.308	1	-3
364.478	1	5
364.649	1	8
364.820	1	-1
364.991	1	8
365.162	1	3
365.333	1	2
365.504	1	4
365.675	1	-1
365.846	1	-4
366.017	1	10
366.188	1	2
366.359	1	11
366.530	1	17
366.701	1	0
366.871	1	7
367.042	1	0
367.213	1	15
367.384	1	2
367.555	1	-2
367.726	1	7
367.897	1	8
368.068	1	10
368.239	1	8
368.410	1	17
368.581	1	3
368.752	1	7
368.923	1	-1
369.093	1	0
369.264	1	8
369.435	1	6
369.606	1	9
369.777	1	9
369.948	1	0
370.119	1	-1
370.290	1	16
370.461	1	18
370.632	1	12
370.803	1	6
370.973	1	9
371.144	1	2
371.315	1	1
371.486	1	15
371.657	1	24
371.828	1	14
371.999	1	2
372.170	1	4
372.341	1	10
372.512	1	1
372.682	1	12
372.853	1	12
373.024	1	12
373.195	1	9
373.366	1	9
373.537	1	4
373.708	1	-4
373.879	1	-2
374.050	1	5
374.220	1	17
374.391	1	6
374.562	1	8
374.733	1	9
374.904	1	-1
375.075	1	-3
375.246	1	4
375.417	1	19
375.588	1	2
375.758	1	2
375.929	1	6
376.100	1	12
376.271	1	3
376.442	1	-5
376.613	1	2
376.784	1	1
376.955	1	2
377.125	1	3
377.296	1	-5
377.467	1	0
377.638	1	9
377.809	1	8
377.980	1	6
378.151	1	8
378.321	1	-18
378.492	1	-6
378.663	1	-6
378.834	1	-1
379.005	1	2
379.176	1	2
379.347	1	6
379.518	1	-2
379.688	1	4
379.859	1	5
380.030	1	-8
380.201	1	6
380.372	1	-1
380.543	1	9
380.714	1	8
380.884	1	4
381.055	1	11
381.226	1	-6
381.397	1	-4
381.568	1	9
381.739	1	6
381.910	1	4
382.080	1	-4
382.251	1	-5
382.422	1	-5
382.593	1	-3
382.764	1	-3
382.935	1	-9
383.105	1	0
383.276	1	13
383.447	1	-7
383.618	1	11
383.789	1	-2
383.960	1	-1
384.130	1	0
384.301	1	-2
384.472	1	-1
384.643	1	10
384.814	1	0
384.985	1	-1
385.156	1	-4
385.326	1	12
385.497	1	8
385.668	1	-1
385.839	1	-5
386.010	1	4
386.180	1	7
386.351	1	-1
386.522	1	7
386.693	1	-16
386.864	1	3
387.035	1	7
387.205	1	-8
387.376	1	6
387.547	1	-4
387.718	1	0
387.889	1	-9
388.060	1	10
388.230	1	8
388.401	1	-2
388.572	1	-9
388.743	1	-2
388.914	1	1
389.084	1	1
389.255	1	-4
389.426	1	-2
389.597	1	5
389.768	1	5
389.939	1	5
390.109	1	2
390.280	1	0
390.451	1	-9
390.622	1	-6
390.793	1	0
390.963	1	11
391.134	1	4
391.305	1	-4
391.476	1	-4
391.647	1	5
391.817	1	2
391.988	1	3
392.159	1	0
392.330	1	8
392.501	1	6
392.671	1	-2
392.842	1	-4
393.013	1	-7
393.184	1	-3
393.355	1	-1
393.525	1	-2
393.696	1	3
393.867	1	1
394.038	1	0
394.208	1	-1
394.379	1	8
394.550	1	8
394.721	1	-4
394.892	1	3
395.062	1	4
395.233	1	1
395.404	1	-2
395.575	1	4
395.746	1	7
395.916	1	0
396.087	1	-4
396.258	1	-6
396.429	1	5
396.599	1	-1
396.770	1	2
396.941	1	-6
397.112	1	4
397.283	1	3
397.453	1	7
397.624	1	-3
397.795	1	3
397.966	1	8
398.136	1	-3
398.307	1	-10
398.478	1	0
398.649	1	-15
398.819	1	1
398.990	1	-1
399.161	1	10
399.332	1	1
399.503	1	-3
399.673	1	7
399.844	1	2
400.015	1	-7
400.186	1	1
400.356	1	-12
400.527	1	-5
400.698	1	-3
400.869	1	-1
401.039	1	2
401.210	1	-1
401.381	1	-6
401.552	1	-9
401.722	1	1
401.893	1	-7
402.064	1	9
402.235	1	-7
402.405	1	-2
402.576	1	0
402.747	1	-4
402.918	1	9
403.088	1	9
403.259	1	6
403.430	1	-9
403.601	1	-8
403.771	1	-3
403.942	1	5
404.113	1	-11
404.284	1	5
404.454	1	9
404.625	1	5
404.796	1	-4
404.967	1	-4
405.137	1	7
405.308	1	5
405.479	1	2
405.649	1	4
405.820	1	-11
405.991	1	-2
406.162	1	10
406.332	1	3
406.503	1	6
406.674	1	-2
406.845	1	6
407.015	1	1
407.186	1	-1
407.357	1	-7
407.527	1	-10
407.698	1	8
407.869	1	-1
408.040	1	0
408.210	1	2
408.381	1	-6
408.552	1	-1
408.722	1	-13
408.893	1	4
409.064	1	4
409.235	1	-2
409.405	1	10
409.576	1	-1
409.747	1	-4
409.917	1	-3
410.088	1	0
410.259	1	-2
410.430	1	4
410.600	1	-15
410.771	1	-5
410.942	1	3
411.112	1	-4
411.283	1	11
411.454	1	-4
411.625	1	2
411.795	1	-10
411.966	1	4
412.137	1	0
412.307	1	2
412.478	1	5
412.649	1	-5
412.819	1	-5
412.990	1	2
413.161	1	-1
413.332	1	4
413.502	1	1
413.673	1	8
413.844	1	-2
414.014	1	7
414.185	1	0
414.356	1	-5
414.526	1	-3
414.697	1	8
414.868	1	-5
415.038	1	-5
415.209	1	-3
415.380	1	-2
415.550	1	-7
415.721	1	-6
415.892	1	-4
416.063	1	-1
416.233	1	4
416.404	1	-2
416.575	1	10
416.745	1	1
416.916	1	-10
417.087	1	5
417.257	1	-4
417.428	1	7
417.599	1	3
417.769	1	4
417.940	1	9
418.111	1	-8
418.281	1	-4
418.452	1	-11
418.623	1	-4
418.793	1	3
418.964	1	-10
419.135	1	-7
419.305	1	9
419.476	1	6
419.647	1	3
419.817	1	6
419.988	1	-1
420.159	1	2
420.329	1	-2
420.500	1	-4
420.671	1	4
420.841	1	8
421.012	1	2
421.183	1	4
421.353	1	-6
421.524	1	-10
421.695	1	-3
421.865	1	-1
422.036	1	-1
422.206	1	-2
422.377	1	-2
422.548	1	-19
422.718	1	10
422.889	1	-7
423.060	1	-9
423.230	1	3
423.401	1	8
423.572	1	-4
423.742	1	-3
423.913	1	0
424.084	1	1
424.254	1	7
424.425	1	5
424.595	1	-1
424.766	1	-9
424.937	1	3
425.107	1	-6
425.278	1	5
425.449	1	2
425.619	1	0
425.790	1	-9
425.961	1	-1
426.131	1	7
426.302	1	3
426.472	1	12
426.643	1	11
426.814	1	-2
426.984	1	-4
427.155	1	-12
427.326	1	3
427.496	1	0
427.667	1	9
427.837	1	-4
428.008	1	6
428.179	1	-8
428.349	1	-14
428.520	1	-2
428.691	1	-3
428.861	1	-1
429.032	1	3
429.202	1	7
429.373	1	1
429.544	1	-9
429.714	1	-10
429.885	1	7
430.055	1	7
430.226	1	-11
430.397	1	-4
430.567	1	-2
430.738	1	4
430.909	1	-2
431.079	1	-2
431.250	1	-1
431.420	1	3
431.591	1	1
431.762	1	3
431.932	1	-9
432.103	1	-3
432.273	1	-8
432.444	1	12
432.615	1	-4
432.785	1	-3
432.956	1	-13
433.126	1	-4
433.297	1	-5
433.468	1	-10
433.638	1	-2
433.809	1	5
433.979	1	4
434.150	1	3
434.320	1	5
434.491	1	0
434.662	1	0
434.832	1	-1
435.003	1	4
435.173	1	-11
435.344	1	4
435.515	1	7
435.685	1	3
435.856	1	-2
436.026	1	-2
436.197	1	-5
436.368	1	4
436.538	1	-12
436.709	1	-4
436.879	1	-2
437.050	1	-3
437.220	1	6
437.391	1	3
437.562	1	1
437.732	1	-10
437.903	1	3
438.073	1	-5
438.244	1	1
438.414	1	-7
438.585	1	-2
438.756	1	-10
438.926	1	-7
439.097	1	-8
439.267	1	0
439.438	1	-2
439.608	1	-16
439.779	1	-6
439.949	1	3
440.120	1	-2
440.291	1	-1
440.461	1	-4
440.632	1	8
440.802	1	-5
440.973	1	-8
441.143	1	3
441.314	1	-9
441.485	1	-2
441.655	1	6
441.826	1	1
441.996	1	11
442.167	1	0
442.337	1	3
442.508	1	-4
442.678	1	-5
442.849	1	6
443.019	1	4
443.190	1	1
443.361	1	5
443.531	1	2
443.702	1	1
443.872	1	5
444.043	1	0
444.213	1	-1
444.384	1	-5
444.554	1	2
444.725	1	-12
444.895	1	-8
445.066	1	-8
445.237	1	-2
445.407	1	2
445.578	1	-7
445.748	1	-4
445.919	1	-9
446.089	1	4
446.260	1	-9
446.430	1	-8
446.601	1	-1
446.771	1	6
446.942	1	9
447.112	1	-10
447.283	1	-9
447.453	1	-9
447.624	1	-1
447.794	1	-3
447.965	1	-2
448.135	1	3
448.306	1	5
448.477	1	-4
448.647	1	-13
448.818	1	-3
448.988	1	-4
449.159	1	-6
449.329	1	0
449.500	1	1
449.670	1	6
449.841	1	2
450.011	1	3
450.182	1	5
450.352	1	-1
450.523	1	-8
450.693	1	-2
450.864	1	1
451.034	1	-7
451.205	1	5
451.375	1	-3
451.546	1	-4
451.716	1	0
451.887	1	-9
452.057	1	5
452.228	1	5
452.398	1	-2
452.569	1	-10
452.739	1	1
452.910	1	8
453.080	1	0
453.251	1	4
453.421	1	-8
453.592	1	2
453.762	1	-7
453.933	1	0
454.103	1	-1
454.274	1	-8
454.444	1	-10
454.615	1	6
454.785	1	-5
454.956	1	1
455.126	1	-7
455.297	1	5
455.467	1	2
455.638	1	3
455.808	1	-1
455.979	1	-4
456.149	1	3
456.320	1	-1
456.490	1	-1
456.661	1	11
456.831	1	4
457.001	1	-2
457.172	1	-12
457.342	1	-2
457.513	1	8
457.683	1	-2
457.854	1	-2
458.024	1	-10
458.195	1	-8
458.365	1	-9
458.536	1	10
458.706	1	1
458.877	1	0
459.047	1	-5
459.218	1	-1
459.388	1	5
459.559	1	-6
459.729	1	-3
459.899	1	-3
460.070	1	-1
460.240	1	-1
460.411	1	-6
460.581	1	16
460.752	1	-3
460.922	1	5
461.093	1	2
461.263	1	-8
461.434	1	0
461.604	1	-4
461.775	1	-3
461.945	1	-3
462.115	1	3
462.286	1	0
462.456	1	-9
462.627	1	-1
462.797	1	6
462.968	1	-2
463.138	1	-6
463.309	1	-10
463.479	1	-8
463.649	1	-2
463.820	1	-8
463.990	1	-4
464.161	1	-2
464.331	1	0
464.502	1	5
464.672	1	-3
464.843	1	-4
465.013	1	-4
465.183	1	-6
465.354	1	1
465.524	1	1
465.695	1	-5
465.865	1	-4
466.036	1	-5
466.206	1	13
466.376	1	-11
466.547	1	-4
466.717	1	5
466.888	1	10
467.058	1	-10
467.229	1	-12
467.399	1	6
467.569	1	9
467.740	1	2
467.910	1	-2
468.081	1	-2
468.251	1	-3
468.422	1	-9
468.592	1	3
468.762	1	-10
468.933	1	-1
469.103	1	-7
469.274	1	5
469.444	1	-7
469.614	1	-8
469.785	1	-10
469.955	1	-7
470.126	1	-3
470.296	1	1
470.467	1	-4
470.637	1	-2
470.807	1	5
470.978	1	4
471.148	1	4
471.319	1	-7
471.489	1	1
471.659	1	-13
471.830	1	-4
472.000	1	2
472.171	1	3
472.341	1	-3
472.511	1	-10
472.682	1	0
472.852	1	2
473.023	1	-4
473.193	1	6
473.363	1	-3
473.534	1	12
473.704	1	-13
473.875	1	17
474.045	1	-12
474.215	1	6
474.386	1	4
474.556	1	3
474.727	1	-4
474.897	1	2
475.067	1	0
475.238	1	2
475.408	1	-2
475.578	1	-13
475.749	1	-6
475.919	1	-7
476.090	1	-3
476.260	1	-3
476.430	1	4
476.601	1	1
476.771	1	-9
476.942	1	9
477.112	1	7
477.282	1	1
477.453	1	-7
477.623	1	-10
477.793	1	-1
477.964	1	-5
478.134	1	-10
478.305	1	-6
478.475	1	-1
478.645	1	4
478.816	1	-2
478.986	1	-7
479.156	1	-1
479.327	1	-17
479.497	1	-2
479.667	1	-8
479.838	1	8
480.008	1	-9
480.179	1	0
480.349	1	-6
480.519	1	-2
480.690	1	6
480.860	1	-4
481.030	1	-2
481.201	1	-8
481.371	1	4
481.541	1	-12
481.712	1	5
481.882	1	5
482.053	1	5
482.223	1	-4
482.393	1	-4
482.564	1	-1
482.734	1	-5
482.904	1	-7
483.075	1	2
483.245	1	8
483.415	1	-2
483.586	1	-3
483.756	1	-2
483.926	1	-3
484.097	1	-13
484.267	1	-1
484.437	1	-4
484.608	1	5
484.778	1	1
484.948	1	-7
485.119	1	-4
485.289	1	-6
485.459	1	18
485.630	1	-17
485.800	1	-2
485.970	1	-6
486.141	1	-10
486.311	1	-8
486.481	1	-3
486.652	1	10
486.822	1	9
486.992	1	1
487.163	1	3
487.333	1	0
487.503	1	-1
487.674	1	-4
487.844	1	-1
488.014	1	-4
488.185	1	-1
488.355	1	1
488.525	1	-5
488.696	1	-10
488.866	1	3
489.036	1	7
489.207	1	-2
489.377	1	-3
489.547	1	-3
489.718	1	-2
489.888	1	-1
490.058	1	-3
490.228	1	7
490.399	1	-1
490.569	1	6
490.739	1	-12
490.910	1	2
491.080	1	9
491.250	1	-4
491.421	1	-12
491.591	1	-6
491.761	1	0
491.932	1	7
492.102	1	3
492.272	1	5
492.442	1	3
492.613	1	-3
492.783	1	3
492.953	1	-4
493.124	1	5
493.294	1	-3
493.464	1	8
493.635	1	-5
493.805	1	-5
493.975	1	-7
494.145	1	-10
494.316	1	0
494.486	1	2
494.656	1	-6
494.827	1	-5
494.997	1	-2
495.167	1	2
495.337	1	6
495.508	1	2
495.678	1	-7
495.848	1	11
496.019	1	-2
496.189	1	-2
496.359	1	-6
496.529	1	3
496.700	1	6
496.870	1	5
497.040	1	0
497.211	1	4
497.381	1	-5
497.551	1	2
497.721	1	1
497.892	1	-4
498.062	1	-7
498.232	1	-5
498.403	1	5
498.573	1	-13
498.743	1	-7
498.913	1	-2
499.084	1	1
499.254	1	6
499.424	1	0
499.594	1	4
499.765	1	0
499.935	1	8
500.105	1	-3
500.275	1	0
500.446	1	-10
500.616	1	-7
500.786	1	-14
500.956	1	-7
501.127	1	6
501.297	1	-6
501.467	1	-6
501.638	1	0
501.808	1	2
501.978	1	6
502.148	1	3
502.319	1	2
502.489	1	0
502.659	1	-4
502.829	1	-8
503.000	1	-2
503.170	1	9
503.340	1	10
503.510	1	3
503.681	1	-4
503.851	1	0
504.021	1	5
504.191	1	-2
504.362	1	-14
504.532	1	0
504.702	1	-13
504.872	1	3
505.042	1	-6
505.213	1	8
505.383	1	-3
505.553	1	-8
505.723	1	-5
505.894	1	-11
506.064	1	4
506.234	1	4
506.404	1	2
506.575	1	7
506.745	1	5
506.915	1	8
507.085	1	-9
507.256	1	0
507.426	1	6
507.596	1	2
507.766	1	5
507.936	1	0
508.107	1	3
508.277	1	-7
508.447	1	7
508.617	1	3
508.788	1	18
508.958	1	-10
509.128	1	-3
509.298	1	-4
509.468	1	1
509.639	1	-6
509.809	1	3
509.979	1	-1
510.149	1	3
510.319	1	6
510.490	1	9
510.660	1	-6
510.830	1	4
511.000	1	-8
511.171	1	-8
511.341	1	-3
511.511	1	8
511.681	1	10
511.851	1	0
512.022	1	-4
512.192	1	3
512.362	1	0
512.532	1	-12
512.702	1	-7
512.873	1	5
513.043	1	8
513.213	1	-4
513.383	1	-12
513.553	1	-11
513.724	1	12
513.894	1	-8
514.064	1	7
514.234	1	5
514.404	1	-9
514.575	1	12
514.745	1	-4
514.915	1	-2
515.085	1	-2
515.255	1	-3
515.425	1	-6
515.596	1	4
515.766	1	-9
515.936	1	-3
516.106	1	-2
516.276	1	-9
516.447	1	12
516.617	1	9
516.787	1	2
516.957	1	-3
517.127	1	-5
517.297	1	-2
517.468	1	0
517.638	1	0
517.808	1	-4
517.978	1	-3
518.148	1	-2
518.319	1	0
518.489	1	-3
518.659	1	-5
518.829	1	2
518.999	1	2
519.169	1	-14
519.340	1	0
519.510	1	3
519.680	1	1
519.850	1	0
520.020	1	-2
520.190	1	-5
520.361	1	2
520.531	1	9
520.701	1	4
520.871	1	5
521.041	1	-3
521.211	1	-17
521.382	1	-11
521.552	1	7
521.722	1	-7
521.892	1	0
522.062	1	11
522.232	1	8
522.402	1	16
522.573	1	-6
522.743	1	-3
522.913	1	2
523.083	1	-2
523.253	1	3
523.423	1	3
523.593	1	0
523.764	1	0
523.934	1	2
524.104	1	-6
524.274	1	0
524.444	1	-3
524.614	1	3
524.784	1	0
524.955	1	-9
525.125	1	-2
525.295	1	1
525.465	1	3
525.635	1	0
525.805	1	-6
525.975	1	2
526.146	1	-4
526.316	1	10
526.486	1	-7
526.656	1	-9
526.826	1	1
526.996	1	3
527.166	1	2
527.337	1	-4
527.507	1	10
527.677	1	0
527.847	1	5
528.017	1	-10
528.187	1	-1
528.357	1	-8
528.527	1	5
528.698	1	1
528.868	1	-1
529.038	1	0
529.208	1	0
529.378	1	7
529.548	1	-7
529.718	1	1
529.888	1	7
530.058	1	-5
530.229	1	-3
530.399	1	6
530.569	1	-9
530.739	1	-3
530.909	1	0
531.079	1	-1
531.249	1	-4
531.419	1	3
531.589	1	1
531.760	1	-3
531.930	1	-1
532.100	1	-2
532.270	1	-5
532.440	1	-8
532.610	1	-8
532.780	1	1
532.950	1	-2
533.120	1	11
533.290	1	5
533.461	1	-8
533.631	1	2
533.801	1	8
533.971	1	1
534.141	1	-9
534.311	1	10
534.481	1	-9
534.651	1	-6
534.821	1	7
534.991	1	0
535.162	1	1
535.332	1	1
535.502	1	-4
535.672	1	3
535.842	1	10
536.012	1	1
536.182	1	-5
536.352	1	-1
536.522	1	-11
536.692	1	-1
536.862	1	1
537.032	1	4
537.203	1	-14
537.373	1	4
537.543	1	-1
537.713	1	10
537.883	1	-4
538.053	1	-6
538.223	1	2
538.393	1	9
538.563	1	6
538.733	1	4
538.903	1	-5
539.073	1	-10
539.243	1	0
539.413	1	2
539.584	1	-3
539.754	1	2
539.924	1	16
540.094	1	1
540.264	1	-9
540.434	1	3
540.604	1	1
540.774	1	10
540.944	1	-8
541.114	1	-10
541.284	1	10
541.454	1	0
541.624	1	6
541.794	1	-5
541.964	1	7
542.134	1	5
542.305	1	7
542.475	1	0
542.645	1	1
542.815	1	-4
542.985	1	-2
543.155	1	-1
543.325	1	0
543.495	1	2
543.665	1	8
543.835	1	12
544.005	1	4
544.175	1	-8
544.345	1	6
544.515	1	2
544.685	1	-1
544.855	1	4
545.025	1	-3
545.195	1	-7
545.365	1	3
545.535	1	8
545.705	1	3
545.875	1	0
546.045	1	-7
546.216	1	2
546.386	1	0
546.556	1	-13
546.726	1	-5
546.896	1	3
547.066	1	1
547.236	1	9
547.406	1	2
547.576	1	11
547.746	1	-7
547.916	1	-5
548.086	1	2
548.256	1	-15
548.426	1	-11
548.596	1	-4
548.766	1	2
548.936	1	3
549.106	1	-1
549.276	1	-7
549.446	1	2
549.616	1	0
549.786	1	3
549.956	1	9
550.126	1	9
550.296	1	-1
550.466	1	-4
550.636	1	3
550.806	1	1
550.976	1	8
551.146	1	1
551.316	1	-1
551.486	1	-3
551.656	1	2
551.826	1	0
551.996	1	9
552.166	1	1
552.336	1	1
552.506	1	11
552.676	1	14
552.846	1	-1
553.016	1	1
553.186	1	1
553.356	1	8
553.526	1	2
553.696	1	12
553.866	1	4
554.036	1	-9
554.206	1	3
554.376	1	9
554.546	1	-8
554.716	1	8
554.886	1	1
555.056	1	-4
555.226	1	-3
555.396	1	-13
555.566	1	2
555.736	1	-2
555.906	1	4
556.076	1	4
556.246	1	0
556.416	1	-9
556.586	1	-5
556.756	1	3
556.926	1	-5
557.096	1	-1
557.266	1	-2
557.436	1	6
557.606	1	-3
557.776	1	-4
557.946	1	14
558.116	1	-2
558.286	1	-8
558.456	1	-4
558.626	1	11
558.796	1	-11
558.966	1	-1
559.136	1	5
559.306	1	-15
559.476	1	-9
559.646	1	-8
559.816	1	-7
559.986	1	-2
560.155	1	4
560.325	1	0
560.495	1	-2
560.665	1	11
560.835	1	0
561.005	1	-6
561.175	1	4
561.345	1	6
561.515	1	-6
561.685	1	-5
561.855	1	-3
562.025	1	-4
562.195	1	4
562.365	1	9
562.535	1	1
562.705	1	7
562.875	1	1
563.045	1	-9
563.215	1	2
563.385	1	-18
563.555	1	-3
563.725	1	-4
563.895	1	12
564.064	1	-2
564.234	1	-2
564.404	1	7
564.574	1	4
564.744	1	-5
564.914	1	-1
565.084	1	-3
565.254	1	10
565.424	1	0
565.594	1	0
565.764	1	3
565.934	1	1
566.104	1	4
566.274	1	-8
566.444	1	-6
566.614	1	-8
566.783	1	-1
566.953	1	14
567.123	1	4
567.293	1	13
567.463	1	3
567.633	1	-1
567.803	1	-12
567.973	1	-6
568.143	1	-5
568.313	1	2
568.483	1	1
568.653	1	-3
568.823	1	-3
568.993	1	0
569.162	1	-1
569.332	1	3
569.502	1	1
569.672	1	9
569.842	1	5
570.012	1	0
570.182	1	-5
570.352	1	-5
570.522	1	-15
570.692	1	11
570.862	1	-8
571.031	1	-8
571.201	1	6
571.371	1	-2
571.541	1	-3
571.711	1	5
571.881	1	10
572.051	1	-9
572.221	1	-9
572.391	1	-13
572.561	1	-6
572.731	1	-1
572.900	1	-8
573.070	1	3
573.240	1	8
573.410	1	3
573.580	1	-4
573.750	1	7
573.920	1	10
574.090	1	-1
574.260	1	3
574.430	1	5
574.599	1	0
574.769	1	2
574.939	1	-1
575.109	1	4
575.279	1	4
575.449	1	-3
575.619	1	2
575.789	1	0
575.959	1	-3
576.128	1	-6
576.298	1	13
576.468	1	-7
576.638	1	-3
576.808	1	-6
576.978	1	3
577.148	1	7
577.318	1	3
577.487	1	-8
577.657	1	-4
577.827	1	-2
577.997	1	-4
578.167	1	-4
578.337	1	10
578.507	1	10
578.677	1	-1
578.846	1	7
579.016	1	-1
579.186	1	-2
579.356	1	-2
579.526	1	-3
579.696	1	5
579.866	1	6
580.036	1	3
580.205	1	-1
580.375	1	0
580.545	1	-6
580.715	1	3
580.885	1	-4
581.055	1	-1
581.225	1	-3
581.394	1	0
581.564	1	7
581.734	1	-3
581.904	1	6
582.074	1	0
582.244	1	-7
582.414	1	6
582.583	1	4
582.753	1	-4
582.923	1	-5
583.093	1	-2
583.263	1	4
583.433	1	-6
583.603	1	6
583.772	1	-2
583.942	1	2
584.112	1	-4
584.282	1	-9
584.452	1	-1
584.622	1	-2
584.791	1	-3
584.961	1	-3
585.131	1	4
585.301	1	-7
585.471	1	4
585.641	1	-7
585.811	1	-1
585.980	1	0
586.150	1	5
586.320	1	-2
586.490	1	3
586.660	1	3
586.830	1	-1
586.999	1	0
587.169	1	3
587.339	1	1
587.509	1	-1
587.679	1	3
587.849	1	4
588.018	1	0
588.188	1	-1
588.358	1	-2
588.528	1	-4
588.698	1	7
588.867	1	1
589.037	1	5
589.207	1	-4
589.377	1	-4
589.547	1	2
589.717	1	4
589.886	1	-8
590.056	1	6
590.226	1	3
590.396	1	0
590.566	1	-6
590.735	1	-5
590.905	1	-1
591.075	1	3
591.245	1	5
591.415	1	4
591.585	1	6
591.754	1	3
591.924	1	1
592.094	1	-8
592.264	1	-1
592.434	1	-2
592.603	1	-2
592.773	1	3
592.943	1	-7
593.113	1	0
593.283	1	-3
593.452	1	9
593.622	1	-1
593.792	1	5
593.962	1	6
594.132	1	-6
594.301	1	6
594.471	1	7
594.641	1	-2
594.811	1	-6
594.981	1	-7
595.150	1	-15
595.320	1	6
595.490	1	12
595.660	1	3
595.829	1	-8
595.999	1	-2
596.169	1	7
596.339	1	6
596.509	1	-6
596.678	1	-5
596.848	1	1
597.018	1	-8
597.188	1	-6
597.358	1	6
597.527	1	-5
597.697	1	-2
597.867	1	-8
598.037	1	0
598.206	1	6
598.376	1	2
598.546	1	-3
598.716	1	6
598.885	1	-15
599.055	1	-3
599.225	1	-8
599.395	1	-9
599.565	1	-8
599.734	1	5
599.904	1	0
600.074	1	0
600.244	1	-7
600.413	1	13
600.583	1	11
600.753	1	0
600.923	1	-2
601.092	1	9
601.262	1	-3
601.432	1	-5
601.602	1	14
601.771	1	7
601.941	1	-7
602.111	1	-2
602.281	1	4
602.451	1	11
602.620	1	-7
602.790	1	-6
602.960	1	-7
603.130	1	-2
603.299	1	3
603.469	1	-10
603.639	1	-2
603.809	1	-1
603.978	1	-8
604.148	1	-3
604.318	1	3
604.487	1	-7
604.657	1	3
604.827	1	5
604.997	1	-4
605.166	1	-2
605.336	1	4
605.506	1	2
605.676	1	-11
605.845	1	-2
606.015	1	-1
606.185	1	4
606.355	1	7
606.524	1	-8
606.694	1	-11
606.864	1	-7
607.034	1	-12
607.203	1	-10
607.373	1	-4
607.543	1	0
607.712	1	-6
607.882	1	-1
608.052	1	-6
608.222	1	4
608.391	1	0
608.561	1	3
608.731	1	-6
608.901	1	9
609.070	1	-1
609.240	1	1
609.410	1	-3
609.579	1	3
609.749	1	-6
609.919	1	8
610.089	1	-1
610.258	1	5
610.428	1	8
610.598	1	-3
610.767	1	-1
610.937	1	0
611.107	1	-7
611.277	1	-2
611.446	1	4
611.616	1	-3
611.786	1	7
611.955	1	1
612.125	1	-1
612.295	1	-2
612.465	1	7
612.634	1	-4
612.804	1	7
612.974	1	-10
613.143	1	1
613.313	1	9
613.483	1	0
613.652	1	1
613.822	1	-5
613.992	1	-3
614.162	1	12
614.331	1	-4
614.501	1	-5
614.671	1	1
614.840	1	2
615.010	1	-11
615.180	1	-11
615.349	1	6
615.519	1	-7
615.689	1	6
615.858	1	-2
616.028	1	2
616.198	1	5
616.368	1	0
616.537	1	-6
616.707	1	2
616.877	1	-3
617.046	1	-7
617.216	1	-8
617.386	1	5
617.555	1	5
617.725	1	-3
617.895	1	2
618.064	1	-13
618.234	1	-3
618.404	1	-3
618.573	1	-9
618.743	1	6
618.913	1	4
619.082	1	5
619.252	1	9
619.422	1	-9
619.591	1	-7
619.761	1	-1
619.931	1	1
620.100	1	2
620.270	1	-5
620.440	1	1
620.609	1	9
620.779	1	-8
620.949	1	4
621.118	1	-1
621.288	1	6
621.458	1	-4
621.627	1	-4
621.797	1	-3
621.967	1	-4
622.136	1	12
622.306	1	-11
622.476	1	-2
622.645	1	7
622.815	1	13
622.985	1	8
623.154	1	3
623.324	1	-4
623.494	1	13
623.663	1	0
623.833	1	4
624.002	1	-16
624.172	1	-2
624.342	1	1
624.511	1	4
624.681	1	9
624.851	1	-6
625.020	1	-1
625.190	1	-4
625.360	1	8
625.529	1	-1
625.699	1	-6
625.869	1	15
626.038	1	-7
626.208	1	-2
626.377	1	0
626.547	1	2
626.717	1	-5
626.886	1	2
627.056	1	-13
627.226	1	3
627.395	1	6
627.565	1	-8
627.735	1	0
627.904	1	-3
628.074	1	8
628.243	1	4
628.413	1	-3
628.583	1	-3
628.752	1	8
628.922	1	4
629.091	1	-11
629.261	1	2
629.431	1	-7
629.600	1	9
629.770	1	-16
629.940	1	-2
630.109	1	-12
630.279	1	-4
630.448	1	-2
630.618	1	1
630.788	1	-1
630.957	1	-2
631.127	1	11
631.297	1	1
631.466	1	1
631.636	1	-4
631.805	1	2
631.975	1	8
632.145	1	-2
632.314	1	2
632.484	1	1
632.653	1	4
632.823	1	-2
632.993	1	-4
633.162	1	4
633.332	1	2
633.501	1	6
633.671	1	-11
633.841	1	-5
634.010	1	0
634.180	1	-3
634.349	1	2
634.519	1	-8
634.689	1	-7
634.858	1	0
635.028	1	9
635.197	1	0
635.367	1	4
635.537	1	-9
635.706	1	-4
635.876	1	1
636.045	1	15
636.215	1	3
636.384	1	-4
636.554	1	6
636.724	1	-1
636.893	1	-5
637.063	1	2
637.232	1	-9
637.402	1	3
637.572	1	-7
637.741	1	4
637.911	1	2
638.080	1	-1
638.250	1	-4
638.419	1	-15
638.589	1	2
638.759	1	0
638.928	1	-4
639.098	1	3
639.267	1	1
639.437	1	2
639.606	1	-7
639.776	1	-6
639.946	1	5
640.115	1	-7
640.285	1	8
640.454	1	-8
640.624	1	4
640.793	1	3
640.963	1	-4
641.132	1	1
641.302	1	-7
641.472	1	1
641.641	1	-15
641.811	1	4
641.980	1	2
642.150	1	-7
642.319	1	-7
642.489	1	7
642.659	1	0
642.828	1	-3
642.998	1	3
643.167	1	3
643.337	1	1
643.506	1	-10
643.676	1	1
643.845	1	-1
644.015	1	-1
644.184	1	-2
644.354	1	1
644.524	1	-8
644.693	1	6
644.863	1	-15
645.032	1	1
645.202	1	7
645.371	1	0
645.541	1	4
645.710	1	-2
645.880	1	4
646.049	1	-9
646.219	1	0
646.388	1	-5
646.558	1	-11
646.728	1	-6
646.897	1	6
647.067	1	-4
647.236	1	2
647.406	1	-9
647.575	1	0
647.745	1	0
647.914	1	-6
648.084	1	-9
648.253	1	4
648.423	1	-1
648.592	1	-5
648.762	1	1
648.931	1	-1
649.101	1	-6
649.270	1	-4
649.440	1	3
649.610	1	0
649.779	1	7
649.949	1	-7
650.118	1	10
650.288	1	1
650.457	1	5
650.627	1	-2
650.796	1	3
650.966	1	5
651.135	1	-9
651.305	1	4
651.474	1	-5
651.644	1	5
651.813	1	-3
651.983	1	-4
652.152	1	10
652.322	1	-5
652.491	1	3
652.661	1	-8
652.830	1	0
653.000	1	-3
653.169	1	5
653.339	1	3
653.508	1	-11
653.678	1	-7
653.847	1	7
654.017	1	-10
654.186	1	1
654.356	1	-9
654.525	1	6
654.695	1	2
654.864	1	0
655.034	1	-2
655.203	1	-8
655.373	1	11
655.542	1	0
655.712	1	-3
655.881	1	-4
656.051	1	-7
656.220	1	-6
656.390	1	-3
656.559	1	1
656.729	1	6
656.898	1	-12
657.068	1	8
657.237	1	-7
657.406	1	3
657.576	1	-2
657.745	1	-6
657.915	1	0
658.084	1	0
658.254	1	-6
658.423	1	9
658.593	1	5
658.762	1	-4
658.932	1	-5
659.101	1	1
659.271	1	1
659.440	1	6
659.610	1	-1
659.779	1	0
659.949	1	-5
660.118	1	5
660.288	1	1
660.457	1	-3
660.626	1	0
660.796	1	-4
660.965	1	7
661.135	1	-2
661.304	1	-2
661.474	1	-1
661.643	1	-2
661.813	1	7
661.982	1	8
662.152	1	2
662.321	1	-1
662.491	1	-3
662.660	1	6
662.829	1	-5
662.999	1	-7
663.168	1	-1
663.338	1	6
663.507	1	-2
663.677	1	-8
663.846	1	-3
664.016	1	-11
664.185	1	5
664.354	1	10
664.524	1	5
664.693	1	0
664.863	1	-4
665.032	1	-6
665.202	1	13
665.371	1	-3
665.541	1	-13
665.710	1	-5
665.879	1	-9
666.049	1	-8
666.218	1	1
666.388	1	5
666.557	1	1
666.727	1	-1
666.896	1	-7
667.065	1	1
667.235	1	3
667.404	1	-1
667.574	1	0
667.743	1	5
667.913	1	4
668.082	1	5
668.251	1	-9
668.421	1	-4
668.590	1	-10
668.760	1	-5
668.929	1	-14
669.099	1	-1
669.268	1	-6
669.437	1	6
669.607	1	-11
669.776	1	-5
669.946	1	-2
670.115	1	2
670.285	1	2
670.454	1	5
670.623	1	-8
670.793	1	-2
670.962	1	-2
671.132	1	11
671.301	1	-4
671.470	1	-3
671.640	1	2
671.809	1	-8
671.979	1	-10
672.148	1	-3
672.317	1	-5
672.487	1	-2
672.656	1	-3
672.826	1	-2
672.995	1	3
673.164	1	-1
673.334	1	-6
673.503	1	-5
673.673	1	6
673.842	1	4
674.011	1	7
674.181	1	8
674.350	1	3
674.520	1	-2
674.689	1	-2
674.858	1	-1
675.028	1	-2
675.197	1	-5
675.367	1	2
675.536	1	3
675.705	1	8
675.875	1	1
676.044	1	-3
676.214	1	-3
676.383	1	-2
676.552	1	2
676.722	1	-2
676.891	1	4
677.060	1	2
677.230	1	-5
677.399	1	-8
677.569	1	-14
677.738	1	3
677.907	1	3
678.077	1	-7
678.246	1	1
678.416	1	0
678.585	1	2
678.754	1	-6
678.924	1	-10
679.093	1	6
679.262	1	0
679.432	1	-7
679.601	1	-5
679.771	1	4
679.940	1	3
680.109	1	3
680.279	1	-1
680.448	1	-8
680.617	1	4
680.787	1	-2
680.956	1	7
681.125	1	2
681.295	1	-4
681.464	1	0
681.634	1	4
681.803	1	-5
681.972	1	-9
682.142	1	2
682.311	1	1
682.480	1	12
682.650	1	5
682.819	1	-3
682.988	1	-12
683.158	1	-1
683.327	1	-5
683.496	1	-5
683.666	1	-4
683.835	1	0
684.004	1	2
684.174	1	-6
684.343	1	-3
684.512	1	6
684.682	1	-5
684.851	1	-1
685.021	1	-2
685.190	1	-6
685.359	1	6
685.529	1	-6
685.698	1	8
685.867	1	6
686.037	1	1
686.206	1	-4
686.375	1	8
686.545	1	-7
686.714	1	-1
686.883	1	-6
687.053	1	3
687.222	1	-1
687.391	1	8
687.561	1	-1
687.730	1	3
687.899	1	4
688.069	1	9
688.238	1	-4
688.407	1	-12
688.577	1	-8
688.746	1	-3
