340.368	1	-1
340.539	1	-10
340.710	1	-3
340.881	1	-8
341.052	1	10
341.223	1	3
341.394	1	11
341.565	1	-3
341.737	1	9
341.908	1	18
342.079	1	0
342.250	1	-5
342.421	1	7
342.592	1	3
342.763	1	15
342.934	1	10
343.105	1	-1
343.276	1	6
343.447	1	-11
343.618	1	1
343.789	1	2
343.960	1	-6
344.131	1	10
344.302	1	9
344.473	1	7
344.644	1	13
344.815	1	6
344.986	1	1
345.157	1	-5
345.328	1	16
345.499	1	-2
345.670	1	-6
345.841	1	15
346.012	1	14
346.183	1	4
346.354	1	10
346.526	1	1
346.697	1	2
346.868	1	9
347.039	1	10
347.210	1	-8
347.381	1	18
347.552	1	13
347.723	1	8
347.894	1	13
348.065	1	11
348.236	1	15
348.407	1	13
348.578	1	9
348.749	1	2
348.920	1	7
349.091	1	-2
349.262	1	15
349.433	1	9
349.604	1	9
349.775	1	14
349.946	1	6
350.117	1	12
350.288	1	17
350.459	1	-1
350.630	1	11
350.801	1	2
350.972	1	8
351.143	1	12
351.314	1	20
351.485	1	17
351.656	1	17
351.827	1	6
351.998	1	10
352.169	1	16
352.340	1	13
352.511	1	12
352.682	1	20
352.853	1	8
353.024	1	8
353.195	1	18
353.366	1	22
353.537	1	11
353.708	1	14
353.879	1	17
354.050	1	6
354.221	1	8
354.392	1	8
354.563	1	17
354.734	1	17
354.905	1	17
355.076	1	20
355.247	1	16
355.418	1	8
355.589	1	10
355.760	1	19
355.931	1	15
356.102	1	23
356.273	1	20
356.444	1	22
356.615	1	19
356.785	1	32
356.956	1	19
357.127	1	20
357.298	1	32
357.469	1	22
357.640	1	26
357.811	1	30
357.982	1	24
358.153	1	39
358.324	1	24
358.495	1	42
358.666	1	31
358.837	1	22
359.008	1	35
359.179	1	43
359.350	1	42
359.521	1	52
359.692	1	52
359.863	1	37
360.034	1	51
360.205	1	52
360.376	1	47
360.547	1	59
360.718	1	61
360.889	1	52
361.060	1	53
361.231	1	61
361.401	1	69
361.572	1	74
361.743	1	71
361.914	1	77
362.085	1	94
362.256	1	84
362.427	1	98
362.598	1	94
362.769	1	82
362.940	1	93
363.111	1	90
363.282	1	111
363.453	1	103
363.624	1	124
363.795	1	130
363.966	1	124
364.137	1	140
364.308	1	138
364.478	1	131
364.649	1	149
364.820	1	149
364.991	1	168
365.162	1	187
365.333	1	181
365.504	1	204
365.675	1	198
365.846	1	229
366.017	1	224
366.188	1	228
366.359	1	248
366.530	1	270
366.701	1	255
366.871	1	260
367.042	1	287
367.213	1	287
367.384	1	303
367.555	1	314
367.726	1	322
367.897	1	336
368.068	1	335
368.239	1	344
368.410	1	352
368.581	1	333
368.752	1	357
368.923	1	354
369.093	1	363
369.264	1	378
369.435	1	380
369.606	1	357
369.777	1	378
369.948	1	366
370.119	1	376
370.290	1	392
370.461	1	365
370.632	1	363
370.803	1	352
370.973	1	349
371.144	1	338
371.315	1	346
371.486	1	331
371.657	1	346
371.828	1	320
371.999	1	311
372.170	1	308
372.341	1	311
372.512	1	289
372.682	1	271
372.853	1	272
373.024	1	280
373.195	1	257
373.366	1	254
373.537	1	255
373.708	1	219
373.879	1	222
374.050	1	229
374.220	1	238
374.391	1	221
374.562	1	223
374.733	1	221
374.904	1	195
375.075	1	192
375.246	1	205
375.417	1	202
375.588	1	187
375.758	1	192
375.929	1	195
376.100	1	182
376.271	1	162
376.442	1	150
376.613	1	159
376.784	1	155
376.955	1	137
377.125	1	135
377.296	1	139
377.467	1	134
377.638	1	132
377.809	1	138
377.980	1	123
378.151	1	131
378.321	1	122
378.492	1	113
378.663	1	119
378.834	1	107
379.005	1	120
379.176	1	101
379.347	1	107
379.518	1	99
379.688	1	114
379.859	1	93
380.030	1	89
380.201	1	100
380.372	1	85
380.543	1	108
380.714	1	102
380.884	1	87
381.055	1	100
381.226	1	86
381.397	1	77
381.568	1	83
381.739	1	86
381.910	1	77
382.080	1	86
382.251	1	73
382.422	1	74
382.593	1	65
382.764	1	64
382.935	1	59
383.105	1	72
383.276	1	70
383.447	1	66
383.618	1	70
383.789	1	64
383.960	1	52
384.130	1	64
384.301	1	53
384.472	1	61
384.643	1	58
384.814	1	51
384.985	1	57
385.156	1	39
385.326	1	64
385.497	1	55
385.668	1	56
385.839	1	44
386.010	1	46
386.180	1	48
386.351	1	49
386.522	1	58
386.693	1	35
386.864	1	52
387.035	1	47
387.205	1	37
387.376	1	48
387.547	1	29
387.718	1	45
387.889	1	34
388.060	1	51
388.230	1	41
388.401	1	33
388.572	1	35
388.743	1	37
388.914	1	35
389.084	1	28
389.255	1	27
389.426	1	32
389.597	1	40
389.768	1	31
389.939	1	39
390.109	1	44
390.280	1	41
390.451	1	25
390.622	1	29
390.793	1	34
390.963	1	32
391.134	1	27
391.305	1	35
391.476	1	35
391.647	1	38
391.817	1	34
391.988	1	35
392.159	1	26
392.330	1	36
392.501	1	27
392.671	1	31
392.842	1	34
393.013	1	33
393.184	1	27
393.355	1	27
393.525	1	23
393.696	1	27
393.867	1	28
394.038	1	32
394.208	1	30
394.379	1	11
394.550	1	29
394.721	1	10
394.892	1	20
395.062	1	17
395.233	1	22
395.404	1	15
395.575	1	23
395.746	1	17
395.916	1	20
396.087	1	13
396.258	1	19
396.429	1	17
396.599	1	13
396.770	1	5
396.941	1	25
397.112	1	19
397.283	1	20
397.453	1	33
397.624	1	14
397.795	1	16
397.966	1	31
398.136	1	6
398.307	1	20
398.478	1	15
398.649	1	3
398.819	1	19
398.990	1	14
399.161	1	21
399.332	1	17
399.503	1	17
399.673	1	12
399.844	1	11
400.015	1	9
400.186	1	18
400.356	1	4
400.527	1	10
400.698	1	11
400.869	1	16
401.039	1	19
401.210	1	13
401.381	1	5
401.552	1	1
401.722	1	21
401.893	1	11
402.064	1	12
402.235	1	6
402.405	1	16
402.576	1	6
402.747	1	2
402.918	1	7
403.088	1	14
403.259	1	11
403.430	1	5
403.601	1	11
403.771	1	14
403.942	1	25
404.113	1	-2
404.284	1	14
404.454	1	11
404.625	1	13
404.796	1	14
404.967	1	9
405.137	1	19
405.308	1	12
405.479	1	18
405.649	1	6
405.820	1	-4
405.991	1	-1
406.162	1	14
406.332	1	14
406.503	1	13
406.674	1	13
406.845	1	14
407.015	1	18
407.186	1	11
407.357	1	9
407.527	1	3
407.698	1	15
407.869	1	4
408.040	1	1
408.210	1	5
408.381	1	15
408.552	1	8
408.722	1	-9
408.893	1	20
409.064	1	8
409.235	1	7
409.405	1	10
409.576	1	2
409.747	1	14
409.917	1	1
410.088	1	7
410.259	1	10
410.430	1	17
410.600	1	-5
410.771	1	10
410.942	1	16
411.112	1	5
411.283	1	16
411.454	1	-6
411.625	1	14
411.795	1	-3
411.966	1	11
412.137	1	8
412.307	1	6
412.478	1	17
412.649	1	8
412.819	1	4
412.990	1	3
413.161	1	8
413.332	1	10
413.502	1	8
413.673	1	1
413.844	1	11
414.014	1	9
414.185	1	3
414.356	1	15
414.526	1	2
414.697	1	15
414.868	1	10
415.038	1	13
415.209	1	7
415.380	1	0
415.550	1	4
415.721	1	2
415.892	1	10
416.063	1	10
416.233	1	10
416.404	1	4
416.575	1	20
416.745	1	-5
416.916	1	0
417.087	1	2
417.257	1	8
417.428	1	9
417.599	1	13
417.769	1	20
417.940	1	13
418.111	1	12
418.281	1	8
418.452	1	-11
418.623	1	6
418.793	1	10
418.964	1	-10
419.135	1	2
419.305	1	3
419.476	1	7
419.647	1	4
419.817	1	10
419.988	1	8
420.159	1	2
420.329	1	-4
420.500	1	2
420.671	1	12
420.841	1	11
421.012	1	10
421.183	1	9
421.353	1	4
421.524	1	-1
421.695	1	6
421.865	1	11
422.036	1	5
422.206	1	6
422.377	1	-1
422.548	1	-3
422.718	1	19
422.889	1	-4
423.060	1	1
423.230	1	-2
423.401	1	2
423.572	1	1
423.742	1	10
423.913	1	11
424.084	1	8
424.254	1	6
424.425	1	0
424.595	1	2
424.766	1	1
424.937	1	4
425.107	1	3
425.278	1	14
425.449	1	8
425.619	1	6
425.790	1	-7
425.961	1	2
426.131	1	7
426.302	1	12
426.472	1	2
426.643	1	20
426.814	1	11
426.984	1	14
427.155	1	5
427.326	1	8
427.496	1	-3
427.667	1	8
427.837	1	-3
428.008	1	3
428.179	1	-7
428.349	1	-13
428.520	1	6
428.691	1	16
428.861	1	1
429.032	1	10
429.202	1	5
429.373	1	8
429.544	1	-5
429.714	1	3
429.885	1	9
430.055	1	11
430.226	1	-7
430.397	1	8
430.567	1	3
430.738	1	7
430.909	1	17
431.079	1	4
431.250	1	6
431.420	1	1
431.591	1	0
431.762	1	13
431.932	1	0
432.103	1	0
432.273	1	4
432.444	1	12
432.615	1	-2
432.785	1	11
432.956	1	-9
433.126	1	-3
433.297	1	14
433.468	1	-3
433.638	1	5
433.809	1	9
433.979	1	3
434.150	1	9
434.320	1	10
434.491	1	-2
434.662	1	1
434.832	1	7
435.003	1	10
435.173	1	2
435.344	1	10
435.515	1	1
435.685	1	-1
435.856	1	2
436.026	1	12
436.197	1	0
436.368	1	0
436.538	1	-1
436.709	1	2
436.879	1	-1
437.050	1	10
437.220	1	10
437.391	1	9
437.562	1	9
437.732	1	-4
437.903	1	2
438.073	1	6
438.244	1	8
438.414	1	-6
438.585	1	2
438.756	1	4
438.926	1	2
439.097	1	-8
439.267	1	14
439.438	1	-2
439.608	1	-6
439.779	1	4
439.949	1	7
440.120	1	-2
440.291	1	3
440.461	1	10
440.632	1	9
440.802	1	1
440.973	1	-3
441.143	1	18
441.314	1	-1
441.485	1	2
441.655	1	8
441.826	1	5
441.996	1	10
442.167	1	2
442.337	1	-2
442.508	1	0
442.678	1	1
442.849	1	17
443.019	1	6
443.190	1	2
443.361	1	-2
443.531	1	10
443.702	1	-2
443.872	1	17
444.043	1	7
444.213	1	4
444.384	1	-1
444.554	1	11
444.725	1	6
444.895	1	-3
445.066	1	-3
445.237	1	7
445.407	1	16
445.578	1	-6
445.748	1	13
445.919	1	-4
446.089	1	9
446.260	1	1
446.430	1	0
446.601	1	-1
446.771	1	11
446.942	1	6
447.112	1	-3
447.283	1	-4
447.453	1	-4
447.624	1	7
447.794	1	4
447.965	1	6
448.135	1	14
448.306	1	-3
448.477	1	2
448.647	1	-7
448.818	1	10
448.988	1	-7
449.159	1	0
449.329	1	6
449.500	1	-2
449.670	1	6
449.841	1	14
450.011	1	12
450.182	1	4
450.352	1	7
450.523	1	-9
450.693	1	-2
450.864	1	2
451.034	1	-14
451.205	1	13
451.375	1	-5
451.546	1	10
451.716	1	-4
451.887	1	0
452.057	1	8
452.228	1	2
452.398	1	-2
452.569	1	-3
452.739	1	10
452.910	1	2
453.080	1	5
453.251	1	6
453.421	1	5
453.592	1	9
453.762	1	1
453.933	1	-9
454.103	1	3
454.274	1	0
454.444	1	-4
454.615	1	7
454.785	1	4
454.956	1	4
455.126	1	13
455.297	1	14
455.467	1	2
455.638	1	5
455.808	1	11
455.979	1	4
456.149	1	10
456.320	1	3
456.490	1	3
456.661	1	11
456.831	1	11
457.001	1	9
457.172	1	2
457.342	1	0
457.513	1	12
457.683	1	6
457.854	1	-7
458.024	1	4
458.195	1	-4
458.365	1	3
458.536	1	16
458.706	1	0
458.877	1	1
459.047	1	16
459.218	1	-6
459.388	1	9
459.559	1	3
459.729	1	11
459.899	1	10
460.070	1	7
460.240	1	14
460.411	1	-5
460.581	1	17
460.752	1	3
460.922	1	11
461.093	1	8
461.263	1	-6
461.434	1	8
461.604	1	0
461.775	1	-10
461.945	1	0
462.115	1	8
462.286	1	8
462.456	1	-2
462.627	1	3
462.797	1	6
462.968	1	7
463.138	1	2
463.309	1	-4
463.479	1	-7
463.649	1	-4
463.820	1	3
463.990	1	9
464.161	1	1
464.331	1	-3
464.502	1	8
464.672	1	-1
464.843	1	5
465.013	1	-2
465.183	1	3
465.354	1	9
465.524	1	2
465.695	1	2
465.865	1	8
466.036	1	-3
466.206	1	8
466.376	1	-5
466.547	1	13
466.717	1	7
466.888	1	5
467.058	1	4
467.229	1	0
467.399	1	9
467.569	1	7
467.740	1	14
467.910	1	6
468.081	1	5
468.251	1	-1
468.422	1	3
468.592	1	0
468.762	1	-6
468.933	1	2
469.103	1	1
469.274	1	12
469.444	1	0
469.614	1	4
469.785	1	4
469.955	1	-12
470.126	1	-4
470.296	1	-3
470.467	1	0
470.637	1	6
470.807	1	3
470.978	1	2
471.148	1	6
471.319	1	3
471.489	1	12
471.659	1	-4
471.830	1	-2
472.000	1	1
472.171	1	-1
472.341	1	4
472.511	1	-4
472.682	1	0
472.852	1	3
473.023	1	-1
473.193	1	13
473.363	1	4
473.534	1	11
473.704	1	2
473.875	1	9
474.045	1	1
474.215	1	25
474.386	1	14
474.556	1	3
474.727	1	5
474.897	1	18
475.067	1	8
475.238	1	0
475.408	1	2
475.578	1	2
475.749	1	2
475.919	1	4
476.090	1	8
476.260	1	-1
476.430	1	9
476.601	1	14
476.771	1	-4
476.942	1	17
477.112	1	10
477.282	1	3
477.453	1	7
477.623	1	-3
477.793	1	3
477.964	1	4
478.134	1	-1
478.305	1	8
478.475	1	6
478.645	1	18
478.816	1	3
478.986	1	-2
479.156	1	4
479.327	1	-2
479.497	1	0
479.667	1	-2
479.838	1	4
480.008	1	1
480.179	1	5
480.349	1	-6
480.519	1	7
480.690	1	10
480.860	1	-1
481.030	1	0
481.201	1	8
481.371	1	13
481.541	1	-6
481.712	1	4
481.882	1	14
482.053	1	8
482.223	1	6
482.393	1	4
482.564	1	0
482.734	1	-1
482.904	1	-1
483.075	1	5
483.245	1	2
483.415	1	7
483.586	1	5
483.756	1	9
483.926	1	0
484.097	1	3
484.267	1	0
484.437	1	-6
484.608	1	10
484.778	1	7
484.948	1	1
485.119	1	10
485.289	1	4
485.459	1	23
485.630	1	0
485.800	1	9
485.970	1	4
486.141	1	-2
486.311	1	6
486.481	1	5
486.652	1	12
486.822	1	14
486.992	1	11
487.163	1	6
487.333	1	17
487.503	1	14
487.674	1	17
487.844	1	11
488.014	1	6
488.185	1	10
488.355	1	8
488.525	1	12
488.696	1	0
488.866	1	7
489.036	1	19
489.207	1	6
489.377	1	1
489.547	1	12
489.718	1	12
489.888	1	0
490.058	1	4
490.228	1	12
490.399	1	2
490.569	1	22
490.739	1	6
490.910	1	13
491.080	1	15
491.250	1	6
491.421	1	0
491.591	1	1
491.761	1	7
491.932	1	8
492.102	1	4
492.272	1	0
492.442	1	12
492.613	1	8
492.783	1	17
492.953	1	4
493.124	1	12
493.294	1	8
493.464	1	23
493.635	1	9
493.805	1	10
493.975	1	15
494.145	1	5
494.316	1	15
494.486	1	13
494.656	1	4
494.827	1	16
494.997	1	4
495.167	1	11
495.337	1	23
495.508	1	4
495.678	1	13
495.848	1	20
496.019	1	17
496.189	1	8
496.359	1	16
496.529	1	3
496.700	1	1
496.870	1	12
497.040	1	14
497.211	1	14
497.381	1	12
497.551	1	15
497.721	1	14
497.892	1	6
498.062	1	11
498.232	1	8
498.403	1	18
498.573	1	1
498.743	1	4
498.913	1	17
499.084	1	9
499.254	1	7
499.424	1	17
499.594	1	13
499.765	1	13
499.935	1	10
500.105	1	9
500.275	1	15
500.446	1	5
500.616	1	3
500.786	1	-2
500.956	1	14
501.127	1	13
501.297	1	9
501.467	1	1
501.638	1	8
501.808	1	17
501.978	1	16
502.148	1	12
502.319	1	9
502.489	1	15
502.659	1	9
502.829	1	13
503.000	1	12
503.170	1	20
503.340	1	18
503.510	1	10
503.681	1	19
503.851	1	7
504.021	1	14
504.191	1	23
504.362	1	12
504.532	1	18
504.702	1	10
504.872	1	21
505.042	1	9
505.213	1	27
505.383	1	15
505.553	1	7
505.723	1	9
505.894	1	16
506.064	1	13
506.234	1	20
506.404	1	20
506.575	1	21
506.745	1	20
506.915	1	22
507.085	1	9
507.256	1	16
507.426	1	12
507.596	1	21
507.766	1	23
507.936	1	17
508.107	1	18
508.277	1	10
508.447	1	33
508.617	1	7
508.788	1	25
508.958	1	17
509.128	1	15
509.298	1	23
509.468	1	13
509.639	1	10
509.809	1	17
509.979	1	16
510.149	1	12
510.319	1	28
510.490	1	32
510.660	1	18
510.830	1	25
511.000	1	21
511.171	1	9
511.341	1	10
511.511	1	25
511.681	1	20
511.851	1	16
512.022	1	16
512.192	1	23
512.362	1	8
512.532	1	16
512.702	1	16
512.873	1	26
513.043	1	21
513.213	1	11
513.383	1	9
513.553	1	4
513.724	1	19
513.894	1	14
514.064	1	33
514.234	1	15
514.404	1	19
514.575	1	24
514.745	1	16
514.915	1	8
515.085	1	14
515.255	1	12
515.425	1	26
515.596	1	13
515.766	1	10
515.936	1	24
516.106	1	26
516.276	1	8
516.447	1	38
516.617	1	35
516.787	1	22
516.957	1	19
517.127	1	9
517.297	1	17
517.468	1	20
517.638	1	28
517.808	1	19
517.978	1	27
518.148	1	29
518.319	1	19
518.489	1	18
518.659	1	19
518.829	1	26
518.999	1	24
519.169	1	24
519.340	1	15
519.510	1	16
519.680	1	36
519.850	1	20
520.020	1	23
520.190	1	18
520.361	1	23
520.531	1	29
520.701	1	17
520.871	1	29
521.041	1	31
521.211	1	12
521.382	1	16
521.552	1	22
521.722	1	18
521.892	1	26
522.062	1	35
522.232	1	22
522.402	1	37
522.573	1	26
522.743	1	14
522.913	1	30
523.083	1	32
523.253	1	27
523.423	1	34
523.593	1	27
523.764	1	32
523.934	1	24
524.104	1	24
524.274	1	29
524.444	1	30
524.614	1	21
524.784	1	28
524.955	1	19
525.125	1	29
525.295	1	29
525.465	1	44
525.635	1	28
525.805	1	20
525.975	1	27
526.146	1	22
526.316	1	30
526.486	1	36
526.656	1	29
526.826	1	8
526.996	1	32
527.166	1	29
527.337	1	14
527.507	1	35
527.677	1	35
527.847	1	28
528.017	1	21
528.187	1	32
528.357	1	31
528.527	1	41
528.698	1	27
528.868	1	33
529.038	1	26
529.208	1	27
529.378	1	32
529.548	1	27
529.718	1	37
529.888	1	35
530.058	1	33
530.229	1	29
530.399	1	37
530.569	1	16
530.739	1	33
530.909	1	30
531.079	1	34
531.249	1	27
531.419	1	32
531.589	1	43
531.760	1	42
531.930	1	26
532.100	1	32
532.270	1	32
532.440	1	35
532.610	1	32
532.780	1	26
532.950	1	34
533.120	1	33
533.290	1	26
533.461	1	31
533.631	1	35
533.801	1	44
533.971	1	21
534.141	1	29
534.311	1	44
534.481	1	22
534.651	1	30
534.821	1	41
534.991	1	34
535.162	1	26
535.332	1	28
535.502	1	31
535.672	1	38
535.842	1	38
536.012	1	34
536.182	1	34
536.352	1	29
536.522	1	28
536.692	1	27
536.862	1	36
537.032	1	35
537.203	1	29
537.373	1	38
537.543	1	29
537.713	1	27
537.883	1	34
538.053	1	29
538.223	1	34
538.393	1	32
538.563	1	31
538.733	1	27
538.903	1	29
539.073	1	29
539.243	1	29
539.413	1	30
539.584	1	28
539.754	1	32
539.924	1	43
540.094	1	32
540.264	1	22
540.434	1	31
540.604	1	38
540.774	1	33
540.944	1	20
541.114	1	23
541.284	1	36
541.454	1	31
541.624	1	26
541.794	1	31
541.964	1	34
542.134	1	21
542.305	1	33
542.475	1	33
542.645	1	39
542.815	1	29
542.985	1	35
543.155	1	33
543.325	1	30
543.495	1	30
543.665	1	34
543.835	1	40
544.005	1	34
544.175	1	21
544.345	1	33
544.515	1	30
544.685	1	35
544.855	1	36
545.025	1	30
545.195	1	30
545.365	1	26
545.535	1	42
545.705	1	23
545.875	1	27
546.045	1	23
546.216	1	35
546.386	1	43
546.556	1	31
546.726	1	25
546.896	1	33
547.066	1	41
547.236	1	34
547.406	1	44
547.576	1	39
547.746	1	24
547.916	1	30
548.086	1	39
548.256	1	27
548.426	1	32
548.596	1	36
548.766	1	28
548.936	1	39
549.106	1	30
549.276	1	29
549.446	1	32
549.616	1	36
549.786	1	25
549.956	1	34
550.126	1	50
550.296	1	25
550.466	1	37
550.636	1	42
550.806	1	32
550.976	1	38
551.146	1	37
551.316	1	39
551.486	1	33
551.656	1	38
551.826	1	30
551.996	1	36
552.166	1	40
552.336	1	34
552.506	1	43
552.676	1	47
552.846	1	37
553.016	1	43
553.186	1	36
553.356	1	36
553.526	1	20
553.696	1	41
553.866	1	39
554.036	1	39
554.206	1	42
554.376	1	42
554.546	1	47
554.716	1	34
554.886	1	41
555.056	1	43
555.226	1	33
555.396	1	32
555.566	1	34
555.736	1	28
555.906	1	41
556.076	1	34
556.246	1	45
556.416	1	23
556.586	1	32
556.756	1	33
556.926	1	30
557.096	1	32
557.266	1	31
557.436	1	41
557.606	1	37
557.776	1	26
557.946	1	36
558.116	1	35
558.286	1	38
558.456	1	29
558.626	1	31
558.796	1	30
558.966	1	27
559.136	1	35
559.306	1	35
559.476	1	23
559.646	1	34
559.816	1	37
559.986	1	32
560.155	1	43
560.325	1	26
560.495	1	35
560.665	1	29
560.835	1	34
561.005	1	24
561.175	1	30
561.345	1	24
561.515	1	26
561.685	1	33
561.855	1	21
562.025	1	34
562.195	1	32
562.365	1	34
562.535	1	26
562.705	1	32
562.875	1	30
563.045	1	29
563.215	1	42
563.385	1	30
563.555	1	31
563.725	1	40
563.895	1	32
564.064	1	38
564.234	1	31
564.404	1	30
564.574	1	35
564.744	1	37
564.914	1	36
565.084	1	31
565.254	1	42
565.424	1	38
565.594	1	41
565.764	1	28
565.934	1	44
566.104	1	35
566.274	1	33
566.444	1	31
566.614	1	29
566.783	1	29
566.953	1	43
567.123	1	35
567.293	1	45
567.463	1	37
567.633	1	36
567.803	1	27
567.973	1	27
568.143	1	34
568.313	1	36
568.483	1	40
568.653	1	28
568.823	1	33
568.993	1	35
569.162	1	39
569.332	1	33
569.502	1	24
569.672	1	41
569.842	1	39
570.012	1	34
570.182	1	27
570.352	1	25
570.522	1	15
570.692	1	43
570.862	1	24
571.031	1	39
571.201	1	46
571.371	1	30
571.541	1	42
571.711	1	33
571.881	1	41
572.051	1	29
572.221	1	33
572.391	1	24
572.561	1	24
572.731	1	32
572.900	1	28
573.070	1	35
573.240	1	32
573.410	1	40
573.580	1	26
573.750	1	32
573.920	1	39
574.090	1	30
574.260	1	31
574.430	1	33
574.599	1	32
574.769	1	36
574.939	1	30
575.109	1	40
575.279	1	43
575.449	1	33
575.619	1	40
575.789	1	25
575.959	1	25
576.128	1	32
576.298	1	42
576.468	1	27
576.638	1	21
576.808	1	34
576.978	1	41
577.148	1	32
577.318	1	29
577.487	1	26
577.657	1	27
577.827	1	28
577.997	1	37
578.167	1	30
578.337	1	48
578.507	1	40
578.677	1	38
578.846	1	42
579.016	1	35
579.186	1	39
579.356	1	32
579.526	1	27
579.696	1	41
579.866	1	42
580.036	1	31
580.205	1	29
580.375	1	23
580.545	1	30
580.715	1	27
580.885	1	27
581.055	1	30
581.225	1	40
581.394	1	30
581.564	1	34
581.734	1	31
581.904	1	41
582.074	1	28
582.244	1	26
582.414	1	46
582.583	1	38
582.753	1	19
582.923	1	28
583.093	1	32
583.263	1	31
583.433	1	27
583.603	1	33
583.772	1	42
583.942	1	33
584.112	1	30
584.282	1	12
584.452	1	39
584.622	1	28
584.791	1	17
584.961	1	25
585.131	1	34
585.301	1	26
585.471	1	46
585.641	1	36
585.811	1	43
585.980	1	42
586.150	1	28
586.320	1	38
586.490	1	35
586.660	1	25
586.830	1	35
586.999	1	37
587.169	1	23
587.339	1	40
587.509	1	29
587.679	1	29
587.849	1	32
588.018	1	30
588.188	1	35
588.358	1	32
588.528	1	25
588.698	1	34
588.867	1	30
589.037	1	39
589.207	1	33
589.377	1	38
589.547	1	31
589.717	1	31
589.886	1	24
590.056	1	21
590.226	1	34
590.396	1	29
590.566	1	25
590.735	1	16
590.905	1	29
591.075	1	20
591.245	1	14
591.415	1	27
591.585	1	27
591.754	1	33
591.924	1	32
592.094	1	32
592.264	1	39
592.434	1	19
592.603	1	25
592.773	1	19
592.943	1	40
593.113	1	33
593.283	1	24
593.452	1	30
593.622	1	28
593.792	1	31
593.962	1	30
594.132	1	23
594.301	1	24
594.471	1	35
594.641	1	18
594.811	1	28
594.981	1	26
595.150	1	11
595.320	1	36
595.490	1	35
595.660	1	16
595.829	1	24
595.999	1	16
596.169	1	18
596.339	1	27
596.509	1	30
596.678	1	13
596.848	1	32
597.018	1	33
597.188	1	16
597.358	1	31
597.527	1	15
597.697	1	12
597.867	1	18
598.037	1	23
598.206	1	15
598.376	1	18
598.546	1	26
598.716	1	29
598.885	1	14
599.055	1	29
599.225	1	18
599.395	1	22
599.565	1	14
599.734	1	26
599.904	1	32
600.074	1	18
600.244	1	15
600.413	1	29
600.583	1	44
600.753	1	24
600.923	1	15
601.092	1	44
601.262	1	26
601.432	1	15
601.602	1	29
601.771	1	33
601.941	1	17
602.111	1	24
602.281	1	34
602.451	1	30
602.620	1	22
602.790	1	26
602.960	1	24
603.130	1	31
603.299	1	17
603.469	1	15
603.639	1	13
603.809	1	25
603.978	1	16
604.148	1	27
604.318	1	11
604.487	1	25
604.657	1	26
604.827	1	23
604.997	1	21
605.166	1	36
605.336	1	28
605.506	1	27
605.676	1	17
605.845	1	28
606.015	1	22
606.185	1	34
606.355	1	26
606.524	1	13
606.694	1	28
606.864	1	25
607.034	1	24
607.203	1	15
607.373	1	18
607.543	1	34
607.712	1	20
607.882	1	31
608.052	1	16
608.222	1	29
608.391	1	33
608.561	1	25
608.731	1	26
608.901	1	27
609.070	1	38
609.240	1	23
609.410	1	23
609.579	1	27
609.749	1	27
609.919	1	32
610.089	1	18
610.258	1	38
610.428	1	29
610.598	1	20
610.767	1	28
610.937	1	24
611.107	1	20
611.277	1	26
611.446	1	29
611.616	1	25
611.786	1	29
611.955	1	26
612.125	1	26
612.295	1	16
612.465	1	32
612.634	1	24
612.804	1	21
612.974	1	17
613.143	1	19
613.313	1	16
613.483	1	31
613.652	1	20
613.822	1	12
613.992	1	19
614.162	1	22
614.331	1	19
614.501	1	13
614.671	1	18
614.840	1	21
615.010	1	11
615.180	1	20
615.349	1	35
615.519	1	9
615.689	1	32
615.858	1	27
616.028	1	21
616.198	1	20
616.368	1	30
616.537	1	13
616.707	1	17
616.877	1	16
617.046	1	34
617.216	1	20
617.386	1	20
617.555	1	17
617.725	1	22
617.895	1	19
618.064	1	10
618.234	1	30
618.404	1	13
618.573	1	13
618.743	1	27
618.913	1	25
619.082	1	12
619.252	1	12
619.422	1	12
619.591	1	12
619.761	1	17
619.931	1	26
620.100	1	23
620.270	1	-6
620.440	1	12
620.609	1	21
620.779	1	15
620.949	1	21
621.118	1	6
621.288	1	23
621.458	1	26
621.627	1	24
621.797	1	15
621.967	1	21
622.136	1	27
622.306	1	7
622.476	1	27
622.645	1	25
622.815	1	21
622.985	1	23
623.154	1	9
623.324	1	13
623.494	1	21
623.663	1	16
623.833	1	18
624.002	1	3
624.172	1	11
624.342	1	28
624.511	1	9
624.681	1	14
624.851	1	7
625.020	1	16
625.190	1	17
625.360	1	18
625.529	1	10
625.699	1	12
625.869	1	24
626.038	1	17
626.208	1	17
626.377	1	20
626.547	1	18
626.717	1	25
626.886	1	23
627.056	1	3
627.226	1	25
627.395	1	16
627.565	1	7
627.735	1	5
627.904	1	12
628.074	1	14
628.243	1	19
628.413	1	17
628.583	1	11
628.752	1	13
628.922	1	22
629.091	1	16
629.261	1	22
629.431	1	18
629.600	1	21
629.770	1	-3
629.940	1	13
630.109	1	10
630.279	1	6
630.448	1	10
630.618	1	17
630.788	1	22
630.957	1	11
631.127	1	22
631.297	1	23
631.466	1	10
631.636	1	5
631.805	1	23
631.975	1	25
632.145	1	4
632.314	1	17
632.484	1	10
632.653	1	21
632.823	1	16
632.993	1	12
633.162	1	17
633.332	1	19
633.501	1	11
633.671	1	20
633.841	1	7
634.010	1	5
634.180	1	16
634.349	1	15
634.519	1	8
634.689	1	10
634.858	1	19
635.028	1	12
635.197	1	23
635.367	1	12
635.537	1	16
635.706	1	7
635.876	1	16
636.045	1	22
636.215	1	19
636.384	1	16
636.554	1	22
636.724	1	13
636.893	1	10
637.063	1	15
637.232	1	6
637.402	1	14
637.572	1	13
637.741	1	15
637.911	1	12
638.080	1	12
638.250	1	12
638.419	1	4
638.589	1	10
638.759	1	4
638.928	1	12
639.098	1	20
639.267	1	16
639.437	1	15
639.606	1	27
639.776	1	12
639.946	1	15
640.115	1	16
640.285	1	12
640.454	1	15
640.624	1	16
640.793	1	24
640.963	1	11
641.132	1	20
641.302	1	7
641.472	1	9
641.641	1	0
641.811	1	6
641.980	1	9
642.150	1	5
642.319	1	7
642.489	1	18
642.659	1	16
642.828	1	10
642.998	1	21
643.167	1	6
643.337	1	16
643.506	1	7
643.676	1	7
643.845	1	9
644.015	1	13
644.184	1	14
644.354	1	19
644.524	1	7
644.693	1	14
644.863	1	4
645.032	1	18
645.202	1	20
645.371	1	9
645.541	1	15
645.710	1	15
645.880	1	17
646.049	1	3
646.219	1	17
646.388	1	20
646.558	1	11
646.728	1	8
646.897	1	12
647.067	1	17
647.236	1	9
647.406	1	8
647.575	1	19
647.745	1	10
647.914	1	11
648.084	1	1
648.253	1	20
648.423	1	9
648.592	1	3
648.762	1	11
648.931	1	12
649.101	1	7
649.270	1	11
649.440	1	19
649.610	1	11
649.779	1	12
649.949	1	8
650.118	1	22
650.288	1	16
650.457	1	25
650.627	1	-1
650.796	1	9
650.966	1	17
651.135	1	9
651.305	1	17
651.474	1	7
651.644	1	19
651.813	1	18
651.983	1	6
652.152	1	6
652.322	1	8
652.491	1	3
652.661	1	4
652.830	1	13
653.000	1	9
653.169	1	13
653.339	1	16
653.508	1	9
653.678	1	13
653.847	1	16
654.017	1	10
654.186	1	7
654.356	1	4
654.525	1	14
654.695	1	19
654.864	1	19
655.034	1	8
655.203	1	7
655.373	1	14
655.542	1	7
655.712	1	15
655.881	1	18
656.051	1	11
656.220	1	4
656.390	1	0
656.559	1	23
656.729	1	19
656.898	1	4
657.068	1	11
657.237	1	15
657.406	1	15
657.576	1	9
657.745	1	7
657.915	1	8
658.084	1	15
658.254	1	-3
658.423	1	23
658.593	1	10
658.762	1	5
658.932	1	7
659.101	1	22
659.271	1	18
659.440	1	8
659.610	1	10
659.779	1	11
659.949	1	14
660.118	1	6
660.288	1	13
660.457	1	14
660.626	1	16
660.796	1	4
660.965	1	19
661.135	1	9
661.304	1	4
661.474	1	3
661.643	1	15
661.813	1	15
661.982	1	19
662.152	1	18
662.321	1	10
662.491	1	8
662.660	1	6
662.829	1	9
662.999	1	-1
663.168	1	2
663.338	1	9
663.507	1	14
663.677	1	12
663.846	1	4
664.016	1	5
664.185	1	13
664.354	1	20
664.524	1	9
664.693	1	19
664.863	1	8
665.032	1	23
665.202	1	13
665.371	1	4
665.541	1	10
665.710	1	16
665.879	1	7
666.049	1	2
666.218	1	1
666.388	1	19
666.557	1	3
666.727	1	9
666.896	1	4
667.065	1	17
667.235	1	12
667.404	1	10
667.574	1	5
667.743	1	16
667.913	1	6
668.082	1	17
668.251	1	1
668.421	1	6
668.590	1	5
668.760	1	9
668.929	1	-1
669.099	1	10
669.268	1	6
669.437	1	11
669.607	1	12
669.776	1	2
669.946	1	14
670.115	1	10
670.285	1	12
670.454	1	16
670.623	1	9
670.793	1	8
670.962	1	10
671.132	1	16
671.301	1	7
671.470	1	6
671.640	1	7
671.809	1	8
671.979	1	-5
672.148	1	20
672.317	1	18
672.487	1	16
672.656	1	4
672.826	1	4
672.995	1	18
673.164	1	12
673.334	1	7
673.503	1	6
673.673	1	24
673.842	1	10
674.011	1	15
674.181	1	13
674.350	1	9
674.520	1	7
674.689	1	6
674.858	1	7
675.028	1	15
675.197	1	-4
675.367	1	3
675.536	1	5
675.705	1	17
675.875	1	14
676.044	1	13
676.214	1	-3
676.383	1	10
676.552	1	15
676.722	1	4
676.891	1	23
677.060	1	1
677.230	1	15
677.399	1	14
677.569	1	4
677.738	1	13
677.907	1	11
678.077	1	21
678.246	1	11
678.416	1	8
678.585	1	10
678.754	1	8
678.924	1	10
679.093	1	19
679.262	1	17
679.432	1	4
679.601	1	6
679.771	1	2
679.940	1	4
680.109	1	23
680.279	1	2
680.448	1	8
680.617	1	11
680.787	1	10
680.956	1	26
681.125	1	7
681.295	1	11
681.464	1	13
681.634	1	11
681.803	1	16
681.972	1	4
682.142	1	26
682.311	1	16
682.480	1	7
682.650	1	15
682.819	1	9
682.988	1	7
683.158	1	10
683.327	1	4
683.496	1	15
683.666	1	11
683.835	1	23
684.004	1	12
684.174	1	13
684.343	1	0
684.512	1	11
684.682	1	1
684.851	1	15
685.021	1	-3
685.190	1	12
685.359	1	11
685.529	1	7
685.698	1	9
685.867	1	3
686.037	1	14
686.206	1	4
686.375	1	24
686.545	1	6
686.714	1	3
686.883	1	14
687.053	1	12
687.222	1	16
687.391	1	16
687.561	1	12
687.730	1	5
687.899	1	8
688.069	1	18
688.238	1	19
688.407	1	-1
688.577	1	8
688.746	1	19
