340.368	1	-2
340.539	1	-17
340.710	1	-12
340.881	1	-11
341.052	1	3
341.223	1	-5
341.394	1	-4
341.565	1	-6
341.737	1	5
341.908	1	-9
342.079	1	-1
342.250	1	-6
342.421	1	-3
342.592	1	5
342.763	1	5
342.934	1	-1
343.105	1	3
343.276	1	5
343.447	1	-10
343.618	1	-7
343.789	1	-7
343.960	1	1
344.131	1	-6
344.302	1	1
344.473	1	1
344.644	1	6
344.815	1	-2
344.986	1	-2
345.157	1	-6
345.328	1	2
345.499	1	-4
345.670	1	-4
345.841	1	3
346.012	1	10
346.183	1	-6
346.354	1	2
346.526	1	-6
346.697	1	4
346.868	1	-2
347.039	1	9
347.210	1	-13
347.381	1	4
347.552	1	-5
347.723	1	-5
347.894	1	-2
348.065	1	0
348.236	1	7
348.407	1	5
348.578	1	0
348.749	1	-11
348.920	1	-2
349.091	1	-12
349.262	1	-8
349.433	1	2
349.604	1	-3
349.775	1	10
349.946	1	-1
350.117	1	1
350.288	1	5
350.459	1	-6
350.630	1	-6
350.801	1	-9
350.972	1	-6
351.143	1	5
351.314	1	-1
351.485	1	8
351.656	1	15
351.827	1	-1
351.998	1	-5
352.169	1	0
352.340	1	9
352.511	1	-6
352.682	1	-5
352.853	1	1
353.024	1	6
353.195	1	9
353.366	1	13
353.537	1	3
353.708	1	4
353.879	1	6
354.050	1	-9
354.221	1	-2
354.392	1	1
354.563	1	-2
354.734	1	2
354.905	1	5
355.076	1	2
355.247	1	3
355.418	1	-5
355.589	1	-7
355.760	1	1
355.931	1	0
356.102	1	13
356.273	1	-11
356.444	1	-2
356.615	1	-5
356.785	1	7
356.956	1	-3
357.127	1	7
357.298	1	3
357.469	1	5
357.640	1	1
357.811	1	0
357.982	1	-9
358.153	1	6
358.324	1	-5
358.495	1	8
358.666	1	-3
358.837	1	-2
359.008	1	-3
359.179	1	1
359.350	1	-8
359.521	1	6
359.692	1	8
359.863	1	-6
360.034	1	-5
360.205	1	7
360.376	1	3
360.547	1	10
360.718	1	4
360.889	1	-5
361.060	1	1
361.231	1	-2
361.401	1	-4
361.572	1	4
361.743	1	-11
361.914	1	11
362.085	1	8
362.256	1	9
362.427	1	9
362.598	1	-1
362.769	1	-4
362.940	1	3
363.111	1	-10
363.282	1	7
363.453	1	-5
363.624	1	6
363.795	1	-1
363.966	1	-4
364.137	1	10
364.308	1	0
364.478	1	7
364.649	1	2
364.820	1	1
364.991	1	5
365.162	1	13
365.333	1	0
365.504	1	12
365.675	1	-4
365.846	1	10
366.017	1	7
366.188	1	-3
366.359	1	8
366.530	1	19
366.701	1	10
366.871	1	0
367.042	1	13
367.213	1	12
367.384	1	11
367.555	1	8
367.726	1	11
367.897	1	11
368.068	1	5
368.239	1	12
368.410	1	21
368.581	1	-3
368.752	1	12
368.923	1	4
369.093	1	2
369.264	1	14
369.435	1	18
369.606	1	4
369.777	1	4
369.948	1	12
370.119	1	7
370.290	1	6
370.461	1	10
370.632	1	6
370.803	1	9
370.973	1	6
371.144	1	5
371.315	1	0
371.486	1	10
371.657	1	7
371.828	1	12
371.999	1	4
372.170	1	2
372.341	1	-1
372.512	1	3
372.682	1	7
372.853	1	5
373.024	1	6
373.195	1	-2
373.366	1	11
373.537	1	-2
373.708	1	8
373.879	1	3
374.050	1	2
374.220	1	6
374.391	1	7
374.562	1	12
374.733	1	5
374.904	1	6
375.075	1	-6
375.246	1	7
375.417	1	7
375.588	1	6
375.758	1	-4
375.929	1	8
376.100	1	9
376.271	1	12
376.442	1	3
376.613	1	5
376.784	1	10
376.955	1	-6
377.125	1	2
377.296	1	-4
377.467	1	0
377.638	1	3
377.809	1	10
377.980	1	2
378.151	1	9
378.321	1	-1
378.492	1	-3
378.663	1	-4
378.834	1	0
379.005	1	17
379.176	1	2
379.347	1	6
379.518	1	3
379.688	1	6
379.859	1	0
380.030	1	-8
380.201	1	7
380.372	1	5
380.543	1	6
380.714	1	4
380.884	1	3
381.055	1	11
381.226	1	0
381.397	1	-6
381.568	1	10
381.739	1	8
381.910	1	-3
382.080	1	4
382.251	1	-1
382.422	1	-2
382.593	1	7
382.764	1	-2
382.935	1	-2
383.105	1	-1
383.276	1	2
383.447	1	0
383.618	1	7
383.789	1	-5
383.960	1	-5
384.130	1	0
384.301	1	2
384.472	1	9
384.643	1	4
384.814	1	3
384.985	1	-12
385.156	1	-3
385.326	1	5
385.497	1	6
385.668	1	-4
385.839	1	0
386.010	1	5
386.180	1	-1
386.351	1	4
386.522	1	-1
386.693	1	-9
386.864	1	11
387.035	1	2
387.205	1	-1
387.376	1	3
387.547	1	-1
387.718	1	6
387.889	1	-3
388.060	1	13
388.230	1	1
388.401	1	3
388.572	1	-3
388.743	1	9
388.914	1	-3
389.084	1	2
389.255	1	-12
389.426	1	-5
389.597	1	0
389.768	1	-2
389.939	1	5
390.109	1	6
390.280	1	7
390.451	1	1
390.622	1	-8
390.793	1	4
390.963	1	2
391.134	1	0
391.305	1	0
391.476	1	-4
391.647	1	1
391.817	1	-5
391.988	1	-2
392.159	1	6
392.330	1	5
392.501	1	-8
392.671	1	0
392.842	1	2
393.013	1	-9
393.184	1	-2
393.355	1	-2
393.525	1	2
393.696	1	-4
393.867	1	-11
394.038	1	0
394.208	1	-6
394.379	1	-3
394.550	1	4
394.721	1	0
394.892	1	-6
395.062	1	1
395.233	1	-4
395.404	1	-4
395.575	1	-1
395.746	1	3
395.916	1	-5
396.087	1	-6
396.258	1	3
396.429	1	11
396.599	1	-5
396.770	1	0
396.941	1	-2
397.112	1	10
397.283	1	4
397.453	1	10
397.624	1	-6
397.795	1	-3
397.966	1	5
398.136	1	-7
398.307	1	0
398.478	1	-2
398.649	1	-5
398.819	1	2
398.990	1	-1
399.161	1	11
399.332	1	1
399.503	1	-2
399.673	1	-7
399.844	1	-5
400.015	1	-8
400.186	1	-2
400.356	1	-10
400.527	1	0
400.698	1	-2
400.869	1	1
401.039	1	4
401.210	1	9
401.381	1	-9
401.552	1	-13
401.722	1	2
401.893	1	-2
402.064	1	9
402.235	1	-10
402.405	1	3
402.576	1	7
402.747	1	-6
402.918	1	-1
403.088	1	13
403.259	1	-3
403.430	1	-7
403.601	1	0
403.771	1	8
403.942	1	13
404.113	1	1
404.284	1	8
404.454	1	2
404.625	1	-3
404.796	1	1
404.967	1	4
405.137	1	9
405.308	1	-1
405.479	1	-3
405.649	1	-3
405.820	1	-24
405.991	1	-3
406.162	1	15
406.332	1	2
406.503	1	3
406.674	1	-11
406.845	1	11
407.015	1	3
407.186	1	3
407.357	1	-14
407.527	1	-17
407.698	1	9
407.869	1	-4
408.040	1	-11
408.210	1	-7
408.381	1	2
408.552	1	-1
408.722	1	-11
408.893	1	2
409.064	1	-5
409.235	1	-7
409.405	1	3
409.576	1	-8
409.747	1	-4
409.917	1	-2
410.088	1	5
410.259	1	-3
410.430	1	10
410.600	1	-5
410.771	1	10
410.942	1	4
411.112	1	-5
411.283	1	2
411.454	1	-13
411.625	1	-6
411.795	1	-11
411.966	1	8
412.137	1	2
412.307	1	5
412.478	1	6
412.649	1	-5
412.819	1	1
412.990	1	4
413.161	1	-10
413.332	1	-9
413.502	1	-9
413.673	1	8
413.844	1	1
414.014	1	2
414.185	1	1
414.356	1	4
414.526	1	-4
414.697	1	6
414.868	1	-2
415.038	1	4
415.209	1	-1
415.380	1	-3
415.550	1	-10
415.721	1	-7
415.892	1	6
416.063	1	-1
416.233	1	3
416.404	1	-9
416.575	1	9
416.745	1	-11
416.916	1	-12
417.087	1	3
417.257	1	1
417.428	1	2
417.599	1	1
417.769	1	8
417.940	1	10
418.111	1	1
418.281	1	4
418.452	1	2
418.623	1	-7
418.793	1	-5
418.964	1	-11
419.135	1	-8
419.305	1	9
419.476	1	1
419.647	1	6
419.817	1	6
419.988	1	-4
420.159	1	1
420.329	1	-6
420.500	1	-8
420.671	1	-7
420.841	1	12
421.012	1	-4
421.183	1	4
421.353	1	-5
421.524	1	-13
421.695	1	-8
421.865	1	-5
422.036	1	11
422.206	1	2
422.377	1	-2
422.548	1	-5
422.718	1	2
422.889	1	-10
423.060	1	0
423.230	1	-9
423.401	1	-1
423.572	1	-1
423.742	1	3
423.913	1	-8
424.084	1	-2
424.254	1	8
424.425	1	4
424.595	1	-1
424.766	1	-5
424.937	1	0
425.107	1	-2
425.278	1	8
425.449	1	-10
425.619	1	-3
425.790	1	-12
425.961	1	-7
426.131	1	7
426.302	1	1
426.472	1	4
426.643	1	17
426.814	1	3
426.984	1	2
427.155	1	-5
427.326	1	1
427.496	1	-4
427.667	1	3
427.837	1	-6
428.008	1	6
428.179	1	-9
428.349	1	-15
428.520	1	-4
428.691	1	9
428.861	1	-11
429.032	1	3
429.202	1	-6
429.373	1	0
429.544	1	-6
429.714	1	-1
429.885	1	-1
430.055	1	-4
430.226	1	-4
430.397	1	-3
430.567	1	-1
430.738	1	2
430.909	1	1
431.079	1	0
431.250	1	2
431.420	1	-3
431.591	1	-2
431.762	1	-8
431.932	1	-2
432.103	1	-1
432.273	1	-4
432.444	1	-2
432.615	1	-10
432.785	1	6
432.956	1	-8
433.126	1	-7
433.297	1	-2
433.468	1	-2
433.638	1	-5
433.809	1	-4
433.979	1	4
434.150	1	4
434.320	1	3
434.491	1	-6
434.662	1	-2
434.832	1	7
435.003	1	-2
435.173	1	-15
435.344	1	-5
435.515	1	2
435.685	1	-4
435.856	1	-6
436.026	1	-1
436.197	1	-11
436.368	1	6
436.538	1	-8
436.709	1	8
436.879	1	-8
437.050	1	-2
437.220	1	6
437.391	1	7
437.562	1	-1
437.732	1	-7
437.903	1	0
438.073	1	-6
438.244	1	-2
438.414	1	-7
438.585	1	-7
438.756	1	-15
438.926	1	-2
439.097	1	-7
439.267	1	2
439.438	1	-2
439.608	1	-15
439.779	1	4
439.949	1	10
440.120	1	1
440.291	1	1
440.461	1	-1
440.632	1	-1
440.802	1	-10
440.973	1	-5
441.143	1	10
441.314	1	-5
441.485	1	6
441.655	1	5
441.826	1	4
441.996	1	-6
442.167	1	-2
442.337	1	1
442.508	1	-6
442.678	1	-12
442.849	1	8
443.019	1	6
443.190	1	-4
443.361	1	-4
443.531	1	-2
443.702	1	-3
443.872	1	6
444.043	1	4
444.213	1	-6
444.384	1	-6
444.554	1	3
444.725	1	-5
444.895	1	0
445.066	1	-3
445.237	1	0
445.407	1	-2
445.578	1	-11
445.748	1	1
445.919	1	-4
446.089	1	-2
446.260	1	-8
446.430	1	-1
446.601	1	-1
446.771	1	0
446.942	1	1
447.112	1	-7
447.283	1	-7
447.453	1	0
447.624	1	4
447.794	1	0
447.965	1	-8
448.135	1	2
448.306	1	0
448.477	1	6
448.647	1	-3
448.818	1	-3
448.988	1	1
449.159	1	5
449.329	1	0
449.500	1	-3
449.670	1	5
449.841	1	10
450.011	1	6
450.182	1	-7
450.352	1	-8
450.523	1	-16
450.693	1	-9
450.864	1	-1
451.034	1	-3
451.205	1	11
451.375	1	7
451.546	1	-6
451.716	1	3
451.887	1	-8
452.057	1	-3
452.228	1	-2
452.398	1	-6
452.569	1	-2
452.739	1	-2
452.910	1	-6
453.080	1	3
453.251	1	8
453.421	1	-6
453.592	1	4
453.762	1	-7
453.933	1	-6
454.103	1	-4
454.274	1	-7
454.444	1	-12
454.615	1	4
454.785	1	-1
454.956	1	-2
455.126	1	-7
455.297	1	0
455.467	1	-4
455.638	1	1
455.808	1	-3
455.979	1	5
456.149	1	4
456.320	1	-4
456.490	1	-7
456.661	1	4
456.831	1	5
457.001	1	0
457.172	1	-6
457.342	1	1
457.513	1	0
457.683	1	0
457.854	1	2
458.024	1	-16
458.195	1	-3
458.365	1	-5
458.536	1	-1
458.706	1	-6
458.877	1	1
459.047	1	10
459.218	1	3
459.388	1	-2
459.559	1	-3
459.729	1	6
459.899	1	3
460.070	1	2
460.240	1	3
460.411	1	5
460.581	1	10
460.752	1	1
460.922	1	4
461.093	1	7
461.263	1	-9
461.434	1	-7
461.604	1	-4
461.775	1	-1
461.945	1	2
462.115	1	8
462.286	1	-5
462.456	1	-8
462.627	1	0
462.797	1	3
462.968	1	2
463.138	1	-5
463.309	1	-15
463.479	1	3
463.649	1	1
463.820	1	0
463.990	1	4
464.161	1	3
464.331	1	-3
464.502	1	-9
464.672	1	-8
464.843	1	-1
465.013	1	-9
465.183	1	-1
465.354	1	-1
465.524	1	1
465.695	1	-9
465.865	1	-4
466.036	1	-10
466.206	1	3
466.376	1	-9
466.547	1	-3
466.717	1	3
466.888	1	7
467.058	1	4
467.229	1	-7
467.399	1	2
467.569	1	9
467.740	1	0
467.910	1	6
468.081	1	0
468.251	1	1
468.422	1	-11
468.592	1	0
468.762	1	-8
468.933	1	2
469.103	1	-10
469.274	1	10
469.444	1	-8
469.614	1	9
469.785	1	-4
469.955	1	-5
470.126	1	-4
470.296	1	-8
470.467	1	-11
470.637	1	4
470.807	1	-1
470.978	1	3
471.148	1	3
471.319	1	-10
471.489	1	-5
471.659	1	-8
471.830	1	-3
472.000	1	1
472.171	1	-4
472.341	1	5
472.511	1	-3
472.682	1	4
472.852	1	-9
473.023	1	0
473.193	1	6
473.363	1	2
473.534	1	5
473.704	1	-2
473.875	1	7
474.045	1	-12
474.215	1	9
474.386	1	12
474.556	1	9
474.727	1	-10
474.897	1	-4
475.067	1	3
475.238	1	-2
475.408	1	-7
475.578	1	-6
475.749	1	-2
475.919	1	4
476.090	1	-4
476.260	1	-1
476.430	1	0
476.601	1	1
476.771	1	-3
476.942	1	4
477.112	1	-10
477.282	1	-8
477.453	1	-3
477.623	1	-12
477.793	1	3
477.964	1	-12
478.134	1	-11
478.305	1	-8
478.475	1	1
478.645	1	6
478.816	1	2
478.986	1	-2
479.156	1	-8
479.327	1	-8
479.497	1	-1
479.667	1	4
479.838	1	5
480.008	1	-5
480.179	1	-2
480.349	1	-5
480.519	1	0
480.690	1	3
480.860	1	-4
481.030	1	-10
481.201	1	-3
481.371	1	2
481.541	1	-8
481.712	1	-7
481.882	1	1
482.053	1	2
482.223	1	2
482.393	1	-3
482.564	1	5
482.734	1	-7
482.904	1	-9
483.075	1	3
483.245	1	-10
483.415	1	-2
483.586	1	1
483.756	1	2
483.926	1	-4
484.097	1	-3
484.267	1	-2
484.437	1	-9
484.608	1	10
484.778	1	5
484.948	1	-12
485.119	1	-12
485.289	1	-8
485.459	1	13
485.630	1	0
485.800	1	-4
485.970	1	1
486.141	1	-2
486.311	1	4
486.481	1	-2
486.652	1	-2
486.822	1	2
486.992	1	2
487.163	1	-6
487.333	1	-4
487.503	1	-3
487.674	1	8
487.844	1	3
488.014	1	4
488.185	1	9
488.355	1	5
488.525	1	-7
488.696	1	5
488.866	1	-10
489.036	1	11
489.207	1	-4
489.377	1	-8
489.547	1	-8
489.718	1	-1
489.888	1	-8
490.058	1	-4
490.228	1	4
490.399	1	-4
490.569	1	1
490.739	1	-4
490.910	1	0
491.080	1	17
491.250	1	-12
491.421	1	-5
491.591	1	-8
491.761	1	-1
491.932	1	-12
492.102	1	-6
492.272	1	4
492.442	1	5
492.613	1	-7
492.783	1	-2
492.953	1	-8
493.124	1	-1
493.294	1	-4
493.464	1	10
493.635	1	-5
493.805	1	-3
493.975	1	-3
494.145	1	1
494.316	1	7
494.486	1	3
494.656	1	-7
494.827	1	-2
494.997	1	4
495.167	1	-6
495.337	1	0
495.508	1	-4
495.678	1	1
495.848	1	8
496.019	1	-7
496.189	1	9
496.359	1	-6
496.529	1	-1
496.700	1	2
496.870	1	5
497.040	1	-9
497.211	1	4
497.381	1	0
497.551	1	3
497.721	1	-4
497.892	1	-8
498.062	1	1
498.232	1	-15
498.403	1	1
498.573	1	0
498.743	1	0
498.913	1	3
499.084	1	-5
499.254	1	-6
499.424	1	7
499.594	1	2
499.765	1	2
499.935	1	9
500.105	1	-6
500.275	1	-2
500.446	1	-4
500.616	1	-3
500.786	1	-5
500.956	1	-4
501.127	1	-9
501.297	1	-10
501.467	1	-6
501.638	1	-1
501.808	1	1
501.978	1	2
502.148	1	3
502.319	1	-2
502.489	1	-4
502.659	1	1
502.829	1	6
503.000	1	-2
503.170	1	3
503.340	1	3
503.510	1	5
503.681	1	-13
503.851	1	-3
504.021	1	1
504.191	1	9
504.362	1	-5
504.532	1	-4
504.702	1	-2
504.872	1	-8
505.042	1	-5
505.213	1	2
505.383	1	7
505.553	1	-12
505.723	1	-3
505.894	1	-5
506.064	1	-1
506.234	1	14
506.404	1	3
506.575	1	6
506.745	1	9
506.915	1	-3
507.085	1	-4
507.256	1	0
507.426	1	8
507.596	1	-5
507.766	1	10
507.936	1	-6
508.107	1	4
508.277	1	7
508.447	1	3
508.617	1	0
508.788	1	13
508.958	1	-11
509.128	1	-3
509.298	1	2
509.468	1	-5
509.639	1	1
509.809	1	10
509.979	1	2
510.149	1	-4
510.319	1	3
510.490	1	-3
510.660	1	-2
510.830	1	-1
511.000	1	-11
511.171	1	-4
511.341	1	4
511.511	1	1
511.681	1	3
511.851	1	-1
512.022	1	-7
512.192	1	-1
512.362	1	-6
512.532	1	2
512.702	1	-5
512.873	1	6
513.043	1	0
513.213	1	-9
513.383	1	-8
513.553	1	-5
513.724	1	3
513.894	1	-5
514.064	1	6
514.234	1	-10
514.404	1	-8
514.575	1	10
514.745	1	-3
514.915	1	-3
515.085	1	-4
515.255	1	-3
515.425	1	-13
515.596	1	1
515.766	1	-9
515.936	1	-6
516.106	1	-6
516.276	1	-4
516.447	1	11
516.617	1	6
516.787	1	0
516.957	1	2
517.127	1	-2
517.297	1	-7
517.468	1	1
517.638	1	0
517.808	1	-1
517.978	1	4
518.148	1	7
518.319	1	-1
518.489	1	-1
518.659	1	-8
518.829	1	2
518.999	1	-3
519.169	1	2
519.340	1	6
519.510	1	3
519.680	1	5
519.850	1	4
520.020	1	3
520.190	1	-9
520.361	1	9
520.531	1	-5
520.701	1	7
520.871	1	3
521.041	1	11
521.211	1	-9
521.382	1	-6
521.552	1	6
521.722	1	-1
521.892	1	5
522.062	1	-2
522.232	1	6
522.402	1	1
522.573	1	-2
522.743	1	-4
522.913	1	1
523.083	1	2
523.253	1	1
523.423	1	7
523.593	1	-6
523.764	1	-3
523.934	1	2
524.104	1	-3
524.274	1	1
524.444	1	2
524.614	1	-2
524.784	1	7
524.955	1	-10
525.125	1	7
525.295	1	-3
525.465	1	3
525.635	1	-6
525.805	1	-5
525.975	1	5
526.146	1	-3
526.316	1	15
526.486	1	-4
526.656	1	7
526.826	1	-9
526.996	1	7
527.166	1	-5
527.337	1	-9
527.507	1	3
527.677	1	4
527.847	1	5
528.017	1	-9
528.187	1	3
528.357	1	-4
528.527	1	6
528.698	1	-9
528.868	1	-2
529.038	1	-7
529.208	1	-9
529.378	1	6
529.548	1	-5
529.718	1	5
529.888	1	-2
530.058	1	-5
530.229	1	3
530.399	1	0
530.569	1	-13
530.739	1	3
530.909	1	-11
531.079	1	6
531.249	1	-10
531.419	1	10
531.589	1	9
531.760	1	4
531.930	1	-1
532.100	1	-10
532.270	1	-7
532.440	1	1
532.610	1	-4
532.780	1	-6
532.950	1	1
533.120	1	13
533.290	1	4
533.461	1	-1
533.631	1	6
533.801	1	9
533.971	1	-9
534.141	1	-18
534.311	1	7
534.481	1	-7
534.651	1	4
534.821	1	2
534.991	1	3
535.162	1	2
535.332	1	-1
535.502	1	-3
535.672	1	2
535.842	1	-1
536.012	1	6
536.182	1	6
536.352	1	2
536.522	1	1
536.692	1	5
536.862	1	1
537.032	1	9
537.203	1	-8
537.373	1	-4
537.543	1	-6
537.713	1	-2
537.883	1	-1
538.053	1	2
538.223	1	12
538.393	1	12
538.563	1	-8
538.733	1	3
538.903	1	-1
539.073	1	0
539.243	1	-2
539.413	1	1
539.584	1	-2
539.754	1	11
539.924	1	6
540.094	1	0
540.264	1	8
540.434	1	-4
540.604	1	2
540.774	1	3
540.944	1	4
541.114	1	-12
541.284	1	8
541.454	1	-1
541.624	1	-1
541.794	1	-1
541.964	1	5
542.134	1	8
542.305	1	3
542.475	1	6
542.645	1	-3
542.815	1	-3
542.985	1	4
543.155	1	-4
543.325	1	4
543.495	1	0
543.665	1	7
543.835	1	9
544.005	1	1
544.175	1	-2
544.345	1	0
544.515	1	-1
544.685	1	0
544.855	1	2
545.025	1	1
545.195	1	-7
545.365	1	2
545.535	1	4
545.705	1	-3
545.875	1	-7
546.045	1	0
546.216	1	7
546.386	1	1
546.556	1	-10
546.726	1	-4
546.896	1	-8
547.066	1	6
547.236	1	-1
547.406	1	0
547.576	1	3
547.746	1	-14
547.916	1	-4
548.086	1	-4
548.256	1	-4
548.426	1	-4
548.596	1	-5
548.766	1	-5
548.936	1	1
549.106	1	3
549.276	1	2
549.446	1	0
549.616	1	-12
549.786	1	-6
549.956	1	8
550.126	1	10
550.296	1	0
550.466	1	1
550.636	1	9
550.806	1	-3
550.976	1	6
551.146	1	-6
551.316	1	5
551.486	1	2
551.656	1	3
551.826	1	0
551.996	1	9
552.166	1	4
552.336	1	1
552.506	1	8
552.676	1	3
552.846	1	-2
553.016	1	-2
553.186	1	3
553.356	1	0
553.526	1	1
553.696	1	4
553.866	1	2
554.036	1	5
554.206	1	6
554.376	1	1
554.546	1	8
554.716	1	-3
554.886	1	5
555.056	1	3
555.226	1	-9
555.396	1	-11
555.566	1	6
555.736	1	2
555.906	1	10
556.076	1	-3
556.246	1	4
556.416	1	-4
556.586	1	-5
556.756	1	4
556.926	1	4
557.096	1	2
557.266	1	-8
557.436	1	-6
557.606	1	5
557.776	1	5
557.946	1	11
558.116	1	2
558.286	1	3
558.456	1	0
558.626	1	3
558.796	1	3
558.966	1	0
559.136	1	2
559.306	1	-3
559.476	1	-3
559.646	1	-7
559.816	1	-5
559.986	1	-1
560.155	1	5
560.325	1	-3
560.495	1	-6
560.665	1	9
560.835	1	6
561.005	1	-6
561.175	1	-3
561.345	1	-4
561.515	1	1
561.685	1	-7
561.855	1	-13
562.025	1	2
562.195	1	3
562.365	1	-1
562.535	1	3
562.705	1	-2
562.875	1	6
563.045	1	-12
563.215	1	6
563.385	1	-9
563.555	1	-9
563.725	1	-2
563.895	1	-4
564.064	1	-1
564.234	1	-6
564.404	1	4
564.574	1	6
564.744	1	6
564.914	1	-5
565.084	1	-10
565.254	1	6
565.424	1	0
565.594	1	5
565.764	1	-3
565.934	1	4
566.104	1	-3
566.274	1	2
566.444	1	1
566.614	1	3
566.783	1	-9
566.953	1	10
567.123	1	-9
567.293	1	10
567.463	1	5
567.633	1	-6
567.803	1	-10
567.973	1	-9
568.143	1	5
568.313	1	8
568.483	1	1
568.653	1	-4
568.823	1	2
568.993	1	-4
569.162	1	-1
569.332	1	3
569.502	1	-7
569.672	1	5
569.842	1	2
570.012	1	-1
570.182	1	0
570.352	1	1
570.522	1	-19
570.692	1	-1
570.862	1	-1
571.031	1	-5
571.201	1	5
571.371	1	-7
571.541	1	14
571.711	1	3
571.881	1	10
572.051	1	-8
572.221	1	-2
572.391	1	-17
572.561	1	0
572.731	1	1
572.900	1	-7
573.070	1	3
573.240	1	-7
573.410	1	4
573.580	1	-2
573.750	1	-6
573.920	1	6
574.090	1	3
574.260	1	-4
574.430	1	6
574.599	1	-7
574.769	1	-13
574.939	1	-5
575.109	1	1
575.279	1	8
575.449	1	-4
575.619	1	-4
575.789	1	-9
575.959	1	-8
576.128	1	-8
576.298	1	11
576.468	1	6
576.638	1	-1
576.808	1	-4
576.978	1	6
577.148	1	4
577.318	1	5
577.487	1	1
577.657	1	-11
577.827	1	-10
577.997	1	-4
578.167	1	-9
578.337	1	9
578.507	1	3
578.677	1	-5
578.846	1	-2
579.016	1	12
579.186	1	-3
579.356	1	-8
579.526	1	-5
579.696	1	-2
579.866	1	-2
580.036	1	-11
580.205	1	2
580.375	1	10
580.545	1	-5
580.715	1	0
580.885	1	3
581.055	1	-8
581.225	1	4
581.394	1	1
581.564	1	3
581.734	1	-10
581.904	1	8
582.074	1	-7
582.244	1	1
582.414	1	9
582.583	1	12
582.753	1	-8
582.923	1	-10
583.093	1	-11
583.263	1	10
583.433	1	-6
583.603	1	6
583.772	1	6
583.942	1	-3
584.112	1	-1
584.282	1	-4
584.452	1	6
584.622	1	-8
584.791	1	1
584.961	1	1
585.131	1	1
585.301	1	-10
585.471	1	6
585.641	1	-10
585.811	1	11
585.980	1	2
586.150	1	0
586.320	1	-9
586.490	1	2
586.660	1	0
586.830	1	-7
586.999	1	-2
587.169	1	4
587.339	1	4
587.509	1	-3
587.679	1	9
587.849	1	-2
588.018	1	7
588.188	1	9
588.358	1	-5
588.528	1	2
588.698	1	2
588.867	1	-1
589.037	1	1
589.207	1	9
589.377	1	-2
589.547	1	1
589.717	1	2
589.886	1	-3
590.056	1	-16
590.226	1	5
590.396	1	2
590.566	1	-7
590.735	1	-2
590.905	1	5
591.075	1	-3
591.245	1	0
591.415	1	-4
591.585	1	-4
591.754	1	-6
591.924	1	-1
592.094	1	-6
592.264	1	9
592.434	1	-2
592.603	1	4
592.773	1	3
592.943	1	9
593.113	1	0
593.283	1	-4
593.452	1	3
593.622	1	4
593.792	1	12
593.962	1	2
594.132	1	-6
594.301	1	0
594.471	1	11
594.641	1	-3
594.811	1	10
594.981	1	-9
595.150	1	-2
595.320	1	-4
595.490	1	10
595.660	1	2
595.829	1	5
595.999	1	-9
596.169	1	3
596.339	1	5
596.509	1	-7
596.678	1	-9
596.848	1	-2
597.018	1	-7
597.188	1	-10
597.358	1	2
597.527	1	-1
597.697	1	-3
597.867	1	-8
598.037	1	1
598.206	1	-1
598.376	1	4
598.546	1	-7
598.716	1	-1
598.885	1	-11
599.055	1	-9
599.225	1	-6
599.395	1	-10
599.565	1	-8
599.734	1	-8
599.904	1	-3
600.074	1	-3
600.244	1	-3
600.413	1	15
600.583	1	14
600.753	1	6
600.923	1	5
601.092	1	-2
601.262	1	-1
601.432	1	-3
601.602	1	3
601.771	1	2
601.941	1	-1
602.111	1	11
602.281	1	7
602.451	1	7
602.620	1	0
602.790	1	2
602.960	1	-1
603.130	1	2
603.299	1	-7
603.469	1	-8
603.639	1	-9
603.809	1	0
603.978	1	-10
604.148	1	-5
604.318	1	-5
604.487	1	-2
604.657	1	0
604.827	1	6
604.997	1	1
605.166	1	4
605.336	1	9
605.506	1	4
605.676	1	-15
605.845	1	2
606.015	1	-4
606.185	1	8
606.355	1	1
606.524	1	-4
606.694	1	-3
606.864	1	-2
607.034	1	-1
607.203	1	-6
607.373	1	3
607.543	1	-5
607.712	1	-5
607.882	1	3
608.052	1	-6
608.222	1	6
608.391	1	12
608.561	1	-3
608.731	1	-7
608.901	1	4
609.070	1	11
609.240	1	-8
609.410	1	10
609.579	1	4
609.749	1	-6
609.919	1	3
610.089	1	-6
610.258	1	2
610.428	1	-4
610.598	1	-5
610.767	1	-9
610.937	1	6
611.107	1	1
611.277	1	2
611.446	1	3
611.616	1	0
611.786	1	14
611.955	1	-2
612.125	1	-7
612.295	1	-14
612.465	1	10
612.634	1	0
612.804	1	4
612.974	1	-6
613.143	1	-3
613.313	1	1
613.483	1	2
613.652	1	-4
613.822	1	-2
613.992	1	-3
614.162	1	-3
614.331	1	-4
614.501	1	-1
614.671	1	1
614.840	1	0
615.010	1	-9
615.180	1	-3
615.349	1	5
615.519	1	-11
615.689	1	10
615.858	1	10
616.028	1	0
616.198	1	-2
616.368	1	0
616.537	1	-3
616.707	1	0
616.877	1	0
617.046	1	4
617.216	1	-2
617.386	1	3
617.555	1	2
617.725	1	-4
617.895	1	7
618.064	1	-6
618.234	1	-8
618.404	1	1
618.573	1	4
618.743	1	0
618.913	1	1
619.082	1	7
619.252	1	-3
619.422	1	-9
619.591	1	-2
619.761	1	3
619.931	1	2
620.100	1	6
620.270	1	-10
620.440	1	0
620.609	1	-2
620.779	1	-2
620.949	1	4
621.118	1	-3
621.288	1	8
621.458	1	5
621.627	1	3
621.797	1	-3
621.967	1	4
622.136	1	11
622.306	1	-9
622.476	1	-1
622.645	1	10
622.815	1	13
622.985	1	3
623.154	1	6
623.324	1	-3
623.494	1	3
623.663	1	-5
623.833	1	6
624.002	1	-16
624.172	1	-3
624.342	1	5
624.511	1	-1
624.681	1	0
624.851	1	-11
625.020	1	0
625.190	1	4
625.360	1	2
625.529	1	-7
625.699	1	-2
625.869	1	0
626.038	1	-3
626.208	1	3
626.377	1	2
626.547	1	-10
626.717	1	6
626.886	1	8
627.056	1	-7
627.226	1	1
627.395	1	7
627.565	1	4
627.735	1	-2
627.904	1	-9
628.074	1	0
628.243	1	12
628.413	1	-6
628.583	1	2
628.752	1	4
628.922	1	11
629.091	1	-7
629.261	1	5
629.431	1	-4
629.600	1	0
629.770	1	-4
629.940	1	1
630.109	1	-16
630.279	1	-7
630.448	1	-11
630.618	1	13
630.788	1	8
630.957	1	4
631.127	1	-3
631.297	1	4
631.466	1	-8
631.636	1	-4
631.805	1	-6
631.975	1	4
632.145	1	-4
632.314	1	3
632.484	1	-3
632.653	1	2
632.823	1	2
632.993	1	-14
633.162	1	-5
633.332	1	5
633.501	1	-6
633.671	1	-6
633.841	1	-15
634.010	1	-3
634.180	1	-8
634.349	1	6
634.519	1	-17
634.689	1	-6
634.858	1	2
635.028	1	-2
635.197	1	14
635.367	1	0
635.537	1	2
635.706	1	-3
635.876	1	-1
636.045	1	7
636.215	1	-4
636.384	1	-6
636.554	1	5
636.724	1	2
636.893	1	-11
637.063	1	-4
637.232	1	5
637.402	1	2
637.572	1	1
637.741	1	-2
637.911	1	-4
638.080	1	5
638.250	1	0
638.419	1	-1
638.589	1	-4
638.759	1	0
638.928	1	2
639.098	1	3
639.267	1	4
639.437	1	7
639.606	1	4
639.776	1	-6
639.946	1	1
640.115	1	-6
640.285	1	7
640.454	1	-6
640.624	1	2
640.793	1	7
640.963	1	-6
641.132	1	4
641.302	1	0
641.472	1	-7
641.641	1	-11
641.811	1	-8
641.980	1	-1
642.150	1	-13
642.319	1	3
642.489	1	2
642.659	1	4
642.828	1	-6
642.998	1	2
643.167	1	-5
643.337	1	0
643.506	1	-10
643.676	1	3
643.845	1	-5
644.015	1	-2
644.184	1	2
644.354	1	9
644.524	1	-6
644.693	1	0
644.863	1	-5
645.032	1	6
645.202	1	0
645.371	1	2
645.541	1	0
645.710	1	6
645.880	1	-3
646.049	1	-7
646.219	1	-3
646.388	1	0
646.558	1	3
646.728	1	-7
646.897	1	-3
647.067	1	-3
647.236	1	3
647.406	1	-8
647.575	1	4
647.745	1	3
647.914	1	-7
648.084	1	2
648.253	1	8
648.423	1	-2
648.592	1	-5
648.762	1	-1
648.931	1	9
649.101	1	3
649.270	1	-3
649.440	1	1
649.610	1	-5
649.779	1	-8
649.949	1	-6
650.118	1	10
650.288	1	-3
650.457	1	12
650.627	1	6
650.796	1	2
650.966	1	-4
651.135	1	-6
651.305	1	1
651.474	1	-3
651.644	1	14
651.813	1	2
651.983	1	-3
652.152	1	1
652.322	1	2
652.491	1	-2
652.661	1	-2
652.830	1	1
653.000	1	-6
653.169	1	0
653.339	1	-2
653.508	1	-3
653.678	1	3
653.847	1	2
654.017	1	-2
654.186	1	-2
654.356	1	-5
654.525	1	4
654.695	1	0
654.864	1	-1
655.034	1	-6
655.203	1	-11
655.373	1	-7
655.542	1	-4
655.712	1	10
655.881	1	-3
656.051	1	1
656.220	1	1
656.390	1	-2
656.559	1	-3
656.729	1	5
656.898	1	-1
657.068	1	-1
657.237	1	-4
657.406	1	-3
657.576	1	0
657.745	1	-5
657.915	1	-2
658.084	1	4
658.254	1	-14
658.423	1	6
658.593	1	9
658.762	1	2
658.932	1	-3
659.101	1	2
659.271	1	5
659.440	1	5
659.610	1	-4
659.779	1	-5
659.949	1	-8
660.118	1	4
660.288	1	0
660.457	1	1
660.626	1	3
660.796	1	-17
660.965	1	-3
661.135	1	-10
661.304	1	6
661.474	1	-3
661.643	1	2
661.813	1	5
661.982	1	8
662.152	1	8
662.321	1	1
662.491	1	-10
662.660	1	-2
662.829	1	-4
662.999	1	2
663.168	1	2
663.338	1	2
663.507	1	4
663.677	1	1
663.846	1	-5
664.016	1	-2
664.185	1	2
664.354	1	-2
664.524	1	2
664.693	1	4
664.863	1	-7
665.032	1	-4
665.202	1	-1
665.371	1	-2
665.541	1	-9
665.710	1	-1
665.879	1	-7
666.049	1	-2
666.218	1	-12
666.388	1	3
666.557	1	-4
666.727	1	-7
666.896	1	-7
667.065	1	11
667.235	1	5
667.404	1	1
667.574	1	-6
667.743	1	-3
667.913	1	4
668.082	1	-4
668.251	1	-7
668.421	1	-2
668.590	1	5
668.760	1	3
668.929	1	-18
669.099	1	-2
669.268	1	1
669.437	1	15
669.607	1	1
669.776	1	-17
669.946	1	3
670.115	1	3
670.285	1	7
670.454	1	1
670.623	1	4
670.793	1	-5
670.962	1	5
671.132	1	13
671.301	1	2
671.470	1	-5
671.640	1	4
671.809	1	-8
671.979	1	4
672.148	1	-1
672.317	1	4
672.487	1	6
672.656	1	1
672.826	1	-5
672.995	1	0
673.164	1	1
673.334	1	1
673.503	1	-4
673.673	1	-6
673.842	1	2
674.011	1	1
674.181	1	4
674.350	1	-6
674.520	1	-4
674.689	1	-2
674.858	1	0
675.028	1	-11
675.197	1	-4
675.367	1	0
675.536	1	5
675.705	1	6
675.875	1	-6
676.044	1	-4
676.214	1	-2
676.383	1	1
676.552	1	1
676.722	1	-6
676.891	1	5
677.060	1	-5
677.230	1	2
677.399	1	1
677.569	1	-1
677.738	1	-3
677.907	1	6
678.077	1	1
678.246	1	2
678.416	1	-7
678.585	1	-1
678.754	1	-4
678.924	1	-2
679.093	1	4
679.262	1	3
679.432	1	1
679.601	1	-10
679.771	1	-4
679.940	1	1
680.109	1	3
680.279	1	-5
680.448	1	3
680.617	1	-5
680.787	1	-6
680.956	1	-3
681.125	1	11
681.295	1	3
681.464	1	-3
681.634	1	13
681.803	1	-1
681.972	1	3
682.142	1	2
682.311	1	6
682.480	1	4
682.650	1	10
682.819	1	-4
682.988	1	0
683.158	1	-1
683.327	1	0
683.496	1	-3
683.666	1	-3
683.835	1	-3
684.004	1	1
684.174	1	-1
684.343	1	1
684.512	1	1
684.682	1	-3
684.851	1	0
685.021	1	2
685.190	1	-6
685.359	1	4
685.529	1	5
685.698	1	-1
685.867	1	3
686.037	1	-6
686.206	1	-6
686.375	1	8
686.545	1	7
686.714	1	-6
686.883	1	-5
687.053	1	-3
687.222	1	4
687.391	1	2
687.561	1	4
687.730	1	-10
687.899	1	0
688.069	1	0
688.238	1	1
688.407	1	-8
688.577	1	8
688.746	1	-1
