340.368	1	9
340.539	1	-16
340.710	1	-3
340.881	1	-1
341.052	1	6
341.223	1	-3
341.394	1	2
341.565	1	-12
341.737	1	13
341.908	1	7
342.079	1	-5
342.250	1	-2
342.421	1	-2
342.592	1	5
342.763	1	15
342.934	1	-6
343.105	1	6
343.276	1	4
343.447	1	-4
343.618	1	3
343.789	1	2
343.960	1	3
344.131	1	5
344.302	1	6
344.473	1	-9
344.644	1	11
344.815	1	-1
344.986	1	0
345.157	1	-3
345.328	1	-1
345.499	1	8
345.670	1	-10
345.841	1	10
346.012	1	10
346.183	1	2
346.354	1	8
346.526	1	-7
346.697	1	-1
346.868	1	8
347.039	1	8
347.210	1	-3
347.381	1	6
347.552	1	-8
347.723	1	6
347.894	1	8
348.065	1	7
348.236	1	8
348.407	1	6
348.578	1	11
348.749	1	1
348.920	1	3
349.091	1	-15
349.262	1	5
349.433	1	-1
349.604	1	7
349.775	1	8
349.946	1	2
350.117	1	9
350.288	1	13
350.459	1	4
350.630	1	13
350.801	1	-6
350.972	1	9
351.143	1	2
351.314	1	13
351.485	1	8
351.656	1	9
351.827	1	3
351.998	1	10
352.169	1	0
352.340	1	10
352.511	1	10
352.682	1	8
352.853	1	2
353.024	1	8
353.195	1	6
353.366	1	18
353.537	1	6
353.708	1	4
353.879	1	9
354.050	1	-8
354.221	1	-8
354.392	1	-2
354.563	1	10
354.734	1	9
354.905	1	14
355.076	1	12
355.247	1	16
355.418	1	4
355.589	1	-1
355.760	1	3
355.931	1	-1
356.102	1	27
356.273	1	-1
356.444	1	8
356.615	1	8
356.785	1	11
356.956	1	22
357.127	1	10
357.298	1	14
357.469	1	8
357.640	1	10
357.811	1	7
357.982	1	15
358.153	1	20
358.324	1	9
358.495	1	13
358.666	1	8
358.837	1	5
359.008	1	3
359.179	1	11
359.350	1	13
359.521	1	20
359.692	1	23
359.863	1	18
360.034	1	14
360.205	1	13
360.376	1	15
360.547	1	14
360.718	1	19
360.889	1	9
361.060	1	14
361.231	1	15
361.401	1	11
361.572	1	24
361.743	1	24
361.914	1	33
362.085	1	17
362.256	1	28
362.427	1	36
362.598	1	15
362.769	1	23
362.940	1	23
363.111	1	15
363.282	1	37
363.453	1	32
363.624	1	36
363.795	1	32
363.966	1	33
364.137	1	37
364.308	1	41
364.478	1	43
364.649	1	48
364.820	1	39
364.991	1	36
365.162	1	51
365.333	1	52
365.504	1	56
365.675	1	40
365.846	1	61
366.017	1	51
366.188	1	59
366.359	1	55
366.530	1	60
366.701	1	69
366.871	1	60
367.042	1	58
367.213	1	68
367.384	1	70
367.555	1	68
367.726	1	64
367.897	1	72
368.068	1	81
368.239	1	82
368.410	1	102
368.581	1	68
368.752	1	73
368.923	1	75
369.093	1	70
369.264	1	86
369.435	1	83
369.606	1	85
369.777	1	88
369.948	1	80
370.119	1	83
370.290	1	75
370.461	1	99
370.632	1	85
370.803	1	79
370.973	1	85
371.144	1	69
371.315	1	74
371.486	1	80
371.657	1	76
371.828	1	75
371.999	1	68
372.170	1	85
372.341	1	78
372.512	1	56
372.682	1	71
372.853	1	68
373.024	1	63
373.195	1	65
373.366	1	63
373.537	1	57
373.708	1	57
373.879	1	49
374.050	1	67
374.220	1	78
374.391	1	57
374.562	1	66
374.733	1	56
374.904	1	56
375.075	1	42
375.246	1	54
375.417	1	55
375.588	1	50
375.758	1	48
375.929	1	41
376.100	1	46
376.271	1	43
376.442	1	40
376.613	1	40
376.784	1	38
376.955	1	39
377.125	1	51
377.296	1	36
377.467	1	40
377.638	1	36
377.809	1	48
377.980	1	39
378.151	1	41
378.321	1	27
378.492	1	32
378.663	1	35
378.834	1	34
379.005	1	43
379.176	1	29
379.347	1	36
379.518	1	33
379.688	1	36
379.859	1	41
380.030	1	25
380.201	1	29
380.372	1	25
380.543	1	41
380.714	1	30
380.884	1	31
381.055	1	29
381.226	1	25
381.397	1	25
381.568	1	33
381.739	1	34
381.910	1	25
382.080	1	30
382.251	1	13
382.422	1	22
382.593	1	21
382.764	1	13
382.935	1	20
383.105	1	15
383.276	1	18
383.447	1	19
383.618	1	19
383.789	1	15
383.960	1	15
384.130	1	12
384.301	1	11
384.472	1	16
384.643	1	22
384.814	1	14
384.985	1	13
385.156	1	8
385.326	1	27
385.497	1	22
385.668	1	18
385.839	1	10
386.010	1	14
386.180	1	9
386.351	1	7
386.522	1	16
386.693	1	2
386.864	1	23
387.035	1	14
387.205	1	7
387.376	1	14
387.547	1	10
387.718	1	18
387.889	1	6
388.060	1	22
388.230	1	15
388.401	1	14
388.572	1	3
388.743	1	17
388.914	1	10
389.084	1	10
389.255	1	4
389.426	1	4
389.597	1	16
389.768	1	8
389.939	1	8
390.109	1	11
390.280	1	18
390.451	1	0
390.622	1	9
390.793	1	4
390.963	1	17
391.134	1	16
391.305	1	16
391.476	1	5
391.647	1	15
391.817	1	12
391.988	1	19
392.159	1	-6
392.330	1	12
392.501	1	8
392.671	1	9
392.842	1	5
393.013	1	11
393.184	1	16
393.355	1	16
393.525	1	8
393.696	1	8
393.867	1	-3
394.038	1	7
394.208	1	8
394.379	1	7
394.550	1	10
394.721	1	7
394.892	1	3
395.062	1	7
395.233	1	1
395.404	1	-4
395.575	1	6
395.746	1	9
395.916	1	6
396.087	1	2
396.258	1	10
396.429	1	9
396.599	1	4
396.770	1	6
396.941	1	15
397.112	1	22
397.283	1	7
397.453	1	13
397.624	1	7
397.795	1	4
397.966	1	5
398.136	1	1
398.307	1	6
398.478	1	5
398.649	1	4
398.819	1	10
398.990	1	5
399.161	1	20
399.332	1	14
399.503	1	8
399.673	1	11
399.844	1	7
400.015	1	4
400.186	1	-1
400.356	1	-6
400.527	1	6
400.698	1	0
400.869	1	3
401.039	1	8
401.210	1	11
401.381	1	3
401.552	1	-9
401.722	1	8
401.893	1	3
402.064	1	-3
402.235	1	0
402.405	1	13
402.576	1	1
402.747	1	7
402.918	1	10
403.088	1	11
403.259	1	17
403.430	1	-6
403.601	1	-7
403.771	1	10
403.942	1	15
404.113	1	-1
404.284	1	12
404.454	1	4
404.625	1	15
404.796	1	1
404.967	1	2
405.137	1	15
405.308	1	4
405.479	1	2
405.649	1	2
405.820	1	-4
405.991	1	1
406.162	1	6
406.332	1	0
406.503	1	3
406.674	1	1
406.845	1	11
407.015	1	7
407.186	1	5
407.357	1	-3
407.527	1	-2
407.698	1	12
407.869	1	0
408.040	1	4
408.210	1	2
408.381	1	9
408.552	1	3
408.722	1	-9
408.893	1	0
409.064	1	5
409.235	1	4
409.405	1	4
409.576	1	-5
409.747	1	7
409.917	1	7
410.088	1	5
410.259	1	6
410.430	1	13
410.600	1	-5
410.771	1	4
410.942	1	23
411.112	1	-2
411.283	1	6
411.454	1	-3
411.625	1	12
411.795	1	2
411.966	1	1
412.137	1	9
412.307	1	-1
412.478	1	16
412.649	1	0
412.819	1	17
412.990	1	3
413.161	1	3
413.332	1	8
413.502	1	0
413.673	1	9
413.844	1	-6
414.014	1	-4
414.185	1	9
414.356	1	5
414.526	1	-5
414.697	1	11
414.868	1	5
415.038	1	7
415.209	1	5
415.380	1	-3
415.550	1	0
415.721	1	3
415.892	1	6
416.063	1	1
416.233	1	10
416.404	1	-8
416.575	1	15
416.745	1	-2
416.916	1	1
417.087	1	0
417.257	1	3
417.428	1	1
417.599	1	3
417.769	1	7
417.940	1	12
418.111	1	2
418.281	1	5
418.452	1	1
418.623	1	-2
418.793	1	-3
418.964	1	-9
419.135	1	-5
419.305	1	9
419.476	1	8
419.647	1	-3
419.817	1	9
419.988	1	10
420.159	1	8
420.329	1	-10
420.500	1	5
420.671	1	6
420.841	1	17
421.012	1	3
421.183	1	1
421.353	1	1
421.524	1	-9
421.695	1	-3
421.865	1	7
422.036	1	5
422.206	1	3
422.377	1	-6
422.548	1	-9
422.718	1	4
422.889	1	-13
423.060	1	-2
423.230	1	3
423.401	1	7
423.572	1	8
423.742	1	10
423.913	1	-3
424.084	1	2
424.254	1	13
424.425	1	6
424.595	1	-3
424.766	1	-7
424.937	1	1
425.107	1	-2
425.278	1	14
425.449	1	0
425.619	1	3
425.790	1	-17
425.961	1	2
426.131	1	-5
426.302	1	1
426.472	1	-3
426.643	1	12
426.814	1	3
426.984	1	9
427.155	1	0
427.326	1	7
427.496	1	9
427.667	1	2
427.837	1	-2
428.008	1	9
428.179	1	-8
428.349	1	-6
428.520	1	3
428.691	1	4
428.861	1	-3
429.032	1	7
429.202	1	1
429.373	1	4
429.544	1	0
429.714	1	-4
429.885	1	0
430.055	1	2
430.226	1	-5
430.397	1	4
430.567	1	2
430.738	1	-2
430.909	1	8
431.079	1	-6
431.250	1	5
431.420	1	-3
431.591	1	5
431.762	1	6
431.932	1	0
432.103	1	0
432.273	1	5
432.444	1	3
432.615	1	-4
432.785	1	3
432.956	1	1
433.126	1	-2
433.297	1	3
433.468	1	-8
433.638	1	-2
433.809	1	6
433.979	1	4
434.150	1	11
434.320	1	1
434.491	1	-4
434.662	1	3
434.832	1	8
435.003	1	4
435.173	1	-5
435.344	1	4
435.515	1	8
435.685	1	4
435.856	1	-4
436.026	1	13
436.197	1	3
436.368	1	12
436.538	1	-9
436.709	1	1
436.879	1	-6
437.050	1	1
437.220	1	4
437.391	1	4
437.562	1	-2
437.732	1	0
437.903	1	2
438.073	1	4
438.244	1	4
438.414	1	0
438.585	1	-3
438.756	1	2
438.926	1	1
439.097	1	-3
439.267	1	10
439.438	1	-4
439.608	1	-10
439.779	1	5
439.949	1	12
440.120	1	8
440.291	1	2
440.461	1	8
440.632	1	1
440.802	1	-5
440.973	1	-6
441.143	1	5
441.314	1	-3
441.485	1	10
441.655	1	4
441.826	1	-1
441.996	1	7
442.167	1	1
442.337	1	8
442.508	1	-1
442.678	1	-7
442.849	1	15
443.019	1	8
443.190	1	-5
443.361	1	-1
443.531	1	6
443.702	1	5
443.872	1	12
444.043	1	2
444.213	1	1
444.384	1	-6
444.554	1	5
444.725	1	-6
444.895	1	0
445.066	1	-1
445.237	1	-3
445.407	1	11
445.578	1	-8
445.748	1	3
445.919	1	-13
446.089	1	9
446.260	1	6
446.430	1	6
446.601	1	-1
446.771	1	13
446.942	1	2
447.112	1	1
447.283	1	3
447.453	1	-7
447.624	1	5
447.794	1	-1
447.965	1	4
448.135	1	1
448.306	1	0
448.477	1	4
448.647	1	-6
448.818	1	2
448.988	1	0
449.159	1	-10
449.329	1	3
449.500	1	0
449.670	1	15
449.841	1	1
450.011	1	-4
450.182	1	3
450.352	1	0
450.523	1	-6
450.693	1	2
450.864	1	0
451.034	1	-5
451.205	1	15
451.375	1	6
451.546	1	5
451.716	1	4
451.887	1	-14
452.057	1	5
452.228	1	0
452.398	1	4
452.569	1	9
452.739	1	8
452.910	1	0
453.080	1	5
453.251	1	-3
453.421	1	1
453.592	1	-3
453.762	1	0
453.933	1	-5
454.103	1	-4
454.274	1	-5
454.444	1	-4
454.615	1	13
454.785	1	10
454.956	1	-1
455.126	1	-4
455.297	1	11
455.467	1	10
455.638	1	3
455.808	1	0
455.979	1	9
456.149	1	2
456.320	1	-8
456.490	1	-3
456.661	1	18
456.831	1	2
457.001	1	3
457.172	1	-2
457.342	1	-1
457.513	1	17
457.683	1	0
457.854	1	4
458.024	1	5
458.195	1	-1
458.365	1	-1
458.536	1	5
458.706	1	6
458.877	1	1
459.047	1	9
459.218	1	4
459.388	1	6
459.559	1	3
459.729	1	4
459.899	1	7
460.070	1	7
460.240	1	2
460.411	1	-2
460.581	1	21
460.752	1	-7
460.922	1	3
461.093	1	0
461.263	1	5
461.434	1	0
461.604	1	3
461.775	1	0
461.945	1	-1
462.115	1	1
462.286	1	3
462.456	1	0
462.627	1	8
462.797	1	-3
462.968	1	4
463.138	1	-4
463.309	1	-10
463.479	1	2
463.649	1	-3
463.820	1	6
463.990	1	5
464.161	1	-3
464.331	1	-4
464.502	1	2
464.672	1	0
464.843	1	1
465.013	1	-6
465.183	1	-9
465.354	1	6
465.524	1	-1
465.695	1	-7
465.865	1	7
466.036	1	3
466.206	1	10
466.376	1	-5
466.547	1	5
466.717	1	6
466.888	1	10
467.058	1	6
467.229	1	-2
467.399	1	9
467.569	1	7
467.740	1	1
467.910	1	1
468.081	1	3
468.251	1	7
468.422	1	-1
468.592	1	7
468.762	1	-2
468.933	1	-2
469.103	1	-2
469.274	1	8
469.444	1	-7
469.614	1	12
469.785	1	-9
469.955	1	-2
470.126	1	-6
470.296	1	3
470.467	1	0
470.637	1	4
470.807	1	-3
470.978	1	4
471.148	1	3
471.319	1	2
471.489	1	-2
471.659	1	3
471.830	1	-3
472.000	1	7
472.171	1	5
472.341	1	7
472.511	1	-4
472.682	1	0
472.852	1	8
473.023	1	4
473.193	1	7
473.363	1	8
473.534	1	11
473.704	1	-6
473.875	1	10
474.045	1	-4
474.215	1	10
474.386	1	21
474.556	1	3
474.727	1	4
474.897	1	1
475.067	1	5
475.238	1	-1
475.408	1	4
475.578	1	-11
475.749	1	-1
475.919	1	2
476.090	1	4
476.260	1	-5
476.430	1	7
476.601	1	10
476.771	1	-6
476.942	1	8
477.112	1	7
477.282	1	-6
477.453	1	-4
477.623	1	-10
477.793	1	1
477.964	1	-1
478.134	1	1
478.305	1	5
478.475	1	1
478.645	1	12
478.816	1	0
478.986	1	-2
479.156	1	3
479.327	1	-1
479.497	1	-4
479.667	1	-2
479.838	1	5
480.008	1	6
480.179	1	5
480.349	1	-2
480.519	1	3
480.690	1	-1
480.860	1	-8
481.030	1	-15
481.201	1	5
481.371	1	6
481.541	1	0
481.712	1	4
481.882	1	4
482.053	1	2
482.223	1	5
482.393	1	1
482.564	1	3
482.734	1	-7
482.904	1	-3
483.075	1	0
483.245	1	9
483.415	1	4
483.586	1	-1
483.756	1	14
483.926	1	1
484.097	1	4
484.267	1	1
484.437	1	7
484.608	1	5
484.778	1	11
484.948	1	-6
485.119	1	-4
485.289	1	-1
485.459	1	14
485.630	1	-6
485.800	1	-5
485.970	1	-2
486.141	1	0
486.311	1	5
486.481	1	-1
486.652	1	14
486.822	1	4
486.992	1	15
487.163	1	-1
487.333	1	4
487.503	1	8
487.674	1	15
487.844	1	3
488.014	1	8
488.185	1	4
488.355	1	-2
488.525	1	6
488.696	1	-4
488.866	1	-1
489.036	1	7
489.207	1	5
489.377	1	0
489.547	1	7
489.718	1	5
489.888	1	-2
490.058	1	0
490.228	1	13
490.399	1	-7
490.569	1	10
490.739	1	9
490.910	1	2
491.080	1	15
491.250	1	-5
491.421	1	0
491.591	1	-4
491.761	1	2
491.932	1	6
492.102	1	1
492.272	1	10
492.442	1	14
492.613	1	-2
492.783	1	9
492.953	1	-9
493.124	1	1
493.294	1	-2
493.464	1	15
493.635	1	7
493.805	1	3
493.975	1	-2
494.145	1	10
494.316	1	5
494.486	1	1
494.656	1	4
494.827	1	10
494.997	1	1
495.167	1	1
495.337	1	0
495.508	1	4
495.678	1	1
495.848	1	18
496.019	1	3
496.189	1	3
496.359	1	11
496.529	1	3
496.700	1	2
496.870	1	8
497.040	1	0
497.211	1	-1
497.381	1	-1
497.551	1	11
497.721	1	-3
497.892	1	7
498.062	1	8
498.232	1	-2
498.403	1	2
498.573	1	3
498.743	1	2
498.913	1	6
499.084	1	0
499.254	1	5
499.424	1	3
499.594	1	3
499.765	1	2
499.935	1	5
500.105	1	3
500.275	1	-4
500.446	1	-2
500.616	1	-4
500.786	1	-2
500.956	1	7
501.127	1	7
501.297	1	6
501.467	1	-7
501.638	1	-11
501.808	1	13
501.978	1	10
502.148	1	13
502.319	1	8
502.489	1	5
502.659	1	14
502.829	1	3
503.000	1	9
503.170	1	17
503.340	1	12
503.510	1	11
503.681	1	-1
503.851	1	6
504.021	1	10
504.191	1	5
504.362	1	0
504.532	1	14
504.702	1	3
504.872	1	2
505.042	1	8
505.213	1	1
505.383	1	5
505.553	1	0
505.723	1	2
505.894	1	1
506.064	1	8
506.234	1	15
506.404	1	6
506.575	1	0
506.745	1	15
506.915	1	12
507.085	1	6
507.256	1	4
507.426	1	4
507.596	1	8
507.766	1	5
507.936	1	3
508.107	1	4
508.277	1	1
508.447	1	11
508.617	1	3
508.788	1	24
508.958	1	0
509.128	1	2
509.298	1	3
509.468	1	10
509.639	1	1
509.809	1	13
509.979	1	4
510.149	1	8
510.319	1	9
510.490	1	5
510.660	1	2
510.830	1	2
511.000	1	-1
511.171	1	-1
511.341	1	-2
511.511	1	8
511.681	1	4
511.851	1	-2
512.022	1	4
512.192	1	5
512.362	1	-1
512.532	1	3
512.702	1	0
512.873	1	11
513.043	1	5
513.213	1	13
513.383	1	3
513.553	1	-7
513.724	1	10
513.894	1	-2
514.064	1	8
514.234	1	7
514.404	1	3
514.575	1	14
514.745	1	2
514.915	1	11
515.085	1	11
515.255	1	2
515.425	1	7
515.596	1	13
515.766	1	1
515.936	1	9
516.106	1	4
516.276	1	2
516.447	1	12
516.617	1	5
516.787	1	14
516.957	1	8
517.127	1	13
517.297	1	0
517.468	1	7
517.638	1	15
517.808	1	-6
517.978	1	16
518.148	1	3
518.319	1	9
518.489	1	4
518.659	1	1
518.829	1	13
518.999	1	8
519.169	1	6
519.340	1	11
519.510	1	0
519.680	1	13
519.850	1	9
520.020	1	7
520.190	1	1
520.361	1	10
520.531	1	9
520.701	1	8
520.871	1	8
521.041	1	16
521.211	1	-2
521.382	1	1
521.552	1	10
521.722	1	10
521.892	1	14
522.062	1	9
522.232	1	2
522.402	1	0
522.573	1	13
522.743	1	5
522.913	1	12
523.083	1	-1
523.253	1	8
523.423	1	12
523.593	1	8
523.764	1	0
523.934	1	7
524.104	1	9
524.274	1	19
524.444	1	3
524.614	1	3
524.784	1	3
524.955	1	9
525.125	1	5
525.295	1	13
525.465	1	12
525.635	1	2
525.805	1	1
525.975	1	8
526.146	1	1
526.316	1	21
526.486	1	13
526.656	1	2
526.826	1	7
526.996	1	8
527.166	1	-1
527.337	1	6
527.507	1	6
527.677	1	17
527.847	1	18
528.017	1	0
528.187	1	8
528.357	1	13
528.527	1	20
528.698	1	10
528.868	1	5
529.038	1	13
529.208	1	5
529.378	1	8
529.548	1	1
529.718	1	29
529.888	1	10
530.058	1	7
530.229	1	13
530.399	1	16
530.569	1	-10
530.739	1	-1
530.909	1	6
531.079	1	8
531.249	1	-3
531.419	1	5
531.589	1	7
531.760	1	12
531.930	1	2
532.100	1	3
532.270	1	7
532.440	1	8
532.610	1	-8
532.780	1	5
532.950	1	8
533.120	1	13
533.290	1	9
533.461	1	13
533.631	1	12
533.801	1	19
533.971	1	3
534.141	1	-2
534.311	1	10
534.481	1	-4
534.651	1	9
534.821	1	11
534.991	1	13
535.162	1	5
535.332	1	5
535.502	1	4
535.672	1	10
535.842	1	20
536.012	1	14
536.182	1	8
536.352	1	7
536.522	1	3
536.692	1	8
536.862	1	17
537.032	1	16
537.203	1	7
537.373	1	7
537.543	1	11
537.713	1	2
537.883	1	6
538.053	1	7
538.223	1	11
538.393	1	16
538.563	1	10
538.733	1	10
538.903	1	-3
539.073	1	0
539.243	1	2
539.413	1	5
539.584	1	6
539.754	1	10
539.924	1	7
540.094	1	8
540.264	1	5
540.434	1	14
540.604	1	13
540.774	1	16
540.944	1	3
541.114	1	2
541.284	1	9
541.454	1	10
541.624	1	16
541.794	1	-3
541.964	1	11
542.134	1	4
542.305	1	11
542.475	1	10
542.645	1	14
542.815	1	4
542.985	1	11
543.155	1	12
543.325	1	4
543.495	1	7
543.665	1	17
543.835	1	14
544.005	1	20
544.175	1	7
544.345	1	15
544.515	1	12
544.685	1	11
544.855	1	3
545.025	1	14
545.195	1	6
545.365	1	7
545.535	1	15
545.705	1	7
545.875	1	-6
546.045	1	-3
546.216	1	6
546.386	1	18
546.556	1	4
546.726	1	1
546.896	1	9
547.066	1	15
547.236	1	6
547.406	1	5
547.576	1	9
547.746	1	3
547.916	1	0
548.086	1	8
548.256	1	-7
548.426	1	9
548.596	1	14
548.766	1	11
548.936	1	7
549.106	1	3
549.276	1	6
549.446	1	6
549.616	1	5
549.786	1	10
549.956	1	19
550.126	1	21
550.296	1	14
550.466	1	12
550.636	1	15
550.806	1	2
550.976	1	8
551.146	1	8
551.316	1	14
551.486	1	8
551.656	1	18
551.826	1	20
551.996	1	13
552.166	1	11
552.336	1	6
552.506	1	15
552.676	1	23
552.846	1	9
553.016	1	15
553.186	1	7
553.356	1	16
553.526	1	-2
553.696	1	13
553.866	1	11
554.036	1	14
554.206	1	10
554.376	1	13
554.546	1	15
554.716	1	4
554.886	1	12
555.056	1	9
555.226	1	4
555.396	1	7
555.566	1	6
555.736	1	3
555.906	1	21
556.076	1	9
556.246	1	16
556.416	1	6
556.586	1	10
556.756	1	12
556.926	1	8
557.096	1	2
557.266	1	16
557.436	1	7
557.606	1	14
557.776	1	4
557.946	1	22
558.116	1	5
558.286	1	6
558.456	1	7
558.626	1	11
558.796	1	7
558.966	1	11
559.136	1	9
559.306	1	13
559.476	1	-2
559.646	1	4
559.816	1	9
559.986	1	4
560.155	1	15
560.325	1	4
560.495	1	16
560.665	1	3
560.835	1	11
561.005	1	1
561.175	1	9
561.345	1	8
561.515	1	-3
561.685	1	19
561.855	1	5
562.025	1	14
562.195	1	10
562.365	1	10
562.535	1	7
562.705	1	8
562.875	1	13
563.045	1	16
563.215	1	17
563.385	1	-1
563.555	1	5
563.725	1	10
563.895	1	14
564.064	1	10
564.234	1	7
564.404	1	13
564.574	1	14
564.744	1	13
564.914	1	2
565.084	1	4
565.254	1	18
565.424	1	13
565.594	1	15
565.764	1	3
565.934	1	13
566.104	1	5
566.274	1	8
566.444	1	8
566.614	1	5
566.783	1	1
566.953	1	19
567.123	1	9
567.293	1	16
567.463	1	12
567.633	1	17
567.803	1	6
567.973	1	8
568.143	1	10
568.313	1	15
568.483	1	10
568.653	1	12
568.823	1	15
568.993	1	20
569.162	1	18
569.332	1	14
569.502	1	16
569.672	1	12
569.842	1	14
570.012	1	10
570.182	1	7
570.352	1	4
570.522	1	3
570.692	1	15
570.862	1	2
571.031	1	8
571.201	1	10
571.371	1	6
571.541	1	11
571.711	1	7
571.881	1	23
572.051	1	-1
572.221	1	6
572.391	1	-3
572.561	1	3
572.731	1	19
572.900	1	-5
573.070	1	7
573.240	1	17
573.410	1	19
573.580	1	19
573.750	1	2
573.920	1	9
574.090	1	0
574.260	1	16
574.430	1	13
574.599	1	4
574.769	1	10
574.939	1	10
575.109	1	15
575.279	1	17
575.449	1	5
575.619	1	13
575.789	1	2
575.959	1	7
576.128	1	4
576.298	1	22
576.468	1	4
576.638	1	8
576.808	1	7
576.978	1	18
577.148	1	8
577.318	1	19
577.487	1	9
577.657	1	-3
577.827	1	0
577.997	1	3
578.167	1	2
578.337	1	17
578.507	1	13
578.677	1	12
578.846	1	9
579.016	1	24
579.186	1	3
579.356	1	0
579.526	1	0
579.696	1	20
579.866	1	10
580.036	1	0
580.205	1	7
580.375	1	10
580.545	1	10
580.715	1	7
580.885	1	10
581.055	1	7
581.225	1	10
581.394	1	8
581.564	1	14
581.734	1	-2
581.904	1	10
582.074	1	6
582.244	1	-1
582.414	1	13
582.583	1	21
582.753	1	4
582.923	1	9
583.093	1	4
583.263	1	11
583.433	1	8
583.603	1	13
583.772	1	17
583.942	1	5
584.112	1	5
584.282	1	-2
584.452	1	10
584.622	1	6
584.791	1	7
584.961	1	10
585.131	1	5
585.301	1	-2
585.471	1	14
585.641	1	4
585.811	1	19
585.980	1	13
586.150	1	6
586.320	1	-1
586.490	1	15
586.660	1	10
586.830	1	4
586.999	1	8
587.169	1	15
587.339	1	8
587.509	1	9
587.679	1	22
587.849	1	20
588.018	1	16
588.188	1	19
588.358	1	6
588.528	1	13
588.698	1	7
588.867	1	6
589.037	1	8
589.207	1	19
589.377	1	13
589.547	1	10
589.717	1	6
589.886	1	5
590.056	1	-2
590.226	1	2
590.396	1	8
590.566	1	4
590.735	1	3
590.905	1	5
591.075	1	15
591.245	1	9
591.415	1	6
591.585	1	1
591.754	1	7
591.924	1	10
592.094	1	7
592.264	1	6
592.434	1	15
592.603	1	10
592.773	1	3
592.943	1	8
593.113	1	7
593.283	1	15
593.452	1	3
593.622	1	5
593.792	1	14
593.962	1	13
594.132	1	12
594.301	1	12
594.471	1	15
594.641	1	9
594.811	1	16
594.981	1	1
595.150	1	3
595.320	1	9
595.490	1	23
595.660	1	4
595.829	1	9
595.999	1	2
596.169	1	11
596.339	1	11
596.509	1	5
596.678	1	-3
596.848	1	8
597.018	1	0
597.188	1	0
597.358	1	8
597.527	1	0
597.697	1	6
597.867	1	3
598.037	1	9
598.206	1	14
598.376	1	2
598.546	1	5
598.716	1	11
598.885	1	2
599.055	1	7
599.225	1	2
599.395	1	12
599.565	1	-1
599.734	1	2
599.904	1	10
600.074	1	7
600.244	1	4
600.413	1	17
600.583	1	16
600.753	1	12
600.923	1	1
601.092	1	15
601.262	1	4
601.432	1	11
601.602	1	17
601.771	1	12
601.941	1	4
602.111	1	17
602.281	1	17
602.451	1	11
602.620	1	5
602.790	1	10
602.960	1	2
603.130	1	5
603.299	1	-4
603.469	1	3
603.639	1	1
603.809	1	17
603.978	1	5
604.148	1	9
604.318	1	7
604.487	1	-6
604.657	1	17
604.827	1	15
604.997	1	5
605.166	1	8
605.336	1	15
605.506	1	12
605.676	1	4
605.845	1	7
606.015	1	8
606.185	1	7
606.355	1	13
606.524	1	4
606.694	1	0
606.864	1	6
607.034	1	15
607.203	1	3
607.373	1	17
607.543	1	0
607.712	1	4
607.882	1	13
608.052	1	6
608.222	1	13
608.391	1	6
608.561	1	8
608.731	1	6
608.901	1	2
609.070	1	9
609.240	1	2
609.410	1	21
609.579	1	14
609.749	1	14
609.919	1	13
610.089	1	4
610.258	1	16
610.428	1	6
610.598	1	2
610.767	1	6
610.937	1	8
611.107	1	5
611.277	1	15
611.446	1	5
611.616	1	6
611.786	1	16
611.955	1	2
612.125	1	8
612.295	1	-1
612.465	1	9
612.634	1	10
612.804	1	8
612.974	1	-8
613.143	1	8
613.313	1	17
613.483	1	4
613.652	1	6
613.822	1	9
613.992	1	6
614.162	1	18
614.331	1	14
614.501	1	9
614.671	1	12
614.840	1	11
615.010	1	-6
615.180	1	4
615.349	1	8
615.519	1	0
615.689	1	10
615.858	1	16
616.028	1	4
616.198	1	19
616.368	1	7
616.537	1	8
616.707	1	6
616.877	1	-1
617.046	1	3
617.216	1	-3
617.386	1	16
617.555	1	6
617.725	1	2
617.895	1	10
618.064	1	7
618.234	1	8
618.404	1	7
618.573	1	2
618.743	1	11
618.913	1	6
619.082	1	8
619.252	1	11
619.422	1	-7
619.591	1	4
619.761	1	4
619.931	1	16
620.100	1	9
620.270	1	1
620.440	1	4
620.609	1	8
620.779	1	-12
620.949	1	11
621.118	1	3
621.288	1	9
621.458	1	5
621.627	1	2
621.797	1	8
621.967	1	4
622.136	1	15
622.306	1	0
622.476	1	10
622.645	1	13
622.815	1	12
622.985	1	6
623.154	1	8
623.324	1	7
623.494	1	12
623.663	1	-6
623.833	1	2
624.002	1	-6
624.172	1	8
624.342	1	12
624.511	1	2
624.681	1	8
624.851	1	-9
625.020	1	-2
625.190	1	1
625.360	1	11
625.529	1	6
625.699	1	0
625.869	1	12
626.038	1	-3
626.208	1	4
626.377	1	11
626.547	1	4
626.717	1	8
626.886	1	9
627.056	1	3
627.226	1	7
627.395	1	6
627.565	1	10
627.735	1	6
627.904	1	-3
628.074	1	10
628.243	1	6
628.413	1	9
628.583	1	-1
628.752	1	4
628.922	1	10
629.091	1	1
629.261	1	10
629.431	1	0
629.600	1	8
629.770	1	-12
629.940	1	4
630.109	1	-4
630.279	1	-2
630.448	1	1
630.618	1	2
630.788	1	10
630.957	1	10
631.127	1	7
631.297	1	-3
631.466	1	6
631.636	1	-10
631.805	1	7
631.975	1	16
632.145	1	-2
632.314	1	7
632.484	1	1
632.653	1	3
632.823	1	7
632.993	1	-9
633.162	1	6
633.332	1	2
633.501	1	-5
633.671	1	2
633.841	1	0
634.010	1	0
634.180	1	8
634.349	1	18
634.519	1	1
634.689	1	1
634.858	1	3
635.028	1	8
635.197	1	18
635.367	1	9
635.537	1	-3
635.706	1	10
635.876	1	-2
636.045	1	8
636.215	1	8
636.384	1	10
636.554	1	12
636.724	1	7
636.893	1	1
637.063	1	4
637.232	1	4
637.402	1	8
637.572	1	9
637.741	1	7
637.911	1	1
638.080	1	3
638.250	1	6
638.419	1	5
638.589	1	9
638.759	1	-7
638.928	1	7
639.098	1	10
639.267	1	7
639.437	1	8
639.606	1	5
639.776	1	2
639.946	1	8
640.115	1	6
640.285	1	9
640.454	1	2
640.624	1	11
640.793	1	21
640.963	1	8
641.132	1	4
641.302	1	2
641.472	1	0
641.641	1	-5
641.811	1	6
641.980	1	17
642.150	1	-4
642.319	1	0
642.489	1	11
642.659	1	6
642.828	1	-1
642.998	1	6
643.167	1	1
643.337	1	-2
643.506	1	-2
643.676	1	7
643.845	1	0
644.015	1	5
644.184	1	6
644.354	1	3
644.524	1	1
644.693	1	6
644.863	1	-5
645.032	1	2
645.202	1	-1
645.371	1	4
645.541	1	2
645.710	1	6
645.880	1	3
646.049	1	-6
646.219	1	-4
646.388	1	4
646.558	1	4
646.728	1	12
646.897	1	7
647.067	1	0
647.236	1	0
647.406	1	-5
647.575	1	5
647.745	1	5
647.914	1	-2
648.084	1	7
648.253	1	18
648.423	1	-1
648.592	1	2
648.762	1	-1
648.931	1	17
649.101	1	5
649.270	1	5
649.440	1	5
649.610	1	8
649.779	1	8
649.949	1	3
650.118	1	13
650.288	1	2
650.457	1	14
650.627	1	2
650.796	1	5
650.966	1	13
651.135	1	2
651.305	1	8
651.474	1	-2
651.644	1	11
651.813	1	2
651.983	1	6
652.152	1	7
652.322	1	5
652.491	1	3
652.661	1	-5
652.830	1	8
653.000	1	4
653.169	1	10
653.339	1	12
653.508	1	2
653.678	1	9
653.847	1	3
654.017	1	10
654.186	1	2
654.356	1	-3
654.525	1	4
654.695	1	11
654.864	1	3
655.034	1	0
655.203	1	1
655.373	1	10
655.542	1	7
655.712	1	10
655.881	1	1
656.051	1	-1
656.220	1	2
656.390	1	-3
656.559	1	8
656.729	1	13
656.898	1	-6
657.068	1	9
657.237	1	-5
657.406	1	8
657.576	1	0
657.745	1	-1
657.915	1	-5
658.084	1	6
658.254	1	-4
658.423	1	12
658.593	1	3
658.762	1	1
658.932	1	1
659.101	1	14
659.271	1	9
659.440	1	3
659.610	1	6
659.779	1	4
659.949	1	9
660.118	1	9
660.288	1	11
660.457	1	-3
660.626	1	1
660.796	1	-9
660.965	1	7
661.135	1	0
661.304	1	10
661.474	1	4
661.643	1	13
661.813	1	12
661.982	1	8
662.152	1	6
662.321	1	6
662.491	1	-7
662.660	1	2
662.829	1	-7
662.999	1	7
663.168	1	1
663.338	1	10
663.507	1	7
663.677	1	6
663.846	1	-3
664.016	1	7
664.185	1	2
664.354	1	5
664.524	1	6
664.693	1	12
664.863	1	5
665.032	1	2
665.202	1	4
665.371	1	8
665.541	1	-7
665.710	1	5
665.879	1	-6
666.049	1	-2
666.218	1	-8
666.388	1	8
666.557	1	2
666.727	1	7
666.896	1	4
667.065	1	10
667.235	1	6
667.404	1	7
667.574	1	-1
667.743	1	-7
667.913	1	1
668.082	1	4
668.251	1	-9
668.421	1	4
668.590	1	0
668.760	1	1
668.929	1	-16
669.099	1	3
669.268	1	4
669.437	1	9
669.607	1	3
669.776	1	8
669.946	1	8
670.115	1	5
670.285	1	8
670.454	1	10
670.623	1	-4
670.793	1	4
670.962	1	3
671.132	1	20
671.301	1	-5
671.470	1	-8
671.640	1	7
671.809	1	-7
671.979	1	-1
672.148	1	7
672.317	1	8
672.487	1	3
672.656	1	4
672.826	1	5
672.995	1	3
673.164	1	5
673.334	1	-3
673.503	1	8
673.673	1	4
673.842	1	5
674.011	1	1
674.181	1	10
674.350	1	6
674.520	1	-2
674.689	1	-3
674.858	1	13
675.028	1	2
675.197	1	-2
675.367	1	6
675.536	1	0
675.705	1	5
675.875	1	-3
676.044	1	6
676.214	1	7
676.383	1	11
676.552	1	3
676.722	1	4
676.891	1	17
677.060	1	0
677.230	1	1
677.399	1	-8
677.569	1	-7
677.738	1	9
677.907	1	8
678.077	1	8
678.246	1	4
678.416	1	6
678.585	1	1
678.754	1	-1
678.924	1	-9
679.093	1	16
679.262	1	-1
679.432	1	6
679.601	1	-2
679.771	1	-2
679.940	1	-3
680.109	1	19
680.279	1	3
680.448	1	8
680.617	1	3
680.787	1	0
680.956	1	12
681.125	1	6
681.295	1	-1
681.464	1	9
681.634	1	1
681.803	1	4
681.972	1	-1
682.142	1	6
682.311	1	7
682.480	1	11
682.650	1	10
682.819	1	2
682.988	1	-1
683.158	1	7
683.327	1	-3
683.496	1	4
683.666	1	3
683.835	1	-1
684.004	1	7
684.174	1	1
684.343	1	0
684.512	1	3
684.682	1	-8
684.851	1	13
685.021	1	-4
685.190	1	-6
685.359	1	12
685.529	1	6
685.698	1	11
685.867	1	2
686.037	1	9
686.206	1	-3
686.375	1	16
686.545	1	2
686.714	1	-2
686.883	1	-6
687.053	1	11
687.222	1	9
687.391	1	2
687.561	1	4
687.730	1	8
687.899	1	9
688.069	1	11
688.238	1	-1
688.407	1	2
688.577	1	-1
688.746	1	4
