340.368	1	3
340.539	1	-7
340.710	1	-1
340.881	1	-16
341.052	1	6
341.223	1	7
341.394	1	3
341.565	1	-12
341.737	1	15
341.908	1	2
342.079	1	-2
342.250	1	1
342.421	1	-2
342.592	1	8
342.763	1	2
342.934	1	-2
343.105	1	0
343.276	1	1
343.447	1	-4
343.618	1	2
343.789	1	5
343.960	1	2
344.131	1	5
344.302	1	8
344.473	1	-2
344.644	1	10
344.815	1	0
344.986	1	-2
345.157	1	-3
345.328	1	9
345.499	1	0
345.670	1	-5
345.841	1	15
346.012	1	10
346.183	1	-5
346.354	1	-6
346.526	1	9
346.697	1	3
346.868	1	2
347.039	1	3
347.210	1	-6
347.381	1	7
347.552	1	0
347.723	1	-2
347.894	1	-1
348.065	1	10
348.236	1	11
348.407	1	10
348.578	1	4
348.749	1	-11
348.920	1	4
349.091	1	-10
349.262	1	2
349.433	1	8
349.604	1	4
349.775	1	14
349.946	1	1
350.117	1	9
350.288	1	9
350.459	1	-7
350.630	1	4
350.801	1	1
350.972	1	11
351.143	1	5
351.314	1	12
351.485	1	7
351.656	1	15
351.827	1	2
351.998	1	6
352.169	1	1
352.340	1	8
352.511	1	9
352.682	1	10
352.853	1	8
353.024	1	11
353.195	1	21
353.366	1	18
353.537	1	4
353.708	1	14
353.879	1	11
354.050	1	1
354.221	1	-5
354.392	1	7
354.563	1	6
354.734	1	10
354.905	1	19
355.076	1	10
355.247	1	14
355.418	1	-5
355.589	1	0
355.760	1	0
355.931	1	10
356.102	1	17
356.273	1	4
356.444	1	11
356.615	1	13
356.785	1	20
356.956	1	19
357.127	1	14
357.298	1	12
357.469	1	12
357.640	1	19
357.811	1	17
357.982	1	16
358.153	1	18
358.324	1	8
358.495	1	17
358.666	1	12
358.837	1	9
359.008	1	5
359.179	1	20
359.350	1	5
359.521	1	22
359.692	1	31
359.863	1	24
360.034	1	13
360.205	1	23
360.376	1	27
360.547	1	26
360.718	1	32
360.889	1	21
361.060	1	25
361.231	1	23
361.401	1	34
361.572	1	31
361.743	1	25
361.914	1	30
362.085	1	28
362.256	1	34
362.427	1	45
362.598	1	25
362.769	1	34
362.940	1	38
363.111	1	44
363.282	1	34
363.453	1	40
363.624	1	53
363.795	1	48
363.966	1	47
364.137	1	64
364.308	1	54
364.478	1	51
364.649	1	61
364.820	1	60
364.991	1	62
365.162	1	81
365.333	1	72
365.504	1	64
365.675	1	59
365.846	1	79
366.017	1	77
366.188	1	73
366.359	1	66
366.530	1	87
366.701	1	93
366.871	1	74
367.042	1	86
367.213	1	89
367.384	1	88
367.555	1	95
367.726	1	104
367.897	1	107
368.068	1	112
368.239	1	111
368.410	1	127
368.581	1	103
368.752	1	108
368.923	1	116
369.093	1	100
369.264	1	112
369.435	1	123
369.606	1	110
369.777	1	116
369.948	1	128
370.119	1	107
370.290	1	124
370.461	1	128
370.632	1	117
370.803	1	111
370.973	1	107
371.144	1	106
371.315	1	102
371.486	1	115
371.657	1	115
371.828	1	96
371.999	1	100
372.170	1	110
372.341	1	92
372.512	1	84
372.682	1	92
372.853	1	88
373.024	1	88
373.195	1	85
373.366	1	88
373.537	1	86
373.708	1	82
373.879	1	78
374.050	1	66
374.220	1	86
374.391	1	71
374.562	1	71
374.733	1	77
374.904	1	65
375.075	1	68
375.246	1	62
375.417	1	60
375.588	1	74
375.758	1	66
375.929	1	67
376.100	1	66
376.271	1	70
376.442	1	58
376.613	1	49
376.784	1	57
376.955	1	50
377.125	1	63
377.296	1	47
377.467	1	57
377.638	1	50
377.809	1	51
377.980	1	55
378.151	1	52
378.321	1	36
378.492	1	49
378.663	1	46
378.834	1	37
379.005	1	58
379.176	1	44
379.347	1	49
379.518	1	42
379.688	1	42
379.859	1	43
380.030	1	29
380.201	1	45
380.372	1	36
380.543	1	50
380.714	1	39
380.884	1	31
381.055	1	39
381.226	1	23
381.397	1	33
381.568	1	41
381.739	1	40
381.910	1	37
382.080	1	38
382.251	1	19
382.422	1	36
382.593	1	26
382.764	1	27
382.935	1	24
383.105	1	29
383.276	1	37
383.447	1	31
383.618	1	26
383.789	1	17
383.960	1	26
384.130	1	24
384.301	1	24
384.472	1	19
384.643	1	30
384.814	1	28
384.985	1	17
385.156	1	23
385.326	1	34
385.497	1	17
385.668	1	29
385.839	1	20
386.010	1	13
386.180	1	25
386.351	1	12
386.522	1	27
386.693	1	10
386.864	1	22
387.035	1	21
387.205	1	16
387.376	1	17
387.547	1	10
387.718	1	19
387.889	1	15
388.060	1	18
388.230	1	22
388.401	1	9
388.572	1	15
388.743	1	19
388.914	1	13
389.084	1	15
389.255	1	-1
389.426	1	8
389.597	1	17
389.768	1	10
389.939	1	12
390.109	1	10
390.280	1	10
390.451	1	4
390.622	1	4
390.793	1	8
390.963	1	22
391.134	1	26
391.305	1	18
391.476	1	-2
391.647	1	12
391.817	1	7
391.988	1	13
392.159	1	6
392.330	1	16
392.501	1	11
392.671	1	5
392.842	1	4
393.013	1	16
393.184	1	13
393.355	1	12
393.525	1	6
393.696	1	8
393.867	1	4
394.038	1	11
394.208	1	3
394.379	1	7
394.550	1	26
394.721	1	6
394.892	1	5
395.062	1	8
395.233	1	12
395.404	1	6
395.575	1	12
395.746	1	20
395.916	1	1
396.087	1	7
396.258	1	10
396.429	1	3
396.599	1	7
396.770	1	10
396.941	1	6
397.112	1	17
397.283	1	13
397.453	1	14
397.624	1	9
397.795	1	2
397.966	1	8
398.136	1	4
398.307	1	6
398.478	1	12
398.649	1	2
398.819	1	3
398.990	1	8
399.161	1	15
399.332	1	14
399.503	1	6
399.673	1	1
399.844	1	12
400.015	1	1
400.186	1	12
400.356	1	-6
400.527	1	3
400.698	1	3
400.869	1	7
401.039	1	2
401.210	1	8
401.381	1	0
401.552	1	-2
401.722	1	11
401.893	1	9
402.064	1	9
402.235	1	3
402.405	1	7
402.576	1	5
402.747	1	3
402.918	1	5
403.088	1	11
403.259	1	13
403.430	1	-2
403.601	1	0
403.771	1	6
403.942	1	15
404.113	1	-1
404.284	1	10
404.454	1	-3
404.625	1	8
404.796	1	6
404.967	1	5
405.137	1	19
405.308	1	16
405.479	1	7
405.649	1	4
405.820	1	-8
405.991	1	12
406.162	1	11
406.332	1	9
406.503	1	15
406.674	1	-3
406.845	1	10
407.015	1	13
407.186	1	8
407.357	1	-3
407.527	1	-7
407.698	1	6
407.869	1	9
408.040	1	-3
408.210	1	6
408.381	1	6
408.552	1	0
408.722	1	-12
408.893	1	3
409.064	1	6
409.235	1	7
409.405	1	8
409.576	1	5
409.747	1	9
409.917	1	10
410.088	1	1
410.259	1	5
410.430	1	4
410.600	1	6
410.771	1	5
410.942	1	11
411.112	1	4
411.283	1	9
411.454	1	3
411.625	1	3
411.795	1	1
411.966	1	15
412.137	1	13
412.307	1	5
412.478	1	10
412.649	1	2
412.819	1	6
412.990	1	9
413.161	1	4
413.332	1	9
413.502	1	15
413.673	1	3
413.844	1	5
414.014	1	6
414.185	1	1
414.356	1	4
414.526	1	2
414.697	1	4
414.868	1	-2
415.038	1	2
415.209	1	-4
415.380	1	0
415.550	1	-4
415.721	1	7
415.892	1	-4
416.063	1	7
416.233	1	8
416.404	1	2
416.575	1	14
416.745	1	0
416.916	1	0
417.087	1	9
417.257	1	-11
417.428	1	6
417.599	1	5
417.769	1	3
417.940	1	7
418.111	1	0
418.281	1	12
418.452	1	-1
418.623	1	-1
418.793	1	10
418.964	1	-8
419.135	1	-9
419.305	1	6
419.476	1	4
419.647	1	1
419.817	1	15
419.988	1	5
420.159	1	7
420.329	1	4
420.500	1	-9
420.671	1	15
420.841	1	13
421.012	1	7
421.183	1	3
421.353	1	3
421.524	1	-7
421.695	1	4
421.865	1	8
422.036	1	9
422.206	1	1
422.377	1	1
422.548	1	-1
422.718	1	3
422.889	1	-7
423.060	1	-2
423.230	1	8
423.401	1	6
423.572	1	-2
423.742	1	3
423.913	1	3
424.084	1	0
424.254	1	1
424.425	1	4
424.595	1	5
424.766	1	9
424.937	1	2
425.107	1	5
425.278	1	18
425.449	1	-4
425.619	1	-2
425.790	1	-9
425.961	1	-4
426.131	1	-7
426.302	1	7
426.472	1	-3
426.643	1	13
426.814	1	6
426.984	1	1
427.155	1	3
427.326	1	8
427.496	1	1
427.667	1	10
427.837	1	-11
428.008	1	15
428.179	1	-6
428.349	1	-3
428.520	1	6
428.691	1	8
428.861	1	-7
429.032	1	1
429.202	1	9
429.373	1	7
429.544	1	7
429.714	1	1
429.885	1	5
430.055	1	5
430.226	1	-5
430.397	1	-3
430.567	1	16
430.738	1	0
430.909	1	4
431.079	1	-3
431.250	1	4
431.420	1	11
431.591	1	2
431.762	1	4
431.932	1	-9
432.103	1	9
432.273	1	4
432.444	1	11
432.615	1	-3
432.785	1	13
432.956	1	-2
433.126	1	-5
433.297	1	7
433.468	1	-12
433.638	1	-4
433.809	1	9
433.979	1	17
434.150	1	-1
434.320	1	-1
434.491	1	2
434.662	1	-2
434.832	1	7
435.003	1	4
435.173	1	-7
435.344	1	2
435.515	1	10
435.685	1	1
435.856	1	11
436.026	1	7
436.197	1	-6
436.368	1	9
436.538	1	-7
436.709	1	-4
436.879	1	0
437.050	1	-2
437.220	1	7
437.391	1	13
437.562	1	2
437.732	1	0
437.903	1	-4
438.073	1	0
438.244	1	-2
438.414	1	0
438.585	1	4
438.756	1	-6
438.926	1	5
439.097	1	-4
439.267	1	5
439.438	1	-5
439.608	1	-12
439.779	1	1
439.949	1	11
440.120	1	0
440.291	1	10
440.461	1	-1
440.632	1	3
440.802	1	4
440.973	1	-4
441.143	1	5
441.314	1	-2
441.485	1	5
441.655	1	10
441.826	1	5
441.996	1	3
442.167	1	3
442.337	1	-7
442.508	1	-3
442.678	1	-1
442.849	1	14
443.019	1	9
443.190	1	4
443.361	1	7
443.531	1	16
443.702	1	1
443.872	1	13
444.043	1	11
444.213	1	-4
444.384	1	0
444.554	1	18
444.725	1	-3
444.895	1	4
445.066	1	5
445.237	1	0
445.407	1	11
445.578	1	-6
445.748	1	7
445.919	1	-6
446.089	1	0
446.260	1	-7
446.430	1	1
446.601	1	-3
446.771	1	18
446.942	1	-4
447.112	1	11
447.283	1	-3
447.453	1	-8
447.624	1	1
447.794	1	-5
447.965	1	-2
448.135	1	13
448.306	1	0
448.477	1	4
448.647	1	-6
448.818	1	3
448.988	1	2
449.159	1	2
449.329	1	-1
449.500	1	4
449.670	1	12
449.841	1	3
450.011	1	11
450.182	1	-2
450.352	1	5
450.523	1	3
450.693	1	-6
450.864	1	-1
451.034	1	-17
451.205	1	15
451.375	1	1
451.546	1	-1
451.716	1	3
451.887	1	-12
452.057	1	5
452.228	1	-3
452.398	1	10
452.569	1	-1
452.739	1	2
452.910	1	1
453.080	1	5
453.251	1	12
453.421	1	2
453.592	1	4
453.762	1	4
453.933	1	3
454.103	1	-1
454.274	1	0
454.444	1	-2
454.615	1	13
454.785	1	-3
454.956	1	-3
455.126	1	-4
455.297	1	10
455.467	1	-5
455.638	1	2
455.808	1	-1
455.979	1	6
456.149	1	5
456.320	1	0
456.490	1	4
456.661	1	4
456.831	1	7
457.001	1	1
457.172	1	-4
457.342	1	-4
457.513	1	14
457.683	1	3
457.854	1	1
458.024	1	6
458.195	1	-4
458.365	1	2
458.536	1	3
458.706	1	9
458.877	1	6
459.047	1	15
459.218	1	5
459.388	1	2
459.559	1	5
459.729	1	3
459.899	1	6
460.070	1	4
460.240	1	6
460.411	1	-5
460.581	1	10
460.752	1	1
460.922	1	6
461.093	1	2
461.263	1	-1
461.434	1	-2
461.604	1	-8
461.775	1	-2
461.945	1	7
462.115	1	9
462.286	1	5
462.456	1	4
462.627	1	9
462.797	1	4
462.968	1	1
463.138	1	-8
463.309	1	-12
463.479	1	-5
463.649	1	0
463.820	1	-5
463.990	1	4
464.161	1	3
464.331	1	4
464.502	1	4
464.672	1	-5
464.843	1	-5
465.013	1	0
465.183	1	-2
465.354	1	10
465.524	1	6
465.695	1	0
465.865	1	5
466.036	1	3
466.206	1	14
466.376	1	-6
466.547	1	2
466.717	1	-4
466.888	1	12
467.058	1	6
467.229	1	6
467.399	1	-1
467.569	1	15
467.740	1	2
467.910	1	2
468.081	1	-1
468.251	1	-3
468.422	1	1
468.592	1	7
468.762	1	-4
468.933	1	11
469.103	1	2
469.274	1	9
469.444	1	1
469.614	1	-2
469.785	1	-8
469.955	1	-3
470.126	1	-9
470.296	1	-1
470.467	1	2
470.637	1	-2
470.807	1	-4
470.978	1	-2
471.148	1	7
471.319	1	9
471.489	1	-3
471.659	1	-7
471.830	1	0
472.000	1	-5
472.171	1	6
472.341	1	4
472.511	1	-1
472.682	1	4
472.852	1	-1
473.023	1	2
473.193	1	8
473.363	1	-4
473.534	1	10
473.704	1	-2
473.875	1	16
474.045	1	0
474.215	1	17
474.386	1	7
474.556	1	0
474.727	1	-2
474.897	1	7
475.067	1	7
475.238	1	0
475.408	1	6
475.578	1	-4
475.749	1	-3
475.919	1	-3
476.090	1	1
476.260	1	-1
476.430	1	6
476.601	1	-1
476.771	1	10
476.942	1	17
477.112	1	5
477.282	1	2
477.453	1	4
477.623	1	-10
477.793	1	0
477.964	1	6
478.134	1	-4
478.305	1	4
478.475	1	3
478.645	1	8
478.816	1	-10
478.986	1	-3
479.156	1	-2
479.327	1	-4
479.497	1	8
479.667	1	3
479.838	1	-2
480.008	1	5
480.179	1	3
480.349	1	6
480.519	1	2
480.690	1	-4
480.860	1	-4
481.030	1	0
481.201	1	8
481.371	1	5
481.541	1	-4
481.712	1	9
481.882	1	6
482.053	1	4
482.223	1	-2
482.393	1	11
482.564	1	1
482.734	1	-2
482.904	1	2
483.075	1	0
483.245	1	9
483.415	1	1
483.586	1	1
483.756	1	9
483.926	1	6
484.097	1	5
484.267	1	-6
484.437	1	-3
484.608	1	6
484.778	1	4
484.948	1	-9
485.119	1	-4
485.289	1	0
485.459	1	17
485.630	1	-6
485.800	1	1
485.970	1	-2
486.141	1	-3
486.311	1	1
486.481	1	-4
486.652	1	11
486.822	1	10
486.992	1	8
487.163	1	11
487.333	1	4
487.503	1	0
487.674	1	4
487.844	1	0
488.014	1	-2
488.185	1	-1
488.355	1	4
488.525	1	1
488.696	1	-3
488.866	1	8
489.036	1	17
489.207	1	11
489.377	1	1
489.547	1	0
489.718	1	9
489.888	1	-2
490.058	1	-2
490.228	1	11
490.399	1	-5
490.569	1	24
490.739	1	3
490.910	1	5
491.080	1	11
491.250	1	2
491.421	1	4
491.591	1	-4
491.761	1	-7
491.932	1	9
492.102	1	6
492.272	1	3
492.442	1	8
492.613	1	-6
492.783	1	8
492.953	1	2
493.124	1	9
493.294	1	0
493.464	1	7
493.635	1	-1
493.805	1	3
493.975	1	4
494.145	1	-3
494.316	1	15
494.486	1	12
494.656	1	2
494.827	1	12
494.997	1	5
495.167	1	6
495.337	1	9
495.508	1	5
495.678	1	12
495.848	1	17
496.019	1	8
496.189	1	12
496.359	1	-10
496.529	1	5
496.700	1	4
496.870	1	3
497.040	1	1
497.211	1	4
497.381	1	3
497.551	1	3
497.721	1	5
497.892	1	4
498.062	1	4
498.232	1	4
498.403	1	6
498.573	1	-2
498.743	1	2
498.913	1	11
499.084	1	0
499.254	1	10
499.424	1	4
499.594	1	9
499.765	1	2
499.935	1	3
500.105	1	3
500.275	1	6
500.446	1	-7
500.616	1	-2
500.786	1	-1
500.956	1	0
501.127	1	4
501.297	1	-3
501.467	1	-1
501.638	1	6
501.808	1	11
501.978	1	7
502.148	1	9
502.319	1	9
502.489	1	4
502.659	1	17
502.829	1	8
503.000	1	10
503.170	1	8
503.340	1	9
503.510	1	12
503.681	1	-5
503.851	1	3
504.021	1	7
504.191	1	8
504.362	1	-4
504.532	1	13
504.702	1	1
504.872	1	3
505.042	1	9
505.213	1	17
505.383	1	2
505.553	1	2
505.723	1	10
505.894	1	0
506.064	1	17
506.234	1	9
506.404	1	-1
506.575	1	14
506.745	1	11
506.915	1	17
507.085	1	5
507.256	1	11
507.426	1	8
507.596	1	11
507.766	1	5
507.936	1	15
508.107	1	6
508.277	1	4
508.447	1	12
508.617	1	-4
508.788	1	17
508.958	1	-4
509.128	1	9
509.298	1	-1
509.468	1	4
509.639	1	0
509.809	1	9
509.979	1	-2
510.149	1	1
510.319	1	15
510.490	1	10
510.660	1	7
510.830	1	13
511.000	1	-5
511.171	1	-3
511.341	1	0
511.511	1	11
511.681	1	5
511.851	1	11
512.022	1	1
512.192	1	9
512.362	1	5
512.532	1	4
512.702	1	4
512.873	1	11
513.043	1	15
513.213	1	8
513.383	1	0
513.553	1	-3
513.724	1	9
513.894	1	5
514.064	1	12
514.234	1	7
514.404	1	9
514.575	1	16
514.745	1	6
514.915	1	13
515.085	1	4
515.255	1	7
515.425	1	8
515.596	1	8
515.766	1	-4
515.936	1	7
516.106	1	-1
516.276	1	-9
516.447	1	15
516.617	1	15
516.787	1	12
516.957	1	3
517.127	1	9
517.297	1	1
517.468	1	5
517.638	1	17
517.808	1	-2
517.978	1	19
518.148	1	14
518.319	1	11
518.489	1	-3
518.659	1	1
518.829	1	14
518.999	1	5
519.169	1	20
519.340	1	7
519.510	1	10
519.680	1	11
519.850	1	13
520.020	1	12
520.190	1	10
520.361	1	9
520.531	1	10
520.701	1	7
520.871	1	20
521.041	1	20
521.211	1	-5
521.382	1	5
521.552	1	21
521.722	1	13
521.892	1	11
522.062	1	13
522.232	1	14
522.402	1	18
522.573	1	7
522.743	1	6
522.913	1	9
523.083	1	8
523.253	1	16
523.423	1	26
523.593	1	10
523.764	1	5
523.934	1	-1
524.104	1	6
524.274	1	12
524.444	1	9
524.614	1	10
524.784	1	7
524.955	1	10
525.125	1	-1
525.295	1	11
525.465	1	18
525.635	1	14
525.805	1	8
525.975	1	13
526.146	1	12
526.316	1	14
526.486	1	7
526.656	1	12
526.826	1	7
526.996	1	14
527.166	1	7
527.337	1	13
527.507	1	11
527.677	1	15
527.847	1	9
528.017	1	-5
528.187	1	7
528.357	1	9
528.527	1	13
528.698	1	12
528.868	1	7
529.038	1	12
529.208	1	9
529.378	1	17
529.548	1	9
529.718	1	13
529.888	1	15
530.058	1	14
530.229	1	16
530.399	1	12
530.569	1	2
530.739	1	12
530.909	1	11
531.079	1	22
531.249	1	5
531.419	1	5
531.589	1	17
531.760	1	12
531.930	1	14
532.100	1	13
532.270	1	12
532.440	1	2
532.610	1	10
532.780	1	8
532.950	1	15
533.120	1	23
533.290	1	17
533.461	1	14
533.631	1	12
533.801	1	27
533.971	1	7
534.141	1	2
534.311	1	15
534.481	1	-3
534.651	1	8
534.821	1	11
534.991	1	14
535.162	1	12
535.332	1	11
535.502	1	3
535.672	1	22
535.842	1	16
536.012	1	12
536.182	1	3
536.352	1	14
536.522	1	5
536.692	1	18
536.862	1	18
537.032	1	24
537.203	1	4
537.373	1	17
537.543	1	7
537.713	1	12
537.883	1	7
538.053	1	15
538.223	1	5
538.393	1	17
538.563	1	16
538.733	1	17
538.903	1	5
539.073	1	14
539.243	1	4
539.413	1	7
539.584	1	10
539.754	1	14
539.924	1	15
540.094	1	0
540.264	1	3
540.434	1	15
540.604	1	15
540.774	1	25
540.944	1	7
541.114	1	4
541.284	1	15
541.454	1	8
541.624	1	13
541.794	1	9
541.964	1	22
542.134	1	20
542.305	1	14
542.475	1	19
542.645	1	20
542.815	1	11
542.985	1	9
543.155	1	10
543.325	1	13
543.495	1	15
543.665	1	15
543.835	1	12
544.005	1	16
544.175	1	2
544.345	1	10
544.515	1	8
544.685	1	15
544.855	1	13
545.025	1	11
545.195	1	10
545.365	1	3
545.535	1	21
545.705	1	9
545.875	1	3
546.045	1	6
546.216	1	10
546.386	1	23
546.556	1	7
546.726	1	10
546.896	1	9
547.066	1	11
547.236	1	15
547.406	1	15
547.576	1	24
547.746	1	9
547.916	1	8
548.086	1	6
548.256	1	0
548.426	1	7
548.596	1	7
548.766	1	11
548.936	1	23
549.106	1	19
549.276	1	9
549.446	1	6
549.616	1	6
549.786	1	12
549.956	1	23
550.126	1	28
550.296	1	17
550.466	1	22
550.636	1	17
550.806	1	23
550.976	1	18
551.146	1	8
551.316	1	28
551.486	1	13
551.656	1	15
551.826	1	20
551.996	1	25
552.166	1	10
552.336	1	9
552.506	1	16
552.676	1	19
552.846	1	12
553.016	1	20
553.186	1	16
553.356	1	7
553.526	1	5
553.696	1	22
553.866	1	10
554.036	1	17
554.206	1	19
554.376	1	26
554.546	1	19
554.716	1	18
554.886	1	20
555.056	1	16
555.226	1	8
555.396	1	10
555.566	1	15
555.736	1	11
555.906	1	21
556.076	1	8
556.246	1	13
556.416	1	11
556.586	1	15
556.756	1	12
556.926	1	24
557.096	1	15
557.266	1	8
557.436	1	6
557.606	1	16
557.776	1	12
557.946	1	17
558.116	1	13
558.286	1	1
558.456	1	16
558.626	1	19
558.796	1	23
558.966	1	14
559.136	1	13
559.306	1	19
559.476	1	1
559.646	1	4
559.816	1	14
559.986	1	13
560.155	1	14
560.325	1	3
560.495	1	12
560.665	1	11
560.835	1	11
561.005	1	15
561.175	1	11
561.345	1	15
561.515	1	14
561.685	1	18
561.855	1	7
562.025	1	10
562.195	1	22
562.365	1	14
562.535	1	12
562.705	1	-3
562.875	1	17
563.045	1	6
563.215	1	24
563.385	1	7
563.555	1	9
563.725	1	15
563.895	1	17
564.064	1	7
564.234	1	12
564.404	1	7
564.574	1	19
564.744	1	9
564.914	1	21
565.084	1	17
565.254	1	21
565.424	1	12
565.594	1	22
565.764	1	16
565.934	1	20
566.104	1	9
566.274	1	8
566.444	1	11
566.614	1	11
566.783	1	8
566.953	1	18
567.123	1	12
567.293	1	22
567.463	1	23
567.633	1	22
567.803	1	9
567.973	1	3
568.143	1	12
568.313	1	26
568.483	1	17
568.653	1	7
568.823	1	9
568.993	1	15
569.162	1	22
569.332	1	19
569.502	1	8
569.672	1	21
569.842	1	16
570.012	1	14
570.182	1	11
570.352	1	11
570.522	1	4
570.692	1	23
570.862	1	8
571.031	1	19
571.201	1	21
571.371	1	13
571.541	1	28
571.711	1	11
571.881	1	20
572.051	1	23
572.221	1	5
572.391	1	-1
572.561	1	16
572.731	1	19
572.900	1	7
573.070	1	9
573.240	1	11
573.410	1	10
573.580	1	24
573.750	1	-1
573.920	1	20
574.090	1	22
574.260	1	15
574.430	1	17
574.599	1	25
574.769	1	10
574.939	1	12
575.109	1	19
575.279	1	19
575.449	1	5
575.619	1	20
575.789	1	16
575.959	1	6
576.128	1	-4
576.298	1	22
576.468	1	12
576.638	1	5
576.808	1	9
576.978	1	13
577.148	1	14
577.318	1	9
577.487	1	9
577.657	1	12
577.827	1	10
577.997	1	7
578.167	1	3
578.337	1	21
578.507	1	20
578.677	1	11
578.846	1	16
579.016	1	19
579.186	1	10
579.356	1	4
579.526	1	12
579.696	1	18
579.866	1	20
580.036	1	-3
580.205	1	0
580.375	1	13
580.545	1	11
580.715	1	10
580.885	1	17
581.055	1	5
581.225	1	9
581.394	1	11
581.564	1	15
581.734	1	6
581.904	1	16
582.074	1	6
582.244	1	14
582.414	1	24
582.583	1	22
582.753	1	11
582.923	1	19
583.093	1	7
583.263	1	12
583.433	1	19
583.603	1	17
583.772	1	16
583.942	1	1
584.112	1	18
584.282	1	12
584.452	1	17
584.622	1	8
584.791	1	5
584.961	1	11
585.131	1	11
585.301	1	9
585.471	1	13
585.641	1	14
585.811	1	21
585.980	1	14
586.150	1	5
586.320	1	6
586.490	1	15
586.660	1	13
586.830	1	17
586.999	1	14
587.169	1	22
587.339	1	13
587.509	1	10
587.679	1	23
587.849	1	15
588.018	1	14
588.188	1	27
588.358	1	3
588.528	1	18
588.698	1	8
588.867	1	14
589.037	1	12
589.207	1	12
589.377	1	17
589.547	1	16
589.717	1	11
589.886	1	6
590.056	1	10
590.226	1	20
590.396	1	21
590.566	1	8
590.735	1	8
590.905	1	8
591.075	1	9
591.245	1	8
591.415	1	16
591.585	1	11
591.754	1	11
591.924	1	6
592.094	1	16
592.264	1	22
592.434	1	12
592.603	1	6
592.773	1	10
592.943	1	20
593.113	1	9
593.283	1	13
593.452	1	6
593.622	1	7
593.792	1	17
593.962	1	13
594.132	1	10
594.301	1	9
594.471	1	19
594.641	1	5
594.811	1	15
594.981	1	0
595.150	1	10
595.320	1	6
595.490	1	19
595.660	1	-1
595.829	1	8
595.999	1	3
596.169	1	24
596.339	1	14
596.509	1	0
596.678	1	5
596.848	1	8
597.018	1	4
597.188	1	-1
597.358	1	14
597.527	1	4
597.697	1	10
597.867	1	11
598.037	1	10
598.206	1	8
598.376	1	9
598.546	1	12
598.716	1	10
598.885	1	-1
599.055	1	22
599.225	1	5
599.395	1	13
599.565	1	3
599.734	1	11
599.904	1	5
600.074	1	16
600.244	1	8
600.413	1	17
600.583	1	26
600.753	1	8
600.923	1	12
601.092	1	9
601.262	1	15
601.432	1	4
601.602	1	24
601.771	1	8
601.941	1	7
602.111	1	8
602.281	1	19
602.451	1	22
602.620	1	7
602.790	1	12
602.960	1	18
603.130	1	9
603.299	1	4
603.469	1	5
603.639	1	3
603.809	1	16
603.978	1	8
604.148	1	11
604.318	1	13
604.487	1	10
604.657	1	8
604.827	1	20
604.997	1	9
605.166	1	26
605.336	1	9
605.506	1	11
605.676	1	8
605.845	1	1
606.015	1	10
606.185	1	15
606.355	1	13
606.524	1	11
606.694	1	11
606.864	1	13
607.034	1	5
607.203	1	7
607.373	1	6
607.543	1	3
607.712	1	3
607.882	1	18
608.052	1	5
608.222	1	18
608.391	1	10
608.561	1	21
608.731	1	8
608.901	1	18
609.070	1	16
609.240	1	13
609.410	1	14
609.579	1	25
609.749	1	1
609.919	1	20
610.089	1	7
610.258	1	11
610.428	1	10
610.598	1	10
610.767	1	6
610.937	1	9
611.107	1	9
611.277	1	9
611.446	1	14
611.616	1	13
611.786	1	24
611.955	1	16
612.125	1	10
612.295	1	7
612.465	1	17
612.634	1	8
612.804	1	12
612.974	1	-8
613.143	1	16
613.313	1	21
613.483	1	12
613.652	1	11
613.822	1	6
613.992	1	3
614.162	1	12
614.331	1	10
614.501	1	10
614.671	1	16
614.840	1	4
615.010	1	-1
615.180	1	6
615.349	1	8
615.519	1	-2
615.689	1	20
615.858	1	-1
616.028	1	4
616.198	1	15
616.368	1	11
616.537	1	0
616.707	1	5
616.877	1	12
617.046	1	13
617.216	1	-12
617.386	1	7
617.555	1	6
617.725	1	7
617.895	1	5
618.064	1	12
618.234	1	9
618.404	1	12
618.573	1	13
618.743	1	10
618.913	1	10
619.082	1	13
619.252	1	9
619.422	1	-2
619.591	1	2
619.761	1	15
619.931	1	16
620.100	1	18
620.270	1	10
620.440	1	6
620.609	1	11
620.779	1	-2
620.949	1	12
621.118	1	10
621.288	1	3
621.458	1	7
621.627	1	8
621.797	1	7
621.967	1	5
622.136	1	22
622.306	1	9
622.476	1	18
622.645	1	17
622.815	1	16
622.985	1	8
623.154	1	10
623.324	1	10
623.494	1	12
623.663	1	7
623.833	1	23
624.002	1	-3
624.172	1	9
624.342	1	16
624.511	1	2
624.681	1	8
624.851	1	3
625.020	1	10
625.190	1	7
625.360	1	4
625.529	1	13
625.699	1	8
625.869	1	11
626.038	1	4
626.208	1	0
626.377	1	7
626.547	1	16
626.717	1	12
626.886	1	8
627.056	1	-5
627.226	1	10
627.395	1	10
627.565	1	-1
627.735	1	4
627.904	1	6
628.074	1	4
628.243	1	11
628.413	1	6
628.583	1	10
628.752	1	10
628.922	1	1
629.091	1	-1
629.261	1	12
629.431	1	-3
629.600	1	24
629.770	1	-2
629.940	1	10
630.109	1	-3
630.279	1	1
630.448	1	9
630.618	1	-2
630.788	1	17
630.957	1	4
631.127	1	15
631.297	1	13
631.466	1	10
631.636	1	-3
631.805	1	13
631.975	1	19
632.145	1	0
632.314	1	6
632.484	1	5
632.653	1	12
632.823	1	9
632.993	1	6
633.162	1	6
633.332	1	13
633.501	1	9
633.671	1	1
633.841	1	0
634.010	1	0
634.180	1	7
634.349	1	9
634.519	1	-7
634.689	1	8
634.858	1	2
635.028	1	10
635.197	1	24
635.367	1	6
635.537	1	2
635.706	1	9
635.876	1	-3
636.045	1	16
636.215	1	2
636.384	1	11
636.554	1	13
636.724	1	6
636.893	1	2
637.063	1	5
637.232	1	-2
637.402	1	10
637.572	1	9
637.741	1	5
637.911	1	6
638.080	1	4
638.250	1	1
638.419	1	3
638.589	1	4
638.759	1	1
638.928	1	7
639.098	1	14
639.267	1	3
639.437	1	15
639.606	1	18
639.776	1	6
639.946	1	13
640.115	1	-2
640.285	1	7
640.454	1	-4
640.624	1	9
640.793	1	12
640.963	1	2
641.132	1	15
641.302	1	2
641.472	1	9
641.641	1	-3
641.811	1	0
641.980	1	16
642.150	1	-5
642.319	1	-2
642.489	1	8
642.659	1	17
642.828	1	-1
642.998	1	10
643.167	1	4
643.337	1	0
643.506	1	-3
643.676	1	9
643.845	1	11
644.015	1	13
644.184	1	13
644.354	1	12
644.524	1	6
644.693	1	9
644.863	1	-5
645.032	1	3
645.202	1	3
645.371	1	2
645.541	1	4
645.710	1	9
645.880	1	11
646.049	1	3
646.219	1	15
646.388	1	7
646.558	1	1
646.728	1	11
646.897	1	16
647.067	1	7
647.236	1	4
647.406	1	2
647.575	1	5
647.745	1	8
647.914	1	3
648.084	1	-1
648.253	1	14
648.423	1	3
648.592	1	2
648.762	1	-1
648.931	1	16
649.101	1	2
649.270	1	2
649.440	1	20
649.610	1	6
649.779	1	0
649.949	1	5
650.118	1	10
650.288	1	6
650.457	1	9
650.627	1	7
650.796	1	4
650.966	1	7
651.135	1	5
651.305	1	8
651.474	1	-1
651.644	1	20
651.813	1	2
651.983	1	11
652.152	1	15
652.322	1	2
652.491	1	7
652.661	1	0
652.830	1	9
653.000	1	1
653.169	1	5
653.339	1	12
653.508	1	2
653.678	1	10
653.847	1	10
654.017	1	7
654.186	1	6
654.356	1	2
654.525	1	-1
654.695	1	11
654.864	1	-3
655.034	1	9
655.203	1	-3
655.373	1	13
655.542	1	15
655.712	1	11
655.881	1	10
656.051	1	4
656.220	1	1
656.390	1	0
656.559	1	9
656.729	1	17
656.898	1	-3
657.068	1	12
657.237	1	7
657.406	1	10
657.576	1	6
657.745	1	9
657.915	1	3
658.084	1	9
658.254	1	-2
658.423	1	10
658.593	1	11
658.762	1	7
658.932	1	11
659.101	1	14
659.271	1	14
659.440	1	5
659.610	1	-6
659.779	1	10
659.949	1	11
660.118	1	6
660.288	1	13
660.457	1	7
660.626	1	13
660.796	1	-5
660.965	1	4
661.135	1	0
661.304	1	5
661.474	1	-1
661.643	1	16
661.813	1	21
661.982	1	17
662.152	1	1
662.321	1	9
662.491	1	2
662.660	1	11
662.829	1	-1
662.999	1	-3
663.168	1	11
663.338	1	1
663.507	1	12
663.677	1	8
663.846	1	2
664.016	1	0
664.185	1	6
664.354	1	8
664.524	1	8
664.693	1	13
664.863	1	2
665.032	1	1
665.202	1	3
665.371	1	6
665.541	1	2
665.710	1	1
665.879	1	-11
666.049	1	12
666.218	1	0
666.388	1	12
666.557	1	6
666.727	1	5
666.896	1	-6
667.065	1	9
667.235	1	3
667.404	1	5
667.574	1	7
667.743	1	4
667.913	1	8
668.082	1	6
668.251	1	-9
668.421	1	4
668.590	1	13
668.760	1	5
668.929	1	-7
669.099	1	7
669.268	1	6
669.437	1	9
669.607	1	0
669.776	1	2
669.946	1	5
670.115	1	-2
670.285	1	6
670.454	1	10
670.623	1	2
670.793	1	7
670.962	1	14
671.132	1	13
671.301	1	6
671.470	1	-1
671.640	1	9
671.809	1	7
671.979	1	5
672.148	1	1
672.317	1	11
672.487	1	11
672.656	1	5
672.826	1	1
672.995	1	9
673.164	1	6
673.334	1	1
673.503	1	6
673.673	1	1
673.842	1	3
674.011	1	-2
674.181	1	8
674.350	1	5
674.520	1	-2
674.689	1	3
674.858	1	13
675.028	1	9
675.197	1	5
675.367	1	9
675.536	1	4
675.705	1	10
675.875	1	-5
676.044	1	3
676.214	1	-2
676.383	1	17
676.552	1	0
676.722	1	10
676.891	1	15
677.060	1	4
677.230	1	7
677.399	1	-1
677.569	1	8
677.738	1	9
677.907	1	11
678.077	1	22
678.246	1	-1
678.416	1	0
678.585	1	9
678.754	1	10
678.924	1	-6
679.093	1	10
679.262	1	4
679.432	1	-2
679.601	1	-1
679.771	1	7
679.940	1	4
680.109	1	8
680.279	1	1
680.448	1	10
680.617	1	4
680.787	1	7
680.956	1	6
681.125	1	5
681.295	1	3
681.464	1	3
681.634	1	8
681.803	1	4
681.972	1	-1
682.142	1	3
682.311	1	12
682.480	1	14
682.650	1	7
682.819	1	8
682.988	1	3
683.158	1	8
683.327	1	2
683.496	1	1
683.666	1	3
683.835	1	6
684.004	1	12
684.174	1	6
684.343	1	3
684.512	1	13
684.682	1	-2
684.851	1	6
685.021	1	8
685.190	1	-2
685.359	1	11
685.529	1	12
685.698	1	6
685.867	1	1
686.037	1	5
686.206	1	8
686.375	1	10
686.545	1	-7
686.714	1	1
686.883	1	0
687.053	1	2
687.222	1	13
687.391	1	8
687.561	1	8
687.730	1	12
687.899	1	9
688.069	1	3
688.238	1	4
688.407	1	0
688.577	1	-5
688.746	1	3
