340.368	1	6
340.539	1	-10
340.710	1	-10
340.881	1	-18
341.052	1	3
341.223	1	6
341.394	1	-3
341.565	1	-8
341.737	1	-1
341.908	1	5
342.079	1	-3
342.250	1	-8
342.421	1	-1
342.592	1	11
342.763	1	-2
342.934	1	-9
343.105	1	-3
343.276	1	5
343.447	1	-1
343.618	1	3
343.789	1	4
343.960	1	-4
344.131	1	0
344.302	1	0
344.473	1	-2
344.644	1	-2
344.815	1	-5
344.986	1	-3
345.157	1	2
345.328	1	1
345.499	1	-11
345.670	1	-4
345.841	1	7
346.012	1	12
346.183	1	-11
346.354	1	-2
346.526	1	0
346.697	1	-6
346.868	1	3
347.039	1	6
347.210	1	-13
347.381	1	-1
347.552	1	-9
347.723	1	-9
347.894	1	2
348.065	1	-2
348.236	1	0
348.407	1	-1
348.578	1	-1
348.749	1	-2
348.920	1	5
349.091	1	-9
349.262	1	6
349.433	1	-2
349.604	1	0
349.775	1	12
349.946	1	-2
350.117	1	4
350.288	1	11
350.459	1	-3
350.630	1	-1
350.801	1	1
350.972	1	1
351.143	1	6
351.314	1	0
351.485	1	2
351.656	1	6
351.827	1	1
351.998	1	0
352.169	1	-3
352.340	1	-1
352.511	1	-4
352.682	1	6
352.853	1	-4
353.024	1	8
353.195	1	-3
353.366	1	20
353.537	1	-9
353.708	1	-3
353.879	1	-3
354.050	1	1
354.221	1	-10
354.392	1	0
354.563	1	4
354.734	1	10
354.905	1	8
355.076	1	-3
355.247	1	12
355.418	1	-10
355.589	1	-10
355.760	1	-2
355.931	1	-4
356.102	1	17
356.273	1	-4
356.444	1	4
356.615	1	-1
356.785	1	13
356.956	1	4
357.127	1	-3
357.298	1	7
357.469	1	0
357.640	1	-3
357.811	1	5
357.982	1	-1
358.153	1	6
358.324	1	3
358.495	1	5
358.666	1	4
358.837	1	-9
359.008	1	-4
359.179	1	5
359.350	1	2
359.521	1	16
359.692	1	10
359.863	1	2
360.034	1	-1
360.205	1	4
360.376	1	1
360.547	1	7
360.718	1	9
360.889	1	-1
361.060	1	-6
361.231	1	3
361.401	1	2
361.572	1	6
361.743	1	6
361.914	1	16
362.085	1	9
362.256	1	-1
362.427	1	10
362.598	1	-9
362.769	1	3
362.940	1	3
363.111	1	-3
363.282	1	13
363.453	1	3
363.624	1	14
363.795	1	-1
363.966	1	5
364.137	1	14
364.308	1	4
364.478	1	7
364.649	1	11
364.820	1	3
364.991	1	5
365.162	1	25
365.333	1	8
365.504	1	17
365.675	1	1
365.846	1	20
366.017	1	10
366.188	1	18
366.359	1	13
366.530	1	17
366.701	1	8
366.871	1	15
367.042	1	21
367.213	1	19
367.384	1	13
367.555	1	10
367.726	1	17
367.897	1	16
368.068	1	18
368.239	1	20
368.410	1	33
368.581	1	3
368.752	1	12
368.923	1	21
369.093	1	12
369.264	1	18
369.435	1	16
369.606	1	9
369.777	1	15
369.948	1	14
370.119	1	14
370.290	1	20
370.461	1	24
370.632	1	20
370.803	1	21
370.973	1	13
371.144	1	6
371.315	1	2
371.486	1	19
371.657	1	17
371.828	1	21
371.999	1	29
372.170	1	22
372.341	1	15
372.512	1	12
372.682	1	10
372.853	1	13
373.024	1	8
373.195	1	10
373.366	1	16
373.537	1	14
373.708	1	9
373.879	1	19
374.050	1	13
374.220	1	24
374.391	1	4
374.562	1	16
374.733	1	15
374.904	1	8
375.075	1	4
375.246	1	14
375.417	1	8
375.588	1	10
375.758	1	9
375.929	1	27
376.100	1	13
376.271	1	18
376.442	1	17
376.613	1	7
376.784	1	6
376.955	1	-2
377.125	1	10
377.296	1	-4
377.467	1	9
377.638	1	11
377.809	1	9
377.980	1	5
378.151	1	17
378.321	1	-5
378.492	1	3
378.663	1	-2
378.834	1	0
379.005	1	11
379.176	1	6
379.347	1	13
379.518	1	-8
379.688	1	13
379.859	1	-4
380.030	1	3
380.201	1	3
380.372	1	2
380.543	1	10
380.714	1	9
380.884	1	0
381.055	1	11
381.226	1	-7
381.397	1	4
381.568	1	9
381.739	1	10
381.910	1	-2
382.080	1	2
382.251	1	2
382.422	1	7
382.593	1	4
382.764	1	4
382.935	1	1
383.105	1	4
383.276	1	13
383.447	1	-3
383.618	1	6
383.789	1	-5
383.960	1	2
384.130	1	-2
384.301	1	11
384.472	1	-2
384.643	1	11
384.814	1	5
384.985	1	-2
385.156	1	2
385.326	1	5
385.497	1	8
385.668	1	7
385.839	1	8
386.010	1	-10
386.180	1	7
386.351	1	-5
386.522	1	9
386.693	1	-19
386.864	1	4
387.035	1	12
387.205	1	2
387.376	1	13
387.547	1	0
387.718	1	2
387.889	1	6
388.060	1	6
388.230	1	8
388.401	1	0
388.572	1	-6
388.743	1	9
388.914	1	6
389.084	1	-1
389.255	1	-3
389.426	1	1
389.597	1	7
389.768	1	-2
389.939	1	4
390.109	1	1
390.280	1	-3
390.451	1	-2
390.622	1	-1
390.793	1	4
390.963	1	12
391.134	1	5
391.305	1	-3
391.476	1	-8
391.647	1	-1
391.817	1	11
391.988	1	16
392.159	1	-1
392.330	1	4
392.501	1	2
392.671	1	-11
392.842	1	-1
393.013	1	-10
393.184	1	11
393.355	1	8
393.525	1	-1
393.696	1	6
393.867	1	-2
394.038	1	9
394.208	1	0
394.379	1	0
394.550	1	9
394.721	1	-3
394.892	1	-1
395.062	1	5
395.233	1	-1
395.404	1	-7
395.575	1	0
395.746	1	8
395.916	1	3
396.087	1	2
396.258	1	5
396.429	1	0
396.599	1	10
396.770	1	-12
396.941	1	-2
397.112	1	14
397.283	1	2
397.453	1	8
397.624	1	-3
397.795	1	6
397.966	1	7
398.136	1	-8
398.307	1	2
398.478	1	1
398.649	1	-10
398.819	1	9
398.990	1	5
399.161	1	4
399.332	1	-4
399.503	1	5
399.673	1	1
399.844	1	6
400.015	1	-14
400.186	1	4
400.356	1	-15
400.527	1	3
400.698	1	-1
400.869	1	-5
401.039	1	-3
401.210	1	1
401.381	1	-8
401.552	1	-3
401.722	1	7
401.893	1	2
402.064	1	4
402.235	1	-6
402.405	1	4
402.576	1	-8
402.747	1	-1
402.918	1	1
403.088	1	-6
403.259	1	17
403.430	1	-3
403.601	1	-5
403.771	1	1
403.942	1	4
404.113	1	-2
404.284	1	1
404.454	1	9
404.625	1	4
404.796	1	0
404.967	1	5
405.137	1	8
405.308	1	2
405.479	1	4
405.649	1	5
405.820	1	-10
405.991	1	-3
406.162	1	0
406.332	1	-1
406.503	1	0
406.674	1	3
406.845	1	6
407.015	1	3
407.186	1	6
407.357	1	0
407.527	1	-2
407.698	1	4
407.869	1	-5
408.040	1	-13
408.210	1	-3
408.381	1	2
408.552	1	2
408.722	1	-13
408.893	1	-1
409.064	1	6
409.235	1	-4
409.405	1	7
409.576	1	-12
409.747	1	3
409.917	1	1
410.088	1	7
410.259	1	-3
410.430	1	3
410.600	1	-11
410.771	1	6
410.942	1	5
411.112	1	6
411.283	1	1
411.454	1	-5
411.625	1	-1
411.795	1	-12
411.966	1	3
412.137	1	0
412.307	1	0
412.478	1	4
412.649	1	-2
412.819	1	-4
412.990	1	1
413.161	1	5
413.332	1	9
413.502	1	1
413.673	1	2
413.844	1	9
414.014	1	4
414.185	1	3
414.356	1	5
414.526	1	0
414.697	1	5
414.868	1	-2
415.038	1	2
415.209	1	-2
415.380	1	2
415.550	1	-1
415.721	1	-10
415.892	1	-9
416.063	1	0
416.233	1	5
416.404	1	-3
416.575	1	12
416.745	1	-12
416.916	1	-1
417.087	1	8
417.257	1	6
417.428	1	-1
417.599	1	-7
417.769	1	2
417.940	1	0
418.111	1	8
418.281	1	-1
418.452	1	-3
418.623	1	-2
418.793	1	1
418.964	1	-12
419.135	1	-2
419.305	1	-1
419.476	1	0
419.647	1	0
419.817	1	-1
419.988	1	-2
420.159	1	-2
420.329	1	-11
420.500	1	-8
420.671	1	8
420.841	1	16
421.012	1	1
421.183	1	2
421.353	1	-3
421.524	1	-10
421.695	1	-2
421.865	1	-5
422.036	1	4
422.206	1	5
422.377	1	2
422.548	1	-7
422.718	1	5
422.889	1	-15
423.060	1	-8
423.230	1	-10
423.401	1	5
423.572	1	1
423.742	1	6
423.913	1	-7
424.084	1	7
424.254	1	2
424.425	1	7
424.595	1	1
424.766	1	8
424.937	1	-2
425.107	1	1
425.278	1	11
425.449	1	0
425.619	1	-4
425.790	1	-9
425.961	1	-6
426.131	1	-3
426.302	1	4
426.472	1	-6
426.643	1	2
426.814	1	2
426.984	1	5
427.155	1	-1
427.326	1	5
427.496	1	0
427.667	1	7
427.837	1	-7
428.008	1	6
428.179	1	-13
428.349	1	-20
428.520	1	-2
428.691	1	2
428.861	1	3
429.032	1	10
429.202	1	-1
429.373	1	1
429.544	1	-1
429.714	1	4
429.885	1	1
430.055	1	-1
430.226	1	-7
430.397	1	-3
430.567	1	4
430.738	1	-1
430.909	1	-5
431.079	1	-12
431.250	1	-5
431.420	1	-4
431.591	1	7
431.762	1	2
431.932	1	-3
432.103	1	2
432.273	1	-6
432.444	1	9
432.615	1	-11
432.785	1	-3
432.956	1	-4
433.126	1	-1
433.297	1	4
433.468	1	-10
433.638	1	-10
433.809	1	1
433.979	1	-3
434.150	1	16
434.320	1	10
434.491	1	-3
434.662	1	5
434.832	1	-4
435.003	1	3
435.173	1	-10
435.344	1	-5
435.515	1	12
435.685	1	-3
435.856	1	2
436.026	1	8
436.197	1	-2
436.368	1	3
436.538	1	-16
436.709	1	-1
436.879	1	-4
437.050	1	-5
437.220	1	4
437.391	1	11
437.562	1	0
437.732	1	-10
437.903	1	-5
438.073	1	9
438.244	1	-2
438.414	1	-8
438.585	1	-1
438.756	1	-13
438.926	1	5
439.097	1	-5
439.267	1	4
439.438	1	-2
439.608	1	-14
439.779	1	-4
439.949	1	5
440.120	1	-3
440.291	1	-6
440.461	1	3
440.632	1	0
440.802	1	5
440.973	1	-8
441.143	1	4
441.314	1	-7
441.485	1	9
441.655	1	-1
441.826	1	5
441.996	1	-3
442.167	1	-2
442.337	1	-5
442.508	1	-5
442.678	1	-13
442.849	1	9
443.019	1	7
443.190	1	-6
443.361	1	-3
443.531	1	14
443.702	1	-4
443.872	1	1
444.043	1	9
444.213	1	4
444.384	1	-7
444.554	1	1
444.725	1	-4
444.895	1	0
445.066	1	-4
445.237	1	-4
445.407	1	5
445.578	1	-5
445.748	1	0
445.919	1	-8
446.089	1	4
446.260	1	1
446.430	1	1
446.601	1	6
446.771	1	17
446.942	1	3
447.112	1	-2
447.283	1	-1
447.453	1	-7
447.624	1	-3
447.794	1	-10
447.965	1	-3
448.135	1	0
448.306	1	4
448.477	1	9
448.647	1	-4
448.818	1	1
448.988	1	-8
449.159	1	-3
449.329	1	-3
449.500	1	2
449.670	1	8
449.841	1	8
450.011	1	8
450.182	1	-2
450.352	1	-3
450.523	1	-12
450.693	1	-11
450.864	1	-1
451.034	1	-7
451.205	1	14
451.375	1	1
451.546	1	-2
451.716	1	-2
451.887	1	-15
452.057	1	-1
452.228	1	-2
452.398	1	-5
452.569	1	-11
452.739	1	7
452.910	1	1
453.080	1	-3
453.251	1	0
453.421	1	0
453.592	1	-6
453.762	1	3
453.933	1	0
454.103	1	5
454.274	1	-8
454.444	1	-13
454.615	1	1
454.785	1	-6
454.956	1	0
455.126	1	-2
455.297	1	12
455.467	1	-3
455.638	1	3
455.808	1	-3
455.979	1	2
456.149	1	2
456.320	1	-1
456.490	1	-5
456.661	1	1
456.831	1	4
457.001	1	-7
457.172	1	-3
457.342	1	0
457.513	1	8
457.683	1	2
457.854	1	-1
458.024	1	4
458.195	1	2
458.365	1	0
458.536	1	5
458.706	1	-6
458.877	1	1
459.047	1	7
459.218	1	-7
459.388	1	13
459.559	1	4
459.729	1	7
459.899	1	-3
460.070	1	1
460.240	1	2
460.411	1	-3
460.581	1	9
460.752	1	3
460.922	1	3
461.093	1	9
461.263	1	-8
461.434	1	-6
461.604	1	1
461.775	1	-6
461.945	1	-4
462.115	1	2
462.286	1	3
462.456	1	-5
462.627	1	7
462.797	1	-12
462.968	1	3
463.138	1	-3
463.309	1	-6
463.479	1	-6
463.649	1	-9
463.820	1	-1
463.990	1	0
464.161	1	3
464.331	1	3
464.502	1	7
464.672	1	1
464.843	1	1
465.013	1	-4
465.183	1	-9
465.354	1	4
465.524	1	-1
465.695	1	-3
465.865	1	0
466.036	1	1
466.206	1	4
466.376	1	-8
466.547	1	-5
466.717	1	6
466.888	1	5
467.058	1	-8
467.229	1	6
467.399	1	12
467.569	1	2
467.740	1	-4
467.910	1	-6
468.081	1	-4
468.251	1	-4
468.422	1	-5
468.592	1	-1
468.762	1	-4
468.933	1	1
469.103	1	-1
469.274	1	6
469.444	1	-6
469.614	1	2
469.785	1	-12
469.955	1	-7
470.126	1	-4
470.296	1	-3
470.467	1	-8
470.637	1	2
470.807	1	10
470.978	1	2
471.148	1	-5
471.319	1	4
471.489	1	-3
471.659	1	-10
471.830	1	-3
472.000	1	-10
472.171	1	-1
472.341	1	-6
472.511	1	2
472.682	1	-5
472.852	1	2
473.023	1	-3
473.193	1	6
473.363	1	-2
473.534	1	7
473.704	1	-13
473.875	1	18
474.045	1	-7
474.215	1	11
474.386	1	8
474.556	1	2
474.727	1	-9
474.897	1	-5
475.067	1	3
475.238	1	0
475.408	1	4
475.578	1	-2
475.749	1	4
475.919	1	-5
476.090	1	2
476.260	1	-7
476.430	1	-1
476.601	1	-3
476.771	1	-7
476.942	1	11
477.112	1	1
477.282	1	-8
477.453	1	-10
477.623	1	-5
477.793	1	-5
477.964	1	-11
478.134	1	-9
478.305	1	-3
478.475	1	3
478.645	1	6
478.816	1	-8
478.986	1	-1
479.156	1	-2
479.327	1	-6
479.497	1	0
479.667	1	-4
479.838	1	1
480.008	1	-1
480.179	1	0
480.349	1	-2
480.519	1	1
480.690	1	11
480.860	1	-2
481.030	1	-5
481.201	1	-7
481.371	1	0
481.541	1	-13
481.712	1	5
481.882	1	4
482.053	1	6
482.223	1	-5
482.393	1	-1
482.564	1	-3
482.734	1	-11
482.904	1	-2
483.075	1	4
483.245	1	-3
483.415	1	-2
483.586	1	-6
483.756	1	7
483.926	1	-3
484.097	1	5
484.267	1	-7
484.437	1	-1
484.608	1	-2
484.778	1	6
484.948	1	-3
485.119	1	-9
485.289	1	-2
485.459	1	16
485.630	1	-1
485.800	1	3
485.970	1	-1
486.141	1	-4
486.311	1	-10
486.481	1	-7
486.652	1	13
486.822	1	-4
486.992	1	14
487.163	1	1
487.333	1	0
487.503	1	4
487.674	1	9
487.844	1	-5
488.014	1	-7
488.185	1	1
488.355	1	-2
488.525	1	1
488.696	1	-4
488.866	1	7
489.036	1	15
489.207	1	9
489.377	1	-11
489.547	1	-2
489.718	1	4
489.888	1	1
490.058	1	-13
490.228	1	7
490.399	1	2
490.569	1	8
490.739	1	4
490.910	1	0
491.080	1	10
491.250	1	-18
491.421	1	-9
491.591	1	-9
491.761	1	0
491.932	1	-1
492.102	1	-5
492.272	1	5
492.442	1	0
492.613	1	2
492.783	1	-3
492.953	1	0
493.124	1	0
493.294	1	2
493.464	1	7
493.635	1	-8
493.805	1	-4
493.975	1	-4
494.145	1	7
494.316	1	-4
494.486	1	5
494.656	1	-4
494.827	1	-6
494.997	1	-6
495.167	1	1
495.337	1	3
495.508	1	1
495.678	1	2
495.848	1	7
496.019	1	-3
496.189	1	4
496.359	1	-5
496.529	1	-4
496.700	1	2
496.870	1	6
497.040	1	-6
497.211	1	-3
497.381	1	0
497.551	1	0
497.721	1	-4
497.892	1	-6
498.062	1	1
498.232	1	-5
498.403	1	1
498.573	1	0
498.743	1	-7
498.913	1	-1
499.084	1	3
499.254	1	-2
499.424	1	-1
499.594	1	-5
499.765	1	-6
499.935	1	2
500.105	1	-3
500.275	1	1
500.446	1	-8
500.616	1	-5
500.786	1	-9
500.956	1	-1
501.127	1	-6
501.297	1	-3
501.467	1	-5
501.638	1	3
501.808	1	11
501.978	1	2
502.148	1	11
502.319	1	0
502.489	1	5
502.659	1	5
502.829	1	5
503.000	1	1
503.170	1	-6
503.340	1	-3
503.510	1	5
503.681	1	-3
503.851	1	-8
504.021	1	2
504.191	1	9
504.362	1	-15
504.532	1	8
504.702	1	-11
504.872	1	-10
505.042	1	-10
505.213	1	4
505.383	1	-2
505.553	1	1
505.723	1	0
505.894	1	-4
506.064	1	8
506.234	1	8
506.404	1	-3
506.575	1	3
506.745	1	-1
506.915	1	6
507.085	1	-6
507.256	1	9
507.426	1	1
507.596	1	9
507.766	1	0
507.936	1	5
508.107	1	6
508.277	1	-1
508.447	1	2
508.617	1	-2
508.788	1	21
508.958	1	-12
509.128	1	10
509.298	1	8
509.468	1	6
509.639	1	3
509.809	1	-3
509.979	1	2
510.149	1	2
510.319	1	3
510.490	1	1
510.660	1	-2
510.830	1	4
511.000	1	-2
511.171	1	-6
511.341	1	10
511.511	1	-1
511.681	1	2
511.851	1	2
512.022	1	-10
512.192	1	4
512.362	1	-7
512.532	1	-1
512.702	1	-8
512.873	1	5
513.043	1	8
513.213	1	-2
513.383	1	-13
513.553	1	-12
513.724	1	-2
513.894	1	-6
514.064	1	9
514.234	1	1
514.404	1	-2
514.575	1	9
514.745	1	-7
514.915	1	9
515.085	1	-7
515.255	1	0
515.425	1	2
515.596	1	5
515.766	1	-5
515.936	1	8
516.106	1	8
516.276	1	-6
516.447	1	8
516.617	1	-1
516.787	1	-2
516.957	1	3
517.127	1	-3
517.297	1	-3
517.468	1	1
517.638	1	8
517.808	1	-6
517.978	1	4
518.148	1	2
518.319	1	0
518.489	1	-4
518.659	1	-3
518.829	1	5
518.999	1	2
519.169	1	0
519.340	1	5
519.510	1	10
519.680	1	7
519.850	1	4
520.020	1	7
520.190	1	-2
520.361	1	3
520.531	1	7
520.701	1	-2
520.871	1	10
521.041	1	11
521.211	1	-13
521.382	1	-8
521.552	1	-1
521.722	1	0
521.892	1	2
522.062	1	0
522.232	1	6
522.402	1	6
522.573	1	4
522.743	1	5
522.913	1	0
523.083	1	-5
523.253	1	3
523.423	1	2
523.593	1	-6
523.764	1	-3
523.934	1	-6
524.104	1	1
524.274	1	0
524.444	1	-6
524.614	1	-10
524.784	1	3
524.955	1	-3
525.125	1	0
525.295	1	1
525.465	1	8
525.635	1	-13
525.805	1	3
525.975	1	2
526.146	1	-10
526.316	1	11
526.486	1	3
526.656	1	0
526.826	1	-6
526.996	1	2
527.166	1	2
527.337	1	-4
527.507	1	1
527.677	1	6
527.847	1	5
528.017	1	-9
528.187	1	2
528.357	1	0
528.527	1	6
528.698	1	-6
528.868	1	0
529.038	1	0
529.208	1	1
529.378	1	5
529.548	1	-3
529.718	1	2
529.888	1	4
530.058	1	1
530.229	1	2
530.399	1	0
530.569	1	-6
530.739	1	-4
530.909	1	1
531.079	1	-7
531.249	1	-7
531.419	1	-2
531.589	1	9
531.760	1	8
531.930	1	0
532.100	1	0
532.270	1	-3
532.440	1	-1
532.610	1	0
532.780	1	7
532.950	1	6
533.120	1	2
533.290	1	3
533.461	1	-1
533.631	1	9
533.801	1	14
533.971	1	-5
534.141	1	-19
534.311	1	12
534.481	1	-6
534.651	1	3
534.821	1	7
534.991	1	-5
535.162	1	-1
535.332	1	-7
535.502	1	-6
535.672	1	2
535.842	1	12
536.012	1	7
536.182	1	5
536.352	1	-2
536.522	1	-11
536.692	1	2
536.862	1	12
537.032	1	5
537.203	1	-7
537.373	1	1
537.543	1	5
537.713	1	14
537.883	1	5
538.053	1	-12
538.223	1	-2
538.393	1	9
538.563	1	9
538.733	1	-1
538.903	1	-4
539.073	1	-5
539.243	1	-1
539.413	1	4
539.584	1	3
539.754	1	1
539.924	1	14
540.094	1	-1
540.264	1	5
540.434	1	-6
540.604	1	0
540.774	1	6
540.944	1	0
541.114	1	2
541.284	1	8
541.454	1	-3
541.624	1	8
541.794	1	-3
541.964	1	6
542.134	1	0
542.305	1	10
542.475	1	6
542.645	1	7
542.815	1	4
542.985	1	4
543.155	1	-6
543.325	1	-2
543.495	1	-7
543.665	1	10
543.835	1	10
544.005	1	9
544.175	1	-14
544.345	1	-1
544.515	1	1
544.685	1	6
544.855	1	2
545.025	1	1
545.195	1	6
545.365	1	4
545.535	1	6
545.705	1	1
545.875	1	-11
546.045	1	-6
546.216	1	3
546.386	1	10
546.556	1	6
546.726	1	-2
546.896	1	0
547.066	1	7
547.236	1	2
547.406	1	0
547.576	1	8
547.746	1	-12
547.916	1	-8
548.086	1	4
548.256	1	0
548.426	1	0
548.596	1	3
548.766	1	3
548.936	1	4
549.106	1	-10
549.276	1	-1
549.446	1	1
549.616	1	-2
549.786	1	-6
549.956	1	9
550.126	1	7
550.296	1	4
550.466	1	-3
550.636	1	7
550.806	1	-6
550.976	1	5
551.146	1	-5
551.316	1	9
551.486	1	2
551.656	1	6
551.826	1	-4
551.996	1	14
552.166	1	8
552.336	1	5
552.506	1	0
552.676	1	14
552.846	1	8
553.016	1	12
553.186	1	6
553.356	1	-1
553.526	1	-1
553.696	1	5
553.866	1	0
554.036	1	-4
554.206	1	14
554.376	1	9
554.546	1	2
554.716	1	8
554.886	1	3
555.056	1	10
555.226	1	-7
555.396	1	4
555.566	1	-3
555.736	1	0
555.906	1	10
556.076	1	6
556.246	1	3
556.416	1	-8
556.586	1	9
556.756	1	1
556.926	1	5
557.096	1	2
557.266	1	-12
557.436	1	-1
557.606	1	2
557.776	1	7
557.946	1	2
558.116	1	4
558.286	1	12
558.456	1	3
558.626	1	2
558.796	1	-7
558.966	1	-2
559.136	1	6
559.306	1	1
559.476	1	-2
559.646	1	-4
559.816	1	0
559.986	1	-5
560.155	1	10
560.325	1	-2
560.495	1	2
560.665	1	-3
560.835	1	1
561.005	1	-3
561.175	1	9
561.345	1	-1
561.515	1	-9
561.685	1	8
561.855	1	-8
562.025	1	0
562.195	1	-5
562.365	1	6
562.535	1	-8
562.705	1	-1
562.875	1	0
563.045	1	-5
563.215	1	8
563.385	1	-12
563.555	1	-4
563.725	1	-7
563.895	1	2
564.064	1	-3
564.234	1	1
564.404	1	7
564.574	1	8
564.744	1	7
564.914	1	-1
565.084	1	2
565.254	1	6
565.424	1	4
565.594	1	1
565.764	1	2
565.934	1	6
566.104	1	1
566.274	1	-5
566.444	1	5
566.614	1	-4
566.783	1	3
566.953	1	5
567.123	1	2
567.293	1	10
567.463	1	5
567.633	1	-2
567.803	1	-1
567.973	1	0
568.143	1	6
568.313	1	-5
568.483	1	0
568.653	1	-1
568.823	1	8
568.993	1	-1
569.162	1	4
569.332	1	7
569.502	1	5
569.672	1	1
569.842	1	12
570.012	1	-2
570.182	1	4
570.352	1	0
570.522	1	-7
570.692	1	3
570.862	1	-1
571.031	1	1
571.201	1	13
571.371	1	-8
571.541	1	3
571.711	1	6
571.881	1	12
572.051	1	-7
572.221	1	-2
572.391	1	-9
572.561	1	-2
572.731	1	3
572.900	1	-8
573.070	1	9
573.240	1	2
573.410	1	10
573.580	1	2
573.750	1	-3
573.920	1	4
574.090	1	-2
574.260	1	7
574.430	1	8
574.599	1	0
574.769	1	-3
574.939	1	6
575.109	1	9
575.279	1	4
575.449	1	-6
575.619	1	10
575.789	1	-2
575.959	1	-8
576.128	1	-8
576.298	1	15
576.468	1	-1
576.638	1	-8
576.808	1	-5
576.978	1	5
577.148	1	1
577.318	1	1
577.487	1	-4
577.657	1	-3
577.827	1	0
577.997	1	-3
578.167	1	-1
578.337	1	15
578.507	1	16
578.677	1	6
578.846	1	0
579.016	1	11
579.186	1	-2
579.356	1	-9
579.526	1	-5
579.696	1	8
579.866	1	7
580.036	1	-3
580.205	1	-1
580.375	1	12
580.545	1	-3
580.715	1	3
580.885	1	3
581.055	1	-3
581.225	1	-3
581.394	1	0
581.564	1	9
581.734	1	-4
581.904	1	8
582.074	1	-5
582.244	1	3
582.414	1	-5
582.583	1	13
582.753	1	-7
582.923	1	-5
583.093	1	-3
583.263	1	9
583.433	1	3
583.603	1	5
583.772	1	9
583.942	1	-4
584.112	1	-2
584.282	1	-6
584.452	1	-1
584.622	1	3
584.791	1	-9
584.961	1	1
585.131	1	2
585.301	1	4
585.471	1	11
585.641	1	-3
585.811	1	9
585.980	1	8
586.150	1	0
586.320	1	-3
586.490	1	14
586.660	1	4
586.830	1	-3
586.999	1	-4
587.169	1	0
587.339	1	1
587.509	1	11
587.679	1	7
587.849	1	6
588.018	1	8
588.188	1	4
588.358	1	-6
588.528	1	7
588.698	1	-2
588.867	1	5
589.037	1	4
589.207	1	-2
589.377	1	3
589.547	1	-2
589.717	1	-3
589.886	1	-3
590.056	1	-4
590.226	1	2
590.396	1	6
590.566	1	-1
590.735	1	-11
590.905	1	-5
591.075	1	-4
591.245	1	-4
591.415	1	-2
591.585	1	0
591.754	1	9
591.924	1	3
592.094	1	3
592.264	1	-3
592.434	1	-1
592.603	1	-4
592.773	1	2
592.943	1	6
593.113	1	-2
593.283	1	1
593.452	1	10
593.622	1	-2
593.792	1	8
593.962	1	6
594.132	1	8
594.301	1	1
594.471	1	6
594.641	1	-3
594.811	1	7
594.981	1	-8
595.150	1	0
595.320	1	-2
595.490	1	6
595.660	1	-3
595.829	1	-3
595.999	1	-5
596.169	1	1
596.339	1	2
596.509	1	2
596.678	1	-8
596.848	1	0
597.018	1	-5
597.188	1	-1
597.358	1	7
597.527	1	-4
597.697	1	0
597.867	1	-1
598.037	1	0
598.206	1	1
598.376	1	-3
598.546	1	-4
598.716	1	6
598.885	1	-7
599.055	1	4
599.225	1	0
599.395	1	-3
599.565	1	-10
599.734	1	1
599.904	1	0
600.074	1	3
600.244	1	-4
600.413	1	7
600.583	1	17
600.753	1	8
600.923	1	-1
601.092	1	8
601.262	1	5
601.432	1	-4
601.602	1	4
601.771	1	1
601.941	1	3
602.111	1	-2
602.281	1	5
602.451	1	3
602.620	1	-5
602.790	1	14
602.960	1	2
603.130	1	3
603.299	1	-6
603.469	1	-1
603.639	1	0
603.809	1	11
603.978	1	-4
604.148	1	4
604.318	1	-1
604.487	1	9
604.657	1	-1
604.827	1	1
604.997	1	4
605.166	1	8
605.336	1	9
605.506	1	5
605.676	1	-14
605.845	1	2
606.015	1	-6
606.185	1	2
606.355	1	3
606.524	1	1
606.694	1	-4
606.864	1	0
607.034	1	-8
607.203	1	-2
607.373	1	-3
607.543	1	-4
607.712	1	-1
607.882	1	7
608.052	1	-8
608.222	1	10
608.391	1	1
608.561	1	2
608.731	1	2
608.901	1	9
609.070	1	3
609.240	1	-4
609.410	1	6
609.579	1	10
609.749	1	1
609.919	1	15
610.089	1	-6
610.258	1	7
610.428	1	6
610.598	1	0
610.767	1	6
610.937	1	6
611.107	1	-3
611.277	1	0
611.446	1	-6
611.616	1	2
611.786	1	4
611.955	1	-1
612.125	1	-1
612.295	1	-4
612.465	1	2
612.634	1	5
612.804	1	0
612.974	1	-18
613.143	1	-2
613.313	1	6
613.483	1	5
613.652	1	-4
613.822	1	0
613.992	1	3
614.162	1	10
614.331	1	0
614.501	1	-4
614.671	1	13
614.840	1	-2
615.010	1	-7
615.180	1	-5
615.349	1	10
615.519	1	-4
615.689	1	1
615.858	1	0
616.028	1	-1
616.198	1	1
616.368	1	-3
616.537	1	-7
616.707	1	-3
616.877	1	-4
617.046	1	4
617.216	1	-4
617.386	1	-3
617.555	1	3
617.725	1	-7
617.895	1	6
618.064	1	-5
618.234	1	-2
618.404	1	2
618.573	1	-4
618.743	1	7
618.913	1	7
619.082	1	3
619.252	1	-6
619.422	1	-7
619.591	1	-1
619.761	1	2
619.931	1	6
620.100	1	2
620.270	1	0
620.440	1	1
620.609	1	11
620.779	1	-7
620.949	1	-4
621.118	1	0
621.288	1	7
621.458	1	-6
621.627	1	0
621.797	1	-4
621.967	1	-1
622.136	1	13
622.306	1	-7
622.476	1	6
622.645	1	6
622.815	1	20
622.985	1	5
623.154	1	7
623.324	1	-10
623.494	1	13
623.663	1	-10
623.833	1	11
624.002	1	-8
624.172	1	-3
624.342	1	15
624.511	1	-4
624.681	1	0
624.851	1	-11
625.020	1	2
625.190	1	1
625.360	1	-6
625.529	1	-7
625.699	1	-1
625.869	1	7
626.038	1	-7
626.208	1	4
626.377	1	3
626.547	1	-5
626.717	1	-4
626.886	1	3
627.056	1	-7
627.226	1	-4
627.395	1	3
627.565	1	-5
627.735	1	3
627.904	1	0
628.074	1	-2
628.243	1	-1
628.413	1	0
628.583	1	-11
628.752	1	-1
628.922	1	5
629.091	1	1
629.261	1	8
629.431	1	-5
629.600	1	5
629.770	1	-6
629.940	1	6
630.109	1	-14
630.279	1	-4
630.448	1	-12
630.618	1	0
630.788	1	11
630.957	1	-2
631.127	1	-1
631.297	1	3
631.466	1	0
631.636	1	-10
631.805	1	-4
631.975	1	15
632.145	1	3
632.314	1	0
632.484	1	-5
632.653	1	-1
632.823	1	-2
632.993	1	-1
633.162	1	-1
633.332	1	6
633.501	1	0
633.671	1	1
633.841	1	-9
634.010	1	-5
634.180	1	-2
634.349	1	5
634.519	1	3
634.689	1	-7
634.858	1	-9
635.028	1	1
635.197	1	6
635.367	1	-4
635.537	1	-3
635.706	1	1
635.876	1	-1
636.045	1	8
636.215	1	-4
636.384	1	6
636.554	1	10
636.724	1	6
636.893	1	0
637.063	1	-2
637.232	1	-2
637.402	1	4
637.572	1	-4
637.741	1	6
637.911	1	-3
638.080	1	4
638.250	1	4
638.419	1	4
638.589	1	-5
638.759	1	-9
638.928	1	-6
639.098	1	6
639.267	1	9
639.437	1	9
639.606	1	3
639.776	1	-5
639.946	1	6
640.115	1	-6
640.285	1	2
640.454	1	-8
640.624	1	0
640.793	1	8
640.963	1	-7
641.132	1	6
641.302	1	-4
641.472	1	8
641.641	1	-20
641.811	1	1
641.980	1	4
642.150	1	-13
642.319	1	4
642.489	1	8
642.659	1	7
642.828	1	-7
642.998	1	2
643.167	1	-3
643.337	1	-7
643.506	1	-11
643.676	1	1
643.845	1	-1
644.015	1	9
644.184	1	2
644.354	1	-4
644.524	1	-5
644.693	1	4
644.863	1	-4
645.032	1	-4
645.202	1	3
645.371	1	-2
645.541	1	-5
645.710	1	7
645.880	1	6
646.049	1	-4
646.219	1	0
646.388	1	-5
646.558	1	1
646.728	1	0
646.897	1	13
647.067	1	0
647.236	1	8
647.406	1	-13
647.575	1	-3
647.745	1	4
647.914	1	3
648.084	1	-5
648.253	1	8
648.423	1	-12
648.592	1	1
648.762	1	6
648.931	1	13
649.101	1	0
649.270	1	-1
649.440	1	-4
649.610	1	8
649.779	1	2
649.949	1	-4
650.118	1	14
650.288	1	0
650.457	1	13
650.627	1	-4
650.796	1	2
650.966	1	2
651.135	1	-14
651.305	1	2
651.474	1	-2
651.644	1	13
651.813	1	3
651.983	1	-1
652.152	1	-1
652.322	1	0
652.491	1	6
652.661	1	-7
652.830	1	1
653.000	1	-4
653.169	1	4
653.339	1	7
653.508	1	4
653.678	1	6
653.847	1	8
654.017	1	-9
654.186	1	-6
654.356	1	-3
654.525	1	7
654.695	1	10
654.864	1	1
655.034	1	5
655.203	1	-7
655.373	1	1
655.542	1	0
655.712	1	6
655.881	1	-6
656.051	1	8
656.220	1	-1
656.390	1	-2
656.559	1	2
656.729	1	3
656.898	1	-3
657.068	1	-3
657.237	1	-11
657.406	1	4
657.576	1	3
657.745	1	-6
657.915	1	7
658.084	1	-2
658.254	1	-7
658.423	1	8
658.593	1	10
658.762	1	-4
658.932	1	2
659.101	1	-4
659.271	1	-1
659.440	1	-2
659.610	1	-2
659.779	1	6
659.949	1	-4
660.118	1	0
660.288	1	8
660.457	1	-4
660.626	1	3
660.796	1	-10
660.965	1	12
661.135	1	-4
661.304	1	1
661.474	1	-8
661.643	1	5
661.813	1	13
661.982	1	17
662.152	1	2
662.321	1	-1
662.491	1	3
662.660	1	13
662.829	1	-5
662.999	1	-11
663.168	1	3
663.338	1	6
663.507	1	12
663.677	1	11
663.846	1	-9
664.016	1	-13
664.185	1	2
664.354	1	0
664.524	1	-4
664.693	1	14
664.863	1	-1
665.032	1	-5
665.202	1	2
665.371	1	-1
665.541	1	-5
665.710	1	-5
665.879	1	-11
666.049	1	-6
666.218	1	-3
666.388	1	5
666.557	1	-2
666.727	1	-5
666.896	1	0
667.065	1	7
667.235	1	1
667.404	1	4
667.574	1	4
667.743	1	1
667.913	1	-6
668.082	1	12
668.251	1	-7
668.421	1	6
668.590	1	-9
668.760	1	-8
668.929	1	-7
669.099	1	5
669.268	1	-10
669.437	1	11
669.607	1	-6
669.776	1	5
669.946	1	0
670.115	1	12
670.285	1	10
670.454	1	15
670.623	1	1
670.793	1	-2
670.962	1	-2
671.132	1	11
671.301	1	1
671.470	1	-6
671.640	1	3
671.809	1	-3
671.979	1	-4
672.148	1	7
672.317	1	8
672.487	1	10
672.656	1	-2
672.826	1	-2
672.995	1	6
673.164	1	2
673.334	1	3
673.503	1	0
673.673	1	1
673.842	1	-2
674.011	1	-1
674.181	1	11
674.350	1	0
674.520	1	2
674.689	1	-12
674.858	1	5
675.028	1	-4
675.197	1	-7
675.367	1	3
675.536	1	5
675.705	1	8
675.875	1	-7
676.044	1	2
676.214	1	3
676.383	1	1
676.552	1	2
676.722	1	-3
676.891	1	12
677.060	1	-9
677.230	1	-4
677.399	1	-8
677.569	1	1
677.738	1	2
677.907	1	7
678.077	1	0
678.246	1	-6
678.416	1	3
678.585	1	2
678.754	1	-4
678.924	1	2
679.093	1	3
679.262	1	6
679.432	1	-3
679.601	1	-1
679.771	1	-5
679.940	1	-5
680.109	1	8
680.279	1	-1
680.448	1	3
680.617	1	0
680.787	1	-4
680.956	1	0
681.125	1	3
681.295	1	5
681.464	1	-3
681.634	1	6
681.803	1	-7
681.972	1	-8
682.142	1	3
682.311	1	7
682.480	1	7
682.650	1	1
682.819	1	-1
682.988	1	-3
683.158	1	-4
683.327	1	-9
683.496	1	0
683.666	1	-9
683.835	1	-2
684.004	1	0
684.174	1	2
684.343	1	-2
684.512	1	1
684.682	1	-3
684.851	1	3
685.021	1	-6
685.190	1	-1
685.359	1	7
685.529	1	-5
685.698	1	3
685.867	1	5
686.037	1	2
686.206	1	-10
686.375	1	12
686.545	1	-9
686.714	1	-5
686.883	1	-10
687.053	1	4
687.222	1	-1
687.391	1	6
687.561	1	3
687.730	1	-9
687.899	1	-2
688.069	1	8
688.238	1	8
688.407	1	-7
688.577	1	-3
688.746	1	-3
