340.368	1	-1
340.539	1	-14
340.710	1	-8
340.881	1	-14
341.052	1	2
341.223	1	-13
341.394	1	-2
341.565	1	-19
341.737	1	2
341.908	1	0
342.079	1	-11
342.250	1	-6
342.421	1	1
342.592	1	4
342.763	1	9
342.934	1	-8
343.105	1	1
343.276	1	3
343.447	1	-9
343.618	1	5
343.789	1	0
343.960	1	-2
344.131	1	7
344.302	1	-7
344.473	1	-4
344.644	1	2
344.815	1	-7
344.986	1	5
345.157	1	0
345.328	1	1
345.499	1	3
345.670	1	-9
345.841	1	6
346.012	1	-2
346.183	1	-8
346.354	1	-4
346.526	1	-2
346.697	1	0
346.868	1	4
347.039	1	5
347.210	1	-3
347.381	1	-3
347.552	1	-6
347.723	1	-1
347.894	1	-5
348.065	1	-1
348.236	1	2
348.407	1	6
348.578	1	-2
348.749	1	-11
348.920	1	-8
349.091	1	-14
349.262	1	-6
349.433	1	-10
349.604	1	2
349.775	1	15
349.946	1	-11
350.117	1	5
350.288	1	2
350.459	1	6
350.630	1	1
350.801	1	5
350.972	1	-1
351.143	1	-5
351.314	1	-4
351.485	1	2
351.656	1	5
351.827	1	0
351.998	1	-5
352.169	1	-8
352.340	1	-1
352.511	1	-3
352.682	1	2
352.853	1	-6
353.024	1	-4
353.195	1	1
353.366	1	6
353.537	1	0
353.708	1	-4
353.879	1	-5
354.050	1	-7
354.221	1	-11
354.392	1	-6
354.563	1	3
354.734	1	-14
354.905	1	4
355.076	1	-7
355.247	1	2
355.418	1	-9
355.589	1	-1
355.760	1	-12
355.931	1	-1
356.102	1	3
356.273	1	-2
356.444	1	-4
356.615	1	-2
356.785	1	5
356.956	1	-2
357.127	1	-3
357.298	1	9
357.469	1	-2
357.640	1	2
357.811	1	0
357.982	1	3
358.153	1	2
358.324	1	-5
358.495	1	3
358.666	1	-2
358.837	1	-9
359.008	1	-12
359.179	1	-2
359.350	1	-6
359.521	1	2
359.692	1	3
359.863	1	-2
360.034	1	-8
360.205	1	-7
360.376	1	-1
360.547	1	3
360.718	1	4
360.889	1	-12
361.060	1	-4
361.231	1	1
361.401	1	4
361.572	1	5
361.743	1	-4
361.914	1	5
362.085	1	0
362.256	1	5
362.427	1	7
362.598	1	-4
362.769	1	-11
362.940	1	-1
363.111	1	-4
363.282	1	2
363.453	1	-2
363.624	1	10
363.795	1	3
363.966	1	1
364.137	1	6
364.308	1	3
364.478	1	2
364.649	1	2
364.820	1	-8
364.991	1	6
365.162	1	10
365.333	1	3
365.504	1	3
365.675	1	-3
365.846	1	8
366.017	1	-5
366.188	1	7
366.359	1	6
366.530	1	3
366.701	1	0
366.871	1	0
367.042	1	9
367.213	1	19
367.384	1	8
367.555	1	10
367.726	1	6
367.897	1	2
368.068	1	4
368.239	1	8
368.410	1	19
368.581	1	-3
368.752	1	7
368.923	1	4
369.093	1	-3
369.264	1	8
369.435	1	7
369.606	1	11
369.777	1	6
369.948	1	8
370.119	1	0
370.290	1	1
370.461	1	19
370.632	1	3
370.803	1	0
370.973	1	16
371.144	1	0
371.315	1	2
371.486	1	7
371.657	1	14
371.828	1	4
371.999	1	2
372.170	1	11
372.341	1	12
372.512	1	1
372.682	1	3
372.853	1	7
373.024	1	5
373.195	1	4
373.366	1	16
373.537	1	-2
373.708	1	1
373.879	1	-1
374.050	1	9
374.220	1	17
374.391	1	11
374.562	1	14
374.733	1	4
374.904	1	8
375.075	1	3
375.246	1	8
375.417	1	8
375.588	1	8
375.758	1	3
375.929	1	12
376.100	1	7
376.271	1	3
376.442	1	3
376.613	1	-7
376.784	1	7
376.955	1	-10
377.125	1	3
377.296	1	-6
377.467	1	4
377.638	1	5
377.809	1	5
377.980	1	5
378.151	1	11
378.321	1	-9
378.492	1	-4
378.663	1	-2
378.834	1	6
379.005	1	11
379.176	1	-2
379.347	1	8
379.518	1	-1
379.688	1	7
379.859	1	3
380.030	1	0
380.201	1	5
380.372	1	1
380.543	1	2
380.714	1	3
380.884	1	3
381.055	1	7
381.226	1	-4
381.397	1	2
381.568	1	13
381.739	1	1
381.910	1	0
382.080	1	4
382.251	1	2
382.422	1	0
382.593	1	-4
382.764	1	-5
382.935	1	-14
383.105	1	-2
383.276	1	9
383.447	1	-13
383.618	1	-1
383.789	1	1
383.960	1	-7
384.130	1	2
384.301	1	-6
384.472	1	-2
384.643	1	7
384.814	1	1
384.985	1	-4
385.156	1	-2
385.326	1	2
385.497	1	4
385.668	1	7
385.839	1	-6
386.010	1	-6
386.180	1	6
386.351	1	-9
386.522	1	8
386.693	1	-16
386.864	1	10
387.035	1	3
387.205	1	2
387.376	1	-2
387.547	1	-9
387.718	1	0
387.889	1	-9
388.060	1	9
388.230	1	8
388.401	1	1
388.572	1	2
388.743	1	-3
388.914	1	4
389.084	1	-2
389.255	1	-13
389.426	1	-10
389.597	1	-4
389.768	1	3
389.939	1	6
390.109	1	-3
390.280	1	3
390.451	1	-11
390.622	1	1
390.793	1	5
390.963	1	9
391.134	1	4
391.305	1	-2
391.476	1	-8
391.647	1	-4
391.817	1	1
391.988	1	1
392.159	1	-1
392.330	1	0
392.501	1	2
392.671	1	-4
392.842	1	-10
393.013	1	-4
393.184	1	-1
393.355	1	7
393.525	1	-5
393.696	1	9
393.867	1	7
394.038	1	2
394.208	1	1
394.379	1	3
394.550	1	7
394.721	1	-9
394.892	1	-3
395.062	1	-1
395.233	1	-5
395.404	1	-3
395.575	1	0
395.746	1	9
395.916	1	-2
396.087	1	-5
396.258	1	-2
396.429	1	5
396.599	1	-8
396.770	1	6
396.941	1	-1
397.112	1	5
397.283	1	0
397.453	1	4
397.624	1	1
397.795	1	1
397.966	1	4
398.136	1	-7
398.307	1	5
398.478	1	-2
398.649	1	-8
398.819	1	1
398.990	1	5
399.161	1	17
399.332	1	-4
399.503	1	-3
399.673	1	4
399.844	1	-6
400.015	1	-2
400.186	1	-7
400.356	1	-8
400.527	1	-4
400.698	1	1
400.869	1	2
401.039	1	7
401.210	1	4
401.381	1	-6
401.552	1	-10
401.722	1	-1
401.893	1	1
402.064	1	-3
402.235	1	-6
402.405	1	-5
402.576	1	-6
402.747	1	-3
402.918	1	10
403.088	1	0
403.259	1	3
403.430	1	-6
403.601	1	1
403.771	1	-1
403.942	1	12
404.113	1	-7
404.284	1	10
404.454	1	4
404.625	1	0
404.796	1	-1
404.967	1	1
405.137	1	12
405.308	1	-4
405.479	1	6
405.649	1	0
405.820	1	-10
405.991	1	-7
406.162	1	0
406.332	1	-4
406.503	1	1
406.674	1	-8
406.845	1	3
407.015	1	3
407.186	1	-4
407.357	1	-12
407.527	1	-14
407.698	1	3
407.869	1	-5
408.040	1	-6
408.210	1	-4
408.381	1	3
408.552	1	-3
408.722	1	-12
408.893	1	0
409.064	1	-1
409.235	1	-11
409.405	1	3
409.576	1	-3
409.747	1	0
409.917	1	0
410.088	1	11
410.259	1	4
410.430	1	11
410.600	1	-7
410.771	1	-5
410.942	1	8
411.112	1	4
411.283	1	8
411.454	1	-7
411.625	1	-4
411.795	1	0
411.966	1	2
412.137	1	-4
412.307	1	1
412.478	1	12
412.649	1	3
412.819	1	-2
412.990	1	-4
413.161	1	-3
413.332	1	9
413.502	1	-2
413.673	1	8
413.844	1	4
414.014	1	-6
414.185	1	0
414.356	1	-1
414.526	1	-3
414.697	1	1
414.868	1	0
415.038	1	9
415.209	1	-2
415.380	1	3
415.550	1	-1
415.721	1	0
415.892	1	0
416.063	1	-5
416.233	1	-1
416.404	1	-5
416.575	1	8
416.745	1	-3
416.916	1	-17
417.087	1	-1
417.257	1	-3
417.428	1	-2
417.599	1	12
417.769	1	3
417.940	1	15
418.111	1	-3
418.281	1	7
418.452	1	-5
418.623	1	-10
418.793	1	-2
418.964	1	-15
419.135	1	-8
419.305	1	6
419.476	1	7
419.647	1	-1
419.817	1	5
419.988	1	-2
420.159	1	-3
420.329	1	-7
420.500	1	-9
420.671	1	10
420.841	1	11
421.012	1	6
421.183	1	0
421.353	1	-3
421.524	1	-14
421.695	1	0
421.865	1	-4
422.036	1	-2
422.206	1	-3
422.377	1	0
422.548	1	-5
422.718	1	11
422.889	1	-6
423.060	1	5
423.230	1	-2
423.401	1	0
423.572	1	-1
423.742	1	7
423.913	1	3
424.084	1	-3
424.254	1	7
424.425	1	-2
424.595	1	2
424.766	1	-1
424.937	1	4
425.107	1	-8
425.278	1	12
425.449	1	-5
425.619	1	-10
425.790	1	-11
425.961	1	-1
426.131	1	-7
426.302	1	-3
426.472	1	-2
426.643	1	2
426.814	1	1
426.984	1	-7
427.155	1	-6
427.326	1	4
427.496	1	1
427.667	1	6
427.837	1	-5
428.008	1	0
428.179	1	-11
428.349	1	-9
428.520	1	-1
428.691	1	4
428.861	1	-7
429.032	1	5
429.202	1	3
429.373	1	-1
429.544	1	-2
429.714	1	-5
429.885	1	-4
430.055	1	-1
430.226	1	-1
430.397	1	-4
430.567	1	-8
430.738	1	-5
430.909	1	8
431.079	1	-11
431.250	1	2
431.420	1	-4
431.591	1	-1
431.762	1	-6
431.932	1	-4
432.103	1	-6
432.273	1	-4
432.444	1	3
432.615	1	-7
432.785	1	5
432.956	1	-8
433.126	1	-3
433.297	1	0
433.468	1	-20
433.638	1	-1
433.809	1	10
433.979	1	4
434.150	1	8
434.320	1	3
434.491	1	2
434.662	1	0
434.832	1	-3
435.003	1	-3
435.173	1	-4
435.344	1	-9
435.515	1	14
435.685	1	-7
435.856	1	0
436.026	1	-3
436.197	1	0
436.368	1	-4
436.538	1	-15
436.709	1	-8
436.879	1	-4
437.050	1	-12
437.220	1	8
437.391	1	3
437.562	1	-2
437.732	1	2
437.903	1	-6
438.073	1	-3
438.244	1	1
438.414	1	-12
438.585	1	-4
438.756	1	-1
438.926	1	2
439.097	1	-6
439.267	1	-2
439.438	1	-6
439.608	1	-2
439.779	1	-1
439.949	1	5
440.120	1	-3
440.291	1	-1
440.461	1	1
440.632	1	6
440.802	1	-7
440.973	1	-5
441.143	1	13
441.314	1	1
441.485	1	2
441.655	1	-10
441.826	1	8
441.996	1	4
442.167	1	-6
442.337	1	0
442.508	1	-9
442.678	1	-5
442.849	1	10
443.019	1	-3
443.190	1	6
443.361	1	-3
443.531	1	0
443.702	1	-7
443.872	1	3
444.043	1	-2
444.213	1	-7
444.384	1	-7
444.554	1	8
444.725	1	-3
444.895	1	-4
445.066	1	1
445.237	1	-6
445.407	1	7
445.578	1	-8
445.748	1	-7
445.919	1	-14
446.089	1	5
446.260	1	-3
446.430	1	-2
446.601	1	-6
446.771	1	3
446.942	1	1
447.112	1	-13
447.283	1	-6
447.453	1	-7
447.624	1	8
447.794	1	-1
447.965	1	-2
448.135	1	-3
448.306	1	2
448.477	1	-2
448.647	1	-7
448.818	1	-4
448.988	1	-10
449.159	1	-8
449.329	1	-7
449.500	1	-8
449.670	1	-1
449.841	1	3
450.011	1	8
450.182	1	-6
450.352	1	-5
450.523	1	-10
450.693	1	-21
450.864	1	-4
451.034	1	-10
451.205	1	9
451.375	1	-3
451.546	1	1
451.716	1	-4
451.887	1	-12
452.057	1	-9
452.228	1	0
452.398	1	1
452.569	1	-4
452.739	1	1
452.910	1	-10
453.080	1	2
453.251	1	-6
453.421	1	0
453.592	1	-8
453.762	1	5
453.933	1	-1
454.103	1	4
454.274	1	0
454.444	1	-12
454.615	1	4
454.785	1	-9
454.956	1	1
455.126	1	-5
455.297	1	-1
455.467	1	4
455.638	1	-2
455.808	1	1
455.979	1	1
456.149	1	1
456.320	1	2
456.490	1	-1
456.661	1	-9
456.831	1	12
457.001	1	-2
457.172	1	-9
457.342	1	-4
457.513	1	6
457.683	1	1
457.854	1	-1
458.024	1	-10
458.195	1	-6
458.365	1	-11
458.536	1	9
458.706	1	-9
458.877	1	-2
459.047	1	4
459.218	1	-4
459.388	1	1
459.559	1	-3
459.729	1	4
459.899	1	-6
460.070	1	-1
460.240	1	3
460.411	1	-9
460.581	1	16
460.752	1	-6
460.922	1	1
461.093	1	-4
461.263	1	-1
461.434	1	-4
461.604	1	-7
461.775	1	4
461.945	1	3
462.115	1	3
462.286	1	-5
462.456	1	-10
462.627	1	4
462.797	1	-4
462.968	1	2
463.138	1	-10
463.309	1	-4
463.479	1	0
463.649	1	-4
463.820	1	1
463.990	1	-7
464.161	1	-3
464.331	1	-4
464.502	1	8
464.672	1	-4
464.843	1	-3
465.013	1	3
465.183	1	-2
465.354	1	-2
465.524	1	-2
465.695	1	-7
465.865	1	3
466.036	1	-8
466.206	1	5
466.376	1	-13
466.547	1	-2
466.717	1	4
466.888	1	-5
467.058	1	-4
467.229	1	-5
467.399	1	4
467.569	1	5
467.740	1	-3
467.910	1	-1
468.081	1	2
468.251	1	-8
468.422	1	2
468.592	1	5
468.762	1	1
468.933	1	-4
469.103	1	-8
469.274	1	8
469.444	1	-12
469.614	1	7
469.785	1	-19
469.955	1	-6
470.126	1	-25
470.296	1	-1
470.467	1	-7
470.637	1	-9
470.807	1	-2
470.978	1	-3
471.148	1	-1
471.319	1	-5
471.489	1	-2
471.659	1	-4
471.830	1	-8
472.000	1	-11
472.171	1	2
472.341	1	0
472.511	1	-15
472.682	1	-7
472.852	1	-3
473.023	1	-2
473.193	1	5
473.363	1	-9
473.534	1	6
473.704	1	-4
473.875	1	8
474.045	1	-6
474.215	1	9
474.386	1	9
474.556	1	3
474.727	1	-9
474.897	1	-2
475.067	1	-3
475.238	1	-3
475.408	1	4
475.578	1	-11
475.749	1	-7
475.919	1	-5
476.090	1	2
476.260	1	-2
476.430	1	-3
476.601	1	-2
476.771	1	-3
476.942	1	4
477.112	1	-1
477.282	1	-2
477.453	1	-9
477.623	1	-11
477.793	1	-7
477.964	1	8
478.134	1	-9
478.305	1	3
478.475	1	-1
478.645	1	7
478.816	1	-9
478.986	1	0
479.156	1	3
479.327	1	-6
479.497	1	-7
479.667	1	-3
479.838	1	-3
480.008	1	-9
480.179	1	-8
480.349	1	-16
480.519	1	0
480.690	1	1
480.860	1	1
481.030	1	-9
481.201	1	-5
481.371	1	-3
481.541	1	-7
481.712	1	-12
481.882	1	10
482.053	1	0
482.223	1	-4
482.393	1	-4
482.564	1	-5
482.734	1	-7
482.904	1	-5
483.075	1	5
483.245	1	1
483.415	1	7
483.586	1	-5
483.756	1	0
483.926	1	1
484.097	1	-2
484.267	1	-5
484.437	1	-10
484.608	1	6
484.778	1	11
484.948	1	-12
485.119	1	-12
485.289	1	-5
485.459	1	5
485.630	1	-2
485.800	1	-9
485.970	1	-7
486.141	1	-4
486.311	1	2
486.481	1	0
486.652	1	9
486.822	1	7
486.992	1	6
487.163	1	2
487.333	1	3
487.503	1	-3
487.674	1	-2
487.844	1	-8
488.014	1	-5
488.185	1	-5
488.355	1	1
488.525	1	-5
488.696	1	3
488.866	1	-8
489.036	1	4
489.207	1	-6
489.377	1	-5
489.547	1	0
489.718	1	-3
489.888	1	-4
490.058	1	1
490.228	1	3
490.399	1	0
490.569	1	2
490.739	1	-7
490.910	1	-4
491.080	1	12
491.250	1	-4
491.421	1	5
491.591	1	-12
491.761	1	1
491.932	1	-4
492.102	1	-5
492.272	1	-1
492.442	1	1
492.613	1	-12
492.783	1	7
492.953	1	-3
493.124	1	6
493.294	1	-7
493.464	1	9
493.635	1	7
493.805	1	-8
493.975	1	-8
494.145	1	1
494.316	1	4
494.486	1	6
494.656	1	-5
494.827	1	9
494.997	1	-4
495.167	1	-1
495.337	1	7
495.508	1	-7
495.678	1	-8
495.848	1	9
496.019	1	1
496.189	1	6
496.359	1	-7
496.529	1	2
496.700	1	-1
496.870	1	3
497.040	1	-4
497.211	1	-11
497.381	1	-9
497.551	1	-1
497.721	1	-2
497.892	1	-5
498.062	1	-8
498.232	1	4
498.403	1	-1
498.573	1	-5
498.743	1	0
498.913	1	0
499.084	1	-8
499.254	1	-6
499.424	1	-2
499.594	1	7
499.765	1	-4
499.935	1	0
500.105	1	3
500.275	1	3
500.446	1	-5
500.616	1	-12
500.786	1	-4
500.956	1	3
501.127	1	0
501.297	1	1
501.467	1	-15
501.638	1	1
501.808	1	4
501.978	1	7
502.148	1	1
502.319	1	4
502.489	1	-3
502.659	1	2
502.829	1	-1
503.000	1	-3
503.170	1	7
503.340	1	7
503.510	1	5
503.681	1	-8
503.851	1	0
504.021	1	-2
504.191	1	4
504.362	1	-2
504.532	1	7
504.702	1	-4
504.872	1	2
505.042	1	-8
505.213	1	1
505.383	1	-5
505.553	1	-5
505.723	1	3
505.894	1	-1
506.064	1	3
506.234	1	7
506.404	1	-2
506.575	1	4
506.745	1	-3
506.915	1	5
507.085	1	-10
507.256	1	-1
507.426	1	4
507.596	1	4
507.766	1	4
507.936	1	3
508.107	1	-4
508.277	1	0
508.447	1	6
508.617	1	-6
508.788	1	1
508.958	1	-20
509.128	1	-3
509.298	1	1
509.468	1	1
509.639	1	-11
509.809	1	8
509.979	1	-11
510.149	1	-2
510.319	1	-3
510.490	1	-1
510.660	1	-11
510.830	1	-6
511.000	1	-16
511.171	1	-3
511.341	1	-2
511.511	1	-3
511.681	1	7
511.851	1	-5
512.022	1	-8
512.192	1	9
512.362	1	-6
512.532	1	-5
512.702	1	-10
512.873	1	5
513.043	1	-1
513.213	1	-3
513.383	1	-16
513.553	1	-11
513.724	1	-3
513.894	1	-3
514.064	1	13
514.234	1	-3
514.404	1	-9
514.575	1	-5
514.745	1	-8
514.915	1	5
515.085	1	-6
515.255	1	-5
515.425	1	3
515.596	1	4
515.766	1	-6
515.936	1	-7
516.106	1	1
516.276	1	-10
516.447	1	15
516.617	1	-1
516.787	1	3
516.957	1	1
517.127	1	2
517.297	1	-7
517.468	1	5
517.638	1	-2
517.808	1	-1
517.978	1	4
518.148	1	12
518.319	1	-1
518.489	1	-6
518.659	1	-7
518.829	1	3
518.999	1	-5
519.169	1	3
519.340	1	5
519.510	1	-3
519.680	1	9
519.850	1	6
520.020	1	-1
520.190	1	1
520.361	1	2
520.531	1	2
520.701	1	-1
520.871	1	1
521.041	1	5
521.211	1	-11
521.382	1	-4
521.552	1	3
521.722	1	-4
521.892	1	0
522.062	1	9
522.232	1	1
522.402	1	-1
522.573	1	-9
522.743	1	-2
522.913	1	10
523.083	1	0
523.253	1	-5
523.423	1	-3
523.593	1	-2
523.764	1	5
523.934	1	-1
524.104	1	-10
524.274	1	-3
524.444	1	-1
524.614	1	-4
524.784	1	-4
524.955	1	-6
525.125	1	-2
525.295	1	2
525.465	1	5
525.635	1	4
525.805	1	-4
525.975	1	2
526.146	1	-2
526.316	1	5
526.486	1	-4
526.656	1	-5
526.826	1	-10
526.996	1	0
527.166	1	-4
527.337	1	0
527.507	1	0
527.677	1	-1
527.847	1	3
528.017	1	-12
528.187	1	-2
528.357	1	-2
528.527	1	3
528.698	1	3
528.868	1	3
529.038	1	0
529.208	1	3
529.378	1	1
529.548	1	0
529.718	1	2
529.888	1	7
530.058	1	0
530.229	1	8
530.399	1	4
530.569	1	-8
530.739	1	11
530.909	1	-2
531.079	1	0
531.249	1	-4
531.419	1	5
531.589	1	-3
531.760	1	3
531.930	1	7
532.100	1	-1
532.270	1	-10
532.440	1	-4
532.610	1	-4
532.780	1	-4
532.950	1	-3
533.120	1	0
533.290	1	6
533.461	1	2
533.631	1	5
533.801	1	11
533.971	1	-7
534.141	1	-13
534.311	1	9
534.481	1	-18
534.651	1	-5
534.821	1	-1
534.991	1	-4
535.162	1	-10
535.332	1	4
535.502	1	-15
535.672	1	9
535.842	1	8
536.012	1	-3
536.182	1	0
536.352	1	-2
536.522	1	-1
536.692	1	7
536.862	1	5
537.032	1	5
537.203	1	-8
537.373	1	-8
537.543	1	-1
537.713	1	3
537.883	1	-4
538.053	1	-4
538.223	1	1
538.393	1	14
538.563	1	1
538.733	1	5
538.903	1	-1
539.073	1	-5
539.243	1	6
539.413	1	-6
539.584	1	-7
539.754	1	5
539.924	1	15
540.094	1	-1
540.264	1	-12
540.434	1	3
540.604	1	0
540.774	1	7
540.944	1	-3
541.114	1	-1
541.284	1	3
541.454	1	-9
541.624	1	13
541.794	1	-5
541.964	1	0
542.134	1	-2
542.305	1	9
542.475	1	-3
542.645	1	-1
542.815	1	-5
542.985	1	6
543.155	1	-8
543.325	1	4
543.495	1	-3
543.665	1	11
543.835	1	2
544.005	1	12
544.175	1	-18
544.345	1	0
544.515	1	-9
544.685	1	-1
544.855	1	0
545.025	1	-4
545.195	1	-9
545.365	1	3
545.535	1	12
545.705	1	2
545.875	1	-14
546.045	1	-14
546.216	1	7
546.386	1	11
546.556	1	-3
546.726	1	-12
546.896	1	4
547.066	1	-2
547.236	1	-5
547.406	1	-4
547.576	1	11
547.746	1	-12
547.916	1	-16
548.086	1	-1
548.256	1	-1
548.426	1	-3
548.596	1	5
548.766	1	5
548.936	1	3
549.106	1	-9
549.276	1	-6
549.446	1	-1
549.616	1	-1
549.786	1	-11
549.956	1	-1
550.126	1	2
550.296	1	-1
550.466	1	3
550.636	1	13
550.806	1	-8
550.976	1	5
551.146	1	-1
551.316	1	2
551.486	1	-9
551.656	1	5
551.826	1	9
551.996	1	16
552.166	1	-9
552.336	1	-3
552.506	1	13
552.676	1	5
552.846	1	2
553.016	1	6
553.186	1	6
553.356	1	-8
553.526	1	0
553.696	1	3
553.866	1	-3
554.036	1	-3
554.206	1	0
554.376	1	7
554.546	1	5
554.716	1	4
554.886	1	4
555.056	1	7
555.226	1	-3
555.396	1	-8
555.566	1	3
555.736	1	-3
555.906	1	9
556.076	1	3
556.246	1	1
556.416	1	-9
556.586	1	0
556.756	1	2
556.926	1	2
557.096	1	-6
557.266	1	0
557.436	1	4
557.606	1	4
557.776	1	1
557.946	1	11
558.116	1	-7
558.286	1	0
558.456	1	-6
558.626	1	1
558.796	1	-8
558.966	1	3
559.136	1	6
559.306	1	-10
559.476	1	-1
559.646	1	-3
559.816	1	-8
559.986	1	0
560.155	1	1
560.325	1	-10
560.495	1	-3
560.665	1	2
560.835	1	-5
561.005	1	-4
561.175	1	5
561.345	1	1
561.515	1	5
561.685	1	-6
561.855	1	-7
562.025	1	-5
562.195	1	-1
562.365	1	-1
562.535	1	-5
562.705	1	-2
562.875	1	0
563.045	1	-6
563.215	1	6
563.385	1	-13
563.555	1	-1
563.725	1	-1
563.895	1	2
564.064	1	-4
564.234	1	-1
564.404	1	-1
564.574	1	0
564.744	1	0
564.914	1	5
565.084	1	-9
565.254	1	10
565.424	1	5
565.594	1	4
565.764	1	-9
565.934	1	2
566.104	1	2
566.274	1	0
566.444	1	-9
566.614	1	2
566.783	1	-9
566.953	1	8
567.123	1	-2
567.293	1	14
567.463	1	-3
567.633	1	5
567.803	1	-10
567.973	1	-6
568.143	1	3
568.313	1	0
568.483	1	6
568.653	1	-9
568.823	1	0
568.993	1	2
569.162	1	-1
569.332	1	-1
569.502	1	-6
569.672	1	5
569.842	1	0
570.012	1	2
570.182	1	8
570.352	1	1
570.522	1	-6
570.692	1	-2
570.862	1	-5
571.031	1	-2
571.201	1	5
571.371	1	-7
571.541	1	1
571.711	1	4
571.881	1	7
572.051	1	-7
572.221	1	-2
572.391	1	-13
572.561	1	-8
572.731	1	0
572.900	1	-16
573.070	1	1
573.240	1	-1
573.410	1	6
573.580	1	-4
573.750	1	-6
573.920	1	0
574.090	1	8
574.260	1	9
574.430	1	2
574.599	1	0
574.769	1	-9
574.939	1	-9
575.109	1	4
575.279	1	6
575.449	1	-7
575.619	1	4
575.789	1	-13
575.959	1	0
576.128	1	-8
576.298	1	7
576.468	1	1
576.638	1	-6
576.808	1	5
576.978	1	1
577.148	1	0
577.318	1	6
577.487	1	-3
577.657	1	-8
577.827	1	-11
577.997	1	-2
578.167	1	-5
578.337	1	13
578.507	1	5
578.677	1	0
578.846	1	2
579.016	1	4
579.186	1	5
579.356	1	1
579.526	1	-7
579.696	1	2
579.866	1	-3
580.036	1	-5
580.205	1	1
580.375	1	7
580.545	1	-5
580.715	1	1
580.885	1	-2
581.055	1	-3
581.225	1	-8
581.394	1	-10
581.564	1	0
581.734	1	-5
581.904	1	7
582.074	1	-4
582.244	1	-3
582.414	1	0
582.583	1	5
582.753	1	-5
582.923	1	-3
583.093	1	-11
583.263	1	5
583.433	1	-6
583.603	1	8
583.772	1	3
583.942	1	2
584.112	1	-9
584.282	1	-9
584.452	1	-2
584.622	1	0
584.791	1	-3
584.961	1	-1
585.131	1	-3
585.301	1	-6
585.471	1	13
585.641	1	-11
585.811	1	6
585.980	1	6
586.150	1	-7
586.320	1	-8
586.490	1	7
586.660	1	3
586.830	1	-4
586.999	1	-2
587.169	1	0
587.339	1	-6
587.509	1	-8
587.679	1	6
587.849	1	5
588.018	1	4
588.188	1	5
588.358	1	-8
588.528	1	4
588.698	1	6
588.867	1	2
589.037	1	5
589.207	1	8
589.377	1	9
589.547	1	-6
589.717	1	14
589.886	1	-3
590.056	1	4
590.226	1	4
590.396	1	9
590.566	1	0
590.735	1	-5
590.905	1	-1
591.075	1	0
591.245	1	-2
591.415	1	-4
591.585	1	4
591.754	1	0
591.924	1	-6
592.094	1	-4
592.264	1	6
592.434	1	1
592.603	1	6
592.773	1	-7
592.943	1	-4
593.113	1	-5
593.283	1	4
593.452	1	4
593.622	1	7
593.792	1	0
593.962	1	-1
594.132	1	-1
594.301	1	5
594.471	1	2
594.641	1	-10
594.811	1	5
594.981	1	-5
595.150	1	2
595.320	1	4
595.490	1	4
595.660	1	-4
595.829	1	2
595.999	1	-4
596.169	1	1
596.339	1	-1
596.509	1	6
596.678	1	-7
596.848	1	0
597.018	1	-3
597.188	1	-3
597.358	1	1
597.527	1	-4
597.697	1	-2
597.867	1	-6
598.037	1	-5
598.206	1	0
598.376	1	5
598.546	1	5
598.716	1	4
598.885	1	-9
599.055	1	14
599.225	1	-4
599.395	1	-6
599.565	1	-3
599.734	1	-10
599.904	1	-3
600.074	1	-7
600.244	1	-8
600.413	1	10
600.583	1	19
600.753	1	1
600.923	1	2
601.092	1	2
601.262	1	7
601.432	1	-7
601.602	1	4
601.771	1	9
601.941	1	-1
602.111	1	-2
602.281	1	1
602.451	1	7
602.620	1	-6
602.790	1	-8
602.960	1	-3
603.130	1	3
603.299	1	3
603.469	1	-6
603.639	1	2
603.809	1	2
603.978	1	-10
604.148	1	1
604.318	1	-3
604.487	1	7
604.657	1	-3
604.827	1	0
604.997	1	4
605.166	1	1
605.336	1	-2
605.506	1	-1
605.676	1	-14
605.845	1	-5
606.015	1	-2
606.185	1	3
606.355	1	4
606.524	1	-13
606.694	1	-6
606.864	1	-3
607.034	1	-15
607.203	1	-6
607.373	1	-3
607.543	1	-10
607.712	1	-4
607.882	1	-2
608.052	1	-10
608.222	1	4
608.391	1	5
608.561	1	0
608.731	1	-2
608.901	1	-2
609.070	1	4
609.240	1	-7
609.410	1	7
609.579	1	6
609.749	1	-3
609.919	1	3
610.089	1	-5
610.258	1	-3
610.428	1	-5
610.598	1	-2
610.767	1	-2
610.937	1	3
611.107	1	-5
611.277	1	-3
611.446	1	10
611.616	1	-6
611.786	1	4
611.955	1	-1
612.125	1	-2
612.295	1	-7
612.465	1	9
612.634	1	2
612.804	1	5
612.974	1	-13
613.143	1	10
613.313	1	-5
613.483	1	-8
613.652	1	-3
613.822	1	-2
613.992	1	-9
614.162	1	12
614.331	1	1
614.501	1	-6
614.671	1	0
614.840	1	4
615.010	1	-12
615.180	1	-11
615.349	1	-3
615.519	1	-9
615.689	1	2
615.858	1	5
616.028	1	6
616.198	1	4
616.368	1	-4
616.537	1	-6
616.707	1	0
616.877	1	2
617.046	1	-1
617.216	1	-5
617.386	1	2
617.555	1	-4
617.725	1	-6
617.895	1	-3
618.064	1	-2
618.234	1	-4
618.404	1	6
618.573	1	-7
618.743	1	-7
618.913	1	2
619.082	1	1
619.252	1	-3
619.422	1	-11
619.591	1	-7
619.761	1	6
619.931	1	-7
620.100	1	1
620.270	1	-7
620.440	1	7
620.609	1	6
620.779	1	-3
620.949	1	-1
621.118	1	-2
621.288	1	4
621.458	1	0
621.627	1	4
621.797	1	-5
621.967	1	-8
622.136	1	8
622.306	1	-4
622.476	1	-1
622.645	1	5
622.815	1	7
622.985	1	4
623.154	1	-4
623.324	1	-8
623.494	1	7
623.663	1	5
623.833	1	3
624.002	1	-13
624.172	1	-8
624.342	1	9
624.511	1	-12
624.681	1	7
624.851	1	-10
625.020	1	-7
625.190	1	-1
625.360	1	0
625.529	1	2
625.699	1	0
625.869	1	5
626.038	1	-6
626.208	1	-3
626.377	1	5
626.547	1	3
626.717	1	-4
626.886	1	5
627.056	1	-15
627.226	1	1
627.395	1	3
627.565	1	3
627.735	1	-1
627.904	1	1
628.074	1	-1
628.243	1	2
628.413	1	-5
628.583	1	-3
628.752	1	3
628.922	1	-1
629.091	1	-5
629.261	1	1
629.431	1	-7
629.600	1	8
629.770	1	-5
629.940	1	-2
630.109	1	-6
630.279	1	-10
630.448	1	-11
630.618	1	-1
630.788	1	8
630.957	1	-1
631.127	1	0
631.297	1	-2
631.466	1	6
631.636	1	-8
631.805	1	-3
631.975	1	13
632.145	1	-9
632.314	1	-4
632.484	1	1
632.653	1	0
632.823	1	6
632.993	1	-5
633.162	1	4
633.332	1	2
633.501	1	-4
633.671	1	-3
633.841	1	-8
634.010	1	-4
634.180	1	3
634.349	1	4
634.519	1	-9
634.689	1	-10
634.858	1	-8
635.028	1	-5
635.197	1	3
635.367	1	-4
635.537	1	-15
635.706	1	1
635.876	1	-2
636.045	1	4
636.215	1	-4
636.384	1	-4
636.554	1	6
636.724	1	-6
636.893	1	-11
637.063	1	-5
637.232	1	-9
637.402	1	6
637.572	1	-4
637.741	1	-2
637.911	1	-5
638.080	1	-2
638.250	1	-1
638.419	1	-2
638.589	1	-4
638.759	1	-8
638.928	1	-2
639.098	1	8
639.267	1	13
639.437	1	7
639.606	1	-2
639.776	1	-7
639.946	1	5
640.115	1	-4
640.285	1	2
640.454	1	-8
640.624	1	-5
640.793	1	7
640.963	1	-1
641.132	1	4
641.302	1	-4
641.472	1	1
641.641	1	-3
641.811	1	-3
641.980	1	-2
642.150	1	-13
642.319	1	-3
642.489	1	0
642.659	1	7
642.828	1	-6
642.998	1	1
643.167	1	-11
643.337	1	6
643.506	1	-11
643.676	1	6
643.845	1	-9
644.015	1	5
644.184	1	-1
644.354	1	7
644.524	1	-3
644.693	1	0
644.863	1	-4
645.032	1	1
645.202	1	1
645.371	1	-8
645.541	1	4
645.710	1	-3
645.880	1	5
646.049	1	-8
646.219	1	-5
646.388	1	4
646.558	1	-2
646.728	1	-10
646.897	1	-11
647.067	1	-3
647.236	1	3
647.406	1	-16
647.575	1	4
647.745	1	-7
647.914	1	-5
648.084	1	-7
648.253	1	12
648.423	1	-9
648.592	1	-12
648.762	1	-3
648.931	1	19
649.101	1	-3
649.270	1	-8
649.440	1	6
649.610	1	3
649.779	1	6
649.949	1	-11
650.118	1	19
650.288	1	2
650.457	1	-4
650.627	1	-4
650.796	1	-5
650.966	1	-4
651.135	1	-12
651.305	1	4
651.474	1	0
651.644	1	11
651.813	1	-1
651.983	1	-1
652.152	1	6
652.322	1	-10
652.491	1	-2
652.661	1	-9
652.830	1	7
653.000	1	2
653.169	1	-4
653.339	1	9
653.508	1	3
653.678	1	2
653.847	1	9
654.017	1	-8
654.186	1	-9
654.356	1	-4
654.525	1	-2
654.695	1	-3
654.864	1	-5
655.034	1	-3
655.203	1	-3
655.373	1	2
655.542	1	-3
655.712	1	0
655.881	1	-5
656.051	1	-7
656.220	1	0
656.390	1	-5
656.559	1	-4
656.729	1	9
656.898	1	-16
657.068	1	1
657.237	1	-5
657.406	1	8
657.576	1	0
657.745	1	-3
657.915	1	-8
658.084	1	3
658.254	1	-13
658.423	1	3
658.593	1	6
658.762	1	-1
658.932	1	3
659.101	1	6
659.271	1	2
659.440	1	-3
659.610	1	-8
659.779	1	-3
659.949	1	-4
660.118	1	5
660.288	1	13
660.457	1	1
660.626	1	-4
660.796	1	-12
660.965	1	6
661.135	1	-6
661.304	1	-3
661.474	1	-7
661.643	1	-6
661.813	1	2
661.982	1	12
662.152	1	1
662.321	1	13
662.491	1	-13
662.660	1	2
662.829	1	-5
662.999	1	-14
663.168	1	-1
663.338	1	3
663.507	1	-3
663.677	1	4
663.846	1	-1
664.016	1	0
664.185	1	7
664.354	1	-4
664.524	1	-6
664.693	1	6
664.863	1	-6
665.032	1	1
665.202	1	5
665.371	1	-6
665.541	1	-15
665.710	1	-4
665.879	1	-1
666.049	1	-3
666.218	1	-9
666.388	1	2
666.557	1	1
666.727	1	-7
666.896	1	-5
667.065	1	5
667.235	1	8
667.404	1	-4
667.574	1	-6
667.743	1	-4
667.913	1	2
668.082	1	4
668.251	1	-7
668.421	1	4
668.590	1	-7
668.760	1	-2
668.929	1	-19
669.099	1	5
669.268	1	12
669.437	1	-1
669.607	1	-5
669.776	1	-13
669.946	1	0
670.115	1	-2
670.285	1	7
670.454	1	4
670.623	1	3
670.793	1	1
670.962	1	1
671.132	1	5
671.301	1	-10
671.470	1	-4
671.640	1	4
671.809	1	1
671.979	1	-8
672.148	1	-4
672.317	1	7
672.487	1	3
672.656	1	1
672.826	1	-4
672.995	1	-1
673.164	1	1
673.334	1	-2
673.503	1	-1
673.673	1	-4
673.842	1	-2
674.011	1	-8
674.181	1	3
674.350	1	2
674.520	1	-5
674.689	1	0
674.858	1	8
675.028	1	-3
675.197	1	-12
675.367	1	-8
675.536	1	1
675.705	1	-4
675.875	1	-5
676.044	1	-1
676.214	1	-6
676.383	1	-2
676.552	1	-5
676.722	1	-6
676.891	1	9
677.060	1	-13
677.230	1	-7
677.399	1	-16
677.569	1	-8
677.738	1	-3
677.907	1	-5
678.077	1	11
678.246	1	-6
678.416	1	-1
678.585	1	-4
678.754	1	-10
678.924	1	-4
679.093	1	3
679.262	1	4
679.432	1	-3
679.601	1	1
679.771	1	0
679.940	1	-4
680.109	1	12
680.279	1	-2
680.448	1	3
680.617	1	-3
680.787	1	-8
680.956	1	-1
681.125	1	5
681.295	1	0
681.464	1	0
681.634	1	4
681.803	1	-6
681.972	1	-10
682.142	1	4
682.311	1	4
682.480	1	4
682.650	1	1
682.819	1	2
682.988	1	-4
683.158	1	2
683.327	1	0
683.496	1	-1
683.666	1	-4
683.835	1	-1
684.004	1	-3
684.174	1	5
684.343	1	-8
684.512	1	-1
684.682	1	-9
684.851	1	0
685.021	1	-10
685.190	1	-2
685.359	1	-2
685.529	1	-5
685.698	1	3
685.867	1	10
686.037	1	-4
686.206	1	-15
686.375	1	8
686.545	1	-5
686.714	1	-4
686.883	1	-14
687.053	1	-1
687.222	1	3
687.391	1	6
687.561	1	-4
687.730	1	2
687.899	1	-9
688.069	1	6
688.238	1	-1
688.407	1	-12
688.577	1	-12
688.746	1	4
