340.368	1	0
340.539	1	-12
340.710	1	-13
340.881	1	-9
341.052	1	0
341.223	1	-10
341.394	1	-6
341.565	1	-12
341.737	1	-3
341.908	1	3
342.079	1	-2
342.250	1	-5
342.421	1	2
342.592	1	0
342.763	1	3
342.934	1	-6
343.105	1	1
343.276	1	1
343.447	1	-14
343.618	1	2
343.789	1	-9
343.960	1	3
344.131	1	-10
344.302	1	-4
344.473	1	-2
344.644	1	-1
344.815	1	-2
344.986	1	0
345.157	1	-8
345.328	1	4
345.499	1	1
345.670	1	-9
345.841	1	-1
346.012	1	-11
346.183	1	-2
346.354	1	-3
346.526	1	-6
346.697	1	-10
346.868	1	3
347.039	1	0
347.210	1	-12
347.381	1	-2
347.552	1	-8
347.723	1	-3
347.894	1	-3
348.065	1	7
348.236	1	12
348.407	1	-1
348.578	1	0
348.749	1	-11
348.920	1	-3
349.091	1	-7
349.262	1	-5
349.433	1	-5
349.604	1	-11
349.775	1	10
349.946	1	-5
350.117	1	0
350.288	1	3
350.459	1	-3
350.630	1	0
350.801	1	-12
350.972	1	-9
351.143	1	-6
351.314	1	-7
351.485	1	3
351.656	1	1
351.827	1	-10
351.998	1	2
352.169	1	1
352.340	1	8
352.511	1	-3
352.682	1	5
352.853	1	-1
353.024	1	5
353.195	1	14
353.366	1	6
353.537	1	4
353.708	1	-2
353.879	1	2
354.050	1	-11
354.221	1	-2
354.392	1	-2
354.563	1	6
354.734	1	6
354.905	1	0
355.076	1	-1
355.247	1	11
355.418	1	-8
355.589	1	-5
355.760	1	-12
355.931	1	7
356.102	1	18
356.273	1	-5
356.444	1	14
356.615	1	-14
356.785	1	8
356.956	1	1
357.127	1	-1
357.298	1	0
357.469	1	0
357.640	1	1
357.811	1	4
357.982	1	-5
358.153	1	4
358.324	1	0
358.495	1	0
358.666	1	0
358.837	1	-6
359.008	1	-13
359.179	1	-5
359.350	1	-5
359.521	1	7
359.692	1	7
359.863	1	-4
360.034	1	13
360.205	1	-3
360.376	1	-2
360.547	1	1
360.718	1	-3
360.889	1	-6
361.060	1	-12
361.231	1	-7
361.401	1	3
361.572	1	10
361.743	1	-6
361.914	1	-5
362.085	1	12
362.256	1	-4
362.427	1	4
362.598	1	-7
362.769	1	-9
362.940	1	1
363.111	1	-6
363.282	1	19
363.453	1	2
363.624	1	-3
363.795	1	-6
363.966	1	7
364.137	1	11
364.308	1	-6
364.478	1	6
364.649	1	4
364.820	1	-6
364.991	1	0
365.162	1	10
365.333	1	4
365.504	1	6
365.675	1	-13
365.846	1	12
366.017	1	6
366.188	1	3
366.359	1	0
366.530	1	16
366.701	1	5
366.871	1	1
367.042	1	4
367.213	1	5
367.384	1	3
367.555	1	-5
367.726	1	4
367.897	1	5
368.068	1	6
368.239	1	0
368.410	1	13
368.581	1	-4
368.752	1	2
368.923	1	-4
369.093	1	3
369.264	1	7
369.435	1	19
369.606	1	15
369.777	1	-1
369.948	1	5
370.119	1	-1
370.290	1	6
370.461	1	20
370.632	1	7
370.803	1	11
370.973	1	8
371.144	1	-9
371.315	1	8
371.486	1	12
371.657	1	17
371.828	1	8
371.999	1	2
372.170	1	10
372.341	1	3
372.512	1	1
372.682	1	4
372.853	1	6
373.024	1	5
373.195	1	3
373.366	1	5
373.537	1	-6
373.708	1	-3
373.879	1	-6
374.050	1	8
374.220	1	15
374.391	1	1
374.562	1	14
374.733	1	9
374.904	1	6
375.075	1	0
375.246	1	3
375.417	1	5
375.588	1	-5
375.758	1	5
375.929	1	3
376.100	1	12
376.271	1	13
376.442	1	5
376.613	1	-2
376.784	1	4
376.955	1	-11
377.125	1	9
377.296	1	0
377.467	1	-1
377.638	1	-5
377.809	1	4
377.980	1	6
378.151	1	1
378.321	1	-6
378.492	1	-8
378.663	1	-2
378.834	1	3
379.005	1	5
379.176	1	6
379.347	1	3
379.518	1	5
379.688	1	8
379.859	1	5
380.030	1	1
380.201	1	-5
380.372	1	2
380.543	1	9
380.714	1	11
380.884	1	-4
381.055	1	8
381.226	1	1
381.397	1	0
381.568	1	8
381.739	1	9
381.910	1	-5
382.080	1	1
382.251	1	-4
382.422	1	4
382.593	1	-3
382.764	1	-5
382.935	1	-5
383.105	1	-8
383.276	1	8
383.447	1	-6
383.618	1	3
383.789	1	-7
383.960	1	1
384.130	1	-2
384.301	1	1
384.472	1	-5
384.643	1	10
384.814	1	-6
384.985	1	-3
385.156	1	-1
385.326	1	15
385.497	1	4
385.668	1	6
385.839	1	-2
386.010	1	-2
386.180	1	3
386.351	1	-1
386.522	1	3
386.693	1	-17
386.864	1	9
387.035	1	3
387.205	1	-6
387.376	1	-1
387.547	1	-4
387.718	1	0
387.889	1	6
388.060	1	4
388.230	1	13
388.401	1	-3
388.572	1	-10
388.743	1	-4
388.914	1	5
389.084	1	-1
389.255	1	-2
389.426	1	6
389.597	1	8
389.768	1	-1
389.939	1	5
390.109	1	-2
390.280	1	0
390.451	1	-8
390.622	1	-14
390.793	1	2
390.963	1	10
391.134	1	3
391.305	1	-1
391.476	1	-13
391.647	1	5
391.817	1	-1
391.988	1	1
392.159	1	-5
392.330	1	8
392.501	1	-4
392.671	1	-1
392.842	1	-16
393.013	1	-7
393.184	1	-1
393.355	1	0
393.525	1	-5
393.696	1	2
393.867	1	-7
394.038	1	-5
394.208	1	3
394.379	1	6
394.550	1	8
394.721	1	-7
394.892	1	0
395.062	1	2
395.233	1	-3
395.404	1	-7
395.575	1	8
395.746	1	11
395.916	1	-4
396.087	1	-13
396.258	1	2
396.429	1	5
396.599	1	-10
396.770	1	2
396.941	1	-1
397.112	1	5
397.283	1	1
397.453	1	10
397.624	1	-3
397.795	1	8
397.966	1	3
398.136	1	-10
398.307	1	1
398.478	1	1
398.649	1	-17
398.819	1	2
398.990	1	-3
399.161	1	11
399.332	1	-1
399.503	1	1
399.673	1	-1
399.844	1	2
400.015	1	-6
400.186	1	-3
400.356	1	-15
400.527	1	0
400.698	1	4
400.869	1	1
401.039	1	1
401.210	1	-4
401.381	1	-8
401.552	1	-8
401.722	1	9
401.893	1	-1
402.064	1	-4
402.235	1	-10
402.405	1	5
402.576	1	-4
402.747	1	-3
402.918	1	7
403.088	1	9
403.259	1	6
403.430	1	-8
403.601	1	-3
403.771	1	-1
403.942	1	0
404.113	1	2
404.284	1	1
404.454	1	-6
404.625	1	-2
404.796	1	-2
404.967	1	2
405.137	1	7
405.308	1	-2
405.479	1	0
405.649	1	0
405.820	1	-14
405.991	1	-6
406.162	1	1
406.332	1	-3
406.503	1	-1
406.674	1	-14
406.845	1	3
407.015	1	5
407.186	1	-11
407.357	1	-5
407.527	1	-7
407.698	1	6
407.869	1	0
408.040	1	-2
408.210	1	-1
408.381	1	1
408.552	1	-9
408.722	1	-12
408.893	1	-1
409.064	1	-2
409.235	1	-3
409.405	1	9
409.576	1	-13
409.747	1	4
409.917	1	-7
410.088	1	4
410.259	1	-5
410.430	1	4
410.600	1	-9
410.771	1	0
410.942	1	8
411.112	1	1
411.283	1	3
411.454	1	-13
411.625	1	2
411.795	1	-4
411.966	1	2
412.137	1	2
412.307	1	1
412.478	1	11
412.649	1	-4
412.819	1	-3
412.990	1	2
413.161	1	-14
413.332	1	5
413.502	1	3
413.673	1	4
413.844	1	-3
414.014	1	2
414.185	1	5
414.356	1	8
414.526	1	0
414.697	1	-2
414.868	1	-4
415.038	1	2
415.209	1	5
415.380	1	0
415.550	1	-5
415.721	1	-9
415.892	1	-9
416.063	1	-6
416.233	1	5
416.404	1	3
416.575	1	5
416.745	1	-10
416.916	1	-12
417.087	1	2
417.257	1	-2
417.428	1	1
417.599	1	1
417.769	1	14
417.940	1	5
418.111	1	0
418.281	1	2
418.452	1	-13
418.623	1	1
418.793	1	-1
418.964	1	-8
419.135	1	-15
419.305	1	6
419.476	1	2
419.647	1	-4
419.817	1	5
419.988	1	-5
420.159	1	3
420.329	1	-5
420.500	1	-4
420.671	1	-1
420.841	1	12
421.012	1	-3
421.183	1	-4
421.353	1	-5
421.524	1	-12
421.695	1	-3
421.865	1	3
422.036	1	-7
422.206	1	-11
422.377	1	-12
422.548	1	-10
422.718	1	8
422.889	1	-13
423.060	1	-13
423.230	1	-7
423.401	1	1
423.572	1	3
423.742	1	1
423.913	1	-4
424.084	1	-1
424.254	1	6
424.425	1	-1
424.595	1	-7
424.766	1	0
424.937	1	-4
425.107	1	-2
425.278	1	11
425.449	1	10
425.619	1	-4
425.790	1	-10
425.961	1	1
426.131	1	-3
426.302	1	-2
426.472	1	-2
426.643	1	1
426.814	1	9
426.984	1	1
427.155	1	-2
427.326	1	8
427.496	1	-6
427.667	1	7
427.837	1	-1
428.008	1	-3
428.179	1	-16
428.349	1	-19
428.520	1	5
428.691	1	8
428.861	1	0
429.032	1	0
429.202	1	-5
429.373	1	7
429.544	1	0
429.714	1	-4
429.885	1	-2
430.055	1	-4
430.226	1	-11
430.397	1	8
430.567	1	-3
430.738	1	-7
430.909	1	2
431.079	1	-14
431.250	1	-1
431.420	1	4
431.591	1	12
431.762	1	2
431.932	1	-6
432.103	1	0
432.273	1	-4
432.444	1	-2
432.615	1	-2
432.785	1	3
432.956	1	-5
433.126	1	-10
433.297	1	2
433.468	1	-13
433.638	1	-1
433.809	1	15
433.979	1	-1
434.150	1	4
434.320	1	-2
434.491	1	-4
434.662	1	-6
434.832	1	-1
435.003	1	-1
435.173	1	-10
435.344	1	0
435.515	1	9
435.685	1	4
435.856	1	0
436.026	1	8
436.197	1	-10
436.368	1	-3
436.538	1	-6
436.709	1	-3
436.879	1	-5
437.050	1	-5
437.220	1	11
437.391	1	2
437.562	1	1
437.732	1	-8
437.903	1	-3
438.073	1	0
438.244	1	-3
438.414	1	-1
438.585	1	-8
438.756	1	-8
438.926	1	-4
439.097	1	-1
439.267	1	4
439.438	1	-12
439.608	1	-6
439.779	1	-6
439.949	1	9
440.120	1	-7
440.291	1	-1
440.461	1	-6
440.632	1	-2
440.802	1	-8
440.973	1	-4
441.143	1	2
441.314	1	-1
441.485	1	0
441.655	1	10
441.826	1	5
441.996	1	3
442.167	1	-3
442.337	1	1
442.508	1	0
442.678	1	-10
442.849	1	9
443.019	1	2
443.190	1	-10
443.361	1	-4
443.531	1	3
443.702	1	-8
443.872	1	5
444.043	1	5
444.213	1	1
444.384	1	-10
444.554	1	5
444.725	1	1
444.895	1	-9
445.066	1	-13
445.237	1	-7
445.407	1	7
445.578	1	-6
445.748	1	-2
445.919	1	-2
446.089	1	2
446.260	1	0
446.430	1	2
446.601	1	-8
446.771	1	5
446.942	1	-2
447.112	1	-13
447.283	1	1
447.453	1	-8
447.624	1	7
447.794	1	-4
447.965	1	1
448.135	1	6
448.306	1	-2
448.477	1	4
448.647	1	-8
448.818	1	-5
448.988	1	5
449.159	1	-1
449.329	1	-9
449.500	1	-3
449.670	1	0
449.841	1	1
450.011	1	1
450.182	1	1
450.352	1	-2
450.523	1	-12
450.693	1	-5
450.864	1	8
451.034	1	-4
451.205	1	1
451.375	1	4
451.546	1	6
451.716	1	-5
451.887	1	-14
452.057	1	-2
452.228	1	1
452.398	1	-15
452.569	1	-4
452.739	1	0
452.910	1	-1
453.080	1	-5
453.251	1	1
453.421	1	3
453.592	1	-5
453.762	1	6
453.933	1	-6
454.103	1	-5
454.274	1	-8
454.444	1	-8
454.615	1	5
454.785	1	-6
454.956	1	-4
455.126	1	-11
455.297	1	4
455.467	1	4
455.638	1	-5
455.808	1	-1
455.979	1	-2
456.149	1	1
456.320	1	-6
456.490	1	3
456.661	1	-4
456.831	1	0
457.001	1	-1
457.172	1	-9
457.342	1	-4
457.513	1	-3
457.683	1	1
457.854	1	0
458.024	1	-5
458.195	1	-10
458.365	1	-4
458.536	1	0
458.706	1	-2
458.877	1	2
459.047	1	-3
459.218	1	0
459.388	1	-5
459.559	1	1
459.729	1	2
459.899	1	-8
460.070	1	6
460.240	1	5
460.411	1	-7
460.581	1	12
460.752	1	1
460.922	1	5
461.093	1	3
461.263	1	-3
461.434	1	-5
461.604	1	-8
461.775	1	-2
461.945	1	-2
462.115	1	6
462.286	1	4
462.456	1	-8
462.627	1	1
462.797	1	-3
462.968	1	-1
463.138	1	-9
463.309	1	-2
463.479	1	-2
463.649	1	-5
463.820	1	4
463.990	1	-8
464.161	1	-6
464.331	1	-10
464.502	1	-4
464.672	1	-3
464.843	1	-6
465.013	1	-4
465.183	1	-9
465.354	1	2
465.524	1	-5
465.695	1	-6
465.865	1	-2
466.036	1	0
466.206	1	1
466.376	1	-2
466.547	1	1
466.717	1	1
466.888	1	4
467.058	1	2
467.229	1	-7
467.399	1	-1
467.569	1	11
467.740	1	0
467.910	1	-3
468.081	1	-9
468.251	1	-1
468.422	1	-7
468.592	1	-4
468.762	1	-9
468.933	1	-3
469.103	1	-3
469.274	1	-2
469.444	1	-12
469.614	1	-9
469.785	1	-10
469.955	1	-8
470.126	1	-8
470.296	1	2
470.467	1	-7
470.637	1	1
470.807	1	-2
470.978	1	0
471.148	1	1
471.319	1	-13
471.489	1	2
471.659	1	-9
471.830	1	-5
472.000	1	-2
472.171	1	6
472.341	1	6
472.511	1	-8
472.682	1	7
472.852	1	-3
473.023	1	-4
473.193	1	10
473.363	1	-4
473.534	1	11
473.704	1	-2
473.875	1	6
474.045	1	-1
474.215	1	1
474.386	1	10
474.556	1	-1
474.727	1	-5
474.897	1	9
475.067	1	1
475.238	1	0
475.408	1	-6
475.578	1	-10
475.749	1	-3
475.919	1	-8
476.090	1	1
476.260	1	-1
476.430	1	3
476.601	1	-2
476.771	1	-1
476.942	1	5
477.112	1	-1
477.282	1	-4
477.453	1	-9
477.623	1	-6
477.793	1	-1
477.964	1	-5
478.134	1	-7
478.305	1	-9
478.475	1	-2
478.645	1	9
478.816	1	1
478.986	1	-3
479.156	1	-1
479.327	1	-5
479.497	1	-3
479.667	1	4
479.838	1	-2
480.008	1	-8
480.179	1	-8
480.349	1	-7
480.519	1	-1
480.690	1	1
480.860	1	-2
481.030	1	-9
481.201	1	-10
481.371	1	1
481.541	1	-7
481.712	1	6
481.882	1	11
482.053	1	7
482.223	1	-8
482.393	1	-1
482.564	1	-1
482.734	1	-2
482.904	1	-3
483.075	1	0
483.245	1	5
483.415	1	0
483.586	1	-2
483.756	1	-1
483.926	1	-2
484.097	1	4
484.267	1	-10
484.437	1	-3
484.608	1	3
484.778	1	4
484.948	1	-5
485.119	1	-6
485.289	1	-3
485.459	1	8
485.630	1	-3
485.800	1	-6
485.970	1	-3
486.141	1	-8
486.311	1	4
486.481	1	-6
486.652	1	13
486.822	1	1
486.992	1	8
487.163	1	-2
487.333	1	-3
487.503	1	-1
487.674	1	6
487.844	1	-2
488.014	1	0
488.185	1	-4
488.355	1	-6
488.525	1	2
488.696	1	-3
488.866	1	2
489.036	1	7
489.207	1	5
489.377	1	-8
489.547	1	-7
489.718	1	-2
489.888	1	0
490.058	1	-14
490.228	1	3
490.399	1	0
490.569	1	14
490.739	1	-3
490.910	1	-9
491.080	1	2
491.250	1	-3
491.421	1	-6
491.591	1	1
491.761	1	-5
491.932	1	3
492.102	1	-11
492.272	1	11
492.442	1	-8
492.613	1	1
492.783	1	8
492.953	1	-8
493.124	1	-3
493.294	1	-9
493.464	1	17
493.635	1	-1
493.805	1	-7
493.975	1	1
494.145	1	-4
494.316	1	5
494.486	1	4
494.656	1	-3
494.827	1	15
494.997	1	-7
495.167	1	-8
495.337	1	4
495.508	1	-7
495.678	1	-1
495.848	1	9
496.019	1	2
496.189	1	4
496.359	1	-7
496.529	1	-6
496.700	1	-4
496.870	1	-1
497.040	1	-8
497.211	1	-1
497.381	1	-1
497.551	1	6
497.721	1	-2
497.892	1	0
498.062	1	-12
498.232	1	1
498.403	1	-11
498.573	1	-10
498.743	1	-7
498.913	1	-5
499.084	1	-5
499.254	1	2
499.424	1	6
499.594	1	7
499.765	1	0
499.935	1	5
500.105	1	-6
500.275	1	4
500.446	1	-8
500.616	1	-3
500.786	1	-10
500.956	1	2
501.127	1	5
501.297	1	-3
501.467	1	-13
501.638	1	0
501.808	1	5
501.978	1	5
502.148	1	2
502.319	1	-3
502.489	1	2
502.659	1	1
502.829	1	0
503.000	1	-2
503.170	1	10
503.340	1	6
503.510	1	8
503.681	1	-10
503.851	1	-1
504.021	1	-5
504.191	1	1
504.362	1	5
504.532	1	2
504.702	1	-5
504.872	1	-3
505.042	1	-8
505.213	1	8
505.383	1	-1
505.553	1	-14
505.723	1	-11
505.894	1	-6
506.064	1	7
506.234	1	15
506.404	1	3
506.575	1	6
506.745	1	2
506.915	1	1
507.085	1	-11
507.256	1	11
507.426	1	-4
507.596	1	8
507.766	1	-5
507.936	1	1
508.107	1	3
508.277	1	-9
508.447	1	7
508.617	1	1
508.788	1	13
508.958	1	-10
509.128	1	-6
509.298	1	5
509.468	1	-5
509.639	1	-5
509.809	1	0
509.979	1	-2
510.149	1	8
510.319	1	-2
510.490	1	-1
510.660	1	2
510.830	1	5
511.000	1	-9
511.171	1	-8
511.341	1	-1
511.511	1	-1
511.681	1	2
511.851	1	6
512.022	1	-8
512.192	1	-1
512.362	1	-18
512.532	1	-3
512.702	1	-4
512.873	1	7
513.043	1	13
513.213	1	-7
513.383	1	-15
513.553	1	-11
513.724	1	0
513.894	1	-10
514.064	1	14
514.234	1	2
514.404	1	-3
514.575	1	5
514.745	1	-5
514.915	1	7
515.085	1	2
515.255	1	-7
515.425	1	-7
515.596	1	-3
515.766	1	-2
515.936	1	-6
516.106	1	0
516.276	1	-15
516.447	1	9
516.617	1	9
516.787	1	11
516.957	1	-7
517.127	1	-2
517.297	1	-8
517.468	1	0
517.638	1	2
517.808	1	-9
517.978	1	4
518.148	1	-8
518.319	1	-2
518.489	1	1
518.659	1	-8
518.829	1	8
518.999	1	2
519.169	1	1
519.340	1	7
519.510	1	-4
519.680	1	7
519.850	1	-3
520.020	1	1
520.190	1	-2
520.361	1	2
520.531	1	3
520.701	1	-3
520.871	1	-1
521.041	1	10
521.211	1	-10
521.382	1	-11
521.552	1	6
521.722	1	1
521.892	1	3
522.062	1	5
522.232	1	6
522.402	1	6
522.573	1	-3
522.743	1	-4
522.913	1	1
523.083	1	-3
523.253	1	-1
523.423	1	0
523.593	1	-6
523.764	1	-3
523.934	1	2
524.104	1	-1
524.274	1	10
524.444	1	-3
524.614	1	-3
524.784	1	-8
524.955	1	-8
525.125	1	10
525.295	1	3
525.465	1	-5
525.635	1	-1
525.805	1	-8
525.975	1	6
526.146	1	1
526.316	1	11
526.486	1	-3
526.656	1	-5
526.826	1	-3
526.996	1	-3
527.166	1	1
527.337	1	-3
527.507	1	7
527.677	1	0
527.847	1	-2
528.017	1	-14
528.187	1	-1
528.357	1	-7
528.527	1	3
528.698	1	-2
528.868	1	1
529.038	1	0
529.208	1	-1
529.378	1	0
529.548	1	-1
529.718	1	-2
529.888	1	1
530.058	1	10
530.229	1	7
530.399	1	-5
530.569	1	-8
530.739	1	-4
530.909	1	-7
531.079	1	3
531.249	1	-9
531.419	1	0
531.589	1	7
531.760	1	3
531.930	1	4
532.100	1	-14
532.270	1	3
532.440	1	-3
532.610	1	-3
532.780	1	2
532.950	1	-1
533.120	1	4
533.290	1	1
533.461	1	-1
533.631	1	-4
533.801	1	11
533.971	1	-10
534.141	1	-15
534.311	1	6
534.481	1	-11
534.651	1	6
534.821	1	5
534.991	1	6
535.162	1	-1
535.332	1	5
535.502	1	-6
535.672	1	2
535.842	1	4
536.012	1	2
536.182	1	-3
536.352	1	-5
536.522	1	-5
536.692	1	2
536.862	1	12
537.032	1	11
537.203	1	-9
537.373	1	-1
537.543	1	-5
537.713	1	-2
537.883	1	-2
538.053	1	-2
538.223	1	3
538.393	1	13
538.563	1	10
538.733	1	3
538.903	1	-7
539.073	1	-3
539.243	1	-3
539.413	1	-5
539.584	1	-12
539.754	1	8
539.924	1	13
540.094	1	0
540.264	1	-3
540.434	1	-1
540.604	1	-4
540.774	1	1
540.944	1	-4
541.114	1	-12
541.284	1	6
541.454	1	0
541.624	1	2
541.794	1	-10
541.964	1	3
542.134	1	-1
542.305	1	-2
542.475	1	3
542.645	1	4
542.815	1	4
542.985	1	-4
543.155	1	-1
543.325	1	-9
543.495	1	-12
543.665	1	8
543.835	1	20
544.005	1	8
544.175	1	-1
544.345	1	4
544.515	1	-1
544.685	1	-3
544.855	1	-4
545.025	1	-5
545.195	1	1
545.365	1	6
545.535	1	16
545.705	1	-2
545.875	1	-12
546.045	1	-7
546.216	1	4
546.386	1	1
546.556	1	-5
546.726	1	0
546.896	1	-7
547.066	1	-7
547.236	1	-1
547.406	1	6
547.576	1	4
547.746	1	-19
547.916	1	-1
548.086	1	4
548.256	1	-2
548.426	1	-13
548.596	1	3
548.766	1	-2
548.936	1	1
549.106	1	-8
549.276	1	-8
549.446	1	4
549.616	1	-4
549.786	1	-1
549.956	1	4
550.126	1	20
550.296	1	3
550.466	1	-2
550.636	1	11
550.806	1	-7
550.976	1	4
551.146	1	-9
551.316	1	6
551.486	1	5
551.656	1	0
551.826	1	-3
551.996	1	14
552.166	1	-6
552.336	1	4
552.506	1	3
552.676	1	12
552.846	1	-4
553.016	1	3
553.186	1	-1
553.356	1	0
553.526	1	-5
553.696	1	5
553.866	1	0
554.036	1	0
554.206	1	11
554.376	1	2
554.546	1	-2
554.716	1	3
554.886	1	5
555.056	1	-2
555.226	1	-5
555.396	1	-8
555.566	1	4
555.736	1	-3
555.906	1	5
556.076	1	6
556.246	1	-9
556.416	1	-6
556.586	1	-3
556.756	1	-7
556.926	1	2
557.096	1	4
557.266	1	-4
557.436	1	1
557.606	1	13
557.776	1	0
557.946	1	2
558.116	1	0
558.286	1	0
558.456	1	-2
558.626	1	2
558.796	1	-2
558.966	1	5
559.136	1	-1
559.306	1	2
559.476	1	-12
559.646	1	-4
559.816	1	-11
559.986	1	-3
560.155	1	0
560.325	1	-12
560.495	1	6
560.665	1	-7
560.835	1	-4
561.005	1	-4
561.175	1	-6
561.345	1	-3
561.515	1	-4
561.685	1	0
561.855	1	-12
562.025	1	-6
562.195	1	5
562.365	1	-1
562.535	1	-8
562.705	1	-6
562.875	1	2
563.045	1	-2
563.215	1	10
563.385	1	-15
563.555	1	-1
563.725	1	-7
563.895	1	1
564.064	1	-5
564.234	1	4
564.404	1	-1
564.574	1	5
564.744	1	-5
564.914	1	-4
565.084	1	-6
565.254	1	7
565.424	1	-9
565.594	1	-3
565.764	1	-5
565.934	1	-1
566.104	1	2
566.274	1	-5
566.444	1	-8
566.614	1	-4
566.783	1	0
566.953	1	13
567.123	1	0
567.293	1	11
567.463	1	10
567.633	1	-3
567.803	1	-6
567.973	1	-16
568.143	1	-2
568.313	1	8
568.483	1	-2
568.653	1	8
568.823	1	-6
568.993	1	2
569.162	1	5
569.332	1	-3
569.502	1	-1
569.672	1	7
569.842	1	10
570.012	1	6
570.182	1	-2
570.352	1	-2
570.522	1	-8
570.692	1	-5
570.862	1	3
571.031	1	-5
571.201	1	9
571.371	1	-7
571.541	1	5
571.711	1	7
571.881	1	5
572.051	1	-15
572.221	1	-6
572.391	1	-12
572.561	1	-7
572.731	1	10
572.900	1	-9
573.070	1	2
573.240	1	-2
573.410	1	8
573.580	1	-2
573.750	1	7
573.920	1	-3
574.090	1	-9
574.260	1	7
574.430	1	-9
574.599	1	3
574.769	1	0
574.939	1	9
575.109	1	2
575.279	1	3
575.449	1	-4
575.619	1	6
575.789	1	-5
575.959	1	-4
576.128	1	-10
576.298	1	15
576.468	1	-1
576.638	1	-12
576.808	1	3
576.978	1	10
577.148	1	5
577.318	1	3
577.487	1	3
577.657	1	-2
577.827	1	1
577.997	1	-8
578.167	1	-4
578.337	1	10
578.507	1	0
578.677	1	14
578.846	1	-1
579.016	1	1
579.186	1	-6
579.356	1	-8
579.526	1	-7
579.696	1	5
579.866	1	-2
580.036	1	-3
580.205	1	1
580.375	1	1
580.545	1	-5
580.715	1	2
580.885	1	-5
581.055	1	0
581.225	1	2
581.394	1	-2
581.564	1	1
581.734	1	-14
581.904	1	-2
582.074	1	-4
582.244	1	-6
582.414	1	7
582.583	1	-1
582.753	1	-6
582.923	1	-7
583.093	1	-10
583.263	1	-6
583.433	1	0
583.603	1	0
583.772	1	3
583.942	1	9
584.112	1	-4
584.282	1	-12
584.452	1	-2
584.622	1	0
584.791	1	-1
584.961	1	2
585.131	1	1
585.301	1	-10
585.471	1	4
585.641	1	-6
585.811	1	-3
585.980	1	6
586.150	1	-6
586.320	1	-5
586.490	1	4
586.660	1	-2
586.830	1	-4
586.999	1	-2
587.169	1	1
587.339	1	3
587.509	1	2
587.679	1	8
587.849	1	4
588.018	1	4
588.188	1	7
588.358	1	-10
588.528	1	7
588.698	1	2
588.867	1	3
589.037	1	-1
589.207	1	4
589.377	1	4
589.547	1	-1
589.717	1	0
589.886	1	-7
590.056	1	-9
590.226	1	7
590.396	1	10
590.566	1	-1
590.735	1	-6
590.905	1	-7
591.075	1	1
591.245	1	1
591.415	1	-4
591.585	1	-4
591.754	1	0
591.924	1	-4
592.094	1	-5
592.264	1	-8
592.434	1	-11
592.603	1	8
592.773	1	-13
592.943	1	1
593.113	1	-2
593.283	1	2
593.452	1	6
593.622	1	-3
593.792	1	3
593.962	1	4
594.132	1	-4
594.301	1	5
594.471	1	14
594.641	1	-11
594.811	1	-7
594.981	1	-1
595.150	1	-2
595.320	1	3
595.490	1	-6
595.660	1	3
595.829	1	-6
595.999	1	-10
596.169	1	8
596.339	1	4
596.509	1	0
596.678	1	-10
596.848	1	-1
597.018	1	-5
597.188	1	1
597.358	1	1
597.527	1	-11
597.697	1	-9
597.867	1	-12
598.037	1	-4
598.206	1	-2
598.376	1	7
598.546	1	5
598.716	1	6
598.885	1	-13
599.055	1	4
599.225	1	-17
599.395	1	-10
599.565	1	-9
599.734	1	7
599.904	1	-4
600.074	1	-3
600.244	1	-11
600.413	1	4
600.583	1	11
600.753	1	-2
600.923	1	4
601.092	1	10
601.262	1	-6
601.432	1	-8
601.602	1	14
601.771	1	5
601.941	1	0
602.111	1	-4
602.281	1	1
602.451	1	9
602.620	1	-5
602.790	1	-1
602.960	1	0
603.130	1	-6
603.299	1	7
603.469	1	-12
603.639	1	-3
603.809	1	0
603.978	1	8
604.148	1	6
604.318	1	-6
604.487	1	-9
604.657	1	-1
604.827	1	8
604.997	1	-1
605.166	1	6
605.336	1	2
605.506	1	2
605.676	1	-6
605.845	1	2
606.015	1	0
606.185	1	5
606.355	1	0
606.524	1	0
606.694	1	-6
606.864	1	-2
607.034	1	-5
607.203	1	3
607.373	1	-2
607.543	1	-3
607.712	1	-9
607.882	1	9
608.052	1	-4
608.222	1	0
608.391	1	-5
608.561	1	-2
608.731	1	2
608.901	1	3
609.070	1	4
609.240	1	-4
609.410	1	4
609.579	1	4
609.749	1	2
609.919	1	8
610.089	1	-8
610.258	1	3
610.428	1	0
610.598	1	2
610.767	1	3
610.937	1	-3
611.107	1	-5
611.277	1	-4
611.446	1	6
611.616	1	-7
611.786	1	4
611.955	1	0
612.125	1	0
612.295	1	-9
612.465	1	-4
612.634	1	-1
612.804	1	-1
612.974	1	-5
613.143	1	-5
613.313	1	1
613.483	1	-1
613.652	1	10
613.822	1	-5
613.992	1	0
614.162	1	8
614.331	1	2
614.501	1	-2
614.671	1	3
614.840	1	0
615.010	1	-5
615.180	1	-4
615.349	1	5
615.519	1	-14
615.689	1	5
615.858	1	4
616.028	1	0
616.198	1	2
616.368	1	-3
616.537	1	-6
616.707	1	0
616.877	1	0
617.046	1	-2
617.216	1	-10
617.386	1	2
617.555	1	0
617.725	1	0
617.895	1	5
618.064	1	-5
618.234	1	-7
618.404	1	1
618.573	1	-1
618.743	1	0
618.913	1	0
619.082	1	2
619.252	1	-3
619.422	1	-13
619.591	1	-5
619.761	1	8
619.931	1	-3
620.100	1	-2
620.270	1	-9
620.440	1	0
620.609	1	1
620.779	1	-4
620.949	1	-2
621.118	1	-11
621.288	1	3
621.458	1	-3
621.627	1	0
621.797	1	-10
621.967	1	-5
622.136	1	8
622.306	1	-4
622.476	1	-8
622.645	1	7
622.815	1	8
622.985	1	-4
623.154	1	2
623.324	1	-2
623.494	1	14
623.663	1	-4
623.833	1	7
624.002	1	-15
624.172	1	-3
624.342	1	7
624.511	1	-4
624.681	1	1
624.851	1	-6
625.020	1	-3
625.190	1	5
625.360	1	3
625.529	1	5
625.699	1	-4
625.869	1	0
626.038	1	-9
626.208	1	0
626.377	1	1
626.547	1	0
626.717	1	2
626.886	1	2
627.056	1	-12
627.226	1	0
627.395	1	1
627.565	1	1
627.735	1	1
627.904	1	-7
628.074	1	9
628.243	1	-3
628.413	1	-1
628.583	1	-1
628.752	1	3
628.922	1	6
629.091	1	-13
629.261	1	6
629.431	1	-17
629.600	1	12
629.770	1	-21
629.940	1	-2
630.109	1	-16
630.279	1	-3
630.448	1	-5
630.618	1	-1
630.788	1	6
630.957	1	0
631.127	1	6
631.297	1	3
631.466	1	5
631.636	1	-14
631.805	1	2
631.975	1	3
632.145	1	-5
632.314	1	-3
632.484	1	0
632.653	1	3
632.823	1	-9
632.993	1	-3
633.162	1	-6
633.332	1	-4
633.501	1	-4
633.671	1	4
633.841	1	-12
634.010	1	-3
634.180	1	7
634.349	1	10
634.519	1	-1
634.689	1	-3
634.858	1	0
635.028	1	-5
635.197	1	10
635.367	1	-2
635.537	1	-6
635.706	1	-2
635.876	1	-3
636.045	1	11
636.215	1	2
636.384	1	-1
636.554	1	0
636.724	1	-1
636.893	1	-8
637.063	1	2
637.232	1	-2
637.402	1	4
637.572	1	2
637.741	1	-6
637.911	1	-4
638.080	1	-1
638.250	1	5
638.419	1	-4
638.589	1	-4
638.759	1	-8
638.928	1	10
639.098	1	-3
639.267	1	5
639.437	1	2
639.606	1	7
639.776	1	-8
639.946	1	5
640.115	1	-3
640.285	1	5
640.454	1	-12
640.624	1	1
640.793	1	6
640.963	1	-12
641.132	1	8
641.302	1	1
641.472	1	0
641.641	1	-10
641.811	1	-3
641.980	1	7
642.150	1	-13
642.319	1	-12
642.489	1	3
642.659	1	11
642.828	1	-2
642.998	1	5
643.167	1	1
643.337	1	2
643.506	1	-17
643.676	1	-2
643.845	1	-13
644.015	1	12
644.184	1	3
644.354	1	1
644.524	1	0
644.693	1	4
644.863	1	-5
645.032	1	-7
645.202	1	-2
645.371	1	-6
645.541	1	-2
645.710	1	-2
645.880	1	-1
646.049	1	-14
646.219	1	-2
646.388	1	-2
646.558	1	-5
646.728	1	-3
646.897	1	-1
647.067	1	1
647.236	1	4
647.406	1	-8
647.575	1	3
647.745	1	-8
647.914	1	-5
648.084	1	-4
648.253	1	9
648.423	1	-6
648.592	1	-13
648.762	1	3
648.931	1	10
649.101	1	5
649.270	1	-9
649.440	1	-2
649.610	1	-3
649.779	1	6
649.949	1	-4
650.118	1	16
650.288	1	-2
650.457	1	-6
650.627	1	-1
650.796	1	1
650.966	1	-3
651.135	1	-8
651.305	1	2
651.474	1	-7
651.644	1	12
651.813	1	-8
651.983	1	0
652.152	1	-1
652.322	1	3
652.491	1	1
652.661	1	-2
652.830	1	-2
653.000	1	-2
653.169	1	-9
653.339	1	2
653.508	1	1
653.678	1	-1
653.847	1	-1
654.017	1	-1
654.186	1	-1
654.356	1	-3
654.525	1	-7
654.695	1	1
654.864	1	-3
655.034	1	3
655.203	1	-4
655.373	1	7
655.542	1	1
655.712	1	-3
655.881	1	-4
656.051	1	-2
656.220	1	-12
656.390	1	2
656.559	1	-5
656.729	1	7
656.898	1	-10
657.068	1	0
657.237	1	-11
657.406	1	-4
657.576	1	-7
657.745	1	-12
657.915	1	1
658.084	1	2
658.254	1	-8
658.423	1	7
658.593	1	13
658.762	1	3
658.932	1	-3
659.101	1	11
659.271	1	-6
659.440	1	-8
659.610	1	-2
659.779	1	-12
659.949	1	3
660.118	1	-7
660.288	1	9
660.457	1	0
660.626	1	2
660.796	1	-16
660.965	1	12
661.135	1	-11
661.304	1	2
661.474	1	-6
661.643	1	1
661.813	1	8
661.982	1	6
662.152	1	-1
662.321	1	3
662.491	1	-10
662.660	1	0
662.829	1	2
662.999	1	-3
663.168	1	5
663.338	1	7
663.507	1	6
663.677	1	-4
663.846	1	-7
664.016	1	-15
664.185	1	2
664.354	1	-6
664.524	1	3
664.693	1	12
664.863	1	-5
665.032	1	3
665.202	1	10
665.371	1	-4
665.541	1	-7
665.710	1	-5
665.879	1	-2
666.049	1	-5
666.218	1	-11
666.388	1	3
666.557	1	-5
666.727	1	-3
666.896	1	-4
667.065	1	9
667.235	1	-1
667.404	1	-2
667.574	1	-4
667.743	1	3
667.913	1	-3
668.082	1	1
668.251	1	-8
668.421	1	-9
668.590	1	-3
668.760	1	-10
668.929	1	-14
669.099	1	0
669.268	1	1
669.437	1	-3
669.607	1	-5
669.776	1	-2
669.946	1	4
670.115	1	9
670.285	1	-4
670.454	1	-2
670.623	1	-7
670.793	1	-3
670.962	1	3
671.132	1	-1
671.301	1	0
671.470	1	-7
671.640	1	-3
671.809	1	-3
671.979	1	-8
672.148	1	-6
672.317	1	0
672.487	1	4
672.656	1	-3
672.826	1	-1
672.995	1	9
673.164	1	7
673.334	1	-3
673.503	1	4
673.673	1	-7
673.842	1	-6
674.011	1	-4
674.181	1	10
674.350	1	-4
674.520	1	-6
674.689	1	-10
674.858	1	-2
675.028	1	-6
675.197	1	-13
675.367	1	8
675.536	1	-3
675.705	1	15
675.875	1	-1
676.044	1	-7
676.214	1	-9
676.383	1	-4
676.552	1	3
676.722	1	8
676.891	1	3
677.060	1	-1
677.230	1	-12
677.399	1	-13
677.569	1	-2
677.738	1	2
677.907	1	0
678.077	1	4
678.246	1	-4
678.416	1	0
678.585	1	7
678.754	1	-5
678.924	1	-10
679.093	1	4
679.262	1	-5
679.432	1	4
679.601	1	-2
679.771	1	-3
679.940	1	-3
680.109	1	3
680.279	1	-1
680.448	1	0
680.617	1	-9
680.787	1	-6
680.956	1	2
681.125	1	10
681.295	1	2
681.464	1	-4
681.634	1	0
681.803	1	-9
681.972	1	-12
682.142	1	1
682.311	1	-3
682.480	1	12
682.650	1	-3
682.819	1	9
682.988	1	-4
683.158	1	0
683.327	1	0
683.496	1	-2
683.666	1	-2
683.835	1	1
684.004	1	4
684.174	1	-5
684.343	1	-10
684.512	1	3
684.682	1	-3
684.851	1	5
685.021	1	4
685.190	1	-3
685.359	1	8
685.529	1	-5
685.698	1	6
685.867	1	4
686.037	1	-8
686.206	1	-10
686.375	1	4
686.545	1	-11
686.714	1	0
686.883	1	2
687.053	1	0
687.222	1	3
687.391	1	-5
687.561	1	4
687.730	1	-6
687.899	1	-3
688.069	1	6
688.238	1	12
688.407	1	-8
688.577	1	-6
688.746	1	-4
