340.368	1	-1
340.539	1	-21
340.710	1	-12
340.881	1	-19
341.052	1	6
341.223	1	-8
341.394	1	-1
341.565	1	-6
341.737	1	4
341.908	1	4
342.079	1	-9
342.250	1	-2
342.421	1	1
342.592	1	3
342.763	1	0
342.934	1	-11
343.105	1	-5
343.276	1	-3
343.447	1	-3
343.618	1	-1
343.789	1	-2
343.960	1	-8
344.131	1	-3
344.302	1	4
344.473	1	-8
344.644	1	-5
344.815	1	-5
344.986	1	0
345.157	1	-4
345.328	1	-6
345.499	1	-2
345.670	1	-1
345.841	1	4
346.012	1	0
346.183	1	-4
346.354	1	-5
346.526	1	-5
346.697	1	-2
346.868	1	7
347.039	1	4
347.210	1	0
347.381	1	0
347.552	1	-3
347.723	1	-5
347.894	1	-3
348.065	1	-8
348.236	1	9
348.407	1	-6
348.578	1	-3
348.749	1	-8
348.920	1	-10
349.091	1	-14
349.262	1	3
349.433	1	0
349.604	1	3
349.775	1	1
349.946	1	-10
350.117	1	-6
350.288	1	2
350.459	1	-6
350.630	1	0
350.801	1	-5
350.972	1	-4
351.143	1	-4
351.314	1	1
351.485	1	-1
351.656	1	9
351.827	1	-5
351.998	1	4
352.169	1	7
352.340	1	8
352.511	1	-8
352.682	1	1
352.853	1	9
353.024	1	3
353.195	1	2
353.366	1	3
353.537	1	2
353.708	1	-1
353.879	1	10
354.050	1	-6
354.221	1	-3
354.392	1	-4
354.563	1	7
354.734	1	-2
354.905	1	5
355.076	1	-1
355.247	1	7
355.418	1	-8
355.589	1	-10
355.760	1	-7
355.931	1	-3
356.102	1	7
356.273	1	-10
356.444	1	6
356.615	1	-5
356.785	1	10
356.956	1	5
357.127	1	-4
357.298	1	5
357.469	1	1
357.640	1	7
357.811	1	-2
357.982	1	-4
358.153	1	-1
358.324	1	-4
358.495	1	-5
358.666	1	-8
358.837	1	-6
359.008	1	-7
359.179	1	1
359.350	1	-3
359.521	1	4
359.692	1	-2
359.863	1	-6
360.034	1	3
360.205	1	0
360.376	1	-3
360.547	1	-2
360.718	1	6
360.889	1	3
361.060	1	-7
361.231	1	-1
361.401	1	3
361.572	1	7
361.743	1	3
361.914	1	3
362.085	1	11
362.256	1	4
362.427	1	14
362.598	1	-7
362.769	1	-2
362.940	1	3
363.111	1	4
363.282	1	2
363.453	1	-2
363.624	1	16
363.795	1	-1
363.966	1	-1
364.137	1	13
364.308	1	2
364.478	1	2
364.649	1	8
364.820	1	0
364.991	1	6
365.162	1	11
365.333	1	1
365.504	1	9
365.675	1	5
365.846	1	10
366.017	1	-2
366.188	1	1
366.359	1	10
366.530	1	11
366.701	1	8
366.871	1	4
367.042	1	6
367.213	1	21
367.384	1	12
367.555	1	3
367.726	1	9
367.897	1	7
368.068	1	3
368.239	1	13
368.410	1	16
368.581	1	0
368.752	1	10
368.923	1	6
369.093	1	3
369.264	1	12
369.435	1	21
369.606	1	7
369.777	1	-5
369.948	1	3
370.119	1	6
370.290	1	-1
370.461	1	18
370.632	1	15
370.803	1	11
370.973	1	12
371.144	1	0
371.315	1	9
371.486	1	15
371.657	1	3
371.828	1	10
371.999	1	11
372.170	1	11
372.341	1	8
372.512	1	4
372.682	1	16
372.853	1	2
373.024	1	4
373.195	1	6
373.366	1	8
373.537	1	4
373.708	1	1
373.879	1	6
374.050	1	6
374.220	1	11
374.391	1	13
374.562	1	7
374.733	1	16
374.904	1	-3
375.075	1	5
375.246	1	0
375.417	1	0
375.588	1	10
375.758	1	9
375.929	1	9
376.100	1	3
376.271	1	11
376.442	1	4
376.613	1	-1
376.784	1	4
376.955	1	6
377.125	1	-1
377.296	1	0
377.467	1	1
377.638	1	3
377.809	1	8
377.980	1	4
378.151	1	0
378.321	1	-9
378.492	1	2
378.663	1	0
378.834	1	-2
379.005	1	11
379.176	1	-2
379.347	1	1
379.518	1	-4
379.688	1	4
379.859	1	9
380.030	1	1
380.201	1	-1
380.372	1	-1
380.543	1	7
380.714	1	3
380.884	1	9
381.055	1	12
381.226	1	5
381.397	1	2
381.568	1	2
381.739	1	8
381.910	1	3
382.080	1	8
382.251	1	-5
382.422	1	-2
382.593	1	-1
382.764	1	-2
382.935	1	-8
383.105	1	-4
383.276	1	8
383.447	1	2
383.618	1	8
383.789	1	-1
383.960	1	-7
384.130	1	-4
384.301	1	-3
384.472	1	2
384.643	1	10
384.814	1	1
384.985	1	-6
385.156	1	-2
385.326	1	10
385.497	1	2
385.668	1	-1
385.839	1	4
386.010	1	4
386.180	1	10
386.351	1	-2
386.522	1	1
386.693	1	-4
386.864	1	7
387.035	1	-1
387.205	1	0
387.376	1	2
387.547	1	-5
387.718	1	4
387.889	1	4
388.060	1	5
388.230	1	11
388.401	1	-1
388.572	1	-8
388.743	1	-1
388.914	1	-6
389.084	1	-1
389.255	1	-14
389.426	1	-4
389.597	1	7
389.768	1	6
389.939	1	2
390.109	1	-3
390.280	1	1
390.451	1	-3
390.622	1	1
390.793	1	-3
390.963	1	5
391.134	1	0
391.305	1	4
391.476	1	-2
391.647	1	-3
391.817	1	6
391.988	1	1
392.159	1	0
392.330	1	3
392.501	1	0
392.671	1	-11
392.842	1	-1
393.013	1	-1
393.184	1	13
393.355	1	3
393.525	1	-5
393.696	1	7
393.867	1	-4
394.038	1	1
394.208	1	-6
394.379	1	5
394.550	1	9
394.721	1	-6
394.892	1	5
395.062	1	-1
395.233	1	3
395.404	1	-2
395.575	1	-4
395.746	1	6
395.916	1	-4
396.087	1	-6
396.258	1	6
396.429	1	2
396.599	1	3
396.770	1	-5
396.941	1	1
397.112	1	-5
397.283	1	2
397.453	1	10
397.624	1	1
397.795	1	2
397.966	1	7
398.136	1	-1
398.307	1	-8
398.478	1	-1
398.649	1	-12
398.819	1	0
398.990	1	-7
399.161	1	15
399.332	1	-2
399.503	1	11
399.673	1	-14
399.844	1	5
400.015	1	-10
400.186	1	-3
400.356	1	-9
400.527	1	3
400.698	1	-4
400.869	1	-3
401.039	1	-9
401.210	1	3
401.381	1	-1
401.552	1	-14
401.722	1	-6
401.893	1	2
402.064	1	3
402.235	1	-1
402.405	1	4
402.576	1	4
402.747	1	-12
402.918	1	6
403.088	1	-2
403.259	1	5
403.430	1	-4
403.601	1	-11
403.771	1	4
403.942	1	6
404.113	1	-1
404.284	1	4
404.454	1	-2
404.625	1	5
404.796	1	1
404.967	1	0
405.137	1	7
405.308	1	5
405.479	1	2
405.649	1	-3
405.820	1	-5
405.991	1	-8
406.162	1	0
406.332	1	-2
406.503	1	0
406.674	1	-12
406.845	1	8
407.015	1	-4
407.186	1	2
407.357	1	-9
407.527	1	-2
407.698	1	4
407.869	1	4
408.040	1	-11
408.210	1	-3
408.381	1	2
408.552	1	-9
408.722	1	-16
408.893	1	-1
409.064	1	2
409.235	1	1
409.405	1	6
409.576	1	-4
409.747	1	-8
409.917	1	-5
410.088	1	-8
410.259	1	0
410.430	1	5
410.600	1	-1
410.771	1	6
410.942	1	5
411.112	1	2
411.283	1	6
411.454	1	-1
411.625	1	-6
411.795	1	-3
411.966	1	-2
412.137	1	-1
412.307	1	1
412.478	1	8
412.649	1	-6
412.819	1	0
412.990	1	2
413.161	1	1
413.332	1	2
413.502	1	-6
413.673	1	2
413.844	1	4
414.014	1	1
414.185	1	3
414.356	1	0
414.526	1	-1
414.697	1	0
414.868	1	-3
415.038	1	4
415.209	1	-3
415.380	1	-5
415.550	1	-3
415.721	1	-10
415.892	1	4
416.063	1	3
416.233	1	8
416.404	1	-3
416.575	1	14
416.745	1	1
416.916	1	1
417.087	1	-2
417.257	1	-1
417.428	1	0
417.599	1	3
417.769	1	14
417.940	1	0
418.111	1	-5
418.281	1	3
418.452	1	-8
418.623	1	1
418.793	1	-4
418.964	1	-7
419.135	1	-5
419.305	1	7
419.476	1	4
419.647	1	-6
419.817	1	4
419.988	1	-2
420.159	1	-2
420.329	1	-10
420.500	1	-6
420.671	1	-3
420.841	1	8
421.012	1	-4
421.183	1	-8
421.353	1	1
421.524	1	-5
421.695	1	-6
421.865	1	0
422.036	1	7
422.206	1	-4
422.377	1	0
422.548	1	-9
422.718	1	8
422.889	1	-9
423.060	1	-4
423.230	1	6
423.401	1	-2
423.572	1	4
423.742	1	-1
423.913	1	-4
424.084	1	-4
424.254	1	-1
424.425	1	2
424.595	1	2
424.766	1	5
424.937	1	5
425.107	1	-4
425.278	1	8
425.449	1	-5
425.619	1	-5
425.790	1	-5
425.961	1	-3
426.131	1	-2
426.302	1	-4
426.472	1	2
426.643	1	7
426.814	1	3
426.984	1	-3
427.155	1	-6
427.326	1	2
427.496	1	-5
427.667	1	15
427.837	1	-7
428.008	1	8
428.179	1	-11
428.349	1	-20
428.520	1	-4
428.691	1	8
428.861	1	-6
429.032	1	3
429.202	1	-6
429.373	1	3
429.544	1	-6
429.714	1	7
429.885	1	2
430.055	1	-1
430.226	1	-2
430.397	1	-4
430.567	1	6
430.738	1	-7
430.909	1	-7
431.079	1	-22
431.250	1	-8
431.420	1	-10
431.591	1	5
431.762	1	-5
431.932	1	-7
432.103	1	1
432.273	1	-2
432.444	1	3
432.615	1	-12
432.785	1	-4
432.956	1	-1
433.126	1	-12
433.297	1	4
433.468	1	-14
433.638	1	4
433.809	1	-2
433.979	1	8
434.150	1	-1
434.320	1	8
434.491	1	-7
434.662	1	0
434.832	1	-2
435.003	1	0
435.173	1	-10
435.344	1	-5
435.515	1	0
435.685	1	2
435.856	1	6
436.026	1	14
436.197	1	-1
436.368	1	4
436.538	1	-9
436.709	1	-10
436.879	1	-3
437.050	1	-1
437.220	1	5
437.391	1	2
437.562	1	4
437.732	1	-2
437.903	1	-3
438.073	1	-5
438.244	1	2
438.414	1	-10
438.585	1	-3
438.756	1	-9
438.926	1	1
439.097	1	-8
439.267	1	-2
439.438	1	-14
439.608	1	-6
439.779	1	-4
439.949	1	13
440.120	1	0
440.291	1	5
440.461	1	5
440.632	1	6
440.802	1	-4
440.973	1	-3
441.143	1	7
441.314	1	-4
441.485	1	0
441.655	1	2
441.826	1	-11
441.996	1	1
442.167	1	1
442.337	1	-2
442.508	1	-17
442.678	1	-4
442.849	1	7
443.019	1	-5
443.190	1	-3
443.361	1	-2
443.531	1	3
443.702	1	-5
443.872	1	14
444.043	1	-1
444.213	1	1
444.384	1	-5
444.554	1	11
444.725	1	-7
444.895	1	-1
445.066	1	-3
445.237	1	1
445.407	1	3
445.578	1	-12
445.748	1	2
445.919	1	-8
446.089	1	-1
446.260	1	-2
446.430	1	-1
446.601	1	-7
446.771	1	8
446.942	1	1
447.112	1	3
447.283	1	-5
447.453	1	-7
447.624	1	5
447.794	1	-5
447.965	1	3
448.135	1	4
448.306	1	0
448.477	1	8
448.647	1	-1
448.818	1	9
448.988	1	-14
449.159	1	-9
449.329	1	-4
449.500	1	-3
449.670	1	-2
449.841	1	10
450.011	1	-1
450.182	1	-1
450.352	1	-6
450.523	1	7
450.693	1	-6
450.864	1	-7
451.034	1	-11
451.205	1	11
451.375	1	-10
451.546	1	0
451.716	1	-5
451.887	1	-21
452.057	1	3
452.228	1	6
452.398	1	-2
452.569	1	-4
452.739	1	3
452.910	1	2
453.080	1	2
453.251	1	-1
453.421	1	-4
453.592	1	-7
453.762	1	4
453.933	1	-8
454.103	1	-2
454.274	1	-3
454.444	1	-4
454.615	1	3
454.785	1	-4
454.956	1	-7
455.126	1	-12
455.297	1	5
455.467	1	1
455.638	1	5
455.808	1	-1
455.979	1	-4
456.149	1	6
456.320	1	-4
456.490	1	0
456.661	1	5
456.831	1	0
457.001	1	-1
457.172	1	-5
457.342	1	2
457.513	1	13
457.683	1	-7
457.854	1	-7
458.024	1	-5
458.195	1	-5
458.365	1	-1
458.536	1	4
458.706	1	-4
458.877	1	-3
459.047	1	5
459.218	1	1
459.388	1	10
459.559	1	7
459.729	1	-1
459.899	1	-5
460.070	1	2
460.240	1	8
460.411	1	-10
460.581	1	9
460.752	1	2
460.922	1	-5
461.093	1	1
461.263	1	-2
461.434	1	-6
461.604	1	-7
461.775	1	-6
461.945	1	5
462.115	1	7
462.286	1	3
462.456	1	-7
462.627	1	6
462.797	1	-5
462.968	1	6
463.138	1	5
463.309	1	0
463.479	1	-2
463.649	1	-7
463.820	1	-1
463.990	1	-4
464.161	1	4
464.331	1	-2
464.502	1	1
464.672	1	1
464.843	1	5
465.013	1	-4
465.183	1	-4
465.354	1	-3
465.524	1	-6
465.695	1	-6
465.865	1	-7
466.036	1	-9
466.206	1	7
466.376	1	-9
466.547	1	7
466.717	1	-6
466.888	1	8
467.058	1	-7
467.229	1	-8
467.399	1	-3
467.569	1	6
467.740	1	1
467.910	1	-2
468.081	1	1
468.251	1	-1
468.422	1	-4
468.592	1	-3
468.762	1	-12
468.933	1	-2
469.103	1	-9
469.274	1	8
469.444	1	-7
469.614	1	7
469.785	1	-14
469.955	1	-2
470.126	1	-9
470.296	1	1
470.467	1	-10
470.637	1	-6
470.807	1	-5
470.978	1	-6
471.148	1	2
471.319	1	-5
471.489	1	-1
471.659	1	-2
471.830	1	-1
472.000	1	5
472.171	1	-4
472.341	1	-2
472.511	1	-11
472.682	1	0
472.852	1	-3
473.023	1	3
473.193	1	3
473.363	1	-4
473.534	1	3
473.704	1	-3
473.875	1	8
474.045	1	-3
474.215	1	13
474.386	1	9
474.556	1	-1
474.727	1	-2
474.897	1	0
475.067	1	-8
475.238	1	2
475.408	1	-3
475.578	1	-1
475.749	1	-5
475.919	1	2
476.090	1	-5
476.260	1	4
476.430	1	-3
476.601	1	9
476.771	1	-11
476.942	1	6
477.112	1	-1
477.282	1	-6
477.453	1	-3
477.623	1	-7
477.793	1	5
477.964	1	0
478.134	1	-6
478.305	1	-2
478.475	1	1
478.645	1	-3
478.816	1	-1
478.986	1	-1
479.156	1	-2
479.327	1	-6
479.497	1	5
479.667	1	-4
479.838	1	0
480.008	1	-3
480.179	1	1
480.349	1	-5
480.519	1	0
480.690	1	-1
480.860	1	-2
481.030	1	-10
481.201	1	-3
481.371	1	2
481.541	1	-11
481.712	1	-1
481.882	1	4
482.053	1	7
482.223	1	-5
482.393	1	0
482.564	1	-6
482.734	1	-9
482.904	1	-9
483.075	1	-7
483.245	1	0
483.415	1	-8
483.586	1	-2
483.756	1	0
483.926	1	4
484.097	1	6
484.267	1	-8
484.437	1	1
484.608	1	10
484.778	1	11
484.948	1	-6
485.119	1	-9
485.289	1	-2
485.459	1	5
485.630	1	3
485.800	1	-5
485.970	1	-5
486.141	1	-2
486.311	1	4
486.481	1	0
486.652	1	4
486.822	1	13
486.992	1	6
487.163	1	-4
487.333	1	-3
487.503	1	2
487.674	1	4
487.844	1	0
488.014	1	-7
488.185	1	12
488.355	1	1
488.525	1	-1
488.696	1	-8
488.866	1	1
489.036	1	-1
489.207	1	-11
489.377	1	-7
489.547	1	1
489.718	1	2
489.888	1	-5
490.058	1	-3
490.228	1	-9
490.399	1	-4
490.569	1	5
490.739	1	3
490.910	1	4
491.080	1	7
491.250	1	-7
491.421	1	-8
491.591	1	-4
491.761	1	-4
491.932	1	-4
492.102	1	-7
492.272	1	-3
492.442	1	4
492.613	1	-12
492.783	1	-1
492.953	1	-6
493.124	1	1
493.294	1	-5
493.464	1	5
493.635	1	-2
493.805	1	-6
493.975	1	-4
494.145	1	3
494.316	1	7
494.486	1	0
494.656	1	-6
494.827	1	6
494.997	1	-2
495.167	1	-4
495.337	1	10
495.508	1	-2
495.678	1	-8
495.848	1	8
496.019	1	-13
496.189	1	5
496.359	1	-8
496.529	1	-1
496.700	1	0
496.870	1	7
497.040	1	-10
497.211	1	-2
497.381	1	-7
497.551	1	1
497.721	1	-1
497.892	1	-6
498.062	1	5
498.232	1	-11
498.403	1	0
498.573	1	-11
498.743	1	2
498.913	1	-7
499.084	1	1
499.254	1	-2
499.424	1	-4
499.594	1	6
499.765	1	-5
499.935	1	2
500.105	1	-1
500.275	1	2
500.446	1	-7
500.616	1	-3
500.786	1	-5
500.956	1	-11
501.127	1	-3
501.297	1	-7
501.467	1	-6
501.638	1	-8
501.808	1	-1
501.978	1	5
502.148	1	9
502.319	1	-1
502.489	1	-2
502.659	1	0
502.829	1	-6
503.000	1	-12
503.170	1	6
503.340	1	5
503.510	1	-6
503.681	1	-9
503.851	1	-7
504.021	1	-3
504.191	1	11
504.362	1	-2
504.532	1	1
504.702	1	-8
504.872	1	3
505.042	1	-13
505.213	1	9
505.383	1	7
505.553	1	-11
505.723	1	0
505.894	1	-5
506.064	1	-1
506.234	1	7
506.404	1	0
506.575	1	0
506.745	1	-2
506.915	1	7
507.085	1	-2
507.256	1	7
507.426	1	8
507.596	1	-5
507.766	1	-1
507.936	1	-3
508.107	1	3
508.277	1	-9
508.447	1	2
508.617	1	-4
508.788	1	6
508.958	1	-12
509.128	1	-2
509.298	1	-4
509.468	1	-11
509.639	1	-10
509.809	1	1
509.979	1	-3
510.149	1	0
510.319	1	-5
510.490	1	8
510.660	1	1
510.830	1	6
511.000	1	2
511.171	1	-1
511.341	1	0
511.511	1	1
511.681	1	6
511.851	1	-2
512.022	1	-8
512.192	1	4
512.362	1	-11
512.532	1	-9
512.702	1	-5
512.873	1	9
513.043	1	4
513.213	1	-3
513.383	1	-7
513.553	1	-2
513.724	1	-5
513.894	1	-7
514.064	1	4
514.234	1	-2
514.404	1	2
514.575	1	7
514.745	1	-5
514.915	1	2
515.085	1	-1
515.255	1	-2
515.425	1	-14
515.596	1	1
515.766	1	-7
515.936	1	-7
516.106	1	2
516.276	1	-9
516.447	1	8
516.617	1	9
516.787	1	3
516.957	1	1
517.127	1	-8
517.297	1	1
517.468	1	1
517.638	1	4
517.808	1	-9
517.978	1	2
518.148	1	-4
518.319	1	-8
518.489	1	-7
518.659	1	-13
518.829	1	4
518.999	1	4
519.169	1	0
519.340	1	7
519.510	1	-3
519.680	1	-2
519.850	1	3
520.020	1	1
520.190	1	-2
520.361	1	-6
520.531	1	0
520.701	1	-1
520.871	1	8
521.041	1	8
521.211	1	-16
521.382	1	-12
521.552	1	10
521.722	1	-5
521.892	1	1
522.062	1	6
522.232	1	1
522.402	1	-4
522.573	1	1
522.743	1	-2
522.913	1	6
523.083	1	-5
523.253	1	-5
523.423	1	3
523.593	1	2
523.764	1	3
523.934	1	4
524.104	1	-3
524.274	1	0
524.444	1	-2
524.614	1	-10
524.784	1	-5
524.955	1	-3
525.125	1	9
525.295	1	3
525.465	1	6
525.635	1	1
525.805	1	-10
525.975	1	3
526.146	1	-5
526.316	1	16
526.486	1	2
526.656	1	7
526.826	1	2
526.996	1	8
527.166	1	1
527.337	1	-7
527.507	1	2
527.677	1	6
527.847	1	-2
528.017	1	-2
528.187	1	-2
528.357	1	2
528.527	1	12
528.698	1	-2
528.868	1	1
529.038	1	-2
529.208	1	4
529.378	1	-4
529.548	1	-4
529.718	1	9
529.888	1	7
530.058	1	0
530.229	1	1
530.399	1	7
530.569	1	-17
530.739	1	-6
530.909	1	-3
531.079	1	0
531.249	1	-4
531.419	1	4
531.589	1	-2
531.760	1	3
531.930	1	-2
532.100	1	0
532.270	1	-1
532.440	1	-12
532.610	1	0
532.780	1	-6
532.950	1	-3
533.120	1	-3
533.290	1	3
533.461	1	-1
533.631	1	10
533.801	1	14
533.971	1	-8
534.141	1	-13
534.311	1	9
534.481	1	-13
534.651	1	-10
534.821	1	-7
534.991	1	1
535.162	1	-10
535.332	1	1
535.502	1	-7
535.672	1	9
535.842	1	-2
536.012	1	-8
536.182	1	-4
536.352	1	-1
536.522	1	-2
536.692	1	-3
536.862	1	-1
537.032	1	11
537.203	1	-11
537.373	1	0
537.543	1	-6
537.713	1	5
537.883	1	-1
538.053	1	-3
538.223	1	-1
538.393	1	11
538.563	1	11
538.733	1	10
538.903	1	-5
539.073	1	3
539.243	1	-1
539.413	1	-4
539.584	1	-1
539.754	1	-2
539.924	1	10
540.094	1	-2
540.264	1	1
540.434	1	0
540.604	1	9
540.774	1	10
540.944	1	-5
541.114	1	-6
541.284	1	0
541.454	1	6
541.624	1	5
541.794	1	-10
541.964	1	-3
542.134	1	11
542.305	1	8
542.475	1	9
542.645	1	4
542.815	1	1
542.985	1	-2
543.155	1	-4
543.325	1	-3
543.495	1	0
543.665	1	4
543.835	1	8
544.005	1	6
544.175	1	-9
544.345	1	-5
544.515	1	2
544.685	1	-3
544.855	1	3
545.025	1	-2
545.195	1	-1
545.365	1	-5
545.535	1	4
545.705	1	0
545.875	1	-5
546.045	1	-14
546.216	1	16
546.386	1	-3
546.556	1	1
546.726	1	-20
546.896	1	-2
547.066	1	-7
547.236	1	2
547.406	1	2
547.576	1	7
547.746	1	-14
547.916	1	-7
548.086	1	-3
548.256	1	-4
548.426	1	0
548.596	1	-5
548.766	1	-3
548.936	1	5
549.106	1	1
549.276	1	-3
549.446	1	-7
549.616	1	6
549.786	1	0
549.956	1	8
550.126	1	11
550.296	1	1
550.466	1	9
550.636	1	13
550.806	1	-2
550.976	1	0
551.146	1	1
551.316	1	3
551.486	1	0
551.656	1	-3
551.826	1	5
551.996	1	5
552.166	1	8
552.336	1	7
552.506	1	4
552.676	1	16
552.846	1	-4
553.016	1	2
553.186	1	10
553.356	1	0
553.526	1	3
553.696	1	-4
553.866	1	1
554.036	1	2
554.206	1	8
554.376	1	3
554.546	1	-2
554.716	1	8
554.886	1	4
555.056	1	6
555.226	1	-2
555.396	1	-1
555.566	1	7
555.736	1	-9
555.906	1	5
556.076	1	-2
556.246	1	2
556.416	1	-8
556.586	1	-1
556.756	1	1
556.926	1	4
557.096	1	-7
557.266	1	-6
557.436	1	-5
557.606	1	0
557.776	1	4
557.946	1	11
558.116	1	-2
558.286	1	2
558.456	1	-3
558.626	1	4
558.796	1	8
558.966	1	2
559.136	1	-6
559.306	1	3
559.476	1	-4
559.646	1	-11
559.816	1	-3
559.986	1	-8
560.155	1	5
560.325	1	-7
560.495	1	2
560.665	1	-2
560.835	1	-1
561.005	1	-7
561.175	1	4
561.345	1	3
561.515	1	-13
561.685	1	2
561.855	1	-9
562.025	1	4
562.195	1	4
562.365	1	2
562.535	1	-11
562.705	1	-7
562.875	1	2
563.045	1	2
563.215	1	7
563.385	1	-10
563.555	1	-3
563.725	1	3
563.895	1	5
564.064	1	-5
564.234	1	-10
564.404	1	6
564.574	1	5
564.744	1	2
564.914	1	1
565.084	1	-7
565.254	1	9
565.424	1	-11
565.594	1	3
565.764	1	-12
565.934	1	3
566.104	1	2
566.274	1	5
566.444	1	-4
566.614	1	3
566.783	1	-1
566.953	1	9
567.123	1	-3
567.293	1	7
567.463	1	9
567.633	1	-1
567.803	1	-9
567.973	1	-19
568.143	1	-1
568.313	1	2
568.483	1	-3
568.653	1	2
568.823	1	-4
568.993	1	-4
569.162	1	10
569.332	1	-2
569.502	1	8
569.672	1	6
569.842	1	-3
570.012	1	3
570.182	1	3
570.352	1	-6
570.522	1	-17
570.692	1	2
570.862	1	-1
571.031	1	5
571.201	1	6
571.371	1	-11
571.541	1	1
571.711	1	-4
571.881	1	14
572.051	1	-11
572.221	1	-13
572.391	1	-13
572.561	1	-5
572.731	1	2
572.900	1	0
573.070	1	4
573.240	1	0
573.410	1	8
573.580	1	-3
573.750	1	0
573.920	1	-1
574.090	1	2
574.260	1	13
574.430	1	-1
574.599	1	3
574.769	1	-3
574.939	1	3
575.109	1	4
575.279	1	7
575.449	1	-4
575.619	1	3
575.789	1	-6
575.959	1	3
576.128	1	-10
576.298	1	15
576.468	1	0
576.638	1	-10
576.808	1	6
576.978	1	10
577.148	1	1
577.318	1	0
577.487	1	-1
577.657	1	-4
577.827	1	-2
577.997	1	-6
578.167	1	-3
578.337	1	3
578.507	1	2
578.677	1	7
578.846	1	3
579.016	1	2
579.186	1	-5
579.356	1	-3
579.526	1	2
579.696	1	6
579.866	1	-3
580.036	1	-2
580.205	1	-6
580.375	1	1
580.545	1	-4
580.715	1	-6
580.885	1	1
581.055	1	-6
581.225	1	7
581.394	1	-3
581.564	1	6
581.734	1	-8
581.904	1	6
582.074	1	0
582.244	1	-4
582.414	1	9
582.583	1	5
582.753	1	-7
582.923	1	1
583.093	1	-3
583.263	1	8
583.433	1	-6
583.603	1	14
583.772	1	2
583.942	1	-7
584.112	1	-8
584.282	1	-4
584.452	1	0
584.622	1	-3
584.791	1	-9
584.961	1	8
585.131	1	11
585.301	1	-7
585.471	1	3
585.641	1	-1
585.811	1	11
585.980	1	5
586.150	1	-2
586.320	1	-5
586.490	1	2
586.660	1	-1
586.830	1	-4
586.999	1	2
587.169	1	0
587.339	1	-7
587.509	1	0
587.679	1	12
587.849	1	2
588.018	1	1
588.188	1	13
588.358	1	-4
588.528	1	6
588.698	1	5
588.867	1	-4
589.037	1	7
589.207	1	-9
589.377	1	2
589.547	1	2
589.717	1	-4
589.886	1	-8
590.056	1	-2
590.226	1	6
590.396	1	3
590.566	1	-7
590.735	1	2
590.905	1	-1
591.075	1	-2
591.245	1	-2
591.415	1	1
591.585	1	11
591.754	1	0
591.924	1	8
592.094	1	7
592.264	1	9
592.434	1	-6
592.603	1	0
592.773	1	1
592.943	1	2
593.113	1	2
593.283	1	0
593.452	1	7
593.622	1	-5
593.792	1	3
593.962	1	5
594.132	1	1
594.301	1	-2
594.471	1	16
594.641	1	-4
594.811	1	4
594.981	1	-1
595.150	1	-1
595.320	1	7
595.490	1	-1
595.660	1	2
595.829	1	-13
595.999	1	-3
596.169	1	8
596.339	1	8
596.509	1	-5
596.678	1	-3
596.848	1	-4
597.018	1	4
597.188	1	-1
597.358	1	5
597.527	1	-18
597.697	1	-5
597.867	1	-8
598.037	1	-6
598.206	1	0
598.376	1	4
598.546	1	-2
598.716	1	-2
598.885	1	-13
599.055	1	6
599.225	1	-7
599.395	1	1
599.565	1	-3
599.734	1	4
599.904	1	6
600.074	1	2
600.244	1	-7
600.413	1	9
600.583	1	11
600.753	1	-2
600.923	1	-5
601.092	1	16
601.262	1	4
601.432	1	-5
601.602	1	6
601.771	1	8
601.941	1	-2
602.111	1	3
602.281	1	-3
602.451	1	15
602.620	1	2
602.790	1	1
602.960	1	-9
603.130	1	1
603.299	1	-6
603.469	1	-8
603.639	1	-6
603.809	1	6
603.978	1	3
604.148	1	9
604.318	1	-5
604.487	1	0
604.657	1	-1
604.827	1	1
604.997	1	-5
605.166	1	3
605.336	1	-3
605.506	1	7
605.676	1	-17
605.845	1	1
606.015	1	3
606.185	1	12
606.355	1	3
606.524	1	-6
606.694	1	-3
606.864	1	-3
607.034	1	-6
607.203	1	-4
607.373	1	-1
607.543	1	-4
607.712	1	-15
607.882	1	3
608.052	1	5
608.222	1	9
608.391	1	-2
608.561	1	1
608.731	1	-6
608.901	1	6
609.070	1	2
609.240	1	-5
609.410	1	7
609.579	1	-1
609.749	1	-1
609.919	1	3
610.089	1	5
610.258	1	7
610.428	1	-9
610.598	1	-8
610.767	1	2
610.937	1	8
611.107	1	-6
611.277	1	-5
611.446	1	9
611.616	1	-7
611.786	1	3
611.955	1	2
612.125	1	-8
612.295	1	-5
612.465	1	3
612.634	1	2
612.804	1	2
612.974	1	-14
613.143	1	-2
613.313	1	8
613.483	1	10
613.652	1	6
613.822	1	-7
613.992	1	1
614.162	1	1
614.331	1	-1
614.501	1	6
614.671	1	5
614.840	1	-2
615.010	1	-8
615.180	1	-3
615.349	1	4
615.519	1	-7
615.689	1	10
615.858	1	1
616.028	1	2
616.198	1	-2
616.368	1	1
616.537	1	-6
616.707	1	-1
616.877	1	4
617.046	1	7
617.216	1	-5
617.386	1	4
617.555	1	-5
617.725	1	-7
617.895	1	-9
618.064	1	1
618.234	1	0
618.404	1	2
618.573	1	-5
618.743	1	-4
618.913	1	0
619.082	1	-6
619.252	1	1
619.422	1	-13
619.591	1	-2
619.761	1	7
619.931	1	9
620.100	1	3
620.270	1	-11
620.440	1	-2
620.609	1	-6
620.779	1	-8
620.949	1	5
621.118	1	1
621.288	1	0
621.458	1	-3
621.627	1	1
621.797	1	-5
621.967	1	-3
622.136	1	6
622.306	1	-11
622.476	1	4
622.645	1	7
622.815	1	3
622.985	1	-7
623.154	1	9
623.324	1	1
623.494	1	14
623.663	1	-3
623.833	1	0
624.002	1	-10
624.172	1	-9
624.342	1	-1
624.511	1	9
624.681	1	3
624.851	1	-4
625.020	1	-2
625.190	1	5
625.360	1	6
625.529	1	4
625.699	1	-3
625.869	1	1
626.038	1	0
626.208	1	-6
626.377	1	9
626.547	1	-3
626.717	1	-3
626.886	1	-2
627.056	1	-7
627.226	1	2
627.395	1	9
627.565	1	1
627.735	1	4
627.904	1	-8
628.074	1	0
628.243	1	2
628.413	1	4
628.583	1	-4
628.752	1	-1
628.922	1	10
629.091	1	3
629.261	1	6
629.431	1	-21
629.600	1	5
629.770	1	-15
629.940	1	7
630.109	1	-14
630.279	1	-3
630.448	1	-2
630.618	1	-4
630.788	1	8
630.957	1	0
631.127	1	-1
631.297	1	0
631.466	1	-4
631.636	1	-15
631.805	1	5
631.975	1	7
632.145	1	1
632.314	1	-3
632.484	1	-9
632.653	1	-1
632.823	1	-13
632.993	1	-3
633.162	1	-5
633.332	1	2
633.501	1	-4
633.671	1	-4
633.841	1	-18
634.010	1	-6
634.180	1	1
634.349	1	-1
634.519	1	-14
634.689	1	-2
634.858	1	-2
635.028	1	5
635.197	1	5
635.367	1	7
635.537	1	-8
635.706	1	6
635.876	1	1
636.045	1	15
636.215	1	-1
636.384	1	-7
636.554	1	3
636.724	1	3
636.893	1	-10
637.063	1	1
637.232	1	-6
637.402	1	7
637.572	1	-4
637.741	1	0
637.911	1	-1
638.080	1	1
638.250	1	2
638.419	1	-6
638.589	1	0
638.759	1	-2
638.928	1	-7
639.098	1	6
639.267	1	1
639.437	1	0
639.606	1	0
639.776	1	-7
639.946	1	3
640.115	1	3
640.285	1	3
640.454	1	-8
640.624	1	-2
640.793	1	4
640.963	1	-2
641.132	1	11
641.302	1	1
641.472	1	2
641.641	1	-17
641.811	1	-4
641.980	1	-4
642.150	1	-4
642.319	1	1
642.489	1	6
642.659	1	4
642.828	1	-4
642.998	1	3
643.167	1	-6
643.337	1	3
643.506	1	-13
643.676	1	-5
643.845	1	0
644.015	1	7
644.184	1	-2
644.354	1	0
644.524	1	-7
644.693	1	7
644.863	1	-7
645.032	1	-8
645.202	1	4
645.371	1	-4
645.541	1	-9
645.710	1	-6
645.880	1	5
646.049	1	-12
646.219	1	-1
646.388	1	-9
646.558	1	-8
646.728	1	-2
646.897	1	0
647.067	1	-1
647.236	1	-3
647.406	1	0
647.575	1	2
647.745	1	3
647.914	1	-13
648.084	1	-1
648.253	1	5
648.423	1	-5
648.592	1	-4
648.762	1	-3
648.931	1	16
649.101	1	-4
649.270	1	2
649.440	1	-13
649.610	1	3
649.779	1	-3
649.949	1	-17
650.118	1	5
650.288	1	-3
650.457	1	4
650.627	1	-5
650.796	1	1
650.966	1	5
651.135	1	-5
651.305	1	1
651.474	1	-8
651.644	1	5
651.813	1	-1
651.983	1	1
652.152	1	4
652.322	1	-7
652.491	1	3
652.661	1	-7
652.830	1	1
653.000	1	-2
653.169	1	0
653.339	1	7
653.508	1	-1
653.678	1	3
653.847	1	5
654.017	1	-3
654.186	1	-2
654.356	1	-3
654.525	1	-2
654.695	1	5
654.864	1	3
655.034	1	7
655.203	1	-7
655.373	1	2
655.542	1	-2
655.712	1	2
655.881	1	-8
656.051	1	-4
656.220	1	-7
656.390	1	5
656.559	1	-5
656.729	1	7
656.898	1	-9
657.068	1	5
657.237	1	-6
657.406	1	6
657.576	1	1
657.745	1	-7
657.915	1	-13
658.084	1	5
658.254	1	-7
658.423	1	-2
658.593	1	2
658.762	1	-6
658.932	1	4
659.101	1	9
659.271	1	-5
659.440	1	1
659.610	1	-7
659.779	1	1
659.949	1	-5
660.118	1	6
660.288	1	4
660.457	1	-8
660.626	1	6
660.796	1	1
660.965	1	9
661.135	1	-4
661.304	1	-1
661.474	1	0
661.643	1	1
661.813	1	13
661.982	1	15
662.152	1	6
662.321	1	10
662.491	1	-14
662.660	1	6
662.829	1	-12
662.999	1	-6
663.168	1	-2
663.338	1	14
663.507	1	3
663.677	1	3
663.846	1	-13
664.016	1	2
664.185	1	3
664.354	1	1
664.524	1	-2
664.693	1	-1
664.863	1	2
665.032	1	-4
665.202	1	8
665.371	1	2
665.541	1	-7
665.710	1	-5
665.879	1	-3
666.049	1	-7
666.218	1	0
666.388	1	5
666.557	1	-5
666.727	1	-7
666.896	1	-7
667.065	1	8
667.235	1	7
667.404	1	6
667.574	1	-1
667.743	1	-6
667.913	1	-4
668.082	1	-4
668.251	1	-11
668.421	1	-1
668.590	1	0
668.760	1	-3
668.929	1	-15
669.099	1	-3
669.268	1	3
669.437	1	0
669.607	1	-4
669.776	1	-10
669.946	1	4
670.115	1	3
670.285	1	12
670.454	1	5
670.623	1	0
670.793	1	-1
670.962	1	2
671.132	1	10
671.301	1	-1
671.470	1	-1
671.640	1	-11
671.809	1	-4
671.979	1	2
672.148	1	0
672.317	1	3
672.487	1	3
672.656	1	0
672.826	1	8
672.995	1	-3
673.164	1	6
673.334	1	-3
673.503	1	5
673.673	1	3
673.842	1	-5
674.011	1	4
674.181	1	7
674.350	1	-1
674.520	1	-1
674.689	1	-4
674.858	1	6
675.028	1	-4
675.197	1	-10
675.367	1	7
675.536	1	5
675.705	1	-3
675.875	1	-5
676.044	1	-3
676.214	1	-3
676.383	1	1
676.552	1	-2
676.722	1	1
676.891	1	2
677.060	1	-3
677.230	1	-2
677.399	1	-18
677.569	1	2
677.738	1	1
677.907	1	1
678.077	1	-1
678.246	1	-1
678.416	1	0
678.585	1	-8
678.754	1	-3
678.924	1	-4
679.093	1	4
679.262	1	6
679.432	1	0
679.601	1	1
679.771	1	0
679.940	1	-9
680.109	1	7
680.279	1	-6
680.448	1	0
680.617	1	-6
680.787	1	0
680.956	1	3
681.125	1	-3
681.295	1	-3
681.464	1	-7
681.634	1	-4
681.803	1	-3
681.972	1	-9
682.142	1	7
682.311	1	-3
682.480	1	15
682.650	1	-3
682.819	1	4
682.988	1	-2
683.158	1	0
683.327	1	-10
683.496	1	0
683.666	1	-8
683.835	1	1
684.004	1	-1
684.174	1	1
684.343	1	-8
684.512	1	3
684.682	1	-18
684.851	1	6
685.021	1	-9
685.190	1	-7
685.359	1	3
685.529	1	4
685.698	1	2
685.867	1	-7
686.037	1	3
686.206	1	-6
686.375	1	12
686.545	1	-17
686.714	1	-2
686.883	1	-6
687.053	1	-6
687.222	1	10
687.391	1	2
687.561	1	6
687.730	1	2
687.899	1	-8
688.069	1	4
688.238	1	-5
688.407	1	-1
688.577	1	-7
688.746	1	-4
