340.368	1	4
340.539	1	-2
340.710	1	3
340.881	1	-7
341.052	1	3
341.223	1	10
341.394	1	4
341.565	1	0
341.737	1	12
341.908	1	9
342.079	1	2
342.250	1	-2
342.421	1	12
342.592	1	10
342.763	1	15
342.934	1	4
343.105	1	10
343.276	1	15
343.447	1	11
343.618	1	8
343.789	1	0
343.960	1	12
344.131	1	8
344.302	1	16
344.473	1	4
344.644	1	11
344.815	1	18
344.986	1	6
345.157	1	5
345.328	1	18
345.499	1	0
345.670	1	6
345.841	1	16
346.012	1	20
346.183	1	10
346.354	1	10
346.526	1	14
346.697	1	9
346.868	1	18
347.039	1	27
347.210	1	1
347.381	1	8
347.552	1	18
347.723	1	6
347.894	1	16
348.065	1	13
348.236	1	19
348.407	1	20
348.578	1	23
348.749	1	17
348.920	1	3
349.091	1	9
349.262	1	18
349.433	1	13
349.604	1	12
349.775	1	41
349.946	1	13
350.117	1	20
350.288	1	28
350.459	1	12
350.630	1	15
350.801	1	29
350.972	1	22
351.143	1	19
351.314	1	26
351.485	1	31
351.656	1	20
351.827	1	28
351.998	1	24
352.169	1	22
352.340	1	27
352.511	1	14
352.682	1	31
352.853	1	27
353.024	1	23
353.195	1	33
353.366	1	38
353.537	1	23
353.708	1	33
353.879	1	20
354.050	1	24
354.221	1	21
354.392	1	26
354.563	1	40
354.734	1	45
354.905	1	51
355.076	1	36
355.247	1	53
355.418	1	31
355.589	1	40
355.760	1	41
355.931	1	57
356.102	1	47
356.273	1	51
356.444	1	59
356.615	1	54
356.785	1	66
356.956	1	75
357.127	1	60
357.298	1	70
357.469	1	69
357.640	1	70
357.811	1	56
357.982	1	68
358.153	1	82
358.324	1	81
358.495	1	75
358.666	1	88
358.837	1	82
359.008	1	91
359.179	1	105
359.350	1	101
359.521	1	110
359.692	1	114
359.863	1	130
360.034	1	121
360.205	1	133
360.376	1	143
360.547	1	176
360.718	1	154
360.889	1	158
361.060	1	169
361.231	1	183
361.401	1	214
361.572	1	228
361.743	1	228
361.914	1	244
362.085	1	274
362.256	1	266
362.427	1	300
362.598	1	307
362.769	1	339
362.940	1	353
363.111	1	371
363.282	1	400
363.453	1	430
363.624	1	450
363.795	1	503
363.966	1	536
364.137	1	554
364.308	1	595
364.478	1	648
364.649	1	677
364.820	1	714
364.991	1	814
365.162	1	845
365.333	1	900
365.504	1	987
365.675	1	1043
365.846	1	1092
366.017	1	1170
366.188	1	1235
366.359	1	1336
366.530	1	1397
366.701	1	1480
366.871	1	1569
367.042	1	1693
367.213	1	1755
367.384	1	1844
367.555	1	1933
367.726	1	1982
367.897	1	2140
368.068	1	2176
368.239	1	2278
368.410	1	2335
368.581	1	2411
368.752	1	2471
368.923	1	2564
369.093	1	2571
369.264	1	2622
369.435	1	2647
369.606	1	2664
369.777	1	2679
369.948	1	2678
370.119	1	2696
370.290	1	2661
370.461	1	2650
370.632	1	2563
370.803	1	2596
370.973	1	2471
371.144	1	2455
371.315	1	2408
371.486	1	2369
371.657	1	2270
371.828	1	2200
371.999	1	2134
372.170	1	2057
372.341	1	2007
372.512	1	1935
372.682	1	1828
372.853	1	1804
373.024	1	1724
373.195	1	1662
373.366	1	1574
373.537	1	1571
373.708	1	1515
373.879	1	1429
374.050	1	1417
374.220	1	1378
374.391	1	1342
374.562	1	1333
374.733	1	1274
374.904	1	1262
375.075	1	1222
375.246	1	1187
375.417	1	1154
375.588	1	1125
375.758	1	1069
375.929	1	1046
376.100	1	1014
376.271	1	995
376.442	1	946
376.613	1	925
376.784	1	892
376.955	1	836
377.125	1	862
377.296	1	799
377.467	1	787
377.638	1	771
377.809	1	762
377.980	1	706
378.151	1	702
378.321	1	686
378.492	1	641
378.663	1	632
378.834	1	609
379.005	1	605
379.176	1	564
379.347	1	544
379.518	1	521
379.688	1	523
379.859	1	496
380.030	1	470
380.201	1	454
380.372	1	437
380.543	1	438
380.714	1	431
380.884	1	407
381.055	1	402
381.226	1	387
381.397	1	375
381.568	1	377
381.739	1	373
381.910	1	363
382.080	1	349
382.251	1	332
382.422	1	334
382.593	1	317
382.764	1	305
382.935	1	306
383.105	1	306
383.276	1	322
383.447	1	294
383.618	1	307
383.789	1	290
383.960	1	293
384.130	1	284
384.301	1	272
384.472	1	263
384.643	1	297
384.814	1	266
384.985	1	261
385.156	1	260
385.326	1	269
385.497	1	244
385.668	1	268
385.839	1	252
386.010	1	254
386.180	1	240
386.351	1	231
386.522	1	246
386.693	1	213
386.864	1	221
387.035	1	217
387.205	1	220
387.376	1	228
387.547	1	212
387.718	1	209
387.889	1	200
388.060	1	206
388.230	1	197
388.401	1	168
388.572	1	168
388.743	1	174
388.914	1	187
389.084	1	147
389.255	1	159
389.426	1	149
389.597	1	148
389.768	1	151
389.939	1	157
390.109	1	133
390.280	1	171
390.451	1	131
390.622	1	133
390.793	1	133
390.963	1	137
391.134	1	147
391.305	1	138
391.476	1	131
391.647	1	128
391.817	1	137
391.988	1	130
392.159	1	129
392.330	1	127
392.501	1	125
392.671	1	108
392.842	1	127
393.013	1	115
393.184	1	116
393.355	1	107
393.525	1	104
393.696	1	107
393.867	1	104
394.038	1	106
394.208	1	110
394.379	1	94
394.550	1	103
394.721	1	92
394.892	1	93
395.062	1	99
395.233	1	80
395.404	1	79
395.575	1	92
395.746	1	86
395.916	1	80
396.087	1	82
396.258	1	84
396.429	1	88
396.599	1	88
396.770	1	87
396.941	1	85
397.112	1	91
397.283	1	83
397.453	1	91
397.624	1	83
397.795	1	94
397.966	1	92
398.136	1	80
398.307	1	84
398.478	1	85
398.649	1	77
398.819	1	84
398.990	1	78
399.161	1	89
399.332	1	72
399.503	1	75
399.673	1	80
399.844	1	78
400.015	1	74
400.186	1	74
400.356	1	51
400.527	1	69
400.698	1	66
400.869	1	62
401.039	1	80
401.210	1	64
401.381	1	66
401.552	1	56
401.722	1	67
401.893	1	64
402.064	1	47
402.235	1	64
402.405	1	56
402.576	1	58
402.747	1	58
402.918	1	54
403.088	1	57
403.259	1	50
403.430	1	48
403.601	1	47
403.771	1	49
403.942	1	60
404.113	1	42
404.284	1	53
404.454	1	51
404.625	1	52
404.796	1	49
404.967	1	51
405.137	1	57
405.308	1	58
405.479	1	49
405.649	1	48
405.820	1	43
405.991	1	42
406.162	1	57
406.332	1	47
406.503	1	50
406.674	1	51
406.845	1	52
407.015	1	50
407.186	1	50
407.357	1	47
407.527	1	34
407.698	1	52
407.869	1	46
408.040	1	45
408.210	1	48
408.381	1	49
408.552	1	42
408.722	1	31
408.893	1	44
409.064	1	37
409.235	1	37
409.405	1	38
409.576	1	34
409.747	1	44
409.917	1	33
410.088	1	44
410.259	1	43
410.430	1	50
410.600	1	39
410.771	1	40
410.942	1	46
411.112	1	34
411.283	1	42
411.454	1	31
411.625	1	37
411.795	1	38
411.966	1	43
412.137	1	41
412.307	1	39
412.478	1	48
412.649	1	34
412.819	1	34
412.990	1	29
413.161	1	32
413.332	1	35
413.502	1	48
413.673	1	38
413.844	1	39
414.014	1	33
414.185	1	38
414.356	1	33
414.526	1	26
414.697	1	42
414.868	1	39
415.038	1	35
415.209	1	31
415.380	1	17
415.550	1	26
415.721	1	30
415.892	1	27
416.063	1	32
416.233	1	35
416.404	1	36
416.575	1	46
416.745	1	23
416.916	1	32
417.087	1	39
417.257	1	34
417.428	1	24
417.599	1	29
417.769	1	36
417.940	1	31
418.111	1	40
418.281	1	32
418.452	1	28
418.623	1	32
418.793	1	30
418.964	1	26
419.135	1	25
419.305	1	28
419.476	1	32
419.647	1	25
419.817	1	38
419.988	1	39
420.159	1	38
420.329	1	22
420.500	1	29
420.671	1	39
420.841	1	41
421.012	1	28
421.183	1	26
421.353	1	25
421.524	1	19
421.695	1	24
421.865	1	33
422.036	1	31
422.206	1	33
422.377	1	30
422.548	1	12
422.718	1	37
422.889	1	16
423.060	1	18
423.230	1	28
423.401	1	30
423.572	1	32
423.742	1	28
423.913	1	26
424.084	1	20
424.254	1	25
424.425	1	24
424.595	1	23
424.766	1	18
424.937	1	22
425.107	1	27
425.278	1	32
425.449	1	30
425.619	1	38
425.790	1	19
425.961	1	21
426.131	1	27
426.302	1	29
426.472	1	32
426.643	1	38
426.814	1	33
426.984	1	23
427.155	1	13
427.326	1	35
427.496	1	14
427.667	1	25
427.837	1	18
428.008	1	32
428.179	1	11
428.349	1	5
428.520	1	24
428.691	1	27
428.861	1	15
429.032	1	31
429.202	1	19
429.373	1	29
429.544	1	31
429.714	1	19
429.885	1	29
430.055	1	25
430.226	1	12
430.397	1	26
430.567	1	25
430.738	1	23
430.909	1	24
431.079	1	25
431.250	1	26
431.420	1	28
431.591	1	34
431.762	1	27
431.932	1	17
432.103	1	23
432.273	1	24
432.444	1	18
432.615	1	16
432.785	1	23
432.956	1	15
433.126	1	20
433.297	1	26
433.468	1	8
433.638	1	15
433.809	1	25
433.979	1	19
434.150	1	23
434.320	1	19
434.491	1	19
434.662	1	20
434.832	1	25
435.003	1	23
435.173	1	16
435.344	1	18
435.515	1	33
435.685	1	22
435.856	1	22
436.026	1	25
436.197	1	29
436.368	1	27
436.538	1	6
436.709	1	25
436.879	1	14
437.050	1	20
437.220	1	31
437.391	1	23
437.562	1	22
437.732	1	19
437.903	1	14
438.073	1	15
438.244	1	26
438.414	1	7
438.585	1	19
438.756	1	21
438.926	1	14
439.097	1	10
439.267	1	21
439.438	1	18
439.608	1	8
439.779	1	19
439.949	1	22
440.120	1	10
440.291	1	22
440.461	1	8
440.632	1	20
440.802	1	13
440.973	1	16
441.143	1	27
441.314	1	11
441.485	1	24
441.655	1	20
441.826	1	16
441.996	1	8
442.167	1	19
442.337	1	15
442.508	1	6
442.678	1	4
442.849	1	22
443.019	1	13
443.190	1	16
443.361	1	14
443.531	1	25
443.702	1	19
443.872	1	28
444.043	1	16
444.213	1	12
444.384	1	3
444.554	1	23
444.725	1	13
444.895	1	18
445.066	1	7
445.237	1	11
445.407	1	18
445.578	1	4
445.748	1	25
445.919	1	7
446.089	1	31
446.260	1	17
446.430	1	19
446.601	1	15
446.771	1	31
446.942	1	21
447.112	1	12
447.283	1	5
447.453	1	19
447.624	1	26
447.794	1	11
447.965	1	23
448.135	1	22
448.306	1	10
448.477	1	25
448.647	1	6
448.818	1	21
448.988	1	18
449.159	1	14
449.329	1	16
449.500	1	17
449.670	1	28
449.841	1	27
450.011	1	22
450.182	1	5
450.352	1	10
450.523	1	16
450.693	1	17
450.864	1	19
451.034	1	17
451.205	1	20
451.375	1	17
451.546	1	14
451.716	1	14
451.887	1	0
452.057	1	21
452.228	1	17
452.398	1	19
452.569	1	12
452.739	1	18
452.910	1	15
453.080	1	10
453.251	1	22
453.421	1	21
453.592	1	20
453.762	1	11
453.933	1	6
454.103	1	18
454.274	1	13
454.444	1	9
454.615	1	30
454.785	1	14
454.956	1	18
455.126	1	2
455.297	1	24
455.467	1	24
455.638	1	23
455.808	1	24
455.979	1	17
456.149	1	17
456.320	1	23
456.490	1	17
456.661	1	26
456.831	1	25
457.001	1	21
457.172	1	15
457.342	1	15
457.513	1	28
457.683	1	25
457.854	1	11
458.024	1	19
458.195	1	13
458.365	1	14
458.536	1	14
458.706	1	12
458.877	1	14
459.047	1	18
459.218	1	21
459.388	1	22
459.559	1	24
459.729	1	17
459.899	1	17
460.070	1	23
460.240	1	11
460.411	1	10
460.581	1	39
460.752	1	15
460.922	1	20
461.093	1	25
461.263	1	18
461.434	1	14
461.604	1	19
461.775	1	11
461.945	1	18
462.115	1	15
462.286	1	13
462.456	1	13
462.627	1	22
462.797	1	11
462.968	1	23
463.138	1	12
463.309	1	-1
463.479	1	21
463.649	1	20
463.820	1	17
463.990	1	20
464.161	1	16
464.331	1	24
464.502	1	18
464.672	1	15
464.843	1	18
465.013	1	11
465.183	1	7
465.354	1	12
465.524	1	17
465.695	1	13
465.865	1	17
466.036	1	12
466.206	1	27
466.376	1	11
466.547	1	16
466.717	1	26
466.888	1	31
467.058	1	20
467.229	1	24
467.399	1	28
467.569	1	26
467.740	1	28
467.910	1	23
468.081	1	25
468.251	1	18
468.422	1	15
468.592	1	25
468.762	1	7
468.933	1	15
469.103	1	14
469.274	1	28
469.444	1	13
469.614	1	24
469.785	1	21
469.955	1	16
470.126	1	22
470.296	1	20
470.467	1	15
470.637	1	26
470.807	1	4
470.978	1	17
471.148	1	29
471.319	1	16
471.489	1	13
471.659	1	20
471.830	1	19
472.000	1	16
472.171	1	19
472.341	1	18
472.511	1	16
472.682	1	28
472.852	1	19
473.023	1	22
473.193	1	37
473.363	1	19
473.534	1	22
473.704	1	15
473.875	1	34
474.045	1	23
474.215	1	23
474.386	1	44
474.556	1	21
474.727	1	14
474.897	1	32
475.067	1	23
475.238	1	26
475.408	1	30
475.578	1	11
475.749	1	26
475.919	1	34
476.090	1	19
476.260	1	19
476.430	1	39
476.601	1	14
476.771	1	17
476.942	1	29
477.112	1	18
477.282	1	27
477.453	1	16
477.623	1	17
477.793	1	33
477.964	1	22
478.134	1	16
478.305	1	29
478.475	1	29
478.645	1	38
478.816	1	30
478.986	1	14
479.156	1	30
479.327	1	25
479.497	1	21
479.667	1	25
479.838	1	33
480.008	1	19
480.179	1	32
480.349	1	20
480.519	1	22
480.690	1	28
480.860	1	30
481.030	1	22
481.201	1	25
481.371	1	33
481.541	1	23
481.712	1	27
481.882	1	45
482.053	1	32
482.223	1	32
482.393	1	31
482.564	1	34
482.734	1	17
482.904	1	37
483.075	1	32
483.245	1	31
483.415	1	37
483.586	1	32
483.756	1	34
483.926	1	34
484.097	1	35
484.267	1	28
484.437	1	19
484.608	1	39
484.778	1	33
484.948	1	17
485.119	1	23
485.289	1	26
485.459	1	61
485.630	1	39
485.800	1	28
485.970	1	40
486.141	1	36
486.311	1	41
486.481	1	32
486.652	1	48
486.822	1	43
486.992	1	44
487.163	1	42
487.333	1	47
487.503	1	37
487.674	1	50
487.844	1	41
488.014	1	50
488.185	1	41
488.355	1	44
488.525	1	42
488.696	1	43
488.866	1	53
489.036	1	52
489.207	1	53
489.377	1	45
489.547	1	48
489.718	1	49
489.888	1	54
490.058	1	49
490.228	1	54
490.399	1	62
490.569	1	62
490.739	1	52
490.910	1	54
491.080	1	67
491.250	1	68
491.421	1	54
491.591	1	51
491.761	1	64
491.932	1	60
492.102	1	61
492.272	1	60
492.442	1	69
492.613	1	57
492.783	1	64
492.953	1	64
493.124	1	64
493.294	1	57
493.464	1	74
493.635	1	57
493.805	1	61
493.975	1	61
494.145	1	63
494.316	1	56
494.486	1	68
494.656	1	61
494.827	1	55
494.997	1	68
495.167	1	59
495.337	1	68
495.508	1	59
495.678	1	57
495.848	1	73
496.019	1	70
496.189	1	85
496.359	1	63
496.529	1	54
496.700	1	64
496.870	1	77
497.040	1	66
497.211	1	66
497.381	1	68
497.551	1	71
497.721	1	67
497.892	1	64
498.062	1	72
498.232	1	63
498.403	1	75
498.573	1	68
498.743	1	72
498.913	1	81
499.084	1	63
499.254	1	75
499.424	1	76
499.594	1	81
499.765	1	73
499.935	1	86
500.105	1	81
500.275	1	80
500.446	1	78
500.616	1	76
500.786	1	73
500.956	1	75
501.127	1	85
501.297	1	86
501.467	1	87
501.638	1	87
501.808	1	107
501.978	1	95
502.148	1	99
502.319	1	93
502.489	1	99
502.659	1	97
502.829	1	92
503.000	1	94
503.170	1	111
503.340	1	117
503.510	1	116
503.681	1	89
503.851	1	100
504.021	1	109
504.191	1	122
504.362	1	114
504.532	1	112
504.702	1	101
504.872	1	116
505.042	1	111
505.213	1	127
505.383	1	113
505.553	1	118
505.723	1	119
505.894	1	108
506.064	1	111
506.234	1	128
506.404	1	122
506.575	1	146
506.745	1	128
506.915	1	130
507.085	1	123
507.256	1	132
507.426	1	124
507.596	1	128
507.766	1	130
507.936	1	132
508.107	1	142
508.277	1	121
508.447	1	132
508.617	1	123
508.788	1	140
508.958	1	132
509.128	1	133
509.298	1	142
509.468	1	129
509.639	1	114
509.809	1	137
509.979	1	123
510.149	1	134
510.319	1	137
510.490	1	131
510.660	1	137
510.830	1	135
511.000	1	134
511.171	1	133
511.341	1	131
511.511	1	136
511.681	1	139
511.851	1	130
512.022	1	137
512.192	1	152
512.362	1	133
512.532	1	139
512.702	1	148
512.873	1	154
513.043	1	151
513.213	1	143
513.383	1	129
513.553	1	130
513.724	1	150
513.894	1	141
514.064	1	153
514.234	1	145
514.404	1	148
514.575	1	160
514.745	1	161
514.915	1	174
515.085	1	164
515.255	1	146
515.425	1	163
515.596	1	159
515.766	1	157
515.936	1	157
516.106	1	155
516.276	1	151
516.447	1	190
516.617	1	177
516.787	1	174
516.957	1	182
517.127	1	180
517.297	1	167
517.468	1	175
517.638	1	168
517.808	1	177
517.978	1	199
518.148	1	182
518.319	1	194
518.489	1	182
518.659	1	179
518.829	1	182
518.999	1	199
519.169	1	189
519.340	1	201
519.510	1	198
519.680	1	206
519.850	1	211
520.020	1	200
520.190	1	199
520.361	1	188
520.531	1	199
520.701	1	199
520.871	1	213
521.041	1	220
521.211	1	195
521.382	1	194
521.552	1	209
521.722	1	208
521.892	1	210
522.062	1	226
522.232	1	216
522.402	1	212
522.573	1	204
522.743	1	206
522.913	1	207
523.083	1	197
523.253	1	211
523.423	1	220
523.593	1	217
523.764	1	217
523.934	1	216
524.104	1	212
524.274	1	205
524.444	1	217
524.614	1	209
524.784	1	216
524.955	1	222
525.125	1	226
525.295	1	230
525.465	1	222
525.635	1	215
525.805	1	212
525.975	1	228
526.146	1	210
526.316	1	238
526.486	1	237
526.656	1	214
526.826	1	214
526.996	1	233
527.166	1	245
527.337	1	229
527.507	1	232
527.677	1	236
527.847	1	250
528.017	1	231
528.187	1	240
528.357	1	253
528.527	1	250
528.698	1	250
528.868	1	249
529.038	1	241
529.208	1	245
529.378	1	250
529.548	1	251
529.718	1	262
529.888	1	268
530.058	1	264
530.229	1	263
530.399	1	270
530.569	1	260
530.739	1	276
530.909	1	270
531.079	1	272
531.249	1	275
531.419	1	285
531.589	1	292
531.760	1	292
531.930	1	283
532.100	1	285
532.270	1	280
532.440	1	292
532.610	1	285
532.780	1	291
532.950	1	289
533.120	1	310
533.290	1	302
533.461	1	298
533.631	1	290
533.801	1	310
533.971	1	289
534.141	1	277
534.311	1	298
534.481	1	286
534.651	1	293
534.821	1	308
534.991	1	290
535.162	1	293
535.332	1	301
535.502	1	294
535.672	1	300
535.842	1	304
536.012	1	309
536.182	1	307
536.352	1	296
536.522	1	293
536.692	1	302
536.862	1	302
537.032	1	306
537.203	1	280
537.373	1	293
537.543	1	295
537.713	1	297
537.883	1	293
538.053	1	297
538.223	1	298
538.393	1	310
538.563	1	292
538.733	1	291
538.903	1	260
539.073	1	296
539.243	1	295
539.413	1	289
539.584	1	277
539.754	1	301
539.924	1	304
540.094	1	294
540.264	1	274
540.434	1	293
540.604	1	291
540.774	1	294
540.944	1	293
541.114	1	291
541.284	1	290
541.454	1	294
541.624	1	287
541.794	1	292
541.964	1	311
542.134	1	299
542.305	1	291
542.475	1	304
542.645	1	307
542.815	1	292
542.985	1	298
543.155	1	297
543.325	1	283
543.495	1	298
543.665	1	307
543.835	1	311
544.005	1	307
544.175	1	303
544.345	1	310
544.515	1	313
544.685	1	305
544.855	1	301
545.025	1	318
545.195	1	306
545.365	1	310
545.535	1	314
545.705	1	314
545.875	1	299
546.045	1	322
546.216	1	336
546.386	1	325
546.556	1	329
546.726	1	321
546.896	1	330
547.066	1	324
547.236	1	333
547.406	1	342
547.576	1	358
547.746	1	318
547.916	1	341
548.086	1	344
548.256	1	345
548.426	1	337
548.596	1	348
548.766	1	345
548.936	1	354
549.106	1	355
549.276	1	363
549.446	1	375
549.616	1	360
549.786	1	351
549.956	1	379
550.126	1	385
550.296	1	371
550.466	1	375
550.636	1	393
550.806	1	385
550.976	1	369
551.146	1	371
551.316	1	387
551.486	1	379
551.656	1	385
551.826	1	395
551.996	1	392
552.166	1	384
552.336	1	364
552.506	1	390
552.676	1	394
552.846	1	391
553.016	1	377
553.186	1	404
553.356	1	399
553.526	1	388
553.696	1	375
553.866	1	380
554.036	1	383
554.206	1	378
554.376	1	383
554.546	1	389
554.716	1	374
554.886	1	386
555.056	1	370
555.226	1	358
555.396	1	352
555.566	1	386
555.736	1	355
555.906	1	379
556.076	1	379
556.246	1	365
556.416	1	390
556.586	1	374
556.756	1	365
556.926	1	370
557.096	1	369
557.266	1	358
557.436	1	364
557.606	1	371
557.776	1	365
557.946	1	377
558.116	1	379
558.286	1	372
558.456	1	373
558.626	1	384
558.796	1	370
558.966	1	362
559.136	1	356
559.306	1	368
559.476	1	348
559.646	1	359
559.816	1	358
559.986	1	354
560.155	1	377
560.325	1	356
560.495	1	347
560.665	1	363
560.835	1	359
561.005	1	365
561.175	1	371
561.345	1	372
561.515	1	349
561.685	1	356
561.855	1	353
562.025	1	359
562.195	1	371
562.365	1	379
562.535	1	369
562.705	1	357
562.875	1	367
563.045	1	367
563.215	1	370
563.385	1	360
563.555	1	364
563.725	1	371
563.895	1	364
564.064	1	354
564.234	1	355
564.404	1	360
564.574	1	372
564.744	1	351
564.914	1	368
565.084	1	364
565.254	1	368
565.424	1	371
565.594	1	367
565.764	1	381
565.934	1	368
566.104	1	389
566.274	1	369
566.444	1	367
566.614	1	377
566.783	1	362
566.953	1	371
567.123	1	370
567.293	1	375
567.463	1	383
567.633	1	368
567.803	1	378
567.973	1	391
568.143	1	377
568.313	1	380
568.483	1	377
568.653	1	378
568.823	1	367
568.993	1	358
569.162	1	389
569.332	1	378
569.502	1	369
569.672	1	361
569.842	1	380
570.012	1	380
570.182	1	369
570.352	1	375
570.522	1	361
570.692	1	391
570.862	1	376
571.031	1	365
571.201	1	387
571.371	1	358
571.541	1	377
571.711	1	370
571.881	1	391
572.051	1	356
572.221	1	370
572.391	1	370
572.561	1	361
572.731	1	379
572.900	1	350
573.070	1	346
573.240	1	380
573.410	1	357
573.580	1	364
573.750	1	367
573.920	1	371
574.090	1	364
574.260	1	365
574.430	1	369
574.599	1	364
574.769	1	348
574.939	1	356
575.109	1	366
575.279	1	359
575.449	1	355
575.619	1	365
575.789	1	347
575.959	1	348
576.128	1	345
576.298	1	366
576.468	1	354
576.638	1	346
576.808	1	357
576.978	1	360
577.148	1	357
577.318	1	366
577.487	1	332
577.657	1	356
577.827	1	355
577.997	1	346
578.167	1	347
578.337	1	366
578.507	1	358
578.677	1	345
578.846	1	357
579.016	1	352
579.186	1	359
579.356	1	347
579.526	1	341
579.696	1	346
579.866	1	344
580.036	1	356
580.205	1	347
580.375	1	358
580.545	1	330
580.715	1	351
580.885	1	357
581.055	1	360
581.225	1	356
581.394	1	348
581.564	1	367
581.734	1	346
581.904	1	368
582.074	1	342
582.244	1	341
582.414	1	371
582.583	1	366
582.753	1	364
582.923	1	352
583.093	1	368
583.263	1	351
583.433	1	355
583.603	1	358
583.772	1	363
583.942	1	346
584.112	1	349
584.282	1	348
584.452	1	359
584.622	1	353
584.791	1	360
584.961	1	358
585.131	1	353
585.301	1	352
585.471	1	355
585.641	1	360
585.811	1	369
585.980	1	345
586.150	1	348
586.320	1	352
586.490	1	351
586.660	1	369
586.830	1	353
586.999	1	348
587.169	1	366
587.339	1	349
587.509	1	342
587.679	1	355
587.849	1	349
588.018	1	359
588.188	1	356
588.358	1	339
588.528	1	344
588.698	1	345
588.867	1	348
589.037	1	334
589.207	1	335
589.377	1	345
589.547	1	331
589.717	1	341
589.886	1	337
590.056	1	329
590.226	1	339
590.396	1	331
590.566	1	338
590.735	1	320
590.905	1	333
591.075	1	326
591.245	1	314
591.415	1	316
591.585	1	314
591.754	1	300
591.924	1	307
592.094	1	311
592.264	1	319
592.434	1	314
592.603	1	312
592.773	1	306
592.943	1	321
593.113	1	308
593.283	1	311
593.452	1	311
593.622	1	299
593.792	1	319
593.962	1	287
594.132	1	294
594.301	1	303
594.471	1	316
594.641	1	292
594.811	1	292
594.981	1	311
595.150	1	289
595.320	1	286
595.490	1	296
595.660	1	293
595.829	1	295
595.999	1	285
596.169	1	291
596.339	1	296
596.509	1	294
596.678	1	287
596.848	1	288
597.018	1	295
597.188	1	274
597.358	1	295
597.527	1	269
597.697	1	276
597.867	1	270
598.037	1	273
598.206	1	273
598.376	1	272
598.546	1	273
598.716	1	287
598.885	1	258
599.055	1	288
599.225	1	266
599.395	1	284
599.565	1	263
599.734	1	271
599.904	1	272
600.074	1	285
600.244	1	270
600.413	1	272
600.583	1	279
600.753	1	289
600.923	1	277
601.092	1	290
601.262	1	291
601.432	1	272
601.602	1	300
601.771	1	279
601.941	1	289
602.111	1	292
602.281	1	280
602.451	1	290
602.620	1	285
602.790	1	263
602.960	1	283
603.130	1	294
603.299	1	285
603.469	1	279
603.639	1	278
603.809	1	290
603.978	1	282
604.148	1	296
604.318	1	291
604.487	1	284
604.657	1	292
604.827	1	305
604.997	1	277
605.166	1	299
605.336	1	292
605.506	1	283
605.676	1	280
605.845	1	293
606.015	1	285
606.185	1	286
606.355	1	292
606.524	1	293
606.694	1	282
606.864	1	282
607.034	1	275
607.203	1	279
607.373	1	287
607.543	1	301
607.712	1	285
607.882	1	302
608.052	1	292
608.222	1	290
608.391	1	279
608.561	1	288
608.731	1	281
608.901	1	286
609.070	1	283
609.240	1	284
609.410	1	279
609.579	1	287
609.749	1	285
609.919	1	269
610.089	1	289
610.258	1	291
610.428	1	275
610.598	1	272
610.767	1	270
610.937	1	262
611.107	1	274
611.277	1	273
611.446	1	276
611.616	1	260
611.786	1	272
611.955	1	262
612.125	1	251
612.295	1	250
612.465	1	259
612.634	1	261
612.804	1	254
612.974	1	242
613.143	1	244
613.313	1	248
613.483	1	265
613.652	1	257
613.822	1	247
613.992	1	246
614.162	1	255
614.331	1	248
614.501	1	250
614.671	1	242
614.840	1	248
615.010	1	225
615.180	1	233
615.349	1	243
615.519	1	240
615.689	1	237
615.858	1	234
616.028	1	229
616.198	1	238
616.368	1	229
616.537	1	226
616.707	1	236
616.877	1	232
617.046	1	232
617.216	1	221
617.386	1	228
617.555	1	237
617.725	1	219
617.895	1	225
618.064	1	226
618.234	1	222
618.404	1	222
618.573	1	226
618.743	1	229
618.913	1	222
619.082	1	196
619.252	1	220
619.422	1	208
619.591	1	206
619.761	1	217
619.931	1	239
620.100	1	213
620.270	1	202
620.440	1	218
620.609	1	226
620.779	1	189
620.949	1	215
621.118	1	207
621.288	1	214
621.458	1	201
621.627	1	206
621.797	1	198
621.967	1	207
622.136	1	218
622.306	1	189
622.476	1	197
622.645	1	218
622.815	1	209
622.985	1	212
623.154	1	215
623.324	1	206
623.494	1	197
623.663	1	198
623.833	1	203
624.002	1	179
624.172	1	194
624.342	1	209
624.511	1	200
624.681	1	201
624.851	1	187
625.020	1	199
625.190	1	202
625.360	1	200
625.529	1	201
625.699	1	197
625.869	1	199
626.038	1	192
626.208	1	185
626.377	1	205
626.547	1	188
626.717	1	192
626.886	1	195
627.056	1	180
627.226	1	199
627.395	1	199
627.565	1	185
627.735	1	202
627.904	1	191
628.074	1	199
628.243	1	193
628.413	1	197
628.583	1	193
628.752	1	192
628.922	1	201
629.091	1	187
629.261	1	182
629.431	1	163
629.600	1	204
629.770	1	173
629.940	1	178
630.109	1	169
630.279	1	186
630.448	1	181
630.618	1	172
630.788	1	199
630.957	1	176
631.127	1	190
631.297	1	186
631.466	1	193
631.636	1	167
631.805	1	190
631.975	1	187
632.145	1	171
632.314	1	188
632.484	1	181
632.653	1	163
632.823	1	176
632.993	1	187
633.162	1	177
633.332	1	174
633.501	1	164
633.671	1	160
633.841	1	176
634.010	1	165
634.180	1	169
634.349	1	196
634.519	1	171
634.689	1	166
634.858	1	171
635.028	1	177
635.197	1	175
635.367	1	162
635.537	1	161
635.706	1	159
635.876	1	169
636.045	1	167
636.215	1	169
636.384	1	160
636.554	1	162
636.724	1	183
636.893	1	151
637.063	1	151
637.232	1	150
637.402	1	182
637.572	1	156
637.741	1	164
637.911	1	153
638.080	1	158
638.250	1	153
638.419	1	161
638.589	1	154
638.759	1	159
638.928	1	154
639.098	1	156
639.267	1	173
639.437	1	145
639.606	1	161
639.776	1	147
639.946	1	158
640.115	1	142
640.285	1	136
640.454	1	146
640.624	1	155
640.793	1	155
640.963	1	123
641.132	1	155
641.302	1	145
641.472	1	157
641.641	1	134
641.811	1	153
641.980	1	145
642.150	1	136
642.319	1	149
642.489	1	136
642.659	1	142
642.828	1	139
642.998	1	162
643.167	1	140
643.337	1	140
643.506	1	128
643.676	1	148
643.845	1	145
644.015	1	140
644.184	1	148
644.354	1	150
644.524	1	143
644.693	1	143
644.863	1	128
645.032	1	143
645.202	1	133
645.371	1	131
645.541	1	140
645.710	1	140
645.880	1	137
646.049	1	133
646.219	1	133
646.388	1	135
646.558	1	126
646.728	1	134
646.897	1	131
647.067	1	139
647.236	1	137
647.406	1	133
647.575	1	138
647.745	1	134
647.914	1	127
648.084	1	118
648.253	1	127
648.423	1	119
648.592	1	121
648.762	1	131
648.931	1	148
649.101	1	121
649.270	1	127
649.440	1	129
649.610	1	130
649.779	1	133
649.949	1	120
650.118	1	138
650.288	1	132
650.457	1	126
650.627	1	129
650.796	1	122
650.966	1	141
651.135	1	101
651.305	1	120
651.474	1	113
651.644	1	137
651.813	1	123
651.983	1	123
652.152	1	119
652.322	1	120
652.491	1	129
652.661	1	116
652.830	1	124
653.000	1	131
653.169	1	127
653.339	1	124
653.508	1	122
653.678	1	116
653.847	1	127
654.017	1	129
654.186	1	114
654.356	1	123
654.525	1	114
654.695	1	127
654.864	1	119
655.034	1	121
655.203	1	104
655.373	1	113
655.542	1	110
655.712	1	110
655.881	1	105
656.051	1	116
656.220	1	107
656.390	1	108
656.559	1	107
656.729	1	122
656.898	1	107
657.068	1	107
657.237	1	98
657.406	1	99
657.576	1	110
657.745	1	100
657.915	1	103
658.084	1	114
658.254	1	103
658.423	1	108
658.593	1	112
658.762	1	103
658.932	1	102
659.101	1	104
659.271	1	109
659.440	1	94
659.610	1	90
659.779	1	99
659.949	1	108
660.118	1	94
660.288	1	102
660.457	1	86
660.626	1	104
660.796	1	93
660.965	1	98
661.135	1	85
661.304	1	82
661.474	1	85
661.643	1	101
661.813	1	105
661.982	1	95
662.152	1	94
662.321	1	99
662.491	1	95
662.660	1	101
662.829	1	86
662.999	1	92
663.168	1	90
663.338	1	100
663.507	1	92
663.677	1	97
663.846	1	85
664.016	1	89
664.185	1	92
664.354	1	96
664.524	1	81
664.693	1	95
664.863	1	84
665.032	1	96
665.202	1	95
665.371	1	92
665.541	1	79
665.710	1	93
665.879	1	88
666.049	1	87
666.218	1	68
666.388	1	99
666.557	1	85
666.727	1	75
666.896	1	77
667.065	1	80
667.235	1	81
667.404	1	91
667.574	1	79
667.743	1	82
667.913	1	89
668.082	1	79
668.251	1	71
668.421	1	77
668.590	1	87
668.760	1	86
668.929	1	66
669.099	1	88
669.268	1	82
669.437	1	80
669.607	1	82
669.776	1	80
669.946	1	81
670.115	1	79
670.285	1	79
670.454	1	77
670.623	1	88
670.793	1	79
670.962	1	80
671.132	1	92
671.301	1	76
671.470	1	85
671.640	1	80
671.809	1	82
671.979	1	79
672.148	1	76
672.317	1	83
672.487	1	78
672.656	1	75
672.826	1	73
672.995	1	90
673.164	1	91
673.334	1	82
673.503	1	77
673.673	1	83
673.842	1	79
674.011	1	85
674.181	1	84
674.350	1	79
674.520	1	73
674.689	1	80
674.858	1	75
675.028	1	77
675.197	1	77
675.367	1	95
675.536	1	70
675.705	1	87
675.875	1	68
676.044	1	73
676.214	1	70
676.383	1	81
676.552	1	70
676.722	1	83
676.891	1	84
677.060	1	80
677.230	1	71
677.399	1	70
677.569	1	73
677.738	1	80
677.907	1	75
678.077	1	71
678.246	1	84
678.416	1	76
678.585	1	74
678.754	1	76
678.924	1	67
679.093	1	88
679.262	1	78
679.432	1	71
679.601	1	76
679.771	1	75
679.940	1	66
680.109	1	77
680.279	1	69
680.448	1	78
680.617	1	72
680.787	1	69
680.956	1	83
681.125	1	75
681.295	1	71
681.464	1	70
681.634	1	77
681.803	1	86
681.972	1	57
682.142	1	81
682.311	1	82
682.480	1	81
682.650	1	68
682.819	1	72
682.988	1	71
683.158	1	74
683.327	1	73
683.496	1	77
683.666	1	75
683.835	1	65
684.004	1	78
684.174	1	68
684.343	1	65
684.512	1	84
684.682	1	60
684.851	1	76
685.021	1	65
685.190	1	66
685.359	1	71
685.529	1	59
685.698	1	74
685.867	1	68
686.037	1	62
686.206	1	70
686.375	1	79
686.545	1	63
686.714	1	68
686.883	1	67
687.053	1	69
687.222	1	71
687.391	1	61
687.561	1	76
687.730	1	71
687.899	1	59
688.069	1	67
688.238	1	75
688.407	1	59
688.577	1	56
688.746	1	67
