340.368	1	9
340.539	1	-12
340.710	1	-5
340.881	1	-15
341.052	1	5
341.223	1	2
341.394	1	-9
341.565	1	-6
341.737	1	3
341.908	1	4
342.079	1	-8
342.250	1	3
342.421	1	-1
342.592	1	3
342.763	1	4
342.934	1	0
343.105	1	-2
343.276	1	7
343.447	1	-5
343.618	1	2
343.789	1	-12
343.960	1	-1
344.131	1	-5
344.302	1	3
344.473	1	-3
344.644	1	1
344.815	1	0
344.986	1	3
345.157	1	0
345.328	1	-3
345.499	1	2
345.670	1	0
345.841	1	5
346.012	1	-7
346.183	1	-5
346.354	1	-6
346.526	1	-7
346.697	1	3
346.868	1	-1
347.039	1	0
347.210	1	-12
347.381	1	1
347.552	1	-1
347.723	1	-1
347.894	1	4
348.065	1	-9
348.236	1	3
348.407	1	4
348.578	1	-2
348.749	1	-3
348.920	1	2
349.091	1	-11
349.262	1	-9
349.433	1	6
349.604	1	4
349.775	1	3
349.946	1	-9
350.117	1	-2
350.288	1	1
350.459	1	-3
350.630	1	2
350.801	1	-2
350.972	1	-8
351.143	1	-2
351.314	1	-5
351.485	1	10
351.656	1	-1
351.827	1	-6
351.998	1	2
352.169	1	5
352.340	1	9
352.511	1	-2
352.682	1	7
352.853	1	-11
353.024	1	-2
353.195	1	5
353.366	1	12
353.537	1	-2
353.708	1	-5
353.879	1	4
354.050	1	-2
354.221	1	-7
354.392	1	-3
354.563	1	-3
354.734	1	-1
354.905	1	7
355.076	1	-4
355.247	1	2
355.418	1	-11
355.589	1	-8
355.760	1	-6
355.931	1	-5
356.102	1	2
356.273	1	2
356.444	1	5
356.615	1	-6
356.785	1	3
356.956	1	4
357.127	1	9
357.298	1	2
357.469	1	0
357.640	1	0
357.811	1	2
357.982	1	-9
358.153	1	8
358.324	1	1
358.495	1	9
358.666	1	0
358.837	1	-5
359.008	1	-1
359.179	1	-1
359.350	1	-9
359.521	1	7
359.692	1	8
359.863	1	-2
360.034	1	4
360.205	1	1
360.376	1	9
360.547	1	4
360.718	1	1
360.889	1	-2
361.060	1	-4
361.231	1	1
361.401	1	7
361.572	1	10
361.743	1	-3
361.914	1	5
362.085	1	22
362.256	1	7
362.427	1	15
362.598	1	-4
362.769	1	5
362.940	1	1
363.111	1	7
363.282	1	5
363.453	1	2
363.624	1	6
363.795	1	7
363.966	1	5
364.137	1	7
364.308	1	3
364.478	1	13
364.649	1	11
364.820	1	1
364.991	1	3
365.162	1	19
365.333	1	4
365.504	1	16
365.675	1	1
365.846	1	17
366.017	1	4
366.188	1	9
366.359	1	10
366.530	1	13
366.701	1	12
366.871	1	5
367.042	1	20
367.213	1	29
367.384	1	21
367.555	1	6
367.726	1	19
367.897	1	15
368.068	1	19
368.239	1	16
368.410	1	26
368.581	1	1
368.752	1	5
368.923	1	6
369.093	1	11
369.264	1	24
369.435	1	21
369.606	1	11
369.777	1	21
369.948	1	16
370.119	1	10
370.290	1	11
370.461	1	28
370.632	1	19
370.803	1	10
370.973	1	14
371.144	1	11
371.315	1	18
371.486	1	26
371.657	1	26
371.828	1	19
371.999	1	7
372.170	1	11
372.341	1	17
372.512	1	8
372.682	1	16
372.853	1	13
373.024	1	12
373.195	1	5
373.366	1	17
373.537	1	15
373.708	1	11
373.879	1	1
374.050	1	15
374.220	1	24
374.391	1	3
374.562	1	24
374.733	1	11
374.904	1	8
375.075	1	2
375.246	1	15
375.417	1	14
375.588	1	6
375.758	1	7
375.929	1	19
376.100	1	2
376.271	1	13
376.442	1	14
376.613	1	0
376.784	1	4
376.955	1	6
377.125	1	11
377.296	1	5
377.467	1	6
377.638	1	12
377.809	1	17
377.980	1	7
378.151	1	17
378.321	1	-4
378.492	1	-1
378.663	1	-7
378.834	1	-1
379.005	1	8
379.176	1	0
379.347	1	10
379.518	1	2
379.688	1	10
379.859	1	4
380.030	1	3
380.201	1	11
380.372	1	-4
380.543	1	12
380.714	1	6
380.884	1	11
381.055	1	13
381.226	1	-1
381.397	1	6
381.568	1	13
381.739	1	5
381.910	1	11
382.080	1	10
382.251	1	3
382.422	1	10
382.593	1	1
382.764	1	-2
382.935	1	-3
383.105	1	-5
383.276	1	12
383.447	1	3
383.618	1	11
383.789	1	-5
383.960	1	-5
384.130	1	4
384.301	1	0
384.472	1	8
384.643	1	15
384.814	1	-4
384.985	1	4
385.156	1	0
385.326	1	7
385.497	1	8
385.668	1	6
385.839	1	6
386.010	1	5
386.180	1	-8
386.351	1	5
386.522	1	8
386.693	1	2
386.864	1	4
387.035	1	6
387.205	1	-4
387.376	1	8
387.547	1	-6
387.718	1	1
387.889	1	-7
388.060	1	9
388.230	1	4
388.401	1	0
388.572	1	2
388.743	1	0
388.914	1	1
389.084	1	3
389.255	1	3
389.426	1	2
389.597	1	3
389.768	1	7
389.939	1	1
390.109	1	-3
390.280	1	4
390.451	1	-12
390.622	1	5
390.793	1	-4
390.963	1	12
391.134	1	9
391.305	1	7
391.476	1	-9
391.647	1	-2
391.817	1	0
391.988	1	-2
392.159	1	-7
392.330	1	10
392.501	1	5
392.671	1	-3
392.842	1	-7
393.013	1	3
393.184	1	4
393.355	1	5
393.525	1	-1
393.696	1	7
393.867	1	9
394.038	1	11
394.208	1	1
394.379	1	5
394.550	1	4
394.721	1	1
394.892	1	-2
395.062	1	7
395.233	1	-5
395.404	1	-10
395.575	1	0
395.746	1	15
395.916	1	7
396.087	1	-6
396.258	1	3
396.429	1	0
396.599	1	-5
396.770	1	-5
396.941	1	4
397.112	1	5
397.283	1	2
397.453	1	9
397.624	1	-3
397.795	1	0
397.966	1	2
398.136	1	-9
398.307	1	-3
398.478	1	13
398.649	1	-12
398.819	1	7
398.990	1	3
399.161	1	10
399.332	1	3
399.503	1	-1
399.673	1	2
399.844	1	3
400.015	1	-6
400.186	1	-5
400.356	1	-5
400.527	1	-1
400.698	1	-14
400.869	1	1
401.039	1	8
401.210	1	5
401.381	1	0
401.552	1	-7
401.722	1	-1
401.893	1	-2
402.064	1	4
402.235	1	3
402.405	1	3
402.576	1	-1
402.747	1	-8
402.918	1	12
403.088	1	7
403.259	1	2
403.430	1	-8
403.601	1	-6
403.771	1	6
403.942	1	13
404.113	1	-9
404.284	1	3
404.454	1	2
404.625	1	4
404.796	1	14
404.967	1	12
405.137	1	13
405.308	1	8
405.479	1	-1
405.649	1	-2
405.820	1	-15
405.991	1	-6
406.162	1	7
406.332	1	3
406.503	1	9
406.674	1	-10
406.845	1	7
407.015	1	3
407.186	1	2
407.357	1	-1
407.527	1	-8
407.698	1	9
407.869	1	-13
408.040	1	-4
408.210	1	0
408.381	1	-2
408.552	1	-2
408.722	1	-10
408.893	1	-1
409.064	1	-6
409.235	1	0
409.405	1	6
409.576	1	-1
409.747	1	-4
409.917	1	-1
410.088	1	-3
410.259	1	3
410.430	1	5
410.600	1	-11
410.771	1	-2
410.942	1	11
411.112	1	-9
411.283	1	7
411.454	1	-4
411.625	1	6
411.795	1	1
411.966	1	3
412.137	1	-10
412.307	1	-6
412.478	1	8
412.649	1	-1
412.819	1	-6
412.990	1	0
413.161	1	-4
413.332	1	-5
413.502	1	-1
413.673	1	3
413.844	1	-5
414.014	1	5
414.185	1	0
414.356	1	4
414.526	1	-5
414.697	1	8
414.868	1	4
415.038	1	4
415.209	1	-3
415.380	1	6
415.550	1	-6
415.721	1	-12
415.892	1	-5
416.063	1	-2
416.233	1	4
416.404	1	-6
416.575	1	16
416.745	1	3
416.916	1	-1
417.087	1	1
417.257	1	4
417.428	1	-1
417.599	1	-1
417.769	1	-2
417.940	1	11
418.111	1	2
418.281	1	0
418.452	1	-11
418.623	1	-1
418.793	1	-1
418.964	1	-15
419.135	1	-11
419.305	1	-3
419.476	1	8
419.647	1	0
419.817	1	11
419.988	1	-3
420.159	1	1
420.329	1	-11
420.500	1	-2
420.671	1	3
420.841	1	17
421.012	1	-2
421.183	1	-4
421.353	1	-6
421.524	1	-4
421.695	1	3
421.865	1	-1
422.036	1	6
422.206	1	-2
422.377	1	3
422.548	1	-12
422.718	1	2
422.889	1	-16
423.060	1	-5
423.230	1	4
423.401	1	-1
423.572	1	4
423.742	1	-3
423.913	1	-3
424.084	1	-3
424.254	1	11
424.425	1	4
424.595	1	1
424.766	1	2
424.937	1	3
425.107	1	-5
425.278	1	9
425.449	1	1
425.619	1	6
425.790	1	-8
425.961	1	-2
426.131	1	4
426.302	1	2
426.472	1	3
426.643	1	2
426.814	1	6
426.984	1	7
427.155	1	0
427.326	1	-1
427.496	1	3
427.667	1	4
427.837	1	-7
428.008	1	-4
428.179	1	1
428.349	1	-19
428.520	1	0
428.691	1	-7
428.861	1	-4
429.032	1	6
429.202	1	6
429.373	1	-2
429.544	1	-2
429.714	1	-2
429.885	1	-5
430.055	1	4
430.226	1	-5
430.397	1	2
430.567	1	-3
430.738	1	-7
430.909	1	-10
431.079	1	-5
431.250	1	1
431.420	1	-5
431.591	1	9
431.762	1	-3
431.932	1	-10
432.103	1	1
432.273	1	-6
432.444	1	10
432.615	1	-9
432.785	1	8
432.956	1	-6
433.126	1	-5
433.297	1	0
433.468	1	-4
433.638	1	-5
433.809	1	1
433.979	1	2
434.150	1	6
434.320	1	1
434.491	1	-10
434.662	1	1
434.832	1	0
435.003	1	3
435.173	1	-8
435.344	1	8
435.515	1	11
435.685	1	2
435.856	1	10
436.026	1	7
436.197	1	-11
436.368	1	-5
436.538	1	-15
436.709	1	1
436.879	1	-6
437.050	1	-8
437.220	1	0
437.391	1	11
437.562	1	5
437.732	1	-3
437.903	1	-1
438.073	1	-4
438.244	1	-1
438.414	1	-7
438.585	1	-1
438.756	1	-6
438.926	1	-3
439.097	1	-11
439.267	1	1
439.438	1	-5
439.608	1	-9
439.779	1	-3
439.949	1	0
440.120	1	0
440.291	1	3
440.461	1	2
440.632	1	-2
440.802	1	0
440.973	1	-8
441.143	1	9
441.314	1	-10
441.485	1	1
441.655	1	2
441.826	1	14
441.996	1	6
442.167	1	2
442.337	1	0
442.508	1	2
442.678	1	-11
442.849	1	6
443.019	1	3
443.190	1	1
443.361	1	-3
443.531	1	7
443.702	1	0
443.872	1	4
444.043	1	6
444.213	1	4
444.384	1	-8
444.554	1	5
444.725	1	-9
444.895	1	-8
445.066	1	-7
445.237	1	-5
445.407	1	11
445.578	1	-11
445.748	1	10
445.919	1	-15
446.089	1	6
446.260	1	-6
446.430	1	-2
446.601	1	2
446.771	1	3
446.942	1	-1
447.112	1	-6
447.283	1	1
447.453	1	-3
447.624	1	-1
447.794	1	-9
447.965	1	-2
448.135	1	-3
448.306	1	4
448.477	1	-1
448.647	1	-9
448.818	1	1
448.988	1	1
449.159	1	-11
449.329	1	0
449.500	1	0
449.670	1	10
449.841	1	-2
450.011	1	7
450.182	1	2
450.352	1	8
450.523	1	-8
450.693	1	-6
450.864	1	-1
451.034	1	1
451.205	1	8
451.375	1	-3
451.546	1	1
451.716	1	-1
451.887	1	-15
452.057	1	7
452.228	1	0
452.398	1	1
452.569	1	-5
452.739	1	10
452.910	1	-6
453.080	1	-1
453.251	1	5
453.421	1	-5
453.592	1	-3
453.762	1	3
453.933	1	0
454.103	1	-3
454.274	1	-7
454.444	1	-5
454.615	1	14
454.785	1	-5
454.956	1	-6
455.126	1	-14
455.297	1	8
455.467	1	1
455.638	1	1
455.808	1	0
455.979	1	4
456.149	1	7
456.320	1	-7
456.490	1	-4
456.661	1	-3
456.831	1	6
457.001	1	-1
457.172	1	4
457.342	1	-12
457.513	1	11
457.683	1	-2
457.854	1	-4
458.024	1	-11
458.195	1	-2
458.365	1	-9
458.536	1	7
458.706	1	-1
458.877	1	-2
459.047	1	0
459.218	1	-7
459.388	1	8
459.559	1	7
459.729	1	-1
459.899	1	-4
460.070	1	4
460.240	1	-5
460.411	1	-8
460.581	1	15
460.752	1	-9
460.922	1	1
461.093	1	-3
461.263	1	4
461.434	1	-3
461.604	1	-4
461.775	1	-6
461.945	1	-2
462.115	1	4
462.286	1	-3
462.456	1	-5
462.627	1	0
462.797	1	-6
462.968	1	4
463.138	1	-1
463.309	1	-10
463.479	1	-8
463.649	1	-1
463.820	1	-4
463.990	1	-11
464.161	1	7
464.331	1	-7
464.502	1	1
464.672	1	-8
464.843	1	2
465.013	1	-7
465.183	1	3
465.354	1	5
465.524	1	0
465.695	1	-6
465.865	1	-9
466.036	1	-7
466.206	1	11
466.376	1	-6
466.547	1	-5
466.717	1	2
466.888	1	5
467.058	1	-3
467.229	1	-9
467.399	1	3
467.569	1	0
467.740	1	3
467.910	1	3
468.081	1	10
468.251	1	-1
468.422	1	0
468.592	1	1
468.762	1	-8
468.933	1	-1
469.103	1	-13
469.274	1	6
469.444	1	-13
469.614	1	6
469.785	1	-13
469.955	1	-5
470.126	1	-14
470.296	1	-8
470.467	1	0
470.637	1	-2
470.807	1	3
470.978	1	1
471.148	1	1
471.319	1	-3
471.489	1	-8
471.659	1	0
471.830	1	-6
472.000	1	-1
472.171	1	-4
472.341	1	3
472.511	1	-7
472.682	1	-2
472.852	1	-1
473.023	1	9
473.193	1	5
473.363	1	8
473.534	1	3
473.704	1	-10
473.875	1	18
474.045	1	1
474.215	1	9
474.386	1	5
474.556	1	-2
474.727	1	-1
474.897	1	3
475.067	1	-1
475.238	1	-2
475.408	1	6
475.578	1	-11
475.749	1	-4
475.919	1	-3
476.090	1	1
476.260	1	-7
476.430	1	2
476.601	1	2
476.771	1	2
476.942	1	3
477.112	1	5
477.282	1	-5
477.453	1	-2
477.623	1	-15
477.793	1	2
477.964	1	0
478.134	1	-9
478.305	1	-9
478.475	1	-4
478.645	1	5
478.816	1	1
478.986	1	-8
479.156	1	-1
479.327	1	-18
479.497	1	-7
479.667	1	1
479.838	1	-6
480.008	1	-4
480.179	1	-1
480.349	1	2
480.519	1	4
480.690	1	-5
480.860	1	-2
481.030	1	-14
481.201	1	3
481.371	1	0
481.541	1	-4
481.712	1	0
481.882	1	5
482.053	1	2
482.223	1	2
482.393	1	1
482.564	1	-4
482.734	1	-5
482.904	1	-4
483.075	1	-9
483.245	1	-2
483.415	1	-7
483.586	1	4
483.756	1	8
483.926	1	2
484.097	1	-17
484.267	1	-9
484.437	1	-5
484.608	1	5
484.778	1	-4
484.948	1	-7
485.119	1	-11
485.289	1	2
485.459	1	17
485.630	1	0
485.800	1	-6
485.970	1	-2
486.141	1	0
486.311	1	4
486.481	1	1
486.652	1	6
486.822	1	2
486.992	1	7
487.163	1	4
487.333	1	-6
487.503	1	-2
487.674	1	4
487.844	1	-2
488.014	1	-7
488.185	1	3
488.355	1	-1
488.525	1	-2
488.696	1	-9
488.866	1	7
489.036	1	5
489.207	1	1
489.377	1	-9
489.547	1	-2
489.718	1	-4
489.888	1	-7
490.058	1	-11
490.228	1	7
490.399	1	1
490.569	1	18
490.739	1	-1
490.910	1	-7
491.080	1	4
491.250	1	-7
491.421	1	7
491.591	1	-9
491.761	1	5
491.932	1	4
492.102	1	-4
492.272	1	2
492.442	1	1
492.613	1	-5
492.783	1	4
492.953	1	-2
493.124	1	0
493.294	1	-1
493.464	1	11
493.635	1	0
493.805	1	-6
493.975	1	1
494.145	1	0
494.316	1	2
494.486	1	7
494.656	1	4
494.827	1	-4
494.997	1	-2
495.167	1	-14
495.337	1	13
495.508	1	4
495.678	1	-9
495.848	1	-5
496.019	1	-7
496.189	1	7
496.359	1	-8
496.529	1	2
496.700	1	1
496.870	1	5
497.040	1	-4
497.211	1	2
497.381	1	0
497.551	1	1
497.721	1	-7
497.892	1	-6
498.062	1	-3
498.232	1	1
498.403	1	11
498.573	1	-10
498.743	1	4
498.913	1	1
499.084	1	-10
499.254	1	1
499.424	1	-6
499.594	1	12
499.765	1	-5
499.935	1	7
500.105	1	7
500.275	1	4
500.446	1	-15
500.616	1	-8
500.786	1	-13
500.956	1	-3
501.127	1	-3
501.297	1	-3
501.467	1	-2
501.638	1	-17
501.808	1	8
501.978	1	3
502.148	1	-1
502.319	1	-2
502.489	1	1
502.659	1	-2
502.829	1	-1
503.000	1	-1
503.170	1	6
503.340	1	15
503.510	1	-2
503.681	1	-8
503.851	1	-1
504.021	1	-11
504.191	1	1
504.362	1	-3
504.532	1	1
504.702	1	-4
504.872	1	7
505.042	1	-9
505.213	1	2
505.383	1	5
505.553	1	-11
505.723	1	-2
505.894	1	-13
506.064	1	12
506.234	1	14
506.404	1	5
506.575	1	7
506.745	1	-1
506.915	1	8
507.085	1	-3
507.256	1	2
507.426	1	4
507.596	1	2
507.766	1	-3
507.936	1	1
508.107	1	-1
508.277	1	-4
508.447	1	11
508.617	1	-5
508.788	1	7
508.958	1	-10
509.128	1	-1
509.298	1	8
509.468	1	-7
509.639	1	-4
509.809	1	-3
509.979	1	-4
510.149	1	5
510.319	1	-1
510.490	1	8
510.660	1	-1
510.830	1	-1
511.000	1	0
511.171	1	-2
511.341	1	6
511.511	1	-6
511.681	1	7
511.851	1	1
512.022	1	2
512.192	1	2
512.362	1	-4
512.532	1	4
512.702	1	2
512.873	1	-1
513.043	1	0
513.213	1	-3
513.383	1	-12
513.553	1	-5
513.724	1	-2
513.894	1	-7
514.064	1	4
514.234	1	-1
514.404	1	-5
514.575	1	9
514.745	1	-3
514.915	1	6
515.085	1	1
515.255	1	-5
515.425	1	-2
515.596	1	10
515.766	1	-4
515.936	1	-4
516.106	1	-5
516.276	1	-15
516.447	1	15
516.617	1	6
516.787	1	3
516.957	1	-3
517.127	1	6
517.297	1	-9
517.468	1	-6
517.638	1	4
517.808	1	-6
517.978	1	7
518.148	1	-6
518.319	1	1
518.489	1	-7
518.659	1	0
518.829	1	2
518.999	1	0
519.169	1	2
519.340	1	1
519.510	1	1
519.680	1	3
519.850	1	5
520.020	1	-4
520.190	1	-10
520.361	1	5
520.531	1	6
520.701	1	0
520.871	1	-4
521.041	1	11
521.211	1	-11
521.382	1	-2
521.552	1	1
521.722	1	10
521.892	1	2
522.062	1	-6
522.232	1	0
522.402	1	5
522.573	1	-11
522.743	1	-7
522.913	1	7
523.083	1	-7
523.253	1	7
523.423	1	0
523.593	1	1
523.764	1	0
523.934	1	-1
524.104	1	-5
524.274	1	-1
524.444	1	4
524.614	1	-1
524.784	1	2
524.955	1	-6
525.125	1	1
525.295	1	7
525.465	1	12
525.635	1	4
525.805	1	-5
525.975	1	7
526.146	1	-11
526.316	1	13
526.486	1	-8
526.656	1	8
526.826	1	-7
526.996	1	10
527.166	1	-1
527.337	1	6
527.507	1	-2
527.677	1	9
527.847	1	1
528.017	1	-11
528.187	1	3
528.357	1	1
528.527	1	6
528.698	1	3
528.868	1	4
529.038	1	9
529.208	1	-5
529.378	1	8
529.548	1	-10
529.718	1	7
529.888	1	-1
530.058	1	-1
530.229	1	6
530.399	1	2
530.569	1	-4
530.739	1	6
530.909	1	-2
531.079	1	1
531.249	1	-7
531.419	1	2
531.589	1	1
531.760	1	4
531.930	1	1
532.100	1	-5
532.270	1	-6
532.440	1	5
532.610	1	-2
532.780	1	2
532.950	1	-2
533.120	1	11
533.290	1	-2
533.461	1	-3
533.631	1	7
533.801	1	16
533.971	1	-2
534.141	1	-4
534.311	1	4
534.481	1	-10
534.651	1	-6
534.821	1	9
534.991	1	3
535.162	1	-4
535.332	1	-4
535.502	1	-2
535.672	1	4
535.842	1	6
536.012	1	7
536.182	1	4
536.352	1	-4
536.522	1	-8
536.692	1	-8
536.862	1	5
537.032	1	3
537.203	1	1
537.373	1	3
537.543	1	-4
537.713	1	1
537.883	1	0
538.053	1	-3
538.223	1	-5
538.393	1	5
538.563	1	12
538.733	1	1
538.903	1	-2
539.073	1	5
539.243	1	-7
539.413	1	3
539.584	1	-5
539.754	1	7
539.924	1	10
540.094	1	4
540.264	1	-2
540.434	1	3
540.604	1	0
540.774	1	10
540.944	1	3
541.114	1	-9
541.284	1	8
541.454	1	3
541.624	1	5
541.794	1	-2
541.964	1	3
542.134	1	5
542.305	1	6
542.475	1	-6
542.645	1	-9
542.815	1	-1
542.985	1	2
543.155	1	-4
543.325	1	2
543.495	1	-3
543.665	1	8
543.835	1	9
544.005	1	13
544.175	1	-3
544.345	1	12
544.515	1	-8
544.685	1	0
544.855	1	5
545.025	1	-2
545.195	1	5
545.365	1	2
545.535	1	13
545.705	1	-1
545.875	1	-11
546.045	1	6
546.216	1	6
546.386	1	11
546.556	1	-2
546.726	1	-6
546.896	1	2
547.066	1	4
547.236	1	5
547.406	1	3
547.576	1	14
547.746	1	-12
547.916	1	-13
548.086	1	3
548.256	1	-10
548.426	1	-1
548.596	1	-4
548.766	1	1
548.936	1	7
549.106	1	-3
549.276	1	-6
549.446	1	4
549.616	1	3
549.786	1	-1
549.956	1	6
550.126	1	3
550.296	1	0
550.466	1	14
550.636	1	10
550.806	1	-8
550.976	1	-8
551.146	1	1
551.316	1	-1
551.486	1	-2
551.656	1	8
551.826	1	0
551.996	1	11
552.166	1	-5
552.336	1	1
552.506	1	0
552.676	1	7
552.846	1	10
553.016	1	10
553.186	1	7
553.356	1	-2
553.526	1	-4
553.696	1	9
553.866	1	-2
554.036	1	0
554.206	1	11
554.376	1	6
554.546	1	0
554.716	1	11
554.886	1	8
555.056	1	2
555.226	1	-6
555.396	1	-5
555.566	1	12
555.736	1	-5
555.906	1	9
556.076	1	-1
556.246	1	5
556.416	1	-7
556.586	1	1
556.756	1	3
556.926	1	4
557.096	1	-2
557.266	1	-3
557.436	1	-5
557.606	1	-1
557.776	1	-6
557.946	1	14
558.116	1	-4
558.286	1	5
558.456	1	4
558.626	1	5
558.796	1	4
558.966	1	-8
559.136	1	4
559.306	1	-7
559.476	1	-7
559.646	1	-13
559.816	1	-3
559.986	1	-2
560.155	1	2
560.325	1	-1
560.495	1	9
560.665	1	-2
560.835	1	2
561.005	1	-3
561.175	1	-3
561.345	1	-10
561.515	1	0
561.685	1	8
561.855	1	-1
562.025	1	6
562.195	1	8
562.365	1	-6
562.535	1	-4
562.705	1	-8
562.875	1	4
563.045	1	-9
563.215	1	6
563.385	1	-2
563.555	1	3
563.725	1	8
563.895	1	3
564.064	1	3
564.234	1	3
564.404	1	10
564.574	1	2
564.744	1	4
564.914	1	6
565.084	1	-3
565.254	1	1
565.424	1	7
565.594	1	12
565.764	1	-3
565.934	1	9
566.104	1	-4
566.274	1	1
566.444	1	-6
566.614	1	0
566.783	1	-10
566.953	1	8
567.123	1	0
567.293	1	10
567.463	1	-3
567.633	1	-1
567.803	1	-5
567.973	1	5
568.143	1	4
568.313	1	4
568.483	1	0
568.653	1	-9
568.823	1	6
568.993	1	3
569.162	1	9
569.332	1	3
569.502	1	-5
569.672	1	-7
569.842	1	2
570.012	1	3
570.182	1	1
570.352	1	7
570.522	1	-12
570.692	1	4
570.862	1	-1
571.031	1	-10
571.201	1	10
571.371	1	2
571.541	1	0
571.711	1	8
571.881	1	10
572.051	1	-1
572.221	1	-4
572.391	1	-14
572.561	1	1
572.731	1	10
572.900	1	-7
573.070	1	1
573.240	1	-2
573.410	1	12
573.580	1	3
573.750	1	1
573.920	1	9
574.090	1	8
574.260	1	7
574.430	1	7
574.599	1	10
574.769	1	4
574.939	1	2
575.109	1	11
575.279	1	11
575.449	1	-4
575.619	1	11
575.789	1	-3
575.959	1	-11
576.128	1	-11
576.298	1	5
576.468	1	1
576.638	1	-1
576.808	1	1
576.978	1	4
577.148	1	6
577.318	1	9
577.487	1	2
577.657	1	-6
577.827	1	-11
577.997	1	-2
578.167	1	0
578.337	1	12
578.507	1	2
578.677	1	4
578.846	1	4
579.016	1	3
579.186	1	7
579.356	1	0
579.526	1	-4
579.696	1	4
579.866	1	8
580.036	1	-9
580.205	1	-2
580.375	1	18
580.545	1	5
580.715	1	-3
580.885	1	-4
581.055	1	-1
581.225	1	-4
581.394	1	-4
581.564	1	5
581.734	1	-2
581.904	1	2
582.074	1	-5
582.244	1	-4
582.414	1	8
582.583	1	4
582.753	1	-1
582.923	1	-10
583.093	1	2
583.263	1	3
583.433	1	-8
583.603	1	7
583.772	1	6
583.942	1	3
584.112	1	-7
584.282	1	-9
584.452	1	4
584.622	1	0
584.791	1	-5
584.961	1	3
585.131	1	-4
585.301	1	1
585.471	1	2
585.641	1	-2
585.811	1	5
585.980	1	4
586.150	1	-5
586.320	1	-2
586.490	1	3
586.660	1	4
586.830	1	5
586.999	1	4
587.169	1	12
587.339	1	0
587.509	1	-1
587.679	1	2
587.849	1	8
588.018	1	-1
588.188	1	10
588.358	1	5
588.528	1	8
588.698	1	7
588.867	1	-2
589.037	1	1
589.207	1	3
589.377	1	2
589.547	1	-8
589.717	1	1
589.886	1	-5
590.056	1	7
590.226	1	2
590.396	1	3
590.566	1	-1
590.735	1	-5
590.905	1	0
591.075	1	0
591.245	1	-1
591.415	1	0
591.585	1	-1
591.754	1	6
591.924	1	-8
592.094	1	0
592.264	1	2
592.434	1	7
592.603	1	5
592.773	1	-1
592.943	1	5
593.113	1	3
593.283	1	-2
593.452	1	-3
593.622	1	-3
593.792	1	6
593.962	1	0
594.132	1	-4
594.301	1	10
594.471	1	8
594.641	1	-4
594.811	1	4
594.981	1	-1
595.150	1	-4
595.320	1	-3
595.490	1	8
595.660	1	2
595.829	1	0
595.999	1	-2
596.169	1	7
596.339	1	-4
596.509	1	-4
596.678	1	-10
596.848	1	1
597.018	1	-7
597.188	1	-3
597.358	1	5
597.527	1	-10
597.697	1	2
597.867	1	-3
598.037	1	-1
598.206	1	-5
598.376	1	7
598.546	1	6
598.716	1	6
598.885	1	-20
599.055	1	7
599.225	1	-1
599.395	1	6
599.565	1	-6
599.734	1	5
599.904	1	1
600.074	1	-6
600.244	1	-7
600.413	1	4
600.583	1	11
600.753	1	-6
600.923	1	-2
601.092	1	13
601.262	1	5
601.432	1	-8
601.602	1	12
601.771	1	-2
601.941	1	-3
602.111	1	8
602.281	1	14
602.451	1	16
602.620	1	-3
602.790	1	3
602.960	1	3
603.130	1	9
603.299	1	2
603.469	1	-6
603.639	1	-12
603.809	1	5
603.978	1	-10
604.148	1	3
604.318	1	-4
604.487	1	8
604.657	1	-3
604.827	1	7
604.997	1	-7
605.166	1	5
605.336	1	-1
605.506	1	-1
605.676	1	-8
605.845	1	5
606.015	1	-1
606.185	1	-2
606.355	1	8
606.524	1	1
606.694	1	1
606.864	1	-3
607.034	1	0
607.203	1	1
607.373	1	0
607.543	1	-4
607.712	1	-2
607.882	1	5
608.052	1	-2
608.222	1	5
608.391	1	4
608.561	1	-4
608.731	1	1
608.901	1	1
609.070	1	6
609.240	1	0
609.410	1	5
609.579	1	5
609.749	1	-1
609.919	1	14
610.089	1	-2
610.258	1	8
610.428	1	1
610.598	1	1
610.767	1	-1
610.937	1	2
611.107	1	-3
611.277	1	7
611.446	1	2
611.616	1	0
611.786	1	8
611.955	1	5
612.125	1	2
612.295	1	-6
612.465	1	5
612.634	1	0
612.804	1	9
612.974	1	-14
613.143	1	6
613.313	1	7
613.483	1	2
613.652	1	-1
613.822	1	1
613.992	1	-2
614.162	1	14
614.331	1	-4
614.501	1	-9
614.671	1	-8
614.840	1	-9
615.010	1	-7
615.180	1	-7
615.349	1	9
615.519	1	-5
615.689	1	4
615.858	1	4
616.028	1	-3
616.198	1	4
616.368	1	-4
616.537	1	-4
616.707	1	4
616.877	1	1
617.046	1	-7
617.216	1	0
617.386	1	5
617.555	1	11
617.725	1	2
617.895	1	3
618.064	1	-5
618.234	1	-10
618.404	1	2
618.573	1	-13
618.743	1	12
618.913	1	4
619.082	1	6
619.252	1	6
619.422	1	-12
619.591	1	-1
619.761	1	5
619.931	1	4
620.100	1	-1
620.270	1	-12
620.440	1	1
620.609	1	1
620.779	1	-2
620.949	1	2
621.118	1	-1
621.288	1	1
621.458	1	2
621.627	1	3
621.797	1	-8
621.967	1	-6
622.136	1	10
622.306	1	9
622.476	1	9
622.645	1	4
622.815	1	2
622.985	1	3
623.154	1	11
623.324	1	3
623.494	1	12
623.663	1	-7
623.833	1	4
624.002	1	-10
624.172	1	4
624.342	1	1
624.511	1	3
624.681	1	1
624.851	1	-7
625.020	1	-1
625.190	1	5
625.360	1	0
625.529	1	-3
625.699	1	-12
625.869	1	13
626.038	1	-10
626.208	1	-3
626.377	1	5
626.547	1	2
626.717	1	0
626.886	1	6
627.056	1	-14
627.226	1	4
627.395	1	9
627.565	1	4
627.735	1	4
627.904	1	0
628.074	1	12
628.243	1	7
628.413	1	11
628.583	1	-6
628.752	1	1
628.922	1	2
629.091	1	1
629.261	1	3
629.431	1	-1
629.600	1	6
629.770	1	-3
629.940	1	4
630.109	1	-6
630.279	1	-10
630.448	1	-4
630.618	1	-5
630.788	1	13
630.957	1	-3
631.127	1	-4
631.297	1	2
631.466	1	-2
631.636	1	-4
631.805	1	-1
631.975	1	12
632.145	1	-1
632.314	1	1
632.484	1	-3
632.653	1	0
632.823	1	-3
632.993	1	-1
633.162	1	-1
633.332	1	-3
633.501	1	-6
633.671	1	-5
633.841	1	-9
634.010	1	1
634.180	1	4
634.349	1	16
634.519	1	-3
634.689	1	-2
634.858	1	0
635.028	1	9
635.197	1	5
635.367	1	0
635.537	1	-3
635.706	1	-5
635.876	1	-9
636.045	1	7
636.215	1	4
636.384	1	-2
636.554	1	6
636.724	1	1
636.893	1	2
637.063	1	-2
637.232	1	-1
637.402	1	-9
637.572	1	6
637.741	1	-6
637.911	1	-3
638.080	1	-3
638.250	1	0
638.419	1	0
638.589	1	-5
638.759	1	-1
638.928	1	4
639.098	1	5
639.267	1	0
639.437	1	-2
639.606	1	-1
639.776	1	-7
639.946	1	-4
640.115	1	4
640.285	1	12
640.454	1	-7
640.624	1	-4
640.793	1	8
640.963	1	4
641.132	1	0
641.302	1	-6
641.472	1	13
641.641	1	-14
641.811	1	-10
641.980	1	1
642.150	1	-10
642.319	1	3
642.489	1	6
642.659	1	-2
642.828	1	-5
642.998	1	7
643.167	1	-11
643.337	1	3
643.506	1	-14
643.676	1	1
643.845	1	-8
644.015	1	8
644.184	1	4
644.354	1	2
644.524	1	-3
644.693	1	1
644.863	1	-5
645.032	1	-1
645.202	1	-4
645.371	1	3
645.541	1	3
645.710	1	4
645.880	1	1
646.049	1	-11
646.219	1	-3
646.388	1	4
646.558	1	-1
646.728	1	-1
646.897	1	0
647.067	1	4
647.236	1	-10
647.406	1	-8
647.575	1	1
647.745	1	1
647.914	1	-14
648.084	1	-11
648.253	1	10
648.423	1	1
648.592	1	-2
648.762	1	-1
648.931	1	6
649.101	1	11
649.270	1	-6
649.440	1	0
649.610	1	1
649.779	1	-5
649.949	1	-8
650.118	1	11
650.288	1	6
650.457	1	10
650.627	1	-5
650.796	1	0
650.966	1	-2
651.135	1	-12
651.305	1	2
651.474	1	-6
651.644	1	14
651.813	1	3
651.983	1	-9
652.152	1	0
652.322	1	-6
652.491	1	3
652.661	1	-6
652.830	1	3
653.000	1	5
653.169	1	3
653.339	1	4
653.508	1	-3
653.678	1	-2
653.847	1	5
654.017	1	-9
654.186	1	-3
654.356	1	0
654.525	1	-1
654.695	1	6
654.864	1	1
655.034	1	6
655.203	1	-13
655.373	1	0
655.542	1	6
655.712	1	1
655.881	1	-5
656.051	1	-11
656.220	1	0
656.390	1	-4
656.559	1	-5
656.729	1	15
656.898	1	-5
657.068	1	-1
657.237	1	-5
657.406	1	8
657.576	1	-1
657.745	1	-9
657.915	1	-9
658.084	1	-2
658.254	1	0
658.423	1	6
658.593	1	0
658.762	1	-3
658.932	1	-1
659.101	1	-3
659.271	1	0
659.440	1	6
659.610	1	-2
659.779	1	-1
659.949	1	-4
660.118	1	3
660.288	1	3
660.457	1	-4
660.626	1	9
660.796	1	-13
660.965	1	0
661.135	1	-8
661.304	1	0
661.474	1	-6
661.643	1	8
661.813	1	16
661.982	1	15
662.152	1	9
662.321	1	-1
662.491	1	-6
662.660	1	-5
662.829	1	-2
662.999	1	0
663.168	1	4
663.338	1	8
663.507	1	10
663.677	1	4
663.846	1	-3
664.016	1	-3
664.185	1	3
664.354	1	-4
664.524	1	2
664.693	1	10
664.863	1	-12
665.032	1	-7
665.202	1	7
665.371	1	-5
665.541	1	-7
665.710	1	-1
665.879	1	0
666.049	1	-4
666.218	1	-6
666.388	1	5
666.557	1	5
666.727	1	-13
666.896	1	-8
667.065	1	3
667.235	1	4
667.404	1	6
667.574	1	2
667.743	1	2
667.913	1	-2
668.082	1	3
668.251	1	0
668.421	1	0
668.590	1	-1
668.760	1	-9
668.929	1	-6
669.099	1	-4
669.268	1	-7
669.437	1	4
669.607	1	-2
669.776	1	-1
669.946	1	5
670.115	1	-2
670.285	1	3
670.454	1	-5
670.623	1	-5
670.793	1	0
670.962	1	-7
671.132	1	1
671.301	1	-12
671.470	1	-2
671.640	1	5
671.809	1	1
671.979	1	-3
672.148	1	1
672.317	1	0
672.487	1	10
672.656	1	0
672.826	1	-5
672.995	1	2
673.164	1	5
673.334	1	0
673.503	1	-2
673.673	1	-5
673.842	1	-2
674.011	1	5
674.181	1	5
674.350	1	1
674.520	1	-6
674.689	1	2
674.858	1	3
675.028	1	-5
675.197	1	-14
675.367	1	-1
675.536	1	6
675.705	1	12
675.875	1	-4
676.044	1	-8
676.214	1	-2
676.383	1	-9
676.552	1	0
676.722	1	1
676.891	1	9
677.060	1	-4
677.230	1	-1
677.399	1	-4
677.569	1	-4
677.738	1	6
677.907	1	8
678.077	1	11
678.246	1	0
678.416	1	-3
678.585	1	-9
678.754	1	-2
678.924	1	-1
679.093	1	11
679.262	1	0
679.432	1	-3
679.601	1	-4
679.771	1	2
679.940	1	-1
680.109	1	8
680.279	1	1
680.448	1	0
680.617	1	1
680.787	1	1
680.956	1	8
681.125	1	4
681.295	1	5
681.464	1	2
681.634	1	-5
681.803	1	-7
681.972	1	-13
682.142	1	11
682.311	1	3
682.480	1	9
682.650	1	-7
682.819	1	2
682.988	1	-1
683.158	1	-1
683.327	1	-7
683.496	1	6
683.666	1	-10
683.835	1	2
684.004	1	4
684.174	1	-4
684.343	1	-7
684.512	1	8
684.682	1	-6
684.851	1	2
685.021	1	-7
685.190	1	-4
685.359	1	9
685.529	1	1
685.698	1	10
685.867	1	2
686.037	1	1
686.206	1	-1
686.375	1	6
686.545	1	-1
686.714	1	-5
686.883	1	1
687.053	1	-2
687.222	1	7
687.391	1	-3
687.561	1	0
687.730	1	-2
687.899	1	-7
688.069	1	10
688.238	1	-3
688.407	1	-2
688.577	1	-7
688.746	1	6
