340.368	1	0
340.539	1	-14
340.710	1	-3
340.881	1	-9
341.052	1	7
341.223	1	5
341.394	1	-11
341.565	1	-13
341.737	1	2
341.908	1	4
342.079	1	-10
342.250	1	-11
342.421	1	-5
342.592	1	-1
342.763	1	2
342.934	1	5
343.105	1	-6
343.276	1	2
343.447	1	-7
343.618	1	-2
343.789	1	-6
343.960	1	-4
344.131	1	-8
344.302	1	-1
344.473	1	-3
344.644	1	5
344.815	1	-3
344.986	1	2
345.157	1	-1
345.328	1	-1
345.499	1	-3
345.670	1	-11
345.841	1	6
346.012	1	5
346.183	1	-6
346.354	1	-5
346.526	1	-9
346.697	1	0
346.868	1	6
347.039	1	3
347.210	1	-16
347.381	1	-5
347.552	1	-7
347.723	1	-6
347.894	1	-2
348.065	1	0
348.236	1	13
348.407	1	-6
348.578	1	-2
348.749	1	-5
348.920	1	2
349.091	1	-14
349.262	1	-3
349.433	1	3
349.604	1	5
349.775	1	11
349.946	1	-10
350.117	1	-5
350.288	1	7
350.459	1	-7
350.630	1	8
350.801	1	-6
350.972	1	-2
351.143	1	-3
351.314	1	3
351.485	1	3
351.656	1	5
351.827	1	-3
351.998	1	4
352.169	1	1
352.340	1	1
352.511	1	-4
352.682	1	2
352.853	1	-4
353.024	1	-10
353.195	1	-2
353.366	1	7
353.537	1	-2
353.708	1	-3
353.879	1	-2
354.050	1	-13
354.221	1	-12
354.392	1	-5
354.563	1	1
354.734	1	4
354.905	1	1
355.076	1	-2
355.247	1	-2
355.418	1	-13
355.589	1	-6
355.760	1	-7
355.931	1	1
356.102	1	12
356.273	1	-10
356.444	1	1
356.615	1	-4
356.785	1	2
356.956	1	0
357.127	1	3
357.298	1	0
357.469	1	2
357.640	1	-6
357.811	1	-4
357.982	1	-4
358.153	1	12
358.324	1	-2
358.495	1	4
358.666	1	-1
358.837	1	-13
359.008	1	-12
359.179	1	-7
359.350	1	-9
359.521	1	11
359.692	1	2
359.863	1	3
360.034	1	10
360.205	1	-12
360.376	1	-6
360.547	1	10
360.718	1	-3
360.889	1	-4
361.060	1	-1
361.231	1	-11
361.401	1	-3
361.572	1	5
361.743	1	-1
361.914	1	12
362.085	1	4
362.256	1	6
362.427	1	2
362.598	1	-8
362.769	1	-9
362.940	1	1
363.111	1	0
363.282	1	6
363.453	1	-4
363.624	1	15
363.795	1	6
363.966	1	-8
364.137	1	8
364.308	1	-4
364.478	1	1
364.649	1	7
364.820	1	6
364.991	1	7
365.162	1	8
365.333	1	4
365.504	1	9
365.675	1	0
365.846	1	5
366.017	1	-4
366.188	1	4
366.359	1	6
366.530	1	12
366.701	1	2
366.871	1	8
367.042	1	1
367.213	1	13
367.384	1	7
367.555	1	2
367.726	1	4
367.897	1	11
368.068	1	4
368.239	1	1
368.410	1	14
368.581	1	5
368.752	1	3
368.923	1	-1
369.093	1	6
369.264	1	19
369.435	1	13
369.606	1	2
369.777	1	7
369.948	1	3
370.119	1	2
370.290	1	7
370.461	1	13
370.632	1	7
370.803	1	11
370.973	1	13
371.144	1	5
371.315	1	4
371.486	1	12
371.657	1	5
371.828	1	4
371.999	1	10
372.170	1	14
372.341	1	7
372.512	1	8
372.682	1	5
372.853	1	11
373.024	1	10
373.195	1	7
373.366	1	5
373.537	1	4
373.708	1	5
373.879	1	2
374.050	1	7
374.220	1	14
374.391	1	11
374.562	1	12
374.733	1	1
374.904	1	4
375.075	1	-3
375.246	1	6
375.417	1	7
375.588	1	6
375.758	1	4
375.929	1	7
376.100	1	5
376.271	1	6
376.442	1	-5
376.613	1	-2
376.784	1	9
376.955	1	5
377.125	1	5
377.296	1	-1
377.467	1	0
377.638	1	6
377.809	1	5
377.980	1	0
378.151	1	9
378.321	1	-7
378.492	1	-8
378.663	1	0
378.834	1	1
379.005	1	8
379.176	1	-6
379.347	1	0
379.518	1	-4
379.688	1	6
379.859	1	7
380.030	1	6
380.201	1	-1
380.372	1	3
380.543	1	6
380.714	1	3
380.884	1	0
381.055	1	0
381.226	1	-1
381.397	1	-14
381.568	1	3
381.739	1	5
381.910	1	4
382.080	1	3
382.251	1	-9
382.422	1	0
382.593	1	-13
382.764	1	-3
382.935	1	-7
383.105	1	-8
383.276	1	5
383.447	1	7
383.618	1	-2
383.789	1	-7
383.960	1	8
384.130	1	5
384.301	1	-4
384.472	1	1
384.643	1	11
384.814	1	-8
384.985	1	-12
385.156	1	-12
385.326	1	15
385.497	1	6
385.668	1	9
385.839	1	1
386.010	1	-2
386.180	1	3
386.351	1	-3
386.522	1	8
386.693	1	-9
386.864	1	0
387.035	1	-9
387.205	1	-2
387.376	1	6
387.547	1	-7
387.718	1	6
387.889	1	-9
388.060	1	11
388.230	1	2
388.401	1	-4
388.572	1	-6
388.743	1	10
388.914	1	0
389.084	1	0
389.255	1	-1
389.426	1	1
389.597	1	2
389.768	1	6
389.939	1	-2
390.109	1	-3
390.280	1	-6
390.451	1	-10
390.622	1	6
390.793	1	1
390.963	1	11
391.134	1	9
391.305	1	3
391.476	1	-13
391.647	1	-9
391.817	1	0
391.988	1	2
392.159	1	-4
392.330	1	7
392.501	1	-5
392.671	1	-7
392.842	1	-8
393.013	1	-1
393.184	1	1
393.355	1	-1
393.525	1	-4
393.696	1	2
393.867	1	0
394.038	1	6
394.208	1	3
394.379	1	-2
394.550	1	13
394.721	1	-12
394.892	1	-1
395.062	1	-3
395.233	1	-4
395.404	1	-11
395.575	1	2
395.746	1	8
395.916	1	1
396.087	1	-5
396.258	1	-3
396.429	1	-2
396.599	1	-3
396.770	1	-2
396.941	1	-9
397.112	1	9
397.283	1	-1
397.453	1	1
397.624	1	4
397.795	1	-3
397.966	1	1
398.136	1	-8
398.307	1	1
398.478	1	4
398.649	1	-4
398.819	1	-7
398.990	1	1
399.161	1	4
399.332	1	0
399.503	1	0
399.673	1	-4
399.844	1	1
400.015	1	-5
400.186	1	3
400.356	1	-13
400.527	1	1
400.698	1	-6
400.869	1	5
401.039	1	4
401.210	1	-1
401.381	1	-17
401.552	1	-5
401.722	1	6
401.893	1	1
402.064	1	1
402.235	1	-2
402.405	1	-3
402.576	1	-8
402.747	1	3
402.918	1	11
403.088	1	3
403.259	1	14
403.430	1	-10
403.601	1	-5
403.771	1	12
403.942	1	3
404.113	1	-12
404.284	1	3
404.454	1	0
404.625	1	0
404.796	1	-4
404.967	1	7
405.137	1	10
405.308	1	7
405.479	1	-10
405.649	1	-5
405.820	1	-16
405.991	1	-10
406.162	1	10
406.332	1	-6
406.503	1	9
406.674	1	-10
406.845	1	4
407.015	1	8
407.186	1	-3
407.357	1	0
407.527	1	-14
407.698	1	8
407.869	1	-8
408.040	1	1
408.210	1	-3
408.381	1	-3
408.552	1	-8
408.722	1	-18
408.893	1	-1
409.064	1	-4
409.235	1	-4
409.405	1	10
409.576	1	-3
409.747	1	-11
409.917	1	-5
410.088	1	-1
410.259	1	2
410.430	1	3
410.600	1	-8
410.771	1	-3
410.942	1	1
411.112	1	-2
411.283	1	12
411.454	1	-2
411.625	1	4
411.795	1	-9
411.966	1	2
412.137	1	-1
412.307	1	-3
412.478	1	16
412.649	1	-5
412.819	1	-6
412.990	1	-1
413.161	1	0
413.332	1	0
413.502	1	-2
413.673	1	4
413.844	1	2
414.014	1	3
414.185	1	2
414.356	1	-4
414.526	1	-10
414.697	1	1
414.868	1	-8
415.038	1	11
415.209	1	-2
415.380	1	2
415.550	1	-1
415.721	1	-2
415.892	1	-6
416.063	1	-7
416.233	1	2
416.404	1	-2
416.575	1	6
416.745	1	-8
416.916	1	-5
417.087	1	0
417.257	1	-4
417.428	1	-2
417.599	1	-5
417.769	1	11
417.940	1	1
418.111	1	2
418.281	1	5
418.452	1	-2
418.623	1	-6
418.793	1	-6
418.964	1	-6
419.135	1	-2
419.305	1	-1
419.476	1	2
419.647	1	-10
419.817	1	3
419.988	1	-4
420.159	1	2
420.329	1	-13
420.500	1	-6
420.671	1	1
420.841	1	8
421.012	1	-7
421.183	1	-1
421.353	1	0
421.524	1	-7
421.695	1	-3
421.865	1	4
422.036	1	0
422.206	1	-4
422.377	1	-4
422.548	1	-13
422.718	1	5
422.889	1	-14
423.060	1	0
423.230	1	-5
423.401	1	-1
423.572	1	-7
423.742	1	0
423.913	1	-7
424.084	1	1
424.254	1	1
424.425	1	8
424.595	1	-5
424.766	1	-1
424.937	1	-2
425.107	1	-5
425.278	1	16
425.449	1	-4
425.619	1	2
425.790	1	-8
425.961	1	-3
426.131	1	-7
426.302	1	-5
426.472	1	-2
426.643	1	14
426.814	1	7
426.984	1	-1
427.155	1	-5
427.326	1	-5
427.496	1	-9
427.667	1	8
427.837	1	-5
428.008	1	6
428.179	1	-12
428.349	1	-3
428.520	1	-1
428.691	1	2
428.861	1	1
429.032	1	-3
429.202	1	-6
429.373	1	-2
429.544	1	-6
429.714	1	-1
429.885	1	-2
430.055	1	1
430.226	1	-16
430.397	1	-12
430.567	1	4
430.738	1	-2
430.909	1	-1
431.079	1	-13
431.250	1	-3
431.420	1	-5
431.591	1	9
431.762	1	4
431.932	1	-8
432.103	1	-2
432.273	1	-8
432.444	1	1
432.615	1	-11
432.785	1	1
432.956	1	-16
433.126	1	-5
433.297	1	2
433.468	1	-1
433.638	1	-2
433.809	1	7
433.979	1	6
434.150	1	2
434.320	1	-1
434.491	1	-13
434.662	1	5
434.832	1	4
435.003	1	2
435.173	1	-14
435.344	1	-3
435.515	1	4
435.685	1	-9
435.856	1	-4
436.026	1	4
436.197	1	-2
436.368	1	3
436.538	1	-13
436.709	1	-2
436.879	1	-1
437.050	1	-6
437.220	1	1
437.391	1	2
437.562	1	-1
437.732	1	-12
437.903	1	1
438.073	1	-3
438.244	1	-4
438.414	1	-13
438.585	1	-6
438.756	1	0
438.926	1	-8
439.097	1	-15
439.267	1	5
439.438	1	-7
439.608	1	-9
439.779	1	1
439.949	1	6
440.120	1	4
440.291	1	-2
440.461	1	-3
440.632	1	1
440.802	1	0
440.973	1	-7
441.143	1	9
441.314	1	-11
441.485	1	-5
441.655	1	-2
441.826	1	0
441.996	1	-1
442.167	1	3
442.337	1	-10
442.508	1	-7
442.678	1	-13
442.849	1	12
443.019	1	13
443.190	1	1
443.361	1	-8
443.531	1	8
443.702	1	1
443.872	1	3
444.043	1	-5
444.213	1	-5
444.384	1	-15
444.554	1	14
444.725	1	-6
444.895	1	-1
445.066	1	-11
445.237	1	-5
445.407	1	2
445.578	1	-12
445.748	1	-1
445.919	1	-6
446.089	1	-1
446.260	1	-6
446.430	1	-2
446.601	1	0
446.771	1	8
446.942	1	0
447.112	1	-19
447.283	1	-6
447.453	1	-10
447.624	1	-5
447.794	1	-8
447.965	1	-4
448.135	1	5
448.306	1	0
448.477	1	1
448.647	1	-10
448.818	1	0
448.988	1	-5
449.159	1	-1
449.329	1	1
449.500	1	-13
449.670	1	5
449.841	1	0
450.011	1	-1
450.182	1	-4
450.352	1	-9
450.523	1	-5
450.693	1	-7
450.864	1	-10
451.034	1	-21
451.205	1	5
451.375	1	-6
451.546	1	2
451.716	1	-1
451.887	1	-11
452.057	1	-2
452.228	1	-3
452.398	1	-7
452.569	1	-3
452.739	1	-4
452.910	1	-7
453.080	1	2
453.251	1	4
453.421	1	2
453.592	1	-5
453.762	1	6
453.933	1	-10
454.103	1	-3
454.274	1	-7
454.444	1	-5
454.615	1	11
454.785	1	-13
454.956	1	-2
455.126	1	-5
455.297	1	1
455.467	1	0
455.638	1	1
455.808	1	-4
455.979	1	-5
456.149	1	8
456.320	1	-3
456.490	1	-8
456.661	1	-6
456.831	1	3
457.001	1	2
457.172	1	-3
457.342	1	-7
457.513	1	-2
457.683	1	-2
457.854	1	-4
458.024	1	-5
458.195	1	-4
458.365	1	-6
458.536	1	-2
458.706	1	0
458.877	1	6
459.047	1	8
459.218	1	-6
459.388	1	3
459.559	1	8
459.729	1	4
459.899	1	-10
460.070	1	-3
460.240	1	7
460.411	1	-6
460.581	1	10
460.752	1	-8
460.922	1	0
461.093	1	-4
461.263	1	-6
461.434	1	1
461.604	1	-8
461.775	1	-10
461.945	1	-4
462.115	1	2
462.286	1	1
462.456	1	-7
462.627	1	11
462.797	1	-7
462.968	1	5
463.138	1	-10
463.309	1	-17
463.479	1	-4
463.649	1	-2
463.820	1	-3
463.990	1	-2
464.161	1	6
464.331	1	-1
464.502	1	2
464.672	1	-5
464.843	1	1
465.013	1	0
465.183	1	-3
465.354	1	2
465.524	1	0
465.695	1	-8
465.865	1	-10
466.036	1	-9
466.206	1	11
466.376	1	-8
466.547	1	-2
466.717	1	-4
466.888	1	3
467.058	1	2
467.229	1	6
467.399	1	5
467.569	1	8
467.740	1	2
467.910	1	2
468.081	1	4
468.251	1	-7
468.422	1	-11
468.592	1	-3
468.762	1	-8
468.933	1	1
469.103	1	-6
469.274	1	1
469.444	1	-5
469.614	1	1
469.785	1	-16
469.955	1	-17
470.126	1	-15
470.296	1	-5
470.467	1	-9
470.637	1	-3
470.807	1	6
470.978	1	0
471.148	1	1
471.319	1	-9
471.489	1	-1
471.659	1	-1
471.830	1	-5
472.000	1	-8
472.171	1	-2
472.341	1	-4
472.511	1	-3
472.682	1	-4
472.852	1	-4
473.023	1	1
473.193	1	4
473.363	1	0
473.534	1	5
473.704	1	-3
473.875	1	11
474.045	1	-2
474.215	1	10
474.386	1	6
474.556	1	-7
474.727	1	-3
474.897	1	1
475.067	1	-1
475.238	1	-2
475.408	1	5
475.578	1	-5
475.749	1	-6
475.919	1	-1
476.090	1	-2
476.260	1	-5
476.430	1	-3
476.601	1	2
476.771	1	3
476.942	1	9
477.112	1	-2
477.282	1	2
477.453	1	-13
477.623	1	-8
477.793	1	-8
477.964	1	2
478.134	1	-11
478.305	1	2
478.475	1	-7
478.645	1	5
478.816	1	2
478.986	1	-4
479.156	1	6
479.327	1	-11
479.497	1	-9
479.667	1	-5
479.838	1	-2
480.008	1	-4
480.179	1	2
480.349	1	0
480.519	1	1
480.690	1	2
480.860	1	-2
481.030	1	-3
481.201	1	-7
481.371	1	4
481.541	1	-10
481.712	1	3
481.882	1	0
482.053	1	3
482.223	1	-8
482.393	1	2
482.564	1	5
482.734	1	-10
482.904	1	-6
483.075	1	-2
483.245	1	9
483.415	1	0
483.586	1	-4
483.756	1	-1
483.926	1	3
484.097	1	-10
484.267	1	-2
484.437	1	-3
484.608	1	0
484.778	1	-2
484.948	1	-11
485.119	1	-6
485.289	1	-5
485.459	1	11
485.630	1	-10
485.800	1	2
485.970	1	-9
486.141	1	-9
486.311	1	-1
486.481	1	3
486.652	1	-4
486.822	1	11
486.992	1	8
487.163	1	-10
487.333	1	2
487.503	1	-2
487.674	1	6
487.844	1	-1
488.014	1	-9
488.185	1	2
488.355	1	-3
488.525	1	8
488.696	1	-1
488.866	1	1
489.036	1	3
489.207	1	4
489.377	1	-6
489.547	1	-11
489.718	1	-2
489.888	1	-7
490.058	1	-13
490.228	1	-4
490.399	1	-2
490.569	1	12
490.739	1	-4
490.910	1	-9
491.080	1	5
491.250	1	-5
491.421	1	0
491.591	1	-6
491.761	1	-8
491.932	1	6
492.102	1	-9
492.272	1	4
492.442	1	2
492.613	1	-13
492.783	1	1
492.953	1	-4
493.124	1	-1
493.294	1	-3
493.464	1	14
493.635	1	1
493.805	1	-8
493.975	1	2
494.145	1	4
494.316	1	-8
494.486	1	2
494.656	1	-3
494.827	1	1
494.997	1	-8
495.167	1	-3
495.337	1	8
495.508	1	0
495.678	1	-3
495.848	1	3
496.019	1	-11
496.189	1	0
496.359	1	-5
496.529	1	-4
496.700	1	-5
496.870	1	2
497.040	1	-2
497.211	1	-8
497.381	1	0
497.551	1	8
497.721	1	-3
497.892	1	-7
498.062	1	-6
498.232	1	-4
498.403	1	3
498.573	1	-11
498.743	1	-8
498.913	1	3
499.084	1	1
499.254	1	-1
499.424	1	2
499.594	1	1
499.765	1	-5
499.935	1	-4
500.105	1	6
500.275	1	1
500.446	1	-10
500.616	1	-2
500.786	1	-8
500.956	1	-2
501.127	1	2
501.297	1	-1
501.467	1	-8
501.638	1	-6
501.808	1	5
501.978	1	0
502.148	1	5
502.319	1	-8
502.489	1	7
502.659	1	-4
502.829	1	0
503.000	1	-4
503.170	1	11
503.340	1	0
503.510	1	8
503.681	1	-5
503.851	1	0
504.021	1	-8
504.191	1	10
504.362	1	-7
504.532	1	2
504.702	1	-8
504.872	1	-7
505.042	1	-1
505.213	1	1
505.383	1	-2
505.553	1	-5
505.723	1	-1
505.894	1	-8
506.064	1	-2
506.234	1	0
506.404	1	0
506.575	1	4
506.745	1	5
506.915	1	2
507.085	1	-5
507.256	1	-7
507.426	1	0
507.596	1	-1
507.766	1	-6
507.936	1	0
508.107	1	-1
508.277	1	0
508.447	1	0
508.617	1	-1
508.788	1	13
508.958	1	-15
509.128	1	0
509.298	1	-5
509.468	1	1
509.639	1	-4
509.809	1	9
509.979	1	6
510.149	1	1
510.319	1	-2
510.490	1	6
510.660	1	-8
510.830	1	4
511.000	1	-9
511.171	1	-7
511.341	1	-4
511.511	1	4
511.681	1	-6
511.851	1	3
512.022	1	1
512.192	1	-1
512.362	1	-1
512.532	1	0
512.702	1	-7
512.873	1	2
513.043	1	4
513.213	1	-2
513.383	1	-12
513.553	1	-7
513.724	1	5
513.894	1	-15
514.064	1	5
514.234	1	-4
514.404	1	5
514.575	1	1
514.745	1	-4
514.915	1	5
515.085	1	-4
515.255	1	-4
515.425	1	-10
515.596	1	0
515.766	1	-10
515.936	1	2
516.106	1	-1
516.276	1	-6
516.447	1	8
516.617	1	3
516.787	1	3
516.957	1	-5
517.127	1	-4
517.297	1	-1
517.468	1	-2
517.638	1	-3
517.808	1	-9
517.978	1	11
518.148	1	6
518.319	1	-3
518.489	1	-4
518.659	1	-7
518.829	1	-2
518.999	1	0
519.169	1	-4
519.340	1	6
519.510	1	-4
519.680	1	6
519.850	1	-3
520.020	1	3
520.190	1	-6
520.361	1	7
520.531	1	-4
520.701	1	-1
520.871	1	-3
521.041	1	8
521.211	1	-20
521.382	1	-9
521.552	1	9
521.722	1	0
521.892	1	-5
522.062	1	9
522.232	1	1
522.402	1	-4
522.573	1	-13
522.743	1	0
522.913	1	3
523.083	1	-7
523.253	1	-4
523.423	1	4
523.593	1	-5
523.764	1	-3
523.934	1	-2
524.104	1	-4
524.274	1	0
524.444	1	-1
524.614	1	-7
524.784	1	2
524.955	1	-6
525.125	1	-1
525.295	1	-4
525.465	1	2
525.635	1	-5
525.805	1	-9
525.975	1	-8
526.146	1	-7
526.316	1	10
526.486	1	6
526.656	1	-6
526.826	1	-2
526.996	1	6
527.166	1	-6
527.337	1	-2
527.507	1	-1
527.677	1	2
527.847	1	1
528.017	1	-3
528.187	1	3
528.357	1	-4
528.527	1	3
528.698	1	2
528.868	1	-3
529.038	1	-4
529.208	1	-10
529.378	1	6
529.548	1	2
529.718	1	5
529.888	1	0
530.058	1	2
530.229	1	7
530.399	1	5
530.569	1	-9
530.739	1	-3
530.909	1	-11
531.079	1	2
531.249	1	-1
531.419	1	2
531.589	1	-7
531.760	1	0
531.930	1	-6
532.100	1	-10
532.270	1	-11
532.440	1	-1
532.610	1	2
532.780	1	-2
532.950	1	3
533.120	1	7
533.290	1	-1
533.461	1	-1
533.631	1	3
533.801	1	13
533.971	1	-9
534.141	1	-14
534.311	1	8
534.481	1	-5
534.651	1	-5
534.821	1	2
534.991	1	3
535.162	1	-10
535.332	1	-3
535.502	1	-5
535.672	1	9
535.842	1	-5
536.012	1	4
536.182	1	3
536.352	1	3
536.522	1	-10
536.692	1	1
536.862	1	11
537.032	1	5
537.203	1	-9
537.373	1	1
537.543	1	-4
537.713	1	-4
537.883	1	-8
538.053	1	-15
538.223	1	-3
538.393	1	10
538.563	1	5
538.733	1	6
538.903	1	-6
539.073	1	1
539.243	1	3
539.413	1	2
539.584	1	-5
539.754	1	-2
539.924	1	1
540.094	1	-4
540.264	1	-3
540.434	1	7
540.604	1	2
540.774	1	11
540.944	1	3
541.114	1	-14
541.284	1	-4
541.454	1	4
541.624	1	7
541.794	1	1
541.964	1	8
542.134	1	1
542.305	1	7
542.475	1	3
542.645	1	-2
542.815	1	6
542.985	1	-4
543.155	1	-2
543.325	1	-4
543.495	1	-2
543.665	1	-1
543.835	1	7
544.005	1	9
544.175	1	-7
544.345	1	-3
544.515	1	5
544.685	1	-6
544.855	1	-2
545.025	1	-2
545.195	1	-6
545.365	1	-2
545.535	1	9
545.705	1	2
545.875	1	-10
546.045	1	-3
546.216	1	-2
546.386	1	2
546.556	1	-5
546.726	1	-3
546.896	1	0
547.066	1	0
547.236	1	-3
547.406	1	-6
547.576	1	7
547.746	1	-12
547.916	1	-1
548.086	1	-6
548.256	1	-7
548.426	1	-10
548.596	1	-1
548.766	1	1
548.936	1	3
549.106	1	-5
549.276	1	0
549.446	1	-1
549.616	1	-3
549.786	1	-7
549.956	1	6
550.126	1	-1
550.296	1	0
550.466	1	-6
550.636	1	9
550.806	1	3
550.976	1	7
551.146	1	-1
551.316	1	0
551.486	1	0
551.656	1	6
551.826	1	11
551.996	1	4
552.166	1	12
552.336	1	-7
552.506	1	11
552.676	1	13
552.846	1	6
553.016	1	-6
553.186	1	-2
553.356	1	-4
553.526	1	3
553.696	1	4
553.866	1	6
554.036	1	6
554.206	1	3
554.376	1	6
554.546	1	9
554.716	1	0
554.886	1	-2
555.056	1	-4
555.226	1	-3
555.396	1	-3
555.566	1	7
555.736	1	-1
555.906	1	5
556.076	1	-6
556.246	1	0
556.416	1	-1
556.586	1	-8
556.756	1	-4
556.926	1	1
557.096	1	0
557.266	1	-7
557.436	1	6
557.606	1	3
557.776	1	-5
557.946	1	5
558.116	1	-7
558.286	1	-2
558.456	1	1
558.626	1	5
558.796	1	-5
558.966	1	-1
559.136	1	1
559.306	1	2
559.476	1	-7
559.646	1	-5
559.816	1	-6
559.986	1	-12
560.155	1	3
560.325	1	-3
560.495	1	4
560.665	1	-6
560.835	1	3
561.005	1	-6
561.175	1	4
561.345	1	-6
561.515	1	0
561.685	1	-1
561.855	1	-3
562.025	1	-7
562.195	1	-1
562.365	1	3
562.535	1	-6
562.705	1	-8
562.875	1	-1
563.045	1	-4
563.215	1	8
563.385	1	-13
563.555	1	-12
563.725	1	-1
563.895	1	-2
564.064	1	-5
564.234	1	-3
564.404	1	11
564.574	1	4
564.744	1	7
564.914	1	5
565.084	1	-1
565.254	1	6
565.424	1	-4
565.594	1	5
565.764	1	-2
565.934	1	9
566.104	1	-4
566.274	1	-4
566.444	1	-10
566.614	1	0
566.783	1	-7
566.953	1	6
567.123	1	4
567.293	1	7
567.463	1	-2
567.633	1	2
567.803	1	-7
567.973	1	-14
568.143	1	-4
568.313	1	6
568.483	1	-2
568.653	1	-6
568.823	1	-1
568.993	1	4
569.162	1	4
569.332	1	-3
569.502	1	-9
569.672	1	6
569.842	1	-1
570.012	1	4
570.182	1	-1
570.352	1	-1
570.522	1	-7
570.692	1	7
570.862	1	-5
571.031	1	-4
571.201	1	-1
571.371	1	-3
571.541	1	7
571.711	1	3
571.881	1	3
572.051	1	0
572.221	1	-10
572.391	1	-12
572.561	1	1
572.731	1	4
572.900	1	-1
573.070	1	3
573.240	1	2
573.410	1	5
573.580	1	-5
573.750	1	-4
573.920	1	0
574.090	1	-1
574.260	1	8
574.430	1	6
574.599	1	2
574.769	1	-7
574.939	1	5
575.109	1	1
575.279	1	3
575.449	1	-2
575.619	1	7
575.789	1	-8
575.959	1	-9
576.128	1	-7
576.298	1	12
576.468	1	-3
576.638	1	-10
576.808	1	-9
576.978	1	9
577.148	1	2
577.318	1	8
577.487	1	-5
577.657	1	3
577.827	1	-17
577.997	1	-2
578.167	1	2
578.337	1	9
578.507	1	-1
578.677	1	-4
578.846	1	-2
579.016	1	8
579.186	1	1
579.356	1	1
579.526	1	-5
579.696	1	-4
579.866	1	-3
580.036	1	-6
580.205	1	-6
580.375	1	0
580.545	1	-11
580.715	1	-2
580.885	1	4
581.055	1	-2
581.225	1	7
581.394	1	-4
581.564	1	9
581.734	1	-11
581.904	1	0
582.074	1	-2
582.244	1	-8
582.414	1	9
582.583	1	2
582.753	1	0
582.923	1	-6
583.093	1	-2
583.263	1	-3
583.433	1	-7
583.603	1	9
583.772	1	7
583.942	1	-2
584.112	1	1
584.282	1	-4
584.452	1	-1
584.622	1	4
584.791	1	-6
584.961	1	3
585.131	1	0
585.301	1	-8
585.471	1	10
585.641	1	-9
585.811	1	-1
585.980	1	-2
586.150	1	0
586.320	1	-1
586.490	1	4
586.660	1	-3
586.830	1	-2
586.999	1	-10
587.169	1	9
587.339	1	-2
587.509	1	0
587.679	1	4
587.849	1	-2
588.018	1	-2
588.188	1	8
588.358	1	-2
588.528	1	-2
588.698	1	9
588.867	1	0
589.037	1	7
589.207	1	1
589.377	1	4
589.547	1	2
589.717	1	1
589.886	1	-5
590.056	1	0
590.226	1	5
590.396	1	8
590.566	1	-2
590.735	1	2
590.905	1	6
591.075	1	-2
591.245	1	-2
591.415	1	-5
591.585	1	-6
591.754	1	-6
591.924	1	-4
592.094	1	-2
592.264	1	4
592.434	1	-6
592.603	1	2
592.773	1	-3
592.943	1	-4
593.113	1	-8
593.283	1	3
593.452	1	0
593.622	1	-3
593.792	1	6
593.962	1	1
594.132	1	2
594.301	1	-6
594.471	1	-2
594.641	1	-3
594.811	1	-7
594.981	1	-6
595.150	1	-1
595.320	1	14
595.490	1	7
595.660	1	0
595.829	1	4
595.999	1	0
596.169	1	1
596.339	1	7
596.509	1	1
596.678	1	-10
596.848	1	0
597.018	1	-11
597.188	1	-1
597.358	1	6
597.527	1	-14
597.697	1	-1
597.867	1	-9
598.037	1	-8
598.206	1	-2
598.376	1	3
598.546	1	-10
598.716	1	11
598.885	1	-13
599.055	1	-6
599.225	1	-12
599.395	1	-3
599.565	1	-10
599.734	1	3
599.904	1	-3
600.074	1	4
600.244	1	-8
600.413	1	9
600.583	1	14
600.753	1	-4
600.923	1	-11
601.092	1	8
601.262	1	-1
601.432	1	-2
601.602	1	3
601.771	1	-3
601.941	1	8
602.111	1	5
602.281	1	4
602.451	1	5
602.620	1	-13
602.790	1	-5
602.960	1	-6
603.130	1	-5
603.299	1	1
603.469	1	-7
603.639	1	-4
603.809	1	-7
603.978	1	4
604.148	1	3
604.318	1	1
604.487	1	-5
604.657	1	-5
604.827	1	-1
604.997	1	2
605.166	1	3
605.336	1	-2
605.506	1	3
605.676	1	-8
605.845	1	-1
606.015	1	0
606.185	1	0
606.355	1	7
606.524	1	-9
606.694	1	0
606.864	1	-14
607.034	1	-13
607.203	1	-4
607.373	1	-2
607.543	1	-4
607.712	1	-3
607.882	1	6
608.052	1	-9
608.222	1	4
608.391	1	3
608.561	1	-5
608.731	1	1
608.901	1	0
609.070	1	10
609.240	1	-12
609.410	1	4
609.579	1	-1
609.749	1	-5
609.919	1	6
610.089	1	-4
610.258	1	5
610.428	1	1
610.598	1	-12
610.767	1	-1
610.937	1	-8
611.107	1	-5
611.277	1	1
611.446	1	4
611.616	1	0
611.786	1	10
611.955	1	0
612.125	1	-2
612.295	1	-14
612.465	1	11
612.634	1	-4
612.804	1	-1
612.974	1	-19
613.143	1	-1
613.313	1	3
613.483	1	5
613.652	1	7
613.822	1	-4
613.992	1	-5
614.162	1	8
614.331	1	5
614.501	1	-4
614.671	1	-2
614.840	1	-11
615.010	1	-6
615.180	1	-7
615.349	1	4
615.519	1	-12
615.689	1	5
615.858	1	2
616.028	1	-3
616.198	1	-2
616.368	1	0
616.537	1	-11
616.707	1	4
616.877	1	-4
617.046	1	-1
617.216	1	-2
617.386	1	4
617.555	1	8
617.725	1	-4
617.895	1	5
618.064	1	-3
618.234	1	-7
618.404	1	-9
618.573	1	-8
618.743	1	5
618.913	1	2
619.082	1	2
619.252	1	8
619.422	1	-11
619.591	1	-9
619.761	1	-1
619.931	1	11
620.100	1	-6
620.270	1	-11
620.440	1	2
620.609	1	-1
620.779	1	-12
620.949	1	-4
621.118	1	-5
621.288	1	10
621.458	1	-3
621.627	1	0
621.797	1	-4
621.967	1	-7
622.136	1	11
622.306	1	3
622.476	1	2
622.645	1	3
622.815	1	10
622.985	1	6
623.154	1	7
623.324	1	0
623.494	1	7
623.663	1	-9
623.833	1	5
624.002	1	-10
624.172	1	1
624.342	1	7
624.511	1	5
624.681	1	1
624.851	1	-5
625.020	1	-2
625.190	1	-5
625.360	1	2
625.529	1	3
625.699	1	-7
625.869	1	13
626.038	1	-9
626.208	1	3
626.377	1	10
626.547	1	0
626.717	1	0
626.886	1	7
627.056	1	-12
627.226	1	5
627.395	1	0
627.565	1	-2
627.735	1	-2
627.904	1	-2
628.074	1	-4
628.243	1	2
628.413	1	1
628.583	1	1
628.752	1	-5
628.922	1	12
629.091	1	-6
629.261	1	2
629.431	1	-3
629.600	1	12
629.770	1	-12
629.940	1	2
630.109	1	-11
630.279	1	-7
630.448	1	-1
630.618	1	-3
630.788	1	9
630.957	1	-5
631.127	1	3
631.297	1	1
631.466	1	6
631.636	1	-13
631.805	1	0
631.975	1	9
632.145	1	-3
632.314	1	4
632.484	1	-6
632.653	1	-2
632.823	1	3
632.993	1	-2
633.162	1	-3
633.332	1	0
633.501	1	-4
633.671	1	-8
633.841	1	-3
634.010	1	-4
634.180	1	-4
634.349	1	1
634.519	1	-7
634.689	1	-1
634.858	1	-6
635.028	1	-1
635.197	1	7
635.367	1	-8
635.537	1	-9
635.706	1	4
635.876	1	-5
636.045	1	6
636.215	1	-4
636.384	1	5
636.554	1	-3
636.724	1	4
636.893	1	-5
637.063	1	-6
637.232	1	4
637.402	1	-2
637.572	1	-9
637.741	1	8
637.911	1	-2
638.080	1	-10
638.250	1	7
638.419	1	-6
638.589	1	-1
638.759	1	-5
638.928	1	-4
639.098	1	1
639.267	1	8
639.437	1	-4
639.606	1	6
639.776	1	-9
639.946	1	0
640.115	1	-4
640.285	1	5
640.454	1	-7
640.624	1	-7
640.793	1	13
640.963	1	-8
641.132	1	5
641.302	1	-4
641.472	1	8
641.641	1	-6
641.811	1	-2
641.980	1	-5
642.150	1	-13
642.319	1	-10
642.489	1	-1
642.659	1	3
642.828	1	-6
642.998	1	-2
643.167	1	-7
643.337	1	9
643.506	1	-10
643.676	1	-4
643.845	1	-5
644.015	1	2
644.184	1	9
644.354	1	-3
644.524	1	-7
644.693	1	2
644.863	1	-12
645.032	1	-5
645.202	1	4
645.371	1	-5
645.541	1	-4
645.710	1	-2
645.880	1	3
646.049	1	-13
646.219	1	1
646.388	1	1
646.558	1	1
646.728	1	-4
646.897	1	0
647.067	1	-5
647.236	1	-1
647.406	1	-3
647.575	1	4
647.745	1	-2
647.914	1	-1
648.084	1	-8
648.253	1	7
648.423	1	-4
648.592	1	-4
648.762	1	1
648.931	1	10
649.101	1	-6
649.270	1	8
649.440	1	-8
649.610	1	-3
649.779	1	6
649.949	1	2
650.118	1	4
650.288	1	6
650.457	1	9
650.627	1	-4
650.796	1	1
650.966	1	0
651.135	1	-5
651.305	1	-3
651.474	1	-3
651.644	1	8
651.813	1	4
651.983	1	4
652.152	1	0
652.322	1	-9
652.491	1	-1
652.661	1	-6
652.830	1	0
653.000	1	-2
653.169	1	2
653.339	1	5
653.508	1	-4
653.678	1	-10
653.847	1	3
654.017	1	-6
654.186	1	-5
654.356	1	-2
654.525	1	0
654.695	1	-1
654.864	1	-3
655.034	1	9
655.203	1	-2
655.373	1	1
655.542	1	-5
655.712	1	-1
655.881	1	0
656.051	1	-5
656.220	1	-6
656.390	1	-2
656.559	1	1
656.729	1	6
656.898	1	-10
657.068	1	-5
657.237	1	-11
657.406	1	-4
657.576	1	-4
657.745	1	-6
657.915	1	-2
658.084	1	2
658.254	1	-9
658.423	1	8
658.593	1	1
658.762	1	-7
658.932	1	-1
659.101	1	-1
659.271	1	0
659.440	1	-7
659.610	1	7
659.779	1	-1
659.949	1	-3
660.118	1	6
660.288	1	1
660.457	1	-3
660.626	1	2
660.796	1	-16
660.965	1	0
661.135	1	-7
661.304	1	0
661.474	1	-6
661.643	1	7
661.813	1	15
661.982	1	11
662.152	1	3
662.321	1	3
662.491	1	-7
662.660	1	-1
662.829	1	-7
662.999	1	-6
663.168	1	2
663.338	1	14
663.507	1	14
663.677	1	2
663.846	1	-10
664.016	1	-14
664.185	1	4
664.354	1	5
664.524	1	-8
664.693	1	11
664.863	1	-3
665.032	1	-5
665.202	1	-5
665.371	1	1
665.541	1	-18
665.710	1	3
665.879	1	-7
666.049	1	-2
666.218	1	-13
666.388	1	8
666.557	1	-3
666.727	1	-1
666.896	1	-15
667.065	1	5
667.235	1	2
667.404	1	-9
667.574	1	7
667.743	1	-1
667.913	1	0
668.082	1	1
668.251	1	-8
668.421	1	-5
668.590	1	-11
668.760	1	-1
668.929	1	-11
669.099	1	-6
669.268	1	-1
669.437	1	10
669.607	1	-3
669.776	1	-5
669.946	1	-5
670.115	1	5
670.285	1	10
670.454	1	2
670.623	1	-5
670.793	1	-1
670.962	1	-1
671.132	1	6
671.301	1	7
671.470	1	1
671.640	1	2
671.809	1	-5
671.979	1	-6
672.148	1	1
672.317	1	-2
672.487	1	3
672.656	1	1
672.826	1	0
672.995	1	8
673.164	1	6
673.334	1	-1
673.503	1	-1
673.673	1	4
673.842	1	1
674.011	1	-4
674.181	1	5
674.350	1	8
674.520	1	1
674.689	1	1
674.858	1	4
675.028	1	1
675.197	1	-8
675.367	1	2
675.536	1	3
675.705	1	11
675.875	1	-15
676.044	1	-1
676.214	1	-13
676.383	1	1
676.552	1	-3
676.722	1	-6
676.891	1	11
677.060	1	-16
677.230	1	1
677.399	1	-5
677.569	1	-5
677.738	1	9
677.907	1	-1
678.077	1	2
678.246	1	-7
678.416	1	-3
678.585	1	-2
678.754	1	-6
678.924	1	-6
679.093	1	6
679.262	1	5
679.432	1	-3
679.601	1	1
679.771	1	-7
679.940	1	-6
680.109	1	6
680.279	1	-8
680.448	1	-2
680.617	1	-2
680.787	1	3
680.956	1	-2
681.125	1	2
681.295	1	1
681.464	1	9
681.634	1	-3
681.803	1	-3
681.972	1	-11
682.142	1	8
682.311	1	-4
682.480	1	11
682.650	1	6
682.819	1	9
682.988	1	-6
683.158	1	-5
683.327	1	-4
683.496	1	3
683.666	1	-9
683.835	1	0
684.004	1	-3
684.174	1	-10
684.343	1	-5
684.512	1	-3
684.682	1	5
684.851	1	10
685.021	1	-11
685.190	1	-7
685.359	1	2
685.529	1	-9
685.698	1	6
685.867	1	2
686.037	1	6
686.206	1	-4
686.375	1	6
686.545	1	-13
686.714	1	-8
686.883	1	-5
687.053	1	-5
687.222	1	-3
687.391	1	-3
687.561	1	5
687.730	1	-2
687.899	1	6
688.069	1	-4
688.238	1	8
688.407	1	-5
688.577	1	6
688.746	1	-3
