340.368	1	4
340.539	1	-10
340.710	1	1
340.881	1	-6
341.052	1	11
341.223	1	4
341.394	1	7
341.565	1	-12
341.737	1	4
341.908	1	7
342.079	1	-7
342.250	1	1
342.421	1	-3
342.592	1	7
342.763	1	4
342.934	1	-12
343.105	1	1
343.276	1	2
343.447	1	-1
343.618	1	1
343.789	1	-9
343.960	1	7
344.131	1	-10
344.302	1	5
344.473	1	-3
344.644	1	10
344.815	1	4
344.986	1	3
345.157	1	-11
345.328	1	11
345.499	1	0
345.670	1	-8
345.841	1	7
346.012	1	7
346.183	1	-2
346.354	1	5
346.526	1	-9
346.697	1	0
346.868	1	7
347.039	1	10
347.210	1	-9
347.381	1	-5
347.552	1	1
347.723	1	-3
347.894	1	2
348.065	1	5
348.236	1	9
348.407	1	4
348.578	1	10
348.749	1	-3
348.920	1	3
349.091	1	-5
349.262	1	-3
349.433	1	5
349.604	1	7
349.775	1	14
349.946	1	-4
350.117	1	8
350.288	1	10
350.459	1	2
350.630	1	1
350.801	1	-5
350.972	1	11
351.143	1	3
351.314	1	0
351.485	1	-1
351.656	1	-2
351.827	1	3
351.998	1	17
352.169	1	3
352.340	1	5
352.511	1	-1
352.682	1	3
352.853	1	-7
353.024	1	13
353.195	1	3
353.366	1	11
353.537	1	3
353.708	1	5
353.879	1	6
354.050	1	3
354.221	1	1
354.392	1	3
354.563	1	2
354.734	1	11
354.905	1	10
355.076	1	7
355.247	1	14
355.418	1	-14
355.589	1	4
355.760	1	8
355.931	1	-4
356.102	1	13
356.273	1	3
356.444	1	13
356.615	1	6
356.785	1	14
356.956	1	7
357.127	1	1
357.298	1	9
357.469	1	5
357.640	1	9
357.811	1	8
357.982	1	-3
358.153	1	11
358.324	1	5
358.495	1	6
358.666	1	-3
358.837	1	2
359.008	1	3
359.179	1	6
359.350	1	1
359.521	1	13
359.692	1	12
359.863	1	4
360.034	1	16
360.205	1	15
360.376	1	15
360.547	1	13
360.718	1	18
360.889	1	11
361.060	1	3
361.231	1	5
361.401	1	22
361.572	1	14
361.743	1	13
361.914	1	17
362.085	1	25
362.256	1	19
362.427	1	25
362.598	1	1
362.769	1	15
362.940	1	16
363.111	1	29
363.282	1	35
363.453	1	19
363.624	1	35
363.795	1	21
363.966	1	30
364.137	1	33
364.308	1	25
364.478	1	32
364.649	1	35
364.820	1	22
364.991	1	34
365.162	1	44
365.333	1	37
365.504	1	48
365.675	1	37
365.846	1	40
366.017	1	42
366.188	1	45
366.359	1	41
366.530	1	60
366.701	1	44
366.871	1	36
367.042	1	45
367.213	1	56
367.384	1	54
367.555	1	55
367.726	1	51
367.897	1	52
368.068	1	54
368.239	1	50
368.410	1	72
368.581	1	54
368.752	1	61
368.923	1	45
369.093	1	55
369.264	1	60
369.435	1	52
369.606	1	63
369.777	1	58
369.948	1	59
370.119	1	59
370.290	1	62
370.461	1	82
370.632	1	67
370.803	1	62
370.973	1	59
371.144	1	54
371.315	1	55
371.486	1	64
371.657	1	69
371.828	1	64
371.999	1	49
372.170	1	59
372.341	1	52
372.512	1	50
372.682	1	56
372.853	1	47
373.024	1	43
373.195	1	41
373.366	1	51
373.537	1	48
373.708	1	44
373.879	1	42
374.050	1	45
374.220	1	57
374.391	1	39
374.562	1	52
374.733	1	42
374.904	1	52
375.075	1	40
375.246	1	36
375.417	1	36
375.588	1	38
375.758	1	41
375.929	1	40
376.100	1	40
376.271	1	45
376.442	1	34
376.613	1	31
376.784	1	28
376.955	1	33
377.125	1	38
377.296	1	35
377.467	1	30
377.638	1	24
377.809	1	34
377.980	1	26
378.151	1	30
378.321	1	19
378.492	1	32
378.663	1	23
378.834	1	29
379.005	1	35
379.176	1	29
379.347	1	25
379.518	1	15
379.688	1	35
379.859	1	22
380.030	1	19
380.201	1	17
380.372	1	25
380.543	1	24
380.714	1	27
380.884	1	22
381.055	1	23
381.226	1	19
381.397	1	23
381.568	1	17
381.739	1	27
381.910	1	27
382.080	1	13
382.251	1	7
382.422	1	22
382.593	1	10
382.764	1	12
382.935	1	3
383.105	1	9
383.276	1	21
383.447	1	1
383.618	1	25
383.789	1	11
383.960	1	10
384.130	1	14
384.301	1	18
384.472	1	13
384.643	1	12
384.814	1	16
384.985	1	17
385.156	1	-1
385.326	1	25
385.497	1	19
385.668	1	18
385.839	1	7
386.010	1	11
386.180	1	8
386.351	1	8
386.522	1	18
386.693	1	3
386.864	1	19
387.035	1	11
387.205	1	9
387.376	1	16
387.547	1	2
387.718	1	14
387.889	1	2
388.060	1	12
388.230	1	20
388.401	1	7
388.572	1	13
388.743	1	10
388.914	1	10
389.084	1	1
389.255	1	5
389.426	1	7
389.597	1	11
389.768	1	14
389.939	1	10
390.109	1	15
390.280	1	6
390.451	1	2
390.622	1	3
390.793	1	1
390.963	1	22
391.134	1	11
391.305	1	14
391.476	1	-4
391.647	1	7
391.817	1	12
391.988	1	11
392.159	1	-1
392.330	1	17
392.501	1	7
392.671	1	5
392.842	1	2
393.013	1	4
393.184	1	9
393.355	1	10
393.525	1	9
393.696	1	16
393.867	1	0
394.038	1	10
394.208	1	0
394.379	1	11
394.550	1	15
394.721	1	-2
394.892	1	7
395.062	1	10
395.233	1	2
395.404	1	-6
395.575	1	13
395.746	1	5
395.916	1	7
396.087	1	2
396.258	1	10
396.429	1	4
396.599	1	-4
396.770	1	11
396.941	1	4
397.112	1	14
397.283	1	-1
397.453	1	22
397.624	1	5
397.795	1	5
397.966	1	15
398.136	1	1
398.307	1	-5
398.478	1	7
398.649	1	-1
398.819	1	9
398.990	1	-2
399.161	1	21
399.332	1	6
399.503	1	8
399.673	1	10
399.844	1	-1
400.015	1	2
400.186	1	0
400.356	1	-5
400.527	1	6
400.698	1	4
400.869	1	1
401.039	1	20
401.210	1	4
401.381	1	-4
401.552	1	-7
401.722	1	3
401.893	1	-1
402.064	1	3
402.235	1	3
402.405	1	5
402.576	1	2
402.747	1	0
402.918	1	10
403.088	1	7
403.259	1	5
403.430	1	-7
403.601	1	-11
403.771	1	11
403.942	1	19
404.113	1	1
404.284	1	8
404.454	1	8
404.625	1	6
404.796	1	4
404.967	1	4
405.137	1	9
405.308	1	3
405.479	1	1
405.649	1	-5
405.820	1	-10
405.991	1	0
406.162	1	13
406.332	1	7
406.503	1	7
406.674	1	3
406.845	1	2
407.015	1	6
407.186	1	7
407.357	1	5
407.527	1	-5
407.698	1	6
407.869	1	2
408.040	1	-2
408.210	1	3
408.381	1	9
408.552	1	-13
408.722	1	-17
408.893	1	9
409.064	1	2
409.235	1	0
409.405	1	12
409.576	1	-6
409.747	1	5
409.917	1	-2
410.088	1	5
410.259	1	-1
410.430	1	9
410.600	1	-4
410.771	1	4
410.942	1	12
411.112	1	6
411.283	1	9
411.454	1	-10
411.625	1	0
411.795	1	-8
411.966	1	5
412.137	1	6
412.307	1	6
412.478	1	14
412.649	1	6
412.819	1	1
412.990	1	4
413.161	1	4
413.332	1	5
413.502	1	9
413.673	1	7
413.844	1	-1
414.014	1	10
414.185	1	7
414.356	1	11
414.526	1	-1
414.697	1	12
414.868	1	1
415.038	1	6
415.209	1	-5
415.380	1	0
415.550	1	-8
415.721	1	5
415.892	1	0
416.063	1	-1
416.233	1	4
416.404	1	-6
416.575	1	7
416.745	1	2
416.916	1	-4
417.087	1	5
417.257	1	2
417.428	1	3
417.599	1	3
417.769	1	13
417.940	1	10
418.111	1	6
418.281	1	5
418.452	1	-5
418.623	1	0
418.793	1	-1
418.964	1	-11
419.135	1	-11
419.305	1	3
419.476	1	10
419.647	1	-1
419.817	1	8
419.988	1	0
420.159	1	4
420.329	1	-2
420.500	1	11
420.671	1	8
420.841	1	11
421.012	1	2
421.183	1	1
421.353	1	0
421.524	1	-7
421.695	1	-1
421.865	1	5
422.036	1	3
422.206	1	3
422.377	1	1
422.548	1	-8
422.718	1	2
422.889	1	-10
423.060	1	-3
423.230	1	-2
423.401	1	-5
423.572	1	1
423.742	1	11
423.913	1	3
424.084	1	7
424.254	1	0
424.425	1	5
424.595	1	1
424.766	1	-6
424.937	1	2
425.107	1	-4
425.278	1	12
425.449	1	6
425.619	1	10
425.790	1	-2
425.961	1	-11
426.131	1	-1
426.302	1	-1
426.472	1	11
426.643	1	10
426.814	1	-1
426.984	1	4
427.155	1	-10
427.326	1	4
427.496	1	-3
427.667	1	14
427.837	1	9
428.008	1	9
428.179	1	-3
428.349	1	-4
428.520	1	4
428.691	1	12
428.861	1	3
429.032	1	3
429.202	1	-3
429.373	1	-2
429.544	1	0
429.714	1	9
429.885	1	4
430.055	1	0
430.226	1	-5
430.397	1	-6
430.567	1	2
430.738	1	1
430.909	1	0
431.079	1	-4
431.250	1	-6
431.420	1	1
431.591	1	8
431.762	1	8
431.932	1	3
432.103	1	-5
432.273	1	-3
432.444	1	6
432.615	1	-4
432.785	1	-1
432.956	1	-4
433.126	1	-7
433.297	1	11
433.468	1	-1
433.638	1	-1
433.809	1	5
433.979	1	14
434.150	1	5
434.320	1	1
434.491	1	-3
434.662	1	2
434.832	1	7
435.003	1	4
435.173	1	-12
435.344	1	3
435.515	1	6
435.685	1	-3
435.856	1	5
436.026	1	11
436.197	1	-9
436.368	1	10
436.538	1	-12
436.709	1	2
436.879	1	-2
437.050	1	-3
437.220	1	4
437.391	1	5
437.562	1	-1
437.732	1	-3
437.903	1	-2
438.073	1	-3
438.244	1	3
438.414	1	-9
438.585	1	-1
438.756	1	-2
438.926	1	5
439.097	1	-5
439.267	1	8
439.438	1	-2
439.608	1	-7
439.779	1	1
439.949	1	12
440.120	1	-4
440.291	1	-1
440.461	1	4
440.632	1	-1
440.802	1	-4
440.973	1	2
441.143	1	10
441.314	1	-3
441.485	1	7
441.655	1	6
441.826	1	8
441.996	1	2
442.167	1	-5
442.337	1	-3
442.508	1	-7
442.678	1	-6
442.849	1	6
443.019	1	14
443.190	1	3
443.361	1	2
443.531	1	12
443.702	1	3
443.872	1	11
444.043	1	-4
444.213	1	-6
444.384	1	-8
444.554	1	17
444.725	1	-2
444.895	1	-2
445.066	1	2
445.237	1	-2
445.407	1	1
445.578	1	-2
445.748	1	-3
445.919	1	-5
446.089	1	8
446.260	1	1
446.430	1	-5
446.601	1	2
446.771	1	8
446.942	1	1
447.112	1	-2
447.283	1	-7
447.453	1	-12
447.624	1	-4
447.794	1	-1
447.965	1	1
448.135	1	8
448.306	1	0
448.477	1	12
448.647	1	3
448.818	1	2
448.988	1	-4
449.159	1	-3
449.329	1	0
449.500	1	2
449.670	1	8
449.841	1	3
450.011	1	6
450.182	1	-4
450.352	1	1
450.523	1	-6
450.693	1	-4
450.864	1	1
451.034	1	0
451.205	1	18
451.375	1	0
451.546	1	1
451.716	1	0
451.887	1	-10
452.057	1	-1
452.228	1	4
452.398	1	-4
452.569	1	1
452.739	1	4
452.910	1	-2
453.080	1	8
453.251	1	0
453.421	1	2
453.592	1	-2
453.762	1	-1
453.933	1	-8
454.103	1	-5
454.274	1	-2
454.444	1	-14
454.615	1	17
454.785	1	-1
454.956	1	2
455.126	1	-6
455.297	1	13
455.467	1	2
455.638	1	2
455.808	1	7
455.979	1	6
456.149	1	7
456.320	1	5
456.490	1	4
456.661	1	13
456.831	1	13
457.001	1	-6
457.172	1	-3
457.342	1	7
457.513	1	10
457.683	1	1
457.854	1	3
458.024	1	-4
458.195	1	-5
458.365	1	1
458.536	1	3
458.706	1	3
458.877	1	-3
459.047	1	12
459.218	1	-1
459.388	1	1
459.559	1	-4
459.729	1	5
459.899	1	0
460.070	1	1
460.240	1	0
460.411	1	2
460.581	1	13
460.752	1	4
460.922	1	4
461.093	1	-3
461.263	1	-8
461.434	1	-6
461.604	1	-6
461.775	1	2
461.945	1	-2
462.115	1	2
462.286	1	9
462.456	1	-9
462.627	1	7
462.797	1	-10
462.968	1	7
463.138	1	-6
463.309	1	-12
463.479	1	-2
463.649	1	1
463.820	1	-2
463.990	1	-1
464.161	1	1
464.331	1	0
464.502	1	3
464.672	1	11
464.843	1	-1
465.013	1	2
465.183	1	-1
465.354	1	4
465.524	1	3
465.695	1	-14
465.865	1	0
466.036	1	-4
466.206	1	13
466.376	1	-7
466.547	1	-3
466.717	1	5
466.888	1	4
467.058	1	-1
467.229	1	-4
467.399	1	4
467.569	1	10
467.740	1	5
467.910	1	7
468.081	1	5
468.251	1	-3
468.422	1	4
468.592	1	5
468.762	1	0
468.933	1	9
469.103	1	-5
469.274	1	6
469.444	1	0
469.614	1	8
469.785	1	-8
469.955	1	-5
470.126	1	-4
470.296	1	-3
470.467	1	-2
470.637	1	2
470.807	1	7
470.978	1	2
471.148	1	-3
471.319	1	-3
471.489	1	8
471.659	1	-1
471.830	1	2
472.000	1	-4
472.171	1	-1
472.341	1	-6
472.511	1	6
472.682	1	2
472.852	1	2
473.023	1	7
473.193	1	3
473.363	1	7
473.534	1	10
473.704	1	-5
473.875	1	12
474.045	1	-6
474.215	1	11
474.386	1	12
474.556	1	2
474.727	1	-4
474.897	1	8
475.067	1	1
475.238	1	5
475.408	1	-4
475.578	1	-12
475.749	1	-8
475.919	1	1
476.090	1	10
476.260	1	-1
476.430	1	2
476.601	1	5
476.771	1	1
476.942	1	17
477.112	1	-4
477.282	1	-2
477.453	1	-4
477.623	1	-5
477.793	1	-4
477.964	1	3
478.134	1	-12
478.305	1	-3
478.475	1	-2
478.645	1	9
478.816	1	6
478.986	1	1
479.156	1	0
479.327	1	-13
479.497	1	-4
479.667	1	3
479.838	1	-1
480.008	1	0
480.179	1	3
480.349	1	1
480.519	1	10
480.690	1	5
480.860	1	-6
481.030	1	1
481.201	1	-7
481.371	1	8
481.541	1	2
481.712	1	12
481.882	1	10
482.053	1	-5
482.223	1	2
482.393	1	4
482.564	1	-3
482.734	1	-2
482.904	1	-8
483.075	1	1
483.245	1	5
483.415	1	10
483.586	1	3
483.756	1	16
483.926	1	2
484.097	1	3
484.267	1	-9
484.437	1	-4
484.608	1	6
484.778	1	7
484.948	1	-10
485.119	1	-4
485.289	1	-5
485.459	1	3
485.630	1	-4
485.800	1	0
485.970	1	7
486.141	1	0
486.311	1	-2
486.481	1	3
486.652	1	8
486.822	1	4
486.992	1	6
487.163	1	-7
487.333	1	-1
487.503	1	6
487.674	1	7
487.844	1	1
488.014	1	-4
488.185	1	-2
488.355	1	4
488.525	1	2
488.696	1	-2
488.866	1	1
489.036	1	13
489.207	1	3
489.377	1	1
489.547	1	-5
489.718	1	3
489.888	1	-2
490.058	1	-4
490.228	1	9
490.399	1	-8
490.569	1	21
490.739	1	2
490.910	1	5
491.080	1	16
491.250	1	-5
491.421	1	-4
491.591	1	-6
491.761	1	8
491.932	1	6
492.102	1	-1
492.272	1	2
492.442	1	10
492.613	1	-4
492.783	1	2
492.953	1	5
493.124	1	4
493.294	1	-3
493.464	1	8
493.635	1	-1
493.805	1	-3
493.975	1	-8
494.145	1	4
494.316	1	9
494.486	1	11
494.656	1	2
494.827	1	13
494.997	1	-1
495.167	1	-1
495.337	1	12
495.508	1	8
495.678	1	6
495.848	1	9
496.019	1	-1
496.189	1	8
496.359	1	6
496.529	1	0
496.700	1	7
496.870	1	10
497.040	1	-1
497.211	1	0
497.381	1	5
497.551	1	7
497.721	1	8
497.892	1	1
498.062	1	2
498.232	1	1
498.403	1	-2
498.573	1	-8
498.743	1	-1
498.913	1	8
499.084	1	-7
499.254	1	0
499.424	1	-4
499.594	1	7
499.765	1	6
499.935	1	10
500.105	1	4
500.275	1	5
500.446	1	-1
500.616	1	-5
500.786	1	-4
500.956	1	11
501.127	1	3
501.297	1	2
501.467	1	-3
501.638	1	-4
501.808	1	4
501.978	1	11
502.148	1	6
502.319	1	1
502.489	1	-1
502.659	1	5
502.829	1	5
503.000	1	4
503.170	1	0
503.340	1	6
503.510	1	1
503.681	1	-5
503.851	1	9
504.021	1	-3
504.191	1	10
504.362	1	-6
504.532	1	8
504.702	1	-10
504.872	1	3
505.042	1	3
505.213	1	8
505.383	1	2
505.553	1	-14
505.723	1	0
505.894	1	9
506.064	1	5
506.234	1	1
506.404	1	0
506.575	1	7
506.745	1	8
506.915	1	3
507.085	1	-8
507.256	1	6
507.426	1	2
507.596	1	3
507.766	1	12
507.936	1	11
508.107	1	6
508.277	1	4
508.447	1	11
508.617	1	-2
508.788	1	16
508.958	1	-6
509.128	1	9
509.298	1	6
509.468	1	5
509.639	1	-8
509.809	1	5
509.979	1	-1
510.149	1	10
510.319	1	12
510.490	1	13
510.660	1	6
510.830	1	2
511.000	1	5
511.171	1	2
511.341	1	2
511.511	1	6
511.681	1	7
511.851	1	5
512.022	1	-10
512.192	1	17
512.362	1	2
512.532	1	9
512.702	1	3
512.873	1	11
513.043	1	14
513.213	1	2
513.383	1	-9
513.553	1	-5
513.724	1	-3
513.894	1	-5
514.064	1	12
514.234	1	1
514.404	1	0
514.575	1	8
514.745	1	-2
514.915	1	-1
515.085	1	1
515.255	1	-6
515.425	1	-1
515.596	1	4
515.766	1	-4
515.936	1	6
516.106	1	4
516.276	1	-3
516.447	1	10
516.617	1	17
516.787	1	13
516.957	1	6
517.127	1	3
517.297	1	5
517.468	1	4
517.638	1	6
517.808	1	5
517.978	1	12
518.148	1	4
518.319	1	9
518.489	1	0
518.659	1	-6
518.829	1	11
518.999	1	6
519.169	1	2
519.340	1	12
519.510	1	10
519.680	1	17
519.850	1	10
520.020	1	14
520.190	1	4
520.361	1	13
520.531	1	10
520.701	1	10
520.871	1	5
521.041	1	13
521.211	1	-5
521.382	1	-7
521.552	1	12
521.722	1	6
521.892	1	8
522.062	1	17
522.232	1	6
522.402	1	10
522.573	1	-6
522.743	1	-1
522.913	1	7
523.083	1	0
523.253	1	5
523.423	1	11
523.593	1	7
523.764	1	3
523.934	1	12
524.104	1	3
524.274	1	-1
524.444	1	6
524.614	1	11
524.784	1	7
524.955	1	-8
525.125	1	8
525.295	1	4
525.465	1	6
525.635	1	-2
525.805	1	8
525.975	1	13
526.146	1	2
526.316	1	17
526.486	1	2
526.656	1	1
526.826	1	11
526.996	1	10
527.166	1	8
527.337	1	6
527.507	1	3
527.677	1	8
527.847	1	7
528.017	1	-2
528.187	1	5
528.357	1	-1
528.527	1	16
528.698	1	6
528.868	1	8
529.038	1	14
529.208	1	-1
529.378	1	14
529.548	1	3
529.718	1	8
529.888	1	11
530.058	1	15
530.229	1	9
530.399	1	6
530.569	1	-2
530.739	1	1
530.909	1	3
531.079	1	8
531.249	1	-6
531.419	1	7
531.589	1	-1
531.760	1	17
531.930	1	14
532.100	1	0
532.270	1	3
532.440	1	10
532.610	1	3
532.780	1	14
532.950	1	10
533.120	1	13
533.290	1	11
533.461	1	5
533.631	1	6
533.801	1	15
533.971	1	-3
534.141	1	-10
534.311	1	9
534.481	1	2
534.651	1	2
534.821	1	11
534.991	1	7
535.162	1	3
535.332	1	9
535.502	1	5
535.672	1	3
535.842	1	4
536.012	1	8
536.182	1	-3
536.352	1	11
536.522	1	-3
536.692	1	14
536.862	1	6
537.032	1	15
537.203	1	-1
537.373	1	-3
537.543	1	9
537.713	1	11
537.883	1	4
538.053	1	6
538.223	1	7
538.393	1	13
538.563	1	16
538.733	1	12
538.903	1	-6
539.073	1	5
539.243	1	3
539.413	1	7
539.584	1	-6
539.754	1	16
539.924	1	10
540.094	1	2
540.264	1	3
540.434	1	9
540.604	1	3
540.774	1	12
540.944	1	7
541.114	1	-4
541.284	1	12
541.454	1	7
541.624	1	15
541.794	1	9
541.964	1	14
542.134	1	9
542.305	1	8
542.475	1	7
542.645	1	2
542.815	1	-3
542.985	1	4
543.155	1	2
543.325	1	17
543.495	1	2
543.665	1	17
543.835	1	10
544.005	1	19
544.175	1	-4
544.345	1	11
544.515	1	-2
544.685	1	-4
544.855	1	6
545.025	1	11
545.195	1	6
545.365	1	5
545.535	1	13
545.705	1	6
545.875	1	-1
546.045	1	-1
546.216	1	10
546.386	1	15
546.556	1	1
546.726	1	-2
546.896	1	2
547.066	1	10
547.236	1	10
547.406	1	4
547.576	1	17
547.746	1	-2
547.916	1	0
548.086	1	4
548.256	1	-1
548.426	1	0
548.596	1	7
548.766	1	1
548.936	1	10
549.106	1	9
549.276	1	4
549.446	1	4
549.616	1	6
549.786	1	1
549.956	1	12
550.126	1	15
550.296	1	2
550.466	1	18
550.636	1	17
550.806	1	6
550.976	1	12
551.146	1	3
551.316	1	9
551.486	1	-4
551.656	1	12
551.826	1	7
551.996	1	10
552.166	1	10
552.336	1	8
552.506	1	16
552.676	1	22
552.846	1	3
553.016	1	10
553.186	1	12
553.356	1	12
553.526	1	10
553.696	1	20
553.866	1	11
554.036	1	6
554.206	1	9
554.376	1	12
554.546	1	8
554.716	1	5
554.886	1	1
555.056	1	-2
555.226	1	-1
555.396	1	1
555.566	1	5
555.736	1	18
555.906	1	-3
556.076	1	9
556.246	1	10
556.416	1	8
556.586	1	1
556.756	1	5
556.926	1	7
557.096	1	8
557.266	1	-2
557.436	1	5
557.606	1	6
557.776	1	3
557.946	1	4
558.116	1	6
558.286	1	12
558.456	1	4
558.626	1	10
558.796	1	9
558.966	1	11
559.136	1	17
559.306	1	1
559.476	1	5
559.646	1	-2
559.816	1	4
559.986	1	-2
560.155	1	11
560.325	1	-2
560.495	1	8
560.665	1	-2
560.835	1	4
561.005	1	-3
561.175	1	10
561.345	1	5
561.515	1	5
561.685	1	18
561.855	1	-2
562.025	1	9
562.195	1	9
562.365	1	11
562.535	1	-5
562.705	1	3
562.875	1	1
563.045	1	2
563.215	1	15
563.385	1	1
563.555	1	8
563.725	1	6
563.895	1	7
564.064	1	8
564.234	1	-7
564.404	1	6
564.574	1	3
564.744	1	20
564.914	1	13
565.084	1	3
565.254	1	10
565.424	1	8
565.594	1	8
565.764	1	8
565.934	1	14
566.104	1	8
566.274	1	6
566.444	1	4
566.614	1	7
566.783	1	4
566.953	1	16
567.123	1	3
567.293	1	18
567.463	1	5
567.633	1	7
567.803	1	-2
567.973	1	-2
568.143	1	7
568.313	1	11
568.483	1	9
568.653	1	10
568.823	1	4
568.993	1	1
569.162	1	10
569.332	1	1
569.502	1	5
569.672	1	8
569.842	1	2
570.012	1	7
570.182	1	10
570.352	1	10
570.522	1	-5
570.692	1	7
570.862	1	3
571.031	1	7
571.201	1	14
571.371	1	-4
571.541	1	12
571.711	1	16
571.881	1	21
572.051	1	4
572.221	1	-10
572.391	1	-4
572.561	1	3
572.731	1	6
572.900	1	-8
573.070	1	5
573.240	1	7
573.410	1	17
573.580	1	11
573.750	1	-5
573.920	1	9
574.090	1	12
574.260	1	16
574.430	1	-4
574.599	1	6
574.769	1	3
574.939	1	5
575.109	1	6
575.279	1	16
575.449	1	10
575.619	1	18
575.789	1	-6
575.959	1	-6
576.128	1	0
576.298	1	10
576.468	1	9
576.638	1	0
576.808	1	-1
576.978	1	5
577.148	1	5
577.318	1	8
577.487	1	1
577.657	1	0
577.827	1	2
577.997	1	1
578.167	1	10
578.337	1	8
578.507	1	0
578.677	1	7
578.846	1	11
579.016	1	12
579.186	1	3
579.356	1	2
579.526	1	5
579.696	1	9
579.866	1	19
580.036	1	8
580.205	1	1
580.375	1	14
580.545	1	6
580.715	1	12
580.885	1	4
581.055	1	5
581.225	1	10
581.394	1	1
581.564	1	8
581.734	1	1
581.904	1	11
582.074	1	1
582.244	1	2
582.414	1	12
582.583	1	12
582.753	1	5
582.923	1	5
583.093	1	13
583.263	1	3
583.433	1	-1
583.603	1	7
583.772	1	7
583.942	1	5
584.112	1	7
584.282	1	-2
584.452	1	14
584.622	1	7
584.791	1	3
584.961	1	8
585.131	1	5
585.301	1	4
585.471	1	11
585.641	1	3
585.811	1	12
585.980	1	11
586.150	1	15
586.320	1	0
586.490	1	14
586.660	1	3
586.830	1	1
586.999	1	-3
587.169	1	12
587.339	1	7
587.509	1	6
587.679	1	10
587.849	1	8
588.018	1	14
588.188	1	9
588.358	1	5
588.528	1	9
588.698	1	3
588.867	1	8
589.037	1	8
589.207	1	5
589.377	1	0
589.547	1	4
589.717	1	7
589.886	1	0
590.056	1	-1
590.226	1	12
590.396	1	7
590.566	1	11
590.735	1	-6
590.905	1	0
591.075	1	0
591.245	1	4
591.415	1	1
591.585	1	13
591.754	1	7
591.924	1	6
592.094	1	6
592.264	1	4
592.434	1	1
592.603	1	8
592.773	1	4
592.943	1	7
593.113	1	0
593.283	1	2
593.452	1	7
593.622	1	3
593.792	1	12
593.962	1	10
594.132	1	8
594.301	1	12
594.471	1	19
594.641	1	0
594.811	1	15
594.981	1	-7
595.150	1	4
595.320	1	8
595.490	1	12
595.660	1	12
595.829	1	15
595.999	1	0
596.169	1	8
596.339	1	4
596.509	1	6
596.678	1	-1
596.848	1	3
597.018	1	3
597.188	1	-3
597.358	1	11
597.527	1	0
597.697	1	0
597.867	1	-3
598.037	1	5
598.206	1	-2
598.376	1	8
598.546	1	6
598.716	1	13
598.885	1	-2
599.055	1	4
599.225	1	2
599.395	1	5
599.565	1	0
599.734	1	5
599.904	1	3
600.074	1	8
600.244	1	-7
600.413	1	11
600.583	1	15
600.753	1	3
600.923	1	7
601.092	1	14
601.262	1	5
601.432	1	7
601.602	1	16
601.771	1	3
601.941	1	11
602.111	1	13
602.281	1	13
602.451	1	14
602.620	1	7
602.790	1	8
602.960	1	6
603.130	1	8
603.299	1	6
603.469	1	1
603.639	1	1
603.809	1	12
603.978	1	8
604.148	1	4
604.318	1	11
604.487	1	5
604.657	1	10
604.827	1	18
604.997	1	13
605.166	1	14
605.336	1	1
605.506	1	5
605.676	1	-3
605.845	1	5
606.015	1	-1
606.185	1	18
606.355	1	3
606.524	1	10
606.694	1	-3
606.864	1	8
607.034	1	-2
607.203	1	7
607.373	1	3
607.543	1	4
607.712	1	-7
607.882	1	4
608.052	1	-2
608.222	1	6
608.391	1	6
608.561	1	0
608.731	1	-1
608.901	1	-2
609.070	1	14
609.240	1	0
609.410	1	17
609.579	1	9
609.749	1	4
609.919	1	12
610.089	1	6
610.258	1	7
610.428	1	1
610.598	1	2
610.767	1	4
610.937	1	1
611.107	1	5
611.277	1	-8
611.446	1	9
611.616	1	-4
611.786	1	19
611.955	1	1
612.125	1	8
612.295	1	-1
612.465	1	17
612.634	1	5
612.804	1	8
612.974	1	-3
613.143	1	3
613.313	1	9
613.483	1	12
613.652	1	7
613.822	1	-1
613.992	1	4
614.162	1	15
614.331	1	7
614.501	1	5
614.671	1	10
614.840	1	1
615.010	1	-8
615.180	1	0
615.349	1	12
615.519	1	2
615.689	1	12
615.858	1	5
616.028	1	3
616.198	1	0
616.368	1	1
616.537	1	-2
616.707	1	2
616.877	1	6
617.046	1	5
617.216	1	0
617.386	1	10
617.555	1	0
617.725	1	-1
617.895	1	16
618.064	1	2
618.234	1	0
618.404	1	4
618.573	1	9
618.743	1	4
618.913	1	0
619.082	1	-3
619.252	1	1
619.422	1	0
619.591	1	0
619.761	1	11
619.931	1	6
620.100	1	7
620.270	1	1
620.440	1	10
620.609	1	5
620.779	1	0
620.949	1	7
621.118	1	8
621.288	1	9
621.458	1	1
621.627	1	7
621.797	1	5
621.967	1	9
622.136	1	14
622.306	1	-1
622.476	1	9
622.645	1	10
622.815	1	6
622.985	1	7
623.154	1	10
623.324	1	10
623.494	1	11
623.663	1	6
623.833	1	6
624.002	1	-9
624.172	1	6
624.342	1	16
624.511	1	-3
624.681	1	14
624.851	1	-3
625.020	1	-2
625.190	1	5
625.360	1	2
625.529	1	6
625.699	1	-4
625.869	1	12
626.038	1	-6
626.208	1	0
626.377	1	5
626.547	1	5
626.717	1	2
626.886	1	5
627.056	1	-9
627.226	1	7
627.395	1	10
627.565	1	-4
627.735	1	9
627.904	1	-2
628.074	1	13
628.243	1	6
628.413	1	9
628.583	1	2
628.752	1	5
628.922	1	11
629.091	1	-6
629.261	1	7
629.431	1	2
629.600	1	14
629.770	1	-15
629.940	1	-1
630.109	1	3
630.279	1	-5
630.448	1	0
630.618	1	3
630.788	1	18
630.957	1	-5
631.127	1	6
631.297	1	-4
631.466	1	8
631.636	1	-7
631.805	1	1
631.975	1	12
632.145	1	-2
632.314	1	0
632.484	1	5
632.653	1	1
632.823	1	13
632.993	1	-5
633.162	1	8
633.332	1	2
633.501	1	-2
633.671	1	-6
633.841	1	2
634.010	1	0
634.180	1	0
634.349	1	16
634.519	1	0
634.689	1	9
634.858	1	-2
635.028	1	9
635.197	1	1
635.367	1	2
635.537	1	-2
635.706	1	4
635.876	1	-5
636.045	1	14
636.215	1	10
636.384	1	4
636.554	1	1
636.724	1	5
636.893	1	-2
637.063	1	0
637.232	1	4
637.402	1	12
637.572	1	2
637.741	1	11
637.911	1	1
638.080	1	6
638.250	1	4
638.419	1	-2
638.589	1	0
638.759	1	-7
638.928	1	9
639.098	1	7
639.267	1	-1
639.437	1	10
639.606	1	4
639.776	1	10
639.946	1	11
640.115	1	-9
640.285	1	12
640.454	1	4
640.624	1	7
640.793	1	5
640.963	1	3
641.132	1	-1
641.302	1	-8
641.472	1	4
641.641	1	-3
641.811	1	2
641.980	1	9
642.150	1	1
642.319	1	6
642.489	1	10
642.659	1	8
642.828	1	1
642.998	1	2
643.167	1	-1
643.337	1	4
643.506	1	3
643.676	1	6
643.845	1	5
644.015	1	7
644.184	1	8
644.354	1	0
644.524	1	0
644.693	1	6
644.863	1	2
645.032	1	-2
645.202	1	-4
645.371	1	-3
645.541	1	3
645.710	1	4
645.880	1	4
646.049	1	-12
646.219	1	7
646.388	1	1
646.558	1	3
646.728	1	-3
646.897	1	-2
647.067	1	3
647.236	1	-1
647.406	1	0
647.575	1	5
647.745	1	-1
647.914	1	-9
648.084	1	-1
648.253	1	12
648.423	1	6
648.592	1	-2
648.762	1	-2
648.931	1	15
649.101	1	-2
649.270	1	3
649.440	1	5
649.610	1	5
649.779	1	9
649.949	1	-2
650.118	1	8
650.288	1	8
650.457	1	9
650.627	1	6
650.796	1	8
650.966	1	6
651.135	1	5
651.305	1	2
651.474	1	8
651.644	1	17
651.813	1	10
651.983	1	4
652.152	1	9
652.322	1	0
652.491	1	6
652.661	1	-1
652.830	1	10
653.000	1	-3
653.169	1	-1
653.339	1	10
653.508	1	13
653.678	1	3
653.847	1	6
654.017	1	7
654.186	1	0
654.356	1	-1
654.525	1	5
654.695	1	7
654.864	1	3
655.034	1	13
655.203	1	-1
655.373	1	11
655.542	1	1
655.712	1	3
655.881	1	0
656.051	1	2
656.220	1	-7
656.390	1	-9
656.559	1	-9
656.729	1	13
656.898	1	0
657.068	1	-2
657.237	1	-2
657.406	1	11
657.576	1	-1
657.745	1	4
657.915	1	7
658.084	1	7
658.254	1	1
658.423	1	5
658.593	1	12
658.762	1	2
658.932	1	-3
659.101	1	6
659.271	1	9
659.440	1	4
659.610	1	-4
659.779	1	8
659.949	1	2
660.118	1	5
660.288	1	9
660.457	1	10
660.626	1	5
660.796	1	-3
660.965	1	5
661.135	1	1
661.304	1	-5
661.474	1	5
661.643	1	8
661.813	1	16
661.982	1	20
662.152	1	0
662.321	1	6
662.491	1	-1
662.660	1	4
662.829	1	-9
662.999	1	-3
663.168	1	2
663.338	1	16
663.507	1	10
663.677	1	6
663.846	1	0
664.016	1	-6
664.185	1	-1
664.354	1	11
664.524	1	9
664.693	1	16
664.863	1	-8
665.032	1	8
665.202	1	20
665.371	1	-1
665.541	1	-6
665.710	1	1
665.879	1	-5
666.049	1	3
666.218	1	-8
666.388	1	13
666.557	1	-1
666.727	1	4
666.896	1	0
667.065	1	8
667.235	1	12
667.404	1	4
667.574	1	4
667.743	1	9
667.913	1	9
668.082	1	4
668.251	1	4
668.421	1	-3
668.590	1	7
668.760	1	-5
668.929	1	0
669.099	1	-3
669.268	1	5
669.437	1	10
669.607	1	-6
669.776	1	-6
669.946	1	4
670.115	1	6
670.285	1	11
670.454	1	8
670.623	1	5
670.793	1	7
670.962	1	2
671.132	1	10
671.301	1	10
671.470	1	-2
671.640	1	10
671.809	1	2
671.979	1	-4
672.148	1	11
672.317	1	9
672.487	1	9
672.656	1	9
672.826	1	-3
672.995	1	6
673.164	1	8
673.334	1	-7
673.503	1	5
673.673	1	6
673.842	1	8
674.011	1	-1
674.181	1	-1
674.350	1	4
674.520	1	-3
674.689	1	1
674.858	1	11
675.028	1	3
675.197	1	-2
675.367	1	8
675.536	1	13
675.705	1	6
675.875	1	0
676.044	1	11
676.214	1	-1
676.383	1	1
676.552	1	4
676.722	1	8
676.891	1	7
677.060	1	3
677.230	1	-4
677.399	1	0
677.569	1	-4
677.738	1	0
677.907	1	6
678.077	1	11
678.246	1	5
678.416	1	1
678.585	1	-4
678.754	1	-4
678.924	1	6
679.093	1	10
679.262	1	5
679.432	1	7
679.601	1	2
679.771	1	-3
679.940	1	1
680.109	1	6
680.279	1	0
680.448	1	12
680.617	1	-1
680.787	1	-3
680.956	1	5
681.125	1	12
681.295	1	0
681.464	1	6
681.634	1	2
681.803	1	3
681.972	1	-6
682.142	1	1
682.311	1	3
682.480	1	17
682.650	1	3
682.819	1	1
682.988	1	2
683.158	1	3
683.327	1	-3
683.496	1	9
683.666	1	0
683.835	1	10
684.004	1	-1
684.174	1	5
684.343	1	0
684.512	1	16
684.682	1	-10
684.851	1	-2
685.021	1	3
685.190	1	2
685.359	1	12
685.529	1	-6
685.698	1	7
685.867	1	-5
686.037	1	2
686.206	1	-4
686.375	1	14
686.545	1	-3
686.714	1	-1
686.883	1	4
687.053	1	9
687.222	1	4
687.391	1	-1
687.561	1	12
687.730	1	-2
687.899	1	11
688.069	1	2
688.238	1	15
688.407	1	4
688.577	1	1
688.746	1	2
