340.368	1	3
340.539	1	-12
340.710	1	-8
340.881	1	-6
341.052	1	6
341.223	1	-3
341.394	1	-1
341.565	1	-8
341.737	1	5
341.908	1	5
342.079	1	-5
342.250	1	-2
342.421	1	1
342.592	1	6
342.763	1	7
342.934	1	4
343.105	1	0
343.276	1	0
343.447	1	-3
343.618	1	7
343.789	1	7
343.960	1	-1
344.131	1	1
344.302	1	-2
344.473	1	-4
344.644	1	9
344.815	1	-2
344.986	1	2
345.157	1	-1
345.328	1	5
345.499	1	-3
345.670	1	1
345.841	1	7
346.012	1	5
346.183	1	-10
346.354	1	0
346.526	1	-2
346.697	1	2
346.868	1	7
347.039	1	10
347.210	1	-13
347.381	1	7
347.552	1	-2
347.723	1	-4
347.894	1	0
348.065	1	-7
348.236	1	-2
348.407	1	0
348.578	1	3
348.749	1	-4
348.920	1	-3
349.091	1	-17
349.262	1	-1
349.433	1	8
349.604	1	5
349.775	1	4
349.946	1	-6
350.117	1	4
350.288	1	6
350.459	1	0
350.630	1	3
350.801	1	-5
350.972	1	4
351.143	1	-3
351.314	1	8
351.485	1	5
351.656	1	1
351.827	1	2
351.998	1	6
352.169	1	7
352.340	1	8
352.511	1	0
352.682	1	-1
352.853	1	4
353.024	1	-3
353.195	1	2
353.366	1	12
353.537	1	-1
353.708	1	7
353.879	1	7
354.050	1	-11
354.221	1	-4
354.392	1	-6
354.563	1	4
354.734	1	7
354.905	1	12
355.076	1	1
355.247	1	5
355.418	1	-7
355.589	1	-7
355.760	1	-7
355.931	1	-4
356.102	1	12
356.273	1	-6
356.444	1	-1
356.615	1	3
356.785	1	14
356.956	1	7
357.127	1	0
357.298	1	0
357.469	1	-5
357.640	1	4
357.811	1	2
357.982	1	-1
358.153	1	8
358.324	1	-5
358.495	1	4
358.666	1	9
358.837	1	-4
359.008	1	-11
359.179	1	-2
359.350	1	-1
359.521	1	-2
359.692	1	14
359.863	1	1
360.034	1	3
360.205	1	-4
360.376	1	-1
360.547	1	8
360.718	1	0
360.889	1	-2
361.060	1	-6
361.231	1	-3
361.401	1	1
361.572	1	12
361.743	1	-3
361.914	1	3
362.085	1	8
362.256	1	2
362.427	1	8
362.598	1	-8
362.769	1	-2
362.940	1	-2
363.111	1	0
363.282	1	3
363.453	1	-1
363.624	1	7
363.795	1	-6
363.966	1	1
364.137	1	8
364.308	1	1
364.478	1	-1
364.649	1	7
364.820	1	-5
364.991	1	-1
365.162	1	15
365.333	1	-4
365.504	1	10
365.675	1	-2
365.846	1	12
366.017	1	-1
366.188	1	-3
366.359	1	-2
366.530	1	4
366.701	1	1
366.871	1	3
367.042	1	3
367.213	1	3
367.384	1	-3
367.555	1	-1
367.726	1	6
367.897	1	3
368.068	1	1
368.239	1	-7
368.410	1	11
368.581	1	-2
368.752	1	-4
368.923	1	-8
369.093	1	1
369.264	1	-10
369.435	1	9
369.606	1	-1
369.777	1	8
369.948	1	2
370.119	1	-3
370.290	1	0
370.461	1	7
370.632	1	4
370.803	1	4
370.973	1	-2
371.144	1	-4
371.315	1	-6
371.486	1	7
371.657	1	11
371.828	1	3
371.999	1	-3
372.170	1	0
372.341	1	2
372.512	1	-6
372.682	1	2
372.853	1	-3
373.024	1	2
373.195	1	4
373.366	1	5
373.537	1	8
373.708	1	3
373.879	1	-3
374.050	1	3
374.220	1	6
374.391	1	1
374.562	1	4
374.733	1	6
374.904	1	-7
375.075	1	-2
375.246	1	7
375.417	1	1
375.588	1	-2
375.758	1	-6
375.929	1	3
376.100	1	1
376.271	1	7
376.442	1	0
376.613	1	-2
376.784	1	7
376.955	1	-4
377.125	1	6
377.296	1	-17
377.467	1	10
377.638	1	-3
377.809	1	3
377.980	1	-6
378.151	1	2
378.321	1	-7
378.492	1	-5
378.663	1	-4
378.834	1	6
379.005	1	14
379.176	1	0
379.347	1	6
379.518	1	-4
379.688	1	0
379.859	1	-5
380.030	1	0
380.201	1	-11
380.372	1	-3
380.543	1	6
380.714	1	15
380.884	1	1
381.055	1	11
381.226	1	1
381.397	1	-3
381.568	1	10
381.739	1	4
381.910	1	-2
382.080	1	-4
382.251	1	-3
382.422	1	-2
382.593	1	-2
382.764	1	-5
382.935	1	-12
383.105	1	-4
383.276	1	14
383.447	1	-4
383.618	1	9
383.789	1	2
383.960	1	3
384.130	1	5
384.301	1	-6
384.472	1	-5
384.643	1	5
384.814	1	0
384.985	1	2
385.156	1	0
385.326	1	6
385.497	1	0
385.668	1	-1
385.839	1	2
386.010	1	-1
386.180	1	8
386.351	1	1
386.522	1	11
386.693	1	-11
386.864	1	8
387.035	1	2
387.205	1	-2
387.376	1	-2
387.547	1	-6
387.718	1	0
387.889	1	-3
388.060	1	8
388.230	1	7
388.401	1	-4
388.572	1	-7
388.743	1	4
388.914	1	9
389.084	1	1
389.255	1	-8
389.426	1	5
389.597	1	10
389.768	1	1
389.939	1	4
390.109	1	0
390.280	1	1
390.451	1	-7
390.622	1	5
390.793	1	5
390.963	1	4
391.134	1	7
391.305	1	9
391.476	1	-10
391.647	1	7
391.817	1	6
391.988	1	9
392.159	1	-9
392.330	1	5
392.501	1	-3
392.671	1	-13
392.842	1	-3
393.013	1	0
393.184	1	4
393.355	1	9
393.525	1	1
393.696	1	4
393.867	1	6
394.038	1	3
394.208	1	-7
394.379	1	8
394.550	1	7
394.721	1	-1
394.892	1	0
395.062	1	9
395.233	1	-7
395.404	1	-8
395.575	1	0
395.746	1	6
395.916	1	1
396.087	1	-1
396.258	1	4
396.429	1	7
396.599	1	-3
396.770	1	1
396.941	1	12
397.112	1	10
397.283	1	6
397.453	1	8
397.624	1	-3
397.795	1	-1
397.966	1	-1
398.136	1	-4
398.307	1	-1
398.478	1	10
398.649	1	-11
398.819	1	9
398.990	1	2
399.161	1	11
399.332	1	4
399.503	1	1
399.673	1	0
399.844	1	10
400.015	1	-2
400.186	1	8
400.356	1	-8
400.527	1	-6
400.698	1	4
400.869	1	-1
401.039	1	5
401.210	1	-8
401.381	1	-2
401.552	1	-3
401.722	1	2
401.893	1	-2
402.064	1	3
402.235	1	5
402.405	1	8
402.576	1	2
402.747	1	-7
402.918	1	1
403.088	1	6
403.259	1	6
403.430	1	-4
403.601	1	-2
403.771	1	5
403.942	1	7
404.113	1	-7
404.284	1	5
404.454	1	7
404.625	1	6
404.796	1	11
404.967	1	4
405.137	1	15
405.308	1	8
405.479	1	0
405.649	1	7
405.820	1	-9
405.991	1	3
406.162	1	12
406.332	1	-7
406.503	1	1
406.674	1	2
406.845	1	3
407.015	1	4
407.186	1	2
407.357	1	2
407.527	1	-9
407.698	1	9
407.869	1	1
408.040	1	-12
408.210	1	-13
408.381	1	9
408.552	1	-1
408.722	1	-17
408.893	1	1
409.064	1	0
409.235	1	0
409.405	1	8
409.576	1	-5
409.747	1	-5
409.917	1	6
410.088	1	5
410.259	1	-2
410.430	1	12
410.600	1	-1
410.771	1	9
410.942	1	11
411.112	1	-2
411.283	1	8
411.454	1	-9
411.625	1	1
411.795	1	2
411.966	1	2
412.137	1	8
412.307	1	0
412.478	1	8
412.649	1	1
412.819	1	1
412.990	1	6
413.161	1	-4
413.332	1	-5
413.502	1	2
413.673	1	7
413.844	1	12
414.014	1	-4
414.185	1	6
414.356	1	3
414.526	1	-6
414.697	1	3
414.868	1	4
415.038	1	0
415.209	1	2
415.380	1	-1
415.550	1	-5
415.721	1	1
415.892	1	-4
416.063	1	2
416.233	1	6
416.404	1	1
416.575	1	10
416.745	1	-8
416.916	1	-6
417.087	1	3
417.257	1	-8
417.428	1	5
417.599	1	4
417.769	1	13
417.940	1	5
418.111	1	-4
418.281	1	10
418.452	1	-4
418.623	1	1
418.793	1	8
418.964	1	-5
419.135	1	-4
419.305	1	9
419.476	1	2
419.647	1	-3
419.817	1	13
419.988	1	-7
420.159	1	4
420.329	1	-8
420.500	1	3
420.671	1	5
420.841	1	11
421.012	1	7
421.183	1	0
421.353	1	0
421.524	1	-11
421.695	1	-5
421.865	1	2
422.036	1	10
422.206	1	-8
422.377	1	-2
422.548	1	-4
422.718	1	4
422.889	1	-5
423.060	1	-8
423.230	1	4
423.401	1	-3
423.572	1	-11
423.742	1	-2
423.913	1	-5
424.084	1	3
424.254	1	2
424.425	1	4
424.595	1	4
424.766	1	8
424.937	1	12
425.107	1	-7
425.278	1	7
425.449	1	1
425.619	1	6
425.790	1	-7
425.961	1	-7
426.131	1	6
426.302	1	4
426.472	1	-1
426.643	1	-2
426.814	1	6
426.984	1	10
427.155	1	-9
427.326	1	5
427.496	1	7
427.667	1	7
427.837	1	5
428.008	1	3
428.179	1	-9
428.349	1	-5
428.520	1	1
428.691	1	3
428.861	1	-11
429.032	1	8
429.202	1	6
429.373	1	4
429.544	1	13
429.714	1	-2
429.885	1	6
430.055	1	13
430.226	1	-7
430.397	1	0
430.567	1	4
430.738	1	3
430.909	1	13
431.079	1	-2
431.250	1	6
431.420	1	-4
431.591	1	3
431.762	1	2
431.932	1	2
432.103	1	0
432.273	1	7
432.444	1	9
432.615	1	-8
432.785	1	-1
432.956	1	-11
433.126	1	1
433.297	1	0
433.468	1	-11
433.638	1	-3
433.809	1	7
433.979	1	8
434.150	1	6
434.320	1	10
434.491	1	-5
434.662	1	6
434.832	1	1
435.003	1	-1
435.173	1	-9
435.344	1	5
435.515	1	15
435.685	1	3
435.856	1	3
436.026	1	6
436.197	1	1
436.368	1	8
436.538	1	-11
436.709	1	3
436.879	1	3
437.050	1	5
437.220	1	3
437.391	1	11
437.562	1	1
437.732	1	0
437.903	1	0
438.073	1	-1
438.244	1	-2
438.414	1	-2
438.585	1	-6
438.756	1	-5
438.926	1	-4
439.097	1	-11
439.267	1	4
439.438	1	0
439.608	1	3
439.779	1	1
439.949	1	12
440.120	1	-2
440.291	1	3
440.461	1	0
440.632	1	2
440.802	1	-2
440.973	1	-3
441.143	1	6
441.314	1	-3
441.485	1	8
441.655	1	4
441.826	1	3
441.996	1	-2
442.167	1	3
442.337	1	-9
442.508	1	2
442.678	1	-3
442.849	1	8
443.019	1	12
443.190	1	4
443.361	1	2
443.531	1	9
443.702	1	0
443.872	1	2
444.043	1	4
444.213	1	5
444.384	1	-8
444.554	1	9
444.725	1	-3
444.895	1	2
445.066	1	-1
445.237	1	0
445.407	1	7
445.578	1	-4
445.748	1	11
445.919	1	2
446.089	1	7
446.260	1	0
446.430	1	-1
446.601	1	-3
446.771	1	10
446.942	1	9
447.112	1	1
447.283	1	-3
447.453	1	-4
447.624	1	-1
447.794	1	-6
447.965	1	-3
448.135	1	6
448.306	1	-3
448.477	1	6
448.647	1	-7
448.818	1	1
448.988	1	1
449.159	1	-6
449.329	1	4
449.500	1	-3
449.670	1	13
449.841	1	5
450.011	1	15
450.182	1	-5
450.352	1	4
450.523	1	-3
450.693	1	-3
450.864	1	8
451.034	1	-7
451.205	1	14
451.375	1	3
451.546	1	-5
451.716	1	-2
451.887	1	-11
452.057	1	4
452.228	1	3
452.398	1	0
452.569	1	-3
452.739	1	4
452.910	1	3
453.080	1	16
453.251	1	8
453.421	1	-2
453.592	1	4
453.762	1	-4
453.933	1	4
454.103	1	2
454.274	1	-1
454.444	1	-8
454.615	1	4
454.785	1	-6
454.956	1	7
455.126	1	-4
455.297	1	7
455.467	1	1
455.638	1	5
455.808	1	0
455.979	1	-3
456.149	1	5
456.320	1	-6
456.490	1	0
456.661	1	11
456.831	1	6
457.001	1	-4
457.172	1	-8
457.342	1	5
457.513	1	1
457.683	1	-3
457.854	1	2
458.024	1	-1
458.195	1	-2
458.365	1	-5
458.536	1	4
458.706	1	-2
458.877	1	8
459.047	1	13
459.218	1	0
459.388	1	6
459.559	1	8
459.729	1	7
459.899	1	-3
460.070	1	-1
460.240	1	3
460.411	1	-6
460.581	1	19
460.752	1	7
460.922	1	2
461.093	1	1
461.263	1	0
461.434	1	5
461.604	1	0
461.775	1	-1
461.945	1	2
462.115	1	11
462.286	1	8
462.456	1	-7
462.627	1	9
462.797	1	4
462.968	1	6
463.138	1	-3
463.309	1	-6
463.479	1	-1
463.649	1	6
463.820	1	1
463.990	1	-4
464.161	1	2
464.331	1	-5
464.502	1	-2
464.672	1	2
464.843	1	-3
465.013	1	-2
465.183	1	-9
465.354	1	3
465.524	1	-6
465.695	1	-6
465.865	1	4
466.036	1	3
466.206	1	8
466.376	1	-6
466.547	1	5
466.717	1	-2
466.888	1	6
467.058	1	-2
467.229	1	2
467.399	1	9
467.569	1	7
467.740	1	3
467.910	1	3
468.081	1	6
468.251	1	8
468.422	1	1
468.592	1	-12
468.762	1	-7
468.933	1	-1
469.103	1	-1
469.274	1	3
469.444	1	-2
469.614	1	0
469.785	1	-10
469.955	1	-6
470.126	1	0
470.296	1	-1
470.467	1	-1
470.637	1	5
470.807	1	-1
470.978	1	-3
471.148	1	-4
471.319	1	-3
471.489	1	-3
471.659	1	-8
471.830	1	4
472.000	1	-1
472.171	1	3
472.341	1	-1
472.511	1	-7
472.682	1	-1
472.852	1	-6
473.023	1	7
473.193	1	-1
473.363	1	-1
473.534	1	11
473.704	1	-10
473.875	1	12
474.045	1	-10
474.215	1	10
474.386	1	9
474.556	1	1
474.727	1	-3
474.897	1	-1
475.067	1	1
475.238	1	8
475.408	1	9
475.578	1	-10
475.749	1	-7
475.919	1	0
476.090	1	-1
476.260	1	0
476.430	1	2
476.601	1	5
476.771	1	2
476.942	1	8
477.112	1	-2
477.282	1	-4
477.453	1	-6
477.623	1	-5
477.793	1	5
477.964	1	-4
478.134	1	-14
478.305	1	6
478.475	1	5
478.645	1	8
478.816	1	-3
478.986	1	-2
479.156	1	4
479.327	1	-5
479.497	1	-12
479.667	1	-2
479.838	1	2
480.008	1	6
480.179	1	10
480.349	1	-3
480.519	1	7
480.690	1	1
480.860	1	-2
481.030	1	-9
481.201	1	3
481.371	1	9
481.541	1	-2
481.712	1	-3
481.882	1	7
482.053	1	10
482.223	1	0
482.393	1	3
482.564	1	3
482.734	1	-10
482.904	1	-10
483.075	1	4
483.245	1	1
483.415	1	4
483.586	1	3
483.756	1	9
483.926	1	8
484.097	1	0
484.267	1	1
484.437	1	0
484.608	1	1
484.778	1	13
484.948	1	-1
485.119	1	-3
485.289	1	-8
485.459	1	12
485.630	1	-7
485.800	1	1
485.970	1	-5
486.141	1	1
486.311	1	0
486.481	1	6
486.652	1	13
486.822	1	6
486.992	1	0
487.163	1	4
487.333	1	0
487.503	1	0
487.674	1	6
487.844	1	3
488.014	1	5
488.185	1	-1
488.355	1	0
488.525	1	-8
488.696	1	-12
488.866	1	-3
489.036	1	13
489.207	1	0
489.377	1	0
489.547	1	-6
489.718	1	3
489.888	1	3
490.058	1	-6
490.228	1	11
490.399	1	2
490.569	1	17
490.739	1	0
490.910	1	6
491.080	1	7
491.250	1	-2
491.421	1	-2
491.591	1	3
491.761	1	5
491.932	1	-2
492.102	1	3
492.272	1	1
492.442	1	12
492.613	1	-7
492.783	1	6
492.953	1	-6
493.124	1	13
493.294	1	-3
493.464	1	11
493.635	1	3
493.805	1	-5
493.975	1	-6
494.145	1	0
494.316	1	4
494.486	1	2
494.656	1	10
494.827	1	3
494.997	1	-1
495.167	1	-4
495.337	1	16
495.508	1	1
495.678	1	-4
495.848	1	10
496.019	1	0
496.189	1	-2
496.359	1	-7
496.529	1	-4
496.700	1	15
496.870	1	6
497.040	1	-7
497.211	1	-1
497.381	1	6
497.551	1	-2
497.721	1	-7
497.892	1	3
498.062	1	2
498.232	1	-1
498.403	1	1
498.573	1	-6
498.743	1	-5
498.913	1	5
499.084	1	0
499.254	1	4
499.424	1	-1
499.594	1	12
499.765	1	-4
499.935	1	8
500.105	1	6
500.275	1	-4
500.446	1	-1
500.616	1	-1
500.786	1	-5
500.956	1	1
501.127	1	-3
501.297	1	1
501.467	1	2
501.638	1	-3
501.808	1	7
501.978	1	2
502.148	1	4
502.319	1	-8
502.489	1	6
502.659	1	-1
502.829	1	4
503.000	1	-11
503.170	1	16
503.340	1	7
503.510	1	10
503.681	1	-1
503.851	1	2
504.021	1	-2
504.191	1	16
504.362	1	-8
504.532	1	8
504.702	1	-8
504.872	1	2
505.042	1	-2
505.213	1	6
505.383	1	5
505.553	1	-6
505.723	1	-3
505.894	1	-5
506.064	1	2
506.234	1	7
506.404	1	3
506.575	1	10
506.745	1	2
506.915	1	6
507.085	1	-7
507.256	1	-1
507.426	1	-3
507.596	1	2
507.766	1	2
507.936	1	10
508.107	1	3
508.277	1	3
508.447	1	6
508.617	1	1
508.788	1	7
508.958	1	-3
509.128	1	3
509.298	1	9
509.468	1	1
509.639	1	-4
509.809	1	8
509.979	1	4
510.149	1	-1
510.319	1	6
510.490	1	1
510.660	1	3
510.830	1	5
511.000	1	-9
511.171	1	-1
511.341	1	5
511.511	1	6
511.681	1	5
511.851	1	3
512.022	1	-6
512.192	1	1
512.362	1	-6
512.532	1	1
512.702	1	-10
512.873	1	8
513.043	1	13
513.213	1	6
513.383	1	-6
513.553	1	-3
513.724	1	4
513.894	1	-5
514.064	1	13
514.234	1	9
514.404	1	-6
514.575	1	8
514.745	1	-2
514.915	1	2
515.085	1	-3
515.255	1	-4
515.425	1	-3
515.596	1	7
515.766	1	-2
515.936	1	-5
516.106	1	-11
516.276	1	-10
516.447	1	6
516.617	1	6
516.787	1	9
516.957	1	2
517.127	1	2
517.297	1	-10
517.468	1	-2
517.638	1	-1
517.808	1	2
517.978	1	9
518.148	1	4
518.319	1	6
518.489	1	-8
518.659	1	-6
518.829	1	7
518.999	1	8
519.169	1	0
519.340	1	6
519.510	1	1
519.680	1	8
519.850	1	-3
520.020	1	-2
520.190	1	-5
520.361	1	4
520.531	1	-1
520.701	1	-4
520.871	1	9
521.041	1	7
521.211	1	-10
521.382	1	-11
521.552	1	4
521.722	1	0
521.892	1	1
522.062	1	6
522.232	1	8
522.402	1	0
522.573	1	2
522.743	1	-3
522.913	1	5
523.083	1	1
523.253	1	-2
523.423	1	6
523.593	1	-5
523.764	1	-1
523.934	1	2
524.104	1	2
524.274	1	3
524.444	1	5
524.614	1	5
524.784	1	3
524.955	1	-4
525.125	1	2
525.295	1	-2
525.465	1	7
525.635	1	-2
525.805	1	-3
525.975	1	-1
526.146	1	-5
526.316	1	4
526.486	1	0
526.656	1	-2
526.826	1	-3
526.996	1	0
527.166	1	-1
527.337	1	-5
527.507	1	4
527.677	1	10
527.847	1	6
528.017	1	-11
528.187	1	4
528.357	1	0
528.527	1	9
528.698	1	-3
528.868	1	5
529.038	1	7
529.208	1	-1
529.378	1	3
529.548	1	-4
529.718	1	10
529.888	1	-1
530.058	1	-5
530.229	1	-4
530.399	1	8
530.569	1	-13
530.739	1	3
530.909	1	-1
531.079	1	4
531.249	1	-7
531.419	1	4
531.589	1	2
531.760	1	-2
531.930	1	-6
532.100	1	4
532.270	1	-6
532.440	1	-7
532.610	1	-5
532.780	1	-5
532.950	1	6
533.120	1	-2
533.290	1	3
533.461	1	-1
533.631	1	5
533.801	1	18
533.971	1	1
534.141	1	-7
534.311	1	8
534.481	1	-11
534.651	1	-3
534.821	1	4
534.991	1	-1
535.162	1	-1
535.332	1	-8
535.502	1	0
535.672	1	2
535.842	1	5
536.012	1	-2
536.182	1	1
536.352	1	-5
536.522	1	-4
536.692	1	2
536.862	1	3
537.032	1	13
537.203	1	-1
537.373	1	9
537.543	1	6
537.713	1	4
537.883	1	0
538.053	1	0
538.223	1	-2
538.393	1	8
538.563	1	2
538.733	1	-4
538.903	1	-5
539.073	1	-2
539.243	1	6
539.413	1	-8
539.584	1	8
539.754	1	8
539.924	1	9
540.094	1	1
540.264	1	-5
540.434	1	2
540.604	1	3
540.774	1	4
540.944	1	0
541.114	1	-5
541.284	1	6
541.454	1	2
541.624	1	4
541.794	1	1
541.964	1	8
542.134	1	7
542.305	1	3
542.475	1	4
542.645	1	2
542.815	1	-8
542.985	1	7
543.155	1	-3
543.325	1	3
543.495	1	-2
543.665	1	7
543.835	1	5
544.005	1	5
544.175	1	-7
544.345	1	0
544.515	1	-2
544.685	1	3
544.855	1	1
545.025	1	-2
545.195	1	2
545.365	1	-2
545.535	1	8
545.705	1	7
545.875	1	-5
546.045	1	0
546.216	1	7
546.386	1	-2
546.556	1	-8
546.726	1	-6
546.896	1	-4
547.066	1	7
547.236	1	-10
547.406	1	-4
547.576	1	5
547.746	1	-12
547.916	1	4
548.086	1	2
548.256	1	0
548.426	1	-3
548.596	1	-7
548.766	1	2
548.936	1	-4
549.106	1	6
549.276	1	-6
549.446	1	1
549.616	1	1
549.786	1	-5
549.956	1	11
550.126	1	3
550.296	1	6
550.466	1	-3
550.636	1	12
550.806	1	-1
550.976	1	4
551.146	1	-6
551.316	1	-1
551.486	1	2
551.656	1	0
551.826	1	9
551.996	1	7
552.166	1	11
552.336	1	-4
552.506	1	4
552.676	1	15
552.846	1	-2
553.016	1	6
553.186	1	-3
553.356	1	-4
553.526	1	2
553.696	1	12
553.866	1	5
554.036	1	-5
554.206	1	6
554.376	1	-2
554.546	1	-2
554.716	1	-9
554.886	1	-3
555.056	1	6
555.226	1	-2
555.396	1	-2
555.566	1	2
555.736	1	-5
555.906	1	6
556.076	1	6
556.246	1	2
556.416	1	1
556.586	1	-12
556.756	1	2
556.926	1	5
557.096	1	-12
557.266	1	1
557.436	1	5
557.606	1	9
557.776	1	4
557.946	1	2
558.116	1	1
558.286	1	-2
558.456	1	1
558.626	1	5
558.796	1	1
558.966	1	-3
559.136	1	0
559.306	1	-1
559.476	1	-12
559.646	1	-5
559.816	1	-6
559.986	1	2
560.155	1	12
560.325	1	3
560.495	1	2
560.665	1	4
560.835	1	-1
561.005	1	2
561.175	1	-3
561.345	1	1
561.515	1	3
561.685	1	-3
561.855	1	-10
562.025	1	-3
562.195	1	4
562.365	1	11
562.535	1	-7
562.705	1	-5
562.875	1	1
563.045	1	3
563.215	1	2
563.385	1	-3
563.555	1	-7
563.725	1	-2
563.895	1	11
564.064	1	-3
564.234	1	-3
564.404	1	13
564.574	1	4
564.744	1	6
564.914	1	5
565.084	1	3
565.254	1	10
565.424	1	5
565.594	1	10
565.764	1	-2
565.934	1	3
566.104	1	2
566.274	1	0
566.444	1	-4
566.614	1	-2
566.783	1	-10
566.953	1	11
567.123	1	6
567.293	1	11
567.463	1	6
567.633	1	-1
567.803	1	-10
567.973	1	-6
568.143	1	4
568.313	1	-4
568.483	1	3
568.653	1	4
568.823	1	1
568.993	1	4
569.162	1	3
569.332	1	-4
569.502	1	4
569.672	1	15
569.842	1	4
570.012	1	3
570.182	1	-5
570.352	1	0
570.522	1	-10
570.692	1	-2
570.862	1	0
571.031	1	7
571.201	1	11
571.371	1	-4
571.541	1	9
571.711	1	-3
571.881	1	7
572.051	1	-10
572.221	1	4
572.391	1	-15
572.561	1	-4
572.731	1	8
572.900	1	-5
573.070	1	5
573.240	1	-4
573.410	1	7
573.580	1	0
573.750	1	2
573.920	1	1
574.090	1	1
574.260	1	6
574.430	1	-3
574.599	1	-2
574.769	1	-4
574.939	1	5
575.109	1	-6
575.279	1	5
575.449	1	-5
575.619	1	9
575.789	1	-6
575.959	1	-7
576.128	1	-4
576.298	1	2
576.468	1	6
576.638	1	-6
576.808	1	2
576.978	1	11
577.148	1	7
577.318	1	4
577.487	1	1
577.657	1	1
577.827	1	-4
577.997	1	-4
578.167	1	-6
578.337	1	3
578.507	1	2
578.677	1	9
578.846	1	7
579.016	1	12
579.186	1	4
579.356	1	-6
579.526	1	-4
579.696	1	1
579.866	1	11
580.036	1	-5
580.205	1	-5
580.375	1	4
580.545	1	-4
580.715	1	3
580.885	1	-2
581.055	1	-5
581.225	1	5
581.394	1	-8
581.564	1	11
581.734	1	-5
581.904	1	8
582.074	1	-7
582.244	1	-6
582.414	1	8
582.583	1	8
582.753	1	2
582.923	1	-11
583.093	1	-3
583.263	1	3
583.433	1	0
583.603	1	4
583.772	1	0
583.942	1	2
584.112	1	-1
584.282	1	-5
584.452	1	-2
584.622	1	-2
584.791	1	0
584.961	1	5
585.131	1	11
585.301	1	-10
585.471	1	11
585.641	1	5
585.811	1	10
585.980	1	4
586.150	1	-2
586.320	1	-4
586.490	1	3
586.660	1	10
586.830	1	10
586.999	1	1
587.169	1	9
587.339	1	8
587.509	1	-6
587.679	1	8
587.849	1	7
588.018	1	2
588.188	1	4
588.358	1	-4
588.528	1	7
588.698	1	0
588.867	1	3
589.037	1	1
589.207	1	3
589.377	1	4
589.547	1	-3
589.717	1	2
589.886	1	-11
590.056	1	-6
590.226	1	3
590.396	1	11
590.566	1	-6
590.735	1	-3
590.905	1	3
591.075	1	-1
591.245	1	-8
591.415	1	3
591.585	1	5
591.754	1	2
591.924	1	5
592.094	1	-8
592.264	1	-6
592.434	1	-8
592.603	1	-2
592.773	1	4
592.943	1	2
593.113	1	4
593.283	1	1
593.452	1	5
593.622	1	2
593.792	1	14
593.962	1	5
594.132	1	-7
594.301	1	7
594.471	1	8
594.641	1	3
594.811	1	5
594.981	1	-3
595.150	1	3
595.320	1	7
595.490	1	5
595.660	1	-7
595.829	1	-6
595.999	1	-5
596.169	1	12
596.339	1	4
596.509	1	-2
596.678	1	-5
596.848	1	0
597.018	1	-8
597.188	1	4
597.358	1	-2
597.527	1	-12
597.697	1	2
597.867	1	-4
598.037	1	0
598.206	1	3
598.376	1	-3
598.546	1	6
598.716	1	9
598.885	1	-14
599.055	1	2
599.225	1	-6
599.395	1	2
599.565	1	-7
599.734	1	-5
599.904	1	5
600.074	1	1
600.244	1	-11
600.413	1	4
600.583	1	13
600.753	1	-1
600.923	1	1
601.092	1	22
601.262	1	-6
601.432	1	-6
601.602	1	5
601.771	1	2
601.941	1	0
602.111	1	2
602.281	1	9
602.451	1	4
602.620	1	4
602.790	1	3
602.960	1	-3
603.130	1	13
603.299	1	-1
603.469	1	-17
603.639	1	3
603.809	1	-4
603.978	1	6
604.148	1	3
604.318	1	0
604.487	1	6
604.657	1	-1
604.827	1	7
604.997	1	-2
605.166	1	4
605.336	1	-12
605.506	1	-4
605.676	1	-18
605.845	1	-1
606.015	1	5
606.185	1	10
606.355	1	4
606.524	1	-1
606.694	1	-1
606.864	1	1
607.034	1	0
607.203	1	-5
607.373	1	-3
607.543	1	-4
607.712	1	-2
607.882	1	-4
608.052	1	-12
608.222	1	9
608.391	1	-1
608.561	1	-1
608.731	1	0
608.901	1	1
609.070	1	5
609.240	1	-6
609.410	1	2
609.579	1	12
609.749	1	9
609.919	1	9
610.089	1	4
610.258	1	7
610.428	1	-5
610.598	1	-5
610.767	1	-5
610.937	1	-2
611.107	1	-6
611.277	1	6
611.446	1	-4
611.616	1	6
611.786	1	10
611.955	1	4
612.125	1	-13
612.295	1	-13
612.465	1	5
612.634	1	-4
612.804	1	5
612.974	1	-13
613.143	1	-3
613.313	1	8
613.483	1	7
613.652	1	7
613.822	1	-5
613.992	1	-7
614.162	1	14
614.331	1	13
614.501	1	6
614.671	1	2
614.840	1	-1
615.010	1	-2
615.180	1	-2
615.349	1	10
615.519	1	-10
615.689	1	3
615.858	1	3
616.028	1	9
616.198	1	-5
616.368	1	1
616.537	1	-6
616.707	1	4
616.877	1	2
617.046	1	2
617.216	1	-8
617.386	1	3
617.555	1	9
617.725	1	1
617.895	1	6
618.064	1	-8
618.234	1	0
618.404	1	-3
618.573	1	-8
618.743	1	-4
618.913	1	7
619.082	1	0
619.252	1	11
619.422	1	-6
619.591	1	5
619.761	1	1
619.931	1	8
620.100	1	4
620.270	1	-12
620.440	1	3
620.609	1	6
620.779	1	-4
620.949	1	2
621.118	1	-3
621.288	1	3
621.458	1	6
621.627	1	6
621.797	1	-1
621.967	1	-4
622.136	1	12
622.306	1	1
622.476	1	6
622.645	1	16
622.815	1	6
622.985	1	8
623.154	1	10
623.324	1	-1
623.494	1	12
623.663	1	7
623.833	1	4
624.002	1	-3
624.172	1	-4
624.342	1	13
624.511	1	-5
624.681	1	8
624.851	1	-12
625.020	1	2
625.190	1	2
625.360	1	4
625.529	1	3
625.699	1	-6
625.869	1	8
626.038	1	-6
626.208	1	7
626.377	1	2
626.547	1	8
626.717	1	6
626.886	1	4
627.056	1	-11
627.226	1	1
627.395	1	5
627.565	1	10
627.735	1	1
627.904	1	0
628.074	1	1
628.243	1	3
628.413	1	4
628.583	1	5
628.752	1	9
628.922	1	-2
629.091	1	0
629.261	1	-4
629.431	1	2
629.600	1	-4
629.770	1	-6
629.940	1	-2
630.109	1	-13
630.279	1	-11
630.448	1	-3
630.618	1	1
630.788	1	12
630.957	1	5
631.127	1	9
631.297	1	-2
631.466	1	7
631.636	1	-4
631.805	1	-2
631.975	1	12
632.145	1	-1
632.314	1	2
632.484	1	1
632.653	1	6
632.823	1	3
632.993	1	-4
633.162	1	0
633.332	1	-2
633.501	1	6
633.671	1	1
633.841	1	-5
634.010	1	0
634.180	1	1
634.349	1	5
634.519	1	-10
634.689	1	-5
634.858	1	-5
635.028	1	5
635.197	1	8
635.367	1	0
635.537	1	1
635.706	1	2
635.876	1	-1
636.045	1	13
636.215	1	2
636.384	1	2
636.554	1	5
636.724	1	2
636.893	1	-3
637.063	1	-1
637.232	1	-1
637.402	1	6
637.572	1	-6
637.741	1	5
637.911	1	-2
638.080	1	-1
638.250	1	-2
638.419	1	2
638.589	1	-2
638.759	1	-6
638.928	1	5
639.098	1	-3
639.267	1	8
639.437	1	0
639.606	1	7
639.776	1	-2
639.946	1	4
640.115	1	-1
640.285	1	5
640.454	1	-1
640.624	1	2
640.793	1	13
640.963	1	3
641.132	1	-5
641.302	1	3
641.472	1	-1
641.641	1	-17
641.811	1	-10
641.980	1	12
642.150	1	-6
642.319	1	0
642.489	1	9
642.659	1	-2
642.828	1	-4
642.998	1	8
643.167	1	3
643.337	1	1
643.506	1	-11
643.676	1	10
643.845	1	6
644.015	1	1
644.184	1	-4
644.354	1	12
644.524	1	-1
644.693	1	-1
644.863	1	-6
645.032	1	0
645.202	1	0
645.371	1	1
645.541	1	5
645.710	1	7
645.880	1	0
646.049	1	-10
646.219	1	-1
646.388	1	1
646.558	1	-4
646.728	1	0
646.897	1	-1
647.067	1	8
647.236	1	5
647.406	1	-8
647.575	1	-2
647.745	1	0
647.914	1	-8
648.084	1	6
648.253	1	13
648.423	1	-4
648.592	1	0
648.762	1	9
648.931	1	12
649.101	1	5
649.270	1	-3
649.440	1	1
649.610	1	7
649.779	1	5
649.949	1	-1
650.118	1	17
650.288	1	12
650.457	1	6
650.627	1	-1
650.796	1	1
650.966	1	9
651.135	1	-11
651.305	1	9
651.474	1	-6
651.644	1	19
651.813	1	-1
651.983	1	0
652.152	1	1
652.322	1	-6
652.491	1	-4
652.661	1	-7
652.830	1	4
653.000	1	-4
653.169	1	5
653.339	1	7
653.508	1	6
653.678	1	0
653.847	1	15
654.017	1	11
654.186	1	-6
654.356	1	-7
654.525	1	-4
654.695	1	7
654.864	1	1
655.034	1	1
655.203	1	-10
655.373	1	4
655.542	1	4
655.712	1	1
655.881	1	0
656.051	1	1
656.220	1	-12
656.390	1	-2
656.559	1	-1
656.729	1	3
656.898	1	-3
657.068	1	-1
657.237	1	1
657.406	1	0
657.576	1	0
657.745	1	-5
657.915	1	3
658.084	1	5
658.254	1	5
658.423	1	6
658.593	1	9
658.762	1	-3
658.932	1	-6
659.101	1	9
659.271	1	3
659.440	1	-3
659.610	1	-6
659.779	1	7
659.949	1	1
660.118	1	11
660.288	1	7
660.457	1	-2
660.626	1	15
660.796	1	-10
660.965	1	8
661.135	1	-8
661.304	1	0
661.474	1	-12
661.643	1	12
661.813	1	9
661.982	1	10
662.152	1	-4
662.321	1	5
662.491	1	2
662.660	1	5
662.829	1	-7
662.999	1	-11
663.168	1	7
663.338	1	4
663.507	1	15
663.677	1	2
663.846	1	-2
664.016	1	-7
664.185	1	7
664.354	1	9
664.524	1	6
664.693	1	11
664.863	1	-1
665.032	1	0
665.202	1	-1
665.371	1	4
665.541	1	-10
665.710	1	3
665.879	1	-8
666.049	1	-2
666.218	1	-7
666.388	1	9
666.557	1	-5
666.727	1	2
666.896	1	-3
667.065	1	5
667.235	1	0
667.404	1	-4
667.574	1	-1
667.743	1	3
667.913	1	1
668.082	1	5
668.251	1	-8
668.421	1	-1
668.590	1	1
668.760	1	7
668.929	1	-8
669.099	1	-4
669.268	1	0
669.437	1	13
669.607	1	2
669.776	1	-5
669.946	1	-5
670.115	1	3
670.285	1	8
670.454	1	6
670.623	1	-2
670.793	1	-4
670.962	1	1
671.132	1	17
671.301	1	-1
671.470	1	15
671.640	1	8
671.809	1	-3
671.979	1	-8
672.148	1	0
672.317	1	2
672.487	1	4
672.656	1	-3
672.826	1	-1
672.995	1	8
673.164	1	6
673.334	1	-1
673.503	1	1
673.673	1	-1
673.842	1	-3
674.011	1	4
674.181	1	9
674.350	1	1
674.520	1	2
674.689	1	-1
674.858	1	1
675.028	1	-7
675.197	1	-7
675.367	1	2
675.536	1	10
675.705	1	7
675.875	1	-6
676.044	1	-5
676.214	1	-3
676.383	1	0
676.552	1	3
676.722	1	8
676.891	1	13
677.060	1	0
677.230	1	-4
677.399	1	-10
677.569	1	2
677.738	1	-3
677.907	1	6
678.077	1	4
678.246	1	1
678.416	1	-5
678.585	1	7
678.754	1	-3
678.924	1	-3
679.093	1	5
679.262	1	5
679.432	1	10
679.601	1	-2
679.771	1	2
679.940	1	-2
680.109	1	8
680.279	1	0
680.448	1	5
680.617	1	1
680.787	1	-5
680.956	1	2
681.125	1	10
681.295	1	5
681.464	1	7
681.634	1	3
681.803	1	-9
681.972	1	-6
682.142	1	17
682.311	1	10
682.480	1	10
682.650	1	10
682.819	1	1
682.988	1	0
683.158	1	-1
683.327	1	-8
683.496	1	1
683.666	1	-6
683.835	1	2
684.004	1	6
684.174	1	0
684.343	1	-1
684.512	1	7
684.682	1	-8
684.851	1	7
685.021	1	-1
685.190	1	-8
685.359	1	7
685.529	1	2
685.698	1	13
685.867	1	-4
686.037	1	-1
686.206	1	-12
686.375	1	9
686.545	1	-6
686.714	1	1
686.883	1	2
687.053	1	9
687.222	1	2
687.391	1	1
687.561	1	-3
687.730	1	4
687.899	1	-1
688.069	1	6
688.238	1	2
688.407	1	-9
688.577	1	2
688.746	1	-6
