340.368	1	2
340.539	1	-11
340.710	1	-8
340.881	1	-9
341.052	1	15
341.223	1	-1
341.394	1	-8
341.565	1	-2
341.737	1	4
341.908	1	10
342.079	1	-3
342.250	1	-2
342.421	1	-4
342.592	1	-3
342.763	1	5
342.934	1	-5
343.105	1	1
343.276	1	1
343.447	1	-9
343.618	1	3
343.789	1	-2
343.960	1	-2
344.131	1	0
344.302	1	1
344.473	1	-2
344.644	1	3
344.815	1	-9
344.986	1	3
345.157	1	-7
345.328	1	4
345.499	1	0
345.670	1	-5
345.841	1	9
346.012	1	5
346.183	1	-4
346.354	1	2
346.526	1	-6
346.697	1	2
346.868	1	-2
347.039	1	11
347.210	1	-10
347.381	1	3
347.552	1	-4
347.723	1	-1
347.894	1	-1
348.065	1	-8
348.236	1	3
348.407	1	3
348.578	1	4
348.749	1	-8
348.920	1	-5
349.091	1	-7
349.262	1	-3
349.433	1	-5
349.604	1	5
349.775	1	4
349.946	1	-7
350.117	1	4
350.288	1	15
350.459	1	2
350.630	1	-2
350.801	1	-10
350.972	1	3
351.143	1	-2
351.314	1	3
351.485	1	13
351.656	1	11
351.827	1	-8
351.998	1	2
352.169	1	0
352.340	1	4
352.511	1	-2
352.682	1	4
352.853	1	3
353.024	1	-2
353.195	1	8
353.366	1	8
353.537	1	-2
353.708	1	2
353.879	1	6
354.050	1	-5
354.221	1	-3
354.392	1	1
354.563	1	5
354.734	1	2
354.905	1	5
355.076	1	0
355.247	1	3
355.418	1	-15
355.589	1	-4
355.760	1	-7
355.931	1	3
356.102	1	17
356.273	1	-4
356.444	1	14
356.615	1	-5
356.785	1	8
356.956	1	7
357.127	1	3
357.298	1	-3
357.469	1	-1
357.640	1	-1
357.811	1	6
357.982	1	-2
358.153	1	6
358.324	1	2
358.495	1	5
358.666	1	6
358.837	1	-4
359.008	1	-1
359.179	1	3
359.350	1	0
359.521	1	12
359.692	1	7
359.863	1	0
360.034	1	12
360.205	1	0
360.376	1	4
360.547	1	4
360.718	1	10
360.889	1	-3
361.060	1	5
361.231	1	4
361.401	1	-3
361.572	1	6
361.743	1	10
361.914	1	7
362.085	1	20
362.256	1	4
362.427	1	14
362.598	1	-8
362.769	1	-3
362.940	1	5
363.111	1	7
363.282	1	7
363.453	1	7
363.624	1	21
363.795	1	14
363.966	1	5
364.137	1	18
364.308	1	2
364.478	1	10
364.649	1	3
364.820	1	5
364.991	1	8
365.162	1	23
365.333	1	10
365.504	1	27
365.675	1	8
365.846	1	21
366.017	1	17
366.188	1	14
366.359	1	11
366.530	1	27
366.701	1	12
366.871	1	22
367.042	1	13
367.213	1	28
367.384	1	28
367.555	1	12
367.726	1	17
367.897	1	22
368.068	1	25
368.239	1	22
368.410	1	20
368.581	1	19
368.752	1	17
368.923	1	16
369.093	1	22
369.264	1	37
369.435	1	23
369.606	1	26
369.777	1	21
369.948	1	12
370.119	1	24
370.290	1	26
370.461	1	33
370.632	1	37
370.803	1	26
370.973	1	33
371.144	1	14
371.315	1	26
371.486	1	24
371.657	1	26
371.828	1	26
371.999	1	21
372.170	1	23
372.341	1	26
372.512	1	11
372.682	1	24
372.853	1	25
373.024	1	17
373.195	1	7
373.366	1	27
373.537	1	31
373.708	1	13
373.879	1	10
374.050	1	16
374.220	1	19
374.391	1	15
374.562	1	27
374.733	1	19
374.904	1	13
375.075	1	9
375.246	1	21
375.417	1	15
375.588	1	7
375.758	1	16
375.929	1	9
376.100	1	23
376.271	1	12
376.442	1	10
376.613	1	11
376.784	1	18
376.955	1	5
377.125	1	19
377.296	1	5
377.467	1	14
377.638	1	8
377.809	1	17
377.980	1	13
378.151	1	12
378.321	1	-4
378.492	1	2
378.663	1	11
378.834	1	5
379.005	1	11
379.176	1	14
379.347	1	13
379.518	1	5
379.688	1	3
379.859	1	2
380.030	1	11
380.201	1	3
380.372	1	3
380.543	1	10
380.714	1	11
380.884	1	1
381.055	1	15
381.226	1	8
381.397	1	2
381.568	1	14
381.739	1	13
381.910	1	2
382.080	1	15
382.251	1	-1
382.422	1	4
382.593	1	-1
382.764	1	-2
382.935	1	2
383.105	1	-5
383.276	1	12
383.447	1	9
383.618	1	14
383.789	1	5
383.960	1	2
384.130	1	0
384.301	1	2
384.472	1	7
384.643	1	9
384.814	1	6
384.985	1	13
385.156	1	-2
385.326	1	17
385.497	1	6
385.668	1	13
385.839	1	8
386.010	1	-3
386.180	1	9
386.351	1	4
386.522	1	13
386.693	1	-8
386.864	1	7
387.035	1	11
387.205	1	-6
387.376	1	12
387.547	1	-5
387.718	1	9
387.889	1	4
388.060	1	7
388.230	1	12
388.401	1	2
388.572	1	2
388.743	1	-1
388.914	1	-1
389.084	1	-2
389.255	1	3
389.426	1	9
389.597	1	3
389.768	1	10
389.939	1	10
390.109	1	11
390.280	1	3
390.451	1	0
390.622	1	5
390.793	1	-1
390.963	1	4
391.134	1	6
391.305	1	8
391.476	1	-1
391.647	1	0
391.817	1	6
391.988	1	10
392.159	1	-6
392.330	1	14
392.501	1	6
392.671	1	-3
392.842	1	-5
393.013	1	3
393.184	1	-5
393.355	1	1
393.525	1	2
393.696	1	13
393.867	1	2
394.038	1	-11
394.208	1	6
394.379	1	7
394.550	1	8
394.721	1	-2
394.892	1	2
395.062	1	15
395.233	1	2
395.404	1	-6
395.575	1	4
395.746	1	0
395.916	1	-3
396.087	1	3
396.258	1	4
396.429	1	2
396.599	1	-8
396.770	1	-2
396.941	1	-1
397.112	1	6
397.283	1	5
397.453	1	10
397.624	1	1
397.795	1	4
397.966	1	2
398.136	1	-6
398.307	1	-3
398.478	1	7
398.649	1	-2
398.819	1	11
398.990	1	-6
399.161	1	11
399.332	1	6
399.503	1	7
399.673	1	-6
399.844	1	-1
400.015	1	0
400.186	1	6
400.356	1	-5
400.527	1	1
400.698	1	7
400.869	1	1
401.039	1	11
401.210	1	4
401.381	1	0
401.552	1	-8
401.722	1	-6
401.893	1	-1
402.064	1	4
402.235	1	3
402.405	1	1
402.576	1	-4
402.747	1	-6
402.918	1	12
403.088	1	7
403.259	1	5
403.430	1	-7
403.601	1	-2
403.771	1	7
403.942	1	10
404.113	1	7
404.284	1	8
404.454	1	7
404.625	1	8
404.796	1	-1
404.967	1	-5
405.137	1	9
405.308	1	8
405.479	1	6
405.649	1	2
405.820	1	-11
405.991	1	-9
406.162	1	3
406.332	1	6
406.503	1	3
406.674	1	-6
406.845	1	2
407.015	1	7
407.186	1	-6
407.357	1	2
407.527	1	-7
407.698	1	6
407.869	1	0
408.040	1	-5
408.210	1	1
408.381	1	4
408.552	1	-2
408.722	1	-8
408.893	1	4
409.064	1	2
409.235	1	-6
409.405	1	6
409.576	1	-1
409.747	1	-3
409.917	1	3
410.088	1	11
410.259	1	-2
410.430	1	0
410.600	1	-1
410.771	1	-7
410.942	1	9
411.112	1	3
411.283	1	5
411.454	1	-9
411.625	1	5
411.795	1	-5
411.966	1	-1
412.137	1	-1
412.307	1	4
412.478	1	11
412.649	1	0
412.819	1	-11
412.990	1	2
413.161	1	2
413.332	1	0
413.502	1	-1
413.673	1	5
413.844	1	5
414.014	1	1
414.185	1	1
414.356	1	5
414.526	1	-7
414.697	1	4
414.868	1	-2
415.038	1	5
415.209	1	-5
415.380	1	6
415.550	1	-5
415.721	1	8
415.892	1	-5
416.063	1	-3
416.233	1	3
416.404	1	0
416.575	1	5
416.745	1	-4
416.916	1	-10
417.087	1	0
417.257	1	-7
417.428	1	4
417.599	1	-4
417.769	1	10
417.940	1	7
418.111	1	-5
418.281	1	1
418.452	1	-5
418.623	1	-2
418.793	1	-5
418.964	1	-10
419.135	1	-9
419.305	1	12
419.476	1	3
419.647	1	-6
419.817	1	13
419.988	1	-1
420.159	1	-4
420.329	1	-10
420.500	1	-6
420.671	1	2
420.841	1	11
421.012	1	0
421.183	1	9
421.353	1	4
421.524	1	-5
421.695	1	-3
421.865	1	9
422.036	1	-5
422.206	1	-9
422.377	1	-4
422.548	1	-6
422.718	1	13
422.889	1	-3
423.060	1	-7
423.230	1	5
423.401	1	-4
423.572	1	5
423.742	1	-5
423.913	1	1
424.084	1	7
424.254	1	5
424.425	1	12
424.595	1	1
424.766	1	-4
424.937	1	2
425.107	1	-2
425.278	1	10
425.449	1	2
425.619	1	-6
425.790	1	-2
425.961	1	-3
426.131	1	-2
426.302	1	9
426.472	1	6
426.643	1	5
426.814	1	7
426.984	1	-5
427.155	1	-3
427.326	1	6
427.496	1	0
427.667	1	0
427.837	1	1
428.008	1	-2
428.179	1	-1
428.349	1	-10
428.520	1	-4
428.691	1	2
428.861	1	-2
429.032	1	14
429.202	1	6
429.373	1	6
429.544	1	-4
429.714	1	5
429.885	1	3
430.055	1	1
430.226	1	-8
430.397	1	1
430.567	1	4
430.738	1	-3
430.909	1	5
431.079	1	-6
431.250	1	-12
431.420	1	-1
431.591	1	1
431.762	1	6
431.932	1	-2
432.103	1	9
432.273	1	-1
432.444	1	5
432.615	1	-1
432.785	1	-1
432.956	1	-12
433.126	1	-8
433.297	1	6
433.468	1	-5
433.638	1	-1
433.809	1	5
433.979	1	5
434.150	1	4
434.320	1	8
434.491	1	0
434.662	1	0
434.832	1	-5
435.003	1	2
435.173	1	-7
435.344	1	4
435.515	1	2
435.685	1	4
435.856	1	2
436.026	1	10
436.197	1	0
436.368	1	0
436.538	1	-16
436.709	1	1
436.879	1	-9
437.050	1	-6
437.220	1	6
437.391	1	10
437.562	1	5
437.732	1	-3
437.903	1	-2
438.073	1	2
438.244	1	-1
438.414	1	-10
438.585	1	-5
438.756	1	-8
438.926	1	-6
439.097	1	-2
439.267	1	4
439.438	1	-4
439.608	1	-10
439.779	1	1
439.949	1	10
440.120	1	-12
440.291	1	3
440.461	1	-3
440.632	1	4
440.802	1	0
440.973	1	-2
441.143	1	2
441.314	1	-2
441.485	1	8
441.655	1	3
441.826	1	-1
441.996	1	-5
442.167	1	5
442.337	1	3
442.508	1	-2
442.678	1	-5
442.849	1	9
443.019	1	7
443.190	1	-1
443.361	1	-2
443.531	1	7
443.702	1	0
443.872	1	13
444.043	1	3
444.213	1	-2
444.384	1	-16
444.554	1	13
444.725	1	1
444.895	1	0
445.066	1	1
445.237	1	-9
445.407	1	9
445.578	1	-18
445.748	1	5
445.919	1	-8
446.089	1	-2
446.260	1	-5
446.430	1	1
446.601	1	0
446.771	1	15
446.942	1	1
447.112	1	-3
447.283	1	-7
447.453	1	-10
447.624	1	2
447.794	1	-3
447.965	1	-1
448.135	1	0
448.306	1	1
448.477	1	9
448.647	1	-5
448.818	1	4
448.988	1	-6
449.159	1	-4
449.329	1	-2
449.500	1	-5
449.670	1	9
449.841	1	-3
450.011	1	-3
450.182	1	-1
450.352	1	8
450.523	1	-3
450.693	1	-2
450.864	1	3
451.034	1	-7
451.205	1	0
451.375	1	0
451.546	1	0
451.716	1	-3
451.887	1	-22
452.057	1	1
452.228	1	1
452.398	1	-1
452.569	1	4
452.739	1	4
452.910	1	2
453.080	1	-10
453.251	1	2
453.421	1	-6
453.592	1	-8
453.762	1	-3
453.933	1	-1
454.103	1	-3
454.274	1	-5
454.444	1	-9
454.615	1	5
454.785	1	0
454.956	1	-2
455.126	1	-8
455.297	1	7
455.467	1	-3
455.638	1	-8
455.808	1	-4
455.979	1	-1
456.149	1	10
456.320	1	5
456.490	1	6
456.661	1	7
456.831	1	10
457.001	1	0
457.172	1	-10
457.342	1	-7
457.513	1	6
457.683	1	1
457.854	1	-6
458.024	1	0
458.195	1	-6
458.365	1	-6
458.536	1	2
458.706	1	-2
458.877	1	5
459.047	1	-1
459.218	1	8
459.388	1	9
459.559	1	3
459.729	1	1
459.899	1	0
460.070	1	-1
460.240	1	-5
460.411	1	-3
460.581	1	10
460.752	1	3
460.922	1	-2
461.093	1	6
461.263	1	-1
461.434	1	-3
461.604	1	-2
461.775	1	2
461.945	1	3
462.115	1	7
462.286	1	2
462.456	1	-6
462.627	1	1
462.797	1	0
462.968	1	5
463.138	1	-4
463.309	1	-10
463.479	1	-2
463.649	1	-2
463.820	1	3
463.990	1	-5
464.161	1	-3
464.331	1	-2
464.502	1	-1
464.672	1	-4
464.843	1	3
465.013	1	-5
465.183	1	-12
465.354	1	4
465.524	1	-5
465.695	1	-3
465.865	1	-3
466.036	1	0
466.206	1	5
466.376	1	-7
466.547	1	-4
466.717	1	7
466.888	1	1
467.058	1	1
467.229	1	-5
467.399	1	8
467.569	1	9
467.740	1	-4
467.910	1	-1
468.081	1	2
468.251	1	-3
468.422	1	-5
468.592	1	-6
468.762	1	0
468.933	1	3
469.103	1	-2
469.274	1	6
469.444	1	-11
469.614	1	9
469.785	1	-11
469.955	1	4
470.126	1	-7
470.296	1	0
470.467	1	3
470.637	1	7
470.807	1	-1
470.978	1	0
471.148	1	-1
471.319	1	-1
471.489	1	-1
471.659	1	2
471.830	1	-3
472.000	1	-5
472.171	1	5
472.341	1	-1
472.511	1	-2
472.682	1	2
472.852	1	-8
473.023	1	3
473.193	1	-3
473.363	1	8
473.534	1	1
473.704	1	0
473.875	1	9
474.045	1	4
474.215	1	9
474.386	1	12
474.556	1	-5
474.727	1	0
474.897	1	5
475.067	1	5
475.238	1	0
475.408	1	-2
475.578	1	-5
475.749	1	-1
475.919	1	2
476.090	1	-1
476.260	1	-2
476.430	1	-5
476.601	1	-3
476.771	1	-5
476.942	1	1
477.112	1	7
477.282	1	-3
477.453	1	-5
477.623	1	-9
477.793	1	-5
477.964	1	-5
478.134	1	-8
478.305	1	2
478.475	1	-3
478.645	1	12
478.816	1	6
478.986	1	0
479.156	1	2
479.327	1	-10
479.497	1	0
479.667	1	2
479.838	1	-1
480.008	1	-5
480.179	1	4
480.349	1	-10
480.519	1	3
480.690	1	-4
480.860	1	3
481.030	1	-8
481.201	1	0
481.371	1	-1
481.541	1	-4
481.712	1	-2
481.882	1	4
482.053	1	5
482.223	1	5
482.393	1	4
482.564	1	10
482.734	1	-8
482.904	1	-9
483.075	1	-6
483.245	1	3
483.415	1	-1
483.586	1	-7
483.756	1	-3
483.926	1	-1
484.097	1	7
484.267	1	-3
484.437	1	0
484.608	1	5
484.778	1	5
484.948	1	-13
485.119	1	-4
485.289	1	-5
485.459	1	17
485.630	1	-2
485.800	1	-1
485.970	1	3
486.141	1	-7
486.311	1	-1
486.481	1	2
486.652	1	3
486.822	1	5
486.992	1	-1
487.163	1	-4
487.333	1	0
487.503	1	2
487.674	1	11
487.844	1	-5
488.014	1	-2
488.185	1	-5
488.355	1	-1
488.525	1	2
488.696	1	-2
488.866	1	4
489.036	1	4
489.207	1	-4
489.377	1	0
489.547	1	6
489.718	1	-6
489.888	1	-5
490.058	1	-5
490.228	1	4
490.399	1	1
490.569	1	12
490.739	1	-5
490.910	1	-1
491.080	1	9
491.250	1	-1
491.421	1	-1
491.591	1	-1
491.761	1	-1
491.932	1	-10
492.102	1	-7
492.272	1	2
492.442	1	9
492.613	1	-9
492.783	1	7
492.953	1	3
493.124	1	9
493.294	1	0
493.464	1	21
493.635	1	1
493.805	1	-12
493.975	1	-10
494.145	1	0
494.316	1	-11
494.486	1	6
494.656	1	1
494.827	1	14
494.997	1	-6
495.167	1	-2
495.337	1	9
495.508	1	4
495.678	1	-4
495.848	1	3
496.019	1	-4
496.189	1	0
496.359	1	-9
496.529	1	-8
496.700	1	-5
496.870	1	8
497.040	1	0
497.211	1	-8
497.381	1	-3
497.551	1	6
497.721	1	5
497.892	1	2
498.062	1	4
498.232	1	-3
498.403	1	-2
498.573	1	-8
498.743	1	-5
498.913	1	5
499.084	1	3
499.254	1	9
499.424	1	-1
499.594	1	8
499.765	1	8
499.935	1	0
500.105	1	-1
500.275	1	2
500.446	1	-2
500.616	1	-1
500.786	1	-6
500.956	1	0
501.127	1	0
501.297	1	-3
501.467	1	-5
501.638	1	-5
501.808	1	3
501.978	1	-2
502.148	1	-1
502.319	1	-5
502.489	1	6
502.659	1	2
502.829	1	-8
503.000	1	1
503.170	1	19
503.340	1	7
503.510	1	-1
503.681	1	-7
503.851	1	3
504.021	1	3
504.191	1	11
504.362	1	-3
504.532	1	11
504.702	1	-10
504.872	1	-5
505.042	1	-4
505.213	1	11
505.383	1	-4
505.553	1	-5
505.723	1	-2
505.894	1	-2
506.064	1	2
506.234	1	6
506.404	1	3
506.575	1	1
506.745	1	3
506.915	1	2
507.085	1	0
507.256	1	8
507.426	1	9
507.596	1	-1
507.766	1	-1
507.936	1	18
508.107	1	0
508.277	1	-9
508.447	1	9
508.617	1	-5
508.788	1	14
508.958	1	-7
509.128	1	3
509.298	1	1
509.468	1	5
509.639	1	-6
509.809	1	6
509.979	1	-3
510.149	1	2
510.319	1	-4
510.490	1	0
510.660	1	-5
510.830	1	7
511.000	1	-2
511.171	1	3
511.341	1	-2
511.511	1	-3
511.681	1	6
511.851	1	-10
512.022	1	-7
512.192	1	-6
512.362	1	1
512.532	1	5
512.702	1	2
512.873	1	-2
513.043	1	17
513.213	1	-2
513.383	1	-7
513.553	1	-14
513.724	1	4
513.894	1	1
514.064	1	9
514.234	1	-3
514.404	1	-3
514.575	1	4
514.745	1	-1
514.915	1	6
515.085	1	-4
515.255	1	0
515.425	1	-8
515.596	1	6
515.766	1	1
515.936	1	-3
516.106	1	1
516.276	1	-2
516.447	1	12
516.617	1	14
516.787	1	14
516.957	1	-3
517.127	1	2
517.297	1	1
517.468	1	0
517.638	1	4
517.808	1	-7
517.978	1	10
518.148	1	1
518.319	1	4
518.489	1	-1
518.659	1	-3
518.829	1	8
518.999	1	12
519.169	1	-1
519.340	1	6
519.510	1	-2
519.680	1	4
519.850	1	-2
520.020	1	-2
520.190	1	3
520.361	1	8
520.531	1	2
520.701	1	-3
520.871	1	1
521.041	1	17
521.211	1	-7
521.382	1	0
521.552	1	4
521.722	1	3
521.892	1	4
522.062	1	1
522.232	1	8
522.402	1	4
522.573	1	4
522.743	1	1
522.913	1	3
523.083	1	1
523.253	1	-1
523.423	1	-1
523.593	1	-3
523.764	1	7
523.934	1	-3
524.104	1	-3
524.274	1	7
524.444	1	-4
524.614	1	-4
524.784	1	1
524.955	1	0
525.125	1	-2
525.295	1	8
525.465	1	6
525.635	1	1
525.805	1	-1
525.975	1	7
526.146	1	-3
526.316	1	15
526.486	1	-4
526.656	1	1
526.826	1	-3
526.996	1	5
527.166	1	3
527.337	1	-1
527.507	1	1
527.677	1	1
527.847	1	-4
528.017	1	-3
528.187	1	2
528.357	1	2
528.527	1	2
528.698	1	7
528.868	1	2
529.038	1	0
529.208	1	0
529.378	1	11
529.548	1	-8
529.718	1	4
529.888	1	7
530.058	1	4
530.229	1	1
530.399	1	3
530.569	1	-6
530.739	1	5
530.909	1	-5
531.079	1	-3
531.249	1	1
531.419	1	1
531.589	1	7
531.760	1	7
531.930	1	0
532.100	1	1
532.270	1	-14
532.440	1	2
532.610	1	-2
532.780	1	-2
532.950	1	-1
533.120	1	14
533.290	1	4
533.461	1	8
533.631	1	8
533.801	1	8
533.971	1	2
534.141	1	-5
534.311	1	6
534.481	1	-6
534.651	1	-5
534.821	1	3
534.991	1	7
535.162	1	1
535.332	1	-2
535.502	1	-3
535.672	1	5
535.842	1	8
536.012	1	5
536.182	1	10
536.352	1	0
536.522	1	-1
536.692	1	5
536.862	1	3
537.032	1	0
537.203	1	-3
537.373	1	10
537.543	1	-4
537.713	1	5
537.883	1	6
538.053	1	-3
538.223	1	-5
538.393	1	8
538.563	1	6
538.733	1	9
538.903	1	-6
539.073	1	0
539.243	1	4
539.413	1	0
539.584	1	0
539.754	1	4
539.924	1	14
540.094	1	-2
540.264	1	-4
540.434	1	3
540.604	1	16
540.774	1	5
540.944	1	-2
541.114	1	-5
541.284	1	8
541.454	1	-1
541.624	1	11
541.794	1	6
541.964	1	6
542.134	1	8
542.305	1	14
542.475	1	7
542.645	1	-5
542.815	1	0
542.985	1	4
543.155	1	8
543.325	1	0
543.495	1	3
543.665	1	13
543.835	1	7
544.005	1	2
544.175	1	-13
544.345	1	1
544.515	1	-7
544.685	1	3
544.855	1	8
545.025	1	-6
545.195	1	-7
545.365	1	7
545.535	1	14
545.705	1	-2
545.875	1	-9
546.045	1	-3
546.216	1	-2
546.386	1	10
546.556	1	-9
546.726	1	-5
546.896	1	-8
547.066	1	4
547.236	1	2
547.406	1	2
547.576	1	12
547.746	1	-14
547.916	1	-2
548.086	1	-3
548.256	1	-10
548.426	1	-3
548.596	1	4
548.766	1	4
548.936	1	3
549.106	1	3
549.276	1	-6
549.446	1	2
549.616	1	-3
549.786	1	2
549.956	1	13
550.126	1	15
550.296	1	1
550.466	1	3
550.636	1	9
550.806	1	-1
550.976	1	15
551.146	1	1
551.316	1	-1
551.486	1	0
551.656	1	2
551.826	1	4
551.996	1	19
552.166	1	8
552.336	1	4
552.506	1	8
552.676	1	15
552.846	1	-2
553.016	1	7
553.186	1	6
553.356	1	6
553.526	1	-2
553.696	1	4
553.866	1	-1
554.036	1	4
554.206	1	9
554.376	1	11
554.546	1	-1
554.716	1	5
554.886	1	13
555.056	1	7
555.226	1	-11
555.396	1	-2
555.566	1	15
555.736	1	2
555.906	1	0
556.076	1	6
556.246	1	3
556.416	1	-5
556.586	1	-4
556.756	1	4
556.926	1	4
557.096	1	-1
557.266	1	-8
557.436	1	1
557.606	1	-2
557.776	1	5
557.946	1	15
558.116	1	-1
558.286	1	5
558.456	1	-3
558.626	1	18
558.796	1	9
558.966	1	0
559.136	1	10
559.306	1	3
559.476	1	-6
559.646	1	-3
559.816	1	-1
559.986	1	1
560.155	1	11
560.325	1	0
560.495	1	-4
560.665	1	-2
560.835	1	2
561.005	1	-2
561.175	1	10
561.345	1	-4
561.515	1	-1
561.685	1	4
561.855	1	-1
562.025	1	7
562.195	1	-1
562.365	1	4
562.535	1	2
562.705	1	-5
562.875	1	-4
563.045	1	-3
563.215	1	15
563.385	1	-10
563.555	1	-4
563.725	1	-4
563.895	1	8
564.064	1	2
564.234	1	9
564.404	1	0
564.574	1	1
564.744	1	4
564.914	1	9
565.084	1	-4
565.254	1	0
565.424	1	6
565.594	1	3
565.764	1	0
565.934	1	11
566.104	1	1
566.274	1	5
566.444	1	-13
566.614	1	-8
566.783	1	-10
566.953	1	1
567.123	1	6
567.293	1	20
567.463	1	10
567.633	1	7
567.803	1	1
567.973	1	-9
568.143	1	-5
568.313	1	7
568.483	1	0
568.653	1	2
568.823	1	2
568.993	1	1
569.162	1	4
569.332	1	-8
569.502	1	2
569.672	1	4
569.842	1	4
570.012	1	-3
570.182	1	-1
570.352	1	-3
570.522	1	-12
570.692	1	-2
570.862	1	4
571.031	1	3
571.201	1	11
571.371	1	4
571.541	1	2
571.711	1	0
571.881	1	10
572.051	1	-2
572.221	1	-4
572.391	1	-4
572.561	1	1
572.731	1	13
572.900	1	-2
573.070	1	3
573.240	1	12
573.410	1	10
573.580	1	1
573.750	1	-2
573.920	1	11
574.090	1	6
574.260	1	13
574.430	1	0
574.599	1	6
574.769	1	-3
574.939	1	10
575.109	1	3
575.279	1	12
575.449	1	-3
575.619	1	7
575.789	1	1
575.959	1	-4
576.128	1	-6
576.298	1	8
576.468	1	-10
576.638	1	-7
576.808	1	4
576.978	1	6
577.148	1	6
577.318	1	9
577.487	1	-2
577.657	1	0
577.827	1	-4
577.997	1	0
578.167	1	-3
578.337	1	14
578.507	1	8
578.677	1	8
578.846	1	-3
579.016	1	13
579.186	1	6
579.356	1	-8
579.526	1	-12
579.696	1	6
579.866	1	0
580.036	1	-3
580.205	1	8
580.375	1	5
580.545	1	3
580.715	1	4
580.885	1	0
581.055	1	-10
581.225	1	-3
581.394	1	-1
581.564	1	8
581.734	1	-5
581.904	1	9
582.074	1	-3
582.244	1	0
582.414	1	3
582.583	1	12
582.753	1	-2
582.923	1	-11
583.093	1	-1
583.263	1	6
583.433	1	3
583.603	1	5
583.772	1	-1
583.942	1	8
584.112	1	-1
584.282	1	-8
584.452	1	7
584.622	1	2
584.791	1	-1
584.961	1	5
585.131	1	2
585.301	1	-4
585.471	1	12
585.641	1	-4
585.811	1	7
585.980	1	1
586.150	1	1
586.320	1	-9
586.490	1	10
586.660	1	3
586.830	1	6
586.999	1	0
587.169	1	10
587.339	1	5
587.509	1	6
587.679	1	11
587.849	1	3
588.018	1	3
588.188	1	6
588.358	1	-4
588.528	1	1
588.698	1	4
588.867	1	0
589.037	1	7
589.207	1	1
589.377	1	6
589.547	1	4
589.717	1	-2
589.886	1	-10
590.056	1	-5
590.226	1	8
590.396	1	3
590.566	1	5
590.735	1	-8
590.905	1	8
591.075	1	5
591.245	1	0
591.415	1	5
591.585	1	5
591.754	1	3
591.924	1	-4
592.094	1	-8
592.264	1	1
592.434	1	-1
592.603	1	4
592.773	1	6
592.943	1	6
593.113	1	3
593.283	1	-2
593.452	1	5
593.622	1	-1
593.792	1	12
593.962	1	0
594.132	1	5
594.301	1	8
594.471	1	17
594.641	1	2
594.811	1	-5
594.981	1	0
595.150	1	-10
595.320	1	7
595.490	1	2
595.660	1	2
595.829	1	1
595.999	1	-10
596.169	1	9
596.339	1	1
596.509	1	1
596.678	1	-4
596.848	1	9
597.018	1	-9
597.188	1	4
597.358	1	8
597.527	1	-1
597.697	1	-2
597.867	1	2
598.037	1	7
598.206	1	-1
598.376	1	1
598.546	1	1
598.716	1	-1
598.885	1	-22
599.055	1	9
599.225	1	-6
599.395	1	1
599.565	1	-11
599.734	1	3
599.904	1	-4
600.074	1	-5
600.244	1	-8
600.413	1	9
600.583	1	9
600.753	1	9
600.923	1	0
601.092	1	11
601.262	1	5
601.432	1	-9
601.602	1	6
601.771	1	9
601.941	1	-1
602.111	1	3
602.281	1	9
602.451	1	7
602.620	1	3
602.790	1	0
602.960	1	2
603.130	1	7
603.299	1	4
603.469	1	-1
603.639	1	-2
603.809	1	6
603.978	1	6
604.148	1	11
604.318	1	4
604.487	1	4
604.657	1	2
604.827	1	5
604.997	1	-8
605.166	1	8
605.336	1	3
605.506	1	8
605.676	1	-11
605.845	1	4
606.015	1	3
606.185	1	9
606.355	1	4
606.524	1	5
606.694	1	-2
606.864	1	3
607.034	1	-9
607.203	1	-4
607.373	1	-6
607.543	1	3
607.712	1	-2
607.882	1	7
608.052	1	-1
608.222	1	-1
608.391	1	3
608.561	1	-7
608.731	1	0
608.901	1	3
609.070	1	7
609.240	1	-1
609.410	1	3
609.579	1	4
609.749	1	2
609.919	1	6
610.089	1	-1
610.258	1	4
610.428	1	4
610.598	1	-1
610.767	1	-6
610.937	1	-8
611.107	1	6
611.277	1	9
611.446	1	7
611.616	1	5
611.786	1	13
611.955	1	1
612.125	1	-1
612.295	1	-2
612.465	1	8
612.634	1	0
612.804	1	4
612.974	1	-6
613.143	1	-1
613.313	1	6
613.483	1	0
613.652	1	-2
613.822	1	-1
613.992	1	-1
614.162	1	14
614.331	1	3
614.501	1	-4
614.671	1	0
614.840	1	-10
615.010	1	-12
615.180	1	-7
615.349	1	15
615.519	1	-1
615.689	1	9
615.858	1	3
616.028	1	7
616.198	1	11
616.368	1	4
616.537	1	9
616.707	1	-4
616.877	1	-4
617.046	1	0
617.216	1	-3
617.386	1	10
617.555	1	9
617.725	1	3
617.895	1	1
618.064	1	0
618.234	1	-3
618.404	1	0
618.573	1	-11
618.743	1	2
618.913	1	5
619.082	1	-3
619.252	1	5
619.422	1	4
619.591	1	-5
619.761	1	5
619.931	1	13
620.100	1	12
620.270	1	-8
620.440	1	6
620.609	1	-2
620.779	1	-10
620.949	1	1
621.118	1	8
621.288	1	0
621.458	1	-4
621.627	1	-5
621.797	1	0
621.967	1	-3
622.136	1	14
622.306	1	-5
622.476	1	4
622.645	1	6
622.815	1	1
622.985	1	2
623.154	1	5
623.324	1	5
623.494	1	15
623.663	1	0
623.833	1	5
624.002	1	-13
624.172	1	5
624.342	1	2
624.511	1	2
624.681	1	-1
624.851	1	-1
625.020	1	-3
625.190	1	1
625.360	1	3
625.529	1	9
625.699	1	-7
625.869	1	1
626.038	1	-2
626.208	1	6
626.377	1	5
626.547	1	-4
626.717	1	-4
626.886	1	6
627.056	1	-3
627.226	1	7
627.395	1	1
627.565	1	2
627.735	1	-1
627.904	1	-3
628.074	1	-4
628.243	1	9
628.413	1	4
628.583	1	-1
628.752	1	3
628.922	1	-1
629.091	1	-6
629.261	1	9
629.431	1	1
629.600	1	2
629.770	1	-6
629.940	1	-5
630.109	1	-4
630.279	1	-6
630.448	1	4
630.618	1	3
630.788	1	13
630.957	1	2
631.127	1	2
631.297	1	6
631.466	1	-3
631.636	1	-8
631.805	1	2
631.975	1	16
632.145	1	4
632.314	1	4
632.484	1	-9
632.653	1	3
632.823	1	1
632.993	1	-3
633.162	1	6
633.332	1	10
633.501	1	-1
633.671	1	1
633.841	1	-2
634.010	1	-6
634.180	1	-6
634.349	1	2
634.519	1	-1
634.689	1	4
634.858	1	-1
635.028	1	10
635.197	1	13
635.367	1	0
635.537	1	-2
635.706	1	-5
635.876	1	-7
636.045	1	3
636.215	1	-1
636.384	1	3
636.554	1	4
636.724	1	11
636.893	1	-3
637.063	1	-4
637.232	1	-3
637.402	1	-3
637.572	1	4
637.741	1	1
637.911	1	0
638.080	1	0
638.250	1	0
638.419	1	1
638.589	1	6
638.759	1	-2
638.928	1	1
639.098	1	13
639.267	1	4
639.437	1	3
639.606	1	4
639.776	1	-3
639.946	1	6
640.115	1	-2
640.285	1	7
640.454	1	-8
640.624	1	-7
640.793	1	5
640.963	1	-4
641.132	1	10
641.302	1	0
641.472	1	-3
641.641	1	-14
641.811	1	-7
641.980	1	3
642.150	1	-7
642.319	1	8
642.489	1	5
642.659	1	6
642.828	1	-1
642.998	1	0
643.167	1	-8
643.337	1	-8
643.506	1	-3
643.676	1	1
643.845	1	4
644.015	1	7
644.184	1	2
644.354	1	3
644.524	1	-1
644.693	1	5
644.863	1	-8
645.032	1	-3
645.202	1	5
645.371	1	-10
645.541	1	6
645.710	1	-3
645.880	1	10
646.049	1	-2
646.219	1	2
646.388	1	7
646.558	1	0
646.728	1	3
646.897	1	2
647.067	1	6
647.236	1	8
647.406	1	-8
647.575	1	-2
647.745	1	-2
647.914	1	-5
648.084	1	8
648.253	1	16
648.423	1	-4
648.592	1	-3
648.762	1	5
648.931	1	13
649.101	1	-7
649.270	1	-10
649.440	1	4
649.610	1	6
649.779	1	1
649.949	1	3
650.118	1	11
650.288	1	7
650.457	1	5
650.627	1	-2
650.796	1	2
650.966	1	6
651.135	1	-4
651.305	1	-3
651.474	1	-6
651.644	1	13
651.813	1	6
651.983	1	4
652.152	1	6
652.322	1	-8
652.491	1	6
652.661	1	2
652.830	1	3
653.000	1	-3
653.169	1	-1
653.339	1	5
653.508	1	-1
653.678	1	0
653.847	1	10
654.017	1	-4
654.186	1	-1
654.356	1	-3
654.525	1	2
654.695	1	-1
654.864	1	-3
655.034	1	12
655.203	1	-4
655.373	1	12
655.542	1	2
655.712	1	-2
655.881	1	5
656.051	1	-2
656.220	1	-8
656.390	1	-4
656.559	1	5
656.729	1	2
656.898	1	-8
657.068	1	3
657.237	1	-8
657.406	1	3
657.576	1	-5
657.745	1	-2
657.915	1	0
658.084	1	2
658.254	1	-12
658.423	1	13
658.593	1	2
658.762	1	-3
658.932	1	-4
659.101	1	6
659.271	1	2
659.440	1	-4
659.610	1	-10
659.779	1	5
659.949	1	-3
660.118	1	5
660.288	1	7
660.457	1	11
660.626	1	3
660.796	1	-7
660.965	1	3
661.135	1	-3
661.304	1	-2
661.474	1	5
661.643	1	13
661.813	1	7
661.982	1	13
662.152	1	1
662.321	1	-1
662.491	1	-1
662.660	1	-1
662.829	1	-9
662.999	1	-8
663.168	1	0
663.338	1	9
663.507	1	13
663.677	1	1
663.846	1	-4
664.016	1	-4
664.185	1	1
664.354	1	9
664.524	1	0
664.693	1	7
664.863	1	-4
665.032	1	-5
665.202	1	4
665.371	1	2
665.541	1	-5
665.710	1	4
665.879	1	-4
666.049	1	-8
666.218	1	-7
666.388	1	1
666.557	1	1
666.727	1	-5
666.896	1	6
667.065	1	-2
667.235	1	11
667.404	1	6
667.574	1	-3
667.743	1	1
667.913	1	0
668.082	1	4
668.251	1	4
668.421	1	-3
668.590	1	6
668.760	1	3
668.929	1	-2
669.099	1	-9
669.268	1	6
669.437	1	4
669.607	1	-2
669.776	1	3
669.946	1	4
670.115	1	8
670.285	1	4
670.454	1	3
670.623	1	-2
670.793	1	-3
670.962	1	3
671.132	1	6
671.301	1	0
671.470	1	-5
671.640	1	10
671.809	1	1
671.979	1	0
672.148	1	-2
672.317	1	7
672.487	1	3
672.656	1	0
672.826	1	-6
672.995	1	0
673.164	1	0
673.334	1	1
673.503	1	6
673.673	1	-2
673.842	1	-1
674.011	1	-4
674.181	1	-4
674.350	1	3
674.520	1	-8
674.689	1	-9
674.858	1	4
675.028	1	-2
675.197	1	-8
675.367	1	3
675.536	1	5
675.705	1	8
675.875	1	-4
676.044	1	1
676.214	1	0
676.383	1	3
676.552	1	10
676.722	1	-1
676.891	1	9
677.060	1	4
677.230	1	2
677.399	1	0
677.569	1	-2
677.738	1	0
677.907	1	9
678.077	1	7
678.246	1	-6
678.416	1	5
678.585	1	-3
678.754	1	-1
678.924	1	4
679.093	1	6
679.262	1	1
679.432	1	3
679.601	1	0
679.771	1	-8
679.940	1	-9
680.109	1	9
680.279	1	0
680.448	1	2
680.617	1	-4
680.787	1	1
680.956	1	4
681.125	1	-3
681.295	1	-2
681.464	1	1
681.634	1	4
681.803	1	-10
681.972	1	-13
682.142	1	2
682.311	1	11
682.480	1	3
682.650	1	6
682.819	1	-5
682.988	1	-4
683.158	1	-1
683.327	1	0
683.496	1	1
683.666	1	-7
683.835	1	4
684.004	1	8
684.174	1	3
684.343	1	-5
684.512	1	6
684.682	1	-2
684.851	1	-6
685.021	1	2
685.190	1	-5
685.359	1	3
685.529	1	-5
685.698	1	9
685.867	1	-2
686.037	1	4
686.206	1	1
686.375	1	13
686.545	1	-4
686.714	1	-8
686.883	1	3
687.053	1	-1
687.222	1	11
687.391	1	-2
687.561	1	4
687.730	1	5
687.899	1	-3
688.069	1	5
688.238	1	6
688.407	1	-5
688.577	1	4
688.746	1	2
