340.368	1	-4
340.539	1	-9
340.710	1	-8
340.881	1	-2
341.052	1	11
341.223	1	4
341.394	1	-1
341.565	1	-13
341.737	1	10
341.908	1	5
342.079	1	-2
342.250	1	-3
342.421	1	1
342.592	1	-1
342.763	1	1
342.934	1	-1
343.105	1	5
343.276	1	4
343.447	1	-2
343.618	1	5
343.789	1	0
343.960	1	6
344.131	1	-2
344.302	1	0
344.473	1	10
344.644	1	3
344.815	1	5
344.986	1	-7
345.157	1	-6
345.328	1	5
345.499	1	2
345.670	1	-5
345.841	1	7
346.012	1	5
346.183	1	3
346.354	1	9
346.526	1	-3
346.697	1	2
346.868	1	6
347.039	1	4
347.210	1	-2
347.381	1	-5
347.552	1	-2
347.723	1	-2
347.894	1	8
348.065	1	-1
348.236	1	10
348.407	1	6
348.578	1	-1
348.749	1	-9
348.920	1	6
349.091	1	-6
349.262	1	4
349.433	1	3
349.604	1	4
349.775	1	18
349.946	1	-12
350.117	1	6
350.288	1	10
350.459	1	-7
350.630	1	3
350.801	1	7
350.972	1	3
351.143	1	-1
351.314	1	3
351.485	1	3
351.656	1	4
351.827	1	-1
351.998	1	2
352.169	1	1
352.340	1	3
352.511	1	1
352.682	1	7
352.853	1	0
353.024	1	9
353.195	1	-7
353.366	1	15
353.537	1	3
353.708	1	1
353.879	1	5
354.050	1	-7
354.221	1	-10
354.392	1	-5
354.563	1	2
354.734	1	5
354.905	1	7
355.076	1	2
355.247	1	8
355.418	1	-12
355.589	1	-6
355.760	1	-3
355.931	1	0
356.102	1	9
356.273	1	-7
356.444	1	4
356.615	1	1
356.785	1	9
356.956	1	2
357.127	1	2
357.298	1	0
357.469	1	5
357.640	1	11
357.811	1	-3
357.982	1	-4
358.153	1	7
358.324	1	-4
358.495	1	3
358.666	1	-6
358.837	1	-2
359.008	1	-3
359.179	1	10
359.350	1	-12
359.521	1	15
359.692	1	11
359.863	1	-1
360.034	1	5
360.205	1	-11
360.376	1	4
360.547	1	7
360.718	1	11
360.889	1	2
361.060	1	-14
361.231	1	-2
361.401	1	0
361.572	1	-4
361.743	1	0
361.914	1	3
362.085	1	16
362.256	1	-3
362.427	1	10
362.598	1	-3
362.769	1	5
362.940	1	-7
363.111	1	-3
363.282	1	5
363.453	1	4
363.624	1	9
363.795	1	2
363.966	1	6
364.137	1	6
364.308	1	3
364.478	1	-2
364.649	1	-4
364.820	1	-8
364.991	1	2
365.162	1	9
365.333	1	2
365.504	1	6
365.675	1	-2
365.846	1	9
366.017	1	5
366.188	1	-2
366.359	1	-12
366.530	1	4
366.701	1	3
366.871	1	-2
367.042	1	4
367.213	1	9
367.384	1	11
367.555	1	-1
367.726	1	5
367.897	1	2
368.068	1	11
368.239	1	5
368.410	1	9
368.581	1	-4
368.752	1	-2
368.923	1	2
369.093	1	-3
369.264	1	1
369.435	1	-5
369.606	1	-13
369.777	1	-5
369.948	1	13
370.119	1	-1
370.290	1	-3
370.461	1	10
370.632	1	7
370.803	1	-1
370.973	1	1
371.144	1	-10
371.315	1	-10
371.486	1	8
371.657	1	4
371.828	1	3
371.999	1	-8
372.170	1	4
372.341	1	-1
372.512	1	-4
372.682	1	-1
372.853	1	0
373.024	1	-3
373.195	1	-9
373.366	1	2
373.537	1	0
373.708	1	-1
373.879	1	0
374.050	1	-2
374.220	1	12
374.391	1	0
374.562	1	4
374.733	1	6
374.904	1	9
375.075	1	-3
375.246	1	3
375.417	1	-2
375.588	1	0
375.758	1	0
375.929	1	-1
376.100	1	7
376.271	1	7
376.442	1	-3
376.613	1	-1
376.784	1	-1
376.955	1	-7
377.125	1	3
377.296	1	7
377.467	1	-7
377.638	1	7
377.809	1	2
377.980	1	1
378.151	1	4
378.321	1	-4
378.492	1	0
378.663	1	-8
378.834	1	-1
379.005	1	8
379.176	1	0
379.347	1	14
379.518	1	-3
379.688	1	9
379.859	1	-1
380.030	1	6
380.201	1	5
380.372	1	-3
380.543	1	17
380.714	1	5
380.884	1	-3
381.055	1	4
381.226	1	-4
381.397	1	-4
381.568	1	7
381.739	1	7
381.910	1	0
382.080	1	3
382.251	1	-3
382.422	1	0
382.593	1	-2
382.764	1	-8
382.935	1	-5
383.105	1	-7
383.276	1	0
383.447	1	-6
383.618	1	7
383.789	1	-3
383.960	1	-6
384.130	1	3
384.301	1	2
384.472	1	-6
384.643	1	1
384.814	1	8
384.985	1	-1
385.156	1	-5
385.326	1	13
385.497	1	0
385.668	1	7
385.839	1	0
386.010	1	5
386.180	1	4
386.351	1	-4
386.522	1	-1
386.693	1	-12
386.864	1	11
387.035	1	-4
387.205	1	-5
387.376	1	10
387.547	1	-5
387.718	1	-4
387.889	1	-1
388.060	1	13
388.230	1	15
388.401	1	-7
388.572	1	-4
388.743	1	9
388.914	1	6
389.084	1	-8
389.255	1	-14
389.426	1	2
389.597	1	6
389.768	1	-6
389.939	1	10
390.109	1	12
390.280	1	-2
390.451	1	-12
390.622	1	5
390.793	1	0
390.963	1	12
391.134	1	12
391.305	1	9
391.476	1	-5
391.647	1	4
391.817	1	3
391.988	1	12
392.159	1	-5
392.330	1	6
392.501	1	1
392.671	1	-12
392.842	1	-6
393.013	1	-4
393.184	1	9
393.355	1	15
393.525	1	6
393.696	1	16
393.867	1	5
394.038	1	-6
394.208	1	-2
394.379	1	4
394.550	1	11
394.721	1	-11
394.892	1	-1
395.062	1	5
395.233	1	-5
395.404	1	-3
395.575	1	7
395.746	1	12
395.916	1	-3
396.087	1	-5
396.258	1	2
396.429	1	-2
396.599	1	4
396.770	1	3
396.941	1	3
397.112	1	13
397.283	1	-7
397.453	1	20
397.624	1	-2
397.795	1	5
397.966	1	6
398.136	1	5
398.307	1	4
398.478	1	1
398.649	1	-1
398.819	1	0
398.990	1	2
399.161	1	10
399.332	1	-3
399.503	1	1
399.673	1	2
399.844	1	1
400.015	1	-2
400.186	1	-1
400.356	1	-9
400.527	1	-5
400.698	1	2
400.869	1	-6
401.039	1	10
401.210	1	-5
401.381	1	3
401.552	1	-3
401.722	1	8
401.893	1	1
402.064	1	3
402.235	1	1
402.405	1	0
402.576	1	-4
402.747	1	-2
402.918	1	8
403.088	1	10
403.259	1	5
403.430	1	-6
403.601	1	-6
403.771	1	-3
403.942	1	8
404.113	1	3
404.284	1	5
404.454	1	8
404.625	1	5
404.796	1	4
404.967	1	0
405.137	1	3
405.308	1	6
405.479	1	3
405.649	1	12
405.820	1	-12
405.991	1	-3
406.162	1	4
406.332	1	4
406.503	1	11
406.674	1	3
406.845	1	6
407.015	1	7
407.186	1	4
407.357	1	1
407.527	1	-14
407.698	1	6
407.869	1	-6
408.040	1	1
408.210	1	-1
408.381	1	2
408.552	1	3
408.722	1	-7
408.893	1	5
409.064	1	-11
409.235	1	-4
409.405	1	11
409.576	1	-7
409.747	1	-5
409.917	1	-9
410.088	1	0
410.259	1	3
410.430	1	9
410.600	1	-4
410.771	1	-2
410.942	1	5
411.112	1	4
411.283	1	15
411.454	1	-4
411.625	1	-4
411.795	1	2
411.966	1	9
412.137	1	11
412.307	1	0
412.478	1	8
412.649	1	7
412.819	1	6
412.990	1	1
413.161	1	-3
413.332	1	2
413.502	1	7
413.673	1	6
413.844	1	6
414.014	1	9
414.185	1	13
414.356	1	10
414.526	1	-4
414.697	1	12
414.868	1	11
415.038	1	0
415.209	1	6
415.380	1	0
415.550	1	1
415.721	1	8
415.892	1	3
416.063	1	-3
416.233	1	3
416.404	1	-2
416.575	1	7
416.745	1	0
416.916	1	-4
417.087	1	9
417.257	1	-10
417.428	1	7
417.599	1	9
417.769	1	14
417.940	1	15
418.111	1	6
418.281	1	4
418.452	1	-9
418.623	1	-11
418.793	1	6
418.964	1	-14
419.135	1	-8
419.305	1	-2
419.476	1	7
419.647	1	-2
419.817	1	1
419.988	1	5
420.159	1	6
420.329	1	-4
420.500	1	-6
420.671	1	5
420.841	1	11
421.012	1	-2
421.183	1	2
421.353	1	4
421.524	1	-1
421.695	1	-3
421.865	1	3
422.036	1	1
422.206	1	1
422.377	1	-7
422.548	1	-10
422.718	1	14
422.889	1	-6
423.060	1	-7
423.230	1	5
423.401	1	0
423.572	1	-7
423.742	1	4
423.913	1	2
424.084	1	11
424.254	1	7
424.425	1	-4
424.595	1	-1
424.766	1	0
424.937	1	4
425.107	1	2
425.278	1	10
425.449	1	8
425.619	1	0
425.790	1	-8
425.961	1	-2
426.131	1	3
426.302	1	6
426.472	1	8
426.643	1	11
426.814	1	5
426.984	1	7
427.155	1	-2
427.326	1	5
427.496	1	-1
427.667	1	9
427.837	1	2
428.008	1	-1
428.179	1	-8
428.349	1	-11
428.520	1	-2
428.691	1	8
428.861	1	-4
429.032	1	6
429.202	1	0
429.373	1	2
429.544	1	0
429.714	1	-2
429.885	1	4
430.055	1	4
430.226	1	-7
430.397	1	4
430.567	1	6
430.738	1	2
430.909	1	4
431.079	1	-14
431.250	1	0
431.420	1	-6
431.591	1	13
431.762	1	5
431.932	1	-9
432.103	1	-5
432.273	1	2
432.444	1	6
432.615	1	-1
432.785	1	5
432.956	1	-2
433.126	1	-12
433.297	1	3
433.468	1	-9
433.638	1	6
433.809	1	10
433.979	1	6
434.150	1	12
434.320	1	-2
434.491	1	1
434.662	1	2
434.832	1	5
435.003	1	9
435.173	1	-6
435.344	1	5
435.515	1	13
435.685	1	1
435.856	1	0
436.026	1	8
436.197	1	7
436.368	1	6
436.538	1	-9
436.709	1	0
436.879	1	-1
437.050	1	-4
437.220	1	8
437.391	1	8
437.562	1	1
437.732	1	-4
437.903	1	3
438.073	1	1
438.244	1	6
438.414	1	-3
438.585	1	-2
438.756	1	-3
438.926	1	-1
439.097	1	-3
439.267	1	0
439.438	1	-3
439.608	1	-5
439.779	1	-5
439.949	1	6
440.120	1	7
440.291	1	5
440.461	1	-6
440.632	1	6
440.802	1	-2
440.973	1	3
441.143	1	9
441.314	1	-5
441.485	1	3
441.655	1	6
441.826	1	1
441.996	1	6
442.167	1	4
442.337	1	6
442.508	1	-5
442.678	1	2
442.849	1	13
443.019	1	9
443.190	1	-6
443.361	1	0
443.531	1	3
443.702	1	3
443.872	1	3
444.043	1	0
444.213	1	2
444.384	1	-9
444.554	1	15
444.725	1	-4
444.895	1	0
445.066	1	-8
445.237	1	1
445.407	1	11
445.578	1	-4
445.748	1	3
445.919	1	-6
446.089	1	6
446.260	1	1
446.430	1	4
446.601	1	-2
446.771	1	17
446.942	1	-8
447.112	1	-6
447.283	1	-3
447.453	1	1
447.624	1	0
447.794	1	-7
447.965	1	0
448.135	1	4
448.306	1	10
448.477	1	2
448.647	1	-3
448.818	1	2
448.988	1	0
449.159	1	-9
449.329	1	-6
449.500	1	-1
449.670	1	11
449.841	1	1
450.011	1	8
450.182	1	3
450.352	1	5
450.523	1	-5
450.693	1	1
450.864	1	3
451.034	1	-6
451.205	1	5
451.375	1	6
451.546	1	2
451.716	1	-1
451.887	1	-12
452.057	1	2
452.228	1	5
452.398	1	5
452.569	1	0
452.739	1	-4
452.910	1	-10
453.080	1	-7
453.251	1	5
453.421	1	-2
453.592	1	1
453.762	1	2
453.933	1	5
454.103	1	-3
454.274	1	2
454.444	1	-8
454.615	1	8
454.785	1	-7
454.956	1	0
455.126	1	-7
455.297	1	14
455.467	1	4
455.638	1	1
455.808	1	6
455.979	1	5
456.149	1	7
456.320	1	-5
456.490	1	-8
456.661	1	7
456.831	1	6
457.001	1	-3
457.172	1	-4
457.342	1	2
457.513	1	7
457.683	1	-7
457.854	1	6
458.024	1	5
458.195	1	-7
458.365	1	-5
458.536	1	11
458.706	1	-5
458.877	1	3
459.047	1	10
459.218	1	-1
459.388	1	9
459.559	1	-8
459.729	1	6
459.899	1	-4
460.070	1	-6
460.240	1	1
460.411	1	5
460.581	1	12
460.752	1	4
460.922	1	6
461.093	1	10
461.263	1	-10
461.434	1	-7
461.604	1	1
461.775	1	-2
461.945	1	2
462.115	1	4
462.286	1	8
462.456	1	-6
462.627	1	5
462.797	1	3
462.968	1	-2
463.138	1	5
463.309	1	-10
463.479	1	5
463.649	1	3
463.820	1	-2
463.990	1	7
464.161	1	2
464.331	1	-1
464.502	1	7
464.672	1	0
464.843	1	2
465.013	1	-7
465.183	1	-7
465.354	1	4
465.524	1	4
465.695	1	-4
465.865	1	-5
466.036	1	-10
466.206	1	10
466.376	1	3
466.547	1	2
466.717	1	9
466.888	1	9
467.058	1	-2
467.229	1	-8
467.399	1	4
467.569	1	17
467.740	1	-4
467.910	1	2
468.081	1	4
468.251	1	2
468.422	1	-4
468.592	1	3
468.762	1	-5
468.933	1	0
469.103	1	-3
469.274	1	6
469.444	1	-3
469.614	1	5
469.785	1	-15
469.955	1	1
470.126	1	-4
470.296	1	-6
470.467	1	-9
470.637	1	8
470.807	1	7
470.978	1	-1
471.148	1	7
471.319	1	-2
471.489	1	3
471.659	1	-10
471.830	1	-3
472.000	1	-3
472.171	1	9
472.341	1	-2
472.511	1	-9
472.682	1	1
472.852	1	5
473.023	1	2
473.193	1	9
473.363	1	1
473.534	1	15
473.704	1	-10
473.875	1	13
474.045	1	-1
474.215	1	7
474.386	1	6
474.556	1	7
474.727	1	-5
474.897	1	5
475.067	1	3
475.238	1	-2
475.408	1	-1
475.578	1	-10
475.749	1	-1
475.919	1	4
476.090	1	9
476.260	1	2
476.430	1	-5
476.601	1	0
476.771	1	-4
476.942	1	5
477.112	1	-1
477.282	1	-5
477.453	1	-5
477.623	1	-5
477.793	1	-3
477.964	1	-2
478.134	1	-8
478.305	1	-1
478.475	1	1
478.645	1	9
478.816	1	3
478.986	1	4
479.156	1	5
479.327	1	-10
479.497	1	-2
479.667	1	-6
479.838	1	-2
480.008	1	0
480.179	1	-1
480.349	1	5
480.519	1	0
480.690	1	9
480.860	1	2
481.030	1	0
481.201	1	-2
481.371	1	3
481.541	1	-4
481.712	1	6
481.882	1	19
482.053	1	7
482.223	1	-5
482.393	1	6
482.564	1	0
482.734	1	-4
482.904	1	-5
483.075	1	0
483.245	1	2
483.415	1	2
483.586	1	2
483.756	1	3
483.926	1	5
484.097	1	2
484.267	1	-5
484.437	1	-6
484.608	1	9
484.778	1	13
484.948	1	-3
485.119	1	-7
485.289	1	-5
485.459	1	13
485.630	1	4
485.800	1	-6
485.970	1	0
486.141	1	1
486.311	1	-3
486.481	1	0
486.652	1	4
486.822	1	12
486.992	1	6
487.163	1	3
487.333	1	9
487.503	1	5
487.674	1	6
487.844	1	7
488.014	1	-4
488.185	1	0
488.355	1	10
488.525	1	0
488.696	1	-8
488.866	1	-4
489.036	1	7
489.207	1	-1
489.377	1	2
489.547	1	-4
489.718	1	-3
489.888	1	-1
490.058	1	-1
490.228	1	7
490.399	1	2
490.569	1	14
490.739	1	2
490.910	1	3
491.080	1	10
491.250	1	-6
491.421	1	0
491.591	1	-8
491.761	1	2
491.932	1	1
492.102	1	-4
492.272	1	1
492.442	1	-1
492.613	1	-10
492.783	1	1
492.953	1	-6
493.124	1	3
493.294	1	1
493.464	1	4
493.635	1	6
493.805	1	5
493.975	1	-6
494.145	1	0
494.316	1	4
494.486	1	0
494.656	1	1
494.827	1	6
494.997	1	-5
495.167	1	0
495.337	1	8
495.508	1	0
495.678	1	4
495.848	1	9
496.019	1	-4
496.189	1	0
496.359	1	-9
496.529	1	-2
496.700	1	8
496.870	1	8
497.040	1	-3
497.211	1	1
497.381	1	-7
497.551	1	-3
497.721	1	-2
497.892	1	-4
498.062	1	-2
498.232	1	-1
498.403	1	7
498.573	1	-7
498.743	1	7
498.913	1	3
499.084	1	1
499.254	1	3
499.424	1	1
499.594	1	-3
499.765	1	6
499.935	1	3
500.105	1	2
500.275	1	5
500.446	1	-8
500.616	1	-5
500.786	1	-8
500.956	1	8
501.127	1	4
501.297	1	1
501.467	1	-12
501.638	1	5
501.808	1	5
501.978	1	8
502.148	1	3
502.319	1	4
502.489	1	7
502.659	1	7
502.829	1	7
503.000	1	3
503.170	1	2
503.340	1	8
503.510	1	7
503.681	1	-4
503.851	1	-8
504.021	1	5
504.191	1	8
504.362	1	-11
504.532	1	4
504.702	1	3
504.872	1	2
505.042	1	-1
505.213	1	3
505.383	1	3
505.553	1	-7
505.723	1	2
505.894	1	0
506.064	1	6
506.234	1	5
506.404	1	3
506.575	1	2
506.745	1	4
506.915	1	7
507.085	1	-9
507.256	1	4
507.426	1	10
507.596	1	10
507.766	1	9
507.936	1	2
508.107	1	-1
508.277	1	-3
508.447	1	13
508.617	1	11
508.788	1	17
508.958	1	-5
509.128	1	0
509.298	1	0
509.468	1	0
509.639	1	-3
509.809	1	-3
509.979	1	-9
510.149	1	-2
510.319	1	10
510.490	1	3
510.660	1	-4
510.830	1	7
511.000	1	3
511.171	1	-6
511.341	1	1
511.511	1	3
511.681	1	0
511.851	1	1
512.022	1	0
512.192	1	1
512.362	1	0
512.532	1	-1
512.702	1	2
512.873	1	6
513.043	1	2
513.213	1	-2
513.383	1	-8
513.553	1	-8
513.724	1	-8
513.894	1	-7
514.064	1	10
514.234	1	6
514.404	1	3
514.575	1	4
514.745	1	-1
514.915	1	-5
515.085	1	-1
515.255	1	-1
515.425	1	-1
515.596	1	8
515.766	1	-11
515.936	1	-1
516.106	1	-6
516.276	1	-10
516.447	1	11
516.617	1	16
516.787	1	8
516.957	1	-4
517.127	1	4
517.297	1	-9
517.468	1	1
517.638	1	5
517.808	1	-3
517.978	1	2
518.148	1	9
518.319	1	-1
518.489	1	-9
518.659	1	-7
518.829	1	11
518.999	1	6
519.169	1	1
519.340	1	4
519.510	1	1
519.680	1	-4
519.850	1	5
520.020	1	-1
520.190	1	-1
520.361	1	3
520.531	1	5
520.701	1	-2
520.871	1	2
521.041	1	10
521.211	1	-7
521.382	1	-8
521.552	1	1
521.722	1	2
521.892	1	9
522.062	1	7
522.232	1	5
522.402	1	9
522.573	1	5
522.743	1	1
522.913	1	3
523.083	1	-1
523.253	1	2
523.423	1	6
523.593	1	-3
523.764	1	-1
523.934	1	-2
524.104	1	0
524.274	1	7
524.444	1	-4
524.614	1	-1
524.784	1	-1
524.955	1	-3
525.125	1	-1
525.295	1	4
525.465	1	3
525.635	1	-5
525.805	1	-1
525.975	1	3
526.146	1	-2
526.316	1	6
526.486	1	-5
526.656	1	4
526.826	1	3
526.996	1	3
527.166	1	-10
527.337	1	-10
527.507	1	-1
527.677	1	6
527.847	1	0
528.017	1	-7
528.187	1	-2
528.357	1	1
528.527	1	1
528.698	1	-1
528.868	1	10
529.038	1	5
529.208	1	-1
529.378	1	11
529.548	1	-3
529.718	1	5
529.888	1	7
530.058	1	4
530.229	1	6
530.399	1	2
530.569	1	-10
530.739	1	-1
530.909	1	-4
531.079	1	3
531.249	1	-8
531.419	1	1
531.589	1	1
531.760	1	1
531.930	1	-2
532.100	1	-3
532.270	1	-2
532.440	1	1
532.610	1	1
532.780	1	-9
532.950	1	-1
533.120	1	-4
533.290	1	3
533.461	1	3
533.631	1	4
533.801	1	6
533.971	1	0
534.141	1	-11
534.311	1	13
534.481	1	-12
534.651	1	-7
534.821	1	6
534.991	1	4
535.162	1	5
535.332	1	-4
535.502	1	1
535.672	1	12
535.842	1	6
536.012	1	-6
536.182	1	-1
536.352	1	2
536.522	1	-5
536.692	1	3
536.862	1	-4
537.032	1	9
537.203	1	-2
537.373	1	5
537.543	1	0
537.713	1	1
537.883	1	-6
538.053	1	-5
538.223	1	0
538.393	1	8
538.563	1	11
538.733	1	4
538.903	1	-13
539.073	1	-2
539.243	1	0
539.413	1	2
539.584	1	6
539.754	1	5
539.924	1	10
540.094	1	-5
540.264	1	-3
540.434	1	-2
540.604	1	1
540.774	1	0
540.944	1	0
541.114	1	-5
541.284	1	5
541.454	1	-6
541.624	1	7
541.794	1	6
541.964	1	1
542.134	1	7
542.305	1	8
542.475	1	8
542.645	1	1
542.815	1	5
542.985	1	3
543.155	1	6
543.325	1	1
543.495	1	-3
543.665	1	8
543.835	1	2
544.005	1	10
544.175	1	-2
544.345	1	4
544.515	1	2
544.685	1	1
544.855	1	9
545.025	1	-1
545.195	1	-8
545.365	1	5
545.535	1	10
545.705	1	-6
545.875	1	-8
546.045	1	-6
546.216	1	8
546.386	1	1
546.556	1	-6
546.726	1	-7
546.896	1	1
547.066	1	0
547.236	1	4
547.406	1	10
547.576	1	11
547.746	1	-10
547.916	1	-3
548.086	1	-4
548.256	1	-7
548.426	1	1
548.596	1	-4
548.766	1	1
548.936	1	2
549.106	1	-4
549.276	1	-7
549.446	1	-3
549.616	1	2
549.786	1	-3
549.956	1	13
550.126	1	10
550.296	1	1
550.466	1	1
550.636	1	10
550.806	1	2
550.976	1	6
551.146	1	-3
551.316	1	-1
551.486	1	1
551.656	1	1
551.826	1	11
551.996	1	8
552.166	1	0
552.336	1	-5
552.506	1	12
552.676	1	8
552.846	1	1
553.016	1	6
553.186	1	-5
553.356	1	13
553.526	1	-4
553.696	1	9
553.866	1	-4
554.036	1	2
554.206	1	6
554.376	1	2
554.546	1	6
554.716	1	-6
554.886	1	-1
555.056	1	6
555.226	1	2
555.396	1	-5
555.566	1	11
555.736	1	-6
555.906	1	14
556.076	1	5
556.246	1	1
556.416	1	0
556.586	1	2
556.756	1	1
556.926	1	5
557.096	1	2
557.266	1	2
557.436	1	-2
557.606	1	4
557.776	1	-2
557.946	1	7
558.116	1	4
558.286	1	11
558.456	1	5
558.626	1	4
558.796	1	5
558.966	1	-6
559.136	1	4
559.306	1	-10
559.476	1	-1
559.646	1	-12
559.816	1	-8
559.986	1	-3
560.155	1	8
560.325	1	0
560.495	1	-3
560.665	1	0
560.835	1	-4
561.005	1	2
561.175	1	-3
561.345	1	4
561.515	1	-1
561.685	1	2
561.855	1	-5
562.025	1	3
562.195	1	2
562.365	1	4
562.535	1	-4
562.705	1	1
562.875	1	5
563.045	1	-9
563.215	1	8
563.385	1	-8
563.555	1	-8
563.725	1	-5
563.895	1	-4
564.064	1	3
564.234	1	7
564.404	1	-6
564.574	1	6
564.744	1	3
564.914	1	1
565.084	1	0
565.254	1	11
565.424	1	8
565.594	1	5
565.764	1	-2
565.934	1	6
566.104	1	-3
566.274	1	2
566.444	1	3
566.614	1	-1
566.783	1	-11
566.953	1	8
567.123	1	-2
567.293	1	19
567.463	1	-2
567.633	1	2
567.803	1	-8
567.973	1	-2
568.143	1	-1
568.313	1	7
568.483	1	10
568.653	1	-2
568.823	1	2
568.993	1	1
569.162	1	10
569.332	1	1
569.502	1	0
569.672	1	-3
569.842	1	11
570.012	1	0
570.182	1	-12
570.352	1	-5
570.522	1	-16
570.692	1	-6
570.862	1	-5
571.031	1	1
571.201	1	13
571.371	1	-5
571.541	1	12
571.711	1	9
571.881	1	13
572.051	1	-1
572.221	1	-4
572.391	1	-8
572.561	1	7
572.731	1	6
572.900	1	-6
573.070	1	-3
573.240	1	1
573.410	1	7
573.580	1	-3
573.750	1	0
573.920	1	-3
574.090	1	2
574.260	1	12
574.430	1	1
574.599	1	9
574.769	1	-7
574.939	1	2
575.109	1	8
575.279	1	13
575.449	1	-10
575.619	1	0
575.789	1	-4
575.959	1	0
576.128	1	-8
576.298	1	1
576.468	1	5
576.638	1	-6
576.808	1	-1
576.978	1	8
577.148	1	0
577.318	1	2
577.487	1	-2
577.657	1	3
577.827	1	-8
577.997	1	-4
578.167	1	-2
578.337	1	13
578.507	1	2
578.677	1	3
578.846	1	0
579.016	1	5
579.186	1	4
579.356	1	-3
579.526	1	-5
579.696	1	3
579.866	1	3
580.036	1	0
580.205	1	2
580.375	1	2
580.545	1	-6
580.715	1	-8
580.885	1	2
581.055	1	3
581.225	1	4
581.394	1	-2
581.564	1	10
581.734	1	0
581.904	1	0
582.074	1	-2
582.244	1	4
582.414	1	7
582.583	1	5
582.753	1	-2
582.923	1	-4
583.093	1	-8
583.263	1	0
583.433	1	11
583.603	1	8
583.772	1	8
583.942	1	-3
584.112	1	-1
584.282	1	-7
584.452	1	6
584.622	1	0
584.791	1	1
584.961	1	11
585.131	1	2
585.301	1	-8
585.471	1	8
585.641	1	3
585.811	1	4
585.980	1	3
586.150	1	-2
586.320	1	6
586.490	1	-2
586.660	1	11
586.830	1	6
586.999	1	-1
587.169	1	0
587.339	1	-8
587.509	1	-3
587.679	1	5
587.849	1	4
588.018	1	2
588.188	1	19
588.358	1	7
588.528	1	12
588.698	1	12
588.867	1	2
589.037	1	5
589.207	1	4
589.377	1	6
589.547	1	-3
589.717	1	6
589.886	1	-13
590.056	1	2
590.226	1	7
590.396	1	13
590.566	1	-8
590.735	1	0
590.905	1	-1
591.075	1	8
591.245	1	4
591.415	1	5
591.585	1	10
591.754	1	9
591.924	1	1
592.094	1	1
592.264	1	4
592.434	1	4
592.603	1	-1
592.773	1	-1
592.943	1	-1
593.113	1	-2
593.283	1	0
593.452	1	1
593.622	1	-4
593.792	1	9
593.962	1	5
594.132	1	2
594.301	1	9
594.471	1	19
594.641	1	-1
594.811	1	-4
594.981	1	-6
595.150	1	0
595.320	1	4
595.490	1	3
595.660	1	-3
595.829	1	-4
595.999	1	-7
596.169	1	9
596.339	1	8
596.509	1	-2
596.678	1	-7
596.848	1	-9
597.018	1	1
597.188	1	1
597.358	1	6
597.527	1	-9
597.697	1	-6
597.867	1	-7
598.037	1	-5
598.206	1	6
598.376	1	5
598.546	1	2
598.716	1	12
598.885	1	-11
599.055	1	-2
599.225	1	-3
599.395	1	-1
599.565	1	-5
599.734	1	1
599.904	1	-6
600.074	1	7
600.244	1	-1
600.413	1	5
600.583	1	20
600.753	1	-1
600.923	1	-4
601.092	1	12
601.262	1	1
601.432	1	-3
601.602	1	9
601.771	1	0
601.941	1	-9
602.111	1	7
602.281	1	4
602.451	1	6
602.620	1	-1
602.790	1	-8
602.960	1	5
603.130	1	7
603.299	1	4
603.469	1	-11
603.639	1	-9
603.809	1	4
603.978	1	1
604.148	1	10
604.318	1	0
604.487	1	0
604.657	1	8
604.827	1	6
604.997	1	2
605.166	1	-4
605.336	1	5
605.506	1	1
605.676	1	-12
605.845	1	5
606.015	1	0
606.185	1	0
606.355	1	-5
606.524	1	-4
606.694	1	0
606.864	1	-1
607.034	1	-4
607.203	1	5
607.373	1	6
607.543	1	2
607.712	1	-3
607.882	1	2
608.052	1	-7
608.222	1	2
608.391	1	6
608.561	1	-8
608.731	1	5
608.901	1	-1
609.070	1	12
609.240	1	-9
609.410	1	2
609.579	1	5
609.749	1	5
609.919	1	5
610.089	1	-6
610.258	1	7
610.428	1	-2
610.598	1	0
610.767	1	0
610.937	1	-1
611.107	1	-6
611.277	1	2
611.446	1	-1
611.616	1	-3
611.786	1	13
611.955	1	3
612.125	1	7
612.295	1	3
612.465	1	3
612.634	1	-3
612.804	1	4
612.974	1	-10
613.143	1	-1
613.313	1	3
613.483	1	1
613.652	1	7
613.822	1	-3
613.992	1	-4
614.162	1	10
614.331	1	0
614.501	1	1
614.671	1	0
614.840	1	7
615.010	1	-9
615.180	1	0
615.349	1	2
615.519	1	-11
615.689	1	4
615.858	1	5
616.028	1	-9
616.198	1	0
616.368	1	6
616.537	1	-3
616.707	1	0
616.877	1	6
617.046	1	5
617.216	1	-2
617.386	1	-2
617.555	1	5
617.725	1	-7
617.895	1	-2
618.064	1	-8
618.234	1	2
618.404	1	7
618.573	1	9
618.743	1	15
618.913	1	15
619.082	1	1
619.252	1	-3
619.422	1	0
619.591	1	-7
619.761	1	0
619.931	1	6
620.100	1	10
620.270	1	-12
620.440	1	1
620.609	1	4
620.779	1	-2
620.949	1	8
621.118	1	-2
621.288	1	7
621.458	1	0
621.627	1	0
621.797	1	-1
621.967	1	-4
622.136	1	6
622.306	1	-5
622.476	1	11
622.645	1	6
622.815	1	8
622.985	1	2
623.154	1	2
623.324	1	-6
623.494	1	11
623.663	1	0
623.833	1	5
624.002	1	-10
624.172	1	2
624.342	1	16
624.511	1	2
624.681	1	3
624.851	1	-7
625.020	1	1
625.190	1	0
625.360	1	-4
625.529	1	8
625.699	1	-11
625.869	1	11
626.038	1	-3
626.208	1	5
626.377	1	2
626.547	1	-4
626.717	1	0
626.886	1	5
627.056	1	-5
627.226	1	3
627.395	1	7
627.565	1	3
627.735	1	12
627.904	1	2
628.074	1	0
628.243	1	8
628.413	1	0
628.583	1	-4
628.752	1	-8
628.922	1	-1
629.091	1	0
629.261	1	4
629.431	1	-1
629.600	1	14
629.770	1	-5
629.940	1	-1
630.109	1	-10
630.279	1	-7
630.448	1	8
630.618	1	4
630.788	1	8
630.957	1	2
631.127	1	10
631.297	1	6
631.466	1	1
631.636	1	-8
631.805	1	4
631.975	1	18
632.145	1	3
632.314	1	-3
632.484	1	-2
632.653	1	0
632.823	1	1
632.993	1	-5
633.162	1	5
633.332	1	4
633.501	1	-4
633.671	1	3
633.841	1	-6
634.010	1	-2
634.180	1	2
634.349	1	11
634.519	1	1
634.689	1	5
634.858	1	-1
635.028	1	8
635.197	1	4
635.367	1	7
635.537	1	-1
635.706	1	6
635.876	1	-1
636.045	1	6
636.215	1	4
636.384	1	0
636.554	1	12
636.724	1	-1
636.893	1	0
637.063	1	-1
637.232	1	-1
637.402	1	-2
637.572	1	1
637.741	1	-1
637.911	1	7
638.080	1	5
638.250	1	-2
638.419	1	-2
638.589	1	1
638.759	1	-14
638.928	1	2
639.098	1	13
639.267	1	2
639.437	1	6
639.606	1	6
639.776	1	6
639.946	1	-4
640.115	1	-2
640.285	1	12
640.454	1	-2
640.624	1	2
640.793	1	7
640.963	1	-3
641.132	1	10
641.302	1	2
641.472	1	10
641.641	1	-8
641.811	1	-2
641.980	1	7
642.150	1	-1
642.319	1	-11
642.489	1	13
642.659	1	10
642.828	1	-7
642.998	1	2
643.167	1	-7
643.337	1	-2
643.506	1	-6
643.676	1	2
643.845	1	2
644.015	1	3
644.184	1	6
644.354	1	2
644.524	1	-1
644.693	1	-1
644.863	1	-13
645.032	1	3
645.202	1	5
645.371	1	11
645.541	1	4
645.710	1	1
645.880	1	0
646.049	1	-14
646.219	1	2
646.388	1	-8
646.558	1	-8
646.728	1	3
646.897	1	-3
647.067	1	6
647.236	1	2
647.406	1	-1
647.575	1	9
647.745	1	6
647.914	1	-3
648.084	1	2
648.253	1	19
648.423	1	-4
648.592	1	-7
648.762	1	8
648.931	1	10
649.101	1	-1
649.270	1	10
649.440	1	-5
649.610	1	-2
649.779	1	7
649.949	1	0
650.118	1	6
650.288	1	5
650.457	1	12
650.627	1	-2
650.796	1	3
650.966	1	5
651.135	1	-2
651.305	1	-2
651.474	1	5
651.644	1	11
651.813	1	3
651.983	1	3
652.152	1	5
652.322	1	-2
652.491	1	-8
652.661	1	-6
652.830	1	8
653.000	1	9
653.169	1	4
653.339	1	8
653.508	1	-2
653.678	1	1
653.847	1	10
654.017	1	3
654.186	1	-2
654.356	1	-8
654.525	1	1
654.695	1	3
654.864	1	4
655.034	1	1
655.203	1	-3
655.373	1	9
655.542	1	-2
655.712	1	9
655.881	1	-9
656.051	1	1
656.220	1	-11
656.390	1	2
656.559	1	2
656.729	1	10
656.898	1	-5
657.068	1	11
657.237	1	1
657.406	1	6
657.576	1	4
657.745	1	1
657.915	1	-8
658.084	1	-7
658.254	1	-2
658.423	1	7
658.593	1	9
658.762	1	-5
658.932	1	-1
659.101	1	6
659.271	1	0
659.440	1	5
659.610	1	-11
659.779	1	5
659.949	1	-3
660.118	1	11
660.288	1	3
660.457	1	2
660.626	1	10
660.796	1	-4
660.965	1	11
661.135	1	-3
661.304	1	0
661.474	1	-8
661.643	1	3
661.813	1	14
661.982	1	7
662.152	1	-3
662.321	1	7
662.491	1	5
662.660	1	2
662.829	1	-10
662.999	1	1
663.168	1	0
663.338	1	3
663.507	1	12
663.677	1	0
663.846	1	0
664.016	1	1
664.185	1	3
664.354	1	7
664.524	1	3
664.693	1	15
664.863	1	-5
665.032	1	-7
665.202	1	12
665.371	1	0
665.541	1	-6
665.710	1	7
665.879	1	-2
666.049	1	5
666.218	1	-10
666.388	1	7
666.557	1	1
666.727	1	-2
666.896	1	-2
667.065	1	2
667.235	1	3
667.404	1	3
667.574	1	1
667.743	1	-4
667.913	1	2
668.082	1	2
668.251	1	-5
668.421	1	5
668.590	1	8
668.760	1	8
668.929	1	-5
669.099	1	4
669.268	1	2
669.437	1	2
669.607	1	0
669.776	1	-5
669.946	1	-8
670.115	1	1
670.285	1	10
670.454	1	4
670.623	1	1
670.793	1	0
670.962	1	3
671.132	1	9
671.301	1	-4
671.470	1	2
671.640	1	6
671.809	1	-6
671.979	1	-2
672.148	1	11
672.317	1	6
672.487	1	4
672.656	1	-1
672.826	1	0
672.995	1	8
673.164	1	4
673.334	1	-1
673.503	1	-2
673.673	1	5
673.842	1	10
674.011	1	3
674.181	1	11
674.350	1	2
674.520	1	-1
674.689	1	-6
674.858	1	3
675.028	1	5
675.197	1	-14
675.367	1	5
675.536	1	1
675.705	1	5
675.875	1	-4
676.044	1	4
676.214	1	1
676.383	1	6
676.552	1	1
676.722	1	9
676.891	1	13
677.060	1	-6
677.230	1	4
677.399	1	-8
677.569	1	2
677.738	1	7
677.907	1	4
678.077	1	3
678.246	1	4
678.416	1	1
678.585	1	3
678.754	1	-7
678.924	1	0
679.093	1	2
679.262	1	-2
679.432	1	-1
679.601	1	-2
679.771	1	2
679.940	1	6
680.109	1	10
680.279	1	-2
680.448	1	4
680.617	1	4
680.787	1	-1
680.956	1	6
681.125	1	0
681.295	1	3
681.464	1	4
681.634	1	12
681.803	1	-2
681.972	1	-11
682.142	1	13
682.311	1	2
682.480	1	12
682.650	1	3
682.819	1	8
682.988	1	-1
683.158	1	5
683.327	1	6
683.496	1	7
683.666	1	-8
683.835	1	1
684.004	1	2
684.174	1	9
684.343	1	-3
684.512	1	2
684.682	1	-9
684.851	1	8
685.021	1	4
685.190	1	1
685.359	1	6
685.529	1	4
685.698	1	-1
685.867	1	4
686.037	1	-7
686.206	1	0
686.375	1	11
686.545	1	-4
686.714	1	-4
686.883	1	2
687.053	1	5
687.222	1	15
687.391	1	4
687.561	1	4
687.730	1	0
687.899	1	-1
688.069	1	8
688.238	1	9
688.407	1	-8
688.577	1	-3
688.746	1	-9
