340.368	1	8
340.539	1	-15
340.710	1	-9
340.881	1	-9
341.052	1	11
341.223	1	-6
341.394	1	-8
341.565	1	-3
341.737	1	9
341.908	1	10
342.079	1	-10
342.250	1	-7
342.421	1	3
342.592	1	5
342.763	1	3
342.934	1	-2
343.105	1	4
343.276	1	2
343.447	1	-8
343.618	1	1
343.789	1	-3
343.960	1	10
344.131	1	-2
344.302	1	4
344.473	1	-3
344.644	1	1
344.815	1	3
344.986	1	1
345.157	1	-14
345.328	1	10
345.499	1	-1
345.670	1	-5
345.841	1	0
346.012	1	6
346.183	1	-3
346.354	1	0
346.526	1	-5
346.697	1	5
346.868	1	0
347.039	1	4
347.210	1	-8
347.381	1	7
347.552	1	-1
347.723	1	-4
347.894	1	-1
348.065	1	-4
348.236	1	2
348.407	1	-2
348.578	1	3
348.749	1	-8
348.920	1	-1
349.091	1	-5
349.262	1	-6
349.433	1	-4
349.604	1	5
349.775	1	7
349.946	1	-3
350.117	1	0
350.288	1	7
350.459	1	-3
350.630	1	8
350.801	1	-2
350.972	1	0
351.143	1	3
351.314	1	0
351.485	1	2
351.656	1	4
351.827	1	8
351.998	1	4
352.169	1	0
352.340	1	1
352.511	1	-2
352.682	1	4
352.853	1	4
353.024	1	10
353.195	1	4
353.366	1	19
353.537	1	-1
353.708	1	1
353.879	1	5
354.050	1	-7
354.221	1	2
354.392	1	-7
354.563	1	0
354.734	1	4
354.905	1	15
355.076	1	7
355.247	1	6
355.418	1	-8
355.589	1	-6
355.760	1	0
355.931	1	-3
356.102	1	5
356.273	1	-3
356.444	1	4
356.615	1	-1
356.785	1	9
356.956	1	11
357.127	1	3
357.298	1	4
357.469	1	9
357.640	1	-3
357.811	1	4
357.982	1	7
358.153	1	5
358.324	1	0
358.495	1	3
358.666	1	-1
358.837	1	-2
359.008	1	-6
359.179	1	4
359.350	1	-13
359.521	1	6
359.692	1	9
359.863	1	8
360.034	1	6
360.205	1	-3
360.376	1	-1
360.547	1	5
360.718	1	8
360.889	1	2
361.060	1	1
361.231	1	10
361.401	1	5
361.572	1	7
361.743	1	-7
361.914	1	14
362.085	1	14
362.256	1	8
362.427	1	15
362.598	1	-3
362.769	1	-2
362.940	1	3
363.111	1	8
363.282	1	3
363.453	1	4
363.624	1	20
363.795	1	9
363.966	1	1
364.137	1	19
364.308	1	9
364.478	1	12
364.649	1	18
364.820	1	3
364.991	1	10
365.162	1	18
365.333	1	8
365.504	1	15
365.675	1	6
365.846	1	17
366.017	1	11
366.188	1	20
366.359	1	7
366.530	1	25
366.701	1	14
366.871	1	20
367.042	1	19
367.213	1	20
367.384	1	33
367.555	1	3
367.726	1	15
367.897	1	22
368.068	1	16
368.239	1	23
368.410	1	27
368.581	1	17
368.752	1	17
368.923	1	12
369.093	1	19
369.264	1	26
369.435	1	26
369.606	1	18
369.777	1	23
369.948	1	34
370.119	1	17
370.290	1	27
370.461	1	31
370.632	1	15
370.803	1	24
370.973	1	14
371.144	1	17
371.315	1	23
371.486	1	22
371.657	1	17
371.828	1	27
371.999	1	17
372.170	1	25
372.341	1	30
372.512	1	7
372.682	1	24
372.853	1	15
373.024	1	9
373.195	1	16
373.366	1	15
373.537	1	16
373.708	1	20
373.879	1	17
374.050	1	4
374.220	1	32
374.391	1	2
374.562	1	25
374.733	1	6
374.904	1	17
375.075	1	10
375.246	1	17
375.417	1	11
375.588	1	14
375.758	1	12
375.929	1	20
376.100	1	17
376.271	1	18
376.442	1	14
376.613	1	1
376.784	1	7
376.955	1	9
377.125	1	17
377.296	1	2
377.467	1	12
377.638	1	12
377.809	1	6
377.980	1	16
378.151	1	11
378.321	1	8
378.492	1	13
378.663	1	3
378.834	1	1
379.005	1	10
379.176	1	4
379.347	1	5
379.518	1	8
379.688	1	11
379.859	1	-1
380.030	1	-2
380.201	1	3
380.372	1	-4
380.543	1	12
380.714	1	11
380.884	1	10
381.055	1	8
381.226	1	3
381.397	1	6
381.568	1	6
381.739	1	15
381.910	1	9
382.080	1	2
382.251	1	-1
382.422	1	8
382.593	1	-1
382.764	1	0
382.935	1	3
383.105	1	1
383.276	1	17
383.447	1	-1
383.618	1	13
383.789	1	-2
383.960	1	-8
384.130	1	3
384.301	1	-3
384.472	1	-8
384.643	1	12
384.814	1	8
384.985	1	1
385.156	1	-3
385.326	1	9
385.497	1	4
385.668	1	3
385.839	1	1
386.010	1	-1
386.180	1	16
386.351	1	3
386.522	1	12
386.693	1	-9
386.864	1	7
387.035	1	-1
387.205	1	-3
387.376	1	8
387.547	1	-9
387.718	1	6
387.889	1	2
388.060	1	11
388.230	1	5
388.401	1	-3
388.572	1	3
388.743	1	2
388.914	1	9
389.084	1	3
389.255	1	-5
389.426	1	0
389.597	1	9
389.768	1	4
389.939	1	-1
390.109	1	1
390.280	1	10
390.451	1	1
390.622	1	-9
390.793	1	-4
390.963	1	6
391.134	1	13
391.305	1	7
391.476	1	-4
391.647	1	1
391.817	1	11
391.988	1	5
392.159	1	-3
392.330	1	14
392.501	1	7
392.671	1	-7
392.842	1	5
393.013	1	4
393.184	1	4
393.355	1	12
393.525	1	-6
393.696	1	5
393.867	1	3
394.038	1	2
394.208	1	-4
394.379	1	1
394.550	1	10
394.721	1	0
394.892	1	5
395.062	1	6
395.233	1	5
395.404	1	4
395.575	1	8
395.746	1	2
395.916	1	-3
396.087	1	-7
396.258	1	4
396.429	1	6
396.599	1	3
396.770	1	-3
396.941	1	-4
397.112	1	10
397.283	1	7
397.453	1	9
397.624	1	-1
397.795	1	5
397.966	1	4
398.136	1	-6
398.307	1	0
398.478	1	7
398.649	1	2
398.819	1	5
398.990	1	6
399.161	1	5
399.332	1	3
399.503	1	2
399.673	1	6
399.844	1	-3
400.015	1	3
400.186	1	-2
400.356	1	-5
400.527	1	0
400.698	1	1
400.869	1	-1
401.039	1	0
401.210	1	4
401.381	1	-5
401.552	1	3
401.722	1	-1
401.893	1	-2
402.064	1	4
402.235	1	-3
402.405	1	1
402.576	1	-1
402.747	1	2
402.918	1	12
403.088	1	7
403.259	1	-1
403.430	1	-9
403.601	1	5
403.771	1	6
403.942	1	11
404.113	1	-7
404.284	1	6
404.454	1	-2
404.625	1	4
404.796	1	7
404.967	1	6
405.137	1	11
405.308	1	0
405.479	1	2
405.649	1	-4
405.820	1	-7
405.991	1	-1
406.162	1	4
406.332	1	7
406.503	1	4
406.674	1	2
406.845	1	2
407.015	1	13
407.186	1	0
407.357	1	2
407.527	1	-10
407.698	1	14
407.869	1	6
408.040	1	-8
408.210	1	-1
408.381	1	4
408.552	1	-1
408.722	1	-19
408.893	1	0
409.064	1	9
409.235	1	5
409.405	1	1
409.576	1	1
409.747	1	1
409.917	1	-9
410.088	1	-6
410.259	1	3
410.430	1	13
410.600	1	-11
410.771	1	5
410.942	1	13
411.112	1	-5
411.283	1	6
411.454	1	-3
411.625	1	0
411.795	1	2
411.966	1	6
412.137	1	3
412.307	1	3
412.478	1	7
412.649	1	5
412.819	1	0
412.990	1	-4
413.161	1	-7
413.332	1	6
413.502	1	2
413.673	1	1
413.844	1	6
414.014	1	-3
414.185	1	8
414.356	1	1
414.526	1	1
414.697	1	3
414.868	1	3
415.038	1	13
415.209	1	-6
415.380	1	-4
415.550	1	-4
415.721	1	6
415.892	1	-1
416.063	1	-4
416.233	1	6
416.404	1	-6
416.575	1	17
416.745	1	-6
416.916	1	-4
417.087	1	9
417.257	1	2
417.428	1	-3
417.599	1	6
417.769	1	11
417.940	1	13
418.111	1	-5
418.281	1	0
418.452	1	-18
418.623	1	-4
418.793	1	-5
418.964	1	-15
419.135	1	-6
419.305	1	4
419.476	1	3
419.647	1	-1
419.817	1	5
419.988	1	0
420.159	1	5
420.329	1	-4
420.500	1	-2
420.671	1	6
420.841	1	12
421.012	1	1
421.183	1	-3
421.353	1	4
421.524	1	-7
421.695	1	4
421.865	1	2
422.036	1	6
422.206	1	5
422.377	1	-5
422.548	1	-8
422.718	1	0
422.889	1	-8
423.060	1	-8
423.230	1	2
423.401	1	1
423.572	1	-8
423.742	1	4
423.913	1	-1
424.084	1	-2
424.254	1	2
424.425	1	9
424.595	1	-3
424.766	1	3
424.937	1	-2
425.107	1	-6
425.278	1	10
425.449	1	0
425.619	1	7
425.790	1	-11
425.961	1	-1
426.131	1	-1
426.302	1	-1
426.472	1	2
426.643	1	2
426.814	1	-3
426.984	1	1
427.155	1	-3
427.326	1	8
427.496	1	2
427.667	1	7
427.837	1	-2
428.008	1	8
428.179	1	-9
428.349	1	-7
428.520	1	0
428.691	1	11
428.861	1	-4
429.032	1	12
429.202	1	4
429.373	1	6
429.544	1	1
429.714	1	-5
429.885	1	3
430.055	1	2
430.226	1	-5
430.397	1	-5
430.567	1	8
430.738	1	-1
430.909	1	-1
431.079	1	1
431.250	1	-3
431.420	1	-8
431.591	1	3
431.762	1	10
431.932	1	-1
432.103	1	-3
432.273	1	3
432.444	1	11
432.615	1	-9
432.785	1	-5
432.956	1	-8
433.126	1	1
433.297	1	-1
433.468	1	-8
433.638	1	-1
433.809	1	5
433.979	1	1
434.150	1	5
434.320	1	3
434.491	1	1
434.662	1	-6
434.832	1	4
435.003	1	10
435.173	1	-5
435.344	1	8
435.515	1	0
435.685	1	-1
435.856	1	8
436.026	1	8
436.197	1	-6
436.368	1	-3
436.538	1	-16
436.709	1	-1
436.879	1	-4
437.050	1	-5
437.220	1	2
437.391	1	13
437.562	1	-2
437.732	1	-12
437.903	1	-2
438.073	1	1
438.244	1	2
438.414	1	-12
438.585	1	-3
438.756	1	-4
438.926	1	2
439.097	1	-10
439.267	1	2
439.438	1	-6
439.608	1	-5
439.779	1	4
439.949	1	4
440.120	1	1
440.291	1	0
440.461	1	-1
440.632	1	0
440.802	1	1
440.973	1	-1
441.143	1	9
441.314	1	-5
441.485	1	-2
441.655	1	6
441.826	1	-1
441.996	1	-4
442.167	1	0
442.337	1	6
442.508	1	6
442.678	1	-4
442.849	1	7
443.019	1	5
443.190	1	-1
443.361	1	2
443.531	1	8
443.702	1	-1
443.872	1	8
444.043	1	2
444.213	1	3
444.384	1	-15
444.554	1	8
444.725	1	-11
444.895	1	1
445.066	1	-3
445.237	1	-4
445.407	1	8
445.578	1	-12
445.748	1	0
445.919	1	-4
446.089	1	0
446.260	1	1
446.430	1	-5
446.601	1	-5
446.771	1	8
446.942	1	5
447.112	1	1
447.283	1	-9
447.453	1	-1
447.624	1	-5
447.794	1	-2
447.965	1	6
448.135	1	-2
448.306	1	-5
448.477	1	-7
448.647	1	-12
448.818	1	-6
448.988	1	-12
449.159	1	-4
449.329	1	-5
449.500	1	-3
449.670	1	6
449.841	1	12
450.011	1	4
450.182	1	-10
450.352	1	-4
450.523	1	-12
450.693	1	-1
450.864	1	0
451.034	1	-3
451.205	1	7
451.375	1	-3
451.546	1	-2
451.716	1	6
451.887	1	-9
452.057	1	-4
452.228	1	-3
452.398	1	2
452.569	1	2
452.739	1	-4
452.910	1	-3
453.080	1	-1
453.251	1	11
453.421	1	1
453.592	1	0
453.762	1	1
453.933	1	-9
454.103	1	-2
454.274	1	0
454.444	1	-8
454.615	1	9
454.785	1	-6
454.956	1	-5
455.126	1	-5
455.297	1	5
455.467	1	2
455.638	1	0
455.808	1	-2
455.979	1	-3
456.149	1	4
456.320	1	2
456.490	1	-5
456.661	1	2
456.831	1	0
457.001	1	-2
457.172	1	3
457.342	1	-1
457.513	1	-1
457.683	1	7
457.854	1	2
458.024	1	-1
458.195	1	-2
458.365	1	-9
458.536	1	11
458.706	1	-4
458.877	1	-2
459.047	1	9
459.218	1	-2
459.388	1	0
459.559	1	3
459.729	1	11
459.899	1	6
460.070	1	3
460.240	1	2
460.411	1	-12
460.581	1	12
460.752	1	4
460.922	1	9
461.093	1	1
461.263	1	-4
461.434	1	-1
461.604	1	-1
461.775	1	-6
461.945	1	1
462.115	1	3
462.286	1	0
462.456	1	-13
462.627	1	1
462.797	1	2
462.968	1	9
463.138	1	-5
463.309	1	-5
463.479	1	-2
463.649	1	6
463.820	1	-11
463.990	1	-10
464.161	1	-5
464.331	1	-5
464.502	1	4
464.672	1	-1
464.843	1	0
465.013	1	-1
465.183	1	-1
465.354	1	6
465.524	1	1
465.695	1	-4
465.865	1	-2
466.036	1	-5
466.206	1	11
466.376	1	-7
466.547	1	-1
466.717	1	0
466.888	1	8
467.058	1	3
467.229	1	-7
467.399	1	4
467.569	1	7
467.740	1	-3
467.910	1	-4
468.081	1	4
468.251	1	2
468.422	1	-6
468.592	1	-1
468.762	1	-9
468.933	1	-11
469.103	1	-5
469.274	1	-1
469.444	1	-4
469.614	1	-1
469.785	1	-16
469.955	1	-10
470.126	1	-6
470.296	1	-2
470.467	1	0
470.637	1	10
470.807	1	-4
470.978	1	3
471.148	1	6
471.319	1	-3
471.489	1	-3
471.659	1	-8
471.830	1	7
472.000	1	6
472.171	1	3
472.341	1	2
472.511	1	-4
472.682	1	6
472.852	1	1
473.023	1	1
473.193	1	1
473.363	1	0
473.534	1	8
473.704	1	0
473.875	1	6
474.045	1	-1
474.215	1	5
474.386	1	17
474.556	1	2
474.727	1	-10
474.897	1	1
475.067	1	-3
475.238	1	3
475.408	1	-3
475.578	1	-3
475.749	1	-8
475.919	1	-9
476.090	1	4
476.260	1	0
476.430	1	6
476.601	1	0
476.771	1	1
476.942	1	7
477.112	1	-1
477.282	1	-9
477.453	1	0
477.623	1	-9
477.793	1	-2
477.964	1	0
478.134	1	-7
478.305	1	0
478.475	1	-3
478.645	1	6
478.816	1	-2
478.986	1	4
479.156	1	4
479.327	1	-9
479.497	1	-2
479.667	1	3
479.838	1	6
480.008	1	-4
480.179	1	8
480.349	1	1
480.519	1	-3
480.690	1	4
480.860	1	-5
481.030	1	-7
481.201	1	-2
481.371	1	5
481.541	1	-1
481.712	1	-5
481.882	1	3
482.053	1	5
482.223	1	1
482.393	1	-5
482.564	1	1
482.734	1	-5
482.904	1	-2
483.075	1	-5
483.245	1	0
483.415	1	-5
483.586	1	-2
483.756	1	4
483.926	1	-5
484.097	1	2
484.267	1	-9
484.437	1	4
484.608	1	7
484.778	1	12
484.948	1	-10
485.119	1	-12
485.289	1	-2
485.459	1	14
485.630	1	-2
485.800	1	-2
485.970	1	-4
486.141	1	-1
486.311	1	3
486.481	1	-3
486.652	1	6
486.822	1	8
486.992	1	3
487.163	1	-2
487.333	1	-1
487.503	1	-4
487.674	1	4
487.844	1	-5
488.014	1	0
488.185	1	-1
488.355	1	-2
488.525	1	0
488.696	1	-2
488.866	1	5
489.036	1	8
489.207	1	-5
489.377	1	-6
489.547	1	0
489.718	1	0
489.888	1	-6
490.058	1	-7
490.228	1	3
490.399	1	1
490.569	1	10
490.739	1	0
490.910	1	0
491.080	1	5
491.250	1	-11
491.421	1	-13
491.591	1	4
491.761	1	3
491.932	1	-1
492.102	1	-3
492.272	1	-1
492.442	1	6
492.613	1	-9
492.783	1	-1
492.953	1	3
493.124	1	1
493.294	1	-10
493.464	1	13
493.635	1	3
493.805	1	-3
493.975	1	0
494.145	1	-1
494.316	1	5
494.486	1	2
494.656	1	-6
494.827	1	11
494.997	1	-2
495.167	1	1
495.337	1	1
495.508	1	1
495.678	1	8
495.848	1	10
496.019	1	0
496.189	1	6
496.359	1	-10
496.529	1	-5
496.700	1	5
496.870	1	-8
497.040	1	-1
497.211	1	1
497.381	1	-10
497.551	1	5
497.721	1	-1
497.892	1	0
498.062	1	-4
498.232	1	-3
498.403	1	1
498.573	1	-3
498.743	1	-3
498.913	1	10
499.084	1	2
499.254	1	6
499.424	1	2
499.594	1	8
499.765	1	-9
499.935	1	-2
500.105	1	-1
500.275	1	0
500.446	1	-10
500.616	1	-9
500.786	1	-2
500.956	1	3
501.127	1	3
501.297	1	-8
501.467	1	-8
501.638	1	-11
501.808	1	-1
501.978	1	6
502.148	1	8
502.319	1	1
502.489	1	9
502.659	1	-2
502.829	1	-2
503.000	1	-5
503.170	1	8
503.340	1	16
503.510	1	1
503.681	1	-2
503.851	1	-4
504.021	1	6
504.191	1	0
504.362	1	-6
504.532	1	12
504.702	1	-2
504.872	1	1
505.042	1	1
505.213	1	11
505.383	1	-2
505.553	1	-14
505.723	1	3
505.894	1	-2
506.064	1	5
506.234	1	1
506.404	1	-3
506.575	1	7
506.745	1	10
506.915	1	1
507.085	1	2
507.256	1	-1
507.426	1	0
507.596	1	9
507.766	1	8
507.936	1	-3
508.107	1	9
508.277	1	4
508.447	1	5
508.617	1	6
508.788	1	20
508.958	1	-9
509.128	1	1
509.298	1	7
509.468	1	-3
509.639	1	-8
509.809	1	-2
509.979	1	-6
510.149	1	3
510.319	1	2
510.490	1	13
510.660	1	1
510.830	1	5
511.000	1	-2
511.171	1	-3
511.341	1	2
511.511	1	2
511.681	1	10
511.851	1	-7
512.022	1	-8
512.192	1	-1
512.362	1	1
512.532	1	-5
512.702	1	-5
512.873	1	0
513.043	1	9
513.213	1	-4
513.383	1	-3
513.553	1	-4
513.724	1	-3
513.894	1	-6
514.064	1	3
514.234	1	-7
514.404	1	-9
514.575	1	2
514.745	1	-10
514.915	1	-1
515.085	1	-4
515.255	1	-1
515.425	1	-7
515.596	1	2
515.766	1	-6
515.936	1	3
516.106	1	9
516.276	1	-6
516.447	1	14
516.617	1	7
516.787	1	7
516.957	1	3
517.127	1	3
517.297	1	-1
517.468	1	2
517.638	1	-1
517.808	1	3
517.978	1	8
518.148	1	-1
518.319	1	-4
518.489	1	1
518.659	1	0
518.829	1	4
518.999	1	0
519.169	1	-2
519.340	1	9
519.510	1	-5
519.680	1	15
519.850	1	8
520.020	1	4
520.190	1	-2
520.361	1	0
520.531	1	0
520.701	1	7
520.871	1	2
521.041	1	12
521.211	1	-14
521.382	1	-1
521.552	1	8
521.722	1	-1
521.892	1	6
522.062	1	3
522.232	1	-1
522.402	1	3
522.573	1	1
522.743	1	-3
522.913	1	1
523.083	1	-4
523.253	1	-4
523.423	1	9
523.593	1	1
523.764	1	-3
523.934	1	-2
524.104	1	3
524.274	1	2
524.444	1	11
524.614	1	-3
524.784	1	2
524.955	1	-4
525.125	1	6
525.295	1	6
525.465	1	10
525.635	1	-7
525.805	1	-7
525.975	1	-5
526.146	1	3
526.316	1	14
526.486	1	1
526.656	1	3
526.826	1	-4
526.996	1	5
527.166	1	-1
527.337	1	-6
527.507	1	5
527.677	1	5
527.847	1	-1
528.017	1	-4
528.187	1	-4
528.357	1	0
528.527	1	1
528.698	1	-3
528.868	1	3
529.038	1	7
529.208	1	-2
529.378	1	10
529.548	1	-7
529.718	1	5
529.888	1	9
530.058	1	2
530.229	1	-1
530.399	1	4
530.569	1	-6
530.739	1	-1
530.909	1	-7
531.079	1	4
531.249	1	-5
531.419	1	3
531.589	1	5
531.760	1	4
531.930	1	2
532.100	1	2
532.270	1	-3
532.440	1	3
532.610	1	-5
532.780	1	-2
532.950	1	0
533.120	1	11
533.290	1	0
533.461	1	1
533.631	1	4
533.801	1	12
533.971	1	2
534.141	1	-10
534.311	1	6
534.481	1	-7
534.651	1	-4
534.821	1	5
534.991	1	-6
535.162	1	9
535.332	1	-3
535.502	1	-6
535.672	1	12
535.842	1	6
536.012	1	9
536.182	1	1
536.352	1	1
536.522	1	-1
536.692	1	8
536.862	1	1
537.032	1	4
537.203	1	-2
537.373	1	-1
537.543	1	-2
537.713	1	4
537.883	1	-3
538.053	1	2
538.223	1	-1
538.393	1	17
538.563	1	5
538.733	1	6
538.903	1	-4
539.073	1	7
539.243	1	0
539.413	1	0
539.584	1	0
539.754	1	-1
539.924	1	3
540.094	1	-3
540.264	1	-3
540.434	1	7
540.604	1	3
540.774	1	18
540.944	1	-10
541.114	1	1
541.284	1	2
541.454	1	-5
541.624	1	10
541.794	1	1
541.964	1	10
542.134	1	-3
542.305	1	11
542.475	1	10
542.645	1	4
542.815	1	-3
542.985	1	7
543.155	1	0
543.325	1	2
543.495	1	-3
543.665	1	15
543.835	1	7
544.005	1	13
544.175	1	-6
544.345	1	7
544.515	1	-6
544.685	1	-7
544.855	1	1
545.025	1	3
545.195	1	3
545.365	1	1
545.535	1	7
545.705	1	-5
545.875	1	-8
546.045	1	0
546.216	1	5
546.386	1	3
546.556	1	-7
546.726	1	-10
546.896	1	3
547.066	1	-2
547.236	1	3
547.406	1	13
547.576	1	10
547.746	1	-12
547.916	1	-7
548.086	1	1
548.256	1	-1
548.426	1	-2
548.596	1	4
548.766	1	5
548.936	1	7
549.106	1	1
549.276	1	-4
549.446	1	1
549.616	1	0
549.786	1	0
549.956	1	9
550.126	1	9
550.296	1	-2
550.466	1	3
550.636	1	12
550.806	1	8
550.976	1	6
551.146	1	-6
551.316	1	0
551.486	1	1
551.656	1	5
551.826	1	2
551.996	1	13
552.166	1	0
552.336	1	3
552.506	1	9
552.676	1	11
552.846	1	7
553.016	1	6
553.186	1	6
553.356	1	3
553.526	1	0
553.696	1	6
553.866	1	0
554.036	1	-3
554.206	1	7
554.376	1	9
554.546	1	3
554.716	1	-3
554.886	1	3
555.056	1	12
555.226	1	-1
555.396	1	-5
555.566	1	4
555.736	1	12
555.906	1	4
556.076	1	2
556.246	1	-1
556.416	1	-11
556.586	1	1
556.756	1	-4
556.926	1	2
557.096	1	2
557.266	1	-9
557.436	1	4
557.606	1	6
557.776	1	0
557.946	1	19
558.116	1	-8
558.286	1	-4
558.456	1	1
558.626	1	7
558.796	1	1
558.966	1	-2
559.136	1	7
559.306	1	-3
559.476	1	3
559.646	1	-3
559.816	1	-1
559.986	1	0
560.155	1	11
560.325	1	-3
560.495	1	7
560.665	1	-3
560.835	1	1
561.005	1	-4
561.175	1	14
561.345	1	-1
561.515	1	-5
561.685	1	7
561.855	1	-5
562.025	1	4
562.195	1	4
562.365	1	7
562.535	1	4
562.705	1	-3
562.875	1	3
563.045	1	-3
563.215	1	12
563.385	1	-4
563.555	1	-9
563.725	1	3
563.895	1	1
564.064	1	3
564.234	1	0
564.404	1	-2
564.574	1	5
564.744	1	3
564.914	1	5
565.084	1	-2
565.254	1	5
565.424	1	0
565.594	1	2
565.764	1	5
565.934	1	8
566.104	1	2
566.274	1	1
566.444	1	-6
566.614	1	-3
566.783	1	-10
566.953	1	16
567.123	1	12
567.293	1	21
567.463	1	-1
567.633	1	8
567.803	1	-3
567.973	1	-7
568.143	1	-5
568.313	1	9
568.483	1	10
568.653	1	-2
568.823	1	-1
568.993	1	5
569.162	1	6
569.332	1	2
569.502	1	-5
569.672	1	3
569.842	1	2
570.012	1	5
570.182	1	1
570.352	1	-2
570.522	1	-5
570.692	1	9
570.862	1	5
571.031	1	5
571.201	1	1
571.371	1	2
571.541	1	5
571.711	1	13
571.881	1	12
572.051	1	-5
572.221	1	-5
572.391	1	-1
572.561	1	-5
572.731	1	1
572.900	1	0
573.070	1	-2
573.240	1	-2
573.410	1	4
573.580	1	3
573.750	1	-6
573.920	1	5
574.090	1	0
574.260	1	8
574.430	1	1
574.599	1	6
574.769	1	-2
574.939	1	6
575.109	1	8
575.279	1	5
575.449	1	0
575.619	1	5
575.789	1	-6
575.959	1	-5
576.128	1	-9
576.298	1	10
576.468	1	1
576.638	1	5
576.808	1	4
576.978	1	12
577.148	1	7
577.318	1	4
577.487	1	2
577.657	1	-11
577.827	1	-3
577.997	1	-7
578.167	1	-3
578.337	1	13
578.507	1	5
578.677	1	1
578.846	1	11
579.016	1	16
579.186	1	4
579.356	1	-5
579.526	1	-5
579.696	1	2
579.866	1	2
580.036	1	6
580.205	1	3
580.375	1	7
580.545	1	-8
580.715	1	-7
580.885	1	3
581.055	1	2
581.225	1	0
581.394	1	7
581.564	1	5
581.734	1	-11
581.904	1	9
582.074	1	3
582.244	1	4
582.414	1	3
582.583	1	20
582.753	1	-6
582.923	1	-11
583.093	1	6
583.263	1	0
583.433	1	4
583.603	1	6
583.772	1	4
583.942	1	-3
584.112	1	-2
584.282	1	-7
584.452	1	13
584.622	1	-4
584.791	1	-1
584.961	1	1
585.131	1	7
585.301	1	-8
585.471	1	2
585.641	1	-2
585.811	1	-2
585.980	1	6
586.150	1	-6
586.320	1	-2
586.490	1	0
586.660	1	7
586.830	1	0
586.999	1	-2
587.169	1	5
587.339	1	8
587.509	1	0
587.679	1	6
587.849	1	5
588.018	1	3
588.188	1	7
588.358	1	-3
588.528	1	3
588.698	1	6
588.867	1	-1
589.037	1	5
589.207	1	-3
589.377	1	3
589.547	1	8
589.717	1	9
589.886	1	0
590.056	1	-1
590.226	1	3
590.396	1	2
590.566	1	2
590.735	1	-7
590.905	1	-11
591.075	1	4
591.245	1	0
591.415	1	4
591.585	1	4
591.754	1	6
591.924	1	-3
592.094	1	-8
592.264	1	4
592.434	1	1
592.603	1	8
592.773	1	-6
592.943	1	6
593.113	1	4
593.283	1	3
593.452	1	4
593.622	1	-4
593.792	1	4
593.962	1	2
594.132	1	-4
594.301	1	7
594.471	1	7
594.641	1	-1
594.811	1	4
594.981	1	-7
595.150	1	1
595.320	1	3
595.490	1	6
595.660	1	3
595.829	1	-12
595.999	1	-5
596.169	1	11
596.339	1	9
596.509	1	4
596.678	1	-8
596.848	1	-7
597.018	1	-5
597.188	1	2
597.358	1	7
597.527	1	-11
597.697	1	0
597.867	1	5
598.037	1	-3
598.206	1	2
598.376	1	-2
598.546	1	11
598.716	1	8
598.885	1	-9
599.055	1	7
599.225	1	-7
599.395	1	-2
599.565	1	-4
599.734	1	5
599.904	1	-3
600.074	1	4
600.244	1	-10
600.413	1	3
600.583	1	16
600.753	1	13
600.923	1	-1
601.092	1	10
601.262	1	-5
601.432	1	-5
601.602	1	6
601.771	1	4
601.941	1	-1
602.111	1	8
602.281	1	9
602.451	1	12
602.620	1	7
602.790	1	5
602.960	1	-2
603.130	1	7
603.299	1	3
603.469	1	6
603.639	1	-4
603.809	1	2
603.978	1	6
604.148	1	-3
604.318	1	1
604.487	1	4
604.657	1	-1
604.827	1	1
604.997	1	-5
605.166	1	7
605.336	1	6
605.506	1	2
605.676	1	-8
605.845	1	5
606.015	1	-1
606.185	1	4
606.355	1	4
606.524	1	-2
606.694	1	10
606.864	1	-1
607.034	1	0
607.203	1	4
607.373	1	4
607.543	1	-2
607.712	1	8
607.882	1	-3
608.052	1	7
608.222	1	3
608.391	1	11
608.561	1	5
608.731	1	-2
608.901	1	9
609.070	1	6
609.240	1	-8
609.410	1	5
609.579	1	3
609.749	1	1
609.919	1	8
610.089	1	-5
610.258	1	7
610.428	1	3
610.598	1	3
610.767	1	2
610.937	1	-1
611.107	1	-7
611.277	1	-4
611.446	1	7
611.616	1	8
611.786	1	8
611.955	1	1
612.125	1	-2
612.295	1	-6
612.465	1	11
612.634	1	-6
612.804	1	8
612.974	1	-5
613.143	1	9
613.313	1	10
613.483	1	5
613.652	1	8
613.822	1	1
613.992	1	2
614.162	1	11
614.331	1	3
614.501	1	2
614.671	1	5
614.840	1	-4
615.010	1	-3
615.180	1	-4
615.349	1	-1
615.519	1	-11
615.689	1	7
615.858	1	10
616.028	1	2
616.198	1	3
616.368	1	10
616.537	1	4
616.707	1	-4
616.877	1	5
617.046	1	-4
617.216	1	-3
617.386	1	-4
617.555	1	16
617.725	1	1
617.895	1	6
618.064	1	-5
618.234	1	-2
618.404	1	-3
618.573	1	0
618.743	1	2
618.913	1	11
619.082	1	7
619.252	1	-3
619.422	1	-5
619.591	1	0
619.761	1	5
619.931	1	7
620.100	1	1
620.270	1	-14
620.440	1	4
620.609	1	4
620.779	1	-3
620.949	1	-1
621.118	1	2
621.288	1	4
621.458	1	5
621.627	1	1
621.797	1	-3
621.967	1	0
622.136	1	15
622.306	1	0
622.476	1	-4
622.645	1	2
622.815	1	6
622.985	1	9
623.154	1	12
623.324	1	-2
623.494	1	9
623.663	1	8
623.833	1	-2
624.002	1	-12
624.172	1	-2
624.342	1	13
624.511	1	1
624.681	1	17
624.851	1	-6
625.020	1	-1
625.190	1	-5
625.360	1	2
625.529	1	1
625.699	1	-9
625.869	1	10
626.038	1	-9
626.208	1	-3
626.377	1	10
626.547	1	6
626.717	1	2
626.886	1	3
627.056	1	-8
627.226	1	8
627.395	1	-1
627.565	1	8
627.735	1	4
627.904	1	4
628.074	1	1
628.243	1	7
628.413	1	2
628.583	1	8
628.752	1	-3
628.922	1	6
629.091	1	-1
629.261	1	1
629.431	1	-6
629.600	1	8
629.770	1	-9
629.940	1	8
630.109	1	-11
630.279	1	-6
630.448	1	-2
630.618	1	2
630.788	1	14
630.957	1	5
631.127	1	9
631.297	1	3
631.466	1	-4
631.636	1	-12
631.805	1	-4
631.975	1	14
632.145	1	-1
632.314	1	-7
632.484	1	3
632.653	1	-6
632.823	1	0
632.993	1	-8
633.162	1	8
633.332	1	-4
633.501	1	-5
633.671	1	-2
633.841	1	-6
634.010	1	-13
634.180	1	0
634.349	1	5
634.519	1	-4
634.689	1	-3
634.858	1	1
635.028	1	10
635.197	1	7
635.367	1	3
635.537	1	-9
635.706	1	7
635.876	1	1
636.045	1	10
636.215	1	1
636.384	1	-1
636.554	1	7
636.724	1	7
636.893	1	-12
637.063	1	0
637.232	1	-9
637.402	1	8
637.572	1	8
637.741	1	6
637.911	1	6
638.080	1	2
638.250	1	3
638.419	1	0
638.589	1	-5
638.759	1	0
638.928	1	4
639.098	1	11
639.267	1	-1
639.437	1	2
639.606	1	-1
639.776	1	5
639.946	1	1
640.115	1	4
640.285	1	16
640.454	1	-11
640.624	1	1
640.793	1	12
640.963	1	-7
641.132	1	5
641.302	1	-12
641.472	1	12
641.641	1	-9
641.811	1	-2
641.980	1	0
642.150	1	-6
642.319	1	-2
642.489	1	11
642.659	1	4
642.828	1	-1
642.998	1	-6
643.167	1	-2
643.337	1	3
643.506	1	2
643.676	1	0
643.845	1	6
644.015	1	6
644.184	1	7
644.354	1	1
644.524	1	-3
644.693	1	-1
644.863	1	-3
645.032	1	2
645.202	1	3
645.371	1	1
645.541	1	0
645.710	1	4
645.880	1	2
646.049	1	1
646.219	1	7
646.388	1	2
646.558	1	6
646.728	1	-1
646.897	1	-3
647.067	1	6
647.236	1	1
647.406	1	-5
647.575	1	-1
647.745	1	1
647.914	1	0
648.084	1	-5
648.253	1	6
648.423	1	-5
648.592	1	-2
648.762	1	-5
648.931	1	14
649.101	1	-4
649.270	1	-3
649.440	1	-1
649.610	1	7
649.779	1	-4
649.949	1	-12
650.118	1	8
650.288	1	0
650.457	1	2
650.627	1	-2
650.796	1	1
650.966	1	6
651.135	1	-1
651.305	1	2
651.474	1	-1
651.644	1	15
651.813	1	1
651.983	1	0
652.152	1	1
652.322	1	-8
652.491	1	0
652.661	1	-5
652.830	1	5
653.000	1	-1
653.169	1	-5
653.339	1	8
653.508	1	-3
653.678	1	0
653.847	1	4
654.017	1	-5
654.186	1	-2
654.356	1	-4
654.525	1	-1
654.695	1	14
654.864	1	-2
655.034	1	1
655.203	1	-7
655.373	1	7
655.542	1	1
655.712	1	0
655.881	1	-2
656.051	1	-2
656.220	1	-9
656.390	1	-5
656.559	1	-8
656.729	1	8
656.898	1	-7
657.068	1	7
657.237	1	0
657.406	1	12
657.576	1	-2
657.745	1	-2
657.915	1	-6
658.084	1	1
658.254	1	-1
658.423	1	6
658.593	1	8
658.762	1	-11
658.932	1	4
659.101	1	-5
659.271	1	7
659.440	1	-3
659.610	1	-1
659.779	1	0
659.949	1	2
660.118	1	1
660.288	1	11
660.457	1	6
660.626	1	3
660.796	1	-6
660.965	1	3
661.135	1	-9
661.304	1	-1
661.474	1	-4
661.643	1	4
661.813	1	5
661.982	1	0
662.152	1	-1
662.321	1	4
662.491	1	-1
662.660	1	2
662.829	1	-5
662.999	1	-8
663.168	1	4
663.338	1	13
663.507	1	6
663.677	1	1
663.846	1	-7
664.016	1	-2
664.185	1	-3
664.354	1	11
664.524	1	1
664.693	1	13
664.863	1	2
665.032	1	-7
665.202	1	3
665.371	1	2
665.541	1	-11
665.710	1	1
665.879	1	-6
666.049	1	-3
666.218	1	1
666.388	1	8
666.557	1	-2
666.727	1	-3
666.896	1	0
667.065	1	12
667.235	1	3
667.404	1	6
667.574	1	-1
667.743	1	6
667.913	1	6
668.082	1	-1
668.251	1	-9
668.421	1	-5
668.590	1	-2
668.760	1	-3
668.929	1	-10
669.099	1	-2
669.268	1	2
669.437	1	4
669.607	1	2
669.776	1	-2
669.946	1	-2
670.115	1	4
670.285	1	6
670.454	1	4
670.623	1	-1
670.793	1	3
670.962	1	1
671.132	1	9
671.301	1	0
671.470	1	-5
671.640	1	7
671.809	1	-7
671.979	1	-1
672.148	1	-2
672.317	1	-1
672.487	1	-1
672.656	1	1
672.826	1	0
672.995	1	1
673.164	1	2
673.334	1	-4
673.503	1	-1
673.673	1	-2
673.842	1	-3
674.011	1	-5
674.181	1	3
674.350	1	1
674.520	1	-2
674.689	1	4
674.858	1	-5
675.028	1	-2
675.197	1	-4
675.367	1	9
675.536	1	3
675.705	1	0
675.875	1	-7
676.044	1	9
676.214	1	5
676.383	1	-2
676.552	1	1
676.722	1	2
676.891	1	7
677.060	1	-2
677.230	1	-2
677.399	1	-4
677.569	1	-10
677.738	1	1
677.907	1	2
678.077	1	7
678.246	1	-2
678.416	1	2
678.585	1	2
678.754	1	-2
678.924	1	-3
679.093	1	0
679.262	1	5
679.432	1	5
679.601	1	-6
679.771	1	-4
679.940	1	3
680.109	1	10
680.279	1	2
680.448	1	4
680.617	1	-6
680.787	1	-5
680.956	1	3
681.125	1	-1
681.295	1	-9
681.464	1	-6
681.634	1	5
681.803	1	4
681.972	1	-13
682.142	1	9
682.311	1	4
682.480	1	10
682.650	1	8
682.819	1	4
682.988	1	-5
683.158	1	-5
683.327	1	-1
683.496	1	3
683.666	1	-3
683.835	1	8
684.004	1	5
684.174	1	2
684.343	1	-2
684.512	1	7
684.682	1	-7
684.851	1	2
685.021	1	-5
685.190	1	-1
685.359	1	15
685.529	1	-7
685.698	1	0
685.867	1	5
686.037	1	1
686.206	1	-9
686.375	1	14
686.545	1	-8
686.714	1	0
686.883	1	-1
687.053	1	2
687.222	1	11
687.391	1	10
687.561	1	7
687.730	1	-10
687.899	1	5
688.069	1	-5
688.238	1	6
688.407	1	-3
688.577	1	-3
688.746	1	-5
