340.368	1	4
340.539	1	-16
340.710	1	-2
340.881	1	-13
341.052	1	2
341.223	1	-3
341.394	1	2
341.565	1	-12
341.737	1	-2
341.908	1	-3
342.079	1	-13
342.250	1	-6
342.421	1	-3
342.592	1	11
342.763	1	4
342.934	1	-6
343.105	1	0
343.276	1	2
343.447	1	-7
343.618	1	-3
343.789	1	4
343.960	1	1
344.131	1	5
344.302	1	-1
344.473	1	-2
344.644	1	10
344.815	1	-4
344.986	1	-1
345.157	1	-4
345.328	1	8
345.499	1	1
345.670	1	-7
345.841	1	3
346.012	1	-4
346.183	1	-1
346.354	1	0
346.526	1	-6
346.697	1	1
346.868	1	11
347.039	1	3
347.210	1	-11
347.381	1	0
347.552	1	-3
347.723	1	3
347.894	1	3
348.065	1	2
348.236	1	10
348.407	1	-2
348.578	1	3
348.749	1	-7
348.920	1	5
349.091	1	-12
349.262	1	-7
349.433	1	5
349.604	1	-8
349.775	1	8
349.946	1	0
350.117	1	6
350.288	1	6
350.459	1	0
350.630	1	-4
350.801	1	0
350.972	1	0
351.143	1	3
351.314	1	1
351.485	1	4
351.656	1	4
351.827	1	1
351.998	1	-1
352.169	1	-1
352.340	1	3
352.511	1	-7
352.682	1	4
352.853	1	-2
353.024	1	7
353.195	1	8
353.366	1	11
353.537	1	-5
353.708	1	-5
353.879	1	8
354.050	1	-7
354.221	1	-8
354.392	1	0
354.563	1	1
354.734	1	-5
354.905	1	7
355.076	1	4
355.247	1	5
355.418	1	-19
355.589	1	-4
355.760	1	4
355.931	1	-1
356.102	1	7
356.273	1	-1
356.444	1	11
356.615	1	-3
356.785	1	13
356.956	1	2
357.127	1	-10
357.298	1	4
357.469	1	6
357.640	1	4
357.811	1	-4
357.982	1	-8
358.153	1	12
358.324	1	2
358.495	1	8
358.666	1	4
358.837	1	-4
359.008	1	-5
359.179	1	-2
359.350	1	-6
359.521	1	4
359.692	1	5
359.863	1	2
360.034	1	6
360.205	1	-6
360.376	1	6
360.547	1	7
360.718	1	1
360.889	1	-5
361.060	1	-5
361.231	1	-5
361.401	1	6
361.572	1	5
361.743	1	-4
361.914	1	8
362.085	1	5
362.256	1	8
362.427	1	10
362.598	1	-6
362.769	1	3
362.940	1	-4
363.111	1	0
363.282	1	2
363.453	1	-7
363.624	1	6
363.795	1	4
363.966	1	-2
364.137	1	12
364.308	1	4
364.478	1	12
364.649	1	10
364.820	1	5
364.991	1	9
365.162	1	19
365.333	1	3
365.504	1	15
365.675	1	-5
365.846	1	21
366.017	1	9
366.188	1	8
366.359	1	8
366.530	1	26
366.701	1	16
366.871	1	5
367.042	1	8
367.213	1	19
367.384	1	20
367.555	1	11
367.726	1	18
367.897	1	14
368.068	1	13
368.239	1	7
368.410	1	20
368.581	1	8
368.752	1	5
368.923	1	5
369.093	1	8
369.264	1	19
369.435	1	16
369.606	1	13
369.777	1	15
369.948	1	14
370.119	1	13
370.290	1	9
370.461	1	26
370.632	1	17
370.803	1	20
370.973	1	24
371.144	1	14
371.315	1	11
371.486	1	22
371.657	1	16
371.828	1	13
371.999	1	13
372.170	1	19
372.341	1	13
372.512	1	11
372.682	1	18
372.853	1	15
373.024	1	11
373.195	1	11
373.366	1	15
373.537	1	11
373.708	1	5
373.879	1	9
374.050	1	12
374.220	1	23
374.391	1	10
374.562	1	18
374.733	1	17
374.904	1	11
375.075	1	10
375.246	1	11
375.417	1	10
375.588	1	9
375.758	1	16
375.929	1	11
376.100	1	5
376.271	1	14
376.442	1	8
376.613	1	1
376.784	1	12
376.955	1	-4
377.125	1	10
377.296	1	5
377.467	1	6
377.638	1	3
377.809	1	11
377.980	1	2
378.151	1	24
378.321	1	0
378.492	1	-1
378.663	1	3
378.834	1	5
379.005	1	4
379.176	1	-1
379.347	1	7
379.518	1	4
379.688	1	5
379.859	1	2
380.030	1	5
380.201	1	0
380.372	1	9
380.543	1	9
380.714	1	12
380.884	1	5
381.055	1	7
381.226	1	5
381.397	1	2
381.568	1	12
381.739	1	8
381.910	1	10
382.080	1	4
382.251	1	-1
382.422	1	0
382.593	1	-5
382.764	1	-5
382.935	1	-5
383.105	1	3
383.276	1	6
383.447	1	-2
383.618	1	10
383.789	1	0
383.960	1	12
384.130	1	5
384.301	1	-3
384.472	1	0
384.643	1	9
384.814	1	4
384.985	1	2
385.156	1	-6
385.326	1	10
385.497	1	5
385.668	1	5
385.839	1	8
386.010	1	-5
386.180	1	6
386.351	1	8
386.522	1	12
386.693	1	-12
386.864	1	8
387.035	1	-6
387.205	1	9
387.376	1	-3
387.547	1	5
387.718	1	-6
387.889	1	2
388.060	1	18
388.230	1	10
388.401	1	-10
388.572	1	-2
388.743	1	-3
388.914	1	-1
389.084	1	4
389.255	1	4
389.426	1	3
389.597	1	-1
389.768	1	-3
389.939	1	1
390.109	1	3
390.280	1	4
390.451	1	-2
390.622	1	0
390.793	1	4
390.963	1	9
391.134	1	7
391.305	1	17
391.476	1	-9
391.647	1	-1
391.817	1	8
391.988	1	3
392.159	1	-3
392.330	1	13
392.501	1	-1
392.671	1	-8
392.842	1	-11
393.013	1	-6
393.184	1	11
393.355	1	7
393.525	1	6
393.696	1	9
393.867	1	11
394.038	1	-2
394.208	1	-2
394.379	1	3
394.550	1	5
394.721	1	-6
394.892	1	-1
395.062	1	0
395.233	1	6
395.404	1	-4
395.575	1	1
395.746	1	1
395.916	1	0
396.087	1	2
396.258	1	8
396.429	1	1
396.599	1	1
396.770	1	-11
396.941	1	4
397.112	1	5
397.283	1	3
397.453	1	7
397.624	1	2
397.795	1	6
397.966	1	2
398.136	1	-9
398.307	1	-3
398.478	1	9
398.649	1	-7
398.819	1	-1
398.990	1	4
399.161	1	10
399.332	1	-3
399.503	1	7
399.673	1	0
399.844	1	3
400.015	1	-4
400.186	1	3
400.356	1	-14
400.527	1	-4
400.698	1	-4
400.869	1	-1
401.039	1	4
401.210	1	1
401.381	1	0
401.552	1	-8
401.722	1	10
401.893	1	1
402.064	1	-5
402.235	1	1
402.405	1	7
402.576	1	-6
402.747	1	-4
402.918	1	8
403.088	1	10
403.259	1	4
403.430	1	-12
403.601	1	-8
403.771	1	-2
403.942	1	15
404.113	1	-4
404.284	1	5
404.454	1	-5
404.625	1	5
404.796	1	2
404.967	1	2
405.137	1	9
405.308	1	-3
405.479	1	2
405.649	1	8
405.820	1	-16
405.991	1	-2
406.162	1	11
406.332	1	12
406.503	1	1
406.674	1	-9
406.845	1	14
407.015	1	0
407.186	1	2
407.357	1	2
407.527	1	-2
407.698	1	11
407.869	1	-8
408.040	1	3
408.210	1	-1
408.381	1	2
408.552	1	1
408.722	1	-5
408.893	1	1
409.064	1	-2
409.235	1	-4
409.405	1	12
409.576	1	-2
409.747	1	-3
409.917	1	2
410.088	1	-2
410.259	1	2
410.430	1	5
410.600	1	-5
410.771	1	9
410.942	1	8
411.112	1	3
411.283	1	0
411.454	1	-5
411.625	1	-5
411.795	1	-11
411.966	1	-2
412.137	1	5
412.307	1	-2
412.478	1	11
412.649	1	-1
412.819	1	9
412.990	1	-1
413.161	1	-2
413.332	1	5
413.502	1	2
413.673	1	3
413.844	1	1
414.014	1	1
414.185	1	5
414.356	1	5
414.526	1	3
414.697	1	7
414.868	1	-2
415.038	1	4
415.209	1	-4
415.380	1	-4
415.550	1	-1
415.721	1	6
415.892	1	-4
416.063	1	8
416.233	1	3
416.404	1	-4
416.575	1	8
416.745	1	-11
416.916	1	-2
417.087	1	1
417.257	1	3
417.428	1	4
417.599	1	4
417.769	1	6
417.940	1	1
418.111	1	1
418.281	1	1
418.452	1	-1
418.623	1	-7
418.793	1	-2
418.964	1	-19
419.135	1	-12
419.305	1	-1
419.476	1	11
419.647	1	3
419.817	1	6
419.988	1	-9
420.159	1	1
420.329	1	-1
420.500	1	-7
420.671	1	1
420.841	1	14
421.012	1	-2
421.183	1	2
421.353	1	-7
421.524	1	1
421.695	1	-1
421.865	1	-2
422.036	1	-1
422.206	1	-5
422.377	1	2
422.548	1	-10
422.718	1	16
422.889	1	-4
423.060	1	-8
423.230	1	2
423.401	1	-1
423.572	1	1
423.742	1	0
423.913	1	-3
424.084	1	1
424.254	1	-4
424.425	1	4
424.595	1	-10
424.766	1	-2
424.937	1	0
425.107	1	1
425.278	1	9
425.449	1	0
425.619	1	-1
425.790	1	-8
425.961	1	-7
426.131	1	-5
426.302	1	-1
426.472	1	4
426.643	1	14
426.814	1	3
426.984	1	2
427.155	1	-8
427.326	1	2
427.496	1	-3
427.667	1	4
427.837	1	-7
428.008	1	3
428.179	1	-2
428.349	1	-3
428.520	1	0
428.691	1	6
428.861	1	-5
429.032	1	8
429.202	1	2
429.373	1	2
429.544	1	-7
429.714	1	3
429.885	1	2
430.055	1	0
430.226	1	-8
430.397	1	-3
430.567	1	-5
430.738	1	-3
430.909	1	2
431.079	1	0
431.250	1	-3
431.420	1	0
431.591	1	2
431.762	1	4
431.932	1	-2
432.103	1	-2
432.273	1	-10
432.444	1	4
432.615	1	-12
432.785	1	5
432.956	1	-9
433.126	1	1
433.297	1	-1
433.468	1	-10
433.638	1	-1
433.809	1	1
433.979	1	2
434.150	1	1
434.320	1	0
434.491	1	-12
434.662	1	-3
434.832	1	2
435.003	1	8
435.173	1	-6
435.344	1	8
435.515	1	4
435.685	1	8
435.856	1	2
436.026	1	3
436.197	1	-1
436.368	1	3
436.538	1	-16
436.709	1	-3
436.879	1	-1
437.050	1	2
437.220	1	2
437.391	1	0
437.562	1	-1
437.732	1	-7
437.903	1	-13
438.073	1	-4
438.244	1	2
438.414	1	-6
438.585	1	-7
438.756	1	-3
438.926	1	-4
439.097	1	-6
439.267	1	5
439.438	1	-6
439.608	1	3
439.779	1	-5
439.949	1	9
440.120	1	4
440.291	1	10
440.461	1	-5
440.632	1	-6
440.802	1	0
440.973	1	-2
441.143	1	9
441.314	1	-16
441.485	1	-3
441.655	1	5
441.826	1	-2
441.996	1	0
442.167	1	-6
442.337	1	-4
442.508	1	-8
442.678	1	-3
442.849	1	6
443.019	1	5
443.190	1	-1
443.361	1	-6
443.531	1	12
443.702	1	-5
443.872	1	10
444.043	1	-2
444.213	1	-1
444.384	1	-10
444.554	1	11
444.725	1	-9
444.895	1	-5
445.066	1	-8
445.237	1	-10
445.407	1	5
445.578	1	-12
445.748	1	-5
445.919	1	-11
446.089	1	12
446.260	1	-4
446.430	1	-2
446.601	1	-1
446.771	1	17
446.942	1	1
447.112	1	-7
447.283	1	-4
447.453	1	-11
447.624	1	-5
447.794	1	7
447.965	1	0
448.135	1	-1
448.306	1	2
448.477	1	5
448.647	1	-6
448.818	1	-6
448.988	1	-7
449.159	1	-5
449.329	1	-3
449.500	1	0
449.670	1	10
449.841	1	13
450.011	1	20
450.182	1	-6
450.352	1	-3
450.523	1	-13
450.693	1	-12
450.864	1	1
451.034	1	-4
451.205	1	6
451.375	1	-1
451.546	1	5
451.716	1	-3
451.887	1	-8
452.057	1	-3
452.228	1	-5
452.398	1	5
452.569	1	1
452.739	1	8
452.910	1	-5
453.080	1	7
453.251	1	1
453.421	1	-3
453.592	1	12
453.762	1	7
453.933	1	-2
454.103	1	3
454.274	1	-12
454.444	1	-11
454.615	1	11
454.785	1	2
454.956	1	0
455.126	1	1
455.297	1	6
455.467	1	0
455.638	1	-1
455.808	1	-5
455.979	1	5
456.149	1	0
456.320	1	-3
456.490	1	-4
456.661	1	9
456.831	1	2
457.001	1	-4
457.172	1	-6
457.342	1	3
457.513	1	0
457.683	1	1
457.854	1	-5
458.024	1	3
458.195	1	-8
458.365	1	-4
458.536	1	3
458.706	1	7
458.877	1	4
459.047	1	8
459.218	1	3
459.388	1	5
459.559	1	9
459.729	1	4
459.899	1	-4
460.070	1	5
460.240	1	6
460.411	1	-3
460.581	1	10
460.752	1	-4
460.922	1	-4
461.093	1	3
461.263	1	-6
461.434	1	0
461.604	1	-2
461.775	1	-10
461.945	1	0
462.115	1	3
462.286	1	3
462.456	1	-9
462.627	1	6
462.797	1	-9
462.968	1	8
463.138	1	-9
463.309	1	-1
463.479	1	-2
463.649	1	-1
463.820	1	-10
463.990	1	-6
464.161	1	1
464.331	1	-9
464.502	1	-3
464.672	1	3
464.843	1	3
465.013	1	-7
465.183	1	-6
465.354	1	-3
465.524	1	4
465.695	1	-13
465.865	1	-4
466.036	1	-7
466.206	1	7
466.376	1	-13
466.547	1	-4
466.717	1	1
466.888	1	7
467.058	1	5
467.229	1	-2
467.399	1	1
467.569	1	7
467.740	1	2
467.910	1	5
468.081	1	-2
468.251	1	-7
468.422	1	-3
468.592	1	-9
468.762	1	-12
468.933	1	2
469.103	1	-1
469.274	1	5
469.444	1	-5
469.614	1	4
469.785	1	-11
469.955	1	-3
470.126	1	-4
470.296	1	-1
470.467	1	-4
470.637	1	2
470.807	1	-4
470.978	1	-1
471.148	1	10
471.319	1	-5
471.489	1	0
471.659	1	2
471.830	1	-7
472.000	1	7
472.171	1	9
472.341	1	2
472.511	1	-1
472.682	1	-4
472.852	1	1
473.023	1	-4
473.193	1	7
473.363	1	-6
473.534	1	6
473.704	1	-12
473.875	1	7
474.045	1	0
474.215	1	6
474.386	1	8
474.556	1	-1
474.727	1	-5
474.897	1	0
475.067	1	-1
475.238	1	-2
475.408	1	10
475.578	1	-14
475.749	1	1
475.919	1	-9
476.090	1	-9
476.260	1	-7
476.430	1	-3
476.601	1	-4
476.771	1	-1
476.942	1	12
477.112	1	9
477.282	1	-3
477.453	1	-1
477.623	1	-9
477.793	1	2
477.964	1	-8
478.134	1	-10
478.305	1	-3
478.475	1	4
478.645	1	6
478.816	1	2
478.986	1	4
479.156	1	-6
479.327	1	-5
479.497	1	-8
479.667	1	-6
479.838	1	-4
480.008	1	2
480.179	1	2
480.349	1	-6
480.519	1	2
480.690	1	3
480.860	1	1
481.030	1	-2
481.201	1	5
481.371	1	-1
481.541	1	-8
481.712	1	-2
481.882	1	10
482.053	1	5
482.223	1	1
482.393	1	5
482.564	1	-8
482.734	1	-12
482.904	1	-5
483.075	1	-9
483.245	1	3
483.415	1	1
483.586	1	0
483.756	1	3
483.926	1	-4
484.097	1	1
484.267	1	-6
484.437	1	-3
484.608	1	5
484.778	1	9
484.948	1	-11
485.119	1	-3
485.289	1	-4
485.459	1	12
485.630	1	-5
485.800	1	-11
485.970	1	-8
486.141	1	-3
486.311	1	-1
486.481	1	-3
486.652	1	9
486.822	1	10
486.992	1	-3
487.163	1	5
487.333	1	0
487.503	1	1
487.674	1	-3
487.844	1	0
488.014	1	0
488.185	1	-4
488.355	1	-2
488.525	1	-4
488.696	1	-6
488.866	1	5
489.036	1	7
489.207	1	-11
489.377	1	-7
489.547	1	-6
489.718	1	1
489.888	1	-7
490.058	1	-7
490.228	1	-5
490.399	1	-1
490.569	1	6
490.739	1	18
490.910	1	1
491.080	1	7
491.250	1	-11
491.421	1	-1
491.591	1	-7
491.761	1	3
491.932	1	-2
492.102	1	-4
492.272	1	-4
492.442	1	13
492.613	1	-4
492.783	1	2
492.953	1	-8
493.124	1	-5
493.294	1	2
493.464	1	5
493.635	1	1
493.805	1	-8
493.975	1	4
494.145	1	-1
494.316	1	-8
494.486	1	-7
494.656	1	-1
494.827	1	-1
494.997	1	-5
495.167	1	7
495.337	1	10
495.508	1	-3
495.678	1	4
495.848	1	8
496.019	1	3
496.189	1	-1
496.359	1	-11
496.529	1	-1
496.700	1	-2
496.870	1	9
497.040	1	7
497.211	1	4
497.381	1	-8
497.551	1	3
497.721	1	-1
497.892	1	2
498.062	1	2
498.232	1	-8
498.403	1	8
498.573	1	-6
498.743	1	-3
498.913	1	5
499.084	1	-6
499.254	1	0
499.424	1	2
499.594	1	12
499.765	1	-7
499.935	1	10
500.105	1	2
500.275	1	7
500.446	1	-7
500.616	1	-1
500.786	1	-5
500.956	1	-5
501.127	1	2
501.297	1	-8
501.467	1	-7
501.638	1	-3
501.808	1	1
501.978	1	3
502.148	1	2
502.319	1	-8
502.489	1	3
502.659	1	1
502.829	1	5
503.000	1	8
503.170	1	4
503.340	1	7
503.510	1	5
503.681	1	-6
503.851	1	6
504.021	1	-8
504.191	1	4
504.362	1	5
504.532	1	8
504.702	1	3
504.872	1	-2
505.042	1	-5
505.213	1	7
505.383	1	2
505.553	1	-14
505.723	1	1
505.894	1	-10
506.064	1	1
506.234	1	2
506.404	1	2
506.575	1	0
506.745	1	3
506.915	1	4
507.085	1	-14
507.256	1	7
507.426	1	5
507.596	1	2
507.766	1	-6
507.936	1	-2
508.107	1	0
508.277	1	0
508.447	1	5
508.617	1	5
508.788	1	12
508.958	1	-11
509.128	1	-6
509.298	1	-2
509.468	1	3
509.639	1	-3
509.809	1	6
509.979	1	3
510.149	1	2
510.319	1	2
510.490	1	-1
510.660	1	-6
510.830	1	5
511.000	1	-2
511.171	1	1
511.341	1	0
511.511	1	3
511.681	1	2
511.851	1	1
512.022	1	-3
512.192	1	-1
512.362	1	-8
512.532	1	1
512.702	1	-3
512.873	1	-3
513.043	1	-1
513.213	1	-8
513.383	1	-10
513.553	1	-6
513.724	1	-10
513.894	1	-17
514.064	1	15
514.234	1	-6
514.404	1	4
514.575	1	8
514.745	1	5
514.915	1	-1
515.085	1	-3
515.255	1	-7
515.425	1	-6
515.596	1	2
515.766	1	-10
515.936	1	1
516.106	1	-1
516.276	1	-13
516.447	1	2
516.617	1	6
516.787	1	5
516.957	1	3
517.127	1	-4
517.297	1	0
517.468	1	-4
517.638	1	5
517.808	1	-1
517.978	1	5
518.148	1	9
518.319	1	2
518.489	1	2
518.659	1	-8
518.829	1	7
518.999	1	4
519.169	1	0
519.340	1	2
519.510	1	-3
519.680	1	4
519.850	1	-1
520.020	1	1
520.190	1	1
520.361	1	4
520.531	1	10
520.701	1	-2
520.871	1	-4
521.041	1	5
521.211	1	-6
521.382	1	-2
521.552	1	4
521.722	1	-7
521.892	1	-4
522.062	1	8
522.232	1	3
522.402	1	9
522.573	1	4
522.743	1	2
522.913	1	7
523.083	1	3
523.253	1	-5
523.423	1	4
523.593	1	-1
523.764	1	6
523.934	1	-4
524.104	1	-3
524.274	1	-8
524.444	1	3
524.614	1	1
524.784	1	0
524.955	1	-3
525.125	1	3
525.295	1	2
525.465	1	5
525.635	1	2
525.805	1	-4
525.975	1	9
526.146	1	5
526.316	1	6
526.486	1	-1
526.656	1	6
526.826	1	0
526.996	1	6
527.166	1	8
527.337	1	-2
527.507	1	10
527.677	1	1
527.847	1	3
528.017	1	-9
528.187	1	-8
528.357	1	-4
528.527	1	3
528.698	1	3
528.868	1	-1
529.038	1	2
529.208	1	-3
529.378	1	8
529.548	1	-3
529.718	1	0
529.888	1	2
530.058	1	-3
530.229	1	7
530.399	1	2
530.569	1	-12
530.739	1	-3
530.909	1	1
531.079	1	-2
531.249	1	-1
531.419	1	0
531.589	1	2
531.760	1	-3
531.930	1	-1
532.100	1	-13
532.270	1	-3
532.440	1	4
532.610	1	-7
532.780	1	4
532.950	1	-5
533.120	1	-2
533.290	1	7
533.461	1	5
533.631	1	9
533.801	1	11
533.971	1	-2
534.141	1	-13
534.311	1	7
534.481	1	-14
534.651	1	-2
534.821	1	5
534.991	1	-2
535.162	1	-9
535.332	1	-4
535.502	1	-9
535.672	1	4
535.842	1	8
536.012	1	5
536.182	1	1
536.352	1	-6
536.522	1	-2
536.692	1	7
536.862	1	1
537.032	1	8
537.203	1	-7
537.373	1	1
537.543	1	-1
537.713	1	6
537.883	1	-5
538.053	1	0
538.223	1	3
538.393	1	17
538.563	1	-3
538.733	1	5
538.903	1	1
539.073	1	-4
539.243	1	-6
539.413	1	1
539.584	1	4
539.754	1	5
539.924	1	-4
540.094	1	5
540.264	1	-7
540.434	1	-5
540.604	1	0
540.774	1	13
540.944	1	-6
541.114	1	0
541.284	1	2
541.454	1	9
541.624	1	6
541.794	1	3
541.964	1	8
542.134	1	10
542.305	1	8
542.475	1	4
542.645	1	-4
542.815	1	-2
542.985	1	-3
543.155	1	6
543.325	1	0
543.495	1	6
543.665	1	7
543.835	1	5
544.005	1	0
544.175	1	-3
544.345	1	5
544.515	1	-3
544.685	1	-3
544.855	1	-8
545.025	1	0
545.195	1	-2
545.365	1	-1
545.535	1	2
545.705	1	0
545.875	1	-11
546.045	1	1
546.216	1	5
546.386	1	13
546.556	1	-11
546.726	1	-6
546.896	1	-3
547.066	1	-9
547.236	1	5
547.406	1	5
547.576	1	9
547.746	1	-22
547.916	1	-1
548.086	1	5
548.256	1	-4
548.426	1	-5
548.596	1	-2
548.766	1	8
548.936	1	-2
549.106	1	-1
549.276	1	0
549.446	1	-5
549.616	1	-7
549.786	1	-1
549.956	1	2
550.126	1	12
550.296	1	-3
550.466	1	9
550.636	1	8
550.806	1	3
550.976	1	7
551.146	1	-1
551.316	1	-4
551.486	1	4
551.656	1	6
551.826	1	4
551.996	1	9
552.166	1	6
552.336	1	-4
552.506	1	5
552.676	1	9
552.846	1	-2
553.016	1	2
553.186	1	4
553.356	1	1
553.526	1	-3
553.696	1	10
553.866	1	5
554.036	1	13
554.206	1	6
554.376	1	-1
554.546	1	5
554.716	1	2
554.886	1	1
555.056	1	5
555.226	1	-11
555.396	1	-2
555.566	1	9
555.736	1	3
555.906	1	12
556.076	1	-7
556.246	1	6
556.416	1	-6
556.586	1	-7
556.756	1	-1
556.926	1	3
557.096	1	6
557.266	1	-15
557.436	1	-6
557.606	1	3
557.776	1	-6
557.946	1	7
558.116	1	3
558.286	1	1
558.456	1	2
558.626	1	7
558.796	1	0
558.966	1	5
559.136	1	3
559.306	1	1
559.476	1	-9
559.646	1	-6
559.816	1	-2
559.986	1	-2
560.155	1	11
560.325	1	-5
560.495	1	-2
560.665	1	-6
560.835	1	-4
561.005	1	-7
561.175	1	-2
561.345	1	6
561.515	1	-7
561.685	1	0
561.855	1	1
562.025	1	2
562.195	1	1
562.365	1	1
562.535	1	-4
562.705	1	-3
562.875	1	0
563.045	1	-10
563.215	1	7
563.385	1	-8
563.555	1	-4
563.725	1	2
563.895	1	-1
564.064	1	3
564.234	1	-5
564.404	1	0
564.574	1	-1
564.744	1	6
564.914	1	-3
565.084	1	5
565.254	1	10
565.424	1	3
565.594	1	6
565.764	1	-1
565.934	1	-1
566.104	1	-4
566.274	1	3
566.444	1	-12
566.614	1	0
566.783	1	-4
566.953	1	9
567.123	1	3
567.293	1	18
567.463	1	3
567.633	1	4
567.803	1	-5
567.973	1	-8
568.143	1	-1
568.313	1	0
568.483	1	8
568.653	1	0
568.823	1	8
568.993	1	2
569.162	1	9
569.332	1	3
569.502	1	-3
569.672	1	-1
569.842	1	6
570.012	1	3
570.182	1	-2
570.352	1	-1
570.522	1	-10
570.692	1	9
570.862	1	-5
571.031	1	1
571.201	1	2
571.371	1	-11
571.541	1	7
571.711	1	3
571.881	1	14
572.051	1	-12
572.221	1	-5
572.391	1	-8
572.561	1	2
572.731	1	1
572.900	1	-7
573.070	1	1
573.240	1	4
573.410	1	5
573.580	1	6
573.750	1	0
573.920	1	13
574.090	1	-5
574.260	1	1
574.430	1	-2
574.599	1	-6
574.769	1	-4
574.939	1	3
575.109	1	5
575.279	1	13
575.449	1	0
575.619	1	14
575.789	1	-9
575.959	1	-4
576.128	1	2
576.298	1	2
576.468	1	-6
576.638	1	-9
576.808	1	-2
576.978	1	7
577.148	1	3
577.318	1	6
577.487	1	1
577.657	1	0
577.827	1	1
577.997	1	-4
578.167	1	2
578.337	1	1
578.507	1	14
578.677	1	4
578.846	1	13
579.016	1	7
579.186	1	1
579.356	1	-9
579.526	1	-3
579.696	1	5
579.866	1	2
580.036	1	3
580.205	1	-1
580.375	1	6
580.545	1	-11
580.715	1	-2
580.885	1	3
581.055	1	-5
581.225	1	0
581.394	1	-1
581.564	1	8
581.734	1	-4
581.904	1	13
582.074	1	6
582.244	1	-7
582.414	1	8
582.583	1	11
582.753	1	0
582.923	1	-8
583.093	1	-3
583.263	1	2
583.433	1	5
583.603	1	3
583.772	1	6
583.942	1	0
584.112	1	-4
584.282	1	-7
584.452	1	-3
584.622	1	-3
584.791	1	-2
584.961	1	-8
585.131	1	5
585.301	1	-2
585.471	1	10
585.641	1	-2
585.811	1	6
585.980	1	4
586.150	1	6
586.320	1	1
586.490	1	5
586.660	1	1
586.830	1	-5
586.999	1	1
587.169	1	4
587.339	1	7
587.509	1	-5
587.679	1	14
587.849	1	-4
588.018	1	5
588.188	1	8
588.358	1	-3
588.528	1	2
588.698	1	5
588.867	1	0
589.037	1	10
589.207	1	-4
589.377	1	8
589.547	1	1
589.717	1	8
589.886	1	-1
590.056	1	-5
590.226	1	12
590.396	1	3
590.566	1	2
590.735	1	-4
590.905	1	-2
591.075	1	2
591.245	1	-5
591.415	1	4
591.585	1	7
591.754	1	6
591.924	1	1
592.094	1	-2
592.264	1	10
592.434	1	-6
592.603	1	2
592.773	1	4
592.943	1	-1
593.113	1	-1
593.283	1	-2
593.452	1	2
593.622	1	-9
593.792	1	5
593.962	1	6
594.132	1	-2
594.301	1	3
594.471	1	8
594.641	1	-3
594.811	1	9
594.981	1	-4
595.150	1	-8
595.320	1	9
595.490	1	3
595.660	1	7
595.829	1	1
595.999	1	-5
596.169	1	3
596.339	1	4
596.509	1	-3
596.678	1	-5
596.848	1	6
597.018	1	-5
597.188	1	-2
597.358	1	-6
597.527	1	0
597.697	1	0
597.867	1	-5
598.037	1	-5
598.206	1	0
598.376	1	6
598.546	1	3
598.716	1	1
598.885	1	-11
599.055	1	6
599.225	1	-13
599.395	1	-2
599.565	1	-7
599.734	1	3
599.904	1	-3
600.074	1	-2
600.244	1	-11
600.413	1	3
600.583	1	16
600.753	1	7
600.923	1	6
601.092	1	9
601.262	1	1
601.432	1	-4
601.602	1	11
601.771	1	3
601.941	1	-4
602.111	1	-2
602.281	1	11
602.451	1	7
602.620	1	3
602.790	1	4
602.960	1	0
603.130	1	4
603.299	1	5
603.469	1	-10
603.639	1	4
603.809	1	-7
603.978	1	-4
604.148	1	-1
604.318	1	-8
604.487	1	2
604.657	1	7
604.827	1	7
604.997	1	-8
605.166	1	3
605.336	1	1
605.506	1	5
605.676	1	-8
605.845	1	-2
606.015	1	-2
606.185	1	5
606.355	1	11
606.524	1	-2
606.694	1	7
606.864	1	-5
607.034	1	-9
607.203	1	0
607.373	1	0
607.543	1	-9
607.712	1	2
607.882	1	1
608.052	1	1
608.222	1	6
608.391	1	8
608.561	1	-2
608.731	1	2
608.901	1	7
609.070	1	6
609.240	1	-7
609.410	1	7
609.579	1	3
609.749	1	-2
609.919	1	10
610.089	1	-1
610.258	1	9
610.428	1	-2
610.598	1	-4
610.767	1	-7
610.937	1	-2
611.107	1	-6
611.277	1	1
611.446	1	10
611.616	1	5
611.786	1	4
611.955	1	-1
612.125	1	2
612.295	1	-3
612.465	1	1
612.634	1	-4
612.804	1	7
612.974	1	2
613.143	1	-6
613.313	1	3
613.483	1	-1
613.652	1	2
613.822	1	-5
613.992	1	4
614.162	1	8
614.331	1	1
614.501	1	-1
614.671	1	7
614.840	1	0
615.010	1	-8
615.180	1	-7
615.349	1	4
615.519	1	-10
615.689	1	5
615.858	1	-3
616.028	1	1
616.198	1	0
616.368	1	6
616.537	1	-2
616.707	1	2
616.877	1	1
617.046	1	-5
617.216	1	-6
617.386	1	-2
617.555	1	-1
617.725	1	3
617.895	1	11
618.064	1	-5
618.234	1	-3
618.404	1	4
618.573	1	2
618.743	1	1
618.913	1	10
619.082	1	2
619.252	1	-3
619.422	1	-9
619.591	1	-6
619.761	1	1
619.931	1	5
620.100	1	3
620.270	1	-8
620.440	1	14
620.609	1	4
620.779	1	0
620.949	1	3
621.118	1	-3
621.288	1	1
621.458	1	5
621.627	1	-2
621.797	1	-3
621.967	1	-3
622.136	1	15
622.306	1	-11
622.476	1	8
622.645	1	5
622.815	1	4
622.985	1	0
623.154	1	2
623.324	1	-1
623.494	1	12
623.663	1	-2
623.833	1	1
624.002	1	-8
624.172	1	-2
624.342	1	13
624.511	1	-2
624.681	1	-4
624.851	1	-14
625.020	1	2
625.190	1	-1
625.360	1	3
625.529	1	2
625.699	1	-2
625.869	1	5
626.038	1	-3
626.208	1	0
626.377	1	4
626.547	1	-7
626.717	1	-2
626.886	1	6
627.056	1	-2
627.226	1	6
627.395	1	12
627.565	1	7
627.735	1	3
627.904	1	3
628.074	1	-10
628.243	1	1
628.413	1	3
628.583	1	-4
628.752	1	3
628.922	1	0
629.091	1	-8
629.261	1	9
629.431	1	0
629.600	1	14
629.770	1	-10
629.940	1	-3
630.109	1	-4
630.279	1	-3
630.448	1	-8
630.618	1	-4
630.788	1	11
630.957	1	-1
631.127	1	6
631.297	1	7
631.466	1	4
631.636	1	-10
631.805	1	-2
631.975	1	10
632.145	1	1
632.314	1	4
632.484	1	-5
632.653	1	5
632.823	1	-8
632.993	1	-1
633.162	1	-5
633.332	1	-1
633.501	1	-7
633.671	1	-2
633.841	1	-5
634.010	1	-4
634.180	1	-3
634.349	1	9
634.519	1	-7
634.689	1	3
634.858	1	1
635.028	1	4
635.197	1	14
635.367	1	4
635.537	1	2
635.706	1	-2
635.876	1	-9
636.045	1	5
636.215	1	0
636.384	1	-1
636.554	1	13
636.724	1	6
636.893	1	-3
637.063	1	0
637.232	1	-1
637.402	1	13
637.572	1	-4
637.741	1	0
637.911	1	-1
638.080	1	-11
638.250	1	2
638.419	1	1
638.589	1	8
638.759	1	-11
638.928	1	-3
639.098	1	-4
639.267	1	-3
639.437	1	-4
639.606	1	8
639.776	1	1
639.946	1	1
640.115	1	0
640.285	1	11
640.454	1	-2
640.624	1	-3
640.793	1	3
640.963	1	-3
641.132	1	6
641.302	1	3
641.472	1	10
641.641	1	-6
641.811	1	3
641.980	1	-4
642.150	1	-3
642.319	1	-8
642.489	1	3
642.659	1	-3
642.828	1	-12
642.998	1	-2
643.167	1	-3
643.337	1	8
643.506	1	-6
643.676	1	5
643.845	1	2
644.015	1	-1
644.184	1	-5
644.354	1	-2
644.524	1	-3
644.693	1	-2
644.863	1	-13
645.032	1	0
645.202	1	-1
645.371	1	1
645.541	1	6
645.710	1	-1
645.880	1	0
646.049	1	-13
646.219	1	0
646.388	1	1
646.558	1	-1
646.728	1	0
646.897	1	-5
647.067	1	6
647.236	1	2
647.406	1	-9
647.575	1	-1
647.745	1	-5
647.914	1	-3
648.084	1	2
648.253	1	15
648.423	1	-8
648.592	1	-10
648.762	1	1
648.931	1	7
649.101	1	3
649.270	1	-1
649.440	1	5
649.610	1	5
649.779	1	1
649.949	1	-3
650.118	1	7
650.288	1	-3
650.457	1	4
650.627	1	-7
650.796	1	6
650.966	1	6
651.135	1	-13
651.305	1	-6
651.474	1	-7
651.644	1	13
651.813	1	4
651.983	1	1
652.152	1	-1
652.322	1	-5
652.491	1	4
652.661	1	-1
652.830	1	2
653.000	1	-1
653.169	1	-3
653.339	1	13
653.508	1	4
653.678	1	6
653.847	1	5
654.017	1	0
654.186	1	3
654.356	1	-3
654.525	1	-2
654.695	1	1
654.864	1	0
655.034	1	-1
655.203	1	-9
655.373	1	20
655.542	1	7
655.712	1	7
655.881	1	-2
656.051	1	-5
656.220	1	-3
656.390	1	-14
656.559	1	4
656.729	1	6
656.898	1	-13
657.068	1	-3
657.237	1	-5
657.406	1	-2
657.576	1	1
657.745	1	1
657.915	1	-9
658.084	1	2
658.254	1	-9
658.423	1	10
658.593	1	6
658.762	1	-5
658.932	1	1
659.101	1	7
659.271	1	7
659.440	1	0
659.610	1	1
659.779	1	4
659.949	1	-2
660.118	1	-3
660.288	1	3
660.457	1	-1
660.626	1	-2
660.796	1	-14
660.965	1	9
661.135	1	-1
661.304	1	7
661.474	1	-4
661.643	1	7
661.813	1	10
661.982	1	4
662.152	1	3
662.321	1	4
662.491	1	-5
662.660	1	6
662.829	1	-4
662.999	1	-7
663.168	1	0
663.338	1	4
663.507	1	-1
663.677	1	-3
663.846	1	-10
664.016	1	5
664.185	1	4
664.354	1	9
664.524	1	0
664.693	1	10
664.863	1	-4
665.032	1	0
665.202	1	0
665.371	1	1
665.541	1	-11
665.710	1	4
665.879	1	-8
666.049	1	-8
666.218	1	-6
666.388	1	-1
666.557	1	-1
666.727	1	-5
666.896	1	-4
667.065	1	3
667.235	1	4
667.404	1	4
667.574	1	-5
667.743	1	-2
667.913	1	0
668.082	1	4
668.251	1	-6
668.421	1	-10
668.590	1	-2
668.760	1	-9
668.929	1	-15
669.099	1	-5
669.268	1	-6
669.437	1	5
669.607	1	-5
669.776	1	1
669.946	1	5
670.115	1	5
670.285	1	-3
670.454	1	-1
670.623	1	2
670.793	1	2
670.962	1	0
671.132	1	13
671.301	1	-7
671.470	1	8
671.640	1	0
671.809	1	-3
671.979	1	-5
672.148	1	-2
672.317	1	-4
672.487	1	1
672.656	1	-4
672.826	1	3
672.995	1	-2
673.164	1	7
673.334	1	-9
673.503	1	7
673.673	1	7
673.842	1	0
674.011	1	0
674.181	1	2
674.350	1	9
674.520	1	3
674.689	1	-5
674.858	1	-7
675.028	1	-2
675.197	1	0
675.367	1	-1
675.536	1	3
675.705	1	-1
675.875	1	3
676.044	1	4
676.214	1	-14
676.383	1	-1
676.552	1	1
676.722	1	-10
676.891	1	13
677.060	1	-10
677.230	1	1
677.399	1	-2
677.569	1	-4
677.738	1	4
677.907	1	2
678.077	1	-1
678.246	1	-2
678.416	1	-3
678.585	1	0
678.754	1	-1
678.924	1	1
679.093	1	4
679.262	1	6
679.432	1	0
679.601	1	-6
679.771	1	2
679.940	1	-17
680.109	1	2
680.279	1	3
680.448	1	-4
680.617	1	-1
680.787	1	-6
680.956	1	5
681.125	1	6
681.295	1	3
681.464	1	-3
681.634	1	0
681.803	1	0
681.972	1	-3
682.142	1	11
682.311	1	0
682.480	1	16
682.650	1	-2
682.819	1	3
682.988	1	-8
683.158	1	-3
683.327	1	2
683.496	1	0
683.666	1	-3
683.835	1	-6
684.004	1	8
684.174	1	1
684.343	1	-2
684.512	1	-6
684.682	1	-6
684.851	1	2
685.021	1	-3
685.190	1	2
685.359	1	6
685.529	1	-4
685.698	1	-1
685.867	1	6
686.037	1	8
686.206	1	-7
686.375	1	5
686.545	1	-1
686.714	1	-8
686.883	1	-4
687.053	1	-3
687.222	1	6
687.391	1	-4
687.561	1	6
687.730	1	1
687.899	1	3
688.069	1	5
688.238	1	7
688.407	1	-6
688.577	1	-3
688.746	1	-3
