340.368	1	14
340.539	1	-8
340.710	1	-2
340.881	1	-13
341.052	1	7
341.223	1	2
341.394	1	-6
341.565	1	-8
341.737	1	8
341.908	1	11
342.079	1	-6
342.250	1	-8
342.421	1	3
342.592	1	-1
342.763	1	11
342.934	1	-9
343.105	1	5
343.276	1	11
343.447	1	3
343.618	1	5
343.789	1	-3
343.960	1	3
344.131	1	0
344.302	1	5
344.473	1	3
344.644	1	1
344.815	1	3
344.986	1	6
345.157	1	-7
345.328	1	11
345.499	1	2
345.670	1	0
345.841	1	6
346.012	1	10
346.183	1	-3
346.354	1	2
346.526	1	3
346.697	1	8
346.868	1	4
347.039	1	9
347.210	1	-2
347.381	1	9
347.552	1	-10
347.723	1	9
347.894	1	1
348.065	1	4
348.236	1	10
348.407	1	14
348.578	1	6
348.749	1	0
348.920	1	3
349.091	1	2
349.262	1	5
349.433	1	-5
349.604	1	1
349.775	1	5
349.946	1	1
350.117	1	6
350.288	1	18
350.459	1	-1
350.630	1	6
350.801	1	-2
350.972	1	5
351.143	1	10
351.314	1	12
351.485	1	12
351.656	1	5
351.827	1	12
351.998	1	5
352.169	1	8
352.340	1	1
352.511	1	7
352.682	1	6
352.853	1	3
353.024	1	6
353.195	1	2
353.366	1	-1
353.537	1	8
353.708	1	10
353.879	1	23
354.050	1	0
354.221	1	-1
354.392	1	-1
354.563	1	8
354.734	1	5
354.905	1	18
355.076	1	7
355.247	1	19
355.418	1	-7
355.589	1	5
355.760	1	14
355.931	1	4
356.102	1	16
356.273	1	9
356.444	1	11
356.615	1	7
356.785	1	11
356.956	1	8
357.127	1	6
357.298	1	9
357.469	1	17
357.640	1	19
357.811	1	13
357.982	1	3
358.153	1	20
358.324	1	11
358.495	1	10
358.666	1	6
358.837	1	7
359.008	1	13
359.179	1	4
359.350	1	15
359.521	1	15
359.692	1	26
359.863	1	14
360.034	1	21
360.205	1	12
360.376	1	16
360.547	1	16
360.718	1	16
360.889	1	15
361.060	1	12
361.231	1	10
361.401	1	22
361.572	1	22
361.743	1	15
361.914	1	28
362.085	1	20
362.256	1	19
362.427	1	34
362.598	1	29
362.769	1	24
362.940	1	14
363.111	1	22
363.282	1	26
363.453	1	20
363.624	1	42
363.795	1	38
363.966	1	44
364.137	1	42
364.308	1	28
364.478	1	49
364.649	1	42
364.820	1	44
364.991	1	44
365.162	1	52
365.333	1	37
365.504	1	54
365.675	1	39
365.846	1	57
366.017	1	44
366.188	1	49
366.359	1	54
366.530	1	57
366.701	1	57
366.871	1	57
367.042	1	74
367.213	1	71
367.384	1	65
367.555	1	66
367.726	1	67
367.897	1	62
368.068	1	67
368.239	1	75
368.410	1	81
368.581	1	70
368.752	1	84
368.923	1	79
369.093	1	85
369.264	1	72
369.435	1	85
369.606	1	80
369.777	1	73
369.948	1	84
370.119	1	77
370.290	1	80
370.461	1	84
370.632	1	79
370.803	1	79
370.973	1	75
371.144	1	77
371.315	1	64
371.486	1	77
371.657	1	75
371.828	1	75
371.999	1	83
372.170	1	78
372.341	1	63
372.512	1	55
372.682	1	65
372.853	1	58
373.024	1	66
373.195	1	60
373.366	1	65
373.537	1	61
373.708	1	59
373.879	1	52
374.050	1	50
374.220	1	62
374.391	1	58
374.562	1	48
374.733	1	64
374.904	1	58
375.075	1	55
375.246	1	51
375.417	1	47
375.588	1	43
375.758	1	53
375.929	1	42
376.100	1	51
376.271	1	50
376.442	1	40
376.613	1	38
376.784	1	44
376.955	1	31
377.125	1	40
377.296	1	34
377.467	1	31
377.638	1	29
377.809	1	39
377.980	1	43
378.151	1	41
378.321	1	22
378.492	1	29
378.663	1	28
378.834	1	25
379.005	1	27
379.176	1	26
379.347	1	25
379.518	1	26
379.688	1	31
379.859	1	27
380.030	1	30
380.201	1	24
380.372	1	23
380.543	1	27
380.714	1	27
380.884	1	21
381.055	1	21
381.226	1	23
381.397	1	16
381.568	1	24
381.739	1	29
381.910	1	20
382.080	1	15
382.251	1	5
382.422	1	21
382.593	1	19
382.764	1	20
382.935	1	16
383.105	1	17
383.276	1	34
383.447	1	15
383.618	1	12
383.789	1	19
383.960	1	8
384.130	1	6
384.301	1	24
384.472	1	13
384.643	1	24
384.814	1	22
384.985	1	13
385.156	1	10
385.326	1	34
385.497	1	13
385.668	1	22
385.839	1	19
386.010	1	8
386.180	1	23
386.351	1	11
386.522	1	20
386.693	1	-1
386.864	1	21
387.035	1	12
387.205	1	4
387.376	1	13
387.547	1	2
387.718	1	16
387.889	1	5
388.060	1	12
388.230	1	16
388.401	1	7
388.572	1	5
388.743	1	16
388.914	1	7
389.084	1	11
389.255	1	7
389.426	1	9
389.597	1	14
389.768	1	10
389.939	1	16
390.109	1	15
390.280	1	6
390.451	1	9
390.622	1	10
390.793	1	9
390.963	1	13
391.134	1	17
391.305	1	16
391.476	1	4
391.647	1	13
391.817	1	10
391.988	1	12
392.159	1	5
392.330	1	17
392.501	1	4
392.671	1	4
392.842	1	2
393.013	1	5
393.184	1	8
393.355	1	11
393.525	1	11
393.696	1	12
393.867	1	14
394.038	1	20
394.208	1	9
394.379	1	13
394.550	1	12
394.721	1	15
394.892	1	6
395.062	1	9
395.233	1	10
395.404	1	2
395.575	1	8
395.746	1	6
395.916	1	1
396.087	1	3
396.258	1	0
396.429	1	4
396.599	1	2
396.770	1	9
396.941	1	9
397.112	1	12
397.283	1	1
397.453	1	14
397.624	1	6
397.795	1	16
397.966	1	11
398.136	1	2
398.307	1	-1
398.478	1	11
398.649	1	11
398.819	1	8
398.990	1	6
399.161	1	10
399.332	1	15
399.503	1	6
399.673	1	0
399.844	1	6
400.015	1	0
400.186	1	10
400.356	1	-10
400.527	1	2
400.698	1	-5
400.869	1	3
401.039	1	9
401.210	1	3
401.381	1	3
401.552	1	0
401.722	1	11
401.893	1	8
402.064	1	5
402.235	1	11
402.405	1	12
402.576	1	2
402.747	1	-7
402.918	1	12
403.088	1	10
403.259	1	4
403.430	1	-6
403.601	1	-1
403.771	1	10
403.942	1	10
404.113	1	-6
404.284	1	5
404.454	1	11
404.625	1	10
404.796	1	9
404.967	1	3
405.137	1	14
405.308	1	8
405.479	1	14
405.649	1	9
405.820	1	-12
405.991	1	3
406.162	1	13
406.332	1	16
406.503	1	7
406.674	1	3
406.845	1	10
407.015	1	5
407.186	1	3
407.357	1	1
407.527	1	-2
407.698	1	8
407.869	1	7
408.040	1	7
408.210	1	1
408.381	1	11
408.552	1	-10
408.722	1	-8
408.893	1	5
409.064	1	-1
409.235	1	-2
409.405	1	12
409.576	1	-7
409.747	1	5
409.917	1	1
410.088	1	3
410.259	1	-1
410.430	1	8
410.600	1	-3
410.771	1	8
410.942	1	9
411.112	1	-5
411.283	1	6
411.454	1	0
411.625	1	-3
411.795	1	1
411.966	1	8
412.137	1	9
412.307	1	4
412.478	1	14
412.649	1	4
412.819	1	6
412.990	1	15
413.161	1	1
413.332	1	5
413.502	1	5
413.673	1	2
413.844	1	5
414.014	1	-1
414.185	1	13
414.356	1	10
414.526	1	-1
414.697	1	14
414.868	1	5
415.038	1	12
415.209	1	2
415.380	1	4
415.550	1	0
415.721	1	7
415.892	1	7
416.063	1	5
416.233	1	15
416.404	1	2
416.575	1	9
416.745	1	2
416.916	1	-2
417.087	1	10
417.257	1	0
417.428	1	6
417.599	1	6
417.769	1	18
417.940	1	5
418.111	1	6
418.281	1	8
418.452	1	-6
418.623	1	-7
418.793	1	3
418.964	1	-9
419.135	1	-6
419.305	1	8
419.476	1	6
419.647	1	1
419.817	1	5
419.988	1	5
420.159	1	0
420.329	1	-3
420.500	1	-4
420.671	1	9
420.841	1	13
421.012	1	5
421.183	1	-2
421.353	1	-3
421.524	1	-5
421.695	1	4
421.865	1	6
422.036	1	0
422.206	1	4
422.377	1	1
422.548	1	0
422.718	1	4
422.889	1	2
423.060	1	-4
423.230	1	4
423.401	1	7
423.572	1	-6
423.742	1	2
423.913	1	-8
424.084	1	2
424.254	1	14
424.425	1	0
424.595	1	-4
424.766	1	2
424.937	1	3
425.107	1	-10
425.278	1	7
425.449	1	7
425.619	1	7
425.790	1	-12
425.961	1	3
426.131	1	2
426.302	1	0
426.472	1	-8
426.643	1	13
426.814	1	6
426.984	1	4
427.155	1	-2
427.326	1	3
427.496	1	-1
427.667	1	10
427.837	1	-2
428.008	1	7
428.179	1	2
428.349	1	-11
428.520	1	2
428.691	1	15
428.861	1	-1
429.032	1	14
429.202	1	7
429.373	1	5
429.544	1	10
429.714	1	-5
429.885	1	5
430.055	1	-1
430.226	1	-7
430.397	1	4
430.567	1	-3
430.738	1	7
430.909	1	1
431.079	1	-5
431.250	1	9
431.420	1	4
431.591	1	14
431.762	1	0
431.932	1	5
432.103	1	6
432.273	1	8
432.444	1	8
432.615	1	-11
432.785	1	3
432.956	1	-10
433.126	1	-1
433.297	1	8
433.468	1	-4
433.638	1	-4
433.809	1	4
433.979	1	8
434.150	1	10
434.320	1	7
434.491	1	0
434.662	1	-6
434.832	1	0
435.003	1	5
435.173	1	-13
435.344	1	5
435.515	1	10
435.685	1	4
435.856	1	2
436.026	1	3
436.197	1	-7
436.368	1	15
436.538	1	-14
436.709	1	4
436.879	1	2
437.050	1	5
437.220	1	4
437.391	1	13
437.562	1	13
437.732	1	0
437.903	1	4
438.073	1	1
438.244	1	-1
438.414	1	-14
438.585	1	-2
438.756	1	-6
438.926	1	1
439.097	1	-7
439.267	1	9
439.438	1	-6
439.608	1	-5
439.779	1	8
439.949	1	10
440.120	1	1
440.291	1	9
440.461	1	-2
440.632	1	11
440.802	1	-6
440.973	1	-5
441.143	1	8
441.314	1	-8
441.485	1	3
441.655	1	6
441.826	1	-2
441.996	1	2
442.167	1	4
442.337	1	-4
442.508	1	-2
442.678	1	-8
442.849	1	18
443.019	1	1
443.190	1	7
443.361	1	-5
443.531	1	5
443.702	1	-2
443.872	1	9
444.043	1	5
444.213	1	0
444.384	1	-5
444.554	1	15
444.725	1	6
444.895	1	-4
445.066	1	-9
445.237	1	-1
445.407	1	4
445.578	1	-9
445.748	1	1
445.919	1	-9
446.089	1	12
446.260	1	-7
446.430	1	6
446.601	1	3
446.771	1	12
446.942	1	2
447.112	1	-8
447.283	1	4
447.453	1	-10
447.624	1	6
447.794	1	5
447.965	1	-2
448.135	1	11
448.306	1	6
448.477	1	4
448.647	1	1
448.818	1	6
448.988	1	-7
449.159	1	-4
449.329	1	5
449.500	1	0
449.670	1	14
449.841	1	1
450.011	1	4
450.182	1	-6
450.352	1	1
450.523	1	-3
450.693	1	-2
450.864	1	-3
451.034	1	2
451.205	1	11
451.375	1	3
451.546	1	14
451.716	1	1
451.887	1	-7
452.057	1	2
452.228	1	0
452.398	1	-4
452.569	1	1
452.739	1	5
452.910	1	3
453.080	1	1
453.251	1	0
453.421	1	3
453.592	1	5
453.762	1	2
453.933	1	-3
454.103	1	-5
454.274	1	-2
454.444	1	-10
454.615	1	9
454.785	1	2
454.956	1	-1
455.126	1	1
455.297	1	4
455.467	1	9
455.638	1	-3
455.808	1	0
455.979	1	-6
456.149	1	10
456.320	1	6
456.490	1	8
456.661	1	1
456.831	1	12
457.001	1	5
457.172	1	-9
457.342	1	-4
457.513	1	11
457.683	1	0
457.854	1	2
458.024	1	2
458.195	1	2
458.365	1	0
458.536	1	6
458.706	1	0
458.877	1	-4
459.047	1	11
459.218	1	11
459.388	1	5
459.559	1	7
459.729	1	8
459.899	1	6
460.070	1	-4
460.240	1	1
460.411	1	-4
460.581	1	13
460.752	1	5
460.922	1	5
461.093	1	6
461.263	1	-6
461.434	1	7
461.604	1	7
461.775	1	-2
461.945	1	-4
462.115	1	4
462.286	1	1
462.456	1	2
462.627	1	6
462.797	1	3
462.968	1	0
463.138	1	-4
463.309	1	0
463.479	1	1
463.649	1	7
463.820	1	-10
463.990	1	2
464.161	1	4
464.331	1	3
464.502	1	5
464.672	1	10
464.843	1	-1
465.013	1	-2
465.183	1	-5
465.354	1	-4
465.524	1	-4
465.695	1	-4
465.865	1	1
466.036	1	-2
466.206	1	15
466.376	1	-2
466.547	1	-3
466.717	1	-5
466.888	1	12
467.058	1	3
467.229	1	3
467.399	1	7
467.569	1	16
467.740	1	-4
467.910	1	6
468.081	1	6
468.251	1	8
468.422	1	-3
468.592	1	2
468.762	1	-9
468.933	1	4
469.103	1	-5
469.274	1	6
469.444	1	-9
469.614	1	0
469.785	1	-9
469.955	1	-4
470.126	1	-3
470.296	1	1
470.467	1	-5
470.637	1	-7
470.807	1	3
470.978	1	-6
471.148	1	6
471.319	1	-3
471.489	1	7
471.659	1	2
471.830	1	4
472.000	1	-3
472.171	1	1
472.341	1	2
472.511	1	-2
472.682	1	-2
472.852	1	4
473.023	1	4
473.193	1	8
473.363	1	1
473.534	1	6
473.704	1	0
473.875	1	13
474.045	1	1
474.215	1	11
474.386	1	17
474.556	1	2
474.727	1	-3
474.897	1	3
475.067	1	-1
475.238	1	-2
475.408	1	3
475.578	1	-12
475.749	1	6
475.919	1	3
476.090	1	10
476.260	1	-3
476.430	1	1
476.601	1	4
476.771	1	-7
476.942	1	8
477.112	1	0
477.282	1	-4
477.453	1	5
477.623	1	-10
477.793	1	2
477.964	1	-1
478.134	1	-6
478.305	1	-6
478.475	1	-7
478.645	1	16
478.816	1	6
478.986	1	-1
479.156	1	5
479.327	1	-9
479.497	1	1
479.667	1	-11
479.838	1	1
480.008	1	-1
480.179	1	1
480.349	1	-3
480.519	1	2
480.690	1	-6
480.860	1	0
481.030	1	2
481.201	1	0
481.371	1	10
481.541	1	2
481.712	1	2
481.882	1	15
482.053	1	3
482.223	1	7
482.393	1	6
482.564	1	8
482.734	1	-4
482.904	1	-6
483.075	1	-6
483.245	1	4
483.415	1	4
483.586	1	8
483.756	1	13
483.926	1	-2
484.097	1	4
484.267	1	-7
484.437	1	-6
484.608	1	4
484.778	1	8
484.948	1	-2
485.119	1	-7
485.289	1	4
485.459	1	18
485.630	1	0
485.800	1	-2
485.970	1	-5
486.141	1	-1
486.311	1	2
486.481	1	10
486.652	1	5
486.822	1	7
486.992	1	8
487.163	1	3
487.333	1	6
487.503	1	7
487.674	1	4
487.844	1	2
488.014	1	-4
488.185	1	6
488.355	1	2
488.525	1	3
488.696	1	2
488.866	1	5
489.036	1	5
489.207	1	-4
489.377	1	-6
489.547	1	-1
489.718	1	-1
489.888	1	7
490.058	1	-9
490.228	1	6
490.399	1	-7
490.569	1	11
490.739	1	-5
490.910	1	2
491.080	1	13
491.250	1	1
491.421	1	0
491.591	1	0
491.761	1	-1
491.932	1	6
492.102	1	1
492.272	1	8
492.442	1	15
492.613	1	-6
492.783	1	-3
492.953	1	-2
493.124	1	9
493.294	1	-1
493.464	1	18
493.635	1	-3
493.805	1	2
493.975	1	-2
494.145	1	2
494.316	1	9
494.486	1	2
494.656	1	0
494.827	1	9
494.997	1	3
495.167	1	-1
495.337	1	12
495.508	1	-3
495.678	1	11
495.848	1	3
496.019	1	0
496.189	1	11
496.359	1	0
496.529	1	-2
496.700	1	2
496.870	1	7
497.040	1	0
497.211	1	3
497.381	1	7
497.551	1	5
497.721	1	-1
497.892	1	9
498.062	1	6
498.232	1	3
498.403	1	9
498.573	1	-6
498.743	1	5
498.913	1	2
499.084	1	0
499.254	1	4
499.424	1	4
499.594	1	11
499.765	1	-1
499.935	1	11
500.105	1	-1
500.275	1	4
500.446	1	-5
500.616	1	-1
500.786	1	-3
500.956	1	1
501.127	1	5
501.297	1	1
501.467	1	0
501.638	1	-8
501.808	1	12
501.978	1	12
502.148	1	3
502.319	1	10
502.489	1	0
502.659	1	5
502.829	1	0
503.000	1	4
503.170	1	8
503.340	1	13
503.510	1	10
503.681	1	-1
503.851	1	-1
504.021	1	8
504.191	1	12
504.362	1	0
504.532	1	13
504.702	1	5
504.872	1	5
505.042	1	2
505.213	1	16
505.383	1	-4
505.553	1	-3
505.723	1	-8
505.894	1	-1
506.064	1	9
506.234	1	16
506.404	1	14
506.575	1	8
506.745	1	7
506.915	1	11
507.085	1	-5
507.256	1	9
507.426	1	9
507.596	1	7
507.766	1	1
507.936	1	8
508.107	1	0
508.277	1	1
508.447	1	10
508.617	1	12
508.788	1	14
508.958	1	-2
509.128	1	7
509.298	1	-5
509.468	1	5
509.639	1	-1
509.809	1	7
509.979	1	0
510.149	1	7
510.319	1	12
510.490	1	6
510.660	1	-1
510.830	1	9
511.000	1	-8
511.171	1	8
511.341	1	15
511.511	1	8
511.681	1	7
511.851	1	11
512.022	1	2
512.192	1	4
512.362	1	-2
512.532	1	9
512.702	1	1
512.873	1	11
513.043	1	13
513.213	1	5
513.383	1	-16
513.553	1	-10
513.724	1	10
513.894	1	-2
514.064	1	13
514.234	1	8
514.404	1	9
514.575	1	11
514.745	1	0
514.915	1	7
515.085	1	0
515.255	1	4
515.425	1	-1
515.596	1	5
515.766	1	-2
515.936	1	1
516.106	1	4
516.276	1	-9
516.447	1	13
516.617	1	15
516.787	1	7
516.957	1	7
517.127	1	7
517.297	1	1
517.468	1	10
517.638	1	9
517.808	1	-8
517.978	1	9
518.148	1	18
518.319	1	13
518.489	1	-6
518.659	1	-3
518.829	1	9
518.999	1	5
519.169	1	3
519.340	1	12
519.510	1	9
519.680	1	14
519.850	1	11
520.020	1	16
520.190	1	1
520.361	1	8
520.531	1	4
520.701	1	10
520.871	1	9
521.041	1	20
521.211	1	-1
521.382	1	4
521.552	1	12
521.722	1	9
521.892	1	8
522.062	1	12
522.232	1	13
522.402	1	5
522.573	1	2
522.743	1	13
522.913	1	6
523.083	1	5
523.253	1	6
523.423	1	21
523.593	1	-2
523.764	1	3
523.934	1	4
524.104	1	6
524.274	1	9
524.444	1	8
524.614	1	14
524.784	1	1
524.955	1	3
525.125	1	5
525.295	1	7
525.465	1	13
525.635	1	8
525.805	1	-1
525.975	1	11
526.146	1	6
526.316	1	17
526.486	1	7
526.656	1	8
526.826	1	1
526.996	1	12
527.166	1	1
527.337	1	8
527.507	1	13
527.677	1	13
527.847	1	4
528.017	1	8
528.187	1	8
528.357	1	12
528.527	1	4
528.698	1	7
528.868	1	3
529.038	1	5
529.208	1	2
529.378	1	15
529.548	1	3
529.718	1	11
529.888	1	19
530.058	1	6
530.229	1	5
530.399	1	14
530.569	1	-9
530.739	1	8
530.909	1	-7
531.079	1	24
531.249	1	12
531.419	1	11
531.589	1	12
531.760	1	6
531.930	1	12
532.100	1	8
532.270	1	9
532.440	1	15
532.610	1	11
532.780	1	5
532.950	1	10
533.120	1	15
533.290	1	10
533.461	1	7
533.631	1	17
533.801	1	21
533.971	1	0
534.141	1	1
534.311	1	17
534.481	1	-5
534.651	1	8
534.821	1	7
534.991	1	-1
535.162	1	18
535.332	1	8
535.502	1	5
535.672	1	10
535.842	1	9
536.012	1	14
536.182	1	9
536.352	1	6
536.522	1	11
536.692	1	9
536.862	1	11
537.032	1	11
537.203	1	1
537.373	1	12
537.543	1	-2
537.713	1	15
537.883	1	12
538.053	1	8
538.223	1	4
538.393	1	15
538.563	1	8
538.733	1	10
538.903	1	-4
539.073	1	7
539.243	1	12
539.413	1	12
539.584	1	9
539.754	1	19
539.924	1	12
540.094	1	15
540.264	1	5
540.434	1	2
540.604	1	14
540.774	1	22
540.944	1	4
541.114	1	-3
541.284	1	14
541.454	1	9
541.624	1	6
541.794	1	8
541.964	1	19
542.134	1	7
542.305	1	6
542.475	1	14
542.645	1	20
542.815	1	13
542.985	1	14
543.155	1	7
543.325	1	5
543.495	1	7
543.665	1	11
543.835	1	11
544.005	1	16
544.175	1	5
544.345	1	6
544.515	1	2
544.685	1	10
544.855	1	12
545.025	1	4
545.195	1	4
545.365	1	5
545.535	1	12
545.705	1	11
545.875	1	-7
546.045	1	1
546.216	1	9
546.386	1	11
546.556	1	3
546.726	1	-5
546.896	1	14
547.066	1	8
547.236	1	8
547.406	1	12
547.576	1	18
547.746	1	-2
547.916	1	4
548.086	1	16
548.256	1	12
548.426	1	8
548.596	1	10
548.766	1	12
548.936	1	13
549.106	1	12
549.276	1	3
549.446	1	8
549.616	1	9
549.786	1	1
549.956	1	13
550.126	1	18
550.296	1	6
550.466	1	13
550.636	1	22
550.806	1	13
550.976	1	12
551.146	1	13
551.316	1	8
551.486	1	11
551.656	1	23
551.826	1	12
551.996	1	22
552.166	1	6
552.336	1	6
552.506	1	17
552.676	1	16
552.846	1	5
553.016	1	19
553.186	1	13
553.356	1	6
553.526	1	7
553.696	1	29
553.866	1	9
554.036	1	17
554.206	1	14
554.376	1	14
554.546	1	11
554.716	1	12
554.886	1	2
555.056	1	19
555.226	1	4
555.396	1	2
555.566	1	14
555.736	1	12
555.906	1	14
556.076	1	8
556.246	1	12
556.416	1	6
556.586	1	6
556.756	1	10
556.926	1	8
557.096	1	8
557.266	1	6
557.436	1	2
557.606	1	20
557.776	1	14
557.946	1	13
558.116	1	3
558.286	1	6
558.456	1	0
558.626	1	11
558.796	1	18
558.966	1	6
559.136	1	15
559.306	1	6
559.476	1	10
559.646	1	6
559.816	1	6
559.986	1	-7
560.155	1	20
560.325	1	11
560.495	1	6
560.665	1	7
560.835	1	15
561.005	1	5
561.175	1	12
561.345	1	11
561.515	1	3
561.685	1	11
561.855	1	1
562.025	1	7
562.195	1	13
562.365	1	21
562.535	1	10
562.705	1	9
562.875	1	6
563.045	1	0
563.215	1	15
563.385	1	-6
563.555	1	13
563.725	1	12
563.895	1	4
564.064	1	8
564.234	1	10
564.404	1	16
564.574	1	15
564.744	1	4
564.914	1	-1
565.084	1	10
565.254	1	9
565.424	1	7
565.594	1	4
565.764	1	11
565.934	1	9
566.104	1	6
566.274	1	8
566.444	1	4
566.614	1	3
566.783	1	9
566.953	1	14
567.123	1	12
567.293	1	10
567.463	1	13
567.633	1	12
567.803	1	7
567.973	1	1
568.143	1	8
568.313	1	17
568.483	1	7
568.653	1	0
568.823	1	7
568.993	1	12
569.162	1	12
569.332	1	13
569.502	1	9
569.672	1	21
569.842	1	15
570.012	1	16
570.182	1	3
570.352	1	9
570.522	1	-5
570.692	1	11
570.862	1	8
571.031	1	7
571.201	1	17
571.371	1	13
571.541	1	19
571.711	1	13
571.881	1	18
572.051	1	4
572.221	1	5
572.391	1	-3
572.561	1	14
572.731	1	18
572.900	1	-5
573.070	1	6
573.240	1	0
573.410	1	18
573.580	1	13
573.750	1	11
573.920	1	4
574.090	1	12
574.260	1	15
574.430	1	10
574.599	1	6
574.769	1	8
574.939	1	17
575.109	1	7
575.279	1	21
575.449	1	8
575.619	1	9
575.789	1	-4
575.959	1	-8
576.128	1	-4
576.298	1	14
576.468	1	14
576.638	1	0
576.808	1	5
576.978	1	11
577.148	1	16
577.318	1	8
577.487	1	6
577.657	1	3
577.827	1	1
577.997	1	1
578.167	1	11
578.337	1	20
578.507	1	14
578.677	1	12
578.846	1	15
579.016	1	14
579.186	1	3
579.356	1	3
579.526	1	9
579.696	1	11
579.866	1	12
580.036	1	7
580.205	1	16
580.375	1	20
580.545	1	5
580.715	1	0
580.885	1	15
581.055	1	14
581.225	1	8
581.394	1	14
581.564	1	19
581.734	1	13
581.904	1	17
582.074	1	2
582.244	1	4
582.414	1	12
582.583	1	15
582.753	1	13
582.923	1	-2
583.093	1	6
583.263	1	4
583.433	1	3
583.603	1	15
583.772	1	11
583.942	1	-2
584.112	1	6
584.282	1	6
584.452	1	14
584.622	1	7
584.791	1	-3
584.961	1	13
585.131	1	12
585.301	1	8
585.471	1	16
585.641	1	-1
585.811	1	14
585.980	1	10
586.150	1	13
586.320	1	12
586.490	1	7
586.660	1	12
586.830	1	11
586.999	1	8
587.169	1	14
587.339	1	15
587.509	1	4
587.679	1	13
587.849	1	5
588.018	1	3
588.188	1	16
588.358	1	9
588.528	1	9
588.698	1	12
588.867	1	7
589.037	1	12
589.207	1	8
589.377	1	10
589.547	1	8
589.717	1	11
589.886	1	-7
590.056	1	-4
590.226	1	11
590.396	1	13
590.566	1	3
590.735	1	9
590.905	1	13
591.075	1	8
591.245	1	4
591.415	1	-3
591.585	1	13
591.754	1	12
591.924	1	4
592.094	1	8
592.264	1	5
592.434	1	11
592.603	1	3
592.773	1	11
592.943	1	5
593.113	1	10
593.283	1	4
593.452	1	7
593.622	1	4
593.792	1	18
593.962	1	6
594.132	1	3
594.301	1	11
594.471	1	12
594.641	1	-3
594.811	1	10
594.981	1	2
595.150	1	5
595.320	1	9
595.490	1	14
595.660	1	6
595.829	1	14
595.999	1	-1
596.169	1	12
596.339	1	10
596.509	1	-3
596.678	1	5
596.848	1	1
597.018	1	-1
597.188	1	8
597.358	1	13
597.527	1	2
597.697	1	14
597.867	1	15
598.037	1	7
598.206	1	3
598.376	1	6
598.546	1	12
598.716	1	10
598.885	1	-4
599.055	1	11
599.225	1	3
599.395	1	16
599.565	1	-16
599.734	1	15
599.904	1	18
600.074	1	2
600.244	1	-8
600.413	1	20
600.583	1	20
600.753	1	14
600.923	1	7
601.092	1	18
601.262	1	8
601.432	1	6
601.602	1	12
601.771	1	17
601.941	1	4
602.111	1	17
602.281	1	11
602.451	1	12
602.620	1	6
602.790	1	11
602.960	1	8
603.130	1	17
603.299	1	3
603.469	1	1
603.639	1	4
603.809	1	12
603.978	1	7
604.148	1	4
604.318	1	8
604.487	1	10
604.657	1	2
604.827	1	12
604.997	1	7
605.166	1	11
605.336	1	17
605.506	1	10
605.676	1	-2
605.845	1	6
606.015	1	3
606.185	1	14
606.355	1	9
606.524	1	8
606.694	1	2
606.864	1	1
607.034	1	5
607.203	1	6
607.373	1	0
607.543	1	3
607.712	1	6
607.882	1	12
608.052	1	2
608.222	1	11
608.391	1	15
608.561	1	8
608.731	1	8
608.901	1	7
609.070	1	9
609.240	1	3
609.410	1	10
609.579	1	16
609.749	1	7
609.919	1	19
610.089	1	4
610.258	1	19
610.428	1	9
610.598	1	4
610.767	1	10
610.937	1	9
611.107	1	9
611.277	1	2
611.446	1	19
611.616	1	8
611.786	1	14
611.955	1	7
612.125	1	9
612.295	1	6
612.465	1	10
612.634	1	12
612.804	1	12
612.974	1	-8
613.143	1	4
613.313	1	19
613.483	1	4
613.652	1	7
613.822	1	5
613.992	1	10
614.162	1	23
614.331	1	4
614.501	1	2
614.671	1	17
614.840	1	6
615.010	1	-7
615.180	1	-2
615.349	1	8
615.519	1	-4
615.689	1	16
615.858	1	13
616.028	1	4
616.198	1	10
616.368	1	8
616.537	1	5
616.707	1	1
616.877	1	6
617.046	1	11
617.216	1	2
617.386	1	1
617.555	1	9
617.725	1	2
617.895	1	11
618.064	1	-1
618.234	1	8
618.404	1	6
618.573	1	2
618.743	1	15
618.913	1	10
619.082	1	-1
619.252	1	5
619.422	1	0
619.591	1	-6
619.761	1	2
619.931	1	11
620.100	1	9
620.270	1	-1
620.440	1	3
620.609	1	9
620.779	1	7
620.949	1	7
621.118	1	-1
621.288	1	10
621.458	1	8
621.627	1	7
621.797	1	13
621.967	1	0
622.136	1	15
622.306	1	2
622.476	1	12
622.645	1	14
622.815	1	18
622.985	1	6
623.154	1	4
623.324	1	2
623.494	1	8
623.663	1	13
623.833	1	14
624.002	1	-1
624.172	1	-1
624.342	1	20
624.511	1	12
624.681	1	20
624.851	1	-12
625.020	1	9
625.190	1	-3
625.360	1	1
625.529	1	5
625.699	1	0
625.869	1	14
626.038	1	2
626.208	1	4
626.377	1	4
626.547	1	14
626.717	1	4
626.886	1	12
627.056	1	-12
627.226	1	0
627.395	1	6
627.565	1	3
627.735	1	8
627.904	1	6
628.074	1	10
628.243	1	4
628.413	1	16
628.583	1	5
628.752	1	7
628.922	1	8
629.091	1	-3
629.261	1	12
629.431	1	2
629.600	1	15
629.770	1	-9
629.940	1	4
630.109	1	-8
630.279	1	0
630.448	1	5
630.618	1	8
630.788	1	6
630.957	1	2
631.127	1	12
631.297	1	4
631.466	1	12
631.636	1	-2
631.805	1	0
631.975	1	13
632.145	1	7
632.314	1	3
632.484	1	8
632.653	1	11
632.823	1	9
632.993	1	-1
633.162	1	17
633.332	1	4
633.501	1	6
633.671	1	-1
633.841	1	3
634.010	1	3
634.180	1	0
634.349	1	12
634.519	1	4
634.689	1	8
634.858	1	3
635.028	1	7
635.197	1	12
635.367	1	-3
635.537	1	2
635.706	1	3
635.876	1	0
636.045	1	6
636.215	1	6
636.384	1	-2
636.554	1	8
636.724	1	7
636.893	1	6
637.063	1	4
637.232	1	2
637.402	1	7
637.572	1	-2
637.741	1	2
637.911	1	6
638.080	1	9
638.250	1	2
638.419	1	3
638.589	1	7
638.759	1	-1
638.928	1	0
639.098	1	11
639.267	1	7
639.437	1	12
639.606	1	6
639.776	1	6
639.946	1	13
640.115	1	-5
640.285	1	10
640.454	1	4
640.624	1	2
640.793	1	9
640.963	1	0
641.132	1	12
641.302	1	8
641.472	1	7
641.641	1	-8
641.811	1	4
641.980	1	6
642.150	1	-10
642.319	1	2
642.489	1	9
642.659	1	5
642.828	1	-2
642.998	1	7
643.167	1	2
643.337	1	1
643.506	1	-4
643.676	1	7
643.845	1	10
644.015	1	1
644.184	1	5
644.354	1	9
644.524	1	-2
644.693	1	9
644.863	1	-4
645.032	1	6
645.202	1	1
645.371	1	11
645.541	1	12
645.710	1	0
645.880	1	3
646.049	1	1
646.219	1	8
646.388	1	-1
646.558	1	7
646.728	1	8
646.897	1	8
647.067	1	8
647.236	1	6
647.406	1	1
647.575	1	1
647.745	1	-2
647.914	1	5
648.084	1	-2
648.253	1	17
648.423	1	2
648.592	1	-4
648.762	1	18
648.931	1	9
649.101	1	3
649.270	1	5
649.440	1	1
649.610	1	9
649.779	1	6
649.949	1	5
650.118	1	12
650.288	1	13
650.457	1	7
650.627	1	3
650.796	1	6
650.966	1	14
651.135	1	-7
651.305	1	1
651.474	1	4
651.644	1	24
651.813	1	9
651.983	1	5
652.152	1	12
652.322	1	5
652.491	1	-1
652.661	1	1
652.830	1	4
653.000	1	-5
653.169	1	7
653.339	1	15
653.508	1	10
653.678	1	6
653.847	1	20
654.017	1	3
654.186	1	4
654.356	1	-8
654.525	1	5
654.695	1	6
654.864	1	-7
655.034	1	5
655.203	1	1
655.373	1	11
655.542	1	10
655.712	1	12
655.881	1	-2
656.051	1	5
656.220	1	-3
656.390	1	-4
656.559	1	3
656.729	1	4
656.898	1	-2
657.068	1	4
657.237	1	3
657.406	1	5
657.576	1	8
657.745	1	-6
657.915	1	5
658.084	1	8
658.254	1	0
658.423	1	9
658.593	1	3
658.762	1	4
658.932	1	0
659.101	1	12
659.271	1	7
659.440	1	0
659.610	1	-1
659.779	1	3
659.949	1	-1
660.118	1	6
660.288	1	8
660.457	1	-2
660.626	1	12
660.796	1	-10
660.965	1	8
661.135	1	0
661.304	1	9
661.474	1	-3
661.643	1	6
661.813	1	16
661.982	1	11
662.152	1	4
662.321	1	9
662.491	1	0
662.660	1	7
662.829	1	-3
662.999	1	4
663.168	1	8
663.338	1	14
663.507	1	14
663.677	1	1
663.846	1	0
664.016	1	-2
664.185	1	8
664.354	1	16
664.524	1	1
664.693	1	17
664.863	1	2
665.032	1	4
665.202	1	-1
665.371	1	7
665.541	1	-7
665.710	1	13
665.879	1	0
666.049	1	-7
666.218	1	-1
666.388	1	9
666.557	1	6
666.727	1	1
666.896	1	-1
667.065	1	1
667.235	1	1
667.404	1	12
667.574	1	5
667.743	1	1
667.913	1	1
668.082	1	5
668.251	1	-3
668.421	1	-4
668.590	1	6
668.760	1	-1
668.929	1	-4
669.099	1	4
669.268	1	11
669.437	1	10
669.607	1	2
669.776	1	6
669.946	1	7
670.115	1	11
670.285	1	1
670.454	1	-3
670.623	1	6
670.793	1	0
670.962	1	5
671.132	1	19
671.301	1	6
671.470	1	7
671.640	1	5
671.809	1	10
671.979	1	3
672.148	1	0
672.317	1	8
672.487	1	4
672.656	1	5
672.826	1	0
672.995	1	11
673.164	1	7
673.334	1	4
673.503	1	4
673.673	1	7
673.842	1	-5
674.011	1	3
674.181	1	10
674.350	1	9
674.520	1	2
674.689	1	-2
674.858	1	2
675.028	1	2
675.197	1	-12
675.367	1	6
675.536	1	13
675.705	1	10
675.875	1	2
676.044	1	-2
676.214	1	5
676.383	1	17
676.552	1	5
676.722	1	5
676.891	1	15
677.060	1	-9
677.230	1	2
677.399	1	-4
677.569	1	0
677.738	1	-2
677.907	1	6
678.077	1	15
678.246	1	2
678.416	1	0
678.585	1	14
678.754	1	1
678.924	1	-2
679.093	1	4
679.262	1	2
679.432	1	-1
679.601	1	-1
679.771	1	5
679.940	1	8
680.109	1	6
680.279	1	-4
680.448	1	0
680.617	1	3
680.787	1	3
680.956	1	6
681.125	1	6
681.295	1	0
681.464	1	1
681.634	1	4
681.803	1	2
681.972	1	-2
682.142	1	13
682.311	1	13
682.480	1	12
682.650	1	3
682.819	1	3
682.988	1	5
683.158	1	4
683.327	1	-2
683.496	1	9
683.666	1	-1
683.835	1	12
684.004	1	7
684.174	1	-2
684.343	1	5
684.512	1	10
684.682	1	-6
684.851	1	6
685.021	1	-12
685.190	1	2
685.359	1	10
685.529	1	11
685.698	1	9
685.867	1	7
686.037	1	9
686.206	1	5
686.375	1	24
686.545	1	0
686.714	1	2
686.883	1	0
687.053	1	6
687.222	1	13
687.391	1	6
687.561	1	9
687.730	1	5
687.899	1	8
688.069	1	0
688.238	1	7
688.407	1	3
688.577	1	-2
688.746	1	1
