340.368	1	6
340.539	1	-17
340.710	1	-5
340.881	1	-9
341.052	1	13
341.223	1	4
341.394	1	-1
341.565	1	-13
341.737	1	4
341.908	1	1
342.079	1	-7
342.250	1	-7
342.421	1	-6
342.592	1	4
342.763	1	5
342.934	1	-3
343.105	1	4
343.276	1	3
343.447	1	-5
343.618	1	0
343.789	1	-3
343.960	1	-2
344.131	1	-8
344.302	1	6
344.473	1	-1
344.644	1	-1
344.815	1	4
344.986	1	5
345.157	1	0
345.328	1	-3
345.499	1	3
345.670	1	1
345.841	1	6
346.012	1	-3
346.183	1	-10
346.354	1	2
346.526	1	1
346.697	1	4
346.868	1	10
347.039	1	13
347.210	1	-7
347.381	1	8
347.552	1	-3
347.723	1	5
347.894	1	2
348.065	1	1
348.236	1	10
348.407	1	2
348.578	1	-4
348.749	1	-11
348.920	1	2
349.091	1	2
349.262	1	-2
349.433	1	6
349.604	1	8
349.775	1	15
349.946	1	-3
350.117	1	-4
350.288	1	11
350.459	1	-5
350.630	1	5
350.801	1	-7
350.972	1	-1
351.143	1	-6
351.314	1	9
351.485	1	11
351.656	1	8
351.827	1	5
351.998	1	3
352.169	1	4
352.340	1	7
352.511	1	3
352.682	1	9
352.853	1	3
353.024	1	13
353.195	1	4
353.366	1	9
353.537	1	6
353.708	1	10
353.879	1	9
354.050	1	-4
354.221	1	-9
354.392	1	-1
354.563	1	6
354.734	1	2
354.905	1	10
355.076	1	12
355.247	1	9
355.418	1	-11
355.589	1	0
355.760	1	1
355.931	1	-1
356.102	1	10
356.273	1	-1
356.444	1	13
356.615	1	2
356.785	1	8
356.956	1	6
357.127	1	7
357.298	1	3
357.469	1	0
357.640	1	5
357.811	1	7
357.982	1	3
358.153	1	9
358.324	1	4
358.495	1	6
358.666	1	7
358.837	1	-3
359.008	1	-3
359.179	1	3
359.350	1	-1
359.521	1	10
359.692	1	8
359.863	1	2
360.034	1	7
360.205	1	6
360.376	1	10
360.547	1	10
360.718	1	8
360.889	1	0
361.060	1	14
361.231	1	17
361.401	1	10
361.572	1	19
361.743	1	5
361.914	1	10
362.085	1	24
362.256	1	12
362.427	1	21
362.598	1	4
362.769	1	11
362.940	1	2
363.111	1	11
363.282	1	14
363.453	1	4
363.624	1	14
363.795	1	15
363.966	1	8
364.137	1	24
364.308	1	18
364.478	1	29
364.649	1	17
364.820	1	13
364.991	1	27
365.162	1	33
365.333	1	21
365.504	1	34
365.675	1	24
365.846	1	30
366.017	1	24
366.188	1	23
366.359	1	28
366.530	1	30
366.701	1	23
366.871	1	21
367.042	1	36
367.213	1	43
367.384	1	40
367.555	1	34
367.726	1	28
367.897	1	39
368.068	1	31
368.239	1	34
368.410	1	49
368.581	1	24
368.752	1	35
368.923	1	35
369.093	1	35
369.264	1	38
369.435	1	41
369.606	1	31
369.777	1	37
369.948	1	45
370.119	1	39
370.290	1	36
370.461	1	45
370.632	1	43
370.803	1	51
370.973	1	36
371.144	1	31
371.315	1	28
371.486	1	43
371.657	1	44
371.828	1	35
371.999	1	38
372.170	1	32
372.341	1	42
372.512	1	32
372.682	1	45
372.853	1	27
373.024	1	23
373.195	1	26
373.366	1	36
373.537	1	23
373.708	1	30
373.879	1	21
374.050	1	28
374.220	1	28
374.391	1	28
374.562	1	36
374.733	1	34
374.904	1	26
375.075	1	21
375.246	1	17
375.417	1	24
375.588	1	25
375.758	1	20
375.929	1	32
376.100	1	30
376.271	1	24
376.442	1	18
376.613	1	19
376.784	1	16
376.955	1	11
377.125	1	20
377.296	1	19
377.467	1	10
377.638	1	8
377.809	1	32
377.980	1	13
378.151	1	30
378.321	1	6
378.492	1	15
378.663	1	12
378.834	1	6
379.005	1	31
379.176	1	18
379.347	1	18
379.518	1	16
379.688	1	14
379.859	1	12
380.030	1	9
380.201	1	9
380.372	1	12
380.543	1	16
380.714	1	18
380.884	1	11
381.055	1	20
381.226	1	-6
381.397	1	12
381.568	1	12
381.739	1	16
381.910	1	6
382.080	1	19
382.251	1	13
382.422	1	7
382.593	1	13
382.764	1	-3
382.935	1	-1
383.105	1	7
383.276	1	21
383.447	1	5
383.618	1	9
383.789	1	-7
383.960	1	0
384.130	1	6
384.301	1	8
384.472	1	0
384.643	1	22
384.814	1	8
384.985	1	6
385.156	1	0
385.326	1	16
385.497	1	12
385.668	1	3
385.839	1	6
386.010	1	5
386.180	1	10
386.351	1	4
386.522	1	2
386.693	1	1
386.864	1	12
387.035	1	11
387.205	1	2
387.376	1	16
387.547	1	7
387.718	1	13
387.889	1	3
388.060	1	9
388.230	1	15
388.401	1	-7
388.572	1	1
388.743	1	1
388.914	1	8
389.084	1	-3
389.255	1	2
389.426	1	3
389.597	1	15
389.768	1	7
389.939	1	10
390.109	1	0
390.280	1	11
390.451	1	1
390.622	1	0
390.793	1	1
390.963	1	13
391.134	1	4
391.305	1	6
391.476	1	-3
391.647	1	3
391.817	1	-4
391.988	1	15
392.159	1	-3
392.330	1	10
392.501	1	14
392.671	1	0
392.842	1	4
393.013	1	2
393.184	1	10
393.355	1	4
393.525	1	0
393.696	1	3
393.867	1	0
394.038	1	7
394.208	1	3
394.379	1	2
394.550	1	10
394.721	1	4
394.892	1	7
395.062	1	3
395.233	1	3
395.404	1	0
395.575	1	8
395.746	1	12
395.916	1	-2
396.087	1	1
396.258	1	5
396.429	1	11
396.599	1	7
396.770	1	1
396.941	1	2
397.112	1	4
397.283	1	3
397.453	1	13
397.624	1	-7
397.795	1	1
397.966	1	1
398.136	1	-1
398.307	1	8
398.478	1	3
398.649	1	-10
398.819	1	5
398.990	1	1
399.161	1	15
399.332	1	2
399.503	1	9
399.673	1	5
399.844	1	-1
400.015	1	1
400.186	1	-1
400.356	1	-6
400.527	1	5
400.698	1	-5
400.869	1	2
401.039	1	12
401.210	1	-2
401.381	1	-1
401.552	1	-2
401.722	1	8
401.893	1	0
402.064	1	2
402.235	1	-2
402.405	1	7
402.576	1	-5
402.747	1	1
402.918	1	9
403.088	1	7
403.259	1	0
403.430	1	-1
403.601	1	-7
403.771	1	12
403.942	1	15
404.113	1	0
404.284	1	10
404.454	1	0
404.625	1	8
404.796	1	6
404.967	1	5
405.137	1	11
405.308	1	2
405.479	1	6
405.649	1	-2
405.820	1	-8
405.991	1	-3
406.162	1	4
406.332	1	4
406.503	1	8
406.674	1	-3
406.845	1	20
407.015	1	1
407.186	1	4
407.357	1	-2
407.527	1	-12
407.698	1	3
407.869	1	-2
408.040	1	-6
408.210	1	5
408.381	1	2
408.552	1	-6
408.722	1	-7
408.893	1	5
409.064	1	-1
409.235	1	-2
409.405	1	1
409.576	1	-5
409.747	1	-1
409.917	1	-3
410.088	1	0
410.259	1	3
410.430	1	7
410.600	1	-3
410.771	1	10
410.942	1	8
411.112	1	-3
411.283	1	14
411.454	1	-6
411.625	1	10
411.795	1	3
411.966	1	6
412.137	1	7
412.307	1	-3
412.478	1	17
412.649	1	0
412.819	1	1
412.990	1	3
413.161	1	0
413.332	1	9
413.502	1	0
413.673	1	3
413.844	1	13
414.014	1	2
414.185	1	10
414.356	1	5
414.526	1	-5
414.697	1	3
414.868	1	-5
415.038	1	10
415.209	1	-6
415.380	1	-4
415.550	1	-14
415.721	1	5
415.892	1	-3
416.063	1	-4
416.233	1	1
416.404	1	-2
416.575	1	2
416.745	1	-6
416.916	1	-3
417.087	1	1
417.257	1	0
417.428	1	-6
417.599	1	11
417.769	1	9
417.940	1	1
418.111	1	1
418.281	1	4
418.452	1	-13
418.623	1	4
418.793	1	4
418.964	1	-11
419.135	1	0
419.305	1	6
419.476	1	8
419.647	1	-4
419.817	1	9
419.988	1	-2
420.159	1	3
420.329	1	-7
420.500	1	3
420.671	1	4
420.841	1	18
421.012	1	-3
421.183	1	5
421.353	1	-7
421.524	1	1
421.695	1	-5
421.865	1	2
422.036	1	2
422.206	1	-2
422.377	1	3
422.548	1	-1
422.718	1	14
422.889	1	-2
423.060	1	3
423.230	1	-2
423.401	1	1
423.572	1	0
423.742	1	4
423.913	1	-11
424.084	1	-1
424.254	1	1
424.425	1	-1
424.595	1	-2
424.766	1	-1
424.937	1	4
425.107	1	-6
425.278	1	12
425.449	1	-10
425.619	1	3
425.790	1	-3
425.961	1	-7
426.131	1	-1
426.302	1	6
426.472	1	4
426.643	1	11
426.814	1	3
426.984	1	-3
427.155	1	-13
427.326	1	7
427.496	1	-4
427.667	1	9
427.837	1	4
428.008	1	-9
428.179	1	-3
428.349	1	-9
428.520	1	-3
428.691	1	11
428.861	1	-4
429.032	1	9
429.202	1	-2
429.373	1	11
429.544	1	3
429.714	1	1
429.885	1	6
430.055	1	0
430.226	1	-8
430.397	1	2
430.567	1	-1
430.738	1	11
430.909	1	-4
431.079	1	-3
431.250	1	-9
431.420	1	8
431.591	1	6
431.762	1	8
431.932	1	-3
432.103	1	5
432.273	1	-7
432.444	1	11
432.615	1	-10
432.785	1	0
432.956	1	-11
433.126	1	-1
433.297	1	7
433.468	1	-12
433.638	1	-1
433.809	1	5
433.979	1	14
434.150	1	7
434.320	1	4
434.491	1	-4
434.662	1	-4
434.832	1	1
435.003	1	7
435.173	1	-6
435.344	1	2
435.515	1	6
435.685	1	-1
435.856	1	0
436.026	1	8
436.197	1	-7
436.368	1	5
436.538	1	-6
436.709	1	-16
436.879	1	-3
437.050	1	4
437.220	1	2
437.391	1	8
437.562	1	0
437.732	1	-6
437.903	1	2
438.073	1	2
438.244	1	6
438.414	1	-6
438.585	1	-5
438.756	1	-6
438.926	1	1
439.097	1	-4
439.267	1	3
439.438	1	-4
439.608	1	-5
439.779	1	1
439.949	1	-2
440.120	1	3
440.291	1	0
440.461	1	2
440.632	1	1
440.802	1	-8
440.973	1	-9
441.143	1	10
441.314	1	-5
441.485	1	0
441.655	1	4
441.826	1	-12
441.996	1	1
442.167	1	1
442.337	1	2
442.508	1	-8
442.678	1	2
442.849	1	10
443.019	1	7
443.190	1	1
443.361	1	-6
443.531	1	11
443.702	1	3
443.872	1	6
444.043	1	-1
444.213	1	-3
444.384	1	-7
444.554	1	10
444.725	1	-9
444.895	1	-6
445.066	1	-3
445.237	1	5
445.407	1	8
445.578	1	-10
445.748	1	-5
445.919	1	-4
446.089	1	6
446.260	1	-5
446.430	1	-1
446.601	1	2
446.771	1	10
446.942	1	8
447.112	1	-3
447.283	1	-4
447.453	1	-7
447.624	1	1
447.794	1	3
447.965	1	-4
448.135	1	-6
448.306	1	-1
448.477	1	-1
448.647	1	-4
448.818	1	5
448.988	1	8
449.159	1	-8
449.329	1	-2
449.500	1	1
449.670	1	11
449.841	1	12
450.011	1	1
450.182	1	-1
450.352	1	-1
450.523	1	-2
450.693	1	2
450.864	1	4
451.034	1	-4
451.205	1	2
451.375	1	2
451.546	1	-4
451.716	1	-3
451.887	1	-14
452.057	1	2
452.228	1	-3
452.398	1	7
452.569	1	-12
452.739	1	2
452.910	1	7
453.080	1	-9
453.251	1	3
453.421	1	-8
453.592	1	6
453.762	1	0
453.933	1	0
454.103	1	4
454.274	1	-6
454.444	1	-4
454.615	1	13
454.785	1	-1
454.956	1	2
455.126	1	-2
455.297	1	7
455.467	1	1
455.638	1	-4
455.808	1	1
455.979	1	-5
456.149	1	7
456.320	1	-3
456.490	1	1
456.661	1	5
456.831	1	0
457.001	1	-2
457.172	1	0
457.342	1	3
457.513	1	10
457.683	1	6
457.854	1	3
458.024	1	-5
458.195	1	1
458.365	1	2
458.536	1	1
458.706	1	1
458.877	1	2
459.047	1	5
459.218	1	-7
459.388	1	6
459.559	1	5
459.729	1	11
459.899	1	-5
460.070	1	-2
460.240	1	7
460.411	1	-3
460.581	1	16
460.752	1	3
460.922	1	4
461.093	1	2
461.263	1	-8
461.434	1	1
461.604	1	-8
461.775	1	0
461.945	1	3
462.115	1	5
462.286	1	-1
462.456	1	-6
462.627	1	11
462.797	1	-7
462.968	1	3
463.138	1	5
463.309	1	-3
463.479	1	-2
463.649	1	-3
463.820	1	1
463.990	1	0
464.161	1	6
464.331	1	-4
464.502	1	-1
464.672	1	-2
464.843	1	3
465.013	1	4
465.183	1	-8
465.354	1	5
465.524	1	11
465.695	1	1
465.865	1	-4
466.036	1	-5
466.206	1	15
466.376	1	-3
466.547	1	2
466.717	1	-3
466.888	1	2
467.058	1	-2
467.229	1	-2
467.399	1	5
467.569	1	12
467.740	1	1
467.910	1	2
468.081	1	4
468.251	1	-4
468.422	1	-7
468.592	1	4
468.762	1	-4
468.933	1	-7
469.103	1	-9
469.274	1	12
469.444	1	7
469.614	1	-1
469.785	1	-4
469.955	1	-3
470.126	1	-11
470.296	1	5
470.467	1	6
470.637	1	0
470.807	1	5
470.978	1	-1
471.148	1	8
471.319	1	-7
471.489	1	-1
471.659	1	-10
471.830	1	-5
472.000	1	-8
472.171	1	6
472.341	1	1
472.511	1	1
472.682	1	1
472.852	1	-3
473.023	1	13
473.193	1	5
473.363	1	0
473.534	1	6
473.704	1	-13
473.875	1	13
474.045	1	0
474.215	1	8
474.386	1	13
474.556	1	1
474.727	1	-3
474.897	1	6
475.067	1	2
475.238	1	-3
475.408	1	3
475.578	1	-4
475.749	1	-5
475.919	1	-5
476.090	1	11
476.260	1	-7
476.430	1	5
476.601	1	4
476.771	1	-6
476.942	1	2
477.112	1	4
477.282	1	3
477.453	1	-1
477.623	1	-10
477.793	1	-12
477.964	1	-12
478.134	1	0
478.305	1	3
478.475	1	4
478.645	1	0
478.816	1	8
478.986	1	2
479.156	1	4
479.327	1	-9
479.497	1	-7
479.667	1	-1
479.838	1	10
480.008	1	-1
480.179	1	4
480.349	1	0
480.519	1	-3
480.690	1	4
480.860	1	3
481.030	1	5
481.201	1	-1
481.371	1	-3
481.541	1	3
481.712	1	1
481.882	1	6
482.053	1	5
482.223	1	0
482.393	1	-5
482.564	1	9
482.734	1	-8
482.904	1	-2
483.075	1	3
483.245	1	8
483.415	1	4
483.586	1	0
483.756	1	6
483.926	1	2
484.097	1	0
484.267	1	-5
484.437	1	-5
484.608	1	4
484.778	1	-1
484.948	1	-7
485.119	1	-7
485.289	1	-10
485.459	1	17
485.630	1	-4
485.800	1	-2
485.970	1	-2
486.141	1	2
486.311	1	-3
486.481	1	4
486.652	1	3
486.822	1	3
486.992	1	5
487.163	1	5
487.333	1	3
487.503	1	3
487.674	1	-1
487.844	1	5
488.014	1	2
488.185	1	1
488.355	1	-4
488.525	1	-3
488.696	1	3
488.866	1	0
489.036	1	12
489.207	1	5
489.377	1	-6
489.547	1	-2
489.718	1	13
489.888	1	1
490.058	1	-1
490.228	1	1
490.399	1	6
490.569	1	11
490.739	1	6
490.910	1	1
491.080	1	11
491.250	1	-3
491.421	1	-4
491.591	1	-11
491.761	1	-5
491.932	1	-3
492.102	1	-4
492.272	1	0
492.442	1	-1
492.613	1	7
492.783	1	7
492.953	1	-5
493.124	1	1
493.294	1	-3
493.464	1	9
493.635	1	0
493.805	1	4
493.975	1	-1
494.145	1	6
494.316	1	-3
494.486	1	6
494.656	1	5
494.827	1	7
494.997	1	-4
495.167	1	-5
495.337	1	0
495.508	1	-3
495.678	1	6
495.848	1	1
496.019	1	-3
496.189	1	-1
496.359	1	-1
496.529	1	4
496.700	1	-3
496.870	1	8
497.040	1	-5
497.211	1	1
497.381	1	-1
497.551	1	0
497.721	1	-5
497.892	1	-5
498.062	1	8
498.232	1	2
498.403	1	1
498.573	1	-6
498.743	1	-10
498.913	1	9
499.084	1	-5
499.254	1	1
499.424	1	-4
499.594	1	2
499.765	1	2
499.935	1	6
500.105	1	-2
500.275	1	-4
500.446	1	-9
500.616	1	-5
500.786	1	-7
500.956	1	-1
501.127	1	2
501.297	1	-2
501.467	1	-8
501.638	1	2
501.808	1	7
501.978	1	-3
502.148	1	5
502.319	1	-1
502.489	1	0
502.659	1	8
502.829	1	-1
503.000	1	7
503.170	1	5
503.340	1	10
503.510	1	-1
503.681	1	4
503.851	1	4
504.021	1	4
504.191	1	3
504.362	1	-3
504.532	1	8
504.702	1	-3
504.872	1	5
505.042	1	3
505.213	1	6
505.383	1	-6
505.553	1	-8
505.723	1	3
505.894	1	-7
506.064	1	2
506.234	1	-3
506.404	1	10
506.575	1	8
506.745	1	7
506.915	1	12
507.085	1	4
507.256	1	4
507.426	1	5
507.596	1	1
507.766	1	-1
507.936	1	0
508.107	1	-4
508.277	1	-6
508.447	1	9
508.617	1	7
508.788	1	21
508.958	1	2
509.128	1	3
509.298	1	8
509.468	1	-6
509.639	1	-5
509.809	1	9
509.979	1	3
510.149	1	-1
510.319	1	9
510.490	1	11
510.660	1	9
510.830	1	2
511.000	1	-2
511.171	1	1
511.341	1	2
511.511	1	2
511.681	1	8
511.851	1	-4
512.022	1	-3
512.192	1	3
512.362	1	1
512.532	1	-6
512.702	1	-8
512.873	1	4
513.043	1	13
513.213	1	9
513.383	1	-6
513.553	1	-6
513.724	1	4
513.894	1	-11
514.064	1	5
514.234	1	2
514.404	1	1
514.575	1	9
514.745	1	-5
514.915	1	5
515.085	1	2
515.255	1	-3
515.425	1	1
515.596	1	2
515.766	1	-3
515.936	1	-6
516.106	1	7
516.276	1	-10
516.447	1	16
516.617	1	12
516.787	1	12
516.957	1	10
517.127	1	-4
517.297	1	-3
517.468	1	2
517.638	1	1
517.808	1	5
517.978	1	12
518.148	1	7
518.319	1	-2
518.489	1	0
518.659	1	-3
518.829	1	9
518.999	1	5
519.169	1	2
519.340	1	5
519.510	1	1
519.680	1	6
519.850	1	5
520.020	1	1
520.190	1	0
520.361	1	-6
520.531	1	11
520.701	1	2
520.871	1	6
521.041	1	10
521.211	1	-10
521.382	1	-5
521.552	1	4
521.722	1	6
521.892	1	1
522.062	1	12
522.232	1	-5
522.402	1	12
522.573	1	-1
522.743	1	4
522.913	1	5
523.083	1	3
523.253	1	7
523.423	1	9
523.593	1	8
523.764	1	1
523.934	1	-6
524.104	1	0
524.274	1	4
524.444	1	1
524.614	1	5
524.784	1	-1
524.955	1	-5
525.125	1	5
525.295	1	1
525.465	1	11
525.635	1	6
525.805	1	2
525.975	1	3
526.146	1	-4
526.316	1	9
526.486	1	1
526.656	1	-1
526.826	1	-3
526.996	1	7
527.166	1	1
527.337	1	-4
527.507	1	3
527.677	1	10
527.847	1	11
528.017	1	-9
528.187	1	11
528.357	1	2
528.527	1	-1
528.698	1	6
528.868	1	2
529.038	1	-3
529.208	1	4
529.378	1	10
529.548	1	-8
529.718	1	14
529.888	1	5
530.058	1	6
530.229	1	14
530.399	1	7
530.569	1	-4
530.739	1	-5
530.909	1	-7
531.079	1	2
531.249	1	-2
531.419	1	3
531.589	1	9
531.760	1	15
531.930	1	12
532.100	1	-4
532.270	1	-1
532.440	1	3
532.610	1	-2
532.780	1	-1
532.950	1	3
533.120	1	9
533.290	1	9
533.461	1	3
533.631	1	6
533.801	1	20
533.971	1	0
534.141	1	-8
534.311	1	9
534.481	1	-5
534.651	1	-4
534.821	1	13
534.991	1	6
535.162	1	-1
535.332	1	-1
535.502	1	-8
535.672	1	10
535.842	1	7
536.012	1	10
536.182	1	8
536.352	1	1
536.522	1	-10
536.692	1	9
536.862	1	5
537.032	1	17
537.203	1	4
537.373	1	7
537.543	1	11
537.713	1	2
537.883	1	-4
538.053	1	0
538.223	1	-5
538.393	1	7
538.563	1	2
538.733	1	11
538.903	1	-5
539.073	1	2
539.243	1	3
539.413	1	-1
539.584	1	0
539.754	1	5
539.924	1	10
540.094	1	-3
540.264	1	-4
540.434	1	-2
540.604	1	9
540.774	1	12
540.944	1	1
541.114	1	0
541.284	1	4
541.454	1	7
541.624	1	5
541.794	1	1
541.964	1	11
542.134	1	15
542.305	1	7
542.475	1	5
542.645	1	2
542.815	1	6
542.985	1	3
543.155	1	2
543.325	1	4
543.495	1	8
543.665	1	8
543.835	1	12
544.005	1	14
544.175	1	-5
544.345	1	1
544.515	1	2
544.685	1	3
544.855	1	4
545.025	1	-1
545.195	1	8
545.365	1	2
545.535	1	10
545.705	1	0
545.875	1	-2
546.045	1	-3
546.216	1	1
546.386	1	7
546.556	1	-5
546.726	1	-4
546.896	1	1
547.066	1	7
547.236	1	8
547.406	1	4
547.576	1	10
547.746	1	-7
547.916	1	-5
548.086	1	3
548.256	1	2
548.426	1	-14
548.596	1	1
548.766	1	0
548.936	1	13
549.106	1	-3
549.276	1	-1
549.446	1	4
549.616	1	6
549.786	1	4
549.956	1	10
550.126	1	4
550.296	1	-2
550.466	1	1
550.636	1	8
550.806	1	9
550.976	1	11
551.146	1	4
551.316	1	7
551.486	1	4
551.656	1	3
551.826	1	5
551.996	1	8
552.166	1	0
552.336	1	4
552.506	1	12
552.676	1	7
552.846	1	-1
553.016	1	10
553.186	1	9
553.356	1	6
553.526	1	-8
553.696	1	8
553.866	1	8
554.036	1	-1
554.206	1	12
554.376	1	9
554.546	1	14
554.716	1	20
554.886	1	6
555.056	1	6
555.226	1	-8
555.396	1	4
555.566	1	9
555.736	1	5
555.906	1	10
556.076	1	1
556.246	1	5
556.416	1	-6
556.586	1	4
556.756	1	0
556.926	1	5
557.096	1	-1
557.266	1	0
557.436	1	1
557.606	1	1
557.776	1	1
557.946	1	15
558.116	1	8
558.286	1	-4
558.456	1	7
558.626	1	13
558.796	1	-5
558.966	1	1
559.136	1	2
559.306	1	0
559.476	1	-3
559.646	1	-5
559.816	1	1
559.986	1	-3
560.155	1	9
560.325	1	-11
560.495	1	0
560.665	1	3
560.835	1	-2
561.005	1	1
561.175	1	0
561.345	1	5
561.515	1	-9
561.685	1	-4
561.855	1	-2
562.025	1	-2
562.195	1	9
562.365	1	7
562.535	1	7
562.705	1	1
562.875	1	3
563.045	1	-2
563.215	1	15
563.385	1	-12
563.555	1	3
563.725	1	0
563.895	1	4
564.064	1	4
564.234	1	-1
564.404	1	2
564.574	1	-2
564.744	1	6
564.914	1	9
565.084	1	3
565.254	1	12
565.424	1	0
565.594	1	9
565.764	1	-7
565.934	1	13
566.104	1	1
566.274	1	6
566.444	1	1
566.614	1	3
566.783	1	1
566.953	1	6
567.123	1	3
567.293	1	15
567.463	1	5
567.633	1	7
567.803	1	-4
567.973	1	-8
568.143	1	5
568.313	1	4
568.483	1	10
568.653	1	5
568.823	1	13
568.993	1	14
569.162	1	3
569.332	1	1
569.502	1	5
569.672	1	10
569.842	1	7
570.012	1	3
570.182	1	9
570.352	1	-9
570.522	1	-3
570.692	1	12
570.862	1	-3
571.031	1	13
571.201	1	9
571.371	1	0
571.541	1	0
571.711	1	13
571.881	1	14
572.051	1	-4
572.221	1	0
572.391	1	-9
572.561	1	-3
572.731	1	-1
572.900	1	-2
573.070	1	3
573.240	1	12
573.410	1	11
573.580	1	4
573.750	1	2
573.920	1	3
574.090	1	3
574.260	1	13
574.430	1	-1
574.599	1	-6
574.769	1	1
574.939	1	4
575.109	1	3
575.279	1	3
575.449	1	-10
575.619	1	6
575.789	1	-7
575.959	1	1
576.128	1	-6
576.298	1	6
576.468	1	1
576.638	1	3
576.808	1	2
576.978	1	10
577.148	1	8
577.318	1	10
577.487	1	-3
577.657	1	-3
577.827	1	-11
577.997	1	-2
578.167	1	-7
578.337	1	9
578.507	1	4
578.677	1	7
578.846	1	4
579.016	1	5
579.186	1	4
579.356	1	-1
579.526	1	-3
579.696	1	7
579.866	1	6
580.036	1	5
580.205	1	14
580.375	1	5
580.545	1	3
580.715	1	3
580.885	1	3
581.055	1	0
581.225	1	6
581.394	1	4
581.564	1	10
581.734	1	-7
581.904	1	11
582.074	1	-1
582.244	1	6
582.414	1	3
582.583	1	13
582.753	1	-3
582.923	1	-3
583.093	1	-1
583.263	1	0
583.433	1	3
583.603	1	7
583.772	1	2
583.942	1	-4
584.112	1	5
584.282	1	-4
584.452	1	0
584.622	1	0
584.791	1	8
584.961	1	12
585.131	1	-1
585.301	1	1
585.471	1	9
585.641	1	-4
585.811	1	12
585.980	1	6
586.150	1	-2
586.320	1	1
586.490	1	4
586.660	1	6
586.830	1	8
586.999	1	2
587.169	1	11
587.339	1	-2
587.509	1	-4
587.679	1	6
587.849	1	4
588.018	1	-1
588.188	1	18
588.358	1	0
588.528	1	1
588.698	1	7
588.867	1	7
589.037	1	12
589.207	1	7
589.377	1	4
589.547	1	2
589.717	1	15
589.886	1	-2
590.056	1	6
590.226	1	5
590.396	1	3
590.566	1	1
590.735	1	7
590.905	1	0
591.075	1	-3
591.245	1	3
591.415	1	0
591.585	1	1
591.754	1	7
591.924	1	4
592.094	1	-4
592.264	1	10
592.434	1	-4
592.603	1	9
592.773	1	-2
592.943	1	2
593.113	1	-1
593.283	1	7
593.452	1	3
593.622	1	3
593.792	1	10
593.962	1	6
594.132	1	1
594.301	1	12
594.471	1	7
594.641	1	7
594.811	1	0
594.981	1	-2
595.150	1	1
595.320	1	2
595.490	1	7
595.660	1	3
595.829	1	8
595.999	1	-6
596.169	1	5
596.339	1	-2
596.509	1	-2
596.678	1	-1
596.848	1	-1
597.018	1	2
597.188	1	-2
597.358	1	12
597.527	1	-5
597.697	1	-1
597.867	1	10
598.037	1	5
598.206	1	3
598.376	1	1
598.546	1	3
598.716	1	4
598.885	1	-3
599.055	1	5
599.225	1	-11
599.395	1	3
599.565	1	-3
599.734	1	10
599.904	1	-2
600.074	1	14
600.244	1	-7
600.413	1	13
600.583	1	11
600.753	1	5
600.923	1	-7
601.092	1	12
601.262	1	-1
601.432	1	1
601.602	1	20
601.771	1	7
601.941	1	-4
602.111	1	-4
602.281	1	8
602.451	1	11
602.620	1	1
602.790	1	-6
602.960	1	1
603.130	1	13
603.299	1	-1
603.469	1	-8
603.639	1	0
603.809	1	4
603.978	1	6
604.148	1	9
604.318	1	4
604.487	1	1
604.657	1	0
604.827	1	3
604.997	1	-3
605.166	1	10
605.336	1	3
605.506	1	4
605.676	1	-5
605.845	1	9
606.015	1	3
606.185	1	7
606.355	1	1
606.524	1	-3
606.694	1	-2
606.864	1	-2
607.034	1	1
607.203	1	-5
607.373	1	5
607.543	1	-5
607.712	1	-3
607.882	1	7
608.052	1	-1
608.222	1	5
608.391	1	12
608.561	1	2
608.731	1	-3
608.901	1	3
609.070	1	13
609.240	1	9
609.410	1	6
609.579	1	14
609.749	1	-8
609.919	1	10
610.089	1	4
610.258	1	8
610.428	1	5
610.598	1	2
610.767	1	6
610.937	1	2
611.107	1	-7
611.277	1	4
611.446	1	4
611.616	1	-3
611.786	1	5
611.955	1	14
612.125	1	3
612.295	1	-6
612.465	1	-1
612.634	1	-5
612.804	1	2
612.974	1	-6
613.143	1	-1
613.313	1	7
613.483	1	3
613.652	1	11
613.822	1	0
613.992	1	-2
614.162	1	10
614.331	1	0
614.501	1	3
614.671	1	-1
614.840	1	-4
615.010	1	-9
615.180	1	-3
615.349	1	7
615.519	1	-5
615.689	1	-1
615.858	1	1
616.028	1	3
616.198	1	5
616.368	1	4
616.537	1	0
616.707	1	1
616.877	1	-1
617.046	1	2
617.216	1	0
617.386	1	3
617.555	1	10
617.725	1	0
617.895	1	8
618.064	1	-4
618.234	1	6
618.404	1	8
618.573	1	-1
618.743	1	10
618.913	1	2
619.082	1	4
619.252	1	7
619.422	1	-8
619.591	1	-1
619.761	1	6
619.931	1	7
620.100	1	9
620.270	1	-10
620.440	1	5
620.609	1	9
620.779	1	-5
620.949	1	8
621.118	1	-6
621.288	1	-2
621.458	1	-1
621.627	1	3
621.797	1	-13
621.967	1	3
622.136	1	11
622.306	1	-5
622.476	1	8
622.645	1	14
622.815	1	8
622.985	1	1
623.154	1	6
623.324	1	2
623.494	1	7
623.663	1	3
623.833	1	11
624.002	1	-7
624.172	1	8
624.342	1	14
624.511	1	2
624.681	1	13
624.851	1	-16
625.020	1	-3
625.190	1	0
625.360	1	-5
625.529	1	4
625.699	1	-6
625.869	1	3
626.038	1	-10
626.208	1	2
626.377	1	1
626.547	1	2
626.717	1	-2
626.886	1	8
627.056	1	-4
627.226	1	2
627.395	1	9
627.565	1	-4
627.735	1	9
627.904	1	0
628.074	1	3
628.243	1	0
628.413	1	1
628.583	1	-3
628.752	1	3
628.922	1	9
629.091	1	-1
629.261	1	6
629.431	1	-2
629.600	1	8
629.770	1	-5
629.940	1	-3
630.109	1	-10
630.279	1	-1
630.448	1	-2
630.618	1	-5
630.788	1	9
630.957	1	1
631.127	1	13
631.297	1	-5
631.466	1	6
631.636	1	-2
631.805	1	6
631.975	1	11
632.145	1	2
632.314	1	-1
632.484	1	-1
632.653	1	3
632.823	1	1
632.993	1	-5
633.162	1	6
633.332	1	-1
633.501	1	-4
633.671	1	-6
633.841	1	-10
634.010	1	4
634.180	1	10
634.349	1	9
634.519	1	-3
634.689	1	-1
634.858	1	-6
635.028	1	-3
635.197	1	12
635.367	1	5
635.537	1	-5
635.706	1	3
635.876	1	5
636.045	1	24
636.215	1	2
636.384	1	3
636.554	1	10
636.724	1	-1
636.893	1	-9
637.063	1	-5
637.232	1	-9
637.402	1	2
637.572	1	3
637.741	1	-6
637.911	1	-2
638.080	1	-5
638.250	1	4
638.419	1	-6
638.589	1	-9
638.759	1	-7
638.928	1	-8
639.098	1	11
639.267	1	8
639.437	1	6
639.606	1	2
639.776	1	-2
639.946	1	7
640.115	1	2
640.285	1	8
640.454	1	-8
640.624	1	-2
640.793	1	8
640.963	1	1
641.132	1	8
641.302	1	-2
641.472	1	5
641.641	1	-10
641.811	1	2
641.980	1	0
642.150	1	-2
642.319	1	-1
642.489	1	4
642.659	1	8
642.828	1	4
642.998	1	14
643.167	1	-5
643.337	1	2
643.506	1	-6
643.676	1	8
643.845	1	-2
644.015	1	4
644.184	1	-3
644.354	1	7
644.524	1	-1
644.693	1	4
644.863	1	-6
645.032	1	3
645.202	1	3
645.371	1	-9
645.541	1	4
645.710	1	6
645.880	1	4
646.049	1	-3
646.219	1	4
646.388	1	6
646.558	1	-4
646.728	1	-3
646.897	1	-4
647.067	1	3
647.236	1	3
647.406	1	-2
647.575	1	1
647.745	1	-6
647.914	1	2
648.084	1	-1
648.253	1	11
648.423	1	-4
648.592	1	0
648.762	1	5
648.931	1	10
649.101	1	-4
649.270	1	0
649.440	1	0
649.610	1	-1
649.779	1	-2
649.949	1	4
650.118	1	18
650.288	1	4
650.457	1	-4
650.627	1	-1
650.796	1	6
650.966	1	2
651.135	1	-3
651.305	1	3
651.474	1	-4
651.644	1	13
651.813	1	-1
651.983	1	3
652.152	1	1
652.322	1	-5
652.491	1	0
652.661	1	-6
652.830	1	2
653.000	1	0
653.169	1	1
653.339	1	7
653.508	1	7
653.678	1	4
653.847	1	11
654.017	1	-5
654.186	1	1
654.356	1	-1
654.525	1	5
654.695	1	3
654.864	1	0
655.034	1	-2
655.203	1	-3
655.373	1	10
655.542	1	2
655.712	1	4
655.881	1	-4
656.051	1	5
656.220	1	-1
656.390	1	-7
656.559	1	-5
656.729	1	4
656.898	1	-5
657.068	1	-2
657.237	1	-8
657.406	1	1
657.576	1	1
657.745	1	11
657.915	1	0
658.084	1	4
658.254	1	-15
658.423	1	5
658.593	1	6
658.762	1	-2
658.932	1	-13
659.101	1	18
659.271	1	8
659.440	1	6
659.610	1	-8
659.779	1	3
659.949	1	-2
660.118	1	4
660.288	1	11
660.457	1	10
660.626	1	5
660.796	1	-18
660.965	1	9
661.135	1	-3
661.304	1	10
661.474	1	-2
661.643	1	8
661.813	1	7
661.982	1	2
662.152	1	7
662.321	1	12
662.491	1	-1
662.660	1	1
662.829	1	-6
662.999	1	-14
663.168	1	-1
663.338	1	16
663.507	1	2
663.677	1	6
663.846	1	-1
664.016	1	-4
664.185	1	4
664.354	1	8
664.524	1	11
664.693	1	8
664.863	1	-5
665.032	1	1
665.202	1	5
665.371	1	6
665.541	1	2
665.710	1	9
665.879	1	-4
666.049	1	7
666.218	1	-1
666.388	1	6
666.557	1	0
666.727	1	-1
666.896	1	-11
667.065	1	9
667.235	1	0
667.404	1	11
667.574	1	5
667.743	1	1
667.913	1	4
668.082	1	4
668.251	1	0
668.421	1	-7
668.590	1	1
668.760	1	-8
668.929	1	-6
669.099	1	0
669.268	1	-4
669.437	1	10
669.607	1	-2
669.776	1	-4
669.946	1	-7
670.115	1	6
670.285	1	2
670.454	1	3
670.623	1	-1
670.793	1	-3
670.962	1	6
671.132	1	5
671.301	1	5
671.470	1	-4
671.640	1	1
671.809	1	-6
671.979	1	-3
672.148	1	6
672.317	1	0
672.487	1	1
672.656	1	2
672.826	1	-2
672.995	1	9
673.164	1	-5
673.334	1	-4
673.503	1	7
673.673	1	0
673.842	1	-2
674.011	1	-2
674.181	1	2
674.350	1	-3
674.520	1	-4
674.689	1	-2
674.858	1	15
675.028	1	-4
675.197	1	-9
675.367	1	10
675.536	1	9
675.705	1	3
675.875	1	-6
676.044	1	4
676.214	1	1
676.383	1	2
676.552	1	-3
676.722	1	11
676.891	1	8
677.060	1	7
677.230	1	-2
677.399	1	-8
677.569	1	0
677.738	1	-3
677.907	1	-1
678.077	1	8
678.246	1	6
678.416	1	4
678.585	1	1
678.754	1	-5
678.924	1	-9
679.093	1	17
679.262	1	-2
679.432	1	0
679.601	1	-10
679.771	1	0
679.940	1	-8
680.109	1	15
680.279	1	-1
680.448	1	7
680.617	1	0
680.787	1	-8
680.956	1	3
681.125	1	2
681.295	1	2
681.464	1	3
681.634	1	6
681.803	1	-2
681.972	1	-11
682.142	1	4
682.311	1	12
682.480	1	0
682.650	1	-1
682.819	1	5
682.988	1	2
683.158	1	-5
683.327	1	-9
683.496	1	3
683.666	1	0
683.835	1	-2
684.004	1	9
684.174	1	0
684.343	1	-4
684.512	1	8
684.682	1	-6
684.851	1	12
685.021	1	-12
685.190	1	1
685.359	1	5
685.529	1	6
685.698	1	10
685.867	1	6
686.037	1	11
686.206	1	-2
686.375	1	-1
686.545	1	-1
686.714	1	-3
686.883	1	1
687.053	1	-6
687.222	1	4
687.391	1	5
687.561	1	12
687.730	1	-3
687.899	1	4
688.069	1	7
688.238	1	11
688.407	1	-2
688.577	1	-6
688.746	1	0
