340.368	1	2
340.539	1	-9
340.710	1	-12
340.881	1	3
341.052	1	7
341.223	1	1
341.394	1	-2
341.565	1	10
341.737	1	-6
341.908	1	5
342.079	1	1
342.250	1	2
342.421	1	0
342.592	1	0
342.763	1	1
342.934	1	-6
343.105	1	8
343.276	1	5
343.447	1	-7
343.618	1	1
343.789	1	9
343.960	1	1
344.131	1	3
344.302	1	-7
344.473	1	0
344.644	1	1
344.815	1	4
344.986	1	9
345.157	1	-5
345.328	1	9
345.499	1	5
345.670	1	-1
345.841	1	10
346.012	1	4
346.183	1	10
346.354	1	-2
346.526	1	-2
346.697	1	12
346.868	1	0
347.039	1	1
347.210	1	1
347.381	1	-7
347.552	1	7
347.723	1	8
347.894	1	8
348.065	1	-6
348.236	1	-5
348.407	1	-7
348.578	1	5
348.749	1	11
348.920	1	-2
349.091	1	0
349.262	1	-1
349.433	1	4
349.604	1	1
349.775	1	4
349.946	1	4
350.117	1	2
350.288	1	-4
350.459	1	-2
350.630	1	5
350.801	1	-6
350.972	1	1
351.143	1	-1
351.314	1	9
351.485	1	-6
351.656	1	-1
351.827	1	-4
351.998	1	9
352.169	1	1
352.340	1	2
352.511	1	7
352.682	1	7
352.853	1	10
353.024	1	-5
353.195	1	0
353.366	1	4
353.537	1	0
353.708	1	5
353.879	1	2
354.050	1	-3
354.221	1	-4
354.392	1	-3
354.563	1	0
354.734	1	4
354.905	1	2
355.076	1	0
355.247	1	2
355.418	1	-1
355.589	1	-8
355.760	1	-5
355.931	1	3
356.102	1	0
356.273	1	-4
356.444	1	-2
356.615	1	1
356.785	1	3
356.956	1	12
357.127	1	-3
357.298	1	3
357.469	1	1
357.640	1	-3
357.811	1	3
357.982	1	-4
358.153	1	2
358.324	1	15
358.495	1	7
358.666	1	10
358.837	1	13
359.008	1	0
359.179	1	-1
359.350	1	6
359.521	1	9
359.692	1	-1
359.863	1	10
360.034	1	-4
360.205	1	16
360.376	1	3
360.547	1	12
360.718	1	-2
360.889	1	13
361.060	1	-9
361.231	1	0
361.401	1	2
361.572	1	14
361.743	1	11
361.914	1	8
362.085	1	-2
362.256	1	5
362.427	1	5
362.598	1	14
362.769	1	0
362.940	1	24
363.111	1	15
363.282	1	-1
363.453	1	2
363.624	1	2
363.795	1	3
363.966	1	3
364.137	1	5
364.308	1	3
364.478	1	8
364.649	1	-6
364.820	1	5
364.991	1	13
365.162	1	14
365.333	1	2
365.504	1	8
365.675	1	2
365.846	1	-3
366.017	1	-2
366.188	1	8
366.359	1	4
366.530	1	14
366.701	1	5
366.871	1	11
367.042	1	6
367.213	1	2
367.384	1	15
367.555	1	16
367.726	1	17
367.897	1	13
368.068	1	18
368.239	1	10
368.410	1	18
368.581	1	11
368.752	1	17
368.923	1	13
369.093	1	-2
369.264	1	13
369.435	1	14
369.606	1	15
369.777	1	14
369.948	1	16
370.119	1	3
370.290	1	8
370.461	1	17
370.632	1	7
370.803	1	11
370.973	1	14
371.144	1	6
371.315	1	10
371.486	1	-1
371.657	1	1
371.828	1	4
371.999	1	7
372.170	1	12
372.341	1	19
372.512	1	8
372.682	1	14
372.853	1	21
373.024	1	6
373.195	1	10
373.366	1	12
373.537	1	14
373.708	1	6
373.879	1	12
374.050	1	13
374.220	1	3
374.391	1	3
374.562	1	18
374.733	1	2
374.904	1	4
375.075	1	-1
375.246	1	9
375.417	1	14
375.588	1	3
375.758	1	10
375.929	1	3
376.100	1	8
376.271	1	11
376.442	1	12
376.613	1	10
376.784	1	2
376.955	1	13
377.125	1	6
377.296	1	6
377.467	1	1
377.638	1	10
377.809	1	5
377.980	1	-6
378.151	1	4
378.321	1	8
378.492	1	8
378.663	1	5
378.834	1	1
379.005	1	2
379.176	1	-5
379.347	1	-1
379.518	1	3
379.688	1	5
379.859	1	3
380.030	1	4
380.201	1	-4
380.372	1	7
380.543	1	2
380.714	1	8
380.884	1	6
381.055	1	-1
381.226	1	11
381.397	1	7
381.568	1	17
381.739	1	1
381.910	1	0
382.080	1	-4
382.251	1	7
382.422	1	4
382.593	1	10
382.764	1	6
382.935	1	-4
383.105	1	1
383.276	1	11
383.447	1	7
383.618	1	5
383.789	1	13
383.960	1	6
384.130	1	-6
384.301	1	-1
384.472	1	-2
384.643	1	0
384.814	1	5
384.985	1	-2
385.156	1	8
385.326	1	1
385.497	1	11
385.668	1	5
385.839	1	-12
386.010	1	-8
386.180	1	12
386.351	1	-3
386.522	1	11
386.693	1	-5
386.864	1	6
387.035	1	3
387.205	1	-1
387.376	1	-2
387.547	1	5
387.718	1	-2
387.889	1	10
388.060	1	2
388.230	1	0
388.401	1	-9
388.572	1	7
388.743	1	-2
388.914	1	-3
389.084	1	3
389.255	1	12
389.426	1	3
389.597	1	3
389.768	1	3
389.939	1	-2
390.109	1	6
390.280	1	7
390.451	1	6
390.622	1	0
390.793	1	3
390.963	1	-4
391.134	1	5
391.305	1	-6
391.476	1	4
391.647	1	-7
391.817	1	7
391.988	1	9
392.159	1	11
392.330	1	-1
392.501	1	-3
392.671	1	-10
392.842	1	-1
393.013	1	-1
393.184	1	8
393.355	1	0
393.525	1	7
393.696	1	1
393.867	1	6
394.038	1	3
394.208	1	3
394.379	1	-3
394.550	1	5
394.721	1	-6
394.892	1	1
395.062	1	1
395.233	1	4
395.404	1	11
395.575	1	5
395.746	1	9
395.916	1	-2
396.087	1	1
396.258	1	2
396.429	1	6
396.599	1	-3
396.770	1	13
396.941	1	3
397.112	1	-7
397.283	1	2
397.453	1	1
397.624	1	2
397.795	1	-3
397.966	1	0
398.136	1	4
398.307	1	-3
398.478	1	2
398.649	1	3
398.819	1	7
398.990	1	-5
399.161	1	-7
399.332	1	-13
399.503	1	1
399.673	1	-2
399.844	1	-9
400.015	1	9
400.186	1	1
400.356	1	-7
400.527	1	13
400.698	1	-1
400.869	1	-1
401.039	1	-6
401.210	1	2
401.381	1	17
401.552	1	2
401.722	1	-2
401.893	1	9
402.064	1	11
402.235	1	9
402.405	1	1
402.576	1	-1
402.747	1	2
402.918	1	0
403.088	1	1
403.259	1	4
403.430	1	5
403.601	1	13
403.771	1	4
403.942	1	7
404.113	1	10
404.284	1	-12
404.454	1	-5
404.625	1	-8
404.796	1	4
404.967	1	-3
405.137	1	7
405.308	1	3
405.479	1	-2
405.649	1	4
405.820	1	3
405.991	1	8
406.162	1	-6
406.332	1	-11
406.503	1	1
406.674	1	7
406.845	1	0
407.015	1	9
407.186	1	4
407.357	1	-8
407.527	1	-2
407.698	1	7
407.869	1	-2
408.040	1	-2
408.210	1	3
408.381	1	3
408.552	1	5
408.722	1	-7
408.893	1	0
409.064	1	-4
409.235	1	10
409.405	1	0
409.576	1	7
409.747	1	1
409.917	1	8
410.088	1	6
410.259	1	11
410.430	1	-1
410.600	1	5
410.771	1	4
410.942	1	-6
411.112	1	-1
411.283	1	2
411.454	1	1
411.625	1	5
411.795	1	6
411.966	1	5
412.137	1	-10
412.307	1	3
412.478	1	2
412.649	1	5
412.819	1	-4
412.990	1	-4
413.161	1	13
413.332	1	-10
413.502	1	9
413.673	1	-14
413.844	1	1
414.014	1	8
414.185	1	1
414.356	1	-3
414.526	1	1
414.697	1	9
414.868	1	6
415.038	1	-5
415.209	1	-12
415.380	1	-7
415.550	1	1
415.721	1	-1
415.892	1	3
416.063	1	-2
416.233	1	7
416.404	1	0
416.575	1	-1
416.745	1	10
416.916	1	-8
417.087	1	5
417.257	1	2
417.428	1	1
417.599	1	1
417.769	1	7
417.940	1	1
418.111	1	7
418.281	1	-9
418.452	1	4
418.623	1	-3
418.793	1	2
418.964	1	-5
419.135	1	5
419.305	1	4
419.476	1	-6
419.647	1	5
419.817	1	-2
419.988	1	9
420.159	1	4
420.329	1	-1
420.500	1	-2
420.671	1	-1
420.841	1	-5
421.012	1	-2
421.183	1	0
421.353	1	-2
421.524	1	4
421.695	1	-5
421.865	1	-4
422.036	1	4
422.206	1	0
422.377	1	2
422.548	1	11
422.718	1	3
422.889	1	-3
423.060	1	0
423.230	1	8
423.401	1	0
423.572	1	4
423.742	1	2
423.913	1	0
424.084	1	17
424.254	1	-4
424.425	1	-6
424.595	1	8
424.766	1	1
424.937	1	7
425.107	1	0
425.278	1	4
425.449	1	6
425.619	1	-9
425.790	1	3
425.961	1	1
426.131	1	4
426.302	1	-5
426.472	1	3
426.643	1	9
426.814	1	-8
426.984	1	6
427.155	1	18
427.326	1	5
427.496	1	-2
427.667	1	4
427.837	1	11
428.008	1	4
428.179	1	5
428.349	1	-6
428.520	1	-3
428.691	1	-3
428.861	1	-2
429.032	1	1
429.202	1	-7
429.373	1	0
429.544	1	3
429.714	1	3
429.885	1	5
430.055	1	-3
430.226	1	1
430.397	1	2
430.567	1	2
430.738	1	1
430.909	1	4
431.079	1	-4
431.250	1	11
431.420	1	1
431.591	1	2
431.762	1	3
431.932	1	-6
432.103	1	4
432.273	1	-2
432.444	1	8
432.615	1	-8
432.785	1	9
432.956	1	-2
433.126	1	8
433.297	1	-4
433.468	1	3
433.638	1	-1
433.809	1	-4
433.979	1	-4
434.150	1	-10
434.320	1	8
434.491	1	-2
434.662	1	-13
434.832	1	10
435.003	1	2
435.173	1	2
435.344	1	-4
435.515	1	3
435.685	1	8
435.856	1	7
436.026	1	-3
436.197	1	-9
436.368	1	2
436.538	1	0
436.709	1	5
436.879	1	9
437.050	1	-13
437.220	1	-3
437.391	1	-10
437.562	1	5
437.732	1	0
437.903	1	5
438.073	1	1
438.244	1	-4
438.414	1	-9
438.585	1	-2
438.756	1	0
438.926	1	5
439.097	1	2
439.267	1	9
439.438	1	5
439.608	1	4
439.779	1	15
439.949	1	9
440.120	1	0
440.291	1	2
440.461	1	12
440.632	1	-4
440.802	1	4
440.973	1	2
441.143	1	-4
441.314	1	-1
441.485	1	-10
441.655	1	-3
441.826	1	3
441.996	1	2
442.167	1	-3
442.337	1	6
442.508	1	-5
442.678	1	7
442.849	1	2
443.019	1	1
443.190	1	1
443.361	1	8
443.531	1	7
443.702	1	7
443.872	1	-3
444.043	1	-8
444.213	1	0
444.384	1	2
444.554	1	-4
444.725	1	-6
444.895	1	-17
445.066	1	8
445.237	1	-7
445.407	1	13
445.578	1	11
445.748	1	1
445.919	1	4
446.089	1	-7
446.260	1	8
446.430	1	-7
446.601	1	-15
446.771	1	-8
446.942	1	5
447.112	1	13
447.283	1	0
447.453	1	7
447.624	1	-3
447.794	1	5
447.965	1	5
448.135	1	14
448.306	1	-2
448.477	1	15
448.647	1	0
448.818	1	8
448.988	1	11
449.159	1	3
449.329	1	5
449.500	1	8
449.670	1	-12
449.841	1	-8
450.011	1	9
450.182	1	9
450.352	1	-6
450.523	1	10
450.693	1	2
450.864	1	0
451.034	1	-5
451.205	1	0
451.375	1	0
451.546	1	2
451.716	1	13
451.887	1	-1
452.057	1	-6
452.228	1	-3
452.398	1	4
452.569	1	6
452.739	1	2
452.910	1	-2
453.080	1	3
453.251	1	8
453.421	1	4
453.592	1	-13
453.762	1	-2
453.933	1	2
454.103	1	0
454.274	1	5
454.444	1	-5
454.615	1	-1
454.785	1	-2
454.956	1	6
455.126	1	6
455.297	1	0
455.467	1	-6
455.638	1	12
455.808	1	3
455.979	1	17
456.149	1	-3
456.320	1	2
456.490	1	5
456.661	1	1
456.831	1	-5
457.001	1	15
457.172	1	1
457.342	1	5
457.513	1	-1
457.683	1	7
457.854	1	10
458.024	1	11
458.195	1	-1
458.365	1	-6
458.536	1	-13
458.706	1	10
458.877	1	5
459.047	1	2
459.218	1	-1
459.388	1	8
459.559	1	-1
459.729	1	5
459.899	1	7
460.070	1	6
460.240	1	0
460.411	1	-5
460.581	1	1
460.752	1	9
460.922	1	-3
461.093	1	8
461.263	1	0
461.434	1	-5
461.604	1	15
461.775	1	9
461.945	1	-5
462.115	1	2
462.286	1	1
462.456	1	-11
462.627	1	7
462.797	1	-3
462.968	1	6
463.138	1	-3
463.309	1	-1
463.479	1	8
463.649	1	8
463.820	1	15
463.990	1	8
464.161	1	7
464.331	1	3
464.502	1	1
464.672	1	-8
464.843	1	-9
465.013	1	5
465.183	1	7
465.354	1	0
465.524	1	1
465.695	1	3
465.865	1	3
466.036	1	-4
466.206	1	1
466.376	1	2
466.547	1	4
466.717	1	-2
466.888	1	1
467.058	1	-1
467.229	1	8
467.399	1	2
467.569	1	4
467.740	1	-1
467.910	1	-2
468.081	1	4
468.251	1	0
468.422	1	1
468.592	1	3
468.762	1	11
468.933	1	-1
469.103	1	8
469.274	1	11
469.444	1	0
469.614	1	-2
469.785	1	-7
469.955	1	4
470.126	1	6
470.296	1	4
470.467	1	5
470.637	1	0
470.807	1	-4
470.978	1	-6
471.148	1	-1
471.319	1	3
471.489	1	3
471.659	1	-8
471.830	1	8
472.000	1	-1
472.171	1	2
472.341	1	1
472.511	1	4
472.682	1	-12
472.852	1	0
473.023	1	3
473.193	1	8
473.363	1	-6
473.534	1	3
473.704	1	8
473.875	1	2
474.045	1	7
474.215	1	4
474.386	1	3
474.556	1	4
474.727	1	4
474.897	1	-3
475.067	1	9
475.238	1	-7
475.408	1	-1
475.578	1	1
475.749	1	5
475.919	1	7
476.090	1	7
476.260	1	6
476.430	1	-1
476.601	1	12
476.771	1	2
476.942	1	-7
477.112	1	-3
477.282	1	6
477.453	1	7
477.623	1	12
477.793	1	3
477.964	1	-1
478.134	1	6
478.305	1	0
478.475	1	2
478.645	1	3
478.816	1	-1
478.986	1	-4
479.156	1	7
479.327	1	-12
479.497	1	-1
479.667	1	-1
479.838	1	7
480.008	1	1
480.179	1	-8
480.349	1	6
480.519	1	0
480.690	1	3
480.860	1	-4
481.030	1	11
481.201	1	8
481.371	1	8
481.541	1	5
481.712	1	-5
481.882	1	2
482.053	1	-7
482.223	1	3
482.393	1	-4
482.564	1	-6
482.734	1	8
482.904	1	3
483.075	1	5
483.245	1	3
483.415	1	3
483.586	1	4
483.756	1	4
483.926	1	2
484.097	1	-3
484.267	1	6
484.437	1	-15
484.608	1	-7
484.778	1	-9
484.948	1	4
485.119	1	2
485.289	1	7
485.459	1	-2
485.630	1	1
485.800	1	-3
485.970	1	1
486.141	1	3
486.311	1	5
486.481	1	0
486.652	1	11
486.822	1	4
486.992	1	-3
487.163	1	6
487.333	1	-8
487.503	1	-6
487.674	1	2
487.844	1	11
488.014	1	0
488.185	1	7
488.355	1	-12
488.525	1	11
488.696	1	2
488.866	1	13
489.036	1	0
489.207	1	-2
489.377	1	-4
489.547	1	10
489.718	1	-2
489.888	1	3
490.058	1	9
490.228	1	-1
490.399	1	3
490.569	1	2
490.739	1	7
490.910	1	-6
491.080	1	-12
491.250	1	2
491.421	1	0
491.591	1	4
491.761	1	4
491.932	1	16
492.102	1	2
492.272	1	15
492.442	1	-2
492.613	1	12
492.783	1	-11
492.953	1	6
493.124	1	-3
493.294	1	-4
493.464	1	-10
493.635	1	0
493.805	1	-3
493.975	1	8
494.145	1	3
494.316	1	2
494.486	1	5
494.656	1	6
494.827	1	0
494.997	1	7
495.167	1	-1
495.337	1	10
495.508	1	11
495.678	1	1
495.848	1	-8
496.019	1	-13
496.189	1	-13
496.359	1	8
496.529	1	3
496.700	1	12
496.870	1	1
497.040	1	8
497.211	1	9
497.381	1	4
497.551	1	5
497.721	1	-7
497.892	1	-1
498.062	1	-2
498.232	1	5
498.403	1	13
498.573	1	-7
498.743	1	1
498.913	1	2
499.084	1	2
499.254	1	5
499.424	1	7
499.594	1	-2
499.765	1	-12
499.935	1	9
500.105	1	3
500.275	1	9
500.446	1	-4
500.616	1	-5
500.786	1	1
500.956	1	5
501.127	1	4
501.297	1	6
501.467	1	-1
501.638	1	-10
501.808	1	1
501.978	1	-3
502.148	1	0
502.319	1	6
502.489	1	-2
502.659	1	1
502.829	1	-2
503.000	1	10
503.170	1	6
503.340	1	11
503.510	1	13
503.681	1	5
503.851	1	-4
504.021	1	13
504.191	1	-13
504.362	1	10
504.532	1	-6
504.702	1	6
504.872	1	3
505.042	1	-3
505.213	1	-9
505.383	1	6
505.553	1	3
505.723	1	13
505.894	1	15
506.064	1	4
506.234	1	-5
506.404	1	4
506.575	1	7
506.745	1	7
506.915	1	6
507.085	1	-5
507.256	1	3
507.426	1	2
507.596	1	6
507.766	1	5
507.936	1	18
508.107	1	-1
508.277	1	-11
508.447	1	4
508.617	1	11
508.788	1	-3
508.958	1	2
509.128	1	1
509.298	1	4
509.468	1	-3
509.639	1	11
509.809	1	10
509.979	1	9
510.149	1	4
510.319	1	2
510.490	1	7
510.660	1	-4
510.830	1	-1
511.000	1	13
511.171	1	-8
511.341	1	11
511.511	1	-2
511.681	1	-5
511.851	1	2
512.022	1	2
512.192	1	11
512.362	1	4
512.532	1	-2
512.702	1	-1
512.873	1	-2
513.043	1	2
513.213	1	2
513.383	1	0
513.553	1	6
513.724	1	-1
513.894	1	7
514.064	1	7
514.234	1	0
514.404	1	-1
514.575	1	-4
514.745	1	-2
514.915	1	-4
515.085	1	2
515.255	1	-2
515.425	1	6
515.596	1	-4
515.766	1	1
515.936	1	2
516.106	1	1
516.276	1	5
516.447	1	-4
516.617	1	-2
516.787	1	7
516.957	1	-3
517.127	1	-1
517.297	1	14
517.468	1	0
517.638	1	-6
517.808	1	10
517.978	1	6
518.148	1	6
518.319	1	10
518.489	1	3
518.659	1	4
518.829	1	8
518.999	1	5
519.169	1	-1
519.340	1	11
519.510	1	4
519.680	1	-2
519.850	1	2
520.020	1	-1
520.190	1	3
520.361	1	5
520.531	1	4
520.701	1	0
520.871	1	0
521.041	1	10
521.211	1	0
521.382	1	10
521.552	1	3
521.722	1	-5
521.892	1	4
522.062	1	-6
522.232	1	-3
522.402	1	-3
522.573	1	4
522.743	1	0
522.913	1	5
523.083	1	0
523.253	1	7
523.423	1	-1
523.593	1	6
523.764	1	10
523.934	1	9
524.104	1	-1
524.274	1	-11
524.444	1	0
524.614	1	9
524.784	1	6
524.955	1	1
525.125	1	10
525.295	1	0
525.465	1	6
525.635	1	7
525.805	1	9
525.975	1	-3
526.146	1	4
526.316	1	14
526.486	1	6
526.656	1	9
526.826	1	0
526.996	1	2
527.166	1	3
527.337	1	2
527.507	1	4
527.677	1	-3
527.847	1	-5
528.017	1	4
528.187	1	-6
528.357	1	-1
528.527	1	-4
528.698	1	-8
528.868	1	4
529.038	1	3
529.208	1	10
529.378	1	-4
529.548	1	3
529.718	1	8
529.888	1	-3
530.058	1	9
530.229	1	10
530.399	1	7
530.569	1	1
530.739	1	10
530.909	1	4
531.079	1	5
531.249	1	3
531.419	1	12
531.589	1	-3
531.760	1	0
531.930	1	5
532.100	1	14
532.270	1	13
532.440	1	1
532.610	1	-6
532.780	1	4
532.950	1	-4
533.120	1	4
533.290	1	6
533.461	1	-5
533.631	1	3
533.801	1	2
533.971	1	7
534.141	1	1
534.311	1	1
534.481	1	12
534.651	1	3
534.821	1	8
534.991	1	-5
535.162	1	1
535.332	1	6
535.502	1	7
535.672	1	11
535.842	1	6
536.012	1	-10
536.182	1	-3
536.352	1	-2
536.522	1	9
536.692	1	12
536.862	1	5
537.032	1	-3
537.203	1	0
537.373	1	9
537.543	1	-3
537.713	1	6
537.883	1	7
538.053	1	10
538.223	1	-4
538.393	1	11
538.563	1	2
538.733	1	4
538.903	1	5
539.073	1	6
539.243	1	4
539.413	1	1
539.584	1	-2
539.754	1	4
539.924	1	0
540.094	1	4
540.264	1	5
540.434	1	8
540.604	1	4
540.774	1	-4
540.944	1	0
541.114	1	3
541.284	1	4
541.454	1	1
541.624	1	-4
541.794	1	-5
541.964	1	8
542.134	1	1
542.305	1	2
542.475	1	3
542.645	1	-7
542.815	1	-1
542.985	1	-1
543.155	1	7
543.325	1	-5
543.495	1	5
543.665	1	10
543.835	1	-14
544.005	1	9
544.175	1	-2
544.345	1	1
544.515	1	11
544.685	1	-6
544.855	1	3
545.025	1	-5
545.195	1	0
545.365	1	-3
545.535	1	-6
545.705	1	2
545.875	1	3
546.045	1	-3
546.216	1	4
546.386	1	2
546.556	1	0
546.726	1	-6
546.896	1	3
547.066	1	11
547.236	1	16
547.406	1	8
547.576	1	-12
547.746	1	-8
547.916	1	-4
548.086	1	5
548.256	1	11
548.426	1	5
548.596	1	-14
548.766	1	1
548.936	1	-3
549.106	1	7
549.276	1	2
549.446	1	5
549.616	1	17
549.786	1	2
549.956	1	-6
550.126	1	-6
550.296	1	-1
550.466	1	1
550.636	1	-6
550.806	1	-3
550.976	1	5
551.146	1	10
551.316	1	-3
551.486	1	6
551.656	1	4
551.826	1	5
551.996	1	5
552.166	1	-4
552.336	1	1
552.506	1	3
552.676	1	4
552.846	1	-2
553.016	1	-3
553.186	1	8
553.356	1	6
553.526	1	-2
553.696	1	10
553.866	1	-3
554.036	1	-3
554.206	1	4
554.376	1	7
554.546	1	-1
554.716	1	-8
554.886	1	3
555.056	1	3
555.226	1	2
555.396	1	-2
555.566	1	2
555.736	1	3
555.906	1	1
556.076	1	-4
556.246	1	16
556.416	1	0
556.586	1	-2
556.756	1	5
556.926	1	11
557.096	1	-8
557.266	1	6
557.436	1	-8
557.606	1	2
557.776	1	8
557.946	1	-2
558.116	1	-3
558.286	1	0
558.456	1	-4
558.626	1	15
558.796	1	-3
558.966	1	7
559.136	1	10
559.306	1	8
559.476	1	4
559.646	1	-3
559.816	1	-1
559.986	1	3
560.155	1	7
560.325	1	-5
560.495	1	1
560.665	1	-7
560.835	1	-5
561.005	1	3
561.175	1	1
561.345	1	-2
561.515	1	5
561.685	1	-4
561.855	1	11
562.025	1	-6
562.195	1	5
562.365	1	8
562.535	1	3
562.705	1	4
562.875	1	4
563.045	1	-4
563.215	1	-5
563.385	1	13
563.555	1	-1
563.725	1	-8
563.895	1	0
564.064	1	12
564.234	1	8
564.404	1	-5
564.574	1	-9
564.744	1	-6
564.914	1	4
565.084	1	6
565.254	1	-7
565.424	1	2
565.594	1	8
565.764	1	-3
565.934	1	9
566.104	1	-2
566.274	1	-3
566.444	1	7
566.614	1	-3
566.783	1	1
566.953	1	6
567.123	1	3
567.293	1	-3
567.463	1	0
567.633	1	12
567.803	1	2
567.973	1	-4
568.143	1	4
568.313	1	2
568.483	1	17
568.653	1	183
568.823	1	173
568.993	1	20
569.162	1	15
569.332	1	8
569.502	1	-3
569.672	1	-5
569.842	1	2
570.012	1	3
570.182	1	-5
570.352	1	4
570.522	1	-1
570.692	1	-3
570.862	1	4
571.031	1	2
571.201	1	11
571.371	1	2
571.541	1	-8
571.711	1	-8
571.881	1	-2
572.051	1	-5
572.221	1	-2
572.391	1	15
572.561	1	5
572.731	1	6
572.900	1	8
573.070	1	0
573.240	1	-3
573.410	1	3
573.580	1	2
573.750	1	4
573.920	1	12
574.090	1	-5
574.260	1	8
574.430	1	13
574.599	1	-2
574.769	1	-7
574.939	1	0
575.109	1	-1
575.279	1	-2
575.449	1	5
575.619	1	7
575.789	1	10
575.959	1	-12
576.128	1	4
576.298	1	4
576.468	1	2
576.638	1	12
576.808	1	-2
576.978	1	-2
577.148	1	3
577.318	1	10
577.487	1	7
577.657	1	0
577.827	1	-5
577.997	1	1
578.167	1	-4
578.337	1	7
578.507	1	1
578.677	1	5
578.846	1	6
579.016	1	5
579.186	1	2
579.356	1	-2
579.526	1	-3
579.696	1	-6
579.866	1	2
580.036	1	-1
580.205	1	3
580.375	1	-2
580.545	1	4
580.715	1	8
580.885	1	-6
581.055	1	4
581.225	1	-9
581.394	1	4
581.564	1	-2
581.734	1	10
581.904	1	-9
582.074	1	1
582.244	1	-1
582.414	1	3
582.583	1	2
582.753	1	-1
582.923	1	8
583.093	1	13
583.263	1	11
583.433	1	1
583.603	1	-7
583.772	1	-7
583.942	1	14
584.112	1	8
584.282	1	1
584.452	1	-14
584.622	1	7
584.791	1	1
584.961	1	-1
585.131	1	9
585.301	1	5
585.471	1	4
585.641	1	-2
585.811	1	0
585.980	1	2
586.150	1	-1
586.320	1	2
586.490	1	3
586.660	1	1
586.830	1	-5
586.999	1	1
587.169	1	3
587.339	1	-3
587.509	1	2
587.679	1	-2
587.849	1	-3
588.018	1	1
588.188	1	3
588.358	1	13
588.528	1	-5
588.698	1	1
588.867	1	0
589.037	1	-7
589.207	1	-8
589.377	1	-2
589.547	1	7
589.717	1	2
589.886	1	1
590.056	1	2
590.226	1	1
590.396	1	6
590.566	1	0
590.735	1	-8
590.905	1	9
591.075	1	8
591.245	1	1
591.415	1	6
591.585	1	0
591.754	1	9
591.924	1	2
592.094	1	10
592.264	1	-7
592.434	1	-3
592.603	1	-7
592.773	1	11
592.943	1	5
593.113	1	6
593.283	1	6
593.452	1	7
593.622	1	-16
593.792	1	-1
593.962	1	0
594.132	1	9
594.301	1	4
594.471	1	15
594.641	1	8
594.811	1	2
594.981	1	12
595.150	1	4
595.320	1	0
595.490	1	4
595.660	1	-6
595.829	1	-11
595.999	1	5
596.169	1	7
596.339	1	5
596.509	1	2
596.678	1	-7
596.848	1	1
597.018	1	3
597.188	1	-7
597.358	1	-2
597.527	1	-3
597.697	1	0
597.867	1	-3
598.037	1	6
598.206	1	-1
598.376	1	-4
598.546	1	-6
598.716	1	6
598.885	1	0
599.055	1	6
599.225	1	7
599.395	1	1
599.565	1	5
599.734	1	8
599.904	1	0
600.074	1	6
600.244	1	5
600.413	1	-1
600.583	1	-6
600.753	1	8
600.923	1	4
601.092	1	-7
601.262	1	-3
601.432	1	2
601.602	1	6
601.771	1	1
601.941	1	-1
602.111	1	-3
602.281	1	5
602.451	1	-1
602.620	1	-1
602.790	1	10
602.960	1	4
603.130	1	-8
603.299	1	6
603.469	1	-2
603.639	1	9
603.809	1	0
603.978	1	2
604.148	1	3
604.318	1	-7
604.487	1	4
604.657	1	8
604.827	1	-1
604.997	1	-3
605.166	1	5
605.336	1	-6
605.506	1	-3
605.676	1	-5
605.845	1	6
606.015	1	3
606.185	1	6
606.355	1	11
606.524	1	-2
606.694	1	0
606.864	1	-1
607.034	1	7
607.203	1	3
607.373	1	0
607.543	1	4
607.712	1	-17
607.882	1	-7
608.052	1	-7
608.222	1	-2
608.391	1	13
608.561	1	-1
608.731	1	1
608.901	1	8
609.070	1	6
609.240	1	0
609.410	1	3
609.579	1	1
609.749	1	0
609.919	1	4
610.089	1	8
610.258	1	4
610.428	1	4
610.598	1	7
610.767	1	2
610.937	1	-1
611.107	1	-11
611.277	1	8
611.446	1	-8
611.616	1	-7
611.786	1	-1
611.955	1	11
612.125	1	8
612.295	1	-1
612.465	1	-4
612.634	1	-1
612.804	1	2
612.974	1	-1
613.143	1	-1
613.313	1	-1
613.483	1	-9
613.652	1	16
613.822	1	6
613.992	1	3
614.162	1	4
614.331	1	0
614.501	1	1
614.671	1	0
614.840	1	-1
615.010	1	4
615.180	1	9
615.349	1	7
615.519	1	-7
615.689	1	13
615.858	1	-3
616.028	1	-3
616.198	1	-4
616.368	1	-1
616.537	1	-5
616.707	1	2
616.877	1	-1
617.046	1	1
617.216	1	13
617.386	1	-2
617.555	1	-16
617.725	1	3
617.895	1	-1
618.064	1	3
618.234	1	-1
618.404	1	11
618.573	1	-7
618.743	1	5
618.913	1	2
619.082	1	15
619.252	1	5
619.422	1	-9
619.591	1	5
619.761	1	-6
619.931	1	3
620.100	1	2
620.270	1	5
620.440	1	4
620.609	1	2
620.779	1	-2
620.949	1	0
621.118	1	-2
621.288	1	9
621.458	1	4
621.627	1	16
621.797	1	5
621.967	1	4
622.136	1	-1
622.306	1	11
622.476	1	-10
622.645	1	5
622.815	1	1
622.985	1	8
623.154	1	4
623.324	1	-2
623.494	1	-5
623.663	1	3
623.833	1	4
624.002	1	-7
624.172	1	-5
624.342	1	9
624.511	1	12
624.681	1	-1
624.851	1	-9
625.020	1	0
625.190	1	11
625.360	1	4
625.529	1	9
625.699	1	3
625.869	1	5
626.038	1	-1
626.208	1	1
626.377	1	6
626.547	1	-10
626.717	1	-4
626.886	1	1
627.056	1	-4
627.226	1	-1
627.395	1	-8
627.565	1	-1
627.735	1	-17
627.904	1	-4
628.074	1	-5
628.243	1	-1
628.413	1	1
628.583	1	-4
628.752	1	-9
628.922	1	-1
629.091	1	-9
629.261	1	0
629.431	1	3
629.600	1	4
629.770	1	2
629.940	1	2
630.109	1	-1
630.279	1	4
630.448	1	7
630.618	1	-4
630.788	1	8
630.957	1	4
631.127	1	-6
631.297	1	0
631.466	1	7
631.636	1	16
631.805	1	19
631.975	1	1
632.145	1	2
632.314	1	-1
632.484	1	-4
632.653	1	-1
632.823	1	-8
632.993	1	3
633.162	1	7
633.332	1	1
633.501	1	0
633.671	1	12
633.841	1	-3
634.010	1	-4
634.180	1	-3
634.349	1	-4
634.519	1	2
634.689	1	9
634.858	1	1
635.028	1	5
635.197	1	3
635.367	1	1
635.537	1	-2
635.706	1	3
635.876	1	3
636.045	1	8
636.215	1	1
636.384	1	-15
636.554	1	-3
636.724	1	-2
636.893	1	2
637.063	1	10
637.232	1	2
637.402	1	8
637.572	1	1
637.741	1	-2
637.911	1	1
638.080	1	3
638.250	1	-4
638.419	1	-5
638.589	1	14
638.759	1	8
638.928	1	4
639.098	1	-1
639.267	1	5
639.437	1	-2
639.606	1	-11
639.776	1	-5
639.946	1	-2
640.115	1	12
640.285	1	-2
640.454	1	-2
640.624	1	-5
640.793	1	-2
640.963	1	0
641.132	1	-1
641.302	1	-1
641.472	1	1
641.641	1	1
641.811	1	-2
641.980	1	-4
642.150	1	4
642.319	1	7
642.489	1	-5
642.659	1	0
642.828	1	-7
642.998	1	5
643.167	1	-1
643.337	1	2
643.506	1	7
643.676	1	9
643.845	1	6
644.015	1	10
644.184	1	14
644.354	1	1
644.524	1	-4
644.693	1	-5
644.863	1	-9
645.032	1	3
645.202	1	18
645.371	1	5
645.541	1	4
645.710	1	-1
645.880	1	4
646.049	1	9
646.219	1	-3
646.388	1	5
646.558	1	2
646.728	1	3
646.897	1	7
647.067	1	-9
647.236	1	-5
647.406	1	6
647.575	1	-10
647.745	1	-3
647.914	1	0
648.084	1	0
648.253	1	2
648.423	1	7
648.592	1	-3
648.762	1	4
648.931	1	4
649.101	1	6
649.270	1	6
649.440	1	-4
649.610	1	3
649.779	1	-8
649.949	1	-4
650.118	1	3
650.288	1	-4
650.457	1	-7
650.627	1	1
650.796	1	2
650.966	1	14
651.135	1	-3
651.305	1	-13
651.474	1	-2
651.644	1	5
651.813	1	0
651.983	1	-1
652.152	1	-5
652.322	1	5
652.491	1	8
652.661	1	-3
652.830	1	-4
653.000	1	-5
653.169	1	-7
653.339	1	6
653.508	1	6
653.678	1	9
653.847	1	-1
654.017	1	11
654.186	1	17
654.356	1	6
654.525	1	4
654.695	1	9
654.864	1	13
655.034	1	-7
655.203	1	1
655.373	1	-3
655.542	1	-8
655.712	1	-2
655.881	1	-5
656.051	1	9
656.220	1	0
656.390	1	6
656.559	1	-8
656.729	1	1
656.898	1	-1
657.068	1	9
657.237	1	-5
657.406	1	4
657.576	1	-6
657.745	1	10
657.915	1	5
658.084	1	-1
658.254	1	14
658.423	1	0
658.593	1	-1
658.762	1	-5
658.932	1	4
659.101	1	0
659.271	1	2
659.440	1	-1
659.610	1	12
659.779	1	-3
659.949	1	0
660.118	1	11
660.288	1	4
660.457	1	2
660.626	1	3
660.796	1	-3
660.965	1	14
661.135	1	-10
661.304	1	6
661.474	1	0
661.643	1	6
661.813	1	-4
661.982	1	14
662.152	1	-2
662.321	1	-1
662.491	1	-7
662.660	1	-13
662.829	1	8
662.999	1	2
663.168	1	1
663.338	1	-3
663.507	1	3
663.677	1	0
663.846	1	-7
664.016	1	11
664.185	1	7
664.354	1	-1
664.524	1	5
664.693	1	-7
664.863	1	-3
665.032	1	2
665.202	1	4
665.371	1	6
665.541	1	5
665.710	1	2
665.879	1	8
666.049	1	2
666.218	1	8
666.388	1	8
666.557	1	2
666.727	1	-3
666.896	1	10
667.065	1	-1
667.235	1	8
667.404	1	2
667.574	1	-14
667.743	1	-1
667.913	1	-10
668.082	1	12
668.251	1	7
668.421	1	5
668.590	1	2
668.760	1	5
668.929	1	2
669.099	1	-3
669.268	1	-8
669.437	1	-7
669.607	1	3
669.776	1	1
669.946	1	4
670.115	1	8
670.285	1	6
670.454	1	-10
670.623	1	0
670.793	1	15
670.962	1	-4
671.132	1	-4
671.301	1	1
671.470	1	6
671.640	1	-8
671.809	1	-11
671.979	1	-2
672.148	1	-6
672.317	1	5
672.487	1	-1
672.656	1	1
672.826	1	-7
672.995	1	2
673.164	1	-4
673.334	1	-7
673.503	1	-11
673.673	1	12
673.842	1	2
674.011	1	3
674.181	1	1
674.350	1	16
674.520	1	6
674.689	1	9
674.858	1	2
675.028	1	-5
675.197	1	2
675.367	1	-3
675.536	1	-4
675.705	1	15
675.875	1	5
676.044	1	16
676.214	1	-5
676.383	1	2
676.552	1	4
676.722	1	11
676.891	1	7
677.060	1	-3
677.230	1	6
677.399	1	-1
677.569	1	-3
677.738	1	8
677.907	1	3
678.077	1	12
678.246	1	-4
678.416	1	-9
678.585	1	-2
678.754	1	-2
678.924	1	9
679.093	1	-3
679.262	1	5
679.432	1	6
679.601	1	7
679.771	1	-3
679.940	1	4
680.109	1	-2
680.279	1	-8
680.448	1	3
680.617	1	-4
680.787	1	-9
680.956	1	-10
681.125	1	6
681.295	1	5
681.464	1	0
681.634	1	3
681.803	1	3
681.972	1	-10
682.142	1	-11
682.311	1	4
682.480	1	-1
682.650	1	-6
682.819	1	10
682.988	1	-4
683.158	1	-1
683.327	1	9
683.496	1	4
683.666	1	-5
683.835	1	-3
684.004	1	-2
684.174	1	-6
684.343	1	8
684.512	1	5
684.682	1	0
684.851	1	1
685.021	1	-8
685.190	1	3
685.359	1	-9
685.529	1	14
685.698	1	-4
685.867	1	-5
686.037	1	0
686.206	1	5
686.375	1	16
686.545	1	5
686.714	1	0
686.883	1	-4
687.053	1	-5
687.222	1	1
687.391	1	10
687.561	1	-5
687.730	1	10
687.899	1	-7
688.069	1	4
688.238	1	2
688.407	1	-6
688.577	1	6
688.746	1	-8
