340.368	1	-7
340.539	1	-3
340.710	1	-12
340.881	1	-1
341.052	1	6
341.223	1	-2
341.394	1	3
341.565	1	1
341.737	1	-1
341.908	1	5
342.079	1	-2
342.250	1	12
342.421	1	2
342.592	1	3
342.763	1	8
342.934	1	-5
343.105	1	11
343.276	1	-2
343.447	1	-8
343.618	1	0
343.789	1	2
343.960	1	4
344.131	1	-3
344.302	1	2
344.473	1	1
344.644	1	5
344.815	1	6
344.986	1	4
345.157	1	3
345.328	1	10
345.499	1	-11
345.670	1	7
345.841	1	5
346.012	1	9
346.183	1	4
346.354	1	-7
346.526	1	0
346.697	1	16
346.868	1	10
347.039	1	0
347.210	1	-13
347.381	1	2
347.552	1	9
347.723	1	8
347.894	1	1
348.065	1	-4
348.236	1	0
348.407	1	0
348.578	1	-1
348.749	1	9
348.920	1	-1
349.091	1	9
349.262	1	2
349.433	1	6
349.604	1	3
349.775	1	0
349.946	1	8
350.117	1	0
350.288	1	-3
350.459	1	-4
350.630	1	8
350.801	1	-5
350.972	1	-5
351.143	1	-5
351.314	1	9
351.485	1	-2
351.656	1	-3
351.827	1	0
351.998	1	0
352.169	1	-8
352.340	1	3
352.511	1	7
352.682	1	6
352.853	1	6
353.024	1	-1
353.195	1	6
353.366	1	0
353.537	1	2
353.708	1	11
353.879	1	7
354.050	1	-10
354.221	1	-5
354.392	1	-4
354.563	1	3
354.734	1	1
354.905	1	17
355.076	1	-2
355.247	1	1
355.418	1	0
355.589	1	-3
355.760	1	-4
355.931	1	10
356.102	1	0
356.273	1	-7
356.444	1	0
356.615	1	-1
356.785	1	-7
356.956	1	3
357.127	1	-5
357.298	1	1
357.469	1	2
357.640	1	-3
357.811	1	-4
357.982	1	4
358.153	1	12
358.324	1	11
358.495	1	5
358.666	1	-3
358.837	1	6
359.008	1	-4
359.179	1	-6
359.350	1	5
359.521	1	5
359.692	1	1
359.863	1	6
360.034	1	-1
360.205	1	3
360.376	1	-7
360.547	1	2
360.718	1	4
360.889	1	8
361.060	1	3
361.231	1	6
361.401	1	5
361.572	1	4
361.743	1	4
361.914	1	2
362.085	1	-7
362.256	1	0
362.427	1	5
362.598	1	11
362.769	1	-8
362.940	1	14
363.111	1	10
363.282	1	10
363.453	1	-1
363.624	1	6
363.795	1	3
363.966	1	0
364.137	1	9
364.308	1	13
364.478	1	-1
364.649	1	-2
364.820	1	5
364.991	1	17
365.162	1	16
365.333	1	3
365.504	1	-1
365.675	1	1
365.846	1	-4
366.017	1	1
366.188	1	6
366.359	1	-1
366.530	1	16
366.701	1	9
366.871	1	12
367.042	1	-2
367.213	1	6
367.384	1	10
367.555	1	10
367.726	1	20
367.897	1	12
368.068	1	8
368.239	1	14
368.410	1	7
368.581	1	5
368.752	1	19
368.923	1	1
369.093	1	4
369.264	1	4
369.435	1	3
369.606	1	8
369.777	1	13
369.948	1	17
370.119	1	11
370.290	1	5
370.461	1	15
370.632	1	-1
370.803	1	0
370.973	1	16
371.144	1	0
371.315	1	13
371.486	1	1
371.657	1	7
371.828	1	-2
371.999	1	22
372.170	1	14
372.341	1	10
372.512	1	5
372.682	1	10
372.853	1	18
373.024	1	-2
373.195	1	13
373.366	1	17
373.537	1	19
373.708	1	7
373.879	1	10
374.050	1	9
374.220	1	8
374.391	1	9
374.562	1	-6
374.733	1	6
374.904	1	5
375.075	1	5
375.246	1	3
375.417	1	14
375.588	1	-1
375.758	1	14
375.929	1	8
376.100	1	6
376.271	1	7
376.442	1	9
376.613	1	5
376.784	1	-3
376.955	1	-1
377.125	1	12
377.296	1	2
377.467	1	5
377.638	1	6
377.809	1	14
377.980	1	-8
378.151	1	2
378.321	1	8
378.492	1	2
378.663	1	4
378.834	1	0
379.005	1	0
379.176	1	0
379.347	1	5
379.518	1	1
379.688	1	-2
379.859	1	3
380.030	1	1
380.201	1	1
380.372	1	2
380.543	1	4
380.714	1	12
380.884	1	4
381.055	1	3
381.226	1	6
381.397	1	6
381.568	1	8
381.739	1	4
381.910	1	8
382.080	1	-1
382.251	1	3
382.422	1	2
382.593	1	7
382.764	1	6
382.935	1	0
383.105	1	2
383.276	1	6
383.447	1	4
383.618	1	4
383.789	1	18
383.960	1	7
384.130	1	-7
384.301	1	-6
384.472	1	-1
384.643	1	-9
384.814	1	9
384.985	1	-2
385.156	1	-2
385.326	1	-1
385.497	1	10
385.668	1	12
385.839	1	1
386.010	1	9
386.180	1	8
386.351	1	-1
386.522	1	8
386.693	1	3
386.864	1	10
387.035	1	0
387.205	1	-5
387.376	1	-2
387.547	1	3
387.718	1	4
387.889	1	10
388.060	1	3
388.230	1	-4
388.401	1	-10
388.572	1	0
388.743	1	9
388.914	1	-2
389.084	1	5
389.255	1	2
389.426	1	10
389.597	1	-4
389.768	1	6
389.939	1	0
390.109	1	2
390.280	1	1
390.451	1	0
390.622	1	-4
390.793	1	0
390.963	1	-4
391.134	1	2
391.305	1	-1
391.476	1	13
391.647	1	-3
391.817	1	5
391.988	1	12
392.159	1	4
392.330	1	2
392.501	1	3
392.671	1	-5
392.842	1	-5
393.013	1	-6
393.184	1	14
393.355	1	5
393.525	1	8
393.696	1	7
393.867	1	6
394.038	1	-5
394.208	1	14
394.379	1	0
394.550	1	1
394.721	1	1
394.892	1	7
395.062	1	9
395.233	1	10
395.404	1	1
395.575	1	3
395.746	1	1
395.916	1	-3
396.087	1	4
396.258	1	1
396.429	1	7
396.599	1	-11
396.770	1	9
396.941	1	3
397.112	1	5
397.283	1	-8
397.453	1	6
397.624	1	1
397.795	1	-2
397.966	1	-1
398.136	1	8
398.307	1	-5
398.478	1	-3
398.649	1	9
398.819	1	10
398.990	1	-11
399.161	1	-8
399.332	1	-6
399.503	1	5
399.673	1	9
399.844	1	-8
400.015	1	11
400.186	1	2
400.356	1	-8
400.527	1	10
400.698	1	3
400.869	1	0
401.039	1	3
401.210	1	-2
401.381	1	9
401.552	1	0
401.722	1	4
401.893	1	2
402.064	1	7
402.235	1	6
402.405	1	-8
402.576	1	-2
402.747	1	2
402.918	1	4
403.088	1	15
403.259	1	-5
403.430	1	3
403.601	1	3
403.771	1	-4
403.942	1	1
404.113	1	4
404.284	1	-13
404.454	1	-3
404.625	1	-1
404.796	1	5
404.967	1	3
405.137	1	5
405.308	1	3
405.479	1	-4
405.649	1	-7
405.820	1	-1
405.991	1	8
406.162	1	13
406.332	1	-12
406.503	1	-2
406.674	1	3
406.845	1	5
407.015	1	6
407.186	1	-4
407.357	1	1
407.527	1	4
407.698	1	-1
407.869	1	-2
408.040	1	7
408.210	1	-7
408.381	1	7
408.552	1	5
408.722	1	-3
408.893	1	1
409.064	1	-3
409.235	1	1
409.405	1	3
409.576	1	3
409.747	1	-5
409.917	1	10
410.088	1	4
410.259	1	4
410.430	1	-8
410.600	1	7
410.771	1	-1
410.942	1	0
411.112	1	-2
411.283	1	-7
411.454	1	7
411.625	1	-3
411.795	1	10
411.966	1	7
412.137	1	-6
412.307	1	4
412.478	1	0
412.649	1	8
412.819	1	-17
412.990	1	2
413.161	1	8
413.332	1	-3
413.502	1	-6
413.673	1	-6
413.844	1	4
414.014	1	7
414.185	1	-4
414.356	1	-9
414.526	1	3
414.697	1	7
414.868	1	-12
415.038	1	0
415.209	1	-9
415.380	1	1
415.550	1	-4
415.721	1	-3
415.892	1	-4
416.063	1	0
416.233	1	8
416.404	1	0
416.575	1	4
416.745	1	1
416.916	1	-6
417.087	1	1
417.257	1	4
417.428	1	3
417.599	1	4
417.769	1	11
417.940	1	6
418.111	1	4
418.281	1	-7
418.452	1	2
418.623	1	5
418.793	1	7
418.964	1	-9
419.135	1	3
419.305	1	1
419.476	1	-3
419.647	1	7
419.817	1	-7
419.988	1	5
420.159	1	9
420.329	1	5
420.500	1	-4
420.671	1	-9
420.841	1	2
421.012	1	6
421.183	1	5
421.353	1	3
421.524	1	-1
421.695	1	-11
421.865	1	-4
422.036	1	9
422.206	1	3
422.377	1	3
422.548	1	-4
422.718	1	12
422.889	1	3
423.060	1	-8
423.230	1	3
423.401	1	-5
423.572	1	0
423.742	1	-5
423.913	1	8
424.084	1	24
424.254	1	0
424.425	1	-7
424.595	1	14
424.766	1	-4
424.937	1	10
425.107	1	-3
425.278	1	7
425.449	1	5
425.619	1	-7
425.790	1	6
425.961	1	-7
426.131	1	8
426.302	1	-5
426.472	1	-1
426.643	1	4
426.814	1	-5
426.984	1	-6
427.155	1	15
427.326	1	0
427.496	1	2
427.667	1	4
427.837	1	0
428.008	1	7
428.179	1	3
428.349	1	-5
428.520	1	1
428.691	1	-4
428.861	1	4
429.032	1	9
429.202	1	-6
429.373	1	9
429.544	1	-6
429.714	1	-2
429.885	1	4
430.055	1	-1
430.226	1	3
430.397	1	2
430.567	1	1
430.738	1	0
430.909	1	-3
431.079	1	-10
431.250	1	14
431.420	1	5
431.591	1	-6
431.762	1	1
431.932	1	-9
432.103	1	4
432.273	1	-2
432.444	1	7
432.615	1	-4
432.785	1	-1
432.956	1	5
433.126	1	-3
433.297	1	-2
433.468	1	-2
433.638	1	4
433.809	1	5
433.979	1	-1
434.150	1	3
434.320	1	-2
434.491	1	-1
434.662	1	-13
434.832	1	2
435.003	1	6
435.173	1	4
435.344	1	1
435.515	1	10
435.685	1	-3
435.856	1	11
436.026	1	-6
436.197	1	-8
436.368	1	8
436.538	1	0
436.709	1	-3
436.879	1	5
437.050	1	-2
437.220	1	-1
437.391	1	-2
437.562	1	15
437.732	1	1
437.903	1	6
438.073	1	-9
438.244	1	9
438.414	1	-10
438.585	1	-7
438.756	1	-2
438.926	1	7
439.097	1	3
439.267	1	12
439.438	1	9
439.608	1	-5
439.779	1	3
439.949	1	7
440.120	1	-6
440.291	1	11
440.461	1	9
440.632	1	-4
440.802	1	5
440.973	1	1
441.143	1	0
441.314	1	-2
441.485	1	-7
441.655	1	2
441.826	1	-1
441.996	1	-1
442.167	1	2
442.337	1	3
442.508	1	2
442.678	1	0
442.849	1	-2
443.019	1	-3
443.190	1	-4
443.361	1	0
443.531	1	8
443.702	1	9
443.872	1	-6
444.043	1	6
444.213	1	0
444.384	1	-2
444.554	1	-2
444.725	1	-3
444.895	1	-14
445.066	1	8
445.237	1	3
445.407	1	4
445.578	1	10
445.748	1	-6
445.919	1	5
446.089	1	-6
446.260	1	11
446.430	1	-3
446.601	1	-6
446.771	1	-3
446.942	1	0
447.112	1	9
447.283	1	6
447.453	1	5
447.624	1	-3
447.794	1	5
447.965	1	4
448.135	1	2
448.306	1	-2
448.477	1	6
448.647	1	3
448.818	1	13
448.988	1	9
449.159	1	2
449.329	1	11
449.500	1	7
449.670	1	-15
449.841	1	-10
450.011	1	8
450.182	1	-3
450.352	1	3
450.523	1	5
450.693	1	-9
450.864	1	-1
451.034	1	1
451.205	1	2
451.375	1	4
451.546	1	-8
451.716	1	5
451.887	1	-6
452.057	1	-1
452.228	1	-2
452.398	1	1
452.569	1	6
452.739	1	3
452.910	1	4
453.080	1	4
453.251	1	3
453.421	1	5
453.592	1	-5
453.762	1	-6
453.933	1	0
454.103	1	-3
454.274	1	10
454.444	1	-7
454.615	1	0
454.785	1	-3
454.956	1	1
455.126	1	10
455.297	1	-12
455.467	1	-12
455.638	1	7
455.808	1	11
455.979	1	5
456.149	1	6
456.320	1	-3
456.490	1	0
456.661	1	-3
456.831	1	-6
457.001	1	10
457.172	1	0
457.342	1	0
457.513	1	5
457.683	1	6
457.854	1	5
458.024	1	8
458.195	1	4
458.365	1	0
458.536	1	3
458.706	1	7
458.877	1	8
459.047	1	0
459.218	1	1
459.388	1	7
459.559	1	2
459.729	1	1
459.899	1	-4
460.070	1	4
460.240	1	-3
460.411	1	-1
460.581	1	4
460.752	1	1
460.922	1	-7
461.093	1	0
461.263	1	-1
461.434	1	-7
461.604	1	6
461.775	1	0
461.945	1	4
462.115	1	11
462.286	1	-7
462.456	1	-9
462.627	1	5
462.797	1	-1
462.968	1	12
463.138	1	-1
463.309	1	4
463.479	1	3
463.649	1	12
463.820	1	9
463.990	1	0
464.161	1	3
464.331	1	-4
464.502	1	2
464.672	1	-13
464.843	1	5
465.013	1	-2
465.183	1	8
465.354	1	1
465.524	1	6
465.695	1	2
465.865	1	11
466.036	1	-4
466.206	1	6
466.376	1	-4
466.547	1	0
466.717	1	4
466.888	1	1
467.058	1	13
467.229	1	3
467.399	1	8
467.569	1	10
467.740	1	3
467.910	1	-10
468.081	1	1
468.251	1	-2
468.422	1	-2
468.592	1	4
468.762	1	8
468.933	1	7
469.103	1	10
469.274	1	12
469.444	1	-3
469.614	1	-1
469.785	1	-8
469.955	1	2
470.126	1	-1
470.296	1	4
470.467	1	6
470.637	1	4
470.807	1	3
470.978	1	0
471.148	1	0
471.319	1	7
471.489	1	-7
471.659	1	-6
471.830	1	3
472.000	1	1
472.171	1	7
472.341	1	0
472.511	1	2
472.682	1	-2
472.852	1	9
473.023	1	-4
473.193	1	-1
473.363	1	-7
473.534	1	5
473.704	1	10
473.875	1	4
474.045	1	5
474.215	1	9
474.386	1	1
474.556	1	3
474.727	1	4
474.897	1	9
475.067	1	-1
475.238	1	-10
475.408	1	-14
475.578	1	8
475.749	1	5
475.919	1	10
476.090	1	6
476.260	1	8
476.430	1	-1
476.601	1	-1
476.771	1	0
476.942	1	-1
477.112	1	-12
477.282	1	4
477.453	1	5
477.623	1	7
477.793	1	7
477.964	1	-3
478.134	1	7
478.305	1	-1
478.475	1	2
478.645	1	2
478.816	1	-2
478.986	1	-1
479.156	1	11
479.327	1	-9
479.497	1	2
479.667	1	-4
479.838	1	9
480.008	1	0
480.179	1	-5
480.349	1	3
480.519	1	1
480.690	1	9
480.860	1	-1
481.030	1	10
481.201	1	-4
481.371	1	1
481.541	1	15
481.712	1	3
481.882	1	6
482.053	1	-1
482.223	1	4
482.393	1	-5
482.564	1	-2
482.734	1	3
482.904	1	11
483.075	1	-3
483.245	1	-3
483.415	1	-1
483.586	1	5
483.756	1	0
483.926	1	3
484.097	1	-12
484.267	1	3
484.437	1	-5
484.608	1	-1
484.778	1	-9
484.948	1	1
485.119	1	10
485.289	1	4
485.459	1	-4
485.630	1	0
485.800	1	-1
485.970	1	-2
486.141	1	11
486.311	1	4
486.481	1	6
486.652	1	13
486.822	1	0
486.992	1	5
487.163	1	-1
487.333	1	-5
487.503	1	-1
487.674	1	-4
487.844	1	3
488.014	1	-3
488.185	1	-7
488.355	1	-8
488.525	1	8
488.696	1	2
488.866	1	13
489.036	1	5
489.207	1	2
489.377	1	1
489.547	1	-2
489.718	1	5
489.888	1	-6
490.058	1	0
490.228	1	3
490.399	1	2
490.569	1	10
490.739	1	-3
490.910	1	1
491.080	1	-7
491.250	1	10
491.421	1	1
491.591	1	-3
491.761	1	2
491.932	1	10
492.102	1	3
492.272	1	9
492.442	1	7
492.613	1	5
492.783	1	-6
492.953	1	-5
493.124	1	7
493.294	1	1
493.464	1	3
493.635	1	-5
493.805	1	3
493.975	1	-7
494.145	1	5
494.316	1	6
494.486	1	16
494.656	1	-4
494.827	1	-6
494.997	1	-12
495.167	1	10
495.337	1	9
495.508	1	-1
495.678	1	-2
495.848	1	1
496.019	1	-7
496.189	1	-8
496.359	1	8
496.529	1	5
496.700	1	6
496.870	1	-5
497.040	1	1
497.211	1	5
497.381	1	8
497.551	1	10
497.721	1	-1
497.892	1	4
498.062	1	4
498.232	1	1
498.403	1	7
498.573	1	-4
498.743	1	0
498.913	1	5
499.084	1	-4
499.254	1	8
499.424	1	3
499.594	1	3
499.765	1	-9
499.935	1	4
500.105	1	-4
500.275	1	-2
500.446	1	6
500.616	1	-1
500.786	1	0
500.956	1	0
501.127	1	7
501.297	1	7
501.467	1	3
501.638	1	-6
501.808	1	-3
501.978	1	-4
502.148	1	8
502.319	1	7
502.489	1	1
502.659	1	-6
502.829	1	8
503.000	1	3
503.170	1	18
503.340	1	2
503.510	1	6
503.681	1	5
503.851	1	1
504.021	1	7
504.191	1	-3
504.362	1	12
504.532	1	-14
504.702	1	0
504.872	1	5
505.042	1	2
505.213	1	-2
505.383	1	-5
505.553	1	2
505.723	1	0
505.894	1	12
506.064	1	-7
506.234	1	1
506.404	1	2
506.575	1	5
506.745	1	5
506.915	1	0
507.085	1	-17
507.256	1	-1
507.426	1	-7
507.596	1	8
507.766	1	9
507.936	1	10
508.107	1	-2
508.277	1	-7
508.447	1	-1
508.617	1	9
508.788	1	-10
508.958	1	-1
509.128	1	2
509.298	1	4
509.468	1	-2
509.639	1	9
509.809	1	0
509.979	1	2
510.149	1	6
510.319	1	-3
510.490	1	7
510.660	1	-9
510.830	1	-5
511.000	1	10
511.171	1	6
511.341	1	13
511.511	1	0
511.681	1	1
511.851	1	-5
512.022	1	0
512.192	1	5
512.362	1	5
512.532	1	-4
512.702	1	-6
512.873	1	-3
513.043	1	0
513.213	1	-1
513.383	1	-5
513.553	1	-3
513.724	1	1
513.894	1	-8
514.064	1	9
514.234	1	-7
514.404	1	-1
514.575	1	-10
514.745	1	0
514.915	1	-2
515.085	1	1
515.255	1	-5
515.425	1	7
515.596	1	-12
515.766	1	-1
515.936	1	0
516.106	1	12
516.276	1	5
516.447	1	-4
516.617	1	-1
516.787	1	1
516.957	1	-3
517.127	1	5
517.297	1	8
517.468	1	4
517.638	1	-4
517.808	1	9
517.978	1	0
518.148	1	0
518.319	1	4
518.489	1	11
518.659	1	2
518.829	1	5
518.999	1	12
519.169	1	7
519.340	1	4
519.510	1	4
519.680	1	-6
519.850	1	6
520.020	1	-3
520.190	1	2
520.361	1	2
520.531	1	8
520.701	1	7
520.871	1	4
521.041	1	-4
521.211	1	5
521.382	1	-6
521.552	1	5
521.722	1	2
521.892	1	3
522.062	1	-4
522.232	1	-13
522.402	1	-2
522.573	1	4
522.743	1	8
522.913	1	4
523.083	1	2
523.253	1	16
523.423	1	-2
523.593	1	12
523.764	1	7
523.934	1	-3
524.104	1	0
524.274	1	-4
524.444	1	-3
524.614	1	5
524.784	1	6
524.955	1	-4
525.125	1	9
525.295	1	1
525.465	1	0
525.635	1	8
525.805	1	0
525.975	1	-3
526.146	1	-7
526.316	1	9
526.486	1	-1
526.656	1	12
526.826	1	-5
526.996	1	7
527.166	1	6
527.337	1	-4
527.507	1	-5
527.677	1	3
527.847	1	6
528.017	1	6
528.187	1	-5
528.357	1	1
528.527	1	-3
528.698	1	-15
528.868	1	2
529.038	1	-5
529.208	1	15
529.378	1	3
529.548	1	2
529.718	1	9
529.888	1	-2
530.058	1	11
530.229	1	5
530.399	1	5
530.569	1	2
530.739	1	0
530.909	1	-1
531.079	1	0
531.249	1	3
531.419	1	10
531.589	1	8
531.760	1	-7
531.930	1	5
532.100	1	5
532.270	1	4
532.440	1	5
532.610	1	6
532.780	1	-4
532.950	1	-8
533.120	1	4
533.290	1	-2
533.461	1	-3
533.631	1	-4
533.801	1	5
533.971	1	7
534.141	1	0
534.311	1	-6
534.481	1	10
534.651	1	2
534.821	1	7
534.991	1	-1
535.162	1	4
535.332	1	14
535.502	1	-3
535.672	1	0
535.842	1	6
536.012	1	-11
536.182	1	4
536.352	1	-5
536.522	1	7
536.692	1	4
536.862	1	18
537.032	1	-17
537.203	1	-1
537.373	1	-7
537.543	1	1
537.713	1	12
537.883	1	10
538.053	1	2
538.223	1	-2
538.393	1	9
538.563	1	-1
538.733	1	-6
538.903	1	-2
539.073	1	4
539.243	1	1
539.413	1	0
539.584	1	-7
539.754	1	5
539.924	1	-3
540.094	1	2
540.264	1	16
540.434	1	-2
540.604	1	2
540.774	1	-7
540.944	1	2
541.114	1	5
541.284	1	5
541.454	1	3
541.624	1	3
541.794	1	-4
541.964	1	-1
542.134	1	-8
542.305	1	1
542.475	1	2
542.645	1	-5
542.815	1	4
542.985	1	3
543.155	1	5
543.325	1	-3
543.495	1	2
543.665	1	4
543.835	1	-12
544.005	1	11
544.175	1	-1
544.345	1	0
544.515	1	7
544.685	1	-7
544.855	1	2
545.025	1	3
545.195	1	-9
545.365	1	-8
545.535	1	-4
545.705	1	4
545.875	1	-4
546.045	1	2
546.216	1	4
546.386	1	-3
546.556	1	-6
546.726	1	1
546.896	1	5
547.066	1	7
547.236	1	8
547.406	1	-4
547.576	1	-6
547.746	1	-2
547.916	1	3
548.086	1	2
548.256	1	15
548.426	1	7
548.596	1	-4
548.766	1	2
548.936	1	-2
549.106	1	-3
549.276	1	-1
549.446	1	2
549.616	1	12
549.786	1	5
549.956	1	-4
550.126	1	1
550.296	1	3
550.466	1	1
550.636	1	-2
550.806	1	4
550.976	1	10
551.146	1	6
551.316	1	5
551.486	1	3
551.656	1	5
551.826	1	6
551.996	1	-1
552.166	1	4
552.336	1	1
552.506	1	-1
552.676	1	6
552.846	1	3
553.016	1	6
553.186	1	9
553.356	1	0
553.526	1	-14
553.696	1	0
553.866	1	6
554.036	1	0
554.206	1	0
554.376	1	6
554.546	1	-7
554.716	1	-2
554.886	1	-6
555.056	1	-5
555.226	1	-5
555.396	1	-6
555.566	1	8
555.736	1	5
555.906	1	-1
556.076	1	-4
556.246	1	4
556.416	1	1
556.586	1	5
556.756	1	-4
556.926	1	8
557.096	1	-3
557.266	1	1
557.436	1	-3
557.606	1	7
557.776	1	2
557.946	1	2
558.116	1	-9
558.286	1	3
558.456	1	-2
558.626	1	8
558.796	1	2
558.966	1	3
559.136	1	3
559.306	1	7
559.476	1	2
559.646	1	-2
559.816	1	2
559.986	1	4
560.155	1	1
560.325	1	-8
560.495	1	-1
560.665	1	2
560.835	1	4
561.005	1	-1
561.175	1	-10
561.345	1	-9
561.515	1	7
561.685	1	6
561.855	1	5
562.025	1	-2
562.195	1	8
562.365	1	-3
562.535	1	-1
562.705	1	1
562.875	1	4
563.045	1	6
563.215	1	1
563.385	1	3
563.555	1	1
563.725	1	-2
563.895	1	5
564.064	1	-2
564.234	1	8
564.404	1	0
564.574	1	-1
564.744	1	-1
564.914	1	6
565.084	1	5
565.254	1	-6
565.424	1	-4
565.594	1	4
565.764	1	5
565.934	1	13
566.104	1	-6
566.274	1	-5
566.444	1	0
566.614	1	-8
566.783	1	-2
566.953	1	8
567.123	1	4
567.293	1	0
567.463	1	-2
567.633	1	1
567.803	1	11
567.973	1	-4
568.143	1	0
568.313	1	-7
568.483	1	4
568.653	1	4
568.823	1	4
568.993	1	3
569.162	1	6
569.332	1	8
569.502	1	-1
569.672	1	-4
569.842	1	-11
570.012	1	0
570.182	1	-3
570.352	1	-5
570.522	1	3
570.692	1	11
570.862	1	-4
571.031	1	5
571.201	1	5
571.371	1	5
571.541	1	-2
571.711	1	-2
571.881	1	-1
572.051	1	-3
572.221	1	-3
572.391	1	7
572.561	1	6
572.731	1	8
572.900	1	2
573.070	1	6
573.240	1	3
573.410	1	6
573.580	1	3
573.750	1	0
573.920	1	10
574.090	1	-4
574.260	1	10
574.430	1	8
574.599	1	-5
574.769	1	-5
574.939	1	-4
575.109	1	-5
575.279	1	-3
575.449	1	5
575.619	1	9
575.789	1	7
575.959	1	-2
576.128	1	-2
576.298	1	-1
576.468	1	-4
576.638	1	-4
576.808	1	-2
576.978	1	-14
577.148	1	0
577.318	1	6
577.487	1	0
577.657	1	-1
577.827	1	-4
577.997	1	5
578.167	1	-5
578.337	1	1
578.507	1	9
578.677	1	3
578.846	1	3
579.016	1	6
579.186	1	-10
579.356	1	-1
579.526	1	-10
579.696	1	1
579.866	1	9
580.036	1	-3
580.205	1	2
580.375	1	4
580.545	1	-4
580.715	1	4
580.885	1	0
581.055	1	11
581.225	1	-2
581.394	1	-1
581.564	1	4
581.734	1	7
581.904	1	-4
582.074	1	-1
582.244	1	3
582.414	1	0
582.583	1	6
582.753	1	10
582.923	1	3
583.093	1	2
583.263	1	3
583.433	1	4
583.603	1	-7
583.772	1	-5
583.942	1	8
584.112	1	1
584.282	1	1
584.452	1	-5
584.622	1	14
584.791	1	4
584.961	1	5
585.131	1	19
585.301	1	4
585.471	1	-2
585.641	1	3
585.811	1	-7
585.980	1	-12
586.150	1	-5
586.320	1	7
586.490	1	-1
586.660	1	-4
586.830	1	-5
586.999	1	3
587.169	1	7
587.339	1	4
587.509	1	-2
587.679	1	2
587.849	1	1
588.018	1	5
588.188	1	-7
588.358	1	13
588.528	1	-2
588.698	1	-5
588.867	1	1
589.037	1	-1
589.207	1	-5
589.377	1	2
589.547	1	6
589.717	1	10
589.886	1	-8
590.056	1	4
590.226	1	-7
590.396	1	10
590.566	1	-6
590.735	1	-4
590.905	1	11
591.075	1	6
591.245	1	8
591.415	1	8
591.585	1	3
591.754	1	0
591.924	1	2
592.094	1	9
592.264	1	-10
592.434	1	1
592.603	1	-7
592.773	1	8
592.943	1	5
593.113	1	11
593.283	1	-1
593.452	1	-2
593.622	1	-4
593.792	1	-3
593.962	1	-3
594.132	1	10
594.301	1	8
594.471	1	9
594.641	1	-1
594.811	1	-11
594.981	1	19
595.150	1	-2
595.320	1	8
595.490	1	-7
595.660	1	-3
595.829	1	0
595.999	1	4
596.169	1	6
596.339	1	4
596.509	1	-8
596.678	1	-4
596.848	1	0
597.018	1	0
597.188	1	-3
597.358	1	-5
597.527	1	-1
597.697	1	0
597.867	1	12
598.037	1	5
598.206	1	-1
598.376	1	-12
598.546	1	-10
598.716	1	0
598.885	1	-4
599.055	1	-4
599.225	1	7
599.395	1	1
599.565	1	8
599.734	1	5
599.904	1	3
600.074	1	-3
600.244	1	6
600.413	1	-7
600.583	1	3
600.753	1	7
600.923	1	2
601.092	1	-4
601.262	1	-7
601.432	1	-6
601.602	1	1
601.771	1	-1
601.941	1	-4
602.111	1	3
602.281	1	-2
602.451	1	12
602.620	1	-1
602.790	1	13
602.960	1	4
603.130	1	-5
603.299	1	3
603.469	1	6
603.639	1	3
603.809	1	-1
603.978	1	4
604.148	1	2
604.318	1	2
604.487	1	9
604.657	1	11
604.827	1	-6
604.997	1	-4
605.166	1	9
605.336	1	-3
605.506	1	-2
605.676	1	-5
605.845	1	7
606.015	1	3
606.185	1	3
606.355	1	6
606.524	1	-2
606.694	1	-6
606.864	1	-7
607.034	1	3
607.203	1	-2
607.373	1	7
607.543	1	7
607.712	1	-10
607.882	1	-9
608.052	1	-7
608.222	1	-3
608.391	1	2
608.561	1	10
608.731	1	-4
608.901	1	10
609.070	1	-4
609.240	1	-11
609.410	1	-3
609.579	1	7
609.749	1	-3
609.919	1	-5
610.089	1	0
610.258	1	4
610.428	1	-2
610.598	1	3
610.767	1	-1
610.937	1	4
611.107	1	-10
611.277	1	5
611.446	1	-2
611.616	1	10
611.786	1	3
611.955	1	11
612.125	1	7
612.295	1	-1
612.465	1	-2
612.634	1	-4
612.804	1	3
612.974	1	6
613.143	1	-1
613.313	1	-1
613.483	1	0
613.652	1	14
613.822	1	0
613.992	1	-1
614.162	1	-3
614.331	1	2
614.501	1	-1
614.671	1	12
614.840	1	-1
615.010	1	6
615.180	1	6
615.349	1	7
615.519	1	3
615.689	1	11
615.858	1	2
616.028	1	-1
616.198	1	-1
616.368	1	-6
616.537	1	3
616.707	1	8
616.877	1	5
617.046	1	3
617.216	1	8
617.386	1	1
617.555	1	1
617.725	1	2
617.895	1	-1
618.064	1	0
618.234	1	-4
618.404	1	-1
618.573	1	-3
618.743	1	10
618.913	1	8
619.082	1	8
619.252	1	14
619.422	1	-5
619.591	1	3
619.761	1	-3
619.931	1	0
620.100	1	1
620.270	1	-3
620.440	1	3
620.609	1	2
620.779	1	-1
620.949	1	-1
621.118	1	-3
621.288	1	10
621.458	1	1
621.627	1	2
621.797	1	4
621.967	1	5
622.136	1	-4
622.306	1	9
622.476	1	-9
622.645	1	-6
622.815	1	-10
622.985	1	1
623.154	1	6
623.324	1	-1
623.494	1	-3
623.663	1	7
623.833	1	8
624.002	1	1
624.172	1	-8
624.342	1	16
624.511	1	-3
624.681	1	2
624.851	1	-2
625.020	1	-1
625.190	1	8
625.360	1	5
625.529	1	7
625.699	1	3
625.869	1	5
626.038	1	1
626.208	1	0
626.377	1	7
626.547	1	-2
626.717	1	-2
626.886	1	2
627.056	1	3
627.226	1	0
627.395	1	-4
627.565	1	6
627.735	1	-9
627.904	1	2
628.074	1	4
628.243	1	1
628.413	1	0
628.583	1	0
628.752	1	-1
628.922	1	-6
629.091	1	-10
629.261	1	1
629.431	1	3
629.600	1	-2
629.770	1	7
629.940	1	-3
630.109	1	-1
630.279	1	-2
630.448	1	3
630.618	1	-5
630.788	1	9
630.957	1	5
631.127	1	-4
631.297	1	-3
631.466	1	-1
631.636	1	5
631.805	1	10
631.975	1	-1
632.145	1	1
632.314	1	3
632.484	1	-2
632.653	1	11
632.823	1	-10
632.993	1	-12
633.162	1	8
633.332	1	5
633.501	1	3
633.671	1	-1
633.841	1	-8
634.010	1	4
634.180	1	-4
634.349	1	-4
634.519	1	3
634.689	1	3
634.858	1	1
635.028	1	2
635.197	1	9
635.367	1	1
635.537	1	-8
635.706	1	-5
635.876	1	1
636.045	1	14
636.215	1	4
636.384	1	-5
636.554	1	2
636.724	1	4
636.893	1	8
637.063	1	3
637.232	1	6
637.402	1	7
637.572	1	1
637.741	1	-4
637.911	1	7
638.080	1	11
638.250	1	13
638.419	1	-1
638.589	1	5
638.759	1	-1
638.928	1	11
639.098	1	-11
639.267	1	4
639.437	1	-8
639.606	1	-5
639.776	1	1
639.946	1	-3
640.115	1	2
640.285	1	4
640.454	1	6
640.624	1	-3
640.793	1	3
640.963	1	1
641.132	1	5
641.302	1	-11
641.472	1	-7
641.641	1	4
641.811	1	10
641.980	1	4
642.150	1	-1
642.319	1	5
642.489	1	4
642.659	1	5
642.828	1	2
642.998	1	13
643.167	1	-14
643.337	1	3
643.506	1	1
643.676	1	2
643.845	1	-5
644.015	1	6
644.184	1	11
644.354	1	-4
644.524	1	2
644.693	1	-2
644.863	1	7
645.032	1	0
645.202	1	8
645.371	1	1
645.541	1	4
645.710	1	-3
645.880	1	-5
646.049	1	7
646.219	1	-4
646.388	1	0
646.558	1	5
646.728	1	-6
646.897	1	7
647.067	1	2
647.236	1	-2
647.406	1	4
647.575	1	-1
647.745	1	7
647.914	1	-3
648.084	1	-3
648.253	1	0
648.423	1	4
648.592	1	-2
648.762	1	2
648.931	1	9
649.101	1	3
649.270	1	3
649.440	1	-11
649.610	1	-3
649.779	1	-11
649.949	1	-3
650.118	1	2
650.288	1	4
650.457	1	-1
650.627	1	-8
650.796	1	-1
650.966	1	8
651.135	1	8
651.305	1	-3
651.474	1	0
651.644	1	-3
651.813	1	8
651.983	1	-5
652.152	1	1
652.322	1	1
652.491	1	-3
652.661	1	0
652.830	1	-3
653.000	1	-11
653.169	1	2
653.339	1	0
653.508	1	1
653.678	1	3
653.847	1	-1
654.017	1	9
654.186	1	7
654.356	1	-2
654.525	1	-10
654.695	1	11
654.864	1	6
655.034	1	-8
655.203	1	-5
655.373	1	5
655.542	1	-4
655.712	1	-11
655.881	1	-2
656.051	1	5
656.220	1	0
656.390	1	-8
656.559	1	-3
656.729	1	2
656.898	1	5
657.068	1	6
657.237	1	6
657.406	1	3
657.576	1	3
657.745	1	9
657.915	1	-2
658.084	1	-8
658.254	1	13
658.423	1	1
658.593	1	-1
658.762	1	-2
658.932	1	-1
659.101	1	-3
659.271	1	15
659.440	1	4
659.610	1	3
659.779	1	-1
659.949	1	-11
660.118	1	0
660.288	1	-6
660.457	1	5
660.626	1	3
660.796	1	-7
660.965	1	11
661.135	1	-10
661.304	1	6
661.474	1	0
661.643	1	0
661.813	1	-5
661.982	1	5
662.152	1	1
662.321	1	-5
662.491	1	-4
662.660	1	-4
662.829	1	2
662.999	1	4
663.168	1	-3
663.338	1	4
663.507	1	-3
663.677	1	-8
663.846	1	-3
664.016	1	4
664.185	1	7
664.354	1	-1
664.524	1	1
664.693	1	-10
664.863	1	0
665.032	1	-3
665.202	1	14
665.371	1	1
665.541	1	5
665.710	1	3
665.879	1	6
666.049	1	-2
666.218	1	10
666.388	1	8
666.557	1	-1
666.727	1	1
666.896	1	1
667.065	1	-4
667.235	1	-4
667.404	1	8
667.574	1	-6
667.743	1	-6
667.913	1	-17
668.082	1	4
668.251	1	-1
668.421	1	5
668.590	1	-6
668.760	1	7
668.929	1	4
669.099	1	0
669.268	1	0
669.437	1	-3
669.607	1	-2
669.776	1	-2
669.946	1	3
670.115	1	4
670.285	1	7
670.454	1	-10
670.623	1	-6
670.793	1	7
670.962	1	1
671.132	1	-3
671.301	1	2
671.470	1	0
671.640	1	11
671.809	1	-2
671.979	1	3
672.148	1	-4
672.317	1	8
672.487	1	2
672.656	1	3
672.826	1	2
672.995	1	-9
673.164	1	1
673.334	1	-4
673.503	1	-9
673.673	1	3
673.842	1	5
674.011	1	15
674.181	1	6
674.350	1	4
674.520	1	9
674.689	1	-4
674.858	1	-8
675.028	1	-4
675.197	1	1
675.367	1	-1
675.536	1	3
675.705	1	11
675.875	1	0
676.044	1	7
676.214	1	-7
676.383	1	1
676.552	1	4
676.722	1	11
676.891	1	10
677.060	1	-7
677.230	1	12
677.399	1	-2
677.569	1	-2
677.738	1	-5
677.907	1	-1
678.077	1	16
678.246	1	-3
678.416	1	2
678.585	1	8
678.754	1	0
678.924	1	8
679.093	1	-2
679.262	1	-1
679.432	1	3
679.601	1	7
679.771	1	2
679.940	1	7
680.109	1	1
680.279	1	3
680.448	1	8
680.617	1	3
680.787	1	-2
680.956	1	4
681.125	1	9
681.295	1	1
681.464	1	-3
681.634	1	-4
681.803	1	5
681.972	1	-10
682.142	1	-3
682.311	1	7
682.480	1	4
682.650	1	6
682.819	1	8
682.988	1	-4
683.158	1	-5
683.327	1	1
683.496	1	4
683.666	1	11
683.835	1	-1
684.004	1	-4
684.174	1	-6
684.343	1	5
684.512	1	-4
684.682	1	-1
684.851	1	-2
685.021	1	-7
685.190	1	-4
685.359	1	-4
685.529	1	6
685.698	1	-4
685.867	1	5
686.037	1	1
686.206	1	5
686.375	1	7
686.545	1	10
686.714	1	-8
686.883	1	2
687.053	1	-4
687.222	1	8
687.391	1	9
687.561	1	-5
687.730	1	1
687.899	1	-12
688.069	1	-5
688.238	1	4
688.407	1	-7
688.577	1	6
688.746	1	-2
