340.368	1	-3
340.539	1	-2
340.710	1	-9
340.881	1	-7
341.052	1	4
341.223	1	3
341.394	1	0
341.565	1	-2
341.737	1	4
341.908	1	10
342.079	1	0
342.250	1	-4
342.421	1	5
342.592	1	-6
342.763	1	4
342.934	1	-5
343.105	1	4
343.276	1	4
343.447	1	-12
343.618	1	-1
343.789	1	0
343.960	1	-4
344.131	1	1
344.302	1	-4
344.473	1	5
344.644	1	0
344.815	1	5
344.986	1	5
345.157	1	3
345.328	1	0
345.499	1	-1
345.670	1	5
345.841	1	7
346.012	1	7
346.183	1	13
346.354	1	0
346.526	1	0
346.697	1	9
346.868	1	-3
347.039	1	3
347.210	1	-1
347.381	1	2
347.552	1	10
347.723	1	2
347.894	1	3
348.065	1	-16
348.236	1	1
348.407	1	2
348.578	1	2
348.749	1	0
348.920	1	0
349.091	1	3
349.262	1	4
349.433	1	-1
349.604	1	10
349.775	1	7
349.946	1	1
350.117	1	-2
350.288	1	1
350.459	1	1
350.630	1	10
350.801	1	0
350.972	1	-7
351.143	1	-2
351.314	1	6
351.485	1	-3
351.656	1	-7
351.827	1	9
351.998	1	5
352.169	1	-6
352.340	1	12
352.511	1	0
352.682	1	12
352.853	1	5
353.024	1	-5
353.195	1	1
353.366	1	-1
353.537	1	10
353.708	1	2
353.879	1	7
354.050	1	-6
354.221	1	-2
354.392	1	4
354.563	1	7
354.734	1	5
354.905	1	12
355.076	1	6
355.247	1	-7
355.418	1	-11
355.589	1	-3
355.760	1	1
355.931	1	1
356.102	1	1
356.273	1	-11
356.444	1	-1
356.615	1	1
356.785	1	5
356.956	1	6
357.127	1	-7
357.298	1	3
357.469	1	-5
357.640	1	-4
357.811	1	0
357.982	1	0
358.153	1	-4
358.324	1	1
358.495	1	1
358.666	1	2
358.837	1	4
359.008	1	1
359.179	1	1
359.350	1	-4
359.521	1	0
359.692	1	7
359.863	1	9
360.034	1	-8
360.205	1	6
360.376	1	-3
360.547	1	12
360.718	1	1
360.889	1	8
361.060	1	2
361.231	1	4
361.401	1	6
361.572	1	5
361.743	1	7
361.914	1	5
362.085	1	-8
362.256	1	0
362.427	1	0
362.598	1	3
362.769	1	-4
362.940	1	17
363.111	1	18
363.282	1	4
363.453	1	-1
363.624	1	8
363.795	1	14
363.966	1	10
364.137	1	9
364.308	1	-1
364.478	1	7
364.649	1	-2
364.820	1	3
364.991	1	16
365.162	1	5
365.333	1	4
365.504	1	17
365.675	1	8
365.846	1	-1
366.017	1	6
366.188	1	1
366.359	1	10
366.530	1	15
366.701	1	14
366.871	1	9
367.042	1	6
367.213	1	9
367.384	1	14
367.555	1	11
367.726	1	22
367.897	1	17
368.068	1	15
368.239	1	18
368.410	1	22
368.581	1	22
368.752	1	10
368.923	1	8
369.093	1	4
369.264	1	3
369.435	1	6
369.606	1	14
369.777	1	11
369.948	1	13
370.119	1	3
370.290	1	10
370.461	1	11
370.632	1	8
370.803	1	3
370.973	1	17
371.144	1	8
371.315	1	11
371.486	1	6
371.657	1	8
371.828	1	8
371.999	1	9
372.170	1	3
372.341	1	14
372.512	1	-1
372.682	1	14
372.853	1	9
373.024	1	2
373.195	1	15
373.366	1	16
373.537	1	9
373.708	1	2
373.879	1	10
374.050	1	14
374.220	1	14
374.391	1	-2
374.562	1	3
374.733	1	3
374.904	1	5
375.075	1	10
375.246	1	14
375.417	1	14
375.588	1	5
375.758	1	9
375.929	1	14
376.100	1	5
376.271	1	4
376.442	1	15
376.613	1	4
376.784	1	3
376.955	1	9
377.125	1	12
377.296	1	14
377.467	1	6
377.638	1	4
377.809	1	12
377.980	1	-5
378.151	1	3
378.321	1	3
378.492	1	3
378.663	1	7
378.834	1	9
379.005	1	-7
379.176	1	-7
379.347	1	5
379.518	1	6
379.688	1	5
379.859	1	5
380.030	1	7
380.201	1	1
380.372	1	12
380.543	1	5
380.714	1	11
380.884	1	2
381.055	1	4
381.226	1	6
381.397	1	6
381.568	1	0
381.739	1	5
381.910	1	10
382.080	1	-2
382.251	1	3
382.422	1	7
382.593	1	12
382.764	1	10
382.935	1	3
383.105	1	11
383.276	1	12
383.447	1	2
383.618	1	-3
383.789	1	10
383.960	1	11
384.130	1	-5
384.301	1	4
384.472	1	-1
384.643	1	2
384.814	1	4
384.985	1	3
385.156	1	-6
385.326	1	0
385.497	1	-2
385.668	1	15
385.839	1	2
386.010	1	11
386.180	1	3
386.351	1	-2
386.522	1	18
386.693	1	-4
386.864	1	10
387.035	1	3
387.205	1	-1
387.376	1	6
387.547	1	4
387.718	1	4
387.889	1	4
388.060	1	8
388.230	1	-3
388.401	1	-7
388.572	1	4
388.743	1	9
388.914	1	-6
389.084	1	-3
389.255	1	8
389.426	1	17
389.597	1	1
389.768	1	-1
389.939	1	-6
390.109	1	-2
390.280	1	3
390.451	1	-4
390.622	1	-6
390.793	1	10
390.963	1	0
391.134	1	-1
391.305	1	1
391.476	1	6
391.647	1	-7
391.817	1	-2
391.988	1	8
392.159	1	10
392.330	1	10
392.501	1	-3
392.671	1	-3
392.842	1	0
393.013	1	0
393.184	1	1
393.355	1	12
393.525	1	4
393.696	1	3
393.867	1	4
394.038	1	-3
394.208	1	11
394.379	1	-5
394.550	1	1
394.721	1	-3
394.892	1	-3
395.062	1	4
395.233	1	10
395.404	1	-1
395.575	1	7
395.746	1	6
395.916	1	-6
396.087	1	5
396.258	1	-7
396.429	1	2
396.599	1	-7
396.770	1	13
396.941	1	3
397.112	1	3
397.283	1	5
397.453	1	5
397.624	1	-1
397.795	1	-2
397.966	1	10
398.136	1	12
398.307	1	-3
398.478	1	-5
398.649	1	12
398.819	1	10
398.990	1	-14
399.161	1	0
399.332	1	-6
399.503	1	-3
399.673	1	2
399.844	1	0
400.015	1	14
400.186	1	-16
400.356	1	-9
400.527	1	16
400.698	1	-2
400.869	1	7
401.039	1	3
401.210	1	6
401.381	1	7
401.552	1	4
401.722	1	6
401.893	1	8
402.064	1	9
402.235	1	9
402.405	1	-6
402.576	1	2
402.747	1	1
402.918	1	3
403.088	1	9
403.259	1	-6
403.430	1	1
403.601	1	17
403.771	1	-4
403.942	1	4
404.113	1	-2
404.284	1	-12
404.454	1	-4
404.625	1	2
404.796	1	2
404.967	1	1
405.137	1	3
405.308	1	7
405.479	1	5
405.649	1	-2
405.820	1	-2
405.991	1	-2
406.162	1	8
406.332	1	-6
406.503	1	5
406.674	1	4
406.845	1	2
407.015	1	6
407.186	1	8
407.357	1	-5
407.527	1	-10
407.698	1	5
407.869	1	2
408.040	1	0
408.210	1	5
408.381	1	-3
408.552	1	-6
408.722	1	-6
408.893	1	1
409.064	1	-1
409.235	1	-1
409.405	1	3
409.576	1	2
409.747	1	0
409.917	1	-2
410.088	1	7
410.259	1	6
410.430	1	-1
410.600	1	0
410.771	1	-6
410.942	1	3
411.112	1	6
411.283	1	-7
411.454	1	0
411.625	1	-4
411.795	1	16
411.966	1	-3
412.137	1	-7
412.307	1	-1
412.478	1	4
412.649	1	8
412.819	1	-9
412.990	1	-8
413.161	1	-4
413.332	1	-1
413.502	1	-1
413.673	1	4
413.844	1	6
414.014	1	-2
414.185	1	6
414.356	1	-5
414.526	1	4
414.697	1	7
414.868	1	0
415.038	1	-7
415.209	1	-16
415.380	1	4
415.550	1	-10
415.721	1	0
415.892	1	2
416.063	1	-1
416.233	1	10
416.404	1	5
416.575	1	-6
416.745	1	3
416.916	1	-7
417.087	1	-3
417.257	1	4
417.428	1	1
417.599	1	6
417.769	1	11
417.940	1	14
418.111	1	0
418.281	1	-3
418.452	1	-1
418.623	1	2
418.793	1	4
418.964	1	3
419.135	1	17
419.305	1	-4
419.476	1	-6
419.647	1	11
419.817	1	1
419.988	1	-1
420.159	1	10
420.329	1	-2
420.500	1	2
420.671	1	-3
420.841	1	7
421.012	1	2
421.183	1	-2
421.353	1	1
421.524	1	5
421.695	1	-4
421.865	1	5
422.036	1	4
422.206	1	6
422.377	1	5
422.548	1	4
422.718	1	22
422.889	1	1
423.060	1	-3
423.230	1	4
423.401	1	1
423.572	1	-6
423.742	1	-3
423.913	1	1
424.084	1	11
424.254	1	0
424.425	1	3
424.595	1	6
424.766	1	-6
424.937	1	2
425.107	1	-5
425.278	1	-3
425.449	1	2
425.619	1	-7
425.790	1	5
425.961	1	-5
426.131	1	9
426.302	1	2
426.472	1	4
426.643	1	5
426.814	1	-8
426.984	1	-6
427.155	1	7
427.326	1	1
427.496	1	-1
427.667	1	6
427.837	1	9
428.008	1	11
428.179	1	-2
428.349	1	-3
428.520	1	5
428.691	1	1
428.861	1	-2
429.032	1	8
429.202	1	-10
429.373	1	0
429.544	1	-1
429.714	1	2
429.885	1	0
430.055	1	4
430.226	1	4
430.397	1	5
430.567	1	6
430.738	1	-5
430.909	1	-9
431.079	1	-3
431.250	1	20
431.420	1	-5
431.591	1	-4
431.762	1	-1
431.932	1	0
432.103	1	4
432.273	1	-10
432.444	1	3
432.615	1	7
432.785	1	1
432.956	1	0
433.126	1	2
433.297	1	1
433.468	1	-13
433.638	1	11
433.809	1	2
433.979	1	3
434.150	1	3
434.320	1	12
434.491	1	-4
434.662	1	-15
434.832	1	-6
435.003	1	3
435.173	1	6
435.344	1	-2
435.515	1	14
435.685	1	-2
435.856	1	10
436.026	1	2
436.197	1	-4
436.368	1	2
436.538	1	6
436.709	1	-8
436.879	1	0
437.050	1	-5
437.220	1	-8
437.391	1	-1
437.562	1	2
437.732	1	6
437.903	1	2
438.073	1	2
438.244	1	3
438.414	1	0
438.585	1	-11
438.756	1	-5
438.926	1	-4
439.097	1	3
439.267	1	0
439.438	1	10
439.608	1	-6
439.779	1	1
439.949	1	10
440.120	1	1
440.291	1	1
440.461	1	11
440.632	1	-5
440.802	1	6
440.973	1	-6
441.143	1	3
441.314	1	-1
441.485	1	-1
441.655	1	8
441.826	1	5
441.996	1	-1
442.167	1	-7
442.337	1	5
442.508	1	-1
442.678	1	4
442.849	1	0
443.019	1	0
443.190	1	7
443.361	1	11
443.531	1	5
443.702	1	17
443.872	1	-6
444.043	1	-8
444.213	1	-9
444.384	1	6
444.554	1	-15
444.725	1	2
444.895	1	-15
445.066	1	9
445.237	1	1
445.407	1	10
445.578	1	13
445.748	1	-1
445.919	1	-1
446.089	1	6
446.260	1	6
446.430	1	-11
446.601	1	-4
446.771	1	-15
446.942	1	1
447.112	1	8
447.283	1	12
447.453	1	12
447.624	1	-3
447.794	1	-7
447.965	1	-2
448.135	1	8
448.306	1	-2
448.477	1	7
448.647	1	-6
448.818	1	8
448.988	1	13
449.159	1	0
449.329	1	4
449.500	1	3
449.670	1	-12
449.841	1	-4
450.011	1	8
450.182	1	5
450.352	1	-5
450.523	1	13
450.693	1	-6
450.864	1	7
451.034	1	0
451.205	1	-1
451.375	1	4
451.546	1	-8
451.716	1	-1
451.887	1	-6
452.057	1	0
452.228	1	0
452.398	1	3
452.569	1	15
452.739	1	1
452.910	1	7
453.080	1	3
453.251	1	7
453.421	1	3
453.592	1	-12
453.762	1	3
453.933	1	-1
454.103	1	-4
454.274	1	11
454.444	1	-7
454.615	1	4
454.785	1	-3
454.956	1	9
455.126	1	2
455.297	1	-8
455.467	1	1
455.638	1	0
455.808	1	9
455.979	1	14
456.149	1	1
456.320	1	-4
456.490	1	-1
456.661	1	2
456.831	1	-6
457.001	1	3
457.172	1	-6
457.342	1	2
457.513	1	2
457.683	1	7
457.854	1	9
458.024	1	8
458.195	1	-4
458.365	1	1
458.536	1	-10
458.706	1	7
458.877	1	5
459.047	1	-2
459.218	1	-1
459.388	1	-2
459.559	1	-3
459.729	1	5
459.899	1	-1
460.070	1	5
460.240	1	-4
460.411	1	1
460.581	1	1
460.752	1	8
460.922	1	-9
461.093	1	11
461.263	1	2
461.434	1	-13
461.604	1	-2
461.775	1	6
461.945	1	0
462.115	1	6
462.286	1	-6
462.456	1	-3
462.627	1	8
462.797	1	5
462.968	1	13
463.138	1	10
463.309	1	12
463.479	1	1
463.649	1	3
463.820	1	-4
463.990	1	-1
464.161	1	7
464.331	1	-5
464.502	1	6
464.672	1	-2
464.843	1	-10
465.013	1	12
465.183	1	7
465.354	1	-10
465.524	1	3
465.695	1	4
465.865	1	3
466.036	1	-8
466.206	1	6
466.376	1	3
466.547	1	4
466.717	1	-5
466.888	1	0
467.058	1	9
467.229	1	0
467.399	1	2
467.569	1	2
467.740	1	4
467.910	1	-4
468.081	1	-2
468.251	1	4
468.422	1	7
468.592	1	0
468.762	1	11
468.933	1	4
469.103	1	7
469.274	1	8
469.444	1	-2
469.614	1	2
469.785	1	-2
469.955	1	6
470.126	1	11
470.296	1	3
470.467	1	5
470.637	1	-9
470.807	1	-4
470.978	1	-6
471.148	1	0
471.319	1	3
471.489	1	3
471.659	1	-6
471.830	1	0
472.000	1	-4
472.171	1	3
472.341	1	8
472.511	1	4
472.682	1	-6
472.852	1	4
473.023	1	2
473.193	1	1
473.363	1	-5
473.534	1	4
473.704	1	4
473.875	1	0
474.045	1	3
474.215	1	2
474.386	1	7
474.556	1	2
474.727	1	2
474.897	1	-9
475.067	1	4
475.238	1	2
475.408	1	-3
475.578	1	3
475.749	1	4
475.919	1	5
476.090	1	3
476.260	1	18
476.430	1	-6
476.601	1	0
476.771	1	-4
476.942	1	-5
477.112	1	-6
477.282	1	9
477.453	1	1
477.623	1	12
477.793	1	9
477.964	1	2
478.134	1	8
478.305	1	-1
478.475	1	5
478.645	1	2
478.816	1	-1
478.986	1	1
479.156	1	5
479.327	1	-10
479.497	1	-2
479.667	1	-2
479.838	1	1
480.008	1	9
480.179	1	-2
480.349	1	3
480.519	1	-2
480.690	1	6
480.860	1	-9
481.030	1	4
481.201	1	-2
481.371	1	-6
481.541	1	9
481.712	1	1
481.882	1	5
482.053	1	-2
482.223	1	2
482.393	1	-3
482.564	1	-8
482.734	1	5
482.904	1	2
483.075	1	3
483.245	1	-10
483.415	1	7
483.586	1	0
483.756	1	2
483.926	1	2
484.097	1	-5
484.267	1	-2
484.437	1	4
484.608	1	3
484.778	1	2
484.948	1	-3
485.119	1	0
485.289	1	3
485.459	1	-4
485.630	1	-1
485.800	1	-3
485.970	1	6
486.141	1	15
486.311	1	4
486.481	1	6
486.652	1	0
486.822	1	2
486.992	1	3
487.163	1	-1
487.333	1	-7
487.503	1	1
487.674	1	1
487.844	1	3
488.014	1	0
488.185	1	8
488.355	1	-6
488.525	1	6
488.696	1	2
488.866	1	5
489.036	1	6
489.207	1	10
489.377	1	-5
489.547	1	15
489.718	1	9
489.888	1	1
490.058	1	4
490.228	1	-1
490.399	1	2
490.569	1	4
490.739	1	7
490.910	1	-2
491.080	1	-2
491.250	1	-5
491.421	1	5
491.591	1	0
491.761	1	2
491.932	1	5
492.102	1	-5
492.272	1	8
492.442	1	4
492.613	1	7
492.783	1	3
492.953	1	0
493.124	1	1
493.294	1	-10
493.464	1	-2
493.635	1	-15
493.805	1	-4
493.975	1	9
494.145	1	6
494.316	1	3
494.486	1	10
494.656	1	-7
494.827	1	0
494.997	1	-4
495.167	1	2
495.337	1	1
495.508	1	5
495.678	1	-2
495.848	1	3
496.019	1	-9
496.189	1	-6
496.359	1	-5
496.529	1	-4
496.700	1	4
496.870	1	-4
497.040	1	3
497.211	1	6
497.381	1	7
497.551	1	3
497.721	1	2
497.892	1	-4
498.062	1	2
498.232	1	4
498.403	1	-1
498.573	1	-4
498.743	1	4
498.913	1	9
499.084	1	5
499.254	1	7
499.424	1	6
499.594	1	6
499.765	1	-12
499.935	1	1
500.105	1	-4
500.275	1	10
500.446	1	1
500.616	1	4
500.786	1	-3
500.956	1	11
501.127	1	-2
501.297	1	9
501.467	1	-3
501.638	1	-1
501.808	1	2
501.978	1	-6
502.148	1	11
502.319	1	2
502.489	1	3
502.659	1	8
502.829	1	1
503.000	1	9
503.170	1	10
503.340	1	-1
503.510	1	4
503.681	1	-2
503.851	1	-6
504.021	1	1
504.191	1	-1
504.362	1	-1
504.532	1	-12
504.702	1	3
504.872	1	0
505.042	1	5
505.213	1	-2
505.383	1	4
505.553	1	4
505.723	1	3
505.894	1	12
506.064	1	0
506.234	1	0
506.404	1	-7
506.575	1	3
506.745	1	5
506.915	1	6
507.085	1	-3
507.256	1	0
507.426	1	0
507.596	1	7
507.766	1	3
507.936	1	6
508.107	1	-4
508.277	1	-7
508.447	1	-1
508.617	1	11
508.788	1	-5
508.958	1	-8
509.128	1	0
509.298	1	4
509.468	1	0
509.639	1	7
509.809	1	-1
509.979	1	5
510.149	1	3
510.319	1	-9
510.490	1	7
510.660	1	3
510.830	1	4
511.000	1	1
511.171	1	-2
511.341	1	14
511.511	1	-6
511.681	1	-6
511.851	1	3
512.022	1	5
512.192	1	6
512.362	1	-6
512.532	1	0
512.702	1	-1
512.873	1	-3
513.043	1	8
513.213	1	-5
513.383	1	0
513.553	1	-2
513.724	1	-3
513.894	1	2
514.064	1	6
514.234	1	-2
514.404	1	1
514.575	1	1
514.745	1	0
514.915	1	7
515.085	1	0
515.255	1	-1
515.425	1	-2
515.596	1	8
515.766	1	5
515.936	1	4
516.106	1	1
516.276	1	2
516.447	1	2
516.617	1	-1
516.787	1	3
516.957	1	-9
517.127	1	4
517.297	1	5
517.468	1	7
517.638	1	2
517.808	1	13
517.978	1	1
518.148	1	4
518.319	1	2
518.489	1	17
518.659	1	-2
518.829	1	1
518.999	1	8
519.169	1	-4
519.340	1	10
519.510	1	0
519.680	1	3
519.850	1	-1
520.020	1	1
520.190	1	-2
520.361	1	1
520.531	1	13
520.701	1	3
520.871	1	-2
521.041	1	4
521.211	1	8
521.382	1	8
521.552	1	8
521.722	1	-7
521.892	1	-2
522.062	1	0
522.232	1	-7
522.402	1	3
522.573	1	4
522.743	1	2
522.913	1	13
523.083	1	0
523.253	1	11
523.423	1	2
523.593	1	2
523.764	1	10
523.934	1	1
524.104	1	7
524.274	1	-4
524.444	1	-6
524.614	1	3
524.784	1	14
524.955	1	-3
525.125	1	3
525.295	1	3
525.465	1	4
525.635	1	3
525.805	1	-7
525.975	1	-3
526.146	1	3
526.316	1	10
526.486	1	6
526.656	1	9
526.826	1	5
526.996	1	4
527.166	1	2
527.337	1	-8
527.507	1	-6
527.677	1	-7
527.847	1	-2
528.017	1	8
528.187	1	-1
528.357	1	7
528.527	1	7
528.698	1	-7
528.868	1	7
529.038	1	-2
529.208	1	9
529.378	1	4
529.548	1	5
529.718	1	7
529.888	1	-1
530.058	1	8
530.229	1	11
530.399	1	13
530.569	1	-2
530.739	1	4
530.909	1	-3
531.079	1	6
531.249	1	-7
531.419	1	12
531.589	1	4
531.760	1	7
531.930	1	1
532.100	1	8
532.270	1	10
532.440	1	2
532.610	1	-1
532.780	1	-5
532.950	1	-16
533.120	1	3
533.290	1	4
533.461	1	0
533.631	1	1
533.801	1	4
533.971	1	2
534.141	1	-4
534.311	1	-2
534.481	1	10
534.651	1	4
534.821	1	5
534.991	1	-6
535.162	1	7
535.332	1	6
535.502	1	5
535.672	1	5
535.842	1	-1
536.012	1	-8
536.182	1	-9
536.352	1	2
536.522	1	9
536.692	1	8
536.862	1	9
537.032	1	-6
537.203	1	10
537.373	1	2
537.543	1	-4
537.713	1	12
537.883	1	3
538.053	1	3
538.223	1	3
538.393	1	12
538.563	1	2
538.733	1	-3
538.903	1	1
539.073	1	2
539.243	1	3
539.413	1	-7
539.584	1	6
539.754	1	1
539.924	1	1
540.094	1	7
540.264	1	0
540.434	1	-4
540.604	1	-2
540.774	1	-3
540.944	1	3
541.114	1	-2
541.284	1	4
541.454	1	-8
541.624	1	-5
541.794	1	-3
541.964	1	13
542.134	1	-4
542.305	1	2
542.475	1	5
542.645	1	3
542.815	1	3
542.985	1	8
543.155	1	2
543.325	1	8
543.495	1	4
543.665	1	5
543.835	1	-8
544.005	1	4
544.175	1	-1
544.345	1	5
544.515	1	-5
544.685	1	0
544.855	1	0
545.025	1	-3
545.195	1	-2
545.365	1	9
545.535	1	-7
545.705	1	-1
545.875	1	-1
546.045	1	3
546.216	1	5
546.386	1	9
546.556	1	-4
546.726	1	2
546.896	1	4
547.066	1	3
547.236	1	13
547.406	1	-3
547.576	1	-2
547.746	1	-1
547.916	1	4
548.086	1	7
548.256	1	10
548.426	1	3
548.596	1	-10
548.766	1	6
548.936	1	-6
549.106	1	0
549.276	1	2
549.446	1	12
549.616	1	12
549.786	1	1
549.956	1	-5
550.126	1	12
550.296	1	11
550.466	1	-6
550.636	1	-1
550.806	1	-1
550.976	1	11
551.146	1	5
551.316	1	1
551.486	1	-1
551.656	1	-3
551.826	1	9
551.996	1	-3
552.166	1	0
552.336	1	4
552.506	1	5
552.676	1	-1
552.846	1	1
553.016	1	6
553.186	1	10
553.356	1	4
553.526	1	-11
553.696	1	0
553.866	1	-8
554.036	1	-2
554.206	1	4
554.376	1	10
554.546	1	-10
554.716	1	-6
554.886	1	-1
555.056	1	-4
555.226	1	-3
555.396	1	-2
555.566	1	4
555.736	1	-5
555.906	1	-6
556.076	1	3
556.246	1	8
556.416	1	-3
556.586	1	-1
556.756	1	-4
556.926	1	9
557.096	1	-5
557.266	1	2
557.436	1	-11
557.606	1	4
557.776	1	4
557.946	1	1
558.116	1	0
558.286	1	-7
558.456	1	-8
558.626	1	15
558.796	1	-5
558.966	1	5
559.136	1	1
559.306	1	17
559.476	1	1
559.646	1	-4
559.816	1	-4
559.986	1	-2
560.155	1	0
560.325	1	-3
560.495	1	1
560.665	1	7
560.835	1	-2
561.005	1	1
561.175	1	-4
561.345	1	-3
561.515	1	-4
561.685	1	0
561.855	1	1
562.025	1	-5
562.195	1	2
562.365	1	8
562.535	1	4
562.705	1	12
562.875	1	6
563.045	1	4
563.215	1	-1
563.385	1	14
563.555	1	2
563.725	1	1
563.895	1	-6
564.064	1	9
564.234	1	5
564.404	1	3
564.574	1	-10
564.744	1	-3
564.914	1	10
565.084	1	14
565.254	1	-6
565.424	1	-1
565.594	1	9
565.764	1	4
565.934	1	8
566.104	1	5
566.274	1	6
566.444	1	-4
566.614	1	-8
566.783	1	3
566.953	1	3
567.123	1	-3
567.293	1	5
567.463	1	-3
567.633	1	-2
567.803	1	-4
567.973	1	-1
568.143	1	3
568.313	1	3
568.483	1	3
568.653	1	3
568.823	1	3
568.993	1	4
569.162	1	2
569.332	1	4
569.502	1	-8
569.672	1	3
569.842	1	-4
570.012	1	-1
570.182	1	-10
570.352	1	3
570.522	1	5
570.692	1	2
570.862	1	5
571.031	1	8
571.201	1	18
571.371	1	2
571.541	1	-12
571.711	1	0
571.881	1	-5
572.051	1	-5
572.221	1	-3
572.391	1	5
572.561	1	0
572.731	1	5
572.900	1	7
573.070	1	-1
573.240	1	5
573.410	1	1
573.580	1	-1
573.750	1	-4
573.920	1	5
574.090	1	-5
574.260	1	0
574.430	1	5
574.599	1	-3
574.769	1	-7
574.939	1	1
575.109	1	1
575.279	1	0
575.449	1	-2
575.619	1	0
575.789	1	1
575.959	1	-5
576.128	1	-1
576.298	1	4
576.468	1	6
576.638	1	2
576.808	1	3
576.978	1	2
577.148	1	-3
577.318	1	-3
577.487	1	0
577.657	1	4
577.827	1	-3
577.997	1	-7
578.167	1	5
578.337	1	5
578.507	1	8
578.677	1	-6
578.846	1	8
579.016	1	2
579.186	1	-10
579.356	1	-3
579.526	1	5
579.696	1	-4
579.866	1	5
580.036	1	0
580.205	1	-7
580.375	1	-7
580.545	1	-7
580.715	1	8
580.885	1	-6
581.055	1	7
581.225	1	-1
581.394	1	6
581.564	1	4
581.734	1	7
581.904	1	-6
582.074	1	5
582.244	1	-7
582.414	1	-13
582.583	1	0
582.753	1	4
582.923	1	5
583.093	1	-2
583.263	1	20
583.433	1	16
583.603	1	-1
583.772	1	5
583.942	1	-1
584.112	1	8
584.282	1	-8
584.452	1	0
584.622	1	-2
584.791	1	-2
584.961	1	7
585.131	1	15
585.301	1	14
585.471	1	5
585.641	1	1
585.811	1	-7
585.980	1	3
586.150	1	-5
586.320	1	2
586.490	1	2
586.660	1	1
586.830	1	-4
586.999	1	5
587.169	1	18
587.339	1	5
587.509	1	1
587.679	1	1
587.849	1	0
588.018	1	2
588.188	1	-6
588.358	1	9
588.528	1	-2
588.698	1	-11
588.867	1	2
589.037	1	-6
589.207	1	-7
589.377	1	5
589.547	1	2
589.717	1	3
589.886	1	-5
590.056	1	2
590.226	1	2
590.396	1	11
590.566	1	1
590.735	1	-6
590.905	1	3
591.075	1	13
591.245	1	-3
591.415	1	3
591.585	1	1
591.754	1	3
591.924	1	2
592.094	1	7
592.264	1	0
592.434	1	-1
592.603	1	6
592.773	1	11
592.943	1	4
593.113	1	2
593.283	1	3
593.452	1	0
593.622	1	-11
593.792	1	-2
593.962	1	-3
594.132	1	8
594.301	1	13
594.471	1	11
594.641	1	2
594.811	1	-9
594.981	1	10
595.150	1	-2
595.320	1	-5
595.490	1	1
595.660	1	4
595.829	1	10
595.999	1	1
596.169	1	8
596.339	1	8
596.509	1	-8
596.678	1	-8
596.848	1	8
597.018	1	8
597.188	1	-4
597.358	1	-7
597.527	1	-1
597.697	1	-5
597.867	1	5
598.037	1	0
598.206	1	7
598.376	1	-3
598.546	1	-3
598.716	1	2
598.885	1	3
599.055	1	1
599.225	1	5
599.395	1	-6
599.565	1	2
599.734	1	7
599.904	1	6
600.074	1	2
600.244	1	0
600.413	1	2
600.583	1	-1
600.753	1	8
600.923	1	7
601.092	1	-4
601.262	1	-2
601.432	1	-5
601.602	1	0
601.771	1	6
601.941	1	-11
602.111	1	-1
602.281	1	-9
602.451	1	10
602.620	1	10
602.790	1	4
602.960	1	8
603.130	1	1
603.299	1	-1
603.469	1	0
603.639	1	-4
603.809	1	-1
603.978	1	4
604.148	1	2
604.318	1	8
604.487	1	2
604.657	1	9
604.827	1	-4
604.997	1	3
605.166	1	8
605.336	1	1
605.506	1	-5
605.676	1	0
605.845	1	4
606.015	1	5
606.185	1	4
606.355	1	1
606.524	1	-5
606.694	1	-1
606.864	1	-2
607.034	1	3
607.203	1	-2
607.373	1	3
607.543	1	6
607.712	1	-6
607.882	1	1
608.052	1	1
608.222	1	-2
608.391	1	3
608.561	1	6
608.731	1	0
608.901	1	0
609.070	1	-4
609.240	1	0
609.410	1	6
609.579	1	3
609.749	1	-1
609.919	1	-2
610.089	1	5
610.258	1	8
610.428	1	3
610.598	1	-5
610.767	1	4
610.937	1	-1
611.107	1	-12
611.277	1	5
611.446	1	-1
611.616	1	8
611.786	1	0
611.955	1	0
612.125	1	1
612.295	1	3
612.465	1	-8
612.634	1	-5
612.804	1	5
612.974	1	1
613.143	1	-10
613.313	1	-2
613.483	1	-6
613.652	1	10
613.822	1	3
613.992	1	6
614.162	1	-3
614.331	1	4
614.501	1	-6
614.671	1	16
614.840	1	-2
615.010	1	2
615.180	1	2
615.349	1	-1
615.519	1	-6
615.689	1	8
615.858	1	11
616.028	1	1
616.198	1	6
616.368	1	5
616.537	1	5
616.707	1	-1
616.877	1	4
617.046	1	0
617.216	1	11
617.386	1	1
617.555	1	1
617.725	1	1
617.895	1	7
618.064	1	0
618.234	1	1
618.404	1	0
618.573	1	2
618.743	1	4
618.913	1	6
619.082	1	5
619.252	1	13
619.422	1	-4
619.591	1	1
619.761	1	-11
619.931	1	-1
620.100	1	2
620.270	1	-1
620.440	1	9
620.609	1	-1
620.779	1	0
620.949	1	2
621.118	1	-4
621.288	1	4
621.458	1	1
621.627	1	-2
621.797	1	3
621.967	1	1
622.136	1	-5
622.306	1	2
622.476	1	-1
622.645	1	3
622.815	1	7
622.985	1	-2
623.154	1	8
623.324	1	1
623.494	1	-6
623.663	1	5
623.833	1	1
624.002	1	7
624.172	1	-1
624.342	1	-1
624.511	1	3
624.681	1	-1
624.851	1	-2
625.020	1	-3
625.190	1	15
625.360	1	-4
625.529	1	4
625.699	1	-5
625.869	1	5
626.038	1	-1
626.208	1	8
626.377	1	8
626.547	1	-5
626.717	1	-10
626.886	1	6
627.056	1	2
627.226	1	-3
627.395	1	-7
627.565	1	6
627.735	1	-5
627.904	1	3
628.074	1	10
628.243	1	-13
628.413	1	2
628.583	1	-6
628.752	1	-4
628.922	1	-13
629.091	1	-13
629.261	1	0
629.431	1	-2
629.600	1	1
629.770	1	6
629.940	1	-6
630.109	1	-2
630.279	1	5
630.448	1	10
630.618	1	-2
630.788	1	10
630.957	1	5
631.127	1	6
631.297	1	2
631.466	1	-6
631.636	1	5
631.805	1	9
631.975	1	-4
632.145	1	11
632.314	1	4
632.484	1	-3
632.653	1	2
632.823	1	-5
632.993	1	-3
633.162	1	14
633.332	1	-5
633.501	1	7
633.671	1	12
633.841	1	-10
634.010	1	8
634.180	1	0
634.349	1	-3
634.519	1	0
634.689	1	6
634.858	1	8
635.028	1	-1
635.197	1	6
635.367	1	0
635.537	1	-6
635.706	1	-2
635.876	1	0
636.045	1	2
636.215	1	-3
636.384	1	-4
636.554	1	-3
636.724	1	16
636.893	1	5
637.063	1	3
637.232	1	-6
637.402	1	9
637.572	1	0
637.741	1	-4
637.911	1	2
638.080	1	1
638.250	1	11
638.419	1	-8
638.589	1	8
638.759	1	-5
638.928	1	1
639.098	1	-5
639.267	1	3
639.437	1	-4
639.606	1	-12
639.776	1	2
639.946	1	-4
640.115	1	4
640.285	1	4
640.454	1	-3
640.624	1	-3
640.793	1	-2
640.963	1	-5
641.132	1	2
641.302	1	-10
641.472	1	6
641.641	1	7
641.811	1	16
641.980	1	-6
642.150	1	-4
642.319	1	1
642.489	1	-3
642.659	1	3
642.828	1	0
642.998	1	12
643.167	1	-1
643.337	1	8
643.506	1	8
643.676	1	6
643.845	1	1
644.015	1	6
644.184	1	13
644.354	1	0
644.524	1	1
644.693	1	-6
644.863	1	-8
645.032	1	2
645.202	1	14
645.371	1	-6
645.541	1	12
645.710	1	-7
645.880	1	9
646.049	1	-1
646.219	1	-5
646.388	1	-2
646.558	1	10
646.728	1	11
646.897	1	12
647.067	1	-1
647.236	1	-12
647.406	1	10
647.575	1	-5
647.745	1	-6
647.914	1	3
648.084	1	-3
648.253	1	14
648.423	1	5
648.592	1	7
648.762	1	4
648.931	1	6
649.101	1	7
649.270	1	2
649.440	1	8
649.610	1	3
649.779	1	-1
649.949	1	-6
650.118	1	-5
650.288	1	9
650.457	1	-1
650.627	1	2
650.796	1	7
650.966	1	7
651.135	1	4
651.305	1	-5
651.474	1	6
651.644	1	4
651.813	1	-4
651.983	1	-1
652.152	1	-7
652.322	1	2
652.491	1	15
652.661	1	-1
652.830	1	-1
653.000	1	-4
653.169	1	1
653.339	1	-15
653.508	1	1
653.678	1	3
653.847	1	2
654.017	1	12
654.186	1	13
654.356	1	0
654.525	1	-2
654.695	1	7
654.864	1	6
655.034	1	1
655.203	1	4
655.373	1	2
655.542	1	4
655.712	1	-8
655.881	1	4
656.051	1	7
656.220	1	12
656.390	1	-7
656.559	1	-8
656.729	1	4
656.898	1	5
657.068	1	7
657.237	1	5
657.406	1	0
657.576	1	4
657.745	1	13
657.915	1	1
658.084	1	-4
658.254	1	15
658.423	1	1
658.593	1	2
658.762	1	1
658.932	1	2
659.101	1	7
659.271	1	1
659.440	1	12
659.610	1	0
659.779	1	4
659.949	1	3
660.118	1	8
660.288	1	9
660.457	1	0
660.626	1	-1
660.796	1	-2
660.965	1	10
661.135	1	-13
661.304	1	1
661.474	1	8
661.643	1	12
661.813	1	-3
661.982	1	6
662.152	1	0
662.321	1	6
662.491	1	-10
662.660	1	-1
662.829	1	-1
662.999	1	10
663.168	1	8
663.338	1	7
663.507	1	-4
663.677	1	-8
663.846	1	-1
664.016	1	3
664.185	1	12
664.354	1	-4
664.524	1	12
664.693	1	-1
664.863	1	3
665.032	1	-5
665.202	1	19
665.371	1	1
665.541	1	1
665.710	1	7
665.879	1	5
666.049	1	8
666.218	1	5
666.388	1	7
666.557	1	-6
666.727	1	3
666.896	1	-4
667.065	1	0
667.235	1	0
667.404	1	4
667.574	1	-4
667.743	1	-3
667.913	1	2
668.082	1	4
668.251	1	4
668.421	1	5
668.590	1	7
668.760	1	5
668.929	1	12
669.099	1	1
669.268	1	0
669.437	1	3
669.607	1	5
669.776	1	2
669.946	1	1
670.115	1	15
670.285	1	15
670.454	1	-4
670.623	1	1
670.793	1	0
670.962	1	-1
671.132	1	2
671.301	1	-5
671.470	1	3
671.640	1	8
671.809	1	2
671.979	1	0
672.148	1	-6
672.317	1	-1
672.487	1	-3
672.656	1	0
672.826	1	0
672.995	1	-9
673.164	1	6
673.334	1	2
673.503	1	3
673.673	1	-4
673.842	1	-3
674.011	1	4
674.181	1	-7
674.350	1	-1
674.520	1	2
674.689	1	0
674.858	1	2
675.028	1	0
675.197	1	10
675.367	1	-3
675.536	1	5
675.705	1	3
675.875	1	5
676.044	1	10
676.214	1	-11
676.383	1	-5
676.552	1	5
676.722	1	20
676.891	1	13
677.060	1	3
677.230	1	-9
677.399	1	2
677.569	1	-10
677.738	1	6
677.907	1	-5
678.077	1	10
678.246	1	0
678.416	1	-4
678.585	1	3
678.754	1	3
678.924	1	3
679.093	1	0
679.262	1	-2
679.432	1	5
679.601	1	3
679.771	1	4
679.940	1	13
680.109	1	3
680.279	1	-2
680.448	1	5
680.617	1	-8
680.787	1	-3
680.956	1	-7
681.125	1	5
681.295	1	9
681.464	1	-3
681.634	1	-2
681.803	1	5
681.972	1	-3
682.142	1	-1
682.311	1	4
682.480	1	9
682.650	1	-6
682.819	1	-1
682.988	1	-5
683.158	1	8
683.327	1	-1
683.496	1	13
683.666	1	9
683.835	1	0
684.004	1	2
684.174	1	-6
684.343	1	8
684.512	1	-9
684.682	1	7
684.851	1	3
685.021	1	-13
685.190	1	-10
685.359	1	-6
685.529	1	3
685.698	1	5
685.867	1	6
686.037	1	-2
686.206	1	4
686.375	1	3
686.545	1	5
686.714	1	-4
686.883	1	0
687.053	1	3
687.222	1	9
687.391	1	8
687.561	1	-4
687.730	1	4
687.899	1	-5
688.069	1	6
688.238	1	-11
688.407	1	-7
688.577	1	4
688.746	1	-2
