340.368	1	-5
340.539	1	4
340.710	1	-2
340.881	1	7
341.052	1	9
341.223	1	2
341.394	1	-2
341.565	1	9
341.737	1	1
341.908	1	12
342.079	1	4
342.250	1	9
342.421	1	9
342.592	1	-4
342.763	1	8
342.934	1	2
343.105	1	7
343.276	1	7
343.447	1	0
343.618	1	1
343.789	1	9
343.960	1	1
344.131	1	0
344.302	1	1
344.473	1	7
344.644	1	10
344.815	1	16
344.986	1	7
345.157	1	-1
345.328	1	12
345.499	1	4
345.670	1	8
345.841	1	0
346.012	1	8
346.183	1	9
346.354	1	1
346.526	1	10
346.697	1	10
346.868	1	-1
347.039	1	16
347.210	1	-1
347.381	1	6
347.552	1	5
347.723	1	8
347.894	1	6
348.065	1	-6
348.236	1	3
348.407	1	1
348.578	1	7
348.749	1	7
348.920	1	-2
349.091	1	14
349.262	1	6
349.433	1	18
349.604	1	12
349.775	1	14
349.946	1	10
350.117	1	-6
350.288	1	0
350.459	1	2
350.630	1	12
350.801	1	8
350.972	1	-1
351.143	1	12
351.314	1	8
351.485	1	4
351.656	1	8
351.827	1	9
351.998	1	16
352.169	1	14
352.340	1	14
352.511	1	13
352.682	1	3
352.853	1	11
353.024	1	13
353.195	1	19
353.366	1	19
353.537	1	14
353.708	1	21
353.879	1	18
354.050	1	8
354.221	1	18
354.392	1	16
354.563	1	8
354.734	1	21
354.905	1	16
355.076	1	12
355.247	1	14
355.418	1	7
355.589	1	16
355.760	1	13
355.931	1	12
356.102	1	19
356.273	1	7
356.444	1	18
356.615	1	18
356.785	1	29
356.956	1	20
357.127	1	23
357.298	1	31
357.469	1	23
357.640	1	15
357.811	1	34
357.982	1	30
358.153	1	28
358.324	1	38
358.495	1	34
358.666	1	27
358.837	1	33
359.008	1	35
359.179	1	36
359.350	1	46
359.521	1	52
359.692	1	44
359.863	1	50
360.034	1	52
360.205	1	49
360.376	1	48
360.547	1	64
360.718	1	58
360.889	1	63
361.060	1	55
361.231	1	71
361.401	1	63
361.572	1	74
361.743	1	79
361.914	1	82
362.085	1	75
362.256	1	87
362.427	1	91
362.598	1	100
362.769	1	89
362.940	1	116
363.111	1	118
363.282	1	112
363.453	1	137
363.624	1	126
363.795	1	134
363.966	1	138
364.137	1	161
364.308	1	165
364.478	1	180
364.649	1	174
364.820	1	197
364.991	1	218
365.162	1	211
365.333	1	215
365.504	1	234
365.675	1	253
365.846	1	249
366.017	1	264
366.188	1	283
366.359	1	288
366.530	1	299
366.701	1	321
366.871	1	323
367.042	1	333
367.213	1	347
367.384	1	371
367.555	1	365
367.726	1	366
367.897	1	377
368.068	1	377
368.239	1	390
368.410	1	381
368.581	1	385
368.752	1	411
368.923	1	389
369.093	1	364
369.264	1	372
369.435	1	385
369.606	1	391
369.777	1	370
369.948	1	368
370.119	1	354
370.290	1	331
370.461	1	355
370.632	1	331
370.803	1	301
370.973	1	318
371.144	1	294
371.315	1	294
371.486	1	273
371.657	1	284
371.828	1	271
371.999	1	263
372.170	1	268
372.341	1	256
372.512	1	236
372.682	1	227
372.853	1	228
373.024	1	215
373.195	1	214
373.366	1	225
373.537	1	215
373.708	1	199
373.879	1	202
374.050	1	196
374.220	1	192
374.391	1	179
374.562	1	166
374.733	1	166
374.904	1	156
375.075	1	154
375.246	1	154
375.417	1	150
375.588	1	150
375.758	1	155
375.929	1	150
376.100	1	136
376.271	1	124
376.442	1	128
376.613	1	116
376.784	1	119
376.955	1	124
377.125	1	121
377.296	1	111
377.467	1	118
377.638	1	114
377.809	1	124
377.980	1	101
378.151	1	109
378.321	1	99
378.492	1	102
378.663	1	98
378.834	1	98
379.005	1	79
379.176	1	78
379.347	1	84
379.518	1	84
379.688	1	74
379.859	1	77
380.030	1	80
380.201	1	74
380.372	1	72
380.543	1	69
380.714	1	73
380.884	1	69
381.055	1	65
381.226	1	73
381.397	1	66
381.568	1	67
381.739	1	52
381.910	1	66
382.080	1	60
382.251	1	56
382.422	1	54
382.593	1	60
382.764	1	56
382.935	1	58
383.105	1	49
383.276	1	61
383.447	1	60
383.618	1	56
383.789	1	55
383.960	1	41
384.130	1	48
384.301	1	44
384.472	1	46
384.643	1	46
384.814	1	54
384.985	1	47
385.156	1	47
385.326	1	44
385.497	1	55
385.668	1	44
385.839	1	38
386.010	1	38
386.180	1	45
386.351	1	45
386.522	1	50
386.693	1	32
386.864	1	40
387.035	1	36
387.205	1	37
387.376	1	39
387.547	1	35
387.718	1	19
387.889	1	40
388.060	1	33
388.230	1	29
388.401	1	33
388.572	1	33
388.743	1	42
388.914	1	31
389.084	1	29
389.255	1	33
389.426	1	33
389.597	1	28
389.768	1	30
389.939	1	23
390.109	1	38
390.280	1	32
390.451	1	37
390.622	1	28
390.793	1	31
390.963	1	22
391.134	1	25
391.305	1	29
391.476	1	32
391.647	1	17
391.817	1	24
391.988	1	28
392.159	1	36
392.330	1	16
392.501	1	26
392.671	1	19
392.842	1	17
393.013	1	33
393.184	1	21
393.355	1	24
393.525	1	20
393.696	1	26
393.867	1	31
394.038	1	13
394.208	1	26
394.379	1	10
394.550	1	26
394.721	1	19
394.892	1	25
395.062	1	13
395.233	1	19
395.404	1	24
395.575	1	15
395.746	1	16
395.916	1	8
396.087	1	21
396.258	1	11
396.429	1	21
396.599	1	17
396.770	1	21
396.941	1	23
397.112	1	17
397.283	1	17
397.453	1	20
397.624	1	11
397.795	1	11
397.966	1	18
398.136	1	14
398.307	1	17
398.478	1	11
398.649	1	17
398.819	1	22
398.990	1	9
399.161	1	10
399.332	1	5
399.503	1	13
399.673	1	17
399.844	1	6
400.015	1	23
400.186	1	11
400.356	1	4
400.527	1	21
400.698	1	21
400.869	1	7
401.039	1	18
401.210	1	8
401.381	1	24
401.552	1	17
401.722	1	14
401.893	1	19
402.064	1	15
402.235	1	16
402.405	1	9
402.576	1	16
402.747	1	15
402.918	1	15
403.088	1	17
403.259	1	8
403.430	1	16
403.601	1	23
403.771	1	11
403.942	1	13
404.113	1	12
404.284	1	11
404.454	1	5
404.625	1	21
404.796	1	10
404.967	1	8
405.137	1	18
405.308	1	4
405.479	1	7
405.649	1	13
405.820	1	5
405.991	1	7
406.162	1	16
406.332	1	-1
406.503	1	4
406.674	1	14
406.845	1	13
407.015	1	10
407.186	1	10
407.357	1	6
407.527	1	8
407.698	1	15
407.869	1	7
408.040	1	8
408.210	1	10
408.381	1	11
408.552	1	16
408.722	1	3
408.893	1	2
409.064	1	11
409.235	1	7
409.405	1	10
409.576	1	18
409.747	1	6
409.917	1	8
410.088	1	8
410.259	1	19
410.430	1	0
410.600	1	9
410.771	1	20
410.942	1	6
411.112	1	8
411.283	1	17
411.454	1	12
411.625	1	0
411.795	1	22
411.966	1	9
412.137	1	2
412.307	1	12
412.478	1	9
412.649	1	0
412.819	1	-10
412.990	1	0
413.161	1	5
413.332	1	6
413.502	1	9
413.673	1	-5
413.844	1	11
414.014	1	9
414.185	1	4
414.356	1	10
414.526	1	13
414.697	1	11
414.868	1	10
415.038	1	-3
415.209	1	-10
415.380	1	12
415.550	1	9
415.721	1	5
415.892	1	13
416.063	1	6
416.233	1	6
416.404	1	6
416.575	1	9
416.745	1	12
416.916	1	6
417.087	1	-3
417.257	1	15
417.428	1	9
417.599	1	7
417.769	1	8
417.940	1	6
418.111	1	19
418.281	1	-4
418.452	1	4
418.623	1	0
418.793	1	19
418.964	1	1
419.135	1	4
419.305	1	12
419.476	1	9
419.647	1	16
419.817	1	4
419.988	1	16
420.159	1	12
420.329	1	8
420.500	1	9
420.671	1	-1
420.841	1	4
421.012	1	7
421.183	1	6
421.353	1	9
421.524	1	7
421.695	1	4
421.865	1	-1
422.036	1	11
422.206	1	7
422.377	1	18
422.548	1	13
422.718	1	19
422.889	1	7
423.060	1	5
423.230	1	13
423.401	1	3
423.572	1	5
423.742	1	2
423.913	1	8
424.084	1	16
424.254	1	1
424.425	1	-1
424.595	1	11
424.766	1	9
424.937	1	7
425.107	1	-4
425.278	1	6
425.449	1	7
425.619	1	1
425.790	1	2
425.961	1	9
426.131	1	14
426.302	1	4
426.472	1	5
426.643	1	7
426.814	1	-5
426.984	1	2
427.155	1	17
427.326	1	12
427.496	1	11
427.667	1	12
427.837	1	4
428.008	1	11
428.179	1	5
428.349	1	0
428.520	1	7
428.691	1	4
428.861	1	9
429.032	1	8
429.202	1	1
429.373	1	5
429.544	1	12
429.714	1	10
429.885	1	13
430.055	1	5
430.226	1	11
430.397	1	9
430.567	1	7
430.738	1	6
430.909	1	-1
431.079	1	-2
431.250	1	19
431.420	1	9
431.591	1	-5
431.762	1	5
431.932	1	-1
432.103	1	12
432.273	1	9
432.444	1	9
432.615	1	-3
432.785	1	7
432.956	1	11
433.126	1	3
433.297	1	-1
433.468	1	-3
433.638	1	13
433.809	1	6
433.979	1	8
434.150	1	4
434.320	1	7
434.491	1	6
434.662	1	-10
434.832	1	10
435.003	1	14
435.173	1	10
435.344	1	3
435.515	1	3
435.685	1	6
435.856	1	12
436.026	1	-2
436.197	1	1
436.368	1	9
436.538	1	6
436.709	1	7
436.879	1	13
437.050	1	-2
437.220	1	4
437.391	1	-3
437.562	1	19
437.732	1	10
437.903	1	9
438.073	1	1
438.244	1	-2
438.414	1	-3
438.585	1	-1
438.756	1	3
438.926	1	13
439.097	1	10
439.267	1	3
439.438	1	11
439.608	1	7
439.779	1	13
439.949	1	14
440.120	1	4
440.291	1	14
440.461	1	14
440.632	1	-1
440.802	1	12
440.973	1	8
441.143	1	6
441.314	1	-4
441.485	1	8
441.655	1	7
441.826	1	7
441.996	1	-3
442.167	1	15
442.337	1	11
442.508	1	7
442.678	1	10
442.849	1	-5
443.019	1	4
443.190	1	1
443.361	1	18
443.531	1	-1
443.702	1	13
443.872	1	6
444.043	1	6
444.213	1	4
444.384	1	15
444.554	1	7
444.725	1	4
444.895	1	-7
445.066	1	10
445.237	1	2
445.407	1	15
445.578	1	15
445.748	1	4
445.919	1	3
446.089	1	3
446.260	1	7
446.430	1	-2
446.601	1	-8
446.771	1	-12
446.942	1	7
447.112	1	17
447.283	1	8
447.453	1	7
447.624	1	0
447.794	1	5
447.965	1	12
448.135	1	4
448.306	1	-2
448.477	1	12
448.647	1	6
448.818	1	18
448.988	1	19
449.159	1	2
449.329	1	5
449.500	1	9
449.670	1	-2
449.841	1	-2
450.011	1	11
450.182	1	10
450.352	1	2
450.523	1	11
450.693	1	12
450.864	1	11
451.034	1	5
451.205	1	3
451.375	1	9
451.546	1	-7
451.716	1	12
451.887	1	-3
452.057	1	10
452.228	1	7
452.398	1	11
452.569	1	10
452.739	1	6
452.910	1	14
453.080	1	4
453.251	1	-1
453.421	1	-3
453.592	1	1
453.762	1	2
453.933	1	5
454.103	1	-1
454.274	1	9
454.444	1	-6
454.615	1	12
454.785	1	4
454.956	1	3
455.126	1	17
455.297	1	-9
455.467	1	1
455.638	1	-2
455.808	1	16
455.979	1	21
456.149	1	-3
456.320	1	2
456.490	1	7
456.661	1	4
456.831	1	4
457.001	1	18
457.172	1	5
457.342	1	1
457.513	1	12
457.683	1	15
457.854	1	10
458.024	1	8
458.195	1	-5
458.365	1	-7
458.536	1	5
458.706	1	8
458.877	1	9
459.047	1	5
459.218	1	7
459.388	1	12
459.559	1	3
459.729	1	4
459.899	1	6
460.070	1	12
460.240	1	8
460.411	1	9
460.581	1	1
460.752	1	7
460.922	1	0
461.093	1	14
461.263	1	6
461.434	1	5
461.604	1	13
461.775	1	9
461.945	1	7
462.115	1	4
462.286	1	0
462.456	1	-8
462.627	1	6
462.797	1	3
462.968	1	5
463.138	1	-1
463.309	1	10
463.479	1	4
463.649	1	9
463.820	1	15
463.990	1	4
464.161	1	13
464.331	1	5
464.502	1	5
464.672	1	0
464.843	1	0
465.013	1	21
465.183	1	11
465.354	1	9
465.524	1	9
465.695	1	15
465.865	1	13
466.036	1	4
466.206	1	7
466.376	1	6
466.547	1	4
466.717	1	3
466.888	1	3
467.058	1	19
467.229	1	-4
467.399	1	11
467.569	1	10
467.740	1	7
467.910	1	1
468.081	1	0
468.251	1	8
468.422	1	12
468.592	1	1
468.762	1	16
468.933	1	-2
469.103	1	8
469.274	1	12
469.444	1	5
469.614	1	6
469.785	1	-7
469.955	1	10
470.126	1	6
470.296	1	5
470.467	1	8
470.637	1	14
470.807	1	5
470.978	1	6
471.148	1	5
471.319	1	10
471.489	1	10
471.659	1	-7
471.830	1	1
472.000	1	5
472.171	1	11
472.341	1	12
472.511	1	5
472.682	1	0
472.852	1	6
473.023	1	3
473.193	1	11
473.363	1	-1
473.534	1	9
473.704	1	10
473.875	1	2
474.045	1	11
474.215	1	0
474.386	1	2
474.556	1	11
474.727	1	12
474.897	1	6
475.067	1	8
475.238	1	1
475.408	1	9
475.578	1	10
475.749	1	11
475.919	1	2
476.090	1	4
476.260	1	13
476.430	1	2
476.601	1	7
476.771	1	10
476.942	1	-5
477.112	1	7
477.282	1	14
477.453	1	11
477.623	1	25
477.793	1	13
477.964	1	15
478.134	1	4
478.305	1	2
478.475	1	5
478.645	1	14
478.816	1	8
478.986	1	8
479.156	1	10
479.327	1	1
479.497	1	6
479.667	1	10
479.838	1	11
480.008	1	6
480.179	1	4
480.349	1	21
480.519	1	14
480.690	1	8
480.860	1	7
481.030	1	21
481.201	1	12
481.371	1	11
481.541	1	13
481.712	1	11
481.882	1	7
482.053	1	8
482.223	1	5
482.393	1	14
482.564	1	5
482.734	1	17
482.904	1	11
483.075	1	12
483.245	1	11
483.415	1	8
483.586	1	9
483.756	1	17
483.926	1	3
484.097	1	4
484.267	1	14
484.437	1	5
484.608	1	16
484.778	1	2
484.948	1	14
485.119	1	20
485.289	1	12
485.459	1	15
485.630	1	16
485.800	1	0
485.970	1	22
486.141	1	23
486.311	1	16
486.481	1	8
486.652	1	22
486.822	1	20
486.992	1	15
487.163	1	19
487.333	1	10
487.503	1	16
487.674	1	1
487.844	1	20
488.014	1	13
488.185	1	21
488.355	1	5
488.525	1	16
488.696	1	16
488.866	1	20
489.036	1	19
489.207	1	22
489.377	1	19
489.547	1	23
489.718	1	15
489.888	1	8
490.058	1	23
490.228	1	6
490.399	1	25
490.569	1	27
490.739	1	25
490.910	1	13
491.080	1	12
491.250	1	25
491.421	1	24
491.591	1	13
491.761	1	16
491.932	1	32
492.102	1	17
492.272	1	20
492.442	1	30
492.613	1	19
492.783	1	15
492.953	1	22
493.124	1	20
493.294	1	15
493.464	1	11
493.635	1	17
493.805	1	19
493.975	1	26
494.145	1	27
494.316	1	23
494.486	1	29
494.656	1	23
494.827	1	12
494.997	1	14
495.167	1	18
495.337	1	17
495.508	1	33
495.678	1	25
495.848	1	19
496.019	1	23
496.189	1	16
496.359	1	22
496.529	1	22
496.700	1	30
496.870	1	14
497.040	1	19
497.211	1	24
497.381	1	26
497.551	1	26
497.721	1	21
497.892	1	33
498.062	1	19
498.232	1	33
498.403	1	35
498.573	1	8
498.743	1	26
498.913	1	35
499.084	1	17
499.254	1	29
499.424	1	31
499.594	1	26
499.765	1	15
499.935	1	39
500.105	1	29
500.275	1	21
500.446	1	30
500.616	1	25
500.786	1	21
500.956	1	39
501.127	1	49
501.297	1	27
501.467	1	32
501.638	1	24
501.808	1	24
501.978	1	25
502.148	1	44
502.319	1	38
502.489	1	36
502.659	1	33
502.829	1	29
503.000	1	40
503.170	1	40
503.340	1	44
503.510	1	38
503.681	1	46
503.851	1	38
504.021	1	34
504.191	1	28
504.362	1	34
504.532	1	24
504.702	1	35
504.872	1	46
505.042	1	39
505.213	1	31
505.383	1	44
505.553	1	34
505.723	1	42
505.894	1	42
506.064	1	35
506.234	1	42
506.404	1	39
506.575	1	44
506.745	1	39
506.915	1	48
507.085	1	30
507.256	1	50
507.426	1	32
507.596	1	44
507.766	1	39
507.936	1	39
508.107	1	40
508.277	1	37
508.447	1	51
508.617	1	42
508.788	1	39
508.958	1	29
509.128	1	37
509.298	1	40
509.468	1	41
509.639	1	50
509.809	1	37
509.979	1	49
510.149	1	42
510.319	1	36
510.490	1	49
510.660	1	36
510.830	1	43
511.000	1	48
511.171	1	35
511.341	1	50
511.511	1	39
511.681	1	39
511.851	1	48
512.022	1	51
512.192	1	42
512.362	1	37
512.532	1	38
512.702	1	43
512.873	1	38
513.043	1	49
513.213	1	28
513.383	1	46
513.553	1	44
513.724	1	44
513.894	1	38
514.064	1	53
514.234	1	42
514.404	1	40
514.575	1	28
514.745	1	40
514.915	1	57
515.085	1	49
515.255	1	42
515.425	1	52
515.596	1	39
515.766	1	42
515.936	1	45
516.106	1	45
516.276	1	53
516.447	1	49
516.617	1	49
516.787	1	48
516.957	1	43
517.127	1	52
517.297	1	51
517.468	1	47
517.638	1	45
517.808	1	56
517.978	1	53
518.148	1	40
518.319	1	52
518.489	1	44
518.659	1	53
518.829	1	58
518.999	1	65
519.169	1	54
519.340	1	44
519.510	1	47
519.680	1	39
519.850	1	44
520.020	1	47
520.190	1	43
520.361	1	59
520.531	1	51
520.701	1	50
520.871	1	50
521.041	1	57
521.211	1	56
521.382	1	51
521.552	1	52
521.722	1	41
521.892	1	50
522.062	1	44
522.232	1	44
522.402	1	38
522.573	1	45
522.743	1	54
522.913	1	50
523.083	1	55
523.253	1	66
523.423	1	45
523.593	1	53
523.764	1	52
523.934	1	42
524.104	1	48
524.274	1	48
524.444	1	43
524.614	1	65
524.784	1	50
524.955	1	50
525.125	1	59
525.295	1	47
525.465	1	49
525.635	1	52
525.805	1	58
525.975	1	47
526.146	1	46
526.316	1	52
526.486	1	48
526.656	1	60
526.826	1	56
526.996	1	56
527.166	1	44
527.337	1	50
527.507	1	49
527.677	1	53
527.847	1	49
528.017	1	48
528.187	1	44
528.357	1	42
528.527	1	51
528.698	1	47
528.868	1	60
529.038	1	58
529.208	1	63
529.378	1	47
529.548	1	59
529.718	1	65
529.888	1	53
530.058	1	65
530.229	1	63
530.399	1	59
530.569	1	52
530.739	1	46
530.909	1	44
531.079	1	59
531.249	1	48
531.419	1	68
531.589	1	53
531.760	1	59
531.930	1	65
532.100	1	62
532.270	1	69
532.440	1	60
532.610	1	59
532.780	1	44
532.950	1	45
533.120	1	49
533.290	1	63
533.461	1	36
533.631	1	48
533.801	1	71
533.971	1	59
534.141	1	43
534.311	1	48
534.481	1	54
534.651	1	47
534.821	1	54
534.991	1	55
535.162	1	55
535.332	1	60
535.502	1	48
535.672	1	51
535.842	1	44
536.012	1	46
536.182	1	49
536.352	1	40
536.522	1	64
536.692	1	42
536.862	1	56
537.032	1	50
537.203	1	46
537.373	1	38
537.543	1	55
537.713	1	62
537.883	1	41
538.053	1	55
538.223	1	41
538.393	1	61
538.563	1	53
538.733	1	37
538.903	1	45
539.073	1	50
539.243	1	43
539.413	1	50
539.584	1	51
539.754	1	42
539.924	1	55
540.094	1	49
540.264	1	50
540.434	1	46
540.604	1	50
540.774	1	49
540.944	1	39
541.114	1	48
541.284	1	50
541.454	1	42
541.624	1	35
541.794	1	42
541.964	1	43
542.134	1	48
542.305	1	48
542.475	1	32
542.645	1	45
542.815	1	50
542.985	1	37
543.155	1	45
543.325	1	40
543.495	1	46
543.665	1	45
543.835	1	35
544.005	1	56
544.175	1	37
544.345	1	48
544.515	1	47
544.685	1	52
544.855	1	46
545.025	1	38
545.195	1	49
545.365	1	45
545.535	1	33
545.705	1	49
545.875	1	43
546.045	1	42
546.216	1	49
546.386	1	48
546.556	1	51
546.726	1	51
546.896	1	44
547.066	1	56
547.236	1	52
547.406	1	43
547.576	1	42
547.746	1	40
547.916	1	43
548.086	1	45
548.256	1	49
548.426	1	57
548.596	1	49
548.766	1	56
548.936	1	42
549.106	1	57
549.276	1	41
549.446	1	50
549.616	1	57
549.786	1	49
549.956	1	32
550.126	1	45
550.296	1	50
550.466	1	49
550.636	1	48
550.806	1	41
550.976	1	44
551.146	1	51
551.316	1	51
551.486	1	41
551.656	1	45
551.826	1	51
551.996	1	46
552.166	1	46
552.336	1	56
552.506	1	45
552.676	1	48
552.846	1	48
553.016	1	44
553.186	1	47
553.356	1	49
553.526	1	46
553.696	1	55
553.866	1	39
554.036	1	37
554.206	1	44
554.376	1	45
554.546	1	28
554.716	1	39
554.886	1	36
555.056	1	33
555.226	1	34
555.396	1	35
555.566	1	41
555.736	1	39
555.906	1	24
556.076	1	39
556.246	1	37
556.416	1	34
556.586	1	42
556.756	1	42
556.926	1	40
557.096	1	32
557.266	1	41
557.436	1	24
557.606	1	41
557.776	1	32
557.946	1	49
558.116	1	29
558.286	1	37
558.456	1	28
558.626	1	43
558.796	1	32
558.966	1	41
559.136	1	40
559.306	1	39
559.476	1	30
559.646	1	36
559.816	1	24
559.986	1	40
560.155	1	34
560.325	1	32
560.495	1	29
560.665	1	40
560.835	1	19
561.005	1	36
561.175	1	28
561.345	1	20
561.515	1	41
561.685	1	35
561.855	1	34
562.025	1	28
562.195	1	37
562.365	1	39
562.535	1	32
562.705	1	43
562.875	1	33
563.045	1	36
563.215	1	29
563.385	1	39
563.555	1	35
563.725	1	28
563.895	1	38
564.064	1	37
564.234	1	34
564.404	1	26
564.574	1	28
564.744	1	33
564.914	1	38
565.084	1	38
565.254	1	34
565.424	1	31
565.594	1	37
565.764	1	43
565.934	1	36
566.104	1	35
566.274	1	30
566.444	1	30
566.614	1	30
566.783	1	27
566.953	1	31
567.123	1	32
567.293	1	31
567.463	1	18
567.633	1	26
567.803	1	43
567.973	1	23
568.143	1	29
568.313	1	22
568.483	1	24
568.653	1	22
568.823	1	19
568.993	1	29
569.162	1	34
569.332	1	25
569.502	1	33
569.672	1	24
569.842	1	22
570.012	1	28
570.182	1	16
570.352	1	37
570.522	1	23
570.692	1	26
570.862	1	31
571.031	1	35
571.201	1	25
571.371	1	30
571.541	1	17
571.711	1	21
571.881	1	17
572.051	1	24
572.221	1	28
572.391	1	25
572.561	1	27
572.731	1	31
572.900	1	24
573.070	1	18
573.240	1	28
573.410	1	29
573.580	1	26
573.750	1	22
573.920	1	34
574.090	1	30
574.260	1	28
574.430	1	30
574.599	1	24
574.769	1	18
574.939	1	20
575.109	1	30
575.279	1	14
575.449	1	28
575.619	1	33
575.789	1	22
575.959	1	20
576.128	1	20
576.298	1	28
576.468	1	23
576.638	1	14
576.808	1	13
576.978	1	17
577.148	1	18
577.318	1	28
577.487	1	27
577.657	1	19
577.827	1	30
577.997	1	21
578.167	1	21
578.337	1	33
578.507	1	27
578.677	1	21
578.846	1	20
579.016	1	24
579.186	1	17
579.356	1	24
579.526	1	21
579.696	1	18
579.866	1	23
580.036	1	21
580.205	1	19
580.375	1	13
580.545	1	13
580.715	1	23
580.885	1	14
581.055	1	25
581.225	1	14
581.394	1	19
581.564	1	19
581.734	1	32
581.904	1	14
582.074	1	21
582.244	1	27
582.414	1	9
582.583	1	21
582.753	1	26
582.923	1	22
583.093	1	30
583.263	1	27
583.433	1	30
583.603	1	33
583.772	1	20
583.942	1	25
584.112	1	30
584.282	1	14
584.452	1	10
584.622	1	32
584.791	1	13
584.961	1	28
585.131	1	26
585.301	1	23
585.471	1	29
585.641	1	23
585.811	1	9
585.980	1	20
586.150	1	12
586.320	1	17
586.490	1	21
586.660	1	20
586.830	1	11
586.999	1	17
587.169	1	24
587.339	1	18
587.509	1	14
587.679	1	9
587.849	1	21
588.018	1	27
588.188	1	15
588.358	1	31
588.528	1	20
588.698	1	13
588.867	1	11
589.037	1	13
589.207	1	14
589.377	1	22
589.547	1	16
589.717	1	21
589.886	1	5
590.056	1	19
590.226	1	13
590.396	1	21
590.566	1	17
590.735	1	17
590.905	1	24
591.075	1	17
591.245	1	11
591.415	1	20
591.585	1	9
591.754	1	14
591.924	1	11
592.094	1	13
592.264	1	11
592.434	1	9
592.603	1	19
592.773	1	23
592.943	1	10
593.113	1	22
593.283	1	21
593.452	1	10
593.622	1	3
593.792	1	12
593.962	1	12
594.132	1	25
594.301	1	23
594.471	1	24
594.641	1	19
594.811	1	10
594.981	1	17
595.150	1	8
595.320	1	8
595.490	1	8
595.660	1	14
595.829	1	24
595.999	1	21
596.169	1	19
596.339	1	17
596.509	1	18
596.678	1	12
596.848	1	17
597.018	1	13
597.188	1	10
597.358	1	5
597.527	1	6
597.697	1	9
597.867	1	19
598.037	1	6
598.206	1	21
598.376	1	5
598.546	1	6
598.716	1	15
598.885	1	21
599.055	1	14
599.225	1	13
599.395	1	10
599.565	1	12
599.734	1	27
599.904	1	22
600.074	1	15
600.244	1	15
600.413	1	9
600.583	1	13
600.753	1	12
600.923	1	17
601.092	1	11
601.262	1	2
601.432	1	13
601.602	1	23
601.771	1	21
601.941	1	10
602.111	1	13
602.281	1	9
602.451	1	21
602.620	1	14
602.790	1	23
602.960	1	3
603.130	1	12
603.299	1	10
603.469	1	16
603.639	1	12
603.809	1	12
603.978	1	25
604.148	1	12
604.318	1	2
604.487	1	21
604.657	1	17
604.827	1	2
604.997	1	11
605.166	1	21
605.336	1	5
605.506	1	6
605.676	1	15
605.845	1	10
606.015	1	10
606.185	1	20
606.355	1	17
606.524	1	3
606.694	1	3
606.864	1	11
607.034	1	13
607.203	1	9
607.373	1	18
607.543	1	21
607.712	1	2
607.882	1	7
608.052	1	11
608.222	1	15
608.391	1	16
608.561	1	12
608.731	1	8
608.901	1	14
609.070	1	16
609.240	1	13
609.410	1	13
609.579	1	13
609.749	1	9
609.919	1	6
610.089	1	9
610.258	1	16
610.428	1	12
610.598	1	17
610.767	1	15
610.937	1	9
611.107	1	6
611.277	1	12
611.446	1	8
611.616	1	15
611.786	1	14
611.955	1	26
612.125	1	16
612.295	1	6
612.465	1	6
612.634	1	1
612.804	1	10
612.974	1	16
613.143	1	15
613.313	1	14
613.483	1	10
613.652	1	23
613.822	1	10
613.992	1	10
614.162	1	13
614.331	1	6
614.501	1	2
614.671	1	22
614.840	1	11
615.010	1	8
615.180	1	20
615.349	1	14
615.519	1	5
615.689	1	20
615.858	1	11
616.028	1	6
616.198	1	7
616.368	1	9
616.537	1	11
616.707	1	16
616.877	1	7
617.046	1	16
617.216	1	12
617.386	1	4
617.555	1	2
617.725	1	13
617.895	1	7
618.064	1	15
618.234	1	15
618.404	1	12
618.573	1	1
618.743	1	12
618.913	1	12
619.082	1	26
619.252	1	8
619.422	1	6
619.591	1	6
619.761	1	1
619.931	1	8
620.100	1	0
620.270	1	9
620.440	1	19
620.609	1	11
620.779	1	2
620.949	1	15
621.118	1	-6
621.288	1	23
621.458	1	5
621.627	1	17
621.797	1	12
621.967	1	5
622.136	1	14
622.306	1	9
622.476	1	2
622.645	1	6
622.815	1	13
622.985	1	9
623.154	1	16
623.324	1	4
623.494	1	5
623.663	1	19
623.833	1	15
624.002	1	15
624.172	1	7
624.342	1	14
624.511	1	12
624.681	1	2
624.851	1	4
625.020	1	4
625.190	1	18
625.360	1	14
625.529	1	9
625.699	1	14
625.869	1	13
626.038	1	13
626.208	1	10
626.377	1	14
626.547	1	11
626.717	1	16
626.886	1	16
627.056	1	11
627.226	1	9
627.395	1	7
627.565	1	8
627.735	1	-6
627.904	1	5
628.074	1	20
628.243	1	14
628.413	1	9
628.583	1	10
628.752	1	4
628.922	1	3
629.091	1	-2
629.261	1	11
629.431	1	13
629.600	1	13
629.770	1	15
629.940	1	13
630.109	1	10
630.279	1	12
630.448	1	4
630.618	1	-1
630.788	1	16
630.957	1	7
631.127	1	6
631.297	1	2
631.466	1	15
631.636	1	23
631.805	1	23
631.975	1	7
632.145	1	9
632.314	1	10
632.484	1	10
632.653	1	14
632.823	1	-6
632.993	1	6
633.162	1	19
633.332	1	16
633.501	1	6
633.671	1	21
633.841	1	4
634.010	1	9
634.180	1	2
634.349	1	-2
634.519	1	6
634.689	1	22
634.858	1	7
635.028	1	19
635.197	1	14
635.367	1	7
635.537	1	2
635.706	1	9
635.876	1	11
636.045	1	11
636.215	1	6
636.384	1	-2
636.554	1	8
636.724	1	11
636.893	1	5
637.063	1	11
637.232	1	15
637.402	1	16
637.572	1	9
637.741	1	6
637.911	1	7
638.080	1	15
638.250	1	10
638.419	1	-4
638.589	1	14
638.759	1	17
638.928	1	6
639.098	1	-1
639.267	1	10
639.437	1	4
639.606	1	-6
639.776	1	3
639.946	1	5
640.115	1	7
640.285	1	7
640.454	1	6
640.624	1	8
640.793	1	3
640.963	1	14
641.132	1	13
641.302	1	-1
641.472	1	4
641.641	1	10
641.811	1	13
641.980	1	3
642.150	1	9
642.319	1	15
642.489	1	6
642.659	1	12
642.828	1	4
642.998	1	11
643.167	1	15
643.337	1	10
643.506	1	10
643.676	1	18
643.845	1	13
644.015	1	9
644.184	1	10
644.354	1	7
644.524	1	4
644.693	1	7
644.863	1	-2
645.032	1	5
645.202	1	18
645.371	1	8
645.541	1	10
645.710	1	0
645.880	1	13
646.049	1	13
646.219	1	12
646.388	1	1
646.558	1	19
646.728	1	12
646.897	1	14
647.067	1	11
647.236	1	-2
647.406	1	12
647.575	1	-1
647.745	1	5
647.914	1	-1
648.084	1	12
648.253	1	12
648.423	1	6
648.592	1	10
648.762	1	7
648.931	1	18
649.101	1	13
649.270	1	10
649.440	1	-5
649.610	1	11
649.779	1	4
649.949	1	4
650.118	1	6
650.288	1	6
650.457	1	11
650.627	1	11
650.796	1	11
650.966	1	5
651.135	1	4
651.305	1	7
651.474	1	17
651.644	1	16
651.813	1	13
651.983	1	25
652.152	1	5
652.322	1	16
652.491	1	8
652.661	1	2
652.830	1	4
653.000	1	-1
653.169	1	4
653.339	1	1
653.508	1	17
653.678	1	11
653.847	1	9
654.017	1	13
654.186	1	19
654.356	1	3
654.525	1	6
654.695	1	10
654.864	1	15
655.034	1	6
655.203	1	6
655.373	1	13
655.542	1	1
655.712	1	0
655.881	1	4
656.051	1	9
656.220	1	7
656.390	1	7
656.559	1	-3
656.729	1	10
656.898	1	16
657.068	1	17
657.237	1	8
657.406	1	10
657.576	1	14
657.745	1	5
657.915	1	4
658.084	1	1
658.254	1	17
658.423	1	1
658.593	1	1
658.762	1	8
658.932	1	10
659.101	1	15
659.271	1	10
659.440	1	11
659.610	1	15
659.779	1	8
659.949	1	3
660.118	1	7
660.288	1	7
660.457	1	6
660.626	1	14
660.796	1	7
660.965	1	20
661.135	1	-5
661.304	1	2
661.474	1	20
661.643	1	16
661.813	1	5
661.982	1	4
662.152	1	8
662.321	1	6
662.491	1	-4
662.660	1	-4
662.829	1	1
662.999	1	14
663.168	1	14
663.338	1	14
663.507	1	11
663.677	1	4
663.846	1	1
664.016	1	14
664.185	1	15
664.354	1	-1
664.524	1	6
664.693	1	-2
664.863	1	11
665.032	1	5
665.202	1	17
665.371	1	9
665.541	1	1
665.710	1	13
665.879	1	9
666.049	1	8
666.218	1	17
666.388	1	20
666.557	1	-2
666.727	1	2
666.896	1	4
667.065	1	3
667.235	1	5
667.404	1	9
667.574	1	-9
667.743	1	4
667.913	1	0
668.082	1	10
668.251	1	11
668.421	1	14
668.590	1	6
668.760	1	7
668.929	1	11
669.099	1	6
669.268	1	1
669.437	1	13
669.607	1	11
669.776	1	9
669.946	1	16
670.115	1	12
670.285	1	16
670.454	1	-1
670.623	1	4
670.793	1	14
670.962	1	2
671.132	1	5
671.301	1	12
671.470	1	-2
671.640	1	15
671.809	1	6
671.979	1	7
672.148	1	3
672.317	1	11
672.487	1	6
672.656	1	0
672.826	1	4
672.995	1	2
673.164	1	10
673.334	1	1
673.503	1	5
673.673	1	11
673.842	1	8
674.011	1	6
674.181	1	2
674.350	1	8
674.520	1	10
674.689	1	7
674.858	1	4
675.028	1	4
675.197	1	14
675.367	1	0
675.536	1	13
675.705	1	12
675.875	1	13
676.044	1	18
676.214	1	-1
676.383	1	9
676.552	1	7
676.722	1	21
676.891	1	23
677.060	1	2
677.230	1	15
677.399	1	7
677.569	1	4
677.738	1	9
677.907	1	5
678.077	1	10
678.246	1	-1
678.416	1	2
678.585	1	23
678.754	1	10
678.924	1	14
679.093	1	13
679.262	1	3
679.432	1	4
679.601	1	13
679.771	1	5
679.940	1	19
680.109	1	4
680.279	1	8
680.448	1	17
680.617	1	10
680.787	1	3
680.956	1	0
681.125	1	15
681.295	1	9
681.464	1	10
681.634	1	5
681.803	1	16
681.972	1	-3
682.142	1	3
682.311	1	9
682.480	1	12
682.650	1	7
682.819	1	11
682.988	1	11
683.158	1	9
683.327	1	4
683.496	1	17
683.666	1	8
683.835	1	3
684.004	1	17
684.174	1	9
684.343	1	14
684.512	1	1
684.682	1	10
684.851	1	7
685.021	1	-7
685.190	1	8
685.359	1	3
685.529	1	19
685.698	1	3
685.867	1	10
686.037	1	7
686.206	1	11
686.375	1	14
686.545	1	14
686.714	1	6
686.883	1	9
687.053	1	5
687.222	1	8
687.391	1	7
687.561	1	13
687.730	1	9
687.899	1	0
688.069	1	9
688.238	1	17
688.407	1	2
688.577	1	17
688.746	1	-1
