340.368	1	0
340.539	1	-6
340.710	1	-14
340.881	1	1
341.052	1	2
341.223	1	-9
341.394	1	8
341.565	1	3
341.737	1	-4
341.908	1	9
342.079	1	-2
342.250	1	-5
342.421	1	4
342.592	1	-2
342.763	1	-1
342.934	1	-4
343.105	1	16
343.276	1	7
343.447	1	-4
343.618	1	2
343.789	1	1
343.960	1	-3
344.131	1	3
344.302	1	-4
344.473	1	3
344.644	1	-4
344.815	1	7
344.986	1	4
345.157	1	11
345.328	1	6
345.499	1	-3
345.670	1	13
345.841	1	-2
346.012	1	-1
346.183	1	-5
346.354	1	-5
346.526	1	1
346.697	1	11
346.868	1	14
347.039	1	-2
347.210	1	-3
347.381	1	6
347.552	1	-4
347.723	1	11
347.894	1	4
348.065	1	-4
348.236	1	-6
348.407	1	6
348.578	1	8
348.749	1	10
348.920	1	-7
349.091	1	7
349.262	1	9
349.433	1	13
349.604	1	4
349.775	1	15
349.946	1	4
350.117	1	-2
350.288	1	4
350.459	1	6
350.630	1	18
350.801	1	-5
350.972	1	-8
351.143	1	-1
351.314	1	12
351.485	1	9
351.656	1	2
351.827	1	5
351.998	1	13
352.169	1	-3
352.340	1	4
352.511	1	-2
352.682	1	-3
352.853	1	5
353.024	1	5
353.195	1	3
353.366	1	3
353.537	1	13
353.708	1	6
353.879	1	6
354.050	1	-3
354.221	1	-5
354.392	1	10
354.563	1	-2
354.734	1	8
354.905	1	10
355.076	1	1
355.247	1	-2
355.418	1	4
355.589	1	3
355.760	1	-3
355.931	1	11
356.102	1	2
356.273	1	8
356.444	1	1
356.615	1	3
356.785	1	14
356.956	1	5
357.127	1	8
357.298	1	11
357.469	1	-2
357.640	1	1
357.811	1	3
357.982	1	7
358.153	1	8
358.324	1	15
358.495	1	14
358.666	1	9
358.837	1	12
359.008	1	0
359.179	1	-2
359.350	1	6
359.521	1	5
359.692	1	11
359.863	1	11
360.034	1	10
360.205	1	18
360.376	1	12
360.547	1	9
360.718	1	4
360.889	1	11
361.060	1	8
361.231	1	13
361.401	1	10
361.572	1	16
361.743	1	13
361.914	1	21
362.085	1	8
362.256	1	11
362.427	1	10
362.598	1	8
362.769	1	1
362.940	1	35
363.111	1	19
363.282	1	11
363.453	1	-1
363.624	1	12
363.795	1	12
363.966	1	6
364.137	1	16
364.308	1	13
364.478	1	14
364.649	1	14
364.820	1	13
364.991	1	21
365.162	1	23
365.333	1	18
365.504	1	10
365.675	1	19
365.846	1	11
366.017	1	16
366.188	1	24
366.359	1	22
366.530	1	18
366.701	1	20
366.871	1	19
367.042	1	22
367.213	1	24
367.384	1	27
367.555	1	39
367.726	1	31
367.897	1	18
368.068	1	33
368.239	1	27
368.410	1	30
368.581	1	36
368.752	1	32
368.923	1	15
369.093	1	14
369.264	1	26
369.435	1	23
369.606	1	32
369.777	1	46
369.948	1	41
370.119	1	27
370.290	1	26
370.461	1	38
370.632	1	27
370.803	1	26
370.973	1	29
371.144	1	32
371.315	1	32
371.486	1	19
371.657	1	27
371.828	1	28
371.999	1	15
372.170	1	27
372.341	1	31
372.512	1	14
372.682	1	25
372.853	1	25
373.024	1	19
373.195	1	22
373.366	1	14
373.537	1	29
373.708	1	19
373.879	1	17
374.050	1	17
374.220	1	19
374.391	1	14
374.562	1	15
374.733	1	21
374.904	1	17
375.075	1	14
375.246	1	13
375.417	1	21
375.588	1	11
375.758	1	17
375.929	1	8
376.100	1	18
376.271	1	16
376.442	1	28
376.613	1	19
376.784	1	8
376.955	1	20
377.125	1	15
377.296	1	12
377.467	1	12
377.638	1	18
377.809	1	18
377.980	1	0
378.151	1	10
378.321	1	15
378.492	1	-1
378.663	1	6
378.834	1	16
379.005	1	7
379.176	1	0
379.347	1	10
379.518	1	1
379.688	1	10
379.859	1	16
380.030	1	15
380.201	1	2
380.372	1	3
380.543	1	8
380.714	1	19
380.884	1	2
381.055	1	8
381.226	1	18
381.397	1	19
381.568	1	12
381.739	1	3
381.910	1	12
382.080	1	10
382.251	1	11
382.422	1	1
382.593	1	9
382.764	1	11
382.935	1	1
383.105	1	14
383.276	1	12
383.447	1	17
383.618	1	14
383.789	1	17
383.960	1	21
384.130	1	6
384.301	1	2
384.472	1	-1
384.643	1	11
384.814	1	10
384.985	1	6
385.156	1	1
385.326	1	6
385.497	1	11
385.668	1	18
385.839	1	-4
386.010	1	3
386.180	1	14
386.351	1	3
386.522	1	9
386.693	1	-2
386.864	1	13
387.035	1	1
387.205	1	2
387.376	1	7
387.547	1	6
387.718	1	9
387.889	1	4
388.060	1	7
388.230	1	10
388.401	1	1
388.572	1	5
388.743	1	20
388.914	1	-7
389.084	1	2
389.255	1	12
389.426	1	11
389.597	1	9
389.768	1	15
389.939	1	-2
390.109	1	5
390.280	1	3
390.451	1	1
390.622	1	1
390.793	1	3
390.963	1	-4
391.134	1	5
391.305	1	0
391.476	1	13
391.647	1	-4
391.817	1	5
391.988	1	10
392.159	1	10
392.330	1	13
392.501	1	-5
392.671	1	-4
392.842	1	-2
393.013	1	2
393.184	1	4
393.355	1	15
393.525	1	13
393.696	1	3
393.867	1	17
394.038	1	5
394.208	1	9
394.379	1	-16
394.550	1	7
394.721	1	-5
394.892	1	-4
395.062	1	-6
395.233	1	3
395.404	1	16
395.575	1	8
395.746	1	19
395.916	1	-7
396.087	1	3
396.258	1	7
396.429	1	7
396.599	1	-6
396.770	1	11
396.941	1	3
397.112	1	11
397.283	1	4
397.453	1	8
397.624	1	9
397.795	1	3
397.966	1	9
398.136	1	-2
398.307	1	3
398.478	1	9
398.649	1	5
398.819	1	5
398.990	1	-1
399.161	1	0
399.332	1	-2
399.503	1	8
399.673	1	-1
399.844	1	-8
400.015	1	11
400.186	1	-4
400.356	1	-5
400.527	1	11
400.698	1	-4
400.869	1	2
401.039	1	12
401.210	1	8
401.381	1	12
401.552	1	2
401.722	1	4
401.893	1	5
402.064	1	7
402.235	1	10
402.405	1	1
402.576	1	4
402.747	1	1
402.918	1	-1
403.088	1	6
403.259	1	6
403.430	1	6
403.601	1	5
403.771	1	6
403.942	1	7
404.113	1	5
404.284	1	-15
404.454	1	2
404.625	1	0
404.796	1	5
404.967	1	7
405.137	1	6
405.308	1	10
405.479	1	2
405.649	1	6
405.820	1	1
405.991	1	3
406.162	1	1
406.332	1	-13
406.503	1	7
406.674	1	3
406.845	1	6
407.015	1	7
407.186	1	0
407.357	1	-5
407.527	1	-5
407.698	1	-2
407.869	1	8
408.040	1	5
408.210	1	1
408.381	1	4
408.552	1	-6
408.722	1	-3
408.893	1	4
409.064	1	9
409.235	1	1
409.405	1	2
409.576	1	7
409.747	1	1
409.917	1	2
410.088	1	12
410.259	1	4
410.430	1	-2
410.600	1	3
410.771	1	2
410.942	1	2
411.112	1	-6
411.283	1	3
411.454	1	8
411.625	1	-8
411.795	1	10
411.966	1	-6
412.137	1	-1
412.307	1	3
412.478	1	1
412.649	1	-2
412.819	1	3
412.990	1	2
413.161	1	-3
413.332	1	5
413.502	1	-4
413.673	1	-4
413.844	1	4
414.014	1	13
414.185	1	3
414.356	1	1
414.526	1	14
414.697	1	0
414.868	1	-6
415.038	1	-11
415.209	1	-11
415.380	1	1
415.550	1	5
415.721	1	2
415.892	1	0
416.063	1	1
416.233	1	11
416.404	1	5
416.575	1	-4
416.745	1	-5
416.916	1	-6
417.087	1	-2
417.257	1	-3
417.428	1	3
417.599	1	0
417.769	1	12
417.940	1	5
418.111	1	2
418.281	1	-3
418.452	1	-2
418.623	1	0
418.793	1	7
418.964	1	-4
419.135	1	-9
419.305	1	-4
419.476	1	9
419.647	1	15
419.817	1	0
419.988	1	6
420.159	1	5
420.329	1	3
420.500	1	9
420.671	1	-7
420.841	1	-7
421.012	1	-3
421.183	1	-1
421.353	1	5
421.524	1	-4
421.695	1	-9
421.865	1	4
422.036	1	11
422.206	1	2
422.377	1	2
422.548	1	-2
422.718	1	8
422.889	1	-9
423.060	1	-4
423.230	1	1
423.401	1	-1
423.572	1	1
423.742	1	0
423.913	1	3
424.084	1	15
424.254	1	-5
424.425	1	0
424.595	1	-1
424.766	1	13
424.937	1	1
425.107	1	-2
425.278	1	-1
425.449	1	12
425.619	1	-7
425.790	1	6
425.961	1	-2
426.131	1	4
426.302	1	-5
426.472	1	2
426.643	1	-2
426.814	1	-7
426.984	1	-8
427.155	1	6
427.326	1	4
427.496	1	-3
427.667	1	4
427.837	1	5
428.008	1	13
428.179	1	2
428.349	1	-1
428.520	1	7
428.691	1	4
428.861	1	4
429.032	1	2
429.202	1	-9
429.373	1	14
429.544	1	4
429.714	1	-5
429.885	1	5
430.055	1	-4
430.226	1	9
430.397	1	6
430.567	1	9
430.738	1	-8
430.909	1	-1
431.079	1	-2
431.250	1	15
431.420	1	-2
431.591	1	-2
431.762	1	10
431.932	1	-9
432.103	1	8
432.273	1	-2
432.444	1	2
432.615	1	10
432.785	1	8
432.956	1	6
433.126	1	-2
433.297	1	-7
433.468	1	-5
433.638	1	4
433.809	1	0
433.979	1	4
434.150	1	9
434.320	1	6
434.491	1	-2
434.662	1	-8
434.832	1	10
435.003	1	1
435.173	1	0
435.344	1	-2
435.515	1	3
435.685	1	-3
435.856	1	10
436.026	1	-2
436.197	1	-4
436.368	1	2
436.538	1	7
436.709	1	5
436.879	1	8
437.050	1	-4
437.220	1	4
437.391	1	-8
437.562	1	7
437.732	1	-1
437.903	1	4
438.073	1	-5
438.244	1	8
438.414	1	1
438.585	1	17
438.756	1	-3
438.926	1	1
439.097	1	-2
439.267	1	-1
439.438	1	2
439.608	1	-2
439.779	1	9
439.949	1	9
440.120	1	-8
440.291	1	4
440.461	1	12
440.632	1	1
440.802	1	9
440.973	1	-8
441.143	1	1
441.314	1	-1
441.485	1	0
441.655	1	4
441.826	1	9
441.996	1	-4
442.167	1	8
442.337	1	0
442.508	1	-10
442.678	1	-4
442.849	1	6
443.019	1	2
443.190	1	-1
443.361	1	1
443.531	1	-5
443.702	1	17
443.872	1	-8
444.043	1	1
444.213	1	-8
444.384	1	4
444.554	1	2
444.725	1	8
444.895	1	-2
445.066	1	10
445.237	1	-5
445.407	1	8
445.578	1	8
445.748	1	-2
445.919	1	2
446.089	1	5
446.260	1	1
446.430	1	-5
446.601	1	-5
446.771	1	-9
446.942	1	11
447.112	1	15
447.283	1	6
447.453	1	6
447.624	1	2
447.794	1	4
447.965	1	-5
448.135	1	5
448.306	1	-3
448.477	1	6
448.647	1	-3
448.818	1	10
448.988	1	8
449.159	1	9
449.329	1	4
449.500	1	11
449.670	1	-13
449.841	1	-6
450.011	1	-4
450.182	1	0
450.352	1	-4
450.523	1	6
450.693	1	5
450.864	1	10
451.034	1	-12
451.205	1	3
451.375	1	0
451.546	1	-3
451.716	1	1
451.887	1	-1
452.057	1	0
452.228	1	9
452.398	1	9
452.569	1	15
452.739	1	3
452.910	1	4
453.080	1	-1
453.251	1	0
453.421	1	9
453.592	1	-7
453.762	1	10
453.933	1	3
454.103	1	-8
454.274	1	1
454.444	1	-3
454.615	1	2
454.785	1	0
454.956	1	5
455.126	1	4
455.297	1	-8
455.467	1	-5
455.638	1	10
455.808	1	11
455.979	1	12
456.149	1	5
456.320	1	2
456.490	1	0
456.661	1	5
456.831	1	2
457.001	1	8
457.172	1	-3
457.342	1	2
457.513	1	16
457.683	1	10
457.854	1	10
458.024	1	5
458.195	1	6
458.365	1	-12
458.536	1	1
458.706	1	13
458.877	1	5
459.047	1	2
459.218	1	5
459.388	1	17
459.559	1	2
459.729	1	7
459.899	1	-4
460.070	1	-6
460.240	1	4
460.411	1	6
460.581	1	7
460.752	1	6
460.922	1	4
461.093	1	1
461.263	1	3
461.434	1	-12
461.604	1	4
461.775	1	4
461.945	1	4
462.115	1	3
462.286	1	0
462.456	1	-5
462.627	1	5
462.797	1	0
462.968	1	-1
463.138	1	4
463.309	1	12
463.479	1	3
463.649	1	2
463.820	1	6
463.990	1	0
464.161	1	2
464.331	1	10
464.502	1	4
464.672	1	3
464.843	1	-9
465.013	1	8
465.183	1	10
465.354	1	-3
465.524	1	8
465.695	1	8
465.865	1	1
466.036	1	-6
466.206	1	11
466.376	1	3
466.547	1	4
466.717	1	2
466.888	1	-7
467.058	1	5
467.229	1	2
467.399	1	9
467.569	1	11
467.740	1	3
467.910	1	-10
468.081	1	3
468.251	1	7
468.422	1	9
468.592	1	0
468.762	1	9
468.933	1	3
469.103	1	8
469.274	1	5
469.444	1	-3
469.614	1	0
469.785	1	-4
469.955	1	-2
470.126	1	6
470.296	1	8
470.467	1	7
470.637	1	2
470.807	1	-2
470.978	1	-2
471.148	1	-4
471.319	1	6
471.489	1	4
471.659	1	1
471.830	1	-1
472.000	1	3
472.171	1	4
472.341	1	8
472.511	1	4
472.682	1	-7
472.852	1	5
473.023	1	-5
473.193	1	5
473.363	1	0
473.534	1	0
473.704	1	1
473.875	1	1
474.045	1	6
474.215	1	6
474.386	1	2
474.556	1	5
474.727	1	2
474.897	1	7
475.067	1	-1
475.238	1	-3
475.408	1	-6
475.578	1	6
475.749	1	4
475.919	1	3
476.090	1	6
476.260	1	4
476.430	1	-3
476.601	1	0
476.771	1	11
476.942	1	-4
477.112	1	6
477.282	1	11
477.453	1	3
477.623	1	7
477.793	1	3
477.964	1	2
478.134	1	6
478.305	1	4
478.475	1	9
478.645	1	8
478.816	1	-1
478.986	1	-1
479.156	1	5
479.327	1	-6
479.497	1	3
479.667	1	-5
479.838	1	7
480.008	1	12
480.179	1	-1
480.349	1	2
480.519	1	1
480.690	1	1
480.860	1	-6
481.030	1	9
481.201	1	0
481.371	1	8
481.541	1	2
481.712	1	4
481.882	1	13
482.053	1	-4
482.223	1	2
482.393	1	3
482.564	1	-2
482.734	1	-5
482.904	1	5
483.075	1	0
483.245	1	-7
483.415	1	5
483.586	1	6
483.756	1	2
483.926	1	0
484.097	1	-7
484.267	1	5
484.437	1	-2
484.608	1	5
484.778	1	-9
484.948	1	0
485.119	1	5
485.289	1	4
485.459	1	2
485.630	1	10
485.800	1	-11
485.970	1	3
486.141	1	6
486.311	1	4
486.481	1	11
486.652	1	11
486.822	1	8
486.992	1	2
487.163	1	9
487.333	1	-4
487.503	1	3
487.674	1	-3
487.844	1	11
488.014	1	-1
488.185	1	5
488.355	1	-12
488.525	1	1
488.696	1	7
488.866	1	4
489.036	1	11
489.207	1	5
489.377	1	0
489.547	1	5
489.718	1	11
489.888	1	3
490.058	1	6
490.228	1	-4
490.399	1	0
490.569	1	5
490.739	1	7
490.910	1	-1
491.080	1	1
491.250	1	0
491.421	1	-3
491.591	1	5
491.761	1	0
491.932	1	11
492.102	1	-1
492.272	1	1
492.442	1	0
492.613	1	3
492.783	1	4
492.953	1	5
493.124	1	6
493.294	1	5
493.464	1	1
493.635	1	6
493.805	1	7
493.975	1	10
494.145	1	17
494.316	1	6
494.486	1	10
494.656	1	3
494.827	1	3
494.997	1	-1
495.167	1	7
495.337	1	7
495.508	1	11
495.678	1	-2
495.848	1	-6
496.019	1	-5
496.189	1	-1
496.359	1	7
496.529	1	0
496.700	1	1
496.870	1	9
497.040	1	-1
497.211	1	5
497.381	1	1
497.551	1	15
497.721	1	-4
497.892	1	6
498.062	1	2
498.232	1	1
498.403	1	12
498.573	1	-3
498.743	1	11
498.913	1	6
499.084	1	7
499.254	1	2
499.424	1	9
499.594	1	4
499.765	1	3
499.935	1	6
500.105	1	2
500.275	1	5
500.446	1	-1
500.616	1	5
500.786	1	2
500.956	1	2
501.127	1	9
501.297	1	3
501.467	1	1
501.638	1	-8
501.808	1	0
501.978	1	-2
502.148	1	8
502.319	1	10
502.489	1	1
502.659	1	7
502.829	1	2
503.000	1	9
503.170	1	3
503.340	1	10
503.510	1	6
503.681	1	12
503.851	1	1
504.021	1	0
504.191	1	-9
504.362	1	9
504.532	1	-7
504.702	1	8
504.872	1	7
505.042	1	2
505.213	1	-1
505.383	1	4
505.553	1	8
505.723	1	1
505.894	1	-1
506.064	1	2
506.234	1	1
506.404	1	7
506.575	1	12
506.745	1	11
506.915	1	11
507.085	1	-2
507.256	1	-3
507.426	1	0
507.596	1	8
507.766	1	4
507.936	1	2
508.107	1	4
508.277	1	-8
508.447	1	3
508.617	1	8
508.788	1	5
508.958	1	-1
509.128	1	2
509.298	1	5
509.468	1	-2
509.639	1	7
509.809	1	13
509.979	1	9
510.149	1	6
510.319	1	-11
510.490	1	4
510.660	1	6
510.830	1	4
511.000	1	6
511.171	1	3
511.341	1	15
511.511	1	0
511.681	1	7
511.851	1	1
512.022	1	11
512.192	1	13
512.362	1	6
512.532	1	-1
512.702	1	0
512.873	1	1
513.043	1	-1
513.213	1	-3
513.383	1	4
513.553	1	12
513.724	1	0
513.894	1	1
514.064	1	14
514.234	1	-3
514.404	1	-2
514.575	1	-4
514.745	1	3
514.915	1	4
515.085	1	7
515.255	1	-4
515.425	1	-4
515.596	1	-3
515.766	1	8
515.936	1	10
516.106	1	5
516.276	1	6
516.447	1	6
516.617	1	2
516.787	1	15
516.957	1	-5
517.127	1	11
517.297	1	20
517.468	1	10
517.638	1	-3
517.808	1	15
517.978	1	14
518.148	1	7
518.319	1	11
518.489	1	11
518.659	1	1
518.829	1	2
518.999	1	16
519.169	1	9
519.340	1	5
519.510	1	6
519.680	1	-4
519.850	1	12
520.020	1	1
520.190	1	1
520.361	1	-2
520.531	1	8
520.701	1	4
520.871	1	7
521.041	1	7
521.211	1	5
521.382	1	5
521.552	1	6
521.722	1	3
521.892	1	6
522.062	1	4
522.232	1	-5
522.402	1	-3
522.573	1	1
522.743	1	10
522.913	1	8
523.083	1	0
523.253	1	21
523.423	1	8
523.593	1	17
523.764	1	13
523.934	1	5
524.104	1	1
524.274	1	10
524.444	1	-3
524.614	1	5
524.784	1	7
524.955	1	4
525.125	1	7
525.295	1	7
525.465	1	9
525.635	1	12
525.805	1	9
525.975	1	1
526.146	1	-2
526.316	1	15
526.486	1	11
526.656	1	9
526.826	1	1
526.996	1	6
527.166	1	6
527.337	1	-6
527.507	1	-1
527.677	1	0
527.847	1	6
528.017	1	12
528.187	1	1
528.357	1	-1
528.527	1	5
528.698	1	0
528.868	1	-1
529.038	1	2
529.208	1	5
529.378	1	6
529.548	1	10
529.718	1	12
529.888	1	4
530.058	1	7
530.229	1	17
530.399	1	11
530.569	1	2
530.739	1	6
530.909	1	2
531.079	1	10
531.249	1	2
531.419	1	10
531.589	1	6
531.760	1	10
531.930	1	11
532.100	1	3
532.270	1	7
532.440	1	8
532.610	1	9
532.780	1	4
532.950	1	-2
533.120	1	3
533.290	1	12
533.461	1	5
533.631	1	5
533.801	1	8
533.971	1	10
534.141	1	3
534.311	1	2
534.481	1	5
534.651	1	4
534.821	1	3
534.991	1	3
535.162	1	2
535.332	1	14
535.502	1	3
535.672	1	13
535.842	1	4
536.012	1	-7
536.182	1	5
536.352	1	-6
536.522	1	3
536.692	1	0
536.862	1	11
537.032	1	3
537.203	1	6
537.373	1	8
537.543	1	-6
537.713	1	12
537.883	1	5
538.053	1	10
538.223	1	5
538.393	1	20
538.563	1	6
538.733	1	6
538.903	1	8
539.073	1	8
539.243	1	-4
539.413	1	-3
539.584	1	4
539.754	1	4
539.924	1	3
540.094	1	7
540.264	1	19
540.434	1	8
540.604	1	-2
540.774	1	1
540.944	1	-2
541.114	1	4
541.284	1	11
541.454	1	3
541.624	1	-3
541.794	1	9
541.964	1	4
542.134	1	6
542.305	1	3
542.475	1	-7
542.645	1	3
542.815	1	3
542.985	1	8
543.155	1	7
543.325	1	3
543.495	1	3
543.665	1	9
543.835	1	-6
544.005	1	18
544.175	1	3
544.345	1	1
544.515	1	-3
544.685	1	10
544.855	1	1
545.025	1	-8
545.195	1	0
545.365	1	3
545.535	1	13
545.705	1	8
545.875	1	2
546.045	1	0
546.216	1	9
546.386	1	2
546.556	1	3
546.726	1	-3
546.896	1	8
547.066	1	18
547.236	1	17
547.406	1	3
547.576	1	3
547.746	1	-7
547.916	1	3
548.086	1	5
548.256	1	7
548.426	1	11
548.596	1	-6
548.766	1	7
548.936	1	-4
549.106	1	13
549.276	1	7
549.446	1	5
549.616	1	16
549.786	1	1
549.956	1	-5
550.126	1	-4
550.296	1	8
550.466	1	5
550.636	1	3
550.806	1	3
550.976	1	15
551.146	1	7
551.316	1	6
551.486	1	11
551.656	1	8
551.826	1	15
551.996	1	3
552.166	1	3
552.336	1	6
552.506	1	8
552.676	1	3
552.846	1	2
553.016	1	1
553.186	1	1
553.356	1	10
553.526	1	-3
553.696	1	8
553.866	1	-6
554.036	1	1
554.206	1	10
554.376	1	10
554.546	1	8
554.716	1	4
554.886	1	2
555.056	1	7
555.226	1	3
555.396	1	9
555.566	1	-2
555.736	1	1
555.906	1	-3
556.076	1	3
556.246	1	-3
556.416	1	2
556.586	1	3
556.756	1	11
556.926	1	7
557.096	1	-4
557.266	1	16
557.436	1	-6
557.606	1	4
557.776	1	-1
557.946	1	18
558.116	1	-3
558.286	1	-2
558.456	1	-8
558.626	1	18
558.796	1	-2
558.966	1	6
559.136	1	15
559.306	1	7
559.476	1	8
559.646	1	-5
559.816	1	1
559.986	1	7
560.155	1	3
560.325	1	7
560.495	1	3
560.665	1	11
560.835	1	-2
561.005	1	7
561.175	1	-7
561.345	1	0
561.515	1	-2
561.685	1	4
561.855	1	2
562.025	1	-3
562.195	1	0
562.365	1	8
562.535	1	5
562.705	1	12
562.875	1	10
563.045	1	4
563.215	1	0
563.385	1	5
563.555	1	3
563.725	1	-4
563.895	1	7
564.064	1	6
564.234	1	3
564.404	1	6
564.574	1	-3
564.744	1	10
564.914	1	-3
565.084	1	5
565.254	1	-4
565.424	1	15
565.594	1	0
565.764	1	3
565.934	1	-1
566.104	1	2
566.274	1	2
566.444	1	8
566.614	1	-7
566.783	1	1
566.953	1	4
567.123	1	5
567.293	1	8
567.463	1	1
567.633	1	5
567.803	1	6
567.973	1	-1
568.143	1	3
568.313	1	4
568.483	1	-1
568.653	1	7
568.823	1	10
568.993	1	7
569.162	1	11
569.332	1	6
569.502	1	-4
569.672	1	-3
569.842	1	2
570.012	1	9
570.182	1	-1
570.352	1	2
570.522	1	-3
570.692	1	8
570.862	1	3
571.031	1	11
571.201	1	8
571.371	1	5
571.541	1	-1
571.711	1	3
571.881	1	-4
572.051	1	-3
572.221	1	5
572.391	1	13
572.561	1	2
572.731	1	1
572.900	1	-4
573.070	1	5
573.240	1	10
573.410	1	7
573.580	1	3
573.750	1	3
573.920	1	13
574.090	1	5
574.260	1	8
574.430	1	14
574.599	1	-1
574.769	1	-7
574.939	1	-3
575.109	1	-8
575.279	1	9
575.449	1	7
575.619	1	12
575.789	1	7
575.959	1	-3
576.128	1	4
576.298	1	7
576.468	1	4
576.638	1	1
576.808	1	8
576.978	1	2
577.148	1	6
577.318	1	2
577.487	1	5
577.657	1	0
577.827	1	7
577.997	1	7
578.167	1	5
578.337	1	2
578.507	1	18
578.677	1	5
578.846	1	10
579.016	1	5
579.186	1	-5
579.356	1	7
579.526	1	2
579.696	1	-4
579.866	1	7
580.036	1	1
580.205	1	-2
580.375	1	-3
580.545	1	-2
580.715	1	13
580.885	1	-5
581.055	1	12
581.225	1	-4
581.394	1	3
581.564	1	-3
581.734	1	2
581.904	1	-4
582.074	1	1
582.244	1	2
582.414	1	0
582.583	1	2
582.753	1	2
582.923	1	10
583.093	1	1
583.263	1	4
583.433	1	15
583.603	1	-6
583.772	1	-1
583.942	1	8
584.112	1	4
584.282	1	-2
584.452	1	-5
584.622	1	11
584.791	1	-1
584.961	1	-9
585.131	1	10
585.301	1	14
585.471	1	2
585.641	1	5
585.811	1	-2
585.980	1	3
586.150	1	-4
586.320	1	0
586.490	1	5
586.660	1	5
586.830	1	-8
586.999	1	-1
587.169	1	7
587.339	1	9
587.509	1	7
587.679	1	0
587.849	1	1
588.018	1	-4
588.188	1	-2
588.358	1	12
588.528	1	0
588.698	1	-3
588.867	1	2
589.037	1	-4
589.207	1	-4
589.377	1	5
589.547	1	10
589.717	1	12
589.886	1	-8
590.056	1	9
590.226	1	-9
590.396	1	14
590.566	1	1
590.735	1	1
590.905	1	8
591.075	1	3
591.245	1	9
591.415	1	0
591.585	1	1
591.754	1	1
591.924	1	5
592.094	1	13
592.264	1	-7
592.434	1	1
592.603	1	0
592.773	1	15
592.943	1	6
593.113	1	8
593.283	1	8
593.452	1	9
593.622	1	-11
593.792	1	5
593.962	1	0
594.132	1	9
594.301	1	10
594.471	1	8
594.641	1	10
594.811	1	-5
594.981	1	3
595.150	1	-3
595.320	1	2
595.490	1	-4
595.660	1	8
595.829	1	7
595.999	1	12
596.169	1	10
596.339	1	-3
596.509	1	5
596.678	1	-6
596.848	1	0
597.018	1	0
597.188	1	9
597.358	1	-8
597.527	1	7
597.697	1	2
597.867	1	8
598.037	1	-5
598.206	1	5
598.376	1	-3
598.546	1	2
598.716	1	1
598.885	1	4
599.055	1	2
599.225	1	6
599.395	1	4
599.565	1	14
599.734	1	11
599.904	1	8
600.074	1	4
600.244	1	11
600.413	1	-4
600.583	1	0
600.753	1	9
600.923	1	4
601.092	1	2
601.262	1	-10
601.432	1	-7
601.602	1	14
601.771	1	4
601.941	1	9
602.111	1	2
602.281	1	1
602.451	1	4
602.620	1	7
602.790	1	19
602.960	1	9
603.130	1	-4
603.299	1	5
603.469	1	0
603.639	1	5
603.809	1	0
603.978	1	6
604.148	1	9
604.318	1	-3
604.487	1	4
604.657	1	13
604.827	1	-6
604.997	1	-1
605.166	1	12
605.336	1	-1
605.506	1	5
605.676	1	-6
605.845	1	7
606.015	1	0
606.185	1	1
606.355	1	5
606.524	1	-3
606.694	1	-4
606.864	1	-6
607.034	1	9
607.203	1	15
607.373	1	8
607.543	1	14
607.712	1	-9
607.882	1	7
608.052	1	-4
608.222	1	-3
608.391	1	11
608.561	1	11
608.731	1	2
608.901	1	4
609.070	1	12
609.240	1	-2
609.410	1	-1
609.579	1	-4
609.749	1	3
609.919	1	2
610.089	1	6
610.258	1	13
610.428	1	7
610.598	1	8
610.767	1	-3
610.937	1	8
611.107	1	0
611.277	1	1
611.446	1	-6
611.616	1	-6
611.786	1	6
611.955	1	10
612.125	1	-4
612.295	1	0
612.465	1	-4
612.634	1	-2
612.804	1	6
612.974	1	2
613.143	1	-7
613.313	1	-11
613.483	1	-8
613.652	1	17
613.822	1	-1
613.992	1	-1
614.162	1	3
614.331	1	1
614.501	1	-7
614.671	1	9
614.840	1	-6
615.010	1	8
615.180	1	16
615.349	1	8
615.519	1	-7
615.689	1	12
615.858	1	6
616.028	1	-5
616.198	1	-5
616.368	1	-1
616.537	1	-3
616.707	1	12
616.877	1	3
617.046	1	-7
617.216	1	2
617.386	1	1
617.555	1	-1
617.725	1	6
617.895	1	5
618.064	1	3
618.234	1	1
618.404	1	5
618.573	1	-10
618.743	1	9
618.913	1	-1
619.082	1	15
619.252	1	-3
619.422	1	-5
619.591	1	-1
619.761	1	-8
619.931	1	-3
620.100	1	3
620.270	1	-1
620.440	1	7
620.609	1	3
620.779	1	-5
620.949	1	4
621.118	1	-6
621.288	1	11
621.458	1	1
621.627	1	8
621.797	1	3
621.967	1	1
622.136	1	0
622.306	1	1
622.476	1	-6
622.645	1	1
622.815	1	2
622.985	1	4
623.154	1	4
623.324	1	-6
623.494	1	1
623.663	1	7
623.833	1	-2
624.002	1	-2
624.172	1	-3
624.342	1	15
624.511	1	5
624.681	1	10
624.851	1	-8
625.020	1	0
625.190	1	0
625.360	1	9
625.529	1	1
625.699	1	-2
625.869	1	13
626.038	1	13
626.208	1	4
626.377	1	3
626.547	1	-2
626.717	1	3
626.886	1	1
627.056	1	2
627.226	1	12
627.395	1	1
627.565	1	8
627.735	1	-15
627.904	1	1
628.074	1	2
628.243	1	4
628.413	1	-4
628.583	1	-7
628.752	1	-13
628.922	1	1
629.091	1	-6
629.261	1	4
629.431	1	10
629.600	1	3
629.770	1	6
629.940	1	-4
630.109	1	-2
630.279	1	4
630.448	1	10
630.618	1	-5
630.788	1	1
630.957	1	1
631.127	1	3
631.297	1	-3
631.466	1	9
631.636	1	12
631.805	1	6
631.975	1	-4
632.145	1	3
632.314	1	-2
632.484	1	-6
632.653	1	19
632.823	1	-1
632.993	1	1
633.162	1	8
633.332	1	7
633.501	1	0
633.671	1	7
633.841	1	-7
634.010	1	7
634.180	1	-4
634.349	1	-11
634.519	1	1
634.689	1	7
634.858	1	3
635.028	1	8
635.197	1	5
635.367	1	-5
635.537	1	-1
635.706	1	0
635.876	1	3
636.045	1	8
636.215	1	-2
636.384	1	-7
636.554	1	-2
636.724	1	9
636.893	1	7
637.063	1	12
637.232	1	7
637.402	1	11
637.572	1	-4
637.741	1	-3
637.911	1	0
638.080	1	5
638.250	1	8
638.419	1	0
638.589	1	17
638.759	1	4
638.928	1	-5
639.098	1	-7
639.267	1	-1
639.437	1	-8
639.606	1	-3
639.776	1	-1
639.946	1	-1
640.115	1	8
640.285	1	3
640.454	1	-1
640.624	1	-6
640.793	1	-1
640.963	1	-7
641.132	1	2
641.302	1	-4
641.472	1	-8
641.641	1	6
641.811	1	5
641.980	1	-5
642.150	1	2
642.319	1	7
642.489	1	-6
642.659	1	5
642.828	1	7
642.998	1	6
643.167	1	-2
643.337	1	-2
643.506	1	10
643.676	1	7
643.845	1	7
644.015	1	5
644.184	1	16
644.354	1	5
644.524	1	0
644.693	1	-3
644.863	1	-5
645.032	1	-2
645.202	1	7
645.371	1	-5
645.541	1	7
645.710	1	5
645.880	1	3
646.049	1	5
646.219	1	-5
646.388	1	6
646.558	1	7
646.728	1	3
646.897	1	3
647.067	1	0
647.236	1	-1
647.406	1	11
647.575	1	-4
647.745	1	7
647.914	1	12
648.084	1	4
648.253	1	-1
648.423	1	5
648.592	1	-5
648.762	1	11
648.931	1	9
649.101	1	11
649.270	1	-6
649.440	1	-5
649.610	1	5
649.779	1	-3
649.949	1	-12
650.118	1	-1
650.288	1	6
650.457	1	-5
650.627	1	1
650.796	1	3
650.966	1	5
651.135	1	-2
651.305	1	-4
651.474	1	9
651.644	1	3
651.813	1	5
651.983	1	4
652.152	1	1
652.322	1	6
652.491	1	3
652.661	1	3
652.830	1	-4
653.000	1	-9
653.169	1	-4
653.339	1	-8
653.508	1	14
653.678	1	3
653.847	1	10
654.017	1	2
654.186	1	17
654.356	1	-9
654.525	1	6
654.695	1	9
654.864	1	2
655.034	1	-1
655.203	1	8
655.373	1	8
655.542	1	-1
655.712	1	-4
655.881	1	-9
656.051	1	10
656.220	1	7
656.390	1	2
656.559	1	-2
656.729	1	7
656.898	1	11
657.068	1	7
657.237	1	4
657.406	1	0
657.576	1	9
657.745	1	7
657.915	1	-4
658.084	1	-6
658.254	1	11
658.423	1	-2
658.593	1	6
658.762	1	1
658.932	1	0
659.101	1	-2
659.271	1	1
659.440	1	1
659.610	1	9
659.779	1	4
659.949	1	1
660.118	1	8
660.288	1	9
660.457	1	4
660.626	1	-3
660.796	1	-2
660.965	1	12
661.135	1	-7
661.304	1	0
661.474	1	11
661.643	1	14
661.813	1	4
661.982	1	6
662.152	1	-3
662.321	1	3
662.491	1	-6
662.660	1	-2
662.829	1	5
662.999	1	2
663.168	1	4
663.338	1	3
663.507	1	10
663.677	1	2
663.846	1	11
664.016	1	7
664.185	1	9
664.354	1	-5
664.524	1	10
664.693	1	-10
664.863	1	6
665.032	1	-7
665.202	1	14
665.371	1	-4
665.541	1	1
665.710	1	12
665.879	1	16
666.049	1	3
666.218	1	9
666.388	1	5
666.557	1	0
666.727	1	2
666.896	1	5
667.065	1	-1
667.235	1	-3
667.404	1	4
667.574	1	-9
667.743	1	-4
667.913	1	3
668.082	1	8
668.251	1	8
668.421	1	5
668.590	1	-5
668.760	1	7
668.929	1	3
669.099	1	3
669.268	1	-5
669.437	1	11
669.607	1	10
669.776	1	-2
669.946	1	1
670.115	1	-1
670.285	1	15
670.454	1	-1
670.623	1	5
670.793	1	7
670.962	1	0
671.132	1	10
671.301	1	0
671.470	1	9
671.640	1	-5
671.809	1	-2
671.979	1	1
672.148	1	-1
672.317	1	10
672.487	1	1
672.656	1	1
672.826	1	-3
672.995	1	-9
673.164	1	0
673.334	1	4
673.503	1	4
673.673	1	0
673.842	1	3
674.011	1	2
674.181	1	3
674.350	1	15
674.520	1	5
674.689	1	5
674.858	1	2
675.028	1	1
675.197	1	4
675.367	1	2
675.536	1	1
675.705	1	2
675.875	1	-2
676.044	1	9
676.214	1	-2
676.383	1	4
676.552	1	2
676.722	1	9
676.891	1	16
677.060	1	0
677.230	1	5
677.399	1	-1
677.569	1	-4
677.738	1	-2
677.907	1	3
678.077	1	14
678.246	1	5
678.416	1	-5
678.585	1	10
678.754	1	-4
678.924	1	19
679.093	1	7
679.262	1	-4
679.432	1	3
679.601	1	7
679.771	1	5
679.940	1	3
680.109	1	5
680.279	1	6
680.448	1	5
680.617	1	-2
680.787	1	-8
680.956	1	-12
681.125	1	12
681.295	1	2
681.464	1	4
681.634	1	-3
681.803	1	13
681.972	1	-5
682.142	1	-3
682.311	1	-6
682.480	1	0
682.650	1	3
682.819	1	9
682.988	1	0
683.158	1	0
683.327	1	1
683.496	1	-3
683.666	1	13
683.835	1	1
684.004	1	5
684.174	1	9
684.343	1	5
684.512	1	-9
684.682	1	2
684.851	1	0
685.021	1	-15
685.190	1	2
685.359	1	0
685.529	1	16
685.698	1	0
685.867	1	1
686.037	1	-5
686.206	1	1
686.375	1	9
686.545	1	12
686.714	1	-1
686.883	1	1
687.053	1	-5
687.222	1	-2
687.391	1	4
687.561	1	1
687.730	1	13
687.899	1	-9
688.069	1	10
688.238	1	2
688.407	1	-3
688.577	1	10
688.746	1	-1
