340.368	1	3
340.539	1	-5
340.710	1	-11
340.881	1	3
341.052	1	2
341.223	1	-10
341.394	1	7
341.565	1	6
341.737	1	-3
341.908	1	1
342.079	1	1
342.250	1	-4
342.421	1	5
342.592	1	0
342.763	1	-3
342.934	1	-2
343.105	1	13
343.276	1	4
343.447	1	-12
343.618	1	12
343.789	1	1
343.960	1	-2
344.131	1	-1
344.302	1	-6
344.473	1	3
344.644	1	-1
344.815	1	7
344.986	1	2
345.157	1	-3
345.328	1	1
345.499	1	1
345.670	1	7
345.841	1	1
346.012	1	4
346.183	1	6
346.354	1	-3
346.526	1	10
346.697	1	7
346.868	1	3
347.039	1	2
347.210	1	-9
347.381	1	-8
347.552	1	13
347.723	1	7
347.894	1	3
348.065	1	-12
348.236	1	3
348.407	1	-2
348.578	1	2
348.749	1	4
348.920	1	-3
349.091	1	-2
349.262	1	13
349.433	1	1
349.604	1	11
349.775	1	8
349.946	1	2
350.117	1	-2
350.288	1	-2
350.459	1	0
350.630	1	13
350.801	1	1
350.972	1	-2
351.143	1	4
351.314	1	5
351.485	1	2
351.656	1	-7
351.827	1	-7
351.998	1	1
352.169	1	6
352.340	1	8
352.511	1	3
352.682	1	-4
352.853	1	3
353.024	1	1
353.195	1	4
353.366	1	8
353.537	1	10
353.708	1	2
353.879	1	2
354.050	1	3
354.221	1	1
354.392	1	0
354.563	1	0
354.734	1	2
354.905	1	13
355.076	1	0
355.247	1	-2
355.418	1	-7
355.589	1	0
355.760	1	3
355.931	1	4
356.102	1	7
356.273	1	-5
356.444	1	0
356.615	1	-3
356.785	1	1
356.956	1	-1
357.127	1	3
357.298	1	8
357.469	1	8
357.640	1	-2
357.811	1	5
357.982	1	4
358.153	1	3
358.324	1	14
358.495	1	0
358.666	1	9
358.837	1	7
359.008	1	9
359.179	1	-4
359.350	1	7
359.521	1	9
359.692	1	13
359.863	1	9
360.034	1	0
360.205	1	21
360.376	1	-1
360.547	1	11
360.718	1	2
360.889	1	12
361.060	1	5
361.231	1	7
361.401	1	7
361.572	1	7
361.743	1	6
361.914	1	0
362.085	1	4
362.256	1	4
362.427	1	3
362.598	1	7
362.769	1	3
362.940	1	20
363.111	1	16
363.282	1	15
363.453	1	8
363.624	1	2
363.795	1	9
363.966	1	1
364.137	1	8
364.308	1	17
364.478	1	6
364.649	1	3
364.820	1	3
364.991	1	22
365.162	1	14
365.333	1	6
365.504	1	12
365.675	1	22
365.846	1	1
366.017	1	6
366.188	1	11
366.359	1	13
366.530	1	16
366.701	1	18
366.871	1	15
367.042	1	4
367.213	1	7
367.384	1	24
367.555	1	12
367.726	1	26
367.897	1	23
368.068	1	14
368.239	1	21
368.410	1	25
368.581	1	20
368.752	1	15
368.923	1	22
369.093	1	13
369.264	1	15
369.435	1	10
369.606	1	17
369.777	1	12
369.948	1	19
370.119	1	13
370.290	1	11
370.461	1	20
370.632	1	12
370.803	1	3
370.973	1	21
371.144	1	16
371.315	1	21
371.486	1	7
371.657	1	9
371.828	1	3
371.999	1	13
372.170	1	13
372.341	1	18
372.512	1	11
372.682	1	11
372.853	1	15
373.024	1	8
373.195	1	6
373.366	1	13
373.537	1	20
373.708	1	10
373.879	1	19
374.050	1	20
374.220	1	18
374.391	1	8
374.562	1	-4
374.733	1	6
374.904	1	10
375.075	1	6
375.246	1	7
375.417	1	11
375.588	1	12
375.758	1	15
375.929	1	9
376.100	1	4
376.271	1	11
376.442	1	12
376.613	1	13
376.784	1	-4
376.955	1	12
377.125	1	8
377.296	1	6
377.467	1	7
377.638	1	11
377.809	1	11
377.980	1	-1
378.151	1	-1
378.321	1	12
378.492	1	2
378.663	1	12
378.834	1	7
379.005	1	0
379.176	1	0
379.347	1	9
379.518	1	-2
379.688	1	1
379.859	1	4
380.030	1	10
380.201	1	7
380.372	1	8
380.543	1	7
380.714	1	14
380.884	1	-1
381.055	1	8
381.226	1	8
381.397	1	7
381.568	1	0
381.739	1	1
381.910	1	7
382.080	1	3
382.251	1	11
382.422	1	-7
382.593	1	6
382.764	1	11
382.935	1	-1
383.105	1	13
383.276	1	22
383.447	1	11
383.618	1	2
383.789	1	14
383.960	1	5
384.130	1	-1
384.301	1	1
384.472	1	-4
384.643	1	3
384.814	1	12
384.985	1	7
385.156	1	1
385.326	1	0
385.497	1	11
385.668	1	20
385.839	1	-1
386.010	1	10
386.180	1	14
386.351	1	5
386.522	1	9
386.693	1	-5
386.864	1	8
387.035	1	-2
387.205	1	-1
387.376	1	-4
387.547	1	7
387.718	1	-2
387.889	1	5
388.060	1	10
388.230	1	2
388.401	1	-2
388.572	1	1
388.743	1	8
388.914	1	-1
389.084	1	-1
389.255	1	8
389.426	1	7
389.597	1	6
389.768	1	2
389.939	1	-2
390.109	1	3
390.280	1	8
390.451	1	1
390.622	1	7
390.793	1	5
390.963	1	-6
391.134	1	3
391.305	1	2
391.476	1	11
391.647	1	-4
391.817	1	5
391.988	1	8
392.159	1	0
392.330	1	2
392.501	1	-3
392.671	1	-3
392.842	1	-5
393.013	1	1
393.184	1	6
393.355	1	3
393.525	1	13
393.696	1	4
393.867	1	10
394.038	1	-6
394.208	1	11
394.379	1	-3
394.550	1	7
394.721	1	-5
394.892	1	0
395.062	1	0
395.233	1	8
395.404	1	5
395.575	1	4
395.746	1	12
395.916	1	-12
396.087	1	3
396.258	1	-4
396.429	1	-2
396.599	1	7
396.770	1	6
396.941	1	1
397.112	1	5
397.283	1	-3
397.453	1	10
397.624	1	3
397.795	1	-7
397.966	1	4
398.136	1	1
398.307	1	3
398.478	1	1
398.649	1	6
398.819	1	1
398.990	1	-8
399.161	1	-7
399.332	1	-2
399.503	1	6
399.673	1	9
399.844	1	-3
400.015	1	5
400.186	1	-11
400.356	1	-9
400.527	1	10
400.698	1	6
400.869	1	1
401.039	1	8
401.210	1	-4
401.381	1	12
401.552	1	5
401.722	1	0
401.893	1	11
402.064	1	8
402.235	1	12
402.405	1	-7
402.576	1	4
402.747	1	5
402.918	1	2
403.088	1	3
403.259	1	1
403.430	1	2
403.601	1	9
403.771	1	-2
403.942	1	-1
404.113	1	-4
404.284	1	-9
404.454	1	1
404.625	1	3
404.796	1	4
404.967	1	4
405.137	1	15
405.308	1	14
405.479	1	4
405.649	1	1
405.820	1	3
405.991	1	2
406.162	1	9
406.332	1	-8
406.503	1	10
406.674	1	13
406.845	1	0
407.015	1	8
407.186	1	-5
407.357	1	5
407.527	1	4
407.698	1	4
407.869	1	-6
408.040	1	10
408.210	1	10
408.381	1	8
408.552	1	-3
408.722	1	0
408.893	1	6
409.064	1	-3
409.235	1	5
409.405	1	5
409.576	1	3
409.747	1	-8
409.917	1	3
410.088	1	4
410.259	1	1
410.430	1	1
410.600	1	9
410.771	1	6
410.942	1	6
411.112	1	3
411.283	1	-5
411.454	1	0
411.625	1	-6
411.795	1	10
411.966	1	10
412.137	1	-7
412.307	1	6
412.478	1	-5
412.649	1	6
412.819	1	0
412.990	1	3
413.161	1	-2
413.332	1	-4
413.502	1	0
413.673	1	1
413.844	1	14
414.014	1	6
414.185	1	-3
414.356	1	1
414.526	1	-4
414.697	1	6
414.868	1	-4
415.038	1	-12
415.209	1	-7
415.380	1	2
415.550	1	-6
415.721	1	-8
415.892	1	-3
416.063	1	5
416.233	1	2
416.404	1	-2
416.575	1	-1
416.745	1	7
416.916	1	-5
417.087	1	3
417.257	1	-1
417.428	1	-1
417.599	1	3
417.769	1	9
417.940	1	0
418.111	1	7
418.281	1	-14
418.452	1	3
418.623	1	0
418.793	1	11
418.964	1	-1
419.135	1	-4
419.305	1	-2
419.476	1	-2
419.647	1	2
419.817	1	-6
419.988	1	6
420.159	1	11
420.329	1	5
420.500	1	1
420.671	1	-1
420.841	1	-4
421.012	1	-2
421.183	1	-2
421.353	1	9
421.524	1	-3
421.695	1	-2
421.865	1	-3
422.036	1	8
422.206	1	-3
422.377	1	7
422.548	1	0
422.718	1	7
422.889	1	-3
423.060	1	-7
423.230	1	9
423.401	1	-5
423.572	1	-7
423.742	1	4
423.913	1	1
424.084	1	14
424.254	1	-3
424.425	1	-1
424.595	1	4
424.766	1	-9
424.937	1	4
425.107	1	-1
425.278	1	-1
425.449	1	3
425.619	1	-7
425.790	1	8
425.961	1	-7
426.131	1	4
426.302	1	-3
426.472	1	4
426.643	1	5
426.814	1	-5
426.984	1	-4
427.155	1	7
427.326	1	4
427.496	1	1
427.667	1	9
427.837	1	-3
428.008	1	15
428.179	1	2
428.349	1	-13
428.520	1	-7
428.691	1	-5
428.861	1	0
429.032	1	-3
429.202	1	-8
429.373	1	5
429.544	1	11
429.714	1	-2
429.885	1	3
430.055	1	0
430.226	1	6
430.397	1	6
430.567	1	4
430.738	1	1
430.909	1	0
431.079	1	-4
431.250	1	14
431.420	1	-4
431.591	1	2
431.762	1	-3
431.932	1	3
432.103	1	10
432.273	1	-2
432.444	1	1
432.615	1	-7
432.785	1	-2
432.956	1	3
433.126	1	0
433.297	1	-2
433.468	1	-6
433.638	1	9
433.809	1	2
433.979	1	5
434.150	1	5
434.320	1	0
434.491	1	-1
434.662	1	-17
434.832	1	13
435.003	1	12
435.173	1	3
435.344	1	-4
435.515	1	-3
435.685	1	-3
435.856	1	12
436.026	1	-3
436.197	1	-5
436.368	1	11
436.538	1	4
436.709	1	3
436.879	1	4
437.050	1	-6
437.220	1	-2
437.391	1	-6
437.562	1	4
437.732	1	5
437.903	1	13
438.073	1	3
438.244	1	5
438.414	1	-6
438.585	1	-4
438.756	1	-1
438.926	1	-3
439.097	1	6
439.267	1	8
439.438	1	2
439.608	1	-3
439.779	1	2
439.949	1	8
440.120	1	0
440.291	1	6
440.461	1	16
440.632	1	4
440.802	1	9
440.973	1	5
441.143	1	-3
441.314	1	-7
441.485	1	-4
441.655	1	-4
441.826	1	5
441.996	1	-3
442.167	1	11
442.337	1	0
442.508	1	0
442.678	1	-3
442.849	1	-5
443.019	1	-6
443.190	1	4
443.361	1	10
443.531	1	1
443.702	1	4
443.872	1	-5
444.043	1	2
444.213	1	-1
444.384	1	5
444.554	1	-11
444.725	1	-1
444.895	1	-13
445.066	1	14
445.237	1	-9
445.407	1	12
445.578	1	4
445.748	1	-5
445.919	1	-1
446.089	1	14
446.260	1	6
446.430	1	-9
446.601	1	-4
446.771	1	-11
446.942	1	10
447.112	1	7
447.283	1	12
447.453	1	8
447.624	1	1
447.794	1	5
447.965	1	0
448.135	1	1
448.306	1	4
448.477	1	9
448.647	1	-3
448.818	1	11
448.988	1	11
449.159	1	7
449.329	1	5
449.500	1	10
449.670	1	-9
449.841	1	-7
450.011	1	3
450.182	1	-2
450.352	1	5
450.523	1	1
450.693	1	-6
450.864	1	4
451.034	1	-3
451.205	1	-9
451.375	1	4
451.546	1	-9
451.716	1	5
451.887	1	-7
452.057	1	0
452.228	1	-1
452.398	1	-9
452.569	1	10
452.739	1	3
452.910	1	7
453.080	1	7
453.251	1	6
453.421	1	2
453.592	1	-9
453.762	1	0
453.933	1	-1
454.103	1	-1
454.274	1	1
454.444	1	-2
454.615	1	-6
454.785	1	-5
454.956	1	4
455.126	1	2
455.297	1	-12
455.467	1	-11
455.638	1	-3
455.808	1	10
455.979	1	18
456.149	1	1
456.320	1	-4
456.490	1	0
456.661	1	4
456.831	1	-7
457.001	1	12
457.172	1	-6
457.342	1	2
457.513	1	12
457.683	1	14
457.854	1	12
458.024	1	5
458.195	1	-5
458.365	1	3
458.536	1	-4
458.706	1	7
458.877	1	1
459.047	1	2
459.218	1	8
459.388	1	5
459.559	1	5
459.729	1	3
459.899	1	8
460.070	1	3
460.240	1	-1
460.411	1	-1
460.581	1	5
460.752	1	-5
460.922	1	-3
461.093	1	7
461.263	1	-5
461.434	1	-3
461.604	1	7
461.775	1	8
461.945	1	6
462.115	1	4
462.286	1	-5
462.456	1	-17
462.627	1	0
462.797	1	-9
462.968	1	8
463.138	1	4
463.309	1	8
463.479	1	-5
463.649	1	5
463.820	1	3
463.990	1	-5
464.161	1	4
464.331	1	12
464.502	1	7
464.672	1	-2
464.843	1	1
465.013	1	8
465.183	1	3
465.354	1	-6
465.524	1	9
465.695	1	5
465.865	1	1
466.036	1	-5
466.206	1	4
466.376	1	7
466.547	1	3
466.717	1	-1
466.888	1	1
467.058	1	3
467.229	1	4
467.399	1	20
467.569	1	-2
467.740	1	3
467.910	1	-9
468.081	1	3
468.251	1	-5
468.422	1	7
468.592	1	2
468.762	1	12
468.933	1	-4
469.103	1	4
469.274	1	3
469.444	1	-3
469.614	1	2
469.785	1	-13
469.955	1	3
470.126	1	1
470.296	1	4
470.467	1	6
470.637	1	1
470.807	1	-1
470.978	1	3
471.148	1	-10
471.319	1	5
471.489	1	0
471.659	1	3
471.830	1	-4
472.000	1	3
472.171	1	5
472.341	1	1
472.511	1	-1
472.682	1	-2
472.852	1	-5
473.023	1	3
473.193	1	10
473.363	1	-10
473.534	1	6
473.704	1	2
473.875	1	3
474.045	1	4
474.215	1	9
474.386	1	-3
474.556	1	3
474.727	1	-3
474.897	1	1
475.067	1	7
475.238	1	-8
475.408	1	-8
475.578	1	2
475.749	1	11
475.919	1	5
476.090	1	-4
476.260	1	12
476.430	1	-4
476.601	1	8
476.771	1	11
476.942	1	-3
477.112	1	-11
477.282	1	4
477.453	1	3
477.623	1	11
477.793	1	4
477.964	1	-10
478.134	1	6
478.305	1	-9
478.475	1	6
478.645	1	2
478.816	1	-2
478.986	1	-1
479.156	1	9
479.327	1	-8
479.497	1	-10
479.667	1	4
479.838	1	7
480.008	1	4
480.179	1	0
480.349	1	11
480.519	1	-3
480.690	1	5
480.860	1	0
481.030	1	6
481.201	1	-3
481.371	1	3
481.541	1	8
481.712	1	3
481.882	1	4
482.053	1	-7
482.223	1	2
482.393	1	-2
482.564	1	1
482.734	1	8
482.904	1	2
483.075	1	2
483.245	1	0
483.415	1	6
483.586	1	-2
483.756	1	4
483.926	1	-1
484.097	1	-10
484.267	1	7
484.437	1	5
484.608	1	0
484.778	1	-6
484.948	1	-3
485.119	1	7
485.289	1	5
485.459	1	3
485.630	1	6
485.800	1	-1
485.970	1	7
486.141	1	11
486.311	1	0
486.481	1	7
486.652	1	14
486.822	1	4
486.992	1	0
487.163	1	8
487.333	1	-18
487.503	1	5
487.674	1	2
487.844	1	10
488.014	1	9
488.185	1	1
488.355	1	-9
488.525	1	6
488.696	1	2
488.866	1	10
489.036	1	7
489.207	1	7
489.377	1	-4
489.547	1	16
489.718	1	13
489.888	1	3
490.058	1	2
490.228	1	-5
490.399	1	-3
490.569	1	-1
490.739	1	5
490.910	1	0
491.080	1	-8
491.250	1	9
491.421	1	-10
491.591	1	-7
491.761	1	-2
491.932	1	8
492.102	1	-4
492.272	1	6
492.442	1	1
492.613	1	11
492.783	1	0
492.953	1	1
493.124	1	-4
493.294	1	4
493.464	1	3
493.635	1	0
493.805	1	2
493.975	1	-1
494.145	1	11
494.316	1	3
494.486	1	16
494.656	1	4
494.827	1	-4
494.997	1	-2
495.167	1	2
495.337	1	8
495.508	1	11
495.678	1	0
495.848	1	-2
496.019	1	-4
496.189	1	-7
496.359	1	6
496.529	1	0
496.700	1	12
496.870	1	1
497.040	1	1
497.211	1	2
497.381	1	7
497.551	1	9
497.721	1	0
497.892	1	8
498.062	1	2
498.232	1	3
498.403	1	5
498.573	1	-3
498.743	1	5
498.913	1	-2
499.084	1	1
499.254	1	4
499.424	1	9
499.594	1	1
499.765	1	-8
499.935	1	2
500.105	1	-3
500.275	1	12
500.446	1	-1
500.616	1	-10
500.786	1	-10
500.956	1	5
501.127	1	0
501.297	1	1
501.467	1	-4
501.638	1	-2
501.808	1	3
501.978	1	-7
502.148	1	9
502.319	1	4
502.489	1	-3
502.659	1	10
502.829	1	8
503.000	1	10
503.170	1	3
503.340	1	11
503.510	1	8
503.681	1	8
503.851	1	2
504.021	1	11
504.191	1	-6
504.362	1	-7
504.532	1	-11
504.702	1	2
504.872	1	6
505.042	1	6
505.213	1	2
505.383	1	4
505.553	1	2
505.723	1	-1
505.894	1	3
506.064	1	-1
506.234	1	-7
506.404	1	9
506.575	1	7
506.745	1	10
506.915	1	3
507.085	1	-4
507.256	1	-4
507.426	1	1
507.596	1	6
507.766	1	-1
507.936	1	15
508.107	1	-2
508.277	1	-1
508.447	1	5
508.617	1	6
508.788	1	-4
508.958	1	0
509.128	1	4
509.298	1	9
509.468	1	-1
509.639	1	10
509.809	1	4
509.979	1	2
510.149	1	3
510.319	1	-4
510.490	1	11
510.660	1	-11
510.830	1	10
511.000	1	5
511.171	1	8
511.341	1	9
511.511	1	3
511.681	1	1
511.851	1	2
512.022	1	8
512.192	1	6
512.362	1	-3
512.532	1	0
512.702	1	-12
512.873	1	1
513.043	1	-2
513.213	1	4
513.383	1	9
513.553	1	1
513.724	1	-2
513.894	1	4
514.064	1	4
514.234	1	-8
514.404	1	-1
514.575	1	-4
514.745	1	3
514.915	1	-6
515.085	1	9
515.255	1	1
515.425	1	5
515.596	1	-5
515.766	1	6
515.936	1	5
516.106	1	7
516.276	1	4
516.447	1	3
516.617	1	-1
516.787	1	5
516.957	1	-7
517.127	1	4
517.297	1	11
517.468	1	-1
517.638	1	-3
517.808	1	8
517.978	1	7
518.148	1	6
518.319	1	3
518.489	1	11
518.659	1	6
518.829	1	7
518.999	1	9
519.169	1	-5
519.340	1	9
519.510	1	17
519.680	1	-1
519.850	1	4
520.020	1	-4
520.190	1	-2
520.361	1	-6
520.531	1	7
520.701	1	5
520.871	1	1
521.041	1	11
521.211	1	4
521.382	1	-1
521.552	1	1
521.722	1	3
521.892	1	6
522.062	1	-1
522.232	1	-5
522.402	1	-3
522.573	1	5
522.743	1	12
522.913	1	4
523.083	1	4
523.253	1	18
523.423	1	-8
523.593	1	7
523.764	1	-3
523.934	1	2
524.104	1	-2
524.274	1	6
524.444	1	-4
524.614	1	7
524.784	1	10
524.955	1	5
525.125	1	5
525.295	1	-4
525.465	1	2
525.635	1	10
525.805	1	4
525.975	1	-6
526.146	1	3
526.316	1	6
526.486	1	5
526.656	1	14
526.826	1	-1
526.996	1	2
527.166	1	6
527.337	1	4
527.507	1	-2
527.677	1	-4
527.847	1	2
528.017	1	6
528.187	1	0
528.357	1	-5
528.527	1	2
528.698	1	0
528.868	1	7
529.038	1	-8
529.208	1	5
529.378	1	3
529.548	1	12
529.718	1	6
529.888	1	3
530.058	1	-1
530.229	1	16
530.399	1	4
530.569	1	5
530.739	1	9
530.909	1	-4
531.079	1	9
531.249	1	-1
531.419	1	12
531.589	1	7
531.760	1	5
531.930	1	7
532.100	1	-3
532.270	1	5
532.440	1	7
532.610	1	8
532.780	1	-6
532.950	1	-14
533.120	1	0
533.290	1	7
533.461	1	5
533.631	1	6
533.801	1	9
533.971	1	2
534.141	1	6
534.311	1	-3
534.481	1	6
534.651	1	14
534.821	1	5
534.991	1	-2
535.162	1	7
535.332	1	5
535.502	1	5
535.672	1	4
535.842	1	3
536.012	1	-9
536.182	1	2
536.352	1	-8
536.522	1	11
536.692	1	10
536.862	1	6
537.032	1	-7
537.203	1	-4
537.373	1	5
537.543	1	-7
537.713	1	16
537.883	1	1
538.053	1	18
538.223	1	10
538.393	1	13
538.563	1	2
538.733	1	4
538.903	1	-2
539.073	1	3
539.243	1	1
539.413	1	2
539.584	1	2
539.754	1	8
539.924	1	-2
540.094	1	-4
540.264	1	5
540.434	1	3
540.604	1	7
540.774	1	8
540.944	1	10
541.114	1	0
541.284	1	7
541.454	1	-1
541.624	1	-5
541.794	1	-3
541.964	1	2
542.134	1	4
542.305	1	3
542.475	1	9
542.645	1	-3
542.815	1	11
542.985	1	11
543.155	1	-2
543.325	1	5
543.495	1	-2
543.665	1	1
543.835	1	-6
544.005	1	11
544.175	1	-5
544.345	1	-1
544.515	1	7
544.685	1	8
544.855	1	2
545.025	1	-5
545.195	1	-2
545.365	1	9
545.535	1	2
545.705	1	7
545.875	1	5
546.045	1	-3
546.216	1	9
546.386	1	3
546.556	1	-2
546.726	1	-4
546.896	1	2
547.066	1	14
547.236	1	6
547.406	1	1
547.576	1	-5
547.746	1	-1
547.916	1	-6
548.086	1	4
548.256	1	7
548.426	1	0
548.596	1	-6
548.766	1	-3
548.936	1	2
549.106	1	12
549.276	1	4
549.446	1	-1
549.616	1	10
549.786	1	1
549.956	1	8
550.126	1	5
550.296	1	-1
550.466	1	7
550.636	1	6
550.806	1	8
550.976	1	3
551.146	1	6
551.316	1	4
551.486	1	2
551.656	1	0
551.826	1	11
551.996	1	7
552.166	1	-3
552.336	1	6
552.506	1	2
552.676	1	-1
552.846	1	-5
553.016	1	2
553.186	1	8
553.356	1	10
553.526	1	-6
553.696	1	2
553.866	1	-2
554.036	1	5
554.206	1	4
554.376	1	2
554.546	1	-3
554.716	1	-1
554.886	1	3
555.056	1	2
555.226	1	-7
555.396	1	6
555.566	1	8
555.736	1	-3
555.906	1	-4
556.076	1	-5
556.246	1	6
556.416	1	-5
556.586	1	7
556.756	1	-5
556.926	1	6
557.096	1	-5
557.266	1	-2
557.436	1	1
557.606	1	9
557.776	1	5
557.946	1	12
558.116	1	0
558.286	1	-1
558.456	1	-3
558.626	1	4
558.796	1	0
558.966	1	5
559.136	1	11
559.306	1	13
559.476	1	2
559.646	1	2
559.816	1	-2
559.986	1	6
560.155	1	8
560.325	1	1
560.495	1	-2
560.665	1	9
560.835	1	10
561.005	1	8
561.175	1	-7
561.345	1	-7
561.515	1	2
561.685	1	6
561.855	1	3
562.025	1	-2
562.195	1	7
562.365	1	6
562.535	1	-4
562.705	1	2
562.875	1	3
563.045	1	5
563.215	1	-3
563.385	1	7
563.555	1	4
563.725	1	-3
563.895	1	5
564.064	1	9
564.234	1	0
564.404	1	6
564.574	1	-2
564.744	1	8
564.914	1	5
565.084	1	3
565.254	1	-1
565.424	1	-2
565.594	1	-1
565.764	1	-2
565.934	1	7
566.104	1	-1
566.274	1	3
566.444	1	2
566.614	1	-5
566.783	1	7
566.953	1	2
567.123	1	4
567.293	1	-1
567.463	1	-5
567.633	1	3
567.803	1	11
567.973	1	-3
568.143	1	7
568.313	1	-3
568.483	1	1
568.653	1	6
568.823	1	-2
568.993	1	4
569.162	1	3
569.332	1	10
569.502	1	4
569.672	1	6
569.842	1	-1
570.012	1	5
570.182	1	-7
570.352	1	4
570.522	1	3
570.692	1	14
570.862	1	-2
571.031	1	8
571.201	1	11
571.371	1	18
571.541	1	-4
571.711	1	6
571.881	1	4
572.051	1	-3
572.221	1	3
572.391	1	7
572.561	1	6
572.731	1	-8
572.900	1	-4
573.070	1	-3
573.240	1	3
573.410	1	11
573.580	1	-4
573.750	1	4
573.920	1	11
574.090	1	-1
574.260	1	-3
574.430	1	11
574.599	1	1
574.769	1	-3
574.939	1	-5
575.109	1	3
575.279	1	-3
575.449	1	7
575.619	1	2
575.789	1	5
575.959	1	-2
576.128	1	0
576.298	1	1
576.468	1	1
576.638	1	1
576.808	1	5
576.978	1	1
577.148	1	-2
577.318	1	7
577.487	1	10
577.657	1	0
577.827	1	-7
577.997	1	-7
578.167	1	-7
578.337	1	5
578.507	1	1
578.677	1	-3
578.846	1	-1
579.016	1	1
579.186	1	-7
579.356	1	5
579.526	1	1
579.696	1	-3
579.866	1	0
580.036	1	-6
580.205	1	-4
580.375	1	5
580.545	1	-11
580.715	1	2
580.885	1	-8
581.055	1	3
581.225	1	2
581.394	1	7
581.564	1	0
581.734	1	8
581.904	1	6
582.074	1	3
582.244	1	-2
582.414	1	-5
582.583	1	7
582.753	1	-5
582.923	1	9
583.093	1	2
583.263	1	15
583.433	1	1
583.603	1	-8
583.772	1	-5
583.942	1	17
584.112	1	4
584.282	1	-7
584.452	1	-4
584.622	1	2
584.791	1	0
584.961	1	-2
585.131	1	14
585.301	1	5
585.471	1	0
585.641	1	9
585.811	1	-6
585.980	1	4
586.150	1	-11
586.320	1	-5
586.490	1	1
586.660	1	2
586.830	1	1
586.999	1	1
587.169	1	19
587.339	1	1
587.509	1	0
587.679	1	-4
587.849	1	6
588.018	1	-1
588.188	1	-5
588.358	1	17
588.528	1	0
588.698	1	1
588.867	1	3
589.037	1	4
589.207	1	-11
589.377	1	-4
589.547	1	-1
589.717	1	7
589.886	1	-6
590.056	1	0
590.226	1	7
590.396	1	0
590.566	1	7
590.735	1	0
590.905	1	10
591.075	1	3
591.245	1	-1
591.415	1	4
591.585	1	5
591.754	1	8
591.924	1	3
592.094	1	-2
592.264	1	-3
592.434	1	3
592.603	1	-3
592.773	1	9
592.943	1	2
593.113	1	5
593.283	1	3
593.452	1	6
593.622	1	-10
593.792	1	5
593.962	1	4
594.132	1	12
594.301	1	7
594.471	1	3
594.641	1	8
594.811	1	1
594.981	1	4
595.150	1	-3
595.320	1	2
595.490	1	0
595.660	1	-2
595.829	1	5
595.999	1	5
596.169	1	9
596.339	1	8
596.509	1	-10
596.678	1	2
596.848	1	3
597.018	1	-3
597.188	1	-3
597.358	1	-16
597.527	1	-6
597.697	1	-1
597.867	1	2
598.037	1	-9
598.206	1	0
598.376	1	-9
598.546	1	3
598.716	1	3
598.885	1	8
599.055	1	-4
599.225	1	7
599.395	1	1
599.565	1	6
599.734	1	6
599.904	1	1
600.074	1	-4
600.244	1	-7
600.413	1	0
600.583	1	4
600.753	1	1
600.923	1	7
601.092	1	-5
601.262	1	-10
601.432	1	-4
601.602	1	6
601.771	1	6
601.941	1	2
602.111	1	3
602.281	1	0
602.451	1	4
602.620	1	6
602.790	1	11
602.960	1	3
603.130	1	4
603.299	1	0
603.469	1	12
603.639	1	2
603.809	1	5
603.978	1	2
604.148	1	4
604.318	1	2
604.487	1	-1
604.657	1	9
604.827	1	-10
604.997	1	5
605.166	1	13
605.336	1	-2
605.506	1	-1
605.676	1	-13
605.845	1	4
606.015	1	7
606.185	1	2
606.355	1	10
606.524	1	-3
606.694	1	-11
606.864	1	7
607.034	1	7
607.203	1	7
607.373	1	6
607.543	1	9
607.712	1	-10
607.882	1	-10
608.052	1	-12
608.222	1	-1
608.391	1	7
608.561	1	9
608.731	1	4
608.901	1	0
609.070	1	5
609.240	1	-8
609.410	1	0
609.579	1	6
609.749	1	2
609.919	1	-7
610.089	1	1
610.258	1	2
610.428	1	7
610.598	1	7
610.767	1	-1
610.937	1	1
611.107	1	-10
611.277	1	1
611.446	1	-1
611.616	1	3
611.786	1	6
611.955	1	7
612.125	1	6
612.295	1	-9
612.465	1	-1
612.634	1	4
612.804	1	-1
612.974	1	7
613.143	1	-1
613.313	1	-1
613.483	1	-14
613.652	1	5
613.822	1	-1
613.992	1	4
614.162	1	9
614.331	1	3
614.501	1	10
614.671	1	7
614.840	1	-3
615.010	1	4
615.180	1	4
615.349	1	-2
615.519	1	-4
615.689	1	19
615.858	1	3
616.028	1	10
616.198	1	-1
616.368	1	4
616.537	1	9
616.707	1	12
616.877	1	2
617.046	1	5
617.216	1	15
617.386	1	2
617.555	1	1
617.725	1	5
617.895	1	-1
618.064	1	-7
618.234	1	8
618.404	1	3
618.573	1	-6
618.743	1	1
618.913	1	6
619.082	1	6
619.252	1	5
619.422	1	5
619.591	1	6
619.761	1	-4
619.931	1	6
620.100	1	2
620.270	1	4
620.440	1	-1
620.609	1	2
620.779	1	-3
620.949	1	4
621.118	1	-6
621.288	1	4
621.458	1	-4
621.627	1	14
621.797	1	2
621.967	1	2
622.136	1	-2
622.306	1	1
622.476	1	-9
622.645	1	-1
622.815	1	1
622.985	1	4
623.154	1	0
623.324	1	-8
623.494	1	0
623.663	1	6
623.833	1	9
624.002	1	11
624.172	1	7
624.342	1	6
624.511	1	16
624.681	1	-1
624.851	1	-6
625.020	1	-3
625.190	1	7
625.360	1	4
625.529	1	5
625.699	1	5
625.869	1	6
626.038	1	4
626.208	1	5
626.377	1	9
626.547	1	-3
626.717	1	-7
626.886	1	4
627.056	1	-5
627.226	1	-2
627.395	1	-1
627.565	1	7
627.735	1	-2
627.904	1	-6
628.074	1	3
628.243	1	-2
628.413	1	-1
628.583	1	-5
628.752	1	-5
628.922	1	-6
629.091	1	-1
629.261	1	1
629.431	1	-1
629.600	1	4
629.770	1	7
629.940	1	-1
630.109	1	-8
630.279	1	-2
630.448	1	2
630.618	1	3
630.788	1	1
630.957	1	6
631.127	1	-5
631.297	1	3
631.466	1	6
631.636	1	11
631.805	1	6
631.975	1	-4
632.145	1	10
632.314	1	5
632.484	1	0
632.653	1	7
632.823	1	2
632.993	1	5
633.162	1	9
633.332	1	-2
633.501	1	12
633.671	1	10
633.841	1	6
634.010	1	1
634.180	1	-3
634.349	1	1
634.519	1	4
634.689	1	8
634.858	1	-3
635.028	1	5
635.197	1	3
635.367	1	3
635.537	1	-5
635.706	1	1
635.876	1	-1
636.045	1	7
636.215	1	2
636.384	1	-8
636.554	1	-6
636.724	1	11
636.893	1	9
637.063	1	-4
637.232	1	3
637.402	1	10
637.572	1	-3
637.741	1	-4
637.911	1	-4
638.080	1	11
638.250	1	11
638.419	1	-8
638.589	1	7
638.759	1	-1
638.928	1	-5
639.098	1	-9
639.267	1	11
639.437	1	-13
639.606	1	-7
639.776	1	-7
639.946	1	5
640.115	1	6
640.285	1	4
640.454	1	1
640.624	1	-7
640.793	1	-3
640.963	1	2
641.132	1	6
641.302	1	-3
641.472	1	3
641.641	1	2
641.811	1	17
641.980	1	-4
642.150	1	-1
642.319	1	-1
642.489	1	-10
642.659	1	10
642.828	1	-1
642.998	1	8
643.167	1	2
643.337	1	5
643.506	1	7
643.676	1	15
643.845	1	5
644.015	1	10
644.184	1	7
644.354	1	0
644.524	1	1
644.693	1	2
644.863	1	-12
645.032	1	7
645.202	1	11
645.371	1	5
645.541	1	-11
645.710	1	9
645.880	1	2
646.049	1	11
646.219	1	-6
646.388	1	2
646.558	1	5
646.728	1	8
646.897	1	15
647.067	1	8
647.236	1	0
647.406	1	5
647.575	1	0
647.745	1	-2
647.914	1	2
648.084	1	3
648.253	1	6
648.423	1	3
648.592	1	6
648.762	1	7
648.931	1	9
649.101	1	-4
649.270	1	1
649.440	1	-10
649.610	1	8
649.779	1	5
649.949	1	8
650.118	1	-5
650.288	1	7
650.457	1	0
650.627	1	13
650.796	1	2
650.966	1	10
651.135	1	-5
651.305	1	-6
651.474	1	-1
651.644	1	11
651.813	1	-1
651.983	1	9
652.152	1	-8
652.322	1	6
652.491	1	17
652.661	1	3
652.830	1	-5
653.000	1	-7
653.169	1	-5
653.339	1	0
653.508	1	11
653.678	1	4
653.847	1	0
654.017	1	7
654.186	1	17
654.356	1	1
654.525	1	-2
654.695	1	10
654.864	1	8
655.034	1	-4
655.203	1	7
655.373	1	5
655.542	1	-5
655.712	1	-8
655.881	1	0
656.051	1	1
656.220	1	-3
656.390	1	0
656.559	1	0
656.729	1	3
656.898	1	1
657.068	1	10
657.237	1	1
657.406	1	0
657.576	1	-1
657.745	1	14
657.915	1	0
658.084	1	-8
658.254	1	15
658.423	1	-3
658.593	1	0
658.762	1	-5
658.932	1	-2
659.101	1	7
659.271	1	-3
659.440	1	-1
659.610	1	12
659.779	1	2
659.949	1	0
660.118	1	-1
660.288	1	8
660.457	1	10
660.626	1	-2
660.796	1	-4
660.965	1	5
661.135	1	-12
661.304	1	3
661.474	1	7
661.643	1	15
661.813	1	-3
661.982	1	4
662.152	1	4
662.321	1	4
662.491	1	-8
662.660	1	-7
662.829	1	-1
662.999	1	12
663.168	1	7
663.338	1	9
663.507	1	1
663.677	1	-5
663.846	1	-2
664.016	1	11
664.185	1	7
664.354	1	7
664.524	1	11
664.693	1	-5
664.863	1	7
665.032	1	1
665.202	1	15
665.371	1	3
665.541	1	3
665.710	1	9
665.879	1	11
666.049	1	10
666.218	1	8
666.388	1	3
666.557	1	-2
666.727	1	6
666.896	1	2
667.065	1	-2
667.235	1	2
667.404	1	7
667.574	1	-2
667.743	1	-4
667.913	1	-2
668.082	1	8
668.251	1	0
668.421	1	23
668.590	1	-6
668.760	1	5
668.929	1	6
669.099	1	3
669.268	1	-1
669.437	1	-5
669.607	1	-1
669.776	1	3
669.946	1	2
670.115	1	13
670.285	1	15
670.454	1	-2
670.623	1	2
670.793	1	13
670.962	1	0
671.132	1	3
671.301	1	3
671.470	1	7
671.640	1	7
671.809	1	-1
671.979	1	-3
672.148	1	-3
672.317	1	0
672.487	1	1
672.656	1	-6
672.826	1	3
672.995	1	-3
673.164	1	-10
673.334	1	4
673.503	1	-3
673.673	1	9
673.842	1	2
674.011	1	2
674.181	1	-3
674.350	1	12
674.520	1	5
674.689	1	2
674.858	1	-4
675.028	1	0
675.197	1	3
675.367	1	-6
675.536	1	-6
675.705	1	10
675.875	1	-8
676.044	1	7
676.214	1	-4
676.383	1	4
676.552	1	6
676.722	1	10
676.891	1	12
677.060	1	0
677.230	1	-1
677.399	1	-1
677.569	1	-3
677.738	1	8
677.907	1	-1
678.077	1	15
678.246	1	-2
678.416	1	4
678.585	1	10
678.754	1	10
678.924	1	14
679.093	1	1
679.262	1	4
679.432	1	4
679.601	1	8
679.771	1	10
679.940	1	2
680.109	1	-9
680.279	1	5
680.448	1	-2
680.617	1	1
680.787	1	-11
680.956	1	-1
681.125	1	4
681.295	1	8
681.464	1	5
681.634	1	8
681.803	1	2
681.972	1	-13
682.142	1	-9
682.311	1	9
682.480	1	-2
682.650	1	-4
682.819	1	8
682.988	1	4
683.158	1	-2
683.327	1	8
683.496	1	3
683.666	1	3
683.835	1	-5
684.004	1	4
684.174	1	6
684.343	1	8
684.512	1	-12
684.682	1	2
684.851	1	-7
685.021	1	-14
685.190	1	1
685.359	1	-7
685.529	1	17
685.698	1	-7
685.867	1	-3
686.037	1	-9
686.206	1	9
686.375	1	8
686.545	1	6
686.714	1	-5
686.883	1	-2
687.053	1	-10
687.222	1	7
687.391	1	-1
687.561	1	0
687.730	1	11
687.899	1	1
688.069	1	1
688.238	1	-6
688.407	1	-5
688.577	1	7
688.746	1	-10
