340.368	1	-7
340.539	1	6
340.710	1	-8
340.881	1	1
341.052	1	7
341.223	1	-4
341.394	1	-2
341.565	1	10
341.737	1	0
341.908	1	6
342.079	1	-4
342.250	1	-5
342.421	1	8
342.592	1	1
342.763	1	8
342.934	1	-3
343.105	1	6
343.276	1	10
343.447	1	-5
343.618	1	1
343.789	1	1
343.960	1	-3
344.131	1	4
344.302	1	-7
344.473	1	4
344.644	1	-5
344.815	1	5
344.986	1	-1
345.157	1	-7
345.328	1	3
345.499	1	-5
345.670	1	15
345.841	1	9
346.012	1	8
346.183	1	2
346.354	1	-6
346.526	1	6
346.697	1	4
346.868	1	2
347.039	1	-4
347.210	1	-4
347.381	1	-1
347.552	1	3
347.723	1	6
347.894	1	9
348.065	1	-13
348.236	1	11
348.407	1	-4
348.578	1	3
348.749	1	1
348.920	1	-4
349.091	1	3
349.262	1	7
349.433	1	6
349.604	1	-2
349.775	1	4
349.946	1	-2
350.117	1	3
350.288	1	-3
350.459	1	-3
350.630	1	18
350.801	1	0
350.972	1	-9
351.143	1	6
351.314	1	2
351.485	1	6
351.656	1	1
351.827	1	5
351.998	1	8
352.169	1	1
352.340	1	0
352.511	1	9
352.682	1	2
352.853	1	-1
353.024	1	6
353.195	1	2
353.366	1	0
353.537	1	3
353.708	1	10
353.879	1	11
354.050	1	-6
354.221	1	-8
354.392	1	0
354.563	1	-5
354.734	1	4
354.905	1	8
355.076	1	-1
355.247	1	-1
355.418	1	-8
355.589	1	2
355.760	1	-4
355.931	1	-3
356.102	1	6
356.273	1	-4
356.444	1	-2
356.615	1	3
356.785	1	4
356.956	1	1
357.127	1	1
357.298	1	3
357.469	1	-7
357.640	1	6
357.811	1	7
357.982	1	1
358.153	1	5
358.324	1	3
358.495	1	-4
358.666	1	10
358.837	1	-2
359.008	1	-4
359.179	1	-4
359.350	1	7
359.521	1	11
359.692	1	6
359.863	1	-3
360.034	1	1
360.205	1	21
360.376	1	6
360.547	1	0
360.718	1	4
360.889	1	6
361.060	1	6
361.231	1	7
361.401	1	3
361.572	1	10
361.743	1	10
361.914	1	1
362.085	1	-4
362.256	1	-6
362.427	1	-4
362.598	1	-2
362.769	1	0
362.940	1	12
363.111	1	12
363.282	1	7
363.453	1	0
363.624	1	5
363.795	1	-3
363.966	1	6
364.137	1	2
364.308	1	2
364.478	1	9
364.649	1	1
364.820	1	1
364.991	1	11
365.162	1	11
365.333	1	7
365.504	1	4
365.675	1	13
365.846	1	6
366.017	1	1
366.188	1	0
366.359	1	12
366.530	1	20
366.701	1	6
366.871	1	16
367.042	1	9
367.213	1	15
367.384	1	26
367.555	1	19
367.726	1	19
367.897	1	5
368.068	1	7
368.239	1	0
368.410	1	10
368.581	1	12
368.752	1	10
368.923	1	5
369.093	1	3
369.264	1	10
369.435	1	0
369.606	1	15
369.777	1	6
369.948	1	21
370.119	1	-3
370.290	1	0
370.461	1	19
370.632	1	1
370.803	1	5
370.973	1	15
371.144	1	9
371.315	1	10
371.486	1	0
371.657	1	6
371.828	1	23
371.999	1	4
372.170	1	8
372.341	1	10
372.512	1	5
372.682	1	20
372.853	1	8
373.024	1	-4
373.195	1	3
373.366	1	19
373.537	1	17
373.708	1	-2
373.879	1	9
374.050	1	11
374.220	1	12
374.391	1	7
374.562	1	5
374.733	1	8
374.904	1	10
375.075	1	1
375.246	1	2
375.417	1	9
375.588	1	1
375.758	1	20
375.929	1	1
376.100	1	5
376.271	1	8
376.442	1	16
376.613	1	5
376.784	1	-7
376.955	1	7
377.125	1	15
377.296	1	5
377.467	1	5
377.638	1	4
377.809	1	9
377.980	1	-7
378.151	1	8
378.321	1	10
378.492	1	4
378.663	1	2
378.834	1	4
379.005	1	5
379.176	1	-2
379.347	1	5
379.518	1	9
379.688	1	3
379.859	1	10
380.030	1	7
380.201	1	-3
380.372	1	-8
380.543	1	-2
380.714	1	17
380.884	1	0
381.055	1	0
381.226	1	3
381.397	1	19
381.568	1	0
381.739	1	4
381.910	1	11
382.080	1	0
382.251	1	4
382.422	1	4
382.593	1	5
382.764	1	-4
382.935	1	1
383.105	1	12
383.276	1	15
383.447	1	7
383.618	1	1
383.789	1	12
383.960	1	9
384.130	1	-2
384.301	1	-7
384.472	1	-1
384.643	1	0
384.814	1	0
384.985	1	-3
385.156	1	4
385.326	1	-1
385.497	1	7
385.668	1	11
385.839	1	-1
386.010	1	3
386.180	1	11
386.351	1	1
386.522	1	5
386.693	1	-4
386.864	1	5
387.035	1	1
387.205	1	-5
387.376	1	10
387.547	1	0
387.718	1	4
387.889	1	8
388.060	1	6
388.230	1	0
388.401	1	5
388.572	1	2
388.743	1	9
388.914	1	-5
389.084	1	4
389.255	1	7
389.426	1	-5
389.597	1	0
389.768	1	0
389.939	1	-2
390.109	1	7
390.280	1	11
390.451	1	-8
390.622	1	3
390.793	1	2
390.963	1	2
391.134	1	-1
391.305	1	3
391.476	1	12
391.647	1	-10
391.817	1	1
391.988	1	2
392.159	1	7
392.330	1	-5
392.501	1	-3
392.671	1	-1
392.842	1	4
393.013	1	-3
393.184	1	9
393.355	1	11
393.525	1	11
393.696	1	-3
393.867	1	4
394.038	1	-6
394.208	1	9
394.379	1	-11
394.550	1	13
394.721	1	7
394.892	1	-1
395.062	1	9
395.233	1	-3
395.404	1	7
395.575	1	4
395.746	1	14
395.916	1	-6
396.087	1	3
396.258	1	-1
396.429	1	5
396.599	1	-2
396.770	1	6
396.941	1	5
397.112	1	4
397.283	1	4
397.453	1	8
397.624	1	-4
397.795	1	-9
397.966	1	3
398.136	1	-1
398.307	1	-1
398.478	1	-2
398.649	1	5
398.819	1	-2
398.990	1	-9
399.161	1	-2
399.332	1	-4
399.503	1	-2
399.673	1	2
399.844	1	-6
400.015	1	7
400.186	1	-3
400.356	1	-4
400.527	1	14
400.698	1	2
400.869	1	1
401.039	1	0
401.210	1	8
401.381	1	13
401.552	1	-2
401.722	1	-1
401.893	1	15
402.064	1	9
402.235	1	1
402.405	1	-4
402.576	1	-2
402.747	1	3
402.918	1	-9
403.088	1	-3
403.259	1	-3
403.430	1	1
403.601	1	14
403.771	1	2
403.942	1	6
404.113	1	-3
404.284	1	-4
404.454	1	-1
404.625	1	-1
404.796	1	5
404.967	1	-4
405.137	1	1
405.308	1	-2
405.479	1	-2
405.649	1	10
405.820	1	0
405.991	1	1
406.162	1	4
406.332	1	1
406.503	1	-1
406.674	1	-1
406.845	1	5
407.015	1	11
407.186	1	-7
407.357	1	7
407.527	1	-5
407.698	1	9
407.869	1	-7
408.040	1	2
408.210	1	8
408.381	1	1
408.552	1	2
408.722	1	-3
408.893	1	2
409.064	1	0
409.235	1	-2
409.405	1	3
409.576	1	2
409.747	1	5
409.917	1	1
410.088	1	19
410.259	1	7
410.430	1	2
410.600	1	-1
410.771	1	-2
410.942	1	-4
411.112	1	1
411.283	1	4
411.454	1	15
411.625	1	-8
411.795	1	13
411.966	1	3
412.137	1	-5
412.307	1	-1
412.478	1	-1
412.649	1	0
412.819	1	-8
412.990	1	-2
413.161	1	5
413.332	1	-1
413.502	1	-1
413.673	1	-3
413.844	1	10
414.014	1	5
414.185	1	-3
414.356	1	-6
414.526	1	5
414.697	1	4
414.868	1	-1
415.038	1	-5
415.209	1	-12
415.380	1	-3
415.550	1	5
415.721	1	-4
415.892	1	6
416.063	1	-1
416.233	1	3
416.404	1	-1
416.575	1	18
416.745	1	3
416.916	1	-11
417.087	1	-1
417.257	1	6
417.428	1	-4
417.599	1	1
417.769	1	1
417.940	1	6
418.111	1	9
418.281	1	1
418.452	1	-2
418.623	1	-4
418.793	1	2
418.964	1	-6
419.135	1	-5
419.305	1	-1
419.476	1	-8
419.647	1	9
419.817	1	-5
419.988	1	1
420.159	1	6
420.329	1	8
420.500	1	1
420.671	1	-10
420.841	1	-4
421.012	1	-10
421.183	1	-1
421.353	1	11
421.524	1	-2
421.695	1	-9
421.865	1	-4
422.036	1	4
422.206	1	5
422.377	1	-1
422.548	1	4
422.718	1	7
422.889	1	-2
423.060	1	-11
423.230	1	11
423.401	1	1
423.572	1	-2
423.742	1	-5
423.913	1	8
424.084	1	7
424.254	1	0
424.425	1	-17
424.595	1	2
424.766	1	-1
424.937	1	4
425.107	1	2
425.278	1	2
425.449	1	-2
425.619	1	-6
425.790	1	3
425.961	1	1
426.131	1	4
426.302	1	-2
426.472	1	6
426.643	1	10
426.814	1	-12
426.984	1	3
427.155	1	12
427.326	1	6
427.496	1	1
427.667	1	-1
427.837	1	4
428.008	1	9
428.179	1	12
428.349	1	0
428.520	1	10
428.691	1	-5
428.861	1	-1
429.032	1	3
429.202	1	-5
429.373	1	6
429.544	1	-5
429.714	1	-5
429.885	1	2
430.055	1	4
430.226	1	0
430.397	1	-3
430.567	1	3
430.738	1	0
430.909	1	-3
431.079	1	3
431.250	1	12
431.420	1	-3
431.591	1	-3
431.762	1	7
431.932	1	-8
432.103	1	10
432.273	1	7
432.444	1	7
432.615	1	-1
432.785	1	-2
432.956	1	3
433.126	1	3
433.297	1	3
433.468	1	-4
433.638	1	7
433.809	1	-3
433.979	1	0
434.150	1	-7
434.320	1	10
434.491	1	-6
434.662	1	-8
434.832	1	-1
435.003	1	0
435.173	1	-7
435.344	1	-2
435.515	1	4
435.685	1	1
435.856	1	7
436.026	1	-4
436.197	1	-7
436.368	1	8
436.538	1	14
436.709	1	-4
436.879	1	2
437.050	1	-8
437.220	1	-4
437.391	1	2
437.562	1	7
437.732	1	3
437.903	1	1
438.073	1	-6
438.244	1	4
438.414	1	-2
438.585	1	1
438.756	1	-9
438.926	1	-10
439.097	1	-2
439.267	1	1
439.438	1	4
439.608	1	-2
439.779	1	15
439.949	1	6
440.120	1	-6
440.291	1	1
440.461	1	14
440.632	1	-3
440.802	1	8
440.973	1	-7
441.143	1	0
441.314	1	0
441.485	1	-6
441.655	1	8
441.826	1	7
441.996	1	-4
442.167	1	-2
442.337	1	9
442.508	1	-10
442.678	1	11
442.849	1	-3
443.019	1	-5
443.190	1	2
443.361	1	10
443.531	1	7
443.702	1	8
443.872	1	0
444.043	1	-6
444.213	1	-1
444.384	1	-5
444.554	1	5
444.725	1	6
444.895	1	-11
445.066	1	3
445.237	1	-12
445.407	1	6
445.578	1	0
445.748	1	-2
445.919	1	5
446.089	1	10
446.260	1	4
446.430	1	5
446.601	1	-1
446.771	1	0
446.942	1	-2
447.112	1	18
447.283	1	-3
447.453	1	5
447.624	1	2
447.794	1	-1
447.965	1	7
448.135	1	-7
448.306	1	9
448.477	1	6
448.647	1	-3
448.818	1	14
448.988	1	14
449.159	1	-1
449.329	1	6
449.500	1	7
449.670	1	-9
449.841	1	-1
450.011	1	13
450.182	1	12
450.352	1	-3
450.523	1	0
450.693	1	-1
450.864	1	6
451.034	1	1
451.205	1	11
451.375	1	9
451.546	1	-2
451.716	1	-1
451.887	1	-10
452.057	1	-4
452.228	1	1
452.398	1	8
452.569	1	12
452.739	1	6
452.910	1	9
453.080	1	-8
453.251	1	5
453.421	1	8
453.592	1	-6
453.762	1	-6
453.933	1	-9
454.103	1	2
454.274	1	0
454.444	1	-7
454.615	1	-3
454.785	1	0
454.956	1	4
455.126	1	7
455.297	1	-3
455.467	1	-8
455.638	1	7
455.808	1	6
455.979	1	6
456.149	1	4
456.320	1	-4
456.490	1	8
456.661	1	5
456.831	1	1
457.001	1	11
457.172	1	-7
457.342	1	-4
457.513	1	7
457.683	1	13
457.854	1	9
458.024	1	17
458.195	1	3
458.365	1	0
458.536	1	-10
458.706	1	4
458.877	1	4
459.047	1	-6
459.218	1	2
459.388	1	4
459.559	1	-6
459.729	1	3
459.899	1	5
460.070	1	1
460.240	1	-2
460.411	1	0
460.581	1	3
460.752	1	6
460.922	1	-6
461.093	1	12
461.263	1	0
461.434	1	4
461.604	1	3
461.775	1	2
461.945	1	-2
462.115	1	7
462.286	1	-11
462.456	1	-7
462.627	1	6
462.797	1	2
462.968	1	8
463.138	1	-7
463.309	1	9
463.479	1	6
463.649	1	-3
463.820	1	2
463.990	1	0
464.161	1	-2
464.331	1	6
464.502	1	8
464.672	1	1
464.843	1	-1
465.013	1	6
465.183	1	9
465.354	1	-1
465.524	1	4
465.695	1	1
465.865	1	8
466.036	1	-6
466.206	1	9
466.376	1	3
466.547	1	2
466.717	1	8
466.888	1	4
467.058	1	0
467.229	1	5
467.399	1	9
467.569	1	4
467.740	1	-2
467.910	1	-11
468.081	1	-2
468.251	1	-2
468.422	1	10
468.592	1	2
468.762	1	13
468.933	1	6
469.103	1	1
469.274	1	3
469.444	1	3
469.614	1	0
469.785	1	-11
469.955	1	0
470.126	1	2
470.296	1	4
470.467	1	11
470.637	1	12
470.807	1	-7
470.978	1	-4
471.148	1	-6
471.319	1	-1
471.489	1	0
471.659	1	-6
471.830	1	0
472.000	1	3
472.171	1	-1
472.341	1	-2
472.511	1	9
472.682	1	-11
472.852	1	5
473.023	1	10
473.193	1	4
473.363	1	0
473.534	1	-1
473.704	1	6
473.875	1	-5
474.045	1	9
474.215	1	5
474.386	1	5
474.556	1	8
474.727	1	0
474.897	1	2
475.067	1	13
475.238	1	-3
475.408	1	1
475.578	1	1
475.749	1	6
475.919	1	9
476.090	1	0
476.260	1	6
476.430	1	-6
476.601	1	-2
476.771	1	5
476.942	1	-12
477.112	1	-3
477.282	1	10
477.453	1	-4
477.623	1	7
477.793	1	-2
477.964	1	3
478.134	1	3
478.305	1	-5
478.475	1	4
478.645	1	12
478.816	1	-12
478.986	1	-3
479.156	1	3
479.327	1	-7
479.497	1	-1
479.667	1	-3
479.838	1	2
480.008	1	6
480.179	1	-2
480.349	1	2
480.519	1	-3
480.690	1	4
480.860	1	4
481.030	1	1
481.201	1	0
481.371	1	1
481.541	1	4
481.712	1	1
481.882	1	5
482.053	1	-8
482.223	1	3
482.393	1	0
482.564	1	-4
482.734	1	-2
482.904	1	6
483.075	1	9
483.245	1	-4
483.415	1	8
483.586	1	1
483.756	1	-1
483.926	1	0
484.097	1	-8
484.267	1	-5
484.437	1	-4
484.608	1	2
484.778	1	-14
484.948	1	8
485.119	1	-1
485.289	1	6
485.459	1	-1
485.630	1	14
485.800	1	-5
485.970	1	3
486.141	1	14
486.311	1	2
486.481	1	-3
486.652	1	5
486.822	1	7
486.992	1	10
487.163	1	9
487.333	1	-7
487.503	1	-10
487.674	1	10
487.844	1	8
488.014	1	-10
488.185	1	-6
488.355	1	-7
488.525	1	9
488.696	1	1
488.866	1	7
489.036	1	3
489.207	1	9
489.377	1	-8
489.547	1	18
489.718	1	7
489.888	1	-2
490.058	1	8
490.228	1	-1
490.399	1	1
490.569	1	-4
490.739	1	7
490.910	1	3
491.080	1	-7
491.250	1	1
491.421	1	5
491.591	1	0
491.761	1	3
491.932	1	-3
492.102	1	1
492.272	1	4
492.442	1	-1
492.613	1	-7
492.783	1	3
492.953	1	-1
493.124	1	-2
493.294	1	-5
493.464	1	0
493.635	1	-4
493.805	1	6
493.975	1	2
494.145	1	11
494.316	1	-2
494.486	1	14
494.656	1	-5
494.827	1	-5
494.997	1	7
495.167	1	3
495.337	1	16
495.508	1	7
495.678	1	2
495.848	1	2
496.019	1	-6
496.189	1	-1
496.359	1	9
496.529	1	8
496.700	1	5
496.870	1	-2
497.040	1	9
497.211	1	7
497.381	1	7
497.551	1	5
497.721	1	-6
497.892	1	-2
498.062	1	1
498.232	1	-3
498.403	1	3
498.573	1	1
498.743	1	4
498.913	1	6
499.084	1	3
499.254	1	5
499.424	1	10
499.594	1	3
499.765	1	-12
499.935	1	5
500.105	1	-3
500.275	1	5
500.446	1	0
500.616	1	-4
500.786	1	4
500.956	1	9
501.127	1	5
501.297	1	0
501.467	1	-8
501.638	1	-14
501.808	1	3
501.978	1	0
502.148	1	-7
502.319	1	9
502.489	1	3
502.659	1	7
502.829	1	4
503.000	1	-5
503.170	1	2
503.340	1	2
503.510	1	0
503.681	1	13
503.851	1	-3
504.021	1	6
504.191	1	-7
504.362	1	10
504.532	1	-14
504.702	1	0
504.872	1	1
505.042	1	4
505.213	1	-1
505.383	1	-2
505.553	1	-2
505.723	1	1
505.894	1	5
506.064	1	9
506.234	1	-7
506.404	1	4
506.575	1	-5
506.745	1	10
506.915	1	-2
507.085	1	-10
507.256	1	-13
507.426	1	2
507.596	1	3
507.766	1	6
507.936	1	15
508.107	1	4
508.277	1	-13
508.447	1	-2
508.617	1	7
508.788	1	-15
508.958	1	-5
509.128	1	-4
509.298	1	7
509.468	1	5
509.639	1	14
509.809	1	4
509.979	1	5
510.149	1	2
510.319	1	-6
510.490	1	7
510.660	1	-10
510.830	1	-2
511.000	1	9
511.171	1	8
511.341	1	10
511.511	1	0
511.681	1	-3
511.851	1	13
512.022	1	8
512.192	1	10
512.362	1	-2
512.532	1	-13
512.702	1	-10
512.873	1	-4
513.043	1	4
513.213	1	6
513.383	1	3
513.553	1	12
513.724	1	4
513.894	1	-10
514.064	1	8
514.234	1	-5
514.404	1	-4
514.575	1	-5
514.745	1	-4
514.915	1	0
515.085	1	-1
515.255	1	-2
515.425	1	2
515.596	1	-7
515.766	1	6
515.936	1	5
516.106	1	5
516.276	1	15
516.447	1	-5
516.617	1	4
516.787	1	-2
516.957	1	-8
517.127	1	1
517.297	1	17
517.468	1	10
517.638	1	-2
517.808	1	12
517.978	1	4
518.148	1	3
518.319	1	2
518.489	1	12
518.659	1	-9
518.829	1	7
518.999	1	-4
519.169	1	0
519.340	1	9
519.510	1	14
519.680	1	6
519.850	1	6
520.020	1	-5
520.190	1	-3
520.361	1	3
520.531	1	2
520.701	1	7
520.871	1	-2
521.041	1	9
521.211	1	2
521.382	1	4
521.552	1	-1
521.722	1	-4
521.892	1	2
522.062	1	-8
522.232	1	-10
522.402	1	-3
522.573	1	4
522.743	1	16
522.913	1	2
523.083	1	1
523.253	1	15
523.423	1	-2
523.593	1	10
523.764	1	5
523.934	1	-10
524.104	1	-6
524.274	1	4
524.444	1	-4
524.614	1	0
524.784	1	12
524.955	1	10
525.125	1	3
525.295	1	-1
525.465	1	13
525.635	1	7
525.805	1	3
525.975	1	2
526.146	1	1
526.316	1	9
526.486	1	5
526.656	1	10
526.826	1	-5
526.996	1	2
527.166	1	1
527.337	1	2
527.507	1	-2
527.677	1	-9
527.847	1	2
528.017	1	9
528.187	1	2
528.357	1	2
528.527	1	-4
528.698	1	0
528.868	1	3
529.038	1	0
529.208	1	-2
529.378	1	0
529.548	1	0
529.718	1	-3
529.888	1	5
530.058	1	11
530.229	1	9
530.399	1	-6
530.569	1	1
530.739	1	-4
530.909	1	-5
531.079	1	7
531.249	1	4
531.419	1	8
531.589	1	8
531.760	1	12
531.930	1	5
532.100	1	-4
532.270	1	-2
532.440	1	3
532.610	1	0
532.780	1	-9
532.950	1	-3
533.120	1	0
533.290	1	14
533.461	1	-7
533.631	1	2
533.801	1	0
533.971	1	6
534.141	1	-6
534.311	1	-6
534.481	1	8
534.651	1	8
534.821	1	12
534.991	1	4
535.162	1	11
535.332	1	11
535.502	1	-1
535.672	1	2
535.842	1	6
536.012	1	-1
536.182	1	7
536.352	1	-3
536.522	1	6
536.692	1	8
536.862	1	14
537.032	1	-1
537.203	1	7
537.373	1	-4
537.543	1	-1
537.713	1	0
537.883	1	2
538.053	1	1
538.223	1	3
538.393	1	9
538.563	1	-4
538.733	1	-5
538.903	1	-5
539.073	1	8
539.243	1	3
539.413	1	-5
539.584	1	-1
539.754	1	-3
539.924	1	-3
540.094	1	4
540.264	1	5
540.434	1	0
540.604	1	0
540.774	1	6
540.944	1	-3
541.114	1	1
541.284	1	10
541.454	1	0
541.624	1	2
541.794	1	-6
541.964	1	11
542.134	1	-5
542.305	1	-1
542.475	1	3
542.645	1	-1
542.815	1	4
542.985	1	5
543.155	1	8
543.325	1	3
543.495	1	7
543.665	1	2
543.835	1	-7
544.005	1	2
544.175	1	3
544.345	1	7
544.515	1	-1
544.685	1	-1
544.855	1	-4
545.025	1	-5
545.195	1	-3
545.365	1	-2
545.535	1	-2
545.705	1	8
545.875	1	1
546.045	1	0
546.216	1	6
546.386	1	2
546.556	1	3
546.726	1	3
546.896	1	8
547.066	1	12
547.236	1	10
547.406	1	0
547.576	1	0
547.746	1	-5
547.916	1	2
548.086	1	6
548.256	1	9
548.426	1	12
548.596	1	-2
548.766	1	11
548.936	1	-2
549.106	1	10
549.276	1	5
549.446	1	8
549.616	1	13
549.786	1	-1
549.956	1	6
550.126	1	-5
550.296	1	7
550.466	1	1
550.636	1	5
550.806	1	-10
550.976	1	9
551.146	1	10
551.316	1	4
551.486	1	0
551.656	1	0
551.826	1	10
551.996	1	-1
552.166	1	2
552.336	1	13
552.506	1	3
552.676	1	8
552.846	1	1
553.016	1	3
553.186	1	1
553.356	1	1
553.526	1	-3
553.696	1	6
553.866	1	-10
554.036	1	-1
554.206	1	6
554.376	1	0
554.546	1	-10
554.716	1	-4
554.886	1	8
555.056	1	-4
555.226	1	-11
555.396	1	5
555.566	1	4
555.736	1	-4
555.906	1	-1
556.076	1	2
556.246	1	0
556.416	1	-2
556.586	1	0
556.756	1	2
556.926	1	8
557.096	1	-3
557.266	1	-2
557.436	1	-8
557.606	1	6
557.776	1	11
557.946	1	2
558.116	1	3
558.286	1	-5
558.456	1	2
558.626	1	15
558.796	1	4
558.966	1	7
559.136	1	7
559.306	1	4
559.476	1	-2
559.646	1	-7
559.816	1	5
559.986	1	3
560.155	1	9
560.325	1	6
560.495	1	-2
560.665	1	-5
560.835	1	-2
561.005	1	5
561.175	1	-13
561.345	1	-6
561.515	1	5
561.685	1	9
561.855	1	2
562.025	1	-4
562.195	1	0
562.365	1	2
562.535	1	0
562.705	1	5
562.875	1	3
563.045	1	-2
563.215	1	-8
563.385	1	-3
563.555	1	6
563.725	1	-4
563.895	1	-3
564.064	1	10
564.234	1	7
564.404	1	-1
564.574	1	-5
564.744	1	1
564.914	1	6
565.084	1	1
565.254	1	3
565.424	1	2
565.594	1	1
565.764	1	-3
565.934	1	0
566.104	1	9
566.274	1	-6
566.444	1	0
566.614	1	1
566.783	1	3
566.953	1	12
567.123	1	4
567.293	1	8
567.463	1	8
567.633	1	6
567.803	1	3
567.973	1	-7
568.143	1	4
568.313	1	-10
568.483	1	4
568.653	1	4
568.823	1	7
568.993	1	5
569.162	1	4
569.332	1	1
569.502	1	-1
569.672	1	2
569.842	1	4
570.012	1	5
570.182	1	6
570.352	1	-3
570.522	1	5
570.692	1	2
570.862	1	-2
571.031	1	-5
571.201	1	7
571.371	1	8
571.541	1	-13
571.711	1	-6
571.881	1	-7
572.051	1	2
572.221	1	5
572.391	1	10
572.561	1	1
572.731	1	5
572.900	1	-1
573.070	1	-2
573.240	1	6
573.410	1	3
573.580	1	1
573.750	1	6
573.920	1	11
574.090	1	-5
574.260	1	3
574.430	1	3
574.599	1	7
574.769	1	-4
574.939	1	-1
575.109	1	1
575.279	1	11
575.449	1	0
575.619	1	5
575.789	1	7
575.959	1	-8
576.128	1	3
576.298	1	4
576.468	1	5
576.638	1	7
576.808	1	-3
576.978	1	-4
577.148	1	8
577.318	1	-2
577.487	1	6
577.657	1	0
577.827	1	-7
577.997	1	-14
578.167	1	1
578.337	1	6
578.507	1	15
578.677	1	-2
578.846	1	-2
579.016	1	11
579.186	1	-1
579.356	1	0
579.526	1	-10
579.696	1	-2
579.866	1	4
580.036	1	4
580.205	1	-6
580.375	1	4
580.545	1	-3
580.715	1	11
580.885	1	-6
581.055	1	4
581.225	1	-2
581.394	1	11
581.564	1	-3
581.734	1	2
581.904	1	-3
582.074	1	6
582.244	1	-1
582.414	1	-12
582.583	1	2
582.753	1	5
582.923	1	3
583.093	1	8
583.263	1	13
583.433	1	13
583.603	1	1
583.772	1	-3
583.942	1	3
584.112	1	9
584.282	1	-8
584.452	1	-9
584.622	1	4
584.791	1	8
584.961	1	-2
585.131	1	11
585.301	1	-1
585.471	1	2
585.641	1	5
585.811	1	-4
585.980	1	3
586.150	1	-6
586.320	1	-4
586.490	1	10
586.660	1	-4
586.830	1	-18
586.999	1	-2
587.169	1	4
587.339	1	-1
587.509	1	2
587.679	1	5
587.849	1	4
588.018	1	-2
588.188	1	-4
588.358	1	14
588.528	1	1
588.698	1	-4
588.867	1	-2
589.037	1	-2
589.207	1	1
589.377	1	-1
589.547	1	10
589.717	1	5
589.886	1	2
590.056	1	-8
590.226	1	5
590.396	1	8
590.566	1	1
590.735	1	-3
590.905	1	7
591.075	1	10
591.245	1	11
591.415	1	14
591.585	1	2
591.754	1	8
591.924	1	5
592.094	1	7
592.264	1	1
592.434	1	-10
592.603	1	-4
592.773	1	0
592.943	1	-3
593.113	1	2
593.283	1	0
593.452	1	-5
593.622	1	-9
593.792	1	2
593.962	1	4
594.132	1	5
594.301	1	6
594.471	1	9
594.641	1	0
594.811	1	-9
594.981	1	11
595.150	1	-4
595.320	1	-3
595.490	1	-7
595.660	1	-6
595.829	1	6
595.999	1	12
596.169	1	4
596.339	1	8
596.509	1	0
596.678	1	0
596.848	1	2
597.018	1	2
597.188	1	-3
597.358	1	-10
597.527	1	7
597.697	1	6
597.867	1	8
598.037	1	-4
598.206	1	0
598.376	1	-8
598.546	1	0
598.716	1	3
598.885	1	0
599.055	1	-6
599.225	1	3
599.395	1	11
599.565	1	11
599.734	1	11
599.904	1	-2
600.074	1	-2
600.244	1	5
600.413	1	-9
600.583	1	-4
600.753	1	7
600.923	1	1
601.092	1	5
601.262	1	6
601.432	1	-9
601.602	1	2
601.771	1	9
601.941	1	2
602.111	1	-6
602.281	1	3
602.451	1	14
602.620	1	-4
602.790	1	12
602.960	1	0
603.130	1	1
603.299	1	-2
603.469	1	-3
603.639	1	-2
603.809	1	7
603.978	1	5
604.148	1	-2
604.318	1	-10
604.487	1	1
604.657	1	10
604.827	1	-6
604.997	1	-3
605.166	1	3
605.336	1	-10
605.506	1	-4
605.676	1	-6
605.845	1	-1
606.015	1	-8
606.185	1	4
606.355	1	8
606.524	1	-1
606.694	1	-6
606.864	1	6
607.034	1	-2
607.203	1	0
607.373	1	5
607.543	1	5
607.712	1	-6
607.882	1	-9
608.052	1	-5
608.222	1	4
608.391	1	-1
608.561	1	1
608.731	1	5
608.901	1	0
609.070	1	2
609.240	1	2
609.410	1	-7
609.579	1	10
609.749	1	-3
609.919	1	-1
610.089	1	7
610.258	1	15
610.428	1	2
610.598	1	8
610.767	1	-7
610.937	1	2
611.107	1	-3
611.277	1	2
611.446	1	-5
611.616	1	-1
611.786	1	1
611.955	1	1
612.125	1	11
612.295	1	3
612.465	1	-8
612.634	1	-6
612.804	1	-4
612.974	1	5
613.143	1	-7
613.313	1	6
613.483	1	-4
613.652	1	6
613.822	1	6
613.992	1	-5
614.162	1	2
614.331	1	-4
614.501	1	-4
614.671	1	3
614.840	1	-8
615.010	1	9
615.180	1	11
615.349	1	13
615.519	1	-6
615.689	1	21
615.858	1	-5
616.028	1	9
616.198	1	-1
616.368	1	-11
616.537	1	-6
616.707	1	8
616.877	1	-9
617.046	1	11
617.216	1	-2
617.386	1	-5
617.555	1	1
617.725	1	2
617.895	1	-7
618.064	1	-3
618.234	1	-3
618.404	1	3
618.573	1	-4
618.743	1	7
618.913	1	6
619.082	1	0
619.252	1	5
619.422	1	-5
619.591	1	-1
619.761	1	-6
619.931	1	-1
620.100	1	-7
620.270	1	6
620.440	1	8
620.609	1	7
620.779	1	0
620.949	1	9
621.118	1	-8
621.288	1	4
621.458	1	0
621.627	1	5
621.797	1	1
621.967	1	4
622.136	1	-3
622.306	1	-3
622.476	1	5
622.645	1	-4
622.815	1	6
622.985	1	1
623.154	1	0
623.324	1	-2
623.494	1	-4
623.663	1	-2
623.833	1	5
624.002	1	8
624.172	1	0
624.342	1	8
624.511	1	6
624.681	1	4
624.851	1	-7
625.020	1	-4
625.190	1	0
625.360	1	1
625.529	1	6
625.699	1	1
625.869	1	11
626.038	1	-3
626.208	1	0
626.377	1	5
626.547	1	-4
626.717	1	-6
626.886	1	-2
627.056	1	-5
627.226	1	7
627.395	1	-1
627.565	1	3
627.735	1	0
627.904	1	0
628.074	1	-3
628.243	1	-7
628.413	1	-5
628.583	1	-2
628.752	1	-2
628.922	1	1
629.091	1	0
629.261	1	9
629.431	1	3
629.600	1	-6
629.770	1	7
629.940	1	-3
630.109	1	-4
630.279	1	5
630.448	1	4
630.618	1	-2
630.788	1	3
630.957	1	5
631.127	1	3
631.297	1	6
631.466	1	4
631.636	1	8
631.805	1	-3
631.975	1	2
632.145	1	-4
632.314	1	7
632.484	1	-1
632.653	1	9
632.823	1	-7
632.993	1	4
633.162	1	6
633.332	1	-3
633.501	1	-6
633.671	1	0
633.841	1	-9
634.010	1	-1
634.180	1	8
634.349	1	-9
634.519	1	10
634.689	1	15
634.858	1	7
635.028	1	3
635.197	1	6
635.367	1	-9
635.537	1	-4
635.706	1	2
635.876	1	10
636.045	1	4
636.215	1	-6
636.384	1	-6
636.554	1	-3
636.724	1	8
636.893	1	6
637.063	1	3
637.232	1	-6
637.402	1	5
637.572	1	0
637.741	1	-7
637.911	1	-1
638.080	1	5
638.250	1	9
638.419	1	-9
638.589	1	3
638.759	1	-2
638.928	1	-1
639.098	1	-10
639.267	1	11
639.437	1	-17
639.606	1	3
639.776	1	5
639.946	1	4
640.115	1	4
640.285	1	5
640.454	1	-2
640.624	1	-4
640.793	1	-4
640.963	1	3
641.132	1	0
641.302	1	-4
641.472	1	0
641.641	1	3
641.811	1	4
641.980	1	-4
642.150	1	5
642.319	1	7
642.489	1	0
642.659	1	-8
642.828	1	-8
642.998	1	17
643.167	1	-2
643.337	1	7
643.506	1	1
643.676	1	13
643.845	1	6
644.015	1	9
644.184	1	13
644.354	1	3
644.524	1	2
644.693	1	-10
644.863	1	-21
645.032	1	-6
645.202	1	12
645.371	1	1
645.541	1	-4
645.710	1	3
645.880	1	0
646.049	1	3
646.219	1	5
646.388	1	2
646.558	1	-6
646.728	1	4
646.897	1	4
647.067	1	-2
647.236	1	-7
647.406	1	5
647.575	1	-7
647.745	1	-2
647.914	1	0
648.084	1	-2
648.253	1	-3
648.423	1	8
648.592	1	-4
648.762	1	4
648.931	1	2
649.101	1	5
649.270	1	-7
649.440	1	-11
649.610	1	-2
649.779	1	0
649.949	1	3
650.118	1	4
650.288	1	-1
650.457	1	-4
650.627	1	-4
650.796	1	4
650.966	1	7
651.135	1	-2
651.305	1	-9
651.474	1	15
651.644	1	7
651.813	1	9
651.983	1	2
652.152	1	-8
652.322	1	2
652.491	1	11
652.661	1	2
652.830	1	-7
653.000	1	-11
653.169	1	-3
653.339	1	-7
653.508	1	21
653.678	1	6
653.847	1	-3
654.017	1	2
654.186	1	8
654.356	1	-3
654.525	1	-5
654.695	1	-5
654.864	1	11
655.034	1	-2
655.203	1	4
655.373	1	-1
655.542	1	-3
655.712	1	-9
655.881	1	1
656.051	1	0
656.220	1	2
656.390	1	-4
656.559	1	-2
656.729	1	-3
656.898	1	6
657.068	1	7
657.237	1	0
657.406	1	-2
657.576	1	10
657.745	1	8
657.915	1	-3
658.084	1	-7
658.254	1	14
658.423	1	0
658.593	1	10
658.762	1	0
658.932	1	7
659.101	1	-1
659.271	1	6
659.440	1	13
659.610	1	9
659.779	1	-5
659.949	1	-4
660.118	1	10
660.288	1	5
660.457	1	10
660.626	1	-4
660.796	1	-4
660.965	1	13
661.135	1	-7
661.304	1	-3
661.474	1	6
661.643	1	6
661.813	1	-2
661.982	1	4
662.152	1	11
662.321	1	-7
662.491	1	-10
662.660	1	-9
662.829	1	-6
662.999	1	14
663.168	1	1
663.338	1	2
663.507	1	2
663.677	1	-1
663.846	1	0
664.016	1	5
664.185	1	2
664.354	1	-2
664.524	1	-10
664.693	1	-2
664.863	1	-1
665.032	1	-1
665.202	1	12
665.371	1	-7
665.541	1	-1
665.710	1	4
665.879	1	-7
666.049	1	4
666.218	1	4
666.388	1	10
666.557	1	-8
666.727	1	3
666.896	1	5
667.065	1	2
667.235	1	-6
667.404	1	2
667.574	1	-4
667.743	1	4
667.913	1	1
668.082	1	3
668.251	1	4
668.421	1	5
668.590	1	3
668.760	1	0
668.929	1	8
669.099	1	8
669.268	1	-1
669.437	1	-5
669.607	1	2
669.776	1	6
669.946	1	0
670.115	1	-5
670.285	1	11
670.454	1	-8
670.623	1	-6
670.793	1	4
670.962	1	-5
671.132	1	2
671.301	1	3
671.470	1	2
671.640	1	13
671.809	1	7
671.979	1	-3
672.148	1	-9
672.317	1	5
672.487	1	1
672.656	1	-5
672.826	1	3
672.995	1	-5
673.164	1	0
673.334	1	0
673.503	1	-5
673.673	1	5
673.842	1	-1
674.011	1	2
674.181	1	8
674.350	1	3
674.520	1	15
674.689	1	3
674.858	1	-8
675.028	1	0
675.197	1	6
675.367	1	2
675.536	1	-7
675.705	1	-5
675.875	1	5
676.044	1	5
676.214	1	-4
676.383	1	1
676.552	1	11
676.722	1	-1
676.891	1	14
677.060	1	-6
677.230	1	8
677.399	1	-4
677.569	1	-10
677.738	1	7
677.907	1	0
678.077	1	11
678.246	1	0
678.416	1	-3
678.585	1	0
678.754	1	1
678.924	1	7
679.093	1	-5
679.262	1	-6
679.432	1	-5
679.601	1	1
679.771	1	5
679.940	1	5
680.109	1	2
680.279	1	9
680.448	1	5
680.617	1	-1
680.787	1	-6
680.956	1	-7
681.125	1	3
681.295	1	-1
681.464	1	-3
681.634	1	6
681.803	1	3
681.972	1	-8
682.142	1	-2
682.311	1	1
682.480	1	8
682.650	1	2
682.819	1	3
682.988	1	-4
683.158	1	-3
683.327	1	3
683.496	1	5
683.666	1	-1
683.835	1	-11
684.004	1	1
684.174	1	9
684.343	1	3
684.512	1	1
684.682	1	8
684.851	1	-3
685.021	1	-1
685.190	1	-2
685.359	1	-1
685.529	1	7
685.698	1	6
685.867	1	-8
686.037	1	-2
686.206	1	0
686.375	1	11
686.545	1	12
686.714	1	-3
686.883	1	-4
687.053	1	-1
687.222	1	-8
687.391	1	3
687.561	1	1
687.730	1	5
687.899	1	0
688.069	1	2
688.238	1	0
688.407	1	-4
688.577	1	8
688.746	1	-1
