340.368	1	3
340.539	1	0
340.710	1	-6
340.881	1	5
341.052	1	7
341.223	1	-2
341.394	1	8
341.565	1	7
341.737	1	-2
341.908	1	5
342.079	1	3
342.250	1	4
342.421	1	6
342.592	1	9
342.763	1	2
342.934	1	-1
343.105	1	11
343.276	1	1
343.447	1	-7
343.618	1	-2
343.789	1	14
343.960	1	-3
344.131	1	-1
344.302	1	-6
344.473	1	7
344.644	1	8
344.815	1	9
344.986	1	8
345.157	1	3
345.328	1	9
345.499	1	2
345.670	1	10
345.841	1	8
346.012	1	5
346.183	1	13
346.354	1	-3
346.526	1	7
346.697	1	19
346.868	1	8
347.039	1	3
347.210	1	-3
347.381	1	5
347.552	1	5
347.723	1	10
347.894	1	2
348.065	1	-5
348.236	1	9
348.407	1	0
348.578	1	10
348.749	1	14
348.920	1	0
349.091	1	12
349.262	1	0
349.433	1	7
349.604	1	14
349.775	1	14
349.946	1	10
350.117	1	10
350.288	1	-1
350.459	1	6
350.630	1	12
350.801	1	5
350.972	1	1
351.143	1	2
351.314	1	3
351.485	1	5
351.656	1	8
351.827	1	-3
351.998	1	0
352.169	1	5
352.340	1	11
352.511	1	16
352.682	1	5
352.853	1	10
353.024	1	2
353.195	1	9
353.366	1	-2
353.537	1	17
353.708	1	16
353.879	1	13
354.050	1	-3
354.221	1	10
354.392	1	3
354.563	1	6
354.734	1	10
354.905	1	19
355.076	1	6
355.247	1	7
355.418	1	8
355.589	1	2
355.760	1	6
355.931	1	18
356.102	1	12
356.273	1	5
356.444	1	5
356.615	1	1
356.785	1	21
356.956	1	17
357.127	1	16
357.298	1	13
357.469	1	8
357.640	1	8
357.811	1	13
357.982	1	12
358.153	1	16
358.324	1	20
358.495	1	8
358.666	1	19
358.837	1	8
359.008	1	10
359.179	1	18
359.350	1	20
359.521	1	26
359.692	1	21
359.863	1	19
360.034	1	18
360.205	1	23
360.376	1	23
360.547	1	30
360.718	1	22
360.889	1	39
361.060	1	14
361.231	1	38
361.401	1	23
361.572	1	48
361.743	1	35
361.914	1	23
362.085	1	38
362.256	1	36
362.427	1	38
362.598	1	37
362.769	1	32
362.940	1	56
363.111	1	54
363.282	1	45
363.453	1	41
363.624	1	53
363.795	1	46
363.966	1	53
364.137	1	57
364.308	1	65
364.478	1	57
364.649	1	50
364.820	1	66
364.991	1	67
365.162	1	74
365.333	1	74
365.504	1	65
365.675	1	87
365.846	1	72
366.017	1	80
366.188	1	87
366.359	1	81
366.530	1	92
366.701	1	97
366.871	1	104
367.042	1	89
367.213	1	94
367.384	1	110
367.555	1	105
367.726	1	112
367.897	1	105
368.068	1	117
368.239	1	110
368.410	1	118
368.581	1	120
368.752	1	122
368.923	1	107
369.093	1	96
369.264	1	107
369.435	1	110
369.606	1	104
369.777	1	100
369.948	1	106
370.119	1	98
370.290	1	99
370.461	1	99
370.632	1	101
370.803	1	90
370.973	1	106
371.144	1	87
371.315	1	93
371.486	1	82
371.657	1	82
371.828	1	83
371.999	1	90
372.170	1	78
372.341	1	84
372.512	1	69
372.682	1	77
372.853	1	85
373.024	1	65
373.195	1	72
373.366	1	72
373.537	1	76
373.708	1	61
373.879	1	69
374.050	1	71
374.220	1	65
374.391	1	62
374.562	1	61
374.733	1	63
374.904	1	66
375.075	1	42
375.246	1	55
375.417	1	61
375.588	1	67
375.758	1	58
375.929	1	50
376.100	1	60
376.271	1	60
376.442	1	51
376.613	1	49
376.784	1	33
376.955	1	61
377.125	1	46
377.296	1	51
377.467	1	57
377.638	1	52
377.809	1	51
377.980	1	26
378.151	1	41
378.321	1	42
378.492	1	36
378.663	1	38
378.834	1	41
379.005	1	28
379.176	1	25
379.347	1	33
379.518	1	39
379.688	1	35
379.859	1	32
380.030	1	33
380.201	1	36
380.372	1	38
380.543	1	27
380.714	1	35
380.884	1	29
381.055	1	31
381.226	1	22
381.397	1	26
381.568	1	36
381.739	1	16
381.910	1	20
382.080	1	22
382.251	1	21
382.422	1	28
382.593	1	24
382.764	1	21
382.935	1	18
383.105	1	21
383.276	1	20
383.447	1	25
383.618	1	12
383.789	1	27
383.960	1	25
384.130	1	13
384.301	1	18
384.472	1	12
384.643	1	11
384.814	1	21
384.985	1	20
385.156	1	21
385.326	1	17
385.497	1	22
385.668	1	25
385.839	1	12
386.010	1	14
386.180	1	20
386.351	1	16
386.522	1	24
386.693	1	13
386.864	1	12
387.035	1	16
387.205	1	4
387.376	1	11
387.547	1	15
387.718	1	5
387.889	1	23
388.060	1	14
388.230	1	4
388.401	1	8
388.572	1	20
388.743	1	19
388.914	1	10
389.084	1	14
389.255	1	16
389.426	1	11
389.597	1	16
389.768	1	12
389.939	1	6
390.109	1	16
390.280	1	6
390.451	1	5
390.622	1	6
390.793	1	17
390.963	1	11
391.134	1	7
391.305	1	7
391.476	1	20
391.647	1	-4
391.817	1	15
391.988	1	10
392.159	1	25
392.330	1	14
392.501	1	15
392.671	1	8
392.842	1	3
393.013	1	8
393.184	1	21
393.355	1	9
393.525	1	10
393.696	1	14
393.867	1	13
394.038	1	10
394.208	1	13
394.379	1	-2
394.550	1	11
394.721	1	-2
394.892	1	12
395.062	1	5
395.233	1	8
395.404	1	12
395.575	1	1
395.746	1	13
395.916	1	3
396.087	1	11
396.258	1	5
396.429	1	6
396.599	1	-1
396.770	1	10
396.941	1	2
397.112	1	-2
397.283	1	11
397.453	1	8
397.624	1	8
397.795	1	6
397.966	1	7
398.136	1	0
398.307	1	4
398.478	1	1
398.649	1	7
398.819	1	3
398.990	1	-4
399.161	1	1
399.332	1	15
399.503	1	9
399.673	1	5
399.844	1	-1
400.015	1	9
400.186	1	0
400.356	1	-3
400.527	1	19
400.698	1	15
400.869	1	9
401.039	1	9
401.210	1	10
401.381	1	14
401.552	1	9
401.722	1	3
401.893	1	16
402.064	1	2
402.235	1	7
402.405	1	-3
402.576	1	9
402.747	1	6
402.918	1	-1
403.088	1	18
403.259	1	9
403.430	1	3
403.601	1	7
403.771	1	6
403.942	1	9
404.113	1	8
404.284	1	-1
404.454	1	8
404.625	1	3
404.796	1	3
404.967	1	6
405.137	1	14
405.308	1	14
405.479	1	4
405.649	1	3
405.820	1	12
405.991	1	1
406.162	1	19
406.332	1	-2
406.503	1	9
406.674	1	10
406.845	1	7
407.015	1	5
407.186	1	12
407.357	1	7
407.527	1	-2
407.698	1	3
407.869	1	0
408.040	1	10
408.210	1	3
408.381	1	8
408.552	1	-3
408.722	1	-6
408.893	1	5
409.064	1	-1
409.235	1	1
409.405	1	6
409.576	1	12
409.747	1	2
409.917	1	2
410.088	1	2
410.259	1	12
410.430	1	-3
410.600	1	7
410.771	1	6
410.942	1	3
411.112	1	6
411.283	1	2
411.454	1	6
411.625	1	-3
411.795	1	11
411.966	1	5
412.137	1	-7
412.307	1	1
412.478	1	4
412.649	1	3
412.819	1	-1
412.990	1	-3
413.161	1	12
413.332	1	2
413.502	1	0
413.673	1	-4
413.844	1	11
414.014	1	-1
414.185	1	8
414.356	1	-4
414.526	1	1
414.697	1	8
414.868	1	-2
415.038	1	-1
415.209	1	-8
415.380	1	11
415.550	1	1
415.721	1	-6
415.892	1	0
416.063	1	5
416.233	1	2
416.404	1	0
416.575	1	5
416.745	1	12
416.916	1	-2
417.087	1	1
417.257	1	6
417.428	1	1
417.599	1	1
417.769	1	16
417.940	1	-1
418.111	1	10
418.281	1	-10
418.452	1	9
418.623	1	-3
418.793	1	6
418.964	1	-3
419.135	1	15
419.305	1	-1
419.476	1	-8
419.647	1	6
419.817	1	0
419.988	1	2
420.159	1	9
420.329	1	7
420.500	1	3
420.671	1	-5
420.841	1	5
421.012	1	7
421.183	1	-1
421.353	1	5
421.524	1	5
421.695	1	-4
421.865	1	-9
422.036	1	5
422.206	1	10
422.377	1	3
422.548	1	-1
422.718	1	15
422.889	1	2
423.060	1	3
423.230	1	9
423.401	1	-3
423.572	1	2
423.742	1	-2
423.913	1	2
424.084	1	16
424.254	1	-7
424.425	1	-3
424.595	1	11
424.766	1	0
424.937	1	8
425.107	1	-1
425.278	1	7
425.449	1	8
425.619	1	1
425.790	1	7
425.961	1	-3
426.131	1	12
426.302	1	-4
426.472	1	-1
426.643	1	7
426.814	1	2
426.984	1	3
427.155	1	12
427.326	1	6
427.496	1	-1
427.667	1	3
427.837	1	11
428.008	1	13
428.179	1	4
428.349	1	2
428.520	1	4
428.691	1	2
428.861	1	-5
429.032	1	5
429.202	1	-1
429.373	1	7
429.544	1	4
429.714	1	2
429.885	1	6
430.055	1	0
430.226	1	8
430.397	1	2
430.567	1	12
430.738	1	1
430.909	1	-1
431.079	1	2
431.250	1	18
431.420	1	0
431.591	1	8
431.762	1	6
431.932	1	-2
432.103	1	4
432.273	1	6
432.444	1	4
432.615	1	0
432.785	1	6
432.956	1	5
433.126	1	-3
433.297	1	-4
433.468	1	3
433.638	1	9
433.809	1	-6
433.979	1	5
434.150	1	5
434.320	1	11
434.491	1	2
434.662	1	-5
434.832	1	6
435.003	1	5
435.173	1	13
435.344	1	-3
435.515	1	13
435.685	1	5
435.856	1	15
436.026	1	10
436.197	1	-14
436.368	1	4
436.538	1	7
436.709	1	-9
436.879	1	10
437.050	1	-8
437.220	1	1
437.391	1	-1
437.562	1	3
437.732	1	4
437.903	1	13
438.073	1	1
438.244	1	4
438.414	1	2
438.585	1	2
438.756	1	1
438.926	1	3
439.097	1	1
439.267	1	0
439.438	1	5
439.608	1	5
439.779	1	8
439.949	1	20
440.120	1	-3
440.291	1	11
440.461	1	18
440.632	1	1
440.802	1	15
440.973	1	-1
441.143	1	3
441.314	1	-14
441.485	1	0
441.655	1	0
441.826	1	7
441.996	1	-1
442.167	1	6
442.337	1	6
442.508	1	-1
442.678	1	4
442.849	1	-3
443.019	1	-2
443.190	1	2
443.361	1	9
443.531	1	4
443.702	1	17
443.872	1	-2
444.043	1	1
444.213	1	-5
444.384	1	4
444.554	1	1
444.725	1	6
444.895	1	-13
445.066	1	7
445.237	1	-2
445.407	1	4
445.578	1	8
445.748	1	4
445.919	1	12
446.089	1	1
446.260	1	6
446.430	1	-5
446.601	1	1
446.771	1	-9
446.942	1	4
447.112	1	13
447.283	1	7
447.453	1	14
447.624	1	1
447.794	1	2
447.965	1	2
448.135	1	5
448.306	1	1
448.477	1	16
448.647	1	8
448.818	1	7
448.988	1	11
449.159	1	-3
449.329	1	3
449.500	1	13
449.670	1	-9
449.841	1	-4
450.011	1	8
450.182	1	10
450.352	1	-6
450.523	1	5
450.693	1	3
450.864	1	10
451.034	1	-5
451.205	1	3
451.375	1	1
451.546	1	-9
451.716	1	7
451.887	1	-5
452.057	1	7
452.228	1	4
452.398	1	8
452.569	1	11
452.739	1	0
452.910	1	13
453.080	1	6
453.251	1	8
453.421	1	-8
453.592	1	-5
453.762	1	-5
453.933	1	2
454.103	1	6
454.274	1	2
454.444	1	-2
454.615	1	4
454.785	1	5
454.956	1	0
455.126	1	7
455.297	1	-7
455.467	1	-9
455.638	1	6
455.808	1	15
455.979	1	8
456.149	1	3
456.320	1	0
456.490	1	1
456.661	1	1
456.831	1	-3
457.001	1	11
457.172	1	0
457.342	1	3
457.513	1	6
457.683	1	17
457.854	1	15
458.024	1	7
458.195	1	-2
458.365	1	11
458.536	1	3
458.706	1	8
458.877	1	7
459.047	1	1
459.218	1	3
459.388	1	5
459.559	1	4
459.729	1	11
459.899	1	-1
460.070	1	6
460.240	1	-4
460.411	1	3
460.581	1	0
460.752	1	13
460.922	1	-5
461.093	1	10
461.263	1	-3
461.434	1	0
461.604	1	7
461.775	1	5
461.945	1	5
462.115	1	5
462.286	1	0
462.456	1	-5
462.627	1	6
462.797	1	3
462.968	1	11
463.138	1	2
463.309	1	10
463.479	1	-1
463.649	1	11
463.820	1	11
463.990	1	5
464.161	1	0
464.331	1	0
464.502	1	11
464.672	1	6
464.843	1	0
465.013	1	7
465.183	1	1
465.354	1	-8
465.524	1	4
465.695	1	9
465.865	1	8
466.036	1	0
466.206	1	1
466.376	1	5
466.547	1	4
466.717	1	0
466.888	1	4
467.058	1	5
467.229	1	4
467.399	1	5
467.569	1	11
467.740	1	7
467.910	1	-5
468.081	1	8
468.251	1	-2
468.422	1	13
468.592	1	2
468.762	1	12
468.933	1	0
469.103	1	7
469.274	1	9
469.444	1	-4
469.614	1	8
469.785	1	-6
469.955	1	8
470.126	1	-4
470.296	1	4
470.467	1	10
470.637	1	8
470.807	1	9
470.978	1	-2
471.148	1	-10
471.319	1	8
471.489	1	-2
471.659	1	1
471.830	1	-4
472.000	1	3
472.171	1	8
472.341	1	7
472.511	1	5
472.682	1	2
472.852	1	5
473.023	1	4
473.193	1	8
473.363	1	0
473.534	1	12
473.704	1	5
473.875	1	9
474.045	1	11
474.215	1	0
474.386	1	2
474.556	1	10
474.727	1	7
474.897	1	4
475.067	1	1
475.238	1	-5
475.408	1	-7
475.578	1	6
475.749	1	10
475.919	1	7
476.090	1	0
476.260	1	13
476.430	1	0
476.601	1	8
476.771	1	14
476.942	1	-3
477.112	1	-4
477.282	1	13
477.453	1	12
477.623	1	5
477.793	1	13
477.964	1	6
478.134	1	8
478.305	1	-3
478.475	1	2
478.645	1	3
478.816	1	-8
478.986	1	2
479.156	1	14
479.327	1	-1
479.497	1	8
479.667	1	-9
479.838	1	10
480.008	1	14
480.179	1	0
480.349	1	13
480.519	1	0
480.690	1	7
480.860	1	-3
481.030	1	4
481.201	1	7
481.371	1	0
481.541	1	12
481.712	1	9
481.882	1	8
482.053	1	5
482.223	1	7
482.393	1	-2
482.564	1	-3
482.734	1	8
482.904	1	10
483.075	1	8
483.245	1	1
483.415	1	6
483.586	1	10
483.756	1	16
483.926	1	11
484.097	1	-7
484.267	1	11
484.437	1	4
484.608	1	5
484.778	1	-6
484.948	1	-2
485.119	1	7
485.289	1	1
485.459	1	8
485.630	1	7
485.800	1	3
485.970	1	10
486.141	1	9
486.311	1	9
486.481	1	0
486.652	1	11
486.822	1	16
486.992	1	11
487.163	1	12
487.333	1	-1
487.503	1	8
487.674	1	-5
487.844	1	4
488.014	1	12
488.185	1	9
488.355	1	3
488.525	1	11
488.696	1	7
488.866	1	18
489.036	1	4
489.207	1	17
489.377	1	10
489.547	1	18
489.718	1	12
489.888	1	11
490.058	1	12
490.228	1	5
490.399	1	9
490.569	1	13
490.739	1	14
490.910	1	7
491.080	1	9
491.250	1	12
491.421	1	4
491.591	1	8
491.761	1	4
491.932	1	10
492.102	1	8
492.272	1	19
492.442	1	16
492.613	1	2
492.783	1	3
492.953	1	8
493.124	1	1
493.294	1	5
493.464	1	3
493.635	1	4
493.805	1	10
493.975	1	8
494.145	1	15
494.316	1	10
494.486	1	8
494.656	1	5
494.827	1	6
494.997	1	10
495.167	1	8
495.337	1	12
495.508	1	8
495.678	1	9
495.848	1	2
496.019	1	3
496.189	1	-1
496.359	1	9
496.529	1	10
496.700	1	15
496.870	1	-2
497.040	1	6
497.211	1	11
497.381	1	18
497.551	1	13
497.721	1	3
497.892	1	12
498.062	1	6
498.232	1	9
498.403	1	6
498.573	1	1
498.743	1	11
498.913	1	17
499.084	1	3
499.254	1	14
499.424	1	11
499.594	1	9
499.765	1	0
499.935	1	9
500.105	1	7
500.275	1	11
500.446	1	9
500.616	1	5
500.786	1	8
500.956	1	17
501.127	1	20
501.297	1	5
501.467	1	15
501.638	1	13
501.808	1	15
501.978	1	4
502.148	1	17
502.319	1	19
502.489	1	10
502.659	1	15
502.829	1	13
503.000	1	16
503.170	1	25
503.340	1	20
503.510	1	21
503.681	1	15
503.851	1	13
504.021	1	13
504.191	1	14
504.362	1	16
504.532	1	3
504.702	1	15
504.872	1	14
505.042	1	22
505.213	1	15
505.383	1	11
505.553	1	1
505.723	1	12
505.894	1	19
506.064	1	11
506.234	1	-1
506.404	1	19
506.575	1	13
506.745	1	15
506.915	1	16
507.085	1	3
507.256	1	4
507.426	1	3
507.596	1	23
507.766	1	18
507.936	1	23
508.107	1	12
508.277	1	8
508.447	1	6
508.617	1	19
508.788	1	4
508.958	1	15
509.128	1	12
509.298	1	18
509.468	1	8
509.639	1	19
509.809	1	19
509.979	1	19
510.149	1	25
510.319	1	8
510.490	1	17
510.660	1	3
510.830	1	19
511.000	1	14
511.171	1	16
511.341	1	19
511.511	1	14
511.681	1	10
511.851	1	20
512.022	1	21
512.192	1	15
512.362	1	18
512.532	1	2
512.702	1	14
512.873	1	11
513.043	1	19
513.213	1	13
513.383	1	20
513.553	1	17
513.724	1	8
513.894	1	9
514.064	1	28
514.234	1	15
514.404	1	5
514.575	1	0
514.745	1	6
514.915	1	21
515.085	1	14
515.255	1	5
515.425	1	10
515.596	1	6
515.766	1	19
515.936	1	13
516.106	1	25
516.276	1	14
516.447	1	15
516.617	1	10
516.787	1	23
516.957	1	5
517.127	1	24
517.297	1	22
517.468	1	17
517.638	1	4
517.808	1	18
517.978	1	24
518.148	1	10
518.319	1	12
518.489	1	17
518.659	1	15
518.829	1	18
518.999	1	25
519.169	1	6
519.340	1	19
519.510	1	19
519.680	1	17
519.850	1	15
520.020	1	14
520.190	1	15
520.361	1	12
520.531	1	20
520.701	1	16
520.871	1	12
521.041	1	20
521.211	1	16
521.382	1	16
521.552	1	22
521.722	1	12
521.892	1	14
522.062	1	21
522.232	1	17
522.402	1	7
522.573	1	20
522.743	1	23
522.913	1	25
523.083	1	9
523.253	1	31
523.423	1	18
523.593	1	17
523.764	1	16
523.934	1	13
524.104	1	21
524.274	1	11
524.444	1	10
524.614	1	15
524.784	1	26
524.955	1	12
525.125	1	16
525.295	1	12
525.465	1	15
525.635	1	20
525.805	1	14
525.975	1	15
526.146	1	15
526.316	1	25
526.486	1	14
526.656	1	22
526.826	1	20
526.996	1	23
527.166	1	15
527.337	1	13
527.507	1	14
527.677	1	16
527.847	1	24
528.017	1	16
528.187	1	25
528.357	1	12
528.527	1	12
528.698	1	15
528.868	1	24
529.038	1	15
529.208	1	21
529.378	1	19
529.548	1	26
529.718	1	17
529.888	1	8
530.058	1	21
530.229	1	27
530.399	1	23
530.569	1	16
530.739	1	16
530.909	1	5
531.079	1	19
531.249	1	17
531.419	1	22
531.589	1	16
531.760	1	25
531.930	1	21
532.100	1	18
532.270	1	25
532.440	1	30
532.610	1	19
532.780	1	16
532.950	1	12
533.120	1	19
533.290	1	22
533.461	1	15
533.631	1	11
533.801	1	19
533.971	1	23
534.141	1	15
534.311	1	9
534.481	1	27
534.651	1	27
534.821	1	18
534.991	1	13
535.162	1	19
535.332	1	14
535.502	1	20
535.672	1	18
535.842	1	22
536.012	1	11
536.182	1	12
536.352	1	17
536.522	1	22
536.692	1	28
536.862	1	18
537.032	1	12
537.203	1	11
537.373	1	5
537.543	1	18
537.713	1	15
537.883	1	27
538.053	1	22
538.223	1	19
538.393	1	25
538.563	1	18
538.733	1	23
538.903	1	16
539.073	1	16
539.243	1	7
539.413	1	12
539.584	1	17
539.754	1	17
539.924	1	16
540.094	1	13
540.264	1	18
540.434	1	11
540.604	1	16
540.774	1	14
540.944	1	8
541.114	1	20
541.284	1	20
541.454	1	9
541.624	1	-1
541.794	1	8
541.964	1	15
542.134	1	12
542.305	1	15
542.475	1	19
542.645	1	17
542.815	1	17
542.985	1	26
543.155	1	18
543.325	1	15
543.495	1	15
543.665	1	5
543.835	1	3
544.005	1	27
544.175	1	14
544.345	1	18
544.515	1	21
544.685	1	17
544.855	1	9
545.025	1	14
545.195	1	8
545.365	1	17
545.535	1	11
545.705	1	10
545.875	1	10
546.045	1	9
546.216	1	20
546.386	1	16
546.556	1	6
546.726	1	12
546.896	1	23
547.066	1	20
547.236	1	17
547.406	1	19
547.576	1	13
547.746	1	6
547.916	1	9
548.086	1	17
548.256	1	26
548.426	1	18
548.596	1	2
548.766	1	15
548.936	1	8
549.106	1	16
549.276	1	17
549.446	1	13
549.616	1	24
549.786	1	19
549.956	1	14
550.126	1	13
550.296	1	17
550.466	1	20
550.636	1	20
550.806	1	12
550.976	1	14
551.146	1	14
551.316	1	22
551.486	1	14
551.656	1	10
551.826	1	21
551.996	1	10
552.166	1	10
552.336	1	21
552.506	1	25
552.676	1	19
552.846	1	14
553.016	1	14
553.186	1	8
553.356	1	16
553.526	1	8
553.696	1	19
553.866	1	4
554.036	1	11
554.206	1	10
554.376	1	12
554.546	1	10
554.716	1	8
554.886	1	10
555.056	1	5
555.226	1	5
555.396	1	9
555.566	1	14
555.736	1	8
555.906	1	3
556.076	1	18
556.246	1	9
556.416	1	10
556.586	1	4
556.756	1	16
556.926	1	21
557.096	1	10
557.266	1	20
557.436	1	13
557.606	1	14
557.776	1	7
557.946	1	21
558.116	1	4
558.286	1	9
558.456	1	4
558.626	1	19
558.796	1	12
558.966	1	17
559.136	1	20
559.306	1	21
559.476	1	9
559.646	1	15
559.816	1	11
559.986	1	15
560.155	1	6
560.325	1	11
560.495	1	12
560.665	1	10
560.835	1	3
561.005	1	11
561.175	1	-2
561.345	1	2
561.515	1	15
561.685	1	11
561.855	1	13
562.025	1	-3
562.195	1	21
562.365	1	9
562.535	1	14
562.705	1	13
562.875	1	6
563.045	1	14
563.215	1	6
563.385	1	17
563.555	1	8
563.725	1	2
563.895	1	10
564.064	1	11
564.234	1	12
564.404	1	-2
564.574	1	-2
564.744	1	15
564.914	1	16
565.084	1	15
565.254	1	10
565.424	1	12
565.594	1	7
565.764	1	7
565.934	1	19
566.104	1	12
566.274	1	8
566.444	1	6
566.614	1	6
566.783	1	17
566.953	1	9
567.123	1	20
567.293	1	15
567.463	1	5
567.633	1	9
567.803	1	9
567.973	1	1
568.143	1	8
568.313	1	4
568.483	1	5
568.653	1	10
568.823	1	10
568.993	1	11
569.162	1	6
569.332	1	19
569.502	1	8
569.672	1	6
569.842	1	3
570.012	1	10
570.182	1	8
570.352	1	11
570.522	1	17
570.692	1	16
570.862	1	13
571.031	1	9
571.201	1	6
571.371	1	17
571.541	1	1
571.711	1	13
571.881	1	2
572.051	1	8
572.221	1	22
572.391	1	15
572.561	1	12
572.731	1	6
572.900	1	6
573.070	1	3
573.240	1	13
573.410	1	10
573.580	1	9
573.750	1	15
573.920	1	13
574.090	1	11
574.260	1	15
574.430	1	14
574.599	1	6
574.769	1	-2
574.939	1	7
575.109	1	-1
575.279	1	11
575.449	1	13
575.619	1	9
575.789	1	13
575.959	1	2
576.128	1	8
576.298	1	11
576.468	1	4
576.638	1	16
576.808	1	13
576.978	1	10
577.148	1	10
577.318	1	12
577.487	1	7
577.657	1	0
577.827	1	6
577.997	1	10
578.167	1	9
578.337	1	7
578.507	1	28
578.677	1	9
578.846	1	11
579.016	1	7
579.186	1	-6
579.356	1	7
579.526	1	5
579.696	1	-3
579.866	1	10
580.036	1	4
580.205	1	1
580.375	1	7
580.545	1	0
580.715	1	16
580.885	1	7
581.055	1	7
581.225	1	4
581.394	1	7
581.564	1	9
581.734	1	9
581.904	1	7
582.074	1	11
582.244	1	2
582.414	1	5
582.583	1	8
582.753	1	9
582.923	1	14
583.093	1	5
583.263	1	13
583.433	1	20
583.603	1	2
583.772	1	3
583.942	1	10
584.112	1	14
584.282	1	-4
584.452	1	-3
584.622	1	22
584.791	1	11
584.961	1	4
585.131	1	15
585.301	1	16
585.471	1	8
585.641	1	9
585.811	1	1
585.980	1	5
586.150	1	6
586.320	1	14
586.490	1	10
586.660	1	4
586.830	1	-4
586.999	1	10
587.169	1	17
587.339	1	1
587.509	1	1
587.679	1	3
587.849	1	7
588.018	1	7
588.188	1	7
588.358	1	16
588.528	1	-2
588.698	1	2
588.867	1	-4
589.037	1	2
589.207	1	4
589.377	1	10
589.547	1	5
589.717	1	16
589.886	1	6
590.056	1	5
590.226	1	15
590.396	1	9
590.566	1	2
590.735	1	5
590.905	1	10
591.075	1	-1
591.245	1	7
591.415	1	10
591.585	1	9
591.754	1	20
591.924	1	-2
592.094	1	11
592.264	1	-5
592.434	1	0
592.603	1	5
592.773	1	16
592.943	1	6
593.113	1	12
593.283	1	16
593.452	1	3
593.622	1	-1
593.792	1	6
593.962	1	7
594.132	1	15
594.301	1	9
594.471	1	13
594.641	1	13
594.811	1	3
594.981	1	11
595.150	1	7
595.320	1	2
595.490	1	0
595.660	1	8
595.829	1	12
595.999	1	10
596.169	1	8
596.339	1	6
596.509	1	3
596.678	1	5
596.848	1	12
597.018	1	9
597.188	1	-6
597.358	1	8
597.527	1	2
597.697	1	7
597.867	1	7
598.037	1	-4
598.206	1	6
598.376	1	-5
598.546	1	4
598.716	1	5
598.885	1	8
599.055	1	6
599.225	1	8
599.395	1	2
599.565	1	5
599.734	1	11
599.904	1	11
600.074	1	7
600.244	1	7
600.413	1	2
600.583	1	4
600.753	1	12
600.923	1	7
601.092	1	8
601.262	1	1
601.432	1	6
601.602	1	4
601.771	1	11
601.941	1	12
602.111	1	5
602.281	1	3
602.451	1	8
602.620	1	12
602.790	1	16
602.960	1	6
603.130	1	4
603.299	1	10
603.469	1	1
603.639	1	8
603.809	1	2
603.978	1	9
604.148	1	6
604.318	1	9
604.487	1	14
604.657	1	8
604.827	1	0
604.997	1	1
605.166	1	11
605.336	1	7
605.506	1	3
605.676	1	3
605.845	1	4
606.015	1	7
606.185	1	6
606.355	1	11
606.524	1	3
606.694	1	2
606.864	1	3
607.034	1	7
607.203	1	3
607.373	1	17
607.543	1	11
607.712	1	-3
607.882	1	3
608.052	1	-3
608.222	1	0
608.391	1	9
608.561	1	16
608.731	1	11
608.901	1	12
609.070	1	10
609.240	1	4
609.410	1	-3
609.579	1	3
609.749	1	10
609.919	1	2
610.089	1	14
610.258	1	5
610.428	1	10
610.598	1	7
610.767	1	1
610.937	1	10
611.107	1	0
611.277	1	5
611.446	1	-10
611.616	1	1
611.786	1	6
611.955	1	9
612.125	1	5
612.295	1	8
612.465	1	-3
612.634	1	7
612.804	1	2
612.974	1	3
613.143	1	-4
613.313	1	3
613.483	1	3
613.652	1	18
613.822	1	19
613.992	1	9
614.162	1	3
614.331	1	-5
614.501	1	0
614.671	1	6
614.840	1	6
615.010	1	10
615.180	1	18
615.349	1	6
615.519	1	4
615.689	1	9
615.858	1	6
616.028	1	1
616.198	1	8
616.368	1	4
616.537	1	10
616.707	1	6
616.877	1	4
617.046	1	0
617.216	1	11
617.386	1	2
617.555	1	-1
617.725	1	-1
617.895	1	0
618.064	1	3
618.234	1	12
618.404	1	3
618.573	1	-2
618.743	1	7
618.913	1	7
619.082	1	9
619.252	1	15
619.422	1	-5
619.591	1	2
619.761	1	-1
619.931	1	6
620.100	1	7
620.270	1	9
620.440	1	7
620.609	1	7
620.779	1	-2
620.949	1	9
621.118	1	0
621.288	1	15
621.458	1	9
621.627	1	1
621.797	1	5
621.967	1	-2
622.136	1	10
622.306	1	7
622.476	1	-4
622.645	1	-1
622.815	1	18
622.985	1	5
623.154	1	12
623.324	1	-9
623.494	1	7
623.663	1	7
623.833	1	7
624.002	1	6
624.172	1	0
624.342	1	12
624.511	1	7
624.681	1	4
624.851	1	2
625.020	1	0
625.190	1	10
625.360	1	1
625.529	1	2
625.699	1	8
625.869	1	12
626.038	1	3
626.208	1	8
626.377	1	9
626.547	1	-6
626.717	1	8
626.886	1	7
627.056	1	-1
627.226	1	17
627.395	1	0
627.565	1	5
627.735	1	-6
627.904	1	-1
628.074	1	5
628.243	1	5
628.413	1	6
628.583	1	1
628.752	1	1
628.922	1	-10
629.091	1	-8
629.261	1	1
629.431	1	12
629.600	1	2
629.770	1	10
629.940	1	0
630.109	1	3
630.279	1	-1
630.448	1	4
630.618	1	2
630.788	1	5
630.957	1	0
631.127	1	6
631.297	1	3
631.466	1	13
631.636	1	11
631.805	1	12
631.975	1	1
632.145	1	10
632.314	1	8
632.484	1	1
632.653	1	2
632.823	1	2
632.993	1	0
633.162	1	17
633.332	1	-3
633.501	1	5
633.671	1	5
633.841	1	0
634.010	1	3
634.180	1	4
634.349	1	-3
634.519	1	14
634.689	1	10
634.858	1	12
635.028	1	12
635.197	1	11
635.367	1	5
635.537	1	-6
635.706	1	1
635.876	1	1
636.045	1	10
636.215	1	1
636.384	1	4
636.554	1	-5
636.724	1	12
636.893	1	0
637.063	1	4
637.232	1	2
637.402	1	21
637.572	1	-1
637.741	1	2
637.911	1	7
638.080	1	6
638.250	1	10
638.419	1	-2
638.589	1	9
638.759	1	6
638.928	1	7
639.098	1	-5
639.267	1	4
639.437	1	2
639.606	1	-7
639.776	1	12
639.946	1	0
640.115	1	12
640.285	1	0
640.454	1	-3
640.624	1	-4
640.793	1	-1
640.963	1	-2
641.132	1	2
641.302	1	0
641.472	1	-3
641.641	1	4
641.811	1	11
641.980	1	2
642.150	1	3
642.319	1	9
642.489	1	-4
642.659	1	-2
642.828	1	5
642.998	1	5
643.167	1	0
643.337	1	0
643.506	1	12
643.676	1	10
643.845	1	12
644.015	1	6
644.184	1	8
644.354	1	4
644.524	1	6
644.693	1	17
644.863	1	-12
645.032	1	-2
645.202	1	15
645.371	1	9
645.541	1	8
645.710	1	4
645.880	1	4
646.049	1	14
646.219	1	2
646.388	1	3
646.558	1	5
646.728	1	18
646.897	1	12
647.067	1	2
647.236	1	3
647.406	1	9
647.575	1	4
647.745	1	-4
647.914	1	9
648.084	1	7
648.253	1	9
648.423	1	1
648.592	1	-1
648.762	1	2
648.931	1	-1
649.101	1	10
649.270	1	-2
649.440	1	-4
649.610	1	16
649.779	1	-1
649.949	1	5
650.118	1	0
650.288	1	11
650.457	1	8
650.627	1	1
650.796	1	17
650.966	1	10
651.135	1	2
651.305	1	0
651.474	1	6
651.644	1	12
651.813	1	4
651.983	1	6
652.152	1	-4
652.322	1	2
652.491	1	7
652.661	1	6
652.830	1	-3
653.000	1	-1
653.169	1	-1
653.339	1	1
653.508	1	7
653.678	1	7
653.847	1	-4
654.017	1	17
654.186	1	12
654.356	1	-1
654.525	1	1
654.695	1	13
654.864	1	13
655.034	1	3
655.203	1	6
655.373	1	7
655.542	1	7
655.712	1	-2
655.881	1	2
656.051	1	4
656.220	1	4
656.390	1	5
656.559	1	1
656.729	1	8
656.898	1	12
657.068	1	7
657.237	1	6
657.406	1	-2
657.576	1	3
657.745	1	6
657.915	1	7
658.084	1	-10
658.254	1	14
658.423	1	1
658.593	1	7
658.762	1	4
658.932	1	-4
659.101	1	2
659.271	1	3
659.440	1	-4
659.610	1	8
659.779	1	4
659.949	1	3
660.118	1	11
660.288	1	10
660.457	1	-2
660.626	1	1
660.796	1	1
660.965	1	17
661.135	1	-12
661.304	1	5
661.474	1	12
661.643	1	13
661.813	1	-1
661.982	1	13
662.152	1	6
662.321	1	4
662.491	1	0
662.660	1	-4
662.829	1	4
662.999	1	8
663.168	1	6
663.338	1	8
663.507	1	9
663.677	1	-4
663.846	1	-3
664.016	1	10
664.185	1	10
664.354	1	6
664.524	1	7
664.693	1	-2
664.863	1	-6
665.032	1	2
665.202	1	13
665.371	1	11
665.541	1	9
665.710	1	5
665.879	1	13
666.049	1	7
666.218	1	16
666.388	1	5
666.557	1	7
666.727	1	0
666.896	1	5
667.065	1	4
667.235	1	3
667.404	1	5
667.574	1	1
667.743	1	3
667.913	1	0
668.082	1	11
668.251	1	5
668.421	1	19
668.590	1	-5
668.760	1	9
668.929	1	0
669.099	1	8
669.268	1	4
669.437	1	10
669.607	1	-5
669.776	1	12
669.946	1	9
670.115	1	7
670.285	1	9
670.454	1	-6
670.623	1	4
670.793	1	12
670.962	1	3
671.132	1	8
671.301	1	8
671.470	1	15
671.640	1	7
671.809	1	11
671.979	1	-1
672.148	1	1
672.317	1	8
672.487	1	1
672.656	1	-2
672.826	1	2
672.995	1	1
673.164	1	8
673.334	1	-6
673.503	1	2
673.673	1	4
673.842	1	0
674.011	1	4
674.181	1	-1
674.350	1	5
674.520	1	12
674.689	1	12
674.858	1	0
675.028	1	8
675.197	1	17
675.367	1	-2
675.536	1	1
675.705	1	6
675.875	1	1
676.044	1	19
676.214	1	-4
676.383	1	-1
676.552	1	3
676.722	1	8
676.891	1	20
677.060	1	-10
677.230	1	1
677.399	1	0
677.569	1	8
677.738	1	7
677.907	1	2
678.077	1	19
678.246	1	1
678.416	1	-2
678.585	1	6
678.754	1	10
678.924	1	8
679.093	1	8
679.262	1	1
679.432	1	3
679.601	1	8
679.771	1	3
679.940	1	14
680.109	1	6
680.279	1	2
680.448	1	11
680.617	1	-11
680.787	1	7
680.956	1	-2
681.125	1	13
681.295	1	-2
681.464	1	9
681.634	1	5
681.803	1	12
681.972	1	0
682.142	1	5
682.311	1	5
682.480	1	7
682.650	1	-2
682.819	1	8
682.988	1	2
683.158	1	2
683.327	1	8
683.496	1	15
683.666	1	8
683.835	1	0
684.004	1	3
684.174	1	5
684.343	1	11
684.512	1	8
684.682	1	8
684.851	1	-4
685.021	1	-4
685.190	1	1
685.359	1	5
685.529	1	12
685.698	1	-2
685.867	1	4
686.037	1	-4
686.206	1	-2
686.375	1	12
686.545	1	20
686.714	1	9
686.883	1	2
687.053	1	1
687.222	1	7
687.391	1	7
687.561	1	0
687.730	1	11
687.899	1	4
688.069	1	2
688.238	1	-5
688.407	1	-5
688.577	1	16
688.746	1	0
