340.368	1	-1
340.539	1	-1
340.710	1	-11
340.881	1	-9
341.052	1	5
341.223	1	-7
341.394	1	4
341.565	1	3
341.737	1	-7
341.908	1	10
342.079	1	-1
342.250	1	2
342.421	1	9
342.592	1	-3
342.763	1	8
342.934	1	3
343.105	1	7
343.276	1	-1
343.447	1	-8
343.618	1	2
343.789	1	1
343.960	1	2
344.131	1	0
344.302	1	-7
344.473	1	0
344.644	1	-1
344.815	1	7
344.986	1	7
345.157	1	-8
345.328	1	7
345.499	1	-4
345.670	1	9
345.841	1	2
346.012	1	1
346.183	1	4
346.354	1	-2
346.526	1	12
346.697	1	16
346.868	1	11
347.039	1	-1
347.210	1	-3
347.381	1	-2
347.552	1	8
347.723	1	9
347.894	1	-3
348.065	1	-11
348.236	1	-2
348.407	1	7
348.578	1	1
348.749	1	9
348.920	1	-8
349.091	1	0
349.262	1	3
349.433	1	8
349.604	1	9
349.775	1	4
349.946	1	14
350.117	1	-14
350.288	1	0
350.459	1	-2
350.630	1	10
350.801	1	3
350.972	1	0
351.143	1	-2
351.314	1	6
351.485	1	-2
351.656	1	-1
351.827	1	3
351.998	1	11
352.169	1	8
352.340	1	10
352.511	1	8
352.682	1	14
352.853	1	12
353.024	1	2
353.195	1	12
353.366	1	5
353.537	1	7
353.708	1	8
353.879	1	2
354.050	1	-7
354.221	1	-1
354.392	1	6
354.563	1	-8
354.734	1	2
354.905	1	11
355.076	1	4
355.247	1	0
355.418	1	-11
355.589	1	9
355.760	1	7
355.931	1	3
356.102	1	6
356.273	1	-1
356.444	1	1
356.615	1	1
356.785	1	3
356.956	1	9
357.127	1	3
357.298	1	8
357.469	1	-2
357.640	1	-9
357.811	1	0
357.982	1	0
358.153	1	7
358.324	1	12
358.495	1	3
358.666	1	13
358.837	1	5
359.008	1	1
359.179	1	-2
359.350	1	5
359.521	1	9
359.692	1	10
359.863	1	4
360.034	1	-3
360.205	1	12
360.376	1	6
360.547	1	13
360.718	1	1
360.889	1	16
361.060	1	-3
361.231	1	6
361.401	1	4
361.572	1	7
361.743	1	13
361.914	1	10
362.085	1	6
362.256	1	17
362.427	1	4
362.598	1	5
362.769	1	4
362.940	1	24
363.111	1	19
363.282	1	15
363.453	1	12
363.624	1	16
363.795	1	10
363.966	1	10
364.137	1	20
364.308	1	9
364.478	1	5
364.649	1	9
364.820	1	12
364.991	1	15
365.162	1	27
365.333	1	16
365.504	1	10
365.675	1	20
365.846	1	4
366.017	1	17
366.188	1	13
366.359	1	13
366.530	1	17
366.701	1	10
366.871	1	16
367.042	1	18
367.213	1	13
367.384	1	24
367.555	1	18
367.726	1	28
367.897	1	21
368.068	1	19
368.239	1	16
368.410	1	21
368.581	1	18
368.752	1	14
368.923	1	14
369.093	1	14
369.264	1	21
369.435	1	16
369.606	1	20
369.777	1	15
369.948	1	29
370.119	1	11
370.290	1	10
370.461	1	30
370.632	1	18
370.803	1	13
370.973	1	16
371.144	1	15
371.315	1	27
371.486	1	17
371.657	1	16
371.828	1	19
371.999	1	18
372.170	1	28
372.341	1	29
372.512	1	7
372.682	1	26
372.853	1	19
373.024	1	13
373.195	1	14
373.366	1	11
373.537	1	26
373.708	1	11
373.879	1	4
374.050	1	7
374.220	1	19
374.391	1	17
374.562	1	11
374.733	1	9
374.904	1	9
375.075	1	17
375.246	1	6
375.417	1	13
375.588	1	12
375.758	1	14
375.929	1	8
376.100	1	9
376.271	1	17
376.442	1	16
376.613	1	-3
376.784	1	1
376.955	1	8
377.125	1	16
377.296	1	10
377.467	1	15
377.638	1	6
377.809	1	16
377.980	1	1
378.151	1	10
378.321	1	9
378.492	1	-1
378.663	1	4
378.834	1	1
379.005	1	6
379.176	1	3
379.347	1	12
379.518	1	7
379.688	1	-2
379.859	1	10
380.030	1	16
380.201	1	-1
380.372	1	-2
380.543	1	7
380.714	1	13
380.884	1	0
381.055	1	9
381.226	1	9
381.397	1	13
381.568	1	-3
381.739	1	5
381.910	1	15
382.080	1	11
382.251	1	12
382.422	1	3
382.593	1	9
382.764	1	-1
382.935	1	-7
383.105	1	6
383.276	1	17
383.447	1	14
383.618	1	8
383.789	1	10
383.960	1	13
384.130	1	5
384.301	1	7
384.472	1	-7
384.643	1	2
384.814	1	13
384.985	1	1
385.156	1	13
385.326	1	-2
385.497	1	10
385.668	1	11
385.839	1	0
386.010	1	6
386.180	1	10
386.351	1	1
386.522	1	6
386.693	1	4
386.864	1	11
387.035	1	6
387.205	1	-3
387.376	1	-8
387.547	1	12
387.718	1	3
387.889	1	6
388.060	1	3
388.230	1	5
388.401	1	1
388.572	1	2
388.743	1	11
388.914	1	4
389.084	1	-5
389.255	1	5
389.426	1	9
389.597	1	12
389.768	1	10
389.939	1	6
390.109	1	7
390.280	1	9
390.451	1	1
390.622	1	7
390.793	1	0
390.963	1	4
391.134	1	-1
391.305	1	-2
391.476	1	19
391.647	1	-17
391.817	1	1
391.988	1	10
392.159	1	10
392.330	1	10
392.501	1	4
392.671	1	-4
392.842	1	-10
393.013	1	2
393.184	1	9
393.355	1	11
393.525	1	11
393.696	1	2
393.867	1	4
394.038	1	-4
394.208	1	8
394.379	1	3
394.550	1	3
394.721	1	-4
394.892	1	-2
395.062	1	-5
395.233	1	10
395.404	1	5
395.575	1	3
395.746	1	6
395.916	1	-5
396.087	1	7
396.258	1	-5
396.429	1	14
396.599	1	-9
396.770	1	5
396.941	1	7
397.112	1	-2
397.283	1	4
397.453	1	11
397.624	1	9
397.795	1	-1
397.966	1	-2
398.136	1	1
398.307	1	2
398.478	1	2
398.649	1	4
398.819	1	5
398.990	1	-7
399.161	1	-1
399.332	1	0
399.503	1	0
399.673	1	3
399.844	1	-5
400.015	1	6
400.186	1	4
400.356	1	-7
400.527	1	16
400.698	1	-4
400.869	1	0
401.039	1	4
401.210	1	9
401.381	1	10
401.552	1	3
401.722	1	0
401.893	1	13
402.064	1	-3
402.235	1	5
402.405	1	-6
402.576	1	-9
402.747	1	0
402.918	1	-1
403.088	1	-1
403.259	1	12
403.430	1	7
403.601	1	10
403.771	1	-5
403.942	1	6
404.113	1	-5
404.284	1	-4
404.454	1	-8
404.625	1	3
404.796	1	4
404.967	1	10
405.137	1	6
405.308	1	0
405.479	1	-1
405.649	1	9
405.820	1	0
405.991	1	4
406.162	1	5
406.332	1	-5
406.503	1	4
406.674	1	2
406.845	1	6
407.015	1	2
407.186	1	-6
407.357	1	3
407.527	1	1
407.698	1	5
407.869	1	-7
408.040	1	4
408.210	1	-3
408.381	1	6
408.552	1	-9
408.722	1	3
408.893	1	-2
409.064	1	7
409.235	1	-5
409.405	1	5
409.576	1	1
409.747	1	2
409.917	1	5
410.088	1	14
410.259	1	4
410.430	1	-3
410.600	1	-6
410.771	1	4
410.942	1	4
411.112	1	-7
411.283	1	-1
411.454	1	7
411.625	1	-11
411.795	1	15
411.966	1	5
412.137	1	-2
412.307	1	2
412.478	1	3
412.649	1	5
412.819	1	2
412.990	1	9
413.161	1	9
413.332	1	1
413.502	1	-2
413.673	1	3
413.844	1	5
414.014	1	4
414.185	1	-1
414.356	1	-3
414.526	1	4
414.697	1	5
414.868	1	3
415.038	1	-11
415.209	1	-14
415.380	1	5
415.550	1	0
415.721	1	-7
415.892	1	8
416.063	1	6
416.233	1	1
416.404	1	3
416.575	1	-1
416.745	1	1
416.916	1	-3
417.087	1	4
417.257	1	8
417.428	1	-1
417.599	1	5
417.769	1	4
417.940	1	-4
418.111	1	1
418.281	1	-10
418.452	1	4
418.623	1	2
418.793	1	8
418.964	1	-4
419.135	1	3
419.305	1	-3
419.476	1	4
419.647	1	-1
419.817	1	-3
419.988	1	5
420.159	1	9
420.329	1	-3
420.500	1	-1
420.671	1	0
420.841	1	0
421.012	1	1
421.183	1	4
421.353	1	2
421.524	1	6
421.695	1	-11
421.865	1	4
422.036	1	4
422.206	1	13
422.377	1	4
422.548	1	10
422.718	1	1
422.889	1	0
423.060	1	-1
423.230	1	2
423.401	1	-2
423.572	1	-4
423.742	1	-6
423.913	1	-2
424.084	1	17
424.254	1	1
424.425	1	4
424.595	1	5
424.766	1	1
424.937	1	0
425.107	1	3
425.278	1	-2
425.449	1	6
425.619	1	-4
425.790	1	1
425.961	1	0
426.131	1	11
426.302	1	-4
426.472	1	-4
426.643	1	9
426.814	1	-10
426.984	1	4
427.155	1	9
427.326	1	3
427.496	1	-3
427.667	1	5
427.837	1	3
428.008	1	14
428.179	1	7
428.349	1	-3
428.520	1	-5
428.691	1	1
428.861	1	5
429.032	1	8
429.202	1	-5
429.373	1	7
429.544	1	-6
429.714	1	1
429.885	1	11
430.055	1	3
430.226	1	9
430.397	1	10
430.567	1	3
430.738	1	-5
430.909	1	-5
431.079	1	1
431.250	1	14
431.420	1	0
431.591	1	0
431.762	1	10
431.932	1	-7
432.103	1	7
432.273	1	2
432.444	1	2
432.615	1	-9
432.785	1	-2
432.956	1	8
433.126	1	-2
433.297	1	0
433.468	1	2
433.638	1	12
433.809	1	0
433.979	1	4
434.150	1	0
434.320	1	7
434.491	1	0
434.662	1	-2
434.832	1	2
435.003	1	8
435.173	1	3
435.344	1	1
435.515	1	-2
435.685	1	-1
435.856	1	14
436.026	1	3
436.197	1	-3
436.368	1	9
436.538	1	10
436.709	1	5
436.879	1	9
437.050	1	-7
437.220	1	3
437.391	1	-6
437.562	1	12
437.732	1	0
437.903	1	7
438.073	1	-1
438.244	1	-4
438.414	1	-3
438.585	1	2
438.756	1	2
438.926	1	5
439.097	1	6
439.267	1	7
439.438	1	7
439.608	1	-5
439.779	1	6
439.949	1	4
440.120	1	-2
440.291	1	5
440.461	1	10
440.632	1	-7
440.802	1	11
440.973	1	5
441.143	1	-1
441.314	1	2
441.485	1	-4
441.655	1	0
441.826	1	5
441.996	1	-5
442.167	1	9
442.337	1	-1
442.508	1	-1
442.678	1	6
442.849	1	-1
443.019	1	-5
443.190	1	-6
443.361	1	11
443.531	1	4
443.702	1	9
443.872	1	4
444.043	1	-4
444.213	1	-2
444.384	1	-2
444.554	1	8
444.725	1	6
444.895	1	-15
445.066	1	8
445.237	1	5
445.407	1	5
445.578	1	-4
445.748	1	11
445.919	1	-1
446.089	1	0
446.260	1	6
446.430	1	1
446.601	1	2
446.771	1	-11
446.942	1	1
447.112	1	13
447.283	1	7
447.453	1	4
447.624	1	-6
447.794	1	7
447.965	1	-2
448.135	1	4
448.306	1	1
448.477	1	8
448.647	1	-2
448.818	1	15
448.988	1	8
449.159	1	2
449.329	1	4
449.500	1	10
449.670	1	-8
449.841	1	4
450.011	1	6
450.182	1	6
450.352	1	-11
450.523	1	12
450.693	1	-1
450.864	1	13
451.034	1	-3
451.205	1	-1
451.375	1	4
451.546	1	-9
451.716	1	8
451.887	1	-3
452.057	1	4
452.228	1	2
452.398	1	-3
452.569	1	15
452.739	1	-3
452.910	1	9
453.080	1	3
453.251	1	3
453.421	1	5
453.592	1	-5
453.762	1	2
453.933	1	6
454.103	1	-5
454.274	1	-6
454.444	1	0
454.615	1	0
454.785	1	0
454.956	1	5
455.126	1	7
455.297	1	-13
455.467	1	-9
455.638	1	8
455.808	1	14
455.979	1	7
456.149	1	-1
456.320	1	7
456.490	1	0
456.661	1	-1
456.831	1	-2
457.001	1	7
457.172	1	3
457.342	1	8
457.513	1	11
457.683	1	8
457.854	1	6
458.024	1	7
458.195	1	5
458.365	1	0
458.536	1	9
458.706	1	-1
458.877	1	-3
459.047	1	-1
459.218	1	5
459.388	1	6
459.559	1	-4
459.729	1	-1
459.899	1	2
460.070	1	4
460.240	1	4
460.411	1	6
460.581	1	6
460.752	1	7
460.922	1	-3
461.093	1	8
461.263	1	1
461.434	1	-7
461.604	1	5
461.775	1	0
461.945	1	6
462.115	1	7
462.286	1	-11
462.456	1	-3
462.627	1	7
462.797	1	6
462.968	1	7
463.138	1	5
463.309	1	2
463.479	1	3
463.649	1	6
463.820	1	12
463.990	1	-12
464.161	1	4
464.331	1	2
464.502	1	8
464.672	1	-2
464.843	1	6
465.013	1	10
465.183	1	5
465.354	1	-9
465.524	1	14
465.695	1	4
465.865	1	10
466.036	1	-11
466.206	1	11
466.376	1	5
466.547	1	4
466.717	1	0
466.888	1	-4
467.058	1	2
467.229	1	6
467.399	1	11
467.569	1	2
467.740	1	-9
467.910	1	0
468.081	1	1
468.251	1	-9
468.422	1	-4
468.592	1	-3
468.762	1	17
468.933	1	-2
469.103	1	12
469.274	1	-3
469.444	1	3
469.614	1	-1
469.785	1	-11
469.955	1	4
470.126	1	3
470.296	1	-3
470.467	1	8
470.637	1	1
470.807	1	4
470.978	1	-14
471.148	1	-3
471.319	1	2
471.489	1	-7
471.659	1	-3
471.830	1	4
472.000	1	1
472.171	1	4
472.341	1	1
472.511	1	3
472.682	1	5
472.852	1	4
473.023	1	4
473.193	1	10
473.363	1	-9
473.534	1	7
473.704	1	-5
473.875	1	-2
474.045	1	7
474.215	1	1
474.386	1	6
474.556	1	6
474.727	1	9
474.897	1	-5
475.067	1	-6
475.238	1	-11
475.408	1	-8
475.578	1	-4
475.749	1	4
475.919	1	5
476.090	1	12
476.260	1	6
476.430	1	-7
476.601	1	-3
476.771	1	8
476.942	1	-1
477.112	1	-4
477.282	1	8
477.453	1	1
477.623	1	4
477.793	1	4
477.964	1	-2
478.134	1	4
478.305	1	-5
478.475	1	3
478.645	1	7
478.816	1	-3
478.986	1	-5
479.156	1	12
479.327	1	-7
479.497	1	0
479.667	1	-2
479.838	1	13
480.008	1	-3
480.179	1	-8
480.349	1	3
480.519	1	-4
480.690	1	12
480.860	1	-5
481.030	1	5
481.201	1	5
481.371	1	0
481.541	1	5
481.712	1	2
481.882	1	8
482.053	1	-6
482.223	1	8
482.393	1	0
482.564	1	1
482.734	1	-3
482.904	1	4
483.075	1	4
483.245	1	-6
483.415	1	2
483.586	1	0
483.756	1	5
483.926	1	-1
484.097	1	-5
484.267	1	5
484.437	1	1
484.608	1	2
484.778	1	-5
484.948	1	-1
485.119	1	1
485.289	1	-3
485.459	1	-2
485.630	1	7
485.800	1	7
485.970	1	-3
486.141	1	4
486.311	1	6
486.481	1	3
486.652	1	8
486.822	1	6
486.992	1	8
487.163	1	2
487.333	1	-1
487.503	1	-1
487.674	1	-2
487.844	1	7
488.014	1	2
488.185	1	-4
488.355	1	-10
488.525	1	7
488.696	1	1
488.866	1	5
489.036	1	6
489.207	1	8
489.377	1	4
489.547	1	15
489.718	1	8
489.888	1	0
490.058	1	6
490.228	1	-8
490.399	1	5
490.569	1	10
490.739	1	1
490.910	1	11
491.080	1	-3
491.250	1	6
491.421	1	11
491.591	1	-4
491.761	1	-3
491.932	1	1
492.102	1	1
492.272	1	3
492.442	1	4
492.613	1	2
492.783	1	-1
492.953	1	6
493.124	1	-1
493.294	1	-1
493.464	1	-5
493.635	1	-2
493.805	1	1
493.975	1	6
494.145	1	13
494.316	1	-5
494.486	1	11
494.656	1	1
494.827	1	0
494.997	1	2
495.167	1	8
495.337	1	13
495.508	1	2
495.678	1	0
495.848	1	-6
496.019	1	-8
496.189	1	-3
496.359	1	-3
496.529	1	-3
496.700	1	11
496.870	1	-2
497.040	1	-1
497.211	1	2
497.381	1	6
497.551	1	3
497.721	1	-8
497.892	1	11
498.062	1	5
498.232	1	3
498.403	1	0
498.573	1	-4
498.743	1	12
498.913	1	7
499.084	1	-2
499.254	1	4
499.424	1	7
499.594	1	3
499.765	1	-9
499.935	1	4
500.105	1	2
500.275	1	3
500.446	1	3
500.616	1	-6
500.786	1	-1
500.956	1	9
501.127	1	0
501.297	1	11
501.467	1	-4
501.638	1	-2
501.808	1	-4
501.978	1	4
502.148	1	7
502.319	1	5
502.489	1	-4
502.659	1	7
502.829	1	-3
503.000	1	13
503.170	1	10
503.340	1	8
503.510	1	-4
503.681	1	0
503.851	1	-6
504.021	1	1
504.191	1	-2
504.362	1	12
504.532	1	-5
504.702	1	5
504.872	1	8
505.042	1	-1
505.213	1	-6
505.383	1	1
505.553	1	0
505.723	1	-5
505.894	1	15
506.064	1	0
506.234	1	2
506.404	1	1
506.575	1	5
506.745	1	6
506.915	1	9
507.085	1	-6
507.256	1	-3
507.426	1	-3
507.596	1	2
507.766	1	4
507.936	1	15
508.107	1	5
508.277	1	-1
508.447	1	7
508.617	1	8
508.788	1	-8
508.958	1	-1
509.128	1	5
509.298	1	5
509.468	1	-2
509.639	1	13
509.809	1	13
509.979	1	6
510.149	1	10
510.319	1	-13
510.490	1	12
510.660	1	-5
510.830	1	6
511.000	1	10
511.171	1	4
511.341	1	4
511.511	1	1
511.681	1	0
511.851	1	7
512.022	1	3
512.192	1	6
512.362	1	-1
512.532	1	-1
512.702	1	-5
512.873	1	-1
513.043	1	8
513.213	1	0
513.383	1	2
513.553	1	6
513.724	1	8
513.894	1	-4
514.064	1	12
514.234	1	-7
514.404	1	0
514.575	1	-4
514.745	1	7
514.915	1	4
515.085	1	9
515.255	1	-5
515.425	1	7
515.596	1	-2
515.766	1	10
515.936	1	1
516.106	1	5
516.276	1	3
516.447	1	2
516.617	1	1
516.787	1	6
516.957	1	-15
517.127	1	11
517.297	1	12
517.468	1	8
517.638	1	1
517.808	1	12
517.978	1	0
518.148	1	0
518.319	1	12
518.489	1	17
518.659	1	-2
518.829	1	2
518.999	1	13
519.169	1	-1
519.340	1	3
519.510	1	4
519.680	1	-3
519.850	1	6
520.020	1	-1
520.190	1	3
520.361	1	6
520.531	1	6
520.701	1	7
520.871	1	6
521.041	1	4
521.211	1	3
521.382	1	0
521.552	1	1
521.722	1	12
521.892	1	8
522.062	1	3
522.232	1	-2
522.402	1	0
522.573	1	7
522.743	1	16
522.913	1	12
523.083	1	2
523.253	1	15
523.423	1	-2
523.593	1	9
523.764	1	5
523.934	1	1
524.104	1	8
524.274	1	4
524.444	1	-2
524.614	1	6
524.784	1	3
524.955	1	5
525.125	1	10
525.295	1	11
525.465	1	2
525.635	1	2
525.805	1	4
525.975	1	-2
526.146	1	0
526.316	1	6
526.486	1	3
526.656	1	9
526.826	1	7
526.996	1	4
527.166	1	11
527.337	1	-5
527.507	1	7
527.677	1	0
527.847	1	3
528.017	1	8
528.187	1	-2
528.357	1	-6
528.527	1	-2
528.698	1	-5
528.868	1	1
529.038	1	0
529.208	1	5
529.378	1	2
529.548	1	5
529.718	1	12
529.888	1	15
530.058	1	5
530.229	1	16
530.399	1	7
530.569	1	3
530.739	1	-5
530.909	1	5
531.079	1	4
531.249	1	5
531.419	1	9
531.589	1	16
531.760	1	4
531.930	1	16
532.100	1	3
532.270	1	-2
532.440	1	-2
532.610	1	-1
532.780	1	-2
532.950	1	-9
533.120	1	12
533.290	1	7
533.461	1	7
533.631	1	-1
533.801	1	10
533.971	1	6
534.141	1	0
534.311	1	2
534.481	1	13
534.651	1	13
534.821	1	7
534.991	1	3
535.162	1	6
535.332	1	9
535.502	1	0
535.672	1	6
535.842	1	3
536.012	1	-5
536.182	1	2
536.352	1	1
536.522	1	8
536.692	1	7
536.862	1	14
537.032	1	-4
537.203	1	9
537.373	1	2
537.543	1	1
537.713	1	4
537.883	1	9
538.053	1	8
538.223	1	10
538.393	1	7
538.563	1	1
538.733	1	0
538.903	1	12
539.073	1	3
539.243	1	4
539.413	1	3
539.584	1	0
539.754	1	5
539.924	1	-1
540.094	1	1
540.264	1	-1
540.434	1	4
540.604	1	7
540.774	1	0
540.944	1	2
541.114	1	1
541.284	1	4
541.454	1	-5
541.624	1	3
541.794	1	3
541.964	1	7
542.134	1	-3
542.305	1	2
542.475	1	7
542.645	1	3
542.815	1	7
542.985	1	4
543.155	1	10
543.325	1	3
543.495	1	7
543.665	1	-5
543.835	1	-4
544.005	1	20
544.175	1	0
544.345	1	0
544.515	1	4
544.685	1	3
544.855	1	1
545.025	1	3
545.195	1	-4
545.365	1	4
545.535	1	7
545.705	1	8
545.875	1	0
546.045	1	1
546.216	1	1
546.386	1	3
546.556	1	-3
546.726	1	9
546.896	1	4
547.066	1	10
547.236	1	5
547.406	1	8
547.576	1	-2
547.746	1	3
547.916	1	-5
548.086	1	1
548.256	1	5
548.426	1	9
548.596	1	-13
548.766	1	7
548.936	1	-2
549.106	1	23
549.276	1	7
549.446	1	8
549.616	1	19
549.786	1	-6
549.956	1	-4
550.126	1	0
550.296	1	5
550.466	1	12
550.636	1	6
550.806	1	6
550.976	1	2
551.146	1	11
551.316	1	-1
551.486	1	2
551.656	1	10
551.826	1	10
551.996	1	8
552.166	1	0
552.336	1	5
552.506	1	3
552.676	1	7
552.846	1	0
553.016	1	1
553.186	1	11
553.356	1	6
553.526	1	1
553.696	1	-2
553.866	1	2
554.036	1	9
554.206	1	-1
554.376	1	5
554.546	1	-5
554.716	1	0
554.886	1	4
555.056	1	5
555.226	1	-7
555.396	1	-1
555.566	1	2
555.736	1	4
555.906	1	-4
556.076	1	-2
556.246	1	4
556.416	1	2
556.586	1	2
556.756	1	1
556.926	1	11
557.096	1	3
557.266	1	8
557.436	1	-3
557.606	1	5
557.776	1	5
557.946	1	4
558.116	1	-3
558.286	1	8
558.456	1	-5
558.626	1	17
558.796	1	-1
558.966	1	3
559.136	1	10
559.306	1	3
559.476	1	6
559.646	1	-5
559.816	1	-1
559.986	1	5
560.155	1	8
560.325	1	5
560.495	1	6
560.665	1	5
560.835	1	-3
561.005	1	6
561.175	1	-3
561.345	1	0
561.515	1	3
561.685	1	-4
561.855	1	8
562.025	1	-8
562.195	1	11
562.365	1	4
562.535	1	4
562.705	1	6
562.875	1	12
563.045	1	-3
563.215	1	-4
563.385	1	14
563.555	1	1
563.725	1	-5
563.895	1	0
564.064	1	4
564.234	1	-2
564.404	1	3
564.574	1	-9
564.744	1	5
564.914	1	-4
565.084	1	5
565.254	1	-4
565.424	1	8
565.594	1	10
565.764	1	-4
565.934	1	3
566.104	1	0
566.274	1	3
566.444	1	4
566.614	1	-1
566.783	1	0
566.953	1	2
567.123	1	-6
567.293	1	7
567.463	1	-6
567.633	1	7
567.803	1	3
567.973	1	-2
568.143	1	0
568.313	1	-1
568.483	1	-2
568.653	1	2
568.823	1	3
568.993	1	4
569.162	1	4
569.332	1	9
569.502	1	6
569.672	1	5
569.842	1	3
570.012	1	2
570.182	1	-2
570.352	1	3
570.522	1	-6
570.692	1	6
570.862	1	5
571.031	1	7
571.201	1	11
571.371	1	11
571.541	1	-3
571.711	1	-1
571.881	1	0
572.051	1	-5
572.221	1	1
572.391	1	8
572.561	1	1
572.731	1	1
572.900	1	4
573.070	1	-4
573.240	1	1
573.410	1	3
573.580	1	-1
573.750	1	0
573.920	1	13
574.090	1	-5
574.260	1	12
574.430	1	15
574.599	1	-6
574.769	1	-7
574.939	1	3
575.109	1	3
575.279	1	4
575.449	1	3
575.619	1	3
575.789	1	3
575.959	1	-8
576.128	1	4
576.298	1	1
576.468	1	-2
576.638	1	9
576.808	1	1
576.978	1	2
577.148	1	3
577.318	1	0
577.487	1	13
577.657	1	-1
577.827	1	-9
577.997	1	-6
578.167	1	1
578.337	1	7
578.507	1	10
578.677	1	3
578.846	1	3
579.016	1	10
579.186	1	-9
579.356	1	4
579.526	1	-2
579.696	1	-1
579.866	1	3
580.036	1	0
580.205	1	0
580.375	1	1
580.545	1	0
580.715	1	7
580.885	1	-5
581.055	1	2
581.225	1	-5
581.394	1	5
581.564	1	-4
581.734	1	10
581.904	1	-3
582.074	1	2
582.244	1	-1
582.414	1	0
582.583	1	-6
582.753	1	2
582.923	1	7
583.093	1	6
583.263	1	14
583.433	1	8
583.603	1	0
583.772	1	0
583.942	1	3
584.112	1	-2
584.282	1	-9
584.452	1	-8
584.622	1	16
584.791	1	8
584.961	1	2
585.131	1	10
585.301	1	9
585.471	1	11
585.641	1	2
585.811	1	-1
585.980	1	-4
586.150	1	1
586.320	1	-1
586.490	1	1
586.660	1	-1
586.830	1	-5
586.999	1	-2
587.169	1	13
587.339	1	2
587.509	1	7
587.679	1	0
587.849	1	3
588.018	1	2
588.188	1	10
588.358	1	11
588.528	1	4
588.698	1	-5
588.867	1	-1
589.037	1	-3
589.207	1	-2
589.377	1	3
589.547	1	6
589.717	1	7
589.886	1	1
590.056	1	-1
590.226	1	5
590.396	1	13
590.566	1	5
590.735	1	-4
590.905	1	6
591.075	1	8
591.245	1	0
591.415	1	0
591.585	1	7
591.754	1	1
591.924	1	4
592.094	1	5
592.264	1	0
592.434	1	-4
592.603	1	0
592.773	1	12
592.943	1	7
593.113	1	5
593.283	1	4
593.452	1	1
593.622	1	1
593.792	1	12
593.962	1	4
594.132	1	8
594.301	1	9
594.471	1	9
594.641	1	3
594.811	1	-3
594.981	1	8
595.150	1	1
595.320	1	6
595.490	1	4
595.660	1	4
595.829	1	2
595.999	1	7
596.169	1	6
596.339	1	9
596.509	1	1
596.678	1	-5
596.848	1	-2
597.018	1	4
597.188	1	-9
597.358	1	0
597.527	1	6
597.697	1	1
597.867	1	4
598.037	1	-2
598.206	1	7
598.376	1	-3
598.546	1	-3
598.716	1	-1
598.885	1	7
599.055	1	2
599.225	1	9
599.395	1	6
599.565	1	12
599.734	1	11
599.904	1	4
600.074	1	-6
600.244	1	6
600.413	1	-4
600.583	1	5
600.753	1	13
600.923	1	9
601.092	1	-8
601.262	1	-8
601.432	1	-8
601.602	1	-4
601.771	1	7
601.941	1	1
602.111	1	-4
602.281	1	-1
602.451	1	5
602.620	1	2
602.790	1	11
602.960	1	4
603.130	1	-8
603.299	1	0
603.469	1	4
603.639	1	12
603.809	1	6
603.978	1	8
604.148	1	1
604.318	1	0
604.487	1	3
604.657	1	14
604.827	1	-6
604.997	1	-4
605.166	1	10
605.336	1	-1
605.506	1	-7
605.676	1	-4
605.845	1	9
606.015	1	6
606.185	1	6
606.355	1	4
606.524	1	-5
606.694	1	-5
606.864	1	-5
607.034	1	9
607.203	1	1
607.373	1	5
607.543	1	7
607.712	1	-5
607.882	1	1
608.052	1	-1
608.222	1	-5
608.391	1	11
608.561	1	2
608.731	1	8
608.901	1	3
609.070	1	0
609.240	1	-3
609.410	1	8
609.579	1	10
609.749	1	-4
609.919	1	-5
610.089	1	-4
610.258	1	0
610.428	1	1
610.598	1	6
610.767	1	7
610.937	1	3
611.107	1	0
611.277	1	5
611.446	1	0
611.616	1	9
611.786	1	10
611.955	1	12
612.125	1	2
612.295	1	0
612.465	1	-6
612.634	1	-9
612.804	1	1
612.974	1	7
613.143	1	-16
613.313	1	-1
613.483	1	-5
613.652	1	15
613.822	1	5
613.992	1	5
614.162	1	8
614.331	1	5
614.501	1	-7
614.671	1	9
614.840	1	6
615.010	1	4
615.180	1	9
615.349	1	4
615.519	1	-1
615.689	1	8
615.858	1	0
616.028	1	10
616.198	1	1
616.368	1	-1
616.537	1	0
616.707	1	13
616.877	1	-1
617.046	1	-5
617.216	1	11
617.386	1	3
617.555	1	-4
617.725	1	8
617.895	1	4
618.064	1	3
618.234	1	-1
618.404	1	-6
618.573	1	-2
618.743	1	4
618.913	1	10
619.082	1	-1
619.252	1	0
619.422	1	-13
619.591	1	-1
619.761	1	1
619.931	1	0
620.100	1	4
620.270	1	5
620.440	1	6
620.609	1	8
620.779	1	-2
620.949	1	8
621.118	1	-1
621.288	1	-2
621.458	1	-2
621.627	1	2
621.797	1	10
621.967	1	0
622.136	1	3
622.306	1	2
622.476	1	-2
622.645	1	0
622.815	1	2
622.985	1	-4
623.154	1	-4
623.324	1	1
623.494	1	-7
623.663	1	0
623.833	1	9
624.002	1	2
624.172	1	6
624.342	1	3
624.511	1	3
624.681	1	8
624.851	1	-5
625.020	1	2
625.190	1	7
625.360	1	7
625.529	1	9
625.699	1	4
625.869	1	10
626.038	1	9
626.208	1	6
626.377	1	16
626.547	1	-5
626.717	1	0
626.886	1	5
627.056	1	0
627.226	1	3
627.395	1	2
627.565	1	7
627.735	1	-6
627.904	1	3
628.074	1	5
628.243	1	-1
628.413	1	-11
628.583	1	4
628.752	1	-2
628.922	1	-6
629.091	1	-10
629.261	1	9
629.431	1	9
629.600	1	-7
629.770	1	5
629.940	1	-1
630.109	1	5
630.279	1	-1
630.448	1	5
630.618	1	1
630.788	1	8
630.957	1	3
631.127	1	4
631.297	1	-3
631.466	1	7
631.636	1	6
631.805	1	6
631.975	1	3
632.145	1	8
632.314	1	-3
632.484	1	-3
632.653	1	8
632.823	1	-2
632.993	1	2
633.162	1	7
633.332	1	2
633.501	1	-2
633.671	1	12
633.841	1	-2
634.010	1	12
634.180	1	3
634.349	1	0
634.519	1	0
634.689	1	5
634.858	1	-2
635.028	1	3
635.197	1	4
635.367	1	-3
635.537	1	-3
635.706	1	-5
635.876	1	5
636.045	1	6
636.215	1	2
636.384	1	-4
636.554	1	-5
636.724	1	4
636.893	1	2
637.063	1	2
637.232	1	1
637.402	1	14
637.572	1	-7
637.741	1	-4
637.911	1	4
638.080	1	6
638.250	1	5
638.419	1	-1
638.589	1	6
638.759	1	-2
638.928	1	7
639.098	1	-4
639.267	1	0
639.437	1	-12
639.606	1	-8
639.776	1	1
639.946	1	2
640.115	1	6
640.285	1	15
640.454	1	4
640.624	1	-7
640.793	1	1
640.963	1	2
641.132	1	-3
641.302	1	-7
641.472	1	0
641.641	1	8
641.811	1	17
641.980	1	2
642.150	1	-6
642.319	1	2
642.489	1	-10
642.659	1	7
642.828	1	5
642.998	1	6
643.167	1	1
643.337	1	-1
643.506	1	8
643.676	1	5
643.845	1	1
644.015	1	6
644.184	1	10
644.354	1	1
644.524	1	3
644.693	1	-7
644.863	1	-5
645.032	1	4
645.202	1	3
645.371	1	-2
645.541	1	2
645.710	1	8
645.880	1	-1
646.049	1	9
646.219	1	1
646.388	1	7
646.558	1	-2
646.728	1	-1
646.897	1	4
647.067	1	7
647.236	1	3
647.406	1	6
647.575	1	-4
647.745	1	2
647.914	1	0
648.084	1	-1
648.253	1	2
648.423	1	9
648.592	1	8
648.762	1	6
648.931	1	2
649.101	1	8
649.270	1	-1
649.440	1	-9
649.610	1	-1
649.779	1	-2
649.949	1	0
650.118	1	1
650.288	1	-3
650.457	1	-8
650.627	1	-8
650.796	1	0
650.966	1	4
651.135	1	-3
651.305	1	-2
651.474	1	11
651.644	1	5
651.813	1	11
651.983	1	4
652.152	1	-1
652.322	1	-1
652.491	1	8
652.661	1	-3
652.830	1	-1
653.000	1	-3
653.169	1	-2
653.339	1	-8
653.508	1	8
653.678	1	4
653.847	1	4
654.017	1	5
654.186	1	12
654.356	1	-3
654.525	1	-1
654.695	1	5
654.864	1	8
655.034	1	0
655.203	1	3
655.373	1	6
655.542	1	0
655.712	1	-12
655.881	1	4
656.051	1	7
656.220	1	3
656.390	1	-1
656.559	1	-3
656.729	1	10
656.898	1	10
657.068	1	11
657.237	1	7
657.406	1	5
657.576	1	-2
657.745	1	6
657.915	1	4
658.084	1	-5
658.254	1	7
658.423	1	5
658.593	1	5
658.762	1	2
658.932	1	2
659.101	1	6
659.271	1	-3
659.440	1	-8
659.610	1	9
659.779	1	2
659.949	1	1
660.118	1	-3
660.288	1	1
660.457	1	8
660.626	1	9
660.796	1	-1
660.965	1	4
661.135	1	-10
661.304	1	0
661.474	1	14
661.643	1	8
661.813	1	6
661.982	1	7
662.152	1	10
662.321	1	0
662.491	1	-7
662.660	1	-6
662.829	1	5
662.999	1	1
663.168	1	4
663.338	1	0
663.507	1	8
663.677	1	3
663.846	1	2
664.016	1	2
664.185	1	-3
664.354	1	6
664.524	1	7
664.693	1	-6
664.863	1	3
665.032	1	0
665.202	1	9
665.371	1	2
665.541	1	4
665.710	1	6
665.879	1	4
666.049	1	-3
666.218	1	6
666.388	1	7
666.557	1	13
666.727	1	2
666.896	1	1
667.065	1	0
667.235	1	-5
667.404	1	15
667.574	1	-8
667.743	1	4
667.913	1	-5
668.082	1	8
668.251	1	4
668.421	1	2
668.590	1	-5
668.760	1	4
668.929	1	3
669.099	1	14
669.268	1	0
669.437	1	7
669.607	1	-4
669.776	1	-4
669.946	1	0
670.115	1	0
670.285	1	8
670.454	1	-8
670.623	1	6
670.793	1	5
670.962	1	2
671.132	1	3
671.301	1	0
671.470	1	7
671.640	1	3
671.809	1	2
671.979	1	-7
672.148	1	3
672.317	1	12
672.487	1	5
672.656	1	-1
672.826	1	2
672.995	1	-6
673.164	1	1
673.334	1	-5
673.503	1	-10
673.673	1	2
673.842	1	6
674.011	1	12
674.181	1	7
674.350	1	3
674.520	1	2
674.689	1	10
674.858	1	-1
675.028	1	1
675.197	1	5
675.367	1	1
675.536	1	-12
675.705	1	4
675.875	1	3
676.044	1	9
676.214	1	3
676.383	1	-4
676.552	1	11
676.722	1	8
676.891	1	12
677.060	1	-10
677.230	1	1
677.399	1	-2
677.569	1	-2
677.738	1	6
677.907	1	-5
678.077	1	23
678.246	1	-3
678.416	1	-1
678.585	1	7
678.754	1	-5
678.924	1	11
679.093	1	7
679.262	1	1
679.432	1	3
679.601	1	10
679.771	1	1
679.940	1	10
680.109	1	-3
680.279	1	3
680.448	1	4
680.617	1	-5
680.787	1	-2
680.956	1	-13
681.125	1	4
681.295	1	3
681.464	1	10
681.634	1	-2
681.803	1	4
681.972	1	-4
682.142	1	-1
682.311	1	5
682.480	1	0
682.650	1	-4
682.819	1	11
682.988	1	0
683.158	1	4
683.327	1	3
683.496	1	-1
683.666	1	3
683.835	1	-7
684.004	1	9
684.174	1	-5
684.343	1	16
684.512	1	-5
684.682	1	7
684.851	1	-8
685.021	1	-9
685.190	1	-10
685.359	1	6
685.529	1	15
685.698	1	-6
685.867	1	8
686.037	1	-1
686.206	1	3
686.375	1	4
686.545	1	5
686.714	1	-4
686.883	1	1
687.053	1	-5
687.222	1	5
687.391	1	13
687.561	1	3
687.730	1	10
687.899	1	-11
688.069	1	0
688.238	1	-2
688.407	1	-9
688.577	1	11
688.746	1	-9
