340.368	1	-7
340.539	1	7
340.710	1	-13
340.881	1	6
341.052	1	3
341.223	1	-5
341.394	1	4
341.565	1	2
341.737	1	1
341.908	1	-4
342.079	1	-3
342.250	1	6
342.421	1	0
342.592	1	-5
342.763	1	2
342.934	1	-1
343.105	1	8
343.276	1	-11
343.447	1	-6
343.618	1	-2
343.789	1	8
343.960	1	-12
344.131	1	0
344.302	1	-5
344.473	1	7
344.644	1	-2
344.815	1	14
344.986	1	5
345.157	1	-6
345.328	1	15
345.499	1	-4
345.670	1	8
345.841	1	8
346.012	1	4
346.183	1	4
346.354	1	4
346.526	1	12
346.697	1	10
346.868	1	8
347.039	1	-4
347.210	1	-5
347.381	1	-6
347.552	1	4
347.723	1	6
347.894	1	3
348.065	1	-9
348.236	1	4
348.407	1	-4
348.578	1	10
348.749	1	3
348.920	1	-1
349.091	1	7
349.262	1	4
349.433	1	3
349.604	1	7
349.775	1	3
349.946	1	10
350.117	1	-2
350.288	1	4
350.459	1	0
350.630	1	6
350.801	1	3
350.972	1	0
351.143	1	3
351.314	1	9
351.485	1	0
351.656	1	-5
351.827	1	0
351.998	1	2
352.169	1	-1
352.340	1	-1
352.511	1	3
352.682	1	3
352.853	1	0
353.024	1	-3
353.195	1	9
353.366	1	4
353.537	1	11
353.708	1	4
353.879	1	0
354.050	1	-5
354.221	1	3
354.392	1	5
354.563	1	-9
354.734	1	-1
354.905	1	12
355.076	1	-2
355.247	1	-1
355.418	1	-3
355.589	1	4
355.760	1	-6
355.931	1	0
356.102	1	3
356.273	1	-5
356.444	1	-1
356.615	1	3
356.785	1	4
356.956	1	8
357.127	1	3
357.298	1	6
357.469	1	5
357.640	1	-4
357.811	1	6
357.982	1	-3
358.153	1	12
358.324	1	13
358.495	1	-4
358.666	1	7
358.837	1	3
359.008	1	5
359.179	1	2
359.350	1	8
359.521	1	2
359.692	1	5
359.863	1	12
360.034	1	3
360.205	1	13
360.376	1	4
360.547	1	2
360.718	1	5
360.889	1	1
361.060	1	1
361.231	1	3
361.401	1	6
361.572	1	14
361.743	1	2
361.914	1	10
362.085	1	-3
362.256	1	7
362.427	1	0
362.598	1	6
362.769	1	-12
362.940	1	17
363.111	1	13
363.282	1	5
363.453	1	-7
363.624	1	6
363.795	1	-1
363.966	1	9
364.137	1	5
364.308	1	18
364.478	1	13
364.649	1	-5
364.820	1	8
364.991	1	9
365.162	1	14
365.333	1	1
365.504	1	5
365.675	1	3
365.846	1	3
366.017	1	6
366.188	1	7
366.359	1	10
366.530	1	13
366.701	1	7
366.871	1	14
367.042	1	5
367.213	1	8
367.384	1	12
367.555	1	8
367.726	1	14
367.897	1	14
368.068	1	16
368.239	1	11
368.410	1	16
368.581	1	14
368.752	1	5
368.923	1	8
369.093	1	2
369.264	1	12
369.435	1	10
369.606	1	15
369.777	1	9
369.948	1	15
370.119	1	6
370.290	1	12
370.461	1	12
370.632	1	3
370.803	1	10
370.973	1	11
371.144	1	13
371.315	1	25
371.486	1	0
371.657	1	5
371.828	1	7
371.999	1	16
372.170	1	14
372.341	1	17
372.512	1	9
372.682	1	18
372.853	1	7
373.024	1	-3
373.195	1	3
373.366	1	12
373.537	1	22
373.708	1	3
373.879	1	7
374.050	1	13
374.220	1	11
374.391	1	10
374.562	1	5
374.733	1	13
374.904	1	-2
375.075	1	9
375.246	1	15
375.417	1	13
375.588	1	2
375.758	1	18
375.929	1	2
376.100	1	8
376.271	1	8
376.442	1	21
376.613	1	8
376.784	1	-1
376.955	1	15
377.125	1	14
377.296	1	-2
377.467	1	9
377.638	1	10
377.809	1	16
377.980	1	-4
378.151	1	8
378.321	1	3
378.492	1	7
378.663	1	7
378.834	1	16
379.005	1	-5
379.176	1	1
379.347	1	6
379.518	1	5
379.688	1	8
379.859	1	10
380.030	1	11
380.201	1	-4
380.372	1	6
380.543	1	1
380.714	1	7
380.884	1	2
381.055	1	5
381.226	1	8
381.397	1	9
381.568	1	5
381.739	1	3
381.910	1	6
382.080	1	-3
382.251	1	0
382.422	1	4
382.593	1	6
382.764	1	3
382.935	1	8
383.105	1	9
383.276	1	20
383.447	1	5
383.618	1	5
383.789	1	16
383.960	1	9
384.130	1	-6
384.301	1	-1
384.472	1	-10
384.643	1	5
384.814	1	12
384.985	1	4
385.156	1	3
385.326	1	0
385.497	1	12
385.668	1	5
385.839	1	-3
386.010	1	7
386.180	1	9
386.351	1	19
386.522	1	10
386.693	1	-2
386.864	1	3
387.035	1	6
387.205	1	0
387.376	1	-6
387.547	1	8
387.718	1	-2
387.889	1	17
388.060	1	5
388.230	1	-7
388.401	1	-9
388.572	1	15
388.743	1	14
388.914	1	3
389.084	1	4
389.255	1	4
389.426	1	1
389.597	1	2
389.768	1	9
389.939	1	0
390.109	1	4
390.280	1	4
390.451	1	9
390.622	1	2
390.793	1	9
390.963	1	-6
391.134	1	-6
391.305	1	-1
391.476	1	15
391.647	1	0
391.817	1	-5
391.988	1	10
392.159	1	7
392.330	1	7
392.501	1	-4
392.671	1	-2
392.842	1	-2
393.013	1	12
393.184	1	5
393.355	1	8
393.525	1	6
393.696	1	6
393.867	1	3
394.038	1	-5
394.208	1	7
394.379	1	-6
394.550	1	4
394.721	1	-7
394.892	1	2
395.062	1	2
395.233	1	15
395.404	1	15
395.575	1	7
395.746	1	8
395.916	1	0
396.087	1	12
396.258	1	-4
396.429	1	0
396.599	1	-13
396.770	1	5
396.941	1	-1
397.112	1	-3
397.283	1	8
397.453	1	11
397.624	1	1
397.795	1	-10
397.966	1	1
398.136	1	6
398.307	1	-5
398.478	1	2
398.649	1	3
398.819	1	11
398.990	1	-5
399.161	1	-2
399.332	1	-2
399.503	1	3
399.673	1	3
399.844	1	-5
400.015	1	11
400.186	1	1
400.356	1	-7
400.527	1	18
400.698	1	-2
400.869	1	3
401.039	1	7
401.210	1	12
401.381	1	19
401.552	1	2
401.722	1	-2
401.893	1	13
402.064	1	-2
402.235	1	6
402.405	1	-5
402.576	1	-3
402.747	1	-3
402.918	1	-6
403.088	1	16
403.259	1	5
403.430	1	2
403.601	1	5
403.771	1	9
403.942	1	12
404.113	1	-4
404.284	1	-14
404.454	1	-6
404.625	1	10
404.796	1	9
404.967	1	10
405.137	1	4
405.308	1	6
405.479	1	-6
405.649	1	3
405.820	1	9
405.991	1	6
406.162	1	3
406.332	1	-12
406.503	1	7
406.674	1	6
406.845	1	3
407.015	1	4
407.186	1	2
407.357	1	-1
407.527	1	5
407.698	1	7
407.869	1	-6
408.040	1	1
408.210	1	3
408.381	1	-5
408.552	1	2
408.722	1	-1
408.893	1	-7
409.064	1	-1
409.235	1	2
409.405	1	1
409.576	1	2
409.747	1	5
409.917	1	6
410.088	1	4
410.259	1	5
410.430	1	-2
410.600	1	-3
410.771	1	-5
410.942	1	1
411.112	1	2
411.283	1	1
411.454	1	3
411.625	1	-8
411.795	1	12
411.966	1	8
412.137	1	-10
412.307	1	-1
412.478	1	-4
412.649	1	6
412.819	1	-4
412.990	1	-1
413.161	1	5
413.332	1	0
413.502	1	1
413.673	1	-5
413.844	1	4
414.014	1	6
414.185	1	-2
414.356	1	-3
414.526	1	10
414.697	1	1
414.868	1	-1
415.038	1	-4
415.209	1	-6
415.380	1	-4
415.550	1	3
415.721	1	-9
415.892	1	5
416.063	1	6
416.233	1	-1
416.404	1	4
416.575	1	4
416.745	1	0
416.916	1	0
417.087	1	9
417.257	1	-1
417.428	1	3
417.599	1	5
417.769	1	7
417.940	1	3
418.111	1	0
418.281	1	-2
418.452	1	-7
418.623	1	2
418.793	1	7
418.964	1	-11
419.135	1	2
419.305	1	4
419.476	1	0
419.647	1	4
419.817	1	-4
419.988	1	6
420.159	1	5
420.329	1	3
420.500	1	3
420.671	1	0
420.841	1	-12
421.012	1	-1
421.183	1	1
421.353	1	-4
421.524	1	3
421.695	1	-9
421.865	1	4
422.036	1	10
422.206	1	2
422.377	1	13
422.548	1	4
422.718	1	17
422.889	1	-1
423.060	1	-6
423.230	1	2
423.401	1	-5
423.572	1	2
423.742	1	-2
423.913	1	-9
424.084	1	12
424.254	1	0
424.425	1	-5
424.595	1	12
424.766	1	0
424.937	1	2
425.107	1	11
425.278	1	3
425.449	1	1
425.619	1	-8
425.790	1	10
425.961	1	-7
426.131	1	20
426.302	1	2
426.472	1	8
426.643	1	2
426.814	1	-12
426.984	1	-1
427.155	1	15
427.326	1	6
427.496	1	-2
427.667	1	9
427.837	1	4
428.008	1	12
428.179	1	3
428.349	1	-2
428.520	1	-4
428.691	1	-5
428.861	1	5
429.032	1	-1
429.202	1	-6
429.373	1	5
429.544	1	-1
429.714	1	1
429.885	1	3
430.055	1	2
430.226	1	5
430.397	1	5
430.567	1	13
430.738	1	-3
430.909	1	-1
431.079	1	10
431.250	1	12
431.420	1	-5
431.591	1	4
431.762	1	2
431.932	1	-7
432.103	1	-2
432.273	1	1
432.444	1	5
432.615	1	1
432.785	1	-9
432.956	1	11
433.126	1	2
433.297	1	-8
433.468	1	-2
433.638	1	-1
433.809	1	-1
433.979	1	7
434.150	1	-8
434.320	1	8
434.491	1	-12
434.662	1	-6
434.832	1	3
435.003	1	5
435.173	1	3
435.344	1	7
435.515	1	1
435.685	1	3
435.856	1	9
436.026	1	2
436.197	1	-7
436.368	1	-5
436.538	1	6
436.709	1	3
436.879	1	5
437.050	1	-7
437.220	1	-4
437.391	1	0
437.562	1	0
437.732	1	5
437.903	1	12
438.073	1	-2
438.244	1	10
438.414	1	-11
438.585	1	0
438.756	1	9
438.926	1	5
439.097	1	-4
439.267	1	7
439.438	1	2
439.608	1	0
439.779	1	10
439.949	1	6
440.120	1	6
440.291	1	3
440.461	1	15
440.632	1	-5
440.802	1	6
440.973	1	-1
441.143	1	-4
441.314	1	0
441.485	1	-10
441.655	1	5
441.826	1	2
441.996	1	1
442.167	1	3
442.337	1	4
442.508	1	-12
442.678	1	-1
442.849	1	-2
443.019	1	-1
443.190	1	7
443.361	1	4
443.531	1	2
443.702	1	3
443.872	1	-3
444.043	1	-4
444.213	1	-2
444.384	1	-1
444.554	1	1
444.725	1	4
444.895	1	-8
445.066	1	14
445.237	1	-11
445.407	1	8
445.578	1	-4
445.748	1	2
445.919	1	-2
446.089	1	7
446.260	1	8
446.430	1	-9
446.601	1	-6
446.771	1	-4
446.942	1	3
447.112	1	1
447.283	1	4
447.453	1	5
447.624	1	-5
447.794	1	0
447.965	1	2
448.135	1	2
448.306	1	3
448.477	1	0
448.647	1	2
448.818	1	8
448.988	1	6
449.159	1	6
449.329	1	6
449.500	1	15
449.670	1	-4
449.841	1	-7
450.011	1	3
450.182	1	4
450.352	1	-3
450.523	1	8
450.693	1	1
450.864	1	8
451.034	1	-3
451.205	1	-1
451.375	1	1
451.546	1	-3
451.716	1	6
451.887	1	1
452.057	1	4
452.228	1	10
452.398	1	0
452.569	1	12
452.739	1	-7
452.910	1	7
453.080	1	-6
453.251	1	2
453.421	1	3
453.592	1	0
453.762	1	-3
453.933	1	-1
454.103	1	-5
454.274	1	6
454.444	1	1
454.615	1	-4
454.785	1	-2
454.956	1	1
455.126	1	16
455.297	1	-15
455.467	1	2
455.638	1	-2
455.808	1	17
455.979	1	9
456.149	1	0
456.320	1	0
456.490	1	2
456.661	1	3
456.831	1	-2
457.001	1	5
457.172	1	-4
457.342	1	-4
457.513	1	9
457.683	1	10
457.854	1	3
458.024	1	3
458.195	1	9
458.365	1	7
458.536	1	-10
458.706	1	-1
458.877	1	6
459.047	1	-6
459.218	1	-5
459.388	1	9
459.559	1	3
459.729	1	7
459.899	1	-8
460.070	1	1
460.240	1	7
460.411	1	2
460.581	1	7
460.752	1	4
460.922	1	1
461.093	1	4
461.263	1	-1
461.434	1	-9
461.604	1	7
461.775	1	1
461.945	1	2
462.115	1	3
462.286	1	0
462.456	1	0
462.627	1	8
462.797	1	0
462.968	1	7
463.138	1	-1
463.309	1	3
463.479	1	-3
463.649	1	5
463.820	1	10
463.990	1	3
464.161	1	1
464.331	1	-1
464.502	1	3
464.672	1	-4
464.843	1	-4
465.013	1	16
465.183	1	11
465.354	1	-2
465.524	1	5
465.695	1	5
465.865	1	5
466.036	1	-2
466.206	1	-1
466.376	1	-1
466.547	1	7
466.717	1	0
466.888	1	-4
467.058	1	5
467.229	1	3
467.399	1	12
467.569	1	9
467.740	1	-5
467.910	1	-10
468.081	1	-2
468.251	1	3
468.422	1	-2
468.592	1	6
468.762	1	10
468.933	1	2
469.103	1	5
469.274	1	12
469.444	1	1
469.614	1	-2
469.785	1	-1
469.955	1	1
470.126	1	11
470.296	1	7
470.467	1	4
470.637	1	4
470.807	1	4
470.978	1	-5
471.148	1	2
471.319	1	9
471.489	1	2
471.659	1	-6
471.830	1	-4
472.000	1	3
472.171	1	6
472.341	1	2
472.511	1	0
472.682	1	-3
472.852	1	10
473.023	1	-1
473.193	1	13
473.363	1	0
473.534	1	6
473.704	1	6
473.875	1	2
474.045	1	7
474.215	1	-3
474.386	1	-6
474.556	1	0
474.727	1	6
474.897	1	4
475.067	1	4
475.238	1	-5
475.408	1	-3
475.578	1	2
475.749	1	3
475.919	1	5
476.090	1	0
476.260	1	15
476.430	1	-4
476.601	1	6
476.771	1	8
476.942	1	-13
477.112	1	-1
477.282	1	-1
477.453	1	4
477.623	1	14
477.793	1	12
477.964	1	5
478.134	1	-1
478.305	1	-2
478.475	1	4
478.645	1	2
478.816	1	3
478.986	1	-1
479.156	1	10
479.327	1	-9
479.497	1	-7
479.667	1	-5
479.838	1	4
480.008	1	10
480.179	1	-7
480.349	1	9
480.519	1	-4
480.690	1	8
480.860	1	-2
481.030	1	3
481.201	1	0
481.371	1	-2
481.541	1	7
481.712	1	1
481.882	1	8
482.053	1	-7
482.223	1	1
482.393	1	-2
482.564	1	-1
482.734	1	3
482.904	1	-3
483.075	1	0
483.245	1	-5
483.415	1	-1
483.586	1	2
483.756	1	6
483.926	1	1
484.097	1	-11
484.267	1	9
484.437	1	4
484.608	1	2
484.778	1	-1
484.948	1	4
485.119	1	2
485.289	1	6
485.459	1	-1
485.630	1	5
485.800	1	-5
485.970	1	10
486.141	1	2
486.311	1	12
486.481	1	2
486.652	1	5
486.822	1	2
486.992	1	-4
487.163	1	1
487.333	1	-7
487.503	1	3
487.674	1	-1
487.844	1	5
488.014	1	1
488.185	1	0
488.355	1	-5
488.525	1	8
488.696	1	4
488.866	1	6
489.036	1	5
489.207	1	11
489.377	1	-6
489.547	1	2
489.718	1	6
489.888	1	2
490.058	1	10
490.228	1	-5
490.399	1	-2
490.569	1	-3
490.739	1	5
490.910	1	6
491.080	1	-2
491.250	1	5
491.421	1	0
491.591	1	-7
491.761	1	4
491.932	1	-3
492.102	1	6
492.272	1	8
492.442	1	-1
492.613	1	9
492.783	1	1
492.953	1	2
493.124	1	-1
493.294	1	1
493.464	1	-4
493.635	1	-3
493.805	1	0
493.975	1	10
494.145	1	7
494.316	1	-7
494.486	1	9
494.656	1	11
494.827	1	3
494.997	1	0
495.167	1	8
495.337	1	12
495.508	1	9
495.678	1	1
495.848	1	4
496.019	1	-11
496.189	1	-6
496.359	1	5
496.529	1	3
496.700	1	9
496.870	1	-5
497.040	1	1
497.211	1	9
497.381	1	7
497.551	1	5
497.721	1	-7
497.892	1	1
498.062	1	-1
498.232	1	-2
498.403	1	4
498.573	1	-11
498.743	1	3
498.913	1	2
499.084	1	3
499.254	1	6
499.424	1	6
499.594	1	0
499.765	1	-7
499.935	1	3
500.105	1	-4
500.275	1	4
500.446	1	-2
500.616	1	-6
500.786	1	-4
500.956	1	9
501.127	1	2
501.297	1	3
501.467	1	-7
501.638	1	-5
501.808	1	-3
501.978	1	-1
502.148	1	13
502.319	1	5
502.489	1	-1
502.659	1	3
502.829	1	-1
503.000	1	12
503.170	1	7
503.340	1	10
503.510	1	3
503.681	1	9
503.851	1	2
504.021	1	6
504.191	1	-10
504.362	1	6
504.532	1	-11
504.702	1	8
504.872	1	4
505.042	1	-1
505.213	1	-3
505.383	1	-5
505.553	1	1
505.723	1	6
505.894	1	8
506.064	1	2
506.234	1	-7
506.404	1	-3
506.575	1	6
506.745	1	14
506.915	1	5
507.085	1	-3
507.256	1	-6
507.426	1	-5
507.596	1	7
507.766	1	7
507.936	1	14
508.107	1	4
508.277	1	-2
508.447	1	7
508.617	1	3
508.788	1	-6
508.958	1	0
509.128	1	-5
509.298	1	-2
509.468	1	-3
509.639	1	16
509.809	1	8
509.979	1	5
510.149	1	2
510.319	1	-4
510.490	1	0
510.660	1	-13
510.830	1	4
511.000	1	13
511.171	1	-7
511.341	1	14
511.511	1	4
511.681	1	3
511.851	1	1
512.022	1	0
512.192	1	12
512.362	1	-3
512.532	1	-7
512.702	1	-8
512.873	1	0
513.043	1	1
513.213	1	-5
513.383	1	8
513.553	1	-2
513.724	1	-3
513.894	1	-9
514.064	1	5
514.234	1	-3
514.404	1	-3
514.575	1	-7
514.745	1	6
514.915	1	7
515.085	1	6
515.255	1	-9
515.425	1	10
515.596	1	4
515.766	1	3
515.936	1	-3
516.106	1	1
516.276	1	4
516.447	1	6
516.617	1	5
516.787	1	7
516.957	1	-5
517.127	1	-1
517.297	1	8
517.468	1	-4
517.638	1	1
517.808	1	9
517.978	1	9
518.148	1	2
518.319	1	8
518.489	1	7
518.659	1	4
518.829	1	7
518.999	1	1
519.169	1	1
519.340	1	3
519.510	1	7
519.680	1	-3
519.850	1	1
520.020	1	-4
520.190	1	3
520.361	1	0
520.531	1	10
520.701	1	-4
520.871	1	-4
521.041	1	6
521.211	1	-2
521.382	1	1
521.552	1	2
521.722	1	-3
521.892	1	4
522.062	1	-10
522.232	1	-4
522.402	1	-7
522.573	1	2
522.743	1	9
522.913	1	8
523.083	1	0
523.253	1	8
523.423	1	0
523.593	1	3
523.764	1	9
523.934	1	7
524.104	1	1
524.274	1	5
524.444	1	5
524.614	1	3
524.784	1	13
524.955	1	-4
525.125	1	5
525.295	1	4
525.465	1	1
525.635	1	11
525.805	1	1
525.975	1	2
526.146	1	-3
526.316	1	12
526.486	1	-2
526.656	1	12
526.826	1	2
526.996	1	3
527.166	1	-2
527.337	1	6
527.507	1	4
527.677	1	-6
527.847	1	-2
528.017	1	3
528.187	1	-4
528.357	1	-1
528.527	1	-1
528.698	1	-3
528.868	1	-1
529.038	1	3
529.208	1	-1
529.378	1	3
529.548	1	4
529.718	1	8
529.888	1	-3
530.058	1	12
530.229	1	18
530.399	1	10
530.569	1	13
530.739	1	3
530.909	1	1
531.079	1	8
531.249	1	-7
531.419	1	8
531.589	1	3
531.760	1	5
531.930	1	4
532.100	1	-3
532.270	1	3
532.440	1	6
532.610	1	-3
532.780	1	-10
532.950	1	-7
533.120	1	0
533.290	1	8
533.461	1	-5
533.631	1	3
533.801	1	1
533.971	1	0
534.141	1	1
534.311	1	5
534.481	1	14
534.651	1	5
534.821	1	10
534.991	1	-7
535.162	1	1
535.332	1	8
535.502	1	2
535.672	1	10
535.842	1	9
536.012	1	-3
536.182	1	0
536.352	1	-7
536.522	1	10
536.692	1	6
536.862	1	13
537.032	1	4
537.203	1	7
537.373	1	-6
537.543	1	-9
537.713	1	6
537.883	1	12
538.053	1	6
538.223	1	-1
538.393	1	18
538.563	1	7
538.733	1	-7
538.903	1	6
539.073	1	11
539.243	1	1
539.413	1	0
539.584	1	3
539.754	1	2
539.924	1	-1
540.094	1	-6
540.264	1	12
540.434	1	10
540.604	1	-1
540.774	1	-1
540.944	1	-4
541.114	1	2
541.284	1	4
541.454	1	0
541.624	1	-3
541.794	1	-3
541.964	1	11
542.134	1	-6
542.305	1	-1
542.475	1	5
542.645	1	-2
542.815	1	3
542.985	1	4
543.155	1	-1
543.325	1	0
543.495	1	-3
543.665	1	1
543.835	1	-3
544.005	1	13
544.175	1	-1
544.345	1	3
544.515	1	3
544.685	1	1
544.855	1	-2
545.025	1	2
545.195	1	4
545.365	1	3
545.535	1	-4
545.705	1	3
545.875	1	6
546.045	1	2
546.216	1	10
546.386	1	-2
546.556	1	3
546.726	1	-4
546.896	1	3
547.066	1	14
547.236	1	19
547.406	1	7
547.576	1	-11
547.746	1	-10
547.916	1	-1
548.086	1	3
548.256	1	5
548.426	1	3
548.596	1	-7
548.766	1	6
548.936	1	-3
549.106	1	10
549.276	1	-1
549.446	1	8
549.616	1	12
549.786	1	1
549.956	1	-3
550.126	1	4
550.296	1	9
550.466	1	0
550.636	1	2
550.806	1	-2
550.976	1	5
551.146	1	5
551.316	1	2
551.486	1	1
551.656	1	-1
551.826	1	2
551.996	1	-2
552.166	1	3
552.336	1	14
552.506	1	8
552.676	1	-2
552.846	1	2
553.016	1	4
553.186	1	9
553.356	1	6
553.526	1	2
553.696	1	3
553.866	1	-1
554.036	1	9
554.206	1	4
554.376	1	12
554.546	1	-6
554.716	1	2
554.886	1	0
555.056	1	-4
555.226	1	5
555.396	1	4
555.566	1	7
555.736	1	-5
555.906	1	-2
556.076	1	0
556.246	1	9
556.416	1	-8
556.586	1	-1
556.756	1	-5
556.926	1	4
557.096	1	-1
557.266	1	4
557.436	1	-3
557.606	1	2
557.776	1	-5
557.946	1	4
558.116	1	-14
558.286	1	-1
558.456	1	-10
558.626	1	13
558.796	1	5
558.966	1	6
559.136	1	14
559.306	1	12
559.476	1	-3
559.646	1	-5
559.816	1	-2
559.986	1	5
560.155	1	3
560.325	1	-4
560.495	1	10
560.665	1	-1
560.835	1	5
561.005	1	1
561.175	1	-6
561.345	1	-3
561.515	1	-2
561.685	1	3
561.855	1	0
562.025	1	-6
562.195	1	2
562.365	1	0
562.535	1	5
562.705	1	12
562.875	1	4
563.045	1	-6
563.215	1	1
563.385	1	13
563.555	1	1
563.725	1	-6
563.895	1	0
564.064	1	4
564.234	1	10
564.404	1	0
564.574	1	-7
564.744	1	4
564.914	1	-3
565.084	1	10
565.254	1	2
565.424	1	1
565.594	1	7
565.764	1	8
565.934	1	4
566.104	1	-1
566.274	1	-4
566.444	1	1
566.614	1	-8
566.783	1	3
566.953	1	4
567.123	1	12
567.293	1	-2
567.463	1	3
567.633	1	-4
567.803	1	17
567.973	1	-2
568.143	1	-7
568.313	1	-3
568.483	1	2
568.653	1	2
568.823	1	6
568.993	1	0
569.162	1	-1
569.332	1	11
569.502	1	4
569.672	1	8
569.842	1	-5
570.012	1	1
570.182	1	-2
570.352	1	2
570.522	1	6
570.692	1	8
570.862	1	1
571.031	1	3
571.201	1	5
571.371	1	6
571.541	1	-1
571.711	1	1
571.881	1	-10
572.051	1	2
572.221	1	3
572.391	1	13
572.561	1	2
572.731	1	1
572.900	1	-11
573.070	1	-8
573.240	1	0
573.410	1	-5
573.580	1	-6
573.750	1	5
573.920	1	-1
574.090	1	2
574.260	1	9
574.430	1	14
574.599	1	-3
574.769	1	-7
574.939	1	-6
575.109	1	5
575.279	1	5
575.449	1	7
575.619	1	6
575.789	1	6
575.959	1	-6
576.128	1	3
576.298	1	8
576.468	1	3
576.638	1	2
576.808	1	-2
576.978	1	-1
577.148	1	0
577.318	1	4
577.487	1	5
577.657	1	-5
577.827	1	7
577.997	1	-5
578.167	1	-3
578.337	1	8
578.507	1	7
578.677	1	3
578.846	1	-2
579.016	1	8
579.186	1	-12
579.356	1	5
579.526	1	-9
579.696	1	1
579.866	1	6
580.036	1	-8
580.205	1	-7
580.375	1	-3
580.545	1	-11
580.715	1	-1
580.885	1	3
581.055	1	-4
581.225	1	6
581.394	1	2
581.564	1	-6
581.734	1	10
581.904	1	1
582.074	1	-3
582.244	1	4
582.414	1	-3
582.583	1	4
582.753	1	-8
582.923	1	9
583.093	1	9
583.263	1	13
583.433	1	6
583.603	1	-2
583.772	1	2
583.942	1	7
584.112	1	3
584.282	1	-2
584.452	1	-3
584.622	1	15
584.791	1	-9
584.961	1	6
585.131	1	12
585.301	1	9
585.471	1	10
585.641	1	6
585.811	1	-4
585.980	1	2
586.150	1	-15
586.320	1	5
586.490	1	8
586.660	1	-2
586.830	1	-5
586.999	1	-1
587.169	1	12
587.339	1	-2
587.509	1	4
587.679	1	4
587.849	1	-2
588.018	1	4
588.188	1	4
588.358	1	4
588.528	1	-11
588.698	1	-4
588.867	1	-4
589.037	1	-5
589.207	1	0
589.377	1	1
589.547	1	1
589.717	1	6
589.886	1	-9
590.056	1	1
590.226	1	1
590.396	1	17
590.566	1	5
590.735	1	7
590.905	1	-1
591.075	1	8
591.245	1	-5
591.415	1	4
591.585	1	4
591.754	1	1
591.924	1	1
592.094	1	6
592.264	1	1
592.434	1	-1
592.603	1	3
592.773	1	6
592.943	1	-4
593.113	1	8
593.283	1	3
593.452	1	5
593.622	1	1
593.792	1	-2
593.962	1	10
594.132	1	13
594.301	1	14
594.471	1	3
594.641	1	3
594.811	1	-14
594.981	1	8
595.150	1	4
595.320	1	-1
595.490	1	3
595.660	1	0
595.829	1	4
595.999	1	0
596.169	1	3
596.339	1	11
596.509	1	1
596.678	1	-3
596.848	1	5
597.018	1	4
597.188	1	-10
597.358	1	-2
597.527	1	-1
597.697	1	0
597.867	1	-5
598.037	1	7
598.206	1	2
598.376	1	-7
598.546	1	-3
598.716	1	-3
598.885	1	-2
599.055	1	0
599.225	1	6
599.395	1	8
599.565	1	2
599.734	1	18
599.904	1	4
600.074	1	-1
600.244	1	-6
600.413	1	-1
600.583	1	4
600.753	1	4
600.923	1	5
601.092	1	3
601.262	1	-1
601.432	1	-3
601.602	1	8
601.771	1	9
601.941	1	1
602.111	1	-3
602.281	1	-5
602.451	1	0
602.620	1	3
602.790	1	1
602.960	1	16
603.130	1	-13
603.299	1	-2
603.469	1	5
603.639	1	1
603.809	1	1
603.978	1	0
604.148	1	11
604.318	1	-3
604.487	1	7
604.657	1	6
604.827	1	-3
604.997	1	3
605.166	1	3
605.336	1	-5
605.506	1	3
605.676	1	0
605.845	1	2
606.015	1	5
606.185	1	13
606.355	1	15
606.524	1	-9
606.694	1	-5
606.864	1	3
607.034	1	3
607.203	1	7
607.373	1	8
607.543	1	5
607.712	1	-14
607.882	1	-2
608.052	1	-4
608.222	1	-3
608.391	1	8
608.561	1	2
608.731	1	10
608.901	1	2
609.070	1	-3
609.240	1	1
609.410	1	0
609.579	1	4
609.749	1	1
609.919	1	-5
610.089	1	-2
610.258	1	6
610.428	1	2
610.598	1	3
610.767	1	0
610.937	1	3
611.107	1	0
611.277	1	-5
611.446	1	1
611.616	1	2
611.786	1	2
611.955	1	5
612.125	1	-3
612.295	1	-2
612.465	1	-4
612.634	1	2
612.804	1	-3
612.974	1	-2
613.143	1	0
613.313	1	0
613.483	1	-4
613.652	1	12
613.822	1	12
613.992	1	-5
614.162	1	-5
614.331	1	-1
614.501	1	-1
614.671	1	-5
614.840	1	-11
615.010	1	8
615.180	1	12
615.349	1	11
615.519	1	-9
615.689	1	10
615.858	1	3
616.028	1	2
616.198	1	-7
616.368	1	-2
616.537	1	3
616.707	1	14
616.877	1	1
617.046	1	-3
617.216	1	6
617.386	1	-3
617.555	1	5
617.725	1	8
617.895	1	6
618.064	1	-9
618.234	1	-2
618.404	1	1
618.573	1	-8
618.743	1	9
618.913	1	0
619.082	1	7
619.252	1	4
619.422	1	-4
619.591	1	4
619.761	1	-1
619.931	1	-7
620.100	1	3
620.270	1	-3
620.440	1	4
620.609	1	1
620.779	1	2
620.949	1	8
621.118	1	-10
621.288	1	10
621.458	1	-4
621.627	1	11
621.797	1	2
621.967	1	9
622.136	1	0
622.306	1	-2
622.476	1	-9
622.645	1	7
622.815	1	5
622.985	1	-5
623.154	1	3
623.324	1	-6
623.494	1	10
623.663	1	7
623.833	1	7
624.002	1	-3
624.172	1	-2
624.342	1	10
624.511	1	9
624.681	1	7
624.851	1	2
625.020	1	2
625.190	1	6
625.360	1	0
625.529	1	14
625.699	1	-4
625.869	1	14
626.038	1	1
626.208	1	0
626.377	1	14
626.547	1	-5
626.717	1	2
626.886	1	-2
627.056	1	3
627.226	1	4
627.395	1	-6
627.565	1	3
627.735	1	-7
627.904	1	0
628.074	1	-2
628.243	1	-1
628.413	1	-3
628.583	1	-4
628.752	1	-7
628.922	1	-6
629.091	1	-6
629.261	1	8
629.431	1	8
629.600	1	-6
629.770	1	2
629.940	1	-3
630.109	1	1
630.279	1	0
630.448	1	4
630.618	1	-3
630.788	1	7
630.957	1	1
631.127	1	2
631.297	1	-7
631.466	1	11
631.636	1	8
631.805	1	8
631.975	1	2
632.145	1	1
632.314	1	9
632.484	1	-3
632.653	1	18
632.823	1	-6
632.993	1	-3
633.162	1	12
633.332	1	8
633.501	1	6
633.671	1	9
633.841	1	-4
634.010	1	6
634.180	1	-2
634.349	1	-2
634.519	1	6
634.689	1	3
634.858	1	-5
635.028	1	4
635.197	1	4
635.367	1	-4
635.537	1	-3
635.706	1	-4
635.876	1	1
636.045	1	7
636.215	1	1
636.384	1	-6
636.554	1	-3
636.724	1	10
636.893	1	3
637.063	1	4
637.232	1	-1
637.402	1	5
637.572	1	0
637.741	1	1
637.911	1	4
638.080	1	1
638.250	1	0
638.419	1	-4
638.589	1	6
638.759	1	6
638.928	1	-1
639.098	1	-12
639.267	1	9
639.437	1	-10
639.606	1	5
639.776	1	-1
639.946	1	2
640.115	1	9
640.285	1	1
640.454	1	5
640.624	1	-4
640.793	1	2
640.963	1	5
641.132	1	-5
641.302	1	-4
641.472	1	-6
641.641	1	9
641.811	1	4
641.980	1	2
642.150	1	0
642.319	1	4
642.489	1	-13
642.659	1	-8
642.828	1	-11
642.998	1	1
643.167	1	-9
643.337	1	0
643.506	1	13
643.676	1	3
643.845	1	6
644.015	1	5
644.184	1	14
644.354	1	-1
644.524	1	4
644.693	1	5
644.863	1	-8
645.032	1	-5
645.202	1	4
645.371	1	3
645.541	1	4
645.710	1	7
645.880	1	6
646.049	1	4
646.219	1	3
646.388	1	-3
646.558	1	4
646.728	1	7
646.897	1	9
647.067	1	8
647.236	1	-3
647.406	1	1
647.575	1	-9
647.745	1	4
647.914	1	-4
648.084	1	7
648.253	1	-4
648.423	1	11
648.592	1	3
648.762	1	11
648.931	1	2
649.101	1	6
649.270	1	4
649.440	1	-7
649.610	1	7
649.779	1	-9
649.949	1	-4
650.118	1	-3
650.288	1	7
650.457	1	3
650.627	1	2
650.796	1	3
650.966	1	5
651.135	1	0
651.305	1	-1
651.474	1	1
651.644	1	8
651.813	1	0
651.983	1	5
652.152	1	0
652.322	1	3
652.491	1	8
652.661	1	0
652.830	1	-6
653.000	1	-5
653.169	1	5
653.339	1	-1
653.508	1	7
653.678	1	15
653.847	1	8
654.017	1	5
654.186	1	18
654.356	1	2
654.525	1	3
654.695	1	3
654.864	1	12
655.034	1	1
655.203	1	13
655.373	1	0
655.542	1	0
655.712	1	-7
655.881	1	-5
656.051	1	0
656.220	1	6
656.390	1	6
656.559	1	-1
656.729	1	-2
656.898	1	-1
657.068	1	9
657.237	1	9
657.406	1	-2
657.576	1	-5
657.745	1	-2
657.915	1	2
658.084	1	-12
658.254	1	8
658.423	1	2
658.593	1	7
658.762	1	1
658.932	1	-1
659.101	1	2
659.271	1	1
659.440	1	6
659.610	1	15
659.779	1	5
659.949	1	-7
660.118	1	6
660.288	1	8
660.457	1	9
660.626	1	5
660.796	1	4
660.965	1	8
661.135	1	-12
661.304	1	-2
661.474	1	7
661.643	1	5
661.813	1	-2
661.982	1	6
662.152	1	-3
662.321	1	1
662.491	1	-8
662.660	1	3
662.829	1	1
662.999	1	8
663.168	1	11
663.338	1	5
663.507	1	-2
663.677	1	-10
663.846	1	-5
664.016	1	7
664.185	1	7
664.354	1	-7
664.524	1	-2
664.693	1	-6
664.863	1	9
665.032	1	1
665.202	1	16
665.371	1	3
665.541	1	0
665.710	1	5
665.879	1	6
666.049	1	-1
666.218	1	1
666.388	1	14
666.557	1	1
666.727	1	4
666.896	1	0
667.065	1	0
667.235	1	1
667.404	1	10
667.574	1	-7
667.743	1	-4
667.913	1	-8
668.082	1	12
668.251	1	5
668.421	1	9
668.590	1	-3
668.760	1	5
668.929	1	5
669.099	1	2
669.268	1	-2
669.437	1	3
669.607	1	-3
669.776	1	-2
669.946	1	2
670.115	1	8
670.285	1	8
670.454	1	-2
670.623	1	0
670.793	1	8
670.962	1	-2
671.132	1	2
671.301	1	2
671.470	1	-1
671.640	1	8
671.809	1	-4
671.979	1	6
672.148	1	-2
672.317	1	7
672.487	1	-5
672.656	1	3
672.826	1	-1
672.995	1	-5
673.164	1	1
673.334	1	-5
673.503	1	-5
673.673	1	4
673.842	1	5
674.011	1	9
674.181	1	-7
674.350	1	-8
674.520	1	10
674.689	1	1
674.858	1	-8
675.028	1	-3
675.197	1	13
675.367	1	1
675.536	1	1
675.705	1	10
675.875	1	0
676.044	1	14
676.214	1	-7
676.383	1	6
676.552	1	2
676.722	1	14
676.891	1	16
677.060	1	-4
677.230	1	7
677.399	1	2
677.569	1	-6
677.738	1	-4
677.907	1	1
678.077	1	21
678.246	1	-2
678.416	1	-9
678.585	1	4
678.754	1	12
678.924	1	13
679.093	1	0
679.262	1	-5
679.432	1	0
679.601	1	9
679.771	1	2
679.940	1	7
680.109	1	3
680.279	1	6
680.448	1	-4
680.617	1	-1
680.787	1	2
680.956	1	-9
681.125	1	7
681.295	1	0
681.464	1	1
681.634	1	8
681.803	1	9
681.972	1	-5
682.142	1	-7
682.311	1	4
682.480	1	-2
682.650	1	8
682.819	1	6
682.988	1	3
683.158	1	-4
683.327	1	9
683.496	1	0
683.666	1	2
683.835	1	-2
684.004	1	6
684.174	1	0
684.343	1	5
684.512	1	-5
684.682	1	4
684.851	1	-8
685.021	1	-4
685.190	1	-1
685.359	1	4
685.529	1	21
685.698	1	-7
685.867	1	9
686.037	1	6
686.206	1	1
686.375	1	-2
686.545	1	4
686.714	1	2
686.883	1	-4
687.053	1	-3
687.222	1	5
687.391	1	2
687.561	1	4
687.730	1	9
687.899	1	-10
688.069	1	8
688.238	1	-5
688.407	1	-4
688.577	1	12
688.746	1	-8
