340.368	1	-2
340.539	1	3
340.710	1	-12
340.881	1	7
341.052	1	5
341.223	1	1
341.394	1	3
341.565	1	0
341.737	1	-1
341.908	1	15
342.079	1	-4
342.250	1	0
342.421	1	6
342.592	1	-10
342.763	1	-4
342.934	1	-4
343.105	1	15
343.276	1	8
343.447	1	-11
343.618	1	9
343.789	1	1
343.960	1	0
344.131	1	-1
344.302	1	7
344.473	1	-3
344.644	1	0
344.815	1	16
344.986	1	3
345.157	1	-8
345.328	1	5
345.499	1	-8
345.670	1	12
345.841	1	6
346.012	1	-3
346.183	1	4
346.354	1	0
346.526	1	16
346.697	1	5
346.868	1	2
347.039	1	-1
347.210	1	-8
347.381	1	-3
347.552	1	15
347.723	1	4
347.894	1	0
348.065	1	-8
348.236	1	2
348.407	1	4
348.578	1	-1
348.749	1	11
348.920	1	-2
349.091	1	3
349.262	1	-1
349.433	1	2
349.604	1	9
349.775	1	3
349.946	1	12
350.117	1	0
350.288	1	-4
350.459	1	1
350.630	1	6
350.801	1	2
350.972	1	-1
351.143	1	5
351.314	1	7
351.485	1	1
351.656	1	0
351.827	1	6
351.998	1	3
352.169	1	6
352.340	1	6
352.511	1	8
352.682	1	1
352.853	1	11
353.024	1	6
353.195	1	9
353.366	1	11
353.537	1	6
353.708	1	6
353.879	1	7
354.050	1	-1
354.221	1	-6
354.392	1	-1
354.563	1	0
354.734	1	7
354.905	1	14
355.076	1	10
355.247	1	-6
355.418	1	-5
355.589	1	6
355.760	1	1
355.931	1	7
356.102	1	14
356.273	1	-13
356.444	1	-7
356.615	1	0
356.785	1	9
356.956	1	11
357.127	1	7
357.298	1	11
357.469	1	1
357.640	1	1
357.811	1	-1
357.982	1	-7
358.153	1	8
358.324	1	13
358.495	1	8
358.666	1	1
358.837	1	12
359.008	1	4
359.179	1	2
359.350	1	16
359.521	1	13
359.692	1	14
359.863	1	13
360.034	1	6
360.205	1	9
360.376	1	4
360.547	1	1
360.718	1	9
360.889	1	8
361.060	1	10
361.231	1	8
361.401	1	6
361.572	1	25
361.743	1	5
361.914	1	5
362.085	1	9
362.256	1	10
362.427	1	10
362.598	1	12
362.769	1	-10
362.940	1	20
363.111	1	24
363.282	1	15
363.453	1	2
363.624	1	8
363.795	1	11
363.966	1	11
364.137	1	11
364.308	1	16
364.478	1	10
364.649	1	12
364.820	1	12
364.991	1	14
365.162	1	12
365.333	1	9
365.504	1	18
365.675	1	22
365.846	1	3
366.017	1	11
366.188	1	9
366.359	1	15
366.530	1	27
366.701	1	23
366.871	1	30
367.042	1	13
367.213	1	16
367.384	1	27
367.555	1	17
367.726	1	26
367.897	1	14
368.068	1	29
368.239	1	28
368.410	1	23
368.581	1	23
368.752	1	19
368.923	1	21
369.093	1	9
369.264	1	22
369.435	1	19
369.606	1	19
369.777	1	21
369.948	1	26
370.119	1	19
370.290	1	21
370.461	1	25
370.632	1	19
370.803	1	11
370.973	1	25
371.144	1	14
371.315	1	12
371.486	1	12
371.657	1	15
371.828	1	16
371.999	1	23
372.170	1	19
372.341	1	20
372.512	1	6
372.682	1	19
372.853	1	23
373.024	1	14
373.195	1	10
373.366	1	18
373.537	1	18
373.708	1	14
373.879	1	18
374.050	1	14
374.220	1	18
374.391	1	8
374.562	1	0
374.733	1	17
374.904	1	13
375.075	1	14
375.246	1	10
375.417	1	17
375.588	1	10
375.758	1	22
375.929	1	14
376.100	1	14
376.271	1	13
376.442	1	17
376.613	1	9
376.784	1	-3
376.955	1	11
377.125	1	8
377.296	1	14
377.467	1	6
377.638	1	8
377.809	1	13
377.980	1	5
378.151	1	14
378.321	1	3
378.492	1	6
378.663	1	12
378.834	1	9
379.005	1	8
379.176	1	7
379.347	1	14
379.518	1	6
379.688	1	10
379.859	1	5
380.030	1	7
380.201	1	0
380.372	1	11
380.543	1	9
380.714	1	11
380.884	1	-1
381.055	1	7
381.226	1	8
381.397	1	5
381.568	1	14
381.739	1	2
381.910	1	7
382.080	1	6
382.251	1	7
382.422	1	5
382.593	1	18
382.764	1	-4
382.935	1	-3
383.105	1	8
383.276	1	8
383.447	1	15
383.618	1	11
383.789	1	9
383.960	1	10
384.130	1	-7
384.301	1	-9
384.472	1	-8
384.643	1	-5
384.814	1	13
384.985	1	7
385.156	1	1
385.326	1	-3
385.497	1	9
385.668	1	15
385.839	1	-8
386.010	1	3
386.180	1	10
386.351	1	14
386.522	1	11
386.693	1	1
386.864	1	8
387.035	1	-2
387.205	1	2
387.376	1	-3
387.547	1	11
387.718	1	-2
387.889	1	8
388.060	1	8
388.230	1	6
388.401	1	-7
388.572	1	7
388.743	1	7
388.914	1	1
389.084	1	2
389.255	1	9
389.426	1	4
389.597	1	2
389.768	1	3
389.939	1	0
390.109	1	2
390.280	1	2
390.451	1	-2
390.622	1	-1
390.793	1	4
390.963	1	5
391.134	1	-7
391.305	1	5
391.476	1	7
391.647	1	-2
391.817	1	-3
391.988	1	13
392.159	1	11
392.330	1	7
392.501	1	3
392.671	1	-5
392.842	1	0
393.013	1	3
393.184	1	1
393.355	1	7
393.525	1	8
393.696	1	6
393.867	1	14
394.038	1	-2
394.208	1	7
394.379	1	-7
394.550	1	8
394.721	1	-5
394.892	1	8
395.062	1	-4
395.233	1	13
395.404	1	7
395.575	1	4
395.746	1	12
395.916	1	-7
396.087	1	2
396.258	1	-5
396.429	1	7
396.599	1	-6
396.770	1	10
396.941	1	4
397.112	1	-4
397.283	1	1
397.453	1	10
397.624	1	7
397.795	1	-3
397.966	1	5
398.136	1	-1
398.307	1	0
398.478	1	4
398.649	1	7
398.819	1	-5
398.990	1	-11
399.161	1	0
399.332	1	-8
399.503	1	8
399.673	1	1
399.844	1	-2
400.015	1	12
400.186	1	6
400.356	1	-3
400.527	1	8
400.698	1	4
400.869	1	-1
401.039	1	9
401.210	1	7
401.381	1	5
401.552	1	2
401.722	1	5
401.893	1	15
402.064	1	0
402.235	1	-2
402.405	1	-6
402.576	1	2
402.747	1	4
402.918	1	7
403.088	1	7
403.259	1	4
403.430	1	2
403.601	1	13
403.771	1	-2
403.942	1	1
404.113	1	6
404.284	1	-9
404.454	1	-5
404.625	1	4
404.796	1	15
404.967	1	7
405.137	1	6
405.308	1	9
405.479	1	-3
405.649	1	4
405.820	1	7
405.991	1	3
406.162	1	1
406.332	1	-7
406.503	1	10
406.674	1	8
406.845	1	0
407.015	1	13
407.186	1	1
407.357	1	-7
407.527	1	-2
407.698	1	-3
407.869	1	-4
408.040	1	-2
408.210	1	9
408.381	1	-1
408.552	1	1
408.722	1	-3
408.893	1	2
409.064	1	-11
409.235	1	5
409.405	1	5
409.576	1	2
409.747	1	3
409.917	1	-2
410.088	1	12
410.259	1	3
410.430	1	-1
410.600	1	6
410.771	1	5
410.942	1	-4
411.112	1	-4
411.283	1	-2
411.454	1	9
411.625	1	3
411.795	1	13
411.966	1	9
412.137	1	-8
412.307	1	-2
412.478	1	-1
412.649	1	5
412.819	1	1
412.990	1	-5
413.161	1	2
413.332	1	-4
413.502	1	6
413.673	1	1
413.844	1	8
414.014	1	1
414.185	1	-1
414.356	1	-1
414.526	1	9
414.697	1	1
414.868	1	1
415.038	1	3
415.209	1	-13
415.380	1	0
415.550	1	4
415.721	1	2
415.892	1	10
416.063	1	4
416.233	1	2
416.404	1	7
416.575	1	-2
416.745	1	3
416.916	1	-8
417.087	1	9
417.257	1	0
417.428	1	5
417.599	1	3
417.769	1	12
417.940	1	3
418.111	1	4
418.281	1	-2
418.452	1	3
418.623	1	12
418.793	1	6
418.964	1	-2
419.135	1	6
419.305	1	-1
419.476	1	-2
419.647	1	3
419.817	1	4
419.988	1	11
420.159	1	17
420.329	1	1
420.500	1	1
420.671	1	1
420.841	1	3
421.012	1	5
421.183	1	0
421.353	1	-2
421.524	1	7
421.695	1	-10
421.865	1	3
422.036	1	3
422.206	1	5
422.377	1	8
422.548	1	9
422.718	1	7
422.889	1	-7
423.060	1	-3
423.230	1	9
423.401	1	-4
423.572	1	-1
423.742	1	-5
423.913	1	-1
424.084	1	20
424.254	1	6
424.425	1	-10
424.595	1	6
424.766	1	-5
424.937	1	15
425.107	1	5
425.278	1	2
425.449	1	6
425.619	1	-5
425.790	1	11
425.961	1	-5
426.131	1	2
426.302	1	0
426.472	1	11
426.643	1	3
426.814	1	-5
426.984	1	1
427.155	1	3
427.326	1	0
427.496	1	7
427.667	1	3
427.837	1	1
428.008	1	7
428.179	1	5
428.349	1	1
428.520	1	-3
428.691	1	-8
428.861	1	6
429.032	1	4
429.202	1	0
429.373	1	-3
429.544	1	6
429.714	1	-1
429.885	1	5
430.055	1	1
430.226	1	1
430.397	1	-1
430.567	1	0
430.738	1	-6
430.909	1	5
431.079	1	0
431.250	1	11
431.420	1	0
431.591	1	2
431.762	1	8
431.932	1	4
432.103	1	1
432.273	1	-9
432.444	1	-5
432.615	1	-2
432.785	1	2
432.956	1	-3
433.126	1	-2
433.297	1	3
433.468	1	1
433.638	1	1
433.809	1	2
433.979	1	1
434.150	1	-1
434.320	1	5
434.491	1	0
434.662	1	-17
434.832	1	3
435.003	1	0
435.173	1	8
435.344	1	-1
435.515	1	6
435.685	1	-3
435.856	1	10
436.026	1	4
436.197	1	3
436.368	1	-1
436.538	1	1
436.709	1	-1
436.879	1	16
437.050	1	-12
437.220	1	4
437.391	1	2
437.562	1	12
437.732	1	-1
437.903	1	0
438.073	1	0
438.244	1	-1
438.414	1	-5
438.585	1	3
438.756	1	-6
438.926	1	6
439.097	1	8
439.267	1	5
439.438	1	2
439.608	1	-1
439.779	1	3
439.949	1	4
440.120	1	-5
440.291	1	1
440.461	1	16
440.632	1	0
440.802	1	11
440.973	1	3
441.143	1	0
441.314	1	-3
441.485	1	0
441.655	1	1
441.826	1	0
441.996	1	-6
442.167	1	7
442.337	1	7
442.508	1	1
442.678	1	7
442.849	1	-4
443.019	1	-9
443.190	1	-1
443.361	1	7
443.531	1	5
443.702	1	8
443.872	1	-7
444.043	1	1
444.213	1	-2
444.384	1	-7
444.554	1	-2
444.725	1	-1
444.895	1	-8
445.066	1	1
445.237	1	-4
445.407	1	5
445.578	1	8
445.748	1	-1
445.919	1	-4
446.089	1	5
446.260	1	6
446.430	1	-3
446.601	1	-3
446.771	1	-12
446.942	1	9
447.112	1	10
447.283	1	3
447.453	1	-2
447.624	1	8
447.794	1	1
447.965	1	1
448.135	1	-1
448.306	1	8
448.477	1	6
448.647	1	4
448.818	1	5
448.988	1	14
449.159	1	-6
449.329	1	0
449.500	1	1
449.670	1	-10
449.841	1	0
450.011	1	16
450.182	1	7
450.352	1	-3
450.523	1	12
450.693	1	-6
450.864	1	6
451.034	1	-12
451.205	1	0
451.375	1	8
451.546	1	-5
451.716	1	5
451.887	1	-3
452.057	1	3
452.228	1	0
452.398	1	-1
452.569	1	15
452.739	1	5
452.910	1	7
453.080	1	-3
453.251	1	5
453.421	1	0
453.592	1	-6
453.762	1	-7
453.933	1	6
454.103	1	1
454.274	1	9
454.444	1	-11
454.615	1	-3
454.785	1	-3
454.956	1	1
455.126	1	4
455.297	1	-4
455.467	1	-6
455.638	1	7
455.808	1	4
455.979	1	12
456.149	1	6
456.320	1	4
456.490	1	2
456.661	1	5
456.831	1	-2
457.001	1	14
457.172	1	-1
457.342	1	0
457.513	1	8
457.683	1	8
457.854	1	3
458.024	1	6
458.195	1	3
458.365	1	-2
458.536	1	-6
458.706	1	6
458.877	1	1
459.047	1	7
459.218	1	-1
459.388	1	10
459.559	1	-3
459.729	1	-2
459.899	1	5
460.070	1	6
460.240	1	-1
460.411	1	-3
460.581	1	12
460.752	1	4
460.922	1	-5
461.093	1	9
461.263	1	4
461.434	1	-8
461.604	1	8
461.775	1	2
461.945	1	5
462.115	1	4
462.286	1	-16
462.456	1	-8
462.627	1	0
462.797	1	-3
462.968	1	9
463.138	1	3
463.309	1	3
463.479	1	-6
463.649	1	8
463.820	1	14
463.990	1	6
464.161	1	-2
464.331	1	9
464.502	1	-3
464.672	1	8
464.843	1	-7
465.013	1	14
465.183	1	1
465.354	1	-8
465.524	1	1
465.695	1	0
465.865	1	9
466.036	1	-6
466.206	1	15
466.376	1	2
466.547	1	9
466.717	1	3
466.888	1	-4
467.058	1	2
467.229	1	0
467.399	1	10
467.569	1	1
467.740	1	6
467.910	1	-8
468.081	1	-3
468.251	1	-1
468.422	1	2
468.592	1	3
468.762	1	10
468.933	1	-6
469.103	1	6
469.274	1	0
469.444	1	2
469.614	1	10
469.785	1	7
469.955	1	4
470.126	1	0
470.296	1	1
470.467	1	12
470.637	1	0
470.807	1	10
470.978	1	-10
471.148	1	-3
471.319	1	6
471.489	1	8
471.659	1	-1
471.830	1	-2
472.000	1	5
472.171	1	12
472.341	1	-1
472.511	1	1
472.682	1	-4
472.852	1	8
473.023	1	0
473.193	1	2
473.363	1	-10
473.534	1	4
473.704	1	7
473.875	1	1
474.045	1	10
474.215	1	10
474.386	1	-9
474.556	1	14
474.727	1	3
474.897	1	-10
475.067	1	3
475.238	1	-3
475.408	1	-8
475.578	1	3
475.749	1	1
475.919	1	6
476.090	1	-3
476.260	1	13
476.430	1	-12
476.601	1	8
476.771	1	13
476.942	1	1
477.112	1	-3
477.282	1	10
477.453	1	-1
477.623	1	10
477.793	1	6
477.964	1	5
478.134	1	10
478.305	1	0
478.475	1	-1
478.645	1	-3
478.816	1	-5
478.986	1	-4
479.156	1	14
479.327	1	-9
479.497	1	3
479.667	1	-1
479.838	1	3
480.008	1	7
480.179	1	-6
480.349	1	8
480.519	1	-4
480.690	1	0
480.860	1	9
481.030	1	7
481.201	1	1
481.371	1	0
481.541	1	10
481.712	1	-3
481.882	1	7
482.053	1	-5
482.223	1	-4
482.393	1	-8
482.564	1	0
482.734	1	5
482.904	1	11
483.075	1	6
483.245	1	-6
483.415	1	-1
483.586	1	5
483.756	1	4
483.926	1	1
484.097	1	-3
484.267	1	6
484.437	1	9
484.608	1	2
484.778	1	-8
484.948	1	3
485.119	1	7
485.289	1	7
485.459	1	0
485.630	1	6
485.800	1	-1
485.970	1	2
486.141	1	9
486.311	1	11
486.481	1	6
486.652	1	14
486.822	1	5
486.992	1	10
487.163	1	10
487.333	1	-10
487.503	1	9
487.674	1	-4
487.844	1	5
488.014	1	-2
488.185	1	1
488.355	1	-6
488.525	1	10
488.696	1	5
488.866	1	7
489.036	1	2
489.207	1	9
489.377	1	-7
489.547	1	7
489.718	1	9
489.888	1	3
490.058	1	14
490.228	1	-3
490.399	1	-2
490.569	1	3
490.739	1	10
490.910	1	-1
491.080	1	-5
491.250	1	6
491.421	1	7
491.591	1	2
491.761	1	-11
491.932	1	-3
492.102	1	8
492.272	1	11
492.442	1	5
492.613	1	10
492.783	1	2
492.953	1	10
493.124	1	7
493.294	1	3
493.464	1	-5
493.635	1	-3
493.805	1	1
493.975	1	2
494.145	1	6
494.316	1	2
494.486	1	3
494.656	1	-1
494.827	1	0
494.997	1	5
495.167	1	2
495.337	1	9
495.508	1	7
495.678	1	7
495.848	1	-8
496.019	1	-3
496.189	1	-16
496.359	1	12
496.529	1	9
496.700	1	10
496.870	1	-7
497.040	1	4
497.211	1	8
497.381	1	4
497.551	1	7
497.721	1	2
497.892	1	6
498.062	1	-1
498.232	1	-1
498.403	1	7
498.573	1	-6
498.743	1	1
498.913	1	8
499.084	1	5
499.254	1	6
499.424	1	7
499.594	1	4
499.765	1	-11
499.935	1	10
500.105	1	-7
500.275	1	3
500.446	1	-7
500.616	1	3
500.786	1	-8
500.956	1	6
501.127	1	-2
501.297	1	6
501.467	1	-4
501.638	1	-2
501.808	1	-1
501.978	1	0
502.148	1	0
502.319	1	4
502.489	1	3
502.659	1	4
502.829	1	5
503.000	1	12
503.170	1	17
503.340	1	6
503.510	1	6
503.681	1	11
503.851	1	-2
504.021	1	8
504.191	1	-5
504.362	1	7
504.532	1	-11
504.702	1	3
504.872	1	-4
505.042	1	4
505.213	1	-3
505.383	1	0
505.553	1	3
505.723	1	0
505.894	1	10
506.064	1	4
506.234	1	-5
506.404	1	6
506.575	1	11
506.745	1	11
506.915	1	5
507.085	1	-14
507.256	1	-2
507.426	1	0
507.596	1	2
507.766	1	14
507.936	1	11
508.107	1	5
508.277	1	-8
508.447	1	7
508.617	1	11
508.788	1	-2
508.958	1	0
509.128	1	-2
509.298	1	4
509.468	1	4
509.639	1	16
509.809	1	1
509.979	1	0
510.149	1	-2
510.319	1	-1
510.490	1	10
510.660	1	6
510.830	1	-14
511.000	1	6
511.171	1	7
511.341	1	10
511.511	1	-4
511.681	1	-3
511.851	1	13
512.022	1	9
512.192	1	6
512.362	1	1
512.532	1	-6
512.702	1	-16
512.873	1	-4
513.043	1	-3
513.213	1	4
513.383	1	6
513.553	1	2
513.724	1	3
513.894	1	-7
514.064	1	9
514.234	1	3
514.404	1	-3
514.575	1	-11
514.745	1	0
514.915	1	9
515.085	1	1
515.255	1	-4
515.425	1	5
515.596	1	1
515.766	1	0
515.936	1	2
516.106	1	3
516.276	1	10
516.447	1	-3
516.617	1	3
516.787	1	9
516.957	1	-8
517.127	1	11
517.297	1	17
517.468	1	9
517.638	1	0
517.808	1	14
517.978	1	4
518.148	1	11
518.319	1	5
518.489	1	14
518.659	1	0
518.829	1	3
518.999	1	10
519.169	1	-1
519.340	1	10
519.510	1	5
519.680	1	-2
519.850	1	-2
520.020	1	-10
520.190	1	4
520.361	1	7
520.531	1	12
520.701	1	10
520.871	1	2
521.041	1	0
521.211	1	-1
521.382	1	-1
521.552	1	9
521.722	1	-6
521.892	1	12
522.062	1	-2
522.232	1	-3
522.402	1	-2
522.573	1	3
522.743	1	11
522.913	1	9
523.083	1	8
523.253	1	9
523.423	1	3
523.593	1	-10
523.764	1	8
523.934	1	4
524.104	1	12
524.274	1	1
524.444	1	5
524.614	1	9
524.784	1	8
524.955	1	6
525.125	1	12
525.295	1	6
525.465	1	7
525.635	1	7
525.805	1	2
525.975	1	-1
526.146	1	7
526.316	1	4
526.486	1	-1
526.656	1	8
526.826	1	5
526.996	1	4
527.166	1	12
527.337	1	-6
527.507	1	0
527.677	1	1
527.847	1	0
528.017	1	0
528.187	1	-1
528.357	1	0
528.527	1	-1
528.698	1	-2
528.868	1	10
529.038	1	8
529.208	1	11
529.378	1	1
529.548	1	8
529.718	1	7
529.888	1	4
530.058	1	12
530.229	1	11
530.399	1	2
530.569	1	4
530.739	1	0
530.909	1	7
531.079	1	9
531.249	1	2
531.419	1	12
531.589	1	8
531.760	1	1
531.930	1	14
532.100	1	5
532.270	1	5
532.440	1	0
532.610	1	9
532.780	1	-1
532.950	1	-1
533.120	1	14
533.290	1	2
533.461	1	-1
533.631	1	6
533.801	1	4
533.971	1	7
534.141	1	-5
534.311	1	5
534.481	1	3
534.651	1	-1
534.821	1	8
534.991	1	7
535.162	1	3
535.332	1	13
535.502	1	2
535.672	1	7
535.842	1	8
536.012	1	-6
536.182	1	-1
536.352	1	-5
536.522	1	11
536.692	1	2
536.862	1	3
537.032	1	-2
537.203	1	3
537.373	1	3
537.543	1	-2
537.713	1	8
537.883	1	5
538.053	1	10
538.223	1	7
538.393	1	17
538.563	1	4
538.733	1	-1
538.903	1	2
539.073	1	6
539.243	1	-5
539.413	1	4
539.584	1	10
539.754	1	-1
539.924	1	5
540.094	1	7
540.264	1	10
540.434	1	3
540.604	1	-4
540.774	1	0
540.944	1	-1
541.114	1	5
541.284	1	6
541.454	1	2
541.624	1	7
541.794	1	3
541.964	1	11
542.134	1	-2
542.305	1	0
542.475	1	7
542.645	1	1
542.815	1	-2
542.985	1	11
543.155	1	-3
543.325	1	5
543.495	1	5
543.665	1	8
543.835	1	-11
544.005	1	8
544.175	1	2
544.345	1	8
544.515	1	7
544.685	1	3
544.855	1	0
545.025	1	0
545.195	1	8
545.365	1	4
545.535	1	1
545.705	1	8
545.875	1	3
546.045	1	-1
546.216	1	3
546.386	1	7
546.556	1	-2
546.726	1	5
546.896	1	10
547.066	1	12
547.236	1	16
547.406	1	-3
547.576	1	2
547.746	1	-1
547.916	1	7
548.086	1	4
548.256	1	5
548.426	1	4
548.596	1	1
548.766	1	2
548.936	1	4
549.106	1	16
549.276	1	2
549.446	1	3
549.616	1	5
549.786	1	4
549.956	1	3
550.126	1	10
550.296	1	7
550.466	1	1
550.636	1	-1
550.806	1	-11
550.976	1	10
551.146	1	8
551.316	1	7
551.486	1	1
551.656	1	13
551.826	1	6
551.996	1	0
552.166	1	7
552.336	1	17
552.506	1	9
552.676	1	12
552.846	1	-1
553.016	1	2
553.186	1	4
553.356	1	9
553.526	1	-1
553.696	1	13
553.866	1	-2
554.036	1	0
554.206	1	-3
554.376	1	4
554.546	1	-7
554.716	1	1
554.886	1	-3
555.056	1	-3
555.226	1	4
555.396	1	6
555.566	1	8
555.736	1	8
555.906	1	-7
556.076	1	-1
556.246	1	1
556.416	1	8
556.586	1	-2
556.756	1	-3
556.926	1	5
557.096	1	5
557.266	1	1
557.436	1	-8
557.606	1	1
557.776	1	2
557.946	1	3
558.116	1	5
558.286	1	0
558.456	1	-4
558.626	1	13
558.796	1	1
558.966	1	3
559.136	1	1
559.306	1	16
559.476	1	-9
559.646	1	-2
559.816	1	0
559.986	1	10
560.155	1	2
560.325	1	1
560.495	1	2
560.665	1	0
560.835	1	1
561.005	1	4
561.175	1	-1
561.345	1	1
561.515	1	1
561.685	1	2
561.855	1	-2
562.025	1	-4
562.195	1	0
562.365	1	5
562.535	1	-2
562.705	1	9
562.875	1	8
563.045	1	6
563.215	1	-4
563.385	1	4
563.555	1	0
563.725	1	-8
563.895	1	6
564.064	1	4
564.234	1	6
564.404	1	5
564.574	1	-5
564.744	1	0
564.914	1	14
565.084	1	0
565.254	1	1
565.424	1	-6
565.594	1	8
565.764	1	2
565.934	1	5
566.104	1	5
566.274	1	3
566.444	1	11
566.614	1	2
566.783	1	4
566.953	1	6
567.123	1	2
567.293	1	5
567.463	1	-6
567.633	1	14
567.803	1	2
567.973	1	4
568.143	1	5
568.313	1	7
568.483	1	-2
568.653	1	0
568.823	1	-7
568.993	1	3
569.162	1	10
569.332	1	10
569.502	1	2
569.672	1	0
569.842	1	-6
570.012	1	7
570.182	1	-3
570.352	1	1
570.522	1	-3
570.692	1	3
570.862	1	1
571.031	1	6
571.201	1	2
571.371	1	3
571.541	1	-7
571.711	1	-2
571.881	1	3
572.051	1	-1
572.221	1	5
572.391	1	4
572.561	1	5
572.731	1	9
572.900	1	0
573.070	1	-7
573.240	1	9
573.410	1	4
573.580	1	-2
573.750	1	0
573.920	1	14
574.090	1	6
574.260	1	1
574.430	1	11
574.599	1	-6
574.769	1	-4
574.939	1	-1
575.109	1	5
575.279	1	9
575.449	1	6
575.619	1	9
575.789	1	9
575.959	1	-3
576.128	1	1
576.298	1	5
576.468	1	5
576.638	1	4
576.808	1	2
576.978	1	0
577.148	1	-1
577.318	1	10
577.487	1	6
577.657	1	11
577.827	1	-1
577.997	1	-3
578.167	1	-4
578.337	1	3
578.507	1	2
578.677	1	6
578.846	1	3
579.016	1	5
579.186	1	-3
579.356	1	4
579.526	1	7
579.696	1	-4
579.866	1	-1
580.036	1	-3
580.205	1	2
580.375	1	5
580.545	1	-4
580.715	1	6
580.885	1	3
581.055	1	3
581.225	1	-11
581.394	1	3
581.564	1	-2
581.734	1	5
581.904	1	-6
582.074	1	-7
582.244	1	-5
582.414	1	-5
582.583	1	-5
582.753	1	0
582.923	1	14
583.093	1	10
583.263	1	8
583.433	1	3
583.603	1	-4
583.772	1	4
583.942	1	10
584.112	1	4
584.282	1	-3
584.452	1	1
584.622	1	14
584.791	1	1
584.961	1	2
585.131	1	5
585.301	1	12
585.471	1	13
585.641	1	7
585.811	1	-6
585.980	1	1
586.150	1	-2
586.320	1	0
586.490	1	1
586.660	1	8
586.830	1	-2
586.999	1	3
587.169	1	1
587.339	1	-3
587.509	1	8
587.679	1	-1
587.849	1	-3
588.018	1	-4
588.188	1	9
588.358	1	15
588.528	1	5
588.698	1	0
588.867	1	2
589.037	1	1
589.207	1	-3
589.377	1	1
589.547	1	12
589.717	1	2
589.886	1	3
590.056	1	3
590.226	1	2
590.396	1	5
590.566	1	3
590.735	1	-2
590.905	1	14
591.075	1	12
591.245	1	6
591.415	1	4
591.585	1	6
591.754	1	4
591.924	1	-4
592.094	1	6
592.264	1	-4
592.434	1	-3
592.603	1	-2
592.773	1	8
592.943	1	8
593.113	1	4
593.283	1	-1
593.452	1	-2
593.622	1	1
593.792	1	3
593.962	1	3
594.132	1	7
594.301	1	9
594.471	1	10
594.641	1	2
594.811	1	0
594.981	1	3
595.150	1	1
595.320	1	-2
595.490	1	-7
595.660	1	-3
595.829	1	11
595.999	1	1
596.169	1	9
596.339	1	2
596.509	1	0
596.678	1	-3
596.848	1	7
597.018	1	5
597.188	1	-14
597.358	1	-11
597.527	1	3
597.697	1	-2
597.867	1	8
598.037	1	10
598.206	1	0
598.376	1	-4
598.546	1	-4
598.716	1	4
598.885	1	3
599.055	1	0
599.225	1	2
599.395	1	-6
599.565	1	9
599.734	1	8
599.904	1	8
600.074	1	-3
600.244	1	6
600.413	1	1
600.583	1	6
600.753	1	14
600.923	1	7
601.092	1	3
601.262	1	-6
601.432	1	-6
601.602	1	3
601.771	1	5
601.941	1	2
602.111	1	-3
602.281	1	5
602.451	1	7
602.620	1	3
602.790	1	4
602.960	1	-4
603.130	1	-5
603.299	1	6
603.469	1	2
603.639	1	-4
603.809	1	4
603.978	1	3
604.148	1	2
604.318	1	4
604.487	1	-2
604.657	1	14
604.827	1	-6
604.997	1	7
605.166	1	-4
605.336	1	1
605.506	1	1
605.676	1	-1
605.845	1	4
606.015	1	-4
606.185	1	9
606.355	1	13
606.524	1	1
606.694	1	-6
606.864	1	6
607.034	1	15
607.203	1	5
607.373	1	4
607.543	1	16
607.712	1	-12
607.882	1	-2
608.052	1	-2
608.222	1	-1
608.391	1	6
608.561	1	12
608.731	1	-3
608.901	1	10
609.070	1	-4
609.240	1	7
609.410	1	-2
609.579	1	-1
609.749	1	-6
609.919	1	0
610.089	1	1
610.258	1	7
610.428	1	3
610.598	1	10
610.767	1	-4
610.937	1	11
611.107	1	-3
611.277	1	0
611.446	1	-4
611.616	1	3
611.786	1	7
611.955	1	7
612.125	1	2
612.295	1	0
612.465	1	-3
612.634	1	2
612.804	1	0
612.974	1	6
613.143	1	-7
613.313	1	-2
613.483	1	9
613.652	1	11
613.822	1	6
613.992	1	1
614.162	1	4
614.331	1	-8
614.501	1	2
614.671	1	8
614.840	1	-2
615.010	1	4
615.180	1	8
615.349	1	0
615.519	1	-5
615.689	1	7
615.858	1	5
616.028	1	0
616.198	1	2
616.368	1	8
616.537	1	4
616.707	1	5
616.877	1	-1
617.046	1	0
617.216	1	10
617.386	1	1
617.555	1	3
617.725	1	6
617.895	1	6
618.064	1	0
618.234	1	3
618.404	1	3
618.573	1	-5
618.743	1	2
618.913	1	8
619.082	1	6
619.252	1	8
619.422	1	-7
619.591	1	11
619.761	1	-2
619.931	1	3
620.100	1	2
620.270	1	4
620.440	1	5
620.609	1	6
620.779	1	-2
620.949	1	6
621.118	1	2
621.288	1	13
621.458	1	6
621.627	1	9
621.797	1	0
621.967	1	5
622.136	1	7
622.306	1	12
622.476	1	3
622.645	1	3
622.815	1	6
622.985	1	12
623.154	1	1
623.324	1	-5
623.494	1	-8
623.663	1	13
623.833	1	5
624.002	1	7
624.172	1	-1
624.342	1	7
624.511	1	4
624.681	1	9
624.851	1	1
625.020	1	8
625.190	1	-2
625.360	1	0
625.529	1	8
625.699	1	-2
625.869	1	14
626.038	1	3
626.208	1	11
626.377	1	6
626.547	1	-10
626.717	1	4
626.886	1	1
627.056	1	7
627.226	1	3
627.395	1	-6
627.565	1	3
627.735	1	-6
627.904	1	3
628.074	1	3
628.243	1	-4
628.413	1	-6
628.583	1	-7
628.752	1	-3
628.922	1	-5
629.091	1	-7
629.261	1	6
629.431	1	-1
629.600	1	1
629.770	1	4
629.940	1	7
630.109	1	0
630.279	1	-8
630.448	1	-3
630.618	1	-2
630.788	1	9
630.957	1	-3
631.127	1	1
631.297	1	-7
631.466	1	-2
631.636	1	5
631.805	1	18
631.975	1	-10
632.145	1	18
632.314	1	5
632.484	1	-7
632.653	1	5
632.823	1	5
632.993	1	5
633.162	1	7
633.332	1	0
633.501	1	0
633.671	1	16
633.841	1	0
634.010	1	-4
634.180	1	0
634.349	1	-9
634.519	1	7
634.689	1	22
634.858	1	10
635.028	1	7
635.197	1	5
635.367	1	-3
635.537	1	-1
635.706	1	0
635.876	1	-4
636.045	1	6
636.215	1	11
636.384	1	3
636.554	1	-2
636.724	1	11
636.893	1	1
637.063	1	11
637.232	1	1
637.402	1	9
637.572	1	-5
637.741	1	-8
637.911	1	2
638.080	1	3
638.250	1	12
638.419	1	-2
638.589	1	11
638.759	1	8
638.928	1	2
639.098	1	-12
639.267	1	0
639.437	1	-12
639.606	1	0
639.776	1	-3
639.946	1	6
640.115	1	0
640.285	1	5
640.454	1	1
640.624	1	-2
640.793	1	0
640.963	1	-2
641.132	1	6
641.302	1	-1
641.472	1	-3
641.641	1	3
641.811	1	10
641.980	1	-3
642.150	1	1
642.319	1	3
642.489	1	-6
642.659	1	0
642.828	1	1
642.998	1	9
643.167	1	-7
643.337	1	-4
643.506	1	7
643.676	1	15
643.845	1	10
644.015	1	2
644.184	1	9
644.354	1	9
644.524	1	6
644.693	1	1
644.863	1	-17
645.032	1	-4
645.202	1	6
645.371	1	5
645.541	1	10
645.710	1	6
645.880	1	7
646.049	1	12
646.219	1	2
646.388	1	6
646.558	1	1
646.728	1	5
646.897	1	8
647.067	1	0
647.236	1	-2
647.406	1	5
647.575	1	0
647.745	1	-5
647.914	1	4
648.084	1	-2
648.253	1	5
648.423	1	15
648.592	1	-4
648.762	1	5
648.931	1	4
649.101	1	6
649.270	1	-3
649.440	1	-5
649.610	1	3
649.779	1	-1
649.949	1	-4
650.118	1	2
650.288	1	4
650.457	1	-1
650.627	1	-2
650.796	1	6
650.966	1	0
651.135	1	5
651.305	1	-8
651.474	1	14
651.644	1	3
651.813	1	6
651.983	1	2
652.152	1	-7
652.322	1	0
652.491	1	4
652.661	1	-2
652.830	1	2
653.000	1	-9
653.169	1	-5
653.339	1	2
653.508	1	8
653.678	1	-3
653.847	1	0
654.017	1	2
654.186	1	12
654.356	1	3
654.525	1	-2
654.695	1	11
654.864	1	13
655.034	1	1
655.203	1	8
655.373	1	3
655.542	1	0
655.712	1	-5
655.881	1	-6
656.051	1	2
656.220	1	1
656.390	1	3
656.559	1	1
656.729	1	4
656.898	1	6
657.068	1	3
657.237	1	4
657.406	1	0
657.576	1	5
657.745	1	6
657.915	1	2
658.084	1	-4
658.254	1	8
658.423	1	3
658.593	1	7
658.762	1	-10
658.932	1	5
659.101	1	7
659.271	1	0
659.440	1	0
659.610	1	8
659.779	1	1
659.949	1	-2
660.118	1	5
660.288	1	4
660.457	1	4
660.626	1	6
660.796	1	0
660.965	1	16
661.135	1	-7
661.304	1	-2
661.474	1	10
661.643	1	9
661.813	1	2
661.982	1	-4
662.152	1	3
662.321	1	5
662.491	1	-8
662.660	1	2
662.829	1	-4
662.999	1	4
663.168	1	2
663.338	1	10
663.507	1	9
663.677	1	-2
663.846	1	-6
664.016	1	0
664.185	1	6
664.354	1	1
664.524	1	7
664.693	1	-7
664.863	1	-8
665.032	1	0
665.202	1	17
665.371	1	3
665.541	1	0
665.710	1	3
665.879	1	18
666.049	1	-1
666.218	1	10
666.388	1	6
666.557	1	1
666.727	1	0
666.896	1	4
667.065	1	-4
667.235	1	5
667.404	1	0
667.574	1	-10
667.743	1	-11
667.913	1	-2
668.082	1	1
668.251	1	-2
668.421	1	11
668.590	1	-5
668.760	1	6
668.929	1	3
669.099	1	-5
669.268	1	8
669.437	1	9
669.607	1	1
669.776	1	-5
669.946	1	-1
670.115	1	6
670.285	1	13
670.454	1	2
670.623	1	-3
670.793	1	3
670.962	1	-6
671.132	1	8
671.301	1	-3
671.470	1	5
671.640	1	7
671.809	1	3
671.979	1	-8
672.148	1	-11
672.317	1	5
672.487	1	-1
672.656	1	3
672.826	1	7
672.995	1	-1
673.164	1	3
673.334	1	-3
673.503	1	-7
673.673	1	2
673.842	1	6
674.011	1	7
674.181	1	8
674.350	1	7
674.520	1	9
674.689	1	2
674.858	1	-8
675.028	1	-2
675.197	1	1
675.367	1	-2
675.536	1	3
675.705	1	10
675.875	1	0
676.044	1	17
676.214	1	-5
676.383	1	5
676.552	1	16
676.722	1	13
676.891	1	8
677.060	1	-6
677.230	1	-2
677.399	1	4
677.569	1	3
677.738	1	0
677.907	1	-5
678.077	1	14
678.246	1	-5
678.416	1	-3
678.585	1	2
678.754	1	0
678.924	1	5
679.093	1	-5
679.262	1	2
679.432	1	1
679.601	1	10
679.771	1	7
679.940	1	-1
680.109	1	-1
680.279	1	7
680.448	1	11
680.617	1	-3
680.787	1	-9
680.956	1	-7
681.125	1	8
681.295	1	1
681.464	1	3
681.634	1	1
681.803	1	5
681.972	1	-4
682.142	1	6
682.311	1	-2
682.480	1	7
682.650	1	0
682.819	1	8
682.988	1	2
683.158	1	-8
683.327	1	6
683.496	1	6
683.666	1	5
683.835	1	2
684.004	1	15
684.174	1	9
684.343	1	9
684.512	1	-3
684.682	1	9
684.851	1	-4
685.021	1	-9
685.190	1	0
685.359	1	3
685.529	1	11
685.698	1	5
685.867	1	6
686.037	1	1
686.206	1	-1
686.375	1	3
686.545	1	6
686.714	1	0
686.883	1	1
687.053	1	-1
687.222	1	1
687.391	1	2
687.561	1	-2
687.730	1	2
687.899	1	-6
688.069	1	4
688.238	1	-2
688.407	1	-4
688.577	1	4
688.746	1	-3
