340.368	1	-2
340.539	1	6
340.710	1	-7
340.881	1	9
341.052	1	9
341.223	1	-3
341.394	1	3
341.565	1	-1
341.737	1	5
341.908	1	7
342.079	1	4
342.250	1	9
342.421	1	4
342.592	1	-8
342.763	1	2
342.934	1	-12
343.105	1	5
343.276	1	0
343.447	1	-4
343.618	1	10
343.789	1	3
343.960	1	-3
344.131	1	0
344.302	1	-4
344.473	1	7
344.644	1	7
344.815	1	10
344.986	1	10
345.157	1	-3
345.328	1	2
345.499	1	1
345.670	1	8
345.841	1	5
346.012	1	0
346.183	1	16
346.354	1	8
346.526	1	6
346.697	1	12
346.868	1	3
347.039	1	4
347.210	1	-3
347.381	1	6
347.552	1	12
347.723	1	10
347.894	1	2
348.065	1	0
348.236	1	-1
348.407	1	5
348.578	1	6
348.749	1	9
348.920	1	5
349.091	1	6
349.262	1	11
349.433	1	7
349.604	1	11
349.775	1	13
349.946	1	11
350.117	1	1
350.288	1	6
350.459	1	13
350.630	1	9
350.801	1	4
350.972	1	-2
351.143	1	3
351.314	1	15
351.485	1	-2
351.656	1	-2
351.827	1	2
351.998	1	7
352.169	1	8
352.340	1	8
352.511	1	8
352.682	1	12
352.853	1	7
353.024	1	3
353.195	1	18
353.366	1	12
353.537	1	10
353.708	1	12
353.879	1	11
354.050	1	6
354.221	1	7
354.392	1	13
354.563	1	4
354.734	1	10
354.905	1	21
355.076	1	11
355.247	1	9
355.418	1	11
355.589	1	17
355.760	1	3
355.931	1	7
356.102	1	19
356.273	1	8
356.444	1	-3
356.615	1	8
356.785	1	10
356.956	1	13
357.127	1	11
357.298	1	15
357.469	1	9
357.640	1	6
357.811	1	23
357.982	1	14
358.153	1	20
358.324	1	15
358.495	1	12
358.666	1	22
358.837	1	11
359.008	1	20
359.179	1	10
359.350	1	25
359.521	1	26
359.692	1	23
359.863	1	25
360.034	1	13
360.205	1	29
360.376	1	24
360.547	1	31
360.718	1	26
360.889	1	39
361.060	1	33
361.231	1	32
361.401	1	26
361.572	1	43
361.743	1	42
361.914	1	44
362.085	1	33
362.256	1	25
362.427	1	39
362.598	1	40
362.769	1	40
362.940	1	49
363.111	1	53
363.282	1	51
363.453	1	45
363.624	1	65
363.795	1	50
363.966	1	62
364.137	1	59
364.308	1	66
364.478	1	65
364.649	1	61
364.820	1	64
364.991	1	81
365.162	1	83
365.333	1	72
365.504	1	81
365.675	1	86
365.846	1	80
366.017	1	91
366.188	1	85
366.359	1	84
366.530	1	104
366.701	1	87
366.871	1	99
367.042	1	108
367.213	1	103
367.384	1	117
367.555	1	110
367.726	1	115
367.897	1	111
368.068	1	121
368.239	1	115
368.410	1	124
368.581	1	116
368.752	1	118
368.923	1	113
369.093	1	109
369.264	1	113
369.435	1	107
369.606	1	119
369.777	1	118
369.948	1	115
370.119	1	109
370.290	1	100
370.461	1	111
370.632	1	103
370.803	1	109
370.973	1	106
371.144	1	92
371.315	1	94
371.486	1	92
371.657	1	86
371.828	1	90
371.999	1	98
372.170	1	88
372.341	1	98
372.512	1	77
372.682	1	74
372.853	1	83
373.024	1	65
373.195	1	66
373.366	1	76
373.537	1	80
373.708	1	72
373.879	1	70
374.050	1	69
374.220	1	74
374.391	1	69
374.562	1	71
374.733	1	52
374.904	1	56
375.075	1	59
375.246	1	60
375.417	1	65
375.588	1	63
375.758	1	63
375.929	1	40
376.100	1	54
376.271	1	48
376.442	1	52
376.613	1	49
376.784	1	36
376.955	1	55
377.125	1	51
377.296	1	46
377.467	1	45
377.638	1	49
377.809	1	47
377.980	1	27
378.151	1	40
378.321	1	43
378.492	1	38
378.663	1	44
378.834	1	40
379.005	1	34
379.176	1	33
379.347	1	33
379.518	1	23
379.688	1	25
379.859	1	36
380.030	1	30
380.201	1	42
380.372	1	38
380.543	1	31
380.714	1	37
380.884	1	29
381.055	1	37
381.226	1	41
381.397	1	33
381.568	1	37
381.739	1	18
381.910	1	31
382.080	1	24
382.251	1	20
382.422	1	25
382.593	1	32
382.764	1	27
382.935	1	19
383.105	1	32
383.276	1	38
383.447	1	29
383.618	1	32
383.789	1	23
383.960	1	24
384.130	1	27
384.301	1	11
384.472	1	16
384.643	1	14
384.814	1	20
384.985	1	11
385.156	1	15
385.326	1	24
385.497	1	19
385.668	1	23
385.839	1	11
386.010	1	17
386.180	1	26
386.351	1	14
386.522	1	22
386.693	1	15
386.864	1	22
387.035	1	15
387.205	1	11
387.376	1	11
387.547	1	14
387.718	1	1
387.889	1	23
388.060	1	14
388.230	1	9
388.401	1	1
388.572	1	10
388.743	1	29
388.914	1	8
389.084	1	19
389.255	1	16
389.426	1	15
389.597	1	10
389.768	1	11
389.939	1	21
390.109	1	16
390.280	1	16
390.451	1	5
390.622	1	6
390.793	1	12
390.963	1	12
391.134	1	6
391.305	1	11
391.476	1	21
391.647	1	1
391.817	1	17
391.988	1	16
392.159	1	17
392.330	1	13
392.501	1	15
392.671	1	12
392.842	1	5
393.013	1	0
393.184	1	16
393.355	1	13
393.525	1	9
393.696	1	17
393.867	1	0
394.038	1	2
394.208	1	15
394.379	1	7
394.550	1	13
394.721	1	4
394.892	1	13
395.062	1	10
395.233	1	8
395.404	1	18
395.575	1	10
395.746	1	11
395.916	1	3
396.087	1	1
396.258	1	-3
396.429	1	3
396.599	1	2
396.770	1	15
396.941	1	0
397.112	1	9
397.283	1	-1
397.453	1	8
397.624	1	9
397.795	1	4
397.966	1	16
398.136	1	12
398.307	1	12
398.478	1	7
398.649	1	15
398.819	1	5
398.990	1	-7
399.161	1	11
399.332	1	8
399.503	1	13
399.673	1	-1
399.844	1	8
400.015	1	14
400.186	1	4
400.356	1	2
400.527	1	23
400.698	1	-3
400.869	1	6
401.039	1	10
401.210	1	15
401.381	1	8
401.552	1	7
401.722	1	3
401.893	1	18
402.064	1	-1
402.235	1	9
402.405	1	5
402.576	1	-4
402.747	1	-1
402.918	1	2
403.088	1	7
403.259	1	1
403.430	1	14
403.601	1	16
403.771	1	7
403.942	1	6
404.113	1	6
404.284	1	-7
404.454	1	4
404.625	1	3
404.796	1	2
404.967	1	4
405.137	1	10
405.308	1	6
405.479	1	2
405.649	1	5
405.820	1	-2
405.991	1	6
406.162	1	15
406.332	1	5
406.503	1	13
406.674	1	13
406.845	1	7
407.015	1	6
407.186	1	-5
407.357	1	11
407.527	1	-4
407.698	1	11
407.869	1	3
408.040	1	9
408.210	1	-2
408.381	1	3
408.552	1	6
408.722	1	-3
408.893	1	2
409.064	1	10
409.235	1	9
409.405	1	1
409.576	1	14
409.747	1	-3
409.917	1	8
410.088	1	7
410.259	1	6
410.430	1	0
410.600	1	10
410.771	1	4
410.942	1	3
411.112	1	-5
411.283	1	5
411.454	1	1
411.625	1	5
411.795	1	12
411.966	1	1
412.137	1	-1
412.307	1	0
412.478	1	-1
412.649	1	-6
412.819	1	-3
412.990	1	10
413.161	1	9
413.332	1	-1
413.502	1	-3
413.673	1	0
413.844	1	16
414.014	1	12
414.185	1	4
414.356	1	3
414.526	1	4
414.697	1	10
414.868	1	-5
415.038	1	-6
415.209	1	-3
415.380	1	10
415.550	1	2
415.721	1	4
415.892	1	9
416.063	1	12
416.233	1	8
416.404	1	-1
416.575	1	8
416.745	1	4
416.916	1	-4
417.087	1	1
417.257	1	5
417.428	1	15
417.599	1	3
417.769	1	13
417.940	1	8
418.111	1	18
418.281	1	6
418.452	1	3
418.623	1	-1
418.793	1	6
418.964	1	-13
419.135	1	14
419.305	1	4
419.476	1	0
419.647	1	12
419.817	1	10
419.988	1	4
420.159	1	-2
420.329	1	-1
420.500	1	-2
420.671	1	-2
420.841	1	6
421.012	1	9
421.183	1	9
421.353	1	3
421.524	1	3
421.695	1	-2
421.865	1	-6
422.036	1	8
422.206	1	8
422.377	1	8
422.548	1	10
422.718	1	19
422.889	1	4
423.060	1	-3
423.230	1	6
423.401	1	5
423.572	1	3
423.742	1	-4
423.913	1	1
424.084	1	16
424.254	1	0
424.425	1	-3
424.595	1	8
424.766	1	-6
424.937	1	1
425.107	1	8
425.278	1	4
425.449	1	6
425.619	1	0
425.790	1	8
425.961	1	1
426.131	1	5
426.302	1	1
426.472	1	-7
426.643	1	5
426.814	1	-1
426.984	1	-1
427.155	1	14
427.326	1	10
427.496	1	-6
427.667	1	13
427.837	1	9
428.008	1	10
428.179	1	3
428.349	1	-4
428.520	1	5
428.691	1	2
428.861	1	1
429.032	1	4
429.202	1	-6
429.373	1	2
429.544	1	5
429.714	1	5
429.885	1	4
430.055	1	5
430.226	1	8
430.397	1	3
430.567	1	2
430.738	1	-2
430.909	1	6
431.079	1	1
431.250	1	16
431.420	1	-9
431.591	1	0
431.762	1	6
431.932	1	8
432.103	1	6
432.273	1	7
432.444	1	3
432.615	1	-1
432.785	1	0
432.956	1	6
433.126	1	-4
433.297	1	-3
433.468	1	2
433.638	1	10
433.809	1	3
433.979	1	9
434.150	1	12
434.320	1	11
434.491	1	-1
434.662	1	-1
434.832	1	11
435.003	1	14
435.173	1	8
435.344	1	5
435.515	1	6
435.685	1	3
435.856	1	14
436.026	1	0
436.197	1	-2
436.368	1	-4
436.538	1	5
436.709	1	-4
436.879	1	8
437.050	1	-7
437.220	1	6
437.391	1	1
437.562	1	2
437.732	1	7
437.903	1	-1
438.073	1	10
438.244	1	4
438.414	1	-1
438.585	1	10
438.756	1	-3
438.926	1	4
439.097	1	9
439.267	1	8
439.438	1	7
439.608	1	0
439.779	1	10
439.949	1	7
440.120	1	8
440.291	1	7
440.461	1	12
440.632	1	6
440.802	1	8
440.973	1	-2
441.143	1	-3
441.314	1	-11
441.485	1	-5
441.655	1	3
441.826	1	9
441.996	1	1
442.167	1	8
442.337	1	8
442.508	1	10
442.678	1	3
442.849	1	-10
443.019	1	-2
443.190	1	1
443.361	1	8
443.531	1	2
443.702	1	11
443.872	1	2
444.043	1	2
444.213	1	0
444.384	1	-3
444.554	1	2
444.725	1	5
444.895	1	-11
445.066	1	8
445.237	1	-2
445.407	1	14
445.578	1	6
445.748	1	3
445.919	1	3
446.089	1	1
446.260	1	7
446.430	1	-3
446.601	1	-1
446.771	1	-11
446.942	1	2
447.112	1	8
447.283	1	5
447.453	1	9
447.624	1	8
447.794	1	11
447.965	1	3
448.135	1	0
448.306	1	-2
448.477	1	12
448.647	1	6
448.818	1	7
448.988	1	16
449.159	1	-1
449.329	1	7
449.500	1	11
449.670	1	-10
449.841	1	-1
450.011	1	13
450.182	1	15
450.352	1	2
450.523	1	12
450.693	1	-6
450.864	1	8
451.034	1	-3
451.205	1	9
451.375	1	-1
451.546	1	-6
451.716	1	3
451.887	1	2
452.057	1	0
452.228	1	5
452.398	1	10
452.569	1	4
452.739	1	2
452.910	1	11
453.080	1	-2
453.251	1	10
453.421	1	0
453.592	1	-6
453.762	1	2
453.933	1	14
454.103	1	-6
454.274	1	8
454.444	1	-2
454.615	1	6
454.785	1	7
454.956	1	13
455.126	1	16
455.297	1	6
455.467	1	-1
455.638	1	11
455.808	1	5
455.979	1	12
456.149	1	-4
456.320	1	4
456.490	1	1
456.661	1	0
456.831	1	-3
457.001	1	4
457.172	1	2
457.342	1	-1
457.513	1	15
457.683	1	4
457.854	1	7
458.024	1	6
458.195	1	6
458.365	1	-5
458.536	1	3
458.706	1	11
458.877	1	6
459.047	1	7
459.218	1	1
459.388	1	7
459.559	1	8
459.729	1	10
459.899	1	5
460.070	1	2
460.240	1	2
460.411	1	-2
460.581	1	4
460.752	1	10
460.922	1	7
461.093	1	10
461.263	1	3
461.434	1	-5
461.604	1	10
461.775	1	7
461.945	1	3
462.115	1	4
462.286	1	5
462.456	1	-2
462.627	1	7
462.797	1	7
462.968	1	7
463.138	1	-1
463.309	1	-6
463.479	1	-4
463.649	1	6
463.820	1	6
463.990	1	9
464.161	1	12
464.331	1	2
464.502	1	6
464.672	1	7
464.843	1	-8
465.013	1	12
465.183	1	11
465.354	1	-7
465.524	1	10
465.695	1	4
465.865	1	5
466.036	1	-3
466.206	1	10
466.376	1	6
466.547	1	10
466.717	1	-1
466.888	1	3
467.058	1	0
467.229	1	4
467.399	1	12
467.569	1	12
467.740	1	1
467.910	1	-1
468.081	1	2
468.251	1	4
468.422	1	8
468.592	1	6
468.762	1	14
468.933	1	2
469.103	1	5
469.274	1	8
469.444	1	2
469.614	1	3
469.785	1	-3
469.955	1	12
470.126	1	3
470.296	1	2
470.467	1	14
470.637	1	11
470.807	1	2
470.978	1	2
471.148	1	3
471.319	1	10
471.489	1	6
471.659	1	-4
471.830	1	9
472.000	1	3
472.171	1	10
472.341	1	10
472.511	1	4
472.682	1	-2
472.852	1	10
473.023	1	0
473.193	1	13
473.363	1	-1
473.534	1	7
473.704	1	2
473.875	1	-4
474.045	1	7
474.215	1	8
474.386	1	8
474.556	1	7
474.727	1	7
474.897	1	5
475.067	1	1
475.238	1	-7
475.408	1	2
475.578	1	2
475.749	1	15
475.919	1	11
476.090	1	13
476.260	1	16
476.430	1	-6
476.601	1	5
476.771	1	10
476.942	1	3
477.112	1	-5
477.282	1	-2
477.453	1	9
477.623	1	11
477.793	1	2
477.964	1	-3
478.134	1	17
478.305	1	7
478.475	1	8
478.645	1	7
478.816	1	10
478.986	1	4
479.156	1	5
479.327	1	-13
479.497	1	7
479.667	1	-1
479.838	1	11
480.008	1	0
480.179	1	5
480.349	1	3
480.519	1	6
480.690	1	-4
480.860	1	-7
481.030	1	11
481.201	1	4
481.371	1	6
481.541	1	8
481.712	1	6
481.882	1	15
482.053	1	-2
482.223	1	-2
482.393	1	-3
482.564	1	-4
482.734	1	14
482.904	1	8
483.075	1	5
483.245	1	-4
483.415	1	8
483.586	1	9
483.756	1	5
483.926	1	1
484.097	1	-6
484.267	1	5
484.437	1	8
484.608	1	13
484.778	1	1
484.948	1	1
485.119	1	10
485.289	1	7
485.459	1	9
485.630	1	15
485.800	1	-3
485.970	1	5
486.141	1	18
486.311	1	3
486.481	1	2
486.652	1	6
486.822	1	9
486.992	1	4
487.163	1	12
487.333	1	3
487.503	1	16
487.674	1	0
487.844	1	10
488.014	1	4
488.185	1	5
488.355	1	-2
488.525	1	18
488.696	1	12
488.866	1	11
489.036	1	11
489.207	1	16
489.377	1	0
489.547	1	10
489.718	1	11
489.888	1	6
490.058	1	6
490.228	1	5
490.399	1	10
490.569	1	14
490.739	1	15
490.910	1	0
491.080	1	7
491.250	1	5
491.421	1	0
491.591	1	-3
491.761	1	7
491.932	1	20
492.102	1	6
492.272	1	14
492.442	1	9
492.613	1	6
492.783	1	7
492.953	1	4
493.124	1	9
493.294	1	8
493.464	1	8
493.635	1	-3
493.805	1	10
493.975	1	15
494.145	1	20
494.316	1	10
494.486	1	14
494.656	1	6
494.827	1	13
494.997	1	4
495.167	1	7
495.337	1	13
495.508	1	12
495.678	1	8
495.848	1	-2
496.019	1	-5
496.189	1	0
496.359	1	8
496.529	1	3
496.700	1	13
496.870	1	5
497.040	1	11
497.211	1	6
497.381	1	12
497.551	1	18
497.721	1	11
497.892	1	11
498.062	1	7
498.232	1	5
498.403	1	8
498.573	1	-4
498.743	1	2
498.913	1	14
499.084	1	8
499.254	1	20
499.424	1	21
499.594	1	8
499.765	1	4
499.935	1	15
500.105	1	8
500.275	1	20
500.446	1	9
500.616	1	4
500.786	1	-3
500.956	1	21
501.127	1	8
501.297	1	11
501.467	1	2
501.638	1	3
501.808	1	6
501.978	1	10
502.148	1	15
502.319	1	15
502.489	1	12
502.659	1	10
502.829	1	13
503.000	1	14
503.170	1	21
503.340	1	22
503.510	1	13
503.681	1	20
503.851	1	11
504.021	1	22
504.191	1	10
504.362	1	10
504.532	1	2
504.702	1	18
504.872	1	15
505.042	1	16
505.213	1	11
505.383	1	15
505.553	1	10
505.723	1	11
505.894	1	15
506.064	1	18
506.234	1	9
506.404	1	12
506.575	1	25
506.745	1	11
506.915	1	23
507.085	1	0
507.256	1	9
507.426	1	4
507.596	1	8
507.766	1	15
507.936	1	26
508.107	1	12
508.277	1	6
508.447	1	14
508.617	1	16
508.788	1	6
508.958	1	18
509.128	1	7
509.298	1	15
509.468	1	16
509.639	1	23
509.809	1	18
509.979	1	18
510.149	1	17
510.319	1	5
510.490	1	25
510.660	1	11
510.830	1	9
511.000	1	18
511.171	1	16
511.341	1	17
511.511	1	12
511.681	1	16
511.851	1	16
512.022	1	14
512.192	1	21
512.362	1	14
512.532	1	7
512.702	1	14
512.873	1	10
513.043	1	21
513.213	1	12
513.383	1	14
513.553	1	10
513.724	1	16
513.894	1	18
514.064	1	15
514.234	1	14
514.404	1	9
514.575	1	10
514.745	1	0
514.915	1	19
515.085	1	15
515.255	1	7
515.425	1	14
515.596	1	23
515.766	1	13
515.936	1	13
516.106	1	29
516.276	1	20
516.447	1	14
516.617	1	19
516.787	1	13
516.957	1	-4
517.127	1	13
517.297	1	21
517.468	1	16
517.638	1	12
517.808	1	21
517.978	1	20
518.148	1	20
518.319	1	22
518.489	1	18
518.659	1	17
518.829	1	19
518.999	1	25
519.169	1	24
519.340	1	25
519.510	1	26
519.680	1	21
519.850	1	13
520.020	1	15
520.190	1	17
520.361	1	17
520.531	1	21
520.701	1	27
520.871	1	7
521.041	1	13
521.211	1	14
521.382	1	19
521.552	1	16
521.722	1	23
521.892	1	20
522.062	1	14
522.232	1	13
522.402	1	16
522.573	1	16
522.743	1	31
522.913	1	18
523.083	1	14
523.253	1	23
523.423	1	11
523.593	1	13
523.764	1	32
523.934	1	13
524.104	1	19
524.274	1	19
524.444	1	17
524.614	1	13
524.784	1	32
524.955	1	16
525.125	1	16
525.295	1	12
525.465	1	15
525.635	1	28
525.805	1	25
525.975	1	11
526.146	1	9
526.316	1	29
526.486	1	20
526.656	1	24
526.826	1	12
526.996	1	23
527.166	1	17
527.337	1	13
527.507	1	22
527.677	1	11
527.847	1	15
528.017	1	11
528.187	1	16
528.357	1	9
528.527	1	17
528.698	1	11
528.868	1	21
529.038	1	15
529.208	1	22
529.378	1	19
529.548	1	16
529.718	1	18
529.888	1	12
530.058	1	24
530.229	1	33
530.399	1	23
530.569	1	25
530.739	1	20
530.909	1	14
531.079	1	32
531.249	1	16
531.419	1	20
531.589	1	22
531.760	1	25
531.930	1	18
532.100	1	18
532.270	1	23
532.440	1	22
532.610	1	20
532.780	1	12
532.950	1	5
533.120	1	26
533.290	1	18
533.461	1	18
533.631	1	14
533.801	1	22
533.971	1	15
534.141	1	20
534.311	1	8
534.481	1	32
534.651	1	24
534.821	1	28
534.991	1	10
535.162	1	14
535.332	1	21
535.502	1	23
535.672	1	21
535.842	1	28
536.012	1	12
536.182	1	18
536.352	1	10
536.522	1	17
536.692	1	24
536.862	1	21
537.032	1	7
537.203	1	22
537.373	1	21
537.543	1	17
537.713	1	32
537.883	1	24
538.053	1	16
538.223	1	15
538.393	1	20
538.563	1	18
538.733	1	10
538.903	1	18
539.073	1	17
539.243	1	11
539.413	1	11
539.584	1	16
539.754	1	9
539.924	1	6
540.094	1	14
540.264	1	18
540.434	1	10
540.604	1	18
540.774	1	21
540.944	1	5
541.114	1	21
541.284	1	17
541.454	1	7
541.624	1	12
541.794	1	14
541.964	1	23
542.134	1	19
542.305	1	20
542.475	1	19
542.645	1	13
542.815	1	16
542.985	1	20
543.155	1	17
543.325	1	14
543.495	1	20
543.665	1	19
543.835	1	9
544.005	1	19
544.175	1	7
544.345	1	25
544.515	1	24
544.685	1	11
544.855	1	13
545.025	1	11
545.195	1	23
545.365	1	10
545.535	1	8
545.705	1	26
545.875	1	14
546.045	1	13
546.216	1	13
546.386	1	19
546.556	1	14
546.726	1	14
546.896	1	17
547.066	1	23
547.236	1	25
547.406	1	21
547.576	1	6
547.746	1	9
547.916	1	23
548.086	1	22
548.256	1	20
548.426	1	12
548.596	1	13
548.766	1	18
548.936	1	2
549.106	1	25
549.276	1	15
549.446	1	24
549.616	1	24
549.786	1	8
549.956	1	10
550.126	1	12
550.296	1	23
550.466	1	9
550.636	1	19
550.806	1	12
550.976	1	22
551.146	1	14
551.316	1	15
551.486	1	10
551.656	1	22
551.826	1	20
551.996	1	19
552.166	1	22
552.336	1	16
552.506	1	11
552.676	1	16
552.846	1	15
553.016	1	3
553.186	1	14
553.356	1	15
553.526	1	12
553.696	1	14
553.866	1	4
554.036	1	19
554.206	1	15
554.376	1	10
554.546	1	13
554.716	1	12
554.886	1	10
555.056	1	17
555.226	1	11
555.396	1	13
555.566	1	19
555.736	1	14
555.906	1	8
556.076	1	10
556.246	1	13
556.416	1	9
556.586	1	11
556.756	1	10
556.926	1	12
557.096	1	10
557.266	1	21
557.436	1	3
557.606	1	16
557.776	1	13
557.946	1	16
558.116	1	2
558.286	1	13
558.456	1	4
558.626	1	20
558.796	1	11
558.966	1	18
559.136	1	15
559.306	1	16
559.476	1	11
559.646	1	1
559.816	1	8
559.986	1	13
560.155	1	12
560.325	1	4
560.495	1	11
560.665	1	13
560.835	1	13
561.005	1	11
561.175	1	-2
561.345	1	0
561.515	1	18
561.685	1	9
561.855	1	14
562.025	1	5
562.195	1	10
562.365	1	19
562.535	1	14
562.705	1	9
562.875	1	19
563.045	1	7
563.215	1	8
563.385	1	15
563.555	1	8
563.725	1	6
563.895	1	10
564.064	1	19
564.234	1	20
564.404	1	3
564.574	1	9
564.744	1	18
564.914	1	8
565.084	1	19
565.254	1	14
565.424	1	10
565.594	1	18
565.764	1	13
565.934	1	15
566.104	1	9
566.274	1	2
566.444	1	11
566.614	1	3
566.783	1	10
566.953	1	7
567.123	1	10
567.293	1	11
567.463	1	5
567.633	1	18
567.803	1	9
567.973	1	7
568.143	1	11
568.313	1	11
568.483	1	4
568.653	1	16
568.823	1	12
568.993	1	11
569.162	1	14
569.332	1	10
569.502	1	9
569.672	1	12
569.842	1	13
570.012	1	11
570.182	1	10
570.352	1	9
570.522	1	5
570.692	1	22
570.862	1	21
571.031	1	10
571.201	1	11
571.371	1	20
571.541	1	0
571.711	1	13
571.881	1	1
572.051	1	4
572.221	1	3
572.391	1	14
572.561	1	9
572.731	1	14
572.900	1	3
573.070	1	6
573.240	1	10
573.410	1	11
573.580	1	13
573.750	1	17
573.920	1	14
574.090	1	20
574.260	1	21
574.430	1	23
574.599	1	0
574.769	1	-1
574.939	1	3
575.109	1	17
575.279	1	3
575.449	1	6
575.619	1	13
575.789	1	4
575.959	1	0
576.128	1	10
576.298	1	13
576.468	1	9
576.638	1	9
576.808	1	9
576.978	1	2
577.148	1	10
577.318	1	15
577.487	1	18
577.657	1	8
577.827	1	3
577.997	1	5
578.167	1	6
578.337	1	8
578.507	1	18
578.677	1	11
578.846	1	9
579.016	1	3
579.186	1	5
579.356	1	8
579.526	1	0
579.696	1	12
579.866	1	8
580.036	1	13
580.205	1	11
580.375	1	6
580.545	1	7
580.715	1	12
580.885	1	3
581.055	1	17
581.225	1	13
581.394	1	11
581.564	1	12
581.734	1	12
581.904	1	0
582.074	1	9
582.244	1	11
582.414	1	-1
582.583	1	13
582.753	1	4
582.923	1	22
583.093	1	9
583.263	1	14
583.433	1	6
583.603	1	3
583.772	1	9
583.942	1	11
584.112	1	11
584.282	1	2
584.452	1	10
584.622	1	14
584.791	1	1
584.961	1	4
585.131	1	13
585.301	1	15
585.471	1	12
585.641	1	13
585.811	1	-3
585.980	1	10
586.150	1	8
586.320	1	13
586.490	1	15
586.660	1	2
586.830	1	4
586.999	1	8
587.169	1	16
587.339	1	-3
587.509	1	13
587.679	1	3
587.849	1	13
588.018	1	14
588.188	1	4
588.358	1	22
588.528	1	4
588.698	1	4
588.867	1	9
589.037	1	2
589.207	1	3
589.377	1	9
589.547	1	7
589.717	1	4
589.886	1	5
590.056	1	-7
590.226	1	1
590.396	1	12
590.566	1	4
590.735	1	0
590.905	1	14
591.075	1	14
591.245	1	6
591.415	1	13
591.585	1	2
591.754	1	-1
591.924	1	2
592.094	1	14
592.264	1	2
592.434	1	-1
592.603	1	-2
592.773	1	17
592.943	1	9
593.113	1	3
593.283	1	9
593.452	1	10
593.622	1	0
593.792	1	1
593.962	1	11
594.132	1	14
594.301	1	17
594.471	1	11
594.641	1	4
594.811	1	-4
594.981	1	9
595.150	1	4
595.320	1	3
595.490	1	6
595.660	1	6
595.829	1	9
595.999	1	3
596.169	1	11
596.339	1	6
596.509	1	5
596.678	1	6
596.848	1	11
597.018	1	2
597.188	1	3
597.358	1	-3
597.527	1	10
597.697	1	5
597.867	1	18
598.037	1	2
598.206	1	14
598.376	1	-2
598.546	1	8
598.716	1	2
598.885	1	8
599.055	1	7
599.225	1	6
599.395	1	2
599.565	1	9
599.734	1	11
599.904	1	10
600.074	1	8
600.244	1	15
600.413	1	6
600.583	1	3
600.753	1	11
600.923	1	17
601.092	1	4
601.262	1	4
601.432	1	-1
601.602	1	8
601.771	1	8
601.941	1	-1
602.111	1	3
602.281	1	-2
602.451	1	6
602.620	1	5
602.790	1	18
602.960	1	5
603.130	1	2
603.299	1	8
603.469	1	10
603.639	1	10
603.809	1	14
603.978	1	7
604.148	1	10
604.318	1	0
604.487	1	5
604.657	1	8
604.827	1	-1
604.997	1	2
605.166	1	15
605.336	1	-4
605.506	1	11
605.676	1	4
605.845	1	8
606.015	1	0
606.185	1	9
606.355	1	8
606.524	1	10
606.694	1	-4
606.864	1	2
607.034	1	15
607.203	1	8
607.373	1	11
607.543	1	15
607.712	1	-12
607.882	1	1
608.052	1	-1
608.222	1	5
608.391	1	18
608.561	1	12
608.731	1	8
608.901	1	9
609.070	1	-6
609.240	1	1
609.410	1	9
609.579	1	11
609.749	1	5
609.919	1	-1
610.089	1	9
610.258	1	8
610.428	1	7
610.598	1	15
610.767	1	13
610.937	1	0
611.107	1	-9
611.277	1	12
611.446	1	1
611.616	1	9
611.786	1	8
611.955	1	8
612.125	1	11
612.295	1	4
612.465	1	3
612.634	1	3
612.804	1	11
612.974	1	6
613.143	1	-2
613.313	1	-3
613.483	1	3
613.652	1	22
613.822	1	5
613.992	1	1
614.162	1	7
614.331	1	8
614.501	1	-1
614.671	1	13
614.840	1	-4
615.010	1	5
615.180	1	15
615.349	1	7
615.519	1	4
615.689	1	10
615.858	1	1
616.028	1	6
616.198	1	-2
616.368	1	7
616.537	1	4
616.707	1	15
616.877	1	5
617.046	1	4
617.216	1	7
617.386	1	3
617.555	1	7
617.725	1	11
617.895	1	-2
618.064	1	9
618.234	1	2
618.404	1	2
618.573	1	-12
618.743	1	3
618.913	1	9
619.082	1	2
619.252	1	15
619.422	1	1
619.591	1	14
619.761	1	3
619.931	1	1
620.100	1	3
620.270	1	6
620.440	1	11
620.609	1	10
620.779	1	2
620.949	1	7
621.118	1	-3
621.288	1	13
621.458	1	9
621.627	1	9
621.797	1	11
621.967	1	-1
622.136	1	15
622.306	1	3
622.476	1	12
622.645	1	6
622.815	1	2
622.985	1	3
623.154	1	8
623.324	1	-6
623.494	1	3
623.663	1	13
623.833	1	4
624.002	1	5
624.172	1	2
624.342	1	9
624.511	1	10
624.681	1	3
624.851	1	7
625.020	1	-1
625.190	1	9
625.360	1	9
625.529	1	13
625.699	1	5
625.869	1	9
626.038	1	2
626.208	1	14
626.377	1	12
626.547	1	-3
626.717	1	-4
626.886	1	10
627.056	1	5
627.226	1	13
627.395	1	-4
627.565	1	1
627.735	1	0
627.904	1	4
628.074	1	2
628.243	1	-4
628.413	1	1
628.583	1	7
628.752	1	1
628.922	1	-2
629.091	1	-2
629.261	1	3
629.431	1	6
629.600	1	-6
629.770	1	4
629.940	1	-4
630.109	1	6
630.279	1	4
630.448	1	11
630.618	1	-1
630.788	1	6
630.957	1	4
631.127	1	5
631.297	1	-2
631.466	1	7
631.636	1	10
631.805	1	18
631.975	1	-7
632.145	1	14
632.314	1	6
632.484	1	-3
632.653	1	5
632.823	1	3
632.993	1	2
633.162	1	13
633.332	1	-2
633.501	1	7
633.671	1	18
633.841	1	9
634.010	1	6
634.180	1	8
634.349	1	-2
634.519	1	5
634.689	1	11
634.858	1	1
635.028	1	10
635.197	1	8
635.367	1	6
635.537	1	1
635.706	1	-4
635.876	1	2
636.045	1	11
636.215	1	2
636.384	1	-6
636.554	1	-3
636.724	1	14
636.893	1	11
637.063	1	-3
637.232	1	7
637.402	1	7
637.572	1	2
637.741	1	1
637.911	1	14
638.080	1	11
638.250	1	9
638.419	1	-4
638.589	1	0
638.759	1	2
638.928	1	8
639.098	1	9
639.267	1	17
639.437	1	-1
639.606	1	-8
639.776	1	3
639.946	1	-4
640.115	1	10
640.285	1	-3
640.454	1	1
640.624	1	-2
640.793	1	2
640.963	1	1
641.132	1	20
641.302	1	4
641.472	1	-1
641.641	1	-1
641.811	1	5
641.980	1	1
642.150	1	4
642.319	1	12
642.489	1	-4
642.659	1	2
642.828	1	9
642.998	1	10
643.167	1	6
643.337	1	0
643.506	1	6
643.676	1	12
643.845	1	4
644.015	1	8
644.184	1	14
644.354	1	10
644.524	1	4
644.693	1	1
644.863	1	-7
645.032	1	1
645.202	1	18
645.371	1	-2
645.541	1	7
645.710	1	1
645.880	1	9
646.049	1	14
646.219	1	1
646.388	1	5
646.558	1	6
646.728	1	2
646.897	1	7
647.067	1	6
647.236	1	-2
647.406	1	7
647.575	1	0
647.745	1	1
647.914	1	4
648.084	1	-2
648.253	1	-4
648.423	1	10
648.592	1	0
648.762	1	11
648.931	1	16
649.101	1	6
649.270	1	7
649.440	1	-4
649.610	1	1
649.779	1	8
649.949	1	-4
650.118	1	-3
650.288	1	-4
650.457	1	2
650.627	1	2
650.796	1	12
650.966	1	-2
651.135	1	3
651.305	1	-7
651.474	1	3
651.644	1	2
651.813	1	3
651.983	1	4
652.152	1	-6
652.322	1	11
652.491	1	6
652.661	1	10
652.830	1	-6
653.000	1	-10
653.169	1	-10
653.339	1	4
653.508	1	12
653.678	1	7
653.847	1	3
654.017	1	12
654.186	1	23
654.356	1	12
654.525	1	-9
654.695	1	14
654.864	1	15
655.034	1	-10
655.203	1	6
655.373	1	7
655.542	1	-3
655.712	1	2
655.881	1	4
656.051	1	15
656.220	1	11
656.390	1	4
656.559	1	2
656.729	1	3
656.898	1	3
657.068	1	7
657.237	1	3
657.406	1	6
657.576	1	2
657.745	1	10
657.915	1	8
658.084	1	-2
658.254	1	13
658.423	1	0
658.593	1	-7
658.762	1	3
658.932	1	5
659.101	1	3
659.271	1	2
659.440	1	11
659.610	1	2
659.779	1	-2
659.949	1	-5
660.118	1	10
660.288	1	4
660.457	1	12
660.626	1	7
660.796	1	5
660.965	1	9
661.135	1	-10
661.304	1	7
661.474	1	5
661.643	1	3
661.813	1	-4
661.982	1	11
662.152	1	5
662.321	1	2
662.491	1	-4
662.660	1	-1
662.829	1	2
662.999	1	11
663.168	1	2
663.338	1	11
663.507	1	7
663.677	1	5
663.846	1	-1
664.016	1	6
664.185	1	-1
664.354	1	5
664.524	1	13
664.693	1	-5
664.863	1	4
665.032	1	0
665.202	1	7
665.371	1	-1
665.541	1	3
665.710	1	2
665.879	1	14
666.049	1	2
666.218	1	11
666.388	1	6
666.557	1	-9
666.727	1	9
666.896	1	4
667.065	1	-9
667.235	1	10
667.404	1	5
667.574	1	-7
667.743	1	1
667.913	1	-2
668.082	1	15
668.251	1	4
668.421	1	13
668.590	1	2
668.760	1	10
668.929	1	4
669.099	1	9
669.268	1	3
669.437	1	-2
669.607	1	10
669.776	1	8
669.946	1	2
670.115	1	1
670.285	1	13
670.454	1	4
670.623	1	3
670.793	1	3
670.962	1	2
671.132	1	8
671.301	1	8
671.470	1	8
671.640	1	6
671.809	1	5
671.979	1	5
672.148	1	7
672.317	1	10
672.487	1	-3
672.656	1	6
672.826	1	6
672.995	1	-1
673.164	1	6
673.334	1	-7
673.503	1	2
673.673	1	5
673.842	1	13
674.011	1	3
674.181	1	6
674.350	1	-1
674.520	1	9
674.689	1	2
674.858	1	-5
675.028	1	6
675.197	1	6
675.367	1	-5
675.536	1	0
675.705	1	14
675.875	1	4
676.044	1	17
676.214	1	-2
676.383	1	7
676.552	1	6
676.722	1	22
676.891	1	12
677.060	1	-5
677.230	1	8
677.399	1	8
677.569	1	0
677.738	1	-1
677.907	1	-2
678.077	1	12
678.246	1	-4
678.416	1	-3
678.585	1	4
678.754	1	5
678.924	1	21
679.093	1	4
679.262	1	8
679.432	1	11
679.601	1	2
679.771	1	9
679.940	1	6
680.109	1	7
680.279	1	5
680.448	1	8
680.617	1	2
680.787	1	-6
680.956	1	2
681.125	1	8
681.295	1	10
681.464	1	8
681.634	1	-2
681.803	1	3
681.972	1	-2
682.142	1	-2
682.311	1	10
682.480	1	11
682.650	1	3
682.819	1	10
682.988	1	2
683.158	1	7
683.327	1	13
683.496	1	9
683.666	1	4
683.835	1	2
684.004	1	8
684.174	1	-1
684.343	1	6
684.512	1	-9
684.682	1	14
684.851	1	1
685.021	1	-7
685.190	1	7
685.359	1	12
685.529	1	10
685.698	1	-5
685.867	1	6
686.037	1	3
686.206	1	11
686.375	1	11
686.545	1	5
686.714	1	5
686.883	1	5
687.053	1	-6
687.222	1	1
687.391	1	3
687.561	1	8
687.730	1	6
687.899	1	3
688.069	1	-2
688.238	1	2
688.407	1	-10
688.577	1	25
688.746	1	-2
