340.368	1	1
340.539	1	7
340.710	1	-6
340.881	1	-2
341.052	1	6
341.223	1	-6
341.394	1	3
341.565	1	2
341.737	1	1
341.908	1	11
342.079	1	0
342.250	1	7
342.421	1	-2
342.592	1	-2
342.763	1	1
342.934	1	-11
343.105	1	10
343.276	1	1
343.447	1	-10
343.618	1	2
343.789	1	9
343.960	1	-2
344.131	1	-5
344.302	1	-10
344.473	1	0
344.644	1	0
344.815	1	6
344.986	1	9
345.157	1	0
345.328	1	2
345.499	1	0
345.670	1	8
345.841	1	11
346.012	1	6
346.183	1	4
346.354	1	-6
346.526	1	-6
346.697	1	13
346.868	1	10
347.039	1	0
347.210	1	-13
347.381	1	-4
347.552	1	11
347.723	1	16
347.894	1	-1
348.065	1	-12
348.236	1	0
348.407	1	-10
348.578	1	6
348.749	1	9
348.920	1	0
349.091	1	1
349.262	1	-3
349.433	1	1
349.604	1	1
349.775	1	2
349.946	1	1
350.117	1	-8
350.288	1	2
350.459	1	-10
350.630	1	15
350.801	1	2
350.972	1	8
351.143	1	-2
351.314	1	3
351.485	1	-1
351.656	1	3
351.827	1	6
351.998	1	2
352.169	1	-6
352.340	1	0
352.511	1	7
352.682	1	8
352.853	1	3
353.024	1	4
353.195	1	5
353.366	1	3
353.537	1	2
353.708	1	10
353.879	1	7
354.050	1	-7
354.221	1	-3
354.392	1	0
354.563	1	-6
354.734	1	9
354.905	1	7
355.076	1	8
355.247	1	0
355.418	1	-4
355.589	1	4
355.760	1	-1
355.931	1	1
356.102	1	1
356.273	1	-8
356.444	1	-4
356.615	1	3
356.785	1	1
356.956	1	0
357.127	1	0
357.298	1	10
357.469	1	-9
357.640	1	2
357.811	1	2
357.982	1	-1
358.153	1	-1
358.324	1	9
358.495	1	-2
358.666	1	11
358.837	1	-4
359.008	1	7
359.179	1	-3
359.350	1	9
359.521	1	11
359.692	1	4
359.863	1	-4
360.034	1	4
360.205	1	0
360.376	1	3
360.547	1	15
360.718	1	-4
360.889	1	2
361.060	1	-3
361.231	1	10
361.401	1	0
361.572	1	2
361.743	1	7
361.914	1	3
362.085	1	-3
362.256	1	-2
362.427	1	-3
362.598	1	-2
362.769	1	-2
362.940	1	14
363.111	1	20
363.282	1	1
363.453	1	4
363.624	1	1
363.795	1	2
363.966	1	0
364.137	1	12
364.308	1	6
364.478	1	6
364.649	1	-3
364.820	1	1
364.991	1	15
365.162	1	8
365.333	1	7
365.504	1	-8
365.675	1	6
365.846	1	-1
366.017	1	4
366.188	1	4
366.359	1	-4
366.530	1	7
366.701	1	9
366.871	1	5
367.042	1	-2
367.213	1	7
367.384	1	13
367.555	1	8
367.726	1	17
367.897	1	5
368.068	1	6
368.239	1	5
368.410	1	12
368.581	1	22
368.752	1	3
368.923	1	10
369.093	1	6
369.264	1	-3
369.435	1	3
369.606	1	10
369.777	1	20
369.948	1	13
370.119	1	6
370.290	1	11
370.461	1	2
370.632	1	5
370.803	1	7
370.973	1	9
371.144	1	6
371.315	1	18
371.486	1	-1
371.657	1	2
371.828	1	10
371.999	1	11
372.170	1	2
372.341	1	12
372.512	1	1
372.682	1	5
372.853	1	21
373.024	1	-5
373.195	1	7
373.366	1	10
373.537	1	18
373.708	1	-5
373.879	1	11
374.050	1	0
374.220	1	13
374.391	1	3
374.562	1	-3
374.733	1	6
374.904	1	-1
375.075	1	3
375.246	1	3
375.417	1	8
375.588	1	-2
375.758	1	12
375.929	1	10
376.100	1	8
376.271	1	11
376.442	1	9
376.613	1	3
376.784	1	-3
376.955	1	11
377.125	1	10
377.296	1	0
377.467	1	12
377.638	1	4
377.809	1	8
377.980	1	-11
378.151	1	8
378.321	1	9
378.492	1	7
378.663	1	-3
378.834	1	-3
379.005	1	1
379.176	1	-7
379.347	1	10
379.518	1	3
379.688	1	0
379.859	1	2
380.030	1	2
380.201	1	-6
380.372	1	4
380.543	1	7
380.714	1	13
380.884	1	5
381.055	1	-5
381.226	1	5
381.397	1	2
381.568	1	9
381.739	1	-3
381.910	1	5
382.080	1	-2
382.251	1	-1
382.422	1	3
382.593	1	15
382.764	1	3
382.935	1	2
383.105	1	10
383.276	1	10
383.447	1	10
383.618	1	3
383.789	1	16
383.960	1	6
384.130	1	-1
384.301	1	-9
384.472	1	-2
384.643	1	-6
384.814	1	12
384.985	1	-12
385.156	1	-1
385.326	1	-4
385.497	1	4
385.668	1	10
385.839	1	-3
386.010	1	5
386.180	1	5
386.351	1	4
386.522	1	4
386.693	1	-3
386.864	1	6
387.035	1	-2
387.205	1	-5
387.376	1	-4
387.547	1	4
387.718	1	4
387.889	1	4
388.060	1	-3
388.230	1	-3
388.401	1	-5
388.572	1	6
388.743	1	14
388.914	1	-3
389.084	1	-2
389.255	1	8
389.426	1	9
389.597	1	6
389.768	1	7
389.939	1	-1
390.109	1	4
390.280	1	4
390.451	1	0
390.622	1	0
390.793	1	-3
390.963	1	8
391.134	1	1
391.305	1	-2
391.476	1	10
391.647	1	-7
391.817	1	2
391.988	1	7
392.159	1	16
392.330	1	2
392.501	1	2
392.671	1	0
392.842	1	-3
393.013	1	2
393.184	1	0
393.355	1	2
393.525	1	7
393.696	1	6
393.867	1	-1
394.038	1	-8
394.208	1	8
394.379	1	1
394.550	1	4
394.721	1	2
394.892	1	0
395.062	1	-4
395.233	1	6
395.404	1	13
395.575	1	-1
395.746	1	12
395.916	1	2
396.087	1	1
396.258	1	-3
396.429	1	13
396.599	1	-4
396.770	1	15
396.941	1	8
397.112	1	4
397.283	1	0
397.453	1	3
397.624	1	-5
397.795	1	-2
397.966	1	4
398.136	1	2
398.307	1	3
398.478	1	2
398.649	1	10
398.819	1	0
398.990	1	-13
399.161	1	-7
399.332	1	-3
399.503	1	9
399.673	1	-2
399.844	1	-2
400.015	1	8
400.186	1	-13
400.356	1	-3
400.527	1	4
400.698	1	3
400.869	1	-2
401.039	1	-1
401.210	1	4
401.381	1	14
401.552	1	4
401.722	1	3
401.893	1	6
402.064	1	-3
402.235	1	8
402.405	1	-5
402.576	1	2
402.747	1	3
402.918	1	3
403.088	1	8
403.259	1	0
403.430	1	-2
403.601	1	4
403.771	1	5
403.942	1	0
404.113	1	6
404.284	1	-3
404.454	1	1
404.625	1	-1
404.796	1	6
404.967	1	1
405.137	1	12
405.308	1	11
405.479	1	-3
405.649	1	4
405.820	1	2
405.991	1	11
406.162	1	-3
406.332	1	-9
406.503	1	2
406.674	1	1
406.845	1	4
407.015	1	-7
407.186	1	8
407.357	1	-2
407.527	1	-1
407.698	1	-5
407.869	1	-1
408.040	1	-6
408.210	1	-2
408.381	1	-4
408.552	1	-2
408.722	1	-8
408.893	1	2
409.064	1	4
409.235	1	2
409.405	1	2
409.576	1	-1
409.747	1	4
409.917	1	8
410.088	1	10
410.259	1	8
410.430	1	-1
410.600	1	-8
410.771	1	-3
410.942	1	-2
411.112	1	2
411.283	1	8
411.454	1	2
411.625	1	-2
411.795	1	5
411.966	1	7
412.137	1	0
412.307	1	0
412.478	1	-5
412.649	1	0
412.819	1	-12
412.990	1	-2
413.161	1	-2
413.332	1	0
413.502	1	-3
413.673	1	-8
413.844	1	3
414.014	1	1
414.185	1	9
414.356	1	4
414.526	1	4
414.697	1	10
414.868	1	-2
415.038	1	-7
415.209	1	-10
415.380	1	10
415.550	1	-3
415.721	1	-14
415.892	1	4
416.063	1	1
416.233	1	4
416.404	1	4
416.575	1	2
416.745	1	6
416.916	1	-2
417.087	1	6
417.257	1	3
417.428	1	-3
417.599	1	1
417.769	1	3
417.940	1	3
418.111	1	9
418.281	1	-13
418.452	1	-4
418.623	1	-1
418.793	1	7
418.964	1	-6
419.135	1	0
419.305	1	5
419.476	1	-5
419.647	1	1
419.817	1	-8
419.988	1	2
420.159	1	8
420.329	1	-1
420.500	1	4
420.671	1	-3
420.841	1	-2
421.012	1	-1
421.183	1	-6
421.353	1	0
421.524	1	3
421.695	1	-5
421.865	1	0
422.036	1	6
422.206	1	3
422.377	1	8
422.548	1	5
422.718	1	1
422.889	1	-3
423.060	1	-3
423.230	1	14
423.401	1	7
423.572	1	1
423.742	1	-9
423.913	1	-7
424.084	1	7
424.254	1	4
424.425	1	-6
424.595	1	-4
424.766	1	5
424.937	1	-1
425.107	1	4
425.278	1	1
425.449	1	0
425.619	1	-2
425.790	1	-6
425.961	1	-6
426.131	1	9
426.302	1	-5
426.472	1	6
426.643	1	-4
426.814	1	-5
426.984	1	-1
427.155	1	11
427.326	1	3
427.496	1	0
427.667	1	-3
427.837	1	6
428.008	1	8
428.179	1	9
428.349	1	-10
428.520	1	3
428.691	1	-8
428.861	1	5
429.032	1	6
429.202	1	-2
429.373	1	-2
429.544	1	1
429.714	1	-4
429.885	1	2
430.055	1	3
430.226	1	-3
430.397	1	2
430.567	1	6
430.738	1	3
430.909	1	-1
431.079	1	0
431.250	1	12
431.420	1	-1
431.591	1	-1
431.762	1	1
431.932	1	-8
432.103	1	3
432.273	1	-4
432.444	1	0
432.615	1	1
432.785	1	3
432.956	1	3
433.126	1	5
433.297	1	-3
433.468	1	-6
433.638	1	12
433.809	1	-4
433.979	1	-6
434.150	1	-1
434.320	1	3
434.491	1	0
434.662	1	-5
434.832	1	2
435.003	1	1
435.173	1	0
435.344	1	1
435.515	1	5
435.685	1	4
435.856	1	14
436.026	1	1
436.197	1	-7
436.368	1	1
436.538	1	1
436.709	1	-2
436.879	1	5
437.050	1	-7
437.220	1	1
437.391	1	-2
437.562	1	10
437.732	1	9
437.903	1	5
438.073	1	-2
438.244	1	-7
438.414	1	-4
438.585	1	-1
438.756	1	-3
438.926	1	3
439.097	1	0
439.267	1	-3
439.438	1	0
439.608	1	-3
439.779	1	13
439.949	1	11
440.120	1	-2
440.291	1	-2
440.461	1	16
440.632	1	-9
440.802	1	13
440.973	1	-4
441.143	1	-4
441.314	1	-6
441.485	1	2
441.655	1	3
441.826	1	3
441.996	1	0
442.167	1	0
442.337	1	4
442.508	1	-7
442.678	1	0
442.849	1	-3
443.019	1	-4
443.190	1	1
443.361	1	2
443.531	1	2
443.702	1	8
443.872	1	1
444.043	1	4
444.213	1	-5
444.384	1	2
444.554	1	4
444.725	1	3
444.895	1	-11
445.066	1	6
445.237	1	-3
445.407	1	13
445.578	1	5
445.748	1	1
445.919	1	2
446.089	1	-2
446.260	1	11
446.430	1	-6
446.601	1	-2
446.771	1	-15
446.942	1	5
447.112	1	5
447.283	1	10
447.453	1	8
447.624	1	3
447.794	1	-1
447.965	1	7
448.135	1	-4
448.306	1	1
448.477	1	5
448.647	1	1
448.818	1	9
448.988	1	12
449.159	1	-3
449.329	1	4
449.500	1	6
449.670	1	-11
449.841	1	-2
450.011	1	5
450.182	1	8
450.352	1	-5
450.523	1	4
450.693	1	-6
450.864	1	3
451.034	1	-7
451.205	1	-4
451.375	1	-2
451.546	1	-10
451.716	1	13
451.887	1	3
452.057	1	3
452.228	1	-6
452.398	1	-6
452.569	1	12
452.739	1	-2
452.910	1	4
453.080	1	0
453.251	1	7
453.421	1	11
453.592	1	-18
453.762	1	3
453.933	1	-2
454.103	1	-4
454.274	1	0
454.444	1	-1
454.615	1	-2
454.785	1	-3
454.956	1	0
455.126	1	9
455.297	1	-2
455.467	1	-8
455.638	1	-7
455.808	1	10
455.979	1	5
456.149	1	5
456.320	1	-1
456.490	1	-1
456.661	1	4
456.831	1	-2
457.001	1	12
457.172	1	4
457.342	1	0
457.513	1	5
457.683	1	-7
457.854	1	2
458.024	1	8
458.195	1	-3
458.365	1	-4
458.536	1	-6
458.706	1	2
458.877	1	2
459.047	1	-9
459.218	1	9
459.388	1	0
459.559	1	-4
459.729	1	2
459.899	1	7
460.070	1	1
460.240	1	1
460.411	1	4
460.581	1	4
460.752	1	6
460.922	1	-4
461.093	1	3
461.263	1	0
461.434	1	-9
461.604	1	3
461.775	1	1
461.945	1	-1
462.115	1	1
462.286	1	3
462.456	1	-13
462.627	1	3
462.797	1	-4
462.968	1	9
463.138	1	7
463.309	1	5
463.479	1	-1
463.649	1	4
463.820	1	7
463.990	1	-2
464.161	1	-1
464.331	1	0
464.502	1	5
464.672	1	-2
464.843	1	0
465.013	1	1
465.183	1	6
465.354	1	-1
465.524	1	1
465.695	1	7
465.865	1	0
466.036	1	-9
466.206	1	5
466.376	1	7
466.547	1	8
466.717	1	-8
466.888	1	-2
467.058	1	-1
467.229	1	3
467.399	1	2
467.569	1	5
467.740	1	-9
467.910	1	-13
468.081	1	-5
468.251	1	-1
468.422	1	6
468.592	1	-3
468.762	1	12
468.933	1	9
469.103	1	9
469.274	1	11
469.444	1	-4
469.614	1	4
469.785	1	1
469.955	1	-1
470.126	1	0
470.296	1	-1
470.467	1	2
470.637	1	1
470.807	1	9
470.978	1	-2
471.148	1	-2
471.319	1	10
471.489	1	4
471.659	1	-9
471.830	1	2
472.000	1	-2
472.171	1	9
472.341	1	5
472.511	1	-3
472.682	1	-6
472.852	1	-3
473.023	1	1
473.193	1	3
473.363	1	4
473.534	1	-7
473.704	1	5
473.875	1	-9
474.045	1	11
474.215	1	-1
474.386	1	-6
474.556	1	-1
474.727	1	3
474.897	1	-3
475.067	1	-1
475.238	1	-6
475.408	1	-4
475.578	1	2
475.749	1	-1
475.919	1	9
476.090	1	0
476.260	1	10
476.430	1	-7
476.601	1	8
476.771	1	-2
476.942	1	-2
477.112	1	-11
477.282	1	4
477.453	1	-1
477.623	1	15
477.793	1	0
477.964	1	1
478.134	1	-1
478.305	1	8
478.475	1	1
478.645	1	4
478.816	1	-7
478.986	1	-5
479.156	1	0
479.327	1	-2
479.497	1	0
479.667	1	0
479.838	1	3
480.008	1	3
480.179	1	-6
480.349	1	4
480.519	1	4
480.690	1	6
480.860	1	-4
481.030	1	3
481.201	1	4
481.371	1	-2
481.541	1	-4
481.712	1	-1
481.882	1	4
482.053	1	-7
482.223	1	12
482.393	1	-2
482.564	1	-3
482.734	1	6
482.904	1	-2
483.075	1	0
483.245	1	-2
483.415	1	10
483.586	1	2
483.756	1	-5
483.926	1	1
484.097	1	-11
484.267	1	5
484.437	1	6
484.608	1	3
484.778	1	-5
484.948	1	4
485.119	1	1
485.289	1	12
485.459	1	-1
485.630	1	3
485.800	1	-10
485.970	1	7
486.141	1	9
486.311	1	4
486.481	1	-4
486.652	1	9
486.822	1	6
486.992	1	-2
487.163	1	5
487.333	1	-12
487.503	1	0
487.674	1	1
487.844	1	8
488.014	1	-1
488.185	1	6
488.355	1	-12
488.525	1	4
488.696	1	-6
488.866	1	5
489.036	1	0
489.207	1	15
489.377	1	-3
489.547	1	15
489.718	1	8
489.888	1	4
490.058	1	5
490.228	1	0
490.399	1	4
490.569	1	3
490.739	1	1
490.910	1	-7
491.080	1	-5
491.250	1	11
491.421	1	7
491.591	1	5
491.761	1	3
491.932	1	3
492.102	1	2
492.272	1	4
492.442	1	-5
492.613	1	11
492.783	1	0
492.953	1	1
493.124	1	-1
493.294	1	1
493.464	1	-1
493.635	1	-1
493.805	1	6
493.975	1	4
494.145	1	5
494.316	1	0
494.486	1	4
494.656	1	2
494.827	1	-1
494.997	1	1
495.167	1	8
495.337	1	5
495.508	1	2
495.678	1	-1
495.848	1	0
496.019	1	-21
496.189	1	-5
496.359	1	3
496.529	1	1
496.700	1	17
496.870	1	1
497.040	1	5
497.211	1	2
497.381	1	4
497.551	1	5
497.721	1	-4
497.892	1	12
498.062	1	-4
498.232	1	10
498.403	1	5
498.573	1	-3
498.743	1	4
498.913	1	-7
499.084	1	0
499.254	1	7
499.424	1	6
499.594	1	4
499.765	1	-13
499.935	1	-2
500.105	1	-5
500.275	1	4
500.446	1	0
500.616	1	-9
500.786	1	-4
500.956	1	9
501.127	1	1
501.297	1	5
501.467	1	-1
501.638	1	-2
501.808	1	-6
501.978	1	-8
502.148	1	14
502.319	1	7
502.489	1	-2
502.659	1	5
502.829	1	1
503.000	1	7
503.170	1	13
503.340	1	10
503.510	1	6
503.681	1	8
503.851	1	-5
504.021	1	9
504.191	1	-2
504.362	1	4
504.532	1	-16
504.702	1	7
504.872	1	3
505.042	1	7
505.213	1	-15
505.383	1	1
505.553	1	-4
505.723	1	-5
505.894	1	10
506.064	1	3
506.234	1	-3
506.404	1	5
506.575	1	-2
506.745	1	2
506.915	1	3
507.085	1	-3
507.256	1	-10
507.426	1	5
507.596	1	3
507.766	1	7
507.936	1	11
508.107	1	-4
508.277	1	-5
508.447	1	12
508.617	1	-2
508.788	1	-10
508.958	1	-3
509.128	1	0
509.298	1	-4
509.468	1	4
509.639	1	6
509.809	1	1
509.979	1	3
510.149	1	7
510.319	1	-7
510.490	1	4
510.660	1	-5
510.830	1	7
511.000	1	-1
511.171	1	-4
511.341	1	9
511.511	1	8
511.681	1	-5
511.851	1	-2
512.022	1	1
512.192	1	12
512.362	1	-7
512.532	1	-4
512.702	1	-2
512.873	1	-1
513.043	1	2
513.213	1	1
513.383	1	0
513.553	1	1
513.724	1	1
513.894	1	-2
514.064	1	3
514.234	1	-6
514.404	1	-6
514.575	1	-5
514.745	1	-1
514.915	1	6
515.085	1	7
515.255	1	-5
515.425	1	0
515.596	1	-4
515.766	1	5
515.936	1	7
516.106	1	3
516.276	1	-7
516.447	1	-9
516.617	1	-4
516.787	1	2
516.957	1	-9
517.127	1	-3
517.297	1	4
517.468	1	5
517.638	1	-8
517.808	1	10
517.978	1	0
518.148	1	4
518.319	1	11
518.489	1	17
518.659	1	3
518.829	1	-1
518.999	1	11
519.169	1	-3
519.340	1	1
519.510	1	5
519.680	1	-3
519.850	1	2
520.020	1	-1
520.190	1	4
520.361	1	2
520.531	1	3
520.701	1	8
520.871	1	0
521.041	1	0
521.211	1	-5
521.382	1	-1
521.552	1	11
521.722	1	2
521.892	1	8
522.062	1	-10
522.232	1	-11
522.402	1	0
522.573	1	3
522.743	1	9
522.913	1	1
523.083	1	1
523.253	1	7
523.423	1	-2
523.593	1	4
523.764	1	-1
523.934	1	1
524.104	1	-2
524.274	1	-1
524.444	1	-4
524.614	1	2
524.784	1	9
524.955	1	5
525.125	1	7
525.295	1	-2
525.465	1	10
525.635	1	0
525.805	1	7
525.975	1	-1
526.146	1	-2
526.316	1	6
526.486	1	0
526.656	1	10
526.826	1	1
526.996	1	7
527.166	1	3
527.337	1	-5
527.507	1	1
527.677	1	2
527.847	1	-2
528.017	1	-1
528.187	1	-2
528.357	1	0
528.527	1	5
528.698	1	-12
528.868	1	-1
529.038	1	-9
529.208	1	4
529.378	1	-6
529.548	1	0
529.718	1	1
529.888	1	6
530.058	1	7
530.229	1	9
530.399	1	10
530.569	1	-4
530.739	1	9
530.909	1	-1
531.079	1	3
531.249	1	-6
531.419	1	15
531.589	1	3
531.760	1	-1
531.930	1	10
532.100	1	3
532.270	1	5
532.440	1	-3
532.610	1	3
532.780	1	-11
532.950	1	-10
533.120	1	2
533.290	1	14
533.461	1	-5
533.631	1	-2
533.801	1	-8
533.971	1	3
534.141	1	-6
534.311	1	-6
534.481	1	5
534.651	1	10
534.821	1	11
534.991	1	-1
535.162	1	-1
535.332	1	5
535.502	1	2
535.672	1	10
535.842	1	10
536.012	1	-11
536.182	1	-8
536.352	1	-7
536.522	1	7
536.692	1	5
536.862	1	7
537.032	1	-10
537.203	1	3
537.373	1	1
537.543	1	-1
537.713	1	4
537.883	1	13
538.053	1	14
538.223	1	0
538.393	1	7
538.563	1	-6
538.733	1	9
538.903	1	4
539.073	1	-9
539.243	1	0
539.413	1	0
539.584	1	-2
539.754	1	1
539.924	1	-1
540.094	1	2
540.264	1	2
540.434	1	5
540.604	1	2
540.774	1	1
540.944	1	-4
541.114	1	3
541.284	1	6
541.454	1	2
541.624	1	1
541.794	1	-2
541.964	1	5
542.134	1	2
542.305	1	5
542.475	1	6
542.645	1	-5
542.815	1	5
542.985	1	5
543.155	1	8
543.325	1	5
543.495	1	2
543.665	1	5
543.835	1	-6
544.005	1	8
544.175	1	-7
544.345	1	-3
544.515	1	-3
544.685	1	1
544.855	1	8
545.025	1	-5
545.195	1	-1
545.365	1	1
545.535	1	-13
545.705	1	7
545.875	1	-6
546.045	1	1
546.216	1	8
546.386	1	-4
546.556	1	-4
546.726	1	-6
546.896	1	4
547.066	1	8
547.236	1	13
547.406	1	-1
547.576	1	-6
547.746	1	1
547.916	1	-1
548.086	1	2
548.256	1	13
548.426	1	2
548.596	1	-4
548.766	1	9
548.936	1	-7
549.106	1	3
549.276	1	4
549.446	1	0
549.616	1	13
549.786	1	0
549.956	1	-4
550.126	1	-2
550.296	1	2
550.466	1	0
550.636	1	1
550.806	1	1
550.976	1	3
551.146	1	-2
551.316	1	9
551.486	1	-3
551.656	1	8
551.826	1	0
551.996	1	5
552.166	1	-6
552.336	1	8
552.506	1	7
552.676	1	6
552.846	1	1
553.016	1	5
553.186	1	4
553.356	1	15
553.526	1	-7
553.696	1	0
553.866	1	-9
554.036	1	7
554.206	1	9
554.376	1	8
554.546	1	-11
554.716	1	0
554.886	1	7
555.056	1	5
555.226	1	-9
555.396	1	0
555.566	1	1
555.736	1	1
555.906	1	1
556.076	1	2
556.246	1	1
556.416	1	0
556.586	1	4
556.756	1	-2
556.926	1	2
557.096	1	4
557.266	1	0
557.436	1	-10
557.606	1	3
557.776	1	3
557.946	1	0
558.116	1	-8
558.286	1	-2
558.456	1	4
558.626	1	9
558.796	1	2
558.966	1	0
559.136	1	5
559.306	1	6
559.476	1	-2
559.646	1	0
559.816	1	-1
559.986	1	8
560.155	1	5
560.325	1	-2
560.495	1	-4
560.665	1	6
560.835	1	0
561.005	1	-1
561.175	1	-1
561.345	1	0
561.515	1	-1
561.685	1	6
561.855	1	3
562.025	1	-6
562.195	1	-4
562.365	1	6
562.535	1	-7
562.705	1	6
562.875	1	0
563.045	1	2
563.215	1	-8
563.385	1	-1
563.555	1	6
563.725	1	-4
563.895	1	-1
564.064	1	2
564.234	1	0
564.404	1	-3
564.574	1	-3
564.744	1	8
564.914	1	5
565.084	1	8
565.254	1	0
565.424	1	9
565.594	1	10
565.764	1	0
565.934	1	-1
566.104	1	-4
566.274	1	-3
566.444	1	6
566.614	1	-4
566.783	1	-6
566.953	1	11
567.123	1	0
567.293	1	5
567.463	1	-19
567.633	1	5
567.803	1	2
567.973	1	-13
568.143	1	7
568.313	1	0
568.483	1	-6
568.653	1	-1
568.823	1	0
568.993	1	5
569.162	1	6
569.332	1	7
569.502	1	-3
569.672	1	2
569.842	1	-3
570.012	1	0
570.182	1	4
570.352	1	-5
570.522	1	4
570.692	1	9
570.862	1	-4
571.031	1	1
571.201	1	6
571.371	1	12
571.541	1	-10
571.711	1	-5
571.881	1	-6
572.051	1	-5
572.221	1	-5
572.391	1	8
572.561	1	10
572.731	1	-3
572.900	1	4
573.070	1	-6
573.240	1	5
573.410	1	1
573.580	1	3
573.750	1	2
573.920	1	11
574.090	1	-1
574.260	1	1
574.430	1	11
574.599	1	-3
574.769	1	-10
574.939	1	6
575.109	1	1
575.279	1	-2
575.449	1	4
575.619	1	9
575.789	1	4
575.959	1	-5
576.128	1	0
576.298	1	10
576.468	1	5
576.638	1	8
576.808	1	-8
576.978	1	1
577.148	1	3
577.318	1	0
577.487	1	4
577.657	1	-1
577.827	1	-1
577.997	1	-7
578.167	1	3
578.337	1	2
578.507	1	5
578.677	1	8
578.846	1	0
579.016	1	3
579.186	1	-12
579.356	1	-3
579.526	1	-6
579.696	1	4
579.866	1	5
580.036	1	0
580.205	1	-9
580.375	1	-5
580.545	1	-10
580.715	1	13
580.885	1	-3
581.055	1	10
581.225	1	-3
581.394	1	0
581.564	1	-6
581.734	1	6
581.904	1	-3
582.074	1	0
582.244	1	-5
582.414	1	-12
582.583	1	0
582.753	1	5
582.923	1	4
583.093	1	-7
583.263	1	8
583.433	1	5
583.603	1	-8
583.772	1	-5
583.942	1	10
584.112	1	3
584.282	1	-3
584.452	1	-3
584.622	1	7
584.791	1	4
584.961	1	-5
585.131	1	15
585.301	1	8
585.471	1	6
585.641	1	5
585.811	1	-10
585.980	1	10
586.150	1	-5
586.320	1	4
586.490	1	5
586.660	1	1
586.830	1	-5
586.999	1	5
587.169	1	14
587.339	1	-5
587.509	1	1
587.679	1	-1
587.849	1	5
588.018	1	4
588.188	1	6
588.358	1	11
588.528	1	0
588.698	1	-3
588.867	1	3
589.037	1	-5
589.207	1	-1
589.377	1	-3
589.547	1	-5
589.717	1	-3
589.886	1	-5
590.056	1	0
590.226	1	0
590.396	1	5
590.566	1	5
590.735	1	-4
590.905	1	10
591.075	1	14
591.245	1	3
591.415	1	5
591.585	1	-3
591.754	1	7
591.924	1	-3
592.094	1	8
592.264	1	-7
592.434	1	-2
592.603	1	8
592.773	1	4
592.943	1	4
593.113	1	0
593.283	1	8
593.452	1	0
593.622	1	-6
593.792	1	3
593.962	1	7
594.132	1	13
594.301	1	1
594.471	1	8
594.641	1	1
594.811	1	0
594.981	1	4
595.150	1	-6
595.320	1	3
595.490	1	-6
595.660	1	4
595.829	1	4
595.999	1	3
596.169	1	13
596.339	1	2
596.509	1	-8
596.678	1	-11
596.848	1	5
597.018	1	0
597.188	1	-2
597.358	1	-1
597.527	1	4
597.697	1	-1
597.867	1	11
598.037	1	5
598.206	1	-1
598.376	1	-3
598.546	1	2
598.716	1	5
598.885	1	1
599.055	1	-8
599.225	1	5
599.395	1	0
599.565	1	0
599.734	1	12
599.904	1	9
600.074	1	1
600.244	1	6
600.413	1	-4
600.583	1	0
600.753	1	6
600.923	1	5
601.092	1	-9
601.262	1	-3
601.432	1	-9
601.602	1	3
601.771	1	-2
601.941	1	6
602.111	1	-4
602.281	1	-7
602.451	1	9
602.620	1	2
602.790	1	11
602.960	1	-7
603.130	1	1
603.299	1	-3
603.469	1	2
603.639	1	3
603.809	1	-1
603.978	1	-3
604.148	1	5
604.318	1	-7
604.487	1	4
604.657	1	3
604.827	1	-10
604.997	1	-11
605.166	1	6
605.336	1	3
605.506	1	-6
605.676	1	-2
605.845	1	1
606.015	1	-6
606.185	1	6
606.355	1	7
606.524	1	1
606.694	1	1
606.864	1	2
607.034	1	14
607.203	1	-1
607.373	1	-6
607.543	1	6
607.712	1	-2
607.882	1	0
608.052	1	-2
608.222	1	-8
608.391	1	7
608.561	1	4
608.731	1	4
608.901	1	1
609.070	1	-2
609.240	1	-9
609.410	1	-8
609.579	1	10
609.749	1	-7
609.919	1	-6
610.089	1	-5
610.258	1	5
610.428	1	5
610.598	1	14
610.767	1	-18
610.937	1	-1
611.107	1	-5
611.277	1	2
611.446	1	2
611.616	1	-1
611.786	1	4
611.955	1	4
612.125	1	1
612.295	1	3
612.465	1	-8
612.634	1	-7
612.804	1	4
612.974	1	5
613.143	1	-2
613.313	1	-1
613.483	1	-5
613.652	1	13
613.822	1	4
613.992	1	6
614.162	1	5
614.331	1	-4
614.501	1	-2
614.671	1	11
614.840	1	-3
615.010	1	7
615.180	1	13
615.349	1	10
615.519	1	-1
615.689	1	0
615.858	1	3
616.028	1	4
616.198	1	-3
616.368	1	4
616.537	1	0
616.707	1	5
616.877	1	9
617.046	1	3
617.216	1	5
617.386	1	-3
617.555	1	0
617.725	1	-3
617.895	1	-3
618.064	1	-4
618.234	1	8
618.404	1	1
618.573	1	0
618.743	1	3
618.913	1	7
619.082	1	7
619.252	1	-3
619.422	1	-7
619.591	1	7
619.761	1	-10
619.931	1	0
620.100	1	-3
620.270	1	-4
620.440	1	5
620.609	1	2
620.779	1	5
620.949	1	1
621.118	1	-2
621.288	1	3
621.458	1	-1
621.627	1	6
621.797	1	4
621.967	1	4
622.136	1	-6
622.306	1	3
622.476	1	-8
622.645	1	-3
622.815	1	1
622.985	1	0
623.154	1	8
623.324	1	-3
623.494	1	-2
623.663	1	6
623.833	1	4
624.002	1	-6
624.172	1	0
624.342	1	4
624.511	1	4
624.681	1	7
624.851	1	5
625.020	1	-3
625.190	1	1
625.360	1	-5
625.529	1	7
625.699	1	5
625.869	1	10
626.038	1	-3
626.208	1	-3
626.377	1	13
626.547	1	-11
626.717	1	6
626.886	1	-4
627.056	1	-6
627.226	1	-2
627.395	1	-5
627.565	1	1
627.735	1	-10
627.904	1	-5
628.074	1	9
628.243	1	-3
628.413	1	1
628.583	1	-10
628.752	1	-5
628.922	1	-8
629.091	1	-3
629.261	1	2
629.431	1	9
629.600	1	-5
629.770	1	7
629.940	1	-1
630.109	1	-5
630.279	1	-4
630.448	1	1
630.618	1	-5
630.788	1	7
630.957	1	3
631.127	1	0
631.297	1	-11
631.466	1	1
631.636	1	8
631.805	1	9
631.975	1	0
632.145	1	5
632.314	1	-2
632.484	1	-3
632.653	1	5
632.823	1	-6
632.993	1	-9
633.162	1	5
633.332	1	0
633.501	1	-3
633.671	1	5
633.841	1	-5
634.010	1	5
634.180	1	-4
634.349	1	-5
634.519	1	2
634.689	1	8
634.858	1	4
635.028	1	1
635.197	1	8
635.367	1	-2
635.537	1	-10
635.706	1	-6
635.876	1	-4
636.045	1	5
636.215	1	4
636.384	1	-4
636.554	1	-4
636.724	1	11
636.893	1	9
637.063	1	6
637.232	1	-1
637.402	1	6
637.572	1	-3
637.741	1	3
637.911	1	7
638.080	1	5
638.250	1	12
638.419	1	-8
638.589	1	13
638.759	1	-1
638.928	1	1
639.098	1	-14
639.267	1	2
639.437	1	-8
639.606	1	-1
639.776	1	6
639.946	1	-1
640.115	1	0
640.285	1	7
640.454	1	-3
640.624	1	-2
640.793	1	-6
640.963	1	-5
641.132	1	10
641.302	1	0
641.472	1	-3
641.641	1	7
641.811	1	4
641.980	1	-6
642.150	1	-2
642.319	1	11
642.489	1	-5
642.659	1	0
642.828	1	-1
642.998	1	13
643.167	1	-9
643.337	1	5
643.506	1	1
643.676	1	10
643.845	1	5
644.015	1	5
644.184	1	13
644.354	1	7
644.524	1	4
644.693	1	-10
644.863	1	3
645.032	1	2
645.202	1	5
645.371	1	-6
645.541	1	8
645.710	1	11
645.880	1	4
646.049	1	4
646.219	1	9
646.388	1	3
646.558	1	1
646.728	1	-8
646.897	1	6
647.067	1	-1
647.236	1	-3
647.406	1	6
647.575	1	-8
647.745	1	3
647.914	1	4
648.084	1	4
648.253	1	-6
648.423	1	4
648.592	1	2
648.762	1	16
648.931	1	1
649.101	1	-6
649.270	1	1
649.440	1	-10
649.610	1	6
649.779	1	-5
649.949	1	-5
650.118	1	2
650.288	1	3
650.457	1	-1
650.627	1	-4
650.796	1	0
650.966	1	0
651.135	1	5
651.305	1	-4
651.474	1	8
651.644	1	2
651.813	1	0
651.983	1	2
652.152	1	-3
652.322	1	3
652.491	1	5
652.661	1	0
652.830	1	0
653.000	1	0
653.169	1	4
653.339	1	-4
653.508	1	9
653.678	1	5
653.847	1	1
654.017	1	7
654.186	1	13
654.356	1	2
654.525	1	3
654.695	1	12
654.864	1	5
655.034	1	-9
655.203	1	3
655.373	1	14
655.542	1	-12
655.712	1	-6
655.881	1	-6
656.051	1	5
656.220	1	3
656.390	1	3
656.559	1	1
656.729	1	-2
656.898	1	10
657.068	1	2
657.237	1	9
657.406	1	-1
657.576	1	0
657.745	1	14
657.915	1	-6
658.084	1	-4
658.254	1	8
658.423	1	4
658.593	1	-12
658.762	1	2
658.932	1	5
659.101	1	8
659.271	1	-2
659.440	1	-2
659.610	1	7
659.779	1	4
659.949	1	1
660.118	1	8
660.288	1	8
660.457	1	7
660.626	1	3
660.796	1	1
660.965	1	11
661.135	1	-16
661.304	1	1
661.474	1	4
661.643	1	8
661.813	1	0
661.982	1	10
662.152	1	2
662.321	1	-1
662.491	1	-14
662.660	1	-16
662.829	1	8
662.999	1	4
663.168	1	0
663.338	1	-2
663.507	1	-4
663.677	1	-4
663.846	1	1
664.016	1	0
664.185	1	6
664.354	1	-4
664.524	1	3
664.693	1	-9
664.863	1	-1
665.032	1	5
665.202	1	19
665.371	1	-3
665.541	1	2
665.710	1	12
665.879	1	12
666.049	1	-3
666.218	1	8
666.388	1	5
666.557	1	-2
666.727	1	3
666.896	1	-6
667.065	1	-1
667.235	1	-2
667.404	1	-3
667.574	1	-5
667.743	1	1
667.913	1	-6
668.082	1	5
668.251	1	1
668.421	1	10
668.590	1	-11
668.760	1	-1
668.929	1	2
669.099	1	-1
669.268	1	-2
669.437	1	-6
669.607	1	-8
669.776	1	-1
669.946	1	0
670.115	1	-2
670.285	1	17
670.454	1	-7
670.623	1	4
670.793	1	4
670.962	1	-4
671.132	1	4
671.301	1	7
671.470	1	6
671.640	1	5
671.809	1	3
671.979	1	-6
672.148	1	-6
672.317	1	6
672.487	1	5
672.656	1	4
672.826	1	1
672.995	1	-7
673.164	1	0
673.334	1	-9
673.503	1	-1
673.673	1	8
673.842	1	5
674.011	1	4
674.181	1	2
674.350	1	5
674.520	1	7
674.689	1	-5
674.858	1	-2
675.028	1	4
675.197	1	2
675.367	1	-4
675.536	1	-9
675.705	1	4
675.875	1	4
676.044	1	11
676.214	1	-6
676.383	1	-6
676.552	1	0
676.722	1	10
676.891	1	8
677.060	1	3
677.230	1	-4
677.399	1	-2
677.569	1	0
677.738	1	-2
677.907	1	0
678.077	1	10
678.246	1	-4
678.416	1	-3
678.585	1	13
678.754	1	1
678.924	1	16
679.093	1	3
679.262	1	2
679.432	1	1
679.601	1	3
679.771	1	3
679.940	1	11
680.109	1	-4
680.279	1	8
680.448	1	11
680.617	1	-14
680.787	1	-7
680.956	1	-14
681.125	1	6
681.295	1	7
681.464	1	12
681.634	1	7
681.803	1	8
681.972	1	-22
682.142	1	1
682.311	1	-2
682.480	1	3
682.650	1	1
682.819	1	5
682.988	1	1
683.158	1	-10
683.327	1	-1
683.496	1	2
683.666	1	0
683.835	1	-2
684.004	1	4
684.174	1	-9
684.343	1	8
684.512	1	-11
684.682	1	3
684.851	1	6
685.021	1	-12
685.190	1	-4
685.359	1	-2
685.529	1	13
685.698	1	-2
685.867	1	4
686.037	1	3
686.206	1	-1
686.375	1	6
686.545	1	7
686.714	1	7
686.883	1	-3
687.053	1	-3
687.222	1	-13
687.391	1	9
687.561	1	2
687.730	1	5
687.899	1	-8
688.069	1	6
688.238	1	0
688.407	1	-8
688.577	1	16
688.746	1	-5
