340.368	1	-5
340.539	1	1
340.710	1	-8
340.881	1	0
341.052	1	4
341.223	1	-5
341.394	1	0
341.565	1	-1
341.737	1	-14
341.908	1	5
342.079	1	-2
342.250	1	-5
342.421	1	-2
342.592	1	-3
342.763	1	9
342.934	1	-2
343.105	1	17
343.276	1	2
343.447	1	2
343.618	1	7
343.789	1	12
343.960	1	7
344.131	1	-3
344.302	1	-4
344.473	1	6
344.644	1	13
344.815	1	12
344.986	1	7
345.157	1	1
345.328	1	-1
345.499	1	-3
345.670	1	12
345.841	1	13
346.012	1	9
346.183	1	15
346.354	1	-1
346.526	1	1
346.697	1	13
346.868	1	8
347.039	1	3
347.210	1	-7
347.381	1	-2
347.552	1	6
347.723	1	13
347.894	1	-4
348.065	1	-12
348.236	1	-5
348.407	1	5
348.578	1	4
348.749	1	5
348.920	1	5
349.091	1	3
349.262	1	-1
349.433	1	0
349.604	1	11
349.775	1	6
349.946	1	12
350.117	1	1
350.288	1	-2
350.459	1	2
350.630	1	8
350.801	1	-3
350.972	1	-2
351.143	1	0
351.314	1	1
351.485	1	-1
351.656	1	-2
351.827	1	1
351.998	1	5
352.169	1	15
352.340	1	11
352.511	1	9
352.682	1	-2
352.853	1	13
353.024	1	-5
353.195	1	9
353.366	1	4
353.537	1	12
353.708	1	12
353.879	1	8
354.050	1	-5
354.221	1	-5
354.392	1	5
354.563	1	0
354.734	1	5
354.905	1	15
355.076	1	5
355.247	1	-2
355.418	1	-3
355.589	1	-1
355.760	1	10
355.931	1	5
356.102	1	5
356.273	1	-3
356.444	1	-2
356.615	1	-1
356.785	1	10
356.956	1	10
357.127	1	8
357.298	1	19
357.469	1	5
357.640	1	4
357.811	1	9
357.982	1	6
358.153	1	-1
358.324	1	11
358.495	1	3
358.666	1	7
358.837	1	8
359.008	1	6
359.179	1	7
359.350	1	17
359.521	1	11
359.692	1	11
359.863	1	15
360.034	1	15
360.205	1	14
360.376	1	10
360.547	1	9
360.718	1	9
360.889	1	13
361.060	1	10
361.231	1	8
361.401	1	9
361.572	1	25
361.743	1	20
361.914	1	15
362.085	1	13
362.256	1	9
362.427	1	16
362.598	1	13
362.769	1	5
362.940	1	21
363.111	1	33
363.282	1	26
363.453	1	15
363.624	1	21
363.795	1	14
363.966	1	16
364.137	1	16
364.308	1	12
364.478	1	19
364.649	1	22
364.820	1	31
364.991	1	24
365.162	1	39
365.333	1	23
365.504	1	19
365.675	1	30
365.846	1	27
366.017	1	27
366.188	1	23
366.359	1	30
366.530	1	38
366.701	1	25
366.871	1	40
367.042	1	36
367.213	1	36
367.384	1	29
367.555	1	43
367.726	1	42
367.897	1	21
368.068	1	43
368.239	1	38
368.410	1	42
368.581	1	47
368.752	1	41
368.923	1	33
369.093	1	35
369.264	1	36
369.435	1	34
369.606	1	34
369.777	1	38
369.948	1	44
370.119	1	36
370.290	1	34
370.461	1	38
370.632	1	40
370.803	1	34
370.973	1	37
371.144	1	26
371.315	1	43
371.486	1	32
371.657	1	22
371.828	1	22
371.999	1	38
372.170	1	28
372.341	1	36
372.512	1	23
372.682	1	39
372.853	1	50
373.024	1	29
373.195	1	20
373.366	1	30
373.537	1	38
373.708	1	13
373.879	1	27
374.050	1	33
374.220	1	26
374.391	1	12
374.562	1	26
374.733	1	19
374.904	1	21
375.075	1	28
375.246	1	13
375.417	1	19
375.588	1	25
375.758	1	28
375.929	1	19
376.100	1	21
376.271	1	22
376.442	1	26
376.613	1	19
376.784	1	7
376.955	1	16
377.125	1	26
377.296	1	23
377.467	1	21
377.638	1	14
377.809	1	20
377.980	1	2
378.151	1	9
378.321	1	10
378.492	1	11
378.663	1	11
378.834	1	5
379.005	1	15
379.176	1	2
379.347	1	6
379.518	1	11
379.688	1	3
379.859	1	12
380.030	1	20
380.201	1	3
380.372	1	18
380.543	1	15
380.714	1	25
380.884	1	4
381.055	1	10
381.226	1	9
381.397	1	16
381.568	1	8
381.739	1	3
381.910	1	11
382.080	1	2
382.251	1	12
382.422	1	10
382.593	1	14
382.764	1	8
382.935	1	6
383.105	1	13
383.276	1	16
383.447	1	17
383.618	1	10
383.789	1	23
383.960	1	18
384.130	1	-3
384.301	1	0
384.472	1	-5
384.643	1	7
384.814	1	6
384.985	1	4
385.156	1	9
385.326	1	13
385.497	1	7
385.668	1	14
385.839	1	-4
386.010	1	2
386.180	1	12
386.351	1	15
386.522	1	13
386.693	1	-1
386.864	1	10
387.035	1	4
387.205	1	8
387.376	1	3
387.547	1	6
387.718	1	-3
387.889	1	6
388.060	1	10
388.230	1	1
388.401	1	-5
388.572	1	12
388.743	1	14
388.914	1	0
389.084	1	7
389.255	1	13
389.426	1	10
389.597	1	8
389.768	1	11
389.939	1	5
390.109	1	6
390.280	1	1
390.451	1	4
390.622	1	5
390.793	1	13
390.963	1	8
391.134	1	-2
391.305	1	-1
391.476	1	4
391.647	1	2
391.817	1	11
391.988	1	23
392.159	1	10
392.330	1	12
392.501	1	-1
392.671	1	0
392.842	1	-1
393.013	1	3
393.184	1	9
393.355	1	7
393.525	1	13
393.696	1	10
393.867	1	6
394.038	1	-2
394.208	1	9
394.379	1	8
394.550	1	2
394.721	1	-3
394.892	1	1
395.062	1	-1
395.233	1	3
395.404	1	9
395.575	1	-2
395.746	1	12
395.916	1	-3
396.087	1	4
396.258	1	2
396.429	1	9
396.599	1	1
396.770	1	14
396.941	1	3
397.112	1	-3
397.283	1	6
397.453	1	18
397.624	1	9
397.795	1	-5
397.966	1	9
398.136	1	4
398.307	1	1
398.478	1	3
398.649	1	1
398.819	1	8
398.990	1	-6
399.161	1	2
399.332	1	-2
399.503	1	-3
399.673	1	2
399.844	1	-7
400.015	1	2
400.186	1	-8
400.356	1	1
400.527	1	15
400.698	1	7
400.869	1	6
401.039	1	1
401.210	1	5
401.381	1	6
401.552	1	8
401.722	1	-6
401.893	1	8
402.064	1	5
402.235	1	11
402.405	1	-7
402.576	1	9
402.747	1	2
402.918	1	-2
403.088	1	11
403.259	1	11
403.430	1	11
403.601	1	6
403.771	1	4
403.942	1	2
404.113	1	2
404.284	1	-1
404.454	1	6
404.625	1	5
404.796	1	5
404.967	1	5
405.137	1	7
405.308	1	14
405.479	1	-3
405.649	1	1
405.820	1	0
405.991	1	5
406.162	1	3
406.332	1	-7
406.503	1	2
406.674	1	-1
406.845	1	3
407.015	1	6
407.186	1	-6
407.357	1	-3
407.527	1	-4
407.698	1	13
407.869	1	-1
408.040	1	12
408.210	1	0
408.381	1	1
408.552	1	0
408.722	1	-7
408.893	1	5
409.064	1	7
409.235	1	3
409.405	1	6
409.576	1	-3
409.747	1	4
409.917	1	5
410.088	1	9
410.259	1	4
410.430	1	-1
410.600	1	9
410.771	1	6
410.942	1	7
411.112	1	-1
411.283	1	4
411.454	1	-2
411.625	1	-2
411.795	1	13
411.966	1	7
412.137	1	-3
412.307	1	2
412.478	1	0
412.649	1	6
412.819	1	-3
412.990	1	-7
413.161	1	4
413.332	1	-4
413.502	1	5
413.673	1	-1
413.844	1	10
414.014	1	2
414.185	1	-1
414.356	1	0
414.526	1	6
414.697	1	3
414.868	1	-4
415.038	1	-11
415.209	1	-15
415.380	1	15
415.550	1	-1
415.721	1	2
415.892	1	5
416.063	1	4
416.233	1	17
416.404	1	2
416.575	1	2
416.745	1	-4
416.916	1	3
417.087	1	6
417.257	1	-4
417.428	1	4
417.599	1	2
417.769	1	17
417.940	1	9
418.111	1	4
418.281	1	4
418.452	1	10
418.623	1	6
418.793	1	5
418.964	1	-9
419.135	1	6
419.305	1	0
419.476	1	3
419.647	1	7
419.817	1	2
419.988	1	4
420.159	1	10
420.329	1	3
420.500	1	-2
420.671	1	-6
420.841	1	-4
421.012	1	-1
421.183	1	-1
421.353	1	3
421.524	1	3
421.695	1	-4
421.865	1	1
422.036	1	5
422.206	1	5
422.377	1	5
422.548	1	3
422.718	1	8
422.889	1	-6
423.060	1	-1
423.230	1	6
423.401	1	2
423.572	1	5
423.742	1	-6
423.913	1	8
424.084	1	15
424.254	1	9
424.425	1	-10
424.595	1	5
424.766	1	-4
424.937	1	9
425.107	1	-2
425.278	1	0
425.449	1	5
425.619	1	-11
425.790	1	2
425.961	1	-6
426.131	1	-1
426.302	1	-2
426.472	1	5
426.643	1	8
426.814	1	-8
426.984	1	1
427.155	1	8
427.326	1	8
427.496	1	-1
427.667	1	9
427.837	1	10
428.008	1	10
428.179	1	1
428.349	1	-10
428.520	1	-3
428.691	1	6
428.861	1	-2
429.032	1	8
429.202	1	3
429.373	1	5
429.544	1	8
429.714	1	-1
429.885	1	7
430.055	1	-1
430.226	1	4
430.397	1	6
430.567	1	12
430.738	1	5
430.909	1	-6
431.079	1	-6
431.250	1	9
431.420	1	3
431.591	1	5
431.762	1	5
431.932	1	-7
432.103	1	4
432.273	1	4
432.444	1	8
432.615	1	-2
432.785	1	-3
432.956	1	-3
433.126	1	4
433.297	1	2
433.468	1	-4
433.638	1	15
433.809	1	-4
433.979	1	5
434.150	1	2
434.320	1	3
434.491	1	-1
434.662	1	-13
434.832	1	6
435.003	1	0
435.173	1	5
435.344	1	-1
435.515	1	6
435.685	1	1
435.856	1	8
436.026	1	-8
436.197	1	-1
436.368	1	1
436.538	1	3
436.709	1	8
436.879	1	11
437.050	1	-8
437.220	1	5
437.391	1	-14
437.562	1	9
437.732	1	-1
437.903	1	10
438.073	1	-1
438.244	1	7
438.414	1	0
438.585	1	2
438.756	1	-3
438.926	1	1
439.097	1	5
439.267	1	12
439.438	1	-3
439.608	1	-2
439.779	1	5
439.949	1	18
440.120	1	-7
440.291	1	3
440.461	1	16
440.632	1	0
440.802	1	12
440.973	1	1
441.143	1	2
441.314	1	-8
441.485	1	-14
441.655	1	6
441.826	1	10
441.996	1	0
442.167	1	0
442.337	1	3
442.508	1	-6
442.678	1	7
442.849	1	0
443.019	1	-14
443.190	1	-3
443.361	1	7
443.531	1	2
443.702	1	6
443.872	1	-6
444.043	1	-3
444.213	1	-4
444.384	1	0
444.554	1	3
444.725	1	1
444.895	1	-15
445.066	1	9
445.237	1	-7
445.407	1	13
445.578	1	0
445.748	1	2
445.919	1	0
446.089	1	15
446.260	1	9
446.430	1	-2
446.601	1	-8
446.771	1	-10
446.942	1	14
447.112	1	11
447.283	1	5
447.453	1	18
447.624	1	-1
447.794	1	5
447.965	1	1
448.135	1	3
448.306	1	0
448.477	1	3
448.647	1	-6
448.818	1	7
448.988	1	12
449.159	1	-3
449.329	1	1
449.500	1	12
449.670	1	-6
449.841	1	-6
450.011	1	6
450.182	1	11
450.352	1	-2
450.523	1	4
450.693	1	-5
450.864	1	3
451.034	1	5
451.205	1	1
451.375	1	5
451.546	1	-12
451.716	1	4
451.887	1	3
452.057	1	1
452.228	1	-4
452.398	1	9
452.569	1	13
452.739	1	-4
452.910	1	7
453.080	1	10
453.251	1	6
453.421	1	2
453.592	1	2
453.762	1	1
453.933	1	-6
454.103	1	-3
454.274	1	1
454.444	1	-3
454.615	1	1
454.785	1	0
454.956	1	12
455.126	1	18
455.297	1	-7
455.467	1	-1
455.638	1	4
455.808	1	10
455.979	1	9
456.149	1	9
456.320	1	1
456.490	1	4
456.661	1	-4
456.831	1	-6
457.001	1	8
457.172	1	2
457.342	1	4
457.513	1	11
457.683	1	8
457.854	1	10
458.024	1	10
458.195	1	5
458.365	1	-5
458.536	1	4
458.706	1	10
458.877	1	7
459.047	1	-3
459.218	1	7
459.388	1	8
459.559	1	3
459.729	1	1
459.899	1	2
460.070	1	8
460.240	1	-2
460.411	1	-2
460.581	1	-1
460.752	1	11
460.922	1	-3
461.093	1	9
461.263	1	-9
461.434	1	0
461.604	1	5
461.775	1	-3
461.945	1	-3
462.115	1	5
462.286	1	-9
462.456	1	-4
462.627	1	0
462.797	1	3
462.968	1	8
463.138	1	7
463.309	1	8
463.479	1	-9
463.649	1	2
463.820	1	14
463.990	1	-4
464.161	1	5
464.331	1	6
464.502	1	1
464.672	1	-1
464.843	1	1
465.013	1	8
465.183	1	11
465.354	1	-7
465.524	1	4
465.695	1	12
465.865	1	5
466.036	1	-3
466.206	1	8
466.376	1	7
466.547	1	-3
466.717	1	-1
466.888	1	-2
467.058	1	5
467.229	1	1
467.399	1	3
467.569	1	7
467.740	1	-3
467.910	1	3
468.081	1	-3
468.251	1	-1
468.422	1	-1
468.592	1	3
468.762	1	16
468.933	1	-4
469.103	1	8
469.274	1	3
469.444	1	6
469.614	1	4
469.785	1	-1
469.955	1	-1
470.126	1	3
470.296	1	2
470.467	1	7
470.637	1	2
470.807	1	4
470.978	1	7
471.148	1	-6
471.319	1	5
471.489	1	11
471.659	1	-6
471.830	1	5
472.000	1	0
472.171	1	9
472.341	1	2
472.511	1	-5
472.682	1	-4
472.852	1	3
473.023	1	7
473.193	1	-3
473.363	1	-7
473.534	1	11
473.704	1	4
473.875	1	-1
474.045	1	7
474.215	1	9
474.386	1	-6
474.556	1	10
474.727	1	9
474.897	1	-1
475.067	1	7
475.238	1	0
475.408	1	-7
475.578	1	-3
475.749	1	0
475.919	1	4
476.090	1	8
476.260	1	16
476.430	1	-3
476.601	1	6
476.771	1	4
476.942	1	3
477.112	1	-4
477.282	1	6
477.453	1	6
477.623	1	6
477.793	1	2
477.964	1	5
478.134	1	9
478.305	1	0
478.475	1	-2
478.645	1	7
478.816	1	7
478.986	1	-8
479.156	1	8
479.327	1	-13
479.497	1	4
479.667	1	5
479.838	1	12
480.008	1	4
480.179	1	0
480.349	1	-5
480.519	1	-2
480.690	1	0
480.860	1	-10
481.030	1	9
481.201	1	7
481.371	1	-4
481.541	1	3
481.712	1	1
481.882	1	11
482.053	1	-8
482.223	1	2
482.393	1	-8
482.564	1	0
482.734	1	8
482.904	1	4
483.075	1	-1
483.245	1	-7
483.415	1	4
483.586	1	11
483.756	1	4
483.926	1	3
484.097	1	-15
484.267	1	8
484.437	1	1
484.608	1	2
484.778	1	-9
484.948	1	1
485.119	1	6
485.289	1	4
485.459	1	-3
485.630	1	6
485.800	1	-3
485.970	1	-1
486.141	1	13
486.311	1	5
486.481	1	5
486.652	1	5
486.822	1	16
486.992	1	-9
487.163	1	-3
487.333	1	1
487.503	1	7
487.674	1	1
487.844	1	8
488.014	1	-1
488.185	1	2
488.355	1	-6
488.525	1	7
488.696	1	0
488.866	1	11
489.036	1	14
489.207	1	4
489.377	1	1
489.547	1	18
489.718	1	5
489.888	1	3
490.058	1	8
490.228	1	-3
490.399	1	0
490.569	1	7
490.739	1	7
490.910	1	9
491.080	1	-1
491.250	1	2
491.421	1	5
491.591	1	-3
491.761	1	9
491.932	1	0
492.102	1	-3
492.272	1	3
492.442	1	7
492.613	1	11
492.783	1	7
492.953	1	3
493.124	1	-2
493.294	1	-2
493.464	1	8
493.635	1	2
493.805	1	-3
493.975	1	-2
494.145	1	10
494.316	1	2
494.486	1	16
494.656	1	2
494.827	1	10
494.997	1	-2
495.167	1	1
495.337	1	13
495.508	1	5
495.678	1	9
495.848	1	-1
496.019	1	0
496.189	1	-7
496.359	1	-1
496.529	1	-4
496.700	1	13
496.870	1	1
497.040	1	7
497.211	1	7
497.381	1	-2
497.551	1	7
497.721	1	0
497.892	1	3
498.062	1	2
498.232	1	2
498.403	1	14
498.573	1	-5
498.743	1	17
498.913	1	2
499.084	1	9
499.254	1	5
499.424	1	5
499.594	1	6
499.765	1	-4
499.935	1	4
500.105	1	-10
500.275	1	4
500.446	1	0
500.616	1	7
500.786	1	5
500.956	1	16
501.127	1	5
501.297	1	5
501.467	1	0
501.638	1	-2
501.808	1	-8
501.978	1	5
502.148	1	19
502.319	1	16
502.489	1	0
502.659	1	9
502.829	1	6
503.000	1	6
503.170	1	19
503.340	1	5
503.510	1	11
503.681	1	11
503.851	1	-2
504.021	1	7
504.191	1	0
504.362	1	7
504.532	1	-7
504.702	1	12
504.872	1	5
505.042	1	9
505.213	1	5
505.383	1	6
505.553	1	4
505.723	1	6
505.894	1	14
506.064	1	2
506.234	1	-2
506.404	1	4
506.575	1	11
506.745	1	10
506.915	1	13
507.085	1	-3
507.256	1	5
507.426	1	8
507.596	1	8
507.766	1	5
507.936	1	14
508.107	1	2
508.277	1	-2
508.447	1	5
508.617	1	3
508.788	1	-4
508.958	1	-1
509.128	1	-6
509.298	1	4
509.468	1	4
509.639	1	11
509.809	1	6
509.979	1	10
510.149	1	13
510.319	1	-3
510.490	1	4
510.660	1	-3
510.830	1	5
511.000	1	10
511.171	1	7
511.341	1	8
511.511	1	-1
511.681	1	0
511.851	1	8
512.022	1	7
512.192	1	12
512.362	1	-1
512.532	1	5
512.702	1	-1
512.873	1	7
513.043	1	10
513.213	1	-2
513.383	1	2
513.553	1	3
513.724	1	-2
513.894	1	0
514.064	1	14
514.234	1	-1
514.404	1	4
514.575	1	1
514.745	1	6
514.915	1	5
515.085	1	1
515.255	1	3
515.425	1	7
515.596	1	-1
515.766	1	14
515.936	1	3
516.106	1	15
516.276	1	7
516.447	1	11
516.617	1	8
516.787	1	8
516.957	1	-12
517.127	1	5
517.297	1	14
517.468	1	8
517.638	1	-5
517.808	1	16
517.978	1	3
518.148	1	8
518.319	1	-2
518.489	1	18
518.659	1	1
518.829	1	9
518.999	1	14
519.169	1	8
519.340	1	14
519.510	1	0
519.680	1	6
519.850	1	-3
520.020	1	-3
520.190	1	10
520.361	1	1
520.531	1	12
520.701	1	7
520.871	1	10
521.041	1	7
521.211	1	13
521.382	1	8
521.552	1	2
521.722	1	-6
521.892	1	1
522.062	1	-3
522.232	1	-3
522.402	1	2
522.573	1	15
522.743	1	17
522.913	1	7
523.083	1	18
523.253	1	12
523.423	1	0
523.593	1	9
523.764	1	3
523.934	1	5
524.104	1	6
524.274	1	8
524.444	1	7
524.614	1	12
524.784	1	13
524.955	1	4
525.125	1	5
525.295	1	11
525.465	1	4
525.635	1	9
525.805	1	7
525.975	1	7
526.146	1	-3
526.316	1	11
526.486	1	4
526.656	1	15
526.826	1	8
526.996	1	10
527.166	1	5
527.337	1	-1
527.507	1	5
527.677	1	5
527.847	1	4
528.017	1	6
528.187	1	1
528.357	1	-1
528.527	1	7
528.698	1	-10
528.868	1	8
529.038	1	3
529.208	1	10
529.378	1	8
529.548	1	7
529.718	1	1
529.888	1	5
530.058	1	6
530.229	1	14
530.399	1	5
530.569	1	2
530.739	1	7
530.909	1	1
531.079	1	9
531.249	1	-1
531.419	1	9
531.589	1	8
531.760	1	4
531.930	1	12
532.100	1	8
532.270	1	13
532.440	1	4
532.610	1	5
532.780	1	5
532.950	1	-3
533.120	1	7
533.290	1	16
533.461	1	3
533.631	1	8
533.801	1	12
533.971	1	9
534.141	1	7
534.311	1	-1
534.481	1	18
534.651	1	13
534.821	1	9
534.991	1	8
535.162	1	13
535.332	1	13
535.502	1	7
535.672	1	13
535.842	1	6
536.012	1	-2
536.182	1	4
536.352	1	0
536.522	1	8
536.692	1	7
536.862	1	14
537.032	1	3
537.203	1	15
537.373	1	-3
537.543	1	4
537.713	1	7
537.883	1	9
538.053	1	16
538.223	1	4
538.393	1	12
538.563	1	5
538.733	1	-1
538.903	1	3
539.073	1	5
539.243	1	1
539.413	1	6
539.584	1	6
539.754	1	2
539.924	1	0
540.094	1	9
540.264	1	9
540.434	1	4
540.604	1	3
540.774	1	1
540.944	1	-4
541.114	1	3
541.284	1	11
541.454	1	0
541.624	1	8
541.794	1	8
541.964	1	12
542.134	1	4
542.305	1	9
542.475	1	5
542.645	1	1
542.815	1	15
542.985	1	13
543.155	1	8
543.325	1	4
543.495	1	4
543.665	1	5
543.835	1	-1
544.005	1	14
544.175	1	2
544.345	1	11
544.515	1	0
544.685	1	-1
544.855	1	3
545.025	1	5
545.195	1	7
545.365	1	3
545.535	1	1
545.705	1	7
545.875	1	-1
546.045	1	-2
546.216	1	6
546.386	1	5
546.556	1	13
546.726	1	0
546.896	1	12
547.066	1	16
547.236	1	12
547.406	1	-5
547.576	1	1
547.746	1	1
547.916	1	10
548.086	1	7
548.256	1	11
548.426	1	16
548.596	1	-9
548.766	1	8
548.936	1	1
549.106	1	8
549.276	1	0
549.446	1	3
549.616	1	11
549.786	1	11
549.956	1	5
550.126	1	-3
550.296	1	3
550.466	1	5
550.636	1	11
550.806	1	1
550.976	1	13
551.146	1	18
551.316	1	8
551.486	1	3
551.656	1	6
551.826	1	8
551.996	1	4
552.166	1	6
552.336	1	15
552.506	1	6
552.676	1	6
552.846	1	-5
553.016	1	15
553.186	1	3
553.356	1	11
553.526	1	-2
553.696	1	9
553.866	1	-4
554.036	1	8
554.206	1	8
554.376	1	9
554.546	1	-5
554.716	1	-6
554.886	1	0
555.056	1	6
555.226	1	-7
555.396	1	7
555.566	1	5
555.736	1	-1
555.906	1	0
556.076	1	5
556.246	1	9
556.416	1	-3
556.586	1	-1
556.756	1	3
556.926	1	12
557.096	1	-6
557.266	1	4
557.436	1	-13
557.606	1	6
557.776	1	-5
557.946	1	5
558.116	1	-1
558.286	1	6
558.456	1	3
558.626	1	14
558.796	1	-1
558.966	1	1
559.136	1	8
559.306	1	9
559.476	1	5
559.646	1	-3
559.816	1	3
559.986	1	5
560.155	1	6
560.325	1	7
560.495	1	2
560.665	1	4
560.835	1	8
561.005	1	6
561.175	1	6
561.345	1	-1
561.515	1	7
561.685	1	2
561.855	1	6
562.025	1	3
562.195	1	3
562.365	1	3
562.535	1	10
562.705	1	8
562.875	1	-3
563.045	1	3
563.215	1	-2
563.385	1	2
563.555	1	1
563.725	1	3
563.895	1	2
564.064	1	-1
564.234	1	1
564.404	1	4
564.574	1	-6
564.744	1	2
564.914	1	-2
565.084	1	6
565.254	1	-2
565.424	1	12
565.594	1	4
565.764	1	0
565.934	1	11
566.104	1	8
566.274	1	1
566.444	1	2
566.614	1	-2
566.783	1	7
566.953	1	7
567.123	1	3
567.293	1	10
567.463	1	7
567.633	1	4
567.803	1	0
567.973	1	7
568.143	1	1
568.313	1	3
568.483	1	5
568.653	1	-2
568.823	1	2
568.993	1	8
569.162	1	-3
569.332	1	21
569.502	1	5
569.672	1	1
569.842	1	10
570.012	1	9
570.182	1	-5
570.352	1	2
570.522	1	4
570.692	1	8
570.862	1	7
571.031	1	5
571.201	1	8
571.371	1	10
571.541	1	-2
571.711	1	-3
571.881	1	2
572.051	1	4
572.221	1	1
572.391	1	7
572.561	1	-1
572.731	1	4
572.900	1	4
573.070	1	0
573.240	1	6
573.410	1	10
573.580	1	2
573.750	1	15
573.920	1	14
574.090	1	1
574.260	1	14
574.430	1	10
574.599	1	2
574.769	1	-2
574.939	1	-6
575.109	1	4
575.279	1	-4
575.449	1	7
575.619	1	11
575.789	1	7
575.959	1	-9
576.128	1	4
576.298	1	3
576.468	1	6
576.638	1	10
576.808	1	7
576.978	1	2
577.148	1	4
577.318	1	8
577.487	1	13
577.657	1	5
577.827	1	2
577.997	1	-6
578.167	1	5
578.337	1	-1
578.507	1	17
578.677	1	2
578.846	1	6
579.016	1	1
579.186	1	-2
579.356	1	7
579.526	1	5
579.696	1	0
579.866	1	3
580.036	1	-1
580.205	1	-6
580.375	1	0
580.545	1	-4
580.715	1	-1
580.885	1	-9
581.055	1	9
581.225	1	-1
581.394	1	11
581.564	1	-2
581.734	1	6
581.904	1	-7
582.074	1	8
582.244	1	6
582.414	1	2
582.583	1	7
582.753	1	3
582.923	1	8
583.093	1	8
583.263	1	17
583.433	1	5
583.603	1	-6
583.772	1	-1
583.942	1	13
584.112	1	-1
584.282	1	-6
584.452	1	-8
584.622	1	16
584.791	1	6
584.961	1	6
585.131	1	10
585.301	1	10
585.471	1	9
585.641	1	0
585.811	1	-2
585.980	1	-9
586.150	1	3
586.320	1	3
586.490	1	14
586.660	1	-3
586.830	1	-5
586.999	1	16
587.169	1	7
587.339	1	-4
587.509	1	12
587.679	1	-2
587.849	1	2
588.018	1	2
588.188	1	3
588.358	1	11
588.528	1	-3
588.698	1	2
588.867	1	2
589.037	1	-2
589.207	1	9
589.377	1	-1
589.547	1	6
589.717	1	7
589.886	1	-11
590.056	1	-5
590.226	1	3
590.396	1	5
590.566	1	1
590.735	1	3
590.905	1	9
591.075	1	13
591.245	1	9
591.415	1	12
591.585	1	5
591.754	1	5
591.924	1	-1
592.094	1	11
592.264	1	-2
592.434	1	-4
592.603	1	-2
592.773	1	18
592.943	1	12
593.113	1	8
593.283	1	18
593.452	1	-1
593.622	1	-6
593.792	1	-2
593.962	1	5
594.132	1	6
594.301	1	7
594.471	1	11
594.641	1	6
594.811	1	0
594.981	1	11
595.150	1	3
595.320	1	-3
595.490	1	1
595.660	1	2
595.829	1	3
595.999	1	10
596.169	1	5
596.339	1	0
596.509	1	3
596.678	1	-2
596.848	1	5
597.018	1	4
597.188	1	2
597.358	1	3
597.527	1	10
597.697	1	5
597.867	1	14
598.037	1	0
598.206	1	9
598.376	1	-4
598.546	1	2
598.716	1	5
598.885	1	4
599.055	1	4
599.225	1	3
599.395	1	-3
599.565	1	4
599.734	1	6
599.904	1	7
600.074	1	-3
600.244	1	14
600.413	1	-2
600.583	1	8
600.753	1	13
600.923	1	8
601.092	1	-2
601.262	1	-8
601.432	1	-1
601.602	1	3
601.771	1	14
601.941	1	8
602.111	1	4
602.281	1	-1
602.451	1	11
602.620	1	8
602.790	1	10
602.960	1	15
603.130	1	-3
603.299	1	8
603.469	1	0
603.639	1	4
603.809	1	5
603.978	1	8
604.148	1	-1
604.318	1	1
604.487	1	8
604.657	1	8
604.827	1	-3
604.997	1	-1
605.166	1	6
605.336	1	-1
605.506	1	-2
605.676	1	4
605.845	1	7
606.015	1	0
606.185	1	3
606.355	1	8
606.524	1	-2
606.694	1	-12
606.864	1	8
607.034	1	13
607.203	1	3
607.373	1	4
607.543	1	14
607.712	1	-6
607.882	1	1
608.052	1	-8
608.222	1	0
608.391	1	5
608.561	1	0
608.731	1	4
608.901	1	3
609.070	1	3
609.240	1	-1
609.410	1	-1
609.579	1	7
609.749	1	-5
609.919	1	6
610.089	1	3
610.258	1	14
610.428	1	-4
610.598	1	11
610.767	1	4
610.937	1	-4
611.107	1	-8
611.277	1	-3
611.446	1	-3
611.616	1	2
611.786	1	0
611.955	1	3
612.125	1	9
612.295	1	3
612.465	1	-3
612.634	1	2
612.804	1	6
612.974	1	-1
613.143	1	-4
613.313	1	-3
613.483	1	1
613.652	1	16
613.822	1	8
613.992	1	-1
614.162	1	4
614.331	1	0
614.501	1	-2
614.671	1	1
614.840	1	4
615.010	1	8
615.180	1	14
615.349	1	-3
615.519	1	-10
615.689	1	13
615.858	1	2
616.028	1	7
616.198	1	-3
616.368	1	-7
616.537	1	-1
616.707	1	9
616.877	1	-8
617.046	1	6
617.216	1	12
617.386	1	6
617.555	1	-7
617.725	1	8
617.895	1	5
618.064	1	4
618.234	1	3
618.404	1	2
618.573	1	0
618.743	1	0
618.913	1	5
619.082	1	2
619.252	1	12
619.422	1	-2
619.591	1	5
619.761	1	2
619.931	1	9
620.100	1	4
620.270	1	4
620.440	1	4
620.609	1	2
620.779	1	-3
620.949	1	9
621.118	1	-3
621.288	1	3
621.458	1	0
621.627	1	5
621.797	1	0
621.967	1	3
622.136	1	4
622.306	1	7
622.476	1	-4
622.645	1	-2
622.815	1	1
622.985	1	3
623.154	1	2
623.324	1	-7
623.494	1	-1
623.663	1	11
623.833	1	6
624.002	1	4
624.172	1	8
624.342	1	13
624.511	1	8
624.681	1	6
624.851	1	-8
625.020	1	-3
625.190	1	8
625.360	1	8
625.529	1	8
625.699	1	2
625.869	1	7
626.038	1	3
626.208	1	-3
626.377	1	8
626.547	1	-4
626.717	1	3
626.886	1	8
627.056	1	2
627.226	1	11
627.395	1	3
627.565	1	7
627.735	1	-8
627.904	1	-1
628.074	1	12
628.243	1	-5
628.413	1	1
628.583	1	7
628.752	1	1
628.922	1	-5
629.091	1	-10
629.261	1	3
629.431	1	6
629.600	1	5
629.770	1	-3
629.940	1	-2
630.109	1	1
630.279	1	-2
630.448	1	7
630.618	1	1
630.788	1	4
630.957	1	2
631.127	1	-2
631.297	1	0
631.466	1	5
631.636	1	8
631.805	1	13
631.975	1	-10
632.145	1	9
632.314	1	6
632.484	1	-2
632.653	1	2
632.823	1	-2
632.993	1	-10
633.162	1	13
633.332	1	11
633.501	1	12
633.671	1	9
633.841	1	-10
634.010	1	-1
634.180	1	0
634.349	1	1
634.519	1	13
634.689	1	4
634.858	1	-2
635.028	1	12
635.197	1	9
635.367	1	-1
635.537	1	-4
635.706	1	-5
635.876	1	5
636.045	1	7
636.215	1	2
636.384	1	-10
636.554	1	-4
636.724	1	5
636.893	1	7
637.063	1	7
637.232	1	6
637.402	1	5
637.572	1	-5
637.741	1	1
637.911	1	3
638.080	1	12
638.250	1	12
638.419	1	-6
638.589	1	8
638.759	1	6
638.928	1	7
639.098	1	-12
639.267	1	7
639.437	1	-2
639.606	1	3
639.776	1	2
639.946	1	2
640.115	1	3
640.285	1	3
640.454	1	0
640.624	1	-3
640.793	1	-1
640.963	1	-1
641.132	1	6
641.302	1	-4
641.472	1	-8
641.641	1	7
641.811	1	3
641.980	1	-5
642.150	1	3
642.319	1	13
642.489	1	1
642.659	1	-2
642.828	1	9
642.998	1	4
643.167	1	5
643.337	1	5
643.506	1	16
643.676	1	7
643.845	1	11
644.015	1	-2
644.184	1	8
644.354	1	7
644.524	1	5
644.693	1	4
644.863	1	-11
645.032	1	2
645.202	1	11
645.371	1	2
645.541	1	9
645.710	1	0
645.880	1	-1
646.049	1	2
646.219	1	-1
646.388	1	8
646.558	1	4
646.728	1	8
646.897	1	8
647.067	1	1
647.236	1	-4
647.406	1	2
647.575	1	-3
647.745	1	5
647.914	1	12
648.084	1	8
648.253	1	-3
648.423	1	8
648.592	1	-2
648.762	1	5
648.931	1	14
649.101	1	2
649.270	1	-2
649.440	1	-2
649.610	1	3
649.779	1	-9
649.949	1	-5
650.118	1	2
650.288	1	5
650.457	1	6
650.627	1	-9
650.796	1	-4
650.966	1	10
651.135	1	10
651.305	1	-7
651.474	1	3
651.644	1	11
651.813	1	5
651.983	1	12
652.152	1	-2
652.322	1	1
652.491	1	6
652.661	1	3
652.830	1	2
653.000	1	-1
653.169	1	4
653.339	1	0
653.508	1	6
653.678	1	1
653.847	1	3
654.017	1	7
654.186	1	21
654.356	1	3
654.525	1	1
654.695	1	14
654.864	1	11
655.034	1	5
655.203	1	0
655.373	1	7
655.542	1	0
655.712	1	-7
655.881	1	2
656.051	1	-1
656.220	1	-1
656.390	1	-1
656.559	1	-5
656.729	1	7
656.898	1	13
657.068	1	4
657.237	1	1
657.406	1	-3
657.576	1	4
657.745	1	10
657.915	1	4
658.084	1	-3
658.254	1	11
658.423	1	10
658.593	1	1
658.762	1	6
658.932	1	4
659.101	1	-1
659.271	1	-3
659.440	1	5
659.610	1	7
659.779	1	8
659.949	1	2
660.118	1	-10
660.288	1	6
660.457	1	13
660.626	1	2
660.796	1	0
660.965	1	9
661.135	1	-11
661.304	1	-1
661.474	1	9
661.643	1	5
661.813	1	-4
661.982	1	9
662.152	1	4
662.321	1	6
662.491	1	-12
662.660	1	0
662.829	1	2
662.999	1	11
663.168	1	11
663.338	1	10
663.507	1	3
663.677	1	2
663.846	1	7
664.016	1	13
664.185	1	3
664.354	1	1
664.524	1	2
664.693	1	1
664.863	1	3
665.032	1	1
665.202	1	16
665.371	1	-2
665.541	1	-4
665.710	1	6
665.879	1	7
666.049	1	-3
666.218	1	14
666.388	1	8
666.557	1	1
666.727	1	6
666.896	1	-1
667.065	1	6
667.235	1	2
667.404	1	8
667.574	1	-11
667.743	1	4
667.913	1	-1
668.082	1	7
668.251	1	1
668.421	1	6
668.590	1	-1
668.760	1	5
668.929	1	9
669.099	1	7
669.268	1	-10
669.437	1	3
669.607	1	1
669.776	1	-5
669.946	1	2
670.115	1	1
670.285	1	17
670.454	1	-9
670.623	1	1
670.793	1	8
670.962	1	0
671.132	1	3
671.301	1	8
671.470	1	14
671.640	1	7
671.809	1	0
671.979	1	2
672.148	1	-2
672.317	1	-2
672.487	1	4
672.656	1	0
672.826	1	3
672.995	1	0
673.164	1	2
673.334	1	4
673.503	1	-7
673.673	1	7
673.842	1	8
674.011	1	13
674.181	1	7
674.350	1	5
674.520	1	6
674.689	1	-4
674.858	1	-1
675.028	1	-6
675.197	1	2
675.367	1	-4
675.536	1	7
675.705	1	6
675.875	1	1
676.044	1	14
676.214	1	-1
676.383	1	4
676.552	1	2
676.722	1	9
676.891	1	12
677.060	1	0
677.230	1	3
677.399	1	7
677.569	1	-9
677.738	1	0
677.907	1	7
678.077	1	11
678.246	1	-4
678.416	1	0
678.585	1	8
678.754	1	10
678.924	1	7
679.093	1	0
679.262	1	-4
679.432	1	-3
679.601	1	1
679.771	1	3
679.940	1	8
680.109	1	-6
680.279	1	-3
680.448	1	4
680.617	1	2
680.787	1	-13
680.956	1	-7
681.125	1	8
681.295	1	5
681.464	1	4
681.634	1	8
681.803	1	7
681.972	1	-6
682.142	1	2
682.311	1	2
682.480	1	2
682.650	1	4
682.819	1	9
682.988	1	6
683.158	1	4
683.327	1	5
683.496	1	3
683.666	1	0
683.835	1	1
684.004	1	3
684.174	1	1
684.343	1	6
684.512	1	1
684.682	1	9
684.851	1	-2
685.021	1	-6
685.190	1	-1
685.359	1	0
685.529	1	17
685.698	1	0
685.867	1	4
686.037	1	-3
686.206	1	7
686.375	1	12
686.545	1	5
686.714	1	3
686.883	1	-1
687.053	1	-2
687.222	1	-1
687.391	1	2
687.561	1	10
687.730	1	11
687.899	1	-3
688.069	1	9
688.238	1	0
688.407	1	-4
688.577	1	7
688.746	1	-6
