340.368	1	-3
340.539	1	10
340.710	1	-5
340.881	1	5
341.052	1	12
341.223	1	1
341.394	1	15
341.565	1	8
341.737	1	2
341.908	1	14
342.079	1	6
342.250	1	3
342.421	1	7
342.592	1	-3
342.763	1	12
342.934	1	-2
343.105	1	11
343.276	1	12
343.447	1	-12
343.618	1	5
343.789	1	6
343.960	1	-2
344.131	1	5
344.302	1	12
344.473	1	7
344.644	1	13
344.815	1	10
344.986	1	5
345.157	1	7
345.328	1	3
345.499	1	-5
345.670	1	10
345.841	1	6
346.012	1	7
346.183	1	14
346.354	1	-4
346.526	1	11
346.697	1	13
346.868	1	11
347.039	1	9
347.210	1	-1
347.381	1	3
347.552	1	25
347.723	1	5
347.894	1	4
348.065	1	-6
348.236	1	9
348.407	1	5
348.578	1	10
348.749	1	9
348.920	1	6
349.091	1	14
349.262	1	11
349.433	1	10
349.604	1	18
349.775	1	9
349.946	1	9
350.117	1	13
350.288	1	4
350.459	1	9
350.630	1	18
350.801	1	6
350.972	1	0
351.143	1	14
351.314	1	5
351.485	1	7
351.656	1	10
351.827	1	4
351.998	1	12
352.169	1	15
352.340	1	3
352.511	1	17
352.682	1	10
352.853	1	14
353.024	1	18
353.195	1	20
353.366	1	19
353.537	1	19
353.708	1	26
353.879	1	18
354.050	1	6
354.221	1	12
354.392	1	11
354.563	1	18
354.734	1	26
354.905	1	31
355.076	1	12
355.247	1	17
355.418	1	16
355.589	1	21
355.760	1	13
355.931	1	25
356.102	1	30
356.273	1	18
356.444	1	34
356.615	1	27
356.785	1	22
356.956	1	35
357.127	1	35
357.298	1	35
357.469	1	34
357.640	1	30
357.811	1	38
357.982	1	46
358.153	1	50
358.324	1	41
358.495	1	38
358.666	1	56
358.837	1	52
359.008	1	46
359.179	1	42
359.350	1	56
359.521	1	65
359.692	1	62
359.863	1	60
360.034	1	57
360.205	1	83
360.376	1	72
360.547	1	79
360.718	1	93
360.889	1	101
361.060	1	86
361.231	1	104
361.401	1	96
361.572	1	110
361.743	1	109
361.914	1	118
362.085	1	120
362.256	1	134
362.427	1	139
362.598	1	141
362.769	1	143
362.940	1	191
363.111	1	188
363.282	1	202
363.453	1	208
363.624	1	218
363.795	1	226
363.966	1	250
364.137	1	267
364.308	1	282
364.478	1	302
364.649	1	314
364.820	1	335
364.991	1	364
365.162	1	387
365.333	1	393
365.504	1	439
365.675	1	462
365.846	1	476
366.017	1	507
366.188	1	528
366.359	1	560
366.530	1	582
366.701	1	613
366.871	1	622
367.042	1	634
367.213	1	698
367.384	1	700
367.555	1	707
367.726	1	723
367.897	1	732
368.068	1	771
368.239	1	780
368.410	1	766
368.581	1	768
368.752	1	804
368.923	1	781
369.093	1	753
369.264	1	743
369.435	1	750
369.606	1	728
369.777	1	731
369.948	1	710
370.119	1	671
370.290	1	652
370.461	1	674
370.632	1	636
370.803	1	614
370.973	1	603
371.144	1	569
371.315	1	575
371.486	1	521
371.657	1	528
371.828	1	518
371.999	1	499
372.170	1	478
372.341	1	451
372.512	1	422
372.682	1	418
372.853	1	400
373.024	1	392
373.195	1	398
373.366	1	388
373.537	1	371
373.708	1	337
373.879	1	345
374.050	1	352
374.220	1	352
374.391	1	317
374.562	1	308
374.733	1	325
374.904	1	297
375.075	1	283
375.246	1	272
375.417	1	277
375.588	1	279
375.758	1	255
375.929	1	246
376.100	1	239
376.271	1	223
376.442	1	226
376.613	1	214
376.784	1	217
376.955	1	224
377.125	1	201
377.296	1	200
377.467	1	201
377.638	1	189
377.809	1	196
377.980	1	179
378.151	1	172
378.321	1	176
378.492	1	162
378.663	1	155
378.834	1	147
379.005	1	146
379.176	1	159
379.347	1	135
379.518	1	137
379.688	1	137
379.859	1	130
380.030	1	134
380.201	1	113
380.372	1	111
380.543	1	104
380.714	1	116
380.884	1	113
381.055	1	115
381.226	1	115
381.397	1	109
381.568	1	110
381.739	1	86
381.910	1	97
382.080	1	91
382.251	1	102
382.422	1	89
382.593	1	99
382.764	1	81
382.935	1	85
383.105	1	88
383.276	1	93
383.447	1	94
383.618	1	89
383.789	1	93
383.960	1	89
384.130	1	86
384.301	1	84
384.472	1	72
384.643	1	79
384.814	1	81
384.985	1	74
385.156	1	87
385.326	1	78
385.497	1	85
385.668	1	80
385.839	1	73
386.010	1	69
386.180	1	73
386.351	1	67
386.522	1	67
386.693	1	60
386.864	1	68
387.035	1	61
387.205	1	56
387.376	1	60
387.547	1	66
387.718	1	49
387.889	1	61
388.060	1	56
388.230	1	53
388.401	1	46
388.572	1	60
388.743	1	61
388.914	1	52
389.084	1	53
389.255	1	49
389.426	1	44
389.597	1	51
389.768	1	57
389.939	1	44
390.109	1	53
390.280	1	48
390.451	1	46
390.622	1	38
390.793	1	47
390.963	1	47
391.134	1	33
391.305	1	42
391.476	1	50
391.647	1	30
391.817	1	44
391.988	1	42
392.159	1	45
392.330	1	40
392.501	1	40
392.671	1	31
392.842	1	33
393.013	1	34
393.184	1	35
393.355	1	48
393.525	1	48
393.696	1	35
393.867	1	40
394.038	1	25
394.208	1	32
394.379	1	28
394.550	1	44
394.721	1	37
394.892	1	27
395.062	1	24
395.233	1	40
395.404	1	44
395.575	1	35
395.746	1	31
395.916	1	30
396.087	1	40
396.258	1	23
396.429	1	34
396.599	1	24
396.770	1	28
396.941	1	36
397.112	1	36
397.283	1	14
397.453	1	47
397.624	1	38
397.795	1	32
397.966	1	32
398.136	1	36
398.307	1	32
398.478	1	24
398.649	1	32
398.819	1	25
398.990	1	15
399.161	1	19
399.332	1	14
399.503	1	34
399.673	1	26
399.844	1	15
400.015	1	24
400.186	1	4
400.356	1	17
400.527	1	32
400.698	1	17
400.869	1	20
401.039	1	27
401.210	1	23
401.381	1	25
401.552	1	22
401.722	1	17
401.893	1	23
402.064	1	12
402.235	1	22
402.405	1	8
402.576	1	15
402.747	1	19
402.918	1	17
403.088	1	29
403.259	1	17
403.430	1	18
403.601	1	24
403.771	1	13
403.942	1	26
404.113	1	23
404.284	1	11
404.454	1	17
404.625	1	15
404.796	1	27
404.967	1	19
405.137	1	30
405.308	1	19
405.479	1	17
405.649	1	14
405.820	1	19
405.991	1	22
406.162	1	21
406.332	1	4
406.503	1	14
406.674	1	19
406.845	1	22
407.015	1	16
407.186	1	13
407.357	1	13
407.527	1	19
407.698	1	17
407.869	1	10
408.040	1	10
408.210	1	26
408.381	1	21
408.552	1	6
408.722	1	4
408.893	1	12
409.064	1	8
409.235	1	11
409.405	1	17
409.576	1	12
409.747	1	20
409.917	1	18
410.088	1	16
410.259	1	21
410.430	1	9
410.600	1	20
410.771	1	15
410.942	1	16
411.112	1	11
411.283	1	12
411.454	1	19
411.625	1	4
411.795	1	27
411.966	1	17
412.137	1	13
412.307	1	15
412.478	1	13
412.649	1	13
412.819	1	-3
412.990	1	5
413.161	1	13
413.332	1	7
413.502	1	7
413.673	1	3
413.844	1	26
414.014	1	9
414.185	1	12
414.356	1	5
414.526	1	13
414.697	1	20
414.868	1	8
415.038	1	2
415.209	1	-8
415.380	1	17
415.550	1	11
415.721	1	12
415.892	1	19
416.063	1	13
416.233	1	17
416.404	1	8
416.575	1	8
416.745	1	11
416.916	1	3
417.087	1	10
417.257	1	18
417.428	1	4
417.599	1	14
417.769	1	22
417.940	1	15
418.111	1	19
418.281	1	3
418.452	1	13
418.623	1	4
418.793	1	8
418.964	1	7
419.135	1	15
419.305	1	14
419.476	1	8
419.647	1	14
419.817	1	9
419.988	1	18
420.159	1	18
420.329	1	20
420.500	1	4
420.671	1	8
420.841	1	9
421.012	1	8
421.183	1	9
421.353	1	15
421.524	1	4
421.695	1	-3
421.865	1	3
422.036	1	15
422.206	1	8
422.377	1	12
422.548	1	19
422.718	1	17
422.889	1	0
423.060	1	10
423.230	1	15
423.401	1	8
423.572	1	2
423.742	1	10
423.913	1	4
424.084	1	17
424.254	1	9
424.425	1	3
424.595	1	23
424.766	1	1
424.937	1	10
425.107	1	7
425.278	1	8
425.449	1	10
425.619	1	1
425.790	1	-1
425.961	1	7
426.131	1	13
426.302	1	2
426.472	1	19
426.643	1	19
426.814	1	-7
426.984	1	15
427.155	1	19
427.326	1	9
427.496	1	4
427.667	1	17
427.837	1	14
428.008	1	15
428.179	1	19
428.349	1	3
428.520	1	8
428.691	1	6
428.861	1	20
429.032	1	13
429.202	1	7
429.373	1	15
429.544	1	10
429.714	1	12
429.885	1	16
430.055	1	15
430.226	1	8
430.397	1	6
430.567	1	11
430.738	1	9
430.909	1	1
431.079	1	0
431.250	1	32
431.420	1	-4
431.591	1	11
431.762	1	5
431.932	1	3
432.103	1	13
432.273	1	4
432.444	1	12
432.615	1	15
432.785	1	14
432.956	1	15
433.126	1	5
433.297	1	3
433.468	1	5
433.638	1	20
433.809	1	5
433.979	1	12
434.150	1	9
434.320	1	19
434.491	1	11
434.662	1	-2
434.832	1	11
435.003	1	13
435.173	1	11
435.344	1	5
435.515	1	11
435.685	1	8
435.856	1	22
436.026	1	3
436.197	1	1
436.368	1	18
436.538	1	10
436.709	1	4
436.879	1	16
437.050	1	6
437.220	1	2
437.391	1	9
437.562	1	12
437.732	1	12
437.903	1	24
438.073	1	10
438.244	1	-3
438.414	1	4
438.585	1	11
438.756	1	14
438.926	1	-1
439.097	1	22
439.267	1	11
439.438	1	15
439.608	1	0
439.779	1	8
439.949	1	15
440.120	1	3
440.291	1	10
440.461	1	21
440.632	1	11
440.802	1	18
440.973	1	12
441.143	1	7
441.314	1	5
441.485	1	-1
441.655	1	9
441.826	1	12
441.996	1	3
442.167	1	5
442.337	1	7
442.508	1	7
442.678	1	12
442.849	1	2
443.019	1	14
443.190	1	14
443.361	1	20
443.531	1	4
443.702	1	23
443.872	1	3
444.043	1	5
444.213	1	13
444.384	1	16
444.554	1	12
444.725	1	5
444.895	1	-4
445.066	1	7
445.237	1	0
445.407	1	11
445.578	1	21
445.748	1	3
445.919	1	19
446.089	1	12
446.260	1	12
446.430	1	5
446.601	1	8
446.771	1	-1
446.942	1	11
447.112	1	16
447.283	1	16
447.453	1	8
447.624	1	6
447.794	1	13
447.965	1	10
448.135	1	7
448.306	1	6
448.477	1	7
448.647	1	2
448.818	1	11
448.988	1	19
449.159	1	4
449.329	1	7
449.500	1	19
449.670	1	-1
449.841	1	8
450.011	1	18
450.182	1	8
450.352	1	6
450.523	1	13
450.693	1	5
450.864	1	10
451.034	1	11
451.205	1	9
451.375	1	6
451.546	1	7
451.716	1	8
451.887	1	4
452.057	1	11
452.228	1	15
452.398	1	9
452.569	1	23
452.739	1	8
452.910	1	11
453.080	1	13
453.251	1	21
453.421	1	15
453.592	1	2
453.762	1	3
453.933	1	11
454.103	1	1
454.274	1	10
454.444	1	-8
454.615	1	5
454.785	1	8
454.956	1	3
455.126	1	28
455.297	1	3
455.467	1	-3
455.638	1	17
455.808	1	17
455.979	1	15
456.149	1	5
456.320	1	11
456.490	1	11
456.661	1	12
456.831	1	4
457.001	1	24
457.172	1	9
457.342	1	4
457.513	1	18
457.683	1	17
457.854	1	17
458.024	1	16
458.195	1	1
458.365	1	0
458.536	1	7
458.706	1	11
458.877	1	4
459.047	1	4
459.218	1	10
459.388	1	8
459.559	1	10
459.729	1	6
459.899	1	3
460.070	1	12
460.240	1	1
460.411	1	12
460.581	1	4
460.752	1	14
460.922	1	10
461.093	1	16
461.263	1	7
461.434	1	-1
461.604	1	16
461.775	1	10
461.945	1	9
462.115	1	7
462.286	1	1
462.456	1	-10
462.627	1	9
462.797	1	3
462.968	1	16
463.138	1	1
463.309	1	12
463.479	1	7
463.649	1	13
463.820	1	13
463.990	1	1
464.161	1	10
464.331	1	13
464.502	1	9
464.672	1	0
464.843	1	3
465.013	1	15
465.183	1	13
465.354	1	5
465.524	1	13
465.695	1	14
465.865	1	5
466.036	1	7
466.206	1	15
466.376	1	8
466.547	1	14
466.717	1	11
466.888	1	5
467.058	1	15
467.229	1	3
467.399	1	25
467.569	1	12
467.740	1	-5
467.910	1	3
468.081	1	0
468.251	1	10
468.422	1	11
468.592	1	7
468.762	1	15
468.933	1	7
469.103	1	7
469.274	1	15
469.444	1	19
469.614	1	5
469.785	1	14
469.955	1	10
470.126	1	16
470.296	1	18
470.467	1	12
470.637	1	11
470.807	1	15
470.978	1	-1
471.148	1	15
471.319	1	12
471.489	1	10
471.659	1	-5
471.830	1	9
472.000	1	13
472.171	1	14
472.341	1	16
472.511	1	16
472.682	1	9
472.852	1	12
473.023	1	11
473.193	1	21
473.363	1	5
473.534	1	11
473.704	1	12
473.875	1	12
474.045	1	15
474.215	1	15
474.386	1	11
474.556	1	12
474.727	1	19
474.897	1	14
475.067	1	16
475.238	1	5
475.408	1	13
475.578	1	11
475.749	1	16
475.919	1	18
476.090	1	18
476.260	1	26
476.430	1	10
476.601	1	15
476.771	1	20
476.942	1	7
477.112	1	0
477.282	1	20
477.453	1	19
477.623	1	19
477.793	1	20
477.964	1	9
478.134	1	16
478.305	1	8
478.475	1	13
478.645	1	16
478.816	1	11
478.986	1	19
479.156	1	17
479.327	1	7
479.497	1	12
479.667	1	13
479.838	1	22
480.008	1	12
480.179	1	14
480.349	1	10
480.519	1	15
480.690	1	26
480.860	1	19
481.030	1	13
481.201	1	16
481.371	1	15
481.541	1	21
481.712	1	16
481.882	1	21
482.053	1	18
482.223	1	8
482.393	1	9
482.564	1	15
482.734	1	20
482.904	1	20
483.075	1	16
483.245	1	16
483.415	1	26
483.586	1	12
483.756	1	14
483.926	1	6
484.097	1	9
484.267	1	15
484.437	1	21
484.608	1	25
484.778	1	20
484.948	1	19
485.119	1	21
485.289	1	27
485.459	1	16
485.630	1	24
485.800	1	12
485.970	1	25
486.141	1	31
486.311	1	21
486.481	1	28
486.652	1	19
486.822	1	18
486.992	1	29
487.163	1	24
487.333	1	15
487.503	1	31
487.674	1	13
487.844	1	32
488.014	1	33
488.185	1	23
488.355	1	25
488.525	1	33
488.696	1	24
488.866	1	37
489.036	1	32
489.207	1	31
489.377	1	22
489.547	1	48
489.718	1	42
489.888	1	22
490.058	1	32
490.228	1	23
490.399	1	31
490.569	1	25
490.739	1	36
490.910	1	28
491.080	1	24
491.250	1	35
491.421	1	42
491.591	1	31
491.761	1	34
491.932	1	31
492.102	1	27
492.272	1	47
492.442	1	40
492.613	1	36
492.783	1	30
492.953	1	39
493.124	1	36
493.294	1	34
493.464	1	22
493.635	1	34
493.805	1	36
493.975	1	42
494.145	1	44
494.316	1	40
494.486	1	44
494.656	1	36
494.827	1	38
494.997	1	36
495.167	1	35
495.337	1	36
495.508	1	38
495.678	1	32
495.848	1	38
496.019	1	30
496.189	1	41
496.359	1	37
496.529	1	33
496.700	1	51
496.870	1	37
497.040	1	37
497.211	1	45
497.381	1	46
497.551	1	49
497.721	1	34
497.892	1	41
498.062	1	39
498.232	1	46
498.403	1	57
498.573	1	38
498.743	1	45
498.913	1	45
499.084	1	46
499.254	1	57
499.424	1	54
499.594	1	40
499.765	1	36
499.935	1	42
500.105	1	43
500.275	1	56
500.446	1	46
500.616	1	44
500.786	1	40
500.956	1	49
501.127	1	51
501.297	1	49
501.467	1	44
501.638	1	43
501.808	1	47
501.978	1	52
502.148	1	49
502.319	1	61
502.489	1	46
502.659	1	59
502.829	1	49
503.000	1	58
503.170	1	55
503.340	1	64
503.510	1	57
503.681	1	57
503.851	1	62
504.021	1	58
504.191	1	51
504.362	1	69
504.532	1	34
504.702	1	54
504.872	1	59
505.042	1	65
505.213	1	46
505.383	1	60
505.553	1	64
505.723	1	55
505.894	1	72
506.064	1	59
506.234	1	51
506.404	1	61
506.575	1	57
506.745	1	64
506.915	1	61
507.085	1	58
507.256	1	68
507.426	1	65
507.596	1	69
507.766	1	66
507.936	1	74
508.107	1	59
508.277	1	56
508.447	1	69
508.617	1	70
508.788	1	60
508.958	1	55
509.128	1	56
509.298	1	68
509.468	1	56
509.639	1	81
509.809	1	62
509.979	1	61
510.149	1	73
510.319	1	67
510.490	1	74
510.660	1	65
510.830	1	56
511.000	1	63
511.171	1	64
511.341	1	75
511.511	1	72
511.681	1	65
511.851	1	73
512.022	1	70
512.192	1	66
512.362	1	68
512.532	1	63
512.702	1	71
512.873	1	57
513.043	1	72
513.213	1	62
513.383	1	74
513.553	1	71
513.724	1	68
513.894	1	63
514.064	1	82
514.234	1	66
514.404	1	61
514.575	1	70
514.745	1	73
514.915	1	78
515.085	1	70
515.255	1	68
515.425	1	75
515.596	1	61
515.766	1	74
515.936	1	72
516.106	1	74
516.276	1	84
516.447	1	69
516.617	1	69
516.787	1	77
516.957	1	69
517.127	1	82
517.297	1	78
517.468	1	74
517.638	1	75
517.808	1	87
517.978	1	82
518.148	1	81
518.319	1	78
518.489	1	82
518.659	1	77
518.829	1	84
518.999	1	88
519.169	1	73
519.340	1	87
519.510	1	87
519.680	1	78
519.850	1	83
520.020	1	87
520.190	1	81
520.361	1	82
520.531	1	89
520.701	1	79
520.871	1	87
521.041	1	85
521.211	1	84
521.382	1	74
521.552	1	81
521.722	1	74
521.892	1	82
522.062	1	78
522.232	1	68
522.402	1	78
522.573	1	81
522.743	1	83
522.913	1	79
523.083	1	81
523.253	1	94
523.423	1	79
523.593	1	86
523.764	1	72
523.934	1	85
524.104	1	89
524.274	1	76
524.444	1	74
524.614	1	83
524.784	1	82
524.955	1	95
525.125	1	85
525.295	1	89
525.465	1	90
525.635	1	80
525.805	1	91
525.975	1	72
526.146	1	85
526.316	1	93
526.486	1	87
526.656	1	100
526.826	1	84
526.996	1	81
527.166	1	93
527.337	1	80
527.507	1	83
527.677	1	82
527.847	1	89
528.017	1	85
528.187	1	87
528.357	1	93
528.527	1	85
528.698	1	79
528.868	1	100
529.038	1	78
529.208	1	87
529.378	1	93
529.548	1	94
529.718	1	101
529.888	1	76
530.058	1	104
530.229	1	105
530.399	1	95
530.569	1	103
530.739	1	91
530.909	1	82
531.079	1	90
531.249	1	81
531.419	1	98
531.589	1	92
531.760	1	87
531.930	1	110
532.100	1	85
532.270	1	87
532.440	1	104
532.610	1	99
532.780	1	87
532.950	1	89
533.120	1	95
533.290	1	102
533.461	1	82
533.631	1	93
533.801	1	84
533.971	1	93
534.141	1	93
534.311	1	92
534.481	1	101
534.651	1	89
534.821	1	84
534.991	1	86
535.162	1	85
535.332	1	86
535.502	1	86
535.672	1	86
535.842	1	98
536.012	1	84
536.182	1	89
536.352	1	88
536.522	1	88
536.692	1	76
536.862	1	92
537.032	1	76
537.203	1	81
537.373	1	71
537.543	1	81
537.713	1	83
537.883	1	84
538.053	1	73
538.223	1	79
538.393	1	84
538.563	1	74
538.733	1	65
538.903	1	82
539.073	1	82
539.243	1	68
539.413	1	79
539.584	1	66
539.754	1	76
539.924	1	74
540.094	1	81
540.264	1	76
540.434	1	74
540.604	1	79
540.774	1	73
540.944	1	63
541.114	1	79
541.284	1	78
541.454	1	72
541.624	1	68
541.794	1	71
541.964	1	90
542.134	1	79
542.305	1	77
542.475	1	71
542.645	1	77
542.815	1	89
542.985	1	81
543.155	1	80
543.325	1	73
543.495	1	80
543.665	1	76
543.835	1	75
544.005	1	88
544.175	1	78
544.345	1	83
544.515	1	77
544.685	1	80
544.855	1	70
545.025	1	76
545.195	1	73
545.365	1	78
545.535	1	77
545.705	1	88
545.875	1	84
546.045	1	72
546.216	1	79
546.386	1	75
546.556	1	84
546.726	1	90
546.896	1	82
547.066	1	92
547.236	1	88
547.406	1	71
547.576	1	78
547.746	1	68
547.916	1	81
548.086	1	73
548.256	1	86
548.426	1	88
548.596	1	64
548.766	1	77
548.936	1	82
549.106	1	82
549.276	1	89
549.446	1	87
549.616	1	91
549.786	1	73
549.956	1	85
550.126	1	74
550.296	1	81
550.466	1	87
550.636	1	72
550.806	1	88
550.976	1	86
551.146	1	82
551.316	1	86
551.486	1	65
551.656	1	83
551.826	1	84
551.996	1	76
552.166	1	81
552.336	1	74
552.506	1	84
552.676	1	75
552.846	1	73
553.016	1	70
553.186	1	78
553.356	1	79
553.526	1	67
553.696	1	69
553.866	1	63
554.036	1	68
554.206	1	75
554.376	1	82
554.546	1	63
554.716	1	68
554.886	1	66
555.056	1	65
555.226	1	64
555.396	1	66
555.566	1	72
555.736	1	66
555.906	1	62
556.076	1	61
556.246	1	61
556.416	1	66
556.586	1	61
556.756	1	59
556.926	1	78
557.096	1	58
557.266	1	77
557.436	1	54
557.606	1	71
557.776	1	59
557.946	1	68
558.116	1	62
558.286	1	57
558.456	1	56
558.626	1	80
558.796	1	50
558.966	1	72
559.136	1	71
559.306	1	65
559.476	1	57
559.646	1	63
559.816	1	54
559.986	1	59
560.155	1	67
560.325	1	57
560.495	1	63
560.665	1	63
560.835	1	67
561.005	1	58
561.175	1	49
561.345	1	61
561.515	1	61
561.685	1	61
561.855	1	61
562.025	1	53
562.195	1	61
562.365	1	54
562.535	1	63
562.705	1	68
562.875	1	63
563.045	1	66
563.215	1	54
563.385	1	62
563.555	1	61
563.725	1	59
563.895	1	60
564.064	1	66
564.234	1	61
564.404	1	49
564.574	1	56
564.744	1	53
564.914	1	58
565.084	1	61
565.254	1	53
565.424	1	60
565.594	1	64
565.764	1	56
565.934	1	64
566.104	1	50
566.274	1	52
566.444	1	60
566.614	1	46
566.783	1	62
566.953	1	61
567.123	1	62
567.293	1	64
567.463	1	53
567.633	1	57
567.803	1	52
567.973	1	51
568.143	1	49
568.313	1	50
568.483	1	50
568.653	1	48
568.823	1	44
568.993	1	52
569.162	1	61
569.332	1	57
569.502	1	50
569.672	1	47
569.842	1	45
570.012	1	53
570.182	1	41
570.352	1	46
570.522	1	44
570.692	1	49
570.862	1	49
571.031	1	60
571.201	1	61
571.371	1	51
571.541	1	52
571.711	1	53
571.881	1	46
572.051	1	43
572.221	1	52
572.391	1	48
572.561	1	46
572.731	1	49
572.900	1	46
573.070	1	45
573.240	1	53
573.410	1	51
573.580	1	62
573.750	1	43
573.920	1	61
574.090	1	45
574.260	1	42
574.430	1	59
574.599	1	52
574.769	1	35
574.939	1	38
575.109	1	42
575.279	1	44
575.449	1	54
575.619	1	54
575.789	1	49
575.959	1	37
576.128	1	43
576.298	1	48
576.468	1	43
576.638	1	55
576.808	1	43
576.978	1	38
577.148	1	42
577.318	1	55
577.487	1	50
577.657	1	45
577.827	1	43
577.997	1	39
578.167	1	48
578.337	1	50
578.507	1	51
578.677	1	41
578.846	1	45
579.016	1	47
579.186	1	40
579.356	1	48
579.526	1	45
579.696	1	45
579.866	1	47
580.036	1	45
580.205	1	43
580.375	1	46
580.545	1	36
580.715	1	37
580.885	1	46
581.055	1	47
581.225	1	45
581.394	1	50
581.564	1	46
581.734	1	51
581.904	1	44
582.074	1	47
582.244	1	41
582.414	1	35
582.583	1	42
582.753	1	46
582.923	1	49
583.093	1	43
583.263	1	43
583.433	1	45
583.603	1	34
583.772	1	42
583.942	1	53
584.112	1	38
584.282	1	30
584.452	1	42
584.622	1	42
584.791	1	41
584.961	1	44
585.131	1	59
585.301	1	44
585.471	1	47
585.641	1	38
585.811	1	34
585.980	1	47
586.150	1	35
586.320	1	40
586.490	1	41
586.660	1	35
586.830	1	26
586.999	1	41
587.169	1	48
587.339	1	35
587.509	1	33
587.679	1	44
587.849	1	37
588.018	1	33
588.188	1	33
588.358	1	48
588.528	1	30
588.698	1	31
588.867	1	32
589.037	1	39
589.207	1	36
589.377	1	33
589.547	1	41
589.717	1	36
589.886	1	41
590.056	1	35
590.226	1	34
590.396	1	39
590.566	1	40
590.735	1	33
590.905	1	33
591.075	1	31
591.245	1	28
591.415	1	32
591.585	1	29
591.754	1	44
591.924	1	25
592.094	1	41
592.264	1	23
592.434	1	30
592.603	1	39
592.773	1	46
592.943	1	30
593.113	1	26
593.283	1	40
593.452	1	34
593.622	1	10
593.792	1	37
593.962	1	34
594.132	1	36
594.301	1	36
594.471	1	33
594.641	1	33
594.811	1	20
594.981	1	38
595.150	1	31
595.320	1	17
595.490	1	22
595.660	1	33
595.829	1	26
595.999	1	27
596.169	1	37
596.339	1	28
596.509	1	22
596.678	1	27
596.848	1	26
597.018	1	26
597.188	1	22
597.358	1	21
597.527	1	28
597.697	1	34
597.867	1	35
598.037	1	28
598.206	1	32
598.376	1	27
598.546	1	35
598.716	1	37
598.885	1	41
599.055	1	26
599.225	1	38
599.395	1	22
599.565	1	31
599.734	1	34
599.904	1	25
600.074	1	36
600.244	1	27
600.413	1	24
600.583	1	34
600.753	1	27
600.923	1	41
601.092	1	31
601.262	1	21
601.432	1	27
601.602	1	31
601.771	1	21
601.941	1	29
602.111	1	31
602.281	1	27
602.451	1	42
602.620	1	24
602.790	1	38
602.960	1	23
603.130	1	22
603.299	1	35
603.469	1	33
603.639	1	36
603.809	1	24
603.978	1	29
604.148	1	28
604.318	1	22
604.487	1	45
604.657	1	28
604.827	1	18
604.997	1	24
605.166	1	28
605.336	1	27
605.506	1	26
605.676	1	20
605.845	1	28
606.015	1	39
606.185	1	30
606.355	1	33
606.524	1	23
606.694	1	24
606.864	1	26
607.034	1	28
607.203	1	29
607.373	1	30
607.543	1	31
607.712	1	18
607.882	1	16
608.052	1	19
608.222	1	27
608.391	1	29
608.561	1	24
608.731	1	28
608.901	1	20
609.070	1	29
609.240	1	26
609.410	1	20
609.579	1	20
609.749	1	28
609.919	1	14
610.089	1	24
610.258	1	33
610.428	1	31
610.598	1	21
610.767	1	23
610.937	1	20
611.107	1	20
611.277	1	21
611.446	1	15
611.616	1	20
611.786	1	31
611.955	1	29
612.125	1	18
612.295	1	30
612.465	1	26
612.634	1	10
612.804	1	32
612.974	1	24
613.143	1	19
613.313	1	22
613.483	1	23
613.652	1	31
613.822	1	11
613.992	1	24
614.162	1	21
614.331	1	17
614.501	1	15
614.671	1	33
614.840	1	20
615.010	1	31
615.180	1	37
615.349	1	18
615.519	1	13
615.689	1	31
615.858	1	13
616.028	1	12
616.198	1	15
616.368	1	25
616.537	1	23
616.707	1	32
616.877	1	8
617.046	1	6
617.216	1	18
617.386	1	12
617.555	1	7
617.725	1	25
617.895	1	24
618.064	1	7
618.234	1	19
618.404	1	17
618.573	1	16
618.743	1	19
618.913	1	16
619.082	1	30
619.252	1	23
619.422	1	15
619.591	1	22
619.761	1	17
619.931	1	22
620.100	1	15
620.270	1	24
620.440	1	15
620.609	1	15
620.779	1	17
620.949	1	20
621.118	1	20
621.288	1	30
621.458	1	14
621.627	1	23
621.797	1	22
621.967	1	24
622.136	1	12
622.306	1	17
622.476	1	12
622.645	1	19
622.815	1	14
622.985	1	24
623.154	1	21
623.324	1	6
623.494	1	14
623.663	1	26
623.833	1	25
624.002	1	12
624.172	1	13
624.342	1	26
624.511	1	23
624.681	1	19
624.851	1	15
625.020	1	11
625.190	1	15
625.360	1	24
625.529	1	20
625.699	1	18
625.869	1	18
626.038	1	31
626.208	1	24
626.377	1	35
626.547	1	3
626.717	1	21
626.886	1	22
627.056	1	18
627.226	1	16
627.395	1	14
627.565	1	21
627.735	1	3
627.904	1	16
628.074	1	17
628.243	1	16
628.413	1	16
628.583	1	7
628.752	1	9
628.922	1	8
629.091	1	10
629.261	1	20
629.431	1	25
629.600	1	7
629.770	1	12
629.940	1	13
630.109	1	9
630.279	1	21
630.448	1	21
630.618	1	9
630.788	1	23
630.957	1	21
631.127	1	21
631.297	1	7
631.466	1	13
631.636	1	26
631.805	1	33
631.975	1	9
632.145	1	21
632.314	1	12
632.484	1	16
632.653	1	20
632.823	1	16
632.993	1	5
633.162	1	28
633.332	1	20
633.501	1	13
633.671	1	17
633.841	1	9
634.010	1	24
634.180	1	13
634.349	1	0
634.519	1	17
634.689	1	13
634.858	1	13
635.028	1	15
635.197	1	15
635.367	1	12
635.537	1	18
635.706	1	15
635.876	1	16
636.045	1	19
636.215	1	11
636.384	1	13
636.554	1	3
636.724	1	24
636.893	1	20
637.063	1	25
637.232	1	11
637.402	1	25
637.572	1	14
637.741	1	8
637.911	1	10
638.080	1	19
638.250	1	17
638.419	1	8
638.589	1	26
638.759	1	21
638.928	1	12
639.098	1	10
639.267	1	20
639.437	1	0
639.606	1	12
639.776	1	21
639.946	1	19
640.115	1	19
640.285	1	2
640.454	1	15
640.624	1	19
640.793	1	14
640.963	1	-2
641.132	1	18
641.302	1	12
641.472	1	12
641.641	1	24
641.811	1	19
641.980	1	10
642.150	1	6
642.319	1	24
642.489	1	8
642.659	1	14
642.828	1	9
642.998	1	25
643.167	1	8
643.337	1	16
643.506	1	13
643.676	1	22
643.845	1	20
644.015	1	16
644.184	1	22
644.354	1	18
644.524	1	21
644.693	1	11
644.863	1	1
645.032	1	7
645.202	1	18
645.371	1	5
645.541	1	13
645.710	1	17
645.880	1	17
646.049	1	31
646.219	1	25
646.388	1	9
646.558	1	13
646.728	1	17
646.897	1	16
647.067	1	10
647.236	1	13
647.406	1	25
647.575	1	12
647.745	1	12
647.914	1	9
648.084	1	16
648.253	1	9
648.423	1	21
648.592	1	16
648.762	1	15
648.931	1	15
649.101	1	12
649.270	1	7
649.440	1	5
649.610	1	19
649.779	1	7
649.949	1	12
650.118	1	10
650.288	1	16
650.457	1	13
650.627	1	1
650.796	1	27
650.966	1	8
651.135	1	9
651.305	1	3
651.474	1	18
651.644	1	10
651.813	1	14
651.983	1	24
652.152	1	-5
652.322	1	19
652.491	1	13
652.661	1	18
652.830	1	8
653.000	1	9
653.169	1	11
653.339	1	18
653.508	1	21
653.678	1	8
653.847	1	8
654.017	1	16
654.186	1	23
654.356	1	12
654.525	1	17
654.695	1	16
654.864	1	22
655.034	1	20
655.203	1	20
655.373	1	14
655.542	1	3
655.712	1	7
655.881	1	10
656.051	1	10
656.220	1	7
656.390	1	16
656.559	1	6
656.729	1	15
656.898	1	14
657.068	1	10
657.237	1	14
657.406	1	10
657.576	1	13
657.745	1	17
657.915	1	5
658.084	1	6
658.254	1	22
658.423	1	12
658.593	1	7
658.762	1	8
658.932	1	8
659.101	1	10
659.271	1	13
659.440	1	10
659.610	1	18
659.779	1	12
659.949	1	8
660.118	1	11
660.288	1	20
660.457	1	19
660.626	1	13
660.796	1	8
660.965	1	21
661.135	1	2
661.304	1	5
661.474	1	17
661.643	1	23
661.813	1	16
661.982	1	18
662.152	1	13
662.321	1	10
662.491	1	-2
662.660	1	15
662.829	1	1
662.999	1	17
663.168	1	23
663.338	1	20
663.507	1	14
663.677	1	6
663.846	1	7
664.016	1	20
664.185	1	20
664.354	1	3
664.524	1	19
664.693	1	1
664.863	1	17
665.032	1	15
665.202	1	16
665.371	1	16
665.541	1	10
665.710	1	20
665.879	1	13
666.049	1	4
666.218	1	22
666.388	1	11
666.557	1	11
666.727	1	22
666.896	1	10
667.065	1	6
667.235	1	8
667.404	1	14
667.574	1	-2
667.743	1	4
667.913	1	2
668.082	1	16
668.251	1	1
668.421	1	21
668.590	1	2
668.760	1	9
668.929	1	11
669.099	1	15
669.268	1	3
669.437	1	10
669.607	1	16
669.776	1	11
669.946	1	4
670.115	1	11
670.285	1	23
670.454	1	7
670.623	1	7
670.793	1	19
670.962	1	5
671.132	1	9
671.301	1	11
671.470	1	16
671.640	1	13
671.809	1	7
671.979	1	12
672.148	1	11
672.317	1	15
672.487	1	6
672.656	1	16
672.826	1	17
672.995	1	5
673.164	1	12
673.334	1	9
673.503	1	13
673.673	1	13
673.842	1	25
674.011	1	12
674.181	1	14
674.350	1	13
674.520	1	12
674.689	1	16
674.858	1	17
675.028	1	9
675.197	1	16
675.367	1	9
675.536	1	9
675.705	1	25
675.875	1	3
676.044	1	19
676.214	1	9
676.383	1	15
676.552	1	16
676.722	1	17
676.891	1	20
677.060	1	5
677.230	1	17
677.399	1	7
677.569	1	9
677.738	1	14
677.907	1	-1
678.077	1	15
678.246	1	9
678.416	1	3
678.585	1	11
678.754	1	13
678.924	1	21
679.093	1	16
679.262	1	13
679.432	1	7
679.601	1	17
679.771	1	11
679.940	1	18
680.109	1	6
680.279	1	9
680.448	1	15
680.617	1	11
680.787	1	5
680.956	1	4
681.125	1	14
681.295	1	11
681.464	1	16
681.634	1	10
681.803	1	11
681.972	1	5
682.142	1	12
682.311	1	6
682.480	1	16
682.650	1	5
682.819	1	18
682.988	1	11
683.158	1	9
683.327	1	23
683.496	1	18
683.666	1	12
683.835	1	9
684.004	1	12
684.174	1	7
684.343	1	22
684.512	1	0
684.682	1	13
684.851	1	1
685.021	1	7
685.190	1	3
685.359	1	7
685.529	1	20
685.698	1	1
685.867	1	13
686.037	1	8
686.206	1	21
686.375	1	18
686.545	1	20
686.714	1	13
686.883	1	17
687.053	1	7
687.222	1	12
687.391	1	14
687.561	1	10
687.730	1	23
687.899	1	7
688.069	1	9
688.238	1	12
688.407	1	9
688.577	1	28
688.746	1	1
