340.368	1	-2
340.539	1	4
340.710	1	-12
340.881	1	5
341.052	1	5
341.223	1	-7
341.394	1	5
341.565	1	0
341.737	1	-1
341.908	1	3
342.079	1	3
342.250	1	0
342.421	1	-1
342.592	1	-6
342.763	1	8
342.934	1	-3
343.105	1	20
343.276	1	5
343.447	1	-4
343.618	1	-2
343.789	1	6
343.960	1	-3
344.131	1	-10
344.302	1	-5
344.473	1	6
344.644	1	8
344.815	1	14
344.986	1	3
345.157	1	-3
345.328	1	5
345.499	1	-3
345.670	1	19
345.841	1	0
346.012	1	7
346.183	1	5
346.354	1	-5
346.526	1	3
346.697	1	9
346.868	1	7
347.039	1	-6
347.210	1	-5
347.381	1	-8
347.552	1	9
347.723	1	9
347.894	1	4
348.065	1	-8
348.236	1	1
348.407	1	-5
348.578	1	3
348.749	1	-2
348.920	1	-2
349.091	1	7
349.262	1	-7
349.433	1	6
349.604	1	6
349.775	1	10
349.946	1	9
350.117	1	6
350.288	1	-6
350.459	1	0
350.630	1	11
350.801	1	-1
350.972	1	-9
351.143	1	-3
351.314	1	10
351.485	1	0
351.656	1	0
351.827	1	5
351.998	1	4
352.169	1	1
352.340	1	11
352.511	1	10
352.682	1	8
352.853	1	3
353.024	1	-1
353.195	1	16
353.366	1	8
353.537	1	5
353.708	1	10
353.879	1	6
354.050	1	-3
354.221	1	-5
354.392	1	4
354.563	1	-6
354.734	1	-4
354.905	1	7
355.076	1	1
355.247	1	6
355.418	1	0
355.589	1	3
355.760	1	-1
355.931	1	3
356.102	1	8
356.273	1	-1
356.444	1	-9
356.615	1	2
356.785	1	10
356.956	1	15
357.127	1	0
357.298	1	8
357.469	1	4
357.640	1	5
357.811	1	9
357.982	1	-6
358.153	1	15
358.324	1	8
358.495	1	6
358.666	1	7
358.837	1	11
359.008	1	1
359.179	1	3
359.350	1	19
359.521	1	16
359.692	1	9
359.863	1	8
360.034	1	2
360.205	1	14
360.376	1	6
360.547	1	16
360.718	1	8
360.889	1	10
361.060	1	8
361.231	1	4
361.401	1	2
361.572	1	18
361.743	1	17
361.914	1	10
362.085	1	5
362.256	1	9
362.427	1	7
362.598	1	12
362.769	1	-1
362.940	1	29
363.111	1	22
363.282	1	15
363.453	1	13
363.624	1	13
363.795	1	15
363.966	1	17
364.137	1	21
364.308	1	28
364.478	1	16
364.649	1	9
364.820	1	25
364.991	1	19
365.162	1	32
365.333	1	20
365.504	1	18
365.675	1	20
365.846	1	11
366.017	1	10
366.188	1	20
366.359	1	27
366.530	1	34
366.701	1	22
366.871	1	35
367.042	1	25
367.213	1	17
367.384	1	38
367.555	1	38
367.726	1	44
367.897	1	25
368.068	1	38
368.239	1	40
368.410	1	29
368.581	1	41
368.752	1	30
368.923	1	25
369.093	1	18
369.264	1	31
369.435	1	22
369.606	1	36
369.777	1	37
369.948	1	34
370.119	1	37
370.290	1	36
370.461	1	35
370.632	1	26
370.803	1	27
370.973	1	29
371.144	1	33
371.315	1	30
371.486	1	14
371.657	1	16
371.828	1	39
371.999	1	25
372.170	1	24
372.341	1	33
372.512	1	17
372.682	1	16
372.853	1	28
373.024	1	18
373.195	1	14
373.366	1	27
373.537	1	27
373.708	1	20
373.879	1	14
374.050	1	16
374.220	1	22
374.391	1	10
374.562	1	15
374.733	1	13
374.904	1	20
375.075	1	6
375.246	1	11
375.417	1	29
375.588	1	10
375.758	1	15
375.929	1	14
376.100	1	21
376.271	1	18
376.442	1	24
376.613	1	15
376.784	1	2
376.955	1	22
377.125	1	20
377.296	1	5
377.467	1	5
377.638	1	14
377.809	1	19
377.980	1	0
378.151	1	15
378.321	1	16
378.492	1	3
378.663	1	16
378.834	1	10
379.005	1	9
379.176	1	6
379.347	1	9
379.518	1	10
379.688	1	8
379.859	1	6
380.030	1	14
380.201	1	0
380.372	1	11
380.543	1	13
380.714	1	16
380.884	1	1
381.055	1	16
381.226	1	11
381.397	1	12
381.568	1	11
381.739	1	1
381.910	1	13
382.080	1	4
382.251	1	11
382.422	1	-2
382.593	1	18
382.764	1	16
382.935	1	8
383.105	1	7
383.276	1	15
383.447	1	5
383.618	1	8
383.789	1	18
383.960	1	12
384.130	1	9
384.301	1	6
384.472	1	8
384.643	1	3
384.814	1	3
384.985	1	6
385.156	1	6
385.326	1	12
385.497	1	12
385.668	1	11
385.839	1	7
386.010	1	4
386.180	1	10
386.351	1	9
386.522	1	9
386.693	1	5
386.864	1	8
387.035	1	9
387.205	1	-1
387.376	1	-1
387.547	1	10
387.718	1	-4
387.889	1	15
388.060	1	9
388.230	1	-2
388.401	1	-5
388.572	1	8
388.743	1	12
388.914	1	-5
389.084	1	9
389.255	1	6
389.426	1	7
389.597	1	2
389.768	1	8
389.939	1	-2
390.109	1	2
390.280	1	2
390.451	1	7
390.622	1	3
390.793	1	2
390.963	1	0
391.134	1	6
391.305	1	1
391.476	1	11
391.647	1	0
391.817	1	11
391.988	1	10
392.159	1	4
392.330	1	10
392.501	1	9
392.671	1	3
392.842	1	2
393.013	1	0
393.184	1	1
393.355	1	11
393.525	1	6
393.696	1	11
393.867	1	8
394.038	1	2
394.208	1	9
394.379	1	-4
394.550	1	10
394.721	1	8
394.892	1	7
395.062	1	1
395.233	1	1
395.404	1	18
395.575	1	10
395.746	1	9
395.916	1	0
396.087	1	-3
396.258	1	4
396.429	1	2
396.599	1	-4
396.770	1	16
396.941	1	9
397.112	1	6
397.283	1	-5
397.453	1	15
397.624	1	3
397.795	1	7
397.966	1	3
398.136	1	11
398.307	1	4
398.478	1	6
398.649	1	12
398.819	1	2
398.990	1	3
399.161	1	7
399.332	1	-4
399.503	1	10
399.673	1	5
399.844	1	2
400.015	1	5
400.186	1	-2
400.356	1	-7
400.527	1	14
400.698	1	-8
400.869	1	2
401.039	1	6
401.210	1	6
401.381	1	7
401.552	1	-1
401.722	1	4
401.893	1	6
402.064	1	2
402.235	1	2
402.405	1	-5
402.576	1	-2
402.747	1	2
402.918	1	2
403.088	1	7
403.259	1	12
403.430	1	4
403.601	1	16
403.771	1	6
403.942	1	6
404.113	1	0
404.284	1	-8
404.454	1	9
404.625	1	4
404.796	1	0
404.967	1	-2
405.137	1	19
405.308	1	7
405.479	1	3
405.649	1	3
405.820	1	9
405.991	1	2
406.162	1	-3
406.332	1	-11
406.503	1	-2
406.674	1	-10
406.845	1	12
407.015	1	6
407.186	1	6
407.357	1	-6
407.527	1	-1
407.698	1	0
407.869	1	2
408.040	1	-5
408.210	1	8
408.381	1	4
408.552	1	8
408.722	1	-6
408.893	1	8
409.064	1	4
409.235	1	-7
409.405	1	1
409.576	1	10
409.747	1	2
409.917	1	3
410.088	1	9
410.259	1	3
410.430	1	0
410.600	1	5
410.771	1	3
410.942	1	4
411.112	1	5
411.283	1	-2
411.454	1	5
411.625	1	-9
411.795	1	12
411.966	1	7
412.137	1	-9
412.307	1	6
412.478	1	-1
412.649	1	5
412.819	1	-1
412.990	1	0
413.161	1	8
413.332	1	1
413.502	1	-3
413.673	1	2
413.844	1	8
414.014	1	6
414.185	1	-2
414.356	1	-6
414.526	1	4
414.697	1	1
414.868	1	5
415.038	1	-7
415.209	1	-10
415.380	1	4
415.550	1	4
415.721	1	6
415.892	1	5
416.063	1	1
416.233	1	-1
416.404	1	5
416.575	1	-3
416.745	1	4
416.916	1	-6
417.087	1	6
417.257	1	-6
417.428	1	-1
417.599	1	-2
417.769	1	14
417.940	1	3
418.111	1	11
418.281	1	-15
418.452	1	5
418.623	1	-3
418.793	1	1
418.964	1	-4
419.135	1	11
419.305	1	1
419.476	1	-5
419.647	1	9
419.817	1	-7
419.988	1	6
420.159	1	5
420.329	1	8
420.500	1	1
420.671	1	-8
420.841	1	-1
421.012	1	-4
421.183	1	-1
421.353	1	4
421.524	1	5
421.695	1	-5
421.865	1	2
422.036	1	6
422.206	1	3
422.377	1	6
422.548	1	8
422.718	1	6
422.889	1	2
423.060	1	-5
423.230	1	8
423.401	1	4
423.572	1	5
423.742	1	1
423.913	1	-9
424.084	1	19
424.254	1	3
424.425	1	-6
424.595	1	6
424.766	1	-2
424.937	1	-1
425.107	1	3
425.278	1	2
425.449	1	14
425.619	1	-9
425.790	1	2
425.961	1	4
426.131	1	3
426.302	1	-7
426.472	1	3
426.643	1	1
426.814	1	-3
426.984	1	7
427.155	1	19
427.326	1	0
427.496	1	-4
427.667	1	5
427.837	1	7
428.008	1	12
428.179	1	9
428.349	1	-4
428.520	1	7
428.691	1	1
428.861	1	-1
429.032	1	-3
429.202	1	-6
429.373	1	8
429.544	1	2
429.714	1	1
429.885	1	0
430.055	1	0
430.226	1	8
430.397	1	-2
430.567	1	-3
430.738	1	-4
430.909	1	6
431.079	1	-3
431.250	1	10
431.420	1	-7
431.591	1	11
431.762	1	0
431.932	1	-8
432.103	1	-4
432.273	1	5
432.444	1	-3
432.615	1	-2
432.785	1	0
432.956	1	5
433.126	1	2
433.297	1	-3
433.468	1	9
433.638	1	9
433.809	1	0
433.979	1	2
434.150	1	8
434.320	1	5
434.491	1	-8
434.662	1	-11
434.832	1	6
435.003	1	13
435.173	1	8
435.344	1	1
435.515	1	2
435.685	1	-4
435.856	1	5
436.026	1	-8
436.197	1	-3
436.368	1	11
436.538	1	8
436.709	1	3
436.879	1	7
437.050	1	-3
437.220	1	-1
437.391	1	-8
437.562	1	6
437.732	1	7
437.903	1	6
438.073	1	-3
438.244	1	-6
438.414	1	-2
438.585	1	0
438.756	1	5
438.926	1	5
439.097	1	-3
439.267	1	-4
439.438	1	6
439.608	1	7
439.779	1	8
439.949	1	18
440.120	1	-2
440.291	1	9
440.461	1	16
440.632	1	-6
440.802	1	8
440.973	1	0
441.143	1	2
441.314	1	-5
441.485	1	-4
441.655	1	-1
441.826	1	6
441.996	1	-7
442.167	1	1
442.337	1	-10
442.508	1	6
442.678	1	5
442.849	1	1
443.019	1	-7
443.190	1	5
443.361	1	3
443.531	1	6
443.702	1	2
443.872	1	-6
444.043	1	-2
444.213	1	7
444.384	1	4
444.554	1	1
444.725	1	-7
444.895	1	-15
445.066	1	9
445.237	1	-9
445.407	1	5
445.578	1	10
445.748	1	13
445.919	1	6
446.089	1	3
446.260	1	7
446.430	1	-4
446.601	1	4
446.771	1	-14
446.942	1	-2
447.112	1	1
447.283	1	4
447.453	1	9
447.624	1	-7
447.794	1	9
447.965	1	0
448.135	1	9
448.306	1	0
448.477	1	12
448.647	1	-4
448.818	1	9
448.988	1	5
449.159	1	3
449.329	1	3
449.500	1	2
449.670	1	-9
449.841	1	-5
450.011	1	9
450.182	1	11
450.352	1	-4
450.523	1	14
450.693	1	-9
450.864	1	8
451.034	1	-6
451.205	1	-3
451.375	1	5
451.546	1	-7
451.716	1	-1
451.887	1	-2
452.057	1	-2
452.228	1	2
452.398	1	3
452.569	1	9
452.739	1	10
452.910	1	4
453.080	1	5
453.251	1	4
453.421	1	8
453.592	1	-8
453.762	1	3
453.933	1	2
454.103	1	-7
454.274	1	10
454.444	1	0
454.615	1	4
454.785	1	-6
454.956	1	-2
455.126	1	10
455.297	1	-6
455.467	1	-9
455.638	1	0
455.808	1	9
455.979	1	10
456.149	1	-1
456.320	1	5
456.490	1	3
456.661	1	-1
456.831	1	0
457.001	1	10
457.172	1	-10
457.342	1	-1
457.513	1	1
457.683	1	3
457.854	1	6
458.024	1	17
458.195	1	3
458.365	1	-2
458.536	1	-3
458.706	1	7
458.877	1	9
459.047	1	-1
459.218	1	-1
459.388	1	2
459.559	1	-2
459.729	1	7
459.899	1	11
460.070	1	1
460.240	1	4
460.411	1	4
460.581	1	7
460.752	1	8
460.922	1	0
461.093	1	9
461.263	1	0
461.434	1	-5
461.604	1	6
461.775	1	6
461.945	1	1
462.115	1	6
462.286	1	-5
462.456	1	-5
462.627	1	9
462.797	1	1
462.968	1	1
463.138	1	2
463.309	1	3
463.479	1	-6
463.649	1	8
463.820	1	9
463.990	1	-2
464.161	1	2
464.331	1	4
464.502	1	2
464.672	1	-6
464.843	1	-4
465.013	1	10
465.183	1	13
465.354	1	-8
465.524	1	10
465.695	1	11
465.865	1	3
466.036	1	-2
466.206	1	8
466.376	1	-3
466.547	1	0
466.717	1	0
466.888	1	2
467.058	1	5
467.229	1	-2
467.399	1	9
467.569	1	2
467.740	1	7
467.910	1	-9
468.081	1	6
468.251	1	-5
468.422	1	8
468.592	1	1
468.762	1	3
468.933	1	-5
469.103	1	3
469.274	1	-3
469.444	1	6
469.614	1	-1
469.785	1	-6
469.955	1	6
470.126	1	5
470.296	1	6
470.467	1	6
470.637	1	-4
470.807	1	-5
470.978	1	0
471.148	1	-2
471.319	1	9
471.489	1	4
471.659	1	-4
471.830	1	3
472.000	1	1
472.171	1	9
472.341	1	9
472.511	1	8
472.682	1	-3
472.852	1	6
473.023	1	5
473.193	1	8
473.363	1	-2
473.534	1	4
473.704	1	10
473.875	1	-5
474.045	1	3
474.215	1	11
474.386	1	-8
474.556	1	2
474.727	1	3
474.897	1	8
475.067	1	-5
475.238	1	-2
475.408	1	-2
475.578	1	2
475.749	1	2
475.919	1	2
476.090	1	0
476.260	1	9
476.430	1	-5
476.601	1	7
476.771	1	12
476.942	1	-11
477.112	1	-3
477.282	1	10
477.453	1	5
477.623	1	3
477.793	1	1
477.964	1	6
478.134	1	1
478.305	1	1
478.475	1	5
478.645	1	5
478.816	1	-5
478.986	1	4
479.156	1	9
479.327	1	-10
479.497	1	-7
479.667	1	-7
479.838	1	6
480.008	1	8
480.179	1	-1
480.349	1	7
480.519	1	3
480.690	1	2
480.860	1	-3
481.030	1	3
481.201	1	5
481.371	1	1
481.541	1	10
481.712	1	2
481.882	1	0
482.053	1	-6
482.223	1	0
482.393	1	-2
482.564	1	-1
482.734	1	3
482.904	1	2
483.075	1	-4
483.245	1	0
483.415	1	4
483.586	1	4
483.756	1	3
483.926	1	-1
484.097	1	-10
484.267	1	5
484.437	1	-1
484.608	1	6
484.778	1	-4
484.948	1	2
485.119	1	14
485.289	1	6
485.459	1	-1
485.630	1	9
485.800	1	-4
485.970	1	13
486.141	1	10
486.311	1	0
486.481	1	5
486.652	1	6
486.822	1	3
486.992	1	3
487.163	1	16
487.333	1	-6
487.503	1	5
487.674	1	2
487.844	1	5
488.014	1	3
488.185	1	0
488.355	1	-6
488.525	1	9
488.696	1	6
488.866	1	4
489.036	1	5
489.207	1	8
489.377	1	2
489.547	1	3
489.718	1	8
489.888	1	-2
490.058	1	2
490.228	1	-9
490.399	1	4
490.569	1	9
490.739	1	-3
490.910	1	3
491.080	1	5
491.250	1	10
491.421	1	3
491.591	1	-3
491.761	1	-2
491.932	1	6
492.102	1	1
492.272	1	16
492.442	1	3
492.613	1	-2
492.783	1	2
492.953	1	7
493.124	1	3
493.294	1	3
493.464	1	-1
493.635	1	4
493.805	1	0
493.975	1	3
494.145	1	12
494.316	1	-5
494.486	1	7
494.656	1	2
494.827	1	8
494.997	1	7
495.167	1	-2
495.337	1	13
495.508	1	5
495.678	1	-1
495.848	1	-9
496.019	1	-6
496.189	1	-7
496.359	1	-1
496.529	1	8
496.700	1	15
496.870	1	5
497.040	1	-4
497.211	1	2
497.381	1	7
497.551	1	8
497.721	1	1
497.892	1	3
498.062	1	5
498.232	1	4
498.403	1	13
498.573	1	-13
498.743	1	7
498.913	1	4
499.084	1	5
499.254	1	3
499.424	1	8
499.594	1	5
499.765	1	-13
499.935	1	12
500.105	1	-7
500.275	1	2
500.446	1	6
500.616	1	-1
500.786	1	4
500.956	1	6
501.127	1	7
501.297	1	9
501.467	1	-1
501.638	1	-8
501.808	1	-1
501.978	1	1
502.148	1	13
502.319	1	12
502.489	1	3
502.659	1	3
502.829	1	-4
503.000	1	8
503.170	1	4
503.340	1	5
503.510	1	7
503.681	1	13
503.851	1	-1
504.021	1	6
504.191	1	0
504.362	1	8
504.532	1	-14
504.702	1	-3
504.872	1	6
505.042	1	7
505.213	1	-1
505.383	1	9
505.553	1	-1
505.723	1	8
505.894	1	9
506.064	1	3
506.234	1	1
506.404	1	3
506.575	1	2
506.745	1	14
506.915	1	10
507.085	1	0
507.256	1	0
507.426	1	7
507.596	1	12
507.766	1	7
507.936	1	13
508.107	1	1
508.277	1	-1
508.447	1	8
508.617	1	11
508.788	1	3
508.958	1	2
509.128	1	-3
509.298	1	1
509.468	1	7
509.639	1	5
509.809	1	12
509.979	1	10
510.149	1	7
510.319	1	-1
510.490	1	5
510.660	1	-4
510.830	1	5
511.000	1	1
511.171	1	7
511.341	1	11
511.511	1	7
511.681	1	-4
511.851	1	4
512.022	1	15
512.192	1	14
512.362	1	-1
512.532	1	2
512.702	1	-1
512.873	1	8
513.043	1	11
513.213	1	-4
513.383	1	9
513.553	1	11
513.724	1	-5
513.894	1	-2
514.064	1	22
514.234	1	3
514.404	1	-6
514.575	1	0
514.745	1	-3
514.915	1	3
515.085	1	11
515.255	1	0
515.425	1	1
515.596	1	6
515.766	1	3
515.936	1	7
516.106	1	13
516.276	1	5
516.447	1	9
516.617	1	6
516.787	1	3
516.957	1	-5
517.127	1	3
517.297	1	14
517.468	1	7
517.638	1	0
517.808	1	13
517.978	1	8
518.148	1	6
518.319	1	-3
518.489	1	17
518.659	1	9
518.829	1	0
518.999	1	16
519.169	1	0
519.340	1	11
519.510	1	6
519.680	1	5
519.850	1	5
520.020	1	5
520.190	1	1
520.361	1	1
520.531	1	5
520.701	1	6
520.871	1	-9
521.041	1	6
521.211	1	0
521.382	1	2
521.552	1	4
521.722	1	0
521.892	1	3
522.062	1	0
522.232	1	-4
522.402	1	3
522.573	1	10
522.743	1	10
522.913	1	8
523.083	1	-2
523.253	1	18
523.423	1	-3
523.593	1	3
523.764	1	4
523.934	1	0
524.104	1	14
524.274	1	-2
524.444	1	-5
524.614	1	5
524.784	1	12
524.955	1	11
525.125	1	15
525.295	1	2
525.465	1	7
525.635	1	9
525.805	1	12
525.975	1	-1
526.146	1	7
526.316	1	6
526.486	1	9
526.656	1	9
526.826	1	4
526.996	1	12
527.166	1	7
527.337	1	0
527.507	1	-5
527.677	1	-6
527.847	1	10
528.017	1	9
528.187	1	6
528.357	1	3
528.527	1	5
528.698	1	0
528.868	1	1
529.038	1	6
529.208	1	15
529.378	1	10
529.548	1	8
529.718	1	18
529.888	1	3
530.058	1	15
530.229	1	13
530.399	1	8
530.569	1	10
530.739	1	11
530.909	1	-1
531.079	1	8
531.249	1	1
531.419	1	14
531.589	1	3
531.760	1	1
531.930	1	14
532.100	1	3
532.270	1	6
532.440	1	4
532.610	1	6
532.780	1	-4
532.950	1	-15
533.120	1	5
533.290	1	16
533.461	1	4
533.631	1	2
533.801	1	12
533.971	1	8
534.141	1	-4
534.311	1	-7
534.481	1	7
534.651	1	7
534.821	1	8
534.991	1	2
535.162	1	12
535.332	1	7
535.502	1	12
535.672	1	7
535.842	1	8
536.012	1	-5
536.182	1	6
536.352	1	3
536.522	1	8
536.692	1	10
536.862	1	11
537.032	1	4
537.203	1	7
537.373	1	2
537.543	1	1
537.713	1	11
537.883	1	10
538.053	1	15
538.223	1	11
538.393	1	13
538.563	1	9
538.733	1	-1
538.903	1	8
539.073	1	7
539.243	1	-2
539.413	1	7
539.584	1	8
539.754	1	-3
539.924	1	-9
540.094	1	8
540.264	1	14
540.434	1	11
540.604	1	4
540.774	1	3
540.944	1	14
541.114	1	8
541.284	1	4
541.454	1	4
541.624	1	-9
541.794	1	8
541.964	1	11
542.134	1	12
542.305	1	6
542.475	1	4
542.645	1	2
542.815	1	7
542.985	1	13
543.155	1	8
543.325	1	0
543.495	1	-3
543.665	1	-4
543.835	1	3
544.005	1	16
544.175	1	4
544.345	1	7
544.515	1	-1
544.685	1	6
544.855	1	-3
545.025	1	-1
545.195	1	1
545.365	1	-1
545.535	1	-5
545.705	1	7
545.875	1	6
546.045	1	10
546.216	1	9
546.386	1	9
546.556	1	2
546.726	1	3
546.896	1	16
547.066	1	12
547.236	1	15
547.406	1	15
547.576	1	8
547.746	1	-6
547.916	1	2
548.086	1	8
548.256	1	17
548.426	1	10
548.596	1	-8
548.766	1	15
548.936	1	0
549.106	1	17
549.276	1	10
549.446	1	8
549.616	1	16
549.786	1	1
549.956	1	2
550.126	1	7
550.296	1	4
550.466	1	8
550.636	1	-4
550.806	1	5
550.976	1	2
551.146	1	8
551.316	1	7
551.486	1	0
551.656	1	5
551.826	1	8
551.996	1	5
552.166	1	1
552.336	1	7
552.506	1	4
552.676	1	8
552.846	1	5
553.016	1	8
553.186	1	0
553.356	1	15
553.526	1	-8
553.696	1	11
553.866	1	-4
554.036	1	6
554.206	1	11
554.376	1	10
554.546	1	-13
554.716	1	14
554.886	1	10
555.056	1	10
555.226	1	-4
555.396	1	11
555.566	1	-1
555.736	1	-4
555.906	1	-11
556.076	1	13
556.246	1	13
556.416	1	10
556.586	1	-6
556.756	1	6
556.926	1	10
557.096	1	4
557.266	1	11
557.436	1	-11
557.606	1	12
557.776	1	1
557.946	1	8
558.116	1	7
558.286	1	7
558.456	1	-10
558.626	1	16
558.796	1	-2
558.966	1	7
559.136	1	11
559.306	1	10
559.476	1	3
559.646	1	0
559.816	1	7
559.986	1	10
560.155	1	10
560.325	1	11
560.495	1	-8
560.665	1	-8
560.835	1	-2
561.005	1	2
561.175	1	-3
561.345	1	-4
561.515	1	2
561.685	1	1
561.855	1	4
562.025	1	-9
562.195	1	8
562.365	1	9
562.535	1	4
562.705	1	5
562.875	1	1
563.045	1	2
563.215	1	-3
563.385	1	7
563.555	1	5
563.725	1	-4
563.895	1	12
564.064	1	6
564.234	1	6
564.404	1	6
564.574	1	-1
564.744	1	4
564.914	1	-1
565.084	1	1
565.254	1	1
565.424	1	5
565.594	1	11
565.764	1	5
565.934	1	9
566.104	1	4
566.274	1	2
566.444	1	11
566.614	1	-7
566.783	1	1
566.953	1	-1
567.123	1	7
567.293	1	2
567.463	1	-2
567.633	1	9
567.803	1	10
567.973	1	-2
568.143	1	3
568.313	1	-1
568.483	1	5
568.653	1	0
568.823	1	0
568.993	1	6
569.162	1	5
569.332	1	15
569.502	1	5
569.672	1	-1
569.842	1	2
570.012	1	7
570.182	1	1
570.352	1	-5
570.522	1	1
570.692	1	12
570.862	1	3
571.031	1	7
571.201	1	3
571.371	1	9
571.541	1	-2
571.711	1	-2
571.881	1	2
572.051	1	-2
572.221	1	3
572.391	1	9
572.561	1	6
572.731	1	7
572.900	1	1
573.070	1	3
573.240	1	2
573.410	1	4
573.580	1	7
573.750	1	11
573.920	1	8
574.090	1	-4
574.260	1	5
574.430	1	11
574.599	1	-12
574.769	1	-5
574.939	1	-1
575.109	1	4
575.279	1	4
575.449	1	11
575.619	1	16
575.789	1	3
575.959	1	-11
576.128	1	-2
576.298	1	6
576.468	1	1
576.638	1	11
576.808	1	5
576.978	1	4
577.148	1	5
577.318	1	2
577.487	1	5
577.657	1	7
577.827	1	-8
577.997	1	-4
578.167	1	-5
578.337	1	4
578.507	1	17
578.677	1	11
578.846	1	4
579.016	1	6
579.186	1	-10
579.356	1	10
579.526	1	1
579.696	1	-4
579.866	1	1
580.036	1	8
580.205	1	2
580.375	1	1
580.545	1	0
580.715	1	15
580.885	1	-10
581.055	1	6
581.225	1	6
581.394	1	1
581.564	1	-3
581.734	1	5
581.904	1	5
582.074	1	2
582.244	1	4
582.414	1	0
582.583	1	0
582.753	1	2
582.923	1	4
583.093	1	0
583.263	1	5
583.433	1	9
583.603	1	-2
583.772	1	8
583.942	1	12
584.112	1	5
584.282	1	-4
584.452	1	-1
584.622	1	13
584.791	1	6
584.961	1	4
585.131	1	10
585.301	1	2
585.471	1	6
585.641	1	1
585.811	1	-13
585.980	1	-10
586.150	1	6
586.320	1	11
586.490	1	1
586.660	1	9
586.830	1	5
586.999	1	3
587.169	1	15
587.339	1	3
587.509	1	6
587.679	1	4
587.849	1	-4
588.018	1	1
588.188	1	-5
588.358	1	18
588.528	1	1
588.698	1	7
588.867	1	3
589.037	1	-8
589.207	1	-4
589.377	1	-9
589.547	1	2
589.717	1	13
589.886	1	-7
590.056	1	3
590.226	1	2
590.396	1	7
590.566	1	0
590.735	1	0
590.905	1	9
591.075	1	12
591.245	1	-2
591.415	1	2
591.585	1	8
591.754	1	5
591.924	1	2
592.094	1	2
592.264	1	-8
592.434	1	6
592.603	1	-6
592.773	1	13
592.943	1	4
593.113	1	14
593.283	1	3
593.452	1	3
593.622	1	-9
593.792	1	5
593.962	1	-1
594.132	1	12
594.301	1	10
594.471	1	4
594.641	1	2
594.811	1	-6
594.981	1	12
595.150	1	4
595.320	1	9
595.490	1	2
595.660	1	5
595.829	1	-6
595.999	1	5
596.169	1	9
596.339	1	-4
596.509	1	8
596.678	1	-5
596.848	1	2
597.018	1	7
597.188	1	-2
597.358	1	-1
597.527	1	8
597.697	1	0
597.867	1	14
598.037	1	-2
598.206	1	1
598.376	1	-6
598.546	1	8
598.716	1	9
598.885	1	8
599.055	1	8
599.225	1	-1
599.395	1	-2
599.565	1	-1
599.734	1	15
599.904	1	9
600.074	1	0
600.244	1	0
600.413	1	2
600.583	1	10
600.753	1	9
600.923	1	8
601.092	1	-4
601.262	1	-2
601.432	1	-7
601.602	1	0
601.771	1	9
601.941	1	-1
602.111	1	2
602.281	1	2
602.451	1	13
602.620	1	2
602.790	1	10
602.960	1	2
603.130	1	-6
603.299	1	3
603.469	1	0
603.639	1	7
603.809	1	2
603.978	1	6
604.148	1	5
604.318	1	0
604.487	1	3
604.657	1	8
604.827	1	-10
604.997	1	0
605.166	1	6
605.336	1	-2
605.506	1	0
605.676	1	-1
605.845	1	5
606.015	1	2
606.185	1	2
606.355	1	4
606.524	1	13
606.694	1	-2
606.864	1	3
607.034	1	7
607.203	1	-2
607.373	1	10
607.543	1	8
607.712	1	0
607.882	1	-5
608.052	1	-3
608.222	1	-1
608.391	1	1
608.561	1	10
608.731	1	8
608.901	1	0
609.070	1	-5
609.240	1	-4
609.410	1	-4
609.579	1	9
609.749	1	2
609.919	1	1
610.089	1	2
610.258	1	3
610.428	1	10
610.598	1	8
610.767	1	1
610.937	1	-2
611.107	1	-1
611.277	1	5
611.446	1	-1
611.616	1	2
611.786	1	6
611.955	1	8
612.125	1	3
612.295	1	1
612.465	1	0
612.634	1	6
612.804	1	1
612.974	1	1
613.143	1	-5
613.313	1	0
613.483	1	5
613.652	1	20
613.822	1	2
613.992	1	-1
614.162	1	-1
614.331	1	0
614.501	1	2
614.671	1	14
614.840	1	-4
615.010	1	7
615.180	1	6
615.349	1	15
615.519	1	3
615.689	1	8
615.858	1	1
616.028	1	1
616.198	1	7
616.368	1	9
616.537	1	3
616.707	1	4
616.877	1	-1
617.046	1	1
617.216	1	7
617.386	1	-3
617.555	1	-5
617.725	1	10
617.895	1	2
618.064	1	9
618.234	1	5
618.404	1	2
618.573	1	-4
618.743	1	2
618.913	1	8
619.082	1	2
619.252	1	7
619.422	1	-9
619.591	1	1
619.761	1	-4
619.931	1	0
620.100	1	4
620.270	1	-2
620.440	1	8
620.609	1	6
620.779	1	-4
620.949	1	16
621.118	1	-3
621.288	1	9
621.458	1	3
621.627	1	13
621.797	1	2
621.967	1	-1
622.136	1	4
622.306	1	3
622.476	1	-3
622.645	1	-1
622.815	1	7
622.985	1	4
623.154	1	2
623.324	1	-5
623.494	1	-1
623.663	1	5
623.833	1	2
624.002	1	-4
624.172	1	5
624.342	1	5
624.511	1	5
624.681	1	3
624.851	1	-2
625.020	1	-3
625.190	1	2
625.360	1	2
625.529	1	14
625.699	1	1
625.869	1	9
626.038	1	-2
626.208	1	1
626.377	1	6
626.547	1	-5
626.717	1	-1
626.886	1	0
627.056	1	-2
627.226	1	7
627.395	1	0
627.565	1	6
627.735	1	-7
627.904	1	-3
628.074	1	-1
628.243	1	2
628.413	1	-5
628.583	1	-4
628.752	1	4
628.922	1	-5
629.091	1	-3
629.261	1	0
629.431	1	7
629.600	1	-11
629.770	1	5
629.940	1	0
630.109	1	-8
630.279	1	5
630.448	1	10
630.618	1	-1
630.788	1	3
630.957	1	8
631.127	1	0
631.297	1	-9
631.466	1	11
631.636	1	12
631.805	1	20
631.975	1	-3
632.145	1	6
632.314	1	5
632.484	1	-4
632.653	1	8
632.823	1	-4
632.993	1	0
633.162	1	5
633.332	1	0
633.501	1	1
633.671	1	10
633.841	1	-3
634.010	1	4
634.180	1	0
634.349	1	-9
634.519	1	2
634.689	1	10
634.858	1	6
635.028	1	-2
635.197	1	8
635.367	1	-6
635.537	1	-3
635.706	1	1
635.876	1	3
636.045	1	3
636.215	1	2
636.384	1	-3
636.554	1	-5
636.724	1	7
636.893	1	9
637.063	1	3
637.232	1	-1
637.402	1	10
637.572	1	1
637.741	1	-2
637.911	1	9
638.080	1	8
638.250	1	1
638.419	1	-10
638.589	1	8
638.759	1	6
638.928	1	1
639.098	1	-2
639.267	1	13
639.437	1	-11
639.606	1	0
639.776	1	1
639.946	1	7
640.115	1	1
640.285	1	2
640.454	1	-4
640.624	1	-3
640.793	1	-2
640.963	1	10
641.132	1	-2
641.302	1	1
641.472	1	-1
641.641	1	6
641.811	1	15
641.980	1	-5
642.150	1	5
642.319	1	2
642.489	1	0
642.659	1	-3
642.828	1	3
642.998	1	9
643.167	1	-3
643.337	1	8
643.506	1	2
643.676	1	11
643.845	1	4
644.015	1	6
644.184	1	13
644.354	1	2
644.524	1	4
644.693	1	3
644.863	1	-9
645.032	1	3
645.202	1	9
645.371	1	2
645.541	1	-1
645.710	1	9
645.880	1	12
646.049	1	9
646.219	1	-2
646.388	1	-1
646.558	1	11
646.728	1	3
646.897	1	8
647.067	1	-3
647.236	1	5
647.406	1	6
647.575	1	-1
647.745	1	-2
647.914	1	6
648.084	1	2
648.253	1	0
648.423	1	4
648.592	1	-1
648.762	1	7
648.931	1	10
649.101	1	-1
649.270	1	0
649.440	1	-5
649.610	1	8
649.779	1	1
649.949	1	-10
650.118	1	1
650.288	1	-3
650.457	1	-9
650.627	1	-5
650.796	1	6
650.966	1	13
651.135	1	-2
651.305	1	-2
651.474	1	5
651.644	1	4
651.813	1	5
651.983	1	9
652.152	1	-8
652.322	1	5
652.491	1	8
652.661	1	5
652.830	1	0
653.000	1	-2
653.169	1	-4
653.339	1	2
653.508	1	7
653.678	1	6
653.847	1	7
654.017	1	-2
654.186	1	19
654.356	1	6
654.525	1	0
654.695	1	7
654.864	1	15
655.034	1	4
655.203	1	10
655.373	1	-2
655.542	1	-4
655.712	1	-10
655.881	1	2
656.051	1	2
656.220	1	-3
656.390	1	5
656.559	1	-1
656.729	1	15
656.898	1	-2
657.068	1	2
657.237	1	8
657.406	1	-5
657.576	1	4
657.745	1	13
657.915	1	5
658.084	1	-4
658.254	1	15
658.423	1	2
658.593	1	4
658.762	1	-2
658.932	1	-1
659.101	1	10
659.271	1	6
659.440	1	6
659.610	1	0
659.779	1	0
659.949	1	8
660.118	1	11
660.288	1	4
660.457	1	8
660.626	1	3
660.796	1	8
660.965	1	13
661.135	1	-10
661.304	1	7
661.474	1	2
661.643	1	4
661.813	1	2
661.982	1	14
662.152	1	9
662.321	1	-2
662.491	1	-7
662.660	1	-2
662.829	1	4
662.999	1	6
663.168	1	0
663.338	1	3
663.507	1	5
663.677	1	0
663.846	1	-4
664.016	1	4
664.185	1	3
664.354	1	3
664.524	1	-1
664.693	1	-1
664.863	1	4
665.032	1	-2
665.202	1	15
665.371	1	3
665.541	1	5
665.710	1	14
665.879	1	16
666.049	1	3
666.218	1	10
666.388	1	10
666.557	1	0
666.727	1	5
666.896	1	-1
667.065	1	0
667.235	1	3
667.404	1	14
667.574	1	-5
667.743	1	-3
667.913	1	-4
668.082	1	17
668.251	1	11
668.421	1	9
668.590	1	-4
668.760	1	0
668.929	1	4
669.099	1	11
669.268	1	4
669.437	1	2
669.607	1	-7
669.776	1	2
669.946	1	0
670.115	1	5
670.285	1	11
670.454	1	-6
670.623	1	0
670.793	1	6
670.962	1	-2
671.132	1	7
671.301	1	0
671.470	1	7
671.640	1	4
671.809	1	1
671.979	1	7
672.148	1	-2
672.317	1	5
672.487	1	-2
672.656	1	6
672.826	1	4
672.995	1	-3
673.164	1	3
673.334	1	-4
673.503	1	-1
673.673	1	0
673.842	1	6
674.011	1	7
674.181	1	3
674.350	1	8
674.520	1	7
674.689	1	5
674.858	1	-6
675.028	1	6
675.197	1	6
675.367	1	-2
675.536	1	-2
675.705	1	10
675.875	1	-2
676.044	1	11
676.214	1	-5
676.383	1	-3
676.552	1	11
676.722	1	10
676.891	1	6
677.060	1	-5
677.230	1	10
677.399	1	0
677.569	1	-8
677.738	1	2
677.907	1	2
678.077	1	20
678.246	1	4
678.416	1	-2
678.585	1	8
678.754	1	7
678.924	1	3
679.093	1	3
679.262	1	2
679.432	1	2
679.601	1	6
679.771	1	6
679.940	1	16
680.109	1	2
680.279	1	11
680.448	1	1
680.617	1	1
680.787	1	-11
680.956	1	-9
681.125	1	4
681.295	1	7
681.464	1	-1
681.634	1	-1
681.803	1	2
681.972	1	-4
682.142	1	3
682.311	1	-5
682.480	1	2
682.650	1	-8
682.819	1	12
682.988	1	-2
683.158	1	-7
683.327	1	-1
683.496	1	7
683.666	1	3
683.835	1	-1
684.004	1	5
684.174	1	-1
684.343	1	-1
684.512	1	-1
684.682	1	4
684.851	1	-3
685.021	1	-6
685.190	1	4
685.359	1	1
685.529	1	12
685.698	1	-1
685.867	1	8
686.037	1	-4
686.206	1	4
686.375	1	7
686.545	1	3
686.714	1	1
686.883	1	7
687.053	1	-10
687.222	1	2
687.391	1	-2
687.561	1	2
687.730	1	2
687.899	1	-8
688.069	1	3
688.238	1	2
688.407	1	-6
688.577	1	10
688.746	1	-3
