340.368	1	0
340.539	1	-1
340.710	1	-15
340.881	1	-2
341.052	1	7
341.223	1	-12
341.394	1	2
341.565	1	0
341.737	1	-2
341.908	1	4
342.079	1	-3
342.250	1	-3
342.421	1	7
342.592	1	-4
342.763	1	1
342.934	1	-3
343.105	1	15
343.276	1	-2
343.447	1	-8
343.618	1	8
343.789	1	-6
343.960	1	-4
344.131	1	-3
344.302	1	-1
344.473	1	1
344.644	1	3
344.815	1	5
344.986	1	8
345.157	1	0
345.328	1	-2
345.499	1	-11
345.670	1	0
345.841	1	1
346.012	1	8
346.183	1	3
346.354	1	-7
346.526	1	3
346.697	1	12
346.868	1	-3
347.039	1	1
347.210	1	-10
347.381	1	1
347.552	1	7
347.723	1	4
347.894	1	1
348.065	1	-8
348.236	1	1
348.407	1	-10
348.578	1	3
348.749	1	3
348.920	1	-2
349.091	1	8
349.262	1	1
349.433	1	6
349.604	1	0
349.775	1	6
349.946	1	9
350.117	1	-2
350.288	1	-7
350.459	1	2
350.630	1	6
350.801	1	-1
350.972	1	-8
351.143	1	1
351.314	1	0
351.485	1	2
351.656	1	-8
351.827	1	4
351.998	1	5
352.169	1	0
352.340	1	7
352.511	1	2
352.682	1	-3
352.853	1	4
353.024	1	2
353.195	1	6
353.366	1	5
353.537	1	0
353.708	1	7
353.879	1	1
354.050	1	1
354.221	1	-3
354.392	1	1
354.563	1	-11
354.734	1	11
354.905	1	2
355.076	1	-4
355.247	1	-4
355.418	1	-6
355.589	1	1
355.760	1	-8
355.931	1	2
356.102	1	7
356.273	1	-6
356.444	1	-5
356.615	1	-4
356.785	1	-4
356.956	1	-7
357.127	1	3
357.298	1	-4
357.469	1	-4
357.640	1	-8
357.811	1	3
357.982	1	-3
358.153	1	-3
358.324	1	-1
358.495	1	-2
358.666	1	6
358.837	1	-4
359.008	1	-5
359.179	1	-9
359.350	1	11
359.521	1	5
359.692	1	2
359.863	1	-3
360.034	1	-2
360.205	1	6
360.376	1	0
360.547	1	10
360.718	1	-4
360.889	1	10
361.060	1	-4
361.231	1	1
361.401	1	3
361.572	1	7
361.743	1	-3
361.914	1	2
362.085	1	4
362.256	1	2
362.427	1	5
362.598	1	-8
362.769	1	-11
362.940	1	11
363.111	1	9
363.282	1	9
363.453	1	-8
363.624	1	2
363.795	1	3
363.966	1	6
364.137	1	5
364.308	1	13
364.478	1	-1
364.649	1	-5
364.820	1	3
364.991	1	3
365.162	1	5
365.333	1	0
365.504	1	5
365.675	1	13
365.846	1	-2
366.017	1	3
366.188	1	-1
366.359	1	1
366.530	1	12
366.701	1	5
366.871	1	7
367.042	1	-2
367.213	1	4
367.384	1	10
367.555	1	11
367.726	1	10
367.897	1	8
368.068	1	10
368.239	1	10
368.410	1	7
368.581	1	14
368.752	1	10
368.923	1	5
369.093	1	3
369.264	1	3
369.435	1	-3
369.606	1	8
369.777	1	8
369.948	1	12
370.119	1	0
370.290	1	7
370.461	1	12
370.632	1	12
370.803	1	-6
370.973	1	12
371.144	1	7
371.315	1	12
371.486	1	1
371.657	1	-1
371.828	1	-1
371.999	1	8
372.170	1	6
372.341	1	15
372.512	1	2
372.682	1	8
372.853	1	11
373.024	1	0
373.195	1	10
373.366	1	10
373.537	1	5
373.708	1	4
373.879	1	4
374.050	1	7
374.220	1	12
374.391	1	-7
374.562	1	-4
374.733	1	7
374.904	1	1
375.075	1	4
375.246	1	4
375.417	1	14
375.588	1	4
375.758	1	12
375.929	1	-5
376.100	1	9
376.271	1	1
376.442	1	6
376.613	1	-2
376.784	1	0
376.955	1	7
377.125	1	11
377.296	1	3
377.467	1	4
377.638	1	-2
377.809	1	11
377.980	1	-8
378.151	1	4
378.321	1	7
378.492	1	-3
378.663	1	7
378.834	1	9
379.005	1	3
379.176	1	-2
379.347	1	-8
379.518	1	1
379.688	1	-1
379.859	1	-2
380.030	1	8
380.201	1	-6
380.372	1	4
380.543	1	-4
380.714	1	12
380.884	1	1
381.055	1	5
381.226	1	2
381.397	1	8
381.568	1	-4
381.739	1	-1
381.910	1	6
382.080	1	-8
382.251	1	2
382.422	1	3
382.593	1	5
382.764	1	2
382.935	1	1
383.105	1	10
383.276	1	9
383.447	1	13
383.618	1	2
383.789	1	12
383.960	1	4
384.130	1	-3
384.301	1	-4
384.472	1	-5
384.643	1	2
384.814	1	4
384.985	1	5
385.156	1	1
385.326	1	2
385.497	1	8
385.668	1	11
385.839	1	-5
386.010	1	1
386.180	1	-1
386.351	1	-4
386.522	1	10
386.693	1	-14
386.864	1	10
387.035	1	11
387.205	1	-1
387.376	1	-4
387.547	1	0
387.718	1	-4
387.889	1	4
388.060	1	9
388.230	1	1
388.401	1	-6
388.572	1	4
388.743	1	10
388.914	1	-5
389.084	1	-5
389.255	1	11
389.426	1	3
389.597	1	2
389.768	1	0
389.939	1	-4
390.109	1	1
390.280	1	-2
390.451	1	-3
390.622	1	-1
390.793	1	6
390.963	1	5
391.134	1	-4
391.305	1	-4
391.476	1	6
391.647	1	-6
391.817	1	9
391.988	1	14
392.159	1	11
392.330	1	7
392.501	1	-1
392.671	1	-2
392.842	1	-6
393.013	1	-1
393.184	1	8
393.355	1	5
393.525	1	9
393.696	1	4
393.867	1	-2
394.038	1	-5
394.208	1	7
394.379	1	-1
394.550	1	7
394.721	1	-3
394.892	1	-4
395.062	1	0
395.233	1	10
395.404	1	3
395.575	1	-2
395.746	1	-1
395.916	1	-5
396.087	1	3
396.258	1	0
396.429	1	5
396.599	1	3
396.770	1	10
396.941	1	-4
397.112	1	-5
397.283	1	1
397.453	1	0
397.624	1	0
397.795	1	-6
397.966	1	7
398.136	1	-3
398.307	1	-3
398.478	1	-2
398.649	1	6
398.819	1	6
398.990	1	-8
399.161	1	-14
399.332	1	-3
399.503	1	-2
399.673	1	-4
399.844	1	-8
400.015	1	7
400.186	1	-3
400.356	1	-5
400.527	1	14
400.698	1	0
400.869	1	6
401.039	1	14
401.210	1	1
401.381	1	4
401.552	1	2
401.722	1	-2
401.893	1	8
402.064	1	1
402.235	1	7
402.405	1	-3
402.576	1	2
402.747	1	-3
402.918	1	-7
403.088	1	1
403.259	1	-3
403.430	1	5
403.601	1	14
403.771	1	7
403.942	1	11
404.113	1	0
404.284	1	-10
404.454	1	-4
404.625	1	2
404.796	1	1
404.967	1	-3
405.137	1	2
405.308	1	1
405.479	1	5
405.649	1	8
405.820	1	-2
405.991	1	-2
406.162	1	-10
406.332	1	-7
406.503	1	4
406.674	1	6
406.845	1	1
407.015	1	7
407.186	1	1
407.357	1	-2
407.527	1	-7
407.698	1	10
407.869	1	-6
408.040	1	1
408.210	1	-2
408.381	1	6
408.552	1	4
408.722	1	-7
408.893	1	-3
409.064	1	-1
409.235	1	2
409.405	1	4
409.576	1	4
409.747	1	2
409.917	1	1
410.088	1	5
410.259	1	9
410.430	1	3
410.600	1	1
410.771	1	-2
410.942	1	1
411.112	1	-3
411.283	1	0
411.454	1	1
411.625	1	-8
411.795	1	6
411.966	1	12
412.137	1	-9
412.307	1	8
412.478	1	-6
412.649	1	7
412.819	1	-10
412.990	1	4
413.161	1	0
413.332	1	-14
413.502	1	1
413.673	1	-4
413.844	1	-1
414.014	1	6
414.185	1	-3
414.356	1	-5
414.526	1	-4
414.697	1	4
414.868	1	-3
415.038	1	-13
415.209	1	-13
415.380	1	1
415.550	1	4
415.721	1	-6
415.892	1	3
416.063	1	-1
416.233	1	4
416.404	1	-2
416.575	1	5
416.745	1	-5
416.916	1	-10
417.087	1	-8
417.257	1	3
417.428	1	2
417.599	1	-10
417.769	1	7
417.940	1	4
418.111	1	4
418.281	1	-1
418.452	1	-8
418.623	1	-1
418.793	1	-1
418.964	1	-8
419.135	1	4
419.305	1	4
419.476	1	-6
419.647	1	4
419.817	1	-6
419.988	1	5
420.159	1	7
420.329	1	5
420.500	1	0
420.671	1	-3
420.841	1	-1
421.012	1	-4
421.183	1	-3
421.353	1	-2
421.524	1	6
421.695	1	-14
421.865	1	3
422.036	1	7
422.206	1	-4
422.377	1	5
422.548	1	6
422.718	1	9
422.889	1	-3
423.060	1	-1
423.230	1	11
423.401	1	-4
423.572	1	0
423.742	1	0
423.913	1	-1
424.084	1	20
424.254	1	-6
424.425	1	-7
424.595	1	2
424.766	1	-1
424.937	1	1
425.107	1	0
425.278	1	1
425.449	1	7
425.619	1	-1
425.790	1	9
425.961	1	-4
426.131	1	4
426.302	1	-4
426.472	1	1
426.643	1	-5
426.814	1	-5
426.984	1	-1
427.155	1	2
427.326	1	4
427.496	1	0
427.667	1	-1
427.837	1	-4
428.008	1	0
428.179	1	5
428.349	1	-13
428.520	1	5
428.691	1	-4
428.861	1	2
429.032	1	-3
429.202	1	-1
429.373	1	-2
429.544	1	-4
429.714	1	-2
429.885	1	4
430.055	1	2
430.226	1	4
430.397	1	5
430.567	1	-2
430.738	1	-6
430.909	1	-6
431.079	1	-3
431.250	1	15
431.420	1	-2
431.591	1	4
431.762	1	-6
431.932	1	-5
432.103	1	-7
432.273	1	-2
432.444	1	1
432.615	1	-2
432.785	1	4
432.956	1	4
433.126	1	-3
433.297	1	4
433.468	1	-5
433.638	1	13
433.809	1	-7
433.979	1	3
434.150	1	0
434.320	1	5
434.491	1	4
434.662	1	-6
434.832	1	3
435.003	1	5
435.173	1	9
435.344	1	6
435.515	1	3
435.685	1	-4
435.856	1	17
436.026	1	1
436.197	1	-4
436.368	1	3
436.538	1	-1
436.709	1	-3
436.879	1	6
437.050	1	-5
437.220	1	-3
437.391	1	-9
437.562	1	-8
437.732	1	2
437.903	1	5
438.073	1	-2
438.244	1	1
438.414	1	-3
438.585	1	-2
438.756	1	-9
438.926	1	3
439.097	1	3
439.267	1	-4
439.438	1	-4
439.608	1	-8
439.779	1	4
439.949	1	8
440.120	1	-3
440.291	1	6
440.461	1	8
440.632	1	-8
440.802	1	10
440.973	1	1
441.143	1	3
441.314	1	-5
441.485	1	-6
441.655	1	5
441.826	1	5
441.996	1	4
442.167	1	-5
442.337	1	2
442.508	1	1
442.678	1	1
442.849	1	5
443.019	1	3
443.190	1	-3
443.361	1	4
443.531	1	-1
443.702	1	7
443.872	1	0
444.043	1	2
444.213	1	-2
444.384	1	3
444.554	1	-1
444.725	1	-4
444.895	1	-13
445.066	1	4
445.237	1	-15
445.407	1	11
445.578	1	14
445.748	1	-8
445.919	1	-1
446.089	1	8
446.260	1	6
446.430	1	-2
446.601	1	-10
446.771	1	-14
446.942	1	1
447.112	1	6
447.283	1	13
447.453	1	-2
447.624	1	-4
447.794	1	-2
447.965	1	-1
448.135	1	2
448.306	1	2
448.477	1	8
448.647	1	-3
448.818	1	12
448.988	1	9
449.159	1	-1
449.329	1	-4
449.500	1	11
449.670	1	-14
449.841	1	2
450.011	1	6
450.182	1	8
450.352	1	-10
450.523	1	2
450.693	1	2
450.864	1	12
451.034	1	-2
451.205	1	1
451.375	1	5
451.546	1	-3
451.716	1	0
451.887	1	-8
452.057	1	0
452.228	1	-1
452.398	1	1
452.569	1	6
452.739	1	1
452.910	1	5
453.080	1	5
453.251	1	2
453.421	1	5
453.592	1	-9
453.762	1	0
453.933	1	-6
454.103	1	-9
454.274	1	-1
454.444	1	-6
454.615	1	0
454.785	1	-4
454.956	1	1
455.126	1	4
455.297	1	-12
455.467	1	-14
455.638	1	6
455.808	1	3
455.979	1	16
456.149	1	7
456.320	1	5
456.490	1	5
456.661	1	-3
456.831	1	-9
457.001	1	6
457.172	1	-3
457.342	1	3
457.513	1	10
457.683	1	15
457.854	1	11
458.024	1	12
458.195	1	3
458.365	1	0
458.536	1	-5
458.706	1	4
458.877	1	-2
459.047	1	0
459.218	1	-5
459.388	1	9
459.559	1	0
459.729	1	9
459.899	1	3
460.070	1	0
460.240	1	-4
460.411	1	-1
460.581	1	-6
460.752	1	6
460.922	1	-6
461.093	1	8
461.263	1	-4
461.434	1	1
461.604	1	5
461.775	1	0
461.945	1	-2
462.115	1	8
462.286	1	2
462.456	1	-8
462.627	1	0
462.797	1	-8
462.968	1	2
463.138	1	-2
463.309	1	7
463.479	1	-2
463.649	1	3
463.820	1	6
463.990	1	1
464.161	1	5
464.331	1	-4
464.502	1	-4
464.672	1	-6
464.843	1	-8
465.013	1	11
465.183	1	7
465.354	1	-8
465.524	1	4
465.695	1	10
465.865	1	4
466.036	1	-15
466.206	1	-2
466.376	1	0
466.547	1	2
466.717	1	0
466.888	1	-1
467.058	1	1
467.229	1	-3
467.399	1	10
467.569	1	-1
467.740	1	-2
467.910	1	-5
468.081	1	-9
468.251	1	-1
468.422	1	6
468.592	1	-3
468.762	1	16
468.933	1	2
469.103	1	9
469.274	1	4
469.444	1	-1
469.614	1	1
469.785	1	-1
469.955	1	2
470.126	1	0
470.296	1	4
470.467	1	8
470.637	1	5
470.807	1	5
470.978	1	-7
471.148	1	-4
471.319	1	0
471.489	1	-3
471.659	1	-6
471.830	1	2
472.000	1	-3
472.171	1	3
472.341	1	2
472.511	1	4
472.682	1	3
472.852	1	2
473.023	1	1
473.193	1	5
473.363	1	-1
473.534	1	10
473.704	1	4
473.875	1	-1
474.045	1	0
474.215	1	5
474.386	1	-4
474.556	1	8
474.727	1	-1
474.897	1	-9
475.067	1	-1
475.238	1	-1
475.408	1	-6
475.578	1	7
475.749	1	3
475.919	1	-1
476.090	1	0
476.260	1	10
476.430	1	-3
476.601	1	-3
476.771	1	0
476.942	1	-11
477.112	1	-6
477.282	1	5
477.453	1	11
477.623	1	7
477.793	1	6
477.964	1	3
478.134	1	7
478.305	1	-6
478.475	1	-3
478.645	1	4
478.816	1	-2
478.986	1	-1
479.156	1	3
479.327	1	-5
479.497	1	0
479.667	1	-2
479.838	1	7
480.008	1	9
480.179	1	-3
480.349	1	6
480.519	1	1
480.690	1	5
480.860	1	-6
481.030	1	3
481.201	1	6
481.371	1	-1
481.541	1	1
481.712	1	-2
481.882	1	10
482.053	1	-5
482.223	1	-1
482.393	1	-6
482.564	1	6
482.734	1	-1
482.904	1	2
483.075	1	-2
483.245	1	2
483.415	1	-1
483.586	1	-3
483.756	1	5
483.926	1	-3
484.097	1	-3
484.267	1	-1
484.437	1	1
484.608	1	0
484.778	1	-11
484.948	1	-1
485.119	1	5
485.289	1	-2
485.459	1	-6
485.630	1	5
485.800	1	-4
485.970	1	-4
486.141	1	15
486.311	1	9
486.481	1	-4
486.652	1	2
486.822	1	2
486.992	1	-3
487.163	1	6
487.333	1	-9
487.503	1	-6
487.674	1	-1
487.844	1	14
488.014	1	-2
488.185	1	-7
488.355	1	-5
488.525	1	9
488.696	1	-9
488.866	1	4
489.036	1	1
489.207	1	7
489.377	1	-4
489.547	1	3
489.718	1	2
489.888	1	3
490.058	1	2
490.228	1	-6
490.399	1	-1
490.569	1	8
490.739	1	0
490.910	1	0
491.080	1	-1
491.250	1	-5
491.421	1	-1
491.591	1	1
491.761	1	-4
491.932	1	12
492.102	1	-2
492.272	1	12
492.442	1	-1
492.613	1	8
492.783	1	-5
492.953	1	1
493.124	1	-7
493.294	1	0
493.464	1	-3
493.635	1	-11
493.805	1	5
493.975	1	11
494.145	1	11
494.316	1	-3
494.486	1	13
494.656	1	1
494.827	1	-2
494.997	1	5
495.167	1	6
495.337	1	10
495.508	1	0
495.678	1	17
495.848	1	-2
496.019	1	5
496.189	1	-6
496.359	1	4
496.529	1	-2
496.700	1	1
496.870	1	-2
497.040	1	0
497.211	1	7
497.381	1	5
497.551	1	12
497.721	1	-4
497.892	1	4
498.062	1	-5
498.232	1	2
498.403	1	-4
498.573	1	-3
498.743	1	2
498.913	1	7
499.084	1	-2
499.254	1	0
499.424	1	0
499.594	1	-5
499.765	1	-6
499.935	1	8
500.105	1	-12
500.275	1	7
500.446	1	-7
500.616	1	-10
500.786	1	-9
500.956	1	10
501.127	1	1
501.297	1	8
501.467	1	2
501.638	1	-2
501.808	1	2
501.978	1	-8
502.148	1	0
502.319	1	4
502.489	1	-2
502.659	1	-4
502.829	1	7
503.000	1	8
503.170	1	6
503.340	1	7
503.510	1	-2
503.681	1	9
503.851	1	-6
504.021	1	4
504.191	1	-9
504.362	1	8
504.532	1	-14
504.702	1	1
504.872	1	4
505.042	1	3
505.213	1	-7
505.383	1	-3
505.553	1	3
505.723	1	-5
505.894	1	14
506.064	1	0
506.234	1	2
506.404	1	-1
506.575	1	5
506.745	1	0
506.915	1	5
507.085	1	-17
507.256	1	-3
507.426	1	-1
507.596	1	2
507.766	1	2
507.936	1	11
508.107	1	0
508.277	1	-10
508.447	1	6
508.617	1	9
508.788	1	-2
508.958	1	-2
509.128	1	5
509.298	1	0
509.468	1	-4
509.639	1	5
509.809	1	5
509.979	1	-2
510.149	1	4
510.319	1	-5
510.490	1	11
510.660	1	-4
510.830	1	0
511.000	1	4
511.171	1	-3
511.341	1	14
511.511	1	0
511.681	1	3
511.851	1	-6
512.022	1	6
512.192	1	6
512.362	1	-1
512.532	1	-5
512.702	1	-8
512.873	1	4
513.043	1	5
513.213	1	3
513.383	1	5
513.553	1	-4
513.724	1	1
513.894	1	-3
514.064	1	5
514.234	1	-5
514.404	1	-8
514.575	1	-9
514.745	1	-7
514.915	1	-4
515.085	1	8
515.255	1	-6
515.425	1	6
515.596	1	-2
515.766	1	6
515.936	1	2
516.106	1	4
516.276	1	6
516.447	1	2
516.617	1	2
516.787	1	8
516.957	1	-4
517.127	1	2
517.297	1	7
517.468	1	-1
517.638	1	5
517.808	1	5
517.978	1	14
518.148	1	-1
518.319	1	10
518.489	1	3
518.659	1	-1
518.829	1	-1
518.999	1	7
519.169	1	-12
519.340	1	-1
519.510	1	14
519.680	1	-6
519.850	1	0
520.020	1	-5
520.190	1	2
520.361	1	-3
520.531	1	-1
520.701	1	4
520.871	1	-3
521.041	1	13
521.211	1	-2
521.382	1	0
521.552	1	-2
521.722	1	10
521.892	1	6
522.062	1	1
522.232	1	-12
522.402	1	2
522.573	1	9
522.743	1	8
522.913	1	-1
523.083	1	1
523.253	1	16
523.423	1	-1
523.593	1	10
523.764	1	4
523.934	1	-1
524.104	1	2
524.274	1	-5
524.444	1	-2
524.614	1	9
524.784	1	7
524.955	1	3
525.125	1	13
525.295	1	2
525.465	1	0
525.635	1	-4
525.805	1	-1
525.975	1	-7
526.146	1	-3
526.316	1	13
526.486	1	5
526.656	1	11
526.826	1	-5
526.996	1	8
527.166	1	-8
527.337	1	-2
527.507	1	-3
527.677	1	0
527.847	1	-2
528.017	1	9
528.187	1	0
528.357	1	-6
528.527	1	1
528.698	1	-6
528.868	1	9
529.038	1	-4
529.208	1	2
529.378	1	0
529.548	1	5
529.718	1	5
529.888	1	-3
530.058	1	11
530.229	1	11
530.399	1	-4
530.569	1	-6
530.739	1	-2
530.909	1	-8
531.079	1	10
531.249	1	-6
531.419	1	-2
531.589	1	-3
531.760	1	-5
531.930	1	4
532.100	1	3
532.270	1	9
532.440	1	0
532.610	1	8
532.780	1	-3
532.950	1	-11
533.120	1	-3
533.290	1	8
533.461	1	-6
533.631	1	0
533.801	1	2
533.971	1	3
534.141	1	-8
534.311	1	-6
534.481	1	7
534.651	1	0
534.821	1	5
534.991	1	-4
535.162	1	7
535.332	1	11
535.502	1	7
535.672	1	4
535.842	1	-6
536.012	1	-4
536.182	1	-4
536.352	1	-3
536.522	1	7
536.692	1	9
536.862	1	-7
537.032	1	-6
537.203	1	2
537.373	1	-4
537.543	1	-1
537.713	1	9
537.883	1	8
538.053	1	8
538.223	1	10
538.393	1	13
538.563	1	1
538.733	1	-9
538.903	1	4
539.073	1	5
539.243	1	-14
539.413	1	-2
539.584	1	0
539.754	1	-4
539.924	1	-8
540.094	1	7
540.264	1	13
540.434	1	-1
540.604	1	-1
540.774	1	6
540.944	1	-9
541.114	1	2
541.284	1	12
541.454	1	10
541.624	1	-9
541.794	1	-6
541.964	1	12
542.134	1	5
542.305	1	-2
542.475	1	0
542.645	1	2
542.815	1	-3
542.985	1	6
543.155	1	3
543.325	1	6
543.495	1	-2
543.665	1	-1
543.835	1	-16
544.005	1	8
544.175	1	-2
544.345	1	-5
544.515	1	5
544.685	1	1
544.855	1	-4
545.025	1	-5
545.195	1	4
545.365	1	6
545.535	1	-7
545.705	1	1
545.875	1	-8
546.045	1	3
546.216	1	7
546.386	1	-3
546.556	1	7
546.726	1	-4
546.896	1	10
547.066	1	17
547.236	1	8
547.406	1	-6
547.576	1	-10
547.746	1	-5
547.916	1	6
548.086	1	-2
548.256	1	7
548.426	1	3
548.596	1	-11
548.766	1	0
548.936	1	-4
549.106	1	10
549.276	1	-3
549.446	1	-3
549.616	1	12
549.786	1	-3
549.956	1	-5
550.126	1	8
550.296	1	-5
550.466	1	-3
550.636	1	1
550.806	1	-7
550.976	1	12
551.146	1	3
551.316	1	8
551.486	1	-1
551.656	1	7
551.826	1	14
551.996	1	-6
552.166	1	-9
552.336	1	8
552.506	1	12
552.676	1	-4
552.846	1	4
553.016	1	-1
553.186	1	3
553.356	1	0
553.526	1	-10
553.696	1	4
553.866	1	-8
554.036	1	1
554.206	1	-6
554.376	1	-6
554.546	1	-10
554.716	1	5
554.886	1	-1
555.056	1	-4
555.226	1	-3
555.396	1	3
555.566	1	7
555.736	1	1
555.906	1	-1
556.076	1	4
556.246	1	1
556.416	1	3
556.586	1	1
556.756	1	2
556.926	1	6
557.096	1	-8
557.266	1	3
557.436	1	-10
557.606	1	3
557.776	1	-4
557.946	1	-1
558.116	1	-5
558.286	1	2
558.456	1	-9
558.626	1	7
558.796	1	-2
558.966	1	5
559.136	1	12
559.306	1	3
559.476	1	7
559.646	1	-2
559.816	1	4
559.986	1	6
560.155	1	7
560.325	1	-5
560.495	1	3
560.665	1	10
560.835	1	-5
561.005	1	-2
561.175	1	-4
561.345	1	-2
561.515	1	-2
561.685	1	0
561.855	1	0
562.025	1	-7
562.195	1	4
562.365	1	6
562.535	1	5
562.705	1	6
562.875	1	-2
563.045	1	0
563.215	1	-12
563.385	1	9
563.555	1	-5
563.725	1	-4
563.895	1	-3
564.064	1	4
564.234	1	0
564.404	1	6
564.574	1	-8
564.744	1	-3
564.914	1	0
565.084	1	8
565.254	1	5
565.424	1	-2
565.594	1	2
565.764	1	-2
565.934	1	13
566.104	1	-2
566.274	1	4
566.444	1	7
566.614	1	-20
566.783	1	3
566.953	1	0
567.123	1	-4
567.293	1	-1
567.463	1	-4
567.633	1	3
567.803	1	-2
567.973	1	0
568.143	1	-1
568.313	1	1
568.483	1	-4
568.653	1	-2
568.823	1	7
568.993	1	4
569.162	1	4
569.332	1	6
569.502	1	-1
569.672	1	3
569.842	1	3
570.012	1	2
570.182	1	0
570.352	1	0
570.522	1	1
570.692	1	5
570.862	1	3
571.031	1	4
571.201	1	2
571.371	1	9
571.541	1	0
571.711	1	2
571.881	1	-4
572.051	1	-10
572.221	1	6
572.391	1	9
572.561	1	-4
572.731	1	9
572.900	1	-1
573.070	1	10
573.240	1	1
573.410	1	-5
573.580	1	-1
573.750	1	9
573.920	1	0
574.090	1	-2
574.260	1	6
574.430	1	15
574.599	1	3
574.769	1	-3
574.939	1	-2
575.109	1	-2
575.279	1	2
575.449	1	3
575.619	1	12
575.789	1	-5
575.959	1	-10
576.128	1	-3
576.298	1	8
576.468	1	10
576.638	1	5
576.808	1	-3
576.978	1	-6
577.148	1	-4
577.318	1	9
577.487	1	0
577.657	1	1
577.827	1	-1
577.997	1	-9
578.167	1	-8
578.337	1	5
578.507	1	6
578.677	1	-6
578.846	1	3
579.016	1	3
579.186	1	-7
579.356	1	4
579.526	1	-5
579.696	1	0
579.866	1	0
580.036	1	1
580.205	1	-5
580.375	1	5
580.545	1	-3
580.715	1	4
580.885	1	-12
581.055	1	10
581.225	1	-6
581.394	1	4
581.564	1	0
581.734	1	8
581.904	1	1
582.074	1	-1
582.244	1	0
582.414	1	-5
582.583	1	1
582.753	1	-3
582.923	1	6
583.093	1	2
583.263	1	11
583.433	1	13
583.603	1	-8
583.772	1	-6
583.942	1	6
584.112	1	0
584.282	1	-3
584.452	1	-7
584.622	1	12
584.791	1	4
584.961	1	0
585.131	1	13
585.301	1	3
585.471	1	3
585.641	1	6
585.811	1	-9
585.980	1	5
586.150	1	-5
586.320	1	4
586.490	1	6
586.660	1	-5
586.830	1	-4
586.999	1	-5
587.169	1	10
587.339	1	2
587.509	1	4
587.679	1	3
587.849	1	-4
588.018	1	7
588.188	1	8
588.358	1	13
588.528	1	-4
588.698	1	-3
588.867	1	4
589.037	1	-8
589.207	1	-6
589.377	1	3
589.547	1	4
589.717	1	5
589.886	1	-4
590.056	1	0
590.226	1	-2
590.396	1	0
590.566	1	3
590.735	1	-5
590.905	1	3
591.075	1	14
591.245	1	-3
591.415	1	6
591.585	1	0
591.754	1	5
591.924	1	1
592.094	1	-2
592.264	1	-17
592.434	1	4
592.603	1	-6
592.773	1	0
592.943	1	1
593.113	1	21
593.283	1	-3
593.452	1	0
593.622	1	-6
593.792	1	-4
593.962	1	-1
594.132	1	13
594.301	1	9
594.471	1	-1
594.641	1	0
594.811	1	2
594.981	1	4
595.150	1	3
595.320	1	-5
595.490	1	3
595.660	1	3
595.829	1	7
595.999	1	2
596.169	1	9
596.339	1	4
596.509	1	0
596.678	1	3
596.848	1	8
597.018	1	3
597.188	1	-11
597.358	1	-6
597.527	1	5
597.697	1	-7
597.867	1	5
598.037	1	-6
598.206	1	4
598.376	1	-12
598.546	1	4
598.716	1	-9
598.885	1	10
599.055	1	-2
599.225	1	-5
599.395	1	-3
599.565	1	-5
599.734	1	0
599.904	1	2
600.074	1	-16
600.244	1	2
600.413	1	-2
600.583	1	-1
600.753	1	6
600.923	1	0
601.092	1	1
601.262	1	-9
601.432	1	-2
601.602	1	7
601.771	1	13
601.941	1	-2
602.111	1	-5
602.281	1	-7
602.451	1	-3
602.620	1	1
602.790	1	1
602.960	1	-4
603.130	1	-2
603.299	1	-2
603.469	1	4
603.639	1	1
603.809	1	4
603.978	1	-4
604.148	1	12
604.318	1	-4
604.487	1	8
604.657	1	3
604.827	1	-11
604.997	1	-5
605.166	1	11
605.336	1	-2
605.506	1	0
605.676	1	-8
605.845	1	2
606.015	1	-6
606.185	1	9
606.355	1	1
606.524	1	1
606.694	1	-11
606.864	1	-3
607.034	1	6
607.203	1	3
607.373	1	7
607.543	1	9
607.712	1	-22
607.882	1	4
608.052	1	0
608.222	1	-5
608.391	1	0
608.561	1	1
608.731	1	6
608.901	1	-4
609.070	1	-5
609.240	1	1
609.410	1	-6
609.579	1	3
609.749	1	-5
609.919	1	0
610.089	1	-2
610.258	1	8
610.428	1	5
610.598	1	-5
610.767	1	-16
610.937	1	4
611.107	1	4
611.277	1	2
611.446	1	-5
611.616	1	2
611.786	1	-5
611.955	1	6
612.125	1	4
612.295	1	0
612.465	1	-2
612.634	1	-4
612.804	1	3
612.974	1	1
613.143	1	2
613.313	1	-2
613.483	1	-5
613.652	1	8
613.822	1	5
613.992	1	0
614.162	1	9
614.331	1	0
614.501	1	-6
614.671	1	7
614.840	1	-10
615.010	1	-3
615.180	1	10
615.349	1	6
615.519	1	-3
615.689	1	11
615.858	1	-1
616.028	1	-8
616.198	1	6
616.368	1	-1
616.537	1	-6
616.707	1	-3
616.877	1	-2
617.046	1	-1
617.216	1	15
617.386	1	-1
617.555	1	-2
617.725	1	3
617.895	1	1
618.064	1	2
618.234	1	-5
618.404	1	1
618.573	1	-4
618.743	1	3
618.913	1	4
619.082	1	8
619.252	1	5
619.422	1	-10
619.591	1	-3
619.761	1	1
619.931	1	-3
620.100	1	5
620.270	1	-1
620.440	1	1
620.609	1	4
620.779	1	3
620.949	1	11
621.118	1	4
621.288	1	5
621.458	1	0
621.627	1	-1
621.797	1	13
621.967	1	-4
622.136	1	-8
622.306	1	-3
622.476	1	-4
622.645	1	1
622.815	1	1
622.985	1	3
623.154	1	-1
623.324	1	-5
623.494	1	2
623.663	1	5
623.833	1	8
624.002	1	-4
624.172	1	-1
624.342	1	5
624.511	1	2
624.681	1	0
624.851	1	-1
625.020	1	3
625.190	1	3
625.360	1	5
625.529	1	10
625.699	1	0
625.869	1	5
626.038	1	-4
626.208	1	0
626.377	1	5
626.547	1	-9
626.717	1	-6
626.886	1	5
627.056	1	-2
627.226	1	11
627.395	1	-5
627.565	1	2
627.735	1	-10
627.904	1	-1
628.074	1	0
628.243	1	10
628.413	1	-2
628.583	1	-8
628.752	1	-8
628.922	1	-15
629.091	1	-10
629.261	1	-1
629.431	1	8
629.600	1	2
629.770	1	4
629.940	1	-3
630.109	1	3
630.279	1	4
630.448	1	2
630.618	1	-5
630.788	1	4
630.957	1	6
631.127	1	0
631.297	1	-6
631.466	1	3
631.636	1	10
631.805	1	16
631.975	1	3
632.145	1	2
632.314	1	5
632.484	1	-2
632.653	1	14
632.823	1	-2
632.993	1	0
633.162	1	5
633.332	1	1
633.501	1	1
633.671	1	2
633.841	1	-16
634.010	1	-5
634.180	1	3
634.349	1	-16
634.519	1	1
634.689	1	4
634.858	1	-2
635.028	1	-2
635.197	1	7
635.367	1	1
635.537	1	-6
635.706	1	-4
635.876	1	7
636.045	1	2
636.215	1	-8
636.384	1	-10
636.554	1	0
636.724	1	0
636.893	1	1
637.063	1	1
637.232	1	6
637.402	1	12
637.572	1	1
637.741	1	-5
637.911	1	3
638.080	1	6
638.250	1	9
638.419	1	-13
638.589	1	14
638.759	1	4
638.928	1	2
639.098	1	-5
639.267	1	-4
639.437	1	-1
639.606	1	-4
639.776	1	3
639.946	1	3
640.115	1	1
640.285	1	-1
640.454	1	-2
640.624	1	-10
640.793	1	-2
640.963	1	0
641.132	1	12
641.302	1	-11
641.472	1	-7
641.641	1	-6
641.811	1	18
641.980	1	-6
642.150	1	-4
642.319	1	7
642.489	1	-4
642.659	1	5
642.828	1	-2
642.998	1	6
643.167	1	-8
643.337	1	12
643.506	1	4
643.676	1	11
643.845	1	-1
644.015	1	0
644.184	1	11
644.354	1	-1
644.524	1	-1
644.693	1	-3
644.863	1	-9
645.032	1	1
645.202	1	14
645.371	1	1
645.541	1	-6
645.710	1	1
645.880	1	0
646.049	1	0
646.219	1	0
646.388	1	4
646.558	1	3
646.728	1	-1
646.897	1	1
647.067	1	5
647.236	1	0
647.406	1	6
647.575	1	-4
647.745	1	-4
647.914	1	-6
648.084	1	-6
648.253	1	9
648.423	1	3
648.592	1	-5
648.762	1	1
648.931	1	1
649.101	1	2
649.270	1	3
649.440	1	4
649.610	1	7
649.779	1	-5
649.949	1	1
650.118	1	5
650.288	1	-4
650.457	1	-4
650.627	1	-3
650.796	1	6
650.966	1	1
651.135	1	-2
651.305	1	-4
651.474	1	10
651.644	1	4
651.813	1	3
651.983	1	8
652.152	1	-9
652.322	1	6
652.491	1	2
652.661	1	0
652.830	1	-1
653.000	1	-1
653.169	1	-6
653.339	1	-8
653.508	1	3
653.678	1	5
653.847	1	-3
654.017	1	-1
654.186	1	10
654.356	1	-5
654.525	1	-5
654.695	1	15
654.864	1	12
655.034	1	-1
655.203	1	-2
655.373	1	1
655.542	1	-7
655.712	1	-8
655.881	1	-2
656.051	1	10
656.220	1	4
656.390	1	-1
656.559	1	-9
656.729	1	-6
656.898	1	2
657.068	1	8
657.237	1	-5
657.406	1	-10
657.576	1	3
657.745	1	9
657.915	1	4
658.084	1	-3
658.254	1	16
658.423	1	0
658.593	1	-5
658.762	1	-6
658.932	1	-4
659.101	1	12
659.271	1	-1
659.440	1	3
659.610	1	13
659.779	1	2
659.949	1	-2
660.118	1	-3
660.288	1	-1
660.457	1	4
660.626	1	5
660.796	1	-5
660.965	1	10
661.135	1	-14
661.304	1	2
661.474	1	4
661.643	1	15
661.813	1	-4
661.982	1	7
662.152	1	-7
662.321	1	-7
662.491	1	-6
662.660	1	-9
662.829	1	-9
662.999	1	1
663.168	1	3
663.338	1	6
663.507	1	7
663.677	1	2
663.846	1	3
664.016	1	7
664.185	1	7
664.354	1	-6
664.524	1	10
664.693	1	-7
664.863	1	-4
665.032	1	-5
665.202	1	13
665.371	1	4
665.541	1	7
665.710	1	1
665.879	1	7
666.049	1	-3
666.218	1	5
666.388	1	2
666.557	1	-1
666.727	1	-2
666.896	1	3
667.065	1	-2
667.235	1	1
667.404	1	3
667.574	1	-8
667.743	1	-13
667.913	1	3
668.082	1	7
668.251	1	4
668.421	1	4
668.590	1	3
668.760	1	5
668.929	1	-2
669.099	1	4
669.268	1	-9
669.437	1	5
669.607	1	-6
669.776	1	4
669.946	1	0
670.115	1	-2
670.285	1	5
670.454	1	-8
670.623	1	4
670.793	1	11
670.962	1	-8
671.132	1	3
671.301	1	3
671.470	1	4
671.640	1	3
671.809	1	1
671.979	1	-4
672.148	1	-1
672.317	1	11
672.487	1	4
672.656	1	-1
672.826	1	4
672.995	1	-4
673.164	1	3
673.334	1	-11
673.503	1	-3
673.673	1	-4
673.842	1	4
674.011	1	9
674.181	1	5
674.350	1	7
674.520	1	1
674.689	1	4
674.858	1	-3
675.028	1	7
675.197	1	3
675.367	1	-1
675.536	1	-2
675.705	1	6
675.875	1	-1
676.044	1	8
676.214	1	2
676.383	1	1
676.552	1	1
676.722	1	10
676.891	1	15
677.060	1	-3
677.230	1	5
677.399	1	-6
677.569	1	-8
677.738	1	1
677.907	1	-5
678.077	1	15
678.246	1	-15
678.416	1	-3
678.585	1	9
678.754	1	2
678.924	1	1
679.093	1	5
679.262	1	5
679.432	1	0
679.601	1	1
679.771	1	3
679.940	1	12
680.109	1	3
680.279	1	10
680.448	1	-3
680.617	1	-2
680.787	1	-5
680.956	1	-8
681.125	1	3
681.295	1	0
681.464	1	0
681.634	1	-2
681.803	1	0
681.972	1	-6
682.142	1	-4
682.311	1	-1
682.480	1	3
682.650	1	0
682.819	1	8
682.988	1	-4
683.158	1	-2
683.327	1	-1
683.496	1	1
683.666	1	7
683.835	1	-3
684.004	1	-1
684.174	1	-3
684.343	1	4
684.512	1	1
684.682	1	0
684.851	1	6
685.021	1	-3
685.190	1	9
685.359	1	-4
685.529	1	6
685.698	1	1
685.867	1	4
686.037	1	-3
686.206	1	11
686.375	1	7
686.545	1	9
686.714	1	4
686.883	1	10
687.053	1	-5
687.222	1	-2
687.391	1	6
687.561	1	-1
687.730	1	7
687.899	1	-11
688.069	1	4
688.238	1	-7
688.407	1	-3
688.577	1	12
688.746	1	-2
