340.368	1	6
340.539	1	4
340.710	1	-11
340.881	1	3
341.052	1	8
341.223	1	0
341.394	1	7
341.565	1	5
341.737	1	-1
341.908	1	7
342.079	1	-1
342.250	1	7
342.421	1	3
342.592	1	3
342.763	1	5
342.934	1	1
343.105	1	14
343.276	1	4
343.447	1	6
343.618	1	1
343.789	1	2
343.960	1	0
344.131	1	-3
344.302	1	6
344.473	1	5
344.644	1	0
344.815	1	9
344.986	1	1
345.157	1	4
345.328	1	6
345.499	1	-3
345.670	1	4
345.841	1	7
346.012	1	12
346.183	1	1
346.354	1	-5
346.526	1	6
346.697	1	9
346.868	1	6
347.039	1	12
347.210	1	-4
347.381	1	3
347.552	1	14
347.723	1	6
347.894	1	10
348.065	1	-13
348.236	1	7
348.407	1	5
348.578	1	15
348.749	1	7
348.920	1	0
349.091	1	17
349.262	1	-4
349.433	1	-1
349.604	1	5
349.775	1	6
349.946	1	11
350.117	1	-1
350.288	1	-2
350.459	1	4
350.630	1	2
350.801	1	0
350.972	1	-3
351.143	1	8
351.314	1	2
351.485	1	5
351.656	1	2
351.827	1	7
351.998	1	6
352.169	1	1
352.340	1	11
352.511	1	7
352.682	1	2
352.853	1	8
353.024	1	2
353.195	1	12
353.366	1	11
353.537	1	10
353.708	1	8
353.879	1	18
354.050	1	6
354.221	1	-1
354.392	1	4
354.563	1	-1
354.734	1	10
354.905	1	12
355.076	1	4
355.247	1	-1
355.418	1	-4
355.589	1	0
355.760	1	2
355.931	1	12
356.102	1	4
356.273	1	-6
356.444	1	14
356.615	1	5
356.785	1	-2
356.956	1	6
357.127	1	-6
357.298	1	15
357.469	1	-5
357.640	1	8
357.811	1	16
357.982	1	10
358.153	1	13
358.324	1	18
358.495	1	6
358.666	1	15
358.837	1	18
359.008	1	-1
359.179	1	5
359.350	1	5
359.521	1	18
359.692	1	12
359.863	1	13
360.034	1	14
360.205	1	6
360.376	1	12
360.547	1	15
360.718	1	13
360.889	1	25
361.060	1	7
361.231	1	14
361.401	1	13
361.572	1	23
361.743	1	15
361.914	1	18
362.085	1	4
362.256	1	12
362.427	1	14
362.598	1	19
362.769	1	18
362.940	1	31
363.111	1	25
363.282	1	42
363.453	1	22
363.624	1	30
363.795	1	22
363.966	1	21
364.137	1	26
364.308	1	32
364.478	1	33
364.649	1	31
364.820	1	32
364.991	1	35
365.162	1	36
365.333	1	29
365.504	1	25
365.675	1	40
365.846	1	26
366.017	1	37
366.188	1	43
366.359	1	37
366.530	1	56
366.701	1	44
366.871	1	49
367.042	1	41
367.213	1	38
367.384	1	58
367.555	1	60
367.726	1	56
367.897	1	50
368.068	1	47
368.239	1	55
368.410	1	62
368.581	1	59
368.752	1	54
368.923	1	62
369.093	1	37
369.264	1	46
369.435	1	35
369.606	1	51
369.777	1	54
369.948	1	57
370.119	1	53
370.290	1	55
370.461	1	48
370.632	1	46
370.803	1	35
370.973	1	55
371.144	1	40
371.315	1	46
371.486	1	36
371.657	1	39
371.828	1	40
371.999	1	41
372.170	1	51
372.341	1	51
372.512	1	31
372.682	1	39
372.853	1	47
373.024	1	27
373.195	1	37
373.366	1	34
373.537	1	52
373.708	1	28
373.879	1	40
374.050	1	38
374.220	1	43
374.391	1	33
374.562	1	19
374.733	1	29
374.904	1	32
375.075	1	23
375.246	1	26
375.417	1	30
375.588	1	25
375.758	1	31
375.929	1	25
376.100	1	26
376.271	1	12
376.442	1	19
376.613	1	26
376.784	1	14
376.955	1	23
377.125	1	21
377.296	1	15
377.467	1	29
377.638	1	19
377.809	1	20
377.980	1	13
378.151	1	20
378.321	1	21
378.492	1	17
378.663	1	12
378.834	1	16
379.005	1	13
379.176	1	17
379.347	1	18
379.518	1	15
379.688	1	22
379.859	1	22
380.030	1	18
380.201	1	13
380.372	1	17
380.543	1	16
380.714	1	19
380.884	1	14
381.055	1	11
381.226	1	15
381.397	1	14
381.568	1	19
381.739	1	9
381.910	1	17
382.080	1	-3
382.251	1	11
382.422	1	3
382.593	1	16
382.764	1	15
382.935	1	13
383.105	1	16
383.276	1	24
383.447	1	17
383.618	1	15
383.789	1	22
383.960	1	17
384.130	1	9
384.301	1	5
384.472	1	7
384.643	1	6
384.814	1	18
384.985	1	8
385.156	1	9
385.326	1	8
385.497	1	10
385.668	1	14
385.839	1	-1
386.010	1	18
386.180	1	13
386.351	1	4
386.522	1	15
386.693	1	5
386.864	1	14
387.035	1	5
387.205	1	2
387.376	1	9
387.547	1	6
387.718	1	-4
387.889	1	14
388.060	1	15
388.230	1	10
388.401	1	4
388.572	1	14
388.743	1	15
388.914	1	4
389.084	1	12
389.255	1	14
389.426	1	19
389.597	1	13
389.768	1	9
389.939	1	6
390.109	1	9
390.280	1	2
390.451	1	8
390.622	1	6
390.793	1	10
390.963	1	7
391.134	1	3
391.305	1	12
391.476	1	16
391.647	1	-5
391.817	1	7
391.988	1	19
392.159	1	9
392.330	1	6
392.501	1	2
392.671	1	11
392.842	1	4
393.013	1	1
393.184	1	2
393.355	1	9
393.525	1	9
393.696	1	9
393.867	1	12
394.038	1	-3
394.208	1	11
394.379	1	-6
394.550	1	13
394.721	1	4
394.892	1	6
395.062	1	4
395.233	1	8
395.404	1	12
395.575	1	6
395.746	1	11
395.916	1	2
396.087	1	17
396.258	1	4
396.429	1	4
396.599	1	-4
396.770	1	7
396.941	1	4
397.112	1	8
397.283	1	1
397.453	1	14
397.624	1	0
397.795	1	9
397.966	1	3
398.136	1	3
398.307	1	5
398.478	1	1
398.649	1	5
398.819	1	6
398.990	1	-7
399.161	1	-2
399.332	1	9
399.503	1	8
399.673	1	3
399.844	1	7
400.015	1	11
400.186	1	3
400.356	1	-7
400.527	1	7
400.698	1	1
400.869	1	3
401.039	1	6
401.210	1	8
401.381	1	17
401.552	1	7
401.722	1	6
401.893	1	6
402.064	1	4
402.235	1	5
402.405	1	4
402.576	1	8
402.747	1	-1
402.918	1	4
403.088	1	12
403.259	1	12
403.430	1	-2
403.601	1	12
403.771	1	4
403.942	1	13
404.113	1	-4
404.284	1	-5
404.454	1	-4
404.625	1	4
404.796	1	6
404.967	1	5
405.137	1	16
405.308	1	6
405.479	1	-1
405.649	1	12
405.820	1	-3
405.991	1	2
406.162	1	5
406.332	1	-5
406.503	1	7
406.674	1	8
406.845	1	-3
407.015	1	13
407.186	1	2
407.357	1	3
407.527	1	0
407.698	1	5
407.869	1	1
408.040	1	1
408.210	1	4
408.381	1	4
408.552	1	3
408.722	1	0
408.893	1	8
409.064	1	8
409.235	1	-8
409.405	1	-3
409.576	1	15
409.747	1	0
409.917	1	2
410.088	1	7
410.259	1	3
410.430	1	-1
410.600	1	4
410.771	1	9
410.942	1	-5
411.112	1	10
411.283	1	4
411.454	1	3
411.625	1	2
411.795	1	6
411.966	1	-1
412.137	1	-5
412.307	1	-2
412.478	1	7
412.649	1	1
412.819	1	-6
412.990	1	-7
413.161	1	7
413.332	1	-10
413.502	1	3
413.673	1	2
413.844	1	4
414.014	1	8
414.185	1	-4
414.356	1	-1
414.526	1	4
414.697	1	8
414.868	1	-8
415.038	1	-12
415.209	1	-5
415.380	1	10
415.550	1	-1
415.721	1	8
415.892	1	12
416.063	1	4
416.233	1	4
416.404	1	-4
416.575	1	1
416.745	1	5
416.916	1	-6
417.087	1	1
417.257	1	10
417.428	1	7
417.599	1	10
417.769	1	8
417.940	1	-2
418.111	1	8
418.281	1	-10
418.452	1	3
418.623	1	5
418.793	1	1
418.964	1	-8
419.135	1	6
419.305	1	-3
419.476	1	0
419.647	1	15
419.817	1	-5
419.988	1	6
420.159	1	12
420.329	1	4
420.500	1	-4
420.671	1	-6
420.841	1	1
421.012	1	6
421.183	1	-2
421.353	1	2
421.524	1	2
421.695	1	-3
421.865	1	-6
422.036	1	6
422.206	1	1
422.377	1	5
422.548	1	3
422.718	1	4
422.889	1	-2
423.060	1	1
423.230	1	3
423.401	1	4
423.572	1	-1
423.742	1	4
423.913	1	-2
424.084	1	15
424.254	1	2
424.425	1	-2
424.595	1	1
424.766	1	2
424.937	1	8
425.107	1	-1
425.278	1	1
425.449	1	12
425.619	1	-8
425.790	1	9
425.961	1	-4
426.131	1	10
426.302	1	-11
426.472	1	5
426.643	1	8
426.814	1	-5
426.984	1	0
427.155	1	9
427.326	1	6
427.496	1	4
427.667	1	6
427.837	1	9
428.008	1	3
428.179	1	6
428.349	1	-8
428.520	1	-2
428.691	1	5
428.861	1	1
429.032	1	6
429.202	1	-8
429.373	1	6
429.544	1	-3
429.714	1	-2
429.885	1	5
430.055	1	-2
430.226	1	5
430.397	1	11
430.567	1	2
430.738	1	-8
430.909	1	3
431.079	1	-6
431.250	1	12
431.420	1	-3
431.591	1	-1
431.762	1	-3
431.932	1	2
432.103	1	4
432.273	1	-1
432.444	1	1
432.615	1	1
432.785	1	3
432.956	1	6
433.126	1	3
433.297	1	2
433.468	1	-8
433.638	1	3
433.809	1	-4
433.979	1	9
434.150	1	4
434.320	1	18
434.491	1	-7
434.662	1	-8
434.832	1	10
435.003	1	9
435.173	1	3
435.344	1	5
435.515	1	6
435.685	1	7
435.856	1	12
436.026	1	-2
436.197	1	-9
436.368	1	6
436.538	1	7
436.709	1	2
436.879	1	8
437.050	1	-8
437.220	1	3
437.391	1	-6
437.562	1	10
437.732	1	5
437.903	1	1
438.073	1	-4
438.244	1	-1
438.414	1	-6
438.585	1	0
438.756	1	0
438.926	1	3
439.097	1	2
439.267	1	4
439.438	1	2
439.608	1	4
439.779	1	-1
439.949	1	12
440.120	1	-9
440.291	1	11
440.461	1	15
440.632	1	-1
440.802	1	1
440.973	1	-1
441.143	1	0
441.314	1	-7
441.485	1	-6
441.655	1	8
441.826	1	2
441.996	1	8
442.167	1	11
442.337	1	8
442.508	1	-3
442.678	1	4
442.849	1	0
443.019	1	3
443.190	1	0
443.361	1	11
443.531	1	-3
443.702	1	18
443.872	1	-4
444.043	1	0
444.213	1	2
444.384	1	-1
444.554	1	-2
444.725	1	3
444.895	1	-10
445.066	1	6
445.237	1	-3
445.407	1	9
445.578	1	10
445.748	1	-2
445.919	1	-4
446.089	1	3
446.260	1	12
446.430	1	0
446.601	1	-11
446.771	1	-9
446.942	1	7
447.112	1	16
447.283	1	10
447.453	1	5
447.624	1	1
447.794	1	6
447.965	1	6
448.135	1	7
448.306	1	-5
448.477	1	6
448.647	1	-3
448.818	1	17
448.988	1	8
449.159	1	-1
449.329	1	7
449.500	1	7
449.670	1	-7
449.841	1	-2
450.011	1	13
450.182	1	4
450.352	1	0
450.523	1	1
450.693	1	6
450.864	1	4
451.034	1	1
451.205	1	-8
451.375	1	3
451.546	1	-8
451.716	1	4
451.887	1	-2
452.057	1	-2
452.228	1	3
452.398	1	5
452.569	1	2
452.739	1	-2
452.910	1	4
453.080	1	-2
453.251	1	1
453.421	1	5
453.592	1	-2
453.762	1	4
453.933	1	8
454.103	1	0
454.274	1	2
454.444	1	-3
454.615	1	2
454.785	1	4
454.956	1	5
455.126	1	9
455.297	1	-7
455.467	1	-3
455.638	1	13
455.808	1	14
455.979	1	13
456.149	1	-4
456.320	1	4
456.490	1	2
456.661	1	1
456.831	1	7
457.001	1	12
457.172	1	0
457.342	1	-4
457.513	1	3
457.683	1	10
457.854	1	6
458.024	1	10
458.195	1	-8
458.365	1	1
458.536	1	-4
458.706	1	10
458.877	1	8
459.047	1	-1
459.218	1	6
459.388	1	17
459.559	1	-8
459.729	1	1
459.899	1	2
460.070	1	3
460.240	1	0
460.411	1	-2
460.581	1	6
460.752	1	11
460.922	1	0
461.093	1	8
461.263	1	-1
461.434	1	-10
461.604	1	5
461.775	1	9
461.945	1	1
462.115	1	6
462.286	1	1
462.456	1	-14
462.627	1	6
462.797	1	-6
462.968	1	18
463.138	1	6
463.309	1	13
463.479	1	-1
463.649	1	7
463.820	1	10
463.990	1	-2
464.161	1	7
464.331	1	6
464.502	1	10
464.672	1	1
464.843	1	-4
465.013	1	5
465.183	1	3
465.354	1	-8
465.524	1	5
465.695	1	3
465.865	1	5
466.036	1	-8
466.206	1	9
466.376	1	5
466.547	1	2
466.717	1	-5
466.888	1	-1
467.058	1	2
467.229	1	5
467.399	1	14
467.569	1	5
467.740	1	5
467.910	1	-6
468.081	1	-2
468.251	1	8
468.422	1	3
468.592	1	-7
468.762	1	13
468.933	1	-1
469.103	1	12
469.274	1	8
469.444	1	0
469.614	1	4
469.785	1	-4
469.955	1	7
470.126	1	9
470.296	1	4
470.467	1	3
470.637	1	-4
470.807	1	-1
470.978	1	5
471.148	1	4
471.319	1	12
471.489	1	-1
471.659	1	-13
471.830	1	2
472.000	1	2
472.171	1	11
472.341	1	6
472.511	1	-1
472.682	1	-5
472.852	1	7
473.023	1	4
473.193	1	2
473.363	1	-4
473.534	1	8
473.704	1	-3
473.875	1	0
474.045	1	3
474.215	1	0
474.386	1	-1
474.556	1	6
474.727	1	9
474.897	1	-2
475.067	1	4
475.238	1	-1
475.408	1	2
475.578	1	1
475.749	1	8
475.919	1	13
476.090	1	7
476.260	1	11
476.430	1	-4
476.601	1	5
476.771	1	7
476.942	1	-10
477.112	1	-4
477.282	1	6
477.453	1	3
477.623	1	9
477.793	1	10
477.964	1	10
478.134	1	4
478.305	1	-1
478.475	1	6
478.645	1	5
478.816	1	3
478.986	1	3
479.156	1	12
479.327	1	-10
479.497	1	-1
479.667	1	6
479.838	1	9
480.008	1	9
480.179	1	-4
480.349	1	6
480.519	1	2
480.690	1	16
480.860	1	4
481.030	1	4
481.201	1	1
481.371	1	-1
481.541	1	4
481.712	1	5
481.882	1	2
482.053	1	3
482.223	1	6
482.393	1	-1
482.564	1	0
482.734	1	6
482.904	1	4
483.075	1	5
483.245	1	-5
483.415	1	4
483.586	1	0
483.756	1	7
483.926	1	-3
484.097	1	6
484.267	1	9
484.437	1	6
484.608	1	5
484.778	1	-4
484.948	1	-4
485.119	1	6
485.289	1	2
485.459	1	-1
485.630	1	5
485.800	1	-8
485.970	1	4
486.141	1	4
486.311	1	3
486.481	1	-6
486.652	1	12
486.822	1	9
486.992	1	-2
487.163	1	1
487.333	1	-3
487.503	1	12
487.674	1	5
487.844	1	7
488.014	1	2
488.185	1	3
488.355	1	-12
488.525	1	16
488.696	1	-3
488.866	1	1
489.036	1	7
489.207	1	8
489.377	1	5
489.547	1	9
489.718	1	6
489.888	1	5
490.058	1	1
490.228	1	-1
490.399	1	6
490.569	1	2
490.739	1	8
490.910	1	-2
491.080	1	3
491.250	1	-1
491.421	1	1
491.591	1	10
491.761	1	9
491.932	1	15
492.102	1	9
492.272	1	14
492.442	1	11
492.613	1	3
492.783	1	-2
492.953	1	-2
493.124	1	-5
493.294	1	2
493.464	1	-1
493.635	1	5
493.805	1	3
493.975	1	-8
494.145	1	7
494.316	1	3
494.486	1	3
494.656	1	0
494.827	1	5
494.997	1	-3
495.167	1	8
495.337	1	12
495.508	1	3
495.678	1	8
495.848	1	-5
496.019	1	-2
496.189	1	-5
496.359	1	7
496.529	1	9
496.700	1	16
496.870	1	3
497.040	1	3
497.211	1	5
497.381	1	11
497.551	1	14
497.721	1	-4
497.892	1	6
498.062	1	2
498.232	1	2
498.403	1	4
498.573	1	4
498.743	1	10
498.913	1	2
499.084	1	7
499.254	1	13
499.424	1	10
499.594	1	6
499.765	1	-5
499.935	1	5
500.105	1	1
500.275	1	0
500.446	1	7
500.616	1	3
500.786	1	7
500.956	1	15
501.127	1	9
501.297	1	6
501.467	1	-7
501.638	1	1
501.808	1	-1
501.978	1	-3
502.148	1	14
502.319	1	11
502.489	1	2
502.659	1	6
502.829	1	0
503.000	1	17
503.170	1	11
503.340	1	6
503.510	1	12
503.681	1	15
503.851	1	-4
504.021	1	0
504.191	1	3
504.362	1	7
504.532	1	-3
504.702	1	8
504.872	1	3
505.042	1	3
505.213	1	3
505.383	1	9
505.553	1	3
505.723	1	-4
505.894	1	17
506.064	1	7
506.234	1	3
506.404	1	3
506.575	1	4
506.745	1	1
506.915	1	12
507.085	1	-3
507.256	1	4
507.426	1	8
507.596	1	16
507.766	1	8
507.936	1	11
508.107	1	3
508.277	1	-3
508.447	1	11
508.617	1	12
508.788	1	-1
508.958	1	-3
509.128	1	2
509.298	1	2
509.468	1	12
509.639	1	10
509.809	1	4
509.979	1	17
510.149	1	9
510.319	1	3
510.490	1	14
510.660	1	2
510.830	1	13
511.000	1	13
511.171	1	16
511.341	1	15
511.511	1	7
511.681	1	7
511.851	1	5
512.022	1	7
512.192	1	12
512.362	1	8
512.532	1	4
512.702	1	-3
512.873	1	3
513.043	1	9
513.213	1	3
513.383	1	8
513.553	1	11
513.724	1	2
513.894	1	6
514.064	1	19
514.234	1	4
514.404	1	2
514.575	1	-5
514.745	1	1
514.915	1	8
515.085	1	5
515.255	1	2
515.425	1	6
515.596	1	4
515.766	1	7
515.936	1	9
516.106	1	12
516.276	1	10
516.447	1	1
516.617	1	-2
516.787	1	8
516.957	1	1
517.127	1	9
517.297	1	16
517.468	1	4
517.638	1	5
517.808	1	13
517.978	1	17
518.148	1	6
518.319	1	14
518.489	1	18
518.659	1	9
518.829	1	12
518.999	1	15
519.169	1	2
519.340	1	13
519.510	1	12
519.680	1	6
519.850	1	0
520.020	1	-7
520.190	1	4
520.361	1	14
520.531	1	17
520.701	1	8
520.871	1	5
521.041	1	14
521.211	1	0
521.382	1	0
521.552	1	8
521.722	1	12
521.892	1	9
522.062	1	6
522.232	1	6
522.402	1	7
522.573	1	9
522.743	1	21
522.913	1	15
523.083	1	13
523.253	1	16
523.423	1	13
523.593	1	0
523.764	1	9
523.934	1	8
524.104	1	17
524.274	1	6
524.444	1	6
524.614	1	9
524.784	1	9
524.955	1	1
525.125	1	12
525.295	1	9
525.465	1	14
525.635	1	20
525.805	1	12
525.975	1	13
526.146	1	4
526.316	1	16
526.486	1	5
526.656	1	17
526.826	1	10
526.996	1	21
527.166	1	13
527.337	1	13
527.507	1	7
527.677	1	9
527.847	1	8
528.017	1	12
528.187	1	-1
528.357	1	-3
528.527	1	7
528.698	1	1
528.868	1	4
529.038	1	-4
529.208	1	4
529.378	1	9
529.548	1	15
529.718	1	17
529.888	1	2
530.058	1	22
530.229	1	13
530.399	1	13
530.569	1	11
530.739	1	15
530.909	1	5
531.079	1	3
531.249	1	3
531.419	1	12
531.589	1	11
531.760	1	3
531.930	1	17
532.100	1	-2
532.270	1	18
532.440	1	12
532.610	1	15
532.780	1	2
532.950	1	0
533.120	1	10
533.290	1	8
533.461	1	12
533.631	1	7
533.801	1	13
533.971	1	12
534.141	1	-5
534.311	1	7
534.481	1	24
534.651	1	20
534.821	1	11
534.991	1	8
535.162	1	7
535.332	1	19
535.502	1	6
535.672	1	14
535.842	1	8
536.012	1	2
536.182	1	10
536.352	1	4
536.522	1	12
536.692	1	12
536.862	1	9
537.032	1	-3
537.203	1	10
537.373	1	11
537.543	1	1
537.713	1	1
537.883	1	18
538.053	1	17
538.223	1	17
538.393	1	11
538.563	1	12
538.733	1	2
538.903	1	4
539.073	1	16
539.243	1	3
539.413	1	7
539.584	1	8
539.754	1	11
539.924	1	6
540.094	1	10
540.264	1	18
540.434	1	14
540.604	1	12
540.774	1	1
540.944	1	-1
541.114	1	1
541.284	1	9
541.454	1	0
541.624	1	4
541.794	1	6
541.964	1	8
542.134	1	6
542.305	1	13
542.475	1	12
542.645	1	0
542.815	1	15
542.985	1	8
543.155	1	7
543.325	1	12
543.495	1	12
543.665	1	8
543.835	1	9
544.005	1	11
544.175	1	9
544.345	1	11
544.515	1	11
544.685	1	12
544.855	1	-6
545.025	1	5
545.195	1	4
545.365	1	5
545.535	1	3
545.705	1	8
545.875	1	9
546.045	1	14
546.216	1	9
546.386	1	9
546.556	1	10
546.726	1	11
546.896	1	16
547.066	1	24
547.236	1	16
547.406	1	5
547.576	1	6
547.746	1	-2
547.916	1	8
548.086	1	8
548.256	1	8
548.426	1	9
548.596	1	3
548.766	1	7
548.936	1	6
549.106	1	14
549.276	1	9
549.446	1	9
549.616	1	8
549.786	1	3
549.956	1	6
550.126	1	8
550.296	1	6
550.466	1	3
550.636	1	8
550.806	1	5
550.976	1	12
551.146	1	6
551.316	1	13
551.486	1	11
551.656	1	13
551.826	1	15
551.996	1	5
552.166	1	6
552.336	1	14
552.506	1	8
552.676	1	6
552.846	1	7
553.016	1	-1
553.186	1	9
553.356	1	7
553.526	1	-1
553.696	1	14
553.866	1	0
554.036	1	10
554.206	1	2
554.376	1	15
554.546	1	-2
554.716	1	7
554.886	1	13
555.056	1	7
555.226	1	-2
555.396	1	9
555.566	1	1
555.736	1	5
555.906	1	7
556.076	1	9
556.246	1	3
556.416	1	5
556.586	1	-3
556.756	1	2
556.926	1	7
557.096	1	5
557.266	1	11
557.436	1	-7
557.606	1	15
557.776	1	5
557.946	1	10
558.116	1	1
558.286	1	5
558.456	1	2
558.626	1	21
558.796	1	9
558.966	1	9
559.136	1	14
559.306	1	18
559.476	1	-6
559.646	1	8
559.816	1	1
559.986	1	19
560.155	1	6
560.325	1	7
560.495	1	7
560.665	1	6
560.835	1	1
561.005	1	7
561.175	1	-6
561.345	1	4
561.515	1	5
561.685	1	7
561.855	1	6
562.025	1	7
562.195	1	9
562.365	1	12
562.535	1	15
562.705	1	10
562.875	1	9
563.045	1	7
563.215	1	-2
563.385	1	6
563.555	1	9
563.725	1	-2
563.895	1	5
564.064	1	6
564.234	1	7
564.404	1	7
564.574	1	-1
564.744	1	10
564.914	1	-2
565.084	1	-1
565.254	1	4
565.424	1	12
565.594	1	11
565.764	1	9
565.934	1	14
566.104	1	7
566.274	1	-3
566.444	1	7
566.614	1	1
566.783	1	7
566.953	1	5
567.123	1	3
567.293	1	12
567.463	1	-2
567.633	1	11
567.803	1	3
567.973	1	9
568.143	1	-2
568.313	1	6
568.483	1	2
568.653	1	1
568.823	1	7
568.993	1	8
569.162	1	6
569.332	1	6
569.502	1	-3
569.672	1	2
569.842	1	6
570.012	1	11
570.182	1	4
570.352	1	9
570.522	1	-2
570.692	1	10
570.862	1	3
571.031	1	4
571.201	1	8
571.371	1	1
571.541	1	-3
571.711	1	2
571.881	1	-4
572.051	1	3
572.221	1	3
572.391	1	10
572.561	1	6
572.731	1	3
572.900	1	8
573.070	1	7
573.240	1	4
573.410	1	13
573.580	1	-1
573.750	1	4
573.920	1	12
574.090	1	0
574.260	1	4
574.430	1	13
574.599	1	-2
574.769	1	-5
574.939	1	0
575.109	1	3
575.279	1	7
575.449	1	7
575.619	1	12
575.789	1	-3
575.959	1	-2
576.128	1	3
576.298	1	7
576.468	1	8
576.638	1	15
576.808	1	7
576.978	1	-3
577.148	1	5
577.318	1	-3
577.487	1	10
577.657	1	11
577.827	1	-5
577.997	1	4
578.167	1	4
578.337	1	7
578.507	1	17
578.677	1	16
578.846	1	2
579.016	1	6
579.186	1	1
579.356	1	1
579.526	1	6
579.696	1	-2
579.866	1	6
580.036	1	3
580.205	1	6
580.375	1	3
580.545	1	2
580.715	1	5
580.885	1	-3
581.055	1	13
581.225	1	6
581.394	1	10
581.564	1	4
581.734	1	5
581.904	1	-3
582.074	1	8
582.244	1	5
582.414	1	-1
582.583	1	8
582.753	1	4
582.923	1	10
583.093	1	13
583.263	1	15
583.433	1	7
583.603	1	-6
583.772	1	2
583.942	1	6
584.112	1	0
584.282	1	-6
584.452	1	-6
584.622	1	8
584.791	1	2
584.961	1	10
585.131	1	12
585.301	1	4
585.471	1	12
585.641	1	3
585.811	1	-10
585.980	1	-3
586.150	1	0
586.320	1	5
586.490	1	2
586.660	1	6
586.830	1	-1
586.999	1	6
587.169	1	15
587.339	1	0
587.509	1	-1
587.679	1	4
587.849	1	0
588.018	1	-2
588.188	1	1
588.358	1	11
588.528	1	5
588.698	1	-3
588.867	1	1
589.037	1	3
589.207	1	1
589.377	1	-3
589.547	1	13
589.717	1	12
589.886	1	-1
590.056	1	2
590.226	1	-7
590.396	1	9
590.566	1	3
590.735	1	-4
590.905	1	13
591.075	1	14
591.245	1	-3
591.415	1	12
591.585	1	6
591.754	1	4
591.924	1	-2
592.094	1	11
592.264	1	-13
592.434	1	-3
592.603	1	-1
592.773	1	3
592.943	1	7
593.113	1	9
593.283	1	5
593.452	1	5
593.622	1	-3
593.792	1	9
593.962	1	5
594.132	1	10
594.301	1	7
594.471	1	3
594.641	1	7
594.811	1	1
594.981	1	19
595.150	1	3
595.320	1	6
595.490	1	2
595.660	1	9
595.829	1	-3
595.999	1	11
596.169	1	9
596.339	1	11
596.509	1	0
596.678	1	-2
596.848	1	-1
597.018	1	4
597.188	1	-3
597.358	1	2
597.527	1	1
597.697	1	1
597.867	1	7
598.037	1	4
598.206	1	2
598.376	1	-2
598.546	1	5
598.716	1	5
598.885	1	4
599.055	1	-6
599.225	1	10
599.395	1	0
599.565	1	14
599.734	1	7
599.904	1	3
600.074	1	10
600.244	1	8
600.413	1	-5
600.583	1	7
600.753	1	10
600.923	1	2
601.092	1	-3
601.262	1	6
601.432	1	-2
601.602	1	10
601.771	1	10
601.941	1	-5
602.111	1	2
602.281	1	10
602.451	1	15
602.620	1	8
602.790	1	14
602.960	1	1
603.130	1	-1
603.299	1	2
603.469	1	5
603.639	1	6
603.809	1	-6
603.978	1	5
604.148	1	6
604.318	1	-2
604.487	1	7
604.657	1	11
604.827	1	-8
604.997	1	5
605.166	1	10
605.336	1	5
605.506	1	4
605.676	1	11
605.845	1	7
606.015	1	0
606.185	1	11
606.355	1	4
606.524	1	7
606.694	1	-5
606.864	1	0
607.034	1	2
607.203	1	3
607.373	1	4
607.543	1	5
607.712	1	-11
607.882	1	3
608.052	1	0
608.222	1	-5
608.391	1	3
608.561	1	13
608.731	1	4
608.901	1	7
609.070	1	-8
609.240	1	-5
609.410	1	0
609.579	1	-4
609.749	1	9
609.919	1	-1
610.089	1	8
610.258	1	9
610.428	1	9
610.598	1	3
610.767	1	1
610.937	1	3
611.107	1	-6
611.277	1	-2
611.446	1	3
611.616	1	5
611.786	1	0
611.955	1	-1
612.125	1	5
612.295	1	1
612.465	1	6
612.634	1	2
612.804	1	8
612.974	1	-2
613.143	1	1
613.313	1	1
613.483	1	1
613.652	1	14
613.822	1	7
613.992	1	4
614.162	1	5
614.331	1	0
614.501	1	-2
614.671	1	13
614.840	1	-7
615.010	1	10
615.180	1	12
615.349	1	16
615.519	1	-7
615.689	1	19
615.858	1	10
616.028	1	7
616.198	1	6
616.368	1	5
616.537	1	-1
616.707	1	9
616.877	1	0
617.046	1	6
617.216	1	13
617.386	1	1
617.555	1	-3
617.725	1	6
617.895	1	2
618.064	1	-6
618.234	1	1
618.404	1	-1
618.573	1	-7
618.743	1	5
618.913	1	2
619.082	1	9
619.252	1	8
619.422	1	-4
619.591	1	10
619.761	1	3
619.931	1	6
620.100	1	1
620.270	1	4
620.440	1	9
620.609	1	7
620.779	1	6
620.949	1	7
621.118	1	-6
621.288	1	-1
621.458	1	2
621.627	1	13
621.797	1	-1
621.967	1	7
622.136	1	2
622.306	1	5
622.476	1	-2
622.645	1	2
622.815	1	3
622.985	1	10
623.154	1	4
623.324	1	-1
623.494	1	-1
623.663	1	4
623.833	1	6
624.002	1	1
624.172	1	8
624.342	1	7
624.511	1	13
624.681	1	-1
624.851	1	-1
625.020	1	2
625.190	1	4
625.360	1	6
625.529	1	12
625.699	1	-2
625.869	1	12
626.038	1	-4
626.208	1	6
626.377	1	9
626.547	1	2
626.717	1	-1
626.886	1	2
627.056	1	-4
627.226	1	6
627.395	1	-5
627.565	1	3
627.735	1	-10
627.904	1	3
628.074	1	9
628.243	1	-1
628.413	1	-1
628.583	1	-12
628.752	1	-2
628.922	1	-8
629.091	1	-3
629.261	1	10
629.431	1	7
629.600	1	-4
629.770	1	0
629.940	1	9
630.109	1	6
630.279	1	9
630.448	1	9
630.618	1	-3
630.788	1	3
630.957	1	9
631.127	1	1
631.297	1	-9
631.466	1	2
631.636	1	6
631.805	1	15
631.975	1	3
632.145	1	9
632.314	1	-4
632.484	1	-6
632.653	1	15
632.823	1	0
632.993	1	2
633.162	1	15
633.332	1	4
633.501	1	9
633.671	1	5
633.841	1	-3
634.010	1	5
634.180	1	0
634.349	1	-11
634.519	1	4
634.689	1	4
634.858	1	12
635.028	1	8
635.197	1	11
635.367	1	-2
635.537	1	-5
635.706	1	-7
635.876	1	0
636.045	1	3
636.215	1	4
636.384	1	-8
636.554	1	-10
636.724	1	13
636.893	1	10
637.063	1	0
637.232	1	7
637.402	1	13
637.572	1	0
637.741	1	-2
637.911	1	1
638.080	1	10
638.250	1	13
638.419	1	-3
638.589	1	4
638.759	1	5
638.928	1	7
639.098	1	-3
639.267	1	5
639.437	1	-7
639.606	1	-2
639.776	1	1
639.946	1	-3
640.115	1	10
640.285	1	4
640.454	1	6
640.624	1	-6
640.793	1	-4
640.963	1	-1
641.132	1	0
641.302	1	-6
641.472	1	-1
641.641	1	0
641.811	1	3
641.980	1	-4
642.150	1	1
642.319	1	3
642.489	1	-2
642.659	1	9
642.828	1	5
642.998	1	6
643.167	1	7
643.337	1	3
643.506	1	-2
643.676	1	4
643.845	1	5
644.015	1	-7
644.184	1	7
644.354	1	-4
644.524	1	-4
644.693	1	3
644.863	1	-6
645.032	1	2
645.202	1	7
645.371	1	5
645.541	1	8
645.710	1	6
645.880	1	8
646.049	1	10
646.219	1	-2
646.388	1	7
646.558	1	7
646.728	1	3
646.897	1	10
647.067	1	-8
647.236	1	3
647.406	1	10
647.575	1	-8
647.745	1	2
647.914	1	1
648.084	1	3
648.253	1	6
648.423	1	8
648.592	1	8
648.762	1	8
648.931	1	3
649.101	1	-4
649.270	1	-2
649.440	1	-1
649.610	1	5
649.779	1	-5
649.949	1	2
650.118	1	5
650.288	1	5
650.457	1	3
650.627	1	-10
650.796	1	-3
650.966	1	5
651.135	1	6
651.305	1	-4
651.474	1	11
651.644	1	5
651.813	1	10
651.983	1	16
652.152	1	-5
652.322	1	-5
652.491	1	5
652.661	1	10
652.830	1	7
653.000	1	0
653.169	1	-1
653.339	1	-3
653.508	1	17
653.678	1	3
653.847	1	5
654.017	1	4
654.186	1	11
654.356	1	-1
654.525	1	3
654.695	1	13
654.864	1	12
655.034	1	3
655.203	1	6
655.373	1	12
655.542	1	0
655.712	1	5
655.881	1	1
656.051	1	4
656.220	1	-12
656.390	1	2
656.559	1	3
656.729	1	9
656.898	1	2
657.068	1	11
657.237	1	7
657.406	1	0
657.576	1	2
657.745	1	4
657.915	1	5
658.084	1	-6
658.254	1	9
658.423	1	-3
658.593	1	1
658.762	1	1
658.932	1	0
659.101	1	5
659.271	1	9
659.440	1	2
659.610	1	5
659.779	1	2
659.949	1	1
660.118	1	8
660.288	1	2
660.457	1	10
660.626	1	1
660.796	1	2
660.965	1	6
661.135	1	-1
661.304	1	4
661.474	1	8
661.643	1	4
661.813	1	3
661.982	1	9
662.152	1	-1
662.321	1	5
662.491	1	-11
662.660	1	-4
662.829	1	10
662.999	1	8
663.168	1	-3
663.338	1	13
663.507	1	-3
663.677	1	-8
663.846	1	-5
664.016	1	7
664.185	1	6
664.354	1	-4
664.524	1	7
664.693	1	-3
664.863	1	5
665.032	1	-4
665.202	1	17
665.371	1	-6
665.541	1	11
665.710	1	6
665.879	1	16
666.049	1	-3
666.218	1	8
666.388	1	9
666.557	1	1
666.727	1	1
666.896	1	-4
667.065	1	-4
667.235	1	-4
667.404	1	0
667.574	1	-6
667.743	1	0
667.913	1	4
668.082	1	10
668.251	1	9
668.421	1	2
668.590	1	-3
668.760	1	7
668.929	1	9
669.099	1	11
669.268	1	-5
669.437	1	3
669.607	1	3
669.776	1	-1
669.946	1	5
670.115	1	4
670.285	1	14
670.454	1	3
670.623	1	6
670.793	1	12
670.962	1	3
671.132	1	6
671.301	1	9
671.470	1	4
671.640	1	1
671.809	1	-1
671.979	1	0
672.148	1	-6
672.317	1	7
672.487	1	11
672.656	1	3
672.826	1	0
672.995	1	0
673.164	1	-3
673.334	1	-1
673.503	1	4
673.673	1	2
673.842	1	4
674.011	1	7
674.181	1	5
674.350	1	8
674.520	1	1
674.689	1	6
674.858	1	-6
675.028	1	1
675.197	1	4
675.367	1	3
675.536	1	-2
675.705	1	8
675.875	1	5
676.044	1	18
676.214	1	2
676.383	1	1
676.552	1	5
676.722	1	9
676.891	1	11
677.060	1	-5
677.230	1	7
677.399	1	9
677.569	1	0
677.738	1	-1
677.907	1	-9
678.077	1	9
678.246	1	-6
678.416	1	-8
678.585	1	13
678.754	1	-1
678.924	1	8
679.093	1	2
679.262	1	4
679.432	1	2
679.601	1	4
679.771	1	1
679.940	1	16
680.109	1	6
680.279	1	6
680.448	1	10
680.617	1	-5
680.787	1	-1
680.956	1	-10
681.125	1	14
681.295	1	-5
681.464	1	9
681.634	1	0
681.803	1	4
681.972	1	-6
682.142	1	2
682.311	1	0
682.480	1	7
682.650	1	3
682.819	1	16
682.988	1	-4
683.158	1	5
683.327	1	5
683.496	1	11
683.666	1	7
683.835	1	-1
684.004	1	7
684.174	1	2
684.343	1	12
684.512	1	2
684.682	1	3
684.851	1	4
685.021	1	-5
685.190	1	-3
685.359	1	2
685.529	1	10
685.698	1	-2
685.867	1	6
686.037	1	-7
686.206	1	2
686.375	1	6
686.545	1	9
686.714	1	3
686.883	1	-10
687.053	1	-3
687.222	1	-2
687.391	1	10
687.561	1	3
687.730	1	15
687.899	1	-8
688.069	1	5
688.238	1	-3
688.407	1	-1
688.577	1	17
688.746	1	-3
