340.368	1	3
340.539	1	1
340.710	1	-1
340.881	1	7
341.052	1	7
341.223	1	6
341.394	1	-2
341.565	1	5
341.737	1	-14
341.908	1	7
342.079	1	2
342.250	1	4
342.421	1	-3
342.592	1	6
342.763	1	1
342.934	1	-1
343.105	1	9
343.276	1	0
343.447	1	-12
343.618	1	-1
343.789	1	3
343.960	1	8
344.131	1	-1
344.302	1	-5
344.473	1	7
344.644	1	5
344.815	1	14
344.986	1	7
345.157	1	-3
345.328	1	2
345.499	1	-11
345.670	1	10
345.841	1	14
346.012	1	5
346.183	1	13
346.354	1	-1
346.526	1	0
346.697	1	13
346.868	1	3
347.039	1	-2
347.210	1	-3
347.381	1	2
347.552	1	10
347.723	1	14
347.894	1	2
348.065	1	-6
348.236	1	1
348.407	1	1
348.578	1	8
348.749	1	2
348.920	1	1
349.091	1	7
349.262	1	7
349.433	1	-3
349.604	1	6
349.775	1	6
349.946	1	8
350.117	1	-3
350.288	1	-6
350.459	1	-1
350.630	1	9
350.801	1	-2
350.972	1	-7
351.143	1	-11
351.314	1	6
351.485	1	3
351.656	1	-15
351.827	1	4
351.998	1	5
352.169	1	-5
352.340	1	5
352.511	1	4
352.682	1	4
352.853	1	5
353.024	1	8
353.195	1	7
353.366	1	4
353.537	1	-1
353.708	1	2
353.879	1	0
354.050	1	-5
354.221	1	0
354.392	1	-4
354.563	1	-1
354.734	1	5
354.905	1	9
355.076	1	-2
355.247	1	-4
355.418	1	-6
355.589	1	7
355.760	1	0
355.931	1	7
356.102	1	1
356.273	1	-4
356.444	1	-4
356.615	1	2
356.785	1	0
356.956	1	5
357.127	1	2
357.298	1	8
357.469	1	-6
357.640	1	-5
357.811	1	2
357.982	1	-4
358.153	1	6
358.324	1	2
358.495	1	-3
358.666	1	11
358.837	1	6
359.008	1	4
359.179	1	-7
359.350	1	0
359.521	1	4
359.692	1	5
359.863	1	0
360.034	1	3
360.205	1	13
360.376	1	0
360.547	1	3
360.718	1	4
360.889	1	-1
361.060	1	-2
361.231	1	9
361.401	1	-7
361.572	1	3
361.743	1	6
361.914	1	-3
362.085	1	-9
362.256	1	-5
362.427	1	7
362.598	1	5
362.769	1	-5
362.940	1	16
363.111	1	10
363.282	1	4
363.453	1	-8
363.624	1	2
363.795	1	-4
363.966	1	3
364.137	1	0
364.308	1	5
364.478	1	3
364.649	1	1
364.820	1	0
364.991	1	5
365.162	1	0
365.333	1	-12
365.504	1	0
365.675	1	4
365.846	1	-8
366.017	1	-2
366.188	1	-3
366.359	1	0
366.530	1	14
366.701	1	-4
366.871	1	0
367.042	1	-8
367.213	1	0
367.384	1	4
367.555	1	3
367.726	1	2
367.897	1	4
368.068	1	11
368.239	1	7
368.410	1	4
368.581	1	0
368.752	1	2
368.923	1	-4
369.093	1	-10
369.264	1	-1
369.435	1	-2
369.606	1	-2
369.777	1	12
369.948	1	7
370.119	1	-4
370.290	1	0
370.461	1	2
370.632	1	2
370.803	1	0
370.973	1	6
371.144	1	-5
371.315	1	14
371.486	1	0
371.657	1	0
371.828	1	-3
371.999	1	3
372.170	1	4
372.341	1	20
372.512	1	-2
372.682	1	0
372.853	1	8
373.024	1	-4
373.195	1	-11
373.366	1	12
373.537	1	9
373.708	1	-4
373.879	1	-4
374.050	1	8
374.220	1	7
374.391	1	-2
374.562	1	-3
374.733	1	5
374.904	1	0
375.075	1	-4
375.246	1	1
375.417	1	5
375.588	1	0
375.758	1	9
375.929	1	2
376.100	1	9
376.271	1	8
376.442	1	11
376.613	1	0
376.784	1	-7
376.955	1	1
377.125	1	3
377.296	1	-5
377.467	1	3
377.638	1	9
377.809	1	3
377.980	1	-1
378.151	1	-2
378.321	1	6
378.492	1	-4
378.663	1	0
378.834	1	-8
379.005	1	-1
379.176	1	-1
379.347	1	-8
379.518	1	1
379.688	1	2
379.859	1	-5
380.030	1	0
380.201	1	-9
380.372	1	11
380.543	1	2
380.714	1	14
380.884	1	-4
381.055	1	11
381.226	1	7
381.397	1	3
381.568	1	-1
381.739	1	-1
381.910	1	2
382.080	1	-1
382.251	1	3
382.422	1	3
382.593	1	11
382.764	1	2
382.935	1	-5
383.105	1	8
383.276	1	4
383.447	1	9
383.618	1	-3
383.789	1	14
383.960	1	9
384.130	1	-15
384.301	1	-7
384.472	1	-4
384.643	1	1
384.814	1	6
384.985	1	-1
385.156	1	2
385.326	1	-1
385.497	1	1
385.668	1	5
385.839	1	-6
386.010	1	4
386.180	1	9
386.351	1	5
386.522	1	8
386.693	1	2
386.864	1	0
387.035	1	-2
387.205	1	-2
387.376	1	-4
387.547	1	9
387.718	1	0
387.889	1	3
388.060	1	7
388.230	1	4
388.401	1	-8
388.572	1	0
388.743	1	6
388.914	1	-5
389.084	1	3
389.255	1	5
389.426	1	13
389.597	1	4
389.768	1	13
389.939	1	-4
390.109	1	4
390.280	1	0
390.451	1	2
390.622	1	-4
390.793	1	10
390.963	1	3
391.134	1	-1
391.305	1	0
391.476	1	11
391.647	1	-7
391.817	1	5
391.988	1	6
392.159	1	4
392.330	1	2
392.501	1	1
392.671	1	0
392.842	1	-5
393.013	1	-9
393.184	1	1
393.355	1	8
393.525	1	5
393.696	1	5
393.867	1	4
394.038	1	-7
394.208	1	9
394.379	1	0
394.550	1	6
394.721	1	-6
394.892	1	6
395.062	1	0
395.233	1	7
395.404	1	9
395.575	1	-1
395.746	1	3
395.916	1	-4
396.087	1	7
396.258	1	10
396.429	1	8
396.599	1	-11
396.770	1	9
396.941	1	5
397.112	1	3
397.283	1	4
397.453	1	10
397.624	1	2
397.795	1	-3
397.966	1	9
398.136	1	-1
398.307	1	-5
398.478	1	6
398.649	1	15
398.819	1	7
398.990	1	1
399.161	1	-12
399.332	1	0
399.503	1	8
399.673	1	3
399.844	1	-5
400.015	1	0
400.186	1	4
400.356	1	-1
400.527	1	2
400.698	1	-9
400.869	1	4
401.039	1	6
401.210	1	5
401.381	1	9
401.552	1	4
401.722	1	0
401.893	1	9
402.064	1	8
402.235	1	7
402.405	1	1
402.576	1	-6
402.747	1	2
402.918	1	-3
403.088	1	7
403.259	1	4
403.430	1	6
403.601	1	9
403.771	1	-4
403.942	1	10
404.113	1	2
404.284	1	-15
404.454	1	-9
404.625	1	5
404.796	1	1
404.967	1	3
405.137	1	5
405.308	1	10
405.479	1	-4
405.649	1	9
405.820	1	3
405.991	1	5
406.162	1	3
406.332	1	-4
406.503	1	2
406.674	1	0
406.845	1	5
407.015	1	1
407.186	1	7
407.357	1	1
407.527	1	-2
407.698	1	0
407.869	1	0
408.040	1	2
408.210	1	-2
408.381	1	8
408.552	1	-5
408.722	1	1
408.893	1	7
409.064	1	-3
409.235	1	5
409.405	1	4
409.576	1	0
409.747	1	-2
409.917	1	3
410.088	1	4
410.259	1	6
410.430	1	-4
410.600	1	3
410.771	1	2
410.942	1	8
411.112	1	3
411.283	1	1
411.454	1	7
411.625	1	-8
411.795	1	10
411.966	1	-2
412.137	1	-8
412.307	1	7
412.478	1	-3
412.649	1	6
412.819	1	-4
412.990	1	0
413.161	1	11
413.332	1	-2
413.502	1	-1
413.673	1	-6
413.844	1	7
414.014	1	1
414.185	1	4
414.356	1	-7
414.526	1	0
414.697	1	0
414.868	1	-4
415.038	1	-10
415.209	1	-9
415.380	1	9
415.550	1	-1
415.721	1	0
415.892	1	1
416.063	1	2
416.233	1	4
416.404	1	10
416.575	1	0
416.745	1	6
416.916	1	-2
417.087	1	3
417.257	1	2
417.428	1	-5
417.599	1	5
417.769	1	6
417.940	1	-2
418.111	1	11
418.281	1	0
418.452	1	5
418.623	1	-7
418.793	1	8
418.964	1	-4
419.135	1	10
419.305	1	-3
419.476	1	1
419.647	1	4
419.817	1	-3
419.988	1	3
420.159	1	6
420.329	1	8
420.500	1	-3
420.671	1	0
420.841	1	-3
421.012	1	0
421.183	1	-4
421.353	1	8
421.524	1	3
421.695	1	-11
421.865	1	1
422.036	1	10
422.206	1	3
422.377	1	6
422.548	1	6
422.718	1	9
422.889	1	-3
423.060	1	3
423.230	1	5
423.401	1	9
423.572	1	3
423.742	1	-2
423.913	1	2
424.084	1	15
424.254	1	-3
424.425	1	-10
424.595	1	3
424.766	1	3
424.937	1	8
425.107	1	-2
425.278	1	2
425.449	1	2
425.619	1	-3
425.790	1	4
425.961	1	1
426.131	1	10
426.302	1	-1
426.472	1	-1
426.643	1	5
426.814	1	-7
426.984	1	-2
427.155	1	21
427.326	1	3
427.496	1	5
427.667	1	8
427.837	1	7
428.008	1	14
428.179	1	-1
428.349	1	-3
428.520	1	1
428.691	1	1
428.861	1	4
429.032	1	4
429.202	1	-5
429.373	1	5
429.544	1	-2
429.714	1	1
429.885	1	5
430.055	1	-2
430.226	1	4
430.397	1	0
430.567	1	6
430.738	1	-5
430.909	1	3
431.079	1	4
431.250	1	19
431.420	1	-2
431.591	1	0
431.762	1	1
431.932	1	1
432.103	1	4
432.273	1	1
432.444	1	7
432.615	1	-3
432.785	1	2
432.956	1	6
433.126	1	2
433.297	1	-4
433.468	1	-3
433.638	1	3
433.809	1	-5
433.979	1	5
434.150	1	0
434.320	1	4
434.491	1	1
434.662	1	-13
434.832	1	15
435.003	1	-2
435.173	1	8
435.344	1	4
435.515	1	4
435.685	1	0
435.856	1	6
436.026	1	1
436.197	1	-13
436.368	1	15
436.538	1	11
436.709	1	-6
436.879	1	5
437.050	1	-7
437.220	1	9
437.391	1	-3
437.562	1	-1
437.732	1	2
437.903	1	12
438.073	1	-4
438.244	1	0
438.414	1	-2
438.585	1	-1
438.756	1	-5
438.926	1	7
439.097	1	1
439.267	1	1
439.438	1	5
439.608	1	1
439.779	1	15
439.949	1	9
440.120	1	-3
440.291	1	6
440.461	1	6
440.632	1	-2
440.802	1	11
440.973	1	7
441.143	1	-3
441.314	1	1
441.485	1	-4
441.655	1	9
441.826	1	6
441.996	1	-8
442.167	1	-1
442.337	1	-1
442.508	1	-6
442.678	1	12
442.849	1	3
443.019	1	-5
443.190	1	6
443.361	1	11
443.531	1	-3
443.702	1	8
443.872	1	-1
444.043	1	3
444.213	1	7
444.384	1	2
444.554	1	-4
444.725	1	0
444.895	1	-11
445.066	1	6
445.237	1	4
445.407	1	12
445.578	1	3
445.748	1	-2
445.919	1	6
446.089	1	3
446.260	1	11
446.430	1	-4
446.601	1	1
446.771	1	-3
446.942	1	0
447.112	1	8
447.283	1	5
447.453	1	5
447.624	1	4
447.794	1	4
447.965	1	0
448.135	1	-1
448.306	1	6
448.477	1	-1
448.647	1	-5
448.818	1	8
448.988	1	4
449.159	1	-1
449.329	1	-1
449.500	1	11
449.670	1	-10
449.841	1	-8
450.011	1	12
450.182	1	5
450.352	1	-3
450.523	1	11
450.693	1	-9
450.864	1	8
451.034	1	3
451.205	1	0
451.375	1	-4
451.546	1	-6
451.716	1	6
451.887	1	-5
452.057	1	-9
452.228	1	5
452.398	1	-4
452.569	1	7
452.739	1	-2
452.910	1	4
453.080	1	5
453.251	1	4
453.421	1	5
453.592	1	4
453.762	1	3
453.933	1	4
454.103	1	-13
454.274	1	1
454.444	1	2
454.615	1	3
454.785	1	-2
454.956	1	2
455.126	1	11
455.297	1	-10
455.467	1	-9
455.638	1	6
455.808	1	11
455.979	1	4
456.149	1	0
456.320	1	1
456.490	1	2
456.661	1	-2
456.831	1	-1
457.001	1	6
457.172	1	-7
457.342	1	1
457.513	1	12
457.683	1	13
457.854	1	9
458.024	1	10
458.195	1	1
458.365	1	-2
458.536	1	-9
458.706	1	7
458.877	1	0
459.047	1	12
459.218	1	3
459.388	1	8
459.559	1	-6
459.729	1	-4
459.899	1	3
460.070	1	10
460.240	1	-7
460.411	1	2
460.581	1	4
460.752	1	4
460.922	1	-9
461.093	1	14
461.263	1	0
461.434	1	-1
461.604	1	6
461.775	1	7
461.945	1	0
462.115	1	6
462.286	1	-2
462.456	1	-4
462.627	1	7
462.797	1	7
462.968	1	9
463.138	1	2
463.309	1	1
463.479	1	-14
463.649	1	4
463.820	1	0
463.990	1	-4
464.161	1	7
464.331	1	3
464.502	1	6
464.672	1	-1
464.843	1	-3
465.013	1	4
465.183	1	5
465.354	1	-4
465.524	1	4
465.695	1	6
465.865	1	-7
466.036	1	-9
466.206	1	8
466.376	1	6
466.547	1	3
466.717	1	-6
466.888	1	-9
467.058	1	-3
467.229	1	8
467.399	1	5
467.569	1	-1
467.740	1	-3
467.910	1	-11
468.081	1	0
468.251	1	2
468.422	1	4
468.592	1	4
468.762	1	7
468.933	1	0
469.103	1	6
469.274	1	3
469.444	1	-3
469.614	1	0
469.785	1	-3
469.955	1	1
470.126	1	0
470.296	1	-3
470.467	1	2
470.637	1	-1
470.807	1	-2
470.978	1	-2
471.148	1	4
471.319	1	2
471.489	1	0
471.659	1	-14
471.830	1	-2
472.000	1	7
472.171	1	3
472.341	1	11
472.511	1	0
472.682	1	-4
472.852	1	6
473.023	1	5
473.193	1	0
473.363	1	-2
473.534	1	8
473.704	1	9
473.875	1	-9
474.045	1	1
474.215	1	5
474.386	1	-4
474.556	1	2
474.727	1	6
474.897	1	-1
475.067	1	1
475.238	1	5
475.408	1	-2
475.578	1	3
475.749	1	-3
475.919	1	1
476.090	1	0
476.260	1	6
476.430	1	-3
476.601	1	4
476.771	1	4
476.942	1	-7
477.112	1	-7
477.282	1	5
477.453	1	2
477.623	1	7
477.793	1	9
477.964	1	4
478.134	1	4
478.305	1	-13
478.475	1	4
478.645	1	2
478.816	1	-1
478.986	1	-1
479.156	1	8
479.327	1	-12
479.497	1	-2
479.667	1	-2
479.838	1	8
480.008	1	-1
480.179	1	-1
480.349	1	6
480.519	1	9
480.690	1	-5
480.860	1	2
481.030	1	5
481.201	1	-8
481.371	1	1
481.541	1	6
481.712	1	1
481.882	1	1
482.053	1	-4
482.223	1	-1
482.393	1	5
482.564	1	-4
482.734	1	9
482.904	1	-4
483.075	1	-1
483.245	1	4
483.415	1	2
483.586	1	7
483.756	1	-7
483.926	1	-6
484.097	1	-11
484.267	1	-2
484.437	1	1
484.608	1	-6
484.778	1	0
484.948	1	-3
485.119	1	11
485.289	1	6
485.459	1	-4
485.630	1	-1
485.800	1	-9
485.970	1	9
486.141	1	6
486.311	1	6
486.481	1	3
486.652	1	6
486.822	1	8
486.992	1	9
487.163	1	-1
487.333	1	-1
487.503	1	-2
487.674	1	4
487.844	1	4
488.014	1	2
488.185	1	6
488.355	1	-2
488.525	1	4
488.696	1	-2
488.866	1	3
489.036	1	13
489.207	1	6
489.377	1	-1
489.547	1	5
489.718	1	11
489.888	1	4
490.058	1	3
490.228	1	-4
490.399	1	3
490.569	1	4
490.739	1	3
490.910	1	-2
491.080	1	-1
491.250	1	1
491.421	1	-4
491.591	1	-4
491.761	1	6
491.932	1	5
492.102	1	5
492.272	1	4
492.442	1	3
492.613	1	1
492.783	1	2
492.953	1	-3
493.124	1	1
493.294	1	-2
493.464	1	-1
493.635	1	-3
493.805	1	-5
493.975	1	3
494.145	1	9
494.316	1	9
494.486	1	3
494.656	1	6
494.827	1	-2
494.997	1	5
495.167	1	1
495.337	1	10
495.508	1	6
495.678	1	4
495.848	1	6
496.019	1	-2
496.189	1	-7
496.359	1	0
496.529	1	-5
496.700	1	6
496.870	1	-6
497.040	1	2
497.211	1	14
497.381	1	6
497.551	1	-2
497.721	1	2
497.892	1	4
498.062	1	-7
498.232	1	-3
498.403	1	0
498.573	1	-6
498.743	1	-1
498.913	1	5
499.084	1	1
499.254	1	13
499.424	1	8
499.594	1	8
499.765	1	-8
499.935	1	-1
500.105	1	-7
500.275	1	4
500.446	1	-4
500.616	1	0
500.786	1	-4
500.956	1	14
501.127	1	11
501.297	1	2
501.467	1	-6
501.638	1	-8
501.808	1	-4
501.978	1	0
502.148	1	7
502.319	1	6
502.489	1	1
502.659	1	4
502.829	1	9
503.000	1	6
503.170	1	4
503.340	1	3
503.510	1	12
503.681	1	5
503.851	1	9
504.021	1	-1
504.191	1	-2
504.362	1	0
504.532	1	-7
504.702	1	7
504.872	1	9
505.042	1	2
505.213	1	-6
505.383	1	2
505.553	1	5
505.723	1	5
505.894	1	8
506.064	1	0
506.234	1	-7
506.404	1	-1
506.575	1	9
506.745	1	7
506.915	1	9
507.085	1	-8
507.256	1	7
507.426	1	-2
507.596	1	2
507.766	1	7
507.936	1	8
508.107	1	1
508.277	1	-5
508.447	1	16
508.617	1	4
508.788	1	0
508.958	1	-4
509.128	1	-2
509.298	1	2
509.468	1	2
509.639	1	12
509.809	1	5
509.979	1	7
510.149	1	4
510.319	1	-2
510.490	1	5
510.660	1	-7
510.830	1	1
511.000	1	0
511.171	1	12
511.341	1	18
511.511	1	2
511.681	1	-3
511.851	1	7
512.022	1	6
512.192	1	10
512.362	1	-2
512.532	1	3
512.702	1	-12
512.873	1	-8
513.043	1	-4
513.213	1	-6
513.383	1	2
513.553	1	0
513.724	1	2
513.894	1	-12
514.064	1	5
514.234	1	-6
514.404	1	0
514.575	1	-2
514.745	1	-1
514.915	1	-7
515.085	1	7
515.255	1	-8
515.425	1	-1
515.596	1	0
515.766	1	0
515.936	1	7
516.106	1	7
516.276	1	1
516.447	1	-7
516.617	1	0
516.787	1	9
516.957	1	-12
517.127	1	1
517.297	1	13
517.468	1	2
517.638	1	-5
517.808	1	15
517.978	1	2
518.148	1	3
518.319	1	-3
518.489	1	2
518.659	1	-1
518.829	1	-3
518.999	1	8
519.169	1	-4
519.340	1	10
519.510	1	-3
519.680	1	0
519.850	1	2
520.020	1	-11
520.190	1	5
520.361	1	-2
520.531	1	10
520.701	1	5
520.871	1	-2
521.041	1	0
521.211	1	8
521.382	1	2
521.552	1	0
521.722	1	-10
521.892	1	4
522.062	1	2
522.232	1	-12
522.402	1	1
522.573	1	0
522.743	1	9
522.913	1	1
523.083	1	-1
523.253	1	0
523.423	1	4
523.593	1	10
523.764	1	2
523.934	1	-8
524.104	1	6
524.274	1	4
524.444	1	-7
524.614	1	-1
524.784	1	5
524.955	1	-1
525.125	1	1
525.295	1	3
525.465	1	5
525.635	1	-2
525.805	1	3
525.975	1	3
526.146	1	-1
526.316	1	3
526.486	1	3
526.656	1	10
526.826	1	4
526.996	1	-3
527.166	1	2
527.337	1	-4
527.507	1	5
527.677	1	-3
527.847	1	9
528.017	1	-2
528.187	1	-5
528.357	1	0
528.527	1	-2
528.698	1	-8
528.868	1	-1
529.038	1	0
529.208	1	1
529.378	1	2
529.548	1	-3
529.718	1	3
529.888	1	2
530.058	1	13
530.229	1	11
530.399	1	3
530.569	1	3
530.739	1	0
530.909	1	-8
531.079	1	8
531.249	1	-2
531.419	1	9
531.589	1	0
531.760	1	5
531.930	1	14
532.100	1	-2
532.270	1	1
532.440	1	3
532.610	1	-4
532.780	1	-3
532.950	1	-16
533.120	1	8
533.290	1	3
533.461	1	0
533.631	1	-6
533.801	1	15
533.971	1	4
534.141	1	-2
534.311	1	1
534.481	1	6
534.651	1	6
534.821	1	9
534.991	1	4
535.162	1	7
535.332	1	4
535.502	1	2
535.672	1	-3
535.842	1	12
536.012	1	-11
536.182	1	0
536.352	1	8
536.522	1	6
536.692	1	3
536.862	1	11
537.032	1	-3
537.203	1	6
537.373	1	-7
537.543	1	-9
537.713	1	-1
537.883	1	8
538.053	1	6
538.223	1	10
538.393	1	11
538.563	1	-2
538.733	1	-3
538.903	1	-4
539.073	1	1
539.243	1	-1
539.413	1	-5
539.584	1	5
539.754	1	3
539.924	1	-7
540.094	1	-2
540.264	1	10
540.434	1	2
540.604	1	4
540.774	1	-5
540.944	1	-11
541.114	1	1
541.284	1	7
541.454	1	-5
541.624	1	-1
541.794	1	-5
541.964	1	3
542.134	1	1
542.305	1	-4
542.475	1	2
542.645	1	-4
542.815	1	0
542.985	1	7
543.155	1	8
543.325	1	2
543.495	1	6
543.665	1	-3
543.835	1	-10
544.005	1	11
544.175	1	-5
544.345	1	3
544.515	1	2
544.685	1	2
544.855	1	-5
545.025	1	-5
545.195	1	2
545.365	1	-1
545.535	1	2
545.705	1	7
545.875	1	-10
546.045	1	-3
546.216	1	3
546.386	1	-3
546.556	1	1
546.726	1	-7
546.896	1	2
547.066	1	23
547.236	1	15
547.406	1	7
547.576	1	-1
547.746	1	-7
547.916	1	2
548.086	1	2
548.256	1	12
548.426	1	10
548.596	1	-1
548.766	1	3
548.936	1	-4
549.106	1	3
549.276	1	7
549.446	1	5
549.616	1	13
549.786	1	8
549.956	1	2
550.126	1	4
550.296	1	0
550.466	1	-6
550.636	1	1
550.806	1	6
550.976	1	9
551.146	1	9
551.316	1	1
551.486	1	4
551.656	1	5
551.826	1	-1
551.996	1	3
552.166	1	4
552.336	1	3
552.506	1	3
552.676	1	1
552.846	1	7
553.016	1	-2
553.186	1	7
553.356	1	10
553.526	1	-7
553.696	1	7
553.866	1	-3
554.036	1	-2
554.206	1	3
554.376	1	3
554.546	1	-11
554.716	1	-1
554.886	1	3
555.056	1	-5
555.226	1	-13
555.396	1	8
555.566	1	4
555.736	1	8
555.906	1	1
556.076	1	0
556.246	1	1
556.416	1	3
556.586	1	0
556.756	1	-5
556.926	1	1
557.096	1	-6
557.266	1	14
557.436	1	-7
557.606	1	3
557.776	1	1
557.946	1	1
558.116	1	0
558.286	1	-3
558.456	1	-2
558.626	1	2
558.796	1	2
558.966	1	4
559.136	1	3
559.306	1	5
559.476	1	0
559.646	1	-5
559.816	1	-2
559.986	1	8
560.155	1	10
560.325	1	-3
560.495	1	4
560.665	1	4
560.835	1	-1
561.005	1	5
561.175	1	-8
561.345	1	-6
561.515	1	1
561.685	1	3
561.855	1	4
562.025	1	-9
562.195	1	3
562.365	1	-3
562.535	1	-3
562.705	1	2
562.875	1	5
563.045	1	-4
563.215	1	-7
563.385	1	-4
563.555	1	-1
563.725	1	-5
563.895	1	3
564.064	1	10
564.234	1	4
564.404	1	-3
564.574	1	-9
564.744	1	5
564.914	1	6
565.084	1	7
565.254	1	6
565.424	1	-4
565.594	1	4
565.764	1	-2
565.934	1	6
566.104	1	4
566.274	1	-6
566.444	1	0
566.614	1	-7
566.783	1	1
566.953	1	8
567.123	1	-2
567.293	1	0
567.463	1	-2
567.633	1	13
567.803	1	10
567.973	1	3
568.143	1	4
568.313	1	-5
568.483	1	6
568.653	1	-4
568.823	1	7
568.993	1	-3
569.162	1	1
569.332	1	10
569.502	1	5
569.672	1	4
569.842	1	-4
570.012	1	4
570.182	1	0
570.352	1	-5
570.522	1	0
570.692	1	2
570.862	1	9
571.031	1	-2
571.201	1	-2
571.371	1	4
571.541	1	0
571.711	1	0
571.881	1	-13
572.051	1	-2
572.221	1	5
572.391	1	-4
572.561	1	1
572.731	1	2
572.900	1	3
573.070	1	0
573.240	1	4
573.410	1	-1
573.580	1	2
573.750	1	-1
573.920	1	6
574.090	1	-4
574.260	1	7
574.430	1	12
574.599	1	-6
574.769	1	-3
574.939	1	-3
575.109	1	-1
575.279	1	-5
575.449	1	2
575.619	1	1
575.789	1	-3
575.959	1	-9
576.128	1	-4
576.298	1	-1
576.468	1	0
576.638	1	10
576.808	1	-2
576.978	1	1
577.148	1	4
577.318	1	-3
577.487	1	4
577.657	1	-2
577.827	1	5
577.997	1	-6
578.167	1	8
578.337	1	0
578.507	1	11
578.677	1	1
578.846	1	5
579.016	1	-1
579.186	1	-3
579.356	1	-2
579.526	1	6
579.696	1	-9
579.866	1	3
580.036	1	4
580.205	1	5
580.375	1	-4
580.545	1	0
580.715	1	3
580.885	1	6
581.055	1	10
581.225	1	-4
581.394	1	3
581.564	1	-2
581.734	1	-1
581.904	1	-5
582.074	1	2
582.244	1	-3
582.414	1	8
582.583	1	4
582.753	1	1
582.923	1	12
583.093	1	-4
583.263	1	13
583.433	1	10
583.603	1	-10
583.772	1	0
583.942	1	5
584.112	1	8
584.282	1	-9
584.452	1	-3
584.622	1	9
584.791	1	-2
584.961	1	7
585.131	1	10
585.301	1	7
585.471	1	8
585.641	1	5
585.811	1	0
585.980	1	-2
586.150	1	-8
586.320	1	2
586.490	1	-1
586.660	1	-1
586.830	1	-4
586.999	1	5
587.169	1	8
587.339	1	-5
587.509	1	5
587.679	1	2
587.849	1	1
588.018	1	-1
588.188	1	-1
588.358	1	12
588.528	1	9
588.698	1	-3
588.867	1	-5
589.037	1	-6
589.207	1	2
589.377	1	2
589.547	1	4
589.717	1	8
589.886	1	-12
590.056	1	7
590.226	1	-5
590.396	1	5
590.566	1	0
590.735	1	0
590.905	1	-5
591.075	1	4
591.245	1	-5
591.415	1	4
591.585	1	9
591.754	1	6
591.924	1	2
592.094	1	5
592.264	1	-4
592.434	1	2
592.603	1	2
592.773	1	5
592.943	1	4
593.113	1	3
593.283	1	6
593.452	1	-4
593.622	1	-10
593.792	1	-2
593.962	1	4
594.132	1	11
594.301	1	2
594.471	1	12
594.641	1	3
594.811	1	-8
594.981	1	9
595.150	1	-4
595.320	1	-2
595.490	1	-3
595.660	1	6
595.829	1	-3
595.999	1	5
596.169	1	2
596.339	1	6
596.509	1	-10
596.678	1	4
596.848	1	2
597.018	1	-2
597.188	1	-2
597.358	1	-4
597.527	1	13
597.697	1	-3
597.867	1	4
598.037	1	-1
598.206	1	10
598.376	1	-5
598.546	1	-2
598.716	1	5
598.885	1	-4
599.055	1	-1
599.225	1	6
599.395	1	2
599.565	1	0
599.734	1	8
599.904	1	5
600.074	1	1
600.244	1	0
600.413	1	-8
600.583	1	2
600.753	1	2
600.923	1	9
601.092	1	-8
601.262	1	-7
601.432	1	4
601.602	1	1
601.771	1	12
601.941	1	-7
602.111	1	6
602.281	1	0
602.451	1	3
602.620	1	8
602.790	1	8
602.960	1	1
603.130	1	-2
603.299	1	4
603.469	1	-1
603.639	1	1
603.809	1	-1
603.978	1	-5
604.148	1	9
604.318	1	-7
604.487	1	18
604.657	1	1
604.827	1	-7
604.997	1	-7
605.166	1	18
605.336	1	-1
605.506	1	6
605.676	1	0
605.845	1	6
606.015	1	-15
606.185	1	10
606.355	1	9
606.524	1	-5
606.694	1	-7
606.864	1	-1
607.034	1	-4
607.203	1	0
607.373	1	7
607.543	1	6
607.712	1	-11
607.882	1	0
608.052	1	-1
608.222	1	1
608.391	1	4
608.561	1	-1
608.731	1	2
608.901	1	0
609.070	1	4
609.240	1	1
609.410	1	5
609.579	1	-4
609.749	1	2
609.919	1	-7
610.089	1	1
610.258	1	5
610.428	1	1
610.598	1	1
610.767	1	-2
610.937	1	7
611.107	1	-5
611.277	1	8
611.446	1	-8
611.616	1	0
611.786	1	-7
611.955	1	4
612.125	1	-2
612.295	1	-4
612.465	1	-6
612.634	1	2
612.804	1	3
612.974	1	3
613.143	1	0
613.313	1	2
613.483	1	-13
613.652	1	8
613.822	1	6
613.992	1	-3
614.162	1	3
614.331	1	-3
614.501	1	-1
614.671	1	4
614.840	1	-2
615.010	1	4
615.180	1	0
615.349	1	13
615.519	1	2
615.689	1	1
615.858	1	-10
616.028	1	-4
616.198	1	-3
616.368	1	-7
616.537	1	4
616.707	1	8
616.877	1	-5
617.046	1	1
617.216	1	5
617.386	1	-2
617.555	1	7
617.725	1	3
617.895	1	4
618.064	1	-5
618.234	1	-1
618.404	1	-1
618.573	1	0
618.743	1	10
618.913	1	0
619.082	1	10
619.252	1	5
619.422	1	0
619.591	1	7
619.761	1	-8
619.931	1	3
620.100	1	-2
620.270	1	0
620.440	1	8
620.609	1	-3
620.779	1	4
620.949	1	6
621.118	1	2
621.288	1	10
621.458	1	-9
621.627	1	8
621.797	1	-6
621.967	1	-4
622.136	1	2
622.306	1	9
622.476	1	-4
622.645	1	0
622.815	1	1
622.985	1	-3
623.154	1	2
623.324	1	-3
623.494	1	5
623.663	1	8
623.833	1	4
624.002	1	-4
624.172	1	0
624.342	1	6
624.511	1	9
624.681	1	1
624.851	1	1
625.020	1	-1
625.190	1	3
625.360	1	2
625.529	1	13
625.699	1	0
625.869	1	4
626.038	1	7
626.208	1	-5
626.377	1	5
626.547	1	-11
626.717	1	5
626.886	1	4
627.056	1	1
627.226	1	6
627.395	1	0
627.565	1	3
627.735	1	-9
627.904	1	-4
628.074	1	-2
628.243	1	-4
628.413	1	-3
628.583	1	-1
628.752	1	-2
628.922	1	0
629.091	1	-6
629.261	1	8
629.431	1	5
629.600	1	-6
629.770	1	5
629.940	1	-1
630.109	1	-10
630.279	1	-2
630.448	1	5
630.618	1	-10
630.788	1	9
630.957	1	7
631.127	1	-5
631.297	1	-5
631.466	1	-2
631.636	1	12
631.805	1	9
631.975	1	-4
632.145	1	2
632.314	1	7
632.484	1	1
632.653	1	14
632.823	1	-5
632.993	1	-13
633.162	1	9
633.332	1	1
633.501	1	0
633.671	1	4
633.841	1	-4
634.010	1	2
634.180	1	0
634.349	1	-9
634.519	1	1
634.689	1	13
634.858	1	-2
635.028	1	2
635.197	1	5
635.367	1	3
635.537	1	-9
635.706	1	-1
635.876	1	-3
636.045	1	8
636.215	1	0
636.384	1	-12
636.554	1	2
636.724	1	8
636.893	1	1
637.063	1	1
637.232	1	1
637.402	1	8
637.572	1	-6
637.741	1	-6
637.911	1	3
638.080	1	11
638.250	1	9
638.419	1	-9
638.589	1	10
638.759	1	4
638.928	1	6
639.098	1	-13
639.267	1	3
639.437	1	1
639.606	1	-7
639.776	1	1
639.946	1	3
640.115	1	3
640.285	1	-4
640.454	1	4
640.624	1	5
640.793	1	1
640.963	1	-4
641.132	1	-2
641.302	1	-3
641.472	1	4
641.641	1	5
641.811	1	13
641.980	1	0
642.150	1	1
642.319	1	-1
642.489	1	-8
642.659	1	1
642.828	1	-8
642.998	1	9
643.167	1	4
643.337	1	5
643.506	1	-1
643.676	1	15
643.845	1	2
644.015	1	-5
644.184	1	12
644.354	1	7
644.524	1	0
644.693	1	5
644.863	1	-12
645.032	1	-1
645.202	1	10
645.371	1	-3
645.541	1	5
645.710	1	4
645.880	1	7
646.049	1	9
646.219	1	5
646.388	1	2
646.558	1	10
646.728	1	-2
646.897	1	8
647.067	1	-2
647.236	1	6
647.406	1	11
647.575	1	3
647.745	1	3
647.914	1	1
648.084	1	0
648.253	1	5
648.423	1	5
648.592	1	9
648.762	1	1
648.931	1	9
649.101	1	1
649.270	1	4
649.440	1	-3
649.610	1	7
649.779	1	3
649.949	1	0
650.118	1	6
650.288	1	4
650.457	1	3
650.627	1	-5
650.796	1	8
650.966	1	8
651.135	1	-6
651.305	1	1
651.474	1	3
651.644	1	11
651.813	1	4
651.983	1	-1
652.152	1	-5
652.322	1	4
652.491	1	8
652.661	1	10
652.830	1	-3
653.000	1	4
653.169	1	-5
653.339	1	1
653.508	1	3
653.678	1	4
653.847	1	-3
654.017	1	9
654.186	1	9
654.356	1	1
654.525	1	2
654.695	1	15
654.864	1	6
655.034	1	-4
655.203	1	-1
655.373	1	8
655.542	1	-3
655.712	1	0
655.881	1	3
656.051	1	3
656.220	1	-1
656.390	1	-4
656.559	1	-7
656.729	1	10
656.898	1	13
657.068	1	11
657.237	1	3
657.406	1	-5
657.576	1	-7
657.745	1	13
657.915	1	5
658.084	1	-12
658.254	1	18
658.423	1	-4
658.593	1	8
658.762	1	1
658.932	1	11
659.101	1	1
659.271	1	4
659.440	1	4
659.610	1	0
659.779	1	3
659.949	1	-5
660.118	1	11
660.288	1	-2
660.457	1	7
660.626	1	-8
660.796	1	13
660.965	1	6
661.135	1	-5
661.304	1	3
661.474	1	11
661.643	1	6
661.813	1	4
661.982	1	2
662.152	1	2
662.321	1	6
662.491	1	-10
662.660	1	-8
662.829	1	-4
662.999	1	16
663.168	1	7
663.338	1	10
663.507	1	-1
663.677	1	-7
663.846	1	5
664.016	1	5
664.185	1	4
664.354	1	-4
664.524	1	2
664.693	1	-3
664.863	1	3
665.032	1	-1
665.202	1	17
665.371	1	0
665.541	1	0
665.710	1	-1
665.879	1	7
666.049	1	1
666.218	1	15
666.388	1	12
666.557	1	-2
666.727	1	6
666.896	1	2
667.065	1	2
667.235	1	2
667.404	1	2
667.574	1	-1
667.743	1	-2
667.913	1	-1
668.082	1	7
668.251	1	6
668.421	1	10
668.590	1	-6
668.760	1	7
668.929	1	11
669.099	1	1
669.268	1	0
669.437	1	-1
669.607	1	7
669.776	1	1
669.946	1	7
670.115	1	2
670.285	1	15
670.454	1	-4
670.623	1	1
670.793	1	6
670.962	1	-3
671.132	1	8
671.301	1	-1
671.470	1	5
671.640	1	5
671.809	1	2
671.979	1	3
672.148	1	5
672.317	1	7
672.487	1	-1
672.656	1	1
672.826	1	5
672.995	1	-3
673.164	1	1
673.334	1	2
673.503	1	6
673.673	1	-1
673.842	1	3
674.011	1	6
674.181	1	0
674.350	1	3
674.520	1	4
674.689	1	0
674.858	1	5
675.028	1	6
675.197	1	5
675.367	1	-1
675.536	1	0
675.705	1	-1
675.875	1	2
676.044	1	15
676.214	1	-13
676.383	1	3
676.552	1	0
676.722	1	2
676.891	1	12
677.060	1	-3
677.230	1	10
677.399	1	-1
677.569	1	-4
677.738	1	3
677.907	1	1
678.077	1	7
678.246	1	-1
678.416	1	1
678.585	1	6
678.754	1	9
678.924	1	12
679.093	1	-3
679.262	1	2
679.432	1	1
679.601	1	8
679.771	1	7
679.940	1	6
680.109	1	0
680.279	1	-1
680.448	1	0
680.617	1	-7
680.787	1	6
680.956	1	-9
681.125	1	14
681.295	1	3
681.464	1	1
681.634	1	3
681.803	1	11
681.972	1	-8
682.142	1	-14
682.311	1	6
682.480	1	2
682.650	1	-1
682.819	1	7
682.988	1	-1
683.158	1	-1
683.327	1	9
683.496	1	3
683.666	1	4
683.835	1	-5
684.004	1	3
684.174	1	-4
684.343	1	11
684.512	1	-3
684.682	1	9
684.851	1	-1
685.021	1	-5
685.190	1	6
685.359	1	-1
685.529	1	8
685.698	1	-9
685.867	1	7
686.037	1	-2
686.206	1	2
686.375	1	10
686.545	1	11
686.714	1	-4
686.883	1	-4
687.053	1	-4
687.222	1	-2
687.391	1	9
687.561	1	2
687.730	1	3
687.899	1	-8
688.069	1	6
688.238	1	-1
688.407	1	0
688.577	1	12
688.746	1	0
