340.368	1	-5
340.539	1	4
340.710	1	-16
340.881	1	-3
341.052	1	8
341.223	1	0
341.394	1	3
341.565	1	2
341.737	1	-12
341.908	1	9
342.079	1	-3
342.250	1	-5
342.421	1	7
342.592	1	0
342.763	1	8
342.934	1	3
343.105	1	17
343.276	1	3
343.447	1	-7
343.618	1	-5
343.789	1	9
343.960	1	-6
344.131	1	-5
344.302	1	-2
344.473	1	0
344.644	1	5
344.815	1	2
344.986	1	2
345.157	1	-2
345.328	1	3
345.499	1	-2
345.670	1	11
345.841	1	-3
346.012	1	2
346.183	1	10
346.354	1	-7
346.526	1	3
346.697	1	5
346.868	1	4
347.039	1	6
347.210	1	-8
347.381	1	-4
347.552	1	8
347.723	1	8
347.894	1	3
348.065	1	-3
348.236	1	-3
348.407	1	-4
348.578	1	9
348.749	1	14
348.920	1	2
349.091	1	9
349.262	1	9
349.433	1	4
349.604	1	3
349.775	1	12
349.946	1	11
350.117	1	3
350.288	1	3
350.459	1	-5
350.630	1	5
350.801	1	-2
350.972	1	-9
351.143	1	5
351.314	1	8
351.485	1	3
351.656	1	-4
351.827	1	9
351.998	1	4
352.169	1	-3
352.340	1	5
352.511	1	1
352.682	1	5
352.853	1	7
353.024	1	9
353.195	1	5
353.366	1	9
353.537	1	10
353.708	1	9
353.879	1	4
354.050	1	-4
354.221	1	2
354.392	1	1
354.563	1	2
354.734	1	3
354.905	1	12
355.076	1	3
355.247	1	1
355.418	1	0
355.589	1	6
355.760	1	0
355.931	1	6
356.102	1	3
356.273	1	-8
356.444	1	3
356.615	1	5
356.785	1	10
356.956	1	7
357.127	1	9
357.298	1	14
357.469	1	3
357.640	1	0
357.811	1	4
357.982	1	-4
358.153	1	9
358.324	1	8
358.495	1	3
358.666	1	14
358.837	1	10
359.008	1	6
359.179	1	3
359.350	1	8
359.521	1	5
359.692	1	16
359.863	1	5
360.034	1	-2
360.205	1	20
360.376	1	6
360.547	1	7
360.718	1	5
360.889	1	15
361.060	1	1
361.231	1	8
361.401	1	6
361.572	1	15
361.743	1	9
361.914	1	7
362.085	1	8
362.256	1	9
362.427	1	2
362.598	1	11
362.769	1	3
362.940	1	24
363.111	1	14
363.282	1	17
363.453	1	8
363.624	1	12
363.795	1	5
363.966	1	22
364.137	1	25
364.308	1	22
364.478	1	10
364.649	1	9
364.820	1	15
364.991	1	17
365.162	1	28
365.333	1	17
365.504	1	23
365.675	1	19
365.846	1	8
366.017	1	23
366.188	1	19
366.359	1	20
366.530	1	24
366.701	1	27
366.871	1	26
367.042	1	13
367.213	1	30
367.384	1	20
367.555	1	29
367.726	1	38
367.897	1	27
368.068	1	41
368.239	1	29
368.410	1	39
368.581	1	25
368.752	1	25
368.923	1	31
369.093	1	20
369.264	1	23
369.435	1	27
369.606	1	28
369.777	1	26
369.948	1	39
370.119	1	23
370.290	1	11
370.461	1	33
370.632	1	23
370.803	1	23
370.973	1	41
371.144	1	15
371.315	1	30
371.486	1	17
371.657	1	19
371.828	1	28
371.999	1	26
372.170	1	25
372.341	1	22
372.512	1	10
372.682	1	25
372.853	1	24
373.024	1	10
373.195	1	19
373.366	1	25
373.537	1	25
373.708	1	11
373.879	1	16
374.050	1	17
374.220	1	12
374.391	1	15
374.562	1	7
374.733	1	21
374.904	1	13
375.075	1	19
375.246	1	8
375.417	1	20
375.588	1	6
375.758	1	18
375.929	1	12
376.100	1	14
376.271	1	15
376.442	1	21
376.613	1	20
376.784	1	4
376.955	1	15
377.125	1	17
377.296	1	12
377.467	1	16
377.638	1	17
377.809	1	16
377.980	1	4
378.151	1	19
378.321	1	8
378.492	1	9
378.663	1	10
378.834	1	10
379.005	1	1
379.176	1	11
379.347	1	2
379.518	1	0
379.688	1	15
379.859	1	13
380.030	1	9
380.201	1	3
380.372	1	13
380.543	1	17
380.714	1	16
380.884	1	12
381.055	1	7
381.226	1	5
381.397	1	14
381.568	1	13
381.739	1	-6
381.910	1	10
382.080	1	6
382.251	1	11
382.422	1	8
382.593	1	11
382.764	1	12
382.935	1	11
383.105	1	12
383.276	1	19
383.447	1	7
383.618	1	6
383.789	1	20
383.960	1	10
384.130	1	-1
384.301	1	-4
384.472	1	-1
384.643	1	2
384.814	1	9
384.985	1	-1
385.156	1	9
385.326	1	14
385.497	1	9
385.668	1	13
385.839	1	2
386.010	1	17
386.180	1	15
386.351	1	2
386.522	1	10
386.693	1	-2
386.864	1	14
387.035	1	4
387.205	1	5
387.376	1	5
387.547	1	7
387.718	1	-1
387.889	1	8
388.060	1	0
388.230	1	4
388.401	1	4
388.572	1	3
388.743	1	10
388.914	1	4
389.084	1	7
389.255	1	15
389.426	1	13
389.597	1	1
389.768	1	2
389.939	1	-1
390.109	1	7
390.280	1	-1
390.451	1	12
390.622	1	3
390.793	1	4
390.963	1	0
391.134	1	7
391.305	1	7
391.476	1	10
391.647	1	-5
391.817	1	5
391.988	1	8
392.159	1	2
392.330	1	16
392.501	1	5
392.671	1	6
392.842	1	-5
393.013	1	4
393.184	1	10
393.355	1	7
393.525	1	5
393.696	1	3
393.867	1	12
394.038	1	0
394.208	1	14
394.379	1	-3
394.550	1	-5
394.721	1	4
394.892	1	4
395.062	1	-2
395.233	1	3
395.404	1	6
395.575	1	1
395.746	1	3
395.916	1	-2
396.087	1	7
396.258	1	-3
396.429	1	4
396.599	1	-1
396.770	1	10
396.941	1	7
397.112	1	6
397.283	1	7
397.453	1	3
397.624	1	0
397.795	1	-3
397.966	1	8
398.136	1	3
398.307	1	2
398.478	1	5
398.649	1	13
398.819	1	2
398.990	1	-14
399.161	1	-8
399.332	1	5
399.503	1	5
399.673	1	7
399.844	1	-2
400.015	1	5
400.186	1	-7
400.356	1	-11
400.527	1	13
400.698	1	6
400.869	1	8
401.039	1	5
401.210	1	6
401.381	1	14
401.552	1	7
401.722	1	6
401.893	1	7
402.064	1	2
402.235	1	9
402.405	1	1
402.576	1	-4
402.747	1	4
402.918	1	-3
403.088	1	14
403.259	1	7
403.430	1	11
403.601	1	6
403.771	1	7
403.942	1	2
404.113	1	-1
404.284	1	-7
404.454	1	-11
404.625	1	4
404.796	1	3
404.967	1	3
405.137	1	9
405.308	1	6
405.479	1	-8
405.649	1	4
405.820	1	8
405.991	1	9
406.162	1	7
406.332	1	-12
406.503	1	-1
406.674	1	6
406.845	1	-4
407.015	1	8
407.186	1	1
407.357	1	-6
407.527	1	9
407.698	1	13
407.869	1	9
408.040	1	-5
408.210	1	3
408.381	1	6
408.552	1	6
408.722	1	-4
408.893	1	8
409.064	1	0
409.235	1	1
409.405	1	10
409.576	1	4
409.747	1	-4
409.917	1	0
410.088	1	6
410.259	1	8
410.430	1	2
410.600	1	8
410.771	1	2
410.942	1	11
411.112	1	-3
411.283	1	5
411.454	1	12
411.625	1	0
411.795	1	7
411.966	1	3
412.137	1	-5
412.307	1	9
412.478	1	0
412.649	1	4
412.819	1	-8
412.990	1	-3
413.161	1	7
413.332	1	-7
413.502	1	-7
413.673	1	1
413.844	1	12
414.014	1	7
414.185	1	-4
414.356	1	-3
414.526	1	-1
414.697	1	13
414.868	1	-1
415.038	1	-2
415.209	1	-12
415.380	1	8
415.550	1	-8
415.721	1	-1
415.892	1	0
416.063	1	0
416.233	1	5
416.404	1	3
416.575	1	4
416.745	1	5
416.916	1	-4
417.087	1	-3
417.257	1	3
417.428	1	-1
417.599	1	-2
417.769	1	6
417.940	1	7
418.111	1	4
418.281	1	-5
418.452	1	2
418.623	1	2
418.793	1	1
418.964	1	-4
419.135	1	11
419.305	1	-3
419.476	1	6
419.647	1	7
419.817	1	6
419.988	1	2
420.159	1	9
420.329	1	0
420.500	1	2
420.671	1	-4
420.841	1	3
421.012	1	8
421.183	1	-6
421.353	1	4
421.524	1	5
421.695	1	0
421.865	1	3
422.036	1	5
422.206	1	5
422.377	1	10
422.548	1	7
422.718	1	8
422.889	1	-7
423.060	1	-3
423.230	1	10
423.401	1	0
423.572	1	-3
423.742	1	-6
423.913	1	-7
424.084	1	10
424.254	1	7
424.425	1	-6
424.595	1	6
424.766	1	-7
424.937	1	13
425.107	1	-3
425.278	1	-7
425.449	1	0
425.619	1	-2
425.790	1	9
425.961	1	1
426.131	1	8
426.302	1	1
426.472	1	2
426.643	1	8
426.814	1	-7
426.984	1	2
427.155	1	11
427.326	1	6
427.496	1	-1
427.667	1	3
427.837	1	10
428.008	1	11
428.179	1	2
428.349	1	-11
428.520	1	-3
428.691	1	0
428.861	1	5
429.032	1	11
429.202	1	-6
429.373	1	5
429.544	1	0
429.714	1	0
429.885	1	3
430.055	1	-7
430.226	1	0
430.397	1	6
430.567	1	-2
430.738	1	-4
430.909	1	0
431.079	1	8
431.250	1	12
431.420	1	5
431.591	1	1
431.762	1	8
431.932	1	-7
432.103	1	2
432.273	1	6
432.444	1	7
432.615	1	-2
432.785	1	6
432.956	1	15
433.126	1	4
433.297	1	4
433.468	1	-3
433.638	1	3
433.809	1	0
433.979	1	-4
434.150	1	3
434.320	1	-4
434.491	1	6
434.662	1	-9
434.832	1	11
435.003	1	6
435.173	1	12
435.344	1	2
435.515	1	6
435.685	1	-4
435.856	1	11
436.026	1	1
436.197	1	0
436.368	1	13
436.538	1	9
436.709	1	0
436.879	1	3
437.050	1	-7
437.220	1	6
437.391	1	-3
437.562	1	7
437.732	1	0
437.903	1	5
438.073	1	-3
438.244	1	3
438.414	1	-6
438.585	1	2
438.756	1	0
438.926	1	2
439.097	1	-1
439.267	1	4
439.438	1	2
439.608	1	-3
439.779	1	2
439.949	1	9
440.120	1	-5
440.291	1	2
440.461	1	9
440.632	1	-1
440.802	1	13
440.973	1	-1
441.143	1	-1
441.314	1	-7
441.485	1	-7
441.655	1	-1
441.826	1	7
441.996	1	8
442.167	1	3
442.337	1	7
442.508	1	-4
442.678	1	3
442.849	1	-6
443.019	1	7
443.190	1	-1
443.361	1	6
443.531	1	1
443.702	1	10
443.872	1	-4
444.043	1	6
444.213	1	-4
444.384	1	1
444.554	1	2
444.725	1	6
444.895	1	-9
445.066	1	4
445.237	1	-12
445.407	1	14
445.578	1	5
445.748	1	7
445.919	1	3
446.089	1	3
446.260	1	6
446.430	1	-4
446.601	1	-5
446.771	1	-13
446.942	1	6
447.112	1	12
447.283	1	5
447.453	1	-1
447.624	1	-3
447.794	1	1
447.965	1	3
448.135	1	12
448.306	1	-2
448.477	1	2
448.647	1	0
448.818	1	5
448.988	1	6
449.159	1	3
449.329	1	8
449.500	1	5
449.670	1	-13
449.841	1	-6
450.011	1	4
450.182	1	8
450.352	1	-2
450.523	1	2
450.693	1	-8
450.864	1	6
451.034	1	2
451.205	1	9
451.375	1	4
451.546	1	-12
451.716	1	6
451.887	1	2
452.057	1	-6
452.228	1	6
452.398	1	4
452.569	1	6
452.739	1	-1
452.910	1	7
453.080	1	3
453.251	1	0
453.421	1	3
453.592	1	-2
453.762	1	0
453.933	1	8
454.103	1	-1
454.274	1	4
454.444	1	2
454.615	1	-1
454.785	1	-5
454.956	1	-3
455.126	1	1
455.297	1	-2
455.467	1	-15
455.638	1	0
455.808	1	12
455.979	1	11
456.149	1	1
456.320	1	4
456.490	1	2
456.661	1	0
456.831	1	2
457.001	1	9
457.172	1	-1
457.342	1	6
457.513	1	9
457.683	1	11
457.854	1	6
458.024	1	13
458.195	1	3
458.365	1	-5
458.536	1	-6
458.706	1	8
458.877	1	8
459.047	1	0
459.218	1	5
459.388	1	3
459.559	1	-11
459.729	1	-1
459.899	1	4
460.070	1	4
460.240	1	4
460.411	1	-6
460.581	1	5
460.752	1	7
460.922	1	5
461.093	1	7
461.263	1	8
461.434	1	-6
461.604	1	11
461.775	1	-1
461.945	1	-1
462.115	1	1
462.286	1	-3
462.456	1	-6
462.627	1	0
462.797	1	1
462.968	1	-1
463.138	1	2
463.309	1	9
463.479	1	-3
463.649	1	12
463.820	1	11
463.990	1	-4
464.161	1	0
464.331	1	6
464.502	1	5
464.672	1	-3
464.843	1	0
465.013	1	6
465.183	1	18
465.354	1	0
465.524	1	-1
465.695	1	2
465.865	1	6
466.036	1	-7
466.206	1	14
466.376	1	2
466.547	1	9
466.717	1	-6
466.888	1	4
467.058	1	5
467.229	1	-2
467.399	1	13
467.569	1	5
467.740	1	-4
467.910	1	-15
468.081	1	-2
468.251	1	0
468.422	1	-6
468.592	1	-4
468.762	1	12
468.933	1	-6
469.103	1	8
469.274	1	10
469.444	1	-1
469.614	1	3
469.785	1	-7
469.955	1	2
470.126	1	2
470.296	1	6
470.467	1	0
470.637	1	8
470.807	1	1
470.978	1	-1
471.148	1	-1
471.319	1	7
471.489	1	7
471.659	1	-7
471.830	1	6
472.000	1	1
472.171	1	9
472.341	1	8
472.511	1	6
472.682	1	-1
472.852	1	10
473.023	1	-4
473.193	1	3
473.363	1	-1
473.534	1	19
473.704	1	4
473.875	1	2
474.045	1	9
474.215	1	-1
474.386	1	-2
474.556	1	4
474.727	1	9
474.897	1	2
475.067	1	4
475.238	1	-7
475.408	1	-11
475.578	1	4
475.749	1	0
475.919	1	8
476.090	1	-1
476.260	1	7
476.430	1	2
476.601	1	-2
476.771	1	13
476.942	1	-2
477.112	1	7
477.282	1	9
477.453	1	5
477.623	1	14
477.793	1	9
477.964	1	4
478.134	1	12
478.305	1	-1
478.475	1	1
478.645	1	6
478.816	1	-1
478.986	1	-3
479.156	1	4
479.327	1	-9
479.497	1	1
479.667	1	-1
479.838	1	10
480.008	1	3
480.179	1	4
480.349	1	2
480.519	1	-4
480.690	1	2
480.860	1	-4
481.030	1	9
481.201	1	0
481.371	1	-3
481.541	1	3
481.712	1	-1
481.882	1	7
482.053	1	-5
482.223	1	5
482.393	1	0
482.564	1	3
482.734	1	8
482.904	1	5
483.075	1	0
483.245	1	1
483.415	1	3
483.586	1	4
483.756	1	10
483.926	1	-2
484.097	1	-4
484.267	1	6
484.437	1	-2
484.608	1	8
484.778	1	-4
484.948	1	3
485.119	1	2
485.289	1	7
485.459	1	-1
485.630	1	6
485.800	1	-1
485.970	1	3
486.141	1	9
486.311	1	3
486.481	1	0
486.652	1	8
486.822	1	11
486.992	1	9
487.163	1	9
487.333	1	-5
487.503	1	-5
487.674	1	1
487.844	1	4
488.014	1	10
488.185	1	2
488.355	1	-9
488.525	1	13
488.696	1	1
488.866	1	11
489.036	1	12
489.207	1	6
489.377	1	-4
489.547	1	6
489.718	1	1
489.888	1	8
490.058	1	8
490.228	1	-1
490.399	1	6
490.569	1	-3
490.739	1	8
490.910	1	0
491.080	1	-4
491.250	1	1
491.421	1	7
491.591	1	7
491.761	1	2
491.932	1	8
492.102	1	2
492.272	1	7
492.442	1	5
492.613	1	2
492.783	1	-8
492.953	1	6
493.124	1	-5
493.294	1	-4
493.464	1	-4
493.635	1	2
493.805	1	4
493.975	1	11
494.145	1	17
494.316	1	-1
494.486	1	8
494.656	1	9
494.827	1	6
494.997	1	5
495.167	1	0
495.337	1	10
495.508	1	11
495.678	1	12
495.848	1	-1
496.019	1	-12
496.189	1	0
496.359	1	5
496.529	1	1
496.700	1	13
496.870	1	3
497.040	1	1
497.211	1	7
497.381	1	7
497.551	1	16
497.721	1	1
497.892	1	2
498.062	1	2
498.232	1	4
498.403	1	7
498.573	1	4
498.743	1	9
498.913	1	3
499.084	1	3
499.254	1	11
499.424	1	-1
499.594	1	7
499.765	1	-8
499.935	1	12
500.105	1	-10
500.275	1	3
500.446	1	2
500.616	1	5
500.786	1	-2
500.956	1	-1
501.127	1	1
501.297	1	4
501.467	1	-7
501.638	1	1
501.808	1	3
501.978	1	3
502.148	1	13
502.319	1	6
502.489	1	-3
502.659	1	10
502.829	1	6
503.000	1	5
503.170	1	10
503.340	1	8
503.510	1	4
503.681	1	9
503.851	1	3
504.021	1	4
504.191	1	3
504.362	1	3
504.532	1	-10
504.702	1	6
504.872	1	8
505.042	1	6
505.213	1	2
505.383	1	5
505.553	1	2
505.723	1	2
505.894	1	17
506.064	1	2
506.234	1	-2
506.404	1	-2
506.575	1	8
506.745	1	8
506.915	1	-1
507.085	1	-4
507.256	1	1
507.426	1	8
507.596	1	12
507.766	1	5
507.936	1	8
508.107	1	1
508.277	1	4
508.447	1	8
508.617	1	14
508.788	1	5
508.958	1	-1
509.128	1	-1
509.298	1	3
509.468	1	-1
509.639	1	9
509.809	1	9
509.979	1	7
510.149	1	12
510.319	1	-5
510.490	1	4
510.660	1	-2
510.830	1	4
511.000	1	8
511.171	1	7
511.341	1	13
511.511	1	6
511.681	1	-1
511.851	1	8
512.022	1	6
512.192	1	12
512.362	1	-1
512.532	1	2
512.702	1	-7
512.873	1	2
513.043	1	7
513.213	1	-3
513.383	1	3
513.553	1	5
513.724	1	-5
513.894	1	-11
514.064	1	10
514.234	1	7
514.404	1	8
514.575	1	-9
514.745	1	-3
514.915	1	0
515.085	1	-1
515.255	1	-3
515.425	1	2
515.596	1	-1
515.766	1	12
515.936	1	5
516.106	1	11
516.276	1	6
516.447	1	-2
516.617	1	-3
516.787	1	9
516.957	1	1
517.127	1	2
517.297	1	6
517.468	1	-6
517.638	1	4
517.808	1	12
517.978	1	10
518.148	1	10
518.319	1	8
518.489	1	6
518.659	1	-2
518.829	1	2
518.999	1	20
519.169	1	3
519.340	1	4
519.510	1	3
519.680	1	2
519.850	1	8
520.020	1	-8
520.190	1	4
520.361	1	4
520.531	1	6
520.701	1	12
520.871	1	7
521.041	1	8
521.211	1	9
521.382	1	2
521.552	1	3
521.722	1	-1
521.892	1	6
522.062	1	1
522.232	1	-10
522.402	1	-6
522.573	1	7
522.743	1	21
522.913	1	10
523.083	1	0
523.253	1	13
523.423	1	3
523.593	1	9
523.764	1	1
523.934	1	6
524.104	1	-1
524.274	1	5
524.444	1	2
524.614	1	14
524.784	1	13
524.955	1	6
525.125	1	13
525.295	1	2
525.465	1	1
525.635	1	1
525.805	1	4
525.975	1	5
526.146	1	7
526.316	1	11
526.486	1	0
526.656	1	13
526.826	1	6
526.996	1	3
527.166	1	7
527.337	1	0
527.507	1	5
527.677	1	1
527.847	1	3
528.017	1	5
528.187	1	0
528.357	1	-1
528.527	1	2
528.698	1	2
528.868	1	7
529.038	1	5
529.208	1	7
529.378	1	2
529.548	1	5
529.718	1	17
529.888	1	-2
530.058	1	13
530.229	1	8
530.399	1	3
530.569	1	4
530.739	1	9
530.909	1	0
531.079	1	9
531.249	1	3
531.419	1	9
531.589	1	8
531.760	1	5
531.930	1	14
532.100	1	3
532.270	1	9
532.440	1	4
532.610	1	7
532.780	1	-4
532.950	1	-12
533.120	1	7
533.290	1	15
533.461	1	2
533.631	1	5
533.801	1	13
533.971	1	5
534.141	1	-5
534.311	1	-4
534.481	1	14
534.651	1	11
534.821	1	5
534.991	1	1
535.162	1	11
535.332	1	9
535.502	1	10
535.672	1	5
535.842	1	9
536.012	1	-12
536.182	1	-2
536.352	1	-4
536.522	1	10
536.692	1	8
536.862	1	6
537.032	1	1
537.203	1	10
537.373	1	-2
537.543	1	-2
537.713	1	3
537.883	1	16
538.053	1	1
538.223	1	14
538.393	1	17
538.563	1	6
538.733	1	0
538.903	1	-2
539.073	1	4
539.243	1	1
539.413	1	-1
539.584	1	5
539.754	1	5
539.924	1	-1
540.094	1	10
540.264	1	10
540.434	1	10
540.604	1	2
540.774	1	5
540.944	1	0
541.114	1	2
541.284	1	11
541.454	1	-2
541.624	1	-5
541.794	1	-6
541.964	1	6
542.134	1	4
542.305	1	7
542.475	1	-1
542.645	1	4
542.815	1	5
542.985	1	12
543.155	1	1
543.325	1	11
543.495	1	-1
543.665	1	6
543.835	1	-5
544.005	1	17
544.175	1	-4
544.345	1	5
544.515	1	6
544.685	1	6
544.855	1	-2
545.025	1	-7
545.195	1	6
545.365	1	5
545.535	1	7
545.705	1	4
545.875	1	1
546.045	1	4
546.216	1	4
546.386	1	3
546.556	1	4
546.726	1	3
546.896	1	12
547.066	1	5
547.236	1	6
547.406	1	3
547.576	1	2
547.746	1	2
547.916	1	4
548.086	1	-3
548.256	1	13
548.426	1	8
548.596	1	-6
548.766	1	9
548.936	1	1
549.106	1	3
549.276	1	3
549.446	1	4
549.616	1	19
549.786	1	-9
549.956	1	-2
550.126	1	0
550.296	1	1
550.466	1	5
550.636	1	0
550.806	1	2
550.976	1	13
551.146	1	10
551.316	1	10
551.486	1	-4
551.656	1	13
551.826	1	4
551.996	1	0
552.166	1	4
552.336	1	6
552.506	1	5
552.676	1	3
552.846	1	8
553.016	1	3
553.186	1	13
553.356	1	3
553.526	1	-4
553.696	1	12
553.866	1	-3
554.036	1	7
554.206	1	-3
554.376	1	4
554.546	1	-7
554.716	1	9
554.886	1	-3
555.056	1	-2
555.226	1	1
555.396	1	3
555.566	1	10
555.736	1	11
555.906	1	4
556.076	1	13
556.246	1	15
556.416	1	3
556.586	1	-7
556.756	1	-1
556.926	1	2
557.096	1	-3
557.266	1	7
557.436	1	-6
557.606	1	13
557.776	1	1
557.946	1	7
558.116	1	0
558.286	1	5
558.456	1	-3
558.626	1	5
558.796	1	4
558.966	1	-1
559.136	1	11
559.306	1	11
559.476	1	5
559.646	1	7
559.816	1	-2
559.986	1	9
560.155	1	-6
560.325	1	-2
560.495	1	4
560.665	1	7
560.835	1	1
561.005	1	6
561.175	1	-13
561.345	1	-10
561.515	1	6
561.685	1	-5
561.855	1	3
562.025	1	-4
562.195	1	13
562.365	1	-3
562.535	1	3
562.705	1	17
562.875	1	6
563.045	1	6
563.215	1	6
563.385	1	16
563.555	1	-4
563.725	1	-6
563.895	1	3
564.064	1	7
564.234	1	10
564.404	1	0
564.574	1	0
564.744	1	-1
564.914	1	5
565.084	1	6
565.254	1	6
565.424	1	-2
565.594	1	11
565.764	1	3
565.934	1	1
566.104	1	2
566.274	1	5
566.444	1	11
566.614	1	-10
566.783	1	6
566.953	1	5
567.123	1	3
567.293	1	4
567.463	1	-4
567.633	1	0
567.803	1	6
567.973	1	3
568.143	1	2
568.313	1	8
568.483	1	6
568.653	1	7
568.823	1	-2
568.993	1	5
569.162	1	8
569.332	1	13
569.502	1	1
569.672	1	4
569.842	1	-3
570.012	1	0
570.182	1	4
570.352	1	-5
570.522	1	12
570.692	1	4
570.862	1	0
571.031	1	3
571.201	1	5
571.371	1	4
571.541	1	-2
571.711	1	-3
571.881	1	-2
572.051	1	0
572.221	1	13
572.391	1	6
572.561	1	0
572.731	1	6
572.900	1	-5
573.070	1	7
573.240	1	9
573.410	1	4
573.580	1	1
573.750	1	4
573.920	1	8
574.090	1	0
574.260	1	6
574.430	1	11
574.599	1	0
574.769	1	0
574.939	1	-4
575.109	1	3
575.279	1	-6
575.449	1	-3
575.619	1	4
575.789	1	3
575.959	1	-2
576.128	1	2
576.298	1	3
576.468	1	2
576.638	1	8
576.808	1	7
576.978	1	4
577.148	1	8
577.318	1	-6
577.487	1	5
577.657	1	3
577.827	1	-18
577.997	1	-10
578.167	1	-2
578.337	1	5
578.507	1	13
578.677	1	8
578.846	1	6
579.016	1	-1
579.186	1	-7
579.356	1	7
579.526	1	5
579.696	1	-1
579.866	1	3
580.036	1	2
580.205	1	-4
580.375	1	0
580.545	1	-12
580.715	1	7
580.885	1	-7
581.055	1	5
581.225	1	4
581.394	1	7
581.564	1	2
581.734	1	3
581.904	1	-2
582.074	1	0
582.244	1	2
582.414	1	-8
582.583	1	2
582.753	1	0
582.923	1	6
583.093	1	12
583.263	1	8
583.433	1	3
583.603	1	-10
583.772	1	6
583.942	1	3
584.112	1	14
584.282	1	-4
584.452	1	3
584.622	1	4
584.791	1	-1
584.961	1	-2
585.131	1	8
585.301	1	10
585.471	1	2
585.641	1	0
585.811	1	-3
585.980	1	2
586.150	1	2
586.320	1	9
586.490	1	11
586.660	1	3
586.830	1	-1
586.999	1	5
587.169	1	15
587.339	1	2
587.509	1	3
587.679	1	-1
587.849	1	0
588.018	1	-3
588.188	1	9
588.358	1	13
588.528	1	1
588.698	1	0
588.867	1	3
589.037	1	1
589.207	1	4
589.377	1	1
589.547	1	11
589.717	1	1
589.886	1	-1
590.056	1	4
590.226	1	4
590.396	1	9
590.566	1	5
590.735	1	3
590.905	1	16
591.075	1	6
591.245	1	4
591.415	1	7
591.585	1	10
591.754	1	-3
591.924	1	-2
592.094	1	-2
592.264	1	-5
592.434	1	8
592.603	1	-4
592.773	1	11
592.943	1	6
593.113	1	8
593.283	1	-1
593.452	1	-6
593.622	1	-5
593.792	1	-3
593.962	1	3
594.132	1	5
594.301	1	12
594.471	1	7
594.641	1	14
594.811	1	-6
594.981	1	9
595.150	1	5
595.320	1	-1
595.490	1	-1
595.660	1	2
595.829	1	2
595.999	1	3
596.169	1	6
596.339	1	2
596.509	1	4
596.678	1	-1
596.848	1	7
597.018	1	5
597.188	1	-13
597.358	1	-12
597.527	1	0
597.697	1	-6
597.867	1	18
598.037	1	1
598.206	1	6
598.376	1	-5
598.546	1	-10
598.716	1	9
598.885	1	14
599.055	1	-1
599.225	1	4
599.395	1	6
599.565	1	4
599.734	1	8
599.904	1	12
600.074	1	1
600.244	1	6
600.413	1	-13
600.583	1	0
600.753	1	4
600.923	1	9
601.092	1	7
601.262	1	-5
601.432	1	-2
601.602	1	2
601.771	1	11
601.941	1	3
602.111	1	0
602.281	1	5
602.451	1	7
602.620	1	4
602.790	1	8
602.960	1	-4
603.130	1	-7
603.299	1	-2
603.469	1	5
603.639	1	2
603.809	1	3
603.978	1	3
604.148	1	10
604.318	1	0
604.487	1	5
604.657	1	6
604.827	1	-2
604.997	1	-1
605.166	1	13
605.336	1	4
605.506	1	-1
605.676	1	-8
605.845	1	2
606.015	1	6
606.185	1	3
606.355	1	14
606.524	1	6
606.694	1	-4
606.864	1	3
607.034	1	3
607.203	1	-6
607.373	1	2
607.543	1	8
607.712	1	-14
607.882	1	-4
608.052	1	-1
608.222	1	1
608.391	1	11
608.561	1	1
608.731	1	2
608.901	1	1
609.070	1	0
609.240	1	-4
609.410	1	6
609.579	1	-3
609.749	1	7
609.919	1	-8
610.089	1	5
610.258	1	1
610.428	1	5
610.598	1	7
610.767	1	5
610.937	1	-2
611.107	1	-3
611.277	1	-2
611.446	1	-3
611.616	1	-3
611.786	1	5
611.955	1	0
612.125	1	2
612.295	1	0
612.465	1	-3
612.634	1	5
612.804	1	8
612.974	1	9
613.143	1	0
613.313	1	-2
613.483	1	-1
613.652	1	15
613.822	1	9
613.992	1	5
614.162	1	12
614.331	1	-2
614.501	1	-1
614.671	1	2
614.840	1	5
615.010	1	-2
615.180	1	18
615.349	1	10
615.519	1	-6
615.689	1	12
615.858	1	6
616.028	1	2
616.198	1	5
616.368	1	-1
616.537	1	8
616.707	1	15
616.877	1	4
617.046	1	-8
617.216	1	6
617.386	1	-2
617.555	1	0
617.725	1	1
617.895	1	4
618.064	1	4
618.234	1	8
618.404	1	4
618.573	1	1
618.743	1	7
618.913	1	-1
619.082	1	1
619.252	1	5
619.422	1	1
619.591	1	3
619.761	1	-5
619.931	1	7
620.100	1	-6
620.270	1	0
620.440	1	7
620.609	1	7
620.779	1	-11
620.949	1	10
621.118	1	-8
621.288	1	5
621.458	1	0
621.627	1	8
621.797	1	3
621.967	1	4
622.136	1	-4
622.306	1	4
622.476	1	-3
622.645	1	2
622.815	1	2
622.985	1	10
623.154	1	1
623.324	1	-8
623.494	1	-8
623.663	1	1
623.833	1	-3
624.002	1	5
624.172	1	0
624.342	1	0
624.511	1	9
624.681	1	11
624.851	1	-2
625.020	1	-1
625.190	1	13
625.360	1	-3
625.529	1	6
625.699	1	-3
625.869	1	6
626.038	1	5
626.208	1	-5
626.377	1	1
626.547	1	-12
626.717	1	3
626.886	1	5
627.056	1	-3
627.226	1	7
627.395	1	-1
627.565	1	-3
627.735	1	-6
627.904	1	-2
628.074	1	6
628.243	1	-2
628.413	1	-8
628.583	1	0
628.752	1	-11
628.922	1	0
629.091	1	-2
629.261	1	-3
629.431	1	9
629.600	1	-4
629.770	1	0
629.940	1	-6
630.109	1	2
630.279	1	-3
630.448	1	5
630.618	1	-2
630.788	1	13
630.957	1	-3
631.127	1	3
631.297	1	-6
631.466	1	2
631.636	1	7
631.805	1	13
631.975	1	-3
632.145	1	1
632.314	1	2
632.484	1	0
632.653	1	11
632.823	1	1
632.993	1	1
633.162	1	8
633.332	1	4
633.501	1	6
633.671	1	5
633.841	1	-2
634.010	1	0
634.180	1	5
634.349	1	-6
634.519	1	5
634.689	1	7
634.858	1	6
635.028	1	16
635.197	1	1
635.367	1	0
635.537	1	-3
635.706	1	2
635.876	1	2
636.045	1	2
636.215	1	-3
636.384	1	-7
636.554	1	-3
636.724	1	2
636.893	1	11
637.063	1	5
637.232	1	9
637.402	1	7
637.572	1	-3
637.741	1	-4
637.911	1	10
638.080	1	9
638.250	1	10
638.419	1	-9
638.589	1	7
638.759	1	4
638.928	1	7
639.098	1	-7
639.267	1	3
639.437	1	-1
639.606	1	2
639.776	1	1
639.946	1	2
640.115	1	6
640.285	1	-6
640.454	1	4
640.624	1	-9
640.793	1	1
640.963	1	-4
641.132	1	6
641.302	1	-3
641.472	1	1
641.641	1	-4
641.811	1	3
641.980	1	-10
642.150	1	-8
642.319	1	8
642.489	1	-12
642.659	1	-2
642.828	1	4
642.998	1	6
643.167	1	2
643.337	1	11
643.506	1	6
643.676	1	5
643.845	1	1
644.015	1	-1
644.184	1	11
644.354	1	9
644.524	1	6
644.693	1	1
644.863	1	-8
645.032	1	3
645.202	1	18
645.371	1	-3
645.541	1	3
645.710	1	-7
645.880	1	4
646.049	1	9
646.219	1	3
646.388	1	8
646.558	1	-1
646.728	1	1
646.897	1	2
647.067	1	1
647.236	1	1
647.406	1	6
647.575	1	0
647.745	1	1
647.914	1	1
648.084	1	3
648.253	1	5
648.423	1	10
648.592	1	3
648.762	1	5
648.931	1	4
649.101	1	4
649.270	1	-2
649.440	1	-6
649.610	1	0
649.779	1	3
649.949	1	-3
650.118	1	6
650.288	1	-4
650.457	1	3
650.627	1	-7
650.796	1	4
650.966	1	4
651.135	1	5
651.305	1	-4
651.474	1	5
651.644	1	6
651.813	1	4
651.983	1	5
652.152	1	-2
652.322	1	5
652.491	1	15
652.661	1	3
652.830	1	-1
653.000	1	-4
653.169	1	-3
653.339	1	-4
653.508	1	14
653.678	1	1
653.847	1	4
654.017	1	8
654.186	1	8
654.356	1	-2
654.525	1	-2
654.695	1	2
654.864	1	10
655.034	1	5
655.203	1	7
655.373	1	9
655.542	1	-8
655.712	1	-8
655.881	1	-7
656.051	1	-2
656.220	1	0
656.390	1	4
656.559	1	-4
656.729	1	-2
656.898	1	-4
657.068	1	5
657.237	1	9
657.406	1	2
657.576	1	-2
657.745	1	9
657.915	1	3
658.084	1	0
658.254	1	18
658.423	1	-3
658.593	1	1
658.762	1	0
658.932	1	-2
659.101	1	-5
659.271	1	4
659.440	1	3
659.610	1	7
659.779	1	-2
659.949	1	-4
660.118	1	6
660.288	1	5
660.457	1	4
660.626	1	-6
660.796	1	2
660.965	1	2
661.135	1	-9
661.304	1	5
661.474	1	-5
661.643	1	6
661.813	1	4
661.982	1	4
662.152	1	2
662.321	1	-5
662.491	1	-3
662.660	1	-7
662.829	1	5
662.999	1	6
663.168	1	8
663.338	1	-1
663.507	1	9
663.677	1	-5
663.846	1	-3
664.016	1	6
664.185	1	9
664.354	1	3
664.524	1	1
664.693	1	-8
664.863	1	-2
665.032	1	-6
665.202	1	14
665.371	1	3
665.541	1	3
665.710	1	9
665.879	1	12
666.049	1	11
666.218	1	1
666.388	1	4
666.557	1	0
666.727	1	-2
666.896	1	1
667.065	1	-4
667.235	1	1
667.404	1	3
667.574	1	-5
667.743	1	2
667.913	1	-10
668.082	1	4
668.251	1	3
668.421	1	8
668.590	1	-2
668.760	1	7
668.929	1	8
669.099	1	3
669.268	1	-5
669.437	1	6
669.607	1	3
669.776	1	1
669.946	1	2
670.115	1	6
670.285	1	11
670.454	1	-1
670.623	1	4
670.793	1	5
670.962	1	-5
671.132	1	10
671.301	1	2
671.470	1	10
671.640	1	11
671.809	1	6
671.979	1	-5
672.148	1	3
672.317	1	6
672.487	1	0
672.656	1	-3
672.826	1	-5
672.995	1	0
673.164	1	1
673.334	1	5
673.503	1	-7
673.673	1	-3
673.842	1	3
674.011	1	2
674.181	1	6
674.350	1	5
674.520	1	9
674.689	1	0
674.858	1	-8
675.028	1	4
675.197	1	8
675.367	1	1
675.536	1	1
675.705	1	11
675.875	1	5
676.044	1	12
676.214	1	-4
676.383	1	-2
676.552	1	5
676.722	1	7
676.891	1	10
677.060	1	-6
677.230	1	5
677.399	1	-1
677.569	1	-6
677.738	1	9
677.907	1	-1
678.077	1	16
678.246	1	-8
678.416	1	-11
678.585	1	13
678.754	1	5
678.924	1	9
679.093	1	7
679.262	1	0
679.432	1	6
679.601	1	4
679.771	1	1
679.940	1	16
680.109	1	3
680.279	1	-1
680.448	1	-3
680.617	1	-2
680.787	1	-2
680.956	1	-10
681.125	1	8
681.295	1	-4
681.464	1	10
681.634	1	0
681.803	1	9
681.972	1	-5
682.142	1	-3
682.311	1	4
682.480	1	-4
682.650	1	-11
682.819	1	7
682.988	1	2
683.158	1	-3
683.327	1	4
683.496	1	6
683.666	1	7
683.835	1	-2
684.004	1	8
684.174	1	-2
684.343	1	9
684.512	1	-7
684.682	1	10
684.851	1	0
685.021	1	-3
685.190	1	3
685.359	1	7
685.529	1	10
685.698	1	-4
685.867	1	10
686.037	1	-4
686.206	1	9
686.375	1	-5
686.545	1	15
686.714	1	2
686.883	1	4
687.053	1	-13
687.222	1	2
687.391	1	6
687.561	1	0
687.730	1	8
687.899	1	-5
688.069	1	8
688.238	1	-5
688.407	1	-10
688.577	1	13
688.746	1	-5
