340.368	1	2
340.539	1	9
340.710	1	-9
340.881	1	9
341.052	1	12
341.223	1	0
341.394	1	4
341.565	1	4
341.737	1	0
341.908	1	9
342.079	1	9
342.250	1	4
342.421	1	10
342.592	1	6
342.763	1	10
342.934	1	-1
343.105	1	10
343.276	1	6
343.447	1	-1
343.618	1	2
343.789	1	4
343.960	1	3
344.131	1	9
344.302	1	2
344.473	1	5
344.644	1	19
344.815	1	18
344.986	1	6
345.157	1	0
345.328	1	11
345.499	1	-2
345.670	1	8
345.841	1	3
346.012	1	4
346.183	1	13
346.354	1	1
346.526	1	10
346.697	1	18
346.868	1	1
347.039	1	7
347.210	1	-2
347.381	1	4
347.552	1	14
347.723	1	8
347.894	1	3
348.065	1	-3
348.236	1	4
348.407	1	0
348.578	1	16
348.749	1	7
348.920	1	7
349.091	1	16
349.262	1	10
349.433	1	13
349.604	1	15
349.775	1	9
349.946	1	14
350.117	1	7
350.288	1	1
350.459	1	11
350.630	1	7
350.801	1	14
350.972	1	4
351.143	1	2
351.314	1	8
351.485	1	8
351.656	1	2
351.827	1	3
351.998	1	13
352.169	1	10
352.340	1	11
352.511	1	16
352.682	1	17
352.853	1	11
353.024	1	9
353.195	1	13
353.366	1	22
353.537	1	15
353.708	1	14
353.879	1	11
354.050	1	9
354.221	1	10
354.392	1	16
354.563	1	14
354.734	1	25
354.905	1	22
355.076	1	13
355.247	1	16
355.418	1	11
355.589	1	15
355.760	1	17
355.931	1	22
356.102	1	22
356.273	1	13
356.444	1	17
356.615	1	24
356.785	1	33
356.956	1	29
357.127	1	41
357.298	1	36
357.469	1	35
357.640	1	40
357.811	1	27
357.982	1	33
358.153	1	44
358.324	1	46
358.495	1	33
358.666	1	42
358.837	1	53
359.008	1	50
359.179	1	40
359.350	1	48
359.521	1	47
359.692	1	64
359.863	1	49
360.034	1	53
360.205	1	63
360.376	1	61
360.547	1	80
360.718	1	73
360.889	1	86
361.060	1	72
361.231	1	71
361.401	1	90
361.572	1	93
361.743	1	104
361.914	1	106
362.085	1	112
362.256	1	107
362.427	1	131
362.598	1	124
362.769	1	128
362.940	1	147
363.111	1	155
363.282	1	164
363.453	1	169
363.624	1	184
363.795	1	190
363.966	1	220
364.137	1	226
364.308	1	234
364.478	1	254
364.649	1	263
364.820	1	258
364.991	1	297
365.162	1	326
365.333	1	320
365.504	1	338
365.675	1	372
365.846	1	376
366.017	1	402
366.188	1	440
366.359	1	442
366.530	1	458
366.701	1	479
366.871	1	501
367.042	1	518
367.213	1	547
367.384	1	559
367.555	1	565
367.726	1	561
367.897	1	570
368.068	1	589
368.239	1	594
368.410	1	624
368.581	1	600
368.752	1	602
368.923	1	616
369.093	1	583
369.264	1	587
369.435	1	597
369.606	1	580
369.777	1	567
369.948	1	534
370.119	1	546
370.290	1	523
370.461	1	525
370.632	1	498
370.803	1	483
370.973	1	501
371.144	1	461
371.315	1	442
371.486	1	427
371.657	1	424
371.828	1	425
371.999	1	370
372.170	1	379
372.341	1	379
372.512	1	358
372.682	1	358
372.853	1	355
373.024	1	312
373.195	1	325
373.366	1	307
373.537	1	307
373.708	1	295
373.879	1	297
374.050	1	279
374.220	1	281
374.391	1	252
374.562	1	241
374.733	1	248
374.904	1	236
375.075	1	242
375.246	1	224
375.417	1	236
375.588	1	225
375.758	1	217
375.929	1	202
376.100	1	203
376.271	1	208
376.442	1	176
376.613	1	187
376.784	1	171
376.955	1	184
377.125	1	162
377.296	1	148
377.467	1	164
377.638	1	155
377.809	1	147
377.980	1	136
378.151	1	145
378.321	1	138
378.492	1	123
378.663	1	131
378.834	1	122
379.005	1	124
379.176	1	110
379.347	1	114
379.518	1	112
379.688	1	111
379.859	1	103
380.030	1	111
380.201	1	87
380.372	1	89
380.543	1	98
380.714	1	106
380.884	1	80
381.055	1	102
381.226	1	95
381.397	1	87
381.568	1	80
381.739	1	73
381.910	1	84
382.080	1	78
382.251	1	78
382.422	1	80
382.593	1	85
382.764	1	70
382.935	1	77
383.105	1	76
383.276	1	77
383.447	1	85
383.618	1	65
383.789	1	78
383.960	1	78
384.130	1	66
384.301	1	68
384.472	1	62
384.643	1	70
384.814	1	61
384.985	1	61
385.156	1	62
385.326	1	62
385.497	1	71
385.668	1	61
385.839	1	58
386.010	1	54
386.180	1	63
386.351	1	58
386.522	1	61
386.693	1	50
386.864	1	51
387.035	1	46
387.205	1	50
387.376	1	47
387.547	1	62
387.718	1	46
387.889	1	62
388.060	1	51
388.230	1	37
388.401	1	34
388.572	1	46
388.743	1	49
388.914	1	37
389.084	1	44
389.255	1	38
389.426	1	42
389.597	1	36
389.768	1	39
389.939	1	36
390.109	1	44
390.280	1	34
390.451	1	38
390.622	1	34
390.793	1	43
390.963	1	30
391.134	1	40
391.305	1	31
391.476	1	42
391.647	1	29
391.817	1	30
391.988	1	37
392.159	1	33
392.330	1	35
392.501	1	29
392.671	1	38
392.842	1	24
393.013	1	28
393.184	1	35
393.355	1	33
393.525	1	30
393.696	1	30
393.867	1	24
394.038	1	26
394.208	1	28
394.379	1	15
394.550	1	24
394.721	1	26
394.892	1	20
395.062	1	24
395.233	1	30
395.404	1	34
395.575	1	32
395.746	1	23
395.916	1	26
396.087	1	36
396.258	1	23
396.429	1	32
396.599	1	20
396.770	1	31
396.941	1	27
397.112	1	31
397.283	1	25
397.453	1	31
397.624	1	31
397.795	1	15
397.966	1	20
398.136	1	32
398.307	1	20
398.478	1	16
398.649	1	34
398.819	1	11
398.990	1	16
399.161	1	20
399.332	1	22
399.503	1	15
399.673	1	24
399.844	1	5
400.015	1	25
400.186	1	8
400.356	1	11
400.527	1	34
400.698	1	18
400.869	1	15
401.039	1	24
401.210	1	25
401.381	1	29
401.552	1	25
401.722	1	18
401.893	1	24
402.064	1	18
402.235	1	25
402.405	1	10
402.576	1	20
402.747	1	5
402.918	1	16
403.088	1	19
403.259	1	18
403.430	1	16
403.601	1	16
403.771	1	13
403.942	1	16
404.113	1	5
404.284	1	17
404.454	1	10
404.625	1	9
404.796	1	10
404.967	1	17
405.137	1	20
405.308	1	20
405.479	1	16
405.649	1	23
405.820	1	13
405.991	1	21
406.162	1	23
406.332	1	3
406.503	1	12
406.674	1	13
406.845	1	21
407.015	1	18
407.186	1	8
407.357	1	13
407.527	1	7
407.698	1	14
407.869	1	6
408.040	1	12
408.210	1	12
408.381	1	10
408.552	1	11
408.722	1	11
408.893	1	9
409.064	1	14
409.235	1	11
409.405	1	10
409.576	1	15
409.747	1	13
409.917	1	15
410.088	1	20
410.259	1	10
410.430	1	7
410.600	1	14
410.771	1	15
410.942	1	11
411.112	1	15
411.283	1	4
411.454	1	13
411.625	1	-3
411.795	1	16
411.966	1	13
412.137	1	1
412.307	1	17
412.478	1	16
412.649	1	13
412.819	1	1
412.990	1	-5
413.161	1	16
413.332	1	-1
413.502	1	20
413.673	1	12
413.844	1	14
414.014	1	6
414.185	1	14
414.356	1	9
414.526	1	15
414.697	1	10
414.868	1	10
415.038	1	10
415.209	1	-10
415.380	1	12
415.550	1	9
415.721	1	5
415.892	1	18
416.063	1	11
416.233	1	12
416.404	1	9
416.575	1	13
416.745	1	13
416.916	1	-12
417.087	1	14
417.257	1	14
417.428	1	14
417.599	1	10
417.769	1	17
417.940	1	12
418.111	1	10
418.281	1	3
418.452	1	9
418.623	1	3
418.793	1	9
418.964	1	7
419.135	1	15
419.305	1	4
419.476	1	11
419.647	1	18
419.817	1	8
419.988	1	11
420.159	1	18
420.329	1	11
420.500	1	5
420.671	1	4
420.841	1	9
421.012	1	13
421.183	1	6
421.353	1	16
421.524	1	14
421.695	1	4
421.865	1	4
422.036	1	13
422.206	1	17
422.377	1	9
422.548	1	7
422.718	1	15
422.889	1	12
423.060	1	6
423.230	1	14
423.401	1	8
423.572	1	5
423.742	1	3
423.913	1	6
424.084	1	24
424.254	1	12
424.425	1	1
424.595	1	14
424.766	1	0
424.937	1	6
425.107	1	-2
425.278	1	9
425.449	1	10
425.619	1	0
425.790	1	17
425.961	1	-3
426.131	1	17
426.302	1	6
426.472	1	-1
426.643	1	15
426.814	1	-3
426.984	1	12
427.155	1	15
427.326	1	17
427.496	1	9
427.667	1	15
427.837	1	8
428.008	1	15
428.179	1	15
428.349	1	-8
428.520	1	1
428.691	1	8
428.861	1	7
429.032	1	10
429.202	1	5
429.373	1	5
429.544	1	7
429.714	1	-2
429.885	1	7
430.055	1	10
430.226	1	4
430.397	1	9
430.567	1	12
430.738	1	1
430.909	1	2
431.079	1	-6
431.250	1	19
431.420	1	-4
431.591	1	5
431.762	1	10
431.932	1	-4
432.103	1	7
432.273	1	10
432.444	1	9
432.615	1	7
432.785	1	11
432.956	1	7
433.126	1	8
433.297	1	-5
433.468	1	1
433.638	1	11
433.809	1	12
433.979	1	11
434.150	1	6
434.320	1	10
434.491	1	5
434.662	1	-3
434.832	1	6
435.003	1	7
435.173	1	8
435.344	1	3
435.515	1	13
435.685	1	3
435.856	1	15
436.026	1	8
436.197	1	1
436.368	1	5
436.538	1	5
436.709	1	-1
436.879	1	15
437.050	1	0
437.220	1	7
437.391	1	-3
437.562	1	14
437.732	1	5
437.903	1	20
438.073	1	-2
438.244	1	4
438.414	1	4
438.585	1	2
438.756	1	9
438.926	1	12
439.097	1	13
439.267	1	11
439.438	1	14
439.608	1	6
439.779	1	16
439.949	1	14
440.120	1	-3
440.291	1	6
440.461	1	15
440.632	1	0
440.802	1	12
440.973	1	-5
441.143	1	2
441.314	1	2
441.485	1	0
441.655	1	5
441.826	1	8
441.996	1	9
442.167	1	7
442.337	1	11
442.508	1	7
442.678	1	5
442.849	1	2
443.019	1	4
443.190	1	7
443.361	1	19
443.531	1	14
443.702	1	5
443.872	1	5
444.043	1	8
444.213	1	12
444.384	1	7
444.554	1	9
444.725	1	6
444.895	1	-5
445.066	1	8
445.237	1	1
445.407	1	7
445.578	1	11
445.748	1	7
445.919	1	6
446.089	1	2
446.260	1	4
446.430	1	0
446.601	1	-2
446.771	1	-9
446.942	1	13
447.112	1	23
447.283	1	20
447.453	1	0
447.624	1	1
447.794	1	10
447.965	1	0
448.135	1	14
448.306	1	0
448.477	1	13
448.647	1	5
448.818	1	15
448.988	1	16
449.159	1	7
449.329	1	5
449.500	1	13
449.670	1	-5
449.841	1	1
450.011	1	10
450.182	1	5
450.352	1	1
450.523	1	12
450.693	1	5
450.864	1	17
451.034	1	0
451.205	1	6
451.375	1	2
451.546	1	-8
451.716	1	9
451.887	1	7
452.057	1	11
452.228	1	11
452.398	1	7
452.569	1	15
452.739	1	13
452.910	1	17
453.080	1	7
453.251	1	16
453.421	1	6
453.592	1	-2
453.762	1	4
453.933	1	13
454.103	1	-5
454.274	1	8
454.444	1	-5
454.615	1	3
454.785	1	9
454.956	1	8
455.126	1	10
455.297	1	-2
455.467	1	3
455.638	1	13
455.808	1	16
455.979	1	21
456.149	1	8
456.320	1	7
456.490	1	10
456.661	1	0
456.831	1	9
457.001	1	16
457.172	1	13
457.342	1	4
457.513	1	19
457.683	1	11
457.854	1	18
458.024	1	21
458.195	1	9
458.365	1	3
458.536	1	10
458.706	1	7
458.877	1	8
459.047	1	3
459.218	1	8
459.388	1	7
459.559	1	8
459.729	1	5
459.899	1	10
460.070	1	1
460.240	1	12
460.411	1	7
460.581	1	13
460.752	1	11
460.922	1	5
461.093	1	18
461.263	1	8
461.434	1	7
461.604	1	13
461.775	1	8
461.945	1	6
462.115	1	10
462.286	1	4
462.456	1	-2
462.627	1	10
462.797	1	3
462.968	1	16
463.138	1	8
463.309	1	12
463.479	1	5
463.649	1	12
463.820	1	10
463.990	1	-6
464.161	1	8
464.331	1	10
464.502	1	8
464.672	1	6
464.843	1	5
465.013	1	15
465.183	1	18
465.354	1	0
465.524	1	15
465.695	1	7
465.865	1	4
466.036	1	-2
466.206	1	16
466.376	1	11
466.547	1	7
466.717	1	2
466.888	1	3
467.058	1	14
467.229	1	10
467.399	1	15
467.569	1	10
467.740	1	-2
467.910	1	5
468.081	1	5
468.251	1	10
468.422	1	10
468.592	1	8
468.762	1	15
468.933	1	4
469.103	1	12
469.274	1	12
469.444	1	7
469.614	1	20
469.785	1	-1
469.955	1	11
470.126	1	14
470.296	1	16
470.467	1	11
470.637	1	10
470.807	1	5
470.978	1	-2
471.148	1	-2
471.319	1	15
471.489	1	7
471.659	1	-2
471.830	1	8
472.000	1	6
472.171	1	12
472.341	1	7
472.511	1	6
472.682	1	4
472.852	1	8
473.023	1	12
473.193	1	13
473.363	1	-4
473.534	1	18
473.704	1	10
473.875	1	6
474.045	1	19
474.215	1	12
474.386	1	8
474.556	1	14
474.727	1	13
474.897	1	13
475.067	1	11
475.238	1	12
475.408	1	-3
475.578	1	5
475.749	1	12
475.919	1	16
476.090	1	14
476.260	1	23
476.430	1	6
476.601	1	10
476.771	1	26
476.942	1	10
477.112	1	8
477.282	1	16
477.453	1	13
477.623	1	25
477.793	1	9
477.964	1	12
478.134	1	15
478.305	1	11
478.475	1	18
478.645	1	8
478.816	1	11
478.986	1	17
479.156	1	23
479.327	1	6
479.497	1	11
479.667	1	6
479.838	1	18
480.008	1	20
480.179	1	6
480.349	1	12
480.519	1	9
480.690	1	21
480.860	1	1
481.030	1	23
481.201	1	16
481.371	1	11
481.541	1	10
481.712	1	19
481.882	1	16
482.053	1	3
482.223	1	13
482.393	1	7
482.564	1	11
482.734	1	16
482.904	1	24
483.075	1	15
483.245	1	5
483.415	1	16
483.586	1	18
483.756	1	23
483.926	1	16
484.097	1	5
484.267	1	20
484.437	1	16
484.608	1	13
484.778	1	1
484.948	1	13
485.119	1	18
485.289	1	16
485.459	1	15
485.630	1	19
485.800	1	15
485.970	1	20
486.141	1	23
486.311	1	26
486.481	1	13
486.652	1	19
486.822	1	15
486.992	1	19
487.163	1	20
487.333	1	15
487.503	1	19
487.674	1	12
487.844	1	22
488.014	1	15
488.185	1	19
488.355	1	12
488.525	1	24
488.696	1	30
488.866	1	25
489.036	1	31
489.207	1	31
489.377	1	18
489.547	1	41
489.718	1	29
489.888	1	17
490.058	1	35
490.228	1	23
490.399	1	29
490.569	1	24
490.739	1	34
490.910	1	34
491.080	1	20
491.250	1	24
491.421	1	34
491.591	1	16
491.761	1	20
491.932	1	41
492.102	1	24
492.272	1	36
492.442	1	34
492.613	1	30
492.783	1	32
492.953	1	28
493.124	1	30
493.294	1	27
493.464	1	24
493.635	1	29
493.805	1	36
493.975	1	30
494.145	1	35
494.316	1	30
494.486	1	47
494.656	1	36
494.827	1	31
494.997	1	27
495.167	1	33
495.337	1	30
495.508	1	42
495.678	1	28
495.848	1	22
496.019	1	20
496.189	1	34
496.359	1	27
496.529	1	35
496.700	1	42
496.870	1	25
497.040	1	40
497.211	1	33
497.381	1	33
497.551	1	38
497.721	1	31
497.892	1	45
498.062	1	26
498.232	1	39
498.403	1	49
498.573	1	38
498.743	1	37
498.913	1	41
499.084	1	41
499.254	1	50
499.424	1	45
499.594	1	33
499.765	1	34
499.935	1	40
500.105	1	35
500.275	1	40
500.446	1	39
500.616	1	37
500.786	1	42
500.956	1	51
501.127	1	42
501.297	1	48
501.467	1	49
501.638	1	42
501.808	1	41
501.978	1	43
502.148	1	51
502.319	1	57
502.489	1	52
502.659	1	51
502.829	1	45
503.000	1	49
503.170	1	55
503.340	1	51
503.510	1	50
503.681	1	62
503.851	1	48
504.021	1	47
504.191	1	41
504.362	1	55
504.532	1	35
504.702	1	52
504.872	1	47
505.042	1	50
505.213	1	45
505.383	1	46
505.553	1	44
505.723	1	54
505.894	1	65
506.064	1	50
506.234	1	40
506.404	1	44
506.575	1	56
506.745	1	58
506.915	1	60
507.085	1	45
507.256	1	36
507.426	1	42
507.596	1	55
507.766	1	57
507.936	1	56
508.107	1	48
508.277	1	42
508.447	1	46
508.617	1	60
508.788	1	43
508.958	1	49
509.128	1	55
509.298	1	52
509.468	1	55
509.639	1	62
509.809	1	53
509.979	1	50
510.149	1	51
510.319	1	44
510.490	1	61
510.660	1	46
510.830	1	64
511.000	1	53
511.171	1	53
511.341	1	63
511.511	1	55
511.681	1	60
511.851	1	60
512.022	1	58
512.192	1	75
512.362	1	45
512.532	1	51
512.702	1	53
512.873	1	56
513.043	1	66
513.213	1	51
513.383	1	61
513.553	1	64
513.724	1	48
513.894	1	56
514.064	1	68
514.234	1	45
514.404	1	53
514.575	1	48
514.745	1	57
514.915	1	58
515.085	1	62
515.255	1	64
515.425	1	76
515.596	1	62
515.766	1	62
515.936	1	60
516.106	1	69
516.276	1	70
516.447	1	59
516.617	1	70
516.787	1	68
516.957	1	61
517.127	1	71
517.297	1	65
517.468	1	72
517.638	1	52
517.808	1	64
517.978	1	72
518.148	1	61
518.319	1	63
518.489	1	74
518.659	1	65
518.829	1	72
518.999	1	77
519.169	1	65
519.340	1	60
519.510	1	64
519.680	1	61
519.850	1	64
520.020	1	58
520.190	1	67
520.361	1	76
520.531	1	71
520.701	1	72
520.871	1	65
521.041	1	68
521.211	1	71
521.382	1	67
521.552	1	64
521.722	1	66
521.892	1	73
522.062	1	62
522.232	1	60
522.402	1	60
522.573	1	73
522.743	1	79
522.913	1	77
523.083	1	63
523.253	1	76
523.423	1	56
523.593	1	69
523.764	1	72
523.934	1	71
524.104	1	74
524.274	1	63
524.444	1	78
524.614	1	70
524.784	1	76
524.955	1	73
525.125	1	77
525.295	1	65
525.465	1	80
525.635	1	75
525.805	1	68
525.975	1	80
526.146	1	62
526.316	1	76
526.486	1	64
526.656	1	85
526.826	1	66
526.996	1	75
527.166	1	75
527.337	1	73
527.507	1	77
527.677	1	73
527.847	1	83
528.017	1	72
528.187	1	67
528.357	1	72
528.527	1	80
528.698	1	64
528.868	1	90
529.038	1	77
529.208	1	84
529.378	1	69
529.548	1	74
529.718	1	67
529.888	1	84
530.058	1	75
530.229	1	91
530.399	1	74
530.569	1	74
530.739	1	77
530.909	1	72
531.079	1	91
531.249	1	71
531.419	1	88
531.589	1	65
531.760	1	70
531.930	1	78
532.100	1	70
532.270	1	82
532.440	1	74
532.610	1	83
532.780	1	64
532.950	1	66
533.120	1	77
533.290	1	86
533.461	1	79
533.631	1	69
533.801	1	77
533.971	1	73
534.141	1	69
534.311	1	70
534.481	1	78
534.651	1	67
534.821	1	76
534.991	1	72
535.162	1	73
535.332	1	73
535.502	1	72
535.672	1	78
535.842	1	78
536.012	1	58
536.182	1	70
536.352	1	77
536.522	1	68
536.692	1	77
536.862	1	76
537.032	1	61
537.203	1	69
537.373	1	56
537.543	1	61
537.713	1	73
537.883	1	64
538.053	1	65
538.223	1	68
538.393	1	81
538.563	1	67
538.733	1	66
538.903	1	63
539.073	1	79
539.243	1	59
539.413	1	55
539.584	1	69
539.754	1	66
539.924	1	62
540.094	1	68
540.264	1	75
540.434	1	67
540.604	1	63
540.774	1	63
540.944	1	59
541.114	1	67
541.284	1	65
541.454	1	59
541.624	1	58
541.794	1	66
541.964	1	75
542.134	1	62
542.305	1	63
542.475	1	72
542.645	1	70
542.815	1	60
542.985	1	72
543.155	1	69
543.325	1	68
543.495	1	64
543.665	1	62
543.835	1	60
544.005	1	73
544.175	1	62
544.345	1	71
544.515	1	63
544.685	1	67
544.855	1	65
545.025	1	67
545.195	1	69
545.365	1	72
545.535	1	64
545.705	1	76
545.875	1	63
546.045	1	71
546.216	1	56
546.386	1	66
546.556	1	64
546.726	1	65
546.896	1	70
547.066	1	76
547.236	1	81
547.406	1	67
547.576	1	67
547.746	1	57
547.916	1	77
548.086	1	62
548.256	1	80
548.426	1	74
548.596	1	55
548.766	1	74
548.936	1	61
549.106	1	71
549.276	1	68
549.446	1	71
549.616	1	72
549.786	1	66
549.956	1	62
550.126	1	69
550.296	1	65
550.466	1	63
550.636	1	60
550.806	1	64
550.976	1	69
551.146	1	68
551.316	1	69
551.486	1	61
551.656	1	64
551.826	1	65
551.996	1	62
552.166	1	64
552.336	1	60
552.506	1	65
552.676	1	63
552.846	1	59
553.016	1	56
553.186	1	66
553.356	1	66
553.526	1	51
553.696	1	67
553.866	1	53
554.036	1	48
554.206	1	67
554.376	1	68
554.546	1	41
554.716	1	61
554.886	1	53
555.056	1	56
555.226	1	58
555.396	1	54
555.566	1	63
555.736	1	53
555.906	1	56
556.076	1	65
556.246	1	61
556.416	1	54
556.586	1	52
556.756	1	44
556.926	1	56
557.096	1	49
557.266	1	59
557.436	1	40
557.606	1	54
557.776	1	51
557.946	1	66
558.116	1	42
558.286	1	49
558.456	1	46
558.626	1	65
558.796	1	42
558.966	1	54
559.136	1	44
559.306	1	50
559.476	1	55
559.646	1	43
559.816	1	51
559.986	1	55
560.155	1	46
560.325	1	57
560.495	1	45
560.665	1	46
560.835	1	54
561.005	1	39
561.175	1	42
561.345	1	26
561.515	1	59
561.685	1	48
561.855	1	54
562.025	1	41
562.195	1	51
562.365	1	42
562.535	1	51
562.705	1	44
562.875	1	51
563.045	1	47
563.215	1	39
563.385	1	51
563.555	1	40
563.725	1	40
563.895	1	61
564.064	1	53
564.234	1	46
564.404	1	35
564.574	1	42
564.744	1	50
564.914	1	46
565.084	1	48
565.254	1	44
565.424	1	44
565.594	1	48
565.764	1	52
565.934	1	58
566.104	1	59
566.274	1	39
566.444	1	53
566.614	1	45
566.783	1	49
566.953	1	41
567.123	1	44
567.293	1	50
567.463	1	41
567.633	1	42
567.803	1	44
567.973	1	48
568.143	1	42
568.313	1	49
568.483	1	42
568.653	1	45
568.823	1	39
568.993	1	41
569.162	1	50
569.332	1	54
569.502	1	44
569.672	1	45
569.842	1	43
570.012	1	42
570.182	1	44
570.352	1	40
570.522	1	42
570.692	1	50
570.862	1	40
571.031	1	30
571.201	1	54
571.371	1	47
571.541	1	34
571.711	1	35
571.881	1	30
572.051	1	42
572.221	1	41
572.391	1	47
572.561	1	40
572.731	1	35
572.900	1	42
573.070	1	42
573.240	1	39
573.410	1	40
573.580	1	29
573.750	1	44
573.920	1	48
574.090	1	37
574.260	1	42
574.430	1	43
574.599	1	30
574.769	1	34
574.939	1	38
575.109	1	32
575.279	1	41
575.449	1	45
575.619	1	44
575.789	1	36
575.959	1	29
576.128	1	31
576.298	1	44
576.468	1	35
576.638	1	49
576.808	1	36
576.978	1	31
577.148	1	38
577.318	1	36
577.487	1	41
577.657	1	46
577.827	1	46
577.997	1	30
578.167	1	39
578.337	1	39
578.507	1	52
578.677	1	34
578.846	1	38
579.016	1	42
579.186	1	25
579.356	1	39
579.526	1	39
579.696	1	27
579.866	1	35
580.036	1	32
580.205	1	33
580.375	1	38
580.545	1	25
580.715	1	46
580.885	1	32
581.055	1	33
581.225	1	38
581.394	1	44
581.564	1	33
581.734	1	40
581.904	1	34
582.074	1	41
582.244	1	34
582.414	1	19
582.583	1	32
582.753	1	37
582.923	1	40
583.093	1	44
583.263	1	31
583.433	1	44
583.603	1	25
583.772	1	24
583.942	1	34
584.112	1	33
584.282	1	25
584.452	1	31
584.622	1	48
584.791	1	33
584.961	1	36
585.131	1	44
585.301	1	32
585.471	1	39
585.641	1	31
585.811	1	29
585.980	1	36
586.150	1	29
586.320	1	30
586.490	1	26
586.660	1	26
586.830	1	27
586.999	1	28
587.169	1	41
587.339	1	33
587.509	1	43
587.679	1	27
587.849	1	26
588.018	1	29
588.188	1	28
588.358	1	47
588.528	1	26
588.698	1	23
588.867	1	26
589.037	1	30
589.207	1	25
589.377	1	15
589.547	1	41
589.717	1	33
589.886	1	20
590.056	1	21
590.226	1	29
590.396	1	31
590.566	1	23
590.735	1	23
590.905	1	28
591.075	1	32
591.245	1	20
591.415	1	25
591.585	1	29
591.754	1	20
591.924	1	13
592.094	1	35
592.264	1	15
592.434	1	19
592.603	1	28
592.773	1	32
592.943	1	23
593.113	1	32
593.283	1	23
593.452	1	17
593.622	1	15
593.792	1	18
593.962	1	24
594.132	1	29
594.301	1	26
594.471	1	27
594.641	1	24
594.811	1	12
594.981	1	30
595.150	1	18
595.320	1	23
595.490	1	20
595.660	1	22
595.829	1	26
595.999	1	23
596.169	1	23
596.339	1	16
596.509	1	18
596.678	1	18
596.848	1	17
597.018	1	16
597.188	1	15
597.358	1	8
597.527	1	20
597.697	1	18
597.867	1	37
598.037	1	25
598.206	1	26
598.376	1	18
598.546	1	17
598.716	1	25
598.885	1	26
599.055	1	16
599.225	1	23
599.395	1	20
599.565	1	17
599.734	1	30
599.904	1	19
600.074	1	20
600.244	1	20
600.413	1	15
600.583	1	34
600.753	1	22
600.923	1	30
601.092	1	18
601.262	1	11
601.432	1	8
601.602	1	23
601.771	1	26
601.941	1	18
602.111	1	17
602.281	1	20
602.451	1	29
602.620	1	15
602.790	1	25
602.960	1	16
603.130	1	21
603.299	1	22
603.469	1	13
603.639	1	19
603.809	1	21
603.978	1	27
604.148	1	22
604.318	1	22
604.487	1	16
604.657	1	28
604.827	1	9
604.997	1	15
605.166	1	26
605.336	1	20
605.506	1	14
605.676	1	11
605.845	1	20
606.015	1	16
606.185	1	24
606.355	1	27
606.524	1	23
606.694	1	8
606.864	1	19
607.034	1	31
607.203	1	18
607.373	1	27
607.543	1	26
607.712	1	8
607.882	1	13
608.052	1	23
608.222	1	17
608.391	1	29
608.561	1	21
608.731	1	21
608.901	1	13
609.070	1	15
609.240	1	15
609.410	1	14
609.579	1	18
609.749	1	13
609.919	1	16
610.089	1	9
610.258	1	31
610.428	1	16
610.598	1	22
610.767	1	13
610.937	1	19
611.107	1	9
611.277	1	19
611.446	1	13
611.616	1	17
611.786	1	21
611.955	1	31
612.125	1	11
612.295	1	18
612.465	1	17
612.634	1	7
612.804	1	11
612.974	1	13
613.143	1	3
613.313	1	14
613.483	1	14
613.652	1	23
613.822	1	16
613.992	1	21
614.162	1	22
614.331	1	20
614.501	1	3
614.671	1	25
614.840	1	10
615.010	1	16
615.180	1	31
615.349	1	12
615.519	1	15
615.689	1	22
615.858	1	15
616.028	1	19
616.198	1	7
616.368	1	15
616.537	1	8
616.707	1	18
616.877	1	12
617.046	1	2
617.216	1	17
617.386	1	12
617.555	1	13
617.725	1	10
617.895	1	19
618.064	1	24
618.234	1	15
618.404	1	15
618.573	1	18
618.743	1	16
618.913	1	6
619.082	1	18
619.252	1	21
619.422	1	11
619.591	1	16
619.761	1	4
619.931	1	19
620.100	1	8
620.270	1	11
620.440	1	11
620.609	1	2
620.779	1	14
620.949	1	8
621.118	1	11
621.288	1	13
621.458	1	20
621.627	1	21
621.797	1	17
621.967	1	3
622.136	1	24
622.306	1	15
622.476	1	7
622.645	1	10
622.815	1	15
622.985	1	21
623.154	1	22
623.324	1	16
623.494	1	14
623.663	1	15
623.833	1	13
624.002	1	7
624.172	1	11
624.342	1	15
624.511	1	17
624.681	1	15
624.851	1	3
625.020	1	11
625.190	1	20
625.360	1	17
625.529	1	18
625.699	1	12
625.869	1	15
626.038	1	17
626.208	1	14
626.377	1	16
626.547	1	1
626.717	1	13
626.886	1	21
627.056	1	8
627.226	1	17
627.395	1	8
627.565	1	16
627.735	1	-3
627.904	1	14
628.074	1	9
628.243	1	11
628.413	1	11
628.583	1	7
628.752	1	8
628.922	1	2
629.091	1	-1
629.261	1	17
629.431	1	11
629.600	1	8
629.770	1	14
629.940	1	13
630.109	1	1
630.279	1	17
630.448	1	14
630.618	1	12
630.788	1	23
630.957	1	19
631.127	1	13
631.297	1	11
631.466	1	21
631.636	1	19
631.805	1	27
631.975	1	6
632.145	1	17
632.314	1	15
632.484	1	1
632.653	1	26
632.823	1	14
632.993	1	6
633.162	1	20
633.332	1	9
633.501	1	15
633.671	1	20
633.841	1	3
634.010	1	17
634.180	1	12
634.349	1	3
634.519	1	12
634.689	1	20
634.858	1	17
635.028	1	8
635.197	1	11
635.367	1	6
635.537	1	5
635.706	1	6
635.876	1	12
636.045	1	15
636.215	1	9
636.384	1	14
636.554	1	7
636.724	1	24
636.893	1	13
637.063	1	16
637.232	1	12
637.402	1	22
637.572	1	17
637.741	1	10
637.911	1	13
638.080	1	20
638.250	1	25
638.419	1	6
638.589	1	15
638.759	1	18
638.928	1	17
639.098	1	3
639.267	1	8
639.437	1	11
639.606	1	7
639.776	1	11
639.946	1	11
640.115	1	21
640.285	1	10
640.454	1	2
640.624	1	9
640.793	1	5
640.963	1	12
641.132	1	6
641.302	1	2
641.472	1	5
641.641	1	17
641.811	1	15
641.980	1	4
642.150	1	8
642.319	1	18
642.489	1	0
642.659	1	10
642.828	1	23
642.998	1	11
643.167	1	8
643.337	1	9
643.506	1	5
643.676	1	17
643.845	1	19
644.015	1	15
644.184	1	20
644.354	1	11
644.524	1	11
644.693	1	12
644.863	1	0
645.032	1	11
645.202	1	13
645.371	1	11
645.541	1	18
645.710	1	16
645.880	1	14
646.049	1	24
646.219	1	10
646.388	1	16
646.558	1	13
646.728	1	15
646.897	1	15
647.067	1	10
647.236	1	6
647.406	1	24
647.575	1	2
647.745	1	11
647.914	1	12
648.084	1	11
648.253	1	10
648.423	1	27
648.592	1	18
648.762	1	19
648.931	1	10
649.101	1	10
649.270	1	4
649.440	1	8
649.610	1	14
649.779	1	5
649.949	1	7
650.118	1	12
650.288	1	0
650.457	1	10
650.627	1	14
650.796	1	15
650.966	1	22
651.135	1	9
651.305	1	3
651.474	1	20
651.644	1	11
651.813	1	19
651.983	1	15
652.152	1	5
652.322	1	16
652.491	1	17
652.661	1	1
652.830	1	3
653.000	1	2
653.169	1	10
653.339	1	7
653.508	1	14
653.678	1	16
653.847	1	15
654.017	1	12
654.186	1	21
654.356	1	11
654.525	1	11
654.695	1	19
654.864	1	7
655.034	1	4
655.203	1	16
655.373	1	12
655.542	1	8
655.712	1	6
655.881	1	1
656.051	1	5
656.220	1	14
656.390	1	12
656.559	1	8
656.729	1	7
656.898	1	15
657.068	1	14
657.237	1	9
657.406	1	9
657.576	1	7
657.745	1	9
657.915	1	4
658.084	1	-1
658.254	1	25
658.423	1	9
658.593	1	2
658.762	1	-1
658.932	1	10
659.101	1	3
659.271	1	10
659.440	1	17
659.610	1	9
659.779	1	8
659.949	1	-7
660.118	1	6
660.288	1	14
660.457	1	11
660.626	1	6
660.796	1	11
660.965	1	25
661.135	1	-3
661.304	1	6
661.474	1	15
661.643	1	11
661.813	1	3
661.982	1	12
662.152	1	4
662.321	1	11
662.491	1	8
662.660	1	0
662.829	1	16
662.999	1	12
663.168	1	8
663.338	1	16
663.507	1	7
663.677	1	2
663.846	1	3
664.016	1	23
664.185	1	20
664.354	1	0
664.524	1	11
664.693	1	5
664.863	1	13
665.032	1	8
665.202	1	23
665.371	1	5
665.541	1	10
665.710	1	13
665.879	1	5
666.049	1	2
666.218	1	16
666.388	1	26
666.557	1	6
666.727	1	11
666.896	1	9
667.065	1	14
667.235	1	3
667.404	1	11
667.574	1	-3
667.743	1	7
667.913	1	4
668.082	1	15
668.251	1	10
668.421	1	19
668.590	1	3
668.760	1	11
668.929	1	10
669.099	1	15
669.268	1	7
669.437	1	6
669.607	1	-1
669.776	1	7
669.946	1	12
670.115	1	10
670.285	1	16
670.454	1	-3
670.623	1	6
670.793	1	15
670.962	1	7
671.132	1	8
671.301	1	6
671.470	1	9
671.640	1	16
671.809	1	-2
671.979	1	2
672.148	1	1
672.317	1	12
672.487	1	11
672.656	1	13
672.826	1	1
672.995	1	6
673.164	1	5
673.334	1	4
673.503	1	9
673.673	1	13
673.842	1	13
674.011	1	18
674.181	1	15
674.350	1	9
674.520	1	9
674.689	1	11
674.858	1	7
675.028	1	6
675.197	1	11
675.367	1	0
675.536	1	13
675.705	1	11
675.875	1	2
676.044	1	14
676.214	1	-1
676.383	1	15
676.552	1	13
676.722	1	22
676.891	1	23
677.060	1	1
677.230	1	18
677.399	1	8
677.569	1	2
677.738	1	5
677.907	1	4
678.077	1	25
678.246	1	-12
678.416	1	12
678.585	1	19
678.754	1	14
678.924	1	17
679.093	1	13
679.262	1	11
679.432	1	9
679.601	1	25
679.771	1	14
679.940	1	10
680.109	1	-1
680.279	1	16
680.448	1	9
680.617	1	2
680.787	1	6
680.956	1	4
681.125	1	21
681.295	1	5
681.464	1	20
681.634	1	-2
681.803	1	11
681.972	1	0
682.142	1	4
682.311	1	11
682.480	1	17
682.650	1	15
682.819	1	20
682.988	1	9
683.158	1	5
683.327	1	12
683.496	1	18
683.666	1	10
683.835	1	4
684.004	1	15
684.174	1	12
684.343	1	9
684.512	1	5
684.682	1	12
684.851	1	7
685.021	1	-1
685.190	1	0
685.359	1	11
685.529	1	25
685.698	1	4
685.867	1	19
686.037	1	7
686.206	1	10
686.375	1	16
686.545	1	12
686.714	1	7
686.883	1	7
687.053	1	5
687.222	1	3
687.391	1	11
687.561	1	14
687.730	1	16
687.899	1	10
688.069	1	15
688.238	1	5
688.407	1	6
688.577	1	33
688.746	1	3
