340.368	1	4
340.539	1	6
340.710	1	-9
340.881	1	1
341.052	1	20
341.223	1	-4
341.394	1	6
341.565	1	9
341.737	1	4
341.908	1	17
342.079	1	6
342.250	1	7
342.421	1	14
342.592	1	6
342.763	1	10
342.934	1	0
343.105	1	13
343.276	1	14
343.447	1	-8
343.618	1	13
343.789	1	4
343.960	1	14
344.131	1	0
344.302	1	6
344.473	1	8
344.644	1	7
344.815	1	8
344.986	1	11
345.157	1	-3
345.328	1	12
345.499	1	8
345.670	1	18
345.841	1	13
346.012	1	14
346.183	1	22
346.354	1	3
346.526	1	15
346.697	1	19
346.868	1	17
347.039	1	9
347.210	1	7
347.381	1	10
347.552	1	20
347.723	1	17
347.894	1	7
348.065	1	-2
348.236	1	15
348.407	1	5
348.578	1	10
348.749	1	3
348.920	1	12
349.091	1	4
349.262	1	19
349.433	1	15
349.604	1	25
349.775	1	12
349.946	1	13
350.117	1	2
350.288	1	7
350.459	1	13
350.630	1	22
350.801	1	15
350.972	1	7
351.143	1	15
351.314	1	19
351.485	1	13
351.656	1	13
351.827	1	10
351.998	1	18
352.169	1	12
352.340	1	26
352.511	1	20
352.682	1	24
352.853	1	28
353.024	1	21
353.195	1	22
353.366	1	32
353.537	1	24
353.708	1	30
353.879	1	33
354.050	1	21
354.221	1	17
354.392	1	30
354.563	1	22
354.734	1	25
354.905	1	39
355.076	1	33
355.247	1	17
355.418	1	32
355.589	1	33
355.760	1	22
355.931	1	43
356.102	1	44
356.273	1	31
356.444	1	38
356.615	1	51
356.785	1	45
356.956	1	49
357.127	1	43
357.298	1	55
357.469	1	47
357.640	1	50
357.811	1	55
357.982	1	57
358.153	1	63
358.324	1	68
358.495	1	72
358.666	1	63
358.837	1	79
359.008	1	73
359.179	1	72
359.350	1	90
359.521	1	96
359.692	1	91
359.863	1	101
360.034	1	105
360.205	1	124
360.376	1	111
360.547	1	136
360.718	1	127
360.889	1	141
361.060	1	141
361.231	1	160
361.401	1	155
361.572	1	186
361.743	1	195
361.914	1	211
362.085	1	208
362.256	1	220
362.427	1	243
362.598	1	267
362.769	1	289
362.940	1	324
363.111	1	341
363.282	1	365
363.453	1	389
363.624	1	429
363.795	1	448
363.966	1	494
364.137	1	523
364.308	1	576
364.478	1	606
364.649	1	644
364.820	1	711
364.991	1	778
365.162	1	821
365.333	1	863
365.504	1	950
365.675	1	1012
365.846	1	1066
366.017	1	1155
366.188	1	1237
366.359	1	1314
366.530	1	1397
366.701	1	1469
366.871	1	1550
367.042	1	1598
367.213	1	1690
367.384	1	1770
367.555	1	1806
367.726	1	1903
367.897	1	1926
368.068	1	2000
368.239	1	2026
368.410	1	2035
368.581	1	2024
368.752	1	2086
368.923	1	2071
369.093	1	2056
369.264	1	2069
369.435	1	2004
369.606	1	1956
369.777	1	1949
369.948	1	1877
370.119	1	1827
370.290	1	1758
370.461	1	1729
370.632	1	1673
370.803	1	1593
370.973	1	1561
371.144	1	1461
371.315	1	1415
371.486	1	1370
371.657	1	1317
371.828	1	1257
371.999	1	1221
372.170	1	1132
372.341	1	1117
372.512	1	1071
372.682	1	1054
372.853	1	1019
373.024	1	948
373.195	1	924
373.366	1	908
373.537	1	892
373.708	1	848
373.879	1	829
374.050	1	835
374.220	1	793
374.391	1	753
374.562	1	743
374.733	1	726
374.904	1	680
375.075	1	675
375.246	1	658
375.417	1	653
375.588	1	620
375.758	1	599
375.929	1	573
376.100	1	557
376.271	1	551
376.442	1	520
376.613	1	496
376.784	1	470
376.955	1	494
377.125	1	477
377.296	1	446
377.467	1	432
377.638	1	411
377.809	1	418
377.980	1	379
378.151	1	378
378.321	1	378
378.492	1	344
378.663	1	353
378.834	1	336
379.005	1	320
379.176	1	313
379.347	1	303
379.518	1	313
379.688	1	288
379.859	1	279
380.030	1	282
380.201	1	256
380.372	1	267
380.543	1	258
380.714	1	264
380.884	1	237
381.055	1	245
381.226	1	244
381.397	1	241
381.568	1	233
381.739	1	226
381.910	1	219
382.080	1	226
382.251	1	231
382.422	1	225
382.593	1	227
382.764	1	216
382.935	1	213
383.105	1	237
383.276	1	231
383.447	1	231
383.618	1	229
383.789	1	233
383.960	1	224
384.130	1	215
384.301	1	204
384.472	1	220
384.643	1	220
384.814	1	236
384.985	1	231
385.156	1	220
385.326	1	222
385.497	1	223
385.668	1	224
385.839	1	193
386.010	1	215
386.180	1	213
386.351	1	204
386.522	1	196
386.693	1	195
386.864	1	199
387.035	1	191
387.205	1	171
387.376	1	190
387.547	1	192
387.718	1	173
387.889	1	165
388.060	1	152
388.230	1	151
388.401	1	164
388.572	1	156
388.743	1	162
388.914	1	165
389.084	1	154
389.255	1	161
389.426	1	143
389.597	1	153
389.768	1	157
389.939	1	150
390.109	1	146
390.280	1	149
390.451	1	142
390.622	1	131
390.793	1	145
390.963	1	142
391.134	1	130
391.305	1	134
391.476	1	141
391.647	1	142
391.817	1	135
391.988	1	145
392.159	1	128
392.330	1	126
392.501	1	129
392.671	1	124
392.842	1	113
393.013	1	115
393.184	1	125
393.355	1	131
393.525	1	116
393.696	1	122
393.867	1	113
394.038	1	114
394.208	1	118
394.379	1	103
394.550	1	112
394.721	1	102
394.892	1	113
395.062	1	102
395.233	1	119
395.404	1	121
395.575	1	116
395.746	1	123
395.916	1	121
396.087	1	119
396.258	1	110
396.429	1	113
396.599	1	107
396.770	1	121
396.941	1	115
397.112	1	110
397.283	1	121
397.453	1	123
397.624	1	112
397.795	1	112
397.966	1	108
398.136	1	115
398.307	1	124
398.478	1	113
398.649	1	119
398.819	1	109
398.990	1	94
399.161	1	98
399.332	1	100
399.503	1	108
399.673	1	96
399.844	1	97
400.015	1	99
400.186	1	88
400.356	1	83
400.527	1	99
400.698	1	92
400.869	1	85
401.039	1	83
401.210	1	86
401.381	1	87
401.552	1	84
401.722	1	80
401.893	1	84
402.064	1	92
402.235	1	91
402.405	1	73
402.576	1	81
402.747	1	75
402.918	1	73
403.088	1	85
403.259	1	75
403.430	1	72
403.601	1	79
403.771	1	63
403.942	1	75
404.113	1	74
404.284	1	73
404.454	1	74
404.625	1	76
404.796	1	73
404.967	1	67
405.137	1	79
405.308	1	74
405.479	1	74
405.649	1	73
405.820	1	68
405.991	1	74
406.162	1	69
406.332	1	53
406.503	1	76
406.674	1	74
406.845	1	74
407.015	1	73
407.186	1	71
407.357	1	66
407.527	1	60
407.698	1	56
407.869	1	55
408.040	1	68
408.210	1	66
408.381	1	59
408.552	1	63
408.722	1	51
408.893	1	64
409.064	1	62
409.235	1	65
409.405	1	60
409.576	1	69
409.747	1	67
409.917	1	65
410.088	1	68
410.259	1	62
410.430	1	60
410.600	1	60
410.771	1	64
410.942	1	56
411.112	1	63
411.283	1	62
411.454	1	53
411.625	1	57
411.795	1	67
411.966	1	59
412.137	1	43
412.307	1	59
412.478	1	48
412.649	1	58
412.819	1	48
412.990	1	44
413.161	1	53
413.332	1	49
413.502	1	46
413.673	1	43
413.844	1	43
414.014	1	50
414.185	1	45
414.356	1	39
414.526	1	63
414.697	1	55
414.868	1	39
415.038	1	46
415.209	1	35
415.380	1	47
415.550	1	41
415.721	1	45
415.892	1	48
416.063	1	54
416.233	1	45
416.404	1	47
416.575	1	41
416.745	1	54
416.916	1	43
417.087	1	40
417.257	1	42
417.428	1	40
417.599	1	47
417.769	1	53
417.940	1	51
418.111	1	52
418.281	1	37
418.452	1	49
418.623	1	47
418.793	1	48
418.964	1	37
419.135	1	56
419.305	1	53
419.476	1	42
419.647	1	56
419.817	1	42
419.988	1	41
420.159	1	54
420.329	1	51
420.500	1	41
420.671	1	37
420.841	1	35
421.012	1	44
421.183	1	46
421.353	1	40
421.524	1	42
421.695	1	33
421.865	1	40
422.036	1	37
422.206	1	45
422.377	1	43
422.548	1	38
422.718	1	46
422.889	1	35
423.060	1	36
423.230	1	49
423.401	1	39
423.572	1	28
423.742	1	43
423.913	1	30
424.084	1	50
424.254	1	42
424.425	1	32
424.595	1	34
424.766	1	40
424.937	1	45
425.107	1	39
425.278	1	39
425.449	1	37
425.619	1	34
425.790	1	35
425.961	1	37
426.131	1	42
426.302	1	37
426.472	1	39
426.643	1	38
426.814	1	26
426.984	1	41
427.155	1	43
427.326	1	41
427.496	1	34
427.667	1	39
427.837	1	39
428.008	1	46
428.179	1	57
428.349	1	40
428.520	1	38
428.691	1	31
428.861	1	36
429.032	1	38
429.202	1	32
429.373	1	34
429.544	1	27
429.714	1	34
429.885	1	37
430.055	1	36
430.226	1	33
430.397	1	35
430.567	1	39
430.738	1	33
430.909	1	38
431.079	1	29
431.250	1	47
431.420	1	21
431.591	1	34
431.762	1	39
431.932	1	25
432.103	1	33
432.273	1	27
432.444	1	47
432.615	1	31
432.785	1	44
432.956	1	43
433.126	1	36
433.297	1	34
433.468	1	21
433.638	1	38
433.809	1	31
433.979	1	32
434.150	1	35
434.320	1	38
434.491	1	30
434.662	1	20
434.832	1	35
435.003	1	35
435.173	1	35
435.344	1	28
435.515	1	31
435.685	1	35
435.856	1	43
436.026	1	30
436.197	1	30
436.368	1	40
436.538	1	34
436.709	1	37
436.879	1	38
437.050	1	27
437.220	1	35
437.391	1	22
437.562	1	46
437.732	1	35
437.903	1	33
438.073	1	30
438.244	1	23
438.414	1	27
438.585	1	31
438.756	1	20
438.926	1	26
439.097	1	30
439.267	1	23
439.438	1	26
439.608	1	21
439.779	1	21
439.949	1	28
440.120	1	18
440.291	1	28
440.461	1	34
440.632	1	17
440.802	1	26
440.973	1	22
441.143	1	33
441.314	1	21
441.485	1	12
441.655	1	27
441.826	1	34
441.996	1	17
442.167	1	31
442.337	1	31
442.508	1	23
442.678	1	28
442.849	1	26
443.019	1	30
443.190	1	34
443.361	1	37
443.531	1	33
443.702	1	33
443.872	1	24
444.043	1	33
444.213	1	13
444.384	1	41
444.554	1	25
444.725	1	19
444.895	1	8
445.066	1	41
445.237	1	10
445.407	1	32
445.578	1	32
445.748	1	26
445.919	1	26
446.089	1	28
446.260	1	22
446.430	1	14
446.601	1	21
446.771	1	12
446.942	1	23
447.112	1	34
447.283	1	21
447.453	1	29
447.624	1	24
447.794	1	26
447.965	1	19
448.135	1	23
448.306	1	25
448.477	1	34
448.647	1	19
448.818	1	34
448.988	1	33
449.159	1	17
449.329	1	16
449.500	1	23
449.670	1	6
449.841	1	14
450.011	1	22
450.182	1	31
450.352	1	18
450.523	1	18
450.693	1	16
450.864	1	23
451.034	1	26
451.205	1	15
451.375	1	24
451.546	1	28
451.716	1	25
451.887	1	15
452.057	1	29
452.228	1	18
452.398	1	22
452.569	1	37
452.739	1	19
452.910	1	27
453.080	1	34
453.251	1	29
453.421	1	26
453.592	1	24
453.762	1	19
453.933	1	23
454.103	1	25
454.274	1	19
454.444	1	11
454.615	1	25
454.785	1	17
454.956	1	26
455.126	1	41
455.297	1	12
455.467	1	15
455.638	1	35
455.808	1	34
455.979	1	31
456.149	1	26
456.320	1	17
456.490	1	22
456.661	1	29
456.831	1	18
457.001	1	30
457.172	1	27
457.342	1	21
457.513	1	23
457.683	1	35
457.854	1	24
458.024	1	30
458.195	1	27
458.365	1	30
458.536	1	21
458.706	1	32
458.877	1	31
459.047	1	17
459.218	1	23
459.388	1	25
459.559	1	17
459.729	1	22
459.899	1	11
460.070	1	18
460.240	1	22
460.411	1	22
460.581	1	27
460.752	1	27
460.922	1	21
461.093	1	27
461.263	1	20
461.434	1	9
461.604	1	25
461.775	1	24
461.945	1	20
462.115	1	29
462.286	1	21
462.456	1	9
462.627	1	32
462.797	1	21
462.968	1	33
463.138	1	30
463.309	1	25
463.479	1	16
463.649	1	26
463.820	1	33
463.990	1	21
464.161	1	24
464.331	1	17
464.502	1	29
464.672	1	14
464.843	1	22
465.013	1	35
465.183	1	25
465.354	1	11
465.524	1	30
465.695	1	26
465.865	1	20
466.036	1	22
466.206	1	26
466.376	1	27
466.547	1	25
466.717	1	20
466.888	1	25
467.058	1	22
467.229	1	30
467.399	1	37
467.569	1	27
467.740	1	30
467.910	1	23
468.081	1	21
468.251	1	33
468.422	1	32
468.592	1	20
468.762	1	45
468.933	1	20
469.103	1	24
469.274	1	23
469.444	1	30
469.614	1	26
469.785	1	17
469.955	1	29
470.126	1	31
470.296	1	14
470.467	1	27
470.637	1	22
470.807	1	32
470.978	1	17
471.148	1	18
471.319	1	25
471.489	1	20
471.659	1	22
471.830	1	19
472.000	1	30
472.171	1	34
472.341	1	29
472.511	1	37
472.682	1	31
472.852	1	15
473.023	1	39
473.193	1	32
473.363	1	15
473.534	1	18
473.704	1	29
473.875	1	27
474.045	1	28
474.215	1	18
474.386	1	36
474.556	1	32
474.727	1	41
474.897	1	36
475.067	1	36
475.238	1	24
475.408	1	23
475.578	1	22
475.749	1	35
475.919	1	41
476.090	1	34
476.260	1	38
476.430	1	28
476.601	1	30
476.771	1	36
476.942	1	29
477.112	1	28
477.282	1	32
477.453	1	44
477.623	1	39
477.793	1	33
477.964	1	38
478.134	1	32
478.305	1	29
478.475	1	23
478.645	1	43
478.816	1	25
478.986	1	22
479.156	1	42
479.327	1	21
479.497	1	24
479.667	1	28
479.838	1	42
480.008	1	20
480.179	1	33
480.349	1	27
480.519	1	33
480.690	1	30
480.860	1	27
481.030	1	45
481.201	1	40
481.371	1	29
481.541	1	32
481.712	1	40
481.882	1	46
482.053	1	26
482.223	1	35
482.393	1	26
482.564	1	41
482.734	1	43
482.904	1	46
483.075	1	34
483.245	1	36
483.415	1	47
483.586	1	39
483.756	1	43
483.926	1	37
484.097	1	41
484.267	1	36
484.437	1	36
484.608	1	45
484.778	1	36
484.948	1	42
485.119	1	46
485.289	1	46
485.459	1	49
485.630	1	46
485.800	1	39
485.970	1	53
486.141	1	55
486.311	1	52
486.481	1	48
486.652	1	55
486.822	1	49
486.992	1	47
487.163	1	50
487.333	1	53
487.503	1	59
487.674	1	52
487.844	1	62
488.014	1	62
488.185	1	53
488.355	1	56
488.525	1	68
488.696	1	49
488.866	1	64
489.036	1	62
489.207	1	54
489.377	1	51
489.547	1	71
489.718	1	61
489.888	1	61
490.058	1	60
490.228	1	49
490.399	1	71
490.569	1	62
490.739	1	72
490.910	1	55
491.080	1	72
491.250	1	65
491.421	1	69
491.591	1	57
491.761	1	66
491.932	1	67
492.102	1	67
492.272	1	81
492.442	1	75
492.613	1	74
492.783	1	68
492.953	1	60
493.124	1	67
493.294	1	68
493.464	1	62
493.635	1	66
493.805	1	63
493.975	1	70
494.145	1	74
494.316	1	59
494.486	1	77
494.656	1	69
494.827	1	71
494.997	1	64
495.167	1	81
495.337	1	70
495.508	1	78
495.678	1	80
495.848	1	70
496.019	1	57
496.189	1	71
496.359	1	79
496.529	1	79
496.700	1	89
496.870	1	86
497.040	1	82
497.211	1	80
497.381	1	79
497.551	1	94
497.721	1	78
497.892	1	84
498.062	1	66
498.232	1	90
498.403	1	82
498.573	1	82
498.743	1	88
498.913	1	92
499.084	1	87
499.254	1	95
499.424	1	83
499.594	1	89
499.765	1	72
499.935	1	91
500.105	1	92
500.275	1	110
500.446	1	93
500.616	1	96
500.786	1	103
500.956	1	114
501.127	1	96
501.297	1	101
501.467	1	98
501.638	1	98
501.808	1	103
501.978	1	101
502.148	1	110
502.319	1	128
502.489	1	112
502.659	1	108
502.829	1	117
503.000	1	114
503.170	1	113
503.340	1	116
503.510	1	125
503.681	1	132
503.851	1	115
504.021	1	124
504.191	1	116
504.362	1	117
504.532	1	110
504.702	1	126
504.872	1	122
505.042	1	121
505.213	1	129
505.383	1	125
505.553	1	112
505.723	1	122
505.894	1	138
506.064	1	124
506.234	1	108
506.404	1	121
506.575	1	122
506.745	1	134
506.915	1	125
507.085	1	123
507.256	1	121
507.426	1	126
507.596	1	132
507.766	1	131
507.936	1	143
508.107	1	138
508.277	1	138
508.447	1	133
508.617	1	136
508.788	1	114
508.958	1	134
509.128	1	131
509.298	1	137
509.468	1	139
509.639	1	144
509.809	1	138
509.979	1	126
510.149	1	149
510.319	1	130
510.490	1	149
510.660	1	124
510.830	1	139
511.000	1	128
511.171	1	142
511.341	1	160
511.511	1	137
511.681	1	147
511.851	1	136
512.022	1	147
512.192	1	155
512.362	1	138
512.532	1	148
512.702	1	134
512.873	1	153
513.043	1	146
513.213	1	146
513.383	1	149
513.553	1	154
513.724	1	133
513.894	1	143
514.064	1	154
514.234	1	145
514.404	1	146
514.575	1	147
514.745	1	139
514.915	1	160
515.085	1	149
515.255	1	146
515.425	1	173
515.596	1	157
515.766	1	156
515.936	1	174
516.106	1	163
516.276	1	161
516.447	1	176
516.617	1	161
516.787	1	175
516.957	1	171
517.127	1	183
517.297	1	174
517.468	1	184
517.638	1	158
517.808	1	168
517.978	1	175
518.148	1	164
518.319	1	187
518.489	1	187
518.659	1	165
518.829	1	190
518.999	1	183
519.169	1	172
519.340	1	189
519.510	1	180
519.680	1	186
519.850	1	180
520.020	1	178
520.190	1	183
520.361	1	170
520.531	1	178
520.701	1	182
520.871	1	185
521.041	1	187
521.211	1	191
521.382	1	192
521.552	1	184
521.722	1	187
521.892	1	186
522.062	1	188
522.232	1	182
522.402	1	189
522.573	1	181
522.743	1	187
522.913	1	185
523.083	1	178
523.253	1	200
523.423	1	187
523.593	1	193
523.764	1	199
523.934	1	199
524.104	1	200
524.274	1	186
524.444	1	193
524.614	1	206
524.784	1	205
524.955	1	193
525.125	1	211
525.295	1	207
525.465	1	197
525.635	1	211
525.805	1	194
525.975	1	202
526.146	1	180
526.316	1	207
526.486	1	211
526.656	1	211
526.826	1	205
526.996	1	203
527.166	1	214
527.337	1	200
527.507	1	211
527.677	1	205
527.847	1	223
528.017	1	216
528.187	1	204
528.357	1	220
528.527	1	209
528.698	1	204
528.868	1	225
529.038	1	218
529.208	1	224
529.378	1	217
529.548	1	232
529.718	1	226
529.888	1	238
530.058	1	229
530.229	1	244
530.399	1	245
530.569	1	241
530.739	1	232
530.909	1	236
531.079	1	235
531.249	1	233
531.419	1	239
531.589	1	222
531.760	1	239
531.930	1	234
532.100	1	236
532.270	1	246
532.440	1	231
532.610	1	234
532.780	1	231
532.950	1	208
533.120	1	230
533.290	1	223
533.461	1	225
533.631	1	231
533.801	1	226
533.971	1	222
534.141	1	225
534.311	1	213
534.481	1	238
534.651	1	239
534.821	1	216
534.991	1	227
535.162	1	219
535.332	1	217
535.502	1	215
535.672	1	212
535.842	1	234
536.012	1	193
536.182	1	210
536.352	1	203
536.522	1	224
536.692	1	217
536.862	1	231
537.032	1	205
537.203	1	204
537.373	1	208
537.543	1	196
537.713	1	219
537.883	1	198
538.053	1	208
538.223	1	211
538.393	1	218
538.563	1	214
538.733	1	191
538.903	1	214
539.073	1	208
539.243	1	209
539.413	1	214
539.584	1	212
539.754	1	203
539.924	1	199
540.094	1	207
540.264	1	204
540.434	1	208
540.604	1	205
540.774	1	210
540.944	1	198
541.114	1	214
541.284	1	207
541.454	1	210
541.624	1	202
541.794	1	202
541.964	1	205
542.134	1	218
542.305	1	220
542.475	1	211
542.645	1	210
542.815	1	211
542.985	1	218
543.155	1	220
543.325	1	219
543.495	1	206
543.665	1	223
543.835	1	203
544.005	1	220
544.175	1	215
544.345	1	222
544.515	1	217
544.685	1	212
544.855	1	224
545.025	1	207
545.195	1	225
545.365	1	234
545.535	1	206
545.705	1	242
545.875	1	216
546.045	1	223
546.216	1	228
546.386	1	225
546.556	1	229
546.726	1	228
546.896	1	234
547.066	1	246
547.236	1	247
547.406	1	230
547.576	1	224
547.746	1	229
547.916	1	233
548.086	1	223
548.256	1	239
548.426	1	234
548.596	1	220
548.766	1	228
548.936	1	242
549.106	1	243
549.276	1	229
549.446	1	246
549.616	1	244
549.786	1	232
549.956	1	241
550.126	1	241
550.296	1	249
550.466	1	225
550.636	1	224
550.806	1	238
550.976	1	249
551.146	1	237
551.316	1	234
551.486	1	238
551.656	1	229
551.826	1	249
551.996	1	245
552.166	1	232
552.336	1	236
552.506	1	233
552.676	1	239
552.846	1	225
553.016	1	228
553.186	1	235
553.356	1	230
553.526	1	228
553.696	1	240
553.866	1	217
554.036	1	213
554.206	1	232
554.376	1	237
554.546	1	214
554.716	1	217
554.886	1	232
555.056	1	212
555.226	1	215
555.396	1	215
555.566	1	219
555.736	1	224
555.906	1	214
556.076	1	208
556.246	1	228
556.416	1	221
556.586	1	209
556.756	1	209
556.926	1	221
557.096	1	210
557.266	1	214
557.436	1	195
557.606	1	212
557.776	1	195
557.946	1	206
558.116	1	208
558.286	1	207
558.456	1	199
558.626	1	220
558.796	1	212
558.966	1	218
559.136	1	214
559.306	1	220
559.476	1	211
559.646	1	214
559.816	1	202
559.986	1	229
560.155	1	211
560.325	1	209
560.495	1	211
560.665	1	211
560.835	1	206
561.005	1	205
561.175	1	198
561.345	1	200
561.515	1	212
561.685	1	202
561.855	1	200
562.025	1	195
562.195	1	211
562.365	1	217
562.535	1	223
562.705	1	210
562.875	1	206
563.045	1	196
563.215	1	203
563.385	1	207
563.555	1	210
563.725	1	190
563.895	1	211
564.064	1	201
564.234	1	207
564.404	1	196
564.574	1	220
564.744	1	213
564.914	1	199
565.084	1	209
565.254	1	211
565.424	1	206
565.594	1	204
565.764	1	196
565.934	1	216
566.104	1	213
566.274	1	193
566.444	1	214
566.614	1	192
566.783	1	210
566.953	1	205
567.123	1	201
567.293	1	201
567.463	1	197
567.633	1	197
567.803	1	203
567.973	1	194
568.143	1	202
568.313	1	204
568.483	1	197
568.653	1	190
568.823	1	185
568.993	1	201
569.162	1	203
569.332	1	195
569.502	1	194
569.672	1	206
569.842	1	199
570.012	1	183
570.182	1	189
570.352	1	191
570.522	1	188
570.692	1	183
570.862	1	193
571.031	1	209
571.201	1	200
571.371	1	206
571.541	1	175
571.711	1	181
571.881	1	186
572.051	1	185
572.221	1	177
572.391	1	201
572.561	1	188
572.731	1	183
572.900	1	168
573.070	1	179
573.240	1	175
573.410	1	190
573.580	1	178
573.750	1	189
573.920	1	195
574.090	1	176
574.260	1	180
574.430	1	195
574.599	1	177
574.769	1	177
574.939	1	160
575.109	1	171
575.279	1	169
575.449	1	193
575.619	1	185
575.789	1	181
575.959	1	179
576.128	1	173
576.298	1	176
576.468	1	181
576.638	1	193
576.808	1	175
576.978	1	177
577.148	1	182
577.318	1	186
577.487	1	187
577.657	1	185
577.827	1	166
577.997	1	176
578.167	1	177
578.337	1	201
578.507	1	202
578.677	1	187
578.846	1	169
579.016	1	191
579.186	1	163
579.356	1	176
579.526	1	183
579.696	1	163
579.866	1	174
580.036	1	168
580.205	1	171
580.375	1	192
580.545	1	171
580.715	1	192
580.885	1	174
581.055	1	186
581.225	1	189
581.394	1	186
581.564	1	184
581.734	1	188
581.904	1	173
582.074	1	194
582.244	1	189
582.414	1	169
582.583	1	178
582.753	1	193
582.923	1	179
583.093	1	175
583.263	1	190
583.433	1	194
583.603	1	160
583.772	1	170
583.942	1	202
584.112	1	166
584.282	1	181
584.452	1	167
584.622	1	175
584.791	1	181
584.961	1	179
585.131	1	167
585.301	1	192
585.471	1	175
585.641	1	174
585.811	1	155
585.980	1	172
586.150	1	151
586.320	1	170
586.490	1	165
586.660	1	177
586.830	1	158
586.999	1	166
587.169	1	169
587.339	1	159
587.509	1	156
587.679	1	144
587.849	1	162
588.018	1	167
588.188	1	165
588.358	1	164
588.528	1	162
588.698	1	150
588.867	1	144
589.037	1	150
589.207	1	155
589.377	1	149
589.547	1	159
589.717	1	163
589.886	1	146
590.056	1	138
590.226	1	142
590.396	1	154
590.566	1	149
590.735	1	140
590.905	1	150
591.075	1	147
591.245	1	152
591.415	1	144
591.585	1	137
591.754	1	144
591.924	1	130
592.094	1	145
592.264	1	135
592.434	1	132
592.603	1	138
592.773	1	137
592.943	1	132
593.113	1	136
593.283	1	135
593.452	1	134
593.622	1	126
593.792	1	136
593.962	1	141
594.132	1	141
594.301	1	130
594.471	1	145
594.641	1	139
594.811	1	119
594.981	1	152
595.150	1	142
595.320	1	130
595.490	1	137
595.660	1	130
595.829	1	143
595.999	1	133
596.169	1	128
596.339	1	118
596.509	1	124
596.678	1	138
596.848	1	131
597.018	1	137
597.188	1	120
597.358	1	120
597.527	1	130
597.697	1	129
597.867	1	146
598.037	1	135
598.206	1	139
598.376	1	126
598.546	1	131
598.716	1	125
598.885	1	125
599.055	1	135
599.225	1	136
599.395	1	123
599.565	1	137
599.734	1	134
599.904	1	135
600.074	1	140
600.244	1	138
600.413	1	137
600.583	1	134
600.753	1	129
600.923	1	148
601.092	1	128
601.262	1	138
601.432	1	131
601.602	1	132
601.771	1	139
601.941	1	140
602.111	1	124
602.281	1	130
602.451	1	134
602.620	1	136
602.790	1	143
602.960	1	135
603.130	1	146
603.299	1	136
603.469	1	148
603.639	1	130
603.809	1	136
603.978	1	137
604.148	1	133
604.318	1	139
604.487	1	138
604.657	1	150
604.827	1	131
604.997	1	125
605.166	1	140
605.336	1	137
605.506	1	129
605.676	1	133
605.845	1	129
606.015	1	132
606.185	1	133
606.355	1	142
606.524	1	140
606.694	1	117
606.864	1	124
607.034	1	140
607.203	1	137
607.373	1	145
607.543	1	135
607.712	1	125
607.882	1	125
608.052	1	128
608.222	1	122
608.391	1	122
608.561	1	142
608.731	1	122
608.901	1	136
609.070	1	114
609.240	1	122
609.410	1	129
609.579	1	120
609.749	1	136
609.919	1	124
610.089	1	119
610.258	1	124
610.428	1	130
610.598	1	125
610.767	1	125
610.937	1	125
611.107	1	120
611.277	1	114
611.446	1	109
611.616	1	109
611.786	1	113
611.955	1	121
612.125	1	125
612.295	1	121
612.465	1	98
612.634	1	126
612.804	1	115
612.974	1	123
613.143	1	112
613.313	1	107
613.483	1	97
613.652	1	128
613.822	1	105
613.992	1	109
614.162	1	103
614.331	1	111
614.501	1	106
614.671	1	116
614.840	1	101
615.010	1	117
615.180	1	106
615.349	1	116
615.519	1	97
615.689	1	116
615.858	1	105
616.028	1	99
616.198	1	105
616.368	1	101
616.537	1	102
616.707	1	99
616.877	1	92
617.046	1	103
617.216	1	113
617.386	1	99
617.555	1	102
617.725	1	99
617.895	1	103
618.064	1	90
618.234	1	102
618.404	1	105
618.573	1	92
618.743	1	100
618.913	1	92
619.082	1	95
619.252	1	101
619.422	1	85
619.591	1	91
619.761	1	89
619.931	1	95
620.100	1	90
620.270	1	100
620.440	1	109
620.609	1	105
620.779	1	93
620.949	1	101
621.118	1	94
621.288	1	101
621.458	1	94
621.627	1	105
621.797	1	89
621.967	1	104
622.136	1	98
622.306	1	100
622.476	1	94
622.645	1	89
622.815	1	92
622.985	1	90
623.154	1	101
623.324	1	95
623.494	1	82
623.663	1	104
623.833	1	95
624.002	1	96
624.172	1	84
624.342	1	102
624.511	1	91
624.681	1	90
624.851	1	75
625.020	1	94
625.190	1	91
625.360	1	95
625.529	1	102
625.699	1	88
625.869	1	102
626.038	1	90
626.208	1	87
626.377	1	95
626.547	1	78
626.717	1	82
626.886	1	87
627.056	1	95
627.226	1	94
627.395	1	83
627.565	1	90
627.735	1	82
627.904	1	80
628.074	1	79
628.243	1	83
628.413	1	90
628.583	1	89
628.752	1	75
628.922	1	76
629.091	1	78
629.261	1	83
629.431	1	88
629.600	1	88
629.770	1	92
629.940	1	88
630.109	1	77
630.279	1	83
630.448	1	87
630.618	1	78
630.788	1	100
630.957	1	91
631.127	1	75
631.297	1	81
631.466	1	89
631.636	1	93
631.805	1	92
631.975	1	78
632.145	1	91
632.314	1	88
632.484	1	71
632.653	1	94
632.823	1	77
632.993	1	74
633.162	1	88
633.332	1	77
633.501	1	82
633.671	1	84
633.841	1	82
634.010	1	77
634.180	1	75
634.349	1	73
634.519	1	82
634.689	1	82
634.858	1	83
635.028	1	79
635.197	1	79
635.367	1	72
635.537	1	77
635.706	1	83
635.876	1	75
636.045	1	75
636.215	1	74
636.384	1	72
636.554	1	73
636.724	1	79
636.893	1	81
637.063	1	74
637.232	1	82
637.402	1	82
637.572	1	75
637.741	1	66
637.911	1	66
638.080	1	88
638.250	1	75
638.419	1	65
638.589	1	74
638.759	1	69
638.928	1	78
639.098	1	59
639.267	1	80
639.437	1	74
639.606	1	65
639.776	1	70
639.946	1	69
640.115	1	80
640.285	1	80
640.454	1	87
640.624	1	73
640.793	1	69
640.963	1	70
641.132	1	75
641.302	1	63
641.472	1	59
641.641	1	66
641.811	1	71
641.980	1	76
642.150	1	65
642.319	1	74
642.489	1	62
642.659	1	69
642.828	1	71
642.998	1	75
643.167	1	70
643.337	1	72
643.506	1	76
643.676	1	75
643.845	1	69
644.015	1	75
644.184	1	80
644.354	1	63
644.524	1	68
644.693	1	71
644.863	1	67
645.032	1	70
645.202	1	75
645.371	1	65
645.541	1	68
645.710	1	73
645.880	1	66
646.049	1	72
646.219	1	62
646.388	1	74
646.558	1	80
646.728	1	72
646.897	1	72
647.067	1	74
647.236	1	65
647.406	1	70
647.575	1	60
647.745	1	74
647.914	1	68
648.084	1	71
648.253	1	70
648.423	1	68
648.592	1	75
648.762	1	73
648.931	1	74
649.101	1	65
649.270	1	64
649.440	1	60
649.610	1	65
649.779	1	63
649.949	1	67
650.118	1	71
650.288	1	61
650.457	1	67
650.627	1	65
650.796	1	73
650.966	1	69
651.135	1	73
651.305	1	62
651.474	1	68
651.644	1	59
651.813	1	69
651.983	1	67
652.152	1	51
652.322	1	61
652.491	1	69
652.661	1	60
652.830	1	60
653.000	1	53
653.169	1	52
653.339	1	63
653.508	1	59
653.678	1	58
653.847	1	59
654.017	1	74
654.186	1	71
654.356	1	56
654.525	1	52
654.695	1	65
654.864	1	63
655.034	1	61
655.203	1	60
655.373	1	54
655.542	1	58
655.712	1	54
655.881	1	54
656.051	1	58
656.220	1	58
656.390	1	51
656.559	1	42
656.729	1	54
656.898	1	53
657.068	1	58
657.237	1	65
657.406	1	45
657.576	1	48
657.745	1	57
657.915	1	54
658.084	1	47
658.254	1	65
658.423	1	46
658.593	1	51
658.762	1	51
658.932	1	52
659.101	1	47
659.271	1	50
659.440	1	56
659.610	1	57
659.779	1	53
659.949	1	42
660.118	1	58
660.288	1	53
660.457	1	48
660.626	1	55
660.796	1	46
660.965	1	57
661.135	1	30
661.304	1	44
661.474	1	60
661.643	1	46
661.813	1	47
661.982	1	46
662.152	1	44
662.321	1	50
662.491	1	33
662.660	1	42
662.829	1	43
662.999	1	52
663.168	1	49
663.338	1	56
663.507	1	49
663.677	1	37
663.846	1	41
664.016	1	51
664.185	1	54
664.354	1	42
664.524	1	45
664.693	1	37
664.863	1	42
665.032	1	44
665.202	1	67
665.371	1	58
665.541	1	49
665.710	1	50
665.879	1	55
666.049	1	42
666.218	1	51
666.388	1	50
666.557	1	44
666.727	1	43
666.896	1	47
667.065	1	42
667.235	1	47
667.404	1	51
667.574	1	29
667.743	1	37
667.913	1	34
668.082	1	50
668.251	1	49
668.421	1	54
668.590	1	42
668.760	1	48
668.929	1	43
669.099	1	47
669.268	1	39
669.437	1	51
669.607	1	42
669.776	1	53
669.946	1	51
670.115	1	38
670.285	1	64
670.454	1	45
670.623	1	51
670.793	1	53
670.962	1	45
671.132	1	52
671.301	1	45
671.470	1	46
671.640	1	45
671.809	1	46
671.979	1	52
672.148	1	38
672.317	1	56
672.487	1	46
672.656	1	48
672.826	1	46
672.995	1	31
673.164	1	39
673.334	1	39
673.503	1	41
673.673	1	50
673.842	1	48
674.011	1	44
674.181	1	39
674.350	1	58
674.520	1	44
674.689	1	49
674.858	1	43
675.028	1	41
675.197	1	54
675.367	1	33
675.536	1	36
675.705	1	57
675.875	1	49
676.044	1	65
676.214	1	40
676.383	1	47
676.552	1	55
676.722	1	54
676.891	1	56
677.060	1	44
677.230	1	45
677.399	1	34
677.569	1	37
677.738	1	47
677.907	1	41
678.077	1	61
678.246	1	41
678.416	1	41
678.585	1	52
678.754	1	47
678.924	1	57
679.093	1	50
679.262	1	52
679.432	1	54
679.601	1	42
679.771	1	43
679.940	1	49
680.109	1	41
680.279	1	45
680.448	1	45
680.617	1	42
680.787	1	34
680.956	1	26
681.125	1	57
681.295	1	47
681.464	1	45
681.634	1	28
681.803	1	48
681.972	1	31
682.142	1	48
682.311	1	41
682.480	1	41
682.650	1	39
682.819	1	46
682.988	1	42
683.158	1	37
683.327	1	49
683.496	1	43
683.666	1	42
683.835	1	35
684.004	1	39
684.174	1	40
684.343	1	50
684.512	1	29
684.682	1	41
684.851	1	33
685.021	1	41
685.190	1	34
685.359	1	45
685.529	1	53
685.698	1	42
685.867	1	50
686.037	1	39
686.206	1	40
686.375	1	45
686.545	1	48
686.714	1	38
686.883	1	33
687.053	1	42
687.222	1	31
687.391	1	42
687.561	1	40
687.730	1	53
687.899	1	25
688.069	1	44
688.238	1	43
688.407	1	39
688.577	1	45
688.746	1	33
