340.368	1	4
340.539	1	8
340.710	1	-4
340.881	1	2
341.052	1	4
341.223	1	7
341.394	1	0
341.565	1	5
341.737	1	3
341.908	1	5
342.079	1	-7
342.250	1	7
342.421	1	3
342.592	1	-4
342.763	1	0
342.934	1	-4
343.105	1	7
343.276	1	-2
343.447	1	-7
343.618	1	3
343.789	1	7
343.960	1	-6
344.131	1	-3
344.302	1	-7
344.473	1	4
344.644	1	8
344.815	1	8
344.986	1	17
345.157	1	6
345.328	1	1
345.499	1	-1
345.670	1	9
345.841	1	12
346.012	1	2
346.183	1	8
346.354	1	1
346.526	1	11
346.697	1	12
346.868	1	11
347.039	1	10
347.210	1	-5
347.381	1	5
347.552	1	13
347.723	1	11
347.894	1	8
348.065	1	-6
348.236	1	3
348.407	1	6
348.578	1	5
348.749	1	-1
348.920	1	5
349.091	1	3
349.262	1	5
349.433	1	3
349.604	1	16
349.775	1	12
349.946	1	13
350.117	1	5
350.288	1	2
350.459	1	-2
350.630	1	12
350.801	1	3
350.972	1	-3
351.143	1	-1
351.314	1	4
351.485	1	2
351.656	1	1
351.827	1	-3
351.998	1	9
352.169	1	-2
352.340	1	2
352.511	1	4
352.682	1	7
352.853	1	6
353.024	1	12
353.195	1	12
353.366	1	8
353.537	1	1
353.708	1	12
353.879	1	2
354.050	1	6
354.221	1	-7
354.392	1	12
354.563	1	-1
354.734	1	7
354.905	1	11
355.076	1	11
355.247	1	-2
355.418	1	-8
355.589	1	5
355.760	1	12
355.931	1	10
356.102	1	12
356.273	1	-2
356.444	1	1
356.615	1	17
356.785	1	4
356.956	1	10
357.127	1	6
357.298	1	15
357.469	1	2
357.640	1	5
357.811	1	9
357.982	1	8
358.153	1	14
358.324	1	3
358.495	1	6
358.666	1	10
358.837	1	10
359.008	1	3
359.179	1	9
359.350	1	13
359.521	1	15
359.692	1	11
359.863	1	8
360.034	1	7
360.205	1	10
360.376	1	1
360.547	1	9
360.718	1	16
360.889	1	17
361.060	1	20
361.231	1	14
361.401	1	11
361.572	1	11
361.743	1	13
361.914	1	20
362.085	1	4
362.256	1	18
362.427	1	17
362.598	1	20
362.769	1	10
362.940	1	26
363.111	1	31
363.282	1	29
363.453	1	15
363.624	1	19
363.795	1	7
363.966	1	8
364.137	1	20
364.308	1	21
364.478	1	20
364.649	1	18
364.820	1	26
364.991	1	23
365.162	1	27
365.333	1	26
365.504	1	23
365.675	1	23
365.846	1	26
366.017	1	27
366.188	1	34
366.359	1	39
366.530	1	43
366.701	1	37
366.871	1	43
367.042	1	33
367.213	1	34
367.384	1	36
367.555	1	36
367.726	1	48
367.897	1	42
368.068	1	40
368.239	1	44
368.410	1	45
368.581	1	33
368.752	1	36
368.923	1	39
369.093	1	29
369.264	1	37
369.435	1	32
369.606	1	39
369.777	1	41
369.948	1	47
370.119	1	43
370.290	1	36
370.461	1	34
370.632	1	28
370.803	1	30
370.973	1	45
371.144	1	38
371.315	1	44
371.486	1	26
371.657	1	28
371.828	1	24
371.999	1	34
372.170	1	36
372.341	1	33
372.512	1	30
372.682	1	35
372.853	1	29
373.024	1	18
373.195	1	25
373.366	1	29
373.537	1	30
373.708	1	12
373.879	1	40
374.050	1	25
374.220	1	29
374.391	1	24
374.562	1	22
374.733	1	16
374.904	1	30
375.075	1	12
375.246	1	22
375.417	1	32
375.588	1	16
375.758	1	27
375.929	1	24
376.100	1	16
376.271	1	26
376.442	1	31
376.613	1	15
376.784	1	15
376.955	1	20
377.125	1	15
377.296	1	15
377.467	1	11
377.638	1	24
377.809	1	17
377.980	1	3
378.151	1	12
378.321	1	16
378.492	1	13
378.663	1	19
378.834	1	13
379.005	1	13
379.176	1	9
379.347	1	9
379.518	1	4
379.688	1	14
379.859	1	10
380.030	1	9
380.201	1	0
380.372	1	11
380.543	1	11
380.714	1	17
380.884	1	2
381.055	1	18
381.226	1	13
381.397	1	11
381.568	1	14
381.739	1	1
381.910	1	21
382.080	1	9
382.251	1	11
382.422	1	7
382.593	1	14
382.764	1	13
382.935	1	7
383.105	1	8
383.276	1	9
383.447	1	12
383.618	1	16
383.789	1	26
383.960	1	13
384.130	1	5
384.301	1	3
384.472	1	3
384.643	1	-3
384.814	1	8
384.985	1	3
385.156	1	9
385.326	1	8
385.497	1	8
385.668	1	16
385.839	1	2
386.010	1	14
386.180	1	9
386.351	1	12
386.522	1	14
386.693	1	-4
386.864	1	17
387.035	1	8
387.205	1	4
387.376	1	7
387.547	1	9
387.718	1	4
387.889	1	11
388.060	1	14
388.230	1	0
388.401	1	0
388.572	1	17
388.743	1	13
388.914	1	-1
389.084	1	-1
389.255	1	13
389.426	1	2
389.597	1	-3
389.768	1	16
389.939	1	-3
390.109	1	13
390.280	1	6
390.451	1	12
390.622	1	1
390.793	1	12
390.963	1	2
391.134	1	6
391.305	1	10
391.476	1	12
391.647	1	-8
391.817	1	5
391.988	1	15
392.159	1	9
392.330	1	18
392.501	1	3
392.671	1	-2
392.842	1	-5
393.013	1	4
393.184	1	2
393.355	1	9
393.525	1	5
393.696	1	8
393.867	1	8
394.038	1	1
394.208	1	19
394.379	1	-1
394.550	1	8
394.721	1	7
394.892	1	6
395.062	1	-2
395.233	1	7
395.404	1	6
395.575	1	4
395.746	1	8
395.916	1	-3
396.087	1	12
396.258	1	3
396.429	1	9
396.599	1	-2
396.770	1	8
396.941	1	2
397.112	1	4
397.283	1	-2
397.453	1	10
397.624	1	2
397.795	1	9
397.966	1	5
398.136	1	4
398.307	1	0
398.478	1	3
398.649	1	8
398.819	1	2
398.990	1	-13
399.161	1	-2
399.332	1	2
399.503	1	5
399.673	1	-1
399.844	1	-4
400.015	1	13
400.186	1	-10
400.356	1	-9
400.527	1	14
400.698	1	1
400.869	1	7
401.039	1	10
401.210	1	2
401.381	1	8
401.552	1	-2
401.722	1	4
401.893	1	1
402.064	1	-2
402.235	1	8
402.405	1	0
402.576	1	12
402.747	1	0
402.918	1	5
403.088	1	12
403.259	1	15
403.430	1	10
403.601	1	3
403.771	1	4
403.942	1	3
404.113	1	12
404.284	1	1
404.454	1	-2
404.625	1	9
404.796	1	3
404.967	1	8
405.137	1	7
405.308	1	9
405.479	1	3
405.649	1	0
405.820	1	3
405.991	1	3
406.162	1	6
406.332	1	0
406.503	1	-1
406.674	1	16
406.845	1	8
407.015	1	13
407.186	1	3
407.357	1	-3
407.527	1	-3
407.698	1	1
407.869	1	-9
408.040	1	-4
408.210	1	4
408.381	1	3
408.552	1	1
408.722	1	-5
408.893	1	-9
409.064	1	2
409.235	1	3
409.405	1	4
409.576	1	6
409.747	1	-1
409.917	1	0
410.088	1	9
410.259	1	10
410.430	1	6
410.600	1	4
410.771	1	2
410.942	1	5
411.112	1	5
411.283	1	-3
411.454	1	14
411.625	1	-3
411.795	1	14
411.966	1	6
412.137	1	-11
412.307	1	3
412.478	1	4
412.649	1	9
412.819	1	-3
412.990	1	3
413.161	1	6
413.332	1	-7
413.502	1	1
413.673	1	-2
413.844	1	6
414.014	1	11
414.185	1	5
414.356	1	-3
414.526	1	1
414.697	1	0
414.868	1	2
415.038	1	1
415.209	1	-6
415.380	1	8
415.550	1	3
415.721	1	-4
415.892	1	2
416.063	1	10
416.233	1	7
416.404	1	1
416.575	1	3
416.745	1	10
416.916	1	-11
417.087	1	8
417.257	1	-3
417.428	1	7
417.599	1	-3
417.769	1	5
417.940	1	6
418.111	1	6
418.281	1	-6
418.452	1	-1
418.623	1	-7
418.793	1	13
418.964	1	6
419.135	1	11
419.305	1	-4
419.476	1	0
419.647	1	5
419.817	1	1
419.988	1	14
420.159	1	7
420.329	1	7
420.500	1	5
420.671	1	-7
420.841	1	-5
421.012	1	4
421.183	1	13
421.353	1	4
421.524	1	-7
421.695	1	-11
421.865	1	4
422.036	1	1
422.206	1	10
422.377	1	4
422.548	1	2
422.718	1	19
422.889	1	4
423.060	1	-6
423.230	1	3
423.401	1	3
423.572	1	6
423.742	1	-4
423.913	1	6
424.084	1	23
424.254	1	1
424.425	1	-1
424.595	1	1
424.766	1	1
424.937	1	2
425.107	1	-1
425.278	1	-1
425.449	1	2
425.619	1	-14
425.790	1	1
425.961	1	0
426.131	1	7
426.302	1	-3
426.472	1	-10
426.643	1	9
426.814	1	-2
426.984	1	-8
427.155	1	14
427.326	1	10
427.496	1	-3
427.667	1	10
427.837	1	10
428.008	1	15
428.179	1	5
428.349	1	-14
428.520	1	3
428.691	1	1
428.861	1	4
429.032	1	-5
429.202	1	2
429.373	1	9
429.544	1	-2
429.714	1	5
429.885	1	9
430.055	1	15
430.226	1	6
430.397	1	-2
430.567	1	12
430.738	1	2
430.909	1	4
431.079	1	-1
431.250	1	12
431.420	1	-5
431.591	1	4
431.762	1	5
431.932	1	-7
432.103	1	10
432.273	1	2
432.444	1	2
432.615	1	-4
432.785	1	1
432.956	1	-1
433.126	1	2
433.297	1	-10
433.468	1	0
433.638	1	11
433.809	1	-8
433.979	1	5
434.150	1	-1
434.320	1	3
434.491	1	1
434.662	1	-7
434.832	1	8
435.003	1	1
435.173	1	10
435.344	1	-4
435.515	1	-2
435.685	1	2
435.856	1	15
436.026	1	-7
436.197	1	0
436.368	1	8
436.538	1	13
436.709	1	-1
436.879	1	18
437.050	1	-6
437.220	1	0
437.391	1	-10
437.562	1	4
437.732	1	2
437.903	1	16
438.073	1	8
438.244	1	1
438.414	1	-1
438.585	1	-2
438.756	1	-1
438.926	1	7
439.097	1	3
439.267	1	-8
439.438	1	5
439.608	1	1
439.779	1	7
439.949	1	7
440.120	1	-2
440.291	1	6
440.461	1	12
440.632	1	-4
440.802	1	11
440.973	1	-5
441.143	1	-1
441.314	1	-9
441.485	1	-6
441.655	1	-3
441.826	1	4
441.996	1	2
442.167	1	4
442.337	1	3
442.508	1	4
442.678	1	2
442.849	1	2
443.019	1	0
443.190	1	3
443.361	1	7
443.531	1	2
443.702	1	9
443.872	1	4
444.043	1	1
444.213	1	-6
444.384	1	7
444.554	1	3
444.725	1	3
444.895	1	-12
445.066	1	13
445.237	1	0
445.407	1	8
445.578	1	8
445.748	1	-2
445.919	1	6
446.089	1	7
446.260	1	9
446.430	1	-7
446.601	1	-9
446.771	1	-11
446.942	1	11
447.112	1	10
447.283	1	14
447.453	1	1
447.624	1	2
447.794	1	2
447.965	1	2
448.135	1	6
448.306	1	-4
448.477	1	5
448.647	1	1
448.818	1	9
448.988	1	10
449.159	1	-4
449.329	1	2
449.500	1	6
449.670	1	3
449.841	1	-1
450.011	1	11
450.182	1	9
450.352	1	-7
450.523	1	4
450.693	1	2
450.864	1	4
451.034	1	-6
451.205	1	3
451.375	1	10
451.546	1	-5
451.716	1	9
451.887	1	-6
452.057	1	-2
452.228	1	6
452.398	1	8
452.569	1	8
452.739	1	-4
452.910	1	6
453.080	1	0
453.251	1	4
453.421	1	9
453.592	1	3
453.762	1	2
453.933	1	-3
454.103	1	-5
454.274	1	10
454.444	1	0
454.615	1	4
454.785	1	-2
454.956	1	1
455.126	1	13
455.297	1	-6
455.467	1	-7
455.638	1	10
455.808	1	11
455.979	1	8
456.149	1	4
456.320	1	7
456.490	1	4
456.661	1	4
456.831	1	-7
457.001	1	4
457.172	1	-5
457.342	1	10
457.513	1	11
457.683	1	13
457.854	1	10
458.024	1	13
458.195	1	4
458.365	1	-5
458.536	1	1
458.706	1	8
458.877	1	8
459.047	1	4
459.218	1	5
459.388	1	10
459.559	1	-3
459.729	1	7
459.899	1	1
460.070	1	0
460.240	1	-4
460.411	1	8
460.581	1	6
460.752	1	1
460.922	1	-4
461.093	1	6
461.263	1	-2
461.434	1	-6
461.604	1	10
461.775	1	10
461.945	1	6
462.115	1	3
462.286	1	-2
462.456	1	0
462.627	1	-1
462.797	1	-3
462.968	1	7
463.138	1	8
463.309	1	4
463.479	1	-2
463.649	1	6
463.820	1	13
463.990	1	8
464.161	1	-1
464.331	1	5
464.502	1	5
464.672	1	1
464.843	1	5
465.013	1	7
465.183	1	13
465.354	1	-9
465.524	1	6
465.695	1	10
465.865	1	8
466.036	1	-10
466.206	1	13
466.376	1	-1
466.547	1	9
466.717	1	-1
466.888	1	2
467.058	1	2
467.229	1	-3
467.399	1	6
467.569	1	10
467.740	1	3
467.910	1	-8
468.081	1	-2
468.251	1	1
468.422	1	3
468.592	1	5
468.762	1	15
468.933	1	4
469.103	1	9
469.274	1	6
469.444	1	2
469.614	1	-1
469.785	1	-8
469.955	1	5
470.126	1	5
470.296	1	4
470.467	1	3
470.637	1	4
470.807	1	-1
470.978	1	-4
471.148	1	-13
471.319	1	9
471.489	1	5
471.659	1	-6
471.830	1	-9
472.000	1	3
472.171	1	6
472.341	1	11
472.511	1	-4
472.682	1	-5
472.852	1	7
473.023	1	4
473.193	1	6
473.363	1	1
473.534	1	6
473.704	1	4
473.875	1	1
474.045	1	9
474.215	1	1
474.386	1	-3
474.556	1	2
474.727	1	15
474.897	1	0
475.067	1	2
475.238	1	-10
475.408	1	-2
475.578	1	2
475.749	1	-3
475.919	1	9
476.090	1	7
476.260	1	4
476.430	1	-6
476.601	1	-5
476.771	1	11
476.942	1	4
477.112	1	-11
477.282	1	6
477.453	1	1
477.623	1	21
477.793	1	7
477.964	1	7
478.134	1	9
478.305	1	-7
478.475	1	3
478.645	1	5
478.816	1	-1
478.986	1	-3
479.156	1	10
479.327	1	-12
479.497	1	0
479.667	1	-3
479.838	1	1
480.008	1	7
480.179	1	-5
480.349	1	3
480.519	1	0
480.690	1	7
480.860	1	-5
481.030	1	2
481.201	1	-6
481.371	1	4
481.541	1	9
481.712	1	0
481.882	1	10
482.053	1	-3
482.223	1	-1
482.393	1	-8
482.564	1	11
482.734	1	9
482.904	1	8
483.075	1	-3
483.245	1	-6
483.415	1	1
483.586	1	10
483.756	1	-4
483.926	1	3
484.097	1	-6
484.267	1	8
484.437	1	-1
484.608	1	5
484.778	1	-6
484.948	1	-2
485.119	1	9
485.289	1	6
485.459	1	2
485.630	1	2
485.800	1	-1
485.970	1	-1
486.141	1	13
486.311	1	3
486.481	1	4
486.652	1	5
486.822	1	15
486.992	1	8
487.163	1	5
487.333	1	-1
487.503	1	1
487.674	1	8
487.844	1	1
488.014	1	3
488.185	1	-2
488.355	1	-4
488.525	1	-2
488.696	1	-4
488.866	1	5
489.036	1	10
489.207	1	8
489.377	1	0
489.547	1	15
489.718	1	13
489.888	1	11
490.058	1	9
490.228	1	-14
490.399	1	-7
490.569	1	5
490.739	1	6
490.910	1	-1
491.080	1	4
491.250	1	8
491.421	1	11
491.591	1	3
491.761	1	7
491.932	1	4
492.102	1	5
492.272	1	7
492.442	1	2
492.613	1	10
492.783	1	1
492.953	1	2
493.124	1	9
493.294	1	0
493.464	1	-9
493.635	1	1
493.805	1	-3
493.975	1	13
494.145	1	8
494.316	1	7
494.486	1	10
494.656	1	2
494.827	1	1
494.997	1	1
495.167	1	6
495.337	1	4
495.508	1	13
495.678	1	0
495.848	1	3
496.019	1	-2
496.189	1	-6
496.359	1	-1
496.529	1	-3
496.700	1	9
496.870	1	10
497.040	1	10
497.211	1	9
497.381	1	14
497.551	1	7
497.721	1	-2
497.892	1	7
498.062	1	-1
498.232	1	5
498.403	1	13
498.573	1	1
498.743	1	3
498.913	1	5
499.084	1	7
499.254	1	15
499.424	1	16
499.594	1	6
499.765	1	-14
499.935	1	12
500.105	1	3
500.275	1	7
500.446	1	3
500.616	1	1
500.786	1	1
500.956	1	18
501.127	1	7
501.297	1	10
501.467	1	5
501.638	1	-6
501.808	1	2
501.978	1	2
502.148	1	6
502.319	1	14
502.489	1	10
502.659	1	10
502.829	1	6
503.000	1	4
503.170	1	10
503.340	1	17
503.510	1	3
503.681	1	13
503.851	1	5
504.021	1	0
504.191	1	-1
504.362	1	4
504.532	1	-14
504.702	1	6
504.872	1	4
505.042	1	9
505.213	1	-1
505.383	1	-3
505.553	1	-2
505.723	1	13
505.894	1	12
506.064	1	7
506.234	1	0
506.404	1	5
506.575	1	8
506.745	1	21
506.915	1	13
507.085	1	-8
507.256	1	-10
507.426	1	6
507.596	1	7
507.766	1	20
507.936	1	11
508.107	1	5
508.277	1	6
508.447	1	14
508.617	1	16
508.788	1	2
508.958	1	11
509.128	1	-3
509.298	1	4
509.468	1	4
509.639	1	18
509.809	1	8
509.979	1	5
510.149	1	11
510.319	1	4
510.490	1	14
510.660	1	-3
510.830	1	7
511.000	1	7
511.171	1	13
511.341	1	10
511.511	1	9
511.681	1	0
511.851	1	5
512.022	1	5
512.192	1	12
512.362	1	7
512.532	1	2
512.702	1	-1
512.873	1	13
513.043	1	-1
513.213	1	-5
513.383	1	7
513.553	1	11
513.724	1	1
513.894	1	9
514.064	1	8
514.234	1	-6
514.404	1	-15
514.575	1	-7
514.745	1	-3
514.915	1	7
515.085	1	6
515.255	1	2
515.425	1	9
515.596	1	-6
515.766	1	3
515.936	1	3
516.106	1	7
516.276	1	1
516.447	1	5
516.617	1	12
516.787	1	2
516.957	1	-1
517.127	1	4
517.297	1	4
517.468	1	10
517.638	1	3
517.808	1	6
517.978	1	8
518.148	1	4
518.319	1	17
518.489	1	8
518.659	1	4
518.829	1	17
518.999	1	11
519.169	1	5
519.340	1	11
519.510	1	9
519.680	1	1
519.850	1	5
520.020	1	-7
520.190	1	7
520.361	1	4
520.531	1	12
520.701	1	4
520.871	1	0
521.041	1	8
521.211	1	9
521.382	1	13
521.552	1	5
521.722	1	5
521.892	1	17
522.062	1	4
522.232	1	-2
522.402	1	1
522.573	1	10
522.743	1	3
522.913	1	13
523.083	1	6
523.253	1	20
523.423	1	1
523.593	1	15
523.764	1	0
523.934	1	3
524.104	1	3
524.274	1	11
524.444	1	12
524.614	1	3
524.784	1	14
524.955	1	4
525.125	1	15
525.295	1	5
525.465	1	13
525.635	1	5
525.805	1	4
525.975	1	3
526.146	1	9
526.316	1	14
526.486	1	6
526.656	1	17
526.826	1	5
526.996	1	15
527.166	1	11
527.337	1	4
527.507	1	3
527.677	1	3
527.847	1	3
528.017	1	7
528.187	1	2
528.357	1	1
528.527	1	-1
528.698	1	-8
528.868	1	9
529.038	1	3
529.208	1	10
529.378	1	13
529.548	1	8
529.718	1	13
529.888	1	12
530.058	1	10
530.229	1	10
530.399	1	6
530.569	1	8
530.739	1	8
530.909	1	6
531.079	1	5
531.249	1	5
531.419	1	16
531.589	1	9
531.760	1	7
531.930	1	9
532.100	1	4
532.270	1	20
532.440	1	15
532.610	1	8
532.780	1	-5
532.950	1	-3
533.120	1	20
533.290	1	11
533.461	1	2
533.631	1	14
533.801	1	11
533.971	1	4
534.141	1	-3
534.311	1	2
534.481	1	23
534.651	1	12
534.821	1	11
534.991	1	5
535.162	1	2
535.332	1	9
535.502	1	5
535.672	1	8
535.842	1	4
536.012	1	-6
536.182	1	4
536.352	1	5
536.522	1	10
536.692	1	10
536.862	1	5
537.032	1	0
537.203	1	8
537.373	1	1
537.543	1	2
537.713	1	10
537.883	1	15
538.053	1	17
538.223	1	6
538.393	1	17
538.563	1	-2
538.733	1	7
538.903	1	8
539.073	1	1
539.243	1	-1
539.413	1	7
539.584	1	6
539.754	1	3
539.924	1	1
540.094	1	7
540.264	1	13
540.434	1	14
540.604	1	6
540.774	1	8
540.944	1	-1
541.114	1	4
541.284	1	13
541.454	1	1
541.624	1	-4
541.794	1	4
541.964	1	11
542.134	1	7
542.305	1	8
542.475	1	10
542.645	1	0
542.815	1	1
542.985	1	6
543.155	1	10
543.325	1	16
543.495	1	5
543.665	1	6
543.835	1	-4
544.005	1	15
544.175	1	2
544.345	1	9
544.515	1	9
544.685	1	10
544.855	1	-2
545.025	1	5
545.195	1	0
545.365	1	5
545.535	1	1
545.705	1	5
545.875	1	4
546.045	1	-1
546.216	1	8
546.386	1	9
546.556	1	0
546.726	1	-2
546.896	1	22
547.066	1	19
547.236	1	12
547.406	1	5
547.576	1	-6
547.746	1	0
547.916	1	1
548.086	1	14
548.256	1	15
548.426	1	16
548.596	1	-7
548.766	1	10
548.936	1	5
549.106	1	18
549.276	1	1
549.446	1	4
549.616	1	17
549.786	1	2
549.956	1	2
550.126	1	11
550.296	1	7
550.466	1	-2
550.636	1	8
550.806	1	0
550.976	1	13
551.146	1	9
551.316	1	15
551.486	1	1
551.656	1	12
551.826	1	2
551.996	1	9
552.166	1	5
552.336	1	10
552.506	1	10
552.676	1	5
552.846	1	3
553.016	1	6
553.186	1	6
553.356	1	12
553.526	1	1
553.696	1	5
553.866	1	-2
554.036	1	5
554.206	1	14
554.376	1	5
554.546	1	2
554.716	1	2
554.886	1	4
555.056	1	4
555.226	1	-2
555.396	1	2
555.566	1	17
555.736	1	7
555.906	1	4
556.076	1	12
556.246	1	0
556.416	1	4
556.586	1	8
556.756	1	4
556.926	1	7
557.096	1	-2
557.266	1	5
557.436	1	-8
557.606	1	5
557.776	1	13
557.946	1	9
558.116	1	0
558.286	1	2
558.456	1	-4
558.626	1	16
558.796	1	6
558.966	1	8
559.136	1	14
559.306	1	7
559.476	1	8
559.646	1	14
559.816	1	1
559.986	1	-3
560.155	1	11
560.325	1	-5
560.495	1	5
560.665	1	10
560.835	1	-3
561.005	1	-1
561.175	1	-8
561.345	1	3
561.515	1	7
561.685	1	5
561.855	1	9
562.025	1	-5
562.195	1	12
562.365	1	10
562.535	1	12
562.705	1	9
562.875	1	8
563.045	1	4
563.215	1	-5
563.385	1	7
563.555	1	-1
563.725	1	0
563.895	1	4
564.064	1	12
564.234	1	4
564.404	1	6
564.574	1	-11
564.744	1	-2
564.914	1	5
565.084	1	14
565.254	1	13
565.424	1	9
565.594	1	10
565.764	1	6
565.934	1	12
566.104	1	4
566.274	1	2
566.444	1	5
566.614	1	-4
566.783	1	9
566.953	1	4
567.123	1	9
567.293	1	13
567.463	1	8
567.633	1	10
567.803	1	5
567.973	1	4
568.143	1	2
568.313	1	7
568.483	1	1
568.653	1	6
568.823	1	0
568.993	1	15
569.162	1	8
569.332	1	10
569.502	1	-2
569.672	1	4
569.842	1	-8
570.012	1	3
570.182	1	1
570.352	1	9
570.522	1	4
570.692	1	8
570.862	1	2
571.031	1	5
571.201	1	4
571.371	1	7
571.541	1	3
571.711	1	-1
571.881	1	3
572.051	1	3
572.221	1	8
572.391	1	5
572.561	1	3
572.731	1	13
572.900	1	-1
573.070	1	-3
573.240	1	9
573.410	1	4
573.580	1	-1
573.750	1	1
573.920	1	8
574.090	1	1
574.260	1	6
574.430	1	9
574.599	1	2
574.769	1	-1
574.939	1	-3
575.109	1	-1
575.279	1	-1
575.449	1	2
575.619	1	7
575.789	1	12
575.959	1	-2
576.128	1	10
576.298	1	5
576.468	1	-1
576.638	1	11
576.808	1	7
576.978	1	3
577.148	1	3
577.318	1	-1
577.487	1	8
577.657	1	10
577.827	1	1
577.997	1	3
578.167	1	7
578.337	1	4
578.507	1	7
578.677	1	6
578.846	1	-7
579.016	1	9
579.186	1	-4
579.356	1	-3
579.526	1	-2
579.696	1	4
579.866	1	-2
580.036	1	4
580.205	1	-3
580.375	1	5
580.545	1	7
580.715	1	3
580.885	1	-3
581.055	1	6
581.225	1	1
581.394	1	5
581.564	1	-11
581.734	1	11
581.904	1	3
582.074	1	-1
582.244	1	1
582.414	1	-5
582.583	1	4
582.753	1	3
582.923	1	7
583.093	1	4
583.263	1	19
583.433	1	11
583.603	1	-7
583.772	1	3
583.942	1	10
584.112	1	5
584.282	1	-6
584.452	1	-9
584.622	1	19
584.791	1	11
584.961	1	0
585.131	1	17
585.301	1	10
585.471	1	0
585.641	1	12
585.811	1	-5
585.980	1	5
586.150	1	-1
586.320	1	11
586.490	1	4
586.660	1	1
586.830	1	-12
586.999	1	4
587.169	1	13
587.339	1	-2
587.509	1	5
587.679	1	0
587.849	1	-1
588.018	1	1
588.188	1	4
588.358	1	17
588.528	1	7
588.698	1	-1
588.867	1	3
589.037	1	-7
589.207	1	-2
589.377	1	6
589.547	1	14
589.717	1	6
589.886	1	-2
590.056	1	-7
590.226	1	2
590.396	1	6
590.566	1	-2
590.735	1	11
590.905	1	12
591.075	1	9
591.245	1	5
591.415	1	7
591.585	1	4
591.754	1	6
591.924	1	-1
592.094	1	18
592.264	1	-2
592.434	1	-4
592.603	1	3
592.773	1	4
592.943	1	5
593.113	1	9
593.283	1	2
593.452	1	0
593.622	1	-4
593.792	1	9
593.962	1	7
594.132	1	6
594.301	1	4
594.471	1	5
594.641	1	2
594.811	1	-4
594.981	1	8
595.150	1	0
595.320	1	3
595.490	1	5
595.660	1	1
595.829	1	0
595.999	1	0
596.169	1	4
596.339	1	5
596.509	1	5
596.678	1	-11
596.848	1	2
597.018	1	6
597.188	1	-4
597.358	1	1
597.527	1	1
597.697	1	3
597.867	1	10
598.037	1	1
598.206	1	8
598.376	1	-7
598.546	1	7
598.716	1	2
598.885	1	7
599.055	1	-3
599.225	1	10
599.395	1	8
599.565	1	4
599.734	1	3
599.904	1	3
600.074	1	5
600.244	1	8
600.413	1	1
600.583	1	2
600.753	1	12
600.923	1	13
601.092	1	0
601.262	1	-5
601.432	1	0
601.602	1	4
601.771	1	12
601.941	1	1
602.111	1	1
602.281	1	6
602.451	1	10
602.620	1	5
602.790	1	0
602.960	1	-2
603.130	1	2
603.299	1	3
603.469	1	2
603.639	1	4
603.809	1	3
603.978	1	11
604.148	1	8
604.318	1	7
604.487	1	-1
604.657	1	7
604.827	1	-13
604.997	1	8
605.166	1	8
605.336	1	2
605.506	1	5
605.676	1	2
605.845	1	6
606.015	1	3
606.185	1	6
606.355	1	2
606.524	1	-3
606.694	1	4
606.864	1	-1
607.034	1	5
607.203	1	5
607.373	1	-2
607.543	1	12
607.712	1	-7
607.882	1	1
608.052	1	-2
608.222	1	4
608.391	1	9
608.561	1	8
608.731	1	6
608.901	1	-2
609.070	1	-2
609.240	1	-2
609.410	1	9
609.579	1	13
609.749	1	0
609.919	1	0
610.089	1	-4
610.258	1	5
610.428	1	2
610.598	1	12
610.767	1	-5
610.937	1	6
611.107	1	1
611.277	1	9
611.446	1	-6
611.616	1	0
611.786	1	2
611.955	1	5
612.125	1	1
612.295	1	-5
612.465	1	-12
612.634	1	3
612.804	1	4
612.974	1	5
613.143	1	-10
613.313	1	1
613.483	1	-4
613.652	1	13
613.822	1	5
613.992	1	11
614.162	1	1
614.331	1	0
614.501	1	2
614.671	1	18
614.840	1	-5
615.010	1	9
615.180	1	16
615.349	1	13
615.519	1	-6
615.689	1	11
615.858	1	3
616.028	1	10
616.198	1	-8
616.368	1	1
616.537	1	3
616.707	1	9
616.877	1	1
617.046	1	2
617.216	1	8
617.386	1	4
617.555	1	-2
617.725	1	12
617.895	1	-1
618.064	1	4
618.234	1	3
618.404	1	-2
618.573	1	-1
618.743	1	1
618.913	1	11
619.082	1	13
619.252	1	8
619.422	1	-4
619.591	1	6
619.761	1	-5
619.931	1	-8
620.100	1	2
620.270	1	-1
620.440	1	10
620.609	1	1
620.779	1	5
620.949	1	7
621.118	1	0
621.288	1	11
621.458	1	4
621.627	1	8
621.797	1	5
621.967	1	5
622.136	1	-1
622.306	1	2
622.476	1	-2
622.645	1	-5
622.815	1	2
622.985	1	6
623.154	1	1
623.324	1	3
623.494	1	-3
623.663	1	5
623.833	1	8
624.002	1	-7
624.172	1	0
624.342	1	19
624.511	1	6
624.681	1	7
624.851	1	6
625.020	1	0
625.190	1	7
625.360	1	-2
625.529	1	6
625.699	1	4
625.869	1	4
626.038	1	1
626.208	1	-2
626.377	1	5
626.547	1	-1
626.717	1	-1
626.886	1	4
627.056	1	5
627.226	1	4
627.395	1	0
627.565	1	-2
627.735	1	-13
627.904	1	1
628.074	1	5
628.243	1	-2
628.413	1	0
628.583	1	-1
628.752	1	0
628.922	1	-4
629.091	1	-10
629.261	1	2
629.431	1	15
629.600	1	-3
629.770	1	-1
629.940	1	7
630.109	1	-2
630.279	1	7
630.448	1	0
630.618	1	2
630.788	1	5
630.957	1	5
631.127	1	5
631.297	1	-2
631.466	1	7
631.636	1	14
631.805	1	10
631.975	1	-6
632.145	1	1
632.314	1	8
632.484	1	-4
632.653	1	5
632.823	1	2
632.993	1	-4
633.162	1	12
633.332	1	-2
633.501	1	7
633.671	1	10
633.841	1	-6
634.010	1	11
634.180	1	7
634.349	1	-9
634.519	1	3
634.689	1	1
634.858	1	6
635.028	1	-1
635.197	1	8
635.367	1	4
635.537	1	7
635.706	1	-5
635.876	1	7
636.045	1	9
636.215	1	3
636.384	1	-11
636.554	1	-3
636.724	1	6
636.893	1	4
637.063	1	2
637.232	1	9
637.402	1	15
637.572	1	3
637.741	1	-4
637.911	1	6
638.080	1	13
638.250	1	4
638.419	1	-12
638.589	1	-1
638.759	1	10
638.928	1	3
639.098	1	-4
639.267	1	4
639.437	1	-13
639.606	1	3
639.776	1	1
639.946	1	6
640.115	1	3
640.285	1	0
640.454	1	4
640.624	1	-5
640.793	1	4
640.963	1	0
641.132	1	2
641.302	1	-7
641.472	1	2
641.641	1	7
641.811	1	4
641.980	1	-4
642.150	1	-3
642.319	1	10
642.489	1	3
642.659	1	3
642.828	1	6
642.998	1	9
643.167	1	-3
643.337	1	10
643.506	1	7
643.676	1	10
643.845	1	-1
644.015	1	-3
644.184	1	4
644.354	1	3
644.524	1	-4
644.693	1	4
644.863	1	-7
645.032	1	12
645.202	1	3
645.371	1	5
645.541	1	3
645.710	1	15
645.880	1	10
646.049	1	9
646.219	1	1
646.388	1	5
646.558	1	11
646.728	1	-3
646.897	1	10
647.067	1	1
647.236	1	3
647.406	1	5
647.575	1	-2
647.745	1	-9
647.914	1	3
648.084	1	1
648.253	1	7
648.423	1	7
648.592	1	0
648.762	1	5
648.931	1	7
649.101	1	-1
649.270	1	0
649.440	1	-2
649.610	1	0
649.779	1	7
649.949	1	-3
650.118	1	1
650.288	1	5
650.457	1	-5
650.627	1	-7
650.796	1	6
650.966	1	12
651.135	1	1
651.305	1	0
651.474	1	-3
651.644	1	5
651.813	1	5
651.983	1	7
652.152	1	-3
652.322	1	1
652.491	1	10
652.661	1	6
652.830	1	-6
653.000	1	-2
653.169	1	0
653.339	1	3
653.508	1	2
653.678	1	4
653.847	1	-1
654.017	1	12
654.186	1	16
654.356	1	5
654.525	1	-6
654.695	1	9
654.864	1	12
655.034	1	5
655.203	1	1
655.373	1	1
655.542	1	-5
655.712	1	-8
655.881	1	0
656.051	1	0
656.220	1	4
656.390	1	4
656.559	1	1
656.729	1	10
656.898	1	14
657.068	1	5
657.237	1	6
657.406	1	-1
657.576	1	10
657.745	1	6
657.915	1	9
658.084	1	-4
658.254	1	22
658.423	1	0
658.593	1	-4
658.762	1	4
658.932	1	5
659.101	1	-3
659.271	1	2
659.440	1	5
659.610	1	12
659.779	1	2
659.949	1	2
660.118	1	7
660.288	1	2
660.457	1	11
660.626	1	3
660.796	1	-5
660.965	1	11
661.135	1	-11
661.304	1	4
661.474	1	8
661.643	1	7
661.813	1	-2
661.982	1	10
662.152	1	-4
662.321	1	2
662.491	1	-6
662.660	1	-3
662.829	1	2
662.999	1	7
663.168	1	9
663.338	1	9
663.507	1	0
663.677	1	-5
663.846	1	1
664.016	1	0
664.185	1	2
664.354	1	-8
664.524	1	4
664.693	1	-1
664.863	1	6
665.032	1	-5
665.202	1	18
665.371	1	-2
665.541	1	5
665.710	1	-5
665.879	1	-4
666.049	1	7
666.218	1	7
666.388	1	10
666.557	1	1
666.727	1	10
666.896	1	7
667.065	1	-6
667.235	1	-5
667.404	1	10
667.574	1	-3
667.743	1	0
667.913	1	-4
668.082	1	9
668.251	1	7
668.421	1	10
668.590	1	-7
668.760	1	6
668.929	1	3
669.099	1	12
669.268	1	1
669.437	1	4
669.607	1	3
669.776	1	6
669.946	1	2
670.115	1	9
670.285	1	9
670.454	1	-2
670.623	1	3
670.793	1	11
670.962	1	-3
671.132	1	4
671.301	1	-2
671.470	1	6
671.640	1	0
671.809	1	-6
671.979	1	4
672.148	1	2
672.317	1	8
672.487	1	3
672.656	1	5
672.826	1	4
672.995	1	-6
673.164	1	3
673.334	1	-1
673.503	1	5
673.673	1	2
673.842	1	7
674.011	1	3
674.181	1	2
674.350	1	3
674.520	1	5
674.689	1	5
674.858	1	5
675.028	1	-1
675.197	1	11
675.367	1	-2
675.536	1	1
675.705	1	2
675.875	1	-1
676.044	1	8
676.214	1	3
676.383	1	9
676.552	1	4
676.722	1	8
676.891	1	8
677.060	1	0
677.230	1	-1
677.399	1	-1
677.569	1	-3
677.738	1	5
677.907	1	-4
678.077	1	18
678.246	1	-9
678.416	1	-5
678.585	1	5
678.754	1	-2
678.924	1	8
679.093	1	3
679.262	1	5
679.432	1	9
679.601	1	11
679.771	1	4
679.940	1	-1
680.109	1	-1
680.279	1	7
680.448	1	0
680.617	1	-5
680.787	1	-2
680.956	1	-8
681.125	1	3
681.295	1	7
681.464	1	12
681.634	1	4
681.803	1	16
681.972	1	-12
682.142	1	-8
682.311	1	3
682.480	1	0
682.650	1	2
682.819	1	12
682.988	1	3
683.158	1	14
683.327	1	9
683.496	1	1
683.666	1	4
683.835	1	-9
684.004	1	2
684.174	1	7
684.343	1	5
684.512	1	2
684.682	1	-3
684.851	1	2
685.021	1	-1
685.190	1	1
685.359	1	1
685.529	1	15
685.698	1	-6
685.867	1	10
686.037	1	-8
686.206	1	8
686.375	1	12
686.545	1	14
686.714	1	2
686.883	1	-5
687.053	1	-7
687.222	1	0
687.391	1	5
687.561	1	-1
687.730	1	11
687.899	1	-5
688.069	1	5
688.238	1	-2
688.407	1	-9
688.577	1	14
688.746	1	-2
