340.368	1	-4
340.539	1	9
340.710	1	-3
340.881	1	-2
341.052	1	6
341.223	1	1
341.394	1	8
341.565	1	4
341.737	1	5
341.908	1	16
342.079	1	4
342.250	1	-2
342.421	1	12
342.592	1	2
342.763	1	0
342.934	1	-4
343.105	1	17
343.276	1	8
343.447	1	3
343.618	1	1
343.789	1	4
343.960	1	1
344.131	1	6
344.302	1	3
344.473	1	9
344.644	1	7
344.815	1	13
344.986	1	11
345.157	1	-1
345.328	1	3
345.499	1	5
345.670	1	9
345.841	1	5
346.012	1	11
346.183	1	7
346.354	1	-2
346.526	1	10
346.697	1	16
346.868	1	7
347.039	1	14
347.210	1	-7
347.381	1	-3
347.552	1	10
347.723	1	11
347.894	1	13
348.065	1	-10
348.236	1	-4
348.407	1	5
348.578	1	6
348.749	1	16
348.920	1	9
349.091	1	0
349.262	1	10
349.433	1	11
349.604	1	18
349.775	1	8
349.946	1	17
350.117	1	6
350.288	1	8
350.459	1	8
350.630	1	20
350.801	1	13
350.972	1	7
351.143	1	0
351.314	1	12
351.485	1	-1
351.656	1	8
351.827	1	14
351.998	1	8
352.169	1	5
352.340	1	9
352.511	1	8
352.682	1	5
352.853	1	6
353.024	1	12
353.195	1	13
353.366	1	5
353.537	1	8
353.708	1	4
353.879	1	25
354.050	1	4
354.221	1	6
354.392	1	12
354.563	1	21
354.734	1	14
354.905	1	19
355.076	1	2
355.247	1	15
355.418	1	7
355.589	1	22
355.760	1	16
355.931	1	9
356.102	1	18
356.273	1	16
356.444	1	0
356.615	1	16
356.785	1	13
356.956	1	18
357.127	1	14
357.298	1	28
357.469	1	15
357.640	1	17
357.811	1	24
357.982	1	13
358.153	1	15
358.324	1	21
358.495	1	23
358.666	1	34
358.837	1	24
359.008	1	27
359.179	1	22
359.350	1	29
359.521	1	37
359.692	1	36
359.863	1	40
360.034	1	25
360.205	1	43
360.376	1	31
360.547	1	49
360.718	1	36
360.889	1	50
361.060	1	35
361.231	1	46
361.401	1	46
361.572	1	52
361.743	1	55
361.914	1	52
362.085	1	38
362.256	1	53
362.427	1	51
362.598	1	70
362.769	1	59
362.940	1	74
363.111	1	79
363.282	1	80
363.453	1	73
363.624	1	78
363.795	1	81
363.966	1	87
364.137	1	98
364.308	1	93
364.478	1	94
364.649	1	103
364.820	1	106
364.991	1	109
365.162	1	116
365.333	1	118
365.504	1	131
365.675	1	134
365.846	1	132
366.017	1	145
366.188	1	156
366.359	1	151
366.530	1	156
366.701	1	162
366.871	1	178
367.042	1	161
367.213	1	166
367.384	1	186
367.555	1	184
367.726	1	198
367.897	1	196
368.068	1	194
368.239	1	212
368.410	1	207
368.581	1	199
368.752	1	193
368.923	1	192
369.093	1	199
369.264	1	194
369.435	1	194
369.606	1	194
369.777	1	188
369.948	1	192
370.119	1	175
370.290	1	170
370.461	1	177
370.632	1	166
370.803	1	165
370.973	1	172
371.144	1	164
371.315	1	161
371.486	1	146
371.657	1	136
371.828	1	145
371.999	1	141
372.170	1	151
372.341	1	143
372.512	1	127
372.682	1	131
372.853	1	127
373.024	1	111
373.195	1	111
373.366	1	117
373.537	1	115
373.708	1	102
373.879	1	103
374.050	1	109
374.220	1	109
374.391	1	91
374.562	1	101
374.733	1	95
374.904	1	96
375.075	1	88
375.246	1	84
375.417	1	98
375.588	1	84
375.758	1	85
375.929	1	81
376.100	1	79
376.271	1	86
376.442	1	82
376.613	1	71
376.784	1	65
376.955	1	72
377.125	1	70
377.296	1	73
377.467	1	69
377.638	1	67
377.809	1	71
377.980	1	45
378.151	1	62
378.321	1	63
378.492	1	48
378.663	1	60
378.834	1	51
379.005	1	48
379.176	1	50
379.347	1	59
379.518	1	61
379.688	1	43
379.859	1	52
380.030	1	41
380.201	1	40
380.372	1	53
380.543	1	37
380.714	1	55
380.884	1	42
381.055	1	45
381.226	1	43
381.397	1	47
381.568	1	38
381.739	1	32
381.910	1	43
382.080	1	38
382.251	1	39
382.422	1	29
382.593	1	44
382.764	1	35
382.935	1	38
383.105	1	32
383.276	1	38
383.447	1	33
383.618	1	35
383.789	1	39
383.960	1	35
384.130	1	31
384.301	1	23
384.472	1	20
384.643	1	24
384.814	1	39
384.985	1	30
385.156	1	32
385.326	1	27
385.497	1	35
385.668	1	32
385.839	1	20
386.010	1	25
386.180	1	25
386.351	1	22
386.522	1	34
386.693	1	18
386.864	1	20
387.035	1	30
387.205	1	13
387.376	1	16
387.547	1	30
387.718	1	17
387.889	1	29
388.060	1	26
388.230	1	9
388.401	1	13
388.572	1	19
388.743	1	28
388.914	1	19
389.084	1	17
389.255	1	18
389.426	1	21
389.597	1	15
389.768	1	24
389.939	1	-2
390.109	1	21
390.280	1	4
390.451	1	15
390.622	1	14
390.793	1	25
390.963	1	8
391.134	1	12
391.305	1	12
391.476	1	27
391.647	1	6
391.817	1	11
391.988	1	24
392.159	1	17
392.330	1	18
392.501	1	18
392.671	1	6
392.842	1	8
393.013	1	12
393.184	1	20
393.355	1	16
393.525	1	20
393.696	1	4
393.867	1	21
394.038	1	0
394.208	1	25
394.379	1	4
394.550	1	9
394.721	1	6
394.892	1	8
395.062	1	8
395.233	1	-1
395.404	1	17
395.575	1	13
395.746	1	23
395.916	1	5
396.087	1	24
396.258	1	0
396.429	1	18
396.599	1	4
396.770	1	10
396.941	1	12
397.112	1	14
397.283	1	2
397.453	1	15
397.624	1	6
397.795	1	11
397.966	1	11
398.136	1	11
398.307	1	0
398.478	1	-2
398.649	1	14
398.819	1	6
398.990	1	4
399.161	1	-2
399.332	1	7
399.503	1	9
399.673	1	13
399.844	1	2
400.015	1	15
400.186	1	9
400.356	1	3
400.527	1	18
400.698	1	7
400.869	1	9
401.039	1	12
401.210	1	10
401.381	1	15
401.552	1	-4
401.722	1	10
401.893	1	15
402.064	1	17
402.235	1	14
402.405	1	3
402.576	1	7
402.747	1	11
402.918	1	2
403.088	1	10
403.259	1	11
403.430	1	11
403.601	1	16
403.771	1	10
403.942	1	14
404.113	1	1
404.284	1	-8
404.454	1	5
404.625	1	9
404.796	1	15
404.967	1	5
405.137	1	8
405.308	1	7
405.479	1	4
405.649	1	11
405.820	1	19
405.991	1	6
406.162	1	1
406.332	1	1
406.503	1	6
406.674	1	14
406.845	1	9
407.015	1	12
407.186	1	2
407.357	1	6
407.527	1	3
407.698	1	10
407.869	1	1
408.040	1	5
408.210	1	10
408.381	1	10
408.552	1	4
408.722	1	-1
408.893	1	3
409.064	1	7
409.235	1	6
409.405	1	-2
409.576	1	-3
409.747	1	5
409.917	1	3
410.088	1	12
410.259	1	13
410.430	1	11
410.600	1	-2
410.771	1	14
410.942	1	9
411.112	1	4
411.283	1	4
411.454	1	7
411.625	1	-3
411.795	1	14
411.966	1	8
412.137	1	-7
412.307	1	4
412.478	1	14
412.649	1	13
412.819	1	-6
412.990	1	3
413.161	1	5
413.332	1	-3
413.502	1	3
413.673	1	1
413.844	1	10
414.014	1	11
414.185	1	-1
414.356	1	7
414.526	1	7
414.697	1	11
414.868	1	1
415.038	1	-8
415.209	1	-7
415.380	1	9
415.550	1	6
415.721	1	-3
415.892	1	11
416.063	1	14
416.233	1	9
416.404	1	-7
416.575	1	9
416.745	1	1
416.916	1	-12
417.087	1	9
417.257	1	3
417.428	1	9
417.599	1	8
417.769	1	15
417.940	1	1
418.111	1	9
418.281	1	-3
418.452	1	6
418.623	1	-3
418.793	1	4
418.964	1	-4
419.135	1	9
419.305	1	8
419.476	1	1
419.647	1	15
419.817	1	1
419.988	1	11
420.159	1	9
420.329	1	1
420.500	1	6
420.671	1	-4
420.841	1	0
421.012	1	6
421.183	1	11
421.353	1	10
421.524	1	6
421.695	1	2
421.865	1	0
422.036	1	18
422.206	1	0
422.377	1	14
422.548	1	4
422.718	1	11
422.889	1	3
423.060	1	-3
423.230	1	20
423.401	1	4
423.572	1	4
423.742	1	7
423.913	1	7
424.084	1	19
424.254	1	8
424.425	1	-7
424.595	1	11
424.766	1	5
424.937	1	5
425.107	1	9
425.278	1	2
425.449	1	8
425.619	1	-2
425.790	1	10
425.961	1	4
426.131	1	6
426.302	1	-6
426.472	1	5
426.643	1	8
426.814	1	-6
426.984	1	11
427.155	1	12
427.326	1	8
427.496	1	2
427.667	1	12
427.837	1	14
428.008	1	10
428.179	1	1
428.349	1	-4
428.520	1	-3
428.691	1	13
428.861	1	13
429.032	1	11
429.202	1	1
429.373	1	11
429.544	1	1
429.714	1	3
429.885	1	-3
430.055	1	3
430.226	1	3
430.397	1	10
430.567	1	6
430.738	1	3
430.909	1	4
431.079	1	5
431.250	1	12
431.420	1	5
431.591	1	7
431.762	1	5
431.932	1	0
432.103	1	8
432.273	1	-1
432.444	1	8
432.615	1	10
432.785	1	7
432.956	1	5
433.126	1	1
433.297	1	0
433.468	1	4
433.638	1	17
433.809	1	5
433.979	1	1
434.150	1	8
434.320	1	11
434.491	1	-9
434.662	1	-8
434.832	1	7
435.003	1	2
435.173	1	9
435.344	1	3
435.515	1	4
435.685	1	4
435.856	1	14
436.026	1	2
436.197	1	-3
436.368	1	13
436.538	1	4
436.709	1	3
436.879	1	10
437.050	1	-3
437.220	1	2
437.391	1	7
437.562	1	16
437.732	1	11
437.903	1	10
438.073	1	12
438.244	1	-5
438.414	1	-1
438.585	1	9
438.756	1	4
438.926	1	6
439.097	1	3
439.267	1	9
439.438	1	13
439.608	1	-2
439.779	1	10
439.949	1	10
440.120	1	-5
440.291	1	3
440.461	1	11
440.632	1	2
440.802	1	16
440.973	1	-3
441.143	1	1
441.314	1	-4
441.485	1	2
441.655	1	-4
441.826	1	8
441.996	1	2
442.167	1	13
442.337	1	3
442.508	1	0
442.678	1	6
442.849	1	-4
443.019	1	3
443.190	1	0
443.361	1	10
443.531	1	8
443.702	1	8
443.872	1	-3
444.043	1	2
444.213	1	4
444.384	1	4
444.554	1	6
444.725	1	9
444.895	1	-5
445.066	1	2
445.237	1	2
445.407	1	12
445.578	1	14
445.748	1	4
445.919	1	6
446.089	1	10
446.260	1	5
446.430	1	-3
446.601	1	-9
446.771	1	-5
446.942	1	9
447.112	1	18
447.283	1	10
447.453	1	3
447.624	1	0
447.794	1	-5
447.965	1	8
448.135	1	0
448.306	1	-1
448.477	1	13
448.647	1	1
448.818	1	10
448.988	1	8
449.159	1	6
449.329	1	-2
449.500	1	15
449.670	1	-19
449.841	1	-2
450.011	1	12
450.182	1	18
450.352	1	-5
450.523	1	11
450.693	1	1
450.864	1	10
451.034	1	7
451.205	1	5
451.375	1	3
451.546	1	-8
451.716	1	8
451.887	1	-3
452.057	1	1
452.228	1	1
452.398	1	8
452.569	1	16
452.739	1	-1
452.910	1	10
453.080	1	-2
453.251	1	10
453.421	1	7
453.592	1	5
453.762	1	6
453.933	1	9
454.103	1	1
454.274	1	13
454.444	1	-7
454.615	1	2
454.785	1	4
454.956	1	5
455.126	1	11
455.297	1	-13
455.467	1	-1
455.638	1	5
455.808	1	14
455.979	1	13
456.149	1	3
456.320	1	1
456.490	1	12
456.661	1	8
456.831	1	-5
457.001	1	14
457.172	1	0
457.342	1	1
457.513	1	6
457.683	1	17
457.854	1	18
458.024	1	16
458.195	1	-6
458.365	1	-3
458.536	1	-2
458.706	1	10
458.877	1	7
459.047	1	2
459.218	1	-1
459.388	1	11
459.559	1	6
459.729	1	12
459.899	1	4
460.070	1	5
460.240	1	-1
460.411	1	4
460.581	1	7
460.752	1	9
460.922	1	3
461.093	1	9
461.263	1	-2
461.434	1	3
461.604	1	15
461.775	1	3
461.945	1	-1
462.115	1	14
462.286	1	-4
462.456	1	-7
462.627	1	7
462.797	1	5
462.968	1	5
463.138	1	3
463.309	1	8
463.479	1	1
463.649	1	11
463.820	1	5
463.990	1	6
464.161	1	4
464.331	1	5
464.502	1	3
464.672	1	3
464.843	1	-2
465.013	1	6
465.183	1	7
465.354	1	-3
465.524	1	6
465.695	1	11
465.865	1	4
466.036	1	3
466.206	1	16
466.376	1	6
466.547	1	-5
466.717	1	6
466.888	1	4
467.058	1	6
467.229	1	9
467.399	1	9
467.569	1	8
467.740	1	-3
467.910	1	-2
468.081	1	2
468.251	1	4
468.422	1	7
468.592	1	-2
468.762	1	8
468.933	1	2
469.103	1	7
469.274	1	18
469.444	1	8
469.614	1	-2
469.785	1	-6
469.955	1	4
470.126	1	4
470.296	1	9
470.467	1	9
470.637	1	1
470.807	1	0
470.978	1	2
471.148	1	1
471.319	1	13
471.489	1	9
471.659	1	-4
471.830	1	1
472.000	1	2
472.171	1	14
472.341	1	11
472.511	1	7
472.682	1	10
472.852	1	5
473.023	1	6
473.193	1	5
473.363	1	4
473.534	1	7
473.704	1	13
473.875	1	-7
474.045	1	6
474.215	1	0
474.386	1	4
474.556	1	4
474.727	1	8
474.897	1	3
475.067	1	10
475.238	1	6
475.408	1	5
475.578	1	1
475.749	1	6
475.919	1	11
476.090	1	12
476.260	1	14
476.430	1	2
476.601	1	10
476.771	1	15
476.942	1	-9
477.112	1	-4
477.282	1	8
477.453	1	18
477.623	1	16
477.793	1	15
477.964	1	10
478.134	1	9
478.305	1	1
478.475	1	7
478.645	1	7
478.816	1	5
478.986	1	0
479.156	1	17
479.327	1	-4
479.497	1	12
479.667	1	2
479.838	1	5
480.008	1	10
480.179	1	6
480.349	1	6
480.519	1	8
480.690	1	10
480.860	1	2
481.030	1	8
481.201	1	8
481.371	1	7
481.541	1	2
481.712	1	9
481.882	1	15
482.053	1	3
482.223	1	-4
482.393	1	3
482.564	1	-3
482.734	1	18
482.904	1	9
483.075	1	4
483.245	1	0
483.415	1	5
483.586	1	16
483.756	1	15
483.926	1	10
484.097	1	1
484.267	1	10
484.437	1	11
484.608	1	12
484.778	1	5
484.948	1	1
485.119	1	0
485.289	1	8
485.459	1	7
485.630	1	19
485.800	1	3
485.970	1	19
486.141	1	18
486.311	1	14
486.481	1	9
486.652	1	6
486.822	1	7
486.992	1	12
487.163	1	8
487.333	1	8
487.503	1	12
487.674	1	0
487.844	1	10
488.014	1	11
488.185	1	2
488.355	1	5
488.525	1	17
488.696	1	9
488.866	1	19
489.036	1	18
489.207	1	19
489.377	1	13
489.547	1	15
489.718	1	16
489.888	1	14
490.058	1	11
490.228	1	14
490.399	1	17
490.569	1	11
490.739	1	17
490.910	1	13
491.080	1	5
491.250	1	9
491.421	1	17
491.591	1	16
491.761	1	11
491.932	1	18
492.102	1	12
492.272	1	13
492.442	1	17
492.613	1	15
492.783	1	8
492.953	1	14
493.124	1	9
493.294	1	9
493.464	1	11
493.635	1	3
493.805	1	10
493.975	1	14
494.145	1	18
494.316	1	18
494.486	1	20
494.656	1	10
494.827	1	18
494.997	1	18
495.167	1	7
495.337	1	19
495.508	1	24
495.678	1	14
495.848	1	7
496.019	1	-3
496.189	1	2
496.359	1	14
496.529	1	19
496.700	1	14
496.870	1	12
497.040	1	11
497.211	1	9
497.381	1	13
497.551	1	26
497.721	1	6
497.892	1	10
498.062	1	12
498.232	1	12
498.403	1	20
498.573	1	15
498.743	1	21
498.913	1	6
499.084	1	15
499.254	1	25
499.424	1	18
499.594	1	16
499.765	1	5
499.935	1	8
500.105	1	9
500.275	1	21
500.446	1	12
500.616	1	13
500.786	1	8
500.956	1	14
501.127	1	17
501.297	1	13
501.467	1	10
501.638	1	10
501.808	1	20
501.978	1	7
502.148	1	18
502.319	1	34
502.489	1	15
502.659	1	24
502.829	1	29
503.000	1	18
503.170	1	33
503.340	1	27
503.510	1	11
503.681	1	23
503.851	1	9
504.021	1	25
504.191	1	15
504.362	1	22
504.532	1	14
504.702	1	20
504.872	1	19
505.042	1	21
505.213	1	16
505.383	1	11
505.553	1	12
505.723	1	14
505.894	1	27
506.064	1	23
506.234	1	18
506.404	1	21
506.575	1	17
506.745	1	26
506.915	1	25
507.085	1	13
507.256	1	8
507.426	1	17
507.596	1	26
507.766	1	27
507.936	1	23
508.107	1	12
508.277	1	16
508.447	1	24
508.617	1	25
508.788	1	14
508.958	1	19
509.128	1	11
509.298	1	21
509.468	1	17
509.639	1	28
509.809	1	27
509.979	1	18
510.149	1	20
510.319	1	12
510.490	1	34
510.660	1	19
510.830	1	23
511.000	1	33
511.171	1	15
511.341	1	24
511.511	1	20
511.681	1	12
511.851	1	22
512.022	1	31
512.192	1	36
512.362	1	13
512.532	1	27
512.702	1	21
512.873	1	22
513.043	1	31
513.213	1	19
513.383	1	20
513.553	1	32
513.724	1	24
513.894	1	17
514.064	1	30
514.234	1	22
514.404	1	9
514.575	1	23
514.745	1	28
514.915	1	13
515.085	1	30
515.255	1	22
515.425	1	22
515.596	1	32
515.766	1	24
515.936	1	23
516.106	1	31
516.276	1	26
516.447	1	17
516.617	1	30
516.787	1	27
516.957	1	17
517.127	1	38
517.297	1	30
517.468	1	26
517.638	1	23
517.808	1	34
517.978	1	36
518.148	1	28
518.319	1	38
518.489	1	34
518.659	1	23
518.829	1	34
518.999	1	37
519.169	1	15
519.340	1	37
519.510	1	35
519.680	1	20
519.850	1	26
520.020	1	22
520.190	1	24
520.361	1	35
520.531	1	28
520.701	1	26
520.871	1	38
521.041	1	30
521.211	1	19
521.382	1	25
521.552	1	40
521.722	1	14
521.892	1	18
522.062	1	28
522.232	1	15
522.402	1	24
522.573	1	28
522.743	1	29
522.913	1	40
523.083	1	14
523.253	1	36
523.423	1	28
523.593	1	32
523.764	1	25
523.934	1	34
524.104	1	38
524.274	1	29
524.444	1	20
524.614	1	33
524.784	1	34
524.955	1	11
525.125	1	35
525.295	1	33
525.465	1	38
525.635	1	35
525.805	1	33
525.975	1	30
526.146	1	30
526.316	1	34
526.486	1	36
526.656	1	35
526.826	1	32
526.996	1	31
527.166	1	32
527.337	1	32
527.507	1	39
527.677	1	30
527.847	1	32
528.017	1	18
528.187	1	36
528.357	1	26
528.527	1	24
528.698	1	22
528.868	1	34
529.038	1	30
529.208	1	39
529.378	1	35
529.548	1	34
529.718	1	48
529.888	1	29
530.058	1	36
530.229	1	36
530.399	1	30
530.569	1	34
530.739	1	28
530.909	1	30
531.079	1	37
531.249	1	36
531.419	1	34
531.589	1	34
531.760	1	30
531.930	1	43
532.100	1	40
532.270	1	28
532.440	1	30
532.610	1	30
532.780	1	17
532.950	1	23
533.120	1	38
533.290	1	28
533.461	1	27
533.631	1	39
533.801	1	25
533.971	1	34
534.141	1	22
534.311	1	28
534.481	1	41
534.651	1	39
534.821	1	42
534.991	1	29
535.162	1	36
535.332	1	35
535.502	1	35
535.672	1	23
535.842	1	40
536.012	1	22
536.182	1	27
536.352	1	18
536.522	1	39
536.692	1	33
536.862	1	19
537.032	1	22
537.203	1	33
537.373	1	27
537.543	1	30
537.713	1	27
537.883	1	40
538.053	1	26
538.223	1	35
538.393	1	29
538.563	1	22
538.733	1	16
538.903	1	32
539.073	1	24
539.243	1	30
539.413	1	28
539.584	1	17
539.754	1	30
539.924	1	17
540.094	1	26
540.264	1	37
540.434	1	23
540.604	1	17
540.774	1	31
540.944	1	26
541.114	1	26
541.284	1	33
541.454	1	33
541.624	1	14
541.794	1	28
541.964	1	29
542.134	1	19
542.305	1	34
542.475	1	30
542.645	1	20
542.815	1	26
542.985	1	26
543.155	1	26
543.325	1	26
543.495	1	18
543.665	1	25
543.835	1	21
544.005	1	32
544.175	1	25
544.345	1	27
544.515	1	25
544.685	1	36
544.855	1	19
545.025	1	21
545.195	1	19
545.365	1	24
545.535	1	16
545.705	1	30
545.875	1	24
546.045	1	25
546.216	1	23
546.386	1	20
546.556	1	19
546.726	1	28
546.896	1	30
547.066	1	31
547.236	1	33
547.406	1	32
547.576	1	15
547.746	1	20
547.916	1	25
548.086	1	21
548.256	1	26
548.426	1	40
548.596	1	5
548.766	1	20
548.936	1	19
549.106	1	21
549.276	1	24
549.446	1	13
549.616	1	41
549.786	1	25
549.956	1	21
550.126	1	28
550.296	1	33
550.466	1	16
550.636	1	30
550.806	1	27
550.976	1	24
551.146	1	32
551.316	1	32
551.486	1	26
551.656	1	34
551.826	1	30
551.996	1	24
552.166	1	25
552.336	1	38
552.506	1	18
552.676	1	23
552.846	1	26
553.016	1	24
553.186	1	25
553.356	1	32
553.526	1	15
553.696	1	29
553.866	1	20
554.036	1	26
554.206	1	22
554.376	1	30
554.546	1	9
554.716	1	22
554.886	1	14
555.056	1	16
555.226	1	7
555.396	1	23
555.566	1	36
555.736	1	14
555.906	1	11
556.076	1	17
556.246	1	25
556.416	1	22
556.586	1	16
556.756	1	14
556.926	1	18
557.096	1	16
557.266	1	27
557.436	1	12
557.606	1	24
557.776	1	21
557.946	1	22
558.116	1	12
558.286	1	22
558.456	1	6
558.626	1	21
558.796	1	20
558.966	1	14
559.136	1	20
559.306	1	28
559.476	1	21
559.646	1	24
559.816	1	18
559.986	1	31
560.155	1	23
560.325	1	10
560.495	1	25
560.665	1	15
560.835	1	24
561.005	1	18
561.175	1	13
561.345	1	16
561.515	1	15
561.685	1	15
561.855	1	14
562.025	1	12
562.195	1	19
562.365	1	19
562.535	1	14
562.705	1	17
562.875	1	17
563.045	1	11
563.215	1	11
563.385	1	14
563.555	1	9
563.725	1	24
563.895	1	23
564.064	1	23
564.234	1	22
564.404	1	10
564.574	1	9
564.744	1	13
564.914	1	14
565.084	1	15
565.254	1	19
565.424	1	13
565.594	1	23
565.764	1	18
565.934	1	26
566.104	1	19
566.274	1	15
566.444	1	13
566.614	1	15
566.783	1	8
566.953	1	21
567.123	1	8
567.293	1	24
567.463	1	12
567.633	1	18
567.803	1	20
567.973	1	11
568.143	1	9
568.313	1	13
568.483	1	14
568.653	1	16
568.823	1	13
568.993	1	16
569.162	1	27
569.332	1	23
569.502	1	13
569.672	1	11
569.842	1	7
570.012	1	24
570.182	1	13
570.352	1	21
570.522	1	19
570.692	1	23
570.862	1	18
571.031	1	16
571.201	1	16
571.371	1	17
571.541	1	9
571.711	1	13
571.881	1	14
572.051	1	13
572.221	1	15
572.391	1	22
572.561	1	15
572.731	1	14
572.900	1	11
573.070	1	16
573.240	1	16
573.410	1	14
573.580	1	12
573.750	1	18
573.920	1	21
574.090	1	7
574.260	1	12
574.430	1	26
574.599	1	16
574.769	1	11
574.939	1	15
575.109	1	18
575.279	1	16
575.449	1	10
575.619	1	26
575.789	1	17
575.959	1	6
576.128	1	14
576.298	1	20
576.468	1	12
576.638	1	12
576.808	1	13
576.978	1	16
577.148	1	9
577.318	1	12
577.487	1	13
577.657	1	14
577.827	1	10
577.997	1	-1
578.167	1	14
578.337	1	15
578.507	1	17
578.677	1	15
578.846	1	9
579.016	1	10
579.186	1	5
579.356	1	13
579.526	1	6
579.696	1	11
579.866	1	9
580.036	1	17
580.205	1	3
580.375	1	18
580.545	1	12
580.715	1	18
580.885	1	12
581.055	1	16
581.225	1	12
581.394	1	20
581.564	1	16
581.734	1	21
581.904	1	9
582.074	1	26
582.244	1	4
582.414	1	6
582.583	1	3
582.753	1	7
582.923	1	26
583.093	1	22
583.263	1	21
583.433	1	20
583.603	1	4
583.772	1	18
583.942	1	6
584.112	1	11
584.282	1	-8
584.452	1	-3
584.622	1	16
584.791	1	7
584.961	1	3
585.131	1	16
585.301	1	5
585.471	1	16
585.641	1	18
585.811	1	5
585.980	1	14
586.150	1	3
586.320	1	11
586.490	1	13
586.660	1	11
586.830	1	2
586.999	1	16
587.169	1	22
587.339	1	9
587.509	1	16
587.679	1	6
587.849	1	5
588.018	1	15
588.188	1	10
588.358	1	29
588.528	1	8
588.698	1	-4
588.867	1	7
589.037	1	13
589.207	1	8
589.377	1	0
589.547	1	15
589.717	1	17
589.886	1	8
590.056	1	16
590.226	1	12
590.396	1	19
590.566	1	17
590.735	1	13
590.905	1	11
591.075	1	14
591.245	1	2
591.415	1	14
591.585	1	6
591.754	1	7
591.924	1	4
592.094	1	12
592.264	1	6
592.434	1	3
592.603	1	11
592.773	1	21
592.943	1	0
593.113	1	14
593.283	1	12
593.452	1	5
593.622	1	-5
593.792	1	9
593.962	1	8
594.132	1	17
594.301	1	15
594.471	1	13
594.641	1	13
594.811	1	8
594.981	1	19
595.150	1	2
595.320	1	9
595.490	1	-1
595.660	1	11
595.829	1	6
595.999	1	4
596.169	1	18
596.339	1	8
596.509	1	12
596.678	1	6
596.848	1	13
597.018	1	1
597.188	1	5
597.358	1	0
597.527	1	4
597.697	1	4
597.867	1	7
598.037	1	11
598.206	1	6
598.376	1	6
598.546	1	8
598.716	1	5
598.885	1	18
599.055	1	1
599.225	1	20
599.395	1	7
599.565	1	10
599.734	1	14
599.904	1	11
600.074	1	4
600.244	1	0
600.413	1	-6
600.583	1	7
600.753	1	11
600.923	1	12
601.092	1	5
601.262	1	3
601.432	1	0
601.602	1	20
601.771	1	16
601.941	1	0
602.111	1	13
602.281	1	10
602.451	1	7
602.620	1	-2
602.790	1	22
602.960	1	10
603.130	1	2
603.299	1	4
603.469	1	9
603.639	1	13
603.809	1	9
603.978	1	8
604.148	1	17
604.318	1	1
604.487	1	7
604.657	1	15
604.827	1	-3
604.997	1	6
605.166	1	10
605.336	1	13
605.506	1	2
605.676	1	-3
605.845	1	5
606.015	1	0
606.185	1	10
606.355	1	15
606.524	1	10
606.694	1	6
606.864	1	17
607.034	1	8
607.203	1	12
607.373	1	6
607.543	1	16
607.712	1	2
607.882	1	-3
608.052	1	-1
608.222	1	8
608.391	1	9
608.561	1	14
608.731	1	7
608.901	1	9
609.070	1	-3
609.240	1	7
609.410	1	10
609.579	1	9
609.749	1	-1
609.919	1	3
610.089	1	11
610.258	1	12
610.428	1	3
610.598	1	21
610.767	1	10
610.937	1	3
611.107	1	2
611.277	1	5
611.446	1	1
611.616	1	-1
611.786	1	6
611.955	1	8
612.125	1	11
612.295	1	3
612.465	1	5
612.634	1	-2
612.804	1	10
612.974	1	2
613.143	1	6
613.313	1	4
613.483	1	8
613.652	1	22
613.822	1	16
613.992	1	7
614.162	1	7
614.331	1	2
614.501	1	2
614.671	1	14
614.840	1	0
615.010	1	15
615.180	1	11
615.349	1	18
615.519	1	2
615.689	1	11
615.858	1	11
616.028	1	3
616.198	1	3
616.368	1	10
616.537	1	11
616.707	1	13
616.877	1	10
617.046	1	-3
617.216	1	17
617.386	1	-2
617.555	1	4
617.725	1	8
617.895	1	2
618.064	1	8
618.234	1	9
618.404	1	0
618.573	1	3
618.743	1	1
618.913	1	8
619.082	1	8
619.252	1	14
619.422	1	-7
619.591	1	12
619.761	1	5
619.931	1	8
620.100	1	2
620.270	1	-2
620.440	1	8
620.609	1	10
620.779	1	7
620.949	1	7
621.118	1	1
621.288	1	12
621.458	1	5
621.627	1	8
621.797	1	8
621.967	1	2
622.136	1	0
622.306	1	3
622.476	1	4
622.645	1	6
622.815	1	4
622.985	1	11
623.154	1	11
623.324	1	-1
623.494	1	3
623.663	1	8
623.833	1	9
624.002	1	4
624.172	1	10
624.342	1	8
624.511	1	21
624.681	1	3
624.851	1	-5
625.020	1	2
625.190	1	12
625.360	1	2
625.529	1	12
625.699	1	3
625.869	1	8
626.038	1	6
626.208	1	9
626.377	1	14
626.547	1	-1
626.717	1	1
626.886	1	0
627.056	1	9
627.226	1	7
627.395	1	-8
627.565	1	6
627.735	1	3
627.904	1	10
628.074	1	8
628.243	1	1
628.413	1	3
628.583	1	0
628.752	1	11
628.922	1	-6
629.091	1	-3
629.261	1	-2
629.431	1	10
629.600	1	9
629.770	1	10
629.940	1	-2
630.109	1	4
630.279	1	3
630.448	1	11
630.618	1	5
630.788	1	15
630.957	1	6
631.127	1	3
631.297	1	3
631.466	1	18
631.636	1	15
631.805	1	11
631.975	1	2
632.145	1	4
632.314	1	6
632.484	1	-3
632.653	1	15
632.823	1	-6
632.993	1	11
633.162	1	12
633.332	1	4
633.501	1	10
633.671	1	7
633.841	1	3
634.010	1	-3
634.180	1	4
634.349	1	-10
634.519	1	1
634.689	1	10
634.858	1	9
635.028	1	6
635.197	1	7
635.367	1	-7
635.537	1	1
635.706	1	6
635.876	1	15
636.045	1	12
636.215	1	1
636.384	1	-4
636.554	1	6
636.724	1	15
636.893	1	-1
637.063	1	16
637.232	1	7
637.402	1	20
637.572	1	2
637.741	1	3
637.911	1	8
638.080	1	14
638.250	1	14
638.419	1	2
638.589	1	8
638.759	1	8
638.928	1	8
639.098	1	8
639.267	1	9
639.437	1	1
639.606	1	3
639.776	1	5
639.946	1	-1
640.115	1	5
640.285	1	6
640.454	1	-2
640.624	1	-4
640.793	1	5
640.963	1	4
641.132	1	8
641.302	1	-2
641.472	1	-5
641.641	1	3
641.811	1	15
641.980	1	6
642.150	1	4
642.319	1	14
642.489	1	-2
642.659	1	3
642.828	1	4
642.998	1	12
643.167	1	-1
643.337	1	14
643.506	1	6
643.676	1	13
643.845	1	16
644.015	1	7
644.184	1	16
644.354	1	8
644.524	1	0
644.693	1	4
644.863	1	-3
645.032	1	3
645.202	1	11
645.371	1	3
645.541	1	9
645.710	1	8
645.880	1	11
646.049	1	16
646.219	1	1
646.388	1	0
646.558	1	14
646.728	1	0
646.897	1	9
647.067	1	4
647.236	1	7
647.406	1	7
647.575	1	3
647.745	1	1
647.914	1	3
648.084	1	4
648.253	1	15
648.423	1	12
648.592	1	4
648.762	1	6
648.931	1	9
649.101	1	-1
649.270	1	4
649.440	1	3
649.610	1	16
649.779	1	8
649.949	1	2
650.118	1	3
650.288	1	4
650.457	1	-11
650.627	1	-1
650.796	1	14
650.966	1	4
651.135	1	7
651.305	1	0
651.474	1	20
651.644	1	8
651.813	1	10
651.983	1	5
652.152	1	-2
652.322	1	7
652.491	1	9
652.661	1	0
652.830	1	2
653.000	1	1
653.169	1	4
653.339	1	-1
653.508	1	9
653.678	1	8
653.847	1	7
654.017	1	14
654.186	1	12
654.356	1	8
654.525	1	-4
654.695	1	8
654.864	1	10
655.034	1	9
655.203	1	12
655.373	1	13
655.542	1	-2
655.712	1	0
655.881	1	-2
656.051	1	0
656.220	1	6
656.390	1	4
656.559	1	5
656.729	1	5
656.898	1	7
657.068	1	14
657.237	1	9
657.406	1	14
657.576	1	-1
657.745	1	7
657.915	1	-2
658.084	1	-5
658.254	1	20
658.423	1	6
658.593	1	6
658.762	1	2
658.932	1	11
659.101	1	-2
659.271	1	-2
659.440	1	8
659.610	1	12
659.779	1	3
659.949	1	2
660.118	1	9
660.288	1	10
660.457	1	9
660.626	1	5
660.796	1	3
660.965	1	16
661.135	1	-7
661.304	1	12
661.474	1	14
661.643	1	9
661.813	1	6
661.982	1	8
662.152	1	8
662.321	1	2
662.491	1	-5
662.660	1	3
662.829	1	1
662.999	1	9
663.168	1	6
663.338	1	6
663.507	1	3
663.677	1	7
663.846	1	7
664.016	1	11
664.185	1	5
664.354	1	-9
664.524	1	-1
664.693	1	0
664.863	1	-1
665.032	1	9
665.202	1	7
665.371	1	3
665.541	1	5
665.710	1	6
665.879	1	10
666.049	1	9
666.218	1	13
666.388	1	15
666.557	1	3
666.727	1	6
666.896	1	8
667.065	1	1
667.235	1	4
667.404	1	4
667.574	1	-8
667.743	1	5
667.913	1	0
668.082	1	9
668.251	1	3
668.421	1	10
668.590	1	-1
668.760	1	11
668.929	1	7
669.099	1	2
669.268	1	-1
669.437	1	9
669.607	1	8
669.776	1	0
669.946	1	6
670.115	1	7
670.285	1	11
670.454	1	-1
670.623	1	3
670.793	1	17
670.962	1	3
671.132	1	3
671.301	1	-2
671.470	1	-3
671.640	1	5
671.809	1	2
671.979	1	5
672.148	1	0
672.317	1	14
672.487	1	1
672.656	1	11
672.826	1	-1
672.995	1	-7
673.164	1	0
673.334	1	11
673.503	1	7
673.673	1	10
673.842	1	8
674.011	1	5
674.181	1	2
674.350	1	5
674.520	1	8
674.689	1	2
674.858	1	-1
675.028	1	11
675.197	1	16
675.367	1	-12
675.536	1	3
675.705	1	8
675.875	1	6
676.044	1	22
676.214	1	2
676.383	1	11
676.552	1	15
676.722	1	20
676.891	1	20
677.060	1	-7
677.230	1	5
677.399	1	1
677.569	1	-5
677.738	1	2
677.907	1	4
678.077	1	20
678.246	1	3
678.416	1	-1
678.585	1	14
678.754	1	3
678.924	1	17
679.093	1	4
679.262	1	2
679.432	1	8
679.601	1	6
679.771	1	13
679.940	1	10
680.109	1	-4
680.279	1	-3
680.448	1	5
680.617	1	-1
680.787	1	3
680.956	1	-6
681.125	1	-1
681.295	1	6
681.464	1	5
681.634	1	6
681.803	1	15
681.972	1	-8
682.142	1	6
682.311	1	0
682.480	1	12
682.650	1	7
682.819	1	16
682.988	1	8
683.158	1	6
683.327	1	4
683.496	1	12
683.666	1	7
683.835	1	-4
684.004	1	6
684.174	1	6
684.343	1	13
684.512	1	0
684.682	1	5
684.851	1	3
685.021	1	-10
685.190	1	0
685.359	1	6
685.529	1	14
685.698	1	5
685.867	1	13
686.037	1	5
686.206	1	12
686.375	1	10
686.545	1	5
686.714	1	0
686.883	1	5
687.053	1	-3
687.222	1	10
687.391	1	7
687.561	1	11
687.730	1	11
687.899	1	4
688.069	1	14
688.238	1	0
688.407	1	1
688.577	1	14
688.746	1	2
