340.368	1	-9
340.539	1	4
340.710	1	-7
340.881	1	2
341.052	1	7
341.223	1	-7
341.394	1	-4
341.565	1	10
341.737	1	-1
341.908	1	16
342.079	1	7
342.250	1	8
342.421	1	6
342.592	1	-4
342.763	1	7
342.934	1	-1
343.105	1	18
343.276	1	4
343.447	1	-1
343.618	1	5
343.789	1	3
343.960	1	10
344.131	1	0
344.302	1	-1
344.473	1	2
344.644	1	1
344.815	1	12
344.986	1	7
345.157	1	5
345.328	1	6
345.499	1	1
345.670	1	19
345.841	1	4
346.012	1	10
346.183	1	6
346.354	1	-2
346.526	1	7
346.697	1	14
346.868	1	12
347.039	1	-1
347.210	1	3
347.381	1	3
347.552	1	13
347.723	1	12
347.894	1	9
348.065	1	1
348.236	1	7
348.407	1	6
348.578	1	9
348.749	1	10
348.920	1	5
349.091	1	3
349.262	1	0
349.433	1	10
349.604	1	16
349.775	1	8
349.946	1	23
350.117	1	6
350.288	1	8
350.459	1	7
350.630	1	12
350.801	1	8
350.972	1	4
351.143	1	3
351.314	1	14
351.485	1	7
351.656	1	10
351.827	1	16
351.998	1	4
352.169	1	2
352.340	1	7
352.511	1	5
352.682	1	7
352.853	1	12
353.024	1	3
353.195	1	14
353.366	1	11
353.537	1	14
353.708	1	22
353.879	1	15
354.050	1	11
354.221	1	3
354.392	1	8
354.563	1	12
354.734	1	18
354.905	1	24
355.076	1	12
355.247	1	12
355.418	1	0
355.589	1	17
355.760	1	7
355.931	1	19
356.102	1	17
356.273	1	9
356.444	1	19
356.615	1	14
356.785	1	25
356.956	1	18
357.127	1	25
357.298	1	23
357.469	1	15
357.640	1	19
357.811	1	28
357.982	1	23
358.153	1	27
358.324	1	34
358.495	1	37
358.666	1	29
358.837	1	32
359.008	1	21
359.179	1	36
359.350	1	42
359.521	1	35
359.692	1	51
359.863	1	40
360.034	1	48
360.205	1	59
360.376	1	45
360.547	1	53
360.718	1	52
360.889	1	58
361.060	1	43
361.231	1	63
361.401	1	53
361.572	1	68
361.743	1	66
361.914	1	78
362.085	1	70
362.256	1	72
362.427	1	77
362.598	1	85
362.769	1	83
362.940	1	105
363.111	1	108
363.282	1	117
363.453	1	92
363.624	1	113
363.795	1	115
363.966	1	132
364.137	1	146
364.308	1	149
364.478	1	151
364.649	1	158
364.820	1	175
364.991	1	174
365.162	1	199
365.333	1	182
365.504	1	208
365.675	1	210
365.846	1	203
366.017	1	217
366.188	1	223
366.359	1	243
366.530	1	262
366.701	1	267
366.871	1	279
367.042	1	276
367.213	1	291
367.384	1	285
367.555	1	291
367.726	1	312
367.897	1	299
368.068	1	331
368.239	1	319
368.410	1	329
368.581	1	313
368.752	1	332
368.923	1	313
369.093	1	316
369.264	1	312
369.435	1	310
369.606	1	313
369.777	1	300
369.948	1	306
370.119	1	299
370.290	1	301
370.461	1	281
370.632	1	282
370.803	1	254
370.973	1	258
371.144	1	253
371.315	1	268
371.486	1	227
371.657	1	226
371.828	1	229
371.999	1	228
372.170	1	215
372.341	1	216
372.512	1	203
372.682	1	200
372.853	1	207
373.024	1	174
373.195	1	183
373.366	1	171
373.537	1	174
373.708	1	170
373.879	1	159
374.050	1	158
374.220	1	166
374.391	1	146
374.562	1	140
374.733	1	145
374.904	1	138
375.075	1	135
375.246	1	120
375.417	1	140
375.588	1	127
375.758	1	122
375.929	1	124
376.100	1	115
376.271	1	124
376.442	1	124
376.613	1	97
376.784	1	104
376.955	1	111
377.125	1	105
377.296	1	102
377.467	1	98
377.638	1	94
377.809	1	97
377.980	1	69
378.151	1	101
378.321	1	89
378.492	1	82
378.663	1	79
378.834	1	77
379.005	1	78
379.176	1	62
379.347	1	81
379.518	1	69
379.688	1	69
379.859	1	66
380.030	1	65
380.201	1	64
380.372	1	72
380.543	1	74
380.714	1	62
380.884	1	67
381.055	1	44
381.226	1	59
381.397	1	52
381.568	1	57
381.739	1	44
381.910	1	51
382.080	1	37
382.251	1	49
382.422	1	45
382.593	1	56
382.764	1	48
382.935	1	44
383.105	1	42
383.276	1	60
383.447	1	54
383.618	1	53
383.789	1	56
383.960	1	54
384.130	1	34
384.301	1	39
384.472	1	33
384.643	1	39
384.814	1	45
384.985	1	34
385.156	1	41
385.326	1	37
385.497	1	42
385.668	1	50
385.839	1	29
386.010	1	47
386.180	1	39
386.351	1	33
386.522	1	44
386.693	1	35
386.864	1	31
387.035	1	35
387.205	1	24
387.376	1	36
387.547	1	31
387.718	1	21
387.889	1	31
388.060	1	40
388.230	1	32
388.401	1	15
388.572	1	31
388.743	1	36
388.914	1	22
389.084	1	31
389.255	1	42
389.426	1	25
389.597	1	26
389.768	1	29
389.939	1	18
390.109	1	20
390.280	1	31
390.451	1	18
390.622	1	16
390.793	1	33
390.963	1	20
391.134	1	26
391.305	1	24
391.476	1	33
391.647	1	12
391.817	1	31
391.988	1	15
392.159	1	19
392.330	1	23
392.501	1	20
392.671	1	11
392.842	1	14
393.013	1	17
393.184	1	17
393.355	1	23
393.525	1	16
393.696	1	31
393.867	1	13
394.038	1	8
394.208	1	20
394.379	1	10
394.550	1	17
394.721	1	9
394.892	1	13
395.062	1	12
395.233	1	19
395.404	1	18
395.575	1	18
395.746	1	14
395.916	1	8
396.087	1	23
396.258	1	4
396.429	1	19
396.599	1	9
396.770	1	21
396.941	1	13
397.112	1	9
397.283	1	15
397.453	1	16
397.624	1	12
397.795	1	6
397.966	1	19
398.136	1	9
398.307	1	15
398.478	1	14
398.649	1	19
398.819	1	15
398.990	1	-2
399.161	1	11
399.332	1	12
399.503	1	15
399.673	1	14
399.844	1	10
400.015	1	22
400.186	1	6
400.356	1	4
400.527	1	16
400.698	1	8
400.869	1	12
401.039	1	15
401.210	1	5
401.381	1	19
401.552	1	7
401.722	1	10
401.893	1	24
402.064	1	7
402.235	1	12
402.405	1	0
402.576	1	9
402.747	1	4
402.918	1	9
403.088	1	19
403.259	1	10
403.430	1	1
403.601	1	18
403.771	1	2
403.942	1	11
404.113	1	2
404.284	1	-2
404.454	1	-1
404.625	1	6
404.796	1	11
404.967	1	15
405.137	1	21
405.308	1	11
405.479	1	9
405.649	1	14
405.820	1	11
405.991	1	18
406.162	1	9
406.332	1	4
406.503	1	8
406.674	1	14
406.845	1	8
407.015	1	17
407.186	1	9
407.357	1	11
407.527	1	5
407.698	1	13
407.869	1	6
408.040	1	5
408.210	1	9
408.381	1	9
408.552	1	9
408.722	1	-4
408.893	1	3
409.064	1	9
409.235	1	9
409.405	1	10
409.576	1	5
409.747	1	3
409.917	1	8
410.088	1	20
410.259	1	16
410.430	1	4
410.600	1	5
410.771	1	9
410.942	1	5
411.112	1	9
411.283	1	1
411.454	1	6
411.625	1	5
411.795	1	23
411.966	1	9
412.137	1	7
412.307	1	15
412.478	1	5
412.649	1	7
412.819	1	-3
412.990	1	2
413.161	1	10
413.332	1	4
413.502	1	7
413.673	1	8
413.844	1	15
414.014	1	7
414.185	1	3
414.356	1	5
414.526	1	11
414.697	1	10
414.868	1	-1
415.038	1	-3
415.209	1	-5
415.380	1	8
415.550	1	14
415.721	1	-1
415.892	1	8
416.063	1	5
416.233	1	17
416.404	1	7
416.575	1	6
416.745	1	7
416.916	1	-5
417.087	1	10
417.257	1	11
417.428	1	8
417.599	1	7
417.769	1	8
417.940	1	13
418.111	1	13
418.281	1	-5
418.452	1	3
418.623	1	2
418.793	1	13
418.964	1	-11
419.135	1	9
419.305	1	0
419.476	1	3
419.647	1	16
419.817	1	5
419.988	1	5
420.159	1	11
420.329	1	11
420.500	1	5
420.671	1	7
420.841	1	-6
421.012	1	1
421.183	1	9
421.353	1	10
421.524	1	10
421.695	1	-6
421.865	1	1
422.036	1	12
422.206	1	5
422.377	1	12
422.548	1	5
422.718	1	10
422.889	1	-3
423.060	1	1
423.230	1	11
423.401	1	0
423.572	1	-1
423.742	1	-2
423.913	1	0
424.084	1	22
424.254	1	4
424.425	1	-4
424.595	1	7
424.766	1	-2
424.937	1	11
425.107	1	5
425.278	1	3
425.449	1	7
425.619	1	-5
425.790	1	6
425.961	1	5
426.131	1	15
426.302	1	0
426.472	1	2
426.643	1	17
426.814	1	-3
426.984	1	1
427.155	1	20
427.326	1	4
427.496	1	2
427.667	1	1
427.837	1	7
428.008	1	12
428.179	1	9
428.349	1	0
428.520	1	-1
428.691	1	2
428.861	1	12
429.032	1	9
429.202	1	0
429.373	1	-2
429.544	1	-2
429.714	1	-4
429.885	1	5
430.055	1	4
430.226	1	6
430.397	1	8
430.567	1	8
430.738	1	0
430.909	1	8
431.079	1	-8
431.250	1	20
431.420	1	-1
431.591	1	2
431.762	1	5
431.932	1	-4
432.103	1	8
432.273	1	8
432.444	1	6
432.615	1	3
432.785	1	3
432.956	1	16
433.126	1	-1
433.297	1	9
433.468	1	0
433.638	1	11
433.809	1	3
433.979	1	6
434.150	1	8
434.320	1	17
434.491	1	-3
434.662	1	-12
434.832	1	6
435.003	1	12
435.173	1	9
435.344	1	10
435.515	1	7
435.685	1	11
435.856	1	19
436.026	1	0
436.197	1	5
436.368	1	10
436.538	1	10
436.709	1	6
436.879	1	7
437.050	1	-7
437.220	1	5
437.391	1	-10
437.562	1	6
437.732	1	6
437.903	1	12
438.073	1	7
438.244	1	6
438.414	1	4
438.585	1	4
438.756	1	-1
438.926	1	10
439.097	1	11
439.267	1	11
439.438	1	6
439.608	1	4
439.779	1	14
439.949	1	8
440.120	1	1
440.291	1	4
440.461	1	21
440.632	1	4
440.802	1	9
440.973	1	4
441.143	1	2
441.314	1	3
441.485	1	-2
441.655	1	4
441.826	1	10
441.996	1	10
442.167	1	4
442.337	1	10
442.508	1	8
442.678	1	3
442.849	1	3
443.019	1	5
443.190	1	5
443.361	1	17
443.531	1	5
443.702	1	15
443.872	1	-11
444.043	1	4
444.213	1	5
444.384	1	9
444.554	1	-5
444.725	1	4
444.895	1	-14
445.066	1	15
445.237	1	-4
445.407	1	5
445.578	1	5
445.748	1	8
445.919	1	11
446.089	1	3
446.260	1	4
446.430	1	2
446.601	1	-5
446.771	1	-4
446.942	1	10
447.112	1	17
447.283	1	6
447.453	1	12
447.624	1	-4
447.794	1	4
447.965	1	1
448.135	1	6
448.306	1	2
448.477	1	14
448.647	1	0
448.818	1	15
448.988	1	11
449.159	1	5
449.329	1	2
449.500	1	10
449.670	1	-11
449.841	1	-8
450.011	1	13
450.182	1	14
450.352	1	-3
450.523	1	5
450.693	1	-2
450.864	1	10
451.034	1	2
451.205	1	4
451.375	1	9
451.546	1	0
451.716	1	11
451.887	1	2
452.057	1	-5
452.228	1	6
452.398	1	6
452.569	1	19
452.739	1	13
452.910	1	17
453.080	1	1
453.251	1	6
453.421	1	3
453.592	1	-4
453.762	1	4
453.933	1	0
454.103	1	-10
454.274	1	6
454.444	1	2
454.615	1	4
454.785	1	-3
454.956	1	5
455.126	1	16
455.297	1	3
455.467	1	-8
455.638	1	9
455.808	1	19
455.979	1	5
456.149	1	4
456.320	1	0
456.490	1	15
456.661	1	9
456.831	1	-1
457.001	1	22
457.172	1	6
457.342	1	0
457.513	1	13
457.683	1	11
457.854	1	17
458.024	1	14
458.195	1	7
458.365	1	4
458.536	1	-5
458.706	1	7
458.877	1	8
459.047	1	11
459.218	1	0
459.388	1	6
459.559	1	5
459.729	1	0
459.899	1	-3
460.070	1	4
460.240	1	9
460.411	1	8
460.581	1	5
460.752	1	3
460.922	1	9
461.093	1	19
461.263	1	6
461.434	1	-6
461.604	1	12
461.775	1	5
461.945	1	6
462.115	1	5
462.286	1	1
462.456	1	-3
462.627	1	5
462.797	1	4
462.968	1	15
463.138	1	-1
463.309	1	12
463.479	1	-6
463.649	1	6
463.820	1	9
463.990	1	3
464.161	1	2
464.331	1	3
464.502	1	11
464.672	1	7
464.843	1	-4
465.013	1	13
465.183	1	13
465.354	1	-5
465.524	1	5
465.695	1	7
465.865	1	16
466.036	1	-2
466.206	1	9
466.376	1	4
466.547	1	9
466.717	1	7
466.888	1	-3
467.058	1	4
467.229	1	5
467.399	1	17
467.569	1	6
467.740	1	7
467.910	1	-1
468.081	1	12
468.251	1	-1
468.422	1	11
468.592	1	0
468.762	1	17
468.933	1	-2
469.103	1	7
469.274	1	5
469.444	1	13
469.614	1	0
469.785	1	-6
469.955	1	2
470.126	1	7
470.296	1	10
470.467	1	21
470.637	1	0
470.807	1	-5
470.978	1	-3
471.148	1	4
471.319	1	11
471.489	1	8
471.659	1	-1
471.830	1	6
472.000	1	13
472.171	1	14
472.341	1	12
472.511	1	5
472.682	1	6
472.852	1	11
473.023	1	14
473.193	1	11
473.363	1	2
473.534	1	13
473.704	1	12
473.875	1	3
474.045	1	6
474.215	1	7
474.386	1	8
474.556	1	13
474.727	1	7
474.897	1	9
475.067	1	11
475.238	1	7
475.408	1	5
475.578	1	6
475.749	1	5
475.919	1	15
476.090	1	11
476.260	1	11
476.430	1	4
476.601	1	9
476.771	1	16
476.942	1	5
477.112	1	9
477.282	1	16
477.453	1	16
477.623	1	9
477.793	1	13
477.964	1	5
478.134	1	8
478.305	1	6
478.475	1	9
478.645	1	6
478.816	1	14
478.986	1	-2
479.156	1	14
479.327	1	-8
479.497	1	9
479.667	1	5
479.838	1	6
480.008	1	10
480.179	1	-2
480.349	1	16
480.519	1	12
480.690	1	9
480.860	1	10
481.030	1	14
481.201	1	9
481.371	1	6
481.541	1	23
481.712	1	8
481.882	1	6
482.053	1	5
482.223	1	9
482.393	1	11
482.564	1	11
482.734	1	16
482.904	1	16
483.075	1	4
483.245	1	3
483.415	1	11
483.586	1	13
483.756	1	23
483.926	1	1
484.097	1	5
484.267	1	8
484.437	1	10
484.608	1	10
484.778	1	4
484.948	1	9
485.119	1	11
485.289	1	11
485.459	1	19
485.630	1	13
485.800	1	0
485.970	1	15
486.141	1	14
486.311	1	16
486.481	1	4
486.652	1	15
486.822	1	13
486.992	1	15
487.163	1	12
487.333	1	8
487.503	1	20
487.674	1	0
487.844	1	14
488.014	1	8
488.185	1	13
488.355	1	13
488.525	1	14
488.696	1	12
488.866	1	16
489.036	1	16
489.207	1	22
489.377	1	5
489.547	1	22
489.718	1	13
489.888	1	19
490.058	1	22
490.228	1	9
490.399	1	15
490.569	1	13
490.739	1	19
490.910	1	15
491.080	1	18
491.250	1	15
491.421	1	17
491.591	1	19
491.761	1	21
491.932	1	18
492.102	1	15
492.272	1	19
492.442	1	19
492.613	1	11
492.783	1	14
492.953	1	11
493.124	1	15
493.294	1	15
493.464	1	16
493.635	1	13
493.805	1	17
493.975	1	21
494.145	1	27
494.316	1	18
494.486	1	27
494.656	1	16
494.827	1	22
494.997	1	22
495.167	1	22
495.337	1	29
495.508	1	25
495.678	1	16
495.848	1	19
496.019	1	9
496.189	1	12
496.359	1	18
496.529	1	23
496.700	1	31
496.870	1	17
497.040	1	17
497.211	1	11
497.381	1	28
497.551	1	24
497.721	1	13
497.892	1	21
498.062	1	23
498.232	1	25
498.403	1	23
498.573	1	8
498.743	1	22
498.913	1	27
499.084	1	14
499.254	1	25
499.424	1	20
499.594	1	32
499.765	1	8
499.935	1	24
500.105	1	27
500.275	1	20
500.446	1	25
500.616	1	27
500.786	1	17
500.956	1	29
501.127	1	37
501.297	1	27
501.467	1	17
501.638	1	21
501.808	1	26
501.978	1	19
502.148	1	35
502.319	1	25
502.489	1	19
502.659	1	35
502.829	1	19
503.000	1	33
503.170	1	45
503.340	1	33
503.510	1	33
503.681	1	24
503.851	1	29
504.021	1	35
504.191	1	21
504.362	1	42
504.532	1	26
504.702	1	24
504.872	1	26
505.042	1	30
505.213	1	22
505.383	1	25
505.553	1	27
505.723	1	33
505.894	1	39
506.064	1	40
506.234	1	23
506.404	1	36
506.575	1	34
506.745	1	30
506.915	1	42
507.085	1	31
507.256	1	22
507.426	1	29
507.596	1	36
507.766	1	38
507.936	1	41
508.107	1	29
508.277	1	27
508.447	1	39
508.617	1	46
508.788	1	25
508.958	1	32
509.128	1	25
509.298	1	30
509.468	1	33
509.639	1	43
509.809	1	26
509.979	1	38
510.149	1	34
510.319	1	27
510.490	1	31
510.660	1	41
510.830	1	35
511.000	1	40
511.171	1	42
511.341	1	41
511.511	1	33
511.681	1	29
511.851	1	31
512.022	1	39
512.192	1	39
512.362	1	30
512.532	1	32
512.702	1	43
512.873	1	44
513.043	1	42
513.213	1	27
513.383	1	45
513.553	1	34
513.724	1	37
513.894	1	33
514.064	1	31
514.234	1	35
514.404	1	38
514.575	1	41
514.745	1	37
514.915	1	35
515.085	1	44
515.255	1	26
515.425	1	46
515.596	1	42
515.766	1	46
515.936	1	41
516.106	1	38
516.276	1	41
516.447	1	37
516.617	1	34
516.787	1	48
516.957	1	33
517.127	1	42
517.297	1	53
517.468	1	36
517.638	1	33
517.808	1	45
517.978	1	39
518.148	1	43
518.319	1	49
518.489	1	43
518.659	1	30
518.829	1	41
518.999	1	46
519.169	1	40
519.340	1	54
519.510	1	47
519.680	1	38
519.850	1	33
520.020	1	34
520.190	1	45
520.361	1	46
520.531	1	46
520.701	1	53
520.871	1	41
521.041	1	43
521.211	1	46
521.382	1	42
521.552	1	43
521.722	1	32
521.892	1	42
522.062	1	48
522.232	1	29
522.402	1	38
522.573	1	51
522.743	1	53
522.913	1	41
523.083	1	40
523.253	1	47
523.423	1	41
523.593	1	42
523.764	1	53
523.934	1	45
524.104	1	41
524.274	1	46
524.444	1	44
524.614	1	41
524.784	1	51
524.955	1	41
525.125	1	42
525.295	1	41
525.465	1	49
525.635	1	54
525.805	1	39
525.975	1	36
526.146	1	44
526.316	1	54
526.486	1	36
526.656	1	44
526.826	1	51
526.996	1	46
527.166	1	47
527.337	1	49
527.507	1	46
527.677	1	35
527.847	1	43
528.017	1	59
528.187	1	45
528.357	1	41
528.527	1	42
528.698	1	26
528.868	1	44
529.038	1	45
529.208	1	54
529.378	1	42
529.548	1	43
529.718	1	55
529.888	1	50
530.058	1	50
530.229	1	58
530.399	1	45
530.569	1	54
530.739	1	49
530.909	1	49
531.079	1	42
531.249	1	53
531.419	1	47
531.589	1	50
531.760	1	43
531.930	1	49
532.100	1	44
532.270	1	65
532.440	1	51
532.610	1	49
532.780	1	40
532.950	1	32
533.120	1	51
533.290	1	50
533.461	1	41
533.631	1	45
533.801	1	50
533.971	1	51
534.141	1	47
534.311	1	49
534.481	1	49
534.651	1	48
534.821	1	47
534.991	1	36
535.162	1	46
535.332	1	55
535.502	1	48
535.672	1	37
535.842	1	43
536.012	1	34
536.182	1	38
536.352	1	34
536.522	1	52
536.692	1	42
536.862	1	57
537.032	1	40
537.203	1	41
537.373	1	34
537.543	1	45
537.713	1	40
537.883	1	42
538.053	1	44
538.223	1	34
538.393	1	46
538.563	1	37
538.733	1	37
538.903	1	44
539.073	1	35
539.243	1	39
539.413	1	33
539.584	1	37
539.754	1	36
539.924	1	37
540.094	1	40
540.264	1	45
540.434	1	40
540.604	1	36
540.774	1	30
540.944	1	23
541.114	1	32
541.284	1	38
541.454	1	37
541.624	1	33
541.794	1	38
541.964	1	39
542.134	1	39
542.305	1	37
542.475	1	42
542.645	1	36
542.815	1	37
542.985	1	44
543.155	1	43
543.325	1	42
543.495	1	34
543.665	1	44
543.835	1	39
544.005	1	47
544.175	1	32
544.345	1	42
544.515	1	37
544.685	1	44
544.855	1	32
545.025	1	38
545.195	1	40
545.365	1	43
545.535	1	42
545.705	1	58
545.875	1	32
546.045	1	39
546.216	1	42
546.386	1	34
546.556	1	27
546.726	1	32
546.896	1	46
547.066	1	53
547.236	1	46
547.406	1	37
547.576	1	39
547.746	1	39
547.916	1	38
548.086	1	36
548.256	1	38
548.426	1	45
548.596	1	33
548.766	1	43
548.936	1	35
549.106	1	50
549.276	1	37
549.446	1	28
549.616	1	49
549.786	1	34
549.956	1	26
550.126	1	38
550.296	1	34
550.466	1	48
550.636	1	38
550.806	1	45
550.976	1	45
551.146	1	42
551.316	1	37
551.486	1	39
551.656	1	48
551.826	1	48
551.996	1	37
552.166	1	35
552.336	1	46
552.506	1	44
552.676	1	45
552.846	1	41
553.016	1	35
553.186	1	45
553.356	1	40
553.526	1	26
553.696	1	47
553.866	1	35
554.036	1	39
554.206	1	40
554.376	1	39
554.546	1	23
554.716	1	32
554.886	1	42
555.056	1	34
555.226	1	29
555.396	1	32
555.566	1	36
555.736	1	44
555.906	1	26
556.076	1	30
556.246	1	34
556.416	1	37
556.586	1	32
556.756	1	31
556.926	1	33
557.096	1	33
557.266	1	45
557.436	1	23
557.606	1	38
557.776	1	17
557.946	1	36
558.116	1	25
558.286	1	33
558.456	1	19
558.626	1	35
558.796	1	37
558.966	1	36
559.136	1	31
559.306	1	36
559.476	1	33
559.646	1	16
559.816	1	26
559.986	1	36
560.155	1	25
560.325	1	29
560.495	1	32
560.665	1	25
560.835	1	30
561.005	1	30
561.175	1	15
561.345	1	30
561.515	1	34
561.685	1	24
561.855	1	37
562.025	1	26
562.195	1	27
562.365	1	41
562.535	1	28
562.705	1	33
562.875	1	30
563.045	1	41
563.215	1	15
563.385	1	27
563.555	1	27
563.725	1	17
563.895	1	26
564.064	1	25
564.234	1	26
564.404	1	26
564.574	1	13
564.744	1	30
564.914	1	25
565.084	1	20
565.254	1	20
565.424	1	25
565.594	1	31
565.764	1	28
565.934	1	30
566.104	1	38
566.274	1	21
566.444	1	41
566.614	1	18
566.783	1	25
566.953	1	21
567.123	1	21
567.293	1	26
567.463	1	26
567.633	1	25
567.803	1	28
567.973	1	35
568.143	1	15
568.313	1	27
568.483	1	23
568.653	1	26
568.823	1	27
568.993	1	20
569.162	1	29
569.332	1	31
569.502	1	21
569.672	1	13
569.842	1	10
570.012	1	21
570.182	1	12
570.352	1	22
570.522	1	26
570.692	1	27
570.862	1	26
571.031	1	21
571.201	1	22
571.371	1	29
571.541	1	13
571.711	1	20
571.881	1	12
572.051	1	24
572.221	1	27
572.391	1	26
572.561	1	32
572.731	1	10
572.900	1	16
573.070	1	41
573.240	1	32
573.410	1	27
573.580	1	12
573.750	1	22
573.920	1	28
574.090	1	16
574.260	1	25
574.430	1	29
574.599	1	10
574.769	1	11
574.939	1	17
575.109	1	14
575.279	1	11
575.449	1	19
575.619	1	32
575.789	1	17
575.959	1	17
576.128	1	22
576.298	1	15
576.468	1	19
576.638	1	22
576.808	1	20
576.978	1	18
577.148	1	26
577.318	1	19
577.487	1	22
577.657	1	17
577.827	1	17
577.997	1	18
578.167	1	18
578.337	1	18
578.507	1	19
578.677	1	22
578.846	1	14
579.016	1	14
579.186	1	8
579.356	1	21
579.526	1	12
579.696	1	14
579.866	1	18
580.036	1	13
580.205	1	13
580.375	1	16
580.545	1	14
580.715	1	23
580.885	1	19
581.055	1	23
581.225	1	11
581.394	1	20
581.564	1	8
581.734	1	24
581.904	1	20
582.074	1	23
582.244	1	14
582.414	1	4
582.583	1	16
582.753	1	13
582.923	1	18
583.093	1	17
583.263	1	24
583.433	1	20
583.603	1	12
583.772	1	15
583.942	1	19
584.112	1	20
584.282	1	6
584.452	1	18
584.622	1	23
584.791	1	12
584.961	1	7
585.131	1	27
585.301	1	30
585.471	1	21
585.641	1	25
585.811	1	3
585.980	1	18
586.150	1	14
586.320	1	23
586.490	1	15
586.660	1	17
586.830	1	7
586.999	1	15
587.169	1	21
587.339	1	14
587.509	1	13
587.679	1	14
587.849	1	10
588.018	1	15
588.188	1	5
588.358	1	23
588.528	1	10
588.698	1	4
588.867	1	16
589.037	1	12
589.207	1	13
589.377	1	7
589.547	1	18
589.717	1	11
589.886	1	7
590.056	1	11
590.226	1	14
590.396	1	22
590.566	1	13
590.735	1	6
590.905	1	24
591.075	1	20
591.245	1	14
591.415	1	6
591.585	1	14
591.754	1	19
591.924	1	8
592.094	1	18
592.264	1	7
592.434	1	14
592.603	1	14
592.773	1	20
592.943	1	7
593.113	1	19
593.283	1	15
593.452	1	11
593.622	1	4
593.792	1	17
593.962	1	11
594.132	1	19
594.301	1	19
594.471	1	8
594.641	1	11
594.811	1	1
594.981	1	14
595.150	1	12
595.320	1	10
595.490	1	8
595.660	1	15
595.829	1	16
595.999	1	15
596.169	1	15
596.339	1	16
596.509	1	15
596.678	1	6
596.848	1	19
597.018	1	13
597.188	1	15
597.358	1	1
597.527	1	13
597.697	1	14
597.867	1	5
598.037	1	14
598.206	1	10
598.376	1	6
598.546	1	7
598.716	1	8
598.885	1	17
599.055	1	5
599.225	1	17
599.395	1	4
599.565	1	10
599.734	1	24
599.904	1	18
600.074	1	12
600.244	1	15
600.413	1	13
600.583	1	6
600.753	1	18
600.923	1	17
601.092	1	14
601.262	1	10
601.432	1	5
601.602	1	8
601.771	1	24
601.941	1	10
602.111	1	8
602.281	1	15
602.451	1	16
602.620	1	13
602.790	1	23
602.960	1	17
603.130	1	4
603.299	1	18
603.469	1	16
603.639	1	10
603.809	1	8
603.978	1	17
604.148	1	11
604.318	1	11
604.487	1	6
604.657	1	17
604.827	1	-6
604.997	1	8
605.166	1	25
605.336	1	14
605.506	1	3
605.676	1	10
605.845	1	12
606.015	1	7
606.185	1	17
606.355	1	18
606.524	1	11
606.694	1	2
606.864	1	8
607.034	1	21
607.203	1	4
607.373	1	13
607.543	1	14
607.712	1	4
607.882	1	5
608.052	1	3
608.222	1	10
608.391	1	10
608.561	1	12
608.731	1	14
608.901	1	9
609.070	1	7
609.240	1	10
609.410	1	9
609.579	1	4
609.749	1	9
609.919	1	6
610.089	1	12
610.258	1	22
610.428	1	14
610.598	1	17
610.767	1	3
610.937	1	8
611.107	1	5
611.277	1	13
611.446	1	-3
611.616	1	8
611.786	1	9
611.955	1	9
612.125	1	12
612.295	1	6
612.465	1	6
612.634	1	1
612.804	1	11
612.974	1	9
613.143	1	4
613.313	1	9
613.483	1	4
613.652	1	20
613.822	1	10
613.992	1	6
614.162	1	10
614.331	1	8
614.501	1	6
614.671	1	11
614.840	1	-1
615.010	1	11
615.180	1	13
615.349	1	14
615.519	1	3
615.689	1	20
615.858	1	5
616.028	1	10
616.198	1	12
616.368	1	2
616.537	1	10
616.707	1	15
616.877	1	14
617.046	1	7
617.216	1	19
617.386	1	5
617.555	1	6
617.725	1	10
617.895	1	3
618.064	1	3
618.234	1	8
618.404	1	12
618.573	1	-6
618.743	1	16
618.913	1	7
619.082	1	17
619.252	1	13
619.422	1	2
619.591	1	11
619.761	1	0
619.931	1	9
620.100	1	10
620.270	1	10
620.440	1	9
620.609	1	15
620.779	1	7
620.949	1	15
621.118	1	-2
621.288	1	17
621.458	1	7
621.627	1	20
621.797	1	3
621.967	1	5
622.136	1	13
622.306	1	7
622.476	1	-3
622.645	1	7
622.815	1	3
622.985	1	14
623.154	1	9
623.324	1	5
623.494	1	3
623.663	1	10
623.833	1	7
624.002	1	5
624.172	1	1
624.342	1	2
624.511	1	9
624.681	1	-4
624.851	1	5
625.020	1	5
625.190	1	12
625.360	1	3
625.529	1	19
625.699	1	6
625.869	1	21
626.038	1	6
626.208	1	2
626.377	1	10
626.547	1	14
626.717	1	2
626.886	1	14
627.056	1	15
627.226	1	4
627.395	1	4
627.565	1	14
627.735	1	-6
627.904	1	2
628.074	1	9
628.243	1	0
628.413	1	2
628.583	1	13
628.752	1	3
628.922	1	1
629.091	1	-6
629.261	1	4
629.431	1	12
629.600	1	10
629.770	1	8
629.940	1	1
630.109	1	11
630.279	1	6
630.448	1	20
630.618	1	-5
630.788	1	15
630.957	1	12
631.127	1	4
631.297	1	2
631.466	1	14
631.636	1	16
631.805	1	15
631.975	1	-2
632.145	1	17
632.314	1	2
632.484	1	5
632.653	1	12
632.823	1	-1
632.993	1	6
633.162	1	11
633.332	1	13
633.501	1	2
633.671	1	15
633.841	1	4
634.010	1	6
634.180	1	-2
634.349	1	-2
634.519	1	9
634.689	1	10
634.858	1	9
635.028	1	8
635.197	1	9
635.367	1	1
635.537	1	2
635.706	1	10
635.876	1	10
636.045	1	9
636.215	1	5
636.384	1	-1
636.554	1	2
636.724	1	18
636.893	1	7
637.063	1	14
637.232	1	8
637.402	1	10
637.572	1	3
637.741	1	9
637.911	1	11
638.080	1	19
638.250	1	16
638.419	1	-3
638.589	1	14
638.759	1	14
638.928	1	12
639.098	1	9
639.267	1	7
639.437	1	-1
639.606	1	-5
639.776	1	10
639.946	1	14
640.115	1	11
640.285	1	2
640.454	1	10
640.624	1	2
640.793	1	-2
640.963	1	4
641.132	1	12
641.302	1	0
641.472	1	0
641.641	1	6
641.811	1	13
641.980	1	1
642.150	1	6
642.319	1	12
642.489	1	7
642.659	1	6
642.828	1	6
642.998	1	16
643.167	1	1
643.337	1	6
643.506	1	4
643.676	1	16
643.845	1	8
644.015	1	14
644.184	1	14
644.354	1	7
644.524	1	8
644.693	1	0
644.863	1	1
645.032	1	3
645.202	1	20
645.371	1	12
645.541	1	7
645.710	1	4
645.880	1	12
646.049	1	15
646.219	1	5
646.388	1	6
646.558	1	7
646.728	1	10
646.897	1	6
647.067	1	8
647.236	1	8
647.406	1	11
647.575	1	5
647.745	1	3
647.914	1	5
648.084	1	4
648.253	1	4
648.423	1	18
648.592	1	8
648.762	1	9
648.931	1	14
649.101	1	10
649.270	1	12
649.440	1	5
649.610	1	13
649.779	1	11
649.949	1	3
650.118	1	8
650.288	1	7
650.457	1	3
650.627	1	0
650.796	1	8
650.966	1	18
651.135	1	7
651.305	1	-1
651.474	1	10
651.644	1	14
651.813	1	9
651.983	1	13
652.152	1	-1
652.322	1	7
652.491	1	13
652.661	1	10
652.830	1	8
653.000	1	-6
653.169	1	1
653.339	1	6
653.508	1	13
653.678	1	6
653.847	1	5
654.017	1	12
654.186	1	15
654.356	1	4
654.525	1	0
654.695	1	17
654.864	1	18
655.034	1	7
655.203	1	5
655.373	1	16
655.542	1	1
655.712	1	-6
655.881	1	-1
656.051	1	3
656.220	1	5
656.390	1	8
656.559	1	-2
656.729	1	12
656.898	1	10
657.068	1	9
657.237	1	11
657.406	1	12
657.576	1	4
657.745	1	5
657.915	1	13
658.084	1	-1
658.254	1	16
658.423	1	9
658.593	1	9
658.762	1	1
658.932	1	7
659.101	1	7
659.271	1	6
659.440	1	8
659.610	1	4
659.779	1	7
659.949	1	2
660.118	1	4
660.288	1	0
660.457	1	9
660.626	1	14
660.796	1	5
660.965	1	23
661.135	1	-6
661.304	1	9
661.474	1	12
661.643	1	9
661.813	1	-5
661.982	1	9
662.152	1	11
662.321	1	3
662.491	1	-1
662.660	1	9
662.829	1	6
662.999	1	14
663.168	1	11
663.338	1	11
663.507	1	10
663.677	1	-2
663.846	1	-2
664.016	1	10
664.185	1	16
664.354	1	5
664.524	1	8
664.693	1	9
664.863	1	0
665.032	1	1
665.202	1	20
665.371	1	10
665.541	1	0
665.710	1	6
665.879	1	7
666.049	1	6
666.218	1	17
666.388	1	13
666.557	1	7
666.727	1	8
666.896	1	5
667.065	1	4
667.235	1	6
667.404	1	13
667.574	1	6
667.743	1	6
667.913	1	-1
668.082	1	15
668.251	1	7
668.421	1	12
668.590	1	-3
668.760	1	6
668.929	1	14
669.099	1	15
669.268	1	-3
669.437	1	-1
669.607	1	2
669.776	1	14
669.946	1	5
670.115	1	11
670.285	1	11
670.454	1	-1
670.623	1	7
670.793	1	7
670.962	1	-3
671.132	1	4
671.301	1	6
671.470	1	2
671.640	1	9
671.809	1	0
671.979	1	11
672.148	1	3
672.317	1	16
672.487	1	8
672.656	1	11
672.826	1	2
672.995	1	-5
673.164	1	3
673.334	1	3
673.503	1	9
673.673	1	15
673.842	1	6
674.011	1	11
674.181	1	15
674.350	1	10
674.520	1	11
674.689	1	1
674.858	1	7
675.028	1	11
675.197	1	18
675.367	1	0
675.536	1	9
675.705	1	4
675.875	1	-1
676.044	1	9
676.214	1	5
676.383	1	3
676.552	1	12
676.722	1	16
676.891	1	11
677.060	1	-1
677.230	1	8
677.399	1	10
677.569	1	3
677.738	1	10
677.907	1	7
678.077	1	18
678.246	1	-6
678.416	1	4
678.585	1	12
678.754	1	8
678.924	1	14
679.093	1	1
679.262	1	2
679.432	1	1
679.601	1	14
679.771	1	9
679.940	1	11
680.109	1	4
680.279	1	10
680.448	1	14
680.617	1	1
680.787	1	10
680.956	1	-2
681.125	1	6
681.295	1	11
681.464	1	14
681.634	1	0
681.803	1	10
681.972	1	-10
682.142	1	-2
682.311	1	7
682.480	1	10
682.650	1	10
682.819	1	16
682.988	1	5
683.158	1	1
683.327	1	10
683.496	1	7
683.666	1	11
683.835	1	-1
684.004	1	11
684.174	1	9
684.343	1	10
684.512	1	4
684.682	1	11
684.851	1	3
685.021	1	-5
685.190	1	5
685.359	1	0
685.529	1	15
685.698	1	2
685.867	1	12
686.037	1	0
686.206	1	13
686.375	1	8
686.545	1	14
686.714	1	4
686.883	1	5
687.053	1	-1
687.222	1	5
687.391	1	7
687.561	1	10
687.730	1	8
687.899	1	0
688.069	1	5
688.238	1	2
688.407	1	4
688.577	1	26
688.746	1	0
