340.368	1	7
340.539	1	7
340.710	1	-7
340.881	1	-2
341.052	1	1
341.223	1	-11
341.394	1	9
341.565	1	-1
341.737	1	-2
341.908	1	9
342.079	1	-8
342.250	1	0
342.421	1	1
342.592	1	-6
342.763	1	-2
342.934	1	-8
343.105	1	16
343.276	1	-1
343.447	1	-2
343.618	1	0
343.789	1	12
343.960	1	-3
344.131	1	-2
344.302	1	-6
344.473	1	6
344.644	1	2
344.815	1	4
344.986	1	3
345.157	1	-4
345.328	1	3
345.499	1	-2
345.670	1	0
345.841	1	4
346.012	1	1
346.183	1	4
346.354	1	-6
346.526	1	0
346.697	1	2
346.868	1	7
347.039	1	-2
347.210	1	-9
347.381	1	0
347.552	1	4
347.723	1	8
347.894	1	9
348.065	1	-4
348.236	1	2
348.407	1	2
348.578	1	3
348.749	1	7
348.920	1	-5
349.091	1	-1
349.262	1	0
349.433	1	3
349.604	1	6
349.775	1	6
349.946	1	10
350.117	1	6
350.288	1	-1
350.459	1	-3
350.630	1	0
350.801	1	3
350.972	1	-3
351.143	1	9
351.314	1	6
351.485	1	-3
351.656	1	-2
351.827	1	-2
351.998	1	-1
352.169	1	-3
352.340	1	6
352.511	1	9
352.682	1	-4
352.853	1	10
353.024	1	2
353.195	1	12
353.366	1	4
353.537	1	2
353.708	1	8
353.879	1	5
354.050	1	0
354.221	1	-4
354.392	1	1
354.563	1	-2
354.734	1	-1
354.905	1	9
355.076	1	-3
355.247	1	-1
355.418	1	2
355.589	1	-1
355.760	1	-1
355.931	1	-6
356.102	1	3
356.273	1	-6
356.444	1	-3
356.615	1	1
356.785	1	3
356.956	1	2
357.127	1	-4
357.298	1	5
357.469	1	-1
357.640	1	-3
357.811	1	3
357.982	1	0
358.153	1	1
358.324	1	11
358.495	1	5
358.666	1	1
358.837	1	-2
359.008	1	4
359.179	1	0
359.350	1	9
359.521	1	1
359.692	1	10
359.863	1	5
360.034	1	2
360.205	1	12
360.376	1	-2
360.547	1	9
360.718	1	3
360.889	1	9
361.060	1	-2
361.231	1	1
361.401	1	2
361.572	1	12
361.743	1	7
361.914	1	9
362.085	1	-7
362.256	1	-2
362.427	1	-2
362.598	1	11
362.769	1	1
362.940	1	17
363.111	1	1
363.282	1	9
363.453	1	-5
363.624	1	17
363.795	1	2
363.966	1	3
364.137	1	19
364.308	1	-1
364.478	1	4
364.649	1	-7
364.820	1	4
364.991	1	14
365.162	1	22
365.333	1	4
365.504	1	10
365.675	1	12
365.846	1	2
366.017	1	12
366.188	1	3
366.359	1	5
366.530	1	15
366.701	1	10
366.871	1	12
367.042	1	10
367.213	1	7
367.384	1	18
367.555	1	15
367.726	1	15
367.897	1	10
368.068	1	18
368.239	1	15
368.410	1	23
368.581	1	18
368.752	1	3
368.923	1	-1
369.093	1	9
369.264	1	6
369.435	1	8
369.606	1	11
369.777	1	12
369.948	1	12
370.119	1	14
370.290	1	4
370.461	1	16
370.632	1	5
370.803	1	7
370.973	1	9
371.144	1	1
371.315	1	9
371.486	1	1
371.657	1	2
371.828	1	4
371.999	1	6
372.170	1	4
372.341	1	15
372.512	1	7
372.682	1	13
372.853	1	13
373.024	1	3
373.195	1	14
373.366	1	3
373.537	1	13
373.708	1	3
373.879	1	5
374.050	1	8
374.220	1	16
374.391	1	-3
374.562	1	1
374.733	1	8
374.904	1	10
375.075	1	2
375.246	1	4
375.417	1	15
375.588	1	1
375.758	1	17
375.929	1	4
376.100	1	11
376.271	1	4
376.442	1	11
376.613	1	3
376.784	1	3
376.955	1	5
377.125	1	16
377.296	1	1
377.467	1	14
377.638	1	4
377.809	1	7
377.980	1	-1
378.151	1	9
378.321	1	7
378.492	1	6
378.663	1	9
378.834	1	4
379.005	1	4
379.176	1	-11
379.347	1	-6
379.518	1	7
379.688	1	9
379.859	1	8
380.030	1	7
380.201	1	1
380.372	1	1
380.543	1	6
380.714	1	17
380.884	1	-1
381.055	1	-1
381.226	1	5
381.397	1	6
381.568	1	6
381.739	1	-3
381.910	1	9
382.080	1	-5
382.251	1	7
382.422	1	5
382.593	1	7
382.764	1	1
382.935	1	-4
383.105	1	12
383.276	1	12
383.447	1	14
383.618	1	7
383.789	1	12
383.960	1	11
384.130	1	0
384.301	1	-1
384.472	1	-5
384.643	1	-1
384.814	1	4
384.985	1	2
385.156	1	-1
385.326	1	-1
385.497	1	-2
385.668	1	6
385.839	1	-4
386.010	1	-1
386.180	1	8
386.351	1	-5
386.522	1	2
386.693	1	-7
386.864	1	6
387.035	1	-3
387.205	1	-9
387.376	1	4
387.547	1	4
387.718	1	2
387.889	1	3
388.060	1	-3
388.230	1	5
388.401	1	3
388.572	1	12
388.743	1	7
388.914	1	-5
389.084	1	-2
389.255	1	7
389.426	1	3
389.597	1	2
389.768	1	11
389.939	1	-1
390.109	1	13
390.280	1	-6
390.451	1	11
390.622	1	-8
390.793	1	4
390.963	1	-2
391.134	1	-6
391.305	1	-3
391.476	1	13
391.647	1	-3
391.817	1	4
391.988	1	3
392.159	1	2
392.330	1	-2
392.501	1	-3
392.671	1	-4
392.842	1	-7
393.013	1	3
393.184	1	5
393.355	1	5
393.525	1	6
393.696	1	7
393.867	1	7
394.038	1	-5
394.208	1	4
394.379	1	-3
394.550	1	6
394.721	1	0
394.892	1	-8
395.062	1	-2
395.233	1	4
395.404	1	7
395.575	1	4
395.746	1	5
395.916	1	-1
396.087	1	10
396.258	1	4
396.429	1	5
396.599	1	-2
396.770	1	11
396.941	1	4
397.112	1	-5
397.283	1	2
397.453	1	10
397.624	1	2
397.795	1	0
397.966	1	5
398.136	1	-1
398.307	1	7
398.478	1	7
398.649	1	12
398.819	1	5
398.990	1	-13
399.161	1	-3
399.332	1	-6
399.503	1	6
399.673	1	1
399.844	1	2
400.015	1	7
400.186	1	-5
400.356	1	-12
400.527	1	13
400.698	1	7
400.869	1	-2
401.039	1	4
401.210	1	9
401.381	1	7
401.552	1	-2
401.722	1	0
401.893	1	4
402.064	1	3
402.235	1	4
402.405	1	-4
402.576	1	-3
402.747	1	2
402.918	1	-2
403.088	1	15
403.259	1	7
403.430	1	1
403.601	1	9
403.771	1	-5
403.942	1	4
404.113	1	1
404.284	1	-4
404.454	1	-2
404.625	1	2
404.796	1	7
404.967	1	8
405.137	1	8
405.308	1	-4
405.479	1	-1
405.649	1	2
405.820	1	-4
405.991	1	0
406.162	1	9
406.332	1	-10
406.503	1	6
406.674	1	7
406.845	1	11
407.015	1	-2
407.186	1	-3
407.357	1	-3
407.527	1	-8
407.698	1	-4
407.869	1	-4
408.040	1	2
408.210	1	7
408.381	1	1
408.552	1	-10
408.722	1	0
408.893	1	0
409.064	1	-2
409.235	1	-2
409.405	1	3
409.576	1	2
409.747	1	-1
409.917	1	-2
410.088	1	5
410.259	1	11
410.430	1	2
410.600	1	1
410.771	1	-1
410.942	1	5
411.112	1	1
411.283	1	2
411.454	1	2
411.625	1	-10
411.795	1	12
411.966	1	3
412.137	1	-10
412.307	1	5
412.478	1	-4
412.649	1	5
412.819	1	-7
412.990	1	0
413.161	1	3
413.332	1	-10
413.502	1	-3
413.673	1	-2
413.844	1	-4
414.014	1	5
414.185	1	5
414.356	1	-6
414.526	1	5
414.697	1	5
414.868	1	0
415.038	1	-3
415.209	1	-10
415.380	1	7
415.550	1	-5
415.721	1	-8
415.892	1	-6
416.063	1	1
416.233	1	5
416.404	1	-16
416.575	1	-2
416.745	1	6
416.916	1	-7
417.087	1	5
417.257	1	-4
417.428	1	0
417.599	1	1
417.769	1	10
417.940	1	-1
418.111	1	10
418.281	1	-9
418.452	1	6
418.623	1	5
418.793	1	7
418.964	1	-1
419.135	1	-1
419.305	1	2
419.476	1	-9
419.647	1	6
419.817	1	2
419.988	1	14
420.159	1	3
420.329	1	-1
420.500	1	5
420.671	1	-5
420.841	1	0
421.012	1	1
421.183	1	7
421.353	1	5
421.524	1	3
421.695	1	-7
421.865	1	3
422.036	1	-8
422.206	1	1
422.377	1	3
422.548	1	-2
422.718	1	7
422.889	1	6
423.060	1	-2
423.230	1	1
423.401	1	-4
423.572	1	-4
423.742	1	-3
423.913	1	-5
424.084	1	21
424.254	1	-7
424.425	1	-5
424.595	1	1
424.766	1	-1
424.937	1	2
425.107	1	2
425.278	1	-4
425.449	1	9
425.619	1	-8
425.790	1	1
425.961	1	-2
426.131	1	13
426.302	1	-11
426.472	1	5
426.643	1	8
426.814	1	-9
426.984	1	2
427.155	1	8
427.326	1	2
427.496	1	-1
427.667	1	4
427.837	1	8
428.008	1	12
428.179	1	1
428.349	1	-12
428.520	1	-8
428.691	1	-4
428.861	1	0
429.032	1	-2
429.202	1	-6
429.373	1	-3
429.544	1	-1
429.714	1	2
429.885	1	-1
430.055	1	-4
430.226	1	-8
430.397	1	1
430.567	1	3
430.738	1	-9
430.909	1	2
431.079	1	-10
431.250	1	13
431.420	1	-1
431.591	1	-11
431.762	1	2
431.932	1	1
432.103	1	6
432.273	1	6
432.444	1	5
432.615	1	-2
432.785	1	0
432.956	1	2
433.126	1	-4
433.297	1	-3
433.468	1	-2
433.638	1	6
433.809	1	2
433.979	1	3
434.150	1	5
434.320	1	4
434.491	1	-1
434.662	1	-10
434.832	1	5
435.003	1	1
435.173	1	8
435.344	1	-2
435.515	1	6
435.685	1	2
435.856	1	7
436.026	1	-7
436.197	1	-11
436.368	1	10
436.538	1	5
436.709	1	-2
436.879	1	11
437.050	1	4
437.220	1	6
437.391	1	-2
437.562	1	13
437.732	1	8
437.903	1	8
438.073	1	-7
438.244	1	2
438.414	1	-2
438.585	1	9
438.756	1	4
438.926	1	1
439.097	1	7
439.267	1	6
439.438	1	2
439.608	1	5
439.779	1	2
439.949	1	4
440.120	1	-6
440.291	1	4
440.461	1	20
440.632	1	-11
440.802	1	4
440.973	1	-4
441.143	1	-10
441.314	1	-11
441.485	1	-2
441.655	1	-7
441.826	1	7
441.996	1	-13
442.167	1	0
442.337	1	6
442.508	1	-1
442.678	1	4
442.849	1	-8
443.019	1	5
443.190	1	5
443.361	1	12
443.531	1	1
443.702	1	7
443.872	1	-15
444.043	1	6
444.213	1	-4
444.384	1	-11
444.554	1	4
444.725	1	0
444.895	1	-14
445.066	1	-1
445.237	1	-11
445.407	1	14
445.578	1	2
445.748	1	3
445.919	1	3
446.089	1	0
446.260	1	7
446.430	1	-4
446.601	1	-5
446.771	1	-13
446.942	1	1
447.112	1	5
447.283	1	7
447.453	1	2
447.624	1	-2
447.794	1	7
447.965	1	0
448.135	1	1
448.306	1	-1
448.477	1	9
448.647	1	-6
448.818	1	8
448.988	1	11
449.159	1	1
449.329	1	-1
449.500	1	7
449.670	1	-14
449.841	1	-3
450.011	1	1
450.182	1	4
450.352	1	-2
450.523	1	6
450.693	1	-8
450.864	1	8
451.034	1	-4
451.205	1	-2
451.375	1	5
451.546	1	-10
451.716	1	5
451.887	1	-13
452.057	1	3
452.228	1	2
452.398	1	2
452.569	1	13
452.739	1	7
452.910	1	17
453.080	1	0
453.251	1	5
453.421	1	4
453.592	1	-2
453.762	1	-2
453.933	1	3
454.103	1	0
454.274	1	-1
454.444	1	-1
454.615	1	-2
454.785	1	-4
454.956	1	3
455.126	1	6
455.297	1	-10
455.467	1	-9
455.638	1	7
455.808	1	8
455.979	1	9
456.149	1	-1
456.320	1	-3
456.490	1	4
456.661	1	0
456.831	1	4
457.001	1	0
457.172	1	2
457.342	1	-6
457.513	1	10
457.683	1	6
457.854	1	5
458.024	1	6
458.195	1	-2
458.365	1	-2
458.536	1	-7
458.706	1	2
458.877	1	2
459.047	1	-4
459.218	1	-5
459.388	1	-2
459.559	1	-3
459.729	1	12
459.899	1	2
460.070	1	0
460.240	1	3
460.411	1	-8
460.581	1	3
460.752	1	9
460.922	1	-3
461.093	1	9
461.263	1	-6
461.434	1	-5
461.604	1	4
461.775	1	9
461.945	1	8
462.115	1	3
462.286	1	-2
462.456	1	-9
462.627	1	3
462.797	1	3
462.968	1	10
463.138	1	0
463.309	1	6
463.479	1	6
463.649	1	11
463.820	1	6
463.990	1	-2
464.161	1	3
464.331	1	3
464.502	1	-2
464.672	1	1
464.843	1	-2
465.013	1	9
465.183	1	13
465.354	1	-7
465.524	1	1
465.695	1	-2
465.865	1	-1
466.036	1	-5
466.206	1	8
466.376	1	8
466.547	1	-2
466.717	1	-1
466.888	1	-7
467.058	1	-1
467.229	1	-5
467.399	1	10
467.569	1	2
467.740	1	-1
467.910	1	-6
468.081	1	-1
468.251	1	0
468.422	1	8
468.592	1	4
468.762	1	17
468.933	1	-9
469.103	1	8
469.274	1	4
469.444	1	-1
469.614	1	-3
469.785	1	-7
469.955	1	1
470.126	1	1
470.296	1	1
470.467	1	5
470.637	1	10
470.807	1	-2
470.978	1	-1
471.148	1	-8
471.319	1	5
471.489	1	6
471.659	1	-9
471.830	1	-2
472.000	1	1
472.171	1	12
472.341	1	11
472.511	1	-1
472.682	1	-7
472.852	1	-1
473.023	1	10
473.193	1	12
473.363	1	2
473.534	1	0
473.704	1	-1
473.875	1	3
474.045	1	8
474.215	1	1
474.386	1	-7
474.556	1	2
474.727	1	0
474.897	1	-1
475.067	1	0
475.238	1	-8
475.408	1	-8
475.578	1	9
475.749	1	1
475.919	1	-1
476.090	1	1
476.260	1	13
476.430	1	0
476.601	1	5
476.771	1	12
476.942	1	-3
477.112	1	-2
477.282	1	4
477.453	1	7
477.623	1	10
477.793	1	10
477.964	1	2
478.134	1	6
478.305	1	-13
478.475	1	0
478.645	1	3
478.816	1	1
478.986	1	8
479.156	1	4
479.327	1	-7
479.497	1	3
479.667	1	-7
479.838	1	5
480.008	1	5
480.179	1	-6
480.349	1	-1
480.519	1	9
480.690	1	0
480.860	1	-5
481.030	1	2
481.201	1	2
481.371	1	1
481.541	1	9
481.712	1	-6
481.882	1	8
482.053	1	-2
482.223	1	-3
482.393	1	-2
482.564	1	0
482.734	1	9
482.904	1	2
483.075	1	-1
483.245	1	-2
483.415	1	4
483.586	1	9
483.756	1	-8
483.926	1	6
484.097	1	-9
484.267	1	1
484.437	1	-5
484.608	1	3
484.778	1	-11
484.948	1	6
485.119	1	2
485.289	1	1
485.459	1	-8
485.630	1	3
485.800	1	-1
485.970	1	7
486.141	1	13
486.311	1	4
486.481	1	2
486.652	1	8
486.822	1	1
486.992	1	1
487.163	1	3
487.333	1	1
487.503	1	1
487.674	1	5
487.844	1	-4
488.014	1	0
488.185	1	2
488.355	1	-7
488.525	1	6
488.696	1	4
488.866	1	0
489.036	1	1
489.207	1	4
489.377	1	-1
489.547	1	3
489.718	1	13
489.888	1	2
490.058	1	6
490.228	1	-1
490.399	1	3
490.569	1	3
490.739	1	2
490.910	1	1
491.080	1	-6
491.250	1	8
491.421	1	2
491.591	1	0
491.761	1	-7
491.932	1	4
492.102	1	1
492.272	1	7
492.442	1	8
492.613	1	1
492.783	1	-5
492.953	1	4
493.124	1	6
493.294	1	0
493.464	1	-3
493.635	1	-2
493.805	1	1
493.975	1	4
494.145	1	11
494.316	1	-3
494.486	1	8
494.656	1	2
494.827	1	-3
494.997	1	2
495.167	1	-3
495.337	1	6
495.508	1	5
495.678	1	9
495.848	1	-4
496.019	1	-13
496.189	1	-13
496.359	1	10
496.529	1	1
496.700	1	15
496.870	1	2
497.040	1	2
497.211	1	6
497.381	1	3
497.551	1	-6
497.721	1	-3
497.892	1	-2
498.062	1	0
498.232	1	2
498.403	1	12
498.573	1	-13
498.743	1	4
498.913	1	-2
499.084	1	-2
499.254	1	0
499.424	1	2
499.594	1	0
499.765	1	-10
499.935	1	0
500.105	1	-3
500.275	1	10
500.446	1	-1
500.616	1	-7
500.786	1	-6
500.956	1	4
501.127	1	2
501.297	1	1
501.467	1	-2
501.638	1	-5
501.808	1	2
501.978	1	-2
502.148	1	4
502.319	1	1
502.489	1	5
502.659	1	7
502.829	1	-1
503.000	1	8
503.170	1	5
503.340	1	14
503.510	1	2
503.681	1	12
503.851	1	-1
504.021	1	5
504.191	1	-5
504.362	1	1
504.532	1	-9
504.702	1	9
504.872	1	4
505.042	1	6
505.213	1	-9
505.383	1	-2
505.553	1	-3
505.723	1	9
505.894	1	17
506.064	1	5
506.234	1	-2
506.404	1	0
506.575	1	5
506.745	1	6
506.915	1	1
507.085	1	-14
507.256	1	-2
507.426	1	-2
507.596	1	-8
507.766	1	4
507.936	1	9
508.107	1	2
508.277	1	-10
508.447	1	5
508.617	1	4
508.788	1	-4
508.958	1	-10
509.128	1	1
509.298	1	-3
509.468	1	-2
509.639	1	9
509.809	1	9
509.979	1	10
510.149	1	10
510.319	1	-4
510.490	1	2
510.660	1	0
510.830	1	7
511.000	1	6
511.171	1	1
511.341	1	13
511.511	1	1
511.681	1	0
511.851	1	-1
512.022	1	1
512.192	1	6
512.362	1	1
512.532	1	1
512.702	1	-5
512.873	1	-4
513.043	1	-5
513.213	1	-1
513.383	1	5
513.553	1	6
513.724	1	-1
513.894	1	-3
514.064	1	5
514.234	1	7
514.404	1	-7
514.575	1	6
514.745	1	-3
514.915	1	2
515.085	1	4
515.255	1	-2
515.425	1	8
515.596	1	-4
515.766	1	-6
515.936	1	-8
516.106	1	6
516.276	1	3
516.447	1	-5
516.617	1	-2
516.787	1	10
516.957	1	-7
517.127	1	9
517.297	1	10
517.468	1	8
517.638	1	-6
517.808	1	10
517.978	1	11
518.148	1	0
518.319	1	4
518.489	1	8
518.659	1	-10
518.829	1	10
518.999	1	5
519.169	1	-7
519.340	1	-2
519.510	1	8
519.680	1	4
519.850	1	-2
520.020	1	-3
520.190	1	-4
520.361	1	-6
520.531	1	5
520.701	1	3
520.871	1	1
521.041	1	0
521.211	1	3
521.382	1	2
521.552	1	4
521.722	1	1
521.892	1	-2
522.062	1	-2
522.232	1	-8
522.402	1	6
522.573	1	3
522.743	1	10
522.913	1	-3
523.083	1	2
523.253	1	19
523.423	1	2
523.593	1	0
523.764	1	-1
523.934	1	3
524.104	1	-5
524.274	1	1
524.444	1	1
524.614	1	-2
524.784	1	9
524.955	1	3
525.125	1	9
525.295	1	2
525.465	1	13
525.635	1	11
525.805	1	7
525.975	1	-1
526.146	1	3
526.316	1	8
526.486	1	3
526.656	1	11
526.826	1	0
526.996	1	-1
527.166	1	6
527.337	1	6
527.507	1	1
527.677	1	-1
527.847	1	-3
528.017	1	4
528.187	1	-1
528.357	1	-6
528.527	1	-3
528.698	1	-9
528.868	1	2
529.038	1	3
529.208	1	4
529.378	1	-3
529.548	1	7
529.718	1	16
529.888	1	11
530.058	1	21
530.229	1	5
530.399	1	9
530.569	1	0
530.739	1	4
530.909	1	3
531.079	1	1
531.249	1	2
531.419	1	7
531.589	1	7
531.760	1	4
531.930	1	7
532.100	1	-5
532.270	1	3
532.440	1	4
532.610	1	4
532.780	1	-2
532.950	1	-5
533.120	1	10
533.290	1	6
533.461	1	-3
533.631	1	-11
533.801	1	-3
533.971	1	0
534.141	1	-2
534.311	1	-3
534.481	1	15
534.651	1	4
534.821	1	10
534.991	1	-2
535.162	1	-3
535.332	1	4
535.502	1	15
535.672	1	6
535.842	1	7
536.012	1	-10
536.182	1	-2
536.352	1	-3
536.522	1	11
536.692	1	13
536.862	1	9
537.032	1	-6
537.203	1	-3
537.373	1	1
537.543	1	-2
537.713	1	2
537.883	1	5
538.053	1	8
538.223	1	6
538.393	1	9
538.563	1	4
538.733	1	-1
538.903	1	-1
539.073	1	-2
539.243	1	-2
539.413	1	-2
539.584	1	3
539.754	1	-2
539.924	1	4
540.094	1	6
540.264	1	11
540.434	1	1
540.604	1	5
540.774	1	6
540.944	1	-5
541.114	1	1
541.284	1	3
541.454	1	-3
541.624	1	-9
541.794	1	-1
541.964	1	-4
542.134	1	1
542.305	1	-4
542.475	1	-1
542.645	1	-6
542.815	1	4
542.985	1	7
543.155	1	1
543.325	1	-1
543.495	1	-3
543.665	1	1
543.835	1	-1
544.005	1	9
544.175	1	-7
544.345	1	5
544.515	1	-5
544.685	1	5
544.855	1	-2
545.025	1	9
545.195	1	1
545.365	1	4
545.535	1	0
545.705	1	13
545.875	1	0
546.045	1	0
546.216	1	2
546.386	1	-2
546.556	1	4
546.726	1	2
546.896	1	5
547.066	1	14
547.236	1	15
547.406	1	3
547.576	1	2
547.746	1	-8
547.916	1	-7
548.086	1	-3
548.256	1	3
548.426	1	20
548.596	1	-11
548.766	1	-1
548.936	1	-4
549.106	1	7
549.276	1	1
549.446	1	7
549.616	1	11
549.786	1	2
549.956	1	-1
550.126	1	-9
550.296	1	-10
550.466	1	-1
550.636	1	5
550.806	1	1
550.976	1	8
551.146	1	9
551.316	1	6
551.486	1	2
551.656	1	-1
551.826	1	5
551.996	1	3
552.166	1	1
552.336	1	4
552.506	1	3
552.676	1	8
552.846	1	7
553.016	1	4
553.186	1	3
553.356	1	7
553.526	1	4
553.696	1	3
553.866	1	-10
554.036	1	-4
554.206	1	14
554.376	1	9
554.546	1	-3
554.716	1	4
554.886	1	-2
555.056	1	-4
555.226	1	-6
555.396	1	5
555.566	1	1
555.736	1	1
555.906	1	-13
556.076	1	6
556.246	1	5
556.416	1	7
556.586	1	0
556.756	1	-2
556.926	1	4
557.096	1	0
557.266	1	2
557.436	1	-6
557.606	1	12
557.776	1	0
557.946	1	7
558.116	1	-4
558.286	1	-1
558.456	1	-5
558.626	1	13
558.796	1	5
558.966	1	-2
559.136	1	11
559.306	1	10
559.476	1	4
559.646	1	-5
559.816	1	-7
559.986	1	-1
560.155	1	1
560.325	1	-4
560.495	1	7
560.665	1	3
560.835	1	7
561.005	1	-5
561.175	1	-1
561.345	1	-5
561.515	1	10
561.685	1	-5
561.855	1	1
562.025	1	-9
562.195	1	10
562.365	1	10
562.535	1	4
562.705	1	6
562.875	1	-2
563.045	1	-4
563.215	1	-9
563.385	1	8
563.555	1	0
563.725	1	-4
563.895	1	3
564.064	1	6
564.234	1	2
564.404	1	-1
564.574	1	-5
564.744	1	6
564.914	1	1
565.084	1	2
565.254	1	3
565.424	1	0
565.594	1	2
565.764	1	4
565.934	1	6
566.104	1	-3
566.274	1	2
566.444	1	13
566.614	1	-4
566.783	1	0
566.953	1	8
567.123	1	1
567.293	1	3
567.463	1	-3
567.633	1	-2
567.803	1	8
567.973	1	-2
568.143	1	2
568.313	1	7
568.483	1	5
568.653	1	2
568.823	1	6
568.993	1	2
569.162	1	1
569.332	1	3
569.502	1	-3
569.672	1	1
569.842	1	-4
570.012	1	0
570.182	1	-7
570.352	1	1
570.522	1	-2
570.692	1	7
570.862	1	6
571.031	1	1
571.201	1	8
571.371	1	14
571.541	1	-7
571.711	1	1
571.881	1	-7
572.051	1	-6
572.221	1	7
572.391	1	9
572.561	1	10
572.731	1	-3
572.900	1	-1
573.070	1	-2
573.240	1	8
573.410	1	-8
573.580	1	-6
573.750	1	2
573.920	1	13
574.090	1	-1
574.260	1	7
574.430	1	13
574.599	1	0
574.769	1	-6
574.939	1	5
575.109	1	-1
575.279	1	-7
575.449	1	0
575.619	1	4
575.789	1	2
575.959	1	-10
576.128	1	-5
576.298	1	13
576.468	1	8
576.638	1	11
576.808	1	-2
576.978	1	5
577.148	1	2
577.318	1	6
577.487	1	6
577.657	1	6
577.827	1	-10
577.997	1	2
578.167	1	2
578.337	1	2
578.507	1	17
578.677	1	0
578.846	1	5
579.016	1	5
579.186	1	-12
579.356	1	2
579.526	1	-4
579.696	1	3
579.866	1	3
580.036	1	1
580.205	1	-6
580.375	1	-6
580.545	1	1
580.715	1	1
580.885	1	4
581.055	1	4
581.225	1	-3
581.394	1	3
581.564	1	-6
581.734	1	1
581.904	1	1
582.074	1	1
582.244	1	1
582.414	1	-6
582.583	1	2
582.753	1	3
582.923	1	7
583.093	1	8
583.263	1	11
583.433	1	6
583.603	1	-2
583.772	1	-6
583.942	1	6
584.112	1	-3
584.282	1	2
584.452	1	-8
584.622	1	12
584.791	1	-6
584.961	1	-2
585.131	1	9
585.301	1	2
585.471	1	16
585.641	1	-2
585.811	1	-6
585.980	1	-4
586.150	1	-2
586.320	1	-3
586.490	1	4
586.660	1	4
586.830	1	-3
586.999	1	3
587.169	1	8
587.339	1	-5
587.509	1	-2
587.679	1	4
587.849	1	1
588.018	1	3
588.188	1	5
588.358	1	16
588.528	1	-2
588.698	1	3
588.867	1	1
589.037	1	-5
589.207	1	-7
589.377	1	-2
589.547	1	9
589.717	1	3
589.886	1	1
590.056	1	1
590.226	1	-1
590.396	1	7
590.566	1	1
590.735	1	2
590.905	1	10
591.075	1	0
591.245	1	6
591.415	1	-3
591.585	1	6
591.754	1	2
591.924	1	-3
592.094	1	3
592.264	1	0
592.434	1	-4
592.603	1	1
592.773	1	4
592.943	1	5
593.113	1	4
593.283	1	8
593.452	1	5
593.622	1	-8
593.792	1	5
593.962	1	-6
594.132	1	9
594.301	1	12
594.471	1	-3
594.641	1	5
594.811	1	-6
594.981	1	0
595.150	1	-3
595.320	1	-7
595.490	1	6
595.660	1	0
595.829	1	0
595.999	1	-1
596.169	1	4
596.339	1	0
596.509	1	-2
596.678	1	1
596.848	1	-1
597.018	1	5
597.188	1	-4
597.358	1	-12
597.527	1	-2
597.697	1	-3
597.867	1	9
598.037	1	1
598.206	1	-6
598.376	1	-7
598.546	1	2
598.716	1	1
598.885	1	2
599.055	1	-1
599.225	1	8
599.395	1	10
599.565	1	8
599.734	1	6
599.904	1	2
600.074	1	4
600.244	1	2
600.413	1	-1
600.583	1	0
600.753	1	5
600.923	1	9
601.092	1	-1
601.262	1	-7
601.432	1	-6
601.602	1	7
601.771	1	11
601.941	1	4
602.111	1	-3
602.281	1	-7
602.451	1	7
602.620	1	3
602.790	1	16
602.960	1	-5
603.130	1	-6
603.299	1	-3
603.469	1	7
603.639	1	9
603.809	1	-4
603.978	1	7
604.148	1	-2
604.318	1	-4
604.487	1	4
604.657	1	2
604.827	1	-12
604.997	1	-4
605.166	1	10
605.336	1	-3
605.506	1	-5
605.676	1	0
605.845	1	12
606.015	1	9
606.185	1	3
606.355	1	6
606.524	1	-6
606.694	1	-4
606.864	1	-2
607.034	1	3
607.203	1	4
607.373	1	4
607.543	1	4
607.712	1	-13
607.882	1	-4
608.052	1	-4
608.222	1	-6
608.391	1	7
608.561	1	12
608.731	1	2
608.901	1	1
609.070	1	-4
609.240	1	5
609.410	1	5
609.579	1	8
609.749	1	-3
609.919	1	-1
610.089	1	5
610.258	1	5
610.428	1	-1
610.598	1	8
610.767	1	-2
610.937	1	1
611.107	1	-7
611.277	1	-3
611.446	1	-3
611.616	1	6
611.786	1	0
611.955	1	0
612.125	1	4
612.295	1	5
612.465	1	-6
612.634	1	-2
612.804	1	6
612.974	1	1
613.143	1	-8
613.313	1	0
613.483	1	-6
613.652	1	4
613.822	1	6
613.992	1	-1
614.162	1	1
614.331	1	-1
614.501	1	0
614.671	1	4
614.840	1	5
615.010	1	3
615.180	1	10
615.349	1	8
615.519	1	-7
615.689	1	6
615.858	1	5
616.028	1	6
616.198	1	-8
616.368	1	5
616.537	1	-3
616.707	1	-2
616.877	1	4
617.046	1	0
617.216	1	12
617.386	1	-5
617.555	1	-2
617.725	1	7
617.895	1	2
618.064	1	7
618.234	1	-3
618.404	1	3
618.573	1	-8
618.743	1	-1
618.913	1	-4
619.082	1	10
619.252	1	9
619.422	1	-9
619.591	1	-1
619.761	1	-7
619.931	1	7
620.100	1	8
620.270	1	-1
620.440	1	1
620.609	1	-7
620.779	1	2
620.949	1	6
621.118	1	0
621.288	1	12
621.458	1	1
621.627	1	4
621.797	1	2
621.967	1	-2
622.136	1	0
622.306	1	1
622.476	1	2
622.645	1	6
622.815	1	6
622.985	1	-1
623.154	1	7
623.324	1	-6
623.494	1	0
623.663	1	2
623.833	1	2
624.002	1	-2
624.172	1	8
624.342	1	11
624.511	1	10
624.681	1	-3
624.851	1	-7
625.020	1	2
625.190	1	6
625.360	1	0
625.529	1	4
625.699	1	2
625.869	1	0
626.038	1	-1
626.208	1	1
626.377	1	5
626.547	1	-6
626.717	1	-6
626.886	1	4
627.056	1	6
627.226	1	0
627.395	1	-2
627.565	1	1
627.735	1	-8
627.904	1	1
628.074	1	3
628.243	1	-5
628.413	1	-1
628.583	1	-9
628.752	1	2
628.922	1	-15
629.091	1	-14
629.261	1	11
629.431	1	-2
629.600	1	-5
629.770	1	5
629.940	1	-7
630.109	1	-5
630.279	1	5
630.448	1	-1
630.618	1	-1
630.788	1	11
630.957	1	5
631.127	1	6
631.297	1	-6
631.466	1	2
631.636	1	12
631.805	1	4
631.975	1	-5
632.145	1	-1
632.314	1	5
632.484	1	-11
632.653	1	14
632.823	1	-8
632.993	1	2
633.162	1	8
633.332	1	3
633.501	1	3
633.671	1	3
633.841	1	-6
634.010	1	3
634.180	1	2
634.349	1	-6
634.519	1	2
634.689	1	8
634.858	1	-6
635.028	1	3
635.197	1	4
635.367	1	-6
635.537	1	-2
635.706	1	-2
635.876	1	4
636.045	1	3
636.215	1	1
636.384	1	-6
636.554	1	-3
636.724	1	10
636.893	1	-4
637.063	1	6
637.232	1	0
637.402	1	9
637.572	1	-3
637.741	1	-3
637.911	1	0
638.080	1	3
638.250	1	-1
638.419	1	5
638.589	1	12
638.759	1	1
638.928	1	8
639.098	1	-9
639.267	1	2
639.437	1	-4
639.606	1	-4
639.776	1	-1
639.946	1	3
640.115	1	2
640.285	1	6
640.454	1	2
640.624	1	-4
640.793	1	-8
640.963	1	2
641.132	1	5
641.302	1	1
641.472	1	-6
641.641	1	4
641.811	1	7
641.980	1	-3
642.150	1	4
642.319	1	5
642.489	1	1
642.659	1	-3
642.828	1	4
642.998	1	10
643.167	1	-4
643.337	1	1
643.506	1	6
643.676	1	12
643.845	1	2
644.015	1	6
644.184	1	14
644.354	1	8
644.524	1	-1
644.693	1	-10
644.863	1	-11
645.032	1	1
645.202	1	8
645.371	1	7
645.541	1	2
645.710	1	2
645.880	1	-2
646.049	1	7
646.219	1	-4
646.388	1	3
646.558	1	2
646.728	1	5
646.897	1	-3
647.067	1	8
647.236	1	0
647.406	1	0
647.575	1	-5
647.745	1	-10
647.914	1	-9
648.084	1	2
648.253	1	3
648.423	1	6
648.592	1	-11
648.762	1	6
648.931	1	7
649.101	1	9
649.270	1	-4
649.440	1	-1
649.610	1	2
649.779	1	2
649.949	1	-8
650.118	1	0
650.288	1	4
650.457	1	-1
650.627	1	0
650.796	1	9
650.966	1	3
651.135	1	-1
651.305	1	-3
651.474	1	17
651.644	1	5
651.813	1	7
651.983	1	1
652.152	1	-3
652.322	1	4
652.491	1	6
652.661	1	-1
652.830	1	-9
653.000	1	0
653.169	1	-2
653.339	1	-5
653.508	1	4
653.678	1	5
653.847	1	6
654.017	1	0
654.186	1	20
654.356	1	5
654.525	1	1
654.695	1	8
654.864	1	5
655.034	1	3
655.203	1	4
655.373	1	4
655.542	1	-9
655.712	1	-2
655.881	1	-4
656.051	1	2
656.220	1	-3
656.390	1	7
656.559	1	-1
656.729	1	6
656.898	1	0
657.068	1	10
657.237	1	-1
657.406	1	3
657.576	1	-4
657.745	1	17
657.915	1	-2
658.084	1	-2
658.254	1	16
658.423	1	3
658.593	1	0
658.762	1	-2
658.932	1	-3
659.101	1	4
659.271	1	1
659.440	1	3
659.610	1	16
659.779	1	0
659.949	1	-9
660.118	1	5
660.288	1	6
660.457	1	1
660.626	1	2
660.796	1	0
660.965	1	10
661.135	1	-14
661.304	1	0
661.474	1	5
661.643	1	8
661.813	1	3
661.982	1	14
662.152	1	9
662.321	1	6
662.491	1	-13
662.660	1	-4
662.829	1	1
662.999	1	7
663.168	1	6
663.338	1	-1
663.507	1	-2
663.677	1	1
663.846	1	2
664.016	1	3
664.185	1	5
664.354	1	-5
664.524	1	6
664.693	1	-2
664.863	1	4
665.032	1	-5
665.202	1	9
665.371	1	-4
665.541	1	5
665.710	1	-2
665.879	1	3
666.049	1	9
666.218	1	11
666.388	1	11
666.557	1	-5
666.727	1	10
666.896	1	4
667.065	1	-8
667.235	1	1
667.404	1	5
667.574	1	-5
667.743	1	-7
667.913	1	-3
668.082	1	6
668.251	1	8
668.421	1	4
668.590	1	4
668.760	1	4
668.929	1	2
669.099	1	-2
669.268	1	-4
669.437	1	2
669.607	1	3
669.776	1	6
669.946	1	3
670.115	1	10
670.285	1	10
670.454	1	-4
670.623	1	3
670.793	1	2
670.962	1	1
671.132	1	2
671.301	1	0
671.470	1	3
671.640	1	12
671.809	1	3
671.979	1	-1
672.148	1	-7
672.317	1	4
672.487	1	1
672.656	1	-1
672.826	1	-5
672.995	1	-4
673.164	1	-2
673.334	1	4
673.503	1	-11
673.673	1	8
673.842	1	2
674.011	1	-4
674.181	1	3
674.350	1	4
674.520	1	6
674.689	1	6
674.858	1	-11
675.028	1	-6
675.197	1	1
675.367	1	-7
675.536	1	4
675.705	1	14
675.875	1	8
676.044	1	10
676.214	1	-5
676.383	1	1
676.552	1	8
676.722	1	9
676.891	1	14
677.060	1	4
677.230	1	4
677.399	1	1
677.569	1	-15
677.738	1	5
677.907	1	-4
678.077	1	12
678.246	1	-1
678.416	1	-1
678.585	1	-2
678.754	1	1
678.924	1	12
679.093	1	-3
679.262	1	1
679.432	1	-7
679.601	1	8
679.771	1	0
679.940	1	11
680.109	1	-1
680.279	1	14
680.448	1	1
680.617	1	-2
680.787	1	-4
680.956	1	-16
681.125	1	8
681.295	1	-4
681.464	1	7
681.634	1	-1
681.803	1	6
681.972	1	-2
682.142	1	-2
682.311	1	-7
682.480	1	2
682.650	1	-5
682.819	1	-2
682.988	1	4
683.158	1	-5
683.327	1	8
683.496	1	1
683.666	1	5
683.835	1	-2
684.004	1	1
684.174	1	0
684.343	1	8
684.512	1	2
684.682	1	0
684.851	1	0
685.021	1	-9
685.190	1	-2
685.359	1	5
685.529	1	16
685.698	1	-10
685.867	1	-4
686.037	1	-5
686.206	1	-5
686.375	1	5
686.545	1	4
686.714	1	-2
686.883	1	2
687.053	1	-8
687.222	1	-5
687.391	1	8
687.561	1	0
687.730	1	8
687.899	1	-7
688.069	1	7
688.238	1	-5
688.407	1	-10
688.577	1	3
688.746	1	-3
