340.368	1	2
340.539	1	5
340.710	1	-10
340.881	1	1
341.052	1	-3
341.223	1	-2
341.394	1	10
341.565	1	9
341.737	1	4
341.908	1	7
342.079	1	2
342.250	1	3
342.421	1	0
342.592	1	6
342.763	1	-2
342.934	1	5
343.105	1	16
343.276	1	2
343.447	1	-3
343.618	1	4
343.789	1	1
343.960	1	-5
344.131	1	0
344.302	1	-6
344.473	1	-7
344.644	1	-5
344.815	1	9
344.986	1	3
345.157	1	-6
345.328	1	2
345.499	1	-3
345.670	1	6
345.841	1	9
346.012	1	4
346.183	1	12
346.354	1	-8
346.526	1	12
346.697	1	8
346.868	1	2
347.039	1	-2
347.210	1	-3
347.381	1	-3
347.552	1	-4
347.723	1	7
347.894	1	2
348.065	1	-12
348.236	1	-3
348.407	1	1
348.578	1	1
348.749	1	1
348.920	1	1
349.091	1	5
349.262	1	5
349.433	1	3
349.604	1	9
349.775	1	5
349.946	1	13
350.117	1	4
350.288	1	6
350.459	1	-1
350.630	1	12
350.801	1	3
350.972	1	5
351.143	1	-3
351.314	1	0
351.485	1	1
351.656	1	0
351.827	1	-1
351.998	1	8
352.169	1	8
352.340	1	7
352.511	1	12
352.682	1	8
352.853	1	0
353.024	1	7
353.195	1	7
353.366	1	6
353.537	1	-1
353.708	1	7
353.879	1	7
354.050	1	-1
354.221	1	5
354.392	1	15
354.563	1	-3
354.734	1	12
354.905	1	13
355.076	1	-2
355.247	1	4
355.418	1	5
355.589	1	-1
355.760	1	-4
355.931	1	6
356.102	1	5
356.273	1	2
356.444	1	1
356.615	1	2
356.785	1	1
356.956	1	3
357.127	1	1
357.298	1	15
357.469	1	4
357.640	1	6
357.811	1	6
357.982	1	9
358.153	1	14
358.324	1	9
358.495	1	7
358.666	1	14
358.837	1	0
359.008	1	-4
359.179	1	3
359.350	1	10
359.521	1	10
359.692	1	3
359.863	1	12
360.034	1	7
360.205	1	13
360.376	1	8
360.547	1	5
360.718	1	15
360.889	1	21
361.060	1	6
361.231	1	15
361.401	1	14
361.572	1	19
361.743	1	15
361.914	1	16
362.085	1	3
362.256	1	13
362.427	1	7
362.598	1	20
362.769	1	8
362.940	1	30
363.111	1	28
363.282	1	22
363.453	1	20
363.624	1	21
363.795	1	12
363.966	1	7
364.137	1	20
364.308	1	6
364.478	1	18
364.649	1	20
364.820	1	19
364.991	1	24
365.162	1	25
365.333	1	16
365.504	1	19
365.675	1	19
365.846	1	14
366.017	1	23
366.188	1	24
366.359	1	24
366.530	1	30
366.701	1	24
366.871	1	35
367.042	1	17
367.213	1	22
367.384	1	35
367.555	1	28
367.726	1	32
367.897	1	43
368.068	1	34
368.239	1	29
368.410	1	33
368.581	1	51
368.752	1	15
368.923	1	34
369.093	1	25
369.264	1	36
369.435	1	31
369.606	1	25
369.777	1	37
369.948	1	48
370.119	1	21
370.290	1	23
370.461	1	45
370.632	1	26
370.803	1	18
370.973	1	34
371.144	1	38
371.315	1	34
371.486	1	31
371.657	1	23
371.828	1	37
371.999	1	35
372.170	1	39
372.341	1	32
372.512	1	24
372.682	1	19
372.853	1	17
373.024	1	17
373.195	1	26
373.366	1	24
373.537	1	33
373.708	1	20
373.879	1	23
374.050	1	14
374.220	1	26
374.391	1	15
374.562	1	11
374.733	1	11
374.904	1	21
375.075	1	16
375.246	1	13
375.417	1	23
375.588	1	7
375.758	1	27
375.929	1	20
376.100	1	12
376.271	1	17
376.442	1	23
376.613	1	19
376.784	1	-4
376.955	1	17
377.125	1	32
377.296	1	17
377.467	1	19
377.638	1	29
377.809	1	20
377.980	1	5
378.151	1	20
378.321	1	3
378.492	1	14
378.663	1	14
378.834	1	16
379.005	1	15
379.176	1	13
379.347	1	5
379.518	1	2
379.688	1	8
379.859	1	14
380.030	1	10
380.201	1	1
380.372	1	11
380.543	1	3
380.714	1	20
380.884	1	2
381.055	1	7
381.226	1	5
381.397	1	13
381.568	1	18
381.739	1	13
381.910	1	21
382.080	1	2
382.251	1	11
382.422	1	8
382.593	1	19
382.764	1	7
382.935	1	4
383.105	1	9
383.276	1	20
383.447	1	7
383.618	1	14
383.789	1	28
383.960	1	13
384.130	1	7
384.301	1	1
384.472	1	-1
384.643	1	5
384.814	1	10
384.985	1	0
385.156	1	4
385.326	1	13
385.497	1	17
385.668	1	10
385.839	1	1
386.010	1	-1
386.180	1	3
386.351	1	5
386.522	1	11
386.693	1	2
386.864	1	10
387.035	1	4
387.205	1	3
387.376	1	5
387.547	1	7
387.718	1	3
387.889	1	12
388.060	1	13
388.230	1	10
388.401	1	-2
388.572	1	6
388.743	1	12
388.914	1	-2
389.084	1	5
389.255	1	16
389.426	1	0
389.597	1	5
389.768	1	8
389.939	1	8
390.109	1	10
390.280	1	-2
390.451	1	-3
390.622	1	2
390.793	1	9
390.963	1	12
391.134	1	-4
391.305	1	-3
391.476	1	6
391.647	1	2
391.817	1	9
391.988	1	6
392.159	1	12
392.330	1	7
392.501	1	3
392.671	1	9
392.842	1	-2
393.013	1	3
393.184	1	4
393.355	1	9
393.525	1	8
393.696	1	8
393.867	1	-4
394.038	1	-9
394.208	1	5
394.379	1	-6
394.550	1	6
394.721	1	5
394.892	1	8
395.062	1	3
395.233	1	4
395.404	1	2
395.575	1	6
395.746	1	10
395.916	1	-12
396.087	1	1
396.258	1	-3
396.429	1	7
396.599	1	-2
396.770	1	16
396.941	1	7
397.112	1	1
397.283	1	5
397.453	1	14
397.624	1	-1
397.795	1	-1
397.966	1	-2
398.136	1	6
398.307	1	-2
398.478	1	10
398.649	1	15
398.819	1	13
398.990	1	-9
399.161	1	-1
399.332	1	-6
399.503	1	4
399.673	1	8
399.844	1	-6
400.015	1	2
400.186	1	4
400.356	1	-1
400.527	1	18
400.698	1	-4
400.869	1	1
401.039	1	2
401.210	1	7
401.381	1	13
401.552	1	4
401.722	1	0
401.893	1	5
402.064	1	6
402.235	1	3
402.405	1	-8
402.576	1	0
402.747	1	5
402.918	1	5
403.088	1	7
403.259	1	5
403.430	1	15
403.601	1	9
403.771	1	7
403.942	1	7
404.113	1	4
404.284	1	-2
404.454	1	-3
404.625	1	0
404.796	1	12
404.967	1	5
405.137	1	14
405.308	1	8
405.479	1	0
405.649	1	6
405.820	1	1
405.991	1	5
406.162	1	6
406.332	1	-9
406.503	1	5
406.674	1	10
406.845	1	3
407.015	1	3
407.186	1	0
407.357	1	-2
407.527	1	2
407.698	1	-4
407.869	1	3
408.040	1	1
408.210	1	15
408.381	1	7
408.552	1	1
408.722	1	-1
408.893	1	0
409.064	1	-4
409.235	1	-1
409.405	1	-3
409.576	1	7
409.747	1	-2
409.917	1	8
410.088	1	10
410.259	1	6
410.430	1	1
410.600	1	6
410.771	1	8
410.942	1	3
411.112	1	-5
411.283	1	0
411.454	1	2
411.625	1	-2
411.795	1	8
411.966	1	0
412.137	1	-8
412.307	1	6
412.478	1	1
412.649	1	9
412.819	1	-5
412.990	1	-1
413.161	1	8
413.332	1	0
413.502	1	3
413.673	1	-1
413.844	1	10
414.014	1	4
414.185	1	-7
414.356	1	1
414.526	1	2
414.697	1	10
414.868	1	-3
415.038	1	-6
415.209	1	-16
415.380	1	8
415.550	1	-5
415.721	1	4
415.892	1	7
416.063	1	5
416.233	1	2
416.404	1	4
416.575	1	2
416.745	1	9
416.916	1	3
417.087	1	10
417.257	1	7
417.428	1	-5
417.599	1	0
417.769	1	10
417.940	1	6
418.111	1	6
418.281	1	-6
418.452	1	4
418.623	1	3
418.793	1	7
418.964	1	1
419.135	1	1
419.305	1	1
419.476	1	-13
419.647	1	6
419.817	1	-5
419.988	1	1
420.159	1	10
420.329	1	8
420.500	1	-9
420.671	1	-10
420.841	1	-4
421.012	1	-6
421.183	1	3
421.353	1	6
421.524	1	-5
421.695	1	-6
421.865	1	-3
422.036	1	14
422.206	1	8
422.377	1	13
422.548	1	5
422.718	1	4
422.889	1	-6
423.060	1	1
423.230	1	2
423.401	1	3
423.572	1	0
423.742	1	0
423.913	1	2
424.084	1	19
424.254	1	1
424.425	1	-1
424.595	1	6
424.766	1	2
424.937	1	1
425.107	1	6
425.278	1	2
425.449	1	11
425.619	1	-4
425.790	1	1
425.961	1	-5
426.131	1	11
426.302	1	-5
426.472	1	1
426.643	1	5
426.814	1	-8
426.984	1	-9
427.155	1	13
427.326	1	5
427.496	1	-3
427.667	1	2
427.837	1	7
428.008	1	10
428.179	1	1
428.349	1	-5
428.520	1	-1
428.691	1	2
428.861	1	4
429.032	1	6
429.202	1	-6
429.373	1	7
429.544	1	0
429.714	1	5
429.885	1	2
430.055	1	5
430.226	1	7
430.397	1	-4
430.567	1	1
430.738	1	0
430.909	1	4
431.079	1	-2
431.250	1	7
431.420	1	8
431.591	1	-9
431.762	1	4
431.932	1	-8
432.103	1	2
432.273	1	-3
432.444	1	1
432.615	1	4
432.785	1	3
432.956	1	8
433.126	1	-2
433.297	1	-5
433.468	1	-10
433.638	1	14
433.809	1	-3
433.979	1	-8
434.150	1	-1
434.320	1	5
434.491	1	-1
434.662	1	-6
434.832	1	1
435.003	1	5
435.173	1	5
435.344	1	3
435.515	1	11
435.685	1	3
435.856	1	15
436.026	1	-2
436.197	1	-9
436.368	1	10
436.538	1	8
436.709	1	7
436.879	1	3
437.050	1	-9
437.220	1	-3
437.391	1	-8
437.562	1	14
437.732	1	4
437.903	1	9
438.073	1	-3
438.244	1	6
438.414	1	-12
438.585	1	-4
438.756	1	-3
438.926	1	0
439.097	1	0
439.267	1	5
439.438	1	10
439.608	1	0
439.779	1	9
439.949	1	10
440.120	1	3
440.291	1	2
440.461	1	17
440.632	1	3
440.802	1	7
440.973	1	-7
441.143	1	0
441.314	1	5
441.485	1	-7
441.655	1	10
441.826	1	11
441.996	1	-1
442.167	1	0
442.337	1	8
442.508	1	-10
442.678	1	11
442.849	1	5
443.019	1	6
443.190	1	1
443.361	1	11
443.531	1	-3
443.702	1	5
443.872	1	-3
444.043	1	1
444.213	1	0
444.384	1	5
444.554	1	4
444.725	1	6
444.895	1	-12
445.066	1	12
445.237	1	-4
445.407	1	5
445.578	1	4
445.748	1	2
445.919	1	3
446.089	1	6
446.260	1	2
446.430	1	-7
446.601	1	-4
446.771	1	-8
446.942	1	6
447.112	1	5
447.283	1	4
447.453	1	13
447.624	1	4
447.794	1	4
447.965	1	4
448.135	1	10
448.306	1	-2
448.477	1	12
448.647	1	2
448.818	1	3
448.988	1	4
449.159	1	1
449.329	1	6
449.500	1	4
449.670	1	-14
449.841	1	7
450.011	1	5
450.182	1	8
450.352	1	0
450.523	1	8
450.693	1	-6
450.864	1	11
451.034	1	-8
451.205	1	2
451.375	1	4
451.546	1	-6
451.716	1	10
451.887	1	-6
452.057	1	1
452.228	1	3
452.398	1	-1
452.569	1	8
452.739	1	-1
452.910	1	9
453.080	1	10
453.251	1	4
453.421	1	4
453.592	1	-5
453.762	1	2
453.933	1	-9
454.103	1	-3
454.274	1	3
454.444	1	-4
454.615	1	1
454.785	1	-4
454.956	1	3
455.126	1	11
455.297	1	-15
455.467	1	-15
455.638	1	-2
455.808	1	16
455.979	1	14
456.149	1	-3
456.320	1	-1
456.490	1	0
456.661	1	6
456.831	1	-3
457.001	1	13
457.172	1	4
457.342	1	0
457.513	1	17
457.683	1	9
457.854	1	10
458.024	1	8
458.195	1	0
458.365	1	-6
458.536	1	-5
458.706	1	10
458.877	1	3
459.047	1	4
459.218	1	1
459.388	1	8
459.559	1	-4
459.729	1	4
459.899	1	10
460.070	1	7
460.240	1	2
460.411	1	-1
460.581	1	5
460.752	1	3
460.922	1	-9
461.093	1	4
461.263	1	-3
461.434	1	0
461.604	1	8
461.775	1	7
461.945	1	9
462.115	1	1
462.286	1	-3
462.456	1	-6
462.627	1	1
462.797	1	-6
462.968	1	2
463.138	1	7
463.309	1	15
463.479	1	0
463.649	1	6
463.820	1	11
463.990	1	1
464.161	1	4
464.331	1	5
464.502	1	0
464.672	1	3
464.843	1	-4
465.013	1	16
465.183	1	10
465.354	1	6
465.524	1	7
465.695	1	4
465.865	1	10
466.036	1	-4
466.206	1	3
466.376	1	-6
466.547	1	5
466.717	1	1
466.888	1	-2
467.058	1	5
467.229	1	3
467.399	1	10
467.569	1	12
467.740	1	-2
467.910	1	1
468.081	1	-8
468.251	1	4
468.422	1	2
468.592	1	8
468.762	1	4
468.933	1	7
469.103	1	13
469.274	1	7
469.444	1	-6
469.614	1	2
469.785	1	-4
469.955	1	4
470.126	1	9
470.296	1	0
470.467	1	8
470.637	1	-5
470.807	1	5
470.978	1	0
471.148	1	4
471.319	1	7
471.489	1	-3
471.659	1	-11
471.830	1	-3
472.000	1	-2
472.171	1	7
472.341	1	12
472.511	1	0
472.682	1	-6
472.852	1	-1
473.023	1	6
473.193	1	12
473.363	1	-5
473.534	1	5
473.704	1	5
473.875	1	-2
474.045	1	10
474.215	1	10
474.386	1	2
474.556	1	4
474.727	1	2
474.897	1	10
475.067	1	4
475.238	1	2
475.408	1	-5
475.578	1	-1
475.749	1	2
475.919	1	4
476.090	1	7
476.260	1	12
476.430	1	-6
476.601	1	-2
476.771	1	16
476.942	1	-5
477.112	1	-1
477.282	1	6
477.453	1	-1
477.623	1	8
477.793	1	8
477.964	1	4
478.134	1	9
478.305	1	-6
478.475	1	12
478.645	1	4
478.816	1	-2
478.986	1	4
479.156	1	5
479.327	1	0
479.497	1	8
479.667	1	1
479.838	1	0
480.008	1	2
480.179	1	-2
480.349	1	14
480.519	1	0
480.690	1	8
480.860	1	-4
481.030	1	1
481.201	1	3
481.371	1	4
481.541	1	11
481.712	1	3
481.882	1	6
482.053	1	-9
482.223	1	4
482.393	1	-6
482.564	1	-4
482.734	1	6
482.904	1	10
483.075	1	3
483.245	1	-5
483.415	1	11
483.586	1	12
483.756	1	6
483.926	1	-2
484.097	1	-9
484.267	1	0
484.437	1	-8
484.608	1	5
484.778	1	-14
484.948	1	-1
485.119	1	9
485.289	1	5
485.459	1	7
485.630	1	2
485.800	1	4
485.970	1	-2
486.141	1	17
486.311	1	4
486.481	1	10
486.652	1	11
486.822	1	7
486.992	1	4
487.163	1	5
487.333	1	-10
487.503	1	11
487.674	1	-1
487.844	1	6
488.014	1	6
488.185	1	7
488.355	1	1
488.525	1	10
488.696	1	0
488.866	1	6
489.036	1	4
489.207	1	10
489.377	1	-1
489.547	1	4
489.718	1	1
489.888	1	9
490.058	1	15
490.228	1	-4
490.399	1	6
490.569	1	12
490.739	1	5
490.910	1	-5
491.080	1	5
491.250	1	6
491.421	1	5
491.591	1	-1
491.761	1	4
491.932	1	0
492.102	1	4
492.272	1	4
492.442	1	8
492.613	1	6
492.783	1	0
492.953	1	-1
493.124	1	2
493.294	1	2
493.464	1	1
493.635	1	7
493.805	1	-1
493.975	1	7
494.145	1	18
494.316	1	5
494.486	1	11
494.656	1	-2
494.827	1	-4
494.997	1	3
495.167	1	12
495.337	1	1
495.508	1	7
495.678	1	9
495.848	1	11
496.019	1	-8
496.189	1	-2
496.359	1	8
496.529	1	4
496.700	1	12
496.870	1	2
497.040	1	4
497.211	1	4
497.381	1	6
497.551	1	2
497.721	1	-2
497.892	1	5
498.062	1	-1
498.232	1	0
498.403	1	14
498.573	1	-8
498.743	1	4
498.913	1	13
499.084	1	4
499.254	1	5
499.424	1	7
499.594	1	6
499.765	1	-6
499.935	1	4
500.105	1	3
500.275	1	12
500.446	1	2
500.616	1	-4
500.786	1	-3
500.956	1	8
501.127	1	12
501.297	1	11
501.467	1	-1
501.638	1	-5
501.808	1	5
501.978	1	-4
502.148	1	15
502.319	1	3
502.489	1	5
502.659	1	11
502.829	1	2
503.000	1	12
503.170	1	17
503.340	1	3
503.510	1	3
503.681	1	12
503.851	1	5
504.021	1	8
504.191	1	-1
504.362	1	10
504.532	1	-14
504.702	1	1
504.872	1	4
505.042	1	12
505.213	1	2
505.383	1	2
505.553	1	3
505.723	1	4
505.894	1	17
506.064	1	0
506.234	1	-2
506.404	1	-2
506.575	1	4
506.745	1	5
506.915	1	8
507.085	1	-3
507.256	1	-2
507.426	1	0
507.596	1	11
507.766	1	10
507.936	1	8
508.107	1	-1
508.277	1	-6
508.447	1	5
508.617	1	4
508.788	1	-5
508.958	1	3
509.128	1	-1
509.298	1	5
509.468	1	7
509.639	1	14
509.809	1	8
509.979	1	6
510.149	1	3
510.319	1	-5
510.490	1	9
510.660	1	6
510.830	1	5
511.000	1	15
511.171	1	12
511.341	1	15
511.511	1	13
511.681	1	3
511.851	1	10
512.022	1	6
512.192	1	11
512.362	1	-1
512.532	1	-1
512.702	1	0
512.873	1	9
513.043	1	13
513.213	1	-3
513.383	1	3
513.553	1	-2
513.724	1	1
513.894	1	-1
514.064	1	12
514.234	1	0
514.404	1	0
514.575	1	0
514.745	1	6
514.915	1	-2
515.085	1	2
515.255	1	-5
515.425	1	8
515.596	1	-1
515.766	1	4
515.936	1	6
516.106	1	9
516.276	1	14
516.447	1	3
516.617	1	13
516.787	1	11
516.957	1	-10
517.127	1	11
517.297	1	5
517.468	1	9
517.638	1	3
517.808	1	6
517.978	1	5
518.148	1	12
518.319	1	13
518.489	1	9
518.659	1	12
518.829	1	0
518.999	1	20
519.169	1	6
519.340	1	7
519.510	1	1
519.680	1	5
519.850	1	5
520.020	1	2
520.190	1	8
520.361	1	5
520.531	1	3
520.701	1	15
520.871	1	3
521.041	1	13
521.211	1	8
521.382	1	9
521.552	1	2
521.722	1	7
521.892	1	0
522.062	1	4
522.232	1	-1
522.402	1	-4
522.573	1	2
522.743	1	6
522.913	1	11
523.083	1	3
523.253	1	15
523.423	1	10
523.593	1	-4
523.764	1	10
523.934	1	15
524.104	1	8
524.274	1	5
524.444	1	0
524.614	1	13
524.784	1	21
524.955	1	-1
525.125	1	16
525.295	1	12
525.465	1	9
525.635	1	13
525.805	1	-1
525.975	1	3
526.146	1	6
526.316	1	15
526.486	1	11
526.656	1	15
526.826	1	11
526.996	1	4
527.166	1	6
527.337	1	4
527.507	1	3
527.677	1	6
527.847	1	5
528.017	1	2
528.187	1	3
528.357	1	-5
528.527	1	5
528.698	1	-5
528.868	1	5
529.038	1	3
529.208	1	9
529.378	1	9
529.548	1	10
529.718	1	8
529.888	1	9
530.058	1	12
530.229	1	13
530.399	1	15
530.569	1	4
530.739	1	15
530.909	1	11
531.079	1	10
531.249	1	0
531.419	1	14
531.589	1	-2
531.760	1	10
531.930	1	10
532.100	1	6
532.270	1	4
532.440	1	2
532.610	1	8
532.780	1	2
532.950	1	-1
533.120	1	13
533.290	1	7
533.461	1	6
533.631	1	2
533.801	1	8
533.971	1	7
534.141	1	4
534.311	1	-1
534.481	1	15
534.651	1	4
534.821	1	18
534.991	1	-2
535.162	1	12
535.332	1	15
535.502	1	4
535.672	1	4
535.842	1	3
536.012	1	1
536.182	1	13
536.352	1	-3
536.522	1	9
536.692	1	8
536.862	1	14
537.032	1	0
537.203	1	12
537.373	1	-3
537.543	1	-1
537.713	1	11
537.883	1	5
538.053	1	14
538.223	1	4
538.393	1	18
538.563	1	0
538.733	1	14
538.903	1	-3
539.073	1	5
539.243	1	1
539.413	1	4
539.584	1	11
539.754	1	1
539.924	1	3
540.094	1	7
540.264	1	7
540.434	1	8
540.604	1	3
540.774	1	4
540.944	1	-9
541.114	1	9
541.284	1	8
541.454	1	4
541.624	1	2
541.794	1	6
541.964	1	7
542.134	1	1
542.305	1	15
542.475	1	7
542.645	1	-1
542.815	1	14
542.985	1	5
543.155	1	2
543.325	1	14
543.495	1	5
543.665	1	5
543.835	1	-5
544.005	1	17
544.175	1	2
544.345	1	3
544.515	1	2
544.685	1	6
544.855	1	0
545.025	1	0
545.195	1	7
545.365	1	12
545.535	1	2
545.705	1	2
545.875	1	3
546.045	1	2
546.216	1	5
546.386	1	1
546.556	1	10
546.726	1	4
546.896	1	12
547.066	1	10
547.236	1	15
547.406	1	2
547.576	1	-3
547.746	1	1
547.916	1	1
548.086	1	6
548.256	1	11
548.426	1	10
548.596	1	2
548.766	1	1
548.936	1	3
549.106	1	13
549.276	1	3
549.446	1	6
549.616	1	16
549.786	1	2
549.956	1	3
550.126	1	10
550.296	1	8
550.466	1	0
550.636	1	-2
550.806	1	2
550.976	1	5
551.146	1	11
551.316	1	10
551.486	1	1
551.656	1	10
551.826	1	8
551.996	1	5
552.166	1	6
552.336	1	16
552.506	1	11
552.676	1	2
552.846	1	4
553.016	1	9
553.186	1	0
553.356	1	4
553.526	1	-2
553.696	1	14
553.866	1	3
554.036	1	2
554.206	1	5
554.376	1	8
554.546	1	-2
554.716	1	13
554.886	1	-4
555.056	1	-4
555.226	1	2
555.396	1	4
555.566	1	7
555.736	1	3
555.906	1	-8
556.076	1	7
556.246	1	8
556.416	1	3
556.586	1	-6
556.756	1	2
556.926	1	5
557.096	1	4
557.266	1	6
557.436	1	-15
557.606	1	3
557.776	1	-4
557.946	1	10
558.116	1	-1
558.286	1	7
558.456	1	1
558.626	1	17
558.796	1	-4
558.966	1	9
559.136	1	15
559.306	1	5
559.476	1	2
559.646	1	-3
559.816	1	5
559.986	1	6
560.155	1	-8
560.325	1	2
560.495	1	2
560.665	1	12
560.835	1	4
561.005	1	6
561.175	1	-4
561.345	1	-11
561.515	1	13
561.685	1	0
561.855	1	-3
562.025	1	-4
562.195	1	10
562.365	1	3
562.535	1	-6
562.705	1	11
562.875	1	7
563.045	1	11
563.215	1	-10
563.385	1	16
563.555	1	5
563.725	1	4
563.895	1	8
564.064	1	1
564.234	1	6
564.404	1	11
564.574	1	-8
564.744	1	-4
564.914	1	15
565.084	1	8
565.254	1	7
565.424	1	7
565.594	1	14
565.764	1	5
565.934	1	9
566.104	1	-2
566.274	1	1
566.444	1	6
566.614	1	2
566.783	1	6
566.953	1	7
567.123	1	3
567.293	1	3
567.463	1	-10
567.633	1	0
567.803	1	7
567.973	1	-7
568.143	1	4
568.313	1	-6
568.483	1	13
568.653	1	4
568.823	1	2
568.993	1	1
569.162	1	4
569.332	1	10
569.502	1	-2
569.672	1	1
569.842	1	-4
570.012	1	10
570.182	1	-2
570.352	1	-4
570.522	1	2
570.692	1	9
570.862	1	7
571.031	1	6
571.201	1	13
571.371	1	5
571.541	1	6
571.711	1	-2
571.881	1	6
572.051	1	-1
572.221	1	4
572.391	1	12
572.561	1	2
572.731	1	3
572.900	1	-8
573.070	1	-1
573.240	1	0
573.410	1	15
573.580	1	1
573.750	1	7
573.920	1	21
574.090	1	-1
574.260	1	6
574.430	1	10
574.599	1	-6
574.769	1	-4
574.939	1	-4
575.109	1	1
575.279	1	9
575.449	1	0
575.619	1	1
575.789	1	4
575.959	1	-2
576.128	1	1
576.298	1	11
576.468	1	1
576.638	1	9
576.808	1	-2
576.978	1	0
577.148	1	4
577.318	1	9
577.487	1	8
577.657	1	10
577.827	1	-6
577.997	1	0
578.167	1	3
578.337	1	5
578.507	1	15
578.677	1	7
578.846	1	3
579.016	1	6
579.186	1	-11
579.356	1	3
579.526	1	-5
579.696	1	5
579.866	1	-2
580.036	1	10
580.205	1	-11
580.375	1	14
580.545	1	-19
580.715	1	0
580.885	1	-1
581.055	1	5
581.225	1	3
581.394	1	7
581.564	1	-9
581.734	1	14
581.904	1	-6
582.074	1	10
582.244	1	-5
582.414	1	-3
582.583	1	1
582.753	1	3
582.923	1	10
583.093	1	12
583.263	1	10
583.433	1	15
583.603	1	-4
583.772	1	-1
583.942	1	3
584.112	1	-2
584.282	1	-11
584.452	1	-1
584.622	1	13
584.791	1	0
584.961	1	-1
585.131	1	10
585.301	1	9
585.471	1	10
585.641	1	4
585.811	1	-8
585.980	1	6
586.150	1	2
586.320	1	7
586.490	1	3
586.660	1	0
586.830	1	-8
586.999	1	5
587.169	1	20
587.339	1	-3
587.509	1	-4
587.679	1	0
587.849	1	7
588.018	1	5
588.188	1	2
588.358	1	14
588.528	1	3
588.698	1	-7
588.867	1	11
589.037	1	-1
589.207	1	6
589.377	1	6
589.547	1	5
589.717	1	6
589.886	1	-4
590.056	1	-1
590.226	1	5
590.396	1	4
590.566	1	6
590.735	1	1
590.905	1	7
591.075	1	0
591.245	1	0
591.415	1	5
591.585	1	5
591.754	1	3
591.924	1	-11
592.094	1	9
592.264	1	0
592.434	1	2
592.603	1	-4
592.773	1	6
592.943	1	3
593.113	1	3
593.283	1	11
593.452	1	7
593.622	1	-7
593.792	1	-3
593.962	1	8
594.132	1	14
594.301	1	11
594.471	1	5
594.641	1	5
594.811	1	-9
594.981	1	17
595.150	1	3
595.320	1	2
595.490	1	3
595.660	1	2
595.829	1	12
595.999	1	1
596.169	1	-1
596.339	1	12
596.509	1	4
596.678	1	-6
596.848	1	1
597.018	1	1
597.188	1	-2
597.358	1	-9
597.527	1	-3
597.697	1	6
597.867	1	14
598.037	1	2
598.206	1	4
598.376	1	-2
598.546	1	-4
598.716	1	6
598.885	1	3
599.055	1	11
599.225	1	2
599.395	1	-4
599.565	1	10
599.734	1	14
599.904	1	4
600.074	1	2
600.244	1	6
600.413	1	0
600.583	1	0
600.753	1	6
600.923	1	-4
601.092	1	-3
601.262	1	-1
601.432	1	-2
601.602	1	7
601.771	1	7
601.941	1	4
602.111	1	3
602.281	1	-6
602.451	1	9
602.620	1	5
602.790	1	6
602.960	1	-9
603.130	1	0
603.299	1	9
603.469	1	0
603.639	1	-2
603.809	1	4
603.978	1	13
604.148	1	6
604.318	1	3
604.487	1	10
604.657	1	9
604.827	1	-4
604.997	1	-3
605.166	1	11
605.336	1	2
605.506	1	1
605.676	1	0
605.845	1	7
606.015	1	1
606.185	1	7
606.355	1	6
606.524	1	-4
606.694	1	-2
606.864	1	-1
607.034	1	1
607.203	1	0
607.373	1	9
607.543	1	9
607.712	1	-12
607.882	1	0
608.052	1	8
608.222	1	3
608.391	1	3
608.561	1	6
608.731	1	3
608.901	1	6
609.070	1	-3
609.240	1	-6
609.410	1	-1
609.579	1	-1
609.749	1	9
609.919	1	-1
610.089	1	6
610.258	1	10
610.428	1	3
610.598	1	3
610.767	1	6
610.937	1	2
611.107	1	-7
611.277	1	0
611.446	1	-4
611.616	1	-4
611.786	1	-2
611.955	1	9
612.125	1	6
612.295	1	2
612.465	1	-9
612.634	1	-4
612.804	1	4
612.974	1	8
613.143	1	1
613.313	1	2
613.483	1	0
613.652	1	6
613.822	1	7
613.992	1	3
614.162	1	2
614.331	1	1
614.501	1	3
614.671	1	7
614.840	1	2
615.010	1	4
615.180	1	10
615.349	1	8
615.519	1	1
615.689	1	8
615.858	1	0
616.028	1	-9
616.198	1	-8
616.368	1	4
616.537	1	-8
616.707	1	3
616.877	1	7
617.046	1	-2
617.216	1	15
617.386	1	2
617.555	1	3
617.725	1	-1
617.895	1	-3
618.064	1	2
618.234	1	-2
618.404	1	4
618.573	1	-5
618.743	1	8
618.913	1	10
619.082	1	8
619.252	1	7
619.422	1	-7
619.591	1	2
619.761	1	-7
619.931	1	2
620.100	1	-7
620.270	1	4
620.440	1	5
620.609	1	14
620.779	1	4
620.949	1	4
621.118	1	0
621.288	1	12
621.458	1	3
621.627	1	7
621.797	1	2
621.967	1	2
622.136	1	0
622.306	1	9
622.476	1	-5
622.645	1	-2
622.815	1	7
622.985	1	5
623.154	1	5
623.324	1	-6
623.494	1	-6
623.663	1	11
623.833	1	4
624.002	1	14
624.172	1	1
624.342	1	12
624.511	1	1
624.681	1	-3
624.851	1	1
625.020	1	3
625.190	1	5
625.360	1	9
625.529	1	5
625.699	1	1
625.869	1	7
626.038	1	3
626.208	1	7
626.377	1	5
626.547	1	2
626.717	1	4
626.886	1	5
627.056	1	-1
627.226	1	2
627.395	1	-3
627.565	1	12
627.735	1	-3
627.904	1	-4
628.074	1	-1
628.243	1	-2
628.413	1	5
628.583	1	-2
628.752	1	-2
628.922	1	-3
629.091	1	-4
629.261	1	-3
629.431	1	4
629.600	1	4
629.770	1	3
629.940	1	-3
630.109	1	-3
630.279	1	5
630.448	1	11
630.618	1	2
630.788	1	8
630.957	1	8
631.127	1	1
631.297	1	-5
631.466	1	6
631.636	1	0
631.805	1	16
631.975	1	-8
632.145	1	10
632.314	1	5
632.484	1	-1
632.653	1	2
632.823	1	-1
632.993	1	1
633.162	1	10
633.332	1	8
633.501	1	5
633.671	1	1
633.841	1	-4
634.010	1	2
634.180	1	5
634.349	1	-5
634.519	1	11
634.689	1	2
634.858	1	6
635.028	1	-5
635.197	1	9
635.367	1	-4
635.537	1	-12
635.706	1	-2
635.876	1	-6
636.045	1	9
636.215	1	-3
636.384	1	-9
636.554	1	-2
636.724	1	10
636.893	1	5
637.063	1	6
637.232	1	10
637.402	1	9
637.572	1	1
637.741	1	-4
637.911	1	-1
638.080	1	10
638.250	1	15
638.419	1	-6
638.589	1	9
638.759	1	2
638.928	1	3
639.098	1	1
639.267	1	4
639.437	1	-12
639.606	1	-6
639.776	1	4
639.946	1	2
640.115	1	6
640.285	1	1
640.454	1	6
640.624	1	-4
640.793	1	-1
640.963	1	-2
641.132	1	1
641.302	1	-8
641.472	1	-2
641.641	1	10
641.811	1	9
641.980	1	-7
642.150	1	1
642.319	1	-1
642.489	1	7
642.659	1	-5
642.828	1	-1
642.998	1	9
643.167	1	0
643.337	1	-3
643.506	1	7
643.676	1	5
643.845	1	2
644.015	1	3
644.184	1	10
644.354	1	7
644.524	1	-2
644.693	1	-2
644.863	1	-13
645.032	1	-4
645.202	1	14
645.371	1	-2
645.541	1	8
645.710	1	-2
645.880	1	6
646.049	1	16
646.219	1	4
646.388	1	1
646.558	1	5
646.728	1	7
646.897	1	16
647.067	1	10
647.236	1	4
647.406	1	14
647.575	1	-5
647.745	1	6
647.914	1	3
648.084	1	-1
648.253	1	-3
648.423	1	17
648.592	1	3
648.762	1	9
648.931	1	-1
649.101	1	-1
649.270	1	3
649.440	1	0
649.610	1	4
649.779	1	-2
649.949	1	-10
650.118	1	2
650.288	1	3
650.457	1	-1
650.627	1	-6
650.796	1	12
650.966	1	8
651.135	1	2
651.305	1	-1
651.474	1	12
651.644	1	12
651.813	1	6
651.983	1	-3
652.152	1	-3
652.322	1	2
652.491	1	5
652.661	1	2
652.830	1	-2
653.000	1	-8
653.169	1	6
653.339	1	-3
653.508	1	9
653.678	1	7
653.847	1	7
654.017	1	14
654.186	1	5
654.356	1	0
654.525	1	0
654.695	1	7
654.864	1	6
655.034	1	1
655.203	1	8
655.373	1	3
655.542	1	-3
655.712	1	-1
655.881	1	4
656.051	1	0
656.220	1	6
656.390	1	-3
656.559	1	3
656.729	1	6
656.898	1	4
657.068	1	11
657.237	1	11
657.406	1	3
657.576	1	9
657.745	1	13
657.915	1	6
658.084	1	-11
658.254	1	13
658.423	1	-3
658.593	1	-1
658.762	1	-1
658.932	1	1
659.101	1	6
659.271	1	-1
659.440	1	2
659.610	1	12
659.779	1	-2
659.949	1	3
660.118	1	1
660.288	1	5
660.457	1	7
660.626	1	0
660.796	1	-1
660.965	1	14
661.135	1	-14
661.304	1	4
661.474	1	8
661.643	1	6
661.813	1	8
661.982	1	14
662.152	1	9
662.321	1	-5
662.491	1	-9
662.660	1	-9
662.829	1	-6
662.999	1	8
663.168	1	0
663.338	1	11
663.507	1	4
663.677	1	6
663.846	1	-2
664.016	1	0
664.185	1	9
664.354	1	0
664.524	1	6
664.693	1	-1
664.863	1	-4
665.032	1	4
665.202	1	9
665.371	1	1
665.541	1	-1
665.710	1	7
665.879	1	10
666.049	1	0
666.218	1	12
666.388	1	3
666.557	1	2
666.727	1	10
666.896	1	1
667.065	1	2
667.235	1	-8
667.404	1	8
667.574	1	-8
667.743	1	-8
667.913	1	4
668.082	1	9
668.251	1	12
668.421	1	5
668.590	1	2
668.760	1	1
668.929	1	4
669.099	1	2
669.268	1	-4
669.437	1	0
669.607	1	5
669.776	1	0
669.946	1	4
670.115	1	7
670.285	1	15
670.454	1	3
670.623	1	-1
670.793	1	14
670.962	1	3
671.132	1	-2
671.301	1	5
671.470	1	7
671.640	1	10
671.809	1	-1
671.979	1	1
672.148	1	-5
672.317	1	1
672.487	1	-6
672.656	1	4
672.826	1	-1
672.995	1	-9
673.164	1	5
673.334	1	4
673.503	1	6
673.673	1	2
673.842	1	2
674.011	1	6
674.181	1	-1
674.350	1	4
674.520	1	4
674.689	1	7
674.858	1	-5
675.028	1	3
675.197	1	6
675.367	1	1
675.536	1	2
675.705	1	2
675.875	1	1
676.044	1	8
676.214	1	-9
676.383	1	-5
676.552	1	6
676.722	1	15
676.891	1	4
677.060	1	0
677.230	1	10
677.399	1	5
677.569	1	-3
677.738	1	4
677.907	1	-8
678.077	1	14
678.246	1	-13
678.416	1	-10
678.585	1	8
678.754	1	2
678.924	1	8
679.093	1	4
679.262	1	-1
679.432	1	2
679.601	1	2
679.771	1	2
679.940	1	9
680.109	1	1
680.279	1	4
680.448	1	9
680.617	1	1
680.787	1	-3
680.956	1	-10
681.125	1	5
681.295	1	4
681.464	1	3
681.634	1	1
681.803	1	11
681.972	1	-12
682.142	1	7
682.311	1	5
682.480	1	3
682.650	1	5
682.819	1	12
682.988	1	2
683.158	1	-6
683.327	1	10
683.496	1	5
683.666	1	8
683.835	1	-3
684.004	1	0
684.174	1	3
684.343	1	6
684.512	1	0
684.682	1	-2
684.851	1	1
685.021	1	-12
685.190	1	-3
685.359	1	3
685.529	1	20
685.698	1	-3
685.867	1	9
686.037	1	-1
686.206	1	10
686.375	1	3
686.545	1	-1
686.714	1	3
686.883	1	3
687.053	1	-3
687.222	1	3
687.391	1	6
687.561	1	7
687.730	1	10
687.899	1	-6
688.069	1	1
688.238	1	-6
688.407	1	-10
688.577	1	16
688.746	1	8
