340.368	1	10
340.539	1	3
340.710	1	-10
340.881	1	1
341.052	1	3
341.223	1	-8
341.394	1	2
341.565	1	6
341.737	1	-1
341.908	1	3
342.079	1	-3
342.250	1	10
342.421	1	6
342.592	1	-1
342.763	1	5
342.934	1	-5
343.105	1	13
343.276	1	0
343.447	1	-6
343.618	1	14
343.789	1	3
343.960	1	-1
344.131	1	5
344.302	1	-1
344.473	1	1
344.644	1	1
344.815	1	11
344.986	1	1
345.157	1	6
345.328	1	6
345.499	1	-7
345.670	1	8
345.841	1	-2
346.012	1	10
346.183	1	5
346.354	1	-8
346.526	1	3
346.697	1	10
346.868	1	0
347.039	1	-3
347.210	1	-2
347.381	1	2
347.552	1	10
347.723	1	9
347.894	1	1
348.065	1	-13
348.236	1	-2
348.407	1	6
348.578	1	8
348.749	1	13
348.920	1	-4
349.091	1	9
349.262	1	3
349.433	1	7
349.604	1	3
349.775	1	7
349.946	1	7
350.117	1	1
350.288	1	7
350.459	1	8
350.630	1	15
350.801	1	4
350.972	1	2
351.143	1	5
351.314	1	2
351.485	1	9
351.656	1	0
351.827	1	9
351.998	1	5
352.169	1	6
352.340	1	7
352.511	1	9
352.682	1	0
352.853	1	7
353.024	1	0
353.195	1	7
353.366	1	4
353.537	1	1
353.708	1	11
353.879	1	6
354.050	1	-5
354.221	1	9
354.392	1	0
354.563	1	2
354.734	1	10
354.905	1	12
355.076	1	3
355.247	1	-3
355.418	1	6
355.589	1	8
355.760	1	7
355.931	1	12
356.102	1	10
356.273	1	0
356.444	1	4
356.615	1	-7
356.785	1	8
356.956	1	13
357.127	1	9
357.298	1	6
357.469	1	12
357.640	1	11
357.811	1	22
357.982	1	1
358.153	1	14
358.324	1	12
358.495	1	11
358.666	1	16
358.837	1	9
359.008	1	4
359.179	1	3
359.350	1	17
359.521	1	15
359.692	1	16
359.863	1	17
360.034	1	20
360.205	1	22
360.376	1	10
360.547	1	30
360.718	1	13
360.889	1	23
361.060	1	6
361.231	1	18
361.401	1	9
361.572	1	20
361.743	1	16
361.914	1	17
362.085	1	20
362.256	1	18
362.427	1	20
362.598	1	18
362.769	1	14
362.940	1	27
363.111	1	33
363.282	1	34
363.453	1	22
363.624	1	37
363.795	1	34
363.966	1	37
364.137	1	37
364.308	1	47
364.478	1	37
364.649	1	25
364.820	1	38
364.991	1	42
365.162	1	52
365.333	1	34
365.504	1	51
365.675	1	52
365.846	1	40
366.017	1	52
366.188	1	47
366.359	1	55
366.530	1	56
366.701	1	57
366.871	1	67
367.042	1	55
367.213	1	59
367.384	1	61
367.555	1	60
367.726	1	77
367.897	1	56
368.068	1	64
368.239	1	61
368.410	1	68
368.581	1	68
368.752	1	63
368.923	1	69
369.093	1	57
369.264	1	62
369.435	1	62
369.606	1	55
369.777	1	56
369.948	1	63
370.119	1	59
370.290	1	57
370.461	1	58
370.632	1	55
370.803	1	51
370.973	1	62
371.144	1	55
371.315	1	50
371.486	1	39
371.657	1	45
371.828	1	51
371.999	1	51
372.170	1	49
372.341	1	60
372.512	1	47
372.682	1	42
372.853	1	51
373.024	1	37
373.195	1	48
373.366	1	42
373.537	1	53
373.708	1	33
373.879	1	45
374.050	1	45
374.220	1	44
374.391	1	34
374.562	1	41
374.733	1	33
374.904	1	28
375.075	1	46
375.246	1	33
375.417	1	30
375.588	1	27
375.758	1	40
375.929	1	33
376.100	1	29
376.271	1	38
376.442	1	39
376.613	1	34
376.784	1	19
376.955	1	24
377.125	1	40
377.296	1	33
377.467	1	22
377.638	1	36
377.809	1	38
377.980	1	16
378.151	1	24
378.321	1	20
378.492	1	14
378.663	1	13
378.834	1	26
379.005	1	14
379.176	1	9
379.347	1	15
379.518	1	20
379.688	1	18
379.859	1	13
380.030	1	14
380.201	1	15
380.372	1	14
380.543	1	17
380.714	1	23
380.884	1	17
381.055	1	11
381.226	1	22
381.397	1	26
381.568	1	21
381.739	1	12
381.910	1	19
382.080	1	10
382.251	1	18
382.422	1	14
382.593	1	21
382.764	1	12
382.935	1	16
383.105	1	11
383.276	1	32
383.447	1	13
383.618	1	19
383.789	1	22
383.960	1	21
384.130	1	8
384.301	1	16
384.472	1	3
384.643	1	9
384.814	1	21
384.985	1	8
385.156	1	12
385.326	1	11
385.497	1	20
385.668	1	12
385.839	1	-2
386.010	1	17
386.180	1	14
386.351	1	12
386.522	1	16
386.693	1	5
386.864	1	15
387.035	1	17
387.205	1	11
387.376	1	7
387.547	1	10
387.718	1	5
387.889	1	16
388.060	1	6
388.230	1	-1
388.401	1	7
388.572	1	11
388.743	1	16
388.914	1	13
389.084	1	7
389.255	1	14
389.426	1	7
389.597	1	5
389.768	1	5
389.939	1	5
390.109	1	12
390.280	1	7
390.451	1	3
390.622	1	5
390.793	1	8
390.963	1	9
391.134	1	3
391.305	1	7
391.476	1	10
391.647	1	-6
391.817	1	-5
391.988	1	9
392.159	1	9
392.330	1	19
392.501	1	5
392.671	1	11
392.842	1	-7
393.013	1	1
393.184	1	5
393.355	1	9
393.525	1	7
393.696	1	11
393.867	1	9
394.038	1	4
394.208	1	13
394.379	1	-2
394.550	1	7
394.721	1	0
394.892	1	12
395.062	1	2
395.233	1	7
395.404	1	12
395.575	1	9
395.746	1	16
395.916	1	-2
396.087	1	10
396.258	1	-3
396.429	1	4
396.599	1	5
396.770	1	15
396.941	1	7
397.112	1	1
397.283	1	-3
397.453	1	13
397.624	1	13
397.795	1	3
397.966	1	-1
398.136	1	6
398.307	1	1
398.478	1	-1
398.649	1	11
398.819	1	18
398.990	1	-11
399.161	1	4
399.332	1	-6
399.503	1	10
399.673	1	4
399.844	1	-1
400.015	1	16
400.186	1	0
400.356	1	0
400.527	1	9
400.698	1	5
400.869	1	-5
401.039	1	4
401.210	1	-1
401.381	1	21
401.552	1	3
401.722	1	5
401.893	1	9
402.064	1	1
402.235	1	7
402.405	1	-1
402.576	1	3
402.747	1	-1
402.918	1	-2
403.088	1	11
403.259	1	8
403.430	1	8
403.601	1	12
403.771	1	1
403.942	1	4
404.113	1	9
404.284	1	-8
404.454	1	-9
404.625	1	0
404.796	1	8
404.967	1	4
405.137	1	9
405.308	1	7
405.479	1	9
405.649	1	1
405.820	1	8
405.991	1	6
406.162	1	8
406.332	1	-6
406.503	1	6
406.674	1	8
406.845	1	5
407.015	1	4
407.186	1	6
407.357	1	4
407.527	1	4
407.698	1	-1
407.869	1	0
408.040	1	7
408.210	1	4
408.381	1	12
408.552	1	-2
408.722	1	0
408.893	1	5
409.064	1	4
409.235	1	4
409.405	1	9
409.576	1	4
409.747	1	3
409.917	1	5
410.088	1	6
410.259	1	3
410.430	1	4
410.600	1	11
410.771	1	9
410.942	1	0
411.112	1	11
411.283	1	1
411.454	1	4
411.625	1	-7
411.795	1	17
411.966	1	7
412.137	1	-10
412.307	1	5
412.478	1	5
412.649	1	4
412.819	1	-2
412.990	1	-2
413.161	1	1
413.332	1	-9
413.502	1	0
413.673	1	3
413.844	1	15
414.014	1	1
414.185	1	7
414.356	1	7
414.526	1	7
414.697	1	10
414.868	1	-4
415.038	1	-6
415.209	1	-13
415.380	1	9
415.550	1	-2
415.721	1	2
415.892	1	5
416.063	1	8
416.233	1	5
416.404	1	2
416.575	1	0
416.745	1	5
416.916	1	4
417.087	1	12
417.257	1	4
417.428	1	4
417.599	1	1
417.769	1	15
417.940	1	7
418.111	1	11
418.281	1	-4
418.452	1	5
418.623	1	5
418.793	1	3
418.964	1	0
419.135	1	5
419.305	1	-2
419.476	1	8
419.647	1	7
419.817	1	-7
419.988	1	8
420.159	1	9
420.329	1	5
420.500	1	-1
420.671	1	-3
420.841	1	8
421.012	1	-4
421.183	1	1
421.353	1	-3
421.524	1	8
421.695	1	-10
421.865	1	0
422.036	1	6
422.206	1	7
422.377	1	-1
422.548	1	4
422.718	1	9
422.889	1	6
423.060	1	-5
423.230	1	12
423.401	1	3
423.572	1	2
423.742	1	-2
423.913	1	5
424.084	1	9
424.254	1	3
424.425	1	-10
424.595	1	3
424.766	1	4
424.937	1	1
425.107	1	-3
425.278	1	0
425.449	1	-3
425.619	1	-1
425.790	1	-3
425.961	1	-6
426.131	1	6
426.302	1	-4
426.472	1	3
426.643	1	7
426.814	1	-6
426.984	1	3
427.155	1	6
427.326	1	10
427.496	1	5
427.667	1	2
427.837	1	-1
428.008	1	6
428.179	1	4
428.349	1	1
428.520	1	4
428.691	1	2
428.861	1	6
429.032	1	2
429.202	1	1
429.373	1	6
429.544	1	3
429.714	1	1
429.885	1	-3
430.055	1	-1
430.226	1	3
430.397	1	3
430.567	1	10
430.738	1	-1
430.909	1	-5
431.079	1	-8
431.250	1	11
431.420	1	-4
431.591	1	5
431.762	1	7
431.932	1	-1
432.103	1	5
432.273	1	1
432.444	1	3
432.615	1	7
432.785	1	-4
432.956	1	6
433.126	1	3
433.297	1	3
433.468	1	-5
433.638	1	8
433.809	1	6
433.979	1	7
434.150	1	4
434.320	1	4
434.491	1	0
434.662	1	-13
434.832	1	10
435.003	1	8
435.173	1	7
435.344	1	-1
435.515	1	-1
435.685	1	1
435.856	1	16
436.026	1	5
436.197	1	-5
436.368	1	5
436.538	1	7
436.709	1	2
436.879	1	5
437.050	1	-9
437.220	1	8
437.391	1	-7
437.562	1	4
437.732	1	-1
437.903	1	11
438.073	1	-2
438.244	1	9
438.414	1	-12
438.585	1	3
438.756	1	-9
438.926	1	8
439.097	1	2
439.267	1	6
439.438	1	9
439.608	1	-1
439.779	1	10
439.949	1	8
440.120	1	-7
440.291	1	10
440.461	1	13
440.632	1	-6
440.802	1	6
440.973	1	-3
441.143	1	0
441.314	1	-5
441.485	1	-8
441.655	1	6
441.826	1	0
441.996	1	1
442.167	1	10
442.337	1	-4
442.508	1	-5
442.678	1	6
442.849	1	-7
443.019	1	5
443.190	1	1
443.361	1	16
443.531	1	4
443.702	1	-1
443.872	1	1
444.043	1	2
444.213	1	-6
444.384	1	0
444.554	1	5
444.725	1	2
444.895	1	-7
445.066	1	10
445.237	1	-4
445.407	1	13
445.578	1	11
445.748	1	-2
445.919	1	1
446.089	1	-7
446.260	1	14
446.430	1	2
446.601	1	-3
446.771	1	-11
446.942	1	15
447.112	1	10
447.283	1	4
447.453	1	4
447.624	1	2
447.794	1	5
447.965	1	2
448.135	1	-1
448.306	1	5
448.477	1	13
448.647	1	-2
448.818	1	7
448.988	1	9
449.159	1	-3
449.329	1	15
449.500	1	6
449.670	1	-8
449.841	1	-9
450.011	1	10
450.182	1	17
450.352	1	-5
450.523	1	15
450.693	1	0
450.864	1	8
451.034	1	1
451.205	1	0
451.375	1	0
451.546	1	-4
451.716	1	-2
451.887	1	-1
452.057	1	-1
452.228	1	2
452.398	1	2
452.569	1	16
452.739	1	-3
452.910	1	9
453.080	1	2
453.251	1	5
453.421	1	2
453.592	1	2
453.762	1	-1
453.933	1	8
454.103	1	-2
454.274	1	8
454.444	1	-6
454.615	1	6
454.785	1	-3
454.956	1	5
455.126	1	6
455.297	1	-4
455.467	1	-6
455.638	1	5
455.808	1	8
455.979	1	12
456.149	1	5
456.320	1	8
456.490	1	0
456.661	1	3
456.831	1	-7
457.001	1	21
457.172	1	2
457.342	1	-1
457.513	1	18
457.683	1	10
457.854	1	8
458.024	1	7
458.195	1	4
458.365	1	4
458.536	1	-8
458.706	1	4
458.877	1	7
459.047	1	-3
459.218	1	-5
459.388	1	12
459.559	1	0
459.729	1	8
459.899	1	8
460.070	1	6
460.240	1	0
460.411	1	2
460.581	1	8
460.752	1	5
460.922	1	2
461.093	1	17
461.263	1	-5
461.434	1	-8
461.604	1	7
461.775	1	0
461.945	1	4
462.115	1	4
462.286	1	-1
462.456	1	-7
462.627	1	6
462.797	1	8
462.968	1	12
463.138	1	1
463.309	1	6
463.479	1	2
463.649	1	-4
463.820	1	0
463.990	1	1
464.161	1	7
464.331	1	1
464.502	1	4
464.672	1	2
464.843	1	0
465.013	1	12
465.183	1	13
465.354	1	-4
465.524	1	3
465.695	1	6
465.865	1	-2
466.036	1	-10
466.206	1	10
466.376	1	11
466.547	1	4
466.717	1	-3
466.888	1	-8
467.058	1	5
467.229	1	8
467.399	1	9
467.569	1	9
467.740	1	-2
467.910	1	-7
468.081	1	1
468.251	1	8
468.422	1	11
468.592	1	0
468.762	1	11
468.933	1	2
469.103	1	4
469.274	1	5
469.444	1	-3
469.614	1	1
469.785	1	-7
469.955	1	-2
470.126	1	5
470.296	1	0
470.467	1	12
470.637	1	-1
470.807	1	8
470.978	1	-3
471.148	1	-8
471.319	1	0
471.489	1	1
471.659	1	-3
471.830	1	-8
472.000	1	-2
472.171	1	6
472.341	1	5
472.511	1	8
472.682	1	2
472.852	1	0
473.023	1	-2
473.193	1	4
473.363	1	3
473.534	1	1
473.704	1	11
473.875	1	1
474.045	1	11
474.215	1	2
474.386	1	-3
474.556	1	7
474.727	1	5
474.897	1	5
475.067	1	4
475.238	1	-10
475.408	1	-3
475.578	1	-2
475.749	1	5
475.919	1	15
476.090	1	6
476.260	1	3
476.430	1	-5
476.601	1	2
476.771	1	10
476.942	1	-3
477.112	1	1
477.282	1	8
477.453	1	12
477.623	1	9
477.793	1	6
477.964	1	3
478.134	1	11
478.305	1	4
478.475	1	5
478.645	1	8
478.816	1	-2
478.986	1	1
479.156	1	6
479.327	1	-7
479.497	1	-2
479.667	1	-6
479.838	1	8
480.008	1	6
480.179	1	-5
480.349	1	3
480.519	1	5
480.690	1	10
480.860	1	-5
481.030	1	1
481.201	1	2
481.371	1	4
481.541	1	10
481.712	1	1
481.882	1	7
482.053	1	-4
482.223	1	1
482.393	1	0
482.564	1	-1
482.734	1	13
482.904	1	7
483.075	1	2
483.245	1	-2
483.415	1	4
483.586	1	6
483.756	1	5
483.926	1	-2
484.097	1	-3
484.267	1	8
484.437	1	6
484.608	1	6
484.778	1	-6
484.948	1	-7
485.119	1	8
485.289	1	10
485.459	1	5
485.630	1	7
485.800	1	-11
485.970	1	7
486.141	1	5
486.311	1	9
486.481	1	7
486.652	1	8
486.822	1	9
486.992	1	-1
487.163	1	3
487.333	1	11
487.503	1	3
487.674	1	-3
487.844	1	1
488.014	1	4
488.185	1	13
488.355	1	-3
488.525	1	16
488.696	1	9
488.866	1	9
489.036	1	8
489.207	1	3
489.377	1	9
489.547	1	9
489.718	1	10
489.888	1	10
490.058	1	12
490.228	1	0
490.399	1	4
490.569	1	0
490.739	1	4
490.910	1	-1
491.080	1	5
491.250	1	4
491.421	1	10
491.591	1	9
491.761	1	2
491.932	1	1
492.102	1	1
492.272	1	7
492.442	1	11
492.613	1	15
492.783	1	2
492.953	1	11
493.124	1	-2
493.294	1	1
493.464	1	4
493.635	1	-1
493.805	1	5
493.975	1	8
494.145	1	19
494.316	1	-3
494.486	1	16
494.656	1	4
494.827	1	3
494.997	1	-3
495.167	1	8
495.337	1	19
495.508	1	4
495.678	1	7
495.848	1	7
496.019	1	-4
496.189	1	1
496.359	1	5
496.529	1	6
496.700	1	17
496.870	1	5
497.040	1	6
497.211	1	11
497.381	1	10
497.551	1	10
497.721	1	-2
497.892	1	11
498.062	1	5
498.232	1	10
498.403	1	6
498.573	1	-2
498.743	1	8
498.913	1	1
499.084	1	5
499.254	1	10
499.424	1	17
499.594	1	3
499.765	1	0
499.935	1	5
500.105	1	-8
500.275	1	14
500.446	1	11
500.616	1	4
500.786	1	7
500.956	1	11
501.127	1	6
501.297	1	8
501.467	1	3
501.638	1	2
501.808	1	9
501.978	1	1
502.148	1	2
502.319	1	14
502.489	1	3
502.659	1	7
502.829	1	8
503.000	1	8
503.170	1	24
503.340	1	8
503.510	1	4
503.681	1	4
503.851	1	6
504.021	1	10
504.191	1	9
504.362	1	3
504.532	1	-1
504.702	1	8
504.872	1	3
505.042	1	10
505.213	1	9
505.383	1	8
505.553	1	3
505.723	1	8
505.894	1	14
506.064	1	5
506.234	1	-2
506.404	1	7
506.575	1	9
506.745	1	20
506.915	1	3
507.085	1	-7
507.256	1	8
507.426	1	8
507.596	1	7
507.766	1	12
507.936	1	13
508.107	1	8
508.277	1	3
508.447	1	10
508.617	1	13
508.788	1	-2
508.958	1	8
509.128	1	5
509.298	1	-5
509.468	1	9
509.639	1	8
509.809	1	13
509.979	1	6
510.149	1	8
510.319	1	4
510.490	1	23
510.660	1	-1
510.830	1	5
511.000	1	1
511.171	1	9
511.341	1	16
511.511	1	14
511.681	1	1
511.851	1	5
512.022	1	18
512.192	1	17
512.362	1	6
512.532	1	10
512.702	1	6
512.873	1	-1
513.043	1	10
513.213	1	3
513.383	1	6
513.553	1	-1
513.724	1	-2
513.894	1	5
514.064	1	16
514.234	1	2
514.404	1	5
514.575	1	1
514.745	1	8
514.915	1	14
515.085	1	15
515.255	1	11
515.425	1	9
515.596	1	3
515.766	1	7
515.936	1	9
516.106	1	16
516.276	1	10
516.447	1	8
516.617	1	12
516.787	1	6
516.957	1	3
517.127	1	8
517.297	1	11
517.468	1	15
517.638	1	0
517.808	1	12
517.978	1	15
518.148	1	10
518.319	1	10
518.489	1	17
518.659	1	3
518.829	1	8
518.999	1	18
519.169	1	3
519.340	1	15
519.510	1	14
519.680	1	2
519.850	1	5
520.020	1	2
520.190	1	10
520.361	1	5
520.531	1	13
520.701	1	17
520.871	1	2
521.041	1	10
521.211	1	15
521.382	1	14
521.552	1	15
521.722	1	15
521.892	1	13
522.062	1	6
522.232	1	6
522.402	1	2
522.573	1	22
522.743	1	19
522.913	1	11
523.083	1	9
523.253	1	22
523.423	1	8
523.593	1	8
523.764	1	18
523.934	1	13
524.104	1	12
524.274	1	4
524.444	1	7
524.614	1	12
524.784	1	8
524.955	1	11
525.125	1	15
525.295	1	0
525.465	1	12
525.635	1	4
525.805	1	12
525.975	1	9
526.146	1	13
526.316	1	24
526.486	1	18
526.656	1	17
526.826	1	13
526.996	1	5
527.166	1	20
527.337	1	0
527.507	1	15
527.677	1	12
527.847	1	9
528.017	1	7
528.187	1	4
528.357	1	-2
528.527	1	3
528.698	1	7
528.868	1	22
529.038	1	2
529.208	1	18
529.378	1	11
529.548	1	11
529.718	1	14
529.888	1	12
530.058	1	19
530.229	1	19
530.399	1	14
530.569	1	11
530.739	1	8
530.909	1	6
531.079	1	16
531.249	1	7
531.419	1	11
531.589	1	16
531.760	1	7
531.930	1	20
532.100	1	12
532.270	1	11
532.440	1	5
532.610	1	15
532.780	1	2
532.950	1	0
533.120	1	9
533.290	1	14
533.461	1	17
533.631	1	3
533.801	1	1
533.971	1	12
534.141	1	9
534.311	1	10
534.481	1	18
534.651	1	13
534.821	1	5
534.991	1	11
535.162	1	14
535.332	1	15
535.502	1	18
535.672	1	12
535.842	1	5
536.012	1	3
536.182	1	8
536.352	1	7
536.522	1	13
536.692	1	12
536.862	1	16
537.032	1	-2
537.203	1	8
537.373	1	8
537.543	1	11
537.713	1	18
537.883	1	22
538.053	1	13
538.223	1	8
538.393	1	17
538.563	1	8
538.733	1	3
538.903	1	11
539.073	1	16
539.243	1	4
539.413	1	11
539.584	1	5
539.754	1	10
539.924	1	1
540.094	1	4
540.264	1	14
540.434	1	9
540.604	1	15
540.774	1	12
540.944	1	12
541.114	1	17
541.284	1	17
541.454	1	8
541.624	1	15
541.794	1	4
541.964	1	15
542.134	1	13
542.305	1	6
542.475	1	10
542.645	1	12
542.815	1	7
542.985	1	12
543.155	1	5
543.325	1	7
543.495	1	-2
543.665	1	12
543.835	1	0
544.005	1	16
544.175	1	9
544.345	1	9
544.515	1	15
544.685	1	15
544.855	1	2
545.025	1	3
545.195	1	8
545.365	1	10
545.535	1	7
545.705	1	7
545.875	1	-1
546.045	1	8
546.216	1	18
546.386	1	8
546.556	1	2
546.726	1	8
546.896	1	7
547.066	1	20
547.236	1	17
547.406	1	6
547.576	1	10
547.746	1	-1
547.916	1	9
548.086	1	10
548.256	1	11
548.426	1	19
548.596	1	-5
548.766	1	4
548.936	1	3
549.106	1	15
549.276	1	10
549.446	1	8
549.616	1	12
549.786	1	1
549.956	1	8
550.126	1	11
550.296	1	18
550.466	1	17
550.636	1	9
550.806	1	0
550.976	1	11
551.146	1	14
551.316	1	12
551.486	1	13
551.656	1	16
551.826	1	20
551.996	1	5
552.166	1	-1
552.336	1	4
552.506	1	13
552.676	1	7
552.846	1	8
553.016	1	6
553.186	1	5
553.356	1	6
553.526	1	3
553.696	1	17
553.866	1	8
554.036	1	17
554.206	1	17
554.376	1	10
554.546	1	5
554.716	1	7
554.886	1	10
555.056	1	7
555.226	1	-1
555.396	1	14
555.566	1	14
555.736	1	9
555.906	1	13
556.076	1	3
556.246	1	12
556.416	1	6
556.586	1	12
556.756	1	1
556.926	1	17
557.096	1	1
557.266	1	11
557.436	1	-6
557.606	1	2
557.776	1	3
557.946	1	8
558.116	1	2
558.286	1	6
558.456	1	2
558.626	1	14
558.796	1	9
558.966	1	5
559.136	1	16
559.306	1	13
559.476	1	-2
559.646	1	8
559.816	1	2
559.986	1	11
560.155	1	5
560.325	1	-3
560.495	1	-2
560.665	1	6
560.835	1	6
561.005	1	23
561.175	1	3
561.345	1	1
561.515	1	13
561.685	1	10
561.855	1	4
562.025	1	-5
562.195	1	2
562.365	1	5
562.535	1	15
562.705	1	15
562.875	1	8
563.045	1	5
563.215	1	3
563.385	1	15
563.555	1	7
563.725	1	-1
563.895	1	6
564.064	1	7
564.234	1	6
564.404	1	13
564.574	1	-1
564.744	1	2
564.914	1	5
565.084	1	13
565.254	1	7
565.424	1	12
565.594	1	10
565.764	1	9
565.934	1	11
566.104	1	2
566.274	1	2
566.444	1	11
566.614	1	-1
566.783	1	9
566.953	1	8
567.123	1	0
567.293	1	9
567.463	1	5
567.633	1	12
567.803	1	7
567.973	1	2
568.143	1	10
568.313	1	6
568.483	1	11
568.653	1	3
568.823	1	7
568.993	1	15
569.162	1	14
569.332	1	13
569.502	1	4
569.672	1	9
569.842	1	-7
570.012	1	7
570.182	1	5
570.352	1	10
570.522	1	4
570.692	1	18
570.862	1	15
571.031	1	-1
571.201	1	9
571.371	1	8
571.541	1	1
571.711	1	2
571.881	1	-1
572.051	1	7
572.221	1	5
572.391	1	16
572.561	1	0
572.731	1	3
572.900	1	0
573.070	1	8
573.240	1	0
573.410	1	13
573.580	1	-1
573.750	1	6
573.920	1	28
574.090	1	6
574.260	1	10
574.430	1	17
574.599	1	-4
574.769	1	-1
574.939	1	2
575.109	1	9
575.279	1	2
575.449	1	8
575.619	1	22
575.789	1	13
575.959	1	-11
576.128	1	6
576.298	1	10
576.468	1	5
576.638	1	13
576.808	1	-2
576.978	1	5
577.148	1	8
577.318	1	4
577.487	1	14
577.657	1	7
577.827	1	4
577.997	1	-2
578.167	1	-1
578.337	1	11
578.507	1	19
578.677	1	14
578.846	1	-1
579.016	1	11
579.186	1	9
579.356	1	-1
579.526	1	-1
579.696	1	-1
579.866	1	11
580.036	1	-2
580.205	1	3
580.375	1	-1
580.545	1	1
580.715	1	5
580.885	1	6
581.055	1	3
581.225	1	-4
581.394	1	10
581.564	1	4
581.734	1	8
581.904	1	-2
582.074	1	5
582.244	1	9
582.414	1	2
582.583	1	13
582.753	1	0
582.923	1	13
583.093	1	6
583.263	1	16
583.433	1	4
583.603	1	3
583.772	1	-2
583.942	1	8
584.112	1	12
584.282	1	-6
584.452	1	-2
584.622	1	7
584.791	1	4
584.961	1	2
585.131	1	12
585.301	1	10
585.471	1	12
585.641	1	2
585.811	1	-13
585.980	1	3
586.150	1	0
586.320	1	4
586.490	1	5
586.660	1	-1
586.830	1	0
586.999	1	-1
587.169	1	16
587.339	1	-7
587.509	1	4
587.679	1	7
587.849	1	4
588.018	1	7
588.188	1	4
588.358	1	19
588.528	1	5
588.698	1	-5
588.867	1	0
589.037	1	-1
589.207	1	5
589.377	1	1
589.547	1	10
589.717	1	11
589.886	1	6
590.056	1	3
590.226	1	9
590.396	1	7
590.566	1	14
590.735	1	10
590.905	1	11
591.075	1	12
591.245	1	0
591.415	1	11
591.585	1	2
591.754	1	9
591.924	1	7
592.094	1	8
592.264	1	-6
592.434	1	2
592.603	1	8
592.773	1	8
592.943	1	8
593.113	1	4
593.283	1	11
593.452	1	2
593.622	1	0
593.792	1	4
593.962	1	8
594.132	1	11
594.301	1	9
594.471	1	8
594.641	1	1
594.811	1	-3
594.981	1	18
595.150	1	-3
595.320	1	12
595.490	1	-2
595.660	1	-4
595.829	1	0
595.999	1	0
596.169	1	8
596.339	1	3
596.509	1	-2
596.678	1	5
596.848	1	6
597.018	1	1
597.188	1	-7
597.358	1	-1
597.527	1	8
597.697	1	2
597.867	1	9
598.037	1	5
598.206	1	9
598.376	1	-2
598.546	1	2
598.716	1	7
598.885	1	11
599.055	1	2
599.225	1	13
599.395	1	1
599.565	1	16
599.734	1	5
599.904	1	6
600.074	1	-3
600.244	1	5
600.413	1	-1
600.583	1	4
600.753	1	14
600.923	1	11
601.092	1	4
601.262	1	0
601.432	1	-1
601.602	1	2
601.771	1	8
601.941	1	8
602.111	1	-1
602.281	1	3
602.451	1	13
602.620	1	4
602.790	1	7
602.960	1	3
603.130	1	4
603.299	1	5
603.469	1	5
603.639	1	6
603.809	1	-1
603.978	1	2
604.148	1	8
604.318	1	-1
604.487	1	13
604.657	1	8
604.827	1	-5
604.997	1	-5
605.166	1	12
605.336	1	-4
605.506	1	5
605.676	1	0
605.845	1	2
606.015	1	3
606.185	1	8
606.355	1	15
606.524	1	3
606.694	1	-5
606.864	1	8
607.034	1	5
607.203	1	4
607.373	1	4
607.543	1	14
607.712	1	-2
607.882	1	-1
608.052	1	0
608.222	1	8
608.391	1	-3
608.561	1	5
608.731	1	4
608.901	1	-2
609.070	1	4
609.240	1	-7
609.410	1	10
609.579	1	3
609.749	1	7
609.919	1	11
610.089	1	3
610.258	1	11
610.428	1	5
610.598	1	6
610.767	1	2
610.937	1	9
611.107	1	-7
611.277	1	5
611.446	1	3
611.616	1	2
611.786	1	2
611.955	1	14
612.125	1	7
612.295	1	9
612.465	1	-12
612.634	1	1
612.804	1	5
612.974	1	12
613.143	1	0
613.313	1	-2
613.483	1	3
613.652	1	16
613.822	1	5
613.992	1	5
614.162	1	7
614.331	1	9
614.501	1	-2
614.671	1	13
614.840	1	5
615.010	1	4
615.180	1	14
615.349	1	12
615.519	1	-1
615.689	1	16
615.858	1	-2
616.028	1	2
616.198	1	-4
616.368	1	-1
616.537	1	4
616.707	1	7
616.877	1	-1
617.046	1	0
617.216	1	11
617.386	1	0
617.555	1	2
617.725	1	8
617.895	1	5
618.064	1	-1
618.234	1	-1
618.404	1	2
618.573	1	-7
618.743	1	1
618.913	1	5
619.082	1	11
619.252	1	7
619.422	1	2
619.591	1	5
619.761	1	0
619.931	1	5
620.100	1	2
620.270	1	12
620.440	1	10
620.609	1	4
620.779	1	3
620.949	1	11
621.118	1	-1
621.288	1	5
621.458	1	-1
621.627	1	14
621.797	1	9
621.967	1	0
622.136	1	-1
622.306	1	1
622.476	1	0
622.645	1	6
622.815	1	0
622.985	1	11
623.154	1	7
623.324	1	-4
623.494	1	4
623.663	1	10
623.833	1	2
624.002	1	4
624.172	1	6
624.342	1	6
624.511	1	2
624.681	1	7
624.851	1	1
625.020	1	5
625.190	1	11
625.360	1	5
625.529	1	7
625.699	1	9
625.869	1	13
626.038	1	11
626.208	1	-1
626.377	1	4
626.547	1	-3
626.717	1	5
626.886	1	7
627.056	1	7
627.226	1	10
627.395	1	-6
627.565	1	9
627.735	1	-7
627.904	1	9
628.074	1	6
628.243	1	6
628.413	1	5
628.583	1	-6
628.752	1	-10
628.922	1	-3
629.091	1	-9
629.261	1	12
629.431	1	7
629.600	1	5
629.770	1	5
629.940	1	-1
630.109	1	-5
630.279	1	1
630.448	1	4
630.618	1	0
630.788	1	9
630.957	1	8
631.127	1	-7
631.297	1	-2
631.466	1	6
631.636	1	15
631.805	1	14
631.975	1	2
632.145	1	10
632.314	1	-4
632.484	1	-1
632.653	1	12
632.823	1	0
632.993	1	0
633.162	1	16
633.332	1	5
633.501	1	7
633.671	1	9
633.841	1	4
634.010	1	9
634.180	1	-5
634.349	1	-11
634.519	1	10
634.689	1	8
634.858	1	7
635.028	1	11
635.197	1	10
635.367	1	0
635.537	1	-4
635.706	1	5
635.876	1	0
636.045	1	0
636.215	1	5
636.384	1	2
636.554	1	9
636.724	1	9
636.893	1	7
637.063	1	5
637.232	1	8
637.402	1	9
637.572	1	3
637.741	1	-6
637.911	1	1
638.080	1	7
638.250	1	21
638.419	1	-4
638.589	1	9
638.759	1	5
638.928	1	1
639.098	1	-9
639.267	1	10
639.437	1	-3
639.606	1	-4
639.776	1	10
639.946	1	-3
640.115	1	2
640.285	1	14
640.454	1	4
640.624	1	-4
640.793	1	-4
640.963	1	3
641.132	1	-1
641.302	1	-6
641.472	1	-1
641.641	1	5
641.811	1	14
641.980	1	2
642.150	1	-1
642.319	1	14
642.489	1	-5
642.659	1	2
642.828	1	-4
642.998	1	13
643.167	1	-3
643.337	1	6
643.506	1	11
643.676	1	13
643.845	1	8
644.015	1	2
644.184	1	17
644.354	1	6
644.524	1	4
644.693	1	0
644.863	1	-12
645.032	1	0
645.202	1	13
645.371	1	9
645.541	1	6
645.710	1	-5
645.880	1	5
646.049	1	6
646.219	1	8
646.388	1	-2
646.558	1	14
646.728	1	1
646.897	1	4
647.067	1	-4
647.236	1	-1
647.406	1	11
647.575	1	5
647.745	1	3
647.914	1	6
648.084	1	5
648.253	1	7
648.423	1	7
648.592	1	6
648.762	1	6
648.931	1	7
649.101	1	3
649.270	1	-2
649.440	1	6
649.610	1	3
649.779	1	-5
649.949	1	-4
650.118	1	-3
650.288	1	-1
650.457	1	-1
650.627	1	1
650.796	1	5
650.966	1	1
651.135	1	-2
651.305	1	-5
651.474	1	14
651.644	1	16
651.813	1	8
651.983	1	2
652.152	1	5
652.322	1	2
652.491	1	9
652.661	1	0
652.830	1	1
653.000	1	0
653.169	1	-2
653.339	1	0
653.508	1	10
653.678	1	3
653.847	1	9
654.017	1	-2
654.186	1	14
654.356	1	7
654.525	1	-3
654.695	1	19
654.864	1	-3
655.034	1	-6
655.203	1	1
655.373	1	5
655.542	1	4
655.712	1	-10
655.881	1	-13
656.051	1	6
656.220	1	9
656.390	1	-5
656.559	1	-7
656.729	1	-3
656.898	1	8
657.068	1	2
657.237	1	2
657.406	1	4
657.576	1	3
657.745	1	13
657.915	1	8
658.084	1	-8
658.254	1	17
658.423	1	5
658.593	1	5
658.762	1	3
658.932	1	0
659.101	1	0
659.271	1	-3
659.440	1	3
659.610	1	12
659.779	1	6
659.949	1	-9
660.118	1	7
660.288	1	4
660.457	1	8
660.626	1	2
660.796	1	3
660.965	1	8
661.135	1	-4
661.304	1	-2
661.474	1	4
661.643	1	7
661.813	1	-2
661.982	1	12
662.152	1	-1
662.321	1	2
662.491	1	-14
662.660	1	2
662.829	1	2
662.999	1	4
663.168	1	3
663.338	1	5
663.507	1	-3
663.677	1	-2
663.846	1	3
664.016	1	10
664.185	1	12
664.354	1	-3
664.524	1	-4
664.693	1	-10
664.863	1	8
665.032	1	0
665.202	1	13
665.371	1	1
665.541	1	-5
665.710	1	6
665.879	1	4
666.049	1	0
666.218	1	10
666.388	1	8
666.557	1	-2
666.727	1	7
666.896	1	1
667.065	1	0
667.235	1	-10
667.404	1	8
667.574	1	-2
667.743	1	-5
667.913	1	-6
668.082	1	4
668.251	1	8
668.421	1	10
668.590	1	0
668.760	1	14
668.929	1	7
669.099	1	5
669.268	1	12
669.437	1	1
669.607	1	0
669.776	1	-1
669.946	1	10
670.115	1	0
670.285	1	8
670.454	1	1
670.623	1	4
670.793	1	10
670.962	1	-4
671.132	1	4
671.301	1	4
671.470	1	8
671.640	1	8
671.809	1	3
671.979	1	-1
672.148	1	3
672.317	1	4
672.487	1	4
672.656	1	5
672.826	1	3
672.995	1	-7
673.164	1	1
673.334	1	-1
673.503	1	-1
673.673	1	3
673.842	1	2
674.011	1	9
674.181	1	4
674.350	1	7
674.520	1	0
674.689	1	1
674.858	1	0
675.028	1	12
675.197	1	14
675.367	1	3
675.536	1	1
675.705	1	-2
675.875	1	-2
676.044	1	16
676.214	1	-8
676.383	1	0
676.552	1	2
676.722	1	13
676.891	1	15
677.060	1	5
677.230	1	0
677.399	1	0
677.569	1	-6
677.738	1	6
677.907	1	1
678.077	1	13
678.246	1	-7
678.416	1	8
678.585	1	9
678.754	1	5
678.924	1	7
679.093	1	12
679.262	1	6
679.432	1	7
679.601	1	2
679.771	1	7
679.940	1	11
680.109	1	-2
680.279	1	7
680.448	1	6
680.617	1	4
680.787	1	-5
680.956	1	-5
681.125	1	-5
681.295	1	1
681.464	1	10
681.634	1	1
681.803	1	17
681.972	1	-9
682.142	1	1
682.311	1	2
682.480	1	3
682.650	1	4
682.819	1	14
682.988	1	3
683.158	1	3
683.327	1	7
683.496	1	2
683.666	1	1
683.835	1	-4
684.004	1	11
684.174	1	7
684.343	1	3
684.512	1	-4
684.682	1	9
684.851	1	-1
685.021	1	-6
685.190	1	-5
685.359	1	-2
685.529	1	10
685.698	1	3
685.867	1	4
686.037	1	-4
686.206	1	10
686.375	1	6
686.545	1	7
686.714	1	4
686.883	1	6
687.053	1	1
687.222	1	9
687.391	1	4
687.561	1	7
687.730	1	14
687.899	1	-1
688.069	1	3
688.238	1	-7
688.407	1	-11
688.577	1	15
688.746	1	4
