340.368	1	4
340.539	1	8
340.710	1	2
340.881	1	0
341.052	1	14
341.223	1	11
341.394	1	7
341.565	1	5
341.737	1	20
341.908	1	11
342.079	1	12
342.250	1	7
342.421	1	12
342.592	1	-3
342.763	1	11
342.934	1	-4
343.105	1	16
343.276	1	11
343.447	1	0
343.618	1	7
343.789	1	11
343.960	1	5
344.131	1	9
344.302	1	5
344.473	1	4
344.644	1	8
344.815	1	9
344.986	1	7
345.157	1	8
345.328	1	9
345.499	1	2
345.670	1	11
345.841	1	8
346.012	1	7
346.183	1	12
346.354	1	3
346.526	1	11
346.697	1	16
346.868	1	19
347.039	1	5
347.210	1	6
347.381	1	6
347.552	1	16
347.723	1	14
347.894	1	2
348.065	1	-2
348.236	1	12
348.407	1	7
348.578	1	12
348.749	1	14
348.920	1	1
349.091	1	13
349.262	1	15
349.433	1	6
349.604	1	18
349.775	1	13
349.946	1	15
350.117	1	3
350.288	1	10
350.459	1	12
350.630	1	16
350.801	1	11
350.972	1	4
351.143	1	15
351.314	1	17
351.485	1	9
351.656	1	13
351.827	1	20
351.998	1	25
352.169	1	22
352.340	1	18
352.511	1	22
352.682	1	22
352.853	1	21
353.024	1	17
353.195	1	32
353.366	1	20
353.537	1	24
353.708	1	33
353.879	1	24
354.050	1	13
354.221	1	22
354.392	1	12
354.563	1	13
354.734	1	30
354.905	1	34
355.076	1	22
355.247	1	36
355.418	1	21
355.589	1	25
355.760	1	24
355.931	1	35
356.102	1	41
356.273	1	35
356.444	1	29
356.615	1	32
356.785	1	45
356.956	1	36
357.127	1	42
357.298	1	52
357.469	1	37
357.640	1	48
357.811	1	52
357.982	1	51
358.153	1	61
358.324	1	66
358.495	1	45
358.666	1	63
358.837	1	71
359.008	1	62
359.179	1	67
359.350	1	79
359.521	1	82
359.692	1	76
359.863	1	87
360.034	1	87
360.205	1	102
360.376	1	91
360.547	1	104
360.718	1	118
360.889	1	125
361.060	1	131
361.231	1	140
361.401	1	147
361.572	1	159
361.743	1	167
361.914	1	179
362.085	1	177
362.256	1	204
362.427	1	209
362.598	1	232
362.769	1	246
362.940	1	280
363.111	1	298
363.282	1	291
363.453	1	320
363.624	1	342
363.795	1	362
363.966	1	406
364.137	1	447
364.308	1	472
364.478	1	495
364.649	1	523
364.820	1	583
364.991	1	639
365.162	1	683
365.333	1	698
365.504	1	750
365.675	1	813
365.846	1	856
366.017	1	921
366.188	1	994
366.359	1	1017
366.530	1	1082
366.701	1	1143
366.871	1	1178
367.042	1	1262
367.213	1	1302
367.384	1	1357
367.555	1	1377
367.726	1	1449
367.897	1	1457
368.068	1	1542
368.239	1	1525
368.410	1	1505
368.581	1	1535
368.752	1	1572
368.923	1	1556
369.093	1	1566
369.264	1	1527
369.435	1	1517
369.606	1	1490
369.777	1	1458
369.948	1	1398
370.119	1	1380
370.290	1	1326
370.461	1	1304
370.632	1	1264
370.803	1	1212
370.973	1	1156
371.144	1	1114
371.315	1	1094
371.486	1	1018
371.657	1	1018
371.828	1	959
371.999	1	900
372.170	1	885
372.341	1	858
372.512	1	812
372.682	1	788
372.853	1	763
373.024	1	761
373.195	1	717
373.366	1	702
373.537	1	675
373.708	1	634
373.879	1	646
374.050	1	630
374.220	1	616
374.391	1	596
374.562	1	570
374.733	1	568
374.904	1	532
375.075	1	523
375.246	1	511
375.417	1	492
375.588	1	474
375.758	1	476
375.929	1	442
376.100	1	428
376.271	1	429
376.442	1	416
376.613	1	408
376.784	1	371
376.955	1	376
377.125	1	368
377.296	1	354
377.467	1	343
377.638	1	318
377.809	1	334
377.980	1	299
378.151	1	309
378.321	1	275
378.492	1	298
378.663	1	277
378.834	1	273
379.005	1	263
379.176	1	238
379.347	1	240
379.518	1	240
379.688	1	226
379.859	1	227
380.030	1	213
380.201	1	206
380.372	1	207
380.543	1	206
380.714	1	205
380.884	1	187
381.055	1	201
381.226	1	192
381.397	1	184
381.568	1	183
381.739	1	170
381.910	1	172
382.080	1	166
382.251	1	157
382.422	1	165
382.593	1	190
382.764	1	161
382.935	1	159
383.105	1	158
383.276	1	169
383.447	1	173
383.618	1	159
383.789	1	153
383.960	1	151
384.130	1	158
384.301	1	152
384.472	1	156
384.643	1	155
384.814	1	149
384.985	1	151
385.156	1	155
385.326	1	149
385.497	1	158
385.668	1	157
385.839	1	132
386.010	1	150
386.180	1	142
386.351	1	145
386.522	1	140
386.693	1	129
386.864	1	124
387.035	1	132
387.205	1	112
387.376	1	112
387.547	1	115
387.718	1	118
387.889	1	127
388.060	1	111
388.230	1	94
388.401	1	85
388.572	1	101
388.743	1	104
388.914	1	100
389.084	1	90
389.255	1	113
389.426	1	100
389.597	1	99
389.768	1	105
389.939	1	89
390.109	1	105
390.280	1	102
390.451	1	90
390.622	1	91
390.793	1	98
390.963	1	86
391.134	1	96
391.305	1	87
391.476	1	93
391.647	1	89
391.817	1	75
391.988	1	81
392.159	1	88
392.330	1	95
392.501	1	82
392.671	1	79
392.842	1	74
393.013	1	72
393.184	1	71
393.355	1	69
393.525	1	68
393.696	1	76
393.867	1	76
394.038	1	72
394.208	1	73
394.379	1	59
394.550	1	73
394.721	1	64
394.892	1	68
395.062	1	61
395.233	1	62
395.404	1	69
395.575	1	69
395.746	1	73
395.916	1	60
396.087	1	72
396.258	1	78
396.429	1	62
396.599	1	58
396.770	1	77
396.941	1	72
397.112	1	72
397.283	1	66
397.453	1	73
397.624	1	70
397.795	1	62
397.966	1	73
398.136	1	64
398.307	1	65
398.478	1	61
398.649	1	68
398.819	1	68
398.990	1	56
399.161	1	54
399.332	1	60
399.503	1	58
399.673	1	55
399.844	1	63
400.015	1	63
400.186	1	55
400.356	1	48
400.527	1	65
400.698	1	55
400.869	1	43
401.039	1	51
401.210	1	52
401.381	1	52
401.552	1	51
401.722	1	46
401.893	1	51
402.064	1	47
402.235	1	51
402.405	1	46
402.576	1	48
402.747	1	33
402.918	1	49
403.088	1	50
403.259	1	43
403.430	1	45
403.601	1	60
403.771	1	42
403.942	1	56
404.113	1	53
404.284	1	31
404.454	1	40
404.625	1	48
404.796	1	47
404.967	1	40
405.137	1	51
405.308	1	45
405.479	1	43
405.649	1	50
405.820	1	44
405.991	1	44
406.162	1	52
406.332	1	29
406.503	1	41
406.674	1	48
406.845	1	40
407.015	1	44
407.186	1	39
407.357	1	36
407.527	1	36
407.698	1	46
407.869	1	37
408.040	1	41
408.210	1	38
408.381	1	43
408.552	1	29
408.722	1	41
408.893	1	34
409.064	1	40
409.235	1	35
409.405	1	39
409.576	1	40
409.747	1	30
409.917	1	31
410.088	1	37
410.259	1	47
410.430	1	38
410.600	1	41
410.771	1	45
410.942	1	29
411.112	1	36
411.283	1	35
411.454	1	42
411.625	1	30
411.795	1	41
411.966	1	39
412.137	1	29
412.307	1	38
412.478	1	34
412.649	1	32
412.819	1	27
412.990	1	23
413.161	1	21
413.332	1	41
413.502	1	28
413.673	1	17
413.844	1	35
414.014	1	31
414.185	1	21
414.356	1	28
414.526	1	28
414.697	1	36
414.868	1	32
415.038	1	12
415.209	1	10
415.380	1	33
415.550	1	22
415.721	1	21
415.892	1	34
416.063	1	30
416.233	1	29
416.404	1	34
416.575	1	34
416.745	1	25
416.916	1	21
417.087	1	24
417.257	1	24
417.428	1	34
417.599	1	16
417.769	1	31
417.940	1	37
418.111	1	29
418.281	1	9
418.452	1	23
418.623	1	19
418.793	1	21
418.964	1	21
419.135	1	25
419.305	1	23
419.476	1	30
419.647	1	32
419.817	1	20
419.988	1	25
420.159	1	32
420.329	1	32
420.500	1	23
420.671	1	30
420.841	1	28
421.012	1	18
421.183	1	31
421.353	1	25
421.524	1	19
421.695	1	13
421.865	1	18
422.036	1	29
422.206	1	27
422.377	1	28
422.548	1	20
422.718	1	27
422.889	1	12
423.060	1	21
423.230	1	24
423.401	1	15
423.572	1	6
423.742	1	17
423.913	1	19
424.084	1	32
424.254	1	28
424.425	1	3
424.595	1	24
424.766	1	32
424.937	1	18
425.107	1	20
425.278	1	26
425.449	1	29
425.619	1	21
425.790	1	34
425.961	1	11
426.131	1	31
426.302	1	19
426.472	1	22
426.643	1	26
426.814	1	14
426.984	1	23
427.155	1	26
427.326	1	24
427.496	1	21
427.667	1	24
427.837	1	33
428.008	1	31
428.179	1	14
428.349	1	17
428.520	1	17
428.691	1	25
428.861	1	14
429.032	1	24
429.202	1	26
429.373	1	22
429.544	1	20
429.714	1	21
429.885	1	26
430.055	1	29
430.226	1	22
430.397	1	14
430.567	1	26
430.738	1	24
430.909	1	24
431.079	1	17
431.250	1	42
431.420	1	24
431.591	1	16
431.762	1	24
431.932	1	19
432.103	1	24
432.273	1	11
432.444	1	15
432.615	1	16
432.785	1	17
432.956	1	25
433.126	1	12
433.297	1	13
433.468	1	13
433.638	1	21
433.809	1	19
433.979	1	19
434.150	1	22
434.320	1	28
434.491	1	17
434.662	1	1
434.832	1	14
435.003	1	24
435.173	1	22
435.344	1	6
435.515	1	15
435.685	1	16
435.856	1	31
436.026	1	19
436.197	1	8
436.368	1	23
436.538	1	17
436.709	1	23
436.879	1	27
437.050	1	13
437.220	1	7
437.391	1	8
437.562	1	21
437.732	1	19
437.903	1	21
438.073	1	21
438.244	1	11
438.414	1	18
438.585	1	19
438.756	1	18
438.926	1	9
439.097	1	19
439.267	1	22
439.438	1	25
439.608	1	14
439.779	1	18
439.949	1	27
440.120	1	9
440.291	1	18
440.461	1	31
440.632	1	15
440.802	1	20
440.973	1	19
441.143	1	21
441.314	1	13
441.485	1	12
441.655	1	11
441.826	1	17
441.996	1	6
442.167	1	17
442.337	1	19
442.508	1	17
442.678	1	18
442.849	1	14
443.019	1	16
443.190	1	9
443.361	1	24
443.531	1	11
443.702	1	17
443.872	1	14
444.043	1	20
444.213	1	13
444.384	1	23
444.554	1	20
444.725	1	22
444.895	1	5
445.066	1	20
445.237	1	12
445.407	1	28
445.578	1	23
445.748	1	7
445.919	1	23
446.089	1	12
446.260	1	18
446.430	1	20
446.601	1	14
446.771	1	4
446.942	1	24
447.112	1	24
447.283	1	16
447.453	1	21
447.624	1	14
447.794	1	26
447.965	1	21
448.135	1	11
448.306	1	7
448.477	1	22
448.647	1	11
448.818	1	20
448.988	1	29
449.159	1	17
449.329	1	20
449.500	1	20
449.670	1	9
449.841	1	10
450.011	1	15
450.182	1	18
450.352	1	5
450.523	1	10
450.693	1	22
450.864	1	26
451.034	1	10
451.205	1	14
451.375	1	19
451.546	1	14
451.716	1	16
451.887	1	16
452.057	1	12
452.228	1	4
452.398	1	14
452.569	1	27
452.739	1	13
452.910	1	26
453.080	1	17
453.251	1	27
453.421	1	20
453.592	1	5
453.762	1	18
453.933	1	18
454.103	1	11
454.274	1	21
454.444	1	16
454.615	1	21
454.785	1	13
454.956	1	18
455.126	1	26
455.297	1	12
455.467	1	1
455.638	1	19
455.808	1	27
455.979	1	32
456.149	1	17
456.320	1	11
456.490	1	25
456.661	1	18
456.831	1	18
457.001	1	22
457.172	1	14
457.342	1	17
457.513	1	25
457.683	1	25
457.854	1	26
458.024	1	34
458.195	1	11
458.365	1	10
458.536	1	14
458.706	1	33
458.877	1	19
459.047	1	10
459.218	1	22
459.388	1	15
459.559	1	19
459.729	1	26
459.899	1	13
460.070	1	20
460.240	1	17
460.411	1	18
460.581	1	16
460.752	1	14
460.922	1	19
461.093	1	30
461.263	1	19
461.434	1	5
461.604	1	23
461.775	1	12
461.945	1	17
462.115	1	22
462.286	1	14
462.456	1	8
462.627	1	18
462.797	1	21
462.968	1	23
463.138	1	19
463.309	1	9
463.479	1	17
463.649	1	20
463.820	1	27
463.990	1	17
464.161	1	12
464.331	1	22
464.502	1	22
464.672	1	7
464.843	1	11
465.013	1	24
465.183	1	24
465.354	1	9
465.524	1	18
465.695	1	19
465.865	1	18
466.036	1	5
466.206	1	26
466.376	1	18
466.547	1	14
466.717	1	17
466.888	1	7
467.058	1	13
467.229	1	18
467.399	1	21
467.569	1	26
467.740	1	17
467.910	1	14
468.081	1	11
468.251	1	11
468.422	1	17
468.592	1	17
468.762	1	24
468.933	1	18
469.103	1	26
469.274	1	27
469.444	1	14
469.614	1	26
469.785	1	8
469.955	1	28
470.126	1	22
470.296	1	16
470.467	1	22
470.637	1	17
470.807	1	14
470.978	1	18
471.148	1	7
471.319	1	20
471.489	1	16
471.659	1	6
471.830	1	14
472.000	1	13
472.171	1	16
472.341	1	24
472.511	1	24
472.682	1	18
472.852	1	23
473.023	1	20
473.193	1	27
473.363	1	10
473.534	1	24
473.704	1	14
473.875	1	15
474.045	1	21
474.215	1	25
474.386	1	13
474.556	1	22
474.727	1	19
474.897	1	25
475.067	1	17
475.238	1	21
475.408	1	19
475.578	1	19
475.749	1	25
475.919	1	34
476.090	1	23
476.260	1	30
476.430	1	24
476.601	1	19
476.771	1	24
476.942	1	21
477.112	1	11
477.282	1	27
477.453	1	40
477.623	1	39
477.793	1	33
477.964	1	22
478.134	1	33
478.305	1	21
478.475	1	17
478.645	1	34
478.816	1	23
478.986	1	27
479.156	1	33
479.327	1	4
479.497	1	34
479.667	1	24
479.838	1	26
480.008	1	23
480.179	1	39
480.349	1	27
480.519	1	17
480.690	1	38
480.860	1	24
481.030	1	23
481.201	1	33
481.371	1	26
481.541	1	32
481.712	1	20
481.882	1	37
482.053	1	24
482.223	1	25
482.393	1	24
482.564	1	33
482.734	1	39
482.904	1	35
483.075	1	29
483.245	1	30
483.415	1	45
483.586	1	41
483.756	1	26
483.926	1	32
484.097	1	29
484.267	1	27
484.437	1	36
484.608	1	36
484.778	1	24
484.948	1	30
485.119	1	40
485.289	1	44
485.459	1	28
485.630	1	36
485.800	1	32
485.970	1	32
486.141	1	45
486.311	1	44
486.481	1	39
486.652	1	47
486.822	1	41
486.992	1	31
487.163	1	44
487.333	1	34
487.503	1	49
487.674	1	38
487.844	1	49
488.014	1	48
488.185	1	41
488.355	1	37
488.525	1	47
488.696	1	45
488.866	1	48
489.036	1	47
489.207	1	48
489.377	1	45
489.547	1	58
489.718	1	58
489.888	1	46
490.058	1	63
490.228	1	44
490.399	1	53
490.569	1	50
490.739	1	55
490.910	1	54
491.080	1	49
491.250	1	60
491.421	1	61
491.591	1	56
491.761	1	62
491.932	1	49
492.102	1	47
492.272	1	64
492.442	1	57
492.613	1	51
492.783	1	64
492.953	1	53
493.124	1	63
493.294	1	55
493.464	1	56
493.635	1	53
493.805	1	60
493.975	1	64
494.145	1	59
494.316	1	61
494.486	1	63
494.656	1	66
494.827	1	60
494.997	1	54
495.167	1	58
495.337	1	64
495.508	1	57
495.678	1	53
495.848	1	67
496.019	1	44
496.189	1	50
496.359	1	58
496.529	1	57
496.700	1	72
496.870	1	62
497.040	1	64
497.211	1	60
497.381	1	68
497.551	1	69
497.721	1	62
497.892	1	73
498.062	1	70
498.232	1	64
498.403	1	72
498.573	1	62
498.743	1	83
498.913	1	70
499.084	1	74
499.254	1	76
499.424	1	74
499.594	1	74
499.765	1	65
499.935	1	70
500.105	1	77
500.275	1	65
500.446	1	80
500.616	1	71
500.786	1	78
500.956	1	80
501.127	1	83
501.297	1	93
501.467	1	78
501.638	1	77
501.808	1	81
501.978	1	87
502.148	1	88
502.319	1	96
502.489	1	86
502.659	1	90
502.829	1	79
503.000	1	99
503.170	1	98
503.340	1	101
503.510	1	85
503.681	1	93
503.851	1	94
504.021	1	95
504.191	1	83
504.362	1	94
504.532	1	78
504.702	1	97
504.872	1	96
505.042	1	97
505.213	1	100
505.383	1	101
505.553	1	107
505.723	1	96
505.894	1	103
506.064	1	101
506.234	1	96
506.404	1	106
506.575	1	109
506.745	1	109
506.915	1	100
507.085	1	93
507.256	1	105
507.426	1	95
507.596	1	106
507.766	1	104
507.936	1	111
508.107	1	99
508.277	1	96
508.447	1	113
508.617	1	104
508.788	1	98
508.958	1	101
509.128	1	105
509.298	1	110
509.468	1	107
509.639	1	120
509.809	1	110
509.979	1	111
510.149	1	117
510.319	1	97
510.490	1	112
510.660	1	96
510.830	1	111
511.000	1	123
511.171	1	123
511.341	1	120
511.511	1	114
511.681	1	106
511.851	1	117
512.022	1	121
512.192	1	110
512.362	1	117
512.532	1	116
512.702	1	103
512.873	1	118
513.043	1	118
513.213	1	121
513.383	1	129
513.553	1	116
513.724	1	122
513.894	1	116
514.064	1	127
514.234	1	112
514.404	1	122
514.575	1	118
514.745	1	125
514.915	1	108
515.085	1	131
515.255	1	117
515.425	1	131
515.596	1	115
515.766	1	117
515.936	1	119
516.106	1	135
516.276	1	130
516.447	1	115
516.617	1	126
516.787	1	120
516.957	1	122
517.127	1	130
517.297	1	132
517.468	1	144
517.638	1	121
517.808	1	141
517.978	1	152
518.148	1	141
518.319	1	140
518.489	1	138
518.659	1	131
518.829	1	136
518.999	1	136
519.169	1	132
519.340	1	141
519.510	1	147
519.680	1	139
519.850	1	143
520.020	1	135
520.190	1	142
520.361	1	142
520.531	1	144
520.701	1	147
520.871	1	136
521.041	1	142
521.211	1	134
521.382	1	145
521.552	1	156
521.722	1	137
521.892	1	140
522.062	1	145
522.232	1	138
522.402	1	141
522.573	1	153
522.743	1	158
522.913	1	157
523.083	1	143
523.253	1	153
523.423	1	131
523.593	1	151
523.764	1	147
523.934	1	146
524.104	1	135
524.274	1	139
524.444	1	134
524.614	1	148
524.784	1	146
524.955	1	146
525.125	1	154
525.295	1	150
525.465	1	152
525.635	1	163
525.805	1	146
525.975	1	145
526.146	1	147
526.316	1	162
526.486	1	152
526.656	1	162
526.826	1	151
526.996	1	158
527.166	1	156
527.337	1	145
527.507	1	156
527.677	1	163
527.847	1	150
528.017	1	167
528.187	1	152
528.357	1	160
528.527	1	160
528.698	1	170
528.868	1	158
529.038	1	166
529.208	1	160
529.378	1	168
529.548	1	177
529.718	1	171
529.888	1	160
530.058	1	178
530.229	1	175
530.399	1	171
530.569	1	164
530.739	1	178
530.909	1	169
531.079	1	171
531.249	1	163
531.419	1	174
531.589	1	168
531.760	1	182
531.930	1	170
532.100	1	173
532.270	1	170
532.440	1	166
532.610	1	160
532.780	1	152
532.950	1	159
533.120	1	183
533.290	1	170
533.461	1	179
533.631	1	165
533.801	1	163
533.971	1	159
534.141	1	165
534.311	1	153
534.481	1	167
534.651	1	158
534.821	1	165
534.991	1	157
535.162	1	182
535.332	1	159
535.502	1	148
535.672	1	158
535.842	1	150
536.012	1	142
536.182	1	151
536.352	1	150
536.522	1	157
536.692	1	156
536.862	1	156
537.032	1	146
537.203	1	149
537.373	1	137
537.543	1	148
537.713	1	148
537.883	1	148
538.053	1	143
538.223	1	141
538.393	1	157
538.563	1	148
538.733	1	144
538.903	1	142
539.073	1	147
539.243	1	147
539.413	1	151
539.584	1	138
539.754	1	143
539.924	1	142
540.094	1	159
540.264	1	143
540.434	1	141
540.604	1	145
540.774	1	145
540.944	1	144
541.114	1	142
541.284	1	142
541.454	1	143
541.624	1	144
541.794	1	139
541.964	1	149
542.134	1	155
542.305	1	158
542.475	1	146
542.645	1	151
542.815	1	162
542.985	1	141
543.155	1	148
543.325	1	156
543.495	1	151
543.665	1	153
543.835	1	141
544.005	1	166
544.175	1	146
544.345	1	151
544.515	1	151
544.685	1	158
544.855	1	148
545.025	1	150
545.195	1	154
545.365	1	150
545.535	1	159
545.705	1	165
545.875	1	145
546.045	1	153
546.216	1	149
546.386	1	160
546.556	1	150
546.726	1	161
546.896	1	160
547.066	1	165
547.236	1	167
547.406	1	157
547.576	1	145
547.746	1	154
547.916	1	148
548.086	1	172
548.256	1	178
548.426	1	174
548.596	1	152
548.766	1	167
548.936	1	150
549.106	1	170
549.276	1	163
549.446	1	170
549.616	1	169
549.786	1	154
549.956	1	158
550.126	1	156
550.296	1	161
550.466	1	164
550.636	1	165
550.806	1	166
550.976	1	157
551.146	1	162
551.316	1	146
551.486	1	167
551.656	1	159
551.826	1	161
551.996	1	147
552.166	1	154
552.336	1	148
552.506	1	144
552.676	1	149
552.846	1	163
553.016	1	160
553.186	1	158
553.356	1	157
553.526	1	139
553.696	1	155
553.866	1	141
554.036	1	146
554.206	1	142
554.376	1	159
554.546	1	130
554.716	1	139
554.886	1	146
555.056	1	133
555.226	1	133
555.396	1	133
555.566	1	150
555.736	1	139
555.906	1	125
556.076	1	140
556.246	1	148
556.416	1	143
556.586	1	145
556.756	1	139
556.926	1	142
557.096	1	121
557.266	1	144
557.436	1	131
557.606	1	144
557.776	1	136
557.946	1	143
558.116	1	136
558.286	1	133
558.456	1	128
558.626	1	143
558.796	1	134
558.966	1	142
559.136	1	141
559.306	1	141
559.476	1	137
559.646	1	140
559.816	1	138
559.986	1	134
560.155	1	136
560.325	1	125
560.495	1	137
560.665	1	140
560.835	1	140
561.005	1	125
561.175	1	120
561.345	1	130
561.515	1	123
561.685	1	134
561.855	1	134
562.025	1	120
562.195	1	135
562.365	1	130
562.535	1	129
562.705	1	140
562.875	1	135
563.045	1	126
563.215	1	127
563.385	1	132
563.555	1	127
563.725	1	118
563.895	1	116
564.064	1	125
564.234	1	135
564.404	1	131
564.574	1	119
564.744	1	133
564.914	1	134
565.084	1	132
565.254	1	120
565.424	1	136
565.594	1	137
565.764	1	124
565.934	1	123
566.104	1	131
566.274	1	121
566.444	1	122
566.614	1	108
566.783	1	123
566.953	1	127
567.123	1	122
567.293	1	118
567.463	1	124
567.633	1	129
567.803	1	125
567.973	1	108
568.143	1	120
568.313	1	117
568.483	1	131
568.653	1	123
568.823	1	108
568.993	1	125
569.162	1	130
569.332	1	130
569.502	1	128
569.672	1	109
569.842	1	109
570.012	1	127
570.182	1	121
570.352	1	119
570.522	1	123
570.692	1	124
570.862	1	119
571.031	1	125
571.201	1	107
571.371	1	103
571.541	1	116
571.711	1	105
571.881	1	124
572.051	1	107
572.221	1	111
572.391	1	115
572.561	1	108
572.731	1	109
572.900	1	107
573.070	1	108
573.240	1	111
573.410	1	117
573.580	1	102
573.750	1	107
573.920	1	126
574.090	1	101
574.260	1	107
574.430	1	118
574.599	1	104
574.769	1	101
574.939	1	99
575.109	1	106
575.279	1	102
575.449	1	113
575.619	1	121
575.789	1	99
575.959	1	98
576.128	1	100
576.298	1	124
576.468	1	107
576.638	1	105
576.808	1	104
576.978	1	106
577.148	1	104
577.318	1	109
577.487	1	112
577.657	1	105
577.827	1	111
577.997	1	109
578.167	1	94
578.337	1	113
578.507	1	120
578.677	1	107
578.846	1	110
579.016	1	109
579.186	1	85
579.356	1	107
579.526	1	110
579.696	1	106
579.866	1	115
580.036	1	89
580.205	1	107
580.375	1	104
580.545	1	103
580.715	1	109
580.885	1	98
581.055	1	116
581.225	1	97
581.394	1	109
581.564	1	99
581.734	1	121
581.904	1	101
582.074	1	114
582.244	1	99
582.414	1	89
582.583	1	100
582.753	1	108
582.923	1	118
583.093	1	111
583.263	1	125
583.433	1	105
583.603	1	92
583.772	1	101
583.942	1	113
584.112	1	96
584.282	1	96
584.452	1	97
584.622	1	107
584.791	1	100
584.961	1	109
585.131	1	115
585.301	1	108
585.471	1	103
585.641	1	108
585.811	1	86
585.980	1	97
586.150	1	97
586.320	1	93
586.490	1	107
586.660	1	87
586.830	1	98
586.999	1	99
587.169	1	106
587.339	1	87
587.509	1	97
587.679	1	97
587.849	1	88
588.018	1	93
588.188	1	89
588.358	1	93
588.528	1	93
588.698	1	85
588.867	1	83
589.037	1	87
589.207	1	83
589.377	1	92
589.547	1	98
589.717	1	88
589.886	1	82
590.056	1	87
590.226	1	87
590.396	1	91
590.566	1	89
590.735	1	81
590.905	1	85
591.075	1	87
591.245	1	86
591.415	1	87
591.585	1	82
591.754	1	79
591.924	1	77
592.094	1	87
592.264	1	77
592.434	1	76
592.603	1	74
592.773	1	84
592.943	1	83
593.113	1	85
593.283	1	85
593.452	1	81
593.622	1	71
593.792	1	76
593.962	1	79
594.132	1	76
594.301	1	77
594.471	1	71
594.641	1	66
594.811	1	70
594.981	1	77
595.150	1	73
595.320	1	68
595.490	1	65
595.660	1	68
595.829	1	81
595.999	1	85
596.169	1	72
596.339	1	80
596.509	1	73
596.678	1	71
596.848	1	75
597.018	1	76
597.188	1	83
597.358	1	67
597.527	1	66
597.697	1	71
597.867	1	89
598.037	1	75
598.206	1	74
598.376	1	66
598.546	1	72
598.716	1	84
598.885	1	75
599.055	1	87
599.225	1	79
599.395	1	69
599.565	1	85
599.734	1	85
599.904	1	76
600.074	1	59
600.244	1	66
600.413	1	77
600.583	1	88
600.753	1	82
600.923	1	83
601.092	1	77
601.262	1	62
601.432	1	69
601.602	1	78
601.771	1	82
601.941	1	81
602.111	1	77
602.281	1	77
602.451	1	77
602.620	1	76
602.790	1	80
602.960	1	76
603.130	1	80
603.299	1	68
603.469	1	87
603.639	1	72
603.809	1	74
603.978	1	73
604.148	1	84
604.318	1	64
604.487	1	82
604.657	1	79
604.827	1	70
604.997	1	70
605.166	1	77
605.336	1	84
605.506	1	81
605.676	1	69
605.845	1	74
606.015	1	75
606.185	1	79
606.355	1	77
606.524	1	74
606.694	1	74
606.864	1	73
607.034	1	80
607.203	1	71
607.373	1	80
607.543	1	79
607.712	1	70
607.882	1	68
608.052	1	74
608.222	1	71
608.391	1	72
608.561	1	75
608.731	1	72
608.901	1	80
609.070	1	67
609.240	1	68
609.410	1	65
609.579	1	68
609.749	1	64
609.919	1	69
610.089	1	73
610.258	1	63
610.428	1	69
610.598	1	69
610.767	1	69
610.937	1	69
611.107	1	68
611.277	1	70
611.446	1	57
611.616	1	69
611.786	1	65
611.955	1	73
612.125	1	60
612.295	1	66
612.465	1	60
612.634	1	60
612.804	1	62
612.974	1	64
613.143	1	49
613.313	1	65
613.483	1	60
613.652	1	72
613.822	1	67
613.992	1	60
614.162	1	60
614.331	1	68
614.501	1	55
614.671	1	63
614.840	1	56
615.010	1	65
615.180	1	63
615.349	1	61
615.519	1	62
615.689	1	56
615.858	1	46
616.028	1	57
616.198	1	59
616.368	1	56
616.537	1	50
616.707	1	72
616.877	1	62
617.046	1	62
617.216	1	59
617.386	1	49
617.555	1	47
617.725	1	50
617.895	1	55
618.064	1	52
618.234	1	57
618.404	1	49
618.573	1	46
618.743	1	66
618.913	1	55
619.082	1	63
619.252	1	65
619.422	1	49
619.591	1	58
619.761	1	51
619.931	1	50
620.100	1	55
620.270	1	55
620.440	1	49
620.609	1	55
620.779	1	54
620.949	1	56
621.118	1	46
621.288	1	45
621.458	1	52
621.627	1	66
621.797	1	55
621.967	1	50
622.136	1	47
622.306	1	60
622.476	1	46
622.645	1	59
622.815	1	47
622.985	1	58
623.154	1	54
623.324	1	39
623.494	1	45
623.663	1	60
623.833	1	63
624.002	1	55
624.172	1	54
624.342	1	57
624.511	1	57
624.681	1	58
624.851	1	41
625.020	1	55
625.190	1	46
625.360	1	57
625.529	1	58
625.699	1	48
625.869	1	62
626.038	1	53
626.208	1	56
626.377	1	65
626.547	1	49
626.717	1	43
626.886	1	57
627.056	1	52
627.226	1	54
627.395	1	49
627.565	1	53
627.735	1	46
627.904	1	48
628.074	1	56
628.243	1	48
628.413	1	58
628.583	1	40
628.752	1	41
628.922	1	53
629.091	1	40
629.261	1	62
629.431	1	59
629.600	1	44
629.770	1	51
629.940	1	59
630.109	1	57
630.279	1	51
630.448	1	46
630.618	1	41
630.788	1	44
630.957	1	49
631.127	1	43
631.297	1	41
631.466	1	53
631.636	1	53
631.805	1	59
631.975	1	44
632.145	1	56
632.314	1	57
632.484	1	45
632.653	1	44
632.823	1	42
632.993	1	39
633.162	1	47
633.332	1	45
633.501	1	38
633.671	1	44
633.841	1	38
634.010	1	51
634.180	1	47
634.349	1	34
634.519	1	42
634.689	1	47
634.858	1	43
635.028	1	42
635.197	1	41
635.367	1	43
635.537	1	36
635.706	1	36
635.876	1	44
636.045	1	55
636.215	1	38
636.384	1	47
636.554	1	35
636.724	1	56
636.893	1	41
637.063	1	43
637.232	1	40
637.402	1	52
637.572	1	40
637.741	1	34
637.911	1	42
638.080	1	53
638.250	1	52
638.419	1	36
638.589	1	44
638.759	1	48
638.928	1	37
639.098	1	36
639.267	1	44
639.437	1	34
639.606	1	38
639.776	1	45
639.946	1	44
640.115	1	46
640.285	1	46
640.454	1	51
640.624	1	32
640.793	1	35
640.963	1	36
641.132	1	41
641.302	1	34
641.472	1	44
641.641	1	47
641.811	1	49
641.980	1	43
642.150	1	37
642.319	1	42
642.489	1	40
642.659	1	35
642.828	1	43
642.998	1	55
643.167	1	32
643.337	1	43
643.506	1	38
643.676	1	54
643.845	1	49
644.015	1	40
644.184	1	47
644.354	1	42
644.524	1	47
644.693	1	34
644.863	1	28
645.032	1	39
645.202	1	45
645.371	1	38
645.541	1	43
645.710	1	42
645.880	1	50
646.049	1	43
646.219	1	41
646.388	1	39
646.558	1	51
646.728	1	45
646.897	1	43
647.067	1	33
647.236	1	40
647.406	1	54
647.575	1	35
647.745	1	36
647.914	1	44
648.084	1	35
648.253	1	38
648.423	1	50
648.592	1	43
648.762	1	44
648.931	1	54
649.101	1	41
649.270	1	28
649.440	1	37
649.610	1	38
649.779	1	36
649.949	1	32
650.118	1	43
650.288	1	36
650.457	1	39
650.627	1	32
650.796	1	42
650.966	1	40
651.135	1	40
651.305	1	34
651.474	1	38
651.644	1	46
651.813	1	38
651.983	1	34
652.152	1	22
652.322	1	44
652.491	1	43
652.661	1	40
652.830	1	34
653.000	1	26
653.169	1	37
653.339	1	28
653.508	1	42
653.678	1	32
653.847	1	43
654.017	1	44
654.186	1	41
654.356	1	37
654.525	1	40
654.695	1	55
654.864	1	38
655.034	1	33
655.203	1	34
655.373	1	37
655.542	1	33
655.712	1	15
655.881	1	23
656.051	1	32
656.220	1	31
656.390	1	24
656.559	1	32
656.729	1	44
656.898	1	27
657.068	1	30
657.237	1	32
657.406	1	30
657.576	1	22
657.745	1	38
657.915	1	39
658.084	1	20
658.254	1	43
658.423	1	28
658.593	1	30
658.762	1	33
658.932	1	33
659.101	1	30
659.271	1	36
659.440	1	40
659.610	1	34
659.779	1	39
659.949	1	29
660.118	1	35
660.288	1	36
660.457	1	43
660.626	1	28
660.796	1	23
660.965	1	35
661.135	1	24
661.304	1	26
661.474	1	20
661.643	1	43
661.813	1	21
661.982	1	33
662.152	1	36
662.321	1	26
662.491	1	22
662.660	1	22
662.829	1	13
662.999	1	24
663.168	1	28
663.338	1	28
663.507	1	21
663.677	1	19
663.846	1	16
664.016	1	26
664.185	1	27
664.354	1	22
664.524	1	19
664.693	1	12
664.863	1	12
665.032	1	22
665.202	1	36
665.371	1	25
665.541	1	25
665.710	1	25
665.879	1	34
666.049	1	35
666.218	1	25
666.388	1	42
666.557	1	32
666.727	1	22
666.896	1	28
667.065	1	25
667.235	1	34
667.404	1	27
667.574	1	22
667.743	1	28
667.913	1	20
668.082	1	36
668.251	1	32
668.421	1	33
668.590	1	22
668.760	1	38
668.929	1	28
669.099	1	28
669.268	1	27
669.437	1	18
669.607	1	25
669.776	1	29
669.946	1	22
670.115	1	29
670.285	1	43
670.454	1	12
670.623	1	31
670.793	1	30
670.962	1	23
671.132	1	29
671.301	1	28
671.470	1	20
671.640	1	28
671.809	1	25
671.979	1	20
672.148	1	22
672.317	1	34
672.487	1	21
672.656	1	31
672.826	1	21
672.995	1	19
673.164	1	31
673.334	1	21
673.503	1	19
673.673	1	40
673.842	1	29
674.011	1	28
674.181	1	26
674.350	1	34
674.520	1	32
674.689	1	33
674.858	1	24
675.028	1	30
675.197	1	32
675.367	1	31
675.536	1	38
675.705	1	35
675.875	1	23
676.044	1	43
676.214	1	20
676.383	1	26
676.552	1	31
676.722	1	33
676.891	1	41
677.060	1	14
677.230	1	29
677.399	1	31
677.569	1	19
677.738	1	18
677.907	1	32
678.077	1	28
678.246	1	12
678.416	1	15
678.585	1	39
678.754	1	26
678.924	1	38
679.093	1	30
679.262	1	22
679.432	1	33
679.601	1	34
679.771	1	35
679.940	1	37
680.109	1	24
680.279	1	36
680.448	1	38
680.617	1	9
680.787	1	32
680.956	1	22
681.125	1	28
681.295	1	27
681.464	1	31
681.634	1	24
681.803	1	34
681.972	1	16
682.142	1	19
682.311	1	28
682.480	1	22
682.650	1	23
682.819	1	42
682.988	1	21
683.158	1	15
683.327	1	29
683.496	1	27
683.666	1	30
683.835	1	26
684.004	1	20
684.174	1	29
684.343	1	41
684.512	1	24
684.682	1	43
684.851	1	22
685.021	1	17
685.190	1	26
685.359	1	19
685.529	1	30
685.698	1	24
685.867	1	33
686.037	1	18
686.206	1	29
686.375	1	40
686.545	1	31
686.714	1	19
686.883	1	27
687.053	1	16
687.222	1	18
687.391	1	36
687.561	1	23
687.730	1	33
687.899	1	19
688.069	1	26
688.238	1	28
688.407	1	16
688.577	1	29
688.746	1	16
