340.368	1	-3
340.539	1	-5
340.710	1	-7
340.881	1	0
341.052	1	3
341.223	1	-10
341.394	1	6
341.565	1	6
341.737	1	0
341.908	1	9
342.079	1	5
342.250	1	3
342.421	1	2
342.592	1	-8
342.763	1	2
342.934	1	-8
343.105	1	5
343.276	1	3
343.447	1	-8
343.618	1	-3
343.789	1	3
343.960	1	2
344.131	1	-1
344.302	1	-8
344.473	1	0
344.644	1	3
344.815	1	5
344.986	1	-3
345.157	1	0
345.328	1	-2
345.499	1	-3
345.670	1	7
345.841	1	5
346.012	1	11
346.183	1	9
346.354	1	-2
346.526	1	12
346.697	1	3
346.868	1	13
347.039	1	3
347.210	1	-8
347.381	1	0
347.552	1	6
347.723	1	14
347.894	1	-2
348.065	1	-3
348.236	1	-4
348.407	1	-1
348.578	1	7
348.749	1	3
348.920	1	2
349.091	1	8
349.262	1	5
349.433	1	7
349.604	1	4
349.775	1	8
349.946	1	5
350.117	1	-8
350.288	1	-1
350.459	1	-8
350.630	1	14
350.801	1	1
350.972	1	-5
351.143	1	-4
351.314	1	-2
351.485	1	1
351.656	1	-2
351.827	1	-3
351.998	1	-1
352.169	1	-2
352.340	1	6
352.511	1	0
352.682	1	2
352.853	1	-4
353.024	1	2
353.195	1	10
353.366	1	1
353.537	1	-1
353.708	1	5
353.879	1	9
354.050	1	-5
354.221	1	-2
354.392	1	-4
354.563	1	0
354.734	1	6
354.905	1	12
355.076	1	0
355.247	1	-2
355.418	1	-14
355.589	1	3
355.760	1	-10
355.931	1	-4
356.102	1	-3
356.273	1	-9
356.444	1	-7
356.615	1	-1
356.785	1	0
356.956	1	7
357.127	1	-3
357.298	1	3
357.469	1	-9
357.640	1	-9
357.811	1	-2
357.982	1	1
358.153	1	9
358.324	1	3
358.495	1	-3
358.666	1	5
358.837	1	3
359.008	1	1
359.179	1	-4
359.350	1	7
359.521	1	5
359.692	1	4
359.863	1	1
360.034	1	-3
360.205	1	8
360.376	1	1
360.547	1	5
360.718	1	2
360.889	1	4
361.060	1	1
361.231	1	9
361.401	1	-5
361.572	1	1
361.743	1	3
361.914	1	-4
362.085	1	6
362.256	1	0
362.427	1	3
362.598	1	2
362.769	1	-8
362.940	1	12
363.111	1	6
363.282	1	2
363.453	1	3
363.624	1	0
363.795	1	7
363.966	1	5
364.137	1	5
364.308	1	7
364.478	1	9
364.649	1	-2
364.820	1	-5
364.991	1	4
365.162	1	12
365.333	1	4
365.504	1	-1
365.675	1	15
365.846	1	-4
366.017	1	6
366.188	1	3
366.359	1	5
366.530	1	2
366.701	1	-3
366.871	1	-1
367.042	1	8
367.213	1	4
367.384	1	11
367.555	1	13
367.726	1	15
367.897	1	2
368.068	1	9
368.239	1	8
368.410	1	12
368.581	1	10
368.752	1	4
368.923	1	12
369.093	1	-5
369.264	1	0
369.435	1	4
369.606	1	5
369.777	1	-3
369.948	1	7
370.119	1	-1
370.290	1	6
370.461	1	6
370.632	1	0
370.803	1	4
370.973	1	8
371.144	1	-2
371.315	1	0
371.486	1	-1
371.657	1	4
371.828	1	3
371.999	1	1
372.170	1	5
372.341	1	14
372.512	1	-1
372.682	1	4
372.853	1	7
373.024	1	1
373.195	1	-3
373.366	1	7
373.537	1	13
373.708	1	-1
373.879	1	13
374.050	1	13
374.220	1	4
374.391	1	0
374.562	1	0
374.733	1	9
374.904	1	5
375.075	1	-3
375.246	1	-1
375.417	1	13
375.588	1	3
375.758	1	11
375.929	1	-1
376.100	1	4
376.271	1	15
376.442	1	9
376.613	1	6
376.784	1	-10
376.955	1	2
377.125	1	3
377.296	1	5
377.467	1	1
377.638	1	-4
377.809	1	13
377.980	1	-8
378.151	1	11
378.321	1	-6
378.492	1	-8
378.663	1	7
378.834	1	-9
379.005	1	7
379.176	1	-3
379.347	1	5
379.518	1	1
379.688	1	4
379.859	1	0
380.030	1	9
380.201	1	-6
380.372	1	-2
380.543	1	5
380.714	1	14
380.884	1	-5
381.055	1	-6
381.226	1	4
381.397	1	7
381.568	1	2
381.739	1	-1
381.910	1	6
382.080	1	-9
382.251	1	-1
382.422	1	1
382.593	1	1
382.764	1	1
382.935	1	-6
383.105	1	7
383.276	1	14
383.447	1	12
383.618	1	5
383.789	1	4
383.960	1	8
384.130	1	1
384.301	1	-4
384.472	1	-14
384.643	1	-4
384.814	1	-6
384.985	1	-2
385.156	1	3
385.326	1	7
385.497	1	12
385.668	1	4
385.839	1	-6
386.010	1	0
386.180	1	0
386.351	1	5
386.522	1	7
386.693	1	-1
386.864	1	-2
387.035	1	8
387.205	1	4
387.376	1	-6
387.547	1	4
387.718	1	-1
387.889	1	13
388.060	1	-2
388.230	1	0
388.401	1	-6
388.572	1	9
388.743	1	-3
388.914	1	-3
389.084	1	-1
389.255	1	8
389.426	1	8
389.597	1	-1
389.768	1	6
389.939	1	2
390.109	1	6
390.280	1	-5
390.451	1	-3
390.622	1	-10
390.793	1	12
390.963	1	5
391.134	1	-4
391.305	1	1
391.476	1	17
391.647	1	-8
391.817	1	-4
391.988	1	9
392.159	1	6
392.330	1	-2
392.501	1	-7
392.671	1	-6
392.842	1	1
393.013	1	-7
393.184	1	4
393.355	1	8
393.525	1	5
393.696	1	2
393.867	1	8
394.038	1	-6
394.208	1	6
394.379	1	-5
394.550	1	9
394.721	1	-13
394.892	1	3
395.062	1	-4
395.233	1	1
395.404	1	4
395.575	1	6
395.746	1	5
395.916	1	-3
396.087	1	3
396.258	1	-3
396.429	1	10
396.599	1	-5
396.770	1	7
396.941	1	0
397.112	1	-1
397.283	1	3
397.453	1	9
397.624	1	-8
397.795	1	-5
397.966	1	12
398.136	1	4
398.307	1	-6
398.478	1	1
398.649	1	5
398.819	1	-1
398.990	1	-11
399.161	1	-11
399.332	1	9
399.503	1	12
399.673	1	5
399.844	1	-8
400.015	1	5
400.186	1	-14
400.356	1	-3
400.527	1	21
400.698	1	-1
400.869	1	-3
401.039	1	5
401.210	1	-2
401.381	1	16
401.552	1	4
401.722	1	9
401.893	1	7
402.064	1	1
402.235	1	7
402.405	1	-3
402.576	1	-3
402.747	1	-3
402.918	1	0
403.088	1	6
403.259	1	5
403.430	1	10
403.601	1	1
403.771	1	2
403.942	1	3
404.113	1	-14
404.284	1	-9
404.454	1	-5
404.625	1	1
404.796	1	0
404.967	1	5
405.137	1	11
405.308	1	3
405.479	1	-6
405.649	1	9
405.820	1	3
405.991	1	-5
406.162	1	0
406.332	1	-20
406.503	1	6
406.674	1	12
406.845	1	-9
407.015	1	1
407.186	1	2
407.357	1	-4
407.527	1	1
407.698	1	-1
407.869	1	-6
408.040	1	6
408.210	1	3
408.381	1	-1
408.552	1	3
408.722	1	1
408.893	1	-1
409.064	1	0
409.235	1	3
409.405	1	-1
409.576	1	0
409.747	1	0
409.917	1	-5
410.088	1	4
410.259	1	0
410.430	1	-2
410.600	1	3
410.771	1	7
410.942	1	1
411.112	1	6
411.283	1	-1
411.454	1	10
411.625	1	-4
411.795	1	-1
411.966	1	3
412.137	1	-3
412.307	1	-3
412.478	1	-3
412.649	1	-1
412.819	1	-6
412.990	1	-8
413.161	1	7
413.332	1	-7
413.502	1	4
413.673	1	-3
413.844	1	3
414.014	1	1
414.185	1	-3
414.356	1	-2
414.526	1	3
414.697	1	0
414.868	1	-7
415.038	1	-9
415.209	1	-11
415.380	1	6
415.550	1	4
415.721	1	-2
415.892	1	4
416.063	1	7
416.233	1	-3
416.404	1	-4
416.575	1	-8
416.745	1	1
416.916	1	-5
417.087	1	0
417.257	1	15
417.428	1	1
417.599	1	1
417.769	1	0
417.940	1	-3
418.111	1	18
418.281	1	-13
418.452	1	3
418.623	1	1
418.793	1	2
418.964	1	-8
419.135	1	9
419.305	1	4
419.476	1	-6
419.647	1	8
419.817	1	-2
419.988	1	0
420.159	1	4
420.329	1	2
420.500	1	-1
420.671	1	-3
420.841	1	-7
421.012	1	1
421.183	1	1
421.353	1	4
421.524	1	5
421.695	1	-15
421.865	1	-2
422.036	1	2
422.206	1	-2
422.377	1	10
422.548	1	-2
422.718	1	8
422.889	1	-5
423.060	1	0
423.230	1	4
423.401	1	1
423.572	1	-1
423.742	1	-11
423.913	1	0
424.084	1	22
424.254	1	-10
424.425	1	-10
424.595	1	3
424.766	1	2
424.937	1	0
425.107	1	2
425.278	1	1
425.449	1	9
425.619	1	-5
425.790	1	2
425.961	1	-18
426.131	1	10
426.302	1	-6
426.472	1	5
426.643	1	-1
426.814	1	-2
426.984	1	-2
427.155	1	11
427.326	1	-3
427.496	1	-8
427.667	1	1
427.837	1	10
428.008	1	1
428.179	1	6
428.349	1	-11
428.520	1	4
428.691	1	-1
428.861	1	6
429.032	1	3
429.202	1	-3
429.373	1	6
429.544	1	-2
429.714	1	-8
429.885	1	-2
430.055	1	4
430.226	1	-4
430.397	1	1
430.567	1	4
430.738	1	-6
430.909	1	0
431.079	1	-6
431.250	1	9
431.420	1	-5
431.591	1	-2
431.762	1	8
431.932	1	-9
432.103	1	2
432.273	1	-3
432.444	1	6
432.615	1	2
432.785	1	3
432.956	1	5
433.126	1	0
433.297	1	-7
433.468	1	-2
433.638	1	-1
433.809	1	-5
433.979	1	-3
434.150	1	-5
434.320	1	1
434.491	1	-4
434.662	1	-5
434.832	1	4
435.003	1	-1
435.173	1	-2
435.344	1	-2
435.515	1	4
435.685	1	1
435.856	1	7
436.026	1	-10
436.197	1	-4
436.368	1	10
436.538	1	2
436.709	1	-3
436.879	1	-2
437.050	1	-2
437.220	1	-6
437.391	1	-4
437.562	1	3
437.732	1	2
437.903	1	13
438.073	1	-9
438.244	1	5
438.414	1	-15
438.585	1	-2
438.756	1	-5
438.926	1	7
439.097	1	1
439.267	1	0
439.438	1	-5
439.608	1	-1
439.779	1	7
439.949	1	6
440.120	1	-3
440.291	1	4
440.461	1	8
440.632	1	-6
440.802	1	3
440.973	1	-6
441.143	1	2
441.314	1	-9
441.485	1	-4
441.655	1	-1
441.826	1	6
441.996	1	-3
442.167	1	4
442.337	1	2
442.508	1	1
442.678	1	-5
442.849	1	-2
443.019	1	0
443.190	1	-7
443.361	1	5
443.531	1	1
443.702	1	-1
443.872	1	-2
444.043	1	-5
444.213	1	-1
444.384	1	9
444.554	1	-3
444.725	1	0
444.895	1	-9
445.066	1	11
445.237	1	-15
445.407	1	12
445.578	1	1
445.748	1	2
445.919	1	1
446.089	1	4
446.260	1	9
446.430	1	-5
446.601	1	-10
446.771	1	-12
446.942	1	6
447.112	1	10
447.283	1	6
447.453	1	-1
447.624	1	-6
447.794	1	0
447.965	1	0
448.135	1	-2
448.306	1	-2
448.477	1	2
448.647	1	2
448.818	1	12
448.988	1	9
449.159	1	-2
449.329	1	8
449.500	1	2
449.670	1	-12
449.841	1	-11
450.011	1	8
450.182	1	3
450.352	1	-4
450.523	1	5
450.693	1	0
450.864	1	6
451.034	1	0
451.205	1	6
451.375	1	9
451.546	1	-4
451.716	1	0
451.887	1	-14
452.057	1	-7
452.228	1	-1
452.398	1	7
452.569	1	7
452.739	1	4
452.910	1	9
453.080	1	4
453.251	1	6
453.421	1	-2
453.592	1	-10
453.762	1	-9
453.933	1	3
454.103	1	-6
454.274	1	2
454.444	1	-1
454.615	1	5
454.785	1	-4
454.956	1	2
455.126	1	6
455.297	1	-8
455.467	1	-6
455.638	1	2
455.808	1	-2
455.979	1	12
456.149	1	-5
456.320	1	-7
456.490	1	11
456.661	1	0
456.831	1	-8
457.001	1	9
457.172	1	0
457.342	1	-4
457.513	1	8
457.683	1	7
457.854	1	9
458.024	1	8
458.195	1	3
458.365	1	-9
458.536	1	-10
458.706	1	9
458.877	1	-1
459.047	1	-7
459.218	1	0
459.388	1	-1
459.559	1	3
459.729	1	7
459.899	1	-2
460.070	1	-1
460.240	1	-7
460.411	1	-6
460.581	1	3
460.752	1	-2
460.922	1	3
461.093	1	4
461.263	1	0
461.434	1	-11
461.604	1	3
461.775	1	5
461.945	1	0
462.115	1	8
462.286	1	-13
462.456	1	-9
462.627	1	3
462.797	1	0
462.968	1	3
463.138	1	6
463.309	1	0
463.479	1	-5
463.649	1	3
463.820	1	3
463.990	1	-13
464.161	1	-3
464.331	1	1
464.502	1	1
464.672	1	0
464.843	1	-3
465.013	1	7
465.183	1	12
465.354	1	-11
465.524	1	-2
465.695	1	1
465.865	1	10
466.036	1	-13
466.206	1	-1
466.376	1	0
466.547	1	4
466.717	1	3
466.888	1	-8
467.058	1	7
467.229	1	-2
467.399	1	5
467.569	1	9
467.740	1	1
467.910	1	-11
468.081	1	-6
468.251	1	-1
468.422	1	0
468.592	1	-5
468.762	1	13
468.933	1	-6
469.103	1	8
469.274	1	0
469.444	1	-6
469.614	1	10
469.785	1	-4
469.955	1	7
470.126	1	2
470.296	1	3
470.467	1	-1
470.637	1	-1
470.807	1	0
470.978	1	-4
471.148	1	-4
471.319	1	0
471.489	1	2
471.659	1	-1
471.830	1	-4
472.000	1	3
472.171	1	2
472.341	1	6
472.511	1	5
472.682	1	-6
472.852	1	11
473.023	1	-4
473.193	1	2
473.363	1	-5
473.534	1	5
473.704	1	3
473.875	1	1
474.045	1	1
474.215	1	12
474.386	1	-5
474.556	1	1
474.727	1	6
474.897	1	3
475.067	1	1
475.238	1	1
475.408	1	4
475.578	1	0
475.749	1	-5
475.919	1	-1
476.090	1	-4
476.260	1	11
476.430	1	-1
476.601	1	11
476.771	1	11
476.942	1	-8
477.112	1	-15
477.282	1	11
477.453	1	3
477.623	1	2
477.793	1	-1
477.964	1	7
478.134	1	0
478.305	1	-8
478.475	1	-3
478.645	1	-1
478.816	1	-1
478.986	1	2
479.156	1	7
479.327	1	-10
479.497	1	0
479.667	1	5
479.838	1	2
480.008	1	0
480.179	1	-8
480.349	1	2
480.519	1	5
480.690	1	-3
480.860	1	0
481.030	1	3
481.201	1	8
481.371	1	2
481.541	1	4
481.712	1	-2
481.882	1	6
482.053	1	-5
482.223	1	2
482.393	1	-3
482.564	1	4
482.734	1	6
482.904	1	4
483.075	1	7
483.245	1	-2
483.415	1	-4
483.586	1	-1
483.756	1	-4
483.926	1	-4
484.097	1	-8
484.267	1	3
484.437	1	-4
484.608	1	1
484.778	1	-11
484.948	1	-1
485.119	1	7
485.289	1	3
485.459	1	-2
485.630	1	-3
485.800	1	-3
485.970	1	-2
486.141	1	9
486.311	1	10
486.481	1	8
486.652	1	5
486.822	1	3
486.992	1	-2
487.163	1	0
487.333	1	-7
487.503	1	6
487.674	1	1
487.844	1	10
488.014	1	0
488.185	1	-1
488.355	1	-5
488.525	1	2
488.696	1	1
488.866	1	6
489.036	1	6
489.207	1	1
489.377	1	2
489.547	1	4
489.718	1	9
489.888	1	-5
490.058	1	5
490.228	1	2
490.399	1	7
490.569	1	-3
490.739	1	-1
490.910	1	1
491.080	1	3
491.250	1	7
491.421	1	5
491.591	1	-1
491.761	1	-4
491.932	1	9
492.102	1	-3
492.272	1	7
492.442	1	-3
492.613	1	2
492.783	1	3
492.953	1	4
493.124	1	-6
493.294	1	-5
493.464	1	1
493.635	1	0
493.805	1	3
493.975	1	4
494.145	1	5
494.316	1	-2
494.486	1	9
494.656	1	5
494.827	1	0
494.997	1	-6
495.167	1	5
495.337	1	-4
495.508	1	4
495.678	1	-5
495.848	1	-2
496.019	1	-4
496.189	1	-9
496.359	1	6
496.529	1	-1
496.700	1	7
496.870	1	-1
497.040	1	-10
497.211	1	5
497.381	1	0
497.551	1	9
497.721	1	-8
497.892	1	7
498.062	1	5
498.232	1	5
498.403	1	0
498.573	1	-11
498.743	1	3
498.913	1	5
499.084	1	1
499.254	1	2
499.424	1	4
499.594	1	5
499.765	1	-11
499.935	1	-2
500.105	1	-2
500.275	1	4
500.446	1	-1
500.616	1	-4
500.786	1	-5
500.956	1	3
501.127	1	-6
501.297	1	12
501.467	1	0
501.638	1	-7
501.808	1	-8
501.978	1	-1
502.148	1	9
502.319	1	9
502.489	1	3
502.659	1	7
502.829	1	-5
503.000	1	4
503.170	1	10
503.340	1	10
503.510	1	4
503.681	1	7
503.851	1	1
504.021	1	3
504.191	1	-2
504.362	1	1
504.532	1	-8
504.702	1	-5
504.872	1	-2
505.042	1	-1
505.213	1	-2
505.383	1	4
505.553	1	0
505.723	1	-5
505.894	1	2
506.064	1	-5
506.234	1	-2
506.404	1	12
506.575	1	7
506.745	1	4
506.915	1	4
507.085	1	-10
507.256	1	-4
507.426	1	-3
507.596	1	2
507.766	1	4
507.936	1	12
508.107	1	2
508.277	1	-8
508.447	1	2
508.617	1	5
508.788	1	-6
508.958	1	5
509.128	1	-1
509.298	1	5
509.468	1	0
509.639	1	10
509.809	1	1
509.979	1	6
510.149	1	0
510.319	1	-10
510.490	1	-1
510.660	1	-8
510.830	1	6
511.000	1	11
511.171	1	3
511.341	1	0
511.511	1	-1
511.681	1	1
511.851	1	1
512.022	1	5
512.192	1	12
512.362	1	-1
512.532	1	-4
512.702	1	-3
512.873	1	3
513.043	1	2
513.213	1	0
513.383	1	9
513.553	1	0
513.724	1	4
513.894	1	-8
514.064	1	6
514.234	1	1
514.404	1	1
514.575	1	-5
514.745	1	3
514.915	1	0
515.085	1	-1
515.255	1	-6
515.425	1	6
515.596	1	-1
515.766	1	1
515.936	1	3
516.106	1	0
516.276	1	-2
516.447	1	-2
516.617	1	2
516.787	1	8
516.957	1	-8
517.127	1	1
517.297	1	4
517.468	1	-4
517.638	1	-6
517.808	1	14
517.978	1	9
518.148	1	3
518.319	1	5
518.489	1	10
518.659	1	-1
518.829	1	-10
518.999	1	3
519.169	1	5
519.340	1	17
519.510	1	8
519.680	1	1
519.850	1	-1
520.020	1	-6
520.190	1	-3
520.361	1	2
520.531	1	0
520.701	1	2
520.871	1	-5
521.041	1	3
521.211	1	-2
521.382	1	7
521.552	1	2
521.722	1	-2
521.892	1	-1
522.062	1	1
522.232	1	-12
522.402	1	1
522.573	1	3
522.743	1	12
522.913	1	7
523.083	1	5
523.253	1	10
523.423	1	-1
523.593	1	-6
523.764	1	1
523.934	1	3
524.104	1	-1
524.274	1	-5
524.444	1	-2
524.614	1	1
524.784	1	11
524.955	1	-2
525.125	1	12
525.295	1	-4
525.465	1	-6
525.635	1	6
525.805	1	6
525.975	1	-7
526.146	1	-7
526.316	1	1
526.486	1	7
526.656	1	10
526.826	1	-4
526.996	1	8
527.166	1	-4
527.337	1	0
527.507	1	1
527.677	1	-8
527.847	1	-5
528.017	1	3
528.187	1	-2
528.357	1	5
528.527	1	-1
528.698	1	1
528.868	1	6
529.038	1	1
529.208	1	6
529.378	1	-3
529.548	1	-3
529.718	1	4
529.888	1	1
530.058	1	3
530.229	1	7
530.399	1	7
530.569	1	2
530.739	1	3
530.909	1	3
531.079	1	3
531.249	1	-2
531.419	1	1
531.589	1	-2
531.760	1	-10
531.930	1	7
532.100	1	1
532.270	1	1
532.440	1	1
532.610	1	12
532.780	1	-4
532.950	1	-12
533.120	1	4
533.290	1	6
533.461	1	3
533.631	1	4
533.801	1	2
533.971	1	4
534.141	1	-3
534.311	1	-2
534.481	1	4
534.651	1	2
534.821	1	3
534.991	1	-10
535.162	1	2
535.332	1	10
535.502	1	-4
535.672	1	0
535.842	1	-1
536.012	1	0
536.182	1	11
536.352	1	1
536.522	1	2
536.692	1	5
536.862	1	4
537.032	1	-7
537.203	1	-1
537.373	1	-5
537.543	1	-1
537.713	1	11
537.883	1	7
538.053	1	6
538.223	1	3
538.393	1	20
538.563	1	-8
538.733	1	-3
538.903	1	7
539.073	1	5
539.243	1	-6
539.413	1	-9
539.584	1	2
539.754	1	-5
539.924	1	-1
540.094	1	-1
540.264	1	9
540.434	1	-2
540.604	1	-1
540.774	1	0
540.944	1	-2
541.114	1	-2
541.284	1	6
541.454	1	3
541.624	1	0
541.794	1	-6
541.964	1	-1
542.134	1	-1
542.305	1	3
542.475	1	-6
542.645	1	-8
542.815	1	2
542.985	1	8
543.155	1	-1
543.325	1	2
543.495	1	0
543.665	1	9
543.835	1	-4
544.005	1	4
544.175	1	-3
544.345	1	1
544.515	1	9
544.685	1	5
544.855	1	-1
545.025	1	0
545.195	1	-2
545.365	1	-5
545.535	1	-6
545.705	1	8
545.875	1	3
546.045	1	4
546.216	1	8
546.386	1	-9
546.556	1	-2
546.726	1	3
546.896	1	6
547.066	1	14
547.236	1	2
547.406	1	-3
547.576	1	-1
547.746	1	-5
547.916	1	-2
548.086	1	-5
548.256	1	8
548.426	1	2
548.596	1	-4
548.766	1	4
548.936	1	-10
549.106	1	2
549.276	1	0
549.446	1	0
549.616	1	16
549.786	1	3
549.956	1	4
550.126	1	-2
550.296	1	6
550.466	1	3
550.636	1	-6
550.806	1	-4
550.976	1	1
551.146	1	6
551.316	1	-4
551.486	1	-1
551.656	1	11
551.826	1	7
551.996	1	-2
552.166	1	-2
552.336	1	2
552.506	1	3
552.676	1	7
552.846	1	-1
553.016	1	4
553.186	1	-1
553.356	1	6
553.526	1	-5
553.696	1	9
553.866	1	-3
554.036	1	-7
554.206	1	7
554.376	1	-3
554.546	1	-9
554.716	1	5
554.886	1	1
555.056	1	-3
555.226	1	-5
555.396	1	0
555.566	1	-4
555.736	1	-6
555.906	1	-6
556.076	1	-4
556.246	1	-2
556.416	1	2
556.586	1	-1
556.756	1	0
556.926	1	3
557.096	1	-5
557.266	1	8
557.436	1	-12
557.606	1	14
557.776	1	-3
557.946	1	1
558.116	1	-7
558.286	1	0
558.456	1	-13
558.626	1	9
558.796	1	2
558.966	1	4
559.136	1	4
559.306	1	10
559.476	1	-6
559.646	1	0
559.816	1	-5
559.986	1	3
560.155	1	2
560.325	1	-8
560.495	1	2
560.665	1	6
560.835	1	2
561.005	1	3
561.175	1	-4
561.345	1	-1
561.515	1	2
561.685	1	1
561.855	1	7
562.025	1	-9
562.195	1	-2
562.365	1	-3
562.535	1	-1
562.705	1	9
562.875	1	4
563.045	1	-11
563.215	1	-9
563.385	1	12
563.555	1	2
563.725	1	-4
563.895	1	5
564.064	1	3
564.234	1	-4
564.404	1	-1
564.574	1	-3
564.744	1	2
564.914	1	-4
565.084	1	6
565.254	1	3
565.424	1	-1
565.594	1	1
565.764	1	3
565.934	1	-7
566.104	1	-2
566.274	1	5
566.444	1	4
566.614	1	-10
566.783	1	0
566.953	1	1
567.123	1	4
567.293	1	11
567.463	1	-5
567.633	1	-1
567.803	1	9
567.973	1	1
568.143	1	-1
568.313	1	2
568.483	1	5
568.653	1	6
568.823	1	-1
568.993	1	-2
569.162	1	3
569.332	1	12
569.502	1	6
569.672	1	6
569.842	1	-2
570.012	1	-8
570.182	1	-8
570.352	1	2
570.522	1	1
570.692	1	3
570.862	1	-2
571.031	1	8
571.201	1	1
571.371	1	3
571.541	1	-7
571.711	1	-6
571.881	1	-3
572.051	1	-9
572.221	1	2
572.391	1	8
572.561	1	-11
572.731	1	-1
572.900	1	2
573.070	1	2
573.240	1	-3
573.410	1	2
573.580	1	2
573.750	1	4
573.920	1	18
574.090	1	-4
574.260	1	3
574.430	1	7
574.599	1	-1
574.769	1	-15
574.939	1	1
575.109	1	-6
575.279	1	-10
575.449	1	-1
575.619	1	7
575.789	1	3
575.959	1	-5
576.128	1	2
576.298	1	5
576.468	1	5
576.638	1	6
576.808	1	2
576.978	1	-9
577.148	1	-4
577.318	1	5
577.487	1	2
577.657	1	5
577.827	1	-3
577.997	1	5
578.167	1	-9
578.337	1	5
578.507	1	13
578.677	1	-2
578.846	1	-6
579.016	1	-5
579.186	1	2
579.356	1	7
579.526	1	-11
579.696	1	-10
579.866	1	8
580.036	1	-3
580.205	1	6
580.375	1	-2
580.545	1	-5
580.715	1	1
580.885	1	-4
581.055	1	9
581.225	1	-7
581.394	1	9
581.564	1	2
581.734	1	12
581.904	1	-2
582.074	1	1
582.244	1	-9
582.414	1	-9
582.583	1	7
582.753	1	-4
582.923	1	5
583.093	1	2
583.263	1	7
583.433	1	9
583.603	1	-3
583.772	1	-5
583.942	1	12
584.112	1	5
584.282	1	-13
584.452	1	-8
584.622	1	14
584.791	1	5
584.961	1	-7
585.131	1	5
585.301	1	-3
585.471	1	0
585.641	1	-2
585.811	1	-10
585.980	1	2
586.150	1	-3
586.320	1	-1
586.490	1	1
586.660	1	-10
586.830	1	-12
586.999	1	2
587.169	1	8
587.339	1	-3
587.509	1	5
587.679	1	2
587.849	1	4
588.018	1	5
588.188	1	-1
588.358	1	7
588.528	1	-5
588.698	1	-6
588.867	1	5
589.037	1	-14
589.207	1	0
589.377	1	-11
589.547	1	3
589.717	1	13
589.886	1	-8
590.056	1	0
590.226	1	-2
590.396	1	5
590.566	1	-1
590.735	1	2
590.905	1	0
591.075	1	4
591.245	1	-9
591.415	1	-6
591.585	1	-7
591.754	1	8
591.924	1	-6
592.094	1	-3
592.264	1	-5
592.434	1	-6
592.603	1	-7
592.773	1	11
592.943	1	3
593.113	1	-1
593.283	1	4
593.452	1	-5
593.622	1	-15
593.792	1	-4
593.962	1	0
594.132	1	2
594.301	1	4
594.471	1	9
594.641	1	7
594.811	1	-2
594.981	1	15
595.150	1	-1
595.320	1	5
595.490	1	-7
595.660	1	3
595.829	1	6
595.999	1	4
596.169	1	5
596.339	1	6
596.509	1	1
596.678	1	-10
596.848	1	-1
597.018	1	-6
597.188	1	3
597.358	1	-14
597.527	1	6
597.697	1	-1
597.867	1	-7
598.037	1	-4
598.206	1	-3
598.376	1	-7
598.546	1	-6
598.716	1	7
598.885	1	5
599.055	1	-1
599.225	1	0
599.395	1	-1
599.565	1	1
599.734	1	2
599.904	1	0
600.074	1	4
600.244	1	-3
600.413	1	-5
600.583	1	2
600.753	1	9
600.923	1	5
601.092	1	4
601.262	1	-1
601.432	1	-6
601.602	1	-4
601.771	1	9
601.941	1	0
602.111	1	-5
602.281	1	1
602.451	1	-3
602.620	1	-6
602.790	1	11
602.960	1	1
603.130	1	-4
603.299	1	1
603.469	1	1
603.639	1	2
603.809	1	0
603.978	1	1
604.148	1	-6
604.318	1	-2
604.487	1	2
604.657	1	4
604.827	1	-4
604.997	1	0
605.166	1	4
605.336	1	-1
605.506	1	6
605.676	1	-7
605.845	1	2
606.015	1	-4
606.185	1	3
606.355	1	9
606.524	1	0
606.694	1	-14
606.864	1	0
607.034	1	6
607.203	1	-2
607.373	1	-4
607.543	1	3
607.712	1	-8
607.882	1	-9
608.052	1	-5
608.222	1	6
608.391	1	0
608.561	1	-1
608.731	1	-3
608.901	1	-1
609.070	1	5
609.240	1	-2
609.410	1	6
609.579	1	5
609.749	1	-2
609.919	1	-6
610.089	1	3
610.258	1	-4
610.428	1	9
610.598	1	11
610.767	1	0
610.937	1	-1
611.107	1	-6
611.277	1	0
611.446	1	-9
611.616	1	1
611.786	1	0
611.955	1	-3
612.125	1	-2
612.295	1	3
612.465	1	1
612.634	1	1
612.804	1	10
612.974	1	-3
613.143	1	-10
613.313	1	-9
613.483	1	-1
613.652	1	12
613.822	1	-1
613.992	1	2
614.162	1	10
614.331	1	0
614.501	1	-6
614.671	1	0
614.840	1	-5
615.010	1	1
615.180	1	1
615.349	1	2
615.519	1	-7
615.689	1	0
615.858	1	-5
616.028	1	2
616.198	1	-9
616.368	1	-2
616.537	1	-5
616.707	1	4
616.877	1	6
617.046	1	-1
617.216	1	11
617.386	1	7
617.555	1	0
617.725	1	5
617.895	1	-5
618.064	1	-5
618.234	1	6
618.404	1	2
618.573	1	-9
618.743	1	4
618.913	1	10
619.082	1	5
619.252	1	-2
619.422	1	-4
619.591	1	8
619.761	1	1
619.931	1	-6
620.100	1	0
620.270	1	-1
620.440	1	0
620.609	1	-6
620.779	1	2
620.949	1	4
621.118	1	-6
621.288	1	12
621.458	1	-3
621.627	1	7
621.797	1	2
621.967	1	-1
622.136	1	-3
622.306	1	-2
622.476	1	-4
622.645	1	4
622.815	1	0
622.985	1	-2
623.154	1	4
623.324	1	1
623.494	1	-2
623.663	1	-2
623.833	1	7
624.002	1	-1
624.172	1	-10
624.342	1	2
624.511	1	10
624.681	1	-1
624.851	1	5
625.020	1	4
625.190	1	16
625.360	1	2
625.529	1	4
625.699	1	3
625.869	1	5
626.038	1	-4
626.208	1	2
626.377	1	3
626.547	1	3
626.717	1	0
626.886	1	-3
627.056	1	-1
627.226	1	2
627.395	1	-6
627.565	1	-1
627.735	1	-11
627.904	1	0
628.074	1	-2
628.243	1	-5
628.413	1	-1
628.583	1	-8
628.752	1	-5
628.922	1	-10
629.091	1	-14
629.261	1	3
629.431	1	10
629.600	1	-5
629.770	1	0
629.940	1	-6
630.109	1	-2
630.279	1	-3
630.448	1	-2
630.618	1	-11
630.788	1	10
630.957	1	5
631.127	1	-2
631.297	1	1
631.466	1	1
631.636	1	3
631.805	1	3
631.975	1	-7
632.145	1	3
632.314	1	-3
632.484	1	6
632.653	1	8
632.823	1	1
632.993	1	-9
633.162	1	0
633.332	1	-4
633.501	1	-1
633.671	1	4
633.841	1	-1
634.010	1	3
634.180	1	-3
634.349	1	-12
634.519	1	8
634.689	1	6
634.858	1	9
635.028	1	3
635.197	1	2
635.367	1	-4
635.537	1	-4
635.706	1	-1
635.876	1	4
636.045	1	8
636.215	1	3
636.384	1	0
636.554	1	-10
636.724	1	9
636.893	1	-5
637.063	1	1
637.232	1	2
637.402	1	4
637.572	1	2
637.741	1	-2
637.911	1	0
638.080	1	1
638.250	1	9
638.419	1	-15
638.589	1	12
638.759	1	-5
638.928	1	7
639.098	1	4
639.267	1	4
639.437	1	-9
639.606	1	-1
639.776	1	-3
639.946	1	0
640.115	1	-6
640.285	1	-1
640.454	1	-3
640.624	1	1
640.793	1	-4
640.963	1	-4
641.132	1	1
641.302	1	-3
641.472	1	-5
641.641	1	-4
641.811	1	14
641.980	1	-14
642.150	1	-11
642.319	1	6
642.489	1	-7
642.659	1	-5
642.828	1	-3
642.998	1	7
643.167	1	2
643.337	1	-3
643.506	1	0
643.676	1	5
643.845	1	13
644.015	1	-3
644.184	1	7
644.354	1	-2
644.524	1	-8
644.693	1	-7
644.863	1	-8
645.032	1	4
645.202	1	3
645.371	1	3
645.541	1	5
645.710	1	4
645.880	1	-3
646.049	1	12
646.219	1	2
646.388	1	-9
646.558	1	3
646.728	1	5
646.897	1	4
647.067	1	3
647.236	1	3
647.406	1	5
647.575	1	-8
647.745	1	0
647.914	1	6
648.084	1	2
648.253	1	4
648.423	1	4
648.592	1	-8
648.762	1	0
648.931	1	6
649.101	1	-1
649.270	1	3
649.440	1	-8
649.610	1	5
649.779	1	-6
649.949	1	0
650.118	1	-8
650.288	1	-4
650.457	1	-5
650.627	1	-5
650.796	1	3
650.966	1	3
651.135	1	-9
651.305	1	1
651.474	1	5
651.644	1	1
651.813	1	9
651.983	1	8
652.152	1	-1
652.322	1	6
652.491	1	8
652.661	1	-1
652.830	1	-3
653.000	1	-3
653.169	1	-1
653.339	1	-4
653.508	1	7
653.678	1	1
653.847	1	3
654.017	1	-2
654.186	1	10
654.356	1	0
654.525	1	-5
654.695	1	11
654.864	1	7
655.034	1	2
655.203	1	2
655.373	1	-3
655.542	1	-6
655.712	1	-6
655.881	1	-9
656.051	1	7
656.220	1	-1
656.390	1	-3
656.559	1	-8
656.729	1	6
656.898	1	5
657.068	1	-1
657.237	1	-5
657.406	1	1
657.576	1	3
657.745	1	-3
657.915	1	-6
658.084	1	-9
658.254	1	17
658.423	1	3
658.593	1	-4
658.762	1	-9
658.932	1	-8
659.101	1	11
659.271	1	2
659.440	1	6
659.610	1	1
659.779	1	2
659.949	1	-4
660.118	1	2
660.288	1	0
660.457	1	8
660.626	1	-1
660.796	1	0
660.965	1	11
661.135	1	-11
661.304	1	3
661.474	1	6
661.643	1	2
661.813	1	-5
661.982	1	7
662.152	1	3
662.321	1	3
662.491	1	-8
662.660	1	-6
662.829	1	2
662.999	1	10
663.168	1	-2
663.338	1	4
663.507	1	1
663.677	1	-9
663.846	1	-6
664.016	1	13
664.185	1	6
664.354	1	2
664.524	1	4
664.693	1	-8
664.863	1	-2
665.032	1	-2
665.202	1	19
665.371	1	3
665.541	1	-3
665.710	1	-2
665.879	1	-2
666.049	1	2
666.218	1	8
666.388	1	8
666.557	1	1
666.727	1	2
666.896	1	-6
667.065	1	4
667.235	1	-6
667.404	1	1
667.574	1	-13
667.743	1	-6
667.913	1	-10
668.082	1	18
668.251	1	-3
668.421	1	6
668.590	1	-7
668.760	1	-2
668.929	1	-5
669.099	1	9
669.268	1	-7
669.437	1	2
669.607	1	3
669.776	1	0
669.946	1	-1
670.115	1	4
670.285	1	14
670.454	1	-4
670.623	1	1
670.793	1	0
670.962	1	-12
671.132	1	1
671.301	1	2
671.470	1	1
671.640	1	2
671.809	1	-10
671.979	1	-4
672.148	1	-12
672.317	1	2
672.487	1	-2
672.656	1	-1
672.826	1	-6
672.995	1	-5
673.164	1	-5
673.334	1	-3
673.503	1	-7
673.673	1	0
673.842	1	4
674.011	1	7
674.181	1	3
674.350	1	16
674.520	1	-5
674.689	1	4
674.858	1	-5
675.028	1	-6
675.197	1	1
675.367	1	-5
675.536	1	-8
675.705	1	4
675.875	1	-4
676.044	1	11
676.214	1	-2
676.383	1	-4
676.552	1	1
676.722	1	5
676.891	1	6
677.060	1	-4
677.230	1	11
677.399	1	-4
677.569	1	-3
677.738	1	4
677.907	1	-1
678.077	1	13
678.246	1	-4
678.416	1	1
678.585	1	-9
678.754	1	5
678.924	1	3
679.093	1	3
679.262	1	0
679.432	1	9
679.601	1	2
679.771	1	8
679.940	1	5
680.109	1	-8
680.279	1	4
680.448	1	2
680.617	1	-6
680.787	1	-6
680.956	1	-4
681.125	1	1
681.295	1	-1
681.464	1	2
681.634	1	2
681.803	1	-2
681.972	1	-10
682.142	1	-6
682.311	1	-8
682.480	1	1
682.650	1	-3
682.819	1	5
682.988	1	0
683.158	1	-2
683.327	1	9
683.496	1	11
683.666	1	-3
683.835	1	-5
684.004	1	6
684.174	1	-3
684.343	1	2
684.512	1	0
684.682	1	9
684.851	1	-3
685.021	1	-8
685.190	1	-6
685.359	1	-7
685.529	1	7
685.698	1	-1
685.867	1	-5
686.037	1	-8
686.206	1	-1
686.375	1	4
686.545	1	8
686.714	1	-3
686.883	1	2
687.053	1	0
687.222	1	-8
687.391	1	3
687.561	1	-3
687.730	1	1
687.899	1	-9
688.069	1	3
688.238	1	0
688.407	1	-18
688.577	1	11
688.746	1	-8
