340.368	1	-4
340.539	1	9
340.710	1	-10
340.881	1	-3
341.052	1	0
341.223	1	-11
341.394	1	0
341.565	1	-1
341.737	1	-6
341.908	1	8
342.079	1	-1
342.250	1	5
342.421	1	6
342.592	1	-5
342.763	1	6
342.934	1	-6
343.105	1	7
343.276	1	0
343.447	1	-8
343.618	1	6
343.789	1	9
343.960	1	1
344.131	1	3
344.302	1	-1
344.473	1	0
344.644	1	-2
344.815	1	12
344.986	1	-1
345.157	1	-8
345.328	1	1
345.499	1	-1
345.670	1	13
345.841	1	1
346.012	1	10
346.183	1	2
346.354	1	-3
346.526	1	5
346.697	1	11
346.868	1	5
347.039	1	-2
347.210	1	0
347.381	1	1
347.552	1	4
347.723	1	1
347.894	1	-6
348.065	1	-13
348.236	1	-7
348.407	1	5
348.578	1	0
348.749	1	13
348.920	1	4
349.091	1	7
349.262	1	6
349.433	1	6
349.604	1	8
349.775	1	8
349.946	1	4
350.117	1	-11
350.288	1	-8
350.459	1	-1
350.630	1	20
350.801	1	-1
350.972	1	3
351.143	1	-2
351.314	1	11
351.485	1	2
351.656	1	-5
351.827	1	6
351.998	1	0
352.169	1	-1
352.340	1	2
352.511	1	8
352.682	1	-5
352.853	1	2
353.024	1	2
353.195	1	14
353.366	1	6
353.537	1	-1
353.708	1	7
353.879	1	0
354.050	1	-2
354.221	1	2
354.392	1	-1
354.563	1	-2
354.734	1	11
354.905	1	14
355.076	1	3
355.247	1	1
355.418	1	-9
355.589	1	-8
355.760	1	0
355.931	1	-4
356.102	1	8
356.273	1	-2
356.444	1	-6
356.615	1	-5
356.785	1	1
356.956	1	8
357.127	1	3
357.298	1	7
357.469	1	-1
357.640	1	1
357.811	1	8
357.982	1	2
358.153	1	8
358.324	1	7
358.495	1	5
358.666	1	8
358.837	1	9
359.008	1	7
359.179	1	-2
359.350	1	7
359.521	1	9
359.692	1	14
359.863	1	13
360.034	1	-4
360.205	1	8
360.376	1	3
360.547	1	16
360.718	1	1
360.889	1	4
361.060	1	-3
361.231	1	9
361.401	1	-1
361.572	1	9
361.743	1	5
361.914	1	0
362.085	1	1
362.256	1	7
362.427	1	-3
362.598	1	9
362.769	1	-5
362.940	1	12
363.111	1	10
363.282	1	7
363.453	1	3
363.624	1	6
363.795	1	3
363.966	1	3
364.137	1	12
364.308	1	11
364.478	1	7
364.649	1	5
364.820	1	6
364.991	1	15
365.162	1	19
365.333	1	12
365.504	1	6
365.675	1	23
365.846	1	-2
366.017	1	10
366.188	1	6
366.359	1	10
366.530	1	16
366.701	1	11
366.871	1	14
367.042	1	12
367.213	1	14
367.384	1	21
367.555	1	18
367.726	1	22
367.897	1	10
368.068	1	14
368.239	1	11
368.410	1	26
368.581	1	20
368.752	1	12
368.923	1	14
369.093	1	-2
369.264	1	13
369.435	1	6
369.606	1	16
369.777	1	20
369.948	1	18
370.119	1	11
370.290	1	23
370.461	1	20
370.632	1	11
370.803	1	3
370.973	1	21
371.144	1	3
371.315	1	19
371.486	1	7
371.657	1	13
371.828	1	15
371.999	1	13
372.170	1	21
372.341	1	21
372.512	1	8
372.682	1	8
372.853	1	18
373.024	1	5
373.195	1	8
373.366	1	9
373.537	1	30
373.708	1	6
373.879	1	23
374.050	1	8
374.220	1	12
374.391	1	7
374.562	1	6
374.733	1	10
374.904	1	1
375.075	1	1
375.246	1	6
375.417	1	11
375.588	1	9
375.758	1	18
375.929	1	7
376.100	1	11
376.271	1	19
376.442	1	19
376.613	1	9
376.784	1	-2
376.955	1	9
377.125	1	12
377.296	1	-3
377.467	1	10
377.638	1	-1
377.809	1	11
377.980	1	-6
378.151	1	0
378.321	1	-5
378.492	1	2
378.663	1	4
378.834	1	7
379.005	1	5
379.176	1	2
379.347	1	-2
379.518	1	3
379.688	1	4
379.859	1	10
380.030	1	2
380.201	1	-4
380.372	1	4
380.543	1	5
380.714	1	14
380.884	1	3
381.055	1	3
381.226	1	14
381.397	1	8
381.568	1	18
381.739	1	-1
381.910	1	8
382.080	1	-3
382.251	1	1
382.422	1	8
382.593	1	5
382.764	1	8
382.935	1	1
383.105	1	10
383.276	1	14
383.447	1	13
383.618	1	14
383.789	1	18
383.960	1	17
384.130	1	-1
384.301	1	-1
384.472	1	-3
384.643	1	5
384.814	1	13
384.985	1	3
385.156	1	5
385.326	1	5
385.497	1	5
385.668	1	10
385.839	1	-5
386.010	1	2
386.180	1	18
386.351	1	-7
386.522	1	9
386.693	1	-8
386.864	1	4
387.035	1	3
387.205	1	6
387.376	1	5
387.547	1	11
387.718	1	2
387.889	1	3
388.060	1	6
388.230	1	1
388.401	1	-5
388.572	1	11
388.743	1	9
388.914	1	-1
389.084	1	1
389.255	1	9
389.426	1	7
389.597	1	7
389.768	1	3
389.939	1	0
390.109	1	6
390.280	1	2
390.451	1	1
390.622	1	0
390.793	1	7
390.963	1	7
391.134	1	2
391.305	1	-2
391.476	1	12
391.647	1	-5
391.817	1	9
391.988	1	12
392.159	1	6
392.330	1	6
392.501	1	2
392.671	1	5
392.842	1	0
393.013	1	7
393.184	1	3
393.355	1	7
393.525	1	11
393.696	1	6
393.867	1	6
394.038	1	2
394.208	1	4
394.379	1	-3
394.550	1	15
394.721	1	4
394.892	1	-3
395.062	1	-4
395.233	1	2
395.404	1	8
395.575	1	5
395.746	1	10
395.916	1	-3
396.087	1	4
396.258	1	-1
396.429	1	8
396.599	1	-5
396.770	1	12
396.941	1	0
397.112	1	-3
397.283	1	8
397.453	1	6
397.624	1	14
397.795	1	1
397.966	1	3
398.136	1	1
398.307	1	7
398.478	1	-7
398.649	1	6
398.819	1	4
398.990	1	-7
399.161	1	-11
399.332	1	8
399.503	1	4
399.673	1	1
399.844	1	-6
400.015	1	11
400.186	1	-1
400.356	1	-9
400.527	1	18
400.698	1	0
400.869	1	3
401.039	1	2
401.210	1	2
401.381	1	11
401.552	1	0
401.722	1	9
401.893	1	2
402.064	1	-3
402.235	1	-3
402.405	1	-6
402.576	1	8
402.747	1	-1
402.918	1	0
403.088	1	3
403.259	1	9
403.430	1	0
403.601	1	9
403.771	1	4
403.942	1	10
404.113	1	10
404.284	1	-11
404.454	1	-2
404.625	1	4
404.796	1	9
404.967	1	11
405.137	1	9
405.308	1	10
405.479	1	-10
405.649	1	3
405.820	1	5
405.991	1	8
406.162	1	8
406.332	1	-8
406.503	1	5
406.674	1	15
406.845	1	3
407.015	1	2
407.186	1	-7
407.357	1	5
407.527	1	0
407.698	1	9
407.869	1	-1
408.040	1	4
408.210	1	0
408.381	1	9
408.552	1	5
408.722	1	-4
408.893	1	-2
409.064	1	4
409.235	1	0
409.405	1	1
409.576	1	0
409.747	1	-5
409.917	1	-5
410.088	1	6
410.259	1	6
410.430	1	2
410.600	1	-9
410.771	1	2
410.942	1	4
411.112	1	0
411.283	1	5
411.454	1	10
411.625	1	-10
411.795	1	8
411.966	1	-1
412.137	1	-15
412.307	1	-2
412.478	1	-1
412.649	1	0
412.819	1	-4
412.990	1	1
413.161	1	4
413.332	1	-4
413.502	1	3
413.673	1	-11
413.844	1	8
414.014	1	-2
414.185	1	-6
414.356	1	-7
414.526	1	-1
414.697	1	6
414.868	1	-1
415.038	1	4
415.209	1	-10
415.380	1	-1
415.550	1	9
415.721	1	-1
415.892	1	7
416.063	1	2
416.233	1	3
416.404	1	4
416.575	1	2
416.745	1	3
416.916	1	-7
417.087	1	3
417.257	1	-2
417.428	1	-2
417.599	1	-3
417.769	1	5
417.940	1	-3
418.111	1	11
418.281	1	-3
418.452	1	6
418.623	1	-4
418.793	1	-7
418.964	1	-6
419.135	1	6
419.305	1	-4
419.476	1	-1
419.647	1	-9
419.817	1	-4
419.988	1	2
420.159	1	4
420.329	1	4
420.500	1	1
420.671	1	-4
420.841	1	-1
421.012	1	-3
421.183	1	-5
421.353	1	0
421.524	1	6
421.695	1	-9
421.865	1	3
422.036	1	5
422.206	1	7
422.377	1	5
422.548	1	8
422.718	1	15
422.889	1	3
423.060	1	3
423.230	1	7
423.401	1	-2
423.572	1	-2
423.742	1	1
423.913	1	1
424.084	1	15
424.254	1	3
424.425	1	-5
424.595	1	2
424.766	1	-7
424.937	1	9
425.107	1	4
425.278	1	1
425.449	1	0
425.619	1	-9
425.790	1	4
425.961	1	-7
426.131	1	9
426.302	1	-1
426.472	1	2
426.643	1	12
426.814	1	-7
426.984	1	-3
427.155	1	10
427.326	1	10
427.496	1	1
427.667	1	3
427.837	1	4
428.008	1	18
428.179	1	3
428.349	1	-4
428.520	1	-6
428.691	1	5
428.861	1	-3
429.032	1	8
429.202	1	-5
429.373	1	8
429.544	1	0
429.714	1	2
429.885	1	-1
430.055	1	-1
430.226	1	3
430.397	1	1
430.567	1	8
430.738	1	-5
430.909	1	-8
431.079	1	-6
431.250	1	10
431.420	1	1
431.591	1	0
431.762	1	5
431.932	1	1
432.103	1	7
432.273	1	2
432.444	1	13
432.615	1	1
432.785	1	1
432.956	1	1
433.126	1	-6
433.297	1	-1
433.468	1	-2
433.638	1	9
433.809	1	2
433.979	1	-1
434.150	1	4
434.320	1	11
434.491	1	-7
434.662	1	-8
434.832	1	5
435.003	1	10
435.173	1	2
435.344	1	-10
435.515	1	4
435.685	1	8
435.856	1	15
436.026	1	2
436.197	1	0
436.368	1	10
436.538	1	7
436.709	1	-7
436.879	1	2
437.050	1	0
437.220	1	1
437.391	1	-5
437.562	1	3
437.732	1	-4
437.903	1	4
438.073	1	-3
438.244	1	-4
438.414	1	-6
438.585	1	2
438.756	1	0
438.926	1	4
439.097	1	6
439.267	1	-3
439.438	1	3
439.608	1	5
439.779	1	7
439.949	1	8
440.120	1	3
440.291	1	7
440.461	1	14
440.632	1	-6
440.802	1	7
440.973	1	-1
441.143	1	-4
441.314	1	-4
441.485	1	-10
441.655	1	-2
441.826	1	11
441.996	1	0
442.167	1	-1
442.337	1	3
442.508	1	-9
442.678	1	3
442.849	1	-3
443.019	1	2
443.190	1	-8
443.361	1	8
443.531	1	5
443.702	1	7
443.872	1	-10
444.043	1	2
444.213	1	-1
444.384	1	7
444.554	1	3
444.725	1	4
444.895	1	-13
445.066	1	12
445.237	1	-5
445.407	1	7
445.578	1	-3
445.748	1	-5
445.919	1	7
446.089	1	-7
446.260	1	12
446.430	1	-10
446.601	1	-1
446.771	1	-9
446.942	1	5
447.112	1	7
447.283	1	7
447.453	1	6
447.624	1	5
447.794	1	-3
447.965	1	-5
448.135	1	3
448.306	1	6
448.477	1	14
448.647	1	1
448.818	1	4
448.988	1	7
449.159	1	-1
449.329	1	7
449.500	1	3
449.670	1	-11
449.841	1	-8
450.011	1	13
450.182	1	9
450.352	1	0
450.523	1	12
450.693	1	0
450.864	1	8
451.034	1	-10
451.205	1	-6
451.375	1	6
451.546	1	-11
451.716	1	17
451.887	1	2
452.057	1	1
452.228	1	10
452.398	1	-1
452.569	1	16
452.739	1	-4
452.910	1	7
453.080	1	-7
453.251	1	12
453.421	1	0
453.592	1	-8
453.762	1	1
453.933	1	1
454.103	1	-5
454.274	1	-1
454.444	1	-8
454.615	1	0
454.785	1	-10
454.956	1	4
455.126	1	3
455.297	1	-19
455.467	1	-6
455.638	1	4
455.808	1	7
455.979	1	11
456.149	1	-8
456.320	1	5
456.490	1	1
456.661	1	5
456.831	1	-7
457.001	1	10
457.172	1	2
457.342	1	-5
457.513	1	1
457.683	1	9
457.854	1	5
458.024	1	13
458.195	1	1
458.365	1	3
458.536	1	2
458.706	1	9
458.877	1	4
459.047	1	-5
459.218	1	5
459.388	1	-2
459.559	1	8
459.729	1	3
459.899	1	0
460.070	1	-1
460.240	1	-2
460.411	1	0
460.581	1	-4
460.752	1	9
460.922	1	-5
461.093	1	2
461.263	1	-8
461.434	1	-2
461.604	1	11
461.775	1	1
461.945	1	3
462.115	1	-1
462.286	1	5
462.456	1	-15
462.627	1	4
462.797	1	-9
462.968	1	12
463.138	1	5
463.309	1	7
463.479	1	-2
463.649	1	-4
463.820	1	7
463.990	1	0
464.161	1	0
464.331	1	0
464.502	1	5
464.672	1	0
464.843	1	7
465.013	1	8
465.183	1	7
465.354	1	-5
465.524	1	6
465.695	1	6
465.865	1	5
466.036	1	-2
466.206	1	9
466.376	1	-6
466.547	1	6
466.717	1	-4
466.888	1	-3
467.058	1	2
467.229	1	7
467.399	1	2
467.569	1	1
467.740	1	-3
467.910	1	-4
468.081	1	3
468.251	1	2
468.422	1	2
468.592	1	-7
468.762	1	9
468.933	1	3
469.103	1	13
469.274	1	-1
469.444	1	0
469.614	1	-4
469.785	1	-9
469.955	1	3
470.126	1	4
470.296	1	14
470.467	1	2
470.637	1	3
470.807	1	-6
470.978	1	5
471.148	1	-7
471.319	1	6
471.489	1	1
471.659	1	-3
471.830	1	6
472.000	1	-2
472.171	1	4
472.341	1	8
472.511	1	0
472.682	1	0
472.852	1	10
473.023	1	3
473.193	1	9
473.363	1	-12
473.534	1	-3
473.704	1	8
473.875	1	1
474.045	1	2
474.215	1	-1
474.386	1	-7
474.556	1	16
474.727	1	11
474.897	1	0
475.067	1	2
475.238	1	-7
475.408	1	-4
475.578	1	8
475.749	1	-1
475.919	1	9
476.090	1	-6
476.260	1	11
476.430	1	-2
476.601	1	3
476.771	1	11
476.942	1	-12
477.112	1	-1
477.282	1	1
477.453	1	-2
477.623	1	5
477.793	1	20
477.964	1	0
478.134	1	5
478.305	1	-2
478.475	1	12
478.645	1	-7
478.816	1	7
478.986	1	-3
479.156	1	14
479.327	1	-7
479.497	1	7
479.667	1	2
479.838	1	8
480.008	1	3
480.179	1	-3
480.349	1	9
480.519	1	5
480.690	1	1
480.860	1	-8
481.030	1	2
481.201	1	-3
481.371	1	6
481.541	1	15
481.712	1	10
481.882	1	2
482.053	1	-4
482.223	1	-6
482.393	1	-1
482.564	1	2
482.734	1	7
482.904	1	5
483.075	1	3
483.245	1	-3
483.415	1	2
483.586	1	3
483.756	1	-5
483.926	1	4
484.097	1	-12
484.267	1	3
484.437	1	0
484.608	1	5
484.778	1	-2
484.948	1	-13
485.119	1	2
485.289	1	0
485.459	1	-4
485.630	1	2
485.800	1	-3
485.970	1	5
486.141	1	17
486.311	1	2
486.481	1	9
486.652	1	6
486.822	1	1
486.992	1	-3
487.163	1	0
487.333	1	-1
487.503	1	3
487.674	1	-1
487.844	1	-4
488.014	1	3
488.185	1	1
488.355	1	-7
488.525	1	4
488.696	1	0
488.866	1	7
489.036	1	5
489.207	1	6
489.377	1	0
489.547	1	13
489.718	1	4
489.888	1	5
490.058	1	-2
490.228	1	7
490.399	1	7
490.569	1	-1
490.739	1	2
490.910	1	1
491.080	1	2
491.250	1	-1
491.421	1	5
491.591	1	3
491.761	1	-1
491.932	1	4
492.102	1	3
492.272	1	3
492.442	1	8
492.613	1	7
492.783	1	3
492.953	1	6
493.124	1	-2
493.294	1	6
493.464	1	-6
493.635	1	2
493.805	1	-6
493.975	1	-1
494.145	1	3
494.316	1	3
494.486	1	3
494.656	1	6
494.827	1	8
494.997	1	12
495.167	1	4
495.337	1	1
495.508	1	8
495.678	1	4
495.848	1	-8
496.019	1	-12
496.189	1	-1
496.359	1	6
496.529	1	5
496.700	1	8
496.870	1	4
497.040	1	-4
497.211	1	5
497.381	1	1
497.551	1	1
497.721	1	-9
497.892	1	2
498.062	1	-6
498.232	1	0
498.403	1	-6
498.573	1	-11
498.743	1	5
498.913	1	1
499.084	1	7
499.254	1	12
499.424	1	11
499.594	1	0
499.765	1	-7
499.935	1	6
500.105	1	-5
500.275	1	-3
500.446	1	3
500.616	1	2
500.786	1	2
500.956	1	5
501.127	1	2
501.297	1	9
501.467	1	5
501.638	1	-9
501.808	1	-11
501.978	1	-5
502.148	1	9
502.319	1	4
502.489	1	6
502.659	1	4
502.829	1	5
503.000	1	3
503.170	1	11
503.340	1	10
503.510	1	-2
503.681	1	5
503.851	1	0
504.021	1	4
504.191	1	-11
504.362	1	3
504.532	1	-13
504.702	1	-5
504.872	1	7
505.042	1	14
505.213	1	-6
505.383	1	-2
505.553	1	2
505.723	1	4
505.894	1	7
506.064	1	3
506.234	1	-7
506.404	1	6
506.575	1	4
506.745	1	10
506.915	1	7
507.085	1	-7
507.256	1	-7
507.426	1	0
507.596	1	4
507.766	1	4
507.936	1	2
508.107	1	5
508.277	1	-6
508.447	1	-1
508.617	1	4
508.788	1	-2
508.958	1	8
509.128	1	-6
509.298	1	6
509.468	1	-1
509.639	1	11
509.809	1	4
509.979	1	2
510.149	1	11
510.319	1	-10
510.490	1	10
510.660	1	-5
510.830	1	9
511.000	1	3
511.171	1	1
511.341	1	0
511.511	1	-2
511.681	1	4
511.851	1	10
512.022	1	4
512.192	1	3
512.362	1	5
512.532	1	2
512.702	1	2
512.873	1	0
513.043	1	8
513.213	1	1
513.383	1	3
513.553	1	4
513.724	1	0
513.894	1	5
514.064	1	15
514.234	1	-3
514.404	1	0
514.575	1	-11
514.745	1	4
514.915	1	6
515.085	1	-3
515.255	1	-5
515.425	1	5
515.596	1	-4
515.766	1	7
515.936	1	4
516.106	1	6
516.276	1	7
516.447	1	-2
516.617	1	1
516.787	1	4
516.957	1	-9
517.127	1	10
517.297	1	3
517.468	1	6
517.638	1	-9
517.808	1	12
517.978	1	8
518.148	1	7
518.319	1	-1
518.489	1	5
518.659	1	2
518.829	1	5
518.999	1	16
519.169	1	4
519.340	1	7
519.510	1	6
519.680	1	-1
519.850	1	1
520.020	1	3
520.190	1	-4
520.361	1	-5
520.531	1	-4
520.701	1	9
520.871	1	3
521.041	1	2
521.211	1	9
521.382	1	2
521.552	1	16
521.722	1	-6
521.892	1	6
522.062	1	-1
522.232	1	-1
522.402	1	-5
522.573	1	9
522.743	1	9
522.913	1	10
523.083	1	3
523.253	1	9
523.423	1	-3
523.593	1	3
523.764	1	10
523.934	1	5
524.104	1	3
524.274	1	-1
524.444	1	5
524.614	1	2
524.784	1	16
524.955	1	-1
525.125	1	8
525.295	1	-1
525.465	1	4
525.635	1	9
525.805	1	6
525.975	1	1
526.146	1	3
526.316	1	11
526.486	1	7
526.656	1	4
526.826	1	4
526.996	1	6
527.166	1	5
527.337	1	-6
527.507	1	0
527.677	1	4
527.847	1	-1
528.017	1	3
528.187	1	0
528.357	1	-5
528.527	1	-4
528.698	1	-3
528.868	1	2
529.038	1	-5
529.208	1	9
529.378	1	3
529.548	1	-3
529.718	1	7
529.888	1	2
530.058	1	18
530.229	1	16
530.399	1	10
530.569	1	5
530.739	1	3
530.909	1	1
531.079	1	9
531.249	1	2
531.419	1	13
531.589	1	5
531.760	1	4
531.930	1	6
532.100	1	3
532.270	1	5
532.440	1	-2
532.610	1	2
532.780	1	5
532.950	1	-7
533.120	1	3
533.290	1	10
533.461	1	3
533.631	1	0
533.801	1	7
533.971	1	7
534.141	1	-10
534.311	1	4
534.481	1	2
534.651	1	5
534.821	1	-1
534.991	1	4
535.162	1	9
535.332	1	7
535.502	1	8
535.672	1	4
535.842	1	8
536.012	1	-4
536.182	1	8
536.352	1	2
536.522	1	11
536.692	1	5
536.862	1	11
537.032	1	-8
537.203	1	2
537.373	1	3
537.543	1	4
537.713	1	5
537.883	1	11
538.053	1	4
538.223	1	-2
538.393	1	13
538.563	1	1
538.733	1	-6
538.903	1	5
539.073	1	10
539.243	1	-1
539.413	1	7
539.584	1	-4
539.754	1	4
539.924	1	-1
540.094	1	-1
540.264	1	7
540.434	1	2
540.604	1	6
540.774	1	4
540.944	1	-3
541.114	1	11
541.284	1	2
541.454	1	-6
541.624	1	-2
541.794	1	0
541.964	1	4
542.134	1	-4
542.305	1	1
542.475	1	8
542.645	1	2
542.815	1	3
542.985	1	0
543.155	1	2
543.325	1	11
543.495	1	2
543.665	1	-3
543.835	1	-2
544.005	1	13
544.175	1	5
544.345	1	6
544.515	1	3
544.685	1	-5
544.855	1	3
545.025	1	0
545.195	1	-4
545.365	1	5
545.535	1	3
545.705	1	3
545.875	1	-6
546.045	1	-4
546.216	1	0
546.386	1	-3
546.556	1	-3
546.726	1	3
546.896	1	8
547.066	1	10
547.236	1	5
547.406	1	8
547.576	1	-2
547.746	1	-8
547.916	1	-9
548.086	1	-1
548.256	1	11
548.426	1	9
548.596	1	-4
548.766	1	2
548.936	1	-1
549.106	1	8
549.276	1	3
549.446	1	11
549.616	1	11
549.786	1	0
549.956	1	2
550.126	1	8
550.296	1	2
550.466	1	2
550.636	1	-8
550.806	1	0
550.976	1	10
551.146	1	3
551.316	1	8
551.486	1	-4
551.656	1	9
551.826	1	4
551.996	1	-3
552.166	1	2
552.336	1	11
552.506	1	5
552.676	1	12
552.846	1	3
553.016	1	4
553.186	1	3
553.356	1	0
553.526	1	-2
553.696	1	7
553.866	1	7
554.036	1	2
554.206	1	8
554.376	1	4
554.546	1	-14
554.716	1	0
554.886	1	3
555.056	1	-4
555.226	1	-14
555.396	1	8
555.566	1	4
555.736	1	0
555.906	1	-1
556.076	1	3
556.246	1	5
556.416	1	-4
556.586	1	-6
556.756	1	-12
556.926	1	9
557.096	1	-1
557.266	1	2
557.436	1	0
557.606	1	6
557.776	1	5
557.946	1	7
558.116	1	-1
558.286	1	2
558.456	1	0
558.626	1	22
558.796	1	9
558.966	1	3
559.136	1	10
559.306	1	11
559.476	1	7
559.646	1	-5
559.816	1	1
559.986	1	6
560.155	1	5
560.325	1	0
560.495	1	-1
560.665	1	9
560.835	1	3
561.005	1	2
561.175	1	-3
561.345	1	-8
561.515	1	-5
561.685	1	1
561.855	1	9
562.025	1	-9
562.195	1	5
562.365	1	7
562.535	1	7
562.705	1	13
562.875	1	-6
563.045	1	3
563.215	1	-5
563.385	1	3
563.555	1	-1
563.725	1	3
563.895	1	4
564.064	1	7
564.234	1	5
564.404	1	6
564.574	1	-8
564.744	1	4
564.914	1	0
565.084	1	7
565.254	1	5
565.424	1	5
565.594	1	5
565.764	1	-2
565.934	1	8
566.104	1	-1
566.274	1	-1
566.444	1	-3
566.614	1	4
566.783	1	1
566.953	1	-5
567.123	1	4
567.293	1	9
567.463	1	-6
567.633	1	11
567.803	1	7
567.973	1	-4
568.143	1	0
568.313	1	-6
568.483	1	3
568.653	1	1
568.823	1	3
568.993	1	6
569.162	1	-2
569.332	1	14
569.502	1	5
569.672	1	5
569.842	1	3
570.012	1	2
570.182	1	3
570.352	1	-4
570.522	1	0
570.692	1	9
570.862	1	13
571.031	1	4
571.201	1	7
571.371	1	22
571.541	1	8
571.711	1	4
571.881	1	-2
572.051	1	6
572.221	1	3
572.391	1	8
572.561	1	-2
572.731	1	-1
572.900	1	-4
573.070	1	5
573.240	1	4
573.410	1	6
573.580	1	-6
573.750	1	0
573.920	1	11
574.090	1	2
574.260	1	6
574.430	1	5
574.599	1	0
574.769	1	-8
574.939	1	-3
575.109	1	2
575.279	1	2
575.449	1	-2
575.619	1	12
575.789	1	3
575.959	1	-1
576.128	1	0
576.298	1	10
576.468	1	-2
576.638	1	4
576.808	1	1
576.978	1	0
577.148	1	1
577.318	1	0
577.487	1	5
577.657	1	1
577.827	1	2
577.997	1	-2
578.167	1	3
578.337	1	4
578.507	1	8
578.677	1	3
578.846	1	-7
579.016	1	5
579.186	1	-6
579.356	1	-3
579.526	1	1
579.696	1	-3
579.866	1	7
580.036	1	4
580.205	1	-5
580.375	1	-3
580.545	1	-10
580.715	1	-1
580.885	1	-7
581.055	1	6
581.225	1	9
581.394	1	9
581.564	1	-8
581.734	1	9
581.904	1	-6
582.074	1	1
582.244	1	1
582.414	1	3
582.583	1	4
582.753	1	5
582.923	1	6
583.093	1	-2
583.263	1	20
583.433	1	9
583.603	1	3
583.772	1	2
583.942	1	7
584.112	1	2
584.282	1	-10
584.452	1	-4
584.622	1	5
584.791	1	-7
584.961	1	0
585.131	1	12
585.301	1	7
585.471	1	-1
585.641	1	3
585.811	1	-6
585.980	1	3
586.150	1	-8
586.320	1	-1
586.490	1	5
586.660	1	1
586.830	1	-8
586.999	1	1
587.169	1	9
587.339	1	-2
587.509	1	5
587.679	1	2
587.849	1	0
588.018	1	2
588.188	1	-6
588.358	1	9
588.528	1	-4
588.698	1	-6
588.867	1	12
589.037	1	-7
589.207	1	-1
589.377	1	-13
589.547	1	3
589.717	1	0
589.886	1	-3
590.056	1	-1
590.226	1	0
590.396	1	10
590.566	1	-1
590.735	1	-2
590.905	1	5
591.075	1	9
591.245	1	-5
591.415	1	9
591.585	1	4
591.754	1	-1
591.924	1	-2
592.094	1	5
592.264	1	-9
592.434	1	-3
592.603	1	2
592.773	1	13
592.943	1	5
593.113	1	7
593.283	1	4
593.452	1	9
593.622	1	-2
593.792	1	5
593.962	1	0
594.132	1	12
594.301	1	6
594.471	1	9
594.641	1	4
594.811	1	-9
594.981	1	15
595.150	1	-5
595.320	1	2
595.490	1	-14
595.660	1	-1
595.829	1	9
595.999	1	0
596.169	1	10
596.339	1	3
596.509	1	-8
596.678	1	-8
596.848	1	4
597.018	1	3
597.188	1	-9
597.358	1	-5
597.527	1	-2
597.697	1	4
597.867	1	8
598.037	1	6
598.206	1	1
598.376	1	-14
598.546	1	0
598.716	1	8
598.885	1	5
599.055	1	0
599.225	1	-1
599.395	1	-2
599.565	1	8
599.734	1	12
599.904	1	-2
600.074	1	-3
600.244	1	3
600.413	1	-8
600.583	1	2
600.753	1	8
600.923	1	8
601.092	1	1
601.262	1	-2
601.432	1	3
601.602	1	4
601.771	1	-1
601.941	1	-6
602.111	1	-3
602.281	1	-1
602.451	1	9
602.620	1	-1
602.790	1	9
602.960	1	3
603.130	1	-6
603.299	1	-1
603.469	1	5
603.639	1	4
603.809	1	-1
603.978	1	-1
604.148	1	-7
604.318	1	-2
604.487	1	3
604.657	1	8
604.827	1	-12
604.997	1	-1
605.166	1	10
605.336	1	1
605.506	1	-4
605.676	1	-7
605.845	1	6
606.015	1	-3
606.185	1	-1
606.355	1	2
606.524	1	-5
606.694	1	0
606.864	1	1
607.034	1	5
607.203	1	-6
607.373	1	10
607.543	1	10
607.712	1	-14
607.882	1	-5
608.052	1	-5
608.222	1	-6
608.391	1	-3
608.561	1	6
608.731	1	8
608.901	1	5
609.070	1	-2
609.240	1	-6
609.410	1	-6
609.579	1	9
609.749	1	-4
609.919	1	4
610.089	1	-1
610.258	1	0
610.428	1	2
610.598	1	8
610.767	1	7
610.937	1	1
611.107	1	1
611.277	1	3
611.446	1	-2
611.616	1	2
611.786	1	4
611.955	1	10
612.125	1	2
612.295	1	-1
612.465	1	-5
612.634	1	-7
612.804	1	-1
612.974	1	4
613.143	1	-1
613.313	1	-2
613.483	1	-7
613.652	1	11
613.822	1	7
613.992	1	0
614.162	1	7
614.331	1	-1
614.501	1	-2
614.671	1	4
614.840	1	1
615.010	1	3
615.180	1	18
615.349	1	2
615.519	1	4
615.689	1	0
615.858	1	7
616.028	1	-3
616.198	1	-7
616.368	1	0
616.537	1	-2
616.707	1	10
616.877	1	6
617.046	1	-1
617.216	1	4
617.386	1	2
617.555	1	-4
617.725	1	9
617.895	1	-5
618.064	1	-1
618.234	1	2
618.404	1	0
618.573	1	-6
618.743	1	6
618.913	1	7
619.082	1	3
619.252	1	0
619.422	1	-10
619.591	1	5
619.761	1	0
619.931	1	1
620.100	1	3
620.270	1	1
620.440	1	9
620.609	1	0
620.779	1	-6
620.949	1	-3
621.118	1	-9
621.288	1	6
621.458	1	-7
621.627	1	3
621.797	1	1
621.967	1	-9
622.136	1	10
622.306	1	2
622.476	1	-5
622.645	1	-3
622.815	1	7
622.985	1	-2
623.154	1	7
623.324	1	-5
623.494	1	0
623.663	1	14
623.833	1	5
624.002	1	6
624.172	1	2
624.342	1	10
624.511	1	7
624.681	1	2
624.851	1	-5
625.020	1	-4
625.190	1	9
625.360	1	9
625.529	1	5
625.699	1	-1
625.869	1	5
626.038	1	-1
626.208	1	5
626.377	1	6
626.547	1	-12
626.717	1	-10
626.886	1	2
627.056	1	2
627.226	1	8
627.395	1	-5
627.565	1	2
627.735	1	-19
627.904	1	-5
628.074	1	-7
628.243	1	-8
628.413	1	-2
628.583	1	-4
628.752	1	-4
628.922	1	-2
629.091	1	-6
629.261	1	4
629.431	1	-1
629.600	1	-2
629.770	1	6
629.940	1	5
630.109	1	-4
630.279	1	2
630.448	1	-4
630.618	1	-11
630.788	1	6
630.957	1	4
631.127	1	1
631.297	1	2
631.466	1	6
631.636	1	11
631.805	1	9
631.975	1	-8
632.145	1	8
632.314	1	-1
632.484	1	-6
632.653	1	9
632.823	1	-5
632.993	1	-1
633.162	1	5
633.332	1	1
633.501	1	5
633.671	1	0
633.841	1	-7
634.010	1	8
634.180	1	-3
634.349	1	-7
634.519	1	-1
634.689	1	8
634.858	1	2
635.028	1	-6
635.197	1	12
635.367	1	-3
635.537	1	-6
635.706	1	-11
635.876	1	2
636.045	1	7
636.215	1	0
636.384	1	-9
636.554	1	-2
636.724	1	7
636.893	1	2
637.063	1	8
637.232	1	0
637.402	1	10
637.572	1	3
637.741	1	0
637.911	1	2
638.080	1	3
638.250	1	7
638.419	1	-6
638.589	1	12
638.759	1	7
638.928	1	3
639.098	1	-5
639.267	1	0
639.437	1	-9
639.606	1	9
639.776	1	0
639.946	1	-1
640.115	1	4
640.285	1	-1
640.454	1	2
640.624	1	3
640.793	1	-8
640.963	1	-2
641.132	1	-3
641.302	1	-3
641.472	1	-9
641.641	1	12
641.811	1	4
641.980	1	-6
642.150	1	-3
642.319	1	12
642.489	1	-7
642.659	1	9
642.828	1	1
642.998	1	11
643.167	1	-11
643.337	1	0
643.506	1	3
643.676	1	15
643.845	1	5
644.015	1	0
644.184	1	14
644.354	1	0
644.524	1	1
644.693	1	-2
644.863	1	-2
645.032	1	-2
645.202	1	7
645.371	1	0
645.541	1	8
645.710	1	7
645.880	1	2
646.049	1	8
646.219	1	0
646.388	1	1
646.558	1	4
646.728	1	1
646.897	1	4
647.067	1	3
647.236	1	0
647.406	1	9
647.575	1	3
647.745	1	0
647.914	1	-1
648.084	1	-1
648.253	1	2
648.423	1	10
648.592	1	4
648.762	1	7
648.931	1	7
649.101	1	2
649.270	1	-1
649.440	1	-3
649.610	1	1
649.779	1	-2
649.949	1	-6
650.118	1	5
650.288	1	-8
650.457	1	-3
650.627	1	-3
650.796	1	3
650.966	1	5
651.135	1	3
651.305	1	-1
651.474	1	2
651.644	1	7
651.813	1	2
651.983	1	6
652.152	1	1
652.322	1	2
652.491	1	5
652.661	1	5
652.830	1	0
653.000	1	-3
653.169	1	-6
653.339	1	-3
653.508	1	4
653.678	1	3
653.847	1	-5
654.017	1	6
654.186	1	4
654.356	1	5
654.525	1	-5
654.695	1	13
654.864	1	-1
655.034	1	1
655.203	1	2
655.373	1	4
655.542	1	-6
655.712	1	-3
655.881	1	-6
656.051	1	-2
656.220	1	-8
656.390	1	3
656.559	1	3
656.729	1	4
656.898	1	4
657.068	1	4
657.237	1	10
657.406	1	-4
657.576	1	15
657.745	1	10
657.915	1	5
658.084	1	-12
658.254	1	15
658.423	1	-6
658.593	1	9
658.762	1	-3
658.932	1	8
659.101	1	0
659.271	1	-1
659.440	1	-1
659.610	1	7
659.779	1	10
659.949	1	-10
660.118	1	-2
660.288	1	9
660.457	1	-1
660.626	1	9
660.796	1	-7
660.965	1	6
661.135	1	-7
661.304	1	1
661.474	1	6
661.643	1	8
661.813	1	2
661.982	1	17
662.152	1	7
662.321	1	-3
662.491	1	-8
662.660	1	-3
662.829	1	-1
662.999	1	1
663.168	1	2
663.338	1	-5
663.507	1	7
663.677	1	-1
663.846	1	-4
664.016	1	2
664.185	1	7
664.354	1	-5
664.524	1	9
664.693	1	-12
664.863	1	5
665.032	1	3
665.202	1	11
665.371	1	-2
665.541	1	-13
665.710	1	8
665.879	1	9
666.049	1	-2
666.218	1	3
666.388	1	2
666.557	1	2
666.727	1	-4
666.896	1	13
667.065	1	1
667.235	1	6
667.404	1	-5
667.574	1	2
667.743	1	-4
667.913	1	-6
668.082	1	10
668.251	1	9
668.421	1	4
668.590	1	0
668.760	1	4
668.929	1	4
669.099	1	5
669.268	1	-6
669.437	1	-3
669.607	1	1
669.776	1	0
669.946	1	3
670.115	1	3
670.285	1	9
670.454	1	-7
670.623	1	6
670.793	1	5
670.962	1	-3
671.132	1	2
671.301	1	6
671.470	1	1
671.640	1	8
671.809	1	-5
671.979	1	4
672.148	1	-1
672.317	1	7
672.487	1	-4
672.656	1	6
672.826	1	3
672.995	1	0
673.164	1	5
673.334	1	3
673.503	1	-3
673.673	1	2
673.842	1	-5
674.011	1	4
674.181	1	2
674.350	1	3
674.520	1	1
674.689	1	4
674.858	1	1
675.028	1	3
675.197	1	9
675.367	1	-4
675.536	1	2
675.705	1	3
675.875	1	4
676.044	1	11
676.214	1	-4
676.383	1	-4
676.552	1	1
676.722	1	13
676.891	1	18
677.060	1	-6
677.230	1	6
677.399	1	-10
677.569	1	0
677.738	1	-2
677.907	1	-5
678.077	1	14
678.246	1	1
678.416	1	5
678.585	1	9
678.754	1	-2
678.924	1	12
679.093	1	5
679.262	1	2
679.432	1	4
679.601	1	8
679.771	1	8
679.940	1	7
680.109	1	2
680.279	1	8
680.448	1	11
680.617	1	-4
680.787	1	-7
680.956	1	-11
681.125	1	-4
681.295	1	5
681.464	1	6
681.634	1	-2
681.803	1	9
681.972	1	-1
682.142	1	-1
682.311	1	7
682.480	1	-2
682.650	1	-6
682.819	1	6
682.988	1	6
683.158	1	-1
683.327	1	7
683.496	1	5
683.666	1	4
683.835	1	-5
684.004	1	5
684.174	1	3
684.343	1	1
684.512	1	-3
684.682	1	5
684.851	1	1
685.021	1	-10
685.190	1	-4
685.359	1	6
685.529	1	8
685.698	1	-6
685.867	1	5
686.037	1	4
686.206	1	6
686.375	1	7
686.545	1	2
686.714	1	2
686.883	1	2
687.053	1	-5
687.222	1	5
687.391	1	4
687.561	1	-2
687.730	1	3
687.899	1	-4
688.069	1	4
688.238	1	-2
688.407	1	7
688.577	1	131
688.746	1	732
