340.368	1	0
340.539	1	3
340.710	1	-12
340.881	1	7
341.052	1	-2
341.223	1	-1
341.394	1	1
341.565	1	3
341.737	1	-5
341.908	1	1
342.079	1	-2
342.250	1	8
342.421	1	5
342.592	1	3
342.763	1	7
342.934	1	-9
343.105	1	11
343.276	1	6
343.447	1	-9
343.618	1	4
343.789	1	6
343.960	1	3
344.131	1	2
344.302	1	1
344.473	1	-5
344.644	1	5
344.815	1	12
344.986	1	9
345.157	1	-2
345.328	1	8
345.499	1	4
345.670	1	11
345.841	1	5
346.012	1	8
346.183	1	-5
346.354	1	-9
346.526	1	8
346.697	1	11
346.868	1	4
347.039	1	0
347.210	1	1
347.381	1	-3
347.552	1	17
347.723	1	12
347.894	1	5
348.065	1	-8
348.236	1	1
348.407	1	1
348.578	1	1
348.749	1	9
348.920	1	-3
349.091	1	-3
349.262	1	3
349.433	1	6
349.604	1	2
349.775	1	5
349.946	1	13
350.117	1	0
350.288	1	5
350.459	1	2
350.630	1	17
350.801	1	2
350.972	1	-2
351.143	1	0
351.314	1	4
351.485	1	-2
351.656	1	-2
351.827	1	-4
351.998	1	11
352.169	1	2
352.340	1	10
352.511	1	9
352.682	1	9
352.853	1	8
353.024	1	4
353.195	1	15
353.366	1	2
353.537	1	9
353.708	1	6
353.879	1	8
354.050	1	3
354.221	1	-1
354.392	1	11
354.563	1	4
354.734	1	10
354.905	1	11
355.076	1	4
355.247	1	-1
355.418	1	12
355.589	1	4
355.760	1	12
355.931	1	11
356.102	1	15
356.273	1	-1
356.444	1	9
356.615	1	2
356.785	1	12
356.956	1	10
357.127	1	9
357.298	1	12
357.469	1	9
357.640	1	3
357.811	1	14
357.982	1	7
358.153	1	13
358.324	1	10
358.495	1	13
358.666	1	18
358.837	1	10
359.008	1	4
359.179	1	2
359.350	1	8
359.521	1	12
359.692	1	14
359.863	1	20
360.034	1	4
360.205	1	30
360.376	1	3
360.547	1	21
360.718	1	22
360.889	1	13
361.060	1	18
361.231	1	27
361.401	1	16
361.572	1	31
361.743	1	23
361.914	1	20
362.085	1	8
362.256	1	14
362.427	1	18
362.598	1	22
362.769	1	16
362.940	1	29
363.111	1	34
363.282	1	23
363.453	1	18
363.624	1	31
363.795	1	25
363.966	1	26
364.137	1	45
364.308	1	32
364.478	1	36
364.649	1	32
364.820	1	37
364.991	1	43
365.162	1	47
365.333	1	32
365.504	1	42
365.675	1	37
365.846	1	39
366.017	1	42
366.188	1	42
366.359	1	46
366.530	1	47
366.701	1	56
366.871	1	43
367.042	1	45
367.213	1	48
367.384	1	59
367.555	1	56
367.726	1	62
367.897	1	52
368.068	1	65
368.239	1	58
368.410	1	66
368.581	1	48
368.752	1	55
368.923	1	63
369.093	1	49
369.264	1	50
369.435	1	57
369.606	1	60
369.777	1	60
369.948	1	69
370.119	1	61
370.290	1	49
370.461	1	55
370.632	1	57
370.803	1	44
370.973	1	60
371.144	1	44
371.315	1	44
371.486	1	38
371.657	1	45
371.828	1	37
371.999	1	52
372.170	1	37
372.341	1	58
372.512	1	37
372.682	1	48
372.853	1	50
373.024	1	32
373.195	1	40
373.366	1	43
373.537	1	48
373.708	1	42
373.879	1	41
374.050	1	41
374.220	1	37
374.391	1	33
374.562	1	37
374.733	1	27
374.904	1	33
375.075	1	38
375.246	1	28
375.417	1	35
375.588	1	30
375.758	1	34
375.929	1	30
376.100	1	32
376.271	1	34
376.442	1	38
376.613	1	35
376.784	1	18
376.955	1	36
377.125	1	31
377.296	1	20
377.467	1	31
377.638	1	28
377.809	1	18
377.980	1	16
378.151	1	30
378.321	1	18
378.492	1	16
378.663	1	23
378.834	1	18
379.005	1	15
379.176	1	7
379.347	1	20
379.518	1	14
379.688	1	15
379.859	1	16
380.030	1	24
380.201	1	4
380.372	1	19
380.543	1	17
380.714	1	23
380.884	1	8
381.055	1	19
381.226	1	16
381.397	1	20
381.568	1	15
381.739	1	5
381.910	1	13
382.080	1	19
382.251	1	7
382.422	1	15
382.593	1	18
382.764	1	11
382.935	1	10
383.105	1	17
383.276	1	33
383.447	1	19
383.618	1	18
383.789	1	19
383.960	1	16
384.130	1	9
384.301	1	12
384.472	1	2
384.643	1	2
384.814	1	10
384.985	1	13
385.156	1	4
385.326	1	12
385.497	1	11
385.668	1	19
385.839	1	6
386.010	1	5
386.180	1	19
386.351	1	11
386.522	1	15
386.693	1	0
386.864	1	18
387.035	1	6
387.205	1	7
387.376	1	12
387.547	1	20
387.718	1	10
387.889	1	13
388.060	1	10
388.230	1	3
388.401	1	3
388.572	1	9
388.743	1	9
388.914	1	-4
389.084	1	10
389.255	1	13
389.426	1	6
389.597	1	16
389.768	1	5
389.939	1	9
390.109	1	11
390.280	1	10
390.451	1	4
390.622	1	12
390.793	1	14
390.963	1	5
391.134	1	7
391.305	1	4
391.476	1	7
391.647	1	-1
391.817	1	4
391.988	1	15
392.159	1	8
392.330	1	5
392.501	1	12
392.671	1	2
392.842	1	6
393.013	1	8
393.184	1	14
393.355	1	12
393.525	1	10
393.696	1	17
393.867	1	0
394.038	1	-4
394.208	1	4
394.379	1	5
394.550	1	15
394.721	1	7
394.892	1	-3
395.062	1	3
395.233	1	-1
395.404	1	8
395.575	1	9
395.746	1	10
395.916	1	-6
396.087	1	13
396.258	1	5
396.429	1	18
396.599	1	-11
396.770	1	15
396.941	1	11
397.112	1	3
397.283	1	-5
397.453	1	17
397.624	1	2
397.795	1	5
397.966	1	7
398.136	1	7
398.307	1	-3
398.478	1	4
398.649	1	12
398.819	1	8
398.990	1	-11
399.161	1	1
399.332	1	3
399.503	1	9
399.673	1	3
399.844	1	-4
400.015	1	20
400.186	1	5
400.356	1	-1
400.527	1	17
400.698	1	2
400.869	1	1
401.039	1	2
401.210	1	1
401.381	1	13
401.552	1	5
401.722	1	9
401.893	1	12
402.064	1	7
402.235	1	0
402.405	1	-3
402.576	1	3
402.747	1	6
402.918	1	1
403.088	1	16
403.259	1	7
403.430	1	1
403.601	1	9
403.771	1	0
403.942	1	15
404.113	1	5
404.284	1	5
404.454	1	-3
404.625	1	3
404.796	1	9
404.967	1	4
405.137	1	14
405.308	1	6
405.479	1	6
405.649	1	2
405.820	1	6
405.991	1	5
406.162	1	9
406.332	1	-6
406.503	1	11
406.674	1	7
406.845	1	11
407.015	1	11
407.186	1	-4
407.357	1	-6
407.527	1	-5
407.698	1	11
407.869	1	4
408.040	1	3
408.210	1	3
408.381	1	2
408.552	1	3
408.722	1	3
408.893	1	1
409.064	1	2
409.235	1	4
409.405	1	-2
409.576	1	7
409.747	1	4
409.917	1	7
410.088	1	7
410.259	1	0
410.430	1	-6
410.600	1	2
410.771	1	7
410.942	1	5
411.112	1	-3
411.283	1	-2
411.454	1	13
411.625	1	-9
411.795	1	10
411.966	1	13
412.137	1	0
412.307	1	0
412.478	1	-1
412.649	1	3
412.819	1	-7
412.990	1	0
413.161	1	5
413.332	1	3
413.502	1	-1
413.673	1	-9
413.844	1	18
414.014	1	6
414.185	1	-1
414.356	1	-2
414.526	1	5
414.697	1	7
414.868	1	-1
415.038	1	-13
415.209	1	-13
415.380	1	4
415.550	1	8
415.721	1	1
415.892	1	2
416.063	1	3
416.233	1	1
416.404	1	5
416.575	1	-3
416.745	1	-2
416.916	1	-7
417.087	1	2
417.257	1	3
417.428	1	5
417.599	1	-3
417.769	1	6
417.940	1	-5
418.111	1	7
418.281	1	-1
418.452	1	0
418.623	1	-4
418.793	1	15
418.964	1	0
419.135	1	5
419.305	1	4
419.476	1	-4
419.647	1	2
419.817	1	-2
419.988	1	8
420.159	1	9
420.329	1	7
420.500	1	4
420.671	1	2
420.841	1	-4
421.012	1	8
421.183	1	5
421.353	1	8
421.524	1	6
421.695	1	-1
421.865	1	-3
422.036	1	3
422.206	1	7
422.377	1	14
422.548	1	1
422.718	1	16
422.889	1	-7
423.060	1	-2
423.230	1	1
423.401	1	0
423.572	1	-3
423.742	1	3
423.913	1	-4
424.084	1	15
424.254	1	7
424.425	1	-6
424.595	1	10
424.766	1	-5
424.937	1	9
425.107	1	2
425.278	1	-7
425.449	1	0
425.619	1	-3
425.790	1	3
425.961	1	-7
426.131	1	4
426.302	1	-7
426.472	1	6
426.643	1	3
426.814	1	-2
426.984	1	-3
427.155	1	18
427.326	1	4
427.496	1	-1
427.667	1	4
427.837	1	14
428.008	1	9
428.179	1	4
428.349	1	-10
428.520	1	3
428.691	1	3
428.861	1	7
429.032	1	0
429.202	1	-1
429.373	1	-3
429.544	1	4
429.714	1	7
429.885	1	4
430.055	1	1
430.226	1	4
430.397	1	8
430.567	1	1
430.738	1	3
430.909	1	6
431.079	1	6
431.250	1	8
431.420	1	-2
431.591	1	-4
431.762	1	4
431.932	1	-4
432.103	1	13
432.273	1	5
432.444	1	1
432.615	1	2
432.785	1	2
432.956	1	9
433.126	1	1
433.297	1	8
433.468	1	-1
433.638	1	7
433.809	1	2
433.979	1	1
434.150	1	0
434.320	1	1
434.491	1	-3
434.662	1	-6
434.832	1	5
435.003	1	8
435.173	1	6
435.344	1	11
435.515	1	-2
435.685	1	2
435.856	1	11
436.026	1	3
436.197	1	3
436.368	1	7
436.538	1	2
436.709	1	8
436.879	1	14
437.050	1	-10
437.220	1	0
437.391	1	-15
437.562	1	9
437.732	1	4
437.903	1	13
438.073	1	2
438.244	1	1
438.414	1	-5
438.585	1	0
438.756	1	-7
438.926	1	4
439.097	1	8
439.267	1	3
439.438	1	3
439.608	1	3
439.779	1	12
439.949	1	13
440.120	1	-4
440.291	1	-1
440.461	1	17
440.632	1	-1
440.802	1	6
440.973	1	-3
441.143	1	-2
441.314	1	-6
441.485	1	-2
441.655	1	3
441.826	1	7
441.996	1	8
442.167	1	4
442.337	1	2
442.508	1	-11
442.678	1	8
442.849	1	7
443.019	1	-2
443.190	1	4
443.361	1	10
443.531	1	1
443.702	1	11
443.872	1	-8
444.043	1	-1
444.213	1	1
444.384	1	8
444.554	1	-5
444.725	1	7
444.895	1	-9
445.066	1	16
445.237	1	-3
445.407	1	10
445.578	1	2
445.748	1	3
445.919	1	6
446.089	1	3
446.260	1	9
446.430	1	-5
446.601	1	-4
446.771	1	-8
446.942	1	3
447.112	1	8
447.283	1	2
447.453	1	11
447.624	1	1
447.794	1	5
447.965	1	4
448.135	1	7
448.306	1	-6
448.477	1	10
448.647	1	0
448.818	1	17
448.988	1	6
449.159	1	-1
449.329	1	-1
449.500	1	4
449.670	1	-12
449.841	1	0
450.011	1	7
450.182	1	12
450.352	1	-5
450.523	1	13
450.693	1	6
450.864	1	0
451.034	1	-4
451.205	1	-1
451.375	1	2
451.546	1	-6
451.716	1	7
451.887	1	-3
452.057	1	4
452.228	1	-4
452.398	1	3
452.569	1	18
452.739	1	5
452.910	1	8
453.080	1	3
453.251	1	4
453.421	1	2
453.592	1	-7
453.762	1	0
453.933	1	-4
454.103	1	1
454.274	1	2
454.444	1	-1
454.615	1	2
454.785	1	4
454.956	1	10
455.126	1	7
455.297	1	-8
455.467	1	-12
455.638	1	9
455.808	1	17
455.979	1	9
456.149	1	2
456.320	1	-6
456.490	1	6
456.661	1	8
456.831	1	-1
457.001	1	8
457.172	1	-4
457.342	1	3
457.513	1	14
457.683	1	7
457.854	1	13
458.024	1	15
458.195	1	3
458.365	1	4
458.536	1	-1
458.706	1	6
458.877	1	-1
459.047	1	0
459.218	1	-2
459.388	1	9
459.559	1	-1
459.729	1	3
459.899	1	1
460.070	1	-4
460.240	1	2
460.411	1	5
460.581	1	8
460.752	1	11
460.922	1	-4
461.093	1	13
461.263	1	-6
461.434	1	-3
461.604	1	5
461.775	1	9
461.945	1	-3
462.115	1	3
462.286	1	-3
462.456	1	-9
462.627	1	1
462.797	1	-3
462.968	1	15
463.138	1	9
463.309	1	0
463.479	1	1
463.649	1	0
463.820	1	13
463.990	1	-1
464.161	1	7
464.331	1	-2
464.502	1	12
464.672	1	-4
464.843	1	1
465.013	1	13
465.183	1	0
465.354	1	5
465.524	1	0
465.695	1	-6
465.865	1	4
466.036	1	-7
466.206	1	8
466.376	1	3
466.547	1	12
466.717	1	-2
466.888	1	-7
467.058	1	9
467.229	1	3
467.399	1	19
467.569	1	13
467.740	1	-5
467.910	1	-8
468.081	1	-2
468.251	1	2
468.422	1	9
468.592	1	2
468.762	1	7
468.933	1	1
469.103	1	3
469.274	1	4
469.444	1	4
469.614	1	0
469.785	1	-1
469.955	1	3
470.126	1	4
470.296	1	4
470.467	1	0
470.637	1	10
470.807	1	-5
470.978	1	8
471.148	1	-2
471.319	1	13
471.489	1	7
471.659	1	7
471.830	1	-5
472.000	1	3
472.171	1	8
472.341	1	6
472.511	1	5
472.682	1	-3
472.852	1	3
473.023	1	6
473.193	1	6
473.363	1	-8
473.534	1	1
473.704	1	2
473.875	1	1
474.045	1	0
474.215	1	-8
474.386	1	-3
474.556	1	7
474.727	1	4
474.897	1	2
475.067	1	10
475.238	1	-4
475.408	1	-1
475.578	1	7
475.749	1	7
475.919	1	7
476.090	1	-5
476.260	1	19
476.430	1	-5
476.601	1	3
476.771	1	18
476.942	1	1
477.112	1	-12
477.282	1	16
477.453	1	3
477.623	1	5
477.793	1	3
477.964	1	14
478.134	1	10
478.305	1	-3
478.475	1	7
478.645	1	10
478.816	1	-5
478.986	1	-8
479.156	1	4
479.327	1	-2
479.497	1	-2
479.667	1	8
479.838	1	4
480.008	1	8
480.179	1	7
480.349	1	9
480.519	1	-3
480.690	1	5
480.860	1	0
481.030	1	8
481.201	1	-3
481.371	1	5
481.541	1	8
481.712	1	4
481.882	1	1
482.053	1	-4
482.223	1	-1
482.393	1	6
482.564	1	-8
482.734	1	11
482.904	1	4
483.075	1	6
483.245	1	6
483.415	1	5
483.586	1	7
483.756	1	7
483.926	1	7
484.097	1	-2
484.267	1	-2
484.437	1	-4
484.608	1	12
484.778	1	-4
484.948	1	2
485.119	1	1
485.289	1	10
485.459	1	-1
485.630	1	14
485.800	1	-6
485.970	1	6
486.141	1	17
486.311	1	15
486.481	1	-3
486.652	1	9
486.822	1	10
486.992	1	1
487.163	1	5
487.333	1	3
487.503	1	6
487.674	1	2
487.844	1	1
488.014	1	-1
488.185	1	3
488.355	1	-1
488.525	1	9
488.696	1	5
488.866	1	8
489.036	1	3
489.207	1	3
489.377	1	1
489.547	1	16
489.718	1	13
489.888	1	8
490.058	1	8
490.228	1	3
490.399	1	4
490.569	1	13
490.739	1	3
490.910	1	6
491.080	1	9
491.250	1	12
491.421	1	13
491.591	1	9
491.761	1	6
491.932	1	3
492.102	1	1
492.272	1	8
492.442	1	0
492.613	1	3
492.783	1	12
492.953	1	5
493.124	1	1
493.294	1	1
493.464	1	0
493.635	1	-1
493.805	1	8
493.975	1	14
494.145	1	14
494.316	1	1
494.486	1	12
494.656	1	6
494.827	1	3
494.997	1	4
495.167	1	10
495.337	1	11
495.508	1	12
495.678	1	7
495.848	1	5
496.019	1	2
496.189	1	-6
496.359	1	0
496.529	1	12
496.700	1	10
496.870	1	7
497.040	1	3
497.211	1	15
497.381	1	5
497.551	1	16
497.721	1	0
497.892	1	8
498.062	1	5
498.232	1	2
498.403	1	8
498.573	1	2
498.743	1	15
498.913	1	7
499.084	1	3
499.254	1	19
499.424	1	0
499.594	1	11
499.765	1	-9
499.935	1	11
500.105	1	-1
500.275	1	3
500.446	1	8
500.616	1	6
500.786	1	11
500.956	1	7
501.127	1	8
501.297	1	15
501.467	1	5
501.638	1	-2
501.808	1	-1
501.978	1	0
502.148	1	9
502.319	1	14
502.489	1	6
502.659	1	11
502.829	1	9
503.000	1	14
503.170	1	7
503.340	1	9
503.510	1	1
503.681	1	11
503.851	1	-4
504.021	1	17
504.191	1	0
504.362	1	4
504.532	1	3
504.702	1	14
504.872	1	-2
505.042	1	6
505.213	1	0
505.383	1	5
505.553	1	5
505.723	1	11
505.894	1	12
506.064	1	13
506.234	1	-3
506.404	1	10
506.575	1	14
506.745	1	12
506.915	1	7
507.085	1	-1
507.256	1	0
507.426	1	3
507.596	1	8
507.766	1	12
507.936	1	15
508.107	1	6
508.277	1	-2
508.447	1	15
508.617	1	12
508.788	1	-1
508.958	1	10
509.128	1	6
509.298	1	2
509.468	1	4
509.639	1	8
509.809	1	10
509.979	1	5
510.149	1	7
510.319	1	-4
510.490	1	13
510.660	1	1
510.830	1	8
511.000	1	11
511.171	1	12
511.341	1	12
511.511	1	5
511.681	1	0
511.851	1	5
512.022	1	0
512.192	1	7
512.362	1	6
512.532	1	-2
512.702	1	0
512.873	1	-7
513.043	1	5
513.213	1	3
513.383	1	18
513.553	1	7
513.724	1	4
513.894	1	6
514.064	1	16
514.234	1	2
514.404	1	6
514.575	1	5
514.745	1	12
514.915	1	14
515.085	1	9
515.255	1	7
515.425	1	11
515.596	1	-9
515.766	1	9
515.936	1	7
516.106	1	8
516.276	1	9
516.447	1	8
516.617	1	3
516.787	1	9
516.957	1	2
517.127	1	13
517.297	1	17
517.468	1	17
517.638	1	-3
517.808	1	14
517.978	1	11
518.148	1	11
518.319	1	13
518.489	1	13
518.659	1	-2
518.829	1	10
518.999	1	18
519.169	1	4
519.340	1	19
519.510	1	11
519.680	1	3
519.850	1	10
520.020	1	-3
520.190	1	2
520.361	1	-1
520.531	1	14
520.701	1	8
520.871	1	9
521.041	1	10
521.211	1	13
521.382	1	13
521.552	1	16
521.722	1	4
521.892	1	11
522.062	1	11
522.232	1	-6
522.402	1	3
522.573	1	14
522.743	1	15
522.913	1	18
523.083	1	2
523.253	1	23
523.423	1	0
523.593	1	10
523.764	1	11
523.934	1	5
524.104	1	-2
524.274	1	-1
524.444	1	12
524.614	1	12
524.784	1	11
524.955	1	15
525.125	1	1
525.295	1	5
525.465	1	17
525.635	1	7
525.805	1	10
525.975	1	10
526.146	1	15
526.316	1	15
526.486	1	12
526.656	1	7
526.826	1	2
526.996	1	3
527.166	1	15
527.337	1	8
527.507	1	9
527.677	1	5
527.847	1	13
528.017	1	17
528.187	1	-2
528.357	1	6
528.527	1	12
528.698	1	0
528.868	1	22
529.038	1	7
529.208	1	16
529.378	1	13
529.548	1	24
529.718	1	12
529.888	1	8
530.058	1	11
530.229	1	22
530.399	1	4
530.569	1	7
530.739	1	19
530.909	1	9
531.079	1	14
531.249	1	-2
531.419	1	13
531.589	1	11
531.760	1	17
531.930	1	10
532.100	1	0
532.270	1	17
532.440	1	11
532.610	1	4
532.780	1	4
532.950	1	-12
533.120	1	10
533.290	1	18
533.461	1	9
533.631	1	11
533.801	1	11
533.971	1	12
534.141	1	2
534.311	1	-2
534.481	1	17
534.651	1	14
534.821	1	11
534.991	1	3
535.162	1	12
535.332	1	16
535.502	1	13
535.672	1	9
535.842	1	12
536.012	1	2
536.182	1	10
536.352	1	0
536.522	1	3
536.692	1	16
536.862	1	12
537.032	1	7
537.203	1	6
537.373	1	11
537.543	1	3
537.713	1	12
537.883	1	12
538.053	1	12
538.223	1	7
538.393	1	19
538.563	1	5
538.733	1	5
538.903	1	13
539.073	1	12
539.243	1	4
539.413	1	13
539.584	1	7
539.754	1	6
539.924	1	2
540.094	1	4
540.264	1	9
540.434	1	9
540.604	1	5
540.774	1	6
540.944	1	9
541.114	1	5
541.284	1	9
541.454	1	8
541.624	1	6
541.794	1	-2
541.964	1	9
542.134	1	9
542.305	1	11
542.475	1	15
542.645	1	-2
542.815	1	13
542.985	1	12
543.155	1	10
543.325	1	13
543.495	1	3
543.665	1	1
543.835	1	9
544.005	1	22
544.175	1	10
544.345	1	8
544.515	1	12
544.685	1	7
544.855	1	13
545.025	1	-1
545.195	1	6
545.365	1	9
545.535	1	2
545.705	1	11
545.875	1	10
546.045	1	4
546.216	1	10
546.386	1	7
546.556	1	4
546.726	1	11
546.896	1	1
547.066	1	9
547.236	1	25
547.406	1	4
547.576	1	4
547.746	1	2
547.916	1	8
548.086	1	10
548.256	1	11
548.426	1	14
548.596	1	-5
548.766	1	12
548.936	1	5
549.106	1	10
549.276	1	12
549.446	1	12
549.616	1	12
549.786	1	11
549.956	1	1
550.126	1	-1
550.296	1	11
550.466	1	4
550.636	1	10
550.806	1	5
550.976	1	20
551.146	1	21
551.316	1	6
551.486	1	5
551.656	1	9
551.826	1	12
551.996	1	1
552.166	1	6
552.336	1	18
552.506	1	16
552.676	1	9
552.846	1	7
553.016	1	4
553.186	1	4
553.356	1	13
553.526	1	10
553.696	1	13
553.866	1	2
554.036	1	16
554.206	1	2
554.376	1	9
554.546	1	-4
554.716	1	2
554.886	1	-5
555.056	1	5
555.226	1	2
555.396	1	5
555.566	1	4
555.736	1	6
555.906	1	-5
556.076	1	8
556.246	1	3
556.416	1	8
556.586	1	2
556.756	1	1
556.926	1	6
557.096	1	0
557.266	1	17
557.436	1	1
557.606	1	13
557.776	1	4
557.946	1	6
558.116	1	-3
558.286	1	-1
558.456	1	-2
558.626	1	16
558.796	1	3
558.966	1	14
559.136	1	12
559.306	1	16
559.476	1	-1
559.646	1	-6
559.816	1	1
559.986	1	7
560.155	1	5
560.325	1	3
560.495	1	6
560.665	1	6
560.835	1	4
561.005	1	9
561.175	1	0
561.345	1	0
561.515	1	9
561.685	1	7
561.855	1	15
562.025	1	-4
562.195	1	11
562.365	1	7
562.535	1	5
562.705	1	13
562.875	1	8
563.045	1	3
563.215	1	1
563.385	1	10
563.555	1	6
563.725	1	5
563.895	1	8
564.064	1	10
564.234	1	2
564.404	1	4
564.574	1	-3
564.744	1	8
564.914	1	4
565.084	1	8
565.254	1	10
565.424	1	9
565.594	1	13
565.764	1	6
565.934	1	10
566.104	1	4
566.274	1	1
566.444	1	1
566.614	1	0
566.783	1	-2
566.953	1	5
567.123	1	9
567.293	1	11
567.463	1	0
567.633	1	14
567.803	1	11
567.973	1	8
568.143	1	7
568.313	1	-1
568.483	1	2
568.653	1	5
568.823	1	16
568.993	1	9
569.162	1	12
569.332	1	12
569.502	1	11
569.672	1	7
569.842	1	-5
570.012	1	0
570.182	1	-6
570.352	1	4
570.522	1	9
570.692	1	16
570.862	1	9
571.031	1	3
571.201	1	3
571.371	1	9
571.541	1	0
571.711	1	4
571.881	1	-1
572.051	1	8
572.221	1	12
572.391	1	13
572.561	1	8
572.731	1	1
572.900	1	-5
573.070	1	10
573.240	1	8
573.410	1	14
573.580	1	13
573.750	1	9
573.920	1	16
574.090	1	1
574.260	1	12
574.430	1	16
574.599	1	5
574.769	1	4
574.939	1	5
575.109	1	3
575.279	1	10
575.449	1	9
575.619	1	7
575.789	1	11
575.959	1	2
576.128	1	10
576.298	1	4
576.468	1	-1
576.638	1	12
576.808	1	-3
576.978	1	5
577.148	1	-4
577.318	1	5
577.487	1	5
577.657	1	9
577.827	1	2
577.997	1	1
578.167	1	-1
578.337	1	7
578.507	1	15
578.677	1	2
578.846	1	5
579.016	1	10
579.186	1	1
579.356	1	3
579.526	1	9
579.696	1	2
579.866	1	6
580.036	1	-1
580.205	1	8
580.375	1	4
580.545	1	-3
580.715	1	13
580.885	1	5
581.055	1	11
581.225	1	-4
581.394	1	3
581.564	1	3
581.734	1	6
581.904	1	-5
582.074	1	1
582.244	1	5
582.414	1	5
582.583	1	10
582.753	1	14
582.923	1	20
583.093	1	12
583.263	1	13
583.433	1	12
583.603	1	-7
583.772	1	1
583.942	1	4
584.112	1	8
584.282	1	1
584.452	1	1
584.622	1	16
584.791	1	1
584.961	1	-2
585.131	1	9
585.301	1	11
585.471	1	1
585.641	1	9
585.811	1	-3
585.980	1	1
586.150	1	-6
586.320	1	3
586.490	1	6
586.660	1	5
586.830	1	-4
586.999	1	9
587.169	1	10
587.339	1	3
587.509	1	6
587.679	1	0
587.849	1	10
588.018	1	5
588.188	1	7
588.358	1	12
588.528	1	8
588.698	1	0
588.867	1	5
589.037	1	3
589.207	1	-2
589.377	1	4
589.547	1	5
589.717	1	7
589.886	1	-3
590.056	1	7
590.226	1	-6
590.396	1	7
590.566	1	5
590.735	1	1
590.905	1	6
591.075	1	14
591.245	1	3
591.415	1	2
591.585	1	6
591.754	1	9
591.924	1	2
592.094	1	4
592.264	1	-4
592.434	1	9
592.603	1	9
592.773	1	9
592.943	1	7
593.113	1	-4
593.283	1	11
593.452	1	1
593.622	1	0
593.792	1	-1
593.962	1	3
594.132	1	8
594.301	1	8
594.471	1	13
594.641	1	8
594.811	1	-9
594.981	1	13
595.150	1	-1
595.320	1	6
595.490	1	5
595.660	1	5
595.829	1	1
595.999	1	2
596.169	1	14
596.339	1	0
596.509	1	3
596.678	1	-4
596.848	1	13
597.018	1	7
597.188	1	6
597.358	1	-5
597.527	1	-2
597.697	1	9
597.867	1	8
598.037	1	4
598.206	1	8
598.376	1	-1
598.546	1	-3
598.716	1	-2
598.885	1	-3
599.055	1	5
599.225	1	13
599.395	1	-7
599.565	1	0
599.734	1	19
599.904	1	15
600.074	1	1
600.244	1	5
600.413	1	-6
600.583	1	9
600.753	1	9
600.923	1	2
601.092	1	1
601.262	1	-4
601.432	1	4
601.602	1	2
601.771	1	1
601.941	1	3
602.111	1	5
602.281	1	3
602.451	1	5
602.620	1	8
602.790	1	11
602.960	1	9
603.130	1	-1
603.299	1	4
603.469	1	9
603.639	1	4
603.809	1	2
603.978	1	10
604.148	1	8
604.318	1	1
604.487	1	16
604.657	1	5
604.827	1	-2
604.997	1	6
605.166	1	17
605.336	1	5
605.506	1	-7
605.676	1	9
605.845	1	3
606.015	1	7
606.185	1	0
606.355	1	9
606.524	1	-5
606.694	1	0
606.864	1	-2
607.034	1	-3
607.203	1	3
607.373	1	4
607.543	1	10
607.712	1	-7
607.882	1	2
608.052	1	0
608.222	1	1
608.391	1	10
608.561	1	13
608.731	1	4
608.901	1	1
609.070	1	-1
609.240	1	0
609.410	1	3
609.579	1	2
609.749	1	3
609.919	1	2
610.089	1	12
610.258	1	8
610.428	1	9
610.598	1	9
610.767	1	-1
610.937	1	4
611.107	1	-3
611.277	1	1
611.446	1	3
611.616	1	-4
611.786	1	5
611.955	1	6
612.125	1	2
612.295	1	2
612.465	1	4
612.634	1	-5
612.804	1	10
612.974	1	1
613.143	1	-11
613.313	1	0
613.483	1	0
613.652	1	13
613.822	1	8
613.992	1	-2
614.162	1	9
614.331	1	3
614.501	1	2
614.671	1	13
614.840	1	1
615.010	1	3
615.180	1	9
615.349	1	9
615.519	1	-7
615.689	1	8
615.858	1	-2
616.028	1	3
616.198	1	6
616.368	1	1
616.537	1	-2
616.707	1	9
616.877	1	7
617.046	1	4
617.216	1	16
617.386	1	2
617.555	1	-3
617.725	1	5
617.895	1	2
618.064	1	1
618.234	1	7
618.404	1	-5
618.573	1	-2
618.743	1	7
618.913	1	7
619.082	1	14
619.252	1	4
619.422	1	-7
619.591	1	2
619.761	1	0
619.931	1	5
620.100	1	3
620.270	1	10
620.440	1	3
620.609	1	5
620.779	1	-3
620.949	1	5
621.118	1	1
621.288	1	-3
621.458	1	-2
621.627	1	2
621.797	1	-2
621.967	1	1
622.136	1	4
622.306	1	0
622.476	1	2
622.645	1	4
622.815	1	0
622.985	1	8
623.154	1	1
623.324	1	4
623.494	1	-6
623.663	1	10
623.833	1	3
624.002	1	8
624.172	1	6
624.342	1	19
624.511	1	8
624.681	1	9
624.851	1	-2
625.020	1	7
625.190	1	2
625.360	1	-1
625.529	1	6
625.699	1	0
625.869	1	13
626.038	1	8
626.208	1	4
626.377	1	7
626.547	1	4
626.717	1	0
626.886	1	-2
627.056	1	4
627.226	1	2
627.395	1	2
627.565	1	6
627.735	1	-5
627.904	1	-1
628.074	1	3
628.243	1	-3
628.413	1	6
628.583	1	-9
628.752	1	0
628.922	1	-7
629.091	1	-2
629.261	1	6
629.431	1	8
629.600	1	2
629.770	1	9
629.940	1	1
630.109	1	0
630.279	1	-1
630.448	1	3
630.618	1	2
630.788	1	9
630.957	1	6
631.127	1	1
631.297	1	-8
631.466	1	12
631.636	1	10
631.805	1	6
631.975	1	-2
632.145	1	6
632.314	1	-1
632.484	1	-4
632.653	1	12
632.823	1	-2
632.993	1	-3
633.162	1	7
633.332	1	7
633.501	1	9
633.671	1	4
633.841	1	-5
634.010	1	5
634.180	1	-2
634.349	1	-11
634.519	1	4
634.689	1	9
634.858	1	11
635.028	1	11
635.197	1	3
635.367	1	-5
635.537	1	-5
635.706	1	-2
635.876	1	6
636.045	1	13
636.215	1	0
636.384	1	2
636.554	1	-11
636.724	1	6
636.893	1	5
637.063	1	4
637.232	1	1
637.402	1	13
637.572	1	-9
637.741	1	3
637.911	1	9
638.080	1	3
638.250	1	12
638.419	1	-8
638.589	1	8
638.759	1	2
638.928	1	1
639.098	1	-4
639.267	1	1
639.437	1	-5
639.606	1	-4
639.776	1	2
639.946	1	5
640.115	1	5
640.285	1	-1
640.454	1	-1
640.624	1	5
640.793	1	-2
640.963	1	1
641.132	1	0
641.302	1	-1
641.472	1	0
641.641	1	10
641.811	1	15
641.980	1	-8
642.150	1	4
642.319	1	7
642.489	1	-5
642.659	1	-1
642.828	1	0
642.998	1	9
643.167	1	1
643.337	1	9
643.506	1	10
643.676	1	9
643.845	1	5
644.015	1	5
644.184	1	10
644.354	1	1
644.524	1	8
644.693	1	2
644.863	1	-3
645.032	1	1
645.202	1	16
645.371	1	-5
645.541	1	5
645.710	1	3
645.880	1	7
646.049	1	10
646.219	1	-4
646.388	1	4
646.558	1	12
646.728	1	11
646.897	1	1
647.067	1	0
647.236	1	-4
647.406	1	7
647.575	1	3
647.745	1	0
647.914	1	5
648.084	1	7
648.253	1	0
648.423	1	11
648.592	1	2
648.762	1	10
648.931	1	5
649.101	1	1
649.270	1	-2
649.440	1	-7
649.610	1	1
649.779	1	1
649.949	1	2
650.118	1	5
650.288	1	-3
650.457	1	8
650.627	1	1
650.796	1	10
650.966	1	4
651.135	1	8
651.305	1	-8
651.474	1	9
651.644	1	2
651.813	1	5
651.983	1	3
652.152	1	3
652.322	1	12
652.491	1	8
652.661	1	2
652.830	1	2
653.000	1	1
653.169	1	-2
653.339	1	2
653.508	1	2
653.678	1	4
653.847	1	5
654.017	1	18
654.186	1	11
654.356	1	4
654.525	1	0
654.695	1	10
654.864	1	11
655.034	1	10
655.203	1	2
655.373	1	8
655.542	1	4
655.712	1	-2
655.881	1	-2
656.051	1	5
656.220	1	0
656.390	1	-4
656.559	1	5
656.729	1	-1
656.898	1	2
657.068	1	6
657.237	1	2
657.406	1	1
657.576	1	-4
657.745	1	11
657.915	1	-2
658.084	1	-2
658.254	1	13
658.423	1	6
658.593	1	4
658.762	1	1
658.932	1	10
659.101	1	7
659.271	1	-7
659.440	1	1
659.610	1	6
659.779	1	4
659.949	1	5
660.118	1	5
660.288	1	11
660.457	1	7
660.626	1	7
660.796	1	-7
660.965	1	7
661.135	1	-12
661.304	1	10
661.474	1	14
661.643	1	3
661.813	1	-6
661.982	1	5
662.152	1	0
662.321	1	3
662.491	1	-10
662.660	1	3
662.829	1	3
662.999	1	8
663.168	1	6
663.338	1	3
663.507	1	-2
663.677	1	0
663.846	1	0
664.016	1	2
664.185	1	4
664.354	1	4
664.524	1	2
664.693	1	6
664.863	1	-3
665.032	1	4
665.202	1	7
665.371	1	8
665.541	1	6
665.710	1	10
665.879	1	7
666.049	1	4
666.218	1	11
666.388	1	19
666.557	1	4
666.727	1	8
666.896	1	-2
667.065	1	-5
667.235	1	1
667.404	1	5
667.574	1	-4
667.743	1	-2
667.913	1	1
668.082	1	5
668.251	1	3
668.421	1	11
668.590	1	11
668.760	1	-2
668.929	1	5
669.099	1	1
669.268	1	0
669.437	1	0
669.607	1	4
669.776	1	-1
669.946	1	5
670.115	1	1
670.285	1	17
670.454	1	-4
670.623	1	-3
670.793	1	9
670.962	1	2
671.132	1	6
671.301	1	-1
671.470	1	2
671.640	1	7
671.809	1	0
671.979	1	-1
672.148	1	6
672.317	1	4
672.487	1	3
672.656	1	3
672.826	1	3
672.995	1	-4
673.164	1	-2
673.334	1	0
673.503	1	-5
673.673	1	6
673.842	1	1
674.011	1	6
674.181	1	7
674.350	1	3
674.520	1	-1
674.689	1	4
674.858	1	-2
675.028	1	3
675.197	1	6
675.367	1	-2
675.536	1	5
675.705	1	3
675.875	1	1
676.044	1	11
676.214	1	-11
676.383	1	-3
676.552	1	10
676.722	1	15
676.891	1	10
677.060	1	0
677.230	1	10
677.399	1	-2
677.569	1	-2
677.738	1	-5
677.907	1	-1
678.077	1	18
678.246	1	8
678.416	1	-6
678.585	1	6
678.754	1	7
678.924	1	7
679.093	1	3
679.262	1	7
679.432	1	4
679.601	1	16
679.771	1	3
679.940	1	10
680.109	1	1
680.279	1	14
680.448	1	4
680.617	1	0
680.787	1	1
680.956	1	-4
681.125	1	1
681.295	1	3
681.464	1	10
681.634	1	2
681.803	1	7
681.972	1	-5
682.142	1	8
682.311	1	4
682.480	1	2
682.650	1	6
682.819	1	8
682.988	1	-5
683.158	1	-4
683.327	1	5
683.496	1	5
683.666	1	8
683.835	1	-4
684.004	1	4
684.174	1	9
684.343	1	5
684.512	1	-3
684.682	1	9
684.851	1	0
685.021	1	-6
685.190	1	3
685.359	1	5
685.529	1	17
685.698	1	-4
685.867	1	12
686.037	1	1
686.206	1	12
686.375	1	2
686.545	1	4
686.714	1	2
686.883	1	9
687.053	1	-5
687.222	1	3
687.391	1	4
687.561	1	11
687.730	1	7
687.899	1	-1
688.069	1	0
688.238	1	-2
688.407	1	-12
688.577	1	16
688.746	1	-1
