340.368	1	-3
340.539	1	1
340.710	1	-15
340.881	1	3
341.052	1	7
341.223	1	5
341.394	1	5
341.565	1	1
341.737	1	7
341.908	1	4
342.079	1	-1
342.250	1	7
342.421	1	6
342.592	1	1
342.763	1	12
342.934	1	-7
343.105	1	17
343.276	1	8
343.447	1	-9
343.618	1	9
343.789	1	3
343.960	1	-2
344.131	1	10
344.302	1	-4
344.473	1	4
344.644	1	4
344.815	1	10
344.986	1	1
345.157	1	2
345.328	1	5
345.499	1	-1
345.670	1	5
345.841	1	5
346.012	1	6
346.183	1	3
346.354	1	-9
346.526	1	1
346.697	1	13
346.868	1	11
347.039	1	-5
347.210	1	-11
347.381	1	-3
347.552	1	18
347.723	1	10
347.894	1	0
348.065	1	-7
348.236	1	1
348.407	1	0
348.578	1	6
348.749	1	7
348.920	1	-5
349.091	1	2
349.262	1	9
349.433	1	1
349.604	1	12
349.775	1	12
349.946	1	9
350.117	1	-8
350.288	1	1
350.459	1	1
350.630	1	10
350.801	1	2
350.972	1	-6
351.143	1	-5
351.314	1	-2
351.485	1	3
351.656	1	3
351.827	1	-1
351.998	1	13
352.169	1	-2
352.340	1	2
352.511	1	7
352.682	1	5
352.853	1	1
353.024	1	3
353.195	1	11
353.366	1	0
353.537	1	5
353.708	1	9
353.879	1	0
354.050	1	0
354.221	1	4
354.392	1	0
354.563	1	7
354.734	1	6
354.905	1	13
355.076	1	3
355.247	1	-1
355.418	1	-5
355.589	1	2
355.760	1	13
355.931	1	1
356.102	1	17
356.273	1	-3
356.444	1	2
356.615	1	7
356.785	1	0
356.956	1	10
357.127	1	9
357.298	1	7
357.469	1	-1
357.640	1	2
357.811	1	6
357.982	1	9
358.153	1	11
358.324	1	13
358.495	1	9
358.666	1	13
358.837	1	5
359.008	1	2
359.179	1	-1
359.350	1	4
359.521	1	10
359.692	1	10
359.863	1	13
360.034	1	5
360.205	1	15
360.376	1	6
360.547	1	8
360.718	1	8
360.889	1	15
361.060	1	3
361.231	1	4
361.401	1	13
361.572	1	9
361.743	1	13
361.914	1	16
362.085	1	14
362.256	1	7
362.427	1	12
362.598	1	12
362.769	1	3
362.940	1	27
363.111	1	25
363.282	1	17
363.453	1	8
363.624	1	15
363.795	1	14
363.966	1	15
364.137	1	22
364.308	1	20
364.478	1	24
364.649	1	16
364.820	1	29
364.991	1	30
365.162	1	20
365.333	1	32
365.504	1	20
365.675	1	31
365.846	1	24
366.017	1	23
366.188	1	33
366.359	1	34
366.530	1	20
366.701	1	38
366.871	1	36
367.042	1	25
367.213	1	30
367.384	1	39
367.555	1	37
367.726	1	43
367.897	1	34
368.068	1	45
368.239	1	47
368.410	1	40
368.581	1	37
368.752	1	43
368.923	1	40
369.093	1	26
369.264	1	38
369.435	1	38
369.606	1	41
369.777	1	37
369.948	1	36
370.119	1	26
370.290	1	38
370.461	1	37
370.632	1	39
370.803	1	23
370.973	1	38
371.144	1	24
371.315	1	33
371.486	1	25
371.657	1	30
371.828	1	32
371.999	1	28
372.170	1	28
372.341	1	37
372.512	1	7
372.682	1	36
372.853	1	29
373.024	1	18
373.195	1	21
373.366	1	22
373.537	1	25
373.708	1	12
373.879	1	29
374.050	1	32
374.220	1	25
374.391	1	6
374.562	1	26
374.733	1	19
374.904	1	19
375.075	1	25
375.246	1	15
375.417	1	26
375.588	1	5
375.758	1	30
375.929	1	17
376.100	1	19
376.271	1	21
376.442	1	18
376.613	1	15
376.784	1	3
376.955	1	25
377.125	1	19
377.296	1	8
377.467	1	12
377.638	1	17
377.809	1	22
377.980	1	8
378.151	1	3
378.321	1	6
378.492	1	9
378.663	1	18
378.834	1	14
379.005	1	4
379.176	1	8
379.347	1	16
379.518	1	11
379.688	1	6
379.859	1	11
380.030	1	12
380.201	1	4
380.372	1	14
380.543	1	15
380.714	1	20
380.884	1	5
381.055	1	16
381.226	1	19
381.397	1	11
381.568	1	11
381.739	1	6
381.910	1	14
382.080	1	1
382.251	1	6
382.422	1	12
382.593	1	7
382.764	1	8
382.935	1	14
383.105	1	12
383.276	1	16
383.447	1	10
383.618	1	8
383.789	1	18
383.960	1	14
384.130	1	2
384.301	1	3
384.472	1	-7
384.643	1	3
384.814	1	13
384.985	1	5
385.156	1	2
385.326	1	0
385.497	1	14
385.668	1	20
385.839	1	-10
386.010	1	5
386.180	1	11
386.351	1	8
386.522	1	21
386.693	1	6
386.864	1	10
387.035	1	-2
387.205	1	1
387.376	1	-3
387.547	1	9
387.718	1	-4
387.889	1	13
388.060	1	11
388.230	1	10
388.401	1	4
388.572	1	17
388.743	1	13
388.914	1	6
389.084	1	-1
389.255	1	16
389.426	1	5
389.597	1	10
389.768	1	3
389.939	1	1
390.109	1	12
390.280	1	1
390.451	1	9
390.622	1	4
390.793	1	-2
390.963	1	5
391.134	1	2
391.305	1	1
391.476	1	11
391.647	1	1
391.817	1	3
391.988	1	10
392.159	1	13
392.330	1	6
392.501	1	2
392.671	1	3
392.842	1	1
393.013	1	11
393.184	1	7
393.355	1	8
393.525	1	8
393.696	1	5
393.867	1	8
394.038	1	-12
394.208	1	11
394.379	1	1
394.550	1	1
394.721	1	5
394.892	1	0
395.062	1	2
395.233	1	10
395.404	1	6
395.575	1	2
395.746	1	12
395.916	1	2
396.087	1	-2
396.258	1	-1
396.429	1	10
396.599	1	-3
396.770	1	11
396.941	1	7
397.112	1	4
397.283	1	4
397.453	1	13
397.624	1	4
397.795	1	5
397.966	1	5
398.136	1	-5
398.307	1	1
398.478	1	-10
398.649	1	7
398.819	1	7
398.990	1	-11
399.161	1	1
399.332	1	4
399.503	1	5
399.673	1	7
399.844	1	-15
400.015	1	9
400.186	1	-3
400.356	1	-20
400.527	1	10
400.698	1	2
400.869	1	-2
401.039	1	0
401.210	1	10
401.381	1	15
401.552	1	3
401.722	1	-6
401.893	1	11
402.064	1	-1
402.235	1	14
402.405	1	-8
402.576	1	-5
402.747	1	6
402.918	1	-1
403.088	1	9
403.259	1	6
403.430	1	2
403.601	1	8
403.771	1	3
403.942	1	6
404.113	1	5
404.284	1	-9
404.454	1	-3
404.625	1	7
404.796	1	12
404.967	1	2
405.137	1	5
405.308	1	8
405.479	1	1
405.649	1	-1
405.820	1	1
405.991	1	12
406.162	1	2
406.332	1	-10
406.503	1	6
406.674	1	2
406.845	1	12
407.015	1	2
407.186	1	2
407.357	1	2
407.527	1	7
407.698	1	5
407.869	1	0
408.040	1	1
408.210	1	-1
408.381	1	8
408.552	1	2
408.722	1	3
408.893	1	3
409.064	1	2
409.235	1	-5
409.405	1	5
409.576	1	7
409.747	1	3
409.917	1	-4
410.088	1	5
410.259	1	5
410.430	1	-3
410.600	1	3
410.771	1	6
410.942	1	5
411.112	1	10
411.283	1	4
411.454	1	7
411.625	1	-5
411.795	1	9
411.966	1	4
412.137	1	-9
412.307	1	6
412.478	1	-3
412.649	1	2
412.819	1	-6
412.990	1	-3
413.161	1	6
413.332	1	-4
413.502	1	4
413.673	1	3
413.844	1	15
414.014	1	1
414.185	1	-2
414.356	1	-6
414.526	1	6
414.697	1	5
414.868	1	0
415.038	1	-7
415.209	1	-15
415.380	1	1
415.550	1	-3
415.721	1	1
415.892	1	0
416.063	1	5
416.233	1	12
416.404	1	7
416.575	1	1
416.745	1	5
416.916	1	-3
417.087	1	0
417.257	1	10
417.428	1	-3
417.599	1	2
417.769	1	8
417.940	1	0
418.111	1	12
418.281	1	-7
418.452	1	10
418.623	1	7
418.793	1	1
418.964	1	0
419.135	1	2
419.305	1	-1
419.476	1	0
419.647	1	6
419.817	1	-1
419.988	1	3
420.159	1	10
420.329	1	9
420.500	1	-3
420.671	1	-6
420.841	1	0
421.012	1	-2
421.183	1	-2
421.353	1	9
421.524	1	3
421.695	1	-7
421.865	1	7
422.036	1	3
422.206	1	5
422.377	1	4
422.548	1	-5
422.718	1	-2
422.889	1	3
423.060	1	-8
423.230	1	0
423.401	1	5
423.572	1	-2
423.742	1	-2
423.913	1	7
424.084	1	13
424.254	1	1
424.425	1	-7
424.595	1	5
424.766	1	4
424.937	1	5
425.107	1	2
425.278	1	5
425.449	1	4
425.619	1	-3
425.790	1	1
425.961	1	-2
426.131	1	13
426.302	1	-1
426.472	1	5
426.643	1	11
426.814	1	-3
426.984	1	5
427.155	1	13
427.326	1	9
427.496	1	-2
427.667	1	1
427.837	1	5
428.008	1	7
428.179	1	11
428.349	1	-8
428.520	1	-2
428.691	1	-4
428.861	1	6
429.032	1	-4
429.202	1	0
429.373	1	3
429.544	1	-5
429.714	1	-6
429.885	1	-1
430.055	1	10
430.226	1	5
430.397	1	-2
430.567	1	2
430.738	1	-3
430.909	1	-4
431.079	1	0
431.250	1	8
431.420	1	-3
431.591	1	-5
431.762	1	9
431.932	1	-4
432.103	1	7
432.273	1	-1
432.444	1	0
432.615	1	6
432.785	1	1
432.956	1	8
433.126	1	3
433.297	1	-6
433.468	1	-6
433.638	1	11
433.809	1	7
433.979	1	4
434.150	1	-5
434.320	1	4
434.491	1	-7
434.662	1	-10
434.832	1	6
435.003	1	7
435.173	1	3
435.344	1	0
435.515	1	17
435.685	1	3
435.856	1	6
436.026	1	3
436.197	1	-7
436.368	1	3
436.538	1	7
436.709	1	-2
436.879	1	10
437.050	1	-10
437.220	1	6
437.391	1	3
437.562	1	14
437.732	1	5
437.903	1	3
438.073	1	2
438.244	1	-3
438.414	1	-5
438.585	1	-2
438.756	1	-3
438.926	1	3
439.097	1	3
439.267	1	4
439.438	1	0
439.608	1	1
439.779	1	13
439.949	1	8
440.120	1	-5
440.291	1	0
440.461	1	12
440.632	1	-6
440.802	1	10
440.973	1	0
441.143	1	-2
441.314	1	-8
441.485	1	0
441.655	1	-7
441.826	1	11
441.996	1	-10
442.167	1	-2
442.337	1	8
442.508	1	-9
442.678	1	2
442.849	1	-4
443.019	1	2
443.190	1	-6
443.361	1	10
443.531	1	4
443.702	1	11
443.872	1	-3
444.043	1	4
444.213	1	-6
444.384	1	8
444.554	1	-4
444.725	1	4
444.895	1	-14
445.066	1	8
445.237	1	-4
445.407	1	5
445.578	1	5
445.748	1	8
445.919	1	1
446.089	1	-1
446.260	1	8
446.430	1	5
446.601	1	-3
446.771	1	-11
446.942	1	-3
447.112	1	9
447.283	1	-1
447.453	1	5
447.624	1	-3
447.794	1	1
447.965	1	2
448.135	1	7
448.306	1	-5
448.477	1	2
448.647	1	-3
448.818	1	12
448.988	1	12
449.159	1	2
449.329	1	-4
449.500	1	6
449.670	1	-22
449.841	1	0
450.011	1	10
450.182	1	6
450.352	1	-6
450.523	1	8
450.693	1	-2
450.864	1	4
451.034	1	-3
451.205	1	4
451.375	1	2
451.546	1	-11
451.716	1	6
451.887	1	2
452.057	1	1
452.228	1	6
452.398	1	0
452.569	1	14
452.739	1	-1
452.910	1	4
453.080	1	-2
453.251	1	8
453.421	1	10
453.592	1	-7
453.762	1	6
453.933	1	-1
454.103	1	4
454.274	1	5
454.444	1	0
454.615	1	-7
454.785	1	-2
454.956	1	10
455.126	1	2
455.297	1	-6
455.467	1	-13
455.638	1	1
455.808	1	10
455.979	1	13
456.149	1	4
456.320	1	11
456.490	1	1
456.661	1	1
456.831	1	-1
457.001	1	15
457.172	1	1
457.342	1	1
457.513	1	6
457.683	1	6
457.854	1	16
458.024	1	13
458.195	1	4
458.365	1	-3
458.536	1	-3
458.706	1	6
458.877	1	7
459.047	1	-4
459.218	1	-1
459.388	1	6
459.559	1	3
459.729	1	6
459.899	1	-2
460.070	1	3
460.240	1	6
460.411	1	6
460.581	1	6
460.752	1	-2
460.922	1	-2
461.093	1	6
461.263	1	-2
461.434	1	-11
461.604	1	13
461.775	1	9
461.945	1	5
462.115	1	2
462.286	1	-7
462.456	1	-8
462.627	1	11
462.797	1	-2
462.968	1	8
463.138	1	1
463.309	1	3
463.479	1	0
463.649	1	6
463.820	1	11
463.990	1	3
464.161	1	9
464.331	1	-1
464.502	1	-3
464.672	1	-2
464.843	1	0
465.013	1	12
465.183	1	6
465.354	1	-3
465.524	1	9
465.695	1	6
465.865	1	4
466.036	1	-3
466.206	1	8
466.376	1	4
466.547	1	0
466.717	1	2
466.888	1	0
467.058	1	5
467.229	1	5
467.399	1	1
467.569	1	14
467.740	1	-4
467.910	1	-4
468.081	1	-3
468.251	1	4
468.422	1	2
468.592	1	-8
468.762	1	16
468.933	1	-3
469.103	1	-13
469.274	1	9
469.444	1	5
469.614	1	-2
469.785	1	0
469.955	1	-9
470.126	1	7
470.296	1	6
470.467	1	6
470.637	1	-3
470.807	1	5
470.978	1	-1
471.148	1	4
471.319	1	6
471.489	1	6
471.659	1	-9
471.830	1	2
472.000	1	4
472.171	1	4
472.341	1	4
472.511	1	4
472.682	1	-4
472.852	1	13
473.023	1	5
473.193	1	-2
473.363	1	4
473.534	1	5
473.704	1	3
473.875	1	-2
474.045	1	5
474.215	1	8
474.386	1	-4
474.556	1	7
474.727	1	3
474.897	1	4
475.067	1	5
475.238	1	-2
475.408	1	-9
475.578	1	1
475.749	1	1
475.919	1	9
476.090	1	1
476.260	1	5
476.430	1	-3
476.601	1	-7
476.771	1	8
476.942	1	0
477.112	1	5
477.282	1	8
477.453	1	7
477.623	1	13
477.793	1	2
477.964	1	11
478.134	1	-1
478.305	1	0
478.475	1	3
478.645	1	5
478.816	1	4
478.986	1	0
479.156	1	13
479.327	1	-14
479.497	1	4
479.667	1	-2
479.838	1	7
480.008	1	-3
480.179	1	1
480.349	1	4
480.519	1	0
480.690	1	-3
480.860	1	0
481.030	1	0
481.201	1	15
481.371	1	6
481.541	1	4
481.712	1	2
481.882	1	15
482.053	1	1
482.223	1	-7
482.393	1	4
482.564	1	-3
482.734	1	10
482.904	1	1
483.075	1	-2
483.245	1	0
483.415	1	10
483.586	1	3
483.756	1	9
483.926	1	5
484.097	1	-5
484.267	1	4
484.437	1	5
484.608	1	3
484.778	1	-5
484.948	1	5
485.119	1	2
485.289	1	15
485.459	1	4
485.630	1	10
485.800	1	-2
485.970	1	4
486.141	1	11
486.311	1	6
486.481	1	-8
486.652	1	8
486.822	1	3
486.992	1	0
487.163	1	-1
487.333	1	-6
487.503	1	-3
487.674	1	-2
487.844	1	0
488.014	1	5
488.185	1	1
488.355	1	-7
488.525	1	1
488.696	1	6
488.866	1	0
489.036	1	12
489.207	1	6
489.377	1	2
489.547	1	2
489.718	1	1
489.888	1	-4
490.058	1	14
490.228	1	-1
490.399	1	5
490.569	1	5
490.739	1	10
490.910	1	-2
491.080	1	8
491.250	1	0
491.421	1	5
491.591	1	8
491.761	1	2
491.932	1	2
492.102	1	4
492.272	1	15
492.442	1	5
492.613	1	6
492.783	1	-3
492.953	1	6
493.124	1	3
493.294	1	0
493.464	1	-10
493.635	1	-4
493.805	1	10
493.975	1	8
494.145	1	16
494.316	1	1
494.486	1	7
494.656	1	4
494.827	1	-6
494.997	1	3
495.167	1	9
495.337	1	11
495.508	1	12
495.678	1	2
495.848	1	1
496.019	1	-2
496.189	1	-6
496.359	1	4
496.529	1	-3
496.700	1	12
496.870	1	-1
497.040	1	6
497.211	1	10
497.381	1	7
497.551	1	2
497.721	1	-1
497.892	1	3
498.062	1	-2
498.232	1	10
498.403	1	3
498.573	1	3
498.743	1	6
498.913	1	5
499.084	1	2
499.254	1	11
499.424	1	-1
499.594	1	4
499.765	1	-12
499.935	1	12
500.105	1	-4
500.275	1	9
500.446	1	6
500.616	1	-1
500.786	1	12
500.956	1	5
501.127	1	12
501.297	1	5
501.467	1	2
501.638	1	-10
501.808	1	7
501.978	1	4
502.148	1	12
502.319	1	7
502.489	1	4
502.659	1	10
502.829	1	8
503.000	1	3
503.170	1	16
503.340	1	2
503.510	1	9
503.681	1	2
503.851	1	13
504.021	1	11
504.191	1	0
504.362	1	5
504.532	1	-3
504.702	1	5
504.872	1	12
505.042	1	1
505.213	1	0
505.383	1	-2
505.553	1	4
505.723	1	5
505.894	1	13
506.064	1	4
506.234	1	-2
506.404	1	8
506.575	1	11
506.745	1	6
506.915	1	7
507.085	1	-13
507.256	1	6
507.426	1	7
507.596	1	13
507.766	1	15
507.936	1	9
508.107	1	-1
508.277	1	-8
508.447	1	5
508.617	1	7
508.788	1	-3
508.958	1	0
509.128	1	3
509.298	1	12
509.468	1	7
509.639	1	13
509.809	1	10
509.979	1	6
510.149	1	9
510.319	1	-1
510.490	1	7
510.660	1	0
510.830	1	5
511.000	1	9
511.171	1	5
511.341	1	12
511.511	1	7
511.681	1	7
511.851	1	10
512.022	1	5
512.192	1	9
512.362	1	-4
512.532	1	-2
512.702	1	-2
512.873	1	-2
513.043	1	-1
513.213	1	6
513.383	1	9
513.553	1	10
513.724	1	3
513.894	1	0
514.064	1	1
514.234	1	3
514.404	1	2
514.575	1	1
514.745	1	6
514.915	1	1
515.085	1	-5
515.255	1	-9
515.425	1	7
515.596	1	-2
515.766	1	3
515.936	1	-3
516.106	1	6
516.276	1	0
516.447	1	8
516.617	1	7
516.787	1	4
516.957	1	1
517.127	1	4
517.297	1	9
517.468	1	5
517.638	1	-2
517.808	1	14
517.978	1	2
518.148	1	6
518.319	1	1
518.489	1	18
518.659	1	6
518.829	1	7
518.999	1	6
519.169	1	0
519.340	1	13
519.510	1	4
519.680	1	10
519.850	1	4
520.020	1	-5
520.190	1	1
520.361	1	7
520.531	1	7
520.701	1	4
520.871	1	3
521.041	1	8
521.211	1	4
521.382	1	2
521.552	1	-2
521.722	1	9
521.892	1	-3
522.062	1	-2
522.232	1	-2
522.402	1	-1
522.573	1	4
522.743	1	17
522.913	1	6
523.083	1	6
523.253	1	9
523.423	1	0
523.593	1	8
523.764	1	12
523.934	1	1
524.104	1	13
524.274	1	0
524.444	1	7
524.614	1	15
524.784	1	9
524.955	1	4
525.125	1	3
525.295	1	11
525.465	1	13
525.635	1	12
525.805	1	4
525.975	1	4
526.146	1	4
526.316	1	6
526.486	1	4
526.656	1	9
526.826	1	7
526.996	1	10
527.166	1	9
527.337	1	7
527.507	1	11
527.677	1	3
527.847	1	8
528.017	1	6
528.187	1	1
528.357	1	-3
528.527	1	-2
528.698	1	-3
528.868	1	3
529.038	1	-1
529.208	1	16
529.378	1	3
529.548	1	19
529.718	1	13
529.888	1	-4
530.058	1	5
530.229	1	14
530.399	1	10
530.569	1	6
530.739	1	3
530.909	1	2
531.079	1	5
531.249	1	3
531.419	1	15
531.589	1	2
531.760	1	7
531.930	1	8
532.100	1	6
532.270	1	14
532.440	1	5
532.610	1	11
532.780	1	1
532.950	1	-1
533.120	1	4
533.290	1	9
533.461	1	-2
533.631	1	6
533.801	1	-1
533.971	1	7
534.141	1	-4
534.311	1	9
534.481	1	13
534.651	1	-2
534.821	1	7
534.991	1	-2
535.162	1	13
535.332	1	8
535.502	1	16
535.672	1	7
535.842	1	7
536.012	1	-2
536.182	1	3
536.352	1	0
536.522	1	6
536.692	1	6
536.862	1	18
537.032	1	1
537.203	1	9
537.373	1	2
537.543	1	0
537.713	1	9
537.883	1	7
538.053	1	9
538.223	1	4
538.393	1	18
538.563	1	0
538.733	1	9
538.903	1	6
539.073	1	10
539.243	1	3
539.413	1	4
539.584	1	8
539.754	1	6
539.924	1	-1
540.094	1	6
540.264	1	5
540.434	1	5
540.604	1	8
540.774	1	9
540.944	1	2
541.114	1	-3
541.284	1	12
541.454	1	1
541.624	1	-1
541.794	1	0
541.964	1	6
542.134	1	4
542.305	1	7
542.475	1	5
542.645	1	0
542.815	1	4
542.985	1	8
543.155	1	11
543.325	1	3
543.495	1	3
543.665	1	9
543.835	1	-3
544.005	1	11
544.175	1	1
544.345	1	6
544.515	1	5
544.685	1	10
544.855	1	-2
545.025	1	4
545.195	1	2
545.365	1	8
545.535	1	-4
545.705	1	7
545.875	1	9
546.045	1	11
546.216	1	7
546.386	1	12
546.556	1	2
546.726	1	-4
546.896	1	7
547.066	1	20
547.236	1	15
547.406	1	4
547.576	1	1
547.746	1	-6
547.916	1	3
548.086	1	10
548.256	1	13
548.426	1	9
548.596	1	-3
548.766	1	9
548.936	1	4
549.106	1	13
549.276	1	9
549.446	1	1
549.616	1	18
549.786	1	4
549.956	1	13
550.126	1	9
550.296	1	10
550.466	1	-6
550.636	1	2
550.806	1	2
550.976	1	10
551.146	1	10
551.316	1	4
551.486	1	6
551.656	1	9
551.826	1	12
551.996	1	0
552.166	1	5
552.336	1	8
552.506	1	7
552.676	1	5
552.846	1	8
553.016	1	7
553.186	1	7
553.356	1	10
553.526	1	-9
553.696	1	7
553.866	1	2
554.036	1	4
554.206	1	9
554.376	1	0
554.546	1	-7
554.716	1	0
554.886	1	6
555.056	1	7
555.226	1	-9
555.396	1	7
555.566	1	2
555.736	1	5
555.906	1	-3
556.076	1	12
556.246	1	7
556.416	1	3
556.586	1	4
556.756	1	-6
556.926	1	10
557.096	1	5
557.266	1	8
557.436	1	-4
557.606	1	-6
557.776	1	3
557.946	1	13
558.116	1	-4
558.286	1	10
558.456	1	2
558.626	1	12
558.796	1	5
558.966	1	3
559.136	1	7
559.306	1	13
559.476	1	7
559.646	1	1
559.816	1	0
559.986	1	4
560.155	1	8
560.325	1	0
560.495	1	0
560.665	1	3
560.835	1	-2
561.005	1	-3
561.175	1	-7
561.345	1	3
561.515	1	8
561.685	1	-3
561.855	1	0
562.025	1	-2
562.195	1	7
562.365	1	3
562.535	1	-6
562.705	1	4
562.875	1	5
563.045	1	3
563.215	1	-2
563.385	1	9
563.555	1	-1
563.725	1	0
563.895	1	14
564.064	1	9
564.234	1	16
564.404	1	-10
564.574	1	-4
564.744	1	2
564.914	1	3
565.084	1	12
565.254	1	2
565.424	1	3
565.594	1	13
565.764	1	-1
565.934	1	2
566.104	1	6
566.274	1	4
566.444	1	9
566.614	1	1
566.783	1	10
566.953	1	7
567.123	1	7
567.293	1	9
567.463	1	-7
567.633	1	15
567.803	1	9
567.973	1	-1
568.143	1	-6
568.313	1	0
568.483	1	3
568.653	1	12
568.823	1	6
568.993	1	6
569.162	1	3
569.332	1	16
569.502	1	3
569.672	1	8
569.842	1	-4
570.012	1	7
570.182	1	0
570.352	1	-2
570.522	1	-3
570.692	1	2
570.862	1	1
571.031	1	7
571.201	1	10
571.371	1	0
571.541	1	-3
571.711	1	8
571.881	1	5
572.051	1	-1
572.221	1	8
572.391	1	7
572.561	1	2
572.731	1	5
572.900	1	0
573.070	1	11
573.240	1	6
573.410	1	14
573.580	1	13
573.750	1	12
573.920	1	5
574.090	1	3
574.260	1	2
574.430	1	12
574.599	1	9
574.769	1	-5
574.939	1	5
575.109	1	4
575.279	1	2
575.449	1	2
575.619	1	9
575.789	1	10
575.959	1	-5
576.128	1	2
576.298	1	8
576.468	1	-2
576.638	1	1
576.808	1	3
576.978	1	2
577.148	1	12
577.318	1	3
577.487	1	7
577.657	1	7
577.827	1	-1
577.997	1	-2
578.167	1	6
578.337	1	6
578.507	1	21
578.677	1	3
578.846	1	2
579.016	1	4
579.186	1	-8
579.356	1	7
579.526	1	1
579.696	1	-2
579.866	1	3
580.036	1	2
580.205	1	-1
580.375	1	3
580.545	1	-1
580.715	1	9
580.885	1	-3
581.055	1	6
581.225	1	1
581.394	1	0
581.564	1	5
581.734	1	8
581.904	1	2
582.074	1	5
582.244	1	11
582.414	1	-7
582.583	1	5
582.753	1	7
582.923	1	12
583.093	1	7
583.263	1	13
583.433	1	5
583.603	1	1
583.772	1	-6
583.942	1	15
584.112	1	5
584.282	1	3
584.452	1	1
584.622	1	13
584.791	1	0
584.961	1	-2
585.131	1	15
585.301	1	12
585.471	1	2
585.641	1	-2
585.811	1	-7
585.980	1	-4
586.150	1	1
586.320	1	3
586.490	1	12
586.660	1	8
586.830	1	6
586.999	1	5
587.169	1	14
587.339	1	5
587.509	1	2
587.679	1	-7
587.849	1	3
588.018	1	10
588.188	1	1
588.358	1	15
588.528	1	2
588.698	1	4
588.867	1	1
589.037	1	-8
589.207	1	5
589.377	1	2
589.547	1	2
589.717	1	0
589.886	1	-5
590.056	1	0
590.226	1	6
590.396	1	2
590.566	1	0
590.735	1	-1
590.905	1	18
591.075	1	13
591.245	1	5
591.415	1	5
591.585	1	-4
591.754	1	10
591.924	1	-7
592.094	1	8
592.264	1	-1
592.434	1	2
592.603	1	3
592.773	1	3
592.943	1	10
593.113	1	6
593.283	1	7
593.452	1	-3
593.622	1	-4
593.792	1	2
593.962	1	6
594.132	1	12
594.301	1	0
594.471	1	8
594.641	1	7
594.811	1	0
594.981	1	13
595.150	1	2
595.320	1	3
595.490	1	-5
595.660	1	5
595.829	1	7
595.999	1	4
596.169	1	14
596.339	1	6
596.509	1	5
596.678	1	-12
596.848	1	4
597.018	1	-2
597.188	1	-7
597.358	1	-2
597.527	1	7
597.697	1	4
597.867	1	4
598.037	1	1
598.206	1	3
598.376	1	3
598.546	1	-7
598.716	1	2
598.885	1	7
599.055	1	1
599.225	1	5
599.395	1	2
599.565	1	0
599.734	1	14
599.904	1	13
600.074	1	-4
600.244	1	2
600.413	1	-9
600.583	1	9
600.753	1	5
600.923	1	8
601.092	1	-3
601.262	1	-4
601.432	1	2
601.602	1	10
601.771	1	10
601.941	1	3
602.111	1	-4
602.281	1	1
602.451	1	14
602.620	1	11
602.790	1	13
602.960	1	6
603.130	1	-3
603.299	1	8
603.469	1	1
603.639	1	-2
603.809	1	5
603.978	1	8
604.148	1	5
604.318	1	-3
604.487	1	4
604.657	1	12
604.827	1	-7
604.997	1	3
605.166	1	6
605.336	1	-3
605.506	1	2
605.676	1	-6
605.845	1	4
606.015	1	2
606.185	1	8
606.355	1	0
606.524	1	6
606.694	1	2
606.864	1	1
607.034	1	-2
607.203	1	2
607.373	1	8
607.543	1	11
607.712	1	-10
607.882	1	-4
608.052	1	0
608.222	1	0
608.391	1	12
608.561	1	10
608.731	1	-4
608.901	1	4
609.070	1	2
609.240	1	-5
609.410	1	-3
609.579	1	-2
609.749	1	-3
609.919	1	2
610.089	1	0
610.258	1	14
610.428	1	3
610.598	1	17
610.767	1	3
610.937	1	3
611.107	1	3
611.277	1	-6
611.446	1	-2
611.616	1	4
611.786	1	3
611.955	1	1
612.125	1	4
612.295	1	5
612.465	1	0
612.634	1	-5
612.804	1	1
612.974	1	3
613.143	1	-1
613.313	1	0
613.483	1	-9
613.652	1	19
613.822	1	6
613.992	1	7
614.162	1	8
614.331	1	-3
614.501	1	-1
614.671	1	6
614.840	1	0
615.010	1	9
615.180	1	3
615.349	1	7
615.519	1	-14
615.689	1	16
615.858	1	2
616.028	1	1
616.198	1	2
616.368	1	5
616.537	1	1
616.707	1	13
616.877	1	2
617.046	1	-1
617.216	1	13
617.386	1	1
617.555	1	-4
617.725	1	4
617.895	1	-5
618.064	1	-2
618.234	1	4
618.404	1	1
618.573	1	-2
618.743	1	3
618.913	1	4
619.082	1	11
619.252	1	4
619.422	1	-14
619.591	1	6
619.761	1	-1
619.931	1	3
620.100	1	-1
620.270	1	-5
620.440	1	11
620.609	1	-5
620.779	1	6
620.949	1	9
621.118	1	-5
621.288	1	8
621.458	1	4
621.627	1	7
621.797	1	3
621.967	1	3
622.136	1	7
622.306	1	6
622.476	1	1
622.645	1	-5
622.815	1	5
622.985	1	1
623.154	1	13
623.324	1	1
623.494	1	2
623.663	1	15
623.833	1	10
624.002	1	4
624.172	1	1
624.342	1	14
624.511	1	14
624.681	1	9
624.851	1	1
625.020	1	-1
625.190	1	11
625.360	1	-2
625.529	1	8
625.699	1	1
625.869	1	7
626.038	1	0
626.208	1	-3
626.377	1	8
626.547	1	-2
626.717	1	-2
626.886	1	9
627.056	1	4
627.226	1	6
627.395	1	-9
627.565	1	1
627.735	1	-3
627.904	1	1
628.074	1	1
628.243	1	-2
628.413	1	-1
628.583	1	1
628.752	1	-8
628.922	1	-1
629.091	1	-15
629.261	1	4
629.431	1	3
629.600	1	-3
629.770	1	2
629.940	1	-2
630.109	1	-1
630.279	1	2
630.448	1	8
630.618	1	-2
630.788	1	4
630.957	1	11
631.127	1	-2
631.297	1	-4
631.466	1	3
631.636	1	13
631.805	1	9
631.975	1	0
632.145	1	13
632.314	1	11
632.484	1	-1
632.653	1	1
632.823	1	-2
632.993	1	7
633.162	1	17
633.332	1	7
633.501	1	3
633.671	1	9
633.841	1	2
634.010	1	11
634.180	1	0
634.349	1	0
634.519	1	3
634.689	1	4
634.858	1	3
635.028	1	-1
635.197	1	1
635.367	1	2
635.537	1	-5
635.706	1	-1
635.876	1	-3
636.045	1	7
636.215	1	-3
636.384	1	-3
636.554	1	-5
636.724	1	11
636.893	1	9
637.063	1	-4
637.232	1	4
637.402	1	8
637.572	1	-4
637.741	1	0
637.911	1	3
638.080	1	9
638.250	1	18
638.419	1	-5
638.589	1	8
638.759	1	1
638.928	1	8
639.098	1	-4
639.267	1	8
639.437	1	-8
639.606	1	-7
639.776	1	1
639.946	1	1
640.115	1	8
640.285	1	2
640.454	1	-3
640.624	1	-6
640.793	1	1
640.963	1	2
641.132	1	4
641.302	1	0
641.472	1	0
641.641	1	-1
641.811	1	7
641.980	1	-5
642.150	1	7
642.319	1	6
642.489	1	5
642.659	1	4
642.828	1	2
642.998	1	9
643.167	1	-9
643.337	1	6
643.506	1	9
643.676	1	-2
643.845	1	12
644.015	1	5
644.184	1	3
644.354	1	-2
644.524	1	-4
644.693	1	-6
644.863	1	-9
645.032	1	1
645.202	1	14
645.371	1	-3
645.541	1	2
645.710	1	-3
645.880	1	14
646.049	1	8
646.219	1	-1
646.388	1	3
646.558	1	18
646.728	1	0
646.897	1	10
647.067	1	6
647.236	1	-4
647.406	1	1
647.575	1	0
647.745	1	2
647.914	1	3
648.084	1	1
648.253	1	9
648.423	1	5
648.592	1	2
648.762	1	2
648.931	1	-2
649.101	1	5
649.270	1	-2
649.440	1	8
649.610	1	4
649.779	1	-2
649.949	1	1
650.118	1	1
650.288	1	-6
650.457	1	7
650.627	1	-10
650.796	1	4
650.966	1	4
651.135	1	6
651.305	1	-6
651.474	1	14
651.644	1	10
651.813	1	1
651.983	1	0
652.152	1	-2
652.322	1	4
652.491	1	15
652.661	1	8
652.830	1	1
653.000	1	-9
653.169	1	0
653.339	1	3
653.508	1	10
653.678	1	5
653.847	1	-4
654.017	1	16
654.186	1	12
654.356	1	-1
654.525	1	2
654.695	1	8
654.864	1	6
655.034	1	0
655.203	1	1
655.373	1	5
655.542	1	-4
655.712	1	-14
655.881	1	-11
656.051	1	7
656.220	1	2
656.390	1	6
656.559	1	-3
656.729	1	9
656.898	1	13
657.068	1	4
657.237	1	13
657.406	1	-3
657.576	1	1
657.745	1	12
657.915	1	6
658.084	1	-5
658.254	1	6
658.423	1	3
658.593	1	6
658.762	1	3
658.932	1	3
659.101	1	3
659.271	1	1
659.440	1	8
659.610	1	6
659.779	1	4
659.949	1	1
660.118	1	4
660.288	1	0
660.457	1	6
660.626	1	3
660.796	1	-2
660.965	1	9
661.135	1	-8
661.304	1	2
661.474	1	11
661.643	1	14
661.813	1	-6
661.982	1	-1
662.152	1	-7
662.321	1	2
662.491	1	-1
662.660	1	-6
662.829	1	-1
662.999	1	9
663.168	1	8
663.338	1	7
663.507	1	-1
663.677	1	0
663.846	1	-10
664.016	1	8
664.185	1	10
664.354	1	-3
664.524	1	6
664.693	1	-5
664.863	1	0
665.032	1	0
665.202	1	17
665.371	1	4
665.541	1	5
665.710	1	7
665.879	1	8
666.049	1	3
666.218	1	4
666.388	1	11
666.557	1	9
666.727	1	10
666.896	1	-1
667.065	1	1
667.235	1	1
667.404	1	6
667.574	1	-9
667.743	1	-11
667.913	1	-7
668.082	1	19
668.251	1	9
668.421	1	11
668.590	1	6
668.760	1	-1
668.929	1	9
669.099	1	5
669.268	1	2
669.437	1	-7
669.607	1	0
669.776	1	1
669.946	1	8
670.115	1	3
670.285	1	12
670.454	1	-6
670.623	1	6
670.793	1	14
670.962	1	2
671.132	1	8
671.301	1	2
671.470	1	4
671.640	1	6
671.809	1	-1
671.979	1	6
672.148	1	-5
672.317	1	1
672.487	1	1
672.656	1	6
672.826	1	4
672.995	1	-3
673.164	1	-2
673.334	1	-1
673.503	1	-1
673.673	1	-5
673.842	1	4
674.011	1	-3
674.181	1	-5
674.350	1	4
674.520	1	3
674.689	1	1
674.858	1	6
675.028	1	5
675.197	1	5
675.367	1	-5
675.536	1	7
675.705	1	12
675.875	1	1
676.044	1	12
676.214	1	2
676.383	1	6
676.552	1	6
676.722	1	15
676.891	1	16
677.060	1	-4
677.230	1	-2
677.399	1	-2
677.569	1	-4
677.738	1	3
677.907	1	-1
678.077	1	10
678.246	1	2
678.416	1	-3
678.585	1	11
678.754	1	6
678.924	1	15
679.093	1	-1
679.262	1	-4
679.432	1	9
679.601	1	11
679.771	1	5
679.940	1	9
680.109	1	1
680.279	1	15
680.448	1	-1
680.617	1	3
680.787	1	-3
680.956	1	-14
681.125	1	12
681.295	1	-1
681.464	1	7
681.634	1	2
681.803	1	11
681.972	1	-2
682.142	1	2
682.311	1	5
682.480	1	5
682.650	1	4
682.819	1	5
682.988	1	-1
683.158	1	4
683.327	1	9
683.496	1	10
683.666	1	4
683.835	1	-1
684.004	1	8
684.174	1	-1
684.343	1	3
684.512	1	4
684.682	1	9
684.851	1	2
685.021	1	-11
685.190	1	4
685.359	1	-3
685.529	1	6
685.698	1	-5
685.867	1	7
686.037	1	0
686.206	1	8
686.375	1	15
686.545	1	4
686.714	1	-8
686.883	1	3
687.053	1	8
687.222	1	4
687.391	1	11
687.561	1	3
687.730	1	8
687.899	1	-6
688.069	1	1
688.238	1	-4
688.407	1	-9
688.577	1	15
688.746	1	1
