340.368	1	0
340.539	1	-2
340.710	1	-9
340.881	1	1
341.052	1	5
341.223	1	7
341.394	1	-2
341.565	1	1
341.737	1	-1
341.908	1	12
342.079	1	-3
342.250	1	5
342.421	1	9
342.592	1	6
342.763	1	9
342.934	1	-10
343.105	1	12
343.276	1	6
343.447	1	-3
343.618	1	-9
343.789	1	5
343.960	1	3
344.131	1	2
344.302	1	-5
344.473	1	6
344.644	1	9
344.815	1	16
344.986	1	4
345.157	1	-1
345.328	1	10
345.499	1	-13
345.670	1	14
345.841	1	10
346.012	1	11
346.183	1	6
346.354	1	-2
346.526	1	12
346.697	1	7
346.868	1	-3
347.039	1	3
347.210	1	-7
347.381	1	-4
347.552	1	12
347.723	1	16
347.894	1	-1
348.065	1	-1
348.236	1	1
348.407	1	-1
348.578	1	7
348.749	1	0
348.920	1	1
349.091	1	7
349.262	1	4
349.433	1	1
349.604	1	12
349.775	1	0
349.946	1	11
350.117	1	0
350.288	1	-1
350.459	1	4
350.630	1	9
350.801	1	1
350.972	1	-14
351.143	1	6
351.314	1	9
351.485	1	0
351.656	1	5
351.827	1	-3
351.998	1	6
352.169	1	1
352.340	1	11
352.511	1	2
352.682	1	3
352.853	1	7
353.024	1	1
353.195	1	4
353.366	1	0
353.537	1	3
353.708	1	15
353.879	1	2
354.050	1	-8
354.221	1	3
354.392	1	3
354.563	1	-1
354.734	1	-1
354.905	1	14
355.076	1	4
355.247	1	-2
355.418	1	3
355.589	1	-6
355.760	1	-1
355.931	1	-9
356.102	1	6
356.273	1	-7
356.444	1	-2
356.615	1	6
356.785	1	1
356.956	1	10
357.127	1	4
357.298	1	10
357.469	1	-3
357.640	1	-1
357.811	1	7
357.982	1	2
358.153	1	6
358.324	1	21
358.495	1	6
358.666	1	9
358.837	1	1
359.008	1	5
359.179	1	5
359.350	1	7
359.521	1	9
359.692	1	11
359.863	1	9
360.034	1	6
360.205	1	16
360.376	1	11
360.547	1	10
360.718	1	11
360.889	1	12
361.060	1	4
361.231	1	11
361.401	1	17
361.572	1	8
361.743	1	12
361.914	1	15
362.085	1	12
362.256	1	5
362.427	1	4
362.598	1	2
362.769	1	2
362.940	1	17
363.111	1	14
363.282	1	23
363.453	1	-2
363.624	1	16
363.795	1	8
363.966	1	19
364.137	1	21
364.308	1	21
364.478	1	13
364.649	1	11
364.820	1	13
364.991	1	27
365.162	1	16
365.333	1	20
365.504	1	12
365.675	1	24
365.846	1	1
366.017	1	17
366.188	1	14
366.359	1	19
366.530	1	32
366.701	1	17
366.871	1	20
367.042	1	23
367.213	1	30
367.384	1	26
367.555	1	25
367.726	1	29
367.897	1	27
368.068	1	17
368.239	1	20
368.410	1	34
368.581	1	28
368.752	1	23
368.923	1	27
369.093	1	9
369.264	1	19
369.435	1	20
369.606	1	22
369.777	1	19
369.948	1	33
370.119	1	7
370.290	1	9
370.461	1	35
370.632	1	11
370.803	1	15
370.973	1	36
371.144	1	20
371.315	1	20
371.486	1	14
371.657	1	14
371.828	1	21
371.999	1	20
372.170	1	23
372.341	1	17
372.512	1	10
372.682	1	24
372.853	1	18
373.024	1	11
373.195	1	16
373.366	1	23
373.537	1	25
373.708	1	13
373.879	1	21
374.050	1	21
374.220	1	24
374.391	1	9
374.562	1	11
374.733	1	21
374.904	1	8
375.075	1	19
375.246	1	14
375.417	1	16
375.588	1	7
375.758	1	19
375.929	1	12
376.100	1	14
376.271	1	22
376.442	1	19
376.613	1	7
376.784	1	10
376.955	1	19
377.125	1	13
377.296	1	-1
377.467	1	11
377.638	1	16
377.809	1	24
377.980	1	-1
378.151	1	18
378.321	1	14
378.492	1	9
378.663	1	13
378.834	1	6
379.005	1	5
379.176	1	6
379.347	1	11
379.518	1	3
379.688	1	17
379.859	1	11
380.030	1	9
380.201	1	1
380.372	1	7
380.543	1	8
380.714	1	15
380.884	1	4
381.055	1	7
381.226	1	8
381.397	1	17
381.568	1	17
381.739	1	7
381.910	1	10
382.080	1	2
382.251	1	11
382.422	1	5
382.593	1	15
382.764	1	18
382.935	1	3
383.105	1	14
383.276	1	18
383.447	1	14
383.618	1	9
383.789	1	14
383.960	1	13
384.130	1	7
384.301	1	4
384.472	1	-2
384.643	1	10
384.814	1	14
384.985	1	9
385.156	1	-3
385.326	1	9
385.497	1	13
385.668	1	12
385.839	1	0
386.010	1	5
386.180	1	6
386.351	1	2
386.522	1	11
386.693	1	-5
386.864	1	2
387.035	1	4
387.205	1	-1
387.376	1	-1
387.547	1	4
387.718	1	-1
387.889	1	11
388.060	1	5
388.230	1	5
388.401	1	-6
388.572	1	10
388.743	1	7
388.914	1	3
389.084	1	4
389.255	1	8
389.426	1	4
389.597	1	4
389.768	1	4
389.939	1	-7
390.109	1	13
390.280	1	2
390.451	1	6
390.622	1	4
390.793	1	6
390.963	1	-2
391.134	1	1
391.305	1	-1
391.476	1	10
391.647	1	-3
391.817	1	4
391.988	1	4
392.159	1	13
392.330	1	-3
392.501	1	2
392.671	1	-9
392.842	1	-4
393.013	1	9
393.184	1	8
393.355	1	5
393.525	1	14
393.696	1	2
393.867	1	3
394.038	1	6
394.208	1	4
394.379	1	0
394.550	1	3
394.721	1	9
394.892	1	6
395.062	1	5
395.233	1	8
395.404	1	14
395.575	1	4
395.746	1	14
395.916	1	-2
396.087	1	9
396.258	1	0
396.429	1	2
396.599	1	2
396.770	1	7
396.941	1	0
397.112	1	-5
397.283	1	5
397.453	1	13
397.624	1	11
397.795	1	2
397.966	1	1
398.136	1	2
398.307	1	-1
398.478	1	13
398.649	1	3
398.819	1	8
398.990	1	-14
399.161	1	-2
399.332	1	-2
399.503	1	8
399.673	1	0
399.844	1	-9
400.015	1	12
400.186	1	0
400.356	1	-1
400.527	1	5
400.698	1	8
400.869	1	-2
401.039	1	0
401.210	1	0
401.381	1	6
401.552	1	8
401.722	1	7
401.893	1	10
402.064	1	3
402.235	1	-1
402.405	1	-7
402.576	1	7
402.747	1	2
402.918	1	5
403.088	1	6
403.259	1	7
403.430	1	1
403.601	1	7
403.771	1	-2
403.942	1	4
404.113	1	12
404.284	1	-10
404.454	1	-4
404.625	1	0
404.796	1	12
404.967	1	3
405.137	1	2
405.308	1	5
405.479	1	-1
405.649	1	8
405.820	1	0
405.991	1	8
406.162	1	1
406.332	1	-11
406.503	1	-1
406.674	1	7
406.845	1	5
407.015	1	9
407.186	1	-4
407.357	1	-1
407.527	1	-1
407.698	1	5
407.869	1	-8
408.040	1	7
408.210	1	1
408.381	1	8
408.552	1	1
408.722	1	-6
408.893	1	6
409.064	1	-3
409.235	1	5
409.405	1	10
409.576	1	2
409.747	1	-5
409.917	1	0
410.088	1	11
410.259	1	6
410.430	1	0
410.600	1	5
410.771	1	-3
410.942	1	9
411.112	1	-1
411.283	1	3
411.454	1	2
411.625	1	-10
411.795	1	12
411.966	1	4
412.137	1	-13
412.307	1	0
412.478	1	-3
412.649	1	2
412.819	1	-11
412.990	1	5
413.161	1	7
413.332	1	-4
413.502	1	4
413.673	1	-1
413.844	1	4
414.014	1	1
414.185	1	5
414.356	1	2
414.526	1	5
414.697	1	11
414.868	1	0
415.038	1	-2
415.209	1	-12
415.380	1	9
415.550	1	6
415.721	1	3
415.892	1	3
416.063	1	-1
416.233	1	6
416.404	1	5
416.575	1	10
416.745	1	9
416.916	1	-7
417.087	1	3
417.257	1	8
417.428	1	-6
417.599	1	2
417.769	1	4
417.940	1	-1
418.111	1	10
418.281	1	-9
418.452	1	7
418.623	1	10
418.793	1	4
418.964	1	7
419.135	1	6
419.305	1	4
419.476	1	3
419.647	1	7
419.817	1	-6
419.988	1	4
420.159	1	9
420.329	1	0
420.500	1	4
420.671	1	-1
420.841	1	-4
421.012	1	-3
421.183	1	-1
421.353	1	2
421.524	1	6
421.695	1	-5
421.865	1	6
422.036	1	9
422.206	1	7
422.377	1	-2
422.548	1	3
422.718	1	4
422.889	1	-8
423.060	1	2
423.230	1	12
423.401	1	12
423.572	1	2
423.742	1	9
423.913	1	5
424.084	1	10
424.254	1	-1
424.425	1	-8
424.595	1	9
424.766	1	1
424.937	1	7
425.107	1	3
425.278	1	-9
425.449	1	7
425.619	1	-18
425.790	1	7
425.961	1	-4
426.131	1	8
426.302	1	-9
426.472	1	-2
426.643	1	11
426.814	1	-2
426.984	1	2
427.155	1	13
427.326	1	7
427.496	1	-3
427.667	1	1
427.837	1	6
428.008	1	3
428.179	1	-1
428.349	1	-7
428.520	1	4
428.691	1	-4
428.861	1	2
429.032	1	-6
429.202	1	4
429.373	1	-1
429.544	1	-1
429.714	1	0
429.885	1	-2
430.055	1	6
430.226	1	7
430.397	1	0
430.567	1	3
430.738	1	-7
430.909	1	1
431.079	1	-6
431.250	1	14
431.420	1	-5
431.591	1	4
431.762	1	8
431.932	1	-7
432.103	1	5
432.273	1	4
432.444	1	1
432.615	1	9
432.785	1	2
432.956	1	4
433.126	1	6
433.297	1	7
433.468	1	-7
433.638	1	5
433.809	1	0
433.979	1	1
434.150	1	2
434.320	1	6
434.491	1	2
434.662	1	-19
434.832	1	8
435.003	1	3
435.173	1	7
435.344	1	8
435.515	1	11
435.685	1	-1
435.856	1	10
436.026	1	4
436.197	1	-10
436.368	1	5
436.538	1	1
436.709	1	7
436.879	1	8
437.050	1	-1
437.220	1	-2
437.391	1	3
437.562	1	-1
437.732	1	5
437.903	1	0
438.073	1	-3
438.244	1	4
438.414	1	-6
438.585	1	-5
438.756	1	-6
438.926	1	1
439.097	1	2
439.267	1	-1
439.438	1	-2
439.608	1	-1
439.779	1	13
439.949	1	12
440.120	1	-9
440.291	1	3
440.461	1	14
440.632	1	-2
440.802	1	1
440.973	1	-1
441.143	1	-7
441.314	1	-3
441.485	1	-8
441.655	1	3
441.826	1	5
441.996	1	4
442.167	1	6
442.337	1	-7
442.508	1	-1
442.678	1	2
442.849	1	-7
443.019	1	9
443.190	1	7
443.361	1	4
443.531	1	7
443.702	1	2
443.872	1	0
444.043	1	-8
444.213	1	0
444.384	1	-6
444.554	1	-2
444.725	1	7
444.895	1	-15
445.066	1	13
445.237	1	-3
445.407	1	10
445.578	1	11
445.748	1	0
445.919	1	9
446.089	1	0
446.260	1	10
446.430	1	-8
446.601	1	-4
446.771	1	-13
446.942	1	13
447.112	1	6
447.283	1	9
447.453	1	-2
447.624	1	6
447.794	1	-4
447.965	1	-3
448.135	1	1
448.306	1	5
448.477	1	16
448.647	1	-8
448.818	1	18
448.988	1	8
449.159	1	-2
449.329	1	0
449.500	1	7
449.670	1	-13
449.841	1	-2
450.011	1	3
450.182	1	7
450.352	1	0
450.523	1	13
450.693	1	-3
450.864	1	8
451.034	1	-1
451.205	1	-4
451.375	1	7
451.546	1	-6
451.716	1	5
451.887	1	-10
452.057	1	-6
452.228	1	-2
452.398	1	4
452.569	1	5
452.739	1	-3
452.910	1	8
453.080	1	5
453.251	1	3
453.421	1	10
453.592	1	-5
453.762	1	5
453.933	1	4
454.103	1	-3
454.274	1	0
454.444	1	-15
454.615	1	4
454.785	1	1
454.956	1	3
455.126	1	11
455.297	1	-8
455.467	1	-15
455.638	1	6
455.808	1	6
455.979	1	14
456.149	1	-2
456.320	1	7
456.490	1	3
456.661	1	0
456.831	1	-6
457.001	1	23
457.172	1	-5
457.342	1	-3
457.513	1	8
457.683	1	15
457.854	1	10
458.024	1	9
458.195	1	3
458.365	1	3
458.536	1	-10
458.706	1	9
458.877	1	6
459.047	1	-9
459.218	1	1
459.388	1	8
459.559	1	4
459.729	1	10
459.899	1	7
460.070	1	2
460.240	1	-3
460.411	1	-1
460.581	1	2
460.752	1	12
460.922	1	-7
461.093	1	11
461.263	1	-2
461.434	1	-2
461.604	1	2
461.775	1	-3
461.945	1	10
462.115	1	3
462.286	1	-2
462.456	1	-14
462.627	1	8
462.797	1	0
462.968	1	6
463.138	1	0
463.309	1	7
463.479	1	10
463.649	1	5
463.820	1	14
463.990	1	2
464.161	1	3
464.331	1	-3
464.502	1	-6
464.672	1	-7
464.843	1	-1
465.013	1	8
465.183	1	11
465.354	1	-11
465.524	1	10
465.695	1	1
465.865	1	6
466.036	1	-11
466.206	1	8
466.376	1	2
466.547	1	3
466.717	1	0
466.888	1	2
467.058	1	3
467.229	1	2
467.399	1	11
467.569	1	4
467.740	1	1
467.910	1	-12
468.081	1	-1
468.251	1	2
468.422	1	-2
468.592	1	-6
468.762	1	17
468.933	1	0
469.103	1	3
469.274	1	11
469.444	1	0
469.614	1	0
469.785	1	-4
469.955	1	5
470.126	1	6
470.296	1	4
470.467	1	6
470.637	1	3
470.807	1	-8
470.978	1	8
471.148	1	-2
471.319	1	7
471.489	1	4
471.659	1	-13
471.830	1	-3
472.000	1	-3
472.171	1	11
472.341	1	9
472.511	1	4
472.682	1	-9
472.852	1	3
473.023	1	2
473.193	1	6
473.363	1	-9
473.534	1	-2
473.704	1	8
473.875	1	6
474.045	1	8
474.215	1	7
474.386	1	-7
474.556	1	1
474.727	1	0
474.897	1	-2
475.067	1	9
475.238	1	-5
475.408	1	-4
475.578	1	4
475.749	1	-1
475.919	1	8
476.090	1	0
476.260	1	10
476.430	1	-1
476.601	1	1
476.771	1	7
476.942	1	-5
477.112	1	-5
477.282	1	9
477.453	1	8
477.623	1	11
477.793	1	12
477.964	1	1
478.134	1	7
478.305	1	-1
478.475	1	2
478.645	1	7
478.816	1	0
478.986	1	0
479.156	1	9
479.327	1	-3
479.497	1	2
479.667	1	-3
479.838	1	1
480.008	1	1
480.179	1	-4
480.349	1	9
480.519	1	2
480.690	1	-2
480.860	1	1
481.030	1	6
481.201	1	3
481.371	1	-3
481.541	1	7
481.712	1	3
481.882	1	11
482.053	1	-7
482.223	1	2
482.393	1	0
482.564	1	-3
482.734	1	6
482.904	1	2
483.075	1	2
483.245	1	-3
483.415	1	6
483.586	1	-2
483.756	1	7
483.926	1	1
484.097	1	2
484.267	1	5
484.437	1	6
484.608	1	3
484.778	1	-4
484.948	1	5
485.119	1	7
485.289	1	4
485.459	1	2
485.630	1	11
485.800	1	-1
485.970	1	4
486.141	1	6
486.311	1	13
486.481	1	0
486.652	1	9
486.822	1	2
486.992	1	3
487.163	1	-1
487.333	1	-3
487.503	1	10
487.674	1	0
487.844	1	7
488.014	1	2
488.185	1	-4
488.355	1	-4
488.525	1	4
488.696	1	5
488.866	1	8
489.036	1	5
489.207	1	-6
489.377	1	2
489.547	1	9
489.718	1	8
489.888	1	5
490.058	1	3
490.228	1	2
490.399	1	3
490.569	1	3
490.739	1	-1
490.910	1	-6
491.080	1	5
491.250	1	9
491.421	1	11
491.591	1	8
491.761	1	-3
491.932	1	5
492.102	1	9
492.272	1	3
492.442	1	0
492.613	1	-3
492.783	1	5
492.953	1	4
493.124	1	4
493.294	1	-7
493.464	1	-1
493.635	1	-4
493.805	1	7
493.975	1	8
494.145	1	7
494.316	1	-2
494.486	1	5
494.656	1	1
494.827	1	-4
494.997	1	5
495.167	1	1
495.337	1	7
495.508	1	8
495.678	1	14
495.848	1	0
496.019	1	-13
496.189	1	-4
496.359	1	6
496.529	1	2
496.700	1	8
496.870	1	4
497.040	1	-4
497.211	1	7
497.381	1	14
497.551	1	10
497.721	1	-7
497.892	1	0
498.062	1	-3
498.232	1	1
498.403	1	7
498.573	1	-4
498.743	1	5
498.913	1	5
499.084	1	3
499.254	1	13
499.424	1	6
499.594	1	4
499.765	1	-9
499.935	1	1
500.105	1	-1
500.275	1	3
500.446	1	2
500.616	1	1
500.786	1	6
500.956	1	10
501.127	1	2
501.297	1	3
501.467	1	-2
501.638	1	3
501.808	1	-5
501.978	1	5
502.148	1	5
502.319	1	9
502.489	1	-2
502.659	1	9
502.829	1	0
503.000	1	12
503.170	1	6
503.340	1	4
503.510	1	4
503.681	1	10
503.851	1	11
504.021	1	7
504.191	1	2
504.362	1	4
504.532	1	-9
504.702	1	8
504.872	1	3
505.042	1	7
505.213	1	-4
505.383	1	1
505.553	1	-3
505.723	1	5
505.894	1	16
506.064	1	8
506.234	1	-3
506.404	1	-5
506.575	1	5
506.745	1	3
506.915	1	13
507.085	1	-8
507.256	1	0
507.426	1	-3
507.596	1	7
507.766	1	9
507.936	1	15
508.107	1	-3
508.277	1	-11
508.447	1	6
508.617	1	6
508.788	1	-6
508.958	1	-5
509.128	1	2
509.298	1	2
509.468	1	11
509.639	1	15
509.809	1	9
509.979	1	7
510.149	1	3
510.319	1	-7
510.490	1	1
510.660	1	1
510.830	1	8
511.000	1	0
511.171	1	6
511.341	1	13
511.511	1	10
511.681	1	2
511.851	1	7
512.022	1	8
512.192	1	9
512.362	1	-10
512.532	1	-1
512.702	1	7
512.873	1	3
513.043	1	1
513.213	1	3
513.383	1	11
513.553	1	7
513.724	1	2
513.894	1	-7
514.064	1	13
514.234	1	-1
514.404	1	-1
514.575	1	-7
514.745	1	5
514.915	1	2
515.085	1	6
515.255	1	-4
515.425	1	13
515.596	1	-3
515.766	1	7
515.936	1	0
516.106	1	-4
516.276	1	-1
516.447	1	-1
516.617	1	2
516.787	1	10
516.957	1	-11
517.127	1	5
517.297	1	11
517.468	1	3
517.638	1	-2
517.808	1	11
517.978	1	8
518.148	1	6
518.319	1	12
518.489	1	11
518.659	1	2
518.829	1	1
518.999	1	10
519.169	1	0
519.340	1	10
519.510	1	-1
519.680	1	3
519.850	1	5
520.020	1	-2
520.190	1	0
520.361	1	0
520.531	1	13
520.701	1	13
520.871	1	1
521.041	1	8
521.211	1	7
521.382	1	2
521.552	1	4
521.722	1	-4
521.892	1	0
522.062	1	-4
522.232	1	-3
522.402	1	2
522.573	1	14
522.743	1	0
522.913	1	6
523.083	1	2
523.253	1	17
523.423	1	-4
523.593	1	6
523.764	1	2
523.934	1	7
524.104	1	8
524.274	1	0
524.444	1	0
524.614	1	4
524.784	1	10
524.955	1	5
525.125	1	8
525.295	1	1
525.465	1	3
525.635	1	9
525.805	1	10
525.975	1	0
526.146	1	-3
526.316	1	8
526.486	1	7
526.656	1	15
526.826	1	6
526.996	1	1
527.166	1	9
527.337	1	-1
527.507	1	7
527.677	1	-2
527.847	1	4
528.017	1	4
528.187	1	0
528.357	1	-11
528.527	1	-3
528.698	1	-4
528.868	1	3
529.038	1	2
529.208	1	11
529.378	1	1
529.548	1	7
529.718	1	19
529.888	1	3
530.058	1	10
530.229	1	22
530.399	1	5
530.569	1	-6
530.739	1	12
530.909	1	-2
531.079	1	5
531.249	1	6
531.419	1	10
531.589	1	9
531.760	1	3
531.930	1	9
532.100	1	2
532.270	1	4
532.440	1	8
532.610	1	14
532.780	1	-1
532.950	1	-3
533.120	1	4
533.290	1	1
533.461	1	1
533.631	1	13
533.801	1	10
533.971	1	0
534.141	1	3
534.311	1	8
534.481	1	11
534.651	1	1
534.821	1	5
534.991	1	-7
535.162	1	5
535.332	1	9
535.502	1	7
535.672	1	8
535.842	1	8
536.012	1	0
536.182	1	9
536.352	1	-4
536.522	1	8
536.692	1	2
536.862	1	2
537.032	1	5
537.203	1	-2
537.373	1	-9
537.543	1	-5
537.713	1	9
537.883	1	11
538.053	1	17
538.223	1	7
538.393	1	7
538.563	1	0
538.733	1	-4
538.903	1	10
539.073	1	7
539.243	1	2
539.413	1	-7
539.584	1	-6
539.754	1	-2
539.924	1	3
540.094	1	1
540.264	1	12
540.434	1	8
540.604	1	4
540.774	1	6
540.944	1	-4
541.114	1	7
541.284	1	1
541.454	1	-2
541.624	1	-4
541.794	1	6
541.964	1	5
542.134	1	6
542.305	1	18
542.475	1	8
542.645	1	-1
542.815	1	10
542.985	1	19
543.155	1	1
543.325	1	7
543.495	1	-4
543.665	1	6
543.835	1	-4
544.005	1	7
544.175	1	0
544.345	1	1
544.515	1	8
544.685	1	8
544.855	1	-1
545.025	1	2
545.195	1	-5
545.365	1	8
545.535	1	13
545.705	1	3
545.875	1	-5
546.045	1	-1
546.216	1	3
546.386	1	4
546.556	1	-5
546.726	1	1
546.896	1	3
547.066	1	18
547.236	1	19
547.406	1	8
547.576	1	-4
547.746	1	10
547.916	1	2
548.086	1	4
548.256	1	7
548.426	1	8
548.596	1	-4
548.766	1	2
548.936	1	-4
549.106	1	3
549.276	1	5
549.446	1	7
549.616	1	10
549.786	1	-1
549.956	1	1
550.126	1	7
550.296	1	0
550.466	1	2
550.636	1	-1
550.806	1	6
550.976	1	5
551.146	1	3
551.316	1	5
551.486	1	4
551.656	1	0
551.826	1	12
551.996	1	7
552.166	1	3
552.336	1	11
552.506	1	2
552.676	1	5
552.846	1	-2
553.016	1	8
553.186	1	6
553.356	1	14
553.526	1	0
553.696	1	7
553.866	1	6
554.036	1	1
554.206	1	4
554.376	1	8
554.546	1	-2
554.716	1	-2
554.886	1	-4
555.056	1	-1
555.226	1	-8
555.396	1	7
555.566	1	6
555.736	1	2
555.906	1	-4
556.076	1	9
556.246	1	-3
556.416	1	3
556.586	1	1
556.756	1	5
556.926	1	7
557.096	1	2
557.266	1	8
557.436	1	-2
557.606	1	2
557.776	1	3
557.946	1	-1
558.116	1	2
558.286	1	6
558.456	1	2
558.626	1	9
558.796	1	4
558.966	1	-6
559.136	1	6
559.306	1	15
559.476	1	7
559.646	1	-6
559.816	1	3
559.986	1	2
560.155	1	8
560.325	1	1
560.495	1	-2
560.665	1	11
560.835	1	6
561.005	1	9
561.175	1	-3
561.345	1	-8
561.515	1	3
561.685	1	-4
561.855	1	9
562.025	1	-13
562.195	1	-1
562.365	1	3
562.535	1	-3
562.705	1	12
562.875	1	-7
563.045	1	-5
563.215	1	-7
563.385	1	8
563.555	1	5
563.725	1	-8
563.895	1	13
564.064	1	8
564.234	1	10
564.404	1	-1
564.574	1	-15
564.744	1	3
564.914	1	7
565.084	1	6
565.254	1	-3
565.424	1	2
565.594	1	8
565.764	1	5
565.934	1	4
566.104	1	7
566.274	1	-3
566.444	1	3
566.614	1	-12
566.783	1	12
566.953	1	8
567.123	1	2
567.293	1	14
567.463	1	5
567.633	1	2
567.803	1	4
567.973	1	0
568.143	1	9
568.313	1	-7
568.483	1	-2
568.653	1	-2
568.823	1	10
568.993	1	-4
569.162	1	4
569.332	1	10
569.502	1	7
569.672	1	4
569.842	1	6
570.012	1	5
570.182	1	-3
570.352	1	-4
570.522	1	8
570.692	1	5
570.862	1	3
571.031	1	3
571.201	1	8
571.371	1	-1
571.541	1	-3
571.711	1	4
571.881	1	-6
572.051	1	2
572.221	1	6
572.391	1	5
572.561	1	9
572.731	1	-1
572.900	1	1
573.070	1	-1
573.240	1	1
573.410	1	2
573.580	1	-2
573.750	1	7
573.920	1	18
574.090	1	-5
574.260	1	6
574.430	1	9
574.599	1	0
574.769	1	-1
574.939	1	-4
575.109	1	2
575.279	1	-4
575.449	1	-1
575.619	1	9
575.789	1	13
575.959	1	-3
576.128	1	4
576.298	1	3
576.468	1	6
576.638	1	12
576.808	1	6
576.978	1	4
577.148	1	10
577.318	1	7
577.487	1	14
577.657	1	-2
577.827	1	-4
577.997	1	-5
578.167	1	-1
578.337	1	2
578.507	1	11
578.677	1	7
578.846	1	5
579.016	1	5
579.186	1	-4
579.356	1	1
579.526	1	3
579.696	1	0
579.866	1	-1
580.036	1	-1
580.205	1	-2
580.375	1	-2
580.545	1	0
580.715	1	0
580.885	1	-1
581.055	1	3
581.225	1	1
581.394	1	3
581.564	1	-7
581.734	1	11
581.904	1	-4
582.074	1	8
582.244	1	-3
582.414	1	4
582.583	1	-3
582.753	1	6
582.923	1	8
583.093	1	10
583.263	1	9
583.433	1	18
583.603	1	-5
583.772	1	-1
583.942	1	11
584.112	1	1
584.282	1	-7
584.452	1	-1
584.622	1	5
584.791	1	10
584.961	1	5
585.131	1	1
585.301	1	-3
585.471	1	12
585.641	1	12
585.811	1	-1
585.980	1	-2
586.150	1	-3
586.320	1	5
586.490	1	9
586.660	1	10
586.830	1	-1
586.999	1	4
587.169	1	16
587.339	1	0
587.509	1	4
587.679	1	-1
587.849	1	0
588.018	1	3
588.188	1	11
588.358	1	12
588.528	1	8
588.698	1	-4
588.867	1	-6
589.037	1	-1
589.207	1	-2
589.377	1	-12
589.547	1	3
589.717	1	3
589.886	1	-6
590.056	1	2
590.226	1	3
590.396	1	9
590.566	1	7
590.735	1	0
590.905	1	12
591.075	1	9
591.245	1	3
591.415	1	-1
591.585	1	3
591.754	1	4
591.924	1	2
592.094	1	9
592.264	1	-3
592.434	1	2
592.603	1	6
592.773	1	10
592.943	1	-1
593.113	1	3
593.283	1	8
593.452	1	1
593.622	1	-5
593.792	1	8
593.962	1	0
594.132	1	5
594.301	1	10
594.471	1	4
594.641	1	9
594.811	1	-5
594.981	1	11
595.150	1	1
595.320	1	5
595.490	1	1
595.660	1	1
595.829	1	0
595.999	1	7
596.169	1	9
596.339	1	13
596.509	1	4
596.678	1	-5
596.848	1	-4
597.018	1	8
597.188	1	-1
597.358	1	-3
597.527	1	1
597.697	1	5
597.867	1	5
598.037	1	6
598.206	1	-2
598.376	1	-11
598.546	1	0
598.716	1	6
598.885	1	14
599.055	1	5
599.225	1	2
599.395	1	9
599.565	1	-1
599.734	1	7
599.904	1	13
600.074	1	-1
600.244	1	8
600.413	1	-12
600.583	1	3
600.753	1	0
600.923	1	7
601.092	1	4
601.262	1	-6
601.432	1	-2
601.602	1	3
601.771	1	11
601.941	1	3
602.111	1	5
602.281	1	-7
602.451	1	13
602.620	1	2
602.790	1	6
602.960	1	-1
603.130	1	4
603.299	1	14
603.469	1	4
603.639	1	-1
603.809	1	-4
603.978	1	9
604.148	1	1
604.318	1	-1
604.487	1	5
604.657	1	12
604.827	1	-12
604.997	1	-8
605.166	1	5
605.336	1	0
605.506	1	1
605.676	1	-6
605.845	1	5
606.015	1	3
606.185	1	11
606.355	1	-4
606.524	1	-1
606.694	1	-8
606.864	1	-3
607.034	1	8
607.203	1	9
607.373	1	15
607.543	1	4
607.712	1	-10
607.882	1	0
608.052	1	-2
608.222	1	-1
608.391	1	6
608.561	1	5
608.731	1	2
608.901	1	10
609.070	1	0
609.240	1	3
609.410	1	-2
609.579	1	1
609.749	1	-4
609.919	1	-4
610.089	1	5
610.258	1	11
610.428	1	3
610.598	1	5
610.767	1	1
610.937	1	-2
611.107	1	3
611.277	1	1
611.446	1	-6
611.616	1	4
611.786	1	11
611.955	1	5
612.125	1	3
612.295	1	-4
612.465	1	4
612.634	1	-5
612.804	1	0
612.974	1	1
613.143	1	-3
613.313	1	3
613.483	1	-1
613.652	1	12
613.822	1	10
613.992	1	5
614.162	1	2
614.331	1	-8
614.501	1	-3
614.671	1	11
614.840	1	-10
615.010	1	2
615.180	1	11
615.349	1	7
615.519	1	-10
615.689	1	10
615.858	1	3
616.028	1	-2
616.198	1	-5
616.368	1	-3
616.537	1	5
616.707	1	11
616.877	1	6
617.046	1	5
617.216	1	13
617.386	1	2
617.555	1	-2
617.725	1	4
617.895	1	10
618.064	1	7
618.234	1	-2
618.404	1	-1
618.573	1	-8
618.743	1	9
618.913	1	14
619.082	1	12
619.252	1	7
619.422	1	-3
619.591	1	7
619.761	1	2
619.931	1	9
620.100	1	6
620.270	1	8
620.440	1	1
620.609	1	5
620.779	1	-13
620.949	1	6
621.118	1	-2
621.288	1	7
621.458	1	0
621.627	1	10
621.797	1	-3
621.967	1	2
622.136	1	-2
622.306	1	-1
622.476	1	-6
622.645	1	1
622.815	1	6
622.985	1	-2
623.154	1	6
623.324	1	-9
623.494	1	6
623.663	1	-2
623.833	1	5
624.002	1	2
624.172	1	2
624.342	1	4
624.511	1	2
624.681	1	2
624.851	1	0
625.020	1	2
625.190	1	4
625.360	1	-2
625.529	1	8
625.699	1	3
625.869	1	5
626.038	1	1
626.208	1	5
626.377	1	15
626.547	1	-6
626.717	1	-4
626.886	1	0
627.056	1	1
627.226	1	4
627.395	1	7
627.565	1	2
627.735	1	-7
627.904	1	4
628.074	1	11
628.243	1	-2
628.413	1	6
628.583	1	-8
628.752	1	2
628.922	1	-3
629.091	1	-12
629.261	1	7
629.431	1	5
629.600	1	0
629.770	1	8
629.940	1	-6
630.109	1	-1
630.279	1	1
630.448	1	1
630.618	1	-6
630.788	1	1
630.957	1	3
631.127	1	7
631.297	1	4
631.466	1	7
631.636	1	10
631.805	1	11
631.975	1	-1
632.145	1	5
632.314	1	-3
632.484	1	-2
632.653	1	2
632.823	1	5
632.993	1	1
633.162	1	9
633.332	1	2
633.501	1	4
633.671	1	13
633.841	1	-5
634.010	1	11
634.180	1	-6
634.349	1	-1
634.519	1	4
634.689	1	14
634.858	1	-2
635.028	1	8
635.197	1	4
635.367	1	-6
635.537	1	-12
635.706	1	0
635.876	1	3
636.045	1	9
636.215	1	-5
636.384	1	-8
636.554	1	-3
636.724	1	5
636.893	1	4
637.063	1	2
637.232	1	5
637.402	1	13
637.572	1	5
637.741	1	-11
637.911	1	3
638.080	1	6
638.250	1	4
638.419	1	-5
638.589	1	3
638.759	1	12
638.928	1	-1
639.098	1	-7
639.267	1	7
639.437	1	-3
639.606	1	-8
639.776	1	0
639.946	1	7
640.115	1	4
640.285	1	3
640.454	1	2
640.624	1	4
640.793	1	-7
640.963	1	2
641.132	1	-5
641.302	1	-4
641.472	1	-5
641.641	1	0
641.811	1	15
641.980	1	-3
642.150	1	-1
642.319	1	5
642.489	1	-7
642.659	1	5
642.828	1	2
642.998	1	12
643.167	1	-7
643.337	1	7
643.506	1	6
643.676	1	12
643.845	1	1
644.015	1	2
644.184	1	9
644.354	1	1
644.524	1	5
644.693	1	5
644.863	1	-7
645.032	1	-2
645.202	1	6
645.371	1	-3
645.541	1	8
645.710	1	1
645.880	1	-3
646.049	1	6
646.219	1	3
646.388	1	-5
646.558	1	9
646.728	1	3
646.897	1	7
647.067	1	4
647.236	1	-1
647.406	1	8
647.575	1	-2
647.745	1	2
647.914	1	-1
648.084	1	3
648.253	1	-1
648.423	1	11
648.592	1	4
648.762	1	7
648.931	1	3
649.101	1	4
649.270	1	-1
649.440	1	-3
649.610	1	6
649.779	1	2
649.949	1	-1
650.118	1	5
650.288	1	5
650.457	1	3
650.627	1	2
650.796	1	10
650.966	1	6
651.135	1	4
651.305	1	-6
651.474	1	8
651.644	1	6
651.813	1	14
651.983	1	6
652.152	1	-6
652.322	1	0
652.491	1	4
652.661	1	6
652.830	1	3
653.000	1	-4
653.169	1	-5
653.339	1	-6
653.508	1	12
653.678	1	-2
653.847	1	-3
654.017	1	5
654.186	1	9
654.356	1	0
654.525	1	0
654.695	1	14
654.864	1	6
655.034	1	-3
655.203	1	0
655.373	1	4
655.542	1	5
655.712	1	-5
655.881	1	-3
656.051	1	8
656.220	1	2
656.390	1	-9
656.559	1	-1
656.729	1	-3
656.898	1	1
657.068	1	4
657.237	1	-2
657.406	1	9
657.576	1	15
657.745	1	12
657.915	1	2
658.084	1	-13
658.254	1	11
658.423	1	-8
658.593	1	1
658.762	1	-3
658.932	1	-1
659.101	1	0
659.271	1	7
659.440	1	4
659.610	1	5
659.779	1	9
659.949	1	3
660.118	1	5
660.288	1	2
660.457	1	4
660.626	1	4
660.796	1	4
660.965	1	12
661.135	1	-10
661.304	1	6
661.474	1	10
661.643	1	5
661.813	1	-4
661.982	1	5
662.152	1	5
662.321	1	1
662.491	1	-5
662.660	1	-8
662.829	1	-7
662.999	1	8
663.168	1	5
663.338	1	10
663.507	1	6
663.677	1	-3
663.846	1	0
664.016	1	-2
664.185	1	8
664.354	1	4
664.524	1	-5
664.693	1	7
664.863	1	-5
665.032	1	-3
665.202	1	15
665.371	1	0
665.541	1	-1
665.710	1	3
665.879	1	3
666.049	1	11
666.218	1	12
666.388	1	11
666.557	1	-8
666.727	1	12
666.896	1	-4
667.065	1	-9
667.235	1	4
667.404	1	2
667.574	1	-7
667.743	1	-4
667.913	1	-4
668.082	1	1
668.251	1	8
668.421	1	-1
668.590	1	6
668.760	1	4
668.929	1	3
669.099	1	3
669.268	1	3
669.437	1	-2
669.607	1	2
669.776	1	5
669.946	1	-2
670.115	1	6
670.285	1	11
670.454	1	-5
670.623	1	2
670.793	1	11
670.962	1	-9
671.132	1	-8
671.301	1	7
671.470	1	-2
671.640	1	1
671.809	1	-2
671.979	1	2
672.148	1	-6
672.317	1	5
672.487	1	5
672.656	1	5
672.826	1	-3
672.995	1	-6
673.164	1	5
673.334	1	-1
673.503	1	-4
673.673	1	0
673.842	1	4
674.011	1	8
674.181	1	2
674.350	1	6
674.520	1	9
674.689	1	2
674.858	1	-3
675.028	1	-1
675.197	1	5
675.367	1	-3
675.536	1	-4
675.705	1	4
675.875	1	7
676.044	1	17
676.214	1	0
676.383	1	0
676.552	1	3
676.722	1	11
676.891	1	9
677.060	1	-5
677.230	1	6
677.399	1	7
677.569	1	3
677.738	1	5
677.907	1	-3
678.077	1	9
678.246	1	-2
678.416	1	-2
678.585	1	-2
678.754	1	4
678.924	1	8
679.093	1	7
679.262	1	-3
679.432	1	7
679.601	1	6
679.771	1	5
679.940	1	5
680.109	1	-7
680.279	1	5
680.448	1	5
680.617	1	-2
680.787	1	-3
680.956	1	-6
681.125	1	5
681.295	1	4
681.464	1	5
681.634	1	-1
681.803	1	15
681.972	1	-8
682.142	1	-3
682.311	1	-2
682.480	1	8
682.650	1	3
682.819	1	6
682.988	1	6
683.158	1	4
683.327	1	11
683.496	1	8
683.666	1	8
683.835	1	-3
684.004	1	8
684.174	1	1
684.343	1	9
684.512	1	8
684.682	1	4
684.851	1	6
685.021	1	-10
685.190	1	4
685.359	1	-4
685.529	1	12
685.698	1	-7
685.867	1	8
686.037	1	-2
686.206	1	9
686.375	1	11
686.545	1	8
686.714	1	10
686.883	1	-5
687.053	1	-6
687.222	1	3
687.391	1	8
687.561	1	1
687.730	1	17
687.899	1	-12
688.069	1	3
688.238	1	-2
688.407	1	-11
688.577	1	11
688.746	1	-9
