340.368	1	1
340.539	1	3
340.710	1	-10
340.881	1	-3
341.052	1	-1
341.223	1	-3
341.394	1	5
341.565	1	7
341.737	1	-6
341.908	1	2
342.079	1	2
342.250	1	-7
342.421	1	9
342.592	1	1
342.763	1	2
342.934	1	1
343.105	1	2
343.276	1	0
343.447	1	-5
343.618	1	8
343.789	1	-3
343.960	1	-6
344.131	1	6
344.302	1	-4
344.473	1	0
344.644	1	4
344.815	1	6
344.986	1	-2
345.157	1	4
345.328	1	5
345.499	1	-3
345.670	1	4
345.841	1	9
346.012	1	3
346.183	1	8
346.354	1	-10
346.526	1	7
346.697	1	7
346.868	1	4
347.039	1	-4
347.210	1	-8
347.381	1	-5
347.552	1	7
347.723	1	-2
347.894	1	-1
348.065	1	-7
348.236	1	9
348.407	1	-7
348.578	1	5
348.749	1	10
348.920	1	-4
349.091	1	2
349.262	1	-5
349.433	1	-2
349.604	1	9
349.775	1	11
349.946	1	11
350.117	1	-8
350.288	1	-2
350.459	1	-4
350.630	1	10
350.801	1	-4
350.972	1	-11
351.143	1	4
351.314	1	9
351.485	1	-1
351.656	1	-2
351.827	1	0
351.998	1	8
352.169	1	-2
352.340	1	3
352.511	1	5
352.682	1	-1
352.853	1	0
353.024	1	5
353.195	1	10
353.366	1	3
353.537	1	3
353.708	1	6
353.879	1	5
354.050	1	-8
354.221	1	-4
354.392	1	3
354.563	1	7
354.734	1	0
354.905	1	6
355.076	1	-1
355.247	1	4
355.418	1	-3
355.589	1	3
355.760	1	-6
355.931	1	-4
356.102	1	2
356.273	1	-8
356.444	1	-3
356.615	1	5
356.785	1	-1
356.956	1	4
357.127	1	0
357.298	1	7
357.469	1	-2
357.640	1	-3
357.811	1	5
357.982	1	0
358.153	1	10
358.324	1	12
358.495	1	4
358.666	1	5
358.837	1	5
359.008	1	4
359.179	1	1
359.350	1	6
359.521	1	3
359.692	1	4
359.863	1	5
360.034	1	-8
360.205	1	14
360.376	1	-4
360.547	1	7
360.718	1	2
360.889	1	24
361.060	1	8
361.231	1	5
361.401	1	-2
361.572	1	2
361.743	1	9
361.914	1	6
362.085	1	0
362.256	1	5
362.427	1	5
362.598	1	-1
362.769	1	0
362.940	1	12
363.111	1	16
363.282	1	2
363.453	1	4
363.624	1	6
363.795	1	-4
363.966	1	-2
364.137	1	5
364.308	1	0
364.478	1	4
364.649	1	-8
364.820	1	3
364.991	1	9
365.162	1	13
365.333	1	9
365.504	1	1
365.675	1	13
365.846	1	2
366.017	1	5
366.188	1	4
366.359	1	12
366.530	1	4
366.701	1	5
366.871	1	10
367.042	1	4
367.213	1	2
367.384	1	12
367.555	1	14
367.726	1	15
367.897	1	11
368.068	1	12
368.239	1	10
368.410	1	12
368.581	1	1
368.752	1	14
368.923	1	11
369.093	1	-7
369.264	1	6
369.435	1	10
369.606	1	11
369.777	1	12
369.948	1	10
370.119	1	7
370.290	1	8
370.461	1	10
370.632	1	10
370.803	1	6
370.973	1	14
371.144	1	5
371.315	1	18
371.486	1	-6
371.657	1	0
371.828	1	10
371.999	1	5
372.170	1	5
372.341	1	16
372.512	1	5
372.682	1	14
372.853	1	12
373.024	1	-6
373.195	1	7
373.366	1	3
373.537	1	16
373.708	1	-8
373.879	1	14
374.050	1	14
374.220	1	15
374.391	1	-1
374.562	1	0
374.733	1	-3
374.904	1	3
375.075	1	-3
375.246	1	3
375.417	1	11
375.588	1	-6
375.758	1	10
375.929	1	-2
376.100	1	16
376.271	1	15
376.442	1	13
376.613	1	8
376.784	1	-4
376.955	1	10
377.125	1	2
377.296	1	5
377.467	1	-2
377.638	1	11
377.809	1	10
377.980	1	-1
378.151	1	3
378.321	1	4
378.492	1	1
378.663	1	6
378.834	1	2
379.005	1	-3
379.176	1	7
379.347	1	-2
379.518	1	1
379.688	1	12
379.859	1	5
380.030	1	9
380.201	1	-3
380.372	1	-1
380.543	1	-4
380.714	1	13
380.884	1	-2
381.055	1	3
381.226	1	7
381.397	1	3
381.568	1	8
381.739	1	0
381.910	1	4
382.080	1	-4
382.251	1	6
382.422	1	-2
382.593	1	1
382.764	1	10
382.935	1	3
383.105	1	1
383.276	1	10
383.447	1	11
383.618	1	2
383.789	1	11
383.960	1	3
384.130	1	-4
384.301	1	-5
384.472	1	-8
384.643	1	2
384.814	1	8
384.985	1	-1
385.156	1	5
385.326	1	5
385.497	1	12
385.668	1	14
385.839	1	-3
386.010	1	4
386.180	1	7
386.351	1	9
386.522	1	13
386.693	1	-9
386.864	1	2
387.035	1	-7
387.205	1	-6
387.376	1	1
387.547	1	1
387.718	1	-1
387.889	1	5
388.060	1	9
388.230	1	3
388.401	1	-1
388.572	1	12
388.743	1	8
388.914	1	-1
389.084	1	-4
389.255	1	8
389.426	1	-1
389.597	1	7
389.768	1	4
389.939	1	-1
390.109	1	7
390.280	1	0
390.451	1	5
390.622	1	-1
390.793	1	6
390.963	1	8
391.134	1	-13
391.305	1	5
391.476	1	11
391.647	1	-10
391.817	1	2
391.988	1	15
392.159	1	9
392.330	1	4
392.501	1	-2
392.671	1	0
392.842	1	-3
393.013	1	4
393.184	1	7
393.355	1	1
393.525	1	8
393.696	1	3
393.867	1	5
394.038	1	1
394.208	1	8
394.379	1	-10
394.550	1	-2
394.721	1	3
394.892	1	5
395.062	1	-5
395.233	1	1
395.404	1	9
395.575	1	7
395.746	1	10
395.916	1	-9
396.087	1	7
396.258	1	4
396.429	1	6
396.599	1	0
396.770	1	10
396.941	1	-5
397.112	1	-2
397.283	1	-1
397.453	1	3
397.624	1	-1
397.795	1	-4
397.966	1	4
398.136	1	9
398.307	1	-2
398.478	1	-6
398.649	1	3
398.819	1	3
398.990	1	-5
399.161	1	-6
399.332	1	1
399.503	1	1
399.673	1	2
399.844	1	-7
400.015	1	7
400.186	1	-3
400.356	1	-11
400.527	1	17
400.698	1	4
400.869	1	0
401.039	1	-6
401.210	1	0
401.381	1	9
401.552	1	-5
401.722	1	-8
401.893	1	4
402.064	1	-3
402.235	1	7
402.405	1	-5
402.576	1	-3
402.747	1	1
402.918	1	0
403.088	1	3
403.259	1	-4
403.430	1	6
403.601	1	11
403.771	1	0
403.942	1	9
404.113	1	0
404.284	1	-10
404.454	1	-4
404.625	1	5
404.796	1	8
404.967	1	4
405.137	1	7
405.308	1	1
405.479	1	-2
405.649	1	-3
405.820	1	6
405.991	1	3
406.162	1	9
406.332	1	-15
406.503	1	7
406.674	1	3
406.845	1	0
407.015	1	9
407.186	1	1
407.357	1	-2
407.527	1	-1
407.698	1	6
407.869	1	0
408.040	1	-5
408.210	1	7
408.381	1	11
408.552	1	1
408.722	1	-8
408.893	1	2
409.064	1	1
409.235	1	-6
409.405	1	-3
409.576	1	-1
409.747	1	2
409.917	1	6
410.088	1	5
410.259	1	3
410.430	1	-4
410.600	1	3
410.771	1	10
410.942	1	7
411.112	1	17
411.283	1	0
411.454	1	-1
411.625	1	-11
411.795	1	0
411.966	1	6
412.137	1	-6
412.307	1	3
412.478	1	2
412.649	1	6
412.819	1	-7
412.990	1	-5
413.161	1	5
413.332	1	-5
413.502	1	-1
413.673	1	1
413.844	1	6
414.014	1	1
414.185	1	1
414.356	1	-1
414.526	1	3
414.697	1	0
414.868	1	0
415.038	1	-14
415.209	1	-15
415.380	1	0
415.550	1	-7
415.721	1	-2
415.892	1	3
416.063	1	-2
416.233	1	4
416.404	1	3
416.575	1	4
416.745	1	-2
416.916	1	-14
417.087	1	-1
417.257	1	2
417.428	1	8
417.599	1	-1
417.769	1	11
417.940	1	4
418.111	1	9
418.281	1	-12
418.452	1	12
418.623	1	7
418.793	1	0
418.964	1	-4
419.135	1	3
419.305	1	2
419.476	1	-1
419.647	1	14
419.817	1	0
419.988	1	0
420.159	1	9
420.329	1	4
420.500	1	-1
420.671	1	-2
420.841	1	-2
421.012	1	-1
421.183	1	0
421.353	1	-6
421.524	1	5
421.695	1	-6
421.865	1	-3
422.036	1	8
422.206	1	1
422.377	1	10
422.548	1	3
422.718	1	8
422.889	1	-3
423.060	1	-3
423.230	1	6
423.401	1	-5
423.572	1	-4
423.742	1	-2
423.913	1	0
424.084	1	9
424.254	1	-3
424.425	1	-3
424.595	1	10
424.766	1	1
424.937	1	-3
425.107	1	-2
425.278	1	1
425.449	1	3
425.619	1	-5
425.790	1	10
425.961	1	2
426.131	1	1
426.302	1	-3
426.472	1	3
426.643	1	-4
426.814	1	-12
426.984	1	1
427.155	1	4
427.326	1	8
427.496	1	6
427.667	1	10
427.837	1	4
428.008	1	3
428.179	1	-5
428.349	1	-1
428.520	1	-1
428.691	1	-5
428.861	1	3
429.032	1	4
429.202	1	-1
429.373	1	1
429.544	1	-1
429.714	1	1
429.885	1	1
430.055	1	6
430.226	1	4
430.397	1	3
430.567	1	14
430.738	1	-1
430.909	1	0
431.079	1	2
431.250	1	6
431.420	1	-7
431.591	1	-8
431.762	1	8
431.932	1	-12
432.103	1	7
432.273	1	3
432.444	1	-4
432.615	1	4
432.785	1	-1
432.956	1	0
433.126	1	-1
433.297	1	-2
433.468	1	2
433.638	1	7
433.809	1	1
433.979	1	-2
434.150	1	0
434.320	1	7
434.491	1	-5
434.662	1	-12
434.832	1	3
435.003	1	-1
435.173	1	13
435.344	1	-3
435.515	1	5
435.685	1	3
435.856	1	7
436.026	1	-2
436.197	1	-10
436.368	1	7
436.538	1	-1
436.709	1	-1
436.879	1	3
437.050	1	-5
437.220	1	-2
437.391	1	-2
437.562	1	5
437.732	1	2
437.903	1	2
438.073	1	-1
438.244	1	4
438.414	1	-3
438.585	1	1
438.756	1	1
438.926	1	-3
439.097	1	12
439.267	1	1
439.438	1	9
439.608	1	-7
439.779	1	17
439.949	1	5
440.120	1	-6
440.291	1	9
440.461	1	15
440.632	1	3
440.802	1	6
440.973	1	-3
441.143	1	-1
441.314	1	-5
441.485	1	-12
441.655	1	-6
441.826	1	6
441.996	1	-2
442.167	1	2
442.337	1	7
442.508	1	-5
442.678	1	0
442.849	1	-8
443.019	1	4
443.190	1	7
443.361	1	8
443.531	1	1
443.702	1	5
443.872	1	-6
444.043	1	-1
444.213	1	-2
444.384	1	5
444.554	1	-4
444.725	1	1
444.895	1	-6
445.066	1	7
445.237	1	0
445.407	1	6
445.578	1	2
445.748	1	2
445.919	1	3
446.089	1	9
446.260	1	6
446.430	1	-9
446.601	1	-7
446.771	1	-12
446.942	1	5
447.112	1	13
447.283	1	5
447.453	1	5
447.624	1	-1
447.794	1	1
447.965	1	-6
448.135	1	4
448.306	1	-3
448.477	1	3
448.647	1	-5
448.818	1	10
448.988	1	5
449.159	1	-7
449.329	1	1
449.500	1	7
449.670	1	-11
449.841	1	-8
450.011	1	9
450.182	1	8
450.352	1	-5
450.523	1	-1
450.693	1	0
450.864	1	-1
451.034	1	3
451.205	1	5
451.375	1	3
451.546	1	-4
451.716	1	1
451.887	1	1
452.057	1	2
452.228	1	4
452.398	1	-4
452.569	1	15
452.739	1	11
452.910	1	1
453.080	1	-3
453.251	1	6
453.421	1	-6
453.592	1	-5
453.762	1	1
453.933	1	-6
454.103	1	-9
454.274	1	-1
454.444	1	-5
454.615	1	3
454.785	1	-3
454.956	1	-5
455.126	1	9
455.297	1	-12
455.467	1	-15
455.638	1	3
455.808	1	6
455.979	1	11
456.149	1	2
456.320	1	1
456.490	1	4
456.661	1	3
456.831	1	-4
457.001	1	11
457.172	1	-9
457.342	1	-3
457.513	1	8
457.683	1	7
457.854	1	15
458.024	1	13
458.195	1	4
458.365	1	1
458.536	1	-8
458.706	1	6
458.877	1	4
459.047	1	3
459.218	1	10
459.388	1	8
459.559	1	0
459.729	1	12
459.899	1	4
460.070	1	0
460.240	1	-5
460.411	1	-4
460.581	1	2
460.752	1	8
460.922	1	-3
461.093	1	6
461.263	1	-2
461.434	1	-9
461.604	1	8
461.775	1	6
461.945	1	0
462.115	1	-3
462.286	1	-3
462.456	1	-11
462.627	1	11
462.797	1	1
462.968	1	15
463.138	1	7
463.309	1	4
463.479	1	-1
463.649	1	8
463.820	1	10
463.990	1	-3
464.161	1	3
464.331	1	-1
464.502	1	7
464.672	1	-2
464.843	1	-7
465.013	1	11
465.183	1	-1
465.354	1	-2
465.524	1	6
465.695	1	5
465.865	1	3
466.036	1	-3
466.206	1	4
466.376	1	0
466.547	1	5
466.717	1	-3
466.888	1	-3
467.058	1	8
467.229	1	4
467.399	1	14
467.569	1	1
467.740	1	-1
467.910	1	-5
468.081	1	1
468.251	1	-2
468.422	1	8
468.592	1	2
468.762	1	9
468.933	1	1
469.103	1	10
469.274	1	1
469.444	1	5
469.614	1	-1
469.785	1	-6
469.955	1	-2
470.126	1	2
470.296	1	1
470.467	1	5
470.637	1	-3
470.807	1	-1
470.978	1	-9
471.148	1	-1
471.319	1	11
471.489	1	4
471.659	1	-8
471.830	1	-5
472.000	1	4
472.171	1	8
472.341	1	5
472.511	1	-1
472.682	1	-4
472.852	1	3
473.023	1	6
473.193	1	-2
473.363	1	-2
473.534	1	4
473.704	1	-1
473.875	1	0
474.045	1	5
474.215	1	2
474.386	1	-1
474.556	1	6
474.727	1	2
474.897	1	-3
475.067	1	1
475.238	1	2
475.408	1	1
475.578	1	3
475.749	1	2
475.919	1	5
476.090	1	2
476.260	1	21
476.430	1	-11
476.601	1	1
476.771	1	6
476.942	1	-5
477.112	1	1
477.282	1	10
477.453	1	7
477.623	1	9
477.793	1	6
477.964	1	-2
478.134	1	-3
478.305	1	0
478.475	1	5
478.645	1	2
478.816	1	-8
478.986	1	-7
479.156	1	4
479.327	1	-6
479.497	1	-2
479.667	1	0
479.838	1	4
480.008	1	11
480.179	1	-2
480.349	1	2
480.519	1	-5
480.690	1	-6
480.860	1	2
481.030	1	8
481.201	1	-12
481.371	1	-3
481.541	1	12
481.712	1	1
481.882	1	4
482.053	1	-2
482.223	1	0
482.393	1	-10
482.564	1	-6
482.734	1	9
482.904	1	2
483.075	1	1
483.245	1	-4
483.415	1	6
483.586	1	5
483.756	1	3
483.926	1	-3
484.097	1	-10
484.267	1	-2
484.437	1	-2
484.608	1	0
484.778	1	-3
484.948	1	3
485.119	1	5
485.289	1	3
485.459	1	-6
485.630	1	6
485.800	1	-2
485.970	1	-3
486.141	1	12
486.311	1	6
486.481	1	4
486.652	1	4
486.822	1	0
486.992	1	0
487.163	1	-1
487.333	1	5
487.503	1	2
487.674	1	-3
487.844	1	7
488.014	1	4
488.185	1	14
488.355	1	-6
488.525	1	3
488.696	1	-5
488.866	1	5
489.036	1	13
489.207	1	4
489.377	1	-7
489.547	1	-2
489.718	1	9
489.888	1	6
490.058	1	-2
490.228	1	0
490.399	1	4
490.569	1	6
490.739	1	-1
490.910	1	1
491.080	1	-1
491.250	1	2
491.421	1	3
491.591	1	2
491.761	1	2
491.932	1	2
492.102	1	-3
492.272	1	6
492.442	1	7
492.613	1	-2
492.783	1	9
492.953	1	-4
493.124	1	1
493.294	1	-1
493.464	1	-5
493.635	1	-11
493.805	1	4
493.975	1	9
494.145	1	7
494.316	1	2
494.486	1	7
494.656	1	1
494.827	1	-5
494.997	1	2
495.167	1	1
495.337	1	4
495.508	1	9
495.678	1	3
495.848	1	2
496.019	1	-6
496.189	1	-8
496.359	1	13
496.529	1	1
496.700	1	3
496.870	1	-5
497.040	1	-1
497.211	1	2
497.381	1	8
497.551	1	12
497.721	1	-3
497.892	1	13
498.062	1	-3
498.232	1	4
498.403	1	5
498.573	1	-6
498.743	1	3
498.913	1	8
499.084	1	2
499.254	1	3
499.424	1	0
499.594	1	-1
499.765	1	-6
499.935	1	1
500.105	1	-5
500.275	1	-3
500.446	1	3
500.616	1	-7
500.786	1	0
500.956	1	-13
501.127	1	-5
501.297	1	-2
501.467	1	1
501.638	1	-10
501.808	1	1
501.978	1	-8
502.148	1	7
502.319	1	8
502.489	1	3
502.659	1	6
502.829	1	5
503.000	1	5
503.170	1	11
503.340	1	5
503.510	1	0
503.681	1	3
503.851	1	-1
504.021	1	-1
504.191	1	-9
504.362	1	7
504.532	1	-13
504.702	1	-3
504.872	1	1
505.042	1	17
505.213	1	-5
505.383	1	2
505.553	1	0
505.723	1	1
505.894	1	3
506.064	1	4
506.234	1	-4
506.404	1	4
506.575	1	7
506.745	1	3
506.915	1	5
507.085	1	2
507.256	1	3
507.426	1	-5
507.596	1	-1
507.766	1	2
507.936	1	12
508.107	1	9
508.277	1	-10
508.447	1	5
508.617	1	10
508.788	1	-4
508.958	1	-1
509.128	1	1
509.298	1	-2
509.468	1	-2
509.639	1	11
509.809	1	1
509.979	1	5
510.149	1	5
510.319	1	2
510.490	1	4
510.660	1	-10
510.830	1	-3
511.000	1	4
511.171	1	4
511.341	1	6
511.511	1	-1
511.681	1	-6
511.851	1	8
512.022	1	7
512.192	1	9
512.362	1	-5
512.532	1	-13
512.702	1	-3
512.873	1	7
513.043	1	1
513.213	1	-3
513.383	1	-4
513.553	1	4
513.724	1	-6
513.894	1	-4
514.064	1	8
514.234	1	-7
514.404	1	-2
514.575	1	-4
514.745	1	-3
514.915	1	2
515.085	1	7
515.255	1	-10
515.425	1	1
515.596	1	-5
515.766	1	4
515.936	1	9
516.106	1	8
516.276	1	6
516.447	1	4
516.617	1	0
516.787	1	10
516.957	1	-7
517.127	1	1
517.297	1	6
517.468	1	-3
517.638	1	-3
517.808	1	4
517.978	1	4
518.148	1	-3
518.319	1	5
518.489	1	-1
518.659	1	-9
518.829	1	-2
518.999	1	8
519.169	1	-4
519.340	1	10
519.510	1	6
519.680	1	3
519.850	1	0
520.020	1	-1
520.190	1	-7
520.361	1	1
520.531	1	7
520.701	1	-3
520.871	1	-2
521.041	1	8
521.211	1	9
521.382	1	9
521.552	1	-4
521.722	1	6
521.892	1	1
522.062	1	-5
522.232	1	-14
522.402	1	-7
522.573	1	5
522.743	1	7
522.913	1	0
523.083	1	-4
523.253	1	7
523.423	1	3
523.593	1	1
523.764	1	8
523.934	1	-1
524.104	1	10
524.274	1	1
524.444	1	-8
524.614	1	1
524.784	1	15
524.955	1	13
525.125	1	2
525.295	1	-4
525.465	1	2
525.635	1	8
525.805	1	-5
525.975	1	-7
526.146	1	0
526.316	1	4
526.486	1	6
526.656	1	3
526.826	1	4
526.996	1	4
527.166	1	0
527.337	1	-3
527.507	1	-2
527.677	1	8
527.847	1	-1
528.017	1	5
528.187	1	2
528.357	1	-8
528.527	1	0
528.698	1	-3
528.868	1	10
529.038	1	-1
529.208	1	6
529.378	1	-3
529.548	1	1
529.718	1	7
529.888	1	-1
530.058	1	13
530.229	1	6
530.399	1	15
530.569	1	-6
530.739	1	8
530.909	1	1
531.079	1	3
531.249	1	0
531.419	1	4
531.589	1	4
531.760	1	4
531.930	1	1
532.100	1	1
532.270	1	10
532.440	1	4
532.610	1	6
532.780	1	-6
532.950	1	-10
533.120	1	1
533.290	1	8
533.461	1	2
533.631	1	-9
533.801	1	5
533.971	1	0
534.141	1	-12
534.311	1	-2
534.481	1	11
534.651	1	3
534.821	1	7
534.991	1	-4
535.162	1	5
535.332	1	10
535.502	1	8
535.672	1	4
535.842	1	7
536.012	1	-2
536.182	1	5
536.352	1	0
536.522	1	5
536.692	1	2
536.862	1	10
537.032	1	1
537.203	1	7
537.373	1	-7
537.543	1	-7
537.713	1	3
537.883	1	8
538.053	1	4
538.223	1	3
538.393	1	11
538.563	1	-1
538.733	1	0
538.903	1	3
539.073	1	7
539.243	1	4
539.413	1	0
539.584	1	2
539.754	1	-6
539.924	1	2
540.094	1	0
540.264	1	8
540.434	1	-1
540.604	1	-4
540.774	1	5
540.944	1	-2
541.114	1	7
541.284	1	7
541.454	1	-1
541.624	1	1
541.794	1	-1
541.964	1	0
542.134	1	-10
542.305	1	1
542.475	1	-2
542.645	1	2
542.815	1	6
542.985	1	2
543.155	1	-1
543.325	1	7
543.495	1	5
543.665	1	7
543.835	1	-21
544.005	1	6
544.175	1	5
544.345	1	2
544.515	1	-1
544.685	1	8
544.855	1	-1
545.025	1	0
545.195	1	3
545.365	1	1
545.535	1	1
545.705	1	3
545.875	1	2
546.045	1	-1
546.216	1	7
546.386	1	-1
546.556	1	1
546.726	1	-3
546.896	1	2
547.066	1	10
547.236	1	10
547.406	1	-3
547.576	1	-7
547.746	1	4
547.916	1	2
548.086	1	0
548.256	1	6
548.426	1	10
548.596	1	-2
548.766	1	-1
548.936	1	-8
549.106	1	10
549.276	1	8
549.446	1	5
549.616	1	8
549.786	1	-4
549.956	1	-2
550.126	1	9
550.296	1	7
550.466	1	-4
550.636	1	-6
550.806	1	-2
550.976	1	11
551.146	1	7
551.316	1	3
551.486	1	0
551.656	1	-2
551.826	1	3
551.996	1	-8
552.166	1	0
552.336	1	8
552.506	1	6
552.676	1	-3
552.846	1	0
553.016	1	8
553.186	1	4
553.356	1	5
553.526	1	-9
553.696	1	-1
553.866	1	-5
554.036	1	2
554.206	1	8
554.376	1	7
554.546	1	-17
554.716	1	-4
554.886	1	0
555.056	1	-2
555.226	1	-3
555.396	1	-2
555.566	1	5
555.736	1	0
555.906	1	-1
556.076	1	3
556.246	1	3
556.416	1	-2
556.586	1	-1
556.756	1	-8
556.926	1	8
557.096	1	-2
557.266	1	0
557.436	1	-4
557.606	1	0
557.776	1	3
557.946	1	-3
558.116	1	-3
558.286	1	-2
558.456	1	-10
558.626	1	12
558.796	1	7
558.966	1	7
559.136	1	9
559.306	1	13
559.476	1	3
559.646	1	-8
559.816	1	-1
559.986	1	3
560.155	1	1
560.325	1	-1
560.495	1	3
560.665	1	-1
560.835	1	7
561.005	1	3
561.175	1	-1
561.345	1	-18
561.515	1	6
561.685	1	0
561.855	1	2
562.025	1	-1
562.195	1	0
562.365	1	9
562.535	1	4
562.705	1	11
562.875	1	0
563.045	1	-5
563.215	1	-18
563.385	1	2
563.555	1	3
563.725	1	-3
563.895	1	8
564.064	1	4
564.234	1	0
564.404	1	-9
564.574	1	-9
564.744	1	-3
564.914	1	2
565.084	1	6
565.254	1	3
565.424	1	5
565.594	1	6
565.764	1	-9
565.934	1	5
566.104	1	1
566.274	1	5
566.444	1	2
566.614	1	-7
566.783	1	3
566.953	1	5
567.123	1	0
567.293	1	1
567.463	1	3
567.633	1	9
567.803	1	1
567.973	1	0
568.143	1	-2
568.313	1	-5
568.483	1	-3
568.653	1	4
568.823	1	0
568.993	1	1
569.162	1	5
569.332	1	5
569.502	1	7
569.672	1	8
569.842	1	3
570.012	1	2
570.182	1	2
570.352	1	-4
570.522	1	-9
570.692	1	8
570.862	1	5
571.031	1	6
571.201	1	10
571.371	1	2
571.541	1	2
571.711	1	-1
571.881	1	-3
572.051	1	-3
572.221	1	-2
572.391	1	7
572.561	1	3
572.731	1	-2
572.900	1	7
573.070	1	2
573.240	1	10
573.410	1	1
573.580	1	0
573.750	1	7
573.920	1	17
574.090	1	0
574.260	1	3
574.430	1	-1
574.599	1	-6
574.769	1	-2
574.939	1	-7
575.109	1	3
575.279	1	-1
575.449	1	-5
575.619	1	5
575.789	1	2
575.959	1	-6
576.128	1	3
576.298	1	9
576.468	1	-7
576.638	1	11
576.808	1	4
576.978	1	-6
577.148	1	4
577.318	1	1
577.487	1	9
577.657	1	9
577.827	1	-3
577.997	1	-8
578.167	1	-1
578.337	1	0
578.507	1	16
578.677	1	3
578.846	1	-3
579.016	1	-2
579.186	1	-11
579.356	1	-1
579.526	1	12
579.696	1	-4
579.866	1	12
580.036	1	-2
580.205	1	0
580.375	1	4
580.545	1	1
580.715	1	0
580.885	1	4
581.055	1	4
581.225	1	-3
581.394	1	1
581.564	1	-5
581.734	1	12
581.904	1	-9
582.074	1	5
582.244	1	-6
582.414	1	-3
582.583	1	2
582.753	1	6
582.923	1	5
583.093	1	3
583.263	1	8
583.433	1	5
583.603	1	-9
583.772	1	1
583.942	1	-2
584.112	1	7
584.282	1	-2
584.452	1	-4
584.622	1	9
584.791	1	2
584.961	1	-4
585.131	1	6
585.301	1	-6
585.471	1	-1
585.641	1	4
585.811	1	-12
585.980	1	5
586.150	1	-4
586.320	1	5
586.490	1	11
586.660	1	-3
586.830	1	-6
586.999	1	5
587.169	1	6
587.339	1	5
587.509	1	0
587.679	1	4
587.849	1	-3
588.018	1	7
588.188	1	2
588.358	1	11
588.528	1	-4
588.698	1	-8
588.867	1	-4
589.037	1	-4
589.207	1	3
589.377	1	-8
589.547	1	5
589.717	1	4
589.886	1	-1
590.056	1	-9
590.226	1	-2
590.396	1	12
590.566	1	-2
590.735	1	2
590.905	1	7
591.075	1	7
591.245	1	-3
591.415	1	2
591.585	1	-2
591.754	1	2
591.924	1	0
592.094	1	2
592.264	1	-2
592.434	1	-2
592.603	1	-3
592.773	1	11
592.943	1	2
593.113	1	6
593.283	1	7
593.452	1	4
593.622	1	-11
593.792	1	4
593.962	1	1
594.132	1	11
594.301	1	13
594.471	1	6
594.641	1	10
594.811	1	-11
594.981	1	12
595.150	1	3
595.320	1	9
595.490	1	-3
595.660	1	1
595.829	1	3
595.999	1	6
596.169	1	4
596.339	1	2
596.509	1	1
596.678	1	-2
596.848	1	9
597.018	1	-1
597.188	1	4
597.358	1	-13
597.527	1	4
597.697	1	-8
597.867	1	9
598.037	1	-2
598.206	1	-7
598.376	1	-12
598.546	1	-7
598.716	1	-6
598.885	1	6
599.055	1	-4
599.225	1	3
599.395	1	4
599.565	1	10
599.734	1	7
599.904	1	7
600.074	1	-5
600.244	1	5
600.413	1	-8
600.583	1	4
600.753	1	6
600.923	1	7
601.092	1	-4
601.262	1	-2
601.432	1	-9
601.602	1	-8
601.771	1	9
601.941	1	1
602.111	1	4
602.281	1	-1
602.451	1	6
602.620	1	1
602.790	1	7
602.960	1	2
603.130	1	-10
603.299	1	7
603.469	1	-1
603.639	1	11
603.809	1	4
603.978	1	6
604.148	1	2
604.318	1	-3
604.487	1	10
604.657	1	14
604.827	1	-9
604.997	1	-5
605.166	1	4
605.336	1	-5
605.506	1	-11
605.676	1	-1
605.845	1	-4
606.015	1	3
606.185	1	12
606.355	1	3
606.524	1	2
606.694	1	-10
606.864	1	-4
607.034	1	2
607.203	1	6
607.373	1	-4
607.543	1	15
607.712	1	-5
607.882	1	-8
608.052	1	-3
608.222	1	-3
608.391	1	11
608.561	1	-2
608.731	1	-2
608.901	1	-2
609.070	1	-1
609.240	1	-4
609.410	1	3
609.579	1	6
609.749	1	1
609.919	1	-1
610.089	1	-8
610.258	1	14
610.428	1	5
610.598	1	6
610.767	1	-3
610.937	1	7
611.107	1	-1
611.277	1	2
611.446	1	-3
611.616	1	-3
611.786	1	-6
611.955	1	1
612.125	1	0
612.295	1	-3
612.465	1	-5
612.634	1	-12
612.804	1	-6
612.974	1	3
613.143	1	-2
613.313	1	2
613.483	1	-6
613.652	1	11
613.822	1	3
613.992	1	3
614.162	1	8
614.331	1	-6
614.501	1	-5
614.671	1	7
614.840	1	4
615.010	1	10
615.180	1	1
615.349	1	5
615.519	1	0
615.689	1	8
615.858	1	-8
616.028	1	-8
616.198	1	2
616.368	1	0
616.537	1	0
616.707	1	8
616.877	1	-4
617.046	1	-6
617.216	1	10
617.386	1	-3
617.555	1	-3
617.725	1	7
617.895	1	4
618.064	1	0
618.234	1	6
618.404	1	-6
618.573	1	-3
618.743	1	0
618.913	1	1
619.082	1	3
619.252	1	3
619.422	1	-2
619.591	1	7
619.761	1	-1
619.931	1	-2
620.100	1	2
620.270	1	0
620.440	1	4
620.609	1	5
620.779	1	2
620.949	1	8
621.118	1	-1
621.288	1	7
621.458	1	-3
621.627	1	8
621.797	1	-4
621.967	1	-1
622.136	1	7
622.306	1	8
622.476	1	-6
622.645	1	-9
622.815	1	2
622.985	1	2
623.154	1	0
623.324	1	-13
623.494	1	-9
623.663	1	5
623.833	1	0
624.002	1	0
624.172	1	1
624.342	1	13
624.511	1	5
624.681	1	2
624.851	1	-6
625.020	1	-2
625.190	1	6
625.360	1	0
625.529	1	13
625.699	1	-2
625.869	1	11
626.038	1	2
626.208	1	6
626.377	1	4
626.547	1	-9
626.717	1	2
626.886	1	5
627.056	1	3
627.226	1	7
627.395	1	-3
627.565	1	0
627.735	1	-3
627.904	1	3
628.074	1	-2
628.243	1	0
628.413	1	-3
628.583	1	-2
628.752	1	-14
628.922	1	-6
629.091	1	-9
629.261	1	-3
629.431	1	10
629.600	1	-3
629.770	1	7
629.940	1	-1
630.109	1	-5
630.279	1	2
630.448	1	2
630.618	1	-4
630.788	1	-4
630.957	1	-3
631.127	1	-6
631.297	1	4
631.466	1	8
631.636	1	6
631.805	1	3
631.975	1	-2
632.145	1	13
632.314	1	-5
632.484	1	-3
632.653	1	8
632.823	1	-5
632.993	1	-5
633.162	1	4
633.332	1	5
633.501	1	4
633.671	1	0
633.841	1	-12
634.010	1	2
634.180	1	-6
634.349	1	-14
634.519	1	1
634.689	1	5
634.858	1	-3
635.028	1	-1
635.197	1	10
635.367	1	2
635.537	1	-1
635.706	1	6
635.876	1	4
636.045	1	7
636.215	1	-8
636.384	1	-2
636.554	1	-5
636.724	1	3
636.893	1	-3
637.063	1	2
637.232	1	4
637.402	1	7
637.572	1	1
637.741	1	-4
637.911	1	1
638.080	1	11
638.250	1	7
638.419	1	-3
638.589	1	3
638.759	1	1
638.928	1	6
639.098	1	-1
639.267	1	1
639.437	1	-9
639.606	1	-13
639.776	1	3
639.946	1	-6
640.115	1	-2
640.285	1	5
640.454	1	1
640.624	1	-14
640.793	1	-1
640.963	1	-10
641.132	1	5
641.302	1	-10
641.472	1	-5
641.641	1	4
641.811	1	8
641.980	1	2
642.150	1	-8
642.319	1	10
642.489	1	-6
642.659	1	-5
642.828	1	2
642.998	1	7
643.167	1	3
643.337	1	4
643.506	1	8
643.676	1	10
643.845	1	3
644.015	1	9
644.184	1	8
644.354	1	9
644.524	1	-3
644.693	1	4
644.863	1	-20
645.032	1	-6
645.202	1	7
645.371	1	-5
645.541	1	6
645.710	1	4
645.880	1	0
646.049	1	2
646.219	1	0
646.388	1	0
646.558	1	6
646.728	1	2
646.897	1	-1
647.067	1	-3
647.236	1	-1
647.406	1	12
647.575	1	-11
647.745	1	-2
647.914	1	1
648.084	1	-4
648.253	1	-1
648.423	1	1
648.592	1	2
648.762	1	7
648.931	1	-3
649.101	1	1
649.270	1	2
649.440	1	-4
649.610	1	2
649.779	1	-3
649.949	1	1
650.118	1	0
650.288	1	-8
650.457	1	-4
650.627	1	-2
650.796	1	0
650.966	1	2
651.135	1	6
651.305	1	-10
651.474	1	8
651.644	1	11
651.813	1	4
651.983	1	1
652.152	1	-11
652.322	1	-8
652.491	1	2
652.661	1	-3
652.830	1	-10
653.000	1	-6
653.169	1	-2
653.339	1	-4
653.508	1	16
653.678	1	1
653.847	1	-7
654.017	1	0
654.186	1	9
654.356	1	-1
654.525	1	3
654.695	1	6
654.864	1	10
655.034	1	-1
655.203	1	1
655.373	1	4
655.542	1	-10
655.712	1	-16
655.881	1	-3
656.051	1	0
656.220	1	-4
656.390	1	2
656.559	1	-1
656.729	1	5
656.898	1	1
657.068	1	2
657.237	1	-12
657.406	1	4
657.576	1	-1
657.745	1	3
657.915	1	16
658.084	1	-17
658.254	1	14
658.423	1	3
658.593	1	7
658.762	1	-2
658.932	1	-1
659.101	1	1
659.271	1	0
659.440	1	1
659.610	1	11
659.779	1	4
659.949	1	2
660.118	1	0
660.288	1	13
660.457	1	9
660.626	1	2
660.796	1	-5
660.965	1	16
661.135	1	-16
661.304	1	5
661.474	1	5
661.643	1	11
661.813	1	-7
661.982	1	2
662.152	1	5
662.321	1	-3
662.491	1	-8
662.660	1	-7
662.829	1	0
662.999	1	5
663.168	1	1
663.338	1	4
663.507	1	0
663.677	1	-11
663.846	1	0
664.016	1	0
664.185	1	3
664.354	1	6
664.524	1	6
664.693	1	5
664.863	1	-2
665.032	1	1
665.202	1	20
665.371	1	1
665.541	1	-4
665.710	1	2
665.879	1	7
666.049	1	1
666.218	1	9
666.388	1	10
666.557	1	2
666.727	1	5
666.896	1	4
667.065	1	0
667.235	1	1
667.404	1	9
667.574	1	-12
667.743	1	-2
667.913	1	-9
668.082	1	1
668.251	1	0
668.421	1	13
668.590	1	-4
668.760	1	9
668.929	1	9
669.099	1	7
669.268	1	-6
669.437	1	-1
669.607	1	-2
669.776	1	-4
669.946	1	-2
670.115	1	0
670.285	1	15
670.454	1	-3
670.623	1	-1
670.793	1	5
670.962	1	3
671.132	1	-1
671.301	1	-1
671.470	1	5
671.640	1	7
671.809	1	3
671.979	1	0
672.148	1	0
672.317	1	-7
672.487	1	2
672.656	1	-4
672.826	1	4
672.995	1	-14
673.164	1	0
673.334	1	2
673.503	1	-9
673.673	1	-1
673.842	1	-2
674.011	1	12
674.181	1	2
674.350	1	9
674.520	1	12
674.689	1	8
674.858	1	-6
675.028	1	8
675.197	1	1
675.367	1	-2
675.536	1	-8
675.705	1	6
675.875	1	-4
676.044	1	13
676.214	1	-6
676.383	1	-1
676.552	1	3
676.722	1	11
676.891	1	9
677.060	1	-18
677.230	1	7
677.399	1	1
677.569	1	1
677.738	1	1
677.907	1	-3
678.077	1	10
678.246	1	-8
678.416	1	2
678.585	1	4
678.754	1	5
678.924	1	6
679.093	1	4
679.262	1	-1
679.432	1	-2
679.601	1	8
679.771	1	5
679.940	1	-2
680.109	1	-9
680.279	1	3
680.448	1	3
680.617	1	-8
680.787	1	-3
680.956	1	-10
681.125	1	4
681.295	1	4
681.464	1	2
681.634	1	1
681.803	1	6
681.972	1	-7
682.142	1	3
682.311	1	-5
682.480	1	5
682.650	1	-1
682.819	1	12
682.988	1	4
683.158	1	-1
683.327	1	-4
683.496	1	9
683.666	1	-3
683.835	1	-11
684.004	1	8
684.174	1	2
684.343	1	0
684.512	1	1
684.682	1	3
684.851	1	-2
685.021	1	-9
685.190	1	-9
685.359	1	1
685.529	1	8
685.698	1	4
685.867	1	5
686.037	1	-2
686.206	1	8
686.375	1	3
686.545	1	9
686.714	1	-5
686.883	1	0
687.053	1	-6
687.222	1	-5
687.391	1	8
687.561	1	1
687.730	1	9
687.899	1	-6
688.069	1	-4
688.238	1	4
688.407	1	-9
688.577	1	3
688.746	1	-10
