325.333	1	-1
325.504	1	15
325.675	1	6
325.846	1	-6
326.017	1	-8
326.188	1	2
326.359	1	-1
326.531	1	17
326.702	1	2
326.873	1	3
327.044	1	10
327.215	1	-1
327.386	1	0
327.557	1	5
327.728	1	-3
327.899	1	2
328.070	1	10
328.241	1	3
328.412	1	-7
328.583	1	7
328.754	1	-9
328.926	1	11
329.097	1	0
329.268	1	-1
329.439	1	-1
329.610	1	22
329.781	1	9
329.952	1	1
330.123	1	3
330.294	1	-5
330.465	1	8
330.636	1	12
330.807	1	8
330.978	1	11
331.149	1	6
331.320	1	1
331.492	1	-1
331.663	1	-2
331.834	1	4
332.005	1	3
332.176	1	10
332.347	1	22
332.518	1	6
332.689	1	-2
332.860	1	3
333.031	1	10
333.202	1	7
333.373	1	3
333.544	1	-5
333.715	1	1
333.886	1	5
334.057	1	4
334.228	1	10
334.399	1	8
334.570	1	-3
334.741	1	7
334.912	1	-2
335.084	1	-2
335.255	1	6
335.426	1	5
335.597	1	3
335.768	1	9
335.939	1	-7
336.110	1	6
336.281	1	10
336.452	1	2
336.623	1	-7
336.794	1	-4
336.965	1	5
337.136	1	7
337.307	1	14
337.478	1	4
337.649	1	-2
337.820	1	-9
337.991	1	12
338.162	1	12
338.333	1	10
338.504	1	9
338.675	1	3
338.846	1	10
339.017	1	20
339.188	1	21
339.359	1	15
339.530	1	6
339.701	1	1
339.872	1	-10
340.043	1	1
340.214	1	2
340.385	1	15
340.556	1	5
340.727	1	7
340.898	1	16
341.069	1	-12
341.240	1	-1
341.411	1	14
341.582	1	7
341.753	1	1
341.924	1	5
342.095	1	12
342.266	1	-1
342.437	1	-3
342.608	1	1
342.779	1	12
342.950	1	8
343.121	1	4
343.292	1	10
343.463	1	3
343.634	1	6
343.805	1	4
343.976	1	3
344.147	1	6
344.318	1	6
344.489	1	12
344.660	1	6
344.831	1	9
345.002	1	13
345.173	1	16
345.344	1	-2
345.515	1	1
345.686	1	1
345.857	1	-2
346.028	1	-4
346.199	1	14
346.370	1	10
346.541	1	8
346.712	1	4
346.883	1	11
347.054	1	1
347.225	1	-1
347.396	1	8
347.567	1	2
347.738	1	5
347.909	1	0
348.080	1	9
348.251	1	4
348.422	1	2
348.593	1	6
348.764	1	11
348.935	1	5
349.106	1	7
349.277	1	9
349.448	1	2
349.619	1	7
349.790	1	11
349.961	1	5
350.132	1	13
350.303	1	9
350.474	1	1
350.645	1	13
350.816	1	2
350.987	1	13
351.157	1	2
351.328	1	4
351.499	1	6
351.670	1	0
351.841	1	5
352.012	1	-2
352.183	1	10
352.354	1	5
352.525	1	10
352.696	1	-2
352.867	1	6
353.038	1	-1
353.209	1	10
353.380	1	1
353.551	1	-3
353.722	1	0
353.893	1	8
354.064	1	-1
354.235	1	7
354.406	1	17
354.576	1	-1
354.747	1	2
354.918	1	18
355.089	1	8
355.260	1	11
355.431	1	10
355.602	1	6
355.773	1	12
355.944	1	13
356.115	1	-1
356.286	1	1
356.457	1	10
356.628	1	-1
356.799	1	2
356.970	1	13
357.141	1	11
357.311	1	7
357.482	1	1
357.653	1	0
357.824	1	5
357.995	1	9
358.166	1	8
358.337	1	7
358.508	1	-2
358.679	1	8
358.850	1	-2
359.021	1	13
359.192	1	1
359.363	1	-10
359.533	1	4
359.704	1	1
359.875	1	6
360.046	1	4
360.217	1	-3
360.388	1	9
360.559	1	10
360.730	1	4
360.901	1	-8
361.072	1	2
361.243	1	1
361.414	1	6
361.584	1	18
361.755	1	11
361.926	1	4
362.097	1	-7
362.268	1	9
362.439	1	6
362.610	1	-5
362.781	1	6
362.952	1	-6
363.123	1	1
363.293	1	5
363.464	1	10
363.635	1	16
363.806	1	4
363.977	1	2
364.148	1	9
364.319	1	3
364.490	1	13
364.661	1	8
364.832	1	-3
365.002	1	2
365.173	1	-1
365.344	1	-2
365.515	1	8
365.686	1	16
365.857	1	5
366.028	1	4
366.199	1	13
366.370	1	6
366.540	1	11
366.711	1	2
366.882	1	6
367.053	1	8
367.224	1	-1
367.395	1	6
367.566	1	-2
367.737	1	-3
367.908	1	1
368.078	1	6
368.249	1	10
368.420	1	9
368.591	1	11
368.762	1	-10
368.933	1	12
369.104	1	2
369.274	1	8
369.445	1	17
369.616	1	1
369.787	1	2
369.958	1	13
370.129	1	6
370.300	1	7
370.471	1	11
370.641	1	-2
370.812	1	14
370.983	1	-1
371.154	1	8
371.325	1	15
371.496	1	5
371.667	1	15
371.837	1	2
372.008	1	13
372.179	1	10
372.350	1	11
372.521	1	9
372.692	1	0
372.863	1	11
373.033	1	18
373.204	1	11
373.375	1	3
373.546	1	12
373.717	1	11
373.888	1	12
374.059	1	9
374.229	1	2
374.400	1	11
374.571	1	12
374.742	1	1
374.913	1	11
375.084	1	21
375.254	1	0
375.425	1	-3
375.596	1	0
375.767	1	8
375.938	1	9
376.109	1	4
376.279	1	15
376.450	1	11
376.621	1	12
376.792	1	19
376.963	1	-3
377.134	1	0
377.304	1	2
377.475	1	16
377.646	1	1
377.817	1	9
377.988	1	6
378.159	1	13
378.329	1	11
378.500	1	6
378.671	1	-5
378.842	1	11
379.013	1	10
379.184	1	16
379.354	1	13
379.525	1	2
379.696	1	20
379.867	1	4
380.038	1	13
380.209	1	16
380.379	1	11
380.550	1	10
380.721	1	6
380.892	1	17
381.063	1	6
381.233	1	12
381.404	1	11
381.575	1	12
381.746	1	4
381.917	1	2
382.087	1	9
382.258	1	21
382.429	1	14
382.600	1	9
382.771	1	13
382.941	1	9
383.112	1	16
383.283	1	17
383.454	1	13
383.625	1	7
383.795	1	6
383.966	1	16
384.137	1	8
384.308	1	10
384.479	1	14
384.649	1	20
384.820	1	18
384.991	1	-7
385.162	1	13
385.333	1	8
385.503	1	13
385.674	1	15
385.845	1	7
386.016	1	14
386.187	1	7
386.357	1	13
386.528	1	2
386.699	1	5
386.870	1	11
387.041	1	13
387.211	1	9
387.382	1	-1
387.553	1	16
387.724	1	3
387.894	1	19
388.065	1	19
388.236	1	20
388.407	1	19
388.578	1	12
388.748	1	11
388.919	1	13
389.090	1	16
389.261	1	16
389.431	1	10
389.602	1	2
389.773	1	5
389.944	1	5
390.114	1	12
390.285	1	18
390.456	1	11
390.627	1	9
390.798	1	8
390.968	1	3
391.139	1	12
391.310	1	14
391.481	1	12
391.651	1	7
391.822	1	11
391.993	1	10
392.164	1	3
392.334	1	6
392.505	1	13
392.676	1	12
392.847	1	12
393.017	1	8
393.188	1	4
393.359	1	18
393.530	1	12
393.700	1	20
393.871	1	11
394.042	1	15
394.213	1	11
394.383	1	14
394.554	1	18
394.725	1	6
394.896	1	17
395.066	1	16
395.237	1	8
395.408	1	14
395.579	1	11
395.749	1	18
395.920	1	4
396.091	1	20
396.262	1	-1
396.432	1	7
396.603	1	14
396.774	1	17
396.945	1	7
397.115	1	10
397.286	1	19
397.457	1	12
397.627	1	3
397.798	1	16
397.969	1	16
398.140	1	7
398.310	1	24
398.481	1	16
398.652	1	9
398.823	1	10
398.993	1	15
399.164	1	16
399.335	1	16
399.505	1	18
399.676	1	12
399.847	1	22
400.018	1	20
400.188	1	14
400.359	1	25
400.530	1	16
400.700	1	11
400.871	1	12
401.042	1	21
401.213	1	-1
401.383	1	21
401.554	1	21
401.725	1	14
401.895	1	2
402.066	1	19
402.237	1	20
402.408	1	23
402.578	1	9
402.749	1	14
402.920	1	27
403.090	1	8
403.261	1	21
403.432	1	19
403.603	1	10
403.773	1	19
403.944	1	23
404.115	1	4
404.285	1	30
404.456	1	13
404.627	1	9
404.797	1	11
404.968	1	7
405.139	1	7
405.310	1	16
405.480	1	15
405.651	1	15
405.822	1	17
405.992	1	21
406.163	1	20
406.334	1	16
406.504	1	0
406.675	1	23
406.846	1	7
407.016	1	11
407.187	1	14
407.358	1	10
407.528	1	18
407.699	1	1
407.870	1	11
408.041	1	6
408.211	1	9
408.382	1	11
408.553	1	0
408.723	1	12
408.894	1	16
409.065	1	17
409.235	1	17
409.406	1	6
409.577	1	13
409.747	1	23
409.918	1	9
410.089	1	9
410.259	1	11
410.430	1	20
410.601	1	19
410.771	1	20
410.942	1	6
411.113	1	26
411.283	1	12
411.454	1	15
411.625	1	16
411.795	1	5
411.966	1	8
412.137	1	19
412.307	1	10
412.478	1	17
412.649	1	10
412.819	1	2
412.990	1	20
413.161	1	16
413.331	1	15
413.502	1	3
413.672	1	19
413.843	1	17
414.014	1	23
414.184	1	18
414.355	1	15
414.526	1	19
414.696	1	20
414.867	1	12
415.038	1	14
415.208	1	9
415.379	1	18
415.550	1	22
415.720	1	4
415.891	1	21
416.062	1	17
416.232	1	27
416.403	1	10
416.573	1	16
416.744	1	12
416.915	1	13
417.085	1	5
417.256	1	16
417.427	1	17
417.597	1	4
417.768	1	22
417.939	1	14
418.109	1	6
418.280	1	10
418.450	1	22
418.621	1	25
418.792	1	-3
418.962	1	18
419.133	1	15
419.304	1	2
419.474	1	9
419.645	1	13
419.815	1	17
419.986	1	8
420.157	1	25
420.327	1	17
420.498	1	8
420.669	1	12
420.839	1	19
421.010	1	13
421.180	1	8
421.351	1	18
421.522	1	18
421.692	1	23
421.863	1	14
422.033	1	22
422.204	1	18
422.375	1	16
422.545	1	5
422.716	1	10
422.886	1	21
423.057	1	9
423.228	1	24
423.398	1	24
423.569	1	28
423.740	1	7
423.910	1	19
424.081	1	27
424.251	1	11
424.422	1	0
424.593	1	2
424.763	1	11
424.934	1	26
425.104	1	8
425.275	1	13
425.445	1	26
425.616	1	20
425.787	1	18
425.957	1	12
426.128	1	18
426.298	1	4
426.469	1	13
426.640	1	11
426.810	1	25
426.981	1	16
427.151	1	21
427.322	1	10
427.493	1	10
427.663	1	3
427.834	1	2
428.004	1	17
428.175	1	20
428.345	1	15
428.516	1	14
428.687	1	12
428.857	1	14
429.028	1	17
429.198	1	7
429.369	1	12
429.540	1	18
429.710	1	21
429.881	1	14
430.051	1	17
430.222	1	14
430.392	1	22
430.563	1	10
430.734	1	11
430.904	1	8
431.075	1	7
431.245	1	18
431.416	1	5
431.586	1	17
431.757	1	29
431.927	1	10
432.098	1	14
432.269	1	29
432.439	1	21
432.610	1	-1
432.780	1	13
432.951	1	13
433.121	1	21
433.292	1	17
433.462	1	20
433.633	1	26
433.804	1	8
433.974	1	17
434.145	1	20
434.315	1	18
434.486	1	6
434.656	1	12
434.827	1	16
434.997	1	28
435.168	1	17
435.339	1	8
435.509	1	7
435.680	1	19
435.850	1	16
436.021	1	20
436.191	1	11
436.362	1	22
436.532	1	19
436.703	1	14
436.873	1	16
437.044	1	24
437.214	1	24
437.385	1	20
437.556	1	14
437.726	1	16
437.897	1	13
438.067	1	9
438.238	1	21
438.408	1	9
438.579	1	14
438.749	1	7
438.920	1	12
439.090	1	10
439.261	1	8
439.431	1	16
439.602	1	5
439.772	1	14
439.943	1	23
440.113	1	18
440.284	1	24
440.455	1	17
440.625	1	10
440.796	1	4
440.966	1	9
441.137	1	17
441.307	1	10
441.478	1	14
441.648	1	21
441.819	1	7
441.989	1	6
442.160	1	12
442.330	1	21
442.501	1	15
442.671	1	16
442.842	1	19
443.012	1	9
443.183	1	10
443.353	1	27
443.524	1	8
443.694	1	11
443.865	1	14
444.035	1	18
444.206	1	4
444.376	1	19
444.547	1	11
444.717	1	17
444.888	1	15
445.058	1	10
445.229	1	13
445.399	1	0
445.570	1	9
445.740	1	12
445.911	1	21
446.081	1	16
446.252	1	1
446.422	1	18
446.593	1	21
446.763	1	11
446.934	1	16
447.104	1	8
447.275	1	19
447.445	1	8
447.616	1	11
447.786	1	8
447.957	1	18
448.127	1	27
448.298	1	17
448.468	1	17
448.639	1	10
448.809	1	14
448.979	1	16
449.150	1	13
449.320	1	12
449.491	1	13
449.661	1	21
449.832	1	12
450.002	1	12
450.173	1	16
450.343	1	21
450.514	1	5
450.684	1	14
450.855	1	12
451.025	1	10
451.196	1	15
451.366	1	10
451.537	1	16
451.707	1	17
451.878	1	17
452.048	1	10
452.218	1	8
452.389	1	15
452.559	1	16
452.730	1	4
452.900	1	12
453.071	1	10
453.241	1	25
453.412	1	7
453.582	1	4
453.753	1	21
453.923	1	17
454.093	1	20
454.264	1	8
454.434	1	14
454.605	1	19
454.775	1	7
454.946	1	11
455.116	1	17
455.287	1	13
455.457	1	7
455.628	1	11
455.798	1	20
455.968	1	14
456.139	1	5
456.309	1	18
456.480	1	22
456.650	1	25
456.821	1	27
456.991	1	18
457.161	1	14
457.332	1	8
457.502	1	9
457.673	1	22
457.843	1	15
458.014	1	18
458.184	1	13
458.355	1	20
458.525	1	9
458.695	1	21
458.866	1	18
459.036	1	19
459.207	1	8
459.377	1	13
459.548	1	9
459.718	1	12
459.888	1	20
460.059	1	19
460.229	1	8
460.400	1	10
460.570	1	15
460.740	1	17
460.911	1	7
461.081	1	14
461.252	1	9
461.422	1	16
461.593	1	15
461.763	1	22
461.933	1	14
462.104	1	15
462.274	1	0
462.445	1	6
462.615	1	9
462.785	1	16
462.956	1	24
463.126	1	16
463.297	1	22
463.467	1	15
463.638	1	10
463.808	1	19
463.978	1	13
464.149	1	9
464.319	1	20
464.490	1	17
464.660	1	16
464.830	1	5
465.001	1	15
465.171	1	11
465.342	1	1
465.512	1	5
465.682	1	9
465.853	1	8
466.023	1	15
466.194	1	14
466.364	1	22
466.534	1	16
466.705	1	3
466.875	1	20
467.045	1	11
467.216	1	16
467.386	1	19
467.557	1	19
467.727	1	16
467.897	1	4
468.068	1	-11
468.238	1	17
468.409	1	2
468.579	1	21
468.749	1	7
468.920	1	6
469.090	1	15
469.260	1	9
469.431	1	20
469.601	1	13
469.772	1	-4
469.942	1	13
470.112	1	15
470.283	1	19
470.453	1	23
470.623	1	12
470.794	1	17
470.964	1	11
471.135	1	16
471.305	1	15
471.475	1	7
471.646	1	11
471.816	1	7
471.986	1	24
472.157	1	18
472.327	1	12
472.497	1	20
472.668	1	9
472.838	1	17
473.009	1	26
473.179	1	13
473.349	1	13
473.520	1	8
473.690	1	20
473.860	1	7
474.031	1	9
474.201	1	20
474.371	1	9
474.542	1	19
474.712	1	17
474.882	1	5
475.053	1	9
475.223	1	-1
475.394	1	8
475.564	1	2
475.734	1	16
475.905	1	11
476.075	1	3
476.245	1	6
476.416	1	-4
476.586	1	6
476.756	1	12
476.927	1	11
477.097	1	16
477.267	1	12
477.438	1	8
477.608	1	12
477.778	1	3
477.949	1	-4
478.119	1	15
478.289	1	-2
478.460	1	-6
478.630	1	27
478.800	1	15
478.971	1	11
479.141	1	12
479.311	1	17
479.482	1	8
479.652	1	14
479.822	1	12
479.993	1	11
480.163	1	10
480.333	1	9
480.504	1	6
480.674	1	13
480.844	1	10
481.015	1	8
481.185	1	-2
481.355	1	19
481.525	1	13
481.696	1	12
481.866	1	7
482.036	1	7
482.207	1	7
482.377	1	19
482.547	1	-1
482.718	1	4
482.888	1	18
483.058	1	9
483.229	1	5
483.399	1	15
483.569	1	6
483.740	1	8
483.910	1	-4
484.080	1	4
484.250	1	-2
484.421	1	14
484.591	1	6
484.761	1	13
484.932	1	1
485.102	1	16
485.272	1	3
485.443	1	17
485.613	1	14
485.783	1	21
485.953	1	11
486.124	1	8
486.294	1	-6
486.464	1	10
486.635	1	17
486.805	1	1
486.975	1	21
487.146	1	0
487.316	1	12
487.486	1	9
487.656	1	3
487.827	1	0
487.997	1	6
488.167	1	9
488.338	1	-4
488.508	1	2
488.678	1	13
488.848	1	10
489.019	1	7
489.189	1	0
489.359	1	11
489.529	1	17
489.700	1	10
489.870	1	0
490.040	1	2
490.211	1	8
490.381	1	12
490.551	1	15
490.721	1	24
490.892	1	11
491.062	1	2
491.232	1	3
491.402	1	9
491.573	1	2
491.743	1	11
491.913	1	1
492.084	1	9
492.254	1	4
492.424	1	15
492.594	1	17
492.765	1	7
492.935	1	-4
493.105	1	23
493.275	1	4
493.446	1	14
493.616	1	11
493.786	1	4
493.956	1	3
494.127	1	19
494.297	1	9
494.467	1	15
494.637	1	3
494.808	1	5
494.978	1	7
495.148	1	0
495.318	1	6
495.489	1	-7
495.659	1	7
495.829	1	14
495.999	1	0
496.170	1	-1
496.340	1	10
496.510	1	12
496.680	1	2
496.851	1	6
497.021	1	1
497.191	1	5
497.361	1	1
497.532	1	3
497.702	1	5
497.872	1	16
498.042	1	12
498.213	1	20
498.383	1	13
498.553	1	2
498.723	1	10
498.894	1	11
499.064	1	5
499.234	1	6
499.404	1	-3
499.574	1	7
499.745	1	1
499.915	1	10
500.085	1	9
500.255	1	6
500.426	1	8
500.596	1	1
500.766	1	-8
500.936	1	2
501.106	1	3
501.277	1	6
501.447	1	13
501.617	1	2
501.787	1	2
501.958	1	7
502.128	1	-2
502.298	1	9
502.468	1	17
502.638	1	5
502.809	1	6
502.979	1	10
503.149	1	1
503.319	1	3
503.489	1	-3
503.660	1	0
503.830	1	4
504.000	1	4
504.170	1	16
504.340	1	6
504.511	1	11
504.681	1	2
504.851	1	8
505.021	1	19
505.192	1	0
505.362	1	5
505.532	1	4
505.702	1	-4
505.872	1	-2
506.043	1	11
506.213	1	18
506.383	1	8
506.553	1	7
506.723	1	7
506.893	1	-6
507.064	1	-8
507.234	1	-2
507.404	1	7
507.574	1	2
507.744	1	8
507.915	1	7
508.085	1	11
508.255	1	10
508.425	1	3
508.595	1	6
508.766	1	1
508.936	1	9
509.106	1	3
509.276	1	6
509.446	1	5
509.616	1	5
509.787	1	10
509.957	1	4
510.127	1	1
510.297	1	-4
510.467	1	-7
510.638	1	11
510.808	1	-6
510.978	1	3
511.148	1	24
511.318	1	8
511.488	1	17
511.659	1	6
511.829	1	12
511.999	1	11
512.169	1	2
512.339	1	6
512.509	1	-1
512.680	1	2
512.850	1	9
513.020	1	9
513.190	1	-1
513.360	1	4
513.530	1	0
513.700	1	7
513.871	1	14
514.041	1	9
514.211	1	12
514.381	1	19
514.551	1	11
514.721	1	6
514.892	1	1
515.062	1	-5
515.232	1	-1
515.402	1	7
515.572	1	7
515.742	1	10
515.912	1	5
516.083	1	15
516.253	1	5
516.423	1	3
516.593	1	8
516.763	1	3
516.933	1	-3
517.104	1	2
517.274	1	-4
517.444	1	3
517.614	1	5
517.784	1	4
517.954	1	15
518.124	1	-3
518.294	1	7
518.465	1	5
518.635	1	5
518.805	1	23
518.975	1	-3
519.145	1	19
519.315	1	-5
519.485	1	-3
519.656	1	7
519.826	1	6
519.996	1	-3
520.166	1	13
520.336	1	3
520.506	1	-6
520.676	1	12
520.846	1	-2
521.017	1	0
521.187	1	4
521.357	1	-2
521.527	1	-7
521.697	1	7
521.867	1	5
522.037	1	-5
522.207	1	0
522.377	1	5
522.548	1	7
522.718	1	2
522.888	1	15
523.058	1	5
523.228	1	6
523.398	1	2
523.568	1	7
523.738	1	3
523.909	1	6
524.079	1	0
524.249	1	3
524.419	1	5
524.589	1	-4
524.759	1	0
524.929	1	-3
525.099	1	7
525.269	1	9
525.439	1	3
525.610	1	7
525.780	1	12
525.950	1	2
526.120	1	8
526.290	1	-4
526.460	1	-3
526.630	1	7
526.800	1	4
526.970	1	11
527.140	1	5
527.311	1	5
527.481	1	4
527.651	1	3
527.821	1	1
527.991	1	10
528.161	1	3
528.331	1	13
528.501	1	6
528.671	1	-4
528.841	1	3
529.011	1	3
529.181	1	6
529.352	1	1
529.522	1	10
529.692	1	8
529.862	1	8
530.032	1	1
530.202	1	13
530.372	1	4
530.542	1	8
530.712	1	1
530.882	1	-2
531.052	1	15
531.222	1	-2
531.392	1	2
531.563	1	-4
531.733	1	7
531.903	1	8
532.073	1	8
532.243	1	-13
532.413	1	10
532.583	1	-3
532.753	1	-5
532.923	1	15
533.093	1	8
533.263	1	-5
533.433	1	17
533.603	1	11
533.773	1	-5
533.943	1	2
534.113	1	4
534.284	1	0
534.454	1	-1
534.624	1	3
534.794	1	-1
534.964	1	-1
535.134	1	12
535.304	1	7
535.474	1	-4
535.644	1	1
535.814	1	4
535.984	1	10
536.154	1	-4
536.324	1	11
536.494	1	2
536.664	1	0
536.834	1	2
537.004	1	7
537.174	1	7
537.344	1	2
537.514	1	3
537.685	1	6
537.855	1	4
538.025	1	5
538.195	1	-2
538.365	1	-2
538.535	1	-7
538.705	1	21
538.875	1	11
539.045	1	4
539.215	1	-11
539.385	1	6
539.555	1	-2
539.725	1	-2
539.895	1	6
540.065	1	-2
540.235	1	8
540.405	1	6
540.575	1	1
540.745	1	4
540.915	1	0
541.085	1	-2
541.255	1	-5
541.425	1	6
541.595	1	8
541.765	1	12
541.935	1	-4
542.105	1	1
542.275	1	0
542.445	1	-7
542.615	1	18
542.785	1	-1
542.955	1	-3
543.125	1	-5
543.295	1	-8
543.465	1	4
543.635	1	2
543.805	1	4
543.975	1	0
544.145	1	4
544.315	1	-1
544.485	1	4
544.655	1	14
544.825	1	0
544.995	1	13
545.165	1	5
545.335	1	0
545.505	1	17
545.675	1	-10
545.845	1	1
546.015	1	8
546.185	1	9
546.355	1	4
546.525	1	3
546.695	1	2
546.865	1	10
547.035	1	4
547.205	1	4
547.375	1	14
547.545	1	15
547.715	1	8
547.885	1	12
548.055	1	-4
548.225	1	7
548.395	1	-5
548.565	1	6
548.735	1	8
548.905	1	5
549.075	1	8
549.245	1	7
549.415	1	1
549.585	1	-2
549.755	1	13
549.925	1	4
550.095	1	-5
550.265	1	4
550.435	1	-7
550.605	1	4
550.775	1	-7
550.945	1	8
551.115	1	13
551.285	1	-10
551.455	1	5
551.625	1	-8
551.795	1	-2
551.965	1	12
552.135	1	13
552.305	1	-4
552.475	1	6
552.645	1	0
552.815	1	7
552.985	1	-9
553.155	1	9
553.325	1	3
553.495	1	7
553.665	1	1
553.835	1	11
554.004	1	-5
554.174	1	-2
554.344	1	-1
554.514	1	11
554.684	1	-3
554.854	1	-6
555.024	1	-3
555.194	1	3
555.364	1	2
555.534	1	8
555.704	1	8
555.874	1	1
556.044	1	8
556.214	1	12
556.384	1	10
556.554	1	3
556.724	1	9
556.894	1	-9
557.064	1	7
557.234	1	2
557.404	1	-6
557.573	1	-12
557.743	1	2
557.913	1	-2
558.083	1	8
558.253	1	-7
558.423	1	-2
558.593	1	5
558.763	1	10
558.933	1	-4
559.103	1	9
559.273	1	2
559.443	1	12
559.613	1	2
559.783	1	10
559.953	1	10
560.122	1	2
560.292	1	2
560.462	1	1
560.632	1	5
560.802	1	-6
560.972	1	0
561.142	1	5
561.312	1	-1
561.482	1	3
561.652	1	2
561.822	1	-11
561.992	1	-5
562.162	1	4
562.331	1	6
562.501	1	-8
562.671	1	10
562.841	1	-5
563.011	1	-9
563.181	1	2
563.351	1	0
563.521	1	0
563.691	1	9
563.861	1	-1
564.031	1	5
564.201	1	4
564.370	1	-2
564.540	1	-7
564.710	1	3
564.880	1	0
565.050	1	-5
565.220	1	6
565.390	1	7
565.560	1	1
565.730	1	8
565.900	1	7
566.069	1	4
566.239	1	2
566.409	1	2
566.579	1	-4
566.749	1	5
566.919	1	4
567.089	1	2
567.259	1	15
567.429	1	5
567.599	1	3
567.768	1	-1
567.938	1	-9
568.108	1	2
568.278	1	-4
568.448	1	7
568.618	1	9
568.788	1	-11
568.958	1	-7
569.128	1	-5
569.297	1	1
569.467	1	4
569.637	1	2
569.807	1	-1
569.977	1	-1
570.147	1	4
570.317	1	-1
570.487	1	6
570.656	1	-1
570.826	1	-3
570.996	1	4
571.166	1	-5
571.336	1	-1
571.506	1	2
571.676	1	-7
571.846	1	-7
572.015	1	7
572.185	1	6
572.355	1	8
572.525	1	-6
572.695	1	-2
572.865	1	4
573.035	1	-2
573.205	1	-5
573.374	1	12
573.544	1	6
573.714	1	8
573.884	1	6
574.054	1	-7
574.224	1	8
574.394	1	-7
574.563	1	2
574.733	1	9
574.903	1	-5
575.073	1	0
575.243	1	1
575.413	1	-4
575.583	1	2
575.752	1	10
575.922	1	-1
576.092	1	-1
576.262	1	4
576.432	1	0
576.602	1	-6
576.772	1	3
576.941	1	10
577.111	1	2
577.281	1	11
577.451	1	-5
577.621	1	2
577.791	1	-6
577.960	1	12
578.130	1	8
578.300	1	5
578.470	1	8
578.640	1	3
578.810	1	5
578.979	1	-7
579.149	1	0
579.319	1	3
579.489	1	13
579.659	1	-5
579.829	1	9
579.998	1	1
580.168	1	-6
580.338	1	1
580.508	1	2
580.678	1	14
580.848	1	5
581.017	1	5
581.187	1	5
581.357	1	-9
581.527	1	-3
581.697	1	-5
581.867	1	-2
582.036	1	0
582.206	1	-6
582.376	1	7
582.546	1	21
582.716	1	-7
582.885	1	0
583.055	1	-9
583.225	1	-2
583.395	1	1
583.565	1	-9
583.735	1	-2
583.904	1	5
584.074	1	-10
584.244	1	2
584.414	1	-7
584.584	1	1
584.753	1	9
584.923	1	6
585.093	1	-4
585.263	1	-1
585.433	1	12
585.602	1	3
585.772	1	3
585.942	1	-2
586.112	1	4
586.282	1	5
586.451	1	3
586.621	1	3
586.791	1	4
586.961	1	10
587.131	1	6
587.300	1	9
587.470	1	-8
587.640	1	-11
587.810	1	-11
587.980	1	-6
588.149	1	6
588.319	1	0
588.489	1	1
588.659	1	9
588.829	1	-6
588.998	1	2
589.168	1	2
589.338	1	4
589.508	1	8
589.677	1	-9
589.847	1	0
590.017	1	3
590.187	1	-2
590.357	1	-2
590.526	1	6
590.696	1	5
590.866	1	5
591.036	1	-5
591.205	1	-4
591.375	1	4
591.545	1	3
591.715	1	2
591.885	1	1
592.054	1	5
592.224	1	-1
592.394	1	2
592.564	1	1
592.733	1	3
592.903	1	0
593.073	1	-9
593.243	1	3
593.412	1	1
593.582	1	5
593.752	1	6
593.922	1	17
594.091	1	-8
594.261	1	-3
594.431	1	3
594.601	1	2
594.771	1	6
594.940	1	-2
595.110	1	7
595.280	1	7
595.450	1	13
595.619	1	3
595.789	1	11
595.959	1	4
596.129	1	-10
596.298	1	6
596.468	1	-2
596.638	1	-5
596.808	1	-16
596.977	1	7
597.147	1	4
597.317	1	4
597.487	1	2
597.656	1	-3
597.826	1	-6
597.996	1	0
598.166	1	5
598.335	1	4
598.505	1	-8
598.675	1	-1
598.844	1	4
599.014	1	1
599.184	1	5
599.354	1	4
599.523	1	1
599.693	1	5
599.863	1	9
600.033	1	3
600.202	1	8
600.372	1	-3
600.542	1	3
600.712	1	11
600.881	1	8
601.051	1	7
601.221	1	7
601.390	1	4
601.560	1	3
601.730	1	-1
601.900	1	12
602.069	1	-14
602.239	1	9
602.409	1	6
602.578	1	17
602.748	1	-4
602.918	1	5
603.088	1	12
603.257	1	7
603.427	1	8
603.597	1	1
603.767	1	0
603.936	1	11
604.106	1	8
604.276	1	-3
604.445	1	-2
604.615	1	-5
604.785	1	5
604.954	1	14
605.124	1	5
605.294	1	1
605.464	1	-15
605.633	1	10
605.803	1	8
605.973	1	4
606.142	1	5
606.312	1	8
606.482	1	3
606.652	1	12
606.821	1	-4
606.991	1	-1
607.161	1	8
607.330	1	2
607.500	1	12
607.670	1	0
607.839	1	2
608.009	1	2
608.179	1	1
608.348	1	2
608.518	1	5
608.688	1	-9
608.858	1	4
609.027	1	2
609.197	1	9
609.367	1	0
609.536	1	4
609.706	1	3
609.876	1	5
610.045	1	8
610.215	1	11
610.385	1	-8
610.554	1	5
610.724	1	4
610.894	1	11
611.063	1	0
611.233	1	2
611.403	1	5
611.572	1	2
611.742	1	2
611.912	1	4
612.081	1	1
612.251	1	-1
612.421	1	3
612.590	1	-7
612.760	1	6
612.930	1	2
613.099	1	-1
613.269	1	6
613.439	1	2
613.608	1	6
613.778	1	-10
613.948	1	7
614.117	1	-3
614.287	1	7
614.457	1	2
614.626	1	12
614.796	1	1
614.966	1	4
615.135	1	6
615.305	1	11
615.475	1	-4
615.644	1	1
615.814	1	-8
615.984	1	6
616.153	1	5
616.323	1	2
616.493	1	5
616.662	1	3
616.832	1	1
617.002	1	2
617.171	1	4
617.341	1	-4
617.511	1	-1
617.680	1	1
617.850	1	3
618.019	1	4
618.189	1	5
618.359	1	-1
618.528	1	-2
618.698	1	2
618.868	1	-4
619.037	1	11
619.207	1	12
619.377	1	-4
619.546	1	-5
619.716	1	4
619.885	1	-6
620.055	1	8
620.225	1	6
620.394	1	5
620.564	1	-5
620.734	1	1
620.903	1	5
621.073	1	3
621.242	1	-3
621.412	1	12
621.582	1	7
621.751	1	2
621.921	1	12
622.091	1	-6
622.260	1	3
622.430	1	6
622.599	1	9
622.769	1	-7
622.939	1	1
623.108	1	8
623.278	1	19
623.448	1	5
623.617	1	-1
623.787	1	13
623.956	1	9
624.126	1	-5
624.296	1	17
624.465	1	-3
624.635	1	9
624.804	1	7
624.974	1	8
625.144	1	14
625.313	1	11
625.483	1	9
625.652	1	16
625.822	1	0
625.992	1	6
626.161	1	-3
626.331	1	6
626.501	1	1
626.670	1	-4
626.840	1	6
627.009	1	3
627.179	1	-5
627.348	1	15
627.518	1	9
627.688	1	13
627.857	1	0
628.027	1	-12
628.196	1	-5
628.366	1	6
628.536	1	2
628.705	1	-1
628.875	1	10
629.044	1	13
629.214	1	1
629.384	1	1
629.553	1	9
629.723	1	-8
629.892	1	-3
630.062	1	-7
630.232	1	8
630.401	1	-1
630.571	1	7
630.740	1	4
630.910	1	3
631.079	1	0
631.249	1	11
631.419	1	7
631.588	1	6
631.758	1	4
631.927	1	3
632.097	1	9
632.266	1	0
632.436	1	-2
632.606	1	-5
632.775	1	11
632.945	1	-7
633.114	1	4
633.284	1	6
633.453	1	13
633.623	1	13
633.793	1	-4
633.962	1	-1
634.132	1	-5
634.301	1	5
634.471	1	-3
634.640	1	4
634.810	1	7
634.979	1	7
635.149	1	8
635.319	1	14
635.488	1	2
635.658	1	18
635.827	1	-5
635.997	1	4
636.166	1	0
636.336	1	10
636.505	1	4
636.675	1	7
636.845	1	-2
637.014	1	6
637.184	1	9
637.353	1	-1
637.523	1	8
637.692	1	0
637.862	1	0
638.031	1	4
638.201	1	1
638.370	1	7
638.540	1	5
638.710	1	8
638.879	1	7
639.049	1	-2
639.218	1	14
639.388	1	10
639.557	1	2
639.727	1	12
639.896	1	9
640.066	1	17
640.235	1	-1
640.405	1	16
640.574	1	2
640.744	1	-11
640.914	1	3
641.083	1	7
641.253	1	-1
641.422	1	1
641.592	1	1
641.761	1	3
641.931	1	6
642.100	1	9
642.270	1	-5
642.439	1	0
642.609	1	11
642.778	1	-2
642.948	1	7
643.117	1	6
643.287	1	-1
643.456	1	4
643.626	1	0
643.795	1	1
643.965	1	7
644.134	1	-8
644.304	1	8
644.473	1	-2
644.643	1	-3
644.812	1	8
644.982	1	3
645.151	1	12
645.321	1	0
645.490	1	14
645.660	1	11
645.829	1	3
645.999	1	8
646.168	1	2
646.338	1	1
646.507	1	-2
646.677	1	3
646.846	1	6
647.016	1	-3
647.185	1	4
647.355	1	9
647.524	1	5
647.694	1	-3
647.863	1	10
648.033	1	14
648.202	1	5
648.372	1	5
648.541	1	-2
648.711	1	1
648.880	1	3
649.050	1	3
649.219	1	4
649.389	1	-7
649.558	1	10
649.728	1	7
649.897	1	0
650.067	1	8
650.236	1	1
650.406	1	11
650.575	1	12
650.745	1	-3
650.914	1	6
651.084	1	4
651.253	1	-3
651.423	1	5
651.592	1	-3
651.762	1	-1
651.931	1	0
652.101	1	10
652.270	1	2
652.440	1	12
652.609	1	18
652.778	1	9
652.948	1	3
653.117	1	4
653.287	1	4
653.456	1	-5
653.626	1	4
653.795	1	0
653.965	1	-2
654.134	1	2
654.304	1	11
654.473	1	2
654.643	1	7
654.812	1	0
654.982	1	4
655.151	1	2
655.320	1	12
655.490	1	0
655.659	1	11
655.829	1	1
655.998	1	9
656.168	1	4
656.337	1	1
656.507	1	1
656.676	1	6
656.846	1	12
657.015	1	-1
657.184	1	3
657.354	1	-2
657.523	1	4
657.693	1	-3
657.862	1	-1
658.032	1	1
658.201	1	15
658.371	1	7
658.540	1	3
658.709	1	6
658.879	1	15
659.048	1	1
659.218	1	2
659.387	1	2
659.557	1	5
659.726	1	-5
659.895	1	10
660.065	1	17
660.234	1	-2
660.404	1	-6
660.573	1	10
660.743	1	5
660.912	1	2
661.081	1	-9
661.251	1	15
661.420	1	17
661.590	1	2
661.759	1	-3
661.929	1	-1
662.098	1	15
662.267	1	16
662.437	1	7
662.606	1	4
662.776	1	-3
662.945	1	10
663.115	1	10
663.284	1	2
663.453	1	10
663.623	1	5
663.792	1	2
663.962	1	-4
664.131	1	-4
664.300	1	-7
664.470	1	4
664.639	1	-7
664.809	1	8
664.978	1	5
665.148	1	-2
665.317	1	5
665.486	1	3
665.656	1	10
665.825	1	13
665.995	1	6
666.164	1	6
666.333	1	5
666.503	1	-4
666.672	1	9
666.842	1	-7
667.011	1	1
667.180	1	4
667.350	1	-4
667.519	1	8
667.689	1	10
667.858	1	10
668.027	1	1
668.197	1	9
668.366	1	-1
668.536	1	1
668.705	1	8
668.874	1	2
669.044	1	8
669.213	1	5
669.382	1	17
669.552	1	9
669.721	1	5
669.891	1	-9
670.060	1	3
670.229	1	-8
670.399	1	1
670.568	1	-4
670.738	1	-4
670.907	1	4
671.076	1	11
671.246	1	-2
671.415	1	12
671.584	1	-2
671.754	1	-8
671.923	1	6
672.093	1	1
672.262	1	3
672.431	1	14
672.601	1	4
672.770	1	4
672.939	1	-7
673.109	1	12
673.278	1	-2
673.448	1	-4
673.617	1	1
673.786	1	11
