325.333	1	0
325.504	1	8
325.675	1	2
325.846	1	-9
326.017	1	-6
326.188	1	3
326.359	1	9
326.531	1	5
326.702	1	4
326.873	1	0
327.044	1	-3
327.215	1	-8
327.386	1	4
327.557	1	4
327.728	1	8
327.899	1	-1
328.070	1	3
328.241	1	4
328.412	1	-9
328.583	1	9
328.754	1	-3
328.926	1	1
329.097	1	-2
329.268	1	-3
329.439	1	7
329.610	1	1
329.781	1	5
329.952	1	5
330.123	1	0
330.294	1	8
330.465	1	8
330.636	1	19
330.807	1	-4
330.978	1	10
331.149	1	2
331.320	1	10
331.492	1	-2
331.663	1	-5
331.834	1	-6
332.005	1	2
332.176	1	6
332.347	1	7
332.518	1	5
332.689	1	10
332.860	1	4
333.031	1	-1
333.202	1	5
333.373	1	-3
333.544	1	-7
333.715	1	1
333.886	1	7
334.057	1	5
334.228	1	-1
334.399	1	2
334.570	1	-8
334.741	1	0
334.912	1	-4
335.084	1	-3
335.255	1	8
335.426	1	14
335.597	1	-5
335.768	1	-3
335.939	1	-4
336.110	1	-1
336.281	1	4
336.452	1	8
336.623	1	3
336.794	1	-5
336.965	1	-2
337.136	1	4
337.307	1	7
337.478	1	0
337.649	1	-12
337.820	1	-8
337.991	1	8
338.162	1	2
338.333	1	11
338.504	1	10
338.675	1	1
338.846	1	10
339.017	1	9
339.188	1	7
339.359	1	3
339.530	1	1
339.701	1	-3
339.872	1	9
340.043	1	4
340.214	1	-5
340.385	1	10
340.556	1	0
340.727	1	9
340.898	1	4
341.069	1	-15
341.240	1	-2
341.411	1	15
341.582	1	5
341.753	1	-2
341.924	1	3
342.095	1	0
342.266	1	-3
342.437	1	-9
342.608	1	0
342.779	1	-3
342.950	1	3
343.121	1	2
343.292	1	16
343.463	1	-5
343.634	1	-3
343.805	1	3
343.976	1	-8
344.147	1	3
344.318	1	-2
344.489	1	9
344.660	1	10
344.831	1	2
345.002	1	19
345.173	1	11
345.344	1	1
345.515	1	2
345.686	1	-7
345.857	1	-4
346.028	1	-5
346.199	1	13
346.370	1	1
346.541	1	-2
346.712	1	3
346.883	1	14
347.054	1	5
347.225	1	-3
347.396	1	-3
347.567	1	3
347.738	1	-3
347.909	1	5
348.080	1	12
348.251	1	1
348.422	1	-4
348.593	1	8
348.764	1	-2
348.935	1	1
349.106	1	11
349.277	1	7
349.448	1	3
349.619	1	1
349.790	1	-1
349.961	1	1
350.132	1	14
350.303	1	-1
350.474	1	5
350.645	1	9
350.816	1	2
350.987	1	3
351.157	1	0
351.328	1	-2
351.499	1	3
351.670	1	4
351.841	1	2
352.012	1	6
352.183	1	6
352.354	1	5
352.525	1	5
352.696	1	-1
352.867	1	9
353.038	1	-3
353.209	1	2
353.380	1	-4
353.551	1	-7
353.722	1	3
353.893	1	6
354.064	1	-2
354.235	1	23
354.406	1	6
354.576	1	2
354.747	1	13
354.918	1	8
355.089	1	-4
355.260	1	8
355.431	1	7
355.602	1	-5
355.773	1	-1
355.944	1	4
356.115	1	-3
356.286	1	6
356.457	1	1
356.628	1	5
356.799	1	2
356.970	1	4
357.141	1	6
357.311	1	3
357.482	1	-4
357.653	1	0
357.824	1	3
357.995	1	5
358.166	1	10
358.337	1	-3
358.508	1	-5
358.679	1	7
358.850	1	1
359.021	1	3
359.192	1	5
359.363	1	-3
359.533	1	-7
359.704	1	6
359.875	1	-2
360.046	1	-1
360.217	1	-7
360.388	1	-2
360.559	1	11
360.730	1	-7
360.901	1	-1
361.072	1	8
361.243	1	0
361.414	1	7
361.584	1	16
361.755	1	4
361.926	1	4
362.097	1	-1
362.268	1	6
362.439	1	5
362.610	1	0
362.781	1	11
362.952	1	3
363.123	1	7
363.293	1	-8
363.464	1	8
363.635	1	9
363.806	1	1
363.977	1	3
364.148	1	12
364.319	1	-1
364.490	1	12
364.661	1	6
364.832	1	9
365.002	1	0
365.173	1	-1
365.344	1	1
365.515	1	14
365.686	1	9
365.857	1	5
366.028	1	-3
366.199	1	3
366.370	1	2
366.540	1	11
366.711	1	10
366.882	1	-6
367.053	1	-5
367.224	1	-4
367.395	1	12
367.566	1	11
367.737	1	3
367.908	1	0
368.078	1	6
368.249	1	1
368.420	1	3
368.591	1	10
368.762	1	-9
368.933	1	12
369.104	1	10
369.274	1	15
369.445	1	13
369.616	1	0
369.787	1	-3
369.958	1	9
370.129	1	-7
370.300	1	-8
370.471	1	7
370.641	1	-3
370.812	1	14
370.983	1	-3
371.154	1	10
371.325	1	9
371.496	1	7
371.667	1	10
371.837	1	6
372.008	1	3
372.179	1	8
372.350	1	6
372.521	1	6
372.692	1	0
372.863	1	5
373.033	1	17
373.204	1	20
373.375	1	5
373.546	1	9
373.717	1	9
373.888	1	11
374.059	1	3
374.229	1	0
374.400	1	5
374.571	1	12
374.742	1	3
374.913	1	7
375.084	1	11
375.254	1	13
375.425	1	2
375.596	1	7
375.767	1	6
375.938	1	3
376.109	1	-2
376.279	1	7
376.450	1	6
376.621	1	15
376.792	1	8
376.963	1	5
377.134	1	-2
377.304	1	2
377.475	1	2
377.646	1	-8
377.817	1	8
377.988	1	11
378.159	1	16
378.329	1	12
378.500	1	9
378.671	1	-5
378.842	1	3
379.013	1	0
379.184	1	14
379.354	1	9
379.525	1	1
379.696	1	11
379.867	1	-14
380.038	1	5
380.209	1	0
380.379	1	7
380.550	1	4
380.721	1	7
380.892	1	5
381.063	1	-2
381.233	1	3
381.404	1	12
381.575	1	16
381.746	1	6
381.917	1	5
382.087	1	1
382.258	1	10
382.429	1	2
382.600	1	7
382.771	1	8
382.941	1	1
383.112	1	-2
383.283	1	15
383.454	1	12
383.625	1	9
383.795	1	-1
383.966	1	5
384.137	1	0
384.308	1	2
384.479	1	5
384.649	1	12
384.820	1	9
384.991	1	-8
385.162	1	13
385.333	1	4
385.503	1	12
385.674	1	8
385.845	1	5
386.016	1	4
386.187	1	5
386.357	1	4
386.528	1	5
386.699	1	0
386.870	1	6
387.041	1	4
387.211	1	1
387.382	1	-5
387.553	1	7
387.724	1	2
387.894	1	12
388.065	1	19
388.236	1	16
388.407	1	16
388.578	1	19
388.748	1	1
388.919	1	18
389.090	1	15
389.261	1	13
389.431	1	10
389.602	1	-1
389.773	1	3
389.944	1	4
390.114	1	8
390.285	1	2
390.456	1	9
390.627	1	10
390.798	1	5
390.968	1	0
391.139	1	10
391.310	1	4
391.481	1	6
391.651	1	18
391.822	1	19
391.993	1	5
392.164	1	-5
392.334	1	2
392.505	1	2
392.676	1	7
392.847	1	19
393.017	1	7
393.188	1	5
393.359	1	6
393.530	1	12
393.700	1	9
393.871	1	5
394.042	1	8
394.213	1	8
394.383	1	14
394.554	1	9
394.725	1	10
394.896	1	11
395.066	1	18
395.237	1	-1
395.408	1	5
395.579	1	3
395.749	1	7
395.920	1	9
396.091	1	14
396.262	1	3
396.432	1	11
396.603	1	14
396.774	1	12
396.945	1	2
397.115	1	2
397.286	1	19
397.457	1	4
397.627	1	2
397.798	1	10
397.969	1	17
398.140	1	1
398.310	1	6
398.481	1	18
398.652	1	4
398.823	1	6
398.993	1	21
399.164	1	6
399.335	1	5
399.505	1	20
399.676	1	14
399.847	1	7
400.018	1	4
400.188	1	2
400.359	1	17
400.530	1	1
400.700	1	7
400.871	1	6
401.042	1	18
401.213	1	3
401.383	1	8
401.554	1	6
401.725	1	4
401.895	1	-7
402.066	1	17
402.237	1	14
402.408	1	13
402.578	1	3
402.749	1	17
402.920	1	14
403.090	1	8
403.261	1	7
403.432	1	12
403.603	1	1
403.773	1	10
403.944	1	11
404.115	1	-4
404.285	1	16
404.456	1	11
404.627	1	13
404.797	1	4
404.968	1	9
405.139	1	4
405.310	1	11
405.480	1	17
405.651	1	12
405.822	1	15
405.992	1	7
406.163	1	16
406.334	1	10
406.504	1	6
406.675	1	-4
406.846	1	17
407.016	1	1
407.187	1	8
407.358	1	6
407.528	1	14
407.699	1	2
407.870	1	14
408.041	1	3
408.211	1	12
408.382	1	-3
408.553	1	-7
408.723	1	8
408.894	1	9
409.065	1	16
409.235	1	13
409.406	1	8
409.577	1	12
409.747	1	7
409.918	1	6
410.089	1	5
410.259	1	0
410.430	1	4
410.601	1	1
410.771	1	6
410.942	1	3
411.113	1	15
411.283	1	9
411.454	1	7
411.625	1	14
411.795	1	1
411.966	1	10
412.137	1	4
412.307	1	-5
412.478	1	16
412.649	1	8
412.819	1	1
412.990	1	11
413.161	1	15
413.331	1	10
413.502	1	-5
413.672	1	14
413.843	1	14
414.014	1	17
414.184	1	11
414.355	1	5
414.526	1	15
414.696	1	21
414.867	1	13
415.038	1	1
415.208	1	9
415.379	1	3
415.550	1	13
415.720	1	9
415.891	1	19
416.062	1	15
416.232	1	19
416.403	1	11
416.573	1	4
416.744	1	10
416.915	1	13
417.085	1	5
417.256	1	5
417.427	1	14
417.597	1	15
417.768	1	9
417.939	1	21
418.109	1	-2
418.280	1	24
418.450	1	16
418.621	1	7
418.792	1	8
418.962	1	9
419.133	1	17
419.304	1	0
419.474	1	3
419.645	1	8
419.815	1	7
419.986	1	13
420.157	1	24
420.327	1	3
420.498	1	12
420.669	1	11
420.839	1	1
421.010	1	10
421.180	1	-9
421.351	1	12
421.522	1	17
421.692	1	14
421.863	1	0
422.033	1	16
422.204	1	16
422.375	1	11
422.545	1	4
422.716	1	6
422.886	1	12
423.057	1	7
423.228	1	12
423.398	1	14
423.569	1	15
423.740	1	1
423.910	1	14
424.081	1	13
424.251	1	3
424.422	1	1
424.593	1	3
424.763	1	8
424.934	1	15
425.104	1	13
425.275	1	9
425.445	1	15
425.616	1	15
425.787	1	15
425.957	1	5
426.128	1	16
426.298	1	9
426.469	1	5
426.640	1	5
426.810	1	17
426.981	1	-5
427.151	1	7
427.322	1	-7
427.493	1	2
427.663	1	2
427.834	1	8
428.004	1	11
428.175	1	10
428.345	1	8
428.516	1	8
428.687	1	6
428.857	1	2
429.028	1	8
429.198	1	15
429.369	1	7
429.540	1	2
429.710	1	11
429.881	1	14
430.051	1	0
430.222	1	1
430.392	1	11
430.563	1	8
430.734	1	14
430.904	1	12
431.075	1	-6
431.245	1	12
431.416	1	-9
431.586	1	9
431.757	1	8
431.927	1	2
432.098	1	4
432.269	1	19
432.439	1	14
432.610	1	19
432.780	1	2
432.951	1	15
433.121	1	18
433.292	1	8
433.462	1	10
433.633	1	22
433.804	1	1
433.974	1	8
434.145	1	12
434.315	1	11
434.486	1	2
434.656	1	1
434.827	1	11
434.997	1	15
435.168	1	7
435.339	1	4
435.509	1	19
435.680	1	5
435.850	1	13
436.021	1	11
436.191	1	16
436.362	1	21
436.532	1	13
436.703	1	18
436.873	1	9
437.044	1	6
437.214	1	11
437.385	1	15
437.556	1	12
437.726	1	8
437.897	1	-1
438.067	1	13
438.238	1	10
438.408	1	8
438.579	1	7
438.749	1	-4
438.920	1	14
439.090	1	6
439.261	1	6
439.431	1	12
439.602	1	9
439.772	1	10
439.943	1	14
440.113	1	12
440.284	1	5
440.455	1	15
440.625	1	9
440.796	1	-5
440.966	1	7
441.137	1	9
441.307	1	10
441.478	1	9
441.648	1	15
441.819	1	12
441.989	1	5
442.160	1	15
442.330	1	12
442.501	1	6
442.671	1	10
442.842	1	12
443.012	1	13
443.183	1	9
443.353	1	18
443.524	1	12
443.694	1	12
443.865	1	13
444.035	1	-2
444.206	1	1
444.376	1	18
444.547	1	17
444.717	1	22
444.888	1	7
445.058	1	3
445.229	1	5
445.399	1	4
445.570	1	4
445.740	1	9
445.911	1	14
446.081	1	17
446.252	1	1
446.422	1	23
446.593	1	10
446.763	1	9
446.934	1	13
447.104	1	8
447.275	1	22
447.445	1	11
447.616	1	2
447.786	1	4
447.957	1	13
448.127	1	19
448.298	1	13
448.468	1	10
448.639	1	2
448.809	1	2
448.979	1	10
449.150	1	9
449.320	1	16
449.491	1	16
449.661	1	13
449.832	1	16
450.002	1	14
450.173	1	3
450.343	1	7
450.514	1	8
450.684	1	17
450.855	1	11
451.025	1	12
451.196	1	17
451.366	1	7
451.537	1	12
451.707	1	8
451.878	1	15
452.048	1	10
452.218	1	1
452.389	1	9
452.559	1	12
452.730	1	14
452.900	1	18
453.071	1	10
453.241	1	11
453.412	1	0
453.582	1	6
453.753	1	7
453.923	1	14
454.093	1	11
454.264	1	-2
454.434	1	10
454.605	1	16
454.775	1	5
454.946	1	10
455.116	1	3
455.287	1	3
455.457	1	-1
455.628	1	5
455.798	1	12
455.968	1	7
456.139	1	5
456.309	1	11
456.480	1	4
456.650	1	15
456.821	1	18
456.991	1	5
457.161	1	7
457.332	1	-5
457.502	1	21
457.673	1	11
457.843	1	12
458.014	1	4
458.184	1	16
458.355	1	3
458.525	1	19
458.695	1	8
458.866	1	19
459.036	1	9
459.207	1	12
459.377	1	10
459.548	1	-4
459.718	1	5
459.888	1	15
460.059	1	17
460.229	1	6
460.400	1	2
460.570	1	18
460.740	1	4
460.911	1	13
461.081	1	13
461.252	1	3
461.422	1	10
461.593	1	8
461.763	1	17
461.933	1	14
462.104	1	7
462.274	1	4
462.445	1	-1
462.615	1	6
462.785	1	10
462.956	1	3
463.126	1	11
463.297	1	8
463.467	1	7
463.638	1	12
463.808	1	13
463.978	1	13
464.149	1	0
464.319	1	11
464.490	1	2
464.660	1	14
464.830	1	11
465.001	1	6
465.171	1	7
465.342	1	1
465.512	1	0
465.682	1	6
465.853	1	-3
466.023	1	11
466.194	1	0
466.364	1	5
466.534	1	9
466.705	1	0
466.875	1	8
467.045	1	8
467.216	1	12
467.386	1	23
467.557	1	13
467.727	1	12
467.897	1	1
468.068	1	-8
468.238	1	11
468.409	1	10
468.579	1	0
468.749	1	11
468.920	1	9
469.090	1	9
469.260	1	4
469.431	1	10
469.601	1	5
469.772	1	-11
469.942	1	11
470.112	1	11
470.283	1	21
470.453	1	19
470.623	1	-1
470.794	1	11
470.964	1	1
471.135	1	13
471.305	1	17
471.475	1	0
471.646	1	7
471.816	1	6
471.986	1	12
472.157	1	3
472.327	1	5
472.497	1	17
472.668	1	3
472.838	1	9
473.009	1	12
473.179	1	14
473.349	1	9
473.520	1	4
473.690	1	16
473.860	1	10
474.031	1	10
474.201	1	11
474.371	1	1
474.542	1	13
474.712	1	15
474.882	1	2
475.053	1	9
475.223	1	-6
475.394	1	8
475.564	1	-5
475.734	1	18
475.905	1	16
476.075	1	1
476.245	1	10
476.416	1	6
476.586	1	4
476.756	1	12
476.927	1	7
477.097	1	5
477.267	1	10
477.438	1	18
477.608	1	1
477.778	1	-3
477.949	1	5
478.119	1	22
478.289	1	3
478.460	1	3
478.630	1	22
478.800	1	19
478.971	1	13
479.141	1	9
479.311	1	6
479.482	1	9
479.652	1	11
479.822	1	3
479.993	1	-5
480.163	1	11
480.333	1	-1
480.504	1	-1
480.674	1	7
480.844	1	15
481.015	1	1
481.185	1	8
481.355	1	16
481.525	1	8
481.696	1	-1
481.866	1	2
482.036	1	16
482.207	1	8
482.377	1	7
482.547	1	5
482.718	1	0
482.888	1	10
483.058	1	-6
483.229	1	8
483.399	1	9
483.569	1	8
483.740	1	10
483.910	1	0
484.080	1	-2
484.250	1	-2
484.421	1	7
484.591	1	6
484.761	1	6
484.932	1	-2
485.102	1	5
485.272	1	2
485.443	1	4
485.613	1	16
485.783	1	20
485.953	1	9
486.124	1	7
486.294	1	7
486.464	1	-6
486.635	1	15
486.805	1	6
486.975	1	12
487.146	1	0
487.316	1	13
487.486	1	9
487.656	1	8
487.827	1	2
487.997	1	0
488.167	1	6
488.338	1	5
488.508	1	7
488.678	1	14
488.848	1	5
489.019	1	5
489.189	1	0
489.359	1	7
489.529	1	4
489.700	1	12
489.870	1	4
490.040	1	3
490.211	1	5
490.381	1	3
490.551	1	-2
490.721	1	7
490.892	1	12
491.062	1	-5
491.232	1	-6
491.402	1	8
491.573	1	0
491.743	1	10
491.913	1	2
492.084	1	-1
492.254	1	7
492.424	1	13
492.594	1	9
492.765	1	5
492.935	1	0
493.105	1	7
493.275	1	0
493.446	1	8
493.616	1	-2
493.786	1	4
493.956	1	-4
494.127	1	9
494.297	1	-1
494.467	1	14
494.637	1	12
494.808	1	10
494.978	1	5
495.148	1	1
495.318	1	10
495.489	1	-10
495.659	1	0
495.829	1	8
495.999	1	7
496.170	1	-7
496.340	1	19
496.510	1	10
496.680	1	-2
496.851	1	3
497.021	1	2
497.191	1	7
497.361	1	1
497.532	1	-1
497.702	1	14
497.872	1	18
498.042	1	10
498.213	1	16
498.383	1	13
498.553	1	7
498.723	1	0
498.894	1	0
499.064	1	-1
499.234	1	2
499.404	1	-2
499.574	1	-3
499.745	1	4
499.915	1	1
500.085	1	12
500.255	1	1
500.426	1	8
500.596	1	7
500.766	1	-3
500.936	1	6
501.106	1	8
501.277	1	4
501.447	1	7
501.617	1	7
501.787	1	3
501.958	1	-4
502.128	1	-8
502.298	1	3
502.468	1	-2
502.638	1	8
502.809	1	4
502.979	1	10
503.149	1	3
503.319	1	11
503.489	1	1
503.660	1	-6
503.830	1	5
504.000	1	6
504.170	1	4
504.340	1	4
504.511	1	1
504.681	1	1
504.851	1	5
505.021	1	11
505.192	1	-1
505.362	1	-3
505.532	1	7
505.702	1	-1
505.872	1	1
506.043	1	10
506.213	1	14
506.383	1	17
506.553	1	3
506.723	1	-1
506.893	1	0
507.064	1	-7
507.234	1	0
507.404	1	4
507.574	1	3
507.744	1	7
507.915	1	6
508.085	1	13
508.255	1	6
508.425	1	3
508.595	1	-12
508.766	1	2
508.936	1	5
509.106	1	1
509.276	1	-2
509.446	1	6
509.616	1	2
509.787	1	11
509.957	1	11
510.127	1	4
510.297	1	1
510.467	1	-9
510.638	1	8
510.808	1	-5
510.978	1	2
511.148	1	20
511.318	1	8
511.488	1	5
511.659	1	0
511.829	1	9
511.999	1	5
512.169	1	-2
512.339	1	5
512.509	1	6
512.680	1	7
512.850	1	12
513.020	1	3
513.190	1	-2
513.360	1	3
513.530	1	4
513.700	1	6
513.871	1	4
514.041	1	1
514.211	1	13
514.381	1	14
514.551	1	-3
514.721	1	8
514.892	1	11
515.062	1	1
515.232	1	3
515.402	1	11
515.572	1	-4
515.742	1	-2
515.912	1	-1
516.083	1	4
516.253	1	1
516.423	1	6
516.593	1	-2
516.763	1	3
516.933	1	-11
517.104	1	1
517.274	1	-5
517.444	1	-2
517.614	1	1
517.784	1	12
517.954	1	20
518.124	1	-4
518.294	1	10
518.465	1	1
518.635	1	4
518.805	1	14
518.975	1	2
519.145	1	15
519.315	1	-8
519.485	1	-8
519.656	1	5
519.826	1	14
519.996	1	4
520.166	1	20
520.336	1	-1
520.506	1	-14
520.676	1	0
520.846	1	-1
521.017	1	-6
521.187	1	10
521.357	1	-2
521.527	1	7
521.697	1	6
521.867	1	7
522.037	1	1
522.207	1	0
522.377	1	1
522.548	1	4
522.718	1	3
522.888	1	7
523.058	1	7
523.228	1	4
523.398	1	3
523.568	1	2
523.738	1	6
523.909	1	9
524.079	1	3
524.249	1	2
524.419	1	8
524.589	1	0
524.759	1	2
524.929	1	3
525.099	1	4
525.269	1	11
525.439	1	-2
525.610	1	3
525.780	1	6
525.950	1	4
526.120	1	-1
526.290	1	4
526.460	1	-2
526.630	1	12
526.800	1	-1
526.970	1	14
527.140	1	6
527.311	1	4
527.481	1	3
527.651	1	2
527.821	1	-2
527.991	1	10
528.161	1	0
528.331	1	6
528.501	1	1
528.671	1	-1
528.841	1	8
529.011	1	-10
529.181	1	1
529.352	1	-1
529.522	1	0
529.692	1	1
529.862	1	10
530.032	1	-3
530.202	1	1
530.372	1	1
530.542	1	-5
530.712	1	-2
530.882	1	-4
531.052	1	13
531.222	1	-3
531.392	1	11
531.563	1	3
531.733	1	5
531.903	1	3
532.073	1	-1
532.243	1	2
532.413	1	8
532.583	1	-13
532.753	1	-3
532.923	1	16
533.093	1	12
533.263	1	-5
533.433	1	13
533.603	1	11
533.773	1	1
533.943	1	0
534.113	1	0
534.284	1	-4
534.454	1	-8
534.624	1	0
534.794	1	-4
534.964	1	-4
535.134	1	10
535.304	1	8
535.474	1	-12
535.644	1	3
535.814	1	3
535.984	1	2
536.154	1	3
536.324	1	15
536.494	1	6
536.664	1	10
536.834	1	-5
537.004	1	6
537.174	1	2
537.344	1	0
537.514	1	2
537.685	1	-4
537.855	1	-4
538.025	1	2
538.195	1	0
538.365	1	0
538.535	1	-2
538.705	1	19
538.875	1	14
539.045	1	-1
539.215	1	-15
539.385	1	0
539.555	1	-4
539.725	1	-5
539.895	1	16
540.065	1	-6
540.235	1	7
540.405	1	-3
540.575	1	-2
540.745	1	-2
540.915	1	-5
541.085	1	-3
541.255	1	-9
541.425	1	10
541.595	1	2
541.765	1	18
541.935	1	-7
542.105	1	14
542.275	1	5
542.445	1	4
542.615	1	4
542.785	1	-4
542.955	1	-7
543.125	1	1
543.295	1	-6
543.465	1	8
543.635	1	5
543.805	1	11
543.975	1	-2
544.145	1	-1
544.315	1	-4
544.485	1	-7
544.655	1	9
544.825	1	6
544.995	1	-3
545.165	1	8
545.335	1	-4
545.505	1	5
545.675	1	-10
545.845	1	14
546.015	1	7
546.185	1	9
546.355	1	-2
546.525	1	3
546.695	1	10
546.865	1	7
547.035	1	2
547.205	1	6
547.375	1	2
547.545	1	19
547.715	1	9
547.885	1	14
548.055	1	-5
548.225	1	5
548.395	1	-8
548.565	1	9
548.735	1	9
548.905	1	-10
549.075	1	5
549.245	1	2
549.415	1	-3
549.585	1	10
549.755	1	7
549.925	1	3
550.095	1	-2
550.265	1	4
550.435	1	-9
550.605	1	2
550.775	1	-2
550.945	1	3
551.115	1	3
551.285	1	1
551.455	1	3
551.625	1	-6
551.795	1	-6
551.965	1	10
552.135	1	0
552.305	1	6
552.475	1	4
552.645	1	4
552.815	1	5
552.985	1	0
553.155	1	2
553.325	1	7
553.495	1	-2
553.665	1	2
553.835	1	-8
554.004	1	-11
554.174	1	-6
554.344	1	-3
554.514	1	2
554.684	1	-5
554.854	1	0
555.024	1	4
555.194	1	9
555.364	1	-1
555.534	1	1
555.704	1	21
555.874	1	-12
556.044	1	3
556.214	1	-6
556.384	1	2
556.554	1	2
556.724	1	0
556.894	1	-4
557.064	1	2
557.234	1	0
557.404	1	3
557.573	1	3
557.743	1	9
557.913	1	-6
558.083	1	8
558.253	1	-10
558.423	1	-3
558.593	1	8
558.763	1	-9
558.933	1	4
559.103	1	2
559.273	1	0
559.443	1	10
559.613	1	8
559.783	1	5
559.953	1	12
560.122	1	-7
560.292	1	8
560.462	1	-5
560.632	1	4
560.802	1	6
560.972	1	4
561.142	1	6
561.312	1	12
561.482	1	9
561.652	1	7
561.822	1	-7
561.992	1	-11
562.162	1	9
562.331	1	7
562.501	1	-9
562.671	1	6
562.841	1	-4
563.011	1	-8
563.181	1	21
563.351	1	3
563.521	1	3
563.691	1	6
563.861	1	-5
564.031	1	-4
564.201	1	-1
564.370	1	7
564.540	1	-4
564.710	1	-3
564.880	1	5
565.050	1	6
565.220	1	-6
565.390	1	-3
565.560	1	-1
565.730	1	2
565.900	1	-3
566.069	1	-2
566.239	1	-1
566.409	1	6
566.579	1	7
566.749	1	8
566.919	1	2
567.089	1	0
567.259	1	7
567.429	1	-4
567.599	1	-1
567.768	1	3
567.938	1	-5
568.108	1	-2
568.278	1	8
568.448	1	11
568.618	1	4
568.788	1	-13
568.958	1	-4
569.128	1	2
569.297	1	-1
569.467	1	5
569.637	1	6
569.807	1	5
569.977	1	6
570.147	1	1
570.317	1	3
570.487	1	11
570.656	1	-1
570.826	1	-3
570.996	1	-1
571.166	1	5
571.336	1	11
571.506	1	-6
571.676	1	-7
571.846	1	-8
572.015	1	-1
572.185	1	8
572.355	1	8
572.525	1	-1
572.695	1	-1
572.865	1	2
573.035	1	-9
573.205	1	-9
573.374	1	14
573.544	1	4
573.714	1	10
573.884	1	9
574.054	1	2
574.224	1	0
574.394	1	4
574.563	1	0
574.733	1	2
574.903	1	2
575.073	1	-1
575.243	1	0
575.413	1	0
575.583	1	0
575.752	1	1
575.922	1	-2
576.092	1	-6
576.262	1	1
576.432	1	4
576.602	1	0
576.772	1	2
576.941	1	6
577.111	1	7
577.281	1	10
577.451	1	-5
577.621	1	3
577.791	1	-6
577.960	1	6
578.130	1	3
578.300	1	8
578.470	1	9
578.640	1	-2
578.810	1	-1
578.979	1	-4
579.149	1	1
579.319	1	5
579.489	1	-8
579.659	1	0
579.829	1	1
579.998	1	-2
580.168	1	1
580.338	1	-4
580.508	1	4
580.678	1	8
580.848	1	-5
581.017	1	2
581.187	1	1
581.357	1	2
581.527	1	8
581.697	1	-3
581.867	1	7
582.036	1	4
582.206	1	0
582.376	1	11
582.546	1	18
582.716	1	0
582.885	1	-1
583.055	1	-11
583.225	1	-15
583.395	1	0
583.565	1	0
583.735	1	1
583.904	1	2
584.074	1	1
584.244	1	6
584.414	1	4
584.584	1	-3
584.753	1	13
584.923	1	3
585.093	1	-12
585.263	1	-6
585.433	1	19
585.602	1	-1
585.772	1	1
585.942	1	1
586.112	1	5
586.282	1	4
586.451	1	0
586.621	1	-11
586.791	1	3
586.961	1	7
587.131	1	5
587.300	1	4
587.470	1	-10
587.640	1	-6
587.810	1	-9
587.980	1	-8
588.149	1	9
588.319	1	9
588.489	1	-4
588.659	1	9
588.829	1	-11
588.998	1	2
589.168	1	2
589.338	1	-2
589.508	1	5
589.677	1	-6
589.847	1	4
590.017	1	8
590.187	1	0
590.357	1	-8
590.526	1	5
590.696	1	5
590.866	1	-8
591.036	1	-9
591.205	1	6
591.375	1	-3
591.545	1	-4
591.715	1	1
591.885	1	-3
592.054	1	-4
592.224	1	0
592.394	1	-9
592.564	1	-1
592.733	1	9
592.903	1	-11
593.073	1	-4
593.243	1	3
593.412	1	-4
593.582	1	4
593.752	1	7
593.922	1	5
594.091	1	-8
594.261	1	0
594.431	1	1
594.601	1	4
594.771	1	6
594.940	1	-7
595.110	1	-5
595.280	1	6
595.450	1	0
595.619	1	0
595.789	1	14
595.959	1	-5
596.129	1	-3
596.298	1	-1
596.468	1	4
596.638	1	-1
596.808	1	-5
596.977	1	3
597.147	1	13
597.317	1	2
597.487	1	7
597.656	1	4
597.826	1	4
597.996	1	-3
598.166	1	5
598.335	1	-6
598.505	1	-3
598.675	1	-2
598.844	1	7
599.014	1	5
599.184	1	2
599.354	1	7
599.523	1	8
599.693	1	6
599.863	1	6
600.033	1	-2
600.202	1	7
600.372	1	9
600.542	1	5
600.712	1	11
600.881	1	1
601.051	1	5
601.221	1	6
601.390	1	3
601.560	1	4
601.730	1	3
601.900	1	20
602.069	1	-8
602.239	1	4
602.409	1	-2
602.578	1	10
602.748	1	0
602.918	1	2
603.088	1	11
603.257	1	1
603.427	1	10
603.597	1	0
603.767	1	-4
603.936	1	5
604.106	1	8
604.276	1	1
604.445	1	-2
604.615	1	-7
604.785	1	3
604.954	1	10
605.124	1	-4
605.294	1	3
605.464	1	-8
605.633	1	4
605.803	1	2
605.973	1	7
606.142	1	6
606.312	1	17
606.482	1	8
606.652	1	15
606.821	1	-8
606.991	1	-7
607.161	1	3
607.330	1	-2
607.500	1	4
607.670	1	7
607.839	1	-5
608.009	1	12
608.179	1	3
608.348	1	2
608.518	1	0
608.688	1	7
608.858	1	-1
609.027	1	1
609.197	1	2
609.367	1	4
609.536	1	7
609.706	1	10
609.876	1	4
610.045	1	11
610.215	1	-4
610.385	1	3
610.554	1	-4
610.724	1	10
610.894	1	6
611.063	1	-2
611.233	1	-5
611.403	1	3
611.572	1	8
611.742	1	-2
611.912	1	1
612.081	1	8
612.251	1	8
612.421	1	-5
612.590	1	-2
612.760	1	1
612.930	1	3
613.099	1	0
613.269	1	-3
613.439	1	-1
613.608	1	1
613.778	1	-8
613.948	1	7
614.117	1	7
614.287	1	0
614.457	1	2
614.626	1	3
614.796	1	4
614.966	1	-2
615.135	1	5
615.305	1	9
615.475	1	-8
615.644	1	-4
615.814	1	5
615.984	1	-5
616.153	1	5
616.323	1	2
616.493	1	10
616.662	1	-11
616.832	1	0
617.002	1	-6
617.171	1	2
617.341	1	-2
617.511	1	5
617.680	1	2
617.850	1	1
618.019	1	10
618.189	1	3
618.359	1	-5
618.528	1	-2
618.698	1	1
618.868	1	0
619.037	1	1
619.207	1	11
619.377	1	6
619.546	1	-5
619.716	1	-4
619.885	1	5
620.055	1	13
620.225	1	13
620.394	1	4
620.564	1	-3
620.734	1	-2
620.903	1	4
621.073	1	12
621.242	1	1
621.412	1	6
621.582	1	-2
621.751	1	3
621.921	1	5
622.091	1	-5
622.260	1	1
622.430	1	4
622.599	1	6
622.769	1	-3
622.939	1	0
623.108	1	4
623.278	1	20
623.448	1	5
623.617	1	-7
623.787	1	3
623.956	1	15
624.126	1	-1
624.296	1	7
624.465	1	2
624.635	1	5
624.804	1	0
624.974	1	-1
625.144	1	10
625.313	1	6
625.483	1	10
625.652	1	16
625.822	1	9
625.992	1	9
626.161	1	-6
626.331	1	0
626.501	1	0
626.670	1	4
626.840	1	2
627.009	1	9
627.179	1	-6
627.348	1	12
627.518	1	7
627.688	1	12
627.857	1	-1
628.027	1	-4
628.196	1	-5
628.366	1	0
628.536	1	6
628.705	1	10
628.875	1	8
629.044	1	9
629.214	1	3
629.384	1	-3
629.553	1	6
629.723	1	-16
629.892	1	2
630.062	1	-3
630.232	1	6
630.401	1	-1
630.571	1	10
630.740	1	6
630.910	1	8
631.079	1	4
631.249	1	7
631.419	1	2
631.588	1	1
631.758	1	3
631.927	1	4
632.097	1	-2
632.266	1	-7
632.436	1	0
632.606	1	-5
632.775	1	2
632.945	1	-5
633.114	1	-3
633.284	1	8
633.453	1	8
633.623	1	3
633.793	1	-12
633.962	1	-1
634.132	1	3
634.301	1	2
634.471	1	-2
634.640	1	-1
634.810	1	11
634.979	1	12
635.149	1	1
635.319	1	7
635.488	1	-2
635.658	1	9
635.827	1	3
635.997	1	3
636.166	1	-4
636.336	1	6
636.505	1	-5
636.675	1	6
636.845	1	0
637.014	1	6
637.184	1	13
637.353	1	8
637.523	1	5
637.692	1	1
637.862	1	4
638.031	1	-2
638.201	1	3
638.370	1	5
638.540	1	-1
638.710	1	9
638.879	1	14
639.049	1	1
639.218	1	22
639.388	1	-1
639.557	1	8
639.727	1	3
639.896	1	8
640.066	1	5
640.235	1	-3
640.405	1	5
640.574	1	-2
640.744	1	-7
640.914	1	-4
641.083	1	8
641.253	1	-3
641.422	1	3
641.592	1	3
641.761	1	0
641.931	1	3
642.100	1	7
642.270	1	-1
642.439	1	-7
642.609	1	9
642.778	1	-4
642.948	1	3
643.117	1	6
643.287	1	-11
643.456	1	7
643.626	1	0
643.795	1	-2
643.965	1	3
644.134	1	4
644.304	1	0
644.473	1	4
644.643	1	-6
644.812	1	5
644.982	1	7
645.151	1	4
645.321	1	-1
645.490	1	6
645.660	1	5
645.829	1	-3
645.999	1	8
646.168	1	6
646.338	1	1
646.507	1	-6
646.677	1	-8
646.846	1	5
647.016	1	2
647.185	1	-3
647.355	1	6
647.524	1	-2
647.694	1	-6
647.863	1	-7
648.033	1	7
648.202	1	1
648.372	1	-6
648.541	1	3
648.711	1	0
648.880	1	7
649.050	1	0
649.219	1	2
649.389	1	-2
649.558	1	2
649.728	1	6
649.897	1	-1
650.067	1	11
650.236	1	-2
650.406	1	12
650.575	1	-2
650.745	1	7
650.914	1	-3
651.084	1	0
651.253	1	0
651.423	1	9
651.592	1	2
651.762	1	-1
651.931	1	5
652.101	1	10
652.270	1	-8
652.440	1	10
652.609	1	6
652.778	1	-2
652.948	1	9
653.117	1	11
653.287	1	-3
653.456	1	3
653.626	1	4
653.795	1	0
653.965	1	-8
654.134	1	-7
654.304	1	11
654.473	1	0
654.643	1	1
654.812	1	5
654.982	1	5
655.151	1	-4
655.320	1	7
655.490	1	-3
655.659	1	-3
655.829	1	-1
655.998	1	-7
656.168	1	-3
656.337	1	-1
656.507	1	-10
656.676	1	2
656.846	1	5
657.015	1	-1
657.184	1	-5
657.354	1	9
657.523	1	1
657.693	1	-1
657.862	1	-5
658.032	1	12
658.201	1	7
658.371	1	-6
658.540	1	-11
658.709	1	-7
658.879	1	14
659.048	1	-4
659.218	1	-3
659.387	1	0
659.557	1	-4
659.726	1	0
659.895	1	9
660.065	1	11
660.234	1	3
660.404	1	3
660.573	1	4
660.743	1	3
660.912	1	-2
661.081	1	-8
661.251	1	6
661.420	1	1
661.590	1	4
661.759	1	-2
661.929	1	0
662.098	1	5
662.267	1	6
662.437	1	0
662.606	1	6
662.776	1	-4
662.945	1	4
663.115	1	1
663.284	1	-6
663.453	1	12
663.623	1	7
663.792	1	4
663.962	1	-9
664.131	1	2
664.300	1	-12
664.470	1	0
664.639	1	4
664.809	1	-2
664.978	1	7
665.148	1	-8
665.317	1	4
665.486	1	-4
665.656	1	5
665.825	1	7
665.995	1	4
666.164	1	8
666.333	1	3
666.503	1	11
666.672	1	-4
666.842	1	-4
667.011	1	2
667.180	1	-1
667.350	1	6
667.519	1	-5
667.689	1	-1
667.858	1	5
668.027	1	-2
668.197	1	17
668.366	1	-3
668.536	1	-8
668.705	1	1
668.874	1	-1
669.044	1	-2
669.213	1	6
669.382	1	7
669.552	1	8
669.721	1	3
669.891	1	8
670.060	1	5
670.229	1	-2
670.399	1	-3
670.568	1	-4
670.738	1	-3
670.907	1	1
671.076	1	1
671.246	1	-10
671.415	1	8
671.584	1	3
671.754	1	-1
671.923	1	2
672.093	1	-7
672.262	1	4
672.431	1	10
672.601	1	-2
672.770	1	-1
672.939	1	2
673.109	1	2
673.278	1	3
673.448	1	6
673.617	1	9
673.786	1	4
