325.333	1	-5
325.504	1	10
325.675	1	-13
325.846	1	-12
326.017	1	-4
326.188	1	5
326.359	1	-7
326.531	1	12
326.702	1	-2
326.873	1	-7
327.044	1	7
327.215	1	-1
327.386	1	6
327.557	1	9
327.728	1	0
327.899	1	-7
328.070	1	7
328.241	1	10
328.412	1	-8
328.583	1	0
328.754	1	2
328.926	1	8
329.097	1	2
329.268	1	1
329.439	1	-3
329.610	1	0
329.781	1	2
329.952	1	-2
330.123	1	1
330.294	1	-3
330.465	1	2
330.636	1	8
330.807	1	3
330.978	1	-1
331.149	1	0
331.320	1	-4
331.492	1	-3
331.663	1	0
331.834	1	-11
332.005	1	11
332.176	1	11
332.347	1	12
332.518	1	12
332.689	1	7
332.860	1	-4
333.031	1	11
333.202	1	0
333.373	1	6
333.544	1	-4
333.715	1	1
333.886	1	7
334.057	1	-7
334.228	1	2
334.399	1	2
334.570	1	-4
334.741	1	-8
334.912	1	-3
335.084	1	-5
335.255	1	1
335.426	1	7
335.597	1	9
335.768	1	-3
335.939	1	-1
336.110	1	1
336.281	1	-7
336.452	1	-8
336.623	1	-1
336.794	1	-11
336.965	1	-4
337.136	1	8
337.307	1	7
337.478	1	4
337.649	1	-4
337.820	1	-1
337.991	1	3
338.162	1	1
338.333	1	6
338.504	1	3
338.675	1	-3
338.846	1	4
339.017	1	11
339.188	1	8
339.359	1	8
339.530	1	8
339.701	1	-3
339.872	1	-3
340.043	1	-3
340.214	1	2
340.385	1	3
340.556	1	0
340.727	1	-1
340.898	1	11
341.069	1	-7
341.240	1	5
341.411	1	12
341.582	1	1
341.753	1	-14
341.924	1	7
342.095	1	10
342.266	1	-5
342.437	1	-12
342.608	1	-1
342.779	1	9
342.950	1	-10
343.121	1	1
343.292	1	5
343.463	1	-5
343.634	1	2
343.805	1	5
343.976	1	-5
344.147	1	3
344.318	1	-5
344.489	1	2
344.660	1	2
344.831	1	-1
345.002	1	2
345.173	1	4
345.344	1	-4
345.515	1	0
345.686	1	-5
345.857	1	-2
346.028	1	-12
346.199	1	7
346.370	1	9
346.541	1	1
346.712	1	4
346.883	1	6
347.054	1	9
347.225	1	-3
347.396	1	-12
347.567	1	0
347.738	1	1
347.909	1	7
348.080	1	7
348.251	1	0
348.422	1	2
348.593	1	9
348.764	1	-3
348.935	1	-1
349.106	1	6
349.277	1	2
349.448	1	0
349.619	1	3
349.790	1	6
349.961	1	5
350.132	1	16
350.303	1	6
350.474	1	-4
350.645	1	4
350.816	1	1
350.987	1	4
351.157	1	-5
351.328	1	3
351.499	1	17
351.670	1	-1
351.841	1	-1
352.012	1	1
352.183	1	2
352.354	1	-2
352.525	1	3
352.696	1	5
352.867	1	-1
353.038	1	-6
353.209	1	-4
353.380	1	-3
353.551	1	-6
353.722	1	-8
353.893	1	1
354.064	1	3
354.235	1	3
354.406	1	13
354.576	1	-9
354.747	1	17
354.918	1	5
355.089	1	8
355.260	1	-3
355.431	1	2
355.602	1	6
355.773	1	-3
355.944	1	2
356.115	1	-5
356.286	1	4
356.457	1	-2
356.628	1	-2
356.799	1	2
356.970	1	4
357.141	1	-3
357.311	1	5
357.482	1	0
357.653	1	8
357.824	1	-4
357.995	1	4
358.166	1	-4
358.337	1	-2
358.508	1	-2
358.679	1	-2
358.850	1	3
359.021	1	-1
359.192	1	-4
359.363	1	-3
359.533	1	-6
359.704	1	1
359.875	1	-1
360.046	1	-5
360.217	1	-6
360.388	1	-10
360.559	1	5
360.730	1	2
360.901	1	7
361.072	1	-4
361.243	1	-7
361.414	1	3
361.584	1	21
361.755	1	3
361.926	1	0
362.097	1	-13
362.268	1	9
362.439	1	4
362.610	1	-5
362.781	1	5
362.952	1	1
363.123	1	3
363.293	1	3
363.464	1	0
363.635	1	8
363.806	1	0
363.977	1	6
364.148	1	-2
364.319	1	-11
364.490	1	6
364.661	1	1
364.832	1	0
365.002	1	-6
365.173	1	-6
365.344	1	-1
365.515	1	7
365.686	1	8
365.857	1	3
366.028	1	1
366.199	1	-1
366.370	1	-4
366.540	1	-3
366.711	1	11
366.882	1	-7
367.053	1	-3
367.224	1	-3
367.395	1	1
367.566	1	1
367.737	1	5
367.908	1	-3
368.078	1	1
368.249	1	3
368.420	1	-10
368.591	1	7
368.762	1	-7
368.933	1	8
369.104	1	-1
369.274	1	9
369.445	1	12
369.616	1	-3
369.787	1	-6
369.958	1	14
370.129	1	6
370.300	1	2
370.471	1	1
370.641	1	-2
370.812	1	7
370.983	1	-4
371.154	1	6
371.325	1	5
371.496	1	-2
371.667	1	2
371.837	1	-7
372.008	1	14
372.179	1	-5
372.350	1	4
372.521	1	4
372.692	1	-5
372.863	1	-1
373.033	1	10
373.204	1	16
373.375	1	-5
373.546	1	1
373.717	1	-1
373.888	1	3
374.059	1	0
374.229	1	6
374.400	1	4
374.571	1	-3
374.742	1	2
374.913	1	15
375.084	1	7
375.254	1	-3
375.425	1	-1
375.596	1	-1
375.767	1	-13
375.938	1	7
376.109	1	3
376.279	1	-3
376.450	1	2
376.621	1	9
376.792	1	5
376.963	1	4
377.134	1	-16
377.304	1	12
377.475	1	3
377.646	1	-10
377.817	1	-2
377.988	1	4
378.159	1	0
378.329	1	5
378.500	1	-3
378.671	1	-10
378.842	1	11
379.013	1	-5
379.184	1	9
379.354	1	6
379.525	1	0
379.696	1	15
379.867	1	-6
380.038	1	7
380.209	1	4
380.379	1	5
380.550	1	-3
380.721	1	4
380.892	1	15
381.063	1	0
381.233	1	5
381.404	1	8
381.575	1	6
381.746	1	10
381.917	1	0
382.087	1	-4
382.258	1	7
382.429	1	3
382.600	1	0
382.771	1	2
382.941	1	0
383.112	1	4
383.283	1	7
383.454	1	10
383.625	1	-1
383.795	1	-1
383.966	1	4
384.137	1	-1
384.308	1	5
384.479	1	5
384.649	1	7
384.820	1	8
384.991	1	-7
385.162	1	6
385.333	1	0
385.503	1	7
385.674	1	7
385.845	1	13
386.016	1	10
386.187	1	2
386.357	1	1
386.528	1	-5
386.699	1	-1
386.870	1	14
387.041	1	5
387.211	1	3
387.382	1	-1
387.553	1	2
387.724	1	-2
387.894	1	2
388.065	1	7
388.236	1	14
388.407	1	0
388.578	1	16
388.748	1	-1
388.919	1	8
389.090	1	4
389.261	1	19
389.431	1	12
389.602	1	3
389.773	1	-11
389.944	1	9
390.114	1	14
390.285	1	10
390.456	1	-8
390.627	1	1
390.798	1	8
390.968	1	-2
391.139	1	12
391.310	1	4
391.481	1	6
391.651	1	9
391.822	1	9
391.993	1	12
392.164	1	-16
392.334	1	-4
392.505	1	-1
392.676	1	5
392.847	1	13
393.017	1	7
393.188	1	1
393.359	1	1
393.530	1	5
393.700	1	8
393.871	1	9
394.042	1	4
394.213	1	9
394.383	1	1
394.554	1	4
394.725	1	7
394.896	1	3
395.066	1	7
395.237	1	-7
395.408	1	4
395.579	1	11
395.749	1	10
395.920	1	-5
396.091	1	7
396.262	1	-3
396.432	1	9
396.603	1	2
396.774	1	5
396.945	1	2
397.115	1	4
397.286	1	19
397.457	1	2
397.627	1	1
397.798	1	10
397.969	1	6
398.140	1	3
398.310	1	-5
398.481	1	5
398.652	1	1
398.823	1	3
398.993	1	18
399.164	1	3
399.335	1	-4
399.505	1	9
399.676	1	0
399.847	1	5
400.018	1	5
400.188	1	14
400.359	1	8
400.530	1	-1
400.700	1	2
400.871	1	14
401.042	1	10
401.213	1	11
401.383	1	8
401.554	1	8
401.725	1	4
401.895	1	-3
402.066	1	12
402.237	1	12
402.408	1	12
402.578	1	3
402.749	1	-9
402.920	1	17
403.090	1	3
403.261	1	14
403.432	1	7
403.603	1	-11
403.773	1	12
403.944	1	13
404.115	1	-4
404.285	1	15
404.456	1	5
404.627	1	5
404.797	1	2
404.968	1	6
405.139	1	2
405.310	1	-4
405.480	1	7
405.651	1	14
405.822	1	15
405.992	1	7
406.163	1	4
406.334	1	3
406.504	1	-4
406.675	1	9
406.846	1	6
407.016	1	0
407.187	1	8
407.358	1	2
407.528	1	9
407.699	1	0
407.870	1	11
408.041	1	1
408.211	1	3
408.382	1	11
408.553	1	0
408.723	1	9
408.894	1	17
409.065	1	8
409.235	1	2
409.406	1	2
409.577	1	3
409.747	1	11
409.918	1	6
410.089	1	-1
410.259	1	-5
410.430	1	12
410.601	1	13
410.771	1	6
410.942	1	-4
411.113	1	13
411.283	1	11
411.454	1	9
411.625	1	3
411.795	1	-6
411.966	1	-2
412.137	1	-2
412.307	1	4
412.478	1	19
412.649	1	0
412.819	1	-7
412.990	1	13
413.161	1	5
413.331	1	4
413.502	1	-5
413.672	1	8
413.843	1	10
414.014	1	15
414.184	1	2
414.355	1	11
414.526	1	4
414.696	1	6
414.867	1	-4
415.038	1	3
415.208	1	-8
415.379	1	2
415.550	1	7
415.720	1	2
415.891	1	5
416.062	1	9
416.232	1	11
416.403	1	8
416.573	1	6
416.744	1	3
416.915	1	5
417.085	1	5
417.256	1	4
417.427	1	9
417.597	1	8
417.768	1	11
417.939	1	4
418.109	1	1
418.280	1	4
418.450	1	16
418.621	1	5
418.792	1	3
418.962	1	3
419.133	1	11
419.304	1	-9
419.474	1	-10
419.645	1	2
419.815	1	12
419.986	1	-2
420.157	1	6
420.327	1	0
420.498	1	-7
420.669	1	14
420.839	1	5
421.010	1	-7
421.180	1	2
421.351	1	18
421.522	1	12
421.692	1	22
421.863	1	10
422.033	1	9
422.204	1	8
422.375	1	-1
422.545	1	7
422.716	1	-3
422.886	1	7
423.057	1	-4
423.228	1	9
423.398	1	2
423.569	1	7
423.740	1	-2
423.910	1	8
424.081	1	9
424.251	1	-2
424.422	1	-4
424.593	1	-1
424.763	1	7
424.934	1	1
425.104	1	11
425.275	1	12
425.445	1	23
425.616	1	7
425.787	1	3
425.957	1	11
426.128	1	15
426.298	1	4
426.469	1	-5
426.640	1	13
426.810	1	9
426.981	1	5
427.151	1	6
427.322	1	-3
427.493	1	-2
427.663	1	-3
427.834	1	7
428.004	1	8
428.175	1	2
428.345	1	9
428.516	1	12
428.687	1	3
428.857	1	9
429.028	1	1
429.198	1	1
429.369	1	3
429.540	1	7
429.710	1	12
429.881	1	7
430.051	1	13
430.222	1	-2
430.392	1	9
430.563	1	1
430.734	1	18
430.904	1	6
431.075	1	7
431.245	1	5
431.416	1	-10
431.586	1	2
431.757	1	12
431.927	1	-3
432.098	1	10
432.269	1	12
432.439	1	10
432.610	1	10
432.780	1	3
432.951	1	4
433.121	1	17
433.292	1	8
433.462	1	9
433.633	1	15
433.804	1	-5
433.974	1	10
434.145	1	9
434.315	1	8
434.486	1	-4
434.656	1	3
434.827	1	-5
434.997	1	14
435.168	1	8
435.339	1	-4
435.509	1	3
435.680	1	0
435.850	1	5
436.021	1	13
436.191	1	14
436.362	1	12
436.532	1	8
436.703	1	11
436.873	1	8
437.044	1	9
437.214	1	18
437.385	1	7
437.556	1	14
437.726	1	5
437.897	1	2
438.067	1	5
438.238	1	11
438.408	1	0
438.579	1	5
438.749	1	-2
438.920	1	8
439.090	1	-1
439.261	1	4
439.431	1	11
439.602	1	8
439.772	1	15
439.943	1	14
440.113	1	10
440.284	1	3
440.455	1	7
440.625	1	2
440.796	1	0
440.966	1	2
441.137	1	7
441.307	1	11
441.478	1	20
441.648	1	4
441.819	1	9
441.989	1	-3
442.160	1	8
442.330	1	9
442.501	1	5
442.671	1	0
442.842	1	10
443.012	1	9
443.183	1	13
443.353	1	14
443.524	1	8
443.694	1	0
443.865	1	5
444.035	1	2
444.206	1	-3
444.376	1	13
444.547	1	-1
444.717	1	15
444.888	1	11
445.058	1	11
445.229	1	13
445.399	1	-9
445.570	1	2
445.740	1	7
445.911	1	12
446.081	1	13
446.252	1	-7
446.422	1	12
446.593	1	7
446.763	1	10
446.934	1	15
447.104	1	3
447.275	1	15
447.445	1	5
447.616	1	3
447.786	1	0
447.957	1	-9
448.127	1	17
448.298	1	2
448.468	1	11
448.639	1	-1
448.809	1	7
448.979	1	6
449.150	1	9
449.320	1	18
449.491	1	9
449.661	1	20
449.832	1	15
450.002	1	6
450.173	1	4
450.343	1	8
450.514	1	1
450.684	1	0
450.855	1	5
451.025	1	8
451.196	1	3
451.366	1	2
451.537	1	3
451.707	1	15
451.878	1	-1
452.048	1	-3
452.218	1	2
452.389	1	6
452.559	1	4
452.730	1	9
452.900	1	11
453.071	1	13
453.241	1	-2
453.412	1	-8
453.582	1	-1
453.753	1	7
453.923	1	9
454.093	1	8
454.264	1	4
454.434	1	8
454.605	1	10
454.775	1	7
454.946	1	4
455.116	1	6
455.287	1	0
455.457	1	10
455.628	1	-4
455.798	1	2
455.968	1	9
456.139	1	13
456.309	1	15
456.480	1	-3
456.650	1	15
456.821	1	17
456.991	1	15
457.161	1	9
457.332	1	-4
457.502	1	17
457.673	1	15
457.843	1	9
458.014	1	3
458.184	1	2
458.355	1	0
458.525	1	12
458.695	1	9
458.866	1	11
459.036	1	8
459.207	1	15
459.377	1	13
459.548	1	-12
459.718	1	4
459.888	1	11
460.059	1	8
460.229	1	5
460.400	1	-8
460.570	1	13
460.740	1	7
460.911	1	3
461.081	1	3
461.252	1	1
461.422	1	2
461.593	1	6
461.763	1	12
461.933	1	0
462.104	1	4
462.274	1	-1
462.445	1	7
462.615	1	5
462.785	1	0
462.956	1	-2
463.126	1	7
463.297	1	15
463.467	1	10
463.638	1	5
463.808	1	0
463.978	1	10
464.149	1	-2
464.319	1	6
464.490	1	11
464.660	1	5
464.830	1	8
465.001	1	11
465.171	1	6
465.342	1	8
465.512	1	0
465.682	1	2
465.853	1	-5
466.023	1	9
466.194	1	-5
466.364	1	2
466.534	1	10
466.705	1	-3
466.875	1	11
467.045	1	11
467.216	1	6
467.386	1	4
467.557	1	7
467.727	1	17
467.897	1	4
468.068	1	-13
468.238	1	11
468.409	1	-4
468.579	1	12
468.749	1	8
468.920	1	0
469.090	1	12
469.260	1	2
469.431	1	6
469.601	1	1
469.772	1	-5
469.942	1	13
470.112	1	6
470.283	1	15
470.453	1	16
470.623	1	3
470.794	1	1
470.964	1	6
471.135	1	13
471.305	1	7
471.475	1	-3
471.646	1	9
471.816	1	5
471.986	1	14
472.157	1	14
472.327	1	14
472.497	1	13
472.668	1	-1
472.838	1	8
473.009	1	13
473.179	1	5
473.349	1	7
473.520	1	2
473.690	1	13
473.860	1	12
474.031	1	9
474.201	1	2
474.371	1	7
474.542	1	14
474.712	1	7
474.882	1	-7
475.053	1	14
475.223	1	-2
475.394	1	-1
475.564	1	1
475.734	1	7
475.905	1	8
476.075	1	7
476.245	1	13
476.416	1	-2
476.586	1	6
476.756	1	1
476.927	1	-1
477.097	1	6
477.267	1	13
477.438	1	8
477.608	1	5
477.778	1	15
477.949	1	5
478.119	1	2
478.289	1	0
478.460	1	-9
478.630	1	11
478.800	1	9
478.971	1	6
479.141	1	10
479.311	1	11
479.482	1	7
479.652	1	13
479.822	1	2
479.993	1	5
480.163	1	6
480.333	1	3
480.504	1	8
480.674	1	9
480.844	1	-1
481.015	1	0
481.185	1	2
481.355	1	11
481.525	1	0
481.696	1	3
481.866	1	8
482.036	1	4
482.207	1	2
482.377	1	6
482.547	1	-2
482.718	1	8
482.888	1	15
483.058	1	0
483.229	1	-2
483.399	1	14
483.569	1	-2
483.740	1	9
483.910	1	2
484.080	1	-2
484.250	1	-7
484.421	1	6
484.591	1	6
484.761	1	1
484.932	1	7
485.102	1	0
485.272	1	-3
485.443	1	3
485.613	1	6
485.783	1	5
485.953	1	7
486.124	1	0
486.294	1	-5
486.464	1	2
486.635	1	10
486.805	1	-10
486.975	1	9
487.146	1	0
487.316	1	4
487.486	1	6
487.656	1	-1
487.827	1	-1
487.997	1	5
488.167	1	10
488.338	1	8
488.508	1	8
488.678	1	4
488.848	1	-1
489.019	1	0
489.189	1	-6
489.359	1	0
489.529	1	-1
489.700	1	7
489.870	1	-11
490.040	1	-4
490.211	1	3
490.381	1	-1
490.551	1	4
490.721	1	1
490.892	1	-4
491.062	1	-2
491.232	1	-1
491.402	1	3
491.573	1	0
491.743	1	6
491.913	1	0
492.084	1	3
492.254	1	1
492.424	1	5
492.594	1	11
492.765	1	1
492.935	1	-3
493.105	1	6
493.275	1	7
493.446	1	-3
493.616	1	8
493.786	1	-2
493.956	1	0
494.127	1	12
494.297	1	3
494.467	1	-5
494.637	1	4
494.808	1	6
494.978	1	-5
495.148	1	2
495.318	1	5
495.489	1	0
495.659	1	-1
495.829	1	7
495.999	1	-1
496.170	1	-10
496.340	1	6
496.510	1	4
496.680	1	-8
496.851	1	1
497.021	1	-4
497.191	1	2
497.361	1	0
497.532	1	5
497.702	1	20
497.872	1	13
498.042	1	12
498.213	1	6
498.383	1	10
498.553	1	-9
498.723	1	7
498.894	1	-7
499.064	1	3
499.234	1	-5
499.404	1	-16
499.574	1	3
499.745	1	-5
499.915	1	9
500.085	1	4
500.255	1	-7
500.426	1	3
500.596	1	-3
500.766	1	-4
500.936	1	9
501.106	1	6
501.277	1	3
501.447	1	-5
501.617	1	7
501.787	1	-2
501.958	1	-3
502.128	1	-8
502.298	1	-6
502.468	1	11
502.638	1	4
502.809	1	0
502.979	1	1
503.149	1	1
503.319	1	8
503.489	1	-1
503.660	1	-1
503.830	1	2
504.000	1	14
504.170	1	3
504.340	1	0
504.511	1	4
504.681	1	-7
504.851	1	3
505.021	1	17
505.192	1	-3
505.362	1	3
505.532	1	13
505.702	1	-1
505.872	1	-2
506.043	1	14
506.213	1	10
506.383	1	-2
506.553	1	-2
506.723	1	6
506.893	1	-4
507.064	1	-10
507.234	1	-5
507.404	1	7
507.574	1	-6
507.744	1	11
507.915	1	-6
508.085	1	6
508.255	1	1
508.425	1	4
508.595	1	1
508.766	1	1
508.936	1	15
509.106	1	7
509.276	1	6
509.446	1	4
509.616	1	2
509.787	1	10
509.957	1	0
510.127	1	2
510.297	1	-4
510.467	1	-1
510.638	1	10
510.808	1	1
510.978	1	-1
511.148	1	16
511.318	1	4
511.488	1	11
511.659	1	-5
511.829	1	2
511.999	1	11
512.169	1	-3
512.339	1	4
512.509	1	3
512.680	1	-1
512.850	1	0
513.020	1	3
513.190	1	-2
513.360	1	-2
513.530	1	1
513.700	1	1
513.871	1	9
514.041	1	3
514.211	1	3
514.381	1	9
514.551	1	-3
514.721	1	-3
514.892	1	7
515.062	1	7
515.232	1	2
515.402	1	-3
515.572	1	1
515.742	1	1
515.912	1	3
516.083	1	-1
516.253	1	3
516.423	1	2
516.593	1	7
516.763	1	-4
516.933	1	-6
517.104	1	2
517.274	1	-20
517.444	1	2
517.614	1	-9
517.784	1	1
517.954	1	7
518.124	1	-2
518.294	1	0
518.465	1	2
518.635	1	0
518.805	1	11
518.975	1	-4
519.145	1	3
519.315	1	6
519.485	1	-1
519.656	1	7
519.826	1	7
519.996	1	-1
520.166	1	14
520.336	1	3
520.506	1	-3
520.676	1	0
520.846	1	0
521.017	1	-7
521.187	1	10
521.357	1	-10
521.527	1	2
521.697	1	4
521.867	1	-7
522.037	1	-8
522.207	1	-1
522.377	1	-3
522.548	1	3
522.718	1	-3
522.888	1	5
523.058	1	7
523.228	1	8
523.398	1	2
523.568	1	-1
523.738	1	2
523.909	1	0
524.079	1	-1
524.249	1	3
524.419	1	10
524.589	1	-2
524.759	1	2
524.929	1	-8
525.099	1	-10
525.269	1	12
525.439	1	-3
525.610	1	1
525.780	1	-6
525.950	1	6
526.120	1	-4
526.290	1	-3
526.460	1	1
526.630	1	1
526.800	1	0
526.970	1	0
527.140	1	-4
527.311	1	3
527.481	1	-3
527.651	1	-12
527.821	1	-3
527.991	1	2
528.161	1	-5
528.331	1	10
528.501	1	3
528.671	1	-5
528.841	1	8
529.011	1	1
529.181	1	8
529.352	1	2
529.522	1	-2
529.692	1	-3
529.862	1	5
530.032	1	-1
530.202	1	7
530.372	1	-3
530.542	1	-11
530.712	1	2
530.882	1	-6
531.052	1	11
531.222	1	-7
531.392	1	4
531.563	1	6
531.733	1	0
531.903	1	6
532.073	1	3
532.243	1	5
532.413	1	10
532.583	1	-4
532.753	1	-1
532.923	1	10
533.093	1	12
533.263	1	-16
533.433	1	4
533.603	1	3
533.773	1	-2
533.943	1	1
534.113	1	1
534.284	1	0
534.454	1	-3
534.624	1	7
534.794	1	-3
534.964	1	5
535.134	1	6
535.304	1	2
535.474	1	-13
535.644	1	5
535.814	1	5
535.984	1	12
536.154	1	-7
536.324	1	8
536.494	1	12
536.664	1	-6
536.834	1	0
537.004	1	-1
537.174	1	-1
537.344	1	4
537.514	1	-2
537.685	1	4
537.855	1	-2
538.025	1	5
538.195	1	3
538.365	1	10
538.535	1	-4
538.705	1	9
538.875	1	6
539.045	1	-2
539.215	1	-7
539.385	1	-2
539.555	1	13
539.725	1	-6
539.895	1	5
540.065	1	-6
540.235	1	-2
540.405	1	4
540.575	1	-6
540.745	1	-2
540.915	1	5
541.085	1	-7
541.255	1	-5
541.425	1	6
541.595	1	3
541.765	1	12
541.935	1	-2
542.105	1	9
542.275	1	-2
542.445	1	-6
542.615	1	2
542.785	1	-7
542.955	1	-2
543.125	1	-18
543.295	1	3
543.465	1	6
543.635	1	8
543.805	1	11
543.975	1	4
544.145	1	0
544.315	1	-11
544.485	1	-6
544.655	1	9
544.825	1	5
544.995	1	3
545.165	1	1
545.335	1	-6
545.505	1	6
545.675	1	-7
545.845	1	4
546.015	1	6
546.185	1	7
546.355	1	2
546.525	1	-7
546.695	1	-2
546.865	1	11
547.035	1	6
547.205	1	1
547.375	1	-5
547.545	1	12
547.715	1	9
547.885	1	10
548.055	1	-2
548.225	1	0
548.395	1	1
548.565	1	5
548.735	1	1
548.905	1	-12
549.075	1	7
549.245	1	5
549.415	1	-6
549.585	1	1
549.755	1	5
549.925	1	-6
550.095	1	0
550.265	1	2
550.435	1	-10
550.605	1	-4
550.775	1	-7
550.945	1	12
551.115	1	2
551.285	1	-7
551.455	1	-4
551.625	1	-5
551.795	1	-4
551.965	1	0
552.135	1	7
552.305	1	-7
552.475	1	-5
552.645	1	-2
552.815	1	1
552.985	1	1
553.155	1	4
553.325	1	1
553.495	1	5
553.665	1	14
553.835	1	-6
554.004	1	-5
554.174	1	-4
554.344	1	-1
554.514	1	3
554.684	1	-1
554.854	1	-11
555.024	1	4
555.194	1	11
555.364	1	2
555.534	1	1
555.704	1	16
555.874	1	2
556.044	1	5
556.214	1	-3
556.384	1	-5
556.554	1	2
556.724	1	4
556.894	1	1
557.064	1	12
557.234	1	5
557.404	1	-2
557.573	1	-7
557.743	1	-15
557.913	1	0
558.083	1	10
558.253	1	-10
558.423	1	-8
558.593	1	-3
558.763	1	3
558.933	1	-15
559.103	1	5
559.273	1	0
559.443	1	2
559.613	1	2
559.783	1	2
559.953	1	4
560.122	1	-11
560.292	1	-3
560.462	1	-10
560.632	1	1
560.802	1	-5
560.972	1	8
561.142	1	9
561.312	1	1
561.482	1	7
561.652	1	-3
561.822	1	-11
561.992	1	-22
562.162	1	2
562.331	1	6
562.501	1	-5
562.671	1	6
562.841	1	0
563.011	1	-9
563.181	1	4
563.351	1	-1
563.521	1	6
563.691	1	5
563.861	1	-10
564.031	1	-10
564.201	1	4
564.370	1	-2
564.540	1	-1
564.710	1	5
564.880	1	0
565.050	1	-3
565.220	1	-5
565.390	1	3
565.560	1	4
565.730	1	-4
565.900	1	-4
566.069	1	0
566.239	1	3
566.409	1	7
566.579	1	-1
566.749	1	0
566.919	1	-2
567.089	1	3
567.259	1	7
567.429	1	-6
567.599	1	-3
567.768	1	-3
567.938	1	-7
568.108	1	6
568.278	1	0
568.448	1	-2
568.618	1	1
568.788	1	-10
568.958	1	-15
569.128	1	-3
569.297	1	-2
569.467	1	6
569.637	1	6
569.807	1	-3
569.977	1	17
570.147	1	-5
570.317	1	1
570.487	1	2
570.656	1	-3
570.826	1	-6
570.996	1	-5
571.166	1	2
571.336	1	9
571.506	1	-1
571.676	1	-10
571.846	1	-13
572.015	1	7
572.185	1	2
572.355	1	-2
572.525	1	-3
572.695	1	0
572.865	1	10
573.035	1	0
573.205	1	-3
573.374	1	11
573.544	1	-17
573.714	1	7
573.884	1	3
574.054	1	-3
574.224	1	-3
574.394	1	2
574.563	1	5
574.733	1	11
574.903	1	4
575.073	1	4
575.243	1	5
575.413	1	-2
575.583	1	-1
575.752	1	-5
575.922	1	9
576.092	1	-1
576.262	1	8
576.432	1	7
576.602	1	-4
576.772	1	-3
576.941	1	12
577.111	1	5
577.281	1	15
577.451	1	-6
577.621	1	-2
577.791	1	0
577.960	1	-15
578.130	1	-1
578.300	1	3
578.470	1	0
578.640	1	2
578.810	1	-2
578.979	1	-16
579.149	1	-5
579.319	1	2
579.489	1	-1
579.659	1	-6
579.829	1	5
579.998	1	-10
580.168	1	3
580.338	1	4
580.508	1	2
580.678	1	3
580.848	1	-8
581.017	1	-5
581.187	1	-5
581.357	1	0
581.527	1	-4
581.697	1	-11
581.867	1	-1
582.036	1	3
582.206	1	-8
582.376	1	8
582.546	1	16
582.716	1	3
582.885	1	-8
583.055	1	0
583.225	1	-10
583.395	1	-5
583.565	1	-6
583.735	1	-4
583.904	1	-6
584.074	1	3
584.244	1	7
584.414	1	-3
584.584	1	0
584.753	1	14
584.923	1	0
585.093	1	-3
585.263	1	-5
585.433	1	10
585.602	1	3
585.772	1	6
585.942	1	6
586.112	1	1
586.282	1	-1
586.451	1	6
586.621	1	2
586.791	1	1
586.961	1	2
587.131	1	9
587.300	1	6
587.470	1	3
587.640	1	-8
587.810	1	-5
587.980	1	-8
588.149	1	5
588.319	1	-2
588.489	1	1
588.659	1	9
588.829	1	-12
588.998	1	-5
589.168	1	-6
589.338	1	-2
589.508	1	15
589.677	1	-2
589.847	1	6
590.017	1	0
590.187	1	4
590.357	1	-3
590.526	1	16
590.696	1	-4
590.866	1	-5
591.036	1	-1
591.205	1	-7
591.375	1	-4
591.545	1	-1
591.715	1	-7
591.885	1	-7
592.054	1	8
592.224	1	4
592.394	1	-3
592.564	1	5
592.733	1	6
592.903	1	-9
593.073	1	-12
593.243	1	0
593.412	1	-11
593.582	1	-4
593.752	1	7
593.922	1	5
594.091	1	-10
594.261	1	0
594.431	1	-3
594.601	1	-3
594.771	1	5
594.940	1	-7
595.110	1	-2
595.280	1	5
595.450	1	1
595.619	1	0
595.789	1	9
595.959	1	4
596.129	1	-10
596.298	1	4
596.468	1	4
596.638	1	-11
596.808	1	-7
596.977	1	-5
597.147	1	1
597.317	1	3
597.487	1	-5
597.656	1	8
597.826	1	-7
597.996	1	-5
598.166	1	3
598.335	1	-8
598.505	1	-7
598.675	1	-12
598.844	1	0
599.014	1	2
599.184	1	-5
599.354	1	4
599.523	1	-3
599.693	1	8
599.863	1	1
600.033	1	0
600.202	1	7
600.372	1	0
600.542	1	2
600.712	1	2
600.881	1	3
601.051	1	1
601.221	1	9
601.390	1	5
601.560	1	9
601.730	1	-1
601.900	1	11
602.069	1	-3
602.239	1	6
602.409	1	5
602.578	1	-5
602.748	1	-6
602.918	1	0
603.088	1	1
603.257	1	1
603.427	1	11
603.597	1	1
603.767	1	5
603.936	1	15
604.106	1	-7
604.276	1	8
604.445	1	-6
604.615	1	-6
604.785	1	5
604.954	1	5
605.124	1	5
605.294	1	13
605.464	1	-8
605.633	1	7
605.803	1	2
605.973	1	11
606.142	1	9
606.312	1	12
606.482	1	-6
606.652	1	2
606.821	1	0
606.991	1	1
607.161	1	6
607.330	1	4
607.500	1	13
607.670	1	8
607.839	1	7
608.009	1	-2
608.179	1	-5
608.348	1	1
608.518	1	-7
608.688	1	7
608.858	1	-5
609.027	1	-6
609.197	1	14
609.367	1	-5
609.536	1	12
609.706	1	3
609.876	1	8
610.045	1	-4
610.215	1	9
610.385	1	-6
610.554	1	7
610.724	1	-2
610.894	1	8
611.063	1	6
611.233	1	-16
611.403	1	-4
611.572	1	7
611.742	1	-3
611.912	1	-2
612.081	1	4
612.251	1	11
612.421	1	12
612.590	1	-7
612.760	1	24
612.930	1	-4
613.099	1	-1
613.269	1	1
613.439	1	0
613.608	1	5
613.778	1	-7
613.948	1	4
614.117	1	11
614.287	1	4
614.457	1	2
614.626	1	14
614.796	1	13
614.966	1	7
615.135	1	9
615.305	1	9
615.475	1	-4
615.644	1	5
615.814	1	2
615.984	1	-3
616.153	1	8
616.323	1	-3
616.493	1	18
616.662	1	-1
616.832	1	-1
617.002	1	0
617.171	1	8
617.341	1	-3
617.511	1	-3
617.680	1	-6
617.850	1	-4
618.019	1	6
618.189	1	3
618.359	1	-1
618.528	1	-3
618.698	1	2
618.868	1	-4
619.037	1	4
619.207	1	4
619.377	1	-6
619.546	1	-3
619.716	1	-6
619.885	1	-1
620.055	1	14
620.225	1	3
620.394	1	5
620.564	1	-7
620.734	1	-5
620.903	1	10
621.073	1	13
621.242	1	2
621.412	1	7
621.582	1	-6
621.751	1	6
621.921	1	7
622.091	1	-10
622.260	1	4
622.430	1	3
622.599	1	8
622.769	1	-3
622.939	1	0
623.108	1	3
623.278	1	16
623.448	1	8
623.617	1	-3
623.787	1	9
623.956	1	5
624.126	1	-3
624.296	1	6
624.465	1	3
624.635	1	4
624.804	1	-3
624.974	1	3
625.144	1	11
625.313	1	1
625.483	1	8
625.652	1	4
625.822	1	5
625.992	1	11
626.161	1	-8
626.331	1	10
626.501	1	0
626.670	1	8
626.840	1	-3
627.009	1	6
627.179	1	-16
627.348	1	-3
627.518	1	6
627.688	1	2
627.857	1	-1
628.027	1	-6
628.196	1	2
628.366	1	3
628.536	1	3
628.705	1	-6
628.875	1	-3
629.044	1	3
629.214	1	1
629.384	1	-2
629.553	1	5
629.723	1	-10
629.892	1	6
630.062	1	-12
630.232	1	13
630.401	1	4
630.571	1	11
630.740	1	-5
630.910	1	2
631.079	1	-5
631.249	1	7
631.419	1	6
631.588	1	5
631.758	1	2
631.927	1	2
632.097	1	0
632.266	1	-6
632.436	1	9
632.606	1	-13
632.775	1	9
632.945	1	-7
633.114	1	-9
633.284	1	14
633.453	1	7
633.623	1	14
633.793	1	-6
633.962	1	-1
634.132	1	2
634.301	1	-5
634.471	1	0
634.640	1	-1
634.810	1	12
634.979	1	0
635.149	1	9
635.319	1	5
635.488	1	-11
635.658	1	2
635.827	1	-10
635.997	1	-4
636.166	1	-4
636.336	1	3
636.505	1	5
636.675	1	7
636.845	1	5
637.014	1	6
637.184	1	0
637.353	1	-7
637.523	1	2
637.692	1	-5
637.862	1	-7
638.031	1	-7
638.201	1	-5
638.370	1	10
638.540	1	6
638.710	1	3
638.879	1	5
639.049	1	-16
639.218	1	15
639.388	1	2
639.557	1	-3
639.727	1	4
639.896	1	11
640.066	1	8
640.235	1	-6
640.405	1	2
640.574	1	5
640.744	1	-3
640.914	1	2
641.083	1	4
641.253	1	-2
641.422	1	9
641.592	1	-13
641.761	1	-3
641.931	1	-4
642.100	1	4
642.270	1	-6
642.439	1	9
642.609	1	0
642.778	1	-3
642.948	1	2
643.117	1	5
643.287	1	-3
643.456	1	1
643.626	1	8
643.795	1	3
643.965	1	6
644.134	1	6
644.304	1	5
644.473	1	-4
644.643	1	-7
644.812	1	5
644.982	1	2
645.151	1	0
645.321	1	-2
645.490	1	0
645.660	1	6
645.829	1	-2
645.999	1	1
646.168	1	4
646.338	1	7
646.507	1	-2
646.677	1	0
646.846	1	3
647.016	1	-2
647.185	1	6
647.355	1	-1
647.524	1	-5
647.694	1	-2
647.863	1	10
648.033	1	-6
648.202	1	-2
648.372	1	-3
648.541	1	-6
648.711	1	6
648.880	1	2
649.050	1	2
649.219	1	2
649.389	1	-3
649.558	1	14
649.728	1	3
649.897	1	-6
650.067	1	-5
650.236	1	-8
650.406	1	5
650.575	1	4
650.745	1	7
650.914	1	-5
651.084	1	1
651.253	1	1
651.423	1	-9
651.592	1	-9
651.762	1	5
651.931	1	10
652.101	1	2
652.270	1	-4
652.440	1	15
652.609	1	8
652.778	1	4
652.948	1	-2
653.117	1	5
653.287	1	-4
653.456	1	-2
653.626	1	3
653.795	1	-3
653.965	1	-7
654.134	1	-5
654.304	1	9
654.473	1	-5
654.643	1	5
654.812	1	-2
654.982	1	4
655.151	1	0
655.320	1	-3
655.490	1	2
655.659	1	-1
655.829	1	0
655.998	1	1
656.168	1	6
656.337	1	7
656.507	1	-6
656.676	1	1
656.846	1	0
657.015	1	5
657.184	1	4
657.354	1	8
657.523	1	-4
657.693	1	-4
657.862	1	-3
658.032	1	8
658.201	1	5
658.371	1	-7
658.540	1	-2
658.709	1	-5
658.879	1	10
659.048	1	3
659.218	1	0
659.387	1	5
659.557	1	-4
659.726	1	-3
659.895	1	5
660.065	1	6
660.234	1	-4
660.404	1	7
660.573	1	1
660.743	1	7
660.912	1	-10
661.081	1	-13
661.251	1	-2
661.420	1	6
661.590	1	5
661.759	1	-1
661.929	1	8
662.098	1	6
662.267	1	10
662.437	1	2
662.606	1	0
662.776	1	0
662.945	1	3
663.115	1	14
663.284	1	-5
663.453	1	8
663.623	1	8
663.792	1	-4
663.962	1	-7
664.131	1	-5
664.300	1	-17
664.470	1	-5
664.639	1	-2
664.809	1	7
664.978	1	-6
665.148	1	3
665.317	1	-6
665.486	1	2
665.656	1	-1
665.825	1	-2
665.995	1	-2
666.164	1	2
666.333	1	-11
666.503	1	1
666.672	1	15
666.842	1	-7
667.011	1	-1
667.180	1	3
667.350	1	-7
667.519	1	0
667.689	1	-4
667.858	1	-4
668.027	1	-4
668.197	1	6
668.366	1	-7
668.536	1	-2
668.705	1	-1
668.874	1	-2
669.044	1	2
669.213	1	0
669.382	1	7
669.552	1	6
669.721	1	-8
669.891	1	-10
670.060	1	8
670.229	1	-12
670.399	1	-8
670.568	1	-9
670.738	1	-1
670.907	1	9
671.076	1	-5
671.246	1	0
671.415	1	2
671.584	1	-5
671.754	1	-4
671.923	1	-2
672.093	1	-6
672.262	1	0
672.431	1	2
672.601	1	1
672.770	1	1
672.939	1	-11
673.109	1	-4
673.278	1	5
673.448	1	2
673.617	1	0
673.786	1	10
