325.333	1	3
325.504	1	-1
325.675	1	0
325.846	1	3
326.017	1	-2
326.188	1	-1
326.359	1	0
326.531	1	11
326.702	1	11
326.873	1	-4
327.044	1	12
327.215	1	1
327.386	1	5
327.557	1	10
327.728	1	10
327.899	1	-3
328.070	1	7
328.241	1	10
328.412	1	-11
328.583	1	0
328.754	1	2
328.926	1	9
329.097	1	0
329.268	1	-4
329.439	1	1
329.610	1	11
329.781	1	1
329.952	1	4
330.123	1	6
330.294	1	1
330.465	1	10
330.636	1	15
330.807	1	3
330.978	1	1
331.149	1	2
331.320	1	10
331.492	1	-5
331.663	1	1
331.834	1	-9
332.005	1	4
332.176	1	12
332.347	1	16
332.518	1	15
332.689	1	-6
332.860	1	-2
333.031	1	9
333.202	1	9
333.373	1	9
333.544	1	7
333.715	1	1
333.886	1	-1
334.057	1	-7
334.228	1	2
334.399	1	12
334.570	1	0
334.741	1	1
334.912	1	-7
335.084	1	2
335.255	1	9
335.426	1	-5
335.597	1	10
335.768	1	4
335.939	1	-4
336.110	1	9
336.281	1	8
336.452	1	1
336.623	1	-12
336.794	1	-9
336.965	1	-4
337.136	1	5
337.307	1	2
337.478	1	4
337.649	1	-1
337.820	1	-8
337.991	1	7
338.162	1	4
338.333	1	12
338.504	1	4
338.675	1	12
338.846	1	1
339.017	1	12
339.188	1	10
339.359	1	6
339.530	1	4
339.701	1	-10
339.872	1	3
340.043	1	-3
340.214	1	-3
340.385	1	8
340.556	1	7
340.727	1	6
340.898	1	9
341.069	1	-9
341.240	1	-8
341.411	1	7
341.582	1	6
341.753	1	-4
341.924	1	-6
342.095	1	7
342.266	1	1
342.437	1	-15
342.608	1	8
342.779	1	-1
342.950	1	10
343.121	1	2
343.292	1	8
343.463	1	9
343.634	1	8
343.805	1	-1
343.976	1	-7
344.147	1	0
344.318	1	6
344.489	1	20
344.660	1	13
344.831	1	10
345.002	1	14
345.173	1	7
345.344	1	-9
345.515	1	7
345.686	1	-10
345.857	1	1
346.028	1	-10
346.199	1	11
346.370	1	-5
346.541	1	6
346.712	1	6
346.883	1	7
347.054	1	2
347.225	1	5
347.396	1	0
347.567	1	5
347.738	1	-4
347.909	1	6
348.080	1	11
348.251	1	-5
348.422	1	-5
348.593	1	7
348.764	1	-8
348.935	1	1
349.106	1	16
349.277	1	-4
349.448	1	7
349.619	1	11
349.790	1	4
349.961	1	1
350.132	1	14
350.303	1	-2
350.474	1	3
350.645	1	16
350.816	1	1
350.987	1	8
351.157	1	3
351.328	1	-1
351.499	1	10
351.670	1	-5
351.841	1	-2
352.012	1	6
352.183	1	6
352.354	1	11
352.525	1	8
352.696	1	3
352.867	1	4
353.038	1	2
353.209	1	2
353.380	1	-4
353.551	1	-4
353.722	1	5
353.893	1	8
354.064	1	-3
354.235	1	8
354.406	1	7
354.576	1	-4
354.747	1	5
354.918	1	9
355.089	1	0
355.260	1	8
355.431	1	15
355.602	1	-2
355.773	1	4
355.944	1	6
356.115	1	-2
356.286	1	5
356.457	1	4
356.628	1	-3
356.799	1	5
356.970	1	3
357.141	1	10
357.311	1	5
357.482	1	1
357.653	1	1
357.824	1	9
357.995	1	8
358.166	1	14
358.337	1	-1
358.508	1	-5
358.679	1	-1
358.850	1	4
359.021	1	10
359.192	1	7
359.363	1	-9
359.533	1	-2
359.704	1	1
359.875	1	6
360.046	1	-2
360.217	1	-4
360.388	1	-2
360.559	1	2
360.730	1	1
360.901	1	11
361.072	1	-2
361.243	1	3
361.414	1	3
361.584	1	16
361.755	1	0
361.926	1	-3
362.097	1	4
362.268	1	12
362.439	1	10
362.610	1	2
362.781	1	11
362.952	1	4
363.123	1	-4
363.293	1	7
363.464	1	-1
363.635	1	16
363.806	1	6
363.977	1	2
364.148	1	-1
364.319	1	-1
364.490	1	6
364.661	1	2
364.832	1	3
365.002	1	-4
365.173	1	3
365.344	1	7
365.515	1	16
365.686	1	-3
365.857	1	5
366.028	1	5
366.199	1	16
366.370	1	5
366.540	1	-4
366.711	1	-5
366.882	1	0
367.053	1	-1
367.224	1	-14
367.395	1	8
367.566	1	7
367.737	1	-2
367.908	1	5
368.078	1	11
368.249	1	13
368.420	1	2
368.591	1	2
368.762	1	-2
368.933	1	12
369.104	1	-1
369.274	1	9
369.445	1	13
369.616	1	-1
369.787	1	6
369.958	1	10
370.129	1	2
370.300	1	-1
370.471	1	0
370.641	1	-3
370.812	1	10
370.983	1	7
371.154	1	12
371.325	1	10
371.496	1	-7
371.667	1	0
371.837	1	13
372.008	1	11
372.179	1	6
372.350	1	9
372.521	1	-1
372.692	1	-6
372.863	1	8
373.033	1	12
373.204	1	17
373.375	1	11
373.546	1	5
373.717	1	-2
373.888	1	6
374.059	1	10
374.229	1	12
374.400	1	19
374.571	1	-2
374.742	1	3
374.913	1	6
375.084	1	16
375.254	1	7
375.425	1	6
375.596	1	-4
375.767	1	-8
375.938	1	-5
376.109	1	5
376.279	1	8
376.450	1	0
376.621	1	13
376.792	1	11
376.963	1	-2
377.134	1	2
377.304	1	3
377.475	1	3
377.646	1	2
377.817	1	4
377.988	1	5
378.159	1	9
378.329	1	17
378.500	1	8
378.671	1	-8
378.842	1	-2
379.013	1	3
379.184	1	11
379.354	1	10
379.525	1	-4
379.696	1	9
379.867	1	2
380.038	1	10
380.209	1	4
380.379	1	7
380.550	1	-7
380.721	1	7
380.892	1	23
381.063	1	-6
381.233	1	16
381.404	1	10
381.575	1	11
381.746	1	1
381.917	1	4
382.087	1	-5
382.258	1	18
382.429	1	3
382.600	1	9
382.771	1	1
382.941	1	4
383.112	1	-2
383.283	1	13
383.454	1	7
383.625	1	0
383.795	1	9
383.966	1	6
384.137	1	3
384.308	1	6
384.479	1	22
384.649	1	12
384.820	1	10
384.991	1	-5
385.162	1	4
385.333	1	-1
385.503	1	9
385.674	1	10
385.845	1	8
386.016	1	13
386.187	1	7
386.357	1	2
386.528	1	5
386.699	1	-2
386.870	1	9
387.041	1	10
387.211	1	5
387.382	1	6
387.553	1	20
387.724	1	2
387.894	1	12
388.065	1	15
388.236	1	15
388.407	1	11
388.578	1	9
388.748	1	8
388.919	1	13
389.090	1	8
389.261	1	9
389.431	1	15
389.602	1	-2
389.773	1	-4
389.944	1	9
390.114	1	19
390.285	1	5
390.456	1	6
390.627	1	7
390.798	1	3
390.968	1	1
391.139	1	7
391.310	1	16
391.481	1	13
391.651	1	10
391.822	1	15
391.993	1	10
392.164	1	1
392.334	1	-1
392.505	1	2
392.676	1	5
392.847	1	16
393.017	1	7
393.188	1	-2
393.359	1	4
393.530	1	17
393.700	1	15
393.871	1	7
394.042	1	14
394.213	1	8
394.383	1	14
394.554	1	8
394.725	1	15
394.896	1	9
395.066	1	8
395.237	1	-1
395.408	1	11
395.579	1	12
395.749	1	11
395.920	1	10
396.091	1	11
396.262	1	-2
396.432	1	3
396.603	1	3
396.774	1	6
396.945	1	1
397.115	1	-6
397.286	1	20
397.457	1	8
397.627	1	1
397.798	1	9
397.969	1	11
398.140	1	2
398.310	1	7
398.481	1	12
398.652	1	2
398.823	1	5
398.993	1	18
399.164	1	5
399.335	1	5
399.505	1	12
399.676	1	17
399.847	1	14
400.018	1	8
400.188	1	16
400.359	1	17
400.530	1	7
400.700	1	8
400.871	1	18
401.042	1	7
401.213	1	13
401.383	1	7
401.554	1	18
401.725	1	6
401.895	1	3
402.066	1	19
402.237	1	17
402.408	1	12
402.578	1	8
402.749	1	20
402.920	1	14
403.090	1	2
403.261	1	16
403.432	1	13
403.603	1	9
403.773	1	9
403.944	1	20
404.115	1	-1
404.285	1	20
404.456	1	13
404.627	1	6
404.797	1	14
404.968	1	3
405.139	1	20
405.310	1	15
405.480	1	4
405.651	1	20
405.822	1	28
405.992	1	13
406.163	1	16
406.334	1	11
406.504	1	-2
406.675	1	2
406.846	1	9
407.016	1	10
407.187	1	9
407.358	1	14
407.528	1	24
407.699	1	15
407.870	1	13
408.041	1	-3
408.211	1	4
408.382	1	14
408.553	1	-6
408.723	1	21
408.894	1	10
409.065	1	28
409.235	1	11
409.406	1	10
409.577	1	1
409.747	1	20
409.918	1	3
410.089	1	5
410.259	1	3
410.430	1	11
410.601	1	13
410.771	1	20
410.942	1	-8
411.113	1	16
411.283	1	10
411.454	1	19
411.625	1	2
411.795	1	8
411.966	1	6
412.137	1	8
412.307	1	7
412.478	1	17
412.649	1	16
412.819	1	3
412.990	1	19
413.161	1	14
413.331	1	13
413.502	1	-5
413.672	1	15
413.843	1	15
414.014	1	22
414.184	1	14
414.355	1	4
414.526	1	11
414.696	1	18
414.867	1	16
415.038	1	9
415.208	1	-1
415.379	1	15
415.550	1	10
415.720	1	8
415.891	1	18
416.062	1	14
416.232	1	12
416.403	1	16
416.573	1	1
416.744	1	4
416.915	1	11
417.085	1	3
417.256	1	17
417.427	1	13
417.597	1	5
417.768	1	19
417.939	1	17
418.109	1	-1
418.280	1	12
418.450	1	7
418.621	1	10
418.792	1	1
418.962	1	10
419.133	1	19
419.304	1	11
419.474	1	7
419.645	1	4
419.815	1	4
419.986	1	2
420.157	1	22
420.327	1	2
420.498	1	-1
420.669	1	21
420.839	1	12
421.010	1	11
421.180	1	-3
421.351	1	13
421.522	1	20
421.692	1	11
421.863	1	8
422.033	1	20
422.204	1	4
422.375	1	5
422.545	1	11
422.716	1	6
422.886	1	19
423.057	1	4
423.228	1	16
423.398	1	13
423.569	1	-4
423.740	1	4
423.910	1	16
424.081	1	6
424.251	1	-1
424.422	1	2
424.593	1	4
424.763	1	8
424.934	1	14
425.104	1	12
425.275	1	11
425.445	1	23
425.616	1	17
425.787	1	14
425.957	1	6
426.128	1	17
426.298	1	19
426.469	1	5
426.640	1	7
426.810	1	9
426.981	1	9
427.151	1	14
427.322	1	8
427.493	1	9
427.663	1	8
427.834	1	3
428.004	1	14
428.175	1	17
428.345	1	9
428.516	1	9
428.687	1	5
428.857	1	0
429.028	1	9
429.198	1	15
429.369	1	8
429.540	1	11
429.710	1	15
429.881	1	10
430.051	1	12
430.222	1	10
430.392	1	15
430.563	1	20
430.734	1	14
430.904	1	19
431.075	1	-7
431.245	1	11
431.416	1	-2
431.586	1	11
431.757	1	12
431.927	1	0
432.098	1	12
432.269	1	20
432.439	1	13
432.610	1	9
432.780	1	11
432.951	1	10
433.121	1	15
433.292	1	10
433.462	1	11
433.633	1	19
433.804	1	1
433.974	1	15
434.145	1	9
434.315	1	14
434.486	1	-2
434.656	1	17
434.827	1	15
434.997	1	26
435.168	1	15
435.339	1	12
435.509	1	14
435.680	1	12
435.850	1	6
436.021	1	13
436.191	1	10
436.362	1	19
436.532	1	8
436.703	1	20
436.873	1	8
437.044	1	3
437.214	1	8
437.385	1	17
437.556	1	8
437.726	1	6
437.897	1	4
438.067	1	7
438.238	1	13
438.408	1	16
438.579	1	9
438.749	1	0
438.920	1	8
439.090	1	8
439.261	1	11
439.431	1	12
439.602	1	10
439.772	1	17
439.943	1	5
440.113	1	14
440.284	1	18
440.455	1	25
440.625	1	9
440.796	1	6
440.966	1	1
441.137	1	7
441.307	1	-6
441.478	1	13
441.648	1	6
441.819	1	4
441.989	1	5
442.160	1	27
442.330	1	11
442.501	1	4
442.671	1	10
442.842	1	19
443.012	1	9
443.183	1	5
443.353	1	18
443.524	1	13
443.694	1	0
443.865	1	14
444.035	1	3
444.206	1	9
444.376	1	8
444.547	1	14
444.717	1	21
444.888	1	6
445.058	1	13
445.229	1	15
445.399	1	7
445.570	1	12
445.740	1	7
445.911	1	14
446.081	1	21
446.252	1	2
446.422	1	12
446.593	1	15
446.763	1	15
446.934	1	13
447.104	1	7
447.275	1	16
447.445	1	10
447.616	1	10
447.786	1	5
447.957	1	7
448.127	1	16
448.298	1	16
448.468	1	10
448.639	1	5
448.809	1	12
448.979	1	6
449.150	1	20
449.320	1	17
449.491	1	16
449.661	1	13
449.832	1	13
450.002	1	14
450.173	1	9
450.343	1	6
450.514	1	11
450.684	1	4
450.855	1	11
451.025	1	11
451.196	1	18
451.366	1	5
451.537	1	7
451.707	1	13
451.878	1	11
452.048	1	12
452.218	1	5
452.389	1	18
452.559	1	11
452.730	1	16
452.900	1	11
453.071	1	7
453.241	1	15
453.412	1	8
453.582	1	-2
453.753	1	16
453.923	1	11
454.093	1	21
454.264	1	7
454.434	1	5
454.605	1	6
454.775	1	4
454.946	1	7
455.116	1	11
455.287	1	18
455.457	1	8
455.628	1	10
455.798	1	7
455.968	1	13
456.139	1	5
456.309	1	11
456.480	1	6
456.650	1	14
456.821	1	20
456.991	1	14
457.161	1	14
457.332	1	7
457.502	1	20
457.673	1	11
457.843	1	13
458.014	1	15
458.184	1	5
458.355	1	5
458.525	1	15
458.695	1	11
458.866	1	19
459.036	1	13
459.207	1	5
459.377	1	16
459.548	1	4
459.718	1	12
459.888	1	19
460.059	1	19
460.229	1	13
460.400	1	5
460.570	1	8
460.740	1	8
460.911	1	6
461.081	1	11
461.252	1	8
461.422	1	17
461.593	1	14
461.763	1	16
461.933	1	13
462.104	1	18
462.274	1	2
462.445	1	6
462.615	1	14
462.785	1	-3
462.956	1	4
463.126	1	7
463.297	1	5
463.467	1	1
463.638	1	3
463.808	1	14
463.978	1	17
464.149	1	0
464.319	1	10
464.490	1	11
464.660	1	10
464.830	1	4
465.001	1	11
465.171	1	5
465.342	1	5
465.512	1	2
465.682	1	5
465.853	1	-8
466.023	1	6
466.194	1	12
466.364	1	14
466.534	1	5
466.705	1	-7
466.875	1	5
467.045	1	4
467.216	1	12
467.386	1	21
467.557	1	8
467.727	1	11
467.897	1	9
468.068	1	-3
468.238	1	17
468.409	1	1
468.579	1	12
468.749	1	1
468.920	1	7
469.090	1	5
469.260	1	10
469.431	1	13
469.601	1	6
469.772	1	7
469.942	1	10
470.112	1	7
470.283	1	17
470.453	1	19
470.623	1	14
470.794	1	9
470.964	1	9
471.135	1	5
471.305	1	10
471.475	1	9
471.646	1	16
471.816	1	4
471.986	1	9
472.157	1	17
472.327	1	6
472.497	1	10
472.668	1	4
472.838	1	13
473.009	1	11
473.179	1	2
473.349	1	5
473.520	1	7
473.690	1	16
473.860	1	11
474.031	1	12
474.201	1	4
474.371	1	4
474.542	1	12
474.712	1	5
474.882	1	8
475.053	1	15
475.223	1	3
475.394	1	0
475.564	1	7
475.734	1	8
475.905	1	18
476.075	1	-2
476.245	1	18
476.416	1	0
476.586	1	9
476.756	1	10
476.927	1	-1
477.097	1	2
477.267	1	13
477.438	1	13
477.608	1	1
477.778	1	4
477.949	1	10
478.119	1	14
478.289	1	-3
478.460	1	-12
478.630	1	17
478.800	1	11
478.971	1	6
479.141	1	9
479.311	1	5
479.482	1	12
479.652	1	16
479.822	1	15
479.993	1	8
480.163	1	2
480.333	1	10
480.504	1	-5
480.674	1	16
480.844	1	1
481.015	1	-2
481.185	1	2
481.355	1	6
481.525	1	3
481.696	1	4
481.866	1	10
482.036	1	10
482.207	1	7
482.377	1	10
482.547	1	1
482.718	1	-1
482.888	1	11
483.058	1	8
483.229	1	13
483.399	1	8
483.569	1	2
483.740	1	9
483.910	1	-4
484.080	1	-3
484.250	1	-9
484.421	1	12
484.591	1	3
484.761	1	12
484.932	1	7
485.102	1	10
485.272	1	-2
485.443	1	8
485.613	1	13
485.783	1	15
485.953	1	7
486.124	1	12
486.294	1	7
486.464	1	0
486.635	1	16
486.805	1	-2
486.975	1	-2
487.146	1	5
487.316	1	6
487.486	1	5
487.656	1	-6
487.827	1	5
487.997	1	-4
488.167	1	20
488.338	1	0
488.508	1	12
488.678	1	6
488.848	1	0
489.019	1	-1
489.189	1	7
489.359	1	11
489.529	1	13
489.700	1	14
489.870	1	0
490.040	1	3
490.211	1	12
490.381	1	8
490.551	1	-1
490.721	1	8
490.892	1	9
491.062	1	10
491.232	1	11
491.402	1	4
491.573	1	-4
491.743	1	9
491.913	1	1
492.084	1	12
492.254	1	4
492.424	1	10
492.594	1	10
492.765	1	13
492.935	1	3
493.105	1	18
493.275	1	6
493.446	1	8
493.616	1	7
493.786	1	4
493.956	1	-1
494.127	1	14
494.297	1	5
494.467	1	14
494.637	1	12
494.808	1	14
494.978	1	-1
495.148	1	5
495.318	1	7
495.489	1	-5
495.659	1	-3
495.829	1	8
495.999	1	4
496.170	1	-4
496.340	1	11
496.510	1	6
496.680	1	6
496.851	1	-1
497.021	1	-3
497.191	1	5
497.361	1	7
497.532	1	-6
497.702	1	12
497.872	1	16
498.042	1	18
498.213	1	10
498.383	1	8
498.553	1	7
498.723	1	6
498.894	1	-2
499.064	1	1
499.234	1	7
499.404	1	1
499.574	1	9
499.745	1	-1
499.915	1	9
500.085	1	1
500.255	1	6
500.426	1	5
500.596	1	-5
500.766	1	-5
500.936	1	7
501.106	1	0
501.277	1	5
501.447	1	2
501.617	1	10
501.787	1	7
501.958	1	7
502.128	1	-11
502.298	1	1
502.468	1	10
502.638	1	0
502.809	1	15
502.979	1	7
503.149	1	1
503.319	1	10
503.489	1	-4
503.660	1	3
503.830	1	3
504.000	1	2
504.170	1	-2
504.340	1	-4
504.511	1	13
504.681	1	-7
504.851	1	10
505.021	1	16
505.192	1	-4
505.362	1	3
505.532	1	5
505.702	1	4
505.872	1	7
506.043	1	7
506.213	1	5
506.383	1	3
506.553	1	2
506.723	1	2
506.893	1	-6
507.064	1	-1
507.234	1	-3
507.404	1	10
507.574	1	5
507.744	1	9
507.915	1	5
508.085	1	17
508.255	1	4
508.425	1	-3
508.595	1	-1
508.766	1	2
508.936	1	8
509.106	1	5
509.276	1	7
509.446	1	8
509.616	1	3
509.787	1	6
509.957	1	-4
510.127	1	4
510.297	1	0
510.467	1	-3
510.638	1	4
510.808	1	0
510.978	1	5
511.148	1	20
511.318	1	6
511.488	1	14
511.659	1	2
511.829	1	8
511.999	1	-1
512.169	1	3
512.339	1	7
512.509	1	5
512.680	1	-3
512.850	1	4
513.020	1	7
513.190	1	7
513.360	1	2
513.530	1	1
513.700	1	4
513.871	1	19
514.041	1	13
514.211	1	11
514.381	1	11
514.551	1	-3
514.721	1	10
514.892	1	0
515.062	1	-3
515.232	1	-1
515.402	1	8
515.572	1	9
515.742	1	4
515.912	1	-2
516.083	1	3
516.253	1	11
516.423	1	6
516.593	1	10
516.763	1	6
516.933	1	-13
517.104	1	0
517.274	1	-3
517.444	1	7
517.614	1	-6
517.784	1	12
517.954	1	4
518.124	1	-8
518.294	1	2
518.465	1	4
518.635	1	-4
518.805	1	12
518.975	1	1
519.145	1	2
519.315	1	-4
519.485	1	-10
519.656	1	4
519.826	1	0
519.996	1	-2
520.166	1	7
520.336	1	3
520.506	1	-9
520.676	1	8
520.846	1	1
521.017	1	0
521.187	1	12
521.357	1	1
521.527	1	9
521.697	1	5
521.867	1	-5
522.037	1	-7
522.207	1	-3
522.377	1	-1
522.548	1	11
522.718	1	3
522.888	1	11
523.058	1	7
523.228	1	10
523.398	1	10
523.568	1	-8
523.738	1	8
523.909	1	-6
524.079	1	7
524.249	1	-1
524.419	1	7
524.589	1	0
524.759	1	9
524.929	1	2
525.099	1	-4
525.269	1	12
525.439	1	-5
525.610	1	3
525.780	1	-1
525.950	1	-6
526.120	1	-8
526.290	1	13
526.460	1	2
526.630	1	1
526.800	1	13
526.970	1	5
527.140	1	-3
527.311	1	-1
527.481	1	5
527.651	1	-2
527.821	1	1
527.991	1	0
528.161	1	8
528.331	1	8
528.501	1	11
528.671	1	3
528.841	1	2
529.011	1	-5
529.181	1	1
529.352	1	4
529.522	1	4
529.692	1	-4
529.862	1	5
530.032	1	-1
530.202	1	11
530.372	1	3
530.542	1	-6
530.712	1	-6
530.882	1	-5
531.052	1	19
531.222	1	-10
531.392	1	9
531.563	1	-1
531.733	1	3
531.903	1	0
532.073	1	-2
532.243	1	-4
532.413	1	10
532.583	1	4
532.753	1	9
532.923	1	7
533.093	1	7
533.263	1	-10
533.433	1	11
533.603	1	12
533.773	1	4
533.943	1	0
534.113	1	8
534.284	1	-1
534.454	1	-5
534.624	1	3
534.794	1	-3
534.964	1	1
535.134	1	11
535.304	1	8
535.474	1	-7
535.644	1	-2
535.814	1	2
535.984	1	9
536.154	1	6
536.324	1	6
536.494	1	6
536.664	1	4
536.834	1	5
537.004	1	2
537.174	1	6
537.344	1	4
537.514	1	4
537.685	1	-7
537.855	1	4
538.025	1	-2
538.195	1	5
538.365	1	-7
538.535	1	-5
538.705	1	12
538.875	1	3
539.045	1	-1
539.215	1	-17
539.385	1	4
539.555	1	-2
539.725	1	2
539.895	1	13
540.065	1	-9
540.235	1	14
540.405	1	0
540.575	1	-3
540.745	1	-7
540.915	1	2
541.085	1	-9
541.255	1	-11
541.425	1	3
541.595	1	18
541.765	1	15
541.935	1	-1
542.105	1	1
542.275	1	12
542.445	1	-9
542.615	1	12
542.785	1	-6
542.955	1	-9
543.125	1	-11
543.295	1	0
543.465	1	4
543.635	1	7
543.805	1	14
543.975	1	2
544.145	1	-3
544.315	1	-7
544.485	1	-6
544.655	1	15
544.825	1	3
544.995	1	2
545.165	1	0
545.335	1	-5
545.505	1	14
545.675	1	-4
545.845	1	6
546.015	1	12
546.185	1	5
546.355	1	5
546.525	1	4
546.695	1	6
546.865	1	13
547.035	1	1
547.205	1	1
547.375	1	-5
547.545	1	15
547.715	1	6
547.885	1	10
548.055	1	-14
548.225	1	6
548.395	1	-2
548.565	1	6
548.735	1	4
548.905	1	-11
549.075	1	7
549.245	1	6
549.415	1	-12
549.585	1	5
549.755	1	0
549.925	1	6
550.095	1	-2
550.265	1	7
550.435	1	-11
550.605	1	1
550.775	1	-3
550.945	1	11
551.115	1	-1
551.285	1	0
551.455	1	3
551.625	1	-1
551.795	1	-4
551.965	1	5
552.135	1	-1
552.305	1	1
552.475	1	0
552.645	1	2
552.815	1	4
552.985	1	1
553.155	1	-2
553.325	1	-1
553.495	1	10
553.665	1	9
553.835	1	-3
554.004	1	-2
554.174	1	1
554.344	1	6
554.514	1	0
554.684	1	-8
554.854	1	5
555.024	1	1
555.194	1	1
555.364	1	9
555.534	1	3
555.704	1	9
555.874	1	-6
556.044	1	13
556.214	1	10
556.384	1	10
556.554	1	12
556.724	1	6
556.894	1	-4
557.064	1	2
557.234	1	-5
557.404	1	-6
557.573	1	-2
557.743	1	6
557.913	1	-2
558.083	1	3
558.253	1	-6
558.423	1	-6
558.593	1	-2
558.763	1	6
558.933	1	-3
559.103	1	10
559.273	1	5
559.443	1	10
559.613	1	-4
559.783	1	8
559.953	1	14
560.122	1	1
560.292	1	4
560.462	1	-4
560.632	1	-2
560.802	1	-1
560.972	1	3
561.142	1	4
561.312	1	3
561.482	1	13
561.652	1	-3
561.822	1	-4
561.992	1	-8
562.162	1	12
562.331	1	0
562.501	1	-3
562.671	1	10
562.841	1	-4
563.011	1	-12
563.181	1	7
563.351	1	8
563.521	1	-2
563.691	1	5
563.861	1	-9
564.031	1	-4
564.201	1	1
564.370	1	3
564.540	1	2
564.710	1	-2
564.880	1	-5
565.050	1	2
565.220	1	3
565.390	1	-3
565.560	1	1
565.730	1	-3
565.900	1	-11
566.069	1	0
566.239	1	3
566.409	1	-3
566.579	1	-7
566.749	1	6
566.919	1	1
567.089	1	8
567.259	1	1
567.429	1	4
567.599	1	5
567.768	1	-1
567.938	1	-3
568.108	1	8
568.278	1	7
568.448	1	5
568.618	1	3
568.788	1	-16
568.958	1	-13
569.128	1	-15
569.297	1	-10
569.467	1	0
569.637	1	3
569.807	1	-4
569.977	1	-2
570.147	1	0
570.317	1	2
570.487	1	8
570.656	1	2
570.826	1	-6
570.996	1	5
571.166	1	0
571.336	1	-2
571.506	1	-2
571.676	1	-2
571.846	1	-4
572.015	1	8
572.185	1	2
572.355	1	4
572.525	1	-5
572.695	1	9
572.865	1	7
573.035	1	0
573.205	1	-8
573.374	1	9
573.544	1	-2
573.714	1	-2
573.884	1	5
574.054	1	1
574.224	1	-3
574.394	1	-1
574.563	1	7
574.733	1	6
574.903	1	2
575.073	1	-3
575.243	1	4
575.413	1	10
575.583	1	5
575.752	1	3
575.922	1	6
576.092	1	-2
576.262	1	6
576.432	1	18
576.602	1	5
576.772	1	-6
576.941	1	0
577.111	1	5
577.281	1	18
577.451	1	4
577.621	1	1
577.791	1	6
577.960	1	-8
578.130	1	-3
578.300	1	-1
578.470	1	5
578.640	1	-1
578.810	1	8
578.979	1	3
579.149	1	1
579.319	1	0
579.489	1	0
579.659	1	1
579.829	1	2
579.998	1	0
580.168	1	1
580.338	1	17
580.508	1	-7
580.678	1	9
580.848	1	3
581.017	1	-1
581.187	1	0
581.357	1	1
581.527	1	-5
581.697	1	-6
581.867	1	6
582.036	1	7
582.206	1	6
582.376	1	-4
582.546	1	18
582.716	1	2
582.885	1	2
583.055	1	-8
583.225	1	-16
583.395	1	-3
583.565	1	-11
583.735	1	5
583.904	1	2
584.074	1	-5
584.244	1	7
584.414	1	-1
584.584	1	4
584.753	1	5
584.923	1	7
585.093	1	-1
585.263	1	0
585.433	1	18
585.602	1	-2
585.772	1	3
585.942	1	-7
586.112	1	4
586.282	1	12
586.451	1	-3
586.621	1	-7
586.791	1	-7
586.961	1	8
587.131	1	9
587.300	1	9
587.470	1	-5
587.640	1	-4
587.810	1	-4
587.980	1	3
588.149	1	10
588.319	1	4
588.489	1	-4
588.659	1	4
588.829	1	-1
588.998	1	-6
589.168	1	8
589.338	1	-5
589.508	1	-2
589.677	1	4
589.847	1	-4
590.017	1	1
590.187	1	0
590.357	1	-1
590.526	1	11
590.696	1	1
590.866	1	-4
591.036	1	-2
591.205	1	12
591.375	1	6
591.545	1	4
591.715	1	-9
591.885	1	0
592.054	1	2
592.224	1	-4
592.394	1	-3
592.564	1	3
592.733	1	3
592.903	1	-1
593.073	1	-5
593.243	1	2
593.412	1	-2
593.582	1	-5
593.752	1	4
593.922	1	6
594.091	1	-12
594.261	1	-1
594.431	1	6
594.601	1	1
594.771	1	7
594.940	1	3
595.110	1	7
595.280	1	7
595.450	1	3
595.619	1	-1
595.789	1	6
595.959	1	0
596.129	1	3
596.298	1	6
596.468	1	2
596.638	1	6
596.808	1	2
596.977	1	4
597.147	1	4
597.317	1	0
597.487	1	6
597.656	1	5
597.826	1	6
597.996	1	1
598.166	1	9
598.335	1	-5
598.505	1	1
598.675	1	-1
598.844	1	5
599.014	1	-4
599.184	1	-5
599.354	1	-10
599.523	1	3
599.693	1	5
599.863	1	9
600.033	1	3
600.202	1	7
600.372	1	-10
600.542	1	4
600.712	1	4
600.881	1	3
601.051	1	-1
601.221	1	5
601.390	1	12
601.560	1	0
601.730	1	2
601.900	1	11
602.069	1	-7
602.239	1	2
602.409	1	6
602.578	1	3
602.748	1	-5
602.918	1	9
603.088	1	5
603.257	1	5
603.427	1	14
603.597	1	-1
603.767	1	-1
603.936	1	15
604.106	1	-4
604.276	1	8
604.445	1	-4
604.615	1	-6
604.785	1	6
604.954	1	7
605.124	1	2
605.294	1	7
605.464	1	-4
605.633	1	13
605.803	1	3
605.973	1	4
606.142	1	6
606.312	1	16
606.482	1	2
606.652	1	10
606.821	1	0
606.991	1	-1
607.161	1	8
607.330	1	0
607.500	1	6
607.670	1	6
607.839	1	0
608.009	1	3
608.179	1	-1
608.348	1	-6
608.518	1	-8
608.688	1	12
608.858	1	0
609.027	1	-6
609.197	1	6
609.367	1	5
609.536	1	9
609.706	1	3
609.876	1	-9
610.045	1	15
610.215	1	0
610.385	1	-9
610.554	1	-7
610.724	1	0
610.894	1	3
611.063	1	0
611.233	1	-1
611.403	1	-3
611.572	1	4
611.742	1	-8
611.912	1	2
612.081	1	-3
612.251	1	10
612.421	1	8
612.590	1	-5
612.760	1	12
612.930	1	2
613.099	1	3
613.269	1	-15
613.439	1	3
613.608	1	3
613.778	1	-4
613.948	1	6
614.117	1	8
614.287	1	2
614.457	1	0
614.626	1	12
614.796	1	10
614.966	1	5
615.135	1	10
615.305	1	5
615.475	1	-8
615.644	1	0
615.814	1	11
615.984	1	6
616.153	1	-1
616.323	1	12
616.493	1	9
616.662	1	1
616.832	1	4
617.002	1	-3
617.171	1	13
617.341	1	4
617.511	1	1
617.680	1	1
617.850	1	-2
618.019	1	4
618.189	1	-5
618.359	1	6
618.528	1	6
618.698	1	3
618.868	1	-11
619.037	1	6
619.207	1	5
619.377	1	-3
619.546	1	-9
619.716	1	-10
619.885	1	-4
620.055	1	9
620.225	1	5
620.394	1	5
620.564	1	6
620.734	1	6
620.903	1	5
621.073	1	7
621.242	1	-1
621.412	1	-7
621.582	1	-9
621.751	1	-3
621.921	1	11
622.091	1	-5
622.260	1	1
622.430	1	11
622.599	1	14
622.769	1	-4
622.939	1	-2
623.108	1	6
623.278	1	14
623.448	1	1
623.617	1	-4
623.787	1	16
623.956	1	5
624.126	1	5
624.296	1	1
624.465	1	1
624.635	1	11
624.804	1	4
624.974	1	-7
625.144	1	13
625.313	1	6
625.483	1	4
625.652	1	24
625.822	1	3
625.992	1	11
626.161	1	0
626.331	1	2
626.501	1	4
626.670	1	10
626.840	1	-6
627.009	1	7
627.179	1	-7
627.348	1	8
627.518	1	-3
627.688	1	11
627.857	1	4
628.027	1	-2
628.196	1	-4
628.366	1	-2
628.536	1	6
628.705	1	2
628.875	1	11
629.044	1	9
629.214	1	7
629.384	1	-2
629.553	1	3
629.723	1	-7
629.892	1	2
630.062	1	-14
630.232	1	5
630.401	1	7
630.571	1	11
630.740	1	1
630.910	1	2
631.079	1	5
631.249	1	0
631.419	1	18
631.588	1	-2
631.758	1	3
631.927	1	2
632.097	1	0
632.266	1	-4
632.436	1	7
632.606	1	2
632.775	1	13
632.945	1	-11
633.114	1	-4
633.284	1	2
633.453	1	10
633.623	1	5
633.793	1	8
633.962	1	0
634.132	1	-7
634.301	1	-6
634.471	1	-2
634.640	1	4
634.810	1	4
634.979	1	4
635.149	1	3
635.319	1	6
635.488	1	-8
635.658	1	13
635.827	1	6
635.997	1	-3
636.166	1	11
636.336	1	-2
636.505	1	4
636.675	1	-4
636.845	1	0
637.014	1	-2
637.184	1	10
637.353	1	6
637.523	1	10
637.692	1	2
637.862	1	-2
638.031	1	-6
638.201	1	0
638.370	1	12
638.540	1	5
638.710	1	7
638.879	1	15
639.049	1	-6
639.218	1	11
639.388	1	7
639.557	1	11
639.727	1	11
639.896	1	7
640.066	1	7
640.235	1	7
640.405	1	6
640.574	1	3
640.744	1	-3
640.914	1	-2
641.083	1	8
641.253	1	1
641.422	1	8
641.592	1	-8
641.761	1	2
641.931	1	4
642.100	1	1
642.270	1	-4
642.439	1	7
642.609	1	3
642.778	1	0
642.948	1	9
643.117	1	0
643.287	1	-5
643.456	1	3
643.626	1	0
643.795	1	5
643.965	1	7
644.134	1	12
644.304	1	8
644.473	1	-9
644.643	1	-2
644.812	1	4
644.982	1	-5
645.151	1	4
645.321	1	2
645.490	1	6
645.660	1	3
645.829	1	-7
645.999	1	9
646.168	1	5
646.338	1	3
646.507	1	5
646.677	1	3
646.846	1	1
647.016	1	2
647.185	1	3
647.355	1	1
647.524	1	0
647.694	1	4
647.863	1	5
648.033	1	3
648.202	1	2
648.372	1	-11
648.541	1	-3
648.711	1	1
648.880	1	2
649.050	1	7
649.219	1	8
649.389	1	4
649.558	1	7
649.728	1	5
649.897	1	4
650.067	1	9
650.236	1	-3
650.406	1	5
650.575	1	4
650.745	1	5
650.914	1	6
651.084	1	2
651.253	1	0
651.423	1	-1
651.592	1	6
651.762	1	4
651.931	1	9
652.101	1	4
652.270	1	3
652.440	1	6
652.609	1	2
652.778	1	13
652.948	1	8
653.117	1	5
653.287	1	-7
653.456	1	-2
653.626	1	13
653.795	1	-9
653.965	1	-6
654.134	1	-7
654.304	1	10
654.473	1	-1
654.643	1	2
654.812	1	10
654.982	1	-2
655.151	1	2
655.320	1	12
655.490	1	-8
655.659	1	10
655.829	1	4
655.998	1	3
656.168	1	-5
656.337	1	-3
656.507	1	-5
656.676	1	2
656.846	1	11
657.015	1	3
657.184	1	-3
657.354	1	7
657.523	1	-2
657.693	1	-3
657.862	1	-5
658.032	1	3
658.201	1	2
658.371	1	1
658.540	1	-3
658.709	1	2
658.879	1	8
659.048	1	1
659.218	1	-2
659.387	1	3
659.557	1	3
659.726	1	2
659.895	1	5
660.065	1	8
660.234	1	-7
660.404	1	5
660.573	1	4
660.743	1	-5
660.912	1	-15
661.081	1	-5
661.251	1	9
661.420	1	3
661.590	1	-3
661.759	1	2
661.929	1	5
662.098	1	9
662.267	1	8
662.437	1	14
662.606	1	3
662.776	1	-7
662.945	1	7
663.115	1	3
663.284	1	3
663.453	1	6
663.623	1	12
663.792	1	0
663.962	1	2
664.131	1	4
664.300	1	-12
664.470	1	6
664.639	1	4
664.809	1	7
664.978	1	8
665.148	1	-8
665.317	1	-3
665.486	1	1
665.656	1	-1
665.825	1	17
665.995	1	5
666.164	1	8
666.333	1	3
666.503	1	-1
666.672	1	3
666.842	1	0
667.011	1	2
667.180	1	2
667.350	1	5
667.519	1	-4
667.689	1	15
667.858	1	-8
668.027	1	3
668.197	1	14
668.366	1	-2
668.536	1	-9
668.705	1	3
668.874	1	8
669.044	1	5
669.213	1	8
669.382	1	6
669.552	1	6
669.721	1	-2
669.891	1	1
670.060	1	4
670.229	1	10
670.399	1	-4
670.568	1	-8
670.738	1	5
670.907	1	8
671.076	1	-5
671.246	1	-4
671.415	1	9
671.584	1	-2
671.754	1	-7
671.923	1	12
672.093	1	7
672.262	1	-8
672.431	1	8
672.601	1	8
672.770	1	-6
672.939	1	-6
673.109	1	5
673.278	1	1
673.448	1	1
673.617	1	-1
673.786	1	10
