325.333	1	4
325.504	1	10
325.675	1	-4
325.846	1	-2
326.017	1	-2
326.188	1	4
326.359	1	6
326.531	1	10
326.702	1	9
326.873	1	2
327.044	1	7
327.215	1	-10
327.386	1	16
327.557	1	11
327.728	1	12
327.899	1	-5
328.070	1	16
328.241	1	4
328.412	1	-2
328.583	1	8
328.754	1	-2
328.926	1	12
329.097	1	-2
329.268	1	4
329.439	1	-3
329.610	1	-2
329.781	1	0
329.952	1	4
330.123	1	5
330.294	1	11
330.465	1	1
330.636	1	7
330.807	1	6
330.978	1	3
331.149	1	2
331.320	1	10
331.492	1	-1
331.663	1	-2
331.834	1	-5
332.005	1	6
332.176	1	12
332.347	1	15
332.518	1	8
332.689	1	-3
332.860	1	9
333.031	1	6
333.202	1	3
333.373	1	2
333.544	1	4
333.715	1	15
333.886	1	1
334.057	1	0
334.228	1	5
334.399	1	6
334.570	1	-2
334.741	1	0
334.912	1	-4
335.084	1	0
335.255	1	10
335.426	1	7
335.597	1	4
335.768	1	-1
335.939	1	3
336.110	1	9
336.281	1	1
336.452	1	-3
336.623	1	4
336.794	1	0
336.965	1	4
337.136	1	9
337.307	1	3
337.478	1	1
337.649	1	-4
337.820	1	-5
337.991	1	14
338.162	1	11
338.333	1	8
338.504	1	4
338.675	1	8
338.846	1	13
339.017	1	12
339.188	1	15
339.359	1	4
339.530	1	11
339.701	1	-8
339.872	1	12
340.043	1	3
340.214	1	8
340.385	1	13
340.556	1	9
340.727	1	8
340.898	1	5
341.069	1	2
341.240	1	4
341.411	1	22
341.582	1	8
341.753	1	-7
341.924	1	11
342.095	1	7
342.266	1	-5
342.437	1	-7
342.608	1	15
342.779	1	8
342.950	1	11
343.121	1	6
343.292	1	2
343.463	1	3
343.634	1	7
343.805	1	14
343.976	1	-3
344.147	1	7
344.318	1	6
344.489	1	9
344.660	1	15
344.831	1	8
345.002	1	10
345.173	1	13
345.344	1	-5
345.515	1	10
345.686	1	-2
345.857	1	12
346.028	1	-2
346.199	1	13
346.370	1	1
346.541	1	10
346.712	1	3
346.883	1	18
347.054	1	1
347.225	1	-5
347.396	1	0
347.567	1	4
347.738	1	9
347.909	1	13
348.080	1	10
348.251	1	0
348.422	1	-6
348.593	1	13
348.764	1	9
348.935	1	-2
349.106	1	8
349.277	1	6
349.448	1	6
349.619	1	17
349.790	1	11
349.961	1	9
350.132	1	7
350.303	1	2
350.474	1	5
350.645	1	8
350.816	1	9
350.987	1	18
351.157	1	12
351.328	1	4
351.499	1	15
351.670	1	0
351.841	1	-2
352.012	1	8
352.183	1	5
352.354	1	8
352.525	1	8
352.696	1	10
352.867	1	5
353.038	1	0
353.209	1	3
353.380	1	8
353.551	1	6
353.722	1	7
353.893	1	4
354.064	1	-9
354.235	1	11
354.406	1	14
354.576	1	-1
354.747	1	18
354.918	1	16
355.089	1	8
355.260	1	15
355.431	1	9
355.602	1	3
355.773	1	12
355.944	1	4
356.115	1	2
356.286	1	3
356.457	1	10
356.628	1	-2
356.799	1	7
356.970	1	4
357.141	1	10
357.311	1	8
357.482	1	-1
357.653	1	12
357.824	1	6
357.995	1	15
358.166	1	6
358.337	1	-8
358.508	1	-5
358.679	1	7
358.850	1	2
359.021	1	5
359.192	1	8
359.363	1	-2
359.533	1	3
359.704	1	15
359.875	1	0
360.046	1	0
360.217	1	-2
360.388	1	-4
360.559	1	15
360.730	1	8
360.901	1	3
361.072	1	11
361.243	1	5
361.414	1	12
361.584	1	17
361.755	1	13
361.926	1	14
362.097	1	-7
362.268	1	16
362.439	1	2
362.610	1	4
362.781	1	12
362.952	1	0
363.123	1	6
363.293	1	1
363.464	1	13
363.635	1	12
363.806	1	0
363.977	1	3
364.148	1	11
364.319	1	2
364.490	1	13
364.661	1	8
364.832	1	17
365.002	1	5
365.173	1	2
365.344	1	12
365.515	1	9
365.686	1	-3
365.857	1	1
366.028	1	-2
366.199	1	16
366.370	1	9
366.540	1	2
366.711	1	14
366.882	1	3
367.053	1	6
367.224	1	-4
367.395	1	24
367.566	1	10
367.737	1	2
367.908	1	-4
368.078	1	-1
368.249	1	6
368.420	1	3
368.591	1	12
368.762	1	-5
368.933	1	14
369.104	1	0
369.274	1	16
369.445	1	16
369.616	1	3
369.787	1	2
369.958	1	13
370.129	1	7
370.300	1	13
370.471	1	9
370.641	1	-3
370.812	1	19
370.983	1	2
371.154	1	23
371.325	1	4
371.496	1	1
371.667	1	6
371.837	1	4
372.008	1	19
372.179	1	11
372.350	1	17
372.521	1	2
372.692	1	6
372.863	1	8
373.033	1	16
373.204	1	10
373.375	1	7
373.546	1	11
373.717	1	6
373.888	1	13
374.059	1	16
374.229	1	5
374.400	1	18
374.571	1	8
374.742	1	8
374.913	1	10
375.084	1	16
375.254	1	10
375.425	1	11
375.596	1	5
375.767	1	9
375.938	1	8
376.109	1	4
376.279	1	7
376.450	1	6
376.621	1	20
376.792	1	21
376.963	1	6
377.134	1	5
377.304	1	16
377.475	1	8
377.646	1	4
377.817	1	-4
377.988	1	6
378.159	1	17
378.329	1	11
378.500	1	11
378.671	1	-2
378.842	1	5
379.013	1	15
379.184	1	11
379.354	1	19
379.525	1	0
379.696	1	21
379.867	1	-7
380.038	1	12
380.209	1	10
380.379	1	10
380.550	1	9
380.721	1	3
380.892	1	12
381.063	1	16
381.233	1	11
381.404	1	7
381.575	1	10
381.746	1	22
381.917	1	8
382.087	1	3
382.258	1	12
382.429	1	7
382.600	1	16
382.771	1	4
382.941	1	10
383.112	1	8
383.283	1	15
383.454	1	8
383.625	1	13
383.795	1	7
383.966	1	11
384.137	1	5
384.308	1	15
384.479	1	14
384.649	1	15
384.820	1	13
384.991	1	-1
385.162	1	14
385.333	1	13
385.503	1	13
385.674	1	15
385.845	1	3
386.016	1	19
386.187	1	7
386.357	1	1
386.528	1	-3
386.699	1	6
386.870	1	8
387.041	1	12
387.211	1	-2
387.382	1	8
387.553	1	6
387.724	1	3
387.894	1	12
388.065	1	20
388.236	1	13
388.407	1	18
388.578	1	12
388.748	1	13
388.919	1	27
389.090	1	13
389.261	1	15
389.431	1	17
389.602	1	4
389.773	1	0
389.944	1	9
390.114	1	25
390.285	1	13
390.456	1	13
390.627	1	14
390.798	1	3
390.968	1	10
391.139	1	0
391.310	1	23
391.481	1	16
391.651	1	15
391.822	1	16
391.993	1	9
392.164	1	2
392.334	1	-4
392.505	1	11
392.676	1	11
392.847	1	19
393.017	1	16
393.188	1	3
393.359	1	4
393.530	1	9
393.700	1	21
393.871	1	16
394.042	1	24
394.213	1	22
394.383	1	17
394.554	1	18
394.725	1	19
394.896	1	12
395.066	1	13
395.237	1	8
395.408	1	16
395.579	1	13
395.749	1	6
395.920	1	21
396.091	1	19
396.262	1	3
396.432	1	6
396.603	1	11
396.774	1	17
396.945	1	9
397.115	1	-3
397.286	1	24
397.457	1	18
397.627	1	11
397.798	1	15
397.969	1	15
398.140	1	4
398.310	1	20
398.481	1	15
398.652	1	13
398.823	1	7
398.993	1	30
399.164	1	19
399.335	1	10
399.505	1	18
399.676	1	14
399.847	1	16
400.018	1	4
400.188	1	11
400.359	1	12
400.530	1	6
400.700	1	15
400.871	1	23
401.042	1	15
401.213	1	3
401.383	1	14
401.554	1	18
401.725	1	13
401.895	1	9
402.066	1	15
402.237	1	26
402.408	1	21
402.578	1	14
402.749	1	21
402.920	1	19
403.090	1	24
403.261	1	13
403.432	1	25
403.603	1	3
403.773	1	18
403.944	1	15
404.115	1	5
404.285	1	27
404.456	1	15
404.627	1	3
404.797	1	7
404.968	1	3
405.139	1	16
405.310	1	6
405.480	1	21
405.651	1	24
405.822	1	25
405.992	1	11
406.163	1	23
406.334	1	23
406.504	1	8
406.675	1	8
406.846	1	6
407.016	1	5
407.187	1	15
407.358	1	23
407.528	1	21
407.699	1	14
407.870	1	25
408.041	1	13
408.211	1	9
408.382	1	7
408.553	1	18
408.723	1	12
408.894	1	15
409.065	1	20
409.235	1	17
409.406	1	16
409.577	1	7
409.747	1	23
409.918	1	14
410.089	1	7
410.259	1	10
410.430	1	11
410.601	1	20
410.771	1	23
410.942	1	13
411.113	1	23
411.283	1	13
411.454	1	22
411.625	1	18
411.795	1	1
411.966	1	5
412.137	1	7
412.307	1	11
412.478	1	16
412.649	1	23
412.819	1	2
412.990	1	15
413.161	1	16
413.331	1	17
413.502	1	3
413.672	1	22
413.843	1	23
414.014	1	25
414.184	1	20
414.355	1	13
414.526	1	18
414.696	1	15
414.867	1	20
415.038	1	11
415.208	1	20
415.379	1	9
415.550	1	17
415.720	1	5
415.891	1	23
416.062	1	11
416.232	1	21
416.403	1	16
416.573	1	11
416.744	1	10
416.915	1	18
417.085	1	4
417.256	1	21
417.427	1	26
417.597	1	13
417.768	1	20
417.939	1	13
418.109	1	4
418.280	1	13
418.450	1	14
418.621	1	16
418.792	1	1
418.962	1	12
419.133	1	25
419.304	1	5
419.474	1	6
419.645	1	18
419.815	1	12
419.986	1	13
420.157	1	18
420.327	1	13
420.498	1	19
420.669	1	25
420.839	1	15
421.010	1	18
421.180	1	3
421.351	1	18
421.522	1	13
421.692	1	17
421.863	1	14
422.033	1	21
422.204	1	13
422.375	1	19
422.545	1	14
422.716	1	11
422.886	1	26
423.057	1	7
423.228	1	21
423.398	1	20
423.569	1	18
423.740	1	10
423.910	1	19
424.081	1	18
424.251	1	10
424.422	1	2
424.593	1	5
424.763	1	15
424.934	1	14
425.104	1	10
425.275	1	16
425.445	1	9
425.616	1	21
425.787	1	18
425.957	1	10
426.128	1	28
426.298	1	11
426.469	1	3
426.640	1	8
426.810	1	21
426.981	1	10
427.151	1	11
427.322	1	3
427.493	1	19
427.663	1	9
427.834	1	18
428.004	1	19
428.175	1	14
428.345	1	20
428.516	1	4
428.687	1	15
428.857	1	12
429.028	1	17
429.198	1	10
429.369	1	9
429.540	1	8
429.710	1	23
429.881	1	19
430.051	1	13
430.222	1	7
430.392	1	14
430.563	1	9
430.734	1	23
430.904	1	13
431.075	1	13
431.245	1	21
431.416	1	8
431.586	1	13
431.757	1	22
431.927	1	1
432.098	1	22
432.269	1	19
432.439	1	14
432.610	1	16
432.780	1	10
432.951	1	20
433.121	1	18
433.292	1	17
433.462	1	23
433.633	1	18
433.804	1	12
433.974	1	19
434.145	1	13
434.315	1	15
434.486	1	6
434.656	1	18
434.827	1	15
434.997	1	32
435.168	1	18
435.339	1	17
435.509	1	16
435.680	1	11
435.850	1	7
436.021	1	17
436.191	1	16
436.362	1	18
436.532	1	12
436.703	1	18
436.873	1	14
437.044	1	15
437.214	1	13
437.385	1	27
437.556	1	19
437.726	1	15
437.897	1	4
438.067	1	13
438.238	1	15
438.408	1	18
438.579	1	13
438.749	1	8
438.920	1	16
439.090	1	6
439.261	1	14
439.431	1	13
439.602	1	10
439.772	1	10
439.943	1	30
440.113	1	15
440.284	1	15
440.455	1	12
440.625	1	11
440.796	1	15
440.966	1	2
441.137	1	20
441.307	1	6
441.478	1	20
441.648	1	16
441.819	1	12
441.989	1	10
442.160	1	17
442.330	1	26
442.501	1	0
442.671	1	7
442.842	1	26
443.012	1	8
443.183	1	19
443.353	1	28
443.524	1	9
443.694	1	14
443.865	1	23
444.035	1	16
444.206	1	13
444.376	1	17
444.547	1	13
444.717	1	19
444.888	1	5
445.058	1	8
445.229	1	17
445.399	1	19
445.570	1	13
445.740	1	12
445.911	1	20
446.081	1	18
446.252	1	2
446.422	1	26
446.593	1	18
446.763	1	13
446.934	1	30
447.104	1	18
447.275	1	23
447.445	1	7
447.616	1	21
447.786	1	5
447.957	1	17
448.127	1	28
448.298	1	12
448.468	1	15
448.639	1	9
448.809	1	15
448.979	1	13
449.150	1	16
449.320	1	21
449.491	1	27
449.661	1	26
449.832	1	20
450.002	1	12
450.173	1	8
450.343	1	21
450.514	1	12
450.684	1	14
450.855	1	12
451.025	1	25
451.196	1	20
451.366	1	18
451.537	1	12
451.707	1	15
451.878	1	15
452.048	1	11
452.218	1	12
452.389	1	14
452.559	1	21
452.730	1	15
452.900	1	13
453.071	1	12
453.241	1	11
453.412	1	10
453.582	1	12
453.753	1	8
453.923	1	16
454.093	1	26
454.264	1	12
454.434	1	14
454.605	1	14
454.775	1	9
454.946	1	7
455.116	1	14
455.287	1	12
455.457	1	10
455.628	1	20
455.798	1	11
455.968	1	26
456.139	1	23
456.309	1	15
456.480	1	20
456.650	1	23
456.821	1	27
456.991	1	7
457.161	1	15
457.332	1	10
457.502	1	22
457.673	1	10
457.843	1	15
458.014	1	18
458.184	1	10
458.355	1	12
458.525	1	20
458.695	1	11
458.866	1	25
459.036	1	14
459.207	1	15
459.377	1	24
459.548	1	5
459.718	1	0
459.888	1	21
460.059	1	15
460.229	1	22
460.400	1	12
460.570	1	17
460.740	1	19
460.911	1	18
461.081	1	20
461.252	1	2
461.422	1	9
461.593	1	18
461.763	1	13
461.933	1	20
462.104	1	12
462.274	1	3
462.445	1	12
462.615	1	21
462.785	1	18
462.956	1	14
463.126	1	7
463.297	1	15
463.467	1	8
463.638	1	4
463.808	1	19
463.978	1	16
464.149	1	5
464.319	1	26
464.490	1	9
464.660	1	12
464.830	1	8
465.001	1	7
465.171	1	6
465.342	1	12
465.512	1	4
465.682	1	12
465.853	1	6
466.023	1	10
466.194	1	18
466.364	1	20
466.534	1	11
466.705	1	4
466.875	1	14
467.045	1	18
467.216	1	20
467.386	1	17
467.557	1	6
467.727	1	14
467.897	1	3
468.068	1	-3
468.238	1	14
468.409	1	10
468.579	1	7
468.749	1	4
468.920	1	8
469.090	1	14
469.260	1	16
469.431	1	10
469.601	1	0
469.772	1	-1
469.942	1	7
470.112	1	9
470.283	1	16
470.453	1	16
470.623	1	8
470.794	1	8
470.964	1	11
471.135	1	17
471.305	1	12
471.475	1	4
471.646	1	13
471.816	1	11
471.986	1	16
472.157	1	6
472.327	1	8
472.497	1	13
472.668	1	17
472.838	1	16
473.009	1	22
473.179	1	16
473.349	1	15
473.520	1	13
473.690	1	15
473.860	1	22
474.031	1	20
474.201	1	15
474.371	1	6
474.542	1	23
474.712	1	9
474.882	1	5
475.053	1	19
475.223	1	-8
475.394	1	10
475.564	1	7
475.734	1	23
475.905	1	13
476.075	1	19
476.245	1	18
476.416	1	-1
476.586	1	11
476.756	1	7
476.927	1	-1
477.097	1	8
477.267	1	14
477.438	1	16
477.608	1	14
477.778	1	6
477.949	1	5
478.119	1	16
478.289	1	10
478.460	1	-2
478.630	1	25
478.800	1	12
478.971	1	5
479.141	1	1
479.311	1	9
479.482	1	14
479.652	1	8
479.822	1	14
479.993	1	5
480.163	1	16
480.333	1	9
480.504	1	10
480.674	1	-3
480.844	1	6
481.015	1	9
481.185	1	3
481.355	1	11
481.525	1	12
481.696	1	8
481.866	1	15
482.036	1	6
482.207	1	18
482.377	1	14
482.547	1	-5
482.718	1	7
482.888	1	21
483.058	1	7
483.229	1	12
483.399	1	15
483.569	1	11
483.740	1	6
483.910	1	6
484.080	1	8
484.250	1	-2
484.421	1	4
484.591	1	10
484.761	1	6
484.932	1	16
485.102	1	7
485.272	1	11
485.443	1	9
485.613	1	8
485.783	1	18
485.953	1	5
486.124	1	15
486.294	1	16
486.464	1	9
486.635	1	13
486.805	1	8
486.975	1	15
487.146	1	9
487.316	1	19
487.486	1	11
487.656	1	1
487.827	1	-2
487.997	1	6
488.167	1	11
488.338	1	3
488.508	1	6
488.678	1	22
488.848	1	13
489.019	1	3
489.189	1	-2
489.359	1	13
489.529	1	6
489.700	1	7
489.870	1	11
490.040	1	8
490.211	1	-1
490.381	1	10
490.551	1	8
490.721	1	11
490.892	1	8
491.062	1	4
491.232	1	3
491.402	1	12
491.573	1	12
491.743	1	11
491.913	1	1
492.084	1	13
492.254	1	7
492.424	1	20
492.594	1	17
492.765	1	6
492.935	1	0
493.105	1	13
493.275	1	5
493.446	1	4
493.616	1	15
493.786	1	0
493.956	1	2
494.127	1	25
494.297	1	0
494.467	1	6
494.637	1	16
494.808	1	12
494.978	1	5
495.148	1	2
495.318	1	20
495.489	1	-7
495.659	1	1
495.829	1	6
495.999	1	8
496.170	1	-6
496.340	1	10
496.510	1	16
496.680	1	8
496.851	1	4
497.021	1	-3
497.191	1	5
497.361	1	7
497.532	1	1
497.702	1	20
497.872	1	10
498.042	1	13
498.213	1	19
498.383	1	17
498.553	1	1
498.723	1	2
498.894	1	1
499.064	1	11
499.234	1	5
499.404	1	-2
499.574	1	8
499.745	1	12
499.915	1	6
500.085	1	5
500.255	1	-2
500.426	1	12
500.596	1	6
500.766	1	8
500.936	1	13
501.106	1	13
501.277	1	11
501.447	1	6
501.617	1	4
501.787	1	7
501.958	1	5
502.128	1	-5
502.298	1	1
502.468	1	11
502.638	1	-2
502.809	1	7
502.979	1	15
503.149	1	-5
503.319	1	14
503.489	1	7
503.660	1	-1
503.830	1	17
504.000	1	7
504.170	1	6
504.340	1	-2
504.511	1	5
504.681	1	0
504.851	1	4
505.021	1	14
505.192	1	-5
505.362	1	4
505.532	1	13
505.702	1	13
505.872	1	7
506.043	1	15
506.213	1	13
506.383	1	1
506.553	1	7
506.723	1	15
506.893	1	4
507.064	1	-2
507.234	1	11
507.404	1	4
507.574	1	4
507.744	1	9
507.915	1	8
508.085	1	11
508.255	1	-1
508.425	1	1
508.595	1	8
508.766	1	-1
508.936	1	2
509.106	1	8
509.276	1	11
509.446	1	7
509.616	1	7
509.787	1	17
509.957	1	11
510.127	1	7
510.297	1	-5
510.467	1	-7
510.638	1	8
510.808	1	7
510.978	1	6
511.148	1	18
511.318	1	11
511.488	1	12
511.659	1	-4
511.829	1	10
511.999	1	6
512.169	1	8
512.339	1	3
512.509	1	10
512.680	1	10
512.850	1	4
513.020	1	5
513.190	1	0
513.360	1	8
513.530	1	0
513.700	1	1
513.871	1	11
514.041	1	8
514.211	1	5
514.381	1	10
514.551	1	1
514.721	1	5
514.892	1	2
515.062	1	-2
515.232	1	7
515.402	1	5
515.572	1	-3
515.742	1	3
515.912	1	-1
516.083	1	7
516.253	1	11
516.423	1	1
516.593	1	8
516.763	1	2
516.933	1	-3
517.104	1	8
517.274	1	-9
517.444	1	0
517.614	1	1
517.784	1	10
517.954	1	9
518.124	1	4
518.294	1	6
518.465	1	8
518.635	1	1
518.805	1	11
518.975	1	7
519.145	1	10
519.315	1	4
519.485	1	-4
519.656	1	10
519.826	1	10
519.996	1	-1
520.166	1	16
520.336	1	6
520.506	1	-5
520.676	1	5
520.846	1	3
521.017	1	11
521.187	1	14
521.357	1	5
521.527	1	5
521.697	1	7
521.867	1	9
522.037	1	-2
522.207	1	1
522.377	1	8
522.548	1	3
522.718	1	4
522.888	1	15
523.058	1	5
523.228	1	3
523.398	1	8
523.568	1	-3
523.738	1	5
523.909	1	6
524.079	1	1
524.249	1	2
524.419	1	12
524.589	1	7
524.759	1	4
524.929	1	-1
525.099	1	7
525.269	1	10
525.439	1	0
525.610	1	-1
525.780	1	7
525.950	1	8
526.120	1	4
526.290	1	3
526.460	1	1
526.630	1	7
526.800	1	8
526.970	1	11
527.140	1	5
527.311	1	0
527.481	1	16
527.651	1	2
527.821	1	2
527.991	1	3
528.161	1	9
528.331	1	-2
528.501	1	5
528.671	1	-1
528.841	1	5
529.011	1	2
529.181	1	8
529.352	1	6
529.522	1	3
529.692	1	-4
529.862	1	8
530.032	1	11
530.202	1	8
530.372	1	1
530.542	1	2
530.712	1	6
530.882	1	6
531.052	1	14
531.222	1	-4
531.392	1	15
531.563	1	0
531.733	1	11
531.903	1	8
532.073	1	6
532.243	1	2
532.413	1	11
532.583	1	-2
532.753	1	8
532.923	1	12
533.093	1	19
533.263	1	-8
533.433	1	5
533.603	1	5
533.773	1	-4
533.943	1	0
534.113	1	2
534.284	1	-1
534.454	1	0
534.624	1	6
534.794	1	-2
534.964	1	2
535.134	1	9
535.304	1	1
535.474	1	-4
535.644	1	7
535.814	1	0
535.984	1	8
536.154	1	0
536.324	1	8
536.494	1	11
536.664	1	-4
536.834	1	1
537.004	1	2
537.174	1	14
537.344	1	8
537.514	1	3
537.685	1	9
537.855	1	2
538.025	1	2
538.195	1	2
538.365	1	-1
538.535	1	-6
538.705	1	7
538.875	1	10
539.045	1	7
539.215	1	-3
539.385	1	2
539.555	1	11
539.725	1	4
539.895	1	5
540.065	1	0
540.235	1	5
540.405	1	7
540.575	1	0
540.745	1	-1
540.915	1	4
541.085	1	-9
541.255	1	2
541.425	1	10
541.595	1	10
541.765	1	15
541.935	1	-3
542.105	1	-1
542.275	1	-3
542.445	1	-6
542.615	1	17
542.785	1	-6
542.955	1	-10
543.125	1	-8
543.295	1	-2
543.465	1	3
543.635	1	6
543.805	1	13
543.975	1	2
544.145	1	-4
544.315	1	-4
544.485	1	-6
544.655	1	11
544.825	1	3
544.995	1	3
545.165	1	10
545.335	1	-2
545.505	1	10
545.675	1	-4
545.845	1	15
546.015	1	10
546.185	1	6
546.355	1	2
546.525	1	3
546.695	1	8
546.865	1	13
547.035	1	5
547.205	1	2
547.375	1	2
547.545	1	16
547.715	1	6
547.885	1	7
548.055	1	1
548.225	1	8
548.395	1	-2
548.565	1	3
548.735	1	8
548.905	1	-4
549.075	1	4
549.245	1	5
549.415	1	3
549.585	1	11
549.755	1	8
549.925	1	6
550.095	1	-1
550.265	1	5
550.435	1	-7
550.605	1	-2
550.775	1	-2
550.945	1	10
551.115	1	7
551.285	1	1
551.455	1	2
551.625	1	0
551.795	1	-1
551.965	1	12
552.135	1	-1
552.305	1	-4
552.475	1	-1
552.645	1	3
552.815	1	-1
552.985	1	-2
553.155	1	1
553.325	1	6
553.495	1	6
553.665	1	9
553.835	1	-7
554.004	1	-4
554.174	1	-8
554.344	1	-5
554.514	1	-5
554.684	1	-2
554.854	1	0
555.024	1	-6
555.194	1	5
555.364	1	14
555.534	1	1
555.704	1	15
555.874	1	-13
556.044	1	6
556.214	1	1
556.384	1	4
556.554	1	13
556.724	1	12
556.894	1	-15
557.064	1	1
557.234	1	-4
557.404	1	3
557.573	1	-13
557.743	1	-2
557.913	1	-6
558.083	1	8
558.253	1	4
558.423	1	-7
558.593	1	4
558.763	1	-3
558.933	1	3
559.103	1	15
559.273	1	-5
559.443	1	6
559.613	1	6
559.783	1	0
559.953	1	8
560.122	1	6
560.292	1	3
560.462	1	-4
560.632	1	1
560.802	1	3
560.972	1	8
561.142	1	6
561.312	1	-2
561.482	1	7
561.652	1	6
561.822	1	-6
561.992	1	-5
562.162	1	10
562.331	1	4
562.501	1	-4
562.671	1	12
562.841	1	13
563.011	1	-8
563.181	1	12
563.351	1	-4
563.521	1	7
563.691	1	6
563.861	1	6
564.031	1	-1
564.201	1	6
564.370	1	-6
564.540	1	5
564.710	1	2
564.880	1	-8
565.050	1	4
565.220	1	11
565.390	1	2
565.560	1	-1
565.730	1	-3
565.900	1	-4
566.069	1	6
566.239	1	0
566.409	1	7
566.579	1	11
566.749	1	3
566.919	1	7
567.089	1	0
567.259	1	1
567.429	1	1
567.599	1	5
567.768	1	5
567.938	1	0
568.108	1	9
568.278	1	-7
568.448	1	1
568.618	1	1
568.788	1	-13
568.958	1	-6
569.128	1	-7
569.297	1	1
569.467	1	5
569.637	1	3
569.807	1	2
569.977	1	6
570.147	1	1
570.317	1	4
570.487	1	8
570.656	1	9
570.826	1	-3
570.996	1	3
571.166	1	6
571.336	1	-1
571.506	1	-5
571.676	1	-7
571.846	1	1
572.015	1	2
572.185	1	-4
572.355	1	0
572.525	1	-6
572.695	1	-4
572.865	1	10
573.035	1	-3
573.205	1	-14
573.374	1	10
573.544	1	-6
573.714	1	4
573.884	1	8
574.054	1	-2
574.224	1	6
574.394	1	3
574.563	1	0
574.733	1	8
574.903	1	10
575.073	1	-1
575.243	1	3
575.413	1	1
575.583	1	3
575.752	1	2
575.922	1	6
576.092	1	-8
576.262	1	-1
576.432	1	0
576.602	1	0
576.772	1	-5
576.941	1	3
577.111	1	1
577.281	1	21
577.451	1	7
577.621	1	6
577.791	1	3
577.960	1	2
578.130	1	4
578.300	1	4
578.470	1	-4
578.640	1	0
578.810	1	-1
578.979	1	2
579.149	1	-1
579.319	1	-1
579.489	1	5
579.659	1	4
579.829	1	6
579.998	1	-1
580.168	1	-1
580.338	1	9
580.508	1	2
580.678	1	15
580.848	1	-5
581.017	1	10
581.187	1	4
581.357	1	3
581.527	1	-4
581.697	1	-7
581.867	1	3
582.036	1	8
582.206	1	2
582.376	1	9
582.546	1	17
582.716	1	0
582.885	1	2
583.055	1	1
583.225	1	-6
583.395	1	3
583.565	1	1
583.735	1	4
583.904	1	0
584.074	1	-10
584.244	1	8
584.414	1	2
584.584	1	3
584.753	1	8
584.923	1	-4
585.093	1	-3
585.263	1	-7
585.433	1	15
585.602	1	3
585.772	1	-5
585.942	1	2
586.112	1	4
586.282	1	7
586.451	1	1
586.621	1	-1
586.791	1	6
586.961	1	4
587.131	1	6
587.300	1	6
587.470	1	2
587.640	1	-10
587.810	1	-6
587.980	1	-10
588.149	1	3
588.319	1	8
588.489	1	2
588.659	1	6
588.829	1	-4
588.998	1	-1
589.168	1	8
589.338	1	-1
589.508	1	10
589.677	1	2
589.847	1	7
590.017	1	1
590.187	1	-1
590.357	1	-4
590.526	1	11
590.696	1	3
590.866	1	0
591.036	1	3
591.205	1	11
591.375	1	3
591.545	1	1
591.715	1	-13
591.885	1	1
592.054	1	3
592.224	1	-3
592.394	1	-9
592.564	1	5
592.733	1	2
592.903	1	1
593.073	1	-1
593.243	1	8
593.412	1	-2
593.582	1	3
593.752	1	2
593.922	1	9
594.091	1	-5
594.261	1	-6
594.431	1	3
594.601	1	9
594.771	1	18
594.940	1	-1
595.110	1	-7
595.280	1	-3
595.450	1	5
595.619	1	-1
595.789	1	8
595.959	1	4
596.129	1	2
596.298	1	3
596.468	1	-1
596.638	1	3
596.808	1	-4
596.977	1	0
597.147	1	10
597.317	1	-4
597.487	1	1
597.656	1	4
597.826	1	2
597.996	1	-5
598.166	1	11
598.335	1	-1
598.505	1	-4
598.675	1	0
598.844	1	7
599.014	1	-5
599.184	1	2
599.354	1	10
599.523	1	6
599.693	1	11
599.863	1	12
600.033	1	-1
600.202	1	13
600.372	1	2
600.542	1	3
600.712	1	10
600.881	1	12
601.051	1	1
601.221	1	12
601.390	1	6
601.560	1	8
601.730	1	2
601.900	1	21
602.069	1	-3
602.239	1	4
602.409	1	-1
602.578	1	4
602.748	1	-5
602.918	1	8
603.088	1	3
603.257	1	10
603.427	1	4
603.597	1	-4
603.767	1	7
603.936	1	12
604.106	1	2
604.276	1	3
604.445	1	-1
604.615	1	1
604.785	1	13
604.954	1	5
605.124	1	4
605.294	1	9
605.464	1	-8
605.633	1	7
605.803	1	11
605.973	1	3
606.142	1	11
606.312	1	9
606.482	1	-2
606.652	1	8
606.821	1	4
606.991	1	1
607.161	1	8
607.330	1	-2
607.500	1	6
607.670	1	3
607.839	1	-12
608.009	1	9
608.179	1	-3
608.348	1	5
608.518	1	6
608.688	1	6
608.858	1	1
609.027	1	0
609.197	1	7
609.367	1	-4
609.536	1	15
609.706	1	-2
609.876	1	1
610.045	1	11
610.215	1	6
610.385	1	-4
610.554	1	3
610.724	1	3
610.894	1	0
611.063	1	-7
611.233	1	-10
611.403	1	5
611.572	1	5
611.742	1	-5
611.912	1	5
612.081	1	4
612.251	1	6
612.421	1	-1
612.590	1	-6
612.760	1	14
612.930	1	-2
613.099	1	4
613.269	1	-3
613.439	1	12
613.608	1	5
613.778	1	-1
613.948	1	6
614.117	1	8
614.287	1	-3
614.457	1	10
614.626	1	10
614.796	1	9
614.966	1	3
615.135	1	9
615.305	1	7
615.475	1	-3
615.644	1	3
615.814	1	3
615.984	1	8
616.153	1	6
616.323	1	3
616.493	1	17
616.662	1	2
616.832	1	-3
617.002	1	-3
617.171	1	3
617.341	1	-3
617.511	1	-2
617.680	1	5
617.850	1	-4
618.019	1	2
618.189	1	-1
618.359	1	4
618.528	1	3
618.698	1	8
618.868	1	2
619.037	1	7
619.207	1	3
619.377	1	1
619.546	1	-5
619.716	1	-1
619.885	1	3
620.055	1	9
620.225	1	14
620.394	1	9
620.564	1	6
620.734	1	2
620.903	1	4
621.073	1	1
621.242	1	0
621.412	1	16
621.582	1	1
621.751	1	14
621.921	1	2
622.091	1	6
622.260	1	2
622.430	1	5
622.599	1	13
622.769	1	-4
622.939	1	4
623.108	1	0
623.278	1	19
623.448	1	6
623.617	1	0
623.787	1	2
623.956	1	9
624.126	1	-5
624.296	1	-3
624.465	1	4
624.635	1	10
624.804	1	-9
624.974	1	8
625.144	1	11
625.313	1	2
625.483	1	17
625.652	1	18
625.822	1	5
625.992	1	17
626.161	1	-2
626.331	1	0
626.501	1	3
626.670	1	0
626.840	1	2
627.009	1	0
627.179	1	-11
627.348	1	12
627.518	1	7
627.688	1	5
627.857	1	-5
628.027	1	-7
628.196	1	5
628.366	1	2
628.536	1	6
628.705	1	1
628.875	1	9
629.044	1	12
629.214	1	-2
629.384	1	3
629.553	1	4
629.723	1	-7
629.892	1	2
630.062	1	-5
630.232	1	8
630.401	1	-6
630.571	1	8
630.740	1	4
630.910	1	9
631.079	1	-5
631.249	1	5
631.419	1	3
631.588	1	-4
631.758	1	11
631.927	1	-3
632.097	1	8
632.266	1	-7
632.436	1	9
632.606	1	-11
632.775	1	8
632.945	1	1
633.114	1	5
633.284	1	-1
633.453	1	8
633.623	1	17
633.793	1	11
633.962	1	1
634.132	1	2
634.301	1	8
634.471	1	-7
634.640	1	2
634.810	1	17
634.979	1	-1
635.149	1	2
635.319	1	2
635.488	1	5
635.658	1	10
635.827	1	2
635.997	1	2
636.166	1	4
636.336	1	14
636.505	1	0
636.675	1	1
636.845	1	3
637.014	1	6
637.184	1	17
637.353	1	2
637.523	1	5
637.692	1	-8
637.862	1	3
638.031	1	-9
638.201	1	-2
638.370	1	15
638.540	1	7
638.710	1	11
638.879	1	9
639.049	1	4
639.218	1	18
639.388	1	5
639.557	1	-9
639.727	1	7
639.896	1	6
640.066	1	10
640.235	1	3
640.405	1	5
640.574	1	-1
640.744	1	0
640.914	1	5
641.083	1	4
641.253	1	7
641.422	1	3
641.592	1	3
641.761	1	2
641.931	1	3
642.100	1	13
642.270	1	4
642.439	1	10
642.609	1	17
642.778	1	-2
642.948	1	4
643.117	1	2
643.287	1	-1
643.456	1	-4
643.626	1	1
643.795	1	7
643.965	1	14
644.134	1	1
644.304	1	12
644.473	1	5
644.643	1	3
644.812	1	1
644.982	1	0
645.151	1	7
645.321	1	6
645.490	1	7
645.660	1	-1
645.829	1	2
645.999	1	-1
646.168	1	3
646.338	1	-2
646.507	1	0
646.677	1	4
646.846	1	3
647.016	1	1
647.185	1	2
647.355	1	9
647.524	1	4
647.694	1	4
647.863	1	6
648.033	1	-1
648.202	1	3
648.372	1	-3
648.541	1	-3
648.711	1	1
648.880	1	1
649.050	1	5
649.219	1	9
649.389	1	-1
649.558	1	13
649.728	1	6
649.897	1	7
650.067	1	-2
650.236	1	-7
650.406	1	13
650.575	1	8
650.745	1	1
650.914	1	12
651.084	1	4
651.253	1	-1
651.423	1	4
651.592	1	-4
651.762	1	3
651.931	1	13
652.101	1	3
652.270	1	3
652.440	1	7
652.609	1	14
652.778	1	1
652.948	1	3
653.117	1	12
653.287	1	4
653.456	1	-1
653.626	1	-3
653.795	1	-3
653.965	1	2
654.134	1	-7
654.304	1	16
654.473	1	7
654.643	1	8
654.812	1	1
654.982	1	6
655.151	1	7
655.320	1	14
655.490	1	4
655.659	1	-2
655.829	1	3
655.998	1	-1
656.168	1	-5
656.337	1	7
656.507	1	-5
656.676	1	2
656.846	1	10
657.015	1	-8
657.184	1	1
657.354	1	3
657.523	1	-2
657.693	1	-3
657.862	1	-4
658.032	1	9
658.201	1	16
658.371	1	0
658.540	1	14
658.709	1	5
658.879	1	8
659.048	1	3
659.218	1	-10
659.387	1	12
659.557	1	-2
659.726	1	-4
659.895	1	1
660.065	1	15
660.234	1	0
660.404	1	10
660.573	1	5
660.743	1	1
660.912	1	-10
661.081	1	-7
661.251	1	5
661.420	1	3
661.590	1	3
661.759	1	1
661.929	1	4
662.098	1	12
662.267	1	9
662.437	1	10
662.606	1	3
662.776	1	-6
662.945	1	8
663.115	1	6
663.284	1	8
663.453	1	15
663.623	1	18
663.792	1	2
663.962	1	0
664.131	1	-1
664.300	1	-4
664.470	1	-2
664.639	1	9
664.809	1	0
664.978	1	-1
665.148	1	-3
665.317	1	10
665.486	1	-3
665.656	1	3
665.825	1	15
665.995	1	0
666.164	1	11
666.333	1	-2
666.503	1	8
666.672	1	9
666.842	1	2
667.011	1	2
667.180	1	1
667.350	1	7
667.519	1	-4
667.689	1	-2
667.858	1	-5
668.027	1	0
668.197	1	10
668.366	1	-1
668.536	1	10
668.705	1	5
668.874	1	6
669.044	1	4
669.213	1	14
669.382	1	5
669.552	1	8
669.721	1	1
669.891	1	2
670.060	1	-3
670.229	1	-2
670.399	1	4
670.568	1	2
670.738	1	2
670.907	1	8
671.076	1	7
671.246	1	-2
671.415	1	14
671.584	1	-4
671.754	1	6
671.923	1	5
672.093	1	1
672.262	1	3
672.431	1	9
672.601	1	4
672.770	1	2
672.939	1	4
673.109	1	10
673.278	1	2
673.448	1	12
673.617	1	9
673.786	1	21
