325.333	1	4
325.504	1	6
325.675	1	8
325.846	1	6
326.017	1	0
326.188	1	9
326.359	1	5
326.531	1	5
326.702	1	7
326.873	1	4
327.044	1	9
327.215	1	-8
327.386	1	10
327.557	1	10
327.728	1	10
327.899	1	4
328.070	1	8
328.241	1	10
328.412	1	-6
328.583	1	18
328.754	1	0
328.926	1	16
329.097	1	5
329.268	1	-2
329.439	1	2
329.610	1	9
329.781	1	9
329.952	1	5
330.123	1	1
330.294	1	6
330.465	1	20
330.636	1	11
330.807	1	11
330.978	1	9
331.149	1	6
331.320	1	12
331.492	1	5
331.663	1	-2
331.834	1	-3
332.005	1	6
332.176	1	7
332.347	1	13
332.518	1	18
332.689	1	-2
332.860	1	7
333.031	1	9
333.202	1	7
333.373	1	1
333.544	1	1
333.715	1	3
333.886	1	6
334.057	1	-1
334.228	1	19
334.399	1	14
334.570	1	0
334.741	1	10
334.912	1	2
335.084	1	3
335.255	1	6
335.426	1	9
335.597	1	15
335.768	1	9
335.939	1	-5
336.110	1	7
336.281	1	9
336.452	1	0
336.623	1	8
336.794	1	3
336.965	1	4
337.136	1	17
337.307	1	13
337.478	1	2
337.649	1	-3
337.820	1	-6
337.991	1	11
338.162	1	6
338.333	1	4
338.504	1	6
338.675	1	16
338.846	1	17
339.017	1	18
339.188	1	17
339.359	1	17
339.530	1	12
339.701	1	6
339.872	1	8
340.043	1	-5
340.214	1	-9
340.385	1	17
340.556	1	14
340.727	1	6
340.898	1	18
341.069	1	4
341.240	1	4
341.411	1	11
341.582	1	19
341.753	1	1
341.924	1	4
342.095	1	17
342.266	1	0
342.437	1	-8
342.608	1	8
342.779	1	13
342.950	1	7
343.121	1	3
343.292	1	15
343.463	1	-1
343.634	1	1
343.805	1	9
343.976	1	10
344.147	1	13
344.318	1	12
344.489	1	11
344.660	1	15
344.831	1	9
345.002	1	13
345.173	1	7
345.344	1	-3
345.515	1	7
345.686	1	3
345.857	1	5
346.028	1	1
346.199	1	13
346.370	1	17
346.541	1	6
346.712	1	2
346.883	1	21
347.054	1	11
347.225	1	0
347.396	1	7
347.567	1	2
347.738	1	9
347.909	1	11
348.080	1	18
348.251	1	-8
348.422	1	9
348.593	1	17
348.764	1	9
348.935	1	14
349.106	1	13
349.277	1	7
349.448	1	9
349.619	1	13
349.790	1	17
349.961	1	10
350.132	1	16
350.303	1	18
350.474	1	6
350.645	1	3
350.816	1	8
350.987	1	22
351.157	1	2
351.328	1	4
351.499	1	18
351.670	1	8
351.841	1	6
352.012	1	15
352.183	1	15
352.354	1	14
352.525	1	14
352.696	1	26
352.867	1	15
353.038	1	3
353.209	1	8
353.380	1	5
353.551	1	3
353.722	1	6
353.893	1	12
354.064	1	0
354.235	1	15
354.406	1	15
354.576	1	9
354.747	1	19
354.918	1	23
355.089	1	18
355.260	1	13
355.431	1	17
355.602	1	0
355.773	1	8
355.944	1	14
356.115	1	4
356.286	1	13
356.457	1	18
356.628	1	8
356.799	1	8
356.970	1	13
357.141	1	12
357.311	1	6
357.482	1	10
357.653	1	14
357.824	1	12
357.995	1	17
358.166	1	18
358.337	1	9
358.508	1	8
358.679	1	6
358.850	1	7
359.021	1	15
359.192	1	12
359.363	1	-8
359.533	1	2
359.704	1	11
359.875	1	7
360.046	1	5
360.217	1	1
360.388	1	7
360.559	1	17
360.730	1	20
360.901	1	7
361.072	1	7
361.243	1	10
361.414	1	1
361.584	1	12
361.755	1	12
361.926	1	11
362.097	1	10
362.268	1	13
362.439	1	15
362.610	1	6
362.781	1	19
362.952	1	8
363.123	1	6
363.293	1	20
363.464	1	14
363.635	1	9
363.806	1	15
363.977	1	14
364.148	1	16
364.319	1	0
364.490	1	26
364.661	1	10
364.832	1	14
365.002	1	4
365.173	1	5
365.344	1	17
365.515	1	10
365.686	1	13
365.857	1	10
366.028	1	12
366.199	1	11
366.370	1	12
366.540	1	13
366.711	1	19
366.882	1	8
367.053	1	17
367.224	1	16
367.395	1	15
367.566	1	20
367.737	1	7
367.908	1	4
368.078	1	3
368.249	1	14
368.420	1	16
368.591	1	18
368.762	1	0
368.933	1	17
369.104	1	10
369.274	1	19
369.445	1	19
369.616	1	5
369.787	1	9
369.958	1	14
370.129	1	13
370.300	1	11
370.471	1	9
370.641	1	3
370.812	1	19
370.983	1	5
371.154	1	23
371.325	1	6
371.496	1	16
371.667	1	19
371.837	1	15
372.008	1	15
372.179	1	8
372.350	1	17
372.521	1	5
372.692	1	13
372.863	1	13
373.033	1	20
373.204	1	19
373.375	1	14
373.546	1	22
373.717	1	19
373.888	1	21
374.059	1	11
374.229	1	19
374.400	1	22
374.571	1	13
374.742	1	10
374.913	1	19
375.084	1	26
375.254	1	24
375.425	1	9
375.596	1	18
375.767	1	5
375.938	1	5
376.109	1	4
376.279	1	16
376.450	1	16
376.621	1	20
376.792	1	21
376.963	1	16
377.134	1	16
377.304	1	17
377.475	1	5
377.646	1	9
377.817	1	11
377.988	1	13
378.159	1	11
378.329	1	25
378.500	1	15
378.671	1	11
378.842	1	17
379.013	1	16
379.184	1	18
379.354	1	20
379.525	1	15
379.696	1	33
379.867	1	9
380.038	1	14
380.209	1	16
380.379	1	8
380.550	1	12
380.721	1	18
380.892	1	32
381.063	1	16
381.233	1	15
381.404	1	16
381.575	1	18
381.746	1	11
381.917	1	18
382.087	1	21
382.258	1	15
382.429	1	14
382.600	1	18
382.771	1	19
382.941	1	21
383.112	1	8
383.283	1	23
383.454	1	18
383.625	1	16
383.795	1	22
383.966	1	23
384.137	1	14
384.308	1	17
384.479	1	22
384.649	1	26
384.820	1	27
384.991	1	4
385.162	1	21
385.333	1	15
385.503	1	21
385.674	1	20
385.845	1	14
386.016	1	26
386.187	1	12
386.357	1	18
386.528	1	19
386.699	1	17
386.870	1	15
387.041	1	14
387.211	1	9
387.382	1	7
387.553	1	24
387.724	1	20
387.894	1	21
388.065	1	29
388.236	1	20
388.407	1	20
388.578	1	21
388.748	1	9
388.919	1	29
389.090	1	26
389.261	1	28
389.431	1	26
389.602	1	8
389.773	1	15
389.944	1	17
390.114	1	30
390.285	1	18
390.456	1	18
390.627	1	19
390.798	1	17
390.968	1	10
391.139	1	23
391.310	1	30
391.481	1	15
391.651	1	23
391.822	1	15
391.993	1	15
392.164	1	5
392.334	1	13
392.505	1	13
392.676	1	17
392.847	1	34
393.017	1	24
393.188	1	9
393.359	1	17
393.530	1	23
393.700	1	19
393.871	1	19
394.042	1	18
394.213	1	32
394.383	1	29
394.554	1	17
394.725	1	12
394.896	1	20
395.066	1	25
395.237	1	14
395.408	1	14
395.579	1	18
395.749	1	20
395.920	1	13
396.091	1	30
396.262	1	12
396.432	1	16
396.603	1	14
396.774	1	25
396.945	1	17
397.115	1	14
397.286	1	32
397.457	1	21
397.627	1	26
397.798	1	18
397.969	1	27
398.140	1	17
398.310	1	20
398.481	1	24
398.652	1	16
398.823	1	19
398.993	1	27
399.164	1	19
399.335	1	15
399.505	1	35
399.676	1	19
399.847	1	25
400.018	1	16
400.188	1	30
400.359	1	13
400.530	1	5
400.700	1	22
400.871	1	32
401.042	1	26
401.213	1	19
401.383	1	24
401.554	1	31
401.725	1	16
401.895	1	6
402.066	1	26
402.237	1	29
402.408	1	32
402.578	1	24
402.749	1	28
402.920	1	30
403.090	1	21
403.261	1	25
403.432	1	22
403.603	1	7
403.773	1	28
403.944	1	38
404.115	1	9
404.285	1	35
404.456	1	23
404.627	1	17
404.797	1	15
404.968	1	12
405.139	1	20
405.310	1	28
405.480	1	16
405.651	1	34
405.822	1	27
405.992	1	30
406.163	1	14
406.334	1	32
406.504	1	18
406.675	1	21
406.846	1	16
407.016	1	18
407.187	1	22
407.358	1	26
407.528	1	34
407.699	1	15
407.870	1	34
408.041	1	27
408.211	1	20
408.382	1	18
408.553	1	26
408.723	1	34
408.894	1	19
409.065	1	22
409.235	1	30
409.406	1	25
409.577	1	24
409.747	1	36
409.918	1	17
410.089	1	9
410.259	1	19
410.430	1	28
410.601	1	26
410.771	1	26
410.942	1	11
411.113	1	34
411.283	1	23
411.454	1	25
411.625	1	17
411.795	1	18
411.966	1	18
412.137	1	21
412.307	1	11
412.478	1	35
412.649	1	22
412.819	1	15
412.990	1	33
413.161	1	17
413.331	1	26
413.502	1	15
413.672	1	32
413.843	1	30
414.014	1	33
414.184	1	35
414.355	1	14
414.526	1	27
414.696	1	32
414.867	1	14
415.038	1	15
415.208	1	31
415.379	1	22
415.550	1	25
415.720	1	29
415.891	1	36
416.062	1	23
416.232	1	31
416.403	1	18
416.573	1	26
416.744	1	20
416.915	1	30
417.085	1	17
417.256	1	23
417.427	1	27
417.597	1	14
417.768	1	27
417.939	1	24
418.109	1	18
418.280	1	29
418.450	1	35
418.621	1	25
418.792	1	21
418.962	1	30
419.133	1	21
419.304	1	11
419.474	1	23
419.645	1	19
419.815	1	18
419.986	1	24
420.157	1	33
420.327	1	19
420.498	1	23
420.669	1	26
420.839	1	14
421.010	1	25
421.180	1	16
421.351	1	32
421.522	1	30
421.692	1	25
421.863	1	18
422.033	1	38
422.204	1	24
422.375	1	21
422.545	1	27
422.716	1	23
422.886	1	31
423.057	1	13
423.228	1	25
423.398	1	24
423.569	1	32
423.740	1	16
423.910	1	37
424.081	1	21
424.251	1	18
424.422	1	26
424.593	1	10
424.763	1	15
424.934	1	30
425.104	1	17
425.275	1	35
425.445	1	38
425.616	1	25
425.787	1	23
425.957	1	25
426.128	1	33
426.298	1	25
426.469	1	12
426.640	1	23
426.810	1	19
426.981	1	26
427.151	1	26
427.322	1	5
427.493	1	11
427.663	1	13
427.834	1	21
428.004	1	28
428.175	1	27
428.345	1	29
428.516	1	18
428.687	1	25
428.857	1	15
429.028	1	25
429.198	1	21
429.369	1	18
429.540	1	19
429.710	1	24
429.881	1	22
430.051	1	27
430.222	1	24
430.392	1	28
430.563	1	22
430.734	1	30
430.904	1	17
431.075	1	17
431.245	1	19
431.416	1	9
431.586	1	22
431.757	1	24
431.927	1	6
432.098	1	20
432.269	1	20
432.439	1	29
432.610	1	30
432.780	1	24
432.951	1	17
433.121	1	30
433.292	1	24
433.462	1	22
433.633	1	32
433.804	1	15
433.974	1	22
434.145	1	22
434.315	1	31
434.486	1	13
434.656	1	18
434.827	1	21
434.997	1	38
435.168	1	23
435.339	1	26
435.509	1	20
435.680	1	23
435.850	1	19
436.021	1	23
436.191	1	24
436.362	1	33
436.532	1	20
436.703	1	22
436.873	1	23
437.044	1	31
437.214	1	21
437.385	1	33
437.556	1	21
437.726	1	22
437.897	1	15
438.067	1	20
438.238	1	24
438.408	1	29
438.579	1	39
438.749	1	8
438.920	1	24
439.090	1	19
439.261	1	20
439.431	1	32
439.602	1	11
439.772	1	25
439.943	1	31
440.113	1	31
440.284	1	17
440.455	1	25
440.625	1	26
440.796	1	16
440.966	1	17
441.137	1	23
441.307	1	25
441.478	1	31
441.648	1	26
441.819	1	23
441.989	1	15
442.160	1	19
442.330	1	25
442.501	1	26
442.671	1	23
442.842	1	31
443.012	1	31
443.183	1	31
443.353	1	24
443.524	1	25
443.694	1	22
443.865	1	26
444.035	1	12
444.206	1	19
444.376	1	27
444.547	1	21
444.717	1	29
444.888	1	22
445.058	1	21
445.229	1	22
445.399	1	20
445.570	1	17
445.740	1	27
445.911	1	24
446.081	1	32
446.252	1	10
446.422	1	23
446.593	1	21
446.763	1	36
446.934	1	27
447.104	1	23
447.275	1	32
447.445	1	20
447.616	1	27
447.786	1	20
447.957	1	30
448.127	1	26
448.298	1	20
448.468	1	39
448.639	1	23
448.809	1	18
448.979	1	21
449.150	1	17
449.320	1	36
449.491	1	28
449.661	1	26
449.832	1	37
450.002	1	25
450.173	1	18
450.343	1	21
450.514	1	23
450.684	1	15
450.855	1	16
451.025	1	21
451.196	1	31
451.366	1	13
451.537	1	20
451.707	1	28
451.878	1	21
452.048	1	16
452.218	1	19
452.389	1	21
452.559	1	32
452.730	1	17
452.900	1	20
453.071	1	32
453.241	1	31
453.412	1	9
453.582	1	22
453.753	1	34
453.923	1	33
454.093	1	39
454.264	1	29
454.434	1	28
454.605	1	29
454.775	1	20
454.946	1	20
455.116	1	14
455.287	1	19
455.457	1	22
455.628	1	19
455.798	1	25
455.968	1	19
456.139	1	7
456.309	1	25
456.480	1	21
456.650	1	42
456.821	1	34
456.991	1	21
457.161	1	36
457.332	1	23
457.502	1	29
457.673	1	33
457.843	1	12
458.014	1	27
458.184	1	20
458.355	1	17
458.525	1	17
458.695	1	21
458.866	1	34
459.036	1	21
459.207	1	22
459.377	1	19
459.548	1	11
459.718	1	23
459.888	1	29
460.059	1	28
460.229	1	18
460.400	1	14
460.570	1	26
460.740	1	23
460.911	1	28
461.081	1	20
461.252	1	23
461.422	1	11
461.593	1	25
461.763	1	19
461.933	1	18
462.104	1	18
462.274	1	17
462.445	1	14
462.615	1	17
462.785	1	18
462.956	1	23
463.126	1	17
463.297	1	27
463.467	1	18
463.638	1	21
463.808	1	23
463.978	1	26
464.149	1	14
464.319	1	27
464.490	1	24
464.660	1	21
464.830	1	16
465.001	1	17
465.171	1	13
465.342	1	9
465.512	1	24
465.682	1	30
465.853	1	12
466.023	1	13
466.194	1	23
466.364	1	17
466.534	1	26
466.705	1	10
466.875	1	19
467.045	1	10
467.216	1	21
467.386	1	32
467.557	1	17
467.727	1	24
467.897	1	7
468.068	1	15
468.238	1	17
468.409	1	15
468.579	1	24
468.749	1	10
468.920	1	22
469.090	1	13
469.260	1	16
469.431	1	23
469.601	1	19
469.772	1	10
469.942	1	14
470.112	1	20
470.283	1	31
470.453	1	19
470.623	1	10
470.794	1	17
470.964	1	22
471.135	1	28
471.305	1	24
471.475	1	15
471.646	1	16
471.816	1	19
471.986	1	22
472.157	1	17
472.327	1	24
472.497	1	25
472.668	1	9
472.838	1	18
473.009	1	21
473.179	1	16
473.349	1	20
473.520	1	20
473.690	1	22
473.860	1	24
474.031	1	12
474.201	1	22
474.371	1	16
474.542	1	30
474.712	1	8
474.882	1	18
475.053	1	25
475.223	1	9
475.394	1	17
475.564	1	9
475.734	1	20
475.905	1	20
476.075	1	19
476.245	1	17
476.416	1	17
476.586	1	18
476.756	1	11
476.927	1	6
477.097	1	16
477.267	1	21
477.438	1	13
477.608	1	14
477.778	1	17
477.949	1	11
478.119	1	27
478.289	1	16
478.460	1	6
478.630	1	36
478.800	1	32
478.971	1	21
479.141	1	13
479.311	1	20
479.482	1	12
479.652	1	22
479.822	1	15
479.993	1	8
480.163	1	15
480.333	1	23
480.504	1	11
480.674	1	16
480.844	1	7
481.015	1	14
481.185	1	11
481.355	1	19
481.525	1	18
481.696	1	17
481.866	1	19
482.036	1	26
482.207	1	20
482.377	1	27
482.547	1	8
482.718	1	12
482.888	1	18
483.058	1	11
483.229	1	16
483.399	1	13
483.569	1	15
483.740	1	18
483.910	1	13
484.080	1	17
484.250	1	0
484.421	1	15
484.591	1	17
484.761	1	18
484.932	1	19
485.102	1	20
485.272	1	4
485.443	1	17
485.613	1	21
485.783	1	15
485.953	1	12
486.124	1	16
486.294	1	9
486.464	1	10
486.635	1	22
486.805	1	9
486.975	1	17
487.146	1	13
487.316	1	11
487.486	1	20
487.656	1	8
487.827	1	14
487.997	1	15
488.167	1	22
488.338	1	11
488.508	1	13
488.678	1	13
488.848	1	11
489.019	1	12
489.189	1	12
489.359	1	10
489.529	1	5
489.700	1	18
489.870	1	10
490.040	1	11
490.211	1	17
490.381	1	21
490.551	1	12
490.721	1	10
490.892	1	9
491.062	1	4
491.232	1	7
491.402	1	15
491.573	1	6
491.743	1	10
491.913	1	6
492.084	1	16
492.254	1	12
492.424	1	12
492.594	1	17
492.765	1	5
492.935	1	2
493.105	1	18
493.275	1	24
493.446	1	0
493.616	1	16
493.786	1	9
493.956	1	8
494.127	1	25
494.297	1	8
494.467	1	11
494.637	1	18
494.808	1	7
494.978	1	4
495.148	1	10
495.318	1	16
495.489	1	8
495.659	1	12
495.829	1	22
495.999	1	11
496.170	1	2
496.340	1	14
496.510	1	16
496.680	1	6
496.851	1	12
497.021	1	5
497.191	1	9
497.361	1	11
497.532	1	7
497.702	1	14
497.872	1	22
498.042	1	19
498.213	1	9
498.383	1	11
498.553	1	12
498.723	1	15
498.894	1	4
499.064	1	17
499.234	1	10
499.404	1	4
499.574	1	9
499.745	1	9
499.915	1	17
500.085	1	4
500.255	1	7
500.426	1	15
500.596	1	7
500.766	1	-1
500.936	1	16
501.106	1	12
501.277	1	15
501.447	1	3
501.617	1	15
501.787	1	9
501.958	1	9
502.128	1	3
502.298	1	11
502.468	1	23
502.638	1	6
502.809	1	4
502.979	1	18
503.149	1	-4
503.319	1	11
503.489	1	3
503.660	1	3
503.830	1	14
504.000	1	13
504.170	1	7
504.340	1	21
504.511	1	8
504.681	1	-8
504.851	1	5
505.021	1	15
505.192	1	7
505.362	1	7
505.532	1	11
505.702	1	8
505.872	1	6
506.043	1	12
506.213	1	11
506.383	1	9
506.553	1	15
506.723	1	10
506.893	1	3
507.064	1	-3
507.234	1	2
507.404	1	21
507.574	1	10
507.744	1	13
507.915	1	14
508.085	1	16
508.255	1	4
508.425	1	-1
508.595	1	4
508.766	1	7
508.936	1	14
509.106	1	13
509.276	1	12
509.446	1	8
509.616	1	8
509.787	1	16
509.957	1	12
510.127	1	5
510.297	1	-2
510.467	1	7
510.638	1	19
510.808	1	7
510.978	1	10
511.148	1	24
511.318	1	5
511.488	1	6
511.659	1	10
511.829	1	16
511.999	1	11
512.169	1	11
512.339	1	13
512.509	1	14
512.680	1	12
512.850	1	6
513.020	1	9
513.190	1	-3
513.360	1	6
513.530	1	14
513.700	1	17
513.871	1	16
514.041	1	14
514.211	1	8
514.381	1	14
514.551	1	13
514.721	1	14
514.892	1	14
515.062	1	5
515.232	1	5
515.402	1	11
515.572	1	5
515.742	1	12
515.912	1	9
516.083	1	1
516.253	1	16
516.423	1	6
516.593	1	1
516.763	1	6
516.933	1	-3
517.104	1	6
517.274	1	-2
517.444	1	0
517.614	1	3
517.784	1	9
517.954	1	16
518.124	1	11
518.294	1	7
518.465	1	3
518.635	1	11
518.805	1	23
518.975	1	2
519.145	1	16
519.315	1	3
519.485	1	-6
519.656	1	10
519.826	1	14
519.996	1	10
520.166	1	14
520.336	1	11
520.506	1	-9
520.676	1	12
520.846	1	-4
521.017	1	8
521.187	1	7
521.357	1	4
521.527	1	7
521.697	1	12
521.867	1	12
522.037	1	3
522.207	1	8
522.377	1	5
522.548	1	3
522.718	1	5
522.888	1	12
523.058	1	13
523.228	1	17
523.398	1	10
523.568	1	6
523.738	1	9
523.909	1	6
524.079	1	1
524.249	1	11
524.419	1	10
524.589	1	-6
524.759	1	3
524.929	1	3
525.099	1	6
525.269	1	19
525.439	1	8
525.610	1	6
525.780	1	6
525.950	1	8
526.120	1	0
526.290	1	7
526.460	1	2
526.630	1	9
526.800	1	8
526.970	1	13
527.140	1	5
527.311	1	2
527.481	1	9
527.651	1	8
527.821	1	-4
527.991	1	5
528.161	1	10
528.331	1	13
528.501	1	1
528.671	1	-3
528.841	1	5
529.011	1	-3
529.181	1	9
529.352	1	-5
529.522	1	6
529.692	1	16
529.862	1	9
530.032	1	12
530.202	1	3
530.372	1	2
530.542	1	9
530.712	1	-1
530.882	1	7
531.052	1	9
531.222	1	7
531.392	1	8
531.563	1	6
531.733	1	7
531.903	1	6
532.073	1	11
532.243	1	-3
532.413	1	20
532.583	1	-7
532.753	1	5
532.923	1	13
533.093	1	16
533.263	1	1
533.433	1	16
533.603	1	17
533.773	1	-1
533.943	1	5
534.113	1	0
534.284	1	1
534.454	1	4
534.624	1	19
534.794	1	-4
534.964	1	9
535.134	1	14
535.304	1	12
535.474	1	-2
535.644	1	4
535.814	1	4
535.984	1	5
536.154	1	4
536.324	1	17
536.494	1	13
536.664	1	4
536.834	1	2
537.004	1	2
537.174	1	7
537.344	1	11
537.514	1	0
537.685	1	6
537.855	1	3
538.025	1	6
538.195	1	5
538.365	1	-4
538.535	1	-5
538.705	1	10
538.875	1	11
539.045	1	2
539.215	1	-10
539.385	1	6
539.555	1	10
539.725	1	3
539.895	1	8
540.065	1	1
540.235	1	5
540.405	1	8
540.575	1	13
540.745	1	1
540.915	1	4
541.085	1	0
541.255	1	-8
541.425	1	6
541.595	1	5
541.765	1	19
541.935	1	3
542.105	1	4
542.275	1	6
542.445	1	8
542.615	1	9
542.785	1	4
542.955	1	1
543.125	1	-3
543.295	1	1
543.465	1	13
543.635	1	15
543.805	1	19
543.975	1	1
544.145	1	1
544.315	1	-5
544.485	1	4
544.655	1	11
544.825	1	14
544.995	1	12
545.165	1	7
545.335	1	5
545.505	1	14
545.675	1	-9
545.845	1	17
546.015	1	8
546.185	1	10
546.355	1	11
546.525	1	4
546.695	1	-6
546.865	1	13
547.035	1	5
547.205	1	9
547.375	1	2
547.545	1	18
547.715	1	10
547.885	1	15
548.055	1	-3
548.225	1	12
548.395	1	-2
548.565	1	6
548.735	1	5
548.905	1	-3
549.075	1	1
549.245	1	4
549.415	1	4
549.585	1	14
549.755	1	9
549.925	1	15
550.095	1	3
550.265	1	14
550.435	1	-6
550.605	1	3
550.775	1	0
550.945	1	11
551.115	1	9
551.285	1	9
551.455	1	5
551.625	1	-8
551.795	1	1
551.965	1	11
552.135	1	-2
552.305	1	-2
552.475	1	5
552.645	1	3
552.815	1	1
552.985	1	9
553.155	1	4
553.325	1	6
553.495	1	9
553.665	1	10
553.835	1	7
554.004	1	-6
554.174	1	-6
554.344	1	1
554.514	1	11
554.684	1	5
554.854	1	-4
555.024	1	-1
555.194	1	8
555.364	1	16
555.534	1	14
555.704	1	18
555.874	1	4
556.044	1	14
556.214	1	11
556.384	1	7
556.554	1	13
556.724	1	14
556.894	1	6
557.064	1	5
557.234	1	0
557.404	1	-3
557.573	1	-5
557.743	1	-4
557.913	1	2
558.083	1	4
558.253	1	-5
558.423	1	0
558.593	1	9
558.763	1	13
558.933	1	-4
559.103	1	10
559.273	1	9
559.443	1	12
559.613	1	9
559.783	1	14
559.953	1	9
560.122	1	8
560.292	1	6
560.462	1	2
560.632	1	9
560.802	1	0
560.972	1	0
561.142	1	15
561.312	1	6
561.482	1	9
561.652	1	1
561.822	1	1
561.992	1	-9
562.162	1	2
562.331	1	10
562.501	1	-4
562.671	1	13
562.841	1	-4
563.011	1	-2
563.181	1	3
563.351	1	15
563.521	1	4
563.691	1	15
563.861	1	2
564.031	1	3
564.201	1	2
564.370	1	1
564.540	1	0
564.710	1	5
564.880	1	14
565.050	1	10
565.220	1	2
565.390	1	9
565.560	1	-3
565.730	1	4
565.900	1	0
566.069	1	-3
566.239	1	2
566.409	1	6
566.579	1	-3
566.749	1	6
566.919	1	11
567.089	1	9
567.259	1	14
567.429	1	5
567.599	1	6
567.768	1	6
567.938	1	-13
568.108	1	8
568.278	1	7
568.448	1	2
568.618	1	8
568.788	1	-10
568.958	1	-1
569.128	1	-3
569.297	1	1
569.467	1	15
569.637	1	2
569.807	1	-7
569.977	1	9
570.147	1	2
570.317	1	2
570.487	1	7
570.656	1	9
570.826	1	6
570.996	1	15
571.166	1	5
571.336	1	-4
571.506	1	-3
571.676	1	-3
571.846	1	0
572.015	1	11
572.185	1	-1
572.355	1	10
572.525	1	-3
572.695	1	0
572.865	1	4
573.035	1	0
573.205	1	-4
573.374	1	4
573.544	1	-2
573.714	1	3
573.884	1	0
574.054	1	1
574.224	1	7
574.394	1	6
574.563	1	6
574.733	1	-1
574.903	1	3
575.073	1	1
575.243	1	7
575.413	1	1
575.583	1	-1
575.752	1	5
575.922	1	6
576.092	1	3
576.262	1	6
576.432	1	8
576.602	1	-1
576.772	1	1
576.941	1	13
577.111	1	5
577.281	1	16
577.451	1	2
577.621	1	13
577.791	1	14
577.960	1	0
578.130	1	6
578.300	1	2
578.470	1	5
578.640	1	2
578.810	1	5
578.979	1	-3
579.149	1	10
579.319	1	12
579.489	1	4
579.659	1	3
579.829	1	9
579.998	1	4
580.168	1	3
580.338	1	1
580.508	1	10
580.678	1	10
580.848	1	3
581.017	1	8
581.187	1	10
581.357	1	2
581.527	1	3
581.697	1	-3
581.867	1	0
582.036	1	8
582.206	1	1
582.376	1	10
582.546	1	20
582.716	1	2
582.885	1	4
583.055	1	5
583.225	1	-5
583.395	1	0
583.565	1	-6
583.735	1	6
583.904	1	10
584.074	1	0
584.244	1	8
584.414	1	-2
584.584	1	3
584.753	1	19
584.923	1	11
585.093	1	1
585.263	1	-7
585.433	1	13
585.602	1	2
585.772	1	4
585.942	1	5
586.112	1	2
586.282	1	7
586.451	1	-2
586.621	1	-5
586.791	1	0
586.961	1	11
587.131	1	11
587.300	1	10
587.470	1	-2
587.640	1	-1
587.810	1	-3
587.980	1	-5
588.149	1	13
588.319	1	0
588.489	1	-3
588.659	1	12
588.829	1	-1
588.998	1	3
589.168	1	12
589.338	1	9
589.508	1	12
589.677	1	9
589.847	1	1
590.017	1	3
590.187	1	9
590.357	1	4
590.526	1	14
590.696	1	1
590.866	1	7
591.036	1	-7
591.205	1	6
591.375	1	1
591.545	1	-1
591.715	1	4
591.885	1	2
592.054	1	4
592.224	1	2
592.394	1	14
592.564	1	9
592.733	1	9
592.903	1	6
593.073	1	-2
593.243	1	7
593.412	1	-1
593.582	1	-5
593.752	1	1
593.922	1	4
594.091	1	-2
594.261	1	3
594.431	1	10
594.601	1	5
594.771	1	6
594.940	1	2
595.110	1	13
595.280	1	8
595.450	1	8
595.619	1	7
595.789	1	18
595.959	1	0
596.129	1	-2
596.298	1	11
596.468	1	12
596.638	1	7
596.808	1	0
596.977	1	6
597.147	1	7
597.317	1	4
597.487	1	7
597.656	1	2
597.826	1	1
597.996	1	4
598.166	1	9
598.335	1	-7
598.505	1	-5
598.675	1	1
598.844	1	5
599.014	1	2
599.184	1	-2
599.354	1	-5
599.523	1	3
599.693	1	3
599.863	1	15
600.033	1	1
600.202	1	9
600.372	1	-4
600.542	1	5
600.712	1	11
600.881	1	13
601.051	1	10
601.221	1	7
601.390	1	4
601.560	1	6
601.730	1	6
601.900	1	14
602.069	1	-6
602.239	1	5
602.409	1	9
602.578	1	7
602.748	1	0
602.918	1	6
603.088	1	13
603.257	1	7
603.427	1	19
603.597	1	9
603.767	1	0
603.936	1	11
604.106	1	7
604.276	1	9
604.445	1	-1
604.615	1	3
604.785	1	15
604.954	1	11
605.124	1	9
605.294	1	4
605.464	1	-1
605.633	1	18
605.803	1	17
605.973	1	6
606.142	1	6
606.312	1	5
606.482	1	1
606.652	1	10
606.821	1	12
606.991	1	3
607.161	1	6
607.330	1	10
607.500	1	16
607.670	1	-3
607.839	1	2
608.009	1	6
608.179	1	4
608.348	1	-2
608.518	1	10
608.688	1	4
608.858	1	1
609.027	1	1
609.197	1	10
609.367	1	0
609.536	1	2
609.706	1	3
609.876	1	-5
610.045	1	4
610.215	1	15
610.385	1	10
610.554	1	4
610.724	1	6
610.894	1	13
611.063	1	5
611.233	1	-7
611.403	1	3
611.572	1	13
611.742	1	5
611.912	1	5
612.081	1	8
612.251	1	5
612.421	1	6
612.590	1	-3
612.760	1	13
612.930	1	2
613.099	1	6
613.269	1	11
613.439	1	0
613.608	1	2
613.778	1	-4
613.948	1	15
614.117	1	9
614.287	1	13
614.457	1	4
614.626	1	19
614.796	1	21
614.966	1	-1
615.135	1	4
615.305	1	10
615.475	1	6
615.644	1	4
615.814	1	5
615.984	1	9
616.153	1	13
616.323	1	7
616.493	1	13
616.662	1	-2
616.832	1	15
617.002	1	2
617.171	1	0
617.341	1	6
617.511	1	7
617.680	1	3
617.850	1	1
618.019	1	10
618.189	1	5
618.359	1	7
618.528	1	2
618.698	1	13
618.868	1	-5
619.037	1	7
619.207	1	4
619.377	1	8
619.546	1	-9
619.716	1	1
619.885	1	8
620.055	1	21
620.225	1	7
620.394	1	4
620.564	1	-3
620.734	1	9
620.903	1	9
621.073	1	11
621.242	1	-7
621.412	1	12
621.582	1	3
621.751	1	6
621.921	1	12
622.091	1	-1
622.260	1	3
622.430	1	6
622.599	1	17
622.769	1	-2
622.939	1	1
623.108	1	2
623.278	1	17
623.448	1	6
623.617	1	2
623.787	1	7
623.956	1	15
624.126	1	-4
624.296	1	13
624.465	1	3
624.635	1	7
624.804	1	6
624.974	1	11
625.144	1	15
625.313	1	2
625.483	1	0
625.652	1	8
625.822	1	0
625.992	1	10
626.161	1	2
626.331	1	2
626.501	1	11
626.670	1	5
626.840	1	16
627.009	1	6
627.179	1	5
627.348	1	9
627.518	1	-2
627.688	1	13
627.857	1	2
628.027	1	-7
628.196	1	3
628.366	1	6
628.536	1	8
628.705	1	0
628.875	1	11
629.044	1	4
629.214	1	-5
629.384	1	5
629.553	1	1
629.723	1	-3
629.892	1	9
630.062	1	5
630.232	1	18
630.401	1	-3
630.571	1	16
630.740	1	-2
630.910	1	2
631.079	1	-4
631.249	1	12
631.419	1	10
631.588	1	7
631.758	1	2
631.927	1	2
632.097	1	2
632.266	1	-2
632.436	1	5
632.606	1	2
632.775	1	18
632.945	1	-6
633.114	1	8
633.284	1	9
633.453	1	7
633.623	1	13
633.793	1	4
633.962	1	2
634.132	1	14
634.301	1	8
634.471	1	1
634.640	1	7
634.810	1	2
634.979	1	5
635.149	1	10
635.319	1	10
635.488	1	-3
635.658	1	14
635.827	1	8
635.997	1	6
636.166	1	8
636.336	1	12
636.505	1	5
636.675	1	6
636.845	1	6
637.014	1	4
637.184	1	7
637.353	1	6
637.523	1	4
637.692	1	7
637.862	1	2
638.031	1	-2
638.201	1	10
638.370	1	7
638.540	1	12
638.710	1	9
638.879	1	16
639.049	1	-7
639.218	1	24
639.388	1	1
639.557	1	14
639.727	1	10
639.896	1	5
640.066	1	12
640.235	1	5
640.405	1	14
640.574	1	2
640.744	1	2
640.914	1	10
641.083	1	7
641.253	1	9
641.422	1	4
641.592	1	2
641.761	1	-5
641.931	1	4
642.100	1	9
642.270	1	-3
642.439	1	1
642.609	1	14
642.778	1	0
642.948	1	11
643.117	1	21
643.287	1	3
643.456	1	2
643.626	1	10
643.795	1	5
643.965	1	7
644.134	1	1
644.304	1	13
644.473	1	8
644.643	1	1
644.812	1	0
644.982	1	6
645.151	1	2
645.321	1	5
645.490	1	14
645.660	1	10
645.829	1	2
645.999	1	5
646.168	1	8
646.338	1	14
646.507	1	-2
646.677	1	-1
646.846	1	9
647.016	1	-2
647.185	1	8
647.355	1	3
647.524	1	13
647.694	1	-1
647.863	1	15
648.033	1	14
648.202	1	-8
648.372	1	-1
648.541	1	6
648.711	1	10
648.880	1	14
649.050	1	4
649.219	1	2
649.389	1	5
649.558	1	12
649.728	1	11
649.897	1	-1
650.067	1	1
650.236	1	6
650.406	1	16
650.575	1	10
650.745	1	9
650.914	1	6
651.084	1	4
651.253	1	1
651.423	1	12
651.592	1	-2
651.762	1	12
651.931	1	11
652.101	1	6
652.270	1	-9
652.440	1	16
652.609	1	10
652.778	1	-1
652.948	1	0
653.117	1	8
653.287	1	6
653.456	1	9
653.626	1	2
653.795	1	0
653.965	1	7
654.134	1	-9
654.304	1	4
654.473	1	1
654.643	1	6
654.812	1	6
654.982	1	-2
655.151	1	13
655.320	1	14
655.490	1	-2
655.659	1	5
655.829	1	3
655.998	1	-1
656.168	1	9
656.337	1	11
656.507	1	-1
656.676	1	6
656.846	1	8
657.015	1	-4
657.184	1	2
657.354	1	13
657.523	1	8
657.693	1	-3
657.862	1	-9
658.032	1	6
658.201	1	15
658.371	1	-5
658.540	1	2
658.709	1	0
658.879	1	9
659.048	1	0
659.218	1	-1
659.387	1	12
659.557	1	4
659.726	1	2
659.895	1	9
660.065	1	12
660.234	1	3
660.404	1	6
660.573	1	12
660.743	1	-4
660.912	1	-1
661.081	1	-8
661.251	1	8
661.420	1	13
661.590	1	8
661.759	1	8
661.929	1	13
662.098	1	6
662.267	1	13
662.437	1	6
662.606	1	17
662.776	1	-5
662.945	1	15
663.115	1	13
663.284	1	3
663.453	1	12
663.623	1	15
663.792	1	13
663.962	1	0
664.131	1	5
664.300	1	-11
664.470	1	-1
664.639	1	20
664.809	1	5
664.978	1	0
665.148	1	-9
665.317	1	4
665.486	1	9
665.656	1	8
665.825	1	11
665.995	1	-1
666.164	1	15
666.333	1	-1
666.503	1	6
666.672	1	15
666.842	1	5
667.011	1	3
667.180	1	11
667.350	1	-2
667.519	1	-1
667.689	1	-4
667.858	1	3
668.027	1	8
668.197	1	17
668.366	1	-5
668.536	1	4
668.705	1	7
668.874	1	5
669.044	1	8
669.213	1	11
669.382	1	4
669.552	1	12
669.721	1	4
669.891	1	0
670.060	1	0
670.229	1	2
670.399	1	2
670.568	1	6
670.738	1	-5
670.907	1	6
671.076	1	11
671.246	1	-14
671.415	1	5
671.584	1	4
671.754	1	4
671.923	1	17
672.093	1	-5
672.262	1	4
672.431	1	6
672.601	1	2
672.770	1	1
672.939	1	-1
673.109	1	6
673.278	1	7
673.448	1	7
673.617	1	7
673.786	1	14
