325.333	1	-2
325.504	1	2
325.675	1	-2
325.846	1	-8
326.017	1	-6
326.188	1	1
326.359	1	1
326.531	1	12
326.702	1	3
326.873	1	-1
327.044	1	11
327.215	1	-7
327.386	1	0
327.557	1	9
327.728	1	0
327.899	1	-8
328.070	1	10
328.241	1	-2
328.412	1	-1
328.583	1	10
328.754	1	-4
328.926	1	-3
329.097	1	-1
329.268	1	-15
329.439	1	-8
329.610	1	3
329.781	1	-6
329.952	1	8
330.123	1	-2
330.294	1	-2
330.465	1	6
330.636	1	21
330.807	1	-7
330.978	1	6
331.149	1	6
331.320	1	15
331.492	1	-9
331.663	1	-7
331.834	1	2
332.005	1	2
332.176	1	2
332.347	1	13
332.518	1	9
332.689	1	7
332.860	1	1
333.031	1	6
333.202	1	-1
333.373	1	-4
333.544	1	0
333.715	1	-2
333.886	1	-1
334.057	1	1
334.228	1	4
334.399	1	0
334.570	1	-3
334.741	1	1
334.912	1	4
335.084	1	-5
335.255	1	12
335.426	1	5
335.597	1	3
335.768	1	-1
335.939	1	-8
336.110	1	9
336.281	1	-3
336.452	1	7
336.623	1	1
336.794	1	4
336.965	1	-1
337.136	1	9
337.307	1	6
337.478	1	3
337.649	1	-5
337.820	1	-5
337.991	1	11
338.162	1	2
338.333	1	6
338.504	1	14
338.675	1	5
338.846	1	6
339.017	1	12
339.188	1	12
339.359	1	0
339.530	1	1
339.701	1	1
339.872	1	1
340.043	1	-7
340.214	1	1
340.385	1	7
340.556	1	-2
340.727	1	6
340.898	1	11
341.069	1	-12
341.240	1	-8
341.411	1	20
341.582	1	5
341.753	1	-7
341.924	1	2
342.095	1	18
342.266	1	1
342.437	1	-9
342.608	1	-5
342.779	1	14
342.950	1	1
343.121	1	-9
343.292	1	6
343.463	1	4
343.634	1	-1
343.805	1	5
343.976	1	-9
344.147	1	0
344.318	1	1
344.489	1	9
344.660	1	7
344.831	1	5
345.002	1	7
345.173	1	3
345.344	1	-4
345.515	1	11
345.686	1	-1
345.857	1	-2
346.028	1	-9
346.199	1	5
346.370	1	-1
346.541	1	0
346.712	1	6
346.883	1	10
347.054	1	-2
347.225	1	-5
347.396	1	-2
347.567	1	6
347.738	1	-2
347.909	1	1
348.080	1	5
348.251	1	3
348.422	1	-3
348.593	1	10
348.764	1	-1
348.935	1	-3
349.106	1	5
349.277	1	-6
349.448	1	1
349.619	1	14
349.790	1	1
349.961	1	9
350.132	1	12
350.303	1	5
350.474	1	3
350.645	1	10
350.816	1	-1
350.987	1	10
351.157	1	5
351.328	1	-9
351.499	1	7
351.670	1	0
351.841	1	2
352.012	1	5
352.183	1	0
352.354	1	8
352.525	1	8
352.696	1	9
352.867	1	5
353.038	1	5
353.209	1	-3
353.380	1	2
353.551	1	-12
353.722	1	15
353.893	1	-2
354.064	1	-4
354.235	1	4
354.406	1	12
354.576	1	3
354.747	1	3
354.918	1	17
355.089	1	9
355.260	1	2
355.431	1	7
355.602	1	-2
355.773	1	8
355.944	1	-1
356.115	1	-5
356.286	1	3
356.457	1	0
356.628	1	-8
356.799	1	0
356.970	1	5
357.141	1	4
357.311	1	2
357.482	1	4
357.653	1	-2
357.824	1	4
357.995	1	12
358.166	1	3
358.337	1	-1
358.508	1	3
358.679	1	11
358.850	1	-10
359.021	1	2
359.192	1	1
359.363	1	-6
359.533	1	-2
359.704	1	6
359.875	1	-4
360.046	1	-3
360.217	1	-7
360.388	1	8
360.559	1	9
360.730	1	1
360.901	1	0
361.072	1	-3
361.243	1	3
361.414	1	4
361.584	1	14
361.755	1	7
361.926	1	1
362.097	1	-8
362.268	1	4
362.439	1	6
362.610	1	-6
362.781	1	9
362.952	1	-5
363.123	1	7
363.293	1	-1
363.464	1	9
363.635	1	8
363.806	1	13
363.977	1	10
364.148	1	10
364.319	1	-10
364.490	1	7
364.661	1	6
364.832	1	2
365.002	1	-4
365.173	1	-2
365.344	1	4
365.515	1	6
365.686	1	-6
365.857	1	7
366.028	1	-4
366.199	1	5
366.370	1	0
366.540	1	-1
366.711	1	7
366.882	1	0
367.053	1	-2
367.224	1	-3
367.395	1	11
367.566	1	8
367.737	1	6
367.908	1	0
368.078	1	4
368.249	1	6
368.420	1	2
368.591	1	3
368.762	1	-17
368.933	1	10
369.104	1	-3
369.274	1	9
369.445	1	13
369.616	1	3
369.787	1	-6
369.958	1	12
370.129	1	0
370.300	1	0
370.471	1	-1
370.641	1	-5
370.812	1	11
370.983	1	-1
371.154	1	14
371.325	1	8
371.496	1	-4
371.667	1	8
371.837	1	-1
372.008	1	8
372.179	1	1
372.350	1	8
372.521	1	3
372.692	1	7
372.863	1	1
373.033	1	5
373.204	1	8
373.375	1	-2
373.546	1	9
373.717	1	8
373.888	1	3
374.059	1	1
374.229	1	7
374.400	1	16
374.571	1	13
374.742	1	1
374.913	1	10
375.084	1	18
375.254	1	10
375.425	1	-6
375.596	1	1
375.767	1	2
375.938	1	-14
376.109	1	1
376.279	1	8
376.450	1	5
376.621	1	9
376.792	1	8
376.963	1	1
377.134	1	1
377.304	1	5
377.475	1	-4
377.646	1	-1
377.817	1	-1
377.988	1	8
378.159	1	10
378.329	1	14
378.500	1	-1
378.671	1	0
378.842	1	5
379.013	1	4
379.184	1	10
379.354	1	11
379.525	1	-6
379.696	1	16
379.867	1	-4
380.038	1	6
380.209	1	5
380.379	1	8
380.550	1	-4
380.721	1	9
380.892	1	15
381.063	1	5
381.233	1	7
381.404	1	0
381.575	1	1
381.746	1	5
381.917	1	7
382.087	1	10
382.258	1	6
382.429	1	9
382.600	1	6
382.771	1	10
382.941	1	2
383.112	1	1
383.283	1	12
383.454	1	1
383.625	1	-3
383.795	1	7
383.966	1	15
384.137	1	12
384.308	1	9
384.479	1	14
384.649	1	2
384.820	1	12
384.991	1	0
385.162	1	-1
385.333	1	-1
385.503	1	11
385.674	1	5
385.845	1	1
386.016	1	4
386.187	1	6
386.357	1	2
386.528	1	0
386.699	1	4
386.870	1	9
387.041	1	-4
387.211	1	4
387.382	1	5
387.553	1	4
387.724	1	3
387.894	1	12
388.065	1	12
388.236	1	8
388.407	1	12
388.578	1	15
388.748	1	1
388.919	1	21
389.090	1	8
389.261	1	13
389.431	1	18
389.602	1	5
389.773	1	-1
389.944	1	2
390.114	1	2
390.285	1	6
390.456	1	5
390.627	1	6
390.798	1	9
390.968	1	4
391.139	1	4
391.310	1	22
391.481	1	-1
391.651	1	12
391.822	1	7
391.993	1	-3
392.164	1	-3
392.334	1	-4
392.505	1	12
392.676	1	10
392.847	1	20
393.017	1	14
393.188	1	-2
393.359	1	11
393.530	1	-3
393.700	1	9
393.871	1	14
394.042	1	9
394.213	1	12
394.383	1	18
394.554	1	13
394.725	1	18
394.896	1	6
395.066	1	3
395.237	1	-4
395.408	1	-1
395.579	1	7
395.749	1	9
395.920	1	11
396.091	1	15
396.262	1	-5
396.432	1	0
396.603	1	8
396.774	1	12
396.945	1	7
397.115	1	-9
397.286	1	21
397.457	1	1
397.627	1	3
397.798	1	7
397.969	1	14
398.140	1	4
398.310	1	9
398.481	1	1
398.652	1	1
398.823	1	-1
398.993	1	21
399.164	1	11
399.335	1	8
399.505	1	17
399.676	1	14
399.847	1	11
400.018	1	7
400.188	1	20
400.359	1	16
400.530	1	-4
400.700	1	4
400.871	1	11
401.042	1	8
401.213	1	7
401.383	1	4
401.554	1	11
401.725	1	1
401.895	1	-2
402.066	1	17
402.237	1	13
402.408	1	20
402.578	1	0
402.749	1	17
402.920	1	8
403.090	1	1
403.261	1	7
403.432	1	18
403.603	1	-8
403.773	1	14
403.944	1	16
404.115	1	6
404.285	1	10
404.456	1	9
404.627	1	-1
404.797	1	16
404.968	1	-4
405.139	1	21
405.310	1	12
405.480	1	1
405.651	1	16
405.822	1	12
405.992	1	17
406.163	1	8
406.334	1	6
406.504	1	3
406.675	1	11
406.846	1	9
407.016	1	2
407.187	1	-2
407.358	1	4
407.528	1	10
407.699	1	2
407.870	1	10
408.041	1	0
408.211	1	5
408.382	1	9
408.553	1	-3
408.723	1	5
408.894	1	4
409.065	1	21
409.235	1	8
409.406	1	-1
409.577	1	2
409.747	1	15
409.918	1	6
410.089	1	-2
410.259	1	3
410.430	1	7
410.601	1	7
410.771	1	10
410.942	1	-3
411.113	1	20
411.283	1	7
411.454	1	7
411.625	1	1
411.795	1	2
411.966	1	8
412.137	1	11
412.307	1	3
412.478	1	12
412.649	1	-1
412.819	1	-1
412.990	1	9
413.161	1	9
413.331	1	11
413.502	1	-2
413.672	1	-4
413.843	1	13
414.014	1	16
414.184	1	14
414.355	1	8
414.526	1	10
414.696	1	16
414.867	1	15
415.038	1	-3
415.208	1	13
415.379	1	12
415.550	1	15
415.720	1	3
415.891	1	19
416.062	1	10
416.232	1	9
416.403	1	9
416.573	1	9
416.744	1	6
416.915	1	3
417.085	1	-1
417.256	1	9
417.427	1	10
417.597	1	-6
417.768	1	4
417.939	1	17
418.109	1	5
418.280	1	11
418.450	1	18
418.621	1	14
418.792	1	0
418.962	1	5
419.133	1	16
419.304	1	-4
419.474	1	14
419.645	1	2
419.815	1	4
419.986	1	14
420.157	1	14
420.327	1	5
420.498	1	6
420.669	1	14
420.839	1	4
421.010	1	7
421.180	1	-3
421.351	1	15
421.522	1	8
421.692	1	19
421.863	1	8
422.033	1	18
422.204	1	11
422.375	1	6
422.545	1	17
422.716	1	10
422.886	1	23
423.057	1	2
423.228	1	16
423.398	1	12
423.569	1	18
423.740	1	-3
423.910	1	14
424.081	1	15
424.251	1	5
424.422	1	-2
424.593	1	4
424.763	1	9
424.934	1	7
425.104	1	13
425.275	1	16
425.445	1	19
425.616	1	9
425.787	1	14
425.957	1	7
426.128	1	17
426.298	1	4
426.469	1	9
426.640	1	19
426.810	1	15
426.981	1	10
427.151	1	2
427.322	1	-3
427.493	1	-2
427.663	1	6
427.834	1	12
428.004	1	11
428.175	1	8
428.345	1	8
428.516	1	17
428.687	1	14
428.857	1	9
429.028	1	10
429.198	1	11
429.369	1	7
429.540	1	5
429.710	1	11
429.881	1	14
430.051	1	6
430.222	1	5
430.392	1	9
430.563	1	5
430.734	1	16
430.904	1	10
431.075	1	3
431.245	1	22
431.416	1	-3
431.586	1	14
431.757	1	8
431.927	1	-5
432.098	1	14
432.269	1	20
432.439	1	17
432.610	1	8
432.780	1	11
432.951	1	10
433.121	1	13
433.292	1	8
433.462	1	8
433.633	1	19
433.804	1	3
433.974	1	6
434.145	1	3
434.315	1	10
434.486	1	-2
434.656	1	4
434.827	1	6
434.997	1	16
435.168	1	12
435.339	1	13
435.509	1	10
435.680	1	8
435.850	1	16
436.021	1	8
436.191	1	9
436.362	1	11
436.532	1	12
436.703	1	23
436.873	1	11
437.044	1	10
437.214	1	17
437.385	1	23
437.556	1	3
437.726	1	13
437.897	1	-2
438.067	1	11
438.238	1	18
438.408	1	3
438.579	1	9
438.749	1	0
438.920	1	6
439.090	1	8
439.261	1	9
439.431	1	10
439.602	1	1
439.772	1	15
439.943	1	-4
440.113	1	10
440.284	1	8
440.455	1	17
440.625	1	-1
440.796	1	11
440.966	1	1
441.137	1	8
441.307	1	9
441.478	1	12
441.648	1	11
441.819	1	11
441.989	1	3
442.160	1	3
442.330	1	19
442.501	1	1
442.671	1	4
442.842	1	12
443.012	1	9
443.183	1	7
443.353	1	6
443.524	1	7
443.694	1	8
443.865	1	15
444.035	1	8
444.206	1	1
444.376	1	11
444.547	1	4
444.717	1	18
444.888	1	8
445.058	1	11
445.229	1	2
445.399	1	5
445.570	1	8
445.740	1	17
445.911	1	14
446.081	1	12
446.252	1	-1
446.422	1	18
446.593	1	6
446.763	1	3
446.934	1	18
447.104	1	-1
447.275	1	13
447.445	1	1
447.616	1	16
447.786	1	8
447.957	1	8
448.127	1	18
448.298	1	9
448.468	1	13
448.639	1	6
448.809	1	1
448.979	1	8
449.150	1	4
449.320	1	15
449.491	1	10
449.661	1	10
449.832	1	7
450.002	1	16
450.173	1	8
450.343	1	7
450.514	1	10
450.684	1	13
450.855	1	18
451.025	1	-2
451.196	1	17
451.366	1	-1
451.537	1	11
451.707	1	7
451.878	1	8
452.048	1	11
452.218	1	1
452.389	1	6
452.559	1	7
452.730	1	13
452.900	1	1
453.071	1	12
453.241	1	17
453.412	1	5
453.582	1	1
453.753	1	14
453.923	1	8
454.093	1	16
454.264	1	0
454.434	1	10
454.605	1	8
454.775	1	7
454.946	1	6
455.116	1	-4
455.287	1	7
455.457	1	1
455.628	1	4
455.798	1	7
455.968	1	7
456.139	1	5
456.309	1	13
456.480	1	0
456.650	1	15
456.821	1	16
456.991	1	3
457.161	1	15
457.332	1	3
457.502	1	24
457.673	1	14
457.843	1	11
458.014	1	19
458.184	1	3
458.355	1	8
458.525	1	7
458.695	1	6
458.866	1	16
459.036	1	10
459.207	1	15
459.377	1	2
459.548	1	3
459.718	1	-2
459.888	1	18
460.059	1	18
460.229	1	5
460.400	1	12
460.570	1	11
460.740	1	7
460.911	1	14
461.081	1	11
461.252	1	8
461.422	1	7
461.593	1	13
461.763	1	12
461.933	1	9
462.104	1	13
462.274	1	1
462.445	1	4
462.615	1	8
462.785	1	6
462.956	1	6
463.126	1	14
463.297	1	5
463.467	1	7
463.638	1	10
463.808	1	14
463.978	1	10
464.149	1	0
464.319	1	14
464.490	1	2
464.660	1	16
464.830	1	7
465.001	1	9
465.171	1	6
465.342	1	1
465.512	1	8
465.682	1	0
465.853	1	1
466.023	1	1
466.194	1	9
466.364	1	10
466.534	1	7
466.705	1	-1
466.875	1	6
467.045	1	0
467.216	1	8
467.386	1	4
467.557	1	11
467.727	1	13
467.897	1	-3
468.068	1	-3
468.238	1	6
468.409	1	6
468.579	1	14
468.749	1	8
468.920	1	1
469.090	1	9
469.260	1	10
469.431	1	7
469.601	1	13
469.772	1	-9
469.942	1	9
470.112	1	8
470.283	1	13
470.453	1	18
470.623	1	0
470.794	1	18
470.964	1	-2
471.135	1	15
471.305	1	0
471.475	1	-3
471.646	1	3
471.816	1	7
471.986	1	20
472.157	1	10
472.327	1	5
472.497	1	14
472.668	1	4
472.838	1	11
473.009	1	10
473.179	1	15
473.349	1	12
473.520	1	10
473.690	1	14
473.860	1	9
474.031	1	7
474.201	1	12
474.371	1	11
474.542	1	12
474.712	1	17
474.882	1	-2
475.053	1	9
475.223	1	-9
475.394	1	-3
475.564	1	8
475.734	1	17
475.905	1	9
476.075	1	6
476.245	1	19
476.416	1	-6
476.586	1	3
476.756	1	-1
476.927	1	1
477.097	1	4
477.267	1	15
477.438	1	13
477.608	1	6
477.778	1	8
477.949	1	14
478.119	1	18
478.289	1	-4
478.460	1	-4
478.630	1	15
478.800	1	17
478.971	1	5
479.141	1	4
479.311	1	11
479.482	1	4
479.652	1	11
479.822	1	7
479.993	1	7
480.163	1	8
480.333	1	4
480.504	1	2
480.674	1	3
480.844	1	-2
481.015	1	-2
481.185	1	-6
481.355	1	5
481.525	1	14
481.696	1	11
481.866	1	12
482.036	1	-1
482.207	1	6
482.377	1	17
482.547	1	-4
482.718	1	3
482.888	1	8
483.058	1	9
483.229	1	8
483.399	1	9
483.569	1	5
483.740	1	4
483.910	1	-8
484.080	1	-5
484.250	1	-3
484.421	1	9
484.591	1	5
484.761	1	11
484.932	1	6
485.102	1	17
485.272	1	0
485.443	1	7
485.613	1	18
485.783	1	10
485.953	1	5
486.124	1	3
486.294	1	4
486.464	1	-3
486.635	1	14
486.805	1	2
486.975	1	5
487.146	1	-9
487.316	1	-1
487.486	1	-1
487.656	1	-7
487.827	1	7
487.997	1	11
488.167	1	1
488.338	1	7
488.508	1	10
488.678	1	3
488.848	1	5
489.019	1	1
489.189	1	0
489.359	1	8
489.529	1	16
489.700	1	6
489.870	1	-4
490.040	1	-1
490.211	1	1
490.381	1	7
490.551	1	-9
490.721	1	4
490.892	1	-2
491.062	1	0
491.232	1	0
491.402	1	-1
491.573	1	5
491.743	1	5
491.913	1	-8
492.084	1	12
492.254	1	3
492.424	1	14
492.594	1	7
492.765	1	8
492.935	1	-2
493.105	1	15
493.275	1	4
493.446	1	-1
493.616	1	11
493.786	1	-2
493.956	1	-1
494.127	1	14
494.297	1	8
494.467	1	4
494.637	1	14
494.808	1	9
494.978	1	8
495.148	1	9
495.318	1	9
495.489	1	-4
495.659	1	1
495.829	1	12
495.999	1	11
496.170	1	-6
496.340	1	6
496.510	1	5
496.680	1	-3
496.851	1	4
497.021	1	-1
497.191	1	7
497.361	1	1
497.532	1	-1
497.702	1	12
497.872	1	7
498.042	1	14
498.213	1	10
498.383	1	7
498.553	1	3
498.723	1	6
498.894	1	10
499.064	1	1
499.234	1	2
499.404	1	-5
499.574	1	-3
499.745	1	5
499.915	1	5
500.085	1	4
500.255	1	0
500.426	1	12
500.596	1	9
500.766	1	2
500.936	1	7
501.106	1	9
501.277	1	4
501.447	1	6
501.617	1	8
501.787	1	6
501.958	1	-4
502.128	1	-6
502.298	1	-4
502.468	1	15
502.638	1	-5
502.809	1	2
502.979	1	7
503.149	1	-3
503.319	1	2
503.489	1	-2
503.660	1	-2
503.830	1	12
504.000	1	5
504.170	1	8
504.340	1	1
504.511	1	7
504.681	1	-5
504.851	1	-3
505.021	1	9
505.192	1	0
505.362	1	-3
505.532	1	10
505.702	1	2
505.872	1	1
506.043	1	6
506.213	1	8
506.383	1	2
506.553	1	12
506.723	1	8
506.893	1	5
507.064	1	2
507.234	1	2
507.404	1	6
507.574	1	-1
507.744	1	12
507.915	1	7
508.085	1	6
508.255	1	2
508.425	1	1
508.595	1	0
508.766	1	7
508.936	1	3
509.106	1	3
509.276	1	6
509.446	1	2
509.616	1	3
509.787	1	2
509.957	1	5
510.127	1	3
510.297	1	-2
510.467	1	-3
510.638	1	11
510.808	1	-2
510.978	1	-2
511.148	1	18
511.318	1	0
511.488	1	11
511.659	1	-2
511.829	1	9
511.999	1	4
512.169	1	-1
512.339	1	5
512.509	1	5
512.680	1	0
512.850	1	7
513.020	1	-6
513.190	1	6
513.360	1	6
513.530	1	-2
513.700	1	9
513.871	1	10
514.041	1	9
514.211	1	3
514.381	1	13
514.551	1	-4
514.721	1	5
514.892	1	3
515.062	1	5
515.232	1	4
515.402	1	6
515.572	1	-1
515.742	1	8
515.912	1	-2
516.083	1	5
516.253	1	1
516.423	1	4
516.593	1	6
516.763	1	1
516.933	1	-4
517.104	1	-6
517.274	1	-4
517.444	1	-5
517.614	1	-4
517.784	1	7
517.954	1	11
518.124	1	-6
518.294	1	12
518.465	1	7
518.635	1	4
518.805	1	18
518.975	1	-3
519.145	1	0
519.315	1	-4
519.485	1	3
519.656	1	0
519.826	1	10
519.996	1	-7
520.166	1	3
520.336	1	-8
520.506	1	-5
520.676	1	10
520.846	1	9
521.017	1	1
521.187	1	1
521.357	1	2
521.527	1	5
521.697	1	0
521.867	1	-5
522.037	1	-3
522.207	1	-3
522.377	1	4
522.548	1	1
522.718	1	10
522.888	1	8
523.058	1	7
523.228	1	4
523.398	1	7
523.568	1	2
523.738	1	0
523.909	1	-1
524.079	1	7
524.249	1	5
524.419	1	6
524.589	1	0
524.759	1	6
524.929	1	0
525.099	1	4
525.269	1	6
525.439	1	1
525.610	1	-1
525.780	1	9
525.950	1	6
526.120	1	-2
526.290	1	-4
526.460	1	-3
526.630	1	11
526.800	1	4
526.970	1	12
527.140	1	1
527.311	1	7
527.481	1	5
527.651	1	0
527.821	1	-4
527.991	1	3
528.161	1	4
528.331	1	10
528.501	1	8
528.671	1	6
528.841	1	12
529.011	1	-7
529.181	1	7
529.352	1	-4
529.522	1	-6
529.692	1	-6
529.862	1	9
530.032	1	3
530.202	1	3
530.372	1	-1
530.542	1	3
530.712	1	0
530.882	1	-1
531.052	1	12
531.222	1	-1
531.392	1	9
531.563	1	2
531.733	1	11
531.903	1	5
532.073	1	-4
532.243	1	-12
532.413	1	11
532.583	1	5
532.753	1	2
532.923	1	14
533.093	1	13
533.263	1	-6
533.433	1	9
533.603	1	2
533.773	1	-6
533.943	1	-8
534.113	1	1
534.284	1	-6
534.454	1	-6
534.624	1	5
534.794	1	-8
534.964	1	10
535.134	1	16
535.304	1	3
535.474	1	-8
535.644	1	3
535.814	1	0
535.984	1	10
536.154	1	6
536.324	1	5
536.494	1	0
536.664	1	1
536.834	1	-4
537.004	1	0
537.174	1	3
537.344	1	5
537.514	1	10
537.685	1	3
537.855	1	1
538.025	1	-1
538.195	1	5
538.365	1	5
538.535	1	-6
538.705	1	17
538.875	1	4
539.045	1	0
539.215	1	-16
539.385	1	16
539.555	1	5
539.725	1	-8
539.895	1	12
540.065	1	-8
540.235	1	5
540.405	1	4
540.575	1	5
540.745	1	4
540.915	1	2
541.085	1	-17
541.255	1	-3
541.425	1	3
541.595	1	2
541.765	1	13
541.935	1	0
542.105	1	4
542.275	1	0
542.445	1	6
542.615	1	8
542.785	1	1
542.955	1	0
543.125	1	-4
543.295	1	0
543.465	1	4
543.635	1	-3
543.805	1	1
543.975	1	-3
544.145	1	-4
544.315	1	-1
544.485	1	4
544.655	1	9
544.825	1	0
544.995	1	5
545.165	1	3
545.335	1	-4
545.505	1	9
545.675	1	-10
545.845	1	1
546.015	1	4
546.185	1	7
546.355	1	6
546.525	1	3
546.695	1	7
546.865	1	10
547.035	1	11
547.205	1	8
547.375	1	7
547.545	1	12
547.715	1	1
547.885	1	10
548.055	1	-11
548.225	1	3
548.395	1	-3
548.565	1	0
548.735	1	4
548.905	1	-8
549.075	1	3
549.245	1	9
549.415	1	-2
549.585	1	18
549.755	1	-2
549.925	1	0
550.095	1	-1
550.265	1	0
550.435	1	-11
550.605	1	3
550.775	1	-8
550.945	1	4
551.115	1	0
551.285	1	0
551.455	1	6
551.625	1	1
551.795	1	3
551.965	1	7
552.135	1	-9
552.305	1	-7
552.475	1	0
552.645	1	2
552.815	1	4
552.985	1	1
553.155	1	5
553.325	1	4
553.495	1	-3
553.665	1	8
553.835	1	5
554.004	1	-12
554.174	1	-5
554.344	1	3
554.514	1	-3
554.684	1	-8
554.854	1	-5
555.024	1	2
555.194	1	-1
555.364	1	13
555.534	1	1
555.704	1	6
555.874	1	-9
556.044	1	9
556.214	1	15
556.384	1	10
556.554	1	2
556.724	1	5
556.894	1	-2
557.064	1	2
557.234	1	-6
557.404	1	-1
557.573	1	1
557.743	1	0
557.913	1	-4
558.083	1	11
558.253	1	-11
558.423	1	-5
558.593	1	4
558.763	1	4
558.933	1	7
559.103	1	13
559.273	1	-2
559.443	1	7
559.613	1	3
559.783	1	9
559.953	1	3
560.122	1	-6
560.292	1	4
560.462	1	2
560.632	1	9
560.802	1	0
560.972	1	3
561.142	1	6
561.312	1	5
561.482	1	16
561.652	1	2
561.822	1	-8
561.992	1	-10
562.162	1	12
562.331	1	1
562.501	1	-8
562.671	1	9
562.841	1	-5
563.011	1	-9
563.181	1	8
563.351	1	-6
563.521	1	7
563.691	1	4
563.861	1	-12
564.031	1	-11
564.201	1	6
564.370	1	-5
564.540	1	0
564.710	1	2
564.880	1	0
565.050	1	6
565.220	1	-5
565.390	1	1
565.560	1	3
565.730	1	-3
565.900	1	-9
566.069	1	7
566.239	1	-6
566.409	1	9
566.579	1	-6
566.749	1	-1
566.919	1	6
567.089	1	-2
567.259	1	2
567.429	1	6
567.599	1	-9
567.768	1	0
567.938	1	-7
568.108	1	5
568.278	1	-5
568.448	1	4
568.618	1	6
568.788	1	-21
568.958	1	-6
569.128	1	-10
569.297	1	-10
569.467	1	1
569.637	1	-3
569.807	1	0
569.977	1	13
570.147	1	-4
570.317	1	5
570.487	1	-3
570.656	1	-2
570.826	1	-2
570.996	1	1
571.166	1	-6
571.336	1	-1
571.506	1	-4
571.676	1	-13
571.846	1	-5
572.015	1	2
572.185	1	2
572.355	1	-1
572.525	1	-2
572.695	1	-2
572.865	1	11
573.035	1	-2
573.205	1	0
573.374	1	5
573.544	1	1
573.714	1	3
573.884	1	-3
574.054	1	-4
574.224	1	-1
574.394	1	0
574.563	1	12
574.733	1	3
574.903	1	2
575.073	1	-2
575.243	1	12
575.413	1	-2
575.583	1	-1
575.752	1	3
575.922	1	5
576.092	1	-12
576.262	1	3
576.432	1	8
576.602	1	2
576.772	1	-2
576.941	1	10
577.111	1	16
577.281	1	18
577.451	1	-2
577.621	1	2
577.791	1	-3
577.960	1	-7
578.130	1	4
578.300	1	3
578.470	1	0
578.640	1	9
578.810	1	-1
578.979	1	-6
579.149	1	-13
579.319	1	8
579.489	1	5
579.659	1	4
579.829	1	7
579.998	1	-3
580.168	1	-5
580.338	1	6
580.508	1	6
580.678	1	13
580.848	1	-5
581.017	1	-1
581.187	1	4
581.357	1	0
581.527	1	-4
581.697	1	-4
581.867	1	-1
582.036	1	1
582.206	1	-2
582.376	1	1
582.546	1	18
582.716	1	-2
582.885	1	2
583.055	1	-8
583.225	1	-8
583.395	1	-1
583.565	1	-5
583.735	1	4
583.904	1	-5
584.074	1	-2
584.244	1	6
584.414	1	-3
584.584	1	3
584.753	1	5
584.923	1	14
585.093	1	3
585.263	1	-4
585.433	1	9
585.602	1	6
585.772	1	5
585.942	1	-6
586.112	1	0
586.282	1	7
586.451	1	-4
586.621	1	-4
586.791	1	-8
586.961	1	8
587.131	1	0
587.300	1	6
587.470	1	0
587.640	1	4
587.810	1	-12
587.980	1	-12
588.149	1	-2
588.319	1	4
588.489	1	-6
588.659	1	8
588.829	1	-7
588.998	1	5
589.168	1	4
589.338	1	-2
589.508	1	3
589.677	1	-2
589.847	1	-4
590.017	1	5
590.187	1	-2
590.357	1	-11
590.526	1	14
590.696	1	5
590.866	1	-5
591.036	1	-5
591.205	1	2
591.375	1	2
591.545	1	8
591.715	1	-3
591.885	1	3
592.054	1	-9
592.224	1	1
592.394	1	-7
592.564	1	10
592.733	1	-1
592.903	1	-1
593.073	1	-5
593.243	1	5
593.412	1	-9
593.582	1	2
593.752	1	-2
593.922	1	5
594.091	1	0
594.261	1	-8
594.431	1	3
594.601	1	-2
594.771	1	4
594.940	1	-2
595.110	1	1
595.280	1	0
595.450	1	13
595.619	1	1
595.789	1	2
595.959	1	4
596.129	1	0
596.298	1	-6
596.468	1	3
596.638	1	-2
596.808	1	-1
596.977	1	10
597.147	1	2
597.317	1	1
597.487	1	-7
597.656	1	13
597.826	1	2
597.996	1	-1
598.166	1	7
598.335	1	-4
598.505	1	-3
598.675	1	-2
598.844	1	4
599.014	1	3
599.184	1	0
599.354	1	-4
599.523	1	3
599.693	1	6
599.863	1	-3
600.033	1	1
600.202	1	3
600.372	1	2
600.542	1	0
600.712	1	12
600.881	1	15
601.051	1	8
601.221	1	5
601.390	1	3
601.560	1	1
601.730	1	10
601.900	1	21
602.069	1	-7
602.239	1	0
602.409	1	2
602.578	1	7
602.748	1	5
602.918	1	1
603.088	1	12
603.257	1	5
603.427	1	16
603.597	1	-2
603.767	1	1
603.936	1	7
604.106	1	-2
604.276	1	8
604.445	1	-7
604.615	1	-3
604.785	1	9
604.954	1	8
605.124	1	7
605.294	1	5
605.464	1	-11
605.633	1	7
605.803	1	3
605.973	1	1
606.142	1	1
606.312	1	15
606.482	1	5
606.652	1	5
606.821	1	11
606.991	1	-5
607.161	1	5
607.330	1	2
607.500	1	13
607.670	1	0
607.839	1	2
608.009	1	6
608.179	1	2
608.348	1	0
608.518	1	-5
608.688	1	3
608.858	1	4
609.027	1	7
609.197	1	8
609.367	1	-5
609.536	1	13
609.706	1	-3
609.876	1	0
610.045	1	2
610.215	1	14
610.385	1	-5
610.554	1	4
610.724	1	-3
610.894	1	-3
611.063	1	1
611.233	1	-8
611.403	1	1
611.572	1	-5
611.742	1	3
611.912	1	10
612.081	1	6
612.251	1	3
612.421	1	6
612.590	1	-4
612.760	1	6
612.930	1	1
613.099	1	4
613.269	1	-3
613.439	1	2
613.608	1	4
613.778	1	2
613.948	1	0
614.117	1	3
614.287	1	-4
614.457	1	-6
614.626	1	9
614.796	1	17
614.966	1	-8
615.135	1	2
615.305	1	13
615.475	1	-3
615.644	1	1
615.814	1	0
615.984	1	1
616.153	1	-2
616.323	1	-2
616.493	1	8
616.662	1	3
616.832	1	4
617.002	1	-6
617.171	1	3
617.341	1	-2
617.511	1	4
617.680	1	5
617.850	1	-9
618.019	1	1
618.189	1	2
618.359	1	-3
618.528	1	-4
618.698	1	1
618.868	1	1
619.037	1	3
619.207	1	8
619.377	1	6
619.546	1	-15
619.716	1	5
619.885	1	-2
620.055	1	12
620.225	1	10
620.394	1	5
620.564	1	-12
620.734	1	-1
620.903	1	9
621.073	1	3
621.242	1	-13
621.412	1	3
621.582	1	-1
621.751	1	7
621.921	1	18
622.091	1	1
622.260	1	5
622.430	1	15
622.599	1	9
622.769	1	-8
622.939	1	3
623.108	1	12
623.278	1	5
623.448	1	5
623.617	1	5
623.787	1	11
623.956	1	8
624.126	1	3
624.296	1	11
624.465	1	10
624.635	1	4
624.804	1	6
624.974	1	2
625.144	1	18
625.313	1	-2
625.483	1	1
625.652	1	21
625.822	1	2
625.992	1	11
626.161	1	-3
626.331	1	6
626.501	1	-3
626.670	1	10
626.840	1	6
627.009	1	0
627.179	1	-7
627.348	1	11
627.518	1	6
627.688	1	-1
627.857	1	-4
628.027	1	-9
628.196	1	-8
628.366	1	-2
628.536	1	7
628.705	1	5
628.875	1	13
629.044	1	5
629.214	1	8
629.384	1	3
629.553	1	3
629.723	1	-8
629.892	1	-7
630.062	1	-6
630.232	1	13
630.401	1	1
630.571	1	11
630.740	1	-4
630.910	1	4
631.079	1	4
631.249	1	0
631.419	1	5
631.588	1	2
631.758	1	-5
631.927	1	1
632.097	1	6
632.266	1	-5
632.436	1	11
632.606	1	-4
632.775	1	16
632.945	1	-12
633.114	1	9
633.284	1	7
633.453	1	-1
633.623	1	13
633.793	1	0
633.962	1	-2
634.132	1	4
634.301	1	-4
634.471	1	-13
634.640	1	10
634.810	1	11
634.979	1	7
635.149	1	-3
635.319	1	5
635.488	1	2
635.658	1	9
635.827	1	-6
635.997	1	4
636.166	1	2
636.336	1	3
636.505	1	3
636.675	1	5
636.845	1	6
637.014	1	2
637.184	1	7
637.353	1	2
637.523	1	4
637.692	1	-2
637.862	1	1
638.031	1	1
638.201	1	-3
638.370	1	6
638.540	1	8
638.710	1	7
638.879	1	2
639.049	1	-1
639.218	1	20
639.388	1	5
639.557	1	2
639.727	1	8
639.896	1	-2
640.066	1	10
640.235	1	-1
640.405	1	6
640.574	1	-6
640.744	1	-3
640.914	1	6
641.083	1	-8
641.253	1	8
641.422	1	10
641.592	1	2
641.761	1	3
641.931	1	0
642.100	1	7
642.270	1	-4
642.439	1	2
642.609	1	10
642.778	1	5
642.948	1	2
643.117	1	4
643.287	1	-4
643.456	1	9
643.626	1	1
643.795	1	10
643.965	1	-2
644.134	1	-5
644.304	1	9
644.473	1	-2
644.643	1	-3
644.812	1	3
644.982	1	7
645.151	1	3
645.321	1	1
645.490	1	7
645.660	1	-4
645.829	1	3
645.999	1	-2
646.168	1	7
646.338	1	3
646.507	1	4
646.677	1	-5
646.846	1	4
647.016	1	9
647.185	1	10
647.355	1	6
647.524	1	-5
647.694	1	-1
647.863	1	-1
648.033	1	-1
648.202	1	3
648.372	1	-5
648.541	1	-2
648.711	1	4
648.880	1	6
649.050	1	-1
649.219	1	3
649.389	1	3
649.558	1	5
649.728	1	6
649.897	1	-5
650.067	1	0
650.236	1	-5
650.406	1	17
650.575	1	15
650.745	1	6
650.914	1	-2
651.084	1	2
651.253	1	-5
651.423	1	-3
651.592	1	1
651.762	1	4
651.931	1	0
652.101	1	13
652.270	1	-2
652.440	1	-1
652.609	1	11
652.778	1	4
652.948	1	3
653.117	1	2
653.287	1	6
653.456	1	5
653.626	1	-5
653.795	1	1
653.965	1	-4
654.134	1	-2
654.304	1	9
654.473	1	-5
654.643	1	5
654.812	1	-2
654.982	1	7
655.151	1	4
655.320	1	10
655.490	1	-1
655.659	1	1
655.829	1	-1
655.998	1	-6
656.168	1	2
656.337	1	2
656.507	1	-1
656.676	1	-3
656.846	1	3
657.015	1	-1
657.184	1	2
657.354	1	1
657.523	1	1
657.693	1	-5
657.862	1	-19
658.032	1	5
658.201	1	3
658.371	1	-4
658.540	1	4
658.709	1	-4
658.879	1	9
659.048	1	-3
659.218	1	2
659.387	1	15
659.557	1	1
659.726	1	-2
659.895	1	-2
660.065	1	13
660.234	1	1
660.404	1	3
660.573	1	13
660.743	1	-3
660.912	1	-10
661.081	1	-9
661.251	1	7
661.420	1	2
661.590	1	-7
661.759	1	0
661.929	1	6
662.098	1	6
662.267	1	6
662.437	1	4
662.606	1	4
662.776	1	-8
662.945	1	8
663.115	1	8
663.284	1	-5
663.453	1	15
663.623	1	3
663.792	1	2
663.962	1	-3
664.131	1	0
664.300	1	-6
664.470	1	3
664.639	1	0
664.809	1	5
664.978	1	-2
665.148	1	-10
665.317	1	-13
665.486	1	-2
665.656	1	9
665.825	1	0
665.995	1	-8
666.164	1	10
666.333	1	1
666.503	1	5
666.672	1	13
666.842	1	-8
667.011	1	-2
667.180	1	1
667.350	1	-2
667.519	1	-2
667.689	1	-8
667.858	1	4
668.027	1	10
668.197	1	7
668.366	1	-3
668.536	1	0
668.705	1	14
668.874	1	0
669.044	1	9
669.213	1	4
669.382	1	11
669.552	1	10
669.721	1	1
669.891	1	3
670.060	1	0
670.229	1	0
670.399	1	-1
670.568	1	-7
670.738	1	-3
670.907	1	3
671.076	1	-3
671.246	1	-3
671.415	1	7
671.584	1	2
671.754	1	3
671.923	1	7
672.093	1	4
672.262	1	3
672.431	1	4
672.601	1	7
672.770	1	-6
672.939	1	-7
673.109	1	5
673.278	1	-8
673.448	1	2
673.617	1	4
673.786	1	4
