325.333	1	4
325.504	1	-4
325.675	1	3
325.846	1	-2
326.017	1	-1
326.188	1	-8
326.359	1	10
326.531	1	8
326.702	1	11
326.873	1	-1
327.044	1	0
327.215	1	-2
327.386	1	5
327.557	1	-4
327.728	1	8
327.899	1	-2
328.070	1	3
328.241	1	-2
328.412	1	-2
328.583	1	7
328.754	1	-3
328.926	1	0
329.097	1	-1
329.268	1	-7
329.439	1	3
329.610	1	-4
329.781	1	1
329.952	1	1
330.123	1	-2
330.294	1	9
330.465	1	0
330.636	1	8
330.807	1	-4
330.978	1	-4
331.149	1	0
331.320	1	-2
331.492	1	-2
331.663	1	-10
331.834	1	-5
332.005	1	5
332.176	1	5
332.347	1	7
332.518	1	5
332.689	1	-1
332.860	1	5
333.031	1	5
333.202	1	8
333.373	1	-3
333.544	1	-9
333.715	1	-10
333.886	1	-1
334.057	1	3
334.228	1	2
334.399	1	6
334.570	1	-10
334.741	1	1
334.912	1	-3
335.084	1	-2
335.255	1	5
335.426	1	4
335.597	1	2
335.768	1	1
335.939	1	-5
336.110	1	3
336.281	1	1
336.452	1	-2
336.623	1	-4
336.794	1	-5
336.965	1	-5
337.136	1	8
337.307	1	5
337.478	1	0
337.649	1	-8
337.820	1	-1
337.991	1	6
338.162	1	3
338.333	1	4
338.504	1	14
338.675	1	13
338.846	1	4
339.017	1	11
339.188	1	6
339.359	1	8
339.530	1	6
339.701	1	-1
339.872	1	4
340.043	1	-9
340.214	1	4
340.385	1	6
340.556	1	2
340.727	1	-4
340.898	1	5
341.069	1	-4
341.240	1	-2
341.411	1	9
341.582	1	15
341.753	1	-7
341.924	1	-3
342.095	1	9
342.266	1	-1
342.437	1	-10
342.608	1	1
342.779	1	0
342.950	1	3
343.121	1	-7
343.292	1	1
343.463	1	2
343.634	1	2
343.805	1	-8
343.976	1	-10
344.147	1	12
344.318	1	-4
344.489	1	14
344.660	1	7
344.831	1	4
345.002	1	2
345.173	1	6
345.344	1	-11
345.515	1	-3
345.686	1	0
345.857	1	-5
346.028	1	-12
346.199	1	6
346.370	1	4
346.541	1	-3
346.712	1	3
346.883	1	7
347.054	1	5
347.225	1	-10
347.396	1	-4
347.567	1	6
347.738	1	3
347.909	1	4
348.080	1	8
348.251	1	3
348.422	1	-3
348.593	1	8
348.764	1	5
348.935	1	-3
349.106	1	5
349.277	1	3
349.448	1	8
349.619	1	6
349.790	1	5
349.961	1	0
350.132	1	17
350.303	1	-6
350.474	1	-11
350.645	1	6
350.816	1	0
350.987	1	11
351.157	1	-1
351.328	1	-1
351.499	1	15
351.670	1	-3
351.841	1	-1
352.012	1	3
352.183	1	-3
352.354	1	0
352.525	1	-3
352.696	1	-3
352.867	1	5
353.038	1	0
353.209	1	-3
353.380	1	7
353.551	1	1
353.722	1	11
353.893	1	-2
354.064	1	-1
354.235	1	14
354.406	1	5
354.576	1	-3
354.747	1	5
354.918	1	10
355.089	1	0
355.260	1	1
355.431	1	-2
355.602	1	5
355.773	1	-12
355.944	1	-1
356.115	1	-1
356.286	1	-2
356.457	1	16
356.628	1	-5
356.799	1	4
356.970	1	2
357.141	1	11
357.311	1	1
357.482	1	0
357.653	1	-8
357.824	1	0
357.995	1	6
358.166	1	4
358.337	1	-2
358.508	1	-9
358.679	1	3
358.850	1	2
359.021	1	4
359.192	1	-3
359.363	1	-5
359.533	1	-5
359.704	1	-2
359.875	1	4
360.046	1	-7
360.217	1	-8
360.388	1	-4
360.559	1	6
360.730	1	-5
360.901	1	1
361.072	1	-5
361.243	1	1
361.414	1	6
361.584	1	2
361.755	1	5
361.926	1	-4
362.097	1	-5
362.268	1	10
362.439	1	2
362.610	1	-2
362.781	1	5
362.952	1	2
363.123	1	-6
363.293	1	-11
363.464	1	6
363.635	1	8
363.806	1	-6
363.977	1	9
364.148	1	0
364.319	1	-6
364.490	1	1
364.661	1	3
364.832	1	1
365.002	1	-10
365.173	1	-9
365.344	1	0
365.515	1	-3
365.686	1	-4
365.857	1	5
366.028	1	6
366.199	1	3
366.370	1	1
366.540	1	-8
366.711	1	6
366.882	1	-7
367.053	1	6
367.224	1	3
367.395	1	2
367.566	1	11
367.737	1	0
367.908	1	3
368.078	1	0
368.249	1	2
368.420	1	3
368.591	1	-5
368.762	1	-9
368.933	1	10
369.104	1	1
369.274	1	18
369.445	1	7
369.616	1	-4
369.787	1	-3
369.958	1	10
370.129	1	8
370.300	1	2
370.471	1	1
370.641	1	3
370.812	1	4
370.983	1	-6
371.154	1	2
371.325	1	3
371.496	1	-4
371.667	1	7
371.837	1	7
372.008	1	8
372.179	1	2
372.350	1	6
372.521	1	0
372.692	1	8
372.863	1	-4
373.033	1	8
373.204	1	7
373.375	1	6
373.546	1	11
373.717	1	-1
373.888	1	5
374.059	1	2
374.229	1	3
374.400	1	9
374.571	1	0
374.742	1	5
374.913	1	10
375.084	1	7
375.254	1	-7
375.425	1	6
375.596	1	-1
375.767	1	-13
375.938	1	-10
376.109	1	-2
376.279	1	5
376.450	1	7
376.621	1	8
376.792	1	3
376.963	1	3
377.134	1	5
377.304	1	-3
377.475	1	7
377.646	1	-7
377.817	1	-10
377.988	1	-2
378.159	1	6
378.329	1	7
378.500	1	5
378.671	1	-6
378.842	1	2
379.013	1	7
379.184	1	0
379.354	1	2
379.525	1	-4
379.696	1	16
379.867	1	-4
380.038	1	1
380.209	1	-1
380.379	1	14
380.550	1	2
380.721	1	-6
380.892	1	6
381.063	1	-5
381.233	1	13
381.404	1	-5
381.575	1	-3
381.746	1	4
381.917	1	-4
382.087	1	4
382.258	1	7
382.429	1	4
382.600	1	5
382.771	1	-7
382.941	1	3
383.112	1	-3
383.283	1	3
383.454	1	4
383.625	1	2
383.795	1	8
383.966	1	-6
384.137	1	9
384.308	1	4
384.479	1	2
384.649	1	17
384.820	1	7
384.991	1	5
385.162	1	-2
385.333	1	1
385.503	1	6
385.674	1	5
385.845	1	1
386.016	1	10
386.187	1	-6
386.357	1	9
386.528	1	-6
386.699	1	6
386.870	1	4
387.041	1	1
387.211	1	6
387.382	1	-5
387.553	1	-5
387.724	1	-3
387.894	1	7
388.065	1	17
388.236	1	4
388.407	1	13
388.578	1	2
388.748	1	6
388.919	1	1
389.090	1	5
389.261	1	10
389.431	1	13
389.602	1	-2
389.773	1	-7
389.944	1	5
390.114	1	19
390.285	1	7
390.456	1	1
390.627	1	-1
390.798	1	6
390.968	1	2
391.139	1	-4
391.310	1	8
391.481	1	5
391.651	1	8
391.822	1	3
391.993	1	8
392.164	1	1
392.334	1	-5
392.505	1	3
392.676	1	-2
392.847	1	12
393.017	1	0
393.188	1	1
393.359	1	11
393.530	1	14
393.700	1	11
393.871	1	2
394.042	1	17
394.213	1	3
394.383	1	-4
394.554	1	12
394.725	1	13
394.896	1	10
395.066	1	7
395.237	1	-6
395.408	1	-1
395.579	1	7
395.749	1	5
395.920	1	4
396.091	1	9
396.262	1	-11
396.432	1	3
396.603	1	6
396.774	1	3
396.945	1	-6
397.115	1	-4
397.286	1	13
397.457	1	5
397.627	1	-3
397.798	1	9
397.969	1	5
398.140	1	-2
398.310	1	11
398.481	1	6
398.652	1	-8
398.823	1	-3
398.993	1	20
399.164	1	0
399.335	1	2
399.505	1	8
399.676	1	13
399.847	1	11
400.018	1	-5
400.188	1	6
400.359	1	8
400.530	1	1
400.700	1	1
400.871	1	12
401.042	1	12
401.213	1	3
401.383	1	10
401.554	1	10
401.725	1	5
401.895	1	-9
402.066	1	7
402.237	1	22
402.408	1	10
402.578	1	2
402.749	1	8
402.920	1	7
403.090	1	14
403.261	1	8
403.432	1	6
403.603	1	-5
403.773	1	13
403.944	1	20
404.115	1	2
404.285	1	17
404.456	1	14
404.627	1	4
404.797	1	11
404.968	1	0
405.139	1	6
405.310	1	-3
405.480	1	1
405.651	1	13
405.822	1	24
405.992	1	-1
406.163	1	11
406.334	1	7
406.504	1	5
406.675	1	5
406.846	1	1
407.016	1	-5
407.187	1	-1
407.358	1	4
407.528	1	10
407.699	1	1
407.870	1	10
408.041	1	2
408.211	1	4
408.382	1	3
408.553	1	-13
408.723	1	0
408.894	1	10
409.065	1	14
409.235	1	4
409.406	1	10
409.577	1	4
409.747	1	18
409.918	1	-3
410.089	1	0
410.259	1	-6
410.430	1	5
410.601	1	1
410.771	1	4
410.942	1	-3
411.113	1	13
411.283	1	10
411.454	1	10
411.625	1	11
411.795	1	-1
411.966	1	-8
412.137	1	4
412.307	1	8
412.478	1	11
412.649	1	3
412.819	1	-3
412.990	1	12
413.161	1	9
413.331	1	4
413.502	1	-7
413.672	1	3
413.843	1	11
414.014	1	14
414.184	1	8
414.355	1	3
414.526	1	14
414.696	1	8
414.867	1	5
415.038	1	-9
415.208	1	16
415.379	1	8
415.550	1	6
415.720	1	-2
415.891	1	12
416.062	1	5
416.232	1	4
416.403	1	5
416.573	1	6
416.744	1	4
416.915	1	3
417.085	1	-2
417.256	1	13
417.427	1	5
417.597	1	7
417.768	1	8
417.939	1	14
418.109	1	-6
418.280	1	9
418.450	1	19
418.621	1	0
418.792	1	-2
418.962	1	3
419.133	1	7
419.304	1	-2
419.474	1	1
419.645	1	1
419.815	1	5
419.986	1	2
420.157	1	18
420.327	1	7
420.498	1	0
420.669	1	12
420.839	1	9
421.010	1	12
421.180	1	-8
421.351	1	11
421.522	1	8
421.692	1	7
421.863	1	5
422.033	1	14
422.204	1	5
422.375	1	7
422.545	1	4
422.716	1	1
422.886	1	15
423.057	1	1
423.228	1	7
423.398	1	14
423.569	1	13
423.740	1	-4
423.910	1	16
424.081	1	3
424.251	1	6
424.422	1	-7
424.593	1	7
424.763	1	-3
424.934	1	9
425.104	1	6
425.275	1	6
425.445	1	17
425.616	1	10
425.787	1	7
425.957	1	14
426.128	1	11
426.298	1	-1
426.469	1	-6
426.640	1	4
426.810	1	14
426.981	1	6
427.151	1	-3
427.322	1	-6
427.493	1	4
427.663	1	14
427.834	1	8
428.004	1	5
428.175	1	10
428.345	1	15
428.516	1	1
428.687	1	3
428.857	1	5
429.028	1	3
429.198	1	7
429.369	1	2
429.540	1	-2
429.710	1	10
429.881	1	0
430.051	1	0
430.222	1	7
430.392	1	4
430.563	1	12
430.734	1	18
430.904	1	2
431.075	1	-3
431.245	1	9
431.416	1	-2
431.586	1	-5
431.757	1	7
431.927	1	-14
432.098	1	7
432.269	1	7
432.439	1	11
432.610	1	1
432.780	1	1
432.951	1	-4
433.121	1	19
433.292	1	9
433.462	1	8
433.633	1	6
433.804	1	-5
433.974	1	4
434.145	1	7
434.315	1	12
434.486	1	-2
434.656	1	-1
434.827	1	12
434.997	1	16
435.168	1	4
435.339	1	3
435.509	1	6
435.680	1	3
435.850	1	-2
436.021	1	2
436.191	1	11
436.362	1	11
436.532	1	14
436.703	1	15
436.873	1	2
437.044	1	7
437.214	1	10
437.385	1	19
437.556	1	4
437.726	1	-5
437.897	1	-8
438.067	1	8
438.238	1	13
438.408	1	4
438.579	1	6
438.749	1	-8
438.920	1	-1
439.090	1	-3
439.261	1	-5
439.431	1	-1
439.602	1	5
439.772	1	11
439.943	1	17
440.113	1	7
440.284	1	9
440.455	1	8
440.625	1	5
440.796	1	0
440.966	1	0
441.137	1	-8
441.307	1	2
441.478	1	9
441.648	1	5
441.819	1	2
441.989	1	3
442.160	1	4
442.330	1	7
442.501	1	-1
442.671	1	2
442.842	1	11
443.012	1	1
443.183	1	3
443.353	1	7
443.524	1	0
443.694	1	-1
443.865	1	7
444.035	1	7
444.206	1	2
444.376	1	6
444.547	1	-2
444.717	1	10
444.888	1	7
445.058	1	9
445.229	1	0
445.399	1	7
445.570	1	-4
445.740	1	4
445.911	1	4
446.081	1	8
446.252	1	-10
446.422	1	9
446.593	1	5
446.763	1	13
446.934	1	17
447.104	1	7
447.275	1	17
447.445	1	-5
447.616	1	1
447.786	1	-3
447.957	1	10
448.127	1	12
448.298	1	4
448.468	1	15
448.639	1	5
448.809	1	4
448.979	1	1
449.150	1	-2
449.320	1	12
449.491	1	13
449.661	1	16
449.832	1	9
450.002	1	7
450.173	1	-3
450.343	1	8
450.514	1	2
450.684	1	8
450.855	1	12
451.025	1	8
451.196	1	8
451.366	1	7
451.537	1	6
451.707	1	8
451.878	1	3
452.048	1	3
452.218	1	1
452.389	1	9
452.559	1	-1
452.730	1	1
452.900	1	6
453.071	1	-3
453.241	1	1
453.412	1	-6
453.582	1	0
453.753	1	9
453.923	1	13
454.093	1	13
454.264	1	3
454.434	1	3
454.605	1	6
454.775	1	-4
454.946	1	15
455.116	1	5
455.287	1	-1
455.457	1	5
455.628	1	3
455.798	1	6
455.968	1	5
456.139	1	-5
456.309	1	21
456.480	1	-1
456.650	1	20
456.821	1	19
456.991	1	10
457.161	1	1
457.332	1	-1
457.502	1	21
457.673	1	17
457.843	1	3
458.014	1	1
458.184	1	-5
458.355	1	-4
458.525	1	7
458.695	1	4
458.866	1	11
459.036	1	5
459.207	1	2
459.377	1	5
459.548	1	2
459.718	1	7
459.888	1	19
460.059	1	12
460.229	1	3
460.400	1	1
460.570	1	11
460.740	1	3
460.911	1	13
461.081	1	13
461.252	1	0
461.422	1	10
461.593	1	10
461.763	1	12
461.933	1	10
462.104	1	-2
462.274	1	-4
462.445	1	1
462.615	1	0
462.785	1	0
462.956	1	5
463.126	1	10
463.297	1	12
463.467	1	8
463.638	1	6
463.808	1	13
463.978	1	7
464.149	1	0
464.319	1	4
464.490	1	-2
464.660	1	5
464.830	1	14
465.001	1	2
465.171	1	2
465.342	1	1
465.512	1	5
465.682	1	-2
465.853	1	-5
466.023	1	-3
466.194	1	5
466.364	1	4
466.534	1	6
466.705	1	-7
466.875	1	3
467.045	1	4
467.216	1	7
467.386	1	10
467.557	1	4
467.727	1	6
467.897	1	-4
468.068	1	-15
468.238	1	14
468.409	1	7
468.579	1	11
468.749	1	6
468.920	1	-4
469.090	1	6
469.260	1	2
469.431	1	12
469.601	1	-1
469.772	1	-10
469.942	1	10
470.112	1	3
470.283	1	17
470.453	1	11
470.623	1	0
470.794	1	2
470.964	1	0
471.135	1	6
471.305	1	4
471.475	1	5
471.646	1	-4
471.816	1	5
471.986	1	9
472.157	1	2
472.327	1	4
472.497	1	18
472.668	1	5
472.838	1	5
473.009	1	7
473.179	1	10
473.349	1	16
473.520	1	11
473.690	1	16
473.860	1	6
474.031	1	8
474.201	1	9
474.371	1	-3
474.542	1	11
474.712	1	9
474.882	1	-2
475.053	1	14
475.223	1	-5
475.394	1	-3
475.564	1	5
475.734	1	5
475.905	1	-4
476.075	1	2
476.245	1	3
476.416	1	-11
476.586	1	7
476.756	1	8
476.927	1	-9
477.097	1	3
477.267	1	1
477.438	1	12
477.608	1	-2
477.778	1	1
477.949	1	4
478.119	1	15
478.289	1	-2
478.460	1	1
478.630	1	19
478.800	1	11
478.971	1	9
479.141	1	9
479.311	1	15
479.482	1	0
479.652	1	9
479.822	1	4
479.993	1	-2
480.163	1	7
480.333	1	4
480.504	1	4
480.674	1	-2
480.844	1	3
481.015	1	-2
481.185	1	-2
481.355	1	3
481.525	1	10
481.696	1	-4
481.866	1	9
482.036	1	4
482.207	1	3
482.377	1	11
482.547	1	-5
482.718	1	2
482.888	1	8
483.058	1	0
483.229	1	0
483.399	1	6
483.569	1	6
483.740	1	1
483.910	1	1
484.080	1	-1
484.250	1	3
484.421	1	-5
484.591	1	-3
484.761	1	8
484.932	1	4
485.102	1	0
485.272	1	-2
485.443	1	-2
485.613	1	-1
485.783	1	19
485.953	1	1
486.124	1	0
486.294	1	-4
486.464	1	-1
486.635	1	13
486.805	1	-3
486.975	1	8
487.146	1	-5
487.316	1	-1
487.486	1	-7
487.656	1	-11
487.827	1	4
487.997	1	1
488.167	1	2
488.338	1	0
488.508	1	10
488.678	1	12
488.848	1	-9
489.019	1	0
489.189	1	-11
489.359	1	6
489.529	1	9
489.700	1	-1
489.870	1	-3
490.040	1	-1
490.211	1	-3
490.381	1	6
490.551	1	-3
490.721	1	-7
490.892	1	9
491.062	1	-5
491.232	1	-5
491.402	1	11
491.573	1	2
491.743	1	13
491.913	1	-9
492.084	1	10
492.254	1	-1
492.424	1	8
492.594	1	8
492.765	1	1
492.935	1	0
493.105	1	12
493.275	1	6
493.446	1	5
493.616	1	1
493.786	1	-1
493.956	1	1
494.127	1	6
494.297	1	-6
494.467	1	3
494.637	1	5
494.808	1	8
494.978	1	-4
495.148	1	5
495.318	1	12
495.489	1	-3
495.659	1	-3
495.829	1	7
495.999	1	3
496.170	1	-4
496.340	1	4
496.510	1	-4
496.680	1	-1
496.851	1	4
497.021	1	-8
497.191	1	3
497.361	1	-10
497.532	1	2
497.702	1	6
497.872	1	15
498.042	1	10
498.213	1	9
498.383	1	4
498.553	1	-3
498.723	1	6
498.894	1	-4
499.064	1	-1
499.234	1	-1
499.404	1	-1
499.574	1	2
499.745	1	-3
499.915	1	3
500.085	1	3
500.255	1	4
500.426	1	7
500.596	1	-2
500.766	1	1
500.936	1	-1
501.106	1	6
501.277	1	5
501.447	1	5
501.617	1	-1
501.787	1	2
501.958	1	-2
502.128	1	-3
502.298	1	7
502.468	1	8
502.638	1	2
502.809	1	4
502.979	1	9
503.149	1	1
503.319	1	0
503.489	1	-1
503.660	1	0
503.830	1	-6
504.000	1	7
504.170	1	1
504.340	1	4
504.511	1	4
504.681	1	0
504.851	1	3
505.021	1	12
505.192	1	-11
505.362	1	5
505.532	1	4
505.702	1	-3
505.872	1	3
506.043	1	4
506.213	1	17
506.383	1	-2
506.553	1	2
506.723	1	-5
506.893	1	-6
507.064	1	-1
507.234	1	-1
507.404	1	7
507.574	1	-1
507.744	1	0
507.915	1	6
508.085	1	8
508.255	1	8
508.425	1	3
508.595	1	0
508.766	1	-4
508.936	1	-2
509.106	1	5
509.276	1	6
509.446	1	-4
509.616	1	3
509.787	1	5
509.957	1	1
510.127	1	-6
510.297	1	1
510.467	1	-4
510.638	1	1
510.808	1	-6
510.978	1	3
511.148	1	11
511.318	1	-8
511.488	1	9
511.659	1	-7
511.829	1	0
511.999	1	0
512.169	1	-6
512.339	1	2
512.509	1	-6
512.680	1	-2
512.850	1	6
513.020	1	-4
513.190	1	-4
513.360	1	0
513.530	1	1
513.700	1	-3
513.871	1	5
514.041	1	-1
514.211	1	5
514.381	1	14
514.551	1	1
514.721	1	3
514.892	1	8
515.062	1	3
515.232	1	12
515.402	1	1
515.572	1	-1
515.742	1	1
515.912	1	-5
516.083	1	3
516.253	1	9
516.423	1	1
516.593	1	6
516.763	1	-1
516.933	1	-13
517.104	1	-6
517.274	1	2
517.444	1	6
517.614	1	-11
517.784	1	11
517.954	1	17
518.124	1	-6
518.294	1	11
518.465	1	7
518.635	1	4
518.805	1	13
518.975	1	-1
519.145	1	-2
519.315	1	-6
519.485	1	-6
519.656	1	-1
519.826	1	8
519.996	1	1
520.166	1	7
520.336	1	5
520.506	1	-14
520.676	1	1
520.846	1	-1
521.017	1	-12
521.187	1	9
521.357	1	0
521.527	1	6
521.697	1	12
521.867	1	8
522.037	1	-10
522.207	1	3
522.377	1	-1
522.548	1	8
522.718	1	0
522.888	1	2
523.058	1	1
523.228	1	6
523.398	1	3
523.568	1	0
523.738	1	-4
523.909	1	-4
524.079	1	-4
524.249	1	-6
524.419	1	-2
524.589	1	-11
524.759	1	7
524.929	1	-5
525.099	1	-8
525.269	1	18
525.439	1	0
525.610	1	2
525.780	1	4
525.950	1	-2
526.120	1	-3
526.290	1	3
526.460	1	2
526.630	1	9
526.800	1	3
526.970	1	2
527.140	1	0
527.311	1	-6
527.481	1	6
527.651	1	-3
527.821	1	-9
527.991	1	0
528.161	1	13
528.331	1	0
528.501	1	8
528.671	1	0
528.841	1	9
529.011	1	1
529.181	1	7
529.352	1	0
529.522	1	-4
529.692	1	-2
529.862	1	6
530.032	1	6
530.202	1	1
530.372	1	8
530.542	1	-5
530.712	1	-3
530.882	1	-5
531.052	1	6
531.222	1	-9
531.392	1	15
531.563	1	-1
531.733	1	5
531.903	1	3
532.073	1	1
532.243	1	0
532.413	1	10
532.583	1	-2
532.753	1	2
532.923	1	10
533.093	1	6
533.263	1	-4
533.433	1	7
533.603	1	4
533.773	1	-2
533.943	1	-2
534.113	1	-7
534.284	1	-2
534.454	1	-2
534.624	1	3
534.794	1	-12
534.964	1	-2
535.134	1	4
535.304	1	0
535.474	1	-1
535.644	1	4
535.814	1	3
535.984	1	2
536.154	1	-1
536.324	1	11
536.494	1	-2
536.664	1	4
536.834	1	-7
537.004	1	-4
537.174	1	3
537.344	1	5
537.514	1	-3
537.685	1	2
537.855	1	-3
538.025	1	7
538.195	1	2
538.365	1	4
538.535	1	4
538.705	1	5
538.875	1	6
539.045	1	5
539.215	1	-22
539.385	1	-6
539.555	1	-4
539.725	1	-10
539.895	1	9
540.065	1	-3
540.235	1	2
540.405	1	3
540.575	1	0
540.745	1	-3
540.915	1	1
541.085	1	-10
541.255	1	-3
541.425	1	8
541.595	1	10
541.765	1	8
541.935	1	-12
542.105	1	4
542.275	1	1
542.445	1	-1
542.615	1	6
542.785	1	1
542.955	1	-7
543.125	1	-8
543.295	1	-4
543.465	1	-6
543.635	1	2
543.805	1	13
543.975	1	6
544.145	1	-4
544.315	1	-5
544.485	1	1
544.655	1	6
544.825	1	-2
544.995	1	2
545.165	1	0
545.335	1	1
545.505	1	4
545.675	1	-9
545.845	1	5
546.015	1	3
546.185	1	2
546.355	1	2
546.525	1	0
546.695	1	-9
546.865	1	14
547.035	1	6
547.205	1	-2
547.375	1	2
547.545	1	5
547.715	1	14
547.885	1	4
548.055	1	-12
548.225	1	-1
548.395	1	-11
548.565	1	3
548.735	1	9
548.905	1	-4
549.075	1	7
549.245	1	-2
549.415	1	-1
549.585	1	4
549.755	1	14
549.925	1	0
550.095	1	-3
550.265	1	-9
550.435	1	-7
550.605	1	-1
550.775	1	-1
550.945	1	11
551.115	1	3
551.285	1	-3
551.455	1	2
551.625	1	-7
551.795	1	4
551.965	1	5
552.135	1	-3
552.305	1	-5
552.475	1	-4
552.645	1	3
552.815	1	-5
552.985	1	1
553.155	1	0
553.325	1	-2
553.495	1	7
553.665	1	8
553.835	1	4
554.004	1	-14
554.174	1	1
554.344	1	-9
554.514	1	3
554.684	1	-2
554.854	1	-2
555.024	1	8
555.194	1	5
555.364	1	-3
555.534	1	-10
555.704	1	7
555.874	1	-10
556.044	1	2
556.214	1	-2
556.384	1	-1
556.554	1	7
556.724	1	-3
556.894	1	-4
557.064	1	3
557.234	1	-8
557.404	1	2
557.573	1	-7
557.743	1	2
557.913	1	-6
558.083	1	9
558.253	1	0
558.423	1	0
558.593	1	5
558.763	1	8
558.933	1	3
559.103	1	9
559.273	1	-11
559.443	1	12
559.613	1	-1
559.783	1	9
559.953	1	8
560.122	1	-6
560.292	1	6
560.462	1	-7
560.632	1	-1
560.802	1	-5
560.972	1	-8
561.142	1	0
561.312	1	0
561.482	1	9
561.652	1	0
561.822	1	1
561.992	1	-12
562.162	1	4
562.331	1	1
562.501	1	-2
562.671	1	5
562.841	1	-6
563.011	1	-3
563.181	1	0
563.351	1	4
563.521	1	6
563.691	1	12
563.861	1	-11
564.031	1	-5
564.201	1	-1
564.370	1	-7
564.540	1	-5
564.710	1	-1
564.880	1	6
565.050	1	-6
565.220	1	-3
565.390	1	4
565.560	1	-3
565.730	1	5
565.900	1	-8
566.069	1	1
566.239	1	1
566.409	1	7
566.579	1	-4
566.749	1	3
566.919	1	0
567.089	1	1
567.259	1	8
567.429	1	6
567.599	1	-3
567.768	1	-4
567.938	1	-8
568.108	1	10
568.278	1	-1
568.448	1	9
568.618	1	10
568.788	1	-13
568.958	1	-4
569.128	1	-18
569.297	1	-7
569.467	1	14
569.637	1	5
569.807	1	-1
569.977	1	-1
570.147	1	5
570.317	1	4
570.487	1	9
570.656	1	4
570.826	1	-7
570.996	1	5
571.166	1	1
571.336	1	-3
571.506	1	-4
571.676	1	-7
571.846	1	-12
572.015	1	-8
572.185	1	-4
572.355	1	2
572.525	1	-9
572.695	1	-7
572.865	1	15
573.035	1	-14
573.205	1	-4
573.374	1	7
573.544	1	-7
573.714	1	0
573.884	1	2
574.054	1	-6
574.224	1	3
574.394	1	-4
574.563	1	-2
574.733	1	13
574.903	1	6
575.073	1	-7
575.243	1	2
575.413	1	2
575.583	1	-2
575.752	1	-7
575.922	1	-1
576.092	1	-2
576.262	1	-6
576.432	1	11
576.602	1	2
576.772	1	-3
576.941	1	5
577.111	1	-2
577.281	1	18
577.451	1	0
577.621	1	3
577.791	1	7
577.960	1	-3
578.130	1	-2
578.300	1	7
578.470	1	11
578.640	1	-8
578.810	1	-5
578.979	1	-2
579.149	1	-4
579.319	1	-3
579.489	1	5
579.659	1	-4
579.829	1	1
579.998	1	2
580.168	1	-4
580.338	1	-1
580.508	1	1
580.678	1	17
580.848	1	-4
581.017	1	10
581.187	1	1
581.357	1	3
581.527	1	-7
581.697	1	-7
581.867	1	10
582.036	1	0
582.206	1	-1
582.376	1	-3
582.546	1	12
582.716	1	-3
582.885	1	-6
583.055	1	-10
583.225	1	2
583.395	1	1
583.565	1	-5
583.735	1	1
583.904	1	-2
584.074	1	-3
584.244	1	-7
584.414	1	1
584.584	1	-1
584.753	1	9
584.923	1	3
585.093	1	-3
585.263	1	0
585.433	1	16
585.602	1	6
585.772	1	1
585.942	1	-6
586.112	1	-1
586.282	1	7
586.451	1	-8
586.621	1	-5
586.791	1	2
586.961	1	0
587.131	1	7
587.300	1	8
587.470	1	4
587.640	1	-10
587.810	1	-3
587.980	1	-2
588.149	1	-4
588.319	1	-7
588.489	1	0
588.659	1	-2
588.829	1	-10
588.998	1	-8
589.168	1	2
589.338	1	2
589.508	1	1
589.677	1	2
589.847	1	-3
590.017	1	-3
590.187	1	-12
590.357	1	-6
590.526	1	12
590.696	1	7
590.866	1	3
591.036	1	0
591.205	1	5
591.375	1	-4
591.545	1	-2
591.715	1	-13
591.885	1	0
592.054	1	-1
592.224	1	3
592.394	1	6
592.564	1	9
592.733	1	7
592.903	1	3
593.073	1	-13
593.243	1	4
593.412	1	-3
593.582	1	2
593.752	1	1
593.922	1	8
594.091	1	-5
594.261	1	0
594.431	1	4
594.601	1	-1
594.771	1	4
594.940	1	1
595.110	1	6
595.280	1	8
595.450	1	4
595.619	1	-1
595.789	1	6
595.959	1	2
596.129	1	-7
596.298	1	-6
596.468	1	5
596.638	1	-4
596.808	1	-7
596.977	1	-3
597.147	1	-15
597.317	1	-1
597.487	1	10
597.656	1	9
597.826	1	1
597.996	1	2
598.166	1	8
598.335	1	-3
598.505	1	-9
598.675	1	-4
598.844	1	1
599.014	1	-3
599.184	1	7
599.354	1	-4
599.523	1	-1
599.693	1	2
599.863	1	-3
600.033	1	5
600.202	1	10
600.372	1	-4
600.542	1	4
600.712	1	13
600.881	1	-1
601.051	1	-1
601.221	1	9
601.390	1	5
601.560	1	3
601.730	1	-2
601.900	1	10
602.069	1	-12
602.239	1	2
602.409	1	1
602.578	1	13
602.748	1	0
602.918	1	8
603.088	1	7
603.257	1	2
603.427	1	10
603.597	1	-10
603.767	1	2
603.936	1	5
604.106	1	-3
604.276	1	-1
604.445	1	-5
604.615	1	-14
604.785	1	5
604.954	1	4
605.124	1	5
605.294	1	7
605.464	1	-3
605.633	1	2
605.803	1	6
605.973	1	-1
606.142	1	1
606.312	1	5
606.482	1	-4
606.652	1	7
606.821	1	3
606.991	1	2
607.161	1	1
607.330	1	-11
607.500	1	9
607.670	1	1
607.839	1	-6
608.009	1	-2
608.179	1	-1
608.348	1	0
608.518	1	-8
608.688	1	8
608.858	1	0
609.027	1	0
609.197	1	-6
609.367	1	-10
609.536	1	9
609.706	1	-4
609.876	1	-6
610.045	1	4
610.215	1	2
610.385	1	-7
610.554	1	11
610.724	1	-1
610.894	1	-5
611.063	1	0
611.233	1	-11
611.403	1	-5
611.572	1	8
611.742	1	0
611.912	1	3
612.081	1	9
612.251	1	-2
612.421	1	2
612.590	1	-5
612.760	1	2
612.930	1	-6
613.099	1	0
613.269	1	-4
613.439	1	4
613.608	1	7
613.778	1	-4
613.948	1	4
614.117	1	-2
614.287	1	-1
614.457	1	-3
614.626	1	16
614.796	1	4
614.966	1	6
615.135	1	0
615.305	1	7
615.475	1	-6
615.644	1	-11
615.814	1	-5
615.984	1	-1
616.153	1	-6
616.323	1	5
616.493	1	14
616.662	1	5
616.832	1	-3
617.002	1	-3
617.171	1	9
617.341	1	-7
617.511	1	-3
617.680	1	4
617.850	1	-3
618.019	1	7
618.189	1	9
618.359	1	-10
618.528	1	-1
618.698	1	0
618.868	1	-12
619.037	1	4
619.207	1	3
619.377	1	2
619.546	1	-8
619.716	1	-5
619.885	1	-1
620.055	1	15
620.225	1	-4
620.394	1	2
620.564	1	-4
620.734	1	-6
620.903	1	5
621.073	1	-4
621.242	1	-3
621.412	1	4
621.582	1	1
621.751	1	1
621.921	1	0
622.091	1	-5
622.260	1	5
622.430	1	14
622.599	1	7
622.769	1	-5
622.939	1	-8
623.108	1	1
623.278	1	15
623.448	1	5
623.617	1	4
623.787	1	6
623.956	1	9
624.126	1	-3
624.296	1	8
624.465	1	-2
624.635	1	12
624.804	1	-2
624.974	1	4
625.144	1	21
625.313	1	4
625.483	1	-2
625.652	1	10
625.822	1	-8
625.992	1	6
626.161	1	-6
626.331	1	-2
626.501	1	7
626.670	1	1
626.840	1	-1
627.009	1	4
627.179	1	-7
627.348	1	8
627.518	1	1
627.688	1	-2
627.857	1	6
628.027	1	3
628.196	1	-9
628.366	1	5
628.536	1	-7
628.705	1	-8
628.875	1	6
629.044	1	11
629.214	1	-6
629.384	1	-9
629.553	1	7
629.723	1	-6
629.892	1	-12
630.062	1	-11
630.232	1	7
630.401	1	-1
630.571	1	7
630.740	1	-5
630.910	1	-3
631.079	1	6
631.249	1	-6
631.419	1	8
631.588	1	-5
631.758	1	5
631.927	1	-6
632.097	1	-4
632.266	1	-7
632.436	1	3
632.606	1	-4
632.775	1	9
632.945	1	-5
633.114	1	1
633.284	1	0
633.453	1	4
633.623	1	9
633.793	1	3
633.962	1	3
634.132	1	0
634.301	1	-13
634.471	1	-1
634.640	1	6
634.810	1	14
634.979	1	4
635.149	1	-3
635.319	1	10
635.488	1	0
635.658	1	6
635.827	1	-13
635.997	1	5
636.166	1	0
636.336	1	0
636.505	1	1
636.675	1	2
636.845	1	1
637.014	1	7
637.184	1	10
637.353	1	-3
637.523	1	3
637.692	1	-7
637.862	1	-15
638.031	1	-6
638.201	1	4
638.370	1	7
638.540	1	1
638.710	1	4
638.879	1	10
639.049	1	-6
639.218	1	3
639.388	1	-5
639.557	1	6
639.727	1	10
639.896	1	-10
640.066	1	13
640.235	1	-3
640.405	1	1
640.574	1	-13
640.744	1	-12
640.914	1	6
641.083	1	-7
641.253	1	0
641.422	1	2
641.592	1	-6
641.761	1	3
641.931	1	-7
642.100	1	0
642.270	1	-4
642.439	1	3
642.609	1	15
642.778	1	1
642.948	1	6
643.117	1	6
643.287	1	-6
643.456	1	4
643.626	1	3
643.795	1	13
643.965	1	2
644.134	1	-5
644.304	1	6
644.473	1	0
644.643	1	-3
644.812	1	2
644.982	1	3
645.151	1	10
645.321	1	-7
645.490	1	11
645.660	1	5
645.829	1	-2
645.999	1	-2
646.168	1	6
646.338	1	0
646.507	1	-1
646.677	1	-6
646.846	1	13
647.016	1	2
647.185	1	-3
647.355	1	-4
647.524	1	3
647.694	1	-8
647.863	1	4
648.033	1	-2
648.202	1	-5
648.372	1	-2
648.541	1	4
648.711	1	2
648.880	1	-1
649.050	1	4
649.219	1	7
649.389	1	-6
649.558	1	9
649.728	1	-2
649.897	1	-8
650.067	1	-3
650.236	1	6
650.406	1	5
650.575	1	8
650.745	1	9
650.914	1	0
651.084	1	-3
651.253	1	-5
651.423	1	1
651.592	1	1
651.762	1	4
651.931	1	1
652.101	1	10
652.270	1	-7
652.440	1	1
652.609	1	6
652.778	1	1
652.948	1	-2
653.117	1	9
653.287	1	-1
653.456	1	-5
653.626	1	1
653.795	1	-4
653.965	1	-5
654.134	1	-5
654.304	1	10
654.473	1	3
654.643	1	6
654.812	1	2
654.982	1	-7
655.151	1	10
655.320	1	10
655.490	1	3
655.659	1	5
655.829	1	-3
655.998	1	-1
656.168	1	-7
656.337	1	-1
656.507	1	-4
656.676	1	-6
656.846	1	4
657.015	1	-7
657.184	1	-4
657.354	1	7
657.523	1	0
657.693	1	-2
657.862	1	-2
658.032	1	2
658.201	1	6
658.371	1	-4
658.540	1	-8
658.709	1	-6
658.879	1	12
659.048	1	-8
659.218	1	-6
659.387	1	6
659.557	1	6
659.726	1	3
659.895	1	-3
660.065	1	16
660.234	1	-9
660.404	1	-1
660.573	1	2
660.743	1	-5
660.912	1	-8
661.081	1	-9
661.251	1	-2
661.420	1	19
661.590	1	5
661.759	1	-5
661.929	1	3
662.098	1	7
662.267	1	1
662.437	1	11
662.606	1	-6
662.776	1	-3
662.945	1	7
663.115	1	7
663.284	1	7
663.453	1	0
663.623	1	5
663.792	1	7
663.962	1	-9
664.131	1	-3
664.300	1	-17
664.470	1	-4
664.639	1	-4
664.809	1	4
664.978	1	7
665.148	1	-6
665.317	1	8
665.486	1	-12
665.656	1	8
665.825	1	-6
665.995	1	-5
666.164	1	0
666.333	1	-2
666.503	1	6
666.672	1	4
666.842	1	-6
667.011	1	6
667.180	1	0
667.350	1	4
667.519	1	-4
667.689	1	-6
667.858	1	-10
668.027	1	-4
668.197	1	4
668.366	1	-5
668.536	1	-4
668.705	1	1
668.874	1	3
669.044	1	2
669.213	1	-1
669.382	1	3
669.552	1	3
669.721	1	-8
669.891	1	-5
670.060	1	1
670.229	1	-8
670.399	1	3
670.568	1	-8
670.738	1	4
670.907	1	5
671.076	1	-4
671.246	1	-10
671.415	1	3
671.584	1	-3
671.754	1	-1
671.923	1	3
672.093	1	-8
672.262	1	1
672.431	1	5
672.601	1	3
672.770	1	-2
672.939	1	6
673.109	1	2
673.278	1	-11
673.448	1	0
673.617	1	0
673.786	1	8
