325.333	1	-2
325.504	1	5
325.675	1	-3
325.846	1	-2
326.017	1	1
326.188	1	3
326.359	1	6
326.531	1	17
326.702	1	5
326.873	1	-1
327.044	1	9
327.215	1	-2
327.386	1	16
327.557	1	3
327.728	1	3
327.899	1	0
328.070	1	8
328.241	1	0
328.412	1	-1
328.583	1	7
328.754	1	0
328.926	1	14
329.097	1	5
329.268	1	3
329.439	1	-4
329.610	1	5
329.781	1	4
329.952	1	4
330.123	1	3
330.294	1	5
330.465	1	9
330.636	1	14
330.807	1	-6
330.978	1	-3
331.149	1	6
331.320	1	12
331.492	1	2
331.663	1	-8
331.834	1	-6
332.005	1	5
332.176	1	2
332.347	1	13
332.518	1	16
332.689	1	5
332.860	1	9
333.031	1	3
333.202	1	7
333.373	1	5
333.544	1	-4
333.715	1	6
333.886	1	7
334.057	1	-2
334.228	1	-4
334.399	1	0
334.570	1	2
334.741	1	6
334.912	1	5
335.084	1	-12
335.255	1	5
335.426	1	4
335.597	1	6
335.768	1	8
335.939	1	-3
336.110	1	8
336.281	1	7
336.452	1	-1
336.623	1	-2
336.794	1	2
336.965	1	3
337.136	1	6
337.307	1	11
337.478	1	-4
337.649	1	-5
337.820	1	-3
337.991	1	14
338.162	1	2
338.333	1	13
338.504	1	10
338.675	1	10
338.846	1	5
339.017	1	8
339.188	1	14
339.359	1	3
339.530	1	-1
339.701	1	-10
339.872	1	5
340.043	1	-1
340.214	1	11
340.385	1	8
340.556	1	1
340.727	1	9
340.898	1	13
341.069	1	-1
341.240	1	-2
341.411	1	7
341.582	1	7
341.753	1	-5
341.924	1	1
342.095	1	12
342.266	1	-2
342.437	1	-5
342.608	1	2
342.779	1	12
342.950	1	5
343.121	1	-2
343.292	1	4
343.463	1	12
343.634	1	7
343.805	1	7
343.976	1	-7
344.147	1	1
344.318	1	-1
344.489	1	8
344.660	1	12
344.831	1	6
345.002	1	12
345.173	1	9
345.344	1	0
345.515	1	14
345.686	1	-5
345.857	1	-2
346.028	1	4
346.199	1	14
346.370	1	4
346.541	1	8
346.712	1	3
346.883	1	15
347.054	1	-3
347.225	1	5
347.396	1	1
347.567	1	7
347.738	1	1
347.909	1	9
348.080	1	8
348.251	1	2
348.422	1	6
348.593	1	10
348.764	1	0
348.935	1	5
349.106	1	11
349.277	1	7
349.448	1	3
349.619	1	5
349.790	1	2
349.961	1	13
350.132	1	25
350.303	1	12
350.474	1	-8
350.645	1	13
350.816	1	-6
350.987	1	15
351.157	1	10
351.328	1	-2
351.499	1	11
351.670	1	-1
351.841	1	7
352.012	1	5
352.183	1	6
352.354	1	-2
352.525	1	16
352.696	1	6
352.867	1	16
353.038	1	-1
353.209	1	9
353.380	1	1
353.551	1	0
353.722	1	11
353.893	1	6
354.064	1	4
354.235	1	19
354.406	1	12
354.576	1	4
354.747	1	14
354.918	1	5
355.089	1	12
355.260	1	8
355.431	1	3
355.602	1	2
355.773	1	7
355.944	1	8
356.115	1	-3
356.286	1	11
356.457	1	8
356.628	1	1
356.799	1	6
356.970	1	-1
357.141	1	13
357.311	1	-5
357.482	1	6
357.653	1	3
357.824	1	9
357.995	1	16
358.166	1	7
358.337	1	-4
358.508	1	-6
358.679	1	12
358.850	1	6
359.021	1	15
359.192	1	2
359.363	1	0
359.533	1	0
359.704	1	4
359.875	1	1
360.046	1	8
360.217	1	-2
360.388	1	-8
360.559	1	3
360.730	1	0
360.901	1	-4
361.072	1	1
361.243	1	12
361.414	1	2
361.584	1	11
361.755	1	3
361.926	1	6
362.097	1	-7
362.268	1	12
362.439	1	9
362.610	1	2
362.781	1	2
362.952	1	11
363.123	1	-3
363.293	1	10
363.464	1	7
363.635	1	13
363.806	1	8
363.977	1	2
364.148	1	7
364.319	1	4
364.490	1	12
364.661	1	0
364.832	1	6
365.002	1	-3
365.173	1	0
365.344	1	2
365.515	1	3
365.686	1	4
365.857	1	6
366.028	1	4
366.199	1	15
366.370	1	1
366.540	1	8
366.711	1	7
366.882	1	8
367.053	1	9
367.224	1	-4
367.395	1	14
367.566	1	16
367.737	1	5
367.908	1	-2
368.078	1	7
368.249	1	13
368.420	1	-1
368.591	1	13
368.762	1	-10
368.933	1	20
369.104	1	5
369.274	1	19
369.445	1	12
369.616	1	-2
369.787	1	-3
369.958	1	21
370.129	1	3
370.300	1	10
370.471	1	10
370.641	1	6
370.812	1	18
370.983	1	-4
371.154	1	9
371.325	1	7
371.496	1	2
371.667	1	5
371.837	1	10
372.008	1	14
372.179	1	6
372.350	1	9
372.521	1	10
372.692	1	11
372.863	1	7
373.033	1	13
373.204	1	19
373.375	1	6
373.546	1	-1
373.717	1	9
373.888	1	6
374.059	1	6
374.229	1	8
374.400	1	18
374.571	1	2
374.742	1	13
374.913	1	7
375.084	1	16
375.254	1	10
375.425	1	15
375.596	1	5
375.767	1	3
375.938	1	-1
376.109	1	-1
376.279	1	18
376.450	1	-1
376.621	1	9
376.792	1	20
376.963	1	4
377.134	1	4
377.304	1	9
377.475	1	3
377.646	1	-4
377.817	1	8
377.988	1	8
378.159	1	12
378.329	1	13
378.500	1	15
378.671	1	5
378.842	1	6
379.013	1	12
379.184	1	12
379.354	1	6
379.525	1	4
379.696	1	9
379.867	1	-2
380.038	1	3
380.209	1	-2
380.379	1	15
380.550	1	3
380.721	1	11
380.892	1	13
381.063	1	5
381.233	1	10
381.404	1	9
381.575	1	13
381.746	1	9
381.917	1	-3
382.087	1	2
382.258	1	20
382.429	1	9
382.600	1	8
382.771	1	12
382.941	1	8
383.112	1	2
383.283	1	16
383.454	1	14
383.625	1	15
383.795	1	8
383.966	1	7
384.137	1	15
384.308	1	8
384.479	1	18
384.649	1	16
384.820	1	11
384.991	1	9
385.162	1	12
385.333	1	16
385.503	1	22
385.674	1	13
385.845	1	11
386.016	1	12
386.187	1	6
386.357	1	4
386.528	1	11
386.699	1	3
386.870	1	7
387.041	1	17
387.211	1	7
387.382	1	7
387.553	1	11
387.724	1	3
387.894	1	16
388.065	1	21
388.236	1	18
388.407	1	12
388.578	1	12
388.748	1	14
388.919	1	20
389.090	1	13
389.261	1	19
389.431	1	14
389.602	1	14
389.773	1	4
389.944	1	13
390.114	1	15
390.285	1	11
390.456	1	13
390.627	1	18
390.798	1	5
390.968	1	18
391.139	1	18
391.310	1	13
391.481	1	16
391.651	1	10
391.822	1	17
391.993	1	2
392.164	1	-1
392.334	1	3
392.505	1	4
392.676	1	10
392.847	1	19
393.017	1	15
393.188	1	10
393.359	1	1
393.530	1	15
393.700	1	26
393.871	1	13
394.042	1	10
394.213	1	20
394.383	1	17
394.554	1	9
394.725	1	11
394.896	1	9
395.066	1	19
395.237	1	5
395.408	1	8
395.579	1	9
395.749	1	15
395.920	1	8
396.091	1	26
396.262	1	12
396.432	1	1
396.603	1	13
396.774	1	20
396.945	1	9
397.115	1	4
397.286	1	19
397.457	1	11
397.627	1	1
397.798	1	14
397.969	1	20
398.140	1	9
398.310	1	11
398.481	1	15
398.652	1	16
398.823	1	11
398.993	1	23
399.164	1	5
399.335	1	15
399.505	1	11
399.676	1	14
399.847	1	22
400.018	1	12
400.188	1	11
400.359	1	24
400.530	1	3
400.700	1	11
400.871	1	17
401.042	1	21
401.213	1	3
401.383	1	13
401.554	1	13
401.725	1	14
401.895	1	0
402.066	1	24
402.237	1	25
402.408	1	23
402.578	1	15
402.749	1	23
402.920	1	17
403.090	1	12
403.261	1	9
403.432	1	12
403.603	1	6
403.773	1	18
403.944	1	18
404.115	1	10
404.285	1	16
404.456	1	16
404.627	1	14
404.797	1	17
404.968	1	11
405.139	1	7
405.310	1	7
405.480	1	24
405.651	1	18
405.822	1	30
405.992	1	18
406.163	1	19
406.334	1	15
406.504	1	12
406.675	1	8
406.846	1	14
407.016	1	7
407.187	1	20
407.358	1	13
407.528	1	24
407.699	1	8
407.870	1	21
408.041	1	8
408.211	1	14
408.382	1	10
408.553	1	5
408.723	1	17
408.894	1	13
409.065	1	28
409.235	1	6
409.406	1	10
409.577	1	11
409.747	1	22
409.918	1	8
410.089	1	7
410.259	1	3
410.430	1	21
410.601	1	17
410.771	1	13
410.942	1	12
411.113	1	22
411.283	1	10
411.454	1	21
411.625	1	8
411.795	1	10
411.966	1	0
412.137	1	7
412.307	1	6
412.478	1	19
412.649	1	6
412.819	1	13
412.990	1	17
413.161	1	11
413.331	1	10
413.502	1	3
413.672	1	14
413.843	1	16
414.014	1	24
414.184	1	16
414.355	1	19
414.526	1	22
414.696	1	16
414.867	1	13
415.038	1	7
415.208	1	11
415.379	1	10
415.550	1	18
415.720	1	10
415.891	1	18
416.062	1	13
416.232	1	10
416.403	1	8
416.573	1	9
416.744	1	6
416.915	1	16
417.085	1	-2
417.256	1	21
417.427	1	28
417.597	1	20
417.768	1	17
417.939	1	8
418.109	1	3
418.280	1	20
418.450	1	22
418.621	1	20
418.792	1	7
418.962	1	11
419.133	1	20
419.304	1	11
419.474	1	9
419.645	1	15
419.815	1	8
419.986	1	8
420.157	1	24
420.327	1	9
420.498	1	20
420.669	1	25
420.839	1	9
421.010	1	12
421.180	1	1
421.351	1	15
421.522	1	16
421.692	1	12
421.863	1	20
422.033	1	23
422.204	1	21
422.375	1	14
422.545	1	19
422.716	1	8
422.886	1	17
423.057	1	10
423.228	1	18
423.398	1	14
423.569	1	24
423.740	1	11
423.910	1	17
424.081	1	17
424.251	1	13
424.422	1	9
424.593	1	9
424.763	1	12
424.934	1	12
425.104	1	13
425.275	1	17
425.445	1	30
425.616	1	21
425.787	1	19
425.957	1	13
426.128	1	26
426.298	1	3
426.469	1	9
426.640	1	11
426.810	1	10
426.981	1	13
427.151	1	14
427.322	1	8
427.493	1	-2
427.663	1	9
427.834	1	14
428.004	1	24
428.175	1	18
428.345	1	19
428.516	1	17
428.687	1	12
428.857	1	17
429.028	1	12
429.198	1	14
429.369	1	13
429.540	1	11
429.710	1	22
429.881	1	17
430.051	1	16
430.222	1	4
430.392	1	21
430.563	1	19
430.734	1	20
430.904	1	14
431.075	1	9
431.245	1	17
431.416	1	1
431.586	1	14
431.757	1	17
431.927	1	7
432.098	1	27
432.269	1	20
432.439	1	15
432.610	1	19
432.780	1	16
432.951	1	2
433.121	1	18
433.292	1	16
433.462	1	19
433.633	1	24
433.804	1	11
433.974	1	16
434.145	1	18
434.315	1	17
434.486	1	3
434.656	1	19
434.827	1	12
434.997	1	10
435.168	1	12
435.339	1	14
435.509	1	11
435.680	1	18
435.850	1	9
436.021	1	18
436.191	1	12
436.362	1	14
436.532	1	16
436.703	1	21
436.873	1	10
437.044	1	13
437.214	1	17
437.385	1	18
437.556	1	13
437.726	1	14
437.897	1	5
438.067	1	8
438.238	1	13
438.408	1	14
438.579	1	16
438.749	1	-1
438.920	1	15
439.090	1	8
439.261	1	15
439.431	1	28
439.602	1	9
439.772	1	18
439.943	1	16
440.113	1	14
440.284	1	17
440.455	1	23
440.625	1	10
440.796	1	10
440.966	1	9
441.137	1	15
441.307	1	15
441.478	1	13
441.648	1	11
441.819	1	14
441.989	1	7
442.160	1	15
442.330	1	30
442.501	1	8
442.671	1	18
442.842	1	16
443.012	1	3
443.183	1	6
443.353	1	17
443.524	1	17
443.694	1	9
443.865	1	13
444.035	1	14
444.206	1	12
444.376	1	24
444.547	1	13
444.717	1	18
444.888	1	5
445.058	1	7
445.229	1	9
445.399	1	16
445.570	1	8
445.740	1	16
445.911	1	21
446.081	1	21
446.252	1	3
446.422	1	19
446.593	1	12
446.763	1	4
446.934	1	20
447.104	1	12
447.275	1	22
447.445	1	19
447.616	1	5
447.786	1	15
447.957	1	16
448.127	1	28
448.298	1	11
448.468	1	14
448.639	1	5
448.809	1	10
448.979	1	20
449.150	1	20
449.320	1	20
449.491	1	22
449.661	1	10
449.832	1	16
450.002	1	31
450.173	1	12
450.343	1	22
450.514	1	16
450.684	1	10
450.855	1	14
451.025	1	15
451.196	1	21
451.366	1	10
451.537	1	9
451.707	1	18
451.878	1	18
452.048	1	9
452.218	1	7
452.389	1	14
452.559	1	6
452.730	1	18
452.900	1	8
453.071	1	12
453.241	1	14
453.412	1	10
453.582	1	7
453.753	1	16
453.923	1	20
454.093	1	18
454.264	1	15
454.434	1	10
454.605	1	18
454.775	1	11
454.946	1	12
455.116	1	7
455.287	1	21
455.457	1	15
455.628	1	13
455.798	1	19
455.968	1	9
456.139	1	13
456.309	1	17
456.480	1	6
456.650	1	24
456.821	1	24
456.991	1	14
457.161	1	23
457.332	1	22
457.502	1	19
457.673	1	9
457.843	1	15
458.014	1	10
458.184	1	4
458.355	1	16
458.525	1	11
458.695	1	14
458.866	1	22
459.036	1	13
459.207	1	24
459.377	1	4
459.548	1	-6
459.718	1	8
459.888	1	16
460.059	1	22
460.229	1	9
460.400	1	9
460.570	1	19
460.740	1	4
460.911	1	19
461.081	1	17
461.252	1	12
461.422	1	12
461.593	1	10
461.763	1	15
461.933	1	13
462.104	1	19
462.274	1	3
462.445	1	9
462.615	1	9
462.785	1	9
462.956	1	18
463.126	1	14
463.297	1	7
463.467	1	15
463.638	1	11
463.808	1	24
463.978	1	20
464.149	1	-1
464.319	1	17
464.490	1	14
464.660	1	7
464.830	1	6
465.001	1	11
465.171	1	11
465.342	1	5
465.512	1	2
465.682	1	13
465.853	1	3
466.023	1	9
466.194	1	5
466.364	1	15
466.534	1	11
466.705	1	-2
466.875	1	18
467.045	1	8
467.216	1	24
467.386	1	22
467.557	1	15
467.727	1	16
467.897	1	9
468.068	1	0
468.238	1	1
468.409	1	13
468.579	1	10
468.749	1	13
468.920	1	14
469.090	1	16
469.260	1	12
469.431	1	23
469.601	1	5
469.772	1	0
469.942	1	15
470.112	1	8
470.283	1	21
470.453	1	13
470.623	1	2
470.794	1	9
470.964	1	21
471.135	1	16
471.305	1	16
471.475	1	4
471.646	1	15
471.816	1	18
471.986	1	14
472.157	1	20
472.327	1	16
472.497	1	22
472.668	1	7
472.838	1	16
473.009	1	13
473.179	1	11
473.349	1	11
473.520	1	8
473.690	1	11
473.860	1	4
474.031	1	12
474.201	1	3
474.371	1	12
474.542	1	19
474.712	1	12
474.882	1	8
475.053	1	21
475.223	1	2
475.394	1	-1
475.564	1	1
475.734	1	19
475.905	1	15
476.075	1	4
476.245	1	21
476.416	1	-1
476.586	1	14
476.756	1	10
476.927	1	6
477.097	1	9
477.267	1	13
477.438	1	15
477.608	1	5
477.778	1	3
477.949	1	7
478.119	1	11
478.289	1	4
478.460	1	-3
478.630	1	16
478.800	1	20
478.971	1	6
479.141	1	7
479.311	1	10
479.482	1	12
479.652	1	16
479.822	1	12
479.993	1	6
480.163	1	15
480.333	1	7
480.504	1	15
480.674	1	1
480.844	1	11
481.015	1	1
481.185	1	5
481.355	1	6
481.525	1	9
481.696	1	0
481.866	1	18
482.036	1	9
482.207	1	8
482.377	1	18
482.547	1	3
482.718	1	18
482.888	1	9
483.058	1	8
483.229	1	9
483.399	1	19
483.569	1	9
483.740	1	12
483.910	1	-1
484.080	1	7
484.250	1	-5
484.421	1	9
484.591	1	13
484.761	1	9
484.932	1	7
485.102	1	13
485.272	1	5
485.443	1	18
485.613	1	18
485.783	1	15
485.953	1	11
486.124	1	5
486.294	1	3
486.464	1	-6
486.635	1	14
486.805	1	1
486.975	1	8
487.146	1	3
487.316	1	4
487.486	1	11
487.656	1	3
487.827	1	3
487.997	1	-1
488.167	1	11
488.338	1	1
488.508	1	10
488.678	1	12
488.848	1	15
489.019	1	16
489.189	1	9
489.359	1	5
489.529	1	4
489.700	1	9
489.870	1	-3
490.040	1	12
490.211	1	16
490.381	1	7
490.551	1	8
490.721	1	16
490.892	1	10
491.062	1	3
491.232	1	5
491.402	1	5
491.573	1	-1
491.743	1	9
491.913	1	1
492.084	1	12
492.254	1	12
492.424	1	11
492.594	1	18
492.765	1	6
492.935	1	2
493.105	1	13
493.275	1	2
493.446	1	5
493.616	1	9
493.786	1	0
493.956	1	5
494.127	1	20
494.297	1	1
494.467	1	9
494.637	1	16
494.808	1	11
494.978	1	-3
495.148	1	8
495.318	1	14
495.489	1	-1
495.659	1	-4
495.829	1	3
495.999	1	1
496.170	1	7
496.340	1	13
496.510	1	3
496.680	1	10
496.851	1	6
497.021	1	-4
497.191	1	7
497.361	1	1
497.532	1	4
497.702	1	10
497.872	1	14
498.042	1	6
498.213	1	13
498.383	1	13
498.553	1	10
498.723	1	10
498.894	1	12
499.064	1	-1
499.234	1	0
499.404	1	-1
499.574	1	0
499.745	1	-1
499.915	1	5
500.085	1	9
500.255	1	5
500.426	1	5
500.596	1	8
500.766	1	-3
500.936	1	3
501.106	1	4
501.277	1	20
501.447	1	3
501.617	1	6
501.787	1	6
501.958	1	5
502.128	1	-17
502.298	1	-1
502.468	1	4
502.638	1	12
502.809	1	6
502.979	1	7
503.149	1	2
503.319	1	9
503.489	1	-1
503.660	1	-4
503.830	1	3
504.000	1	12
504.170	1	11
504.340	1	-1
504.511	1	18
504.681	1	-4
504.851	1	8
505.021	1	13
505.192	1	-1
505.362	1	6
505.532	1	18
505.702	1	-5
505.872	1	9
506.043	1	17
506.213	1	15
506.383	1	2
506.553	1	2
506.723	1	7
506.893	1	-3
507.064	1	-7
507.234	1	11
507.404	1	5
507.574	1	7
507.744	1	7
507.915	1	14
508.085	1	11
508.255	1	1
508.425	1	6
508.595	1	1
508.766	1	11
508.936	1	13
509.106	1	1
509.276	1	4
509.446	1	7
509.616	1	3
509.787	1	7
509.957	1	13
510.127	1	9
510.297	1	-2
510.467	1	1
510.638	1	13
510.808	1	5
510.978	1	-5
511.148	1	23
511.318	1	10
511.488	1	9
511.659	1	-4
511.829	1	4
511.999	1	9
512.169	1	-3
512.339	1	11
512.509	1	7
512.680	1	-1
512.850	1	3
513.020	1	11
513.190	1	9
513.360	1	5
513.530	1	9
513.700	1	11
513.871	1	10
514.041	1	3
514.211	1	10
514.381	1	16
514.551	1	2
514.721	1	7
514.892	1	0
515.062	1	-1
515.232	1	8
515.402	1	4
515.572	1	10
515.742	1	5
515.912	1	6
516.083	1	1
516.253	1	7
516.423	1	8
516.593	1	4
516.763	1	8
516.933	1	-6
517.104	1	-3
517.274	1	-3
517.444	1	-7
517.614	1	1
517.784	1	7
517.954	1	10
518.124	1	-3
518.294	1	12
518.465	1	9
518.635	1	3
518.805	1	16
518.975	1	-2
519.145	1	5
519.315	1	6
519.485	1	2
519.656	1	13
519.826	1	10
519.996	1	0
520.166	1	16
520.336	1	5
520.506	1	-7
520.676	1	-4
520.846	1	1
521.017	1	-1
521.187	1	10
521.357	1	3
521.527	1	6
521.697	1	11
521.867	1	5
522.037	1	-1
522.207	1	0
522.377	1	6
522.548	1	2
522.718	1	6
522.888	1	14
523.058	1	2
523.228	1	7
523.398	1	1
523.568	1	1
523.738	1	5
523.909	1	11
524.079	1	-1
524.249	1	5
524.419	1	0
524.589	1	1
524.759	1	-1
524.929	1	4
525.099	1	5
525.269	1	12
525.439	1	4
525.610	1	3
525.780	1	2
525.950	1	15
526.120	1	-5
526.290	1	10
526.460	1	-7
526.630	1	4
526.800	1	8
526.970	1	7
527.140	1	3
527.311	1	8
527.481	1	4
527.651	1	-10
527.821	1	-3
527.991	1	3
528.161	1	1
528.331	1	9
528.501	1	18
528.671	1	3
528.841	1	9
529.011	1	-6
529.181	1	3
529.352	1	-5
529.522	1	-1
529.692	1	1
529.862	1	12
530.032	1	11
530.202	1	8
530.372	1	-3
530.542	1	-5
530.712	1	-5
530.882	1	0
531.052	1	10
531.222	1	4
531.392	1	3
531.563	1	5
531.733	1	2
531.903	1	10
532.073	1	4
532.243	1	4
532.413	1	8
532.583	1	-1
532.753	1	10
532.923	1	13
533.093	1	13
533.263	1	-6
533.433	1	14
533.603	1	4
533.773	1	2
533.943	1	-6
534.113	1	6
534.284	1	-1
534.454	1	-6
534.624	1	6
534.794	1	-4
534.964	1	2
535.134	1	12
535.304	1	3
535.474	1	-3
535.644	1	8
535.814	1	7
535.984	1	17
536.154	1	2
536.324	1	7
536.494	1	-2
536.664	1	5
536.834	1	5
537.004	1	1
537.174	1	3
537.344	1	13
537.514	1	4
537.685	1	3
537.855	1	0
538.025	1	14
538.195	1	2
538.365	1	2
538.535	1	-4
538.705	1	13
538.875	1	10
539.045	1	5
539.215	1	-9
539.385	1	-4
539.555	1	4
539.725	1	9
539.895	1	11
540.065	1	-1
540.235	1	9
540.405	1	3
540.575	1	-1
540.745	1	0
540.915	1	7
541.085	1	-9
541.255	1	-10
541.425	1	9
541.595	1	4
541.765	1	16
541.935	1	0
542.105	1	0
542.275	1	-5
542.445	1	2
542.615	1	6
542.785	1	-6
542.955	1	-3
543.125	1	-13
543.295	1	1
543.465	1	12
543.635	1	2
543.805	1	6
543.975	1	-1
544.145	1	-2
544.315	1	8
544.485	1	5
544.655	1	9
544.825	1	7
544.995	1	-2
545.165	1	-2
545.335	1	5
545.505	1	11
545.675	1	-6
545.845	1	13
546.015	1	-1
546.185	1	0
546.355	1	10
546.525	1	5
546.695	1	5
546.865	1	7
547.035	1	2
547.205	1	9
547.375	1	10
547.545	1	10
547.715	1	3
547.885	1	11
548.055	1	-12
548.225	1	6
548.395	1	-4
548.565	1	3
548.735	1	0
548.905	1	-4
549.075	1	1
549.245	1	7
549.415	1	-2
549.585	1	18
549.755	1	8
549.925	1	-3
550.095	1	-3
550.265	1	4
550.435	1	-10
550.605	1	-1
550.775	1	7
550.945	1	5
551.115	1	-5
551.285	1	1
551.455	1	7
551.625	1	-6
551.795	1	-9
551.965	1	6
552.135	1	2
552.305	1	-4
552.475	1	2
552.645	1	5
552.815	1	-6
552.985	1	-5
553.155	1	-3
553.325	1	9
553.495	1	7
553.665	1	5
553.835	1	3
554.004	1	-10
554.174	1	-1
554.344	1	-1
554.514	1	5
554.684	1	-1
554.854	1	2
555.024	1	-1
555.194	1	8
555.364	1	4
555.534	1	9
555.704	1	11
555.874	1	3
556.044	1	5
556.214	1	7
556.384	1	5
556.554	1	9
556.724	1	12
556.894	1	0
557.064	1	5
557.234	1	-4
557.404	1	2
557.573	1	0
557.743	1	6
557.913	1	-8
558.083	1	5
558.253	1	-4
558.423	1	2
558.593	1	7
558.763	1	10
558.933	1	-3
559.103	1	10
559.273	1	-4
559.443	1	15
559.613	1	10
559.783	1	10
559.953	1	9
560.122	1	3
560.292	1	-1
560.462	1	0
560.632	1	10
560.802	1	7
560.972	1	3
561.142	1	13
561.312	1	10
561.482	1	11
561.652	1	8
561.822	1	-2
561.992	1	-8
562.162	1	8
562.331	1	9
562.501	1	-7
562.671	1	10
562.841	1	3
563.011	1	-6
563.181	1	11
563.351	1	3
563.521	1	5
563.691	1	8
563.861	1	-3
564.031	1	-9
564.201	1	3
564.370	1	0
564.540	1	0
564.710	1	-7
564.880	1	-2
565.050	1	10
565.220	1	-1
565.390	1	4
565.560	1	-2
565.730	1	11
565.900	1	-5
566.069	1	7
566.239	1	4
566.409	1	8
566.579	1	5
566.749	1	5
566.919	1	-1
567.089	1	2
567.259	1	5
567.429	1	-1
567.599	1	4
567.768	1	0
567.938	1	-11
568.108	1	-3
568.278	1	2
568.448	1	5
568.618	1	9
568.788	1	-14
568.958	1	-1
569.128	1	-7
569.297	1	-3
569.467	1	4
569.637	1	7
569.807	1	7
569.977	1	5
570.147	1	-3
570.317	1	2
570.487	1	9
570.656	1	-6
570.826	1	-2
570.996	1	-2
571.166	1	5
571.336	1	2
571.506	1	2
571.676	1	-5
571.846	1	3
572.015	1	4
572.185	1	2
572.355	1	12
572.525	1	-5
572.695	1	8
572.865	1	9
573.035	1	0
573.205	1	-10
573.374	1	19
573.544	1	0
573.714	1	-1
573.884	1	9
574.054	1	-2
574.224	1	0
574.394	1	0
574.563	1	11
574.733	1	10
574.903	1	3
575.073	1	5
575.243	1	1
575.413	1	-2
575.583	1	0
575.752	1	3
575.922	1	14
576.092	1	0
576.262	1	12
576.432	1	10
576.602	1	6
576.772	1	4
576.941	1	14
577.111	1	0
577.281	1	14
577.451	1	8
577.621	1	3
577.791	1	0
577.960	1	1
578.130	1	3
578.300	1	7
578.470	1	1
578.640	1	2
578.810	1	1
578.979	1	-4
579.149	1	1
579.319	1	8
579.489	1	-4
579.659	1	4
579.829	1	8
579.998	1	10
580.168	1	-3
580.338	1	5
580.508	1	5
580.678	1	15
580.848	1	-1
581.017	1	10
581.187	1	7
581.357	1	5
581.527	1	5
581.697	1	-9
581.867	1	6
582.036	1	-2
582.206	1	1
582.376	1	5
582.546	1	22
582.716	1	4
582.885	1	4
583.055	1	-2
583.225	1	-5
583.395	1	3
583.565	1	-5
583.735	1	-1
583.904	1	2
584.074	1	-5
584.244	1	5
584.414	1	-3
584.584	1	9
584.753	1	12
584.923	1	-2
585.093	1	-3
585.263	1	1
585.433	1	10
585.602	1	-1
585.772	1	7
585.942	1	9
586.112	1	3
586.282	1	11
586.451	1	-9
586.621	1	-9
586.791	1	3
586.961	1	6
587.131	1	0
587.300	1	10
587.470	1	2
587.640	1	-6
587.810	1	-5
587.980	1	-11
588.149	1	9
588.319	1	9
588.489	1	-8
588.659	1	14
588.829	1	3
588.998	1	-4
589.168	1	5
589.338	1	3
589.508	1	19
589.677	1	3
589.847	1	3
590.017	1	4
590.187	1	7
590.357	1	2
590.526	1	12
590.696	1	0
590.866	1	-1
591.036	1	-6
591.205	1	0
591.375	1	10
591.545	1	2
591.715	1	-6
591.885	1	-11
592.054	1	0
592.224	1	6
592.394	1	1
592.564	1	0
592.733	1	2
592.903	1	-8
593.073	1	-2
593.243	1	5
593.412	1	2
593.582	1	-2
593.752	1	-11
593.922	1	3
594.091	1	2
594.261	1	5
594.431	1	2
594.601	1	2
594.771	1	15
594.940	1	13
595.110	1	4
595.280	1	5
595.450	1	6
595.619	1	-2
595.789	1	12
595.959	1	3
596.129	1	-7
596.298	1	5
596.468	1	3
596.638	1	-1
596.808	1	4
596.977	1	5
597.147	1	2
597.317	1	0
597.487	1	17
597.656	1	0
597.826	1	-4
597.996	1	1
598.166	1	-5
598.335	1	-1
598.505	1	-3
598.675	1	-4
598.844	1	3
599.014	1	2
599.184	1	-3
599.354	1	-1
599.523	1	1
599.693	1	3
599.863	1	8
600.033	1	2
600.202	1	5
600.372	1	-2
600.542	1	-2
600.712	1	16
600.881	1	8
601.051	1	1
601.221	1	6
601.390	1	3
601.560	1	-3
601.730	1	1
601.900	1	18
602.069	1	-14
602.239	1	-1
602.409	1	5
602.578	1	18
602.748	1	-10
602.918	1	1
603.088	1	12
603.257	1	2
603.427	1	15
603.597	1	5
603.767	1	7
603.936	1	7
604.106	1	-8
604.276	1	9
604.445	1	-6
604.615	1	-9
604.785	1	8
604.954	1	4
605.124	1	-2
605.294	1	1
605.464	1	-5
605.633	1	4
605.803	1	5
605.973	1	-4
606.142	1	5
606.312	1	10
606.482	1	-5
606.652	1	16
606.821	1	-7
606.991	1	0
607.161	1	15
607.330	1	-4
607.500	1	11
607.670	1	-3
607.839	1	2
608.009	1	-2
608.179	1	-9
608.348	1	2
608.518	1	-2
608.688	1	3
608.858	1	5
609.027	1	-7
609.197	1	9
609.367	1	0
609.536	1	6
609.706	1	6
609.876	1	-3
610.045	1	-5
610.215	1	16
610.385	1	5
610.554	1	9
610.724	1	6
610.894	1	9
611.063	1	10
611.233	1	-10
611.403	1	-1
611.572	1	3
611.742	1	7
611.912	1	0
612.081	1	10
612.251	1	2
612.421	1	7
612.590	1	-5
612.760	1	10
612.930	1	-2
613.099	1	6
613.269	1	2
613.439	1	-6
613.608	1	2
613.778	1	-2
613.948	1	7
614.117	1	7
614.287	1	3
614.457	1	-2
614.626	1	11
614.796	1	11
614.966	1	3
615.135	1	-1
615.305	1	9
615.475	1	3
615.644	1	3
615.814	1	0
615.984	1	10
616.153	1	10
616.323	1	6
616.493	1	7
616.662	1	0
616.832	1	3
617.002	1	-4
617.171	1	4
617.341	1	2
617.511	1	4
617.680	1	1
617.850	1	-6
618.019	1	5
618.189	1	3
618.359	1	-9
618.528	1	-7
618.698	1	2
618.868	1	-7
619.037	1	13
619.207	1	7
619.377	1	9
619.546	1	-10
619.716	1	2
619.885	1	-1
620.055	1	16
620.225	1	9
620.394	1	7
620.564	1	-5
620.734	1	-3
620.903	1	8
621.073	1	5
621.242	1	-4
621.412	1	5
621.582	1	-5
621.751	1	6
621.921	1	16
622.091	1	3
622.260	1	-6
622.430	1	12
622.599	1	14
622.769	1	2
622.939	1	-1
623.108	1	1
623.278	1	14
623.448	1	7
623.617	1	5
623.787	1	6
623.956	1	9
624.126	1	4
624.296	1	7
624.465	1	1
624.635	1	4
624.804	1	8
624.974	1	5
625.144	1	8
625.313	1	5
625.483	1	14
625.652	1	3
625.822	1	7
625.992	1	9
626.161	1	-3
626.331	1	4
626.501	1	9
626.670	1	-2
626.840	1	3
627.009	1	1
627.179	1	-3
627.348	1	13
627.518	1	12
627.688	1	5
627.857	1	6
628.027	1	4
628.196	1	4
628.366	1	9
628.536	1	10
628.705	1	-1
628.875	1	4
629.044	1	12
629.214	1	6
629.384	1	4
629.553	1	11
629.723	1	-7
629.892	1	8
630.062	1	-14
630.232	1	13
630.401	1	10
630.571	1	8
630.740	1	-4
630.910	1	1
631.079	1	1
631.249	1	9
631.419	1	10
631.588	1	3
631.758	1	-2
631.927	1	1
632.097	1	4
632.266	1	3
632.436	1	8
632.606	1	0
632.775	1	11
632.945	1	8
633.114	1	6
633.284	1	3
633.453	1	9
633.623	1	14
633.793	1	3
633.962	1	5
634.132	1	7
634.301	1	-4
634.471	1	-3
634.640	1	10
634.810	1	9
634.979	1	1
635.149	1	9
635.319	1	5
635.488	1	-6
635.658	1	11
635.827	1	-1
635.997	1	6
636.166	1	1
636.336	1	1
636.505	1	9
636.675	1	-9
636.845	1	4
637.014	1	3
637.184	1	3
637.353	1	2
637.523	1	2
637.692	1	-8
637.862	1	-3
638.031	1	-5
638.201	1	-4
638.370	1	8
638.540	1	12
638.710	1	16
638.879	1	4
639.049	1	-6
639.218	1	6
639.388	1	4
639.557	1	14
639.727	1	9
639.896	1	1
640.066	1	4
640.235	1	0
640.405	1	10
640.574	1	-1
640.744	1	3
640.914	1	11
641.083	1	-8
641.253	1	1
641.422	1	3
641.592	1	5
641.761	1	-4
641.931	1	0
642.100	1	8
642.270	1	-1
642.439	1	4
642.609	1	6
642.778	1	-2
642.948	1	12
643.117	1	14
643.287	1	-2
643.456	1	0
643.626	1	1
643.795	1	7
643.965	1	10
644.134	1	6
644.304	1	13
644.473	1	0
644.643	1	-1
644.812	1	4
644.982	1	5
645.151	1	4
645.321	1	0
645.490	1	11
645.660	1	5
645.829	1	-2
645.999	1	10
646.168	1	8
646.338	1	4
646.507	1	6
646.677	1	5
646.846	1	4
647.016	1	1
647.185	1	1
647.355	1	7
647.524	1	-3
647.694	1	8
647.863	1	10
648.033	1	1
648.202	1	3
648.372	1	-3
648.541	1	-4
648.711	1	6
648.880	1	7
649.050	1	7
649.219	1	1
649.389	1	2
649.558	1	7
649.728	1	4
649.897	1	-6
650.067	1	7
650.236	1	3
650.406	1	3
650.575	1	11
650.745	1	2
650.914	1	-2
651.084	1	3
651.253	1	-1
651.423	1	10
651.592	1	-2
651.762	1	0
651.931	1	4
652.101	1	8
652.270	1	2
652.440	1	12
652.609	1	13
652.778	1	9
652.948	1	6
653.117	1	5
653.287	1	-2
653.456	1	1
653.626	1	-6
653.795	1	3
653.965	1	-9
654.134	1	0
654.304	1	17
654.473	1	-8
654.643	1	17
654.812	1	2
654.982	1	1
655.151	1	7
655.320	1	12
655.490	1	3
655.659	1	0
655.829	1	-4
655.998	1	-1
656.168	1	7
656.337	1	5
656.507	1	-6
656.676	1	-5
656.846	1	5
657.015	1	5
657.184	1	0
657.354	1	8
657.523	1	2
657.693	1	2
657.862	1	-2
658.032	1	13
658.201	1	10
658.371	1	3
658.540	1	-3
658.709	1	6
658.879	1	3
659.048	1	1
659.218	1	-1
659.387	1	5
659.557	1	1
659.726	1	7
659.895	1	12
660.065	1	16
660.234	1	-4
660.404	1	0
660.573	1	8
660.743	1	0
660.912	1	-6
661.081	1	-12
661.251	1	5
661.420	1	14
661.590	1	12
661.759	1	-2
661.929	1	7
662.098	1	8
662.267	1	1
662.437	1	13
662.606	1	4
662.776	1	-6
662.945	1	10
663.115	1	6
663.284	1	-7
663.453	1	17
663.623	1	3
663.792	1	8
663.962	1	-4
664.131	1	1
664.300	1	-8
664.470	1	11
664.639	1	-2
664.809	1	0
664.978	1	7
665.148	1	-5
665.317	1	1
665.486	1	1
665.656	1	12
665.825	1	13
665.995	1	-3
666.164	1	7
666.333	1	6
666.503	1	-2
666.672	1	10
666.842	1	4
667.011	1	3
667.180	1	7
667.350	1	-1
667.519	1	6
667.689	1	3
667.858	1	2
668.027	1	8
668.197	1	16
668.366	1	-1
668.536	1	6
668.705	1	9
668.874	1	1
669.044	1	5
669.213	1	4
669.382	1	7
669.552	1	4
669.721	1	-1
669.891	1	0
670.060	1	7
670.229	1	-2
670.399	1	0
670.568	1	0
670.738	1	6
670.907	1	13
671.076	1	1
671.246	1	1
671.415	1	0
671.584	1	4
671.754	1	3
671.923	1	16
672.093	1	6
672.262	1	1
672.431	1	7
672.601	1	8
672.770	1	4
672.939	1	4
673.109	1	9
673.278	1	2
673.448	1	9
673.617	1	-7
673.786	1	9
