325.333	1	-1
325.504	1	5
325.675	1	3
325.846	1	-6
326.017	1	-4
326.188	1	6
326.359	1	13
326.531	1	12
326.702	1	3
326.873	1	-1
327.044	1	11
327.215	1	-8
327.386	1	2
327.557	1	2
327.728	1	6
327.899	1	2
328.070	1	1
328.241	1	4
328.412	1	-4
328.583	1	5
328.754	1	-11
328.926	1	9
329.097	1	-1
329.268	1	-2
329.439	1	-9
329.610	1	1
329.781	1	3
329.952	1	5
330.123	1	1
330.294	1	8
330.465	1	13
330.636	1	15
330.807	1	0
330.978	1	-9
331.149	1	-4
331.320	1	1
331.492	1	-12
331.663	1	-2
331.834	1	3
332.005	1	0
332.176	1	10
332.347	1	4
332.518	1	15
332.689	1	1
332.860	1	9
333.031	1	6
333.202	1	-5
333.373	1	3
333.544	1	-6
333.715	1	3
333.886	1	-1
334.057	1	-5
334.228	1	2
334.399	1	7
334.570	1	-3
334.741	1	-2
334.912	1	2
335.084	1	-5
335.255	1	6
335.426	1	2
335.597	1	7
335.768	1	0
335.939	1	-8
336.110	1	8
336.281	1	3
336.452	1	2
336.623	1	-9
336.794	1	0
336.965	1	-8
337.136	1	9
337.307	1	6
337.478	1	-4
337.649	1	-11
337.820	1	-2
337.991	1	6
338.162	1	-5
338.333	1	11
338.504	1	11
338.675	1	16
338.846	1	3
339.017	1	12
339.188	1	5
339.359	1	6
339.530	1	4
339.701	1	-4
339.872	1	6
340.043	1	-7
340.214	1	4
340.385	1	7
340.556	1	3
340.727	1	0
340.898	1	5
341.069	1	-8
341.240	1	-8
341.411	1	11
341.582	1	10
341.753	1	3
341.924	1	-3
342.095	1	8
342.266	1	-6
342.437	1	-5
342.608	1	-6
342.779	1	-1
342.950	1	-1
343.121	1	-6
343.292	1	4
343.463	1	11
343.634	1	6
343.805	1	2
343.976	1	-10
344.147	1	6
344.318	1	0
344.489	1	5
344.660	1	2
344.831	1	1
345.002	1	7
345.173	1	3
345.344	1	-10
345.515	1	4
345.686	1	-3
345.857	1	-2
346.028	1	-6
346.199	1	4
346.370	1	1
346.541	1	-1
346.712	1	5
346.883	1	10
347.054	1	0
347.225	1	-2
347.396	1	3
347.567	1	1
347.738	1	4
347.909	1	-2
348.080	1	11
348.251	1	-7
348.422	1	-3
348.593	1	3
348.764	1	-3
348.935	1	-3
349.106	1	7
349.277	1	3
349.448	1	1
349.619	1	-1
349.790	1	4
349.961	1	4
350.132	1	3
350.303	1	5
350.474	1	-2
350.645	1	-1
350.816	1	7
350.987	1	3
351.157	1	1
351.328	1	4
351.499	1	4
351.670	1	-3
351.841	1	1
352.012	1	5
352.183	1	11
352.354	1	-2
352.525	1	5
352.696	1	2
352.867	1	1
353.038	1	-12
353.209	1	8
353.380	1	-4
353.551	1	2
353.722	1	6
353.893	1	3
354.064	1	-6
354.235	1	5
354.406	1	4
354.576	1	2
354.747	1	2
354.918	1	16
355.089	1	3
355.260	1	15
355.431	1	7
355.602	1	-1
355.773	1	3
355.944	1	-4
356.115	1	-4
356.286	1	7
356.457	1	0
356.628	1	0
356.799	1	-4
356.970	1	6
357.141	1	7
357.311	1	-8
357.482	1	-3
357.653	1	1
357.824	1	3
357.995	1	0
358.166	1	-2
358.337	1	4
358.508	1	-11
358.679	1	-1
358.850	1	5
359.021	1	-3
359.192	1	11
359.363	1	-11
359.533	1	-4
359.704	1	8
359.875	1	-2
360.046	1	5
360.217	1	-3
360.388	1	-4
360.559	1	-1
360.730	1	-7
360.901	1	-5
361.072	1	0
361.243	1	3
361.414	1	0
361.584	1	5
361.755	1	-6
361.926	1	-7
362.097	1	-7
362.268	1	0
362.439	1	2
362.610	1	0
362.781	1	8
362.952	1	3
363.123	1	9
363.293	1	-3
363.464	1	1
363.635	1	15
363.806	1	-2
363.977	1	7
364.148	1	-4
364.319	1	-7
364.490	1	3
364.661	1	1
364.832	1	1
365.002	1	8
365.173	1	-7
365.344	1	-1
365.515	1	6
365.686	1	-2
365.857	1	3
366.028	1	-2
366.199	1	0
366.370	1	3
366.540	1	8
366.711	1	4
366.882	1	-2
367.053	1	-4
367.224	1	1
367.395	1	9
367.566	1	-2
367.737	1	1
367.908	1	-1
368.078	1	-5
368.249	1	0
368.420	1	6
368.591	1	4
368.762	1	-8
368.933	1	14
369.104	1	-5
369.274	1	4
369.445	1	11
369.616	1	-1
369.787	1	0
369.958	1	10
370.129	1	-5
370.300	1	2
370.471	1	-4
370.641	1	0
370.812	1	3
370.983	1	-1
371.154	1	1
371.325	1	5
371.496	1	-2
371.667	1	3
371.837	1	-2
372.008	1	4
372.179	1	7
372.350	1	5
372.521	1	3
372.692	1	-9
372.863	1	5
373.033	1	6
373.204	1	15
373.375	1	3
373.546	1	8
373.717	1	-1
373.888	1	9
374.059	1	1
374.229	1	8
374.400	1	8
374.571	1	2
374.742	1	10
374.913	1	12
375.084	1	7
375.254	1	2
375.425	1	-6
375.596	1	-4
375.767	1	3
375.938	1	-10
376.109	1	4
376.279	1	8
376.450	1	4
376.621	1	2
376.792	1	20
376.963	1	-1
377.134	1	5
377.304	1	-3
377.475	1	1
377.646	1	-6
377.817	1	-4
377.988	1	11
378.159	1	12
378.329	1	14
378.500	1	-10
378.671	1	2
378.842	1	0
379.013	1	-3
379.184	1	8
379.354	1	6
379.525	1	-10
379.696	1	21
379.867	1	2
380.038	1	-11
380.209	1	-6
380.379	1	1
380.550	1	10
380.721	1	2
380.892	1	16
381.063	1	-3
381.233	1	4
381.404	1	8
381.575	1	10
381.746	1	1
381.917	1	5
382.087	1	0
382.258	1	9
382.429	1	-2
382.600	1	12
382.771	1	-5
382.941	1	6
383.112	1	7
383.283	1	10
383.454	1	-2
383.625	1	-3
383.795	1	0
383.966	1	7
384.137	1	1
384.308	1	4
384.479	1	8
384.649	1	9
384.820	1	5
384.991	1	3
385.162	1	0
385.333	1	-4
385.503	1	19
385.674	1	9
385.845	1	7
386.016	1	5
386.187	1	-2
386.357	1	-3
386.528	1	-3
386.699	1	4
386.870	1	7
387.041	1	3
387.211	1	1
387.382	1	-4
387.553	1	9
387.724	1	-2
387.894	1	7
388.065	1	16
388.236	1	6
388.407	1	7
388.578	1	6
388.748	1	9
388.919	1	11
389.090	1	1
389.261	1	2
389.431	1	7
389.602	1	-6
389.773	1	0
389.944	1	6
390.114	1	14
390.285	1	4
390.456	1	14
390.627	1	8
390.798	1	6
390.968	1	-1
391.139	1	5
391.310	1	11
391.481	1	1
391.651	1	8
391.822	1	12
391.993	1	5
392.164	1	1
392.334	1	-10
392.505	1	7
392.676	1	-7
392.847	1	19
393.017	1	5
393.188	1	0
393.359	1	0
393.530	1	5
393.700	1	8
393.871	1	5
394.042	1	15
394.213	1	7
394.383	1	10
394.554	1	6
394.725	1	6
394.896	1	2
395.066	1	0
395.237	1	7
395.408	1	0
395.579	1	2
395.749	1	5
395.920	1	6
396.091	1	9
396.262	1	-7
396.432	1	3
396.603	1	0
396.774	1	9
396.945	1	3
397.115	1	-1
397.286	1	21
397.457	1	-1
397.627	1	9
397.798	1	5
397.969	1	16
398.140	1	6
398.310	1	13
398.481	1	1
398.652	1	2
398.823	1	6
398.993	1	20
399.164	1	1
399.335	1	2
399.505	1	16
399.676	1	10
399.847	1	14
400.018	1	6
400.188	1	11
400.359	1	8
400.530	1	0
400.700	1	9
400.871	1	10
401.042	1	13
401.213	1	1
401.383	1	13
401.554	1	11
401.725	1	5
401.895	1	-10
402.066	1	16
402.237	1	5
402.408	1	24
402.578	1	7
402.749	1	16
402.920	1	13
403.090	1	18
403.261	1	7
403.432	1	9
403.603	1	-2
403.773	1	13
403.944	1	11
404.115	1	-1
404.285	1	19
404.456	1	16
404.627	1	2
404.797	1	7
404.968	1	6
405.139	1	7
405.310	1	4
405.480	1	2
405.651	1	9
405.822	1	16
405.992	1	13
406.163	1	14
406.334	1	11
406.504	1	5
406.675	1	2
406.846	1	6
407.016	1	-6
407.187	1	5
407.358	1	5
407.528	1	9
407.699	1	4
407.870	1	4
408.041	1	-1
408.211	1	9
408.382	1	5
408.553	1	-19
408.723	1	6
408.894	1	9
409.065	1	20
409.235	1	0
409.406	1	10
409.577	1	8
409.747	1	13
409.918	1	12
410.089	1	-3
410.259	1	5
410.430	1	12
410.601	1	-2
410.771	1	0
410.942	1	-5
411.113	1	16
411.283	1	12
411.454	1	3
411.625	1	6
411.795	1	-6
411.966	1	-5
412.137	1	0
412.307	1	5
412.478	1	11
412.649	1	-3
412.819	1	2
412.990	1	14
413.161	1	15
413.331	1	8
413.502	1	-10
413.672	1	4
413.843	1	4
414.014	1	19
414.184	1	3
414.355	1	8
414.526	1	8
414.696	1	10
414.867	1	13
415.038	1	2
415.208	1	5
415.379	1	2
415.550	1	13
415.720	1	5
415.891	1	18
416.062	1	7
416.232	1	17
416.403	1	0
416.573	1	6
416.744	1	8
416.915	1	3
417.085	1	-5
417.256	1	9
417.427	1	13
417.597	1	11
417.768	1	14
417.939	1	12
418.109	1	-7
418.280	1	0
418.450	1	16
418.621	1	-5
418.792	1	3
418.962	1	2
419.133	1	11
419.304	1	-3
419.474	1	8
419.645	1	-1
419.815	1	-1
419.986	1	0
420.157	1	12
420.327	1	9
420.498	1	1
420.669	1	6
420.839	1	9
421.010	1	8
421.180	1	-7
421.351	1	12
421.522	1	19
421.692	1	9
421.863	1	2
422.033	1	23
422.204	1	-1
422.375	1	5
422.545	1	11
422.716	1	2
422.886	1	14
423.057	1	-7
423.228	1	6
423.398	1	11
423.569	1	11
423.740	1	-3
423.910	1	12
424.081	1	17
424.251	1	4
424.422	1	-1
424.593	1	6
424.763	1	7
424.934	1	9
425.104	1	-1
425.275	1	16
425.445	1	10
425.616	1	12
425.787	1	21
425.957	1	4
426.128	1	9
426.298	1	6
426.469	1	-6
426.640	1	11
426.810	1	6
426.981	1	10
427.151	1	3
427.322	1	2
427.493	1	-4
427.663	1	6
427.834	1	-1
428.004	1	5
428.175	1	7
428.345	1	11
428.516	1	14
428.687	1	5
428.857	1	-1
429.028	1	9
429.198	1	14
429.369	1	7
429.540	1	11
429.710	1	14
429.881	1	20
430.051	1	6
430.222	1	6
430.392	1	14
430.563	1	11
430.734	1	13
430.904	1	11
431.075	1	0
431.245	1	17
431.416	1	-6
431.586	1	4
431.757	1	12
431.927	1	-6
432.098	1	13
432.269	1	17
432.439	1	6
432.610	1	12
432.780	1	-1
432.951	1	2
433.121	1	8
433.292	1	21
433.462	1	6
433.633	1	18
433.804	1	-4
433.974	1	2
434.145	1	2
434.315	1	5
434.486	1	-5
434.656	1	8
434.827	1	0
434.997	1	20
435.168	1	7
435.339	1	9
435.509	1	3
435.680	1	3
435.850	1	5
436.021	1	7
436.191	1	13
436.362	1	9
436.532	1	8
436.703	1	5
436.873	1	5
437.044	1	7
437.214	1	13
437.385	1	3
437.556	1	3
437.726	1	4
437.897	1	0
438.067	1	3
438.238	1	12
438.408	1	5
438.579	1	8
438.749	1	4
438.920	1	-1
439.090	1	2
439.261	1	-4
439.431	1	6
439.602	1	4
439.772	1	4
439.943	1	12
440.113	1	9
440.284	1	1
440.455	1	22
440.625	1	0
440.796	1	-8
440.966	1	-2
441.137	1	5
441.307	1	6
441.478	1	16
441.648	1	7
441.819	1	3
441.989	1	3
442.160	1	10
442.330	1	15
442.501	1	3
442.671	1	4
442.842	1	15
443.012	1	0
443.183	1	11
443.353	1	12
443.524	1	-4
443.694	1	6
443.865	1	6
444.035	1	2
444.206	1	8
444.376	1	13
444.547	1	-1
444.717	1	6
444.888	1	4
445.058	1	13
445.229	1	11
445.399	1	7
445.570	1	-9
445.740	1	3
445.911	1	1
446.081	1	9
446.252	1	-11
446.422	1	1
446.593	1	6
446.763	1	8
446.934	1	3
447.104	1	8
447.275	1	13
447.445	1	1
447.616	1	7
447.786	1	-2
447.957	1	1
448.127	1	12
448.298	1	2
448.468	1	3
448.639	1	2
448.809	1	-2
448.979	1	12
449.150	1	1
449.320	1	10
449.491	1	10
449.661	1	15
449.832	1	12
450.002	1	1
450.173	1	7
450.343	1	19
450.514	1	8
450.684	1	9
450.855	1	-3
451.025	1	-2
451.196	1	9
451.366	1	7
451.537	1	-1
451.707	1	15
451.878	1	-3
452.048	1	9
452.218	1	8
452.389	1	10
452.559	1	1
452.730	1	2
452.900	1	4
453.071	1	-1
453.241	1	10
453.412	1	-1
453.582	1	-5
453.753	1	10
453.923	1	15
454.093	1	12
454.264	1	1
454.434	1	-1
454.605	1	10
454.775	1	-1
454.946	1	5
455.116	1	-1
455.287	1	3
455.457	1	-2
455.628	1	13
455.798	1	9
455.968	1	5
456.139	1	1
456.309	1	16
456.480	1	-2
456.650	1	19
456.821	1	18
456.991	1	12
457.161	1	16
457.332	1	2
457.502	1	15
457.673	1	12
457.843	1	11
458.014	1	12
458.184	1	3
458.355	1	8
458.525	1	7
458.695	1	13
458.866	1	20
459.036	1	10
459.207	1	9
459.377	1	2
459.548	1	-8
459.718	1	4
459.888	1	13
460.059	1	22
460.229	1	8
460.400	1	4
460.570	1	5
460.740	1	2
460.911	1	11
461.081	1	8
461.252	1	-2
461.422	1	6
461.593	1	6
461.763	1	5
461.933	1	14
462.104	1	6
462.274	1	0
462.445	1	6
462.615	1	9
462.785	1	4
462.956	1	2
463.126	1	11
463.297	1	15
463.467	1	5
463.638	1	-1
463.808	1	4
463.978	1	13
464.149	1	1
464.319	1	15
464.490	1	-2
464.660	1	6
464.830	1	0
465.001	1	6
465.171	1	2
465.342	1	5
465.512	1	4
465.682	1	-5
465.853	1	-2
466.023	1	3
466.194	1	9
466.364	1	2
466.534	1	5
466.705	1	-5
466.875	1	3
467.045	1	-3
467.216	1	7
467.386	1	14
467.557	1	10
467.727	1	5
467.897	1	-3
468.068	1	-18
468.238	1	15
468.409	1	4
468.579	1	1
468.749	1	1
468.920	1	1
469.090	1	6
469.260	1	13
469.431	1	14
469.601	1	-5
469.772	1	-3
469.942	1	12
470.112	1	4
470.283	1	4
470.453	1	10
470.623	1	0
470.794	1	-7
470.964	1	12
471.135	1	17
471.305	1	4
471.475	1	10
471.646	1	2
471.816	1	6
471.986	1	9
472.157	1	16
472.327	1	8
472.497	1	13
472.668	1	1
472.838	1	2
473.009	1	8
473.179	1	6
473.349	1	18
473.520	1	0
473.690	1	10
473.860	1	15
474.031	1	2
474.201	1	1
474.371	1	15
474.542	1	19
474.712	1	8
474.882	1	1
475.053	1	17
475.223	1	-9
475.394	1	1
475.564	1	1
475.734	1	14
475.905	1	8
476.075	1	4
476.245	1	10
476.416	1	3
476.586	1	-3
476.756	1	9
476.927	1	-3
477.097	1	9
477.267	1	7
477.438	1	8
477.608	1	-7
477.778	1	10
477.949	1	12
478.119	1	7
478.289	1	-1
478.460	1	-8
478.630	1	14
478.800	1	7
478.971	1	3
479.141	1	2
479.311	1	2
479.482	1	9
479.652	1	15
479.822	1	-3
479.993	1	1
480.163	1	2
480.333	1	-2
480.504	1	0
480.674	1	2
480.844	1	2
481.015	1	13
481.185	1	-4
481.355	1	11
481.525	1	7
481.696	1	4
481.866	1	15
482.036	1	6
482.207	1	3
482.377	1	4
482.547	1	-4
482.718	1	-6
482.888	1	16
483.058	1	2
483.229	1	-2
483.399	1	8
483.569	1	4
483.740	1	6
483.910	1	-4
484.080	1	-1
484.250	1	-11
484.421	1	11
484.591	1	9
484.761	1	1
484.932	1	1
485.102	1	10
485.272	1	6
485.443	1	4
485.613	1	17
485.783	1	10
485.953	1	13
486.124	1	-1
486.294	1	3
486.464	1	6
486.635	1	1
486.805	1	-3
486.975	1	-6
487.146	1	-7
487.316	1	3
487.486	1	0
487.656	1	1
487.827	1	0
487.997	1	3
488.167	1	3
488.338	1	1
488.508	1	10
488.678	1	7
488.848	1	1
489.019	1	-1
489.189	1	-1
489.359	1	1
489.529	1	-1
489.700	1	10
489.870	1	-6
490.040	1	-1
490.211	1	4
490.381	1	12
490.551	1	0
490.721	1	1
490.892	1	9
491.062	1	1
491.232	1	4
491.402	1	9
491.573	1	-2
491.743	1	2
491.913	1	-6
492.084	1	6
492.254	1	4
492.424	1	10
492.594	1	4
492.765	1	-6
492.935	1	0
493.105	1	10
493.275	1	0
493.446	1	6
493.616	1	8
493.786	1	0
493.956	1	-1
494.127	1	14
494.297	1	-6
494.467	1	0
494.637	1	13
494.808	1	5
494.978	1	-1
495.148	1	9
495.318	1	7
495.489	1	-3
495.659	1	-9
495.829	1	-1
495.999	1	4
496.170	1	-5
496.340	1	14
496.510	1	7
496.680	1	1
496.851	1	3
497.021	1	-1
497.191	1	11
497.361	1	-5
497.532	1	-9
497.702	1	6
497.872	1	20
498.042	1	6
498.213	1	14
498.383	1	1
498.553	1	2
498.723	1	1
498.894	1	-1
499.064	1	-7
499.234	1	1
499.404	1	-2
499.574	1	-4
499.745	1	9
499.915	1	11
500.085	1	7
500.255	1	4
500.426	1	-4
500.596	1	0
500.766	1	-6
500.936	1	6
501.106	1	2
501.277	1	7
501.447	1	7
501.617	1	4
501.787	1	-2
501.958	1	3
502.128	1	-14
502.298	1	-5
502.468	1	3
502.638	1	4
502.809	1	7
502.979	1	15
503.149	1	-8
503.319	1	-1
503.489	1	-3
503.660	1	-4
503.830	1	1
504.000	1	2
504.170	1	4
504.340	1	-2
504.511	1	5
504.681	1	-3
504.851	1	8
505.021	1	6
505.192	1	1
505.362	1	4
505.532	1	13
505.702	1	5
505.872	1	1
506.043	1	12
506.213	1	13
506.383	1	3
506.553	1	6
506.723	1	-1
506.893	1	-3
507.064	1	2
507.234	1	7
507.404	1	5
507.574	1	-2
507.744	1	7
507.915	1	1
508.085	1	7
508.255	1	2
508.425	1	1
508.595	1	1
508.766	1	5
508.936	1	4
509.106	1	4
509.276	1	-5
509.446	1	5
509.616	1	-2
509.787	1	10
509.957	1	3
510.127	1	7
510.297	1	0
510.467	1	2
510.638	1	6
510.808	1	5
510.978	1	-2
511.148	1	13
511.318	1	-5
511.488	1	5
511.659	1	-5
511.829	1	4
511.999	1	-2
512.169	1	3
512.339	1	1
512.509	1	7
512.680	1	5
512.850	1	-6
513.020	1	-5
513.190	1	-10
513.360	1	1
513.530	1	0
513.700	1	10
513.871	1	11
514.041	1	5
514.211	1	9
514.381	1	15
514.551	1	4
514.721	1	-4
514.892	1	-9
515.062	1	-5
515.232	1	-5
515.402	1	4
515.572	1	-5
515.742	1	6
515.912	1	1
516.083	1	-6
516.253	1	7
516.423	1	2
516.593	1	-4
516.763	1	-4
516.933	1	-10
517.104	1	-1
517.274	1	-8
517.444	1	-4
517.614	1	4
517.784	1	8
517.954	1	9
518.124	1	5
518.294	1	7
518.465	1	-2
518.635	1	-12
518.805	1	13
518.975	1	6
519.145	1	4
519.315	1	-8
519.485	1	0
519.656	1	4
519.826	1	11
519.996	1	-10
520.166	1	10
520.336	1	1
520.506	1	-15
520.676	1	5
520.846	1	-1
521.017	1	-4
521.187	1	7
521.357	1	0
521.527	1	5
521.697	1	7
521.867	1	-1
522.037	1	-4
522.207	1	3
522.377	1	3
522.548	1	2
522.718	1	0
522.888	1	3
523.058	1	3
523.228	1	4
523.398	1	12
523.568	1	-4
523.738	1	4
523.909	1	-2
524.079	1	-3
524.249	1	3
524.419	1	14
524.589	1	-3
524.759	1	-1
524.929	1	-6
525.099	1	-3
525.269	1	-4
525.439	1	-1
525.610	1	12
525.780	1	-3
525.950	1	1
526.120	1	-1
526.290	1	-7
526.460	1	0
526.630	1	-5
526.800	1	4
526.970	1	2
527.140	1	2
527.311	1	4
527.481	1	0
527.651	1	-2
527.821	1	-2
527.991	1	6
528.161	1	6
528.331	1	5
528.501	1	-2
528.671	1	-6
528.841	1	7
529.011	1	7
529.181	1	2
529.352	1	-8
529.522	1	0
529.692	1	-5
529.862	1	0
530.032	1	5
530.202	1	1
530.372	1	4
530.542	1	-6
530.712	1	-5
530.882	1	-1
531.052	1	4
531.222	1	1
531.392	1	3
531.563	1	-5
531.733	1	3
531.903	1	1
532.073	1	-6
532.243	1	2
532.413	1	4
532.583	1	-1
532.753	1	-2
532.923	1	8
533.093	1	12
533.263	1	-4
533.433	1	12
533.603	1	2
533.773	1	-5
533.943	1	1
534.113	1	3
534.284	1	1
534.454	1	-13
534.624	1	3
534.794	1	-4
534.964	1	-1
535.134	1	4
535.304	1	1
535.474	1	-5
535.644	1	2
535.814	1	9
535.984	1	11
536.154	1	1
536.324	1	8
536.494	1	3
536.664	1	-1
536.834	1	3
537.004	1	10
537.174	1	11
537.344	1	7
537.514	1	-3
537.685	1	0
537.855	1	-3
538.025	1	8
538.195	1	1
538.365	1	1
538.535	1	-11
538.705	1	15
538.875	1	1
539.045	1	3
539.215	1	-5
539.385	1	-1
539.555	1	-1
539.725	1	2
539.895	1	6
540.065	1	5
540.235	1	0
540.405	1	2
540.575	1	-3
540.745	1	-8
540.915	1	3
541.085	1	-9
541.255	1	-11
541.425	1	-1
541.595	1	13
541.765	1	20
541.935	1	-7
542.105	1	3
542.275	1	-4
542.445	1	-7
542.615	1	-1
542.785	1	-15
542.955	1	-9
543.125	1	-17
543.295	1	1
543.465	1	-1
543.635	1	2
543.805	1	24
543.975	1	-4
544.145	1	0
544.315	1	-2
544.485	1	-1
544.655	1	10
544.825	1	3
544.995	1	10
545.165	1	-1
545.335	1	-4
545.505	1	3
545.675	1	-2
545.845	1	9
546.015	1	-1
546.185	1	-1
546.355	1	0
546.525	1	2
546.695	1	0
546.865	1	6
547.035	1	14
547.205	1	9
547.375	1	11
547.545	1	0
547.715	1	8
547.885	1	3
548.055	1	-1
548.225	1	7
548.395	1	1
548.565	1	7
548.735	1	4
548.905	1	-7
549.075	1	7
549.245	1	2
549.415	1	2
549.585	1	3
549.755	1	2
549.925	1	-3
550.095	1	2
550.265	1	-4
550.435	1	-4
550.605	1	-2
550.775	1	-3
550.945	1	12
551.115	1	3
551.285	1	0
551.455	1	8
551.625	1	-10
551.795	1	1
551.965	1	6
552.135	1	5
552.305	1	-9
552.475	1	0
552.645	1	8
552.815	1	4
552.985	1	1
553.155	1	-10
553.325	1	1
553.495	1	5
553.665	1	5
553.835	1	6
554.004	1	-4
554.174	1	2
554.344	1	2
554.514	1	1
554.684	1	-3
554.854	1	-2
555.024	1	6
555.194	1	5
555.364	1	-6
555.534	1	-6
555.704	1	12
555.874	1	-8
556.044	1	12
556.214	1	-6
556.384	1	4
556.554	1	-1
556.724	1	2
556.894	1	-12
557.064	1	-4
557.234	1	3
557.404	1	0
557.573	1	-8
557.743	1	-1
557.913	1	-3
558.083	1	7
558.253	1	-10
558.423	1	-2
558.593	1	-3
558.763	1	2
558.933	1	1
559.103	1	9
559.273	1	-6
559.443	1	7
559.613	1	5
559.783	1	7
559.953	1	12
560.122	1	-1
560.292	1	4
560.462	1	-5
560.632	1	8
560.802	1	2
560.972	1	7
561.142	1	3
561.312	1	5
561.482	1	17
561.652	1	-9
561.822	1	-5
561.992	1	-13
562.162	1	8
562.331	1	5
562.501	1	-10
562.671	1	5
562.841	1	0
563.011	1	-7
563.181	1	8
563.351	1	10
563.521	1	3
563.691	1	5
563.861	1	-5
564.031	1	-13
564.201	1	0
564.370	1	-1
564.540	1	-12
564.710	1	-1
564.880	1	-1
565.050	1	-2
565.220	1	1
565.390	1	8
565.560	1	7
565.730	1	6
565.900	1	-7
566.069	1	-4
566.239	1	-1
566.409	1	3
566.579	1	-1
566.749	1	11
566.919	1	3
567.089	1	4
567.259	1	1
567.429	1	7
567.599	1	5
567.768	1	8
567.938	1	-11
568.108	1	5
568.278	1	-6
568.448	1	-1
568.618	1	-1
568.788	1	-11
568.958	1	-1
569.128	1	-6
569.297	1	-1
569.467	1	10
569.637	1	1
569.807	1	-1
569.977	1	7
570.147	1	2
570.317	1	6
570.487	1	5
570.656	1	-4
570.826	1	1
570.996	1	-1
571.166	1	-9
571.336	1	2
571.506	1	-5
571.676	1	-7
571.846	1	-2
572.015	1	5
572.185	1	1
572.355	1	7
572.525	1	-9
572.695	1	-2
572.865	1	6
573.035	1	-14
573.205	1	-2
573.374	1	16
573.544	1	-10
573.714	1	1
573.884	1	2
574.054	1	4
574.224	1	-6
574.394	1	-10
574.563	1	10
574.733	1	-2
574.903	1	3
575.073	1	-3
575.243	1	3
575.413	1	-7
575.583	1	2
575.752	1	0
575.922	1	3
576.092	1	-2
576.262	1	1
576.432	1	14
576.602	1	6
576.772	1	-7
576.941	1	13
577.111	1	0
577.281	1	15
577.451	1	-10
577.621	1	-3
577.791	1	1
577.960	1	0
578.130	1	2
578.300	1	10
578.470	1	1
578.640	1	4
578.810	1	-6
578.979	1	-8
579.149	1	0
579.319	1	-2
579.489	1	-7
579.659	1	-1
579.829	1	4
579.998	1	-6
580.168	1	-7
580.338	1	6
580.508	1	-8
580.678	1	3
580.848	1	-4
581.017	1	3
581.187	1	-3
581.357	1	-10
581.527	1	-7
581.697	1	-4
581.867	1	5
582.036	1	-1
582.206	1	-2
582.376	1	3
582.546	1	7
582.716	1	-6
582.885	1	-5
583.055	1	-4
583.225	1	-11
583.395	1	-12
583.565	1	-7
583.735	1	-8
583.904	1	4
584.074	1	-2
584.244	1	1
584.414	1	-6
584.584	1	-1
584.753	1	10
584.923	1	-2
585.093	1	-11
585.263	1	-5
585.433	1	7
585.602	1	-4
585.772	1	0
585.942	1	-7
586.112	1	-2
586.282	1	2
586.451	1	-14
586.621	1	-9
586.791	1	-5
586.961	1	5
587.131	1	4
587.300	1	6
587.470	1	3
587.640	1	-5
587.810	1	-10
587.980	1	-17
588.149	1	-7
588.319	1	7
588.489	1	-3
588.659	1	12
588.829	1	-12
588.998	1	-5
589.168	1	2
589.338	1	-6
589.508	1	3
589.677	1	3
589.847	1	-6
590.017	1	3
590.187	1	2
590.357	1	-2
590.526	1	8
590.696	1	9
590.866	1	-1
591.036	1	-1
591.205	1	3
591.375	1	9
591.545	1	3
591.715	1	-9
591.885	1	-4
592.054	1	-1
592.224	1	-1
592.394	1	2
592.564	1	0
592.733	1	4
592.903	1	-3
593.073	1	-8
593.243	1	4
593.412	1	-6
593.582	1	0
593.752	1	3
593.922	1	3
594.091	1	-11
594.261	1	-4
594.431	1	-3
594.601	1	5
594.771	1	4
594.940	1	7
595.110	1	0
595.280	1	12
595.450	1	5
595.619	1	0
595.789	1	6
595.959	1	1
596.129	1	-2
596.298	1	1
596.468	1	1
596.638	1	-5
596.808	1	-2
596.977	1	8
597.147	1	3
597.317	1	-2
597.487	1	-1
597.656	1	10
597.826	1	3
597.996	1	-4
598.166	1	3
598.335	1	-10
598.505	1	-7
598.675	1	6
598.844	1	4
599.014	1	2
599.184	1	-11
599.354	1	0
599.523	1	8
599.693	1	-1
599.863	1	7
600.033	1	-1
600.202	1	8
600.372	1	6
600.542	1	1
600.712	1	16
600.881	1	1
601.051	1	5
601.221	1	0
601.390	1	5
601.560	1	4
601.730	1	-1
601.900	1	13
602.069	1	-4
602.239	1	7
602.409	1	-1
602.578	1	5
602.748	1	-4
602.918	1	-2
603.088	1	10
603.257	1	7
603.427	1	4
603.597	1	-1
603.767	1	-2
603.936	1	13
604.106	1	-1
604.276	1	8
604.445	1	-1
604.615	1	-6
604.785	1	6
604.954	1	0
605.124	1	-1
605.294	1	-1
605.464	1	-10
605.633	1	3
605.803	1	2
605.973	1	2
606.142	1	3
606.312	1	6
606.482	1	-3
606.652	1	7
606.821	1	0
606.991	1	-1
607.161	1	6
607.330	1	0
607.500	1	11
607.670	1	-1
607.839	1	-2
608.009	1	7
608.179	1	-1
608.348	1	2
608.518	1	-5
608.688	1	9
608.858	1	-2
609.027	1	5
609.197	1	4
609.367	1	-7
609.536	1	9
609.706	1	-6
609.876	1	-1
610.045	1	8
610.215	1	3
610.385	1	-6
610.554	1	-3
610.724	1	10
610.894	1	8
611.063	1	6
611.233	1	0
611.403	1	-2
611.572	1	0
611.742	1	-5
611.912	1	0
612.081	1	-4
612.251	1	10
612.421	1	-8
612.590	1	-3
612.760	1	12
612.930	1	-9
613.099	1	-1
613.269	1	-4
613.439	1	-7
613.608	1	4
613.778	1	-8
613.948	1	3
614.117	1	1
614.287	1	-3
614.457	1	3
614.626	1	1
614.796	1	0
614.966	1	1
615.135	1	3
615.305	1	-3
615.475	1	1
615.644	1	10
615.814	1	2
615.984	1	15
616.153	1	5
616.323	1	3
616.493	1	5
616.662	1	-3
616.832	1	-2
617.002	1	1
617.171	1	2
617.341	1	2
617.511	1	-7
617.680	1	-5
617.850	1	-5
618.019	1	8
618.189	1	-5
618.359	1	5
618.528	1	1
618.698	1	-7
618.868	1	-6
619.037	1	7
619.207	1	4
619.377	1	2
619.546	1	-17
619.716	1	4
619.885	1	-3
620.055	1	8
620.225	1	9
620.394	1	-7
620.564	1	-9
620.734	1	-2
620.903	1	1
621.073	1	0
621.242	1	2
621.412	1	8
621.582	1	-6
621.751	1	-6
621.921	1	2
622.091	1	-2
622.260	1	-1
622.430	1	1
622.599	1	14
622.769	1	2
622.939	1	-9
623.108	1	8
623.278	1	13
623.448	1	11
623.617	1	0
623.787	1	6
623.956	1	9
624.126	1	-4
624.296	1	6
624.465	1	-2
624.635	1	5
624.804	1	3
624.974	1	5
625.144	1	9
625.313	1	0
625.483	1	1
625.652	1	20
625.822	1	4
625.992	1	9
626.161	1	0
626.331	1	-3
626.501	1	-2
626.670	1	2
626.840	1	5
627.009	1	0
627.179	1	-12
627.348	1	11
627.518	1	6
627.688	1	2
627.857	1	-1
628.027	1	-3
628.196	1	-9
628.366	1	-1
628.536	1	0
628.705	1	-7
628.875	1	6
629.044	1	-2
629.214	1	5
629.384	1	9
629.553	1	1
629.723	1	-9
629.892	1	-1
630.062	1	-8
630.232	1	17
630.401	1	-4
630.571	1	10
630.740	1	-2
630.910	1	5
631.079	1	-4
631.249	1	9
631.419	1	10
631.588	1	-2
631.758	1	3
631.927	1	2
632.097	1	-2
632.266	1	-7
632.436	1	8
632.606	1	4
632.775	1	5
632.945	1	-9
633.114	1	-1
633.284	1	0
633.453	1	13
633.623	1	11
633.793	1	-2
633.962	1	-5
634.132	1	-2
634.301	1	6
634.471	1	0
634.640	1	1
634.810	1	-2
634.979	1	8
635.149	1	4
635.319	1	11
635.488	1	-1
635.658	1	4
635.827	1	-7
635.997	1	3
636.166	1	9
636.336	1	-6
636.505	1	8
636.675	1	-8
636.845	1	8
637.014	1	10
637.184	1	5
637.353	1	0
637.523	1	2
637.692	1	-1
637.862	1	-6
638.031	1	-7
638.201	1	-6
638.370	1	6
638.540	1	-1
638.710	1	-3
638.879	1	13
639.049	1	0
639.218	1	7
639.388	1	3
639.557	1	-2
639.727	1	7
639.896	1	-6
640.066	1	10
640.235	1	1
640.405	1	-4
640.574	1	-5
640.744	1	-1
640.914	1	1
641.083	1	2
641.253	1	-8
641.422	1	0
641.592	1	-4
641.761	1	-6
641.931	1	5
642.100	1	15
642.270	1	-3
642.439	1	-5
642.609	1	13
642.778	1	-2
642.948	1	0
643.117	1	-1
643.287	1	-5
643.456	1	2
643.626	1	2
643.795	1	10
643.965	1	5
644.134	1	3
644.304	1	4
644.473	1	12
644.643	1	6
644.812	1	9
644.982	1	-1
645.151	1	-4
645.321	1	-1
645.490	1	7
645.660	1	4
645.829	1	-2
645.999	1	-1
646.168	1	-4
646.338	1	6
646.507	1	5
646.677	1	-8
646.846	1	-1
647.016	1	-2
647.185	1	2
647.355	1	-5
647.524	1	1
647.694	1	-3
647.863	1	9
648.033	1	-3
648.202	1	3
648.372	1	-8
648.541	1	-10
648.711	1	6
648.880	1	-9
649.050	1	14
649.219	1	-9
649.389	1	-6
649.558	1	6
649.728	1	4
649.897	1	-6
650.067	1	4
650.236	1	-2
650.406	1	-2
650.575	1	7
650.745	1	5
650.914	1	1
651.084	1	4
651.253	1	-2
651.423	1	6
651.592	1	-5
651.762	1	-1
651.931	1	-4
652.101	1	6
652.270	1	-4
652.440	1	1
652.609	1	0
652.778	1	2
652.948	1	6
653.117	1	4
653.287	1	-1
653.456	1	0
653.626	1	-1
653.795	1	-8
653.965	1	-5
654.134	1	-7
654.304	1	-1
654.473	1	-2
654.643	1	7
654.812	1	0
654.982	1	5
655.151	1	5
655.320	1	3
655.490	1	1
655.659	1	1
655.829	1	0
655.998	1	7
656.168	1	3
656.337	1	0
656.507	1	-3
656.676	1	1
656.846	1	8
657.015	1	-1
657.184	1	-3
657.354	1	3
657.523	1	3
657.693	1	-10
657.862	1	-8
658.032	1	6
658.201	1	-2
658.371	1	-5
658.540	1	-4
658.709	1	9
658.879	1	1
659.048	1	8
659.218	1	-13
659.387	1	4
659.557	1	-1
659.726	1	-1
659.895	1	1
660.065	1	14
660.234	1	2
660.404	1	10
660.573	1	0
660.743	1	-7
660.912	1	-13
661.081	1	-15
661.251	1	5
661.420	1	9
661.590	1	0
661.759	1	1
661.929	1	7
662.098	1	-6
662.267	1	5
662.437	1	5
662.606	1	6
662.776	1	-5
662.945	1	8
663.115	1	-8
663.284	1	2
663.453	1	8
663.623	1	11
663.792	1	8
663.962	1	1
664.131	1	-3
664.300	1	-14
664.470	1	-2
664.639	1	5
664.809	1	-3
664.978	1	-2
665.148	1	1
665.317	1	-3
665.486	1	-2
665.656	1	8
665.825	1	10
665.995	1	-12
666.164	1	10
666.333	1	1
666.503	1	-2
666.672	1	9
666.842	1	-8
667.011	1	6
667.180	1	5
667.350	1	0
667.519	1	8
667.689	1	1
667.858	1	7
668.027	1	0
668.197	1	8
668.366	1	-8
668.536	1	-3
668.705	1	9
668.874	1	-6
669.044	1	2
669.213	1	5
669.382	1	7
669.552	1	5
669.721	1	-2
669.891	1	6
670.060	1	-1
670.229	1	-6
670.399	1	-6
670.568	1	-2
670.738	1	13
670.907	1	7
671.076	1	-1
671.246	1	-9
671.415	1	3
671.584	1	5
671.754	1	-4
671.923	1	-1
672.093	1	-1
672.262	1	1
672.431	1	8
672.601	1	10
672.770	1	-1
672.939	1	-4
673.109	1	6
673.278	1	-5
673.448	1	-2
673.617	1	9
673.786	1	4
