325.333	1	-1
325.504	1	9
325.675	1	9
325.846	1	-8
326.017	1	-3
326.188	1	13
326.359	1	4
326.531	1	8
326.702	1	-2
326.873	1	0
327.044	1	12
327.215	1	-1
327.386	1	9
327.557	1	8
327.728	1	1
327.899	1	8
328.070	1	-2
328.241	1	5
328.412	1	-5
328.583	1	11
328.754	1	-11
328.926	1	7
329.097	1	-3
329.268	1	-7
329.439	1	-5
329.610	1	-3
329.781	1	-2
329.952	1	4
330.123	1	-1
330.294	1	-4
330.465	1	7
330.636	1	14
330.807	1	3
330.978	1	7
331.149	1	7
331.320	1	10
331.492	1	-9
331.663	1	0
331.834	1	-7
332.005	1	10
332.176	1	-2
332.347	1	7
332.518	1	5
332.689	1	0
332.860	1	12
333.031	1	10
333.202	1	2
333.373	1	6
333.544	1	-4
333.715	1	-4
333.886	1	3
334.057	1	-4
334.228	1	-5
334.399	1	12
334.570	1	-4
334.741	1	-3
334.912	1	6
335.084	1	2
335.255	1	6
335.426	1	2
335.597	1	10
335.768	1	5
335.939	1	1
336.110	1	6
336.281	1	3
336.452	1	-3
336.623	1	-9
336.794	1	4
336.965	1	-7
337.136	1	8
337.307	1	5
337.478	1	3
337.649	1	-3
337.820	1	-9
337.991	1	10
338.162	1	4
338.333	1	12
338.504	1	7
338.675	1	9
338.846	1	-1
339.017	1	12
339.188	1	12
339.359	1	14
339.530	1	5
339.701	1	-3
339.872	1	-4
340.043	1	-1
340.214	1	-2
340.385	1	9
340.556	1	8
340.727	1	5
340.898	1	12
341.069	1	-11
341.240	1	-3
341.411	1	14
341.582	1	14
341.753	1	0
341.924	1	8
342.095	1	3
342.266	1	-14
342.437	1	-6
342.608	1	3
342.779	1	8
342.950	1	2
343.121	1	2
343.292	1	12
343.463	1	14
343.634	1	-6
343.805	1	4
343.976	1	-14
344.147	1	0
344.318	1	5
344.489	1	6
344.660	1	8
344.831	1	8
345.002	1	5
345.173	1	3
345.344	1	-8
345.515	1	3
345.686	1	-5
345.857	1	3
346.028	1	-13
346.199	1	7
346.370	1	2
346.541	1	4
346.712	1	-3
346.883	1	8
347.054	1	-9
347.225	1	-1
347.396	1	5
347.567	1	-4
347.738	1	-2
347.909	1	-7
348.080	1	4
348.251	1	8
348.422	1	6
348.593	1	10
348.764	1	-5
348.935	1	-7
349.106	1	6
349.277	1	2
349.448	1	-11
349.619	1	0
349.790	1	5
349.961	1	14
350.132	1	0
350.303	1	2
350.474	1	1
350.645	1	12
350.816	1	4
350.987	1	8
351.157	1	13
351.328	1	-1
351.499	1	5
351.670	1	6
351.841	1	-2
352.012	1	12
352.183	1	5
352.354	1	5
352.525	1	-4
352.696	1	2
352.867	1	4
353.038	1	-1
353.209	1	5
353.380	1	5
353.551	1	-8
353.722	1	12
353.893	1	15
354.064	1	-1
354.235	1	8
354.406	1	3
354.576	1	-3
354.747	1	10
354.918	1	17
355.089	1	2
355.260	1	9
355.431	1	3
355.602	1	2
355.773	1	5
355.944	1	7
356.115	1	2
356.286	1	12
356.457	1	3
356.628	1	2
356.799	1	0
356.970	1	1
357.141	1	11
357.311	1	12
357.482	1	1
357.653	1	4
357.824	1	14
357.995	1	10
358.166	1	-5
358.337	1	-6
358.508	1	-10
358.679	1	1
358.850	1	2
359.021	1	1
359.192	1	8
359.363	1	-1
359.533	1	-3
359.704	1	-4
359.875	1	-4
360.046	1	-2
360.217	1	-3
360.388	1	-7
360.559	1	11
360.730	1	-4
360.901	1	2
361.072	1	6
361.243	1	2
361.414	1	9
361.584	1	5
361.755	1	8
361.926	1	-6
362.097	1	-4
362.268	1	8
362.439	1	7
362.610	1	6
362.781	1	17
362.952	1	0
363.123	1	-7
363.293	1	-12
363.464	1	3
363.635	1	11
363.806	1	-3
363.977	1	2
364.148	1	3
364.319	1	-4
364.490	1	13
364.661	1	7
364.832	1	8
365.002	1	0
365.173	1	-11
365.344	1	3
365.515	1	7
365.686	1	0
365.857	1	-1
366.028	1	10
366.199	1	8
366.370	1	7
366.540	1	-4
366.711	1	5
366.882	1	6
367.053	1	5
367.224	1	1
367.395	1	10
367.566	1	11
367.737	1	0
367.908	1	-5
368.078	1	1
368.249	1	7
368.420	1	0
368.591	1	6
368.762	1	-10
368.933	1	18
369.104	1	-2
369.274	1	8
369.445	1	15
369.616	1	-4
369.787	1	2
369.958	1	6
370.129	1	9
370.300	1	10
370.471	1	5
370.641	1	-3
370.812	1	10
370.983	1	-8
371.154	1	5
371.325	1	2
371.496	1	-6
371.667	1	9
371.837	1	4
372.008	1	14
372.179	1	-4
372.350	1	10
372.521	1	4
372.692	1	-4
372.863	1	2
373.033	1	8
373.204	1	14
373.375	1	-3
373.546	1	11
373.717	1	10
373.888	1	9
374.059	1	10
374.229	1	12
374.400	1	6
374.571	1	5
374.742	1	-2
374.913	1	16
375.084	1	12
375.254	1	15
375.425	1	6
375.596	1	-3
375.767	1	0
375.938	1	-7
376.109	1	5
376.279	1	8
376.450	1	0
376.621	1	9
376.792	1	7
376.963	1	3
377.134	1	-5
377.304	1	2
377.475	1	-2
377.646	1	0
377.817	1	1
377.988	1	7
378.159	1	14
378.329	1	8
378.500	1	4
378.671	1	-7
378.842	1	-1
379.013	1	7
379.184	1	7
379.354	1	11
379.525	1	-3
379.696	1	10
379.867	1	-11
380.038	1	2
380.209	1	2
380.379	1	11
380.550	1	7
380.721	1	1
380.892	1	12
381.063	1	8
381.233	1	6
381.404	1	11
381.575	1	6
381.746	1	11
381.917	1	0
382.087	1	5
382.258	1	13
382.429	1	11
382.600	1	11
382.771	1	1
382.941	1	-4
383.112	1	2
383.283	1	8
383.454	1	2
383.625	1	0
383.795	1	-1
383.966	1	-1
384.137	1	5
384.308	1	7
384.479	1	14
384.649	1	17
384.820	1	6
384.991	1	-4
385.162	1	5
385.333	1	-10
385.503	1	9
385.674	1	4
385.845	1	6
386.016	1	11
386.187	1	13
386.357	1	5
386.528	1	-7
386.699	1	2
386.870	1	2
387.041	1	-2
387.211	1	0
387.382	1	-2
387.553	1	8
387.724	1	-1
387.894	1	4
388.065	1	16
388.236	1	15
388.407	1	13
388.578	1	15
388.748	1	5
388.919	1	17
389.090	1	16
389.261	1	11
389.431	1	9
389.602	1	4
389.773	1	-7
389.944	1	3
390.114	1	19
390.285	1	7
390.456	1	14
390.627	1	5
390.798	1	2
390.968	1	4
391.139	1	0
391.310	1	6
391.481	1	8
391.651	1	7
391.822	1	16
391.993	1	2
392.164	1	-11
392.334	1	-4
392.505	1	4
392.676	1	8
392.847	1	9
393.017	1	10
393.188	1	5
393.359	1	0
393.530	1	3
393.700	1	9
393.871	1	6
394.042	1	12
394.213	1	10
394.383	1	8
394.554	1	13
394.725	1	-5
394.896	1	14
395.066	1	13
395.237	1	7
395.408	1	1
395.579	1	11
395.749	1	21
395.920	1	3
396.091	1	14
396.262	1	-6
396.432	1	2
396.603	1	4
396.774	1	7
396.945	1	9
397.115	1	5
397.286	1	14
397.457	1	2
397.627	1	10
397.798	1	7
397.969	1	11
398.140	1	2
398.310	1	8
398.481	1	12
398.652	1	5
398.823	1	4
398.993	1	10
399.164	1	12
399.335	1	-3
399.505	1	9
399.676	1	6
399.847	1	13
400.018	1	4
400.188	1	14
400.359	1	16
400.530	1	10
400.700	1	3
400.871	1	18
401.042	1	20
401.213	1	6
401.383	1	2
401.554	1	9
401.725	1	15
401.895	1	-1
402.066	1	16
402.237	1	24
402.408	1	15
402.578	1	10
402.749	1	16
402.920	1	5
403.090	1	6
403.261	1	8
403.432	1	17
403.603	1	-2
403.773	1	17
403.944	1	10
404.115	1	2
404.285	1	16
404.456	1	12
404.627	1	-1
404.797	1	3
404.968	1	4
405.139	1	7
405.310	1	-4
405.480	1	4
405.651	1	17
405.822	1	21
405.992	1	10
406.163	1	2
406.334	1	13
406.504	1	4
406.675	1	14
406.846	1	6
407.016	1	3
407.187	1	6
407.358	1	5
407.528	1	22
407.699	1	1
407.870	1	7
408.041	1	-1
408.211	1	12
408.382	1	13
408.553	1	0
408.723	1	16
408.894	1	14
409.065	1	22
409.235	1	2
409.406	1	9
409.577	1	2
409.747	1	14
409.918	1	6
410.089	1	-7
410.259	1	3
410.430	1	0
410.601	1	8
410.771	1	17
410.942	1	-5
411.113	1	11
411.283	1	10
411.454	1	12
411.625	1	6
411.795	1	-8
411.966	1	-11
412.137	1	6
412.307	1	9
412.478	1	12
412.649	1	11
412.819	1	-4
412.990	1	12
413.161	1	14
413.331	1	7
413.502	1	-7
413.672	1	4
413.843	1	9
414.014	1	15
414.184	1	14
414.355	1	11
414.526	1	9
414.696	1	16
414.867	1	3
415.038	1	1
415.208	1	0
415.379	1	17
415.550	1	18
415.720	1	5
415.891	1	17
416.062	1	19
416.232	1	14
416.403	1	9
416.573	1	9
416.744	1	6
416.915	1	5
417.085	1	4
417.256	1	9
417.427	1	6
417.597	1	14
417.768	1	12
417.939	1	22
418.109	1	-6
418.280	1	9
418.450	1	20
418.621	1	6
418.792	1	3
418.962	1	-4
419.133	1	15
419.304	1	5
419.474	1	11
419.645	1	10
419.815	1	13
419.986	1	9
420.157	1	15
420.327	1	15
420.498	1	-9
420.669	1	10
420.839	1	3
421.010	1	8
421.180	1	0
421.351	1	17
421.522	1	12
421.692	1	13
421.863	1	6
422.033	1	20
422.204	1	10
422.375	1	6
422.545	1	13
422.716	1	4
422.886	1	14
423.057	1	8
423.228	1	13
423.398	1	21
423.569	1	16
423.740	1	4
423.910	1	12
424.081	1	10
424.251	1	6
424.422	1	-3
424.593	1	13
424.763	1	-4
424.934	1	5
425.104	1	7
425.275	1	19
425.445	1	21
425.616	1	10
425.787	1	10
425.957	1	0
426.128	1	16
426.298	1	17
426.469	1	2
426.640	1	10
426.810	1	11
426.981	1	10
427.151	1	7
427.322	1	0
427.493	1	7
427.663	1	-1
427.834	1	1
428.004	1	13
428.175	1	11
428.345	1	10
428.516	1	10
428.687	1	10
428.857	1	15
429.028	1	9
429.198	1	8
429.369	1	6
429.540	1	2
429.710	1	6
429.881	1	8
430.051	1	5
430.222	1	7
430.392	1	16
430.563	1	8
430.734	1	19
430.904	1	11
431.075	1	-4
431.245	1	11
431.416	1	3
431.586	1	18
431.757	1	11
431.927	1	10
432.098	1	9
432.269	1	10
432.439	1	13
432.610	1	15
432.780	1	14
432.951	1	8
433.121	1	14
433.292	1	7
433.462	1	13
433.633	1	22
433.804	1	-5
433.974	1	8
434.145	1	4
434.315	1	10
434.486	1	3
434.656	1	5
434.827	1	8
434.997	1	21
435.168	1	3
435.339	1	4
435.509	1	7
435.680	1	11
435.850	1	10
436.021	1	8
436.191	1	13
436.362	1	10
436.532	1	6
436.703	1	14
436.873	1	12
437.044	1	5
437.214	1	18
437.385	1	18
437.556	1	7
437.726	1	-2
437.897	1	10
438.067	1	5
438.238	1	4
438.408	1	13
438.579	1	9
438.749	1	2
438.920	1	-3
439.090	1	6
439.261	1	1
439.431	1	10
439.602	1	3
439.772	1	12
439.943	1	7
440.113	1	12
440.284	1	2
440.455	1	15
440.625	1	8
440.796	1	15
440.966	1	14
441.137	1	8
441.307	1	14
441.478	1	8
441.648	1	3
441.819	1	10
441.989	1	9
442.160	1	15
442.330	1	14
442.501	1	7
442.671	1	9
442.842	1	24
443.012	1	0
443.183	1	3
443.353	1	7
443.524	1	4
443.694	1	12
443.865	1	9
444.035	1	10
444.206	1	0
444.376	1	18
444.547	1	5
444.717	1	12
444.888	1	0
445.058	1	16
445.229	1	9
445.399	1	8
445.570	1	6
445.740	1	7
445.911	1	8
446.081	1	12
446.252	1	6
446.422	1	17
446.593	1	9
446.763	1	11
446.934	1	7
447.104	1	8
447.275	1	21
447.445	1	2
447.616	1	6
447.786	1	15
447.957	1	11
448.127	1	20
448.298	1	16
448.468	1	9
448.639	1	4
448.809	1	1
448.979	1	11
449.150	1	9
449.320	1	19
449.491	1	10
449.661	1	16
449.832	1	10
450.002	1	6
450.173	1	-2
450.343	1	19
450.514	1	3
450.684	1	4
450.855	1	8
451.025	1	4
451.196	1	19
451.366	1	5
451.537	1	16
451.707	1	16
451.878	1	3
452.048	1	4
452.218	1	7
452.389	1	12
452.559	1	14
452.730	1	9
452.900	1	2
453.071	1	5
453.241	1	4
453.412	1	-1
453.582	1	-7
453.753	1	3
453.923	1	8
454.093	1	23
454.264	1	4
454.434	1	5
454.605	1	6
454.775	1	2
454.946	1	3
455.116	1	12
455.287	1	4
455.457	1	2
455.628	1	11
455.798	1	8
455.968	1	1
456.139	1	0
456.309	1	13
456.480	1	11
456.650	1	16
456.821	1	28
456.991	1	13
457.161	1	1
457.332	1	7
457.502	1	14
457.673	1	13
457.843	1	12
458.014	1	15
458.184	1	3
458.355	1	6
458.525	1	22
458.695	1	3
458.866	1	26
459.036	1	12
459.207	1	12
459.377	1	8
459.548	1	-3
459.718	1	5
459.888	1	15
460.059	1	12
460.229	1	15
460.400	1	-7
460.570	1	6
460.740	1	-4
460.911	1	7
461.081	1	12
461.252	1	1
461.422	1	12
461.593	1	13
461.763	1	10
461.933	1	2
462.104	1	8
462.274	1	-11
462.445	1	3
462.615	1	2
462.785	1	2
462.956	1	21
463.126	1	10
463.297	1	13
463.467	1	13
463.638	1	0
463.808	1	11
463.978	1	8
464.149	1	-2
464.319	1	8
464.490	1	10
464.660	1	2
464.830	1	10
465.001	1	14
465.171	1	8
465.342	1	2
465.512	1	7
465.682	1	-4
465.853	1	-4
466.023	1	-3
466.194	1	2
466.364	1	10
466.534	1	12
466.705	1	-1
466.875	1	21
467.045	1	5
467.216	1	11
467.386	1	12
467.557	1	9
467.727	1	10
467.897	1	2
468.068	1	-11
468.238	1	7
468.409	1	0
468.579	1	9
468.749	1	3
468.920	1	3
469.090	1	15
469.260	1	7
469.431	1	16
469.601	1	-1
469.772	1	-6
469.942	1	6
470.112	1	11
470.283	1	15
470.453	1	12
470.623	1	13
470.794	1	6
470.964	1	10
471.135	1	13
471.305	1	5
471.475	1	8
471.646	1	7
471.816	1	6
471.986	1	14
472.157	1	8
472.327	1	13
472.497	1	21
472.668	1	8
472.838	1	9
473.009	1	13
473.179	1	14
473.349	1	21
473.520	1	7
473.690	1	22
473.860	1	10
474.031	1	9
474.201	1	14
474.371	1	7
474.542	1	10
474.712	1	-6
474.882	1	-4
475.053	1	12
475.223	1	-3
475.394	1	7
475.564	1	11
475.734	1	13
475.905	1	9
476.075	1	2
476.245	1	16
476.416	1	-6
476.586	1	6
476.756	1	11
476.927	1	3
477.097	1	6
477.267	1	14
477.438	1	15
477.608	1	-4
477.778	1	3
477.949	1	9
478.119	1	10
478.289	1	-2
478.460	1	-7
478.630	1	12
478.800	1	12
478.971	1	14
479.141	1	13
479.311	1	15
479.482	1	12
479.652	1	13
479.822	1	7
479.993	1	5
480.163	1	6
480.333	1	7
480.504	1	2
480.674	1	-6
480.844	1	5
481.015	1	10
481.185	1	1
481.355	1	13
481.525	1	8
481.696	1	10
481.866	1	14
482.036	1	5
482.207	1	-1
482.377	1	-4
482.547	1	7
482.718	1	2
482.888	1	10
483.058	1	4
483.229	1	5
483.399	1	8
483.569	1	6
483.740	1	7
483.910	1	7
484.080	1	-3
484.250	1	-2
484.421	1	-2
484.591	1	5
484.761	1	11
484.932	1	4
485.102	1	13
485.272	1	6
485.443	1	8
485.613	1	10
485.783	1	10
485.953	1	14
486.124	1	4
486.294	1	1
486.464	1	8
486.635	1	9
486.805	1	2
486.975	1	4
487.146	1	-2
487.316	1	2
487.486	1	4
487.656	1	1
487.827	1	2
487.997	1	2
488.167	1	12
488.338	1	3
488.508	1	3
488.678	1	5
488.848	1	6
489.019	1	3
489.189	1	10
489.359	1	1
489.529	1	4
489.700	1	7
489.870	1	3
490.040	1	7
490.211	1	9
490.381	1	6
490.551	1	5
490.721	1	5
490.892	1	6
491.062	1	-7
491.232	1	-2
491.402	1	3
491.573	1	4
491.743	1	5
491.913	1	5
492.084	1	11
492.254	1	1
492.424	1	8
492.594	1	14
492.765	1	-2
492.935	1	3
493.105	1	12
493.275	1	6
493.446	1	2
493.616	1	11
493.786	1	0
493.956	1	-7
494.127	1	11
494.297	1	-5
494.467	1	10
494.637	1	5
494.808	1	7
494.978	1	8
495.148	1	5
495.318	1	5
495.489	1	-3
495.659	1	0
495.829	1	9
495.999	1	5
496.170	1	-6
496.340	1	1
496.510	1	12
496.680	1	-4
496.851	1	9
497.021	1	-1
497.191	1	6
497.361	1	-9
497.532	1	-8
497.702	1	9
497.872	1	9
498.042	1	8
498.213	1	14
498.383	1	9
498.553	1	6
498.723	1	1
498.894	1	3
499.064	1	11
499.234	1	2
499.404	1	-8
499.574	1	1
499.745	1	3
499.915	1	9
500.085	1	6
500.255	1	6
500.426	1	10
500.596	1	6
500.766	1	-7
500.936	1	5
501.106	1	-3
501.277	1	16
501.447	1	7
501.617	1	8
501.787	1	2
501.958	1	0
502.128	1	-9
502.298	1	4
502.468	1	10
502.638	1	11
502.809	1	6
502.979	1	6
503.149	1	-8
503.319	1	-1
503.489	1	4
503.660	1	0
503.830	1	7
504.000	1	12
504.170	1	3
504.340	1	-6
504.511	1	18
504.681	1	-5
504.851	1	5
505.021	1	13
505.192	1	0
505.362	1	5
505.532	1	13
505.702	1	-4
505.872	1	1
506.043	1	6
506.213	1	9
506.383	1	2
506.553	1	6
506.723	1	7
506.893	1	-1
507.064	1	-1
507.234	1	4
507.404	1	5
507.574	1	1
507.744	1	8
507.915	1	3
508.085	1	10
508.255	1	-4
508.425	1	1
508.595	1	-1
508.766	1	1
508.936	1	12
509.106	1	8
509.276	1	6
509.446	1	1
509.616	1	-3
509.787	1	5
509.957	1	4
510.127	1	2
510.297	1	-3
510.467	1	-7
510.638	1	0
510.808	1	-6
510.978	1	-2
511.148	1	13
511.318	1	-1
511.488	1	4
511.659	1	-9
511.829	1	7
511.999	1	5
512.169	1	2
512.339	1	6
512.509	1	5
512.680	1	1
512.850	1	1
513.020	1	1
513.190	1	4
513.360	1	-4
513.530	1	8
513.700	1	6
513.871	1	5
514.041	1	0
514.211	1	6
514.381	1	12
514.551	1	-1
514.721	1	-1
514.892	1	3
515.062	1	11
515.232	1	6
515.402	1	-3
515.572	1	-1
515.742	1	4
515.912	1	1
516.083	1	7
516.253	1	3
516.423	1	9
516.593	1	6
516.763	1	12
516.933	1	-5
517.104	1	-2
517.274	1	-5
517.444	1	-5
517.614	1	5
517.784	1	11
517.954	1	9
518.124	1	-1
518.294	1	16
518.465	1	13
518.635	1	-3
518.805	1	8
518.975	1	4
519.145	1	10
519.315	1	-11
519.485	1	-9
519.656	1	9
519.826	1	6
519.996	1	-1
520.166	1	10
520.336	1	1
520.506	1	-11
520.676	1	6
520.846	1	-5
521.017	1	3
521.187	1	8
521.357	1	6
521.527	1	5
521.697	1	13
521.867	1	1
522.037	1	-14
522.207	1	-2
522.377	1	7
522.548	1	-1
522.718	1	-1
522.888	1	5
523.058	1	5
523.228	1	7
523.398	1	14
523.568	1	6
523.738	1	4
523.909	1	-1
524.079	1	-3
524.249	1	-4
524.419	1	2
524.589	1	-1
524.759	1	4
524.929	1	-3
525.099	1	6
525.269	1	13
525.439	1	4
525.610	1	1
525.780	1	-4
525.950	1	4
526.120	1	-4
526.290	1	-6
526.460	1	-2
526.630	1	5
526.800	1	7
526.970	1	6
527.140	1	3
527.311	1	-3
527.481	1	7
527.651	1	-5
527.821	1	2
527.991	1	4
528.161	1	5
528.331	1	9
528.501	1	3
528.671	1	0
528.841	1	3
529.011	1	-1
529.181	1	4
529.352	1	-2
529.522	1	1
529.692	1	-2
529.862	1	6
530.032	1	-1
530.202	1	7
530.372	1	4
530.542	1	-2
530.712	1	0
530.882	1	-6
531.052	1	4
531.222	1	1
531.392	1	6
531.563	1	7
531.733	1	1
531.903	1	5
532.073	1	-4
532.243	1	4
532.413	1	4
532.583	1	-9
532.753	1	6
532.923	1	9
533.093	1	11
533.263	1	3
533.433	1	12
533.603	1	18
533.773	1	-9
533.943	1	2
534.113	1	6
534.284	1	-1
534.454	1	-8
534.624	1	4
534.794	1	-6
534.964	1	-3
535.134	1	10
535.304	1	15
535.474	1	-5
535.644	1	1
535.814	1	2
535.984	1	13
536.154	1	2
536.324	1	15
536.494	1	7
536.664	1	-1
536.834	1	1
537.004	1	3
537.174	1	3
537.344	1	8
537.514	1	5
537.685	1	-2
537.855	1	-2
538.025	1	18
538.195	1	6
538.365	1	-4
538.535	1	-1
538.705	1	7
538.875	1	6
539.045	1	-7
539.215	1	-8
539.385	1	1
539.555	1	7
539.725	1	8
539.895	1	5
540.065	1	4
540.235	1	-2
540.405	1	7
540.575	1	5
540.745	1	-5
540.915	1	8
541.085	1	-15
541.255	1	-4
541.425	1	9
541.595	1	4
541.765	1	12
541.935	1	-14
542.105	1	10
542.275	1	-3
542.445	1	-5
542.615	1	3
542.785	1	-10
542.955	1	-2
543.125	1	-4
543.295	1	-5
543.465	1	6
543.635	1	0
543.805	1	10
543.975	1	4
544.145	1	0
544.315	1	2
544.485	1	3
544.655	1	5
544.825	1	5
544.995	1	-1
545.165	1	11
545.335	1	-11
545.505	1	5
545.675	1	-5
545.845	1	6
546.015	1	6
546.185	1	1
546.355	1	4
546.525	1	3
546.695	1	8
546.865	1	6
547.035	1	1
547.205	1	5
547.375	1	15
547.545	1	7
547.715	1	12
547.885	1	14
548.055	1	-5
548.225	1	5
548.395	1	-4
548.565	1	4
548.735	1	-1
548.905	1	-11
549.075	1	-5
549.245	1	0
549.415	1	-5
549.585	1	10
549.755	1	4
549.925	1	4
550.095	1	0
550.265	1	4
550.435	1	-4
550.605	1	5
550.775	1	-5
550.945	1	5
551.115	1	-2
551.285	1	7
551.455	1	3
551.625	1	-2
551.795	1	-3
551.965	1	0
552.135	1	-3
552.305	1	-2
552.475	1	-2
552.645	1	1
552.815	1	4
552.985	1	3
553.155	1	6
553.325	1	9
553.495	1	0
553.665	1	0
553.835	1	3
554.004	1	3
554.174	1	8
554.344	1	-6
554.514	1	9
554.684	1	-8
554.854	1	0
555.024	1	-3
555.194	1	-2
555.364	1	1
555.534	1	-1
555.704	1	6
555.874	1	-6
556.044	1	11
556.214	1	3
556.384	1	6
556.554	1	-1
556.724	1	12
556.894	1	-11
557.064	1	1
557.234	1	0
557.404	1	-5
557.573	1	-8
557.743	1	5
557.913	1	-1
558.083	1	12
558.253	1	-10
558.423	1	-4
558.593	1	6
558.763	1	-3
558.933	1	5
559.103	1	11
559.273	1	3
559.443	1	-8
559.613	1	6
559.783	1	2
559.953	1	6
560.122	1	-5
560.292	1	0
560.462	1	0
560.632	1	7
560.802	1	-3
560.972	1	5
561.142	1	3
561.312	1	-1
561.482	1	20
561.652	1	-3
561.822	1	-15
561.992	1	-2
562.162	1	10
562.331	1	4
562.501	1	-13
562.671	1	11
562.841	1	4
563.011	1	-9
563.181	1	0
563.351	1	7
563.521	1	7
563.691	1	3
563.861	1	-2
564.031	1	3
564.201	1	-7
564.370	1	3
564.540	1	9
564.710	1	-4
564.880	1	9
565.050	1	-7
565.220	1	1
565.390	1	5
565.560	1	2
565.730	1	-4
565.900	1	-5
566.069	1	3
566.239	1	3
566.409	1	2
566.579	1	8
566.749	1	3
566.919	1	7
567.089	1	13
567.259	1	13
567.429	1	1
567.599	1	-1
567.768	1	7
567.938	1	-4
568.108	1	7
568.278	1	7
568.448	1	1
568.618	1	-4
568.788	1	-19
568.958	1	-3
569.128	1	-9
569.297	1	-6
569.467	1	4
569.637	1	5
569.807	1	3
569.977	1	0
570.147	1	7
570.317	1	4
570.487	1	0
570.656	1	-7
570.826	1	-5
570.996	1	0
571.166	1	4
571.336	1	-9
571.506	1	5
571.676	1	0
571.846	1	-2
572.015	1	5
572.185	1	-7
572.355	1	-3
572.525	1	-10
572.695	1	-2
572.865	1	9
573.035	1	-10
573.205	1	-9
573.374	1	13
573.544	1	-1
573.714	1	1
573.884	1	-7
574.054	1	-3
574.224	1	-2
574.394	1	2
574.563	1	8
574.733	1	8
574.903	1	2
575.073	1	3
575.243	1	-6
575.413	1	11
575.583	1	3
575.752	1	-1
575.922	1	1
576.092	1	-7
576.262	1	5
576.432	1	7
576.602	1	-4
576.772	1	-2
576.941	1	14
577.111	1	8
577.281	1	12
577.451	1	0
577.621	1	7
577.791	1	3
577.960	1	-7
578.130	1	0
578.300	1	10
578.470	1	15
578.640	1	1
578.810	1	1
578.979	1	-6
579.149	1	0
579.319	1	5
579.489	1	3
579.659	1	-7
579.829	1	11
579.998	1	-1
580.168	1	-2
580.338	1	-3
580.508	1	6
580.678	1	18
580.848	1	-5
581.017	1	3
581.187	1	6
581.357	1	5
581.527	1	-11
581.697	1	-13
581.867	1	4
582.036	1	11
582.206	1	5
582.376	1	4
582.546	1	18
582.716	1	9
582.885	1	-3
583.055	1	-12
583.225	1	-5
583.395	1	-5
583.565	1	-3
583.735	1	-1
583.904	1	3
584.074	1	-4
584.244	1	11
584.414	1	-5
584.584	1	2
584.753	1	12
584.923	1	3
585.093	1	-5
585.263	1	-4
585.433	1	13
585.602	1	9
585.772	1	7
585.942	1	4
586.112	1	2
586.282	1	16
586.451	1	-5
586.621	1	-11
586.791	1	-3
586.961	1	5
587.131	1	6
587.300	1	7
587.470	1	-4
587.640	1	-3
587.810	1	2
587.980	1	-10
588.149	1	6
588.319	1	3
588.489	1	6
588.659	1	3
588.829	1	-4
588.998	1	2
589.168	1	-1
589.338	1	3
589.508	1	5
589.677	1	1
589.847	1	0
590.017	1	-1
590.187	1	2
590.357	1	-6
590.526	1	10
590.696	1	-6
590.866	1	-2
591.036	1	0
591.205	1	-7
591.375	1	4
591.545	1	0
591.715	1	-5
591.885	1	4
592.054	1	-1
592.224	1	0
592.394	1	1
592.564	1	-9
592.733	1	4
592.903	1	-1
593.073	1	-3
593.243	1	4
593.412	1	-5
593.582	1	2
593.752	1	3
593.922	1	12
594.091	1	-5
594.261	1	0
594.431	1	-1
594.601	1	-1
594.771	1	0
594.940	1	-1
595.110	1	5
595.280	1	4
595.450	1	1
595.619	1	6
595.789	1	9
595.959	1	-1
596.129	1	-9
596.298	1	-5
596.468	1	7
596.638	1	5
596.808	1	-9
596.977	1	8
597.147	1	7
597.317	1	5
597.487	1	1
597.656	1	-4
597.826	1	-6
597.996	1	-5
598.166	1	0
598.335	1	4
598.505	1	-11
598.675	1	-3
598.844	1	4
599.014	1	8
599.184	1	-3
599.354	1	6
599.523	1	5
599.693	1	6
599.863	1	5
600.033	1	4
600.202	1	11
600.372	1	1
600.542	1	3
600.712	1	-1
600.881	1	4
601.051	1	4
601.221	1	4
601.390	1	3
601.560	1	4
601.730	1	13
601.900	1	11
602.069	1	-5
602.239	1	5
602.409	1	4
602.578	1	6
602.748	1	-8
602.918	1	2
603.088	1	9
603.257	1	-2
603.427	1	11
603.597	1	0
603.767	1	-3
603.936	1	15
604.106	1	2
604.276	1	4
604.445	1	-12
604.615	1	-2
604.785	1	3
604.954	1	-1
605.124	1	1
605.294	1	5
605.464	1	-3
605.633	1	0
605.803	1	11
605.973	1	2
606.142	1	5
606.312	1	8
606.482	1	8
606.652	1	8
606.821	1	0
606.991	1	3
607.161	1	7
607.330	1	4
607.500	1	4
607.670	1	11
607.839	1	3
608.009	1	-1
608.179	1	-2
608.348	1	3
608.518	1	5
608.688	1	5
608.858	1	1
609.027	1	2
609.197	1	-4
609.367	1	-5
609.536	1	7
609.706	1	4
609.876	1	3
610.045	1	9
610.215	1	2
610.385	1	2
610.554	1	5
610.724	1	4
610.894	1	0
611.063	1	-4
611.233	1	-5
611.403	1	3
611.572	1	6
611.742	1	-5
611.912	1	5
612.081	1	3
612.251	1	8
612.421	1	1
612.590	1	-3
612.760	1	10
612.930	1	-3
613.099	1	1
613.269	1	2
613.439	1	-2
613.608	1	7
613.778	1	-8
613.948	1	6
614.117	1	2
614.287	1	7
614.457	1	1
614.626	1	17
614.796	1	4
614.966	1	-1
615.135	1	-1
615.305	1	13
615.475	1	2
615.644	1	4
615.814	1	-1
615.984	1	0
616.153	1	3
616.323	1	4
616.493	1	-2
616.662	1	-2
616.832	1	6
617.002	1	-2
617.171	1	-1
617.341	1	-1
617.511	1	-9
617.680	1	-3
617.850	1	8
618.019	1	7
618.189	1	1
618.359	1	9
618.528	1	2
618.698	1	0
618.868	1	-6
619.037	1	3
619.207	1	9
619.377	1	-5
619.546	1	-2
619.716	1	0
619.885	1	1
620.055	1	14
620.225	1	11
620.394	1	9
620.564	1	-14
620.734	1	2
620.903	1	-1
621.073	1	6
621.242	1	-6
621.412	1	-2
621.582	1	0
621.751	1	-2
621.921	1	12
622.091	1	-1
622.260	1	5
622.430	1	13
622.599	1	9
622.769	1	-4
622.939	1	2
623.108	1	4
623.278	1	11
623.448	1	9
623.617	1	-2
623.787	1	14
623.956	1	8
624.126	1	1
624.296	1	11
624.465	1	-3
624.635	1	6
624.804	1	-4
624.974	1	3
625.144	1	5
625.313	1	1
625.483	1	1
625.652	1	8
625.822	1	0
625.992	1	17
626.161	1	-4
626.331	1	4
626.501	1	4
626.670	1	7
626.840	1	14
627.009	1	3
627.179	1	-7
627.348	1	8
627.518	1	-2
627.688	1	9
627.857	1	10
628.027	1	-11
628.196	1	-4
628.366	1	12
628.536	1	1
628.705	1	2
628.875	1	3
629.044	1	7
629.214	1	2
629.384	1	1
629.553	1	0
629.723	1	-10
629.892	1	6
630.062	1	-4
630.232	1	14
630.401	1	11
630.571	1	5
630.740	1	-6
630.910	1	4
631.079	1	-4
631.249	1	2
631.419	1	-1
631.588	1	5
631.758	1	5
631.927	1	-1
632.097	1	-1
632.266	1	-14
632.436	1	3
632.606	1	-8
632.775	1	9
632.945	1	2
633.114	1	6
633.284	1	-6
633.453	1	4
633.623	1	15
633.793	1	-5
633.962	1	1
634.132	1	3
634.301	1	0
634.471	1	-9
634.640	1	-3
634.810	1	6
634.979	1	0
635.149	1	6
635.319	1	10
635.488	1	-3
635.658	1	13
635.827	1	-5
635.997	1	4
636.166	1	-1
636.336	1	3
636.505	1	2
636.675	1	-9
636.845	1	11
637.014	1	5
637.184	1	1
637.353	1	0
637.523	1	7
637.692	1	-5
637.862	1	-4
638.031	1	-11
638.201	1	2
638.370	1	8
638.540	1	5
638.710	1	9
638.879	1	14
639.049	1	-9
639.218	1	14
639.388	1	8
639.557	1	7
639.727	1	11
639.896	1	-7
640.066	1	6
640.235	1	-8
640.405	1	8
640.574	1	2
640.744	1	0
640.914	1	9
641.083	1	-5
641.253	1	13
641.422	1	3
641.592	1	-8
641.761	1	1
641.931	1	-3
642.100	1	5
642.270	1	-3
642.439	1	1
642.609	1	12
642.778	1	-1
642.948	1	4
643.117	1	2
643.287	1	-7
643.456	1	4
643.626	1	0
643.795	1	5
643.965	1	4
644.134	1	-2
644.304	1	4
644.473	1	0
644.643	1	5
644.812	1	8
644.982	1	6
645.151	1	9
645.321	1	7
645.490	1	8
645.660	1	0
645.829	1	-3
645.999	1	8
646.168	1	7
646.338	1	1
646.507	1	0
646.677	1	-5
646.846	1	-1
647.016	1	5
647.185	1	2
647.355	1	-3
647.524	1	4
647.694	1	-3
647.863	1	-4
648.033	1	1
648.202	1	6
648.372	1	-5
648.541	1	-6
648.711	1	-1
648.880	1	2
649.050	1	-1
649.219	1	7
649.389	1	-2
649.558	1	-2
649.728	1	1
649.897	1	-3
650.067	1	1
650.236	1	3
650.406	1	3
650.575	1	6
650.745	1	4
650.914	1	4
651.084	1	-1
651.253	1	7
651.423	1	1
651.592	1	2
651.762	1	-5
651.931	1	0
652.101	1	8
652.270	1	-6
652.440	1	7
652.609	1	9
652.778	1	13
652.948	1	9
653.117	1	9
653.287	1	1
653.456	1	-4
653.626	1	-11
653.795	1	0
653.965	1	-5
654.134	1	-3
654.304	1	10
654.473	1	0
654.643	1	1
654.812	1	4
654.982	1	5
655.151	1	6
655.320	1	7
655.490	1	4
655.659	1	5
655.829	1	-5
655.998	1	-9
656.168	1	-6
656.337	1	2
656.507	1	1
656.676	1	-3
656.846	1	0
657.015	1	0
657.184	1	7
657.354	1	1
657.523	1	0
657.693	1	-4
657.862	1	-3
658.032	1	11
658.201	1	13
658.371	1	0
658.540	1	0
658.709	1	-4
658.879	1	9
659.048	1	-4
659.218	1	-4
659.387	1	2
659.557	1	-3
659.726	1	2
659.895	1	3
660.065	1	12
660.234	1	2
660.404	1	-1
660.573	1	5
660.743	1	2
660.912	1	-11
661.081	1	-13
661.251	1	12
661.420	1	4
661.590	1	1
661.759	1	5
661.929	1	2
662.098	1	15
662.267	1	10
662.437	1	3
662.606	1	2
662.776	1	-2
662.945	1	13
663.115	1	5
663.284	1	2
663.453	1	6
663.623	1	3
663.792	1	5
663.962	1	5
664.131	1	3
664.300	1	-13
664.470	1	-3
664.639	1	4
664.809	1	8
664.978	1	-1
665.148	1	-8
665.317	1	4
665.486	1	-6
665.656	1	-5
665.825	1	4
665.995	1	-6
666.164	1	4
666.333	1	3
666.503	1	-4
666.672	1	3
666.842	1	-6
667.011	1	-3
667.180	1	8
667.350	1	12
667.519	1	-2
667.689	1	-2
667.858	1	-2
668.027	1	-5
668.197	1	8
668.366	1	-14
668.536	1	-4
668.705	1	4
668.874	1	8
669.044	1	9
669.213	1	9
669.382	1	7
669.552	1	6
669.721	1	-3
669.891	1	-5
670.060	1	3
670.229	1	-11
670.399	1	6
670.568	1	-3
670.738	1	4
670.907	1	4
671.076	1	1
671.246	1	-1
671.415	1	5
671.584	1	-4
671.754	1	0
671.923	1	2
672.093	1	-1
672.262	1	5
672.431	1	13
672.601	1	4
672.770	1	2
672.939	1	-5
673.109	1	9
673.278	1	0
673.448	1	4
673.617	1	4
673.786	1	9
