325.333	1	-1
325.504	1	4
325.675	1	4
325.846	1	1
326.017	1	-3
326.188	1	5
326.359	1	7
326.531	1	7
326.702	1	2
326.873	1	-2
327.044	1	6
327.215	1	2
327.386	1	0
327.557	1	2
327.728	1	7
327.899	1	0
328.070	1	3
328.241	1	1
328.412	1	-8
328.583	1	6
328.754	1	-5
328.926	1	12
329.097	1	-6
329.268	1	-5
329.439	1	3
329.610	1	8
329.781	1	-1
329.952	1	4
330.123	1	3
330.294	1	8
330.465	1	0
330.636	1	9
330.807	1	1
330.978	1	8
331.149	1	4
331.320	1	12
331.492	1	-2
331.663	1	-4
331.834	1	-9
332.005	1	1
332.176	1	13
332.347	1	12
332.518	1	16
332.689	1	4
332.860	1	8
333.031	1	3
333.202	1	1
333.373	1	-6
333.544	1	0
333.715	1	-4
333.886	1	-2
334.057	1	-4
334.228	1	-6
334.399	1	5
334.570	1	-8
334.741	1	4
334.912	1	-4
335.084	1	-6
335.255	1	3
335.426	1	-5
335.597	1	10
335.768	1	0
335.939	1	-7
336.110	1	4
336.281	1	4
336.452	1	4
336.623	1	-7
336.794	1	-2
336.965	1	2
337.136	1	6
337.307	1	1
337.478	1	-2
337.649	1	-3
337.820	1	-6
337.991	1	2
338.162	1	9
338.333	1	-3
338.504	1	9
338.675	1	7
338.846	1	2
339.017	1	19
339.188	1	2
339.359	1	2
339.530	1	0
339.701	1	-9
339.872	1	3
340.043	1	-8
340.214	1	1
340.385	1	10
340.556	1	-4
340.727	1	10
340.898	1	10
341.069	1	-10
341.240	1	-8
341.411	1	5
341.582	1	6
341.753	1	-7
341.924	1	-8
342.095	1	12
342.266	1	-8
342.437	1	-6
342.608	1	2
342.779	1	10
342.950	1	3
343.121	1	-1
343.292	1	2
343.463	1	-1
343.634	1	-3
343.805	1	5
343.976	1	-7
344.147	1	3
344.318	1	4
344.489	1	11
344.660	1	1
344.831	1	10
345.002	1	8
345.173	1	-2
345.344	1	-8
345.515	1	-1
345.686	1	-2
345.857	1	0
346.028	1	-14
346.199	1	7
346.370	1	-1
346.541	1	-5
346.712	1	-2
346.883	1	16
347.054	1	1
347.225	1	-1
347.396	1	-4
347.567	1	5
347.738	1	-6
347.909	1	7
348.080	1	7
348.251	1	1
348.422	1	1
348.593	1	6
348.764	1	-1
348.935	1	0
349.106	1	8
349.277	1	-1
349.448	1	0
349.619	1	10
349.790	1	8
349.961	1	2
350.132	1	4
350.303	1	-2
350.474	1	-3
350.645	1	7
350.816	1	-7
350.987	1	5
351.157	1	9
351.328	1	-5
351.499	1	7
351.670	1	-6
351.841	1	8
352.012	1	2
352.183	1	0
352.354	1	5
352.525	1	6
352.696	1	9
352.867	1	11
353.038	1	-9
353.209	1	-6
353.380	1	-7
353.551	1	-10
353.722	1	8
353.893	1	-4
354.064	1	-6
354.235	1	0
354.406	1	8
354.576	1	-9
354.747	1	8
354.918	1	8
355.089	1	-1
355.260	1	11
355.431	1	4
355.602	1	1
355.773	1	1
355.944	1	-5
356.115	1	-5
356.286	1	7
356.457	1	-5
356.628	1	-2
356.799	1	4
356.970	1	8
357.141	1	4
357.311	1	-6
357.482	1	-3
357.653	1	8
357.824	1	0
357.995	1	9
358.166	1	5
358.337	1	-6
358.508	1	-5
358.679	1	-4
358.850	1	9
359.021	1	5
359.192	1	7
359.363	1	-14
359.533	1	-4
359.704	1	3
359.875	1	-3
360.046	1	0
360.217	1	0
360.388	1	-6
360.559	1	4
360.730	1	4
360.901	1	-6
361.072	1	2
361.243	1	-5
361.414	1	18
361.584	1	5
361.755	1	4
361.926	1	4
362.097	1	-4
362.268	1	13
362.439	1	11
362.610	1	0
362.781	1	13
362.952	1	-10
363.123	1	-2
363.293	1	-5
363.464	1	3
363.635	1	14
363.806	1	3
363.977	1	12
364.148	1	4
364.319	1	-3
364.490	1	-3
364.661	1	-1
364.832	1	1
365.002	1	-3
365.173	1	-2
365.344	1	2
365.515	1	-2
365.686	1	6
365.857	1	1
366.028	1	-2
366.199	1	5
366.370	1	7
366.540	1	5
366.711	1	7
366.882	1	1
367.053	1	9
367.224	1	-12
367.395	1	5
367.566	1	10
367.737	1	-6
367.908	1	-4
368.078	1	-3
368.249	1	0
368.420	1	-1
368.591	1	2
368.762	1	-10
368.933	1	23
369.104	1	-7
369.274	1	3
369.445	1	13
369.616	1	-5
369.787	1	-5
369.958	1	10
370.129	1	2
370.300	1	9
370.471	1	10
370.641	1	1
370.812	1	4
370.983	1	-4
371.154	1	17
371.325	1	-2
371.496	1	-3
371.667	1	0
371.837	1	4
372.008	1	3
372.179	1	5
372.350	1	2
372.521	1	-5
372.692	1	5
372.863	1	1
373.033	1	7
373.204	1	15
373.375	1	1
373.546	1	5
373.717	1	1
373.888	1	4
374.059	1	7
374.229	1	4
374.400	1	7
374.571	1	12
374.742	1	4
374.913	1	9
375.084	1	10
375.254	1	4
375.425	1	-7
375.596	1	11
375.767	1	0
375.938	1	-8
376.109	1	-4
376.279	1	4
376.450	1	2
376.621	1	0
376.792	1	10
376.963	1	-3
377.134	1	1
377.304	1	6
377.475	1	2
377.646	1	-4
377.817	1	-3
377.988	1	0
378.159	1	12
378.329	1	7
378.500	1	1
378.671	1	-9
378.842	1	0
379.013	1	8
379.184	1	13
379.354	1	8
379.525	1	-5
379.696	1	17
379.867	1	1
380.038	1	-1
380.209	1	2
380.379	1	10
380.550	1	0
380.721	1	-4
380.892	1	15
381.063	1	7
381.233	1	10
381.404	1	7
381.575	1	9
381.746	1	2
381.917	1	0
382.087	1	0
382.258	1	7
382.429	1	11
382.600	1	9
382.771	1	-1
382.941	1	-2
383.112	1	7
383.283	1	8
383.454	1	0
383.625	1	4
383.795	1	4
383.966	1	4
384.137	1	2
384.308	1	7
384.479	1	1
384.649	1	11
384.820	1	5
384.991	1	-11
385.162	1	14
385.333	1	5
385.503	1	16
385.674	1	16
385.845	1	6
386.016	1	14
386.187	1	1
386.357	1	3
386.528	1	-2
386.699	1	4
386.870	1	13
387.041	1	3
387.211	1	-1
387.382	1	-9
387.553	1	1
387.724	1	4
387.894	1	18
388.065	1	15
388.236	1	8
388.407	1	3
388.578	1	18
388.748	1	10
388.919	1	9
389.090	1	8
389.261	1	19
389.431	1	11
389.602	1	-5
389.773	1	-8
389.944	1	4
390.114	1	15
390.285	1	0
390.456	1	7
390.627	1	4
390.798	1	11
390.968	1	-9
391.139	1	4
391.310	1	8
391.481	1	-2
391.651	1	8
391.822	1	17
391.993	1	8
392.164	1	-7
392.334	1	1
392.505	1	-3
392.676	1	3
392.847	1	11
393.017	1	4
393.188	1	4
393.359	1	1
393.530	1	4
393.700	1	10
393.871	1	19
394.042	1	12
394.213	1	12
394.383	1	6
394.554	1	11
394.725	1	4
394.896	1	5
395.066	1	7
395.237	1	2
395.408	1	5
395.579	1	11
395.749	1	4
395.920	1	5
396.091	1	12
396.262	1	-5
396.432	1	3
396.603	1	2
396.774	1	13
396.945	1	2
397.115	1	-2
397.286	1	17
397.457	1	0
397.627	1	-1
397.798	1	10
397.969	1	3
398.140	1	4
398.310	1	-2
398.481	1	14
398.652	1	-5
398.823	1	1
398.993	1	24
399.164	1	11
399.335	1	-1
399.505	1	18
399.676	1	5
399.847	1	10
400.018	1	7
400.188	1	5
400.359	1	16
400.530	1	4
400.700	1	0
400.871	1	6
401.042	1	10
401.213	1	5
401.383	1	1
401.554	1	8
401.725	1	2
401.895	1	-1
402.066	1	7
402.237	1	11
402.408	1	13
402.578	1	0
402.749	1	16
402.920	1	16
403.090	1	12
403.261	1	11
403.432	1	6
403.603	1	-4
403.773	1	14
403.944	1	23
404.115	1	0
404.285	1	15
404.456	1	10
404.627	1	10
404.797	1	5
404.968	1	-8
405.139	1	15
405.310	1	3
405.480	1	9
405.651	1	9
405.822	1	14
405.992	1	2
406.163	1	13
406.334	1	8
406.504	1	10
406.675	1	4
406.846	1	6
407.016	1	11
407.187	1	12
407.358	1	5
407.528	1	9
407.699	1	6
407.870	1	12
408.041	1	3
408.211	1	-2
408.382	1	8
408.553	1	-1
408.723	1	12
408.894	1	-4
409.065	1	17
409.235	1	8
409.406	1	2
409.577	1	6
409.747	1	13
409.918	1	5
410.089	1	-7
410.259	1	4
410.430	1	3
410.601	1	6
410.771	1	5
410.942	1	-4
411.113	1	22
411.283	1	10
411.454	1	9
411.625	1	15
411.795	1	-3
411.966	1	0
412.137	1	5
412.307	1	-2
412.478	1	17
412.649	1	6
412.819	1	7
412.990	1	12
413.161	1	15
413.331	1	4
413.502	1	-8
413.672	1	10
413.843	1	9
414.014	1	15
414.184	1	11
414.355	1	15
414.526	1	12
414.696	1	7
414.867	1	8
415.038	1	-3
415.208	1	4
415.379	1	14
415.550	1	15
415.720	1	10
415.891	1	18
416.062	1	14
416.232	1	12
416.403	1	-3
416.573	1	1
416.744	1	9
416.915	1	6
417.085	1	8
417.256	1	3
417.427	1	9
417.597	1	13
417.768	1	13
417.939	1	17
418.109	1	-2
418.280	1	1
418.450	1	16
418.621	1	-1
418.792	1	9
418.962	1	0
419.133	1	18
419.304	1	5
419.474	1	7
419.645	1	4
419.815	1	6
419.986	1	-5
420.157	1	13
420.327	1	6
420.498	1	1
420.669	1	11
420.839	1	5
421.010	1	7
421.180	1	0
421.351	1	25
421.522	1	8
421.692	1	14
421.863	1	8
422.033	1	11
422.204	1	9
422.375	1	10
422.545	1	12
422.716	1	5
422.886	1	13
423.057	1	7
423.228	1	7
423.398	1	5
423.569	1	9
423.740	1	-5
423.910	1	14
424.081	1	16
424.251	1	1
424.422	1	-1
424.593	1	6
424.763	1	5
424.934	1	8
425.104	1	1
425.275	1	3
425.445	1	17
425.616	1	10
425.787	1	9
425.957	1	8
426.128	1	18
426.298	1	5
426.469	1	8
426.640	1	9
426.810	1	9
426.981	1	5
427.151	1	1
427.322	1	0
427.493	1	0
427.663	1	4
427.834	1	1
428.004	1	7
428.175	1	14
428.345	1	8
428.516	1	11
428.687	1	4
428.857	1	8
429.028	1	8
429.198	1	13
429.369	1	9
429.540	1	3
429.710	1	6
429.881	1	12
430.051	1	11
430.222	1	4
430.392	1	11
430.563	1	9
430.734	1	6
430.904	1	10
431.075	1	4
431.245	1	12
431.416	1	-3
431.586	1	10
431.757	1	9
431.927	1	-6
432.098	1	11
432.269	1	16
432.439	1	14
432.610	1	10
432.780	1	12
432.951	1	7
433.121	1	15
433.292	1	3
433.462	1	1
433.633	1	14
433.804	1	-1
433.974	1	12
434.145	1	8
434.315	1	19
434.486	1	-4
434.656	1	4
434.827	1	2
434.997	1	12
435.168	1	2
435.339	1	11
435.509	1	9
435.680	1	13
435.850	1	4
436.021	1	5
436.191	1	16
436.362	1	15
436.532	1	11
436.703	1	13
436.873	1	5
437.044	1	-1
437.214	1	14
437.385	1	11
437.556	1	9
437.726	1	2
437.897	1	2
438.067	1	8
438.238	1	6
438.408	1	3
438.579	1	10
438.749	1	-3
438.920	1	4
439.090	1	8
439.261	1	12
439.431	1	8
439.602	1	6
439.772	1	15
439.943	1	16
440.113	1	-1
440.284	1	2
440.455	1	3
440.625	1	11
440.796	1	-2
440.966	1	5
441.137	1	11
441.307	1	3
441.478	1	13
441.648	1	6
441.819	1	10
441.989	1	-1
442.160	1	10
442.330	1	15
442.501	1	13
442.671	1	14
442.842	1	13
443.012	1	3
443.183	1	3
443.353	1	14
443.524	1	12
443.694	1	7
443.865	1	11
444.035	1	10
444.206	1	6
444.376	1	13
444.547	1	-4
444.717	1	13
444.888	1	9
445.058	1	12
445.229	1	5
445.399	1	7
445.570	1	0
445.740	1	6
445.911	1	17
446.081	1	11
446.252	1	-7
446.422	1	6
446.593	1	7
446.763	1	12
446.934	1	15
447.104	1	1
447.275	1	6
447.445	1	2
447.616	1	8
447.786	1	1
447.957	1	9
448.127	1	14
448.298	1	17
448.468	1	6
448.639	1	1
448.809	1	0
448.979	1	7
449.150	1	9
449.320	1	15
449.491	1	11
449.661	1	15
449.832	1	7
450.002	1	8
450.173	1	9
450.343	1	8
450.514	1	9
450.684	1	5
450.855	1	7
451.025	1	3
451.196	1	11
451.366	1	2
451.537	1	9
451.707	1	7
451.878	1	9
452.048	1	-4
452.218	1	9
452.389	1	9
452.559	1	12
452.730	1	5
452.900	1	14
453.071	1	8
453.241	1	9
453.412	1	-1
453.582	1	-2
453.753	1	8
453.923	1	13
454.093	1	13
454.264	1	2
454.434	1	12
454.605	1	7
454.775	1	2
454.946	1	8
455.116	1	6
455.287	1	12
455.457	1	10
455.628	1	1
455.798	1	6
455.968	1	6
456.139	1	-3
456.309	1	15
456.480	1	1
456.650	1	5
456.821	1	13
456.991	1	8
457.161	1	8
457.332	1	-1
457.502	1	9
457.673	1	16
457.843	1	7
458.014	1	5
458.184	1	6
458.355	1	13
458.525	1	2
458.695	1	13
458.866	1	17
459.036	1	2
459.207	1	4
459.377	1	14
459.548	1	-3
459.718	1	7
459.888	1	10
460.059	1	13
460.229	1	21
460.400	1	3
460.570	1	2
460.740	1	2
460.911	1	13
461.081	1	8
461.252	1	-5
461.422	1	12
461.593	1	16
461.763	1	19
461.933	1	6
462.104	1	10
462.274	1	-1
462.445	1	-1
462.615	1	10
462.785	1	3
462.956	1	6
463.126	1	-2
463.297	1	12
463.467	1	14
463.638	1	9
463.808	1	9
463.978	1	9
464.149	1	-4
464.319	1	6
464.490	1	3
464.660	1	8
464.830	1	3
465.001	1	4
465.171	1	9
465.342	1	4
465.512	1	20
465.682	1	1
465.853	1	-3
466.023	1	6
466.194	1	7
466.364	1	7
466.534	1	4
466.705	1	-9
466.875	1	8
467.045	1	2
467.216	1	13
467.386	1	20
467.557	1	12
467.727	1	20
467.897	1	6
468.068	1	-4
468.238	1	13
468.409	1	2
468.579	1	10
468.749	1	-3
468.920	1	-1
469.090	1	17
469.260	1	3
469.431	1	14
469.601	1	-4
469.772	1	-11
469.942	1	3
470.112	1	16
470.283	1	10
470.453	1	18
470.623	1	2
470.794	1	5
470.964	1	11
471.135	1	13
471.305	1	7
471.475	1	3
471.646	1	7
471.816	1	4
471.986	1	4
472.157	1	8
472.327	1	8
472.497	1	6
472.668	1	6
472.838	1	7
473.009	1	12
473.179	1	12
473.349	1	11
473.520	1	3
473.690	1	6
473.860	1	9
474.031	1	11
474.201	1	13
474.371	1	8
474.542	1	17
474.712	1	4
474.882	1	-4
475.053	1	14
475.223	1	-2
475.394	1	1
475.564	1	3
475.734	1	9
475.905	1	13
476.075	1	1
476.245	1	12
476.416	1	-7
476.586	1	0
476.756	1	6
476.927	1	0
477.097	1	14
477.267	1	14
477.438	1	11
477.608	1	6
477.778	1	13
477.949	1	5
478.119	1	13
478.289	1	2
478.460	1	-8
478.630	1	25
478.800	1	8
478.971	1	11
479.141	1	2
479.311	1	12
479.482	1	15
479.652	1	12
479.822	1	3
479.993	1	3
480.163	1	11
480.333	1	7
480.504	1	-4
480.674	1	7
480.844	1	6
481.015	1	5
481.185	1	-2
481.355	1	11
481.525	1	17
481.696	1	2
481.866	1	15
482.036	1	8
482.207	1	2
482.377	1	8
482.547	1	-1
482.718	1	0
482.888	1	4
483.058	1	5
483.229	1	5
483.399	1	6
483.569	1	1
483.740	1	7
483.910	1	-5
484.080	1	0
484.250	1	-4
484.421	1	9
484.591	1	6
484.761	1	5
484.932	1	6
485.102	1	11
485.272	1	1
485.443	1	3
485.613	1	14
485.783	1	19
485.953	1	5
486.124	1	17
486.294	1	4
486.464	1	-1
486.635	1	3
486.805	1	2
486.975	1	6
487.146	1	-3
487.316	1	11
487.486	1	1
487.656	1	0
487.827	1	3
487.997	1	5
488.167	1	1
488.338	1	1
488.508	1	6
488.678	1	7
488.848	1	3
489.019	1	-7
489.189	1	10
489.359	1	3
489.529	1	3
489.700	1	6
489.870	1	4
490.040	1	-6
490.211	1	1
490.381	1	7
490.551	1	-2
490.721	1	0
490.892	1	2
491.062	1	4
491.232	1	5
491.402	1	6
491.573	1	3
491.743	1	2
491.913	1	1
492.084	1	5
492.254	1	3
492.424	1	16
492.594	1	14
492.765	1	2
492.935	1	-4
493.105	1	20
493.275	1	1
493.446	1	-2
493.616	1	-2
493.786	1	11
493.956	1	-7
494.127	1	4
494.297	1	-6
494.467	1	10
494.637	1	8
494.808	1	0
494.978	1	-4
495.148	1	9
495.318	1	10
495.489	1	-4
495.659	1	-3
495.829	1	7
495.999	1	2
496.170	1	-5
496.340	1	10
496.510	1	6
496.680	1	6
496.851	1	0
497.021	1	-4
497.191	1	5
497.361	1	-1
497.532	1	0
497.702	1	10
497.872	1	15
498.042	1	7
498.213	1	1
498.383	1	8
498.553	1	-4
498.723	1	-1
498.894	1	13
499.064	1	3
499.234	1	0
499.404	1	-1
499.574	1	2
499.745	1	3
499.915	1	4
500.085	1	9
500.255	1	2
500.426	1	9
500.596	1	-6
500.766	1	3
500.936	1	10
501.106	1	7
501.277	1	8
501.447	1	8
501.617	1	7
501.787	1	1
501.958	1	5
502.128	1	-6
502.298	1	2
502.468	1	8
502.638	1	1
502.809	1	2
502.979	1	8
503.149	1	-2
503.319	1	9
503.489	1	-3
503.660	1	-5
503.830	1	-1
504.000	1	7
504.170	1	-3
504.340	1	4
504.511	1	3
504.681	1	-8
504.851	1	4
505.021	1	11
505.192	1	-1
505.362	1	5
505.532	1	2
505.702	1	4
505.872	1	7
506.043	1	16
506.213	1	1
506.383	1	2
506.553	1	8
506.723	1	8
506.893	1	-5
507.064	1	4
507.234	1	0
507.404	1	10
507.574	1	-7
507.744	1	5
507.915	1	5
508.085	1	9
508.255	1	2
508.425	1	3
508.595	1	7
508.766	1	0
508.936	1	4
509.106	1	0
509.276	1	1
509.446	1	0
509.616	1	5
509.787	1	10
509.957	1	0
510.127	1	4
510.297	1	-3
510.467	1	-8
510.638	1	7
510.808	1	-10
510.978	1	-5
511.148	1	26
511.318	1	-4
511.488	1	13
511.659	1	-3
511.829	1	3
511.999	1	5
512.169	1	-1
512.339	1	0
512.509	1	6
512.680	1	0
512.850	1	5
513.020	1	-3
513.190	1	1
513.360	1	4
513.530	1	-4
513.700	1	0
513.871	1	5
514.041	1	-1
514.211	1	0
514.381	1	7
514.551	1	4
514.721	1	0
514.892	1	0
515.062	1	3
515.232	1	3
515.402	1	0
515.572	1	-1
515.742	1	2
515.912	1	-2
516.083	1	5
516.253	1	1
516.423	1	-1
516.593	1	8
516.763	1	2
516.933	1	-3
517.104	1	1
517.274	1	-3
517.444	1	-8
517.614	1	3
517.784	1	5
517.954	1	1
518.124	1	1
518.294	1	9
518.465	1	2
518.635	1	0
518.805	1	9
518.975	1	6
519.145	1	3
519.315	1	-2
519.485	1	2
519.656	1	10
519.826	1	7
519.996	1	-2
520.166	1	13
520.336	1	-1
520.506	1	-7
520.676	1	3
520.846	1	1
521.017	1	-6
521.187	1	11
521.357	1	5
521.527	1	9
521.697	1	0
521.867	1	1
522.037	1	-2
522.207	1	-1
522.377	1	10
522.548	1	14
522.718	1	1
522.888	1	7
523.058	1	-2
523.228	1	1
523.398	1	10
523.568	1	-1
523.738	1	-4
523.909	1	4
524.079	1	10
524.249	1	0
524.419	1	1
524.589	1	6
524.759	1	-3
524.929	1	0
525.099	1	-3
525.269	1	2
525.439	1	-1
525.610	1	14
525.780	1	4
525.950	1	4
526.120	1	0
526.290	1	-4
526.460	1	0
526.630	1	5
526.800	1	-2
526.970	1	3
527.140	1	8
527.311	1	-7
527.481	1	0
527.651	1	5
527.821	1	-9
527.991	1	-5
528.161	1	1
528.331	1	5
528.501	1	2
528.671	1	-3
528.841	1	10
529.011	1	-1
529.181	1	6
529.352	1	-5
529.522	1	-1
529.692	1	-1
529.862	1	7
530.032	1	3
530.202	1	-1
530.372	1	-1
530.542	1	-3
530.712	1	-6
530.882	1	-3
531.052	1	17
531.222	1	0
531.392	1	7
531.563	1	-3
531.733	1	5
531.903	1	3
532.073	1	0
532.243	1	-4
532.413	1	13
532.583	1	-2
532.753	1	-3
532.923	1	15
533.093	1	17
533.263	1	-10
533.433	1	5
533.603	1	7
533.773	1	-1
533.943	1	-7
534.113	1	8
534.284	1	3
534.454	1	-4
534.624	1	-1
534.794	1	-11
534.964	1	-4
535.134	1	4
535.304	1	10
535.474	1	-15
535.644	1	-1
535.814	1	0
535.984	1	9
536.154	1	2
536.324	1	5
536.494	1	10
536.664	1	3
536.834	1	-3
537.004	1	6
537.174	1	-2
537.344	1	6
537.514	1	-3
537.685	1	2
537.855	1	-7
538.025	1	-2
538.195	1	8
538.365	1	-2
538.535	1	-6
538.705	1	6
538.875	1	9
539.045	1	4
539.215	1	-14
539.385	1	0
539.555	1	-1
539.725	1	1
539.895	1	16
540.065	1	1
540.235	1	3
540.405	1	-6
540.575	1	0
540.745	1	-7
540.915	1	-1
541.085	1	-12
541.255	1	-11
541.425	1	3
541.595	1	3
541.765	1	16
541.935	1	-7
542.105	1	9
542.275	1	-6
542.445	1	-9
542.615	1	5
542.785	1	-6
542.955	1	-5
543.125	1	-7
543.295	1	1
543.465	1	10
543.635	1	0
543.805	1	11
543.975	1	3
544.145	1	2
544.315	1	-1
544.485	1	-4
544.655	1	14
544.825	1	-4
544.995	1	8
545.165	1	2
545.335	1	-3
545.505	1	10
545.675	1	-3
545.845	1	10
546.015	1	3
546.185	1	5
546.355	1	1
546.525	1	-4
546.695	1	1
546.865	1	10
547.035	1	3
547.205	1	4
547.375	1	10
547.545	1	6
547.715	1	4
547.885	1	4
548.055	1	-9
548.225	1	11
548.395	1	-9
548.565	1	14
548.735	1	-1
548.905	1	-1
549.075	1	3
549.245	1	-3
549.415	1	-2
549.585	1	0
549.755	1	9
549.925	1	5
550.095	1	-4
550.265	1	-1
550.435	1	-14
550.605	1	-2
550.775	1	-1
550.945	1	-4
551.115	1	0
551.285	1	7
551.455	1	2
551.625	1	3
551.795	1	3
551.965	1	-3
552.135	1	-3
552.305	1	-3
552.475	1	-5
552.645	1	-3
552.815	1	0
552.985	1	-1
553.155	1	-5
553.325	1	7
553.495	1	9
553.665	1	10
553.835	1	-11
554.004	1	-1
554.174	1	-13
554.344	1	3
554.514	1	2
554.684	1	2
554.854	1	0
555.024	1	-1
555.194	1	7
555.364	1	0
555.534	1	-2
555.704	1	7
555.874	1	-9
556.044	1	9
556.214	1	6
556.384	1	7
556.554	1	3
556.724	1	1
556.894	1	-3
557.064	1	-2
557.234	1	2
557.404	1	2
557.573	1	-8
557.743	1	1
557.913	1	-1
558.083	1	2
558.253	1	-13
558.423	1	4
558.593	1	10
558.763	1	0
558.933	1	0
559.103	1	9
559.273	1	-3
559.443	1	1
559.613	1	-2
559.783	1	6
559.953	1	13
560.122	1	-4
560.292	1	-4
560.462	1	-4
560.632	1	12
560.802	1	-2
560.972	1	5
561.142	1	6
561.312	1	1
561.482	1	9
561.652	1	-5
561.822	1	0
561.992	1	-9
562.162	1	3
562.331	1	1
562.501	1	-5
562.671	1	16
562.841	1	-7
563.011	1	-14
563.181	1	8
563.351	1	-7
563.521	1	0
563.691	1	10
563.861	1	0
564.031	1	0
564.201	1	6
564.370	1	-9
564.540	1	-8
564.710	1	1
564.880	1	-1
565.050	1	-1
565.220	1	-5
565.390	1	7
565.560	1	-2
565.730	1	0
565.900	1	-2
566.069	1	2
566.239	1	2
566.409	1	8
566.579	1	3
566.749	1	1
566.919	1	-2
567.089	1	6
567.259	1	8
567.429	1	9
567.599	1	-2
567.768	1	3
567.938	1	0
568.108	1	8
568.278	1	2
568.448	1	-3
568.618	1	12
568.788	1	-10
568.958	1	-9
569.128	1	-12
569.297	1	6
569.467	1	7
569.637	1	-6
569.807	1	-1
569.977	1	7
570.147	1	-4
570.317	1	1
570.487	1	7
570.656	1	-4
570.826	1	-3
570.996	1	8
571.166	1	-8
571.336	1	-3
571.506	1	1
571.676	1	-8
571.846	1	-4
572.015	1	15
572.185	1	-2
572.355	1	6
572.525	1	-2
572.695	1	1
572.865	1	0
573.035	1	-5
573.205	1	-2
573.374	1	13
573.544	1	4
573.714	1	4
573.884	1	5
574.054	1	-2
574.224	1	2
574.394	1	2
574.563	1	4
574.733	1	-2
574.903	1	2
575.073	1	-4
575.243	1	4
575.413	1	2
575.583	1	6
575.752	1	9
575.922	1	4
576.092	1	-3
576.262	1	0
576.432	1	6
576.602	1	-4
576.772	1	3
576.941	1	7
577.111	1	-1
577.281	1	19
577.451	1	-4
577.621	1	4
577.791	1	-7
577.960	1	5
578.130	1	11
578.300	1	1
578.470	1	5
578.640	1	-1
578.810	1	2
578.979	1	1
579.149	1	1
579.319	1	8
579.489	1	4
579.659	1	1
579.829	1	-1
579.998	1	6
580.168	1	-3
580.338	1	7
580.508	1	-15
580.678	1	6
580.848	1	-8
581.017	1	5
581.187	1	8
581.357	1	-9
581.527	1	-1
581.697	1	-5
581.867	1	-4
582.036	1	0
582.206	1	0
582.376	1	6
582.546	1	4
582.716	1	9
582.885	1	-11
583.055	1	-2
583.225	1	-6
583.395	1	-9
583.565	1	-7
583.735	1	1
583.904	1	-1
584.074	1	-6
584.244	1	11
584.414	1	-3
584.584	1	5
584.753	1	3
584.923	1	6
585.093	1	-8
585.263	1	-4
585.433	1	9
585.602	1	-1
585.772	1	0
585.942	1	-5
586.112	1	9
586.282	1	8
586.451	1	-4
586.621	1	-7
586.791	1	-2
586.961	1	6
587.131	1	3
587.300	1	8
587.470	1	-3
587.640	1	-10
587.810	1	-8
587.980	1	-3
588.149	1	3
588.319	1	3
588.489	1	1
588.659	1	8
588.829	1	-12
588.998	1	-4
589.168	1	5
589.338	1	3
589.508	1	12
589.677	1	-2
589.847	1	10
590.017	1	8
590.187	1	-8
590.357	1	-5
590.526	1	11
590.696	1	4
590.866	1	2
591.036	1	-10
591.205	1	-5
591.375	1	-1
591.545	1	-4
591.715	1	-2
591.885	1	-2
592.054	1	2
592.224	1	-2
592.394	1	-5
592.564	1	-3
592.733	1	6
592.903	1	1
593.073	1	-10
593.243	1	4
593.412	1	-1
593.582	1	1
593.752	1	0
593.922	1	7
594.091	1	-15
594.261	1	-6
594.431	1	2
594.601	1	-4
594.771	1	12
594.940	1	1
595.110	1	0
595.280	1	5
595.450	1	-2
595.619	1	0
595.789	1	7
595.959	1	-1
596.129	1	-4
596.298	1	3
596.468	1	5
596.638	1	-1
596.808	1	-6
596.977	1	4
597.147	1	10
597.317	1	10
597.487	1	2
597.656	1	1
597.826	1	0
597.996	1	6
598.166	1	12
598.335	1	-1
598.505	1	-5
598.675	1	2
598.844	1	1
599.014	1	3
599.184	1	-5
599.354	1	-2
599.523	1	-2
599.693	1	-4
599.863	1	11
600.033	1	-1
600.202	1	4
600.372	1	3
600.542	1	-5
600.712	1	18
600.881	1	2
601.051	1	0
601.221	1	6
601.390	1	11
601.560	1	0
601.730	1	8
601.900	1	12
602.069	1	-2
602.239	1	8
602.409	1	-2
602.578	1	11
602.748	1	-1
602.918	1	-4
603.088	1	4
603.257	1	6
603.427	1	7
603.597	1	2
603.767	1	-4
603.936	1	16
604.106	1	6
604.276	1	6
604.445	1	-5
604.615	1	0
604.785	1	2
604.954	1	3
605.124	1	-3
605.294	1	11
605.464	1	-13
605.633	1	6
605.803	1	4
605.973	1	-4
606.142	1	6
606.312	1	7
606.482	1	-3
606.652	1	9
606.821	1	1
606.991	1	-5
607.161	1	-3
607.330	1	1
607.500	1	7
607.670	1	5
607.839	1	0
608.009	1	-5
608.179	1	-6
608.348	1	-3
608.518	1	-5
608.688	1	7
608.858	1	-2
609.027	1	-1
609.197	1	5
609.367	1	2
609.536	1	19
609.706	1	10
609.876	1	-2
610.045	1	0
610.215	1	5
610.385	1	2
610.554	1	0
610.724	1	7
610.894	1	4
611.063	1	4
611.233	1	-5
611.403	1	4
611.572	1	7
611.742	1	-5
611.912	1	-4
612.081	1	3
612.251	1	5
612.421	1	3
612.590	1	-3
612.760	1	10
612.930	1	-3
613.099	1	2
613.269	1	6
613.439	1	3
613.608	1	-4
613.778	1	-10
613.948	1	11
614.117	1	3
614.287	1	3
614.457	1	5
614.626	1	8
614.796	1	5
614.966	1	12
615.135	1	6
615.305	1	12
615.475	1	-11
615.644	1	3
615.814	1	7
615.984	1	1
616.153	1	6
616.323	1	8
616.493	1	10
616.662	1	-2
616.832	1	2
617.002	1	-7
617.171	1	-5
617.341	1	0
617.511	1	-3
617.680	1	2
617.850	1	-2
618.019	1	3
618.189	1	-3
618.359	1	-3
618.528	1	-9
618.698	1	-4
618.868	1	-4
619.037	1	-1
619.207	1	7
619.377	1	1
619.546	1	-20
619.716	1	0
619.885	1	-4
620.055	1	3
620.225	1	7
620.394	1	6
620.564	1	-4
620.734	1	4
620.903	1	8
621.073	1	0
621.242	1	-2
621.412	1	16
621.582	1	0
621.751	1	-7
621.921	1	3
622.091	1	0
622.260	1	5
622.430	1	-1
622.599	1	7
622.769	1	-1
622.939	1	-4
623.108	1	2
623.278	1	13
623.448	1	4
623.617	1	0
623.787	1	3
623.956	1	7
624.126	1	-2
624.296	1	8
624.465	1	6
624.635	1	15
624.804	1	-8
624.974	1	-7
625.144	1	10
625.313	1	1
625.483	1	0
625.652	1	11
625.822	1	0
625.992	1	1
626.161	1	-8
626.331	1	4
626.501	1	-8
626.670	1	-3
626.840	1	5
627.009	1	-2
627.179	1	-12
627.348	1	3
627.518	1	6
627.688	1	-1
627.857	1	-5
628.027	1	2
628.196	1	-7
628.366	1	5
628.536	1	-3
628.705	1	-4
628.875	1	-9
629.044	1	3
629.214	1	4
629.384	1	3
629.553	1	9
629.723	1	-4
629.892	1	-3
630.062	1	-3
630.232	1	13
630.401	1	-4
630.571	1	5
630.740	1	-5
630.910	1	7
631.079	1	0
631.249	1	0
631.419	1	1
631.588	1	5
631.758	1	-6
631.927	1	1
632.097	1	-5
632.266	1	-5
632.436	1	11
632.606	1	-4
632.775	1	15
632.945	1	-2
633.114	1	6
633.284	1	2
633.453	1	6
633.623	1	13
633.793	1	-3
633.962	1	0
634.132	1	-15
634.301	1	-1
634.471	1	-4
634.640	1	1
634.810	1	5
634.979	1	7
635.149	1	0
635.319	1	9
635.488	1	-2
635.658	1	11
635.827	1	4
635.997	1	-5
636.166	1	-9
636.336	1	4
636.505	1	5
636.675	1	-1
636.845	1	-2
637.014	1	6
637.184	1	7
637.353	1	6
637.523	1	9
637.692	1	-1
637.862	1	-3
638.031	1	-6
638.201	1	-9
638.370	1	11
638.540	1	4
638.710	1	6
638.879	1	12
639.049	1	-4
639.218	1	9
639.388	1	4
639.557	1	4
639.727	1	4
639.896	1	2
640.066	1	6
640.235	1	-7
640.405	1	2
640.574	1	1
640.744	1	-1
640.914	1	0
641.083	1	-6
641.253	1	-5
641.422	1	11
641.592	1	-4
641.761	1	-1
641.931	1	-2
642.100	1	6
642.270	1	3
642.439	1	1
642.609	1	7
642.778	1	2
642.948	1	10
643.117	1	6
643.287	1	-7
643.456	1	6
643.626	1	0
643.795	1	6
643.965	1	2
644.134	1	1
644.304	1	9
644.473	1	12
644.643	1	-2
644.812	1	3
644.982	1	8
645.151	1	6
645.321	1	8
645.490	1	3
645.660	1	5
645.829	1	-1
645.999	1	-4
646.168	1	8
646.338	1	8
646.507	1	-1
646.677	1	-9
646.846	1	10
647.016	1	1
647.185	1	-3
647.355	1	3
647.524	1	-1
647.694	1	-6
647.863	1	7
648.033	1	4
648.202	1	3
648.372	1	-5
648.541	1	-4
648.711	1	-5
648.880	1	1
649.050	1	2
649.219	1	7
649.389	1	3
649.558	1	14
649.728	1	4
649.897	1	-5
650.067	1	-1
650.236	1	-12
650.406	1	2
650.575	1	3
650.745	1	3
650.914	1	-2
651.084	1	-4
651.253	1	0
651.423	1	4
651.592	1	-10
651.762	1	11
651.931	1	8
652.101	1	1
652.270	1	-5
652.440	1	6
652.609	1	-2
652.778	1	7
652.948	1	5
653.117	1	4
653.287	1	-4
653.456	1	3
653.626	1	-2
653.795	1	-3
653.965	1	-7
654.134	1	-5
654.304	1	7
654.473	1	-3
654.643	1	6
654.812	1	7
654.982	1	-5
655.151	1	11
655.320	1	12
655.490	1	8
655.659	1	-9
655.829	1	-1
655.998	1	2
656.168	1	-10
656.337	1	3
656.507	1	3
656.676	1	7
656.846	1	-4
657.015	1	-2
657.184	1	5
657.354	1	-1
657.523	1	-3
657.693	1	-9
657.862	1	-5
658.032	1	8
658.201	1	6
658.371	1	-4
658.540	1	0
658.709	1	-9
658.879	1	3
659.048	1	-1
659.218	1	-6
659.387	1	3
659.557	1	7
659.726	1	7
659.895	1	0
660.065	1	12
660.234	1	-1
660.404	1	7
660.573	1	-6
660.743	1	-7
660.912	1	-8
661.081	1	-7
661.251	1	10
661.420	1	6
661.590	1	4
661.759	1	2
661.929	1	13
662.098	1	-2
662.267	1	14
662.437	1	7
662.606	1	4
662.776	1	-3
662.945	1	12
663.115	1	8
663.284	1	-2
663.453	1	11
663.623	1	11
663.792	1	-1
663.962	1	0
664.131	1	6
664.300	1	-7
664.470	1	2
664.639	1	-1
664.809	1	3
664.978	1	3
665.148	1	3
665.317	1	-2
665.486	1	-1
665.656	1	7
665.825	1	6
665.995	1	-4
666.164	1	13
666.333	1	1
666.503	1	-7
666.672	1	5
666.842	1	-3
667.011	1	-2
667.180	1	17
667.350	1	0
667.519	1	6
667.689	1	2
667.858	1	-1
668.027	1	3
668.197	1	9
668.366	1	-14
668.536	1	-3
668.705	1	-3
668.874	1	5
669.044	1	5
669.213	1	-2
669.382	1	3
669.552	1	-2
669.721	1	1
669.891	1	-2
670.060	1	-3
670.229	1	-8
670.399	1	-3
670.568	1	-4
670.738	1	-3
670.907	1	3
671.076	1	7
671.246	1	-5
671.415	1	2
671.584	1	-2
671.754	1	-11
671.923	1	4
672.093	1	8
672.262	1	-4
672.431	1	15
672.601	1	0
672.770	1	-6
672.939	1	-3
673.109	1	2
673.278	1	-4
673.448	1	-1
673.617	1	-7
673.786	1	-2
