325.333	1	1
325.504	1	8
325.675	1	-1
325.846	1	-4
326.017	1	2
326.188	1	10
326.359	1	6
326.531	1	8
326.702	1	11
326.873	1	-8
327.044	1	9
327.215	1	-10
327.386	1	-1
327.557	1	-1
327.728	1	4
327.899	1	11
328.070	1	11
328.241	1	-1
328.412	1	-6
328.583	1	4
328.754	1	0
328.926	1	1
329.097	1	4
329.268	1	-9
329.439	1	6
329.610	1	2
329.781	1	11
329.952	1	-6
330.123	1	6
330.294	1	-7
330.465	1	5
330.636	1	9
330.807	1	8
330.978	1	-6
331.149	1	5
331.320	1	6
331.492	1	8
331.663	1	2
331.834	1	-4
332.005	1	-10
332.176	1	13
332.347	1	11
332.518	1	7
332.689	1	10
332.860	1	9
333.031	1	9
333.202	1	2
333.373	1	0
333.544	1	-1
333.715	1	-7
333.886	1	1
334.057	1	5
334.228	1	0
334.399	1	12
334.570	1	-10
334.741	1	-6
334.912	1	0
335.084	1	4
335.255	1	12
335.426	1	0
335.597	1	0
335.768	1	-9
335.939	1	-3
336.110	1	3
336.281	1	-7
336.452	1	5
336.623	1	-2
336.794	1	3
336.965	1	0
337.136	1	9
337.307	1	2
337.478	1	3
337.649	1	-8
337.820	1	-4
337.991	1	8
338.162	1	2
338.333	1	3
338.504	1	9
338.675	1	4
338.846	1	5
339.017	1	20
339.188	1	12
339.359	1	8
339.530	1	-3
339.701	1	-5
339.872	1	6
340.043	1	1
340.214	1	-11
340.385	1	13
340.556	1	-1
340.727	1	5
340.898	1	5
341.069	1	-10
341.240	1	-8
341.411	1	5
341.582	1	17
341.753	1	-12
341.924	1	-1
342.095	1	11
342.266	1	-2
342.437	1	-9
342.608	1	6
342.779	1	2
342.950	1	2
343.121	1	8
343.292	1	10
343.463	1	7
343.634	1	-5
343.805	1	-1
343.976	1	-3
344.147	1	2
344.318	1	5
344.489	1	5
344.660	1	10
344.831	1	-2
345.002	1	6
345.173	1	14
345.344	1	-6
345.515	1	2
345.686	1	-8
345.857	1	-3
346.028	1	-1
346.199	1	9
346.370	1	6
346.541	1	4
346.712	1	1
346.883	1	7
347.054	1	-1
347.225	1	-3
347.396	1	-8
347.567	1	-1
347.738	1	-2
347.909	1	12
348.080	1	6
348.251	1	15
348.422	1	-4
348.593	1	13
348.764	1	-2
348.935	1	5
349.106	1	13
349.277	1	4
349.448	1	2
349.619	1	5
349.790	1	-3
349.961	1	0
350.132	1	10
350.303	1	-1
350.474	1	3
350.645	1	11
350.816	1	-1
350.987	1	10
351.157	1	3
351.328	1	-2
351.499	1	13
351.670	1	0
351.841	1	0
352.012	1	8
352.183	1	-2
352.354	1	12
352.525	1	4
352.696	1	-1
352.867	1	9
353.038	1	1
353.209	1	10
353.380	1	-4
353.551	1	-4
353.722	1	7
353.893	1	3
354.064	1	-3
354.235	1	6
354.406	1	5
354.576	1	-7
354.747	1	5
354.918	1	15
355.089	1	11
355.260	1	11
355.431	1	10
355.602	1	-4
355.773	1	1
355.944	1	-5
356.115	1	-3
356.286	1	11
356.457	1	-3
356.628	1	-6
356.799	1	5
356.970	1	-3
357.141	1	11
357.311	1	1
357.482	1	5
357.653	1	0
357.824	1	5
357.995	1	4
358.166	1	3
358.337	1	2
358.508	1	-5
358.679	1	11
358.850	1	0
359.021	1	7
359.192	1	4
359.363	1	-1
359.533	1	0
359.704	1	8
359.875	1	-4
360.046	1	-2
360.217	1	-4
360.388	1	3
360.559	1	2
360.730	1	-4
360.901	1	-5
361.072	1	-1
361.243	1	6
361.414	1	11
361.584	1	14
361.755	1	-6
361.926	1	-1
362.097	1	-8
362.268	1	6
362.439	1	-1
362.610	1	3
362.781	1	8
362.952	1	-7
363.123	1	-3
363.293	1	2
363.464	1	10
363.635	1	9
363.806	1	6
363.977	1	8
364.148	1	14
364.319	1	-4
364.490	1	0
364.661	1	-2
364.832	1	4
365.002	1	-4
365.173	1	-12
365.344	1	3
365.515	1	0
365.686	1	-2
365.857	1	5
366.028	1	9
366.199	1	12
366.370	1	1
366.540	1	4
366.711	1	0
366.882	1	1
367.053	1	3
367.224	1	-7
367.395	1	7
367.566	1	8
367.737	1	13
367.908	1	-4
368.078	1	-1
368.249	1	10
368.420	1	7
368.591	1	7
368.762	1	-7
368.933	1	8
369.104	1	4
369.274	1	14
369.445	1	7
369.616	1	1
369.787	1	-3
369.958	1	13
370.129	1	4
370.300	1	2
370.471	1	3
370.641	1	-1
370.812	1	12
370.983	1	-2
371.154	1	8
371.325	1	10
371.496	1	-4
371.667	1	8
371.837	1	-3
372.008	1	4
372.179	1	8
372.350	1	16
372.521	1	6
372.692	1	-8
372.863	1	-4
373.033	1	9
373.204	1	6
373.375	1	1
373.546	1	14
373.717	1	11
373.888	1	16
374.059	1	7
374.229	1	0
374.400	1	4
374.571	1	4
374.742	1	5
374.913	1	8
375.084	1	18
375.254	1	7
375.425	1	-2
375.596	1	6
375.767	1	-3
375.938	1	0
376.109	1	7
376.279	1	14
376.450	1	-1
376.621	1	3
376.792	1	13
376.963	1	-1
377.134	1	5
377.304	1	13
377.475	1	0
377.646	1	-1
377.817	1	-3
377.988	1	-1
378.159	1	8
378.329	1	11
378.500	1	-3
378.671	1	-6
378.842	1	5
379.013	1	0
379.184	1	1
379.354	1	12
379.525	1	-8
379.696	1	15
379.867	1	-5
380.038	1	10
380.209	1	1
380.379	1	8
380.550	1	5
380.721	1	4
380.892	1	9
381.063	1	5
381.233	1	16
381.404	1	6
381.575	1	6
381.746	1	1
381.917	1	6
382.087	1	-4
382.258	1	11
382.429	1	6
382.600	1	11
382.771	1	8
382.941	1	0
383.112	1	0
383.283	1	12
383.454	1	6
383.625	1	1
383.795	1	6
383.966	1	12
384.137	1	-5
384.308	1	-1
384.479	1	10
384.649	1	5
384.820	1	11
384.991	1	-8
385.162	1	16
385.333	1	-5
385.503	1	19
385.674	1	4
385.845	1	2
386.016	1	9
386.187	1	7
386.357	1	-5
386.528	1	-5
386.699	1	7
386.870	1	6
387.041	1	5
387.211	1	-8
387.382	1	1
387.553	1	9
387.724	1	2
387.894	1	11
388.065	1	18
388.236	1	14
388.407	1	11
388.578	1	14
388.748	1	7
388.919	1	8
389.090	1	11
389.261	1	8
389.431	1	23
389.602	1	-8
389.773	1	2
389.944	1	5
390.114	1	12
390.285	1	4
390.456	1	2
390.627	1	12
390.798	1	13
390.968	1	4
391.139	1	9
391.310	1	14
391.481	1	8
391.651	1	14
391.822	1	8
391.993	1	-3
392.164	1	-6
392.334	1	-11
392.505	1	5
392.676	1	14
392.847	1	9
393.017	1	9
393.188	1	4
393.359	1	3
393.530	1	17
393.700	1	2
393.871	1	12
394.042	1	11
394.213	1	6
394.383	1	5
394.554	1	7
394.725	1	9
394.896	1	7
395.066	1	3
395.237	1	-7
395.408	1	0
395.579	1	1
395.749	1	7
395.920	1	7
396.091	1	21
396.262	1	1
396.432	1	11
396.603	1	10
396.774	1	12
396.945	1	-5
397.115	1	3
397.286	1	17
397.457	1	-3
397.627	1	7
397.798	1	18
397.969	1	17
398.140	1	1
398.310	1	8
398.481	1	17
398.652	1	-3
398.823	1	1
398.993	1	24
399.164	1	4
399.335	1	1
399.505	1	14
399.676	1	-3
399.847	1	10
400.018	1	10
400.188	1	11
400.359	1	14
400.530	1	5
400.700	1	5
400.871	1	14
401.042	1	9
401.213	1	13
401.383	1	12
401.554	1	9
401.725	1	4
401.895	1	-2
402.066	1	11
402.237	1	11
402.408	1	21
402.578	1	4
402.749	1	12
402.920	1	15
403.090	1	13
403.261	1	13
403.432	1	14
403.603	1	-5
403.773	1	16
403.944	1	10
404.115	1	1
404.285	1	21
404.456	1	4
404.627	1	6
404.797	1	5
404.968	1	8
405.139	1	2
405.310	1	1
405.480	1	4
405.651	1	26
405.822	1	16
405.992	1	9
406.163	1	12
406.334	1	11
406.504	1	-6
406.675	1	4
406.846	1	17
407.016	1	10
407.187	1	7
407.358	1	9
407.528	1	20
407.699	1	4
407.870	1	10
408.041	1	4
408.211	1	3
408.382	1	1
408.553	1	3
408.723	1	16
408.894	1	10
409.065	1	27
409.235	1	1
409.406	1	6
409.577	1	0
409.747	1	10
409.918	1	10
410.089	1	0
410.259	1	5
410.430	1	6
410.601	1	12
410.771	1	16
410.942	1	6
411.113	1	8
411.283	1	9
411.454	1	7
411.625	1	-1
411.795	1	3
411.966	1	6
412.137	1	7
412.307	1	4
412.478	1	9
412.649	1	13
412.819	1	0
412.990	1	5
413.161	1	15
413.331	1	7
413.502	1	-3
413.672	1	11
413.843	1	20
414.014	1	13
414.184	1	2
414.355	1	12
414.526	1	16
414.696	1	10
414.867	1	12
415.038	1	8
415.208	1	5
415.379	1	5
415.550	1	19
415.720	1	7
415.891	1	23
416.062	1	4
416.232	1	7
416.403	1	12
416.573	1	9
416.744	1	-1
416.915	1	6
417.085	1	2
417.256	1	11
417.427	1	17
417.597	1	11
417.768	1	16
417.939	1	19
418.109	1	-4
418.280	1	11
418.450	1	20
418.621	1	8
418.792	1	0
418.962	1	3
419.133	1	24
419.304	1	2
419.474	1	-3
419.645	1	4
419.815	1	-2
419.986	1	-6
420.157	1	19
420.327	1	3
420.498	1	16
420.669	1	6
420.839	1	13
421.010	1	13
421.180	1	-4
421.351	1	14
421.522	1	4
421.692	1	7
421.863	1	6
422.033	1	16
422.204	1	9
422.375	1	7
422.545	1	2
422.716	1	5
422.886	1	18
423.057	1	2
423.228	1	10
423.398	1	10
423.569	1	18
423.740	1	-5
423.910	1	22
424.081	1	22
424.251	1	13
424.422	1	3
424.593	1	3
424.763	1	7
424.934	1	13
425.104	1	2
425.275	1	16
425.445	1	19
425.616	1	12
425.787	1	9
425.957	1	13
426.128	1	13
426.298	1	10
426.469	1	6
426.640	1	15
426.810	1	9
426.981	1	15
427.151	1	5
427.322	1	1
427.493	1	5
427.663	1	7
427.834	1	-2
428.004	1	21
428.175	1	9
428.345	1	18
428.516	1	14
428.687	1	11
428.857	1	10
429.028	1	14
429.198	1	7
429.369	1	4
429.540	1	2
429.710	1	6
429.881	1	11
430.051	1	4
430.222	1	14
430.392	1	9
430.563	1	7
430.734	1	10
430.904	1	1
431.075	1	1
431.245	1	12
431.416	1	3
431.586	1	10
431.757	1	11
431.927	1	2
432.098	1	9
432.269	1	14
432.439	1	5
432.610	1	12
432.780	1	3
432.951	1	8
433.121	1	13
433.292	1	12
433.462	1	15
433.633	1	20
433.804	1	-4
433.974	1	15
434.145	1	2
434.315	1	13
434.486	1	-2
434.656	1	13
434.827	1	6
434.997	1	22
435.168	1	1
435.339	1	9
435.509	1	9
435.680	1	-3
435.850	1	9
436.021	1	14
436.191	1	16
436.362	1	17
436.532	1	11
436.703	1	13
436.873	1	6
437.044	1	7
437.214	1	14
437.385	1	17
437.556	1	8
437.726	1	7
437.897	1	-6
438.067	1	3
438.238	1	13
438.408	1	12
438.579	1	13
438.749	1	-8
438.920	1	2
439.090	1	-4
439.261	1	5
439.431	1	6
439.602	1	10
439.772	1	22
439.943	1	15
440.113	1	7
440.284	1	15
440.455	1	12
440.625	1	8
440.796	1	3
440.966	1	5
441.137	1	-1
441.307	1	7
441.478	1	10
441.648	1	10
441.819	1	13
441.989	1	-4
442.160	1	10
442.330	1	16
442.501	1	2
442.671	1	5
442.842	1	15
443.012	1	8
443.183	1	14
443.353	1	9
443.524	1	6
443.694	1	4
443.865	1	9
444.035	1	12
444.206	1	-4
444.376	1	15
444.547	1	3
444.717	1	19
444.888	1	3
445.058	1	6
445.229	1	7
445.399	1	8
445.570	1	4
445.740	1	7
445.911	1	13
446.081	1	11
446.252	1	0
446.422	1	18
446.593	1	6
446.763	1	13
446.934	1	17
447.104	1	1
447.275	1	16
447.445	1	1
447.616	1	6
447.786	1	9
447.957	1	12
448.127	1	21
448.298	1	2
448.468	1	12
448.639	1	0
448.809	1	-1
448.979	1	13
449.150	1	4
449.320	1	11
449.491	1	11
449.661	1	4
449.832	1	12
450.002	1	14
450.173	1	7
450.343	1	12
450.514	1	0
450.684	1	12
450.855	1	5
451.025	1	7
451.196	1	12
451.366	1	3
451.537	1	6
451.707	1	17
451.878	1	4
452.048	1	3
452.218	1	3
452.389	1	4
452.559	1	2
452.730	1	7
452.900	1	15
453.071	1	1
453.241	1	4
453.412	1	8
453.582	1	-2
453.753	1	18
453.923	1	10
454.093	1	14
454.264	1	5
454.434	1	11
454.605	1	7
454.775	1	2
454.946	1	13
455.116	1	7
455.287	1	2
455.457	1	5
455.628	1	3
455.798	1	4
455.968	1	6
456.139	1	1
456.309	1	19
456.480	1	12
456.650	1	24
456.821	1	14
456.991	1	6
457.161	1	6
457.332	1	-2
457.502	1	24
457.673	1	12
457.843	1	6
458.014	1	10
458.184	1	5
458.355	1	7
458.525	1	6
458.695	1	4
458.866	1	19
459.036	1	11
459.207	1	8
459.377	1	16
459.548	1	1
459.718	1	7
459.888	1	9
460.059	1	7
460.229	1	9
460.400	1	0
460.570	1	13
460.740	1	8
460.911	1	21
461.081	1	22
461.252	1	2
461.422	1	8
461.593	1	11
461.763	1	10
461.933	1	14
462.104	1	6
462.274	1	-4
462.445	1	4
462.615	1	13
462.785	1	4
462.956	1	19
463.126	1	7
463.297	1	14
463.467	1	7
463.638	1	12
463.808	1	13
463.978	1	15
464.149	1	-1
464.319	1	14
464.490	1	10
464.660	1	16
464.830	1	7
465.001	1	11
465.171	1	11
465.342	1	-3
465.512	1	4
465.682	1	1
465.853	1	10
466.023	1	1
466.194	1	9
466.364	1	8
466.534	1	13
466.705	1	-4
466.875	1	0
467.045	1	1
467.216	1	9
467.386	1	16
467.557	1	2
467.727	1	14
467.897	1	-2
468.068	1	0
468.238	1	16
468.409	1	-4
468.579	1	0
468.749	1	8
468.920	1	-3
469.090	1	10
469.260	1	13
469.431	1	9
469.601	1	0
469.772	1	-2
469.942	1	7
470.112	1	5
470.283	1	6
470.453	1	10
470.623	1	3
470.794	1	16
470.964	1	8
471.135	1	13
471.305	1	11
471.475	1	12
471.646	1	3
471.816	1	-9
471.986	1	13
472.157	1	15
472.327	1	3
472.497	1	12
472.668	1	4
472.838	1	7
473.009	1	7
473.179	1	15
473.349	1	14
473.520	1	5
473.690	1	3
473.860	1	12
474.031	1	24
474.201	1	8
474.371	1	7
474.542	1	6
474.712	1	3
474.882	1	-3
475.053	1	20
475.223	1	-4
475.394	1	2
475.564	1	2
475.734	1	12
475.905	1	6
476.075	1	-5
476.245	1	4
476.416	1	0
476.586	1	-2
476.756	1	6
476.927	1	5
477.097	1	11
477.267	1	5
477.438	1	8
477.608	1	1
477.778	1	9
477.949	1	7
478.119	1	11
478.289	1	4
478.460	1	-15
478.630	1	25
478.800	1	13
478.971	1	9
479.141	1	10
479.311	1	-1
479.482	1	13
479.652	1	9
479.822	1	3
479.993	1	6
480.163	1	11
480.333	1	9
480.504	1	5
480.674	1	9
480.844	1	7
481.015	1	11
481.185	1	-2
481.355	1	10
481.525	1	1
481.696	1	3
481.866	1	8
482.036	1	15
482.207	1	3
482.377	1	7
482.547	1	-10
482.718	1	6
482.888	1	10
483.058	1	-7
483.229	1	11
483.399	1	14
483.569	1	-3
483.740	1	2
483.910	1	4
484.080	1	-10
484.250	1	-4
484.421	1	0
484.591	1	8
484.761	1	11
484.932	1	3
485.102	1	12
485.272	1	4
485.443	1	5
485.613	1	16
485.783	1	15
485.953	1	6
486.124	1	6
486.294	1	-1
486.464	1	3
486.635	1	15
486.805	1	-5
486.975	1	12
487.146	1	-7
487.316	1	2
487.486	1	3
487.656	1	6
487.827	1	-6
487.997	1	5
488.167	1	7
488.338	1	8
488.508	1	9
488.678	1	4
488.848	1	-8
489.019	1	1
489.189	1	-3
489.359	1	8
489.529	1	15
489.700	1	3
489.870	1	-3
490.040	1	-7
490.211	1	5
490.381	1	4
490.551	1	4
490.721	1	8
490.892	1	6
491.062	1	12
491.232	1	2
491.402	1	13
491.573	1	-4
491.743	1	-1
491.913	1	-7
492.084	1	12
492.254	1	12
492.424	1	11
492.594	1	9
492.765	1	-3
492.935	1	-5
493.105	1	9
493.275	1	7
493.446	1	13
493.616	1	9
493.786	1	9
493.956	1	7
494.127	1	19
494.297	1	-9
494.467	1	12
494.637	1	5
494.808	1	3
494.978	1	5
495.148	1	12
495.318	1	11
495.489	1	-9
495.659	1	5
495.829	1	4
495.999	1	10
496.170	1	-7
496.340	1	7
496.510	1	9
496.680	1	1
496.851	1	2
497.021	1	3
497.191	1	5
497.361	1	2
497.532	1	6
497.702	1	10
497.872	1	21
498.042	1	15
498.213	1	0
498.383	1	7
498.553	1	-1
498.723	1	3
498.894	1	-4
499.064	1	4
499.234	1	3
499.404	1	2
499.574	1	0
499.745	1	2
499.915	1	8
500.085	1	-1
500.255	1	2
500.426	1	2
500.596	1	-8
500.766	1	-3
500.936	1	16
501.106	1	-2
501.277	1	12
501.447	1	3
501.617	1	5
501.787	1	-2
501.958	1	8
502.128	1	-2
502.298	1	-5
502.468	1	2
502.638	1	0
502.809	1	7
502.979	1	14
503.149	1	2
503.319	1	3
503.489	1	-12
503.660	1	-10
503.830	1	6
504.000	1	4
504.170	1	6
504.340	1	3
504.511	1	11
504.681	1	1
504.851	1	8
505.021	1	8
505.192	1	-1
505.362	1	8
505.532	1	0
505.702	1	-11
505.872	1	4
506.043	1	1
506.213	1	15
506.383	1	1
506.553	1	8
506.723	1	11
506.893	1	3
507.064	1	-8
507.234	1	6
507.404	1	4
507.574	1	0
507.744	1	9
507.915	1	5
508.085	1	8
508.255	1	-3
508.425	1	0
508.595	1	6
508.766	1	-11
508.936	1	-2
509.106	1	4
509.276	1	4
509.446	1	-3
509.616	1	10
509.787	1	5
509.957	1	5
510.127	1	1
510.297	1	-5
510.467	1	-8
510.638	1	6
510.808	1	-2
510.978	1	3
511.148	1	7
511.318	1	3
511.488	1	14
511.659	1	-4
511.829	1	-1
511.999	1	-2
512.169	1	-3
512.339	1	7
512.509	1	-1
512.680	1	0
512.850	1	6
513.020	1	-2
513.190	1	-4
513.360	1	4
513.530	1	6
513.700	1	2
513.871	1	12
514.041	1	-4
514.211	1	7
514.381	1	-2
514.551	1	-4
514.721	1	3
514.892	1	1
515.062	1	5
515.232	1	5
515.402	1	8
515.572	1	-5
515.742	1	4
515.912	1	-2
516.083	1	4
516.253	1	3
516.423	1	-3
516.593	1	6
516.763	1	9
516.933	1	-11
517.104	1	2
517.274	1	-5
517.444	1	5
517.614	1	-4
517.784	1	0
517.954	1	11
518.124	1	-2
518.294	1	3
518.465	1	1
518.635	1	-4
518.805	1	16
518.975	1	1
519.145	1	8
519.315	1	4
519.485	1	-5
519.656	1	0
519.826	1	7
519.996	1	-3
520.166	1	14
520.336	1	8
520.506	1	-8
520.676	1	7
520.846	1	0
521.017	1	-9
521.187	1	11
521.357	1	-11
521.527	1	4
521.697	1	9
521.867	1	1
522.037	1	-9
522.207	1	1
522.377	1	9
522.548	1	8
522.718	1	0
522.888	1	4
523.058	1	-1
523.228	1	8
523.398	1	6
523.568	1	-5
523.738	1	3
523.909	1	1
524.079	1	-5
524.249	1	2
524.419	1	-3
524.589	1	4
524.759	1	6
524.929	1	-5
525.099	1	-3
525.269	1	12
525.439	1	-1
525.610	1	5
525.780	1	4
525.950	1	10
526.120	1	-7
526.290	1	1
526.460	1	4
526.630	1	9
526.800	1	0
526.970	1	7
527.140	1	1
527.311	1	5
527.481	1	5
527.651	1	1
527.821	1	-5
527.991	1	3
528.161	1	6
528.331	1	8
528.501	1	11
528.671	1	5
528.841	1	1
529.011	1	1
529.181	1	3
529.352	1	-11
529.522	1	0
529.692	1	-1
529.862	1	3
530.032	1	4
530.202	1	8
530.372	1	0
530.542	1	1
530.712	1	-4
530.882	1	7
531.052	1	4
531.222	1	-6
531.392	1	9
531.563	1	0
531.733	1	7
531.903	1	3
532.073	1	-3
532.243	1	-3
532.413	1	15
532.583	1	-4
532.753	1	3
532.923	1	6
533.093	1	13
533.263	1	-9
533.433	1	12
533.603	1	0
533.773	1	-2
533.943	1	-2
534.113	1	2
534.284	1	0
534.454	1	-4
534.624	1	12
534.794	1	-2
534.964	1	5
535.134	1	4
535.304	1	6
535.474	1	-16
535.644	1	-6
535.814	1	10
535.984	1	8
536.154	1	1
536.324	1	0
536.494	1	5
536.664	1	0
536.834	1	2
537.004	1	4
537.174	1	3
537.344	1	5
537.514	1	-5
537.685	1	3
537.855	1	0
538.025	1	6
538.195	1	2
538.365	1	-3
538.535	1	-5
538.705	1	4
538.875	1	12
539.045	1	7
539.215	1	-9
539.385	1	-5
539.555	1	6
539.725	1	1
539.895	1	1
540.065	1	-2
540.235	1	2
540.405	1	4
540.575	1	9
540.745	1	2
540.915	1	3
541.085	1	-12
541.255	1	-13
541.425	1	1
541.595	1	9
541.765	1	4
541.935	1	2
542.105	1	1
542.275	1	3
542.445	1	-9
542.615	1	3
542.785	1	-5
542.955	1	-6
543.125	1	-7
543.295	1	-17
543.465	1	3
543.635	1	2
543.805	1	8
543.975	1	4
544.145	1	-4
544.315	1	-4
544.485	1	-3
544.655	1	8
544.825	1	1
544.995	1	9
545.165	1	0
545.335	1	6
545.505	1	17
545.675	1	-3
545.845	1	0
546.015	1	-4
546.185	1	7
546.355	1	6
546.525	1	-7
546.695	1	6
546.865	1	10
547.035	1	5
547.205	1	-2
547.375	1	3
547.545	1	14
547.715	1	11
547.885	1	11
548.055	1	-11
548.225	1	2
548.395	1	-7
548.565	1	0
548.735	1	7
548.905	1	-3
549.075	1	-4
549.245	1	-6
549.415	1	-1
549.585	1	1
549.755	1	7
549.925	1	1
550.095	1	6
550.265	1	4
550.435	1	-6
550.605	1	-7
550.775	1	-2
550.945	1	-4
551.115	1	0
551.285	1	3
551.455	1	3
551.625	1	-4
551.795	1	-9
551.965	1	10
552.135	1	-3
552.305	1	1
552.475	1	6
552.645	1	0
552.815	1	0
552.985	1	-1
553.155	1	1
553.325	1	8
553.495	1	8
553.665	1	5
553.835	1	3
554.004	1	-6
554.174	1	-1
554.344	1	2
554.514	1	3
554.684	1	-2
554.854	1	-3
555.024	1	3
555.194	1	7
555.364	1	8
555.534	1	-2
555.704	1	3
555.874	1	-1
556.044	1	7
556.214	1	-1
556.384	1	10
556.554	1	3
556.724	1	0
556.894	1	-11
557.064	1	7
557.234	1	2
557.404	1	1
557.573	1	-10
557.743	1	1
557.913	1	-2
558.083	1	-3
558.253	1	-5
558.423	1	-7
558.593	1	2
558.763	1	8
558.933	1	-2
559.103	1	8
559.273	1	0
559.443	1	2
559.613	1	6
559.783	1	21
559.953	1	13
560.122	1	-10
560.292	1	-1
560.462	1	-3
560.632	1	-3
560.802	1	-6
560.972	1	4
561.142	1	-1
561.312	1	2
561.482	1	7
561.652	1	3
561.822	1	0
561.992	1	-12
562.162	1	4
562.331	1	0
562.501	1	0
562.671	1	7
562.841	1	-3
563.011	1	-5
563.181	1	5
563.351	1	-3
563.521	1	10
563.691	1	5
563.861	1	-5
564.031	1	-5
564.201	1	-2
564.370	1	0
564.540	1	-2
564.710	1	2
564.880	1	2
565.050	1	-5
565.220	1	0
565.390	1	10
565.560	1	3
565.730	1	4
565.900	1	-10
566.069	1	3
566.239	1	-5
566.409	1	7
566.579	1	0
566.749	1	-3
566.919	1	4
567.089	1	6
567.259	1	13
567.429	1	7
567.599	1	0
567.768	1	-1
567.938	1	-14
568.108	1	5
568.278	1	8
568.448	1	-2
568.618	1	2
568.788	1	-7
568.958	1	-11
569.128	1	5
569.297	1	5
569.467	1	-1
569.637	1	2
569.807	1	11
569.977	1	1
570.147	1	3
570.317	1	-3
570.487	1	5
570.656	1	3
570.826	1	-1
570.996	1	3
571.166	1	2
571.336	1	-4
571.506	1	-2
571.676	1	-5
571.846	1	-5
572.015	1	8
572.185	1	-1
572.355	1	6
572.525	1	-2
572.695	1	-9
572.865	1	3
573.035	1	-5
573.205	1	-7
573.374	1	11
573.544	1	-2
573.714	1	4
573.884	1	1
574.054	1	-1
574.224	1	3
574.394	1	-2
574.563	1	13
574.733	1	6
574.903	1	-7
575.073	1	0
575.243	1	0
575.413	1	-6
575.583	1	4
575.752	1	0
575.922	1	1
576.092	1	-1
576.262	1	7
576.432	1	5
576.602	1	-5
576.772	1	-11
576.941	1	10
577.111	1	5
577.281	1	15
577.451	1	1
577.621	1	7
577.791	1	7
577.960	1	-1
578.130	1	-3
578.300	1	5
578.470	1	11
578.640	1	1
578.810	1	6
578.979	1	6
579.149	1	-3
579.319	1	0
579.489	1	1
579.659	1	5
579.829	1	9
579.998	1	-8
580.168	1	-2
580.338	1	8
580.508	1	-9
580.678	1	14
580.848	1	-1
581.017	1	-2
581.187	1	7
581.357	1	-3
581.527	1	-5
581.697	1	-15
581.867	1	8
582.036	1	5
582.206	1	-7
582.376	1	11
582.546	1	18
582.716	1	3
582.885	1	1
583.055	1	-6
583.225	1	-6
583.395	1	-6
583.565	1	7
583.735	1	0
583.904	1	5
584.074	1	-8
584.244	1	8
584.414	1	-2
584.584	1	-1
584.753	1	3
584.923	1	7
585.093	1	-6
585.263	1	-7
585.433	1	18
585.602	1	11
585.772	1	-10
585.942	1	2
586.112	1	0
586.282	1	5
586.451	1	-8
586.621	1	-10
586.791	1	-4
586.961	1	-3
587.131	1	0
587.300	1	2
587.470	1	0
587.640	1	5
587.810	1	-6
587.980	1	-5
588.149	1	7
588.319	1	4
588.489	1	-6
588.659	1	4
588.829	1	-16
588.998	1	7
589.168	1	2
589.338	1	-2
589.508	1	7
589.677	1	-10
589.847	1	0
590.017	1	3
590.187	1	1
590.357	1	-4
590.526	1	15
590.696	1	-2
590.866	1	0
591.036	1	-9
591.205	1	1
591.375	1	1
591.545	1	-7
591.715	1	-7
591.885	1	6
592.054	1	1
592.224	1	4
592.394	1	-3
592.564	1	0
592.733	1	1
592.903	1	2
593.073	1	-9
593.243	1	5
593.412	1	-4
593.582	1	2
593.752	1	1
593.922	1	4
594.091	1	-9
594.261	1	6
594.431	1	-8
594.601	1	-1
594.771	1	6
594.940	1	1
595.110	1	-1
595.280	1	2
595.450	1	3
595.619	1	4
595.789	1	5
595.959	1	3
596.129	1	-7
596.298	1	7
596.468	1	-3
596.638	1	-2
596.808	1	-6
596.977	1	0
597.147	1	5
597.317	1	9
597.487	1	-1
597.656	1	3
597.826	1	-4
597.996	1	-6
598.166	1	11
598.335	1	-5
598.505	1	-9
598.675	1	-2
598.844	1	4
599.014	1	7
599.184	1	-1
599.354	1	-5
599.523	1	2
599.693	1	0
599.863	1	0
600.033	1	-1
600.202	1	3
600.372	1	4
600.542	1	-1
600.712	1	4
600.881	1	8
601.051	1	6
601.221	1	-7
601.390	1	5
601.560	1	6
601.730	1	2
601.900	1	8
602.069	1	-13
602.239	1	8
602.409	1	2
602.578	1	10
602.748	1	-1
602.918	1	-3
603.088	1	5
603.257	1	7
603.427	1	8
603.597	1	8
603.767	1	4
603.936	1	7
604.106	1	-2
604.276	1	-2
604.445	1	1
604.615	1	-5
604.785	1	-3
604.954	1	5
605.124	1	-2
605.294	1	1
605.464	1	-4
605.633	1	10
605.803	1	7
605.973	1	11
606.142	1	0
606.312	1	12
606.482	1	-3
606.652	1	14
606.821	1	-4
606.991	1	2
607.161	1	3
607.330	1	7
607.500	1	11
607.670	1	3
607.839	1	3
608.009	1	-1
608.179	1	-3
608.348	1	2
608.518	1	3
608.688	1	8
608.858	1	2
609.027	1	3
609.197	1	6
609.367	1	-1
609.536	1	8
609.706	1	7
609.876	1	-1
610.045	1	1
610.215	1	7
610.385	1	-1
610.554	1	-1
610.724	1	6
610.894	1	4
611.063	1	11
611.233	1	-9
611.403	1	-8
611.572	1	3
611.742	1	-11
611.912	1	0
612.081	1	11
612.251	1	1
612.421	1	6
612.590	1	2
612.760	1	3
612.930	1	-7
613.099	1	8
613.269	1	0
613.439	1	-8
613.608	1	0
613.778	1	-10
613.948	1	3
614.117	1	10
614.287	1	3
614.457	1	8
614.626	1	7
614.796	1	3
614.966	1	5
615.135	1	10
615.305	1	7
615.475	1	-4
615.644	1	6
615.814	1	-2
615.984	1	11
616.153	1	-3
616.323	1	0
616.493	1	-2
616.662	1	-3
616.832	1	13
617.002	1	-3
617.171	1	0
617.341	1	-9
617.511	1	-11
617.680	1	1
617.850	1	-3
618.019	1	-1
618.189	1	1
618.359	1	4
618.528	1	-3
618.698	1	6
618.868	1	-6
619.037	1	13
619.207	1	-3
619.377	1	-2
619.546	1	-5
619.716	1	1
619.885	1	-3
620.055	1	8
620.225	1	4
620.394	1	3
620.564	1	-9
620.734	1	7
620.903	1	-1
621.073	1	0
621.242	1	-8
621.412	1	9
621.582	1	-5
621.751	1	4
621.921	1	15
622.091	1	-3
622.260	1	3
622.430	1	5
622.599	1	7
622.769	1	1
622.939	1	1
623.108	1	-3
623.278	1	26
623.448	1	3
623.617	1	0
623.787	1	12
623.956	1	9
624.126	1	4
624.296	1	0
624.465	1	3
624.635	1	5
624.804	1	-3
624.974	1	3
625.144	1	14
625.313	1	-2
625.483	1	10
625.652	1	9
625.822	1	11
625.992	1	4
626.161	1	-1
626.331	1	-1
626.501	1	5
626.670	1	-4
626.840	1	0
627.009	1	2
627.179	1	-3
627.348	1	8
627.518	1	5
627.688	1	4
627.857	1	7
628.027	1	-7
628.196	1	-3
628.366	1	4
628.536	1	5
628.705	1	1
628.875	1	12
629.044	1	7
629.214	1	-6
629.384	1	-2
629.553	1	10
629.723	1	-14
629.892	1	-6
630.062	1	-12
630.232	1	7
630.401	1	10
630.571	1	15
630.740	1	-1
630.910	1	1
631.079	1	-3
631.249	1	5
631.419	1	2
631.588	1	-2
631.758	1	9
631.927	1	4
632.097	1	-7
632.266	1	-15
632.436	1	7
632.606	1	-9
632.775	1	11
632.945	1	-6
633.114	1	-3
633.284	1	-2
633.453	1	8
633.623	1	5
633.793	1	3
633.962	1	2
634.132	1	5
634.301	1	2
634.471	1	-8
634.640	1	0
634.810	1	-2
634.979	1	-3
635.149	1	2
635.319	1	12
635.488	1	-2
635.658	1	10
635.827	1	-7
635.997	1	13
636.166	1	0
636.336	1	-5
636.505	1	4
636.675	1	-3
636.845	1	4
637.014	1	2
637.184	1	7
637.353	1	5
637.523	1	-3
637.692	1	-6
637.862	1	-3
638.031	1	-1
638.201	1	3
638.370	1	4
638.540	1	11
638.710	1	0
638.879	1	16
639.049	1	0
639.218	1	17
639.388	1	-3
639.557	1	3
639.727	1	11
639.896	1	-3
640.066	1	10
640.235	1	1
640.405	1	5
640.574	1	-7
640.744	1	3
640.914	1	1
641.083	1	-3
641.253	1	1
641.422	1	6
641.592	1	4
641.761	1	-4
641.931	1	1
642.100	1	7
642.270	1	-9
642.439	1	7
642.609	1	21
642.778	1	-2
642.948	1	6
643.117	1	1
643.287	1	2
643.456	1	-6
643.626	1	9
643.795	1	2
643.965	1	1
644.134	1	1
644.304	1	11
644.473	1	-3
644.643	1	1
644.812	1	1
644.982	1	2
645.151	1	-1
645.321	1	-5
645.490	1	12
645.660	1	-8
645.829	1	-8
645.999	1	8
646.168	1	13
646.338	1	7
646.507	1	8
646.677	1	-2
646.846	1	-8
647.016	1	-5
647.185	1	4
647.355	1	5
647.524	1	-1
647.694	1	-7
647.863	1	11
648.033	1	8
648.202	1	-3
648.372	1	-3
648.541	1	-10
648.711	1	1
648.880	1	4
649.050	1	-4
649.219	1	11
649.389	1	-3
649.558	1	7
649.728	1	-1
649.897	1	5
650.067	1	1
650.236	1	1
650.406	1	6
650.575	1	8
650.745	1	-1
650.914	1	-2
651.084	1	3
651.253	1	-2
651.423	1	8
651.592	1	-1
651.762	1	6
651.931	1	2
652.101	1	13
652.270	1	-3
652.440	1	10
652.609	1	4
652.778	1	8
652.948	1	5
653.117	1	3
653.287	1	-6
653.456	1	-4
653.626	1	6
653.795	1	1
653.965	1	0
654.134	1	-7
654.304	1	2
654.473	1	1
654.643	1	7
654.812	1	-2
654.982	1	9
655.151	1	2
655.320	1	1
655.490	1	2
655.659	1	6
655.829	1	-1
655.998	1	-1
656.168	1	-4
656.337	1	-1
656.507	1	-1
656.676	1	0
656.846	1	0
657.015	1	-2
657.184	1	-6
657.354	1	16
657.523	1	2
657.693	1	-6
657.862	1	0
658.032	1	10
658.201	1	8
658.371	1	-3
658.540	1	1
658.709	1	-1
658.879	1	10
659.048	1	-1
659.218	1	-2
659.387	1	2
659.557	1	-7
659.726	1	2
659.895	1	6
660.065	1	10
660.234	1	-5
660.404	1	-2
660.573	1	8
660.743	1	-2
660.912	1	-7
661.081	1	-5
661.251	1	6
661.420	1	14
661.590	1	-1
661.759	1	2
661.929	1	7
662.098	1	9
662.267	1	-1
662.437	1	13
662.606	1	5
662.776	1	-4
662.945	1	7
663.115	1	3
663.284	1	2
663.453	1	10
663.623	1	11
663.792	1	1
663.962	1	-9
664.131	1	7
664.300	1	-10
664.470	1	5
664.639	1	-3
664.809	1	-8
664.978	1	3
665.148	1	2
665.317	1	1
665.486	1	6
665.656	1	1
665.825	1	8
665.995	1	-5
666.164	1	12
666.333	1	0
666.503	1	3
666.672	1	0
666.842	1	2
667.011	1	-3
667.180	1	-9
667.350	1	1
667.519	1	1
667.689	1	2
667.858	1	0
668.027	1	5
668.197	1	15
668.366	1	1
668.536	1	-4
668.705	1	5
668.874	1	5
669.044	1	2
669.213	1	7
669.382	1	12
669.552	1	17
669.721	1	2
669.891	1	-6
670.060	1	-7
670.229	1	-5
670.399	1	-5
670.568	1	-6
670.738	1	1
670.907	1	-3
671.076	1	16
671.246	1	-2
671.415	1	14
671.584	1	4
671.754	1	-7
671.923	1	0
672.093	1	-9
672.262	1	0
672.431	1	-1
672.601	1	7
672.770	1	7
672.939	1	7
673.109	1	7
673.278	1	4
673.448	1	1
673.617	1	9
673.786	1	0
