325.333	1	7
325.504	1	10
325.675	1	1
325.846	1	0
326.017	1	1
326.188	1	14
326.359	1	1
326.531	1	7
326.702	1	9
326.873	1	7
327.044	1	6
327.215	1	2
327.386	1	6
327.557	1	7
327.728	1	5
327.899	1	-2
328.070	1	14
328.241	1	6
328.412	1	-2
328.583	1	10
328.754	1	0
328.926	1	13
329.097	1	0
329.268	1	-9
329.439	1	0
329.610	1	12
329.781	1	16
329.952	1	8
330.123	1	6
330.294	1	10
330.465	1	6
330.636	1	21
330.807	1	5
330.978	1	10
331.149	1	8
331.320	1	6
331.492	1	12
331.663	1	2
331.834	1	6
332.005	1	10
332.176	1	10
332.347	1	19
332.518	1	10
332.689	1	10
332.860	1	11
333.031	1	15
333.202	1	7
333.373	1	6
333.544	1	7
333.715	1	-1
333.886	1	3
334.057	1	4
334.228	1	5
334.399	1	8
334.570	1	2
334.741	1	5
334.912	1	2
335.084	1	1
335.255	1	10
335.426	1	6
335.597	1	10
335.768	1	8
335.939	1	-2
336.110	1	9
336.281	1	9
336.452	1	4
336.623	1	8
336.794	1	2
336.965	1	5
337.136	1	19
337.307	1	1
337.478	1	9
337.649	1	-8
337.820	1	6
337.991	1	10
338.162	1	9
338.333	1	21
338.504	1	13
338.675	1	17
338.846	1	7
339.017	1	18
339.188	1	18
339.359	1	18
339.530	1	7
339.701	1	9
339.872	1	12
340.043	1	1
340.214	1	6
340.385	1	18
340.556	1	-3
340.727	1	6
340.898	1	12
341.069	1	7
341.240	1	4
341.411	1	19
341.582	1	10
341.753	1	8
341.924	1	2
342.095	1	15
342.266	1	3
342.437	1	-4
342.608	1	10
342.779	1	10
342.950	1	9
343.121	1	5
343.292	1	15
343.463	1	4
343.634	1	13
343.805	1	13
343.976	1	-3
344.147	1	6
344.318	1	0
344.489	1	18
344.660	1	8
344.831	1	14
345.002	1	12
345.173	1	9
345.344	1	-7
345.515	1	15
345.686	1	-5
345.857	1	8
346.028	1	3
346.199	1	17
346.370	1	8
346.541	1	8
346.712	1	11
346.883	1	28
347.054	1	11
347.225	1	5
347.396	1	3
347.567	1	3
347.738	1	3
347.909	1	10
348.080	1	24
348.251	1	11
348.422	1	0
348.593	1	10
348.764	1	4
348.935	1	8
349.106	1	12
349.277	1	1
349.448	1	15
349.619	1	10
349.790	1	22
349.961	1	5
350.132	1	13
350.303	1	7
350.474	1	9
350.645	1	21
350.816	1	9
350.987	1	19
351.157	1	9
351.328	1	6
351.499	1	18
351.670	1	4
351.841	1	4
352.012	1	7
352.183	1	14
352.354	1	15
352.525	1	21
352.696	1	13
352.867	1	22
353.038	1	8
353.209	1	6
353.380	1	9
353.551	1	13
353.722	1	20
353.893	1	16
354.064	1	16
354.235	1	17
354.406	1	15
354.576	1	9
354.747	1	22
354.918	1	18
355.089	1	13
355.260	1	15
355.431	1	9
355.602	1	11
355.773	1	13
355.944	1	15
356.115	1	7
356.286	1	19
356.457	1	12
356.628	1	8
356.799	1	14
356.970	1	2
357.141	1	19
357.311	1	16
357.482	1	10
357.653	1	7
357.824	1	17
357.995	1	19
358.166	1	13
358.337	1	7
358.508	1	4
358.679	1	6
358.850	1	0
359.021	1	11
359.192	1	15
359.363	1	1
359.533	1	3
359.704	1	12
359.875	1	6
360.046	1	16
360.217	1	3
360.388	1	5
360.559	1	8
360.730	1	-3
360.901	1	7
361.072	1	7
361.243	1	13
361.414	1	7
361.584	1	26
361.755	1	12
361.926	1	14
362.097	1	5
362.268	1	13
362.439	1	15
362.610	1	6
362.781	1	20
362.952	1	9
363.123	1	6
363.293	1	20
363.464	1	15
363.635	1	15
363.806	1	17
363.977	1	2
364.148	1	19
364.319	1	3
364.490	1	13
364.661	1	10
364.832	1	14
365.002	1	5
365.173	1	14
365.344	1	7
365.515	1	15
365.686	1	12
365.857	1	19
366.028	1	15
366.199	1	16
366.370	1	22
366.540	1	6
366.711	1	6
366.882	1	13
367.053	1	15
367.224	1	3
367.395	1	19
367.566	1	24
367.737	1	17
367.908	1	8
368.078	1	12
368.249	1	17
368.420	1	15
368.591	1	17
368.762	1	5
368.933	1	17
369.104	1	17
369.274	1	23
369.445	1	22
369.616	1	13
369.787	1	17
369.958	1	29
370.129	1	8
370.300	1	7
370.471	1	20
370.641	1	11
370.812	1	24
370.983	1	10
371.154	1	11
371.325	1	9
371.496	1	9
371.667	1	22
371.837	1	16
372.008	1	17
372.179	1	13
372.350	1	18
372.521	1	19
372.692	1	23
372.863	1	14
373.033	1	27
373.204	1	26
373.375	1	12
373.546	1	20
373.717	1	24
373.888	1	24
374.059	1	17
374.229	1	17
374.400	1	18
374.571	1	25
374.742	1	7
374.913	1	17
375.084	1	26
375.254	1	13
375.425	1	13
375.596	1	21
375.767	1	12
375.938	1	12
376.109	1	1
376.279	1	20
376.450	1	18
376.621	1	19
376.792	1	14
376.963	1	17
377.134	1	7
377.304	1	25
377.475	1	10
377.646	1	11
377.817	1	13
377.988	1	9
378.159	1	20
378.329	1	20
378.500	1	3
378.671	1	11
378.842	1	9
379.013	1	20
379.184	1	21
379.354	1	23
379.525	1	7
379.696	1	29
379.867	1	10
380.038	1	16
380.209	1	11
380.379	1	15
380.550	1	18
380.721	1	18
380.892	1	13
381.063	1	14
381.233	1	23
381.404	1	17
381.575	1	12
381.746	1	18
381.917	1	12
382.087	1	19
382.258	1	20
382.429	1	17
382.600	1	20
382.771	1	17
382.941	1	13
383.112	1	20
383.283	1	24
383.454	1	26
383.625	1	12
383.795	1	12
383.966	1	9
384.137	1	16
384.308	1	24
384.479	1	18
384.649	1	22
384.820	1	12
384.991	1	5
385.162	1	17
385.333	1	22
385.503	1	26
385.674	1	25
385.845	1	13
386.016	1	25
386.187	1	8
386.357	1	11
386.528	1	19
386.699	1	19
386.870	1	23
387.041	1	14
387.211	1	9
387.382	1	11
387.553	1	20
387.724	1	5
387.894	1	25
388.065	1	29
388.236	1	18
388.407	1	19
388.578	1	29
388.748	1	12
388.919	1	22
389.090	1	17
389.261	1	26
389.431	1	23
389.602	1	16
389.773	1	8
389.944	1	20
390.114	1	23
390.285	1	25
390.456	1	30
390.627	1	21
390.798	1	18
390.968	1	23
391.139	1	15
391.310	1	26
391.481	1	17
391.651	1	27
391.822	1	26
391.993	1	17
392.164	1	6
392.334	1	8
392.505	1	23
392.676	1	21
392.847	1	24
393.017	1	21
393.188	1	23
393.359	1	20
393.530	1	26
393.700	1	18
393.871	1	10
394.042	1	24
394.213	1	26
394.383	1	23
394.554	1	30
394.725	1	16
394.896	1	13
395.066	1	19
395.237	1	16
395.408	1	12
395.579	1	25
395.749	1	22
395.920	1	16
396.091	1	25
396.262	1	18
396.432	1	19
396.603	1	12
396.774	1	29
396.945	1	22
397.115	1	19
397.286	1	25
397.457	1	12
397.627	1	17
397.798	1	19
397.969	1	31
398.140	1	15
398.310	1	31
398.481	1	8
398.652	1	22
398.823	1	16
398.993	1	33
399.164	1	17
399.335	1	18
399.505	1	35
399.676	1	25
399.847	1	19
400.018	1	25
400.188	1	32
400.359	1	30
400.530	1	14
400.700	1	16
400.871	1	29
401.042	1	26
401.213	1	35
401.383	1	21
401.554	1	31
401.725	1	20
401.895	1	22
402.066	1	36
402.237	1	28
402.408	1	43
402.578	1	29
402.749	1	35
402.920	1	25
403.090	1	31
403.261	1	27
403.432	1	28
403.603	1	7
403.773	1	30
403.944	1	33
404.115	1	24
404.285	1	35
404.456	1	23
404.627	1	31
404.797	1	26
404.968	1	16
405.139	1	34
405.310	1	28
405.480	1	25
405.651	1	35
405.822	1	33
405.992	1	27
406.163	1	38
406.334	1	28
406.504	1	7
406.675	1	29
406.846	1	21
407.016	1	13
407.187	1	33
407.358	1	22
407.528	1	23
407.699	1	24
407.870	1	26
408.041	1	18
408.211	1	24
408.382	1	17
408.553	1	11
408.723	1	25
408.894	1	25
409.065	1	36
409.235	1	22
409.406	1	24
409.577	1	29
409.747	1	30
409.918	1	20
410.089	1	29
410.259	1	13
410.430	1	25
410.601	1	26
410.771	1	31
410.942	1	21
411.113	1	26
411.283	1	18
411.454	1	26
411.625	1	21
411.795	1	18
411.966	1	11
412.137	1	16
412.307	1	20
412.478	1	35
412.649	1	22
412.819	1	23
412.990	1	34
413.161	1	30
413.331	1	30
413.502	1	26
413.672	1	32
413.843	1	39
414.014	1	44
414.184	1	35
414.355	1	19
414.526	1	29
414.696	1	30
414.867	1	24
415.038	1	23
415.208	1	21
415.379	1	31
415.550	1	22
415.720	1	21
415.891	1	39
416.062	1	28
416.232	1	34
416.403	1	34
416.573	1	16
416.744	1	33
416.915	1	28
417.085	1	17
417.256	1	28
417.427	1	32
417.597	1	31
417.768	1	30
417.939	1	19
418.109	1	21
418.280	1	31
418.450	1	36
418.621	1	36
418.792	1	12
418.962	1	20
419.133	1	39
419.304	1	26
419.474	1	18
419.645	1	27
419.815	1	29
419.986	1	28
420.157	1	34
420.327	1	23
420.498	1	22
420.669	1	27
420.839	1	24
421.010	1	22
421.180	1	7
421.351	1	29
421.522	1	33
421.692	1	28
421.863	1	19
422.033	1	35
422.204	1	23
422.375	1	28
422.545	1	20
422.716	1	23
422.886	1	30
423.057	1	15
423.228	1	33
423.398	1	35
423.569	1	26
423.740	1	28
423.910	1	31
424.081	1	33
424.251	1	16
424.422	1	24
424.593	1	21
424.763	1	22
424.934	1	44
425.104	1	24
425.275	1	32
425.445	1	39
425.616	1	30
425.787	1	28
425.957	1	30
426.128	1	31
426.298	1	24
426.469	1	25
426.640	1	23
426.810	1	30
426.981	1	39
427.151	1	27
427.322	1	14
427.493	1	23
427.663	1	21
427.834	1	16
428.004	1	25
428.175	1	25
428.345	1	24
428.516	1	30
428.687	1	28
428.857	1	27
429.028	1	36
429.198	1	25
429.369	1	25
429.540	1	32
429.710	1	32
429.881	1	22
430.051	1	31
430.222	1	20
430.392	1	23
430.563	1	32
430.734	1	23
430.904	1	22
431.075	1	21
431.245	1	32
431.416	1	20
431.586	1	25
431.757	1	25
431.927	1	23
432.098	1	26
432.269	1	36
432.439	1	29
432.610	1	30
432.780	1	35
432.951	1	19
433.121	1	32
433.292	1	28
433.462	1	26
433.633	1	36
433.804	1	15
433.974	1	23
434.145	1	24
434.315	1	29
434.486	1	17
434.656	1	27
434.827	1	22
434.997	1	38
435.168	1	24
435.339	1	28
435.509	1	15
435.680	1	22
435.850	1	32
436.021	1	25
436.191	1	29
436.362	1	38
436.532	1	28
436.703	1	32
436.873	1	35
437.044	1	24
437.214	1	30
437.385	1	32
437.556	1	23
437.726	1	21
437.897	1	21
438.067	1	21
438.238	1	24
438.408	1	26
438.579	1	28
438.749	1	15
438.920	1	24
439.090	1	30
439.261	1	15
439.431	1	34
439.602	1	26
439.772	1	36
439.943	1	41
440.113	1	20
440.284	1	28
440.455	1	35
440.625	1	28
440.796	1	22
440.966	1	36
441.137	1	32
441.307	1	20
441.478	1	32
441.648	1	41
441.819	1	27
441.989	1	31
442.160	1	21
442.330	1	25
442.501	1	26
442.671	1	17
442.842	1	34
443.012	1	23
443.183	1	31
443.353	1	30
443.524	1	29
443.694	1	40
443.865	1	31
444.035	1	17
444.206	1	18
444.376	1	27
444.547	1	15
444.717	1	31
444.888	1	31
445.058	1	32
445.229	1	18
445.399	1	16
445.570	1	25
445.740	1	28
445.911	1	30
446.081	1	37
446.252	1	11
446.422	1	21
446.593	1	16
446.763	1	29
446.934	1	28
447.104	1	13
447.275	1	30
447.445	1	23
447.616	1	18
447.786	1	25
447.957	1	20
448.127	1	28
448.298	1	18
448.468	1	24
448.639	1	25
448.809	1	27
448.979	1	21
449.150	1	34
449.320	1	24
449.491	1	25
449.661	1	33
449.832	1	35
450.002	1	26
450.173	1	22
450.343	1	38
450.514	1	28
450.684	1	23
450.855	1	27
451.025	1	34
451.196	1	35
451.366	1	25
451.537	1	28
451.707	1	37
451.878	1	19
452.048	1	28
452.218	1	13
452.389	1	16
452.559	1	29
452.730	1	19
452.900	1	37
453.071	1	32
453.241	1	25
453.412	1	27
453.582	1	23
453.753	1	24
453.923	1	36
454.093	1	37
454.264	1	19
454.434	1	29
454.605	1	36
454.775	1	18
454.946	1	19
455.116	1	28
455.287	1	25
455.457	1	19
455.628	1	22
455.798	1	23
455.968	1	26
456.139	1	27
456.309	1	31
456.480	1	20
456.650	1	35
456.821	1	35
456.991	1	20
457.161	1	33
457.332	1	14
457.502	1	34
457.673	1	42
457.843	1	20
458.014	1	26
458.184	1	28
458.355	1	22
458.525	1	22
458.695	1	14
458.866	1	27
459.036	1	27
459.207	1	26
459.377	1	33
459.548	1	12
459.718	1	24
459.888	1	34
460.059	1	25
460.229	1	22
460.400	1	16
460.570	1	14
460.740	1	23
460.911	1	24
461.081	1	28
461.252	1	15
461.422	1	24
461.593	1	19
461.763	1	34
461.933	1	15
462.104	1	26
462.274	1	9
462.445	1	14
462.615	1	26
462.785	1	16
462.956	1	33
463.126	1	19
463.297	1	24
463.467	1	39
463.638	1	21
463.808	1	35
463.978	1	31
464.149	1	18
464.319	1	36
464.490	1	21
464.660	1	16
464.830	1	24
465.001	1	19
465.171	1	23
465.342	1	19
465.512	1	19
465.682	1	16
465.853	1	11
466.023	1	16
466.194	1	26
466.364	1	17
466.534	1	21
466.705	1	12
466.875	1	32
467.045	1	19
467.216	1	24
467.386	1	20
467.557	1	27
467.727	1	21
467.897	1	22
468.068	1	11
468.238	1	37
468.409	1	8
468.579	1	24
468.749	1	27
468.920	1	20
469.090	1	26
469.260	1	22
469.431	1	34
469.601	1	12
469.772	1	5
469.942	1	25
470.112	1	13
470.283	1	25
470.453	1	19
470.623	1	18
470.794	1	21
470.964	1	19
471.135	1	28
471.305	1	26
471.475	1	15
471.646	1	20
471.816	1	14
471.986	1	27
472.157	1	31
472.327	1	29
472.497	1	24
472.668	1	17
472.838	1	18
473.009	1	22
473.179	1	15
473.349	1	29
473.520	1	12
473.690	1	28
473.860	1	12
474.031	1	19
474.201	1	20
474.371	1	17
474.542	1	26
474.712	1	9
474.882	1	10
475.053	1	30
475.223	1	11
475.394	1	12
475.564	1	5
475.734	1	21
475.905	1	20
476.075	1	21
476.245	1	22
476.416	1	6
476.586	1	16
476.756	1	11
476.927	1	13
477.097	1	4
477.267	1	21
477.438	1	24
477.608	1	23
477.778	1	18
477.949	1	21
478.119	1	19
478.289	1	13
478.460	1	6
478.630	1	34
478.800	1	36
478.971	1	18
479.141	1	16
479.311	1	19
479.482	1	26
479.652	1	21
479.822	1	20
479.993	1	12
480.163	1	23
480.333	1	18
480.504	1	27
480.674	1	16
480.844	1	9
481.015	1	16
481.185	1	19
481.355	1	17
481.525	1	18
481.696	1	18
481.866	1	21
482.036	1	22
482.207	1	18
482.377	1	19
482.547	1	13
482.718	1	17
482.888	1	19
483.058	1	10
483.229	1	14
483.399	1	34
483.569	1	22
483.740	1	28
483.910	1	17
484.080	1	13
484.250	1	3
484.421	1	13
484.591	1	22
484.761	1	22
484.932	1	14
485.102	1	25
485.272	1	18
485.443	1	20
485.613	1	16
485.783	1	25
485.953	1	23
486.124	1	13
486.294	1	15
486.464	1	5
486.635	1	20
486.805	1	10
486.975	1	13
487.146	1	13
487.316	1	19
487.486	1	7
487.656	1	1
487.827	1	9
487.997	1	8
488.167	1	19
488.338	1	13
488.508	1	8
488.678	1	14
488.848	1	12
489.019	1	16
489.189	1	14
489.359	1	12
489.529	1	16
489.700	1	17
489.870	1	13
490.040	1	8
490.211	1	19
490.381	1	18
490.551	1	15
490.721	1	19
490.892	1	6
491.062	1	2
491.232	1	6
491.402	1	3
491.573	1	11
491.743	1	14
491.913	1	5
492.084	1	22
492.254	1	14
492.424	1	20
492.594	1	13
492.765	1	12
492.935	1	8
493.105	1	20
493.275	1	11
493.446	1	11
493.616	1	13
493.786	1	15
493.956	1	5
494.127	1	20
494.297	1	5
494.467	1	19
494.637	1	9
494.808	1	24
494.978	1	13
495.148	1	5
495.318	1	19
495.489	1	2
495.659	1	8
495.829	1	13
495.999	1	11
496.170	1	9
496.340	1	21
496.510	1	21
496.680	1	8
496.851	1	12
497.021	1	0
497.191	1	8
497.361	1	6
497.532	1	9
497.702	1	17
497.872	1	17
498.042	1	16
498.213	1	17
498.383	1	21
498.553	1	5
498.723	1	11
498.894	1	10
499.064	1	10
499.234	1	8
499.404	1	6
499.574	1	7
499.745	1	12
499.915	1	4
500.085	1	3
500.255	1	8
500.426	1	17
500.596	1	5
500.766	1	7
500.936	1	17
501.106	1	7
501.277	1	14
501.447	1	9
501.617	1	15
501.787	1	11
501.958	1	14
502.128	1	5
502.298	1	5
502.468	1	16
502.638	1	10
502.809	1	14
502.979	1	23
503.149	1	-3
503.319	1	17
503.489	1	2
503.660	1	8
503.830	1	13
504.000	1	15
504.170	1	12
504.340	1	2
504.511	1	15
504.681	1	8
504.851	1	17
505.021	1	13
505.192	1	7
505.362	1	6
505.532	1	15
505.702	1	8
505.872	1	18
506.043	1	16
506.213	1	15
506.383	1	5
506.553	1	14
506.723	1	5
506.893	1	10
507.064	1	5
507.234	1	11
507.404	1	14
507.574	1	11
507.744	1	18
507.915	1	7
508.085	1	12
508.255	1	7
508.425	1	5
508.595	1	2
508.766	1	4
508.936	1	6
509.106	1	10
509.276	1	9
509.446	1	10
509.616	1	6
509.787	1	16
509.957	1	15
510.127	1	0
510.297	1	3
510.467	1	-9
510.638	1	12
510.808	1	10
510.978	1	4
511.148	1	24
511.318	1	-1
511.488	1	18
511.659	1	0
511.829	1	5
511.999	1	16
512.169	1	13
512.339	1	8
512.509	1	2
512.680	1	10
512.850	1	5
513.020	1	3
513.190	1	1
513.360	1	14
513.530	1	9
513.700	1	14
513.871	1	11
514.041	1	5
514.211	1	18
514.381	1	21
514.551	1	7
514.721	1	7
514.892	1	9
515.062	1	-2
515.232	1	6
515.402	1	6
515.572	1	12
515.742	1	12
515.912	1	14
516.083	1	16
516.253	1	9
516.423	1	11
516.593	1	6
516.763	1	9
516.933	1	4
517.104	1	-3
517.274	1	0
517.444	1	2
517.614	1	7
517.784	1	13
517.954	1	18
518.124	1	0
518.294	1	12
518.465	1	2
518.635	1	6
518.805	1	21
518.975	1	11
519.145	1	9
519.315	1	3
519.485	1	-3
519.656	1	5
519.826	1	10
519.996	1	6
520.166	1	19
520.336	1	1
520.506	1	1
520.676	1	15
520.846	1	7
521.017	1	0
521.187	1	16
521.357	1	8
521.527	1	16
521.697	1	10
521.867	1	8
522.037	1	3
522.207	1	6
522.377	1	8
522.548	1	3
522.718	1	8
522.888	1	13
523.058	1	19
523.228	1	12
523.398	1	4
523.568	1	12
523.738	1	8
523.909	1	1
524.079	1	6
524.249	1	11
524.419	1	11
524.589	1	1
524.759	1	-1
524.929	1	7
525.099	1	3
525.269	1	6
525.439	1	5
525.610	1	7
525.780	1	15
525.950	1	11
526.120	1	2
526.290	1	6
526.460	1	1
526.630	1	6
526.800	1	17
526.970	1	15
527.140	1	4
527.311	1	7
527.481	1	6
527.651	1	1
527.821	1	2
527.991	1	8
528.161	1	19
528.331	1	16
528.501	1	8
528.671	1	-2
528.841	1	11
529.011	1	3
529.181	1	9
529.352	1	12
529.522	1	5
529.692	1	-2
529.862	1	11
530.032	1	11
530.202	1	13
530.372	1	10
530.542	1	3
530.712	1	-5
530.882	1	2
531.052	1	11
531.222	1	-2
531.392	1	6
531.563	1	5
531.733	1	11
531.903	1	13
532.073	1	3
532.243	1	1
532.413	1	12
532.583	1	1
532.753	1	-3
532.923	1	6
533.093	1	25
533.263	1	-1
533.433	1	20
533.603	1	10
533.773	1	8
533.943	1	8
534.113	1	11
534.284	1	4
534.454	1	0
534.624	1	12
534.794	1	2
534.964	1	8
535.134	1	22
535.304	1	7
535.474	1	1
535.644	1	9
535.814	1	6
535.984	1	15
536.154	1	-3
536.324	1	15
536.494	1	6
536.664	1	5
536.834	1	13
537.004	1	14
537.174	1	4
537.344	1	5
537.514	1	1
537.685	1	5
537.855	1	5
538.025	1	8
538.195	1	4
538.365	1	-2
538.535	1	-3
538.705	1	12
538.875	1	15
539.045	1	7
539.215	1	-12
539.385	1	-1
539.555	1	2
539.725	1	4
539.895	1	10
540.065	1	6
540.235	1	15
540.405	1	-3
540.575	1	1
540.745	1	5
540.915	1	11
541.085	1	-14
541.255	1	-9
541.425	1	5
541.595	1	6
541.765	1	26
541.935	1	6
542.105	1	2
542.275	1	8
542.445	1	-4
542.615	1	13
542.785	1	-1
542.955	1	5
543.125	1	-10
543.295	1	-1
543.465	1	6
543.635	1	9
543.805	1	11
543.975	1	6
544.145	1	2
544.315	1	2
544.485	1	8
544.655	1	11
544.825	1	3
544.995	1	6
545.165	1	10
545.335	1	-4
545.505	1	11
545.675	1	-3
545.845	1	11
546.015	1	9
546.185	1	12
546.355	1	14
546.525	1	0
546.695	1	1
546.865	1	15
547.035	1	0
547.205	1	14
547.375	1	11
547.545	1	4
547.715	1	13
547.885	1	12
548.055	1	2
548.225	1	5
548.395	1	-4
548.565	1	15
548.735	1	5
548.905	1	2
549.075	1	10
549.245	1	11
549.415	1	4
549.585	1	4
549.755	1	14
549.925	1	8
550.095	1	11
550.265	1	3
550.435	1	4
550.605	1	7
550.775	1	10
550.945	1	12
551.115	1	6
551.285	1	12
551.455	1	-8
551.625	1	4
551.795	1	2
551.965	1	9
552.135	1	9
552.305	1	5
552.475	1	8
552.645	1	3
552.815	1	-3
552.985	1	5
553.155	1	2
553.325	1	5
553.495	1	4
553.665	1	9
553.835	1	7
554.004	1	-6
554.174	1	6
554.344	1	1
554.514	1	6
554.684	1	6
554.854	1	1
555.024	1	2
555.194	1	5
555.364	1	5
555.534	1	0
555.704	1	15
555.874	1	-5
556.044	1	9
556.214	1	5
556.384	1	5
556.554	1	12
556.724	1	-1
556.894	1	-7
557.064	1	6
557.234	1	2
557.404	1	0
557.573	1	-8
557.743	1	4
557.913	1	-3
558.083	1	13
558.253	1	-6
558.423	1	6
558.593	1	7
558.763	1	7
558.933	1	2
559.103	1	6
559.273	1	5
559.443	1	16
559.613	1	3
559.783	1	9
559.953	1	12
560.122	1	5
560.292	1	-6
560.462	1	1
560.632	1	6
560.802	1	8
560.972	1	13
561.142	1	14
561.312	1	7
561.482	1	20
561.652	1	6
561.822	1	-8
561.992	1	-10
562.162	1	15
562.331	1	12
562.501	1	2
562.671	1	9
562.841	1	-1
563.011	1	-4
563.181	1	11
563.351	1	3
563.521	1	6
563.691	1	17
563.861	1	2
564.031	1	-6
564.201	1	4
564.370	1	10
564.540	1	1
564.710	1	9
564.880	1	-1
565.050	1	-4
565.220	1	6
565.390	1	5
565.560	1	-2
565.730	1	9
565.900	1	-8
566.069	1	1
566.239	1	7
566.409	1	12
566.579	1	-2
566.749	1	2
566.919	1	9
567.089	1	12
567.259	1	8
567.429	1	4
567.599	1	-3
567.768	1	1
567.938	1	-4
568.108	1	12
568.278	1	5
568.448	1	11
568.618	1	10
568.788	1	-10
568.958	1	-4
569.128	1	-4
569.297	1	-3
569.467	1	9
569.637	1	10
569.807	1	4
569.977	1	6
570.147	1	6
570.317	1	4
570.487	1	13
570.656	1	3
570.826	1	-1
570.996	1	6
571.166	1	3
571.336	1	7
571.506	1	4
571.676	1	-7
571.846	1	0
572.015	1	12
572.185	1	2
572.355	1	10
572.525	1	-9
572.695	1	6
572.865	1	16
573.035	1	-7
573.205	1	1
573.374	1	18
573.544	1	3
573.714	1	6
573.884	1	6
574.054	1	1
574.224	1	-3
574.394	1	-6
574.563	1	17
574.733	1	7
574.903	1	4
575.073	1	1
575.243	1	13
575.413	1	8
575.583	1	5
575.752	1	4
575.922	1	2
576.092	1	8
576.262	1	0
576.432	1	10
576.602	1	2
576.772	1	4
576.941	1	14
577.111	1	6
577.281	1	8
577.451	1	8
577.621	1	4
577.791	1	4
577.960	1	-6
578.130	1	9
578.300	1	11
578.470	1	5
578.640	1	2
578.810	1	6
578.979	1	-2
579.149	1	-5
579.319	1	-3
579.489	1	8
579.659	1	8
579.829	1	7
579.998	1	4
580.168	1	-3
580.338	1	13
580.508	1	2
580.678	1	6
580.848	1	2
581.017	1	11
581.187	1	13
581.357	1	-6
581.527	1	-3
581.697	1	-2
581.867	1	6
582.036	1	10
582.206	1	0
582.376	1	10
582.546	1	15
582.716	1	-2
582.885	1	-1
583.055	1	0
583.225	1	2
583.395	1	10
583.565	1	1
583.735	1	5
583.904	1	-1
584.074	1	-1
584.244	1	4
584.414	1	2
584.584	1	3
584.753	1	12
584.923	1	8
585.093	1	3
585.263	1	7
585.433	1	18
585.602	1	8
585.772	1	9
585.942	1	7
586.112	1	-1
586.282	1	12
586.451	1	1
586.621	1	2
586.791	1	3
586.961	1	6
587.131	1	-1
587.300	1	22
587.470	1	-2
587.640	1	-3
587.810	1	-1
587.980	1	-2
588.149	1	10
588.319	1	7
588.489	1	-5
588.659	1	12
588.829	1	-6
588.998	1	5
589.168	1	8
589.338	1	1
589.508	1	8
589.677	1	-10
589.847	1	11
590.017	1	4
590.187	1	1
590.357	1	4
590.526	1	20
590.696	1	6
590.866	1	5
591.036	1	-9
591.205	1	1
591.375	1	6
591.545	1	3
591.715	1	-5
591.885	1	-3
592.054	1	10
592.224	1	8
592.394	1	-5
592.564	1	3
592.733	1	9
592.903	1	2
593.073	1	-3
593.243	1	1
593.412	1	-1
593.582	1	-3
593.752	1	8
593.922	1	12
594.091	1	-5
594.261	1	4
594.431	1	-2
594.601	1	7
594.771	1	8
594.940	1	5
595.110	1	3
595.280	1	7
595.450	1	3
595.619	1	9
595.789	1	15
595.959	1	5
596.129	1	-6
596.298	1	9
596.468	1	1
596.638	1	0
596.808	1	-4
596.977	1	4
597.147	1	5
597.317	1	4
597.487	1	3
597.656	1	3
597.826	1	1
597.996	1	-1
598.166	1	10
598.335	1	-7
598.505	1	-8
598.675	1	-3
598.844	1	8
599.014	1	8
599.184	1	6
599.354	1	7
599.523	1	6
599.693	1	5
599.863	1	8
600.033	1	6
600.202	1	12
600.372	1	2
600.542	1	7
600.712	1	7
600.881	1	8
601.051	1	6
601.221	1	14
601.390	1	9
601.560	1	4
601.730	1	1
601.900	1	14
602.069	1	-8
602.239	1	8
602.409	1	1
602.578	1	10
602.748	1	5
602.918	1	11
603.088	1	21
603.257	1	11
603.427	1	18
603.597	1	2
603.767	1	5
603.936	1	11
604.106	1	3
604.276	1	8
604.445	1	0
604.615	1	-2
604.785	1	13
604.954	1	14
605.124	1	5
605.294	1	8
605.464	1	-5
605.633	1	9
605.803	1	6
605.973	1	9
606.142	1	15
606.312	1	11
606.482	1	3
606.652	1	17
606.821	1	5
606.991	1	9
607.161	1	18
607.330	1	4
607.500	1	7
607.670	1	1
607.839	1	-6
608.009	1	0
608.179	1	10
608.348	1	4
608.518	1	4
608.688	1	14
608.858	1	9
609.027	1	-3
609.197	1	15
609.367	1	-5
609.536	1	16
609.706	1	-2
609.876	1	0
610.045	1	13
610.215	1	10
610.385	1	3
610.554	1	1
610.724	1	4
610.894	1	8
611.063	1	6
611.233	1	-5
611.403	1	8
611.572	1	11
611.742	1	2
611.912	1	7
612.081	1	2
612.251	1	11
612.421	1	10
612.590	1	-3
612.760	1	6
612.930	1	3
613.099	1	2
613.269	1	11
613.439	1	7
613.608	1	5
613.778	1	-4
613.948	1	11
614.117	1	7
614.287	1	5
614.457	1	6
614.626	1	14
614.796	1	13
614.966	1	10
615.135	1	15
615.305	1	15
615.475	1	-3
615.644	1	8
615.814	1	2
615.984	1	15
616.153	1	2
616.323	1	5
616.493	1	8
616.662	1	6
616.832	1	9
617.002	1	6
617.171	1	12
617.341	1	-1
617.511	1	2
617.680	1	5
617.850	1	-2
618.019	1	7
618.189	1	6
618.359	1	4
618.528	1	-4
618.698	1	7
618.868	1	-5
619.037	1	6
619.207	1	5
619.377	1	11
619.546	1	-7
619.716	1	3
619.885	1	1
620.055	1	17
620.225	1	8
620.394	1	7
620.564	1	-6
620.734	1	11
620.903	1	9
621.073	1	9
621.242	1	0
621.412	1	13
621.582	1	-13
621.751	1	12
621.921	1	15
622.091	1	-3
622.260	1	-5
622.430	1	13
622.599	1	15
622.769	1	4
622.939	1	-4
623.108	1	8
623.278	1	16
623.448	1	11
623.617	1	3
623.787	1	12
623.956	1	14
624.126	1	1
624.296	1	7
624.465	1	3
624.635	1	15
624.804	1	-1
624.974	1	11
625.144	1	17
625.313	1	1
625.483	1	10
625.652	1	18
625.822	1	9
625.992	1	11
626.161	1	-1
626.331	1	5
626.501	1	1
626.670	1	1
626.840	1	5
627.009	1	6
627.179	1	-5
627.348	1	12
627.518	1	10
627.688	1	3
627.857	1	18
628.027	1	-4
628.196	1	8
628.366	1	1
628.536	1	5
628.705	1	11
628.875	1	7
629.044	1	12
629.214	1	2
629.384	1	8
629.553	1	2
629.723	1	8
629.892	1	3
630.062	1	-4
630.232	1	16
630.401	1	2
630.571	1	8
630.740	1	14
630.910	1	4
631.079	1	0
631.249	1	9
631.419	1	0
631.588	1	15
631.758	1	14
631.927	1	1
632.097	1	7
632.266	1	-4
632.436	1	10
632.606	1	1
632.775	1	17
632.945	1	3
633.114	1	2
633.284	1	3
633.453	1	11
633.623	1	11
633.793	1	7
633.962	1	4
634.132	1	1
634.301	1	8
634.471	1	1
634.640	1	4
634.810	1	5
634.979	1	-2
635.149	1	5
635.319	1	2
635.488	1	-3
635.658	1	6
635.827	1	8
635.997	1	13
636.166	1	10
636.336	1	6
636.505	1	5
636.675	1	-2
636.845	1	-2
637.014	1	12
637.184	1	13
637.353	1	8
637.523	1	6
637.692	1	9
637.862	1	0
638.031	1	-2
638.201	1	0
638.370	1	7
638.540	1	5
638.710	1	12
638.879	1	9
639.049	1	1
639.218	1	14
639.388	1	8
639.557	1	12
639.727	1	9
639.896	1	6
640.066	1	3
640.235	1	5
640.405	1	13
640.574	1	11
640.744	1	5
640.914	1	4
641.083	1	1
641.253	1	2
641.422	1	8
641.592	1	4
641.761	1	10
641.931	1	1
642.100	1	16
642.270	1	-1
642.439	1	12
642.609	1	18
642.778	1	1
642.948	1	17
643.117	1	8
643.287	1	5
643.456	1	-1
643.626	1	7
643.795	1	13
643.965	1	13
644.134	1	10
644.304	1	15
644.473	1	8
644.643	1	1
644.812	1	3
644.982	1	6
645.151	1	3
645.321	1	2
645.490	1	13
645.660	1	12
645.829	1	4
645.999	1	8
646.168	1	5
646.338	1	7
646.507	1	8
646.677	1	6
646.846	1	3
647.016	1	7
647.185	1	4
647.355	1	6
647.524	1	-1
647.694	1	3
647.863	1	6
648.033	1	9
648.202	1	6
648.372	1	1
648.541	1	2
648.711	1	8
648.880	1	5
649.050	1	8
649.219	1	6
649.389	1	7
649.558	1	17
649.728	1	6
649.897	1	3
650.067	1	-3
650.236	1	0
650.406	1	10
650.575	1	7
650.745	1	13
650.914	1	11
651.084	1	5
651.253	1	10
651.423	1	7
651.592	1	0
651.762	1	-1
651.931	1	16
652.101	1	1
652.270	1	1
652.440	1	6
652.609	1	9
652.778	1	19
652.948	1	10
653.117	1	13
653.287	1	1
653.456	1	2
653.626	1	9
653.795	1	2
653.965	1	6
654.134	1	-3
654.304	1	2
654.473	1	2
654.643	1	15
654.812	1	0
654.982	1	10
655.151	1	9
655.320	1	4
655.490	1	8
655.659	1	12
655.829	1	-1
655.998	1	4
656.168	1	1
656.337	1	4
656.507	1	11
656.676	1	-1
656.846	1	6
657.015	1	3
657.184	1	7
657.354	1	7
657.523	1	13
657.693	1	-6
657.862	1	1
658.032	1	21
658.201	1	5
658.371	1	-4
658.540	1	-1
658.709	1	5
658.879	1	11
659.048	1	3
659.218	1	-3
659.387	1	6
659.557	1	6
659.726	1	3
659.895	1	6
660.065	1	16
660.234	1	0
660.404	1	10
660.573	1	8
660.743	1	15
660.912	1	-5
661.081	1	-2
661.251	1	16
661.420	1	13
661.590	1	7
661.759	1	5
661.929	1	3
662.098	1	15
662.267	1	10
662.437	1	-1
662.606	1	11
662.776	1	-2
662.945	1	18
663.115	1	11
663.284	1	2
663.453	1	12
663.623	1	20
663.792	1	5
663.962	1	-5
664.131	1	3
664.300	1	-6
664.470	1	4
664.639	1	11
664.809	1	8
664.978	1	4
665.148	1	-3
665.317	1	5
665.486	1	7
665.656	1	6
665.825	1	17
665.995	1	6
666.164	1	20
666.333	1	6
666.503	1	-3
666.672	1	12
666.842	1	-1
667.011	1	0
667.180	1	13
667.350	1	7
667.519	1	7
667.689	1	4
667.858	1	10
668.027	1	18
668.197	1	7
668.366	1	-4
668.536	1	5
668.705	1	10
668.874	1	11
669.044	1	8
669.213	1	10
669.382	1	9
669.552	1	4
669.721	1	9
669.891	1	1
670.060	1	5
670.229	1	0
670.399	1	2
670.568	1	-2
670.738	1	-1
670.907	1	2
671.076	1	4
671.246	1	-2
671.415	1	12
671.584	1	4
671.754	1	1
671.923	1	18
672.093	1	2
672.262	1	6
672.431	1	20
672.601	1	7
672.770	1	6
672.939	1	4
673.109	1	17
673.278	1	0
673.448	1	9
673.617	1	3
673.786	1	5
