325.333	1	-2
325.504	1	16
325.675	1	6
325.846	1	4
326.017	1	14
326.188	1	2
326.359	1	10
326.531	1	30
326.702	1	14
326.873	1	-5
327.044	1	15
327.215	1	-1
327.386	1	7
327.557	1	7
327.728	1	7
327.899	1	4
328.070	1	14
328.241	1	16
328.412	1	6
328.583	1	13
328.754	1	-2
328.926	1	24
329.097	1	8
329.268	1	2
329.439	1	9
329.610	1	6
329.781	1	2
329.952	1	6
330.123	1	11
330.294	1	6
330.465	1	7
330.636	1	17
330.807	1	13
330.978	1	18
331.149	1	4
331.320	1	12
331.492	1	3
331.663	1	0
331.834	1	-4
332.005	1	14
332.176	1	10
332.347	1	17
332.518	1	11
332.689	1	6
332.860	1	2
333.031	1	14
333.202	1	12
333.373	1	7
333.544	1	7
333.715	1	4
333.886	1	5
334.057	1	3
334.228	1	8
334.399	1	15
334.570	1	-4
334.741	1	10
334.912	1	17
335.084	1	2
335.255	1	5
335.426	1	15
335.597	1	17
335.768	1	1
335.939	1	5
336.110	1	8
336.281	1	5
336.452	1	7
336.623	1	12
336.794	1	14
336.965	1	6
337.136	1	17
337.307	1	16
337.478	1	8
337.649	1	2
337.820	1	4
337.991	1	11
338.162	1	16
338.333	1	20
338.504	1	14
338.675	1	18
338.846	1	9
339.017	1	26
339.188	1	21
339.359	1	24
339.530	1	8
339.701	1	8
339.872	1	15
340.043	1	11
340.214	1	8
340.385	1	19
340.556	1	7
340.727	1	4
340.898	1	26
341.069	1	0
341.240	1	0
341.411	1	18
341.582	1	13
341.753	1	13
341.924	1	6
342.095	1	12
342.266	1	2
342.437	1	4
342.608	1	15
342.779	1	18
342.950	1	-3
343.121	1	10
343.292	1	21
343.463	1	12
343.634	1	18
343.805	1	8
343.976	1	1
344.147	1	20
344.318	1	13
344.489	1	17
344.660	1	2
344.831	1	12
345.002	1	16
345.173	1	19
345.344	1	5
345.515	1	15
345.686	1	6
345.857	1	18
346.028	1	-2
346.199	1	17
346.370	1	9
346.541	1	11
346.712	1	3
346.883	1	28
347.054	1	12
347.225	1	-4
347.396	1	14
347.567	1	14
347.738	1	11
347.909	1	18
348.080	1	13
348.251	1	7
348.422	1	9
348.593	1	18
348.764	1	6
348.935	1	20
349.106	1	19
349.277	1	11
349.448	1	11
349.619	1	11
349.790	1	15
349.961	1	3
350.132	1	19
350.303	1	13
350.474	1	11
350.645	1	25
350.816	1	12
350.987	1	21
351.157	1	13
351.328	1	17
351.499	1	26
351.670	1	8
351.841	1	13
352.012	1	14
352.183	1	15
352.354	1	18
352.525	1	13
352.696	1	13
352.867	1	8
353.038	1	4
353.209	1	7
353.380	1	22
353.551	1	11
353.722	1	19
353.893	1	15
354.064	1	13
354.235	1	16
354.406	1	28
354.576	1	11
354.747	1	19
354.918	1	24
355.089	1	22
355.260	1	29
355.431	1	25
355.602	1	14
355.773	1	6
355.944	1	13
356.115	1	10
356.286	1	15
356.457	1	17
356.628	1	5
356.799	1	10
356.970	1	13
357.141	1	20
357.311	1	8
357.482	1	15
357.653	1	13
357.824	1	15
357.995	1	18
358.166	1	24
358.337	1	2
358.508	1	8
358.679	1	8
358.850	1	12
359.021	1	18
359.192	1	16
359.363	1	14
359.533	1	11
359.704	1	25
359.875	1	6
360.046	1	19
360.217	1	3
360.388	1	10
360.559	1	22
360.730	1	5
360.901	1	16
361.072	1	5
361.243	1	19
361.414	1	12
361.584	1	29
361.755	1	17
361.926	1	20
362.097	1	17
362.268	1	27
362.439	1	21
362.610	1	22
362.781	1	19
362.952	1	6
363.123	1	18
363.293	1	12
363.464	1	21
363.635	1	28
363.806	1	14
363.977	1	18
364.148	1	13
364.319	1	2
364.490	1	21
364.661	1	14
364.832	1	12
365.002	1	6
365.173	1	7
365.344	1	14
365.515	1	24
365.686	1	13
365.857	1	12
366.028	1	18
366.199	1	23
366.370	1	12
366.540	1	12
366.711	1	23
366.882	1	14
367.053	1	16
367.224	1	18
367.395	1	19
367.566	1	22
367.737	1	11
367.908	1	19
368.078	1	16
368.249	1	18
368.420	1	17
368.591	1	19
368.762	1	-3
368.933	1	27
369.104	1	21
369.274	1	27
369.445	1	26
369.616	1	13
369.787	1	14
369.958	1	34
370.129	1	19
370.300	1	16
370.471	1	13
370.641	1	15
370.812	1	19
370.983	1	15
371.154	1	25
371.325	1	18
371.496	1	12
371.667	1	22
371.837	1	16
372.008	1	22
372.179	1	11
372.350	1	18
372.521	1	17
372.692	1	6
372.863	1	16
373.033	1	30
373.204	1	34
373.375	1	16
373.546	1	24
373.717	1	18
373.888	1	16
374.059	1	20
374.229	1	13
374.400	1	19
374.571	1	28
374.742	1	19
374.913	1	21
375.084	1	28
375.254	1	20
375.425	1	5
375.596	1	7
375.767	1	20
375.938	1	17
376.109	1	18
376.279	1	24
376.450	1	19
376.621	1	19
376.792	1	27
376.963	1	15
377.134	1	13
377.304	1	24
377.475	1	15
377.646	1	11
377.817	1	19
377.988	1	19
378.159	1	32
378.329	1	28
378.500	1	19
378.671	1	12
378.842	1	21
379.013	1	20
379.184	1	24
379.354	1	31
379.525	1	11
379.696	1	21
379.867	1	4
380.038	1	20
380.209	1	10
380.379	1	21
380.550	1	25
380.721	1	17
380.892	1	29
381.063	1	21
381.233	1	22
381.404	1	20
381.575	1	26
381.746	1	17
381.917	1	27
382.087	1	17
382.258	1	31
382.429	1	25
382.600	1	26
382.771	1	24
382.941	1	10
383.112	1	18
383.283	1	32
383.454	1	27
383.625	1	27
383.795	1	14
383.966	1	25
384.137	1	25
384.308	1	17
384.479	1	22
384.649	1	34
384.820	1	16
384.991	1	7
385.162	1	42
385.333	1	27
385.503	1	28
385.674	1	30
385.845	1	18
386.016	1	20
386.187	1	25
386.357	1	20
386.528	1	9
386.699	1	15
386.870	1	26
387.041	1	21
387.211	1	18
387.382	1	17
387.553	1	26
387.724	1	15
387.894	1	27
388.065	1	29
388.236	1	25
388.407	1	33
388.578	1	32
388.748	1	28
388.919	1	35
389.090	1	31
389.261	1	28
389.431	1	34
389.602	1	15
389.773	1	21
389.944	1	29
390.114	1	33
390.285	1	32
390.456	1	23
390.627	1	27
390.798	1	32
390.968	1	16
391.139	1	13
391.310	1	36
391.481	1	27
391.651	1	19
391.822	1	33
391.993	1	34
392.164	1	10
392.334	1	27
392.505	1	26
392.676	1	26
392.847	1	45
393.017	1	17
393.188	1	13
393.359	1	35
393.530	1	29
393.700	1	34
393.871	1	31
394.042	1	27
394.213	1	20
394.383	1	31
394.554	1	23
394.725	1	28
394.896	1	31
395.066	1	31
395.237	1	26
395.408	1	29
395.579	1	35
395.749	1	35
395.920	1	24
396.091	1	35
396.262	1	30
396.432	1	18
396.603	1	22
396.774	1	32
396.945	1	12
397.115	1	27
397.286	1	30
397.457	1	20
397.627	1	34
397.798	1	35
397.969	1	37
398.140	1	25
398.310	1	35
398.481	1	38
398.652	1	15
398.823	1	31
398.993	1	41
399.164	1	27
399.335	1	30
399.505	1	34
399.676	1	26
399.847	1	42
400.018	1	25
400.188	1	31
400.359	1	37
400.530	1	21
400.700	1	27
400.871	1	43
401.042	1	26
401.213	1	27
401.383	1	35
401.554	1	34
401.725	1	23
401.895	1	23
402.066	1	36
402.237	1	38
402.408	1	46
402.578	1	38
402.749	1	35
402.920	1	28
403.090	1	32
403.261	1	34
403.432	1	37
403.603	1	22
403.773	1	45
403.944	1	40
404.115	1	34
404.285	1	50
404.456	1	39
404.627	1	31
404.797	1	24
404.968	1	36
405.139	1	38
405.310	1	24
405.480	1	39
405.651	1	30
405.822	1	48
405.992	1	37
406.163	1	35
406.334	1	39
406.504	1	20
406.675	1	30
406.846	1	35
407.016	1	23
407.187	1	38
407.358	1	37
407.528	1	33
407.699	1	29
407.870	1	45
408.041	1	11
408.211	1	37
408.382	1	34
408.553	1	23
408.723	1	34
408.894	1	36
409.065	1	48
409.235	1	33
409.406	1	34
409.577	1	24
409.747	1	53
409.918	1	30
410.089	1	23
410.259	1	27
410.430	1	42
410.601	1	31
410.771	1	36
410.942	1	26
411.113	1	45
411.283	1	33
411.454	1	45
411.625	1	39
411.795	1	34
411.966	1	25
412.137	1	30
412.307	1	30
412.478	1	43
412.649	1	36
412.819	1	31
412.990	1	40
413.161	1	42
413.331	1	39
413.502	1	24
413.672	1	36
413.843	1	32
414.014	1	46
414.184	1	37
414.355	1	34
414.526	1	35
414.696	1	32
414.867	1	32
415.038	1	27
415.208	1	38
415.379	1	39
415.550	1	33
415.720	1	20
415.891	1	43
416.062	1	39
416.232	1	29
416.403	1	44
416.573	1	35
416.744	1	25
416.915	1	34
417.085	1	30
417.256	1	25
417.427	1	43
417.597	1	40
417.768	1	32
417.939	1	46
418.109	1	32
418.280	1	33
418.450	1	39
418.621	1	33
418.792	1	30
418.962	1	36
419.133	1	38
419.304	1	32
419.474	1	41
419.645	1	33
419.815	1	43
419.986	1	29
420.157	1	43
420.327	1	24
420.498	1	34
420.669	1	31
420.839	1	31
421.010	1	51
421.180	1	17
421.351	1	41
421.522	1	40
421.692	1	40
421.863	1	29
422.033	1	46
422.204	1	31
422.375	1	35
422.545	1	34
422.716	1	31
422.886	1	45
423.057	1	22
423.228	1	30
423.398	1	37
423.569	1	36
423.740	1	29
423.910	1	39
424.081	1	40
424.251	1	29
424.422	1	26
424.593	1	33
424.763	1	36
424.934	1	28
425.104	1	35
425.275	1	38
425.445	1	43
425.616	1	36
425.787	1	43
425.957	1	26
426.128	1	46
426.298	1	36
426.469	1	17
426.640	1	45
426.810	1	33
426.981	1	31
427.151	1	46
427.322	1	27
427.493	1	39
427.663	1	36
427.834	1	34
428.004	1	38
428.175	1	39
428.345	1	51
428.516	1	48
428.687	1	34
428.857	1	26
429.028	1	43
429.198	1	37
429.369	1	28
429.540	1	27
429.710	1	34
429.881	1	35
430.051	1	34
430.222	1	30
430.392	1	43
430.563	1	30
430.734	1	38
430.904	1	35
431.075	1	29
431.245	1	37
431.416	1	24
431.586	1	22
431.757	1	41
431.927	1	25
432.098	1	31
432.269	1	45
432.439	1	35
432.610	1	29
432.780	1	42
432.951	1	33
433.121	1	36
433.292	1	39
433.462	1	29
433.633	1	49
433.804	1	33
433.974	1	27
434.145	1	33
434.315	1	34
434.486	1	14
434.656	1	40
434.827	1	25
434.997	1	37
435.168	1	35
435.339	1	29
435.509	1	36
435.680	1	30
435.850	1	32
436.021	1	51
436.191	1	34
436.362	1	46
436.532	1	34
436.703	1	45
436.873	1	37
437.044	1	35
437.214	1	44
437.385	1	42
437.556	1	36
437.726	1	29
437.897	1	28
438.067	1	33
438.238	1	37
438.408	1	34
438.579	1	36
438.749	1	33
438.920	1	35
439.090	1	35
439.261	1	31
439.431	1	28
439.602	1	34
439.772	1	29
439.943	1	35
440.113	1	29
440.284	1	29
440.455	1	40
440.625	1	27
440.796	1	23
440.966	1	34
441.137	1	37
441.307	1	24
441.478	1	44
441.648	1	36
441.819	1	30
441.989	1	19
442.160	1	32
442.330	1	44
442.501	1	22
442.671	1	32
442.842	1	41
443.012	1	30
443.183	1	21
443.353	1	43
443.524	1	38
443.694	1	29
443.865	1	31
444.035	1	31
444.206	1	35
444.376	1	30
444.547	1	23
444.717	1	48
444.888	1	35
445.058	1	28
445.229	1	29
445.399	1	36
445.570	1	24
445.740	1	28
445.911	1	35
446.081	1	29
446.252	1	22
446.422	1	37
446.593	1	26
446.763	1	46
446.934	1	41
447.104	1	18
447.275	1	43
447.445	1	27
447.616	1	28
447.786	1	30
447.957	1	29
448.127	1	36
448.298	1	26
448.468	1	30
448.639	1	22
448.809	1	17
448.979	1	30
449.150	1	27
449.320	1	31
449.491	1	41
449.661	1	31
449.832	1	29
450.002	1	47
450.173	1	28
450.343	1	36
450.514	1	18
450.684	1	38
450.855	1	33
451.025	1	24
451.196	1	38
451.366	1	37
451.537	1	29
451.707	1	44
451.878	1	24
452.048	1	37
452.218	1	31
452.389	1	30
452.559	1	31
452.730	1	31
452.900	1	24
453.071	1	31
453.241	1	23
453.412	1	20
453.582	1	20
453.753	1	39
453.923	1	37
454.093	1	28
454.264	1	21
454.434	1	40
454.605	1	25
454.775	1	16
454.946	1	36
455.116	1	19
455.287	1	29
455.457	1	29
455.628	1	19
455.798	1	32
455.968	1	33
456.139	1	20
456.309	1	32
456.480	1	20
456.650	1	39
456.821	1	29
456.991	1	30
457.161	1	41
457.332	1	24
457.502	1	34
457.673	1	40
457.843	1	21
458.014	1	28
458.184	1	27
458.355	1	29
458.525	1	30
458.695	1	25
458.866	1	49
459.036	1	29
459.207	1	32
459.377	1	35
459.548	1	21
459.718	1	32
459.888	1	41
460.059	1	34
460.229	1	34
460.400	1	28
460.570	1	31
460.740	1	34
460.911	1	31
461.081	1	33
461.252	1	17
461.422	1	15
461.593	1	24
461.763	1	30
461.933	1	24
462.104	1	25
462.274	1	20
462.445	1	25
462.615	1	18
462.785	1	24
462.956	1	22
463.126	1	13
463.297	1	23
463.467	1	30
463.638	1	25
463.808	1	29
463.978	1	32
464.149	1	16
464.319	1	36
464.490	1	27
464.660	1	23
464.830	1	29
465.001	1	29
465.171	1	17
465.342	1	4
465.512	1	25
465.682	1	15
465.853	1	7
466.023	1	21
466.194	1	30
466.364	1	34
466.534	1	30
466.705	1	16
466.875	1	29
467.045	1	25
467.216	1	36
467.386	1	31
467.557	1	22
467.727	1	23
467.897	1	21
468.068	1	5
468.238	1	31
468.409	1	18
468.579	1	35
468.749	1	21
468.920	1	26
469.090	1	36
469.260	1	26
469.431	1	25
469.601	1	23
469.772	1	14
469.942	1	29
470.112	1	26
470.283	1	21
470.453	1	36
470.623	1	19
470.794	1	20
470.964	1	19
471.135	1	18
471.305	1	21
471.475	1	17
471.646	1	15
471.816	1	20
471.986	1	36
472.157	1	34
472.327	1	22
472.497	1	21
472.668	1	21
472.838	1	27
473.009	1	26
473.179	1	22
473.349	1	28
473.520	1	16
473.690	1	30
473.860	1	26
474.031	1	22
474.201	1	33
474.371	1	20
474.542	1	26
474.712	1	22
474.882	1	13
475.053	1	29
475.223	1	11
475.394	1	26
475.564	1	15
475.734	1	33
475.905	1	15
476.075	1	20
476.245	1	25
476.416	1	-1
476.586	1	16
476.756	1	15
476.927	1	18
477.097	1	17
477.267	1	29
477.438	1	30
477.608	1	17
477.778	1	14
477.949	1	15
478.119	1	25
478.289	1	18
478.460	1	6
478.630	1	32
478.800	1	30
478.971	1	29
479.141	1	17
479.311	1	39
479.482	1	21
479.652	1	28
479.822	1	28
479.993	1	18
480.163	1	25
480.333	1	15
480.504	1	18
480.674	1	24
480.844	1	26
481.015	1	26
481.185	1	22
481.355	1	32
481.525	1	34
481.696	1	20
481.866	1	22
482.036	1	34
482.207	1	24
482.377	1	34
482.547	1	15
482.718	1	26
482.888	1	26
483.058	1	24
483.229	1	8
483.399	1	20
483.569	1	22
483.740	1	21
483.910	1	20
484.080	1	14
484.250	1	13
484.421	1	12
484.591	1	19
484.761	1	18
484.932	1	17
485.102	1	22
485.272	1	15
485.443	1	24
485.613	1	21
485.783	1	26
485.953	1	21
486.124	1	17
486.294	1	20
486.464	1	7
486.635	1	19
486.805	1	17
486.975	1	19
487.146	1	10
487.316	1	12
487.486	1	14
487.656	1	19
487.827	1	9
487.997	1	20
488.167	1	15
488.338	1	14
488.508	1	19
488.678	1	9
488.848	1	6
489.019	1	23
489.189	1	17
489.359	1	17
489.529	1	17
489.700	1	28
489.870	1	9
490.040	1	20
490.211	1	14
490.381	1	22
490.551	1	7
490.721	1	16
490.892	1	19
491.062	1	17
491.232	1	4
491.402	1	15
491.573	1	12
491.743	1	19
491.913	1	7
492.084	1	16
492.254	1	13
492.424	1	30
492.594	1	24
492.765	1	9
492.935	1	6
493.105	1	29
493.275	1	21
493.446	1	11
493.616	1	13
493.786	1	20
493.956	1	8
494.127	1	23
494.297	1	12
494.467	1	18
494.637	1	17
494.808	1	18
494.978	1	13
495.148	1	12
495.318	1	22
495.489	1	10
495.659	1	8
495.829	1	19
495.999	1	16
496.170	1	7
496.340	1	24
496.510	1	15
496.680	1	20
496.851	1	14
497.021	1	6
497.191	1	14
497.361	1	2
497.532	1	4
497.702	1	12
497.872	1	20
498.042	1	12
498.213	1	19
498.383	1	13
498.553	1	12
498.723	1	14
498.894	1	13
499.064	1	17
499.234	1	7
499.404	1	2
499.574	1	10
499.745	1	14
499.915	1	9
500.085	1	19
500.255	1	15
500.426	1	15
500.596	1	4
500.766	1	14
500.936	1	21
501.106	1	16
501.277	1	9
501.447	1	14
501.617	1	11
501.787	1	21
501.958	1	9
502.128	1	9
502.298	1	19
502.468	1	14
502.638	1	20
502.809	1	14
502.979	1	23
503.149	1	11
503.319	1	17
503.489	1	4
503.660	1	10
503.830	1	17
504.000	1	11
504.170	1	15
504.340	1	5
504.511	1	16
504.681	1	-1
504.851	1	23
505.021	1	20
505.192	1	15
505.362	1	10
505.532	1	16
505.702	1	9
505.872	1	11
506.043	1	23
506.213	1	18
506.383	1	14
506.553	1	15
506.723	1	6
506.893	1	7
507.064	1	6
507.234	1	15
507.404	1	23
507.574	1	11
507.744	1	28
507.915	1	13
508.085	1	19
508.255	1	9
508.425	1	11
508.595	1	9
508.766	1	8
508.936	1	16
509.106	1	20
509.276	1	7
509.446	1	13
509.616	1	12
509.787	1	19
509.957	1	10
510.127	1	7
510.297	1	7
510.467	1	-1
510.638	1	22
510.808	1	17
510.978	1	13
511.148	1	30
511.318	1	5
511.488	1	19
511.659	1	5
511.829	1	13
511.999	1	12
512.169	1	4
512.339	1	14
512.509	1	10
512.680	1	7
512.850	1	14
513.020	1	14
513.190	1	8
513.360	1	8
513.530	1	11
513.700	1	7
513.871	1	15
514.041	1	9
514.211	1	16
514.381	1	21
514.551	1	4
514.721	1	19
514.892	1	12
515.062	1	12
515.232	1	12
515.402	1	14
515.572	1	9
515.742	1	6
515.912	1	1
516.083	1	9
516.253	1	19
516.423	1	5
516.593	1	13
516.763	1	12
516.933	1	5
517.104	1	5
517.274	1	6
517.444	1	12
517.614	1	9
517.784	1	15
517.954	1	24
518.124	1	7
518.294	1	18
518.465	1	11
518.635	1	13
518.805	1	13
518.975	1	5
519.145	1	11
519.315	1	7
519.485	1	9
519.656	1	14
519.826	1	9
519.996	1	9
520.166	1	17
520.336	1	4
520.506	1	-9
520.676	1	7
520.846	1	7
521.017	1	5
521.187	1	14
521.357	1	7
521.527	1	13
521.697	1	7
521.867	1	7
522.037	1	1
522.207	1	8
522.377	1	10
522.548	1	9
522.718	1	6
522.888	1	11
523.058	1	20
523.228	1	16
523.398	1	15
523.568	1	2
523.738	1	2
523.909	1	13
524.079	1	10
524.249	1	17
524.419	1	8
524.589	1	8
524.759	1	12
524.929	1	1
525.099	1	11
525.269	1	14
525.439	1	7
525.610	1	10
525.780	1	9
525.950	1	13
526.120	1	0
526.290	1	8
526.460	1	0
526.630	1	10
526.800	1	3
526.970	1	9
527.140	1	17
527.311	1	4
527.481	1	12
527.651	1	17
527.821	1	7
527.991	1	13
528.161	1	5
528.331	1	11
528.501	1	15
528.671	1	9
528.841	1	11
529.011	1	4
529.181	1	11
529.352	1	3
529.522	1	6
529.692	1	5
529.862	1	13
530.032	1	14
530.202	1	5
530.372	1	4
530.542	1	2
530.712	1	12
530.882	1	5
531.052	1	18
531.222	1	7
531.392	1	21
531.563	1	9
531.733	1	17
531.903	1	11
532.073	1	6
532.243	1	-1
532.413	1	13
532.583	1	-3
532.753	1	6
532.923	1	16
533.093	1	17
533.263	1	-2
533.433	1	17
533.603	1	12
533.773	1	5
533.943	1	4
534.113	1	6
534.284	1	-4
534.454	1	-1
534.624	1	7
534.794	1	3
534.964	1	6
535.134	1	13
535.304	1	10
535.474	1	1
535.644	1	9
535.814	1	12
535.984	1	-3
536.154	1	8
536.324	1	15
536.494	1	7
536.664	1	15
536.834	1	7
537.004	1	17
537.174	1	15
537.344	1	11
537.514	1	6
537.685	1	10
537.855	1	7
538.025	1	10
538.195	1	8
538.365	1	6
538.535	1	4
538.705	1	14
538.875	1	16
539.045	1	2
539.215	1	-1
539.385	1	9
539.555	1	13
539.725	1	7
539.895	1	15
540.065	1	2
540.235	1	14
540.405	1	9
540.575	1	6
540.745	1	-1
540.915	1	10
541.085	1	5
541.255	1	7
541.425	1	10
541.595	1	18
541.765	1	20
541.935	1	-7
542.105	1	6
542.275	1	1
542.445	1	-1
542.615	1	5
542.785	1	1
542.955	1	-7
543.125	1	2
543.295	1	7
543.465	1	16
543.635	1	9
543.805	1	11
543.975	1	4
544.145	1	0
544.315	1	1
544.485	1	9
544.655	1	16
544.825	1	3
544.995	1	10
545.165	1	1
545.335	1	8
545.505	1	15
545.675	1	-1
545.845	1	11
546.015	1	12
546.185	1	5
546.355	1	5
546.525	1	6
546.695	1	9
546.865	1	8
547.035	1	14
547.205	1	14
547.375	1	19
547.545	1	17
547.715	1	9
547.885	1	9
548.055	1	2
548.225	1	13
548.395	1	0
548.565	1	10
548.735	1	0
548.905	1	-3
549.075	1	1
549.245	1	6
549.415	1	12
549.585	1	17
549.755	1	13
549.925	1	6
550.095	1	10
550.265	1	6
550.435	1	-3
550.605	1	-3
550.775	1	0
550.945	1	10
551.115	1	2
551.285	1	9
551.455	1	8
551.625	1	-11
551.795	1	1
551.965	1	6
552.135	1	7
552.305	1	-6
552.475	1	17
552.645	1	9
552.815	1	6
552.985	1	-1
553.155	1	7
553.325	1	8
553.495	1	3
553.665	1	15
553.835	1	6
554.004	1	-13
554.174	1	2
554.344	1	4
554.514	1	7
554.684	1	2
554.854	1	6
555.024	1	7
555.194	1	11
555.364	1	-1
555.534	1	6
555.704	1	19
555.874	1	-4
556.044	1	10
556.214	1	11
556.384	1	7
556.554	1	6
556.724	1	8
556.894	1	-1
557.064	1	15
557.234	1	3
557.404	1	2
557.573	1	-3
557.743	1	11
557.913	1	-8
558.083	1	12
558.253	1	-1
558.423	1	4
558.593	1	15
558.763	1	21
558.933	1	5
559.103	1	19
559.273	1	11
559.443	1	13
559.613	1	7
559.783	1	11
559.953	1	18
560.122	1	-7
560.292	1	7
560.462	1	-7
560.632	1	14
560.802	1	8
560.972	1	-1
561.142	1	15
561.312	1	-3
561.482	1	5
561.652	1	3
561.822	1	-4
561.992	1	-8
562.162	1	6
562.331	1	13
562.501	1	5
562.671	1	16
562.841	1	2
563.011	1	0
563.181	1	5
563.351	1	2
563.521	1	13
563.691	1	4
563.861	1	-4
564.031	1	-2
564.201	1	4
564.370	1	5
564.540	1	4
564.710	1	6
564.880	1	5
565.050	1	-3
565.220	1	5
565.390	1	8
565.560	1	16
565.730	1	0
565.900	1	4
566.069	1	-1
566.239	1	13
566.409	1	6
566.579	1	0
566.749	1	8
566.919	1	6
567.089	1	17
567.259	1	5
567.429	1	-1
567.599	1	3
567.768	1	5
567.938	1	-4
568.108	1	14
568.278	1	8
568.448	1	8
568.618	1	5
568.788	1	-15
568.958	1	-2
569.128	1	-2
569.297	1	2
569.467	1	4
569.637	1	4
569.807	1	1
569.977	1	11
570.147	1	7
570.317	1	9
570.487	1	12
570.656	1	7
570.826	1	1
570.996	1	13
571.166	1	0
571.336	1	-3
571.506	1	5
571.676	1	1
571.846	1	-9
572.015	1	4
572.185	1	2
572.355	1	4
572.525	1	1
572.695	1	8
572.865	1	5
573.035	1	3
573.205	1	-1
573.374	1	9
573.544	1	6
573.714	1	3
573.884	1	3
574.054	1	-6
574.224	1	0
574.394	1	-3
574.563	1	10
574.733	1	15
574.903	1	5
575.073	1	12
575.243	1	2
575.413	1	-2
575.583	1	0
575.752	1	2
575.922	1	8
576.092	1	-2
576.262	1	7
576.432	1	17
576.602	1	11
576.772	1	-1
576.941	1	10
577.111	1	4
577.281	1	10
577.451	1	3
577.621	1	5
577.791	1	8
577.960	1	-1
578.130	1	3
578.300	1	7
578.470	1	7
578.640	1	-6
578.810	1	7
578.979	1	-6
579.149	1	-3
579.319	1	13
579.489	1	16
579.659	1	1
579.829	1	4
579.998	1	-4
580.168	1	6
580.338	1	5
580.508	1	8
580.678	1	11
580.848	1	-3
581.017	1	3
581.187	1	8
581.357	1	5
581.527	1	3
581.697	1	0
581.867	1	11
582.036	1	3
582.206	1	-1
582.376	1	11
582.546	1	22
582.716	1	0
582.885	1	-1
583.055	1	-1
583.225	1	-2
583.395	1	10
583.565	1	5
583.735	1	3
583.904	1	-1
584.074	1	-6
584.244	1	6
584.414	1	0
584.584	1	4
584.753	1	5
584.923	1	10
585.093	1	1
585.263	1	1
585.433	1	14
585.602	1	9
585.772	1	4
585.942	1	3
586.112	1	6
586.282	1	3
586.451	1	-6
586.621	1	-3
586.791	1	6
586.961	1	17
587.131	1	10
587.300	1	7
587.470	1	-2
587.640	1	-2
587.810	1	-8
587.980	1	2
588.149	1	4
588.319	1	4
588.489	1	2
588.659	1	15
588.829	1	1
588.998	1	1
589.168	1	3
589.338	1	-2
589.508	1	5
589.677	1	3
589.847	1	13
590.017	1	6
590.187	1	2
590.357	1	-9
590.526	1	19
590.696	1	7
590.866	1	0
591.036	1	-1
591.205	1	6
591.375	1	9
591.545	1	6
591.715	1	-2
591.885	1	-9
592.054	1	14
592.224	1	-3
592.394	1	-1
592.564	1	-2
592.733	1	7
592.903	1	5
593.073	1	8
593.243	1	-4
593.412	1	-6
593.582	1	8
593.752	1	2
593.922	1	6
594.091	1	-10
594.261	1	2
594.431	1	2
594.601	1	0
594.771	1	16
594.940	1	2
595.110	1	3
595.280	1	10
595.450	1	10
595.619	1	2
595.789	1	8
595.959	1	6
596.129	1	-4
596.298	1	14
596.468	1	11
596.638	1	15
596.808	1	-3
596.977	1	4
597.147	1	6
597.317	1	12
597.487	1	2
597.656	1	5
597.826	1	3
597.996	1	7
598.166	1	13
598.335	1	4
598.505	1	-2
598.675	1	2
598.844	1	6
599.014	1	7
599.184	1	4
599.354	1	-1
599.523	1	2
599.693	1	11
599.863	1	7
600.033	1	5
600.202	1	13
600.372	1	9
600.542	1	6
600.712	1	3
600.881	1	2
601.051	1	5
601.221	1	16
601.390	1	14
601.560	1	11
601.730	1	1
601.900	1	8
602.069	1	-13
602.239	1	5
602.409	1	4
602.578	1	17
602.748	1	4
602.918	1	13
603.088	1	14
603.257	1	10
603.427	1	11
603.597	1	6
603.767	1	4
603.936	1	11
604.106	1	10
604.276	1	1
604.445	1	1
604.615	1	1
604.785	1	6
604.954	1	7
605.124	1	9
605.294	1	8
605.464	1	-2
605.633	1	10
605.803	1	10
605.973	1	9
606.142	1	15
606.312	1	14
606.482	1	6
606.652	1	12
606.821	1	2
606.991	1	7
607.161	1	9
607.330	1	8
607.500	1	12
607.670	1	8
607.839	1	-11
608.009	1	7
608.179	1	-1
608.348	1	5
608.518	1	16
608.688	1	3
608.858	1	6
609.027	1	7
609.197	1	14
609.367	1	-5
609.536	1	12
609.706	1	5
609.876	1	1
610.045	1	9
610.215	1	8
610.385	1	4
610.554	1	3
610.724	1	8
610.894	1	-3
611.063	1	12
611.233	1	9
611.403	1	7
611.572	1	10
611.742	1	1
611.912	1	12
612.081	1	5
612.251	1	6
612.421	1	7
612.590	1	0
612.760	1	18
612.930	1	5
613.099	1	6
613.269	1	-6
613.439	1	4
613.608	1	3
613.778	1	1
613.948	1	23
614.117	1	7
614.287	1	4
614.457	1	6
614.626	1	14
614.796	1	4
614.966	1	3
615.135	1	8
615.305	1	16
615.475	1	6
615.644	1	4
615.814	1	2
615.984	1	15
616.153	1	10
616.323	1	2
616.493	1	6
616.662	1	-5
616.832	1	10
617.002	1	-5
617.171	1	9
617.341	1	1
617.511	1	4
617.680	1	-6
617.850	1	4
618.019	1	-1
618.189	1	4
618.359	1	5
618.528	1	3
618.698	1	5
618.868	1	0
619.037	1	17
619.207	1	11
619.377	1	6
619.546	1	3
619.716	1	5
619.885	1	10
620.055	1	6
620.225	1	16
620.394	1	8
620.564	1	-10
620.734	1	11
620.903	1	4
621.073	1	-1
621.242	1	1
621.412	1	11
621.582	1	15
621.751	1	16
621.921	1	14
622.091	1	-2
622.260	1	7
622.430	1	9
622.599	1	7
622.769	1	3
622.939	1	1
623.108	1	7
623.278	1	21
623.448	1	10
623.617	1	11
623.787	1	20
623.956	1	10
624.126	1	-4
624.296	1	17
624.465	1	8
624.635	1	14
624.804	1	10
624.974	1	2
625.144	1	23
625.313	1	2
625.483	1	12
625.652	1	7
625.822	1	5
625.992	1	11
626.161	1	3
626.331	1	1
626.501	1	0
626.670	1	1
626.840	1	9
627.009	1	6
627.179	1	-6
627.348	1	14
627.518	1	12
627.688	1	-2
627.857	1	1
628.027	1	4
628.196	1	-2
628.366	1	12
628.536	1	5
628.705	1	7
628.875	1	7
629.044	1	13
629.214	1	4
629.384	1	0
629.553	1	5
629.723	1	-8
629.892	1	-3
630.062	1	-2
630.232	1	6
630.401	1	6
630.571	1	16
630.740	1	3
630.910	1	10
631.079	1	0
631.249	1	8
631.419	1	13
631.588	1	14
631.758	1	7
631.927	1	10
632.097	1	10
632.266	1	0
632.436	1	6
632.606	1	0
632.775	1	15
632.945	1	-1
633.114	1	6
633.284	1	7
633.453	1	7
633.623	1	18
633.793	1	11
633.962	1	1
634.132	1	6
634.301	1	9
634.471	1	8
634.640	1	6
634.810	1	10
634.979	1	9
635.149	1	7
635.319	1	11
635.488	1	3
635.658	1	10
635.827	1	-7
635.997	1	2
636.166	1	3
636.336	1	1
636.505	1	9
636.675	1	-3
636.845	1	6
637.014	1	6
637.184	1	9
637.353	1	9
637.523	1	13
637.692	1	8
637.862	1	4
638.031	1	-5
638.201	1	1
638.370	1	14
638.540	1	12
638.710	1	13
638.879	1	16
639.049	1	5
639.218	1	24
639.388	1	-2
639.557	1	22
639.727	1	19
639.896	1	6
640.066	1	13
640.235	1	7
640.405	1	8
640.574	1	7
640.744	1	0
640.914	1	10
641.083	1	4
641.253	1	0
641.422	1	2
641.592	1	-4
641.761	1	6
641.931	1	9
642.100	1	11
642.270	1	7
642.439	1	-6
642.609	1	15
642.778	1	7
642.948	1	10
643.117	1	7
643.287	1	-3
643.456	1	9
643.626	1	9
643.795	1	13
643.965	1	16
644.134	1	14
644.304	1	15
644.473	1	2
644.643	1	9
644.812	1	9
644.982	1	7
645.151	1	12
645.321	1	2
645.490	1	16
645.660	1	3
645.829	1	-2
645.999	1	11
646.168	1	7
646.338	1	15
646.507	1	7
646.677	1	13
646.846	1	10
647.016	1	0
647.185	1	2
647.355	1	4
647.524	1	3
647.694	1	-1
647.863	1	8
648.033	1	7
648.202	1	6
648.372	1	-1
648.541	1	12
648.711	1	4
648.880	1	10
649.050	1	5
649.219	1	14
649.389	1	3
649.558	1	6
649.728	1	8
649.897	1	1
650.067	1	16
650.236	1	6
650.406	1	12
650.575	1	5
650.745	1	12
650.914	1	-2
651.084	1	9
651.253	1	-4
651.423	1	10
651.592	1	2
651.762	1	6
651.931	1	5
652.101	1	12
652.270	1	5
652.440	1	16
652.609	1	8
652.778	1	5
652.948	1	10
653.117	1	10
653.287	1	6
653.456	1	10
653.626	1	13
653.795	1	9
653.965	1	6
654.134	1	2
654.304	1	13
654.473	1	-2
654.643	1	12
654.812	1	9
654.982	1	10
655.151	1	3
655.320	1	14
655.490	1	3
655.659	1	16
655.829	1	3
655.998	1	12
656.168	1	8
656.337	1	7
656.507	1	-3
656.676	1	-2
656.846	1	12
657.015	1	10
657.184	1	4
657.354	1	18
657.523	1	6
657.693	1	2
657.862	1	-8
658.032	1	7
658.201	1	6
658.371	1	8
658.540	1	1
658.709	1	-6
658.879	1	13
659.048	1	6
659.218	1	4
659.387	1	9
659.557	1	11
659.726	1	5
659.895	1	4
660.065	1	5
660.234	1	7
660.404	1	14
660.573	1	8
660.743	1	8
660.912	1	1
661.081	1	-3
661.251	1	19
661.420	1	19
661.590	1	6
661.759	1	3
661.929	1	8
662.098	1	8
662.267	1	11
662.437	1	19
662.606	1	12
662.776	1	7
662.945	1	12
663.115	1	6
663.284	1	4
663.453	1	13
663.623	1	19
663.792	1	5
663.962	1	4
664.131	1	4
664.300	1	-8
664.470	1	8
664.639	1	4
664.809	1	4
664.978	1	8
665.148	1	-4
665.317	1	8
665.486	1	8
665.656	1	15
665.825	1	14
665.995	1	3
666.164	1	7
666.333	1	6
666.503	1	7
666.672	1	16
666.842	1	7
667.011	1	3
667.180	1	6
667.350	1	17
667.519	1	13
667.689	1	3
667.858	1	5
668.027	1	11
668.197	1	17
668.366	1	-2
668.536	1	4
668.705	1	12
668.874	1	4
669.044	1	14
669.213	1	9
669.382	1	17
669.552	1	16
669.721	1	10
669.891	1	-2
670.060	1	7
670.229	1	2
670.399	1	9
670.568	1	4
670.738	1	5
670.907	1	19
671.076	1	7
671.246	1	2
671.415	1	9
671.584	1	14
671.754	1	11
671.923	1	14
672.093	1	-1
672.262	1	6
672.431	1	9
672.601	1	6
672.770	1	7
672.939	1	12
673.109	1	13
673.278	1	7
673.448	1	6
673.617	1	6
673.786	1	2
