325.333	1	2
325.504	1	4
325.675	1	-1
325.846	1	5
326.017	1	-3
326.188	1	9
326.359	1	8
326.531	1	11
326.702	1	5
326.873	1	-2
327.044	1	19
327.215	1	2
327.386	1	4
327.557	1	16
327.728	1	7
327.899	1	6
328.070	1	1
328.241	1	8
328.412	1	2
328.583	1	0
328.754	1	-9
328.926	1	5
329.097	1	2
329.268	1	0
329.439	1	6
329.610	1	8
329.781	1	6
329.952	1	-4
330.123	1	2
330.294	1	-4
330.465	1	8
330.636	1	15
330.807	1	-2
330.978	1	4
331.149	1	9
331.320	1	12
331.492	1	2
331.663	1	5
331.834	1	-4
332.005	1	7
332.176	1	13
332.347	1	18
332.518	1	6
332.689	1	7
332.860	1	9
333.031	1	15
333.202	1	11
333.373	1	-3
333.544	1	-4
333.715	1	12
333.886	1	5
334.057	1	2
334.228	1	-4
334.399	1	17
334.570	1	-10
334.741	1	8
334.912	1	13
335.084	1	2
335.255	1	4
335.426	1	13
335.597	1	1
335.768	1	2
335.939	1	-3
336.110	1	17
336.281	1	8
336.452	1	3
336.623	1	-6
336.794	1	0
336.965	1	2
337.136	1	9
337.307	1	5
337.478	1	-4
337.649	1	-8
337.820	1	-6
337.991	1	14
338.162	1	1
338.333	1	7
338.504	1	6
338.675	1	11
338.846	1	3
339.017	1	13
339.188	1	21
339.359	1	13
339.530	1	6
339.701	1	-2
339.872	1	9
340.043	1	4
340.214	1	1
340.385	1	11
340.556	1	-2
340.727	1	9
340.898	1	11
341.069	1	-5
341.240	1	-5
341.411	1	26
341.582	1	10
341.753	1	-4
341.924	1	2
342.095	1	7
342.266	1	-7
342.437	1	-7
342.608	1	6
342.779	1	5
342.950	1	5
343.121	1	7
343.292	1	12
343.463	1	5
343.634	1	6
343.805	1	7
343.976	1	0
344.147	1	5
344.318	1	3
344.489	1	5
344.660	1	14
344.831	1	8
345.002	1	10
345.173	1	8
345.344	1	8
345.515	1	1
345.686	1	-3
345.857	1	10
346.028	1	2
346.199	1	8
346.370	1	8
346.541	1	0
346.712	1	2
346.883	1	7
347.054	1	5
347.225	1	0
347.396	1	1
347.567	1	-2
347.738	1	12
347.909	1	9
348.080	1	17
348.251	1	3
348.422	1	3
348.593	1	5
348.764	1	-3
348.935	1	1
349.106	1	14
349.277	1	8
349.448	1	4
349.619	1	9
349.790	1	8
349.961	1	11
350.132	1	6
350.303	1	3
350.474	1	7
350.645	1	12
350.816	1	0
350.987	1	11
351.157	1	14
351.328	1	-2
351.499	1	8
351.670	1	2
351.841	1	-4
352.012	1	7
352.183	1	4
352.354	1	2
352.525	1	13
352.696	1	17
352.867	1	8
353.038	1	3
353.209	1	4
353.380	1	7
353.551	1	-7
353.722	1	3
353.893	1	9
354.064	1	1
354.235	1	11
354.406	1	16
354.576	1	6
354.747	1	15
354.918	1	13
355.089	1	8
355.260	1	10
355.431	1	6
355.602	1	7
355.773	1	17
355.944	1	7
356.115	1	-5
356.286	1	12
356.457	1	6
356.628	1	-4
356.799	1	17
356.970	1	-1
357.141	1	9
357.311	1	-3
357.482	1	6
357.653	1	8
357.824	1	6
357.995	1	7
358.166	1	18
358.337	1	5
358.508	1	3
358.679	1	11
358.850	1	-6
359.021	1	8
359.192	1	3
359.363	1	-5
359.533	1	6
359.704	1	8
359.875	1	5
360.046	1	11
360.217	1	2
360.388	1	3
360.559	1	11
360.730	1	2
360.901	1	2
361.072	1	2
361.243	1	9
361.414	1	12
361.584	1	15
361.755	1	12
361.926	1	-5
362.097	1	6
362.268	1	7
362.439	1	15
362.610	1	3
362.781	1	12
362.952	1	0
363.123	1	-4
363.293	1	-1
363.464	1	15
363.635	1	9
363.806	1	8
363.977	1	-3
364.148	1	10
364.319	1	-4
364.490	1	6
364.661	1	4
364.832	1	11
365.002	1	-2
365.173	1	6
365.344	1	13
365.515	1	9
365.686	1	6
365.857	1	0
366.028	1	13
366.199	1	11
366.370	1	-3
366.540	1	-2
366.711	1	17
366.882	1	7
367.053	1	10
367.224	1	-3
367.395	1	14
367.566	1	15
367.737	1	19
367.908	1	0
368.078	1	9
368.249	1	9
368.420	1	0
368.591	1	5
368.762	1	-4
368.933	1	15
369.104	1	12
369.274	1	16
369.445	1	25
369.616	1	9
369.787	1	7
369.958	1	16
370.129	1	3
370.300	1	2
370.471	1	5
370.641	1	6
370.812	1	18
370.983	1	-1
371.154	1	13
371.325	1	14
371.496	1	6
371.667	1	5
371.837	1	3
372.008	1	15
372.179	1	8
372.350	1	16
372.521	1	7
372.692	1	7
372.863	1	12
373.033	1	15
373.204	1	16
373.375	1	-2
373.546	1	12
373.717	1	16
373.888	1	7
374.059	1	17
374.229	1	16
374.400	1	10
374.571	1	10
374.742	1	3
374.913	1	9
375.084	1	11
375.254	1	17
375.425	1	5
375.596	1	16
375.767	1	1
375.938	1	6
376.109	1	5
376.279	1	10
376.450	1	2
376.621	1	10
376.792	1	11
376.963	1	5
377.134	1	6
377.304	1	14
377.475	1	8
377.646	1	4
377.817	1	13
377.988	1	9
378.159	1	14
378.329	1	13
378.500	1	9
378.671	1	4
378.842	1	19
379.013	1	7
379.184	1	12
379.354	1	12
379.525	1	9
379.696	1	14
379.867	1	2
380.038	1	12
380.209	1	3
380.379	1	9
380.550	1	10
380.721	1	10
380.892	1	19
381.063	1	17
381.233	1	21
381.404	1	13
381.575	1	9
381.746	1	12
381.917	1	0
382.087	1	7
382.258	1	15
382.429	1	12
382.600	1	13
382.771	1	2
382.941	1	10
383.112	1	11
383.283	1	17
383.454	1	12
383.625	1	8
383.795	1	1
383.966	1	9
384.137	1	6
384.308	1	2
384.479	1	15
384.649	1	21
384.820	1	8
384.991	1	-3
385.162	1	9
385.333	1	13
385.503	1	16
385.674	1	25
385.845	1	12
386.016	1	2
386.187	1	10
386.357	1	-1
386.528	1	15
386.699	1	3
386.870	1	21
387.041	1	14
387.211	1	8
387.382	1	5
387.553	1	18
387.724	1	-2
387.894	1	14
388.065	1	24
388.236	1	14
388.407	1	11
388.578	1	12
388.748	1	8
388.919	1	22
389.090	1	17
389.261	1	24
389.431	1	17
389.602	1	10
389.773	1	4
389.944	1	15
390.114	1	19
390.285	1	8
390.456	1	6
390.627	1	3
390.798	1	16
390.968	1	13
391.139	1	9
391.310	1	18
391.481	1	15
391.651	1	15
391.822	1	18
391.993	1	17
392.164	1	-1
392.334	1	6
392.505	1	1
392.676	1	19
392.847	1	22
393.017	1	10
393.188	1	10
393.359	1	4
393.530	1	16
393.700	1	22
393.871	1	8
394.042	1	21
394.213	1	22
394.383	1	15
394.554	1	27
394.725	1	16
394.896	1	14
395.066	1	9
395.237	1	9
395.408	1	10
395.579	1	18
395.749	1	10
395.920	1	3
396.091	1	23
396.262	1	7
396.432	1	7
396.603	1	8
396.774	1	15
396.945	1	2
397.115	1	2
397.286	1	22
397.457	1	17
397.627	1	12
397.798	1	10
397.969	1	11
398.140	1	4
398.310	1	10
398.481	1	17
398.652	1	12
398.823	1	4
398.993	1	33
399.164	1	20
399.335	1	8
399.505	1	17
399.676	1	11
399.847	1	11
400.018	1	8
400.188	1	25
400.359	1	28
400.530	1	6
400.700	1	13
400.871	1	21
401.042	1	15
401.213	1	20
401.383	1	13
401.554	1	20
401.725	1	11
401.895	1	0
402.066	1	14
402.237	1	24
402.408	1	21
402.578	1	17
402.749	1	9
402.920	1	18
403.090	1	18
403.261	1	22
403.432	1	13
403.603	1	9
403.773	1	20
403.944	1	26
404.115	1	5
404.285	1	20
404.456	1	17
404.627	1	7
404.797	1	20
404.968	1	12
405.139	1	23
405.310	1	8
405.480	1	16
405.651	1	12
405.822	1	21
405.992	1	16
406.163	1	10
406.334	1	23
406.504	1	13
406.675	1	11
406.846	1	13
407.016	1	15
407.187	1	14
407.358	1	13
407.528	1	14
407.699	1	6
407.870	1	23
408.041	1	12
408.211	1	17
408.382	1	16
408.553	1	7
408.723	1	11
408.894	1	17
409.065	1	25
409.235	1	10
409.406	1	11
409.577	1	13
409.747	1	20
409.918	1	14
410.089	1	10
410.259	1	1
410.430	1	17
410.601	1	17
410.771	1	22
410.942	1	7
411.113	1	24
411.283	1	21
411.454	1	17
411.625	1	9
411.795	1	2
411.966	1	17
412.137	1	11
412.307	1	9
412.478	1	17
412.649	1	15
412.819	1	2
412.990	1	18
413.161	1	15
413.331	1	20
413.502	1	7
413.672	1	19
413.843	1	14
414.014	1	30
414.184	1	11
414.355	1	13
414.526	1	17
414.696	1	16
414.867	1	16
415.038	1	6
415.208	1	15
415.379	1	13
415.550	1	16
415.720	1	11
415.891	1	25
416.062	1	21
416.232	1	15
416.403	1	16
416.573	1	24
416.744	1	4
416.915	1	15
417.085	1	3
417.256	1	20
417.427	1	17
417.597	1	5
417.768	1	14
417.939	1	19
418.109	1	5
418.280	1	9
418.450	1	23
418.621	1	18
418.792	1	12
418.962	1	13
419.133	1	24
419.304	1	13
419.474	1	9
419.645	1	17
419.815	1	12
419.986	1	5
420.157	1	21
420.327	1	-3
420.498	1	15
420.669	1	21
420.839	1	23
421.010	1	19
421.180	1	7
421.351	1	21
421.522	1	27
421.692	1	22
421.863	1	18
422.033	1	36
422.204	1	17
422.375	1	13
422.545	1	11
422.716	1	20
422.886	1	30
423.057	1	3
423.228	1	19
423.398	1	21
423.569	1	17
423.740	1	2
423.910	1	24
424.081	1	7
424.251	1	13
424.422	1	13
424.593	1	18
424.763	1	18
424.934	1	19
425.104	1	7
425.275	1	14
425.445	1	31
425.616	1	22
425.787	1	20
425.957	1	16
426.128	1	20
426.298	1	4
426.469	1	9
426.640	1	15
426.810	1	20
426.981	1	13
427.151	1	7
427.322	1	2
427.493	1	16
427.663	1	7
427.834	1	15
428.004	1	15
428.175	1	21
428.345	1	24
428.516	1	13
428.687	1	12
428.857	1	6
429.028	1	6
429.198	1	15
429.369	1	12
429.540	1	14
429.710	1	19
429.881	1	26
430.051	1	8
430.222	1	18
430.392	1	13
430.563	1	18
430.734	1	16
430.904	1	14
431.075	1	4
431.245	1	13
431.416	1	9
431.586	1	6
431.757	1	23
431.927	1	14
432.098	1	22
432.269	1	22
432.439	1	10
432.610	1	20
432.780	1	16
432.951	1	17
433.121	1	19
433.292	1	25
433.462	1	19
433.633	1	19
433.804	1	8
433.974	1	16
434.145	1	14
434.315	1	9
434.486	1	9
434.656	1	10
434.827	1	17
434.997	1	23
435.168	1	9
435.339	1	24
435.509	1	10
435.680	1	9
435.850	1	13
436.021	1	15
436.191	1	19
436.362	1	21
436.532	1	26
436.703	1	24
436.873	1	12
437.044	1	15
437.214	1	20
437.385	1	17
437.556	1	12
437.726	1	15
437.897	1	5
438.067	1	19
438.238	1	16
438.408	1	22
438.579	1	17
438.749	1	-6
438.920	1	9
439.090	1	7
439.261	1	11
439.431	1	9
439.602	1	10
439.772	1	19
439.943	1	19
440.113	1	9
440.284	1	15
440.455	1	25
440.625	1	16
440.796	1	8
440.966	1	-2
441.137	1	11
441.307	1	8
441.478	1	18
441.648	1	6
441.819	1	11
441.989	1	6
442.160	1	20
442.330	1	25
442.501	1	12
442.671	1	15
442.842	1	27
443.012	1	7
443.183	1	14
443.353	1	25
443.524	1	16
443.694	1	17
443.865	1	15
444.035	1	15
444.206	1	9
444.376	1	25
444.547	1	15
444.717	1	24
444.888	1	5
445.058	1	26
445.229	1	21
445.399	1	16
445.570	1	7
445.740	1	20
445.911	1	20
446.081	1	22
446.252	1	6
446.422	1	20
446.593	1	14
446.763	1	19
446.934	1	22
447.104	1	6
447.275	1	21
447.445	1	16
447.616	1	9
447.786	1	16
447.957	1	17
448.127	1	31
448.298	1	22
448.468	1	16
448.639	1	6
448.809	1	6
448.979	1	26
449.150	1	13
449.320	1	22
449.491	1	22
449.661	1	22
449.832	1	23
450.002	1	18
450.173	1	13
450.343	1	9
450.514	1	18
450.684	1	21
450.855	1	23
451.025	1	14
451.196	1	18
451.366	1	6
451.537	1	12
451.707	1	19
451.878	1	19
452.048	1	22
452.218	1	12
452.389	1	15
452.559	1	18
452.730	1	19
452.900	1	21
453.071	1	12
453.241	1	8
453.412	1	6
453.582	1	5
453.753	1	8
453.923	1	28
454.093	1	22
454.264	1	9
454.434	1	10
454.605	1	12
454.775	1	18
454.946	1	5
455.116	1	6
455.287	1	19
455.457	1	12
455.628	1	16
455.798	1	8
455.968	1	10
456.139	1	11
456.309	1	23
456.480	1	23
456.650	1	26
456.821	1	20
456.991	1	16
457.161	1	13
457.332	1	13
457.502	1	26
457.673	1	17
457.843	1	14
458.014	1	16
458.184	1	14
458.355	1	22
458.525	1	21
458.695	1	13
458.866	1	23
459.036	1	13
459.207	1	23
459.377	1	15
459.548	1	9
459.718	1	6
459.888	1	18
460.059	1	18
460.229	1	14
460.400	1	13
460.570	1	21
460.740	1	12
460.911	1	19
461.081	1	19
461.252	1	1
461.422	1	13
461.593	1	22
461.763	1	25
461.933	1	18
462.104	1	11
462.274	1	9
462.445	1	13
462.615	1	18
462.785	1	5
462.956	1	13
463.126	1	15
463.297	1	12
463.467	1	13
463.638	1	13
463.808	1	12
463.978	1	21
464.149	1	7
464.319	1	15
464.490	1	15
464.660	1	13
464.830	1	5
465.001	1	8
465.171	1	4
465.342	1	18
465.512	1	12
465.682	1	18
465.853	1	-6
466.023	1	16
466.194	1	4
466.364	1	11
466.534	1	7
466.705	1	4
466.875	1	10
467.045	1	7
467.216	1	20
467.386	1	23
467.557	1	9
467.727	1	22
467.897	1	12
468.068	1	9
468.238	1	21
468.409	1	17
468.579	1	20
468.749	1	19
468.920	1	7
469.090	1	9
469.260	1	13
469.431	1	17
469.601	1	9
469.772	1	-7
469.942	1	17
470.112	1	9
470.283	1	25
470.453	1	20
470.623	1	15
470.794	1	11
470.964	1	10
471.135	1	18
471.305	1	16
471.475	1	10
471.646	1	7
471.816	1	12
471.986	1	21
472.157	1	6
472.327	1	19
472.497	1	24
472.668	1	17
472.838	1	17
473.009	1	4
473.179	1	10
473.349	1	10
473.520	1	14
473.690	1	26
473.860	1	19
474.031	1	9
474.201	1	12
474.371	1	11
474.542	1	18
474.712	1	17
474.882	1	1
475.053	1	15
475.223	1	4
475.394	1	7
475.564	1	5
475.734	1	13
475.905	1	11
476.075	1	5
476.245	1	16
476.416	1	0
476.586	1	10
476.756	1	18
476.927	1	8
477.097	1	1
477.267	1	16
477.438	1	13
477.608	1	10
477.778	1	8
477.949	1	11
478.119	1	10
478.289	1	4
478.460	1	8
478.630	1	22
478.800	1	23
478.971	1	16
479.141	1	9
479.311	1	13
479.482	1	18
479.652	1	9
479.822	1	9
479.993	1	2
480.163	1	13
480.333	1	9
480.504	1	13
480.674	1	15
480.844	1	9
481.015	1	9
481.185	1	4
481.355	1	9
481.525	1	16
481.696	1	6
481.866	1	17
482.036	1	15
482.207	1	8
482.377	1	23
482.547	1	-6
482.718	1	11
482.888	1	14
483.058	1	1
483.229	1	18
483.399	1	13
483.569	1	7
483.740	1	13
483.910	1	8
484.080	1	2
484.250	1	4
484.421	1	7
484.591	1	9
484.761	1	11
484.932	1	11
485.102	1	16
485.272	1	5
485.443	1	9
485.613	1	8
485.783	1	14
485.953	1	11
486.124	1	7
486.294	1	3
486.464	1	0
486.635	1	12
486.805	1	3
486.975	1	4
487.146	1	9
487.316	1	7
487.486	1	14
487.656	1	3
487.827	1	4
487.997	1	13
488.167	1	9
488.338	1	0
488.508	1	0
488.678	1	9
488.848	1	7
489.019	1	7
489.189	1	-5
489.359	1	10
489.529	1	13
489.700	1	17
489.870	1	-4
490.040	1	5
490.211	1	8
490.381	1	7
490.551	1	0
490.721	1	15
490.892	1	5
491.062	1	-3
491.232	1	0
491.402	1	8
491.573	1	4
491.743	1	14
491.913	1	5
492.084	1	20
492.254	1	8
492.424	1	6
492.594	1	14
492.765	1	5
492.935	1	8
493.105	1	14
493.275	1	10
493.446	1	0
493.616	1	11
493.786	1	6
493.956	1	6
494.127	1	14
494.297	1	6
494.467	1	4
494.637	1	17
494.808	1	5
494.978	1	5
495.148	1	3
495.318	1	11
495.489	1	-2
495.659	1	2
495.829	1	4
495.999	1	6
496.170	1	1
496.340	1	12
496.510	1	9
496.680	1	10
496.851	1	7
497.021	1	2
497.191	1	11
497.361	1	3
497.532	1	3
497.702	1	4
497.872	1	21
498.042	1	14
498.213	1	14
498.383	1	9
498.553	1	3
498.723	1	15
498.894	1	6
499.064	1	10
499.234	1	9
499.404	1	-3
499.574	1	7
499.745	1	3
499.915	1	13
500.085	1	9
500.255	1	11
500.426	1	14
500.596	1	1
500.766	1	6
500.936	1	16
501.106	1	6
501.277	1	-1
501.447	1	6
501.617	1	10
501.787	1	16
501.958	1	4
502.128	1	-4
502.298	1	5
502.468	1	4
502.638	1	4
502.809	1	4
502.979	1	6
503.149	1	1
503.319	1	1
503.489	1	-2
503.660	1	3
503.830	1	10
504.000	1	8
504.170	1	-1
504.340	1	-2
504.511	1	13
504.681	1	-6
504.851	1	9
505.021	1	10
505.192	1	8
505.362	1	7
505.532	1	14
505.702	1	3
505.872	1	3
506.043	1	6
506.213	1	19
506.383	1	3
506.553	1	9
506.723	1	8
506.893	1	3
507.064	1	-3
507.234	1	-3
507.404	1	5
507.574	1	6
507.744	1	6
507.915	1	12
508.085	1	9
508.255	1	5
508.425	1	1
508.595	1	5
508.766	1	5
508.936	1	6
509.106	1	1
509.276	1	5
509.446	1	3
509.616	1	-1
509.787	1	10
509.957	1	3
510.127	1	4
510.297	1	-1
510.467	1	-5
510.638	1	6
510.808	1	7
510.978	1	0
511.148	1	19
511.318	1	7
511.488	1	9
511.659	1	-6
511.829	1	12
511.999	1	3
512.169	1	0
512.339	1	1
512.509	1	10
512.680	1	5
512.850	1	11
513.020	1	4
513.190	1	2
513.360	1	4
513.530	1	14
513.700	1	18
513.871	1	8
514.041	1	0
514.211	1	11
514.381	1	16
514.551	1	4
514.721	1	6
514.892	1	8
515.062	1	6
515.232	1	-6
515.402	1	5
515.572	1	-2
515.742	1	-3
515.912	1	-5
516.083	1	8
516.253	1	6
516.423	1	-9
516.593	1	10
516.763	1	5
516.933	1	-9
517.104	1	-2
517.274	1	-1
517.444	1	-8
517.614	1	2
517.784	1	3
517.954	1	10
518.124	1	-1
518.294	1	12
518.465	1	4
518.635	1	9
518.805	1	21
518.975	1	2
519.145	1	11
519.315	1	-8
519.485	1	-4
519.656	1	5
519.826	1	10
519.996	1	-2
520.166	1	11
520.336	1	-3
520.506	1	-12
520.676	1	6
520.846	1	-3
521.017	1	0
521.187	1	11
521.357	1	-1
521.527	1	8
521.697	1	10
521.867	1	8
522.037	1	4
522.207	1	4
522.377	1	10
522.548	1	8
522.718	1	1
522.888	1	13
523.058	1	8
523.228	1	10
523.398	1	5
523.568	1	16
523.738	1	-4
523.909	1	5
524.079	1	0
524.249	1	12
524.419	1	-5
524.589	1	1
524.759	1	8
524.929	1	0
525.099	1	4
525.269	1	6
525.439	1	3
525.610	1	7
525.780	1	-1
525.950	1	6
526.120	1	-2
526.290	1	1
526.460	1	3
526.630	1	7
526.800	1	12
526.970	1	5
527.140	1	1
527.311	1	-6
527.481	1	14
527.651	1	3
527.821	1	-7
527.991	1	1
528.161	1	2
528.331	1	14
528.501	1	13
528.671	1	5
528.841	1	11
529.011	1	-8
529.181	1	9
529.352	1	1
529.522	1	-2
529.692	1	7
529.862	1	11
530.032	1	-1
530.202	1	1
530.372	1	14
530.542	1	-2
530.712	1	0
530.882	1	1
531.052	1	10
531.222	1	-1
531.392	1	13
531.563	1	2
531.733	1	13
531.903	1	9
532.073	1	-2
532.243	1	6
532.413	1	8
532.583	1	7
532.753	1	3
532.923	1	15
533.093	1	20
533.263	1	-9
533.433	1	16
533.603	1	-1
533.773	1	1
533.943	1	-2
534.113	1	2
534.284	1	4
534.454	1	5
534.624	1	8
534.794	1	6
534.964	1	10
535.134	1	8
535.304	1	5
535.474	1	-6
535.644	1	9
535.814	1	4
535.984	1	6
536.154	1	5
536.324	1	14
536.494	1	12
536.664	1	1
536.834	1	10
537.004	1	1
537.174	1	5
537.344	1	12
537.514	1	8
537.685	1	-1
537.855	1	3
538.025	1	14
538.195	1	6
538.365	1	1
538.535	1	-2
538.705	1	11
538.875	1	4
539.045	1	5
539.215	1	-9
539.385	1	4
539.555	1	7
539.725	1	10
539.895	1	12
540.065	1	1
540.235	1	0
540.405	1	9
540.575	1	-4
540.745	1	-4
540.915	1	4
541.085	1	-2
541.255	1	0
541.425	1	9
541.595	1	10
541.765	1	11
541.935	1	-8
542.105	1	8
542.275	1	5
542.445	1	-5
542.615	1	2
542.785	1	-1
542.955	1	-11
543.125	1	1
543.295	1	-1
543.465	1	12
543.635	1	7
543.805	1	9
543.975	1	-1
544.145	1	5
544.315	1	-6
544.485	1	-5
544.655	1	7
544.825	1	6
544.995	1	-5
545.165	1	10
545.335	1	6
545.505	1	9
545.675	1	-13
545.845	1	2
546.015	1	15
546.185	1	-2
546.355	1	2
546.525	1	4
546.695	1	-3
546.865	1	13
547.035	1	5
547.205	1	9
547.375	1	-1
547.545	1	7
547.715	1	5
547.885	1	12
548.055	1	-12
548.225	1	16
548.395	1	-4
548.565	1	10
548.735	1	3
548.905	1	3
549.075	1	6
549.245	1	3
549.415	1	3
549.585	1	12
549.755	1	6
549.925	1	8
550.095	1	2
550.265	1	-6
550.435	1	-4
550.605	1	-3
550.775	1	-1
550.945	1	13
551.115	1	2
551.285	1	-3
551.455	1	7
551.625	1	-5
551.795	1	-12
551.965	1	11
552.135	1	-1
552.305	1	-7
552.475	1	4
552.645	1	9
552.815	1	10
552.985	1	-4
553.155	1	5
553.325	1	7
553.495	1	9
553.665	1	0
553.835	1	5
554.004	1	2
554.174	1	0
554.344	1	9
554.514	1	-1
554.684	1	3
554.854	1	-2
555.024	1	-1
555.194	1	4
555.364	1	7
555.534	1	10
555.704	1	14
555.874	1	-7
556.044	1	7
556.214	1	1
556.384	1	8
556.554	1	6
556.724	1	4
556.894	1	-5
557.064	1	8
557.234	1	9
557.404	1	3
557.573	1	-11
557.743	1	-2
557.913	1	-5
558.083	1	12
558.253	1	-5
558.423	1	1
558.593	1	14
558.763	1	2
558.933	1	-4
559.103	1	14
559.273	1	11
559.443	1	4
559.613	1	9
559.783	1	10
559.953	1	10
560.122	1	3
560.292	1	2
560.462	1	4
560.632	1	7
560.802	1	-1
560.972	1	10
561.142	1	12
561.312	1	3
561.482	1	13
561.652	1	0
561.822	1	-5
561.992	1	-6
562.162	1	3
562.331	1	4
562.501	1	-6
562.671	1	15
562.841	1	10
563.011	1	-9
563.181	1	5
563.351	1	-3
563.521	1	5
563.691	1	3
563.861	1	7
564.031	1	-5
564.201	1	-1
564.370	1	4
564.540	1	-3
564.710	1	0
564.880	1	0
565.050	1	2
565.220	1	10
565.390	1	4
565.560	1	0
565.730	1	4
565.900	1	-8
566.069	1	-11
566.239	1	4
566.409	1	7
566.579	1	-6
566.749	1	5
566.919	1	2
567.089	1	6
567.259	1	6
567.429	1	4
567.599	1	2
567.768	1	5
567.938	1	-3
568.108	1	2
568.278	1	3
568.448	1	2
568.618	1	3
568.788	1	-13
568.958	1	-10
569.128	1	-4
569.297	1	-3
569.467	1	9
569.637	1	0
569.807	1	8
569.977	1	11
570.147	1	5
570.317	1	4
570.487	1	15
570.656	1	1
570.826	1	-3
570.996	1	7
571.166	1	-2
571.336	1	-4
571.506	1	8
571.676	1	-1
571.846	1	0
572.015	1	7
572.185	1	-1
572.355	1	3
572.525	1	-1
572.695	1	5
572.865	1	11
573.035	1	-10
573.205	1	-4
573.374	1	12
573.544	1	-5
573.714	1	-3
573.884	1	9
574.054	1	-5
574.224	1	4
574.394	1	-1
574.563	1	2
574.733	1	4
574.903	1	-2
575.073	1	-1
575.243	1	9
575.413	1	4
575.583	1	2
575.752	1	4
575.922	1	2
576.092	1	-5
576.262	1	5
576.432	1	7
576.602	1	0
576.772	1	-4
576.941	1	11
577.111	1	1
577.281	1	12
577.451	1	2
577.621	1	-1
577.791	1	11
577.960	1	-2
578.130	1	0
578.300	1	6
578.470	1	9
578.640	1	0
578.810	1	1
578.979	1	-7
579.149	1	-2
579.319	1	-1
579.489	1	5
579.659	1	-1
579.829	1	13
579.998	1	-7
580.168	1	-3
580.338	1	13
580.508	1	3
580.678	1	9
580.848	1	-4
581.017	1	3
581.187	1	1
581.357	1	-1
581.527	1	-3
581.697	1	-10
581.867	1	6
582.036	1	9
582.206	1	8
582.376	1	1
582.546	1	20
582.716	1	1
582.885	1	-1
583.055	1	-6
583.225	1	3
583.395	1	7
583.565	1	3
583.735	1	1
583.904	1	-4
584.074	1	5
584.244	1	8
584.414	1	-2
584.584	1	7
584.753	1	7
584.923	1	1
585.093	1	-5
585.263	1	4
585.433	1	7
585.602	1	9
585.772	1	3
585.942	1	1
586.112	1	0
586.282	1	9
586.451	1	-5
586.621	1	6
586.791	1	12
586.961	1	11
587.131	1	4
587.300	1	15
587.470	1	0
587.640	1	-6
587.810	1	-12
587.980	1	-7
588.149	1	3
588.319	1	-1
588.489	1	-2
588.659	1	9
588.829	1	-15
588.998	1	2
589.168	1	3
589.338	1	1
589.508	1	3
589.677	1	3
589.847	1	5
590.017	1	2
590.187	1	4
590.357	1	-3
590.526	1	13
590.696	1	3
590.866	1	0
591.036	1	1
591.205	1	7
591.375	1	-1
591.545	1	9
591.715	1	-6
591.885	1	8
592.054	1	-1
592.224	1	6
592.394	1	-4
592.564	1	3
592.733	1	-2
592.903	1	-3
593.073	1	-8
593.243	1	4
593.412	1	-1
593.582	1	0
593.752	1	4
593.922	1	6
594.091	1	-8
594.261	1	-6
594.431	1	10
594.601	1	-2
594.771	1	15
594.940	1	14
595.110	1	3
595.280	1	11
595.450	1	7
595.619	1	3
595.789	1	15
595.959	1	2
596.129	1	0
596.298	1	8
596.468	1	8
596.638	1	1
596.808	1	1
596.977	1	2
597.147	1	8
597.317	1	2
597.487	1	7
597.656	1	-3
597.826	1	-4
597.996	1	-8
598.166	1	7
598.335	1	0
598.505	1	-9
598.675	1	-5
598.844	1	-5
599.014	1	-5
599.184	1	7
599.354	1	2
599.523	1	-3
599.693	1	12
599.863	1	13
600.033	1	0
600.202	1	5
600.372	1	3
600.542	1	8
600.712	1	-1
600.881	1	3
601.051	1	6
601.221	1	8
601.390	1	13
601.560	1	4
601.730	1	12
601.900	1	10
602.069	1	-15
602.239	1	5
602.409	1	0
602.578	1	9
602.748	1	-8
602.918	1	14
603.088	1	12
603.257	1	-6
603.427	1	12
603.597	1	0
603.767	1	3
603.936	1	2
604.106	1	5
604.276	1	2
604.445	1	-6
604.615	1	-3
604.785	1	11
604.954	1	1
605.124	1	2
605.294	1	9
605.464	1	4
605.633	1	8
605.803	1	11
605.973	1	6
606.142	1	11
606.312	1	9
606.482	1	4
606.652	1	11
606.821	1	1
606.991	1	6
607.161	1	12
607.330	1	6
607.500	1	9
607.670	1	9
607.839	1	-2
608.009	1	3
608.179	1	-3
608.348	1	7
608.518	1	-4
608.688	1	5
608.858	1	6
609.027	1	1
609.197	1	1
609.367	1	-4
609.536	1	10
609.706	1	-7
609.876	1	1
610.045	1	9
610.215	1	4
610.385	1	6
610.554	1	6
610.724	1	11
610.894	1	-3
611.063	1	7
611.233	1	2
611.403	1	5
611.572	1	-1
611.742	1	-3
611.912	1	2
612.081	1	5
612.251	1	10
612.421	1	2
612.590	1	0
612.760	1	9
612.930	1	-1
613.099	1	7
613.269	1	7
613.439	1	2
613.608	1	0
613.778	1	-9
613.948	1	5
614.117	1	2
614.287	1	0
614.457	1	9
614.626	1	17
614.796	1	3
614.966	1	4
615.135	1	6
615.305	1	10
615.475	1	-5
615.644	1	8
615.814	1	3
615.984	1	3
616.153	1	11
616.323	1	6
616.493	1	19
616.662	1	-7
616.832	1	5
617.002	1	-10
617.171	1	10
617.341	1	-6
617.511	1	-5
617.680	1	5
617.850	1	-3
618.019	1	11
618.189	1	-7
618.359	1	0
618.528	1	-5
618.698	1	5
618.868	1	-2
619.037	1	13
619.207	1	12
619.377	1	6
619.546	1	1
619.716	1	2
619.885	1	0
620.055	1	22
620.225	1	7
620.394	1	4
620.564	1	-4
620.734	1	-1
620.903	1	8
621.073	1	3
621.242	1	8
621.412	1	6
621.582	1	4
621.751	1	6
621.921	1	5
622.091	1	0
622.260	1	1
622.430	1	17
622.599	1	5
622.769	1	3
622.939	1	14
623.108	1	13
623.278	1	17
623.448	1	13
623.617	1	-2
623.787	1	14
623.956	1	1
624.126	1	0
624.296	1	1
624.465	1	7
624.635	1	5
624.804	1	0
624.974	1	2
625.144	1	18
625.313	1	10
625.483	1	10
625.652	1	6
625.822	1	4
625.992	1	14
626.161	1	2
626.331	1	1
626.501	1	8
626.670	1	5
626.840	1	4
627.009	1	6
627.179	1	-9
627.348	1	14
627.518	1	11
627.688	1	16
627.857	1	1
628.027	1	-2
628.196	1	3
628.366	1	3
628.536	1	10
628.705	1	4
628.875	1	10
629.044	1	8
629.214	1	8
629.384	1	3
629.553	1	7
629.723	1	1
629.892	1	-1
630.062	1	-12
630.232	1	9
630.401	1	-4
630.571	1	6
630.740	1	-3
630.910	1	7
631.079	1	4
631.249	1	12
631.419	1	7
631.588	1	5
631.758	1	-4
631.927	1	6
632.097	1	-3
632.266	1	-4
632.436	1	14
632.606	1	-4
632.775	1	15
632.945	1	-7
633.114	1	-3
633.284	1	-2
633.453	1	0
633.623	1	10
633.793	1	0
633.962	1	-4
634.132	1	4
634.301	1	5
634.471	1	-7
634.640	1	10
634.810	1	-2
634.979	1	6
635.149	1	-6
635.319	1	9
635.488	1	1
635.658	1	5
635.827	1	-1
635.997	1	14
636.166	1	13
636.336	1	7
636.505	1	0
636.675	1	2
636.845	1	1
637.014	1	6
637.184	1	6
637.353	1	1
637.523	1	6
637.692	1	8
637.862	1	5
638.031	1	1
638.201	1	-2
638.370	1	13
638.540	1	-2
638.710	1	12
638.879	1	15
639.049	1	-8
639.218	1	21
639.388	1	-4
639.557	1	4
639.727	1	9
639.896	1	5
640.066	1	13
640.235	1	3
640.405	1	16
640.574	1	-2
640.744	1	1
640.914	1	5
641.083	1	-5
641.253	1	1
641.422	1	3
641.592	1	-4
641.761	1	-3
641.931	1	1
642.100	1	10
642.270	1	-2
642.439	1	0
642.609	1	13
642.778	1	13
642.948	1	-1
643.117	1	4
643.287	1	5
643.456	1	-1
643.626	1	7
643.795	1	13
643.965	1	7
644.134	1	5
644.304	1	10
644.473	1	7
644.643	1	-6
644.812	1	-5
644.982	1	0
645.151	1	15
645.321	1	3
645.490	1	10
645.660	1	2
645.829	1	1
645.999	1	8
646.168	1	8
646.338	1	13
646.507	1	1
646.677	1	11
646.846	1	4
647.016	1	7
647.185	1	-4
647.355	1	8
647.524	1	-6
647.694	1	4
647.863	1	6
648.033	1	6
648.202	1	-3
648.372	1	-4
648.541	1	0
648.711	1	9
648.880	1	0
649.050	1	7
649.219	1	13
649.389	1	-6
649.558	1	10
649.728	1	5
649.897	1	-6
650.067	1	6
650.236	1	-4
650.406	1	7
650.575	1	10
650.745	1	8
650.914	1	7
651.084	1	2
651.253	1	1
651.423	1	1
651.592	1	1
651.762	1	-4
651.931	1	1
652.101	1	14
652.270	1	-5
652.440	1	4
652.609	1	1
652.778	1	8
652.948	1	2
653.117	1	1
653.287	1	7
653.456	1	-1
653.626	1	9
653.795	1	-9
653.965	1	-2
654.134	1	-6
654.304	1	7
654.473	1	-2
654.643	1	5
654.812	1	10
654.982	1	8
655.151	1	5
655.320	1	6
655.490	1	7
655.659	1	10
655.829	1	6
655.998	1	-7
656.168	1	1
656.337	1	-6
656.507	1	-13
656.676	1	3
656.846	1	12
657.015	1	0
657.184	1	-8
657.354	1	4
657.523	1	-1
657.693	1	-8
657.862	1	5
658.032	1	8
658.201	1	6
658.371	1	-7
658.540	1	9
658.709	1	1
658.879	1	8
659.048	1	-5
659.218	1	-3
659.387	1	5
659.557	1	-1
659.726	1	3
659.895	1	3
660.065	1	9
660.234	1	3
660.404	1	10
660.573	1	-8
660.743	1	-1
660.912	1	-10
661.081	1	-3
661.251	1	6
661.420	1	4
661.590	1	10
661.759	1	4
661.929	1	6
662.098	1	9
662.267	1	0
662.437	1	3
662.606	1	-2
662.776	1	-14
662.945	1	8
663.115	1	9
663.284	1	5
663.453	1	15
663.623	1	14
663.792	1	7
663.962	1	-5
664.131	1	7
664.300	1	-15
664.470	1	10
664.639	1	6
664.809	1	11
664.978	1	3
665.148	1	-2
665.317	1	4
665.486	1	4
665.656	1	10
665.825	1	6
665.995	1	-4
666.164	1	5
666.333	1	1
666.503	1	4
666.672	1	2
666.842	1	2
667.011	1	0
667.180	1	10
667.350	1	8
667.519	1	-5
667.689	1	2
667.858	1	3
668.027	1	1
668.197	1	13
668.366	1	-7
668.536	1	-2
668.705	1	5
668.874	1	9
669.044	1	4
669.213	1	10
669.382	1	3
669.552	1	8
669.721	1	1
669.891	1	-2
670.060	1	1
670.229	1	1
670.399	1	1
670.568	1	-3
670.738	1	7
670.907	1	5
671.076	1	1
671.246	1	0
671.415	1	10
671.584	1	0
671.754	1	3
671.923	1	13
672.093	1	0
672.262	1	3
672.431	1	13
672.601	1	8
672.770	1	0
672.939	1	1
673.109	1	15
673.278	1	7
673.448	1	5
673.617	1	8
673.786	1	10
