325.333	1	3
325.504	1	-2
325.675	1	-5
325.846	1	2
326.017	1	3
326.188	1	-2
326.359	1	1
326.531	1	14
326.702	1	1
326.873	1	5
327.044	1	0
327.215	1	-4
327.386	1	1
327.557	1	0
327.728	1	8
327.899	1	0
328.070	1	7
328.241	1	3
328.412	1	-7
328.583	1	1
328.754	1	-10
328.926	1	0
329.097	1	10
329.268	1	-7
329.439	1	-5
329.610	1	1
329.781	1	8
329.952	1	4
330.123	1	-7
330.294	1	-3
330.465	1	-3
330.636	1	18
330.807	1	4
330.978	1	-3
331.149	1	-4
331.320	1	4
331.492	1	-6
331.663	1	1
331.834	1	-4
332.005	1	7
332.176	1	10
332.347	1	12
332.518	1	6
332.689	1	1
332.860	1	2
333.031	1	4
333.202	1	5
333.373	1	3
333.544	1	3
333.715	1	-1
333.886	1	6
334.057	1	-7
334.228	1	-3
334.399	1	5
334.570	1	7
334.741	1	1
334.912	1	4
335.084	1	-8
335.255	1	7
335.426	1	6
335.597	1	3
335.768	1	-9
335.939	1	1
336.110	1	11
336.281	1	-7
336.452	1	4
336.623	1	-3
336.794	1	-6
336.965	1	-3
337.136	1	9
337.307	1	4
337.478	1	2
337.649	1	-14
337.820	1	-4
337.991	1	8
338.162	1	7
338.333	1	11
338.504	1	7
338.675	1	4
338.846	1	5
339.017	1	17
339.188	1	19
339.359	1	6
339.530	1	2
339.701	1	-3
339.872	1	-2
340.043	1	-6
340.214	1	1
340.385	1	12
340.556	1	-9
340.727	1	5
340.898	1	6
341.069	1	-1
341.240	1	-8
341.411	1	11
341.582	1	5
341.753	1	-2
341.924	1	0
342.095	1	15
342.266	1	-2
342.437	1	-11
342.608	1	3
342.779	1	0
342.950	1	2
343.121	1	-2
343.292	1	4
343.463	1	11
343.634	1	4
343.805	1	1
343.976	1	-6
344.147	1	0
344.318	1	13
344.489	1	9
344.660	1	-1
344.831	1	2
345.002	1	5
345.173	1	7
345.344	1	-6
345.515	1	6
345.686	1	3
345.857	1	0
346.028	1	-7
346.199	1	13
346.370	1	2
346.541	1	2
346.712	1	-5
346.883	1	7
347.054	1	-1
347.225	1	-9
347.396	1	-12
347.567	1	-7
347.738	1	7
347.909	1	8
348.080	1	8
348.251	1	-3
348.422	1	-8
348.593	1	8
348.764	1	0
348.935	1	-2
349.106	1	-1
349.277	1	-3
349.448	1	7
349.619	1	4
349.790	1	9
349.961	1	3
350.132	1	5
350.303	1	6
350.474	1	2
350.645	1	21
350.816	1	2
350.987	1	7
351.157	1	15
351.328	1	5
351.499	1	7
351.670	1	3
351.841	1	-3
352.012	1	9
352.183	1	6
352.354	1	0
352.525	1	8
352.696	1	-5
352.867	1	2
353.038	1	2
353.209	1	-5
353.380	1	5
353.551	1	1
353.722	1	8
353.893	1	3
354.064	1	3
354.235	1	9
354.406	1	10
354.576	1	-1
354.747	1	10
354.918	1	15
355.089	1	1
355.260	1	5
355.431	1	1
355.602	1	4
355.773	1	5
355.944	1	6
356.115	1	-8
356.286	1	3
356.457	1	3
356.628	1	-6
356.799	1	-2
356.970	1	6
357.141	1	6
357.311	1	-1
357.482	1	-5
357.653	1	2
357.824	1	6
357.995	1	4
358.166	1	4
358.337	1	-4
358.508	1	-11
358.679	1	-3
358.850	1	4
359.021	1	-5
359.192	1	10
359.363	1	-7
359.533	1	-5
359.704	1	2
359.875	1	-5
360.046	1	2
360.217	1	-11
360.388	1	-6
360.559	1	-2
360.730	1	1
360.901	1	-2
361.072	1	1
361.243	1	-2
361.414	1	6
361.584	1	12
361.755	1	1
361.926	1	1
362.097	1	-5
362.268	1	7
362.439	1	8
362.610	1	-2
362.781	1	11
362.952	1	-5
363.123	1	-3
363.293	1	-5
363.464	1	7
363.635	1	12
363.806	1	7
363.977	1	2
364.148	1	4
364.319	1	-10
364.490	1	3
364.661	1	6
364.832	1	5
365.002	1	0
365.173	1	-16
365.344	1	6
365.515	1	12
365.686	1	-5
365.857	1	11
366.028	1	-7
366.199	1	7
366.370	1	-1
366.540	1	-1
366.711	1	6
366.882	1	0
367.053	1	2
367.224	1	-1
367.395	1	0
367.566	1	5
367.737	1	-1
367.908	1	-6
368.078	1	-5
368.249	1	12
368.420	1	7
368.591	1	2
368.762	1	-14
368.933	1	9
369.104	1	5
369.274	1	6
369.445	1	11
369.616	1	-7
369.787	1	-7
369.958	1	7
370.129	1	1
370.300	1	-4
370.471	1	-4
370.641	1	-3
370.812	1	10
370.983	1	-3
371.154	1	9
371.325	1	-1
371.496	1	2
371.667	1	3
371.837	1	-6
372.008	1	16
372.179	1	0
372.350	1	10
372.521	1	7
372.692	1	1
372.863	1	0
373.033	1	11
373.204	1	-1
373.375	1	1
373.546	1	8
373.717	1	1
373.888	1	9
374.059	1	4
374.229	1	5
374.400	1	2
374.571	1	5
374.742	1	1
374.913	1	-1
375.084	1	12
375.254	1	6
375.425	1	0
375.596	1	10
375.767	1	0
375.938	1	6
376.109	1	-9
376.279	1	8
376.450	1	2
376.621	1	3
376.792	1	11
376.963	1	6
377.134	1	-6
377.304	1	4
377.475	1	-2
377.646	1	2
377.817	1	4
377.988	1	-4
378.159	1	4
378.329	1	11
378.500	1	2
378.671	1	-6
378.842	1	8
379.013	1	3
379.184	1	6
379.354	1	8
379.525	1	-6
379.696	1	16
379.867	1	-8
380.038	1	-3
380.209	1	-1
380.379	1	5
380.550	1	-1
380.721	1	5
380.892	1	7
381.063	1	1
381.233	1	10
381.404	1	5
381.575	1	4
381.746	1	8
381.917	1	1
382.087	1	1
382.258	1	9
382.429	1	3
382.600	1	-1
382.771	1	4
382.941	1	-6
383.112	1	1
383.283	1	9
383.454	1	-9
383.625	1	2
383.795	1	10
383.966	1	5
384.137	1	7
384.308	1	2
384.479	1	8
384.649	1	15
384.820	1	1
384.991	1	1
385.162	1	2
385.333	1	5
385.503	1	11
385.674	1	11
385.845	1	0
386.016	1	0
386.187	1	2
386.357	1	-3
386.528	1	-9
386.699	1	0
386.870	1	2
387.041	1	-3
387.211	1	-4
387.382	1	-4
387.553	1	2
387.724	1	3
387.894	1	5
388.065	1	6
388.236	1	15
388.407	1	10
388.578	1	-4
388.748	1	4
388.919	1	18
389.090	1	5
389.261	1	7
389.431	1	5
389.602	1	2
389.773	1	2
389.944	1	4
390.114	1	17
390.285	1	4
390.456	1	2
390.627	1	12
390.798	1	12
390.968	1	-5
391.139	1	4
391.310	1	6
391.481	1	8
391.651	1	3
391.822	1	9
391.993	1	4
392.164	1	-11
392.334	1	2
392.505	1	-4
392.676	1	4
392.847	1	16
393.017	1	1
393.188	1	-5
393.359	1	7
393.530	1	14
393.700	1	17
393.871	1	4
394.042	1	11
394.213	1	4
394.383	1	12
394.554	1	8
394.725	1	0
394.896	1	7
395.066	1	10
395.237	1	0
395.408	1	0
395.579	1	6
395.749	1	8
395.920	1	14
396.091	1	13
396.262	1	-3
396.432	1	0
396.603	1	2
396.774	1	7
396.945	1	-3
397.115	1	-4
397.286	1	11
397.457	1	1
397.627	1	8
397.798	1	12
397.969	1	14
398.140	1	4
398.310	1	4
398.481	1	9
398.652	1	-6
398.823	1	6
398.993	1	16
399.164	1	9
399.335	1	7
399.505	1	13
399.676	1	13
399.847	1	18
400.018	1	2
400.188	1	7
400.359	1	12
400.530	1	0
400.700	1	-3
400.871	1	16
401.042	1	4
401.213	1	14
401.383	1	5
401.554	1	10
401.725	1	3
401.895	1	7
402.066	1	7
402.237	1	11
402.408	1	10
402.578	1	13
402.749	1	15
402.920	1	12
403.090	1	11
403.261	1	18
403.432	1	7
403.603	1	-1
403.773	1	11
403.944	1	13
404.115	1	-3
404.285	1	25
404.456	1	9
404.627	1	5
404.797	1	7
404.968	1	-2
405.139	1	-1
405.310	1	5
405.480	1	8
405.651	1	13
405.822	1	23
405.992	1	4
406.163	1	8
406.334	1	4
406.504	1	-2
406.675	1	8
406.846	1	9
407.016	1	-9
407.187	1	6
407.358	1	3
407.528	1	7
407.699	1	3
407.870	1	13
408.041	1	-2
408.211	1	9
408.382	1	6
408.553	1	-5
408.723	1	-2
408.894	1	0
409.065	1	11
409.235	1	0
409.406	1	6
409.577	1	7
409.747	1	12
409.918	1	2
410.089	1	-3
410.259	1	2
410.430	1	7
410.601	1	-1
410.771	1	7
410.942	1	-1
411.113	1	18
411.283	1	2
411.454	1	10
411.625	1	3
411.795	1	0
411.966	1	-6
412.137	1	6
412.307	1	0
412.478	1	11
412.649	1	7
412.819	1	-3
412.990	1	12
413.161	1	7
413.331	1	9
413.502	1	-5
413.672	1	-2
413.843	1	1
414.014	1	18
414.184	1	8
414.355	1	3
414.526	1	15
414.696	1	11
414.867	1	5
415.038	1	-15
415.208	1	-1
415.379	1	7
415.550	1	9
415.720	1	-3
415.891	1	19
416.062	1	17
416.232	1	16
416.403	1	3
416.573	1	9
416.744	1	3
416.915	1	-3
417.085	1	-1
417.256	1	8
417.427	1	15
417.597	1	7
417.768	1	13
417.939	1	12
418.109	1	-2
418.280	1	2
418.450	1	15
418.621	1	1
418.792	1	2
418.962	1	10
419.133	1	10
419.304	1	6
419.474	1	6
419.645	1	6
419.815	1	4
419.986	1	3
420.157	1	15
420.327	1	7
420.498	1	10
420.669	1	16
420.839	1	7
421.010	1	13
421.180	1	-2
421.351	1	22
421.522	1	11
421.692	1	14
421.863	1	12
422.033	1	22
422.204	1	11
422.375	1	1
422.545	1	0
422.716	1	0
422.886	1	11
423.057	1	2
423.228	1	8
423.398	1	9
423.569	1	12
423.740	1	2
423.910	1	19
424.081	1	13
424.251	1	11
424.422	1	-1
424.593	1	3
424.763	1	-1
424.934	1	6
425.104	1	8
425.275	1	7
425.445	1	16
425.616	1	11
425.787	1	9
425.957	1	7
426.128	1	12
426.298	1	6
426.469	1	-1
426.640	1	7
426.810	1	5
426.981	1	6
427.151	1	11
427.322	1	-1
427.493	1	-2
427.663	1	3
427.834	1	10
428.004	1	6
428.175	1	9
428.345	1	17
428.516	1	7
428.687	1	3
428.857	1	-2
429.028	1	14
429.198	1	9
429.369	1	11
429.540	1	3
429.710	1	11
429.881	1	8
430.051	1	11
430.222	1	12
430.392	1	11
430.563	1	3
430.734	1	2
430.904	1	8
431.075	1	5
431.245	1	3
431.416	1	6
431.586	1	-7
431.757	1	8
431.927	1	-2
432.098	1	12
432.269	1	10
432.439	1	22
432.610	1	4
432.780	1	9
432.951	1	-4
433.121	1	14
433.292	1	2
433.462	1	11
433.633	1	5
433.804	1	-3
433.974	1	5
434.145	1	4
434.315	1	16
434.486	1	3
434.656	1	-1
434.827	1	10
434.997	1	15
435.168	1	6
435.339	1	6
435.509	1	7
435.680	1	7
435.850	1	0
436.021	1	12
436.191	1	7
436.362	1	10
436.532	1	15
436.703	1	8
436.873	1	9
437.044	1	13
437.214	1	20
437.385	1	17
437.556	1	10
437.726	1	1
437.897	1	6
438.067	1	6
438.238	1	15
438.408	1	9
438.579	1	9
438.749	1	-6
438.920	1	7
439.090	1	-1
439.261	1	2
439.431	1	2
439.602	1	12
439.772	1	16
439.943	1	10
440.113	1	7
440.284	1	10
440.455	1	17
440.625	1	6
440.796	1	-2
440.966	1	7
441.137	1	7
441.307	1	3
441.478	1	11
441.648	1	6
441.819	1	12
441.989	1	-5
442.160	1	9
442.330	1	12
442.501	1	4
442.671	1	7
442.842	1	7
443.012	1	3
443.183	1	10
443.353	1	13
443.524	1	5
443.694	1	3
443.865	1	2
444.035	1	3
444.206	1	3
444.376	1	18
444.547	1	12
444.717	1	25
444.888	1	5
445.058	1	8
445.229	1	6
445.399	1	-2
445.570	1	9
445.740	1	4
445.911	1	13
446.081	1	17
446.252	1	-1
446.422	1	10
446.593	1	9
446.763	1	10
446.934	1	9
447.104	1	10
447.275	1	9
447.445	1	0
447.616	1	10
447.786	1	6
447.957	1	5
448.127	1	9
448.298	1	5
448.468	1	9
448.639	1	4
448.809	1	-3
448.979	1	11
449.150	1	5
449.320	1	9
449.491	1	7
449.661	1	15
449.832	1	6
450.002	1	5
450.173	1	3
450.343	1	8
450.514	1	6
450.684	1	-2
450.855	1	10
451.025	1	5
451.196	1	14
451.366	1	-3
451.537	1	9
451.707	1	10
451.878	1	1
452.048	1	2
452.218	1	9
452.389	1	15
452.559	1	1
452.730	1	-3
452.900	1	3
453.071	1	6
453.241	1	5
453.412	1	-4
453.582	1	0
453.753	1	15
453.923	1	14
454.093	1	9
454.264	1	-6
454.434	1	7
454.605	1	-4
454.775	1	-1
454.946	1	1
455.116	1	6
455.287	1	-3
455.457	1	0
455.628	1	4
455.798	1	22
455.968	1	1
456.139	1	2
456.309	1	21
456.480	1	8
456.650	1	8
456.821	1	14
456.991	1	7
457.161	1	4
457.332	1	-5
457.502	1	9
457.673	1	18
457.843	1	10
458.014	1	4
458.184	1	4
458.355	1	13
458.525	1	8
458.695	1	7
458.866	1	21
459.036	1	4
459.207	1	12
459.377	1	14
459.548	1	1
459.718	1	2
459.888	1	7
460.059	1	13
460.229	1	14
460.400	1	0
460.570	1	8
460.740	1	-4
460.911	1	9
461.081	1	5
461.252	1	-4
461.422	1	5
461.593	1	12
461.763	1	3
461.933	1	6
462.104	1	4
462.274	1	3
462.445	1	1
462.615	1	8
462.785	1	6
462.956	1	4
463.126	1	7
463.297	1	7
463.467	1	9
463.638	1	15
463.808	1	4
463.978	1	10
464.149	1	0
464.319	1	12
464.490	1	5
464.660	1	6
464.830	1	10
465.001	1	5
465.171	1	0
465.342	1	0
465.512	1	6
465.682	1	-1
465.853	1	-8
466.023	1	2
466.194	1	8
466.364	1	8
466.534	1	-1
466.705	1	0
466.875	1	4
467.045	1	12
467.216	1	-3
467.386	1	13
467.557	1	12
467.727	1	4
467.897	1	-3
468.068	1	-7
468.238	1	25
468.409	1	-1
468.579	1	13
468.749	1	5
468.920	1	7
469.090	1	13
469.260	1	8
469.431	1	18
469.601	1	9
469.772	1	-3
469.942	1	9
470.112	1	6
470.283	1	14
470.453	1	18
470.623	1	5
470.794	1	6
470.964	1	-1
471.135	1	8
471.305	1	3
471.475	1	-5
471.646	1	6
471.816	1	7
471.986	1	17
472.157	1	19
472.327	1	-1
472.497	1	9
472.668	1	-1
472.838	1	10
473.009	1	15
473.179	1	5
473.349	1	8
473.520	1	-5
473.690	1	11
473.860	1	8
474.031	1	7
474.201	1	4
474.371	1	8
474.542	1	16
474.712	1	5
474.882	1	8
475.053	1	11
475.223	1	-9
475.394	1	3
475.564	1	5
475.734	1	9
475.905	1	7
476.075	1	4
476.245	1	8
476.416	1	-4
476.586	1	15
476.756	1	8
476.927	1	-2
477.097	1	-1
477.267	1	12
477.438	1	7
477.608	1	2
477.778	1	4
477.949	1	12
478.119	1	8
478.289	1	0
478.460	1	-7
478.630	1	12
478.800	1	13
478.971	1	8
479.141	1	-1
479.311	1	1
479.482	1	7
479.652	1	12
479.822	1	0
479.993	1	4
480.163	1	7
480.333	1	8
480.504	1	5
480.674	1	2
480.844	1	5
481.015	1	2
481.185	1	7
481.355	1	1
481.525	1	6
481.696	1	0
481.866	1	6
482.036	1	5
482.207	1	11
482.377	1	0
482.547	1	2
482.718	1	-4
482.888	1	8
483.058	1	-2
483.229	1	4
483.399	1	5
483.569	1	13
483.740	1	1
483.910	1	3
484.080	1	-5
484.250	1	1
484.421	1	3
484.591	1	0
484.761	1	0
484.932	1	-3
485.102	1	11
485.272	1	2
485.443	1	4
485.613	1	9
485.783	1	15
485.953	1	13
486.124	1	0
486.294	1	-1
486.464	1	-8
486.635	1	12
486.805	1	-2
486.975	1	-6
487.146	1	-5
487.316	1	4
487.486	1	5
487.656	1	-4
487.827	1	-2
487.997	1	-4
488.167	1	12
488.338	1	3
488.508	1	2
488.678	1	7
488.848	1	6
489.019	1	7
489.189	1	5
489.359	1	-3
489.529	1	4
489.700	1	10
489.870	1	-9
490.040	1	-7
490.211	1	-2
490.381	1	9
490.551	1	-7
490.721	1	8
490.892	1	6
491.062	1	4
491.232	1	6
491.402	1	2
491.573	1	-3
491.743	1	-5
491.913	1	-4
492.084	1	5
492.254	1	2
492.424	1	8
492.594	1	14
492.765	1	-6
492.935	1	5
493.105	1	8
493.275	1	-7
493.446	1	-1
493.616	1	-3
493.786	1	0
493.956	1	4
494.127	1	14
494.297	1	-4
494.467	1	3
494.637	1	12
494.808	1	-1
494.978	1	-4
495.148	1	0
495.318	1	7
495.489	1	-8
495.659	1	5
495.829	1	12
495.999	1	1
496.170	1	-1
496.340	1	7
496.510	1	6
496.680	1	-6
496.851	1	4
497.021	1	-16
497.191	1	3
497.361	1	-8
497.532	1	8
497.702	1	13
497.872	1	10
498.042	1	12
498.213	1	7
498.383	1	9
498.553	1	1
498.723	1	3
498.894	1	0
499.064	1	-1
499.234	1	3
499.404	1	-3
499.574	1	4
499.745	1	0
499.915	1	5
500.085	1	4
500.255	1	1
500.426	1	9
500.596	1	-5
500.766	1	-2
500.936	1	17
501.106	1	-2
501.277	1	5
501.447	1	-2
501.617	1	5
501.787	1	5
501.958	1	5
502.128	1	-3
502.298	1	-2
502.468	1	12
502.638	1	1
502.809	1	2
502.979	1	15
503.149	1	3
503.319	1	2
503.489	1	-8
503.660	1	-7
503.830	1	3
504.000	1	2
504.170	1	13
504.340	1	0
504.511	1	6
504.681	1	-4
504.851	1	3
505.021	1	9
505.192	1	3
505.362	1	2
505.532	1	1
505.702	1	-1
505.872	1	-3
506.043	1	7
506.213	1	8
506.383	1	6
506.553	1	2
506.723	1	6
506.893	1	-8
507.064	1	-7
507.234	1	-7
507.404	1	9
507.574	1	9
507.744	1	-1
507.915	1	9
508.085	1	12
508.255	1	-1
508.425	1	-3
508.595	1	-6
508.766	1	-5
508.936	1	5
509.106	1	9
509.276	1	-4
509.446	1	2
509.616	1	6
509.787	1	8
509.957	1	7
510.127	1	0
510.297	1	-2
510.467	1	-7
510.638	1	7
510.808	1	0
510.978	1	1
511.148	1	21
511.318	1	3
511.488	1	11
511.659	1	-9
511.829	1	0
511.999	1	4
512.169	1	-2
512.339	1	3
512.509	1	4
512.680	1	3
512.850	1	2
513.020	1	-3
513.190	1	1
513.360	1	7
513.530	1	7
513.700	1	3
513.871	1	7
514.041	1	-1
514.211	1	8
514.381	1	9
514.551	1	6
514.721	1	-2
514.892	1	1
515.062	1	0
515.232	1	-3
515.402	1	5
515.572	1	-1
515.742	1	1
515.912	1	-4
516.083	1	4
516.253	1	8
516.423	1	2
516.593	1	10
516.763	1	-5
516.933	1	-5
517.104	1	-3
517.274	1	-1
517.444	1	-4
517.614	1	-2
517.784	1	0
517.954	1	4
518.124	1	0
518.294	1	4
518.465	1	6
518.635	1	3
518.805	1	21
518.975	1	-1
519.145	1	11
519.315	1	2
519.485	1	-9
519.656	1	10
519.826	1	13
519.996	1	0
520.166	1	0
520.336	1	4
520.506	1	-9
520.676	1	-1
520.846	1	0
521.017	1	2
521.187	1	5
521.357	1	-5
521.527	1	-3
521.697	1	7
521.867	1	6
522.037	1	-11
522.207	1	-2
522.377	1	9
522.548	1	-4
522.718	1	-5
522.888	1	17
523.058	1	-2
523.228	1	9
523.398	1	-3
523.568	1	-4
523.738	1	4
523.909	1	0
524.079	1	-2
524.249	1	-4
524.419	1	-2
524.589	1	4
524.759	1	1
524.929	1	-6
525.099	1	-2
525.269	1	16
525.439	1	3
525.610	1	4
525.780	1	-1
525.950	1	8
526.120	1	-4
526.290	1	4
526.460	1	-3
526.630	1	5
526.800	1	3
526.970	1	12
527.140	1	0
527.311	1	-8
527.481	1	0
527.651	1	-5
527.821	1	-7
527.991	1	7
528.161	1	-2
528.331	1	10
528.501	1	9
528.671	1	0
528.841	1	0
529.011	1	-4
529.181	1	7
529.352	1	-2
529.522	1	-6
529.692	1	-5
529.862	1	5
530.032	1	-8
530.202	1	2
530.372	1	-1
530.542	1	-3
530.712	1	-5
530.882	1	-8
531.052	1	5
531.222	1	-7
531.392	1	2
531.563	1	-4
531.733	1	10
531.903	1	3
532.073	1	9
532.243	1	-5
532.413	1	5
532.583	1	-2
532.753	1	2
532.923	1	4
533.093	1	11
533.263	1	-6
533.433	1	10
533.603	1	10
533.773	1	1
533.943	1	-4
534.113	1	8
534.284	1	-3
534.454	1	1
534.624	1	1
534.794	1	1
534.964	1	9
535.134	1	23
535.304	1	3
535.474	1	-16
535.644	1	5
535.814	1	7
535.984	1	6
536.154	1	-1
536.324	1	10
536.494	1	5
536.664	1	7
536.834	1	1
537.004	1	9
537.174	1	4
537.344	1	1
537.514	1	-1
537.685	1	0
537.855	1	0
538.025	1	8
538.195	1	2
538.365	1	-2
538.535	1	-5
538.705	1	10
538.875	1	12
539.045	1	-5
539.215	1	-15
539.385	1	-5
539.555	1	1
539.725	1	-4
539.895	1	-2
540.065	1	10
540.235	1	-1
540.405	1	5
540.575	1	-6
540.745	1	0
540.915	1	2
541.085	1	-8
541.255	1	-8
541.425	1	-2
541.595	1	3
541.765	1	15
541.935	1	-7
542.105	1	4
542.275	1	2
542.445	1	-3
542.615	1	6
542.785	1	-1
542.955	1	0
543.125	1	0
543.295	1	-6
543.465	1	12
543.635	1	1
543.805	1	8
543.975	1	-6
544.145	1	1
544.315	1	-1
544.485	1	-5
544.655	1	9
544.825	1	1
544.995	1	7
545.165	1	7
545.335	1	-7
545.505	1	11
545.675	1	-13
545.845	1	3
546.015	1	1
546.185	1	-8
546.355	1	5
546.525	1	-9
546.695	1	-2
546.865	1	16
547.035	1	-4
547.205	1	4
547.375	1	4
547.545	1	6
547.715	1	6
547.885	1	5
548.055	1	-13
548.225	1	9
548.395	1	-6
548.565	1	4
548.735	1	5
548.905	1	-11
549.075	1	7
549.245	1	1
549.415	1	-7
549.585	1	9
549.755	1	0
549.925	1	3
550.095	1	2
550.265	1	-1
550.435	1	-17
550.605	1	-1
550.775	1	-5
550.945	1	12
551.115	1	3
551.285	1	2
551.455	1	9
551.625	1	-10
551.795	1	6
551.965	1	8
552.135	1	-1
552.305	1	-1
552.475	1	2
552.645	1	5
552.815	1	0
552.985	1	0
553.155	1	0
553.325	1	4
553.495	1	4
553.665	1	12
553.835	1	5
554.004	1	0
554.174	1	2
554.344	1	-2
554.514	1	3
554.684	1	-10
554.854	1	5
555.024	1	0
555.194	1	6
555.364	1	5
555.534	1	3
555.704	1	4
555.874	1	-10
556.044	1	13
556.214	1	-5
556.384	1	-1
556.554	1	7
556.724	1	7
556.894	1	-6
557.064	1	-2
557.234	1	0
557.404	1	6
557.573	1	-5
557.743	1	-5
557.913	1	-9
558.083	1	10
558.253	1	-9
558.423	1	1
558.593	1	6
558.763	1	9
558.933	1	3
559.103	1	4
559.273	1	-3
559.443	1	3
559.613	1	3
559.783	1	15
559.953	1	9
560.122	1	-4
560.292	1	-7
560.462	1	-1
560.632	1	6
560.802	1	1
560.972	1	3
561.142	1	8
561.312	1	1
561.482	1	5
561.652	1	2
561.822	1	-1
561.992	1	-10
562.162	1	9
562.331	1	16
562.501	1	0
562.671	1	14
562.841	1	2
563.011	1	-6
563.181	1	5
563.351	1	2
563.521	1	-1
563.691	1	7
563.861	1	-3
564.031	1	-7
564.201	1	2
564.370	1	-4
564.540	1	-9
564.710	1	-1
564.880	1	1
565.050	1	-1
565.220	1	-6
565.390	1	1
565.560	1	1
565.730	1	0
565.900	1	-13
566.069	1	7
566.239	1	2
566.409	1	5
566.579	1	-5
566.749	1	2
566.919	1	2
567.089	1	-5
567.259	1	8
567.429	1	9
567.599	1	-4
567.768	1	-1
567.938	1	-4
568.108	1	9
568.278	1	3
568.448	1	-1
568.618	1	1
568.788	1	-24
568.958	1	-3
569.128	1	-9
569.297	1	-8
569.467	1	0
569.637	1	11
569.807	1	1
569.977	1	-1
570.147	1	0
570.317	1	0
570.487	1	1
570.656	1	-8
570.826	1	-11
570.996	1	3
571.166	1	-4
571.336	1	-11
571.506	1	-4
571.676	1	1
571.846	1	-11
572.015	1	1
572.185	1	-1
572.355	1	3
572.525	1	-13
572.695	1	-1
572.865	1	6
573.035	1	-8
573.205	1	-4
573.374	1	11
573.544	1	2
573.714	1	7
573.884	1	0
574.054	1	-3
574.224	1	4
574.394	1	-4
574.563	1	0
574.733	1	-2
574.903	1	-1
575.073	1	-4
575.243	1	-4
575.413	1	3
575.583	1	-5
575.752	1	0
575.922	1	3
576.092	1	-4
576.262	1	10
576.432	1	9
576.602	1	-3
576.772	1	-2
576.941	1	8
577.111	1	1
577.281	1	12
577.451	1	-3
577.621	1	9
577.791	1	4
577.960	1	-10
578.130	1	7
578.300	1	1
578.470	1	2
578.640	1	-2
578.810	1	5
578.979	1	0
579.149	1	0
579.319	1	8
579.489	1	-2
579.659	1	-5
579.829	1	-5
579.998	1	-3
580.168	1	-12
580.338	1	-6
580.508	1	2
580.678	1	6
580.848	1	-5
581.017	1	9
581.187	1	2
581.357	1	-1
581.527	1	-10
581.697	1	-10
581.867	1	9
582.036	1	5
582.206	1	3
582.376	1	0
582.546	1	24
582.716	1	1
582.885	1	-3
583.055	1	-18
583.225	1	-9
583.395	1	-11
583.565	1	-8
583.735	1	-2
583.904	1	10
584.074	1	-10
584.244	1	10
584.414	1	-9
584.584	1	5
584.753	1	1
584.923	1	-2
585.093	1	-8
585.263	1	-1
585.433	1	13
585.602	1	1
585.772	1	8
585.942	1	0
586.112	1	-2
586.282	1	0
586.451	1	0
586.621	1	-5
586.791	1	-3
586.961	1	3
587.131	1	8
587.300	1	3
587.470	1	-5
587.640	1	-6
587.810	1	-3
587.980	1	-1
588.149	1	7
588.319	1	-2
588.489	1	-5
588.659	1	1
588.829	1	-13
588.998	1	-2
589.168	1	-1
589.338	1	1
589.508	1	12
589.677	1	-3
589.847	1	6
590.017	1	0
590.187	1	9
590.357	1	-9
590.526	1	14
590.696	1	-1
590.866	1	-1
591.036	1	-3
591.205	1	6
591.375	1	2
591.545	1	-3
591.715	1	-5
591.885	1	-2
592.054	1	-5
592.224	1	-2
592.394	1	-2
592.564	1	-5
592.733	1	5
592.903	1	6
593.073	1	-8
593.243	1	1
593.412	1	-6
593.582	1	-4
593.752	1	3
593.922	1	10
594.091	1	-15
594.261	1	-2
594.431	1	-2
594.601	1	3
594.771	1	10
594.940	1	9
595.110	1	-6
595.280	1	8
595.450	1	0
595.619	1	-2
595.789	1	5
595.959	1	3
596.129	1	-5
596.298	1	3
596.468	1	10
596.638	1	10
596.808	1	-8
596.977	1	-1
597.147	1	4
597.317	1	5
597.487	1	3
597.656	1	8
597.826	1	5
597.996	1	5
598.166	1	-4
598.335	1	-11
598.505	1	-2
598.675	1	2
598.844	1	2
599.014	1	-2
599.184	1	-1
599.354	1	-7
599.523	1	7
599.693	1	2
599.863	1	7
600.033	1	3
600.202	1	14
600.372	1	3
600.542	1	-2
600.712	1	6
600.881	1	-5
601.051	1	9
601.221	1	9
601.390	1	-9
601.560	1	12
601.730	1	4
601.900	1	9
602.069	1	-18
602.239	1	7
602.409	1	8
602.578	1	14
602.748	1	-8
602.918	1	3
603.088	1	12
603.257	1	0
603.427	1	10
603.597	1	-2
603.767	1	9
603.936	1	9
604.106	1	5
604.276	1	0
604.445	1	-3
604.615	1	-12
604.785	1	-8
604.954	1	0
605.124	1	-1
605.294	1	-4
605.464	1	4
605.633	1	6
605.803	1	-1
605.973	1	2
606.142	1	2
606.312	1	2
606.482	1	-4
606.652	1	18
606.821	1	-3
606.991	1	10
607.161	1	5
607.330	1	2
607.500	1	5
607.670	1	1
607.839	1	-9
608.009	1	7
608.179	1	-1
608.348	1	4
608.518	1	-4
608.688	1	9
608.858	1	-4
609.027	1	1
609.197	1	-3
609.367	1	1
609.536	1	9
609.706	1	-5
609.876	1	3
610.045	1	5
610.215	1	9
610.385	1	-2
610.554	1	0
610.724	1	3
610.894	1	3
611.063	1	-1
611.233	1	-10
611.403	1	7
611.572	1	4
611.742	1	5
611.912	1	2
612.081	1	2
612.251	1	6
612.421	1	8
612.590	1	-12
612.760	1	4
612.930	1	-3
613.099	1	1
613.269	1	-12
613.439	1	-5
613.608	1	10
613.778	1	-9
613.948	1	11
614.117	1	3
614.287	1	-6
614.457	1	-1
614.626	1	11
614.796	1	5
614.966	1	0
615.135	1	-1
615.305	1	17
615.475	1	-5
615.644	1	7
615.814	1	-8
615.984	1	5
616.153	1	-1
616.323	1	0
616.493	1	10
616.662	1	1
616.832	1	6
617.002	1	-6
617.171	1	-1
617.341	1	-3
617.511	1	4
617.680	1	5
617.850	1	5
618.019	1	-4
618.189	1	2
618.359	1	3
618.528	1	-9
618.698	1	14
618.868	1	-4
619.037	1	8
619.207	1	-6
619.377	1	-2
619.546	1	2
619.716	1	10
619.885	1	5
620.055	1	9
620.225	1	3
620.394	1	2
620.564	1	-7
620.734	1	-2
620.903	1	4
621.073	1	7
621.242	1	1
621.412	1	18
621.582	1	-9
621.751	1	-7
621.921	1	8
622.091	1	-10
622.260	1	-1
622.430	1	12
622.599	1	8
622.769	1	3
622.939	1	-4
623.108	1	10
623.278	1	15
623.448	1	6
623.617	1	-6
623.787	1	10
623.956	1	1
624.126	1	-4
624.296	1	6
624.465	1	-3
624.635	1	13
624.804	1	-5
624.974	1	6
625.144	1	5
625.313	1	-1
625.483	1	7
625.652	1	11
625.822	1	5
625.992	1	7
626.161	1	-4
626.331	1	-8
626.501	1	-3
626.670	1	3
626.840	1	1
627.009	1	-5
627.179	1	-12
627.348	1	9
627.518	1	4
627.688	1	5
627.857	1	3
628.027	1	1
628.196	1	-7
628.366	1	3
628.536	1	2
628.705	1	1
628.875	1	3
629.044	1	8
629.214	1	8
629.384	1	4
629.553	1	4
629.723	1	-11
629.892	1	0
630.062	1	-10
630.232	1	15
630.401	1	-2
630.571	1	-2
630.740	1	-3
630.910	1	9
631.079	1	2
631.249	1	1
631.419	1	7
631.588	1	-4
631.758	1	4
631.927	1	2
632.097	1	4
632.266	1	-11
632.436	1	2
632.606	1	-4
632.775	1	3
632.945	1	-6
633.114	1	5
633.284	1	0
633.453	1	11
633.623	1	5
633.793	1	0
633.962	1	-3
634.132	1	-4
634.301	1	6
634.471	1	-8
634.640	1	-1
634.810	1	3
634.979	1	3
635.149	1	8
635.319	1	9
635.488	1	-4
635.658	1	2
635.827	1	-3
635.997	1	2
636.166	1	-2
636.336	1	5
636.505	1	0
636.675	1	5
636.845	1	-4
637.014	1	1
637.184	1	11
637.353	1	1
637.523	1	13
637.692	1	-7
637.862	1	-2
638.031	1	-6
638.201	1	-7
638.370	1	1
638.540	1	-2
638.710	1	6
638.879	1	10
639.049	1	-3
639.218	1	13
639.388	1	-1
639.557	1	13
639.727	1	10
639.896	1	-2
640.066	1	-2
640.235	1	-1
640.405	1	2
640.574	1	3
640.744	1	2
640.914	1	9
641.083	1	-8
641.253	1	0
641.422	1	-10
641.592	1	3
641.761	1	1
641.931	1	2
642.100	1	7
642.270	1	-8
642.439	1	-5
642.609	1	7
642.778	1	6
642.948	1	2
643.117	1	10
643.287	1	-3
643.456	1	1
643.626	1	-2
643.795	1	10
643.965	1	6
644.134	1	6
644.304	1	2
644.473	1	4
644.643	1	-5
644.812	1	-6
644.982	1	9
645.151	1	6
645.321	1	-6
645.490	1	4
645.660	1	4
645.829	1	-2
645.999	1	6
646.168	1	-9
646.338	1	7
646.507	1	-4
646.677	1	1
646.846	1	-5
647.016	1	5
647.185	1	6
647.355	1	4
647.524	1	0
647.694	1	-5
647.863	1	13
648.033	1	1
648.202	1	4
648.372	1	-1
648.541	1	1
648.711	1	2
648.880	1	-4
649.050	1	0
649.219	1	6
649.389	1	-14
649.558	1	0
649.728	1	8
649.897	1	-2
650.067	1	-1
650.236	1	-1
650.406	1	11
650.575	1	8
650.745	1	0
650.914	1	-3
651.084	1	-4
651.253	1	6
651.423	1	11
651.592	1	-3
651.762	1	-6
651.931	1	5
652.101	1	13
652.270	1	0
652.440	1	7
652.609	1	2
652.778	1	6
652.948	1	-2
653.117	1	12
653.287	1	-7
653.456	1	1
653.626	1	2
653.795	1	1
653.965	1	-5
654.134	1	-14
654.304	1	6
654.473	1	-10
654.643	1	5
654.812	1	5
654.982	1	-1
655.151	1	11
655.320	1	10
655.490	1	17
655.659	1	4
655.829	1	0
655.998	1	-4
656.168	1	1
656.337	1	-5
656.507	1	-6
656.676	1	3
656.846	1	1
657.015	1	3
657.184	1	-4
657.354	1	12
657.523	1	-6
657.693	1	-8
657.862	1	-10
658.032	1	0
658.201	1	-5
658.371	1	-8
658.540	1	-8
658.709	1	0
658.879	1	3
659.048	1	2
659.218	1	-4
659.387	1	-1
659.557	1	0
659.726	1	-4
659.895	1	2
660.065	1	12
660.234	1	-1
660.404	1	3
660.573	1	5
660.743	1	0
660.912	1	-11
661.081	1	-13
661.251	1	13
661.420	1	8
661.590	1	-3
661.759	1	3
661.929	1	0
662.098	1	4
662.267	1	2
662.437	1	-4
662.606	1	8
662.776	1	-14
662.945	1	6
663.115	1	3
663.284	1	1
663.453	1	15
663.623	1	18
663.792	1	2
663.962	1	-7
664.131	1	-2
664.300	1	-9
664.470	1	2
664.639	1	3
664.809	1	2
664.978	1	15
665.148	1	-10
665.317	1	0
665.486	1	4
665.656	1	8
665.825	1	5
665.995	1	-2
666.164	1	5
666.333	1	6
666.503	1	4
666.672	1	-3
666.842	1	5
667.011	1	-4
667.180	1	6
667.350	1	-3
667.519	1	-2
667.689	1	7
667.858	1	-5
668.027	1	-3
668.197	1	12
668.366	1	2
668.536	1	-4
668.705	1	-2
668.874	1	-6
669.044	1	7
669.213	1	-7
669.382	1	6
669.552	1	15
669.721	1	3
669.891	1	3
670.060	1	2
670.229	1	3
670.399	1	1
670.568	1	-2
670.738	1	3
670.907	1	0
671.076	1	0
671.246	1	-4
671.415	1	16
671.584	1	-1
671.754	1	-2
671.923	1	6
672.093	1	-3
672.262	1	-1
672.431	1	3
672.601	1	4
672.770	1	-5
672.939	1	2
673.109	1	0
673.278	1	2
673.448	1	8
673.617	1	1
673.786	1	9
