325.333	1	-7
325.504	1	7
325.675	1	4
325.846	1	-1
326.017	1	-3
326.188	1	4
326.359	1	5
326.531	1	11
326.702	1	8
326.873	1	-13
327.044	1	2
327.215	1	-5
327.386	1	6
327.557	1	12
327.728	1	1
327.899	1	-4
328.070	1	11
328.241	1	0
328.412	1	-1
328.583	1	5
328.754	1	-14
328.926	1	5
329.097	1	9
329.268	1	-1
329.439	1	-2
329.610	1	6
329.781	1	0
329.952	1	-1
330.123	1	-4
330.294	1	1
330.465	1	-1
330.636	1	11
330.807	1	1
330.978	1	4
331.149	1	2
331.320	1	4
331.492	1	-4
331.663	1	0
331.834	1	-4
332.005	1	7
332.176	1	10
332.347	1	20
332.518	1	9
332.689	1	9
332.860	1	10
333.031	1	5
333.202	1	2
333.373	1	1
333.544	1	2
333.715	1	-4
333.886	1	5
334.057	1	-6
334.228	1	-2
334.399	1	2
334.570	1	-4
334.741	1	4
334.912	1	1
335.084	1	0
335.255	1	4
335.426	1	2
335.597	1	5
335.768	1	-3
335.939	1	-8
336.110	1	9
336.281	1	-1
336.452	1	-3
336.623	1	-7
336.794	1	-1
336.965	1	-1
337.136	1	1
337.307	1	2
337.478	1	3
337.649	1	-4
337.820	1	-2
337.991	1	4
338.162	1	5
338.333	1	10
338.504	1	7
338.675	1	9
338.846	1	0
339.017	1	5
339.188	1	2
339.359	1	8
339.530	1	14
339.701	1	-5
339.872	1	12
340.043	1	-6
340.214	1	-2
340.385	1	2
340.556	1	-5
340.727	1	4
340.898	1	6
341.069	1	-2
341.240	1	-4
341.411	1	18
341.582	1	15
341.753	1	-6
341.924	1	3
342.095	1	12
342.266	1	0
342.437	1	-7
342.608	1	8
342.779	1	9
342.950	1	7
343.121	1	0
343.292	1	12
343.463	1	3
343.634	1	3
343.805	1	2
343.976	1	-1
344.147	1	4
344.318	1	1
344.489	1	3
344.660	1	10
344.831	1	1
345.002	1	17
345.173	1	10
345.344	1	1
345.515	1	2
345.686	1	-6
345.857	1	-2
346.028	1	-5
346.199	1	10
346.370	1	6
346.541	1	-3
346.712	1	1
346.883	1	15
347.054	1	1
347.225	1	-3
347.396	1	2
347.567	1	4
347.738	1	0
347.909	1	1
348.080	1	2
348.251	1	3
348.422	1	1
348.593	1	9
348.764	1	-4
348.935	1	-7
349.106	1	6
349.277	1	-2
349.448	1	2
349.619	1	9
349.790	1	-3
349.961	1	1
350.132	1	14
350.303	1	-4
350.474	1	3
350.645	1	12
350.816	1	-4
350.987	1	16
351.157	1	11
351.328	1	-2
351.499	1	4
351.670	1	-1
351.841	1	-2
352.012	1	1
352.183	1	13
352.354	1	11
352.525	1	10
352.696	1	0
352.867	1	11
353.038	1	-7
353.209	1	-2
353.380	1	1
353.551	1	-4
353.722	1	10
353.893	1	4
354.064	1	4
354.235	1	12
354.406	1	14
354.576	1	-2
354.747	1	11
354.918	1	22
355.089	1	2
355.260	1	15
355.431	1	3
355.602	1	-4
355.773	1	0
355.944	1	6
356.115	1	2
356.286	1	4
356.457	1	1
356.628	1	-4
356.799	1	12
356.970	1	-2
357.141	1	13
357.311	1	4
357.482	1	3
357.653	1	2
357.824	1	6
357.995	1	-2
358.166	1	1
358.337	1	-5
358.508	1	0
358.679	1	4
358.850	1	2
359.021	1	7
359.192	1	0
359.363	1	-7
359.533	1	-2
359.704	1	8
359.875	1	4
360.046	1	-2
360.217	1	-4
360.388	1	2
360.559	1	0
360.730	1	-1
360.901	1	6
361.072	1	-2
361.243	1	8
361.414	1	4
361.584	1	19
361.755	1	6
361.926	1	9
362.097	1	-6
362.268	1	5
362.439	1	7
362.610	1	-4
362.781	1	3
362.952	1	5
363.123	1	-3
363.293	1	4
363.464	1	9
363.635	1	11
363.806	1	5
363.977	1	-1
364.148	1	7
364.319	1	1
364.490	1	7
364.661	1	-2
364.832	1	0
365.002	1	-2
365.173	1	-1
365.344	1	7
365.515	1	10
365.686	1	3
365.857	1	9
366.028	1	6
366.199	1	11
366.370	1	5
366.540	1	-5
366.711	1	11
366.882	1	3
367.053	1	-1
367.224	1	-6
367.395	1	8
367.566	1	10
367.737	1	8
367.908	1	-4
368.078	1	3
368.249	1	-1
368.420	1	11
368.591	1	2
368.762	1	-6
368.933	1	4
369.104	1	5
369.274	1	3
369.445	1	9
369.616	1	1
369.787	1	-8
369.958	1	17
370.129	1	3
370.300	1	-6
370.471	1	6
370.641	1	-1
370.812	1	4
370.983	1	-2
371.154	1	9
371.325	1	8
371.496	1	2
371.667	1	0
371.837	1	7
372.008	1	15
372.179	1	11
372.350	1	13
372.521	1	1
372.692	1	-3
372.863	1	1
373.033	1	8
373.204	1	6
373.375	1	-4
373.546	1	10
373.717	1	10
373.888	1	8
374.059	1	7
374.229	1	2
374.400	1	15
374.571	1	4
374.742	1	1
374.913	1	4
375.084	1	15
375.254	1	2
375.425	1	5
375.596	1	4
375.767	1	0
375.938	1	-1
376.109	1	3
376.279	1	7
376.450	1	-1
376.621	1	12
376.792	1	6
376.963	1	4
377.134	1	-4
377.304	1	15
377.475	1	3
377.646	1	-8
377.817	1	-2
377.988	1	8
378.159	1	5
378.329	1	11
378.500	1	-2
378.671	1	-1
378.842	1	4
379.013	1	5
379.184	1	10
379.354	1	11
379.525	1	-9
379.696	1	12
379.867	1	-10
380.038	1	17
380.209	1	5
380.379	1	8
380.550	1	-1
380.721	1	-2
380.892	1	12
381.063	1	0
381.233	1	9
381.404	1	5
381.575	1	0
381.746	1	-1
381.917	1	-2
382.087	1	6
382.258	1	13
382.429	1	8
382.600	1	14
382.771	1	4
382.941	1	5
383.112	1	10
383.283	1	10
383.454	1	19
383.625	1	3
383.795	1	-3
383.966	1	-3
384.137	1	13
384.308	1	4
384.479	1	14
384.649	1	18
384.820	1	9
384.991	1	0
385.162	1	9
385.333	1	0
385.503	1	16
385.674	1	13
385.845	1	6
386.016	1	4
386.187	1	5
386.357	1	6
386.528	1	6
386.699	1	3
386.870	1	4
387.041	1	9
387.211	1	3
387.382	1	-1
387.553	1	12
387.724	1	-3
387.894	1	18
388.065	1	16
388.236	1	15
388.407	1	2
388.578	1	19
388.748	1	7
388.919	1	18
389.090	1	12
389.261	1	10
389.431	1	14
389.602	1	-3
389.773	1	-2
389.944	1	7
390.114	1	17
390.285	1	14
390.456	1	10
390.627	1	12
390.798	1	9
390.968	1	1
391.139	1	2
391.310	1	15
391.481	1	4
391.651	1	8
391.822	1	12
391.993	1	3
392.164	1	-5
392.334	1	-4
392.505	1	2
392.676	1	4
392.847	1	11
393.017	1	1
393.188	1	5
393.359	1	8
393.530	1	11
393.700	1	11
393.871	1	-1
394.042	1	6
394.213	1	15
394.383	1	12
394.554	1	18
394.725	1	10
394.896	1	5
395.066	1	10
395.237	1	2
395.408	1	1
395.579	1	4
395.749	1	1
395.920	1	10
396.091	1	15
396.262	1	3
396.432	1	8
396.603	1	12
396.774	1	11
396.945	1	-5
397.115	1	4
397.286	1	17
397.457	1	-6
397.627	1	5
397.798	1	8
397.969	1	13
398.140	1	0
398.310	1	11
398.481	1	9
398.652	1	1
398.823	1	0
398.993	1	17
399.164	1	12
399.335	1	3
399.505	1	19
399.676	1	7
399.847	1	14
400.018	1	11
400.188	1	0
400.359	1	13
400.530	1	-2
400.700	1	0
400.871	1	14
401.042	1	9
401.213	1	3
401.383	1	16
401.554	1	16
401.725	1	6
401.895	1	4
402.066	1	18
402.237	1	17
402.408	1	9
402.578	1	4
402.749	1	11
402.920	1	13
403.090	1	8
403.261	1	11
403.432	1	21
403.603	1	-1
403.773	1	14
403.944	1	8
404.115	1	0
404.285	1	12
404.456	1	13
404.627	1	1
404.797	1	10
404.968	1	1
405.139	1	9
405.310	1	9
405.480	1	17
405.651	1	15
405.822	1	23
405.992	1	7
406.163	1	13
406.334	1	5
406.504	1	7
406.675	1	-4
406.846	1	20
407.016	1	-4
407.187	1	14
407.358	1	5
407.528	1	12
407.699	1	7
407.870	1	10
408.041	1	0
408.211	1	12
408.382	1	3
408.553	1	4
408.723	1	9
408.894	1	6
409.065	1	18
409.235	1	11
409.406	1	12
409.577	1	4
409.747	1	13
409.918	1	4
410.089	1	6
410.259	1	7
410.430	1	9
410.601	1	13
410.771	1	17
410.942	1	-6
411.113	1	14
411.283	1	9
411.454	1	13
411.625	1	14
411.795	1	-4
411.966	1	5
412.137	1	12
412.307	1	5
412.478	1	4
412.649	1	11
412.819	1	4
412.990	1	6
413.161	1	7
413.331	1	7
413.502	1	-5
413.672	1	11
413.843	1	10
414.014	1	23
414.184	1	6
414.355	1	3
414.526	1	11
414.696	1	14
414.867	1	10
415.038	1	4
415.208	1	-4
415.379	1	9
415.550	1	5
415.720	1	7
415.891	1	18
416.062	1	9
416.232	1	13
416.403	1	13
416.573	1	-5
416.744	1	8
416.915	1	-2
417.085	1	-2
417.256	1	8
417.427	1	8
417.597	1	2
417.768	1	11
417.939	1	11
418.109	1	-5
418.280	1	12
418.450	1	16
418.621	1	5
418.792	1	-4
418.962	1	-1
419.133	1	11
419.304	1	-1
419.474	1	1
419.645	1	4
419.815	1	10
419.986	1	6
420.157	1	17
420.327	1	8
420.498	1	14
420.669	1	11
420.839	1	6
421.010	1	7
421.180	1	1
421.351	1	21
421.522	1	9
421.692	1	10
421.863	1	13
422.033	1	19
422.204	1	13
422.375	1	9
422.545	1	7
422.716	1	0
422.886	1	14
423.057	1	2
423.228	1	9
423.398	1	15
423.569	1	10
423.740	1	0
423.910	1	12
424.081	1	9
424.251	1	14
424.422	1	1
424.593	1	5
424.763	1	4
424.934	1	9
425.104	1	4
425.275	1	17
425.445	1	19
425.616	1	17
425.787	1	0
425.957	1	8
426.128	1	22
426.298	1	9
426.469	1	-6
426.640	1	7
426.810	1	6
426.981	1	17
427.151	1	13
427.322	1	2
427.493	1	1
427.663	1	13
427.834	1	1
428.004	1	8
428.175	1	8
428.345	1	10
428.516	1	13
428.687	1	11
428.857	1	12
429.028	1	11
429.198	1	9
429.369	1	-1
429.540	1	10
429.710	1	16
429.881	1	11
430.051	1	2
430.222	1	14
430.392	1	18
430.563	1	11
430.734	1	12
430.904	1	1
431.075	1	-8
431.245	1	17
431.416	1	-9
431.586	1	10
431.757	1	12
431.927	1	-4
432.098	1	15
432.269	1	10
432.439	1	18
432.610	1	14
432.780	1	0
432.951	1	3
433.121	1	15
433.292	1	8
433.462	1	11
433.633	1	13
433.804	1	2
433.974	1	8
434.145	1	7
434.315	1	3
434.486	1	-3
434.656	1	8
434.827	1	10
434.997	1	14
435.168	1	13
435.339	1	14
435.509	1	20
435.680	1	11
435.850	1	4
436.021	1	9
436.191	1	20
436.362	1	15
436.532	1	10
436.703	1	17
436.873	1	5
437.044	1	9
437.214	1	18
437.385	1	14
437.556	1	9
437.726	1	5
437.897	1	9
438.067	1	5
438.238	1	9
438.408	1	14
438.579	1	4
438.749	1	4
438.920	1	6
439.090	1	5
439.261	1	6
439.431	1	13
439.602	1	14
439.772	1	8
439.943	1	12
440.113	1	4
440.284	1	5
440.455	1	13
440.625	1	11
440.796	1	-1
440.966	1	1
441.137	1	6
441.307	1	9
441.478	1	13
441.648	1	5
441.819	1	5
441.989	1	3
442.160	1	9
442.330	1	23
442.501	1	3
442.671	1	11
442.842	1	16
443.012	1	7
443.183	1	6
443.353	1	17
443.524	1	14
443.694	1	8
443.865	1	12
444.035	1	-1
444.206	1	-3
444.376	1	19
444.547	1	1
444.717	1	14
444.888	1	12
445.058	1	16
445.229	1	7
445.399	1	5
445.570	1	9
445.740	1	14
445.911	1	5
446.081	1	15
446.252	1	-1
446.422	1	16
446.593	1	15
446.763	1	14
446.934	1	18
447.104	1	10
447.275	1	20
447.445	1	4
447.616	1	5
447.786	1	1
447.957	1	8
448.127	1	25
448.298	1	10
448.468	1	8
448.639	1	10
448.809	1	-2
448.979	1	18
449.150	1	10
449.320	1	13
449.491	1	4
449.661	1	13
449.832	1	3
450.002	1	15
450.173	1	2
450.343	1	17
450.514	1	4
450.684	1	5
450.855	1	5
451.025	1	17
451.196	1	14
451.366	1	4
451.537	1	6
451.707	1	14
451.878	1	10
452.048	1	6
452.218	1	3
452.389	1	7
452.559	1	14
452.730	1	14
452.900	1	6
453.071	1	13
453.241	1	2
453.412	1	-4
453.582	1	-6
453.753	1	15
453.923	1	16
454.093	1	14
454.264	1	1
454.434	1	16
454.605	1	11
454.775	1	7
454.946	1	10
455.116	1	2
455.287	1	11
455.457	1	4
455.628	1	5
455.798	1	9
455.968	1	16
456.139	1	7
456.309	1	21
456.480	1	8
456.650	1	14
456.821	1	18
456.991	1	8
457.161	1	17
457.332	1	9
457.502	1	14
457.673	1	8
457.843	1	5
458.014	1	9
458.184	1	13
458.355	1	3
458.525	1	9
458.695	1	9
458.866	1	12
459.036	1	9
459.207	1	14
459.377	1	10
459.548	1	-3
459.718	1	2
459.888	1	16
460.059	1	15
460.229	1	17
460.400	1	9
460.570	1	13
460.740	1	5
460.911	1	11
461.081	1	12
461.252	1	5
461.422	1	10
461.593	1	9
461.763	1	15
461.933	1	14
462.104	1	10
462.274	1	3
462.445	1	3
462.615	1	6
462.785	1	2
462.956	1	14
463.126	1	-1
463.297	1	14
463.467	1	6
463.638	1	12
463.808	1	14
463.978	1	6
464.149	1	0
464.319	1	14
464.490	1	11
464.660	1	7
464.830	1	9
465.001	1	10
465.171	1	5
465.342	1	0
465.512	1	6
465.682	1	9
465.853	1	0
466.023	1	2
466.194	1	6
466.364	1	13
466.534	1	11
466.705	1	-2
466.875	1	22
467.045	1	9
467.216	1	8
467.386	1	7
467.557	1	10
467.727	1	7
467.897	1	11
468.068	1	-1
468.238	1	14
468.409	1	3
468.579	1	11
468.749	1	5
468.920	1	4
469.090	1	1
469.260	1	12
469.431	1	11
469.601	1	3
469.772	1	-5
469.942	1	19
470.112	1	8
470.283	1	15
470.453	1	11
470.623	1	6
470.794	1	13
470.964	1	8
471.135	1	11
471.305	1	14
471.475	1	9
471.646	1	4
471.816	1	9
471.986	1	16
472.157	1	10
472.327	1	8
472.497	1	18
472.668	1	3
472.838	1	11
473.009	1	11
473.179	1	10
473.349	1	11
473.520	1	3
473.690	1	13
473.860	1	3
474.031	1	8
474.201	1	11
474.371	1	14
474.542	1	12
474.712	1	3
474.882	1	1
475.053	1	10
475.223	1	-2
475.394	1	5
475.564	1	-2
475.734	1	15
475.905	1	13
476.075	1	14
476.245	1	14
476.416	1	-7
476.586	1	6
476.756	1	-1
476.927	1	1
477.097	1	10
477.267	1	13
477.438	1	12
477.608	1	2
477.778	1	0
477.949	1	9
478.119	1	6
478.289	1	-5
478.460	1	0
478.630	1	19
478.800	1	6
478.971	1	6
479.141	1	16
479.311	1	11
479.482	1	14
479.652	1	3
479.822	1	14
479.993	1	-3
480.163	1	18
480.333	1	-5
480.504	1	6
480.674	1	8
480.844	1	4
481.015	1	4
481.185	1	5
481.355	1	13
481.525	1	0
481.696	1	7
481.866	1	12
482.036	1	6
482.207	1	7
482.377	1	6
482.547	1	0
482.718	1	-2
482.888	1	16
483.058	1	2
483.229	1	-3
483.399	1	7
483.569	1	6
483.740	1	4
483.910	1	-8
484.080	1	3
484.250	1	-5
484.421	1	10
484.591	1	2
484.761	1	12
484.932	1	10
485.102	1	14
485.272	1	-5
485.443	1	4
485.613	1	10
485.783	1	20
485.953	1	5
486.124	1	3
486.294	1	3
486.464	1	2
486.635	1	16
486.805	1	-5
486.975	1	5
487.146	1	0
487.316	1	7
487.486	1	7
487.656	1	4
487.827	1	0
487.997	1	5
488.167	1	5
488.338	1	-10
488.508	1	4
488.678	1	6
488.848	1	6
489.019	1	5
489.189	1	9
489.359	1	10
489.529	1	6
489.700	1	2
489.870	1	-4
490.040	1	1
490.211	1	5
490.381	1	4
490.551	1	1
490.721	1	10
490.892	1	14
491.062	1	1
491.232	1	-4
491.402	1	1
491.573	1	-1
491.743	1	1
491.913	1	2
492.084	1	1
492.254	1	8
492.424	1	5
492.594	1	18
492.765	1	2
492.935	1	-2
493.105	1	9
493.275	1	-1
493.446	1	5
493.616	1	11
493.786	1	1
493.956	1	1
494.127	1	24
494.297	1	3
494.467	1	5
494.637	1	18
494.808	1	4
494.978	1	7
495.148	1	0
495.318	1	20
495.489	1	-10
495.659	1	6
495.829	1	8
495.999	1	5
496.170	1	0
496.340	1	4
496.510	1	1
496.680	1	1
496.851	1	2
497.021	1	-6
497.191	1	-7
497.361	1	-4
497.532	1	-1
497.702	1	8
497.872	1	15
498.042	1	13
498.213	1	6
498.383	1	5
498.553	1	13
498.723	1	3
498.894	1	4
499.064	1	4
499.234	1	5
499.404	1	-1
499.574	1	4
499.745	1	4
499.915	1	13
500.085	1	-4
500.255	1	5
500.426	1	2
500.596	1	-2
500.766	1	0
500.936	1	9
501.106	1	-1
501.277	1	1
501.447	1	10
501.617	1	1
501.787	1	11
501.958	1	2
502.128	1	-6
502.298	1	6
502.468	1	3
502.638	1	8
502.809	1	7
502.979	1	9
503.149	1	2
503.319	1	15
503.489	1	-5
503.660	1	-8
503.830	1	11
504.000	1	7
504.170	1	8
504.340	1	0
504.511	1	4
504.681	1	1
504.851	1	3
505.021	1	19
505.192	1	-2
505.362	1	0
505.532	1	-2
505.702	1	7
505.872	1	11
506.043	1	8
506.213	1	4
506.383	1	2
506.553	1	12
506.723	1	7
506.893	1	-2
507.064	1	4
507.234	1	0
507.404	1	5
507.574	1	-3
507.744	1	6
507.915	1	8
508.085	1	9
508.255	1	4
508.425	1	4
508.595	1	-2
508.766	1	2
508.936	1	0
509.106	1	5
509.276	1	5
509.446	1	7
509.616	1	3
509.787	1	18
509.957	1	12
510.127	1	0
510.297	1	-1
510.467	1	-4
510.638	1	8
510.808	1	-3
510.978	1	4
511.148	1	23
511.318	1	0
511.488	1	12
511.659	1	3
511.829	1	6
511.999	1	7
512.169	1	1
512.339	1	3
512.509	1	14
512.680	1	-4
512.850	1	9
513.020	1	-8
513.190	1	-8
513.360	1	1
513.530	1	7
513.700	1	6
513.871	1	4
514.041	1	6
514.211	1	5
514.381	1	14
514.551	1	5
514.721	1	12
514.892	1	6
515.062	1	-10
515.232	1	7
515.402	1	6
515.572	1	3
515.742	1	1
515.912	1	-1
516.083	1	8
516.253	1	6
516.423	1	4
516.593	1	6
516.763	1	8
516.933	1	-15
517.104	1	0
517.274	1	-11
517.444	1	2
517.614	1	-6
517.784	1	5
517.954	1	9
518.124	1	-10
518.294	1	7
518.465	1	-7
518.635	1	0
518.805	1	17
518.975	1	3
519.145	1	8
519.315	1	-12
519.485	1	-16
519.656	1	7
519.826	1	7
519.996	1	-3
520.166	1	15
520.336	1	1
520.506	1	-9
520.676	1	4
520.846	1	3
521.017	1	-1
521.187	1	7
521.357	1	3
521.527	1	2
521.697	1	8
521.867	1	-2
522.037	1	-6
522.207	1	-2
522.377	1	9
522.548	1	1
522.718	1	-2
522.888	1	10
523.058	1	-2
523.228	1	5
523.398	1	2
523.568	1	1
523.738	1	10
523.909	1	4
524.079	1	9
524.249	1	2
524.419	1	1
524.589	1	3
524.759	1	3
524.929	1	-2
525.099	1	5
525.269	1	14
525.439	1	-4
525.610	1	14
525.780	1	-3
525.950	1	1
526.120	1	-6
526.290	1	-3
526.460	1	4
526.630	1	7
526.800	1	10
526.970	1	11
527.140	1	-4
527.311	1	4
527.481	1	3
527.651	1	1
527.821	1	-3
527.991	1	13
528.161	1	9
528.331	1	14
528.501	1	9
528.671	1	-7
528.841	1	7
529.011	1	-6
529.181	1	5
529.352	1	4
529.522	1	-10
529.692	1	3
529.862	1	4
530.032	1	2
530.202	1	7
530.372	1	2
530.542	1	-2
530.712	1	-10
530.882	1	0
531.052	1	13
531.222	1	4
531.392	1	5
531.563	1	-4
531.733	1	6
531.903	1	8
532.073	1	4
532.243	1	8
532.413	1	5
532.583	1	-5
532.753	1	-8
532.923	1	12
533.093	1	17
533.263	1	-3
533.433	1	10
533.603	1	1
533.773	1	-4
533.943	1	2
534.113	1	-4
534.284	1	-4
534.454	1	-10
534.624	1	4
534.794	1	3
534.964	1	2
535.134	1	11
535.304	1	7
535.474	1	-6
535.644	1	2
535.814	1	7
535.984	1	6
536.154	1	6
536.324	1	5
536.494	1	7
536.664	1	-4
536.834	1	-2
537.004	1	10
537.174	1	3
537.344	1	5
537.514	1	-1
537.685	1	-2
537.855	1	2
538.025	1	2
538.195	1	-3
538.365	1	-4
538.535	1	0
538.705	1	12
538.875	1	6
539.045	1	4
539.215	1	-3
539.385	1	7
539.555	1	-7
539.725	1	5
539.895	1	11
540.065	1	-4
540.235	1	1
540.405	1	5
540.575	1	4
540.745	1	3
540.915	1	5
541.085	1	-2
541.255	1	-7
541.425	1	-4
541.595	1	7
541.765	1	13
541.935	1	-5
542.105	1	6
542.275	1	6
542.445	1	-2
542.615	1	6
542.785	1	-1
542.955	1	-7
543.125	1	-6
543.295	1	-8
543.465	1	4
543.635	1	-1
543.805	1	4
543.975	1	1
544.145	1	-2
544.315	1	-6
544.485	1	-3
544.655	1	11
544.825	1	8
544.995	1	3
545.165	1	0
545.335	1	2
545.505	1	13
545.675	1	2
545.845	1	-1
546.015	1	11
546.185	1	7
546.355	1	5
546.525	1	-5
546.695	1	-8
546.865	1	15
547.035	1	-2
547.205	1	4
547.375	1	3
547.545	1	15
547.715	1	2
547.885	1	12
548.055	1	-16
548.225	1	2
548.395	1	-12
548.565	1	0
548.735	1	17
548.905	1	-2
549.075	1	2
549.245	1	-1
549.415	1	-3
549.585	1	5
549.755	1	1
549.925	1	1
550.095	1	-1
550.265	1	5
550.435	1	-7
550.605	1	-4
550.775	1	-2
550.945	1	9
551.115	1	3
551.285	1	3
551.455	1	9
551.625	1	-1
551.795	1	-14
551.965	1	5
552.135	1	1
552.305	1	-7
552.475	1	2
552.645	1	3
552.815	1	0
552.985	1	-3
553.155	1	5
553.325	1	0
553.495	1	-1
553.665	1	2
553.835	1	0
554.004	1	-6
554.174	1	-3
554.344	1	-3
554.514	1	5
554.684	1	-5
554.854	1	4
555.024	1	-7
555.194	1	10
555.364	1	4
555.534	1	-4
555.704	1	8
555.874	1	-3
556.044	1	13
556.214	1	4
556.384	1	0
556.554	1	10
556.724	1	1
556.894	1	-2
557.064	1	2
557.234	1	3
557.404	1	1
557.573	1	-7
557.743	1	7
557.913	1	5
558.083	1	8
558.253	1	-3
558.423	1	-3
558.593	1	16
558.763	1	2
558.933	1	-4
559.103	1	7
559.273	1	-4
559.443	1	9
559.613	1	3
559.783	1	18
559.953	1	14
560.122	1	-4
560.292	1	4
560.462	1	7
560.632	1	7
560.802	1	-4
560.972	1	4
561.142	1	7
561.312	1	-1
561.482	1	7
561.652	1	5
561.822	1	-12
561.992	1	-7
562.162	1	3
562.331	1	7
562.501	1	-6
562.671	1	14
562.841	1	1
563.011	1	-5
563.181	1	12
563.351	1	0
563.521	1	6
563.691	1	10
563.861	1	-10
564.031	1	-8
564.201	1	-4
564.370	1	0
564.540	1	-3
564.710	1	3
564.880	1	6
565.050	1	2
565.220	1	-2
565.390	1	11
565.560	1	-5
565.730	1	2
565.900	1	-10
566.069	1	6
566.239	1	-1
566.409	1	10
566.579	1	-9
566.749	1	5
566.919	1	7
567.089	1	5
567.259	1	5
567.429	1	7
567.599	1	-1
567.768	1	14
567.938	1	-15
568.108	1	5
568.278	1	-10
568.448	1	7
568.618	1	3
568.788	1	-14
568.958	1	-5
569.128	1	-6
569.297	1	-5
569.467	1	0
569.637	1	10
569.807	1	-4
569.977	1	6
570.147	1	-4
570.317	1	-4
570.487	1	5
570.656	1	-5
570.826	1	-3
570.996	1	-4
571.166	1	-2
571.336	1	1
571.506	1	-1
571.676	1	-5
571.846	1	-1
572.015	1	9
572.185	1	8
572.355	1	-5
572.525	1	-8
572.695	1	0
572.865	1	6
573.035	1	-13
573.205	1	-9
573.374	1	6
573.544	1	-3
573.714	1	10
573.884	1	3
574.054	1	-5
574.224	1	4
574.394	1	9
574.563	1	13
574.733	1	2
574.903	1	-2
575.073	1	-10
575.243	1	0
575.413	1	5
575.583	1	-2
575.752	1	1
575.922	1	5
576.092	1	1
576.262	1	0
576.432	1	13
576.602	1	-2
576.772	1	-7
576.941	1	14
577.111	1	5
577.281	1	12
577.451	1	-8
577.621	1	0
577.791	1	11
577.960	1	-4
578.130	1	-9
578.300	1	0
578.470	1	6
578.640	1	-2
578.810	1	-4
578.979	1	-2
579.149	1	-3
579.319	1	2
579.489	1	12
579.659	1	2
579.829	1	9
579.998	1	1
580.168	1	2
580.338	1	7
580.508	1	-5
580.678	1	4
580.848	1	-6
581.017	1	3
581.187	1	7
581.357	1	-1
581.527	1	-2
581.697	1	-8
581.867	1	1
582.036	1	6
582.206	1	-14
582.376	1	4
582.546	1	11
582.716	1	7
582.885	1	2
583.055	1	-1
583.225	1	-9
583.395	1	3
583.565	1	-8
583.735	1	-7
583.904	1	3
584.074	1	-6
584.244	1	-5
584.414	1	-6
584.584	1	7
584.753	1	7
584.923	1	0
585.093	1	-10
585.263	1	-2
585.433	1	4
585.602	1	-1
585.772	1	-2
585.942	1	-8
586.112	1	-4
586.282	1	0
586.451	1	-3
586.621	1	-4
586.791	1	8
586.961	1	4
587.131	1	1
587.300	1	4
587.470	1	0
587.640	1	-5
587.810	1	-5
587.980	1	-15
588.149	1	5
588.319	1	2
588.489	1	-2
588.659	1	5
588.829	1	-7
588.998	1	2
589.168	1	5
589.338	1	-6
589.508	1	5
589.677	1	1
589.847	1	6
590.017	1	2
590.187	1	0
590.357	1	1
590.526	1	13
590.696	1	2
590.866	1	-9
591.036	1	-5
591.205	1	3
591.375	1	1
591.545	1	5
591.715	1	-6
591.885	1	0
592.054	1	4
592.224	1	5
592.394	1	2
592.564	1	4
592.733	1	7
592.903	1	-2
593.073	1	-9
593.243	1	9
593.412	1	5
593.582	1	2
593.752	1	9
593.922	1	13
594.091	1	-10
594.261	1	-1
594.431	1	-3
594.601	1	-2
594.771	1	1
594.940	1	-1
595.110	1	-3
595.280	1	7
595.450	1	2
595.619	1	10
595.789	1	21
595.959	1	4
596.129	1	-11
596.298	1	7
596.468	1	-1
596.638	1	2
596.808	1	-1
596.977	1	8
597.147	1	-6
597.317	1	4
597.487	1	8
597.656	1	6
597.826	1	-2
597.996	1	5
598.166	1	6
598.335	1	-11
598.505	1	-6
598.675	1	-3
598.844	1	4
599.014	1	0
599.184	1	6
599.354	1	5
599.523	1	6
599.693	1	5
599.863	1	13
600.033	1	0
600.202	1	12
600.372	1	-8
600.542	1	-2
600.712	1	9
600.881	1	5
601.051	1	10
601.221	1	15
601.390	1	-5
601.560	1	8
601.730	1	-3
601.900	1	1
602.069	1	-6
602.239	1	10
602.409	1	4
602.578	1	10
602.748	1	-5
602.918	1	8
603.088	1	12
603.257	1	9
603.427	1	14
603.597	1	-3
603.767	1	-1
603.936	1	13
604.106	1	2
604.276	1	3
604.445	1	-5
604.615	1	-4
604.785	1	4
604.954	1	4
605.124	1	0
605.294	1	-5
605.464	1	-8
605.633	1	15
605.803	1	8
605.973	1	7
606.142	1	13
606.312	1	5
606.482	1	0
606.652	1	8
606.821	1	3
606.991	1	-5
607.161	1	10
607.330	1	-7
607.500	1	11
607.670	1	4
607.839	1	0
608.009	1	9
608.179	1	1
608.348	1	-4
608.518	1	-10
608.688	1	4
608.858	1	-2
609.027	1	-6
609.197	1	11
609.367	1	2
609.536	1	8
609.706	1	6
609.876	1	-4
610.045	1	5
610.215	1	1
610.385	1	-3
610.554	1	5
610.724	1	7
610.894	1	-5
611.063	1	2
611.233	1	-3
611.403	1	5
611.572	1	3
611.742	1	-7
611.912	1	5
612.081	1	-1
612.251	1	9
612.421	1	-2
612.590	1	-8
612.760	1	10
612.930	1	-3
613.099	1	6
613.269	1	-6
613.439	1	-4
613.608	1	3
613.778	1	-15
613.948	1	18
614.117	1	5
614.287	1	0
614.457	1	-5
614.626	1	16
614.796	1	3
614.966	1	0
615.135	1	6
615.305	1	10
615.475	1	-5
615.644	1	1
615.814	1	-1
615.984	1	0
616.153	1	2
616.323	1	5
616.493	1	3
616.662	1	0
616.832	1	6
617.002	1	-3
617.171	1	3
617.341	1	2
617.511	1	-4
617.680	1	-2
617.850	1	-4
618.019	1	0
618.189	1	-1
618.359	1	-8
618.528	1	0
618.698	1	3
618.868	1	-8
619.037	1	5
619.207	1	2
619.377	1	4
619.546	1	-15
619.716	1	4
619.885	1	3
620.055	1	5
620.225	1	12
620.394	1	10
620.564	1	-7
620.734	1	3
620.903	1	1
621.073	1	1
621.242	1	-5
621.412	1	7
621.582	1	-9
621.751	1	7
621.921	1	9
622.091	1	-1
622.260	1	5
622.430	1	4
622.599	1	4
622.769	1	-6
622.939	1	0
623.108	1	10
623.278	1	12
623.448	1	8
623.617	1	-1
623.787	1	8
623.956	1	3
624.126	1	-1
624.296	1	8
624.465	1	-2
624.635	1	3
624.804	1	-5
624.974	1	-1
625.144	1	13
625.313	1	13
625.483	1	7
625.652	1	9
625.822	1	9
625.992	1	10
626.161	1	-9
626.331	1	-7
626.501	1	0
626.670	1	-2
626.840	1	0
627.009	1	10
627.179	1	-2
627.348	1	11
627.518	1	3
627.688	1	7
627.857	1	-2
628.027	1	1
628.196	1	-5
628.366	1	12
628.536	1	-1
628.705	1	-7
628.875	1	2
629.044	1	10
629.214	1	3
629.384	1	5
629.553	1	9
629.723	1	0
629.892	1	1
630.062	1	-14
630.232	1	8
630.401	1	-1
630.571	1	3
630.740	1	0
630.910	1	2
631.079	1	7
631.249	1	-5
631.419	1	0
631.588	1	3
631.758	1	-1
631.927	1	-7
632.097	1	5
632.266	1	-5
632.436	1	4
632.606	1	-6
632.775	1	16
632.945	1	-8
633.114	1	1
633.284	1	1
633.453	1	10
633.623	1	15
633.793	1	2
633.962	1	-1
634.132	1	-1
634.301	1	-8
634.471	1	5
634.640	1	12
634.810	1	6
634.979	1	3
635.149	1	2
635.319	1	17
635.488	1	4
635.658	1	11
635.827	1	1
635.997	1	2
636.166	1	1
636.336	1	1
636.505	1	7
636.675	1	0
636.845	1	5
637.014	1	-4
637.184	1	11
637.353	1	4
637.523	1	0
637.692	1	-4
637.862	1	-1
638.031	1	-1
638.201	1	7
638.370	1	5
638.540	1	4
638.710	1	4
638.879	1	12
639.049	1	-8
639.218	1	15
639.388	1	0
639.557	1	12
639.727	1	9
639.896	1	4
640.066	1	2
640.235	1	4
640.405	1	-3
640.574	1	-4
640.744	1	2
640.914	1	-8
641.083	1	5
641.253	1	-3
641.422	1	6
641.592	1	3
641.761	1	-6
641.931	1	-2
642.100	1	10
642.270	1	-9
642.439	1	8
642.609	1	7
642.778	1	1
642.948	1	7
643.117	1	13
643.287	1	-3
643.456	1	4
643.626	1	3
643.795	1	5
643.965	1	1
644.134	1	9
644.304	1	9
644.473	1	10
644.643	1	-7
644.812	1	5
644.982	1	0
645.151	1	3
645.321	1	2
645.490	1	5
645.660	1	2
645.829	1	-1
645.999	1	4
646.168	1	-2
646.338	1	2
646.507	1	1
646.677	1	-3
646.846	1	0
647.016	1	0
647.185	1	3
647.355	1	3
647.524	1	4
647.694	1	-2
647.863	1	8
648.033	1	2
648.202	1	7
648.372	1	-5
648.541	1	4
648.711	1	6
648.880	1	3
649.050	1	1
649.219	1	3
649.389	1	-7
649.558	1	12
649.728	1	1
649.897	1	-1
650.067	1	2
650.236	1	6
650.406	1	15
650.575	1	-3
650.745	1	10
650.914	1	-1
651.084	1	-7
651.253	1	-1
651.423	1	6
651.592	1	-9
651.762	1	2
651.931	1	7
652.101	1	6
652.270	1	7
652.440	1	11
652.609	1	6
652.778	1	-3
652.948	1	-1
653.117	1	8
653.287	1	1
653.456	1	1
653.626	1	0
653.795	1	1
653.965	1	-3
654.134	1	-1
654.304	1	4
654.473	1	1
654.643	1	11
654.812	1	8
654.982	1	-1
655.151	1	12
655.320	1	3
655.490	1	7
655.659	1	9
655.829	1	7
655.998	1	-4
656.168	1	-5
656.337	1	-4
656.507	1	1
656.676	1	1
656.846	1	0
657.015	1	1
657.184	1	-4
657.354	1	6
657.523	1	5
657.693	1	-10
657.862	1	0
658.032	1	7
658.201	1	-1
658.371	1	-2
658.540	1	9
658.709	1	-3
658.879	1	3
659.048	1	4
659.218	1	-4
659.387	1	2
659.557	1	5
659.726	1	6
659.895	1	-2
660.065	1	14
660.234	1	3
660.404	1	4
660.573	1	4
660.743	1	2
660.912	1	-1
661.081	1	-11
661.251	1	7
661.420	1	15
661.590	1	2
661.759	1	-5
661.929	1	1
662.098	1	11
662.267	1	6
662.437	1	6
662.606	1	5
662.776	1	-8
662.945	1	8
663.115	1	5
663.284	1	-5
663.453	1	7
663.623	1	14
663.792	1	2
663.962	1	-6
664.131	1	-3
664.300	1	-1
664.470	1	7
664.639	1	2
664.809	1	-3
664.978	1	3
665.148	1	-1
665.317	1	-5
665.486	1	6
665.656	1	5
665.825	1	2
665.995	1	2
666.164	1	14
666.333	1	-2
666.503	1	-4
666.672	1	10
666.842	1	0
667.011	1	-16
667.180	1	4
667.350	1	-7
667.519	1	-2
667.689	1	5
667.858	1	-5
668.027	1	0
668.197	1	12
668.366	1	-7
668.536	1	6
668.705	1	6
668.874	1	-2
669.044	1	-2
669.213	1	5
669.382	1	7
669.552	1	8
669.721	1	5
669.891	1	3
670.060	1	4
670.229	1	-6
670.399	1	-1
670.568	1	-2
670.738	1	5
670.907	1	-2
671.076	1	-1
671.246	1	-9
671.415	1	2
671.584	1	-1
671.754	1	-5
671.923	1	10
672.093	1	2
672.262	1	-5
672.431	1	11
672.601	1	7
672.770	1	-4
672.939	1	4
673.109	1	5
673.278	1	-9
673.448	1	2
673.617	1	2
673.786	1	8
