325.333	1	10
325.504	1	12
325.675	1	7
325.846	1	1
326.017	1	6
326.188	1	20
326.359	1	17
326.531	1	14
326.702	1	12
326.873	1	1
327.044	1	11
327.215	1	2
327.386	1	20
327.557	1	13
327.728	1	20
327.899	1	3
328.070	1	25
328.241	1	10
328.412	1	3
328.583	1	10
328.754	1	3
328.926	1	22
329.097	1	4
329.268	1	-2
329.439	1	10
329.610	1	4
329.781	1	8
329.952	1	3
330.123	1	10
330.294	1	6
330.465	1	15
330.636	1	20
330.807	1	0
330.978	1	8
331.149	1	9
331.320	1	10
331.492	1	5
331.663	1	5
331.834	1	4
332.005	1	16
332.176	1	13
332.347	1	15
332.518	1	18
332.689	1	16
332.860	1	12
333.031	1	18
333.202	1	-1
333.373	1	6
333.544	1	8
333.715	1	8
333.886	1	6
334.057	1	9
334.228	1	6
334.399	1	13
334.570	1	10
334.741	1	11
334.912	1	9
335.084	1	6
335.255	1	19
335.426	1	6
335.597	1	17
335.768	1	10
335.939	1	8
336.110	1	14
336.281	1	16
336.452	1	12
336.623	1	3
336.794	1	17
336.965	1	2
337.136	1	6
337.307	1	13
337.478	1	3
337.649	1	6
337.820	1	-3
337.991	1	22
338.162	1	13
338.333	1	14
338.504	1	14
338.675	1	18
338.846	1	5
339.017	1	22
339.188	1	27
339.359	1	18
339.530	1	1
339.701	1	6
339.872	1	18
340.043	1	12
340.214	1	5
340.385	1	16
340.556	1	3
340.727	1	13
340.898	1	12
341.069	1	-2
341.240	1	-5
341.411	1	29
341.582	1	18
341.753	1	4
341.924	1	3
342.095	1	24
342.266	1	4
342.437	1	5
342.608	1	10
342.779	1	17
342.950	1	22
343.121	1	7
343.292	1	19
343.463	1	13
343.634	1	18
343.805	1	16
343.976	1	2
344.147	1	23
344.318	1	14
344.489	1	11
344.660	1	17
344.831	1	11
345.002	1	18
345.173	1	11
345.344	1	11
345.515	1	16
345.686	1	-1
345.857	1	9
346.028	1	-1
346.199	1	19
346.370	1	13
346.541	1	11
346.712	1	6
346.883	1	27
347.054	1	8
347.225	1	14
347.396	1	8
347.567	1	13
347.738	1	19
347.909	1	16
348.080	1	22
348.251	1	18
348.422	1	9
348.593	1	14
348.764	1	7
348.935	1	18
349.106	1	17
349.277	1	14
349.448	1	11
349.619	1	13
349.790	1	24
349.961	1	18
350.132	1	23
350.303	1	12
350.474	1	16
350.645	1	19
350.816	1	11
350.987	1	19
351.157	1	11
351.328	1	10
351.499	1	18
351.670	1	12
351.841	1	13
352.012	1	14
352.183	1	18
352.354	1	15
352.525	1	9
352.696	1	15
352.867	1	26
353.038	1	7
353.209	1	16
353.380	1	1
353.551	1	10
353.722	1	13
353.893	1	14
354.064	1	10
354.235	1	17
354.406	1	13
354.576	1	21
354.747	1	26
354.918	1	32
355.089	1	23
355.260	1	29
355.431	1	17
355.602	1	11
355.773	1	11
355.944	1	20
356.115	1	14
356.286	1	16
356.457	1	19
356.628	1	8
356.799	1	13
356.970	1	15
357.141	1	20
357.311	1	16
357.482	1	10
357.653	1	18
357.824	1	22
357.995	1	19
358.166	1	15
358.337	1	14
358.508	1	23
358.679	1	20
358.850	1	7
359.021	1	33
359.192	1	12
359.363	1	-2
359.533	1	15
359.704	1	14
359.875	1	20
360.046	1	10
360.217	1	15
360.388	1	7
360.559	1	22
360.730	1	11
360.901	1	18
361.072	1	15
361.243	1	9
361.414	1	24
361.584	1	28
361.755	1	17
361.926	1	14
362.097	1	11
362.268	1	28
362.439	1	25
362.610	1	14
362.781	1	18
362.952	1	14
363.123	1	15
363.293	1	16
363.464	1	15
363.635	1	20
363.806	1	18
363.977	1	23
364.148	1	23
364.319	1	14
364.490	1	20
364.661	1	15
364.832	1	18
365.002	1	11
365.173	1	11
365.344	1	24
365.515	1	18
365.686	1	15
365.857	1	19
366.028	1	11
366.199	1	23
366.370	1	15
366.540	1	9
366.711	1	23
366.882	1	13
367.053	1	18
367.224	1	11
367.395	1	27
367.566	1	32
367.737	1	23
367.908	1	12
368.078	1	12
368.249	1	26
368.420	1	24
368.591	1	18
368.762	1	4
368.933	1	29
369.104	1	12
369.274	1	23
369.445	1	30
369.616	1	14
369.787	1	10
369.958	1	33
370.129	1	17
370.300	1	18
370.471	1	14
370.641	1	12
370.812	1	25
370.983	1	11
371.154	1	27
371.325	1	16
371.496	1	14
371.667	1	28
371.837	1	25
372.008	1	26
372.179	1	21
372.350	1	21
372.521	1	22
372.692	1	24
372.863	1	18
373.033	1	30
373.204	1	26
373.375	1	14
373.546	1	28
373.717	1	21
373.888	1	29
374.059	1	20
374.229	1	20
374.400	1	26
374.571	1	36
374.742	1	26
374.913	1	26
375.084	1	38
375.254	1	19
375.425	1	27
375.596	1	28
375.767	1	7
375.938	1	23
376.109	1	23
376.279	1	20
376.450	1	18
376.621	1	34
376.792	1	26
376.963	1	22
377.134	1	32
377.304	1	22
377.475	1	16
377.646	1	22
377.817	1	13
377.988	1	17
378.159	1	22
378.329	1	28
378.500	1	16
378.671	1	21
378.842	1	13
379.013	1	29
379.184	1	25
379.354	1	20
379.525	1	13
379.696	1	30
379.867	1	12
380.038	1	23
380.209	1	22
380.379	1	28
380.550	1	20
380.721	1	21
380.892	1	26
381.063	1	8
381.233	1	18
381.404	1	19
381.575	1	24
381.746	1	25
381.917	1	22
382.087	1	18
382.258	1	28
382.429	1	27
382.600	1	33
382.771	1	31
382.941	1	22
383.112	1	22
383.283	1	33
383.454	1	21
383.625	1	20
383.795	1	26
383.966	1	26
384.137	1	29
384.308	1	23
384.479	1	36
384.649	1	29
384.820	1	20
384.991	1	24
385.162	1	29
385.333	1	24
385.503	1	34
385.674	1	26
385.845	1	24
386.016	1	20
386.187	1	27
386.357	1	16
386.528	1	17
386.699	1	13
386.870	1	24
387.041	1	32
387.211	1	25
387.382	1	18
387.553	1	41
387.724	1	21
387.894	1	28
388.065	1	43
388.236	1	31
388.407	1	24
388.578	1	30
388.748	1	22
388.919	1	35
389.090	1	34
389.261	1	35
389.431	1	31
389.602	1	18
389.773	1	1
389.944	1	21
390.114	1	37
390.285	1	30
390.456	1	27
390.627	1	32
390.798	1	30
390.968	1	19
391.139	1	30
391.310	1	27
391.481	1	32
391.651	1	30
391.822	1	35
391.993	1	26
392.164	1	16
392.334	1	22
392.505	1	18
392.676	1	24
392.847	1	43
393.017	1	23
393.188	1	28
393.359	1	30
393.530	1	34
393.700	1	27
393.871	1	34
394.042	1	33
394.213	1	31
394.383	1	38
394.554	1	27
394.725	1	30
394.896	1	28
395.066	1	26
395.237	1	23
395.408	1	30
395.579	1	29
395.749	1	29
395.920	1	36
396.091	1	27
396.262	1	25
396.432	1	24
396.603	1	26
396.774	1	28
396.945	1	26
397.115	1	20
397.286	1	38
397.457	1	25
397.627	1	22
397.798	1	28
397.969	1	28
398.140	1	27
398.310	1	25
398.481	1	33
398.652	1	26
398.823	1	26
398.993	1	47
399.164	1	35
399.335	1	31
399.505	1	36
399.676	1	39
399.847	1	38
400.018	1	31
400.188	1	33
400.359	1	48
400.530	1	31
400.700	1	28
400.871	1	47
401.042	1	41
401.213	1	43
401.383	1	32
401.554	1	40
401.725	1	22
401.895	1	29
402.066	1	52
402.237	1	33
402.408	1	43
402.578	1	37
402.749	1	39
402.920	1	39
403.090	1	34
403.261	1	37
403.432	1	34
403.603	1	27
403.773	1	42
403.944	1	47
404.115	1	18
404.285	1	35
404.456	1	32
404.627	1	37
404.797	1	31
404.968	1	23
405.139	1	35
405.310	1	35
405.480	1	36
405.651	1	34
405.822	1	43
405.992	1	35
406.163	1	28
406.334	1	37
406.504	1	22
406.675	1	17
406.846	1	47
407.016	1	25
407.187	1	35
407.358	1	33
407.528	1	46
407.699	1	33
407.870	1	46
408.041	1	32
408.211	1	39
408.382	1	25
408.553	1	21
408.723	1	45
408.894	1	34
409.065	1	52
409.235	1	31
409.406	1	34
409.577	1	33
409.747	1	46
409.918	1	36
410.089	1	33
410.259	1	31
410.430	1	38
410.601	1	45
410.771	1	49
410.942	1	26
411.113	1	44
411.283	1	42
411.454	1	37
411.625	1	39
411.795	1	35
411.966	1	40
412.137	1	37
412.307	1	36
412.478	1	43
412.649	1	36
412.819	1	30
412.990	1	51
413.161	1	44
413.331	1	37
413.502	1	24
413.672	1	33
413.843	1	35
414.014	1	51
414.184	1	40
414.355	1	29
414.526	1	40
414.696	1	37
414.867	1	40
415.038	1	30
415.208	1	32
415.379	1	39
415.550	1	44
415.720	1	41
415.891	1	39
416.062	1	47
416.232	1	38
416.403	1	38
416.573	1	37
416.744	1	37
416.915	1	40
417.085	1	34
417.256	1	37
417.427	1	48
417.597	1	36
417.768	1	40
417.939	1	32
418.109	1	24
418.280	1	34
418.450	1	37
418.621	1	38
418.792	1	30
418.962	1	35
419.133	1	45
419.304	1	21
419.474	1	29
419.645	1	35
419.815	1	30
419.986	1	32
420.157	1	43
420.327	1	36
420.498	1	28
420.669	1	40
420.839	1	37
421.010	1	36
421.180	1	26
421.351	1	51
421.522	1	38
421.692	1	47
421.863	1	39
422.033	1	47
422.204	1	39
422.375	1	29
422.545	1	45
422.716	1	39
422.886	1	53
423.057	1	24
423.228	1	39
423.398	1	33
423.569	1	44
423.740	1	38
423.910	1	58
424.081	1	42
424.251	1	29
424.422	1	26
424.593	1	35
424.763	1	31
424.934	1	34
425.104	1	39
425.275	1	44
425.445	1	57
425.616	1	48
425.787	1	39
425.957	1	33
426.128	1	41
426.298	1	39
426.469	1	21
426.640	1	36
426.810	1	52
426.981	1	34
427.151	1	37
427.322	1	33
427.493	1	39
427.663	1	38
427.834	1	30
428.004	1	41
428.175	1	41
428.345	1	35
428.516	1	37
428.687	1	34
428.857	1	37
429.028	1	37
429.198	1	33
429.369	1	32
429.540	1	23
429.710	1	34
429.881	1	45
430.051	1	28
430.222	1	44
430.392	1	43
430.563	1	40
430.734	1	32
430.904	1	42
431.075	1	25
431.245	1	35
431.416	1	17
431.586	1	39
431.757	1	45
431.927	1	17
432.098	1	42
432.269	1	47
432.439	1	33
432.610	1	46
432.780	1	28
432.951	1	37
433.121	1	41
433.292	1	39
433.462	1	47
433.633	1	46
433.804	1	27
433.974	1	32
434.145	1	34
434.315	1	46
434.486	1	27
434.656	1	33
434.827	1	39
434.997	1	52
435.168	1	35
435.339	1	35
435.509	1	38
435.680	1	31
435.850	1	32
436.021	1	43
436.191	1	52
436.362	1	41
436.532	1	37
436.703	1	48
436.873	1	38
437.044	1	40
437.214	1	37
437.385	1	41
437.556	1	28
437.726	1	38
437.897	1	25
438.067	1	37
438.238	1	38
438.408	1	45
438.579	1	40
438.749	1	37
438.920	1	34
439.090	1	30
439.261	1	30
439.431	1	37
439.602	1	36
439.772	1	43
439.943	1	42
440.113	1	32
440.284	1	36
440.455	1	37
440.625	1	34
440.796	1	29
440.966	1	37
441.137	1	36
441.307	1	29
441.478	1	31
441.648	1	42
441.819	1	41
441.989	1	17
442.160	1	31
442.330	1	43
442.501	1	22
442.671	1	30
442.842	1	46
443.012	1	26
443.183	1	47
443.353	1	36
443.524	1	31
443.694	1	40
443.865	1	48
444.035	1	39
444.206	1	35
444.376	1	35
444.547	1	28
444.717	1	31
444.888	1	23
445.058	1	46
445.229	1	33
445.399	1	24
445.570	1	26
445.740	1	45
445.911	1	41
446.081	1	46
446.252	1	28
446.422	1	39
446.593	1	40
446.763	1	34
446.934	1	38
447.104	1	34
447.275	1	38
447.445	1	37
447.616	1	37
447.786	1	35
447.957	1	33
448.127	1	48
448.298	1	37
448.468	1	38
448.639	1	34
448.809	1	29
448.979	1	36
449.150	1	30
449.320	1	42
449.491	1	43
449.661	1	43
449.832	1	34
450.002	1	33
450.173	1	41
450.343	1	32
450.514	1	40
450.684	1	39
450.855	1	29
451.025	1	25
451.196	1	25
451.366	1	31
451.537	1	33
451.707	1	33
451.878	1	37
452.048	1	41
452.218	1	23
452.389	1	39
452.559	1	32
452.730	1	30
452.900	1	35
453.071	1	27
453.241	1	49
453.412	1	30
453.582	1	14
453.753	1	34
453.923	1	46
454.093	1	34
454.264	1	30
454.434	1	35
454.605	1	26
454.775	1	38
454.946	1	31
455.116	1	26
455.287	1	26
455.457	1	31
455.628	1	33
455.798	1	27
455.968	1	33
456.139	1	32
456.309	1	38
456.480	1	37
456.650	1	48
456.821	1	43
456.991	1	28
457.161	1	38
457.332	1	25
457.502	1	30
457.673	1	40
457.843	1	20
458.014	1	39
458.184	1	42
458.355	1	30
458.525	1	32
458.695	1	35
458.866	1	42
459.036	1	25
459.207	1	37
459.377	1	40
459.548	1	23
459.718	1	28
459.888	1	32
460.059	1	43
460.229	1	25
460.400	1	28
460.570	1	34
460.740	1	19
460.911	1	31
461.081	1	44
461.252	1	26
461.422	1	29
461.593	1	39
461.763	1	25
461.933	1	25
462.104	1	32
462.274	1	22
462.445	1	21
462.615	1	44
462.785	1	23
462.956	1	26
463.126	1	28
463.297	1	30
463.467	1	27
463.638	1	22
463.808	1	40
463.978	1	37
464.149	1	18
464.319	1	35
464.490	1	36
464.660	1	30
464.830	1	41
465.001	1	22
465.171	1	19
465.342	1	26
465.512	1	26
465.682	1	26
465.853	1	28
466.023	1	28
466.194	1	30
466.364	1	40
466.534	1	31
466.705	1	15
466.875	1	34
467.045	1	33
467.216	1	30
467.386	1	37
467.557	1	34
467.727	1	25
467.897	1	30
468.068	1	19
468.238	1	22
468.409	1	24
468.579	1	34
468.749	1	14
468.920	1	12
469.090	1	37
469.260	1	33
469.431	1	29
469.601	1	29
469.772	1	24
469.942	1	29
470.112	1	29
470.283	1	36
470.453	1	24
470.623	1	13
470.794	1	17
470.964	1	29
471.135	1	36
471.305	1	30
471.475	1	18
471.646	1	35
471.816	1	16
471.986	1	32
472.157	1	32
472.327	1	18
472.497	1	33
472.668	1	21
472.838	1	26
473.009	1	28
473.179	1	25
473.349	1	31
473.520	1	20
473.690	1	36
473.860	1	28
474.031	1	23
474.201	1	31
474.371	1	19
474.542	1	40
474.712	1	21
474.882	1	14
475.053	1	31
475.223	1	12
475.394	1	19
475.564	1	24
475.734	1	31
475.905	1	32
476.075	1	18
476.245	1	20
476.416	1	24
476.586	1	18
476.756	1	22
476.927	1	17
477.097	1	25
477.267	1	30
477.438	1	24
477.608	1	17
477.778	1	27
477.949	1	18
478.119	1	24
478.289	1	8
478.460	1	10
478.630	1	31
478.800	1	36
478.971	1	18
479.141	1	29
479.311	1	38
479.482	1	42
479.652	1	31
479.822	1	18
479.993	1	9
480.163	1	24
480.333	1	19
480.504	1	10
480.674	1	25
480.844	1	22
481.015	1	20
481.185	1	15
481.355	1	31
481.525	1	28
481.696	1	21
481.866	1	23
482.036	1	24
482.207	1	28
482.377	1	24
482.547	1	24
482.718	1	21
482.888	1	23
483.058	1	27
483.229	1	18
483.399	1	32
483.569	1	19
483.740	1	18
483.910	1	12
484.080	1	10
484.250	1	14
484.421	1	19
484.591	1	28
484.761	1	25
484.932	1	22
485.102	1	26
485.272	1	15
485.443	1	15
485.613	1	21
485.783	1	28
485.953	1	23
486.124	1	20
486.294	1	18
486.464	1	15
486.635	1	29
486.805	1	18
486.975	1	24
487.146	1	12
487.316	1	28
487.486	1	16
487.656	1	15
487.827	1	7
487.997	1	15
488.167	1	21
488.338	1	16
488.508	1	15
488.678	1	15
488.848	1	23
489.019	1	15
489.189	1	15
489.359	1	17
489.529	1	27
489.700	1	22
489.870	1	10
490.040	1	1
490.211	1	19
490.381	1	13
490.551	1	5
490.721	1	14
490.892	1	19
491.062	1	10
491.232	1	19
491.402	1	21
491.573	1	14
491.743	1	17
491.913	1	18
492.084	1	12
492.254	1	25
492.424	1	14
492.594	1	24
492.765	1	11
492.935	1	18
493.105	1	26
493.275	1	17
493.446	1	15
493.616	1	16
493.786	1	22
493.956	1	11
494.127	1	26
494.297	1	7
494.467	1	20
494.637	1	20
494.808	1	20
494.978	1	13
495.148	1	23
495.318	1	17
495.489	1	6
495.659	1	7
495.829	1	13
495.999	1	20
496.170	1	9
496.340	1	19
496.510	1	14
496.680	1	16
496.851	1	20
497.021	1	9
497.191	1	27
497.361	1	11
497.532	1	15
497.702	1	21
497.872	1	18
498.042	1	24
498.213	1	23
498.383	1	23
498.553	1	15
498.723	1	14
498.894	1	17
499.064	1	11
499.234	1	12
499.404	1	14
499.574	1	19
499.745	1	19
499.915	1	11
500.085	1	18
500.255	1	15
500.426	1	7
500.596	1	7
500.766	1	13
500.936	1	22
501.106	1	9
501.277	1	25
501.447	1	18
501.617	1	19
501.787	1	19
501.958	1	17
502.128	1	9
502.298	1	8
502.468	1	19
502.638	1	13
502.809	1	13
502.979	1	22
503.149	1	6
503.319	1	15
503.489	1	16
503.660	1	6
503.830	1	10
504.000	1	12
504.170	1	17
504.340	1	17
504.511	1	15
504.681	1	10
504.851	1	18
505.021	1	37
505.192	1	8
505.362	1	12
505.532	1	20
505.702	1	13
505.872	1	10
506.043	1	19
506.213	1	17
506.383	1	7
506.553	1	19
506.723	1	19
506.893	1	3
507.064	1	3
507.234	1	3
507.404	1	15
507.574	1	15
507.744	1	21
507.915	1	7
508.085	1	16
508.255	1	9
508.425	1	10
508.595	1	3
508.766	1	4
508.936	1	15
509.106	1	16
509.276	1	9
509.446	1	12
509.616	1	18
509.787	1	11
509.957	1	14
510.127	1	6
510.297	1	14
510.467	1	3
510.638	1	18
510.808	1	5
510.978	1	12
511.148	1	22
511.318	1	7
511.488	1	18
511.659	1	8
511.829	1	10
511.999	1	12
512.169	1	14
512.339	1	9
512.509	1	13
512.680	1	16
512.850	1	11
513.020	1	3
513.190	1	10
513.360	1	20
513.530	1	15
513.700	1	20
513.871	1	13
514.041	1	10
514.211	1	21
514.381	1	14
514.551	1	13
514.721	1	19
514.892	1	7
515.062	1	13
515.232	1	16
515.402	1	10
515.572	1	16
515.742	1	14
515.912	1	11
516.083	1	8
516.253	1	16
516.423	1	9
516.593	1	17
516.763	1	10
516.933	1	-6
517.104	1	4
517.274	1	3
517.444	1	-2
517.614	1	-4
517.784	1	16
517.954	1	19
518.124	1	15
518.294	1	14
518.465	1	10
518.635	1	9
518.805	1	17
518.975	1	7
519.145	1	10
519.315	1	-5
519.485	1	0
519.656	1	9
519.826	1	9
519.996	1	6
520.166	1	18
520.336	1	13
520.506	1	-5
520.676	1	15
520.846	1	3
521.017	1	4
521.187	1	22
521.357	1	7
521.527	1	14
521.697	1	14
521.867	1	9
522.037	1	4
522.207	1	3
522.377	1	9
522.548	1	10
522.718	1	9
522.888	1	12
523.058	1	7
523.228	1	17
523.398	1	9
523.568	1	5
523.738	1	16
523.909	1	14
524.079	1	12
524.249	1	10
524.419	1	13
524.589	1	2
524.759	1	12
524.929	1	-3
525.099	1	9
525.269	1	15
525.439	1	8
525.610	1	6
525.780	1	9
525.950	1	5
526.120	1	10
526.290	1	3
526.460	1	-4
526.630	1	18
526.800	1	9
526.970	1	17
527.140	1	8
527.311	1	4
527.481	1	19
527.651	1	14
527.821	1	0
527.991	1	12
528.161	1	8
528.331	1	12
528.501	1	10
528.671	1	-2
528.841	1	14
529.011	1	5
529.181	1	8
529.352	1	13
529.522	1	12
529.692	1	0
529.862	1	15
530.032	1	8
530.202	1	3
530.372	1	6
530.542	1	7
530.712	1	11
530.882	1	9
531.052	1	13
531.222	1	9
531.392	1	9
531.563	1	2
531.733	1	11
531.903	1	18
532.073	1	6
532.243	1	10
532.413	1	15
532.583	1	6
532.753	1	6
532.923	1	14
533.093	1	18
533.263	1	5
533.433	1	15
533.603	1	9
533.773	1	4
533.943	1	5
534.113	1	12
534.284	1	5
534.454	1	-1
534.624	1	15
534.794	1	4
534.964	1	10
535.134	1	17
535.304	1	4
535.474	1	-3
535.644	1	3
535.814	1	6
535.984	1	12
536.154	1	14
536.324	1	12
536.494	1	4
536.664	1	18
536.834	1	7
537.004	1	5
537.174	1	8
537.344	1	12
537.514	1	10
537.685	1	8
537.855	1	6
538.025	1	5
538.195	1	0
538.365	1	6
538.535	1	0
538.705	1	15
538.875	1	12
539.045	1	10
539.215	1	-4
539.385	1	1
539.555	1	8
539.725	1	8
539.895	1	17
540.065	1	4
540.235	1	7
540.405	1	6
540.575	1	8
540.745	1	8
540.915	1	6
541.085	1	-4
541.255	1	-4
541.425	1	5
541.595	1	8
541.765	1	16
541.935	1	9
542.105	1	6
542.275	1	5
542.445	1	-2
542.615	1	16
542.785	1	-2
542.955	1	-5
543.125	1	6
543.295	1	0
543.465	1	6
543.635	1	10
543.805	1	11
543.975	1	0
544.145	1	8
544.315	1	-4
544.485	1	1
544.655	1	11
544.825	1	10
544.995	1	7
545.165	1	19
545.335	1	5
545.505	1	18
545.675	1	-4
545.845	1	13
546.015	1	7
546.185	1	10
546.355	1	9
546.525	1	4
546.695	1	4
546.865	1	12
547.035	1	10
547.205	1	10
547.375	1	16
547.545	1	9
547.715	1	15
547.885	1	11
548.055	1	2
548.225	1	7
548.395	1	-4
548.565	1	15
548.735	1	8
548.905	1	0
549.075	1	8
549.245	1	6
549.415	1	-1
549.585	1	4
549.755	1	8
549.925	1	10
550.095	1	9
550.265	1	0
550.435	1	-6
550.605	1	3
550.775	1	4
550.945	1	16
551.115	1	10
551.285	1	7
551.455	1	12
551.625	1	-3
551.795	1	-3
551.965	1	11
552.135	1	6
552.305	1	3
552.475	1	-1
552.645	1	8
552.815	1	4
552.985	1	0
553.155	1	-2
553.325	1	9
553.495	1	9
553.665	1	19
553.835	1	15
554.004	1	7
554.174	1	12
554.344	1	5
554.514	1	6
554.684	1	0
554.854	1	2
555.024	1	-1
555.194	1	-3
555.364	1	6
555.534	1	9
555.704	1	15
555.874	1	1
556.044	1	17
556.214	1	7
556.384	1	8
556.554	1	8
556.724	1	8
556.894	1	0
557.064	1	12
557.234	1	1
557.404	1	-1
557.573	1	-2
557.743	1	8
557.913	1	3
558.083	1	7
558.253	1	-1
558.423	1	1
558.593	1	10
558.763	1	18
558.933	1	0
559.103	1	12
559.273	1	8
559.443	1	11
559.613	1	7
559.783	1	11
559.953	1	12
560.122	1	0
560.292	1	3
560.462	1	1
560.632	1	12
560.802	1	10
560.972	1	6
561.142	1	10
561.312	1	8
561.482	1	11
561.652	1	4
561.822	1	2
561.992	1	-13
562.162	1	9
562.331	1	10
562.501	1	-2
562.671	1	12
562.841	1	4
563.011	1	2
563.181	1	17
563.351	1	7
563.521	1	4
563.691	1	16
563.861	1	-9
564.031	1	-1
564.201	1	7
564.370	1	8
564.540	1	-3
564.710	1	3
564.880	1	12
565.050	1	8
565.220	1	6
565.390	1	5
565.560	1	-4
565.730	1	9
565.900	1	-5
566.069	1	5
566.239	1	5
566.409	1	13
566.579	1	4
566.749	1	9
566.919	1	9
567.089	1	2
567.259	1	14
567.429	1	6
567.599	1	0
567.768	1	4
567.938	1	-10
568.108	1	15
568.278	1	3
568.448	1	4
568.618	1	8
568.788	1	-4
568.958	1	0
569.128	1	-3
569.297	1	-2
569.467	1	4
569.637	1	7
569.807	1	-1
569.977	1	8
570.147	1	5
570.317	1	14
570.487	1	14
570.656	1	9
570.826	1	7
570.996	1	3
571.166	1	4
571.336	1	3
571.506	1	1
571.676	1	-1
571.846	1	7
572.015	1	15
572.185	1	5
572.355	1	0
572.525	1	-1
572.695	1	4
572.865	1	9
573.035	1	-5
573.205	1	1
573.374	1	13
573.544	1	0
573.714	1	12
573.884	1	2
574.054	1	9
574.224	1	0
574.394	1	-3
574.563	1	6
574.733	1	4
574.903	1	7
575.073	1	4
575.243	1	8
575.413	1	3
575.583	1	4
575.752	1	7
575.922	1	6
576.092	1	-2
576.262	1	5
576.432	1	15
576.602	1	10
576.772	1	-1
576.941	1	8
577.111	1	1
577.281	1	16
577.451	1	1
577.621	1	1
577.791	1	0
577.960	1	-6
578.130	1	14
578.300	1	7
578.470	1	20
578.640	1	-3
578.810	1	6
578.979	1	6
579.149	1	0
579.319	1	7
579.489	1	8
579.659	1	5
579.829	1	9
579.998	1	4
580.168	1	4
580.338	1	6
580.508	1	2
580.678	1	15
580.848	1	6
581.017	1	-1
581.187	1	7
581.357	1	8
581.527	1	2
581.697	1	-4
581.867	1	14
582.036	1	11
582.206	1	7
582.376	1	-4
582.546	1	16
582.716	1	-5
582.885	1	3
583.055	1	3
583.225	1	-11
583.395	1	12
583.565	1	0
583.735	1	2
583.904	1	12
584.074	1	-1
584.244	1	-4
584.414	1	-1
584.584	1	9
584.753	1	8
584.923	1	13
585.093	1	2
585.263	1	5
585.433	1	13
585.602	1	5
585.772	1	8
585.942	1	14
586.112	1	3
586.282	1	10
586.451	1	3
586.621	1	-9
586.791	1	-2
586.961	1	6
587.131	1	4
587.300	1	10
587.470	1	0
587.640	1	-5
587.810	1	5
587.980	1	-3
588.149	1	8
588.319	1	0
588.489	1	3
588.659	1	6
588.829	1	-2
588.998	1	-2
589.168	1	13
589.338	1	7
589.508	1	13
589.677	1	3
589.847	1	9
590.017	1	7
590.187	1	10
590.357	1	1
590.526	1	20
590.696	1	6
590.866	1	-1
591.036	1	1
591.205	1	14
591.375	1	5
591.545	1	-1
591.715	1	-11
591.885	1	3
592.054	1	10
592.224	1	3
592.394	1	-2
592.564	1	3
592.733	1	7
592.903	1	8
593.073	1	2
593.243	1	6
593.412	1	-1
593.582	1	-1
593.752	1	10
593.922	1	15
594.091	1	-2
594.261	1	-3
594.431	1	2
594.601	1	1
594.771	1	16
594.940	1	7
595.110	1	-1
595.280	1	5
595.450	1	8
595.619	1	4
595.789	1	13
595.959	1	6
596.129	1	4
596.298	1	13
596.468	1	10
596.638	1	11
596.808	1	-1
596.977	1	2
597.147	1	11
597.317	1	5
597.487	1	14
597.656	1	7
597.826	1	-3
597.996	1	5
598.166	1	5
598.335	1	1
598.505	1	0
598.675	1	-3
598.844	1	6
599.014	1	5
599.184	1	7
599.354	1	9
599.523	1	5
599.693	1	10
599.863	1	12
600.033	1	-6
600.202	1	6
600.372	1	8
600.542	1	-2
600.712	1	16
600.881	1	15
601.051	1	12
601.221	1	9
601.390	1	8
601.560	1	5
601.730	1	4
601.900	1	9
602.069	1	2
602.239	1	1
602.409	1	13
602.578	1	12
602.748	1	7
602.918	1	13
603.088	1	15
603.257	1	13
603.427	1	24
603.597	1	329
603.767	1	142
603.936	1	17
604.106	1	7
604.276	1	13
604.445	1	1
604.615	1	5
604.785	1	8
604.954	1	10
605.124	1	8
605.294	1	2
605.464	1	-1
605.633	1	10
605.803	1	20
605.973	1	8
606.142	1	-1
606.312	1	23
606.482	1	6
606.652	1	9
606.821	1	4
606.991	1	-1
607.161	1	19
607.330	1	10
607.500	1	19
607.670	1	1
607.839	1	-3
608.009	1	-1
608.179	1	9
608.348	1	7
608.518	1	0
608.688	1	7
608.858	1	3
609.027	1	0
609.197	1	17
609.367	1	4
609.536	1	11
609.706	1	4
609.876	1	4
610.045	1	7
610.215	1	12
610.385	1	4
610.554	1	10
610.724	1	12
610.894	1	2
611.063	1	11
611.233	1	3
611.403	1	2
611.572	1	6
611.742	1	4
611.912	1	4
612.081	1	7
612.251	1	12
612.421	1	7
612.590	1	2
612.760	1	15
612.930	1	7
613.099	1	7
613.269	1	1
613.439	1	5
613.608	1	14
613.778	1	-2
613.948	1	12
614.117	1	2
614.287	1	9
614.457	1	2
614.626	1	16
614.796	1	3
614.966	1	2
615.135	1	8
615.305	1	10
615.475	1	0
615.644	1	7
615.814	1	3
615.984	1	3
616.153	1	14
616.323	1	2
616.493	1	13
616.662	1	7
616.832	1	0
617.002	1	10
617.171	1	9
617.341	1	9
617.511	1	4
617.680	1	5
617.850	1	7
618.019	1	4
618.189	1	7
618.359	1	3
618.528	1	3
618.698	1	9
618.868	1	-3
619.037	1	8
619.207	1	14
619.377	1	9
619.546	1	-3
619.716	1	-1
619.885	1	10
620.055	1	21
620.225	1	16
620.394	1	7
620.564	1	4
620.734	1	0
620.903	1	6
621.073	1	11
621.242	1	7
621.412	1	10
621.582	1	-4
621.751	1	-2
621.921	1	22
622.091	1	7
622.260	1	8
622.430	1	18
622.599	1	13
622.769	1	7
622.939	1	1
623.108	1	8
623.278	1	19
623.448	1	4
623.617	1	10
623.787	1	16
623.956	1	12
624.126	1	3
624.296	1	22
624.465	1	4
624.635	1	11
624.804	1	7
624.974	1	13
625.144	1	19
625.313	1	10
625.483	1	9
625.652	1	18
625.822	1	12
625.992	1	15
626.161	1	5
626.331	1	1
626.501	1	2
626.670	1	-2
626.840	1	5
627.009	1	20
627.179	1	-6
627.348	1	12
627.518	1	5
627.688	1	10
627.857	1	14
628.027	1	1
628.196	1	-2
628.366	1	12
628.536	1	12
628.705	1	3
628.875	1	14
629.044	1	15
629.214	1	6
629.384	1	7
629.553	1	9
629.723	1	3
629.892	1	-10
630.062	1	4
630.232	1	4
630.401	1	2
630.571	1	13
630.740	1	16
630.910	1	5
631.079	1	1
631.249	1	5
631.419	1	8
631.588	1	6
631.758	1	9
631.927	1	-4
632.097	1	1
632.266	1	-2
632.436	1	8
632.606	1	6
632.775	1	19
632.945	1	1
633.114	1	7
633.284	1	4
633.453	1	11
633.623	1	18
633.793	1	1
633.962	1	6
634.132	1	2
634.301	1	4
634.471	1	-2
634.640	1	12
634.810	1	14
634.979	1	3
635.149	1	12
635.319	1	15
635.488	1	5
635.658	1	6
635.827	1	4
635.997	1	10
636.166	1	7
636.336	1	2
636.505	1	10
636.675	1	4
636.845	1	7
637.014	1	10
637.184	1	20
637.353	1	7
637.523	1	10
637.692	1	15
637.862	1	5
638.031	1	-2
638.201	1	7
638.370	1	14
638.540	1	6
638.710	1	16
638.879	1	16
639.049	1	-2
639.218	1	16
639.388	1	6
639.557	1	11
639.727	1	8
639.896	1	10
640.066	1	14
640.235	1	6
640.405	1	14
640.574	1	5
640.744	1	-3
640.914	1	7
641.083	1	0
641.253	1	10
641.422	1	14
641.592	1	10
641.761	1	10
641.931	1	-1
642.100	1	3
642.270	1	-4
642.439	1	4
642.609	1	11
642.778	1	7
642.948	1	14
643.117	1	1
643.287	1	-2
643.456	1	11
643.626	1	17
643.795	1	14
643.965	1	11
644.134	1	9
644.304	1	8
644.473	1	0
644.643	1	5
644.812	1	11
644.982	1	6
645.151	1	12
645.321	1	9
645.490	1	19
645.660	1	9
645.829	1	4
645.999	1	5
646.168	1	14
646.338	1	8
646.507	1	-3
646.677	1	0
646.846	1	15
647.016	1	4
647.185	1	0
647.355	1	6
647.524	1	4
647.694	1	3
647.863	1	10
648.033	1	13
648.202	1	7
648.372	1	10
648.541	1	-3
648.711	1	14
648.880	1	11
649.050	1	14
649.219	1	1
649.389	1	5
649.558	1	4
649.728	1	4
649.897	1	7
650.067	1	12
650.236	1	3
650.406	1	12
650.575	1	10
650.745	1	4
650.914	1	4
651.084	1	8
651.253	1	-1
651.423	1	12
651.592	1	8
651.762	1	17
651.931	1	9
652.101	1	0
652.270	1	-4
652.440	1	13
652.609	1	12
652.778	1	9
652.948	1	8
653.117	1	13
653.287	1	5
653.456	1	7
653.626	1	13
653.795	1	-2
653.965	1	8
654.134	1	-8
654.304	1	6
654.473	1	13
654.643	1	9
654.812	1	8
654.982	1	6
655.151	1	11
655.320	1	14
655.490	1	10
655.659	1	14
655.829	1	2
655.998	1	0
656.168	1	6
656.337	1	0
656.507	1	-4
656.676	1	10
656.846	1	10
657.015	1	4
657.184	1	1
657.354	1	11
657.523	1	9
657.693	1	-1
657.862	1	-1
658.032	1	17
658.201	1	15
658.371	1	-2
658.540	1	2
658.709	1	3
658.879	1	21
659.048	1	5
659.218	1	-3
659.387	1	16
659.557	1	1
659.726	1	-2
659.895	1	0
660.065	1	19
660.234	1	7
660.404	1	4
660.573	1	8
660.743	1	2
660.912	1	-3
661.081	1	-3
661.251	1	12
661.420	1	15
661.590	1	13
661.759	1	4
661.929	1	14
662.098	1	6
662.267	1	8
662.437	1	13
662.606	1	11
662.776	1	0
662.945	1	12
663.115	1	6
663.284	1	7
663.453	1	14
663.623	1	24
663.792	1	-1
663.962	1	-4
664.131	1	10
664.300	1	-9
664.470	1	14
664.639	1	4
664.809	1	12
664.978	1	11
665.148	1	2
665.317	1	6
665.486	1	5
665.656	1	10
665.825	1	11
665.995	1	1
666.164	1	13
666.333	1	8
666.503	1	13
666.672	1	10
666.842	1	2
667.011	1	-2
667.180	1	16
667.350	1	10
667.519	1	9
667.689	1	6
667.858	1	13
668.027	1	11
668.197	1	22
668.366	1	-6
668.536	1	-3
668.705	1	6
668.874	1	0
669.044	1	16
669.213	1	12
669.382	1	12
669.552	1	5
669.721	1	3
669.891	1	7
670.060	1	7
670.229	1	3
670.399	1	11
670.568	1	9
670.738	1	3
670.907	1	4
671.076	1	11
671.246	1	0
671.415	1	18
671.584	1	9
671.754	1	9
671.923	1	8
672.093	1	6
672.262	1	2
672.431	1	12
672.601	1	13
672.770	1	8
672.939	1	3
673.109	1	9
673.278	1	0
673.448	1	10
673.617	1	7
673.786	1	8
