325.333	1	2
325.504	1	6
325.675	1	-2
325.846	1	5
326.017	1	3
326.188	1	12
326.359	1	10
326.531	1	3
326.702	1	15
326.873	1	3
327.044	1	13
327.215	1	-7
327.386	1	11
327.557	1	3
327.728	1	14
327.899	1	7
328.070	1	9
328.241	1	8
328.412	1	2
328.583	1	9
328.754	1	-5
328.926	1	14
329.097	1	8
329.268	1	-1
329.439	1	-2
329.610	1	10
329.781	1	16
329.952	1	12
330.123	1	6
330.294	1	7
330.465	1	7
330.636	1	14
330.807	1	5
330.978	1	5
331.149	1	11
331.320	1	18
331.492	1	10
331.663	1	9
331.834	1	-2
332.005	1	7
332.176	1	10
332.347	1	18
332.518	1	15
332.689	1	8
332.860	1	18
333.031	1	12
333.202	1	8
333.373	1	4
333.544	1	10
333.715	1	5
333.886	1	7
334.057	1	1
334.228	1	12
334.399	1	15
334.570	1	-5
334.741	1	3
334.912	1	14
335.084	1	10
335.255	1	14
335.426	1	7
335.597	1	13
335.768	1	14
335.939	1	-4
336.110	1	10
336.281	1	10
336.452	1	9
336.623	1	-1
336.794	1	-5
336.965	1	1
337.136	1	17
337.307	1	12
337.478	1	8
337.649	1	1
337.820	1	5
337.991	1	16
338.162	1	10
338.333	1	13
338.504	1	21
338.675	1	13
338.846	1	11
339.017	1	20
339.188	1	22
339.359	1	23
339.530	1	16
339.701	1	9
339.872	1	15
340.043	1	2
340.214	1	11
340.385	1	13
340.556	1	5
340.727	1	14
340.898	1	17
341.069	1	1
341.240	1	5
341.411	1	13
341.582	1	14
341.753	1	-4
341.924	1	11
342.095	1	19
342.266	1	4
342.437	1	7
342.608	1	14
342.779	1	8
342.950	1	12
343.121	1	13
343.292	1	13
343.463	1	12
343.634	1	17
343.805	1	10
343.976	1	-6
344.147	1	13
344.318	1	12
344.489	1	16
344.660	1	24
344.831	1	19
345.002	1	14
345.173	1	12
345.344	1	5
345.515	1	6
345.686	1	2
345.857	1	8
346.028	1	0
346.199	1	11
346.370	1	7
346.541	1	15
346.712	1	15
346.883	1	26
347.054	1	17
347.225	1	-1
347.396	1	8
347.567	1	10
347.738	1	8
347.909	1	14
348.080	1	14
348.251	1	14
348.422	1	2
348.593	1	9
348.764	1	15
348.935	1	10
349.106	1	19
349.277	1	6
349.448	1	17
349.619	1	14
349.790	1	13
349.961	1	8
350.132	1	18
350.303	1	13
350.474	1	3
350.645	1	22
350.816	1	11
350.987	1	21
351.157	1	5
351.328	1	13
351.499	1	25
351.670	1	6
351.841	1	15
352.012	1	18
352.183	1	22
352.354	1	11
352.525	1	14
352.696	1	13
352.867	1	15
353.038	1	13
353.209	1	11
353.380	1	4
353.551	1	7
353.722	1	17
353.893	1	16
354.064	1	15
354.235	1	17
354.406	1	22
354.576	1	13
354.747	1	22
354.918	1	18
355.089	1	14
355.260	1	18
355.431	1	26
355.602	1	12
355.773	1	12
355.944	1	12
356.115	1	13
356.286	1	11
356.457	1	19
356.628	1	13
356.799	1	15
356.970	1	4
357.141	1	26
357.311	1	12
357.482	1	20
357.653	1	15
357.824	1	25
357.995	1	20
358.166	1	18
358.337	1	11
358.508	1	7
358.679	1	12
358.850	1	10
359.021	1	20
359.192	1	4
359.363	1	8
359.533	1	18
359.704	1	18
359.875	1	15
360.046	1	2
360.217	1	17
360.388	1	14
360.559	1	11
360.730	1	10
360.901	1	16
361.072	1	14
361.243	1	10
361.414	1	12
361.584	1	25
361.755	1	19
361.926	1	20
362.097	1	13
362.268	1	29
362.439	1	16
362.610	1	2
362.781	1	28
362.952	1	14
363.123	1	18
363.293	1	7
363.464	1	21
363.635	1	22
363.806	1	15
363.977	1	18
364.148	1	17
364.319	1	-2
364.490	1	21
364.661	1	17
364.832	1	19
365.002	1	22
365.173	1	12
365.344	1	17
365.515	1	21
365.686	1	14
365.857	1	7
366.028	1	21
366.199	1	18
366.370	1	25
366.540	1	13
366.711	1	22
366.882	1	26
367.053	1	23
367.224	1	5
367.395	1	10
367.566	1	14
367.737	1	14
367.908	1	11
368.078	1	21
368.249	1	28
368.420	1	12
368.591	1	17
368.762	1	-1
368.933	1	24
369.104	1	13
369.274	1	21
369.445	1	25
369.616	1	10
369.787	1	14
369.958	1	20
370.129	1	15
370.300	1	9
370.471	1	19
370.641	1	11
370.812	1	21
370.983	1	9
371.154	1	27
371.325	1	21
371.496	1	25
371.667	1	15
371.837	1	13
372.008	1	28
372.179	1	11
372.350	1	23
372.521	1	17
372.692	1	13
372.863	1	19
373.033	1	22
373.204	1	26
373.375	1	9
373.546	1	24
373.717	1	22
373.888	1	21
374.059	1	21
374.229	1	14
374.400	1	29
374.571	1	18
374.742	1	15
374.913	1	17
375.084	1	24
375.254	1	18
375.425	1	12
375.596	1	16
375.767	1	24
375.938	1	6
376.109	1	18
376.279	1	22
376.450	1	23
376.621	1	30
376.792	1	32
376.963	1	10
377.134	1	15
377.304	1	23
377.475	1	14
377.646	1	9
377.817	1	2
377.988	1	28
378.159	1	30
378.329	1	23
378.500	1	19
378.671	1	19
378.842	1	18
379.013	1	16
379.184	1	23
379.354	1	26
379.525	1	21
379.696	1	34
379.867	1	8
380.038	1	11
380.209	1	14
380.379	1	24
380.550	1	26
380.721	1	24
380.892	1	29
381.063	1	14
381.233	1	25
381.404	1	29
381.575	1	28
381.746	1	22
381.917	1	31
382.087	1	23
382.258	1	24
382.429	1	30
382.600	1	17
382.771	1	24
382.941	1	18
383.112	1	22
383.283	1	27
383.454	1	21
383.625	1	23
383.795	1	19
383.966	1	25
384.137	1	20
384.308	1	24
384.479	1	22
384.649	1	21
384.820	1	24
384.991	1	12
385.162	1	23
385.333	1	14
385.503	1	35
385.674	1	30
385.845	1	28
386.016	1	18
386.187	1	25
386.357	1	17
386.528	1	18
386.699	1	19
386.870	1	29
387.041	1	27
387.211	1	12
387.382	1	16
387.553	1	24
387.724	1	19
387.894	1	31
388.065	1	32
388.236	1	36
388.407	1	28
388.578	1	29
388.748	1	33
388.919	1	31
389.090	1	18
389.261	1	40
389.431	1	26
389.602	1	18
389.773	1	15
389.944	1	25
390.114	1	39
390.285	1	30
390.456	1	18
390.627	1	33
390.798	1	21
390.968	1	23
391.139	1	37
391.310	1	32
391.481	1	20
391.651	1	32
391.822	1	32
391.993	1	19
392.164	1	14
392.334	1	23
392.505	1	24
392.676	1	27
392.847	1	47
393.017	1	24
393.188	1	14
393.359	1	19
393.530	1	25
393.700	1	45
393.871	1	18
394.042	1	28
394.213	1	37
394.383	1	34
394.554	1	28
394.725	1	32
394.896	1	22
395.066	1	32
395.237	1	31
395.408	1	23
395.579	1	37
395.749	1	27
395.920	1	28
396.091	1	38
396.262	1	21
396.432	1	13
396.603	1	30
396.774	1	24
396.945	1	24
397.115	1	18
397.286	1	29
397.457	1	14
397.627	1	33
397.798	1	27
397.969	1	27
398.140	1	26
398.310	1	31
398.481	1	25
398.652	1	20
398.823	1	17
398.993	1	37
399.164	1	21
399.335	1	16
399.505	1	27
399.676	1	31
399.847	1	39
400.018	1	30
400.188	1	41
400.359	1	37
400.530	1	35
400.700	1	30
400.871	1	40
401.042	1	31
401.213	1	25
401.383	1	35
401.554	1	36
401.725	1	20
401.895	1	27
402.066	1	39
402.237	1	38
402.408	1	40
402.578	1	24
402.749	1	37
402.920	1	39
403.090	1	31
403.261	1	46
403.432	1	41
403.603	1	17
403.773	1	44
403.944	1	40
404.115	1	25
404.285	1	44
404.456	1	32
404.627	1	27
404.797	1	39
404.968	1	36
405.139	1	36
405.310	1	25
405.480	1	36
405.651	1	33
405.822	1	34
405.992	1	30
406.163	1	31
406.334	1	38
406.504	1	34
406.675	1	25
406.846	1	27
407.016	1	23
407.187	1	23
407.358	1	20
407.528	1	37
407.699	1	31
407.870	1	39
408.041	1	22
408.211	1	29
408.382	1	32
408.553	1	14
408.723	1	40
408.894	1	32
409.065	1	33
409.235	1	20
409.406	1	29
409.577	1	31
409.747	1	43
409.918	1	42
410.089	1	20
410.259	1	35
410.430	1	34
410.601	1	23
410.771	1	27
410.942	1	28
411.113	1	43
411.283	1	27
411.454	1	41
411.625	1	32
411.795	1	25
411.966	1	26
412.137	1	33
412.307	1	39
412.478	1	39
412.649	1	26
412.819	1	26
412.990	1	30
413.161	1	26
413.331	1	41
413.502	1	8
413.672	1	36
413.843	1	38
414.014	1	37
414.184	1	36
414.355	1	34
414.526	1	30
414.696	1	39
414.867	1	24
415.038	1	26
415.208	1	33
415.379	1	33
415.550	1	50
415.720	1	30
415.891	1	38
416.062	1	38
416.232	1	34
416.403	1	42
416.573	1	25
416.744	1	37
416.915	1	34
417.085	1	20
417.256	1	35
417.427	1	36
417.597	1	34
417.768	1	36
417.939	1	36
418.109	1	28
418.280	1	42
418.450	1	50
418.621	1	21
418.792	1	30
418.962	1	31
419.133	1	38
419.304	1	33
419.474	1	27
419.645	1	33
419.815	1	25
419.986	1	31
420.157	1	44
420.327	1	32
420.498	1	30
420.669	1	36
420.839	1	33
421.010	1	37
421.180	1	21
421.351	1	38
421.522	1	30
421.692	1	45
421.863	1	24
422.033	1	31
422.204	1	23
422.375	1	30
422.545	1	43
422.716	1	27
422.886	1	54
423.057	1	31
423.228	1	42
423.398	1	39
423.569	1	39
423.740	1	26
423.910	1	39
424.081	1	26
424.251	1	28
424.422	1	27
424.593	1	28
424.763	1	33
424.934	1	35
425.104	1	34
425.275	1	34
425.445	1	42
425.616	1	43
425.787	1	51
425.957	1	41
426.128	1	48
426.298	1	31
426.469	1	29
426.640	1	42
426.810	1	39
426.981	1	38
427.151	1	23
427.322	1	18
427.493	1	34
427.663	1	30
427.834	1	27
428.004	1	40
428.175	1	35
428.345	1	38
428.516	1	29
428.687	1	40
428.857	1	37
429.028	1	32
429.198	1	33
429.369	1	35
429.540	1	35
429.710	1	39
429.881	1	30
430.051	1	35
430.222	1	29
430.392	1	40
430.563	1	33
430.734	1	39
430.904	1	28
431.075	1	26
431.245	1	43
431.416	1	18
431.586	1	34
431.757	1	37
431.927	1	12
432.098	1	36
432.269	1	41
432.439	1	42
432.610	1	42
432.780	1	27
432.951	1	23
433.121	1	46
433.292	1	22
433.462	1	37
433.633	1	39
433.804	1	17
433.974	1	36
434.145	1	31
434.315	1	32
434.486	1	31
434.656	1	34
434.827	1	39
434.997	1	43
435.168	1	32
435.339	1	42
435.509	1	31
435.680	1	36
435.850	1	32
436.021	1	40
436.191	1	38
436.362	1	38
436.532	1	30
436.703	1	45
436.873	1	42
437.044	1	26
437.214	1	47
437.385	1	38
437.556	1	25
437.726	1	28
437.897	1	31
438.067	1	36
438.238	1	45
438.408	1	34
438.579	1	38
438.749	1	24
438.920	1	35
439.090	1	20
439.261	1	30
439.431	1	30
439.602	1	24
439.772	1	37
439.943	1	39
440.113	1	31
440.284	1	35
440.455	1	50
440.625	1	24
440.796	1	22
440.966	1	26
441.137	1	36
441.307	1	30
441.478	1	42
441.648	1	36
441.819	1	27
441.989	1	29
442.160	1	36
442.330	1	28
442.501	1	34
442.671	1	29
442.842	1	24
443.012	1	25
443.183	1	36
443.353	1	24
443.524	1	43
443.694	1	25
443.865	1	36
444.035	1	29
444.206	1	17
444.376	1	40
444.547	1	31
444.717	1	30
444.888	1	26
445.058	1	30
445.229	1	34
445.399	1	21
445.570	1	21
445.740	1	39
445.911	1	26
446.081	1	38
446.252	1	34
446.422	1	40
446.593	1	36
446.763	1	32
446.934	1	43
447.104	1	26
447.275	1	32
447.445	1	28
447.616	1	31
447.786	1	23
447.957	1	43
448.127	1	49
448.298	1	23
448.468	1	35
448.639	1	28
448.809	1	28
448.979	1	33
449.150	1	35
449.320	1	38
449.491	1	42
449.661	1	35
449.832	1	42
450.002	1	43
450.173	1	32
450.343	1	29
450.514	1	28
450.684	1	29
450.855	1	23
451.025	1	36
451.196	1	33
451.366	1	19
451.537	1	26
451.707	1	35
451.878	1	28
452.048	1	9
452.218	1	32
452.389	1	44
452.559	1	28
452.730	1	38
452.900	1	35
453.071	1	44
453.241	1	34
453.412	1	20
453.582	1	26
453.753	1	27
453.923	1	19
454.093	1	44
454.264	1	11
454.434	1	32
454.605	1	29
454.775	1	33
454.946	1	32
455.116	1	9
455.287	1	30
455.457	1	31
455.628	1	22
455.798	1	26
455.968	1	31
456.139	1	28
456.309	1	27
456.480	1	29
456.650	1	44
456.821	1	29
456.991	1	45
457.161	1	31
457.332	1	10
457.502	1	43
457.673	1	22
457.843	1	27
458.014	1	33
458.184	1	28
458.355	1	28
458.525	1	26
458.695	1	12
458.866	1	37
459.036	1	26
459.207	1	30
459.377	1	28
459.548	1	24
459.718	1	27
459.888	1	32
460.059	1	34
460.229	1	27
460.400	1	30
460.570	1	30
460.740	1	27
460.911	1	31
461.081	1	31
461.252	1	23
461.422	1	32
461.593	1	26
461.763	1	28
461.933	1	38
462.104	1	29
462.274	1	20
462.445	1	21
462.615	1	24
462.785	1	27
462.956	1	28
463.126	1	25
463.297	1	27
463.467	1	34
463.638	1	15
463.808	1	26
463.978	1	25
464.149	1	21
464.319	1	25
464.490	1	26
464.660	1	18
464.830	1	30
465.001	1	20
465.171	1	17
465.342	1	25
465.512	1	31
465.682	1	21
465.853	1	13
466.023	1	35
466.194	1	26
466.364	1	26
466.534	1	28
466.705	1	14
466.875	1	30
467.045	1	21
467.216	1	35
467.386	1	30
467.557	1	25
467.727	1	40
467.897	1	20
468.068	1	7
468.238	1	29
468.409	1	13
468.579	1	24
468.749	1	23
468.920	1	31
469.090	1	27
469.260	1	27
469.431	1	31
469.601	1	24
469.772	1	13
469.942	1	30
470.112	1	29
470.283	1	20
470.453	1	35
470.623	1	7
470.794	1	22
470.964	1	36
471.135	1	31
471.305	1	19
471.475	1	31
471.646	1	23
471.816	1	21
471.986	1	33
472.157	1	31
472.327	1	26
472.497	1	33
472.668	1	22
472.838	1	24
473.009	1	23
473.179	1	10
473.349	1	28
473.520	1	21
473.690	1	21
473.860	1	17
474.031	1	29
474.201	1	23
474.371	1	30
474.542	1	29
474.712	1	29
474.882	1	18
475.053	1	29
475.223	1	14
475.394	1	18
475.564	1	17
475.734	1	26
475.905	1	26
476.075	1	27
476.245	1	19
476.416	1	17
476.586	1	18
476.756	1	14
476.927	1	18
477.097	1	25
477.267	1	32
477.438	1	27
477.608	1	21
477.778	1	22
477.949	1	16
478.119	1	19
478.289	1	15
478.460	1	14
478.630	1	37
478.800	1	22
478.971	1	18
479.141	1	22
479.311	1	27
479.482	1	24
479.652	1	26
479.822	1	24
479.993	1	17
480.163	1	17
480.333	1	20
480.504	1	12
480.674	1	34
480.844	1	13
481.015	1	17
481.185	1	17
481.355	1	25
481.525	1	19
481.696	1	14
481.866	1	25
482.036	1	20
482.207	1	17
482.377	1	25
482.547	1	10
482.718	1	12
482.888	1	32
483.058	1	15
483.229	1	20
483.399	1	28
483.569	1	22
483.740	1	23
483.910	1	18
484.080	1	17
484.250	1	10
484.421	1	20
484.591	1	23
484.761	1	14
484.932	1	8
485.102	1	28
485.272	1	21
485.443	1	27
485.613	1	28
485.783	1	30
485.953	1	19
486.124	1	18
486.294	1	12
486.464	1	12
486.635	1	21
486.805	1	24
486.975	1	17
487.146	1	7
487.316	1	16
487.486	1	20
487.656	1	11
487.827	1	15
487.997	1	3
488.167	1	16
488.338	1	17
488.508	1	19
488.678	1	22
488.848	1	14
489.019	1	17
489.189	1	11
489.359	1	20
489.529	1	20
489.700	1	13
489.870	1	4
490.040	1	13
490.211	1	11
490.381	1	21
490.551	1	16
490.721	1	14
490.892	1	10
491.062	1	6
491.232	1	9
491.402	1	18
491.573	1	10
491.743	1	13
491.913	1	5
492.084	1	15
492.254	1	20
492.424	1	28
492.594	1	27
492.765	1	13
492.935	1	11
493.105	1	28
493.275	1	10
493.446	1	13
493.616	1	10
493.786	1	3
493.956	1	4
494.127	1	27
494.297	1	11
494.467	1	9
494.637	1	13
494.808	1	16
494.978	1	4
495.148	1	11
495.318	1	20
495.489	1	11
495.659	1	7
495.829	1	16
495.999	1	14
496.170	1	2
496.340	1	20
496.510	1	23
496.680	1	9
496.851	1	17
497.021	1	6
497.191	1	9
497.361	1	5
497.532	1	8
497.702	1	18
497.872	1	25
498.042	1	23
498.213	1	16
498.383	1	23
498.553	1	8
498.723	1	19
498.894	1	21
499.064	1	10
499.234	1	17
499.404	1	7
499.574	1	12
499.745	1	17
499.915	1	14
500.085	1	15
500.255	1	17
500.426	1	18
500.596	1	3
500.766	1	6
500.936	1	19
501.106	1	17
501.277	1	14
501.447	1	17
501.617	1	17
501.787	1	2
501.958	1	14
502.128	1	13
502.298	1	12
502.468	1	19
502.638	1	20
502.809	1	14
502.979	1	21
503.149	1	2
503.319	1	9
503.489	1	17
503.660	1	-3
503.830	1	17
504.000	1	18
504.170	1	16
504.340	1	12
504.511	1	25
504.681	1	8
504.851	1	17
505.021	1	15
505.192	1	9
505.362	1	14
505.532	1	9
505.702	1	9
505.872	1	18
506.043	1	23
506.213	1	17
506.383	1	14
506.553	1	18
506.723	1	16
506.893	1	-6
507.064	1	7
507.234	1	14
507.404	1	14
507.574	1	16
507.744	1	15
507.915	1	22
508.085	1	25
508.255	1	12
508.425	1	8
508.595	1	6
508.766	1	3
508.936	1	11
509.106	1	5
509.276	1	9
509.446	1	21
509.616	1	15
509.787	1	17
509.957	1	17
510.127	1	14
510.297	1	7
510.467	1	1
510.638	1	19
510.808	1	8
510.978	1	-1
511.148	1	32
511.318	1	9
511.488	1	20
511.659	1	7
511.829	1	4
511.999	1	12
512.169	1	3
512.339	1	13
512.509	1	15
512.680	1	12
512.850	1	14
513.020	1	14
513.190	1	-1
513.360	1	19
513.530	1	4
513.700	1	6
513.871	1	18
514.041	1	4
514.211	1	14
514.381	1	20
514.551	1	9
514.721	1	16
514.892	1	1
515.062	1	11
515.232	1	12
515.402	1	14
515.572	1	6
515.742	1	7
515.912	1	10
516.083	1	11
516.253	1	16
516.423	1	14
516.593	1	8
516.763	1	4
516.933	1	-8
517.104	1	12
517.274	1	1
517.444	1	6
517.614	1	2
517.784	1	8
517.954	1	18
518.124	1	6
518.294	1	14
518.465	1	11
518.635	1	6
518.805	1	21
518.975	1	10
519.145	1	14
519.315	1	8
519.485	1	-1
519.656	1	9
519.826	1	19
519.996	1	12
520.166	1	18
520.336	1	8
520.506	1	6
520.676	1	12
520.846	1	11
521.017	1	5
521.187	1	17
521.357	1	9
521.527	1	15
521.697	1	14
521.867	1	1
522.037	1	-5
522.207	1	11
522.377	1	15
522.548	1	15
522.718	1	2
522.888	1	16
523.058	1	16
523.228	1	2
523.398	1	9
523.568	1	12
523.738	1	14
523.909	1	18
524.079	1	5
524.249	1	13
524.419	1	12
524.589	1	8
524.759	1	9
524.929	1	2
525.099	1	1
525.269	1	20
525.439	1	8
525.610	1	17
525.780	1	14
525.950	1	7
526.120	1	1
526.290	1	9
526.460	1	-1
526.630	1	20
526.800	1	10
526.970	1	19
527.140	1	8
527.311	1	6
527.481	1	15
527.651	1	5
527.821	1	2
527.991	1	11
528.161	1	7
528.331	1	12
528.501	1	7
528.671	1	1
528.841	1	16
529.011	1	9
529.181	1	10
529.352	1	6
529.522	1	0
529.692	1	4
529.862	1	5
530.032	1	8
530.202	1	14
530.372	1	7
530.542	1	8
530.712	1	8
530.882	1	10
531.052	1	18
531.222	1	3
531.392	1	9
531.563	1	0
531.733	1	0
531.903	1	16
532.073	1	8
532.243	1	6
532.413	1	10
532.583	1	6
532.753	1	9
532.923	1	15
533.093	1	12
533.263	1	-1
533.433	1	12
533.603	1	14
533.773	1	3
533.943	1	1
534.113	1	6
534.284	1	-1
534.454	1	3
534.624	1	7
534.794	1	11
534.964	1	3
535.134	1	18
535.304	1	16
535.474	1	-4
535.644	1	13
535.814	1	10
535.984	1	6
536.154	1	-2
536.324	1	21
536.494	1	7
536.664	1	4
536.834	1	-1
537.004	1	7
537.174	1	8
537.344	1	14
537.514	1	7
537.685	1	10
537.855	1	5
538.025	1	10
538.195	1	7
538.365	1	-3
538.535	1	2
538.705	1	12
538.875	1	6
539.045	1	4
539.215	1	-3
539.385	1	5
539.555	1	6
539.725	1	10
539.895	1	19
540.065	1	-5
540.235	1	2
540.405	1	10
540.575	1	-2
540.745	1	5
540.915	1	1
541.085	1	6
541.255	1	-2
541.425	1	6
541.595	1	14
541.765	1	22
541.935	1	2
542.105	1	5
542.275	1	12
542.445	1	6
542.615	1	7
542.785	1	-4
542.955	1	2
543.125	1	-7
543.295	1	2
543.465	1	15
543.635	1	6
543.805	1	20
543.975	1	3
544.145	1	7
544.315	1	4
544.485	1	0
544.655	1	17
544.825	1	4
544.995	1	16
545.165	1	1
545.335	1	1
545.505	1	5
545.675	1	-2
545.845	1	12
546.015	1	17
546.185	1	8
546.355	1	15
546.525	1	6
546.695	1	9
546.865	1	11
547.035	1	5
547.205	1	3
547.375	1	12
547.545	1	18
547.715	1	7
547.885	1	15
548.055	1	6
548.225	1	11
548.395	1	-4
548.565	1	8
548.735	1	9
548.905	1	-1
549.075	1	6
549.245	1	3
549.415	1	12
549.585	1	13
549.755	1	17
549.925	1	3
550.095	1	4
550.265	1	5
550.435	1	-11
550.605	1	4
550.775	1	1
550.945	1	11
551.115	1	13
551.285	1	-1
551.455	1	20
551.625	1	3
551.795	1	2
551.965	1	14
552.135	1	10
552.305	1	0
552.475	1	3
552.645	1	6
552.815	1	3
552.985	1	7
553.155	1	-1
553.325	1	4
553.495	1	4
553.665	1	5
553.835	1	12
554.004	1	-5
554.174	1	5
554.344	1	3
554.514	1	15
554.684	1	-1
554.854	1	-1
555.024	1	5
555.194	1	3
555.364	1	11
555.534	1	4
555.704	1	16
555.874	1	-4
556.044	1	10
556.214	1	5
556.384	1	11
556.554	1	18
556.724	1	10
556.894	1	-5
557.064	1	7
557.234	1	9
557.404	1	4
557.573	1	1
557.743	1	6
557.913	1	8
558.083	1	17
558.253	1	-4
558.423	1	1
558.593	1	7
558.763	1	9
558.933	1	3
559.103	1	14
559.273	1	-7
559.443	1	6
559.613	1	13
559.783	1	-3
559.953	1	13
560.122	1	6
560.292	1	7
560.462	1	0
560.632	1	1
560.802	1	5
560.972	1	8
561.142	1	14
561.312	1	7
561.482	1	12
561.652	1	4
561.822	1	-3
561.992	1	-4
562.162	1	9
562.331	1	7
562.501	1	3
562.671	1	7
562.841	1	-3
563.011	1	-12
563.181	1	14
563.351	1	7
563.521	1	0
563.691	1	20
563.861	1	10
564.031	1	6
564.201	1	11
564.370	1	8
564.540	1	5
564.710	1	-3
564.880	1	10
565.050	1	-3
565.220	1	4
565.390	1	9
565.560	1	12
565.730	1	8
565.900	1	3
566.069	1	-3
566.239	1	9
566.409	1	6
566.579	1	7
566.749	1	2
566.919	1	5
567.089	1	7
567.259	1	10
567.429	1	12
567.599	1	12
567.768	1	2
567.938	1	5
568.108	1	4
568.278	1	3
568.448	1	3
568.618	1	2
568.788	1	-15
568.958	1	0
569.128	1	-2
569.297	1	1
569.467	1	18
569.637	1	6
569.807	1	4
569.977	1	10
570.147	1	3
570.317	1	5
570.487	1	17
570.656	1	3
570.826	1	0
570.996	1	0
571.166	1	12
571.336	1	-3
571.506	1	14
571.676	1	1
571.846	1	-4
572.015	1	11
572.185	1	-1
572.355	1	12
572.525	1	-7
572.695	1	6
572.865	1	10
573.035	1	0
573.205	1	4
573.374	1	17
573.544	1	0
573.714	1	3
573.884	1	5
574.054	1	4
574.224	1	2
574.394	1	2
574.563	1	10
574.733	1	9
574.903	1	1
575.073	1	-1
575.243	1	4
575.413	1	-3
575.583	1	0
575.752	1	10
575.922	1	2
576.092	1	1
576.262	1	3
576.432	1	10
576.602	1	-2
576.772	1	-5
576.941	1	13
577.111	1	5
577.281	1	20
577.451	1	-2
577.621	1	9
577.791	1	8
577.960	1	1
578.130	1	6
578.300	1	10
578.470	1	-2
578.640	1	1
578.810	1	0
578.979	1	4
579.149	1	4
579.319	1	8
579.489	1	6
579.659	1	2
579.829	1	8
579.998	1	-13
580.168	1	5
580.338	1	4
580.508	1	4
580.678	1	4
580.848	1	8
581.017	1	6
581.187	1	1
581.357	1	7
581.527	1	0
581.697	1	-3
581.867	1	6
582.036	1	11
582.206	1	-1
582.376	1	9
582.546	1	15
582.716	1	2
582.885	1	4
583.055	1	1
583.225	1	-4
583.395	1	6
583.565	1	2
583.735	1	4
583.904	1	6
584.074	1	-1
584.244	1	6
584.414	1	1
584.584	1	5
584.753	1	12
584.923	1	12
585.093	1	-1
585.263	1	0
585.433	1	16
585.602	1	8
585.772	1	11
585.942	1	7
586.112	1	-2
586.282	1	10
586.451	1	1
586.621	1	-5
586.791	1	0
586.961	1	13
587.131	1	14
587.300	1	15
587.470	1	-3
587.640	1	-13
587.810	1	-5
587.980	1	-5
588.149	1	6
588.319	1	8
588.489	1	-6
588.659	1	5
588.829	1	-5
588.998	1	6
589.168	1	6
589.338	1	0
589.508	1	9
589.677	1	0
589.847	1	15
590.017	1	-4
590.187	1	2
590.357	1	3
590.526	1	22
590.696	1	3
590.866	1	-3
591.036	1	3
591.205	1	6
591.375	1	1
591.545	1	-3
591.715	1	-1
591.885	1	6
592.054	1	5
592.224	1	1
592.394	1	-5
592.564	1	12
592.733	1	7
592.903	1	3
593.073	1	-6
593.243	1	1
593.412	1	-3
593.582	1	3
593.752	1	6
593.922	1	16
594.091	1	-3
594.261	1	2
594.431	1	-2
594.601	1	13
594.771	1	7
594.940	1	10
595.110	1	9
595.280	1	12
595.450	1	9
595.619	1	11
595.789	1	22
595.959	1	8
596.129	1	5
596.298	1	2
596.468	1	9
596.638	1	1
596.808	1	1
596.977	1	8
597.147	1	8
597.317	1	4
597.487	1	9
597.656	1	5
597.826	1	-3
597.996	1	4
598.166	1	4
598.335	1	-9
598.505	1	-8
598.675	1	5
598.844	1	8
599.014	1	13
599.184	1	2
599.354	1	2
599.523	1	1
599.693	1	3
599.863	1	3
600.033	1	-1
600.202	1	15
600.372	1	5
600.542	1	6
600.712	1	9
600.881	1	-1
601.051	1	10
601.221	1	16
601.390	1	5
601.560	1	4
601.730	1	3
601.900	1	21
602.069	1	-11
602.239	1	12
602.409	1	5
602.578	1	18
602.748	1	-6
602.918	1	11
603.088	1	15
603.257	1	2
603.427	1	13
603.597	1	9
603.767	1	1
603.936	1	20
604.106	1	9
604.276	1	-2
604.445	1	0
604.615	1	-3
604.785	1	5
604.954	1	8
605.124	1	13
605.294	1	11
605.464	1	9
605.633	1	15
605.803	1	4
605.973	1	9
606.142	1	12
606.312	1	7
606.482	1	3
606.652	1	15
606.821	1	3
606.991	1	2
607.161	1	10
607.330	1	11
607.500	1	11
607.670	1	7
607.839	1	2
608.009	1	2
608.179	1	3
608.348	1	1
608.518	1	7
608.688	1	15
608.858	1	-5
609.027	1	-5
609.197	1	10
609.367	1	6
609.536	1	18
609.706	1	3
609.876	1	2
610.045	1	12
610.215	1	10
610.385	1	7
610.554	1	9
610.724	1	3
610.894	1	7
611.063	1	4
611.233	1	-4
611.403	1	6
611.572	1	11
611.742	1	7
611.912	1	8
612.081	1	6
612.251	1	12
612.421	1	3
612.590	1	-2
612.760	1	9
612.930	1	-2
613.099	1	3
613.269	1	8
613.439	1	0
613.608	1	11
613.778	1	-2
613.948	1	15
614.117	1	11
614.287	1	18
614.457	1	5
614.626	1	10
614.796	1	8
614.966	1	7
615.135	1	11
615.305	1	18
615.475	1	5
615.644	1	5
615.814	1	6
615.984	1	8
616.153	1	20
616.323	1	1
616.493	1	13
616.662	1	4
616.832	1	4
617.002	1	7
617.171	1	4
617.341	1	4
617.511	1	-2
617.680	1	6
617.850	1	2
618.019	1	14
618.189	1	6
618.359	1	3
618.528	1	-4
618.698	1	3
618.868	1	-1
619.037	1	10
619.207	1	14
619.377	1	6
619.546	1	-2
619.716	1	8
619.885	1	2
620.055	1	7
620.225	1	14
620.394	1	2
620.564	1	-6
620.734	1	10
620.903	1	6
621.073	1	0
621.242	1	6
621.412	1	7
621.582	1	6
621.751	1	7
621.921	1	17
622.091	1	-10
622.260	1	9
622.430	1	14
622.599	1	12
622.769	1	-1
622.939	1	0
623.108	1	9
623.278	1	16
623.448	1	5
623.617	1	9
623.787	1	15
623.956	1	15
624.126	1	-4
624.296	1	0
624.465	1	8
624.635	1	9
624.804	1	-2
624.974	1	6
625.144	1	11
625.313	1	6
625.483	1	2
625.652	1	11
625.822	1	10
625.992	1	18
626.161	1	0
626.331	1	7
626.501	1	6
626.670	1	8
626.840	1	3
627.009	1	5
627.179	1	0
627.348	1	16
627.518	1	9
627.688	1	2
627.857	1	8
628.027	1	-2
628.196	1	7
628.366	1	8
628.536	1	9
628.705	1	1
628.875	1	10
629.044	1	13
629.214	1	12
629.384	1	2
629.553	1	18
629.723	1	-2
629.892	1	13
630.062	1	-2
630.232	1	8
630.401	1	7
630.571	1	4
630.740	1	9
630.910	1	5
631.079	1	6
631.249	1	10
631.419	1	9
631.588	1	4
631.758	1	9
631.927	1	1
632.097	1	8
632.266	1	-6
632.436	1	12
632.606	1	7
632.775	1	16
632.945	1	-6
633.114	1	7
633.284	1	1
633.453	1	6
633.623	1	12
633.793	1	-2
633.962	1	5
634.132	1	5
634.301	1	1
634.471	1	7
634.640	1	18
634.810	1	11
634.979	1	-2
635.149	1	4
635.319	1	12
635.488	1	-2
635.658	1	12
635.827	1	7
635.997	1	7
636.166	1	5
636.336	1	11
636.505	1	9
636.675	1	-2
636.845	1	8
637.014	1	9
637.184	1	14
637.353	1	15
637.523	1	11
637.692	1	4
637.862	1	2
638.031	1	0
638.201	1	8
638.370	1	6
638.540	1	2
638.710	1	10
638.879	1	16
639.049	1	-4
639.218	1	25
639.388	1	10
639.557	1	15
639.727	1	20
639.896	1	13
640.066	1	5
640.235	1	-3
640.405	1	15
640.574	1	6
640.744	1	-1
640.914	1	7
641.083	1	7
641.253	1	2
641.422	1	6
641.592	1	8
641.761	1	2
641.931	1	5
642.100	1	10
642.270	1	2
642.439	1	4
642.609	1	13
642.778	1	3
642.948	1	11
643.117	1	7
643.287	1	-6
643.456	1	13
643.626	1	12
643.795	1	-4
643.965	1	11
644.134	1	12
644.304	1	11
644.473	1	8
644.643	1	1
644.812	1	10
644.982	1	3
645.151	1	5
645.321	1	8
645.490	1	11
645.660	1	2
645.829	1	4
645.999	1	4
646.168	1	7
646.338	1	8
646.507	1	6
646.677	1	11
646.846	1	5
647.016	1	5
647.185	1	10
647.355	1	11
647.524	1	6
647.694	1	9
647.863	1	7
648.033	1	5
648.202	1	3
648.372	1	5
648.541	1	5
648.711	1	2
648.880	1	-2
649.050	1	6
649.219	1	8
649.389	1	6
649.558	1	11
649.728	1	8
649.897	1	5
650.067	1	10
650.236	1	7
650.406	1	13
650.575	1	6
650.745	1	13
650.914	1	7
651.084	1	6
651.253	1	-6
651.423	1	5
651.592	1	9
651.762	1	4
651.931	1	12
652.101	1	17
652.270	1	4
652.440	1	8
652.609	1	7
652.778	1	13
652.948	1	11
653.117	1	10
653.287	1	-3
653.456	1	2
653.626	1	3
653.795	1	3
653.965	1	-10
654.134	1	-3
654.304	1	13
654.473	1	0
654.643	1	12
654.812	1	6
654.982	1	6
655.151	1	7
655.320	1	19
655.490	1	1
655.659	1	12
655.829	1	7
655.998	1	4
656.168	1	1
656.337	1	10
656.507	1	0
656.676	1	10
656.846	1	10
657.015	1	1
657.184	1	2
657.354	1	14
657.523	1	8
657.693	1	0
657.862	1	1
658.032	1	18
658.201	1	7
658.371	1	3
658.540	1	-2
658.709	1	8
658.879	1	15
659.048	1	15
659.218	1	0
659.387	1	7
659.557	1	4
659.726	1	1
659.895	1	8
660.065	1	16
660.234	1	5
660.404	1	8
660.573	1	3
660.743	1	-1
660.912	1	2
661.081	1	2
661.251	1	6
661.420	1	8
661.590	1	-2
661.759	1	8
661.929	1	5
662.098	1	10
662.267	1	7
662.437	1	18
662.606	1	10
662.776	1	1
662.945	1	5
663.115	1	18
663.284	1	8
663.453	1	19
663.623	1	12
663.792	1	0
663.962	1	-11
664.131	1	2
664.300	1	0
664.470	1	3
664.639	1	2
664.809	1	10
664.978	1	8
665.148	1	-6
665.317	1	5
665.486	1	11
665.656	1	10
665.825	1	12
665.995	1	1
666.164	1	16
666.333	1	0
666.503	1	3
666.672	1	7
666.842	1	-1
667.011	1	2
667.180	1	9
667.350	1	5
667.519	1	-3
667.689	1	6
667.858	1	2
668.027	1	0
668.197	1	18
668.366	1	8
668.536	1	2
668.705	1	12
668.874	1	2
669.044	1	12
669.213	1	6
669.382	1	17
669.552	1	7
669.721	1	6
669.891	1	-3
670.060	1	3
670.229	1	4
670.399	1	1
670.568	1	8
670.738	1	14
670.907	1	1
671.076	1	7
671.246	1	0
671.415	1	11
671.584	1	6
671.754	1	6
671.923	1	11
672.093	1	7
672.262	1	2
672.431	1	14
672.601	1	7
672.770	1	9
672.939	1	-1
673.109	1	12
673.278	1	2
673.448	1	11
673.617	1	10
673.786	1	9
