325.333	1	4
325.504	1	9
325.675	1	8
325.846	1	1
326.017	1	7
326.188	1	17
326.359	1	14
326.531	1	18
326.702	1	16
326.873	1	6
327.044	1	18
327.215	1	3
327.386	1	12
327.557	1	3
327.728	1	11
327.899	1	1
328.070	1	16
328.241	1	15
328.412	1	0
328.583	1	13
328.754	1	3
328.926	1	7
329.097	1	2
329.268	1	0
329.439	1	8
329.610	1	17
329.781	1	18
329.952	1	6
330.123	1	8
330.294	1	7
330.465	1	8
330.636	1	24
330.807	1	8
330.978	1	15
331.149	1	11
331.320	1	17
331.492	1	12
331.663	1	12
331.834	1	4
332.005	1	19
332.176	1	14
332.347	1	22
332.518	1	20
332.689	1	17
332.860	1	22
333.031	1	8
333.202	1	8
333.373	1	8
333.544	1	15
333.715	1	9
333.886	1	3
334.057	1	14
334.228	1	10
334.399	1	16
334.570	1	1
334.741	1	21
334.912	1	12
335.084	1	2
335.255	1	15
335.426	1	14
335.597	1	16
335.768	1	7
335.939	1	10
336.110	1	9
336.281	1	9
336.452	1	14
336.623	1	9
336.794	1	9
336.965	1	9
337.136	1	17
337.307	1	22
337.478	1	5
337.649	1	8
337.820	1	5
337.991	1	30
338.162	1	14
338.333	1	25
338.504	1	22
338.675	1	20
338.846	1	18
339.017	1	23
339.188	1	28
339.359	1	17
339.530	1	16
339.701	1	5
339.872	1	15
340.043	1	17
340.214	1	15
340.385	1	24
340.556	1	4
340.727	1	22
340.898	1	17
341.069	1	-3
341.240	1	15
341.411	1	20
341.582	1	18
341.753	1	10
341.924	1	20
342.095	1	23
342.266	1	15
342.437	1	3
342.608	1	10
342.779	1	19
342.950	1	7
343.121	1	11
343.292	1	20
343.463	1	14
343.634	1	20
343.805	1	19
343.976	1	1
344.147	1	21
344.318	1	21
344.489	1	26
344.660	1	21
344.831	1	13
345.002	1	19
345.173	1	23
345.344	1	15
345.515	1	32
345.686	1	13
345.857	1	12
346.028	1	14
346.199	1	20
346.370	1	15
346.541	1	25
346.712	1	18
346.883	1	28
347.054	1	8
347.225	1	13
347.396	1	14
347.567	1	20
347.738	1	25
347.909	1	16
348.080	1	27
348.251	1	13
348.422	1	19
348.593	1	25
348.764	1	17
348.935	1	17
349.106	1	31
349.277	1	21
349.448	1	20
349.619	1	22
349.790	1	22
349.961	1	16
350.132	1	28
350.303	1	23
350.474	1	22
350.645	1	23
350.816	1	15
350.987	1	28
351.157	1	23
351.328	1	23
351.499	1	28
351.670	1	17
351.841	1	22
352.012	1	18
352.183	1	21
352.354	1	23
352.525	1	30
352.696	1	15
352.867	1	30
353.038	1	10
353.209	1	24
353.380	1	16
353.551	1	20
353.722	1	25
353.893	1	21
354.064	1	16
354.235	1	30
354.406	1	30
354.576	1	20
354.747	1	20
354.918	1	25
355.089	1	23
355.260	1	20
355.431	1	34
355.602	1	22
355.773	1	16
355.944	1	31
356.115	1	15
356.286	1	18
356.457	1	22
356.628	1	13
356.799	1	21
356.970	1	21
357.141	1	28
357.311	1	18
357.482	1	19
357.653	1	27
357.824	1	27
357.995	1	24
358.166	1	23
358.337	1	16
358.508	1	14
358.679	1	31
358.850	1	19
359.021	1	20
359.192	1	32
359.363	1	11
359.533	1	29
359.704	1	34
359.875	1	16
360.046	1	23
360.217	1	15
360.388	1	12
360.559	1	27
360.730	1	19
360.901	1	11
361.072	1	24
361.243	1	37
361.414	1	26
361.584	1	26
361.755	1	26
361.926	1	23
362.097	1	22
362.268	1	30
362.439	1	29
362.610	1	24
362.781	1	24
362.952	1	25
363.123	1	32
363.293	1	18
363.464	1	38
363.635	1	27
363.806	1	24
363.977	1	22
364.148	1	24
364.319	1	19
364.490	1	30
364.661	1	24
364.832	1	25
365.002	1	20
365.173	1	14
365.344	1	24
365.515	1	28
365.686	1	26
365.857	1	28
366.028	1	22
366.199	1	36
366.370	1	24
366.540	1	21
366.711	1	32
366.882	1	26
367.053	1	25
367.224	1	24
367.395	1	29
367.566	1	28
367.737	1	20
367.908	1	13
368.078	1	16
368.249	1	24
368.420	1	25
368.591	1	25
368.762	1	16
368.933	1	37
369.104	1	19
369.274	1	29
369.445	1	26
369.616	1	24
369.787	1	15
369.958	1	32
370.129	1	32
370.300	1	30
370.471	1	24
370.641	1	26
370.812	1	36
370.983	1	18
371.154	1	44
371.325	1	30
371.496	1	18
371.667	1	40
371.837	1	26
372.008	1	44
372.179	1	35
372.350	1	28
372.521	1	36
372.692	1	28
372.863	1	20
373.033	1	32
373.204	1	40
373.375	1	24
373.546	1	33
373.717	1	38
373.888	1	33
374.059	1	23
374.229	1	28
374.400	1	29
374.571	1	35
374.742	1	30
374.913	1	31
375.084	1	33
375.254	1	32
375.425	1	28
375.596	1	20
375.767	1	27
375.938	1	29
376.109	1	20
376.279	1	35
376.450	1	31
376.621	1	29
376.792	1	41
376.963	1	23
377.134	1	24
377.304	1	35
377.475	1	36
377.646	1	19
377.817	1	34
377.988	1	37
378.159	1	31
378.329	1	46
378.500	1	31
378.671	1	25
378.842	1	36
379.013	1	40
379.184	1	37
379.354	1	47
379.525	1	30
379.696	1	48
379.867	1	35
380.038	1	27
380.209	1	37
380.379	1	38
380.550	1	27
380.721	1	44
380.892	1	50
381.063	1	36
381.233	1	37
381.404	1	31
381.575	1	29
381.746	1	41
381.917	1	33
382.087	1	32
382.258	1	45
382.429	1	31
382.600	1	39
382.771	1	31
382.941	1	37
383.112	1	32
383.283	1	46
383.454	1	39
383.625	1	35
383.795	1	35
383.966	1	47
384.137	1	27
384.308	1	35
384.479	1	44
384.649	1	36
384.820	1	29
384.991	1	33
385.162	1	37
385.333	1	25
385.503	1	40
385.674	1	46
385.845	1	28
386.016	1	39
386.187	1	37
386.357	1	28
386.528	1	34
386.699	1	38
386.870	1	33
387.041	1	35
387.211	1	35
387.382	1	26
387.553	1	53
387.724	1	33
387.894	1	58
388.065	1	56
388.236	1	48
388.407	1	46
388.578	1	47
388.748	1	35
388.919	1	53
389.090	1	43
389.261	1	48
389.431	1	48
389.602	1	39
389.773	1	41
389.944	1	32
390.114	1	43
390.285	1	39
390.456	1	39
390.627	1	45
390.798	1	39
390.968	1	38
391.139	1	45
391.310	1	48
391.481	1	45
391.651	1	42
391.822	1	42
391.993	1	48
392.164	1	35
392.334	1	35
392.505	1	38
392.676	1	50
392.847	1	49
393.017	1	41
393.188	1	44
393.359	1	44
393.530	1	38
393.700	1	43
393.871	1	28
394.042	1	51
394.213	1	50
394.383	1	46
394.554	1	48
394.725	1	43
394.896	1	38
395.066	1	46
395.237	1	31
395.408	1	40
395.579	1	39
395.749	1	48
395.920	1	35
396.091	1	52
396.262	1	40
396.432	1	39
396.603	1	45
396.774	1	57
396.945	1	39
397.115	1	34
397.286	1	59
397.457	1	38
397.627	1	33
397.798	1	48
397.969	1	51
398.140	1	47
398.310	1	41
398.481	1	48
398.652	1	45
398.823	1	50
398.993	1	45
399.164	1	46
399.335	1	35
399.505	1	46
399.676	1	46
399.847	1	51
400.018	1	50
400.188	1	50
400.359	1	56
400.530	1	47
400.700	1	48
400.871	1	51
401.042	1	39
401.213	1	46
401.383	1	49
401.554	1	55
401.725	1	50
401.895	1	36
402.066	1	56
402.237	1	45
402.408	1	58
402.578	1	46
402.749	1	48
402.920	1	52
403.090	1	54
403.261	1	48
403.432	1	49
403.603	1	33
403.773	1	40
403.944	1	51
404.115	1	38
404.285	1	52
404.456	1	45
404.627	1	42
404.797	1	50
404.968	1	36
405.139	1	55
405.310	1	47
405.480	1	40
405.651	1	42
405.822	1	61
405.992	1	45
406.163	1	47
406.334	1	44
406.504	1	44
406.675	1	38
406.846	1	46
407.016	1	38
407.187	1	45
407.358	1	46
407.528	1	53
407.699	1	38
407.870	1	48
408.041	1	44
408.211	1	43
408.382	1	47
408.553	1	48
408.723	1	50
408.894	1	42
409.065	1	47
409.235	1	43
409.406	1	43
409.577	1	45
409.747	1	56
409.918	1	40
410.089	1	46
410.259	1	37
410.430	1	40
410.601	1	49
410.771	1	52
410.942	1	41
411.113	1	58
411.283	1	52
411.454	1	50
411.625	1	50
411.795	1	46
411.966	1	42
412.137	1	44
412.307	1	43
412.478	1	58
412.649	1	48
412.819	1	48
412.990	1	55
413.161	1	56
413.331	1	56
413.502	1	38
413.672	1	44
413.843	1	60
414.014	1	56
414.184	1	51
414.355	1	52
414.526	1	52
414.696	1	52
414.867	1	48
415.038	1	46
415.208	1	48
415.379	1	44
415.550	1	50
415.720	1	46
415.891	1	59
416.062	1	65
416.232	1	55
416.403	1	49
416.573	1	50
416.744	1	36
416.915	1	42
417.085	1	47
417.256	1	49
417.427	1	54
417.597	1	46
417.768	1	53
417.939	1	50
418.109	1	44
418.280	1	52
418.450	1	56
418.621	1	45
418.792	1	41
418.962	1	52
419.133	1	51
419.304	1	44
419.474	1	36
419.645	1	46
419.815	1	49
419.986	1	41
420.157	1	51
420.327	1	41
420.498	1	37
420.669	1	56
420.839	1	41
421.010	1	52
421.180	1	37
421.351	1	58
421.522	1	53
421.692	1	51
421.863	1	40
422.033	1	51
422.204	1	50
422.375	1	36
422.545	1	52
422.716	1	33
422.886	1	49
423.057	1	36
423.228	1	53
423.398	1	47
423.569	1	52
423.740	1	42
423.910	1	52
424.081	1	45
424.251	1	47
424.422	1	46
424.593	1	47
424.763	1	52
424.934	1	47
425.104	1	47
425.275	1	48
425.445	1	60
425.616	1	41
425.787	1	49
425.957	1	52
426.128	1	58
426.298	1	46
426.469	1	34
426.640	1	50
426.810	1	49
426.981	1	45
427.151	1	48
427.322	1	29
427.493	1	44
427.663	1	49
427.834	1	40
428.004	1	53
428.175	1	47
428.345	1	53
428.516	1	51
428.687	1	55
428.857	1	45
429.028	1	50
429.198	1	48
429.369	1	49
429.540	1	39
429.710	1	50
429.881	1	47
430.051	1	48
430.222	1	49
430.392	1	47
430.563	1	49
430.734	1	46
430.904	1	48
431.075	1	36
431.245	1	39
431.416	1	34
431.586	1	49
431.757	1	51
431.927	1	35
432.098	1	41
432.269	1	43
432.439	1	40
432.610	1	50
432.780	1	36
432.951	1	43
433.121	1	48
433.292	1	51
433.462	1	42
433.633	1	56
433.804	1	42
433.974	1	55
434.145	1	56
434.315	1	50
434.486	1	42
434.656	1	38
434.827	1	45
434.997	1	63
435.168	1	49
435.339	1	42
435.509	1	44
435.680	1	41
435.850	1	43
436.021	1	56
436.191	1	53
436.362	1	52
436.532	1	46
436.703	1	55
436.873	1	53
437.044	1	50
437.214	1	61
437.385	1	59
437.556	1	44
437.726	1	51
437.897	1	42
438.067	1	40
438.238	1	51
438.408	1	54
438.579	1	48
438.749	1	45
438.920	1	38
439.090	1	44
439.261	1	44
439.431	1	45
439.602	1	42
439.772	1	49
439.943	1	57
440.113	1	54
440.284	1	48
440.455	1	41
440.625	1	46
440.796	1	44
440.966	1	46
441.137	1	48
441.307	1	47
441.478	1	51
441.648	1	53
441.819	1	43
441.989	1	30
442.160	1	43
442.330	1	59
442.501	1	33
442.671	1	34
442.842	1	53
443.012	1	42
443.183	1	51
443.353	1	53
443.524	1	41
443.694	1	40
443.865	1	51
444.035	1	41
444.206	1	44
444.376	1	53
444.547	1	40
444.717	1	60
444.888	1	49
445.058	1	39
445.229	1	43
445.399	1	43
445.570	1	41
445.740	1	43
445.911	1	55
446.081	1	56
446.252	1	24
446.422	1	41
446.593	1	49
446.763	1	50
446.934	1	60
447.104	1	42
447.275	1	57
447.445	1	42
447.616	1	52
447.786	1	39
447.957	1	54
448.127	1	46
448.298	1	54
448.468	1	47
448.639	1	47
448.809	1	36
448.979	1	45
449.150	1	50
449.320	1	46
449.491	1	51
449.661	1	58
449.832	1	50
450.002	1	52
450.173	1	38
450.343	1	46
450.514	1	51
450.684	1	35
450.855	1	38
451.025	1	41
451.196	1	49
451.366	1	51
451.537	1	47
451.707	1	47
451.878	1	38
452.048	1	39
452.218	1	36
452.389	1	40
452.559	1	38
452.730	1	43
452.900	1	52
453.071	1	40
453.241	1	42
453.412	1	36
453.582	1	35
453.753	1	36
453.923	1	57
454.093	1	45
454.264	1	50
454.434	1	48
454.605	1	48
454.775	1	38
454.946	1	40
455.116	1	41
455.287	1	38
455.457	1	39
455.628	1	37
455.798	1	40
455.968	1	36
456.139	1	31
456.309	1	46
456.480	1	45
456.650	1	57
456.821	1	56
456.991	1	51
457.161	1	41
457.332	1	32
457.502	1	43
457.673	1	40
457.843	1	40
458.014	1	52
458.184	1	42
458.355	1	39
458.525	1	39
458.695	1	39
458.866	1	52
459.036	1	43
459.207	1	41
459.377	1	43
459.548	1	23
459.718	1	43
459.888	1	48
460.059	1	49
460.229	1	36
460.400	1	35
460.570	1	40
460.740	1	45
460.911	1	43
461.081	1	43
461.252	1	42
461.422	1	36
461.593	1	43
461.763	1	34
461.933	1	41
462.104	1	34
462.274	1	36
462.445	1	38
462.615	1	51
462.785	1	36
462.956	1	39
463.126	1	37
463.297	1	45
463.467	1	41
463.638	1	39
463.808	1	38
463.978	1	53
464.149	1	35
464.319	1	41
464.490	1	36
464.660	1	41
464.830	1	40
465.001	1	32
465.171	1	35
465.342	1	32
465.512	1	44
465.682	1	44
465.853	1	31
466.023	1	32
466.194	1	45
466.364	1	37
466.534	1	46
466.705	1	29
466.875	1	44
467.045	1	29
467.216	1	35
467.386	1	42
467.557	1	39
467.727	1	39
467.897	1	35
468.068	1	15
468.238	1	38
468.409	1	35
468.579	1	30
468.749	1	37
468.920	1	33
469.090	1	31
469.260	1	34
469.431	1	40
469.601	1	28
469.772	1	24
469.942	1	38
470.112	1	34
470.283	1	50
470.453	1	38
470.623	1	32
470.794	1	34
470.964	1	42
471.135	1	44
471.305	1	38
471.475	1	30
471.646	1	31
471.816	1	29
471.986	1	37
472.157	1	45
472.327	1	44
472.497	1	48
472.668	1	32
472.838	1	31
473.009	1	37
473.179	1	33
473.349	1	41
473.520	1	36
473.690	1	49
473.860	1	29
474.031	1	41
474.201	1	37
474.371	1	30
474.542	1	42
474.712	1	34
474.882	1	18
475.053	1	43
475.223	1	28
475.394	1	31
475.564	1	41
475.734	1	43
475.905	1	28
476.075	1	24
476.245	1	33
476.416	1	17
476.586	1	26
476.756	1	33
476.927	1	21
477.097	1	36
477.267	1	40
477.438	1	41
477.608	1	31
477.778	1	25
477.949	1	32
478.119	1	34
478.289	1	18
478.460	1	30
478.630	1	33
478.800	1	35
478.971	1	37
479.141	1	31
479.311	1	31
479.482	1	41
479.652	1	39
479.822	1	36
479.993	1	34
480.163	1	35
480.333	1	34
480.504	1	24
480.674	1	42
480.844	1	30
481.015	1	26
481.185	1	26
481.355	1	38
481.525	1	29
481.696	1	36
481.866	1	34
482.036	1	36
482.207	1	28
482.377	1	34
482.547	1	30
482.718	1	24
482.888	1	35
483.058	1	27
483.229	1	19
483.399	1	34
483.569	1	27
483.740	1	26
483.910	1	33
484.080	1	22
484.250	1	12
484.421	1	32
484.591	1	33
484.761	1	25
484.932	1	22
485.102	1	36
485.272	1	21
485.443	1	34
485.613	1	37
485.783	1	35
485.953	1	40
486.124	1	39
486.294	1	24
486.464	1	20
486.635	1	32
486.805	1	19
486.975	1	25
487.146	1	22
487.316	1	28
487.486	1	25
487.656	1	17
487.827	1	25
487.997	1	16
488.167	1	28
488.338	1	25
488.508	1	30
488.678	1	22
488.848	1	23
489.019	1	20
489.189	1	18
489.359	1	26
489.529	1	29
489.700	1	23
489.870	1	17
490.040	1	21
490.211	1	14
490.381	1	23
490.551	1	28
490.721	1	34
490.892	1	18
491.062	1	24
491.232	1	24
491.402	1	26
491.573	1	31
491.743	1	27
491.913	1	17
492.084	1	31
492.254	1	22
492.424	1	31
492.594	1	25
492.765	1	19
492.935	1	16
493.105	1	27
493.275	1	15
493.446	1	17
493.616	1	23
493.786	1	17
493.956	1	16
494.127	1	45
494.297	1	16
494.467	1	24
494.637	1	39
494.808	1	21
494.978	1	10
495.148	1	28
495.318	1	26
495.489	1	12
495.659	1	10
495.829	1	20
495.999	1	19
496.170	1	21
496.340	1	24
496.510	1	21
496.680	1	17
496.851	1	21
497.021	1	18
497.191	1	13
497.361	1	18
497.532	1	20
497.702	1	26
497.872	1	29
498.042	1	23
498.213	1	34
498.383	1	29
498.553	1	11
498.723	1	17
498.894	1	23
499.064	1	20
499.234	1	15
499.404	1	17
499.574	1	19
499.745	1	23
499.915	1	18
500.085	1	6
500.255	1	14
500.426	1	35
500.596	1	22
500.766	1	17
500.936	1	30
501.106	1	21
501.277	1	25
501.447	1	7
501.617	1	26
501.787	1	16
501.958	1	14
502.128	1	6
502.298	1	22
502.468	1	26
502.638	1	24
502.809	1	16
502.979	1	32
503.149	1	13
503.319	1	25
503.489	1	12
503.660	1	13
503.830	1	17
504.000	1	14
504.170	1	20
504.340	1	20
504.511	1	22
504.681	1	12
504.851	1	12
505.021	1	28
505.192	1	10
505.362	1	21
505.532	1	24
505.702	1	18
505.872	1	19
506.043	1	18
506.213	1	16
506.383	1	17
506.553	1	14
506.723	1	17
506.893	1	7
507.064	1	0
507.234	1	20
507.404	1	24
507.574	1	11
507.744	1	19
507.915	1	7
508.085	1	27
508.255	1	15
508.425	1	15
508.595	1	11
508.766	1	10
508.936	1	21
509.106	1	15
509.276	1	15
509.446	1	11
509.616	1	26
509.787	1	27
509.957	1	11
510.127	1	8
510.297	1	9
510.467	1	11
510.638	1	20
510.808	1	17
510.978	1	19
511.148	1	34
511.318	1	7
511.488	1	24
511.659	1	6
511.829	1	17
511.999	1	18
512.169	1	17
512.339	1	13
512.509	1	18
512.680	1	15
512.850	1	22
513.020	1	8
513.190	1	8
513.360	1	12
513.530	1	14
513.700	1	21
513.871	1	15
514.041	1	15
514.211	1	20
514.381	1	21
514.551	1	13
514.721	1	17
514.892	1	9
515.062	1	11
515.232	1	21
515.402	1	16
515.572	1	12
515.742	1	8
515.912	1	11
516.083	1	19
516.253	1	27
516.423	1	18
516.593	1	18
516.763	1	15
516.933	1	-4
517.104	1	16
517.274	1	4
517.444	1	11
517.614	1	15
517.784	1	11
517.954	1	27
518.124	1	9
518.294	1	20
518.465	1	10
518.635	1	12
518.805	1	21
518.975	1	18
519.145	1	20
519.315	1	-1
519.485	1	3
519.656	1	20
519.826	1	18
519.996	1	13
520.166	1	19
520.336	1	17
520.506	1	8
520.676	1	18
520.846	1	10
521.017	1	4
521.187	1	17
521.357	1	10
521.527	1	26
521.697	1	19
521.867	1	5
522.037	1	4
522.207	1	9
522.377	1	15
522.548	1	17
522.718	1	11
522.888	1	16
523.058	1	13
523.228	1	13
523.398	1	16
523.568	1	17
523.738	1	12
523.909	1	11
524.079	1	9
524.249	1	13
524.419	1	10
524.589	1	7
524.759	1	16
524.929	1	13
525.099	1	15
525.269	1	18
525.439	1	2
525.610	1	12
525.780	1	5
525.950	1	10
526.120	1	10
526.290	1	9
526.460	1	14
526.630	1	11
526.800	1	12
526.970	1	16
527.140	1	16
527.311	1	5
527.481	1	9
527.651	1	16
527.821	1	3
527.991	1	11
528.161	1	17
528.331	1	15
528.501	1	15
528.671	1	11
528.841	1	12
529.011	1	2
529.181	1	15
529.352	1	9
529.522	1	-2
529.692	1	1
529.862	1	30
530.032	1	2
530.202	1	14
530.372	1	1
530.542	1	12
530.712	1	5
530.882	1	13
531.052	1	20
531.222	1	4
531.392	1	15
531.563	1	9
531.733	1	9
531.903	1	13
532.073	1	3
532.243	1	7
532.413	1	18
532.583	1	11
532.753	1	13
532.923	1	25
533.093	1	24
533.263	1	7
533.433	1	16
533.603	1	18
533.773	1	1
533.943	1	7
534.113	1	16
534.284	1	-6
534.454	1	6
534.624	1	15
534.794	1	3
534.964	1	7
535.134	1	27
535.304	1	8
535.474	1	-3
535.644	1	1
535.814	1	11
535.984	1	17
536.154	1	18
536.324	1	23
536.494	1	14
536.664	1	15
536.834	1	13
537.004	1	16
537.174	1	2
537.344	1	11
537.514	1	7
537.685	1	8
537.855	1	4
538.025	1	11
538.195	1	8
538.365	1	6
538.535	1	10
538.705	1	22
538.875	1	16
539.045	1	8
539.215	1	6
539.385	1	3
539.555	1	8
539.725	1	9
539.895	1	16
540.065	1	14
540.235	1	18
540.405	1	8
540.575	1	11
540.745	1	6
540.915	1	6
541.085	1	5
541.255	1	4
541.425	1	18
541.595	1	21
541.765	1	19
541.935	1	5
542.105	1	4
542.275	1	14
542.445	1	2
542.615	1	8
542.785	1	7
542.955	1	9
543.125	1	4
543.295	1	-5
543.465	1	0
543.635	1	5
543.805	1	17
543.975	1	10
544.145	1	10
544.315	1	8
544.485	1	5
544.655	1	16
544.825	1	11
544.995	1	6
545.165	1	13
545.335	1	2
545.505	1	21
545.675	1	5
545.845	1	11
546.015	1	14
546.185	1	13
546.355	1	18
546.525	1	1
546.695	1	4
546.865	1	17
547.035	1	11
547.205	1	12
547.375	1	6
547.545	1	17
547.715	1	14
547.885	1	15
548.055	1	-5
548.225	1	8
548.395	1	5
548.565	1	15
548.735	1	10
548.905	1	1
549.075	1	19
549.245	1	14
549.415	1	2
549.585	1	20
549.755	1	15
549.925	1	8
550.095	1	-1
550.265	1	-1
550.435	1	-1
550.605	1	8
550.775	1	5
550.945	1	15
551.115	1	10
551.285	1	7
551.455	1	15
551.625	1	5
551.795	1	-1
551.965	1	8
552.135	1	10
552.305	1	4
552.475	1	4
552.645	1	7
552.815	1	19
552.985	1	11
553.155	1	6
553.325	1	13
553.495	1	-1
553.665	1	14
553.835	1	3
554.004	1	-7
554.174	1	3
554.344	1	12
554.514	1	17
554.684	1	5
554.854	1	2
555.024	1	7
555.194	1	14
555.364	1	12
555.534	1	8
555.704	1	14
555.874	1	3
556.044	1	13
556.214	1	17
556.384	1	13
556.554	1	4
556.724	1	13
556.894	1	-2
557.064	1	10
557.234	1	6
557.404	1	8
557.573	1	5
557.743	1	3
557.913	1	8
558.083	1	12
558.253	1	-2
558.423	1	2
558.593	1	15
558.763	1	7
558.933	1	3
559.103	1	21
559.273	1	11
559.443	1	11
559.613	1	10
559.783	1	10
559.953	1	16
560.122	1	2
560.292	1	5
560.462	1	-1
560.632	1	9
560.802	1	17
560.972	1	12
561.142	1	13
561.312	1	6
561.482	1	11
561.652	1	4
561.822	1	-1
561.992	1	-16
562.162	1	11
562.331	1	10
562.501	1	-5
562.671	1	10
562.841	1	7
563.011	1	0
563.181	1	21
563.351	1	2
563.521	1	18
563.691	1	9
563.861	1	7
564.031	1	0
564.201	1	10
564.370	1	8
564.540	1	6
564.710	1	7
564.880	1	14
565.050	1	11
565.220	1	3
565.390	1	17
565.560	1	1
565.730	1	3
565.900	1	-1
566.069	1	7
566.239	1	9
566.409	1	12
566.579	1	2
566.749	1	11
566.919	1	13
567.089	1	8
567.259	1	9
567.429	1	5
567.599	1	3
567.768	1	4
567.938	1	2
568.108	1	6
568.278	1	4
568.448	1	8
568.618	1	12
568.788	1	-3
568.958	1	0
569.128	1	7
569.297	1	4
569.467	1	7
569.637	1	16
569.807	1	1
569.977	1	11
570.147	1	8
570.317	1	11
570.487	1	11
570.656	1	9
570.826	1	1
570.996	1	11
571.166	1	8
571.336	1	1
571.506	1	-5
571.676	1	-2
571.846	1	-5
572.015	1	13
572.185	1	9
572.355	1	11
572.525	1	6
572.695	1	8
572.865	1	20
573.035	1	-2
573.205	1	-2
573.374	1	12
573.544	1	0
573.714	1	12
573.884	1	5
574.054	1	3
574.224	1	15
574.394	1	7
574.563	1	14
574.733	1	11
574.903	1	-2
575.073	1	3
575.243	1	7
575.413	1	9
575.583	1	12
575.752	1	5
575.922	1	9
576.092	1	0
576.262	1	4
576.432	1	14
576.602	1	1
576.772	1	6
576.941	1	11
577.111	1	9
577.281	1	18
577.451	1	3
577.621	1	15
577.791	1	1
577.960	1	2
578.130	1	6
578.300	1	2
578.470	1	16
578.640	1	0
578.810	1	17
578.979	1	7
579.149	1	13
579.319	1	18
579.489	1	6
579.659	1	12
579.829	1	15
579.998	1	8
580.168	1	-1
580.338	1	-1
580.508	1	3
580.678	1	13
580.848	1	1
581.017	1	10
581.187	1	17
581.357	1	9
581.527	1	3
581.697	1	-1
581.867	1	7
582.036	1	3
582.206	1	5
582.376	1	15
582.546	1	23
582.716	1	6
582.885	1	6
583.055	1	-4
583.225	1	11
583.395	1	-3
583.565	1	-4
583.735	1	3
583.904	1	5
584.074	1	1
584.244	1	15
584.414	1	6
584.584	1	10
584.753	1	9
584.923	1	10
585.093	1	1
585.263	1	6
585.433	1	14
585.602	1	10
585.772	1	13
585.942	1	5
586.112	1	4
586.282	1	12
586.451	1	3
586.621	1	4
586.791	1	7
586.961	1	8
587.131	1	3
587.300	1	16
587.470	1	3
587.640	1	-1
587.810	1	1
587.980	1	0
588.149	1	8
588.319	1	12
588.489	1	-3
588.659	1	21
588.829	1	4
588.998	1	3
589.168	1	7
589.338	1	7
589.508	1	13
589.677	1	15
589.847	1	5
590.017	1	3
590.187	1	11
590.357	1	2
590.526	1	15
590.696	1	3
590.866	1	3
591.036	1	1
591.205	1	3
591.375	1	6
591.545	1	7
591.715	1	4
591.885	1	9
592.054	1	-2
592.224	1	6
592.394	1	3
592.564	1	13
592.733	1	13
592.903	1	4
593.073	1	-3
593.243	1	6
593.412	1	-1
593.582	1	6
593.752	1	2
593.922	1	6
594.091	1	-2
594.261	1	-1
594.431	1	14
594.601	1	10
594.771	1	14
594.940	1	4
595.110	1	0
595.280	1	9
595.450	1	15
595.619	1	11
595.789	1	16
595.959	1	3
596.129	1	7
596.298	1	13
596.468	1	9
596.638	1	21
596.808	1	0
596.977	1	6
597.147	1	11
597.317	1	11
597.487	1	10
597.656	1	12
597.826	1	1
597.996	1	7
598.166	1	13
598.335	1	-2
598.505	1	-3
598.675	1	2
598.844	1	9
599.014	1	-1
599.184	1	4
599.354	1	5
599.523	1	5
599.693	1	14
599.863	1	18
600.033	1	0
600.202	1	17
600.372	1	13
600.542	1	15
600.712	1	2
600.881	1	8
601.051	1	16
601.221	1	17
601.390	1	12
601.560	1	8
601.730	1	11
601.900	1	25
602.069	1	-11
602.239	1	9
602.409	1	5
602.578	1	10
602.748	1	3
602.918	1	8
603.088	1	13
603.257	1	4
603.427	1	5
603.597	1	2
603.767	1	-1
603.936	1	19
604.106	1	17
604.276	1	9
604.445	1	-6
604.615	1	3
604.785	1	9
604.954	1	4
605.124	1	8
605.294	1	12
605.464	1	4
605.633	1	8
605.803	1	5
605.973	1	17
606.142	1	8
606.312	1	11
606.482	1	3
606.652	1	15
606.821	1	9
606.991	1	5
607.161	1	12
607.330	1	3
607.500	1	18
607.670	1	8
607.839	1	4
608.009	1	8
608.179	1	8
608.348	1	1
608.518	1	8
608.688	1	9
608.858	1	11
609.027	1	2
609.197	1	1
609.367	1	6
609.536	1	19
609.706	1	7
609.876	1	-2
610.045	1	8
610.215	1	15
610.385	1	4
610.554	1	4
610.724	1	12
610.894	1	4
611.063	1	0
611.233	1	-2
611.403	1	8
611.572	1	11
611.742	1	8
611.912	1	12
612.081	1	10
612.251	1	6
612.421	1	1
612.590	1	-2
612.760	1	13
612.930	1	10
613.099	1	14
613.269	1	9
613.439	1	1
613.608	1	2
613.778	1	1
613.948	1	18
614.117	1	5
614.287	1	4
614.457	1	4
614.626	1	15
614.796	1	9
614.966	1	6
615.135	1	19
615.305	1	25
615.475	1	1
615.644	1	11
615.814	1	3
615.984	1	25
616.153	1	4
616.323	1	7
616.493	1	17
616.662	1	6
616.832	1	12
617.002	1	0
617.171	1	13
617.341	1	7
617.511	1	9
617.680	1	6
617.850	1	7
618.019	1	18
618.189	1	5
618.359	1	4
618.528	1	10
618.698	1	3
618.868	1	-12
619.037	1	17
619.207	1	8
619.377	1	12
619.546	1	2
619.716	1	10
619.885	1	3
620.055	1	21
620.225	1	13
620.394	1	8
620.564	1	-6
620.734	1	6
620.903	1	8
621.073	1	12
621.242	1	0
621.412	1	17
621.582	1	-3
621.751	1	12
621.921	1	18
622.091	1	5
622.260	1	1
622.430	1	8
622.599	1	7
622.769	1	8
622.939	1	2
623.108	1	10
623.278	1	26
623.448	1	14
623.617	1	1
623.787	1	20
623.956	1	12
624.126	1	8
624.296	1	17
624.465	1	0
624.635	1	16
624.804	1	13
624.974	1	16
625.144	1	19
625.313	1	11
625.483	1	15
625.652	1	18
625.822	1	4
625.992	1	20
626.161	1	3
626.331	1	8
626.501	1	7
626.670	1	12
626.840	1	17
627.009	1	5
627.179	1	-2
627.348	1	13
627.518	1	12
627.688	1	11
627.857	1	11
628.027	1	-3
628.196	1	2
628.366	1	12
628.536	1	12
628.705	1	14
628.875	1	16
629.044	1	9
629.214	1	1
629.384	1	4
629.553	1	19
629.723	1	4
629.892	1	5
630.062	1	-4
630.232	1	11
630.401	1	4
630.571	1	17
630.740	1	12
630.910	1	11
631.079	1	-1
631.249	1	7
631.419	1	10
631.588	1	2
631.758	1	7
631.927	1	8
632.097	1	11
632.266	1	0
632.436	1	11
632.606	1	3
632.775	1	18
632.945	1	1
633.114	1	7
633.284	1	13
633.453	1	12
633.623	1	18
633.793	1	7
633.962	1	12
634.132	1	7
634.301	1	9
634.471	1	-5
634.640	1	11
634.810	1	15
634.979	1	9
635.149	1	18
635.319	1	19
635.488	1	3
635.658	1	15
635.827	1	-2
635.997	1	12
636.166	1	11
636.336	1	15
636.505	1	8
636.675	1	4
636.845	1	13
637.014	1	13
637.184	1	13
637.353	1	2
637.523	1	18
637.692	1	6
637.862	1	9
638.031	1	2
638.201	1	6
638.370	1	23
638.540	1	7
638.710	1	14
638.879	1	22
639.049	1	1
639.218	1	27
639.388	1	15
639.557	1	13
639.727	1	13
639.896	1	14
640.066	1	10
640.235	1	14
640.405	1	4
640.574	1	5
640.744	1	2
640.914	1	15
641.083	1	10
641.253	1	10
641.422	1	13
641.592	1	3
641.761	1	8
641.931	1	11
642.100	1	13
642.270	1	9
642.439	1	8
642.609	1	23
642.778	1	19
642.948	1	8
643.117	1	16
643.287	1	1
643.456	1	16
643.626	1	11
643.795	1	8
643.965	1	19
644.134	1	5
644.304	1	21
644.473	1	5
644.643	1	2
644.812	1	14
644.982	1	10
645.151	1	13
645.321	1	4
645.490	1	20
645.660	1	10
645.829	1	5
645.999	1	8
646.168	1	7
646.338	1	6
646.507	1	9
646.677	1	10
646.846	1	4
647.016	1	7
647.185	1	4
647.355	1	17
647.524	1	9
647.694	1	4
647.863	1	15
648.033	1	6
648.202	1	13
648.372	1	8
648.541	1	10
648.711	1	14
648.880	1	6
649.050	1	13
649.219	1	14
649.389	1	15
649.558	1	16
649.728	1	13
649.897	1	5
650.067	1	8
650.236	1	1
650.406	1	14
650.575	1	12
650.745	1	8
650.914	1	11
651.084	1	13
651.253	1	15
651.423	1	16
651.592	1	-4
651.762	1	12
651.931	1	15
652.101	1	14
652.270	1	3
652.440	1	14
652.609	1	16
652.778	1	14
652.948	1	12
653.117	1	17
653.287	1	4
653.456	1	13
653.626	1	6
653.795	1	16
653.965	1	6
654.134	1	1
654.304	1	11
654.473	1	8
654.643	1	5
654.812	1	13
654.982	1	10
655.151	1	14
655.320	1	17
655.490	1	12
655.659	1	7
655.829	1	16
655.998	1	4
656.168	1	7
656.337	1	3
656.507	1	1
656.676	1	15
656.846	1	9
657.015	1	6
657.184	1	13
657.354	1	15
657.523	1	9
657.693	1	7
657.862	1	-1
658.032	1	20
658.201	1	1
658.371	1	12
658.540	1	9
658.709	1	8
658.879	1	20
659.048	1	11
659.218	1	3
659.387	1	20
659.557	1	2
659.726	1	9
659.895	1	11
660.065	1	19
660.234	1	5
660.404	1	11
660.573	1	14
660.743	1	13
660.912	1	-4
661.081	1	-1
661.251	1	16
661.420	1	15
661.590	1	4
661.759	1	15
661.929	1	8
662.098	1	7
662.267	1	11
662.437	1	13
662.606	1	14
662.776	1	9
662.945	1	16
663.115	1	9
663.284	1	15
663.453	1	7
663.623	1	18
663.792	1	15
663.962	1	10
664.131	1	12
664.300	1	1
664.470	1	14
664.639	1	7
664.809	1	17
664.978	1	14
665.148	1	-1
665.317	1	14
665.486	1	4
665.656	1	11
665.825	1	15
665.995	1	16
666.164	1	12
666.333	1	3
666.503	1	10
666.672	1	17
666.842	1	4
667.011	1	9
667.180	1	18
667.350	1	10
667.519	1	2
667.689	1	12
667.858	1	14
668.027	1	11
668.197	1	16
668.366	1	5
668.536	1	5
668.705	1	15
668.874	1	6
669.044	1	10
669.213	1	15
669.382	1	12
669.552	1	22
669.721	1	8
669.891	1	11
670.060	1	6
670.229	1	3
670.399	1	14
670.568	1	3
670.738	1	6
670.907	1	11
671.076	1	18
671.246	1	6
671.415	1	13
671.584	1	9
671.754	1	0
671.923	1	22
672.093	1	4
672.262	1	7
672.431	1	11
672.601	1	21
672.770	1	4
672.939	1	12
673.109	1	20
673.278	1	4
673.448	1	9
673.617	1	6
673.786	1	20
