325.333	1	14
325.504	1	13
325.675	1	8
325.846	1	15
326.017	1	5
326.188	1	15
326.359	1	11
326.531	1	17
326.702	1	18
326.873	1	1
327.044	1	23
327.215	1	-3
327.386	1	16
327.557	1	10
327.728	1	7
327.899	1	9
328.070	1	21
328.241	1	12
328.412	1	3
328.583	1	12
328.754	1	-1
328.926	1	18
329.097	1	-1
329.268	1	-3
329.439	1	11
329.610	1	16
329.781	1	16
329.952	1	20
330.123	1	14
330.294	1	16
330.465	1	13
330.636	1	14
330.807	1	13
330.978	1	9
331.149	1	21
331.320	1	24
331.492	1	2
331.663	1	13
331.834	1	8
332.005	1	17
332.176	1	19
332.347	1	24
332.518	1	19
332.689	1	5
332.860	1	17
333.031	1	20
333.202	1	15
333.373	1	16
333.544	1	8
333.715	1	8
333.886	1	13
334.057	1	16
334.228	1	11
334.399	1	18
334.570	1	5
334.741	1	15
334.912	1	12
335.084	1	13
335.255	1	23
335.426	1	31
335.597	1	18
335.768	1	3
335.939	1	16
336.110	1	18
336.281	1	24
336.452	1	15
336.623	1	14
336.794	1	8
336.965	1	8
337.136	1	22
337.307	1	16
337.478	1	18
337.649	1	1
337.820	1	24
337.991	1	23
338.162	1	10
338.333	1	34
338.504	1	28
338.675	1	24
338.846	1	26
339.017	1	24
339.188	1	22
339.359	1	25
339.530	1	20
339.701	1	11
339.872	1	11
340.043	1	12
340.214	1	13
340.385	1	17
340.556	1	13
340.727	1	22
340.898	1	25
341.069	1	16
341.240	1	11
341.411	1	29
341.582	1	21
341.753	1	14
341.924	1	21
342.095	1	25
342.266	1	9
342.437	1	7
342.608	1	16
342.779	1	22
342.950	1	23
343.121	1	12
343.292	1	29
343.463	1	22
343.634	1	16
343.805	1	12
343.976	1	9
344.147	1	24
344.318	1	10
344.489	1	26
344.660	1	24
344.831	1	21
345.002	1	30
345.173	1	27
345.344	1	18
345.515	1	17
345.686	1	12
345.857	1	17
346.028	1	19
346.199	1	20
346.370	1	24
346.541	1	19
346.712	1	23
346.883	1	24
347.054	1	19
347.225	1	13
347.396	1	21
347.567	1	17
347.738	1	18
347.909	1	21
348.080	1	28
348.251	1	28
348.422	1	24
348.593	1	29
348.764	1	22
348.935	1	22
349.106	1	25
349.277	1	26
349.448	1	14
349.619	1	17
349.790	1	19
349.961	1	22
350.132	1	32
350.303	1	25
350.474	1	16
350.645	1	37
350.816	1	22
350.987	1	23
351.157	1	29
351.328	1	23
351.499	1	29
351.670	1	18
351.841	1	15
352.012	1	17
352.183	1	27
352.354	1	27
352.525	1	26
352.696	1	30
352.867	1	29
353.038	1	16
353.209	1	30
353.380	1	14
353.551	1	24
353.722	1	30
353.893	1	29
354.064	1	26
354.235	1	29
354.406	1	30
354.576	1	29
354.747	1	31
354.918	1	30
355.089	1	33
355.260	1	29
355.431	1	33
355.602	1	34
355.773	1	25
355.944	1	28
356.115	1	19
356.286	1	33
356.457	1	20
356.628	1	22
356.799	1	37
356.970	1	31
357.141	1	35
357.311	1	18
357.482	1	24
357.653	1	34
357.824	1	33
357.995	1	30
358.166	1	37
358.337	1	34
358.508	1	14
358.679	1	34
358.850	1	35
359.021	1	30
359.192	1	23
359.363	1	21
359.533	1	19
359.704	1	34
359.875	1	31
360.046	1	32
360.217	1	19
360.388	1	23
360.559	1	34
360.730	1	26
360.901	1	32
361.072	1	32
361.243	1	28
361.414	1	29
361.584	1	50
361.755	1	22
361.926	1	28
362.097	1	23
362.268	1	41
362.439	1	40
362.610	1	35
362.781	1	38
362.952	1	35
363.123	1	27
363.293	1	35
363.464	1	36
363.635	1	42
363.806	1	32
363.977	1	41
364.148	1	30
364.319	1	27
364.490	1	29
364.661	1	27
364.832	1	41
365.002	1	16
365.173	1	14
365.344	1	30
365.515	1	34
365.686	1	32
365.857	1	37
366.028	1	34
366.199	1	36
366.370	1	21
366.540	1	32
366.711	1	38
366.882	1	29
367.053	1	35
367.224	1	24
367.395	1	40
367.566	1	43
367.737	1	28
367.908	1	22
368.078	1	33
368.249	1	34
368.420	1	27
368.591	1	37
368.762	1	14
368.933	1	38
369.104	1	41
369.274	1	34
369.445	1	42
369.616	1	30
369.787	1	31
369.958	1	44
370.129	1	38
370.300	1	42
370.471	1	34
370.641	1	38
370.812	1	42
370.983	1	29
371.154	1	45
371.325	1	49
371.496	1	41
371.667	1	38
371.837	1	34
372.008	1	37
372.179	1	26
372.350	1	36
372.521	1	45
372.692	1	24
372.863	1	38
373.033	1	40
373.204	1	42
373.375	1	38
373.546	1	44
373.717	1	47
373.888	1	45
374.059	1	31
374.229	1	44
374.400	1	36
374.571	1	41
374.742	1	40
374.913	1	47
375.084	1	49
375.254	1	40
375.425	1	32
375.596	1	27
375.767	1	28
375.938	1	28
376.109	1	26
376.279	1	43
376.450	1	39
376.621	1	47
376.792	1	48
376.963	1	37
377.134	1	37
377.304	1	46
377.475	1	37
377.646	1	31
377.817	1	27
377.988	1	42
378.159	1	50
378.329	1	50
378.500	1	33
378.671	1	42
378.842	1	40
379.013	1	43
379.184	1	38
379.354	1	47
379.525	1	32
379.696	1	49
379.867	1	36
380.038	1	43
380.209	1	44
380.379	1	37
380.550	1	40
380.721	1	46
380.892	1	50
381.063	1	46
381.233	1	42
381.404	1	37
381.575	1	38
381.746	1	48
381.917	1	36
382.087	1	36
382.258	1	51
382.429	1	41
382.600	1	51
382.771	1	39
382.941	1	42
383.112	1	37
383.283	1	46
383.454	1	49
383.625	1	42
383.795	1	47
383.966	1	49
384.137	1	49
384.308	1	50
384.479	1	46
384.649	1	43
384.820	1	44
384.991	1	34
385.162	1	52
385.333	1	46
385.503	1	52
385.674	1	43
385.845	1	47
386.016	1	41
386.187	1	47
386.357	1	39
386.528	1	35
386.699	1	40
386.870	1	43
387.041	1	44
387.211	1	51
387.382	1	47
387.553	1	52
387.724	1	35
387.894	1	53
388.065	1	52
388.236	1	61
388.407	1	49
388.578	1	62
388.748	1	59
388.919	1	59
389.090	1	45
389.261	1	55
389.431	1	62
389.602	1	42
389.773	1	31
389.944	1	42
390.114	1	53
390.285	1	49
390.456	1	45
390.627	1	66
390.798	1	53
390.968	1	47
391.139	1	49
391.310	1	60
391.481	1	52
391.651	1	49
391.822	1	52
391.993	1	40
392.164	1	46
392.334	1	36
392.505	1	48
392.676	1	49
392.847	1	63
393.017	1	41
393.188	1	41
393.359	1	41
393.530	1	60
393.700	1	42
393.871	1	49
394.042	1	59
394.213	1	57
394.383	1	60
394.554	1	60
394.725	1	52
394.896	1	60
395.066	1	48
395.237	1	47
395.408	1	43
395.579	1	50
395.749	1	59
395.920	1	43
396.091	1	60
396.262	1	37
396.432	1	50
396.603	1	56
396.774	1	46
396.945	1	49
397.115	1	35
397.286	1	58
397.457	1	48
397.627	1	49
397.798	1	57
397.969	1	61
398.140	1	44
398.310	1	46
398.481	1	54
398.652	1	47
398.823	1	46
398.993	1	70
399.164	1	47
399.335	1	52
399.505	1	62
399.676	1	60
399.847	1	59
400.018	1	54
400.188	1	64
400.359	1	68
400.530	1	43
400.700	1	63
400.871	1	57
401.042	1	63
401.213	1	52
401.383	1	60
401.554	1	63
401.725	1	41
401.895	1	50
402.066	1	63
402.237	1	62
402.408	1	57
402.578	1	50
402.749	1	63
402.920	1	58
403.090	1	61
403.261	1	61
403.432	1	57
403.603	1	43
403.773	1	61
403.944	1	51
404.115	1	46
404.285	1	71
404.456	1	51
404.627	1	41
404.797	1	45
404.968	1	46
405.139	1	47
405.310	1	49
405.480	1	57
405.651	1	52
405.822	1	68
405.992	1	44
406.163	1	64
406.334	1	58
406.504	1	40
406.675	1	48
406.846	1	59
407.016	1	53
407.187	1	58
407.358	1	49
407.528	1	47
407.699	1	50
407.870	1	71
408.041	1	54
408.211	1	52
408.382	1	61
408.553	1	46
408.723	1	59
408.894	1	63
409.065	1	63
409.235	1	50
409.406	1	58
409.577	1	45
409.747	1	69
409.918	1	58
410.089	1	55
410.259	1	50
410.430	1	48
410.601	1	63
410.771	1	64
410.942	1	48
411.113	1	59
411.283	1	74
411.454	1	59
411.625	1	64
411.795	1	44
411.966	1	52
412.137	1	49
412.307	1	61
412.478	1	65
412.649	1	63
412.819	1	51
412.990	1	65
413.161	1	62
413.331	1	62
413.502	1	49
413.672	1	68
413.843	1	60
414.014	1	68
414.184	1	68
414.355	1	52
414.526	1	57
414.696	1	61
414.867	1	56
415.038	1	50
415.208	1	50
415.379	1	62
415.550	1	67
415.720	1	41
415.891	1	70
416.062	1	50
416.232	1	65
416.403	1	71
416.573	1	54
416.744	1	49
416.915	1	49
417.085	1	46
417.256	1	56
417.427	1	58
417.597	1	59
417.768	1	60
417.939	1	60
418.109	1	37
418.280	1	64
418.450	1	57
418.621	1	60
418.792	1	51
418.962	1	56
419.133	1	66
419.304	1	55
419.474	1	51
419.645	1	44
419.815	1	43
419.986	1	45
420.157	1	70
420.327	1	50
420.498	1	59
420.669	1	71
420.839	1	53
421.010	1	61
421.180	1	51
421.351	1	70
421.522	1	65
421.692	1	58
421.863	1	57
422.033	1	76
422.204	1	58
422.375	1	49
422.545	1	57
422.716	1	50
422.886	1	66
423.057	1	49
423.228	1	57
423.398	1	62
423.569	1	66
423.740	1	49
423.910	1	66
424.081	1	63
424.251	1	56
424.422	1	53
424.593	1	62
424.763	1	58
424.934	1	66
425.104	1	58
425.275	1	66
425.445	1	70
425.616	1	54
425.787	1	55
425.957	1	53
426.128	1	59
426.298	1	46
426.469	1	49
426.640	1	59
426.810	1	64
426.981	1	57
427.151	1	57
427.322	1	49
427.493	1	47
427.663	1	46
427.834	1	48
428.004	1	63
428.175	1	53
428.345	1	68
428.516	1	56
428.687	1	53
428.857	1	50
429.028	1	54
429.198	1	63
429.369	1	53
429.540	1	46
429.710	1	59
429.881	1	58
430.051	1	45
430.222	1	52
430.392	1	48
430.563	1	49
430.734	1	50
430.904	1	58
431.075	1	43
431.245	1	55
431.416	1	41
431.586	1	60
431.757	1	65
431.927	1	39
432.098	1	46
432.269	1	68
432.439	1	54
432.610	1	58
432.780	1	60
432.951	1	55
433.121	1	51
433.292	1	59
433.462	1	56
433.633	1	60
433.804	1	42
433.974	1	54
434.145	1	55
434.315	1	55
434.486	1	48
434.656	1	64
434.827	1	49
434.997	1	60
435.168	1	47
435.339	1	60
435.509	1	50
435.680	1	57
435.850	1	54
436.021	1	60
436.191	1	68
436.362	1	67
436.532	1	58
436.703	1	63
436.873	1	56
437.044	1	50
437.214	1	66
437.385	1	66
437.556	1	40
437.726	1	50
437.897	1	46
438.067	1	54
438.238	1	56
438.408	1	63
438.579	1	62
438.749	1	49
438.920	1	55
439.090	1	42
439.261	1	45
439.431	1	58
439.602	1	52
439.772	1	58
439.943	1	54
440.113	1	57
440.284	1	47
440.455	1	73
440.625	1	53
440.796	1	53
440.966	1	41
441.137	1	49
441.307	1	49
441.478	1	52
441.648	1	50
441.819	1	56
441.989	1	43
442.160	1	60
442.330	1	57
442.501	1	49
442.671	1	49
442.842	1	58
443.012	1	51
443.183	1	43
443.353	1	54
443.524	1	46
443.694	1	49
443.865	1	56
444.035	1	54
444.206	1	52
444.376	1	49
444.547	1	48
444.717	1	60
444.888	1	53
445.058	1	54
445.229	1	54
445.399	1	47
445.570	1	43
445.740	1	54
445.911	1	53
446.081	1	55
446.252	1	29
446.422	1	64
446.593	1	53
446.763	1	58
446.934	1	52
447.104	1	48
447.275	1	53
447.445	1	51
447.616	1	44
447.786	1	44
447.957	1	53
448.127	1	56
448.298	1	47
448.468	1	57
448.639	1	53
448.809	1	47
448.979	1	57
449.150	1	39
449.320	1	55
449.491	1	54
449.661	1	66
449.832	1	58
450.002	1	59
450.173	1	40
450.343	1	50
450.514	1	59
450.684	1	43
450.855	1	45
451.025	1	46
451.196	1	58
451.366	1	49
451.537	1	52
451.707	1	69
451.878	1	54
452.048	1	55
452.218	1	51
452.389	1	66
452.559	1	51
452.730	1	47
452.900	1	59
453.071	1	43
453.241	1	47
453.412	1	45
453.582	1	33
453.753	1	52
453.923	1	45
454.093	1	60
454.264	1	39
454.434	1	55
454.605	1	54
454.775	1	46
454.946	1	47
455.116	1	45
455.287	1	41
455.457	1	38
455.628	1	46
455.798	1	45
455.968	1	52
456.139	1	51
456.309	1	56
456.480	1	46
456.650	1	61
456.821	1	59
456.991	1	50
457.161	1	48
457.332	1	39
457.502	1	57
457.673	1	58
457.843	1	53
458.014	1	48
458.184	1	36
458.355	1	42
458.525	1	43
458.695	1	37
458.866	1	59
459.036	1	48
459.207	1	48
459.377	1	45
459.548	1	41
459.718	1	38
459.888	1	43
460.059	1	53
460.229	1	42
460.400	1	41
460.570	1	40
460.740	1	47
460.911	1	48
461.081	1	44
461.252	1	44
461.422	1	48
461.593	1	45
461.763	1	49
461.933	1	52
462.104	1	52
462.274	1	30
462.445	1	34
462.615	1	46
462.785	1	44
462.956	1	50
463.126	1	39
463.297	1	52
463.467	1	53
463.638	1	47
463.808	1	63
463.978	1	44
464.149	1	42
464.319	1	57
464.490	1	46
464.660	1	52
464.830	1	44
465.001	1	42
465.171	1	49
465.342	1	34
465.512	1	38
465.682	1	50
465.853	1	28
466.023	1	30
466.194	1	47
466.364	1	49
466.534	1	47
466.705	1	31
466.875	1	49
467.045	1	42
467.216	1	55
467.386	1	54
467.557	1	36
467.727	1	51
467.897	1	40
468.068	1	39
468.238	1	49
468.409	1	38
468.579	1	52
468.749	1	42
468.920	1	40
469.090	1	40
469.260	1	42
469.431	1	52
469.601	1	39
469.772	1	24
469.942	1	44
470.112	1	41
470.283	1	47
470.453	1	46
470.623	1	31
470.794	1	40
470.964	1	49
471.135	1	43
471.305	1	38
471.475	1	40
471.646	1	46
471.816	1	46
471.986	1	44
472.157	1	45
472.327	1	42
472.497	1	51
472.668	1	38
472.838	1	32
473.009	1	43
473.179	1	38
473.349	1	27
473.520	1	37
473.690	1	39
473.860	1	39
474.031	1	50
474.201	1	39
474.371	1	31
474.542	1	51
474.712	1	47
474.882	1	27
475.053	1	45
475.223	1	31
475.394	1	35
475.564	1	30
475.734	1	44
475.905	1	48
476.075	1	38
476.245	1	42
476.416	1	35
476.586	1	40
476.756	1	35
476.927	1	38
477.097	1	32
477.267	1	51
477.438	1	44
477.608	1	46
477.778	1	40
477.949	1	37
478.119	1	40
478.289	1	34
478.460	1	23
478.630	1	54
478.800	1	50
478.971	1	38
479.141	1	38
479.311	1	53
479.482	1	45
479.652	1	50
479.822	1	38
479.993	1	35
480.163	1	31
480.333	1	35
480.504	1	32
480.674	1	39
480.844	1	39
481.015	1	30
481.185	1	36
481.355	1	44
481.525	1	37
481.696	1	28
481.866	1	42
482.036	1	41
482.207	1	26
482.377	1	53
482.547	1	20
482.718	1	39
482.888	1	45
483.058	1	27
483.229	1	32
483.399	1	44
483.569	1	35
483.740	1	42
483.910	1	23
484.080	1	19
484.250	1	27
484.421	1	30
484.591	1	27
484.761	1	36
484.932	1	35
485.102	1	42
485.272	1	38
485.443	1	42
485.613	1	40
485.783	1	41
485.953	1	44
486.124	1	47
486.294	1	39
486.464	1	28
486.635	1	27
486.805	1	35
486.975	1	31
487.146	1	20
487.316	1	32
487.486	1	35
487.656	1	19
487.827	1	23
487.997	1	32
488.167	1	29
488.338	1	23
488.508	1	30
488.678	1	24
488.848	1	32
489.019	1	28
489.189	1	22
489.359	1	36
489.529	1	25
489.700	1	32
489.870	1	30
490.040	1	17
490.211	1	39
490.381	1	39
490.551	1	21
490.721	1	31
490.892	1	25
491.062	1	17
491.232	1	16
491.402	1	25
491.573	1	26
491.743	1	20
491.913	1	23
492.084	1	23
492.254	1	22
492.424	1	40
492.594	1	31
492.765	1	23
492.935	1	28
493.105	1	37
493.275	1	32
493.446	1	31
493.616	1	28
493.786	1	25
493.956	1	17
494.127	1	33
494.297	1	22
494.467	1	29
494.637	1	29
494.808	1	31
494.978	1	25
495.148	1	28
495.318	1	29
495.489	1	18
495.659	1	18
495.829	1	31
495.999	1	26
496.170	1	13
496.340	1	35
496.510	1	23
496.680	1	26
496.851	1	34
497.021	1	18
497.191	1	16
497.361	1	34
497.532	1	26
497.702	1	29
497.872	1	38
498.042	1	31
498.213	1	34
498.383	1	24
498.553	1	18
498.723	1	23
498.894	1	23
499.064	1	24
499.234	1	26
499.404	1	16
499.574	1	19
499.745	1	25
499.915	1	20
500.085	1	19
500.255	1	19
500.426	1	24
500.596	1	13
500.766	1	19
500.936	1	28
501.106	1	26
501.277	1	28
501.447	1	31
501.617	1	32
501.787	1	22
501.958	1	28
502.128	1	24
502.298	1	20
502.468	1	24
502.638	1	27
502.809	1	26
502.979	1	24
503.149	1	19
503.319	1	23
503.489	1	24
503.660	1	21
503.830	1	17
504.000	1	20
504.170	1	17
504.340	1	25
504.511	1	23
504.681	1	16
504.851	1	30
505.021	1	30
505.192	1	21
505.362	1	26
505.532	1	23
505.702	1	18
505.872	1	21
506.043	1	27
506.213	1	16
506.383	1	25
506.553	1	23
506.723	1	27
506.893	1	18
507.064	1	10
507.234	1	14
507.404	1	25
507.574	1	17
507.744	1	22
507.915	1	19
508.085	1	30
508.255	1	23
508.425	1	14
508.595	1	11
508.766	1	7
508.936	1	15
509.106	1	16
509.276	1	24
509.446	1	21
509.616	1	11
509.787	1	22
509.957	1	24
510.127	1	20
510.297	1	13
510.467	1	21
510.638	1	19
510.808	1	17
510.978	1	10
511.148	1	42
511.318	1	14
511.488	1	29
511.659	1	13
511.829	1	21
511.999	1	21
512.169	1	12
512.339	1	13
512.509	1	21
512.680	1	18
512.850	1	12
513.020	1	15
513.190	1	15
513.360	1	19
513.530	1	19
513.700	1	28
513.871	1	17
514.041	1	18
514.211	1	17
514.381	1	21
514.551	1	25
514.721	1	17
514.892	1	17
515.062	1	21
515.232	1	23
515.402	1	20
515.572	1	11
515.742	1	16
515.912	1	12
516.083	1	24
516.253	1	25
516.423	1	18
516.593	1	22
516.763	1	15
516.933	1	9
517.104	1	12
517.274	1	12
517.444	1	18
517.614	1	12
517.784	1	22
517.954	1	31
518.124	1	11
518.294	1	20
518.465	1	24
518.635	1	11
518.805	1	30
518.975	1	9
519.145	1	29
519.315	1	9
519.485	1	6
519.656	1	22
519.826	1	19
519.996	1	14
520.166	1	22
520.336	1	19
520.506	1	-3
520.676	1	22
520.846	1	14
521.017	1	8
521.187	1	18
521.357	1	14
521.527	1	24
521.697	1	15
521.867	1	12
522.037	1	10
522.207	1	13
522.377	1	10
522.548	1	13
522.718	1	17
522.888	1	22
523.058	1	12
523.228	1	22
523.398	1	18
523.568	1	19
523.738	1	16
523.909	1	15
524.079	1	13
524.249	1	8
524.419	1	15
524.589	1	8
524.759	1	18
524.929	1	5
525.099	1	12
525.269	1	25
525.439	1	21
525.610	1	13
525.780	1	15
525.950	1	19
526.120	1	3
526.290	1	8
526.460	1	3
526.630	1	23
526.800	1	19
526.970	1	25
527.140	1	14
527.311	1	10
527.481	1	10
527.651	1	19
527.821	1	10
527.991	1	19
528.161	1	13
528.331	1	17
528.501	1	20
528.671	1	12
528.841	1	16
529.011	1	9
529.181	1	17
529.352	1	12
529.522	1	9
529.692	1	9
529.862	1	21
530.032	1	11
530.202	1	8
530.372	1	17
530.542	1	11
530.712	1	17
530.882	1	1
531.052	1	26
531.222	1	4
531.392	1	11
531.563	1	10
531.733	1	16
531.903	1	20
532.073	1	13
532.243	1	14
532.413	1	26
532.583	1	12
532.753	1	6
532.923	1	20
533.093	1	21
533.263	1	3
533.433	1	22
533.603	1	19
533.773	1	10
533.943	1	0
534.113	1	13
534.284	1	16
534.454	1	8
534.624	1	13
534.794	1	12
534.964	1	12
535.134	1	18
535.304	1	17
535.474	1	-2
535.644	1	12
535.814	1	16
535.984	1	22
536.154	1	10
536.324	1	23
536.494	1	12
536.664	1	14
536.834	1	19
537.004	1	10
537.174	1	9
537.344	1	22
537.514	1	19
537.685	1	20
537.855	1	9
538.025	1	13
538.195	1	11
538.365	1	4
538.535	1	8
538.705	1	15
538.875	1	8
539.045	1	5
539.215	1	6
539.385	1	12
539.555	1	15
539.725	1	14
539.895	1	20
540.065	1	11
540.235	1	15
540.405	1	16
540.575	1	7
540.745	1	11
540.915	1	13
541.085	1	3
541.255	1	7
541.425	1	14
541.595	1	17
541.765	1	21
541.935	1	0
542.105	1	2
542.275	1	6
542.445	1	6
542.615	1	19
542.785	1	10
542.955	1	10
543.125	1	3
543.295	1	12
543.465	1	9
543.635	1	11
543.805	1	11
543.975	1	7
544.145	1	2
544.315	1	16
544.485	1	13
544.655	1	16
544.825	1	12
544.995	1	14
545.165	1	8
545.335	1	5
545.505	1	11
545.675	1	7
545.845	1	18
546.015	1	19
546.185	1	18
546.355	1	15
546.525	1	3
546.695	1	12
546.865	1	22
547.035	1	17
547.205	1	20
547.375	1	13
547.545	1	22
547.715	1	17
547.885	1	17
548.055	1	4
548.225	1	14
548.395	1	2
548.565	1	16
548.735	1	18
548.905	1	2
549.075	1	16
549.245	1	10
549.415	1	9
549.585	1	11
549.755	1	15
549.925	1	12
550.095	1	11
550.265	1	4
550.435	1	8
550.605	1	4
550.775	1	7
550.945	1	13
551.115	1	12
551.285	1	6
551.455	1	15
551.625	1	2
551.795	1	14
551.965	1	18
552.135	1	10
552.305	1	-5
552.475	1	21
552.645	1	2
552.815	1	15
552.985	1	6
553.155	1	6
553.325	1	13
553.495	1	8
553.665	1	9
553.835	1	6
554.004	1	5
554.174	1	11
554.344	1	8
554.514	1	13
554.684	1	7
554.854	1	2
555.024	1	2
555.194	1	14
555.364	1	11
555.534	1	7
555.704	1	20
555.874	1	14
556.044	1	16
556.214	1	4
556.384	1	9
556.554	1	14
556.724	1	10
556.894	1	2
557.064	1	16
557.234	1	3
557.404	1	7
557.573	1	9
557.743	1	5
557.913	1	2
558.083	1	15
558.253	1	-5
558.423	1	4
558.593	1	11
558.763	1	15
558.933	1	9
559.103	1	18
559.273	1	3
559.443	1	10
559.613	1	11
559.783	1	4
559.953	1	23
560.122	1	6
560.292	1	17
560.462	1	9
560.632	1	5
560.802	1	4
560.972	1	8
561.142	1	18
561.312	1	18
561.482	1	7
561.652	1	12
561.822	1	8
561.992	1	-4
562.162	1	8
562.331	1	9
562.501	1	8
562.671	1	22
562.841	1	6
563.011	1	2
563.181	1	17
563.351	1	11
563.521	1	4
563.691	1	5
563.861	1	8
564.031	1	5
564.201	1	11
564.370	1	-2
564.540	1	12
564.710	1	5
564.880	1	12
565.050	1	9
565.220	1	5
565.390	1	15
565.560	1	4
565.730	1	4
565.900	1	5
566.069	1	10
566.239	1	14
566.409	1	12
566.579	1	11
566.749	1	6
566.919	1	16
567.089	1	11
567.259	1	8
567.429	1	11
567.599	1	-1
567.768	1	6
567.938	1	4
568.108	1	17
568.278	1	-2
568.448	1	11
568.618	1	10
568.788	1	-6
568.958	1	-2
569.128	1	3
569.297	1	6
569.467	1	12
569.637	1	15
569.807	1	-6
569.977	1	17
570.147	1	3
570.317	1	9
570.487	1	6
570.656	1	11
570.826	1	4
570.996	1	14
571.166	1	3
571.336	1	8
571.506	1	7
571.676	1	-5
571.846	1	2
572.015	1	21
572.185	1	12
572.355	1	8
572.525	1	0
572.695	1	4
572.865	1	11
573.035	1	1
573.205	1	3
573.374	1	15
573.544	1	0
573.714	1	12
573.884	1	6
574.054	1	16
574.224	1	9
574.394	1	-8
574.563	1	11
574.733	1	20
574.903	1	5
575.073	1	6
575.243	1	4
575.413	1	10
575.583	1	5
575.752	1	4
575.922	1	3
576.092	1	1
576.262	1	12
576.432	1	17
576.602	1	8
576.772	1	2
576.941	1	18
577.111	1	7
577.281	1	22
577.451	1	-2
577.621	1	12
577.791	1	11
577.960	1	1
578.130	1	5
578.300	1	12
578.470	1	12
578.640	1	7
578.810	1	9
578.979	1	12
579.149	1	1
579.319	1	7
579.489	1	11
579.659	1	1
579.829	1	11
579.998	1	2
580.168	1	8
580.338	1	7
580.508	1	6
580.678	1	12
580.848	1	-2
581.017	1	14
581.187	1	4
581.357	1	7
581.527	1	12
581.697	1	-6
581.867	1	10
582.036	1	13
582.206	1	6
582.376	1	4
582.546	1	16
582.716	1	11
582.885	1	14
583.055	1	2
583.225	1	0
583.395	1	11
583.565	1	8
583.735	1	4
583.904	1	5
584.074	1	8
584.244	1	3
584.414	1	2
584.584	1	5
584.753	1	13
584.923	1	13
585.093	1	7
585.263	1	7
585.433	1	15
585.602	1	9
585.772	1	9
585.942	1	8
586.112	1	12
586.282	1	17
586.451	1	4
586.621	1	7
586.791	1	12
586.961	1	20
587.131	1	11
587.300	1	19
587.470	1	10
587.640	1	2
587.810	1	3
587.980	1	-5
588.149	1	18
588.319	1	4
588.489	1	0
588.659	1	16
588.829	1	1
588.998	1	5
589.168	1	12
589.338	1	10
589.508	1	12
589.677	1	9
589.847	1	10
590.017	1	9
590.187	1	3
590.357	1	3
590.526	1	16
590.696	1	12
590.866	1	3
591.036	1	6
591.205	1	4
591.375	1	11
591.545	1	5
591.715	1	8
591.885	1	5
592.054	1	5
592.224	1	8
592.394	1	8
592.564	1	19
592.733	1	22
592.903	1	2
593.073	1	-2
593.243	1	11
593.412	1	5
593.582	1	15
593.752	1	5
593.922	1	8
594.091	1	3
594.261	1	7
594.431	1	8
594.601	1	5
594.771	1	14
594.940	1	4
595.110	1	7
595.280	1	8
595.450	1	14
595.619	1	15
595.789	1	18
595.959	1	7
596.129	1	-7
596.298	1	8
596.468	1	6
596.638	1	10
596.808	1	-5
596.977	1	-1
597.147	1	9
597.317	1	2
597.487	1	15
597.656	1	11
597.826	1	7
597.996	1	2
598.166	1	7
598.335	1	-2
598.505	1	0
598.675	1	5
598.844	1	5
599.014	1	15
599.184	1	3
599.354	1	11
599.523	1	7
599.693	1	13
599.863	1	14
600.033	1	4
600.202	1	15
600.372	1	9
600.542	1	12
600.712	1	18
600.881	1	12
601.051	1	3
601.221	1	6
601.390	1	21
601.560	1	10
601.730	1	5
601.900	1	12
602.069	1	-9
602.239	1	13
602.409	1	3
602.578	1	21
602.748	1	-11
602.918	1	11
603.088	1	9
603.257	1	8
603.427	1	11
603.597	1	7
603.767	1	11
603.936	1	11
604.106	1	4
604.276	1	8
604.445	1	3
604.615	1	6
604.785	1	14
604.954	1	9
605.124	1	5
605.294	1	16
605.464	1	-4
605.633	1	18
605.803	1	17
605.973	1	12
606.142	1	13
606.312	1	8
606.482	1	6
606.652	1	14
606.821	1	10
606.991	1	4
607.161	1	9
607.330	1	13
607.500	1	15
607.670	1	10
607.839	1	5
608.009	1	12
608.179	1	5
608.348	1	8
608.518	1	4
608.688	1	12
608.858	1	3
609.027	1	1
609.197	1	17
609.367	1	8
609.536	1	20
609.706	1	3
609.876	1	9
610.045	1	13
610.215	1	12
610.385	1	10
610.554	1	3
610.724	1	1
610.894	1	16
611.063	1	11
611.233	1	4
611.403	1	4
611.572	1	9
611.742	1	1
611.912	1	9
612.081	1	16
612.251	1	10
612.421	1	6
612.590	1	0
612.760	1	13
612.930	1	13
613.099	1	9
613.269	1	6
613.439	1	3
613.608	1	7
613.778	1	3
613.948	1	12
614.117	1	13
614.287	1	10
614.457	1	10
614.626	1	21
614.796	1	18
614.966	1	5
615.135	1	11
615.305	1	18
615.475	1	5
615.644	1	14
615.814	1	2
615.984	1	13
616.153	1	3
616.323	1	8
616.493	1	20
616.662	1	8
616.832	1	19
617.002	1	1
617.171	1	11
617.341	1	7
617.511	1	7
617.680	1	-1
617.850	1	11
618.019	1	10
618.189	1	4
618.359	1	13
618.528	1	3
618.698	1	8
618.868	1	8
619.037	1	20
619.207	1	15
619.377	1	0
619.546	1	-2
619.716	1	6
619.885	1	5
620.055	1	18
620.225	1	22
620.394	1	17
620.564	1	8
620.734	1	9
620.903	1	11
621.073	1	9
621.242	1	3
621.412	1	12
621.582	1	-4
621.751	1	6
621.921	1	14
622.091	1	9
622.260	1	11
622.430	1	16
622.599	1	16
622.769	1	1
622.939	1	2
623.108	1	10
623.278	1	25
623.448	1	21
623.617	1	3
623.787	1	15
623.956	1	25
624.126	1	7
624.296	1	15
624.465	1	8
624.635	1	5
624.804	1	6
624.974	1	2
625.144	1	22
625.313	1	7
625.483	1	16
625.652	1	16
625.822	1	7
625.992	1	6
626.161	1	3
626.331	1	8
626.501	1	15
626.670	1	0
626.840	1	6
627.009	1	11
627.179	1	-2
627.348	1	23
627.518	1	10
627.688	1	9
627.857	1	8
628.027	1	6
628.196	1	8
628.366	1	10
628.536	1	7
628.705	1	10
628.875	1	16
629.044	1	11
629.214	1	7
629.384	1	3
629.553	1	8
629.723	1	1
629.892	1	5
630.062	1	0
630.232	1	23
630.401	1	7
630.571	1	13
630.740	1	14
630.910	1	8
631.079	1	11
631.249	1	10
631.419	1	14
631.588	1	10
631.758	1	9
631.927	1	6
632.097	1	10
632.266	1	0
632.436	1	9
632.606	1	4
632.775	1	17
632.945	1	3
633.114	1	16
633.284	1	19
633.453	1	17
633.623	1	19
633.793	1	13
633.962	1	6
634.132	1	6
634.301	1	2
634.471	1	8
634.640	1	13
634.810	1	19
634.979	1	19
635.149	1	8
635.319	1	15
635.488	1	7
635.658	1	19
635.827	1	2
635.997	1	5
636.166	1	5
636.336	1	12
636.505	1	13
636.675	1	10
636.845	1	10
637.014	1	11
637.184	1	13
637.353	1	9
637.523	1	12
637.692	1	13
637.862	1	4
638.031	1	10
638.201	1	9
638.370	1	13
638.540	1	15
638.710	1	10
638.879	1	15
639.049	1	12
639.218	1	15
639.388	1	11
639.557	1	12
639.727	1	15
639.896	1	0
640.066	1	18
640.235	1	4
640.405	1	11
640.574	1	11
640.744	1	5
640.914	1	9
641.083	1	8
641.253	1	6
641.422	1	16
641.592	1	4
641.761	1	15
641.931	1	13
642.100	1	11
642.270	1	8
642.439	1	2
642.609	1	20
642.778	1	16
642.948	1	6
643.117	1	17
643.287	1	3
643.456	1	16
643.626	1	15
643.795	1	12
643.965	1	17
644.134	1	11
644.304	1	12
644.473	1	11
644.643	1	10
644.812	1	12
644.982	1	4
645.151	1	19
645.321	1	10
645.490	1	13
645.660	1	9
645.829	1	8
645.999	1	9
646.168	1	11
646.338	1	12
646.507	1	3
646.677	1	9
646.846	1	11
647.016	1	15
647.185	1	10
647.355	1	9
647.524	1	10
647.694	1	5
647.863	1	16
648.033	1	14
648.202	1	5
648.372	1	11
648.541	1	2
648.711	1	24
648.880	1	13
649.050	1	14
649.219	1	12
649.389	1	11
649.558	1	15
649.728	1	18
649.897	1	5
650.067	1	9
650.236	1	7
650.406	1	24
650.575	1	11
650.745	1	6
650.914	1	-2
651.084	1	6
651.253	1	8
651.423	1	14
651.592	1	8
651.762	1	14
651.931	1	17
652.101	1	23
652.270	1	17
652.440	1	13
652.609	1	21
652.778	1	17
652.948	1	15
653.117	1	19
653.287	1	13
653.456	1	7
653.626	1	22
653.795	1	15
653.965	1	0
654.134	1	6
654.304	1	21
654.473	1	8
654.643	1	20
654.812	1	14
654.982	1	9
655.151	1	15
655.320	1	16
655.490	1	8
655.659	1	9
655.829	1	3
655.998	1	2
656.168	1	14
656.337	1	8
656.507	1	15
656.676	1	7
656.846	1	4
657.015	1	4
657.184	1	12
657.354	1	19
657.523	1	3
657.693	1	14
657.862	1	5
658.032	1	19
658.201	1	13
658.371	1	3
658.540	1	9
658.709	1	8
658.879	1	17
659.048	1	16
659.218	1	8
659.387	1	11
659.557	1	12
659.726	1	11
659.895	1	5
660.065	1	19
660.234	1	0
660.404	1	6
660.573	1	16
660.743	1	12
660.912	1	1
661.081	1	6
661.251	1	19
661.420	1	19
661.590	1	18
661.759	1	-1
661.929	1	15
662.098	1	19
662.267	1	18
662.437	1	18
662.606	1	20
662.776	1	-4
662.945	1	8
663.115	1	9
663.284	1	7
663.453	1	24
663.623	1	20
663.792	1	17
663.962	1	3
664.131	1	-1
664.300	1	-6
664.470	1	7
664.639	1	12
664.809	1	8
664.978	1	11
665.148	1	7
665.317	1	2
665.486	1	17
665.656	1	14
665.825	1	27
665.995	1	15
666.164	1	18
666.333	1	4
666.503	1	7
666.672	1	14
666.842	1	6
667.011	1	4
667.180	1	16
667.350	1	14
667.519	1	21
667.689	1	18
667.858	1	20
668.027	1	13
668.197	1	23
668.366	1	8
668.536	1	5
668.705	1	20
668.874	1	4
669.044	1	19
669.213	1	13
669.382	1	8
669.552	1	13
669.721	1	10
669.891	1	11
670.060	1	6
670.229	1	10
670.399	1	12
670.568	1	14
670.738	1	9
670.907	1	14
671.076	1	16
671.246	1	1
671.415	1	21
671.584	1	10
671.754	1	9
671.923	1	16
672.093	1	15
672.262	1	-1
672.431	1	15
672.601	1	23
672.770	1	15
672.939	1	7
673.109	1	15
673.278	1	5
673.448	1	8
673.617	1	13
673.786	1	18
