325.333	1	11
325.504	1	3
325.675	1	6
325.846	1	4
326.017	1	5
326.188	1	9
326.359	1	6
326.531	1	7
326.702	1	19
326.873	1	-1
327.044	1	14
327.215	1	8
327.386	1	16
327.557	1	16
327.728	1	4
327.899	1	3
328.070	1	11
328.241	1	3
328.412	1	-4
328.583	1	11
328.754	1	-2
328.926	1	11
329.097	1	8
329.268	1	-3
329.439	1	8
329.610	1	3
329.781	1	8
329.952	1	-3
330.123	1	-2
330.294	1	1
330.465	1	11
330.636	1	21
330.807	1	6
330.978	1	0
331.149	1	6
331.320	1	12
331.492	1	5
331.663	1	-3
331.834	1	2
332.005	1	22
332.176	1	11
332.347	1	14
332.518	1	4
332.689	1	6
332.860	1	10
333.031	1	18
333.202	1	9
333.373	1	-2
333.544	1	1
333.715	1	10
333.886	1	12
334.057	1	6
334.228	1	-1
334.399	1	13
334.570	1	-3
334.741	1	2
334.912	1	0
335.084	1	7
335.255	1	3
335.426	1	12
335.597	1	12
335.768	1	6
335.939	1	7
336.110	1	14
336.281	1	2
336.452	1	7
336.623	1	-2
336.794	1	-2
336.965	1	-1
337.136	1	12
337.307	1	19
337.478	1	4
337.649	1	-4
337.820	1	5
337.991	1	17
338.162	1	9
338.333	1	10
338.504	1	4
338.675	1	14
338.846	1	9
339.017	1	22
339.188	1	26
339.359	1	7
339.530	1	4
339.701	1	-2
339.872	1	19
340.043	1	-9
340.214	1	8
340.385	1	20
340.556	1	13
340.727	1	5
340.898	1	12
341.069	1	1
341.240	1	3
341.411	1	18
341.582	1	12
341.753	1	2
341.924	1	15
342.095	1	16
342.266	1	4
342.437	1	3
342.608	1	-1
342.779	1	15
342.950	1	-7
343.121	1	5
343.292	1	15
343.463	1	7
343.634	1	10
343.805	1	7
343.976	1	7
344.147	1	10
344.318	1	8
344.489	1	17
344.660	1	15
344.831	1	11
345.002	1	9
345.173	1	18
345.344	1	1
345.515	1	7
345.686	1	13
345.857	1	10
346.028	1	-4
346.199	1	6
346.370	1	4
346.541	1	10
346.712	1	7
346.883	1	21
347.054	1	12
347.225	1	-4
347.396	1	9
347.567	1	10
347.738	1	9
347.909	1	15
348.080	1	7
348.251	1	6
348.422	1	7
348.593	1	16
348.764	1	8
348.935	1	7
349.106	1	16
349.277	1	4
349.448	1	6
349.619	1	14
349.790	1	15
349.961	1	13
350.132	1	15
350.303	1	6
350.474	1	8
350.645	1	10
350.816	1	10
350.987	1	16
351.157	1	8
351.328	1	9
351.499	1	15
351.670	1	14
351.841	1	9
352.012	1	11
352.183	1	10
352.354	1	9
352.525	1	16
352.696	1	17
352.867	1	8
353.038	1	10
353.209	1	9
353.380	1	16
353.551	1	9
353.722	1	10
353.893	1	10
354.064	1	14
354.235	1	20
354.406	1	14
354.576	1	0
354.747	1	12
354.918	1	21
355.089	1	9
355.260	1	16
355.431	1	12
355.602	1	6
355.773	1	5
355.944	1	14
356.115	1	3
356.286	1	12
356.457	1	14
356.628	1	3
356.799	1	16
356.970	1	15
357.141	1	20
357.311	1	7
357.482	1	11
357.653	1	13
357.824	1	12
357.995	1	14
358.166	1	16
358.337	1	15
358.508	1	9
358.679	1	17
358.850	1	11
359.021	1	14
359.192	1	8
359.363	1	6
359.533	1	4
359.704	1	15
359.875	1	8
360.046	1	9
360.217	1	5
360.388	1	7
360.559	1	15
360.730	1	17
360.901	1	7
361.072	1	14
361.243	1	11
361.414	1	9
361.584	1	27
361.755	1	15
361.926	1	15
362.097	1	10
362.268	1	25
362.439	1	14
362.610	1	2
362.781	1	20
362.952	1	6
363.123	1	6
363.293	1	15
363.464	1	29
363.635	1	23
363.806	1	17
363.977	1	15
364.148	1	19
364.319	1	6
364.490	1	14
364.661	1	15
364.832	1	24
365.002	1	8
365.173	1	2
365.344	1	15
365.515	1	20
365.686	1	9
365.857	1	19
366.028	1	19
366.199	1	14
366.370	1	13
366.540	1	7
366.711	1	17
366.882	1	15
367.053	1	14
367.224	1	4
367.395	1	28
367.566	1	16
367.737	1	20
367.908	1	15
368.078	1	13
368.249	1	9
368.420	1	14
368.591	1	18
368.762	1	3
368.933	1	16
369.104	1	12
369.274	1	20
369.445	1	27
369.616	1	4
369.787	1	5
369.958	1	16
370.129	1	12
370.300	1	8
370.471	1	11
370.641	1	9
370.812	1	18
370.983	1	8
371.154	1	18
371.325	1	8
371.496	1	7
371.667	1	22
371.837	1	19
372.008	1	23
372.179	1	5
372.350	1	26
372.521	1	11
372.692	1	14
372.863	1	10
373.033	1	28
373.204	1	25
373.375	1	14
373.546	1	24
373.717	1	16
373.888	1	24
374.059	1	17
374.229	1	17
374.400	1	25
374.571	1	26
374.742	1	16
374.913	1	23
375.084	1	17
375.254	1	11
375.425	1	8
375.596	1	12
375.767	1	8
375.938	1	11
376.109	1	18
376.279	1	16
376.450	1	15
376.621	1	25
376.792	1	18
376.963	1	7
377.134	1	8
377.304	1	14
377.475	1	16
377.646	1	8
377.817	1	15
377.988	1	22
378.159	1	24
378.329	1	27
378.500	1	11
378.671	1	1
378.842	1	10
379.013	1	20
379.184	1	24
379.354	1	17
379.525	1	11
379.696	1	31
379.867	1	3
380.038	1	18
380.209	1	19
380.379	1	25
380.550	1	8
380.721	1	21
380.892	1	24
381.063	1	9
381.233	1	18
381.404	1	17
381.575	1	27
381.746	1	25
381.917	1	16
382.087	1	9
382.258	1	25
382.429	1	15
382.600	1	25
382.771	1	22
382.941	1	20
383.112	1	16
383.283	1	25
383.454	1	10
383.625	1	8
383.795	1	16
383.966	1	17
384.137	1	30
384.308	1	16
384.479	1	26
384.649	1	35
384.820	1	17
384.991	1	2
385.162	1	25
385.333	1	17
385.503	1	21
385.674	1	29
385.845	1	19
386.016	1	21
386.187	1	18
386.357	1	17
386.528	1	3
386.699	1	15
386.870	1	26
387.041	1	16
387.211	1	26
387.382	1	14
387.553	1	28
387.724	1	16
387.894	1	26
388.065	1	25
388.236	1	22
388.407	1	17
388.578	1	26
388.748	1	19
388.919	1	25
389.090	1	24
389.261	1	30
389.431	1	37
389.602	1	17
389.773	1	9
389.944	1	31
390.114	1	30
390.285	1	24
390.456	1	25
390.627	1	18
390.798	1	23
390.968	1	20
391.139	1	18
391.310	1	30
391.481	1	19
391.651	1	13
391.822	1	29
391.993	1	17
392.164	1	1
392.334	1	19
392.505	1	15
392.676	1	17
392.847	1	24
393.017	1	26
393.188	1	21
393.359	1	23
393.530	1	20
393.700	1	24
393.871	1	22
394.042	1	28
394.213	1	28
394.383	1	35
394.554	1	29
394.725	1	20
394.896	1	35
395.066	1	18
395.237	1	15
395.408	1	25
395.579	1	20
395.749	1	24
395.920	1	23
396.091	1	29
396.262	1	18
396.432	1	19
396.603	1	24
396.774	1	14
396.945	1	16
397.115	1	19
397.286	1	32
397.457	1	25
397.627	1	14
397.798	1	16
397.969	1	24
398.140	1	19
398.310	1	27
398.481	1	23
398.652	1	17
398.823	1	2
398.993	1	39
399.164	1	28
399.335	1	16
399.505	1	31
399.676	1	26
399.847	1	26
400.018	1	24
400.188	1	25
400.359	1	30
400.530	1	14
400.700	1	21
400.871	1	34
401.042	1	21
401.213	1	20
401.383	1	27
401.554	1	35
401.725	1	19
401.895	1	20
402.066	1	34
402.237	1	38
402.408	1	29
402.578	1	23
402.749	1	38
402.920	1	28
403.090	1	19
403.261	1	42
403.432	1	32
403.603	1	11
403.773	1	32
403.944	1	32
404.115	1	14
404.285	1	34
404.456	1	24
404.627	1	25
404.797	1	29
404.968	1	18
405.139	1	26
405.310	1	12
405.480	1	22
405.651	1	21
405.822	1	35
405.992	1	28
406.163	1	30
406.334	1	29
406.504	1	20
406.675	1	19
406.846	1	30
407.016	1	27
407.187	1	26
407.358	1	21
407.528	1	36
407.699	1	22
407.870	1	26
408.041	1	31
408.211	1	11
408.382	1	14
408.553	1	23
408.723	1	28
408.894	1	25
409.065	1	39
409.235	1	25
409.406	1	24
409.577	1	27
409.747	1	28
409.918	1	22
410.089	1	32
410.259	1	15
410.430	1	28
410.601	1	34
410.771	1	23
410.942	1	20
411.113	1	38
411.283	1	26
411.454	1	24
411.625	1	40
411.795	1	10
411.966	1	28
412.137	1	27
412.307	1	29
412.478	1	37
412.649	1	27
412.819	1	16
412.990	1	39
413.161	1	14
413.331	1	32
413.502	1	19
413.672	1	28
413.843	1	40
414.014	1	34
414.184	1	27
414.355	1	36
414.526	1	30
414.696	1	24
414.867	1	33
415.038	1	14
415.208	1	23
415.379	1	33
415.550	1	36
415.720	1	24
415.891	1	49
416.062	1	27
416.232	1	19
416.403	1	35
416.573	1	22
416.744	1	17
416.915	1	27
417.085	1	17
417.256	1	32
417.427	1	32
417.597	1	31
417.768	1	36
417.939	1	23
418.109	1	17
418.280	1	29
418.450	1	27
418.621	1	22
418.792	1	9
418.962	1	21
419.133	1	39
419.304	1	22
419.474	1	23
419.645	1	27
419.815	1	23
419.986	1	20
420.157	1	26
420.327	1	21
420.498	1	25
420.669	1	27
420.839	1	22
421.010	1	24
421.180	1	19
421.351	1	36
421.522	1	26
421.692	1	21
421.863	1	27
422.033	1	30
422.204	1	21
422.375	1	25
422.545	1	21
422.716	1	23
422.886	1	27
423.057	1	22
423.228	1	36
423.398	1	36
423.569	1	28
423.740	1	24
423.910	1	35
424.081	1	25
424.251	1	27
424.422	1	25
424.593	1	26
424.763	1	33
424.934	1	31
425.104	1	14
425.275	1	31
425.445	1	35
425.616	1	31
425.787	1	30
425.957	1	30
426.128	1	27
426.298	1	27
426.469	1	20
426.640	1	29
426.810	1	31
426.981	1	25
427.151	1	26
427.322	1	12
427.493	1	19
427.663	1	27
427.834	1	30
428.004	1	24
428.175	1	32
428.345	1	39
428.516	1	29
428.687	1	43
428.857	1	23
429.028	1	27
429.198	1	33
429.369	1	17
429.540	1	23
429.710	1	33
429.881	1	36
430.051	1	24
430.222	1	26
430.392	1	34
430.563	1	28
430.734	1	32
430.904	1	31
431.075	1	14
431.245	1	26
431.416	1	15
431.586	1	24
431.757	1	28
431.927	1	12
432.098	1	23
432.269	1	34
432.439	1	29
432.610	1	29
432.780	1	19
432.951	1	27
433.121	1	35
433.292	1	26
433.462	1	29
433.633	1	35
433.804	1	10
433.974	1	30
434.145	1	26
434.315	1	36
434.486	1	21
434.656	1	27
434.827	1	30
434.997	1	41
435.168	1	28
435.339	1	29
435.509	1	30
435.680	1	43
435.850	1	27
436.021	1	39
436.191	1	38
436.362	1	40
436.532	1	35
436.703	1	39
436.873	1	33
437.044	1	37
437.214	1	40
437.385	1	43
437.556	1	29
437.726	1	35
437.897	1	26
438.067	1	33
438.238	1	33
438.408	1	36
438.579	1	30
438.749	1	29
438.920	1	31
439.090	1	26
439.261	1	28
439.431	1	26
439.602	1	30
439.772	1	29
439.943	1	35
440.113	1	41
440.284	1	27
440.455	1	28
440.625	1	23
440.796	1	18
440.966	1	24
441.137	1	20
441.307	1	28
441.478	1	22
441.648	1	29
441.819	1	36
441.989	1	22
442.160	1	24
442.330	1	34
442.501	1	28
442.671	1	15
442.842	1	26
443.012	1	35
443.183	1	27
443.353	1	26
443.524	1	33
443.694	1	30
443.865	1	26
444.035	1	33
444.206	1	34
444.376	1	32
444.547	1	25
444.717	1	35
444.888	1	27
445.058	1	23
445.229	1	26
445.399	1	32
445.570	1	21
445.740	1	29
445.911	1	27
446.081	1	32
446.252	1	14
446.422	1	30
446.593	1	21
446.763	1	37
446.934	1	35
447.104	1	26
447.275	1	40
447.445	1	10
447.616	1	31
447.786	1	28
447.957	1	28
448.127	1	36
448.298	1	30
448.468	1	20
448.639	1	25
448.809	1	17
448.979	1	38
449.150	1	27
449.320	1	28
449.491	1	44
449.661	1	33
449.832	1	20
450.002	1	30
450.173	1	25
450.343	1	34
450.514	1	26
450.684	1	23
450.855	1	29
451.025	1	17
451.196	1	32
451.366	1	25
451.537	1	31
451.707	1	32
451.878	1	23
452.048	1	35
452.218	1	14
452.389	1	22
452.559	1	30
452.730	1	30
452.900	1	26
453.071	1	37
453.241	1	35
453.412	1	14
453.582	1	26
453.753	1	20
453.923	1	27
454.093	1	37
454.264	1	26
454.434	1	32
454.605	1	37
454.775	1	25
454.946	1	30
455.116	1	20
455.287	1	20
455.457	1	26
455.628	1	18
455.798	1	20
455.968	1	26
456.139	1	17
456.309	1	28
456.480	1	22
456.650	1	41
456.821	1	30
456.991	1	25
457.161	1	33
457.332	1	16
457.502	1	36
457.673	1	39
457.843	1	14
458.014	1	30
458.184	1	24
458.355	1	22
458.525	1	21
458.695	1	18
458.866	1	38
459.036	1	29
459.207	1	26
459.377	1	27
459.548	1	4
459.718	1	27
459.888	1	27
460.059	1	18
460.229	1	19
460.400	1	20
460.570	1	17
460.740	1	23
460.911	1	24
461.081	1	35
461.252	1	19
461.422	1	20
461.593	1	24
461.763	1	22
461.933	1	21
462.104	1	19
462.274	1	17
462.445	1	18
462.615	1	26
462.785	1	20
462.956	1	29
463.126	1	20
463.297	1	23
463.467	1	27
463.638	1	22
463.808	1	32
463.978	1	30
464.149	1	14
464.319	1	20
464.490	1	31
464.660	1	20
464.830	1	25
465.001	1	34
465.171	1	24
465.342	1	22
465.512	1	27
465.682	1	15
465.853	1	21
466.023	1	19
466.194	1	25
466.364	1	29
466.534	1	20
466.705	1	14
466.875	1	26
467.045	1	25
467.216	1	34
467.386	1	31
467.557	1	19
467.727	1	41
467.897	1	16
468.068	1	6
468.238	1	29
468.409	1	8
468.579	1	28
468.749	1	17
468.920	1	20
469.090	1	33
469.260	1	26
469.431	1	20
469.601	1	26
469.772	1	10
469.942	1	26
470.112	1	23
470.283	1	25
470.453	1	28
470.623	1	10
470.794	1	18
470.964	1	18
471.135	1	29
471.305	1	19
471.475	1	16
471.646	1	13
471.816	1	11
471.986	1	27
472.157	1	17
472.327	1	20
472.497	1	24
472.668	1	18
472.838	1	20
473.009	1	28
473.179	1	21
473.349	1	23
473.520	1	11
473.690	1	22
473.860	1	19
474.031	1	19
474.201	1	22
474.371	1	16
474.542	1	30
474.712	1	14
474.882	1	12
475.053	1	11
475.223	1	14
475.394	1	12
475.564	1	15
475.734	1	23
475.905	1	18
476.075	1	26
476.245	1	22
476.416	1	12
476.586	1	14
476.756	1	16
476.927	1	8
477.097	1	14
477.267	1	20
477.438	1	20
477.608	1	17
477.778	1	21
477.949	1	19
478.119	1	32
478.289	1	15
478.460	1	10
478.630	1	24
478.800	1	25
478.971	1	26
479.141	1	16
479.311	1	16
479.482	1	23
479.652	1	27
479.822	1	17
479.993	1	13
480.163	1	19
480.333	1	16
480.504	1	9
480.674	1	21
480.844	1	22
481.015	1	17
481.185	1	9
481.355	1	23
481.525	1	25
481.696	1	12
481.866	1	18
482.036	1	18
482.207	1	13
482.377	1	23
482.547	1	15
482.718	1	11
482.888	1	28
483.058	1	18
483.229	1	19
483.399	1	17
483.569	1	14
483.740	1	22
483.910	1	17
484.080	1	2
484.250	1	2
484.421	1	9
484.591	1	15
484.761	1	20
484.932	1	14
485.102	1	27
485.272	1	1
485.443	1	17
485.613	1	25
485.783	1	28
485.953	1	19
486.124	1	15
486.294	1	16
486.464	1	9
486.635	1	23
486.805	1	8
486.975	1	20
487.146	1	11
487.316	1	27
487.486	1	15
487.656	1	5
487.827	1	5
487.997	1	4
488.167	1	12
488.338	1	2
488.508	1	21
488.678	1	14
488.848	1	3
489.019	1	14
489.189	1	7
489.359	1	17
489.529	1	18
489.700	1	17
489.870	1	7
490.040	1	16
490.211	1	13
490.381	1	23
490.551	1	18
490.721	1	14
490.892	1	14
491.062	1	7
491.232	1	5
491.402	1	9
491.573	1	12
491.743	1	12
491.913	1	9
492.084	1	23
492.254	1	19
492.424	1	22
492.594	1	20
492.765	1	7
492.935	1	13
493.105	1	9
493.275	1	16
493.446	1	6
493.616	1	6
493.786	1	8
493.956	1	-1
494.127	1	21
494.297	1	5
494.467	1	16
494.637	1	17
494.808	1	19
494.978	1	16
495.148	1	9
495.318	1	18
495.489	1	0
495.659	1	2
495.829	1	10
495.999	1	11
496.170	1	4
496.340	1	19
496.510	1	17
496.680	1	9
496.851	1	19
497.021	1	11
497.191	1	17
497.361	1	9
497.532	1	9
497.702	1	25
497.872	1	26
498.042	1	15
498.213	1	11
498.383	1	12
498.553	1	0
498.723	1	7
498.894	1	17
499.064	1	14
499.234	1	20
499.404	1	5
499.574	1	15
499.745	1	16
499.915	1	20
500.085	1	2
500.255	1	8
500.426	1	16
500.596	1	8
500.766	1	6
500.936	1	16
501.106	1	10
501.277	1	19
501.447	1	17
501.617	1	4
501.787	1	11
501.958	1	11
502.128	1	3
502.298	1	13
502.468	1	23
502.638	1	16
502.809	1	9
502.979	1	24
503.149	1	4
503.319	1	13
503.489	1	0
503.660	1	-3
503.830	1	13
504.000	1	12
504.170	1	14
504.340	1	6
504.511	1	14
504.681	1	7
504.851	1	13
505.021	1	26
505.192	1	13
505.362	1	9
505.532	1	14
505.702	1	9
505.872	1	17
506.043	1	13
506.213	1	16
506.383	1	14
506.553	1	13
506.723	1	12
506.893	1	1
507.064	1	6
507.234	1	5
507.404	1	10
507.574	1	4
507.744	1	13
507.915	1	16
508.085	1	19
508.255	1	4
508.425	1	14
508.595	1	0
508.766	1	12
508.936	1	13
509.106	1	18
509.276	1	10
509.446	1	3
509.616	1	12
509.787	1	15
509.957	1	14
510.127	1	16
510.297	1	1
510.467	1	-1
510.638	1	17
510.808	1	7
510.978	1	8
511.148	1	19
511.318	1	8
511.488	1	12
511.659	1	8
511.829	1	9
511.999	1	15
512.169	1	5
512.339	1	14
512.509	1	6
512.680	1	4
512.850	1	3
513.020	1	2
513.190	1	-2
513.360	1	14
513.530	1	16
513.700	1	24
513.871	1	13
514.041	1	18
514.211	1	15
514.381	1	11
514.551	1	8
514.721	1	11
514.892	1	3
515.062	1	12
515.232	1	9
515.402	1	17
515.572	1	-4
515.742	1	2
515.912	1	7
516.083	1	15
516.253	1	10
516.423	1	6
516.593	1	17
516.763	1	3
516.933	1	-4
517.104	1	12
517.274	1	-8
517.444	1	9
517.614	1	5
517.784	1	17
517.954	1	8
518.124	1	10
518.294	1	6
518.465	1	13
518.635	1	7
518.805	1	27
518.975	1	5
519.145	1	21
519.315	1	7
519.485	1	-7
519.656	1	7
519.826	1	15
519.996	1	-1
520.166	1	14
520.336	1	5
520.506	1	-5
520.676	1	4
520.846	1	4
521.017	1	6
521.187	1	23
521.357	1	-1
521.527	1	5
521.697	1	5
521.867	1	16
522.037	1	-4
522.207	1	10
522.377	1	15
522.548	1	13
522.718	1	6
522.888	1	10
523.058	1	19
523.228	1	15
523.398	1	4
523.568	1	9
523.738	1	4
523.909	1	6
524.079	1	4
524.249	1	11
524.419	1	19
524.589	1	-1
524.759	1	8
524.929	1	7
525.099	1	11
525.269	1	13
525.439	1	1
525.610	1	4
525.780	1	16
525.950	1	0
526.120	1	1
526.290	1	4
526.460	1	9
526.630	1	12
526.800	1	8
526.970	1	11
527.140	1	5
527.311	1	5
527.481	1	11
527.651	1	6
527.821	1	0
527.991	1	6
528.161	1	6
528.331	1	6
528.501	1	8
528.671	1	6
528.841	1	12
529.011	1	-1
529.181	1	6
529.352	1	1
529.522	1	8
529.692	1	13
529.862	1	8
530.032	1	12
530.202	1	6
530.372	1	12
530.542	1	8
530.712	1	8
530.882	1	13
531.052	1	13
531.222	1	1
531.392	1	8
531.563	1	7
531.733	1	8
531.903	1	7
532.073	1	4
532.243	1	3
532.413	1	12
532.583	1	7
532.753	1	9
532.923	1	14
533.093	1	17
533.263	1	-10
533.433	1	23
533.603	1	12
533.773	1	3
533.943	1	-6
534.113	1	8
534.284	1	2
534.454	1	2
534.624	1	6
534.794	1	6
534.964	1	11
535.134	1	20
535.304	1	16
535.474	1	-8
535.644	1	-2
535.814	1	9
535.984	1	18
536.154	1	8
536.324	1	13
536.494	1	3
536.664	1	7
536.834	1	1
537.004	1	17
537.174	1	12
537.344	1	9
537.514	1	0
537.685	1	8
537.855	1	5
538.025	1	1
538.195	1	2
538.365	1	7
538.535	1	-3
538.705	1	21
538.875	1	11
539.045	1	6
539.215	1	-13
539.385	1	5
539.555	1	4
539.725	1	3
539.895	1	14
540.065	1	0
540.235	1	11
540.405	1	4
540.575	1	10
540.745	1	6
540.915	1	6
541.085	1	-2
541.255	1	-7
541.425	1	10
541.595	1	11
541.765	1	21
541.935	1	-3
542.105	1	-1
542.275	1	4
542.445	1	-4
542.615	1	4
542.785	1	0
542.955	1	4
543.125	1	-4
543.295	1	3
543.465	1	9
543.635	1	13
543.805	1	17
543.975	1	0
544.145	1	4
544.315	1	-1
544.485	1	2
544.655	1	12
544.825	1	2
544.995	1	8
545.165	1	3
545.335	1	4
545.505	1	14
545.675	1	-2
545.845	1	16
546.015	1	15
546.185	1	5
546.355	1	10
546.525	1	-2
546.695	1	4
546.865	1	15
547.035	1	10
547.205	1	16
547.375	1	6
547.545	1	19
547.715	1	7
547.885	1	6
548.055	1	-12
548.225	1	10
548.395	1	4
548.565	1	4
548.735	1	8
548.905	1	2
549.075	1	12
549.245	1	5
549.415	1	7
549.585	1	4
549.755	1	9
549.925	1	14
550.095	1	5
550.265	1	6
550.435	1	-6
550.605	1	10
550.775	1	13
550.945	1	18
551.115	1	-1
551.285	1	2
551.455	1	9
551.625	1	1
551.795	1	-1
551.965	1	19
552.135	1	4
552.305	1	3
552.475	1	5
552.645	1	5
552.815	1	8
552.985	1	6
553.155	1	-3
553.325	1	4
553.495	1	7
553.665	1	12
553.835	1	3
554.004	1	-5
554.174	1	2
554.344	1	12
554.514	1	9
554.684	1	-5
554.854	1	-7
555.024	1	-1
555.194	1	8
555.364	1	1
555.534	1	8
555.704	1	15
555.874	1	0
556.044	1	6
556.214	1	2
556.384	1	-5
556.554	1	10
556.724	1	9
556.894	1	1
557.064	1	12
557.234	1	1
557.404	1	6
557.573	1	-1
557.743	1	8
557.913	1	-6
558.083	1	16
558.253	1	-2
558.423	1	5
558.593	1	7
558.763	1	5
558.933	1	4
559.103	1	15
559.273	1	-2
559.443	1	10
559.613	1	5
559.783	1	12
559.953	1	7
560.122	1	-4
560.292	1	3
560.462	1	4
560.632	1	17
560.802	1	4
560.972	1	4
561.142	1	8
561.312	1	12
561.482	1	11
561.652	1	11
561.822	1	-8
561.992	1	-3
562.162	1	6
562.331	1	11
562.501	1	-4
562.671	1	20
562.841	1	0
563.011	1	-2
563.181	1	7
563.351	1	6
563.521	1	5
563.691	1	13
563.861	1	5
564.031	1	6
564.201	1	6
564.370	1	-2
564.540	1	1
564.710	1	8
564.880	1	12
565.050	1	4
565.220	1	3
565.390	1	-2
565.560	1	1
565.730	1	7
565.900	1	-7
566.069	1	7
566.239	1	8
566.409	1	10
566.579	1	8
566.749	1	4
566.919	1	1
567.089	1	4
567.259	1	4
567.429	1	10
567.599	1	3
567.768	1	7
567.938	1	-7
568.108	1	6
568.278	1	0
568.448	1	7
568.618	1	9
568.788	1	-7
568.958	1	-4
569.128	1	-5
569.297	1	10
569.467	1	7
569.637	1	12
569.807	1	-6
569.977	1	3
570.147	1	7
570.317	1	-3
570.487	1	4
570.656	1	3
570.826	1	-6
570.996	1	7
571.166	1	0
571.336	1	-1
571.506	1	0
571.676	1	-5
571.846	1	-7
572.015	1	12
572.185	1	8
572.355	1	10
572.525	1	-7
572.695	1	2
572.865	1	10
573.035	1	1
573.205	1	3
573.374	1	16
573.544	1	12
573.714	1	6
573.884	1	11
574.054	1	7
574.224	1	-2
574.394	1	-3
574.563	1	7
574.733	1	8
574.903	1	10
575.073	1	-1
575.243	1	5
575.413	1	11
575.583	1	4
575.752	1	4
575.922	1	4
576.092	1	-4
576.262	1	3
576.432	1	12
576.602	1	-2
576.772	1	1
576.941	1	10
577.111	1	14
577.281	1	23
577.451	1	7
577.621	1	5
577.791	1	-9
577.960	1	-8
578.130	1	16
578.300	1	7
578.470	1	14
578.640	1	5
578.810	1	2
578.979	1	-1
579.149	1	2
579.319	1	-2
579.489	1	5
579.659	1	-2
579.829	1	7
579.998	1	-1
580.168	1	9
580.338	1	9
580.508	1	0
580.678	1	11
580.848	1	9
581.017	1	7
581.187	1	5
581.357	1	3
581.527	1	-1
581.697	1	-5
581.867	1	5
582.036	1	4
582.206	1	5
582.376	1	10
582.546	1	12
582.716	1	0
582.885	1	-1
583.055	1	-4
583.225	1	-1
583.395	1	3
583.565	1	-6
583.735	1	-8
583.904	1	1
584.074	1	0
584.244	1	9
584.414	1	1
584.584	1	6
584.753	1	11
584.923	1	10
585.093	1	0
585.263	1	-7
585.433	1	18
585.602	1	5
585.772	1	3
585.942	1	4
586.112	1	7
586.282	1	11
586.451	1	-11
586.621	1	2
586.791	1	10
586.961	1	15
587.131	1	8
587.300	1	9
587.470	1	3
587.640	1	1
587.810	1	-4
587.980	1	-3
588.149	1	11
588.319	1	4
588.489	1	6
588.659	1	2
588.829	1	-2
588.998	1	7
589.168	1	9
589.338	1	8
589.508	1	11
589.677	1	-6
589.847	1	5
590.017	1	15
590.187	1	1
590.357	1	5
590.526	1	9
590.696	1	-5
590.866	1	1
591.036	1	1
591.205	1	7
591.375	1	4
591.545	1	5
591.715	1	-1
591.885	1	7
592.054	1	9
592.224	1	6
592.394	1	3
592.564	1	10
592.733	1	6
592.903	1	3
593.073	1	2
593.243	1	2
593.412	1	-7
593.582	1	-3
593.752	1	10
593.922	1	17
594.091	1	-7
594.261	1	4
594.431	1	5
594.601	1	6
594.771	1	13
594.940	1	6
595.110	1	3
595.280	1	13
595.450	1	12
595.619	1	3
595.789	1	7
595.959	1	9
596.129	1	0
596.298	1	6
596.468	1	1
596.638	1	4
596.808	1	-7
596.977	1	2
597.147	1	8
597.317	1	12
597.487	1	10
597.656	1	8
597.826	1	3
597.996	1	3
598.166	1	2
598.335	1	-2
598.505	1	2
598.675	1	-7
598.844	1	6
599.014	1	1
599.184	1	1
599.354	1	6
599.523	1	-1
599.693	1	4
599.863	1	15
600.033	1	10
600.202	1	7
600.372	1	2
600.542	1	10
600.712	1	9
600.881	1	10
601.051	1	10
601.221	1	18
601.390	1	8
601.560	1	8
601.730	1	-3
601.900	1	16
602.069	1	-3
602.239	1	11
602.409	1	2
602.578	1	14
602.748	1	-7
602.918	1	16
603.088	1	9
603.257	1	-1
603.427	1	10
603.597	1	5
603.767	1	1
603.936	1	15
604.106	1	-2
604.276	1	6
604.445	1	-4
604.615	1	6
604.785	1	11
604.954	1	8
605.124	1	1
605.294	1	1
605.464	1	2
605.633	1	10
605.803	1	21
605.973	1	7
606.142	1	9
606.312	1	6
606.482	1	-2
606.652	1	11
606.821	1	2
606.991	1	8
607.161	1	5
607.330	1	9
607.500	1	4
607.670	1	3
607.839	1	-4
608.009	1	9
608.179	1	3
608.348	1	7
608.518	1	1
608.688	1	7
608.858	1	-5
609.027	1	3
609.197	1	9
609.367	1	3
609.536	1	19
609.706	1	6
609.876	1	3
610.045	1	-1
610.215	1	9
610.385	1	-1
610.554	1	11
610.724	1	11
610.894	1	7
611.063	1	4
611.233	1	-10
611.403	1	10
611.572	1	5
611.742	1	4
611.912	1	2
612.081	1	9
612.251	1	7
612.421	1	6
612.590	1	-3
612.760	1	18
612.930	1	-2
613.099	1	5
613.269	1	-5
613.439	1	5
613.608	1	-1
613.778	1	6
613.948	1	8
614.117	1	9
614.287	1	5
614.457	1	12
614.626	1	20
614.796	1	11
614.966	1	0
615.135	1	1
615.305	1	6
615.475	1	2
615.644	1	12
615.814	1	0
615.984	1	14
616.153	1	6
616.323	1	3
616.493	1	18
616.662	1	-1
616.832	1	-2
617.002	1	0
617.171	1	0
617.341	1	2
617.511	1	1
617.680	1	6
617.850	1	-2
618.019	1	15
618.189	1	-4
618.359	1	6
618.528	1	-6
618.698	1	20
618.868	1	-8
619.037	1	6
619.207	1	12
619.377	1	-4
619.546	1	-6
619.716	1	7
619.885	1	10
620.055	1	21
620.225	1	10
620.394	1	0
620.564	1	-6
620.734	1	10
620.903	1	9
621.073	1	0
621.242	1	1
621.412	1	13
621.582	1	0
621.751	1	13
621.921	1	19
622.091	1	-1
622.260	1	3
622.430	1	8
622.599	1	10
622.769	1	11
622.939	1	-7
623.108	1	2
623.278	1	20
623.448	1	8
623.617	1	10
623.787	1	10
623.956	1	27
624.126	1	-5
624.296	1	15
624.465	1	6
624.635	1	16
624.804	1	5
624.974	1	5
625.144	1	12
625.313	1	8
625.483	1	9
625.652	1	13
625.822	1	10
625.992	1	8
626.161	1	-1
626.331	1	2
626.501	1	3
626.670	1	3
626.840	1	7
627.009	1	6
627.179	1	1
627.348	1	15
627.518	1	13
627.688	1	4
627.857	1	7
628.027	1	-11
628.196	1	0
628.366	1	9
628.536	1	10
628.705	1	5
628.875	1	7
629.044	1	11
629.214	1	8
629.384	1	8
629.553	1	7
629.723	1	-9
629.892	1	0
630.062	1	-11
630.232	1	10
630.401	1	4
630.571	1	19
630.740	1	12
630.910	1	2
631.079	1	8
631.249	1	11
631.419	1	14
631.588	1	0
631.758	1	19
631.927	1	6
632.097	1	10
632.266	1	0
632.436	1	18
632.606	1	3
632.775	1	5
632.945	1	-1
633.114	1	10
633.284	1	6
633.453	1	11
633.623	1	18
633.793	1	3
633.962	1	5
634.132	1	8
634.301	1	7
634.471	1	9
634.640	1	9
634.810	1	11
634.979	1	6
635.149	1	3
635.319	1	13
635.488	1	3
635.658	1	10
635.827	1	4
635.997	1	11
636.166	1	3
636.336	1	7
636.505	1	9
636.675	1	1
636.845	1	12
637.014	1	10
637.184	1	11
637.353	1	4
637.523	1	8
637.692	1	0
637.862	1	3
638.031	1	9
638.201	1	4
638.370	1	12
638.540	1	5
638.710	1	12
638.879	1	13
639.049	1	4
639.218	1	13
639.388	1	3
639.557	1	5
639.727	1	13
639.896	1	10
640.066	1	12
640.235	1	8
640.405	1	8
640.574	1	-2
640.744	1	-3
640.914	1	5
641.083	1	1
641.253	1	7
641.422	1	1
641.592	1	4
641.761	1	1
641.931	1	5
642.100	1	10
642.270	1	1
642.439	1	8
642.609	1	7
642.778	1	9
642.948	1	15
643.117	1	10
643.287	1	-2
643.456	1	12
643.626	1	8
643.795	1	9
643.965	1	9
644.134	1	0
644.304	1	14
644.473	1	8
644.643	1	9
644.812	1	6
644.982	1	7
645.151	1	2
645.321	1	4
645.490	1	8
645.660	1	12
645.829	1	4
645.999	1	11
646.168	1	5
646.338	1	21
646.507	1	-2
646.677	1	-3
646.846	1	-1
647.016	1	5
647.185	1	12
647.355	1	-1
647.524	1	3
647.694	1	2
647.863	1	16
648.033	1	9
648.202	1	9
648.372	1	7
648.541	1	2
648.711	1	-1
648.880	1	3
649.050	1	3
649.219	1	11
649.389	1	9
649.558	1	12
649.728	1	13
649.897	1	4
650.067	1	8
650.236	1	1
650.406	1	11
650.575	1	10
650.745	1	10
650.914	1	10
651.084	1	23
651.253	1	-1
651.423	1	7
651.592	1	0
651.762	1	17
651.931	1	12
652.101	1	7
652.270	1	-2
652.440	1	10
652.609	1	12
652.778	1	12
652.948	1	6
653.117	1	13
653.287	1	0
653.456	1	9
653.626	1	6
653.795	1	6
653.965	1	-1
654.134	1	-4
654.304	1	12
654.473	1	6
654.643	1	5
654.812	1	15
654.982	1	6
655.151	1	11
655.320	1	5
655.490	1	0
655.659	1	-2
655.829	1	8
655.998	1	2
656.168	1	-4
656.337	1	4
656.507	1	2
656.676	1	15
656.846	1	10
657.015	1	4
657.184	1	3
657.354	1	10
657.523	1	2
657.693	1	-3
657.862	1	-5
658.032	1	13
658.201	1	22
658.371	1	2
658.540	1	5
658.709	1	10
658.879	1	7
659.048	1	10
659.218	1	0
659.387	1	3
659.557	1	-1
659.726	1	-4
659.895	1	3
660.065	1	13
660.234	1	14
660.404	1	7
660.573	1	12
660.743	1	7
660.912	1	-2
661.081	1	-12
661.251	1	6
661.420	1	5
661.590	1	14
661.759	1	5
661.929	1	12
662.098	1	10
662.267	1	18
662.437	1	-5
662.606	1	15
662.776	1	0
662.945	1	8
663.115	1	8
663.284	1	-3
663.453	1	16
663.623	1	13
663.792	1	6
663.962	1	1
664.131	1	5
664.300	1	-8
664.470	1	6
664.639	1	8
664.809	1	6
664.978	1	8
665.148	1	0
665.317	1	6
665.486	1	8
665.656	1	14
665.825	1	17
665.995	1	7
666.164	1	6
666.333	1	3
666.503	1	4
666.672	1	15
666.842	1	-2
667.011	1	-2
667.180	1	7
667.350	1	4
667.519	1	0
667.689	1	6
667.858	1	8
668.027	1	12
668.197	1	20
668.366	1	-1
668.536	1	-1
668.705	1	13
668.874	1	11
669.044	1	5
669.213	1	6
669.382	1	2
669.552	1	19
669.721	1	6
669.891	1	-2
670.060	1	12
670.229	1	3
670.399	1	5
670.568	1	0
670.738	1	5
670.907	1	1
671.076	1	1
671.246	1	-6
671.415	1	9
671.584	1	14
671.754	1	7
671.923	1	9
672.093	1	6
672.262	1	-3
672.431	1	12
672.601	1	12
672.770	1	11
672.939	1	6
673.109	1	14
673.278	1	1
673.448	1	3
673.617	1	5
673.786	1	13
