325.333	1	7
325.504	1	4
325.675	1	1
325.846	1	-2
326.017	1	6
326.188	1	4
326.359	1	7
326.531	1	11
326.702	1	2
326.873	1	-4
327.044	1	1
327.215	1	-9
327.386	1	14
327.557	1	8
327.728	1	-1
327.899	1	3
328.070	1	9
328.241	1	6
328.412	1	-7
328.583	1	5
328.754	1	-4
328.926	1	5
329.097	1	-1
329.268	1	-2
329.439	1	-7
329.610	1	12
329.781	1	9
329.952	1	-1
330.123	1	-3
330.294	1	4
330.465	1	-4
330.636	1	10
330.807	1	5
330.978	1	-2
331.149	1	-2
331.320	1	12
331.492	1	0
331.663	1	3
331.834	1	2
332.005	1	0
332.176	1	9
332.347	1	0
332.518	1	14
332.689	1	9
332.860	1	6
333.031	1	6
333.202	1	5
333.373	1	-5
333.544	1	0
333.715	1	0
333.886	1	2
334.057	1	4
334.228	1	-6
334.399	1	7
334.570	1	-9
334.741	1	-5
334.912	1	-2
335.084	1	-1
335.255	1	2
335.426	1	4
335.597	1	4
335.768	1	-4
335.939	1	-5
336.110	1	7
336.281	1	6
336.452	1	-3
336.623	1	0
336.794	1	1
336.965	1	-7
337.136	1	-2
337.307	1	-2
337.478	1	0
337.649	1	-4
337.820	1	-11
337.991	1	7
338.162	1	9
338.333	1	6
338.504	1	8
338.675	1	11
338.846	1	3
339.017	1	16
339.188	1	14
339.359	1	11
339.530	1	-2
339.701	1	-5
339.872	1	2
340.043	1	0
340.214	1	9
340.385	1	12
340.556	1	4
340.727	1	1
340.898	1	6
341.069	1	1
341.240	1	-8
341.411	1	15
341.582	1	10
341.753	1	2
341.924	1	3
342.095	1	8
342.266	1	0
342.437	1	-5
342.608	1	3
342.779	1	0
342.950	1	0
343.121	1	7
343.292	1	9
343.463	1	4
343.634	1	6
343.805	1	3
343.976	1	-11
344.147	1	1
344.318	1	9
344.489	1	8
344.660	1	12
344.831	1	4
345.002	1	7
345.173	1	6
345.344	1	6
345.515	1	12
345.686	1	-1
345.857	1	-11
346.028	1	-8
346.199	1	5
346.370	1	-1
346.541	1	4
346.712	1	2
346.883	1	10
347.054	1	-6
347.225	1	-6
347.396	1	1
347.567	1	8
347.738	1	1
347.909	1	7
348.080	1	12
348.251	1	-5
348.422	1	-2
348.593	1	5
348.764	1	-18
348.935	1	-5
349.106	1	9
349.277	1	1
349.448	1	8
349.619	1	5
349.790	1	5
349.961	1	5
350.132	1	6
350.303	1	1
350.474	1	-4
350.645	1	7
350.816	1	2
350.987	1	2
351.157	1	0
351.328	1	7
351.499	1	3
351.670	1	4
351.841	1	-5
352.012	1	1
352.183	1	0
352.354	1	-3
352.525	1	4
352.696	1	12
352.867	1	11
353.038	1	2
353.209	1	2
353.380	1	0
353.551	1	-10
353.722	1	9
353.893	1	0
354.064	1	-4
354.235	1	15
354.406	1	2
354.576	1	-5
354.747	1	8
354.918	1	16
355.089	1	18
355.260	1	11
355.431	1	4
355.602	1	-2
355.773	1	0
355.944	1	5
356.115	1	-1
356.286	1	-1
356.457	1	3
356.628	1	-2
356.799	1	1
356.970	1	-2
357.141	1	8
357.311	1	-3
357.482	1	-5
357.653	1	5
357.824	1	9
357.995	1	11
358.166	1	0
358.337	1	-7
358.508	1	-2
358.679	1	-1
358.850	1	6
359.021	1	-2
359.192	1	3
359.363	1	-5
359.533	1	-3
359.704	1	11
359.875	1	1
360.046	1	-2
360.217	1	-5
360.388	1	0
360.559	1	0
360.730	1	-3
360.901	1	7
361.072	1	9
361.243	1	8
361.414	1	6
361.584	1	16
361.755	1	2
361.926	1	5
362.097	1	-7
362.268	1	8
362.439	1	11
362.610	1	4
362.781	1	3
362.952	1	-6
363.123	1	-2
363.293	1	3
363.464	1	5
363.635	1	9
363.806	1	2
363.977	1	3
364.148	1	4
364.319	1	1
364.490	1	7
364.661	1	-2
364.832	1	-3
365.002	1	-1
365.173	1	-1
365.344	1	-2
365.515	1	5
365.686	1	8
365.857	1	2
366.028	1	4
366.199	1	6
366.370	1	1
366.540	1	2
366.711	1	6
366.882	1	3
367.053	1	-5
367.224	1	-4
367.395	1	10
367.566	1	2
367.737	1	2
367.908	1	-4
368.078	1	4
368.249	1	0
368.420	1	2
368.591	1	4
368.762	1	-8
368.933	1	8
369.104	1	2
369.274	1	5
369.445	1	16
369.616	1	-5
369.787	1	1
369.958	1	11
370.129	1	4
370.300	1	2
370.471	1	0
370.641	1	5
370.812	1	12
370.983	1	6
371.154	1	7
371.325	1	13
371.496	1	-5
371.667	1	3
371.837	1	1
372.008	1	9
372.179	1	8
372.350	1	4
372.521	1	-4
372.692	1	-6
372.863	1	4
373.033	1	8
373.204	1	11
373.375	1	3
373.546	1	16
373.717	1	3
373.888	1	4
374.059	1	10
374.229	1	7
374.400	1	9
374.571	1	7
374.742	1	4
374.913	1	10
375.084	1	9
375.254	1	1
375.425	1	2
375.596	1	2
375.767	1	4
375.938	1	2
376.109	1	6
376.279	1	11
376.450	1	4
376.621	1	7
376.792	1	8
376.963	1	-2
377.134	1	-5
377.304	1	4
377.475	1	-9
377.646	1	-2
377.817	1	3
377.988	1	4
378.159	1	4
378.329	1	15
378.500	1	7
378.671	1	0
378.842	1	-2
379.013	1	5
379.184	1	4
379.354	1	1
379.525	1	-1
379.696	1	10
379.867	1	-5
380.038	1	2
380.209	1	8
380.379	1	7
380.550	1	4
380.721	1	5
380.892	1	11
381.063	1	7
381.233	1	5
381.404	1	8
381.575	1	3
381.746	1	4
381.917	1	2
382.087	1	2
382.258	1	12
382.429	1	-1
382.600	1	2
382.771	1	4
382.941	1	2
383.112	1	6
383.283	1	10
383.454	1	-4
383.625	1	4
383.795	1	4
383.966	1	3
384.137	1	10
384.308	1	7
384.479	1	9
384.649	1	11
384.820	1	3
384.991	1	-2
385.162	1	6
385.333	1	4
385.503	1	12
385.674	1	8
385.845	1	2
386.016	1	-2
386.187	1	0
386.357	1	3
386.528	1	-3
386.699	1	1
386.870	1	7
387.041	1	6
387.211	1	-2
387.382	1	4
387.553	1	12
387.724	1	4
387.894	1	2
388.065	1	7
388.236	1	13
388.407	1	4
388.578	1	4
388.748	1	4
388.919	1	16
389.090	1	6
389.261	1	10
389.431	1	16
389.602	1	2
389.773	1	2
389.944	1	2
390.114	1	6
390.285	1	6
390.456	1	6
390.627	1	12
390.798	1	-6
390.968	1	-4
391.139	1	7
391.310	1	9
391.481	1	9
391.651	1	10
391.822	1	11
391.993	1	9
392.164	1	-3
392.334	1	-2
392.505	1	-3
392.676	1	-7
392.847	1	11
393.017	1	0
393.188	1	-1
393.359	1	2
393.530	1	4
393.700	1	10
393.871	1	-1
394.042	1	20
394.213	1	7
394.383	1	9
394.554	1	1
394.725	1	11
394.896	1	10
395.066	1	7
395.237	1	-12
395.408	1	5
395.579	1	14
395.749	1	9
395.920	1	1
396.091	1	7
396.262	1	-1
396.432	1	0
396.603	1	1
396.774	1	10
396.945	1	4
397.115	1	-8
397.286	1	16
397.457	1	1
397.627	1	4
397.798	1	6
397.969	1	8
398.140	1	6
398.310	1	5
398.481	1	12
398.652	1	-3
398.823	1	0
398.993	1	19
399.164	1	10
399.335	1	-4
399.505	1	19
399.676	1	1
399.847	1	14
400.018	1	13
400.188	1	8
400.359	1	16
400.530	1	3
400.700	1	10
400.871	1	14
401.042	1	10
401.213	1	9
401.383	1	5
401.554	1	10
401.725	1	6
401.895	1	3
402.066	1	14
402.237	1	15
402.408	1	9
402.578	1	7
402.749	1	11
402.920	1	11
403.090	1	14
403.261	1	15
403.432	1	4
403.603	1	1
403.773	1	4
403.944	1	21
404.115	1	6
404.285	1	24
404.456	1	6
404.627	1	5
404.797	1	6
404.968	1	3
405.139	1	9
405.310	1	6
405.480	1	10
405.651	1	13
405.822	1	11
405.992	1	3
406.163	1	7
406.334	1	15
406.504	1	3
406.675	1	7
406.846	1	10
407.016	1	-3
407.187	1	8
407.358	1	8
407.528	1	8
407.699	1	7
407.870	1	14
408.041	1	7
408.211	1	5
408.382	1	8
408.553	1	-3
408.723	1	7
408.894	1	8
409.065	1	11
409.235	1	2
409.406	1	4
409.577	1	6
409.747	1	17
409.918	1	10
410.089	1	2
410.259	1	2
410.430	1	1
410.601	1	8
410.771	1	2
410.942	1	-9
411.113	1	12
411.283	1	12
411.454	1	5
411.625	1	14
411.795	1	-3
411.966	1	6
412.137	1	6
412.307	1	5
412.478	1	12
412.649	1	10
412.819	1	2
412.990	1	3
413.161	1	18
413.331	1	5
413.502	1	-4
413.672	1	13
413.843	1	10
414.014	1	19
414.184	1	12
414.355	1	11
414.526	1	6
414.696	1	12
414.867	1	5
415.038	1	10
415.208	1	4
415.379	1	8
415.550	1	6
415.720	1	5
415.891	1	3
416.062	1	6
416.232	1	13
416.403	1	7
416.573	1	-6
416.744	1	5
416.915	1	3
417.085	1	1
417.256	1	2
417.427	1	10
417.597	1	5
417.768	1	7
417.939	1	14
418.109	1	-2
418.280	1	16
418.450	1	22
418.621	1	5
418.792	1	-2
418.962	1	7
419.133	1	12
419.304	1	3
419.474	1	-2
419.645	1	5
419.815	1	8
419.986	1	2
420.157	1	14
420.327	1	-1
420.498	1	-4
420.669	1	9
420.839	1	4
421.010	1	12
421.180	1	-1
421.351	1	17
421.522	1	13
421.692	1	5
421.863	1	5
422.033	1	20
422.204	1	15
422.375	1	5
422.545	1	8
422.716	1	6
422.886	1	13
423.057	1	-1
423.228	1	5
423.398	1	17
423.569	1	15
423.740	1	2
423.910	1	15
424.081	1	9
424.251	1	3
424.422	1	7
424.593	1	1
424.763	1	4
424.934	1	6
425.104	1	2
425.275	1	12
425.445	1	19
425.616	1	7
425.787	1	8
425.957	1	4
426.128	1	22
426.298	1	10
426.469	1	0
426.640	1	14
426.810	1	10
426.981	1	2
427.151	1	2
427.322	1	-9
427.493	1	5
427.663	1	-3
427.834	1	1
428.004	1	13
428.175	1	7
428.345	1	14
428.516	1	9
428.687	1	14
428.857	1	4
429.028	1	10
429.198	1	10
429.369	1	2
429.540	1	4
429.710	1	12
429.881	1	10
430.051	1	6
430.222	1	5
430.392	1	14
430.563	1	1
430.734	1	16
430.904	1	5
431.075	1	-1
431.245	1	10
431.416	1	1
431.586	1	6
431.757	1	21
431.927	1	-4
432.098	1	14
432.269	1	11
432.439	1	5
432.610	1	10
432.780	1	3
432.951	1	10
433.121	1	13
433.292	1	13
433.462	1	8
433.633	1	13
433.804	1	-5
433.974	1	13
434.145	1	7
434.315	1	5
434.486	1	-7
434.656	1	9
434.827	1	8
434.997	1	13
435.168	1	10
435.339	1	6
435.509	1	2
435.680	1	-1
435.850	1	-1
436.021	1	12
436.191	1	10
436.362	1	17
436.532	1	9
436.703	1	11
436.873	1	12
437.044	1	14
437.214	1	13
437.385	1	7
437.556	1	7
437.726	1	10
437.897	1	-3
438.067	1	3
438.238	1	2
438.408	1	10
438.579	1	8
438.749	1	-3
438.920	1	7
439.090	1	10
439.261	1	0
439.431	1	1
439.602	1	2
439.772	1	5
439.943	1	13
440.113	1	8
440.284	1	6
440.455	1	17
440.625	1	1
440.796	1	2
440.966	1	7
441.137	1	3
441.307	1	3
441.478	1	5
441.648	1	1
441.819	1	3
441.989	1	-1
442.160	1	13
442.330	1	9
442.501	1	6
442.671	1	10
442.842	1	18
443.012	1	0
443.183	1	7
443.353	1	16
443.524	1	1
443.694	1	13
443.865	1	12
444.035	1	5
444.206	1	0
444.376	1	18
444.547	1	14
444.717	1	17
444.888	1	1
445.058	1	12
445.229	1	7
445.399	1	7
445.570	1	5
445.740	1	13
445.911	1	10
446.081	1	11
446.252	1	-4
446.422	1	11
446.593	1	10
446.763	1	11
446.934	1	18
447.104	1	3
447.275	1	17
447.445	1	3
447.616	1	3
447.786	1	3
447.957	1	13
448.127	1	19
448.298	1	1
448.468	1	1
448.639	1	-3
448.809	1	-3
448.979	1	16
449.150	1	2
449.320	1	13
449.491	1	12
449.661	1	17
449.832	1	12
450.002	1	8
450.173	1	-2
450.343	1	0
450.514	1	10
450.684	1	6
450.855	1	3
451.025	1	6
451.196	1	11
451.366	1	11
451.537	1	7
451.707	1	12
451.878	1	7
452.048	1	3
452.218	1	5
452.389	1	9
452.559	1	15
452.730	1	4
452.900	1	10
453.071	1	10
453.241	1	7
453.412	1	-5
453.582	1	6
453.753	1	10
453.923	1	10
454.093	1	15
454.264	1	-5
454.434	1	10
454.605	1	10
454.775	1	1
454.946	1	8
455.116	1	5
455.287	1	5
455.457	1	1
455.628	1	3
455.798	1	11
455.968	1	7
456.139	1	3
456.309	1	14
456.480	1	10
456.650	1	11
456.821	1	14
456.991	1	2
457.161	1	6
457.332	1	7
457.502	1	17
457.673	1	17
457.843	1	1
458.014	1	2
458.184	1	4
458.355	1	1
458.525	1	6
458.695	1	0
458.866	1	20
459.036	1	10
459.207	1	4
459.377	1	0
459.548	1	3
459.718	1	10
459.888	1	12
460.059	1	16
460.229	1	7
460.400	1	6
460.570	1	15
460.740	1	8
460.911	1	1
461.081	1	14
461.252	1	5
461.422	1	12
461.593	1	3
461.763	1	14
461.933	1	10
462.104	1	6
462.274	1	-1
462.445	1	4
462.615	1	4
462.785	1	2
462.956	1	3
463.126	1	2
463.297	1	11
463.467	1	2
463.638	1	6
463.808	1	17
463.978	1	8
464.149	1	6
464.319	1	17
464.490	1	13
464.660	1	6
464.830	1	2
465.001	1	-2
465.171	1	1
465.342	1	2
465.512	1	0
465.682	1	1
465.853	1	4
466.023	1	2
466.194	1	9
466.364	1	11
466.534	1	-2
466.705	1	1
466.875	1	9
467.045	1	-4
467.216	1	7
467.386	1	13
467.557	1	17
467.727	1	8
467.897	1	-2
468.068	1	0
468.238	1	19
468.409	1	5
468.579	1	1
468.749	1	8
468.920	1	2
469.090	1	8
469.260	1	5
469.431	1	12
469.601	1	-2
469.772	1	-7
469.942	1	16
470.112	1	-1
470.283	1	11
470.453	1	10
470.623	1	10
470.794	1	4
470.964	1	6
471.135	1	8
471.305	1	10
471.475	1	1
471.646	1	8
471.816	1	6
471.986	1	10
472.157	1	14
472.327	1	0
472.497	1	4
472.668	1	7
472.838	1	7
473.009	1	9
473.179	1	10
473.349	1	15
473.520	1	7
473.690	1	4
473.860	1	11
474.031	1	15
474.201	1	13
474.371	1	3
474.542	1	6
474.712	1	11
474.882	1	0
475.053	1	7
475.223	1	-9
475.394	1	-10
475.564	1	5
475.734	1	21
475.905	1	6
476.075	1	5
476.245	1	9
476.416	1	0
476.586	1	6
476.756	1	-7
476.927	1	-9
477.097	1	-1
477.267	1	11
477.438	1	15
477.608	1	4
477.778	1	15
477.949	1	3
478.119	1	9
478.289	1	-1
478.460	1	-4
478.630	1	18
478.800	1	14
478.971	1	7
479.141	1	5
479.311	1	9
479.482	1	7
479.652	1	14
479.822	1	6
479.993	1	9
480.163	1	9
480.333	1	-1
480.504	1	-5
480.674	1	6
480.844	1	-1
481.015	1	-7
481.185	1	7
481.355	1	13
481.525	1	13
481.696	1	6
481.866	1	15
482.036	1	8
482.207	1	-1
482.377	1	13
482.547	1	-3
482.718	1	4
482.888	1	17
483.058	1	2
483.229	1	12
483.399	1	11
483.569	1	5
483.740	1	4
483.910	1	-3
484.080	1	-4
484.250	1	-2
484.421	1	2
484.591	1	5
484.761	1	5
484.932	1	4
485.102	1	9
485.272	1	-2
485.443	1	7
485.613	1	8
485.783	1	14
485.953	1	-3
486.124	1	9
486.294	1	3
486.464	1	0
486.635	1	10
486.805	1	5
486.975	1	-3
487.146	1	-10
487.316	1	-1
487.486	1	8
487.656	1	-2
487.827	1	9
487.997	1	4
488.167	1	9
488.338	1	-7
488.508	1	6
488.678	1	7
488.848	1	4
489.019	1	1
489.189	1	-2
489.359	1	11
489.529	1	1
489.700	1	2
489.870	1	-1
490.040	1	0
490.211	1	7
490.381	1	10
490.551	1	-5
490.721	1	2
490.892	1	0
491.062	1	6
491.232	1	-3
491.402	1	-1
491.573	1	-6
491.743	1	-1
491.913	1	-7
492.084	1	4
492.254	1	8
492.424	1	17
492.594	1	10
492.765	1	4
492.935	1	1
493.105	1	10
493.275	1	-3
493.446	1	-1
493.616	1	3
493.786	1	4
493.956	1	2
494.127	1	20
494.297	1	-1
494.467	1	4
494.637	1	17
494.808	1	10
494.978	1	5
495.148	1	0
495.318	1	15
495.489	1	-11
495.659	1	6
495.829	1	12
495.999	1	15
496.170	1	-6
496.340	1	9
496.510	1	4
496.680	1	1
496.851	1	3
497.021	1	0
497.191	1	6
497.361	1	-3
497.532	1	-4
497.702	1	8
497.872	1	24
498.042	1	4
498.213	1	13
498.383	1	7
498.553	1	4
498.723	1	-1
498.894	1	2
499.064	1	2
499.234	1	9
499.404	1	-6
499.574	1	9
499.745	1	-1
499.915	1	5
500.085	1	3
500.255	1	2
500.426	1	4
500.596	1	-1
500.766	1	-3
500.936	1	12
501.106	1	0
501.277	1	14
501.447	1	0
501.617	1	-1
501.787	1	-1
501.958	1	-9
502.128	1	-1
502.298	1	14
502.468	1	14
502.638	1	0
502.809	1	12
502.979	1	5
503.149	1	-9
503.319	1	4
503.489	1	2
503.660	1	-5
503.830	1	1
504.000	1	10
504.170	1	3
504.340	1	1
504.511	1	6
504.681	1	1
504.851	1	6
505.021	1	9
505.192	1	-8
505.362	1	7
505.532	1	-1
505.702	1	-10
505.872	1	3
506.043	1	11
506.213	1	-2
506.383	1	6
506.553	1	4
506.723	1	2
506.893	1	-8
507.064	1	-12
507.234	1	1
507.404	1	12
507.574	1	-4
507.744	1	11
507.915	1	2
508.085	1	4
508.255	1	7
508.425	1	0
508.595	1	-5
508.766	1	-7
508.936	1	3
509.106	1	8
509.276	1	1
509.446	1	8
509.616	1	0
509.787	1	12
509.957	1	7
510.127	1	-2
510.297	1	-1
510.467	1	-9
510.638	1	2
510.808	1	1
510.978	1	7
511.148	1	16
511.318	1	4
511.488	1	11
511.659	1	4
511.829	1	10
511.999	1	9
512.169	1	-8
512.339	1	0
512.509	1	9
512.680	1	-6
512.850	1	11
513.020	1	-5
513.190	1	-6
513.360	1	1
513.530	1	11
513.700	1	8
513.871	1	8
514.041	1	1
514.211	1	9
514.381	1	15
514.551	1	-3
514.721	1	-3
514.892	1	-5
515.062	1	13
515.232	1	1
515.402	1	9
515.572	1	1
515.742	1	7
515.912	1	0
516.083	1	1
516.253	1	8
516.423	1	5
516.593	1	8
516.763	1	1
516.933	1	-11
517.104	1	1
517.274	1	-2
517.444	1	-9
517.614	1	-3
517.784	1	9
517.954	1	6
518.124	1	1
518.294	1	6
518.465	1	6
518.635	1	1
518.805	1	9
518.975	1	-1
519.145	1	3
519.315	1	-5
519.485	1	-6
519.656	1	-5
519.826	1	8
519.996	1	4
520.166	1	8
520.336	1	0
520.506	1	-5
520.676	1	7
520.846	1	3
521.017	1	2
521.187	1	8
521.357	1	7
521.527	1	2
521.697	1	5
521.867	1	1
522.037	1	-6
522.207	1	6
522.377	1	6
522.548	1	15
522.718	1	4
522.888	1	8
523.058	1	16
523.228	1	2
523.398	1	-3
523.568	1	10
523.738	1	4
523.909	1	7
524.079	1	1
524.249	1	0
524.419	1	11
524.589	1	-5
524.759	1	2
524.929	1	-2
525.099	1	5
525.269	1	12
525.439	1	0
525.610	1	8
525.780	1	-1
525.950	1	1
526.120	1	-6
526.290	1	4
526.460	1	0
526.630	1	5
526.800	1	10
526.970	1	12
527.140	1	5
527.311	1	-6
527.481	1	8
527.651	1	2
527.821	1	-6
527.991	1	1
528.161	1	3
528.331	1	6
528.501	1	4
528.671	1	-1
528.841	1	12
529.011	1	2
529.181	1	5
529.352	1	1
529.522	1	-2
529.692	1	2
529.862	1	5
530.032	1	11
530.202	1	-5
530.372	1	4
530.542	1	-1
530.712	1	-11
530.882	1	5
531.052	1	10
531.222	1	-1
531.392	1	11
531.563	1	1
531.733	1	3
531.903	1	8
532.073	1	-1
532.243	1	-5
532.413	1	11
532.583	1	-4
532.753	1	-1
532.923	1	6
533.093	1	0
533.263	1	-7
533.433	1	11
533.603	1	5
533.773	1	1
533.943	1	3
534.113	1	2
534.284	1	-10
534.454	1	4
534.624	1	7
534.794	1	-7
534.964	1	1
535.134	1	12
535.304	1	0
535.474	1	-9
535.644	1	-2
535.814	1	6
535.984	1	9
536.154	1	2
536.324	1	13
536.494	1	3
536.664	1	-2
536.834	1	2
537.004	1	5
537.174	1	2
537.344	1	3
537.514	1	2
537.685	1	-5
537.855	1	5
538.025	1	3
538.195	1	-8
538.365	1	1
538.535	1	-4
538.705	1	12
538.875	1	6
539.045	1	4
539.215	1	-7
539.385	1	-10
539.555	1	1
539.725	1	-5
539.895	1	13
540.065	1	0
540.235	1	10
540.405	1	-3
540.575	1	2
540.745	1	-3
540.915	1	1
541.085	1	-10
541.255	1	-9
541.425	1	7
541.595	1	15
541.765	1	19
541.935	1	-8
542.105	1	1
542.275	1	1
542.445	1	-8
542.615	1	4
542.785	1	-4
542.955	1	5
543.125	1	-8
543.295	1	3
543.465	1	10
543.635	1	10
543.805	1	8
543.975	1	4
544.145	1	-5
544.315	1	-5
544.485	1	4
544.655	1	1
544.825	1	-1
544.995	1	5
545.165	1	4
545.335	1	2
545.505	1	2
545.675	1	-3
545.845	1	10
546.015	1	-1
546.185	1	8
546.355	1	13
546.525	1	0
546.695	1	5
546.865	1	9
547.035	1	8
547.205	1	-2
547.375	1	2
547.545	1	7
547.715	1	2
547.885	1	14
548.055	1	-9
548.225	1	5
548.395	1	-2
548.565	1	14
548.735	1	1
548.905	1	-9
549.075	1	5
549.245	1	6
549.415	1	8
549.585	1	8
549.755	1	1
549.925	1	-3
550.095	1	2
550.265	1	-1
550.435	1	-16
550.605	1	-9
550.775	1	-1
550.945	1	1
551.115	1	-2
551.285	1	3
551.455	1	1
551.625	1	-14
551.795	1	-8
551.965	1	12
552.135	1	-2
552.305	1	-8
552.475	1	2
552.645	1	1
552.815	1	-6
552.985	1	-5
553.155	1	2
553.325	1	2
553.495	1	-2
553.665	1	1
553.835	1	5
554.004	1	-12
554.174	1	6
554.344	1	4
554.514	1	-1
554.684	1	-6
554.854	1	-4
555.024	1	6
555.194	1	0
555.364	1	8
555.534	1	-3
555.704	1	10
555.874	1	-5
556.044	1	9
556.214	1	1
556.384	1	6
556.554	1	-3
556.724	1	4
556.894	1	-9
557.064	1	1
557.234	1	1
557.404	1	-7
557.573	1	-8
557.743	1	-1
557.913	1	-2
558.083	1	9
558.253	1	-8
558.423	1	-10
558.593	1	9
558.763	1	8
558.933	1	-5
559.103	1	6
559.273	1	0
559.443	1	-7
559.613	1	9
559.783	1	3
559.953	1	6
560.122	1	-2
560.292	1	-10
560.462	1	5
560.632	1	8
560.802	1	2
560.972	1	-4
561.142	1	2
561.312	1	11
561.482	1	9
561.652	1	4
561.822	1	-7
561.992	1	-10
562.162	1	7
562.331	1	11
562.501	1	-8
562.671	1	6
562.841	1	-6
563.011	1	-2
563.181	1	10
563.351	1	-3
563.521	1	-3
563.691	1	-1
563.861	1	-3
564.031	1	-7
564.201	1	-5
564.370	1	-12
564.540	1	-2
564.710	1	4
564.880	1	-2
565.050	1	0
565.220	1	1
565.390	1	5
565.560	1	-1
565.730	1	6
565.900	1	-6
566.069	1	-3
566.239	1	-2
566.409	1	8
566.579	1	11
566.749	1	-6
566.919	1	1
567.089	1	12
567.259	1	11
567.429	1	5
567.599	1	0
567.768	1	10
567.938	1	-8
568.108	1	-3
568.278	1	-4
568.448	1	1
568.618	1	1
568.788	1	-6
568.958	1	-7
569.128	1	-5
569.297	1	0
569.467	1	4
569.637	1	-3
569.807	1	2
569.977	1	10
570.147	1	4
570.317	1	3
570.487	1	6
570.656	1	-1
570.826	1	-3
570.996	1	-1
571.166	1	-10
571.336	1	-8
571.506	1	3
571.676	1	-5
571.846	1	-3
572.015	1	12
572.185	1	0
572.355	1	3
572.525	1	-8
572.695	1	-4
572.865	1	11
573.035	1	-9
573.205	1	-14
573.374	1	9
573.544	1	4
573.714	1	3
573.884	1	-1
574.054	1	3
574.224	1	-3
574.394	1	1
574.563	1	11
574.733	1	10
574.903	1	8
575.073	1	3
575.243	1	0
575.413	1	0
575.583	1	4
575.752	1	9
575.922	1	-2
576.092	1	-4
576.262	1	3
576.432	1	7
576.602	1	-2
576.772	1	4
576.941	1	8
577.111	1	3
577.281	1	15
577.451	1	0
577.621	1	0
577.791	1	1
577.960	1	4
578.130	1	-1
578.300	1	3
578.470	1	1
578.640	1	-7
578.810	1	-1
578.979	1	-10
579.149	1	-4
579.319	1	3
579.489	1	5
579.659	1	-2
579.829	1	7
579.998	1	4
580.168	1	-4
580.338	1	3
580.508	1	0
580.678	1	9
580.848	1	-7
581.017	1	-1
581.187	1	0
581.357	1	-5
581.527	1	-7
581.697	1	-4
581.867	1	7
582.036	1	-6
582.206	1	-2
582.376	1	-2
582.546	1	13
582.716	1	3
582.885	1	1
583.055	1	-7
583.225	1	-7
583.395	1	-1
583.565	1	-3
583.735	1	0
583.904	1	1
584.074	1	1
584.244	1	-4
584.414	1	-4
584.584	1	-3
584.753	1	4
584.923	1	-2
585.093	1	-6
585.263	1	1
585.433	1	14
585.602	1	9
585.772	1	-3
585.942	1	4
586.112	1	-2
586.282	1	1
586.451	1	-4
586.621	1	0
586.791	1	8
586.961	1	10
587.131	1	4
587.300	1	6
587.470	1	1
587.640	1	-13
587.810	1	-8
587.980	1	-14
588.149	1	4
588.319	1	10
588.489	1	3
588.659	1	5
588.829	1	0
588.998	1	-8
589.168	1	0
589.338	1	-1
589.508	1	0
589.677	1	-2
589.847	1	5
590.017	1	-3
590.187	1	-2
590.357	1	-9
590.526	1	-2
590.696	1	3
590.866	1	0
591.036	1	-10
591.205	1	1
591.375	1	1
591.545	1	0
591.715	1	-3
591.885	1	-10
592.054	1	8
592.224	1	7
592.394	1	-6
592.564	1	10
592.733	1	4
592.903	1	-3
593.073	1	-7
593.243	1	3
593.412	1	-2
593.582	1	8
593.752	1	-4
593.922	1	10
594.091	1	-4
594.261	1	-8
594.431	1	6
594.601	1	0
594.771	1	-5
594.940	1	-2
595.110	1	3
595.280	1	13
595.450	1	6
595.619	1	1
595.789	1	7
595.959	1	4
596.129	1	-7
596.298	1	7
596.468	1	1
596.638	1	6
596.808	1	-2
596.977	1	0
597.147	1	-1
597.317	1	5
597.487	1	10
597.656	1	-4
597.826	1	-9
597.996	1	0
598.166	1	8
598.335	1	-8
598.505	1	1
598.675	1	-7
598.844	1	2
599.014	1	6
599.184	1	1
599.354	1	5
599.523	1	-3
599.693	1	-1
599.863	1	3
600.033	1	-1
600.202	1	1
600.372	1	2
600.542	1	-4
600.712	1	5
600.881	1	10
601.051	1	6
601.221	1	17
601.390	1	0
601.560	1	6
601.730	1	0
601.900	1	2
602.069	1	-12
602.239	1	0
602.409	1	0
602.578	1	15
602.748	1	2
602.918	1	12
603.088	1	9
603.257	1	3
603.427	1	5
603.597	1	-5
603.767	1	-5
603.936	1	13
604.106	1	-6
604.276	1	-3
604.445	1	-2
604.615	1	1
604.785	1	4
604.954	1	1
605.124	1	3
605.294	1	0
605.464	1	-9
605.633	1	6
605.803	1	9
605.973	1	2
606.142	1	6
606.312	1	7
606.482	1	3
606.652	1	11
606.821	1	-2
606.991	1	1
607.161	1	0
607.330	1	7
607.500	1	13
607.670	1	-1
607.839	1	-6
608.009	1	2
608.179	1	2
608.348	1	-2
608.518	1	-9
608.688	1	5
608.858	1	0
609.027	1	0
609.197	1	8
609.367	1	2
609.536	1	18
609.706	1	-2
609.876	1	0
610.045	1	3
610.215	1	0
610.385	1	7
610.554	1	1
610.724	1	-1
610.894	1	6
611.063	1	11
611.233	1	-7
611.403	1	-1
611.572	1	7
611.742	1	4
611.912	1	-2
612.081	1	-2
612.251	1	7
612.421	1	-1
612.590	1	-7
612.760	1	13
612.930	1	-3
613.099	1	8
613.269	1	6
613.439	1	1
613.608	1	2
613.778	1	-11
613.948	1	-1
614.117	1	4
614.287	1	-7
614.457	1	3
614.626	1	10
614.796	1	8
614.966	1	5
615.135	1	2
615.305	1	5
615.475	1	-3
615.644	1	4
615.814	1	-4
615.984	1	8
616.153	1	-2
616.323	1	2
616.493	1	7
616.662	1	-1
616.832	1	10
617.002	1	1
617.171	1	-2
617.341	1	6
617.511	1	-2
617.680	1	11
617.850	1	-4
618.019	1	2
618.189	1	11
618.359	1	1
618.528	1	0
618.698	1	3
618.868	1	0
619.037	1	-1
619.207	1	15
619.377	1	4
619.546	1	-12
619.716	1	-6
619.885	1	-11
620.055	1	12
620.225	1	6
620.394	1	1
620.564	1	-5
620.734	1	4
620.903	1	0
621.073	1	7
621.242	1	-6
621.412	1	5
621.582	1	-8
621.751	1	4
621.921	1	11
622.091	1	-3
622.260	1	2
622.430	1	-3
622.599	1	0
622.769	1	1
622.939	1	-2
623.108	1	3
623.278	1	17
623.448	1	12
623.617	1	1
623.787	1	1
623.956	1	16
624.126	1	0
624.296	1	4
624.465	1	-4
624.635	1	3
624.804	1	2
624.974	1	5
625.144	1	21
625.313	1	-5
625.483	1	-1
625.652	1	2
625.822	1	-7
625.992	1	2
626.161	1	-1
626.331	1	-5
626.501	1	3
626.670	1	-1
626.840	1	-4
627.009	1	3
627.179	1	-14
627.348	1	4
627.518	1	4
627.688	1	-3
627.857	1	7
628.027	1	-6
628.196	1	-10
628.366	1	5
628.536	1	8
628.705	1	-8
628.875	1	2
629.044	1	8
629.214	1	-7
629.384	1	0
629.553	1	2
629.723	1	-10
629.892	1	4
630.062	1	-8
630.232	1	9
630.401	1	0
630.571	1	8
630.740	1	-4
630.910	1	3
631.079	1	-6
631.249	1	9
631.419	1	2
631.588	1	0
631.758	1	-1
631.927	1	5
632.097	1	2
632.266	1	0
632.436	1	-3
632.606	1	-7
632.775	1	3
632.945	1	-9
633.114	1	3
633.284	1	-2
633.453	1	9
633.623	1	11
633.793	1	1
633.962	1	-3
634.132	1	-3
634.301	1	-5
634.471	1	-9
634.640	1	0
634.810	1	20
634.979	1	3
635.149	1	-3
635.319	1	6
635.488	1	-3
635.658	1	6
635.827	1	-5
635.997	1	5
636.166	1	1
636.336	1	3
636.505	1	9
636.675	1	5
636.845	1	4
637.014	1	-2
637.184	1	6
637.353	1	0
637.523	1	6
637.692	1	4
637.862	1	-4
638.031	1	-6
638.201	1	4
638.370	1	4
638.540	1	5
638.710	1	9
638.879	1	0
639.049	1	0
639.218	1	15
639.388	1	-3
639.557	1	7
639.727	1	14
639.896	1	-2
640.066	1	15
640.235	1	0
640.405	1	14
640.574	1	-1
640.744	1	-12
640.914	1	1
641.083	1	8
641.253	1	-4
641.422	1	0
641.592	1	3
641.761	1	4
641.931	1	-7
642.100	1	8
642.270	1	-10
642.439	1	-3
642.609	1	3
642.778	1	2
642.948	1	17
643.117	1	7
643.287	1	3
643.456	1	-1
643.626	1	13
643.795	1	1
643.965	1	4
644.134	1	-4
644.304	1	7
644.473	1	-5
644.643	1	-6
644.812	1	5
644.982	1	-2
645.151	1	9
645.321	1	0
645.490	1	16
645.660	1	9
645.829	1	0
645.999	1	-4
646.168	1	6
646.338	1	7
646.507	1	-4
646.677	1	-5
646.846	1	2
647.016	1	12
647.185	1	4
647.355	1	11
647.524	1	3
647.694	1	-3
647.863	1	3
648.033	1	-1
648.202	1	-3
648.372	1	0
648.541	1	-2
648.711	1	5
648.880	1	0
649.050	1	-2
649.219	1	6
649.389	1	-4
649.558	1	4
649.728	1	6
649.897	1	-2
650.067	1	-1
650.236	1	-5
650.406	1	7
650.575	1	7
650.745	1	4
650.914	1	5
651.084	1	5
651.253	1	-4
651.423	1	-1
651.592	1	-12
651.762	1	-4
651.931	1	13
652.101	1	3
652.270	1	-7
652.440	1	7
652.609	1	9
652.778	1	-1
652.948	1	4
653.117	1	9
653.287	1	-5
653.456	1	-8
653.626	1	2
653.795	1	-8
653.965	1	-9
654.134	1	2
654.304	1	6
654.473	1	-11
654.643	1	2
654.812	1	3
654.982	1	0
655.151	1	12
655.320	1	-1
655.490	1	9
655.659	1	2
655.829	1	-9
655.998	1	-5
656.168	1	3
656.337	1	-1
656.507	1	-9
656.676	1	-14
656.846	1	3
657.015	1	-4
657.184	1	-3
657.354	1	10
657.523	1	4
657.693	1	-7
657.862	1	-14
658.032	1	5
658.201	1	10
658.371	1	-1
658.540	1	4
658.709	1	2
658.879	1	6
659.048	1	-1
659.218	1	0
659.387	1	5
659.557	1	-1
659.726	1	-4
659.895	1	3
660.065	1	13
660.234	1	2
660.404	1	3
660.573	1	2
660.743	1	9
660.912	1	-8
661.081	1	-16
661.251	1	7
661.420	1	14
661.590	1	-2
661.759	1	0
661.929	1	9
662.098	1	5
662.267	1	8
662.437	1	11
662.606	1	8
662.776	1	1
662.945	1	8
663.115	1	15
663.284	1	1
663.453	1	7
663.623	1	3
663.792	1	5
663.962	1	-5
664.131	1	-5
664.300	1	-11
664.470	1	5
664.639	1	3
664.809	1	6
664.978	1	-1
665.148	1	-5
665.317	1	-8
665.486	1	-2
665.656	1	13
665.825	1	10
665.995	1	-5
666.164	1	12
666.333	1	-1
666.503	1	-6
666.672	1	15
666.842	1	-4
667.011	1	-4
667.180	1	-1
667.350	1	2
667.519	1	-4
667.689	1	-4
667.858	1	7
668.027	1	-2
668.197	1	5
668.366	1	-6
668.536	1	-8
668.705	1	8
668.874	1	3
669.044	1	-4
669.213	1	8
669.382	1	4
669.552	1	2
669.721	1	-3
669.891	1	11
670.060	1	5
670.229	1	-8
670.399	1	-1
670.568	1	-6
670.738	1	-4
670.907	1	6
671.076	1	8
671.246	1	-2
671.415	1	9
671.584	1	3
671.754	1	-1
671.923	1	2
672.093	1	0
672.262	1	-5
672.431	1	15
672.601	1	11
672.770	1	-6
672.939	1	2
673.109	1	8
673.278	1	0
673.448	1	1
673.617	1	2
673.786	1	-1
