325.333	1	7
325.504	1	3
325.675	1	1
325.846	1	0
326.017	1	-3
326.188	1	3
326.359	1	0
326.531	1	16
326.702	1	18
326.873	1	2
327.044	1	8
327.215	1	2
327.386	1	8
327.557	1	11
327.728	1	5
327.899	1	0
328.070	1	7
328.241	1	10
328.412	1	-2
328.583	1	11
328.754	1	1
328.926	1	8
329.097	1	-7
329.268	1	-7
329.439	1	9
329.610	1	9
329.781	1	6
329.952	1	6
330.123	1	-2
330.294	1	3
330.465	1	7
330.636	1	11
330.807	1	9
330.978	1	2
331.149	1	1
331.320	1	14
331.492	1	0
331.663	1	6
331.834	1	-1
332.005	1	3
332.176	1	5
332.347	1	8
332.518	1	10
332.689	1	1
332.860	1	9
333.031	1	16
333.202	1	7
333.373	1	2
333.544	1	5
333.715	1	9
333.886	1	9
334.057	1	-5
334.228	1	2
334.399	1	4
334.570	1	-5
334.741	1	-3
334.912	1	0
335.084	1	-8
335.255	1	15
335.426	1	12
335.597	1	14
335.768	1	5
335.939	1	-3
336.110	1	5
336.281	1	6
336.452	1	11
336.623	1	-3
336.794	1	2
336.965	1	1
337.136	1	5
337.307	1	14
337.478	1	11
337.649	1	-2
337.820	1	-10
337.991	1	19
338.162	1	9
338.333	1	20
338.504	1	8
338.675	1	10
338.846	1	8
339.017	1	20
339.188	1	8
339.359	1	4
339.530	1	4
339.701	1	-4
339.872	1	4
340.043	1	-3
340.214	1	4
340.385	1	17
340.556	1	-1
340.727	1	3
340.898	1	5
341.069	1	-7
341.240	1	-4
341.411	1	14
341.582	1	8
341.753	1	0
341.924	1	10
342.095	1	8
342.266	1	-1
342.437	1	-3
342.608	1	2
342.779	1	6
342.950	1	6
343.121	1	12
343.292	1	6
343.463	1	4
343.634	1	1
343.805	1	6
343.976	1	-8
344.147	1	0
344.318	1	1
344.489	1	16
344.660	1	13
344.831	1	11
345.002	1	14
345.173	1	8
345.344	1	-9
345.515	1	-8
345.686	1	-3
345.857	1	4
346.028	1	-7
346.199	1	8
346.370	1	8
346.541	1	11
346.712	1	6
346.883	1	8
347.054	1	3
347.225	1	-4
347.396	1	2
347.567	1	6
347.738	1	5
347.909	1	12
348.080	1	19
348.251	1	0
348.422	1	4
348.593	1	13
348.764	1	6
348.935	1	5
349.106	1	11
349.277	1	11
349.448	1	8
349.619	1	9
349.790	1	21
349.961	1	5
350.132	1	11
350.303	1	5
350.474	1	2
350.645	1	9
350.816	1	7
350.987	1	10
351.157	1	9
351.328	1	5
351.499	1	12
351.670	1	11
351.841	1	6
352.012	1	-3
352.183	1	9
352.354	1	6
352.525	1	11
352.696	1	8
352.867	1	13
353.038	1	3
353.209	1	0
353.380	1	0
353.551	1	0
353.722	1	13
353.893	1	16
354.064	1	10
354.235	1	19
354.406	1	14
354.576	1	1
354.747	1	16
354.918	1	12
355.089	1	7
355.260	1	14
355.431	1	9
355.602	1	1
355.773	1	4
355.944	1	8
356.115	1	1
356.286	1	9
356.457	1	19
356.628	1	-1
356.799	1	6
356.970	1	7
357.141	1	9
357.311	1	4
357.482	1	6
357.653	1	5
357.824	1	14
357.995	1	11
358.166	1	1
358.337	1	3
358.508	1	-1
358.679	1	12
358.850	1	-4
359.021	1	14
359.192	1	5
359.363	1	3
359.533	1	1
359.704	1	14
359.875	1	-1
360.046	1	0
360.217	1	-4
360.388	1	3
360.559	1	12
360.730	1	7
360.901	1	10
361.072	1	13
361.243	1	10
361.414	1	15
361.584	1	15
361.755	1	7
361.926	1	1
362.097	1	6
362.268	1	18
362.439	1	7
362.610	1	1
362.781	1	7
362.952	1	-3
363.123	1	-2
363.293	1	6
363.464	1	16
363.635	1	15
363.806	1	18
363.977	1	12
364.148	1	15
364.319	1	-5
364.490	1	6
364.661	1	4
364.832	1	4
365.002	1	-2
365.173	1	5
365.344	1	4
365.515	1	11
365.686	1	-3
365.857	1	12
366.028	1	1
366.199	1	8
366.370	1	4
366.540	1	10
366.711	1	1
366.882	1	8
367.053	1	1
367.224	1	7
367.395	1	13
367.566	1	17
367.737	1	6
367.908	1	11
368.078	1	0
368.249	1	11
368.420	1	6
368.591	1	2
368.762	1	-3
368.933	1	15
369.104	1	4
369.274	1	14
369.445	1	13
369.616	1	1
369.787	1	10
369.958	1	21
370.129	1	5
370.300	1	10
370.471	1	4
370.641	1	8
370.812	1	10
370.983	1	7
371.154	1	6
371.325	1	3
371.496	1	0
371.667	1	24
371.837	1	8
372.008	1	8
372.179	1	8
372.350	1	17
372.521	1	9
372.692	1	2
372.863	1	7
373.033	1	18
373.204	1	12
373.375	1	4
373.546	1	9
373.717	1	8
373.888	1	17
374.059	1	7
374.229	1	17
374.400	1	13
374.571	1	13
374.742	1	7
374.913	1	6
375.084	1	18
375.254	1	11
375.425	1	7
375.596	1	7
375.767	1	1
375.938	1	9
376.109	1	3
376.279	1	25
376.450	1	2
376.621	1	9
376.792	1	6
376.963	1	6
377.134	1	2
377.304	1	17
377.475	1	4
377.646	1	9
377.817	1	10
377.988	1	8
378.159	1	20
378.329	1	13
378.500	1	5
378.671	1	5
378.842	1	13
379.013	1	13
379.184	1	14
379.354	1	19
379.525	1	5
379.696	1	20
379.867	1	-4
380.038	1	6
380.209	1	4
380.379	1	7
380.550	1	-1
380.721	1	17
380.892	1	20
381.063	1	17
381.233	1	17
381.404	1	10
381.575	1	13
381.746	1	12
381.917	1	11
382.087	1	12
382.258	1	14
382.429	1	17
382.600	1	10
382.771	1	4
382.941	1	10
383.112	1	9
383.283	1	21
383.454	1	13
383.625	1	9
383.795	1	7
383.966	1	17
384.137	1	8
384.308	1	12
384.479	1	14
384.649	1	23
384.820	1	14
384.991	1	5
385.162	1	11
385.333	1	4
385.503	1	18
385.674	1	14
385.845	1	12
386.016	1	14
386.187	1	3
386.357	1	8
386.528	1	8
386.699	1	4
386.870	1	6
387.041	1	10
387.211	1	2
387.382	1	9
387.553	1	12
387.724	1	5
387.894	1	22
388.065	1	20
388.236	1	20
388.407	1	22
388.578	1	13
388.748	1	24
388.919	1	19
389.090	1	16
389.261	1	20
389.431	1	17
389.602	1	-3
389.773	1	10
389.944	1	14
390.114	1	27
390.285	1	10
390.456	1	19
390.627	1	12
390.798	1	13
390.968	1	8
391.139	1	13
391.310	1	24
391.481	1	14
391.651	1	18
391.822	1	23
391.993	1	12
392.164	1	1
392.334	1	5
392.505	1	11
392.676	1	9
392.847	1	27
393.017	1	9
393.188	1	7
393.359	1	14
393.530	1	19
393.700	1	15
393.871	1	10
394.042	1	23
394.213	1	19
394.383	1	17
394.554	1	15
394.725	1	19
394.896	1	14
395.066	1	16
395.237	1	2
395.408	1	13
395.579	1	13
395.749	1	10
395.920	1	11
396.091	1	22
396.262	1	8
396.432	1	9
396.603	1	7
396.774	1	22
396.945	1	12
397.115	1	12
397.286	1	23
397.457	1	13
397.627	1	5
397.798	1	13
397.969	1	14
398.140	1	10
398.310	1	12
398.481	1	18
398.652	1	12
398.823	1	11
398.993	1	23
399.164	1	7
399.335	1	18
399.505	1	14
399.676	1	15
399.847	1	20
400.018	1	17
400.188	1	25
400.359	1	18
400.530	1	13
400.700	1	9
400.871	1	15
401.042	1	23
401.213	1	14
401.383	1	8
401.554	1	21
401.725	1	18
401.895	1	1
402.066	1	23
402.237	1	21
402.408	1	23
402.578	1	19
402.749	1	21
402.920	1	14
403.090	1	19
403.261	1	18
403.432	1	22
403.603	1	0
403.773	1	22
403.944	1	29
404.115	1	1
404.285	1	23
404.456	1	17
404.627	1	12
404.797	1	15
404.968	1	7
405.139	1	18
405.310	1	10
405.480	1	13
405.651	1	21
405.822	1	26
405.992	1	11
406.163	1	24
406.334	1	18
406.504	1	12
406.675	1	12
406.846	1	19
407.016	1	6
407.187	1	20
407.358	1	20
407.528	1	23
407.699	1	13
407.870	1	17
408.041	1	5
408.211	1	15
408.382	1	10
408.553	1	5
408.723	1	20
408.894	1	19
409.065	1	19
409.235	1	18
409.406	1	8
409.577	1	11
409.747	1	14
409.918	1	13
410.089	1	8
410.259	1	13
410.430	1	23
410.601	1	15
410.771	1	21
410.942	1	9
411.113	1	16
411.283	1	25
411.454	1	23
411.625	1	17
411.795	1	-2
411.966	1	19
412.137	1	16
412.307	1	23
412.478	1	20
412.649	1	8
412.819	1	5
412.990	1	22
413.161	1	21
413.331	1	10
413.502	1	4
413.672	1	12
413.843	1	27
414.014	1	27
414.184	1	18
414.355	1	13
414.526	1	20
414.696	1	20
414.867	1	16
415.038	1	11
415.208	1	21
415.379	1	23
415.550	1	18
415.720	1	17
415.891	1	23
416.062	1	19
416.232	1	18
416.403	1	15
416.573	1	16
416.744	1	11
416.915	1	22
417.085	1	12
417.256	1	19
417.427	1	23
417.597	1	17
417.768	1	16
417.939	1	24
418.109	1	9
418.280	1	20
418.450	1	35
418.621	1	19
418.792	1	9
418.962	1	10
419.133	1	23
419.304	1	13
419.474	1	7
419.645	1	6
419.815	1	14
419.986	1	8
420.157	1	24
420.327	1	15
420.498	1	5
420.669	1	23
420.839	1	17
421.010	1	21
421.180	1	8
421.351	1	27
421.522	1	28
421.692	1	19
421.863	1	13
422.033	1	27
422.204	1	17
422.375	1	23
422.545	1	21
422.716	1	7
422.886	1	28
423.057	1	5
423.228	1	21
423.398	1	28
423.569	1	25
423.740	1	10
423.910	1	18
424.081	1	15
424.251	1	9
424.422	1	24
424.593	1	15
424.763	1	10
424.934	1	28
425.104	1	14
425.275	1	21
425.445	1	20
425.616	1	17
425.787	1	18
425.957	1	4
426.128	1	26
426.298	1	17
426.469	1	8
426.640	1	14
426.810	1	26
426.981	1	23
427.151	1	9
427.322	1	-9
427.493	1	16
427.663	1	13
427.834	1	11
428.004	1	21
428.175	1	22
428.345	1	23
428.516	1	22
428.687	1	17
428.857	1	12
429.028	1	21
429.198	1	17
429.369	1	15
429.540	1	4
429.710	1	23
429.881	1	14
430.051	1	11
430.222	1	5
430.392	1	20
430.563	1	15
430.734	1	29
430.904	1	13
431.075	1	5
431.245	1	11
431.416	1	7
431.586	1	21
431.757	1	17
431.927	1	3
432.098	1	21
432.269	1	23
432.439	1	18
432.610	1	16
432.780	1	19
432.951	1	9
433.121	1	19
433.292	1	18
433.462	1	19
433.633	1	24
433.804	1	12
433.974	1	22
434.145	1	16
434.315	1	18
434.486	1	7
434.656	1	13
434.827	1	17
434.997	1	27
435.168	1	18
435.339	1	15
435.509	1	19
435.680	1	19
435.850	1	11
436.021	1	19
436.191	1	18
436.362	1	23
436.532	1	16
436.703	1	22
436.873	1	11
437.044	1	18
437.214	1	29
437.385	1	28
437.556	1	11
437.726	1	8
437.897	1	5
438.067	1	16
438.238	1	15
438.408	1	17
438.579	1	16
438.749	1	4
438.920	1	17
439.090	1	7
439.261	1	12
439.431	1	16
439.602	1	19
439.772	1	14
439.943	1	19
440.113	1	21
440.284	1	32
440.455	1	21
440.625	1	11
440.796	1	12
440.966	1	17
441.137	1	15
441.307	1	19
441.478	1	18
441.648	1	14
441.819	1	17
441.989	1	17
442.160	1	20
442.330	1	20
442.501	1	12
442.671	1	18
442.842	1	24
443.012	1	15
443.183	1	14
443.353	1	22
443.524	1	14
443.694	1	16
443.865	1	19
444.035	1	14
444.206	1	9
444.376	1	21
444.547	1	9
444.717	1	24
444.888	1	19
445.058	1	16
445.229	1	20
445.399	1	6
445.570	1	14
445.740	1	18
445.911	1	26
446.081	1	28
446.252	1	1
446.422	1	17
446.593	1	22
446.763	1	17
446.934	1	23
447.104	1	14
447.275	1	27
447.445	1	9
447.616	1	15
447.786	1	13
447.957	1	15
448.127	1	28
448.298	1	17
448.468	1	15
448.639	1	6
448.809	1	15
448.979	1	14
449.150	1	13
449.320	1	21
449.491	1	19
449.661	1	24
449.832	1	19
450.002	1	23
450.173	1	11
450.343	1	22
450.514	1	17
450.684	1	16
450.855	1	12
451.025	1	16
451.196	1	25
451.366	1	17
451.537	1	16
451.707	1	23
451.878	1	15
452.048	1	10
452.218	1	8
452.389	1	10
452.559	1	17
452.730	1	14
452.900	1	11
453.071	1	19
453.241	1	18
453.412	1	7
453.582	1	4
453.753	1	21
453.923	1	17
454.093	1	27
454.264	1	8
454.434	1	19
454.605	1	14
454.775	1	21
454.946	1	23
455.116	1	18
455.287	1	17
455.457	1	12
455.628	1	20
455.798	1	21
455.968	1	14
456.139	1	15
456.309	1	28
456.480	1	17
456.650	1	34
456.821	1	27
456.991	1	16
457.161	1	23
457.332	1	7
457.502	1	19
457.673	1	19
457.843	1	14
458.014	1	14
458.184	1	19
458.355	1	11
458.525	1	12
458.695	1	17
458.866	1	25
459.036	1	25
459.207	1	24
459.377	1	22
459.548	1	4
459.718	1	20
459.888	1	18
460.059	1	23
460.229	1	15
460.400	1	8
460.570	1	13
460.740	1	13
460.911	1	13
461.081	1	16
461.252	1	10
461.422	1	20
461.593	1	19
461.763	1	13
461.933	1	9
462.104	1	12
462.274	1	5
462.445	1	14
462.615	1	20
462.785	1	13
462.956	1	18
463.126	1	11
463.297	1	16
463.467	1	12
463.638	1	11
463.808	1	17
463.978	1	19
464.149	1	4
464.319	1	22
464.490	1	20
464.660	1	14
464.830	1	13
465.001	1	14
465.171	1	14
465.342	1	9
465.512	1	19
465.682	1	7
465.853	1	0
466.023	1	11
466.194	1	17
466.364	1	17
466.534	1	24
466.705	1	10
466.875	1	15
467.045	1	6
467.216	1	23
467.386	1	17
467.557	1	16
467.727	1	25
467.897	1	12
468.068	1	3
468.238	1	11
468.409	1	7
468.579	1	16
468.749	1	2
468.920	1	8
469.090	1	19
469.260	1	13
469.431	1	23
469.601	1	6
469.772	1	-1
469.942	1	14
470.112	1	18
470.283	1	16
470.453	1	20
470.623	1	13
470.794	1	8
470.964	1	9
471.135	1	17
471.305	1	9
471.475	1	10
471.646	1	6
471.816	1	7
471.986	1	24
472.157	1	17
472.327	1	12
472.497	1	30
472.668	1	9
472.838	1	1
473.009	1	19
473.179	1	17
473.349	1	17
473.520	1	13
473.690	1	17
473.860	1	10
474.031	1	18
474.201	1	19
474.371	1	24
474.542	1	16
474.712	1	3
474.882	1	6
475.053	1	16
475.223	1	0
475.394	1	8
475.564	1	4
475.734	1	15
475.905	1	10
476.075	1	13
476.245	1	13
476.416	1	9
476.586	1	18
476.756	1	1
476.927	1	7
477.097	1	6
477.267	1	13
477.438	1	11
477.608	1	2
477.778	1	7
477.949	1	14
478.119	1	16
478.289	1	8
478.460	1	8
478.630	1	25
478.800	1	17
478.971	1	8
479.141	1	13
479.311	1	13
479.482	1	15
479.652	1	20
479.822	1	13
479.993	1	7
480.163	1	11
480.333	1	8
480.504	1	9
480.674	1	19
480.844	1	10
481.015	1	13
481.185	1	6
481.355	1	13
481.525	1	17
481.696	1	13
481.866	1	21
482.036	1	11
482.207	1	10
482.377	1	17
482.547	1	5
482.718	1	10
482.888	1	19
483.058	1	11
483.229	1	12
483.399	1	18
483.569	1	16
483.740	1	9
483.910	1	2
484.080	1	4
484.250	1	1
484.421	1	12
484.591	1	5
484.761	1	14
484.932	1	13
485.102	1	13
485.272	1	7
485.443	1	18
485.613	1	17
485.783	1	10
485.953	1	9
486.124	1	6
486.294	1	16
486.464	1	8
486.635	1	18
486.805	1	10
486.975	1	10
487.146	1	-8
487.316	1	16
487.486	1	0
487.656	1	13
487.827	1	0
487.997	1	11
488.167	1	10
488.338	1	9
488.508	1	11
488.678	1	4
488.848	1	6
489.019	1	9
489.189	1	0
489.359	1	9
489.529	1	14
489.700	1	12
489.870	1	1
490.040	1	6
490.211	1	9
490.381	1	15
490.551	1	3
490.721	1	14
490.892	1	9
491.062	1	9
491.232	1	2
491.402	1	16
491.573	1	8
491.743	1	3
491.913	1	6
492.084	1	13
492.254	1	12
492.424	1	8
492.594	1	23
492.765	1	8
492.935	1	5
493.105	1	19
493.275	1	10
493.446	1	3
493.616	1	4
493.786	1	-1
493.956	1	7
494.127	1	10
494.297	1	8
494.467	1	6
494.637	1	12
494.808	1	6
494.978	1	3
495.148	1	16
495.318	1	9
495.489	1	-2
495.659	1	6
495.829	1	10
495.999	1	-2
496.170	1	5
496.340	1	17
496.510	1	16
496.680	1	5
496.851	1	7
497.021	1	-7
497.191	1	6
497.361	1	7
497.532	1	-4
497.702	1	11
497.872	1	8
498.042	1	22
498.213	1	10
498.383	1	5
498.553	1	5
498.723	1	7
498.894	1	2
499.064	1	0
499.234	1	7
499.404	1	-8
499.574	1	9
499.745	1	2
499.915	1	7
500.085	1	2
500.255	1	7
500.426	1	10
500.596	1	4
500.766	1	3
500.936	1	9
501.106	1	-1
501.277	1	12
501.447	1	10
501.617	1	8
501.787	1	7
501.958	1	12
502.128	1	0
502.298	1	11
502.468	1	16
502.638	1	-1
502.809	1	9
502.979	1	19
503.149	1	5
503.319	1	11
503.489	1	-2
503.660	1	1
503.830	1	8
504.000	1	10
504.170	1	10
504.340	1	7
504.511	1	14
504.681	1	4
504.851	1	3
505.021	1	9
505.192	1	4
505.362	1	-1
505.532	1	10
505.702	1	3
505.872	1	5
506.043	1	9
506.213	1	8
506.383	1	10
506.553	1	11
506.723	1	5
506.893	1	-4
507.064	1	6
507.234	1	3
507.404	1	9
507.574	1	11
507.744	1	17
507.915	1	4
508.085	1	10
508.255	1	12
508.425	1	5
508.595	1	6
508.766	1	3
508.936	1	5
509.106	1	-5
509.276	1	2
509.446	1	5
509.616	1	7
509.787	1	14
509.957	1	6
510.127	1	12
510.297	1	-1
510.467	1	-3
510.638	1	6
510.808	1	-4
510.978	1	-1
511.148	1	23
511.318	1	7
511.488	1	22
511.659	1	-2
511.829	1	11
511.999	1	3
512.169	1	7
512.339	1	11
512.509	1	2
512.680	1	-3
512.850	1	6
513.020	1	0
513.190	1	-1
513.360	1	0
513.530	1	8
513.700	1	11
513.871	1	14
514.041	1	4
514.211	1	14
514.381	1	9
514.551	1	3
514.721	1	6
514.892	1	3
515.062	1	1
515.232	1	4
515.402	1	15
515.572	1	4
515.742	1	6
515.912	1	4
516.083	1	12
516.253	1	13
516.423	1	4
516.593	1	2
516.763	1	1
516.933	1	-9
517.104	1	-3
517.274	1	6
517.444	1	5
517.614	1	3
517.784	1	12
517.954	1	19
518.124	1	5
518.294	1	8
518.465	1	-4
518.635	1	0
518.805	1	17
518.975	1	1
519.145	1	9
519.315	1	-3
519.485	1	-5
519.656	1	-3
519.826	1	6
519.996	1	3
520.166	1	9
520.336	1	3
520.506	1	-3
520.676	1	7
520.846	1	1
521.017	1	2
521.187	1	14
521.357	1	10
521.527	1	10
521.697	1	5
521.867	1	-3
522.037	1	-2
522.207	1	5
522.377	1	11
522.548	1	5
522.718	1	-2
522.888	1	15
523.058	1	0
523.228	1	10
523.398	1	4
523.568	1	7
523.738	1	3
523.909	1	12
524.079	1	8
524.249	1	1
524.419	1	5
524.589	1	3
524.759	1	10
524.929	1	2
525.099	1	0
525.269	1	12
525.439	1	-1
525.610	1	5
525.780	1	3
525.950	1	5
526.120	1	-5
526.290	1	13
526.460	1	1
526.630	1	10
526.800	1	12
526.970	1	11
527.140	1	6
527.311	1	4
527.481	1	10
527.651	1	6
527.821	1	1
527.991	1	10
528.161	1	12
528.331	1	8
528.501	1	1
528.671	1	1
528.841	1	11
529.011	1	0
529.181	1	7
529.352	1	11
529.522	1	0
529.692	1	0
529.862	1	12
530.032	1	8
530.202	1	9
530.372	1	3
530.542	1	1
530.712	1	-4
530.882	1	-6
531.052	1	4
531.222	1	-3
531.392	1	6
531.563	1	-4
531.733	1	1
531.903	1	12
532.073	1	7
532.243	1	-3
532.413	1	9
532.583	1	-5
532.753	1	0
532.923	1	6
533.093	1	10
533.263	1	-3
533.433	1	24
533.603	1	13
533.773	1	-5
533.943	1	1
534.113	1	7
534.284	1	1
534.454	1	-4
534.624	1	18
534.794	1	-1
534.964	1	0
535.134	1	10
535.304	1	8
535.474	1	-10
535.644	1	8
535.814	1	7
535.984	1	12
536.154	1	-1
536.324	1	7
536.494	1	7
536.664	1	4
536.834	1	6
537.004	1	8
537.174	1	-1
537.344	1	-3
537.514	1	6
537.685	1	6
537.855	1	-4
538.025	1	-9
538.195	1	8
538.365	1	-3
538.535	1	6
538.705	1	12
538.875	1	5
539.045	1	3
539.215	1	-6
539.385	1	-5
539.555	1	3
539.725	1	2
539.895	1	16
540.065	1	4
540.235	1	9
540.405	1	7
540.575	1	2
540.745	1	-3
540.915	1	4
541.085	1	-3
541.255	1	-6
541.425	1	10
541.595	1	2
541.765	1	20
541.935	1	1
542.105	1	4
542.275	1	7
542.445	1	6
542.615	1	-6
542.785	1	4
542.955	1	-4
543.125	1	-13
543.295	1	2
543.465	1	15
543.635	1	11
543.805	1	9
543.975	1	-2
544.145	1	1
544.315	1	-1
544.485	1	3
544.655	1	5
544.825	1	9
544.995	1	5
545.165	1	2
545.335	1	6
545.505	1	14
545.675	1	-7
545.845	1	7
546.015	1	10
546.185	1	9
546.355	1	5
546.525	1	10
546.695	1	9
546.865	1	5
547.035	1	8
547.205	1	5
547.375	1	4
547.545	1	15
547.715	1	4
547.885	1	11
548.055	1	-6
548.225	1	1
548.395	1	-3
548.565	1	14
548.735	1	7
548.905	1	-15
549.075	1	2
549.245	1	5
549.415	1	7
549.585	1	11
549.755	1	8
549.925	1	8
550.095	1	0
550.265	1	1
550.435	1	0
550.605	1	1
550.775	1	0
550.945	1	7
551.115	1	7
551.285	1	3
551.455	1	9
551.625	1	-4
551.795	1	-11
551.965	1	5
552.135	1	-1
552.305	1	-1
552.475	1	6
552.645	1	5
552.815	1	4
552.985	1	-6
553.155	1	4
553.325	1	6
553.495	1	6
553.665	1	12
553.835	1	-8
554.004	1	-8
554.174	1	4
554.344	1	-1
554.514	1	3
554.684	1	2
554.854	1	0
555.024	1	-3
555.194	1	2
555.364	1	9
555.534	1	3
555.704	1	6
555.874	1	-4
556.044	1	17
556.214	1	6
556.384	1	-5
556.554	1	4
556.724	1	11
556.894	1	-6
557.064	1	10
557.234	1	3
557.404	1	2
557.573	1	-7
557.743	1	7
557.913	1	-2
558.083	1	16
558.253	1	2
558.423	1	3
558.593	1	18
558.763	1	5
558.933	1	5
559.103	1	12
559.273	1	-2
559.443	1	2
559.613	1	1
559.783	1	10
559.953	1	11
560.122	1	2
560.292	1	2
560.462	1	11
560.632	1	3
560.802	1	2
560.972	1	8
561.142	1	7
561.312	1	-1
561.482	1	7
561.652	1	4
561.822	1	-4
561.992	1	-13
562.162	1	8
562.331	1	16
562.501	1	-5
562.671	1	16
562.841	1	7
563.011	1	-7
563.181	1	4
563.351	1	0
563.521	1	8
563.691	1	21
563.861	1	-6
564.031	1	-5
564.201	1	1
564.370	1	3
564.540	1	-3
564.710	1	-2
564.880	1	1
565.050	1	4
565.220	1	-8
565.390	1	1
565.560	1	-1
565.730	1	2
565.900	1	-3
566.069	1	-2
566.239	1	10
566.409	1	8
566.579	1	3
566.749	1	6
566.919	1	2
567.089	1	1
567.259	1	0
567.429	1	15
567.599	1	1
567.768	1	-3
567.938	1	-5
568.108	1	7
568.278	1	-1
568.448	1	9
568.618	1	13
568.788	1	-7
568.958	1	-8
569.128	1	-9
569.297	1	1
569.467	1	10
569.637	1	0
569.807	1	-5
569.977	1	5
570.147	1	0
570.317	1	8
570.487	1	5
570.656	1	9
570.826	1	2
570.996	1	0
571.166	1	-5
571.336	1	2
571.506	1	2
571.676	1	-10
571.846	1	-1
572.015	1	-1
572.185	1	5
572.355	1	7
572.525	1	6
572.695	1	3
572.865	1	9
573.035	1	-14
573.205	1	-3
573.374	1	7
573.544	1	2
573.714	1	5
573.884	1	6
574.054	1	-3
574.224	1	2
574.394	1	-3
574.563	1	9
574.733	1	5
574.903	1	-3
575.073	1	-2
575.243	1	0
575.413	1	-2
575.583	1	4
575.752	1	12
575.922	1	6
576.092	1	6
576.262	1	4
576.432	1	11
576.602	1	0
576.772	1	-1
576.941	1	0
577.111	1	-4
577.281	1	15
577.451	1	-2
577.621	1	0
577.791	1	2
577.960	1	1
578.130	1	6
578.300	1	4
578.470	1	2
578.640	1	-1
578.810	1	-3
578.979	1	5
579.149	1	1
579.319	1	5
579.489	1	3
579.659	1	1
579.829	1	7
579.998	1	3
580.168	1	-3
580.338	1	8
580.508	1	2
580.678	1	13
580.848	1	-4
581.017	1	4
581.187	1	3
581.357	1	0
581.527	1	-1
581.697	1	-7
581.867	1	6
582.036	1	8
582.206	1	-9
582.376	1	2
582.546	1	12
582.716	1	2
582.885	1	3
583.055	1	2
583.225	1	-8
583.395	1	2
583.565	1	2
583.735	1	4
583.904	1	0
584.074	1	1
584.244	1	10
584.414	1	1
584.584	1	5
584.753	1	0
584.923	1	9
585.093	1	0
585.263	1	-10
585.433	1	15
585.602	1	9
585.772	1	-1
585.942	1	0
586.112	1	-5
586.282	1	14
586.451	1	-2
586.621	1	-14
586.791	1	0
586.961	1	16
587.131	1	4
587.300	1	7
587.470	1	-3
587.640	1	4
587.810	1	-1
587.980	1	3
588.149	1	4
588.319	1	9
588.489	1	0
588.659	1	11
588.829	1	-8
588.998	1	2
589.168	1	3
589.338	1	2
589.508	1	3
589.677	1	-3
589.847	1	2
590.017	1	1
590.187	1	9
590.357	1	-6
590.526	1	11
590.696	1	-3
590.866	1	8
591.036	1	-12
591.205	1	2
591.375	1	12
591.545	1	1
591.715	1	-4
591.885	1	-10
592.054	1	5
592.224	1	8
592.394	1	-7
592.564	1	1
592.733	1	4
592.903	1	-4
593.073	1	2
593.243	1	5
593.412	1	-2
593.582	1	-2
593.752	1	4
593.922	1	5
594.091	1	-8
594.261	1	-8
594.431	1	1
594.601	1	-3
594.771	1	8
594.940	1	0
595.110	1	9
595.280	1	9
595.450	1	3
595.619	1	3
595.789	1	9
595.959	1	3
596.129	1	-10
596.298	1	8
596.468	1	17
596.638	1	-2
596.808	1	-2
596.977	1	2
597.147	1	3
597.317	1	5
597.487	1	-3
597.656	1	1
597.826	1	-11
597.996	1	3
598.166	1	12
598.335	1	-5
598.505	1	2
598.675	1	-1
598.844	1	2
599.014	1	-2
599.184	1	-3
599.354	1	5
599.523	1	14
599.693	1	13
599.863	1	9
600.033	1	-6
600.202	1	14
600.372	1	3
600.542	1	-2
600.712	1	12
600.881	1	2
601.051	1	3
601.221	1	1
601.390	1	15
601.560	1	10
601.730	1	0
601.900	1	6
602.069	1	-4
602.239	1	5
602.409	1	4
602.578	1	7
602.748	1	-11
602.918	1	-1
603.088	1	14
603.257	1	12
603.427	1	16
603.597	1	3
603.767	1	2
603.936	1	6
604.106	1	7
604.276	1	3
604.445	1	-3
604.615	1	-13
604.785	1	9
604.954	1	-2
605.124	1	5
605.294	1	12
605.464	1	0
605.633	1	17
605.803	1	3
605.973	1	9
606.142	1	6
606.312	1	2
606.482	1	2
606.652	1	13
606.821	1	0
606.991	1	0
607.161	1	6
607.330	1	7
607.500	1	10
607.670	1	4
607.839	1	4
608.009	1	11
608.179	1	-10
608.348	1	2
608.518	1	0
608.688	1	9
608.858	1	-2
609.027	1	-1
609.197	1	18
609.367	1	-2
609.536	1	18
609.706	1	-10
609.876	1	5
610.045	1	0
610.215	1	10
610.385	1	-1
610.554	1	4
610.724	1	15
610.894	1	7
611.063	1	1
611.233	1	-5
611.403	1	-3
611.572	1	1
611.742	1	-2
611.912	1	0
612.081	1	6
612.251	1	3
612.421	1	3
612.590	1	-5
612.760	1	19
612.930	1	4
613.099	1	9
613.269	1	-7
613.439	1	2
613.608	1	11
613.778	1	-4
613.948	1	8
614.117	1	-5
614.287	1	0
614.457	1	12
614.626	1	7
614.796	1	7
614.966	1	-6
615.135	1	3
615.305	1	8
615.475	1	0
615.644	1	3
615.814	1	5
615.984	1	7
616.153	1	6
616.323	1	-5
616.493	1	15
616.662	1	-1
616.832	1	-2
617.002	1	-3
617.171	1	8
617.341	1	0
617.511	1	0
617.680	1	-5
617.850	1	2
618.019	1	2
618.189	1	3
618.359	1	-2
618.528	1	-6
618.698	1	11
618.868	1	-9
619.037	1	2
619.207	1	3
619.377	1	1
619.546	1	-6
619.716	1	2
619.885	1	14
620.055	1	12
620.225	1	15
620.394	1	2
620.564	1	-2
620.734	1	3
620.903	1	8
621.073	1	2
621.242	1	5
621.412	1	9
621.582	1	0
621.751	1	7
621.921	1	9
622.091	1	-8
622.260	1	9
622.430	1	9
622.599	1	12
622.769	1	-7
622.939	1	-3
623.108	1	12
623.278	1	26
623.448	1	8
623.617	1	1
623.787	1	19
623.956	1	16
624.126	1	2
624.296	1	6
624.465	1	7
624.635	1	10
624.804	1	5
624.974	1	8
625.144	1	18
625.313	1	3
625.483	1	5
625.652	1	9
625.822	1	-2
625.992	1	3
626.161	1	-3
626.331	1	7
626.501	1	-3
626.670	1	4
626.840	1	6
627.009	1	5
627.179	1	-8
627.348	1	10
627.518	1	12
627.688	1	7
627.857	1	10
628.027	1	-11
628.196	1	-2
628.366	1	6
628.536	1	12
628.705	1	-2
628.875	1	11
629.044	1	5
629.214	1	-3
629.384	1	1
629.553	1	9
629.723	1	-4
629.892	1	-3
630.062	1	-8
630.232	1	6
630.401	1	6
630.571	1	11
630.740	1	7
630.910	1	-1
631.079	1	2
631.249	1	7
631.419	1	8
631.588	1	4
631.758	1	5
631.927	1	0
632.097	1	10
632.266	1	1
632.436	1	2
632.606	1	-3
632.775	1	13
632.945	1	-7
633.114	1	10
633.284	1	5
633.453	1	13
633.623	1	9
633.793	1	3
633.962	1	4
634.132	1	11
634.301	1	7
634.471	1	-6
634.640	1	0
634.810	1	12
634.979	1	9
635.149	1	5
635.319	1	7
635.488	1	-6
635.658	1	6
635.827	1	0
635.997	1	9
636.166	1	0
636.336	1	2
636.505	1	-1
636.675	1	-1
636.845	1	2
637.014	1	-4
637.184	1	6
637.353	1	9
637.523	1	-4
637.692	1	1
637.862	1	-3
638.031	1	-8
638.201	1	6
638.370	1	11
638.540	1	0
638.710	1	7
638.879	1	18
639.049	1	6
639.218	1	16
639.388	1	2
639.557	1	17
639.727	1	6
639.896	1	3
640.066	1	0
640.235	1	2
640.405	1	6
640.574	1	-1
640.744	1	-5
640.914	1	-2
641.083	1	4
641.253	1	-2
641.422	1	13
641.592	1	8
641.761	1	1
641.931	1	0
642.100	1	3
642.270	1	-7
642.439	1	-1
642.609	1	13
642.778	1	8
642.948	1	13
643.117	1	2
643.287	1	1
643.456	1	10
643.626	1	2
643.795	1	12
643.965	1	-4
644.134	1	-1
644.304	1	12
644.473	1	-2
644.643	1	3
644.812	1	1
644.982	1	-4
645.151	1	6
645.321	1	5
645.490	1	4
645.660	1	4
645.829	1	-1
645.999	1	3
646.168	1	5
646.338	1	8
646.507	1	5
646.677	1	-1
646.846	1	1
647.016	1	1
647.185	1	10
647.355	1	-1
647.524	1	0
647.694	1	1
647.863	1	16
648.033	1	2
648.202	1	6
648.372	1	-4
648.541	1	-2
648.711	1	3
648.880	1	1
649.050	1	4
649.219	1	10
649.389	1	1
649.558	1	6
649.728	1	18
649.897	1	-5
650.067	1	0
650.236	1	-12
650.406	1	8
650.575	1	14
650.745	1	-2
650.914	1	6
651.084	1	-2
651.253	1	4
651.423	1	3
651.592	1	1
651.762	1	3
651.931	1	11
652.101	1	9
652.270	1	3
652.440	1	14
652.609	1	10
652.778	1	11
652.948	1	13
653.117	1	6
653.287	1	-2
653.456	1	2
653.626	1	-1
653.795	1	6
653.965	1	-3
654.134	1	-6
654.304	1	9
654.473	1	0
654.643	1	6
654.812	1	1
654.982	1	4
655.151	1	2
655.320	1	13
655.490	1	0
655.659	1	10
655.829	1	0
655.998	1	4
656.168	1	-1
656.337	1	7
656.507	1	-1
656.676	1	2
656.846	1	3
657.015	1	0
657.184	1	-5
657.354	1	9
657.523	1	4
657.693	1	-3
657.862	1	-1
658.032	1	5
658.201	1	14
658.371	1	-3
658.540	1	1
658.709	1	-3
658.879	1	8
659.048	1	1
659.218	1	-1
659.387	1	8
659.557	1	-2
659.726	1	4
659.895	1	-8
660.065	1	15
660.234	1	4
660.404	1	8
660.573	1	9
660.743	1	1
660.912	1	-6
661.081	1	-5
661.251	1	10
661.420	1	7
661.590	1	6
661.759	1	8
661.929	1	4
662.098	1	6
662.267	1	10
662.437	1	12
662.606	1	5
662.776	1	-3
662.945	1	7
663.115	1	2
663.284	1	-1
663.453	1	8
663.623	1	16
663.792	1	2
663.962	1	-1
664.131	1	-2
664.300	1	-13
664.470	1	7
664.639	1	8
664.809	1	6
664.978	1	4
665.148	1	-3
665.317	1	2
665.486	1	10
665.656	1	11
665.825	1	6
665.995	1	4
666.164	1	13
666.333	1	0
666.503	1	5
666.672	1	10
666.842	1	6
667.011	1	-3
667.180	1	9
667.350	1	7
667.519	1	-5
667.689	1	5
667.858	1	13
668.027	1	0
668.197	1	18
668.366	1	3
668.536	1	3
668.705	1	9
668.874	1	7
669.044	1	5
669.213	1	10
669.382	1	14
669.552	1	10
669.721	1	4
669.891	1	-7
670.060	1	10
670.229	1	1
670.399	1	-3
670.568	1	-4
670.738	1	4
670.907	1	7
671.076	1	5
671.246	1	-5
671.415	1	12
671.584	1	6
671.754	1	-1
671.923	1	2
672.093	1	2
672.262	1	4
672.431	1	9
672.601	1	8
672.770	1	7
672.939	1	1
673.109	1	10
673.278	1	-3
673.448	1	7
673.617	1	11
673.786	1	10
