325.333	1	0
325.504	1	13
325.675	1	-4
325.846	1	-3
326.017	1	-7
326.188	1	5
326.359	1	7
326.531	1	8
326.702	1	-1
326.873	1	-9
327.044	1	7
327.215	1	-3
327.386	1	1
327.557	1	1
327.728	1	-1
327.899	1	2
328.070	1	10
328.241	1	-7
328.412	1	-1
328.583	1	9
328.754	1	-7
328.926	1	9
329.097	1	2
329.268	1	-6
329.439	1	-5
329.610	1	-4
329.781	1	1
329.952	1	6
330.123	1	5
330.294	1	-2
330.465	1	13
330.636	1	10
330.807	1	12
330.978	1	-4
331.149	1	2
331.320	1	2
331.492	1	10
331.663	1	-6
331.834	1	-4
332.005	1	-1
332.176	1	10
332.347	1	17
332.518	1	7
332.689	1	-2
332.860	1	0
333.031	1	6
333.202	1	19
333.373	1	-1
333.544	1	-4
333.715	1	3
333.886	1	5
334.057	1	0
334.228	1	-2
334.399	1	4
334.570	1	0
334.741	1	3
334.912	1	0
335.084	1	-4
335.255	1	7
335.426	1	7
335.597	1	4
335.768	1	-3
335.939	1	-5
336.110	1	5
336.281	1	1
336.452	1	-8
336.623	1	-5
336.794	1	0
336.965	1	-1
337.136	1	9
337.307	1	8
337.478	1	5
337.649	1	0
337.820	1	-5
337.991	1	7
338.162	1	12
338.333	1	4
338.504	1	9
338.675	1	5
338.846	1	13
339.017	1	18
339.188	1	11
339.359	1	7
339.530	1	4
339.701	1	-5
339.872	1	2
340.043	1	-5
340.214	1	-10
340.385	1	16
340.556	1	1
340.727	1	1
340.898	1	6
341.069	1	-12
341.240	1	-5
341.411	1	8
341.582	1	4
341.753	1	-5
341.924	1	4
342.095	1	7
342.266	1	6
342.437	1	-5
342.608	1	-3
342.779	1	15
342.950	1	5
343.121	1	-2
343.292	1	6
343.463	1	5
343.634	1	8
343.805	1	-2
343.976	1	-9
344.147	1	4
344.318	1	-2
344.489	1	6
344.660	1	2
344.831	1	6
345.002	1	14
345.173	1	8
345.344	1	-13
345.515	1	7
345.686	1	-5
345.857	1	-2
346.028	1	-4
346.199	1	6
346.370	1	-4
346.541	1	2
346.712	1	6
346.883	1	8
347.054	1	-4
347.225	1	0
347.396	1	-1
347.567	1	10
347.738	1	10
347.909	1	6
348.080	1	6
348.251	1	-2
348.422	1	-10
348.593	1	2
348.764	1	-5
348.935	1	-7
349.106	1	5
349.277	1	4
349.448	1	-3
349.619	1	7
349.790	1	14
349.961	1	7
350.132	1	3
350.303	1	-3
350.474	1	7
350.645	1	9
350.816	1	1
350.987	1	12
351.157	1	10
351.328	1	4
351.499	1	4
351.670	1	-3
351.841	1	1
352.012	1	4
352.183	1	7
352.354	1	5
352.525	1	6
352.696	1	9
352.867	1	7
353.038	1	-7
353.209	1	10
353.380	1	-11
353.551	1	-13
353.722	1	2
353.893	1	7
354.064	1	-1
354.235	1	5
354.406	1	8
354.576	1	-2
354.747	1	2
354.918	1	12
355.089	1	7
355.260	1	11
355.431	1	9
355.602	1	-2
355.773	1	2
355.944	1	9
356.115	1	-9
356.286	1	1
356.457	1	2
356.628	1	-3
356.799	1	4
356.970	1	8
357.141	1	12
357.311	1	-1
357.482	1	-4
357.653	1	4
357.824	1	8
357.995	1	7
358.166	1	2
358.337	1	1
358.508	1	-5
358.679	1	4
358.850	1	4
359.021	1	9
359.192	1	7
359.363	1	-3
359.533	1	-1
359.704	1	2
359.875	1	0
360.046	1	-3
360.217	1	-2
360.388	1	-8
360.559	1	3
360.730	1	1
360.901	1	7
361.072	1	6
361.243	1	5
361.414	1	2
361.584	1	11
361.755	1	4
361.926	1	1
362.097	1	-1
362.268	1	5
362.439	1	8
362.610	1	-4
362.781	1	11
362.952	1	-10
363.123	1	-3
363.293	1	0
363.464	1	3
363.635	1	15
363.806	1	10
363.977	1	0
364.148	1	12
364.319	1	-3
364.490	1	8
364.661	1	-3
364.832	1	5
365.002	1	1
365.173	1	0
365.344	1	3
365.515	1	6
365.686	1	1
365.857	1	9
366.028	1	1
366.199	1	6
366.370	1	-9
366.540	1	0
366.711	1	2
366.882	1	2
367.053	1	0
367.224	1	0
367.395	1	8
367.566	1	15
367.737	1	2
367.908	1	-1
368.078	1	1
368.249	1	4
368.420	1	-1
368.591	1	7
368.762	1	-15
368.933	1	13
369.104	1	0
369.274	1	8
369.445	1	11
369.616	1	-1
369.787	1	2
369.958	1	3
370.129	1	1
370.300	1	8
370.471	1	-2
370.641	1	-12
370.812	1	16
370.983	1	-3
371.154	1	2
371.325	1	5
371.496	1	6
371.667	1	13
371.837	1	2
372.008	1	13
372.179	1	8
372.350	1	6
372.521	1	0
372.692	1	-3
372.863	1	4
373.033	1	11
373.204	1	12
373.375	1	0
373.546	1	12
373.717	1	9
373.888	1	8
374.059	1	1
374.229	1	-2
374.400	1	4
374.571	1	3
374.742	1	-1
374.913	1	14
375.084	1	16
375.254	1	5
375.425	1	4
375.596	1	4
375.767	1	-6
375.938	1	1
376.109	1	0
376.279	1	8
376.450	1	8
376.621	1	13
376.792	1	8
376.963	1	2
377.134	1	-6
377.304	1	0
377.475	1	-9
377.646	1	-4
377.817	1	4
377.988	1	-2
378.159	1	9
378.329	1	15
378.500	1	5
378.671	1	0
378.842	1	8
379.013	1	13
379.184	1	7
379.354	1	11
379.525	1	-9
379.696	1	16
379.867	1	3
380.038	1	7
380.209	1	2
380.379	1	5
380.550	1	1
380.721	1	1
380.892	1	12
381.063	1	0
381.233	1	3
381.404	1	9
381.575	1	-1
381.746	1	14
381.917	1	0
382.087	1	4
382.258	1	1
382.429	1	4
382.600	1	8
382.771	1	2
382.941	1	6
383.112	1	-4
383.283	1	14
383.454	1	2
383.625	1	7
383.795	1	6
383.966	1	1
384.137	1	1
384.308	1	6
384.479	1	2
384.649	1	7
384.820	1	4
384.991	1	-4
385.162	1	7
385.333	1	1
385.503	1	11
385.674	1	11
385.845	1	7
386.016	1	8
386.187	1	-3
386.357	1	9
386.528	1	-8
386.699	1	-5
386.870	1	6
387.041	1	7
387.211	1	-3
387.382	1	-3
387.553	1	10
387.724	1	2
387.894	1	9
388.065	1	18
388.236	1	16
388.407	1	16
388.578	1	12
388.748	1	-6
388.919	1	19
389.090	1	13
389.261	1	10
389.431	1	18
389.602	1	4
389.773	1	-2
389.944	1	8
390.114	1	17
390.285	1	6
390.456	1	11
390.627	1	4
390.798	1	7
390.968	1	-3
391.139	1	5
391.310	1	24
391.481	1	0
391.651	1	10
391.822	1	12
391.993	1	3
392.164	1	-4
392.334	1	-1
392.505	1	7
392.676	1	16
392.847	1	11
393.017	1	9
393.188	1	11
393.359	1	1
393.530	1	4
393.700	1	9
393.871	1	2
394.042	1	9
394.213	1	12
394.383	1	17
394.554	1	10
394.725	1	4
394.896	1	12
395.066	1	7
395.237	1	4
395.408	1	-2
395.579	1	15
395.749	1	7
395.920	1	10
396.091	1	17
396.262	1	2
396.432	1	0
396.603	1	2
396.774	1	5
396.945	1	0
397.115	1	-6
397.286	1	18
397.457	1	0
397.627	1	-1
397.798	1	10
397.969	1	11
398.140	1	5
398.310	1	11
398.481	1	4
398.652	1	-1
398.823	1	0
398.993	1	22
399.164	1	6
399.335	1	2
399.505	1	14
399.676	1	10
399.847	1	9
400.018	1	12
400.188	1	7
400.359	1	17
400.530	1	0
400.700	1	-3
400.871	1	12
401.042	1	3
401.213	1	12
401.383	1	16
401.554	1	20
401.725	1	-2
401.895	1	0
402.066	1	16
402.237	1	14
402.408	1	11
402.578	1	0
402.749	1	15
402.920	1	9
403.090	1	16
403.261	1	10
403.432	1	17
403.603	1	-3
403.773	1	14
403.944	1	22
404.115	1	0
404.285	1	15
404.456	1	4
404.627	1	2
404.797	1	8
404.968	1	2
405.139	1	15
405.310	1	9
405.480	1	10
405.651	1	9
405.822	1	23
405.992	1	6
406.163	1	10
406.334	1	16
406.504	1	0
406.675	1	8
406.846	1	5
407.016	1	11
407.187	1	14
407.358	1	8
407.528	1	13
407.699	1	2
407.870	1	17
408.041	1	5
408.211	1	4
408.382	1	8
408.553	1	-11
408.723	1	13
408.894	1	13
409.065	1	22
409.235	1	-9
409.406	1	15
409.577	1	1
409.747	1	11
409.918	1	0
410.089	1	4
410.259	1	-1
410.430	1	10
410.601	1	14
410.771	1	8
410.942	1	13
411.113	1	17
411.283	1	14
411.454	1	7
411.625	1	5
411.795	1	-3
411.966	1	0
412.137	1	12
412.307	1	-3
412.478	1	9
412.649	1	9
412.819	1	2
412.990	1	9
413.161	1	5
413.331	1	6
413.502	1	-5
413.672	1	8
413.843	1	16
414.014	1	21
414.184	1	4
414.355	1	12
414.526	1	11
414.696	1	5
414.867	1	15
415.038	1	6
415.208	1	6
415.379	1	15
415.550	1	13
415.720	1	7
415.891	1	21
416.062	1	6
416.232	1	7
416.403	1	7
416.573	1	11
416.744	1	3
416.915	1	13
417.085	1	-1
417.256	1	9
417.427	1	9
417.597	1	5
417.768	1	10
417.939	1	8
418.109	1	-3
418.280	1	8
418.450	1	19
418.621	1	9
418.792	1	2
418.962	1	8
419.133	1	8
419.304	1	4
419.474	1	3
419.645	1	6
419.815	1	12
419.986	1	5
420.157	1	22
420.327	1	4
420.498	1	15
420.669	1	10
420.839	1	-1
421.010	1	8
421.180	1	6
421.351	1	18
421.522	1	11
421.692	1	15
421.863	1	6
422.033	1	19
422.204	1	5
422.375	1	11
422.545	1	9
422.716	1	-1
422.886	1	11
423.057	1	5
423.228	1	17
423.398	1	14
423.569	1	12
423.740	1	7
423.910	1	14
424.081	1	8
424.251	1	17
424.422	1	-4
424.593	1	7
424.763	1	5
424.934	1	18
425.104	1	16
425.275	1	8
425.445	1	19
425.616	1	15
425.787	1	0
425.957	1	5
426.128	1	12
426.298	1	6
426.469	1	0
426.640	1	8
426.810	1	9
426.981	1	8
427.151	1	11
427.322	1	-1
427.493	1	-5
427.663	1	-2
427.834	1	4
428.004	1	19
428.175	1	8
428.345	1	20
428.516	1	9
428.687	1	3
428.857	1	5
429.028	1	6
429.198	1	11
429.369	1	2
429.540	1	7
429.710	1	13
429.881	1	7
430.051	1	11
430.222	1	5
430.392	1	3
430.563	1	0
430.734	1	13
430.904	1	9
431.075	1	-5
431.245	1	8
431.416	1	3
431.586	1	16
431.757	1	7
431.927	1	9
432.098	1	7
432.269	1	14
432.439	1	11
432.610	1	15
432.780	1	1
432.951	1	8
433.121	1	11
433.292	1	15
433.462	1	9
433.633	1	19
433.804	1	-2
433.974	1	1
434.145	1	3
434.315	1	9
434.486	1	2
434.656	1	3
434.827	1	12
434.997	1	18
435.168	1	8
435.339	1	8
435.509	1	15
435.680	1	12
435.850	1	4
436.021	1	16
436.191	1	12
436.362	1	21
436.532	1	13
436.703	1	21
436.873	1	15
437.044	1	1
437.214	1	13
437.385	1	21
437.556	1	4
437.726	1	4
437.897	1	5
438.067	1	-1
438.238	1	20
438.408	1	13
438.579	1	14
438.749	1	4
438.920	1	1
439.090	1	5
439.261	1	7
439.431	1	8
439.602	1	-2
439.772	1	5
439.943	1	21
440.113	1	10
440.284	1	5
440.455	1	12
440.625	1	8
440.796	1	-3
440.966	1	6
441.137	1	8
441.307	1	3
441.478	1	12
441.648	1	3
441.819	1	15
441.989	1	2
442.160	1	5
442.330	1	12
442.501	1	5
442.671	1	4
442.842	1	10
443.012	1	4
443.183	1	7
443.353	1	12
443.524	1	2
443.694	1	15
443.865	1	14
444.035	1	7
444.206	1	6
444.376	1	13
444.547	1	7
444.717	1	18
444.888	1	8
445.058	1	8
445.229	1	0
445.399	1	9
445.570	1	6
445.740	1	12
445.911	1	11
446.081	1	18
446.252	1	-3
446.422	1	9
446.593	1	9
446.763	1	10
446.934	1	16
447.104	1	-5
447.275	1	13
447.445	1	1
447.616	1	8
447.786	1	5
447.957	1	1
448.127	1	20
448.298	1	6
448.468	1	7
448.639	1	-4
448.809	1	3
448.979	1	13
449.150	1	14
449.320	1	14
449.491	1	11
449.661	1	10
449.832	1	7
450.002	1	12
450.173	1	8
450.343	1	6
450.514	1	8
450.684	1	0
450.855	1	5
451.025	1	11
451.196	1	8
451.366	1	11
451.537	1	6
451.707	1	15
451.878	1	2
452.048	1	0
452.218	1	1
452.389	1	5
452.559	1	10
452.730	1	5
452.900	1	13
453.071	1	9
453.241	1	9
453.412	1	5
453.582	1	-3
453.753	1	12
453.923	1	8
454.093	1	21
454.264	1	0
454.434	1	6
454.605	1	10
454.775	1	9
454.946	1	6
455.116	1	3
455.287	1	9
455.457	1	-3
455.628	1	5
455.798	1	6
455.968	1	4
456.139	1	10
456.309	1	13
456.480	1	7
456.650	1	14
456.821	1	20
456.991	1	6
457.161	1	4
457.332	1	11
457.502	1	19
457.673	1	21
457.843	1	4
458.014	1	5
458.184	1	-2
458.355	1	2
458.525	1	15
458.695	1	4
458.866	1	16
459.036	1	6
459.207	1	9
459.377	1	13
459.548	1	-3
459.718	1	13
459.888	1	19
460.059	1	14
460.229	1	10
460.400	1	-2
460.570	1	11
460.740	1	5
460.911	1	10
461.081	1	8
461.252	1	9
461.422	1	2
461.593	1	14
461.763	1	9
461.933	1	5
462.104	1	19
462.274	1	0
462.445	1	5
462.615	1	12
462.785	1	3
462.956	1	6
463.126	1	2
463.297	1	13
463.467	1	6
463.638	1	10
463.808	1	17
463.978	1	9
464.149	1	4
464.319	1	15
464.490	1	7
464.660	1	9
464.830	1	11
465.001	1	6
465.171	1	4
465.342	1	1
465.512	1	3
465.682	1	3
465.853	1	6
466.023	1	5
466.194	1	10
466.364	1	5
466.534	1	6
466.705	1	-3
466.875	1	10
467.045	1	1
467.216	1	13
467.386	1	15
467.557	1	9
467.727	1	9
467.897	1	5
468.068	1	-2
468.238	1	11
468.409	1	0
468.579	1	6
468.749	1	1
468.920	1	3
469.090	1	10
469.260	1	8
469.431	1	15
469.601	1	3
469.772	1	-5
469.942	1	11
470.112	1	8
470.283	1	15
470.453	1	15
470.623	1	2
470.794	1	4
470.964	1	4
471.135	1	14
471.305	1	6
471.475	1	5
471.646	1	-2
471.816	1	-1
471.986	1	10
472.157	1	19
472.327	1	2
472.497	1	17
472.668	1	3
472.838	1	12
473.009	1	12
473.179	1	12
473.349	1	10
473.520	1	4
473.690	1	10
473.860	1	14
474.031	1	10
474.201	1	6
474.371	1	2
474.542	1	22
474.712	1	2
474.882	1	5
475.053	1	4
475.223	1	-9
475.394	1	6
475.564	1	5
475.734	1	6
475.905	1	6
476.075	1	6
476.245	1	3
476.416	1	1
476.586	1	10
476.756	1	9
476.927	1	-1
477.097	1	3
477.267	1	10
477.438	1	10
477.608	1	8
477.778	1	5
477.949	1	5
478.119	1	6
478.289	1	5
478.460	1	-8
478.630	1	16
478.800	1	10
478.971	1	7
479.141	1	-2
479.311	1	13
479.482	1	10
479.652	1	18
479.822	1	10
479.993	1	6
480.163	1	1
480.333	1	6
480.504	1	4
480.674	1	12
480.844	1	7
481.015	1	10
481.185	1	-8
481.355	1	12
481.525	1	9
481.696	1	-6
481.866	1	8
482.036	1	4
482.207	1	7
482.377	1	4
482.547	1	6
482.718	1	-5
482.888	1	9
483.058	1	-4
483.229	1	10
483.399	1	7
483.569	1	6
483.740	1	7
483.910	1	1
484.080	1	-3
484.250	1	-5
484.421	1	-1
484.591	1	11
484.761	1	14
484.932	1	0
485.102	1	3
485.272	1	-5
485.443	1	4
485.613	1	9
485.783	1	10
485.953	1	3
486.124	1	8
486.294	1	1
486.464	1	0
486.635	1	12
486.805	1	2
486.975	1	7
487.146	1	0
487.316	1	8
487.486	1	8
487.656	1	-4
487.827	1	-4
487.997	1	-1
488.167	1	12
488.338	1	0
488.508	1	6
488.678	1	6
488.848	1	4
489.019	1	2
489.189	1	-3
489.359	1	2
489.529	1	0
489.700	1	7
489.870	1	1
490.040	1	5
490.211	1	-9
490.381	1	7
490.551	1	0
490.721	1	8
490.892	1	3
491.062	1	-2
491.232	1	-3
491.402	1	7
491.573	1	3
491.743	1	10
491.913	1	-12
492.084	1	12
492.254	1	-1
492.424	1	8
492.594	1	15
492.765	1	9
492.935	1	-5
493.105	1	14
493.275	1	1
493.446	1	10
493.616	1	5
493.786	1	0
493.956	1	-1
494.127	1	13
494.297	1	-6
494.467	1	-1
494.637	1	9
494.808	1	8
494.978	1	0
495.148	1	4
495.318	1	15
495.489	1	3
495.659	1	1
495.829	1	0
495.999	1	1
496.170	1	-11
496.340	1	5
496.510	1	7
496.680	1	6
496.851	1	5
497.021	1	-6
497.191	1	-1
497.361	1	-3
497.532	1	-2
497.702	1	8
497.872	1	24
498.042	1	7
498.213	1	8
498.383	1	5
498.553	1	2
498.723	1	9
498.894	1	10
499.064	1	3
499.234	1	-2
499.404	1	-8
499.574	1	1
499.745	1	3
499.915	1	5
500.085	1	-4
500.255	1	4
500.426	1	9
500.596	1	2
500.766	1	7
500.936	1	7
501.106	1	1
501.277	1	4
501.447	1	6
501.617	1	5
501.787	1	14
501.958	1	2
502.128	1	-2
502.298	1	-6
502.468	1	9
502.638	1	5
502.809	1	2
502.979	1	18
503.149	1	0
503.319	1	-7
503.489	1	-2
503.660	1	-1
503.830	1	6
504.000	1	3
504.170	1	12
504.340	1	0
504.511	1	13
504.681	1	-3
504.851	1	7
505.021	1	9
505.192	1	-4
505.362	1	7
505.532	1	3
505.702	1	5
505.872	1	-1
506.043	1	12
506.213	1	3
506.383	1	5
506.553	1	9
506.723	1	-2
506.893	1	0
507.064	1	-2
507.234	1	-12
507.404	1	7
507.574	1	-5
507.744	1	10
507.915	1	8
508.085	1	6
508.255	1	4
508.425	1	6
508.595	1	-7
508.766	1	-5
508.936	1	5
509.106	1	6
509.276	1	5
509.446	1	3
509.616	1	3
509.787	1	4
509.957	1	6
510.127	1	4
510.297	1	-9
510.467	1	-9
510.638	1	3
510.808	1	5
510.978	1	2
511.148	1	21
511.318	1	6
511.488	1	14
511.659	1	-2
511.829	1	2
511.999	1	5
512.169	1	-4
512.339	1	5
512.509	1	7
512.680	1	1
512.850	1	4
513.020	1	-5
513.190	1	0
513.360	1	4
513.530	1	5
513.700	1	7
513.871	1	1
514.041	1	-2
514.211	1	3
514.381	1	13
514.551	1	3
514.721	1	-4
514.892	1	-6
515.062	1	-1
515.232	1	7
515.402	1	1
515.572	1	-11
515.742	1	6
515.912	1	1
516.083	1	8
516.253	1	-4
516.423	1	-2
516.593	1	6
516.763	1	-1
516.933	1	-17
517.104	1	-2
517.274	1	-1
517.444	1	-8
517.614	1	-6
517.784	1	4
517.954	1	11
518.124	1	-5
518.294	1	15
518.465	1	-3
518.635	1	3
518.805	1	24
518.975	1	-1
519.145	1	7
519.315	1	-7
519.485	1	-2
519.656	1	8
519.826	1	4
519.996	1	-3
520.166	1	7
520.336	1	-3
520.506	1	-5
520.676	1	5
520.846	1	-3
521.017	1	6
521.187	1	5
521.357	1	-3
521.527	1	-1
521.697	1	4
521.867	1	4
522.037	1	-16
522.207	1	8
522.377	1	-1
522.548	1	-6
522.718	1	-3
522.888	1	0
523.058	1	7
523.228	1	7
523.398	1	0
523.568	1	7
523.738	1	3
523.909	1	0
524.079	1	1
524.249	1	5
524.419	1	12
524.589	1	-2
524.759	1	3
524.929	1	-10
525.099	1	-6
525.269	1	3
525.439	1	-2
525.610	1	-7
525.780	1	1
525.950	1	8
526.120	1	-8
526.290	1	-1
526.460	1	6
526.630	1	2
526.800	1	5
526.970	1	8
527.140	1	2
527.311	1	-9
527.481	1	7
527.651	1	2
527.821	1	-6
527.991	1	-5
528.161	1	3
528.331	1	9
528.501	1	9
528.671	1	-5
528.841	1	13
529.011	1	-7
529.181	1	12
529.352	1	-7
529.522	1	-7
529.692	1	-3
529.862	1	9
530.032	1	3
530.202	1	7
530.372	1	-5
530.542	1	-6
530.712	1	-5
530.882	1	6
531.052	1	15
531.222	1	-2
531.392	1	0
531.563	1	1
531.733	1	6
531.903	1	8
532.073	1	2
532.243	1	0
532.413	1	0
532.583	1	-3
532.753	1	-6
532.923	1	2
533.093	1	3
533.263	1	-8
533.433	1	4
533.603	1	2
533.773	1	1
533.943	1	-5
534.113	1	2
534.284	1	-3
534.454	1	0
534.624	1	4
534.794	1	-6
534.964	1	-1
535.134	1	7
535.304	1	7
535.474	1	-1
535.644	1	-3
535.814	1	1
535.984	1	0
536.154	1	-6
536.324	1	11
536.494	1	3
536.664	1	9
536.834	1	0
537.004	1	5
537.174	1	2
537.344	1	13
537.514	1	-9
537.685	1	2
537.855	1	-1
538.025	1	-3
538.195	1	-1
538.365	1	3
538.535	1	0
538.705	1	11
538.875	1	4
539.045	1	-1
539.215	1	-4
539.385	1	-1
539.555	1	-5
539.725	1	3
539.895	1	4
540.065	1	2
540.235	1	1
540.405	1	9
540.575	1	-8
540.745	1	-3
540.915	1	2
541.085	1	-15
541.255	1	-4
541.425	1	8
541.595	1	7
541.765	1	8
541.935	1	-3
542.105	1	-1
542.275	1	4
542.445	1	-3
542.615	1	1
542.785	1	-5
542.955	1	-1
543.125	1	-9
543.295	1	-7
543.465	1	3
543.635	1	6
543.805	1	19
543.975	1	2
544.145	1	-3
544.315	1	-3
544.485	1	-8
544.655	1	16
544.825	1	-4
544.995	1	5
545.165	1	3
545.335	1	-11
545.505	1	8
545.675	1	-9
545.845	1	6
546.015	1	4
546.185	1	1
546.355	1	7
546.525	1	7
546.695	1	-5
546.865	1	6
547.035	1	4
547.205	1	1
547.375	1	13
547.545	1	8
547.715	1	15
547.885	1	6
548.055	1	5
548.225	1	7
548.395	1	-2
548.565	1	-6
548.735	1	1
548.905	1	-8
549.075	1	6
549.245	1	0
549.415	1	-8
549.585	1	10
549.755	1	8
549.925	1	-3
550.095	1	-4
550.265	1	-1
550.435	1	-15
550.605	1	-6
550.775	1	4
550.945	1	9
551.115	1	0
551.285	1	4
551.455	1	6
551.625	1	-3
551.795	1	0
551.965	1	2
552.135	1	2
552.305	1	-7
552.475	1	10
552.645	1	1
552.815	1	2
552.985	1	-1
553.155	1	-2
553.325	1	7
553.495	1	-1
553.665	1	10
553.835	1	3
554.004	1	-9
554.174	1	-4
554.344	1	-2
554.514	1	4
554.684	1	-7
554.854	1	5
555.024	1	0
555.194	1	15
555.364	1	-2
555.534	1	-4
555.704	1	5
555.874	1	-9
556.044	1	12
556.214	1	2
556.384	1	6
556.554	1	4
556.724	1	8
556.894	1	3
557.064	1	3
557.234	1	8
557.404	1	-8
557.573	1	-2
557.743	1	0
557.913	1	-10
558.083	1	9
558.253	1	-2
558.423	1	-4
558.593	1	2
558.763	1	2
558.933	1	3
559.103	1	-3
559.273	1	6
559.443	1	0
559.613	1	4
559.783	1	5
559.953	1	7
560.122	1	0
560.292	1	3
560.462	1	6
560.632	1	6
560.802	1	-3
560.972	1	-2
561.142	1	9
561.312	1	2
561.482	1	7
561.652	1	0
561.822	1	2
561.992	1	-5
562.162	1	14
562.331	1	10
562.501	1	-11
562.671	1	5
562.841	1	9
563.011	1	-8
563.181	1	-2
563.351	1	-3
563.521	1	8
563.691	1	13
563.861	1	0
564.031	1	0
564.201	1	-4
564.370	1	-4
564.540	1	-6
564.710	1	8
564.880	1	0
565.050	1	-1
565.220	1	-5
565.390	1	5
565.560	1	-4
565.730	1	-4
565.900	1	1
566.069	1	2
566.239	1	1
566.409	1	8
566.579	1	-10
566.749	1	1
566.919	1	-2
567.089	1	2
567.259	1	0
567.429	1	2
567.599	1	4
567.768	1	-2
567.938	1	-8
568.108	1	0
568.278	1	-5
568.448	1	5
568.618	1	3
568.788	1	-21
568.958	1	-5
569.128	1	-5
569.297	1	0
569.467	1	9
569.637	1	2
569.807	1	-1
569.977	1	4
570.147	1	-1
570.317	1	-6
570.487	1	3
570.656	1	3
570.826	1	-6
570.996	1	5
571.166	1	-6
571.336	1	3
571.506	1	-6
571.676	1	-10
571.846	1	-2
572.015	1	4
572.185	1	-7
572.355	1	-2
572.525	1	-8
572.695	1	10
572.865	1	8
573.035	1	0
573.205	1	-6
573.374	1	9
573.544	1	-5
573.714	1	1
573.884	1	5
574.054	1	-2
574.224	1	3
574.394	1	0
574.563	1	11
574.733	1	1
574.903	1	-3
575.073	1	2
575.243	1	5
575.413	1	-9
575.583	1	-1
575.752	1	4
575.922	1	1
576.092	1	3
576.262	1	2
576.432	1	14
576.602	1	-5
576.772	1	-4
576.941	1	3
577.111	1	-10
577.281	1	16
577.451	1	-6
577.621	1	-1
577.791	1	4
577.960	1	-7
578.130	1	5
578.300	1	6
578.470	1	-3
578.640	1	0
578.810	1	-3
578.979	1	-1
579.149	1	1
579.319	1	-6
579.489	1	0
579.659	1	5
579.829	1	7
579.998	1	0
580.168	1	-9
580.338	1	8
580.508	1	7
580.678	1	9
580.848	1	-5
581.017	1	0
581.187	1	-2
581.357	1	1
581.527	1	3
581.697	1	-10
581.867	1	3
582.036	1	4
582.206	1	2
582.376	1	3
582.546	1	15
582.716	1	4
582.885	1	0
583.055	1	-9
583.225	1	-4
583.395	1	6
583.565	1	-8
583.735	1	-5
583.904	1	1
584.074	1	-8
584.244	1	10
584.414	1	-4
584.584	1	-3
584.753	1	7
584.923	1	11
585.093	1	-3
585.263	1	2
585.433	1	18
585.602	1	6
585.772	1	4
585.942	1	4
586.112	1	0
586.282	1	6
586.451	1	-1
586.621	1	5
586.791	1	-1
586.961	1	-3
587.131	1	3
587.300	1	12
587.470	1	-3
587.640	1	2
587.810	1	-4
587.980	1	-11
588.149	1	6
588.319	1	1
588.489	1	-6
588.659	1	-2
588.829	1	-1
588.998	1	1
589.168	1	2
589.338	1	2
589.508	1	12
589.677	1	0
589.847	1	1
590.017	1	3
590.187	1	-7
590.357	1	-10
590.526	1	8
590.696	1	-7
590.866	1	-1
591.036	1	2
591.205	1	7
591.375	1	1
591.545	1	6
591.715	1	-3
591.885	1	-3
592.054	1	6
592.224	1	6
592.394	1	0
592.564	1	-3
592.733	1	3
592.903	1	2
593.073	1	-17
593.243	1	-4
593.412	1	-5
593.582	1	2
593.752	1	5
593.922	1	16
594.091	1	-10
594.261	1	-1
594.431	1	2
594.601	1	0
594.771	1	4
594.940	1	5
595.110	1	5
595.280	1	10
595.450	1	7
595.619	1	6
595.789	1	13
595.959	1	5
596.129	1	-10
596.298	1	8
596.468	1	-3
596.638	1	-5
596.808	1	-5
596.977	1	-3
597.147	1	4
597.317	1	7
597.487	1	-7
597.656	1	8
597.826	1	-4
597.996	1	2
598.166	1	4
598.335	1	-7
598.505	1	-8
598.675	1	3
598.844	1	9
599.014	1	-4
599.184	1	-4
599.354	1	-1
599.523	1	4
599.693	1	7
599.863	1	3
600.033	1	7
600.202	1	6
600.372	1	4
600.542	1	-1
600.712	1	6
600.881	1	8
601.051	1	12
601.221	1	14
601.390	1	2
601.560	1	0
601.730	1	10
601.900	1	18
602.069	1	-13
602.239	1	3
602.409	1	6
602.578	1	10
602.748	1	-5
602.918	1	10
603.088	1	11
603.257	1	-1
603.427	1	1
603.597	1	-1
603.767	1	1
603.936	1	7
604.106	1	1
604.276	1	3
604.445	1	-1
604.615	1	2
604.785	1	7
604.954	1	1
605.124	1	13
605.294	1	1
605.464	1	-1
605.633	1	9
605.803	1	8
605.973	1	6
606.142	1	7
606.312	1	3
606.482	1	-4
606.652	1	14
606.821	1	-2
606.991	1	4
607.161	1	3
607.330	1	8
607.500	1	7
607.670	1	2
607.839	1	0
608.009	1	7
608.179	1	-2
608.348	1	9
608.518	1	3
608.688	1	6
608.858	1	-5
609.027	1	-3
609.197	1	10
609.367	1	-5
609.536	1	12
609.706	1	1
609.876	1	-3
610.045	1	3
610.215	1	7
610.385	1	4
610.554	1	7
610.724	1	8
610.894	1	-2
611.063	1	2
611.233	1	-5
611.403	1	-3
611.572	1	11
611.742	1	-4
611.912	1	10
612.081	1	13
612.251	1	10
612.421	1	-1
612.590	1	-2
612.760	1	4
612.930	1	-9
613.099	1	-2
613.269	1	-6
613.439	1	-3
613.608	1	7
613.778	1	-11
613.948	1	3
614.117	1	6
614.287	1	3
614.457	1	6
614.626	1	6
614.796	1	-1
614.966	1	2
615.135	1	3
615.305	1	0
615.475	1	-1
615.644	1	5
615.814	1	5
615.984	1	4
616.153	1	7
616.323	1	-5
616.493	1	10
616.662	1	0
616.832	1	7
617.002	1	-1
617.171	1	-5
617.341	1	1
617.511	1	4
617.680	1	5
617.850	1	-4
618.019	1	3
618.189	1	0
618.359	1	2
618.528	1	-2
618.698	1	9
618.868	1	6
619.037	1	-2
619.207	1	16
619.377	1	-3
619.546	1	-12
619.716	1	4
619.885	1	5
620.055	1	8
620.225	1	10
620.394	1	7
620.564	1	-11
620.734	1	4
620.903	1	8
621.073	1	3
621.242	1	-3
621.412	1	6
621.582	1	-2
621.751	1	8
621.921	1	11
622.091	1	-1
622.260	1	-1
622.430	1	4
622.599	1	7
622.769	1	0
622.939	1	-4
623.108	1	6
623.278	1	13
623.448	1	10
623.617	1	1
623.787	1	11
623.956	1	13
624.126	1	3
624.296	1	5
624.465	1	6
624.635	1	3
624.804	1	4
624.974	1	-5
625.144	1	11
625.313	1	0
625.483	1	7
625.652	1	16
625.822	1	8
625.992	1	-1
626.161	1	-3
626.331	1	3
626.501	1	-4
626.670	1	0
626.840	1	0
627.009	1	5
627.179	1	-7
627.348	1	9
627.518	1	4
627.688	1	-2
627.857	1	-3
628.027	1	-1
628.196	1	-3
628.366	1	-6
628.536	1	5
628.705	1	5
628.875	1	5
629.044	1	5
629.214	1	-1
629.384	1	2
629.553	1	1
629.723	1	-8
629.892	1	0
630.062	1	-5
630.232	1	9
630.401	1	-2
630.571	1	6
630.740	1	1
630.910	1	8
631.079	1	-1
631.249	1	3
631.419	1	-3
631.588	1	2
631.758	1	-3
631.927	1	-1
632.097	1	4
632.266	1	-12
632.436	1	9
632.606	1	-2
632.775	1	8
632.945	1	-3
633.114	1	1
633.284	1	8
633.453	1	9
633.623	1	11
633.793	1	-8
633.962	1	-4
634.132	1	7
634.301	1	2
634.471	1	0
634.640	1	-6
634.810	1	6
634.979	1	9
635.149	1	1
635.319	1	4
635.488	1	-3
635.658	1	4
635.827	1	-1
635.997	1	5
636.166	1	9
636.336	1	4
636.505	1	-3
636.675	1	5
636.845	1	3
637.014	1	0
637.184	1	7
637.353	1	-1
637.523	1	4
637.692	1	-1
637.862	1	7
638.031	1	-2
638.201	1	-5
638.370	1	6
638.540	1	8
638.710	1	2
638.879	1	10
639.049	1	-6
639.218	1	9
639.388	1	7
639.557	1	10
639.727	1	11
639.896	1	4
640.066	1	8
640.235	1	-3
640.405	1	10
640.574	1	0
640.744	1	-5
640.914	1	-1
641.083	1	0
641.253	1	-1
641.422	1	1
641.592	1	-1
641.761	1	-2
641.931	1	-5
642.100	1	13
642.270	1	-7
642.439	1	4
642.609	1	12
642.778	1	-3
642.948	1	11
643.117	1	7
643.287	1	1
643.456	1	4
643.626	1	5
643.795	1	4
643.965	1	7
644.134	1	2
644.304	1	14
644.473	1	6
644.643	1	-3
644.812	1	9
644.982	1	4
645.151	1	15
645.321	1	9
645.490	1	3
645.660	1	2
645.829	1	-6
645.999	1	0
646.168	1	1
646.338	1	6
646.507	1	-2
646.677	1	4
646.846	1	3
647.016	1	-1
647.185	1	3
647.355	1	0
647.524	1	-2
647.694	1	0
647.863	1	-1
648.033	1	8
648.202	1	-3
648.372	1	-3
648.541	1	-6
648.711	1	1
648.880	1	7
649.050	1	3
649.219	1	5
649.389	1	-2
649.558	1	10
649.728	1	-7
649.897	1	-2
650.067	1	-2
650.236	1	-1
650.406	1	4
650.575	1	3
650.745	1	6
650.914	1	4
651.084	1	2
651.253	1	2
651.423	1	2
651.592	1	-8
651.762	1	-3
651.931	1	6
652.101	1	6
652.270	1	-10
652.440	1	4
652.609	1	5
652.778	1	-1
652.948	1	0
653.117	1	7
653.287	1	-5
653.456	1	1
653.626	1	-3
653.795	1	-9
653.965	1	-10
654.134	1	-10
654.304	1	9
654.473	1	-9
654.643	1	7
654.812	1	-6
654.982	1	2
655.151	1	8
655.320	1	7
655.490	1	-3
655.659	1	3
655.829	1	-2
655.998	1	-10
656.168	1	4
656.337	1	0
656.507	1	-5
656.676	1	4
656.846	1	0
657.015	1	3
657.184	1	-1
657.354	1	9
657.523	1	-5
657.693	1	-6
657.862	1	-9
658.032	1	9
658.201	1	5
658.371	1	-4
658.540	1	-4
658.709	1	-1
658.879	1	9
659.048	1	-1
659.218	1	-12
659.387	1	0
659.557	1	2
659.726	1	-3
659.895	1	0
660.065	1	20
660.234	1	1
660.404	1	6
660.573	1	7
660.743	1	1
660.912	1	-9
661.081	1	-5
661.251	1	7
661.420	1	15
661.590	1	-1
661.759	1	6
661.929	1	8
662.098	1	3
662.267	1	10
662.437	1	6
662.606	1	7
662.776	1	-9
662.945	1	3
663.115	1	9
663.284	1	-3
663.453	1	6
663.623	1	9
663.792	1	15
663.962	1	7
664.131	1	5
664.300	1	-15
664.470	1	1
664.639	1	4
664.809	1	-1
664.978	1	0
665.148	1	-3
665.317	1	0
665.486	1	5
665.656	1	-3
665.825	1	9
665.995	1	-7
666.164	1	3
666.333	1	-2
666.503	1	1
666.672	1	3
666.842	1	3
667.011	1	-5
667.180	1	4
667.350	1	10
667.519	1	12
667.689	1	7
667.858	1	1
668.027	1	2
668.197	1	6
668.366	1	-2
668.536	1	-5
668.705	1	-11
668.874	1	2
669.044	1	6
669.213	1	3
669.382	1	11
669.552	1	8
669.721	1	2
669.891	1	-5
670.060	1	-1
670.229	1	-5
670.399	1	0
670.568	1	-2
670.738	1	1
670.907	1	7
671.076	1	-3
671.246	1	-10
671.415	1	7
671.584	1	-6
671.754	1	-6
671.923	1	-1
672.093	1	1
672.262	1	-5
672.431	1	2
672.601	1	6
672.770	1	-4
672.939	1	-9
673.109	1	11
673.278	1	3
673.448	1	0
673.617	1	4
673.786	1	1
