325.333	1	5
325.504	1	9
325.675	1	1
325.846	1	-4
326.017	1	1
326.188	1	6
326.359	1	10
326.531	1	10
326.702	1	4
326.873	1	3
327.044	1	8
327.215	1	-8
327.386	1	5
327.557	1	5
327.728	1	1
327.899	1	-3
328.070	1	6
328.241	1	0
328.412	1	-6
328.583	1	14
328.754	1	-6
328.926	1	13
329.097	1	-1
329.268	1	-1
329.439	1	0
329.610	1	-2
329.781	1	5
329.952	1	1
330.123	1	10
330.294	1	1
330.465	1	9
330.636	1	19
330.807	1	-1
330.978	1	5
331.149	1	8
331.320	1	1
331.492	1	-1
331.663	1	0
331.834	1	-9
332.005	1	9
332.176	1	13
332.347	1	7
332.518	1	6
332.689	1	-1
332.860	1	6
333.031	1	12
333.202	1	6
333.373	1	0
333.544	1	3
333.715	1	7
333.886	1	3
334.057	1	2
334.228	1	0
334.399	1	8
334.570	1	-1
334.741	1	3
334.912	1	1
335.084	1	-4
335.255	1	9
335.426	1	8
335.597	1	-1
335.768	1	-7
335.939	1	-9
336.110	1	11
336.281	1	8
336.452	1	12
336.623	1	8
336.794	1	6
336.965	1	-6
337.136	1	12
337.307	1	13
337.478	1	1
337.649	1	-12
337.820	1	-5
337.991	1	6
338.162	1	2
338.333	1	3
338.504	1	3
338.675	1	5
338.846	1	6
339.017	1	17
339.188	1	10
339.359	1	15
339.530	1	2
339.701	1	-6
339.872	1	-2
340.043	1	3
340.214	1	-7
340.385	1	9
340.556	1	2
340.727	1	4
340.898	1	8
341.069	1	-19
341.240	1	4
341.411	1	9
341.582	1	11
341.753	1	-7
341.924	1	12
342.095	1	9
342.266	1	-7
342.437	1	3
342.608	1	7
342.779	1	8
342.950	1	1
343.121	1	1
343.292	1	9
343.463	1	-3
343.634	1	13
343.805	1	6
343.976	1	-9
344.147	1	0
344.318	1	-1
344.489	1	15
344.660	1	13
344.831	1	10
345.002	1	7
345.173	1	12
345.344	1	-4
345.515	1	4
345.686	1	-7
345.857	1	-1
346.028	1	-1
346.199	1	14
346.370	1	1
346.541	1	3
346.712	1	9
346.883	1	12
347.054	1	0
347.225	1	-6
347.396	1	4
347.567	1	3
347.738	1	5
347.909	1	9
348.080	1	12
348.251	1	-6
348.422	1	5
348.593	1	14
348.764	1	-4
348.935	1	-2
349.106	1	1
349.277	1	9
349.448	1	3
349.619	1	0
349.790	1	10
349.961	1	10
350.132	1	4
350.303	1	-1
350.474	1	-1
350.645	1	12
350.816	1	-1
350.987	1	14
351.157	1	13
351.328	1	4
351.499	1	11
351.670	1	-8
351.841	1	-4
352.012	1	0
352.183	1	4
352.354	1	9
352.525	1	12
352.696	1	9
352.867	1	3
353.038	1	-9
353.209	1	-1
353.380	1	4
353.551	1	-7
353.722	1	4
353.893	1	12
354.064	1	-4
354.235	1	14
354.406	1	11
354.576	1	0
354.747	1	14
354.918	1	18
355.089	1	11
355.260	1	9
355.431	1	3
355.602	1	5
355.773	1	-1
355.944	1	9
356.115	1	-1
356.286	1	11
356.457	1	14
356.628	1	5
356.799	1	3
356.970	1	11
357.141	1	10
357.311	1	5
357.482	1	2
357.653	1	0
357.824	1	6
357.995	1	15
358.166	1	10
358.337	1	-1
358.508	1	6
358.679	1	5
358.850	1	5
359.021	1	10
359.192	1	10
359.363	1	-7
359.533	1	2
359.704	1	4
359.875	1	3
360.046	1	3
360.217	1	1
360.388	1	1
360.559	1	11
360.730	1	3
360.901	1	0
361.072	1	10
361.243	1	9
361.414	1	11
361.584	1	11
361.755	1	2
361.926	1	5
362.097	1	-1
362.268	1	9
362.439	1	5
362.610	1	6
362.781	1	6
362.952	1	7
363.123	1	0
363.293	1	1
363.464	1	5
363.635	1	7
363.806	1	14
363.977	1	12
364.148	1	7
364.319	1	-1
364.490	1	5
364.661	1	11
364.832	1	10
365.002	1	3
365.173	1	-5
365.344	1	9
365.515	1	2
365.686	1	2
365.857	1	3
366.028	1	3
366.199	1	3
366.370	1	2
366.540	1	-7
366.711	1	16
366.882	1	7
367.053	1	2
367.224	1	5
367.395	1	10
367.566	1	17
367.737	1	0
367.908	1	-2
368.078	1	1
368.249	1	6
368.420	1	9
368.591	1	17
368.762	1	-4
368.933	1	8
369.104	1	3
369.274	1	6
369.445	1	17
369.616	1	-4
369.787	1	-6
369.958	1	12
370.129	1	2
370.300	1	6
370.471	1	3
370.641	1	6
370.812	1	10
370.983	1	-5
371.154	1	9
371.325	1	8
371.496	1	1
371.667	1	11
371.837	1	15
372.008	1	11
372.179	1	0
372.350	1	10
372.521	1	-4
372.692	1	5
372.863	1	3
373.033	1	9
373.204	1	20
373.375	1	-1
373.546	1	10
373.717	1	9
373.888	1	11
374.059	1	-1
374.229	1	2
374.400	1	9
374.571	1	9
374.742	1	-3
374.913	1	12
375.084	1	13
375.254	1	19
375.425	1	10
375.596	1	1
375.767	1	4
375.938	1	-4
376.109	1	4
376.279	1	8
376.450	1	7
376.621	1	0
376.792	1	7
376.963	1	1
377.134	1	-3
377.304	1	10
377.475	1	8
377.646	1	6
377.817	1	0
377.988	1	5
378.159	1	4
378.329	1	15
378.500	1	-4
378.671	1	5
378.842	1	2
379.013	1	13
379.184	1	17
379.354	1	14
379.525	1	-6
379.696	1	22
379.867	1	-7
380.038	1	4
380.209	1	2
380.379	1	15
380.550	1	18
380.721	1	7
380.892	1	21
381.063	1	3
381.233	1	12
381.404	1	7
381.575	1	5
381.746	1	3
381.917	1	4
382.087	1	9
382.258	1	20
382.429	1	6
382.600	1	15
382.771	1	4
382.941	1	8
383.112	1	-2
383.283	1	16
383.454	1	4
383.625	1	3
383.795	1	3
383.966	1	8
384.137	1	17
384.308	1	22
384.479	1	14
384.649	1	20
384.820	1	16
384.991	1	-4
385.162	1	8
385.333	1	8
385.503	1	17
385.674	1	16
385.845	1	12
386.016	1	8
386.187	1	4
386.357	1	-4
386.528	1	5
386.699	1	6
386.870	1	12
387.041	1	12
387.211	1	8
387.382	1	-5
387.553	1	8
387.724	1	8
387.894	1	19
388.065	1	15
388.236	1	8
388.407	1	17
388.578	1	20
388.748	1	7
388.919	1	14
389.090	1	14
389.261	1	16
389.431	1	17
389.602	1	6
389.773	1	6
389.944	1	9
390.114	1	14
390.285	1	24
390.456	1	8
390.627	1	8
390.798	1	9
390.968	1	6
391.139	1	13
391.310	1	13
391.481	1	3
391.651	1	16
391.822	1	15
391.993	1	3
392.164	1	0
392.334	1	0
392.505	1	4
392.676	1	8
392.847	1	23
393.017	1	12
393.188	1	-7
393.359	1	15
393.530	1	12
393.700	1	10
393.871	1	17
394.042	1	22
394.213	1	20
394.383	1	21
394.554	1	11
394.725	1	14
394.896	1	15
395.066	1	9
395.237	1	1
395.408	1	-2
395.579	1	19
395.749	1	13
395.920	1	15
396.091	1	22
396.262	1	5
396.432	1	20
396.603	1	16
396.774	1	12
396.945	1	8
397.115	1	2
397.286	1	19
397.457	1	2
397.627	1	9
397.798	1	17
397.969	1	10
398.140	1	3
398.310	1	15
398.481	1	15
398.652	1	6
398.823	1	9
398.993	1	21
399.164	1	12
399.335	1	-1
399.505	1	24
399.676	1	4
399.847	1	26
400.018	1	0
400.188	1	14
400.359	1	18
400.530	1	12
400.700	1	8
400.871	1	22
401.042	1	15
401.213	1	16
401.383	1	8
401.554	1	19
401.725	1	5
401.895	1	5
402.066	1	14
402.237	1	27
402.408	1	13
402.578	1	11
402.749	1	18
402.920	1	22
403.090	1	24
403.261	1	16
403.432	1	8
403.603	1	0
403.773	1	14
403.944	1	24
404.115	1	3
404.285	1	19
404.456	1	13
404.627	1	6
404.797	1	16
404.968	1	1
405.139	1	18
405.310	1	3
405.480	1	14
405.651	1	22
405.822	1	24
405.992	1	5
406.163	1	23
406.334	1	12
406.504	1	8
406.675	1	11
406.846	1	9
407.016	1	13
407.187	1	-1
407.358	1	18
407.528	1	13
407.699	1	13
407.870	1	16
408.041	1	6
408.211	1	10
408.382	1	6
408.553	1	-2
408.723	1	15
408.894	1	18
409.065	1	26
409.235	1	15
409.406	1	10
409.577	1	15
409.747	1	21
409.918	1	5
410.089	1	9
410.259	1	5
410.430	1	9
410.601	1	5
410.771	1	16
410.942	1	-1
411.113	1	21
411.283	1	16
411.454	1	14
411.625	1	15
411.795	1	2
411.966	1	4
412.137	1	14
412.307	1	5
412.478	1	20
412.649	1	8
412.819	1	4
412.990	1	12
413.161	1	15
413.331	1	12
413.502	1	3
413.672	1	19
413.843	1	12
414.014	1	27
414.184	1	6
414.355	1	19
414.526	1	25
414.696	1	15
414.867	1	10
415.038	1	4
415.208	1	7
415.379	1	17
415.550	1	12
415.720	1	4
415.891	1	21
416.062	1	16
416.232	1	13
416.403	1	16
416.573	1	16
416.744	1	5
416.915	1	16
417.085	1	7
417.256	1	16
417.427	1	21
417.597	1	8
417.768	1	18
417.939	1	18
418.109	1	5
418.280	1	16
418.450	1	26
418.621	1	13
418.792	1	-3
418.962	1	11
419.133	1	11
419.304	1	10
419.474	1	2
419.645	1	10
419.815	1	13
419.986	1	15
420.157	1	13
420.327	1	10
420.498	1	2
420.669	1	16
420.839	1	8
421.010	1	25
421.180	1	-4
421.351	1	17
421.522	1	18
421.692	1	12
421.863	1	8
422.033	1	16
422.204	1	16
422.375	1	8
422.545	1	20
422.716	1	14
422.886	1	18
423.057	1	10
423.228	1	13
423.398	1	11
423.569	1	16
423.740	1	3
423.910	1	21
424.081	1	17
424.251	1	13
424.422	1	10
424.593	1	8
424.763	1	14
424.934	1	14
425.104	1	14
425.275	1	14
425.445	1	18
425.616	1	17
425.787	1	16
425.957	1	10
426.128	1	27
426.298	1	12
426.469	1	1
426.640	1	13
426.810	1	17
426.981	1	10
427.151	1	10
427.322	1	7
427.493	1	10
427.663	1	9
427.834	1	15
428.004	1	15
428.175	1	14
428.345	1	17
428.516	1	15
428.687	1	2
428.857	1	11
429.028	1	17
429.198	1	9
429.369	1	11
429.540	1	10
429.710	1	17
429.881	1	19
430.051	1	6
430.222	1	10
430.392	1	19
430.563	1	18
430.734	1	27
430.904	1	14
431.075	1	1
431.245	1	18
431.416	1	-1
431.586	1	9
431.757	1	13
431.927	1	-1
432.098	1	21
432.269	1	22
432.439	1	8
432.610	1	23
432.780	1	20
432.951	1	12
433.121	1	18
433.292	1	16
433.462	1	14
433.633	1	11
433.804	1	7
433.974	1	9
434.145	1	16
434.315	1	25
434.486	1	-5
434.656	1	13
434.827	1	13
434.997	1	23
435.168	1	18
435.339	1	10
435.509	1	6
435.680	1	8
435.850	1	18
436.021	1	18
436.191	1	22
436.362	1	15
436.532	1	17
436.703	1	21
436.873	1	17
437.044	1	13
437.214	1	22
437.385	1	20
437.556	1	11
437.726	1	4
437.897	1	9
438.067	1	12
438.238	1	22
438.408	1	14
438.579	1	21
438.749	1	1
438.920	1	6
439.090	1	10
439.261	1	8
439.431	1	16
439.602	1	13
439.772	1	8
439.943	1	22
440.113	1	9
440.284	1	8
440.455	1	17
440.625	1	16
440.796	1	2
440.966	1	8
441.137	1	8
441.307	1	16
441.478	1	14
441.648	1	14
441.819	1	10
441.989	1	-1
442.160	1	20
442.330	1	15
442.501	1	16
442.671	1	12
442.842	1	10
443.012	1	9
443.183	1	22
443.353	1	13
443.524	1	20
443.694	1	25
443.865	1	20
444.035	1	15
444.206	1	4
444.376	1	11
444.547	1	9
444.717	1	15
444.888	1	13
445.058	1	10
445.229	1	13
445.399	1	12
445.570	1	10
445.740	1	7
445.911	1	24
446.081	1	18
446.252	1	0
446.422	1	17
446.593	1	10
446.763	1	8
446.934	1	20
447.104	1	2
447.275	1	18
447.445	1	7
447.616	1	9
447.786	1	2
447.957	1	11
448.127	1	27
448.298	1	23
448.468	1	13
448.639	1	9
448.809	1	12
448.979	1	17
449.150	1	16
449.320	1	18
449.491	1	23
449.661	1	12
449.832	1	18
450.002	1	11
450.173	1	14
450.343	1	14
450.514	1	12
450.684	1	18
450.855	1	9
451.025	1	23
451.196	1	21
451.366	1	2
451.537	1	10
451.707	1	23
451.878	1	14
452.048	1	5
452.218	1	5
452.389	1	7
452.559	1	13
452.730	1	16
452.900	1	20
453.071	1	9
453.241	1	11
453.412	1	1
453.582	1	1
453.753	1	15
453.923	1	12
454.093	1	24
454.264	1	2
454.434	1	14
454.605	1	23
454.775	1	9
454.946	1	14
455.116	1	8
455.287	1	8
455.457	1	8
455.628	1	3
455.798	1	25
455.968	1	18
456.139	1	15
456.309	1	21
456.480	1	14
456.650	1	23
456.821	1	20
456.991	1	4
457.161	1	18
457.332	1	3
457.502	1	19
457.673	1	17
457.843	1	22
458.014	1	18
458.184	1	12
458.355	1	5
458.525	1	20
458.695	1	7
458.866	1	35
459.036	1	12
459.207	1	19
459.377	1	10
459.548	1	-5
459.718	1	7
459.888	1	17
460.059	1	14
460.229	1	16
460.400	1	4
460.570	1	16
460.740	1	7
460.911	1	18
461.081	1	16
461.252	1	7
461.422	1	22
461.593	1	18
461.763	1	8
461.933	1	14
462.104	1	11
462.274	1	2
462.445	1	7
462.615	1	15
462.785	1	12
462.956	1	18
463.126	1	15
463.297	1	17
463.467	1	18
463.638	1	18
463.808	1	21
463.978	1	17
464.149	1	1
464.319	1	14
464.490	1	6
464.660	1	16
464.830	1	1
465.001	1	14
465.171	1	9
465.342	1	5
465.512	1	5
465.682	1	9
465.853	1	1
466.023	1	5
466.194	1	7
466.364	1	20
466.534	1	15
466.705	1	9
466.875	1	15
467.045	1	9
467.216	1	15
467.386	1	12
467.557	1	17
467.727	1	18
467.897	1	6
468.068	1	3
468.238	1	10
468.409	1	6
468.579	1	19
468.749	1	3
468.920	1	3
469.090	1	23
469.260	1	10
469.431	1	16
469.601	1	4
469.772	1	2
469.942	1	3
470.112	1	14
470.283	1	19
470.453	1	12
470.623	1	10
470.794	1	5
470.964	1	12
471.135	1	10
471.305	1	16
471.475	1	19
471.646	1	14
471.816	1	1
471.986	1	21
472.157	1	17
472.327	1	7
472.497	1	19
472.668	1	5
472.838	1	14
473.009	1	14
473.179	1	11
473.349	1	16
473.520	1	6
473.690	1	25
473.860	1	11
474.031	1	14
474.201	1	13
474.371	1	17
474.542	1	10
474.712	1	10
474.882	1	-2
475.053	1	16
475.223	1	1
475.394	1	1
475.564	1	14
475.734	1	12
475.905	1	19
476.075	1	3
476.245	1	12
476.416	1	0
476.586	1	8
476.756	1	3
476.927	1	12
477.097	1	6
477.267	1	7
477.438	1	12
477.608	1	0
477.778	1	11
477.949	1	-5
478.119	1	15
478.289	1	12
478.460	1	-1
478.630	1	23
478.800	1	20
478.971	1	8
479.141	1	8
479.311	1	12
479.482	1	16
479.652	1	6
479.822	1	12
479.993	1	13
480.163	1	21
480.333	1	1
480.504	1	9
480.674	1	6
480.844	1	3
481.015	1	11
481.185	1	6
481.355	1	11
481.525	1	11
481.696	1	8
481.866	1	13
482.036	1	6
482.207	1	3
482.377	1	16
482.547	1	5
482.718	1	3
482.888	1	10
483.058	1	2
483.229	1	18
483.399	1	9
483.569	1	2
483.740	1	7
483.910	1	2
484.080	1	4
484.250	1	-1
484.421	1	10
484.591	1	6
484.761	1	13
484.932	1	7
485.102	1	12
485.272	1	-6
485.443	1	6
485.613	1	12
485.783	1	14
485.953	1	9
486.124	1	9
486.294	1	12
486.464	1	10
486.635	1	14
486.805	1	8
486.975	1	6
487.146	1	2
487.316	1	7
487.486	1	2
487.656	1	2
487.827	1	7
487.997	1	14
488.167	1	10
488.338	1	-2
488.508	1	7
488.678	1	10
488.848	1	-1
489.019	1	3
489.189	1	1
489.359	1	7
489.529	1	7
489.700	1	1
489.870	1	4
490.040	1	3
490.211	1	12
490.381	1	9
490.551	1	2
490.721	1	4
490.892	1	8
491.062	1	-3
491.232	1	8
491.402	1	4
491.573	1	0
491.743	1	4
491.913	1	-2
492.084	1	10
492.254	1	9
492.424	1	14
492.594	1	19
492.765	1	-6
492.935	1	6
493.105	1	13
493.275	1	11
493.446	1	8
493.616	1	12
493.786	1	-5
493.956	1	7
494.127	1	13
494.297	1	-6
494.467	1	1
494.637	1	12
494.808	1	13
494.978	1	10
495.148	1	7
495.318	1	11
495.489	1	-6
495.659	1	0
495.829	1	6
495.999	1	4
496.170	1	0
496.340	1	12
496.510	1	12
496.680	1	2
496.851	1	2
497.021	1	0
497.191	1	8
497.361	1	0
497.532	1	2
497.702	1	1
497.872	1	22
498.042	1	11
498.213	1	9
498.383	1	23
498.553	1	3
498.723	1	8
498.894	1	0
499.064	1	10
499.234	1	2
499.404	1	-2
499.574	1	10
499.745	1	7
499.915	1	9
500.085	1	1
500.255	1	9
500.426	1	12
500.596	1	1
500.766	1	1
500.936	1	12
501.106	1	6
501.277	1	6
501.447	1	8
501.617	1	10
501.787	1	2
501.958	1	9
502.128	1	-10
502.298	1	5
502.468	1	6
502.638	1	0
502.809	1	10
502.979	1	18
503.149	1	-2
503.319	1	15
503.489	1	1
503.660	1	2
503.830	1	1
504.000	1	4
504.170	1	9
504.340	1	0
504.511	1	11
504.681	1	2
504.851	1	4
505.021	1	11
505.192	1	3
505.362	1	8
505.532	1	6
505.702	1	-5
505.872	1	6
506.043	1	5
506.213	1	11
506.383	1	2
506.553	1	3
506.723	1	1
506.893	1	1
507.064	1	0
507.234	1	0
507.404	1	10
507.574	1	12
507.744	1	15
507.915	1	7
508.085	1	9
508.255	1	3
508.425	1	0
508.595	1	1
508.766	1	-2
508.936	1	1
509.106	1	14
509.276	1	8
509.446	1	12
509.616	1	-1
509.787	1	14
509.957	1	2
510.127	1	-2
510.297	1	-5
510.467	1	-2
510.638	1	10
510.808	1	3
510.978	1	1
511.148	1	18
511.318	1	-1
511.488	1	10
511.659	1	-4
511.829	1	-3
511.999	1	10
512.169	1	4
512.339	1	2
512.509	1	9
512.680	1	3
512.850	1	12
513.020	1	-4
513.190	1	2
513.360	1	-1
513.530	1	5
513.700	1	11
513.871	1	-1
514.041	1	9
514.211	1	17
514.381	1	10
514.551	1	-6
514.721	1	5
514.892	1	5
515.062	1	-1
515.232	1	-3
515.402	1	5
515.572	1	-5
515.742	1	3
515.912	1	10
516.083	1	9
516.253	1	7
516.423	1	6
516.593	1	6
516.763	1	10
516.933	1	-16
517.104	1	-4
517.274	1	-8
517.444	1	-7
517.614	1	6
517.784	1	12
517.954	1	12
518.124	1	-6
518.294	1	9
518.465	1	1
518.635	1	3
518.805	1	14
518.975	1	6
519.145	1	20
519.315	1	-7
519.485	1	-5
519.656	1	13
519.826	1	13
519.996	1	2
520.166	1	7
520.336	1	1
520.506	1	-23
520.676	1	0
520.846	1	3
521.017	1	-2
521.187	1	12
521.357	1	-1
521.527	1	3
521.697	1	2
521.867	1	6
522.037	1	-4
522.207	1	-2
522.377	1	0
522.548	1	8
522.718	1	9
522.888	1	4
523.058	1	1
523.228	1	5
523.398	1	3
523.568	1	6
523.738	1	2
523.909	1	5
524.079	1	6
524.249	1	-4
524.419	1	9
524.589	1	3
524.759	1	3
524.929	1	-3
525.099	1	2
525.269	1	9
525.439	1	-1
525.610	1	3
525.780	1	4
525.950	1	6
526.120	1	3
526.290	1	2
526.460	1	-3
526.630	1	4
526.800	1	11
526.970	1	6
527.140	1	-2
527.311	1	0
527.481	1	14
527.651	1	10
527.821	1	-11
527.991	1	1
528.161	1	0
528.331	1	13
528.501	1	5
528.671	1	0
528.841	1	10
529.011	1	-1
529.181	1	3
529.352	1	2
529.522	1	-5
529.692	1	1
529.862	1	2
530.032	1	9
530.202	1	9
530.372	1	1
530.542	1	-2
530.712	1	2
530.882	1	0
531.052	1	10
531.222	1	-16
531.392	1	7
531.563	1	-1
531.733	1	-1
531.903	1	-1
532.073	1	5
532.243	1	4
532.413	1	8
532.583	1	-3
532.753	1	5
532.923	1	14
533.093	1	13
533.263	1	-5
533.433	1	16
533.603	1	2
533.773	1	-3
533.943	1	-7
534.113	1	14
534.284	1	2
534.454	1	-8
534.624	1	3
534.794	1	0
534.964	1	-4
535.134	1	10
535.304	1	-5
535.474	1	-4
535.644	1	0
535.814	1	9
535.984	1	-4
536.154	1	0
536.324	1	11
536.494	1	6
536.664	1	3
536.834	1	0
537.004	1	8
537.174	1	9
537.344	1	9
537.514	1	-1
537.685	1	6
537.855	1	1
538.025	1	2
538.195	1	3
538.365	1	0
538.535	1	-4
538.705	1	9
538.875	1	10
539.045	1	3
539.215	1	-5
539.385	1	-8
539.555	1	5
539.725	1	-2
539.895	1	7
540.065	1	-4
540.235	1	12
540.405	1	6
540.575	1	7
540.745	1	3
540.915	1	4
541.085	1	-14
541.255	1	-1
541.425	1	7
541.595	1	2
541.765	1	11
541.935	1	-6
542.105	1	5
542.275	1	14
542.445	1	4
542.615	1	4
542.785	1	3
542.955	1	-3
543.125	1	-1
543.295	1	-7
543.465	1	12
543.635	1	12
543.805	1	15
543.975	1	4
544.145	1	4
544.315	1	-2
544.485	1	4
544.655	1	11
544.825	1	-6
544.995	1	8
545.165	1	6
545.335	1	2
545.505	1	6
545.675	1	-3
545.845	1	8
546.015	1	11
546.185	1	7
546.355	1	2
546.525	1	3
546.695	1	-3
546.865	1	9
547.035	1	-7
547.205	1	13
547.375	1	0
547.545	1	16
547.715	1	8
547.885	1	10
548.055	1	-7
548.225	1	8
548.395	1	-11
548.565	1	-2
548.735	1	4
548.905	1	-4
549.075	1	4
549.245	1	11
549.415	1	4
549.585	1	1
549.755	1	5
549.925	1	8
550.095	1	5
550.265	1	7
550.435	1	-6
550.605	1	5
550.775	1	-3
550.945	1	9
551.115	1	-4
551.285	1	5
551.455	1	9
551.625	1	-5
551.795	1	-5
551.965	1	2
552.135	1	9
552.305	1	2
552.475	1	6
552.645	1	6
552.815	1	0
552.985	1	-1
553.155	1	-8
553.325	1	3
553.495	1	5
553.665	1	9
553.835	1	-5
554.004	1	-5
554.174	1	-5
554.344	1	-6
554.514	1	11
554.684	1	-3
554.854	1	-3
555.024	1	-6
555.194	1	8
555.364	1	9
555.534	1	-4
555.704	1	3
555.874	1	-7
556.044	1	11
556.214	1	1
556.384	1	-2
556.554	1	12
556.724	1	4
556.894	1	-13
557.064	1	4
557.234	1	-2
557.404	1	-8
557.573	1	-7
557.743	1	3
557.913	1	2
558.083	1	12
558.253	1	-2
558.423	1	6
558.593	1	14
558.763	1	4
558.933	1	-2
559.103	1	8
559.273	1	0
559.443	1	12
559.613	1	-3
559.783	1	12
559.953	1	12
560.122	1	4
560.292	1	7
560.462	1	-7
560.632	1	6
560.802	1	-3
560.972	1	0
561.142	1	13
561.312	1	-2
561.482	1	-8
561.652	1	6
561.822	1	1
561.992	1	-12
562.162	1	5
562.331	1	5
562.501	1	0
562.671	1	13
562.841	1	3
563.011	1	-2
563.181	1	11
563.351	1	7
563.521	1	3
563.691	1	8
563.861	1	-6
564.031	1	-8
564.201	1	7
564.370	1	1
564.540	1	-12
564.710	1	-1
564.880	1	4
565.050	1	-1
565.220	1	8
565.390	1	1
565.560	1	2
565.730	1	2
565.900	1	-6
566.069	1	0
566.239	1	-3
566.409	1	0
566.579	1	-1
566.749	1	3
566.919	1	-2
567.089	1	-1
567.259	1	6
567.429	1	0
567.599	1	-5
567.768	1	3
567.938	1	-1
568.108	1	4
568.278	1	2
568.448	1	3
568.618	1	-6
568.788	1	-15
568.958	1	1
569.128	1	-10
569.297	1	6
569.467	1	6
569.637	1	-7
569.807	1	1
569.977	1	-6
570.147	1	4
570.317	1	0
570.487	1	7
570.656	1	-1
570.826	1	0
570.996	1	4
571.166	1	1
571.336	1	7
571.506	1	7
571.676	1	-10
571.846	1	-8
572.015	1	3
572.185	1	-4
572.355	1	9
572.525	1	-15
572.695	1	-8
572.865	1	16
573.035	1	5
573.205	1	3
573.374	1	27
573.544	1	-4
573.714	1	0
573.884	1	0
574.054	1	1
574.224	1	2
574.394	1	-4
574.563	1	7
574.733	1	11
574.903	1	4
575.073	1	-5
575.243	1	9
575.413	1	6
575.583	1	-3
575.752	1	2
575.922	1	8
576.092	1	-7
576.262	1	7
576.432	1	6
576.602	1	-5
576.772	1	-2
576.941	1	16
577.111	1	6
577.281	1	17
577.451	1	-2
577.621	1	3
577.791	1	6
577.960	1	-7
578.130	1	2
578.300	1	12
578.470	1	8
578.640	1	2
578.810	1	2
578.979	1	-6
579.149	1	3
579.319	1	-5
579.489	1	1
579.659	1	-3
579.829	1	7
579.998	1	2
580.168	1	2
580.338	1	11
580.508	1	-3
580.678	1	16
580.848	1	-4
581.017	1	13
581.187	1	-3
581.357	1	-4
581.527	1	-2
581.697	1	-11
581.867	1	16
582.036	1	10
582.206	1	-5
582.376	1	6
582.546	1	14
582.716	1	-6
582.885	1	2
583.055	1	-5
583.225	1	0
583.395	1	12
583.565	1	7
583.735	1	2
583.904	1	-3
584.074	1	-1
584.244	1	11
584.414	1	1
584.584	1	0
584.753	1	10
584.923	1	4
585.093	1	-6
585.263	1	1
585.433	1	17
585.602	1	4
585.772	1	3
585.942	1	-1
586.112	1	4
586.282	1	5
586.451	1	0
586.621	1	0
586.791	1	3
586.961	1	10
587.131	1	-2
587.300	1	3
587.470	1	-2
587.640	1	-13
587.810	1	-17
587.980	1	-7
588.149	1	6
588.319	1	4
588.489	1	-9
588.659	1	-2
588.829	1	-4
588.998	1	-7
589.168	1	5
589.338	1	1
589.508	1	15
589.677	1	2
589.847	1	1
590.017	1	5
590.187	1	1
590.357	1	-2
590.526	1	6
590.696	1	-2
590.866	1	7
591.036	1	-3
591.205	1	0
591.375	1	-3
591.545	1	3
591.715	1	-2
591.885	1	-5
592.054	1	5
592.224	1	5
592.394	1	0
592.564	1	4
592.733	1	5
592.903	1	-5
593.073	1	0
593.243	1	-3
593.412	1	-2
593.582	1	6
593.752	1	1
593.922	1	9
594.091	1	0
594.261	1	-1
594.431	1	-7
594.601	1	3
594.771	1	13
594.940	1	-2
595.110	1	-1
595.280	1	4
595.450	1	3
595.619	1	1
595.789	1	5
595.959	1	2
596.129	1	2
596.298	1	6
596.468	1	7
596.638	1	4
596.808	1	2
596.977	1	6
597.147	1	4
597.317	1	8
597.487	1	6
597.656	1	0
597.826	1	-2
597.996	1	2
598.166	1	4
598.335	1	-5
598.505	1	-10
598.675	1	3
598.844	1	4
599.014	1	2
599.184	1	-3
599.354	1	-4
599.523	1	7
599.693	1	7
599.863	1	4
600.033	1	2
600.202	1	10
600.372	1	10
600.542	1	4
600.712	1	10
600.881	1	8
601.051	1	-1
601.221	1	8
601.390	1	-1
601.560	1	1
601.730	1	5
601.900	1	15
602.069	1	-11
602.239	1	4
602.409	1	14
602.578	1	11
602.748	1	-2
602.918	1	-3
603.088	1	3
603.257	1	6
603.427	1	11
603.597	1	-2
603.767	1	5
603.936	1	10
604.106	1	9
604.276	1	5
604.445	1	-6
604.615	1	-7
604.785	1	3
604.954	1	-1
605.124	1	4
605.294	1	3
605.464	1	-2
605.633	1	11
605.803	1	13
605.973	1	8
606.142	1	16
606.312	1	6
606.482	1	3
606.652	1	7
606.821	1	-2
606.991	1	-6
607.161	1	5
607.330	1	-3
607.500	1	13
607.670	1	-2
607.839	1	1
608.009	1	11
608.179	1	-4
608.348	1	2
608.518	1	-2
608.688	1	7
608.858	1	-7
609.027	1	9
609.197	1	9
609.367	1	-9
609.536	1	11
609.706	1	3
609.876	1	3
610.045	1	10
610.215	1	6
610.385	1	5
610.554	1	0
610.724	1	4
610.894	1	-2
611.063	1	4
611.233	1	-1
611.403	1	0
611.572	1	8
611.742	1	-6
611.912	1	6
612.081	1	-4
612.251	1	9
612.421	1	1
612.590	1	-5
612.760	1	7
612.930	1	-3
613.099	1	5
613.269	1	6
613.439	1	3
613.608	1	6
613.778	1	3
613.948	1	10
614.117	1	2
614.287	1	-5
614.457	1	2
614.626	1	9
614.796	1	4
614.966	1	9
615.135	1	9
615.305	1	9
615.475	1	2
615.644	1	7
615.814	1	-7
615.984	1	15
616.153	1	5
616.323	1	-6
616.493	1	8
616.662	1	-4
616.832	1	-2
617.002	1	-2
617.171	1	4
617.341	1	5
617.511	1	-1
617.680	1	-4
617.850	1	1
618.019	1	-12
618.189	1	1
618.359	1	-7
618.528	1	1
618.698	1	8
618.868	1	-3
619.037	1	6
619.207	1	5
619.377	1	6
619.546	1	-6
619.716	1	8
619.885	1	-5
620.055	1	12
620.225	1	8
620.394	1	9
620.564	1	-6
620.734	1	8
620.903	1	-7
621.073	1	8
621.242	1	1
621.412	1	5
621.582	1	-5
621.751	1	5
621.921	1	8
622.091	1	3
622.260	1	13
622.430	1	10
622.599	1	7
622.769	1	-9
622.939	1	-8
623.108	1	14
623.278	1	9
623.448	1	6
623.617	1	-4
623.787	1	10
623.956	1	10
624.126	1	6
624.296	1	0
624.465	1	0
624.635	1	5
624.804	1	-3
624.974	1	-5
625.144	1	15
625.313	1	-3
625.483	1	-1
625.652	1	5
625.822	1	16
625.992	1	12
626.161	1	-4
626.331	1	9
626.501	1	-6
626.670	1	1
626.840	1	-5
627.009	1	-4
627.179	1	-11
627.348	1	10
627.518	1	4
627.688	1	15
627.857	1	11
628.027	1	-5
628.196	1	-7
628.366	1	2
628.536	1	5
628.705	1	-2
628.875	1	3
629.044	1	8
629.214	1	-1
629.384	1	-2
629.553	1	10
629.723	1	-2
629.892	1	0
630.062	1	-12
630.232	1	15
630.401	1	-6
630.571	1	14
630.740	1	1
630.910	1	7
631.079	1	-5
631.249	1	2
631.419	1	7
631.588	1	7
631.758	1	5
631.927	1	5
632.097	1	1
632.266	1	-11
632.436	1	8
632.606	1	5
632.775	1	3
632.945	1	1
633.114	1	5
633.284	1	-4
633.453	1	14
633.623	1	15
633.793	1	3
633.962	1	5
634.132	1	-3
634.301	1	1
634.471	1	-1
634.640	1	7
634.810	1	4
634.979	1	3
635.149	1	7
635.319	1	7
635.488	1	0
635.658	1	7
635.827	1	-2
635.997	1	10
636.166	1	-6
636.336	1	4
636.505	1	7
636.675	1	0
636.845	1	5
637.014	1	0
637.184	1	13
637.353	1	-3
637.523	1	5
637.692	1	-1
637.862	1	-14
638.031	1	-6
638.201	1	-5
638.370	1	2
638.540	1	5
638.710	1	10
638.879	1	16
639.049	1	-4
639.218	1	16
639.388	1	0
639.557	1	7
639.727	1	5
639.896	1	7
640.066	1	2
640.235	1	3
640.405	1	9
640.574	1	4
640.744	1	2
640.914	1	6
641.083	1	5
641.253	1	1
641.422	1	0
641.592	1	0
641.761	1	4
641.931	1	-2
642.100	1	7
642.270	1	-1
642.439	1	-4
642.609	1	11
642.778	1	3
642.948	1	16
643.117	1	8
643.287	1	-10
643.456	1	-2
643.626	1	6
643.795	1	6
643.965	1	4
644.134	1	5
644.304	1	11
644.473	1	-9
644.643	1	3
644.812	1	7
644.982	1	6
645.151	1	-2
645.321	1	2
645.490	1	9
645.660	1	-1
645.829	1	5
645.999	1	6
646.168	1	6
646.338	1	2
646.507	1	-4
646.677	1	4
646.846	1	6
647.016	1	6
647.185	1	0
647.355	1	2
647.524	1	-2
647.694	1	-1
647.863	1	2
648.033	1	8
648.202	1	-4
648.372	1	2
648.541	1	0
648.711	1	0
648.880	1	5
649.050	1	10
649.219	1	5
649.389	1	9
649.558	1	3
649.728	1	6
649.897	1	-5
650.067	1	2
650.236	1	-5
650.406	1	9
650.575	1	0
650.745	1	4
650.914	1	5
651.084	1	1
651.253	1	7
651.423	1	-1
651.592	1	-7
651.762	1	2
651.931	1	5
652.101	1	9
652.270	1	0
652.440	1	6
652.609	1	5
652.778	1	9
652.948	1	8
653.117	1	6
653.287	1	-2
653.456	1	11
653.626	1	-1
653.795	1	7
653.965	1	-12
654.134	1	-1
654.304	1	3
654.473	1	-2
654.643	1	14
654.812	1	7
654.982	1	5
655.151	1	-1
655.320	1	4
655.490	1	1
655.659	1	4
655.829	1	-3
655.998	1	5
656.168	1	6
656.337	1	5
656.507	1	-6
656.676	1	3
656.846	1	3
657.015	1	4
657.184	1	-4
657.354	1	14
657.523	1	-4
657.693	1	2
657.862	1	-5
658.032	1	2
658.201	1	8
658.371	1	-5
658.540	1	1
658.709	1	-4
658.879	1	6
659.048	1	0
659.218	1	1
659.387	1	11
659.557	1	6
659.726	1	3
659.895	1	5
660.065	1	11
660.234	1	-2
660.404	1	3
660.573	1	3
660.743	1	-8
660.912	1	-6
661.081	1	-12
661.251	1	3
661.420	1	13
661.590	1	9
661.759	1	-4
661.929	1	6
662.098	1	12
662.267	1	5
662.437	1	12
662.606	1	6
662.776	1	-5
662.945	1	4
663.115	1	4
663.284	1	13
663.453	1	16
663.623	1	10
663.792	1	8
663.962	1	-1
664.131	1	5
664.300	1	-13
664.470	1	0
664.639	1	2
664.809	1	15
664.978	1	9
665.148	1	0
665.317	1	9
665.486	1	2
665.656	1	11
665.825	1	9
665.995	1	-6
666.164	1	11
666.333	1	-7
666.503	1	-5
666.672	1	-4
666.842	1	-2
667.011	1	0
667.180	1	3
667.350	1	7
667.519	1	6
667.689	1	6
667.858	1	3
668.027	1	5
668.197	1	11
668.366	1	-3
668.536	1	1
668.705	1	3
668.874	1	9
669.044	1	12
669.213	1	1
669.382	1	-5
669.552	1	6
669.721	1	2
669.891	1	-2
670.060	1	7
670.229	1	-1
670.399	1	-4
670.568	1	1
670.738	1	-1
670.907	1	-1
671.076	1	5
671.246	1	-9
671.415	1	2
671.584	1	5
671.754	1	-2
671.923	1	7
672.093	1	-2
672.262	1	10
672.431	1	5
672.601	1	2
672.770	1	-8
672.939	1	0
673.109	1	7
673.278	1	-4
673.448	1	1
673.617	1	1
673.786	1	-4
