325.333	1	5
325.504	1	10
325.675	1	8
325.846	1	-4
326.017	1	4
326.188	1	19
326.359	1	8
326.531	1	17
326.702	1	16
326.873	1	17
327.044	1	15
327.215	1	0
327.386	1	19
327.557	1	11
327.728	1	7
327.899	1	-1
328.070	1	18
328.241	1	3
328.412	1	4
328.583	1	13
328.754	1	12
328.926	1	20
329.097	1	6
329.268	1	8
329.439	1	7
329.610	1	4
329.781	1	10
329.952	1	15
330.123	1	7
330.294	1	13
330.465	1	16
330.636	1	26
330.807	1	11
330.978	1	6
331.149	1	18
331.320	1	17
331.492	1	2
331.663	1	5
331.834	1	5
332.005	1	13
332.176	1	24
332.347	1	21
332.518	1	29
332.689	1	18
332.860	1	13
333.031	1	18
333.202	1	21
333.373	1	12
333.544	1	11
333.715	1	17
333.886	1	12
334.057	1	4
334.228	1	8
334.399	1	13
334.570	1	2
334.741	1	14
334.912	1	10
335.084	1	5
335.255	1	16
335.426	1	15
335.597	1	7
335.768	1	16
335.939	1	10
336.110	1	17
336.281	1	13
336.452	1	12
336.623	1	12
336.794	1	5
336.965	1	14
337.136	1	22
337.307	1	17
337.478	1	11
337.649	1	1
337.820	1	8
337.991	1	23
338.162	1	8
338.333	1	26
338.504	1	21
338.675	1	16
338.846	1	21
339.017	1	33
339.188	1	24
339.359	1	9
339.530	1	18
339.701	1	25
339.872	1	24
340.043	1	11
340.214	1	20
340.385	1	26
340.556	1	10
340.727	1	19
340.898	1	19
341.069	1	10
341.240	1	9
341.411	1	26
341.582	1	24
341.753	1	9
341.924	1	16
342.095	1	22
342.266	1	8
342.437	1	9
342.608	1	15
342.779	1	18
342.950	1	18
343.121	1	19
343.292	1	18
343.463	1	23
343.634	1	12
343.805	1	22
343.976	1	14
344.147	1	15
344.318	1	14
344.489	1	20
344.660	1	28
344.831	1	24
345.002	1	20
345.173	1	30
345.344	1	19
345.515	1	22
345.686	1	11
345.857	1	18
346.028	1	13
346.199	1	28
346.370	1	19
346.541	1	16
346.712	1	28
346.883	1	18
347.054	1	17
347.225	1	11
347.396	1	7
347.567	1	17
347.738	1	23
347.909	1	18
348.080	1	29
348.251	1	32
348.422	1	16
348.593	1	20
348.764	1	30
348.935	1	20
349.106	1	26
349.277	1	24
349.448	1	24
349.619	1	25
349.790	1	18
349.961	1	25
350.132	1	36
350.303	1	29
350.474	1	14
350.645	1	40
350.816	1	33
350.987	1	15
351.157	1	21
351.328	1	27
351.499	1	23
351.670	1	24
351.841	1	30
352.012	1	19
352.183	1	19
352.354	1	31
352.525	1	33
352.696	1	18
352.867	1	40
353.038	1	30
353.209	1	29
353.380	1	32
353.551	1	14
353.722	1	37
353.893	1	26
354.064	1	24
354.235	1	35
354.406	1	20
354.576	1	23
354.747	1	34
354.918	1	30
355.089	1	29
355.260	1	36
355.431	1	22
355.602	1	21
355.773	1	25
355.944	1	26
356.115	1	24
356.286	1	28
356.457	1	25
356.628	1	30
356.799	1	28
356.970	1	27
357.141	1	26
357.311	1	26
357.482	1	24
357.653	1	30
357.824	1	32
357.995	1	25
358.166	1	41
358.337	1	27
358.508	1	13
358.679	1	32
358.850	1	31
359.021	1	26
359.192	1	38
359.363	1	22
359.533	1	24
359.704	1	29
359.875	1	36
360.046	1	17
360.217	1	28
360.388	1	24
360.559	1	24
360.730	1	27
360.901	1	28
361.072	1	33
361.243	1	38
361.414	1	33
361.584	1	51
361.755	1	24
361.926	1	31
362.097	1	24
362.268	1	35
362.439	1	32
362.610	1	36
362.781	1	40
362.952	1	33
363.123	1	30
363.293	1	26
363.464	1	39
363.635	1	37
363.806	1	41
363.977	1	31
364.148	1	46
364.319	1	23
364.490	1	39
364.661	1	32
364.832	1	39
365.002	1	37
365.173	1	26
365.344	1	30
365.515	1	36
365.686	1	23
365.857	1	30
366.028	1	31
366.199	1	24
366.370	1	30
366.540	1	32
366.711	1	30
366.882	1	33
367.053	1	36
367.224	1	20
367.395	1	42
367.566	1	39
367.737	1	26
367.908	1	26
368.078	1	38
368.249	1	24
368.420	1	41
368.591	1	40
368.762	1	20
368.933	1	43
369.104	1	31
369.274	1	43
369.445	1	43
369.616	1	30
369.787	1	34
369.958	1	42
370.129	1	31
370.300	1	35
370.471	1	35
370.641	1	30
370.812	1	39
370.983	1	28
371.154	1	46
371.325	1	40
371.496	1	30
371.667	1	43
371.837	1	33
372.008	1	32
372.179	1	29
372.350	1	41
372.521	1	27
372.692	1	39
372.863	1	32
373.033	1	36
373.204	1	45
373.375	1	38
373.546	1	36
373.717	1	29
373.888	1	39
374.059	1	39
374.229	1	29
374.400	1	34
374.571	1	42
374.742	1	24
374.913	1	30
375.084	1	42
375.254	1	24
375.425	1	34
375.596	1	35
375.767	1	29
375.938	1	34
376.109	1	28
376.279	1	35
376.450	1	37
376.621	1	33
376.792	1	40
376.963	1	34
377.134	1	21
377.304	1	41
377.475	1	32
377.646	1	29
377.817	1	46
377.988	1	40
378.159	1	41
378.329	1	43
378.500	1	39
378.671	1	24
378.842	1	27
379.013	1	38
379.184	1	44
379.354	1	56
379.525	1	40
379.696	1	53
379.867	1	32
380.038	1	37
380.209	1	33
380.379	1	45
380.550	1	32
380.721	1	34
380.892	1	42
381.063	1	43
381.233	1	61
381.404	1	41
381.575	1	45
381.746	1	52
381.917	1	41
382.087	1	33
382.258	1	36
382.429	1	45
382.600	1	48
382.771	1	42
382.941	1	26
383.112	1	45
383.283	1	43
383.454	1	31
383.625	1	39
383.795	1	53
383.966	1	40
384.137	1	40
384.308	1	39
384.479	1	52
384.649	1	44
384.820	1	39
384.991	1	29
385.162	1	46
385.333	1	33
385.503	1	50
385.674	1	42
385.845	1	37
386.016	1	45
386.187	1	41
386.357	1	39
386.528	1	33
386.699	1	35
386.870	1	50
387.041	1	42
387.211	1	41
387.382	1	38
387.553	1	46
387.724	1	34
387.894	1	57
388.065	1	46
388.236	1	46
388.407	1	50
388.578	1	45
388.748	1	46
388.919	1	58
389.090	1	58
389.261	1	48
389.431	1	54
389.602	1	49
389.773	1	40
389.944	1	48
390.114	1	52
390.285	1	53
390.456	1	48
390.627	1	51
390.798	1	52
390.968	1	48
391.139	1	45
391.310	1	52
391.481	1	49
391.651	1	54
391.822	1	50
391.993	1	42
392.164	1	33
392.334	1	36
392.505	1	37
392.676	1	51
392.847	1	47
393.017	1	51
393.188	1	48
393.359	1	47
393.530	1	47
393.700	1	56
393.871	1	48
394.042	1	46
394.213	1	49
394.383	1	56
394.554	1	46
394.725	1	46
394.896	1	46
395.066	1	50
395.237	1	38
395.408	1	46
395.579	1	55
395.749	1	52
395.920	1	44
396.091	1	53
396.262	1	43
396.432	1	51
396.603	1	39
396.774	1	58
396.945	1	37
397.115	1	38
397.286	1	49
397.457	1	57
397.627	1	51
397.798	1	53
397.969	1	53
398.140	1	46
398.310	1	50
398.481	1	51
398.652	1	43
398.823	1	45
398.993	1	66
399.164	1	50
399.335	1	42
399.505	1	64
399.676	1	47
399.847	1	55
400.018	1	42
400.188	1	60
400.359	1	55
400.530	1	42
400.700	1	46
400.871	1	56
401.042	1	53
401.213	1	51
401.383	1	50
401.554	1	61
401.725	1	61
401.895	1	40
402.066	1	52
402.237	1	55
402.408	1	57
402.578	1	47
402.749	1	71
402.920	1	56
403.090	1	54
403.261	1	57
403.432	1	68
403.603	1	43
403.773	1	55
403.944	1	52
404.115	1	43
404.285	1	64
404.456	1	57
404.627	1	59
404.797	1	51
404.968	1	47
405.139	1	58
405.310	1	56
405.480	1	50
405.651	1	55
405.822	1	58
405.992	1	55
406.163	1	47
406.334	1	60
406.504	1	44
406.675	1	50
406.846	1	59
407.016	1	44
407.187	1	62
407.358	1	56
407.528	1	49
407.699	1	49
407.870	1	68
408.041	1	50
408.211	1	39
408.382	1	53
408.553	1	35
408.723	1	53
408.894	1	56
409.065	1	56
409.235	1	55
409.406	1	40
409.577	1	44
409.747	1	56
409.918	1	35
410.089	1	42
410.259	1	48
410.430	1	58
410.601	1	57
410.771	1	59
410.942	1	43
411.113	1	61
411.283	1	57
411.454	1	58
411.625	1	53
411.795	1	44
411.966	1	49
412.137	1	54
412.307	1	60
412.478	1	59
412.649	1	50
412.819	1	46
412.990	1	55
413.161	1	60
413.331	1	64
413.502	1	43
413.672	1	56
413.843	1	59
414.014	1	65
414.184	1	56
414.355	1	54
414.526	1	63
414.696	1	53
414.867	1	57
415.038	1	44
415.208	1	52
415.379	1	54
415.550	1	69
415.720	1	50
415.891	1	61
416.062	1	53
416.232	1	54
416.403	1	42
416.573	1	59
416.744	1	47
416.915	1	51
417.085	1	47
417.256	1	58
417.427	1	56
417.597	1	50
417.768	1	46
417.939	1	64
418.109	1	33
418.280	1	58
418.450	1	57
418.621	1	48
418.792	1	45
418.962	1	51
419.133	1	61
419.304	1	43
419.474	1	47
419.645	1	53
419.815	1	58
419.986	1	47
420.157	1	65
420.327	1	51
420.498	1	52
420.669	1	56
420.839	1	50
421.010	1	58
421.180	1	38
421.351	1	50
421.522	1	63
421.692	1	62
421.863	1	47
422.033	1	60
422.204	1	54
422.375	1	48
422.545	1	55
422.716	1	45
422.886	1	67
423.057	1	42
423.228	1	48
423.398	1	54
423.569	1	59
423.740	1	52
423.910	1	63
424.081	1	59
424.251	1	53
424.422	1	38
424.593	1	54
424.763	1	52
424.934	1	50
425.104	1	49
425.275	1	63
425.445	1	72
425.616	1	58
425.787	1	53
425.957	1	55
426.128	1	55
426.298	1	48
426.469	1	51
426.640	1	52
426.810	1	54
426.981	1	53
427.151	1	50
427.322	1	43
427.493	1	47
427.663	1	47
427.834	1	49
428.004	1	45
428.175	1	51
428.345	1	52
428.516	1	52
428.687	1	47
428.857	1	45
429.028	1	57
429.198	1	50
429.369	1	52
429.540	1	47
429.710	1	63
429.881	1	50
430.051	1	57
430.222	1	51
430.392	1	48
430.563	1	50
430.734	1	59
430.904	1	44
431.075	1	39
431.245	1	53
431.416	1	34
431.586	1	48
431.757	1	64
431.927	1	28
432.098	1	51
432.269	1	57
432.439	1	60
432.610	1	57
432.780	1	50
432.951	1	53
433.121	1	56
433.292	1	63
433.462	1	48
433.633	1	55
433.804	1	35
433.974	1	47
434.145	1	57
434.315	1	55
434.486	1	47
434.656	1	60
434.827	1	49
434.997	1	57
435.168	1	52
435.339	1	52
435.509	1	49
435.680	1	58
435.850	1	53
436.021	1	57
436.191	1	61
436.362	1	58
436.532	1	49
436.703	1	64
436.873	1	51
437.044	1	48
437.214	1	54
437.385	1	58
437.556	1	56
437.726	1	57
437.897	1	40
438.067	1	50
438.238	1	55
438.408	1	48
438.579	1	54
438.749	1	40
438.920	1	50
439.090	1	50
439.261	1	48
439.431	1	53
439.602	1	53
439.772	1	50
439.943	1	60
440.113	1	54
440.284	1	43
440.455	1	58
440.625	1	42
440.796	1	45
440.966	1	47
441.137	1	58
441.307	1	47
441.478	1	54
441.648	1	53
441.819	1	56
441.989	1	36
442.160	1	43
442.330	1	59
442.501	1	54
442.671	1	38
442.842	1	57
443.012	1	40
443.183	1	49
443.353	1	57
443.524	1	52
443.694	1	49
443.865	1	45
444.035	1	36
444.206	1	45
444.376	1	59
444.547	1	40
444.717	1	58
444.888	1	52
445.058	1	58
445.229	1	41
445.399	1	54
445.570	1	44
445.740	1	50
445.911	1	50
446.081	1	55
446.252	1	38
446.422	1	62
446.593	1	60
446.763	1	49
446.934	1	44
447.104	1	46
447.275	1	52
447.445	1	52
447.616	1	47
447.786	1	44
447.957	1	50
448.127	1	61
448.298	1	43
448.468	1	56
448.639	1	45
448.809	1	45
448.979	1	57
449.150	1	48
449.320	1	57
449.491	1	55
449.661	1	52
449.832	1	58
450.002	1	53
450.173	1	50
450.343	1	55
450.514	1	42
450.684	1	49
450.855	1	46
451.025	1	44
451.196	1	51
451.366	1	33
451.537	1	49
451.707	1	60
451.878	1	55
452.048	1	46
452.218	1	37
452.389	1	57
452.559	1	53
452.730	1	41
452.900	1	54
453.071	1	46
453.241	1	55
453.412	1	41
453.582	1	45
453.753	1	52
453.923	1	52
454.093	1	54
454.264	1	35
454.434	1	51
454.605	1	54
454.775	1	44
454.946	1	48
455.116	1	42
455.287	1	38
455.457	1	40
455.628	1	42
455.798	1	49
455.968	1	41
456.139	1	43
456.309	1	52
456.480	1	40
456.650	1	63
456.821	1	61
456.991	1	47
457.161	1	33
457.332	1	48
457.502	1	56
457.673	1	56
457.843	1	43
458.014	1	49
458.184	1	44
458.355	1	42
458.525	1	50
458.695	1	42
458.866	1	57
459.036	1	40
459.207	1	45
459.377	1	41
459.548	1	32
459.718	1	45
459.888	1	58
460.059	1	53
460.229	1	50
460.400	1	34
460.570	1	35
460.740	1	44
460.911	1	51
461.081	1	51
461.252	1	47
461.422	1	43
461.593	1	52
461.763	1	48
461.933	1	47
462.104	1	41
462.274	1	31
462.445	1	32
462.615	1	43
462.785	1	32
462.956	1	44
463.126	1	35
463.297	1	55
463.467	1	42
463.638	1	48
463.808	1	47
463.978	1	46
464.149	1	31
464.319	1	52
464.490	1	48
464.660	1	48
464.830	1	53
465.001	1	44
465.171	1	44
465.342	1	33
465.512	1	42
465.682	1	39
465.853	1	35
466.023	1	39
466.194	1	41
466.364	1	48
466.534	1	49
466.705	1	37
466.875	1	36
467.045	1	40
467.216	1	43
467.386	1	44
467.557	1	45
467.727	1	49
467.897	1	30
468.068	1	17
468.238	1	36
468.409	1	40
468.579	1	55
468.749	1	42
468.920	1	32
469.090	1	48
469.260	1	42
469.431	1	56
469.601	1	26
469.772	1	17
469.942	1	48
470.112	1	48
470.283	1	43
470.453	1	47
470.623	1	39
470.794	1	42
470.964	1	35
471.135	1	41
471.305	1	43
471.475	1	39
471.646	1	37
471.816	1	33
471.986	1	43
472.157	1	26
472.327	1	42
472.497	1	50
472.668	1	32
472.838	1	49
473.009	1	40
473.179	1	47
473.349	1	34
473.520	1	40
473.690	1	37
473.860	1	42
474.031	1	34
474.201	1	45
474.371	1	43
474.542	1	51
474.712	1	48
474.882	1	30
475.053	1	35
475.223	1	28
475.394	1	30
475.564	1	30
475.734	1	49
475.905	1	38
476.075	1	40
476.245	1	39
476.416	1	33
476.586	1	38
476.756	1	31
476.927	1	33
477.097	1	34
477.267	1	32
477.438	1	29
477.608	1	29
477.778	1	29
477.949	1	39
478.119	1	50
478.289	1	24
478.460	1	18
478.630	1	41
478.800	1	53
478.971	1	25
479.141	1	39
479.311	1	42
479.482	1	41
479.652	1	52
479.822	1	32
479.993	1	40
480.163	1	32
480.333	1	31
480.504	1	36
480.674	1	33
480.844	1	32
481.015	1	38
481.185	1	31
481.355	1	44
481.525	1	39
481.696	1	34
481.866	1	26
482.036	1	37
482.207	1	38
482.377	1	40
482.547	1	32
482.718	1	31
482.888	1	41
483.058	1	36
483.229	1	42
483.399	1	44
483.569	1	29
483.740	1	29
483.910	1	19
484.080	1	14
484.250	1	19
484.421	1	28
484.591	1	35
484.761	1	34
484.932	1	32
485.102	1	42
485.272	1	28
485.443	1	38
485.613	1	44
485.783	1	35
485.953	1	34
486.124	1	42
486.294	1	15
486.464	1	31
486.635	1	37
486.805	1	24
486.975	1	26
487.146	1	32
487.316	1	29
487.486	1	25
487.656	1	34
487.827	1	19
487.997	1	23
488.167	1	33
488.338	1	29
488.508	1	33
488.678	1	31
488.848	1	26
489.019	1	31
489.189	1	27
489.359	1	24
489.529	1	40
489.700	1	42
489.870	1	13
490.040	1	19
490.211	1	30
490.381	1	34
490.551	1	30
490.721	1	34
490.892	1	36
491.062	1	20
491.232	1	27
491.402	1	28
491.573	1	20
491.743	1	25
491.913	1	18
492.084	1	26
492.254	1	22
492.424	1	26
492.594	1	37
492.765	1	11
492.935	1	17
493.105	1	32
493.275	1	20
493.446	1	23
493.616	1	21
493.786	1	24
493.956	1	21
494.127	1	33
494.297	1	22
494.467	1	17
494.637	1	32
494.808	1	31
494.978	1	14
495.148	1	23
495.318	1	26
495.489	1	9
495.659	1	15
495.829	1	27
495.999	1	26
496.170	1	18
496.340	1	23
496.510	1	24
496.680	1	21
496.851	1	23
497.021	1	8
497.191	1	32
497.361	1	16
497.532	1	23
497.702	1	35
497.872	1	28
498.042	1	24
498.213	1	41
498.383	1	27
498.553	1	18
498.723	1	19
498.894	1	14
499.064	1	20
499.234	1	17
499.404	1	24
499.574	1	28
499.745	1	21
499.915	1	26
500.085	1	29
500.255	1	15
500.426	1	18
500.596	1	16
500.766	1	18
500.936	1	26
501.106	1	18
501.277	1	24
501.447	1	17
501.617	1	30
501.787	1	17
501.958	1	18
502.128	1	8
502.298	1	20
502.468	1	36
502.638	1	18
502.809	1	19
502.979	1	34
503.149	1	21
503.319	1	27
503.489	1	21
503.660	1	16
503.830	1	22
504.000	1	23
504.170	1	25
504.340	1	19
504.511	1	17
504.681	1	17
504.851	1	15
505.021	1	32
505.192	1	11
505.362	1	28
505.532	1	18
505.702	1	20
505.872	1	11
506.043	1	19
506.213	1	29
506.383	1	14
506.553	1	19
506.723	1	14
506.893	1	15
507.064	1	9
507.234	1	18
507.404	1	29
507.574	1	11
507.744	1	23
507.915	1	13
508.085	1	26
508.255	1	19
508.425	1	22
508.595	1	12
508.766	1	14
508.936	1	19
509.106	1	19
509.276	1	12
509.446	1	10
509.616	1	10
509.787	1	20
509.957	1	20
510.127	1	18
510.297	1	22
510.467	1	15
510.638	1	25
510.808	1	24
510.978	1	19
511.148	1	24
511.318	1	21
511.488	1	29
511.659	1	13
511.829	1	8
511.999	1	24
512.169	1	16
512.339	1	27
512.509	1	7
512.680	1	15
512.850	1	16
513.020	1	13
513.190	1	18
513.360	1	27
513.530	1	23
513.700	1	23
513.871	1	17
514.041	1	21
514.211	1	24
514.381	1	24
514.551	1	15
514.721	1	13
514.892	1	16
515.062	1	7
515.232	1	18
515.402	1	18
515.572	1	12
515.742	1	17
515.912	1	7
516.083	1	11
516.253	1	22
516.423	1	14
516.593	1	17
516.763	1	12
516.933	1	0
517.104	1	20
517.274	1	1
517.444	1	12
517.614	1	19
517.784	1	18
517.954	1	24
518.124	1	5
518.294	1	13
518.465	1	11
518.635	1	6
518.805	1	31
518.975	1	14
519.145	1	17
519.315	1	5
519.485	1	9
519.656	1	15
519.826	1	14
519.996	1	6
520.166	1	22
520.336	1	13
520.506	1	1
520.676	1	19
520.846	1	15
521.017	1	17
521.187	1	27
521.357	1	8
521.527	1	18
521.697	1	16
521.867	1	14
522.037	1	2
522.207	1	5
522.377	1	14
522.548	1	20
522.718	1	19
522.888	1	23
523.058	1	12
523.228	1	11
523.398	1	23
523.568	1	17
523.738	1	17
523.909	1	10
524.079	1	10
524.249	1	10
524.419	1	10
524.589	1	14
524.759	1	19
524.929	1	13
525.099	1	18
525.269	1	26
525.439	1	9
525.610	1	13
525.780	1	15
525.950	1	16
526.120	1	6
526.290	1	12
526.460	1	13
526.630	1	9
526.800	1	6
526.970	1	27
527.140	1	11
527.311	1	1
527.481	1	16
527.651	1	12
527.821	1	13
527.991	1	17
528.161	1	15
528.331	1	22
528.501	1	24
528.671	1	11
528.841	1	22
529.011	1	8
529.181	1	20
529.352	1	12
529.522	1	13
529.692	1	5
529.862	1	9
530.032	1	16
530.202	1	16
530.372	1	15
530.542	1	10
530.712	1	4
530.882	1	8
531.052	1	20
531.222	1	11
531.392	1	13
531.563	1	5
531.733	1	13
531.903	1	23
532.073	1	16
532.243	1	7
532.413	1	23
532.583	1	8
532.753	1	7
532.923	1	19
533.093	1	9
533.263	1	9
533.433	1	13
533.603	1	9
533.773	1	3
533.943	1	11
534.113	1	6
534.284	1	13
534.454	1	4
534.624	1	12
534.794	1	7
534.964	1	15
535.134	1	20
535.304	1	18
535.474	1	6
535.644	1	7
535.814	1	17
535.984	1	13
536.154	1	15
536.324	1	24
536.494	1	17
536.664	1	22
536.834	1	7
537.004	1	26
537.174	1	11
537.344	1	12
537.514	1	11
537.685	1	11
537.855	1	12
538.025	1	5
538.195	1	11
538.365	1	15
538.535	1	8
538.705	1	24
538.875	1	19
539.045	1	7
539.215	1	-5
539.385	1	15
539.555	1	11
539.725	1	8
539.895	1	18
540.065	1	7
540.235	1	8
540.405	1	4
540.575	1	18
540.745	1	8
540.915	1	12
541.085	1	7
541.255	1	3
541.425	1	15
541.595	1	21
541.765	1	24
541.935	1	6
542.105	1	8
542.275	1	12
542.445	1	8
542.615	1	10
542.785	1	5
542.955	1	11
543.125	1	11
543.295	1	4
543.465	1	19
543.635	1	9
543.805	1	24
543.975	1	2
544.145	1	7
544.315	1	5
544.485	1	5
544.655	1	16
544.825	1	10
544.995	1	17
545.165	1	9
545.335	1	3
545.505	1	18
545.675	1	-1
545.845	1	24
546.015	1	17
546.185	1	17
546.355	1	7
546.525	1	5
546.695	1	11
546.865	1	21
547.035	1	17
547.205	1	10
547.375	1	16
547.545	1	21
547.715	1	17
547.885	1	17
548.055	1	-10
548.225	1	12
548.395	1	4
548.565	1	21
548.735	1	11
548.905	1	2
549.075	1	14
549.245	1	14
549.415	1	7
549.585	1	22
549.755	1	12
549.925	1	10
550.095	1	0
550.265	1	4
550.435	1	-7
550.605	1	11
550.775	1	3
550.945	1	22
551.115	1	9
551.285	1	7
551.455	1	19
551.625	1	-4
551.795	1	3
551.965	1	15
552.135	1	7
552.305	1	1
552.475	1	9
552.645	1	4
552.815	1	12
552.985	1	6
553.155	1	6
553.325	1	12
553.495	1	10
553.665	1	13
553.835	1	0
554.004	1	-3
554.174	1	10
554.344	1	7
554.514	1	19
554.684	1	8
554.854	1	9
555.024	1	7
555.194	1	15
555.364	1	14
555.534	1	1
555.704	1	19
555.874	1	5
556.044	1	11
556.214	1	11
556.384	1	9
556.554	1	9
556.724	1	10
556.894	1	11
557.064	1	9
557.234	1	6
557.404	1	9
557.573	1	6
557.743	1	13
557.913	1	1
558.083	1	6
558.253	1	-4
558.423	1	2
558.593	1	13
558.763	1	15
558.933	1	2
559.103	1	21
559.273	1	6
559.443	1	12
559.613	1	15
559.783	1	24
559.953	1	14
560.122	1	6
560.292	1	9
560.462	1	-1
560.632	1	6
560.802	1	2
560.972	1	7
561.142	1	14
561.312	1	12
561.482	1	19
561.652	1	3
561.822	1	6
561.992	1	-5
562.162	1	17
562.331	1	18
562.501	1	7
562.671	1	12
562.841	1	5
563.011	1	1
563.181	1	17
563.351	1	4
563.521	1	7
563.691	1	24
563.861	1	-4
564.031	1	5
564.201	1	4
564.370	1	12
564.540	1	9
564.710	1	13
564.880	1	6
565.050	1	7
565.220	1	-2
565.390	1	12
565.560	1	-1
565.730	1	18
565.900	1	-5
566.069	1	17
566.239	1	0
566.409	1	7
566.579	1	6
566.749	1	8
566.919	1	9
567.089	1	15
567.259	1	4
567.429	1	11
567.599	1	-3
567.768	1	7
567.938	1	-4
568.108	1	13
568.278	1	9
568.448	1	8
568.618	1	9
568.788	1	2
568.958	1	0
569.128	1	4
569.297	1	3
569.467	1	4
569.637	1	4
569.807	1	7
569.977	1	10
570.147	1	10
570.317	1	11
570.487	1	17
570.656	1	3
570.826	1	6
570.996	1	6
571.166	1	5
571.336	1	5
571.506	1	9
571.676	1	-3
571.846	1	-10
572.015	1	13
572.185	1	3
572.355	1	21
572.525	1	-2
572.695	1	5
572.865	1	12
573.035	1	-1
573.205	1	1
573.374	1	15
573.544	1	-7
573.714	1	9
573.884	1	13
574.054	1	10
574.224	1	10
574.394	1	0
574.563	1	-1
574.733	1	10
574.903	1	0
575.073	1	-1
575.243	1	3
575.413	1	6
575.583	1	9
575.752	1	2
575.922	1	11
576.092	1	1
576.262	1	10
576.432	1	11
576.602	1	13
576.772	1	0
576.941	1	18
577.111	1	10
577.281	1	26
577.451	1	1
577.621	1	10
577.791	1	4
577.960	1	4
578.130	1	6
578.300	1	3
578.470	1	23
578.640	1	9
578.810	1	10
578.979	1	6
579.149	1	8
579.319	1	8
579.489	1	9
579.659	1	0
579.829	1	10
579.998	1	-1
580.168	1	7
580.338	1	17
580.508	1	0
580.678	1	9
580.848	1	8
581.017	1	13
581.187	1	12
581.357	1	3
581.527	1	2
581.697	1	-3
581.867	1	9
582.036	1	15
582.206	1	7
582.376	1	2
582.546	1	11
582.716	1	2
582.885	1	5
583.055	1	7
583.225	1	-3
583.395	1	9
583.565	1	-1
583.735	1	5
583.904	1	1
584.074	1	-1
584.244	1	12
584.414	1	6
584.584	1	10
584.753	1	20
584.923	1	13
585.093	1	6
585.263	1	10
585.433	1	20
585.602	1	6
585.772	1	0
585.942	1	4
586.112	1	-2
586.282	1	17
586.451	1	1
586.621	1	4
586.791	1	13
586.961	1	20
587.131	1	11
587.300	1	10
587.470	1	6
587.640	1	-3
587.810	1	2
587.980	1	-3
588.149	1	11
588.319	1	8
588.489	1	1
588.659	1	5
588.829	1	-6
588.998	1	2
589.168	1	21
589.338	1	4
589.508	1	5
589.677	1	-4
589.847	1	6
590.017	1	1
590.187	1	11
590.357	1	7
590.526	1	19
590.696	1	7
590.866	1	12
591.036	1	-1
591.205	1	11
591.375	1	10
591.545	1	7
591.715	1	4
591.885	1	2
592.054	1	15
592.224	1	10
592.394	1	2
592.564	1	9
592.733	1	9
592.903	1	1
593.073	1	-3
593.243	1	15
593.412	1	3
593.582	1	-1
593.752	1	5
593.922	1	17
594.091	1	-3
594.261	1	2
594.431	1	8
594.601	1	6
594.771	1	10
594.940	1	2
595.110	1	9
595.280	1	17
595.450	1	6
595.619	1	13
595.789	1	14
595.959	1	1
596.129	1	-4
596.298	1	8
596.468	1	3
596.638	1	8
596.808	1	-2
596.977	1	12
597.147	1	15
597.317	1	13
597.487	1	4
597.656	1	6
597.826	1	-4
597.996	1	9
598.166	1	13
598.335	1	3
598.505	1	0
598.675	1	4
598.844	1	5
599.014	1	1
599.184	1	3
599.354	1	-2
599.523	1	14
599.693	1	9
599.863	1	17
600.033	1	1
600.202	1	16
600.372	1	3
600.542	1	11
600.712	1	17
600.881	1	19
601.051	1	12
601.221	1	14
601.390	1	13
601.560	1	4
601.730	1	5
601.900	1	16
602.069	1	-5
602.239	1	17
602.409	1	4
602.578	1	11
602.748	1	0
602.918	1	4
603.088	1	19
603.257	1	10
603.427	1	10
603.597	1	3
603.767	1	3
603.936	1	25
604.106	1	5
604.276	1	1
604.445	1	-2
604.615	1	10
604.785	1	7
604.954	1	3
605.124	1	9
605.294	1	12
605.464	1	6
605.633	1	14
605.803	1	12
605.973	1	22
606.142	1	13
606.312	1	12
606.482	1	4
606.652	1	18
606.821	1	5
606.991	1	6
607.161	1	13
607.330	1	6
607.500	1	15
607.670	1	6
607.839	1	5
608.009	1	15
608.179	1	7
608.348	1	5
608.518	1	7
608.688	1	17
608.858	1	9
609.027	1	3
609.197	1	8
609.367	1	-1
609.536	1	17
609.706	1	6
609.876	1	7
610.045	1	17
610.215	1	15
610.385	1	7
610.554	1	16
610.724	1	13
610.894	1	16
611.063	1	14
611.233	1	0
611.403	1	10
611.572	1	17
611.742	1	7
611.912	1	13
612.081	1	15
612.251	1	20
612.421	1	12
612.590	1	6
612.760	1	17
612.930	1	5
613.099	1	9
613.269	1	3
613.439	1	5
613.608	1	3
613.778	1	1
613.948	1	16
614.117	1	6
614.287	1	10
614.457	1	14
614.626	1	18
614.796	1	9
614.966	1	12
615.135	1	7
615.305	1	20
615.475	1	5
615.644	1	7
615.814	1	13
615.984	1	11
616.153	1	15
616.323	1	12
616.493	1	10
616.662	1	-1
616.832	1	14
617.002	1	5
617.171	1	1
617.341	1	10
617.511	1	2
617.680	1	4
617.850	1	3
618.019	1	21
618.189	1	12
618.359	1	19
618.528	1	7
618.698	1	15
618.868	1	0
619.037	1	8
619.207	1	17
619.377	1	9
619.546	1	1
619.716	1	12
619.885	1	5
620.055	1	23
620.225	1	13
620.394	1	0
620.564	1	7
620.734	1	10
620.903	1	15
621.073	1	0
621.242	1	2
621.412	1	9
621.582	1	8
621.751	1	7
621.921	1	14
622.091	1	0
622.260	1	11
622.430	1	20
622.599	1	17
622.769	1	3
622.939	1	10
623.108	1	8
623.278	1	15
623.448	1	17
623.617	1	0
623.787	1	12
623.956	1	15
624.126	1	11
624.296	1	5
624.465	1	7
624.635	1	20
624.804	1	13
624.974	1	13
625.144	1	20
625.313	1	3
625.483	1	14
625.652	1	21
625.822	1	6
625.992	1	10
626.161	1	5
626.331	1	12
626.501	1	15
626.670	1	4
626.840	1	14
627.009	1	4
627.179	1	-2
627.348	1	19
627.518	1	3
627.688	1	10
627.857	1	9
628.027	1	0
628.196	1	6
628.366	1	8
628.536	1	10
628.705	1	13
628.875	1	7
629.044	1	15
629.214	1	15
629.384	1	5
629.553	1	15
629.723	1	-1
629.892	1	9
630.062	1	-3
630.232	1	27
630.401	1	5
630.571	1	21
630.740	1	-2
630.910	1	10
631.079	1	8
631.249	1	17
631.419	1	17
631.588	1	15
631.758	1	21
631.927	1	12
632.097	1	13
632.266	1	-3
632.436	1	9
632.606	1	5
632.775	1	13
632.945	1	5
633.114	1	13
633.284	1	9
633.453	1	18
633.623	1	17
633.793	1	12
633.962	1	14
634.132	1	10
634.301	1	10
634.471	1	6
634.640	1	8
634.810	1	8
634.979	1	5
635.149	1	4
635.319	1	18
635.488	1	8
635.658	1	21
635.827	1	8
635.997	1	13
636.166	1	10
636.336	1	7
636.505	1	16
636.675	1	2
636.845	1	17
637.014	1	15
637.184	1	15
637.353	1	10
637.523	1	17
637.692	1	2
637.862	1	3
638.031	1	0
638.201	1	-4
638.370	1	14
638.540	1	13
638.710	1	20
638.879	1	14
639.049	1	1
639.218	1	25
639.388	1	15
639.557	1	7
639.727	1	19
639.896	1	18
640.066	1	12
640.235	1	6
640.405	1	19
640.574	1	-3
640.744	1	-2
640.914	1	7
641.083	1	14
641.253	1	11
641.422	1	14
641.592	1	-3
641.761	1	12
641.931	1	9
642.100	1	15
642.270	1	0
642.439	1	0
642.609	1	21
642.778	1	20
642.948	1	9
643.117	1	10
643.287	1	12
643.456	1	7
643.626	1	9
643.795	1	19
643.965	1	14
644.134	1	10
644.304	1	13
644.473	1	3
644.643	1	8
644.812	1	7
644.982	1	3
645.151	1	14
645.321	1	5
645.490	1	16
645.660	1	3
645.829	1	13
645.999	1	9
646.168	1	15
646.338	1	17
646.507	1	9
646.677	1	8
646.846	1	10
647.016	1	11
647.185	1	10
647.355	1	11
647.524	1	2
647.694	1	11
647.863	1	14
648.033	1	13
648.202	1	18
648.372	1	10
648.541	1	0
648.711	1	14
648.880	1	5
649.050	1	8
649.219	1	12
649.389	1	11
649.558	1	17
649.728	1	8
649.897	1	8
650.067	1	15
650.236	1	12
650.406	1	12
650.575	1	18
650.745	1	9
650.914	1	13
651.084	1	15
651.253	1	9
651.423	1	15
651.592	1	7
651.762	1	11
651.931	1	14
652.101	1	4
652.270	1	8
652.440	1	17
652.609	1	17
652.778	1	6
652.948	1	13
653.117	1	5
653.287	1	11
653.456	1	8
653.626	1	13
653.795	1	5
653.965	1	0
654.134	1	3
654.304	1	12
654.473	1	9
654.643	1	7
654.812	1	14
654.982	1	12
655.151	1	18
655.320	1	19
655.490	1	11
655.659	1	13
655.829	1	13
655.998	1	1
656.168	1	13
656.337	1	13
656.507	1	8
656.676	1	7
656.846	1	18
657.015	1	5
657.184	1	13
657.354	1	12
657.523	1	3
657.693	1	4
657.862	1	12
658.032	1	17
658.201	1	14
658.371	1	3
658.540	1	5
658.709	1	7
658.879	1	21
659.048	1	13
659.218	1	2
659.387	1	16
659.557	1	11
659.726	1	14
659.895	1	-1
660.065	1	16
660.234	1	16
660.404	1	14
660.573	1	13
660.743	1	16
660.912	1	-1
661.081	1	2
661.251	1	15
661.420	1	28
661.590	1	12
661.759	1	4
661.929	1	16
662.098	1	19
662.267	1	10
662.437	1	18
662.606	1	6
662.776	1	3
662.945	1	13
663.115	1	11
663.284	1	11
663.453	1	12
663.623	1	26
663.792	1	15
663.962	1	8
664.131	1	14
664.300	1	-5
664.470	1	23
664.639	1	4
664.809	1	20
664.978	1	7
665.148	1	7
665.317	1	10
665.486	1	2
665.656	1	16
665.825	1	16
665.995	1	5
666.164	1	7
666.333	1	10
666.503	1	13
666.672	1	15
666.842	1	11
667.011	1	8
667.180	1	13
667.350	1	24
667.519	1	3
667.689	1	10
667.858	1	13
668.027	1	16
668.197	1	22
668.366	1	6
668.536	1	9
668.705	1	16
668.874	1	11
669.044	1	16
669.213	1	8
669.382	1	16
669.552	1	15
669.721	1	9
669.891	1	4
670.060	1	13
670.229	1	2
670.399	1	9
670.568	1	-2
670.738	1	18
670.907	1	10
671.076	1	20
671.246	1	8
671.415	1	16
671.584	1	11
671.754	1	16
671.923	1	14
672.093	1	3
672.262	1	9
672.431	1	18
672.601	1	11
672.770	1	13
672.939	1	14
673.109	1	17
673.278	1	2
673.448	1	12
673.617	1	15
673.786	1	6
