325.333	1	0
325.504	1	1
325.675	1	0
325.846	1	0
326.017	1	-4
326.188	1	3
326.359	1	4
326.531	1	12
326.702	1	8
326.873	1	-7
327.044	1	12
327.215	1	2
327.386	1	7
327.557	1	-3
327.728	1	10
327.899	1	-5
328.070	1	10
328.241	1	2
328.412	1	-13
328.583	1	0
328.754	1	1
328.926	1	3
329.097	1	-2
329.268	1	-10
329.439	1	4
329.610	1	4
329.781	1	11
329.952	1	-1
330.123	1	0
330.294	1	-3
330.465	1	4
330.636	1	9
330.807	1	7
330.978	1	-2
331.149	1	0
331.320	1	4
331.492	1	7
331.663	1	-10
331.834	1	-4
332.005	1	5
332.176	1	14
332.347	1	10
332.518	1	6
332.689	1	-3
332.860	1	2
333.031	1	10
333.202	1	1
333.373	1	-2
333.544	1	-3
333.715	1	0
333.886	1	3
334.057	1	1
334.228	1	-2
334.399	1	4
334.570	1	-8
334.741	1	-1
334.912	1	8
335.084	1	-4
335.255	1	6
335.426	1	9
335.597	1	10
335.768	1	10
335.939	1	2
336.110	1	4
336.281	1	3
336.452	1	4
336.623	1	-6
336.794	1	-1
336.965	1	-10
337.136	1	2
337.307	1	15
337.478	1	1
337.649	1	-3
337.820	1	-16
337.991	1	8
338.162	1	7
338.333	1	10
338.504	1	14
338.675	1	3
338.846	1	6
339.017	1	14
339.188	1	15
339.359	1	12
339.530	1	8
339.701	1	-1
339.872	1	6
340.043	1	-9
340.214	1	3
340.385	1	9
340.556	1	-4
340.727	1	-2
340.898	1	7
341.069	1	1
341.240	1	-4
341.411	1	8
341.582	1	17
341.753	1	-3
341.924	1	0
342.095	1	14
342.266	1	-12
342.437	1	-4
342.608	1	-5
342.779	1	16
342.950	1	4
343.121	1	-3
343.292	1	6
343.463	1	5
343.634	1	7
343.805	1	2
343.976	1	-5
344.147	1	1
344.318	1	3
344.489	1	12
344.660	1	7
344.831	1	10
345.002	1	4
345.173	1	4
345.344	1	-9
345.515	1	11
345.686	1	-9
345.857	1	3
346.028	1	-4
346.199	1	10
346.370	1	4
346.541	1	0
346.712	1	6
346.883	1	6
347.054	1	-2
347.225	1	-10
347.396	1	-11
347.567	1	-1
347.738	1	5
347.909	1	3
348.080	1	18
348.251	1	-2
348.422	1	-5
348.593	1	9
348.764	1	6
348.935	1	1
349.106	1	11
349.277	1	4
349.448	1	2
349.619	1	6
349.790	1	4
349.961	1	6
350.132	1	10
350.303	1	3
350.474	1	-3
350.645	1	13
350.816	1	0
350.987	1	9
351.157	1	2
351.328	1	4
351.499	1	2
351.670	1	5
351.841	1	1
352.012	1	11
352.183	1	5
352.354	1	-7
352.525	1	8
352.696	1	1
352.867	1	1
353.038	1	1
353.209	1	3
353.380	1	3
353.551	1	-7
353.722	1	5
353.893	1	10
354.064	1	6
354.235	1	7
354.406	1	4
354.576	1	4
354.747	1	10
354.918	1	18
355.089	1	5
355.260	1	8
355.431	1	4
355.602	1	-1
355.773	1	3
355.944	1	5
356.115	1	-2
356.286	1	9
356.457	1	4
356.628	1	-2
356.799	1	4
356.970	1	6
357.141	1	5
357.311	1	3
357.482	1	-3
357.653	1	0
357.824	1	0
357.995	1	5
358.166	1	4
358.337	1	5
358.508	1	-7
358.679	1	1
358.850	1	-3
359.021	1	-4
359.192	1	8
359.363	1	-3
359.533	1	-8
359.704	1	5
359.875	1	-5
360.046	1	-8
360.217	1	-10
360.388	1	-9
360.559	1	-2
360.730	1	4
360.901	1	5
361.072	1	6
361.243	1	4
361.414	1	-3
361.584	1	12
361.755	1	5
361.926	1	-4
362.097	1	0
362.268	1	10
362.439	1	8
362.610	1	-7
362.781	1	3
362.952	1	2
363.123	1	-2
363.293	1	-1
363.464	1	-3
363.635	1	9
363.806	1	2
363.977	1	5
364.148	1	6
364.319	1	0
364.490	1	6
364.661	1	2
364.832	1	5
365.002	1	-10
365.173	1	-12
365.344	1	-3
365.515	1	7
365.686	1	1
365.857	1	-3
366.028	1	6
366.199	1	13
366.370	1	1
366.540	1	5
366.711	1	17
366.882	1	-4
367.053	1	0
367.224	1	5
367.395	1	12
367.566	1	10
367.737	1	0
367.908	1	0
368.078	1	5
368.249	1	1
368.420	1	9
368.591	1	3
368.762	1	-9
368.933	1	11
369.104	1	7
369.274	1	13
369.445	1	6
369.616	1	3
369.787	1	5
369.958	1	12
370.129	1	8
370.300	1	-2
370.471	1	6
370.641	1	0
370.812	1	18
370.983	1	1
371.154	1	5
371.325	1	7
371.496	1	10
371.667	1	2
371.837	1	2
372.008	1	4
372.179	1	3
372.350	1	11
372.521	1	9
372.692	1	1
372.863	1	2
373.033	1	8
373.204	1	11
373.375	1	4
373.546	1	19
373.717	1	3
373.888	1	14
374.059	1	4
374.229	1	6
374.400	1	4
374.571	1	19
374.742	1	4
374.913	1	12
375.084	1	9
375.254	1	7
375.425	1	3
375.596	1	-5
375.767	1	4
375.938	1	-1
376.109	1	0
376.279	1	9
376.450	1	4
376.621	1	7
376.792	1	11
376.963	1	-12
377.134	1	0
377.304	1	8
377.475	1	1
377.646	1	1
377.817	1	1
377.988	1	4
378.159	1	8
378.329	1	9
378.500	1	-7
378.671	1	0
378.842	1	-2
379.013	1	1
379.184	1	11
379.354	1	7
379.525	1	-1
379.696	1	17
379.867	1	-4
380.038	1	0
380.209	1	-7
380.379	1	7
380.550	1	8
380.721	1	4
380.892	1	9
381.063	1	-1
381.233	1	6
381.404	1	4
381.575	1	8
381.746	1	15
381.917	1	1
382.087	1	6
382.258	1	9
382.429	1	14
382.600	1	6
382.771	1	1
382.941	1	10
383.112	1	0
383.283	1	5
383.454	1	3
383.625	1	5
383.795	1	14
383.966	1	3
384.137	1	8
384.308	1	7
384.479	1	12
384.649	1	6
384.820	1	7
384.991	1	-8
385.162	1	5
385.333	1	3
385.503	1	22
385.674	1	10
385.845	1	12
386.016	1	6
386.187	1	16
386.357	1	8
386.528	1	1
386.699	1	-4
386.870	1	3
387.041	1	6
387.211	1	9
387.382	1	-8
387.553	1	15
387.724	1	7
387.894	1	15
388.065	1	11
388.236	1	6
388.407	1	8
388.578	1	12
388.748	1	4
388.919	1	12
389.090	1	9
389.261	1	11
389.431	1	13
389.602	1	6
389.773	1	-1
389.944	1	9
390.114	1	17
390.285	1	5
390.456	1	4
390.627	1	14
390.798	1	16
390.968	1	1
391.139	1	0
391.310	1	17
391.481	1	8
391.651	1	11
391.822	1	4
391.993	1	6
392.164	1	-9
392.334	1	-2
392.505	1	8
392.676	1	-1
392.847	1	10
393.017	1	5
393.188	1	4
393.359	1	9
393.530	1	8
393.700	1	14
393.871	1	6
394.042	1	3
394.213	1	10
394.383	1	10
394.554	1	12
394.725	1	3
394.896	1	17
395.066	1	12
395.237	1	3
395.408	1	0
395.579	1	12
395.749	1	11
395.920	1	8
396.091	1	11
396.262	1	-5
396.432	1	-1
396.603	1	0
396.774	1	10
396.945	1	1
397.115	1	-2
397.286	1	24
397.457	1	8
397.627	1	1
397.798	1	10
397.969	1	11
398.140	1	2
398.310	1	5
398.481	1	17
398.652	1	14
398.823	1	5
398.993	1	22
399.164	1	5
399.335	1	6
399.505	1	7
399.676	1	17
399.847	1	11
400.018	1	10
400.188	1	17
400.359	1	23
400.530	1	6
400.700	1	3
400.871	1	19
401.042	1	7
401.213	1	7
401.383	1	4
401.554	1	21
401.725	1	9
401.895	1	-4
402.066	1	14
402.237	1	21
402.408	1	20
402.578	1	7
402.749	1	13
402.920	1	16
403.090	1	7
403.261	1	14
403.432	1	14
403.603	1	3
403.773	1	14
403.944	1	24
404.115	1	-1
404.285	1	7
404.456	1	15
404.627	1	-6
404.797	1	8
404.968	1	-1
405.139	1	20
405.310	1	8
405.480	1	3
405.651	1	24
405.822	1	16
405.992	1	8
406.163	1	13
406.334	1	15
406.504	1	-3
406.675	1	8
406.846	1	15
407.016	1	12
407.187	1	5
407.358	1	5
407.528	1	12
407.699	1	0
407.870	1	17
408.041	1	5
408.211	1	16
408.382	1	9
408.553	1	7
408.723	1	6
408.894	1	9
409.065	1	23
409.235	1	4
409.406	1	1
409.577	1	9
409.747	1	16
409.918	1	3
410.089	1	0
410.259	1	0
410.430	1	18
410.601	1	10
410.771	1	11
410.942	1	5
411.113	1	18
411.283	1	0
411.454	1	11
411.625	1	2
411.795	1	9
411.966	1	5
412.137	1	2
412.307	1	6
412.478	1	14
412.649	1	11
412.819	1	-2
412.990	1	5
413.161	1	9
413.331	1	8
413.502	1	0
413.672	1	4
413.843	1	14
414.014	1	20
414.184	1	14
414.355	1	7
414.526	1	14
414.696	1	20
414.867	1	2
415.038	1	2
415.208	1	6
415.379	1	6
415.550	1	9
415.720	1	9
415.891	1	13
416.062	1	8
416.232	1	16
416.403	1	8
416.573	1	9
416.744	1	2
416.915	1	11
417.085	1	12
417.256	1	10
417.427	1	12
417.597	1	12
417.768	1	5
417.939	1	18
418.109	1	-1
418.280	1	5
418.450	1	12
418.621	1	10
418.792	1	3
418.962	1	9
419.133	1	21
419.304	1	10
419.474	1	5
419.645	1	12
419.815	1	9
419.986	1	3
420.157	1	16
420.327	1	4
420.498	1	9
420.669	1	8
420.839	1	17
421.010	1	6
421.180	1	9
421.351	1	12
421.522	1	17
421.692	1	12
421.863	1	-4
422.033	1	20
422.204	1	13
422.375	1	5
422.545	1	8
422.716	1	16
422.886	1	13
423.057	1	6
423.228	1	8
423.398	1	6
423.569	1	11
423.740	1	-5
423.910	1	11
424.081	1	16
424.251	1	13
424.422	1	7
424.593	1	16
424.763	1	7
424.934	1	16
425.104	1	10
425.275	1	12
425.445	1	21
425.616	1	13
425.787	1	14
425.957	1	1
426.128	1	24
426.298	1	8
426.469	1	6
426.640	1	13
426.810	1	6
426.981	1	14
427.151	1	2
427.322	1	-5
427.493	1	0
427.663	1	5
427.834	1	17
428.004	1	11
428.175	1	14
428.345	1	10
428.516	1	6
428.687	1	12
428.857	1	12
429.028	1	9
429.198	1	6
429.369	1	8
429.540	1	10
429.710	1	14
429.881	1	14
430.051	1	-2
430.222	1	12
430.392	1	6
430.563	1	11
430.734	1	8
430.904	1	7
431.075	1	-2
431.245	1	15
431.416	1	-1
431.586	1	11
431.757	1	16
431.927	1	-1
432.098	1	13
432.269	1	11
432.439	1	9
432.610	1	12
432.780	1	6
432.951	1	8
433.121	1	20
433.292	1	2
433.462	1	11
433.633	1	26
433.804	1	0
433.974	1	4
434.145	1	10
434.315	1	14
434.486	1	3
434.656	1	8
434.827	1	10
434.997	1	14
435.168	1	7
435.339	1	10
435.509	1	4
435.680	1	1
435.850	1	9
436.021	1	9
436.191	1	15
436.362	1	12
436.532	1	4
436.703	1	17
436.873	1	19
437.044	1	1
437.214	1	15
437.385	1	12
437.556	1	11
437.726	1	10
437.897	1	7
438.067	1	8
438.238	1	5
438.408	1	13
438.579	1	9
438.749	1	3
438.920	1	3
439.090	1	4
439.261	1	0
439.431	1	9
439.602	1	8
439.772	1	8
439.943	1	13
440.113	1	16
440.284	1	10
440.455	1	8
440.625	1	-1
440.796	1	2
440.966	1	5
441.137	1	19
441.307	1	13
441.478	1	17
441.648	1	9
441.819	1	9
441.989	1	9
442.160	1	10
442.330	1	8
442.501	1	5
442.671	1	9
442.842	1	13
443.012	1	10
443.183	1	13
443.353	1	17
443.524	1	12
443.694	1	9
443.865	1	16
444.035	1	3
444.206	1	12
444.376	1	7
444.547	1	11
444.717	1	5
444.888	1	14
445.058	1	5
445.229	1	6
445.399	1	7
445.570	1	8
445.740	1	11
445.911	1	10
446.081	1	17
446.252	1	-2
446.422	1	17
446.593	1	9
446.763	1	15
446.934	1	15
447.104	1	8
447.275	1	9
447.445	1	2
447.616	1	9
447.786	1	5
447.957	1	11
448.127	1	23
448.298	1	9
448.468	1	12
448.639	1	3
448.809	1	19
448.979	1	16
449.150	1	0
449.320	1	5
449.491	1	10
449.661	1	17
449.832	1	14
450.002	1	18
450.173	1	5
450.343	1	8
450.514	1	4
450.684	1	16
450.855	1	7
451.025	1	10
451.196	1	6
451.366	1	5
451.537	1	1
451.707	1	21
451.878	1	6
452.048	1	4
452.218	1	3
452.389	1	8
452.559	1	11
452.730	1	6
452.900	1	13
453.071	1	7
453.241	1	12
453.412	1	17
453.582	1	0
453.753	1	10
453.923	1	20
454.093	1	15
454.264	1	3
454.434	1	10
454.605	1	4
454.775	1	-3
454.946	1	12
455.116	1	4
455.287	1	8
455.457	1	8
455.628	1	6
455.798	1	13
455.968	1	3
456.139	1	5
456.309	1	15
456.480	1	4
456.650	1	15
456.821	1	19
456.991	1	13
457.161	1	12
457.332	1	5
457.502	1	12
457.673	1	12
457.843	1	0
458.014	1	8
458.184	1	3
458.355	1	5
458.525	1	8
458.695	1	8
458.866	1	15
459.036	1	17
459.207	1	8
459.377	1	12
459.548	1	-4
459.718	1	11
459.888	1	12
460.059	1	21
460.229	1	4
460.400	1	11
460.570	1	1
460.740	1	11
460.911	1	4
461.081	1	21
461.252	1	6
461.422	1	9
461.593	1	12
461.763	1	16
461.933	1	14
462.104	1	10
462.274	1	-10
462.445	1	5
462.615	1	5
462.785	1	4
462.956	1	11
463.126	1	10
463.297	1	5
463.467	1	12
463.638	1	5
463.808	1	4
463.978	1	15
464.149	1	-3
464.319	1	12
464.490	1	8
464.660	1	2
464.830	1	15
465.001	1	3
465.171	1	9
465.342	1	0
465.512	1	5
465.682	1	3
465.853	1	-6
466.023	1	13
466.194	1	14
466.364	1	8
466.534	1	5
466.705	1	-4
466.875	1	4
467.045	1	4
467.216	1	16
467.386	1	10
467.557	1	11
467.727	1	23
467.897	1	6
468.068	1	-4
468.238	1	13
468.409	1	-2
468.579	1	11
468.749	1	-2
468.920	1	1
469.090	1	17
469.260	1	5
469.431	1	10
469.601	1	2
469.772	1	-1
469.942	1	4
470.112	1	10
470.283	1	13
470.453	1	18
470.623	1	-1
470.794	1	5
470.964	1	12
471.135	1	11
471.305	1	13
471.475	1	-3
471.646	1	8
471.816	1	-3
471.986	1	10
472.157	1	7
472.327	1	11
472.497	1	17
472.668	1	10
472.838	1	15
473.009	1	1
473.179	1	14
473.349	1	9
473.520	1	5
473.690	1	9
473.860	1	7
474.031	1	16
474.201	1	4
474.371	1	11
474.542	1	14
474.712	1	8
474.882	1	0
475.053	1	16
475.223	1	-3
475.394	1	-2
475.564	1	8
475.734	1	11
475.905	1	11
476.075	1	7
476.245	1	8
476.416	1	3
476.586	1	9
476.756	1	4
476.927	1	12
477.097	1	3
477.267	1	7
477.438	1	16
477.608	1	3
477.778	1	10
477.949	1	1
478.119	1	13
478.289	1	-4
478.460	1	-1
478.630	1	19
478.800	1	17
478.971	1	11
479.141	1	6
479.311	1	-1
479.482	1	6
479.652	1	9
479.822	1	9
479.993	1	6
480.163	1	19
480.333	1	10
480.504	1	5
480.674	1	1
480.844	1	-2
481.015	1	-2
481.185	1	-1
481.355	1	5
481.525	1	6
481.696	1	6
481.866	1	13
482.036	1	8
482.207	1	8
482.377	1	13
482.547	1	-3
482.718	1	1
482.888	1	6
483.058	1	1
483.229	1	-8
483.399	1	15
483.569	1	10
483.740	1	5
483.910	1	0
484.080	1	-1
484.250	1	4
484.421	1	8
484.591	1	8
484.761	1	8
484.932	1	6
485.102	1	11
485.272	1	1
485.443	1	8
485.613	1	13
485.783	1	16
485.953	1	11
486.124	1	6
486.294	1	2
486.464	1	-6
486.635	1	4
486.805	1	-1
486.975	1	7
487.146	1	5
487.316	1	7
487.486	1	-1
487.656	1	-1
487.827	1	4
487.997	1	5
488.167	1	10
488.338	1	-2
488.508	1	10
488.678	1	1
488.848	1	5
489.019	1	8
489.189	1	6
489.359	1	9
489.529	1	10
489.700	1	10
489.870	1	-9
490.040	1	0
490.211	1	2
490.381	1	12
490.551	1	7
490.721	1	9
490.892	1	7
491.062	1	-5
491.232	1	1
491.402	1	17
491.573	1	-4
491.743	1	0
491.913	1	2
492.084	1	10
492.254	1	12
492.424	1	1
492.594	1	26
492.765	1	4
492.935	1	6
493.105	1	9
493.275	1	9
493.446	1	-1
493.616	1	11
493.786	1	7
493.956	1	-6
494.127	1	15
494.297	1	-13
494.467	1	15
494.637	1	21
494.808	1	6
494.978	1	-6
495.148	1	10
495.318	1	17
495.489	1	-6
495.659	1	3
495.829	1	5
495.999	1	2
496.170	1	3
496.340	1	12
496.510	1	10
496.680	1	5
496.851	1	13
497.021	1	-3
497.191	1	-1
497.361	1	2
497.532	1	2
497.702	1	21
497.872	1	9
498.042	1	11
498.213	1	10
498.383	1	1
498.553	1	0
498.723	1	6
498.894	1	1
499.064	1	-1
499.234	1	10
499.404	1	-2
499.574	1	2
499.745	1	2
499.915	1	11
500.085	1	2
500.255	1	0
500.426	1	4
500.596	1	3
500.766	1	-6
500.936	1	9
501.106	1	-7
501.277	1	16
501.447	1	6
501.617	1	6
501.787	1	-1
501.958	1	1
502.128	1	-2
502.298	1	4
502.468	1	8
502.638	1	1
502.809	1	2
502.979	1	14
503.149	1	-13
503.319	1	7
503.489	1	-6
503.660	1	-2
503.830	1	5
504.000	1	4
504.170	1	3
504.340	1	8
504.511	1	7
504.681	1	0
504.851	1	5
505.021	1	6
505.192	1	-6
505.362	1	14
505.532	1	2
505.702	1	7
505.872	1	-5
506.043	1	11
506.213	1	8
506.383	1	3
506.553	1	7
506.723	1	13
506.893	1	-1
507.064	1	-7
507.234	1	5
507.404	1	-2
507.574	1	7
507.744	1	8
507.915	1	6
508.085	1	10
508.255	1	5
508.425	1	-3
508.595	1	-7
508.766	1	0
508.936	1	7
509.106	1	10
509.276	1	2
509.446	1	5
509.616	1	-2
509.787	1	15
509.957	1	4
510.127	1	4
510.297	1	1
510.467	1	-3
510.638	1	7
510.808	1	1
510.978	1	-8
511.148	1	14
511.318	1	1
511.488	1	8
511.659	1	-9
511.829	1	11
511.999	1	6
512.169	1	-2
512.339	1	10
512.509	1	10
512.680	1	13
512.850	1	12
513.020	1	-1
513.190	1	3
513.360	1	4
513.530	1	11
513.700	1	4
513.871	1	9
514.041	1	2
514.211	1	10
514.381	1	7
514.551	1	2
514.721	1	2
514.892	1	-3
515.062	1	2
515.232	1	7
515.402	1	1
515.572	1	4
515.742	1	8
515.912	1	0
516.083	1	-5
516.253	1	7
516.423	1	6
516.593	1	8
516.763	1	1
516.933	1	-8
517.104	1	1
517.274	1	-11
517.444	1	7
517.614	1	5
517.784	1	3
517.954	1	13
518.124	1	-1
518.294	1	11
518.465	1	-3
518.635	1	0
518.805	1	23
518.975	1	-5
519.145	1	12
519.315	1	0
519.485	1	-7
519.656	1	-1
519.826	1	0
519.996	1	-3
520.166	1	8
520.336	1	-3
520.506	1	-4
520.676	1	9
520.846	1	8
521.017	1	-9
521.187	1	10
521.357	1	-2
521.527	1	-4
521.697	1	1
521.867	1	11
522.037	1	-13
522.207	1	-14
522.377	1	3
522.548	1	7
522.718	1	-5
522.888	1	2
523.058	1	0
523.228	1	9
523.398	1	9
523.568	1	-3
523.738	1	0
523.909	1	17
524.079	1	-3
524.249	1	-2
524.419	1	6
524.589	1	5
524.759	1	10
524.929	1	-3
525.099	1	-6
525.269	1	16
525.439	1	8
525.610	1	0
525.780	1	-1
525.950	1	3
526.120	1	-7
526.290	1	-2
526.460	1	-9
526.630	1	12
526.800	1	7
526.970	1	5
527.140	1	6
527.311	1	-2
527.481	1	16
527.651	1	-5
527.821	1	-10
527.991	1	1
528.161	1	3
528.331	1	9
528.501	1	7
528.671	1	-3
528.841	1	1
529.011	1	0
529.181	1	3
529.352	1	-8
529.522	1	10
529.692	1	2
529.862	1	11
530.032	1	4
530.202	1	3
530.372	1	5
530.542	1	4
530.712	1	-1
530.882	1	-6
531.052	1	5
531.222	1	0
531.392	1	0
531.563	1	-1
531.733	1	0
531.903	1	7
532.073	1	6
532.243	1	4
532.413	1	4
532.583	1	-5
532.753	1	-2
532.923	1	-1
533.093	1	8
533.263	1	0
533.433	1	8
533.603	1	11
533.773	1	-2
533.943	1	7
534.113	1	2
534.284	1	6
534.454	1	-8
534.624	1	-1
534.794	1	-7
534.964	1	-1
535.134	1	10
535.304	1	15
535.474	1	-5
535.644	1	-4
535.814	1	5
535.984	1	7
536.154	1	5
536.324	1	15
536.494	1	2
536.664	1	4
536.834	1	-3
537.004	1	5
537.174	1	2
537.344	1	9
537.514	1	-3
537.685	1	0
537.855	1	8
538.025	1	7
538.195	1	2
538.365	1	-7
538.535	1	-5
538.705	1	7
538.875	1	5
539.045	1	2
539.215	1	-2
539.385	1	6
539.555	1	5
539.725	1	-3
539.895	1	6
540.065	1	2
540.235	1	2
540.405	1	-2
540.575	1	3
540.745	1	-3
540.915	1	1
541.085	1	-13
541.255	1	-5
541.425	1	5
541.595	1	-4
541.765	1	5
541.935	1	-13
542.105	1	5
542.275	1	1
542.445	1	-4
542.615	1	-2
542.785	1	-1
542.955	1	-1
543.125	1	-13
543.295	1	1
543.465	1	6
543.635	1	0
543.805	1	7
543.975	1	0
544.145	1	0
544.315	1	-7
544.485	1	-4
544.655	1	9
544.825	1	1
544.995	1	11
545.165	1	3
545.335	1	0
545.505	1	2
545.675	1	-1
545.845	1	1
546.015	1	3
546.185	1	-6
546.355	1	0
546.525	1	5
546.695	1	-7
546.865	1	-3
547.035	1	5
547.205	1	12
547.375	1	4
547.545	1	13
547.715	1	6
547.885	1	8
548.055	1	-10
548.225	1	1
548.395	1	-3
548.565	1	14
548.735	1	-3
548.905	1	0
549.075	1	2
549.245	1	3
549.415	1	-1
549.585	1	10
549.755	1	9
549.925	1	5
550.095	1	-2
550.265	1	9
550.435	1	-14
550.605	1	-1
550.775	1	-1
550.945	1	12
551.115	1	3
551.285	1	2
551.455	1	6
551.625	1	-10
551.795	1	4
551.965	1	13
552.135	1	-11
552.305	1	-4
552.475	1	2
552.645	1	3
552.815	1	-1
552.985	1	-2
553.155	1	-4
553.325	1	6
553.495	1	4
553.665	1	13
553.835	1	-1
554.004	1	-6
554.174	1	2
554.344	1	-1
554.514	1	7
554.684	1	-1
554.854	1	-4
555.024	1	-6
555.194	1	2
555.364	1	3
555.534	1	-4
555.704	1	14
555.874	1	-5
556.044	1	16
556.214	1	3
556.384	1	6
556.554	1	-6
556.724	1	4
556.894	1	-4
557.064	1	0
557.234	1	1
557.404	1	-6
557.573	1	0
557.743	1	1
557.913	1	-11
558.083	1	10
558.253	1	-2
558.423	1	1
558.593	1	-7
558.763	1	-3
558.933	1	4
559.103	1	17
559.273	1	-7
559.443	1	10
559.613	1	4
559.783	1	0
559.953	1	8
560.122	1	1
560.292	1	-1
560.462	1	-6
560.632	1	5
560.802	1	5
560.972	1	7
561.142	1	11
561.312	1	5
561.482	1	13
561.652	1	0
561.822	1	-9
561.992	1	-11
562.162	1	7
562.331	1	4
562.501	1	-7
562.671	1	16
562.841	1	-4
563.011	1	-6
563.181	1	5
563.351	1	9
563.521	1	1
563.691	1	1
563.861	1	-5
564.031	1	-1
564.201	1	-6
564.370	1	-2
564.540	1	-7
564.710	1	3
564.880	1	3
565.050	1	3
565.220	1	-3
565.390	1	-5
565.560	1	6
565.730	1	4
565.900	1	4
566.069	1	-9
566.239	1	-2
566.409	1	-3
566.579	1	5
566.749	1	-2
566.919	1	5
567.089	1	4
567.259	1	1
567.429	1	-2
567.599	1	0
567.768	1	9
567.938	1	-5
568.108	1	3
568.278	1	-2
568.448	1	8
568.618	1	6
568.788	1	-18
568.958	1	-6
569.128	1	-3
569.297	1	-6
569.467	1	4
569.637	1	4
569.807	1	-5
569.977	1	8
570.147	1	-6
570.317	1	-3
570.487	1	4
570.656	1	2
570.826	1	3
570.996	1	2
571.166	1	0
571.336	1	-5
571.506	1	4
571.676	1	-1
571.846	1	-4
572.015	1	0
572.185	1	2
572.355	1	4
572.525	1	-2
572.695	1	5
572.865	1	10
573.035	1	0
573.205	1	0
573.374	1	10
573.544	1	-3
573.714	1	5
573.884	1	2
574.054	1	3
574.224	1	1
574.394	1	-10
574.563	1	6
574.733	1	6
574.903	1	3
575.073	1	9
575.243	1	-2
575.413	1	0
575.583	1	2
575.752	1	2
575.922	1	9
576.092	1	-4
576.262	1	8
576.432	1	7
576.602	1	5
576.772	1	-8
576.941	1	3
577.111	1	1
577.281	1	14
577.451	1	-3
577.621	1	8
577.791	1	2
577.960	1	-10
578.130	1	-1
578.300	1	0
578.470	1	7
578.640	1	-12
578.810	1	1
578.979	1	-4
579.149	1	4
579.319	1	-2
579.489	1	4
579.659	1	2
579.829	1	3
579.998	1	8
580.168	1	-5
580.338	1	7
580.508	1	2
580.678	1	10
580.848	1	-3
581.017	1	9
581.187	1	12
581.357	1	-2
581.527	1	-5
581.697	1	-4
581.867	1	3
582.036	1	3
582.206	1	-3
582.376	1	11
582.546	1	18
582.716	1	-6
582.885	1	-3
583.055	1	-4
583.225	1	-7
583.395	1	0
583.565	1	6
583.735	1	2
583.904	1	13
584.074	1	2
584.244	1	-3
584.414	1	-10
584.584	1	1
584.753	1	1
584.923	1	4
585.093	1	-1
585.263	1	3
585.433	1	26
585.602	1	5
585.772	1	3
585.942	1	2
586.112	1	2
586.282	1	7
586.451	1	-4
586.621	1	-4
586.791	1	1
586.961	1	2
587.131	1	0
587.300	1	4
587.470	1	2
587.640	1	-5
587.810	1	-3
587.980	1	-14
588.149	1	1
588.319	1	-1
588.489	1	-3
588.659	1	11
588.829	1	-15
588.998	1	1
589.168	1	0
589.338	1	-7
589.508	1	7
589.677	1	2
589.847	1	-5
590.017	1	4
590.187	1	-2
590.357	1	4
590.526	1	12
590.696	1	-2
590.866	1	-3
591.036	1	-1
591.205	1	2
591.375	1	3
591.545	1	-1
591.715	1	-1
591.885	1	1
592.054	1	13
592.224	1	-4
592.394	1	-5
592.564	1	-4
592.733	1	7
592.903	1	-1
593.073	1	-9
593.243	1	4
593.412	1	-5
593.582	1	-4
593.752	1	1
593.922	1	13
594.091	1	-12
594.261	1	4
594.431	1	9
594.601	1	2
594.771	1	9
594.940	1	3
595.110	1	5
595.280	1	6
595.450	1	4
595.619	1	1
595.789	1	7
595.959	1	3
596.129	1	-6
596.298	1	3
596.468	1	-3
596.638	1	5
596.808	1	4
596.977	1	-4
597.147	1	10
597.317	1	0
597.487	1	10
597.656	1	9
597.826	1	-3
597.996	1	0
598.166	1	3
598.335	1	0
598.505	1	-8
598.675	1	-2
598.844	1	-6
599.014	1	10
599.184	1	2
599.354	1	3
599.523	1	10
599.693	1	1
599.863	1	3
600.033	1	-5
600.202	1	13
600.372	1	6
600.542	1	0
600.712	1	6
600.881	1	16
601.051	1	2
601.221	1	13
601.390	1	2
601.560	1	12
601.730	1	-3
601.900	1	10
602.069	1	-10
602.239	1	9
602.409	1	3
602.578	1	13
602.748	1	-12
602.918	1	8
603.088	1	3
603.257	1	1
603.427	1	8
603.597	1	-12
603.767	1	5
603.936	1	16
604.106	1	5
604.276	1	5
604.445	1	-7
604.615	1	-9
604.785	1	0
604.954	1	7
605.124	1	3
605.294	1	-5
605.464	1	-9
605.633	1	13
605.803	1	2
605.973	1	6
606.142	1	9
606.312	1	7
606.482	1	3
606.652	1	4
606.821	1	3
606.991	1	-8
607.161	1	10
607.330	1	-1
607.500	1	0
607.670	1	-2
607.839	1	-1
608.009	1	7
608.179	1	-9
608.348	1	1
608.518	1	3
608.688	1	5
608.858	1	6
609.027	1	-7
609.197	1	7
609.367	1	-5
609.536	1	5
609.706	1	-2
609.876	1	2
610.045	1	6
610.215	1	10
610.385	1	-5
610.554	1	3
610.724	1	6
610.894	1	1
611.063	1	1
611.233	1	-9
611.403	1	5
611.572	1	3
611.742	1	-5
611.912	1	6
612.081	1	4
612.251	1	10
612.421	1	13
612.590	1	-1
612.760	1	12
612.930	1	4
613.099	1	2
613.269	1	0
613.439	1	-8
613.608	1	3
613.778	1	-10
613.948	1	13
614.117	1	0
614.287	1	-2
614.457	1	-2
614.626	1	12
614.796	1	4
614.966	1	7
615.135	1	2
615.305	1	6
615.475	1	2
615.644	1	1
615.814	1	0
615.984	1	6
616.153	1	-5
616.323	1	-9
616.493	1	18
616.662	1	-5
616.832	1	2
617.002	1	4
617.171	1	-1
617.341	1	-4
617.511	1	-15
617.680	1	0
617.850	1	5
618.019	1	5
618.189	1	2
618.359	1	-2
618.528	1	-6
618.698	1	3
618.868	1	6
619.037	1	7
619.207	1	12
619.377	1	-5
619.546	1	-4
619.716	1	-3
619.885	1	-3
620.055	1	13
620.225	1	15
620.394	1	8
620.564	1	-2
620.734	1	-4
620.903	1	12
621.073	1	-2
621.242	1	-7
621.412	1	3
621.582	1	7
621.751	1	0
621.921	1	15
622.091	1	2
622.260	1	6
622.430	1	11
622.599	1	11
622.769	1	6
622.939	1	-7
623.108	1	5
623.278	1	16
623.448	1	4
623.617	1	2
623.787	1	9
623.956	1	15
624.126	1	-1
624.296	1	9
624.465	1	-1
624.635	1	3
624.804	1	0
624.974	1	4
625.144	1	21
625.313	1	6
625.483	1	7
625.652	1	18
625.822	1	8
625.992	1	11
626.161	1	-7
626.331	1	5
626.501	1	6
626.670	1	8
626.840	1	5
627.009	1	3
627.179	1	-11
627.348	1	4
627.518	1	2
627.688	1	7
627.857	1	2
628.027	1	-8
628.196	1	-7
628.366	1	8
628.536	1	8
628.705	1	1
628.875	1	12
629.044	1	5
629.214	1	-1
629.384	1	5
629.553	1	3
629.723	1	-7
629.892	1	-3
630.062	1	-13
630.232	1	6
630.401	1	6
630.571	1	11
630.740	1	-2
630.910	1	2
631.079	1	0
631.249	1	10
631.419	1	1
631.588	1	-8
631.758	1	2
631.927	1	-2
632.097	1	3
632.266	1	-3
632.436	1	10
632.606	1	-6
632.775	1	8
632.945	1	-1
633.114	1	3
633.284	1	4
633.453	1	11
633.623	1	15
633.793	1	-4
633.962	1	-7
634.132	1	5
634.301	1	-2
634.471	1	-4
634.640	1	6
634.810	1	4
634.979	1	5
635.149	1	0
635.319	1	-5
635.488	1	-6
635.658	1	9
635.827	1	-1
635.997	1	4
636.166	1	1
636.336	1	2
636.505	1	8
636.675	1	11
636.845	1	10
637.014	1	6
637.184	1	11
637.353	1	3
637.523	1	2
637.692	1	2
637.862	1	-4
638.031	1	-9
638.201	1	4
638.370	1	8
638.540	1	8
638.710	1	7
638.879	1	9
639.049	1	-3
639.218	1	14
639.388	1	2
639.557	1	12
639.727	1	9
639.896	1	-5
640.066	1	-1
640.235	1	5
640.405	1	1
640.574	1	4
640.744	1	2
640.914	1	17
641.083	1	-1
641.253	1	-2
641.422	1	-2
641.592	1	-8
641.761	1	-4
641.931	1	-1
642.100	1	8
642.270	1	2
642.439	1	3
642.609	1	10
642.778	1	-1
642.948	1	3
643.117	1	11
643.287	1	-2
643.456	1	3
643.626	1	5
643.795	1	5
643.965	1	1
644.134	1	1
644.304	1	14
644.473	1	6
644.643	1	-10
644.812	1	7
644.982	1	0
645.151	1	3
645.321	1	2
645.490	1	13
645.660	1	6
645.829	1	-1
645.999	1	-2
646.168	1	4
646.338	1	-4
646.507	1	-8
646.677	1	-4
646.846	1	-1
647.016	1	-2
647.185	1	0
647.355	1	0
647.524	1	10
647.694	1	-1
647.863	1	6
648.033	1	-5
648.202	1	3
648.372	1	1
648.541	1	7
648.711	1	-4
648.880	1	5
649.050	1	-2
649.219	1	9
649.389	1	5
649.558	1	9
649.728	1	-2
649.897	1	-5
650.067	1	-1
650.236	1	-3
650.406	1	12
650.575	1	7
650.745	1	5
650.914	1	5
651.084	1	11
651.253	1	2
651.423	1	6
651.592	1	-9
651.762	1	-6
651.931	1	3
652.101	1	6
652.270	1	-7
652.440	1	6
652.609	1	3
652.778	1	10
652.948	1	1
653.117	1	7
653.287	1	-3
653.456	1	3
653.626	1	0
653.795	1	-5
653.965	1	-7
654.134	1	-2
654.304	1	17
654.473	1	-3
654.643	1	12
654.812	1	8
654.982	1	10
655.151	1	7
655.320	1	7
655.490	1	2
655.659	1	1
655.829	1	1
655.998	1	-9
656.168	1	1
656.337	1	-1
656.507	1	-9
656.676	1	5
656.846	1	-4
657.015	1	-1
657.184	1	-2
657.354	1	9
657.523	1	2
657.693	1	-6
657.862	1	-3
658.032	1	11
658.201	1	13
658.371	1	-6
658.540	1	11
658.709	1	-8
658.879	1	10
659.048	1	-4
659.218	1	-6
659.387	1	7
659.557	1	5
659.726	1	-2
659.895	1	-5
660.065	1	8
660.234	1	2
660.404	1	2
660.573	1	4
660.743	1	2
660.912	1	-5
661.081	1	-8
661.251	1	3
661.420	1	12
661.590	1	7
661.759	1	-5
661.929	1	4
662.098	1	8
662.267	1	6
662.437	1	6
662.606	1	-3
662.776	1	-4
662.945	1	4
663.115	1	2
663.284	1	0
663.453	1	7
663.623	1	19
663.792	1	-1
663.962	1	-3
664.131	1	-1
664.300	1	-13
664.470	1	1
664.639	1	3
664.809	1	7
664.978	1	0
665.148	1	-1
665.317	1	-10
665.486	1	11
665.656	1	5
665.825	1	10
665.995	1	-5
666.164	1	18
666.333	1	-4
666.503	1	3
666.672	1	13
666.842	1	1
667.011	1	3
667.180	1	8
667.350	1	3
667.519	1	1
667.689	1	-6
667.858	1	6
668.027	1	0
668.197	1	7
668.366	1	2
668.536	1	8
668.705	1	12
668.874	1	6
669.044	1	5
669.213	1	3
669.382	1	11
669.552	1	4
669.721	1	7
669.891	1	3
670.060	1	4
670.229	1	-5
670.399	1	6
670.568	1	5
670.738	1	6
670.907	1	3
671.076	1	-5
671.246	1	-6
671.415	1	8
671.584	1	-3
671.754	1	4
671.923	1	10
672.093	1	-4
672.262	1	1
672.431	1	7
672.601	1	12
672.770	1	9
672.939	1	1
673.109	1	12
673.278	1	0
673.448	1	7
673.617	1	9
673.786	1	1
