325.333	1	-4
325.504	1	7
325.675	1	4
325.846	1	0
326.017	1	-1
326.188	1	2
326.359	1	-2
326.531	1	7
326.702	1	5
326.873	1	-4
327.044	1	8
327.215	1	-13
327.386	1	2
327.557	1	8
327.728	1	8
327.899	1	1
328.070	1	3
328.241	1	7
328.412	1	-9
328.583	1	6
328.754	1	-1
328.926	1	9
329.097	1	0
329.268	1	-1
329.439	1	-3
329.610	1	8
329.781	1	3
329.952	1	1
330.123	1	3
330.294	1	5
330.465	1	9
330.636	1	16
330.807	1	3
330.978	1	-1
331.149	1	4
331.320	1	5
331.492	1	-6
331.663	1	7
331.834	1	-1
332.005	1	1
332.176	1	4
332.347	1	7
332.518	1	13
332.689	1	4
332.860	1	4
333.031	1	2
333.202	1	-1
333.373	1	0
333.544	1	-6
333.715	1	1
333.886	1	9
334.057	1	5
334.228	1	4
334.399	1	9
334.570	1	-6
334.741	1	1
334.912	1	3
335.084	1	-5
335.255	1	5
335.426	1	4
335.597	1	9
335.768	1	0
335.939	1	-1
336.110	1	5
336.281	1	8
336.452	1	-2
336.623	1	-6
336.794	1	3
336.965	1	7
337.136	1	12
337.307	1	4
337.478	1	5
337.649	1	-5
337.820	1	-3
337.991	1	5
338.162	1	3
338.333	1	5
338.504	1	6
338.675	1	7
338.846	1	14
339.017	1	5
339.188	1	18
339.359	1	9
339.530	1	3
339.701	1	-1
339.872	1	3
340.043	1	-1
340.214	1	-2
340.385	1	20
340.556	1	3
340.727	1	11
340.898	1	12
341.069	1	-10
341.240	1	1
341.411	1	6
341.582	1	11
341.753	1	-2
341.924	1	9
342.095	1	18
342.266	1	-10
342.437	1	-1
342.608	1	-5
342.779	1	10
342.950	1	3
343.121	1	5
343.292	1	12
343.463	1	7
343.634	1	11
343.805	1	5
343.976	1	-3
344.147	1	1
344.318	1	15
344.489	1	15
344.660	1	7
344.831	1	4
345.002	1	7
345.173	1	7
345.344	1	-9
345.515	1	8
345.686	1	-10
345.857	1	8
346.028	1	-6
346.199	1	12
346.370	1	-1
346.541	1	1
346.712	1	-4
346.883	1	10
347.054	1	-1
347.225	1	-8
347.396	1	-1
347.567	1	3
347.738	1	12
347.909	1	7
348.080	1	9
348.251	1	4
348.422	1	3
348.593	1	6
348.764	1	0
348.935	1	-2
349.106	1	10
349.277	1	0
349.448	1	6
349.619	1	3
349.790	1	8
349.961	1	7
350.132	1	12
350.303	1	8
350.474	1	10
350.645	1	12
350.816	1	0
350.987	1	4
351.157	1	2
351.328	1	5
351.499	1	9
351.670	1	4
351.841	1	-4
352.012	1	7
352.183	1	4
352.354	1	8
352.525	1	8
352.696	1	6
352.867	1	6
353.038	1	9
353.209	1	3
353.380	1	3
353.551	1	0
353.722	1	9
353.893	1	6
354.064	1	3
354.235	1	12
354.406	1	3
354.576	1	2
354.747	1	9
354.918	1	14
355.089	1	0
355.260	1	9
355.431	1	13
355.602	1	9
355.773	1	6
355.944	1	3
356.115	1	-8
356.286	1	10
356.457	1	7
356.628	1	-1
356.799	1	10
356.970	1	3
357.141	1	5
357.311	1	-1
357.482	1	2
357.653	1	5
357.824	1	12
357.995	1	12
358.166	1	7
358.337	1	7
358.508	1	-2
358.679	1	8
358.850	1	-3
359.021	1	7
359.192	1	9
359.363	1	-7
359.533	1	3
359.704	1	-4
359.875	1	6
360.046	1	5
360.217	1	-5
360.388	1	-9
360.559	1	11
360.730	1	6
360.901	1	2
361.072	1	10
361.243	1	6
361.414	1	2
361.584	1	12
361.755	1	6
361.926	1	2
362.097	1	3
362.268	1	14
362.439	1	8
362.610	1	6
362.781	1	9
362.952	1	6
363.123	1	0
363.293	1	1
363.464	1	1
363.635	1	5
363.806	1	6
363.977	1	12
364.148	1	4
364.319	1	0
364.490	1	-1
364.661	1	6
364.832	1	10
365.002	1	10
365.173	1	-5
365.344	1	4
365.515	1	6
365.686	1	10
365.857	1	1
366.028	1	0
366.199	1	9
366.370	1	4
366.540	1	1
366.711	1	8
366.882	1	5
367.053	1	4
367.224	1	3
367.395	1	18
367.566	1	17
367.737	1	10
367.908	1	3
368.078	1	5
368.249	1	1
368.420	1	9
368.591	1	3
368.762	1	-7
368.933	1	17
369.104	1	0
369.274	1	4
369.445	1	11
369.616	1	6
369.787	1	8
369.958	1	10
370.129	1	5
370.300	1	3
370.471	1	4
370.641	1	-2
370.812	1	13
370.983	1	-1
371.154	1	9
371.325	1	12
371.496	1	-1
371.667	1	-2
371.837	1	6
372.008	1	14
372.179	1	6
372.350	1	8
372.521	1	5
372.692	1	2
372.863	1	6
373.033	1	14
373.204	1	14
373.375	1	-1
373.546	1	14
373.717	1	7
373.888	1	11
374.059	1	8
374.229	1	7
374.400	1	15
374.571	1	9
374.742	1	5
374.913	1	11
375.084	1	16
375.254	1	4
375.425	1	2
375.596	1	11
375.767	1	-1
375.938	1	-2
376.109	1	-3
376.279	1	12
376.450	1	3
376.621	1	18
376.792	1	15
376.963	1	6
377.134	1	2
377.304	1	6
377.475	1	8
377.646	1	-1
377.817	1	1
377.988	1	6
378.159	1	13
378.329	1	5
378.500	1	11
378.671	1	0
378.842	1	18
379.013	1	6
379.184	1	8
379.354	1	5
379.525	1	8
379.696	1	16
379.867	1	-5
380.038	1	4
380.209	1	7
380.379	1	10
380.550	1	14
380.721	1	11
380.892	1	6
381.063	1	5
381.233	1	9
381.404	1	3
381.575	1	7
381.746	1	16
381.917	1	-1
382.087	1	11
382.258	1	11
382.429	1	18
382.600	1	4
382.771	1	14
382.941	1	-6
383.112	1	-3
383.283	1	13
383.454	1	6
383.625	1	5
383.795	1	12
383.966	1	6
384.137	1	2
384.308	1	0
384.479	1	19
384.649	1	15
384.820	1	12
384.991	1	-1
385.162	1	10
385.333	1	0
385.503	1	4
385.674	1	19
385.845	1	9
386.016	1	6
386.187	1	7
386.357	1	6
386.528	1	2
386.699	1	3
386.870	1	6
387.041	1	9
387.211	1	3
387.382	1	7
387.553	1	11
387.724	1	6
387.894	1	13
388.065	1	19
388.236	1	9
388.407	1	21
388.578	1	17
388.748	1	6
388.919	1	19
389.090	1	9
389.261	1	20
389.431	1	6
389.602	1	3
389.773	1	10
389.944	1	11
390.114	1	16
390.285	1	10
390.456	1	13
390.627	1	16
390.798	1	13
390.968	1	1
391.139	1	10
391.310	1	9
391.481	1	8
391.651	1	9
391.822	1	22
391.993	1	6
392.164	1	-3
392.334	1	3
392.505	1	8
392.676	1	11
392.847	1	18
393.017	1	8
393.188	1	3
393.359	1	2
393.530	1	19
393.700	1	19
393.871	1	6
394.042	1	16
394.213	1	17
394.383	1	17
394.554	1	11
394.725	1	15
394.896	1	10
395.066	1	2
395.237	1	-3
395.408	1	6
395.579	1	10
395.749	1	17
395.920	1	9
396.091	1	11
396.262	1	2
396.432	1	4
396.603	1	3
396.774	1	7
396.945	1	8
397.115	1	9
397.286	1	22
397.457	1	2
397.627	1	17
397.798	1	11
397.969	1	9
398.140	1	10
398.310	1	17
398.481	1	20
398.652	1	4
398.823	1	12
398.993	1	28
399.164	1	6
399.335	1	0
399.505	1	12
399.676	1	13
399.847	1	16
400.018	1	10
400.188	1	14
400.359	1	22
400.530	1	8
400.700	1	11
400.871	1	11
401.042	1	9
401.213	1	10
401.383	1	17
401.554	1	15
401.725	1	8
401.895	1	4
402.066	1	16
402.237	1	14
402.408	1	16
402.578	1	10
402.749	1	7
402.920	1	16
403.090	1	12
403.261	1	23
403.432	1	13
403.603	1	2
403.773	1	22
403.944	1	16
404.115	1	2
404.285	1	24
404.456	1	12
404.627	1	5
404.797	1	8
404.968	1	13
405.139	1	13
405.310	1	6
405.480	1	11
405.651	1	11
405.822	1	19
405.992	1	7
406.163	1	15
406.334	1	17
406.504	1	7
406.675	1	6
406.846	1	14
407.016	1	5
407.187	1	9
407.358	1	7
407.528	1	24
407.699	1	4
407.870	1	24
408.041	1	-1
408.211	1	12
408.382	1	7
408.553	1	0
408.723	1	12
408.894	1	7
409.065	1	20
409.235	1	18
409.406	1	14
409.577	1	12
409.747	1	14
409.918	1	3
410.089	1	7
410.259	1	7
410.430	1	16
410.601	1	12
410.771	1	16
410.942	1	3
411.113	1	20
411.283	1	10
411.454	1	20
411.625	1	5
411.795	1	4
411.966	1	0
412.137	1	13
412.307	1	4
412.478	1	11
412.649	1	11
412.819	1	3
412.990	1	8
413.161	1	7
413.331	1	5
413.502	1	8
413.672	1	17
413.843	1	16
414.014	1	25
414.184	1	15
414.355	1	16
414.526	1	23
414.696	1	15
414.867	1	13
415.038	1	5
415.208	1	16
415.379	1	8
415.550	1	5
415.720	1	8
415.891	1	23
416.062	1	13
416.232	1	9
416.403	1	21
416.573	1	5
416.744	1	17
416.915	1	16
417.085	1	11
417.256	1	11
417.427	1	15
417.597	1	7
417.768	1	13
417.939	1	19
418.109	1	-7
418.280	1	10
418.450	1	16
418.621	1	15
418.792	1	17
418.962	1	8
419.133	1	12
419.304	1	7
419.474	1	11
419.645	1	1
419.815	1	3
419.986	1	10
420.157	1	22
420.327	1	7
420.498	1	11
420.669	1	17
420.839	1	13
421.010	1	8
421.180	1	1
421.351	1	19
421.522	1	18
421.692	1	19
421.863	1	12
422.033	1	13
422.204	1	17
422.375	1	6
422.545	1	19
422.716	1	8
422.886	1	22
423.057	1	2
423.228	1	14
423.398	1	11
423.569	1	18
423.740	1	3
423.910	1	27
424.081	1	6
424.251	1	6
424.422	1	-3
424.593	1	15
424.763	1	10
424.934	1	22
425.104	1	8
425.275	1	15
425.445	1	30
425.616	1	19
425.787	1	16
425.957	1	6
426.128	1	21
426.298	1	16
426.469	1	-4
426.640	1	12
426.810	1	12
426.981	1	17
427.151	1	4
427.322	1	8
427.493	1	8
427.663	1	7
427.834	1	4
428.004	1	9
428.175	1	10
428.345	1	21
428.516	1	11
428.687	1	9
428.857	1	6
429.028	1	17
429.198	1	12
429.369	1	14
429.540	1	1
429.710	1	16
429.881	1	15
430.051	1	10
430.222	1	8
430.392	1	18
430.563	1	10
430.734	1	13
430.904	1	24
431.075	1	0
431.245	1	13
431.416	1	-6
431.586	1	14
431.757	1	7
431.927	1	0
432.098	1	25
432.269	1	18
432.439	1	20
432.610	1	13
432.780	1	22
432.951	1	8
433.121	1	12
433.292	1	21
433.462	1	26
433.633	1	18
433.804	1	5
433.974	1	8
434.145	1	9
434.315	1	19
434.486	1	-4
434.656	1	15
434.827	1	12
434.997	1	15
435.168	1	13
435.339	1	14
435.509	1	17
435.680	1	17
435.850	1	5
436.021	1	15
436.191	1	21
436.362	1	23
436.532	1	18
436.703	1	26
436.873	1	10
437.044	1	21
437.214	1	22
437.385	1	14
437.556	1	-2
437.726	1	8
437.897	1	9
438.067	1	12
438.238	1	16
438.408	1	18
438.579	1	19
438.749	1	6
438.920	1	9
439.090	1	8
439.261	1	6
439.431	1	15
439.602	1	8
439.772	1	14
439.943	1	20
440.113	1	20
440.284	1	16
440.455	1	11
440.625	1	12
440.796	1	9
440.966	1	9
441.137	1	18
441.307	1	7
441.478	1	21
441.648	1	17
441.819	1	11
441.989	1	5
442.160	1	13
442.330	1	19
442.501	1	5
442.671	1	10
442.842	1	13
443.012	1	4
443.183	1	13
443.353	1	27
443.524	1	6
443.694	1	16
443.865	1	14
444.035	1	10
444.206	1	0
444.376	1	21
444.547	1	5
444.717	1	20
444.888	1	8
445.058	1	6
445.229	1	11
445.399	1	11
445.570	1	5
445.740	1	15
445.911	1	22
446.081	1	11
446.252	1	-3
446.422	1	18
446.593	1	20
446.763	1	18
446.934	1	13
447.104	1	5
447.275	1	20
447.445	1	9
447.616	1	6
447.786	1	10
447.957	1	0
448.127	1	27
448.298	1	12
448.468	1	15
448.639	1	12
448.809	1	18
448.979	1	15
449.150	1	4
449.320	1	16
449.491	1	18
449.661	1	10
449.832	1	15
450.002	1	16
450.173	1	15
450.343	1	8
450.514	1	13
450.684	1	8
450.855	1	8
451.025	1	11
451.196	1	15
451.366	1	12
451.537	1	11
451.707	1	16
451.878	1	13
452.048	1	10
452.218	1	3
452.389	1	16
452.559	1	16
452.730	1	11
452.900	1	19
453.071	1	16
453.241	1	7
453.412	1	10
453.582	1	6
453.753	1	18
453.923	1	8
454.093	1	20
454.264	1	9
454.434	1	10
454.605	1	11
454.775	1	13
454.946	1	10
455.116	1	1
455.287	1	12
455.457	1	8
455.628	1	10
455.798	1	-2
455.968	1	13
456.139	1	5
456.309	1	30
456.480	1	3
456.650	1	23
456.821	1	24
456.991	1	10
457.161	1	17
457.332	1	7
457.502	1	13
457.673	1	14
457.843	1	9
458.014	1	11
458.184	1	7
458.355	1	10
458.525	1	13
458.695	1	14
458.866	1	22
459.036	1	12
459.207	1	20
459.377	1	14
459.548	1	3
459.718	1	15
459.888	1	17
460.059	1	26
460.229	1	15
460.400	1	0
460.570	1	16
460.740	1	10
460.911	1	16
461.081	1	18
461.252	1	10
461.422	1	4
461.593	1	13
461.763	1	18
461.933	1	12
462.104	1	8
462.274	1	-3
462.445	1	8
462.615	1	15
462.785	1	7
462.956	1	6
463.126	1	14
463.297	1	14
463.467	1	16
463.638	1	16
463.808	1	15
463.978	1	9
464.149	1	7
464.319	1	15
464.490	1	10
464.660	1	7
464.830	1	5
465.001	1	6
465.171	1	9
465.342	1	3
465.512	1	10
465.682	1	4
465.853	1	8
466.023	1	-1
466.194	1	11
466.364	1	18
466.534	1	14
466.705	1	2
466.875	1	16
467.045	1	-3
467.216	1	9
467.386	1	13
467.557	1	16
467.727	1	12
467.897	1	7
468.068	1	1
468.238	1	16
468.409	1	6
468.579	1	21
468.749	1	3
468.920	1	1
469.090	1	4
469.260	1	17
469.431	1	11
469.601	1	10
469.772	1	-6
469.942	1	5
470.112	1	10
470.283	1	16
470.453	1	15
470.623	1	-1
470.794	1	9
470.964	1	18
471.135	1	16
471.305	1	13
471.475	1	15
471.646	1	13
471.816	1	10
471.986	1	17
472.157	1	9
472.327	1	11
472.497	1	16
472.668	1	6
472.838	1	16
473.009	1	18
473.179	1	16
473.349	1	8
473.520	1	8
473.690	1	14
473.860	1	20
474.031	1	9
474.201	1	10
474.371	1	7
474.542	1	23
474.712	1	14
474.882	1	3
475.053	1	21
475.223	1	0
475.394	1	-4
475.564	1	9
475.734	1	13
475.905	1	11
476.075	1	3
476.245	1	7
476.416	1	-6
476.586	1	8
476.756	1	14
476.927	1	14
477.097	1	1
477.267	1	23
477.438	1	10
477.608	1	1
477.778	1	5
477.949	1	9
478.119	1	12
478.289	1	10
478.460	1	-1
478.630	1	20
478.800	1	20
478.971	1	11
479.141	1	8
479.311	1	10
479.482	1	10
479.652	1	15
479.822	1	12
479.993	1	8
480.163	1	16
480.333	1	5
480.504	1	9
480.674	1	6
480.844	1	2
481.015	1	13
481.185	1	0
481.355	1	9
481.525	1	10
481.696	1	9
481.866	1	12
482.036	1	13
482.207	1	16
482.377	1	15
482.547	1	1
482.718	1	11
482.888	1	10
483.058	1	-1
483.229	1	18
483.399	1	9
483.569	1	3
483.740	1	12
483.910	1	1
484.080	1	-2
484.250	1	-1
484.421	1	10
484.591	1	4
484.761	1	6
484.932	1	2
485.102	1	13
485.272	1	10
485.443	1	13
485.613	1	11
485.783	1	16
485.953	1	5
486.124	1	2
486.294	1	8
486.464	1	8
486.635	1	10
486.805	1	0
486.975	1	-2
487.146	1	2
487.316	1	16
487.486	1	1
487.656	1	-2
487.827	1	3
487.997	1	3
488.167	1	11
488.338	1	3
488.508	1	17
488.678	1	3
488.848	1	1
489.019	1	9
489.189	1	0
489.359	1	6
489.529	1	10
489.700	1	9
489.870	1	-4
490.040	1	4
490.211	1	8
490.381	1	9
490.551	1	1
490.721	1	3
490.892	1	7
491.062	1	1
491.232	1	7
491.402	1	7
491.573	1	-2
491.743	1	8
491.913	1	-3
492.084	1	9
492.254	1	3
492.424	1	16
492.594	1	18
492.765	1	5
492.935	1	6
493.105	1	17
493.275	1	3
493.446	1	-2
493.616	1	6
493.786	1	1
493.956	1	6
494.127	1	18
494.297	1	10
494.467	1	6
494.637	1	15
494.808	1	12
494.978	1	3
495.148	1	2
495.318	1	7
495.489	1	0
495.659	1	8
495.829	1	6
495.999	1	3
496.170	1	-3
496.340	1	8
496.510	1	7
496.680	1	9
496.851	1	7
497.021	1	-1
497.191	1	2
497.361	1	8
497.532	1	5
497.702	1	10
497.872	1	20
498.042	1	16
498.213	1	7
498.383	1	6
498.553	1	11
498.723	1	14
498.894	1	7
499.064	1	4
499.234	1	1
499.404	1	-5
499.574	1	3
499.745	1	11
499.915	1	6
500.085	1	0
500.255	1	-5
500.426	1	13
500.596	1	11
500.766	1	4
500.936	1	8
501.106	1	8
501.277	1	5
501.447	1	2
501.617	1	6
501.787	1	9
501.958	1	6
502.128	1	-6
502.298	1	2
502.468	1	9
502.638	1	8
502.809	1	3
502.979	1	20
503.149	1	-3
503.319	1	12
503.489	1	-2
503.660	1	3
503.830	1	5
504.000	1	11
504.170	1	4
504.340	1	-2
504.511	1	9
504.681	1	-4
504.851	1	11
505.021	1	10
505.192	1	0
505.362	1	5
505.532	1	16
505.702	1	5
505.872	1	-2
506.043	1	8
506.213	1	10
506.383	1	1
506.553	1	7
506.723	1	6
506.893	1	-3
507.064	1	-7
507.234	1	-3
507.404	1	6
507.574	1	3
507.744	1	11
507.915	1	10
508.085	1	12
508.255	1	4
508.425	1	-3
508.595	1	-7
508.766	1	-3
508.936	1	9
509.106	1	3
509.276	1	-3
509.446	1	1
509.616	1	8
509.787	1	6
509.957	1	7
510.127	1	2
510.297	1	-5
510.467	1	-5
510.638	1	5
510.808	1	-5
510.978	1	0
511.148	1	18
511.318	1	8
511.488	1	13
511.659	1	-1
511.829	1	6
511.999	1	17
512.169	1	-5
512.339	1	-3
512.509	1	10
512.680	1	6
512.850	1	3
513.020	1	0
513.190	1	0
513.360	1	11
513.530	1	12
513.700	1	8
513.871	1	12
514.041	1	1
514.211	1	10
514.381	1	4
514.551	1	0
514.721	1	5
514.892	1	1
515.062	1	8
515.232	1	3
515.402	1	-2
515.572	1	-3
515.742	1	10
515.912	1	3
516.083	1	5
516.253	1	5
516.423	1	7
516.593	1	8
516.763	1	6
516.933	1	-5
517.104	1	-4
517.274	1	-4
517.444	1	6
517.614	1	10
517.784	1	16
517.954	1	18
518.124	1	-5
518.294	1	5
518.465	1	7
518.635	1	-2
518.805	1	19
518.975	1	-2
519.145	1	13
519.315	1	7
519.485	1	2
519.656	1	2
519.826	1	2
519.996	1	6
520.166	1	7
520.336	1	-1
520.506	1	-6
520.676	1	0
520.846	1	-2
521.017	1	0
521.187	1	21
521.357	1	3
521.527	1	-6
521.697	1	20
521.867	1	10
522.037	1	-17
522.207	1	-4
522.377	1	7
522.548	1	3
522.718	1	15
522.888	1	1
523.058	1	12
523.228	1	13
523.398	1	4
523.568	1	13
523.738	1	6
523.909	1	1
524.079	1	-4
524.249	1	6
524.419	1	8
524.589	1	3
524.759	1	11
524.929	1	-1
525.099	1	14
525.269	1	6
525.439	1	4
525.610	1	1
525.780	1	7
525.950	1	9
526.120	1	3
526.290	1	-1
526.460	1	2
526.630	1	17
526.800	1	1
526.970	1	10
527.140	1	3
527.311	1	-1
527.481	1	6
527.651	1	2
527.821	1	-2
527.991	1	4
528.161	1	-3
528.331	1	17
528.501	1	8
528.671	1	-5
528.841	1	4
529.011	1	4
529.181	1	9
529.352	1	-1
529.522	1	-4
529.692	1	-1
529.862	1	8
530.032	1	5
530.202	1	8
530.372	1	2
530.542	1	-1
530.712	1	-7
530.882	1	0
531.052	1	10
531.222	1	-4
531.392	1	7
531.563	1	1
531.733	1	6
531.903	1	6
532.073	1	2
532.243	1	8
532.413	1	9
532.583	1	1
532.753	1	-2
532.923	1	3
533.093	1	11
533.263	1	-6
533.433	1	5
533.603	1	3
533.773	1	0
533.943	1	0
534.113	1	5
534.284	1	-3
534.454	1	-1
534.624	1	10
534.794	1	-2
534.964	1	3
535.134	1	15
535.304	1	5
535.474	1	-3
535.644	1	-2
535.814	1	12
535.984	1	5
536.154	1	12
536.324	1	18
536.494	1	12
536.664	1	0
536.834	1	12
537.004	1	-3
537.174	1	6
537.344	1	4
537.514	1	0
537.685	1	0
537.855	1	9
538.025	1	7
538.195	1	11
538.365	1	-6
538.535	1	8
538.705	1	13
538.875	1	17
539.045	1	3
539.215	1	-12
539.385	1	-8
539.555	1	3
539.725	1	2
539.895	1	14
540.065	1	0
540.235	1	8
540.405	1	0
540.575	1	4
540.745	1	-2
540.915	1	1
541.085	1	-2
541.255	1	-4
541.425	1	6
541.595	1	10
541.765	1	5
541.935	1	2
542.105	1	4
542.275	1	-6
542.445	1	-5
542.615	1	14
542.785	1	-4
542.955	1	-6
543.125	1	-8
543.295	1	3
543.465	1	7
543.635	1	9
543.805	1	12
543.975	1	2
544.145	1	4
544.315	1	-2
544.485	1	0
544.655	1	12
544.825	1	4
544.995	1	8
545.165	1	6
545.335	1	0
545.505	1	8
545.675	1	-5
545.845	1	4
546.015	1	3
546.185	1	4
546.355	1	2
546.525	1	3
546.695	1	3
546.865	1	16
547.035	1	6
547.205	1	9
547.375	1	8
547.545	1	13
547.715	1	9
547.885	1	11
548.055	1	-8
548.225	1	3
548.395	1	-6
548.565	1	13
548.735	1	6
548.905	1	-3
549.075	1	8
549.245	1	0
549.415	1	4
549.585	1	11
549.755	1	2
549.925	1	2
550.095	1	5
550.265	1	2
550.435	1	-10
550.605	1	3
550.775	1	-2
550.945	1	1
551.115	1	3
551.285	1	6
551.455	1	17
551.625	1	-1
551.795	1	-3
551.965	1	10
552.135	1	3
552.305	1	1
552.475	1	-1
552.645	1	1
552.815	1	3
552.985	1	2
553.155	1	-4
553.325	1	0
553.495	1	4
553.665	1	11
553.835	1	4
554.004	1	-1
554.174	1	7
554.344	1	-1
554.514	1	7
554.684	1	-8
554.854	1	-1
555.024	1	-8
555.194	1	-3
555.364	1	5
555.534	1	-3
555.704	1	6
555.874	1	-7
556.044	1	10
556.214	1	5
556.384	1	6
556.554	1	-2
556.724	1	11
556.894	1	-10
557.064	1	5
557.234	1	1
557.404	1	-2
557.573	1	-1
557.743	1	4
557.913	1	-1
558.083	1	11
558.253	1	-13
558.423	1	1
558.593	1	4
558.763	1	10
558.933	1	-4
559.103	1	7
559.273	1	5
559.443	1	8
559.613	1	-1
559.783	1	10
559.953	1	7
560.122	1	-1
560.292	1	-5
560.462	1	-1
560.632	1	6
560.802	1	2
560.972	1	6
561.142	1	12
561.312	1	2
561.482	1	9
561.652	1	10
561.822	1	-4
561.992	1	-8
562.162	1	8
562.331	1	10
562.501	1	-1
562.671	1	4
562.841	1	1
563.011	1	2
563.181	1	8
563.351	1	-4
563.521	1	1
563.691	1	10
563.861	1	-3
564.031	1	4
564.201	1	6
564.370	1	3
564.540	1	-12
564.710	1	5
564.880	1	-2
565.050	1	-1
565.220	1	-6
565.390	1	3
565.560	1	3
565.730	1	-4
565.900	1	-3
566.069	1	-2
566.239	1	6
566.409	1	9
566.579	1	-7
566.749	1	5
566.919	1	2
567.089	1	3
567.259	1	7
567.429	1	8
567.599	1	-1
567.768	1	3
567.938	1	-6
568.108	1	14
568.278	1	8
568.448	1	-5
568.618	1	8
568.788	1	-3
568.958	1	-3
569.128	1	0
569.297	1	-5
569.467	1	6
569.637	1	9
569.807	1	10
569.977	1	2
570.147	1	7
570.317	1	9
570.487	1	9
570.656	1	8
570.826	1	-1
570.996	1	9
571.166	1	-1
571.336	1	1
571.506	1	5
571.676	1	-8
571.846	1	-3
572.015	1	8
572.185	1	8
572.355	1	14
572.525	1	-8
572.695	1	-1
572.865	1	6
573.035	1	-5
573.205	1	-6
573.374	1	10
573.544	1	-5
573.714	1	10
573.884	1	0
574.054	1	-10
574.224	1	2
574.394	1	5
574.563	1	6
574.733	1	9
574.903	1	1
575.073	1	2
575.243	1	5
575.413	1	3
575.583	1	3
575.752	1	1
575.922	1	5
576.092	1	-6
576.262	1	1
576.432	1	8
576.602	1	8
576.772	1	2
576.941	1	3
577.111	1	0
577.281	1	14
577.451	1	-3
577.621	1	-1
577.791	1	-10
577.960	1	-5
578.130	1	10
578.300	1	-7
578.470	1	8
578.640	1	0
578.810	1	-3
578.979	1	-3
579.149	1	3
579.319	1	6
579.489	1	-3
579.659	1	-1
579.829	1	8
579.998	1	-1
580.168	1	-4
580.338	1	-2
580.508	1	13
580.678	1	15
580.848	1	-5
581.017	1	8
581.187	1	3
581.357	1	2
581.527	1	-5
581.697	1	-1
581.867	1	4
582.036	1	9
582.206	1	-3
582.376	1	4
582.546	1	19
582.716	1	6
582.885	1	2
583.055	1	0
583.225	1	-7
583.395	1	2
583.565	1	2
583.735	1	-5
583.904	1	-5
584.074	1	-2
584.244	1	14
584.414	1	-4
584.584	1	7
584.753	1	14
584.923	1	6
585.093	1	-10
585.263	1	7
585.433	1	12
585.602	1	5
585.772	1	5
585.942	1	3
586.112	1	0
586.282	1	2
586.451	1	0
586.621	1	-6
586.791	1	-2
586.961	1	10
587.131	1	4
587.300	1	11
587.470	1	-2
587.640	1	-3
587.810	1	-3
587.980	1	-1
588.149	1	6
588.319	1	3
588.489	1	0
588.659	1	14
588.829	1	-11
588.998	1	1
589.168	1	9
589.338	1	-6
589.508	1	15
589.677	1	1
589.847	1	4
590.017	1	-6
590.187	1	6
590.357	1	-5
590.526	1	16
590.696	1	-7
590.866	1	-2
591.036	1	-2
591.205	1	6
591.375	1	-1
591.545	1	3
591.715	1	-2
591.885	1	-1
592.054	1	4
592.224	1	1
592.394	1	2
592.564	1	-3
592.733	1	2
592.903	1	-3
593.073	1	-2
593.243	1	2
593.412	1	-1
593.582	1	-7
593.752	1	11
593.922	1	6
594.091	1	-17
594.261	1	-1
594.431	1	10
594.601	1	3
594.771	1	12
594.940	1	2
595.110	1	5
595.280	1	6
595.450	1	1
595.619	1	-5
595.789	1	10
595.959	1	3
596.129	1	-9
596.298	1	3
596.468	1	3
596.638	1	8
596.808	1	-3
596.977	1	3
597.147	1	11
597.317	1	6
597.487	1	0
597.656	1	5
597.826	1	5
597.996	1	8
598.166	1	10
598.335	1	-5
598.505	1	-5
598.675	1	-8
598.844	1	4
599.014	1	1
599.184	1	2
599.354	1	2
599.523	1	3
599.693	1	3
599.863	1	5
600.033	1	5
600.202	1	9
600.372	1	-1
600.542	1	0
600.712	1	5
600.881	1	7
601.051	1	7
601.221	1	14
601.390	1	9
601.560	1	1
601.730	1	4
601.900	1	20
602.069	1	-1
602.239	1	2
602.409	1	14
602.578	1	18
602.748	1	-2
602.918	1	-10
603.088	1	6
603.257	1	10
603.427	1	7
603.597	1	6
603.767	1	1
603.936	1	8
604.106	1	0
604.276	1	5
604.445	1	-4
604.615	1	-1
604.785	1	1
604.954	1	14
605.124	1	0
605.294	1	10
605.464	1	-11
605.633	1	11
605.803	1	5
605.973	1	5
606.142	1	7
606.312	1	9
606.482	1	2
606.652	1	20
606.821	1	-7
606.991	1	3
607.161	1	4
607.330	1	8
607.500	1	10
607.670	1	7
607.839	1	-8
608.009	1	2
608.179	1	5
608.348	1	3
608.518	1	4
608.688	1	6
608.858	1	7
609.027	1	0
609.197	1	8
609.367	1	-2
609.536	1	12
609.706	1	7
609.876	1	2
610.045	1	5
610.215	1	9
610.385	1	-4
610.554	1	4
610.724	1	7
610.894	1	9
611.063	1	13
611.233	1	-6
611.403	1	5
611.572	1	9
611.742	1	3
611.912	1	-2
612.081	1	9
612.251	1	10
612.421	1	5
612.590	1	-6
612.760	1	17
612.930	1	7
613.099	1	5
613.269	1	-1
613.439	1	0
613.608	1	8
613.778	1	-4
613.948	1	15
614.117	1	-3
614.287	1	0
614.457	1	5
614.626	1	12
614.796	1	0
614.966	1	6
615.135	1	0
615.305	1	10
615.475	1	-8
615.644	1	-5
615.814	1	-7
615.984	1	4
616.153	1	7
616.323	1	0
616.493	1	16
616.662	1	-8
616.832	1	-2
617.002	1	-2
617.171	1	1
617.341	1	-2
617.511	1	-9
617.680	1	0
617.850	1	5
618.019	1	-8
618.189	1	2
618.359	1	7
618.528	1	-1
618.698	1	-1
618.868	1	-5
619.037	1	5
619.207	1	13
619.377	1	4
619.546	1	-10
619.716	1	5
619.885	1	3
620.055	1	15
620.225	1	6
620.394	1	4
620.564	1	2
620.734	1	-1
620.903	1	1
621.073	1	-6
621.242	1	-5
621.412	1	6
621.582	1	-3
621.751	1	8
621.921	1	6
622.091	1	-1
622.260	1	7
622.430	1	7
622.599	1	2
622.769	1	-6
622.939	1	-2
623.108	1	1
623.278	1	24
623.448	1	10
623.617	1	8
623.787	1	5
623.956	1	7
624.126	1	-3
624.296	1	9
624.465	1	2
624.635	1	4
624.804	1	3
624.974	1	9
625.144	1	9
625.313	1	7
625.483	1	8
625.652	1	11
625.822	1	3
625.992	1	8
626.161	1	3
626.331	1	-6
626.501	1	8
626.670	1	3
626.840	1	5
627.009	1	6
627.179	1	-8
627.348	1	13
627.518	1	6
627.688	1	5
627.857	1	5
628.027	1	8
628.196	1	-4
628.366	1	-3
628.536	1	11
628.705	1	5
628.875	1	10
629.044	1	3
629.214	1	3
629.384	1	-4
629.553	1	11
629.723	1	-9
629.892	1	6
630.062	1	-15
630.232	1	9
630.401	1	0
630.571	1	8
630.740	1	6
630.910	1	8
631.079	1	1
631.249	1	11
631.419	1	3
631.588	1	0
631.758	1	7
631.927	1	1
632.097	1	10
632.266	1	-9
632.436	1	7
632.606	1	-6
632.775	1	6
632.945	1	-2
633.114	1	8
633.284	1	4
633.453	1	11
633.623	1	9
633.793	1	4
633.962	1	3
634.132	1	0
634.301	1	9
634.471	1	-1
634.640	1	7
634.810	1	1
634.979	1	-10
635.149	1	7
635.319	1	8
635.488	1	-5
635.658	1	13
635.827	1	4
635.997	1	4
636.166	1	3
636.336	1	6
636.505	1	9
636.675	1	-5
636.845	1	5
637.014	1	2
637.184	1	15
637.353	1	-2
637.523	1	13
637.692	1	-3
637.862	1	1
638.031	1	-11
638.201	1	13
638.370	1	15
638.540	1	1
638.710	1	1
638.879	1	8
639.049	1	1
639.218	1	14
639.388	1	-3
639.557	1	13
639.727	1	12
639.896	1	1
640.066	1	4
640.235	1	0
640.405	1	9
640.574	1	7
640.744	1	-5
640.914	1	1
641.083	1	2
641.253	1	-5
641.422	1	-6
641.592	1	-8
641.761	1	1
641.931	1	-6
642.100	1	6
642.270	1	2
642.439	1	1
642.609	1	9
642.778	1	2
642.948	1	12
643.117	1	9
643.287	1	-5
643.456	1	4
643.626	1	9
643.795	1	8
643.965	1	5
644.134	1	2
644.304	1	6
644.473	1	0
644.643	1	-6
644.812	1	1
644.982	1	2
645.151	1	9
645.321	1	6
645.490	1	10
645.660	1	5
645.829	1	0
645.999	1	2
646.168	1	5
646.338	1	4
646.507	1	2
646.677	1	8
646.846	1	7
647.016	1	3
647.185	1	4
647.355	1	-1
647.524	1	-1
647.694	1	-6
647.863	1	12
648.033	1	5
648.202	1	4
648.372	1	-6
648.541	1	-1
648.711	1	8
648.880	1	10
649.050	1	9
649.219	1	2
649.389	1	-3
649.558	1	12
649.728	1	9
649.897	1	5
650.067	1	7
650.236	1	-2
650.406	1	11
650.575	1	5
650.745	1	8
650.914	1	1
651.084	1	-1
651.253	1	6
651.423	1	6
651.592	1	-2
651.762	1	3
651.931	1	5
652.101	1	10
652.270	1	-5
652.440	1	13
652.609	1	13
652.778	1	5
652.948	1	3
653.117	1	11
653.287	1	6
653.456	1	8
653.626	1	1
653.795	1	-6
653.965	1	4
654.134	1	-8
654.304	1	3
654.473	1	-4
654.643	1	9
654.812	1	13
654.982	1	2
655.151	1	3
655.320	1	14
655.490	1	8
655.659	1	7
655.829	1	1
655.998	1	-7
656.168	1	1
656.337	1	3
656.507	1	-3
656.676	1	5
656.846	1	0
657.015	1	2
657.184	1	9
657.354	1	13
657.523	1	0
657.693	1	-5
657.862	1	-3
658.032	1	8
658.201	1	12
658.371	1	-1
658.540	1	0
658.709	1	-6
658.879	1	18
659.048	1	3
659.218	1	8
659.387	1	0
659.557	1	6
659.726	1	0
659.895	1	-1
660.065	1	10
660.234	1	6
660.404	1	3
660.573	1	9
660.743	1	1
660.912	1	-2
661.081	1	-7
661.251	1	13
661.420	1	2
661.590	1	7
661.759	1	0
661.929	1	1
662.098	1	8
662.267	1	11
662.437	1	12
662.606	1	4
662.776	1	2
662.945	1	4
663.115	1	8
663.284	1	-2
663.453	1	4
663.623	1	10
663.792	1	2
663.962	1	0
664.131	1	0
664.300	1	-6
664.470	1	10
664.639	1	0
664.809	1	3
664.978	1	0
665.148	1	-5
665.317	1	-5
665.486	1	1
665.656	1	6
665.825	1	5
665.995	1	-1
666.164	1	2
666.333	1	1
666.503	1	3
666.672	1	8
666.842	1	-3
667.011	1	-2
667.180	1	6
667.350	1	-4
667.519	1	0
667.689	1	9
667.858	1	-5
668.027	1	0
668.197	1	7
668.366	1	-2
668.536	1	2
668.705	1	10
668.874	1	-2
669.044	1	2
669.213	1	8
669.382	1	8
669.552	1	12
669.721	1	4
669.891	1	-9
670.060	1	-6
670.229	1	-2
670.399	1	-1
670.568	1	-7
670.738	1	8
670.907	1	9
671.076	1	-1
671.246	1	2
671.415	1	7
671.584	1	12
671.754	1	-11
671.923	1	10
672.093	1	6
672.262	1	7
672.431	1	6
672.601	1	11
672.770	1	0
672.939	1	3
673.109	1	8
673.278	1	8
673.448	1	0
673.617	1	8
673.786	1	-1
