325.333	1	-3
325.504	1	1
325.675	1	-5
325.846	1	-4
326.017	1	-5
326.188	1	5
326.359	1	3
326.531	1	6
326.702	1	2
326.873	1	-1
327.044	1	6
327.215	1	5
327.386	1	4
327.557	1	4
327.728	1	9
327.899	1	-5
328.070	1	7
328.241	1	3
328.412	1	-10
328.583	1	3
328.754	1	-4
328.926	1	8
329.097	1	-4
329.268	1	1
329.439	1	-2
329.610	1	4
329.781	1	9
329.952	1	-4
330.123	1	-1
330.294	1	2
330.465	1	7
330.636	1	6
330.807	1	9
330.978	1	1
331.149	1	14
331.320	1	3
331.492	1	5
331.663	1	3
331.834	1	-9
332.005	1	2
332.176	1	8
332.347	1	9
332.518	1	11
332.689	1	2
332.860	1	11
333.031	1	7
333.202	1	2
333.373	1	-3
333.544	1	0
333.715	1	-3
333.886	1	3
334.057	1	-5
334.228	1	7
334.399	1	4
334.570	1	-7
334.741	1	-2
334.912	1	2
335.084	1	-8
335.255	1	4
335.426	1	7
335.597	1	9
335.768	1	4
335.939	1	-2
336.110	1	12
336.281	1	7
336.452	1	3
336.623	1	-4
336.794	1	-2
336.965	1	2
337.136	1	9
337.307	1	4
337.478	1	-2
337.649	1	1
337.820	1	1
337.991	1	10
338.162	1	0
338.333	1	4
338.504	1	9
338.675	1	3
338.846	1	11
339.017	1	8
339.188	1	15
339.359	1	2
339.530	1	0
339.701	1	4
339.872	1	6
340.043	1	-13
340.214	1	3
340.385	1	12
340.556	1	-3
340.727	1	2
340.898	1	1
341.069	1	-13
341.240	1	5
341.411	1	15
341.582	1	14
341.753	1	0
341.924	1	9
342.095	1	3
342.266	1	0
342.437	1	-3
342.608	1	6
342.779	1	0
342.950	1	4
343.121	1	9
343.292	1	12
343.463	1	2
343.634	1	3
343.805	1	8
343.976	1	-4
344.147	1	0
344.318	1	7
344.489	1	14
344.660	1	4
344.831	1	3
345.002	1	10
345.173	1	6
345.344	1	-5
345.515	1	5
345.686	1	1
345.857	1	-2
346.028	1	-14
346.199	1	3
346.370	1	1
346.541	1	3
346.712	1	3
346.883	1	20
347.054	1	-2
347.225	1	-11
347.396	1	-7
347.567	1	-1
347.738	1	0
347.909	1	4
348.080	1	9
348.251	1	5
348.422	1	-6
348.593	1	10
348.764	1	-8
348.935	1	-1
349.106	1	4
349.277	1	-9
349.448	1	2
349.619	1	10
349.790	1	14
349.961	1	8
350.132	1	11
350.303	1	8
350.474	1	-1
350.645	1	12
350.816	1	-2
350.987	1	5
351.157	1	2
351.328	1	-2
351.499	1	6
351.670	1	-3
351.841	1	0
352.012	1	1
352.183	1	12
352.354	1	-4
352.525	1	8
352.696	1	-1
352.867	1	6
353.038	1	-4
353.209	1	4
353.380	1	3
353.551	1	4
353.722	1	4
353.893	1	-1
354.064	1	2
354.235	1	5
354.406	1	11
354.576	1	1
354.747	1	12
354.918	1	15
355.089	1	6
355.260	1	11
355.431	1	6
355.602	1	-2
355.773	1	1
355.944	1	2
356.115	1	0
356.286	1	1
356.457	1	2
356.628	1	-7
356.799	1	11
356.970	1	3
357.141	1	4
357.311	1	1
357.482	1	5
357.653	1	11
357.824	1	10
357.995	1	3
358.166	1	4
358.337	1	-8
358.508	1	2
358.679	1	5
358.850	1	4
359.021	1	6
359.192	1	4
359.363	1	-8
359.533	1	2
359.704	1	2
359.875	1	5
360.046	1	-1
360.217	1	0
360.388	1	-9
360.559	1	0
360.730	1	-2
360.901	1	5
361.072	1	3
361.243	1	7
361.414	1	6
361.584	1	2
361.755	1	7
361.926	1	-3
362.097	1	-2
362.268	1	7
362.439	1	4
362.610	1	-3
362.781	1	13
362.952	1	0
363.123	1	5
363.293	1	-4
363.464	1	12
363.635	1	11
363.806	1	1
363.977	1	6
364.148	1	4
364.319	1	3
364.490	1	10
364.661	1	-1
364.832	1	7
365.002	1	-4
365.173	1	-6
365.344	1	8
365.515	1	3
365.686	1	6
365.857	1	-3
366.028	1	8
366.199	1	9
366.370	1	-9
366.540	1	2
366.711	1	4
366.882	1	0
367.053	1	0
367.224	1	-1
367.395	1	6
367.566	1	7
367.737	1	-3
367.908	1	-1
368.078	1	4
368.249	1	8
368.420	1	-9
368.591	1	5
368.762	1	-5
368.933	1	11
369.104	1	-5
369.274	1	10
369.445	1	6
369.616	1	0
369.787	1	3
369.958	1	10
370.129	1	7
370.300	1	-2
370.471	1	7
370.641	1	-5
370.812	1	11
370.983	1	-4
371.154	1	9
371.325	1	4
371.496	1	-4
371.667	1	3
371.837	1	5
372.008	1	11
372.179	1	-5
372.350	1	14
372.521	1	3
372.692	1	0
372.863	1	-3
373.033	1	10
373.204	1	18
373.375	1	0
373.546	1	5
373.717	1	10
373.888	1	7
374.059	1	2
374.229	1	10
374.400	1	10
374.571	1	7
374.742	1	9
374.913	1	7
375.084	1	14
375.254	1	7
375.425	1	4
375.596	1	-1
375.767	1	-10
375.938	1	-1
376.109	1	2
376.279	1	1
376.450	1	0
376.621	1	5
376.792	1	12
376.963	1	8
377.134	1	-10
377.304	1	8
377.475	1	4
377.646	1	-2
377.817	1	0
377.988	1	6
378.159	1	13
378.329	1	15
378.500	1	-1
378.671	1	-8
378.842	1	-3
379.013	1	6
379.184	1	9
379.354	1	11
379.525	1	-8
379.696	1	20
379.867	1	-4
380.038	1	3
380.209	1	-2
380.379	1	6
380.550	1	-4
380.721	1	2
380.892	1	11
381.063	1	8
381.233	1	8
381.404	1	7
381.575	1	11
381.746	1	8
381.917	1	-1
382.087	1	-6
382.258	1	7
382.429	1	8
382.600	1	-3
382.771	1	9
382.941	1	1
383.112	1	2
383.283	1	11
383.454	1	2
383.625	1	-6
383.795	1	1
383.966	1	0
384.137	1	11
384.308	1	6
384.479	1	18
384.649	1	11
384.820	1	6
384.991	1	-6
385.162	1	8
385.333	1	3
385.503	1	1
385.674	1	8
385.845	1	6
386.016	1	-2
386.187	1	4
386.357	1	0
386.528	1	2
386.699	1	7
386.870	1	8
387.041	1	6
387.211	1	1
387.382	1	0
387.553	1	10
387.724	1	-1
387.894	1	13
388.065	1	12
388.236	1	19
388.407	1	19
388.578	1	8
388.748	1	10
388.919	1	15
389.090	1	14
389.261	1	6
389.431	1	5
389.602	1	-4
389.773	1	-9
389.944	1	8
390.114	1	15
390.285	1	12
390.456	1	8
390.627	1	10
390.798	1	7
390.968	1	-5
391.139	1	10
391.310	1	11
391.481	1	2
391.651	1	6
391.822	1	17
391.993	1	11
392.164	1	-8
392.334	1	2
392.505	1	-2
392.676	1	10
392.847	1	16
393.017	1	6
393.188	1	-2
393.359	1	10
393.530	1	7
393.700	1	7
393.871	1	6
394.042	1	12
394.213	1	15
394.383	1	17
394.554	1	8
394.725	1	11
394.896	1	9
395.066	1	6
395.237	1	2
395.408	1	4
395.579	1	8
395.749	1	2
395.920	1	8
396.091	1	8
396.262	1	0
396.432	1	11
396.603	1	3
396.774	1	14
396.945	1	-2
397.115	1	-9
397.286	1	6
397.457	1	12
397.627	1	8
397.798	1	0
397.969	1	6
398.140	1	5
398.310	1	15
398.481	1	7
398.652	1	4
398.823	1	2
398.993	1	19
399.164	1	10
399.335	1	-1
399.505	1	12
399.676	1	11
399.847	1	10
400.018	1	6
400.188	1	16
400.359	1	17
400.530	1	6
400.700	1	2
400.871	1	16
401.042	1	9
401.213	1	7
401.383	1	13
401.554	1	13
401.725	1	8
401.895	1	0
402.066	1	16
402.237	1	18
402.408	1	13
402.578	1	4
402.749	1	10
402.920	1	19
403.090	1	14
403.261	1	17
403.432	1	15
403.603	1	-3
403.773	1	23
403.944	1	9
404.115	1	0
404.285	1	22
404.456	1	4
404.627	1	5
404.797	1	13
404.968	1	2
405.139	1	13
405.310	1	2
405.480	1	15
405.651	1	16
405.822	1	20
405.992	1	6
406.163	1	14
406.334	1	6
406.504	1	-1
406.675	1	7
406.846	1	12
407.016	1	5
407.187	1	0
407.358	1	10
407.528	1	14
407.699	1	13
407.870	1	9
408.041	1	0
408.211	1	2
408.382	1	4
408.553	1	3
408.723	1	13
408.894	1	8
409.065	1	23
409.235	1	8
409.406	1	9
409.577	1	6
409.747	1	14
409.918	1	4
410.089	1	-2
410.259	1	7
410.430	1	9
410.601	1	10
410.771	1	16
410.942	1	-2
411.113	1	17
411.283	1	12
411.454	1	10
411.625	1	11
411.795	1	0
411.966	1	4
412.137	1	10
412.307	1	6
412.478	1	9
412.649	1	0
412.819	1	0
412.990	1	17
413.161	1	9
413.331	1	6
413.502	1	-8
413.672	1	-3
413.843	1	18
414.014	1	23
414.184	1	0
414.355	1	-1
414.526	1	4
414.696	1	9
414.867	1	10
415.038	1	7
415.208	1	4
415.379	1	11
415.550	1	19
415.720	1	5
415.891	1	15
416.062	1	8
416.232	1	12
416.403	1	13
416.573	1	11
416.744	1	4
416.915	1	2
417.085	1	4
417.256	1	11
417.427	1	20
417.597	1	6
417.768	1	15
417.939	1	11
418.109	1	-5
418.280	1	15
418.450	1	11
418.621	1	4
418.792	1	1
418.962	1	7
419.133	1	17
419.304	1	3
419.474	1	5
419.645	1	10
419.815	1	9
419.986	1	7
420.157	1	24
420.327	1	5
420.498	1	7
420.669	1	13
420.839	1	16
421.010	1	9
421.180	1	-1
421.351	1	13
421.522	1	20
421.692	1	9
421.863	1	10
422.033	1	19
422.204	1	4
422.375	1	3
422.545	1	20
422.716	1	4
422.886	1	17
423.057	1	1
423.228	1	9
423.398	1	13
423.569	1	17
423.740	1	-3
423.910	1	16
424.081	1	7
424.251	1	2
424.422	1	2
424.593	1	12
424.763	1	12
424.934	1	11
425.104	1	10
425.275	1	8
425.445	1	15
425.616	1	15
425.787	1	11
425.957	1	3
426.128	1	20
426.298	1	6
426.469	1	7
426.640	1	10
426.810	1	8
426.981	1	14
427.151	1	9
427.322	1	-1
427.493	1	0
427.663	1	4
427.834	1	-5
428.004	1	8
428.175	1	4
428.345	1	16
428.516	1	8
428.687	1	11
428.857	1	6
429.028	1	8
429.198	1	7
429.369	1	3
429.540	1	-2
429.710	1	11
429.881	1	15
430.051	1	-2
430.222	1	9
430.392	1	17
430.563	1	5
430.734	1	11
430.904	1	0
431.075	1	2
431.245	1	2
431.416	1	-2
431.586	1	3
431.757	1	15
431.927	1	-5
432.098	1	9
432.269	1	15
432.439	1	17
432.610	1	10
432.780	1	7
432.951	1	2
433.121	1	17
433.292	1	10
433.462	1	9
433.633	1	10
433.804	1	10
433.974	1	6
434.145	1	15
434.315	1	14
434.486	1	4
434.656	1	7
434.827	1	2
434.997	1	11
435.168	1	1
435.339	1	17
435.509	1	6
435.680	1	2
435.850	1	0
436.021	1	15
436.191	1	11
436.362	1	16
436.532	1	9
436.703	1	20
436.873	1	12
437.044	1	9
437.214	1	4
437.385	1	7
437.556	1	16
437.726	1	7
437.897	1	1
438.067	1	3
438.238	1	8
438.408	1	11
438.579	1	14
438.749	1	2
438.920	1	1
439.090	1	-2
439.261	1	-2
439.431	1	17
439.602	1	12
439.772	1	17
439.943	1	19
440.113	1	14
440.284	1	9
440.455	1	15
440.625	1	1
440.796	1	8
440.966	1	3
441.137	1	6
441.307	1	4
441.478	1	16
441.648	1	13
441.819	1	8
441.989	1	5
442.160	1	-4
442.330	1	10
442.501	1	2
442.671	1	5
442.842	1	11
443.012	1	6
443.183	1	6
443.353	1	11
443.524	1	14
443.694	1	6
443.865	1	5
444.035	1	5
444.206	1	-2
444.376	1	11
444.547	1	7
444.717	1	25
444.888	1	7
445.058	1	10
445.229	1	12
445.399	1	2
445.570	1	1
445.740	1	14
445.911	1	15
446.081	1	13
446.252	1	-3
446.422	1	14
446.593	1	14
446.763	1	14
446.934	1	10
447.104	1	6
447.275	1	10
447.445	1	8
447.616	1	5
447.786	1	4
447.957	1	2
448.127	1	23
448.298	1	15
448.468	1	12
448.639	1	-3
448.809	1	11
448.979	1	11
449.150	1	6
449.320	1	13
449.491	1	3
449.661	1	19
449.832	1	6
450.002	1	13
450.173	1	16
450.343	1	10
450.514	1	14
450.684	1	6
450.855	1	2
451.025	1	13
451.196	1	16
451.366	1	8
451.537	1	4
451.707	1	14
451.878	1	-1
452.048	1	9
452.218	1	0
452.389	1	12
452.559	1	4
452.730	1	8
452.900	1	7
453.071	1	4
453.241	1	8
453.412	1	-7
453.582	1	8
453.753	1	2
453.923	1	13
454.093	1	16
454.264	1	9
454.434	1	6
454.605	1	7
454.775	1	6
454.946	1	7
455.116	1	2
455.287	1	13
455.457	1	1
455.628	1	2
455.798	1	5
455.968	1	2
456.139	1	6
456.309	1	18
456.480	1	10
456.650	1	14
456.821	1	21
456.991	1	13
457.161	1	6
457.332	1	14
457.502	1	18
457.673	1	12
457.843	1	11
458.014	1	6
458.184	1	9
458.355	1	15
458.525	1	5
458.695	1	3
458.866	1	16
459.036	1	8
459.207	1	10
459.377	1	11
459.548	1	0
459.718	1	9
459.888	1	19
460.059	1	14
460.229	1	15
460.400	1	1
460.570	1	14
460.740	1	-6
460.911	1	12
461.081	1	10
461.252	1	9
461.422	1	7
461.593	1	2
461.763	1	7
461.933	1	9
462.104	1	8
462.274	1	11
462.445	1	12
462.615	1	10
462.785	1	6
462.956	1	12
463.126	1	2
463.297	1	7
463.467	1	3
463.638	1	9
463.808	1	11
463.978	1	9
464.149	1	-3
464.319	1	24
464.490	1	-3
464.660	1	15
464.830	1	13
465.001	1	11
465.171	1	7
465.342	1	8
465.512	1	4
465.682	1	5
465.853	1	-4
466.023	1	7
466.194	1	10
466.364	1	13
466.534	1	-1
466.705	1	-1
466.875	1	4
467.045	1	4
467.216	1	10
467.386	1	22
467.557	1	19
467.727	1	15
467.897	1	12
468.068	1	-10
468.238	1	12
468.409	1	1
468.579	1	12
468.749	1	8
468.920	1	7
469.090	1	9
469.260	1	9
469.431	1	6
469.601	1	10
469.772	1	2
469.942	1	15
470.112	1	8
470.283	1	17
470.453	1	14
470.623	1	7
470.794	1	5
470.964	1	9
471.135	1	3
471.305	1	12
471.475	1	3
471.646	1	9
471.816	1	5
471.986	1	14
472.157	1	13
472.327	1	5
472.497	1	14
472.668	1	-6
472.838	1	6
473.009	1	10
473.179	1	4
473.349	1	15
473.520	1	7
473.690	1	9
473.860	1	9
474.031	1	18
474.201	1	4
474.371	1	0
474.542	1	17
474.712	1	2
474.882	1	-1
475.053	1	16
475.223	1	4
475.394	1	2
475.564	1	0
475.734	1	11
475.905	1	10
476.075	1	11
476.245	1	12
476.416	1	-10
476.586	1	-2
476.756	1	5
476.927	1	14
477.097	1	1
477.267	1	4
477.438	1	21
477.608	1	6
477.778	1	-1
477.949	1	-1
478.119	1	6
478.289	1	4
478.460	1	-4
478.630	1	15
478.800	1	10
478.971	1	7
479.141	1	7
479.311	1	14
479.482	1	5
479.652	1	17
479.822	1	-1
479.993	1	7
480.163	1	12
480.333	1	8
480.504	1	-8
480.674	1	10
480.844	1	-9
481.015	1	11
481.185	1	4
481.355	1	13
481.525	1	4
481.696	1	7
481.866	1	14
482.036	1	7
482.207	1	6
482.377	1	9
482.547	1	-4
482.718	1	3
482.888	1	13
483.058	1	7
483.229	1	2
483.399	1	11
483.569	1	8
483.740	1	13
483.910	1	-2
484.080	1	-4
484.250	1	-8
484.421	1	-1
484.591	1	5
484.761	1	9
484.932	1	2
485.102	1	14
485.272	1	0
485.443	1	6
485.613	1	9
485.783	1	8
485.953	1	4
486.124	1	8
486.294	1	4
486.464	1	-3
486.635	1	20
486.805	1	4
486.975	1	0
487.146	1	-7
487.316	1	1
487.486	1	10
487.656	1	1
487.827	1	-6
487.997	1	3
488.167	1	11
488.338	1	3
488.508	1	10
488.678	1	4
488.848	1	4
489.019	1	0
489.189	1	-2
489.359	1	6
489.529	1	12
489.700	1	8
489.870	1	-2
490.040	1	1
490.211	1	7
490.381	1	11
490.551	1	-4
490.721	1	15
490.892	1	-1
491.062	1	7
491.232	1	2
491.402	1	9
491.573	1	-2
491.743	1	4
491.913	1	1
492.084	1	5
492.254	1	4
492.424	1	12
492.594	1	14
492.765	1	8
492.935	1	-5
493.105	1	10
493.275	1	7
493.446	1	2
493.616	1	-3
493.786	1	5
493.956	1	1
494.127	1	14
494.297	1	-5
494.467	1	8
494.637	1	13
494.808	1	19
494.978	1	-1
495.148	1	3
495.318	1	14
495.489	1	-9
495.659	1	0
495.829	1	1
495.999	1	-2
496.170	1	-6
496.340	1	3
496.510	1	8
496.680	1	11
496.851	1	12
497.021	1	-7
497.191	1	1
497.361	1	-5
497.532	1	2
497.702	1	2
497.872	1	18
498.042	1	10
498.213	1	4
498.383	1	13
498.553	1	3
498.723	1	4
498.894	1	4
499.064	1	8
499.234	1	-2
499.404	1	-1
499.574	1	-2
499.745	1	3
499.915	1	7
500.085	1	10
500.255	1	2
500.426	1	10
500.596	1	-4
500.766	1	-1
500.936	1	11
501.106	1	5
501.277	1	5
501.447	1	5
501.617	1	2
501.787	1	7
501.958	1	0
502.128	1	-3
502.298	1	5
502.468	1	11
502.638	1	4
502.809	1	5
502.979	1	18
503.149	1	-3
503.319	1	14
503.489	1	-2
503.660	1	-3
503.830	1	8
504.000	1	9
504.170	1	7
504.340	1	4
504.511	1	1
504.681	1	-11
504.851	1	9
505.021	1	5
505.192	1	-8
505.362	1	6
505.532	1	5
505.702	1	8
505.872	1	-5
506.043	1	13
506.213	1	9
506.383	1	-1
506.553	1	4
506.723	1	8
506.893	1	3
507.064	1	-1
507.234	1	5
507.404	1	7
507.574	1	7
507.744	1	5
507.915	1	6
508.085	1	9
508.255	1	4
508.425	1	-4
508.595	1	-7
508.766	1	2
508.936	1	1
509.106	1	11
509.276	1	9
509.446	1	6
509.616	1	7
509.787	1	7
509.957	1	7
510.127	1	-1
510.297	1	-6
510.467	1	-7
510.638	1	10
510.808	1	5
510.978	1	-2
511.148	1	6
511.318	1	7
511.488	1	9
511.659	1	-2
511.829	1	1
511.999	1	5
512.169	1	-10
512.339	1	19
512.509	1	3
512.680	1	3
512.850	1	4
513.020	1	-1
513.190	1	-8
513.360	1	7
513.530	1	6
513.700	1	3
513.871	1	8
514.041	1	10
514.211	1	18
514.381	1	7
514.551	1	-1
514.721	1	-2
514.892	1	7
515.062	1	1
515.232	1	3
515.402	1	9
515.572	1	3
515.742	1	0
515.912	1	2
516.083	1	-1
516.253	1	14
516.423	1	6
516.593	1	10
516.763	1	1
516.933	1	-14
517.104	1	0
517.274	1	-12
517.444	1	-8
517.614	1	-3
517.784	1	13
517.954	1	12
518.124	1	5
518.294	1	1
518.465	1	-2
518.635	1	0
518.805	1	12
518.975	1	7
519.145	1	6
519.315	1	3
519.485	1	-8
519.656	1	-6
519.826	1	3
519.996	1	0
520.166	1	10
520.336	1	5
520.506	1	-12
520.676	1	11
520.846	1	-1
521.017	1	-9
521.187	1	13
521.357	1	4
521.527	1	5
521.697	1	7
521.867	1	-1
522.037	1	-3
522.207	1	-6
522.377	1	7
522.548	1	9
522.718	1	-2
522.888	1	13
523.058	1	2
523.228	1	11
523.398	1	10
523.568	1	2
523.738	1	-3
523.909	1	-1
524.079	1	4
524.249	1	-2
524.419	1	0
524.589	1	1
524.759	1	7
524.929	1	0
525.099	1	-2
525.269	1	10
525.439	1	-1
525.610	1	6
525.780	1	6
525.950	1	4
526.120	1	-4
526.290	1	5
526.460	1	-4
526.630	1	8
526.800	1	8
526.970	1	16
527.140	1	6
527.311	1	8
527.481	1	9
527.651	1	0
527.821	1	-3
527.991	1	0
528.161	1	2
528.331	1	8
528.501	1	11
528.671	1	0
528.841	1	10
529.011	1	0
529.181	1	10
529.352	1	-10
529.522	1	3
529.692	1	-1
529.862	1	1
530.032	1	3
530.202	1	4
530.372	1	1
530.542	1	-6
530.712	1	3
530.882	1	-1
531.052	1	12
531.222	1	-7
531.392	1	5
531.563	1	-3
531.733	1	7
531.903	1	6
532.073	1	1
532.243	1	-3
532.413	1	10
532.583	1	0
532.753	1	-4
532.923	1	8
533.093	1	6
533.263	1	-8
533.433	1	17
533.603	1	1
533.773	1	3
533.943	1	0
534.113	1	-4
534.284	1	0
534.454	1	-1
534.624	1	9
534.794	1	4
534.964	1	0
535.134	1	11
535.304	1	0
535.474	1	2
535.644	1	-2
535.814	1	2
535.984	1	11
536.154	1	3
536.324	1	16
536.494	1	4
536.664	1	-3
536.834	1	1
537.004	1	11
537.174	1	-3
537.344	1	9
537.514	1	4
537.685	1	-2
537.855	1	0
538.025	1	-2
538.195	1	6
538.365	1	-13
538.535	1	-11
538.705	1	10
538.875	1	0
539.045	1	-6
539.215	1	-8
539.385	1	-7
539.555	1	5
539.725	1	3
539.895	1	3
540.065	1	-2
540.235	1	1
540.405	1	3
540.575	1	1
540.745	1	-3
540.915	1	-1
541.085	1	-9
541.255	1	-6
541.425	1	1
541.595	1	3
541.765	1	15
541.935	1	-1
542.105	1	2
542.275	1	0
542.445	1	-6
542.615	1	4
542.785	1	-2
542.955	1	-2
543.125	1	-3
543.295	1	-7
543.465	1	3
543.635	1	6
543.805	1	18
543.975	1	1
544.145	1	-4
544.315	1	-1
544.485	1	-6
544.655	1	7
544.825	1	4
544.995	1	0
545.165	1	2
545.335	1	1
545.505	1	4
545.675	1	-7
545.845	1	2
546.015	1	0
546.185	1	4
546.355	1	7
546.525	1	0
546.695	1	-3
546.865	1	11
547.035	1	-1
547.205	1	10
547.375	1	13
547.545	1	13
547.715	1	1
547.885	1	10
548.055	1	-7
548.225	1	10
548.395	1	-4
548.565	1	11
548.735	1	4
548.905	1	-8
549.075	1	1
549.245	1	-6
549.415	1	-2
549.585	1	10
549.755	1	7
549.925	1	7
550.095	1	1
550.265	1	3
550.435	1	-13
550.605	1	-5
550.775	1	-5
550.945	1	10
551.115	1	1
551.285	1	11
551.455	1	5
551.625	1	-2
551.795	1	-8
551.965	1	16
552.135	1	-4
552.305	1	-3
552.475	1	5
552.645	1	2
552.815	1	-2
552.985	1	-11
553.155	1	-4
553.325	1	3
553.495	1	-5
553.665	1	7
553.835	1	8
554.004	1	-8
554.174	1	-1
554.344	1	-7
554.514	1	4
554.684	1	-2
554.854	1	-8
555.024	1	6
555.194	1	5
555.364	1	1
555.534	1	-10
555.704	1	14
555.874	1	-6
556.044	1	0
556.214	1	5
556.384	1	3
556.554	1	14
556.724	1	7
556.894	1	-3
557.064	1	-3
557.234	1	-4
557.404	1	-1
557.573	1	-5
557.743	1	-3
557.913	1	-13
558.083	1	16
558.253	1	-3
558.423	1	-6
558.593	1	4
558.763	1	6
558.933	1	-8
559.103	1	11
559.273	1	3
559.443	1	7
559.613	1	2
559.783	1	8
559.953	1	7
560.122	1	1
560.292	1	-9
560.462	1	5
560.632	1	-1
560.802	1	-2
560.972	1	4
561.142	1	9
561.312	1	2
561.482	1	6
561.652	1	4
561.822	1	-2
561.992	1	-6
562.162	1	-1
562.331	1	7
562.501	1	4
562.671	1	11
562.841	1	-4
563.011	1	-4
563.181	1	6
563.351	1	5
563.521	1	1
563.691	1	4
563.861	1	-8
564.031	1	-6
564.201	1	2
564.370	1	-1
564.540	1	2
564.710	1	0
564.880	1	8
565.050	1	-7
565.220	1	-5
565.390	1	0
565.560	1	-1
565.730	1	-7
565.900	1	-5
566.069	1	-4
566.239	1	-9
566.409	1	4
566.579	1	-2
566.749	1	8
566.919	1	1
567.089	1	4
567.259	1	-1
567.429	1	2
567.599	1	2
567.768	1	-7
567.938	1	-1
568.108	1	4
568.278	1	-5
568.448	1	6
568.618	1	8
568.788	1	-11
568.958	1	-14
569.128	1	-11
569.297	1	5
569.467	1	-3
569.637	1	3
569.807	1	-1
569.977	1	1
570.147	1	-5
570.317	1	2
570.487	1	4
570.656	1	2
570.826	1	-2
570.996	1	-2
571.166	1	0
571.336	1	-6
571.506	1	9
571.676	1	-6
571.846	1	-4
572.015	1	3
572.185	1	0
572.355	1	1
572.525	1	-2
572.695	1	-8
572.865	1	9
573.035	1	-12
573.205	1	-11
573.374	1	4
573.544	1	-8
573.714	1	-3
573.884	1	-3
574.054	1	-11
574.224	1	1
574.394	1	-9
574.563	1	2
574.733	1	0
574.903	1	5
575.073	1	-7
575.243	1	2
575.413	1	-1
575.583	1	-8
575.752	1	0
575.922	1	-2
576.092	1	-8
576.262	1	1
576.432	1	3
576.602	1	6
576.772	1	-2
576.941	1	-2
577.111	1	-2
577.281	1	18
577.451	1	-2
577.621	1	-11
577.791	1	3
577.960	1	-4
578.130	1	-1
578.300	1	-1
578.470	1	5
578.640	1	-8
578.810	1	-6
578.979	1	-8
579.149	1	3
579.319	1	3
579.489	1	-1
579.659	1	-8
579.829	1	6
579.998	1	-3
580.168	1	1
580.338	1	4
580.508	1	0
580.678	1	11
580.848	1	6
581.017	1	7
581.187	1	0
581.357	1	-10
581.527	1	-12
581.697	1	-10
581.867	1	4
582.036	1	8
582.206	1	2
582.376	1	6
582.546	1	9
582.716	1	8
582.885	1	-5
583.055	1	-9
583.225	1	-7
583.395	1	6
583.565	1	-11
583.735	1	-2
583.904	1	6
584.074	1	4
584.244	1	9
584.414	1	-5
584.584	1	1
584.753	1	6
584.923	1	13
585.093	1	-7
585.263	1	0
585.433	1	13
585.602	1	7
585.772	1	2
585.942	1	0
586.112	1	3
586.282	1	9
586.451	1	-2
586.621	1	-3
586.791	1	7
586.961	1	5
587.131	1	2
587.300	1	3
587.470	1	1
587.640	1	-4
587.810	1	-17
587.980	1	-10
588.149	1	4
588.319	1	3
588.489	1	-3
588.659	1	3
588.829	1	-9
588.998	1	-7
589.168	1	-1
589.338	1	-4
589.508	1	-3
589.677	1	5
589.847	1	-2
590.017	1	6
590.187	1	3
590.357	1	-4
590.526	1	16
590.696	1	2
590.866	1	-2
591.036	1	1
591.205	1	-1
591.375	1	-7
591.545	1	2
591.715	1	-10
591.885	1	-3
592.054	1	13
592.224	1	-4
592.394	1	2
592.564	1	-3
592.733	1	4
592.903	1	-1
593.073	1	-16
593.243	1	5
593.412	1	0
593.582	1	-3
593.752	1	9
593.922	1	10
594.091	1	-12
594.261	1	-7
594.431	1	2
594.601	1	-2
594.771	1	0
594.940	1	5
595.110	1	-1
595.280	1	12
595.450	1	-1
595.619	1	7
595.789	1	11
595.959	1	1
596.129	1	-2
596.298	1	8
596.468	1	8
596.638	1	3
596.808	1	-8
596.977	1	-2
597.147	1	4
597.317	1	5
597.487	1	3
597.656	1	-3
597.826	1	-3
597.996	1	4
598.166	1	8
598.335	1	-4
598.505	1	-4
598.675	1	-1
598.844	1	7
599.014	1	5
599.184	1	-5
599.354	1	7
599.523	1	2
599.693	1	6
599.863	1	6
600.033	1	-5
600.202	1	6
600.372	1	5
600.542	1	-3
600.712	1	5
600.881	1	7
601.051	1	-3
601.221	1	15
601.390	1	3
601.560	1	6
601.730	1	-4
601.900	1	17
602.069	1	-13
602.239	1	4
602.409	1	-1
602.578	1	12
602.748	1	-3
602.918	1	11
603.088	1	9
603.257	1	-2
603.427	1	10
603.597	1	-2
603.767	1	-6
603.936	1	11
604.106	1	0
604.276	1	-3
604.445	1	-3
604.615	1	1
604.785	1	2
604.954	1	5
605.124	1	-3
605.294	1	14
605.464	1	-12
605.633	1	3
605.803	1	4
605.973	1	-5
606.142	1	8
606.312	1	3
606.482	1	0
606.652	1	9
606.821	1	1
606.991	1	-2
607.161	1	0
607.330	1	10
607.500	1	4
607.670	1	3
607.839	1	-4
608.009	1	5
608.179	1	4
608.348	1	9
608.518	1	2
608.688	1	3
608.858	1	4
609.027	1	-3
609.197	1	8
609.367	1	-5
609.536	1	11
609.706	1	2
609.876	1	9
610.045	1	-2
610.215	1	2
610.385	1	-4
610.554	1	-1
610.724	1	0
610.894	1	4
611.063	1	7
611.233	1	-4
611.403	1	3
611.572	1	1
611.742	1	5
611.912	1	2
612.081	1	8
612.251	1	9
612.421	1	5
612.590	1	-7
612.760	1	6
612.930	1	-10
613.099	1	8
613.269	1	4
613.439	1	-1
613.608	1	8
613.778	1	-5
613.948	1	13
614.117	1	-8
614.287	1	-3
614.457	1	1
614.626	1	12
614.796	1	5
614.966	1	4
615.135	1	2
615.305	1	17
615.475	1	-5
615.644	1	-1
615.814	1	2
615.984	1	3
616.153	1	3
616.323	1	-1
616.493	1	8
616.662	1	0
616.832	1	1
617.002	1	-7
617.171	1	2
617.341	1	-4
617.511	1	-5
617.680	1	4
617.850	1	4
618.019	1	3
618.189	1	1
618.359	1	-3
618.528	1	-3
618.698	1	1
618.868	1	-2
619.037	1	3
619.207	1	-1
619.377	1	8
619.546	1	0
619.716	1	-5
619.885	1	4
620.055	1	10
620.225	1	3
620.394	1	0
620.564	1	-4
620.734	1	4
620.903	1	15
621.073	1	-2
621.242	1	5
621.412	1	4
621.582	1	-3
621.751	1	4
621.921	1	3
622.091	1	-7
622.260	1	7
622.430	1	3
622.599	1	13
622.769	1	-2
622.939	1	2
623.108	1	4
623.278	1	17
623.448	1	3
623.617	1	3
623.787	1	13
623.956	1	19
624.126	1	-8
624.296	1	10
624.465	1	-2
624.635	1	3
624.804	1	-4
624.974	1	2
625.144	1	13
625.313	1	2
625.483	1	1
625.652	1	16
625.822	1	6
625.992	1	16
626.161	1	-10
626.331	1	8
626.501	1	-5
626.670	1	-1
626.840	1	0
627.009	1	1
627.179	1	-12
627.348	1	13
627.518	1	7
627.688	1	7
627.857	1	6
628.027	1	-7
628.196	1	-12
628.366	1	5
628.536	1	1
628.705	1	1
628.875	1	5
629.044	1	12
629.214	1	9
629.384	1	5
629.553	1	-1
629.723	1	-5
629.892	1	0
630.062	1	-16
630.232	1	1
630.401	1	-6
630.571	1	2
630.740	1	1
630.910	1	2
631.079	1	2
631.249	1	8
631.419	1	13
631.588	1	4
631.758	1	2
631.927	1	-3
632.097	1	4
632.266	1	-9
632.436	1	2
632.606	1	-7
632.775	1	11
632.945	1	-5
633.114	1	7
633.284	1	-1
633.453	1	7
633.623	1	9
633.793	1	4
633.962	1	0
634.132	1	-3
634.301	1	8
634.471	1	-3
634.640	1	7
634.810	1	3
634.979	1	-2
635.149	1	-1
635.319	1	6
635.488	1	-10
635.658	1	22
635.827	1	0
635.997	1	5
636.166	1	0
636.336	1	-2
636.505	1	8
636.675	1	2
636.845	1	-3
637.014	1	5
637.184	1	5
637.353	1	0
637.523	1	4
637.692	1	3
637.862	1	-1
638.031	1	-5
638.201	1	0
638.370	1	14
638.540	1	-3
638.710	1	1
638.879	1	14
639.049	1	-2
639.218	1	10
639.388	1	5
639.557	1	8
639.727	1	12
639.896	1	-5
640.066	1	9
640.235	1	1
640.405	1	-1
640.574	1	-1
640.744	1	-3
640.914	1	-2
641.083	1	0
641.253	1	6
641.422	1	3
641.592	1	-3
641.761	1	0
641.931	1	8
642.100	1	7
642.270	1	-5
642.439	1	2
642.609	1	15
642.778	1	0
642.948	1	12
643.117	1	4
643.287	1	-9
643.456	1	0
643.626	1	8
643.795	1	-1
643.965	1	6
644.134	1	5
644.304	1	11
644.473	1	6
644.643	1	4
644.812	1	1
644.982	1	-4
645.151	1	7
645.321	1	0
645.490	1	6
645.660	1	0
645.829	1	5
645.999	1	0
646.168	1	-3
646.338	1	1
646.507	1	7
646.677	1	-7
646.846	1	6
647.016	1	6
647.185	1	4
647.355	1	-3
647.524	1	4
647.694	1	2
647.863	1	4
648.033	1	-5
648.202	1	7
648.372	1	-9
648.541	1	1
648.711	1	2
648.880	1	-6
649.050	1	3
649.219	1	-1
649.389	1	-5
649.558	1	8
649.728	1	3
649.897	1	-3
650.067	1	1
650.236	1	-10
650.406	1	12
650.575	1	7
650.745	1	3
650.914	1	3
651.084	1	-4
651.253	1	-4
651.423	1	6
651.592	1	-4
651.762	1	5
651.931	1	2
652.101	1	15
652.270	1	-1
652.440	1	8
652.609	1	4
652.778	1	5
652.948	1	4
653.117	1	6
653.287	1	10
653.456	1	9
653.626	1	-1
653.795	1	-4
653.965	1	-6
654.134	1	-5
654.304	1	13
654.473	1	-5
654.643	1	-1
654.812	1	5
654.982	1	-1
655.151	1	5
655.320	1	10
655.490	1	2
655.659	1	6
655.829	1	-1
655.998	1	0
656.168	1	-1
656.337	1	14
656.507	1	-10
656.676	1	-4
656.846	1	8
657.015	1	-5
657.184	1	4
657.354	1	7
657.523	1	5
657.693	1	-1
657.862	1	-2
658.032	1	10
658.201	1	10
658.371	1	-7
658.540	1	1
658.709	1	-2
658.879	1	14
659.048	1	-2
659.218	1	-2
659.387	1	7
659.557	1	0
659.726	1	-1
659.895	1	-4
660.065	1	1
660.234	1	1
660.404	1	5
660.573	1	3
660.743	1	5
660.912	1	0
661.081	1	-18
661.251	1	8
661.420	1	8
661.590	1	-2
661.759	1	-2
661.929	1	-4
662.098	1	0
662.267	1	1
662.437	1	0
662.606	1	6
662.776	1	-8
662.945	1	8
663.115	1	9
663.284	1	1
663.453	1	14
663.623	1	10
663.792	1	6
663.962	1	-13
664.131	1	-2
664.300	1	-7
664.470	1	4
664.639	1	7
664.809	1	4
664.978	1	0
665.148	1	-1
665.317	1	0
665.486	1	3
665.656	1	-4
665.825	1	4
665.995	1	-2
666.164	1	3
666.333	1	3
666.503	1	4
666.672	1	8
666.842	1	-2
667.011	1	-8
667.180	1	3
667.350	1	-1
667.519	1	1
667.689	1	-2
667.858	1	13
668.027	1	0
668.197	1	11
668.366	1	-5
668.536	1	-2
668.705	1	4
668.874	1	-1
669.044	1	5
669.213	1	11
669.382	1	9
669.552	1	2
669.721	1	9
669.891	1	-4
670.060	1	6
670.229	1	-8
670.399	1	7
670.568	1	-1
670.738	1	-11
670.907	1	2
671.076	1	-1
671.246	1	-1
671.415	1	14
671.584	1	2
671.754	1	-5
671.923	1	4
672.093	1	-6
672.262	1	-3
672.431	1	16
672.601	1	9
672.770	1	-1
672.939	1	0
673.109	1	4
673.278	1	-1
673.448	1	-1
673.617	1	2
673.786	1	9
