325.333	1	5
325.504	1	11
325.675	1	5
325.846	1	-11
326.017	1	2
326.188	1	5
326.359	1	15
326.531	1	7
326.702	1	8
326.873	1	12
327.044	1	9
327.215	1	-2
327.386	1	12
327.557	1	3
327.728	1	5
327.899	1	-4
328.070	1	15
328.241	1	2
328.412	1	-6
328.583	1	8
328.754	1	7
328.926	1	9
329.097	1	4
329.268	1	0
329.439	1	4
329.610	1	8
329.781	1	10
329.952	1	0
330.123	1	10
330.294	1	-3
330.465	1	13
330.636	1	21
330.807	1	11
330.978	1	-6
331.149	1	1
331.320	1	7
331.492	1	-7
331.663	1	9
331.834	1	10
332.005	1	6
332.176	1	13
332.347	1	16
332.518	1	14
332.689	1	11
332.860	1	2
333.031	1	16
333.202	1	11
333.373	1	9
333.544	1	8
333.715	1	7
333.886	1	7
334.057	1	8
334.228	1	4
334.399	1	14
334.570	1	-4
334.741	1	2
334.912	1	7
335.084	1	5
335.255	1	13
335.426	1	12
335.597	1	13
335.768	1	0
335.939	1	-4
336.110	1	2
336.281	1	4
336.452	1	4
336.623	1	1
336.794	1	5
336.965	1	0
337.136	1	13
337.307	1	10
337.478	1	5
337.649	1	-11
337.820	1	-1
337.991	1	19
338.162	1	7
338.333	1	10
338.504	1	11
338.675	1	15
338.846	1	14
339.017	1	25
339.188	1	19
339.359	1	19
339.530	1	5
339.701	1	5
339.872	1	11
340.043	1	2
340.214	1	12
340.385	1	18
340.556	1	4
340.727	1	15
340.898	1	11
341.069	1	-5
341.240	1	4
341.411	1	16
341.582	1	13
341.753	1	-3
341.924	1	9
342.095	1	19
342.266	1	2
342.437	1	1
342.608	1	9
342.779	1	16
342.950	1	4
343.121	1	9
343.292	1	5
343.463	1	9
343.634	1	6
343.805	1	11
343.976	1	1
344.147	1	10
344.318	1	3
344.489	1	19
344.660	1	22
344.831	1	17
345.002	1	19
345.173	1	9
345.344	1	5
345.515	1	10
345.686	1	1
345.857	1	15
346.028	1	3
346.199	1	14
346.370	1	7
346.541	1	7
346.712	1	13
346.883	1	21
347.054	1	5
347.225	1	3
347.396	1	2
347.567	1	10
347.738	1	12
347.909	1	18
348.080	1	15
348.251	1	11
348.422	1	1
348.593	1	15
348.764	1	1
348.935	1	13
349.106	1	17
349.277	1	9
349.448	1	12
349.619	1	14
349.790	1	18
349.961	1	8
350.132	1	10
350.303	1	10
350.474	1	11
350.645	1	19
350.816	1	5
350.987	1	24
351.157	1	4
351.328	1	4
351.499	1	23
351.670	1	11
351.841	1	9
352.012	1	11
352.183	1	16
352.354	1	16
352.525	1	15
352.696	1	16
352.867	1	13
353.038	1	2
353.209	1	10
353.380	1	3
353.551	1	3
353.722	1	20
353.893	1	19
354.064	1	12
354.235	1	15
354.406	1	24
354.576	1	7
354.747	1	17
354.918	1	19
355.089	1	18
355.260	1	14
355.431	1	19
355.602	1	6
355.773	1	10
355.944	1	14
356.115	1	0
356.286	1	18
356.457	1	10
356.628	1	8
356.799	1	9
356.970	1	4
357.141	1	13
357.311	1	21
357.482	1	20
357.653	1	14
357.824	1	18
357.995	1	14
358.166	1	8
358.337	1	15
358.508	1	4
358.679	1	12
358.850	1	3
359.021	1	20
359.192	1	12
359.363	1	7
359.533	1	7
359.704	1	12
359.875	1	5
360.046	1	0
360.217	1	-1
360.388	1	3
360.559	1	10
360.730	1	13
360.901	1	10
361.072	1	13
361.243	1	10
361.414	1	13
361.584	1	30
361.755	1	4
361.926	1	8
362.097	1	9
362.268	1	6
362.439	1	16
362.610	1	14
362.781	1	18
362.952	1	6
363.123	1	10
363.293	1	14
363.464	1	6
363.635	1	19
363.806	1	23
363.977	1	20
364.148	1	17
364.319	1	6
364.490	1	17
364.661	1	12
364.832	1	16
365.002	1	11
365.173	1	7
365.344	1	15
365.515	1	15
365.686	1	8
365.857	1	17
366.028	1	19
366.199	1	19
366.370	1	15
366.540	1	9
366.711	1	14
366.882	1	11
367.053	1	9
367.224	1	8
367.395	1	25
367.566	1	23
367.737	1	16
367.908	1	8
368.078	1	11
368.249	1	18
368.420	1	20
368.591	1	18
368.762	1	0
368.933	1	29
369.104	1	8
369.274	1	20
369.445	1	25
369.616	1	13
369.787	1	12
369.958	1	20
370.129	1	13
370.300	1	12
370.471	1	19
370.641	1	2
370.812	1	23
370.983	1	5
371.154	1	21
371.325	1	13
371.496	1	22
371.667	1	20
371.837	1	10
372.008	1	18
372.179	1	14
372.350	1	11
372.521	1	17
372.692	1	15
372.863	1	24
373.033	1	24
373.204	1	28
373.375	1	13
373.546	1	24
373.717	1	11
373.888	1	23
374.059	1	14
374.229	1	16
374.400	1	23
374.571	1	20
374.742	1	12
374.913	1	19
375.084	1	35
375.254	1	18
375.425	1	17
375.596	1	11
375.767	1	6
375.938	1	13
376.109	1	10
376.279	1	27
376.450	1	17
376.621	1	24
376.792	1	25
376.963	1	16
377.134	1	13
377.304	1	21
377.475	1	5
377.646	1	13
377.817	1	9
377.988	1	17
378.159	1	23
378.329	1	27
378.500	1	22
378.671	1	9
378.842	1	20
379.013	1	15
379.184	1	25
379.354	1	18
379.525	1	5
379.696	1	23
379.867	1	7
380.038	1	12
380.209	1	16
380.379	1	24
380.550	1	16
380.721	1	20
380.892	1	19
381.063	1	15
381.233	1	21
381.404	1	24
381.575	1	20
381.746	1	20
381.917	1	21
382.087	1	20
382.258	1	19
382.429	1	17
382.600	1	26
382.771	1	17
382.941	1	15
383.112	1	19
383.283	1	19
383.454	1	25
383.625	1	14
383.795	1	23
383.966	1	18
384.137	1	16
384.308	1	19
384.479	1	19
384.649	1	22
384.820	1	28
384.991	1	9
385.162	1	23
385.333	1	13
385.503	1	28
385.674	1	24
385.845	1	11
386.016	1	15
386.187	1	17
386.357	1	16
386.528	1	11
386.699	1	16
386.870	1	11
387.041	1	15
387.211	1	28
387.382	1	8
387.553	1	23
387.724	1	27
387.894	1	24
388.065	1	21
388.236	1	27
388.407	1	32
388.578	1	25
388.748	1	31
388.919	1	24
389.090	1	29
389.261	1	27
389.431	1	24
389.602	1	18
389.773	1	5
389.944	1	15
390.114	1	25
390.285	1	18
390.456	1	16
390.627	1	26
390.798	1	17
390.968	1	21
391.139	1	18
391.310	1	34
391.481	1	13
391.651	1	20
391.822	1	41
391.993	1	26
392.164	1	15
392.334	1	18
392.505	1	19
392.676	1	22
392.847	1	33
393.017	1	28
393.188	1	16
393.359	1	11
393.530	1	24
393.700	1	28
393.871	1	26
394.042	1	28
394.213	1	34
394.383	1	24
394.554	1	27
394.725	1	22
394.896	1	22
395.066	1	22
395.237	1	3
395.408	1	19
395.579	1	16
395.749	1	24
395.920	1	26
396.091	1	27
396.262	1	16
396.432	1	18
396.603	1	23
396.774	1	22
396.945	1	8
397.115	1	14
397.286	1	27
397.457	1	11
397.627	1	26
397.798	1	29
397.969	1	39
398.140	1	13
398.310	1	24
398.481	1	31
398.652	1	24
398.823	1	22
398.993	1	34
399.164	1	11
399.335	1	12
399.505	1	23
399.676	1	25
399.847	1	31
400.018	1	26
400.188	1	26
400.359	1	27
400.530	1	23
400.700	1	25
400.871	1	35
401.042	1	27
401.213	1	22
401.383	1	25
401.554	1	30
401.725	1	23
401.895	1	27
402.066	1	32
402.237	1	41
402.408	1	37
402.578	1	21
402.749	1	33
402.920	1	34
403.090	1	28
403.261	1	17
403.432	1	35
403.603	1	22
403.773	1	27
403.944	1	36
404.115	1	16
404.285	1	37
404.456	1	36
404.627	1	19
404.797	1	16
404.968	1	20
405.139	1	27
405.310	1	27
405.480	1	31
405.651	1	24
405.822	1	41
405.992	1	20
406.163	1	25
406.334	1	34
406.504	1	21
406.675	1	18
406.846	1	31
407.016	1	13
407.187	1	34
407.358	1	18
407.528	1	28
407.699	1	23
407.870	1	27
408.041	1	22
408.211	1	21
408.382	1	23
408.553	1	14
408.723	1	24
408.894	1	30
409.065	1	37
409.235	1	18
409.406	1	21
409.577	1	25
409.747	1	36
409.918	1	23
410.089	1	18
410.259	1	8
410.430	1	32
410.601	1	23
410.771	1	20
410.942	1	31
411.113	1	36
411.283	1	26
411.454	1	30
411.625	1	21
411.795	1	18
411.966	1	19
412.137	1	24
412.307	1	21
412.478	1	32
412.649	1	30
412.819	1	25
412.990	1	22
413.161	1	29
413.331	1	32
413.502	1	16
413.672	1	24
413.843	1	31
414.014	1	28
414.184	1	31
414.355	1	24
414.526	1	29
414.696	1	31
414.867	1	31
415.038	1	15
415.208	1	28
415.379	1	17
415.550	1	35
415.720	1	27
415.891	1	41
416.062	1	23
416.232	1	40
416.403	1	31
416.573	1	24
416.744	1	27
416.915	1	23
417.085	1	21
417.256	1	27
417.427	1	33
417.597	1	24
417.768	1	26
417.939	1	40
418.109	1	19
418.280	1	25
418.450	1	39
418.621	1	28
418.792	1	15
418.962	1	31
419.133	1	28
419.304	1	19
419.474	1	33
419.645	1	21
419.815	1	14
419.986	1	24
420.157	1	43
420.327	1	29
420.498	1	25
420.669	1	33
420.839	1	40
421.010	1	22
421.180	1	16
421.351	1	37
421.522	1	32
421.692	1	26
421.863	1	24
422.033	1	30
422.204	1	30
422.375	1	20
422.545	1	39
422.716	1	14
422.886	1	34
423.057	1	24
423.228	1	27
423.398	1	29
423.569	1	31
423.740	1	16
423.910	1	28
424.081	1	33
424.251	1	15
424.422	1	30
424.593	1	23
424.763	1	29
424.934	1	25
425.104	1	22
425.275	1	31
425.445	1	33
425.616	1	37
425.787	1	31
425.957	1	27
426.128	1	39
426.298	1	17
426.469	1	30
426.640	1	31
426.810	1	35
426.981	1	33
427.151	1	30
427.322	1	20
427.493	1	22
427.663	1	31
427.834	1	23
428.004	1	27
428.175	1	33
428.345	1	24
428.516	1	21
428.687	1	30
428.857	1	25
429.028	1	28
429.198	1	29
429.369	1	21
429.540	1	17
429.710	1	36
429.881	1	24
430.051	1	17
430.222	1	26
430.392	1	32
430.563	1	28
430.734	1	26
430.904	1	30
431.075	1	14
431.245	1	26
431.416	1	24
431.586	1	29
431.757	1	32
431.927	1	21
432.098	1	34
432.269	1	30
432.439	1	33
432.610	1	37
432.780	1	31
432.951	1	33
433.121	1	38
433.292	1	27
433.462	1	28
433.633	1	47
433.804	1	13
433.974	1	29
434.145	1	41
434.315	1	26
434.486	1	17
434.656	1	33
434.827	1	27
434.997	1	35
435.168	1	29
435.339	1	24
435.509	1	36
435.680	1	24
435.850	1	28
436.021	1	38
436.191	1	28
436.362	1	38
436.532	1	37
436.703	1	29
436.873	1	41
437.044	1	32
437.214	1	43
437.385	1	48
437.556	1	31
437.726	1	37
437.897	1	23
438.067	1	25
438.238	1	34
438.408	1	28
438.579	1	10
438.749	1	28
438.920	1	21
439.090	1	32
439.261	1	27
439.431	1	29
439.602	1	30
439.772	1	31
439.943	1	38
440.113	1	37
440.284	1	37
440.455	1	48
440.625	1	21
440.796	1	26
440.966	1	20
441.137	1	21
441.307	1	35
441.478	1	29
441.648	1	31
441.819	1	25
441.989	1	9
442.160	1	34
442.330	1	31
442.501	1	28
442.671	1	26
442.842	1	34
443.012	1	12
443.183	1	22
443.353	1	36
443.524	1	23
443.694	1	24
443.865	1	36
444.035	1	16
444.206	1	20
444.376	1	35
444.547	1	28
444.717	1	23
444.888	1	22
445.058	1	35
445.229	1	26
445.399	1	25
445.570	1	28
445.740	1	22
445.911	1	20
446.081	1	39
446.252	1	11
446.422	1	32
446.593	1	29
446.763	1	21
446.934	1	33
447.104	1	15
447.275	1	28
447.445	1	19
447.616	1	23
447.786	1	30
447.957	1	30
448.127	1	37
448.298	1	26
448.468	1	36
448.639	1	17
448.809	1	18
448.979	1	32
449.150	1	31
449.320	1	31
449.491	1	32
449.661	1	37
449.832	1	29
450.002	1	27
450.173	1	33
450.343	1	28
450.514	1	21
450.684	1	31
450.855	1	22
451.025	1	20
451.196	1	36
451.366	1	10
451.537	1	25
451.707	1	33
451.878	1	25
452.048	1	18
452.218	1	17
452.389	1	25
452.559	1	25
452.730	1	23
452.900	1	31
453.071	1	20
453.241	1	23
453.412	1	19
453.582	1	16
453.753	1	30
453.923	1	26
454.093	1	31
454.264	1	15
454.434	1	24
454.605	1	26
454.775	1	20
454.946	1	21
455.116	1	22
455.287	1	25
455.457	1	21
455.628	1	28
455.798	1	23
455.968	1	18
456.139	1	26
456.309	1	32
456.480	1	26
456.650	1	25
456.821	1	28
456.991	1	31
457.161	1	29
457.332	1	22
457.502	1	38
457.673	1	23
457.843	1	21
458.014	1	25
458.184	1	30
458.355	1	10
458.525	1	30
458.695	1	28
458.866	1	32
459.036	1	23
459.207	1	20
459.377	1	26
459.548	1	10
459.718	1	13
459.888	1	23
460.059	1	21
460.229	1	31
460.400	1	21
460.570	1	16
460.740	1	24
460.911	1	28
461.081	1	28
461.252	1	23
461.422	1	28
461.593	1	23
461.763	1	29
461.933	1	22
462.104	1	30
462.274	1	17
462.445	1	16
462.615	1	19
462.785	1	23
462.956	1	21
463.126	1	30
463.297	1	24
463.467	1	24
463.638	1	29
463.808	1	19
463.978	1	18
464.149	1	9
464.319	1	29
464.490	1	24
464.660	1	27
464.830	1	18
465.001	1	23
465.171	1	16
465.342	1	17
465.512	1	24
465.682	1	17
465.853	1	13
466.023	1	19
466.194	1	25
466.364	1	27
466.534	1	27
466.705	1	10
466.875	1	30
467.045	1	18
467.216	1	17
467.386	1	28
467.557	1	30
467.727	1	33
467.897	1	16
468.068	1	-2
468.238	1	29
468.409	1	13
468.579	1	19
468.749	1	15
468.920	1	16
469.090	1	24
469.260	1	19
469.431	1	26
469.601	1	21
469.772	1	4
469.942	1	27
470.112	1	24
470.283	1	28
470.453	1	27
470.623	1	23
470.794	1	16
470.964	1	21
471.135	1	26
471.305	1	22
471.475	1	16
471.646	1	19
471.816	1	24
471.986	1	28
472.157	1	29
472.327	1	23
472.497	1	24
472.668	1	9
472.838	1	30
473.009	1	24
473.179	1	21
473.349	1	21
473.520	1	20
473.690	1	30
473.860	1	22
474.031	1	21
474.201	1	30
474.371	1	16
474.542	1	25
474.712	1	16
474.882	1	8
475.053	1	19
475.223	1	13
475.394	1	22
475.564	1	14
475.734	1	15
475.905	1	25
476.075	1	19
476.245	1	20
476.416	1	10
476.586	1	13
476.756	1	14
476.927	1	8
477.097	1	20
477.267	1	28
477.438	1	18
477.608	1	15
477.778	1	14
477.949	1	23
478.119	1	27
478.289	1	13
478.460	1	10
478.630	1	32
478.800	1	27
478.971	1	20
479.141	1	10
479.311	1	25
479.482	1	33
479.652	1	17
479.822	1	20
479.993	1	15
480.163	1	17
480.333	1	14
480.504	1	7
480.674	1	25
480.844	1	18
481.015	1	6
481.185	1	11
481.355	1	20
481.525	1	21
481.696	1	17
481.866	1	17
482.036	1	25
482.207	1	20
482.377	1	27
482.547	1	7
482.718	1	25
482.888	1	22
483.058	1	9
483.229	1	16
483.399	1	21
483.569	1	17
483.740	1	22
483.910	1	17
484.080	1	8
484.250	1	12
484.421	1	17
484.591	1	17
484.761	1	17
484.932	1	14
485.102	1	14
485.272	1	17
485.443	1	9
485.613	1	22
485.783	1	26
485.953	1	23
486.124	1	21
486.294	1	13
486.464	1	12
486.635	1	23
486.805	1	11
486.975	1	17
487.146	1	10
487.316	1	17
487.486	1	20
487.656	1	12
487.827	1	8
487.997	1	16
488.167	1	28
488.338	1	10
488.508	1	15
488.678	1	12
488.848	1	11
489.019	1	11
489.189	1	13
489.359	1	19
489.529	1	17
489.700	1	24
489.870	1	8
490.040	1	8
490.211	1	17
490.381	1	18
490.551	1	11
490.721	1	18
490.892	1	8
491.062	1	16
491.232	1	5
491.402	1	17
491.573	1	21
491.743	1	16
491.913	1	2
492.084	1	25
492.254	1	13
492.424	1	16
492.594	1	14
492.765	1	6
492.935	1	14
493.105	1	17
493.275	1	19
493.446	1	8
493.616	1	18
493.786	1	6
493.956	1	3
494.127	1	18
494.297	1	2
494.467	1	13
494.637	1	16
494.808	1	12
494.978	1	7
495.148	1	13
495.318	1	19
495.489	1	-2
495.659	1	14
495.829	1	9
495.999	1	15
496.170	1	4
496.340	1	22
496.510	1	14
496.680	1	15
496.851	1	14
497.021	1	10
497.191	1	13
497.361	1	-1
497.532	1	9
497.702	1	20
497.872	1	22
498.042	1	15
498.213	1	27
498.383	1	19
498.553	1	6
498.723	1	8
498.894	1	18
499.064	1	11
499.234	1	9
499.404	1	3
499.574	1	3
499.745	1	15
499.915	1	8
500.085	1	3
500.255	1	11
500.426	1	24
500.596	1	8
500.766	1	5
500.936	1	18
501.106	1	19
501.277	1	16
501.447	1	23
501.617	1	18
501.787	1	13
501.958	1	12
502.128	1	-1
502.298	1	11
502.468	1	11
502.638	1	17
502.809	1	13
502.979	1	19
503.149	1	8
503.319	1	14
503.489	1	8
503.660	1	10
503.830	1	12
504.000	1	20
504.170	1	14
504.340	1	5
504.511	1	20
504.681	1	0
504.851	1	8
505.021	1	15
505.192	1	2
505.362	1	13
505.532	1	6
505.702	1	7
505.872	1	14
506.043	1	9
506.213	1	24
506.383	1	6
506.553	1	19
506.723	1	17
506.893	1	-6
507.064	1	0
507.234	1	10
507.404	1	12
507.574	1	12
507.744	1	10
507.915	1	9
508.085	1	5
508.255	1	19
508.425	1	11
508.595	1	2
508.766	1	7
508.936	1	14
509.106	1	15
509.276	1	8
509.446	1	3
509.616	1	16
509.787	1	14
509.957	1	13
510.127	1	7
510.297	1	4
510.467	1	0
510.638	1	17
510.808	1	2
510.978	1	3
511.148	1	26
511.318	1	5
511.488	1	19
511.659	1	7
511.829	1	12
511.999	1	7
512.169	1	-1
512.339	1	9
512.509	1	11
512.680	1	13
512.850	1	6
513.020	1	2
513.190	1	5
513.360	1	17
513.530	1	7
513.700	1	23
513.871	1	19
514.041	1	16
514.211	1	18
514.381	1	16
514.551	1	1
514.721	1	10
514.892	1	9
515.062	1	8
515.232	1	8
515.402	1	1
515.572	1	9
515.742	1	10
515.912	1	13
516.083	1	9
516.253	1	17
516.423	1	11
516.593	1	11
516.763	1	2
516.933	1	-1
517.104	1	2
517.274	1	2
517.444	1	4
517.614	1	0
517.784	1	23
517.954	1	20
518.124	1	4
518.294	1	15
518.465	1	9
518.635	1	2
518.805	1	19
518.975	1	-4
519.145	1	14
519.315	1	6
519.485	1	3
519.656	1	17
519.826	1	6
519.996	1	10
520.166	1	21
520.336	1	7
520.506	1	-4
520.676	1	4
520.846	1	1
521.017	1	8
521.187	1	16
521.357	1	5
521.527	1	3
521.697	1	8
521.867	1	6
522.037	1	3
522.207	1	1
522.377	1	8
522.548	1	13
522.718	1	7
522.888	1	14
523.058	1	3
523.228	1	12
523.398	1	9
523.568	1	2
523.738	1	10
523.909	1	2
524.079	1	2
524.249	1	7
524.419	1	10
524.589	1	5
524.759	1	9
524.929	1	4
525.099	1	6
525.269	1	21
525.439	1	12
525.610	1	5
525.780	1	10
525.950	1	4
526.120	1	0
526.290	1	7
526.460	1	2
526.630	1	10
526.800	1	0
526.970	1	17
527.140	1	8
527.311	1	12
527.481	1	8
527.651	1	6
527.821	1	10
527.991	1	8
528.161	1	16
528.331	1	14
528.501	1	15
528.671	1	4
528.841	1	10
529.011	1	6
529.181	1	19
529.352	1	7
529.522	1	5
529.692	1	2
529.862	1	10
530.032	1	-1
530.202	1	0
530.372	1	0
530.542	1	5
530.712	1	14
530.882	1	-1
531.052	1	18
531.222	1	-4
531.392	1	10
531.563	1	2
531.733	1	13
531.903	1	11
532.073	1	14
532.243	1	-1
532.413	1	15
532.583	1	-6
532.753	1	3
532.923	1	18
533.093	1	7
533.263	1	-3
533.433	1	15
533.603	1	13
533.773	1	6
533.943	1	9
534.113	1	13
534.284	1	9
534.454	1	-5
534.624	1	10
534.794	1	-1
534.964	1	5
535.134	1	9
535.304	1	10
535.474	1	-2
535.644	1	7
535.814	1	17
535.984	1	16
536.154	1	5
536.324	1	24
536.494	1	18
536.664	1	-2
536.834	1	0
537.004	1	16
537.174	1	9
537.344	1	16
537.514	1	7
537.685	1	12
537.855	1	-4
538.025	1	10
538.195	1	7
538.365	1	4
538.535	1	0
538.705	1	16
538.875	1	17
539.045	1	6
539.215	1	-6
539.385	1	-4
539.555	1	8
539.725	1	5
539.895	1	11
540.065	1	1
540.235	1	7
540.405	1	5
540.575	1	10
540.745	1	6
540.915	1	12
541.085	1	-5
541.255	1	-3
541.425	1	11
541.595	1	9
541.765	1	25
541.935	1	-3
542.105	1	5
542.275	1	5
542.445	1	6
542.615	1	8
542.785	1	-2
542.955	1	6
543.125	1	-7
543.295	1	7
543.465	1	13
543.635	1	9
543.805	1	10
543.975	1	3
544.145	1	4
544.315	1	1
544.485	1	6
544.655	1	16
544.825	1	2
544.995	1	12
545.165	1	0
545.335	1	7
545.505	1	3
545.675	1	5
545.845	1	11
546.015	1	12
546.185	1	6
546.355	1	5
546.525	1	7
546.695	1	0
546.865	1	11
547.035	1	9
547.205	1	13
547.375	1	13
547.545	1	13
547.715	1	9
547.885	1	10
548.055	1	-1
548.225	1	-2
548.395	1	-1
548.565	1	4
548.735	1	4
548.905	1	-1
549.075	1	6
549.245	1	6
549.415	1	2
549.585	1	8
549.755	1	11
549.925	1	7
550.095	1	11
550.265	1	5
550.435	1	-10
550.605	1	2
550.775	1	-5
550.945	1	9
551.115	1	8
551.285	1	13
551.455	1	7
551.625	1	1
551.795	1	4
551.965	1	7
552.135	1	3
552.305	1	6
552.475	1	10
552.645	1	9
552.815	1	6
552.985	1	2
553.155	1	-2
553.325	1	6
553.495	1	3
553.665	1	8
553.835	1	6
554.004	1	-6
554.174	1	-2
554.344	1	8
554.514	1	6
554.684	1	8
554.854	1	4
555.024	1	8
555.194	1	2
555.364	1	4
555.534	1	2
555.704	1	5
555.874	1	-6
556.044	1	9
556.214	1	2
556.384	1	4
556.554	1	13
556.724	1	8
556.894	1	12
557.064	1	0
557.234	1	8
557.404	1	-1
557.573	1	-7
557.743	1	0
557.913	1	-12
558.083	1	10
558.253	1	-1
558.423	1	8
558.593	1	7
558.763	1	16
558.933	1	-2
559.103	1	20
559.273	1	-5
559.443	1	14
559.613	1	-2
559.783	1	12
559.953	1	11
560.122	1	1
560.292	1	2
560.462	1	4
560.632	1	11
560.802	1	5
560.972	1	3
561.142	1	19
561.312	1	-3
561.482	1	4
561.652	1	6
561.822	1	-8
561.992	1	-3
562.162	1	15
562.331	1	17
562.501	1	0
562.671	1	17
562.841	1	2
563.011	1	5
563.181	1	7
563.351	1	-1
563.521	1	9
563.691	1	8
563.861	1	5
564.031	1	2
564.201	1	1
564.370	1	-5
564.540	1	8
564.710	1	0
564.880	1	0
565.050	1	2
565.220	1	11
565.390	1	7
565.560	1	1
565.730	1	1
565.900	1	-1
566.069	1	4
566.239	1	5
566.409	1	9
566.579	1	-3
566.749	1	4
566.919	1	8
567.089	1	9
567.259	1	3
567.429	1	6
567.599	1	3
567.768	1	8
567.938	1	-2
568.108	1	7
568.278	1	2
568.448	1	3
568.618	1	7
568.788	1	-7
568.958	1	3
569.128	1	-8
569.297	1	13
569.467	1	2
569.637	1	17
569.807	1	-3
569.977	1	15
570.147	1	6
570.317	1	10
570.487	1	15
570.656	1	-4
570.826	1	1
570.996	1	3
571.166	1	0
571.336	1	5
571.506	1	12
571.676	1	-2
571.846	1	4
572.015	1	0
572.185	1	0
572.355	1	5
572.525	1	-8
572.695	1	-1
572.865	1	19
573.035	1	2
573.205	1	-2
573.374	1	8
573.544	1	3
573.714	1	6
573.884	1	6
574.054	1	1
574.224	1	2
574.394	1	-1
574.563	1	1
574.733	1	11
574.903	1	3
575.073	1	-2
575.243	1	3
575.413	1	8
575.583	1	-5
575.752	1	-2
575.922	1	1
576.092	1	-5
576.262	1	7
576.432	1	16
576.602	1	4
576.772	1	-3
576.941	1	14
577.111	1	4
577.281	1	19
577.451	1	4
577.621	1	7
577.791	1	5
577.960	1	-3
578.130	1	1
578.300	1	9
578.470	1	14
578.640	1	2
578.810	1	0
578.979	1	-1
579.149	1	2
579.319	1	2
579.489	1	2
579.659	1	6
579.829	1	7
579.998	1	5
580.168	1	3
580.338	1	3
580.508	1	0
580.678	1	22
580.848	1	-4
581.017	1	-2
581.187	1	4
581.357	1	5
581.527	1	2
581.697	1	1
581.867	1	17
582.036	1	11
582.206	1	4
582.376	1	-4
582.546	1	23
582.716	1	9
582.885	1	5
583.055	1	3
583.225	1	-8
583.395	1	1
583.565	1	-3
583.735	1	3
583.904	1	6
584.074	1	-2
584.244	1	10
584.414	1	1
584.584	1	6
584.753	1	9
584.923	1	10
585.093	1	1
585.263	1	1
585.433	1	12
585.602	1	8
585.772	1	2
585.942	1	13
586.112	1	0
586.282	1	2
586.451	1	-3
586.621	1	-8
586.791	1	5
586.961	1	10
587.131	1	0
587.300	1	10
587.470	1	-5
587.640	1	6
587.810	1	-2
587.980	1	0
588.149	1	1
588.319	1	8
588.489	1	-1
588.659	1	13
588.829	1	-9
588.998	1	2
589.168	1	2
589.338	1	10
589.508	1	7
589.677	1	-5
589.847	1	6
590.017	1	6
590.187	1	11
590.357	1	-3
590.526	1	12
590.696	1	-2
590.866	1	-3
591.036	1	2
591.205	1	4
591.375	1	8
591.545	1	16
591.715	1	-2
591.885	1	1
592.054	1	8
592.224	1	8
592.394	1	-4
592.564	1	6
592.733	1	1
592.903	1	6
593.073	1	2
593.243	1	14
593.412	1	-2
593.582	1	7
593.752	1	7
593.922	1	15
594.091	1	-4
594.261	1	0
594.431	1	2
594.601	1	1
594.771	1	9
594.940	1	1
595.110	1	3
595.280	1	10
595.450	1	0
595.619	1	1
595.789	1	11
595.959	1	10
596.129	1	0
596.298	1	-1
596.468	1	-3
596.638	1	6
596.808	1	-7
596.977	1	-6
597.147	1	12
597.317	1	11
597.487	1	4
597.656	1	4
597.826	1	-2
597.996	1	3
598.166	1	11
598.335	1	-6
598.505	1	-13
598.675	1	3
598.844	1	10
599.014	1	1
599.184	1	2
599.354	1	13
599.523	1	8
599.693	1	6
599.863	1	7
600.033	1	4
600.202	1	5
600.372	1	4
600.542	1	9
600.712	1	17
600.881	1	9
601.051	1	4
601.221	1	12
601.390	1	2
601.560	1	3
601.730	1	3
601.900	1	22
602.069	1	-12
602.239	1	11
602.409	1	7
602.578	1	10
602.748	1	-4
602.918	1	15
603.088	1	12
603.257	1	-5
603.427	1	10
603.597	1	6
603.767	1	4
603.936	1	16
604.106	1	5
604.276	1	11
604.445	1	-2
604.615	1	5
604.785	1	8
604.954	1	11
605.124	1	-2
605.294	1	7
605.464	1	-4
605.633	1	17
605.803	1	12
605.973	1	8
606.142	1	14
606.312	1	12
606.482	1	6
606.652	1	17
606.821	1	2
606.991	1	11
607.161	1	6
607.330	1	-2
607.500	1	17
607.670	1	1
607.839	1	1
608.009	1	4
608.179	1	6
608.348	1	4
608.518	1	2
608.688	1	8
608.858	1	4
609.027	1	7
609.197	1	3
609.367	1	6
609.536	1	16
609.706	1	9
609.876	1	0
610.045	1	4
610.215	1	8
610.385	1	4
610.554	1	2
610.724	1	4
610.894	1	10
611.063	1	10
611.233	1	1
611.403	1	0
611.572	1	9
611.742	1	8
611.912	1	12
612.081	1	9
612.251	1	4
612.421	1	8
612.590	1	9
612.760	1	11
612.930	1	-4
613.099	1	11
613.269	1	-1
613.439	1	7
613.608	1	6
613.778	1	2
613.948	1	10
614.117	1	4
614.287	1	3
614.457	1	5
614.626	1	7
614.796	1	6
614.966	1	9
615.135	1	1
615.305	1	5
615.475	1	-1
615.644	1	12
615.814	1	5
615.984	1	6
616.153	1	5
616.323	1	2
616.493	1	13
616.662	1	-3
616.832	1	8
617.002	1	2
617.171	1	9
617.341	1	1
617.511	1	1
617.680	1	6
617.850	1	6
618.019	1	8
618.189	1	1
618.359	1	-1
618.528	1	1
618.698	1	4
618.868	1	10
619.037	1	8
619.207	1	19
619.377	1	4
619.546	1	-2
619.716	1	8
619.885	1	-4
620.055	1	11
620.225	1	12
620.394	1	-3
620.564	1	-2
620.734	1	10
620.903	1	7
621.073	1	10
621.242	1	-1
621.412	1	6
621.582	1	5
621.751	1	11
621.921	1	11
622.091	1	-4
622.260	1	6
622.430	1	15
622.599	1	9
622.769	1	9
622.939	1	5
623.108	1	4
623.278	1	25
623.448	1	12
623.617	1	0
623.787	1	12
623.956	1	9
624.126	1	-2
624.296	1	12
624.465	1	14
624.635	1	6
624.804	1	8
624.974	1	8
625.144	1	19
625.313	1	-2
625.483	1	9
625.652	1	9
625.822	1	7
625.992	1	6
626.161	1	2
626.331	1	2
626.501	1	-3
626.670	1	6
626.840	1	9
627.009	1	7
627.179	1	-3
627.348	1	19
627.518	1	10
627.688	1	12
627.857	1	1
628.027	1	-4
628.196	1	8
628.366	1	8
628.536	1	8
628.705	1	-1
628.875	1	9
629.044	1	12
629.214	1	14
629.384	1	5
629.553	1	-2
629.723	1	-2
629.892	1	10
630.062	1	-8
630.232	1	18
630.401	1	6
630.571	1	15
630.740	1	5
630.910	1	6
631.079	1	11
631.249	1	11
631.419	1	6
631.588	1	12
631.758	1	9
631.927	1	6
632.097	1	7
632.266	1	-3
632.436	1	13
632.606	1	2
632.775	1	13
632.945	1	7
633.114	1	10
633.284	1	10
633.453	1	19
633.623	1	13
633.793	1	-7
633.962	1	1
634.132	1	1
634.301	1	2
634.471	1	-3
634.640	1	12
634.810	1	11
634.979	1	1
635.149	1	3
635.319	1	14
635.488	1	10
635.658	1	6
635.827	1	0
635.997	1	5
636.166	1	6
636.336	1	12
636.505	1	7
636.675	1	2
636.845	1	6
637.014	1	5
637.184	1	13
637.353	1	6
637.523	1	10
637.692	1	5
637.862	1	4
638.031	1	6
638.201	1	4
638.370	1	11
638.540	1	1
638.710	1	14
638.879	1	11
639.049	1	-1
639.218	1	13
639.388	1	-3
639.557	1	9
639.727	1	13
639.896	1	3
640.066	1	6
640.235	1	0
640.405	1	10
640.574	1	0
640.744	1	-2
640.914	1	5
641.083	1	4
641.253	1	11
641.422	1	-1
641.592	1	6
641.761	1	2
641.931	1	4
642.100	1	5
642.270	1	-6
642.439	1	6
642.609	1	19
642.778	1	13
642.948	1	17
643.117	1	19
643.287	1	5
643.456	1	10
643.626	1	8
643.795	1	4
643.965	1	-1
644.134	1	-1
644.304	1	11
644.473	1	1
644.643	1	8
644.812	1	4
644.982	1	1
645.151	1	13
645.321	1	6
645.490	1	17
645.660	1	5
645.829	1	-1
645.999	1	-3
646.168	1	10
646.338	1	7
646.507	1	1
646.677	1	3
646.846	1	12
647.016	1	13
647.185	1	5
647.355	1	6
647.524	1	8
647.694	1	2
647.863	1	10
648.033	1	5
648.202	1	15
648.372	1	2
648.541	1	-7
648.711	1	5
648.880	1	3
649.050	1	11
649.219	1	11
649.389	1	6
649.558	1	13
649.728	1	1
649.897	1	5
650.067	1	4
650.236	1	6
650.406	1	9
650.575	1	11
650.745	1	13
650.914	1	11
651.084	1	3
651.253	1	-4
651.423	1	1
651.592	1	0
651.762	1	10
651.931	1	8
652.101	1	2
652.270	1	6
652.440	1	9
652.609	1	16
652.778	1	12
652.948	1	2
653.117	1	10
653.287	1	3
653.456	1	8
653.626	1	-6
653.795	1	4
653.965	1	9
654.134	1	-3
654.304	1	13
654.473	1	4
654.643	1	3
654.812	1	5
654.982	1	11
655.151	1	8
655.320	1	18
655.490	1	11
655.659	1	5
655.829	1	9
655.998	1	-4
656.168	1	8
656.337	1	6
656.507	1	4
656.676	1	9
656.846	1	11
657.015	1	5
657.184	1	3
657.354	1	15
657.523	1	3
657.693	1	3
657.862	1	2
658.032	1	10
658.201	1	11
658.371	1	1
658.540	1	0
658.709	1	-3
658.879	1	14
659.048	1	9
659.218	1	-5
659.387	1	9
659.557	1	1
659.726	1	2
659.895	1	9
660.065	1	17
660.234	1	2
660.404	1	8
660.573	1	13
660.743	1	6
660.912	1	1
661.081	1	-10
661.251	1	6
661.420	1	11
661.590	1	8
661.759	1	10
661.929	1	13
662.098	1	13
662.267	1	16
662.437	1	8
662.606	1	3
662.776	1	3
662.945	1	6
663.115	1	10
663.284	1	-3
663.453	1	14
663.623	1	16
663.792	1	13
663.962	1	6
664.131	1	-5
664.300	1	-14
664.470	1	6
664.639	1	0
664.809	1	9
664.978	1	11
665.148	1	1
665.317	1	6
665.486	1	11
665.656	1	13
665.825	1	14
665.995	1	-1
666.164	1	14
666.333	1	3
666.503	1	14
666.672	1	12
666.842	1	8
667.011	1	13
667.180	1	8
667.350	1	6
667.519	1	5
667.689	1	0
667.858	1	6
668.027	1	2
668.197	1	13
668.366	1	4
668.536	1	0
668.705	1	13
668.874	1	1
669.044	1	11
669.213	1	6
669.382	1	13
669.552	1	13
669.721	1	4
669.891	1	2
670.060	1	7
670.229	1	3
670.399	1	-1
670.568	1	11
670.738	1	7
670.907	1	11
671.076	1	8
671.246	1	-1
671.415	1	13
671.584	1	6
671.754	1	6
671.923	1	15
672.093	1	1
672.262	1	6
672.431	1	-1
672.601	1	7
672.770	1	-2
672.939	1	2
673.109	1	13
673.278	1	5
673.448	1	11
673.617	1	7
673.786	1	15
