325.333	1	-6
325.504	1	13
325.675	1	5
325.846	1	-5
326.017	1	-3
326.188	1	5
326.359	1	6
326.531	1	19
326.702	1	7
326.873	1	6
327.044	1	8
327.215	1	-1
327.386	1	10
327.557	1	10
327.728	1	6
327.899	1	2
328.070	1	10
328.241	1	5
328.412	1	-5
328.583	1	5
328.754	1	-10
328.926	1	10
329.097	1	-4
329.268	1	-4
329.439	1	0
329.610	1	-2
329.781	1	2
329.952	1	4
330.123	1	2
330.294	1	13
330.465	1	9
330.636	1	17
330.807	1	3
330.978	1	0
331.149	1	7
331.320	1	11
331.492	1	7
331.663	1	-1
331.834	1	-8
332.005	1	11
332.176	1	15
332.347	1	16
332.518	1	16
332.689	1	1
332.860	1	9
333.031	1	16
333.202	1	5
333.373	1	15
333.544	1	9
333.715	1	9
333.886	1	6
334.057	1	-2
334.228	1	0
334.399	1	16
334.570	1	-2
334.741	1	14
334.912	1	4
335.084	1	0
335.255	1	9
335.426	1	15
335.597	1	0
335.768	1	6
335.939	1	3
336.110	1	12
336.281	1	-2
336.452	1	3
336.623	1	-4
336.794	1	3
336.965	1	-2
337.136	1	6
337.307	1	4
337.478	1	10
337.649	1	-7
337.820	1	1
337.991	1	18
338.162	1	7
338.333	1	12
338.504	1	11
338.675	1	11
338.846	1	3
339.017	1	20
339.188	1	10
339.359	1	9
339.530	1	2
339.701	1	2
339.872	1	10
340.043	1	3
340.214	1	-4
340.385	1	15
340.556	1	2
340.727	1	11
340.898	1	6
341.069	1	4
341.240	1	0
341.411	1	18
341.582	1	9
341.753	1	-2
341.924	1	2
342.095	1	13
342.266	1	6
342.437	1	4
342.608	1	12
342.779	1	9
342.950	1	3
343.121	1	2
343.292	1	3
343.463	1	6
343.634	1	5
343.805	1	6
343.976	1	-6
344.147	1	7
344.318	1	10
344.489	1	17
344.660	1	8
344.831	1	11
345.002	1	10
345.173	1	12
345.344	1	7
345.515	1	4
345.686	1	-2
345.857	1	18
346.028	1	5
346.199	1	13
346.370	1	6
346.541	1	11
346.712	1	9
346.883	1	18
347.054	1	2
347.225	1	-2
347.396	1	9
347.567	1	8
347.738	1	11
347.909	1	0
348.080	1	11
348.251	1	6
348.422	1	3
348.593	1	10
348.764	1	5
348.935	1	2
349.106	1	9
349.277	1	10
349.448	1	-2
349.619	1	6
349.790	1	9
349.961	1	11
350.132	1	20
350.303	1	10
350.474	1	9
350.645	1	20
350.816	1	0
350.987	1	7
351.157	1	14
351.328	1	0
351.499	1	11
351.670	1	6
351.841	1	0
352.012	1	16
352.183	1	7
352.354	1	13
352.525	1	5
352.696	1	13
352.867	1	10
353.038	1	0
353.209	1	-4
353.380	1	9
353.551	1	5
353.722	1	11
353.893	1	12
354.064	1	12
354.235	1	18
354.406	1	11
354.576	1	14
354.747	1	15
354.918	1	19
355.089	1	7
355.260	1	18
355.431	1	16
355.602	1	13
355.773	1	13
355.944	1	7
356.115	1	-5
356.286	1	16
356.457	1	7
356.628	1	2
356.799	1	10
356.970	1	7
357.141	1	13
357.311	1	6
357.482	1	16
357.653	1	7
357.824	1	12
357.995	1	18
358.166	1	11
358.337	1	6
358.508	1	10
358.679	1	9
358.850	1	-4
359.021	1	18
359.192	1	11
359.363	1	4
359.533	1	5
359.704	1	4
359.875	1	9
360.046	1	7
360.217	1	4
360.388	1	-3
360.559	1	14
360.730	1	5
360.901	1	2
361.072	1	10
361.243	1	6
361.414	1	12
361.584	1	17
361.755	1	11
361.926	1	4
362.097	1	4
362.268	1	6
362.439	1	6
362.610	1	13
362.781	1	16
362.952	1	3
363.123	1	3
363.293	1	8
363.464	1	14
363.635	1	17
363.806	1	5
363.977	1	-1
364.148	1	14
364.319	1	0
364.490	1	22
364.661	1	9
364.832	1	9
365.002	1	6
365.173	1	-1
365.344	1	10
365.515	1	6
365.686	1	0
365.857	1	11
366.028	1	10
366.199	1	17
366.370	1	7
366.540	1	7
366.711	1	12
366.882	1	14
367.053	1	6
367.224	1	-4
367.395	1	15
367.566	1	12
367.737	1	7
367.908	1	9
368.078	1	12
368.249	1	11
368.420	1	13
368.591	1	7
368.762	1	1
368.933	1	21
369.104	1	5
369.274	1	14
369.445	1	13
369.616	1	1
369.787	1	7
369.958	1	11
370.129	1	8
370.300	1	10
370.471	1	-2
370.641	1	4
370.812	1	18
370.983	1	4
371.154	1	10
371.325	1	6
371.496	1	11
371.667	1	11
371.837	1	10
372.008	1	14
372.179	1	6
372.350	1	13
372.521	1	16
372.692	1	4
372.863	1	2
373.033	1	21
373.204	1	21
373.375	1	1
373.546	1	13
373.717	1	6
373.888	1	22
374.059	1	17
374.229	1	14
374.400	1	21
374.571	1	12
374.742	1	5
374.913	1	14
375.084	1	24
375.254	1	11
375.425	1	2
375.596	1	13
375.767	1	4
375.938	1	12
376.109	1	6
376.279	1	7
376.450	1	14
376.621	1	16
376.792	1	17
376.963	1	12
377.134	1	7
377.304	1	15
377.475	1	4
377.646	1	11
377.817	1	13
377.988	1	12
378.159	1	17
378.329	1	18
378.500	1	10
378.671	1	-2
378.842	1	2
379.013	1	6
379.184	1	19
379.354	1	18
379.525	1	9
379.696	1	24
379.867	1	-6
380.038	1	4
380.209	1	10
380.379	1	14
380.550	1	13
380.721	1	10
380.892	1	16
381.063	1	8
381.233	1	13
381.404	1	10
381.575	1	16
381.746	1	9
381.917	1	8
382.087	1	15
382.258	1	22
382.429	1	12
382.600	1	12
382.771	1	17
382.941	1	11
383.112	1	12
383.283	1	19
383.454	1	16
383.625	1	15
383.795	1	11
383.966	1	22
384.137	1	14
384.308	1	14
384.479	1	20
384.649	1	15
384.820	1	19
384.991	1	-2
385.162	1	15
385.333	1	16
385.503	1	22
385.674	1	16
385.845	1	18
386.016	1	15
386.187	1	15
386.357	1	4
386.528	1	8
386.699	1	12
386.870	1	15
387.041	1	12
387.211	1	9
387.382	1	0
387.553	1	16
387.724	1	11
387.894	1	21
388.065	1	20
388.236	1	25
388.407	1	23
388.578	1	23
388.748	1	15
388.919	1	17
389.090	1	27
389.261	1	20
389.431	1	24
389.602	1	10
389.773	1	15
389.944	1	19
390.114	1	20
390.285	1	20
390.456	1	11
390.627	1	15
390.798	1	14
390.968	1	3
391.139	1	9
391.310	1	12
391.481	1	32
391.651	1	20
391.822	1	19
391.993	1	16
392.164	1	-3
392.334	1	9
392.505	1	10
392.676	1	18
392.847	1	25
393.017	1	8
393.188	1	15
393.359	1	16
393.530	1	13
393.700	1	27
393.871	1	13
394.042	1	14
394.213	1	24
394.383	1	36
394.554	1	8
394.725	1	12
394.896	1	28
395.066	1	22
395.237	1	14
395.408	1	9
395.579	1	16
395.749	1	17
395.920	1	13
396.091	1	27
396.262	1	9
396.432	1	10
396.603	1	11
396.774	1	30
396.945	1	19
397.115	1	-1
397.286	1	29
397.457	1	15
397.627	1	15
397.798	1	24
397.969	1	23
398.140	1	22
398.310	1	11
398.481	1	20
398.652	1	11
398.823	1	13
398.993	1	20
399.164	1	20
399.335	1	8
399.505	1	19
399.676	1	27
399.847	1	9
400.018	1	21
400.188	1	21
400.359	1	23
400.530	1	9
400.700	1	15
400.871	1	21
401.042	1	21
401.213	1	24
401.383	1	14
401.554	1	31
401.725	1	16
401.895	1	13
402.066	1	20
402.237	1	20
402.408	1	23
402.578	1	12
402.749	1	24
402.920	1	17
403.090	1	21
403.261	1	25
403.432	1	16
403.603	1	9
403.773	1	21
403.944	1	19
404.115	1	10
404.285	1	30
404.456	1	13
404.627	1	15
404.797	1	16
404.968	1	10
405.139	1	26
405.310	1	20
405.480	1	21
405.651	1	27
405.822	1	28
405.992	1	14
406.163	1	30
406.334	1	23
406.504	1	13
406.675	1	19
406.846	1	18
407.016	1	18
407.187	1	19
407.358	1	19
407.528	1	22
407.699	1	19
407.870	1	28
408.041	1	15
408.211	1	18
408.382	1	12
408.553	1	15
408.723	1	26
408.894	1	19
409.065	1	28
409.235	1	7
409.406	1	15
409.577	1	20
409.747	1	29
409.918	1	15
410.089	1	13
410.259	1	15
410.430	1	33
410.601	1	15
410.771	1	20
410.942	1	11
411.113	1	26
411.283	1	23
411.454	1	18
411.625	1	12
411.795	1	11
411.966	1	10
412.137	1	16
412.307	1	18
412.478	1	23
412.649	1	21
412.819	1	16
412.990	1	25
413.161	1	24
413.331	1	21
413.502	1	4
413.672	1	14
413.843	1	11
414.014	1	28
414.184	1	21
414.355	1	18
414.526	1	33
414.696	1	19
414.867	1	27
415.038	1	14
415.208	1	15
415.379	1	13
415.550	1	22
415.720	1	14
415.891	1	32
416.062	1	29
416.232	1	16
416.403	1	22
416.573	1	26
416.744	1	22
416.915	1	18
417.085	1	15
417.256	1	21
417.427	1	18
417.597	1	12
417.768	1	19
417.939	1	22
418.109	1	12
418.280	1	17
418.450	1	26
418.621	1	9
418.792	1	16
418.962	1	21
419.133	1	25
419.304	1	15
419.474	1	10
419.645	1	15
419.815	1	7
419.986	1	21
420.157	1	30
420.327	1	24
420.498	1	8
420.669	1	28
420.839	1	19
421.010	1	29
421.180	1	3
421.351	1	29
421.522	1	17
421.692	1	15
421.863	1	16
422.033	1	32
422.204	1	20
422.375	1	22
422.545	1	14
422.716	1	17
422.886	1	23
423.057	1	11
423.228	1	21
423.398	1	24
423.569	1	21
423.740	1	9
423.910	1	29
424.081	1	31
424.251	1	23
424.422	1	8
424.593	1	10
424.763	1	18
424.934	1	22
425.104	1	15
425.275	1	22
425.445	1	25
425.616	1	33
425.787	1	17
425.957	1	19
426.128	1	31
426.298	1	18
426.469	1	4
426.640	1	17
426.810	1	24
426.981	1	12
427.151	1	19
427.322	1	16
427.493	1	17
427.663	1	17
427.834	1	23
428.004	1	22
428.175	1	18
428.345	1	22
428.516	1	26
428.687	1	21
428.857	1	13
429.028	1	18
429.198	1	21
429.369	1	10
429.540	1	14
429.710	1	30
429.881	1	24
430.051	1	16
430.222	1	19
430.392	1	10
430.563	1	15
430.734	1	17
430.904	1	19
431.075	1	14
431.245	1	27
431.416	1	4
431.586	1	21
431.757	1	28
431.927	1	12
432.098	1	27
432.269	1	18
432.439	1	23
432.610	1	15
432.780	1	14
432.951	1	16
433.121	1	22
433.292	1	22
433.462	1	21
433.633	1	29
433.804	1	14
433.974	1	16
434.145	1	24
434.315	1	26
434.486	1	14
434.656	1	13
434.827	1	26
434.997	1	32
435.168	1	16
435.339	1	24
435.509	1	14
435.680	1	17
435.850	1	9
436.021	1	24
436.191	1	25
436.362	1	19
436.532	1	22
436.703	1	34
436.873	1	15
437.044	1	16
437.214	1	20
437.385	1	26
437.556	1	12
437.726	1	20
437.897	1	14
438.067	1	18
438.238	1	33
438.408	1	24
438.579	1	27
438.749	1	20
438.920	1	14
439.090	1	13
439.261	1	26
439.431	1	21
439.602	1	21
439.772	1	23
439.943	1	29
440.113	1	23
440.284	1	15
440.455	1	22
440.625	1	18
440.796	1	13
440.966	1	24
441.137	1	28
441.307	1	15
441.478	1	24
441.648	1	24
441.819	1	25
441.989	1	13
442.160	1	13
442.330	1	28
442.501	1	11
442.671	1	21
442.842	1	30
443.012	1	13
443.183	1	19
443.353	1	14
443.524	1	26
443.694	1	19
443.865	1	20
444.035	1	19
444.206	1	9
444.376	1	33
444.547	1	20
444.717	1	34
444.888	1	23
445.058	1	23
445.229	1	19
445.399	1	10
445.570	1	11
445.740	1	20
445.911	1	15
446.081	1	14
446.252	1	12
446.422	1	26
446.593	1	17
446.763	1	19
446.934	1	33
447.104	1	13
447.275	1	28
447.445	1	6
447.616	1	21
447.786	1	12
447.957	1	15
448.127	1	27
448.298	1	24
448.468	1	22
448.639	1	14
448.809	1	10
448.979	1	22
449.150	1	25
449.320	1	11
449.491	1	23
449.661	1	29
449.832	1	27
450.002	1	26
450.173	1	19
450.343	1	18
450.514	1	12
450.684	1	23
450.855	1	19
451.025	1	15
451.196	1	18
451.366	1	23
451.537	1	15
451.707	1	29
451.878	1	10
452.048	1	13
452.218	1	10
452.389	1	12
452.559	1	8
452.730	1	17
452.900	1	21
453.071	1	19
453.241	1	22
453.412	1	16
453.582	1	4
453.753	1	17
453.923	1	29
454.093	1	25
454.264	1	17
454.434	1	23
454.605	1	16
454.775	1	20
454.946	1	17
455.116	1	16
455.287	1	18
455.457	1	19
455.628	1	13
455.798	1	16
455.968	1	22
456.139	1	22
456.309	1	26
456.480	1	13
456.650	1	26
456.821	1	26
456.991	1	25
457.161	1	18
457.332	1	9
457.502	1	32
457.673	1	23
457.843	1	16
458.014	1	18
458.184	1	13
458.355	1	16
458.525	1	22
458.695	1	17
458.866	1	23
459.036	1	20
459.207	1	24
459.377	1	26
459.548	1	1
459.718	1	11
459.888	1	25
460.059	1	31
460.229	1	11
460.400	1	13
460.570	1	23
460.740	1	21
460.911	1	19
461.081	1	19
461.252	1	15
461.422	1	15
461.593	1	22
461.763	1	20
461.933	1	25
462.104	1	21
462.274	1	14
462.445	1	13
462.615	1	18
462.785	1	12
462.956	1	19
463.126	1	10
463.297	1	13
463.467	1	18
463.638	1	13
463.808	1	33
463.978	1	28
464.149	1	3
464.319	1	20
464.490	1	12
464.660	1	20
464.830	1	19
465.001	1	18
465.171	1	16
465.342	1	13
465.512	1	17
465.682	1	11
465.853	1	6
466.023	1	14
466.194	1	20
466.364	1	19
466.534	1	19
466.705	1	6
466.875	1	27
467.045	1	9
467.216	1	22
467.386	1	25
467.557	1	17
467.727	1	18
467.897	1	12
468.068	1	6
468.238	1	20
468.409	1	10
468.579	1	19
468.749	1	12
468.920	1	15
469.090	1	19
469.260	1	22
469.431	1	30
469.601	1	8
469.772	1	0
469.942	1	24
470.112	1	11
470.283	1	20
470.453	1	16
470.623	1	10
470.794	1	18
470.964	1	21
471.135	1	24
471.305	1	19
471.475	1	11
471.646	1	8
471.816	1	7
471.986	1	25
472.157	1	25
472.327	1	18
472.497	1	27
472.668	1	9
472.838	1	29
473.009	1	17
473.179	1	20
473.349	1	14
473.520	1	7
473.690	1	17
473.860	1	18
474.031	1	20
474.201	1	21
474.371	1	31
474.542	1	21
474.712	1	15
474.882	1	4
475.053	1	28
475.223	1	7
475.394	1	8
475.564	1	15
475.734	1	16
475.905	1	15
476.075	1	14
476.245	1	18
476.416	1	6
476.586	1	6
476.756	1	18
476.927	1	15
477.097	1	13
477.267	1	20
477.438	1	20
477.608	1	15
477.778	1	16
477.949	1	2
478.119	1	22
478.289	1	7
478.460	1	1
478.630	1	17
478.800	1	19
478.971	1	7
479.141	1	19
479.311	1	19
479.482	1	13
479.652	1	20
479.822	1	13
479.993	1	14
480.163	1	15
480.333	1	14
480.504	1	3
480.674	1	18
480.844	1	15
481.015	1	11
481.185	1	18
481.355	1	17
481.525	1	17
481.696	1	0
481.866	1	16
482.036	1	18
482.207	1	16
482.377	1	18
482.547	1	16
482.718	1	12
482.888	1	12
483.058	1	12
483.229	1	11
483.399	1	13
483.569	1	10
483.740	1	12
483.910	1	6
484.080	1	0
484.250	1	0
484.421	1	8
484.591	1	19
484.761	1	9
484.932	1	10
485.102	1	12
485.272	1	7
485.443	1	16
485.613	1	30
485.783	1	19
485.953	1	10
486.124	1	15
486.294	1	1
486.464	1	2
486.635	1	12
486.805	1	4
486.975	1	14
487.146	1	3
487.316	1	16
487.486	1	10
487.656	1	11
487.827	1	7
487.997	1	7
488.167	1	7
488.338	1	12
488.508	1	15
488.678	1	12
488.848	1	0
489.019	1	12
489.189	1	1
489.359	1	14
489.529	1	8
489.700	1	19
489.870	1	6
490.040	1	4
490.211	1	14
490.381	1	9
490.551	1	5
490.721	1	16
490.892	1	11
491.062	1	6
491.232	1	13
491.402	1	13
491.573	1	6
491.743	1	8
491.913	1	-3
492.084	1	2
492.254	1	8
492.424	1	10
492.594	1	28
492.765	1	14
492.935	1	10
493.105	1	19
493.275	1	7
493.446	1	5
493.616	1	11
493.786	1	11
493.956	1	3
494.127	1	25
494.297	1	7
494.467	1	13
494.637	1	14
494.808	1	18
494.978	1	5
495.148	1	14
495.318	1	10
495.489	1	-5
495.659	1	4
495.829	1	10
495.999	1	13
496.170	1	1
496.340	1	22
496.510	1	12
496.680	1	10
496.851	1	10
497.021	1	4
497.191	1	10
497.361	1	5
497.532	1	2
497.702	1	12
497.872	1	20
498.042	1	22
498.213	1	15
498.383	1	14
498.553	1	5
498.723	1	8
498.894	1	12
499.064	1	12
499.234	1	6
499.404	1	5
499.574	1	11
499.745	1	4
499.915	1	9
500.085	1	-7
500.255	1	10
500.426	1	8
500.596	1	6
500.766	1	2
500.936	1	13
501.106	1	8
501.277	1	12
501.447	1	7
501.617	1	6
501.787	1	3
501.958	1	10
502.128	1	1
502.298	1	3
502.468	1	14
502.638	1	9
502.809	1	3
502.979	1	9
503.149	1	-2
503.319	1	11
503.489	1	5
503.660	1	2
503.830	1	11
504.000	1	13
504.170	1	16
504.340	1	6
504.511	1	6
504.681	1	1
504.851	1	10
505.021	1	18
505.192	1	5
505.362	1	7
505.532	1	11
505.702	1	-1
505.872	1	12
506.043	1	13
506.213	1	14
506.383	1	0
506.553	1	17
506.723	1	16
506.893	1	2
507.064	1	-1
507.234	1	1
507.404	1	8
507.574	1	2
507.744	1	12
507.915	1	4
508.085	1	14
508.255	1	6
508.425	1	8
508.595	1	1
508.766	1	8
508.936	1	11
509.106	1	12
509.276	1	6
509.446	1	13
509.616	1	5
509.787	1	16
509.957	1	1
510.127	1	14
510.297	1	1
510.467	1	-4
510.638	1	4
510.808	1	1
510.978	1	2
511.148	1	23
511.318	1	4
511.488	1	16
511.659	1	3
511.829	1	8
511.999	1	11
512.169	1	1
512.339	1	5
512.509	1	13
512.680	1	7
512.850	1	5
513.020	1	4
513.190	1	-6
513.360	1	11
513.530	1	11
513.700	1	12
513.871	1	0
514.041	1	5
514.211	1	13
514.381	1	14
514.551	1	0
514.721	1	10
514.892	1	5
515.062	1	3
515.232	1	-4
515.402	1	14
515.572	1	0
515.742	1	4
515.912	1	4
516.083	1	13
516.253	1	17
516.423	1	15
516.593	1	9
516.763	1	9
516.933	1	6
517.104	1	9
517.274	1	-1
517.444	1	-1
517.614	1	-3
517.784	1	13
517.954	1	15
518.124	1	4
518.294	1	11
518.465	1	10
518.635	1	-3
518.805	1	19
518.975	1	2
519.145	1	9
519.315	1	8
519.485	1	3
519.656	1	2
519.826	1	19
519.996	1	-1
520.166	1	12
520.336	1	7
520.506	1	-2
520.676	1	11
520.846	1	-6
521.017	1	4
521.187	1	10
521.357	1	3
521.527	1	1
521.697	1	15
521.867	1	7
522.037	1	1
522.207	1	-4
522.377	1	8
522.548	1	5
522.718	1	9
522.888	1	7
523.058	1	10
523.228	1	14
523.398	1	6
523.568	1	3
523.738	1	7
523.909	1	4
524.079	1	6
524.249	1	2
524.419	1	1
524.589	1	5
524.759	1	11
524.929	1	-1
525.099	1	3
525.269	1	8
525.439	1	2
525.610	1	3
525.780	1	1
525.950	1	12
526.120	1	6
526.290	1	3
526.460	1	3
526.630	1	8
526.800	1	9
526.970	1	18
527.140	1	5
527.311	1	-1
527.481	1	18
527.651	1	-2
527.821	1	1
527.991	1	11
528.161	1	10
528.331	1	10
528.501	1	8
528.671	1	5
528.841	1	14
529.011	1	-1
529.181	1	9
529.352	1	8
529.522	1	6
529.692	1	4
529.862	1	5
530.032	1	8
530.202	1	6
530.372	1	9
530.542	1	6
530.712	1	5
530.882	1	4
531.052	1	24
531.222	1	2
531.392	1	3
531.563	1	4
531.733	1	1
531.903	1	14
532.073	1	4
532.243	1	2
532.413	1	11
532.583	1	-4
532.753	1	4
532.923	1	20
533.093	1	12
533.263	1	-8
533.433	1	11
533.603	1	6
533.773	1	-2
533.943	1	8
534.113	1	13
534.284	1	4
534.454	1	-5
534.624	1	7
534.794	1	1
534.964	1	4
535.134	1	17
535.304	1	2
535.474	1	-2
535.644	1	5
535.814	1	12
535.984	1	11
536.154	1	5
536.324	1	6
536.494	1	11
536.664	1	5
536.834	1	11
537.004	1	13
537.174	1	-5
537.344	1	6
537.514	1	3
537.685	1	8
537.855	1	0
538.025	1	9
538.195	1	3
538.365	1	1
538.535	1	-3
538.705	1	11
538.875	1	0
539.045	1	10
539.215	1	-1
539.385	1	6
539.555	1	2
539.725	1	0
539.895	1	13
540.065	1	5
540.235	1	13
540.405	1	7
540.575	1	9
540.745	1	8
540.915	1	5
541.085	1	-3
541.255	1	-8
541.425	1	7
541.595	1	4
541.765	1	17
541.935	1	-1
542.105	1	5
542.275	1	5
542.445	1	-6
542.615	1	-2
542.785	1	5
542.955	1	0
543.125	1	-4
543.295	1	3
543.465	1	13
543.635	1	5
543.805	1	9
543.975	1	-4
544.145	1	4
544.315	1	3
544.485	1	2
544.655	1	14
544.825	1	6
544.995	1	4
545.165	1	5
545.335	1	3
545.505	1	8
545.675	1	-16
545.845	1	8
546.015	1	12
546.185	1	15
546.355	1	15
546.525	1	-3
546.695	1	2
546.865	1	10
547.035	1	14
547.205	1	6
547.375	1	13
547.545	1	12
547.715	1	13
547.885	1	13
548.055	1	-5
548.225	1	3
548.395	1	-4
548.565	1	6
548.735	1	11
548.905	1	-10
549.075	1	0
549.245	1	-3
549.415	1	-3
549.585	1	6
549.755	1	12
549.925	1	11
550.095	1	7
550.265	1	3
550.435	1	-6
550.605	1	1
550.775	1	-5
550.945	1	6
551.115	1	2
551.285	1	2
551.455	1	11
551.625	1	0
551.795	1	4
551.965	1	16
552.135	1	0
552.305	1	-1
552.475	1	-5
552.645	1	3
552.815	1	8
552.985	1	3
553.155	1	-1
553.325	1	5
553.495	1	8
553.665	1	7
553.835	1	-9
554.004	1	3
554.174	1	-2
554.344	1	-4
554.514	1	9
554.684	1	2
554.854	1	-5
555.024	1	6
555.194	1	4
555.364	1	6
555.534	1	0
555.704	1	8
555.874	1	-6
556.044	1	16
556.214	1	4
556.384	1	9
556.554	1	6
556.724	1	-2
556.894	1	-4
557.064	1	9
557.234	1	-6
557.404	1	4
557.573	1	-8
557.743	1	4
557.913	1	-8
558.083	1	11
558.253	1	-7
558.423	1	3
558.593	1	2
558.763	1	9
558.933	1	1
559.103	1	3
559.273	1	0
559.443	1	8
559.613	1	0
559.783	1	7
559.953	1	10
560.122	1	-5
560.292	1	8
560.462	1	-3
560.632	1	4
560.802	1	-8
560.972	1	11
561.142	1	15
561.312	1	3
561.482	1	14
561.652	1	0
561.822	1	-2
561.992	1	-1
562.162	1	6
562.331	1	10
562.501	1	-6
562.671	1	10
562.841	1	-9
563.011	1	6
563.181	1	11
563.351	1	-1
563.521	1	-4
563.691	1	6
563.861	1	-1
564.031	1	-2
564.201	1	1
564.370	1	11
564.540	1	-2
564.710	1	-2
564.880	1	-3
565.050	1	11
565.220	1	5
565.390	1	-1
565.560	1	3
565.730	1	-2
565.900	1	0
566.069	1	-1
566.239	1	-1
566.409	1	3
566.579	1	6
566.749	1	-6
566.919	1	6
567.089	1	4
567.259	1	-2
567.429	1	2
567.599	1	7
567.768	1	3
567.938	1	-6
568.108	1	6
568.278	1	2
568.448	1	8
568.618	1	6
568.788	1	-10
568.958	1	-2
569.128	1	-5
569.297	1	6
569.467	1	11
569.637	1	0
569.807	1	-4
569.977	1	-2
570.147	1	5
570.317	1	-5
570.487	1	12
570.656	1	3
570.826	1	0
570.996	1	9
571.166	1	-1
571.336	1	-6
571.506	1	4
571.676	1	-7
571.846	1	-1
572.015	1	8
572.185	1	-5
572.355	1	15
572.525	1	1
572.695	1	4
572.865	1	21
573.035	1	-1
573.205	1	-9
573.374	1	9
573.544	1	10
573.714	1	6
573.884	1	1
574.054	1	6
574.224	1	9
574.394	1	5
574.563	1	6
574.733	1	9
574.903	1	-2
575.073	1	-2
575.243	1	8
575.413	1	4
575.583	1	3
575.752	1	2
575.922	1	8
576.092	1	-2
576.262	1	1
576.432	1	4
576.602	1	-10
576.772	1	2
576.941	1	7
577.111	1	4
577.281	1	22
577.451	1	6
577.621	1	5
577.791	1	1
577.960	1	1
578.130	1	3
578.300	1	11
578.470	1	6
578.640	1	-12
578.810	1	4
578.979	1	5
579.149	1	4
579.319	1	-2
579.489	1	11
579.659	1	6
579.829	1	-2
579.998	1	-4
580.168	1	-2
580.338	1	5
580.508	1	-1
580.678	1	10
580.848	1	1
581.017	1	2
581.187	1	7
581.357	1	1
581.527	1	-2
581.697	1	-11
581.867	1	10
582.036	1	4
582.206	1	-2
582.376	1	8
582.546	1	16
582.716	1	2
582.885	1	-3
583.055	1	2
583.225	1	-4
583.395	1	1
583.565	1	3
583.735	1	3
583.904	1	-1
584.074	1	0
584.244	1	6
584.414	1	1
584.584	1	3
584.753	1	8
584.923	1	9
585.093	1	-10
585.263	1	1
585.433	1	21
585.602	1	-1
585.772	1	5
585.942	1	-6
586.112	1	2
586.282	1	9
586.451	1	4
586.621	1	-13
586.791	1	2
586.961	1	7
587.131	1	4
587.300	1	13
587.470	1	2
587.640	1	5
587.810	1	-7
587.980	1	-9
588.149	1	1
588.319	1	4
588.489	1	-2
588.659	1	12
588.829	1	-7
588.998	1	3
589.168	1	6
589.338	1	7
589.508	1	10
589.677	1	-4
589.847	1	4
590.017	1	7
590.187	1	9
590.357	1	-6
590.526	1	12
590.696	1	-1
590.866	1	-2
591.036	1	1
591.205	1	4
591.375	1	2
591.545	1	-4
591.715	1	-2
591.885	1	4
592.054	1	3
592.224	1	-2
592.394	1	2
592.564	1	-1
592.733	1	12
592.903	1	5
593.073	1	0
593.243	1	0
593.412	1	-7
593.582	1	6
593.752	1	7
593.922	1	14
594.091	1	-4
594.261	1	2
594.431	1	4
594.601	1	-4
594.771	1	14
594.940	1	5
595.110	1	-1
595.280	1	8
595.450	1	2
595.619	1	7
595.789	1	13
595.959	1	-1
596.129	1	-6
596.298	1	5
596.468	1	10
596.638	1	9
596.808	1	1
596.977	1	4
597.147	1	13
597.317	1	6
597.487	1	5
597.656	1	11
597.826	1	-1
597.996	1	-8
598.166	1	10
598.335	1	0
598.505	1	-8
598.675	1	-4
598.844	1	1
599.014	1	3
599.184	1	3
599.354	1	-1
599.523	1	10
599.693	1	16
599.863	1	5
600.033	1	-3
600.202	1	11
600.372	1	-1
600.542	1	9
600.712	1	11
600.881	1	8
601.051	1	7
601.221	1	10
601.390	1	11
601.560	1	12
601.730	1	-8
601.900	1	14
602.069	1	-11
602.239	1	6
602.409	1	1
602.578	1	12
602.748	1	-4
602.918	1	5
603.088	1	14
603.257	1	2
603.427	1	6
603.597	1	2
603.767	1	3
603.936	1	10
604.106	1	5
604.276	1	11
604.445	1	-5
604.615	1	1
604.785	1	6
604.954	1	6
605.124	1	11
605.294	1	19
605.464	1	-10
605.633	1	11
605.803	1	4
605.973	1	7
606.142	1	12
606.312	1	13
606.482	1	-2
606.652	1	11
606.821	1	-4
606.991	1	7
607.161	1	7
607.330	1	11
607.500	1	5
607.670	1	13
607.839	1	-3
608.009	1	12
608.179	1	-7
608.348	1	8
608.518	1	1
608.688	1	-2
608.858	1	5
609.027	1	3
609.197	1	5
609.367	1	5
609.536	1	20
609.706	1	3
609.876	1	-4
610.045	1	-1
610.215	1	9
610.385	1	2
610.554	1	5
610.724	1	11
610.894	1	9
611.063	1	1
611.233	1	-7
611.403	1	4
611.572	1	12
611.742	1	-9
611.912	1	5
612.081	1	2
612.251	1	11
612.421	1	5
612.590	1	2
612.760	1	17
612.930	1	2
613.099	1	-4
613.269	1	-3
613.439	1	0
613.608	1	4
613.778	1	1
613.948	1	6
614.117	1	7
614.287	1	12
614.457	1	8
614.626	1	10
614.796	1	-2
614.966	1	0
615.135	1	10
615.305	1	8
615.475	1	-1
615.644	1	5
615.814	1	-2
615.984	1	4
616.153	1	1
616.323	1	-2
616.493	1	16
616.662	1	-6
616.832	1	3
617.002	1	-5
617.171	1	18
617.341	1	2
617.511	1	5
617.680	1	-9
617.850	1	-3
618.019	1	14
618.189	1	2
618.359	1	-1
618.528	1	0
618.698	1	4
618.868	1	-4
619.037	1	5
619.207	1	6
619.377	1	5
619.546	1	-8
619.716	1	3
619.885	1	5
620.055	1	13
620.225	1	4
620.394	1	10
620.564	1	-5
620.734	1	7
620.903	1	12
621.073	1	14
621.242	1	3
621.412	1	7
621.582	1	2
621.751	1	8
621.921	1	11
622.091	1	-3
622.260	1	-3
622.430	1	8
622.599	1	9
622.769	1	6
622.939	1	6
623.108	1	13
623.278	1	15
623.448	1	11
623.617	1	1
623.787	1	12
623.956	1	15
624.126	1	-2
624.296	1	6
624.465	1	4
624.635	1	3
624.804	1	5
624.974	1	3
625.144	1	14
625.313	1	-3
625.483	1	15
625.652	1	16
625.822	1	3
625.992	1	8
626.161	1	-6
626.331	1	7
626.501	1	-1
626.670	1	3
626.840	1	0
627.009	1	2
627.179	1	-6
627.348	1	16
627.518	1	11
627.688	1	4
627.857	1	6
628.027	1	-4
628.196	1	-4
628.366	1	-2
628.536	1	5
628.705	1	5
628.875	1	14
629.044	1	12
629.214	1	6
629.384	1	1
629.553	1	2
629.723	1	-5
629.892	1	-6
630.062	1	-6
630.232	1	10
630.401	1	18
630.571	1	6
630.740	1	0
630.910	1	5
631.079	1	3
631.249	1	9
631.419	1	4
631.588	1	2
631.758	1	7
631.927	1	7
632.097	1	0
632.266	1	-1
632.436	1	8
632.606	1	-6
632.775	1	9
632.945	1	1
633.114	1	4
633.284	1	5
633.453	1	9
633.623	1	12
633.793	1	6
633.962	1	-1
634.132	1	-7
634.301	1	0
634.471	1	-4
634.640	1	11
634.810	1	4
634.979	1	11
635.149	1	3
635.319	1	13
635.488	1	-2
635.658	1	12
635.827	1	-1
635.997	1	2
636.166	1	0
636.336	1	6
636.505	1	4
636.675	1	4
636.845	1	5
637.014	1	15
637.184	1	10
637.353	1	-6
637.523	1	0
637.692	1	10
637.862	1	6
638.031	1	1
638.201	1	-5
638.370	1	14
638.540	1	4
638.710	1	13
638.879	1	1
639.049	1	6
639.218	1	20
639.388	1	4
639.557	1	2
639.727	1	7
639.896	1	0
640.066	1	5
640.235	1	-1
640.405	1	2
640.574	1	13
640.744	1	0
640.914	1	-2
641.083	1	7
641.253	1	3
641.422	1	8
641.592	1	-2
641.761	1	-1
641.931	1	1
642.100	1	7
642.270	1	10
642.439	1	11
642.609	1	14
642.778	1	0
642.948	1	6
643.117	1	14
643.287	1	2
643.456	1	18
643.626	1	7
643.795	1	16
643.965	1	2
644.134	1	7
644.304	1	1
644.473	1	-2
644.643	1	6
644.812	1	7
644.982	1	3
645.151	1	6
645.321	1	1
645.490	1	12
645.660	1	-2
645.829	1	-1
645.999	1	11
646.168	1	4
646.338	1	0
646.507	1	2
646.677	1	9
646.846	1	12
647.016	1	-3
647.185	1	10
647.355	1	-5
647.524	1	11
647.694	1	-3
647.863	1	8
648.033	1	4
648.202	1	2
648.372	1	0
648.541	1	1
648.711	1	6
648.880	1	2
649.050	1	10
649.219	1	6
649.389	1	5
649.558	1	5
649.728	1	5
649.897	1	-2
650.067	1	9
650.236	1	1
650.406	1	3
650.575	1	11
650.745	1	0
650.914	1	9
651.084	1	11
651.253	1	3
651.423	1	4
651.592	1	-2
651.762	1	3
651.931	1	2
652.101	1	10
652.270	1	1
652.440	1	12
652.609	1	10
652.778	1	4
652.948	1	3
653.117	1	5
653.287	1	10
653.456	1	5
653.626	1	5
653.795	1	6
653.965	1	0
654.134	1	-5
654.304	1	7
654.473	1	3
654.643	1	7
654.812	1	9
654.982	1	15
655.151	1	10
655.320	1	8
655.490	1	10
655.659	1	7
655.829	1	7
655.998	1	-5
656.168	1	6
656.337	1	1
656.507	1	4
656.676	1	1
656.846	1	5
657.015	1	1
657.184	1	-2
657.354	1	6
657.523	1	7
657.693	1	-1
657.862	1	-7
658.032	1	5
658.201	1	12
658.371	1	-4
658.540	1	3
658.709	1	0
658.879	1	18
659.048	1	5
659.218	1	-1
659.387	1	7
659.557	1	0
659.726	1	-3
659.895	1	2
660.065	1	17
660.234	1	4
660.404	1	8
660.573	1	6
660.743	1	5
660.912	1	2
661.081	1	-9
661.251	1	14
661.420	1	9
661.590	1	4
661.759	1	2
661.929	1	4
662.098	1	10
662.267	1	17
662.437	1	8
662.606	1	2
662.776	1	-7
662.945	1	3
663.115	1	3
663.284	1	-1
663.453	1	8
663.623	1	11
663.792	1	6
663.962	1	2
664.131	1	10
664.300	1	-9
664.470	1	3
664.639	1	-1
664.809	1	2
664.978	1	7
665.148	1	-3
665.317	1	2
665.486	1	4
665.656	1	5
665.825	1	12
665.995	1	-7
666.164	1	10
666.333	1	1
666.503	1	4
666.672	1	8
666.842	1	0
667.011	1	-1
667.180	1	7
667.350	1	2
667.519	1	-4
667.689	1	1
667.858	1	10
668.027	1	3
668.197	1	9
668.366	1	3
668.536	1	-1
668.705	1	2
668.874	1	-3
669.044	1	6
669.213	1	10
669.382	1	5
669.552	1	19
669.721	1	12
669.891	1	2
670.060	1	-1
670.229	1	-6
670.399	1	-2
670.568	1	2
670.738	1	4
670.907	1	-2
671.076	1	11
671.246	1	-1
671.415	1	0
671.584	1	0
671.754	1	2
671.923	1	13
672.093	1	2
672.262	1	2
672.431	1	10
672.601	1	9
672.770	1	5
672.939	1	1
673.109	1	2
673.278	1	-1
673.448	1	6
673.617	1	1
673.786	1	12
