325.333	1	3
325.504	1	5
325.675	1	2
325.846	1	-5
326.017	1	-1
326.188	1	-9
326.359	1	10
326.531	1	5
326.702	1	1
326.873	1	-7
327.044	1	3
327.215	1	-2
327.386	1	7
327.557	1	7
327.728	1	-6
327.899	1	-8
328.070	1	-1
328.241	1	5
328.412	1	-13
328.583	1	5
328.754	1	-11
328.926	1	7
329.097	1	-2
329.268	1	-5
329.439	1	-4
329.610	1	-5
329.781	1	7
329.952	1	-1
330.123	1	4
330.294	1	-6
330.465	1	2
330.636	1	5
330.807	1	3
330.978	1	3
331.149	1	0
331.320	1	6
331.492	1	-10
331.663	1	-4
331.834	1	-6
332.005	1	0
332.176	1	3
332.347	1	19
332.518	1	12
332.689	1	-2
332.860	1	3
333.031	1	1
333.202	1	-4
333.373	1	-1
333.544	1	-5
333.715	1	8
333.886	1	1
334.057	1	0
334.228	1	-7
334.399	1	9
334.570	1	-10
334.741	1	7
334.912	1	-1
335.084	1	-7
335.255	1	-1
335.426	1	10
335.597	1	9
335.768	1	2
335.939	1	-6
336.110	1	12
336.281	1	6
336.452	1	-8
336.623	1	-6
336.794	1	-5
336.965	1	-12
337.136	1	14
337.307	1	11
337.478	1	-1
337.649	1	-8
337.820	1	-11
337.991	1	5
338.162	1	5
338.333	1	2
338.504	1	3
338.675	1	17
338.846	1	10
339.017	1	10
339.188	1	7
339.359	1	8
339.530	1	-2
339.701	1	2
339.872	1	1
340.043	1	0
340.214	1	-8
340.385	1	12
340.556	1	1
340.727	1	-1
340.898	1	4
341.069	1	-2
341.240	1	2
341.411	1	7
341.582	1	5
341.753	1	-7
341.924	1	5
342.095	1	11
342.266	1	-4
342.437	1	-2
342.608	1	9
342.779	1	6
342.950	1	-15
343.121	1	-9
343.292	1	-4
343.463	1	4
343.634	1	-1
343.805	1	1
343.976	1	-7
344.147	1	1
344.318	1	0
344.489	1	11
344.660	1	7
344.831	1	5
345.002	1	3
345.173	1	7
345.344	1	-7
345.515	1	6
345.686	1	-5
345.857	1	-1
346.028	1	-12
346.199	1	9
346.370	1	8
346.541	1	-3
346.712	1	-1
346.883	1	4
347.054	1	7
347.225	1	-6
347.396	1	0
347.567	1	-7
347.738	1	3
347.909	1	11
348.080	1	3
348.251	1	-2
348.422	1	-10
348.593	1	6
348.764	1	-5
348.935	1	-7
349.106	1	0
349.277	1	3
349.448	1	-3
349.619	1	6
349.790	1	3
349.961	1	5
350.132	1	7
350.303	1	-5
350.474	1	0
350.645	1	11
350.816	1	-7
350.987	1	-1
351.157	1	0
351.328	1	-4
351.499	1	5
351.670	1	2
351.841	1	5
352.012	1	3
352.183	1	-2
352.354	1	0
352.525	1	5
352.696	1	-4
352.867	1	6
353.038	1	-13
353.209	1	-5
353.380	1	3
353.551	1	-5
353.722	1	9
353.893	1	14
354.064	1	0
354.235	1	12
354.406	1	1
354.576	1	8
354.747	1	7
354.918	1	13
355.089	1	-1
355.260	1	5
355.431	1	6
355.602	1	0
355.773	1	6
355.944	1	-2
356.115	1	-3
356.286	1	2
356.457	1	4
356.628	1	-5
356.799	1	-3
356.970	1	0
357.141	1	1
357.311	1	-5
357.482	1	0
357.653	1	0
357.824	1	2
357.995	1	3
358.166	1	5
358.337	1	-3
358.508	1	-10
358.679	1	1
358.850	1	3
359.021	1	5
359.192	1	1
359.363	1	-10
359.533	1	8
359.704	1	7
359.875	1	-3
360.046	1	-3
360.217	1	-15
360.388	1	-5
360.559	1	8
360.730	1	-2
360.901	1	-7
361.072	1	-2
361.243	1	0
361.414	1	9
361.584	1	13
361.755	1	6
361.926	1	-2
362.097	1	-3
362.268	1	7
362.439	1	8
362.610	1	-9
362.781	1	10
362.952	1	-4
363.123	1	-10
363.293	1	-1
363.464	1	6
363.635	1	6
363.806	1	9
363.977	1	2
364.148	1	4
364.319	1	-12
364.490	1	3
364.661	1	5
364.832	1	0
365.002	1	2
365.173	1	-2
365.344	1	-2
365.515	1	11
365.686	1	0
365.857	1	4
366.028	1	-4
366.199	1	0
366.370	1	2
366.540	1	-3
366.711	1	2
366.882	1	-2
367.053	1	3
367.224	1	-2
367.395	1	6
367.566	1	10
367.737	1	0
367.908	1	-3
368.078	1	2
368.249	1	4
368.420	1	-2
368.591	1	6
368.762	1	-19
368.933	1	12
369.104	1	-5
369.274	1	5
369.445	1	2
369.616	1	-10
369.787	1	-4
369.958	1	2
370.129	1	-5
370.300	1	-2
370.471	1	-4
370.641	1	-6
370.812	1	6
370.983	1	-1
371.154	1	9
371.325	1	5
371.496	1	-8
371.667	1	6
371.837	1	0
372.008	1	5
372.179	1	-1
372.350	1	2
372.521	1	7
372.692	1	-4
372.863	1	-8
373.033	1	6
373.204	1	6
373.375	1	-2
373.546	1	4
373.717	1	2
373.888	1	0
374.059	1	0
374.229	1	-3
374.400	1	1
374.571	1	8
374.742	1	-1
374.913	1	6
375.084	1	8
375.254	1	9
375.425	1	-4
375.596	1	4
375.767	1	-9
375.938	1	-6
376.109	1	3
376.279	1	-3
376.450	1	0
376.621	1	-1
376.792	1	3
376.963	1	5
377.134	1	-7
377.304	1	0
377.475	1	2
377.646	1	-2
377.817	1	0
377.988	1	3
378.159	1	9
378.329	1	10
378.500	1	-11
378.671	1	-10
378.842	1	0
379.013	1	1
379.184	1	5
379.354	1	10
379.525	1	-8
379.696	1	14
379.867	1	-8
380.038	1	2
380.209	1	0
380.379	1	14
380.550	1	2
380.721	1	4
380.892	1	2
381.063	1	0
381.233	1	8
381.404	1	7
381.575	1	-1
381.746	1	1
381.917	1	-5
382.087	1	-1
382.258	1	1
382.429	1	-3
382.600	1	7
382.771	1	2
382.941	1	-4
383.112	1	-1
383.283	1	4
383.454	1	7
383.625	1	1
383.795	1	2
383.966	1	4
384.137	1	-1
384.308	1	-7
384.479	1	13
384.649	1	13
384.820	1	12
384.991	1	-3
385.162	1	8
385.333	1	3
385.503	1	12
385.674	1	11
385.845	1	1
386.016	1	8
386.187	1	-3
386.357	1	8
386.528	1	-1
386.699	1	-9
386.870	1	-2
387.041	1	10
387.211	1	4
387.382	1	-5
387.553	1	11
387.724	1	-4
387.894	1	3
388.065	1	8
388.236	1	7
388.407	1	5
388.578	1	12
388.748	1	11
388.919	1	18
389.090	1	11
389.261	1	9
389.431	1	13
389.602	1	2
389.773	1	-11
389.944	1	4
390.114	1	5
390.285	1	-2
390.456	1	4
390.627	1	12
390.798	1	-3
390.968	1	6
391.139	1	7
391.310	1	6
391.481	1	0
391.651	1	6
391.822	1	9
391.993	1	2
392.164	1	-7
392.334	1	0
392.505	1	-1
392.676	1	-2
392.847	1	15
393.017	1	9
393.188	1	-12
393.359	1	7
393.530	1	8
393.700	1	12
393.871	1	4
394.042	1	6
394.213	1	7
394.383	1	3
394.554	1	4
394.725	1	3
394.896	1	10
395.066	1	4
395.237	1	-5
395.408	1	-3
395.579	1	8
395.749	1	8
395.920	1	-2
396.091	1	11
396.262	1	1
396.432	1	-2
396.603	1	0
396.774	1	10
396.945	1	1
397.115	1	1
397.286	1	10
397.457	1	5
397.627	1	13
397.798	1	6
397.969	1	9
398.140	1	-1
398.310	1	8
398.481	1	9
398.652	1	0
398.823	1	4
398.993	1	19
399.164	1	-2
399.335	1	0
399.505	1	17
399.676	1	7
399.847	1	7
400.018	1	4
400.188	1	11
400.359	1	14
400.530	1	-13
400.700	1	3
400.871	1	7
401.042	1	5
401.213	1	-1
401.383	1	2
401.554	1	12
401.725	1	2
401.895	1	0
402.066	1	7
402.237	1	12
402.408	1	7
402.578	1	3
402.749	1	5
402.920	1	16
403.090	1	2
403.261	1	11
403.432	1	13
403.603	1	-5
403.773	1	9
403.944	1	13
404.115	1	4
404.285	1	15
404.456	1	0
404.627	1	0
404.797	1	7
404.968	1	0
405.139	1	-1
405.310	1	-2
405.480	1	7
405.651	1	6
405.822	1	15
405.992	1	9
406.163	1	10
406.334	1	11
406.504	1	-1
406.675	1	3
406.846	1	6
407.016	1	-14
407.187	1	12
407.358	1	-3
407.528	1	11
407.699	1	-1
407.870	1	9
408.041	1	-2
408.211	1	10
408.382	1	6
408.553	1	-2
408.723	1	8
408.894	1	11
409.065	1	11
409.235	1	5
409.406	1	5
409.577	1	2
409.747	1	16
409.918	1	-1
410.089	1	-11
410.259	1	-6
410.430	1	12
410.601	1	4
410.771	1	11
410.942	1	1
411.113	1	15
411.283	1	-1
411.454	1	7
411.625	1	4
411.795	1	-2
411.966	1	0
412.137	1	-3
412.307	1	2
412.478	1	11
412.649	1	-5
412.819	1	-7
412.990	1	7
413.161	1	6
413.331	1	5
413.502	1	-14
413.672	1	10
413.843	1	3
414.014	1	30
414.184	1	2
414.355	1	4
414.526	1	0
414.696	1	7
414.867	1	5
415.038	1	2
415.208	1	7
415.379	1	3
415.550	1	5
415.720	1	4
415.891	1	21
416.062	1	11
416.232	1	6
416.403	1	6
416.573	1	3
416.744	1	3
416.915	1	5
417.085	1	1
417.256	1	18
417.427	1	12
417.597	1	6
417.768	1	11
417.939	1	4
418.109	1	-3
418.280	1	6
418.450	1	17
418.621	1	-1
418.792	1	0
418.962	1	-2
419.133	1	9
419.304	1	7
419.474	1	-1
419.645	1	5
419.815	1	2
419.986	1	-8
420.157	1	14
420.327	1	7
420.498	1	-6
420.669	1	10
420.839	1	3
421.010	1	10
421.180	1	-3
421.351	1	10
421.522	1	7
421.692	1	13
421.863	1	-6
422.033	1	14
422.204	1	11
422.375	1	5
422.545	1	0
422.716	1	5
422.886	1	13
423.057	1	-6
423.228	1	-7
423.398	1	12
423.569	1	10
423.740	1	-3
423.910	1	17
424.081	1	15
424.251	1	2
424.422	1	-2
424.593	1	3
424.763	1	5
424.934	1	14
425.104	1	10
425.275	1	8
425.445	1	14
425.616	1	13
425.787	1	20
425.957	1	-2
426.128	1	14
426.298	1	3
426.469	1	-3
426.640	1	1
426.810	1	9
426.981	1	2
427.151	1	2
427.322	1	-4
427.493	1	2
427.663	1	9
427.834	1	12
428.004	1	3
428.175	1	1
428.345	1	7
428.516	1	-4
428.687	1	5
428.857	1	7
429.028	1	8
429.198	1	11
429.369	1	10
429.540	1	11
429.710	1	9
429.881	1	6
430.051	1	6
430.222	1	2
430.392	1	9
430.563	1	1
430.734	1	20
430.904	1	1
431.075	1	2
431.245	1	3
431.416	1	-4
431.586	1	1
431.757	1	6
431.927	1	-10
432.098	1	13
432.269	1	15
432.439	1	6
432.610	1	4
432.780	1	5
432.951	1	-1
433.121	1	15
433.292	1	3
433.462	1	1
433.633	1	4
433.804	1	-5
433.974	1	13
434.145	1	0
434.315	1	9
434.486	1	-10
434.656	1	9
434.827	1	3
434.997	1	25
435.168	1	2
435.339	1	-5
435.509	1	-1
435.680	1	6
435.850	1	0
436.021	1	8
436.191	1	10
436.362	1	23
436.532	1	5
436.703	1	13
436.873	1	2
437.044	1	2
437.214	1	7
437.385	1	7
437.556	1	1
437.726	1	4
437.897	1	-4
438.067	1	-2
438.238	1	10
438.408	1	5
438.579	1	7
438.749	1	-5
438.920	1	7
439.090	1	-5
439.261	1	3
439.431	1	9
439.602	1	13
439.772	1	2
439.943	1	9
440.113	1	11
440.284	1	5
440.455	1	10
440.625	1	8
440.796	1	-1
440.966	1	5
441.137	1	-1
441.307	1	0
441.478	1	6
441.648	1	8
441.819	1	2
441.989	1	-1
442.160	1	11
442.330	1	17
442.501	1	2
442.671	1	6
442.842	1	8
443.012	1	7
443.183	1	4
443.353	1	3
443.524	1	12
443.694	1	8
443.865	1	15
444.035	1	4
444.206	1	-4
444.376	1	15
444.547	1	9
444.717	1	12
444.888	1	11
445.058	1	1
445.229	1	6
445.399	1	9
445.570	1	-4
445.740	1	12
445.911	1	15
446.081	1	18
446.252	1	1
446.422	1	4
446.593	1	2
446.763	1	5
446.934	1	15
447.104	1	4
447.275	1	18
447.445	1	-3
447.616	1	6
447.786	1	-6
447.957	1	6
448.127	1	15
448.298	1	8
448.468	1	16
448.639	1	-4
448.809	1	5
448.979	1	9
449.150	1	12
449.320	1	12
449.491	1	4
449.661	1	6
449.832	1	9
450.002	1	9
450.173	1	5
450.343	1	2
450.514	1	5
450.684	1	5
450.855	1	7
451.025	1	2
451.196	1	13
451.366	1	-2
451.537	1	6
451.707	1	8
451.878	1	3
452.048	1	3
452.218	1	-2
452.389	1	2
452.559	1	1
452.730	1	5
452.900	1	9
453.071	1	10
453.241	1	9
453.412	1	-1
453.582	1	-5
453.753	1	2
453.923	1	8
454.093	1	18
454.264	1	5
454.434	1	2
454.605	1	9
454.775	1	2
454.946	1	10
455.116	1	-1
455.287	1	6
455.457	1	2
455.628	1	7
455.798	1	2
455.968	1	5
456.139	1	8
456.309	1	8
456.480	1	3
456.650	1	11
456.821	1	14
456.991	1	10
457.161	1	7
457.332	1	10
457.502	1	16
457.673	1	11
457.843	1	9
458.014	1	9
458.184	1	5
458.355	1	-3
458.525	1	8
458.695	1	12
458.866	1	13
459.036	1	7
459.207	1	-5
459.377	1	7
459.548	1	2
459.718	1	-1
459.888	1	9
460.059	1	9
460.229	1	7
460.400	1	-2
460.570	1	12
460.740	1	5
460.911	1	14
461.081	1	10
461.252	1	1
461.422	1	8
461.593	1	10
461.763	1	3
461.933	1	4
462.104	1	8
462.274	1	1
462.445	1	2
462.615	1	13
462.785	1	8
462.956	1	1
463.126	1	6
463.297	1	6
463.467	1	6
463.638	1	7
463.808	1	4
463.978	1	4
464.149	1	3
464.319	1	7
464.490	1	7
464.660	1	2
464.830	1	3
465.001	1	11
465.171	1	-2
465.342	1	4
465.512	1	0
465.682	1	9
465.853	1	-11
466.023	1	7
466.194	1	10
466.364	1	5
466.534	1	8
466.705	1	-5
466.875	1	10
467.045	1	7
467.216	1	7
467.386	1	14
467.557	1	2
467.727	1	9
467.897	1	8
468.068	1	-11
468.238	1	12
468.409	1	-4
468.579	1	9
468.749	1	8
468.920	1	3
469.090	1	8
469.260	1	4
469.431	1	4
469.601	1	2
469.772	1	-12
469.942	1	12
470.112	1	9
470.283	1	10
470.453	1	12
470.623	1	3
470.794	1	8
470.964	1	3
471.135	1	1
471.305	1	-3
471.475	1	-4
471.646	1	3
471.816	1	1
471.986	1	11
472.157	1	2
472.327	1	5
472.497	1	16
472.668	1	-2
472.838	1	10
473.009	1	2
473.179	1	6
473.349	1	15
473.520	1	0
473.690	1	6
473.860	1	7
474.031	1	5
474.201	1	12
474.371	1	11
474.542	1	6
474.712	1	1
474.882	1	0
475.053	1	11
475.223	1	-7
475.394	1	5
475.564	1	7
475.734	1	8
475.905	1	4
476.075	1	6
476.245	1	11
476.416	1	0
476.586	1	2
476.756	1	6
476.927	1	-1
477.097	1	1
477.267	1	12
477.438	1	14
477.608	1	-6
477.778	1	-4
477.949	1	5
478.119	1	6
478.289	1	-6
478.460	1	-3
478.630	1	12
478.800	1	8
478.971	1	10
479.141	1	-1
479.311	1	11
479.482	1	2
479.652	1	4
479.822	1	11
479.993	1	-1
480.163	1	0
480.333	1	8
480.504	1	-1
480.674	1	3
480.844	1	1
481.015	1	3
481.185	1	3
481.355	1	1
481.525	1	8
481.696	1	9
481.866	1	11
482.036	1	7
482.207	1	1
482.377	1	11
482.547	1	-4
482.718	1	-1
482.888	1	2
483.058	1	0
483.229	1	-2
483.399	1	3
483.569	1	11
483.740	1	3
483.910	1	0
484.080	1	-6
484.250	1	-6
484.421	1	1
484.591	1	4
484.761	1	1
484.932	1	-1
485.102	1	5
485.272	1	-3
485.443	1	12
485.613	1	19
485.783	1	15
485.953	1	10
486.124	1	0
486.294	1	0
486.464	1	-2
486.635	1	10
486.805	1	-3
486.975	1	4
487.146	1	-7
487.316	1	9
487.486	1	-2
487.656	1	1
487.827	1	-7
487.997	1	1
488.167	1	1
488.338	1	1
488.508	1	6
488.678	1	6
488.848	1	1
489.019	1	-2
489.189	1	-5
489.359	1	3
489.529	1	8
489.700	1	13
489.870	1	-3
490.040	1	-5
490.211	1	0
490.381	1	2
490.551	1	5
490.721	1	10
490.892	1	-3
491.062	1	-2
491.232	1	-5
491.402	1	-3
491.573	1	-2
491.743	1	2
491.913	1	-12
492.084	1	3
492.254	1	-1
492.424	1	5
492.594	1	15
492.765	1	1
492.935	1	-2
493.105	1	-4
493.275	1	1
493.446	1	1
493.616	1	-2
493.786	1	-10
493.956	1	-7
494.127	1	10
494.297	1	-5
494.467	1	0
494.637	1	6
494.808	1	11
494.978	1	6
495.148	1	6
495.318	1	2
495.489	1	-2
495.659	1	-1
495.829	1	4
495.999	1	6
496.170	1	-11
496.340	1	3
496.510	1	7
496.680	1	-3
496.851	1	5
497.021	1	-6
497.191	1	1
497.361	1	4
497.532	1	3
497.702	1	9
497.872	1	11
498.042	1	3
498.213	1	6
498.383	1	14
498.553	1	-9
498.723	1	-5
498.894	1	-5
499.064	1	0
499.234	1	-10
499.404	1	-7
499.574	1	-3
499.745	1	0
499.915	1	6
500.085	1	-5
500.255	1	4
500.426	1	2
500.596	1	-15
500.766	1	-3
500.936	1	12
501.106	1	2
501.277	1	9
501.447	1	0
501.617	1	1
501.787	1	7
501.958	1	-1
502.128	1	-3
502.298	1	2
502.468	1	5
502.638	1	4
502.809	1	2
502.979	1	13
503.149	1	-9
503.319	1	8
503.489	1	-1
503.660	1	-3
503.830	1	3
504.000	1	4
504.170	1	-1
504.340	1	6
504.511	1	10
504.681	1	-9
504.851	1	8
505.021	1	11
505.192	1	11
505.362	1	2
505.532	1	6
505.702	1	2
505.872	1	4
506.043	1	2
506.213	1	10
506.383	1	-1
506.553	1	6
506.723	1	2
506.893	1	-9
507.064	1	-1
507.234	1	-4
507.404	1	8
507.574	1	1
507.744	1	6
507.915	1	-3
508.085	1	1
508.255	1	-1
508.425	1	-1
508.595	1	-5
508.766	1	4
508.936	1	4
509.106	1	10
509.276	1	4
509.446	1	7
509.616	1	-4
509.787	1	6
509.957	1	2
510.127	1	7
510.297	1	4
510.467	1	4
510.638	1	7
510.808	1	0
510.978	1	-4
511.148	1	10
511.318	1	-5
511.488	1	16
511.659	1	-2
511.829	1	0
511.999	1	-2
512.169	1	1
512.339	1	9
512.509	1	-1
512.680	1	7
512.850	1	-6
513.020	1	1
513.190	1	7
513.360	1	7
513.530	1	6
513.700	1	-2
513.871	1	8
514.041	1	8
514.211	1	3
514.381	1	0
514.551	1	0
514.721	1	-1
514.892	1	1
515.062	1	-2
515.232	1	3
515.402	1	1
515.572	1	-1
515.742	1	-1
515.912	1	-10
516.083	1	-8
516.253	1	3
516.423	1	-1
516.593	1	6
516.763	1	-3
516.933	1	-9
517.104	1	-5
517.274	1	-2
517.444	1	0
517.614	1	-10
517.784	1	6
517.954	1	1
518.124	1	-5
518.294	1	10
518.465	1	-8
518.635	1	0
518.805	1	18
518.975	1	-4
519.145	1	-3
519.315	1	-6
519.485	1	-4
519.656	1	-1
519.826	1	5
519.996	1	3
520.166	1	10
520.336	1	-2
520.506	1	-10
520.676	1	5
520.846	1	-2
521.017	1	-9
521.187	1	7
521.357	1	1
521.527	1	-1
521.697	1	6
521.867	1	5
522.037	1	-9
522.207	1	-11
522.377	1	3
522.548	1	1
522.718	1	-7
522.888	1	6
523.058	1	1
523.228	1	3
523.398	1	10
523.568	1	-2
523.738	1	2
523.909	1	-1
524.079	1	-3
524.249	1	0
524.419	1	5
524.589	1	-2
524.759	1	3
524.929	1	-3
525.099	1	0
525.269	1	8
525.439	1	-3
525.610	1	-7
525.780	1	2
525.950	1	3
526.120	1	0
526.290	1	12
526.460	1	4
526.630	1	4
526.800	1	0
526.970	1	7
527.140	1	3
527.311	1	-1
527.481	1	4
527.651	1	-5
527.821	1	2
527.991	1	5
528.161	1	-5
528.331	1	8
528.501	1	4
528.671	1	-3
528.841	1	-1
529.011	1	-4
529.181	1	-3
529.352	1	0
529.522	1	4
529.692	1	5
529.862	1	15
530.032	1	7
530.202	1	4
530.372	1	-9
530.542	1	-6
530.712	1	-3
530.882	1	-12
531.052	1	8
531.222	1	-7
531.392	1	9
531.563	1	4
531.733	1	6
531.903	1	6
532.073	1	3
532.243	1	-5
532.413	1	7
532.583	1	-10
532.753	1	7
532.923	1	7
533.093	1	8
533.263	1	-9
533.433	1	13
533.603	1	3
533.773	1	-8
533.943	1	-2
534.113	1	3
534.284	1	-7
534.454	1	-7
534.624	1	7
534.794	1	-4
534.964	1	-2
535.134	1	5
535.304	1	10
535.474	1	-2
535.644	1	0
535.814	1	8
535.984	1	7
536.154	1	4
536.324	1	6
536.494	1	3
536.664	1	9
536.834	1	1
537.004	1	8
537.174	1	-2
537.344	1	4
537.514	1	-2
537.685	1	-3
537.855	1	3
538.025	1	5
538.195	1	-11
538.365	1	5
538.535	1	-4
538.705	1	4
538.875	1	9
539.045	1	7
539.215	1	-1
539.385	1	4
539.555	1	1
539.725	1	-2
539.895	1	11
540.065	1	3
540.235	1	11
540.405	1	-2
540.575	1	-17
540.745	1	5
540.915	1	1
541.085	1	-8
541.255	1	-9
541.425	1	3
541.595	1	4
541.765	1	16
541.935	1	-3
542.105	1	4
542.275	1	6
542.445	1	0
542.615	1	2
542.785	1	-5
542.955	1	-6
543.125	1	-11
543.295	1	-9
543.465	1	9
543.635	1	-1
543.805	1	9
543.975	1	6
544.145	1	-4
544.315	1	-10
544.485	1	-6
544.655	1	10
544.825	1	-1
544.995	1	-3
545.165	1	-3
545.335	1	-9
545.505	1	15
545.675	1	-9
545.845	1	5
546.015	1	6
546.185	1	-4
546.355	1	0
546.525	1	6
546.695	1	-5
546.865	1	6
547.035	1	6
547.205	1	3
547.375	1	20
547.545	1	17
547.715	1	8
547.885	1	4
548.055	1	-4
548.225	1	3
548.395	1	-15
548.565	1	7
548.735	1	0
548.905	1	-4
549.075	1	6
549.245	1	4
549.415	1	3
549.585	1	13
549.755	1	2
549.925	1	0
550.095	1	-3
550.265	1	-1
550.435	1	-9
550.605	1	12
550.775	1	-4
550.945	1	8
551.115	1	1
551.285	1	4
551.455	1	4
551.625	1	-7
551.795	1	-7
551.965	1	-1
552.135	1	-7
552.305	1	-13
552.475	1	-3
552.645	1	-1
552.815	1	-5
552.985	1	-3
553.155	1	-4
553.325	1	2
553.495	1	3
553.665	1	-3
553.835	1	1
554.004	1	-12
554.174	1	-2
554.344	1	-6
554.514	1	-3
554.684	1	-1
554.854	1	-1
555.024	1	-1
555.194	1	-7
555.364	1	0
555.534	1	2
555.704	1	5
555.874	1	-6
556.044	1	8
556.214	1	-5
556.384	1	5
556.554	1	11
556.724	1	0
556.894	1	-8
557.064	1	1
557.234	1	-1
557.404	1	0
557.573	1	-6
557.743	1	4
557.913	1	1
558.083	1	10
558.253	1	1
558.423	1	0
558.593	1	6
558.763	1	0
558.933	1	-2
559.103	1	9
559.273	1	-10
559.443	1	3
559.613	1	-4
559.783	1	12
559.953	1	6
560.122	1	-2
560.292	1	2
560.462	1	-1
560.632	1	0
560.802	1	-1
560.972	1	1
561.142	1	5
561.312	1	7
561.482	1	10
561.652	1	0
561.822	1	-9
561.992	1	-13
562.162	1	5
562.331	1	5
562.501	1	-7
562.671	1	16
562.841	1	1
563.011	1	-9
563.181	1	-2
563.351	1	-1
563.521	1	9
563.691	1	4
563.861	1	-6
564.031	1	-4
564.201	1	-3
564.370	1	-3
564.540	1	-7
564.710	1	-5
564.880	1	4
565.050	1	-5
565.220	1	-2
565.390	1	5
565.560	1	-1
565.730	1	1
565.900	1	-10
566.069	1	-5
566.239	1	3
566.409	1	-1
566.579	1	-5
566.749	1	-1
566.919	1	-6
567.089	1	4
567.259	1	6
567.429	1	-5
567.599	1	3
567.768	1	1
567.938	1	-10
568.108	1	5
568.278	1	4
568.448	1	-5
568.618	1	10
568.788	1	-11
568.958	1	-4
569.128	1	-1
569.297	1	-4
569.467	1	3
569.637	1	2
569.807	1	-7
569.977	1	16
570.147	1	-3
570.317	1	-6
570.487	1	5
570.656	1	10
570.826	1	-12
570.996	1	13
571.166	1	-2
571.336	1	-3
571.506	1	-2
571.676	1	-7
571.846	1	-10
572.015	1	0
572.185	1	-7
572.355	1	4
572.525	1	-7
572.695	1	5
572.865	1	2
573.035	1	-5
573.205	1	-14
573.374	1	13
573.544	1	0
573.714	1	-6
573.884	1	3
574.054	1	0
574.224	1	-1
574.394	1	-1
574.563	1	11
574.733	1	-1
574.903	1	-5
575.073	1	-11
575.243	1	-7
575.413	1	-2
575.583	1	-6
575.752	1	1
575.922	1	2
576.092	1	-10
576.262	1	2
576.432	1	6
576.602	1	-9
576.772	1	0
576.941	1	1
577.111	1	-2
577.281	1	15
577.451	1	-1
577.621	1	0
577.791	1	0
577.960	1	-6
578.130	1	-6
578.300	1	-3
578.470	1	3
578.640	1	0
578.810	1	-2
578.979	1	-1
579.149	1	-7
579.319	1	-8
579.489	1	8
579.659	1	2
579.829	1	-1
579.998	1	1
580.168	1	-11
580.338	1	1
580.508	1	1
580.678	1	3
580.848	1	7
581.017	1	10
581.187	1	-1
581.357	1	3
581.527	1	-9
581.697	1	-12
581.867	1	3
582.036	1	-1
582.206	1	-11
582.376	1	5
582.546	1	6
582.716	1	-3
582.885	1	3
583.055	1	-20
583.225	1	2
583.395	1	-4
583.565	1	-6
583.735	1	-1
583.904	1	16
584.074	1	2
584.244	1	3
584.414	1	-3
584.584	1	6
584.753	1	10
584.923	1	3
585.093	1	-6
585.263	1	-3
585.433	1	12
585.602	1	1
585.772	1	10
585.942	1	3
586.112	1	-2
586.282	1	0
586.451	1	-2
586.621	1	2
586.791	1	-8
586.961	1	5
587.131	1	-1
587.300	1	14
587.470	1	-2
587.640	1	-12
587.810	1	-9
587.980	1	-11
588.149	1	7
588.319	1	0
588.489	1	-9
588.659	1	9
588.829	1	-7
588.998	1	-8
589.168	1	-2
589.338	1	1
589.508	1	6
589.677	1	-2
589.847	1	0
590.017	1	6
590.187	1	-1
590.357	1	-1
590.526	1	10
590.696	1	-3
590.866	1	-4
591.036	1	-4
591.205	1	6
591.375	1	3
591.545	1	4
591.715	1	-2
591.885	1	4
592.054	1	1
592.224	1	-3
592.394	1	5
592.564	1	11
592.733	1	5
592.903	1	6
593.073	1	-3
593.243	1	8
593.412	1	-3
593.582	1	-9
593.752	1	4
593.922	1	0
594.091	1	-20
594.261	1	-7
594.431	1	1
594.601	1	0
594.771	1	8
594.940	1	6
595.110	1	1
595.280	1	8
595.450	1	-2
595.619	1	2
595.789	1	6
595.959	1	-3
596.129	1	-2
596.298	1	0
596.468	1	-5
596.638	1	10
596.808	1	-6
596.977	1	-3
597.147	1	-2
597.317	1	6
597.487	1	1
597.656	1	-6
597.826	1	0
597.996	1	3
598.166	1	4
598.335	1	-4
598.505	1	-6
598.675	1	-6
598.844	1	1
599.014	1	-1
599.184	1	-2
599.354	1	4
599.523	1	6
599.693	1	11
599.863	1	3
600.033	1	-11
600.202	1	10
600.372	1	1
600.542	1	-2
600.712	1	8
600.881	1	4
601.051	1	11
601.221	1	11
601.390	1	13
601.560	1	8
601.730	1	5
601.900	1	13
602.069	1	-6
602.239	1	4
602.409	1	1
602.578	1	10
602.748	1	-9
602.918	1	6
603.088	1	7
603.257	1	5
603.427	1	12
603.597	1	-3
603.767	1	6
603.936	1	9
604.106	1	-3
604.276	1	-5
604.445	1	3
604.615	1	-8
604.785	1	1
604.954	1	4
605.124	1	-4
605.294	1	5
605.464	1	-12
605.633	1	2
605.803	1	5
605.973	1	-4
606.142	1	0
606.312	1	4
606.482	1	-2
606.652	1	9
606.821	1	-5
606.991	1	-2
607.161	1	9
607.330	1	-4
607.500	1	7
607.670	1	-1
607.839	1	-2
608.009	1	3
608.179	1	5
608.348	1	6
608.518	1	-1
608.688	1	2
608.858	1	-3
609.027	1	-7
609.197	1	2
609.367	1	-12
609.536	1	8
609.706	1	7
609.876	1	2
610.045	1	2
610.215	1	9
610.385	1	-5
610.554	1	3
610.724	1	-2
610.894	1	4
611.063	1	9
611.233	1	-8
611.403	1	3
611.572	1	-1
611.742	1	-3
611.912	1	3
612.081	1	2
612.251	1	3
612.421	1	2
612.590	1	-9
612.760	1	6
612.930	1	-8
613.099	1	7
613.269	1	5
613.439	1	-6
613.608	1	4
613.778	1	-5
613.948	1	5
614.117	1	-4
614.287	1	6
614.457	1	4
614.626	1	-3
614.796	1	3
614.966	1	8
615.135	1	13
615.305	1	7
615.475	1	-7
615.644	1	0
615.814	1	-3
615.984	1	2
616.153	1	6
616.323	1	4
616.493	1	5
616.662	1	0
616.832	1	3
617.002	1	-2
617.171	1	-3
617.341	1	-1
617.511	1	0
617.680	1	-12
617.850	1	4
618.019	1	-5
618.189	1	1
618.359	1	5
618.528	1	-6
618.698	1	2
618.868	1	-1
619.037	1	9
619.207	1	1
619.377	1	-5
619.546	1	-14
619.716	1	-4
619.885	1	7
620.055	1	12
620.225	1	9
620.394	1	7
620.564	1	-11
620.734	1	5
620.903	1	1
621.073	1	3
621.242	1	-6
621.412	1	0
621.582	1	-2
621.751	1	2
621.921	1	8
622.091	1	0
622.260	1	-5
622.430	1	17
622.599	1	14
622.769	1	-1
622.939	1	-2
623.108	1	-1
623.278	1	11
623.448	1	11
623.617	1	-2
623.787	1	9
623.956	1	9
624.126	1	-4
624.296	1	4
624.465	1	3
624.635	1	2
624.804	1	1
624.974	1	3
625.144	1	16
625.313	1	-3
625.483	1	8
625.652	1	12
625.822	1	2
625.992	1	6
626.161	1	-1
626.331	1	-3
626.501	1	-6
626.670	1	0
626.840	1	-9
627.009	1	-10
627.179	1	0
627.348	1	12
627.518	1	8
627.688	1	-2
627.857	1	-2
628.027	1	-6
628.196	1	-7
628.366	1	5
628.536	1	0
628.705	1	3
628.875	1	11
629.044	1	-2
629.214	1	2
629.384	1	4
629.553	1	2
629.723	1	-12
629.892	1	-11
630.062	1	-11
630.232	1	0
630.401	1	1
630.571	1	-2
630.740	1	-6
630.910	1	3
631.079	1	-8
631.249	1	-1
631.419	1	4
631.588	1	-7
631.758	1	-2
631.927	1	-7
632.097	1	1
632.266	1	0
632.436	1	10
632.606	1	-6
632.775	1	-6
632.945	1	1
633.114	1	3
633.284	1	2
633.453	1	-4
633.623	1	16
633.793	1	-3
633.962	1	1
634.132	1	1
634.301	1	-1
634.471	1	-8
634.640	1	-2
634.810	1	10
634.979	1	2
635.149	1	-5
635.319	1	9
635.488	1	-5
635.658	1	11
635.827	1	0
635.997	1	2
636.166	1	0
636.336	1	-2
636.505	1	2
636.675	1	-5
636.845	1	-3
637.014	1	0
637.184	1	7
637.353	1	2
637.523	1	7
637.692	1	8
637.862	1	0
638.031	1	-9
638.201	1	-7
638.370	1	4
638.540	1	13
638.710	1	3
638.879	1	1
639.049	1	-8
639.218	1	16
639.388	1	-3
639.557	1	-2
639.727	1	7
639.896	1	-6
640.066	1	1
640.235	1	1
640.405	1	0
640.574	1	-5
640.744	1	-4
640.914	1	3
641.083	1	0
641.253	1	-2
641.422	1	-2
641.592	1	-1
641.761	1	5
641.931	1	-5
642.100	1	10
642.270	1	-3
642.439	1	-3
642.609	1	4
642.778	1	5
642.948	1	5
643.117	1	-2
643.287	1	-6
643.456	1	3
643.626	1	-4
643.795	1	3
643.965	1	4
644.134	1	5
644.304	1	1
644.473	1	-7
644.643	1	-9
644.812	1	4
644.982	1	3
645.151	1	-4
645.321	1	8
645.490	1	9
645.660	1	-3
645.829	1	-5
645.999	1	3
646.168	1	5
646.338	1	1
646.507	1	0
646.677	1	0
646.846	1	9
647.016	1	4
647.185	1	6
647.355	1	0
647.524	1	3
647.694	1	-9
647.863	1	10
648.033	1	-1
648.202	1	4
648.372	1	-6
648.541	1	-2
648.711	1	-4
648.880	1	5
649.050	1	-1
649.219	1	4
649.389	1	2
649.558	1	-3
649.728	1	11
649.897	1	0
650.067	1	-4
650.236	1	-12
650.406	1	6
650.575	1	3
650.745	1	3
650.914	1	-2
651.084	1	6
651.253	1	5
651.423	1	11
651.592	1	-3
651.762	1	4
651.931	1	-5
652.101	1	-2
652.270	1	-4
652.440	1	1
652.609	1	5
652.778	1	9
652.948	1	-3
653.117	1	-8
653.287	1	-1
653.456	1	-2
653.626	1	-1
653.795	1	1
653.965	1	-3
654.134	1	-8
654.304	1	6
654.473	1	2
654.643	1	5
654.812	1	0
654.982	1	-2
655.151	1	7
655.320	1	8
655.490	1	-3
655.659	1	6
655.829	1	6
655.998	1	6
656.168	1	-4
656.337	1	2
656.507	1	-13
656.676	1	3
656.846	1	-2
657.015	1	3
657.184	1	0
657.354	1	17
657.523	1	4
657.693	1	-1
657.862	1	-7
658.032	1	2
658.201	1	-1
658.371	1	-1
658.540	1	-3
658.709	1	-2
658.879	1	5
659.048	1	2
659.218	1	-5
659.387	1	8
659.557	1	0
659.726	1	1
659.895	1	-4
660.065	1	13
660.234	1	0
660.404	1	8
660.573	1	6
660.743	1	4
660.912	1	-9
661.081	1	-11
661.251	1	10
661.420	1	12
661.590	1	7
661.759	1	-11
661.929	1	0
662.098	1	-2
662.267	1	4
662.437	1	0
662.606	1	3
662.776	1	-5
662.945	1	7
663.115	1	2
663.284	1	0
663.453	1	-1
663.623	1	2
663.792	1	-2
663.962	1	-7
664.131	1	-5
664.300	1	-9
664.470	1	-1
664.639	1	4
664.809	1	-6
664.978	1	-6
665.148	1	-7
665.317	1	4
665.486	1	4
665.656	1	-4
665.825	1	8
665.995	1	-6
666.164	1	8
666.333	1	-2
666.503	1	-9
666.672	1	5
666.842	1	-3
667.011	1	-5
667.180	1	8
667.350	1	-1
667.519	1	3
667.689	1	-7
667.858	1	4
668.027	1	7
668.197	1	1
668.366	1	-1
668.536	1	-7
668.705	1	2
668.874	1	2
669.044	1	10
669.213	1	8
669.382	1	12
669.552	1	4
669.721	1	1
669.891	1	-4
670.060	1	0
670.229	1	-9
670.399	1	-6
670.568	1	-6
670.738	1	-3
670.907	1	-2
671.076	1	10
671.246	1	-8
671.415	1	8
671.584	1	-1
671.754	1	-13
671.923	1	5
672.093	1	-2
672.262	1	3
672.431	1	4
672.601	1	7
672.770	1	-1
672.939	1	1
673.109	1	8
673.278	1	-4
673.448	1	9
673.617	1	-1
673.786	1	6
