325.333	1	-7
325.504	1	3
325.675	1	-1
325.846	1	-5
326.017	1	3
326.188	1	7
326.359	1	1
326.531	1	3
326.702	1	8
326.873	1	1
327.044	1	8
327.215	1	-7
327.386	1	3
327.557	1	-2
327.728	1	1
327.899	1	-10
328.070	1	14
328.241	1	2
328.412	1	-2
328.583	1	5
328.754	1	-10
328.926	1	4
329.097	1	0
329.268	1	-4
329.439	1	2
329.610	1	3
329.781	1	6
329.952	1	7
330.123	1	-2
330.294	1	4
330.465	1	2
330.636	1	14
330.807	1	-6
330.978	1	-1
331.149	1	0
331.320	1	4
331.492	1	-8
331.663	1	-1
331.834	1	-7
332.005	1	-2
332.176	1	5
332.347	1	12
332.518	1	9
332.689	1	2
332.860	1	5
333.031	1	1
333.202	1	-6
333.373	1	-3
333.544	1	1
333.715	1	-3
333.886	1	5
334.057	1	-5
334.228	1	-1
334.399	1	7
334.570	1	-1
334.741	1	-8
334.912	1	-3
335.084	1	4
335.255	1	0
335.426	1	5
335.597	1	-1
335.768	1	2
335.939	1	-9
336.110	1	4
336.281	1	9
336.452	1	-1
336.623	1	4
336.794	1	1
336.965	1	-6
337.136	1	10
337.307	1	5
337.478	1	2
337.649	1	-7
337.820	1	-5
337.991	1	3
338.162	1	7
338.333	1	4
338.504	1	14
338.675	1	6
338.846	1	7
339.017	1	10
339.188	1	19
339.359	1	10
339.530	1	-1
339.701	1	2
339.872	1	0
340.043	1	0
340.214	1	-3
340.385	1	9
340.556	1	-3
340.727	1	7
340.898	1	10
341.069	1	-12
341.240	1	-2
341.411	1	14
341.582	1	10
341.753	1	-11
341.924	1	9
342.095	1	11
342.266	1	-8
342.437	1	-14
342.608	1	3
342.779	1	2
342.950	1	-5
343.121	1	2
343.292	1	3
343.463	1	6
343.634	1	-1
343.805	1	10
343.976	1	-9
344.147	1	10
344.318	1	-1
344.489	1	12
344.660	1	10
344.831	1	2
345.002	1	6
345.173	1	8
345.344	1	-4
345.515	1	-1
345.686	1	-9
345.857	1	-3
346.028	1	-9
346.199	1	8
346.370	1	-3
346.541	1	6
346.712	1	-1
346.883	1	9
347.054	1	6
347.225	1	-3
347.396	1	6
347.567	1	6
347.738	1	-4
347.909	1	2
348.080	1	9
348.251	1	-6
348.422	1	-1
348.593	1	1
348.764	1	-6
348.935	1	-5
349.106	1	8
349.277	1	-4
349.448	1	-8
349.619	1	2
349.790	1	1
349.961	1	-3
350.132	1	4
350.303	1	5
350.474	1	-5
350.645	1	7
350.816	1	3
350.987	1	10
351.157	1	0
351.328	1	-10
351.499	1	1
351.670	1	1
351.841	1	1
352.012	1	11
352.183	1	1
352.354	1	8
352.525	1	3
352.696	1	0
352.867	1	9
353.038	1	-7
353.209	1	3
353.380	1	-2
353.551	1	-7
353.722	1	13
353.893	1	6
354.064	1	-6
354.235	1	7
354.406	1	5
354.576	1	7
354.747	1	3
354.918	1	11
355.089	1	3
355.260	1	4
355.431	1	12
355.602	1	0
355.773	1	5
355.944	1	3
356.115	1	-5
356.286	1	2
356.457	1	-3
356.628	1	-1
356.799	1	3
356.970	1	-4
357.141	1	-3
357.311	1	3
357.482	1	-8
357.653	1	-2
357.824	1	0
357.995	1	0
358.166	1	0
358.337	1	8
358.508	1	-13
358.679	1	-4
358.850	1	-2
359.021	1	-1
359.192	1	-4
359.363	1	-9
359.533	1	-2
359.704	1	1
359.875	1	3
360.046	1	-2
360.217	1	-6
360.388	1	-9
360.559	1	-5
360.730	1	-1
360.901	1	-5
361.072	1	-4
361.243	1	5
361.414	1	5
361.584	1	16
361.755	1	5
361.926	1	-3
362.097	1	-12
362.268	1	6
362.439	1	14
362.610	1	-9
362.781	1	9
362.952	1	-5
363.123	1	-3
363.293	1	2
363.464	1	10
363.635	1	15
363.806	1	1
363.977	1	0
364.148	1	-2
364.319	1	-4
364.490	1	9
364.661	1	-2
364.832	1	8
365.002	1	-6
365.173	1	-3
365.344	1	-2
365.515	1	2
365.686	1	-5
365.857	1	5
366.028	1	3
366.199	1	3
366.370	1	-4
366.540	1	-5
366.711	1	1
366.882	1	-4
367.053	1	7
367.224	1	-1
367.395	1	5
367.566	1	3
367.737	1	0
367.908	1	-7
368.078	1	4
368.249	1	-1
368.420	1	11
368.591	1	6
368.762	1	-4
368.933	1	12
369.104	1	2
369.274	1	8
369.445	1	6
369.616	1	-8
369.787	1	2
369.958	1	8
370.129	1	-1
370.300	1	5
370.471	1	6
370.641	1	-13
370.812	1	13
370.983	1	4
371.154	1	9
371.325	1	11
371.496	1	1
371.667	1	0
371.837	1	-2
372.008	1	10
372.179	1	6
372.350	1	2
372.521	1	0
372.692	1	-7
372.863	1	-2
373.033	1	7
373.204	1	6
373.375	1	7
373.546	1	9
373.717	1	0
373.888	1	3
374.059	1	5
374.229	1	5
374.400	1	2
374.571	1	12
374.742	1	-3
374.913	1	7
375.084	1	6
375.254	1	10
375.425	1	3
375.596	1	4
375.767	1	-2
375.938	1	-5
376.109	1	4
376.279	1	4
376.450	1	3
376.621	1	7
376.792	1	7
376.963	1	-1
377.134	1	-8
377.304	1	4
377.475	1	-6
377.646	1	-9
377.817	1	5
377.988	1	-5
378.159	1	1
378.329	1	0
378.500	1	0
378.671	1	-9
378.842	1	-1
379.013	1	1
379.184	1	8
379.354	1	7
379.525	1	-7
379.696	1	11
379.867	1	-8
380.038	1	-3
380.209	1	-2
380.379	1	-3
380.550	1	-5
380.721	1	-5
380.892	1	7
381.063	1	2
381.233	1	6
381.404	1	1
381.575	1	2
381.746	1	2
381.917	1	-7
382.087	1	-7
382.258	1	10
382.429	1	-2
382.600	1	-2
382.771	1	3
382.941	1	4
383.112	1	-2
383.283	1	9
383.454	1	1
383.625	1	-2
383.795	1	-2
383.966	1	7
384.137	1	3
384.308	1	-2
384.479	1	10
384.649	1	-2
384.820	1	15
384.991	1	-1
385.162	1	3
385.333	1	-2
385.503	1	8
385.674	1	7
385.845	1	1
386.016	1	3
386.187	1	-2
386.357	1	2
386.528	1	3
386.699	1	-5
386.870	1	6
387.041	1	-4
387.211	1	0
387.382	1	-2
387.553	1	-2
387.724	1	-9
387.894	1	4
388.065	1	12
388.236	1	3
388.407	1	8
388.578	1	9
388.748	1	6
388.919	1	14
389.090	1	2
389.261	1	7
389.431	1	7
389.602	1	-1
389.773	1	-2
389.944	1	-5
390.114	1	0
390.285	1	3
390.456	1	0
390.627	1	8
390.798	1	5
390.968	1	4
391.139	1	1
391.310	1	7
391.481	1	-1
391.651	1	9
391.822	1	-2
391.993	1	0
392.164	1	-12
392.334	1	-5
392.505	1	-1
392.676	1	-6
392.847	1	5
393.017	1	1
393.188	1	-1
393.359	1	-2
393.530	1	0
393.700	1	1
393.871	1	-1
394.042	1	3
394.213	1	2
394.383	1	7
394.554	1	14
394.725	1	-3
394.896	1	4
395.066	1	4
395.237	1	-7
395.408	1	4
395.579	1	-1
395.749	1	6
395.920	1	-1
396.091	1	20
396.262	1	-4
396.432	1	-1
396.603	1	0
396.774	1	4
396.945	1	-2
397.115	1	0
397.286	1	9
397.457	1	-11
397.627	1	-4
397.798	1	5
397.969	1	5
398.140	1	8
398.310	1	9
398.481	1	8
398.652	1	-7
398.823	1	-7
398.993	1	13
399.164	1	7
399.335	1	-7
399.505	1	14
399.676	1	2
399.847	1	13
400.018	1	7
400.188	1	10
400.359	1	4
400.530	1	0
400.700	1	1
400.871	1	4
401.042	1	3
401.213	1	0
401.383	1	12
401.554	1	9
401.725	1	1
401.895	1	-13
402.066	1	7
402.237	1	1
402.408	1	11
402.578	1	1
402.749	1	1
402.920	1	10
403.090	1	1
403.261	1	11
403.432	1	6
403.603	1	-10
403.773	1	4
403.944	1	3
404.115	1	-1
404.285	1	18
404.456	1	-3
404.627	1	-1
404.797	1	1
404.968	1	-6
405.139	1	5
405.310	1	4
405.480	1	2
405.651	1	5
405.822	1	2
405.992	1	2
406.163	1	10
406.334	1	-1
406.504	1	-3
406.675	1	8
406.846	1	2
407.016	1	0
407.187	1	4
407.358	1	-3
407.528	1	11
407.699	1	-4
407.870	1	1
408.041	1	-1
408.211	1	-5
408.382	1	-3
408.553	1	-14
408.723	1	6
408.894	1	9
409.065	1	7
409.235	1	1
409.406	1	1
409.577	1	-3
409.747	1	7
409.918	1	3
410.089	1	-11
410.259	1	3
410.430	1	6
410.601	1	0
410.771	1	2
410.942	1	-7
411.113	1	6
411.283	1	-5
411.454	1	1
411.625	1	-1
411.795	1	-8
411.966	1	-6
412.137	1	6
412.307	1	1
412.478	1	12
412.649	1	8
412.819	1	-3
412.990	1	4
413.161	1	1
413.331	1	-1
413.502	1	-9
413.672	1	2
413.843	1	5
414.014	1	15
414.184	1	3
414.355	1	0
414.526	1	0
414.696	1	1
414.867	1	-2
415.038	1	-4
415.208	1	-5
415.379	1	6
415.550	1	5
415.720	1	3
415.891	1	10
416.062	1	4
416.232	1	5
416.403	1	1
416.573	1	1
416.744	1	-2
416.915	1	-1
417.085	1	-8
417.256	1	3
417.427	1	12
417.597	1	0
417.768	1	2
417.939	1	3
418.109	1	-9
418.280	1	0
418.450	1	12
418.621	1	6
418.792	1	-4
418.962	1	-3
419.133	1	13
419.304	1	1
419.474	1	6
419.645	1	6
419.815	1	-2
419.986	1	-4
420.157	1	11
420.327	1	0
420.498	1	-5
420.669	1	4
420.839	1	4
421.010	1	1
421.180	1	-8
421.351	1	8
421.522	1	9
421.692	1	7
421.863	1	-10
422.033	1	0
422.204	1	2
422.375	1	-4
422.545	1	1
422.716	1	-4
422.886	1	8
423.057	1	-3
423.228	1	11
423.398	1	6
423.569	1	3
423.740	1	-5
423.910	1	0
424.081	1	1
424.251	1	-2
424.422	1	-6
424.593	1	-7
424.763	1	-2
424.934	1	1
425.104	1	1
425.275	1	3
425.445	1	14
425.616	1	6
425.787	1	-1
425.957	1	-5
426.128	1	8
426.298	1	-3
426.469	1	-6
426.640	1	5
426.810	1	5
426.981	1	5
427.151	1	4
427.322	1	-17
427.493	1	1
427.663	1	-2
427.834	1	5
428.004	1	-1
428.175	1	3
428.345	1	15
428.516	1	-5
428.687	1	0
428.857	1	2
429.028	1	2
429.198	1	5
429.369	1	2
429.540	1	-7
429.710	1	3
429.881	1	2
430.051	1	-7
430.222	1	7
430.392	1	11
430.563	1	-2
430.734	1	5
430.904	1	2
431.075	1	-3
431.245	1	12
431.416	1	-7
431.586	1	-6
431.757	1	5
431.927	1	-12
432.098	1	5
432.269	1	8
432.439	1	10
432.610	1	2
432.780	1	6
432.951	1	1
433.121	1	12
433.292	1	11
433.462	1	6
433.633	1	15
433.804	1	-4
433.974	1	4
434.145	1	7
434.315	1	-1
434.486	1	-4
434.656	1	-1
434.827	1	-5
434.997	1	9
435.168	1	1
435.339	1	-4
435.509	1	8
435.680	1	0
435.850	1	-2
436.021	1	3
436.191	1	0
436.362	1	15
436.532	1	3
436.703	1	11
436.873	1	1
437.044	1	-2
437.214	1	1
437.385	1	7
437.556	1	4
437.726	1	-9
437.897	1	-7
438.067	1	-13
438.238	1	-2
438.408	1	8
438.579	1	1
438.749	1	-6
438.920	1	0
439.090	1	1
439.261	1	-3
439.431	1	8
439.602	1	1
439.772	1	13
439.943	1	3
440.113	1	0
440.284	1	-6
440.455	1	13
440.625	1	-4
440.796	1	-3
440.966	1	-6
441.137	1	1
441.307	1	7
441.478	1	7
441.648	1	-1
441.819	1	-2
441.989	1	-17
442.160	1	-5
442.330	1	12
442.501	1	-3
442.671	1	2
442.842	1	7
443.012	1	1
443.183	1	5
443.353	1	12
443.524	1	5
443.694	1	-5
443.865	1	5
444.035	1	2
444.206	1	3
444.376	1	9
444.547	1	-5
444.717	1	3
444.888	1	3
445.058	1	7
445.229	1	-4
445.399	1	2
445.570	1	-13
445.740	1	5
445.911	1	5
446.081	1	13
446.252	1	-14
446.422	1	8
446.593	1	6
446.763	1	-3
446.934	1	0
447.104	1	3
447.275	1	7
447.445	1	1
447.616	1	5
447.786	1	2
447.957	1	-1
448.127	1	14
448.298	1	4
448.468	1	4
448.639	1	-3
448.809	1	-2
448.979	1	7
449.150	1	0
449.320	1	5
449.491	1	1
449.661	1	7
449.832	1	3
450.002	1	0
450.173	1	-3
450.343	1	2
450.514	1	0
450.684	1	-3
450.855	1	-1
451.025	1	2
451.196	1	8
451.366	1	1
451.537	1	0
451.707	1	9
451.878	1	-12
452.048	1	-4
452.218	1	1
452.389	1	-2
452.559	1	-1
452.730	1	3
452.900	1	2
453.071	1	0
453.241	1	4
453.412	1	-13
453.582	1	-2
453.753	1	7
453.923	1	3
454.093	1	7
454.264	1	-11
454.434	1	2
454.605	1	1
454.775	1	-11
454.946	1	-2
455.116	1	-6
455.287	1	0
455.457	1	1
455.628	1	-1
455.798	1	-2
455.968	1	-1
456.139	1	-7
456.309	1	17
456.480	1	2
456.650	1	13
456.821	1	11
456.991	1	12
457.161	1	3
457.332	1	-6
457.502	1	7
457.673	1	4
457.843	1	0
458.014	1	1
458.184	1	10
458.355	1	5
458.525	1	3
458.695	1	-6
458.866	1	15
459.036	1	2
459.207	1	1
459.377	1	3
459.548	1	-7
459.718	1	8
459.888	1	8
460.059	1	13
460.229	1	-2
460.400	1	1
460.570	1	0
460.740	1	0
460.911	1	12
461.081	1	3
461.252	1	-1
461.422	1	-8
461.593	1	2
461.763	1	8
461.933	1	11
462.104	1	6
462.274	1	-4
462.445	1	-3
462.615	1	7
462.785	1	-1
462.956	1	3
463.126	1	8
463.297	1	7
463.467	1	2
463.638	1	0
463.808	1	7
463.978	1	7
464.149	1	2
464.319	1	7
464.490	1	-3
464.660	1	6
464.830	1	10
465.001	1	-1
465.171	1	-4
465.342	1	-2
465.512	1	2
465.682	1	1
465.853	1	-9
466.023	1	-6
466.194	1	7
466.364	1	-3
466.534	1	-2
466.705	1	-3
466.875	1	7
467.045	1	-8
467.216	1	-1
467.386	1	11
467.557	1	-7
467.727	1	2
467.897	1	-5
468.068	1	-14
468.238	1	9
468.409	1	0
468.579	1	10
468.749	1	-3
468.920	1	-5
469.090	1	7
469.260	1	0
469.431	1	6
469.601	1	-3
469.772	1	-10
469.942	1	6
470.112	1	1
470.283	1	10
470.453	1	3
470.623	1	-3
470.794	1	-2
470.964	1	5
471.135	1	7
471.305	1	-3
471.475	1	1
471.646	1	2
471.816	1	-7
471.986	1	4
472.157	1	6
472.327	1	5
472.497	1	-2
472.668	1	-1
472.838	1	7
473.009	1	15
473.179	1	11
473.349	1	2
473.520	1	0
473.690	1	9
473.860	1	7
474.031	1	2
474.201	1	3
474.371	1	1
474.542	1	14
474.712	1	-2
474.882	1	-7
475.053	1	12
475.223	1	-3
475.394	1	3
475.564	1	2
475.734	1	8
475.905	1	7
476.075	1	-1
476.245	1	6
476.416	1	-5
476.586	1	4
476.756	1	0
476.927	1	-4
477.097	1	-4
477.267	1	8
477.438	1	8
477.608	1	-1
477.778	1	-4
477.949	1	0
478.119	1	9
478.289	1	-2
478.460	1	1
478.630	1	10
478.800	1	11
478.971	1	5
479.141	1	5
479.311	1	1
479.482	1	2
479.652	1	8
479.822	1	-2
479.993	1	-3
480.163	1	2
480.333	1	-7
480.504	1	-3
480.674	1	7
480.844	1	-3
481.015	1	-3
481.185	1	-4
481.355	1	7
481.525	1	7
481.696	1	-3
481.866	1	5
482.036	1	3
482.207	1	7
482.377	1	8
482.547	1	-10
482.718	1	-4
482.888	1	6
483.058	1	-2
483.229	1	6
483.399	1	-2
483.569	1	5
483.740	1	-4
483.910	1	-1
484.080	1	-5
484.250	1	-7
484.421	1	5
484.591	1	12
484.761	1	1
484.932	1	1
485.102	1	12
485.272	1	-2
485.443	1	-2
485.613	1	9
485.783	1	14
485.953	1	0
486.124	1	0
486.294	1	0
486.464	1	3
486.635	1	6
486.805	1	-2
486.975	1	-1
487.146	1	-4
487.316	1	4
487.486	1	4
487.656	1	3
487.827	1	-9
487.997	1	-7
488.167	1	7
488.338	1	0
488.508	1	-5
488.678	1	2
488.848	1	-2
489.019	1	-2
489.189	1	-1
489.359	1	9
489.529	1	7
489.700	1	2
489.870	1	-3
490.040	1	2
490.211	1	5
490.381	1	-3
490.551	1	-10
490.721	1	-3
490.892	1	2
491.062	1	0
491.232	1	-2
491.402	1	10
491.573	1	4
491.743	1	-4
491.913	1	-2
492.084	1	5
492.254	1	1
492.424	1	14
492.594	1	12
492.765	1	2
492.935	1	-2
493.105	1	8
493.275	1	0
493.446	1	0
493.616	1	0
493.786	1	-4
493.956	1	4
494.127	1	11
494.297	1	-1
494.467	1	3
494.637	1	7
494.808	1	3
494.978	1	-3
495.148	1	6
495.318	1	9
495.489	1	-2
495.659	1	-1
495.829	1	8
495.999	1	-6
496.170	1	-6
496.340	1	-3
496.510	1	13
496.680	1	-6
496.851	1	4
497.021	1	-1
497.191	1	5
497.361	1	-3
497.532	1	-4
497.702	1	4
497.872	1	12
498.042	1	2
498.213	1	13
498.383	1	11
498.553	1	5
498.723	1	0
498.894	1	1
499.064	1	0
499.234	1	7
499.404	1	-6
499.574	1	3
499.745	1	3
499.915	1	1
500.085	1	-3
500.255	1	0
500.426	1	-2
500.596	1	-3
500.766	1	-5
500.936	1	5
501.106	1	3
501.277	1	1
501.447	1	4
501.617	1	1
501.787	1	6
501.958	1	-1
502.128	1	0
502.298	1	-3
502.468	1	7
502.638	1	-4
502.809	1	10
502.979	1	8
503.149	1	-7
503.319	1	4
503.489	1	-3
503.660	1	-5
503.830	1	4
504.000	1	-1
504.170	1	5
504.340	1	4
504.511	1	4
504.681	1	-14
504.851	1	5
505.021	1	7
505.192	1	-13
505.362	1	-5
505.532	1	0
505.702	1	-6
505.872	1	2
506.043	1	4
506.213	1	6
506.383	1	10
506.553	1	1
506.723	1	5
506.893	1	0
507.064	1	-6
507.234	1	-6
507.404	1	7
507.574	1	0
507.744	1	-2
507.915	1	4
508.085	1	9
508.255	1	3
508.425	1	-10
508.595	1	-7
508.766	1	-3
508.936	1	3
509.106	1	0
509.276	1	-1
509.446	1	7
509.616	1	0
509.787	1	5
509.957	1	6
510.127	1	1
510.297	1	-6
510.467	1	-8
510.638	1	7
510.808	1	-2
510.978	1	3
511.148	1	23
511.318	1	5
511.488	1	6
511.659	1	-13
511.829	1	0
511.999	1	0
512.169	1	-2
512.339	1	7
512.509	1	2
512.680	1	-3
512.850	1	3
513.020	1	-2
513.190	1	8
513.360	1	4
513.530	1	4
513.700	1	6
513.871	1	8
514.041	1	1
514.211	1	11
514.381	1	10
514.551	1	2
514.721	1	-3
514.892	1	-3
515.062	1	6
515.232	1	2
515.402	1	3
515.572	1	-3
515.742	1	-1
515.912	1	3
516.083	1	-4
516.253	1	7
516.423	1	1
516.593	1	1
516.763	1	1
516.933	1	-6
517.104	1	5
517.274	1	-4
517.444	1	-3
517.614	1	-5
517.784	1	10
517.954	1	7
518.124	1	0
518.294	1	2
518.465	1	-6
518.635	1	-2
518.805	1	10
518.975	1	4
519.145	1	3
519.315	1	-8
519.485	1	-11
519.656	1	12
519.826	1	5
519.996	1	-8
520.166	1	5
520.336	1	3
520.506	1	-10
520.676	1	-3
520.846	1	-4
521.017	1	-3
521.187	1	12
521.357	1	3
521.527	1	5
521.697	1	1
521.867	1	2
522.037	1	-8
522.207	1	-3
522.377	1	4
522.548	1	-5
522.718	1	9
522.888	1	4
523.058	1	5
523.228	1	8
523.398	1	8
523.568	1	2
523.738	1	1
523.909	1	3
524.079	1	6
524.249	1	3
524.419	1	6
524.589	1	-4
524.759	1	6
524.929	1	-5
525.099	1	2
525.269	1	3
525.439	1	8
525.610	1	-2
525.780	1	1
525.950	1	6
526.120	1	-4
526.290	1	-1
526.460	1	-2
526.630	1	8
526.800	1	0
526.970	1	2
527.140	1	-2
527.311	1	7
527.481	1	5
527.651	1	-2
527.821	1	-3
527.991	1	-2
528.161	1	9
528.331	1	10
528.501	1	-5
528.671	1	-3
528.841	1	-1
529.011	1	0
529.181	1	2
529.352	1	-8
529.522	1	0
529.692	1	10
529.862	1	6
530.032	1	9
530.202	1	-1
530.372	1	4
530.542	1	0
530.712	1	-10
530.882	1	-8
531.052	1	10
531.222	1	-9
531.392	1	2
531.563	1	5
531.733	1	4
531.903	1	8
532.073	1	-5
532.243	1	5
532.413	1	0
532.583	1	-5
532.753	1	-3
532.923	1	6
533.093	1	10
533.263	1	-7
533.433	1	15
533.603	1	1
533.773	1	-5
533.943	1	-2
534.113	1	2
534.284	1	-5
534.454	1	-7
534.624	1	-1
534.794	1	-8
534.964	1	1
535.134	1	10
535.304	1	-1
535.474	1	-6
535.644	1	-2
535.814	1	6
535.984	1	9
536.154	1	9
536.324	1	11
536.494	1	10
536.664	1	0
536.834	1	5
537.004	1	6
537.174	1	3
537.344	1	8
537.514	1	0
537.685	1	3
537.855	1	-2
538.025	1	3
538.195	1	-2
538.365	1	1
538.535	1	-1
538.705	1	9
538.875	1	7
539.045	1	-4
539.215	1	-4
539.385	1	-4
539.555	1	-2
539.725	1	1
539.895	1	9
540.065	1	-7
540.235	1	10
540.405	1	4
540.575	1	-3
540.745	1	2
540.915	1	4
541.085	1	-5
541.255	1	-14
541.425	1	7
541.595	1	1
541.765	1	11
541.935	1	-8
542.105	1	-4
542.275	1	5
542.445	1	-2
542.615	1	1
542.785	1	-4
542.955	1	-5
543.125	1	-10
543.295	1	-4
543.465	1	11
543.635	1	2
543.805	1	8
543.975	1	-6
544.145	1	6
544.315	1	4
544.485	1	-7
544.655	1	6
544.825	1	-7
544.995	1	-3
545.165	1	8
545.335	1	-18
545.505	1	12
545.675	1	-14
545.845	1	3
546.015	1	0
546.185	1	2
546.355	1	3
546.525	1	4
546.695	1	0
546.865	1	6
547.035	1	1
547.205	1	6
547.375	1	6
547.545	1	11
547.715	1	15
547.885	1	5
548.055	1	-9
548.225	1	0
548.395	1	1
548.565	1	8
548.735	1	-1
548.905	1	-11
549.075	1	-3
549.245	1	-3
549.415	1	-6
549.585	1	11
549.755	1	8
549.925	1	3
550.095	1	-1
550.265	1	5
550.435	1	-10
550.605	1	1
550.775	1	-2
550.945	1	4
551.115	1	-1
551.285	1	3
551.455	1	3
551.625	1	-12
551.795	1	-9
551.965	1	-3
552.135	1	1
552.305	1	-5
552.475	1	-1
552.645	1	-2
552.815	1	4
552.985	1	2
553.155	1	-2
553.325	1	-3
553.495	1	3
553.665	1	7
553.835	1	-2
554.004	1	-5
554.174	1	4
554.344	1	-1
554.514	1	-3
554.684	1	-6
554.854	1	3
555.024	1	1
555.194	1	4
555.364	1	10
555.534	1	-1
555.704	1	14
555.874	1	-6
556.044	1	14
556.214	1	4
556.384	1	-2
556.554	1	8
556.724	1	1
556.894	1	-6
557.064	1	3
557.234	1	2
557.404	1	3
557.573	1	-5
557.743	1	4
557.913	1	-7
558.083	1	4
558.253	1	1
558.423	1	-3
558.593	1	11
558.763	1	9
558.933	1	4
559.103	1	13
559.273	1	-2
559.443	1	9
559.613	1	0
559.783	1	7
559.953	1	9
560.122	1	-4
560.292	1	10
560.462	1	3
560.632	1	8
560.802	1	-2
560.972	1	8
561.142	1	8
561.312	1	-3
561.482	1	7
561.652	1	1
561.822	1	-7
561.992	1	-12
562.162	1	8
562.331	1	5
562.501	1	-6
562.671	1	5
562.841	1	1
563.011	1	-9
563.181	1	-5
563.351	1	0
563.521	1	4
563.691	1	6
563.861	1	-2
564.031	1	2
564.201	1	3
564.370	1	4
564.540	1	-5
564.710	1	-2
564.880	1	1
565.050	1	2
565.220	1	-1
565.390	1	-1
565.560	1	1
565.730	1	2
565.900	1	-4
566.069	1	0
566.239	1	-1
566.409	1	5
566.579	1	-4
566.749	1	3
566.919	1	6
567.089	1	-1
567.259	1	4
567.429	1	-4
567.599	1	-1
567.768	1	-2
567.938	1	-5
568.108	1	14
568.278	1	-1
568.448	1	1
568.618	1	5
568.788	1	-19
568.958	1	-13
569.128	1	-9
569.297	1	7
569.467	1	4
569.637	1	7
569.807	1	0
569.977	1	9
570.147	1	-4
570.317	1	-2
570.487	1	-2
570.656	1	-4
570.826	1	-2
570.996	1	-1
571.166	1	3
571.336	1	6
571.506	1	-3
571.676	1	-10
571.846	1	-6
572.015	1	13
572.185	1	1
572.355	1	4
572.525	1	0
572.695	1	2
572.865	1	6
573.035	1	-4
573.205	1	-6
573.374	1	11
573.544	1	-1
573.714	1	-6
573.884	1	3
574.054	1	1
574.224	1	-8
574.394	1	1
574.563	1	1
574.733	1	6
574.903	1	0
575.073	1	-5
575.243	1	9
575.413	1	0
575.583	1	0
575.752	1	5
575.922	1	6
576.092	1	-2
576.262	1	2
576.432	1	0
576.602	1	-3
576.772	1	-5
576.941	1	12
577.111	1	3
577.281	1	17
577.451	1	-4
577.621	1	3
577.791	1	2
577.960	1	-14
578.130	1	4
578.300	1	0
578.470	1	5
578.640	1	2
578.810	1	-1
578.979	1	3
579.149	1	-7
579.319	1	7
579.489	1	14
579.659	1	1
579.829	1	11
579.998	1	-4
580.168	1	-1
580.338	1	-4
580.508	1	2
580.678	1	9
580.848	1	0
581.017	1	5
581.187	1	-1
581.357	1	-9
581.527	1	-7
581.697	1	-6
581.867	1	7
582.036	1	-1
582.206	1	5
582.376	1	6
582.546	1	7
582.716	1	6
582.885	1	2
583.055	1	0
583.225	1	-9
583.395	1	-2
583.565	1	-7
583.735	1	-2
583.904	1	3
584.074	1	-15
584.244	1	11
584.414	1	-3
584.584	1	3
584.753	1	4
584.923	1	6
585.093	1	-10
585.263	1	3
585.433	1	16
585.602	1	-4
585.772	1	2
585.942	1	2
586.112	1	4
586.282	1	6
586.451	1	2
586.621	1	0
586.791	1	0
586.961	1	10
587.131	1	-1
587.300	1	6
587.470	1	-10
587.640	1	-6
587.810	1	-3
587.980	1	0
588.149	1	5
588.319	1	-2
588.489	1	2
588.659	1	4
588.829	1	-8
588.998	1	-6
589.168	1	5
589.338	1	3
589.508	1	-4
589.677	1	0
589.847	1	5
590.017	1	2
590.187	1	-3
590.357	1	-3
590.526	1	17
590.696	1	1
590.866	1	-5
591.036	1	-4
591.205	1	8
591.375	1	-1
591.545	1	-6
591.715	1	1
591.885	1	3
592.054	1	-4
592.224	1	3
592.394	1	6
592.564	1	-4
592.733	1	2
592.903	1	1
593.073	1	-5
593.243	1	-2
593.412	1	-11
593.582	1	9
593.752	1	3
593.922	1	9
594.091	1	-9
594.261	1	2
594.431	1	2
594.601	1	-5
594.771	1	20
594.940	1	4
595.110	1	-1
595.280	1	7
595.450	1	2
595.619	1	4
595.789	1	10
595.959	1	11
596.129	1	-14
596.298	1	6
596.468	1	-2
596.638	1	-1
596.808	1	-3
596.977	1	-7
597.147	1	7
597.317	1	-2
597.487	1	3
597.656	1	4
597.826	1	3
597.996	1	-3
598.166	1	-6
598.335	1	-9
598.505	1	-2
598.675	1	-9
598.844	1	-7
599.014	1	-2
599.184	1	-7
599.354	1	1
599.523	1	0
599.693	1	2
599.863	1	5
600.033	1	3
600.202	1	5
600.372	1	-3
600.542	1	2
600.712	1	10
600.881	1	-1
601.051	1	5
601.221	1	12
601.390	1	3
601.560	1	5
601.730	1	1
601.900	1	10
602.069	1	-10
602.239	1	6
602.409	1	-7
602.578	1	12
602.748	1	-1
602.918	1	1
603.088	1	10
603.257	1	3
603.427	1	2
603.597	1	-7
603.767	1	-2
603.936	1	3
604.106	1	3
604.276	1	2
604.445	1	-14
604.615	1	-5
604.785	1	2
604.954	1	6
605.124	1	-1
605.294	1	7
605.464	1	-6
605.633	1	7
605.803	1	6
605.973	1	1
606.142	1	-2
606.312	1	2
606.482	1	2
606.652	1	7
606.821	1	1
606.991	1	-2
607.161	1	11
607.330	1	-3
607.500	1	-1
607.670	1	0
607.839	1	2
608.009	1	3
608.179	1	0
608.348	1	-1
608.518	1	10
608.688	1	0
608.858	1	1
609.027	1	-3
609.197	1	8
609.367	1	1
609.536	1	10
609.706	1	-4
609.876	1	-1
610.045	1	9
610.215	1	-9
610.385	1	-5
610.554	1	-4
610.724	1	2
610.894	1	3
611.063	1	-2
611.233	1	-9
611.403	1	-7
611.572	1	12
611.742	1	5
611.912	1	2
612.081	1	5
612.251	1	7
612.421	1	-4
612.590	1	-6
612.760	1	11
612.930	1	0
613.099	1	3
613.269	1	-5
613.439	1	-4
613.608	1	5
613.778	1	-9
613.948	1	8
614.117	1	4
614.287	1	1
614.457	1	3
614.626	1	11
614.796	1	10
614.966	1	9
615.135	1	3
615.305	1	11
615.475	1	-11
615.644	1	-3
615.814	1	-6
615.984	1	9
616.153	1	2
616.323	1	1
616.493	1	14
616.662	1	2
616.832	1	0
617.002	1	-11
617.171	1	6
617.341	1	1
617.511	1	-6
617.680	1	3
617.850	1	-1
618.019	1	4
618.189	1	3
618.359	1	7
618.528	1	-2
618.698	1	1
618.868	1	-10
619.037	1	7
619.207	1	6
619.377	1	-4
619.546	1	-7
619.716	1	-9
619.885	1	-3
620.055	1	12
620.225	1	5
620.394	1	1
620.564	1	-14
620.734	1	5
620.903	1	5
621.073	1	3
621.242	1	-8
621.412	1	3
621.582	1	-4
621.751	1	8
621.921	1	4
622.091	1	0
622.260	1	-5
622.430	1	6
622.599	1	10
622.769	1	-13
622.939	1	-7
623.108	1	8
623.278	1	11
623.448	1	2
623.617	1	-2
623.787	1	18
623.956	1	14
624.126	1	0
624.296	1	-3
624.465	1	7
624.635	1	-1
624.804	1	6
624.974	1	3
625.144	1	12
625.313	1	3
625.483	1	2
625.652	1	11
625.822	1	3
625.992	1	8
626.161	1	-7
626.331	1	2
626.501	1	1
626.670	1	3
626.840	1	3
627.009	1	-2
627.179	1	-10
627.348	1	13
627.518	1	7
627.688	1	9
627.857	1	4
628.027	1	-5
628.196	1	-7
628.366	1	0
628.536	1	10
628.705	1	2
628.875	1	6
629.044	1	3
629.214	1	-6
629.384	1	-2
629.553	1	0
629.723	1	-5
629.892	1	-1
630.062	1	-16
630.232	1	3
630.401	1	-4
630.571	1	7
630.740	1	-8
630.910	1	9
631.079	1	-4
631.249	1	9
631.419	1	0
631.588	1	-2
631.758	1	5
631.927	1	-1
632.097	1	4
632.266	1	-5
632.436	1	4
632.606	1	-4
632.775	1	11
632.945	1	-9
633.114	1	8
633.284	1	-4
633.453	1	17
633.623	1	6
633.793	1	-8
633.962	1	-3
634.132	1	4
634.301	1	-4
634.471	1	1
634.640	1	0
634.810	1	5
634.979	1	-1
635.149	1	0
635.319	1	-1
635.488	1	-2
635.658	1	6
635.827	1	-7
635.997	1	1
636.166	1	10
636.336	1	-2
636.505	1	12
636.675	1	-8
636.845	1	-4
637.014	1	-5
637.184	1	2
637.353	1	-6
637.523	1	2
637.692	1	0
637.862	1	-1
638.031	1	-3
638.201	1	0
638.370	1	7
638.540	1	3
638.710	1	9
638.879	1	6
639.049	1	-1
639.218	1	9
639.388	1	4
639.557	1	0
639.727	1	13
639.896	1	3
640.066	1	9
640.235	1	-2
640.405	1	-3
640.574	1	-3
640.744	1	-8
640.914	1	-2
641.083	1	8
641.253	1	-2
641.422	1	4
641.592	1	-11
641.761	1	1
641.931	1	2
642.100	1	7
642.270	1	-3
642.439	1	-7
642.609	1	11
642.778	1	1
642.948	1	3
643.117	1	10
643.287	1	1
643.456	1	-4
643.626	1	4
643.795	1	-1
643.965	1	5
644.134	1	-1
644.304	1	8
644.473	1	0
644.643	1	-8
644.812	1	-5
644.982	1	8
645.151	1	9
645.321	1	0
645.490	1	8
645.660	1	3
645.829	1	0
645.999	1	1
646.168	1	3
646.338	1	-1
646.507	1	-1
646.677	1	2
646.846	1	-10
647.016	1	1
647.185	1	3
647.355	1	-1
647.524	1	-1
647.694	1	4
647.863	1	7
648.033	1	4
648.202	1	-9
648.372	1	-5
648.541	1	-4
648.711	1	7
648.880	1	0
649.050	1	9
649.219	1	4
649.389	1	-1
649.558	1	5
649.728	1	5
649.897	1	2
650.067	1	0
650.236	1	-12
650.406	1	9
650.575	1	9
650.745	1	4
650.914	1	-3
651.084	1	0
651.253	1	0
651.423	1	-1
651.592	1	-1
651.762	1	-4
651.931	1	2
652.101	1	-1
652.270	1	-9
652.440	1	12
652.609	1	3
652.778	1	1
652.948	1	-1
653.117	1	4
653.287	1	-9
653.456	1	-10
653.626	1	2
653.795	1	0
653.965	1	-2
654.134	1	-1
654.304	1	8
654.473	1	-3
654.643	1	6
654.812	1	0
654.982	1	2
655.151	1	12
655.320	1	2
655.490	1	-5
655.659	1	5
655.829	1	-8
655.998	1	-8
656.168	1	7
656.337	1	-8
656.507	1	-17
656.676	1	-7
656.846	1	-1
657.015	1	-3
657.184	1	-1
657.354	1	13
657.523	1	3
657.693	1	0
657.862	1	-11
658.032	1	9
658.201	1	5
658.371	1	-3
658.540	1	-7
658.709	1	-1
658.879	1	11
659.048	1	-5
659.218	1	-3
659.387	1	9
659.557	1	0
659.726	1	-6
659.895	1	-3
660.065	1	11
660.234	1	-4
660.404	1	-4
660.573	1	2
660.743	1	6
660.912	1	0
661.081	1	-9
661.251	1	5
661.420	1	9
661.590	1	2
661.759	1	0
661.929	1	9
662.098	1	1
662.267	1	5
662.437	1	7
662.606	1	-1
662.776	1	-7
662.945	1	1
663.115	1	6
663.284	1	3
663.453	1	0
663.623	1	6
663.792	1	4
663.962	1	-7
664.131	1	3
664.300	1	-2
664.470	1	6
664.639	1	-2
664.809	1	-1
664.978	1	9
665.148	1	-1
665.317	1	-4
665.486	1	5
665.656	1	3
665.825	1	3
665.995	1	0
666.164	1	10
666.333	1	-2
666.503	1	3
666.672	1	13
666.842	1	-8
667.011	1	0
667.180	1	11
667.350	1	-5
667.519	1	5
667.689	1	-6
667.858	1	6
668.027	1	4
668.197	1	8
668.366	1	-8
668.536	1	-3
668.705	1	7
668.874	1	-3
669.044	1	0
669.213	1	10
669.382	1	5
669.552	1	7
669.721	1	2
669.891	1	7
670.060	1	-1
670.229	1	5
670.399	1	-2
670.568	1	0
670.738	1	-3
670.907	1	8
671.076	1	-1
671.246	1	-10
671.415	1	12
671.584	1	12
671.754	1	-3
671.923	1	6
672.093	1	1
672.262	1	0
672.431	1	5
672.601	1	5
672.770	1	-1
672.939	1	-6
673.109	1	10
673.278	1	-1
673.448	1	6
673.617	1	-2
673.786	1	3
