325.333	1	7
325.504	1	14
325.675	1	10
325.846	1	8
326.017	1	3
326.188	1	23
326.359	1	14
326.531	1	19
326.702	1	16
326.873	1	1
327.044	1	18
327.215	1	3
327.386	1	15
327.557	1	10
327.728	1	16
327.899	1	12
328.070	1	18
328.241	1	13
328.412	1	7
328.583	1	16
328.754	1	7
328.926	1	13
329.097	1	11
329.268	1	0
329.439	1	8
329.610	1	16
329.781	1	18
329.952	1	10
330.123	1	8
330.294	1	9
330.465	1	23
330.636	1	31
330.807	1	11
330.978	1	9
331.149	1	14
331.320	1	26
331.492	1	4
331.663	1	12
331.834	1	9
332.005	1	11
332.176	1	27
332.347	1	25
332.518	1	22
332.689	1	14
332.860	1	14
333.031	1	19
333.202	1	20
333.373	1	15
333.544	1	9
333.715	1	17
333.886	1	21
334.057	1	17
334.228	1	8
334.399	1	21
334.570	1	5
334.741	1	13
334.912	1	16
335.084	1	15
335.255	1	18
335.426	1	13
335.597	1	19
335.768	1	16
335.939	1	4
336.110	1	20
336.281	1	15
336.452	1	21
336.623	1	12
336.794	1	12
336.965	1	17
337.136	1	14
337.307	1	26
337.478	1	19
337.649	1	2
337.820	1	14
337.991	1	28
338.162	1	24
338.333	1	16
338.504	1	22
338.675	1	23
338.846	1	11
339.017	1	28
339.188	1	28
339.359	1	22
339.530	1	20
339.701	1	17
339.872	1	23
340.043	1	5
340.214	1	18
340.385	1	19
340.556	1	12
340.727	1	17
340.898	1	21
341.069	1	9
341.240	1	6
341.411	1	35
341.582	1	23
341.753	1	15
341.924	1	27
342.095	1	25
342.266	1	18
342.437	1	11
342.608	1	21
342.779	1	31
342.950	1	17
343.121	1	15
343.292	1	23
343.463	1	19
343.634	1	21
343.805	1	28
343.976	1	20
344.147	1	18
344.318	1	23
344.489	1	18
344.660	1	30
344.831	1	23
345.002	1	36
345.173	1	23
345.344	1	22
345.515	1	30
345.686	1	9
345.857	1	20
346.028	1	20
346.199	1	29
346.370	1	20
346.541	1	23
346.712	1	22
346.883	1	29
347.054	1	21
347.225	1	20
347.396	1	17
347.567	1	20
347.738	1	20
347.909	1	29
348.080	1	25
348.251	1	25
348.422	1	24
348.593	1	29
348.764	1	22
348.935	1	20
349.106	1	25
349.277	1	17
349.448	1	28
349.619	1	23
349.790	1	24
349.961	1	28
350.132	1	37
350.303	1	18
350.474	1	21
350.645	1	44
350.816	1	33
350.987	1	35
351.157	1	29
351.328	1	28
351.499	1	27
351.670	1	12
351.841	1	32
352.012	1	22
352.183	1	23
352.354	1	34
352.525	1	31
352.696	1	34
352.867	1	30
353.038	1	7
353.209	1	39
353.380	1	20
353.551	1	17
353.722	1	39
353.893	1	27
354.064	1	24
354.235	1	32
354.406	1	29
354.576	1	31
354.747	1	33
354.918	1	37
355.089	1	39
355.260	1	37
355.431	1	36
355.602	1	26
355.773	1	33
355.944	1	24
356.115	1	26
356.286	1	35
356.457	1	28
356.628	1	31
356.799	1	24
356.970	1	30
357.141	1	34
357.311	1	23
357.482	1	29
357.653	1	34
357.824	1	23
357.995	1	39
358.166	1	34
358.337	1	22
358.508	1	25
358.679	1	29
358.850	1	19
359.021	1	45
359.192	1	38
359.363	1	16
359.533	1	31
359.704	1	36
359.875	1	30
360.046	1	28
360.217	1	36
360.388	1	22
360.559	1	34
360.730	1	23
360.901	1	37
361.072	1	39
361.243	1	34
361.414	1	39
361.584	1	39
361.755	1	37
361.926	1	32
362.097	1	32
362.268	1	46
362.439	1	31
362.610	1	41
362.781	1	43
362.952	1	29
363.123	1	36
363.293	1	34
363.464	1	39
363.635	1	38
363.806	1	50
363.977	1	34
364.148	1	47
364.319	1	33
364.490	1	37
364.661	1	30
364.832	1	37
365.002	1	34
365.173	1	32
365.344	1	44
365.515	1	36
365.686	1	29
365.857	1	37
366.028	1	36
366.199	1	44
366.370	1	36
366.540	1	41
366.711	1	51
366.882	1	31
367.053	1	35
367.224	1	37
367.395	1	49
367.566	1	48
367.737	1	51
367.908	1	33
368.078	1	36
368.249	1	43
368.420	1	40
368.591	1	39
368.762	1	18
368.933	1	44
369.104	1	34
369.274	1	44
369.445	1	39
369.616	1	34
369.787	1	34
369.958	1	46
370.129	1	46
370.300	1	42
370.471	1	45
370.641	1	33
370.812	1	48
370.983	1	37
371.154	1	43
371.325	1	39
371.496	1	39
371.667	1	44
371.837	1	33
372.008	1	46
372.179	1	46
372.350	1	51
372.521	1	47
372.692	1	34
372.863	1	31
373.033	1	46
373.204	1	45
373.375	1	43
373.546	1	48
373.717	1	39
373.888	1	55
374.059	1	51
374.229	1	51
374.400	1	39
374.571	1	43
374.742	1	32
374.913	1	44
375.084	1	57
375.254	1	44
375.425	1	38
375.596	1	48
375.767	1	36
375.938	1	41
376.109	1	31
376.279	1	32
376.450	1	32
376.621	1	46
376.792	1	36
376.963	1	34
377.134	1	43
377.304	1	43
377.475	1	49
377.646	1	34
377.817	1	39
377.988	1	44
378.159	1	35
378.329	1	54
378.500	1	41
378.671	1	40
378.842	1	50
379.013	1	49
379.184	1	49
379.354	1	47
379.525	1	34
379.696	1	53
379.867	1	36
380.038	1	47
380.209	1	45
380.379	1	54
380.550	1	43
380.721	1	53
380.892	1	46
381.063	1	46
381.233	1	47
381.404	1	47
381.575	1	43
381.746	1	53
381.917	1	45
382.087	1	42
382.258	1	49
382.429	1	50
382.600	1	45
382.771	1	50
382.941	1	46
383.112	1	38
383.283	1	52
383.454	1	46
383.625	1	33
383.795	1	49
383.966	1	47
384.137	1	43
384.308	1	41
384.479	1	58
384.649	1	46
384.820	1	45
384.991	1	36
385.162	1	47
385.333	1	48
385.503	1	62
385.674	1	44
385.845	1	41
386.016	1	52
386.187	1	51
386.357	1	41
386.528	1	48
386.699	1	32
386.870	1	53
387.041	1	50
387.211	1	49
387.382	1	39
387.553	1	58
387.724	1	47
387.894	1	68
388.065	1	61
388.236	1	55
388.407	1	62
388.578	1	52
388.748	1	50
388.919	1	55
389.090	1	55
389.261	1	59
389.431	1	57
389.602	1	42
389.773	1	38
389.944	1	50
390.114	1	60
390.285	1	60
390.456	1	47
390.627	1	61
390.798	1	56
390.968	1	52
391.139	1	53
391.310	1	56
391.481	1	50
391.651	1	59
391.822	1	56
391.993	1	57
392.164	1	36
392.334	1	42
392.505	1	40
392.676	1	62
392.847	1	68
393.017	1	48
393.188	1	45
393.359	1	60
393.530	1	52
393.700	1	55
393.871	1	47
394.042	1	58
394.213	1	61
394.383	1	62
394.554	1	51
394.725	1	52
394.896	1	48
395.066	1	50
395.237	1	52
395.408	1	54
395.579	1	47
395.749	1	52
395.920	1	46
396.091	1	50
396.262	1	51
396.432	1	45
396.603	1	54
396.774	1	63
396.945	1	52
397.115	1	37
397.286	1	65
397.457	1	54
397.627	1	59
397.798	1	50
397.969	1	54
398.140	1	46
398.310	1	63
398.481	1	60
398.652	1	53
398.823	1	47
398.993	1	70
399.164	1	58
399.335	1	52
399.505	1	61
399.676	1	50
399.847	1	65
400.018	1	52
400.188	1	57
400.359	1	63
400.530	1	59
400.700	1	51
400.871	1	62
401.042	1	70
401.213	1	47
401.383	1	56
401.554	1	62
401.725	1	64
401.895	1	50
402.066	1	58
402.237	1	71
402.408	1	76
402.578	1	61
402.749	1	62
402.920	1	56
403.090	1	55
403.261	1	69
403.432	1	61
403.603	1	50
403.773	1	63
403.944	1	62
404.115	1	51
404.285	1	67
404.456	1	61
404.627	1	55
404.797	1	57
404.968	1	52
405.139	1	57
405.310	1	49
405.480	1	55
405.651	1	64
405.822	1	78
405.992	1	59
406.163	1	55
406.334	1	68
406.504	1	52
406.675	1	60
406.846	1	62
407.016	1	46
407.187	1	70
407.358	1	55
407.528	1	55
407.699	1	53
407.870	1	63
408.041	1	44
408.211	1	62
408.382	1	48
408.553	1	54
408.723	1	67
408.894	1	61
409.065	1	55
409.235	1	65
409.406	1	61
409.577	1	55
409.747	1	74
409.918	1	63
410.089	1	53
410.259	1	53
410.430	1	67
410.601	1	58
410.771	1	61
410.942	1	54
411.113	1	63
411.283	1	72
411.454	1	63
411.625	1	63
411.795	1	58
411.966	1	70
412.137	1	61
412.307	1	65
412.478	1	64
412.649	1	65
412.819	1	58
412.990	1	56
413.161	1	63
413.331	1	61
413.502	1	54
413.672	1	62
413.843	1	58
414.014	1	79
414.184	1	58
414.355	1	59
414.526	1	60
414.696	1	60
414.867	1	60
415.038	1	56
415.208	1	53
415.379	1	58
415.550	1	69
415.720	1	54
415.891	1	66
416.062	1	60
416.232	1	66
416.403	1	55
416.573	1	59
416.744	1	63
416.915	1	59
417.085	1	56
417.256	1	61
417.427	1	62
417.597	1	56
417.768	1	62
417.939	1	65
418.109	1	44
418.280	1	66
418.450	1	71
418.621	1	59
418.792	1	55
418.962	1	62
419.133	1	57
419.304	1	47
419.474	1	54
419.645	1	58
419.815	1	55
419.986	1	56
420.157	1	64
420.327	1	57
420.498	1	59
420.669	1	59
420.839	1	55
421.010	1	66
421.180	1	48
421.351	1	65
421.522	1	62
421.692	1	62
421.863	1	64
422.033	1	68
422.204	1	70
422.375	1	61
422.545	1	54
422.716	1	53
422.886	1	74
423.057	1	53
423.228	1	54
423.398	1	67
423.569	1	60
423.740	1	55
423.910	1	64
424.081	1	64
424.251	1	60
424.422	1	43
424.593	1	53
424.763	1	64
424.934	1	71
425.104	1	49
425.275	1	64
425.445	1	64
425.616	1	71
425.787	1	79
425.957	1	59
426.128	1	63
426.298	1	54
426.469	1	56
426.640	1	63
426.810	1	64
426.981	1	59
427.151	1	49
427.322	1	44
427.493	1	53
427.663	1	55
427.834	1	62
428.004	1	57
428.175	1	57
428.345	1	65
428.516	1	58
428.687	1	55
428.857	1	48
429.028	1	59
429.198	1	58
429.369	1	63
429.540	1	47
429.710	1	60
429.881	1	62
430.051	1	58
430.222	1	57
430.392	1	57
430.563	1	51
430.734	1	64
430.904	1	60
431.075	1	50
431.245	1	56
431.416	1	43
431.586	1	51
431.757	1	56
431.927	1	38
432.098	1	49
432.269	1	65
432.439	1	53
432.610	1	61
432.780	1	60
432.951	1	60
433.121	1	67
433.292	1	68
433.462	1	60
433.633	1	67
433.804	1	47
433.974	1	54
434.145	1	59
434.315	1	61
434.486	1	46
434.656	1	66
434.827	1	54
434.997	1	62
435.168	1	55
435.339	1	60
435.509	1	54
435.680	1	47
435.850	1	61
436.021	1	67
436.191	1	68
436.362	1	65
436.532	1	60
436.703	1	68
436.873	1	58
437.044	1	63
437.214	1	65
437.385	1	61
437.556	1	61
437.726	1	58
437.897	1	55
438.067	1	66
438.238	1	55
438.408	1	49
438.579	1	62
438.749	1	48
438.920	1	61
439.090	1	49
439.261	1	58
439.431	1	49
439.602	1	53
439.772	1	63
439.943	1	56
440.113	1	51
440.284	1	56
440.455	1	57
440.625	1	57
440.796	1	44
440.966	1	60
441.137	1	48
441.307	1	63
441.478	1	62
441.648	1	56
441.819	1	55
441.989	1	34
442.160	1	51
442.330	1	62
442.501	1	54
442.671	1	48
442.842	1	66
443.012	1	53
443.183	1	58
443.353	1	55
443.524	1	53
443.694	1	45
443.865	1	56
444.035	1	53
444.206	1	43
444.376	1	65
444.547	1	43
444.717	1	60
444.888	1	62
445.058	1	58
445.229	1	56
445.399	1	47
445.570	1	42
445.740	1	60
445.911	1	55
446.081	1	64
446.252	1	41
446.422	1	52
446.593	1	48
446.763	1	54
446.934	1	70
447.104	1	44
447.275	1	53
447.445	1	52
447.616	1	61
447.786	1	53
447.957	1	55
448.127	1	61
448.298	1	56
448.468	1	54
448.639	1	49
448.809	1	44
448.979	1	56
449.150	1	52
449.320	1	68
449.491	1	56
449.661	1	58
449.832	1	68
450.002	1	63
450.173	1	56
450.343	1	54
450.514	1	49
450.684	1	58
450.855	1	46
451.025	1	59
451.196	1	54
451.366	1	51
451.537	1	49
451.707	1	59
451.878	1	53
452.048	1	49
452.218	1	45
452.389	1	58
452.559	1	55
452.730	1	49
452.900	1	52
453.071	1	49
453.241	1	53
453.412	1	39
453.582	1	46
453.753	1	53
453.923	1	63
454.093	1	63
454.264	1	39
454.434	1	48
454.605	1	47
454.775	1	47
454.946	1	53
455.116	1	40
455.287	1	44
455.457	1	45
455.628	1	47
455.798	1	45
455.968	1	53
456.139	1	44
456.309	1	64
456.480	1	45
456.650	1	68
456.821	1	55
456.991	1	46
457.161	1	51
457.332	1	50
457.502	1	55
457.673	1	52
457.843	1	48
458.014	1	56
458.184	1	42
458.355	1	50
458.525	1	54
458.695	1	47
458.866	1	66
459.036	1	51
459.207	1	52
459.377	1	54
459.548	1	46
459.718	1	50
459.888	1	49
460.059	1	59
460.229	1	53
460.400	1	36
460.570	1	50
460.740	1	36
460.911	1	52
461.081	1	46
461.252	1	34
461.422	1	52
461.593	1	53
461.763	1	51
461.933	1	52
462.104	1	53
462.274	1	44
462.445	1	49
462.615	1	40
462.785	1	49
462.956	1	50
463.126	1	54
463.297	1	52
463.467	1	44
463.638	1	54
463.808	1	52
463.978	1	49
464.149	1	42
464.319	1	59
464.490	1	46
464.660	1	49
464.830	1	50
465.001	1	51
465.171	1	40
465.342	1	44
465.512	1	49
465.682	1	46
465.853	1	36
466.023	1	48
466.194	1	44
466.364	1	47
466.534	1	31
466.705	1	36
466.875	1	44
467.045	1	45
467.216	1	53
467.386	1	46
467.557	1	53
467.727	1	52
467.897	1	40
468.068	1	33
468.238	1	58
468.409	1	39
468.579	1	50
468.749	1	40
468.920	1	40
469.090	1	42
469.260	1	53
469.431	1	58
469.601	1	46
469.772	1	35
469.942	1	44
470.112	1	54
470.283	1	49
470.453	1	47
470.623	1	40
470.794	1	40
470.964	1	43
471.135	1	42
471.305	1	50
471.475	1	42
471.646	1	38
471.816	1	50
471.986	1	49
472.157	1	46
472.327	1	35
472.497	1	47
472.668	1	28
472.838	1	47
473.009	1	42
473.179	1	42
473.349	1	41
473.520	1	35
473.690	1	50
473.860	1	46
474.031	1	49
474.201	1	45
474.371	1	45
474.542	1	35
474.712	1	42
474.882	1	32
475.053	1	38
475.223	1	41
475.394	1	40
475.564	1	40
475.734	1	40
475.905	1	39
476.075	1	44
476.245	1	46
476.416	1	31
476.586	1	38
476.756	1	30
476.927	1	35
477.097	1	45
477.267	1	51
477.438	1	45
477.608	1	39
477.778	1	47
477.949	1	28
478.119	1	48
478.289	1	29
478.460	1	26
478.630	1	52
478.800	1	45
478.971	1	40
479.141	1	45
479.311	1	47
479.482	1	43
479.652	1	43
479.822	1	40
479.993	1	39
480.163	1	38
480.333	1	28
480.504	1	34
480.674	1	44
480.844	1	32
481.015	1	47
481.185	1	34
481.355	1	40
481.525	1	40
481.696	1	32
481.866	1	41
482.036	1	40
482.207	1	44
482.377	1	49
482.547	1	34
482.718	1	35
482.888	1	45
483.058	1	32
483.229	1	48
483.399	1	41
483.569	1	39
483.740	1	43
483.910	1	31
484.080	1	30
484.250	1	32
484.421	1	32
484.591	1	32
484.761	1	46
484.932	1	35
485.102	1	47
485.272	1	28
485.443	1	34
485.613	1	47
485.783	1	38
485.953	1	40
486.124	1	42
486.294	1	35
486.464	1	31
486.635	1	53
486.805	1	31
486.975	1	29
487.146	1	25
487.316	1	40
487.486	1	30
487.656	1	28
487.827	1	24
487.997	1	28
488.167	1	45
488.338	1	22
488.508	1	33
488.678	1	24
488.848	1	28
489.019	1	32
489.189	1	29
489.359	1	31
489.529	1	33
489.700	1	26
489.870	1	29
490.040	1	30
490.211	1	29
490.381	1	40
490.551	1	34
490.721	1	30
490.892	1	40
491.062	1	33
491.232	1	25
491.402	1	39
491.573	1	30
491.743	1	16
491.913	1	22
492.084	1	34
492.254	1	33
492.424	1	32
492.594	1	45
492.765	1	24
492.935	1	20
493.105	1	34
493.275	1	20
493.446	1	24
493.616	1	25
493.786	1	35
493.956	1	9
494.127	1	39
494.297	1	30
494.467	1	31
494.637	1	34
494.808	1	33
494.978	1	26
495.148	1	30
495.318	1	24
495.489	1	20
495.659	1	35
495.829	1	31
495.999	1	24
496.170	1	21
496.340	1	34
496.510	1	34
496.680	1	28
496.851	1	24
497.021	1	28
497.191	1	29
497.361	1	26
497.532	1	36
497.702	1	31
497.872	1	45
498.042	1	41
498.213	1	42
498.383	1	37
498.553	1	21
498.723	1	39
498.894	1	30
499.064	1	23
499.234	1	21
499.404	1	22
499.574	1	29
499.745	1	29
499.915	1	30
500.085	1	26
500.255	1	14
500.426	1	29
500.596	1	27
500.766	1	21
500.936	1	29
501.106	1	31
501.277	1	36
501.447	1	25
501.617	1	29
501.787	1	29
501.958	1	26
502.128	1	11
502.298	1	20
502.468	1	32
502.638	1	25
502.809	1	24
502.979	1	27
503.149	1	31
503.319	1	32
503.489	1	28
503.660	1	26
503.830	1	22
504.000	1	35
504.170	1	47
504.340	1	25
504.511	1	34
504.681	1	21
504.851	1	29
505.021	1	33
505.192	1	10
505.362	1	20
505.532	1	25
505.702	1	23
505.872	1	31
506.043	1	34
506.213	1	22
506.383	1	24
506.553	1	26
506.723	1	26
506.893	1	12
507.064	1	22
507.234	1	26
507.404	1	29
507.574	1	18
507.744	1	24
507.915	1	25
508.085	1	22
508.255	1	29
508.425	1	16
508.595	1	19
508.766	1	14
508.936	1	24
509.106	1	23
509.276	1	29
509.446	1	24
509.616	1	19
509.787	1	25
509.957	1	29
510.127	1	26
510.297	1	15
510.467	1	16
510.638	1	28
510.808	1	17
510.978	1	22
511.148	1	35
511.318	1	26
511.488	1	18
511.659	1	22
511.829	1	22
511.999	1	16
512.169	1	13
512.339	1	23
512.509	1	17
512.680	1	26
512.850	1	23
513.020	1	21
513.190	1	13
513.360	1	26
513.530	1	17
513.700	1	27
513.871	1	32
514.041	1	20
514.211	1	16
514.381	1	18
514.551	1	26
514.721	1	21
514.892	1	19
515.062	1	17
515.232	1	24
515.402	1	30
515.572	1	16
515.742	1	26
515.912	1	19
516.083	1	18
516.253	1	19
516.423	1	17
516.593	1	26
516.763	1	21
516.933	1	15
517.104	1	8
517.274	1	16
517.444	1	11
517.614	1	13
517.784	1	17
517.954	1	28
518.124	1	20
518.294	1	30
518.465	1	21
518.635	1	11
518.805	1	22
518.975	1	16
519.145	1	28
519.315	1	13
519.485	1	12
519.656	1	24
519.826	1	26
519.996	1	15
520.166	1	28
520.336	1	18
520.506	1	6
520.676	1	20
520.846	1	13
521.017	1	14
521.187	1	33
521.357	1	20
521.527	1	16
521.697	1	18
521.867	1	13
522.037	1	8
522.207	1	12
522.377	1	22
522.548	1	25
522.718	1	15
522.888	1	18
523.058	1	12
523.228	1	28
523.398	1	13
523.568	1	8
523.738	1	16
523.909	1	22
524.079	1	20
524.249	1	20
524.419	1	17
524.589	1	1
524.759	1	13
524.929	1	13
525.099	1	7
525.269	1	26
525.439	1	14
525.610	1	19
525.780	1	23
525.950	1	20
526.120	1	7
526.290	1	21
526.460	1	14
526.630	1	19
526.800	1	22
526.970	1	20
527.140	1	24
527.311	1	10
527.481	1	21
527.651	1	13
527.821	1	4
527.991	1	14
528.161	1	25
528.331	1	21
528.501	1	18
528.671	1	11
528.841	1	18
529.011	1	16
529.181	1	16
529.352	1	13
529.522	1	12
529.692	1	14
529.862	1	22
530.032	1	13
530.202	1	13
530.372	1	22
530.542	1	14
530.712	1	21
530.882	1	7
531.052	1	21
531.222	1	2
531.392	1	18
531.563	1	7
531.733	1	24
531.903	1	17
532.073	1	7
532.243	1	15
532.413	1	22
532.583	1	9
532.753	1	12
532.923	1	21
533.093	1	23
533.263	1	10
533.433	1	26
533.603	1	20
533.773	1	10
533.943	1	6
534.113	1	16
534.284	1	11
534.454	1	12
534.624	1	18
534.794	1	-1
534.964	1	13
535.134	1	25
535.304	1	22
535.474	1	2
535.644	1	10
535.814	1	19
535.984	1	19
536.154	1	15
536.324	1	26
536.494	1	16
536.664	1	20
536.834	1	20
537.004	1	18
537.174	1	19
537.344	1	30
537.514	1	10
537.685	1	15
537.855	1	9
538.025	1	2
538.195	1	6
538.365	1	5
538.535	1	19
538.705	1	28
538.875	1	19
539.045	1	12
539.215	1	2
539.385	1	12
539.555	1	15
539.725	1	11
539.895	1	21
540.065	1	9
540.235	1	26
540.405	1	16
540.575	1	8
540.745	1	8
540.915	1	11
541.085	1	7
541.255	1	0
541.425	1	12
541.595	1	23
541.765	1	25
541.935	1	5
542.105	1	15
542.275	1	9
542.445	1	10
542.615	1	9
542.785	1	4
542.955	1	18
543.125	1	4
543.295	1	11
543.465	1	10
543.635	1	15
543.805	1	24
543.975	1	15
544.145	1	7
544.315	1	6
544.485	1	14
544.655	1	23
544.825	1	16
544.995	1	20
545.165	1	13
545.335	1	13
545.505	1	20
545.675	1	6
545.845	1	8
546.015	1	14
546.185	1	16
546.355	1	16
546.525	1	13
546.695	1	19
546.865	1	10
547.035	1	14
547.205	1	4
547.375	1	23
547.545	1	24
547.715	1	17
547.885	1	20
548.055	1	3
548.225	1	14
548.395	1	6
548.565	1	7
548.735	1	10
548.905	1	6
549.075	1	19
549.245	1	15
549.415	1	3
549.585	1	11
549.755	1	17
549.925	1	9
550.095	1	7
550.265	1	6
550.435	1	-8
550.605	1	11
550.775	1	5
550.945	1	17
551.115	1	7
551.285	1	13
551.455	1	8
551.625	1	1
551.795	1	-2
551.965	1	19
552.135	1	16
552.305	1	7
552.475	1	9
552.645	1	3
552.815	1	3
552.985	1	13
553.155	1	13
553.325	1	11
553.495	1	13
553.665	1	18
553.835	1	9
554.004	1	5
554.174	1	12
554.344	1	12
554.514	1	10
554.684	1	8
554.854	1	4
555.024	1	19
555.194	1	7
555.364	1	17
555.534	1	6
555.704	1	21
555.874	1	6
556.044	1	14
556.214	1	9
556.384	1	9
556.554	1	12
556.724	1	18
556.894	1	4
557.064	1	14
557.234	1	5
557.404	1	10
557.573	1	3
557.743	1	13
557.913	1	3
558.083	1	11
558.253	1	6
558.423	1	3
558.593	1	14
558.763	1	14
558.933	1	12
559.103	1	16
559.273	1	15
559.443	1	17
559.613	1	17
559.783	1	15
559.953	1	19
560.122	1	18
560.292	1	11
560.462	1	8
560.632	1	4
560.802	1	-1
560.972	1	11
561.142	1	23
561.312	1	16
561.482	1	20
561.652	1	6
561.822	1	-3
561.992	1	5
562.162	1	20
562.331	1	21
562.501	1	5
562.671	1	23
562.841	1	3
563.011	1	3
563.181	1	10
563.351	1	9
563.521	1	10
563.691	1	18
563.861	1	6
564.031	1	-7
564.201	1	3
564.370	1	9
564.540	1	-2
564.710	1	10
564.880	1	16
565.050	1	10
565.220	1	12
565.390	1	7
565.560	1	8
565.730	1	17
565.900	1	3
566.069	1	14
566.239	1	12
566.409	1	10
566.579	1	12
566.749	1	7
566.919	1	12
567.089	1	13
567.259	1	17
567.429	1	18
567.599	1	6
567.768	1	7
567.938	1	5
568.108	1	17
568.278	1	15
568.448	1	10
568.618	1	16
568.788	1	-7
568.958	1	4
569.128	1	8
569.297	1	4
569.467	1	9
569.637	1	12
569.807	1	1
569.977	1	18
570.147	1	3
570.317	1	7
570.487	1	11
570.656	1	10
570.826	1	3
570.996	1	18
571.166	1	6
571.336	1	-4
571.506	1	9
571.676	1	-3
571.846	1	4
572.015	1	17
572.185	1	7
572.355	1	15
572.525	1	9
572.695	1	15
572.865	1	15
573.035	1	0
573.205	1	-1
573.374	1	20
573.544	1	3
573.714	1	13
573.884	1	14
574.054	1	2
574.224	1	11
574.394	1	2
574.563	1	19
574.733	1	14
574.903	1	23
575.073	1	5
575.243	1	13
575.413	1	17
575.583	1	10
575.752	1	11
575.922	1	7
576.092	1	-1
576.262	1	13
576.432	1	11
576.602	1	12
576.772	1	2
576.941	1	21
577.111	1	11
577.281	1	18
577.451	1	9
577.621	1	12
577.791	1	3
577.960	1	-1
578.130	1	12
578.300	1	16
578.470	1	18
578.640	1	4
578.810	1	5
578.979	1	12
579.149	1	1
579.319	1	13
579.489	1	10
579.659	1	15
579.829	1	10
579.998	1	12
580.168	1	0
580.338	1	12
580.508	1	5
580.678	1	15
580.848	1	6
581.017	1	15
581.187	1	16
581.357	1	1
581.527	1	1
581.697	1	11
581.867	1	15
582.036	1	8
582.206	1	16
582.376	1	11
582.546	1	26
582.716	1	13
582.885	1	5
583.055	1	9
583.225	1	14
583.395	1	4
583.565	1	7
583.735	1	-4
583.904	1	7
584.074	1	-3
584.244	1	9
584.414	1	-5
584.584	1	7
584.753	1	11
584.923	1	19
585.093	1	1
585.263	1	3
585.433	1	25
585.602	1	11
585.772	1	6
585.942	1	4
586.112	1	2
586.282	1	6
586.451	1	2
586.621	1	8
586.791	1	15
586.961	1	18
587.131	1	8
587.300	1	18
587.470	1	6
587.640	1	2
587.810	1	-8
587.980	1	1
588.149	1	4
588.319	1	4
588.489	1	0
588.659	1	12
588.829	1	2
588.998	1	-4
589.168	1	12
589.338	1	11
589.508	1	14
589.677	1	7
589.847	1	13
590.017	1	18
590.187	1	10
590.357	1	1
590.526	1	25
590.696	1	15
590.866	1	-2
591.036	1	8
591.205	1	19
591.375	1	0
591.545	1	7
591.715	1	2
591.885	1	9
592.054	1	7
592.224	1	13
592.394	1	11
592.564	1	13
592.733	1	10
592.903	1	8
593.073	1	-7
593.243	1	17
593.412	1	2
593.582	1	6
593.752	1	7
593.922	1	8
594.091	1	7
594.261	1	3
594.431	1	14
594.601	1	9
594.771	1	-1
594.940	1	11
595.110	1	11
595.280	1	9
595.450	1	11
595.619	1	4
595.789	1	20
595.959	1	0
596.129	1	3
596.298	1	3
596.468	1	12
596.638	1	6
596.808	1	3
596.977	1	6
597.147	1	11
597.317	1	7
597.487	1	15
597.656	1	8
597.826	1	11
597.996	1	3
598.166	1	14
598.335	1	0
598.505	1	3
598.675	1	0
598.844	1	5
599.014	1	10
599.184	1	15
599.354	1	9
599.523	1	13
599.693	1	14
599.863	1	16
600.033	1	3
600.202	1	10
600.372	1	4
600.542	1	3
600.712	1	13
600.881	1	8
601.051	1	13
601.221	1	12
601.390	1	10
601.560	1	15
601.730	1	6
601.900	1	25
602.069	1	-8
602.239	1	10
602.409	1	14
602.578	1	25
602.748	1	9
602.918	1	13
603.088	1	14
603.257	1	14
603.427	1	16
603.597	1	17
603.767	1	7
603.936	1	17
604.106	1	11
604.276	1	12
604.445	1	5
604.615	1	6
604.785	1	3
604.954	1	8
605.124	1	15
605.294	1	20
605.464	1	-2
605.633	1	14
605.803	1	14
605.973	1	7
606.142	1	12
606.312	1	25
606.482	1	10
606.652	1	12
606.821	1	4
606.991	1	7
607.161	1	10
607.330	1	16
607.500	1	24
607.670	1	13
607.839	1	4
608.009	1	12
608.179	1	-5
608.348	1	10
608.518	1	5
608.688	1	15
608.858	1	1
609.027	1	4
609.197	1	15
609.367	1	2
609.536	1	17
609.706	1	3
609.876	1	11
610.045	1	12
610.215	1	6
610.385	1	9
610.554	1	4
610.724	1	20
610.894	1	8
611.063	1	13
611.233	1	8
611.403	1	10
611.572	1	20
611.742	1	1
611.912	1	9
612.081	1	12
612.251	1	15
612.421	1	12
612.590	1	6
612.760	1	17
612.930	1	9
613.099	1	11
613.269	1	4
613.439	1	14
613.608	1	10
613.778	1	10
613.948	1	16
614.117	1	13
614.287	1	10
614.457	1	4
614.626	1	21
614.796	1	7
614.966	1	7
615.135	1	19
615.305	1	19
615.475	1	8
615.644	1	14
615.814	1	10
615.984	1	13
616.153	1	0
616.323	1	3
616.493	1	19
616.662	1	6
616.832	1	9
617.002	1	2
617.171	1	8
617.341	1	10
617.511	1	3
617.680	1	7
617.850	1	6
618.019	1	11
618.189	1	8
618.359	1	14
618.528	1	3
618.698	1	15
618.868	1	3
619.037	1	11
619.207	1	13
619.377	1	17
619.546	1	-1
619.716	1	3
619.885	1	14
620.055	1	23
620.225	1	16
620.394	1	10
620.564	1	9
620.734	1	15
620.903	1	10
621.073	1	15
621.242	1	-2
621.412	1	14
621.582	1	14
621.751	1	13
621.921	1	11
622.091	1	1
622.260	1	10
622.430	1	19
622.599	1	13
622.769	1	10
622.939	1	11
623.108	1	12
623.278	1	20
623.448	1	14
623.617	1	1
623.787	1	16
623.956	1	20
624.126	1	4
624.296	1	5
624.465	1	4
624.635	1	12
624.804	1	9
624.974	1	14
625.144	1	20
625.313	1	4
625.483	1	11
625.652	1	18
625.822	1	7
625.992	1	18
626.161	1	4
626.331	1	10
626.501	1	6
626.670	1	8
626.840	1	5
627.009	1	6
627.179	1	3
627.348	1	15
627.518	1	12
627.688	1	20
627.857	1	11
628.027	1	9
628.196	1	10
628.366	1	2
628.536	1	11
628.705	1	12
628.875	1	19
629.044	1	9
629.214	1	6
629.384	1	16
629.553	1	19
629.723	1	6
629.892	1	7
630.062	1	-4
630.232	1	22
630.401	1	10
630.571	1	11
630.740	1	2
630.910	1	12
631.079	1	10
631.249	1	9
631.419	1	10
631.588	1	11
631.758	1	7
631.927	1	16
632.097	1	12
632.266	1	4
632.436	1	8
632.606	1	5
632.775	1	15
632.945	1	4
633.114	1	9
633.284	1	7
633.453	1	15
633.623	1	15
633.793	1	4
633.962	1	8
634.132	1	9
634.301	1	11
634.471	1	2
634.640	1	12
634.810	1	16
634.979	1	12
635.149	1	15
635.319	1	18
635.488	1	7
635.658	1	20
635.827	1	-1
635.997	1	11
636.166	1	15
636.336	1	16
636.505	1	3
636.675	1	9
636.845	1	12
637.014	1	5
637.184	1	14
637.353	1	9
637.523	1	18
637.692	1	12
637.862	1	3
638.031	1	14
638.201	1	16
638.370	1	9
638.540	1	14
638.710	1	12
638.879	1	19
639.049	1	2
639.218	1	20
639.388	1	12
639.557	1	22
639.727	1	28
639.896	1	14
640.066	1	13
640.235	1	3
640.405	1	11
640.574	1	9
640.744	1	5
640.914	1	7
641.083	1	6
641.253	1	2
641.422	1	8
641.592	1	18
641.761	1	15
641.931	1	12
642.100	1	16
642.270	1	13
642.439	1	14
642.609	1	15
642.778	1	12
642.948	1	20
643.117	1	15
643.287	1	2
643.456	1	16
643.626	1	13
643.795	1	16
643.965	1	13
644.134	1	5
644.304	1	15
644.473	1	9
644.643	1	10
644.812	1	7
644.982	1	17
645.151	1	21
645.321	1	6
645.490	1	16
645.660	1	5
645.829	1	17
645.999	1	4
646.168	1	16
646.338	1	8
646.507	1	15
646.677	1	14
646.846	1	14
647.016	1	7
647.185	1	9
647.355	1	14
647.524	1	13
647.694	1	5
647.863	1	19
648.033	1	13
648.202	1	9
648.372	1	6
648.541	1	5
648.711	1	10
648.880	1	9
649.050	1	17
649.219	1	13
649.389	1	12
649.558	1	16
649.728	1	2
649.897	1	8
650.067	1	5
650.236	1	17
650.406	1	16
650.575	1	13
650.745	1	7
650.914	1	8
651.084	1	17
651.253	1	0
651.423	1	10
651.592	1	12
651.762	1	18
651.931	1	10
652.101	1	18
652.270	1	10
652.440	1	16
652.609	1	26
652.778	1	21
652.948	1	13
653.117	1	12
653.287	1	15
653.456	1	9
653.626	1	11
653.795	1	10
653.965	1	11
654.134	1	10
654.304	1	17
654.473	1	3
654.643	1	17
654.812	1	16
654.982	1	11
655.151	1	11
655.320	1	19
655.490	1	18
655.659	1	10
655.829	1	11
655.998	1	14
656.168	1	5
656.337	1	13
656.507	1	8
656.676	1	16
656.846	1	17
657.015	1	9
657.184	1	9
657.354	1	23
657.523	1	14
657.693	1	8
657.862	1	4
658.032	1	16
658.201	1	9
658.371	1	2
658.540	1	9
658.709	1	7
658.879	1	11
659.048	1	6
659.218	1	-1
659.387	1	11
659.557	1	15
659.726	1	6
659.895	1	14
660.065	1	20
660.234	1	7
660.404	1	15
660.573	1	8
660.743	1	16
660.912	1	3
661.081	1	-1
661.251	1	21
661.420	1	17
661.590	1	5
661.759	1	12
661.929	1	17
662.098	1	10
662.267	1	14
662.437	1	21
662.606	1	13
662.776	1	7
662.945	1	10
663.115	1	15
663.284	1	7
663.453	1	30
663.623	1	19
663.792	1	14
663.962	1	10
664.131	1	9
664.300	1	1
664.470	1	12
664.639	1	19
664.809	1	19
664.978	1	17
665.148	1	15
665.317	1	10
665.486	1	13
665.656	1	15
665.825	1	14
665.995	1	9
666.164	1	21
666.333	1	13
666.503	1	17
666.672	1	17
666.842	1	7
667.011	1	12
667.180	1	17
667.350	1	14
667.519	1	11
667.689	1	18
667.858	1	20
668.027	1	10
668.197	1	21
668.366	1	4
668.536	1	7
668.705	1	17
668.874	1	14
669.044	1	17
669.213	1	16
669.382	1	20
669.552	1	14
669.721	1	16
669.891	1	6
670.060	1	11
670.229	1	9
670.399	1	9
670.568	1	14
670.738	1	9
670.907	1	8
671.076	1	12
671.246	1	6
671.415	1	22
671.584	1	8
671.754	1	11
671.923	1	14
672.093	1	16
672.262	1	9
672.431	1	24
672.601	1	22
672.770	1	11
672.939	1	2
673.109	1	16
673.278	1	9
673.448	1	14
673.617	1	23
673.786	1	12
