325.333	1	5
325.504	1	6
325.675	1	2
325.846	1	-2
326.017	1	4
326.188	1	3
326.359	1	3
326.531	1	17
326.702	1	4
326.873	1	-1
327.044	1	7
327.215	1	-3
327.386	1	-1
327.557	1	8
327.728	1	6
327.899	1	-2
328.070	1	3
328.241	1	14
328.412	1	2
328.583	1	9
328.754	1	-8
328.926	1	10
329.097	1	-7
329.268	1	-12
329.439	1	6
329.610	1	3
329.781	1	-1
329.952	1	-2
330.123	1	5
330.294	1	6
330.465	1	2
330.636	1	12
330.807	1	-3
330.978	1	6
331.149	1	1
331.320	1	6
331.492	1	6
331.663	1	-7
331.834	1	0
332.005	1	7
332.176	1	7
332.347	1	14
332.518	1	2
332.689	1	-1
332.860	1	5
333.031	1	11
333.202	1	6
333.373	1	8
333.544	1	4
333.715	1	3
333.886	1	-2
334.057	1	2
334.228	1	3
334.399	1	11
334.570	1	-2
334.741	1	9
334.912	1	8
335.084	1	5
335.255	1	18
335.426	1	7
335.597	1	1
335.768	1	-2
335.939	1	-3
336.110	1	7
336.281	1	2
336.452	1	1
336.623	1	1
336.794	1	-2
336.965	1	5
337.136	1	5
337.307	1	4
337.478	1	4
337.649	1	1
337.820	1	-6
337.991	1	7
338.162	1	-5
338.333	1	11
338.504	1	17
338.675	1	5
338.846	1	9
339.017	1	13
339.188	1	15
339.359	1	11
339.530	1	-5
339.701	1	-4
339.872	1	7
340.043	1	0
340.214	1	10
340.385	1	15
340.556	1	12
340.727	1	0
340.898	1	14
341.069	1	-12
341.240	1	1
341.411	1	16
341.582	1	5
341.753	1	3
341.924	1	5
342.095	1	15
342.266	1	0
342.437	1	-4
342.608	1	4
342.779	1	9
342.950	1	6
343.121	1	2
343.292	1	7
343.463	1	10
343.634	1	13
343.805	1	5
343.976	1	-6
344.147	1	7
344.318	1	-2
344.489	1	9
344.660	1	12
344.831	1	6
345.002	1	14
345.173	1	13
345.344	1	-5
345.515	1	-3
345.686	1	-3
345.857	1	5
346.028	1	-4
346.199	1	4
346.370	1	2
346.541	1	5
346.712	1	10
346.883	1	17
347.054	1	12
347.225	1	-10
347.396	1	4
347.567	1	7
347.738	1	13
347.909	1	10
348.080	1	14
348.251	1	-3
348.422	1	-3
348.593	1	5
348.764	1	-1
348.935	1	3
349.106	1	9
349.277	1	2
349.448	1	-5
349.619	1	6
349.790	1	10
349.961	1	2
350.132	1	3
350.303	1	1
350.474	1	0
350.645	1	9
350.816	1	-1
350.987	1	9
351.157	1	5
351.328	1	6
351.499	1	10
351.670	1	6
351.841	1	4
352.012	1	-1
352.183	1	9
352.354	1	-1
352.525	1	13
352.696	1	4
352.867	1	14
353.038	1	0
353.209	1	3
353.380	1	3
353.551	1	1
353.722	1	9
353.893	1	11
354.064	1	3
354.235	1	4
354.406	1	-2
354.576	1	-3
354.747	1	13
354.918	1	12
355.089	1	12
355.260	1	13
355.431	1	1
355.602	1	0
355.773	1	4
355.944	1	4
356.115	1	0
356.286	1	9
356.457	1	9
356.628	1	-10
356.799	1	-2
356.970	1	6
357.141	1	17
357.311	1	9
357.482	1	-4
357.653	1	-1
357.824	1	7
357.995	1	12
358.166	1	13
358.337	1	8
358.508	1	-8
358.679	1	4
358.850	1	8
359.021	1	4
359.192	1	9
359.363	1	-6
359.533	1	5
359.704	1	7
359.875	1	0
360.046	1	6
360.217	1	-2
360.388	1	5
360.559	1	0
360.730	1	-4
360.901	1	-3
361.072	1	3
361.243	1	5
361.414	1	8
361.584	1	8
361.755	1	5
361.926	1	5
362.097	1	3
362.268	1	18
362.439	1	9
362.610	1	5
362.781	1	14
362.952	1	-1
363.123	1	-3
363.293	1	-2
363.464	1	6
363.635	1	15
363.806	1	14
363.977	1	10
364.148	1	13
364.319	1	-6
364.490	1	9
364.661	1	2
364.832	1	5
365.002	1	3
365.173	1	-4
365.344	1	2
365.515	1	8
365.686	1	4
365.857	1	14
366.028	1	14
366.199	1	11
366.370	1	9
366.540	1	-3
366.711	1	2
366.882	1	1
367.053	1	5
367.224	1	0
367.395	1	18
367.566	1	5
367.737	1	9
367.908	1	-1
368.078	1	16
368.249	1	2
368.420	1	4
368.591	1	5
368.762	1	2
368.933	1	14
369.104	1	1
369.274	1	15
369.445	1	14
369.616	1	2
369.787	1	2
369.958	1	18
370.129	1	11
370.300	1	2
370.471	1	6
370.641	1	-3
370.812	1	9
370.983	1	2
371.154	1	10
371.325	1	7
371.496	1	4
371.667	1	8
371.837	1	12
372.008	1	15
372.179	1	7
372.350	1	2
372.521	1	6
372.692	1	1
372.863	1	11
373.033	1	9
373.204	1	11
373.375	1	-3
373.546	1	12
373.717	1	10
373.888	1	17
374.059	1	1
374.229	1	7
374.400	1	20
374.571	1	14
374.742	1	8
374.913	1	13
375.084	1	13
375.254	1	6
375.425	1	3
375.596	1	7
375.767	1	4
375.938	1	-1
376.109	1	3
376.279	1	0
376.450	1	3
376.621	1	9
376.792	1	19
376.963	1	7
377.134	1	0
377.304	1	16
377.475	1	14
377.646	1	-1
377.817	1	0
377.988	1	1
378.159	1	9
378.329	1	16
378.500	1	2
378.671	1	2
378.842	1	4
379.013	1	7
379.184	1	10
379.354	1	18
379.525	1	5
379.696	1	25
379.867	1	-3
380.038	1	4
380.209	1	11
380.379	1	14
380.550	1	12
380.721	1	14
380.892	1	14
381.063	1	14
381.233	1	16
381.404	1	2
381.575	1	13
381.746	1	10
381.917	1	11
382.087	1	16
382.258	1	8
382.429	1	12
382.600	1	16
382.771	1	12
382.941	1	11
383.112	1	9
383.283	1	12
383.454	1	8
383.625	1	6
383.795	1	4
383.966	1	16
384.137	1	5
384.308	1	9
384.479	1	14
384.649	1	19
384.820	1	4
384.991	1	-12
385.162	1	15
385.333	1	13
385.503	1	27
385.674	1	21
385.845	1	19
386.016	1	13
386.187	1	3
386.357	1	7
386.528	1	1
386.699	1	1
386.870	1	7
387.041	1	9
387.211	1	-6
387.382	1	-1
387.553	1	12
387.724	1	4
387.894	1	11
388.065	1	15
388.236	1	14
388.407	1	13
388.578	1	14
388.748	1	6
388.919	1	23
389.090	1	11
389.261	1	14
389.431	1	19
389.602	1	6
389.773	1	3
389.944	1	10
390.114	1	20
390.285	1	14
390.456	1	10
390.627	1	10
390.798	1	5
390.968	1	6
391.139	1	17
391.310	1	17
391.481	1	3
391.651	1	13
391.822	1	19
391.993	1	20
392.164	1	-5
392.334	1	2
392.505	1	7
392.676	1	20
392.847	1	6
393.017	1	14
393.188	1	6
393.359	1	20
393.530	1	18
393.700	1	20
393.871	1	13
394.042	1	22
394.213	1	16
394.383	1	20
394.554	1	14
394.725	1	23
394.896	1	15
395.066	1	7
395.237	1	2
395.408	1	9
395.579	1	22
395.749	1	9
395.920	1	9
396.091	1	12
396.262	1	7
396.432	1	10
396.603	1	13
396.774	1	30
396.945	1	0
397.115	1	12
397.286	1	21
397.457	1	5
397.627	1	4
397.798	1	7
397.969	1	14
398.140	1	2
398.310	1	9
398.481	1	17
398.652	1	8
398.823	1	10
398.993	1	16
399.164	1	5
399.335	1	10
399.505	1	13
399.676	1	19
399.847	1	17
400.018	1	15
400.188	1	18
400.359	1	12
400.530	1	9
400.700	1	21
400.871	1	17
401.042	1	11
401.213	1	17
401.383	1	18
401.554	1	15
401.725	1	9
401.895	1	6
402.066	1	22
402.237	1	28
402.408	1	22
402.578	1	17
402.749	1	17
402.920	1	17
403.090	1	17
403.261	1	9
403.432	1	15
403.603	1	-5
403.773	1	19
403.944	1	12
404.115	1	10
404.285	1	26
404.456	1	15
404.627	1	10
404.797	1	2
404.968	1	7
405.139	1	11
405.310	1	17
405.480	1	12
405.651	1	11
405.822	1	24
405.992	1	16
406.163	1	22
406.334	1	11
406.504	1	9
406.675	1	2
406.846	1	19
407.016	1	4
407.187	1	13
407.358	1	14
407.528	1	16
407.699	1	15
407.870	1	17
408.041	1	6
408.211	1	3
408.382	1	2
408.553	1	5
408.723	1	15
408.894	1	16
409.065	1	15
409.235	1	2
409.406	1	18
409.577	1	18
409.747	1	14
409.918	1	16
410.089	1	-4
410.259	1	9
410.430	1	22
410.601	1	9
410.771	1	20
410.942	1	7
411.113	1	20
411.283	1	19
411.454	1	22
411.625	1	10
411.795	1	10
411.966	1	2
412.137	1	16
412.307	1	14
412.478	1	11
412.649	1	17
412.819	1	1
412.990	1	22
413.161	1	18
413.331	1	19
413.502	1	6
413.672	1	12
413.843	1	17
414.014	1	24
414.184	1	12
414.355	1	12
414.526	1	15
414.696	1	16
414.867	1	17
415.038	1	13
415.208	1	10
415.379	1	13
415.550	1	28
415.720	1	11
415.891	1	31
416.062	1	18
416.232	1	25
416.403	1	15
416.573	1	14
416.744	1	13
416.915	1	14
417.085	1	12
417.256	1	7
417.427	1	21
417.597	1	7
417.768	1	20
417.939	1	21
418.109	1	2
418.280	1	13
418.450	1	16
418.621	1	3
418.792	1	7
418.962	1	6
419.133	1	17
419.304	1	5
419.474	1	13
419.645	1	4
419.815	1	12
419.986	1	-2
420.157	1	30
420.327	1	15
420.498	1	12
420.669	1	11
420.839	1	14
421.010	1	11
421.180	1	6
421.351	1	17
421.522	1	18
421.692	1	24
421.863	1	15
422.033	1	24
422.204	1	16
422.375	1	20
422.545	1	18
422.716	1	16
422.886	1	21
423.057	1	9
423.228	1	8
423.398	1	12
423.569	1	14
423.740	1	12
423.910	1	27
424.081	1	21
424.251	1	4
424.422	1	3
424.593	1	10
424.763	1	10
424.934	1	18
425.104	1	8
425.275	1	14
425.445	1	23
425.616	1	19
425.787	1	17
425.957	1	10
426.128	1	14
426.298	1	13
426.469	1	4
426.640	1	10
426.810	1	13
426.981	1	16
427.151	1	15
427.322	1	1
427.493	1	13
427.663	1	20
427.834	1	5
428.004	1	12
428.175	1	12
428.345	1	18
428.516	1	18
428.687	1	10
428.857	1	13
429.028	1	24
429.198	1	10
429.369	1	13
429.540	1	12
429.710	1	11
429.881	1	20
430.051	1	-1
430.222	1	19
430.392	1	16
430.563	1	12
430.734	1	20
430.904	1	17
431.075	1	6
431.245	1	19
431.416	1	3
431.586	1	14
431.757	1	11
431.927	1	14
432.098	1	21
432.269	1	16
432.439	1	12
432.610	1	20
432.780	1	7
432.951	1	12
433.121	1	13
433.292	1	20
433.462	1	26
433.633	1	19
433.804	1	11
433.974	1	11
434.145	1	19
434.315	1	13
434.486	1	8
434.656	1	17
434.827	1	18
434.997	1	27
435.168	1	10
435.339	1	15
435.509	1	4
435.680	1	8
435.850	1	12
436.021	1	21
436.191	1	17
436.362	1	25
436.532	1	9
436.703	1	18
436.873	1	12
437.044	1	22
437.214	1	12
437.385	1	30
437.556	1	14
437.726	1	14
437.897	1	10
438.067	1	13
438.238	1	18
438.408	1	14
438.579	1	10
438.749	1	5
438.920	1	3
439.090	1	10
439.261	1	12
439.431	1	16
439.602	1	16
439.772	1	21
439.943	1	19
440.113	1	19
440.284	1	17
440.455	1	17
440.625	1	12
440.796	1	5
440.966	1	11
441.137	1	19
441.307	1	10
441.478	1	16
441.648	1	7
441.819	1	8
441.989	1	6
442.160	1	8
442.330	1	21
442.501	1	13
442.671	1	9
442.842	1	23
443.012	1	2
443.183	1	10
443.353	1	17
443.524	1	18
443.694	1	9
443.865	1	12
444.035	1	8
444.206	1	17
444.376	1	24
444.547	1	8
444.717	1	17
444.888	1	8
445.058	1	12
445.229	1	15
445.399	1	10
445.570	1	5
445.740	1	26
445.911	1	17
446.081	1	23
446.252	1	4
446.422	1	14
446.593	1	12
446.763	1	11
446.934	1	10
447.104	1	2
447.275	1	16
447.445	1	15
447.616	1	9
447.786	1	21
447.957	1	18
448.127	1	25
448.298	1	14
448.468	1	18
448.639	1	6
448.809	1	4
448.979	1	15
449.150	1	18
449.320	1	8
449.491	1	26
449.661	1	15
449.832	1	22
450.002	1	15
450.173	1	16
450.343	1	28
450.514	1	14
450.684	1	1
450.855	1	4
451.025	1	18
451.196	1	15
451.366	1	7
451.537	1	6
451.707	1	21
451.878	1	9
452.048	1	9
452.218	1	0
452.389	1	11
452.559	1	1
452.730	1	9
452.900	1	13
453.071	1	13
453.241	1	10
453.412	1	4
453.582	1	6
453.753	1	11
453.923	1	14
454.093	1	28
454.264	1	5
454.434	1	16
454.605	1	18
454.775	1	8
454.946	1	6
455.116	1	12
455.287	1	19
455.457	1	13
455.628	1	9
455.798	1	8
455.968	1	19
456.139	1	6
456.309	1	23
456.480	1	10
456.650	1	21
456.821	1	29
456.991	1	23
457.161	1	16
457.332	1	16
457.502	1	26
457.673	1	22
457.843	1	18
458.014	1	11
458.184	1	11
458.355	1	14
458.525	1	16
458.695	1	15
458.866	1	26
459.036	1	13
459.207	1	10
459.377	1	18
459.548	1	6
459.718	1	8
459.888	1	21
460.059	1	24
460.229	1	12
460.400	1	13
460.570	1	18
460.740	1	13
460.911	1	17
461.081	1	11
461.252	1	22
461.422	1	10
461.593	1	13
461.763	1	15
461.933	1	8
462.104	1	15
462.274	1	2
462.445	1	8
462.615	1	16
462.785	1	17
462.956	1	11
463.126	1	11
463.297	1	19
463.467	1	8
463.638	1	9
463.808	1	23
463.978	1	14
464.149	1	-4
464.319	1	22
464.490	1	16
464.660	1	20
464.830	1	16
465.001	1	19
465.171	1	1
465.342	1	11
465.512	1	16
465.682	1	5
465.853	1	5
466.023	1	9
466.194	1	13
466.364	1	18
466.534	1	13
466.705	1	8
466.875	1	10
467.045	1	4
467.216	1	11
467.386	1	23
467.557	1	11
467.727	1	20
467.897	1	9
468.068	1	-10
468.238	1	22
468.409	1	6
468.579	1	16
468.749	1	7
468.920	1	8
469.090	1	14
469.260	1	15
469.431	1	18
469.601	1	-3
469.772	1	-1
469.942	1	5
470.112	1	11
470.283	1	18
470.453	1	11
470.623	1	7
470.794	1	7
470.964	1	19
471.135	1	17
471.305	1	21
471.475	1	10
471.646	1	10
471.816	1	5
471.986	1	13
472.157	1	14
472.327	1	6
472.497	1	18
472.668	1	9
472.838	1	11
473.009	1	14
473.179	1	11
473.349	1	21
473.520	1	4
473.690	1	15
473.860	1	19
474.031	1	14
474.201	1	8
474.371	1	20
474.542	1	11
474.712	1	12
474.882	1	4
475.053	1	20
475.223	1	-2
475.394	1	11
475.564	1	6
475.734	1	17
475.905	1	11
476.075	1	6
476.245	1	4
476.416	1	-1
476.586	1	8
476.756	1	5
476.927	1	8
477.097	1	3
477.267	1	21
477.438	1	15
477.608	1	-1
477.778	1	15
477.949	1	14
478.119	1	16
478.289	1	2
478.460	1	0
478.630	1	16
478.800	1	12
478.971	1	16
479.141	1	7
479.311	1	12
479.482	1	12
479.652	1	15
479.822	1	14
479.993	1	7
480.163	1	13
480.333	1	6
480.504	1	6
480.674	1	13
480.844	1	3
481.015	1	6
481.185	1	-3
481.355	1	8
481.525	1	12
481.696	1	13
481.866	1	9
482.036	1	10
482.207	1	23
482.377	1	19
482.547	1	5
482.718	1	-1
482.888	1	15
483.058	1	0
483.229	1	8
483.399	1	12
483.569	1	11
483.740	1	13
483.910	1	0
484.080	1	2
484.250	1	0
484.421	1	4
484.591	1	6
484.761	1	-2
484.932	1	7
485.102	1	7
485.272	1	4
485.443	1	8
485.613	1	17
485.783	1	9
485.953	1	11
486.124	1	-3
486.294	1	7
486.464	1	7
486.635	1	11
486.805	1	3
486.975	1	10
487.146	1	1
487.316	1	10
487.486	1	7
487.656	1	2
487.827	1	6
487.997	1	0
488.167	1	14
488.338	1	-11
488.508	1	12
488.678	1	7
488.848	1	8
489.019	1	9
489.189	1	5
489.359	1	6
489.529	1	0
489.700	1	5
489.870	1	-1
490.040	1	9
490.211	1	7
490.381	1	20
490.551	1	8
490.721	1	17
490.892	1	6
491.062	1	-2
491.232	1	-2
491.402	1	9
491.573	1	-1
491.743	1	6
491.913	1	-4
492.084	1	13
492.254	1	14
492.424	1	16
492.594	1	15
492.765	1	4
492.935	1	3
493.105	1	8
493.275	1	3
493.446	1	5
493.616	1	3
493.786	1	5
493.956	1	3
494.127	1	16
494.297	1	-3
494.467	1	8
494.637	1	17
494.808	1	11
494.978	1	7
495.148	1	2
495.318	1	22
495.489	1	-4
495.659	1	7
495.829	1	3
495.999	1	-1
496.170	1	-11
496.340	1	21
496.510	1	14
496.680	1	1
496.851	1	3
497.021	1	-10
497.191	1	11
497.361	1	-4
497.532	1	-1
497.702	1	11
497.872	1	15
498.042	1	16
498.213	1	9
498.383	1	9
498.553	1	5
498.723	1	14
498.894	1	2
499.064	1	6
499.234	1	9
499.404	1	-2
499.574	1	10
499.745	1	16
499.915	1	5
500.085	1	7
500.255	1	9
500.426	1	7
500.596	1	-3
500.766	1	-2
500.936	1	7
501.106	1	13
501.277	1	9
501.447	1	6
501.617	1	6
501.787	1	6
501.958	1	-3
502.128	1	0
502.298	1	4
502.468	1	5
502.638	1	-4
502.809	1	4
502.979	1	16
503.149	1	0
503.319	1	9
503.489	1	-5
503.660	1	-2
503.830	1	8
504.000	1	5
504.170	1	6
504.340	1	6
504.511	1	8
504.681	1	3
504.851	1	6
505.021	1	20
505.192	1	-1
505.362	1	-1
505.532	1	9
505.702	1	7
505.872	1	10
506.043	1	12
506.213	1	19
506.383	1	4
506.553	1	13
506.723	1	0
506.893	1	-1
507.064	1	0
507.234	1	10
507.404	1	11
507.574	1	5
507.744	1	5
507.915	1	5
508.085	1	9
508.255	1	1
508.425	1	2
508.595	1	4
508.766	1	7
508.936	1	2
509.106	1	3
509.276	1	4
509.446	1	5
509.616	1	14
509.787	1	16
509.957	1	9
510.127	1	3
510.297	1	-3
510.467	1	-12
510.638	1	0
510.808	1	3
510.978	1	4
511.148	1	28
511.318	1	2
511.488	1	13
511.659	1	-2
511.829	1	7
511.999	1	2
512.169	1	2
512.339	1	8
512.509	1	-2
512.680	1	4
512.850	1	12
513.020	1	3
513.190	1	-10
513.360	1	10
513.530	1	10
513.700	1	5
513.871	1	9
514.041	1	3
514.211	1	11
514.381	1	16
514.551	1	1
514.721	1	4
514.892	1	1
515.062	1	4
515.232	1	7
515.402	1	7
515.572	1	-1
515.742	1	-1
515.912	1	5
516.083	1	1
516.253	1	21
516.423	1	6
516.593	1	16
516.763	1	11
516.933	1	-5
517.104	1	2
517.274	1	-8
517.444	1	-2
517.614	1	-2
517.784	1	11
517.954	1	16
518.124	1	-3
518.294	1	10
518.465	1	1
518.635	1	2
518.805	1	12
518.975	1	-1
519.145	1	8
519.315	1	-10
519.485	1	-8
519.656	1	4
519.826	1	7
519.996	1	11
520.166	1	7
520.336	1	-4
520.506	1	-2
520.676	1	4
520.846	1	0
521.017	1	-8
521.187	1	17
521.357	1	1
521.527	1	-2
521.697	1	3
521.867	1	5
522.037	1	-5
522.207	1	7
522.377	1	0
522.548	1	7
522.718	1	-2
522.888	1	7
523.058	1	12
523.228	1	6
523.398	1	10
523.568	1	4
523.738	1	3
523.909	1	9
524.079	1	4
524.249	1	2
524.419	1	6
524.589	1	-6
524.759	1	9
524.929	1	2
525.099	1	-6
525.269	1	15
525.439	1	2
525.610	1	2
525.780	1	-1
525.950	1	7
526.120	1	2
526.290	1	4
526.460	1	6
526.630	1	0
526.800	1	9
526.970	1	10
527.140	1	-5
527.311	1	3
527.481	1	6
527.651	1	4
527.821	1	5
527.991	1	4
528.161	1	0
528.331	1	9
528.501	1	6
528.671	1	0
528.841	1	5
529.011	1	-3
529.181	1	0
529.352	1	0
529.522	1	-3
529.692	1	-1
529.862	1	8
530.032	1	11
530.202	1	-4
530.372	1	-1
530.542	1	0
530.712	1	0
530.882	1	3
531.052	1	4
531.222	1	-2
531.392	1	10
531.563	1	3
531.733	1	8
531.903	1	15
532.073	1	0
532.243	1	6
532.413	1	17
532.583	1	0
532.753	1	-1
532.923	1	16
533.093	1	6
533.263	1	4
533.433	1	11
533.603	1	12
533.773	1	-4
533.943	1	1
534.113	1	0
534.284	1	4
534.454	1	-10
534.624	1	-1
534.794	1	1
534.964	1	3
535.134	1	12
535.304	1	10
535.474	1	1
535.644	1	3
535.814	1	3
535.984	1	8
536.154	1	10
536.324	1	16
536.494	1	3
536.664	1	5
536.834	1	2
537.004	1	13
537.174	1	2
537.344	1	1
537.514	1	0
537.685	1	-3
537.855	1	-8
538.025	1	1
538.195	1	-4
538.365	1	-2
538.535	1	5
538.705	1	7
538.875	1	13
539.045	1	3
539.215	1	-8
539.385	1	2
539.555	1	-1
539.725	1	-4
539.895	1	10
540.065	1	1
540.235	1	5
540.405	1	5
540.575	1	-1
540.745	1	-8
540.915	1	9
541.085	1	-8
541.255	1	-5
541.425	1	7
541.595	1	5
541.765	1	10
541.935	1	-6
542.105	1	3
542.275	1	7
542.445	1	-8
542.615	1	6
542.785	1	1
542.955	1	1
543.125	1	-11
543.295	1	-8
543.465	1	7
543.635	1	9
543.805	1	5
543.975	1	-1
544.145	1	6
544.315	1	-2
544.485	1	5
544.655	1	8
544.825	1	4
544.995	1	8
545.165	1	-2
545.335	1	11
545.505	1	20
545.675	1	-7
545.845	1	12
546.015	1	6
546.185	1	8
546.355	1	7
546.525	1	1
546.695	1	-3
546.865	1	12
547.035	1	11
547.205	1	7
547.375	1	16
547.545	1	9
547.715	1	10
547.885	1	6
548.055	1	3
548.225	1	7
548.395	1	-1
548.565	1	4
548.735	1	9
548.905	1	-1
549.075	1	14
549.245	1	1
549.415	1	7
549.585	1	6
549.755	1	3
549.925	1	0
550.095	1	7
550.265	1	1
550.435	1	-9
550.605	1	1
550.775	1	-4
550.945	1	8
551.115	1	-7
551.285	1	2
551.455	1	3
551.625	1	-7
551.795	1	0
551.965	1	12
552.135	1	-3
552.305	1	-2
552.475	1	-9
552.645	1	10
552.815	1	-4
552.985	1	3
553.155	1	5
553.325	1	2
553.495	1	6
553.665	1	4
553.835	1	-2
554.004	1	0
554.174	1	-1
554.344	1	2
554.514	1	5
554.684	1	-8
554.854	1	-2
555.024	1	-4
555.194	1	4
555.364	1	8
555.534	1	-2
555.704	1	9
555.874	1	6
556.044	1	9
556.214	1	0
556.384	1	-2
556.554	1	1
556.724	1	9
556.894	1	-5
557.064	1	6
557.234	1	2
557.404	1	4
557.573	1	-4
557.743	1	-1
557.913	1	-1
558.083	1	7
558.253	1	-7
558.423	1	7
558.593	1	7
558.763	1	9
558.933	1	7
559.103	1	12
559.273	1	-1
559.443	1	7
559.613	1	10
559.783	1	11
559.953	1	10
560.122	1	-5
560.292	1	6
560.462	1	0
560.632	1	8
560.802	1	-1
560.972	1	4
561.142	1	13
561.312	1	11
561.482	1	10
561.652	1	1
561.822	1	3
561.992	1	-7
562.162	1	15
562.331	1	4
562.501	1	-1
562.671	1	11
562.841	1	8
563.011	1	-5
563.181	1	5
563.351	1	2
563.521	1	8
563.691	1	20
563.861	1	-2
564.031	1	-9
564.201	1	2
564.370	1	4
564.540	1	-9
564.710	1	-4
564.880	1	-1
565.050	1	0
565.220	1	-3
565.390	1	6
565.560	1	1
565.730	1	7
565.900	1	-12
566.069	1	-4
566.239	1	5
566.409	1	1
566.579	1	2
566.749	1	-4
566.919	1	8
567.089	1	3
567.259	1	1
567.429	1	5
567.599	1	7
567.768	1	9
567.938	1	0
568.108	1	5
568.278	1	2
568.448	1	1
568.618	1	5
568.788	1	-8
568.958	1	-2
569.128	1	1
569.297	1	2
569.467	1	6
569.637	1	3
569.807	1	0
569.977	1	8
570.147	1	5
570.317	1	-4
570.487	1	8
570.656	1	11
570.826	1	-3
570.996	1	6
571.166	1	2
571.336	1	8
571.506	1	-2
571.676	1	-12
571.846	1	-9
572.015	1	3
572.185	1	-6
572.355	1	-1
572.525	1	-1
572.695	1	8
572.865	1	7
573.035	1	-2
573.205	1	-11
573.374	1	3
573.544	1	-5
573.714	1	-1
573.884	1	3
574.054	1	-1
574.224	1	-2
574.394	1	0
574.563	1	7
574.733	1	3
574.903	1	8
575.073	1	-1
575.243	1	8
575.413	1	-4
575.583	1	3
575.752	1	3
575.922	1	2
576.092	1	-6
576.262	1	3
576.432	1	0
576.602	1	9
576.772	1	-3
576.941	1	15
577.111	1	0
577.281	1	19
577.451	1	-5
577.621	1	5
577.791	1	-6
577.960	1	-1
578.130	1	4
578.300	1	4
578.470	1	13
578.640	1	0
578.810	1	-2
578.979	1	-9
579.149	1	-4
579.319	1	-1
579.489	1	4
579.659	1	-3
579.829	1	4
579.998	1	2
580.168	1	4
580.338	1	11
580.508	1	-1
580.678	1	7
580.848	1	-13
581.017	1	3
581.187	1	4
581.357	1	-4
581.527	1	-1
581.697	1	-2
581.867	1	0
582.036	1	0
582.206	1	2
582.376	1	6
582.546	1	12
582.716	1	-2
582.885	1	2
583.055	1	-2
583.225	1	-13
583.395	1	4
583.565	1	-3
583.735	1	-5
583.904	1	15
584.074	1	1
584.244	1	8
584.414	1	-5
584.584	1	-2
584.753	1	2
584.923	1	12
585.093	1	-7
585.263	1	1
585.433	1	14
585.602	1	16
585.772	1	8
585.942	1	0
586.112	1	-8
586.282	1	10
586.451	1	0
586.621	1	-4
586.791	1	4
586.961	1	7
587.131	1	1
587.300	1	8
587.470	1	1
587.640	1	4
587.810	1	-6
587.980	1	-7
588.149	1	7
588.319	1	0
588.489	1	-2
588.659	1	2
588.829	1	-6
588.998	1	-1
589.168	1	8
589.338	1	7
589.508	1	8
589.677	1	-1
589.847	1	9
590.017	1	2
590.187	1	7
590.357	1	6
590.526	1	19
590.696	1	-6
590.866	1	-3
591.036	1	-7
591.205	1	-3
591.375	1	1
591.545	1	2
591.715	1	-6
591.885	1	5
592.054	1	2
592.224	1	14
592.394	1	2
592.564	1	-4
592.733	1	6
592.903	1	-1
593.073	1	-5
593.243	1	1
593.412	1	-6
593.582	1	4
593.752	1	4
593.922	1	9
594.091	1	-1
594.261	1	-4
594.431	1	2
594.601	1	8
594.771	1	2
594.940	1	-1
595.110	1	-1
595.280	1	8
595.450	1	11
595.619	1	3
595.789	1	7
595.959	1	7
596.129	1	0
596.298	1	-1
596.468	1	-1
596.638	1	-5
596.808	1	-1
596.977	1	0
597.147	1	5
597.317	1	-9
597.487	1	4
597.656	1	15
597.826	1	-3
597.996	1	-5
598.166	1	6
598.335	1	-7
598.505	1	-11
598.675	1	-4
598.844	1	2
599.014	1	-4
599.184	1	8
599.354	1	0
599.523	1	5
599.693	1	10
599.863	1	3
600.033	1	7
600.202	1	5
600.372	1	4
600.542	1	-6
600.712	1	17
600.881	1	4
601.051	1	4
601.221	1	11
601.390	1	15
601.560	1	13
601.730	1	-1
601.900	1	4
602.069	1	-14
602.239	1	7
602.409	1	3
602.578	1	14
602.748	1	-4
602.918	1	11
603.088	1	11
603.257	1	6
603.427	1	12
603.597	1	-3
603.767	1	8
603.936	1	9
604.106	1	3
604.276	1	0
604.445	1	-2
604.615	1	-4
604.785	1	14
604.954	1	3
605.124	1	7
605.294	1	-2
605.464	1	-2
605.633	1	19
605.803	1	6
605.973	1	-1
606.142	1	1
606.312	1	10
606.482	1	2
606.652	1	5
606.821	1	-5
606.991	1	4
607.161	1	7
607.330	1	-3
607.500	1	10
607.670	1	3
607.839	1	-2
608.009	1	4
608.179	1	0
608.348	1	10
608.518	1	-2
608.688	1	12
608.858	1	-2
609.027	1	0
609.197	1	2
609.367	1	-3
609.536	1	17
609.706	1	4
609.876	1	0
610.045	1	4
610.215	1	0
610.385	1	-4
610.554	1	0
610.724	1	3
610.894	1	2
611.063	1	7
611.233	1	-4
611.403	1	0
611.572	1	8
611.742	1	16
611.912	1	3
612.081	1	-1
612.251	1	5
612.421	1	0
612.590	1	3
612.760	1	4
612.930	1	6
613.099	1	6
613.269	1	2
613.439	1	3
613.608	1	8
613.778	1	-10
613.948	1	12
614.117	1	4
614.287	1	5
614.457	1	-6
614.626	1	8
614.796	1	8
614.966	1	-3
615.135	1	3
615.305	1	15
615.475	1	5
615.644	1	8
615.814	1	-4
615.984	1	4
616.153	1	5
616.323	1	0
616.493	1	9
616.662	1	5
616.832	1	9
617.002	1	2
617.171	1	1
617.341	1	2
617.511	1	1
617.680	1	4
617.850	1	0
618.019	1	10
618.189	1	0
618.359	1	7
618.528	1	-1
618.698	1	17
618.868	1	-2
619.037	1	9
619.207	1	4
619.377	1	4
619.546	1	-3
619.716	1	5
619.885	1	-3
620.055	1	17
620.225	1	7
620.394	1	8
620.564	1	-6
620.734	1	6
620.903	1	4
621.073	1	2
621.242	1	0
621.412	1	7
621.582	1	-1
621.751	1	6
621.921	1	14
622.091	1	-3
622.260	1	-1
622.430	1	2
622.599	1	7
622.769	1	3
622.939	1	-7
623.108	1	8
623.278	1	20
623.448	1	9
623.617	1	9
623.787	1	12
623.956	1	9
624.126	1	0
624.296	1	-4
624.465	1	-1
624.635	1	0
624.804	1	-2
624.974	1	4
625.144	1	11
625.313	1	4
625.483	1	6
625.652	1	11
625.822	1	3
625.992	1	8
626.161	1	-7
626.331	1	1
626.501	1	4
626.670	1	5
626.840	1	11
627.009	1	11
627.179	1	-9
627.348	1	8
627.518	1	-2
627.688	1	8
627.857	1	4
628.027	1	1
628.196	1	-5
628.366	1	1
628.536	1	15
628.705	1	-4
628.875	1	3
629.044	1	10
629.214	1	3
629.384	1	3
629.553	1	7
629.723	1	-12
629.892	1	-6
630.062	1	-3
630.232	1	9
630.401	1	8
630.571	1	10
630.740	1	-1
630.910	1	0
631.079	1	0
631.249	1	6
631.419	1	3
631.588	1	-3
631.758	1	8
631.927	1	3
632.097	1	9
632.266	1	-9
632.436	1	4
632.606	1	-5
632.775	1	12
632.945	1	-4
633.114	1	0
633.284	1	11
633.453	1	17
633.623	1	17
633.793	1	-1
633.962	1	0
634.132	1	5
634.301	1	2
634.471	1	-9
634.640	1	2
634.810	1	7
634.979	1	6
635.149	1	8
635.319	1	1
635.488	1	-9
635.658	1	21
635.827	1	-7
635.997	1	4
636.166	1	6
636.336	1	9
636.505	1	7
636.675	1	11
636.845	1	6
637.014	1	7
637.184	1	4
637.353	1	6
637.523	1	2
637.692	1	11
637.862	1	4
638.031	1	0
638.201	1	0
638.370	1	7
638.540	1	2
638.710	1	7
638.879	1	8
639.049	1	-10
639.218	1	17
639.388	1	6
639.557	1	4
639.727	1	9
639.896	1	6
640.066	1	11
640.235	1	9
640.405	1	1
640.574	1	6
640.744	1	-8
640.914	1	6
641.083	1	-1
641.253	1	3
641.422	1	8
641.592	1	4
641.761	1	-5
641.931	1	-2
642.100	1	5
642.270	1	-1
642.439	1	3
642.609	1	9
642.778	1	-4
642.948	1	-2
643.117	1	1
643.287	1	-4
643.456	1	7
643.626	1	8
643.795	1	6
643.965	1	2
644.134	1	6
644.304	1	7
644.473	1	2
644.643	1	-3
644.812	1	5
644.982	1	3
645.151	1	1
645.321	1	-5
645.490	1	16
645.660	1	11
645.829	1	-2
645.999	1	5
646.168	1	-4
646.338	1	-1
646.507	1	3
646.677	1	1
646.846	1	-3
647.016	1	0
647.185	1	10
647.355	1	1
647.524	1	5
647.694	1	-6
647.863	1	8
648.033	1	11
648.202	1	4
648.372	1	-2
648.541	1	-5
648.711	1	5
648.880	1	-2
649.050	1	11
649.219	1	5
649.389	1	5
649.558	1	3
649.728	1	2
649.897	1	-4
650.067	1	8
650.236	1	-4
650.406	1	7
650.575	1	1
650.745	1	10
650.914	1	5
651.084	1	10
651.253	1	-5
651.423	1	9
651.592	1	-2
651.762	1	-5
651.931	1	8
652.101	1	10
652.270	1	-2
652.440	1	3
652.609	1	8
652.778	1	10
652.948	1	8
653.117	1	0
653.287	1	-4
653.456	1	-1
653.626	1	2
653.795	1	-4
653.965	1	-3
654.134	1	-3
654.304	1	13
654.473	1	-2
654.643	1	8
654.812	1	2
654.982	1	9
655.151	1	-3
655.320	1	10
655.490	1	-3
655.659	1	0
655.829	1	3
655.998	1	-14
656.168	1	6
656.337	1	4
656.507	1	-7
656.676	1	-6
656.846	1	4
657.015	1	1
657.184	1	-10
657.354	1	3
657.523	1	-1
657.693	1	-1
657.862	1	-1
658.032	1	14
658.201	1	3
658.371	1	-7
658.540	1	-6
658.709	1	9
658.879	1	4
659.048	1	1
659.218	1	-4
659.387	1	7
659.557	1	3
659.726	1	12
659.895	1	10
660.065	1	15
660.234	1	3
660.404	1	3
660.573	1	5
660.743	1	-5
660.912	1	-5
661.081	1	-18
661.251	1	8
661.420	1	8
661.590	1	9
661.759	1	10
661.929	1	9
662.098	1	6
662.267	1	3
662.437	1	11
662.606	1	2
662.776	1	0
662.945	1	6
663.115	1	3
663.284	1	2
663.453	1	13
663.623	1	18
663.792	1	3
663.962	1	-1
664.131	1	-6
664.300	1	-14
664.470	1	6
664.639	1	-3
664.809	1	6
664.978	1	3
665.148	1	2
665.317	1	5
665.486	1	5
665.656	1	10
665.825	1	14
665.995	1	4
666.164	1	8
666.333	1	2
666.503	1	6
666.672	1	14
666.842	1	-1
667.011	1	-1
667.180	1	4
667.350	1	0
667.519	1	11
667.689	1	4
667.858	1	-1
668.027	1	5
668.197	1	13
668.366	1	-5
668.536	1	2
668.705	1	7
668.874	1	0
669.044	1	9
669.213	1	10
669.382	1	8
669.552	1	-1
669.721	1	0
669.891	1	1
670.060	1	8
670.229	1	5
670.399	1	0
670.568	1	-3
670.738	1	3
670.907	1	2
671.076	1	-4
671.246	1	-15
671.415	1	12
671.584	1	3
671.754	1	9
671.923	1	13
672.093	1	-3
672.262	1	4
672.431	1	8
672.601	1	-1
672.770	1	-2
672.939	1	6
673.109	1	8
673.278	1	-1
673.448	1	12
673.617	1	-1
673.786	1	7
