325.333	1	5
325.504	1	19
325.675	1	3
325.846	1	0
326.017	1	0
326.188	1	4
326.359	1	3
326.531	1	20
326.702	1	13
326.873	1	-3
327.044	1	9
327.215	1	3
327.386	1	12
327.557	1	1
327.728	1	7
327.899	1	4
328.070	1	21
328.241	1	8
328.412	1	5
328.583	1	12
328.754	1	-6
328.926	1	12
329.097	1	-2
329.268	1	4
329.439	1	10
329.610	1	9
329.781	1	12
329.952	1	10
330.123	1	-2
330.294	1	9
330.465	1	9
330.636	1	14
330.807	1	3
330.978	1	6
331.149	1	11
331.320	1	16
331.492	1	3
331.663	1	12
331.834	1	3
332.005	1	13
332.176	1	11
332.347	1	13
332.518	1	21
332.689	1	6
332.860	1	6
333.031	1	13
333.202	1	3
333.373	1	8
333.544	1	-5
333.715	1	8
333.886	1	0
334.057	1	2
334.228	1	0
334.399	1	16
334.570	1	-1
334.741	1	5
334.912	1	9
335.084	1	-5
335.255	1	4
335.426	1	10
335.597	1	16
335.768	1	2
335.939	1	4
336.110	1	13
336.281	1	14
336.452	1	13
336.623	1	-4
336.794	1	6
336.965	1	6
337.136	1	19
337.307	1	10
337.478	1	7
337.649	1	-2
337.820	1	2
337.991	1	13
338.162	1	18
338.333	1	19
338.504	1	8
338.675	1	13
338.846	1	14
339.017	1	12
339.188	1	17
339.359	1	19
339.530	1	0
339.701	1	5
339.872	1	7
340.043	1	4
340.214	1	6
340.385	1	10
340.556	1	2
340.727	1	9
340.898	1	15
341.069	1	-2
341.240	1	3
341.411	1	18
341.582	1	21
341.753	1	3
341.924	1	13
342.095	1	22
342.266	1	-2
342.437	1	-3
342.608	1	8
342.779	1	18
342.950	1	1
343.121	1	17
343.292	1	14
343.463	1	9
343.634	1	8
343.805	1	9
343.976	1	3
344.147	1	10
344.318	1	12
344.489	1	11
344.660	1	18
344.831	1	9
345.002	1	26
345.173	1	21
345.344	1	2
345.515	1	10
345.686	1	1
345.857	1	-2
346.028	1	8
346.199	1	11
346.370	1	9
346.541	1	12
346.712	1	7
346.883	1	25
347.054	1	9
347.225	1	-5
347.396	1	4
347.567	1	2
347.738	1	13
347.909	1	14
348.080	1	18
348.251	1	11
348.422	1	9
348.593	1	19
348.764	1	4
348.935	1	12
349.106	1	8
349.277	1	3
349.448	1	6
349.619	1	20
349.790	1	20
349.961	1	12
350.132	1	22
350.303	1	14
350.474	1	13
350.645	1	10
350.816	1	10
350.987	1	20
351.157	1	14
351.328	1	5
351.499	1	15
351.670	1	9
351.841	1	8
352.012	1	14
352.183	1	6
352.354	1	18
352.525	1	9
352.696	1	8
352.867	1	14
353.038	1	8
353.209	1	19
353.380	1	15
353.551	1	10
353.722	1	16
353.893	1	11
354.064	1	8
354.235	1	12
354.406	1	11
354.576	1	15
354.747	1	16
354.918	1	23
355.089	1	12
355.260	1	10
355.431	1	12
355.602	1	14
355.773	1	8
355.944	1	11
356.115	1	12
356.286	1	17
356.457	1	6
356.628	1	8
356.799	1	12
356.970	1	18
357.141	1	8
357.311	1	10
357.482	1	9
357.653	1	24
357.824	1	22
357.995	1	18
358.166	1	11
358.337	1	3
358.508	1	1
358.679	1	18
358.850	1	7
359.021	1	11
359.192	1	19
359.363	1	3
359.533	1	6
359.704	1	17
359.875	1	11
360.046	1	1
360.217	1	6
360.388	1	7
360.559	1	10
360.730	1	9
360.901	1	11
361.072	1	12
361.243	1	19
361.414	1	14
361.584	1	25
361.755	1	14
361.926	1	6
362.097	1	6
362.268	1	19
362.439	1	13
362.610	1	11
362.781	1	22
362.952	1	6
363.123	1	13
363.293	1	12
363.464	1	15
363.635	1	27
363.806	1	13
363.977	1	11
364.148	1	17
364.319	1	-1
364.490	1	18
364.661	1	16
364.832	1	16
365.002	1	10
365.173	1	10
365.344	1	11
365.515	1	19
365.686	1	6
365.857	1	18
366.028	1	4
366.199	1	18
366.370	1	11
366.540	1	12
366.711	1	24
366.882	1	5
367.053	1	25
367.224	1	3
367.395	1	26
367.566	1	9
367.737	1	15
367.908	1	8
368.078	1	18
368.249	1	14
368.420	1	18
368.591	1	22
368.762	1	-5
368.933	1	20
369.104	1	5
369.274	1	18
369.445	1	27
369.616	1	23
369.787	1	10
369.958	1	15
370.129	1	13
370.300	1	22
370.471	1	17
370.641	1	11
370.812	1	20
370.983	1	16
371.154	1	20
371.325	1	25
371.496	1	10
371.667	1	20
371.837	1	14
372.008	1	21
372.179	1	21
372.350	1	24
372.521	1	16
372.692	1	11
372.863	1	7
373.033	1	26
373.204	1	22
373.375	1	11
373.546	1	21
373.717	1	23
373.888	1	16
374.059	1	18
374.229	1	17
374.400	1	16
374.571	1	19
374.742	1	17
374.913	1	26
375.084	1	24
375.254	1	17
375.425	1	10
375.596	1	11
375.767	1	8
375.938	1	3
376.109	1	9
376.279	1	8
376.450	1	15
376.621	1	22
376.792	1	26
376.963	1	14
377.134	1	18
377.304	1	19
377.475	1	15
377.646	1	8
377.817	1	8
377.988	1	10
378.159	1	26
378.329	1	29
378.500	1	11
378.671	1	24
378.842	1	16
379.013	1	22
379.184	1	24
379.354	1	22
379.525	1	14
379.696	1	24
379.867	1	20
380.038	1	10
380.209	1	20
380.379	1	21
380.550	1	15
380.721	1	23
380.892	1	30
381.063	1	19
381.233	1	32
381.404	1	11
381.575	1	17
381.746	1	24
381.917	1	16
382.087	1	20
382.258	1	31
382.429	1	32
382.600	1	21
382.771	1	18
382.941	1	20
383.112	1	11
383.283	1	33
383.454	1	18
383.625	1	19
383.795	1	20
383.966	1	28
384.137	1	21
384.308	1	9
384.479	1	22
384.649	1	22
384.820	1	15
384.991	1	12
385.162	1	23
385.333	1	11
385.503	1	28
385.674	1	26
385.845	1	18
386.016	1	14
386.187	1	16
386.357	1	15
386.528	1	13
386.699	1	17
386.870	1	23
387.041	1	18
387.211	1	15
387.382	1	17
387.553	1	25
387.724	1	14
387.894	1	24
388.065	1	30
388.236	1	27
388.407	1	23
388.578	1	21
388.748	1	25
388.919	1	28
389.090	1	32
389.261	1	19
389.431	1	26
389.602	1	8
389.773	1	3
389.944	1	25
390.114	1	23
390.285	1	27
390.456	1	15
390.627	1	30
390.798	1	23
390.968	1	25
391.139	1	21
391.310	1	27
391.481	1	22
391.651	1	34
391.822	1	21
391.993	1	20
392.164	1	9
392.334	1	23
392.505	1	23
392.676	1	26
392.847	1	39
393.017	1	21
393.188	1	17
393.359	1	28
393.530	1	24
393.700	1	31
393.871	1	18
394.042	1	29
394.213	1	33
394.383	1	28
394.554	1	23
394.725	1	22
394.896	1	28
395.066	1	19
395.237	1	12
395.408	1	18
395.579	1	21
395.749	1	28
395.920	1	21
396.091	1	29
396.262	1	17
396.432	1	18
396.603	1	18
396.774	1	28
396.945	1	23
397.115	1	17
397.286	1	26
397.457	1	28
397.627	1	18
397.798	1	17
397.969	1	32
398.140	1	23
398.310	1	33
398.481	1	25
398.652	1	19
398.823	1	27
398.993	1	44
399.164	1	18
399.335	1	37
399.505	1	36
399.676	1	32
399.847	1	34
400.018	1	21
400.188	1	33
400.359	1	47
400.530	1	18
400.700	1	17
400.871	1	41
401.042	1	38
401.213	1	27
401.383	1	34
401.554	1	39
401.725	1	29
401.895	1	16
402.066	1	32
402.237	1	39
402.408	1	30
402.578	1	23
402.749	1	30
402.920	1	25
403.090	1	26
403.261	1	20
403.432	1	31
403.603	1	11
403.773	1	26
403.944	1	32
404.115	1	18
404.285	1	43
404.456	1	33
404.627	1	24
404.797	1	31
404.968	1	28
405.139	1	24
405.310	1	23
405.480	1	34
405.651	1	38
405.822	1	35
405.992	1	37
406.163	1	32
406.334	1	30
406.504	1	21
406.675	1	28
406.846	1	20
407.016	1	19
407.187	1	37
407.358	1	19
407.528	1	30
407.699	1	29
407.870	1	44
408.041	1	25
408.211	1	31
408.382	1	29
408.553	1	21
408.723	1	20
408.894	1	34
409.065	1	32
409.235	1	25
409.406	1	28
409.577	1	25
409.747	1	32
409.918	1	34
410.089	1	21
410.259	1	25
410.430	1	29
410.601	1	28
410.771	1	41
410.942	1	13
411.113	1	31
411.283	1	29
411.454	1	32
411.625	1	30
411.795	1	18
411.966	1	36
412.137	1	31
412.307	1	26
412.478	1	33
412.649	1	26
412.819	1	14
412.990	1	48
413.161	1	26
413.331	1	35
413.502	1	34
413.672	1	25
413.843	1	40
414.014	1	51
414.184	1	30
414.355	1	33
414.526	1	35
414.696	1	36
414.867	1	31
415.038	1	30
415.208	1	29
415.379	1	40
415.550	1	30
415.720	1	30
415.891	1	36
416.062	1	30
416.232	1	41
416.403	1	25
416.573	1	29
416.744	1	33
416.915	1	23
417.085	1	27
417.256	1	28
417.427	1	26
417.597	1	34
417.768	1	26
417.939	1	34
418.109	1	24
418.280	1	24
418.450	1	38
418.621	1	32
418.792	1	15
418.962	1	34
419.133	1	40
419.304	1	23
419.474	1	26
419.645	1	29
419.815	1	19
419.986	1	32
420.157	1	42
420.327	1	22
420.498	1	22
420.669	1	36
420.839	1	34
421.010	1	20
421.180	1	22
421.351	1	36
421.522	1	31
421.692	1	34
421.863	1	29
422.033	1	40
422.204	1	41
422.375	1	30
422.545	1	32
422.716	1	32
422.886	1	43
423.057	1	28
423.228	1	30
423.398	1	36
423.569	1	22
423.740	1	19
423.910	1	40
424.081	1	24
424.251	1	26
424.422	1	40
424.593	1	26
424.763	1	28
424.934	1	35
425.104	1	16
425.275	1	36
425.445	1	42
425.616	1	27
425.787	1	33
425.957	1	36
426.128	1	26
426.298	1	34
426.469	1	29
426.640	1	33
426.810	1	31
426.981	1	27
427.151	1	34
427.322	1	11
427.493	1	19
427.663	1	28
427.834	1	33
428.004	1	29
428.175	1	27
428.345	1	42
428.516	1	29
428.687	1	19
428.857	1	25
429.028	1	27
429.198	1	31
429.369	1	24
429.540	1	28
429.710	1	38
429.881	1	29
430.051	1	34
430.222	1	38
430.392	1	26
430.563	1	35
430.734	1	32
430.904	1	19
431.075	1	22
431.245	1	30
431.416	1	11
431.586	1	26
431.757	1	29
431.927	1	29
432.098	1	35
432.269	1	37
432.439	1	44
432.610	1	34
432.780	1	17
432.951	1	30
433.121	1	36
433.292	1	33
433.462	1	30
433.633	1	43
433.804	1	21
433.974	1	29
434.145	1	31
434.315	1	36
434.486	1	23
434.656	1	28
434.827	1	20
434.997	1	45
435.168	1	34
435.339	1	29
435.509	1	35
435.680	1	33
435.850	1	34
436.021	1	32
436.191	1	43
436.362	1	39
436.532	1	23
436.703	1	39
436.873	1	26
437.044	1	32
437.214	1	33
437.385	1	28
437.556	1	37
437.726	1	27
437.897	1	19
438.067	1	34
438.238	1	37
438.408	1	25
438.579	1	34
438.749	1	26
438.920	1	23
439.090	1	33
439.261	1	23
439.431	1	32
439.602	1	25
439.772	1	26
439.943	1	37
440.113	1	31
440.284	1	30
440.455	1	40
440.625	1	30
440.796	1	26
440.966	1	28
441.137	1	33
441.307	1	35
441.478	1	36
441.648	1	36
441.819	1	26
441.989	1	26
442.160	1	39
442.330	1	30
442.501	1	32
442.671	1	19
442.842	1	29
443.012	1	29
443.183	1	33
443.353	1	39
443.524	1	29
443.694	1	38
443.865	1	35
444.035	1	19
444.206	1	32
444.376	1	38
444.547	1	24
444.717	1	34
444.888	1	30
445.058	1	32
445.229	1	22
445.399	1	24
445.570	1	28
445.740	1	30
445.911	1	28
446.081	1	22
446.252	1	16
446.422	1	32
446.593	1	26
446.763	1	37
446.934	1	35
447.104	1	20
447.275	1	37
447.445	1	16
447.616	1	30
447.786	1	25
447.957	1	19
448.127	1	47
448.298	1	27
448.468	1	29
448.639	1	26
448.809	1	32
448.979	1	30
449.150	1	31
449.320	1	31
449.491	1	30
449.661	1	31
449.832	1	22
450.002	1	28
450.173	1	28
450.343	1	31
450.514	1	18
450.684	1	28
450.855	1	34
451.025	1	20
451.196	1	31
451.366	1	33
451.537	1	27
451.707	1	25
451.878	1	25
452.048	1	35
452.218	1	18
452.389	1	24
452.559	1	32
452.730	1	29
452.900	1	27
453.071	1	36
453.241	1	34
453.412	1	19
453.582	1	24
453.753	1	26
453.923	1	33
454.093	1	42
454.264	1	20
454.434	1	35
454.605	1	40
454.775	1	24
454.946	1	24
455.116	1	31
455.287	1	23
455.457	1	21
455.628	1	35
455.798	1	29
455.968	1	26
456.139	1	19
456.309	1	41
456.480	1	25
456.650	1	38
456.821	1	43
456.991	1	19
457.161	1	38
457.332	1	10
457.502	1	33
457.673	1	31
457.843	1	26
458.014	1	21
458.184	1	18
458.355	1	23
458.525	1	26
458.695	1	26
458.866	1	37
459.036	1	20
459.207	1	25
459.377	1	24
459.548	1	7
459.718	1	19
459.888	1	36
460.059	1	29
460.229	1	16
460.400	1	27
460.570	1	22
460.740	1	26
460.911	1	26
461.081	1	28
461.252	1	24
461.422	1	20
461.593	1	22
461.763	1	28
461.933	1	28
462.104	1	31
462.274	1	19
462.445	1	21
462.615	1	21
462.785	1	29
462.956	1	26
463.126	1	15
463.297	1	23
463.467	1	24
463.638	1	27
463.808	1	28
463.978	1	32
464.149	1	13
464.319	1	31
464.490	1	22
464.660	1	18
464.830	1	21
465.001	1	27
465.171	1	25
465.342	1	23
465.512	1	16
465.682	1	20
465.853	1	8
466.023	1	23
466.194	1	19
466.364	1	23
466.534	1	18
466.705	1	8
466.875	1	26
467.045	1	22
467.216	1	26
467.386	1	29
467.557	1	11
467.727	1	27
467.897	1	26
468.068	1	4
468.238	1	35
468.409	1	8
468.579	1	20
468.749	1	28
468.920	1	18
469.090	1	22
469.260	1	34
469.431	1	22
469.601	1	23
469.772	1	15
469.942	1	20
470.112	1	20
470.283	1	27
470.453	1	33
470.623	1	19
470.794	1	18
470.964	1	26
471.135	1	24
471.305	1	26
471.475	1	13
471.646	1	14
471.816	1	26
471.986	1	33
472.157	1	27
472.327	1	23
472.497	1	23
472.668	1	12
472.838	1	17
473.009	1	27
473.179	1	27
473.349	1	25
473.520	1	22
473.690	1	29
473.860	1	21
474.031	1	24
474.201	1	21
474.371	1	24
474.542	1	25
474.712	1	20
474.882	1	15
475.053	1	25
475.223	1	12
475.394	1	4
475.564	1	15
475.734	1	19
475.905	1	25
476.075	1	24
476.245	1	21
476.416	1	11
476.586	1	17
476.756	1	21
476.927	1	7
477.097	1	16
477.267	1	13
477.438	1	25
477.608	1	24
477.778	1	20
477.949	1	21
478.119	1	18
478.289	1	16
478.460	1	6
478.630	1	31
478.800	1	27
478.971	1	16
479.141	1	19
479.311	1	19
479.482	1	25
479.652	1	25
479.822	1	23
479.993	1	9
480.163	1	24
480.333	1	19
480.504	1	13
480.674	1	16
480.844	1	16
481.015	1	14
481.185	1	16
481.355	1	22
481.525	1	24
481.696	1	20
481.866	1	12
482.036	1	26
482.207	1	24
482.377	1	26
482.547	1	11
482.718	1	19
482.888	1	19
483.058	1	11
483.229	1	20
483.399	1	29
483.569	1	25
483.740	1	18
483.910	1	9
484.080	1	8
484.250	1	8
484.421	1	12
484.591	1	22
484.761	1	18
484.932	1	12
485.102	1	19
485.272	1	7
485.443	1	11
485.613	1	22
485.783	1	25
485.953	1	24
486.124	1	23
486.294	1	12
486.464	1	12
486.635	1	24
486.805	1	17
486.975	1	15
487.146	1	6
487.316	1	15
487.486	1	19
487.656	1	14
487.827	1	18
487.997	1	9
488.167	1	13
488.338	1	16
488.508	1	17
488.678	1	16
488.848	1	10
489.019	1	16
489.189	1	9
489.359	1	13
489.529	1	16
489.700	1	23
489.870	1	9
490.040	1	13
490.211	1	14
490.381	1	7
490.551	1	13
490.721	1	15
490.892	1	7
491.062	1	12
491.232	1	4
491.402	1	15
491.573	1	12
491.743	1	13
491.913	1	4
492.084	1	27
492.254	1	4
492.424	1	18
492.594	1	21
492.765	1	13
492.935	1	8
493.105	1	19
493.275	1	17
493.446	1	17
493.616	1	21
493.786	1	15
493.956	1	5
494.127	1	28
494.297	1	5
494.467	1	21
494.637	1	24
494.808	1	23
494.978	1	17
495.148	1	14
495.318	1	18
495.489	1	3
495.659	1	17
495.829	1	5
495.999	1	16
496.170	1	5
496.340	1	18
496.510	1	17
496.680	1	9
496.851	1	7
497.021	1	7
497.191	1	9
497.361	1	6
497.532	1	11
497.702	1	14
497.872	1	26
498.042	1	22
498.213	1	18
498.383	1	18
498.553	1	10
498.723	1	17
498.894	1	6
499.064	1	9
499.234	1	5
499.404	1	8
499.574	1	10
499.745	1	10
499.915	1	16
500.085	1	5
500.255	1	7
500.426	1	20
500.596	1	8
500.766	1	0
500.936	1	21
501.106	1	12
501.277	1	14
501.447	1	15
501.617	1	12
501.787	1	16
501.958	1	55
502.128	1	390
502.298	1	357
502.468	1	51
502.638	1	15
502.809	1	18
502.979	1	24
503.149	1	4
503.319	1	10
503.489	1	3
503.660	1	2
503.830	1	17
504.000	1	8
504.170	1	4
504.340	1	3
504.511	1	18
504.681	1	8
504.851	1	16
505.021	1	23
505.192	1	10
505.362	1	11
505.532	1	18
505.702	1	15
505.872	1	7
506.043	1	23
506.213	1	22
506.383	1	6
506.553	1	7
506.723	1	13
506.893	1	-1
507.064	1	2
507.234	1	6
507.404	1	15
507.574	1	8
507.744	1	26
507.915	1	14
508.085	1	16
508.255	1	13
508.425	1	4
508.595	1	3
508.766	1	8
508.936	1	6
509.106	1	17
509.276	1	6
509.446	1	5
509.616	1	12
509.787	1	21
509.957	1	7
510.127	1	3
510.297	1	10
510.467	1	2
510.638	1	12
510.808	1	5
510.978	1	4
511.148	1	20
511.318	1	9
511.488	1	12
511.659	1	13
511.829	1	11
511.999	1	11
512.169	1	3
512.339	1	14
512.509	1	7
512.680	1	11
512.850	1	10
513.020	1	1
513.190	1	1
513.360	1	20
513.530	1	13
513.700	1	16
513.871	1	13
514.041	1	7
514.211	1	15
514.381	1	10
514.551	1	4
514.721	1	10
514.892	1	6
515.062	1	16
515.232	1	13
515.402	1	6
515.572	1	-1
515.742	1	12
515.912	1	14
516.083	1	11
516.253	1	17
516.423	1	5
516.593	1	13
516.763	1	2
516.933	1	0
517.104	1	1
517.274	1	0
517.444	1	9
517.614	1	6
517.784	1	12
517.954	1	12
518.124	1	7
518.294	1	11
518.465	1	11
518.635	1	4
518.805	1	29
518.975	1	9
519.145	1	12
519.315	1	-3
519.485	1	-4
519.656	1	13
519.826	1	13
519.996	1	1
520.166	1	14
520.336	1	14
520.506	1	0
520.676	1	7
520.846	1	8
521.017	1	7
521.187	1	15
521.357	1	2
521.527	1	9
521.697	1	8
521.867	1	2
522.037	1	3
522.207	1	2
522.377	1	5
522.548	1	10
522.718	1	8
522.888	1	8
523.058	1	9
523.228	1	11
523.398	1	3
523.568	1	8
523.738	1	13
523.909	1	21
524.079	1	8
524.249	1	3
524.419	1	7
524.589	1	-1
524.759	1	13
524.929	1	-4
525.099	1	5
525.269	1	17
525.439	1	6
525.610	1	7
525.780	1	7
525.950	1	10
526.120	1	9
526.290	1	1
526.460	1	6
526.630	1	18
526.800	1	18
526.970	1	6
527.140	1	21
527.311	1	6
527.481	1	15
527.651	1	5
527.821	1	3
527.991	1	1
528.161	1	12
528.331	1	16
528.501	1	10
528.671	1	-1
528.841	1	10
529.011	1	4
529.181	1	9
529.352	1	-1
529.522	1	-1
529.692	1	12
529.862	1	14
530.032	1	13
530.202	1	15
530.372	1	2
530.542	1	2
530.712	1	3
530.882	1	3
531.052	1	16
531.222	1	10
531.392	1	5
531.563	1	6
531.733	1	10
531.903	1	5
532.073	1	4
532.243	1	6
532.413	1	14
532.583	1	-4
532.753	1	6
532.923	1	7
533.093	1	13
533.263	1	-11
533.433	1	18
533.603	1	7
533.773	1	4
533.943	1	5
534.113	1	8
534.284	1	3
534.454	1	7
534.624	1	14
534.794	1	-6
534.964	1	6
535.134	1	10
535.304	1	9
535.474	1	0
535.644	1	10
535.814	1	15
535.984	1	4
536.154	1	2
536.324	1	9
536.494	1	13
536.664	1	11
536.834	1	1
537.004	1	13
537.174	1	0
537.344	1	12
537.514	1	6
537.685	1	5
537.855	1	2
538.025	1	4
538.195	1	5
538.365	1	2
538.535	1	5
538.705	1	9
538.875	1	15
539.045	1	11
539.215	1	1
539.385	1	10
539.555	1	12
539.725	1	2
539.895	1	19
540.065	1	6
540.235	1	9
540.405	1	5
540.575	1	3
540.745	1	3
540.915	1	3
541.085	1	-4
541.255	1	2
541.425	1	6
541.595	1	11
541.765	1	17
541.935	1	-5
542.105	1	0
542.275	1	6
542.445	1	-2
542.615	1	14
542.785	1	5
542.955	1	3
543.125	1	0
543.295	1	1
543.465	1	11
543.635	1	7
543.805	1	15
543.975	1	2
544.145	1	-2
544.315	1	6
544.485	1	0
544.655	1	13
544.825	1	7
544.995	1	7
545.165	1	-4
545.335	1	3
545.505	1	18
545.675	1	-11
545.845	1	10
546.015	1	13
546.185	1	8
546.355	1	3
546.525	1	-1
546.695	1	8
546.865	1	16
547.035	1	13
547.205	1	9
547.375	1	7
547.545	1	10
547.715	1	9
547.885	1	17
548.055	1	-2
548.225	1	7
548.395	1	-2
548.565	1	6
548.735	1	8
548.905	1	-2
549.075	1	15
549.245	1	13
549.415	1	0
549.585	1	13
549.755	1	16
549.925	1	9
550.095	1	7
550.265	1	0
550.435	1	-7
550.605	1	0
550.775	1	6
550.945	1	15
551.115	1	10
551.285	1	2
551.455	1	6
551.625	1	-3
551.795	1	-2
551.965	1	9
552.135	1	7
552.305	1	-2
552.475	1	2
552.645	1	1
552.815	1	7
552.985	1	5
553.155	1	4
553.325	1	-1
553.495	1	3
553.665	1	14
553.835	1	2
554.004	1	1
554.174	1	0
554.344	1	2
554.514	1	7
554.684	1	1
554.854	1	6
555.024	1	4
555.194	1	17
555.364	1	10
555.534	1	4
555.704	1	17
555.874	1	-13
556.044	1	14
556.214	1	9
556.384	1	6
556.554	1	8
556.724	1	3
556.894	1	3
557.064	1	4
557.234	1	5
557.404	1	1
557.573	1	0
557.743	1	3
557.913	1	-10
558.083	1	16
558.253	1	-5
558.423	1	1
558.593	1	13
558.763	1	9
558.933	1	8
559.103	1	12
559.273	1	-2
559.443	1	10
559.613	1	2
559.783	1	13
559.953	1	11
560.122	1	2
560.292	1	4
560.462	1	3
560.632	1	7
560.802	1	1
560.972	1	12
561.142	1	3
561.312	1	10
561.482	1	9
561.652	1	4
561.822	1	-10
561.992	1	-5
562.162	1	9
562.331	1	13
562.501	1	-12
562.671	1	6
562.841	1	6
563.011	1	-1
563.181	1	20
563.351	1	3
563.521	1	15
563.691	1	13
563.861	1	-1
564.031	1	-4
564.201	1	9
564.370	1	1
564.540	1	-3
564.710	1	14
564.880	1	7
565.050	1	10
565.220	1	2
565.390	1	3
565.560	1	5
565.730	1	-6
565.900	1	-2
566.069	1	6
566.239	1	3
566.409	1	12
566.579	1	8
566.749	1	9
566.919	1	5
567.089	1	13
567.259	1	13
567.429	1	4
567.599	1	4
567.768	1	5
567.938	1	0
568.108	1	3
568.278	1	-5
568.448	1	-1
568.618	1	7
568.788	1	-9
568.958	1	-5
569.128	1	-10
569.297	1	0
569.467	1	5
569.637	1	0
569.807	1	6
569.977	1	1
570.147	1	5
570.317	1	5
570.487	1	1
570.656	1	9
570.826	1	2
570.996	1	3
571.166	1	2
571.336	1	-1
571.506	1	-3
571.676	1	3
571.846	1	-3
572.015	1	15
572.185	1	5
572.355	1	8
572.525	1	2
572.695	1	13
572.865	1	6
573.035	1	5
573.205	1	-3
573.374	1	18
573.544	1	-2
573.714	1	11
573.884	1	-1
574.054	1	0
574.224	1	-3
574.394	1	4
574.563	1	12
574.733	1	19
574.903	1	-5
575.073	1	3
575.243	1	7
575.413	1	4
575.583	1	8
575.752	1	2
575.922	1	3
576.092	1	-5
576.262	1	14
576.432	1	14
576.602	1	7
576.772	1	-14
576.941	1	9
577.111	1	1
577.281	1	16
577.451	1	1
577.621	1	7
577.791	1	7
577.960	1	2
578.130	1	7
578.300	1	10
578.470	1	12
578.640	1	8
578.810	1	1
578.979	1	2
579.149	1	0
579.319	1	11
579.489	1	5
579.659	1	-3
579.829	1	5
579.998	1	6
580.168	1	5
580.338	1	7
580.508	1	5
580.678	1	14
580.848	1	-5
581.017	1	6
581.187	1	11
581.357	1	2
581.527	1	-6
581.697	1	-8
581.867	1	13
582.036	1	11
582.206	1	7
582.376	1	9
582.546	1	12
582.716	1	4
582.885	1	4
583.055	1	0
583.225	1	-10
583.395	1	-1
583.565	1	2
583.735	1	-6
583.904	1	3
584.074	1	10
584.244	1	3
584.414	1	5
584.584	1	7
584.753	1	2
584.923	1	8
585.093	1	-9
585.263	1	2
585.433	1	19
585.602	1	6
585.772	1	8
585.942	1	10
586.112	1	0
586.282	1	8
586.451	1	2
586.621	1	-1
586.791	1	0
586.961	1	0
587.131	1	3
587.300	1	16
587.470	1	-3
587.640	1	-1
587.810	1	-11
587.980	1	2
588.149	1	4
588.319	1	0
588.489	1	-1
588.659	1	7
588.829	1	7
588.998	1	1
589.168	1	0
589.338	1	4
589.508	1	10
589.677	1	-4
589.847	1	3
590.017	1	8
590.187	1	3
590.357	1	2
590.526	1	12
590.696	1	10
590.866	1	0
591.036	1	-7
591.205	1	1
591.375	1	3
591.545	1	9
591.715	1	0
591.885	1	8
592.054	1	1
592.224	1	10
592.394	1	3
592.564	1	2
592.733	1	5
592.903	1	-2
593.073	1	-9
593.243	1	6
593.412	1	-4
593.582	1	8
593.752	1	8
593.922	1	23
594.091	1	-8
594.261	1	-6
594.431	1	1
594.601	1	9
594.771	1	23
594.940	1	4
595.110	1	5
595.280	1	5
595.450	1	6
595.619	1	7
595.789	1	8
595.959	1	5
596.129	1	-3
596.298	1	5
596.468	1	7
596.638	1	6
596.808	1	-12
596.977	1	1
597.147	1	3
597.317	1	5
597.487	1	5
597.656	1	9
597.826	1	4
597.996	1	1
598.166	1	15
598.335	1	0
598.505	1	1
598.675	1	-1
598.844	1	5
599.014	1	4
599.184	1	11
599.354	1	4
599.523	1	2
599.693	1	5
599.863	1	8
600.033	1	7
600.202	1	12
600.372	1	4
600.542	1	-1
600.712	1	9
600.881	1	7
601.051	1	13
601.221	1	10
601.390	1	3
601.560	1	3
601.730	1	6
601.900	1	15
602.069	1	-10
602.239	1	14
602.409	1	3
602.578	1	9
602.748	1	-2
602.918	1	6
603.088	1	6
603.257	1	5
603.427	1	16
603.597	1	3
603.767	1	8
603.936	1	12
604.106	1	11
604.276	1	6
604.445	1	2
604.615	1	4
604.785	1	4
604.954	1	-2
605.124	1	-2
605.294	1	6
605.464	1	-3
605.633	1	17
605.803	1	11
605.973	1	4
606.142	1	5
606.312	1	11
606.482	1	8
606.652	1	15
606.821	1	7
606.991	1	1
607.161	1	9
607.330	1	12
607.500	1	7
607.670	1	8
607.839	1	-2
608.009	1	4
608.179	1	3
608.348	1	7
608.518	1	-2
608.688	1	4
608.858	1	-3
609.027	1	4
609.197	1	18
609.367	1	-1
609.536	1	19
609.706	1	8
609.876	1	4
610.045	1	6
610.215	1	13
610.385	1	7
610.554	1	7
610.724	1	10
610.894	1	8
611.063	1	7
611.233	1	-3
611.403	1	11
611.572	1	0
611.742	1	3
611.912	1	7
612.081	1	6
612.251	1	20
612.421	1	-4
612.590	1	-3
612.760	1	12
612.930	1	-1
613.099	1	9
613.269	1	-3
613.439	1	4
613.608	1	4
613.778	1	-4
613.948	1	17
614.117	1	9
614.287	1	-4
614.457	1	-1
614.626	1	9
614.796	1	14
614.966	1	9
615.135	1	4
615.305	1	15
615.475	1	-4
615.644	1	4
615.814	1	0
615.984	1	13
616.153	1	6
616.323	1	4
616.493	1	16
616.662	1	2
616.832	1	16
617.002	1	-2
617.171	1	7
617.341	1	1
617.511	1	-4
617.680	1	2
617.850	1	2
618.019	1	4
618.189	1	4
618.359	1	5
618.528	1	5
618.698	1	8
618.868	1	3
619.037	1	5
619.207	1	10
619.377	1	11
619.546	1	-4
619.716	1	3
619.885	1	6
620.055	1	21
620.225	1	8
620.394	1	10
620.564	1	-7
620.734	1	7
620.903	1	7
621.073	1	7
621.242	1	8
621.412	1	10
621.582	1	1
621.751	1	9
621.921	1	14
622.091	1	1
622.260	1	-2
622.430	1	4
622.599	1	12
622.769	1	4
622.939	1	5
623.108	1	13
623.278	1	12
623.448	1	8
623.617	1	1
623.787	1	21
623.956	1	10
624.126	1	-1
624.296	1	15
624.465	1	1
624.635	1	12
624.804	1	-4
624.974	1	2
625.144	1	18
625.313	1	9
625.483	1	14
625.652	1	17
625.822	1	10
625.992	1	11
626.161	1	-3
626.331	1	13
626.501	1	3
626.670	1	5
626.840	1	10
627.009	1	-3
627.179	1	-3
627.348	1	15
627.518	1	11
627.688	1	8
627.857	1	7
628.027	1	-4
628.196	1	-2
628.366	1	12
628.536	1	12
628.705	1	1
628.875	1	3
629.044	1	9
629.214	1	6
629.384	1	6
629.553	1	7
629.723	1	4
629.892	1	-5
630.062	1	-1
630.232	1	11
630.401	1	6
630.571	1	15
630.740	1	0
630.910	1	6
631.079	1	4
631.249	1	8
631.419	1	9
631.588	1	4
631.758	1	10
631.927	1	5
632.097	1	12
632.266	1	-3
632.436	1	12
632.606	1	-1
632.775	1	5
632.945	1	4
633.114	1	7
633.284	1	3
633.453	1	17
633.623	1	10
633.793	1	7
633.962	1	-3
634.132	1	0
634.301	1	2
634.471	1	-1
634.640	1	10
634.810	1	8
634.979	1	8
635.149	1	2
635.319	1	7
635.488	1	8
635.658	1	11
635.827	1	-1
635.997	1	-1
636.166	1	-2
636.336	1	7
636.505	1	11
636.675	1	5
636.845	1	12
637.014	1	14
637.184	1	17
637.353	1	0
637.523	1	5
637.692	1	2
637.862	1	1
638.031	1	0
638.201	1	9
638.370	1	12
638.540	1	6
638.710	1	9
638.879	1	28
639.049	1	7
639.218	1	19
639.388	1	-1
639.557	1	12
639.727	1	16
639.896	1	9
640.066	1	9
640.235	1	-5
640.405	1	16
640.574	1	8
640.744	1	1
640.914	1	11
641.083	1	7
641.253	1	4
641.422	1	2
641.592	1	1
641.761	1	10
641.931	1	4
642.100	1	17
642.270	1	-1
642.439	1	8
642.609	1	14
642.778	1	10
642.948	1	4
643.117	1	20
643.287	1	8
643.456	1	6
643.626	1	13
643.795	1	16
643.965	1	6
644.134	1	-1
644.304	1	9
644.473	1	8
644.643	1	9
644.812	1	11
644.982	1	9
645.151	1	11
645.321	1	6
645.490	1	16
645.660	1	4
645.829	1	9
645.999	1	10
646.168	1	-1
646.338	1	8
646.507	1	6
646.677	1	4
646.846	1	10
647.016	1	4
647.185	1	12
647.355	1	4
647.524	1	3
647.694	1	-1
647.863	1	8
648.033	1	6
648.202	1	6
648.372	1	4
648.541	1	6
648.711	1	11
648.880	1	0
649.050	1	10
649.219	1	7
649.389	1	7
649.558	1	2
649.728	1	7
649.897	1	-7
650.067	1	12
650.236	1	2
650.406	1	6
650.575	1	1
650.745	1	10
650.914	1	2
651.084	1	14
651.253	1	4
651.423	1	4
651.592	1	1
651.762	1	8
651.931	1	6
652.101	1	11
652.270	1	7
652.440	1	9
652.609	1	12
652.778	1	5
652.948	1	5
653.117	1	12
653.287	1	6
653.456	1	12
653.626	1	11
653.795	1	1
653.965	1	-2
654.134	1	1
654.304	1	9
654.473	1	-4
654.643	1	5
654.812	1	7
654.982	1	-1
655.151	1	17
655.320	1	12
655.490	1	11
655.659	1	-2
655.829	1	-2
655.998	1	-4
656.168	1	2
656.337	1	0
656.507	1	6
656.676	1	-1
656.846	1	9
657.015	1	3
657.184	1	7
657.354	1	7
657.523	1	6
657.693	1	3
657.862	1	-2
658.032	1	13
658.201	1	10
658.371	1	-5
658.540	1	5
658.709	1	6
658.879	1	14
659.048	1	4
659.218	1	-2
659.387	1	8
659.557	1	10
659.726	1	1
659.895	1	1
660.065	1	17
660.234	1	4
660.404	1	15
660.573	1	5
660.743	1	8
660.912	1	-1
661.081	1	-7
661.251	1	6
661.420	1	20
661.590	1	4
661.759	1	6
661.929	1	10
662.098	1	7
662.267	1	5
662.437	1	14
662.606	1	10
662.776	1	4
662.945	1	2
663.115	1	15
663.284	1	4
663.453	1	11
663.623	1	16
663.792	1	0
663.962	1	4
664.131	1	8
664.300	1	-4
664.470	1	-1
664.639	1	11
664.809	1	-1
664.978	1	7
665.148	1	2
665.317	1	-6
665.486	1	9
665.656	1	9
665.825	1	7
665.995	1	2
666.164	1	9
666.333	1	10
666.503	1	6
666.672	1	22
666.842	1	7
667.011	1	2
667.180	1	8
667.350	1	8
667.519	1	5
667.689	1	8
667.858	1	8
668.027	1	8
668.197	1	15
668.366	1	1
668.536	1	7
668.705	1	5
668.874	1	9
669.044	1	2
669.213	1	8
669.382	1	11
669.552	1	17
669.721	1	8
669.891	1	4
670.060	1	1
670.229	1	-2
670.399	1	1
670.568	1	11
670.738	1	1
670.907	1	2
671.076	1	2
671.246	1	4
671.415	1	12
671.584	1	1
671.754	1	5
671.923	1	12
672.093	1	1
672.262	1	2
672.431	1	6
672.601	1	10
672.770	1	8
672.939	1	-1
673.109	1	3
673.278	1	4
673.448	1	17
673.617	1	12
673.786	1	9
