325.333	1	5
325.504	1	4
325.675	1	9
325.846	1	-4
326.017	1	-1
326.188	1	10
326.359	1	0
326.531	1	7
326.702	1	7
326.873	1	-2
327.044	1	6
327.215	1	-9
327.386	1	2
327.557	1	7
327.728	1	2
327.899	1	1
328.070	1	7
328.241	1	6
328.412	1	-9
328.583	1	4
328.754	1	-3
328.926	1	13
329.097	1	-1
329.268	1	-3
329.439	1	-1
329.610	1	10
329.781	1	1
329.952	1	3
330.123	1	3
330.294	1	-7
330.465	1	4
330.636	1	5
330.807	1	5
330.978	1	-4
331.149	1	4
331.320	1	2
331.492	1	0
331.663	1	-7
331.834	1	-6
332.005	1	5
332.176	1	9
332.347	1	9
332.518	1	8
332.689	1	1
332.860	1	-3
333.031	1	4
333.202	1	4
333.373	1	0
333.544	1	3
333.715	1	3
333.886	1	-3
334.057	1	-4
334.228	1	-7
334.399	1	13
334.570	1	-8
334.741	1	5
334.912	1	-6
335.084	1	1
335.255	1	5
335.426	1	8
335.597	1	3
335.768	1	5
335.939	1	0
336.110	1	8
336.281	1	5
336.452	1	6
336.623	1	-4
336.794	1	4
336.965	1	-1
337.136	1	5
337.307	1	0
337.478	1	0
337.649	1	-6
337.820	1	-3
337.991	1	5
338.162	1	6
338.333	1	0
338.504	1	3
338.675	1	13
338.846	1	0
339.017	1	13
339.188	1	13
339.359	1	15
339.530	1	0
339.701	1	0
339.872	1	-2
340.043	1	1
340.214	1	-2
340.385	1	16
340.556	1	-2
340.727	1	7
340.898	1	7
341.069	1	-10
341.240	1	-10
341.411	1	15
341.582	1	1
341.753	1	0
341.924	1	11
342.095	1	8
342.266	1	0
342.437	1	-10
342.608	1	6
342.779	1	10
342.950	1	-3
343.121	1	11
343.292	1	-2
343.463	1	7
343.634	1	5
343.805	1	-2
343.976	1	-2
344.147	1	-7
344.318	1	0
344.489	1	9
344.660	1	5
344.831	1	3
345.002	1	2
345.173	1	1
345.344	1	-3
345.515	1	7
345.686	1	-8
345.857	1	7
346.028	1	-12
346.199	1	8
346.370	1	1
346.541	1	5
346.712	1	-1
346.883	1	12
347.054	1	-2
347.225	1	-11
347.396	1	-3
347.567	1	5
347.738	1	-5
347.909	1	4
348.080	1	13
348.251	1	8
348.422	1	0
348.593	1	9
348.764	1	-3
348.935	1	4
349.106	1	11
349.277	1	9
349.448	1	1
349.619	1	8
349.790	1	10
349.961	1	7
350.132	1	4
350.303	1	5
350.474	1	3
350.645	1	14
350.816	1	2
350.987	1	13
351.157	1	10
351.328	1	-7
351.499	1	3
351.670	1	5
351.841	1	-7
352.012	1	11
352.183	1	9
352.354	1	-2
352.525	1	6
352.696	1	4
352.867	1	10
353.038	1	-2
353.209	1	5
353.380	1	5
353.551	1	-1
353.722	1	9
353.893	1	3
354.064	1	0
354.235	1	12
354.406	1	6
354.576	1	-6
354.747	1	12
354.918	1	18
355.089	1	4
355.260	1	4
355.431	1	10
355.602	1	12
355.773	1	-2
355.944	1	-2
356.115	1	-1
356.286	1	4
356.457	1	12
356.628	1	-5
356.799	1	6
356.970	1	3
357.141	1	21
357.311	1	1
357.482	1	1
357.653	1	4
357.824	1	6
357.995	1	7
358.166	1	3
358.337	1	1
358.508	1	-9
358.679	1	6
358.850	1	-1
359.021	1	8
359.192	1	-6
359.363	1	-11
359.533	1	8
359.704	1	4
359.875	1	-1
360.046	1	-7
360.217	1	-4
360.388	1	-6
360.559	1	8
360.730	1	-2
360.901	1	4
361.072	1	1
361.243	1	-2
361.414	1	-1
361.584	1	15
361.755	1	3
361.926	1	-3
362.097	1	1
362.268	1	5
362.439	1	12
362.610	1	0
362.781	1	20
362.952	1	6
363.123	1	-2
363.293	1	-4
363.464	1	3
363.635	1	15
363.806	1	17
363.977	1	-3
364.148	1	3
364.319	1	8
364.490	1	6
364.661	1	4
364.832	1	6
365.002	1	2
365.173	1	-6
365.344	1	4
365.515	1	11
365.686	1	3
365.857	1	3
366.028	1	5
366.199	1	14
366.370	1	9
366.540	1	4
366.711	1	6
366.882	1	-5
367.053	1	4
367.224	1	8
367.395	1	10
367.566	1	4
367.737	1	-2
367.908	1	-4
368.078	1	3
368.249	1	2
368.420	1	-1
368.591	1	8
368.762	1	-6
368.933	1	13
369.104	1	6
369.274	1	10
369.445	1	15
369.616	1	0
369.787	1	2
369.958	1	10
370.129	1	2
370.300	1	0
370.471	1	10
370.641	1	-7
370.812	1	11
370.983	1	-1
371.154	1	5
371.325	1	6
371.496	1	1
371.667	1	9
371.837	1	4
372.008	1	11
372.179	1	9
372.350	1	14
372.521	1	-2
372.692	1	-1
372.863	1	-2
373.033	1	21
373.204	1	11
373.375	1	5
373.546	1	11
373.717	1	4
373.888	1	6
374.059	1	9
374.229	1	4
374.400	1	23
374.571	1	10
374.742	1	3
374.913	1	12
375.084	1	5
375.254	1	7
375.425	1	9
375.596	1	3
375.767	1	-8
375.938	1	-3
376.109	1	-3
376.279	1	1
376.450	1	5
376.621	1	7
376.792	1	23
376.963	1	-1
377.134	1	-5
377.304	1	2
377.475	1	7
377.646	1	2
377.817	1	2
377.988	1	8
378.159	1	13
378.329	1	16
378.500	1	5
378.671	1	-7
378.842	1	0
379.013	1	6
379.184	1	13
379.354	1	9
379.525	1	1
379.696	1	14
379.867	1	-5
380.038	1	2
380.209	1	2
380.379	1	11
380.550	1	3
380.721	1	5
380.892	1	16
381.063	1	0
381.233	1	6
381.404	1	0
381.575	1	9
381.746	1	5
381.917	1	8
382.087	1	13
382.258	1	7
382.429	1	1
382.600	1	8
382.771	1	5
382.941	1	12
383.112	1	16
383.283	1	10
383.454	1	1
383.625	1	-1
383.795	1	-1
383.966	1	9
384.137	1	-1
384.308	1	12
384.479	1	14
384.649	1	7
384.820	1	10
384.991	1	0
385.162	1	7
385.333	1	3
385.503	1	16
385.674	1	8
385.845	1	1
386.016	1	12
386.187	1	0
386.357	1	7
386.528	1	-2
386.699	1	10
386.870	1	4
387.041	1	2
387.211	1	2
387.382	1	0
387.553	1	6
387.724	1	6
387.894	1	10
388.065	1	15
388.236	1	14
388.407	1	6
388.578	1	15
388.748	1	0
388.919	1	16
389.090	1	11
389.261	1	8
389.431	1	10
389.602	1	1
389.773	1	-10
389.944	1	10
390.114	1	13
390.285	1	11
390.456	1	12
390.627	1	10
390.798	1	3
390.968	1	2
391.139	1	8
391.310	1	15
391.481	1	9
391.651	1	13
391.822	1	13
391.993	1	14
392.164	1	-2
392.334	1	7
392.505	1	5
392.676	1	4
392.847	1	17
393.017	1	7
393.188	1	9
393.359	1	7
393.530	1	8
393.700	1	6
393.871	1	11
394.042	1	22
394.213	1	7
394.383	1	14
394.554	1	8
394.725	1	10
394.896	1	1
395.066	1	7
395.237	1	2
395.408	1	3
395.579	1	10
395.749	1	4
395.920	1	18
396.091	1	9
396.262	1	2
396.432	1	2
396.603	1	9
396.774	1	3
396.945	1	8
397.115	1	-3
397.286	1	22
397.457	1	-5
397.627	1	4
397.798	1	7
397.969	1	13
398.140	1	5
398.310	1	12
398.481	1	15
398.652	1	1
398.823	1	8
398.993	1	20
399.164	1	7
399.335	1	2
399.505	1	22
399.676	1	8
399.847	1	17
400.018	1	4
400.188	1	5
400.359	1	12
400.530	1	8
400.700	1	4
400.871	1	15
401.042	1	-4
401.213	1	7
401.383	1	6
401.554	1	14
401.725	1	14
401.895	1	5
402.066	1	15
402.237	1	13
402.408	1	20
402.578	1	5
402.749	1	12
402.920	1	20
403.090	1	14
403.261	1	12
403.432	1	14
403.603	1	-5
403.773	1	17
403.944	1	15
404.115	1	7
404.285	1	18
404.456	1	8
404.627	1	-5
404.797	1	9
404.968	1	10
405.139	1	12
405.310	1	8
405.480	1	16
405.651	1	20
405.822	1	12
405.992	1	14
406.163	1	11
406.334	1	11
406.504	1	7
406.675	1	8
406.846	1	12
407.016	1	5
407.187	1	8
407.358	1	19
407.528	1	12
407.699	1	1
407.870	1	22
408.041	1	7
408.211	1	8
408.382	1	4
408.553	1	3
408.723	1	17
408.894	1	11
409.065	1	22
409.235	1	10
409.406	1	7
409.577	1	-2
409.747	1	12
409.918	1	3
410.089	1	-1
410.259	1	6
410.430	1	13
410.601	1	14
410.771	1	11
410.942	1	6
411.113	1	23
411.283	1	6
411.454	1	3
411.625	1	5
411.795	1	5
411.966	1	2
412.137	1	10
412.307	1	5
412.478	1	15
412.649	1	9
412.819	1	-1
412.990	1	11
413.161	1	10
413.331	1	9
413.502	1	5
413.672	1	16
413.843	1	15
414.014	1	22
414.184	1	15
414.355	1	-4
414.526	1	10
414.696	1	13
414.867	1	10
415.038	1	7
415.208	1	11
415.379	1	15
415.550	1	20
415.720	1	1
415.891	1	18
416.062	1	10
416.232	1	24
416.403	1	4
416.573	1	2
416.744	1	14
416.915	1	10
417.085	1	0
417.256	1	13
417.427	1	13
417.597	1	11
417.768	1	11
417.939	1	17
418.109	1	1
418.280	1	9
418.450	1	11
418.621	1	0
418.792	1	2
418.962	1	12
419.133	1	19
419.304	1	-3
419.474	1	10
419.645	1	6
419.815	1	10
419.986	1	16
420.157	1	25
420.327	1	1
420.498	1	1
420.669	1	9
420.839	1	9
421.010	1	19
421.180	1	-1
421.351	1	18
421.522	1	16
421.692	1	12
421.863	1	11
422.033	1	9
422.204	1	0
422.375	1	3
422.545	1	18
422.716	1	10
422.886	1	15
423.057	1	2
423.228	1	6
423.398	1	15
423.569	1	14
423.740	1	6
423.910	1	11
424.081	1	11
424.251	1	-1
424.422	1	2
424.593	1	0
424.763	1	12
424.934	1	2
425.104	1	13
425.275	1	8
425.445	1	23
425.616	1	12
425.787	1	11
425.957	1	13
426.128	1	16
426.298	1	-1
426.469	1	7
426.640	1	7
426.810	1	15
426.981	1	16
427.151	1	10
427.322	1	3
427.493	1	3
427.663	1	5
427.834	1	9
428.004	1	4
428.175	1	11
428.345	1	18
428.516	1	17
428.687	1	11
428.857	1	16
429.028	1	11
429.198	1	15
429.369	1	10
429.540	1	8
429.710	1	11
429.881	1	11
430.051	1	4
430.222	1	16
430.392	1	8
430.563	1	12
430.734	1	17
430.904	1	11
431.075	1	-1
431.245	1	14
431.416	1	2
431.586	1	2
431.757	1	18
431.927	1	-5
432.098	1	25
432.269	1	13
432.439	1	9
432.610	1	3
432.780	1	9
432.951	1	9
433.121	1	21
433.292	1	10
433.462	1	12
433.633	1	18
433.804	1	-5
433.974	1	8
434.145	1	8
434.315	1	13
434.486	1	-4
434.656	1	3
434.827	1	-5
434.997	1	21
435.168	1	12
435.339	1	1
435.509	1	8
435.680	1	10
435.850	1	5
436.021	1	15
436.191	1	12
436.362	1	14
436.532	1	12
436.703	1	19
436.873	1	8
437.044	1	9
437.214	1	15
437.385	1	17
437.556	1	10
437.726	1	8
437.897	1	8
438.067	1	4
438.238	1	21
438.408	1	10
438.579	1	7
438.749	1	-4
438.920	1	15
439.090	1	7
439.261	1	11
439.431	1	5
439.602	1	9
439.772	1	12
439.943	1	18
440.113	1	13
440.284	1	2
440.455	1	15
440.625	1	2
440.796	1	0
440.966	1	10
441.137	1	6
441.307	1	13
441.478	1	15
441.648	1	5
441.819	1	10
441.989	1	5
442.160	1	13
442.330	1	17
442.501	1	9
442.671	1	12
442.842	1	17
443.012	1	9
443.183	1	11
443.353	1	17
443.524	1	12
443.694	1	10
443.865	1	8
444.035	1	11
444.206	1	8
444.376	1	11
444.547	1	19
444.717	1	14
444.888	1	4
445.058	1	11
445.229	1	13
445.399	1	15
445.570	1	2
445.740	1	6
445.911	1	9
446.081	1	18
446.252	1	1
446.422	1	17
446.593	1	7
446.763	1	10
446.934	1	18
447.104	1	0
447.275	1	17
447.445	1	5
447.616	1	8
447.786	1	4
447.957	1	2
448.127	1	11
448.298	1	17
448.468	1	14
448.639	1	7
448.809	1	0
448.979	1	15
449.150	1	10
449.320	1	13
449.491	1	12
449.661	1	12
449.832	1	17
450.002	1	12
450.173	1	7
450.343	1	10
450.514	1	1
450.684	1	11
450.855	1	8
451.025	1	7
451.196	1	14
451.366	1	4
451.537	1	12
451.707	1	12
451.878	1	11
452.048	1	4
452.218	1	11
452.389	1	10
452.559	1	7
452.730	1	16
452.900	1	14
453.071	1	4
453.241	1	3
453.412	1	2
453.582	1	-1
453.753	1	7
453.923	1	4
454.093	1	14
454.264	1	4
454.434	1	8
454.605	1	6
454.775	1	8
454.946	1	8
455.116	1	15
455.287	1	7
455.457	1	6
455.628	1	4
455.798	1	7
455.968	1	10
456.139	1	3
456.309	1	18
456.480	1	7
456.650	1	19
456.821	1	14
456.991	1	6
457.161	1	15
457.332	1	14
457.502	1	17
457.673	1	10
457.843	1	16
458.014	1	9
458.184	1	7
458.355	1	9
458.525	1	12
458.695	1	5
458.866	1	27
459.036	1	3
459.207	1	17
459.377	1	12
459.548	1	-3
459.718	1	10
459.888	1	16
460.059	1	18
460.229	1	11
460.400	1	8
460.570	1	9
460.740	1	13
460.911	1	8
461.081	1	22
461.252	1	10
461.422	1	8
461.593	1	8
461.763	1	9
461.933	1	14
462.104	1	4
462.274	1	4
462.445	1	0
462.615	1	13
462.785	1	8
462.956	1	14
463.126	1	3
463.297	1	9
463.467	1	10
463.638	1	13
463.808	1	17
463.978	1	14
464.149	1	1
464.319	1	15
464.490	1	8
464.660	1	9
464.830	1	14
465.001	1	9
465.171	1	5
465.342	1	8
465.512	1	-2
465.682	1	8
465.853	1	-7
466.023	1	2
466.194	1	11
466.364	1	14
466.534	1	2
466.705	1	-7
466.875	1	1
467.045	1	-3
467.216	1	8
467.386	1	25
467.557	1	5
467.727	1	8
467.897	1	8
468.068	1	-1
468.238	1	9
468.409	1	2
468.579	1	7
468.749	1	12
468.920	1	3
469.090	1	15
469.260	1	13
469.431	1	16
469.601	1	2
469.772	1	-11
469.942	1	3
470.112	1	6
470.283	1	11
470.453	1	17
470.623	1	5
470.794	1	12
470.964	1	15
471.135	1	13
471.305	1	9
471.475	1	6
471.646	1	10
471.816	1	11
471.986	1	11
472.157	1	12
472.327	1	3
472.497	1	20
472.668	1	9
472.838	1	18
473.009	1	12
473.179	1	4
473.349	1	20
473.520	1	11
473.690	1	17
473.860	1	17
474.031	1	9
474.201	1	9
474.371	1	13
474.542	1	16
474.712	1	16
474.882	1	2
475.053	1	14
475.223	1	3
475.394	1	4
475.564	1	-2
475.734	1	7
475.905	1	7
476.075	1	3
476.245	1	7
476.416	1	-3
476.586	1	4
476.756	1	5
476.927	1	5
477.097	1	7
477.267	1	13
477.438	1	12
477.608	1	7
477.778	1	4
477.949	1	9
478.119	1	11
478.289	1	-3
478.460	1	-9
478.630	1	23
478.800	1	13
478.971	1	7
479.141	1	6
479.311	1	11
479.482	1	14
479.652	1	6
479.822	1	12
479.993	1	1
480.163	1	12
480.333	1	1
480.504	1	8
480.674	1	14
480.844	1	8
481.015	1	7
481.185	1	3
481.355	1	15
481.525	1	8
481.696	1	3
481.866	1	7
482.036	1	6
482.207	1	4
482.377	1	13
482.547	1	5
482.718	1	8
482.888	1	8
483.058	1	7
483.229	1	11
483.399	1	11
483.569	1	-1
483.740	1	8
483.910	1	-2
484.080	1	7
484.250	1	-6
484.421	1	5
484.591	1	9
484.761	1	1
484.932	1	7
485.102	1	10
485.272	1	10
485.443	1	1
485.613	1	10
485.783	1	11
485.953	1	14
486.124	1	15
486.294	1	2
486.464	1	3
486.635	1	6
486.805	1	9
486.975	1	-7
487.146	1	0
487.316	1	5
487.486	1	12
487.656	1	-2
487.827	1	-4
487.997	1	-4
488.167	1	6
488.338	1	-1
488.508	1	9
488.678	1	8
488.848	1	6
489.019	1	4
489.189	1	-2
489.359	1	10
489.529	1	8
489.700	1	8
489.870	1	-11
490.040	1	3
490.211	1	12
490.381	1	-5
490.551	1	-6
490.721	1	-3
490.892	1	4
491.062	1	-2
491.232	1	-1
491.402	1	7
491.573	1	2
491.743	1	-1
491.913	1	-9
492.084	1	13
492.254	1	11
492.424	1	11
492.594	1	14
492.765	1	5
492.935	1	8
493.105	1	17
493.275	1	0
493.446	1	2
493.616	1	5
493.786	1	2
493.956	1	-3
494.127	1	9
494.297	1	-4
494.467	1	8
494.637	1	17
494.808	1	8
494.978	1	3
495.148	1	-5
495.318	1	7
495.489	1	-7
495.659	1	-4
495.829	1	16
495.999	1	7
496.170	1	-6
496.340	1	7
496.510	1	6
496.680	1	6
496.851	1	14
497.021	1	-1
497.191	1	7
497.361	1	-3
497.532	1	2
497.702	1	11
497.872	1	21
498.042	1	9
498.213	1	3
498.383	1	13
498.553	1	1
498.723	1	5
498.894	1	-1
499.064	1	6
499.234	1	1
499.404	1	4
499.574	1	1
499.745	1	1
499.915	1	0
500.085	1	1
500.255	1	6
500.426	1	9
500.596	1	-2
500.766	1	3
500.936	1	10
501.106	1	3
501.277	1	14
501.447	1	8
501.617	1	6
501.787	1	-1
501.958	1	3
502.128	1	-13
502.298	1	8
502.468	1	1
502.638	1	3
502.809	1	1
502.979	1	11
503.149	1	-4
503.319	1	15
503.489	1	1
503.660	1	5
503.830	1	1
504.000	1	16
504.170	1	3
504.340	1	3
504.511	1	16
504.681	1	-9
504.851	1	-2
505.021	1	7
505.192	1	1
505.362	1	-3
505.532	1	2
505.702	1	-8
505.872	1	8
506.043	1	10
506.213	1	4
506.383	1	1
506.553	1	8
506.723	1	10
506.893	1	3
507.064	1	-5
507.234	1	0
507.404	1	4
507.574	1	7
507.744	1	7
507.915	1	7
508.085	1	7
508.255	1	1
508.425	1	-9
508.595	1	1
508.766	1	5
508.936	1	6
509.106	1	7
509.276	1	-5
509.446	1	0
509.616	1	5
509.787	1	6
509.957	1	6
510.127	1	9
510.297	1	-2
510.467	1	-3
510.638	1	7
510.808	1	2
510.978	1	5
511.148	1	15
511.318	1	1
511.488	1	15
511.659	1	-5
511.829	1	3
511.999	1	15
512.169	1	1
512.339	1	5
512.509	1	0
512.680	1	5
512.850	1	3
513.020	1	0
513.190	1	-2
513.360	1	13
513.530	1	7
513.700	1	7
513.871	1	1
514.041	1	2
514.211	1	11
514.381	1	5
514.551	1	7
514.721	1	5
514.892	1	1
515.062	1	2
515.232	1	8
515.402	1	-1
515.572	1	4
515.742	1	3
515.912	1	5
516.083	1	0
516.253	1	15
516.423	1	4
516.593	1	1
516.763	1	-4
516.933	1	-13
517.104	1	4
517.274	1	-13
517.444	1	0
517.614	1	-5
517.784	1	6
517.954	1	12
518.124	1	-1
518.294	1	8
518.465	1	3
518.635	1	-1
518.805	1	20
518.975	1	-1
519.145	1	7
519.315	1	-10
519.485	1	-5
519.656	1	8
519.826	1	12
519.996	1	5
520.166	1	8
520.336	1	-3
520.506	1	-15
520.676	1	2
520.846	1	5
521.017	1	-5
521.187	1	10
521.357	1	2
521.527	1	7
521.697	1	9
521.867	1	-5
522.037	1	-2
522.207	1	-1
522.377	1	3
522.548	1	4
522.718	1	-2
522.888	1	6
523.058	1	4
523.228	1	4
523.398	1	3
523.568	1	-1
523.738	1	5
523.909	1	3
524.079	1	2
524.249	1	4
524.419	1	2
524.589	1	-1
524.759	1	3
524.929	1	-6
525.099	1	3
525.269	1	10
525.439	1	6
525.610	1	1
525.780	1	3
525.950	1	7
526.120	1	-2
526.290	1	7
526.460	1	0
526.630	1	6
526.800	1	4
526.970	1	10
527.140	1	7
527.311	1	5
527.481	1	13
527.651	1	4
527.821	1	-8
527.991	1	-1
528.161	1	-2
528.331	1	13
528.501	1	5
528.671	1	-3
528.841	1	3
529.011	1	4
529.181	1	2
529.352	1	1
529.522	1	1
529.692	1	-1
529.862	1	0
530.032	1	2
530.202	1	7
530.372	1	-6
530.542	1	2
530.712	1	-5
530.882	1	6
531.052	1	8
531.222	1	6
531.392	1	-2
531.563	1	4
531.733	1	-8
531.903	1	2
532.073	1	6
532.243	1	-4
532.413	1	9
532.583	1	-1
532.753	1	4
532.923	1	10
533.093	1	13
533.263	1	-3
533.433	1	7
533.603	1	2
533.773	1	-3
533.943	1	0
534.113	1	4
534.284	1	0
534.454	1	5
534.624	1	2
534.794	1	2
534.964	1	10
535.134	1	9
535.304	1	5
535.474	1	-1
535.644	1	-1
535.814	1	5
535.984	1	7
536.154	1	3
536.324	1	14
536.494	1	10
536.664	1	-4
536.834	1	1
537.004	1	9
537.174	1	3
537.344	1	6
537.514	1	-3
537.685	1	8
537.855	1	5
538.025	1	6
538.195	1	1
538.365	1	3
538.535	1	-12
538.705	1	10
538.875	1	4
539.045	1	4
539.215	1	0
539.385	1	2
539.555	1	8
539.725	1	-2
539.895	1	4
540.065	1	-2
540.235	1	3
540.405	1	1
540.575	1	-2
540.745	1	7
540.915	1	8
541.085	1	-5
541.255	1	-2
541.425	1	2
541.595	1	5
541.765	1	9
541.935	1	-1
542.105	1	5
542.275	1	3
542.445	1	-6
542.615	1	6
542.785	1	-9
542.955	1	-8
543.125	1	-5
543.295	1	-14
543.465	1	3
543.635	1	0
543.805	1	12
543.975	1	9
544.145	1	6
544.315	1	3
544.485	1	-1
544.655	1	9
544.825	1	7
544.995	1	2
545.165	1	2
545.335	1	4
545.505	1	8
545.675	1	-6
545.845	1	9
546.015	1	-4
546.185	1	6
546.355	1	7
546.525	1	-1
546.695	1	-4
546.865	1	7
547.035	1	7
547.205	1	15
547.375	1	6
547.545	1	13
547.715	1	11
547.885	1	13
548.055	1	-4
548.225	1	14
548.395	1	-1
548.565	1	8
548.735	1	4
548.905	1	-2
549.075	1	0
549.245	1	3
549.415	1	-1
549.585	1	2
549.755	1	10
549.925	1	1
550.095	1	-7
550.265	1	2
550.435	1	-10
550.605	1	-3
550.775	1	-6
550.945	1	7
551.115	1	4
551.285	1	0
551.455	1	5
551.625	1	-1
551.795	1	3
551.965	1	11
552.135	1	-5
552.305	1	6
552.475	1	1
552.645	1	-1
552.815	1	1
552.985	1	6
553.155	1	2
553.325	1	1
553.495	1	7
553.665	1	6
553.835	1	-2
554.004	1	-3
554.174	1	-10
554.344	1	-1
554.514	1	7
554.684	1	-5
554.854	1	1
555.024	1	8
555.194	1	1
555.364	1	-7
555.534	1	-7
555.704	1	15
555.874	1	-15
556.044	1	9
556.214	1	3
556.384	1	4
556.554	1	6
556.724	1	5
556.894	1	-14
557.064	1	6
557.234	1	-4
557.404	1	3
557.573	1	-6
557.743	1	7
557.913	1	-3
558.083	1	9
558.253	1	-4
558.423	1	-2
558.593	1	2
558.763	1	7
558.933	1	1
559.103	1	8
559.273	1	0
559.443	1	4
559.613	1	2
559.783	1	12
559.953	1	10
560.122	1	-2
560.292	1	3
560.462	1	-8
560.632	1	-2
560.802	1	-2
560.972	1	10
561.142	1	6
561.312	1	10
561.482	1	2
561.652	1	-4
561.822	1	-6
561.992	1	-8
562.162	1	-1
562.331	1	13
562.501	1	-7
562.671	1	5
562.841	1	1
563.011	1	-2
563.181	1	9
563.351	1	4
563.521	1	-4
563.691	1	8
563.861	1	-8
564.031	1	5
564.201	1	0
564.370	1	-10
564.540	1	-5
564.710	1	3
564.880	1	4
565.050	1	-4
565.220	1	1
565.390	1	10
565.560	1	-8
565.730	1	-2
565.900	1	0
566.069	1	-6
566.239	1	-8
566.409	1	0
566.579	1	3
566.749	1	-2
566.919	1	-1
567.089	1	12
567.259	1	4
567.429	1	-2
567.599	1	-9
567.768	1	4
567.938	1	-4
568.108	1	9
568.278	1	-4
568.448	1	4
568.618	1	-2
568.788	1	-13
568.958	1	-9
569.128	1	-3
569.297	1	1
569.467	1	1
569.637	1	12
569.807	1	2
569.977	1	6
570.147	1	8
570.317	1	4
570.487	1	11
570.656	1	0
570.826	1	0
570.996	1	4
571.166	1	-5
571.336	1	0
571.506	1	-3
571.676	1	-8
571.846	1	3
572.015	1	11
572.185	1	2
572.355	1	1
572.525	1	-4
572.695	1	4
572.865	1	8
573.035	1	-1
573.205	1	-9
573.374	1	13
573.544	1	4
573.714	1	13
573.884	1	1
574.054	1	1
574.224	1	10
574.394	1	-3
574.563	1	14
574.733	1	5
574.903	1	8
575.073	1	1
575.243	1	4
575.413	1	-1
575.583	1	-3
575.752	1	4
575.922	1	10
576.092	1	2
576.262	1	6
576.432	1	14
576.602	1	4
576.772	1	-7
576.941	1	-1
577.111	1	1
577.281	1	16
577.451	1	0
577.621	1	3
577.791	1	6
577.960	1	2
578.130	1	7
578.300	1	7
578.470	1	9
578.640	1	-3
578.810	1	4
578.979	1	-3
579.149	1	-2
579.319	1	-1
579.489	1	0
579.659	1	-8
579.829	1	15
579.998	1	-2
580.168	1	-4
580.338	1	0
580.508	1	-9
580.678	1	4
580.848	1	3
581.017	1	-4
581.187	1	0
581.357	1	-1
581.527	1	3
581.697	1	-9
581.867	1	7
582.036	1	3
582.206	1	-1
582.376	1	4
582.546	1	12
582.716	1	0
582.885	1	-1
583.055	1	4
583.225	1	-9
583.395	1	-1
583.565	1	-5
583.735	1	-9
583.904	1	-1
584.074	1	-9
584.244	1	3
584.414	1	-6
584.584	1	0
584.753	1	11
584.923	1	11
585.093	1	3
585.263	1	-7
585.433	1	13
585.602	1	2
585.772	1	-7
585.942	1	7
586.112	1	-5
586.282	1	-4
586.451	1	-1
586.621	1	-5
586.791	1	-1
586.961	1	1
587.131	1	12
587.300	1	10
587.470	1	-6
587.640	1	-5
587.810	1	1
587.980	1	-3
588.149	1	0
588.319	1	6
588.489	1	-5
588.659	1	6
588.829	1	-7
588.998	1	1
589.168	1	2
589.338	1	-5
589.508	1	1
589.677	1	2
589.847	1	6
590.017	1	-8
590.187	1	-1
590.357	1	-10
590.526	1	0
590.696	1	3
590.866	1	1
591.036	1	3
591.205	1	11
591.375	1	3
591.545	1	-4
591.715	1	-19
591.885	1	-3
592.054	1	2
592.224	1	8
592.394	1	2
592.564	1	-2
592.733	1	9
592.903	1	-3
593.073	1	-10
593.243	1	6
593.412	1	-1
593.582	1	-4
593.752	1	3
593.922	1	2
594.091	1	-1
594.261	1	-4
594.431	1	6
594.601	1	5
594.771	1	-3
594.940	1	4
595.110	1	-3
595.280	1	2
595.450	1	0
595.619	1	10
595.789	1	6
595.959	1	8
596.129	1	-8
596.298	1	0
596.468	1	2
596.638	1	2
596.808	1	-3
596.977	1	4
597.147	1	7
597.317	1	4
597.487	1	-4
597.656	1	0
597.826	1	-3
597.996	1	1
598.166	1	0
598.335	1	-5
598.505	1	-6
598.675	1	-4
598.844	1	2
599.014	1	-1
599.184	1	8
599.354	1	3
599.523	1	12
599.693	1	3
599.863	1	-6
600.033	1	-8
600.202	1	12
600.372	1	0
600.542	1	2
600.712	1	1
600.881	1	5
601.051	1	4
601.221	1	10
601.390	1	16
601.560	1	2
601.730	1	6
601.900	1	10
602.069	1	-8
602.239	1	1
602.409	1	1
602.578	1	7
602.748	1	0
602.918	1	0
603.088	1	12
603.257	1	2
603.427	1	2
603.597	1	-3
603.767	1	4
603.936	1	2
604.106	1	6
604.276	1	-3
604.445	1	-1
604.615	1	-5
604.785	1	-3
604.954	1	-1
605.124	1	-6
605.294	1	4
605.464	1	-4
605.633	1	2
605.803	1	9
605.973	1	7
606.142	1	6
606.312	1	0
606.482	1	7
606.652	1	13
606.821	1	-4
606.991	1	-10
607.161	1	6
607.330	1	7
607.500	1	4
607.670	1	5
607.839	1	-5
608.009	1	7
608.179	1	-6
608.348	1	7
608.518	1	-2
608.688	1	5
608.858	1	6
609.027	1	-1
609.197	1	4
609.367	1	3
609.536	1	13
609.706	1	-1
609.876	1	3
610.045	1	2
610.215	1	13
610.385	1	1
610.554	1	-1
610.724	1	1
610.894	1	3
611.063	1	10
611.233	1	-10
611.403	1	1
611.572	1	2
611.742	1	-4
611.912	1	2
612.081	1	8
612.251	1	4
612.421	1	11
612.590	1	-5
612.760	1	7
612.930	1	-5
613.099	1	8
613.269	1	5
613.439	1	-3
613.608	1	-1
613.778	1	0
613.948	1	9
614.117	1	-3
614.287	1	1
614.457	1	2
614.626	1	13
614.796	1	8
614.966	1	-5
615.135	1	2
615.305	1	10
615.475	1	-3
615.644	1	8
615.814	1	6
615.984	1	12
616.153	1	1
616.323	1	-1
616.493	1	10
616.662	1	-5
616.832	1	-5
617.002	1	4
617.171	1	4
617.341	1	-2
617.511	1	-3
617.680	1	1
617.850	1	-3
618.019	1	6
618.189	1	-3
618.359	1	1
618.528	1	-2
618.698	1	13
618.868	1	0
619.037	1	4
619.207	1	7
619.377	1	4
619.546	1	8
619.716	1	-5
619.885	1	0
620.055	1	13
620.225	1	11
620.394	1	6
620.564	1	-4
620.734	1	-1
620.903	1	7
621.073	1	5
621.242	1	-8
621.412	1	3
621.582	1	-8
621.751	1	10
621.921	1	1
622.091	1	-6
622.260	1	0
622.430	1	10
622.599	1	6
622.769	1	-2
622.939	1	-4
623.108	1	5
623.278	1	17
623.448	1	12
623.617	1	-3
623.787	1	7
623.956	1	10
624.126	1	-5
624.296	1	8
624.465	1	-3
624.635	1	6
624.804	1	-3
624.974	1	11
625.144	1	17
625.313	1	6
625.483	1	8
625.652	1	8
625.822	1	3
625.992	1	4
626.161	1	-2
626.331	1	5
626.501	1	-5
626.670	1	-9
626.840	1	5
627.009	1	-1
627.179	1	-12
627.348	1	12
627.518	1	13
627.688	1	1
627.857	1	3
628.027	1	-4
628.196	1	2
628.366	1	4
628.536	1	7
628.705	1	1
628.875	1	0
629.044	1	4
629.214	1	1
629.384	1	2
629.553	1	5
629.723	1	-5
629.892	1	-5
630.062	1	-16
630.232	1	7
630.401	1	1
630.571	1	7
630.740	1	-3
630.910	1	9
631.079	1	2
631.249	1	10
631.419	1	6
631.588	1	-4
631.758	1	0
631.927	1	3
632.097	1	2
632.266	1	0
632.436	1	3
632.606	1	1
632.775	1	11
632.945	1	-3
633.114	1	6
633.284	1	-5
633.453	1	6
633.623	1	5
633.793	1	2
633.962	1	-5
634.132	1	-4
634.301	1	-2
634.471	1	3
634.640	1	10
634.810	1	2
634.979	1	-5
635.149	1	4
635.319	1	13
635.488	1	-10
635.658	1	5
635.827	1	1
635.997	1	1
636.166	1	-1
636.336	1	2
636.505	1	9
636.675	1	3
636.845	1	6
637.014	1	2
637.184	1	8
637.353	1	9
637.523	1	6
637.692	1	2
637.862	1	0
638.031	1	-1
638.201	1	-3
638.370	1	14
638.540	1	4
638.710	1	12
638.879	1	11
639.049	1	-5
639.218	1	15
639.388	1	6
639.557	1	3
639.727	1	11
639.896	1	3
640.066	1	16
640.235	1	-1
640.405	1	12
640.574	1	2
640.744	1	-1
640.914	1	9
641.083	1	8
641.253	1	1
641.422	1	7
641.592	1	-8
641.761	1	-2
641.931	1	6
642.100	1	11
642.270	1	-6
642.439	1	-2
642.609	1	7
642.778	1	0
642.948	1	12
643.117	1	15
643.287	1	-7
643.456	1	-3
643.626	1	3
643.795	1	11
643.965	1	7
644.134	1	6
644.304	1	1
644.473	1	-3
644.643	1	1
644.812	1	-2
644.982	1	7
645.151	1	2
645.321	1	-11
645.490	1	14
645.660	1	1
645.829	1	-5
645.999	1	5
646.168	1	4
646.338	1	9
646.507	1	3
646.677	1	0
646.846	1	0
647.016	1	0
647.185	1	3
647.355	1	12
647.524	1	-3
647.694	1	10
647.863	1	3
648.033	1	1
648.202	1	4
648.372	1	-3
648.541	1	-1
648.711	1	6
648.880	1	5
649.050	1	3
649.219	1	4
649.389	1	-4
649.558	1	14
649.728	1	2
649.897	1	3
650.067	1	4
650.236	1	0
650.406	1	6
650.575	1	3
650.745	1	5
650.914	1	4
651.084	1	4
651.253	1	-5
651.423	1	4
651.592	1	2
651.762	1	8
651.931	1	3
652.101	1	-1
652.270	1	-10
652.440	1	14
652.609	1	3
652.778	1	9
652.948	1	4
653.117	1	12
653.287	1	3
653.456	1	-1
653.626	1	-4
653.795	1	-6
653.965	1	-2
654.134	1	-10
654.304	1	2
654.473	1	-5
654.643	1	10
654.812	1	-5
654.982	1	7
655.151	1	4
655.320	1	9
655.490	1	-1
655.659	1	1
655.829	1	2
655.998	1	-2
656.168	1	6
656.337	1	5
656.507	1	-6
656.676	1	1
656.846	1	2
657.015	1	-4
657.184	1	1
657.354	1	3
657.523	1	-1
657.693	1	-6
657.862	1	-15
658.032	1	4
658.201	1	4
658.371	1	-11
658.540	1	0
658.709	1	-4
658.879	1	8
659.048	1	1
659.218	1	4
659.387	1	2
659.557	1	5
659.726	1	-4
659.895	1	5
660.065	1	13
660.234	1	1
660.404	1	6
660.573	1	-3
660.743	1	1
660.912	1	-4
661.081	1	-12
661.251	1	8
661.420	1	4
661.590	1	4
661.759	1	2
661.929	1	3
662.098	1	4
662.267	1	6
662.437	1	4
662.606	1	8
662.776	1	-6
662.945	1	5
663.115	1	10
663.284	1	1
663.453	1	6
663.623	1	20
663.792	1	-1
663.962	1	-6
664.131	1	-8
664.300	1	-20
664.470	1	9
664.639	1	3
664.809	1	4
664.978	1	1
665.148	1	-5
665.317	1	4
665.486	1	3
665.656	1	6
665.825	1	8
665.995	1	-4
666.164	1	11
666.333	1	5
666.503	1	10
666.672	1	11
666.842	1	-9
667.011	1	5
667.180	1	9
667.350	1	2
667.519	1	3
667.689	1	-2
667.858	1	8
668.027	1	-3
668.197	1	8
668.366	1	-10
668.536	1	-2
668.705	1	5
668.874	1	-5
669.044	1	8
669.213	1	4
669.382	1	9
669.552	1	-1
669.721	1	6
669.891	1	-1
670.060	1	-3
670.229	1	0
670.399	1	0
670.568	1	-4
670.738	1	2
670.907	1	3
671.076	1	1
671.246	1	-2
671.415	1	7
671.584	1	0
671.754	1	-3
671.923	1	5
672.093	1	-4
672.262	1	2
672.431	1	0
672.601	1	13
672.770	1	2
672.939	1	-5
673.109	1	12
673.278	1	2
673.448	1	6
673.617	1	0
673.786	1	0
