325.333	1	-5
325.504	1	3
325.675	1	7
325.846	1	-2
326.017	1	-12
326.188	1	20
326.359	1	11
326.531	1	12
326.702	1	8
326.873	1	-1
327.044	1	9
327.215	1	-7
327.386	1	0
327.557	1	-5
327.728	1	8
327.899	1	0
328.070	1	10
328.241	1	2
328.412	1	-9
328.583	1	11
328.754	1	-4
328.926	1	5
329.097	1	-3
329.268	1	-5
329.439	1	-2
329.610	1	-2
329.781	1	1
329.952	1	-2
330.123	1	-1
330.294	1	-2
330.465	1	6
330.636	1	7
330.807	1	-1
330.978	1	0
331.149	1	4
331.320	1	11
331.492	1	-7
331.663	1	3
331.834	1	-5
332.005	1	5
332.176	1	10
332.347	1	9
332.518	1	10
332.689	1	6
332.860	1	-1
333.031	1	9
333.202	1	-1
333.373	1	-4
333.544	1	-4
333.715	1	5
333.886	1	-2
334.057	1	-1
334.228	1	5
334.399	1	5
334.570	1	-4
334.741	1	-4
334.912	1	1
335.084	1	0
335.255	1	6
335.426	1	-1
335.597	1	8
335.768	1	3
335.939	1	0
336.110	1	4
336.281	1	3
336.452	1	-1
336.623	1	-1
336.794	1	2
336.965	1	0
337.136	1	15
337.307	1	0
337.478	1	3
337.649	1	-12
337.820	1	7
337.991	1	7
338.162	1	5
338.333	1	4
338.504	1	3
338.675	1	6
338.846	1	2
339.017	1	16
339.188	1	19
339.359	1	14
339.530	1	3
339.701	1	-1
339.872	1	1
340.043	1	-4
340.214	1	5
340.385	1	7
340.556	1	-2
340.727	1	-3
340.898	1	9
341.069	1	-15
341.240	1	-5
341.411	1	19
341.582	1	0
341.753	1	5
341.924	1	4
342.095	1	3
342.266	1	-9
342.437	1	-1
342.608	1	-4
342.779	1	2
342.950	1	4
343.121	1	0
343.292	1	12
343.463	1	10
343.634	1	5
343.805	1	2
343.976	1	-12
344.147	1	1
344.318	1	6
344.489	1	9
344.660	1	7
344.831	1	3
345.002	1	8
345.173	1	6
345.344	1	1
345.515	1	-2
345.686	1	-6
345.857	1	-4
346.028	1	-9
346.199	1	3
346.370	1	0
346.541	1	3
346.712	1	-3
346.883	1	7
347.054	1	4
347.225	1	-2
347.396	1	-7
347.567	1	7
347.738	1	7
347.909	1	5
348.080	1	9
348.251	1	-1
348.422	1	-7
348.593	1	4
348.764	1	-3
348.935	1	2
349.106	1	12
349.277	1	2
349.448	1	3
349.619	1	7
349.790	1	7
349.961	1	2
350.132	1	10
350.303	1	7
350.474	1	-8
350.645	1	9
350.816	1	-1
350.987	1	10
351.157	1	5
351.328	1	-1
351.499	1	8
351.670	1	-3
351.841	1	1
352.012	1	4
352.183	1	4
352.354	1	-4
352.525	1	3
352.696	1	1
352.867	1	3
353.038	1	0
353.209	1	6
353.380	1	-3
353.551	1	-7
353.722	1	6
353.893	1	3
354.064	1	-5
354.235	1	6
354.406	1	10
354.576	1	1
354.747	1	3
354.918	1	11
355.089	1	10
355.260	1	12
355.431	1	10
355.602	1	1
355.773	1	3
355.944	1	1
356.115	1	-10
356.286	1	7
356.457	1	5
356.628	1	-5
356.799	1	0
356.970	1	-3
357.141	1	6
357.311	1	-6
357.482	1	8
357.653	1	6
357.824	1	6
357.995	1	3
358.166	1	6
358.337	1	-1
358.508	1	-14
358.679	1	-6
358.850	1	2
359.021	1	5
359.192	1	8
359.363	1	0
359.533	1	0
359.704	1	7
359.875	1	-2
360.046	1	-8
360.217	1	-11
360.388	1	-10
360.559	1	6
360.730	1	2
360.901	1	-5
361.072	1	4
361.243	1	1
361.414	1	8
361.584	1	14
361.755	1	7
361.926	1	-1
362.097	1	0
362.268	1	8
362.439	1	3
362.610	1	-4
362.781	1	6
362.952	1	-5
363.123	1	1
363.293	1	5
363.464	1	4
363.635	1	15
363.806	1	3
363.977	1	6
364.148	1	6
364.319	1	-7
364.490	1	3
364.661	1	-1
364.832	1	8
365.002	1	-2
365.173	1	-4
365.344	1	4
365.515	1	1
365.686	1	0
365.857	1	6
366.028	1	3
366.199	1	16
366.370	1	10
366.540	1	-2
366.711	1	6
366.882	1	5
367.053	1	10
367.224	1	-2
367.395	1	8
367.566	1	9
367.737	1	2
367.908	1	1
368.078	1	6
368.249	1	4
368.420	1	16
368.591	1	9
368.762	1	1
368.933	1	3
369.104	1	0
369.274	1	8
369.445	1	7
369.616	1	-7
369.787	1	-1
369.958	1	13
370.129	1	7
370.300	1	6
370.471	1	2
370.641	1	-1
370.812	1	13
370.983	1	3
371.154	1	10
371.325	1	4
371.496	1	1
371.667	1	11
371.837	1	2
372.008	1	6
372.179	1	5
372.350	1	9
372.521	1	14
372.692	1	4
372.863	1	4
373.033	1	7
373.204	1	10
373.375	1	8
373.546	1	10
373.717	1	12
373.888	1	2
374.059	1	0
374.229	1	3
374.400	1	10
374.571	1	3
374.742	1	4
374.913	1	1
375.084	1	16
375.254	1	6
375.425	1	3
375.596	1	1
375.767	1	-11
375.938	1	1
376.109	1	-2
376.279	1	10
376.450	1	4
376.621	1	10
376.792	1	17
376.963	1	-1
377.134	1	-1
377.304	1	8
377.475	1	2
377.646	1	-1
377.817	1	1
377.988	1	-6
378.159	1	9
378.329	1	13
378.500	1	2
378.671	1	-7
378.842	1	-3
379.013	1	1
379.184	1	10
379.354	1	14
379.525	1	-2
379.696	1	17
379.867	1	-8
380.038	1	2
380.209	1	0
380.379	1	6
380.550	1	8
380.721	1	8
380.892	1	13
381.063	1	7
381.233	1	12
381.404	1	13
381.575	1	7
381.746	1	11
381.917	1	2
382.087	1	7
382.258	1	5
382.429	1	2
382.600	1	10
382.771	1	4
382.941	1	5
383.112	1	1
383.283	1	16
383.454	1	3
383.625	1	0
383.795	1	2
383.966	1	14
384.137	1	9
384.308	1	4
384.479	1	4
384.649	1	10
384.820	1	7
384.991	1	-2
385.162	1	5
385.333	1	4
385.503	1	22
385.674	1	16
385.845	1	13
386.016	1	17
386.187	1	-2
386.357	1	6
386.528	1	4
386.699	1	-5
386.870	1	5
387.041	1	12
387.211	1	8
387.382	1	-1
387.553	1	8
387.724	1	6
387.894	1	12
388.065	1	13
388.236	1	7
388.407	1	9
388.578	1	5
388.748	1	7
388.919	1	20
389.090	1	14
389.261	1	19
389.431	1	5
389.602	1	-2
389.773	1	-8
389.944	1	9
390.114	1	10
390.285	1	2
390.456	1	6
390.627	1	14
390.798	1	5
390.968	1	4
391.139	1	2
391.310	1	13
391.481	1	4
391.651	1	3
391.822	1	2
391.993	1	-2
392.164	1	-5
392.334	1	-5
392.505	1	5
392.676	1	8
392.847	1	18
393.017	1	20
393.188	1	7
393.359	1	2
393.530	1	9
393.700	1	4
393.871	1	8
394.042	1	6
394.213	1	17
394.383	1	9
394.554	1	12
394.725	1	14
394.896	1	5
395.066	1	3
395.237	1	-3
395.408	1	4
395.579	1	10
395.749	1	12
395.920	1	1
396.091	1	12
396.262	1	5
396.432	1	15
396.603	1	8
396.774	1	2
396.945	1	9
397.115	1	-3
397.286	1	11
397.457	1	8
397.627	1	9
397.798	1	4
397.969	1	8
398.140	1	4
398.310	1	11
398.481	1	7
398.652	1	4
398.823	1	-2
398.993	1	18
399.164	1	11
399.335	1	-2
399.505	1	5
399.676	1	2
399.847	1	22
400.018	1	7
400.188	1	0
400.359	1	11
400.530	1	4
400.700	1	4
400.871	1	12
401.042	1	6
401.213	1	6
401.383	1	11
401.554	1	16
401.725	1	9
401.895	1	2
402.066	1	8
402.237	1	20
402.408	1	10
402.578	1	9
402.749	1	16
402.920	1	17
403.090	1	8
403.261	1	8
403.432	1	4
403.603	1	5
403.773	1	8
403.944	1	17
404.115	1	6
404.285	1	27
404.456	1	8
404.627	1	2
404.797	1	3
404.968	1	1
405.139	1	8
405.310	1	2
405.480	1	5
405.651	1	14
405.822	1	14
405.992	1	9
406.163	1	9
406.334	1	10
406.504	1	2
406.675	1	10
406.846	1	5
407.016	1	-1
407.187	1	6
407.358	1	8
407.528	1	9
407.699	1	3
407.870	1	7
408.041	1	5
408.211	1	4
408.382	1	14
408.553	1	-6
408.723	1	11
408.894	1	3
409.065	1	19
409.235	1	-1
409.406	1	4
409.577	1	5
409.747	1	20
409.918	1	9
410.089	1	1
410.259	1	2
410.430	1	7
410.601	1	3
410.771	1	5
410.942	1	-2
411.113	1	23
411.283	1	9
411.454	1	9
411.625	1	5
411.795	1	1
411.966	1	5
412.137	1	9
412.307	1	20
412.478	1	11
412.649	1	6
412.819	1	7
412.990	1	8
413.161	1	6
413.331	1	8
413.502	1	-4
413.672	1	11
413.843	1	10
414.014	1	17
414.184	1	3
414.355	1	11
414.526	1	9
414.696	1	18
414.867	1	16
415.038	1	6
415.208	1	-1
415.379	1	8
415.550	1	15
415.720	1	-1
415.891	1	17
416.062	1	15
416.232	1	13
416.403	1	12
416.573	1	6
416.744	1	6
416.915	1	2
417.085	1	3
417.256	1	8
417.427	1	20
417.597	1	3
417.768	1	6
417.939	1	6
418.109	1	-8
418.280	1	7
418.450	1	33
418.621	1	-1
418.792	1	2
418.962	1	0
419.133	1	16
419.304	1	-1
419.474	1	0
419.645	1	8
419.815	1	6
419.986	1	9
420.157	1	15
420.327	1	14
420.498	1	-2
420.669	1	11
420.839	1	9
421.010	1	2
421.180	1	3
421.351	1	19
421.522	1	17
421.692	1	12
421.863	1	2
422.033	1	17
422.204	1	2
422.375	1	9
422.545	1	6
422.716	1	-1
422.886	1	21
423.057	1	3
423.228	1	9
423.398	1	14
423.569	1	15
423.740	1	1
423.910	1	12
424.081	1	17
424.251	1	18
424.422	1	2
424.593	1	-1
424.763	1	2
424.934	1	11
425.104	1	7
425.275	1	18
425.445	1	20
425.616	1	8
425.787	1	10
425.957	1	2
426.128	1	8
426.298	1	13
426.469	1	-5
426.640	1	13
426.810	1	15
426.981	1	15
427.151	1	2
427.322	1	-1
427.493	1	6
427.663	1	6
427.834	1	0
428.004	1	13
428.175	1	9
428.345	1	14
428.516	1	8
428.687	1	9
428.857	1	9
429.028	1	9
429.198	1	13
429.369	1	12
429.540	1	7
429.710	1	2
429.881	1	10
430.051	1	5
430.222	1	6
430.392	1	12
430.563	1	9
430.734	1	11
430.904	1	4
431.075	1	6
431.245	1	17
431.416	1	-1
431.586	1	13
431.757	1	23
431.927	1	2
432.098	1	10
432.269	1	11
432.439	1	5
432.610	1	9
432.780	1	4
432.951	1	-1
433.121	1	18
433.292	1	14
433.462	1	14
433.633	1	18
433.804	1	-6
433.974	1	10
434.145	1	6
434.315	1	7
434.486	1	-9
434.656	1	13
434.827	1	9
434.997	1	14
435.168	1	13
435.339	1	8
435.509	1	3
435.680	1	11
435.850	1	-3
436.021	1	6
436.191	1	12
436.362	1	5
436.532	1	12
436.703	1	6
436.873	1	12
437.044	1	6
437.214	1	17
437.385	1	4
437.556	1	10
437.726	1	10
437.897	1	5
438.067	1	3
438.238	1	5
438.408	1	11
438.579	1	6
438.749	1	-1
438.920	1	7
439.090	1	5
439.261	1	4
439.431	1	6
439.602	1	9
439.772	1	-2
439.943	1	16
440.113	1	14
440.284	1	7
440.455	1	10
440.625	1	9
440.796	1	12
440.966	1	9
441.137	1	7
441.307	1	5
441.478	1	5
441.648	1	12
441.819	1	4
441.989	1	-3
442.160	1	11
442.330	1	14
442.501	1	-7
442.671	1	6
442.842	1	10
443.012	1	7
443.183	1	-2
443.353	1	9
443.524	1	3
443.694	1	18
443.865	1	8
444.035	1	-1
444.206	1	0
444.376	1	16
444.547	1	4
444.717	1	16
444.888	1	4
445.058	1	10
445.229	1	-1
445.399	1	6
445.570	1	-1
445.740	1	7
445.911	1	11
446.081	1	18
446.252	1	-4
446.422	1	14
446.593	1	10
446.763	1	13
446.934	1	20
447.104	1	5
447.275	1	13
447.445	1	7
447.616	1	2
447.786	1	9
447.957	1	9
448.127	1	19
448.298	1	1
448.468	1	19
448.639	1	11
448.809	1	7
448.979	1	14
449.150	1	11
449.320	1	7
449.491	1	16
449.661	1	12
449.832	1	14
450.002	1	6
450.173	1	-3
450.343	1	13
450.514	1	4
450.684	1	9
450.855	1	7
451.025	1	4
451.196	1	10
451.366	1	0
451.537	1	14
451.707	1	14
451.878	1	8
452.048	1	0
452.218	1	-4
452.389	1	13
452.559	1	13
452.730	1	16
452.900	1	8
453.071	1	16
453.241	1	10
453.412	1	2
453.582	1	-2
453.753	1	3
453.923	1	7
454.093	1	23
454.264	1	2
454.434	1	10
454.605	1	7
454.775	1	11
454.946	1	7
455.116	1	-1
455.287	1	6
455.457	1	-1
455.628	1	0
455.798	1	3
455.968	1	6
456.139	1	2
456.309	1	13
456.480	1	13
456.650	1	15
456.821	1	12
456.991	1	11
457.161	1	7
457.332	1	6
457.502	1	12
457.673	1	12
457.843	1	6
458.014	1	1
458.184	1	6
458.355	1	12
458.525	1	13
458.695	1	7
458.866	1	11
459.036	1	6
459.207	1	11
459.377	1	12
459.548	1	-4
459.718	1	11
459.888	1	2
460.059	1	20
460.229	1	6
460.400	1	9
460.570	1	13
460.740	1	1
460.911	1	9
461.081	1	5
461.252	1	6
461.422	1	13
461.593	1	14
461.763	1	3
461.933	1	5
462.104	1	3
462.274	1	8
462.445	1	4
462.615	1	8
462.785	1	9
462.956	1	9
463.126	1	18
463.297	1	5
463.467	1	9
463.638	1	2
463.808	1	10
463.978	1	9
464.149	1	0
464.319	1	10
464.490	1	5
464.660	1	12
464.830	1	7
465.001	1	10
465.171	1	2
465.342	1	-2
465.512	1	5
465.682	1	1
465.853	1	3
466.023	1	1
466.194	1	8
466.364	1	9
466.534	1	3
466.705	1	-4
466.875	1	12
467.045	1	0
467.216	1	10
467.386	1	14
467.557	1	12
467.727	1	15
467.897	1	5
468.068	1	-4
468.238	1	18
468.409	1	-2
468.579	1	2
468.749	1	2
468.920	1	7
469.090	1	7
469.260	1	2
469.431	1	11
469.601	1	9
469.772	1	-11
469.942	1	14
470.112	1	4
470.283	1	16
470.453	1	18
470.623	1	7
470.794	1	4
470.964	1	6
471.135	1	8
471.305	1	12
471.475	1	7
471.646	1	5
471.816	1	5
471.986	1	12
472.157	1	6
472.327	1	7
472.497	1	13
472.668	1	8
472.838	1	14
473.009	1	18
473.179	1	5
473.349	1	10
473.520	1	-4
473.690	1	19
473.860	1	13
474.031	1	11
474.201	1	4
474.371	1	9
474.542	1	6
474.712	1	3
474.882	1	-3
475.053	1	18
475.223	1	-2
475.394	1	6
475.564	1	8
475.734	1	8
475.905	1	5
476.075	1	11
476.245	1	7
476.416	1	-2
476.586	1	8
476.756	1	3
476.927	1	7
477.097	1	-3
477.267	1	11
477.438	1	13
477.608	1	10
477.778	1	11
477.949	1	12
478.119	1	3
478.289	1	0
478.460	1	-1
478.630	1	23
478.800	1	15
478.971	1	3
479.141	1	8
479.311	1	8
479.482	1	9
479.652	1	11
479.822	1	8
479.993	1	8
480.163	1	16
480.333	1	-4
480.504	1	1
480.674	1	-6
480.844	1	4
481.015	1	2
481.185	1	-6
481.355	1	17
481.525	1	10
481.696	1	11
481.866	1	8
482.036	1	8
482.207	1	2
482.377	1	10
482.547	1	-3
482.718	1	1
482.888	1	14
483.058	1	-5
483.229	1	-4
483.399	1	12
483.569	1	8
483.740	1	3
483.910	1	-4
484.080	1	-5
484.250	1	2
484.421	1	0
484.591	1	14
484.761	1	7
484.932	1	1
485.102	1	9
485.272	1	7
485.443	1	2
485.613	1	5
485.783	1	15
485.953	1	9
486.124	1	8
486.294	1	0
486.464	1	3
486.635	1	12
486.805	1	7
486.975	1	7
487.146	1	1
487.316	1	4
487.486	1	1
487.656	1	2
487.827	1	3
487.997	1	-4
488.167	1	16
488.338	1	3
488.508	1	11
488.678	1	8
488.848	1	12
489.019	1	3
489.189	1	-4
489.359	1	1
489.529	1	10
489.700	1	11
489.870	1	3
490.040	1	8
490.211	1	9
490.381	1	-3
490.551	1	-1
490.721	1	12
490.892	1	9
491.062	1	0
491.232	1	6
491.402	1	-1
491.573	1	5
491.743	1	5
491.913	1	-1
492.084	1	8
492.254	1	2
492.424	1	13
492.594	1	8
492.765	1	1
492.935	1	10
493.105	1	11
493.275	1	3
493.446	1	-9
493.616	1	5
493.786	1	7
493.956	1	-6
494.127	1	11
494.297	1	-3
494.467	1	-4
494.637	1	11
494.808	1	8
494.978	1	3
495.148	1	1
495.318	1	4
495.489	1	-5
495.659	1	5
495.829	1	9
495.999	1	3
496.170	1	-4
496.340	1	9
496.510	1	6
496.680	1	-3
496.851	1	5
497.021	1	-6
497.191	1	4
497.361	1	6
497.532	1	5
497.702	1	8
497.872	1	18
498.042	1	5
498.213	1	10
498.383	1	2
498.553	1	2
498.723	1	8
498.894	1	3
499.064	1	-11
499.234	1	-3
499.404	1	-5
499.574	1	3
499.745	1	0
499.915	1	5
500.085	1	3
500.255	1	-2
500.426	1	6
500.596	1	-2
500.766	1	1
500.936	1	9
501.106	1	3
501.277	1	8
501.447	1	0
501.617	1	4
501.787	1	2
501.958	1	-1
502.128	1	-14
502.298	1	-5
502.468	1	10
502.638	1	-1
502.809	1	6
502.979	1	3
503.149	1	-2
503.319	1	-1
503.489	1	-3
503.660	1	0
503.830	1	3
504.000	1	7
504.170	1	6
504.340	1	1
504.511	1	6
504.681	1	-8
504.851	1	5
505.021	1	10
505.192	1	4
505.362	1	7
505.532	1	13
505.702	1	3
505.872	1	0
506.043	1	10
506.213	1	8
506.383	1	7
506.553	1	7
506.723	1	4
506.893	1	-4
507.064	1	-3
507.234	1	1
507.404	1	13
507.574	1	9
507.744	1	3
507.915	1	9
508.085	1	8
508.255	1	4
508.425	1	-5
508.595	1	5
508.766	1	-4
508.936	1	9
509.106	1	2
509.276	1	13
509.446	1	11
509.616	1	3
509.787	1	2
509.957	1	2
510.127	1	3
510.297	1	-11
510.467	1	-6
510.638	1	8
510.808	1	-1
510.978	1	9
511.148	1	17
511.318	1	5
511.488	1	14
511.659	1	3
511.829	1	3
511.999	1	10
512.169	1	-2
512.339	1	7
512.509	1	6
512.680	1	7
512.850	1	5
513.020	1	-1
513.190	1	-4
513.360	1	-1
513.530	1	5
513.700	1	10
513.871	1	9
514.041	1	-3
514.211	1	12
514.381	1	14
514.551	1	-1
514.721	1	10
514.892	1	0
515.062	1	-5
515.232	1	-3
515.402	1	0
515.572	1	2
515.742	1	5
515.912	1	-3
516.083	1	0
516.253	1	14
516.423	1	5
516.593	1	8
516.763	1	-3
516.933	1	-7
517.104	1	9
517.274	1	-1
517.444	1	-9
517.614	1	-3
517.784	1	8
517.954	1	8
518.124	1	-2
518.294	1	10
518.465	1	6
518.635	1	-8
518.805	1	21
518.975	1	10
519.145	1	0
519.315	1	-7
519.485	1	-10
519.656	1	1
519.826	1	11
519.996	1	-8
520.166	1	8
520.336	1	3
520.506	1	-14
520.676	1	6
520.846	1	-7
521.017	1	0
521.187	1	11
521.357	1	-3
521.527	1	1
521.697	1	7
521.867	1	1
522.037	1	-1
522.207	1	-4
522.377	1	6
522.548	1	-1
522.718	1	3
522.888	1	7
523.058	1	6
523.228	1	3
523.398	1	7
523.568	1	-4
523.738	1	-3
523.909	1	-1
524.079	1	-1
524.249	1	-1
524.419	1	4
524.589	1	0
524.759	1	0
524.929	1	0
525.099	1	-4
525.269	1	8
525.439	1	3
525.610	1	-6
525.780	1	6
525.950	1	3
526.120	1	-8
526.290	1	5
526.460	1	-2
526.630	1	-1
526.800	1	5
526.970	1	11
527.140	1	-1
527.311	1	3
527.481	1	11
527.651	1	2
527.821	1	0
527.991	1	4
528.161	1	1
528.331	1	8
528.501	1	6
528.671	1	6
528.841	1	-4
529.011	1	-6
529.181	1	6
529.352	1	-3
529.522	1	-2
529.692	1	9
529.862	1	-1
530.032	1	-2
530.202	1	7
530.372	1	-1
530.542	1	-6
530.712	1	-6
530.882	1	2
531.052	1	18
531.222	1	-18
531.392	1	10
531.563	1	6
531.733	1	-1
531.903	1	3
532.073	1	1
532.243	1	-8
532.413	1	10
532.583	1	-3
532.753	1	4
532.923	1	5
533.093	1	15
533.263	1	3
533.433	1	15
533.603	1	5
533.773	1	2
533.943	1	0
534.113	1	-5
534.284	1	6
534.454	1	-1
534.624	1	2
534.794	1	-1
534.964	1	6
535.134	1	15
535.304	1	-2
535.474	1	-6
535.644	1	0
535.814	1	7
535.984	1	-1
536.154	1	9
536.324	1	11
536.494	1	3
536.664	1	6
536.834	1	-7
537.004	1	2
537.174	1	7
537.344	1	3
537.514	1	1
537.685	1	2
537.855	1	4
538.025	1	4
538.195	1	9
538.365	1	1
538.535	1	0
538.705	1	10
538.875	1	-3
539.045	1	3
539.215	1	-8
539.385	1	-5
539.555	1	-2
539.725	1	3
539.895	1	8
540.065	1	-6
540.235	1	10
540.405	1	-3
540.575	1	-10
540.745	1	-3
540.915	1	-8
541.085	1	-6
541.255	1	-1
541.425	1	5
541.595	1	6
541.765	1	15
541.935	1	-9
542.105	1	0
542.275	1	4
542.445	1	-7
542.615	1	4
542.785	1	-8
542.955	1	-3
543.125	1	-13
543.295	1	3
543.465	1	4
543.635	1	-1
543.805	1	10
543.975	1	-3
544.145	1	0
544.315	1	4
544.485	1	-4
544.655	1	8
544.825	1	2
544.995	1	8
545.165	1	3
545.335	1	2
545.505	1	6
545.675	1	-2
545.845	1	8
546.015	1	6
546.185	1	4
546.355	1	7
546.525	1	1
546.695	1	6
546.865	1	2
547.035	1	2
547.205	1	5
547.375	1	2
547.545	1	13
547.715	1	16
547.885	1	19
548.055	1	-11
548.225	1	1
548.395	1	-11
548.565	1	7
548.735	1	-3
548.905	1	-10
549.075	1	7
549.245	1	-1
549.415	1	-1
549.585	1	11
549.755	1	16
549.925	1	4
550.095	1	-2
550.265	1	3
550.435	1	-2
550.605	1	6
550.775	1	0
550.945	1	2
551.115	1	-3
551.285	1	5
551.455	1	4
551.625	1	-6
551.795	1	-3
551.965	1	2
552.135	1	3
552.305	1	-3
552.475	1	-5
552.645	1	-1
552.815	1	7
552.985	1	6
553.155	1	4
553.325	1	3
553.495	1	1
553.665	1	6
553.835	1	0
554.004	1	-1
554.174	1	2
554.344	1	-3
554.514	1	1
554.684	1	-3
554.854	1	0
555.024	1	-3
555.194	1	4
555.364	1	3
555.534	1	1
555.704	1	14
555.874	1	-3
556.044	1	8
556.214	1	4
556.384	1	1
556.554	1	8
556.724	1	6
556.894	1	-2
557.064	1	6
557.234	1	-8
557.404	1	0
557.573	1	-7
557.743	1	1
557.913	1	-12
558.083	1	8
558.253	1	-10
558.423	1	-5
558.593	1	4
558.763	1	9
558.933	1	1
559.103	1	-2
559.273	1	-9
559.443	1	11
559.613	1	10
559.783	1	2
559.953	1	10
560.122	1	-7
560.292	1	-2
560.462	1	-4
560.632	1	14
560.802	1	-1
560.972	1	0
561.142	1	8
561.312	1	2
561.482	1	7
561.652	1	1
561.822	1	-3
561.992	1	-11
562.162	1	11
562.331	1	3
562.501	1	1
562.671	1	5
562.841	1	5
563.011	1	-8
563.181	1	7
563.351	1	2
563.521	1	3
563.691	1	12
563.861	1	-1
564.031	1	-10
564.201	1	-11
564.370	1	-4
564.540	1	-5
564.710	1	-3
564.880	1	-5
565.050	1	6
565.220	1	0
565.390	1	-3
565.560	1	-6
565.730	1	2
565.900	1	-8
566.069	1	-5
566.239	1	-4
566.409	1	6
566.579	1	5
566.749	1	2
566.919	1	2
567.089	1	4
567.259	1	0
567.429	1	10
567.599	1	-3
567.768	1	0
567.938	1	2
568.108	1	6
568.278	1	3
568.448	1	1
568.618	1	0
568.788	1	-15
568.958	1	-8
569.128	1	-1
569.297	1	-3
569.467	1	13
569.637	1	6
569.807	1	0
569.977	1	2
570.147	1	5
570.317	1	6
570.487	1	7
570.656	1	-3
570.826	1	-6
570.996	1	2
571.166	1	3
571.336	1	0
571.506	1	0
571.676	1	-10
571.846	1	-6
572.015	1	5
572.185	1	5
572.355	1	11
572.525	1	-3
572.695	1	4
572.865	1	3
573.035	1	-8
573.205	1	-9
573.374	1	7
573.544	1	7
573.714	1	-5
573.884	1	2
574.054	1	0
574.224	1	-1
574.394	1	-4
574.563	1	4
574.733	1	9
574.903	1	-3
575.073	1	0
575.243	1	2
575.413	1	3
575.583	1	11
575.752	1	-1
575.922	1	7
576.092	1	-4
576.262	1	11
576.432	1	4
576.602	1	4
576.772	1	0
576.941	1	7
577.111	1	8
577.281	1	11
577.451	1	-7
577.621	1	5
577.791	1	-7
577.960	1	1
578.130	1	0
578.300	1	0
578.470	1	-3
578.640	1	1
578.810	1	-8
578.979	1	4
579.149	1	-9
579.319	1	-4
579.489	1	-6
579.659	1	0
579.829	1	2
579.998	1	-2
580.168	1	-1
580.338	1	5
580.508	1	-4
580.678	1	9
580.848	1	-1
581.017	1	-6
581.187	1	1
581.357	1	2
581.527	1	-2
581.697	1	-15
581.867	1	0
582.036	1	10
582.206	1	-9
582.376	1	3
582.546	1	13
582.716	1	0
582.885	1	-4
583.055	1	-4
583.225	1	-8
583.395	1	-4
583.565	1	-4
583.735	1	-5
583.904	1	0
584.074	1	-6
584.244	1	6
584.414	1	-3
584.584	1	9
584.753	1	-1
584.923	1	6
585.093	1	-9
585.263	1	-1
585.433	1	9
585.602	1	-14
585.772	1	3
585.942	1	0
586.112	1	-1
586.282	1	10
586.451	1	-7
586.621	1	-3
586.791	1	0
586.961	1	3
587.131	1	0
587.300	1	12
587.470	1	-4
587.640	1	2
587.810	1	-11
587.980	1	-4
588.149	1	-5
588.319	1	4
588.489	1	-8
588.659	1	11
588.829	1	-3
588.998	1	-6
589.168	1	-7
589.338	1	-1
589.508	1	5
589.677	1	-9
589.847	1	1
590.017	1	6
590.187	1	0
590.357	1	-9
590.526	1	9
590.696	1	-2
590.866	1	-2
591.036	1	-4
591.205	1	10
591.375	1	2
591.545	1	7
591.715	1	-4
591.885	1	0
592.054	1	7
592.224	1	0
592.394	1	-4
592.564	1	4
592.733	1	2
592.903	1	5
593.073	1	-14
593.243	1	15
593.412	1	-4
593.582	1	1
593.752	1	-6
593.922	1	5
594.091	1	-10
594.261	1	0
594.431	1	5
594.601	1	2
594.771	1	9
594.940	1	-1
595.110	1	-4
595.280	1	0
595.450	1	9
595.619	1	2
595.789	1	5
595.959	1	6
596.129	1	-3
596.298	1	1
596.468	1	0
596.638	1	9
596.808	1	-4
596.977	1	0
597.147	1	2
597.317	1	-7
597.487	1	3
597.656	1	5
597.826	1	-9
597.996	1	3
598.166	1	12
598.335	1	-8
598.505	1	-11
598.675	1	-12
598.844	1	-9
599.014	1	4
599.184	1	-1
599.354	1	4
599.523	1	-7
599.693	1	3
599.863	1	1
600.033	1	-6
600.202	1	11
600.372	1	2
600.542	1	-1
600.712	1	4
600.881	1	5
601.051	1	6
601.221	1	10
601.390	1	3
601.560	1	10
601.730	1	0
601.900	1	5
602.069	1	-6
602.239	1	4
602.409	1	3
602.578	1	13
602.748	1	-3
602.918	1	7
603.088	1	-5
603.257	1	-1
603.427	1	10
603.597	1	-3
603.767	1	-7
603.936	1	3
604.106	1	-1
604.276	1	6
604.445	1	0
604.615	1	-8
604.785	1	3
604.954	1	2
605.124	1	1
605.294	1	4
605.464	1	-5
605.633	1	11
605.803	1	5
605.973	1	3
606.142	1	6
606.312	1	6
606.482	1	0
606.652	1	18
606.821	1	0
606.991	1	-4
607.161	1	7
607.330	1	3
607.500	1	12
607.670	1	0
607.839	1	0
608.009	1	-1
608.179	1	1
608.348	1	0
608.518	1	2
608.688	1	2
608.858	1	7
609.027	1	-5
609.197	1	7
609.367	1	-2
609.536	1	14
609.706	1	-5
609.876	1	7
610.045	1	-4
610.215	1	10
610.385	1	-6
610.554	1	2
610.724	1	0
610.894	1	10
611.063	1	2
611.233	1	-12
611.403	1	-7
611.572	1	9
611.742	1	0
611.912	1	13
612.081	1	1
612.251	1	12
612.421	1	0
612.590	1	-7
612.760	1	3
612.930	1	3
613.099	1	4
613.269	1	-2
613.439	1	0
613.608	1	3
613.778	1	-13
613.948	1	10
614.117	1	5
614.287	1	3
614.457	1	-2
614.626	1	4
614.796	1	4
614.966	1	2
615.135	1	3
615.305	1	13
615.475	1	-5
615.644	1	3
615.814	1	6
615.984	1	8
616.153	1	0
616.323	1	-1
616.493	1	7
616.662	1	2
616.832	1	-2
617.002	1	-8
617.171	1	5
617.341	1	5
617.511	1	-2
617.680	1	-2
617.850	1	2
618.019	1	6
618.189	1	0
618.359	1	-4
618.528	1	-2
618.698	1	4
618.868	1	-1
619.037	1	6
619.207	1	3
619.377	1	1
619.546	1	-10
619.716	1	-10
619.885	1	4
620.055	1	10
620.225	1	2
620.394	1	2
620.564	1	-6
620.734	1	-1
620.903	1	3
621.073	1	-1
621.242	1	-8
621.412	1	6
621.582	1	2
621.751	1	-3
621.921	1	9
622.091	1	-8
622.260	1	-2
622.430	1	8
622.599	1	5
622.769	1	0
622.939	1	-4
623.108	1	8
623.278	1	8
623.448	1	5
623.617	1	-2
623.787	1	4
623.956	1	4
624.126	1	-6
624.296	1	0
624.465	1	0
624.635	1	5
624.804	1	-10
624.974	1	2
625.144	1	22
625.313	1	-6
625.483	1	7
625.652	1	12
625.822	1	4
625.992	1	8
626.161	1	-7
626.331	1	-3
626.501	1	-2
626.670	1	0
626.840	1	2
627.009	1	4
627.179	1	-10
627.348	1	5
627.518	1	-5
627.688	1	-2
627.857	1	11
628.027	1	-13
628.196	1	-6
628.366	1	6
628.536	1	5
628.705	1	2
628.875	1	9
629.044	1	5
629.214	1	-1
629.384	1	2
629.553	1	0
629.723	1	-5
629.892	1	-11
630.062	1	-11
630.232	1	7
630.401	1	0
630.571	1	5
630.740	1	2
630.910	1	7
631.079	1	2
631.249	1	4
631.419	1	6
631.588	1	-5
631.758	1	4
631.927	1	-2
632.097	1	-2
632.266	1	0
632.436	1	6
632.606	1	-5
632.775	1	2
632.945	1	-6
633.114	1	-1
633.284	1	2
633.453	1	20
633.623	1	9
633.793	1	-6
633.962	1	7
634.132	1	5
634.301	1	-3
634.471	1	-2
634.640	1	10
634.810	1	15
634.979	1	4
635.149	1	3
635.319	1	0
635.488	1	1
635.658	1	9
635.827	1	3
635.997	1	8
636.166	1	-1
636.336	1	6
636.505	1	12
636.675	1	1
636.845	1	1
637.014	1	-1
637.184	1	6
637.353	1	-1
637.523	1	10
637.692	1	4
637.862	1	0
638.031	1	-12
638.201	1	2
638.370	1	8
638.540	1	1
638.710	1	14
638.879	1	7
639.049	1	-8
639.218	1	11
639.388	1	6
639.557	1	5
639.727	1	6
639.896	1	4
640.066	1	12
640.235	1	2
640.405	1	1
640.574	1	7
640.744	1	-8
640.914	1	-2
641.083	1	1
641.253	1	7
641.422	1	4
641.592	1	-2
641.761	1	-1
641.931	1	-4
642.100	1	1
642.270	1	-2
642.439	1	10
642.609	1	17
642.778	1	-2
642.948	1	5
643.117	1	-5
643.287	1	0
643.456	1	4
643.626	1	4
643.795	1	5
643.965	1	0
644.134	1	-2
644.304	1	10
644.473	1	-3
644.643	1	10
644.812	1	1
644.982	1	4
645.151	1	9
645.321	1	-6
645.490	1	6
645.660	1	-3
645.829	1	-9
645.999	1	2
646.168	1	8
646.338	1	0
646.507	1	7
646.677	1	-2
646.846	1	5
647.016	1	-5
647.185	1	-2
647.355	1	0
647.524	1	2
647.694	1	-15
647.863	1	10
648.033	1	2
648.202	1	-3
648.372	1	-11
648.541	1	2
648.711	1	1
648.880	1	-6
649.050	1	-6
649.219	1	12
649.389	1	-5
649.558	1	5
649.728	1	-1
649.897	1	-2
650.067	1	2
650.236	1	0
650.406	1	7
650.575	1	7
650.745	1	3
650.914	1	9
651.084	1	8
651.253	1	4
651.423	1	2
651.592	1	-4
651.762	1	10
651.931	1	9
652.101	1	3
652.270	1	4
652.440	1	4
652.609	1	7
652.778	1	3
652.948	1	6
653.117	1	7
653.287	1	-3
653.456	1	4
653.626	1	3
653.795	1	4
653.965	1	1
654.134	1	-10
654.304	1	6
654.473	1	-2
654.643	1	5
654.812	1	5
654.982	1	9
655.151	1	12
655.320	1	12
655.490	1	6
655.659	1	3
655.829	1	-5
655.998	1	-2
656.168	1	-8
656.337	1	0
656.507	1	-7
656.676	1	-2
656.846	1	-2
657.015	1	-7
657.184	1	-5
657.354	1	8
657.523	1	2
657.693	1	-7
657.862	1	-2
658.032	1	6
658.201	1	2
658.371	1	-4
658.540	1	-3
658.709	1	3
658.879	1	7
659.048	1	2
659.218	1	0
659.387	1	3
659.557	1	-2
659.726	1	-2
659.895	1	0
660.065	1	5
660.234	1	4
660.404	1	9
660.573	1	-2
660.743	1	6
660.912	1	-9
661.081	1	-4
661.251	1	14
661.420	1	6
661.590	1	3
661.759	1	-1
661.929	1	7
662.098	1	4
662.267	1	8
662.437	1	1
662.606	1	5
662.776	1	-8
662.945	1	1
663.115	1	2
663.284	1	-6
663.453	1	1
663.623	1	15
663.792	1	4
663.962	1	-3
664.131	1	2
664.300	1	-11
664.470	1	-1
664.639	1	0
664.809	1	8
664.978	1	0
665.148	1	-11
665.317	1	-2
665.486	1	8
665.656	1	4
665.825	1	4
665.995	1	-6
666.164	1	2
666.333	1	2
666.503	1	-4
666.672	1	11
666.842	1	-3
667.011	1	-4
667.180	1	4
667.350	1	2
667.519	1	5
667.689	1	-3
667.858	1	2
668.027	1	-4
668.197	1	9
668.366	1	3
668.536	1	-3
668.705	1	5
668.874	1	2
669.044	1	12
669.213	1	6
669.382	1	9
669.552	1	8
669.721	1	-1
669.891	1	6
670.060	1	6
670.229	1	-3
670.399	1	-3
670.568	1	-3
670.738	1	7
670.907	1	1
671.076	1	3
671.246	1	3
671.415	1	8
671.584	1	1
671.754	1	-9
671.923	1	13
672.093	1	-2
672.262	1	-6
672.431	1	9
672.601	1	17
672.770	1	-3
672.939	1	0
673.109	1	3
673.278	1	1
673.448	1	4
673.617	1	0
673.786	1	6
