325.333	1	-7
325.504	1	10
325.675	1	2
325.846	1	-1
326.017	1	-8
326.188	1	5
326.359	1	13
326.531	1	10
326.702	1	10
326.873	1	1
327.044	1	4
327.215	1	-4
327.386	1	9
327.557	1	6
327.728	1	-5
327.899	1	1
328.070	1	7
328.241	1	16
328.412	1	-6
328.583	1	12
328.754	1	-5
328.926	1	4
329.097	1	4
329.268	1	-3
329.439	1	3
329.610	1	2
329.781	1	6
329.952	1	5
330.123	1	8
330.294	1	-4
330.465	1	10
330.636	1	20
330.807	1	1
330.978	1	2
331.149	1	-2
331.320	1	8
331.492	1	0
331.663	1	-4
331.834	1	1
332.005	1	5
332.176	1	10
332.347	1	15
332.518	1	9
332.689	1	-11
332.860	1	5
333.031	1	15
333.202	1	-6
333.373	1	9
333.544	1	-3
333.715	1	1
333.886	1	2
334.057	1	4
334.228	1	1
334.399	1	10
334.570	1	-5
334.741	1	-3
334.912	1	3
335.084	1	-2
335.255	1	8
335.426	1	5
335.597	1	6
335.768	1	-3
335.939	1	-3
336.110	1	9
336.281	1	6
336.452	1	1
336.623	1	-3
336.794	1	3
336.965	1	-5
337.136	1	4
337.307	1	9
337.478	1	3
337.649	1	-3
337.820	1	-16
337.991	1	9
338.162	1	4
338.333	1	9
338.504	1	5
338.675	1	10
338.846	1	4
339.017	1	13
339.188	1	8
339.359	1	2
339.530	1	5
339.701	1	-2
339.872	1	9
340.043	1	4
340.214	1	1
340.385	1	9
340.556	1	-1
340.727	1	-2
340.898	1	8
341.069	1	-5
341.240	1	1
341.411	1	10
341.582	1	9
341.753	1	-2
341.924	1	5
342.095	1	12
342.266	1	-1
342.437	1	-7
342.608	1	4
342.779	1	10
342.950	1	-1
343.121	1	11
343.292	1	10
343.463	1	0
343.634	1	5
343.805	1	9
343.976	1	-5
344.147	1	-4
344.318	1	7
344.489	1	11
344.660	1	2
344.831	1	9
345.002	1	9
345.173	1	9
345.344	1	-8
345.515	1	1
345.686	1	-6
345.857	1	-1
346.028	1	-3
346.199	1	16
346.370	1	9
346.541	1	-3
346.712	1	9
346.883	1	15
347.054	1	4
347.225	1	-9
347.396	1	-6
347.567	1	10
347.738	1	6
347.909	1	9
348.080	1	7
348.251	1	10
348.422	1	-5
348.593	1	11
348.764	1	-4
348.935	1	0
349.106	1	4
349.277	1	-1
349.448	1	5
349.619	1	2
349.790	1	10
349.961	1	10
350.132	1	22
350.303	1	11
350.474	1	7
350.645	1	12
350.816	1	-7
350.987	1	11
351.157	1	4
351.328	1	-5
351.499	1	-3
351.670	1	1
351.841	1	-3
352.012	1	1
352.183	1	5
352.354	1	6
352.525	1	4
352.696	1	6
352.867	1	5
353.038	1	-3
353.209	1	2
353.380	1	0
353.551	1	3
353.722	1	4
353.893	1	11
354.064	1	4
354.235	1	13
354.406	1	5
354.576	1	2
354.747	1	9
354.918	1	19
355.089	1	11
355.260	1	6
355.431	1	13
355.602	1	7
355.773	1	7
355.944	1	6
356.115	1	-1
356.286	1	-3
356.457	1	9
356.628	1	4
356.799	1	7
356.970	1	1
357.141	1	4
357.311	1	12
357.482	1	0
357.653	1	1
357.824	1	13
357.995	1	8
358.166	1	10
358.337	1	-3
358.508	1	4
358.679	1	7
358.850	1	-6
359.021	1	5
359.192	1	1
359.363	1	-11
359.533	1	5
359.704	1	8
359.875	1	6
360.046	1	1
360.217	1	-8
360.388	1	-13
360.559	1	9
360.730	1	12
360.901	1	7
361.072	1	0
361.243	1	-3
361.414	1	4
361.584	1	13
361.755	1	6
361.926	1	3
362.097	1	3
362.268	1	-1
362.439	1	8
362.610	1	-2
362.781	1	12
362.952	1	2
363.123	1	2
363.293	1	1
363.464	1	10
363.635	1	11
363.806	1	5
363.977	1	7
364.148	1	9
364.319	1	-5
364.490	1	9
364.661	1	8
364.832	1	5
365.002	1	-4
365.173	1	-2
365.344	1	3
365.515	1	5
365.686	1	8
365.857	1	6
366.028	1	9
366.199	1	13
366.370	1	4
366.540	1	1
366.711	1	2
366.882	1	-2
367.053	1	7
367.224	1	1
367.395	1	5
367.566	1	16
367.737	1	4
367.908	1	-1
368.078	1	2
368.249	1	6
368.420	1	-1
368.591	1	4
368.762	1	-10
368.933	1	14
369.104	1	4
369.274	1	12
369.445	1	20
369.616	1	9
369.787	1	9
369.958	1	9
370.129	1	-1
370.300	1	-1
370.471	1	7
370.641	1	-1
370.812	1	13
370.983	1	1
371.154	1	12
371.325	1	8
371.496	1	0
371.667	1	4
371.837	1	7
372.008	1	12
372.179	1	3
372.350	1	20
372.521	1	11
372.692	1	6
372.863	1	3
373.033	1	7
373.204	1	10
373.375	1	-9
373.546	1	8
373.717	1	11
373.888	1	9
374.059	1	10
374.229	1	13
374.400	1	7
374.571	1	5
374.742	1	3
374.913	1	10
375.084	1	23
375.254	1	8
375.425	1	4
375.596	1	10
375.767	1	2
375.938	1	2
376.109	1	5
376.279	1	6
376.450	1	5
376.621	1	14
376.792	1	8
376.963	1	3
377.134	1	1
377.304	1	8
377.475	1	9
377.646	1	7
377.817	1	-4
377.988	1	5
378.159	1	2
378.329	1	17
378.500	1	2
378.671	1	-2
378.842	1	1
379.013	1	-3
379.184	1	16
379.354	1	15
379.525	1	3
379.696	1	12
379.867	1	-10
380.038	1	4
380.209	1	0
380.379	1	10
380.550	1	4
380.721	1	10
380.892	1	10
381.063	1	3
381.233	1	11
381.404	1	16
381.575	1	11
381.746	1	12
381.917	1	6
382.087	1	2
382.258	1	8
382.429	1	7
382.600	1	14
382.771	1	8
382.941	1	4
383.112	1	0
383.283	1	21
383.454	1	6
383.625	1	7
383.795	1	9
383.966	1	13
384.137	1	10
384.308	1	4
384.479	1	10
384.649	1	18
384.820	1	10
384.991	1	1
385.162	1	21
385.333	1	4
385.503	1	5
385.674	1	16
385.845	1	2
386.016	1	15
386.187	1	4
386.357	1	6
386.528	1	-4
386.699	1	4
386.870	1	11
387.041	1	13
387.211	1	4
387.382	1	-12
387.553	1	5
387.724	1	8
387.894	1	15
388.065	1	17
388.236	1	13
388.407	1	17
388.578	1	11
388.748	1	8
388.919	1	18
389.090	1	13
389.261	1	17
389.431	1	18
389.602	1	7
389.773	1	-8
389.944	1	9
390.114	1	14
390.285	1	6
390.456	1	-2
390.627	1	16
390.798	1	17
390.968	1	9
391.139	1	6
391.310	1	22
391.481	1	7
391.651	1	9
391.822	1	9
391.993	1	4
392.164	1	-2
392.334	1	-1
392.505	1	12
392.676	1	22
392.847	1	13
393.017	1	13
393.188	1	12
393.359	1	10
393.530	1	10
393.700	1	15
393.871	1	3
394.042	1	12
394.213	1	21
394.383	1	15
394.554	1	9
394.725	1	5
394.896	1	12
395.066	1	9
395.237	1	-8
395.408	1	8
395.579	1	9
395.749	1	14
395.920	1	13
396.091	1	16
396.262	1	6
396.432	1	12
396.603	1	6
396.774	1	4
396.945	1	8
397.115	1	3
397.286	1	18
397.457	1	9
397.627	1	5
397.798	1	13
397.969	1	7
398.140	1	8
398.310	1	13
398.481	1	6
398.652	1	13
398.823	1	5
398.993	1	17
399.164	1	14
399.335	1	10
399.505	1	19
399.676	1	19
399.847	1	19
400.018	1	9
400.188	1	15
400.359	1	17
400.530	1	-1
400.700	1	13
400.871	1	21
401.042	1	4
401.213	1	8
401.383	1	15
401.554	1	18
401.725	1	5
401.895	1	-1
402.066	1	20
402.237	1	18
402.408	1	17
402.578	1	23
402.749	1	12
402.920	1	24
403.090	1	18
403.261	1	17
403.432	1	14
403.603	1	0
403.773	1	11
403.944	1	22
404.115	1	6
404.285	1	28
404.456	1	7
404.627	1	7
404.797	1	9
404.968	1	11
405.139	1	13
405.310	1	12
405.480	1	12
405.651	1	19
405.822	1	15
405.992	1	5
406.163	1	13
406.334	1	17
406.504	1	6
406.675	1	9
406.846	1	21
407.016	1	2
407.187	1	10
407.358	1	15
407.528	1	9
407.699	1	8
407.870	1	18
408.041	1	12
408.211	1	-2
408.382	1	5
408.553	1	-2
408.723	1	20
408.894	1	12
409.065	1	18
409.235	1	11
409.406	1	7
409.577	1	3
409.747	1	22
409.918	1	4
410.089	1	5
410.259	1	17
410.430	1	13
410.601	1	0
410.771	1	13
410.942	1	4
411.113	1	22
411.283	1	14
411.454	1	6
411.625	1	12
411.795	1	9
411.966	1	3
412.137	1	2
412.307	1	5
412.478	1	18
412.649	1	12
412.819	1	2
412.990	1	12
413.161	1	22
413.331	1	14
413.502	1	2
413.672	1	14
413.843	1	22
414.014	1	27
414.184	1	15
414.355	1	1
414.526	1	17
414.696	1	21
414.867	1	14
415.038	1	8
415.208	1	8
415.379	1	13
415.550	1	18
415.720	1	15
415.891	1	15
416.062	1	7
416.232	1	11
416.403	1	14
416.573	1	5
416.744	1	3
416.915	1	12
417.085	1	4
417.256	1	12
417.427	1	16
417.597	1	10
417.768	1	8
417.939	1	12
418.109	1	7
418.280	1	13
418.450	1	15
418.621	1	12
418.792	1	0
418.962	1	8
419.133	1	13
419.304	1	6
419.474	1	10
419.645	1	16
419.815	1	17
419.986	1	7
420.157	1	20
420.327	1	8
420.498	1	14
420.669	1	14
420.839	1	9
421.010	1	14
421.180	1	10
421.351	1	23
421.522	1	9
421.692	1	19
421.863	1	12
422.033	1	15
422.204	1	17
422.375	1	5
422.545	1	23
422.716	1	6
422.886	1	18
423.057	1	1
423.228	1	15
423.398	1	10
423.569	1	20
423.740	1	4
423.910	1	13
424.081	1	25
424.251	1	11
424.422	1	2
424.593	1	7
424.763	1	18
424.934	1	6
425.104	1	11
425.275	1	13
425.445	1	15
425.616	1	19
425.787	1	9
425.957	1	10
426.128	1	19
426.298	1	13
426.469	1	1
426.640	1	15
426.810	1	11
426.981	1	16
427.151	1	11
427.322	1	-2
427.493	1	9
427.663	1	13
427.834	1	9
428.004	1	14
428.175	1	12
428.345	1	9
428.516	1	16
428.687	1	11
428.857	1	14
429.028	1	15
429.198	1	15
429.369	1	13
429.540	1	11
429.710	1	24
429.881	1	18
430.051	1	15
430.222	1	11
430.392	1	17
430.563	1	8
430.734	1	13
430.904	1	10
431.075	1	6
431.245	1	14
431.416	1	-3
431.586	1	18
431.757	1	15
431.927	1	1
432.098	1	15
432.269	1	17
432.439	1	6
432.610	1	12
432.780	1	6
432.951	1	11
433.121	1	25
433.292	1	14
433.462	1	14
433.633	1	23
433.804	1	5
433.974	1	13
434.145	1	11
434.315	1	21
434.486	1	2
434.656	1	12
434.827	1	9
434.997	1	19
435.168	1	12
435.339	1	13
435.509	1	15
435.680	1	17
435.850	1	11
436.021	1	20
436.191	1	20
436.362	1	22
436.532	1	9
436.703	1	23
436.873	1	10
437.044	1	10
437.214	1	17
437.385	1	17
437.556	1	8
437.726	1	2
437.897	1	11
438.067	1	10
438.238	1	11
438.408	1	20
438.579	1	17
438.749	1	4
438.920	1	11
439.090	1	10
439.261	1	12
439.431	1	10
439.602	1	11
439.772	1	17
439.943	1	10
440.113	1	16
440.284	1	14
440.455	1	18
440.625	1	11
440.796	1	4
440.966	1	3
441.137	1	18
441.307	1	12
441.478	1	15
441.648	1	13
441.819	1	13
441.989	1	4
442.160	1	7
442.330	1	24
442.501	1	3
442.671	1	5
442.842	1	24
443.012	1	11
443.183	1	13
443.353	1	19
443.524	1	15
443.694	1	10
443.865	1	19
444.035	1	7
444.206	1	-1
444.376	1	17
444.547	1	6
444.717	1	17
444.888	1	8
445.058	1	7
445.229	1	18
445.399	1	17
445.570	1	11
445.740	1	21
445.911	1	11
446.081	1	27
446.252	1	3
446.422	1	18
446.593	1	15
446.763	1	1
446.934	1	17
447.104	1	4
447.275	1	27
447.445	1	7
447.616	1	9
447.786	1	-1
447.957	1	11
448.127	1	27
448.298	1	14
448.468	1	15
448.639	1	7
448.809	1	9
448.979	1	14
449.150	1	11
449.320	1	14
449.491	1	12
449.661	1	14
449.832	1	21
450.002	1	16
450.173	1	7
450.343	1	17
450.514	1	8
450.684	1	7
450.855	1	9
451.025	1	8
451.196	1	19
451.366	1	16
451.537	1	12
451.707	1	24
451.878	1	10
452.048	1	4
452.218	1	6
452.389	1	11
452.559	1	17
452.730	1	14
452.900	1	23
453.071	1	13
453.241	1	10
453.412	1	12
453.582	1	4
453.753	1	11
453.923	1	17
454.093	1	19
454.264	1	-1
454.434	1	17
454.605	1	10
454.775	1	11
454.946	1	11
455.116	1	9
455.287	1	14
455.457	1	9
455.628	1	9
455.798	1	10
455.968	1	5
456.139	1	11
456.309	1	19
456.480	1	16
456.650	1	26
456.821	1	17
456.991	1	14
457.161	1	14
457.332	1	9
457.502	1	22
457.673	1	16
457.843	1	14
458.014	1	6
458.184	1	11
458.355	1	18
458.525	1	18
458.695	1	10
458.866	1	24
459.036	1	23
459.207	1	14
459.377	1	11
459.548	1	4
459.718	1	8
459.888	1	13
460.059	1	19
460.229	1	15
460.400	1	6
460.570	1	12
460.740	1	12
460.911	1	12
461.081	1	13
461.252	1	0
461.422	1	12
461.593	1	21
461.763	1	15
461.933	1	6
462.104	1	13
462.274	1	1
462.445	1	6
462.615	1	7
462.785	1	15
462.956	1	16
463.126	1	20
463.297	1	13
463.467	1	13
463.638	1	5
463.808	1	16
463.978	1	5
464.149	1	6
464.319	1	11
464.490	1	9
464.660	1	9
464.830	1	13
465.001	1	7
465.171	1	-4
465.342	1	7
465.512	1	16
465.682	1	3
465.853	1	5
466.023	1	10
466.194	1	12
466.364	1	10
466.534	1	-1
466.705	1	-7
466.875	1	17
467.045	1	-3
467.216	1	8
467.386	1	12
467.557	1	15
467.727	1	3
467.897	1	12
468.068	1	-8
468.238	1	8
468.409	1	3
468.579	1	9
468.749	1	14
468.920	1	-3
469.090	1	17
469.260	1	15
469.431	1	18
469.601	1	0
469.772	1	-5
469.942	1	10
470.112	1	5
470.283	1	19
470.453	1	15
470.623	1	14
470.794	1	6
470.964	1	13
471.135	1	17
471.305	1	13
471.475	1	8
471.646	1	8
471.816	1	10
471.986	1	14
472.157	1	19
472.327	1	12
472.497	1	20
472.668	1	-1
472.838	1	8
473.009	1	11
473.179	1	13
473.349	1	8
473.520	1	7
473.690	1	18
473.860	1	7
474.031	1	15
474.201	1	9
474.371	1	11
474.542	1	8
474.712	1	6
474.882	1	-1
475.053	1	15
475.223	1	4
475.394	1	1
475.564	1	8
475.734	1	6
475.905	1	8
476.075	1	4
476.245	1	8
476.416	1	4
476.586	1	11
476.756	1	13
476.927	1	-3
477.097	1	5
477.267	1	11
477.438	1	21
477.608	1	6
477.778	1	13
477.949	1	12
478.119	1	12
478.289	1	7
478.460	1	3
478.630	1	20
478.800	1	8
478.971	1	7
479.141	1	6
479.311	1	19
479.482	1	12
479.652	1	5
479.822	1	13
479.993	1	4
480.163	1	9
480.333	1	3
480.504	1	5
480.674	1	5
480.844	1	5
481.015	1	9
481.185	1	4
481.355	1	12
481.525	1	16
481.696	1	10
481.866	1	16
482.036	1	15
482.207	1	11
482.377	1	11
482.547	1	-2
482.718	1	-1
482.888	1	12
483.058	1	0
483.229	1	9
483.399	1	12
483.569	1	14
483.740	1	14
483.910	1	0
484.080	1	0
484.250	1	-1
484.421	1	7
484.591	1	2
484.761	1	5
484.932	1	8
485.102	1	10
485.272	1	11
485.443	1	16
485.613	1	10
485.783	1	9
485.953	1	11
486.124	1	15
486.294	1	-1
486.464	1	-3
486.635	1	1
486.805	1	6
486.975	1	11
487.146	1	-4
487.316	1	8
487.486	1	6
487.656	1	-4
487.827	1	3
487.997	1	-4
488.167	1	9
488.338	1	10
488.508	1	9
488.678	1	1
488.848	1	11
489.019	1	2
489.189	1	10
489.359	1	5
489.529	1	3
489.700	1	9
489.870	1	4
490.040	1	6
490.211	1	3
490.381	1	12
490.551	1	5
490.721	1	3
490.892	1	-2
491.062	1	4
491.232	1	0
491.402	1	5
491.573	1	4
491.743	1	3
491.913	1	1
492.084	1	10
492.254	1	9
492.424	1	12
492.594	1	14
492.765	1	11
492.935	1	-3
493.105	1	6
493.275	1	6
493.446	1	2
493.616	1	8
493.786	1	12
493.956	1	-3
494.127	1	16
494.297	1	-4
494.467	1	8
494.637	1	15
494.808	1	6
494.978	1	-1
495.148	1	3
495.318	1	11
495.489	1	-5
495.659	1	2
495.829	1	-1
495.999	1	4
496.170	1	-4
496.340	1	12
496.510	1	7
496.680	1	3
496.851	1	1
497.021	1	0
497.191	1	9
497.361	1	3
497.532	1	2
497.702	1	12
497.872	1	23
498.042	1	6
498.213	1	4
498.383	1	1
498.553	1	-9
498.723	1	15
498.894	1	6
499.064	1	2
499.234	1	4
499.404	1	-1
499.574	1	3
499.745	1	3
499.915	1	4
500.085	1	-1
500.255	1	-10
500.426	1	4
500.596	1	-4
500.766	1	4
500.936	1	7
501.106	1	5
501.277	1	3
501.447	1	9
501.617	1	6
501.787	1	3
501.958	1	2
502.128	1	-10
502.298	1	-2
502.468	1	12
502.638	1	2
502.809	1	9
502.979	1	13
503.149	1	9
503.319	1	12
503.489	1	2
503.660	1	-4
503.830	1	2
504.000	1	6
504.170	1	12
504.340	1	-3
504.511	1	9
504.681	1	0
504.851	1	14
505.021	1	12
505.192	1	1
505.362	1	3
505.532	1	1
505.702	1	6
505.872	1	2
506.043	1	15
506.213	1	12
506.383	1	10
506.553	1	4
506.723	1	12
506.893	1	-5
507.064	1	2
507.234	1	-3
507.404	1	3
507.574	1	-1
507.744	1	2
507.915	1	19
508.085	1	16
508.255	1	9
508.425	1	14
508.595	1	1
508.766	1	-4
508.936	1	-2
509.106	1	10
509.276	1	10
509.446	1	-2
509.616	1	6
509.787	1	7
509.957	1	6
510.127	1	0
510.297	1	-3
510.467	1	-7
510.638	1	17
510.808	1	-2
510.978	1	8
511.148	1	24
511.318	1	13
511.488	1	7
511.659	1	-5
511.829	1	3
511.999	1	11
512.169	1	-1
512.339	1	17
512.509	1	5
512.680	1	3
512.850	1	8
513.020	1	-3
513.190	1	1
513.360	1	17
513.530	1	-2
513.700	1	12
513.871	1	9
514.041	1	2
514.211	1	12
514.381	1	12
514.551	1	2
514.721	1	3
514.892	1	-3
515.062	1	3
515.232	1	1
515.402	1	0
515.572	1	-6
515.742	1	6
515.912	1	1
516.083	1	7
516.253	1	8
516.423	1	13
516.593	1	-9
516.763	1	2
516.933	1	-3
517.104	1	-4
517.274	1	-9
517.444	1	-1
517.614	1	3
517.784	1	12
517.954	1	9
518.124	1	5
518.294	1	12
518.465	1	1
518.635	1	-1
518.805	1	20
518.975	1	0
519.145	1	0
519.315	1	2
519.485	1	0
519.656	1	3
519.826	1	6
519.996	1	-5
520.166	1	23
520.336	1	0
520.506	1	-5
520.676	1	-5
520.846	1	1
521.017	1	0
521.187	1	9
521.357	1	3
521.527	1	4
521.697	1	9
521.867	1	5
522.037	1	2
522.207	1	-8
522.377	1	0
522.548	1	0
522.718	1	4
522.888	1	11
523.058	1	10
523.228	1	1
523.398	1	8
523.568	1	3
523.738	1	4
523.909	1	-3
524.079	1	0
524.249	1	4
524.419	1	6
524.589	1	-1
524.759	1	9
524.929	1	5
525.099	1	0
525.269	1	5
525.439	1	-2
525.610	1	-2
525.780	1	9
525.950	1	8
526.120	1	-1
526.290	1	-5
526.460	1	1
526.630	1	12
526.800	1	3
526.970	1	7
527.140	1	2
527.311	1	-4
527.481	1	7
527.651	1	9
527.821	1	-8
527.991	1	6
528.161	1	2
528.331	1	14
528.501	1	10
528.671	1	7
528.841	1	12
529.011	1	-1
529.181	1	4
529.352	1	2
529.522	1	8
529.692	1	2
529.862	1	-6
530.032	1	2
530.202	1	4
530.372	1	-4
530.542	1	5
530.712	1	5
530.882	1	-5
531.052	1	7
531.222	1	-7
531.392	1	9
531.563	1	8
531.733	1	4
531.903	1	4
532.073	1	4
532.243	1	1
532.413	1	13
532.583	1	-7
532.753	1	-4
532.923	1	10
533.093	1	8
533.263	1	2
533.433	1	10
533.603	1	12
533.773	1	-3
533.943	1	0
534.113	1	2
534.284	1	-7
534.454	1	-1
534.624	1	-3
534.794	1	-11
534.964	1	7
535.134	1	17
535.304	1	2
535.474	1	-1
535.644	1	4
535.814	1	9
535.984	1	11
536.154	1	6
536.324	1	23
536.494	1	2
536.664	1	4
536.834	1	8
537.004	1	-1
537.174	1	6
537.344	1	2
537.514	1	9
537.685	1	4
537.855	1	7
538.025	1	6
538.195	1	2
538.365	1	-2
538.535	1	-10
538.705	1	3
538.875	1	11
539.045	1	2
539.215	1	-6
539.385	1	3
539.555	1	8
539.725	1	-4
539.895	1	4
540.065	1	15
540.235	1	5
540.405	1	5
540.575	1	-4
540.745	1	-3
540.915	1	3
541.085	1	-1
541.255	1	-7
541.425	1	6
541.595	1	11
541.765	1	16
541.935	1	-7
542.105	1	4
542.275	1	4
542.445	1	2
542.615	1	9
542.785	1	-9
542.955	1	-6
543.125	1	-9
543.295	1	-1
543.465	1	14
543.635	1	7
543.805	1	16
543.975	1	-2
544.145	1	-7
544.315	1	-2
544.485	1	3
544.655	1	11
544.825	1	3
544.995	1	0
545.165	1	7
545.335	1	1
545.505	1	10
545.675	1	-5
545.845	1	9
546.015	1	5
546.185	1	6
546.355	1	6
546.525	1	-5
546.695	1	-7
546.865	1	2
547.035	1	7
547.205	1	2
547.375	1	8
547.545	1	12
547.715	1	9
547.885	1	7
548.055	1	-3
548.225	1	7
548.395	1	2
548.565	1	7
548.735	1	9
548.905	1	-7
549.075	1	5
549.245	1	-2
549.415	1	2
549.585	1	9
549.755	1	13
549.925	1	6
550.095	1	0
550.265	1	3
550.435	1	-4
550.605	1	1
550.775	1	2
550.945	1	9
551.115	1	-6
551.285	1	-1
551.455	1	9
551.625	1	-4
551.795	1	-5
551.965	1	2
552.135	1	-8
552.305	1	-5
552.475	1	4
552.645	1	1
552.815	1	12
552.985	1	-2
553.155	1	-7
553.325	1	4
553.495	1	9
553.665	1	6
553.835	1	13
554.004	1	-4
554.174	1	-3
554.344	1	6
554.514	1	-4
554.684	1	4
554.854	1	-1
555.024	1	3
555.194	1	6
555.364	1	10
555.534	1	-4
555.704	1	8
555.874	1	-3
556.044	1	7
556.214	1	7
556.384	1	-1
556.554	1	3
556.724	1	-1
556.894	1	-3
557.064	1	9
557.234	1	-10
557.404	1	4
557.573	1	-14
557.743	1	-6
557.913	1	-8
558.083	1	6
558.253	1	-4
558.423	1	-1
558.593	1	6
558.763	1	3
558.933	1	-2
559.103	1	15
559.273	1	5
559.443	1	-1
559.613	1	8
559.783	1	16
559.953	1	1
560.122	1	-3
560.292	1	4
560.462	1	1
560.632	1	7
560.802	1	-4
560.972	1	5
561.142	1	15
561.312	1	3
561.482	1	8
561.652	1	-4
561.822	1	-9
561.992	1	-3
562.162	1	9
562.331	1	16
562.501	1	-8
562.671	1	11
562.841	1	4
563.011	1	-9
563.181	1	5
563.351	1	8
563.521	1	5
563.691	1	7
563.861	1	-13
564.031	1	0
564.201	1	0
564.370	1	10
564.540	1	-7
564.710	1	13
564.880	1	5
565.050	1	-7
565.220	1	-8
565.390	1	3
565.560	1	-2
565.730	1	4
565.900	1	3
566.069	1	9
566.239	1	1
566.409	1	0
566.579	1	-4
566.749	1	2
566.919	1	-5
567.089	1	-3
567.259	1	-1
567.429	1	5
567.599	1	2
567.768	1	4
567.938	1	8
568.108	1	0
568.278	1	2
568.448	1	-3
568.618	1	3
568.788	1	-13
568.958	1	-15
569.128	1	-8
569.297	1	3
569.467	1	15
569.637	1	4
569.807	1	7
569.977	1	6
570.147	1	-6
570.317	1	3
570.487	1	1
570.656	1	-2
570.826	1	-7
570.996	1	-4
571.166	1	7
571.336	1	-6
571.506	1	7
571.676	1	-3
571.846	1	-2
572.015	1	0
572.185	1	-8
572.355	1	9
572.525	1	-5
572.695	1	-8
572.865	1	23
573.035	1	-5
573.205	1	-3
573.374	1	8
573.544	1	2
573.714	1	0
573.884	1	10
574.054	1	-5
574.224	1	9
574.394	1	-3
574.563	1	15
574.733	1	9
574.903	1	5
575.073	1	-5
575.243	1	10
575.413	1	-2
575.583	1	6
575.752	1	-8
575.922	1	14
576.092	1	1
576.262	1	-1
576.432	1	9
576.602	1	0
576.772	1	-7
576.941	1	15
577.111	1	4
577.281	1	22
577.451	1	-12
577.621	1	6
577.791	1	-3
577.960	1	-2
578.130	1	-6
578.300	1	2
578.470	1	6
578.640	1	-6
578.810	1	3
578.979	1	1
579.149	1	-5
579.319	1	-6
579.489	1	3
579.659	1	2
579.829	1	4
579.998	1	-4
580.168	1	0
580.338	1	2
580.508	1	5
580.678	1	9
580.848	1	-2
581.017	1	-1
581.187	1	-2
581.357	1	-3
581.527	1	-8
581.697	1	-3
581.867	1	10
582.036	1	1
582.206	1	6
582.376	1	10
582.546	1	11
582.716	1	2
582.885	1	-1
583.055	1	2
583.225	1	-3
583.395	1	-6
583.565	1	-2
583.735	1	0
583.904	1	-7
584.074	1	-2
584.244	1	3
584.414	1	-3
584.584	1	6
584.753	1	8
584.923	1	13
585.093	1	-10
585.263	1	-2
585.433	1	20
585.602	1	0
585.772	1	1
585.942	1	-4
586.112	1	1
586.282	1	-1
586.451	1	0
586.621	1	-2
586.791	1	1
586.961	1	4
587.131	1	3
587.300	1	10
587.470	1	3
587.640	1	-3
587.810	1	-8
587.980	1	-2
588.149	1	0
588.319	1	3
588.489	1	-1
588.659	1	10
588.829	1	-7
588.998	1	0
589.168	1	-2
589.338	1	0
589.508	1	-2
589.677	1	-5
589.847	1	-3
590.017	1	6
590.187	1	-5
590.357	1	0
590.526	1	17
590.696	1	-5
590.866	1	3
591.036	1	-6
591.205	1	-4
591.375	1	8
591.545	1	3
591.715	1	-2
591.885	1	-4
592.054	1	1
592.224	1	0
592.394	1	-9
592.564	1	2
592.733	1	-3
592.903	1	0
593.073	1	-15
593.243	1	8
593.412	1	4
593.582	1	2
593.752	1	1
593.922	1	6
594.091	1	3
594.261	1	-1
594.431	1	3
594.601	1	0
594.771	1	7
594.940	1	-2
595.110	1	7
595.280	1	5
595.450	1	4
595.619	1	4
595.789	1	13
595.959	1	4
596.129	1	-1
596.298	1	4
596.468	1	-1
596.638	1	1
596.808	1	-4
596.977	1	7
597.147	1	13
597.317	1	4
597.487	1	5
597.656	1	2
597.826	1	0
597.996	1	-2
598.166	1	7
598.335	1	-8
598.505	1	-8
598.675	1	0
598.844	1	-2
599.014	1	1
599.184	1	5
599.354	1	3
599.523	1	-7
599.693	1	1
599.863	1	6
600.033	1	-6
600.202	1	7
600.372	1	2
600.542	1	3
600.712	1	8
600.881	1	2
601.051	1	2
601.221	1	14
601.390	1	5
601.560	1	3
601.730	1	-2
601.900	1	19
602.069	1	-16
602.239	1	3
602.409	1	0
602.578	1	12
602.748	1	0
602.918	1	3
603.088	1	9
603.257	1	7
603.427	1	14
603.597	1	-4
603.767	1	4
603.936	1	3
604.106	1	-1
604.276	1	6
604.445	1	0
604.615	1	8
604.785	1	0
604.954	1	6
605.124	1	-7
605.294	1	0
605.464	1	-8
605.633	1	4
605.803	1	15
605.973	1	1
606.142	1	6
606.312	1	9
606.482	1	3
606.652	1	10
606.821	1	6
606.991	1	-4
607.161	1	7
607.330	1	2
607.500	1	9
607.670	1	0
607.839	1	1
608.009	1	-4
608.179	1	-4
608.348	1	-8
608.518	1	2
608.688	1	13
608.858	1	-2
609.027	1	-4
609.197	1	9
609.367	1	-10
609.536	1	10
609.706	1	-4
609.876	1	-3
610.045	1	7
610.215	1	8
610.385	1	1
610.554	1	2
610.724	1	1
610.894	1	-2
611.063	1	5
611.233	1	-8
611.403	1	0
611.572	1	12
611.742	1	0
611.912	1	10
612.081	1	0
612.251	1	15
612.421	1	-2
612.590	1	-11
612.760	1	5
612.930	1	-5
613.099	1	7
613.269	1	4
613.439	1	-1
613.608	1	7
613.778	1	-6
613.948	1	16
614.117	1	1
614.287	1	1
614.457	1	2
614.626	1	11
614.796	1	3
614.966	1	5
615.135	1	4
615.305	1	13
615.475	1	-3
615.644	1	14
615.814	1	-4
615.984	1	9
616.153	1	0
616.323	1	5
616.493	1	-3
616.662	1	3
616.832	1	-1
617.002	1	1
617.171	1	3
617.341	1	-3
617.511	1	-11
617.680	1	6
617.850	1	-4
618.019	1	3
618.189	1	-9
618.359	1	-1
618.528	1	1
618.698	1	6
618.868	1	2
619.037	1	-1
619.207	1	0
619.377	1	-1
619.546	1	-6
619.716	1	0
619.885	1	1
620.055	1	13
620.225	1	8
620.394	1	-1
620.564	1	0
620.734	1	9
620.903	1	3
621.073	1	1
621.242	1	0
621.412	1	5
621.582	1	-4
621.751	1	17
621.921	1	5
622.091	1	-2
622.260	1	-1
622.430	1	16
622.599	1	6
622.769	1	6
622.939	1	-3
623.108	1	7
623.278	1	12
623.448	1	6
623.617	1	4
623.787	1	10
623.956	1	9
624.126	1	1
624.296	1	8
624.465	1	8
624.635	1	13
624.804	1	0
624.974	1	3
625.144	1	17
625.313	1	-1
625.483	1	1
625.652	1	14
625.822	1	2
625.992	1	8
626.161	1	-8
626.331	1	4
626.501	1	8
626.670	1	5
626.840	1	3
627.009	1	5
627.179	1	-1
627.348	1	5
627.518	1	8
627.688	1	3
627.857	1	7
628.027	1	-4
628.196	1	-3
628.366	1	2
628.536	1	12
628.705	1	0
628.875	1	11
629.044	1	7
629.214	1	5
629.384	1	2
629.553	1	0
629.723	1	0
629.892	1	1
630.062	1	-1
630.232	1	6
630.401	1	0
630.571	1	13
630.740	1	-2
630.910	1	4
631.079	1	0
631.249	1	13
631.419	1	6
631.588	1	0
631.758	1	-4
631.927	1	3
632.097	1	6
632.266	1	5
632.436	1	7
632.606	1	1
632.775	1	5
632.945	1	-9
633.114	1	4
633.284	1	-2
633.453	1	7
633.623	1	20
633.793	1	-2
633.962	1	-3
634.132	1	-4
634.301	1	0
634.471	1	-6
634.640	1	13
634.810	1	1
634.979	1	10
635.149	1	2
635.319	1	2
635.488	1	1
635.658	1	6
635.827	1	-13
635.997	1	2
636.166	1	-5
636.336	1	1
636.505	1	-4
636.675	1	4
636.845	1	7
637.014	1	5
637.184	1	12
637.353	1	4
637.523	1	8
637.692	1	5
637.862	1	4
638.031	1	-3
638.201	1	4
638.370	1	6
638.540	1	-5
638.710	1	-2
638.879	1	9
639.049	1	4
639.218	1	9
639.388	1	3
639.557	1	1
639.727	1	20
639.896	1	3
640.066	1	1
640.235	1	2
640.405	1	7
640.574	1	-7
640.744	1	-6
640.914	1	6
641.083	1	-2
641.253	1	1
641.422	1	5
641.592	1	9
641.761	1	-3
641.931	1	-5
642.100	1	4
642.270	1	2
642.439	1	-1
642.609	1	17
642.778	1	7
642.948	1	6
643.117	1	7
643.287	1	-3
643.456	1	3
643.626	1	-3
643.795	1	3
643.965	1	10
644.134	1	-5
644.304	1	3
644.473	1	-5
644.643	1	-8
644.812	1	-2
644.982	1	-3
645.151	1	2
645.321	1	-4
645.490	1	13
645.660	1	5
645.829	1	12
645.999	1	-3
646.168	1	5
646.338	1	1
646.507	1	-4
646.677	1	-1
646.846	1	6
647.016	1	7
647.185	1	7
647.355	1	2
647.524	1	3
647.694	1	0
647.863	1	9
648.033	1	4
648.202	1	3
648.372	1	1
648.541	1	1
648.711	1	3
648.880	1	4
649.050	1	4
649.219	1	1
649.389	1	0
649.558	1	4
649.728	1	3
649.897	1	0
650.067	1	10
650.236	1	5
650.406	1	3
650.575	1	7
650.745	1	2
650.914	1	9
651.084	1	5
651.253	1	-2
651.423	1	2
651.592	1	-2
651.762	1	-1
651.931	1	5
652.101	1	6
652.270	1	1
652.440	1	3
652.609	1	15
652.778	1	15
652.948	1	1
653.117	1	7
653.287	1	-3
653.456	1	1
653.626	1	2
653.795	1	6
653.965	1	-2
654.134	1	-6
654.304	1	7
654.473	1	-7
654.643	1	11
654.812	1	10
654.982	1	6
655.151	1	10
655.320	1	6
655.490	1	-1
655.659	1	5
655.829	1	9
655.998	1	2
656.168	1	0
656.337	1	7
656.507	1	-1
656.676	1	-6
656.846	1	-4
657.015	1	-4
657.184	1	-6
657.354	1	1
657.523	1	12
657.693	1	1
657.862	1	-6
658.032	1	13
658.201	1	2
658.371	1	-2
658.540	1	6
658.709	1	-6
658.879	1	4
659.048	1	0
659.218	1	-5
659.387	1	10
659.557	1	4
659.726	1	-2
659.895	1	4
660.065	1	12
660.234	1	3
660.404	1	0
660.573	1	4
660.743	1	-7
660.912	1	-11
661.081	1	-2
661.251	1	4
661.420	1	5
661.590	1	4
661.759	1	7
661.929	1	2
662.098	1	-2
662.267	1	10
662.437	1	14
662.606	1	2
662.776	1	-3
662.945	1	12
663.115	1	-1
663.284	1	7
663.453	1	5
663.623	1	7
663.792	1	4
663.962	1	-2
664.131	1	4
664.300	1	-13
664.470	1	8
664.639	1	6
664.809	1	12
664.978	1	0
665.148	1	1
665.317	1	0
665.486	1	-2
665.656	1	-1
665.825	1	9
665.995	1	-3
666.164	1	7
666.333	1	5
666.503	1	8
666.672	1	6
666.842	1	-7
667.011	1	-3
667.180	1	1
667.350	1	-1
667.519	1	3
667.689	1	1
667.858	1	2
668.027	1	-1
668.197	1	11
668.366	1	-5
668.536	1	-11
668.705	1	5
668.874	1	3
669.044	1	5
669.213	1	8
669.382	1	10
669.552	1	14
669.721	1	1
669.891	1	-12
670.060	1	0
670.229	1	3
670.399	1	1
670.568	1	3
670.738	1	2
670.907	1	0
671.076	1	4
671.246	1	-3
671.415	1	10
671.584	1	-6
671.754	1	7
671.923	1	5
672.093	1	-15
672.262	1	3
672.431	1	3
672.601	1	3
672.770	1	0
672.939	1	-3
673.109	1	5
673.278	1	2
673.448	1	5
673.617	1	5
673.786	1	5
