325.333	1	-1
325.504	1	6
325.675	1	-9
325.846	1	4
326.017	1	-3
326.188	1	7
326.359	1	5
326.531	1	9
326.702	1	9
326.873	1	-3
327.044	1	1
327.215	1	-3
327.386	1	8
327.557	1	1
327.728	1	10
327.899	1	-3
328.070	1	12
328.241	1	10
328.412	1	0
328.583	1	2
328.754	1	-6
328.926	1	6
329.097	1	4
329.268	1	-1
329.439	1	0
329.610	1	1
329.781	1	5
329.952	1	4
330.123	1	0
330.294	1	4
330.465	1	2
330.636	1	17
330.807	1	4
330.978	1	0
331.149	1	0
331.320	1	6
331.492	1	0
331.663	1	0
331.834	1	-5
332.005	1	2
332.176	1	17
332.347	1	11
332.518	1	12
332.689	1	-3
332.860	1	11
333.031	1	13
333.202	1	5
333.373	1	0
333.544	1	6
333.715	1	-4
333.886	1	7
334.057	1	3
334.228	1	-3
334.399	1	2
334.570	1	0
334.741	1	-4
334.912	1	1
335.084	1	-4
335.255	1	9
335.426	1	5
335.597	1	8
335.768	1	-2
335.939	1	-4
336.110	1	9
336.281	1	-3
336.452	1	5
336.623	1	-7
336.794	1	5
336.965	1	-3
337.136	1	15
337.307	1	16
337.478	1	10
337.649	1	-3
337.820	1	-7
337.991	1	5
338.162	1	4
338.333	1	7
338.504	1	8
338.675	1	14
338.846	1	12
339.017	1	14
339.188	1	8
339.359	1	0
339.530	1	5
339.701	1	-2
339.872	1	1
340.043	1	6
340.214	1	2
340.385	1	6
340.556	1	1
340.727	1	1
340.898	1	2
341.069	1	-6
341.240	1	-3
341.411	1	14
341.582	1	4
341.753	1	2
341.924	1	2
342.095	1	9
342.266	1	-12
342.437	1	-6
342.608	1	4
342.779	1	-1
342.950	1	3
343.121	1	-4
343.292	1	11
343.463	1	2
343.634	1	4
343.805	1	1
343.976	1	-9
344.147	1	2
344.318	1	8
344.489	1	7
344.660	1	12
344.831	1	9
345.002	1	7
345.173	1	7
345.344	1	2
345.515	1	10
345.686	1	-6
345.857	1	-1
346.028	1	-10
346.199	1	19
346.370	1	7
346.541	1	3
346.712	1	-1
346.883	1	11
347.054	1	4
347.225	1	-3
347.396	1	2
347.567	1	9
347.738	1	1
347.909	1	7
348.080	1	7
348.251	1	6
348.422	1	-7
348.593	1	7
348.764	1	-4
348.935	1	4
349.106	1	11
349.277	1	7
349.448	1	1
349.619	1	3
349.790	1	11
349.961	1	8
350.132	1	18
350.303	1	-2
350.474	1	7
350.645	1	6
350.816	1	7
350.987	1	18
351.157	1	15
351.328	1	-2
351.499	1	4
351.670	1	3
351.841	1	8
352.012	1	5
352.183	1	6
352.354	1	9
352.525	1	12
352.696	1	0
352.867	1	14
353.038	1	2
353.209	1	-2
353.380	1	8
353.551	1	-3
353.722	1	17
353.893	1	6
354.064	1	0
354.235	1	14
354.406	1	10
354.576	1	0
354.747	1	5
354.918	1	6
355.089	1	3
355.260	1	13
355.431	1	5
355.602	1	4
355.773	1	2
355.944	1	7
356.115	1	1
356.286	1	7
356.457	1	3
356.628	1	0
356.799	1	4
356.970	1	14
357.141	1	4
357.311	1	7
357.482	1	5
357.653	1	6
357.824	1	1
357.995	1	7
358.166	1	4
358.337	1	12
358.508	1	1
358.679	1	12
358.850	1	12
359.021	1	9
359.192	1	-3
359.363	1	2
359.533	1	0
359.704	1	12
359.875	1	0
360.046	1	-2
360.217	1	5
360.388	1	-7
360.559	1	8
360.730	1	-3
360.901	1	1
361.072	1	-4
361.243	1	7
361.414	1	11
361.584	1	19
361.755	1	-1
361.926	1	-6
362.097	1	-5
362.268	1	11
362.439	1	12
362.610	1	-6
362.781	1	13
362.952	1	-8
363.123	1	8
363.293	1	8
363.464	1	19
363.635	1	5
363.806	1	8
363.977	1	14
364.148	1	-3
364.319	1	-2
364.490	1	7
364.661	1	-6
364.832	1	13
365.002	1	4
365.173	1	-2
365.344	1	9
365.515	1	8
365.686	1	6
365.857	1	5
366.028	1	4
366.199	1	2
366.370	1	2
366.540	1	6
366.711	1	8
366.882	1	7
367.053	1	9
367.224	1	-2
367.395	1	11
367.566	1	10
367.737	1	9
367.908	1	1
368.078	1	1
368.249	1	6
368.420	1	7
368.591	1	9
368.762	1	-1
368.933	1	2
369.104	1	0
369.274	1	18
369.445	1	19
369.616	1	-1
369.787	1	6
369.958	1	11
370.129	1	2
370.300	1	4
370.471	1	0
370.641	1	4
370.812	1	24
370.983	1	3
371.154	1	13
371.325	1	11
371.496	1	-5
371.667	1	6
371.837	1	11
372.008	1	12
372.179	1	0
372.350	1	12
372.521	1	5
372.692	1	7
372.863	1	3
373.033	1	12
373.204	1	22
373.375	1	3
373.546	1	18
373.717	1	7
373.888	1	2
374.059	1	3
374.229	1	15
374.400	1	12
374.571	1	9
374.742	1	2
374.913	1	13
375.084	1	21
375.254	1	5
375.425	1	4
375.596	1	9
375.767	1	10
375.938	1	-2
376.109	1	-1
376.279	1	13
376.450	1	5
376.621	1	10
376.792	1	13
376.963	1	3
377.134	1	4
377.304	1	10
377.475	1	11
377.646	1	5
377.817	1	-4
377.988	1	11
378.159	1	12
378.329	1	20
378.500	1	-3
378.671	1	3
378.842	1	5
379.013	1	1
379.184	1	5
379.354	1	16
379.525	1	-6
379.696	1	21
379.867	1	-3
380.038	1	6
380.209	1	0
380.379	1	9
380.550	1	-3
380.721	1	12
380.892	1	21
381.063	1	9
381.233	1	10
381.404	1	3
381.575	1	7
381.746	1	10
381.917	1	-5
382.087	1	4
382.258	1	10
382.429	1	7
382.600	1	10
382.771	1	-3
382.941	1	7
383.112	1	7
383.283	1	15
383.454	1	6
383.625	1	6
383.795	1	7
383.966	1	8
384.137	1	13
384.308	1	11
384.479	1	20
384.649	1	10
384.820	1	7
384.991	1	2
385.162	1	14
385.333	1	8
385.503	1	20
385.674	1	22
385.845	1	12
386.016	1	8
386.187	1	10
386.357	1	5
386.528	1	6
386.699	1	6
386.870	1	4
387.041	1	2
387.211	1	2
387.382	1	6
387.553	1	11
387.724	1	7
387.894	1	14
388.065	1	29
388.236	1	3
388.407	1	4
388.578	1	13
388.748	1	7
388.919	1	8
389.090	1	10
389.261	1	15
389.431	1	20
389.602	1	13
389.773	1	-1
389.944	1	17
390.114	1	14
390.285	1	8
390.456	1	8
390.627	1	14
390.798	1	7
390.968	1	5
391.139	1	5
391.310	1	14
391.481	1	8
391.651	1	16
391.822	1	17
391.993	1	14
392.164	1	4
392.334	1	10
392.505	1	9
392.676	1	11
392.847	1	17
393.017	1	11
393.188	1	8
393.359	1	2
393.530	1	12
393.700	1	11
393.871	1	2
394.042	1	20
394.213	1	16
394.383	1	17
394.554	1	2
394.725	1	14
394.896	1	14
395.066	1	9
395.237	1	5
395.408	1	10
395.579	1	15
395.749	1	9
395.920	1	8
396.091	1	18
396.262	1	2
396.432	1	12
396.603	1	4
396.774	1	16
396.945	1	11
397.115	1	0
397.286	1	9
397.457	1	1
397.627	1	5
397.798	1	8
397.969	1	14
398.140	1	5
398.310	1	12
398.481	1	8
398.652	1	8
398.823	1	5
398.993	1	24
399.164	1	4
399.335	1	5
399.505	1	20
399.676	1	4
399.847	1	19
400.018	1	12
400.188	1	14
400.359	1	16
400.530	1	5
400.700	1	13
400.871	1	13
401.042	1	22
401.213	1	6
401.383	1	18
401.554	1	9
401.725	1	11
401.895	1	1
402.066	1	18
402.237	1	15
402.408	1	13
402.578	1	6
402.749	1	17
402.920	1	17
403.090	1	16
403.261	1	2
403.432	1	13
403.603	1	2
403.773	1	16
403.944	1	9
404.115	1	7
404.285	1	27
404.456	1	11
404.627	1	3
404.797	1	8
404.968	1	12
405.139	1	18
405.310	1	15
405.480	1	5
405.651	1	25
405.822	1	26
405.992	1	8
406.163	1	14
406.334	1	3
406.504	1	6
406.675	1	14
406.846	1	16
407.016	1	2
407.187	1	15
407.358	1	15
407.528	1	17
407.699	1	6
407.870	1	22
408.041	1	4
408.211	1	10
408.382	1	4
408.553	1	6
408.723	1	24
408.894	1	12
409.065	1	19
409.235	1	6
409.406	1	10
409.577	1	7
409.747	1	15
409.918	1	-3
410.089	1	7
410.259	1	0
410.430	1	7
410.601	1	8
410.771	1	3
410.942	1	-2
411.113	1	20
411.283	1	2
411.454	1	11
411.625	1	9
411.795	1	10
411.966	1	6
412.137	1	12
412.307	1	12
412.478	1	16
412.649	1	7
412.819	1	3
412.990	1	15
413.161	1	14
413.331	1	11
413.502	1	-1
413.672	1	21
413.843	1	5
414.014	1	18
414.184	1	15
414.355	1	7
414.526	1	20
414.696	1	14
414.867	1	16
415.038	1	9
415.208	1	10
415.379	1	15
415.550	1	22
415.720	1	4
415.891	1	19
416.062	1	15
416.232	1	23
416.403	1	9
416.573	1	10
416.744	1	4
416.915	1	10
417.085	1	3
417.256	1	13
417.427	1	14
417.597	1	13
417.768	1	9
417.939	1	10
418.109	1	2
418.280	1	8
418.450	1	27
418.621	1	6
418.792	1	8
418.962	1	11
419.133	1	19
419.304	1	17
419.474	1	5
419.645	1	6
419.815	1	14
419.986	1	3
420.157	1	24
420.327	1	13
420.498	1	7
420.669	1	16
420.839	1	15
421.010	1	13
421.180	1	-7
421.351	1	24
421.522	1	18
421.692	1	14
421.863	1	2
422.033	1	24
422.204	1	17
422.375	1	8
422.545	1	16
422.716	1	13
422.886	1	16
423.057	1	6
423.228	1	15
423.398	1	14
423.569	1	12
423.740	1	9
423.910	1	17
424.081	1	11
424.251	1	10
424.422	1	-3
424.593	1	14
424.763	1	10
424.934	1	12
425.104	1	2
425.275	1	12
425.445	1	25
425.616	1	9
425.787	1	14
425.957	1	18
426.128	1	24
426.298	1	12
426.469	1	0
426.640	1	12
426.810	1	12
426.981	1	14
427.151	1	12
427.322	1	-1
427.493	1	0
427.663	1	11
427.834	1	18
428.004	1	12
428.175	1	23
428.345	1	20
428.516	1	10
428.687	1	9
428.857	1	9
429.028	1	16
429.198	1	21
429.369	1	3
429.540	1	12
429.710	1	17
429.881	1	23
430.051	1	9
430.222	1	-1
430.392	1	16
430.563	1	8
430.734	1	16
430.904	1	16
431.075	1	5
431.245	1	13
431.416	1	2
431.586	1	11
431.757	1	20
431.927	1	-3
432.098	1	8
432.269	1	23
432.439	1	21
432.610	1	16
432.780	1	7
432.951	1	6
433.121	1	20
433.292	1	8
433.462	1	15
433.633	1	21
433.804	1	3
433.974	1	5
434.145	1	15
434.315	1	10
434.486	1	8
434.656	1	9
434.827	1	10
434.997	1	20
435.168	1	6
435.339	1	6
435.509	1	12
435.680	1	17
435.850	1	7
436.021	1	27
436.191	1	17
436.362	1	22
436.532	1	13
436.703	1	19
436.873	1	15
437.044	1	8
437.214	1	21
437.385	1	25
437.556	1	7
437.726	1	10
437.897	1	8
438.067	1	4
438.238	1	11
438.408	1	13
438.579	1	15
438.749	1	0
438.920	1	17
439.090	1	11
439.261	1	7
439.431	1	14
439.602	1	13
439.772	1	15
439.943	1	20
440.113	1	20
440.284	1	8
440.455	1	15
440.625	1	7
440.796	1	11
440.966	1	15
441.137	1	11
441.307	1	9
441.478	1	16
441.648	1	12
441.819	1	11
441.989	1	13
442.160	1	8
442.330	1	14
442.501	1	11
442.671	1	18
442.842	1	16
443.012	1	6
443.183	1	9
443.353	1	16
443.524	1	21
443.694	1	14
443.865	1	15
444.035	1	10
444.206	1	10
444.376	1	18
444.547	1	12
444.717	1	15
444.888	1	6
445.058	1	10
445.229	1	11
445.399	1	13
445.570	1	10
445.740	1	11
445.911	1	18
446.081	1	25
446.252	1	-2
446.422	1	16
446.593	1	11
446.763	1	11
446.934	1	19
447.104	1	11
447.275	1	22
447.445	1	10
447.616	1	12
447.786	1	-7
447.957	1	15
448.127	1	17
448.298	1	13
448.468	1	14
448.639	1	10
448.809	1	9
448.979	1	8
449.150	1	13
449.320	1	20
449.491	1	25
449.661	1	12
449.832	1	20
450.002	1	10
450.173	1	7
450.343	1	11
450.514	1	9
450.684	1	16
450.855	1	17
451.025	1	7
451.196	1	18
451.366	1	9
451.537	1	4
451.707	1	12
451.878	1	7
452.048	1	5
452.218	1	7
452.389	1	10
452.559	1	8
452.730	1	5
452.900	1	9
453.071	1	7
453.241	1	7
453.412	1	4
453.582	1	-4
453.753	1	9
453.923	1	12
454.093	1	16
454.264	1	9
454.434	1	11
454.605	1	6
454.775	1	6
454.946	1	5
455.116	1	6
455.287	1	10
455.457	1	14
455.628	1	7
455.798	1	8
455.968	1	13
456.139	1	12
456.309	1	19
456.480	1	8
456.650	1	22
456.821	1	16
456.991	1	5
457.161	1	16
457.332	1	11
457.502	1	23
457.673	1	24
457.843	1	4
458.014	1	10
458.184	1	8
458.355	1	2
458.525	1	14
458.695	1	8
458.866	1	17
459.036	1	4
459.207	1	6
459.377	1	27
459.548	1	-3
459.718	1	4
459.888	1	13
460.059	1	18
460.229	1	8
460.400	1	10
460.570	1	13
460.740	1	1
460.911	1	8
461.081	1	18
461.252	1	0
461.422	1	5
461.593	1	14
461.763	1	23
461.933	1	11
462.104	1	9
462.274	1	5
462.445	1	2
462.615	1	10
462.785	1	9
462.956	1	14
463.126	1	9
463.297	1	7
463.467	1	8
463.638	1	7
463.808	1	20
463.978	1	8
464.149	1	5
464.319	1	12
464.490	1	12
464.660	1	19
464.830	1	8
465.001	1	8
465.171	1	3
465.342	1	13
465.512	1	14
465.682	1	5
465.853	1	0
466.023	1	8
466.194	1	12
466.364	1	13
466.534	1	17
466.705	1	-3
466.875	1	15
467.045	1	12
467.216	1	12
467.386	1	12
467.557	1	14
467.727	1	10
467.897	1	4
468.068	1	-8
468.238	1	22
468.409	1	1
468.579	1	13
468.749	1	7
468.920	1	10
469.090	1	8
469.260	1	14
469.431	1	14
469.601	1	-1
469.772	1	-2
469.942	1	9
470.112	1	10
470.283	1	16
470.453	1	20
470.623	1	3
470.794	1	8
470.964	1	9
471.135	1	18
471.305	1	10
471.475	1	3
471.646	1	10
471.816	1	18
471.986	1	17
472.157	1	16
472.327	1	17
472.497	1	14
472.668	1	1
472.838	1	18
473.009	1	20
473.179	1	14
473.349	1	15
473.520	1	9
473.690	1	22
473.860	1	10
474.031	1	15
474.201	1	14
474.371	1	12
474.542	1	18
474.712	1	10
474.882	1	8
475.053	1	21
475.223	1	0
475.394	1	3
475.564	1	9
475.734	1	11
475.905	1	18
476.075	1	7
476.245	1	19
476.416	1	9
476.586	1	5
476.756	1	9
476.927	1	4
477.097	1	8
477.267	1	13
477.438	1	13
477.608	1	8
477.778	1	5
477.949	1	5
478.119	1	12
478.289	1	3
478.460	1	1
478.630	1	20
478.800	1	14
478.971	1	11
479.141	1	12
479.311	1	14
479.482	1	12
479.652	1	14
479.822	1	10
479.993	1	7
480.163	1	10
480.333	1	13
480.504	1	-1
480.674	1	10
480.844	1	8
481.015	1	4
481.185	1	3
481.355	1	9
481.525	1	5
481.696	1	7
481.866	1	11
482.036	1	6
482.207	1	15
482.377	1	10
482.547	1	-1
482.718	1	7
482.888	1	19
483.058	1	7
483.229	1	11
483.399	1	8
483.569	1	5
483.740	1	1
483.910	1	-6
484.080	1	4
484.250	1	1
484.421	1	7
484.591	1	8
484.761	1	8
484.932	1	4
485.102	1	6
485.272	1	-1
485.443	1	9
485.613	1	6
485.783	1	17
485.953	1	15
486.124	1	13
486.294	1	6
486.464	1	5
486.635	1	18
486.805	1	9
486.975	1	9
487.146	1	2
487.316	1	-1
487.486	1	1
487.656	1	-2
487.827	1	7
487.997	1	4
488.167	1	20
488.338	1	4
488.508	1	8
488.678	1	8
488.848	1	-2
489.019	1	-4
489.189	1	-3
489.359	1	11
489.529	1	8
489.700	1	12
489.870	1	2
490.040	1	7
490.211	1	9
490.381	1	7
490.551	1	-5
490.721	1	7
490.892	1	5
491.062	1	3
491.232	1	4
491.402	1	2
491.573	1	5
491.743	1	19
491.913	1	2
492.084	1	5
492.254	1	9
492.424	1	10
492.594	1	14
492.765	1	10
492.935	1	1
493.105	1	13
493.275	1	1
493.446	1	5
493.616	1	5
493.786	1	11
493.956	1	4
494.127	1	22
494.297	1	-6
494.467	1	2
494.637	1	12
494.808	1	12
494.978	1	2
495.148	1	9
495.318	1	11
495.489	1	-1
495.659	1	4
495.829	1	1
495.999	1	7
496.170	1	-2
496.340	1	10
496.510	1	4
496.680	1	7
496.851	1	6
497.021	1	8
497.191	1	15
497.361	1	-1
497.532	1	-10
497.702	1	7
497.872	1	17
498.042	1	9
498.213	1	8
498.383	1	11
498.553	1	4
498.723	1	8
498.894	1	11
499.064	1	3
499.234	1	7
499.404	1	2
499.574	1	14
499.745	1	5
499.915	1	4
500.085	1	16
500.255	1	3
500.426	1	11
500.596	1	8
500.766	1	1
500.936	1	6
501.106	1	5
501.277	1	17
501.447	1	9
501.617	1	9
501.787	1	6
501.958	1	5
502.128	1	4
502.298	1	2
502.468	1	10
502.638	1	5
502.809	1	10
502.979	1	13
503.149	1	-4
503.319	1	7
503.489	1	-4
503.660	1	3
503.830	1	1
504.000	1	3
504.170	1	6
504.340	1	2
504.511	1	6
504.681	1	-2
504.851	1	7
505.021	1	13
505.192	1	-7
505.362	1	4
505.532	1	16
505.702	1	11
505.872	1	1
506.043	1	7
506.213	1	15
506.383	1	2
506.553	1	4
506.723	1	9
506.893	1	-6
507.064	1	7
507.234	1	2
507.404	1	15
507.574	1	1
507.744	1	1
507.915	1	-1
508.085	1	8
508.255	1	-1
508.425	1	-7
508.595	1	2
508.766	1	0
508.936	1	7
509.106	1	0
509.276	1	7
509.446	1	6
509.616	1	12
509.787	1	8
509.957	1	4
510.127	1	-4
510.297	1	2
510.467	1	1
510.638	1	9
510.808	1	14
510.978	1	1
511.148	1	19
511.318	1	-2
511.488	1	18
511.659	1	1
511.829	1	8
511.999	1	0
512.169	1	-1
512.339	1	8
512.509	1	0
512.680	1	5
512.850	1	4
513.020	1	7
513.190	1	-4
513.360	1	8
513.530	1	4
513.700	1	10
513.871	1	5
514.041	1	-5
514.211	1	9
514.381	1	8
514.551	1	-6
514.721	1	10
514.892	1	-2
515.062	1	7
515.232	1	8
515.402	1	3
515.572	1	1
515.742	1	0
515.912	1	3
516.083	1	3
516.253	1	8
516.423	1	0
516.593	1	6
516.763	1	4
516.933	1	-4
517.104	1	0
517.274	1	-2
517.444	1	-1
517.614	1	-2
517.784	1	15
517.954	1	3
518.124	1	-3
518.294	1	5
518.465	1	3
518.635	1	13
518.805	1	15
518.975	1	4
519.145	1	9
519.315	1	2
519.485	1	0
519.656	1	3
519.826	1	12
519.996	1	1
520.166	1	20
520.336	1	6
520.506	1	-10
520.676	1	1
520.846	1	6
521.017	1	-1
521.187	1	8
521.357	1	3
521.527	1	7
521.697	1	12
521.867	1	1
522.037	1	-6
522.207	1	0
522.377	1	1
522.548	1	5
522.718	1	1
522.888	1	6
523.058	1	10
523.228	1	10
523.398	1	11
523.568	1	7
523.738	1	4
523.909	1	5
524.079	1	5
524.249	1	5
524.419	1	2
524.589	1	2
524.759	1	10
524.929	1	5
525.099	1	0
525.269	1	5
525.439	1	-3
525.610	1	1
525.780	1	7
525.950	1	12
526.120	1	-5
526.290	1	1
526.460	1	1
526.630	1	8
526.800	1	6
526.970	1	5
527.140	1	3
527.311	1	4
527.481	1	15
527.651	1	6
527.821	1	-1
527.991	1	8
528.161	1	3
528.331	1	9
528.501	1	5
528.671	1	1
528.841	1	6
529.011	1	-3
529.181	1	7
529.352	1	3
529.522	1	-3
529.692	1	2
529.862	1	8
530.032	1	7
530.202	1	7
530.372	1	7
530.542	1	-5
530.712	1	0
530.882	1	10
531.052	1	4
531.222	1	-10
531.392	1	9
531.563	1	-5
531.733	1	-5
531.903	1	8
532.073	1	-4
532.243	1	-2
532.413	1	9
532.583	1	-1
532.753	1	3
532.923	1	1
533.093	1	5
533.263	1	-8
533.433	1	14
533.603	1	1
533.773	1	2
533.943	1	-7
534.113	1	2
534.284	1	3
534.454	1	-2
534.624	1	6
534.794	1	-5
534.964	1	3
535.134	1	11
535.304	1	11
535.474	1	-1
535.644	1	-1
535.814	1	6
535.984	1	13
536.154	1	0
536.324	1	11
536.494	1	5
536.664	1	1
536.834	1	2
537.004	1	-3
537.174	1	3
537.344	1	9
537.514	1	-3
537.685	1	-3
537.855	1	-5
538.025	1	12
538.195	1	-2
538.365	1	-2
538.535	1	-8
538.705	1	6
538.875	1	11
539.045	1	0
539.215	1	-13
539.385	1	-2
539.555	1	9
539.725	1	0
539.895	1	8
540.065	1	-4
540.235	1	4
540.405	1	17
540.575	1	6
540.745	1	0
540.915	1	7
541.085	1	-8
541.255	1	-8
541.425	1	5
541.595	1	6
541.765	1	9
541.935	1	-1
542.105	1	0
542.275	1	-3
542.445	1	-7
542.615	1	11
542.785	1	-14
542.955	1	1
543.125	1	-9
543.295	1	-1
543.465	1	6
543.635	1	5
543.805	1	4
543.975	1	-1
544.145	1	5
544.315	1	-8
544.485	1	5
544.655	1	4
544.825	1	2
544.995	1	4
545.165	1	-3
545.335	1	6
545.505	1	8
545.675	1	-8
545.845	1	4
546.015	1	8
546.185	1	7
546.355	1	5
546.525	1	-3
546.695	1	-1
546.865	1	9
547.035	1	8
547.205	1	1
547.375	1	8
547.545	1	5
547.715	1	7
547.885	1	12
548.055	1	-8
548.225	1	5
548.395	1	-13
548.565	1	4
548.735	1	0
548.905	1	-1
549.075	1	11
549.245	1	5
549.415	1	4
549.585	1	12
549.755	1	-1
549.925	1	7
550.095	1	3
550.265	1	-1
550.435	1	-7
550.605	1	-2
550.775	1	7
550.945	1	19
551.115	1	2
551.285	1	-1
551.455	1	9
551.625	1	-6
551.795	1	-2
551.965	1	16
552.135	1	-3
552.305	1	0
552.475	1	4
552.645	1	10
552.815	1	1
552.985	1	2
553.155	1	4
553.325	1	3
553.495	1	4
553.665	1	10
553.835	1	-4
554.004	1	7
554.174	1	4
554.344	1	3
554.514	1	11
554.684	1	3
554.854	1	-13
555.024	1	8
555.194	1	8
555.364	1	3
555.534	1	-3
555.704	1	11
555.874	1	-6
556.044	1	9
556.214	1	6
556.384	1	5
556.554	1	8
556.724	1	-4
556.894	1	-2
557.064	1	15
557.234	1	-1
557.404	1	3
557.573	1	-4
557.743	1	7
557.913	1	-13
558.083	1	12
558.253	1	-7
558.423	1	-5
558.593	1	14
558.763	1	2
558.933	1	5
559.103	1	13
559.273	1	3
559.443	1	2
559.613	1	0
559.783	1	4
559.953	1	17
560.122	1	1
560.292	1	7
560.462	1	-1
560.632	1	4
560.802	1	-3
560.972	1	9
561.142	1	6
561.312	1	11
561.482	1	6
561.652	1	-2
561.822	1	-14
561.992	1	3
562.162	1	15
562.331	1	9
562.501	1	-11
562.671	1	5
562.841	1	1
563.011	1	-13
563.181	1	10
563.351	1	0
563.521	1	9
563.691	1	8
563.861	1	0
564.031	1	-13
564.201	1	-3
564.370	1	-4
564.540	1	4
564.710	1	3
564.880	1	0
565.050	1	5
565.220	1	-5
565.390	1	5
565.560	1	4
565.730	1	0
565.900	1	-7
566.069	1	3
566.239	1	-1
566.409	1	-2
566.579	1	2
566.749	1	3
566.919	1	2
567.089	1	1
567.259	1	4
567.429	1	8
567.599	1	2
567.768	1	-1
567.938	1	-9
568.108	1	13
568.278	1	3
568.448	1	9
568.618	1	5
568.788	1	-11
568.958	1	-1
569.128	1	-13
569.297	1	5
569.467	1	5
569.637	1	-4
569.807	1	3
569.977	1	12
570.147	1	3
570.317	1	-2
570.487	1	16
570.656	1	0
570.826	1	-1
570.996	1	8
571.166	1	4
571.336	1	-7
571.506	1	-1
571.676	1	-7
571.846	1	-6
572.015	1	6
572.185	1	1
572.355	1	2
572.525	1	-3
572.695	1	-3
572.865	1	5
573.035	1	-6
573.205	1	-6
573.374	1	6
573.544	1	-7
573.714	1	12
573.884	1	1
574.054	1	-2
574.224	1	0
574.394	1	2
574.563	1	9
574.733	1	7
574.903	1	6
575.073	1	6
575.243	1	9
575.413	1	2
575.583	1	-2
575.752	1	10
575.922	1	7
576.092	1	0
576.262	1	2
576.432	1	9
576.602	1	2
576.772	1	-7
576.941	1	13
577.111	1	-2
577.281	1	19
577.451	1	-10
577.621	1	-6
577.791	1	2
577.960	1	-8
578.130	1	-1
578.300	1	3
578.470	1	7
578.640	1	-3
578.810	1	10
578.979	1	-3
579.149	1	-3
579.319	1	-10
579.489	1	6
579.659	1	5
579.829	1	-1
579.998	1	-3
580.168	1	7
580.338	1	2
580.508	1	6
580.678	1	10
580.848	1	-4
581.017	1	2
581.187	1	1
581.357	1	3
581.527	1	-5
581.697	1	-3
581.867	1	10
582.036	1	5
582.206	1	-4
582.376	1	-1
582.546	1	14
582.716	1	4
582.885	1	0
583.055	1	-6
583.225	1	0
583.395	1	-7
583.565	1	-1
583.735	1	8
583.904	1	1
584.074	1	-5
584.244	1	0
584.414	1	-8
584.584	1	11
584.753	1	7
584.923	1	4
585.093	1	-1
585.263	1	-1
585.433	1	14
585.602	1	6
585.772	1	3
585.942	1	-1
586.112	1	-2
586.282	1	4
586.451	1	1
586.621	1	0
586.791	1	4
586.961	1	19
587.131	1	-4
587.300	1	4
587.470	1	-4
587.640	1	-3
587.810	1	-5
587.980	1	-3
588.149	1	3
588.319	1	6
588.489	1	1
588.659	1	5
588.829	1	-7
588.998	1	-1
589.168	1	9
589.338	1	-3
589.508	1	2
589.677	1	-6
589.847	1	0
590.017	1	8
590.187	1	-3
590.357	1	1
590.526	1	10
590.696	1	-9
590.866	1	-4
591.036	1	-4
591.205	1	8
591.375	1	9
591.545	1	5
591.715	1	-10
591.885	1	-1
592.054	1	3
592.224	1	2
592.394	1	0
592.564	1	1
592.733	1	4
592.903	1	-2
593.073	1	-5
593.243	1	5
593.412	1	-6
593.582	1	-1
593.752	1	7
593.922	1	15
594.091	1	-7
594.261	1	0
594.431	1	-1
594.601	1	5
594.771	1	6
594.940	1	-2
595.110	1	-1
595.280	1	4
595.450	1	12
595.619	1	0
595.789	1	14
595.959	1	1
596.129	1	-2
596.298	1	-9
596.468	1	1
596.638	1	-2
596.808	1	-9
596.977	1	-4
597.147	1	-4
597.317	1	4
597.487	1	8
597.656	1	9
597.826	1	-4
597.996	1	1
598.166	1	0
598.335	1	-5
598.505	1	-8
598.675	1	-8
598.844	1	10
599.014	1	-2
599.184	1	-4
599.354	1	5
599.523	1	4
599.693	1	10
599.863	1	8
600.033	1	4
600.202	1	10
600.372	1	3
600.542	1	2
600.712	1	12
600.881	1	-6
601.051	1	5
601.221	1	9
601.390	1	6
601.560	1	7
601.730	1	-4
601.900	1	21
602.069	1	-12
602.239	1	-5
602.409	1	5
602.578	1	15
602.748	1	-12
602.918	1	12
603.088	1	7
603.257	1	-2
603.427	1	7
603.597	1	1
603.767	1	1
603.936	1	17
604.106	1	2
604.276	1	4
604.445	1	-5
604.615	1	0
604.785	1	9
604.954	1	6
605.124	1	-1
605.294	1	13
605.464	1	-3
605.633	1	12
605.803	1	9
605.973	1	0
606.142	1	8
606.312	1	13
606.482	1	9
606.652	1	1
606.821	1	2
606.991	1	1
607.161	1	10
607.330	1	6
607.500	1	6
607.670	1	3
607.839	1	-5
608.009	1	1
608.179	1	6
608.348	1	4
608.518	1	6
608.688	1	6
608.858	1	-1
609.027	1	-3
609.197	1	7
609.367	1	3
609.536	1	14
609.706	1	-4
609.876	1	4
610.045	1	8
610.215	1	2
610.385	1	6
610.554	1	3
610.724	1	-2
610.894	1	13
611.063	1	0
611.233	1	-5
611.403	1	4
611.572	1	8
611.742	1	-9
611.912	1	4
612.081	1	11
612.251	1	0
612.421	1	7
612.590	1	-3
612.760	1	4
612.930	1	-3
613.099	1	8
613.269	1	3
613.439	1	10
613.608	1	8
613.778	1	-11
613.948	1	-6
614.117	1	4
614.287	1	-4
614.457	1	0
614.626	1	7
614.796	1	10
614.966	1	-1
615.135	1	11
615.305	1	7
615.475	1	8
615.644	1	3
615.814	1	7
615.984	1	-1
616.153	1	6
616.323	1	5
616.493	1	14
616.662	1	-1
616.832	1	0
617.002	1	7
617.171	1	8
617.341	1	-4
617.511	1	-6
617.680	1	3
617.850	1	2
618.019	1	2
618.189	1	0
618.359	1	4
618.528	1	-1
618.698	1	1
618.868	1	-1
619.037	1	-5
619.207	1	3
619.377	1	5
619.546	1	-12
619.716	1	-1
619.885	1	7
620.055	1	9
620.225	1	13
620.394	1	-2
620.564	1	0
620.734	1	-1
620.903	1	3
621.073	1	-5
621.242	1	-8
621.412	1	4
621.582	1	-2
621.751	1	-4
621.921	1	13
622.091	1	1
622.260	1	-3
622.430	1	4
622.599	1	8
622.769	1	-3
622.939	1	0
623.108	1	9
623.278	1	21
623.448	1	2
623.617	1	-8
623.787	1	15
623.956	1	6
624.126	1	-11
624.296	1	5
624.465	1	8
624.635	1	8
624.804	1	5
624.974	1	2
625.144	1	15
625.313	1	0
625.483	1	6
625.652	1	23
625.822	1	4
625.992	1	11
626.161	1	-4
626.331	1	-4
626.501	1	-3
626.670	1	8
626.840	1	10
627.009	1	-1
627.179	1	-6
627.348	1	5
627.518	1	7
627.688	1	6
627.857	1	13
628.027	1	0
628.196	1	-3
628.366	1	3
628.536	1	12
628.705	1	-2
628.875	1	12
629.044	1	3
629.214	1	4
629.384	1	7
629.553	1	12
629.723	1	1
629.892	1	1
630.062	1	-5
630.232	1	3
630.401	1	1
630.571	1	8
630.740	1	-4
630.910	1	0
631.079	1	1
631.249	1	5
631.419	1	1
631.588	1	2
631.758	1	1
631.927	1	0
632.097	1	-3
632.266	1	-10
632.436	1	0
632.606	1	-5
632.775	1	6
632.945	1	-2
633.114	1	9
633.284	1	12
633.453	1	14
633.623	1	17
633.793	1	-1
633.962	1	-8
634.132	1	-3
634.301	1	2
634.471	1	-3
634.640	1	18
634.810	1	11
634.979	1	8
635.149	1	2
635.319	1	6
635.488	1	-7
635.658	1	7
635.827	1	1
635.997	1	16
636.166	1	1
636.336	1	6
636.505	1	4
636.675	1	2
636.845	1	1
637.014	1	7
637.184	1	1
637.353	1	-4
637.523	1	6
637.692	1	-3
637.862	1	2
638.031	1	-5
638.201	1	8
638.370	1	8
638.540	1	5
638.710	1	8
638.879	1	7
639.049	1	-5
639.218	1	7
639.388	1	0
639.557	1	-1
639.727	1	13
639.896	1	6
640.066	1	9
640.235	1	3
640.405	1	8
640.574	1	-3
640.744	1	-7
640.914	1	7
641.083	1	3
641.253	1	1
641.422	1	5
641.592	1	-1
641.761	1	-3
641.931	1	6
642.100	1	7
642.270	1	-6
642.439	1	-3
642.609	1	15
642.778	1	4
642.948	1	4
643.117	1	4
643.287	1	4
643.456	1	15
643.626	1	4
643.795	1	-3
643.965	1	9
644.134	1	-1
644.304	1	14
644.473	1	-4
644.643	1	2
644.812	1	-2
644.982	1	1
645.151	1	11
645.321	1	2
645.490	1	16
645.660	1	-4
645.829	1	2
645.999	1	2
646.168	1	-8
646.338	1	13
646.507	1	3
646.677	1	4
646.846	1	3
647.016	1	1
647.185	1	1
647.355	1	5
647.524	1	1
647.694	1	-1
647.863	1	6
648.033	1	-3
648.202	1	6
648.372	1	1
648.541	1	-6
648.711	1	10
648.880	1	1
649.050	1	0
649.219	1	7
649.389	1	6
649.558	1	4
649.728	1	8
649.897	1	-3
650.067	1	-1
650.236	1	-4
650.406	1	11
650.575	1	10
650.745	1	5
650.914	1	7
651.084	1	11
651.253	1	6
651.423	1	1
651.592	1	-4
651.762	1	-2
651.931	1	5
652.101	1	6
652.270	1	6
652.440	1	15
652.609	1	4
652.778	1	5
652.948	1	4
653.117	1	1
653.287	1	-6
653.456	1	5
653.626	1	5
653.795	1	-1
653.965	1	-1
654.134	1	-10
654.304	1	16
654.473	1	4
654.643	1	11
654.812	1	3
654.982	1	-3
655.151	1	3
655.320	1	7
655.490	1	1
655.659	1	6
655.829	1	2
655.998	1	-1
656.168	1	6
656.337	1	2
656.507	1	-3
656.676	1	3
656.846	1	9
657.015	1	4
657.184	1	3
657.354	1	-1
657.523	1	8
657.693	1	-1
657.862	1	-12
658.032	1	4
658.201	1	6
658.371	1	-1
658.540	1	0
658.709	1	0
658.879	1	10
659.048	1	2
659.218	1	-2
659.387	1	9
659.557	1	-4
659.726	1	-5
659.895	1	2
660.065	1	13
660.234	1	-6
660.404	1	11
660.573	1	3
660.743	1	-1
660.912	1	-8
661.081	1	-13
661.251	1	19
661.420	1	15
661.590	1	-3
661.759	1	2
661.929	1	6
662.098	1	3
662.267	1	4
662.437	1	11
662.606	1	7
662.776	1	-2
662.945	1	14
663.115	1	4
663.284	1	-2
663.453	1	9
663.623	1	11
663.792	1	4
663.962	1	-2
664.131	1	-1
664.300	1	0
664.470	1	11
664.639	1	0
664.809	1	-6
664.978	1	3
665.148	1	-7
665.317	1	-3
665.486	1	13
665.656	1	-4
665.825	1	7
665.995	1	-1
666.164	1	10
666.333	1	-5
666.503	1	-5
666.672	1	15
666.842	1	-5
667.011	1	-3
667.180	1	6
667.350	1	8
667.519	1	2
667.689	1	0
667.858	1	7
668.027	1	7
668.197	1	9
668.366	1	1
668.536	1	1
668.705	1	7
668.874	1	3
669.044	1	4
669.213	1	1
669.382	1	2
669.552	1	5
669.721	1	4
669.891	1	-5
670.060	1	0
670.229	1	-2
670.399	1	5
670.568	1	-3
670.738	1	-6
670.907	1	1
671.076	1	2
671.246	1	-3
671.415	1	9
671.584	1	7
671.754	1	3
671.923	1	6
672.093	1	2
672.262	1	6
672.431	1	8
672.601	1	8
672.770	1	12
672.939	1	2
673.109	1	11
673.278	1	2
673.448	1	11
673.617	1	7
673.786	1	-4
