325.333	1	6
325.504	1	9
325.675	1	9
325.846	1	-5
326.017	1	6
326.188	1	2
326.359	1	10
326.531	1	9
326.702	1	-3
326.873	1	0
327.044	1	7
327.215	1	7
327.386	1	2
327.557	1	5
327.728	1	5
327.899	1	0
328.070	1	9
328.241	1	2
328.412	1	-7
328.583	1	3
328.754	1	2
328.926	1	10
329.097	1	1
329.268	1	-2
329.439	1	-2
329.610	1	6
329.781	1	11
329.952	1	6
330.123	1	5
330.294	1	1
330.465	1	-1
330.636	1	4
330.807	1	4
330.978	1	2
331.149	1	9
331.320	1	7
331.492	1	-1
331.663	1	-5
331.834	1	-3
332.005	1	2
332.176	1	13
332.347	1	8
332.518	1	1
332.689	1	3
332.860	1	1
333.031	1	3
333.202	1	8
333.373	1	10
333.544	1	-3
333.715	1	10
333.886	1	-1
334.057	1	-9
334.228	1	-5
334.399	1	-2
334.570	1	-4
334.741	1	-3
334.912	1	1
335.084	1	-1
335.255	1	11
335.426	1	6
335.597	1	5
335.768	1	1
335.939	1	-8
336.110	1	10
336.281	1	11
336.452	1	1
336.623	1	-6
336.794	1	3
336.965	1	1
337.136	1	11
337.307	1	9
337.478	1	7
337.649	1	-6
337.820	1	-5
337.991	1	6
338.162	1	10
338.333	1	6
338.504	1	10
338.675	1	13
338.846	1	12
339.017	1	11
339.188	1	13
339.359	1	4
339.530	1	14
339.701	1	3
339.872	1	-1
340.043	1	-2
340.214	1	2
340.385	1	6
340.556	1	-5
340.727	1	-1
340.898	1	8
341.069	1	-11
341.240	1	6
341.411	1	11
341.582	1	4
341.753	1	2
341.924	1	1
342.095	1	14
342.266	1	7
342.437	1	-1
342.608	1	4
342.779	1	5
342.950	1	4
343.121	1	3
343.292	1	11
343.463	1	8
343.634	1	9
343.805	1	16
343.976	1	-12
344.147	1	0
344.318	1	-1
344.489	1	7
344.660	1	7
344.831	1	4
345.002	1	14
345.173	1	8
345.344	1	-1
345.515	1	2
345.686	1	0
345.857	1	1
346.028	1	-5
346.199	1	15
346.370	1	1
346.541	1	8
346.712	1	5
346.883	1	12
347.054	1	-5
347.225	1	-3
347.396	1	-4
347.567	1	4
347.738	1	-5
347.909	1	5
348.080	1	6
348.251	1	2
348.422	1	-1
348.593	1	9
348.764	1	-3
348.935	1	-3
349.106	1	7
349.277	1	2
349.448	1	5
349.619	1	12
349.790	1	2
349.961	1	10
350.132	1	7
350.303	1	8
350.474	1	-4
350.645	1	10
350.816	1	6
350.987	1	8
351.157	1	5
351.328	1	-1
351.499	1	8
351.670	1	-1
351.841	1	-1
352.012	1	-1
352.183	1	3
352.354	1	5
352.525	1	14
352.696	1	16
352.867	1	11
353.038	1	-4
353.209	1	11
353.380	1	1
353.551	1	-3
353.722	1	0
353.893	1	8
354.064	1	0
354.235	1	1
354.406	1	6
354.576	1	-1
354.747	1	6
354.918	1	16
355.089	1	8
355.260	1	18
355.431	1	5
355.602	1	2
355.773	1	-1
355.944	1	2
356.115	1	-10
356.286	1	9
356.457	1	4
356.628	1	-6
356.799	1	5
356.970	1	3
357.141	1	7
357.311	1	7
357.482	1	7
357.653	1	5
357.824	1	9
357.995	1	9
358.166	1	4
358.337	1	-6
358.508	1	-12
358.679	1	1
358.850	1	-4
359.021	1	3
359.192	1	2
359.363	1	-4
359.533	1	-2
359.704	1	10
359.875	1	1
360.046	1	2
360.217	1	-11
360.388	1	-9
360.559	1	6
360.730	1	0
360.901	1	-2
361.072	1	7
361.243	1	3
361.414	1	10
361.584	1	11
361.755	1	3
361.926	1	-1
362.097	1	1
362.268	1	9
362.439	1	8
362.610	1	-4
362.781	1	11
362.952	1	-6
363.123	1	1
363.293	1	6
363.464	1	11
363.635	1	12
363.806	1	13
363.977	1	4
364.148	1	6
364.319	1	-11
364.490	1	0
364.661	1	1
364.832	1	7
365.002	1	4
365.173	1	3
365.344	1	12
365.515	1	16
365.686	1	2
365.857	1	5
366.028	1	6
366.199	1	9
366.370	1	-3
366.540	1	5
366.711	1	5
366.882	1	9
367.053	1	10
367.224	1	-2
367.395	1	12
367.566	1	15
367.737	1	-4
367.908	1	-8
368.078	1	7
368.249	1	-1
368.420	1	14
368.591	1	2
368.762	1	-1
368.933	1	9
369.104	1	-4
369.274	1	13
369.445	1	16
369.616	1	-1
369.787	1	2
369.958	1	13
370.129	1	-3
370.300	1	2
370.471	1	-3
370.641	1	2
370.812	1	18
370.983	1	6
371.154	1	10
371.325	1	13
371.496	1	0
371.667	1	11
371.837	1	3
372.008	1	21
372.179	1	2
372.350	1	16
372.521	1	7
372.692	1	1
372.863	1	3
373.033	1	12
373.204	1	19
373.375	1	-8
373.546	1	12
373.717	1	5
373.888	1	6
374.059	1	-1
374.229	1	3
374.400	1	12
374.571	1	17
374.742	1	15
374.913	1	8
375.084	1	14
375.254	1	16
375.425	1	3
375.596	1	0
375.767	1	7
375.938	1	7
376.109	1	5
376.279	1	5
376.450	1	8
376.621	1	14
376.792	1	15
376.963	1	-3
377.134	1	0
377.304	1	12
377.475	1	6
377.646	1	-7
377.817	1	-4
377.988	1	9
378.159	1	14
378.329	1	11
378.500	1	9
378.671	1	-5
378.842	1	5
379.013	1	1
379.184	1	9
379.354	1	2
379.525	1	4
379.696	1	14
379.867	1	-9
380.038	1	3
380.209	1	4
380.379	1	13
380.550	1	-1
380.721	1	11
380.892	1	17
381.063	1	12
381.233	1	2
381.404	1	6
381.575	1	2
381.746	1	11
381.917	1	4
382.087	1	-1
382.258	1	9
382.429	1	9
382.600	1	12
382.771	1	4
382.941	1	7
383.112	1	7
383.283	1	9
383.454	1	17
383.625	1	5
383.795	1	6
383.966	1	8
384.137	1	-2
384.308	1	7
384.479	1	13
384.649	1	15
384.820	1	5
384.991	1	-3
385.162	1	11
385.333	1	3
385.503	1	15
385.674	1	8
385.845	1	-1
386.016	1	14
386.187	1	5
386.357	1	4
386.528	1	-2
386.699	1	3
386.870	1	12
387.041	1	6
387.211	1	13
387.382	1	-4
387.553	1	10
387.724	1	-2
387.894	1	13
388.065	1	13
388.236	1	12
388.407	1	10
388.578	1	11
388.748	1	7
388.919	1	16
389.090	1	7
389.261	1	17
389.431	1	1
389.602	1	9
389.773	1	1
389.944	1	15
390.114	1	13
390.285	1	6
390.456	1	11
390.627	1	8
390.798	1	12
390.968	1	3
391.139	1	10
391.310	1	9
391.481	1	6
391.651	1	5
391.822	1	11
391.993	1	11
392.164	1	3
392.334	1	3
392.505	1	9
392.676	1	6
392.847	1	10
393.017	1	7
393.188	1	3
393.359	1	-2
393.530	1	12
393.700	1	23
393.871	1	13
394.042	1	20
394.213	1	20
394.383	1	14
394.554	1	6
394.725	1	9
394.896	1	5
395.066	1	7
395.237	1	1
395.408	1	8
395.579	1	3
395.749	1	13
395.920	1	16
396.091	1	15
396.262	1	-3
396.432	1	-2
396.603	1	1
396.774	1	9
396.945	1	-1
397.115	1	1
397.286	1	19
397.457	1	9
397.627	1	8
397.798	1	11
397.969	1	9
398.140	1	3
398.310	1	3
398.481	1	3
398.652	1	9
398.823	1	9
398.993	1	14
399.164	1	8
399.335	1	6
399.505	1	16
399.676	1	18
399.847	1	14
400.018	1	11
400.188	1	9
400.359	1	19
400.530	1	1
400.700	1	7
400.871	1	17
401.042	1	15
401.213	1	13
401.383	1	8
401.554	1	13
401.725	1	11
401.895	1	5
402.066	1	11
402.237	1	21
402.408	1	18
402.578	1	4
402.749	1	13
402.920	1	17
403.090	1	13
403.261	1	9
403.432	1	14
403.603	1	-7
403.773	1	17
403.944	1	18
404.115	1	7
404.285	1	18
404.456	1	11
404.627	1	4
404.797	1	10
404.968	1	-3
405.139	1	6
405.310	1	8
405.480	1	18
405.651	1	21
405.822	1	21
405.992	1	5
406.163	1	19
406.334	1	14
406.504	1	3
406.675	1	5
406.846	1	12
407.016	1	2
407.187	1	7
407.358	1	7
407.528	1	21
407.699	1	16
407.870	1	17
408.041	1	4
408.211	1	8
408.382	1	8
408.553	1	-7
408.723	1	16
408.894	1	13
409.065	1	23
409.235	1	12
409.406	1	4
409.577	1	14
409.747	1	17
409.918	1	9
410.089	1	4
410.259	1	8
410.430	1	9
410.601	1	9
410.771	1	13
410.942	1	4
411.113	1	4
411.283	1	11
411.454	1	10
411.625	1	11
411.795	1	-1
411.966	1	-2
412.137	1	5
412.307	1	14
412.478	1	13
412.649	1	9
412.819	1	1
412.990	1	19
413.161	1	12
413.331	1	10
413.502	1	1
413.672	1	6
413.843	1	11
414.014	1	16
414.184	1	6
414.355	1	7
414.526	1	14
414.696	1	15
414.867	1	17
415.038	1	3
415.208	1	7
415.379	1	10
415.550	1	16
415.720	1	12
415.891	1	22
416.062	1	2
416.232	1	13
416.403	1	12
416.573	1	9
416.744	1	17
416.915	1	19
417.085	1	10
417.256	1	4
417.427	1	13
417.597	1	8
417.768	1	14
417.939	1	19
418.109	1	8
418.280	1	17
418.450	1	14
418.621	1	12
418.792	1	6
418.962	1	5
419.133	1	15
419.304	1	0
419.474	1	15
419.645	1	3
419.815	1	9
419.986	1	16
420.157	1	18
420.327	1	14
420.498	1	-3
420.669	1	15
420.839	1	6
421.010	1	5
421.180	1	-7
421.351	1	12
421.522	1	17
421.692	1	21
421.863	1	12
422.033	1	20
422.204	1	17
422.375	1	5
422.545	1	9
422.716	1	7
422.886	1	22
423.057	1	3
423.228	1	14
423.398	1	19
423.569	1	11
423.740	1	0
423.910	1	16
424.081	1	11
424.251	1	4
424.422	1	3
424.593	1	0
424.763	1	11
424.934	1	14
425.104	1	9
425.275	1	10
425.445	1	21
425.616	1	23
425.787	1	21
425.957	1	7
426.128	1	14
426.298	1	11
426.469	1	8
426.640	1	11
426.810	1	14
426.981	1	15
427.151	1	7
427.322	1	-2
427.493	1	13
427.663	1	7
427.834	1	13
428.004	1	22
428.175	1	11
428.345	1	21
428.516	1	17
428.687	1	10
428.857	1	10
429.028	1	9
429.198	1	13
429.369	1	10
429.540	1	9
429.710	1	6
429.881	1	19
430.051	1	9
430.222	1	13
430.392	1	19
430.563	1	5
430.734	1	21
430.904	1	13
431.075	1	2
431.245	1	15
431.416	1	-9
431.586	1	8
431.757	1	8
431.927	1	7
432.098	1	12
432.269	1	16
432.439	1	11
432.610	1	26
432.780	1	0
432.951	1	9
433.121	1	17
433.292	1	12
433.462	1	23
433.633	1	22
433.804	1	15
433.974	1	17
434.145	1	16
434.315	1	12
434.486	1	10
434.656	1	15
434.827	1	11
434.997	1	23
435.168	1	9
435.339	1	17
435.509	1	13
435.680	1	18
435.850	1	13
436.021	1	16
436.191	1	18
436.362	1	15
436.532	1	12
436.703	1	14
436.873	1	2
437.044	1	9
437.214	1	21
437.385	1	16
437.556	1	13
437.726	1	10
437.897	1	6
438.067	1	11
438.238	1	12
438.408	1	17
438.579	1	7
438.749	1	4
438.920	1	7
439.090	1	3
439.261	1	9
439.431	1	12
439.602	1	0
439.772	1	9
439.943	1	20
440.113	1	17
440.284	1	-2
440.455	1	19
440.625	1	11
440.796	1	10
440.966	1	11
441.137	1	8
441.307	1	7
441.478	1	12
441.648	1	13
441.819	1	11
441.989	1	1
442.160	1	9
442.330	1	16
442.501	1	3
442.671	1	6
442.842	1	16
443.012	1	10
443.183	1	7
443.353	1	12
443.524	1	18
443.694	1	10
443.865	1	8
444.035	1	4
444.206	1	4
444.376	1	22
444.547	1	4
444.717	1	17
444.888	1	8
445.058	1	12
445.229	1	12
445.399	1	10
445.570	1	4
445.740	1	8
445.911	1	12
446.081	1	20
446.252	1	3
446.422	1	23
446.593	1	25
446.763	1	12
446.934	1	20
447.104	1	10
447.275	1	14
447.445	1	6
447.616	1	10
447.786	1	-1
447.957	1	1
448.127	1	16
448.298	1	15
448.468	1	24
448.639	1	8
448.809	1	6
448.979	1	11
449.150	1	5
449.320	1	10
449.491	1	13
449.661	1	19
449.832	1	21
450.002	1	12
450.173	1	14
450.343	1	9
450.514	1	8
450.684	1	3
450.855	1	11
451.025	1	15
451.196	1	12
451.366	1	-1
451.537	1	2
451.707	1	21
451.878	1	7
452.048	1	7
452.218	1	-1
452.389	1	10
452.559	1	15
452.730	1	10
452.900	1	9
453.071	1	4
453.241	1	4
453.412	1	4
453.582	1	9
453.753	1	8
453.923	1	13
454.093	1	17
454.264	1	-1
454.434	1	8
454.605	1	9
454.775	1	11
454.946	1	15
455.116	1	11
455.287	1	12
455.457	1	10
455.628	1	7
455.798	1	11
455.968	1	11
456.139	1	2
456.309	1	20
456.480	1	15
456.650	1	18
456.821	1	19
456.991	1	13
457.161	1	14
457.332	1	14
457.502	1	15
457.673	1	8
457.843	1	9
458.014	1	7
458.184	1	3
458.355	1	13
458.525	1	12
458.695	1	9
458.866	1	29
459.036	1	5
459.207	1	17
459.377	1	20
459.548	1	0
459.718	1	9
459.888	1	16
460.059	1	14
460.229	1	11
460.400	1	4
460.570	1	11
460.740	1	1
460.911	1	15
461.081	1	15
461.252	1	9
461.422	1	3
461.593	1	11
461.763	1	12
461.933	1	11
462.104	1	16
462.274	1	7
462.445	1	8
462.615	1	15
462.785	1	-2
462.956	1	13
463.126	1	8
463.297	1	26
463.467	1	3
463.638	1	13
463.808	1	24
463.978	1	17
464.149	1	-11
464.319	1	16
464.490	1	9
464.660	1	8
464.830	1	-2
465.001	1	8
465.171	1	5
465.342	1	12
465.512	1	14
465.682	1	2
465.853	1	0
466.023	1	4
466.194	1	2
466.364	1	17
466.534	1	5
466.705	1	-4
466.875	1	18
467.045	1	12
467.216	1	15
467.386	1	17
467.557	1	12
467.727	1	16
467.897	1	2
468.068	1	-7
468.238	1	12
468.409	1	-3
468.579	1	7
468.749	1	-1
468.920	1	3
469.090	1	15
469.260	1	4
469.431	1	17
469.601	1	5
469.772	1	-6
469.942	1	8
470.112	1	10
470.283	1	16
470.453	1	18
470.623	1	11
470.794	1	11
470.964	1	14
471.135	1	15
471.305	1	21
471.475	1	2
471.646	1	-3
471.816	1	-1
471.986	1	18
472.157	1	9
472.327	1	7
472.497	1	15
472.668	1	6
472.838	1	13
473.009	1	15
473.179	1	14
473.349	1	12
473.520	1	6
473.690	1	16
473.860	1	5
474.031	1	7
474.201	1	5
474.371	1	13
474.542	1	11
474.712	1	4
474.882	1	-1
475.053	1	9
475.223	1	-4
475.394	1	7
475.564	1	10
475.734	1	8
475.905	1	11
476.075	1	-6
476.245	1	9
476.416	1	1
476.586	1	13
476.756	1	0
476.927	1	1
477.097	1	13
477.267	1	11
477.438	1	11
477.608	1	10
477.778	1	3
477.949	1	16
478.119	1	5
478.289	1	2
478.460	1	0
478.630	1	23
478.800	1	14
478.971	1	12
479.141	1	9
479.311	1	8
479.482	1	11
479.652	1	16
479.822	1	2
479.993	1	5
480.163	1	3
480.333	1	8
480.504	1	5
480.674	1	11
480.844	1	10
481.015	1	12
481.185	1	1
481.355	1	12
481.525	1	5
481.696	1	-1
481.866	1	10
482.036	1	17
482.207	1	5
482.377	1	13
482.547	1	3
482.718	1	4
482.888	1	15
483.058	1	8
483.229	1	8
483.399	1	8
483.569	1	2
483.740	1	3
483.910	1	2
484.080	1	-1
484.250	1	-3
484.421	1	11
484.591	1	5
484.761	1	4
484.932	1	14
485.102	1	11
485.272	1	1
485.443	1	4
485.613	1	22
485.783	1	15
485.953	1	-2
486.124	1	15
486.294	1	11
486.464	1	2
486.635	1	12
486.805	1	0
486.975	1	9
487.146	1	2
487.316	1	4
487.486	1	11
487.656	1	8
487.827	1	3
487.997	1	2
488.167	1	9
488.338	1	5
488.508	1	10
488.678	1	12
488.848	1	1
489.019	1	-2
489.189	1	-4
489.359	1	12
489.529	1	8
489.700	1	13
489.870	1	-6
490.040	1	9
490.211	1	-2
490.381	1	6
490.551	1	1
490.721	1	11
490.892	1	3
491.062	1	-9
491.232	1	-2
491.402	1	10
491.573	1	-2
491.743	1	11
491.913	1	3
492.084	1	2
492.254	1	7
492.424	1	16
492.594	1	4
492.765	1	8
492.935	1	-4
493.105	1	11
493.275	1	1
493.446	1	3
493.616	1	2
493.786	1	9
493.956	1	-2
494.127	1	19
494.297	1	0
494.467	1	7
494.637	1	14
494.808	1	9
494.978	1	4
495.148	1	5
495.318	1	19
495.489	1	-1
495.659	1	-3
495.829	1	8
495.999	1	6
496.170	1	-1
496.340	1	9
496.510	1	13
496.680	1	-1
496.851	1	9
497.021	1	10
497.191	1	5
497.361	1	-3
497.532	1	-6
497.702	1	2
497.872	1	16
498.042	1	12
498.213	1	9
498.383	1	8
498.553	1	6
498.723	1	7
498.894	1	7
499.064	1	11
499.234	1	5
499.404	1	1
499.574	1	2
499.745	1	10
499.915	1	7
500.085	1	10
500.255	1	-1
500.426	1	10
500.596	1	-4
500.766	1	3
500.936	1	7
501.106	1	8
501.277	1	14
501.447	1	7
501.617	1	5
501.787	1	8
501.958	1	-1
502.128	1	0
502.298	1	2
502.468	1	15
502.638	1	1
502.809	1	7
502.979	1	16
503.149	1	1
503.319	1	6
503.489	1	-3
503.660	1	-3
503.830	1	4
504.000	1	7
504.170	1	11
504.340	1	0
504.511	1	6
504.681	1	-15
504.851	1	10
505.021	1	17
505.192	1	-2
505.362	1	0
505.532	1	7
505.702	1	3
505.872	1	5
506.043	1	7
506.213	1	13
506.383	1	-1
506.553	1	12
506.723	1	7
506.893	1	-4
507.064	1	-3
507.234	1	6
507.404	1	9
507.574	1	10
507.744	1	7
507.915	1	5
508.085	1	3
508.255	1	9
508.425	1	7
508.595	1	1
508.766	1	1
508.936	1	-1
509.106	1	3
509.276	1	-4
509.446	1	6
509.616	1	-1
509.787	1	7
509.957	1	4
510.127	1	13
510.297	1	-2
510.467	1	-3
510.638	1	4
510.808	1	5
510.978	1	0
511.148	1	19
511.318	1	-1
511.488	1	6
511.659	1	-7
511.829	1	9
511.999	1	2
512.169	1	4
512.339	1	8
512.509	1	3
512.680	1	5
512.850	1	6
513.020	1	-3
513.190	1	10
513.360	1	2
513.530	1	-3
513.700	1	0
513.871	1	17
514.041	1	-1
514.211	1	14
514.381	1	13
514.551	1	7
514.721	1	1
514.892	1	-2
515.062	1	1
515.232	1	4
515.402	1	4
515.572	1	8
515.742	1	11
515.912	1	9
516.083	1	8
516.253	1	11
516.423	1	7
516.593	1	11
516.763	1	1
516.933	1	-5
517.104	1	-2
517.274	1	1
517.444	1	-5
517.614	1	-3
517.784	1	9
517.954	1	9
518.124	1	1
518.294	1	5
518.465	1	2
518.635	1	7
518.805	1	14
518.975	1	5
519.145	1	12
519.315	1	1
519.485	1	-4
519.656	1	11
519.826	1	9
519.996	1	0
520.166	1	11
520.336	1	3
520.506	1	-1
520.676	1	8
520.846	1	-3
521.017	1	5
521.187	1	12
521.357	1	1
521.527	1	8
521.697	1	6
521.867	1	0
522.037	1	-1
522.207	1	6
522.377	1	2
522.548	1	15
522.718	1	7
522.888	1	9
523.058	1	11
523.228	1	9
523.398	1	9
523.568	1	-5
523.738	1	4
523.909	1	-5
524.079	1	6
524.249	1	1
524.419	1	8
524.589	1	8
524.759	1	6
524.929	1	0
525.099	1	-1
525.269	1	14
525.439	1	1
525.610	1	5
525.780	1	0
525.950	1	2
526.120	1	-2
526.290	1	11
526.460	1	6
526.630	1	4
526.800	1	-5
526.970	1	6
527.140	1	-4
527.311	1	-4
527.481	1	17
527.651	1	-1
527.821	1	-4
527.991	1	-1
528.161	1	2
528.331	1	3
528.501	1	8
528.671	1	-1
528.841	1	-7
529.011	1	11
529.181	1	8
529.352	1	-9
529.522	1	0
529.692	1	1
529.862	1	3
530.032	1	8
530.202	1	10
530.372	1	-1
530.542	1	4
530.712	1	-6
530.882	1	-2
531.052	1	17
531.222	1	-3
531.392	1	11
531.563	1	4
531.733	1	1
531.903	1	7
532.073	1	2
532.243	1	1
532.413	1	8
532.583	1	2
532.753	1	-2
532.923	1	15
533.093	1	13
533.263	1	-4
533.433	1	6
533.603	1	3
533.773	1	3
533.943	1	3
534.113	1	5
534.284	1	0
534.454	1	2
534.624	1	7
534.794	1	2
534.964	1	-3
535.134	1	7
535.304	1	7
535.474	1	-10
535.644	1	6
535.814	1	3
535.984	1	15
536.154	1	-4
536.324	1	10
536.494	1	4
536.664	1	1
536.834	1	-3
537.004	1	-3
537.174	1	2
537.344	1	13
537.514	1	-2
537.685	1	2
537.855	1	9
538.025	1	7
538.195	1	2
538.365	1	-6
538.535	1	-1
538.705	1	18
538.875	1	14
539.045	1	3
539.215	1	-4
539.385	1	-2
539.555	1	-1
539.725	1	3
539.895	1	5
540.065	1	-5
540.235	1	3
540.405	1	1
540.575	1	0
540.745	1	5
540.915	1	8
541.085	1	-1
541.255	1	-2
541.425	1	12
541.595	1	1
541.765	1	20
541.935	1	-10
542.105	1	3
542.275	1	3
542.445	1	-2
542.615	1	1
542.785	1	-9
542.955	1	6
543.125	1	1
543.295	1	-11
543.465	1	9
543.635	1	4
543.805	1	9
543.975	1	-6
544.145	1	3
544.315	1	-2
544.485	1	-1
544.655	1	13
544.825	1	5
544.995	1	3
545.165	1	0
545.335	1	0
545.505	1	14
545.675	1	-4
545.845	1	8
546.015	1	3
546.185	1	8
546.355	1	3
546.525	1	5
546.695	1	-3
546.865	1	11
547.035	1	9
547.205	1	7
547.375	1	6
547.545	1	13
547.715	1	-1
547.885	1	4
548.055	1	-7
548.225	1	1
548.395	1	-14
548.565	1	9
548.735	1	-4
548.905	1	-7
549.075	1	13
549.245	1	7
549.415	1	-5
549.585	1	-1
549.755	1	7
549.925	1	7
550.095	1	-3
550.265	1	1
550.435	1	-14
550.605	1	-2
550.775	1	4
550.945	1	5
551.115	1	6
551.285	1	-4
551.455	1	7
551.625	1	6
551.795	1	-7
551.965	1	8
552.135	1	-2
552.305	1	0
552.475	1	-2
552.645	1	-1
552.815	1	-3
552.985	1	-6
553.155	1	-6
553.325	1	-1
553.495	1	7
553.665	1	7
553.835	1	0
554.004	1	-3
554.174	1	4
554.344	1	7
554.514	1	6
554.684	1	3
554.854	1	6
555.024	1	3
555.194	1	0
555.364	1	4
555.534	1	2
555.704	1	11
555.874	1	4
556.044	1	8
556.214	1	3
556.384	1	5
556.554	1	11
556.724	1	8
556.894	1	-11
557.064	1	4
557.234	1	7
557.404	1	-8
557.573	1	2
557.743	1	2
557.913	1	-6
558.083	1	7
558.253	1	-5
558.423	1	4
558.593	1	13
558.763	1	4
558.933	1	4
559.103	1	10
559.273	1	1
559.443	1	6
559.613	1	0
559.783	1	6
559.953	1	5
560.122	1	-3
560.292	1	-4
560.462	1	3
560.632	1	8
560.802	1	-3
560.972	1	4
561.142	1	7
561.312	1	10
561.482	1	6
561.652	1	-3
561.822	1	-8
561.992	1	-12
562.162	1	13
562.331	1	13
562.501	1	-1
562.671	1	4
562.841	1	7
563.011	1	0
563.181	1	0
563.351	1	-5
563.521	1	5
563.691	1	8
563.861	1	-5
564.031	1	-3
564.201	1	-1
564.370	1	-1
564.540	1	-7
564.710	1	2
564.880	1	-2
565.050	1	-9
565.220	1	0
565.390	1	10
565.560	1	2
565.730	1	-1
565.900	1	-8
566.069	1	4
566.239	1	3
566.409	1	6
566.579	1	2
566.749	1	4
566.919	1	-1
567.089	1	2
567.259	1	-6
567.429	1	-6
567.599	1	-1
567.768	1	11
567.938	1	-5
568.108	1	0
568.278	1	0
568.448	1	7
568.618	1	5
568.788	1	-6
568.958	1	-2
569.128	1	-6
569.297	1	-11
569.467	1	8
569.637	1	2
569.807	1	5
569.977	1	4
570.147	1	-1
570.317	1	2
570.487	1	13
570.656	1	2
570.826	1	-1
570.996	1	5
571.166	1	-7
571.336	1	-4
571.506	1	1
571.676	1	-9
571.846	1	-3
572.015	1	6
572.185	1	4
572.355	1	10
572.525	1	-4
572.695	1	0
572.865	1	11
573.035	1	0
573.205	1	-3
573.374	1	14
573.544	1	-2
573.714	1	2
573.884	1	10
574.054	1	6
574.224	1	-2
574.394	1	-13
574.563	1	6
574.733	1	6
574.903	1	-3
575.073	1	0
575.243	1	8
575.413	1	-4
575.583	1	3
575.752	1	5
575.922	1	3
576.092	1	0
576.262	1	7
576.432	1	9
576.602	1	-1
576.772	1	-8
576.941	1	7
577.111	1	3
577.281	1	12
577.451	1	1
577.621	1	0
577.791	1	-2
577.960	1	-1
578.130	1	-7
578.300	1	3
578.470	1	6
578.640	1	-7
578.810	1	5
578.979	1	-1
579.149	1	-10
579.319	1	13
579.489	1	8
579.659	1	-3
579.829	1	9
579.998	1	-3
580.168	1	-7
580.338	1	-1
580.508	1	-1
580.678	1	13
580.848	1	-1
581.017	1	3
581.187	1	3
581.357	1	4
581.527	1	-1
581.697	1	-4
581.867	1	8
582.036	1	8
582.206	1	-4
582.376	1	3
582.546	1	6
582.716	1	0
582.885	1	2
583.055	1	-9
583.225	1	-3
583.395	1	3
583.565	1	-7
583.735	1	-4
583.904	1	-3
584.074	1	-3
584.244	1	18
584.414	1	-20
584.584	1	4
584.753	1	-2
584.923	1	9
585.093	1	5
585.263	1	-4
585.433	1	13
585.602	1	2
585.772	1	4
585.942	1	3
586.112	1	0
586.282	1	-1
586.451	1	-3
586.621	1	1
586.791	1	-11
586.961	1	9
587.131	1	11
587.300	1	-3
587.470	1	-8
587.640	1	-7
587.810	1	-4
587.980	1	-3
588.149	1	8
588.319	1	-6
588.489	1	-4
588.659	1	5
588.829	1	-13
588.998	1	1
589.168	1	6
589.338	1	1
589.508	1	4
589.677	1	-4
589.847	1	7
590.017	1	3
590.187	1	-1
590.357	1	-3
590.526	1	5
590.696	1	-6
590.866	1	4
591.036	1	-7
591.205	1	3
591.375	1	4
591.545	1	-1
591.715	1	0
591.885	1	-6
592.054	1	6
592.224	1	10
592.394	1	-4
592.564	1	2
592.733	1	6
592.903	1	-3
593.073	1	-4
593.243	1	-3
593.412	1	-4
593.582	1	5
593.752	1	5
593.922	1	14
594.091	1	-7
594.261	1	2
594.431	1	2
594.601	1	2
594.771	1	11
594.940	1	6
595.110	1	-1
595.280	1	2
595.450	1	-2
595.619	1	7
595.789	1	0
595.959	1	6
596.129	1	-4
596.298	1	1
596.468	1	8
596.638	1	3
596.808	1	3
596.977	1	8
597.147	1	6
597.317	1	1
597.487	1	2
597.656	1	3
597.826	1	-2
597.996	1	-7
598.166	1	3
598.335	1	1
598.505	1	-8
598.675	1	1
598.844	1	3
599.014	1	4
599.184	1	-9
599.354	1	-7
599.523	1	1
599.693	1	8
599.863	1	9
600.033	1	8
600.202	1	7
600.372	1	-3
600.542	1	4
600.712	1	12
600.881	1	2
601.051	1	2
601.221	1	2
601.390	1	9
601.560	1	8
601.730	1	4
601.900	1	7
602.069	1	-7
602.239	1	-8
602.409	1	6
602.578	1	3
602.748	1	1
602.918	1	6
603.088	1	5
603.257	1	3
603.427	1	7
603.597	1	0
603.767	1	0
603.936	1	18
604.106	1	4
604.276	1	6
604.445	1	2
604.615	1	-4
604.785	1	7
604.954	1	-1
605.124	1	1
605.294	1	10
605.464	1	-2
605.633	1	1
605.803	1	9
605.973	1	12
606.142	1	5
606.312	1	4
606.482	1	8
606.652	1	12
606.821	1	2
606.991	1	1
607.161	1	4
607.330	1	2
607.500	1	7
607.670	1	2
607.839	1	-1
608.009	1	0
608.179	1	-8
608.348	1	2
608.518	1	0
608.688	1	4
608.858	1	-8
609.027	1	1
609.197	1	10
609.367	1	-6
609.536	1	14
609.706	1	2
609.876	1	-1
610.045	1	-3
610.215	1	3
610.385	1	-12
610.554	1	0
610.724	1	4
610.894	1	6
611.063	1	5
611.233	1	-6
611.403	1	-2
611.572	1	2
611.742	1	-1
611.912	1	12
612.081	1	3
612.251	1	2
612.421	1	-7
612.590	1	5
612.760	1	12
612.930	1	3
613.099	1	6
613.269	1	-7
613.439	1	0
613.608	1	3
613.778	1	-4
613.948	1	10
614.117	1	1
614.287	1	2
614.457	1	3
614.626	1	11
614.796	1	8
614.966	1	8
615.135	1	11
615.305	1	3
615.475	1	2
615.644	1	5
615.814	1	-14
615.984	1	7
616.153	1	9
616.323	1	1
616.493	1	16
616.662	1	-8
616.832	1	7
617.002	1	-5
617.171	1	3
617.341	1	-7
617.511	1	2
617.680	1	-9
617.850	1	-1
618.019	1	8
618.189	1	-3
618.359	1	-7
618.528	1	-8
618.698	1	0
618.868	1	-4
619.037	1	1
619.207	1	6
619.377	1	-4
619.546	1	-4
619.716	1	-4
619.885	1	-1
620.055	1	10
620.225	1	13
620.394	1	6
620.564	1	-8
620.734	1	6
620.903	1	9
621.073	1	2
621.242	1	-4
621.412	1	10
621.582	1	-5
621.751	1	13
621.921	1	11
622.091	1	1
622.260	1	8
622.430	1	6
622.599	1	14
622.769	1	-1
622.939	1	3
623.108	1	-2
623.278	1	12
623.448	1	-1
623.617	1	-2
623.787	1	11
623.956	1	14
624.126	1	2
624.296	1	6
624.465	1	-3
624.635	1	5
624.804	1	-3
624.974	1	5
625.144	1	21
625.313	1	6
625.483	1	6
625.652	1	16
625.822	1	2
625.992	1	8
626.161	1	-4
626.331	1	-1
626.501	1	9
626.670	1	4
626.840	1	-7
627.009	1	2
627.179	1	-9
627.348	1	13
627.518	1	3
627.688	1	6
627.857	1	7
628.027	1	-7
628.196	1	1
628.366	1	9
628.536	1	7
628.705	1	-1
628.875	1	13
629.044	1	7
629.214	1	2
629.384	1	-5
629.553	1	7
629.723	1	-6
629.892	1	-6
630.062	1	-1
630.232	1	9
630.401	1	8
630.571	1	9
630.740	1	-3
630.910	1	-1
631.079	1	-3
631.249	1	2
631.419	1	10
631.588	1	0
631.758	1	9
631.927	1	4
632.097	1	7
632.266	1	-5
632.436	1	8
632.606	1	-7
632.775	1	13
632.945	1	-12
633.114	1	1
633.284	1	0
633.453	1	5
633.623	1	10
633.793	1	7
633.962	1	8
634.132	1	-6
634.301	1	6
634.471	1	-4
634.640	1	4
634.810	1	3
634.979	1	4
635.149	1	-3
635.319	1	8
635.488	1	-2
635.658	1	8
635.827	1	4
635.997	1	2
636.166	1	-1
636.336	1	9
636.505	1	-1
636.675	1	3
636.845	1	2
637.014	1	0
637.184	1	15
637.353	1	5
637.523	1	2
637.692	1	-4
637.862	1	-6
638.031	1	-5
638.201	1	-1
638.370	1	12
638.540	1	2
638.710	1	3
638.879	1	8
639.049	1	1
639.218	1	16
639.388	1	-5
639.557	1	10
639.727	1	12
639.896	1	0
640.066	1	3
640.235	1	-3
640.405	1	7
640.574	1	0
640.744	1	-1
640.914	1	-3
641.083	1	1
641.253	1	-1
641.422	1	2
641.592	1	-3
641.761	1	-1
641.931	1	0
642.100	1	7
642.270	1	4
642.439	1	-2
642.609	1	13
642.778	1	7
642.948	1	11
643.117	1	-2
643.287	1	-6
643.456	1	-1
643.626	1	-4
643.795	1	6
643.965	1	6
644.134	1	2
644.304	1	8
644.473	1	3
644.643	1	-3
644.812	1	3
644.982	1	-2
645.151	1	2
645.321	1	0
645.490	1	11
645.660	1	-1
645.829	1	8
645.999	1	1
646.168	1	1
646.338	1	4
646.507	1	-3
646.677	1	4
646.846	1	8
647.016	1	-2
647.185	1	3
647.355	1	0
647.524	1	8
647.694	1	-4
647.863	1	2
648.033	1	1
648.202	1	6
648.372	1	1
648.541	1	0
648.711	1	-1
648.880	1	9
649.050	1	4
649.219	1	15
649.389	1	-3
649.558	1	6
649.728	1	4
649.897	1	3
650.067	1	4
650.236	1	2
650.406	1	13
650.575	1	11
650.745	1	12
650.914	1	2
651.084	1	2
651.253	1	5
651.423	1	2
651.592	1	-6
651.762	1	-2
651.931	1	2
652.101	1	6
652.270	1	-3
652.440	1	11
652.609	1	4
652.778	1	15
652.948	1	6
653.117	1	7
653.287	1	-6
653.456	1	3
653.626	1	-3
653.795	1	-2
653.965	1	-6
654.134	1	-7
654.304	1	5
654.473	1	-2
654.643	1	8
654.812	1	7
654.982	1	4
655.151	1	5
655.320	1	10
655.490	1	5
655.659	1	1
655.829	1	1
655.998	1	-11
656.168	1	6
656.337	1	-5
656.507	1	3
656.676	1	1
656.846	1	-1
657.015	1	-12
657.184	1	-8
657.354	1	11
657.523	1	4
657.693	1	-9
657.862	1	-15
658.032	1	9
658.201	1	4
658.371	1	-5
658.540	1	3
658.709	1	0
658.879	1	3
659.048	1	-11
659.218	1	6
659.387	1	-2
659.557	1	6
659.726	1	-2
659.895	1	-1
660.065	1	12
660.234	1	-2
660.404	1	8
660.573	1	8
660.743	1	1
660.912	1	-6
661.081	1	-4
661.251	1	14
661.420	1	7
661.590	1	5
661.759	1	7
661.929	1	2
662.098	1	7
662.267	1	6
662.437	1	19
662.606	1	8
662.776	1	-1
662.945	1	11
663.115	1	6
663.284	1	1
663.453	1	4
663.623	1	11
663.792	1	0
663.962	1	-7
664.131	1	0
664.300	1	-8
664.470	1	-2
664.639	1	2
664.809	1	-1
664.978	1	4
665.148	1	-8
665.317	1	-3
665.486	1	11
665.656	1	1
665.825	1	14
665.995	1	0
666.164	1	19
666.333	1	-2
666.503	1	3
666.672	1	3
666.842	1	-6
667.011	1	6
667.180	1	6
667.350	1	5
667.519	1	-9
667.689	1	-6
667.858	1	1
668.027	1	4
668.197	1	18
668.366	1	-2
668.536	1	-4
668.705	1	0
668.874	1	6
669.044	1	11
669.213	1	-3
669.382	1	4
669.552	1	6
669.721	1	4
669.891	1	0
670.060	1	0
670.229	1	-2
670.399	1	0
670.568	1	-5
670.738	1	8
670.907	1	2
671.076	1	3
671.246	1	-4
671.415	1	12
671.584	1	9
671.754	1	-3
671.923	1	9
672.093	1	-2
672.262	1	5
672.431	1	7
672.601	1	8
672.770	1	2
672.939	1	-9
673.109	1	9
673.278	1	-2
673.448	1	5
673.617	1	11
673.786	1	7
