325.333	1	-3
325.504	1	1
325.675	1	5
325.846	1	-8
326.017	1	2
326.188	1	4
326.359	1	6
326.531	1	0
326.702	1	9
326.873	1	-8
327.044	1	4
327.215	1	2
327.386	1	2
327.557	1	8
327.728	1	10
327.899	1	-2
328.070	1	8
328.241	1	6
328.412	1	5
328.583	1	5
328.754	1	-6
328.926	1	3
329.097	1	3
329.268	1	-5
329.439	1	11
329.610	1	9
329.781	1	10
329.952	1	-1
330.123	1	-6
330.294	1	-3
330.465	1	4
330.636	1	15
330.807	1	7
330.978	1	1
331.149	1	1
331.320	1	12
331.492	1	7
331.663	1	0
331.834	1	-11
332.005	1	5
332.176	1	4
332.347	1	13
332.518	1	8
332.689	1	3
332.860	1	3
333.031	1	10
333.202	1	13
333.373	1	6
333.544	1	-4
333.715	1	10
333.886	1	-10
334.057	1	6
334.228	1	-1
334.399	1	4
334.570	1	-11
334.741	1	-2
334.912	1	8
335.084	1	9
335.255	1	8
335.426	1	12
335.597	1	5
335.768	1	1
335.939	1	-9
336.110	1	-1
336.281	1	12
336.452	1	4
336.623	1	0
336.794	1	-9
336.965	1	-4
337.136	1	8
337.307	1	-2
337.478	1	4
337.649	1	-1
337.820	1	-6
337.991	1	15
338.162	1	2
338.333	1	12
338.504	1	1
338.675	1	11
338.846	1	7
339.017	1	9
339.188	1	5
339.359	1	6
339.530	1	7
339.701	1	-3
339.872	1	-3
340.043	1	-8
340.214	1	2
340.385	1	6
340.556	1	-2
340.727	1	11
340.898	1	10
341.069	1	-9
341.240	1	-12
341.411	1	16
341.582	1	5
341.753	1	-2
341.924	1	12
342.095	1	9
342.266	1	-4
342.437	1	-4
342.608	1	6
342.779	1	6
342.950	1	-3
343.121	1	2
343.292	1	6
343.463	1	0
343.634	1	6
343.805	1	7
343.976	1	-2
344.147	1	-2
344.318	1	6
344.489	1	7
344.660	1	0
344.831	1	2
345.002	1	18
345.173	1	7
345.344	1	-2
345.515	1	3
345.686	1	-3
345.857	1	-4
346.028	1	-10
346.199	1	11
346.370	1	13
346.541	1	-2
346.712	1	1
346.883	1	18
347.054	1	-1
347.225	1	-8
347.396	1	-5
347.567	1	9
347.738	1	8
347.909	1	14
348.080	1	9
348.251	1	11
348.422	1	-4
348.593	1	11
348.764	1	-1
348.935	1	-1
349.106	1	6
349.277	1	4
349.448	1	1
349.619	1	10
349.790	1	-1
349.961	1	5
350.132	1	9
350.303	1	1
350.474	1	0
350.645	1	10
350.816	1	4
350.987	1	5
351.157	1	4
351.328	1	4
351.499	1	9
351.670	1	-2
351.841	1	4
352.012	1	4
352.183	1	-2
352.354	1	13
352.525	1	3
352.696	1	-3
352.867	1	8
353.038	1	-3
353.209	1	1
353.380	1	11
353.551	1	-7
353.722	1	8
353.893	1	10
354.064	1	-2
354.235	1	8
354.406	1	6
354.576	1	6
354.747	1	6
354.918	1	13
355.089	1	8
355.260	1	14
355.431	1	9
355.602	1	5
355.773	1	-1
355.944	1	12
356.115	1	1
356.286	1	9
356.457	1	5
356.628	1	6
356.799	1	4
356.970	1	7
357.141	1	11
357.311	1	-2
357.482	1	-3
357.653	1	11
357.824	1	9
357.995	1	15
358.166	1	9
358.337	1	-3
358.508	1	-9
358.679	1	3
358.850	1	4
359.021	1	9
359.192	1	2
359.363	1	2
359.533	1	3
359.704	1	7
359.875	1	1
360.046	1	3
360.217	1	-6
360.388	1	-5
360.559	1	6
360.730	1	4
360.901	1	4
361.072	1	7
361.243	1	7
361.414	1	8
361.584	1	13
361.755	1	0
361.926	1	-1
362.097	1	0
362.268	1	2
362.439	1	10
362.610	1	4
362.781	1	13
362.952	1	-8
363.123	1	-2
363.293	1	-5
363.464	1	9
363.635	1	10
363.806	1	11
363.977	1	5
364.148	1	1
364.319	1	-2
364.490	1	5
364.661	1	8
364.832	1	4
365.002	1	1
365.173	1	-5
365.344	1	7
365.515	1	1
365.686	1	6
365.857	1	2
366.028	1	-5
366.199	1	1
366.370	1	6
366.540	1	0
366.711	1	15
366.882	1	1
367.053	1	6
367.224	1	2
367.395	1	12
367.566	1	3
367.737	1	1
367.908	1	4
368.078	1	9
368.249	1	13
368.420	1	9
368.591	1	9
368.762	1	-4
368.933	1	15
369.104	1	8
369.274	1	11
369.445	1	7
369.616	1	3
369.787	1	-4
369.958	1	18
370.129	1	3
370.300	1	3
370.471	1	-2
370.641	1	-12
370.812	1	17
370.983	1	0
371.154	1	5
371.325	1	1
371.496	1	-1
371.667	1	8
371.837	1	11
372.008	1	11
372.179	1	2
372.350	1	1
372.521	1	0
372.692	1	6
372.863	1	-3
373.033	1	17
373.204	1	14
373.375	1	1
373.546	1	11
373.717	1	8
373.888	1	3
374.059	1	11
374.229	1	4
374.400	1	15
374.571	1	11
374.742	1	1
374.913	1	10
375.084	1	12
375.254	1	3
375.425	1	0
375.596	1	0
375.767	1	-6
375.938	1	4
376.109	1	0
376.279	1	7
376.450	1	8
376.621	1	10
376.792	1	9
376.963	1	-5
377.134	1	5
377.304	1	8
377.475	1	6
377.646	1	-3
377.817	1	9
377.988	1	3
378.159	1	16
378.329	1	6
378.500	1	2
378.671	1	-7
378.842	1	5
379.013	1	1
379.184	1	10
379.354	1	17
379.525	1	3
379.696	1	10
379.867	1	-12
380.038	1	13
380.209	1	0
380.379	1	17
380.550	1	5
380.721	1	5
380.892	1	9
381.063	1	0
381.233	1	2
381.404	1	1
381.575	1	11
381.746	1	11
381.917	1	10
382.087	1	4
382.258	1	13
382.429	1	7
382.600	1	13
382.771	1	5
382.941	1	6
383.112	1	2
383.283	1	10
383.454	1	8
383.625	1	0
383.795	1	9
383.966	1	7
384.137	1	10
384.308	1	9
384.479	1	10
384.649	1	9
384.820	1	8
384.991	1	3
385.162	1	12
385.333	1	4
385.503	1	6
385.674	1	12
385.845	1	15
386.016	1	6
386.187	1	2
386.357	1	-1
386.528	1	-1
386.699	1	-3
386.870	1	5
387.041	1	-3
387.211	1	7
387.382	1	0
387.553	1	8
387.724	1	3
387.894	1	3
388.065	1	15
388.236	1	4
388.407	1	6
388.578	1	13
388.748	1	6
388.919	1	19
389.090	1	11
389.261	1	13
389.431	1	15
389.602	1	6
389.773	1	-6
389.944	1	-1
390.114	1	2
390.285	1	10
390.456	1	10
390.627	1	8
390.798	1	7
390.968	1	4
391.139	1	9
391.310	1	17
391.481	1	3
391.651	1	14
391.822	1	3
391.993	1	7
392.164	1	2
392.334	1	5
392.505	1	7
392.676	1	16
392.847	1	8
393.017	1	4
393.188	1	4
393.359	1	12
393.530	1	12
393.700	1	16
393.871	1	7
394.042	1	21
394.213	1	20
394.383	1	19
394.554	1	10
394.725	1	12
394.896	1	14
395.066	1	11
395.237	1	5
395.408	1	3
395.579	1	14
395.749	1	8
395.920	1	5
396.091	1	11
396.262	1	4
396.432	1	12
396.603	1	-4
396.774	1	12
396.945	1	17
397.115	1	-7
397.286	1	17
397.457	1	6
397.627	1	3
397.798	1	9
397.969	1	11
398.140	1	1
398.310	1	5
398.481	1	13
398.652	1	3
398.823	1	11
398.993	1	14
399.164	1	2
399.335	1	3
399.505	1	17
399.676	1	10
399.847	1	17
400.018	1	4
400.188	1	12
400.359	1	20
400.530	1	7
400.700	1	9
400.871	1	22
401.042	1	4
401.213	1	8
401.383	1	7
401.554	1	16
401.725	1	6
401.895	1	10
402.066	1	18
402.237	1	22
402.408	1	16
402.578	1	8
402.749	1	14
402.920	1	17
403.090	1	13
403.261	1	13
403.432	1	12
403.603	1	-3
403.773	1	17
403.944	1	16
404.115	1	10
404.285	1	14
404.456	1	12
404.627	1	9
404.797	1	12
404.968	1	9
405.139	1	5
405.310	1	7
405.480	1	10
405.651	1	13
405.822	1	17
405.992	1	0
406.163	1	17
406.334	1	17
406.504	1	3
406.675	1	2
406.846	1	10
407.016	1	4
407.187	1	7
407.358	1	16
407.528	1	15
407.699	1	7
407.870	1	19
408.041	1	9
408.211	1	-2
408.382	1	12
408.553	1	-2
408.723	1	14
408.894	1	14
409.065	1	14
409.235	1	6
409.406	1	7
409.577	1	9
409.747	1	16
409.918	1	9
410.089	1	1
410.259	1	8
410.430	1	14
410.601	1	14
410.771	1	5
410.942	1	8
411.113	1	16
411.283	1	11
411.454	1	10
411.625	1	3
411.795	1	1
411.966	1	4
412.137	1	2
412.307	1	8
412.478	1	15
412.649	1	9
412.819	1	0
412.990	1	13
413.161	1	14
413.331	1	10
413.502	1	-7
413.672	1	14
413.843	1	12
414.014	1	20
414.184	1	23
414.355	1	13
414.526	1	15
414.696	1	11
414.867	1	14
415.038	1	10
415.208	1	16
415.379	1	14
415.550	1	9
415.720	1	5
415.891	1	22
416.062	1	15
416.232	1	16
416.403	1	9
416.573	1	22
416.744	1	17
416.915	1	6
417.085	1	5
417.256	1	4
417.427	1	15
417.597	1	5
417.768	1	9
417.939	1	28
418.109	1	1
418.280	1	17
418.450	1	22
418.621	1	8
418.792	1	3
418.962	1	6
419.133	1	15
419.304	1	6
419.474	1	5
419.645	1	8
419.815	1	14
419.986	1	-2
420.157	1	20
420.327	1	9
420.498	1	8
420.669	1	10
420.839	1	15
421.010	1	7
421.180	1	3
421.351	1	20
421.522	1	12
421.692	1	15
421.863	1	4
422.033	1	19
422.204	1	8
422.375	1	7
422.545	1	6
422.716	1	6
422.886	1	21
423.057	1	0
423.228	1	17
423.398	1	9
423.569	1	18
423.740	1	-1
423.910	1	13
424.081	1	13
424.251	1	3
424.422	1	-3
424.593	1	5
424.763	1	17
424.934	1	13
425.104	1	8
425.275	1	17
425.445	1	15
425.616	1	17
425.787	1	10
425.957	1	10
426.128	1	16
426.298	1	3
426.469	1	-3
426.640	1	13
426.810	1	8
426.981	1	11
427.151	1	14
427.322	1	2
427.493	1	4
427.663	1	12
427.834	1	-7
428.004	1	17
428.175	1	10
428.345	1	16
428.516	1	14
428.687	1	8
428.857	1	12
429.028	1	9
429.198	1	8
429.369	1	13
429.540	1	4
429.710	1	8
429.881	1	18
430.051	1	11
430.222	1	7
430.392	1	12
430.563	1	7
430.734	1	19
430.904	1	13
431.075	1	4
431.245	1	12
431.416	1	-1
431.586	1	9
431.757	1	10
431.927	1	4
432.098	1	12
432.269	1	12
432.439	1	13
432.610	1	10
432.780	1	12
432.951	1	1
433.121	1	17
433.292	1	15
433.462	1	19
433.633	1	25
433.804	1	-8
433.974	1	17
434.145	1	16
434.315	1	19
434.486	1	-1
434.656	1	-1
434.827	1	8
434.997	1	22
435.168	1	17
435.339	1	14
435.509	1	15
435.680	1	12
435.850	1	10
436.021	1	12
436.191	1	6
436.362	1	10
436.532	1	4
436.703	1	17
436.873	1	12
437.044	1	9
437.214	1	22
437.385	1	21
437.556	1	17
437.726	1	8
437.897	1	12
438.067	1	5
438.238	1	17
438.408	1	16
438.579	1	6
438.749	1	3
438.920	1	15
439.090	1	7
439.261	1	10
439.431	1	5
439.602	1	7
439.772	1	6
439.943	1	16
440.113	1	14
440.284	1	14
440.455	1	11
440.625	1	4
440.796	1	15
440.966	1	9
441.137	1	4
441.307	1	3
441.478	1	17
441.648	1	14
441.819	1	13
441.989	1	2
442.160	1	10
442.330	1	21
442.501	1	2
442.671	1	13
442.842	1	18
443.012	1	8
443.183	1	11
443.353	1	19
443.524	1	5
443.694	1	9
443.865	1	9
444.035	1	6
444.206	1	3
444.376	1	23
444.547	1	7
444.717	1	16
444.888	1	4
445.058	1	10
445.229	1	4
445.399	1	12
445.570	1	-1
445.740	1	10
445.911	1	23
446.081	1	19
446.252	1	2
446.422	1	14
446.593	1	10
446.763	1	13
446.934	1	20
447.104	1	4
447.275	1	22
447.445	1	8
447.616	1	1
447.786	1	9
447.957	1	12
448.127	1	20
448.298	1	5
448.468	1	10
448.639	1	8
448.809	1	6
448.979	1	12
449.150	1	14
449.320	1	23
449.491	1	16
449.661	1	17
449.832	1	25
450.002	1	16
450.173	1	4
450.343	1	10
450.514	1	4
450.684	1	6
450.855	1	8
451.025	1	20
451.196	1	19
451.366	1	5
451.537	1	9
451.707	1	16
451.878	1	5
452.048	1	8
452.218	1	1
452.389	1	15
452.559	1	15
452.730	1	8
452.900	1	13
453.071	1	9
453.241	1	9
453.412	1	3
453.582	1	4
453.753	1	12
453.923	1	7
454.093	1	10
454.264	1	12
454.434	1	13
454.605	1	6
454.775	1	5
454.946	1	14
455.116	1	4
455.287	1	12
455.457	1	2
455.628	1	6
455.798	1	0
455.968	1	19
456.139	1	11
456.309	1	23
456.480	1	9
456.650	1	16
456.821	1	21
456.991	1	15
457.161	1	21
457.332	1	2
457.502	1	16
457.673	1	19
457.843	1	7
458.014	1	19
458.184	1	5
458.355	1	2
458.525	1	10
458.695	1	17
458.866	1	25
459.036	1	12
459.207	1	12
459.377	1	11
459.548	1	0
459.718	1	17
459.888	1	12
460.059	1	14
460.229	1	19
460.400	1	6
460.570	1	7
460.740	1	8
460.911	1	15
461.081	1	12
461.252	1	5
461.422	1	6
461.593	1	15
461.763	1	18
461.933	1	10
462.104	1	6
462.274	1	2
462.445	1	7
462.615	1	8
462.785	1	15
462.956	1	16
463.126	1	9
463.297	1	4
463.467	1	14
463.638	1	3
463.808	1	15
463.978	1	12
464.149	1	5
464.319	1	14
464.490	1	12
464.660	1	12
464.830	1	8
465.001	1	1
465.171	1	9
465.342	1	2
465.512	1	12
465.682	1	8
465.853	1	-3
466.023	1	3
466.194	1	8
466.364	1	19
466.534	1	10
466.705	1	-3
466.875	1	21
467.045	1	3
467.216	1	6
467.386	1	18
467.557	1	16
467.727	1	18
467.897	1	0
468.068	1	-3
468.238	1	8
468.409	1	-1
468.579	1	15
468.749	1	11
468.920	1	4
469.090	1	12
469.260	1	8
469.431	1	14
469.601	1	4
469.772	1	-2
469.942	1	14
470.112	1	14
470.283	1	13
470.453	1	15
470.623	1	8
470.794	1	3
470.964	1	17
471.135	1	18
471.305	1	6
471.475	1	8
471.646	1	0
471.816	1	10
471.986	1	16
472.157	1	14
472.327	1	12
472.497	1	17
472.668	1	-4
472.838	1	11
473.009	1	11
473.179	1	3
473.349	1	9
473.520	1	7
473.690	1	14
473.860	1	12
474.031	1	11
474.201	1	14
474.371	1	11
474.542	1	20
474.712	1	6
474.882	1	0
475.053	1	10
475.223	1	2
475.394	1	1
475.564	1	11
475.734	1	16
475.905	1	15
476.075	1	-2
476.245	1	11
476.416	1	0
476.586	1	6
476.756	1	4
476.927	1	7
477.097	1	10
477.267	1	14
477.438	1	12
477.608	1	4
477.778	1	7
477.949	1	4
478.119	1	10
478.289	1	-6
478.460	1	7
478.630	1	21
478.800	1	14
478.971	1	19
479.141	1	16
479.311	1	19
479.482	1	17
479.652	1	13
479.822	1	8
479.993	1	7
480.163	1	7
480.333	1	0
480.504	1	-1
480.674	1	9
480.844	1	3
481.015	1	9
481.185	1	2
481.355	1	9
481.525	1	8
481.696	1	3
481.866	1	10
482.036	1	11
482.207	1	8
482.377	1	14
482.547	1	-1
482.718	1	17
482.888	1	14
483.058	1	6
483.229	1	3
483.399	1	14
483.569	1	1
483.740	1	8
483.910	1	4
484.080	1	-2
484.250	1	8
484.421	1	-1
484.591	1	10
484.761	1	8
484.932	1	10
485.102	1	7
485.272	1	10
485.443	1	6
485.613	1	20
485.783	1	17
485.953	1	4
486.124	1	3
486.294	1	-2
486.464	1	8
486.635	1	11
486.805	1	1
486.975	1	5
487.146	1	0
487.316	1	15
487.486	1	11
487.656	1	10
487.827	1	4
487.997	1	2
488.167	1	12
488.338	1	-2
488.508	1	0
488.678	1	6
488.848	1	1
489.019	1	10
489.189	1	5
489.359	1	0
489.529	1	11
489.700	1	14
489.870	1	-6
490.040	1	-1
490.211	1	6
490.381	1	6
490.551	1	2
490.721	1	16
490.892	1	9
491.062	1	4
491.232	1	4
491.402	1	8
491.573	1	-3
491.743	1	8
491.913	1	0
492.084	1	14
492.254	1	7
492.424	1	15
492.594	1	10
492.765	1	3
492.935	1	-3
493.105	1	11
493.275	1	9
493.446	1	9
493.616	1	0
493.786	1	-1
493.956	1	-4
494.127	1	22
494.297	1	4
494.467	1	8
494.637	1	13
494.808	1	8
494.978	1	5
495.148	1	12
495.318	1	13
495.489	1	-3
495.659	1	11
495.829	1	11
495.999	1	7
496.170	1	-1
496.340	1	14
496.510	1	11
496.680	1	3
496.851	1	4
497.021	1	-1
497.191	1	3
497.361	1	5
497.532	1	-3
497.702	1	8
497.872	1	18
498.042	1	13
498.213	1	9
498.383	1	10
498.553	1	0
498.723	1	6
498.894	1	0
499.064	1	3
499.234	1	7
499.404	1	-12
499.574	1	2
499.745	1	4
499.915	1	7
500.085	1	3
500.255	1	-5
500.426	1	-5
500.596	1	-1
500.766	1	-2
500.936	1	19
501.106	1	1
501.277	1	13
501.447	1	19
501.617	1	6
501.787	1	14
501.958	1	-7
502.128	1	-12
502.298	1	7
502.468	1	12
502.638	1	-5
502.809	1	9
502.979	1	10
503.149	1	-3
503.319	1	9
503.489	1	5
503.660	1	-2
503.830	1	12
504.000	1	-6
504.170	1	17
504.340	1	5
504.511	1	15
504.681	1	3
504.851	1	-1
505.021	1	6
505.192	1	-5
505.362	1	10
505.532	1	13
505.702	1	11
505.872	1	-2
506.043	1	8
506.213	1	25
506.383	1	9
506.553	1	8
506.723	1	1
506.893	1	3
507.064	1	-1
507.234	1	4
507.404	1	10
507.574	1	2
507.744	1	8
507.915	1	8
508.085	1	10
508.255	1	4
508.425	1	8
508.595	1	3
508.766	1	-5
508.936	1	-2
509.106	1	7
509.276	1	12
509.446	1	5
509.616	1	8
509.787	1	2
509.957	1	8
510.127	1	0
510.297	1	-5
510.467	1	-10
510.638	1	11
510.808	1	3
510.978	1	1
511.148	1	23
511.318	1	8
511.488	1	14
511.659	1	-3
511.829	1	9
511.999	1	5
512.169	1	0
512.339	1	-9
512.509	1	9
512.680	1	5
512.850	1	-6
513.020	1	3
513.190	1	5
513.360	1	5
513.530	1	3
513.700	1	5
513.871	1	10
514.041	1	7
514.211	1	13
514.381	1	15
514.551	1	-5
514.721	1	2
514.892	1	3
515.062	1	0
515.232	1	3
515.402	1	5
515.572	1	0
515.742	1	0
515.912	1	3
516.083	1	7
516.253	1	13
516.423	1	3
516.593	1	6
516.763	1	-2
516.933	1	-3
517.104	1	0
517.274	1	-5
517.444	1	5
517.614	1	1
517.784	1	8
517.954	1	10
518.124	1	-1
518.294	1	8
518.465	1	7
518.635	1	8
518.805	1	13
518.975	1	4
519.145	1	10
519.315	1	-1
519.485	1	-3
519.656	1	6
519.826	1	11
519.996	1	-3
520.166	1	13
520.336	1	0
520.506	1	0
520.676	1	5
520.846	1	-1
521.017	1	0
521.187	1	10
521.357	1	4
521.527	1	4
521.697	1	5
521.867	1	1
522.037	1	-8
522.207	1	0
522.377	1	9
522.548	1	3
522.718	1	9
522.888	1	7
523.058	1	9
523.228	1	8
523.398	1	7
523.568	1	1
523.738	1	2
523.909	1	4
524.079	1	-5
524.249	1	-3
524.419	1	5
524.589	1	3
524.759	1	0
524.929	1	6
525.099	1	0
525.269	1	4
525.439	1	3
525.610	1	9
525.780	1	-2
525.950	1	0
526.120	1	-5
526.290	1	-4
526.460	1	-4
526.630	1	8
526.800	1	6
526.970	1	5
527.140	1	4
527.311	1	0
527.481	1	9
527.651	1	-1
527.821	1	4
527.991	1	0
528.161	1	4
528.331	1	8
528.501	1	12
528.671	1	-10
528.841	1	8
529.011	1	-2
529.181	1	1
529.352	1	4
529.522	1	-2
529.692	1	9
529.862	1	1
530.032	1	1
530.202	1	8
530.372	1	3
530.542	1	-1
530.712	1	0
530.882	1	0
531.052	1	10
531.222	1	2
531.392	1	2
531.563	1	3
531.733	1	7
531.903	1	11
532.073	1	-1
532.243	1	-13
532.413	1	15
532.583	1	3
532.753	1	-3
532.923	1	6
533.093	1	17
533.263	1	-3
533.433	1	19
533.603	1	2
533.773	1	-11
533.943	1	-1
534.113	1	1
534.284	1	-8
534.454	1	-4
534.624	1	6
534.794	1	-1
534.964	1	3
535.134	1	8
535.304	1	1
535.474	1	-13
535.644	1	-3
535.814	1	7
535.984	1	8
536.154	1	4
536.324	1	6
536.494	1	16
536.664	1	7
536.834	1	-2
537.004	1	-8
537.174	1	1
537.344	1	4
537.514	1	-2
537.685	1	-3
537.855	1	2
538.025	1	14
538.195	1	0
538.365	1	0
538.535	1	-7
538.705	1	2
538.875	1	4
539.045	1	6
539.215	1	-16
539.385	1	-1
539.555	1	9
539.725	1	2
539.895	1	14
540.065	1	-5
540.235	1	3
540.405	1	9
540.575	1	-8
540.745	1	2
540.915	1	0
541.085	1	-2
541.255	1	-15
541.425	1	10
541.595	1	11
541.765	1	11
541.935	1	-1
542.105	1	-2
542.275	1	-1
542.445	1	-15
542.615	1	4
542.785	1	-4
542.955	1	-6
543.125	1	-11
543.295	1	1
543.465	1	19
543.635	1	4
543.805	1	2
543.975	1	-1
544.145	1	6
544.315	1	1
544.485	1	3
544.655	1	10
544.825	1	10
544.995	1	5
545.165	1	5
545.335	1	4
545.505	1	15
545.675	1	-10
545.845	1	9
546.015	1	4
546.185	1	11
546.355	1	1
546.525	1	1
546.695	1	6
546.865	1	9
547.035	1	11
547.205	1	10
547.375	1	2
547.545	1	10
547.715	1	10
547.885	1	19
548.055	1	-7
548.225	1	0
548.395	1	-9
548.565	1	6
548.735	1	2
548.905	1	-6
549.075	1	10
549.245	1	7
549.415	1	-5
549.585	1	7
549.755	1	4
549.925	1	-2
550.095	1	3
550.265	1	2
550.435	1	-6
550.605	1	6
550.775	1	5
550.945	1	10
551.115	1	2
551.285	1	-9
551.455	1	10
551.625	1	-10
551.795	1	-2
551.965	1	-4
552.135	1	3
552.305	1	-4
552.475	1	5
552.645	1	0
552.815	1	0
552.985	1	-1
553.155	1	1
553.325	1	5
553.495	1	2
553.665	1	5
553.835	1	2
554.004	1	0
554.174	1	-3
554.344	1	4
554.514	1	6
554.684	1	0
554.854	1	-12
555.024	1	9
555.194	1	2
555.364	1	5
555.534	1	-2
555.704	1	15
555.874	1	-7
556.044	1	5
556.214	1	7
556.384	1	3
556.554	1	2
556.724	1	13
556.894	1	-2
557.064	1	8
557.234	1	-7
557.404	1	4
557.573	1	-10
557.743	1	-2
557.913	1	-1
558.083	1	6
558.253	1	-1
558.423	1	-5
558.593	1	-2
558.763	1	1
558.933	1	1
559.103	1	12
559.273	1	2
559.443	1	5
559.613	1	3
559.783	1	1
559.953	1	7
560.122	1	-3
560.292	1	4
560.462	1	8
560.632	1	17
560.802	1	-9
560.972	1	3
561.142	1	5
561.312	1	-1
561.482	1	3
561.652	1	1
561.822	1	-9
561.992	1	-12
562.162	1	20
562.331	1	6
562.501	1	-1
562.671	1	8
562.841	1	4
563.011	1	-13
563.181	1	5
563.351	1	1
563.521	1	5
563.691	1	6
563.861	1	0
564.031	1	-5
564.201	1	0
564.370	1	-3
564.540	1	-2
564.710	1	2
564.880	1	9
565.050	1	1
565.220	1	4
565.390	1	3
565.560	1	5
565.730	1	10
565.900	1	-10
566.069	1	6
566.239	1	-1
566.409	1	-4
566.579	1	-5
566.749	1	3
566.919	1	-2
567.089	1	1
567.259	1	3
567.429	1	1
567.599	1	0
567.768	1	1
567.938	1	-3
568.108	1	6
568.278	1	0
568.448	1	4
568.618	1	7
568.788	1	-15
568.958	1	-6
569.128	1	-9
569.297	1	3
569.467	1	4
569.637	1	12
569.807	1	-1
569.977	1	3
570.147	1	1
570.317	1	4
570.487	1	5
570.656	1	5
570.826	1	-3
570.996	1	9
571.166	1	5
571.336	1	-6
571.506	1	3
571.676	1	-1
571.846	1	2
572.015	1	4
572.185	1	-2
572.355	1	6
572.525	1	-1
572.695	1	-5
572.865	1	14
573.035	1	-12
573.205	1	-9
573.374	1	3
573.544	1	0
573.714	1	3
573.884	1	-7
574.054	1	2
574.224	1	8
574.394	1	2
574.563	1	9
574.733	1	6
574.903	1	1
575.073	1	-8
575.243	1	1
575.413	1	1
575.583	1	3
575.752	1	9
575.922	1	5
576.092	1	-1
576.262	1	3
576.432	1	5
576.602	1	-7
576.772	1	-7
576.941	1	5
577.111	1	3
577.281	1	13
577.451	1	-3
577.621	1	8
577.791	1	7
577.960	1	2
578.130	1	-6
578.300	1	11
578.470	1	4
578.640	1	-11
578.810	1	0
578.979	1	-5
579.149	1	-2
579.319	1	8
579.489	1	3
579.659	1	6
579.829	1	6
579.998	1	0
580.168	1	-7
580.338	1	-1
580.508	1	1
580.678	1	8
580.848	1	-1
581.017	1	-1
581.187	1	4
581.357	1	3
581.527	1	3
581.697	1	-3
581.867	1	6
582.036	1	7
582.206	1	-8
582.376	1	-4
582.546	1	8
582.716	1	-1
582.885	1	2
583.055	1	3
583.225	1	2
583.395	1	-3
583.565	1	-9
583.735	1	2
583.904	1	2
584.074	1	-13
584.244	1	7
584.414	1	3
584.584	1	-2
584.753	1	8
584.923	1	1
585.093	1	-4
585.263	1	-4
585.433	1	12
585.602	1	4
585.772	1	8
585.942	1	8
586.112	1	-2
586.282	1	9
586.451	1	-9
586.621	1	-6
586.791	1	4
586.961	1	5
587.131	1	1
587.300	1	3
587.470	1	-2
587.640	1	-10
587.810	1	-9
587.980	1	-11
588.149	1	5
588.319	1	17
588.489	1	-7
588.659	1	7
588.829	1	-4
588.998	1	-1
589.168	1	2
589.338	1	-1
589.508	1	7
589.677	1	-8
589.847	1	-1
590.017	1	5
590.187	1	-3
590.357	1	-5
590.526	1	2
590.696	1	-1
590.866	1	3
591.036	1	-1
591.205	1	-1
591.375	1	3
591.545	1	3
591.715	1	-9
591.885	1	-5
592.054	1	3
592.224	1	0
592.394	1	-3
592.564	1	1
592.733	1	5
592.903	1	-5
593.073	1	-5
593.243	1	5
593.412	1	-8
593.582	1	8
593.752	1	6
593.922	1	9
594.091	1	-11
594.261	1	-9
594.431	1	-2
594.601	1	6
594.771	1	0
594.940	1	10
595.110	1	4
595.280	1	5
595.450	1	5
595.619	1	0
595.789	1	10
595.959	1	-2
596.129	1	-4
596.298	1	12
596.468	1	8
596.638	1	8
596.808	1	-11
596.977	1	11
597.147	1	6
597.317	1	1
597.487	1	4
597.656	1	2
597.826	1	-2
597.996	1	4
598.166	1	11
598.335	1	-9
598.505	1	-9
598.675	1	1
598.844	1	6
599.014	1	5
599.184	1	-1
599.354	1	6
599.523	1	8
599.693	1	6
599.863	1	6
600.033	1	0
600.202	1	10
600.372	1	-1
600.542	1	0
600.712	1	5
600.881	1	9
601.051	1	5
601.221	1	17
601.390	1	7
601.560	1	6
601.730	1	2
601.900	1	18
602.069	1	-15
602.239	1	13
602.409	1	4
602.578	1	9
602.748	1	-7
602.918	1	5
603.088	1	10
603.257	1	7
603.427	1	12
603.597	1	-3
603.767	1	0
603.936	1	5
604.106	1	2
604.276	1	1
604.445	1	-5
604.615	1	-3
604.785	1	5
604.954	1	2
605.124	1	5
605.294	1	8
605.464	1	-5
605.633	1	12
605.803	1	7
605.973	1	6
606.142	1	1
606.312	1	6
606.482	1	-2
606.652	1	3
606.821	1	0
606.991	1	5
607.161	1	9
607.330	1	-1
607.500	1	12
607.670	1	-2
607.839	1	1
608.009	1	10
608.179	1	-8
608.348	1	5
608.518	1	-3
608.688	1	7
608.858	1	-3
609.027	1	8
609.197	1	-5
609.367	1	-1
609.536	1	10
609.706	1	7
609.876	1	0
610.045	1	2
610.215	1	4
610.385	1	-2
610.554	1	2
610.724	1	6
610.894	1	-1
611.063	1	4
611.233	1	-4
611.403	1	4
611.572	1	8
611.742	1	-7
611.912	1	3
612.081	1	0
612.251	1	-2
612.421	1	3
612.590	1	-4
612.760	1	11
612.930	1	2
613.099	1	3
613.269	1	-2
613.439	1	7
613.608	1	-2
613.778	1	-13
613.948	1	12
614.117	1	0
614.287	1	-10
614.457	1	9
614.626	1	9
614.796	1	9
614.966	1	6
615.135	1	8
615.305	1	5
615.475	1	-8
615.644	1	-1
615.814	1	6
615.984	1	-4
616.153	1	5
616.323	1	3
616.493	1	6
616.662	1	-5
616.832	1	3
617.002	1	-6
617.171	1	1
617.341	1	1
617.511	1	0
617.680	1	2
617.850	1	2
618.019	1	-1
618.189	1	1
618.359	1	2
618.528	1	-8
618.698	1	3
618.868	1	-3
619.037	1	6
619.207	1	9
619.377	1	2
619.546	1	-4
619.716	1	-1
619.885	1	17
620.055	1	11
620.225	1	7
620.394	1	1
620.564	1	2
620.734	1	1
620.903	1	7
621.073	1	0
621.242	1	-4
621.412	1	3
621.582	1	-1
621.751	1	6
621.921	1	5
622.091	1	-10
622.260	1	-6
622.430	1	16
622.599	1	14
622.769	1	-2
622.939	1	-4
623.108	1	5
623.278	1	20
623.448	1	3
623.617	1	0
623.787	1	2
623.956	1	6
624.126	1	-1
624.296	1	1
624.465	1	-5
624.635	1	5
624.804	1	5
624.974	1	11
625.144	1	21
625.313	1	8
625.483	1	4
625.652	1	5
625.822	1	-4
625.992	1	8
626.161	1	-6
626.331	1	-2
626.501	1	4
626.670	1	1
626.840	1	0
627.009	1	3
627.179	1	-10
627.348	1	9
627.518	1	1
627.688	1	0
627.857	1	1
628.027	1	-5
628.196	1	-2
628.366	1	3
628.536	1	5
628.705	1	3
628.875	1	9
629.044	1	8
629.214	1	0
629.384	1	7
629.553	1	3
629.723	1	0
629.892	1	-6
630.062	1	-8
630.232	1	-1
630.401	1	0
630.571	1	8
630.740	1	-7
630.910	1	4
631.079	1	4
631.249	1	3
631.419	1	3
631.588	1	1
631.758	1	-2
631.927	1	3
632.097	1	-1
632.266	1	-3
632.436	1	8
632.606	1	3
632.775	1	8
632.945	1	-1
633.114	1	-2
633.284	1	11
633.453	1	12
633.623	1	12
633.793	1	-1
633.962	1	-5
634.132	1	-5
634.301	1	4
634.471	1	2
634.640	1	-1
634.810	1	2
634.979	1	-5
635.149	1	3
635.319	1	14
635.488	1	-6
635.658	1	15
635.827	1	9
635.997	1	10
636.166	1	-2
636.336	1	8
636.505	1	4
636.675	1	-2
636.845	1	0
637.014	1	2
637.184	1	6
637.353	1	5
637.523	1	4
637.692	1	-1
637.862	1	-6
638.031	1	-3
638.201	1	-3
638.370	1	5
638.540	1	-4
638.710	1	6
638.879	1	4
639.049	1	-1
639.218	1	17
639.388	1	3
639.557	1	4
639.727	1	13
639.896	1	2
640.066	1	7
640.235	1	1
640.405	1	1
640.574	1	2
640.744	1	-1
640.914	1	10
641.083	1	3
641.253	1	0
641.422	1	5
641.592	1	3
641.761	1	1
641.931	1	-4
642.100	1	12
642.270	1	-8
642.439	1	1
642.609	1	14
642.778	1	0
642.948	1	9
643.117	1	13
643.287	1	-11
643.456	1	7
643.626	1	8
643.795	1	2
643.965	1	9
644.134	1	2
644.304	1	15
644.473	1	6
644.643	1	-3
644.812	1	6
644.982	1	1
645.151	1	15
645.321	1	7
645.490	1	6
645.660	1	2
645.829	1	-1
645.999	1	10
646.168	1	-1
646.338	1	6
646.507	1	-5
646.677	1	7
646.846	1	7
647.016	1	-4
647.185	1	6
647.355	1	-5
647.524	1	2
647.694	1	-9
647.863	1	9
648.033	1	1
648.202	1	-4
648.372	1	-2
648.541	1	3
648.711	1	8
648.880	1	5
649.050	1	5
649.219	1	6
649.389	1	-4
649.558	1	1
649.728	1	1
649.897	1	3
650.067	1	-2
650.236	1	2
650.406	1	9
650.575	1	-5
650.745	1	6
650.914	1	-5
651.084	1	1
651.253	1	-2
651.423	1	4
651.592	1	-3
651.762	1	3
651.931	1	-2
652.101	1	5
652.270	1	-7
652.440	1	8
652.609	1	12
652.778	1	4
652.948	1	-2
653.117	1	3
653.287	1	-2
653.456	1	-3
653.626	1	4
653.795	1	0
653.965	1	2
654.134	1	-9
654.304	1	4
654.473	1	4
654.643	1	5
654.812	1	8
654.982	1	-4
655.151	1	6
655.320	1	8
655.490	1	4
655.659	1	12
655.829	1	6
655.998	1	-11
656.168	1	-5
656.337	1	2
656.507	1	-6
656.676	1	2
656.846	1	5
657.015	1	5
657.184	1	1
657.354	1	5
657.523	1	8
657.693	1	-2
657.862	1	-6
658.032	1	3
658.201	1	5
658.371	1	-2
658.540	1	0
658.709	1	-1
658.879	1	5
659.048	1	7
659.218	1	-4
659.387	1	-1
659.557	1	-4
659.726	1	4
659.895	1	-2
660.065	1	15
660.234	1	4
660.404	1	-4
660.573	1	9
660.743	1	5
660.912	1	-12
661.081	1	-12
661.251	1	12
661.420	1	10
661.590	1	3
661.759	1	2
661.929	1	5
662.098	1	5
662.267	1	6
662.437	1	8
662.606	1	1
662.776	1	2
662.945	1	3
663.115	1	4
663.284	1	0
663.453	1	9
663.623	1	11
663.792	1	5
663.962	1	0
664.131	1	8
664.300	1	-14
664.470	1	-3
664.639	1	-4
664.809	1	13
664.978	1	2
665.148	1	-11
665.317	1	2
665.486	1	3
665.656	1	6
665.825	1	9
665.995	1	3
666.164	1	8
666.333	1	0
666.503	1	2
666.672	1	13
666.842	1	0
667.011	1	0
667.180	1	8
667.350	1	0
667.519	1	7
667.689	1	0
667.858	1	3
668.027	1	4
668.197	1	12
668.366	1	-3
668.536	1	-1
668.705	1	-4
668.874	1	-3
669.044	1	3
669.213	1	4
669.382	1	-2
669.552	1	7
669.721	1	8
669.891	1	2
670.060	1	-1
670.229	1	-5
670.399	1	-2
670.568	1	1
670.738	1	-5
670.907	1	8
671.076	1	-2
671.246	1	-13
671.415	1	12
671.584	1	-1
671.754	1	-6
671.923	1	9
672.093	1	-1
672.262	1	2
672.431	1	8
672.601	1	9
672.770	1	-2
672.939	1	1
673.109	1	9
673.278	1	-2
673.448	1	9
673.617	1	-5
673.786	1	13
