325.333	1	-4
325.504	1	2
325.675	1	-1
325.846	1	3
326.017	1	-9
326.188	1	4
326.359	1	4
326.531	1	6
326.702	1	-2
326.873	1	4
327.044	1	7
327.215	1	-12
327.386	1	1
327.557	1	6
327.728	1	5
327.899	1	2
328.070	1	0
328.241	1	0
328.412	1	-7
328.583	1	8
328.754	1	-4
328.926	1	5
329.097	1	-11
329.268	1	-7
329.439	1	-4
329.610	1	1
329.781	1	1
329.952	1	3
330.123	1	-4
330.294	1	1
330.465	1	10
330.636	1	8
330.807	1	0
330.978	1	-8
331.149	1	7
331.320	1	5
331.492	1	-2
331.663	1	-5
331.834	1	-4
332.005	1	3
332.176	1	8
332.347	1	7
332.518	1	10
332.689	1	-2
332.860	1	7
333.031	1	5
333.202	1	2
333.373	1	-2
333.544	1	-1
333.715	1	4
333.886	1	-1
334.057	1	4
334.228	1	-6
334.399	1	5
334.570	1	-8
334.741	1	3
334.912	1	1
335.084	1	-3
335.255	1	1
335.426	1	7
335.597	1	9
335.768	1	-5
335.939	1	-10
336.110	1	5
336.281	1	-1
336.452	1	0
336.623	1	-7
336.794	1	-4
336.965	1	-11
337.136	1	7
337.307	1	6
337.478	1	-6
337.649	1	-6
337.820	1	-3
337.991	1	-2
338.162	1	3
338.333	1	4
338.504	1	6
338.675	1	8
338.846	1	3
339.017	1	7
339.188	1	17
339.359	1	6
339.530	1	-2
339.701	1	-13
339.872	1	-4
340.043	1	-5
340.214	1	3
340.385	1	8
340.556	1	6
340.727	1	9
340.898	1	2
341.069	1	-9
341.240	1	-7
341.411	1	19
341.582	1	4
341.753	1	-4
341.924	1	-13
342.095	1	7
342.266	1	-11
342.437	1	-15
342.608	1	-1
342.779	1	0
342.950	1	-9
343.121	1	3
343.292	1	5
343.463	1	3
343.634	1	5
343.805	1	2
343.976	1	-6
344.147	1	1
344.318	1	5
344.489	1	-1
344.660	1	6
344.831	1	1
345.002	1	8
345.173	1	8
345.344	1	-3
345.515	1	8
345.686	1	0
345.857	1	-6
346.028	1	-6
346.199	1	11
346.370	1	6
346.541	1	1
346.712	1	-1
346.883	1	16
347.054	1	-1
347.225	1	-5
347.396	1	-4
347.567	1	5
347.738	1	-4
347.909	1	9
348.080	1	11
348.251	1	-11
348.422	1	2
348.593	1	5
348.764	1	1
348.935	1	-1
349.106	1	2
349.277	1	3
349.448	1	3
349.619	1	8
349.790	1	4
349.961	1	4
350.132	1	6
350.303	1	-5
350.474	1	-6
350.645	1	13
350.816	1	-2
350.987	1	9
351.157	1	-4
351.328	1	-5
351.499	1	2
351.670	1	-9
351.841	1	2
352.012	1	9
352.183	1	9
352.354	1	3
352.525	1	3
352.696	1	4
352.867	1	0
353.038	1	-6
353.209	1	-1
353.380	1	1
353.551	1	-3
353.722	1	5
353.893	1	-4
354.064	1	-2
354.235	1	7
354.406	1	6
354.576	1	2
354.747	1	1
354.918	1	10
355.089	1	0
355.260	1	1
355.431	1	6
355.602	1	-4
355.773	1	-2
355.944	1	3
356.115	1	3
356.286	1	7
356.457	1	4
356.628	1	-2
356.799	1	-3
356.970	1	-3
357.141	1	6
357.311	1	-5
357.482	1	0
357.653	1	3
357.824	1	1
357.995	1	5
358.166	1	4
358.337	1	-1
358.508	1	-7
358.679	1	2
358.850	1	-5
359.021	1	3
359.192	1	-5
359.363	1	-3
359.533	1	3
359.704	1	-1
359.875	1	0
360.046	1	4
360.217	1	-10
360.388	1	-4
360.559	1	-8
360.730	1	1
360.901	1	4
361.072	1	-1
361.243	1	2
361.414	1	-2
361.584	1	11
361.755	1	6
361.926	1	-3
362.097	1	3
362.268	1	11
362.439	1	7
362.610	1	-6
362.781	1	14
362.952	1	5
363.123	1	-9
363.293	1	1
363.464	1	3
363.635	1	1
363.806	1	3
363.977	1	1
364.148	1	1
364.319	1	-6
364.490	1	3
364.661	1	3
364.832	1	14
365.002	1	0
365.173	1	-11
365.344	1	1
365.515	1	5
365.686	1	-2
365.857	1	-5
366.028	1	-1
366.199	1	14
366.370	1	-4
366.540	1	-1
366.711	1	8
366.882	1	-1
367.053	1	5
367.224	1	-6
367.395	1	9
367.566	1	-2
367.737	1	9
367.908	1	4
368.078	1	-4
368.249	1	4
368.420	1	3
368.591	1	5
368.762	1	-12
368.933	1	5
369.104	1	4
369.274	1	8
369.445	1	12
369.616	1	-3
369.787	1	-3
369.958	1	10
370.129	1	4
370.300	1	0
370.471	1	6
370.641	1	6
370.812	1	8
370.983	1	1
371.154	1	3
371.325	1	2
371.496	1	-4
371.667	1	4
371.837	1	-3
372.008	1	11
372.179	1	0
372.350	1	9
372.521	1	0
372.692	1	-2
372.863	1	2
373.033	1	13
373.204	1	17
373.375	1	1
373.546	1	10
373.717	1	-1
373.888	1	7
374.059	1	-4
374.229	1	10
374.400	1	12
374.571	1	2
374.742	1	-4
374.913	1	-1
375.084	1	18
375.254	1	11
375.425	1	-9
375.596	1	4
375.767	1	-4
375.938	1	0
376.109	1	-7
376.279	1	-1
376.450	1	-3
376.621	1	10
376.792	1	2
376.963	1	11
377.134	1	-4
377.304	1	7
377.475	1	1
377.646	1	-13
377.817	1	-5
377.988	1	9
378.159	1	4
378.329	1	9
378.500	1	-9
378.671	1	-1
378.842	1	2
379.013	1	-3
379.184	1	13
379.354	1	5
379.525	1	-8
379.696	1	14
379.867	1	1
380.038	1	7
380.209	1	-4
380.379	1	5
380.550	1	4
380.721	1	-2
380.892	1	8
381.063	1	8
381.233	1	12
381.404	1	-9
381.575	1	-6
381.746	1	12
381.917	1	-2
382.087	1	-4
382.258	1	10
382.429	1	3
382.600	1	5
382.771	1	-7
382.941	1	0
383.112	1	-6
383.283	1	3
383.454	1	2
383.625	1	4
383.795	1	5
383.966	1	3
384.137	1	4
384.308	1	1
384.479	1	9
384.649	1	2
384.820	1	8
384.991	1	-10
385.162	1	-1
385.333	1	3
385.503	1	19
385.674	1	10
385.845	1	-7
386.016	1	8
386.187	1	-5
386.357	1	-8
386.528	1	4
386.699	1	-9
386.870	1	-4
387.041	1	-4
387.211	1	0
387.382	1	-8
387.553	1	5
387.724	1	-1
387.894	1	4
388.065	1	14
388.236	1	7
388.407	1	10
388.578	1	2
388.748	1	5
388.919	1	17
389.090	1	-2
389.261	1	10
389.431	1	11
389.602	1	-3
389.773	1	-11
389.944	1	-3
390.114	1	13
390.285	1	10
390.456	1	-5
390.627	1	9
390.798	1	7
390.968	1	-7
391.139	1	-8
391.310	1	20
391.481	1	3
391.651	1	3
391.822	1	4
391.993	1	-1
392.164	1	-18
392.334	1	-4
392.505	1	8
392.676	1	6
392.847	1	4
393.017	1	5
393.188	1	-3
393.359	1	5
393.530	1	13
393.700	1	6
393.871	1	-2
394.042	1	3
394.213	1	11
394.383	1	11
394.554	1	11
394.725	1	4
394.896	1	9
395.066	1	4
395.237	1	1
395.408	1	0
395.579	1	6
395.749	1	5
395.920	1	-2
396.091	1	6
396.262	1	-5
396.432	1	4
396.603	1	4
396.774	1	9
396.945	1	-4
397.115	1	-11
397.286	1	18
397.457	1	3
397.627	1	7
397.798	1	-1
397.969	1	10
398.140	1	-1
398.310	1	15
398.481	1	5
398.652	1	1
398.823	1	2
398.993	1	18
399.164	1	13
399.335	1	4
399.505	1	10
399.676	1	6
399.847	1	5
400.018	1	4
400.188	1	12
400.359	1	12
400.530	1	5
400.700	1	7
400.871	1	7
401.042	1	4
401.213	1	10
401.383	1	3
401.554	1	11
401.725	1	1
401.895	1	2
402.066	1	13
402.237	1	14
402.408	1	10
402.578	1	9
402.749	1	9
402.920	1	7
403.090	1	3
403.261	1	9
403.432	1	16
403.603	1	1
403.773	1	11
403.944	1	7
404.115	1	5
404.285	1	19
404.456	1	11
404.627	1	-3
404.797	1	4
404.968	1	-3
405.139	1	12
405.310	1	5
405.480	1	10
405.651	1	12
405.822	1	14
405.992	1	4
406.163	1	-1
406.334	1	13
406.504	1	7
406.675	1	0
406.846	1	7
407.016	1	3
407.187	1	15
407.358	1	3
407.528	1	4
407.699	1	11
407.870	1	10
408.041	1	-1
408.211	1	-4
408.382	1	5
408.553	1	-12
408.723	1	15
408.894	1	-2
409.065	1	25
409.235	1	-2
409.406	1	0
409.577	1	10
409.747	1	11
409.918	1	-2
410.089	1	0
410.259	1	9
410.430	1	15
410.601	1	3
410.771	1	5
410.942	1	4
411.113	1	8
411.283	1	13
411.454	1	8
411.625	1	9
411.795	1	-3
411.966	1	-5
412.137	1	0
412.307	1	9
412.478	1	9
412.649	1	3
412.819	1	-6
412.990	1	8
413.161	1	-2
413.331	1	8
413.502	1	-8
413.672	1	13
413.843	1	9
414.014	1	12
414.184	1	3
414.355	1	1
414.526	1	8
414.696	1	11
414.867	1	2
415.038	1	1
415.208	1	-1
415.379	1	14
415.550	1	2
415.720	1	6
415.891	1	20
416.062	1	10
416.232	1	2
416.403	1	7
416.573	1	4
416.744	1	3
416.915	1	8
417.085	1	3
417.256	1	9
417.427	1	6
417.597	1	5
417.768	1	8
417.939	1	5
418.109	1	-1
418.280	1	7
418.450	1	15
418.621	1	8
418.792	1	2
418.962	1	2
419.133	1	6
419.304	1	3
419.474	1	7
419.645	1	1
419.815	1	6
419.986	1	4
420.157	1	20
420.327	1	3
420.498	1	5
420.669	1	7
420.839	1	4
421.010	1	3
421.180	1	2
421.351	1	12
421.522	1	13
421.692	1	7
421.863	1	3
422.033	1	25
422.204	1	13
422.375	1	6
422.545	1	8
422.716	1	3
422.886	1	5
423.057	1	5
423.228	1	9
423.398	1	3
423.569	1	6
423.740	1	-2
423.910	1	14
424.081	1	9
424.251	1	3
424.422	1	-2
424.593	1	-1
424.763	1	3
424.934	1	9
425.104	1	10
425.275	1	9
425.445	1	13
425.616	1	8
425.787	1	6
425.957	1	0
426.128	1	15
426.298	1	6
426.469	1	-1
426.640	1	4
426.810	1	5
426.981	1	14
427.151	1	4
427.322	1	-6
427.493	1	-8
427.663	1	3
427.834	1	-5
428.004	1	5
428.175	1	16
428.345	1	6
428.516	1	9
428.687	1	3
428.857	1	9
429.028	1	3
429.198	1	8
429.369	1	-1
429.540	1	-1
429.710	1	8
429.881	1	8
430.051	1	9
430.222	1	5
430.392	1	10
430.563	1	6
430.734	1	8
430.904	1	2
431.075	1	-5
431.245	1	8
431.416	1	2
431.586	1	4
431.757	1	5
431.927	1	-8
432.098	1	6
432.269	1	13
432.439	1	3
432.610	1	2
432.780	1	7
432.951	1	6
433.121	1	15
433.292	1	10
433.462	1	10
433.633	1	13
433.804	1	-10
433.974	1	-5
434.145	1	10
434.315	1	13
434.486	1	-5
434.656	1	0
434.827	1	9
434.997	1	10
435.168	1	7
435.339	1	5
435.509	1	5
435.680	1	4
435.850	1	-4
436.021	1	-2
436.191	1	13
436.362	1	16
436.532	1	4
436.703	1	13
436.873	1	10
437.044	1	1
437.214	1	4
437.385	1	12
437.556	1	8
437.726	1	-3
437.897	1	1
438.067	1	3
438.238	1	4
438.408	1	6
438.579	1	4
438.749	1	3
438.920	1	1
439.090	1	-3
439.261	1	-5
439.431	1	4
439.602	1	3
439.772	1	11
439.943	1	9
440.113	1	9
440.284	1	3
440.455	1	10
440.625	1	-8
440.796	1	4
440.966	1	4
441.137	1	5
441.307	1	-5
441.478	1	9
441.648	1	6
441.819	1	1
441.989	1	-6
442.160	1	10
442.330	1	7
442.501	1	2
442.671	1	-4
442.842	1	9
443.012	1	3
443.183	1	6
443.353	1	8
443.524	1	9
443.694	1	13
443.865	1	2
444.035	1	1
444.206	1	7
444.376	1	1
444.547	1	-9
444.717	1	8
444.888	1	2
445.058	1	6
445.229	1	8
445.399	1	2
445.570	1	0
445.740	1	3
445.911	1	4
446.081	1	13
446.252	1	-9
446.422	1	17
446.593	1	5
446.763	1	16
446.934	1	9
447.104	1	0
447.275	1	8
447.445	1	9
447.616	1	11
447.786	1	4
447.957	1	-7
448.127	1	12
448.298	1	6
448.468	1	10
448.639	1	4
448.809	1	0
448.979	1	9
449.150	1	-1
449.320	1	12
449.491	1	12
449.661	1	13
449.832	1	10
450.002	1	7
450.173	1	-4
450.343	1	6
450.514	1	-5
450.684	1	10
450.855	1	7
451.025	1	5
451.196	1	12
451.366	1	3
451.537	1	-2
451.707	1	11
451.878	1	6
452.048	1	-2
452.218	1	6
452.389	1	1
452.559	1	9
452.730	1	4
452.900	1	9
453.071	1	3
453.241	1	7
453.412	1	-9
453.582	1	-4
453.753	1	13
453.923	1	13
454.093	1	3
454.264	1	-1
454.434	1	13
454.605	1	0
454.775	1	-2
454.946	1	-10
455.116	1	0
455.287	1	4
455.457	1	2
455.628	1	5
455.798	1	0
455.968	1	10
456.139	1	6
456.309	1	5
456.480	1	-4
456.650	1	16
456.821	1	9
456.991	1	3
457.161	1	4
457.332	1	12
457.502	1	14
457.673	1	11
457.843	1	4
458.014	1	13
458.184	1	17
458.355	1	-4
458.525	1	2
458.695	1	5
458.866	1	13
459.036	1	12
459.207	1	10
459.377	1	10
459.548	1	-5
459.718	1	5
459.888	1	9
460.059	1	10
460.229	1	10
460.400	1	1
460.570	1	1
460.740	1	3
460.911	1	7
461.081	1	15
461.252	1	2
461.422	1	7
461.593	1	8
461.763	1	11
461.933	1	8
462.104	1	7
462.274	1	4
462.445	1	-3
462.615	1	5
462.785	1	9
462.956	1	5
463.126	1	6
463.297	1	4
463.467	1	1
463.638	1	9
463.808	1	13
463.978	1	11
464.149	1	-5
464.319	1	12
464.490	1	12
464.660	1	1
464.830	1	2
465.001	1	0
465.171	1	10
465.342	1	-3
465.512	1	9
465.682	1	-4
465.853	1	-3
466.023	1	0
466.194	1	9
466.364	1	12
466.534	1	4
466.705	1	-1
466.875	1	4
467.045	1	2
467.216	1	8
467.386	1	10
467.557	1	7
467.727	1	6
467.897	1	3
468.068	1	-14
468.238	1	12
468.409	1	0
468.579	1	5
468.749	1	6
468.920	1	-2
469.090	1	22
469.260	1	3
469.431	1	9
469.601	1	-8
469.772	1	-9
469.942	1	1
470.112	1	2
470.283	1	14
470.453	1	17
470.623	1	7
470.794	1	-5
470.964	1	10
471.135	1	9
471.305	1	0
471.475	1	2
471.646	1	4
471.816	1	2
471.986	1	8
472.157	1	5
472.327	1	17
472.497	1	15
472.668	1	2
472.838	1	5
473.009	1	4
473.179	1	4
473.349	1	11
473.520	1	5
473.690	1	7
473.860	1	13
474.031	1	8
474.201	1	14
474.371	1	12
474.542	1	10
474.712	1	3
474.882	1	5
475.053	1	5
475.223	1	-8
475.394	1	6
475.564	1	2
475.734	1	15
475.905	1	3
476.075	1	9
476.245	1	13
476.416	1	-1
476.586	1	-6
476.756	1	4
476.927	1	-4
477.097	1	-3
477.267	1	10
477.438	1	17
477.608	1	-2
477.778	1	-5
477.949	1	4
478.119	1	8
478.289	1	-8
478.460	1	-6
478.630	1	13
478.800	1	18
478.971	1	0
479.141	1	12
479.311	1	3
479.482	1	9
479.652	1	2
479.822	1	7
479.993	1	0
480.163	1	4
480.333	1	9
480.504	1	4
480.674	1	5
480.844	1	1
481.015	1	8
481.185	1	1
481.355	1	9
481.525	1	6
481.696	1	1
481.866	1	4
482.036	1	12
482.207	1	5
482.377	1	8
482.547	1	-9
482.718	1	0
482.888	1	11
483.058	1	6
483.229	1	6
483.399	1	5
483.569	1	3
483.740	1	2
483.910	1	-5
484.080	1	-4
484.250	1	-9
484.421	1	0
484.591	1	12
484.761	1	9
484.932	1	10
485.102	1	6
485.272	1	-7
485.443	1	-2
485.613	1	14
485.783	1	15
485.953	1	-1
486.124	1	4
486.294	1	1
486.464	1	-6
486.635	1	17
486.805	1	-4
486.975	1	3
487.146	1	-7
487.316	1	8
487.486	1	5
487.656	1	0
487.827	1	-2
487.997	1	1
488.167	1	9
488.338	1	2
488.508	1	-1
488.678	1	-1
488.848	1	-1
489.019	1	5
489.189	1	0
489.359	1	7
489.529	1	-1
489.700	1	7
489.870	1	-3
490.040	1	-8
490.211	1	3
490.381	1	3
490.551	1	-7
490.721	1	-2
490.892	1	6
491.062	1	-6
491.232	1	-5
491.402	1	7
491.573	1	0
491.743	1	0
491.913	1	-9
492.084	1	3
492.254	1	11
492.424	1	7
492.594	1	11
492.765	1	7
492.935	1	5
493.105	1	14
493.275	1	-4
493.446	1	4
493.616	1	-4
493.786	1	-2
493.956	1	-1
494.127	1	4
494.297	1	2
494.467	1	1
494.637	1	8
494.808	1	5
494.978	1	-1
495.148	1	1
495.318	1	9
495.489	1	-16
495.659	1	-7
495.829	1	4
495.999	1	-3
496.170	1	-10
496.340	1	6
496.510	1	-4
496.680	1	-6
496.851	1	0
497.021	1	-14
497.191	1	-6
497.361	1	-6
497.532	1	-8
497.702	1	-3
497.872	1	1
498.042	1	7
498.213	1	3
498.383	1	11
498.553	1	-2
498.723	1	4
498.894	1	5
499.064	1	1
499.234	1	2
499.404	1	-2
499.574	1	-4
499.745	1	4
499.915	1	4
500.085	1	5
500.255	1	-1
500.426	1	4
500.596	1	-4
500.766	1	-3
500.936	1	8
501.106	1	-4
501.277	1	9
501.447	1	-4
501.617	1	1
501.787	1	7
501.958	1	-2
502.128	1	-6
502.298	1	3
502.468	1	8
502.638	1	5
502.809	1	10
502.979	1	15
503.149	1	-5
503.319	1	3
503.489	1	-8
503.660	1	-4
503.830	1	2
504.000	1	8
504.170	1	5
504.340	1	2
504.511	1	6
504.681	1	-8
504.851	1	-1
505.021	1	7
505.192	1	-9
505.362	1	4
505.532	1	4
505.702	1	-10
505.872	1	-2
506.043	1	11
506.213	1	14
506.383	1	-4
506.553	1	6
506.723	1	1
506.893	1	-15
507.064	1	-12
507.234	1	-6
507.404	1	-2
507.574	1	-3
507.744	1	3
507.915	1	2
508.085	1	13
508.255	1	1
508.425	1	0
508.595	1	2
508.766	1	1
508.936	1	4
509.106	1	-4
509.276	1	0
509.446	1	-3
509.616	1	-3
509.787	1	12
509.957	1	-3
510.127	1	3
510.297	1	-1
510.467	1	-7
510.638	1	12
510.808	1	2
510.978	1	-5
511.148	1	18
511.318	1	-7
511.488	1	12
511.659	1	-5
511.829	1	6
511.999	1	5
512.169	1	-1
512.339	1	3
512.509	1	9
512.680	1	2
512.850	1	-6
513.020	1	-11
513.190	1	-6
513.360	1	0
513.530	1	4
513.700	1	7
513.871	1	13
514.041	1	6
514.211	1	4
514.381	1	10
514.551	1	1
514.721	1	7
514.892	1	-3
515.062	1	3
515.232	1	3
515.402	1	5
515.572	1	-4
515.742	1	9
515.912	1	-6
516.083	1	6
516.253	1	1
516.423	1	-2
516.593	1	-4
516.763	1	3
516.933	1	-13
517.104	1	2
517.274	1	-5
517.444	1	0
517.614	1	-5
517.784	1	6
517.954	1	13
518.124	1	-4
518.294	1	5
518.465	1	-1
518.635	1	-4
518.805	1	12
518.975	1	-1
519.145	1	4
519.315	1	-3
519.485	1	-10
519.656	1	11
519.826	1	9
519.996	1	4
520.166	1	8
520.336	1	1
520.506	1	-8
520.676	1	2
520.846	1	3
521.017	1	-5
521.187	1	6
521.357	1	1
521.527	1	3
521.697	1	-1
521.867	1	-1
522.037	1	-3
522.207	1	2
522.377	1	6
522.548	1	5
522.718	1	-8
522.888	1	12
523.058	1	6
523.228	1	1
523.398	1	0
523.568	1	-2
523.738	1	-1
523.909	1	3
524.079	1	5
524.249	1	2
524.419	1	1
524.589	1	-1
524.759	1	1
524.929	1	-3
525.099	1	3
525.269	1	14
525.439	1	3
525.610	1	-2
525.780	1	2
525.950	1	4
526.120	1	-4
526.290	1	6
526.460	1	2
526.630	1	-2
526.800	1	-1
526.970	1	3
527.140	1	-2
527.311	1	-3
527.481	1	10
527.651	1	6
527.821	1	-3
527.991	1	-2
528.161	1	0
528.331	1	3
528.501	1	-7
528.671	1	11
528.841	1	3
529.011	1	-5
529.181	1	11
529.352	1	8
529.522	1	2
529.692	1	2
529.862	1	4
530.032	1	10
530.202	1	3
530.372	1	-3
530.542	1	2
530.712	1	-2
530.882	1	-6
531.052	1	2
531.222	1	-3
531.392	1	1
531.563	1	-2
531.733	1	-2
531.903	1	3
532.073	1	-6
532.243	1	-11
532.413	1	7
532.583	1	-5
532.753	1	2
532.923	1	4
533.093	1	7
533.263	1	-10
533.433	1	1
533.603	1	4
533.773	1	-2
533.943	1	-9
534.113	1	8
534.284	1	1
534.454	1	-16
534.624	1	7
534.794	1	-2
534.964	1	10
535.134	1	10
535.304	1	7
535.474	1	-10
535.644	1	-5
535.814	1	1
535.984	1	8
536.154	1	0
536.324	1	16
536.494	1	2
536.664	1	3
536.834	1	0
537.004	1	2
537.174	1	-1
537.344	1	5
537.514	1	-7
537.685	1	1
537.855	1	-1
538.025	1	-1
538.195	1	1
538.365	1	-3
538.535	1	-5
538.705	1	15
538.875	1	5
539.045	1	0
539.215	1	-9
539.385	1	5
539.555	1	3
539.725	1	-6
539.895	1	0
540.065	1	3
540.235	1	6
540.405	1	2
540.575	1	-5
540.745	1	-6
540.915	1	2
541.085	1	-18
541.255	1	-13
541.425	1	10
541.595	1	-1
541.765	1	9
541.935	1	-13
542.105	1	-4
542.275	1	-8
542.445	1	-2
542.615	1	-2
542.785	1	-2
542.955	1	3
543.125	1	-12
543.295	1	-10
543.465	1	8
543.635	1	-6
543.805	1	7
543.975	1	-3
544.145	1	-6
544.315	1	5
544.485	1	2
544.655	1	2
544.825	1	1
544.995	1	10
545.165	1	7
545.335	1	-2
545.505	1	-5
545.675	1	-7
545.845	1	5
546.015	1	6
546.185	1	-1
546.355	1	8
546.525	1	5
546.695	1	-9
546.865	1	8
547.035	1	1
547.205	1	0
547.375	1	2
547.545	1	8
547.715	1	2
547.885	1	7
548.055	1	-4
548.225	1	-1
548.395	1	-3
548.565	1	8
548.735	1	9
548.905	1	-10
549.075	1	-3
549.245	1	2
549.415	1	-5
549.585	1	9
549.755	1	4
549.925	1	1
550.095	1	-2
550.265	1	3
550.435	1	-14
550.605	1	0
550.775	1	-5
550.945	1	4
551.115	1	-2
551.285	1	-1
551.455	1	2
551.625	1	4
551.795	1	0
551.965	1	10
552.135	1	-1
552.305	1	-11
552.475	1	-4
552.645	1	9
552.815	1	4
552.985	1	-4
553.155	1	7
553.325	1	-6
553.495	1	7
553.665	1	-2
553.835	1	7
554.004	1	-8
554.174	1	-1
554.344	1	-5
554.514	1	-1
554.684	1	-9
554.854	1	-9
555.024	1	2
555.194	1	6
555.364	1	3
555.534	1	-5
555.704	1	16
555.874	1	-8
556.044	1	6
556.214	1	2
556.384	1	5
556.554	1	11
556.724	1	1
556.894	1	-2
557.064	1	2
557.234	1	-2
557.404	1	-2
557.573	1	-7
557.743	1	-1
557.913	1	-5
558.083	1	5
558.253	1	-8
558.423	1	-1
558.593	1	4
558.763	1	12
558.933	1	2
559.103	1	7
559.273	1	-11
559.443	1	1
559.613	1	2
559.783	1	5
559.953	1	12
560.122	1	-1
560.292	1	-6
560.462	1	-3
560.632	1	3
560.802	1	-5
560.972	1	-2
561.142	1	16
561.312	1	-4
561.482	1	8
561.652	1	5
561.822	1	-10
561.992	1	-9
562.162	1	9
562.331	1	7
562.501	1	-5
562.671	1	9
562.841	1	-2
563.011	1	-7
563.181	1	0
563.351	1	1
563.521	1	-1
563.691	1	6
563.861	1	-3
564.031	1	-10
564.201	1	2
564.370	1	3
564.540	1	-6
564.710	1	0
564.880	1	-3
565.050	1	0
565.220	1	-3
565.390	1	6
565.560	1	-4
565.730	1	4
565.900	1	-6
566.069	1	-12
566.239	1	2
566.409	1	12
566.579	1	-4
566.749	1	-4
566.919	1	3
567.089	1	-2
567.259	1	0
567.429	1	1
567.599	1	-10
567.768	1	-4
567.938	1	-3
568.108	1	4
568.278	1	4
568.448	1	5
568.618	1	2
568.788	1	-13
568.958	1	-16
569.128	1	-4
569.297	1	-2
569.467	1	1
569.637	1	-4
569.807	1	-5
569.977	1	4
570.147	1	0
570.317	1	1
570.487	1	7
570.656	1	-2
570.826	1	-6
570.996	1	1
571.166	1	-6
571.336	1	-4
571.506	1	6
571.676	1	-8
571.846	1	-2
572.015	1	3
572.185	1	10
572.355	1	2
572.525	1	-8
572.695	1	-1
572.865	1	9
573.035	1	-4
573.205	1	-3
573.374	1	12
573.544	1	3
573.714	1	1
573.884	1	0
574.054	1	0
574.224	1	-7
574.394	1	-9
574.563	1	1
574.733	1	0
574.903	1	3
575.073	1	-6
575.243	1	1
575.413	1	5
575.583	1	-3
575.752	1	10
575.922	1	-9
576.092	1	-2
576.262	1	-11
576.432	1	5
576.602	1	-4
576.772	1	-5
576.941	1	5
577.111	1	8
577.281	1	10
577.451	1	-2
577.621	1	6
577.791	1	1
577.960	1	-12
578.130	1	1
578.300	1	7
578.470	1	8
578.640	1	-2
578.810	1	-6
578.979	1	-1
579.149	1	-5
579.319	1	-9
579.489	1	9
579.659	1	-3
579.829	1	0
579.998	1	-5
580.168	1	-4
580.338	1	3
580.508	1	7
580.678	1	7
580.848	1	-4
581.017	1	1
581.187	1	0
581.357	1	1
581.527	1	-5
581.697	1	1
581.867	1	7
582.036	1	3
582.206	1	-4
582.376	1	0
582.546	1	18
582.716	1	0
582.885	1	1
583.055	1	-2
583.225	1	-9
583.395	1	-7
583.565	1	2
583.735	1	-12
583.904	1	1
584.074	1	-2
584.244	1	-1
584.414	1	-4
584.584	1	0
584.753	1	6
584.923	1	15
585.093	1	-2
585.263	1	-3
585.433	1	13
585.602	1	-1
585.772	1	4
585.942	1	2
586.112	1	5
586.282	1	3
586.451	1	-4
586.621	1	2
586.791	1	-1
586.961	1	8
587.131	1	10
587.300	1	5
587.470	1	-1
587.640	1	-9
587.810	1	-1
587.980	1	-2
588.149	1	-2
588.319	1	5
588.489	1	-7
588.659	1	3
588.829	1	-9
588.998	1	-12
589.168	1	-1
589.338	1	1
589.508	1	2
589.677	1	-4
589.847	1	1
590.017	1	3
590.187	1	-2
590.357	1	-3
590.526	1	8
590.696	1	2
590.866	1	-1
591.036	1	-3
591.205	1	0
591.375	1	0
591.545	1	-5
591.715	1	-3
591.885	1	-1
592.054	1	-6
592.224	1	5
592.394	1	-3
592.564	1	-5
592.733	1	-4
592.903	1	1
593.073	1	-5
593.243	1	-5
593.412	1	-1
593.582	1	13
593.752	1	-9
593.922	1	8
594.091	1	-15
594.261	1	0
594.431	1	2
594.601	1	1
594.771	1	14
594.940	1	-3
595.110	1	-3
595.280	1	1
595.450	1	7
595.619	1	11
595.789	1	5
595.959	1	-2
596.129	1	-5
596.298	1	8
596.468	1	7
596.638	1	9
596.808	1	-1
596.977	1	-2
597.147	1	6
597.317	1	-2
597.487	1	-3
597.656	1	0
597.826	1	-11
597.996	1	-3
598.166	1	5
598.335	1	-2
598.505	1	-3
598.675	1	-11
598.844	1	2
599.014	1	9
599.184	1	-6
599.354	1	2
599.523	1	3
599.693	1	8
599.863	1	5
600.033	1	1
600.202	1	4
600.372	1	3
600.542	1	-5
600.712	1	4
600.881	1	-4
601.051	1	2
601.221	1	5
601.390	1	6
601.560	1	-1
601.730	1	-2
601.900	1	13
602.069	1	-15
602.239	1	9
602.409	1	7
602.578	1	3
602.748	1	-2
602.918	1	-1
603.088	1	2
603.257	1	4
603.427	1	10
603.597	1	-1
603.767	1	5
603.936	1	-1
604.106	1	4
604.276	1	5
604.445	1	0
604.615	1	-4
604.785	1	2
604.954	1	4
605.124	1	6
605.294	1	4
605.464	1	-3
605.633	1	3
605.803	1	8
605.973	1	-6
606.142	1	12
606.312	1	5
606.482	1	-6
606.652	1	16
606.821	1	2
606.991	1	-1
607.161	1	0
607.330	1	-2
607.500	1	9
607.670	1	4
607.839	1	-10
608.009	1	-5
608.179	1	1
608.348	1	-5
608.518	1	1
608.688	1	-4
608.858	1	4
609.027	1	-2
609.197	1	3
609.367	1	-4
609.536	1	6
609.706	1	6
609.876	1	-5
610.045	1	-1
610.215	1	4
610.385	1	1
610.554	1	3
610.724	1	6
610.894	1	-3
611.063	1	2
611.233	1	-7
611.403	1	-3
611.572	1	9
611.742	1	1
611.912	1	5
612.081	1	3
612.251	1	8
612.421	1	-5
612.590	1	-2
612.760	1	7
612.930	1	-7
613.099	1	3
613.269	1	6
613.439	1	-3
613.608	1	0
613.778	1	-14
613.948	1	9
614.117	1	7
614.287	1	-4
614.457	1	1
614.626	1	2
614.796	1	7
614.966	1	3
615.135	1	5
615.305	1	4
615.475	1	-4
615.644	1	-3
615.814	1	-2
615.984	1	10
616.153	1	-8
616.323	1	1
616.493	1	13
616.662	1	-4
616.832	1	-2
617.002	1	4
617.171	1	0
617.341	1	5
617.511	1	-9
617.680	1	-1
617.850	1	-6
618.019	1	6
618.189	1	-4
618.359	1	-15
618.528	1	2
618.698	1	4
618.868	1	-4
619.037	1	-4
619.207	1	0
619.377	1	2
619.546	1	-1
619.716	1	-1
619.885	1	-4
620.055	1	14
620.225	1	3
620.394	1	-6
620.564	1	-5
620.734	1	1
620.903	1	8
621.073	1	-2
621.242	1	0
621.412	1	18
621.582	1	-7
621.751	1	6
621.921	1	5
622.091	1	-1
622.260	1	1
622.430	1	9
622.599	1	9
622.769	1	-8
622.939	1	-8
623.108	1	5
623.278	1	12
623.448	1	3
623.617	1	-3
623.787	1	12
623.956	1	13
624.126	1	3
624.296	1	2
624.465	1	-2
624.635	1	2
624.804	1	3
624.974	1	5
625.144	1	21
625.313	1	-5
625.483	1	8
625.652	1	11
625.822	1	-6
625.992	1	11
626.161	1	-6
626.331	1	3
626.501	1	-5
626.670	1	4
626.840	1	-5
627.009	1	-6
627.179	1	-8
627.348	1	9
627.518	1	-1
627.688	1	2
627.857	1	1
628.027	1	-3
628.196	1	-2
628.366	1	0
628.536	1	6
628.705	1	-3
628.875	1	4
629.044	1	8
629.214	1	3
629.384	1	4
629.553	1	-3
629.723	1	-9
629.892	1	-2
630.062	1	-16
630.232	1	-1
630.401	1	-1
630.571	1	8
630.740	1	-2
630.910	1	6
631.079	1	-2
631.249	1	4
631.419	1	6
631.588	1	-1
631.758	1	-5
631.927	1	-2
632.097	1	3
632.266	1	-17
632.436	1	4
632.606	1	-2
632.775	1	6
632.945	1	-10
633.114	1	6
633.284	1	4
633.453	1	11
633.623	1	14
633.793	1	-4
633.962	1	-4
634.132	1	0
634.301	1	-6
634.471	1	-6
634.640	1	8
634.810	1	4
634.979	1	4
635.149	1	-2
635.319	1	13
635.488	1	-3
635.658	1	6
635.827	1	-7
635.997	1	0
636.166	1	0
636.336	1	-6
636.505	1	5
636.675	1	6
636.845	1	1
637.014	1	1
637.184	1	5
637.353	1	5
637.523	1	4
637.692	1	-4
637.862	1	-3
638.031	1	-3
638.201	1	0
638.370	1	4
638.540	1	-1
638.710	1	9
638.879	1	9
639.049	1	-1
639.218	1	9
639.388	1	8
639.557	1	6
639.727	1	14
639.896	1	1
640.066	1	16
640.235	1	-4
640.405	1	-3
640.574	1	1
640.744	1	-2
640.914	1	-6
641.083	1	-7
641.253	1	-4
641.422	1	3
641.592	1	-2
641.761	1	7
641.931	1	3
642.100	1	1
642.270	1	-4
642.439	1	7
642.609	1	0
642.778	1	4
642.948	1	5
643.117	1	3
643.287	1	-1
643.456	1	4
643.626	1	4
643.795	1	14
643.965	1	-3
644.134	1	0
644.304	1	0
644.473	1	1
644.643	1	-4
644.812	1	10
644.982	1	4
645.151	1	10
645.321	1	-10
645.490	1	10
645.660	1	4
645.829	1	-8
645.999	1	-2
646.168	1	-6
646.338	1	3
646.507	1	14
646.677	1	-4
646.846	1	3
647.016	1	2
647.185	1	3
647.355	1	3
647.524	1	-2
647.694	1	2
647.863	1	6
648.033	1	4
648.202	1	2
648.372	1	-13
648.541	1	-5
648.711	1	-2
648.880	1	-5
649.050	1	-1
649.219	1	2
649.389	1	-10
649.558	1	6
649.728	1	14
649.897	1	-1
650.067	1	0
650.236	1	-8
650.406	1	12
650.575	1	1
650.745	1	2
650.914	1	7
651.084	1	7
651.253	1	-4
651.423	1	5
651.592	1	-4
651.762	1	0
651.931	1	2
652.101	1	14
652.270	1	-3
652.440	1	8
652.609	1	7
652.778	1	8
652.948	1	5
653.117	1	-1
653.287	1	4
653.456	1	-7
653.626	1	-3
653.795	1	0
653.965	1	-12
654.134	1	-7
654.304	1	8
654.473	1	-4
654.643	1	14
654.812	1	-2
654.982	1	0
655.151	1	6
655.320	1	5
655.490	1	0
655.659	1	5
655.829	1	1
655.998	1	2
656.168	1	-8
656.337	1	3
656.507	1	-10
656.676	1	-4
656.846	1	1
657.015	1	5
657.184	1	-8
657.354	1	8
657.523	1	-3
657.693	1	7
657.862	1	-3
658.032	1	14
658.201	1	0
658.371	1	1
658.540	1	-3
658.709	1	-5
658.879	1	6
659.048	1	-4
659.218	1	-11
659.387	1	3
659.557	1	1
659.726	1	-8
659.895	1	-3
660.065	1	7
660.234	1	3
660.404	1	2
660.573	1	5
660.743	1	-1
660.912	1	-7
661.081	1	-10
661.251	1	4
661.420	1	16
661.590	1	1
661.759	1	2
661.929	1	10
662.098	1	4
662.267	1	10
662.437	1	6
662.606	1	2
662.776	1	0
662.945	1	7
663.115	1	4
663.284	1	-3
663.453	1	2
663.623	1	5
663.792	1	9
663.962	1	-5
664.131	1	-6
664.300	1	-9
664.470	1	4
664.639	1	-3
664.809	1	1
664.978	1	1
665.148	1	-1
665.317	1	2
665.486	1	-4
665.656	1	-3
665.825	1	6
665.995	1	-3
666.164	1	9
666.333	1	2
666.503	1	-3
666.672	1	4
666.842	1	-2
667.011	1	-6
667.180	1	5
667.350	1	-5
667.519	1	3
667.689	1	-2
667.858	1	10
668.027	1	7
668.197	1	4
668.366	1	-11
668.536	1	-8
668.705	1	-4
668.874	1	5
669.044	1	-3
669.213	1	-2
669.382	1	12
669.552	1	2
669.721	1	-2
669.891	1	-2
670.060	1	0
670.229	1	-5
670.399	1	-10
670.568	1	-4
670.738	1	-4
670.907	1	3
671.076	1	-3
671.246	1	-2
671.415	1	10
671.584	1	-5
671.754	1	1
671.923	1	9
672.093	1	4
672.262	1	0
672.431	1	1
672.601	1	1
672.770	1	2
672.939	1	-4
673.109	1	-6
673.278	1	3
673.448	1	0
673.617	1	-4
673.786	1	4
