325.333	1	-2
325.504	1	12
325.675	1	1
325.846	1	2
326.017	1	0
326.188	1	5
326.359	1	6
326.531	1	6
326.702	1	1
326.873	1	-1
327.044	1	8
327.215	1	-9
327.386	1	2
327.557	1	7
327.728	1	6
327.899	1	-6
328.070	1	9
328.241	1	8
328.412	1	-3
328.583	1	9
328.754	1	-7
328.926	1	12
329.097	1	1
329.268	1	0
329.439	1	8
329.610	1	4
329.781	1	-1
329.952	1	4
330.123	1	-3
330.294	1	4
330.465	1	5
330.636	1	9
330.807	1	-8
330.978	1	1
331.149	1	5
331.320	1	-2
331.492	1	5
331.663	1	-2
331.834	1	0
332.005	1	-5
332.176	1	7
332.347	1	2
332.518	1	17
332.689	1	4
332.860	1	8
333.031	1	9
333.202	1	6
333.373	1	3
333.544	1	-4
333.715	1	-3
333.886	1	-2
334.057	1	5
334.228	1	2
334.399	1	10
334.570	1	-5
334.741	1	-1
334.912	1	-1
335.084	1	-2
335.255	1	3
335.426	1	3
335.597	1	5
335.768	1	-1
335.939	1	-9
336.110	1	5
336.281	1	-1
336.452	1	3
336.623	1	0
336.794	1	0
336.965	1	1
337.136	1	11
337.307	1	6
337.478	1	2
337.649	1	-4
337.820	1	-10
337.991	1	3
338.162	1	2
338.333	1	15
338.504	1	10
338.675	1	2
338.846	1	7
339.017	1	12
339.188	1	17
339.359	1	7
339.530	1	3
339.701	1	0
339.872	1	14
340.043	1	-6
340.214	1	1
340.385	1	12
340.556	1	1
340.727	1	-3
340.898	1	6
341.069	1	-11
341.240	1	-3
341.411	1	12
341.582	1	13
341.753	1	-1
341.924	1	-2
342.095	1	10
342.266	1	2
342.437	1	1
342.608	1	3
342.779	1	3
342.950	1	-1
343.121	1	1
343.292	1	15
343.463	1	9
343.634	1	2
343.805	1	-2
343.976	1	-4
344.147	1	7
344.318	1	2
344.489	1	5
344.660	1	-1
344.831	1	8
345.002	1	15
345.173	1	3
345.344	1	-11
345.515	1	0
345.686	1	-5
345.857	1	-3
346.028	1	-6
346.199	1	10
346.370	1	3
346.541	1	10
346.712	1	5
346.883	1	16
347.054	1	-3
347.225	1	-3
347.396	1	-7
347.567	1	5
347.738	1	4
347.909	1	8
348.080	1	13
348.251	1	0
348.422	1	-3
348.593	1	-4
348.764	1	-2
348.935	1	3
349.106	1	3
349.277	1	-4
349.448	1	8
349.619	1	4
349.790	1	3
349.961	1	-2
350.132	1	8
350.303	1	3
350.474	1	1
350.645	1	10
350.816	1	6
350.987	1	5
351.157	1	1
351.328	1	-1
351.499	1	10
351.670	1	0
351.841	1	-1
352.012	1	6
352.183	1	5
352.354	1	-3
352.525	1	1
352.696	1	9
352.867	1	8
353.038	1	1
353.209	1	2
353.380	1	1
353.551	1	-13
353.722	1	5
353.893	1	2
354.064	1	-6
354.235	1	14
354.406	1	5
354.576	1	6
354.747	1	2
354.918	1	15
355.089	1	4
355.260	1	8
355.431	1	10
355.602	1	-1
355.773	1	3
355.944	1	8
356.115	1	-4
356.286	1	4
356.457	1	10
356.628	1	-7
356.799	1	2
356.970	1	3
357.141	1	7
357.311	1	2
357.482	1	-1
357.653	1	2
357.824	1	2
357.995	1	9
358.166	1	1
358.337	1	1
358.508	1	-5
358.679	1	7
358.850	1	-1
359.021	1	7
359.192	1	5
359.363	1	-6
359.533	1	0
359.704	1	-1
359.875	1	5
360.046	1	-4
360.217	1	-13
360.388	1	-6
360.559	1	14
360.730	1	-3
360.901	1	-2
361.072	1	10
361.243	1	12
361.414	1	-2
361.584	1	11
361.755	1	4
361.926	1	1
362.097	1	-1
362.268	1	-2
362.439	1	11
362.610	1	2
362.781	1	4
362.952	1	1
363.123	1	3
363.293	1	-6
363.464	1	6
363.635	1	9
363.806	1	1
363.977	1	3
364.148	1	6
364.319	1	2
364.490	1	3
364.661	1	6
364.832	1	6
365.002	1	-6
365.173	1	-1
365.344	1	5
365.515	1	13
365.686	1	5
365.857	1	-3
366.028	1	1
366.199	1	6
366.370	1	-4
366.540	1	1
366.711	1	13
366.882	1	5
367.053	1	1
367.224	1	-6
367.395	1	14
367.566	1	1
367.737	1	2
367.908	1	1
368.078	1	6
368.249	1	4
368.420	1	7
368.591	1	5
368.762	1	-6
368.933	1	11
369.104	1	7
369.274	1	14
369.445	1	12
369.616	1	-4
369.787	1	0
369.958	1	12
370.129	1	0
370.300	1	8
370.471	1	5
370.641	1	-6
370.812	1	14
370.983	1	0
371.154	1	6
371.325	1	4
371.496	1	0
371.667	1	4
371.837	1	10
372.008	1	10
372.179	1	12
372.350	1	9
372.521	1	7
372.692	1	-1
372.863	1	-3
373.033	1	7
373.204	1	12
373.375	1	2
373.546	1	8
373.717	1	9
373.888	1	-2
374.059	1	0
374.229	1	9
374.400	1	13
374.571	1	8
374.742	1	6
374.913	1	1
375.084	1	8
375.254	1	8
375.425	1	4
375.596	1	8
375.767	1	1
375.938	1	-2
376.109	1	3
376.279	1	13
376.450	1	4
376.621	1	8
376.792	1	9
376.963	1	1
377.134	1	5
377.304	1	10
377.475	1	-8
377.646	1	0
377.817	1	2
377.988	1	2
378.159	1	14
378.329	1	10
378.500	1	5
378.671	1	-6
378.842	1	5
379.013	1	6
379.184	1	8
379.354	1	11
379.525	1	0
379.696	1	10
379.867	1	-6
380.038	1	5
380.209	1	-5
380.379	1	3
380.550	1	0
380.721	1	8
380.892	1	13
381.063	1	6
381.233	1	8
381.404	1	8
381.575	1	17
381.746	1	7
381.917	1	9
382.087	1	3
382.258	1	5
382.429	1	7
382.600	1	10
382.771	1	4
382.941	1	6
383.112	1	-6
383.283	1	7
383.454	1	6
383.625	1	6
383.795	1	5
383.966	1	14
384.137	1	7
384.308	1	11
384.479	1	20
384.649	1	-3
384.820	1	10
384.991	1	0
385.162	1	7
385.333	1	6
385.503	1	14
385.674	1	13
385.845	1	2
386.016	1	10
386.187	1	4
386.357	1	8
386.528	1	5
386.699	1	5
386.870	1	0
387.041	1	1
387.211	1	5
387.382	1	6
387.553	1	13
387.724	1	13
387.894	1	7
388.065	1	16
388.236	1	14
388.407	1	17
388.578	1	13
388.748	1	6
388.919	1	5
389.090	1	13
389.261	1	19
389.431	1	7
389.602	1	0
389.773	1	-8
389.944	1	2
390.114	1	12
390.285	1	2
390.456	1	10
390.627	1	-1
390.798	1	5
390.968	1	3
391.139	1	5
391.310	1	10
391.481	1	1
391.651	1	10
391.822	1	11
391.993	1	1
392.164	1	-11
392.334	1	-6
392.505	1	2
392.676	1	9
392.847	1	14
393.017	1	7
393.188	1	0
393.359	1	3
393.530	1	12
393.700	1	8
393.871	1	0
394.042	1	18
394.213	1	26
394.383	1	11
394.554	1	6
394.725	1	7
394.896	1	20
395.066	1	0
395.237	1	-1
395.408	1	10
395.579	1	16
395.749	1	16
395.920	1	0
396.091	1	16
396.262	1	-7
396.432	1	0
396.603	1	6
396.774	1	17
396.945	1	10
397.115	1	-8
397.286	1	14
397.457	1	-1
397.627	1	11
397.798	1	12
397.969	1	13
398.140	1	11
398.310	1	9
398.481	1	3
398.652	1	11
398.823	1	12
398.993	1	17
399.164	1	12
399.335	1	7
399.505	1	17
399.676	1	16
399.847	1	15
400.018	1	8
400.188	1	15
400.359	1	11
400.530	1	4
400.700	1	-2
400.871	1	20
401.042	1	6
401.213	1	7
401.383	1	9
401.554	1	9
401.725	1	10
401.895	1	2
402.066	1	12
402.237	1	13
402.408	1	19
402.578	1	10
402.749	1	3
402.920	1	13
403.090	1	15
403.261	1	13
403.432	1	11
403.603	1	-4
403.773	1	16
403.944	1	14
404.115	1	5
404.285	1	18
404.456	1	18
404.627	1	5
404.797	1	6
404.968	1	8
405.139	1	7
405.310	1	9
405.480	1	4
405.651	1	14
405.822	1	16
405.992	1	11
406.163	1	10
406.334	1	19
406.504	1	2
406.675	1	-1
406.846	1	9
407.016	1	3
407.187	1	1
407.358	1	12
407.528	1	9
407.699	1	10
407.870	1	7
408.041	1	3
408.211	1	5
408.382	1	5
408.553	1	-11
408.723	1	6
408.894	1	10
409.065	1	19
409.235	1	6
409.406	1	7
409.577	1	1
409.747	1	16
409.918	1	2
410.089	1	-3
410.259	1	0
410.430	1	12
410.601	1	10
410.771	1	8
410.942	1	6
411.113	1	14
411.283	1	4
411.454	1	17
411.625	1	9
411.795	1	1
411.966	1	7
412.137	1	8
412.307	1	8
412.478	1	11
412.649	1	4
412.819	1	2
412.990	1	9
413.161	1	6
413.331	1	12
413.502	1	-4
413.672	1	12
413.843	1	13
414.014	1	26
414.184	1	4
414.355	1	12
414.526	1	16
414.696	1	8
414.867	1	15
415.038	1	-1
415.208	1	3
415.379	1	4
415.550	1	12
415.720	1	10
415.891	1	18
416.062	1	12
416.232	1	13
416.403	1	6
416.573	1	8
416.744	1	-4
416.915	1	6
417.085	1	9
417.256	1	6
417.427	1	16
417.597	1	2
417.768	1	4
417.939	1	7
418.109	1	-3
418.280	1	10
418.450	1	15
418.621	1	6
418.792	1	-3
418.962	1	9
419.133	1	13
419.304	1	1
419.474	1	-4
419.645	1	7
419.815	1	3
419.986	1	10
420.157	1	15
420.327	1	3
420.498	1	4
420.669	1	16
420.839	1	7
421.010	1	13
421.180	1	3
421.351	1	18
421.522	1	12
421.692	1	11
421.863	1	2
422.033	1	13
422.204	1	14
422.375	1	13
422.545	1	9
422.716	1	3
422.886	1	12
423.057	1	4
423.228	1	7
423.398	1	7
423.569	1	12
423.740	1	5
423.910	1	14
424.081	1	15
424.251	1	11
424.422	1	-3
424.593	1	12
424.763	1	3
424.934	1	15
425.104	1	7
425.275	1	2
425.445	1	9
425.616	1	4
425.787	1	10
425.957	1	9
426.128	1	10
426.298	1	4
426.469	1	8
426.640	1	24
426.810	1	11
426.981	1	11
427.151	1	4
427.322	1	-11
427.493	1	10
427.663	1	7
427.834	1	8
428.004	1	16
428.175	1	13
428.345	1	15
428.516	1	18
428.687	1	6
428.857	1	3
429.028	1	14
429.198	1	2
429.369	1	0
429.540	1	6
429.710	1	8
429.881	1	12
430.051	1	4
430.222	1	5
430.392	1	4
430.563	1	11
430.734	1	8
430.904	1	9
431.075	1	6
431.245	1	14
431.416	1	3
431.586	1	10
431.757	1	10
431.927	1	4
432.098	1	10
432.269	1	9
432.439	1	17
432.610	1	8
432.780	1	5
432.951	1	3
433.121	1	12
433.292	1	5
433.462	1	18
433.633	1	12
433.804	1	-6
433.974	1	4
434.145	1	2
434.315	1	13
434.486	1	-3
434.656	1	4
434.827	1	11
434.997	1	15
435.168	1	10
435.339	1	9
435.509	1	8
435.680	1	6
435.850	1	1
436.021	1	9
436.191	1	26
436.362	1	14
436.532	1	6
436.703	1	16
436.873	1	3
437.044	1	7
437.214	1	14
437.385	1	11
437.556	1	4
437.726	1	1
437.897	1	8
438.067	1	6
438.238	1	12
438.408	1	6
438.579	1	8
438.749	1	3
438.920	1	0
439.090	1	3
439.261	1	0
439.431	1	11
439.602	1	16
439.772	1	7
439.943	1	15
440.113	1	15
440.284	1	18
440.455	1	17
440.625	1	8
440.796	1	1
440.966	1	3
441.137	1	10
441.307	1	12
441.478	1	11
441.648	1	8
441.819	1	5
441.989	1	-3
442.160	1	9
442.330	1	12
442.501	1	1
442.671	1	7
442.842	1	8
443.012	1	5
443.183	1	4
443.353	1	12
443.524	1	8
443.694	1	6
443.865	1	13
444.035	1	14
444.206	1	7
444.376	1	13
444.547	1	12
444.717	1	16
444.888	1	11
445.058	1	3
445.229	1	0
445.399	1	0
445.570	1	8
445.740	1	10
445.911	1	15
446.081	1	5
446.252	1	2
446.422	1	13
446.593	1	11
446.763	1	7
446.934	1	13
447.104	1	14
447.275	1	12
447.445	1	4
447.616	1	0
447.786	1	14
447.957	1	8
448.127	1	20
448.298	1	8
448.468	1	15
448.639	1	2
448.809	1	0
448.979	1	13
449.150	1	12
449.320	1	7
449.491	1	15
449.661	1	20
449.832	1	14
450.002	1	11
450.173	1	5
450.343	1	10
450.514	1	14
450.684	1	6
450.855	1	10
451.025	1	8
451.196	1	10
451.366	1	2
451.537	1	6
451.707	1	8
451.878	1	3
452.048	1	13
452.218	1	3
452.389	1	2
452.559	1	6
452.730	1	9
452.900	1	7
453.071	1	0
453.241	1	9
453.412	1	1
453.582	1	-10
453.753	1	15
453.923	1	17
454.093	1	20
454.264	1	-13
454.434	1	11
454.605	1	11
454.775	1	-1
454.946	1	4
455.116	1	0
455.287	1	0
455.457	1	6
455.628	1	10
455.798	1	5
455.968	1	9
456.139	1	11
456.309	1	17
456.480	1	4
456.650	1	13
456.821	1	20
456.991	1	13
457.161	1	8
457.332	1	3
457.502	1	24
457.673	1	10
457.843	1	8
458.014	1	12
458.184	1	3
458.355	1	14
458.525	1	9
458.695	1	7
458.866	1	22
459.036	1	13
459.207	1	5
459.377	1	12
459.548	1	0
459.718	1	7
459.888	1	12
460.059	1	16
460.229	1	7
460.400	1	11
460.570	1	19
460.740	1	3
460.911	1	5
461.081	1	11
461.252	1	-1
461.422	1	14
461.593	1	13
461.763	1	11
461.933	1	8
462.104	1	19
462.274	1	7
462.445	1	4
462.615	1	10
462.785	1	3
462.956	1	7
463.126	1	2
463.297	1	11
463.467	1	9
463.638	1	18
463.808	1	22
463.978	1	10
464.149	1	3
464.319	1	14
464.490	1	5
464.660	1	14
464.830	1	13
465.001	1	6
465.171	1	2
465.342	1	5
465.512	1	9
465.682	1	2
465.853	1	-3
466.023	1	5
466.194	1	12
466.364	1	15
466.534	1	6
466.705	1	-2
466.875	1	6
467.045	1	3
467.216	1	11
467.386	1	14
467.557	1	14
467.727	1	12
467.897	1	-4
468.068	1	-11
468.238	1	15
468.409	1	-3
468.579	1	16
468.749	1	0
468.920	1	2
469.090	1	7
469.260	1	6
469.431	1	11
469.601	1	7
469.772	1	-2
469.942	1	17
470.112	1	2
470.283	1	13
470.453	1	16
470.623	1	10
470.794	1	10
470.964	1	7
471.135	1	9
471.305	1	6
471.475	1	0
471.646	1	9
471.816	1	5
471.986	1	13
472.157	1	2
472.327	1	6
472.497	1	17
472.668	1	10
472.838	1	7
473.009	1	12
473.179	1	11
473.349	1	4
473.520	1	9
473.690	1	18
473.860	1	11
474.031	1	10
474.201	1	4
474.371	1	10
474.542	1	18
474.712	1	2
474.882	1	5
475.053	1	16
475.223	1	-3
475.394	1	4
475.564	1	2
475.734	1	16
475.905	1	9
476.075	1	5
476.245	1	16
476.416	1	5
476.586	1	12
476.756	1	2
476.927	1	-3
477.097	1	2
477.267	1	16
477.438	1	11
477.608	1	5
477.778	1	4
477.949	1	6
478.119	1	10
478.289	1	-3
478.460	1	-5
478.630	1	23
478.800	1	20
478.971	1	6
479.141	1	3
479.311	1	14
479.482	1	13
479.652	1	13
479.822	1	10
479.993	1	6
480.163	1	9
480.333	1	0
480.504	1	11
480.674	1	3
480.844	1	3
481.015	1	3
481.185	1	3
481.355	1	8
481.525	1	12
481.696	1	5
481.866	1	3
482.036	1	13
482.207	1	2
482.377	1	12
482.547	1	-3
482.718	1	5
482.888	1	15
483.058	1	5
483.229	1	12
483.399	1	14
483.569	1	0
483.740	1	7
483.910	1	3
484.080	1	-6
484.250	1	-2
484.421	1	-2
484.591	1	1
484.761	1	5
484.932	1	8
485.102	1	12
485.272	1	0
485.443	1	1
485.613	1	16
485.783	1	11
485.953	1	11
486.124	1	-2
486.294	1	9
486.464	1	-7
486.635	1	4
486.805	1	0
486.975	1	11
487.146	1	1
487.316	1	-6
487.486	1	7
487.656	1	2
487.827	1	5
487.997	1	5
488.167	1	9
488.338	1	-2
488.508	1	0
488.678	1	0
488.848	1	1
489.019	1	6
489.189	1	-2
489.359	1	12
489.529	1	2
489.700	1	8
489.870	1	-3
490.040	1	2
490.211	1	5
490.381	1	-2
490.551	1	5
490.721	1	8
490.892	1	4
491.062	1	-4
491.232	1	-1
491.402	1	2
491.573	1	10
491.743	1	5
491.913	1	4
492.084	1	6
492.254	1	9
492.424	1	6
492.594	1	14
492.765	1	9
492.935	1	3
493.105	1	14
493.275	1	-1
493.446	1	4
493.616	1	4
493.786	1	5
493.956	1	5
494.127	1	17
494.297	1	-3
494.467	1	10
494.637	1	11
494.808	1	16
494.978	1	7
495.148	1	10
495.318	1	9
495.489	1	-9
495.659	1	-1
495.829	1	0
495.999	1	4
496.170	1	-2
496.340	1	16
496.510	1	2
496.680	1	0
496.851	1	2
497.021	1	-2
497.191	1	5
497.361	1	3
497.532	1	-6
497.702	1	4
497.872	1	17
498.042	1	12
498.213	1	9
498.383	1	5
498.553	1	4
498.723	1	4
498.894	1	3
499.064	1	-2
499.234	1	3
499.404	1	0
499.574	1	11
499.745	1	3
499.915	1	6
500.085	1	6
500.255	1	6
500.426	1	6
500.596	1	4
500.766	1	-4
500.936	1	10
501.106	1	-2
501.277	1	8
501.447	1	9
501.617	1	1
501.787	1	-2
501.958	1	2
502.128	1	0
502.298	1	2
502.468	1	7
502.638	1	11
502.809	1	0
502.979	1	17
503.149	1	-3
503.319	1	5
503.489	1	-6
503.660	1	2
503.830	1	8
504.000	1	9
504.170	1	9
504.340	1	0
504.511	1	8
504.681	1	-5
504.851	1	5
505.021	1	4
505.192	1	3
505.362	1	1
505.532	1	11
505.702	1	-8
505.872	1	2
506.043	1	6
506.213	1	2
506.383	1	4
506.553	1	9
506.723	1	1
506.893	1	-12
507.064	1	-5
507.234	1	5
507.404	1	9
507.574	1	6
507.744	1	8
507.915	1	6
508.085	1	6
508.255	1	7
508.425	1	-3
508.595	1	0
508.766	1	1
508.936	1	1
509.106	1	0
509.276	1	6
509.446	1	7
509.616	1	-3
509.787	1	13
509.957	1	3
510.127	1	1
510.297	1	-1
510.467	1	-8
510.638	1	8
510.808	1	1
510.978	1	6
511.148	1	23
511.318	1	6
511.488	1	13
511.659	1	-3
511.829	1	5
511.999	1	11
512.169	1	-5
512.339	1	-2
512.509	1	0
512.680	1	4
512.850	1	5
513.020	1	2
513.190	1	-2
513.360	1	-3
513.530	1	2
513.700	1	13
513.871	1	16
514.041	1	7
514.211	1	4
514.381	1	11
514.551	1	3
514.721	1	3
514.892	1	0
515.062	1	3
515.232	1	11
515.402	1	-3
515.572	1	0
515.742	1	11
515.912	1	3
516.083	1	5
516.253	1	8
516.423	1	-1
516.593	1	-1
516.763	1	5
516.933	1	-9
517.104	1	-3
517.274	1	-6
517.444	1	1
517.614	1	3
517.784	1	11
517.954	1	5
518.124	1	-1
518.294	1	12
518.465	1	-2
518.635	1	-1
518.805	1	16
518.975	1	-2
519.145	1	8
519.315	1	-1
519.485	1	-4
519.656	1	5
519.826	1	3
519.996	1	-3
520.166	1	8
520.336	1	5
520.506	1	-4
520.676	1	4
520.846	1	-1
521.017	1	1
521.187	1	11
521.357	1	3
521.527	1	9
521.697	1	-2
521.867	1	-2
522.037	1	-4
522.207	1	-1
522.377	1	9
522.548	1	-1
522.718	1	-1
522.888	1	8
523.058	1	11
523.228	1	-2
523.398	1	8
523.568	1	1
523.738	1	0
523.909	1	0
524.079	1	5
524.249	1	6
524.419	1	7
524.589	1	4
524.759	1	9
524.929	1	1
525.099	1	2
525.269	1	12
525.439	1	0
525.610	1	6
525.780	1	-5
525.950	1	8
526.120	1	-4
526.290	1	-2
526.460	1	0
526.630	1	10
526.800	1	12
526.970	1	9
527.140	1	5
527.311	1	4
527.481	1	6
527.651	1	-1
527.821	1	-4
527.991	1	3
528.161	1	9
528.331	1	11
528.501	1	13
528.671	1	5
528.841	1	-4
529.011	1	-5
529.181	1	12
529.352	1	-6
529.522	1	4
529.692	1	-2
529.862	1	0
530.032	1	7
530.202	1	8
530.372	1	-2
530.542	1	-8
530.712	1	-1
530.882	1	-2
531.052	1	2
531.222	1	-3
531.392	1	9
531.563	1	6
531.733	1	0
531.903	1	6
532.073	1	1
532.243	1	8
532.413	1	12
532.583	1	-3
532.753	1	1
532.923	1	13
533.093	1	12
533.263	1	-3
533.433	1	15
533.603	1	-3
533.773	1	-6
533.943	1	1
534.113	1	-1
534.284	1	-4
534.454	1	-2
534.624	1	7
534.794	1	0
534.964	1	1
535.134	1	13
535.304	1	13
535.474	1	-2
535.644	1	-1
535.814	1	1
535.984	1	10
536.154	1	4
536.324	1	12
536.494	1	-1
536.664	1	1
536.834	1	-1
537.004	1	7
537.174	1	5
537.344	1	12
537.514	1	-3
537.685	1	10
537.855	1	-1
538.025	1	7
538.195	1	-7
538.365	1	-5
538.535	1	-3
538.705	1	5
538.875	1	11
539.045	1	2
539.215	1	-15
539.385	1	1
539.555	1	4
539.725	1	3
539.895	1	8
540.065	1	3
540.235	1	-5
540.405	1	3
540.575	1	6
540.745	1	1
540.915	1	9
541.085	1	-8
541.255	1	-8
541.425	1	3
541.595	1	7
541.765	1	20
541.935	1	0
542.105	1	5
542.275	1	2
542.445	1	1
542.615	1	11
542.785	1	-7
542.955	1	5
543.125	1	-5
543.295	1	-1
543.465	1	1
543.635	1	8
543.805	1	5
543.975	1	-2
544.145	1	4
544.315	1	-3
544.485	1	-1
544.655	1	17
544.825	1	0
544.995	1	8
545.165	1	10
545.335	1	2
545.505	1	8
545.675	1	-9
545.845	1	11
546.015	1	10
546.185	1	6
546.355	1	3
546.525	1	9
546.695	1	-4
546.865	1	10
547.035	1	8
547.205	1	2
547.375	1	-4
547.545	1	10
547.715	1	9
547.885	1	5
548.055	1	-1
548.225	1	4
548.395	1	1
548.565	1	9
548.735	1	10
548.905	1	-3
549.075	1	4
549.245	1	-1
549.415	1	-2
549.585	1	9
549.755	1	14
549.925	1	4
550.095	1	1
550.265	1	7
550.435	1	-10
550.605	1	1
550.775	1	-4
550.945	1	6
551.115	1	0
551.285	1	3
551.455	1	4
551.625	1	-5
551.795	1	6
551.965	1	3
552.135	1	5
552.305	1	0
552.475	1	-1
552.645	1	8
552.815	1	0
552.985	1	4
553.155	1	0
553.325	1	3
553.495	1	7
553.665	1	3
553.835	1	5
554.004	1	-9
554.174	1	6
554.344	1	3
554.514	1	3
554.684	1	-8
554.854	1	3
555.024	1	3
555.194	1	5
555.364	1	11
555.534	1	-2
555.704	1	11
555.874	1	-9
556.044	1	3
556.214	1	5
556.384	1	9
556.554	1	2
556.724	1	3
556.894	1	-7
557.064	1	-2
557.234	1	-8
557.404	1	6
557.573	1	-7
557.743	1	0
557.913	1	-1
558.083	1	15
558.253	1	-5
558.423	1	-3
558.593	1	-1
558.763	1	7
558.933	1	7
559.103	1	16
559.273	1	-4
559.443	1	-1
559.613	1	4
559.783	1	13
559.953	1	11
560.122	1	-2
560.292	1	4
560.462	1	-2
560.632	1	8
560.802	1	4
560.972	1	-2
561.142	1	8
561.312	1	3
561.482	1	10
561.652	1	0
561.822	1	-9
561.992	1	-12
562.162	1	5
562.331	1	13
562.501	1	4
562.671	1	18
562.841	1	3
563.011	1	-5
563.181	1	-3
563.351	1	-6
563.521	1	7
563.691	1	1
563.861	1	3
564.031	1	-5
564.201	1	-2
564.370	1	0
564.540	1	1
564.710	1	-2
564.880	1	3
565.050	1	-5
565.220	1	-2
565.390	1	-2
565.560	1	-4
565.730	1	0
565.900	1	-12
566.069	1	-10
566.239	1	1
566.409	1	-3
566.579	1	-3
566.749	1	1
566.919	1	5
567.089	1	-2
567.259	1	1
567.429	1	0
567.599	1	1
567.768	1	-3
567.938	1	-5
568.108	1	0
568.278	1	-2
568.448	1	2
568.618	1	2
568.788	1	-5
568.958	1	-11
569.128	1	-2
569.297	1	-4
569.467	1	-1
569.637	1	3
569.807	1	-2
569.977	1	1
570.147	1	5
570.317	1	9
570.487	1	-1
570.656	1	4
570.826	1	-5
570.996	1	4
571.166	1	-4
571.336	1	1
571.506	1	-2
571.676	1	0
571.846	1	-5
572.015	1	4
572.185	1	-5
572.355	1	5
572.525	1	-1
572.695	1	5
572.865	1	13
573.035	1	-6
573.205	1	-5
573.374	1	8
573.544	1	-4
573.714	1	7
573.884	1	2
574.054	1	2
574.224	1	-1
574.394	1	0
574.563	1	1
574.733	1	4
574.903	1	-4
575.073	1	-11
575.243	1	6
575.413	1	-7
575.583	1	2
575.752	1	3
575.922	1	-1
576.092	1	-9
576.262	1	7
576.432	1	9
576.602	1	1
576.772	1	-12
576.941	1	11
577.111	1	2
577.281	1	8
577.451	1	1
577.621	1	7
577.791	1	5
577.960	1	-11
578.130	1	11
578.300	1	-2
578.470	1	-1
578.640	1	-2
578.810	1	1
578.979	1	0
579.149	1	-5
579.319	1	-2
579.489	1	1
579.659	1	-1
579.829	1	10
579.998	1	0
580.168	1	0
580.338	1	-1
580.508	1	1
580.678	1	20
580.848	1	-4
581.017	1	1
581.187	1	0
581.357	1	-1
581.527	1	0
581.697	1	-9
581.867	1	5
582.036	1	3
582.206	1	5
582.376	1	11
582.546	1	20
582.716	1	-10
582.885	1	-3
583.055	1	-6
583.225	1	-11
583.395	1	-2
583.565	1	-4
583.735	1	-7
583.904	1	4
584.074	1	-2
584.244	1	7
584.414	1	-7
584.584	1	5
584.753	1	7
584.923	1	4
585.093	1	3
585.263	1	-6
585.433	1	17
585.602	1	-4
585.772	1	2
585.942	1	-3
586.112	1	3
586.282	1	20
586.451	1	1
586.621	1	-4
586.791	1	-4
586.961	1	6
587.131	1	-1
587.300	1	3
587.470	1	-2
587.640	1	-12
587.810	1	-10
587.980	1	-1
588.149	1	0
588.319	1	9
588.489	1	1
588.659	1	15
588.829	1	-5
588.998	1	-11
589.168	1	-4
589.338	1	-2
589.508	1	13
589.677	1	-8
589.847	1	5
590.017	1	2
590.187	1	4
590.357	1	-4
590.526	1	11
590.696	1	0
590.866	1	-5
591.036	1	0
591.205	1	1
591.375	1	1
591.545	1	0
591.715	1	-7
591.885	1	-3
592.054	1	5
592.224	1	5
592.394	1	-5
592.564	1	-3
592.733	1	8
592.903	1	6
593.073	1	-12
593.243	1	5
593.412	1	-5
593.582	1	1
593.752	1	0
593.922	1	8
594.091	1	-8
594.261	1	3
594.431	1	0
594.601	1	5
594.771	1	5
594.940	1	8
595.110	1	-2
595.280	1	4
595.450	1	8
595.619	1	4
595.789	1	10
595.959	1	-2
596.129	1	1
596.298	1	-4
596.468	1	5
596.638	1	1
596.808	1	-3
596.977	1	0
597.147	1	8
597.317	1	-3
597.487	1	1
597.656	1	-1
597.826	1	-2
597.996	1	4
598.166	1	3
598.335	1	-2
598.505	1	-4
598.675	1	-1
598.844	1	5
599.014	1	4
599.184	1	0
599.354	1	-12
599.523	1	0
599.693	1	10
599.863	1	3
600.033	1	6
600.202	1	11
600.372	1	4
600.542	1	-2
600.712	1	7
600.881	1	7
601.051	1	4
601.221	1	5
601.390	1	11
601.560	1	10
601.730	1	6
601.900	1	11
602.069	1	-12
602.239	1	10
602.409	1	5
602.578	1	9
602.748	1	-1
602.918	1	4
603.088	1	0
603.257	1	3
603.427	1	12
603.597	1	6
603.767	1	-2
603.936	1	10
604.106	1	-2
604.276	1	1
604.445	1	-5
604.615	1	-1
604.785	1	5
604.954	1	7
605.124	1	-1
605.294	1	1
605.464	1	-7
605.633	1	2
605.803	1	5
605.973	1	1
606.142	1	-4
606.312	1	14
606.482	1	-5
606.652	1	8
606.821	1	2
606.991	1	-3
607.161	1	5
607.330	1	-1
607.500	1	13
607.670	1	6
607.839	1	1
608.009	1	0
608.179	1	-4
608.348	1	4
608.518	1	0
608.688	1	4
608.858	1	1
609.027	1	2
609.197	1	7
609.367	1	-9
609.536	1	17
609.706	1	3
609.876	1	2
610.045	1	5
610.215	1	6
610.385	1	-3
610.554	1	9
610.724	1	4
610.894	1	-1
611.063	1	1
611.233	1	2
611.403	1	3
611.572	1	6
611.742	1	-7
611.912	1	7
612.081	1	5
612.251	1	-2
612.421	1	9
612.590	1	-6
612.760	1	7
612.930	1	-4
613.099	1	1
613.269	1	0
613.439	1	-5
613.608	1	12
613.778	1	-3
613.948	1	13
614.117	1	-8
614.287	1	-2
614.457	1	5
614.626	1	15
614.796	1	6
614.966	1	3
615.135	1	8
615.305	1	8
615.475	1	2
615.644	1	3
615.814	1	8
615.984	1	7
616.153	1	1
616.323	1	-2
616.493	1	15
616.662	1	-4
616.832	1	8
617.002	1	5
617.171	1	5
617.341	1	9
617.511	1	-5
617.680	1	1
617.850	1	3
618.019	1	10
618.189	1	-7
618.359	1	2
618.528	1	-3
618.698	1	8
618.868	1	0
619.037	1	14
619.207	1	6
619.377	1	-1
619.546	1	-16
619.716	1	0
619.885	1	2
620.055	1	9
620.225	1	12
620.394	1	7
620.564	1	-7
620.734	1	8
620.903	1	-2
621.073	1	3
621.242	1	-10
621.412	1	0
621.582	1	-6
621.751	1	1
621.921	1	7
622.091	1	-1
622.260	1	13
622.430	1	7
622.599	1	5
622.769	1	-6
622.939	1	-2
623.108	1	-1
623.278	1	14
623.448	1	7
623.617	1	-3
623.787	1	15
623.956	1	12
624.126	1	-3
624.296	1	8
624.465	1	-4
624.635	1	8
624.804	1	-2
624.974	1	8
625.144	1	22
625.313	1	0
625.483	1	4
625.652	1	10
625.822	1	-4
625.992	1	6
626.161	1	-4
626.331	1	-5
626.501	1	7
626.670	1	2
626.840	1	4
627.009	1	-4
627.179	1	-6
627.348	1	2
627.518	1	4
627.688	1	7
627.857	1	2
628.027	1	-5
628.196	1	-6
628.366	1	3
628.536	1	5
628.705	1	10
628.875	1	2
629.044	1	12
629.214	1	-5
629.384	1	7
629.553	1	1
629.723	1	-14
629.892	1	1
630.062	1	-9
630.232	1	-3
630.401	1	-10
630.571	1	8
630.740	1	-1
630.910	1	-2
631.079	1	-4
631.249	1	5
631.419	1	9
631.588	1	8
631.758	1	7
631.927	1	-3
632.097	1	3
632.266	1	-12
632.436	1	1
632.606	1	-11
632.775	1	0
632.945	1	0
633.114	1	6
633.284	1	4
633.453	1	8
633.623	1	16
633.793	1	4
633.962	1	4
634.132	1	4
634.301	1	1
634.471	1	0
634.640	1	9
634.810	1	8
634.979	1	2
635.149	1	5
635.319	1	3
635.488	1	-1
635.658	1	9
635.827	1	-14
635.997	1	-1
636.166	1	-4
636.336	1	4
636.505	1	5
636.675	1	7
636.845	1	6
637.014	1	7
637.184	1	7
637.353	1	8
637.523	1	5
637.692	1	3
637.862	1	1
638.031	1	-2
638.201	1	3
638.370	1	8
638.540	1	-3
638.710	1	7
638.879	1	11
639.049	1	1
639.218	1	15
639.388	1	2
639.557	1	10
639.727	1	14
639.896	1	2
640.066	1	5
640.235	1	0
640.405	1	8
640.574	1	2
640.744	1	-3
640.914	1	0
641.083	1	-3
641.253	1	2
641.422	1	13
641.592	1	10
641.761	1	3
641.931	1	-3
642.100	1	3
642.270	1	4
642.439	1	2
642.609	1	2
642.778	1	1
642.948	1	8
643.117	1	9
643.287	1	-7
643.456	1	1
643.626	1	4
643.795	1	6
643.965	1	14
644.134	1	2
644.304	1	12
644.473	1	-3
644.643	1	-5
644.812	1	2
644.982	1	-4
645.151	1	-3
645.321	1	-8
645.490	1	3
645.660	1	1
645.829	1	-4
645.999	1	-2
646.168	1	13
646.338	1	4
646.507	1	1
646.677	1	0
646.846	1	3
647.016	1	2
647.185	1	0
647.355	1	5
647.524	1	-3
647.694	1	3
647.863	1	9
648.033	1	1
648.202	1	3
648.372	1	-5
648.541	1	0
648.711	1	5
648.880	1	-3
649.050	1	-2
649.219	1	8
649.389	1	-2
649.558	1	4
649.728	1	2
649.897	1	2
650.067	1	2
650.236	1	-1
650.406	1	6
650.575	1	1
650.745	1	-3
650.914	1	-3
651.084	1	11
651.253	1	-7
651.423	1	8
651.592	1	1
651.762	1	3
651.931	1	8
652.101	1	8
652.270	1	-5
652.440	1	6
652.609	1	5
652.778	1	6
652.948	1	0
653.117	1	7
653.287	1	-7
653.456	1	1
653.626	1	11
653.795	1	-11
653.965	1	2
654.134	1	-5
654.304	1	3
654.473	1	-1
654.643	1	1
654.812	1	6
654.982	1	-6
655.151	1	9
655.320	1	5
655.490	1	2
655.659	1	-3
655.829	1	12
655.998	1	-7
656.168	1	0
656.337	1	5
656.507	1	-13
656.676	1	4
656.846	1	5
657.015	1	-3
657.184	1	-2
657.354	1	6
657.523	1	1
657.693	1	1
657.862	1	-9
658.032	1	3
658.201	1	3
658.371	1	15
658.540	1	0
658.709	1	-13
658.879	1	5
659.048	1	7
659.218	1	-5
659.387	1	9
659.557	1	1
659.726	1	7
659.895	1	4
660.065	1	8
660.234	1	-8
660.404	1	-2
660.573	1	4
660.743	1	1
660.912	1	-7
661.081	1	-10
661.251	1	-3
661.420	1	13
661.590	1	-2
661.759	1	-3
661.929	1	4
662.098	1	6
662.267	1	7
662.437	1	5
662.606	1	2
662.776	1	-3
662.945	1	2
663.115	1	8
663.284	1	0
663.453	1	6
663.623	1	12
663.792	1	2
663.962	1	-6
664.131	1	-2
664.300	1	-12
664.470	1	1
664.639	1	0
664.809	1	-5
664.978	1	6
665.148	1	-7
665.317	1	-7
665.486	1	0
665.656	1	7
665.825	1	8
665.995	1	-7
666.164	1	6
666.333	1	-1
666.503	1	-4
666.672	1	8
666.842	1	-7
667.011	1	-1
667.180	1	-4
667.350	1	0
667.519	1	4
667.689	1	0
667.858	1	10
668.027	1	4
668.197	1	14
668.366	1	-2
668.536	1	-7
668.705	1	5
668.874	1	1
669.044	1	3
669.213	1	5
669.382	1	2
669.552	1	12
669.721	1	4
669.891	1	4
670.060	1	-4
670.229	1	-10
670.399	1	5
670.568	1	-2
670.738	1	-5
670.907	1	2
671.076	1	1
671.246	1	-10
671.415	1	4
671.584	1	11
671.754	1	-3
671.923	1	5
672.093	1	1
672.262	1	9
672.431	1	0
672.601	1	-3
672.770	1	2
672.939	1	-4
673.109	1	10
673.278	1	-1
673.448	1	-3
673.617	1	5
673.786	1	8
