325.333	1	4
325.504	1	17
325.675	1	11
325.846	1	13
326.017	1	14
326.188	1	24
326.359	1	24
326.531	1	28
326.702	1	19
326.873	1	7
327.044	1	27
327.215	1	-5
327.386	1	16
327.557	1	18
327.728	1	3
327.899	1	7
328.070	1	25
328.241	1	16
328.412	1	4
328.583	1	14
328.754	1	4
328.926	1	20
329.097	1	14
329.268	1	7
329.439	1	10
329.610	1	11
329.781	1	19
329.952	1	8
330.123	1	16
330.294	1	14
330.465	1	16
330.636	1	28
330.807	1	19
330.978	1	11
331.149	1	14
331.320	1	22
331.492	1	4
331.663	1	16
331.834	1	3
332.005	1	5
332.176	1	21
332.347	1	19
332.518	1	24
332.689	1	9
332.860	1	18
333.031	1	24
333.202	1	10
333.373	1	19
333.544	1	9
333.715	1	13
333.886	1	11
334.057	1	5
334.228	1	20
334.399	1	20
334.570	1	4
334.741	1	11
334.912	1	12
335.084	1	11
335.255	1	24
335.426	1	23
335.597	1	24
335.768	1	13
335.939	1	7
336.110	1	20
336.281	1	20
336.452	1	19
336.623	1	1
336.794	1	17
336.965	1	14
337.136	1	19
337.307	1	20
337.478	1	16
337.649	1	13
337.820	1	11
337.991	1	30
338.162	1	15
338.333	1	22
338.504	1	23
338.675	1	21
338.846	1	19
339.017	1	31
339.188	1	24
339.359	1	28
339.530	1	20
339.701	1	20
339.872	1	18
340.043	1	12
340.214	1	16
340.385	1	23
340.556	1	16
340.727	1	17
340.898	1	17
341.069	1	-2
341.240	1	9
341.411	1	22
341.582	1	16
341.753	1	13
341.924	1	20
342.095	1	29
342.266	1	13
342.437	1	9
342.608	1	11
342.779	1	28
342.950	1	22
343.121	1	13
343.292	1	28
343.463	1	21
343.634	1	21
343.805	1	19
343.976	1	16
344.147	1	19
344.318	1	23
344.489	1	31
344.660	1	28
344.831	1	25
345.002	1	27
345.173	1	30
345.344	1	22
345.515	1	25
345.686	1	15
345.857	1	14
346.028	1	13
346.199	1	26
346.370	1	22
346.541	1	18
346.712	1	28
346.883	1	35
347.054	1	21
347.225	1	13
347.396	1	15
347.567	1	22
347.738	1	16
347.909	1	23
348.080	1	31
348.251	1	19
348.422	1	23
348.593	1	32
348.764	1	16
348.935	1	15
349.106	1	28
349.277	1	24
349.448	1	26
349.619	1	40
349.790	1	29
349.961	1	31
350.132	1	31
350.303	1	19
350.474	1	29
350.645	1	27
350.816	1	27
350.987	1	36
351.157	1	27
351.328	1	22
351.499	1	33
351.670	1	22
351.841	1	22
352.012	1	38
352.183	1	20
352.354	1	24
352.525	1	24
352.696	1	23
352.867	1	29
353.038	1	24
353.209	1	26
353.380	1	35
353.551	1	24
353.722	1	33
353.893	1	28
354.064	1	33
354.235	1	46
354.406	1	32
354.576	1	20
354.747	1	36
354.918	1	40
355.089	1	32
355.260	1	39
355.431	1	39
355.602	1	37
355.773	1	36
355.944	1	41
356.115	1	25
356.286	1	32
356.457	1	29
356.628	1	35
356.799	1	36
356.970	1	30
357.141	1	43
357.311	1	29
357.482	1	37
357.653	1	34
357.824	1	37
357.995	1	39
358.166	1	38
358.337	1	22
358.508	1	24
358.679	1	32
358.850	1	22
359.021	1	27
359.192	1	35
359.363	1	15
359.533	1	22
359.704	1	38
359.875	1	32
360.046	1	24
360.217	1	37
360.388	1	28
360.559	1	26
360.730	1	32
360.901	1	33
361.072	1	21
361.243	1	43
361.414	1	47
361.584	1	36
361.755	1	45
361.926	1	33
362.097	1	26
362.268	1	44
362.439	1	35
362.610	1	30
362.781	1	36
362.952	1	32
363.123	1	34
363.293	1	42
363.464	1	43
363.635	1	43
363.806	1	45
363.977	1	28
364.148	1	39
364.319	1	24
364.490	1	36
364.661	1	32
364.832	1	41
365.002	1	23
365.173	1	33
365.344	1	31
365.515	1	33
365.686	1	42
365.857	1	38
366.028	1	28
366.199	1	31
366.370	1	38
366.540	1	38
366.711	1	32
366.882	1	35
367.053	1	44
367.224	1	29
367.395	1	46
367.566	1	42
367.737	1	38
367.908	1	36
368.078	1	28
368.249	1	38
368.420	1	37
368.591	1	34
368.762	1	27
368.933	1	54
369.104	1	32
369.274	1	52
369.445	1	50
369.616	1	41
369.787	1	36
369.958	1	39
370.129	1	35
370.300	1	37
370.471	1	50
370.641	1	36
370.812	1	49
370.983	1	35
371.154	1	33
371.325	1	33
371.496	1	37
371.667	1	27
371.837	1	38
372.008	1	47
372.179	1	33
372.350	1	51
372.521	1	43
372.692	1	42
372.863	1	45
373.033	1	40
373.204	1	47
373.375	1	41
373.546	1	43
373.717	1	46
373.888	1	43
374.059	1	49
374.229	1	40
374.400	1	54
374.571	1	47
374.742	1	46
374.913	1	49
375.084	1	48
375.254	1	43
375.425	1	28
375.596	1	40
375.767	1	35
375.938	1	36
376.109	1	30
376.279	1	38
376.450	1	38
376.621	1	48
376.792	1	48
376.963	1	31
377.134	1	32
377.304	1	46
377.475	1	45
377.646	1	38
377.817	1	41
377.988	1	40
378.159	1	40
378.329	1	45
378.500	1	50
378.671	1	35
378.842	1	55
379.013	1	40
379.184	1	52
379.354	1	43
379.525	1	38
379.696	1	45
379.867	1	30
380.038	1	36
380.209	1	38
380.379	1	50
380.550	1	43
380.721	1	49
380.892	1	51
381.063	1	51
381.233	1	47
381.404	1	50
381.575	1	44
381.746	1	50
381.917	1	46
382.087	1	43
382.258	1	46
382.429	1	44
382.600	1	49
382.771	1	45
382.941	1	45
383.112	1	49
383.283	1	52
383.454	1	46
383.625	1	35
383.795	1	49
383.966	1	47
384.137	1	47
384.308	1	53
384.479	1	56
384.649	1	51
384.820	1	43
384.991	1	37
385.162	1	52
385.333	1	43
385.503	1	54
385.674	1	59
385.845	1	52
386.016	1	48
386.187	1	39
386.357	1	40
386.528	1	32
386.699	1	43
386.870	1	47
387.041	1	56
387.211	1	45
387.382	1	41
387.553	1	52
387.724	1	41
387.894	1	43
388.065	1	54
388.236	1	51
388.407	1	48
388.578	1	50
388.748	1	55
388.919	1	69
389.090	1	53
389.261	1	61
389.431	1	64
389.602	1	41
389.773	1	39
389.944	1	50
390.114	1	56
390.285	1	55
390.456	1	58
390.627	1	61
390.798	1	57
390.968	1	39
391.139	1	46
391.310	1	61
391.481	1	47
391.651	1	52
391.822	1	48
391.993	1	51
392.164	1	46
392.334	1	45
392.505	1	46
392.676	1	53
392.847	1	54
393.017	1	48
393.188	1	45
393.359	1	58
393.530	1	50
393.700	1	50
393.871	1	48
394.042	1	62
394.213	1	64
394.383	1	59
394.554	1	53
394.725	1	46
394.896	1	53
395.066	1	59
395.237	1	44
395.408	1	60
395.579	1	47
395.749	1	52
395.920	1	58
396.091	1	72
396.262	1	35
396.432	1	51
396.603	1	46
396.774	1	58
396.945	1	39
397.115	1	47
397.286	1	62
397.457	1	58
397.627	1	51
397.798	1	52
397.969	1	59
398.140	1	56
398.310	1	61
398.481	1	57
398.652	1	44
398.823	1	45
398.993	1	72
399.164	1	55
399.335	1	42
399.505	1	65
399.676	1	61
399.847	1	60
400.018	1	55
400.188	1	59
400.359	1	53
400.530	1	55
400.700	1	57
400.871	1	68
401.042	1	57
401.213	1	51
401.383	1	71
401.554	1	61
401.725	1	61
401.895	1	51
402.066	1	64
402.237	1	72
402.408	1	57
402.578	1	61
402.749	1	62
402.920	1	74
403.090	1	56
403.261	1	62
403.432	1	61
403.603	1	51
403.773	1	62
403.944	1	61
404.115	1	44
404.285	1	70
404.456	1	58
404.627	1	48
404.797	1	48
404.968	1	45
405.139	1	58
405.310	1	57
405.480	1	65
405.651	1	62
405.822	1	71
405.992	1	63
406.163	1	59
406.334	1	66
406.504	1	50
406.675	1	61
406.846	1	56
407.016	1	54
407.187	1	60
407.358	1	56
407.528	1	58
407.699	1	53
407.870	1	58
408.041	1	55
408.211	1	46
408.382	1	53
408.553	1	41
408.723	1	59
408.894	1	68
409.065	1	72
409.235	1	58
409.406	1	48
409.577	1	63
409.747	1	60
409.918	1	55
410.089	1	40
410.259	1	49
410.430	1	66
410.601	1	61
410.771	1	69
410.942	1	49
411.113	1	66
411.283	1	56
411.454	1	73
411.625	1	60
411.795	1	56
411.966	1	54
412.137	1	55
412.307	1	62
412.478	1	62
412.649	1	48
412.819	1	56
412.990	1	64
413.161	1	63
413.331	1	59
413.502	1	52
413.672	1	67
413.843	1	67
414.014	1	73
414.184	1	54
414.355	1	53
414.526	1	60
414.696	1	63
414.867	1	68
415.038	1	57
415.208	1	59
415.379	1	59
415.550	1	65
415.720	1	54
415.891	1	68
416.062	1	63
416.232	1	61
416.403	1	58
416.573	1	57
416.744	1	53
416.915	1	58
417.085	1	54
417.256	1	54
417.427	1	60
417.597	1	60
417.768	1	70
417.939	1	54
418.109	1	56
418.280	1	65
418.450	1	71
418.621	1	55
418.792	1	62
418.962	1	58
419.133	1	64
419.304	1	48
419.474	1	54
419.645	1	55
419.815	1	63
419.986	1	48
420.157	1	74
420.327	1	63
420.498	1	56
420.669	1	65
420.839	1	54
421.010	1	53
421.180	1	51
421.351	1	65
421.522	1	72
421.692	1	64
421.863	1	60
422.033	1	65
422.204	1	55
422.375	1	59
422.545	1	56
422.716	1	57
422.886	1	63
423.057	1	47
423.228	1	56
423.398	1	60
423.569	1	57
423.740	1	54
423.910	1	67
424.081	1	63
424.251	1	46
424.422	1	47
424.593	1	59
424.763	1	55
424.934	1	59
425.104	1	60
425.275	1	57
425.445	1	65
425.616	1	60
425.787	1	60
425.957	1	63
426.128	1	63
426.298	1	56
426.469	1	59
426.640	1	48
426.810	1	56
426.981	1	63
427.151	1	58
427.322	1	42
427.493	1	50
427.663	1	53
427.834	1	54
428.004	1	57
428.175	1	64
428.345	1	59
428.516	1	55
428.687	1	55
428.857	1	54
429.028	1	62
429.198	1	53
429.369	1	54
429.540	1	51
429.710	1	58
429.881	1	48
430.051	1	43
430.222	1	57
430.392	1	57
430.563	1	49
430.734	1	68
430.904	1	59
431.075	1	45
431.245	1	66
431.416	1	39
431.586	1	54
431.757	1	59
431.927	1	43
432.098	1	51
432.269	1	63
432.439	1	56
432.610	1	54
432.780	1	50
432.951	1	57
433.121	1	59
433.292	1	55
433.462	1	56
433.633	1	68
433.804	1	46
433.974	1	50
434.145	1	51
434.315	1	63
434.486	1	57
434.656	1	50
434.827	1	50
434.997	1	65
435.168	1	60
435.339	1	65
435.509	1	52
435.680	1	56
435.850	1	54
436.021	1	58
436.191	1	60
436.362	1	61
436.532	1	60
436.703	1	62
436.873	1	57
437.044	1	63
437.214	1	52
437.385	1	62
437.556	1	56
437.726	1	61
437.897	1	49
438.067	1	53
438.238	1	61
438.408	1	61
438.579	1	58
438.749	1	48
438.920	1	57
439.090	1	55
439.261	1	52
439.431	1	61
439.602	1	57
439.772	1	59
439.943	1	71
440.113	1	59
440.284	1	55
440.455	1	52
440.625	1	50
440.796	1	51
440.966	1	48
441.137	1	52
441.307	1	47
441.478	1	60
441.648	1	55
441.819	1	49
441.989	1	27
442.160	1	55
442.330	1	58
442.501	1	50
442.671	1	52
442.842	1	53
443.012	1	58
443.183	1	66
443.353	1	58
443.524	1	54
443.694	1	47
443.865	1	59
444.035	1	47
444.206	1	56
444.376	1	56
444.547	1	50
444.717	1	53
444.888	1	42
445.058	1	52
445.229	1	49
445.399	1	47
445.570	1	43
445.740	1	58
445.911	1	57
446.081	1	66
446.252	1	39
446.422	1	53
446.593	1	49
446.763	1	54
446.934	1	53
447.104	1	51
447.275	1	59
447.445	1	47
447.616	1	58
447.786	1	49
447.957	1	43
448.127	1	58
448.298	1	52
448.468	1	50
448.639	1	43
448.809	1	50
448.979	1	60
449.150	1	51
449.320	1	62
449.491	1	55
449.661	1	62
449.832	1	50
450.002	1	50
450.173	1	52
450.343	1	61
450.514	1	60
450.684	1	59
450.855	1	46
451.025	1	66
451.196	1	62
451.366	1	39
451.537	1	49
451.707	1	55
451.878	1	55
452.048	1	49
452.218	1	47
452.389	1	55
452.559	1	55
452.730	1	42
452.900	1	50
453.071	1	49
453.241	1	53
453.412	1	46
453.582	1	48
453.753	1	56
453.923	1	57
454.093	1	61
454.264	1	44
454.434	1	58
454.605	1	51
454.775	1	52
454.946	1	44
455.116	1	41
455.287	1	55
455.457	1	52
455.628	1	56
455.798	1	40
455.968	1	45
456.139	1	56
456.309	1	52
456.480	1	46
456.650	1	54
456.821	1	59
456.991	1	44
457.161	1	46
457.332	1	43
457.502	1	55
457.673	1	47
457.843	1	42
458.014	1	44
458.184	1	55
458.355	1	48
458.525	1	53
458.695	1	50
458.866	1	67
459.036	1	49
459.207	1	47
459.377	1	51
459.548	1	48
459.718	1	45
459.888	1	52
460.059	1	46
460.229	1	49
460.400	1	41
460.570	1	45
460.740	1	47
460.911	1	46
461.081	1	53
461.252	1	46
461.422	1	51
461.593	1	46
461.763	1	49
461.933	1	51
462.104	1	38
462.274	1	39
462.445	1	51
462.615	1	43
462.785	1	50
462.956	1	44
463.126	1	44
463.297	1	58
463.467	1	50
463.638	1	49
463.808	1	49
463.978	1	57
464.149	1	44
464.319	1	52
464.490	1	43
464.660	1	53
464.830	1	49
465.001	1	42
465.171	1	48
465.342	1	42
465.512	1	57
465.682	1	49
465.853	1	31
466.023	1	57
466.194	1	50
466.364	1	52
466.534	1	44
466.705	1	41
466.875	1	48
467.045	1	38
467.216	1	54
467.386	1	55
467.557	1	49
467.727	1	47
467.897	1	48
468.068	1	36
468.238	1	45
468.409	1	38
468.579	1	42
468.749	1	43
468.920	1	44
469.090	1	50
469.260	1	45
469.431	1	49
469.601	1	44
469.772	1	31
469.942	1	45
470.112	1	43
470.283	1	52
470.453	1	54
470.623	1	44
470.794	1	41
470.964	1	48
471.135	1	49
471.305	1	45
471.475	1	41
471.646	1	42
471.816	1	45
471.986	1	52
472.157	1	47
472.327	1	45
472.497	1	57
472.668	1	43
472.838	1	52
473.009	1	51
473.179	1	43
473.349	1	47
473.520	1	40
473.690	1	46
473.860	1	48
474.031	1	35
474.201	1	53
474.371	1	42
474.542	1	55
474.712	1	42
474.882	1	28
475.053	1	44
475.223	1	35
475.394	1	40
475.564	1	48
475.734	1	48
475.905	1	43
476.075	1	53
476.245	1	40
476.416	1	30
476.586	1	44
476.756	1	25
476.927	1	36
477.097	1	40
477.267	1	42
477.438	1	49
477.608	1	43
477.778	1	37
477.949	1	45
478.119	1	35
478.289	1	42
478.460	1	29
478.630	1	54
478.800	1	48
478.971	1	40
479.141	1	44
479.311	1	54
479.482	1	43
479.652	1	46
479.822	1	34
479.993	1	35
480.163	1	31
480.333	1	49
480.504	1	48
480.674	1	44
480.844	1	42
481.015	1	44
481.185	1	32
481.355	1	42
481.525	1	39
481.696	1	42
481.866	1	49
482.036	1	43
482.207	1	33
482.377	1	55
482.547	1	33
482.718	1	38
482.888	1	45
483.058	1	40
483.229	1	42
483.399	1	45
483.569	1	43
483.740	1	51
483.910	1	32
484.080	1	39
484.250	1	33
484.421	1	43
484.591	1	44
484.761	1	38
484.932	1	32
485.102	1	47
485.272	1	28
485.443	1	44
485.613	1	47
485.783	1	52
485.953	1	42
486.124	1	42
486.294	1	32
486.464	1	31
486.635	1	47
486.805	1	32
486.975	1	39
487.146	1	34
487.316	1	33
487.486	1	37
487.656	1	38
487.827	1	35
487.997	1	29
488.167	1	42
488.338	1	41
488.508	1	45
488.678	1	27
488.848	1	41
489.019	1	36
489.189	1	27
489.359	1	38
489.529	1	33
489.700	1	43
489.870	1	25
490.040	1	33
490.211	1	41
490.381	1	41
490.551	1	29
490.721	1	35
490.892	1	37
491.062	1	36
491.232	1	37
491.402	1	41
491.573	1	26
491.743	1	40
491.913	1	29
492.084	1	24
492.254	1	39
492.424	1	41
492.594	1	37
492.765	1	38
492.935	1	49
493.105	1	29
493.275	1	36
493.446	1	40
493.616	1	30
493.786	1	27
493.956	1	28
494.127	1	29
494.297	1	22
494.467	1	35
494.637	1	41
494.808	1	32
494.978	1	35
495.148	1	22
495.318	1	36
495.489	1	21
495.659	1	30
495.829	1	41
495.999	1	36
496.170	1	35
496.340	1	37
496.510	1	32
496.680	1	21
496.851	1	34
497.021	1	23
497.191	1	29
497.361	1	27
497.532	1	23
497.702	1	36
497.872	1	48
498.042	1	38
498.213	1	44
498.383	1	33
498.553	1	32
498.723	1	28
498.894	1	31
499.064	1	27
499.234	1	25
499.404	1	29
499.574	1	22
499.745	1	28
499.915	1	34
500.085	1	22
500.255	1	25
500.426	1	48
500.596	1	18
500.766	1	18
500.936	1	36
501.106	1	28
501.277	1	30
501.447	1	41
501.617	1	25
501.787	1	24
501.958	1	29
502.128	1	13
502.298	1	27
502.468	1	34
502.638	1	26
502.809	1	31
502.979	1	31
503.149	1	13
503.319	1	32
503.489	1	19
503.660	1	22
503.830	1	24
504.000	1	25
504.170	1	29
504.340	1	16
504.511	1	30
504.681	1	20
504.851	1	31
505.021	1	30
505.192	1	24
505.362	1	33
505.532	1	34
505.702	1	27
505.872	1	28
506.043	1	38
506.213	1	44
506.383	1	25
506.553	1	35
506.723	1	34
506.893	1	17
507.064	1	24
507.234	1	32
507.404	1	27
507.574	1	25
507.744	1	31
507.915	1	32
508.085	1	29
508.255	1	29
508.425	1	38
508.595	1	15
508.766	1	16
508.936	1	28
509.106	1	20
509.276	1	21
509.446	1	26
509.616	1	23
509.787	1	27
509.957	1	25
510.127	1	28
510.297	1	20
510.467	1	4
510.638	1	18
510.808	1	24
510.978	1	21
511.148	1	36
511.318	1	13
511.488	1	24
511.659	1	12
511.829	1	22
511.999	1	28
512.169	1	21
512.339	1	27
512.509	1	15
512.680	1	16
512.850	1	20
513.020	1	24
513.190	1	14
513.360	1	14
513.530	1	19
513.700	1	32
513.871	1	21
514.041	1	24
514.211	1	25
514.381	1	32
514.551	1	13
514.721	1	24
514.892	1	25
515.062	1	18
515.232	1	21
515.402	1	28
515.572	1	14
515.742	1	26
515.912	1	24
516.083	1	21
516.253	1	23
516.423	1	15
516.593	1	22
516.763	1	24
516.933	1	12
517.104	1	21
517.274	1	14
517.444	1	23
517.614	1	17
517.784	1	29
517.954	1	25
518.124	1	20
518.294	1	26
518.465	1	17
518.635	1	18
518.805	1	35
518.975	1	20
519.145	1	31
519.315	1	24
519.485	1	11
519.656	1	29
519.826	1	29
519.996	1	18
520.166	1	29
520.336	1	16
520.506	1	6
520.676	1	14
520.846	1	19
521.017	1	13
521.187	1	20
521.357	1	14
521.527	1	23
521.697	1	28
521.867	1	18
522.037	1	16
522.207	1	23
522.377	1	20
522.548	1	21
522.718	1	25
522.888	1	23
523.058	1	19
523.228	1	21
523.398	1	29
523.568	1	13
523.738	1	16
523.909	1	18
524.079	1	17
524.249	1	17
524.419	1	22
524.589	1	11
524.759	1	17
524.929	1	24
525.099	1	17
525.269	1	32
525.439	1	16
525.610	1	16
525.780	1	14
525.950	1	16
526.120	1	13
526.290	1	20
526.460	1	13
526.630	1	32
526.800	1	14
526.970	1	32
527.140	1	21
527.311	1	16
527.481	1	18
527.651	1	14
527.821	1	8
527.991	1	21
528.161	1	17
528.331	1	23
528.501	1	18
528.671	1	16
528.841	1	23
529.011	1	20
529.181	1	31
529.352	1	8
529.522	1	14
529.692	1	22
529.862	1	22
530.032	1	22
530.202	1	15
530.372	1	17
530.542	1	7
530.712	1	18
530.882	1	19
531.052	1	29
531.222	1	7
531.392	1	20
531.563	1	16
531.733	1	22
531.903	1	20
532.073	1	13
532.243	1	13
532.413	1	26
532.583	1	12
532.753	1	19
532.923	1	20
533.093	1	24
533.263	1	9
533.433	1	24
533.603	1	22
533.773	1	9
533.943	1	20
534.113	1	20
534.284	1	15
534.454	1	8
534.624	1	18
534.794	1	7
534.964	1	8
535.134	1	30
535.304	1	13
535.474	1	1
535.644	1	6
535.814	1	13
535.984	1	24
536.154	1	17
536.324	1	23
536.494	1	15
536.664	1	20
536.834	1	13
537.004	1	17
537.174	1	19
537.344	1	21
537.514	1	20
537.685	1	19
537.855	1	19
538.025	1	13
538.195	1	13
538.365	1	10
538.535	1	5
538.705	1	27
538.875	1	22
539.045	1	23
539.215	1	-1
539.385	1	16
539.555	1	21
539.725	1	10
539.895	1	22
540.065	1	14
540.235	1	5
540.405	1	6
540.575	1	10
540.745	1	13
540.915	1	11
541.085	1	0
541.255	1	5
541.425	1	17
541.595	1	16
541.765	1	27
541.935	1	11
542.105	1	17
542.275	1	18
542.445	1	7
542.615	1	18
542.785	1	10
542.955	1	10
543.125	1	3
543.295	1	10
543.465	1	17
543.635	1	10
543.805	1	19
543.975	1	2
544.145	1	14
544.315	1	16
544.485	1	8
544.655	1	19
544.825	1	8
544.995	1	12
545.165	1	22
545.335	1	12
545.505	1	25
545.675	1	4
545.845	1	26
546.015	1	20
546.185	1	12
546.355	1	17
546.525	1	13
546.695	1	7
546.865	1	18
547.035	1	13
547.205	1	19
547.375	1	15
547.545	1	21
547.715	1	19
547.885	1	19
548.055	1	3
548.225	1	6
548.395	1	-1
548.565	1	17
548.735	1	9
548.905	1	0
549.075	1	21
549.245	1	16
549.415	1	15
549.585	1	16
549.755	1	15
549.925	1	18
550.095	1	14
550.265	1	7
550.435	1	7
550.605	1	11
550.775	1	6
550.945	1	22
551.115	1	15
551.285	1	4
551.455	1	9
551.625	1	9
551.795	1	6
551.965	1	28
552.135	1	8
552.305	1	11
552.475	1	15
552.645	1	1
552.815	1	13
552.985	1	11
553.155	1	3
553.325	1	9
553.495	1	10
553.665	1	20
553.835	1	4
554.004	1	5
554.174	1	9
554.344	1	4
554.514	1	17
554.684	1	0
554.854	1	4
555.024	1	18
555.194	1	19
555.364	1	15
555.534	1	4
555.704	1	25
555.874	1	1
556.044	1	19
556.214	1	11
556.384	1	24
556.554	1	8
556.724	1	20
556.894	1	11
557.064	1	19
557.234	1	14
557.404	1	3
557.573	1	8
557.743	1	5
557.913	1	-6
558.083	1	22
558.253	1	5
558.423	1	13
558.593	1	19
558.763	1	17
558.933	1	13
559.103	1	19
559.273	1	3
559.443	1	17
559.613	1	10
559.783	1	20
559.953	1	20
560.122	1	9
560.292	1	17
560.462	1	10
560.632	1	13
560.802	1	13
560.972	1	11
561.142	1	14
561.312	1	14
561.482	1	12
561.652	1	11
561.822	1	4
561.992	1	3
562.162	1	18
562.331	1	10
562.501	1	3
562.671	1	12
562.841	1	10
563.011	1	-5
563.181	1	19
563.351	1	9
563.521	1	20
563.691	1	17
563.861	1	4
564.031	1	2
564.201	1	9
564.370	1	13
564.540	1	10
564.710	1	7
564.880	1	14
565.050	1	11
565.220	1	14
565.390	1	12
565.560	1	13
565.730	1	9
565.900	1	-1
566.069	1	21
566.239	1	8
566.409	1	12
566.579	1	9
566.749	1	3
566.919	1	11
567.089	1	8
567.259	1	13
567.429	1	13
567.599	1	5
567.768	1	12
567.938	1	1
568.108	1	18
568.278	1	7
568.448	1	12
568.618	1	11
568.788	1	-3
568.958	1	-2
569.128	1	3
569.297	1	7
569.467	1	14
569.637	1	12
569.807	1	15
569.977	1	16
570.147	1	10
570.317	1	7
570.487	1	20
570.656	1	14
570.826	1	6
570.996	1	13
571.166	1	5
571.336	1	8
571.506	1	2
571.676	1	2
571.846	1	2
572.015	1	14
572.185	1	8
572.355	1	17
572.525	1	-3
572.695	1	5
572.865	1	14
573.035	1	6
573.205	1	3
573.374	1	24
573.544	1	2
573.714	1	16
573.884	1	12
574.054	1	9
574.224	1	10
574.394	1	9
574.563	1	24
574.733	1	17
574.903	1	3
575.073	1	4
575.243	1	9
575.413	1	8
575.583	1	8
575.752	1	14
575.922	1	17
576.092	1	4
576.262	1	6
576.432	1	17
576.602	1	2
576.772	1	9
576.941	1	16
577.111	1	10
577.281	1	31
577.451	1	9
577.621	1	11
577.791	1	11
577.960	1	2
578.130	1	13
578.300	1	10
578.470	1	21
578.640	1	9
578.810	1	7
578.979	1	1
579.149	1	6
579.319	1	7
579.489	1	11
579.659	1	11
579.829	1	14
579.998	1	4
580.168	1	3
580.338	1	6
580.508	1	10
580.678	1	27
580.848	1	6
581.017	1	6
581.187	1	8
581.357	1	4
581.527	1	8
581.697	1	1
581.867	1	22
582.036	1	6
582.206	1	7
582.376	1	9
582.546	1	19
582.716	1	14
582.885	1	13
583.055	1	5
583.225	1	1
583.395	1	4
583.565	1	13
583.735	1	5
583.904	1	13
584.074	1	4
584.244	1	8
584.414	1	3
584.584	1	12
584.753	1	12
584.923	1	20
585.093	1	6
585.263	1	6
585.433	1	22
585.602	1	8
585.772	1	7
585.942	1	7
586.112	1	14
586.282	1	15
586.451	1	-2
586.621	1	-4
586.791	1	9
586.961	1	20
587.131	1	13
587.300	1	17
587.470	1	5
587.640	1	5
587.810	1	-3
587.980	1	3
588.149	1	10
588.319	1	8
588.489	1	-3
588.659	1	20
588.829	1	7
588.998	1	3
589.168	1	14
589.338	1	16
589.508	1	11
589.677	1	8
589.847	1	8
590.017	1	23
590.187	1	7
590.357	1	11
590.526	1	13
590.696	1	8
590.866	1	12
591.036	1	6
591.205	1	16
591.375	1	11
591.545	1	16
591.715	1	5
591.885	1	-2
592.054	1	9
592.224	1	8
592.394	1	4
592.564	1	12
592.733	1	15
592.903	1	10
593.073	1	-4
593.243	1	14
593.412	1	3
593.582	1	5
593.752	1	18
593.922	1	19
594.091	1	-1
594.261	1	12
594.431	1	6
594.601	1	9
594.771	1	10
594.940	1	14
595.110	1	3
595.280	1	4
595.450	1	15
595.619	1	12
595.789	1	20
595.959	1	12
596.129	1	6
596.298	1	1
596.468	1	4
596.638	1	9
596.808	1	0
596.977	1	9
597.147	1	11
597.317	1	13
597.487	1	17
597.656	1	17
597.826	1	-7
597.996	1	6
598.166	1	18
598.335	1	-2
598.505	1	-1
598.675	1	4
598.844	1	15
599.014	1	10
599.184	1	5
599.354	1	13
599.523	1	17
599.693	1	16
599.863	1	14
600.033	1	2
600.202	1	10
600.372	1	14
600.542	1	11
600.712	1	20
600.881	1	11
601.051	1	17
601.221	1	7
601.390	1	11
601.560	1	11
601.730	1	13
601.900	1	13
602.069	1	-4
602.239	1	18
602.409	1	4
602.578	1	15
602.748	1	8
602.918	1	5
603.088	1	17
603.257	1	11
603.427	1	18
603.597	1	6
603.767	1	7
603.936	1	16
604.106	1	4
604.276	1	10
604.445	1	-4
604.615	1	8
604.785	1	17
604.954	1	8
605.124	1	6
605.294	1	12
605.464	1	6
605.633	1	12
605.803	1	8
605.973	1	12
606.142	1	14
606.312	1	18
606.482	1	9
606.652	1	31
606.821	1	-4
606.991	1	5
607.161	1	9
607.330	1	12
607.500	1	18
607.670	1	9
607.839	1	5
608.009	1	4
608.179	1	9
608.348	1	8
608.518	1	11
608.688	1	12
608.858	1	8
609.027	1	14
609.197	1	12
609.367	1	3
609.536	1	17
609.706	1	12
609.876	1	7
610.045	1	8
610.215	1	15
610.385	1	5
610.554	1	15
610.724	1	10
610.894	1	11
611.063	1	14
611.233	1	1
611.403	1	10
611.572	1	20
611.742	1	1
611.912	1	9
612.081	1	11
612.251	1	13
612.421	1	6
612.590	1	5
612.760	1	15
612.930	1	7
613.099	1	11
613.269	1	6
613.439	1	12
613.608	1	16
613.778	1	5
613.948	1	14
614.117	1	20
614.287	1	5
614.457	1	13
614.626	1	8
614.796	1	15
614.966	1	15
615.135	1	16
615.305	1	18
615.475	1	6
615.644	1	10
615.814	1	1
615.984	1	15
616.153	1	11
616.323	1	13
616.493	1	6
616.662	1	3
616.832	1	13
617.002	1	11
617.171	1	15
617.341	1	7
617.511	1	5
617.680	1	5
617.850	1	6
618.019	1	19
618.189	1	2
618.359	1	6
618.528	1	2
618.698	1	16
618.868	1	1
619.037	1	15
619.207	1	13
619.377	1	8
619.546	1	-6
619.716	1	14
619.885	1	3
620.055	1	25
620.225	1	16
620.394	1	11
620.564	1	1
620.734	1	12
620.903	1	12
621.073	1	14
621.242	1	0
621.412	1	16
621.582	1	3
621.751	1	17
621.921	1	14
622.091	1	1
622.260	1	9
622.430	1	14
622.599	1	16
622.769	1	-1
622.939	1	4
623.108	1	11
623.278	1	28
623.448	1	19
623.617	1	7
623.787	1	19
623.956	1	14
624.126	1	7
624.296	1	9
624.465	1	14
624.635	1	17
624.804	1	15
624.974	1	17
625.144	1	26
625.313	1	17
625.483	1	13
625.652	1	19
625.822	1	5
625.992	1	8
626.161	1	7
626.331	1	12
626.501	1	17
626.670	1	12
626.840	1	11
627.009	1	11
627.179	1	1
627.348	1	18
627.518	1	5
627.688	1	11
627.857	1	22
628.027	1	13
628.196	1	2
628.366	1	15
628.536	1	18
628.705	1	11
628.875	1	14
629.044	1	13
629.214	1	13
629.384	1	10
629.553	1	9
629.723	1	1
629.892	1	4
630.062	1	8
630.232	1	22
630.401	1	16
630.571	1	18
630.740	1	5
630.910	1	14
631.079	1	12
631.249	1	16
631.419	1	22
631.588	1	13
631.758	1	9
631.927	1	11
632.097	1	12
632.266	1	0
632.436	1	11
632.606	1	-8
632.775	1	17
632.945	1	-3
633.114	1	11
633.284	1	9
633.453	1	10
633.623	1	15
633.793	1	6
633.962	1	8
634.132	1	10
634.301	1	5
634.471	1	8
634.640	1	15
634.810	1	10
634.979	1	19
635.149	1	6
635.319	1	21
635.488	1	10
635.658	1	17
635.827	1	5
635.997	1	18
636.166	1	3
636.336	1	13
636.505	1	24
636.675	1	5
636.845	1	12
637.014	1	9
637.184	1	8
637.353	1	11
637.523	1	18
637.692	1	11
637.862	1	3
638.031	1	10
638.201	1	9
638.370	1	11
638.540	1	9
638.710	1	15
638.879	1	22
639.049	1	3
639.218	1	18
639.388	1	13
639.557	1	17
639.727	1	21
639.896	1	9
640.066	1	15
640.235	1	6
640.405	1	15
640.574	1	8
640.744	1	4
640.914	1	17
641.083	1	7
641.253	1	22
641.422	1	12
641.592	1	8
641.761	1	13
641.931	1	10
642.100	1	13
642.270	1	6
642.439	1	11
642.609	1	18
642.778	1	7
642.948	1	4
643.117	1	19
643.287	1	6
643.456	1	18
643.626	1	14
643.795	1	11
643.965	1	9
644.134	1	8
644.304	1	11
644.473	1	12
644.643	1	5
644.812	1	20
644.982	1	15
645.151	1	19
645.321	1	15
645.490	1	16
645.660	1	10
645.829	1	8
645.999	1	11
646.168	1	18
646.338	1	14
646.507	1	8
646.677	1	7
646.846	1	15
647.016	1	12
647.185	1	10
647.355	1	6
647.524	1	16
647.694	1	10
647.863	1	19
648.033	1	11
648.202	1	12
648.372	1	4
648.541	1	13
648.711	1	12
648.880	1	11
649.050	1	13
649.219	1	9
649.389	1	16
649.558	1	21
649.728	1	14
649.897	1	11
650.067	1	18
650.236	1	9
650.406	1	18
650.575	1	11
650.745	1	13
650.914	1	17
651.084	1	15
651.253	1	8
651.423	1	17
651.592	1	8
651.762	1	15
651.931	1	13
652.101	1	14
652.270	1	1
652.440	1	13
652.609	1	21
652.778	1	11
652.948	1	14
653.117	1	20
653.287	1	8
653.456	1	17
653.626	1	19
653.795	1	8
653.965	1	7
654.134	1	-1
654.304	1	18
654.473	1	5
654.643	1	16
654.812	1	11
654.982	1	17
655.151	1	21
655.320	1	29
655.490	1	12
655.659	1	9
655.829	1	16
655.998	1	13
656.168	1	5
656.337	1	10
656.507	1	8
656.676	1	16
656.846	1	11
657.015	1	16
657.184	1	16
657.354	1	17
657.523	1	4
657.693	1	5
657.862	1	6
658.032	1	15
658.201	1	9
658.371	1	0
658.540	1	14
658.709	1	7
658.879	1	21
659.048	1	18
659.218	1	-2
659.387	1	12
659.557	1	7
659.726	1	6
659.895	1	8
660.065	1	18
660.234	1	2
660.404	1	16
660.573	1	6
660.743	1	6
660.912	1	9
661.081	1	7
661.251	1	17
661.420	1	18
661.590	1	11
661.759	1	7
661.929	1	16
662.098	1	10
662.267	1	16
662.437	1	17
662.606	1	13
662.776	1	1
662.945	1	18
663.115	1	13
663.284	1	17
663.453	1	29
663.623	1	23
663.792	1	17
663.962	1	6
664.131	1	19
664.300	1	5
664.470	1	9
664.639	1	3
664.809	1	15
664.978	1	12
665.148	1	9
665.317	1	10
665.486	1	13
665.656	1	13
665.825	1	18
665.995	1	11
666.164	1	21
666.333	1	12
666.503	1	14
666.672	1	18
666.842	1	7
667.011	1	17
667.180	1	12
667.350	1	19
667.519	1	18
667.689	1	10
667.858	1	16
668.027	1	8
668.197	1	21
668.366	1	13
668.536	1	8
668.705	1	17
668.874	1	18
669.044	1	12
669.213	1	21
669.382	1	23
669.552	1	19
669.721	1	16
669.891	1	12
670.060	1	12
670.229	1	2
670.399	1	16
670.568	1	10
670.738	1	14
670.907	1	19
671.076	1	8
671.246	1	19
671.415	1	22
671.584	1	11
671.754	1	9
671.923	1	13
672.093	1	8
672.262	1	7
672.431	1	16
672.601	1	15
672.770	1	15
672.939	1	12
673.109	1	21
673.278	1	12
673.448	1	9
673.617	1	21
673.786	1	11
