325.333	1	0
325.504	1	4
325.675	1	-3
325.846	1	-3
326.017	1	4
326.188	1	7
326.359	1	11
326.531	1	14
326.702	1	6
326.873	1	-3
327.044	1	3
327.215	1	-6
327.386	1	0
327.557	1	7
327.728	1	11
327.899	1	5
328.070	1	10
328.241	1	3
328.412	1	-13
328.583	1	4
328.754	1	-9
328.926	1	5
329.097	1	4
329.268	1	-8
329.439	1	-9
329.610	1	-5
329.781	1	4
329.952	1	7
330.123	1	-3
330.294	1	5
330.465	1	5
330.636	1	9
330.807	1	4
330.978	1	0
331.149	1	9
331.320	1	6
331.492	1	1
331.663	1	2
331.834	1	-8
332.005	1	9
332.176	1	6
332.347	1	10
332.518	1	5
332.689	1	7
332.860	1	7
333.031	1	5
333.202	1	-2
333.373	1	2
333.544	1	2
333.715	1	-1
333.886	1	2
334.057	1	0
334.228	1	-4
334.399	1	2
334.570	1	-4
334.741	1	6
334.912	1	-6
335.084	1	0
335.255	1	7
335.426	1	15
335.597	1	3
335.768	1	-5
335.939	1	-5
336.110	1	5
336.281	1	-1
336.452	1	-6
336.623	1	-10
336.794	1	-1
336.965	1	-1
337.136	1	15
337.307	1	9
337.478	1	10
337.649	1	-16
337.820	1	-10
337.991	1	-2
338.162	1	-1
338.333	1	16
338.504	1	11
338.675	1	4
338.846	1	-4
339.017	1	16
339.188	1	15
339.359	1	8
339.530	1	-2
339.701	1	-8
339.872	1	2
340.043	1	3
340.214	1	0
340.385	1	6
340.556	1	4
340.727	1	3
340.898	1	8
341.069	1	-10
341.240	1	-1
341.411	1	11
341.582	1	6
341.753	1	1
341.924	1	5
342.095	1	8
342.266	1	-3
342.437	1	-6
342.608	1	2
342.779	1	8
342.950	1	3
343.121	1	6
343.292	1	7
343.463	1	2
343.634	1	13
343.805	1	11
343.976	1	-7
344.147	1	-6
344.318	1	-1
344.489	1	4
344.660	1	-1
344.831	1	9
345.002	1	14
345.173	1	6
345.344	1	0
345.515	1	13
345.686	1	-3
345.857	1	2
346.028	1	-3
346.199	1	4
346.370	1	-5
346.541	1	1
346.712	1	2
346.883	1	9
347.054	1	3
347.225	1	4
347.396	1	-6
347.567	1	2
347.738	1	4
347.909	1	2
348.080	1	5
348.251	1	-3
348.422	1	-10
348.593	1	10
348.764	1	-1
348.935	1	1
349.106	1	17
349.277	1	2
349.448	1	5
349.619	1	2
349.790	1	13
349.961	1	6
350.132	1	10
350.303	1	12
350.474	1	3
350.645	1	15
350.816	1	6
350.987	1	11
351.157	1	4
351.328	1	-8
351.499	1	5
351.670	1	-1
351.841	1	0
352.012	1	4
352.183	1	12
352.354	1	9
352.525	1	15
352.696	1	6
352.867	1	6
353.038	1	-8
353.209	1	-2
353.380	1	-6
353.551	1	0
353.722	1	9
353.893	1	-1
354.064	1	6
354.235	1	15
354.406	1	15
354.576	1	-1
354.747	1	12
354.918	1	9
355.089	1	13
355.260	1	12
355.431	1	13
355.602	1	1
355.773	1	7
355.944	1	11
356.115	1	-4
356.286	1	6
356.457	1	5
356.628	1	2
356.799	1	0
356.970	1	0
357.141	1	9
357.311	1	-2
357.482	1	3
357.653	1	2
357.824	1	11
357.995	1	7
358.166	1	6
358.337	1	-9
358.508	1	7
358.679	1	3
358.850	1	1
359.021	1	8
359.192	1	5
359.363	1	-8
359.533	1	3
359.704	1	12
359.875	1	-3
360.046	1	-1
360.217	1	-6
360.388	1	-5
360.559	1	16
360.730	1	0
360.901	1	-5
361.072	1	4
361.243	1	4
361.414	1	14
361.584	1	23
361.755	1	7
361.926	1	-5
362.097	1	8
362.268	1	7
362.439	1	11
362.610	1	5
362.781	1	17
362.952	1	-4
363.123	1	-11
363.293	1	-11
363.464	1	15
363.635	1	17
363.806	1	7
363.977	1	3
364.148	1	10
364.319	1	-3
364.490	1	7
364.661	1	4
364.832	1	0
365.002	1	2
365.173	1	-2
365.344	1	7
365.515	1	8
365.686	1	3
365.857	1	1
366.028	1	6
366.199	1	10
366.370	1	8
366.540	1	0
366.711	1	1
366.882	1	2
367.053	1	7
367.224	1	3
367.395	1	19
367.566	1	21
367.737	1	14
367.908	1	-4
368.078	1	5
368.249	1	6
368.420	1	3
368.591	1	6
368.762	1	-13
368.933	1	12
369.104	1	2
369.274	1	23
369.445	1	17
369.616	1	-3
369.787	1	2
369.958	1	12
370.129	1	4
370.300	1	-3
370.471	1	8
370.641	1	-6
370.812	1	5
370.983	1	2
371.154	1	16
371.325	1	16
371.496	1	1
371.667	1	11
371.837	1	8
372.008	1	7
372.179	1	5
372.350	1	11
372.521	1	6
372.692	1	8
372.863	1	5
373.033	1	12
373.204	1	11
373.375	1	-1
373.546	1	18
373.717	1	5
373.888	1	6
374.059	1	-5
374.229	1	10
374.400	1	12
374.571	1	12
374.742	1	6
374.913	1	15
375.084	1	12
375.254	1	8
375.425	1	-3
375.596	1	4
375.767	1	1
375.938	1	4
376.109	1	-2
376.279	1	6
376.450	1	10
376.621	1	8
376.792	1	17
376.963	1	-1
377.134	1	-5
377.304	1	6
377.475	1	-2
377.646	1	6
377.817	1	3
377.988	1	6
378.159	1	8
378.329	1	13
378.500	1	2
378.671	1	-5
378.842	1	12
379.013	1	8
379.184	1	21
379.354	1	14
379.525	1	0
379.696	1	23
379.867	1	-1
380.038	1	0
380.209	1	6
380.379	1	5
380.550	1	6
380.721	1	2
380.892	1	16
381.063	1	5
381.233	1	17
381.404	1	10
381.575	1	10
381.746	1	0
381.917	1	1
382.087	1	3
382.258	1	11
382.429	1	7
382.600	1	12
382.771	1	3
382.941	1	13
383.112	1	6
383.283	1	6
383.454	1	3
383.625	1	8
383.795	1	3
383.966	1	8
384.137	1	10
384.308	1	4
384.479	1	4
384.649	1	14
384.820	1	7
384.991	1	-6
385.162	1	17
385.333	1	0
385.503	1	27
385.674	1	10
385.845	1	2
386.016	1	3
386.187	1	6
386.357	1	1
386.528	1	6
386.699	1	-1
386.870	1	8
387.041	1	2
387.211	1	-5
387.382	1	-6
387.553	1	6
387.724	1	3
387.894	1	11
388.065	1	20
388.236	1	17
388.407	1	16
388.578	1	11
388.748	1	2
388.919	1	18
389.090	1	10
389.261	1	14
389.431	1	17
389.602	1	0
389.773	1	5
389.944	1	9
390.114	1	23
390.285	1	6
390.456	1	7
390.627	1	8
390.798	1	8
390.968	1	0
391.139	1	14
391.310	1	13
391.481	1	5
391.651	1	4
391.822	1	3
391.993	1	11
392.164	1	-7
392.334	1	1
392.505	1	4
392.676	1	5
392.847	1	16
393.017	1	12
393.188	1	2
393.359	1	11
393.530	1	12
393.700	1	19
393.871	1	6
394.042	1	14
394.213	1	18
394.383	1	8
394.554	1	9
394.725	1	11
394.896	1	8
395.066	1	14
395.237	1	0
395.408	1	13
395.579	1	12
395.749	1	5
395.920	1	9
396.091	1	10
396.262	1	-1
396.432	1	11
396.603	1	13
396.774	1	14
396.945	1	7
397.115	1	1
397.286	1	14
397.457	1	8
397.627	1	8
397.798	1	13
397.969	1	15
398.140	1	4
398.310	1	14
398.481	1	15
398.652	1	3
398.823	1	6
398.993	1	14
399.164	1	13
399.335	1	2
399.505	1	24
399.676	1	5
399.847	1	7
400.018	1	12
400.188	1	10
400.359	1	13
400.530	1	-3
400.700	1	16
400.871	1	17
401.042	1	7
401.213	1	16
401.383	1	5
401.554	1	17
401.725	1	3
401.895	1	4
402.066	1	12
402.237	1	10
402.408	1	11
402.578	1	17
402.749	1	12
402.920	1	13
403.090	1	5
403.261	1	16
403.432	1	20
403.603	1	-1
403.773	1	14
403.944	1	27
404.115	1	0
404.285	1	25
404.456	1	17
404.627	1	5
404.797	1	3
404.968	1	8
405.139	1	6
405.310	1	8
405.480	1	8
405.651	1	11
405.822	1	12
405.992	1	21
406.163	1	13
406.334	1	19
406.504	1	1
406.675	1	3
406.846	1	7
407.016	1	12
407.187	1	16
407.358	1	8
407.528	1	16
407.699	1	0
407.870	1	20
408.041	1	-2
408.211	1	3
408.382	1	10
408.553	1	-1
408.723	1	10
408.894	1	17
409.065	1	20
409.235	1	5
409.406	1	-2
409.577	1	9
409.747	1	16
409.918	1	8
410.089	1	-4
410.259	1	1
410.430	1	11
410.601	1	9
410.771	1	9
410.942	1	-2
411.113	1	21
411.283	1	19
411.454	1	13
411.625	1	11
411.795	1	-2
411.966	1	1
412.137	1	9
412.307	1	2
412.478	1	11
412.649	1	4
412.819	1	2
412.990	1	14
413.161	1	11
413.331	1	20
413.502	1	-4
413.672	1	4
413.843	1	8
414.014	1	22
414.184	1	10
414.355	1	5
414.526	1	13
414.696	1	14
414.867	1	8
415.038	1	5
415.208	1	0
415.379	1	14
415.550	1	14
415.720	1	3
415.891	1	14
416.062	1	19
416.232	1	18
416.403	1	12
416.573	1	12
416.744	1	4
416.915	1	6
417.085	1	2
417.256	1	13
417.427	1	11
417.597	1	7
417.768	1	13
417.939	1	21
418.109	1	-11
418.280	1	13
418.450	1	26
418.621	1	15
418.792	1	6
418.962	1	11
419.133	1	21
419.304	1	-1
419.474	1	1
419.645	1	4
419.815	1	3
419.986	1	4
420.157	1	26
420.327	1	-4
420.498	1	14
420.669	1	25
420.839	1	11
421.010	1	19
421.180	1	2
421.351	1	13
421.522	1	11
421.692	1	19
421.863	1	17
422.033	1	22
422.204	1	13
422.375	1	10
422.545	1	14
422.716	1	5
422.886	1	11
423.057	1	10
423.228	1	11
423.398	1	9
423.569	1	12
423.740	1	0
423.910	1	15
424.081	1	15
424.251	1	7
424.422	1	7
424.593	1	7
424.763	1	16
424.934	1	16
425.104	1	15
425.275	1	18
425.445	1	22
425.616	1	11
425.787	1	18
425.957	1	-1
426.128	1	18
426.298	1	6
426.469	1	1
426.640	1	14
426.810	1	7
426.981	1	13
427.151	1	-3
427.322	1	5
427.493	1	3
427.663	1	16
427.834	1	4
428.004	1	10
428.175	1	3
428.345	1	13
428.516	1	10
428.687	1	15
428.857	1	8
429.028	1	9
429.198	1	10
429.369	1	12
429.540	1	1
429.710	1	10
429.881	1	20
430.051	1	6
430.222	1	5
430.392	1	7
430.563	1	10
430.734	1	19
430.904	1	5
431.075	1	2
431.245	1	22
431.416	1	4
431.586	1	10
431.757	1	17
431.927	1	6
432.098	1	7
432.269	1	18
432.439	1	13
432.610	1	15
432.780	1	6
432.951	1	3
433.121	1	20
433.292	1	8
433.462	1	15
433.633	1	24
433.804	1	9
433.974	1	10
434.145	1	11
434.315	1	13
434.486	1	10
434.656	1	-1
434.827	1	11
434.997	1	15
435.168	1	11
435.339	1	4
435.509	1	10
435.680	1	10
435.850	1	8
436.021	1	17
436.191	1	19
436.362	1	12
436.532	1	9
436.703	1	18
436.873	1	14
437.044	1	10
437.214	1	15
437.385	1	11
437.556	1	15
437.726	1	11
437.897	1	4
438.067	1	7
438.238	1	13
438.408	1	18
438.579	1	15
438.749	1	1
438.920	1	0
439.090	1	6
439.261	1	11
439.431	1	16
439.602	1	8
439.772	1	13
439.943	1	13
440.113	1	16
440.284	1	5
440.455	1	17
440.625	1	8
440.796	1	2
440.966	1	8
441.137	1	5
441.307	1	8
441.478	1	5
441.648	1	12
441.819	1	13
441.989	1	4
442.160	1	13
442.330	1	23
442.501	1	-1
442.671	1	4
442.842	1	10
443.012	1	3
443.183	1	8
443.353	1	19
443.524	1	8
443.694	1	17
443.865	1	11
444.035	1	6
444.206	1	6
444.376	1	11
444.547	1	4
444.717	1	22
444.888	1	11
445.058	1	11
445.229	1	15
445.399	1	1
445.570	1	0
445.740	1	15
445.911	1	13
446.081	1	18
446.252	1	1
446.422	1	8
446.593	1	6
446.763	1	16
446.934	1	20
447.104	1	8
447.275	1	18
447.445	1	7
447.616	1	6
447.786	1	9
447.957	1	2
448.127	1	24
448.298	1	5
448.468	1	14
448.639	1	11
448.809	1	8
448.979	1	11
449.150	1	14
449.320	1	15
449.491	1	20
449.661	1	12
449.832	1	21
450.002	1	8
450.173	1	13
450.343	1	14
450.514	1	9
450.684	1	0
450.855	1	5
451.025	1	5
451.196	1	16
451.366	1	-2
451.537	1	12
451.707	1	13
451.878	1	3
452.048	1	5
452.218	1	2
452.389	1	8
452.559	1	0
452.730	1	12
452.900	1	15
453.071	1	5
453.241	1	9
453.412	1	0
453.582	1	4
453.753	1	14
453.923	1	17
454.093	1	19
454.264	1	-2
454.434	1	2
454.605	1	10
454.775	1	0
454.946	1	5
455.116	1	5
455.287	1	8
455.457	1	10
455.628	1	8
455.798	1	6
455.968	1	8
456.139	1	7
456.309	1	16
456.480	1	4
456.650	1	10
456.821	1	20
456.991	1	10
457.161	1	17
457.332	1	12
457.502	1	19
457.673	1	14
457.843	1	8
458.014	1	4
458.184	1	4
458.355	1	9
458.525	1	8
458.695	1	6
458.866	1	25
459.036	1	3
459.207	1	11
459.377	1	16
459.548	1	3
459.718	1	2
459.888	1	14
460.059	1	11
460.229	1	13
460.400	1	6
460.570	1	13
460.740	1	6
460.911	1	6
461.081	1	14
461.252	1	6
461.422	1	15
461.593	1	8
461.763	1	8
461.933	1	14
462.104	1	4
462.274	1	2
462.445	1	1
462.615	1	11
462.785	1	13
462.956	1	9
463.126	1	7
463.297	1	12
463.467	1	26
463.638	1	7
463.808	1	8
463.978	1	4
464.149	1	-1
464.319	1	16
464.490	1	10
464.660	1	17
464.830	1	20
465.001	1	13
465.171	1	12
465.342	1	3
465.512	1	6
465.682	1	8
465.853	1	-8
466.023	1	6
466.194	1	8
466.364	1	27
466.534	1	7
466.705	1	5
466.875	1	13
467.045	1	0
467.216	1	18
467.386	1	18
467.557	1	10
467.727	1	14
467.897	1	1
468.068	1	2
468.238	1	13
468.409	1	2
468.579	1	17
468.749	1	3
468.920	1	7
469.090	1	18
469.260	1	10
469.431	1	7
469.601	1	4
469.772	1	-10
469.942	1	17
470.112	1	13
470.283	1	21
470.453	1	23
470.623	1	0
470.794	1	11
470.964	1	9
471.135	1	11
471.305	1	2
471.475	1	9
471.646	1	14
471.816	1	8
471.986	1	15
472.157	1	18
472.327	1	13
472.497	1	16
472.668	1	2
472.838	1	10
473.009	1	17
473.179	1	8
473.349	1	19
473.520	1	5
473.690	1	13
473.860	1	16
474.031	1	9
474.201	1	13
474.371	1	2
474.542	1	22
474.712	1	4
474.882	1	9
475.053	1	11
475.223	1	-5
475.394	1	2
475.564	1	4
475.734	1	2
475.905	1	8
476.075	1	9
476.245	1	9
476.416	1	9
476.586	1	9
476.756	1	5
476.927	1	4
477.097	1	0
477.267	1	11
477.438	1	22
477.608	1	16
477.778	1	6
477.949	1	7
478.119	1	10
478.289	1	7
478.460	1	4
478.630	1	19
478.800	1	10
478.971	1	7
479.141	1	2
479.311	1	14
479.482	1	-1
479.652	1	13
479.822	1	10
479.993	1	7
480.163	1	15
480.333	1	10
480.504	1	9
480.674	1	4
480.844	1	11
481.015	1	7
481.185	1	4
481.355	1	12
481.525	1	4
481.696	1	9
481.866	1	14
482.036	1	10
482.207	1	9
482.377	1	10
482.547	1	-4
482.718	1	-3
482.888	1	10
483.058	1	5
483.229	1	7
483.399	1	10
483.569	1	-2
483.740	1	7
483.910	1	1
484.080	1	3
484.250	1	3
484.421	1	5
484.591	1	7
484.761	1	9
484.932	1	13
485.102	1	9
485.272	1	4
485.443	1	10
485.613	1	18
485.783	1	15
485.953	1	3
486.124	1	7
486.294	1	3
486.464	1	-1
486.635	1	8
486.805	1	5
486.975	1	11
487.146	1	13
487.316	1	-2
487.486	1	6
487.656	1	5
487.827	1	3
487.997	1	10
488.167	1	3
488.338	1	9
488.508	1	8
488.678	1	15
488.848	1	4
489.019	1	11
489.189	1	0
489.359	1	2
489.529	1	6
489.700	1	11
489.870	1	5
490.040	1	-1
490.211	1	12
490.381	1	4
490.551	1	8
490.721	1	8
490.892	1	3
491.062	1	-4
491.232	1	8
491.402	1	5
491.573	1	5
491.743	1	8
491.913	1	-1
492.084	1	11
492.254	1	4
492.424	1	11
492.594	1	15
492.765	1	5
492.935	1	2
493.105	1	13
493.275	1	1
493.446	1	6
493.616	1	7
493.786	1	-1
493.956	1	4
494.127	1	17
494.297	1	2
494.467	1	7
494.637	1	10
494.808	1	13
494.978	1	4
495.148	1	6
495.318	1	8
495.489	1	-3
495.659	1	8
495.829	1	4
495.999	1	9
496.170	1	0
496.340	1	9
496.510	1	12
496.680	1	3
496.851	1	7
497.021	1	-4
497.191	1	-5
497.361	1	0
497.532	1	4
497.702	1	11
497.872	1	12
498.042	1	10
498.213	1	1
498.383	1	13
498.553	1	8
498.723	1	2
498.894	1	-2
499.064	1	4
499.234	1	5
499.404	1	4
499.574	1	0
499.745	1	3
499.915	1	3
500.085	1	8
500.255	1	0
500.426	1	12
500.596	1	-2
500.766	1	-1
500.936	1	7
501.106	1	0
501.277	1	3
501.447	1	12
501.617	1	-1
501.787	1	12
501.958	1	-2
502.128	1	1
502.298	1	2
502.468	1	9
502.638	1	4
502.809	1	2
502.979	1	8
503.149	1	-3
503.319	1	11
503.489	1	-10
503.660	1	-10
503.830	1	6
504.000	1	7
504.170	1	8
504.340	1	10
504.511	1	11
504.681	1	-1
504.851	1	-5
505.021	1	16
505.192	1	-1
505.362	1	7
505.532	1	0
505.702	1	-3
505.872	1	6
506.043	1	5
506.213	1	15
506.383	1	5
506.553	1	12
506.723	1	3
506.893	1	0
507.064	1	-3
507.234	1	3
507.404	1	14
507.574	1	-1
507.744	1	8
507.915	1	19
508.085	1	5
508.255	1	4
508.425	1	0
508.595	1	1
508.766	1	-7
508.936	1	8
509.106	1	11
509.276	1	4
509.446	1	10
509.616	1	11
509.787	1	12
509.957	1	4
510.127	1	-1
510.297	1	4
510.467	1	-1
510.638	1	13
510.808	1	2
510.978	1	2
511.148	1	22
511.318	1	3
511.488	1	8
511.659	1	-2
511.829	1	9
511.999	1	9
512.169	1	-2
512.339	1	5
512.509	1	4
512.680	1	4
512.850	1	8
513.020	1	0
513.190	1	-6
513.360	1	-3
513.530	1	3
513.700	1	12
513.871	1	1
514.041	1	2
514.211	1	8
514.381	1	10
514.551	1	4
514.721	1	10
514.892	1	2
515.062	1	8
515.232	1	1
515.402	1	9
515.572	1	-5
515.742	1	5
515.912	1	2
516.083	1	7
516.253	1	14
516.423	1	0
516.593	1	9
516.763	1	1
516.933	1	-1
517.104	1	-3
517.274	1	-2
517.444	1	-2
517.614	1	1
517.784	1	12
517.954	1	16
518.124	1	-7
518.294	1	2
518.465	1	9
518.635	1	13
518.805	1	11
518.975	1	-3
519.145	1	12
519.315	1	-3
519.485	1	-1
519.656	1	8
519.826	1	6
519.996	1	-3
520.166	1	12
520.336	1	2
520.506	1	-4
520.676	1	1
520.846	1	0
521.017	1	-4
521.187	1	12
521.357	1	-6
521.527	1	2
521.697	1	4
521.867	1	-1
522.037	1	2
522.207	1	4
522.377	1	14
522.548	1	5
522.718	1	10
522.888	1	14
523.058	1	6
523.228	1	0
523.398	1	9
523.568	1	2
523.738	1	8
523.909	1	-1
524.079	1	7
524.249	1	4
524.419	1	-1
524.589	1	-3
524.759	1	12
524.929	1	-1
525.099	1	-3
525.269	1	6
525.439	1	5
525.610	1	0
525.780	1	10
525.950	1	3
526.120	1	-4
526.290	1	-7
526.460	1	-3
526.630	1	8
526.800	1	2
526.970	1	9
527.140	1	4
527.311	1	7
527.481	1	5
527.651	1	1
527.821	1	1
527.991	1	1
528.161	1	-1
528.331	1	8
528.501	1	7
528.671	1	-6
528.841	1	2
529.011	1	0
529.181	1	-1
529.352	1	4
529.522	1	1
529.692	1	2
529.862	1	5
530.032	1	5
530.202	1	2
530.372	1	9
530.542	1	-3
530.712	1	10
530.882	1	2
531.052	1	11
531.222	1	-7
531.392	1	11
531.563	1	2
531.733	1	10
531.903	1	9
532.073	1	7
532.243	1	-5
532.413	1	8
532.583	1	-6
532.753	1	-1
532.923	1	9
533.093	1	18
533.263	1	-11
533.433	1	11
533.603	1	3
533.773	1	0
533.943	1	6
534.113	1	3
534.284	1	5
534.454	1	2
534.624	1	11
534.794	1	-12
534.964	1	1
535.134	1	8
535.304	1	9
535.474	1	-7
535.644	1	14
535.814	1	2
535.984	1	14
536.154	1	3
536.324	1	15
536.494	1	8
536.664	1	9
536.834	1	7
537.004	1	5
537.174	1	7
537.344	1	11
537.514	1	1
537.685	1	1
537.855	1	-5
538.025	1	2
538.195	1	1
538.365	1	-8
538.535	1	1
538.705	1	15
538.875	1	-3
539.045	1	9
539.215	1	-7
539.385	1	-4
539.555	1	-1
539.725	1	-3
539.895	1	4
540.065	1	9
540.235	1	8
540.405	1	8
540.575	1	-2
540.745	1	1
540.915	1	1
541.085	1	-11
541.255	1	-7
541.425	1	3
541.595	1	10
541.765	1	21
541.935	1	3
542.105	1	4
542.275	1	5
542.445	1	-5
542.615	1	1
542.785	1	1
542.955	1	6
543.125	1	-12
543.295	1	-5
543.465	1	5
543.635	1	5
543.805	1	8
543.975	1	-1
544.145	1	-6
544.315	1	-12
544.485	1	7
544.655	1	6
544.825	1	4
544.995	1	12
545.165	1	7
545.335	1	2
545.505	1	3
545.675	1	-11
545.845	1	9
546.015	1	6
546.185	1	9
546.355	1	1
546.525	1	1
546.695	1	-1
546.865	1	6
547.035	1	3
547.205	1	3
547.375	1	8
547.545	1	16
547.715	1	10
547.885	1	12
548.055	1	-8
548.225	1	-4
548.395	1	-2
548.565	1	2
548.735	1	3
548.905	1	-5
549.075	1	13
549.245	1	3
549.415	1	4
549.585	1	14
549.755	1	5
549.925	1	2
550.095	1	-3
550.265	1	12
550.435	1	-7
550.605	1	7
550.775	1	-3
550.945	1	6
551.115	1	-6
551.285	1	-1
551.455	1	8
551.625	1	-8
551.795	1	0
551.965	1	0
552.135	1	1
552.305	1	-10
552.475	1	-9
552.645	1	1
552.815	1	0
552.985	1	3
553.155	1	-1
553.325	1	7
553.495	1	1
553.665	1	1
553.835	1	-1
554.004	1	-3
554.174	1	-1
554.344	1	6
554.514	1	0
554.684	1	-4
554.854	1	0
555.024	1	6
555.194	1	4
555.364	1	8
555.534	1	0
555.704	1	11
555.874	1	-2
556.044	1	5
556.214	1	12
556.384	1	6
556.554	1	3
556.724	1	2
556.894	1	-7
557.064	1	1
557.234	1	-4
557.404	1	-3
557.573	1	-8
557.743	1	-3
557.913	1	-1
558.083	1	16
558.253	1	-11
558.423	1	-8
558.593	1	6
558.763	1	4
558.933	1	-1
559.103	1	8
559.273	1	1
559.443	1	4
559.613	1	0
559.783	1	-1
559.953	1	14
560.122	1	1
560.292	1	-1
560.462	1	-5
560.632	1	7
560.802	1	3
560.972	1	10
561.142	1	7
561.312	1	-2
561.482	1	14
561.652	1	6
561.822	1	-9
561.992	1	-19
562.162	1	2
562.331	1	5
562.501	1	-10
562.671	1	6
562.841	1	-6
563.011	1	-1
563.181	1	19
563.351	1	-1
563.521	1	7
563.691	1	6
563.861	1	-8
564.031	1	3
564.201	1	-3
564.370	1	-5
564.540	1	-2
564.710	1	5
564.880	1	-2
565.050	1	11
565.220	1	0
565.390	1	3
565.560	1	2
565.730	1	11
565.900	1	-4
566.069	1	-2
566.239	1	4
566.409	1	-2
566.579	1	4
566.749	1	3
566.919	1	-3
567.089	1	3
567.259	1	8
567.429	1	-4
567.599	1	-1
567.768	1	5
567.938	1	-6
568.108	1	8
568.278	1	-4
568.448	1	4
568.618	1	1
568.788	1	-6
568.958	1	-5
569.128	1	-13
569.297	1	0
569.467	1	5
569.637	1	8
569.807	1	2
569.977	1	10
570.147	1	1
570.317	1	6
570.487	1	17
570.656	1	5
570.826	1	-7
570.996	1	-2
571.166	1	1
571.336	1	-10
571.506	1	-9
571.676	1	-6
571.846	1	-1
572.015	1	6
572.185	1	9
572.355	1	-5
572.525	1	-3
572.695	1	5
572.865	1	7
573.035	1	-5
573.205	1	-8
573.374	1	10
573.544	1	-2
573.714	1	10
573.884	1	14
574.054	1	3
574.224	1	-4
574.394	1	-13
574.563	1	13
574.733	1	1
574.903	1	0
575.073	1	-7
575.243	1	-1
575.413	1	1
575.583	1	1
575.752	1	9
575.922	1	-1
576.092	1	0
576.262	1	-2
576.432	1	6
576.602	1	-6
576.772	1	-11
576.941	1	10
577.111	1	6
577.281	1	11
577.451	1	-6
577.621	1	5
577.791	1	-5
577.960	1	1
578.130	1	7
578.300	1	-1
578.470	1	-5
578.640	1	-6
578.810	1	8
578.979	1	-5
579.149	1	-7
579.319	1	1
579.489	1	3
579.659	1	3
579.829	1	1
579.998	1	-9
580.168	1	-1
580.338	1	2
580.508	1	0
580.678	1	2
580.848	1	6
581.017	1	-3
581.187	1	6
581.357	1	-5
581.527	1	-4
581.697	1	-13
581.867	1	6
582.036	1	5
582.206	1	-6
582.376	1	9
582.546	1	15
582.716	1	2
582.885	1	6
583.055	1	2
583.225	1	5
583.395	1	2
583.565	1	-2
583.735	1	-14
583.904	1	5
584.074	1	4
584.244	1	8
584.414	1	-6
584.584	1	6
584.753	1	13
584.923	1	1
585.093	1	-1
585.263	1	-3
585.433	1	5
585.602	1	9
585.772	1	3
585.942	1	4
586.112	1	-1
586.282	1	5
586.451	1	1
586.621	1	-3
586.791	1	-1
586.961	1	8
587.131	1	8
587.300	1	11
587.470	1	6
587.640	1	1
587.810	1	-8
587.980	1	-8
588.149	1	5
588.319	1	1
588.489	1	0
588.659	1	10
588.829	1	-6
588.998	1	2
589.168	1	-2
589.338	1	-3
589.508	1	6
589.677	1	-4
589.847	1	5
590.017	1	5
590.187	1	9
590.357	1	0
590.526	1	13
590.696	1	-3
590.866	1	1
591.036	1	-6
591.205	1	6
591.375	1	4
591.545	1	9
591.715	1	-3
591.885	1	-10
592.054	1	-1
592.224	1	3
592.394	1	-9
592.564	1	-2
592.733	1	1
592.903	1	4
593.073	1	-8
593.243	1	6
593.412	1	3
593.582	1	6
593.752	1	2
593.922	1	18
594.091	1	-9
594.261	1	-1
594.431	1	-2
594.601	1	-1
594.771	1	11
594.940	1	5
595.110	1	-3
595.280	1	9
595.450	1	0
595.619	1	4
595.789	1	7
595.959	1	6
596.129	1	1
596.298	1	6
596.468	1	-1
596.638	1	6
596.808	1	-7
596.977	1	12
597.147	1	1
597.317	1	5
597.487	1	-5
597.656	1	9
597.826	1	-7
597.996	1	3
598.166	1	18
598.335	1	-9
598.505	1	-4
598.675	1	0
598.844	1	-3
599.014	1	-2
599.184	1	2
599.354	1	-5
599.523	1	16
599.693	1	7
599.863	1	3
600.033	1	4
600.202	1	9
600.372	1	7
600.542	1	1
600.712	1	9
600.881	1	5
601.051	1	5
601.221	1	10
601.390	1	11
601.560	1	4
601.730	1	6
601.900	1	10
602.069	1	-8
602.239	1	1
602.409	1	11
602.578	1	17
602.748	1	1
602.918	1	0
603.088	1	10
603.257	1	9
603.427	1	2
603.597	1	0
603.767	1	7
603.936	1	4
604.106	1	6
604.276	1	10
604.445	1	-9
604.615	1	-6
604.785	1	4
604.954	1	2
605.124	1	2
605.294	1	-1
605.464	1	-5
605.633	1	8
605.803	1	2
605.973	1	5
606.142	1	2
606.312	1	10
606.482	1	-1
606.652	1	17
606.821	1	-4
606.991	1	-1
607.161	1	7
607.330	1	9
607.500	1	14
607.670	1	0
607.839	1	-2
608.009	1	1
608.179	1	-2
608.348	1	-1
608.518	1	0
608.688	1	-3
608.858	1	-1
609.027	1	0
609.197	1	-1
609.367	1	3
609.536	1	10
609.706	1	2
609.876	1	-1
610.045	1	4
610.215	1	1
610.385	1	0
610.554	1	-3
610.724	1	0
610.894	1	2
611.063	1	8
611.233	1	-4
611.403	1	3
611.572	1	0
611.742	1	-5
611.912	1	2
612.081	1	5
612.251	1	6
612.421	1	-1
612.590	1	-4
612.760	1	11
612.930	1	-4
613.099	1	-4
613.269	1	5
613.439	1	-4
613.608	1	-2
613.778	1	-7
613.948	1	8
614.117	1	-5
614.287	1	7
614.457	1	1
614.626	1	11
614.796	1	-1
614.966	1	5
615.135	1	12
615.305	1	13
615.475	1	1
615.644	1	5
615.814	1	3
615.984	1	-10
616.153	1	2
616.323	1	-8
616.493	1	5
616.662	1	-2
616.832	1	8
617.002	1	5
617.171	1	3
617.341	1	1
617.511	1	-5
617.680	1	1
617.850	1	-4
618.019	1	-1
618.189	1	1
618.359	1	-6
618.528	1	-11
618.698	1	10
618.868	1	-6
619.037	1	4
619.207	1	3
619.377	1	12
619.546	1	-1
619.716	1	-1
619.885	1	-11
620.055	1	17
620.225	1	6
620.394	1	3
620.564	1	-7
620.734	1	6
620.903	1	6
621.073	1	8
621.242	1	-1
621.412	1	14
621.582	1	1
621.751	1	1
621.921	1	6
622.091	1	-5
622.260	1	4
622.430	1	10
622.599	1	6
622.769	1	1
622.939	1	5
623.108	1	3
623.278	1	21
623.448	1	5
623.617	1	3
623.787	1	10
623.956	1	7
624.126	1	-2
624.296	1	7
624.465	1	0
624.635	1	8
624.804	1	-1
624.974	1	5
625.144	1	12
625.313	1	5
625.483	1	0
625.652	1	10
625.822	1	10
625.992	1	9
626.161	1	3
626.331	1	2
626.501	1	2
626.670	1	1
626.840	1	5
627.009	1	-1
627.179	1	-11
627.348	1	8
627.518	1	3
627.688	1	1
627.857	1	-2
628.027	1	-8
628.196	1	-1
628.366	1	4
628.536	1	1
628.705	1	-5
628.875	1	12
629.044	1	8
629.214	1	1
629.384	1	-5
629.553	1	4
629.723	1	-5
629.892	1	-6
630.062	1	-7
630.232	1	9
630.401	1	1
630.571	1	3
630.740	1	2
630.910	1	1
631.079	1	7
631.249	1	9
631.419	1	9
631.588	1	6
631.758	1	3
631.927	1	11
632.097	1	9
632.266	1	-4
632.436	1	5
632.606	1	-6
632.775	1	12
632.945	1	-6
633.114	1	4
633.284	1	-6
633.453	1	10
633.623	1	12
633.793	1	-12
633.962	1	2
634.132	1	3
634.301	1	-2
634.471	1	-3
634.640	1	8
634.810	1	-1
634.979	1	6
635.149	1	6
635.319	1	4
635.488	1	-2
635.658	1	11
635.827	1	4
635.997	1	2
636.166	1	-4
636.336	1	-2
636.505	1	11
636.675	1	7
636.845	1	-2
637.014	1	6
637.184	1	6
637.353	1	1
637.523	1	9
637.692	1	4
637.862	1	0
638.031	1	-9
638.201	1	2
638.370	1	14
638.540	1	13
638.710	1	10
638.879	1	13
639.049	1	-8
639.218	1	14
639.388	1	7
639.557	1	-5
639.727	1	8
639.896	1	1
640.066	1	11
640.235	1	-1
640.405	1	1
640.574	1	9
640.744	1	1
640.914	1	7
641.083	1	-2
641.253	1	0
641.422	1	7
641.592	1	1
641.761	1	1
641.931	1	-2
642.100	1	8
642.270	1	5
642.439	1	-2
642.609	1	10
642.778	1	7
642.948	1	7
643.117	1	10
643.287	1	-6
643.456	1	10
643.626	1	1
643.795	1	5
643.965	1	4
644.134	1	4
644.304	1	6
644.473	1	3
644.643	1	-7
644.812	1	3
644.982	1	6
645.151	1	1
645.321	1	7
645.490	1	15
645.660	1	2
645.829	1	0
645.999	1	0
646.168	1	-1
646.338	1	3
646.507	1	1
646.677	1	2
646.846	1	-2
647.016	1	1
647.185	1	0
647.355	1	5
647.524	1	-6
647.694	1	-7
647.863	1	6
648.033	1	3
648.202	1	-4
648.372	1	-1
648.541	1	6
648.711	1	-3
648.880	1	2
649.050	1	-2
649.219	1	9
649.389	1	-2
649.558	1	3
649.728	1	5
649.897	1	-3
650.067	1	11
650.236	1	-5
650.406	1	7
650.575	1	5
650.745	1	8
650.914	1	2
651.084	1	9
651.253	1	3
651.423	1	14
651.592	1	-6
651.762	1	10
651.931	1	9
652.101	1	6
652.270	1	-1
652.440	1	4
652.609	1	4
652.778	1	-1
652.948	1	10
653.117	1	3
653.287	1	3
653.456	1	0
653.626	1	11
653.795	1	-1
653.965	1	-1
654.134	1	-5
654.304	1	9
654.473	1	-1
654.643	1	6
654.812	1	11
654.982	1	-2
655.151	1	13
655.320	1	12
655.490	1	-6
655.659	1	3
655.829	1	4
655.998	1	-4
656.168	1	-1
656.337	1	-2
656.507	1	-3
656.676	1	-1
656.846	1	3
657.015	1	-2
657.184	1	8
657.354	1	7
657.523	1	-6
657.693	1	-9
657.862	1	-7
658.032	1	11
658.201	1	3
658.371	1	-6
658.540	1	-3
658.709	1	-2
658.879	1	9
659.048	1	4
659.218	1	-5
659.387	1	3
659.557	1	5
659.726	1	2
659.895	1	7
660.065	1	7
660.234	1	-5
660.404	1	-2
660.573	1	5
660.743	1	-8
660.912	1	-6
661.081	1	-5
661.251	1	9
661.420	1	0
661.590	1	5
661.759	1	-5
661.929	1	0
662.098	1	7
662.267	1	10
662.437	1	8
662.606	1	-3
662.776	1	8
662.945	1	4
663.115	1	1
663.284	1	-3
663.453	1	11
663.623	1	4
663.792	1	5
663.962	1	-2
664.131	1	0
664.300	1	-13
664.470	1	5
664.639	1	8
664.809	1	5
664.978	1	-3
665.148	1	-11
665.317	1	-1
665.486	1	1
665.656	1	5
665.825	1	9
665.995	1	3
666.164	1	17
666.333	1	0
666.503	1	1
666.672	1	9
666.842	1	1
667.011	1	-7
667.180	1	3
667.350	1	-3
667.519	1	-1
667.689	1	0
667.858	1	-2
668.027	1	0
668.197	1	10
668.366	1	-10
668.536	1	-2
668.705	1	-2
668.874	1	5
669.044	1	4
669.213	1	11
669.382	1	9
669.552	1	12
669.721	1	7
669.891	1	-2
670.060	1	1
670.229	1	-1
670.399	1	2
670.568	1	-4
670.738	1	1
670.907	1	-1
671.076	1	6
671.246	1	-8
671.415	1	2
671.584	1	2
671.754	1	-14
671.923	1	1
672.093	1	-2
672.262	1	-7
672.431	1	3
672.601	1	14
672.770	1	10
672.939	1	-6
673.109	1	8
673.278	1	-6
673.448	1	1
673.617	1	10
673.786	1	-2
