325.333	1	6
325.504	1	5
325.675	1	7
325.846	1	5
326.017	1	0
326.188	1	14
326.359	1	13
326.531	1	12
326.702	1	4
326.873	1	-5
327.044	1	9
327.215	1	-3
327.386	1	10
327.557	1	5
327.728	1	6
327.899	1	5
328.070	1	8
328.241	1	6
328.412	1	-6
328.583	1	14
328.754	1	-1
328.926	1	15
329.097	1	4
329.268	1	-4
329.439	1	-1
329.610	1	9
329.781	1	4
329.952	1	5
330.123	1	0
330.294	1	8
330.465	1	8
330.636	1	15
330.807	1	-4
330.978	1	7
331.149	1	5
331.320	1	9
331.492	1	-5
331.663	1	-2
331.834	1	-1
332.005	1	1
332.176	1	19
332.347	1	7
332.518	1	22
332.689	1	4
332.860	1	8
333.031	1	14
333.202	1	11
333.373	1	6
333.544	1	1
333.715	1	5
333.886	1	2
334.057	1	4
334.228	1	12
334.399	1	10
334.570	1	-1
334.741	1	11
334.912	1	0
335.084	1	3
335.255	1	13
335.426	1	6
335.597	1	5
335.768	1	0
335.939	1	6
336.110	1	6
336.281	1	7
336.452	1	-3
336.623	1	2
336.794	1	-2
336.965	1	0
337.136	1	2
337.307	1	13
337.478	1	1
337.649	1	-5
337.820	1	-5
337.991	1	12
338.162	1	5
338.333	1	10
338.504	1	14
338.675	1	5
338.846	1	3
339.017	1	19
339.188	1	19
339.359	1	10
339.530	1	7
339.701	1	0
339.872	1	17
340.043	1	4
340.214	1	0
340.385	1	5
340.556	1	0
340.727	1	5
340.898	1	15
341.069	1	3
341.240	1	5
341.411	1	9
341.582	1	5
341.753	1	-6
341.924	1	9
342.095	1	6
342.266	1	7
342.437	1	-9
342.608	1	0
342.779	1	8
342.950	1	2
343.121	1	9
343.292	1	10
343.463	1	10
343.634	1	11
343.805	1	9
343.976	1	-3
344.147	1	5
344.318	1	6
344.489	1	19
344.660	1	14
344.831	1	7
345.002	1	18
345.173	1	7
345.344	1	-2
345.515	1	-2
345.686	1	-4
345.857	1	5
346.028	1	-5
346.199	1	8
346.370	1	5
346.541	1	3
346.712	1	5
346.883	1	20
347.054	1	3
347.225	1	2
347.396	1	1
347.567	1	7
347.738	1	9
347.909	1	8
348.080	1	12
348.251	1	0
348.422	1	-3
348.593	1	7
348.764	1	0
348.935	1	1
349.106	1	15
349.277	1	12
349.448	1	3
349.619	1	8
349.790	1	6
349.961	1	16
350.132	1	19
350.303	1	9
350.474	1	8
350.645	1	18
350.816	1	7
350.987	1	12
351.157	1	7
351.328	1	4
351.499	1	16
351.670	1	-2
351.841	1	7
352.012	1	11
352.183	1	10
352.354	1	10
352.525	1	3
352.696	1	9
352.867	1	12
353.038	1	7
353.209	1	3
353.380	1	6
353.551	1	-7
353.722	1	10
353.893	1	13
354.064	1	13
354.235	1	12
354.406	1	1
354.576	1	7
354.747	1	16
354.918	1	19
355.089	1	2
355.260	1	11
355.431	1	8
355.602	1	5
355.773	1	9
355.944	1	9
356.115	1	-1
356.286	1	14
356.457	1	3
356.628	1	6
356.799	1	13
356.970	1	9
357.141	1	13
357.311	1	7
357.482	1	7
357.653	1	1
357.824	1	16
357.995	1	9
358.166	1	10
358.337	1	1
358.508	1	-6
358.679	1	7
358.850	1	3
359.021	1	13
359.192	1	2
359.363	1	-5
359.533	1	3
359.704	1	10
359.875	1	7
360.046	1	3
360.217	1	1
360.388	1	1
360.559	1	10
360.730	1	6
360.901	1	3
361.072	1	4
361.243	1	5
361.414	1	5
361.584	1	22
361.755	1	12
361.926	1	1
362.097	1	2
362.268	1	10
362.439	1	16
362.610	1	2
362.781	1	16
362.952	1	14
363.123	1	2
363.293	1	8
363.464	1	11
363.635	1	15
363.806	1	6
363.977	1	14
364.148	1	22
364.319	1	4
364.490	1	12
364.661	1	7
364.832	1	8
365.002	1	-3
365.173	1	-4
365.344	1	11
365.515	1	9
365.686	1	10
365.857	1	11
366.028	1	13
366.199	1	6
366.370	1	3
366.540	1	9
366.711	1	13
366.882	1	-3
367.053	1	6
367.224	1	8
367.395	1	17
367.566	1	5
367.737	1	8
367.908	1	5
368.078	1	10
368.249	1	6
368.420	1	3
368.591	1	10
368.762	1	-9
368.933	1	14
369.104	1	6
369.274	1	23
369.445	1	12
369.616	1	2
369.787	1	1
369.958	1	18
370.129	1	11
370.300	1	2
370.471	1	12
370.641	1	7
370.812	1	19
370.983	1	12
371.154	1	18
371.325	1	8
371.496	1	5
371.667	1	27
371.837	1	7
372.008	1	19
372.179	1	15
372.350	1	12
372.521	1	5
372.692	1	10
372.863	1	6
373.033	1	24
373.204	1	9
373.375	1	6
373.546	1	18
373.717	1	6
373.888	1	11
374.059	1	5
374.229	1	12
374.400	1	9
374.571	1	14
374.742	1	11
374.913	1	12
375.084	1	15
375.254	1	12
375.425	1	12
375.596	1	7
375.767	1	2
375.938	1	4
376.109	1	2
376.279	1	16
376.450	1	9
376.621	1	10
376.792	1	28
376.963	1	6
377.134	1	14
377.304	1	9
377.475	1	9
377.646	1	0
377.817	1	6
377.988	1	-2
378.159	1	17
378.329	1	13
378.500	1	4
378.671	1	2
378.842	1	6
379.013	1	5
379.184	1	5
379.354	1	10
379.525	1	7
379.696	1	26
379.867	1	-4
380.038	1	15
380.209	1	7
380.379	1	6
380.550	1	4
380.721	1	20
380.892	1	13
381.063	1	7
381.233	1	14
381.404	1	14
381.575	1	17
381.746	1	11
381.917	1	13
382.087	1	2
382.258	1	14
382.429	1	11
382.600	1	17
382.771	1	13
382.941	1	13
383.112	1	6
383.283	1	14
383.454	1	15
383.625	1	14
383.795	1	9
383.966	1	16
384.137	1	6
384.308	1	14
384.479	1	17
384.649	1	18
384.820	1	15
384.991	1	5
385.162	1	19
385.333	1	13
385.503	1	27
385.674	1	21
385.845	1	13
386.016	1	11
386.187	1	10
386.357	1	12
386.528	1	-4
386.699	1	5
386.870	1	13
387.041	1	16
387.211	1	7
387.382	1	6
387.553	1	15
387.724	1	11
387.894	1	18
388.065	1	28
388.236	1	23
388.407	1	18
388.578	1	17
388.748	1	14
388.919	1	22
389.090	1	16
389.261	1	15
389.431	1	14
389.602	1	2
389.773	1	-1
389.944	1	14
390.114	1	18
390.285	1	17
390.456	1	15
390.627	1	20
390.798	1	15
390.968	1	12
391.139	1	17
391.310	1	20
391.481	1	12
391.651	1	18
391.822	1	21
391.993	1	10
392.164	1	3
392.334	1	8
392.505	1	11
392.676	1	16
392.847	1	21
393.017	1	22
393.188	1	6
393.359	1	23
393.530	1	9
393.700	1	15
393.871	1	16
394.042	1	19
394.213	1	15
394.383	1	12
394.554	1	18
394.725	1	15
394.896	1	9
395.066	1	24
395.237	1	2
395.408	1	13
395.579	1	19
395.749	1	9
395.920	1	15
396.091	1	24
396.262	1	6
396.432	1	12
396.603	1	8
396.774	1	6
396.945	1	13
397.115	1	0
397.286	1	24
397.457	1	11
397.627	1	15
397.798	1	20
397.969	1	21
398.140	1	12
398.310	1	17
398.481	1	23
398.652	1	15
398.823	1	7
398.993	1	25
399.164	1	10
399.335	1	9
399.505	1	23
399.676	1	14
399.847	1	19
400.018	1	18
400.188	1	16
400.359	1	22
400.530	1	12
400.700	1	12
400.871	1	26
401.042	1	10
401.213	1	20
401.383	1	24
401.554	1	18
401.725	1	9
401.895	1	5
402.066	1	17
402.237	1	23
402.408	1	16
402.578	1	9
402.749	1	26
402.920	1	24
403.090	1	12
403.261	1	23
403.432	1	17
403.603	1	8
403.773	1	23
403.944	1	19
404.115	1	11
404.285	1	25
404.456	1	12
404.627	1	14
404.797	1	16
404.968	1	13
405.139	1	17
405.310	1	19
405.480	1	23
405.651	1	18
405.822	1	22
405.992	1	13
406.163	1	24
406.334	1	20
406.504	1	12
406.675	1	9
406.846	1	19
407.016	1	6
407.187	1	20
407.358	1	10
407.528	1	15
407.699	1	13
407.870	1	19
408.041	1	4
408.211	1	11
408.382	1	21
408.553	1	8
408.723	1	22
408.894	1	17
409.065	1	25
409.235	1	11
409.406	1	16
409.577	1	17
409.747	1	27
409.918	1	16
410.089	1	8
410.259	1	15
410.430	1	22
410.601	1	12
410.771	1	15
410.942	1	8
411.113	1	26
411.283	1	19
411.454	1	23
411.625	1	16
411.795	1	16
411.966	1	13
412.137	1	13
412.307	1	17
412.478	1	24
412.649	1	10
412.819	1	6
412.990	1	18
413.161	1	17
413.331	1	25
413.502	1	11
413.672	1	6
413.843	1	17
414.014	1	33
414.184	1	24
414.355	1	14
414.526	1	11
414.696	1	18
414.867	1	21
415.038	1	14
415.208	1	16
415.379	1	15
415.550	1	16
415.720	1	10
415.891	1	23
416.062	1	18
416.232	1	22
416.403	1	23
416.573	1	9
416.744	1	4
416.915	1	15
417.085	1	14
417.256	1	22
417.427	1	22
417.597	1	18
417.768	1	19
417.939	1	24
418.109	1	10
418.280	1	23
418.450	1	21
418.621	1	10
418.792	1	15
418.962	1	15
419.133	1	20
419.304	1	6
419.474	1	9
419.645	1	17
419.815	1	15
419.986	1	14
420.157	1	25
420.327	1	22
420.498	1	9
420.669	1	16
420.839	1	20
421.010	1	15
421.180	1	7
421.351	1	22
421.522	1	20
421.692	1	22
421.863	1	19
422.033	1	30
422.204	1	20
422.375	1	14
422.545	1	18
422.716	1	11
422.886	1	28
423.057	1	12
423.228	1	16
423.398	1	20
423.569	1	19
423.740	1	11
423.910	1	21
424.081	1	20
424.251	1	12
424.422	1	8
424.593	1	10
424.763	1	19
424.934	1	12
425.104	1	21
425.275	1	18
425.445	1	33
425.616	1	30
425.787	1	19
425.957	1	13
426.128	1	25
426.298	1	11
426.469	1	15
426.640	1	17
426.810	1	24
426.981	1	17
427.151	1	17
427.322	1	-1
427.493	1	16
427.663	1	15
427.834	1	14
428.004	1	17
428.175	1	30
428.345	1	24
428.516	1	14
428.687	1	22
428.857	1	6
429.028	1	24
429.198	1	18
429.369	1	23
429.540	1	14
429.710	1	19
429.881	1	21
430.051	1	12
430.222	1	17
430.392	1	22
430.563	1	22
430.734	1	19
430.904	1	14
431.075	1	3
431.245	1	20
431.416	1	2
431.586	1	14
431.757	1	14
431.927	1	8
432.098	1	19
432.269	1	26
432.439	1	15
432.610	1	26
432.780	1	21
432.951	1	12
433.121	1	25
433.292	1	18
433.462	1	20
433.633	1	27
433.804	1	9
433.974	1	19
434.145	1	15
434.315	1	25
434.486	1	10
434.656	1	20
434.827	1	18
434.997	1	22
435.168	1	17
435.339	1	22
435.509	1	4
435.680	1	20
435.850	1	16
436.021	1	31
436.191	1	17
436.362	1	27
436.532	1	20
436.703	1	34
436.873	1	11
437.044	1	16
437.214	1	23
437.385	1	28
437.556	1	6
437.726	1	13
437.897	1	10
438.067	1	10
438.238	1	27
438.408	1	22
438.579	1	21
438.749	1	2
438.920	1	22
439.090	1	14
439.261	1	14
439.431	1	9
439.602	1	10
439.772	1	14
439.943	1	24
440.113	1	12
440.284	1	20
440.455	1	22
440.625	1	15
440.796	1	17
440.966	1	17
441.137	1	10
441.307	1	21
441.478	1	12
441.648	1	10
441.819	1	9
441.989	1	16
442.160	1	20
442.330	1	24
442.501	1	10
442.671	1	11
442.842	1	19
443.012	1	13
443.183	1	18
443.353	1	28
443.524	1	18
443.694	1	23
443.865	1	18
444.035	1	10
444.206	1	14
444.376	1	23
444.547	1	6
444.717	1	24
444.888	1	10
445.058	1	18
445.229	1	20
445.399	1	15
445.570	1	12
445.740	1	18
445.911	1	21
446.081	1	18
446.252	1	7
446.422	1	17
446.593	1	11
446.763	1	12
446.934	1	19
447.104	1	14
447.275	1	14
447.445	1	6
447.616	1	20
447.786	1	14
447.957	1	24
448.127	1	30
448.298	1	24
448.468	1	17
448.639	1	10
448.809	1	17
448.979	1	22
449.150	1	16
449.320	1	24
449.491	1	18
449.661	1	31
449.832	1	25
450.002	1	23
450.173	1	8
450.343	1	20
450.514	1	14
450.684	1	14
450.855	1	19
451.025	1	12
451.196	1	23
451.366	1	11
451.537	1	18
451.707	1	16
451.878	1	22
452.048	1	10
452.218	1	11
452.389	1	13
452.559	1	14
452.730	1	16
452.900	1	18
453.071	1	19
453.241	1	13
453.412	1	14
453.582	1	7
453.753	1	21
453.923	1	24
454.093	1	23
454.264	1	21
454.434	1	16
454.605	1	19
454.775	1	17
454.946	1	14
455.116	1	11
455.287	1	13
455.457	1	16
455.628	1	19
455.798	1	21
455.968	1	8
456.139	1	3
456.309	1	22
456.480	1	17
456.650	1	26
456.821	1	21
456.991	1	17
457.161	1	17
457.332	1	6
457.502	1	28
457.673	1	25
457.843	1	7
458.014	1	9
458.184	1	11
458.355	1	12
458.525	1	19
458.695	1	13
458.866	1	19
459.036	1	21
459.207	1	19
459.377	1	19
459.548	1	9
459.718	1	13
459.888	1	18
460.059	1	19
460.229	1	21
460.400	1	12
460.570	1	12
460.740	1	18
460.911	1	17
461.081	1	18
461.252	1	5
461.422	1	27
461.593	1	13
461.763	1	18
461.933	1	18
462.104	1	12
462.274	1	6
462.445	1	15
462.615	1	20
462.785	1	10
462.956	1	18
463.126	1	12
463.297	1	12
463.467	1	12
463.638	1	11
463.808	1	26
463.978	1	18
464.149	1	7
464.319	1	16
464.490	1	19
464.660	1	22
464.830	1	17
465.001	1	22
465.171	1	16
465.342	1	9
465.512	1	12
465.682	1	3
465.853	1	3
466.023	1	7
466.194	1	20
466.364	1	11
466.534	1	19
466.705	1	11
466.875	1	18
467.045	1	0
467.216	1	17
467.386	1	29
467.557	1	14
467.727	1	23
467.897	1	11
468.068	1	-8
468.238	1	13
468.409	1	14
468.579	1	12
468.749	1	13
468.920	1	10
469.090	1	15
469.260	1	18
469.431	1	19
469.601	1	4
469.772	1	-4
469.942	1	16
470.112	1	14
470.283	1	20
470.453	1	26
470.623	1	22
470.794	1	13
470.964	1	22
471.135	1	11
471.305	1	14
471.475	1	7
471.646	1	19
471.816	1	9
471.986	1	22
472.157	1	13
472.327	1	15
472.497	1	17
472.668	1	5
472.838	1	19
473.009	1	19
473.179	1	15
473.349	1	12
473.520	1	14
473.690	1	18
473.860	1	11
474.031	1	16
474.201	1	5
474.371	1	17
474.542	1	20
474.712	1	18
474.882	1	7
475.053	1	15
475.223	1	6
475.394	1	14
475.564	1	7
475.734	1	21
475.905	1	12
476.075	1	5
476.245	1	21
476.416	1	3
476.586	1	15
476.756	1	11
476.927	1	9
477.097	1	14
477.267	1	12
477.438	1	18
477.608	1	14
477.778	1	10
477.949	1	7
478.119	1	20
478.289	1	6
478.460	1	2
478.630	1	25
478.800	1	9
478.971	1	11
479.141	1	16
479.311	1	16
479.482	1	16
479.652	1	18
479.822	1	7
479.993	1	15
480.163	1	20
480.333	1	11
480.504	1	8
480.674	1	12
480.844	1	6
481.015	1	13
481.185	1	0
481.355	1	12
481.525	1	21
481.696	1	13
481.866	1	16
482.036	1	15
482.207	1	20
482.377	1	10
482.547	1	1
482.718	1	8
482.888	1	12
483.058	1	12
483.229	1	11
483.399	1	11
483.569	1	9
483.740	1	16
483.910	1	9
484.080	1	1
484.250	1	3
484.421	1	5
484.591	1	16
484.761	1	5
484.932	1	14
485.102	1	16
485.272	1	0
485.443	1	14
485.613	1	13
485.783	1	20
485.953	1	10
486.124	1	7
486.294	1	9
486.464	1	0
486.635	1	17
486.805	1	-2
486.975	1	9
487.146	1	9
487.316	1	15
487.486	1	15
487.656	1	11
487.827	1	10
487.997	1	8
488.167	1	14
488.338	1	6
488.508	1	5
488.678	1	7
488.848	1	17
489.019	1	9
489.189	1	5
489.359	1	12
489.529	1	19
489.700	1	15
489.870	1	0
490.040	1	8
490.211	1	-1
490.381	1	13
490.551	1	2
490.721	1	14
490.892	1	10
491.062	1	-4
491.232	1	-4
491.402	1	16
491.573	1	10
491.743	1	9
491.913	1	8
492.084	1	8
492.254	1	11
492.424	1	15
492.594	1	15
492.765	1	8
492.935	1	7
493.105	1	23
493.275	1	-4
493.446	1	7
493.616	1	11
493.786	1	7
493.956	1	-3
494.127	1	17
494.297	1	4
494.467	1	19
494.637	1	12
494.808	1	6
494.978	1	4
495.148	1	10
495.318	1	20
495.489	1	3
495.659	1	4
495.829	1	12
495.999	1	9
496.170	1	9
496.340	1	16
496.510	1	6
496.680	1	7
496.851	1	2
497.021	1	7
497.191	1	1
497.361	1	0
497.532	1	-1
497.702	1	9
497.872	1	20
498.042	1	16
498.213	1	19
498.383	1	16
498.553	1	6
498.723	1	2
498.894	1	7
499.064	1	6
499.234	1	4
499.404	1	-2
499.574	1	6
499.745	1	9
499.915	1	3
500.085	1	13
500.255	1	2
500.426	1	13
500.596	1	-2
500.766	1	0
500.936	1	11
501.106	1	15
501.277	1	10
501.447	1	14
501.617	1	10
501.787	1	10
501.958	1	9
502.128	1	-2
502.298	1	6
502.468	1	13
502.638	1	7
502.809	1	8
502.979	1	11
503.149	1	7
503.319	1	20
503.489	1	3
503.660	1	4
503.830	1	2
504.000	1	15
504.170	1	11
504.340	1	8
504.511	1	3
504.681	1	8
504.851	1	11
505.021	1	18
505.192	1	6
505.362	1	3
505.532	1	11
505.702	1	7
505.872	1	4
506.043	1	2
506.213	1	17
506.383	1	0
506.553	1	7
506.723	1	9
506.893	1	4
507.064	1	-5
507.234	1	3
507.404	1	10
507.574	1	5
507.744	1	14
507.915	1	10
508.085	1	13
508.255	1	9
508.425	1	10
508.595	1	-3
508.766	1	-4
508.936	1	6
509.106	1	7
509.276	1	6
509.446	1	2
509.616	1	5
509.787	1	15
509.957	1	5
510.127	1	11
510.297	1	9
510.467	1	5
510.638	1	15
510.808	1	-2
510.978	1	-4
511.148	1	21
511.318	1	-2
511.488	1	13
511.659	1	-4
511.829	1	10
511.999	1	14
512.169	1	4
512.339	1	1
512.509	1	1
512.680	1	5
512.850	1	10
513.020	1	13
513.190	1	3
513.360	1	4
513.530	1	9
513.700	1	9
513.871	1	17
514.041	1	2
514.211	1	12
514.381	1	16
514.551	1	3
514.721	1	13
514.892	1	2
515.062	1	1
515.232	1	14
515.402	1	6
515.572	1	3
515.742	1	1
515.912	1	-3
516.083	1	6
516.253	1	17
516.423	1	12
516.593	1	6
516.763	1	7
516.933	1	-10
517.104	1	11
517.274	1	0
517.444	1	0
517.614	1	2
517.784	1	11
517.954	1	18
518.124	1	-5
518.294	1	14
518.465	1	5
518.635	1	7
518.805	1	23
518.975	1	4
519.145	1	15
519.315	1	0
519.485	1	5
519.656	1	8
519.826	1	12
519.996	1	0
520.166	1	9
520.336	1	16
520.506	1	-5
520.676	1	6
520.846	1	2
521.017	1	10
521.187	1	9
521.357	1	2
521.527	1	8
521.697	1	8
521.867	1	7
522.037	1	-2
522.207	1	-2
522.377	1	2
522.548	1	10
522.718	1	8
522.888	1	15
523.058	1	11
523.228	1	4
523.398	1	8
523.568	1	5
523.738	1	14
523.909	1	-3
524.079	1	-3
524.249	1	3
524.419	1	5
524.589	1	4
524.759	1	12
524.929	1	-1
525.099	1	0
525.269	1	11
525.439	1	7
525.610	1	13
525.780	1	8
525.950	1	8
526.120	1	-2
526.290	1	11
526.460	1	-2
526.630	1	4
526.800	1	-1
526.970	1	9
527.140	1	10
527.311	1	3
527.481	1	21
527.651	1	1
527.821	1	-6
527.991	1	-6
528.161	1	8
528.331	1	15
528.501	1	5
528.671	1	-4
528.841	1	11
529.011	1	0
529.181	1	5
529.352	1	1
529.522	1	7
529.692	1	4
529.862	1	11
530.032	1	12
530.202	1	11
530.372	1	0
530.542	1	-1
530.712	1	2
530.882	1	1
531.052	1	9
531.222	1	-5
531.392	1	12
531.563	1	1
531.733	1	4
531.903	1	6
532.073	1	6
532.243	1	1
532.413	1	11
532.583	1	-5
532.753	1	3
532.923	1	15
533.093	1	16
533.263	1	-8
533.433	1	9
533.603	1	7
533.773	1	-4
533.943	1	3
534.113	1	11
534.284	1	7
534.454	1	-5
534.624	1	7
534.794	1	0
534.964	1	8
535.134	1	11
535.304	1	4
535.474	1	-3
535.644	1	7
535.814	1	10
535.984	1	14
536.154	1	12
536.324	1	18
536.494	1	2
536.664	1	-7
536.834	1	0
537.004	1	8
537.174	1	4
537.344	1	13
537.514	1	8
537.685	1	4
537.855	1	-2
538.025	1	1
538.195	1	-1
538.365	1	7
538.535	1	-4
538.705	1	17
538.875	1	5
539.045	1	4
539.215	1	-6
539.385	1	3
539.555	1	4
539.725	1	1
539.895	1	11
540.065	1	-2
540.235	1	3
540.405	1	6
540.575	1	3
540.745	1	7
540.915	1	0
541.085	1	-13
541.255	1	-2
541.425	1	5
541.595	1	8
541.765	1	17
541.935	1	-5
542.105	1	6
542.275	1	3
542.445	1	1
542.615	1	10
542.785	1	1
542.955	1	-4
543.125	1	-5
543.295	1	-4
543.465	1	15
543.635	1	11
543.805	1	12
543.975	1	6
544.145	1	-1
544.315	1	-2
544.485	1	-6
544.655	1	7
544.825	1	6
544.995	1	4
545.165	1	11
545.335	1	9
545.505	1	5
545.675	1	-2
545.845	1	8
546.015	1	12
546.185	1	10
546.355	1	13
546.525	1	-9
546.695	1	0
546.865	1	6
547.035	1	3
547.205	1	11
547.375	1	11
547.545	1	14
547.715	1	12
547.885	1	14
548.055	1	-8
548.225	1	7
548.395	1	-3
548.565	1	8
548.735	1	2
548.905	1	-7
549.075	1	9
549.245	1	-1
549.415	1	3
549.585	1	4
549.755	1	6
549.925	1	9
550.095	1	-1
550.265	1	3
550.435	1	-7
550.605	1	-7
550.775	1	-9
550.945	1	2
551.115	1	4
551.285	1	-2
551.455	1	0
551.625	1	5
551.795	1	4
551.965	1	4
552.135	1	4
552.305	1	-3
552.475	1	3
552.645	1	-8
552.815	1	11
552.985	1	-3
553.155	1	1
553.325	1	5
553.495	1	13
553.665	1	5
553.835	1	9
554.004	1	-4
554.174	1	3
554.344	1	-4
554.514	1	7
554.684	1	-4
554.854	1	-5
555.024	1	1
555.194	1	8
555.364	1	10
555.534	1	3
555.704	1	3
555.874	1	2
556.044	1	20
556.214	1	7
556.384	1	2
556.554	1	12
556.724	1	6
556.894	1	1
557.064	1	0
557.234	1	1
557.404	1	1
557.573	1	-2
557.743	1	3
557.913	1	0
558.083	1	10
558.253	1	-12
558.423	1	2
558.593	1	7
558.763	1	12
558.933	1	5
559.103	1	12
559.273	1	-1
559.443	1	5
559.613	1	-6
559.783	1	12
559.953	1	17
560.122	1	-2
560.292	1	6
560.462	1	0
560.632	1	13
560.802	1	3
560.972	1	1
561.142	1	13
561.312	1	3
561.482	1	9
561.652	1	7
561.822	1	-13
561.992	1	-3
562.162	1	4
562.331	1	7
562.501	1	-6
562.671	1	15
562.841	1	1
563.011	1	-8
563.181	1	6
563.351	1	-2
563.521	1	1
563.691	1	10
563.861	1	-3
564.031	1	3
564.201	1	-6
564.370	1	2
564.540	1	-6
564.710	1	3
564.880	1	5
565.050	1	5
565.220	1	7
565.390	1	-3
565.560	1	-1
565.730	1	-1
565.900	1	-8
566.069	1	-1
566.239	1	4
566.409	1	9
566.579	1	7
566.749	1	-3
566.919	1	12
567.089	1	-5
567.259	1	14
567.429	1	12
567.599	1	7
567.768	1	-1
567.938	1	0
568.108	1	5
568.278	1	3
568.448	1	1
568.618	1	-6
568.788	1	-15
568.958	1	-12
569.128	1	-2
569.297	1	3
569.467	1	2
569.637	1	10
569.807	1	0
569.977	1	4
570.147	1	-1
570.317	1	4
570.487	1	8
570.656	1	2
570.826	1	-2
570.996	1	3
571.166	1	-3
571.336	1	4
571.506	1	8
571.676	1	-12
571.846	1	-4
572.015	1	7
572.185	1	-2
572.355	1	7
572.525	1	2
572.695	1	5
572.865	1	14
573.035	1	-7
573.205	1	-6
573.374	1	9
573.544	1	-3
573.714	1	9
573.884	1	3
574.054	1	1
574.224	1	-3
574.394	1	2
574.563	1	12
574.733	1	17
574.903	1	8
575.073	1	6
575.243	1	-2
575.413	1	-2
575.583	1	4
575.752	1	0
575.922	1	13
576.092	1	-8
576.262	1	0
576.432	1	3
576.602	1	1
576.772	1	1
576.941	1	12
577.111	1	6
577.281	1	13
577.451	1	1
577.621	1	8
577.791	1	7
577.960	1	-3
578.130	1	5
578.300	1	9
578.470	1	8
578.640	1	2
578.810	1	4
578.979	1	-2
579.149	1	6
579.319	1	6
579.489	1	12
579.659	1	-1
579.829	1	-2
579.998	1	7
580.168	1	1
580.338	1	5
580.508	1	0
580.678	1	7
580.848	1	5
581.017	1	-2
581.187	1	9
581.357	1	2
581.527	1	-1
581.697	1	-6
581.867	1	11
582.036	1	13
582.206	1	-2
582.376	1	6
582.546	1	14
582.716	1	-1
582.885	1	5
583.055	1	-2
583.225	1	-6
583.395	1	-6
583.565	1	2
583.735	1	4
583.904	1	3
584.074	1	6
584.244	1	9
584.414	1	-3
584.584	1	-2
584.753	1	12
584.923	1	15
585.093	1	-2
585.263	1	-2
585.433	1	16
585.602	1	10
585.772	1	2
585.942	1	5
586.112	1	-1
586.282	1	5
586.451	1	4
586.621	1	-6
586.791	1	6
586.961	1	5
587.131	1	7
587.300	1	9
587.470	1	2
587.640	1	0
587.810	1	-4
587.980	1	-5
588.149	1	3
588.319	1	4
588.489	1	7
588.659	1	12
588.829	1	-1
588.998	1	-4
589.168	1	9
589.338	1	0
589.508	1	3
589.677	1	0
589.847	1	3
590.017	1	5
590.187	1	1
590.357	1	-1
590.526	1	11
590.696	1	6
590.866	1	0
591.036	1	-7
591.205	1	5
591.375	1	7
591.545	1	2
591.715	1	-4
591.885	1	0
592.054	1	8
592.224	1	5
592.394	1	-1
592.564	1	-3
592.733	1	8
592.903	1	5
593.073	1	-6
593.243	1	0
593.412	1	-2
593.582	1	3
593.752	1	-1
593.922	1	18
594.091	1	-9
594.261	1	7
594.431	1	-4
594.601	1	4
594.771	1	2
594.940	1	6
595.110	1	5
595.280	1	5
595.450	1	7
595.619	1	-5
595.789	1	15
595.959	1	-2
596.129	1	4
596.298	1	3
596.468	1	8
596.638	1	-3
596.808	1	2
596.977	1	4
597.147	1	1
597.317	1	3
597.487	1	4
597.656	1	14
597.826	1	-3
597.996	1	3
598.166	1	8
598.335	1	-2
598.505	1	-8
598.675	1	0
598.844	1	7
599.014	1	4
599.184	1	5
599.354	1	10
599.523	1	7
599.693	1	14
599.863	1	4
600.033	1	6
600.202	1	8
600.372	1	3
600.542	1	8
600.712	1	10
600.881	1	6
601.051	1	6
601.221	1	9
601.390	1	3
601.560	1	5
601.730	1	-3
601.900	1	14
602.069	1	-8
602.239	1	5
602.409	1	4
602.578	1	14
602.748	1	-3
602.918	1	1
603.088	1	18
603.257	1	7
603.427	1	10
603.597	1	1
603.767	1	3
603.936	1	8
604.106	1	-2
604.276	1	9
604.445	1	-8
604.615	1	4
604.785	1	13
604.954	1	7
605.124	1	6
605.294	1	8
605.464	1	3
605.633	1	4
605.803	1	4
605.973	1	5
606.142	1	12
606.312	1	9
606.482	1	7
606.652	1	13
606.821	1	9
606.991	1	-4
607.161	1	6
607.330	1	6
607.500	1	14
607.670	1	8
607.839	1	-7
608.009	1	4
608.179	1	2
608.348	1	0
608.518	1	4
608.688	1	10
608.858	1	3
609.027	1	-4
609.197	1	11
609.367	1	4
609.536	1	16
609.706	1	5
609.876	1	1
610.045	1	11
610.215	1	13
610.385	1	1
610.554	1	1
610.724	1	2
610.894	1	3
611.063	1	9
611.233	1	-1
611.403	1	0
611.572	1	4
611.742	1	5
611.912	1	11
612.081	1	1
612.251	1	14
612.421	1	2
612.590	1	8
612.760	1	3
612.930	1	2
613.099	1	11
613.269	1	-2
613.439	1	3
613.608	1	7
613.778	1	-7
613.948	1	13
614.117	1	6
614.287	1	-3
614.457	1	-4
614.626	1	6
614.796	1	15
614.966	1	-1
615.135	1	4
615.305	1	12
615.475	1	-1
615.644	1	7
615.814	1	1
615.984	1	0
616.153	1	7
616.323	1	-1
616.493	1	10
616.662	1	3
616.832	1	4
617.002	1	-1
617.171	1	1
617.341	1	1
617.511	1	1
617.680	1	8
617.850	1	1
618.019	1	8
618.189	1	0
618.359	1	7
618.528	1	1
618.698	1	7
618.868	1	0
619.037	1	14
619.207	1	4
619.377	1	5
619.546	1	-14
619.716	1	7
619.885	1	2
620.055	1	19
620.225	1	5
620.394	1	5
620.564	1	-5
620.734	1	13
620.903	1	9
621.073	1	2
621.242	1	-10
621.412	1	16
621.582	1	2
621.751	1	3
621.921	1	9
622.091	1	-5
622.260	1	7
622.430	1	5
622.599	1	14
622.769	1	-9
622.939	1	3
623.108	1	10
623.278	1	16
623.448	1	15
623.617	1	-1
623.787	1	10
623.956	1	2
624.126	1	1
624.296	1	8
624.465	1	4
624.635	1	8
624.804	1	-4
624.974	1	7
625.144	1	13
625.313	1	2
625.483	1	13
625.652	1	8
625.822	1	4
625.992	1	6
626.161	1	-1
626.331	1	0
626.501	1	1
626.670	1	0
626.840	1	10
627.009	1	1
627.179	1	-5
627.348	1	17
627.518	1	4
627.688	1	9
627.857	1	-3
628.027	1	-1
628.196	1	4
628.366	1	6
628.536	1	5
628.705	1	6
628.875	1	15
629.044	1	3
629.214	1	0
629.384	1	2
629.553	1	3
629.723	1	-1
629.892	1	2
630.062	1	-1
630.232	1	9
630.401	1	1
630.571	1	13
630.740	1	4
630.910	1	0
631.079	1	1
631.249	1	5
631.419	1	2
631.588	1	1
631.758	1	6
631.927	1	7
632.097	1	-1
632.266	1	-10
632.436	1	6
632.606	1	4
632.775	1	14
632.945	1	-3
633.114	1	3
633.284	1	5
633.453	1	13
633.623	1	21
633.793	1	6
633.962	1	-3
634.132	1	-2
634.301	1	1
634.471	1	-6
634.640	1	6
634.810	1	6
634.979	1	10
635.149	1	9
635.319	1	13
635.488	1	-5
635.658	1	3
635.827	1	3
635.997	1	4
636.166	1	3
636.336	1	12
636.505	1	4
636.675	1	-2
636.845	1	2
637.014	1	13
637.184	1	14
637.353	1	-1
637.523	1	9
637.692	1	12
637.862	1	1
638.031	1	0
638.201	1	-2
638.370	1	9
638.540	1	11
638.710	1	12
638.879	1	12
639.049	1	2
639.218	1	15
639.388	1	5
639.557	1	4
639.727	1	6
639.896	1	4
640.066	1	9
640.235	1	12
640.405	1	8
640.574	1	9
640.744	1	-6
640.914	1	3
641.083	1	-1
641.253	1	9
641.422	1	7
641.592	1	-3
641.761	1	6
641.931	1	4
642.100	1	14
642.270	1	3
642.439	1	2
642.609	1	10
642.778	1	1
642.948	1	9
643.117	1	6
643.287	1	-1
643.456	1	6
643.626	1	12
643.795	1	0
643.965	1	4
644.134	1	2
644.304	1	8
644.473	1	6
644.643	1	3
644.812	1	13
644.982	1	0
645.151	1	9
645.321	1	2
645.490	1	7
645.660	1	6
645.829	1	3
645.999	1	2
646.168	1	7
646.338	1	4
646.507	1	-5
646.677	1	5
646.846	1	14
647.016	1	-2
647.185	1	9
647.355	1	10
647.524	1	2
647.694	1	-1
647.863	1	4
648.033	1	1
648.202	1	5
648.372	1	0
648.541	1	3
648.711	1	4
648.880	1	-2
649.050	1	9
649.219	1	10
649.389	1	4
649.558	1	6
649.728	1	9
649.897	1	-5
650.067	1	12
650.236	1	-7
650.406	1	12
650.575	1	9
650.745	1	7
650.914	1	3
651.084	1	6
651.253	1	-4
651.423	1	7
651.592	1	1
651.762	1	-2
651.931	1	6
652.101	1	4
652.270	1	0
652.440	1	12
652.609	1	13
652.778	1	-4
652.948	1	3
653.117	1	8
653.287	1	6
653.456	1	2
653.626	1	0
653.795	1	3
653.965	1	4
654.134	1	-3
654.304	1	14
654.473	1	1
654.643	1	5
654.812	1	-2
654.982	1	-1
655.151	1	12
655.320	1	10
655.490	1	5
655.659	1	5
655.829	1	8
655.998	1	-7
656.168	1	2
656.337	1	1
656.507	1	-12
656.676	1	2
656.846	1	7
657.015	1	-1
657.184	1	1
657.354	1	6
657.523	1	7
657.693	1	-2
657.862	1	7
658.032	1	6
658.201	1	8
658.371	1	0
658.540	1	7
658.709	1	3
658.879	1	11
659.048	1	2
659.218	1	-6
659.387	1	9
659.557	1	0
659.726	1	-1
659.895	1	6
660.065	1	8
660.234	1	-1
660.404	1	1
660.573	1	14
660.743	1	4
660.912	1	-2
661.081	1	-8
661.251	1	6
661.420	1	16
661.590	1	7
661.759	1	4
661.929	1	12
662.098	1	15
662.267	1	8
662.437	1	6
662.606	1	6
662.776	1	-7
662.945	1	9
663.115	1	4
663.284	1	4
663.453	1	9
663.623	1	10
663.792	1	10
663.962	1	-4
664.131	1	0
664.300	1	-18
664.470	1	-1
664.639	1	4
664.809	1	-2
664.978	1	0
665.148	1	-4
665.317	1	-7
665.486	1	11
665.656	1	13
665.825	1	7
665.995	1	-6
666.164	1	9
666.333	1	5
666.503	1	-4
666.672	1	17
666.842	1	0
667.011	1	-2
667.180	1	5
667.350	1	3
667.519	1	2
667.689	1	3
667.858	1	9
668.027	1	11
668.197	1	12
668.366	1	-1
668.536	1	-2
668.705	1	3
668.874	1	4
669.044	1	7
669.213	1	8
669.382	1	4
669.552	1	8
669.721	1	-4
669.891	1	-4
670.060	1	8
670.229	1	-9
670.399	1	2
670.568	1	-3
670.738	1	1
670.907	1	6
671.076	1	2
671.246	1	1
671.415	1	3
671.584	1	0
671.754	1	2
671.923	1	3
672.093	1	9
672.262	1	-3
672.431	1	9
672.601	1	11
672.770	1	11
672.939	1	1
673.109	1	16
673.278	1	-1
673.448	1	5
673.617	1	5
673.786	1	5
