325.333	1	3
325.504	1	20
325.675	1	13
325.846	1	11
326.017	1	11
326.188	1	16
326.359	1	20
326.531	1	8
326.702	1	10
326.873	1	1
327.044	1	12
327.215	1	4
327.386	1	13
327.557	1	7
327.728	1	12
327.899	1	5
328.070	1	15
328.241	1	13
328.412	1	-1
328.583	1	16
328.754	1	0
328.926	1	11
329.097	1	6
329.268	1	3
329.439	1	6
329.610	1	12
329.781	1	11
329.952	1	9
330.123	1	7
330.294	1	15
330.465	1	19
330.636	1	16
330.807	1	9
330.978	1	8
331.149	1	15
331.320	1	12
331.492	1	8
331.663	1	6
331.834	1	3
332.005	1	7
332.176	1	18
332.347	1	9
332.518	1	18
332.689	1	10
332.860	1	3
333.031	1	17
333.202	1	13
333.373	1	9
333.544	1	6
333.715	1	11
333.886	1	20
334.057	1	4
334.228	1	20
334.399	1	14
334.570	1	10
334.741	1	7
334.912	1	7
335.084	1	5
335.255	1	19
335.426	1	10
335.597	1	14
335.768	1	8
335.939	1	11
336.110	1	14
336.281	1	15
336.452	1	11
336.623	1	1
336.794	1	15
336.965	1	15
337.136	1	12
337.307	1	19
337.478	1	15
337.649	1	9
337.820	1	3
337.991	1	15
338.162	1	6
338.333	1	6
338.504	1	17
338.675	1	18
338.846	1	13
339.017	1	28
339.188	1	22
339.359	1	17
339.530	1	19
339.701	1	6
339.872	1	6
340.043	1	10
340.214	1	4
340.385	1	31
340.556	1	13
340.727	1	14
340.898	1	21
341.069	1	1
341.240	1	14
341.411	1	13
341.582	1	17
341.753	1	2
341.924	1	10
342.095	1	28
342.266	1	2
342.437	1	4
342.608	1	10
342.779	1	24
342.950	1	-1
343.121	1	8
343.292	1	15
343.463	1	17
343.634	1	21
343.805	1	17
343.976	1	11
344.147	1	11
344.318	1	18
344.489	1	23
344.660	1	20
344.831	1	17
345.002	1	19
345.173	1	24
345.344	1	11
345.515	1	24
345.686	1	7
345.857	1	14
346.028	1	10
346.199	1	23
346.370	1	12
346.541	1	14
346.712	1	14
346.883	1	25
347.054	1	19
347.225	1	11
347.396	1	11
347.567	1	18
347.738	1	21
347.909	1	29
348.080	1	21
348.251	1	13
348.422	1	10
348.593	1	21
348.764	1	12
348.935	1	16
349.106	1	30
349.277	1	15
349.448	1	17
349.619	1	26
349.790	1	19
349.961	1	18
350.132	1	20
350.303	1	13
350.474	1	9
350.645	1	17
350.816	1	13
350.987	1	17
351.157	1	14
351.328	1	19
351.499	1	26
351.670	1	19
351.841	1	28
352.012	1	23
352.183	1	21
352.354	1	23
352.525	1	16
352.696	1	21
352.867	1	26
353.038	1	11
353.209	1	17
353.380	1	15
353.551	1	12
353.722	1	27
353.893	1	33
354.064	1	12
354.235	1	24
354.406	1	31
354.576	1	16
354.747	1	29
354.918	1	35
355.089	1	26
355.260	1	27
355.431	1	24
355.602	1	21
355.773	1	10
355.944	1	25
356.115	1	14
356.286	1	24
356.457	1	23
356.628	1	13
356.799	1	20
356.970	1	18
357.141	1	26
357.311	1	14
357.482	1	15
357.653	1	25
357.824	1	25
357.995	1	22
358.166	1	33
358.337	1	17
358.508	1	15
358.679	1	26
358.850	1	23
359.021	1	31
359.192	1	21
359.363	1	9
359.533	1	15
359.704	1	21
359.875	1	23
360.046	1	23
360.217	1	15
360.388	1	16
360.559	1	18
360.730	1	22
360.901	1	19
361.072	1	32
361.243	1	23
361.414	1	25
361.584	1	35
361.755	1	18
361.926	1	16
362.097	1	23
362.268	1	30
362.439	1	21
362.610	1	27
362.781	1	32
362.952	1	18
363.123	1	27
363.293	1	24
363.464	1	21
363.635	1	32
363.806	1	17
363.977	1	29
364.148	1	23
364.319	1	15
364.490	1	30
364.661	1	11
364.832	1	19
365.002	1	18
365.173	1	11
365.344	1	18
365.515	1	28
365.686	1	22
365.857	1	23
366.028	1	20
366.199	1	23
366.370	1	29
366.540	1	17
366.711	1	16
366.882	1	21
367.053	1	20
367.224	1	23
367.395	1	29
367.566	1	27
367.737	1	24
367.908	1	14
368.078	1	30
368.249	1	26
368.420	1	26
368.591	1	23
368.762	1	-2
368.933	1	36
369.104	1	23
369.274	1	28
369.445	1	29
369.616	1	21
369.787	1	21
369.958	1	28
370.129	1	21
370.300	1	19
370.471	1	23
370.641	1	31
370.812	1	32
370.983	1	16
371.154	1	39
371.325	1	32
371.496	1	20
371.667	1	26
371.837	1	34
372.008	1	34
372.179	1	24
372.350	1	34
372.521	1	28
372.692	1	23
372.863	1	28
373.033	1	38
373.204	1	31
373.375	1	27
373.546	1	40
373.717	1	25
373.888	1	32
374.059	1	28
374.229	1	25
374.400	1	32
374.571	1	25
374.742	1	20
374.913	1	27
375.084	1	40
375.254	1	31
375.425	1	14
375.596	1	26
375.767	1	13
375.938	1	20
376.109	1	21
376.279	1	36
376.450	1	37
376.621	1	29
376.792	1	33
376.963	1	30
377.134	1	24
377.304	1	29
377.475	1	33
377.646	1	18
377.817	1	27
377.988	1	36
378.159	1	32
378.329	1	46
378.500	1	32
378.671	1	17
378.842	1	26
379.013	1	38
379.184	1	32
379.354	1	36
379.525	1	28
379.696	1	39
379.867	1	27
380.038	1	28
380.209	1	28
380.379	1	30
380.550	1	36
380.721	1	33
380.892	1	29
381.063	1	31
381.233	1	42
381.404	1	27
381.575	1	43
381.746	1	38
381.917	1	39
382.087	1	34
382.258	1	33
382.429	1	30
382.600	1	27
382.771	1	33
382.941	1	34
383.112	1	29
383.283	1	43
383.454	1	35
383.625	1	34
383.795	1	25
383.966	1	36
384.137	1	37
384.308	1	32
384.479	1	40
384.649	1	40
384.820	1	37
384.991	1	22
385.162	1	40
385.333	1	37
385.503	1	49
385.674	1	35
385.845	1	38
386.016	1	34
386.187	1	35
386.357	1	24
386.528	1	24
386.699	1	33
386.870	1	30
387.041	1	40
387.211	1	27
387.382	1	34
387.553	1	39
387.724	1	35
387.894	1	48
388.065	1	44
388.236	1	34
388.407	1	43
388.578	1	55
388.748	1	29
388.919	1	53
389.090	1	47
389.261	1	40
389.431	1	57
389.602	1	26
389.773	1	33
389.944	1	36
390.114	1	49
390.285	1	44
390.456	1	32
390.627	1	45
390.798	1	43
390.968	1	38
391.139	1	33
391.310	1	46
391.481	1	40
391.651	1	44
391.822	1	47
391.993	1	31
392.164	1	31
392.334	1	34
392.505	1	37
392.676	1	38
392.847	1	49
393.017	1	40
393.188	1	35
393.359	1	42
393.530	1	51
393.700	1	45
393.871	1	42
394.042	1	43
394.213	1	47
394.383	1	40
394.554	1	48
394.725	1	45
394.896	1	40
395.066	1	46
395.237	1	33
395.408	1	32
395.579	1	42
395.749	1	40
395.920	1	47
396.091	1	50
396.262	1	35
396.432	1	44
396.603	1	30
396.774	1	42
396.945	1	41
397.115	1	27
397.286	1	51
397.457	1	42
397.627	1	36
397.798	1	42
397.969	1	33
398.140	1	35
398.310	1	44
398.481	1	52
398.652	1	41
398.823	1	35
398.993	1	52
399.164	1	37
399.335	1	24
399.505	1	49
399.676	1	42
399.847	1	36
400.018	1	37
400.188	1	38
400.359	1	50
400.530	1	37
400.700	1	48
400.871	1	48
401.042	1	47
401.213	1	36
401.383	1	48
401.554	1	52
401.725	1	33
401.895	1	36
402.066	1	51
402.237	1	36
402.408	1	48
402.578	1	48
402.749	1	33
402.920	1	56
403.090	1	45
403.261	1	43
403.432	1	49
403.603	1	33
403.773	1	55
403.944	1	49
404.115	1	31
404.285	1	58
404.456	1	44
404.627	1	33
404.797	1	46
404.968	1	49
405.139	1	40
405.310	1	48
405.480	1	49
405.651	1	50
405.822	1	48
405.992	1	46
406.163	1	52
406.334	1	46
406.504	1	40
406.675	1	41
406.846	1	39
407.016	1	44
407.187	1	43
407.358	1	39
407.528	1	51
407.699	1	37
407.870	1	57
408.041	1	42
408.211	1	36
408.382	1	39
408.553	1	32
408.723	1	45
408.894	1	50
409.065	1	54
409.235	1	42
409.406	1	57
409.577	1	37
409.747	1	47
409.918	1	46
410.089	1	43
410.259	1	46
410.430	1	42
410.601	1	45
410.771	1	43
410.942	1	40
411.113	1	47
411.283	1	45
411.454	1	51
411.625	1	48
411.795	1	41
411.966	1	38
412.137	1	49
412.307	1	45
412.478	1	56
412.649	1	38
412.819	1	50
412.990	1	47
413.161	1	50
413.331	1	41
413.502	1	32
413.672	1	44
413.843	1	56
414.014	1	50
414.184	1	51
414.355	1	49
414.526	1	51
414.696	1	52
414.867	1	44
415.038	1	45
415.208	1	43
415.379	1	51
415.550	1	45
415.720	1	36
415.891	1	61
416.062	1	46
416.232	1	41
416.403	1	43
416.573	1	41
416.744	1	45
416.915	1	45
417.085	1	32
417.256	1	43
417.427	1	38
417.597	1	39
417.768	1	43
417.939	1	56
418.109	1	32
418.280	1	39
418.450	1	54
418.621	1	37
418.792	1	41
418.962	1	44
419.133	1	43
419.304	1	39
419.474	1	36
419.645	1	45
419.815	1	39
419.986	1	44
420.157	1	44
420.327	1	44
420.498	1	40
420.669	1	43
420.839	1	49
421.010	1	43
421.180	1	35
421.351	1	62
421.522	1	35
421.692	1	45
421.863	1	47
422.033	1	55
422.204	1	34
422.375	1	43
422.545	1	49
422.716	1	45
422.886	1	52
423.057	1	43
423.228	1	47
423.398	1	53
423.569	1	48
423.740	1	38
423.910	1	59
424.081	1	50
424.251	1	40
424.422	1	42
424.593	1	44
424.763	1	46
424.934	1	45
425.104	1	45
425.275	1	49
425.445	1	59
425.616	1	41
425.787	1	61
425.957	1	52
426.128	1	60
426.298	1	37
426.469	1	40
426.640	1	38
426.810	1	51
426.981	1	41
427.151	1	49
427.322	1	32
427.493	1	41
427.663	1	49
427.834	1	41
428.004	1	56
428.175	1	39
428.345	1	42
428.516	1	42
428.687	1	48
428.857	1	47
429.028	1	49
429.198	1	36
429.369	1	41
429.540	1	35
429.710	1	47
429.881	1	48
430.051	1	46
430.222	1	38
430.392	1	42
430.563	1	40
430.734	1	50
430.904	1	39
431.075	1	35
431.245	1	40
431.416	1	37
431.586	1	56
431.757	1	39
431.927	1	41
432.098	1	49
432.269	1	57
432.439	1	51
432.610	1	48
432.780	1	43
432.951	1	37
433.121	1	45
433.292	1	46
433.462	1	56
433.633	1	51
433.804	1	38
433.974	1	37
434.145	1	42
434.315	1	46
434.486	1	30
434.656	1	50
434.827	1	41
434.997	1	56
435.168	1	40
435.339	1	45
435.509	1	40
435.680	1	51
435.850	1	51
436.021	1	54
436.191	1	47
436.362	1	53
436.532	1	45
436.703	1	51
436.873	1	47
437.044	1	49
437.214	1	58
437.385	1	54
437.556	1	43
437.726	1	37
437.897	1	39
438.067	1	51
438.238	1	48
438.408	1	46
438.579	1	50
438.749	1	38
438.920	1	42
439.090	1	40
439.261	1	44
439.431	1	39
439.602	1	41
439.772	1	54
439.943	1	52
440.113	1	42
440.284	1	47
440.455	1	54
440.625	1	41
440.796	1	34
440.966	1	41
441.137	1	41
441.307	1	41
441.478	1	49
441.648	1	40
441.819	1	45
441.989	1	30
442.160	1	38
442.330	1	52
442.501	1	38
442.671	1	51
442.842	1	50
443.012	1	37
443.183	1	44
443.353	1	44
443.524	1	41
443.694	1	42
443.865	1	49
444.035	1	36
444.206	1	26
444.376	1	49
444.547	1	42
444.717	1	48
444.888	1	46
445.058	1	40
445.229	1	44
445.399	1	38
445.570	1	36
445.740	1	44
445.911	1	48
446.081	1	38
446.252	1	33
446.422	1	54
446.593	1	45
446.763	1	35
446.934	1	44
447.104	1	41
447.275	1	47
447.445	1	42
447.616	1	35
447.786	1	41
447.957	1	33
448.127	1	52
448.298	1	36
448.468	1	54
448.639	1	37
448.809	1	43
448.979	1	49
449.150	1	42
449.320	1	42
449.491	1	52
449.661	1	43
449.832	1	53
450.002	1	47
450.173	1	40
450.343	1	40
450.514	1	36
450.684	1	42
450.855	1	38
451.025	1	49
451.196	1	52
451.366	1	40
451.537	1	41
451.707	1	53
451.878	1	39
452.048	1	41
452.218	1	37
452.389	1	40
452.559	1	38
452.730	1	41
452.900	1	45
453.071	1	38
453.241	1	46
453.412	1	40
453.582	1	36
453.753	1	47
453.923	1	44
454.093	1	44
454.264	1	36
454.434	1	42
454.605	1	41
454.775	1	40
454.946	1	36
455.116	1	34
455.287	1	45
455.457	1	39
455.628	1	32
455.798	1	42
455.968	1	40
456.139	1	41
456.309	1	50
456.480	1	39
456.650	1	38
456.821	1	51
456.991	1	49
457.161	1	42
457.332	1	41
457.502	1	50
457.673	1	44
457.843	1	33
458.014	1	39
458.184	1	40
458.355	1	22
458.525	1	45
458.695	1	27
458.866	1	43
459.036	1	38
459.207	1	40
459.377	1	41
459.548	1	23
459.718	1	36
459.888	1	48
460.059	1	48
460.229	1	31
460.400	1	35
460.570	1	48
460.740	1	28
460.911	1	37
461.081	1	42
461.252	1	29
461.422	1	35
461.593	1	40
461.763	1	42
461.933	1	41
462.104	1	39
462.274	1	34
462.445	1	33
462.615	1	32
462.785	1	32
462.956	1	40
463.126	1	38
463.297	1	42
463.467	1	37
463.638	1	32
463.808	1	40
463.978	1	46
464.149	1	29
464.319	1	47
464.490	1	36
464.660	1	35
464.830	1	42
465.001	1	33
465.171	1	34
465.342	1	32
465.512	1	30
465.682	1	26
465.853	1	22
466.023	1	32
466.194	1	33
466.364	1	40
466.534	1	37
466.705	1	35
466.875	1	41
467.045	1	21
467.216	1	28
467.386	1	49
467.557	1	28
467.727	1	35
467.897	1	35
468.068	1	16
468.238	1	28
468.409	1	45
468.579	1	28
468.749	1	37
468.920	1	36
469.090	1	31
469.260	1	42
469.431	1	36
469.601	1	25
469.772	1	19
469.942	1	38
470.112	1	23
470.283	1	50
470.453	1	42
470.623	1	32
470.794	1	30
470.964	1	42
471.135	1	36
471.305	1	40
471.475	1	22
471.646	1	37
471.816	1	33
471.986	1	32
472.157	1	33
472.327	1	41
472.497	1	33
472.668	1	29
472.838	1	40
473.009	1	30
473.179	1	39
473.349	1	34
473.520	1	29
473.690	1	27
473.860	1	40
474.031	1	34
474.201	1	32
474.371	1	38
474.542	1	40
474.712	1	19
474.882	1	21
475.053	1	36
475.223	1	18
475.394	1	28
475.564	1	28
475.734	1	33
475.905	1	34
476.075	1	35
476.245	1	23
476.416	1	23
476.586	1	32
476.756	1	21
476.927	1	29
477.097	1	23
477.267	1	28
477.438	1	42
477.608	1	15
477.778	1	21
477.949	1	34
478.119	1	22
478.289	1	12
478.460	1	17
478.630	1	32
478.800	1	34
478.971	1	29
479.141	1	25
479.311	1	32
479.482	1	27
479.652	1	27
479.822	1	25
479.993	1	24
480.163	1	27
480.333	1	24
480.504	1	28
480.674	1	29
480.844	1	22
481.015	1	36
481.185	1	22
481.355	1	32
481.525	1	34
481.696	1	27
481.866	1	24
482.036	1	35
482.207	1	25
482.377	1	32
482.547	1	25
482.718	1	21
482.888	1	31
483.058	1	37
483.229	1	22
483.399	1	23
483.569	1	22
483.740	1	22
483.910	1	17
484.080	1	23
484.250	1	14
484.421	1	21
484.591	1	39
484.761	1	21
484.932	1	23
485.102	1	38
485.272	1	25
485.443	1	19
485.613	1	31
485.783	1	35
485.953	1	28
486.124	1	15
486.294	1	22
486.464	1	20
486.635	1	34
486.805	1	22
486.975	1	32
487.146	1	20
487.316	1	24
487.486	1	31
487.656	1	17
487.827	1	11
487.997	1	31
488.167	1	22
488.338	1	19
488.508	1	20
488.678	1	16
488.848	1	19
489.019	1	17
489.189	1	21
489.359	1	18
489.529	1	20
489.700	1	23
489.870	1	17
490.040	1	18
490.211	1	14
490.381	1	27
490.551	1	21
490.721	1	30
490.892	1	15
491.062	1	15
491.232	1	7
491.402	1	33
491.573	1	12
491.743	1	25
491.913	1	25
492.084	1	23
492.254	1	18
492.424	1	31
492.594	1	23
492.765	1	23
492.935	1	16
493.105	1	24
493.275	1	8
493.446	1	12
493.616	1	23
493.786	1	20
493.956	1	19
494.127	1	22
494.297	1	11
494.467	1	26
494.637	1	26
494.808	1	24
494.978	1	19
495.148	1	18
495.318	1	23
495.489	1	5
495.659	1	14
495.829	1	19
495.999	1	22
496.170	1	25
496.340	1	18
496.510	1	25
496.680	1	22
496.851	1	13
497.021	1	17
497.191	1	13
497.361	1	9
497.532	1	16
497.702	1	27
497.872	1	37
498.042	1	20
498.213	1	23
498.383	1	20
498.553	1	24
498.723	1	22
498.894	1	15
499.064	1	21
499.234	1	16
499.404	1	19
499.574	1	17
499.745	1	20
499.915	1	16
500.085	1	13
500.255	1	14
500.426	1	25
500.596	1	19
500.766	1	10
500.936	1	23
501.106	1	12
501.277	1	30
501.447	1	16
501.617	1	25
501.787	1	14
501.958	1	16
502.128	1	10
502.298	1	11
502.468	1	22
502.638	1	20
502.809	1	21
502.979	1	21
503.149	1	5
503.319	1	21
503.489	1	15
503.660	1	15
503.830	1	22
504.000	1	20
504.170	1	16
504.340	1	16
504.511	1	24
504.681	1	7
504.851	1	12
505.021	1	30
505.192	1	10
505.362	1	14
505.532	1	28
505.702	1	15
505.872	1	21
506.043	1	21
506.213	1	17
506.383	1	15
506.553	1	19
506.723	1	14
506.893	1	20
507.064	1	9
507.234	1	12
507.404	1	19
507.574	1	13
507.744	1	7
507.915	1	13
508.085	1	25
508.255	1	17
508.425	1	1
508.595	1	9
508.766	1	6
508.936	1	20
509.106	1	22
509.276	1	14
509.446	1	13
509.616	1	12
509.787	1	24
509.957	1	15
510.127	1	5
510.297	1	17
510.467	1	2
510.638	1	23
510.808	1	12
510.978	1	18
511.148	1	29
511.318	1	7
511.488	1	31
511.659	1	8
511.829	1	17
511.999	1	14
512.169	1	16
512.339	1	14
512.509	1	22
512.680	1	11
512.850	1	15
513.020	1	10
513.190	1	6
513.360	1	11
513.530	1	7
513.700	1	17
513.871	1	18
514.041	1	9
514.211	1	22
514.381	1	28
514.551	1	13
514.721	1	18
514.892	1	12
515.062	1	16
515.232	1	14
515.402	1	15
515.572	1	8
515.742	1	16
515.912	1	13
516.083	1	9
516.253	1	21
516.423	1	11
516.593	1	15
516.763	1	13
516.933	1	5
517.104	1	3
517.274	1	10
517.444	1	16
517.614	1	11
517.784	1	12
517.954	1	24
518.124	1	20
518.294	1	20
518.465	1	14
518.635	1	13
518.805	1	26
518.975	1	13
519.145	1	26
519.315	1	5
519.485	1	0
519.656	1	15
519.826	1	20
519.996	1	9
520.166	1	18
520.336	1	11
520.506	1	2
520.676	1	8
520.846	1	4
521.017	1	12
521.187	1	26
521.357	1	11
521.527	1	16
521.697	1	10
521.867	1	12
522.037	1	14
522.207	1	12
522.377	1	14
522.548	1	18
522.718	1	17
522.888	1	19
523.058	1	11
523.228	1	14
523.398	1	15
523.568	1	6
523.738	1	9
523.909	1	14
524.079	1	6
524.249	1	10
524.419	1	17
524.589	1	7
524.759	1	11
524.929	1	5
525.099	1	13
525.269	1	16
525.439	1	14
525.610	1	19
525.780	1	13
525.950	1	14
526.120	1	14
526.290	1	5
526.460	1	7
526.630	1	22
526.800	1	10
526.970	1	19
527.140	1	11
527.311	1	14
527.481	1	19
527.651	1	21
527.821	1	13
527.991	1	16
528.161	1	10
528.331	1	10
528.501	1	17
528.671	1	10
528.841	1	16
529.011	1	6
529.181	1	16
529.352	1	10
529.522	1	3
529.692	1	4
529.862	1	9
530.032	1	16
530.202	1	16
530.372	1	13
530.542	1	13
530.712	1	9
530.882	1	12
531.052	1	14
531.222	1	-1
531.392	1	16
531.563	1	1
531.733	1	15
531.903	1	8
532.073	1	6
532.243	1	5
532.413	1	23
532.583	1	10
532.753	1	2
532.923	1	21
533.093	1	17
533.263	1	6
533.433	1	28
533.603	1	14
533.773	1	6
533.943	1	9
534.113	1	6
534.284	1	11
534.454	1	8
534.624	1	12
534.794	1	-3
534.964	1	9
535.134	1	24
535.304	1	11
535.474	1	3
535.644	1	12
535.814	1	16
535.984	1	15
536.154	1	3
536.324	1	12
536.494	1	6
536.664	1	13
536.834	1	6
537.004	1	14
537.174	1	11
537.344	1	9
537.514	1	6
537.685	1	9
537.855	1	1
538.025	1	10
538.195	1	8
538.365	1	8
538.535	1	3
538.705	1	10
538.875	1	17
539.045	1	8
539.215	1	-1
539.385	1	10
539.555	1	4
539.725	1	1
539.895	1	14
540.065	1	11
540.235	1	10
540.405	1	3
540.575	1	6
540.745	1	18
540.915	1	15
541.085	1	2
541.255	1	-6
541.425	1	9
541.595	1	15
541.765	1	20
541.935	1	4
542.105	1	10
542.275	1	10
542.445	1	5
542.615	1	4
542.785	1	5
542.955	1	1
543.125	1	6
543.295	1	4
543.465	1	18
543.635	1	16
543.805	1	18
543.975	1	5
544.145	1	6
544.315	1	9
544.485	1	10
544.655	1	22
544.825	1	12
544.995	1	7
545.165	1	0
545.335	1	3
545.505	1	16
545.675	1	-2
545.845	1	17
546.015	1	14
546.185	1	8
546.355	1	11
546.525	1	15
546.695	1	4
546.865	1	15
547.035	1	13
547.205	1	16
547.375	1	8
547.545	1	24
547.715	1	11
547.885	1	18
548.055	1	13
548.225	1	14
548.395	1	2
548.565	1	9
548.735	1	13
548.905	1	-4
549.075	1	14
549.245	1	3
549.415	1	6
549.585	1	8
549.755	1	13
549.925	1	7
550.095	1	15
550.265	1	15
550.435	1	-11
550.605	1	6
550.775	1	-7
550.945	1	15
551.115	1	10
551.285	1	3
551.455	1	11
551.625	1	-4
551.795	1	-2
551.965	1	14
552.135	1	11
552.305	1	-3
552.475	1	15
552.645	1	4
552.815	1	7
552.985	1	16
553.155	1	3
553.325	1	13
553.495	1	8
553.665	1	14
553.835	1	-1
554.004	1	3
554.174	1	4
554.344	1	10
554.514	1	9
554.684	1	10
554.854	1	1
555.024	1	15
555.194	1	8
555.364	1	11
555.534	1	-1
555.704	1	9
555.874	1	-6
556.044	1	17
556.214	1	13
556.384	1	9
556.554	1	5
556.724	1	13
556.894	1	4
557.064	1	5
557.234	1	5
557.404	1	6
557.573	1	9
557.743	1	7
557.913	1	5
558.083	1	16
558.253	1	-3
558.423	1	-1
558.593	1	15
558.763	1	10
558.933	1	6
559.103	1	12
559.273	1	10
559.443	1	14
559.613	1	16
559.783	1	10
559.953	1	13
560.122	1	4
560.292	1	14
560.462	1	9
560.632	1	3
560.802	1	7
560.972	1	12
561.142	1	12
561.312	1	9
561.482	1	17
561.652	1	8
561.822	1	-4
561.992	1	3
562.162	1	8
562.331	1	12
562.501	1	-1
562.671	1	29
562.841	1	13
563.011	1	-6
563.181	1	3
563.351	1	7
563.521	1	7
563.691	1	12
563.861	1	2
564.031	1	-4
564.201	1	9
564.370	1	5
564.540	1	0
564.710	1	5
564.880	1	10
565.050	1	2
565.220	1	8
565.390	1	9
565.560	1	8
565.730	1	2
565.900	1	2
566.069	1	9
566.239	1	14
566.409	1	6
566.579	1	1
566.749	1	0
566.919	1	11
567.089	1	17
567.259	1	14
567.429	1	0
567.599	1	6
567.768	1	13
567.938	1	-1
568.108	1	10
568.278	1	7
568.448	1	8
568.618	1	7
568.788	1	-12
568.958	1	7
569.128	1	1
569.297	1	7
569.467	1	16
569.637	1	8
569.807	1	9
569.977	1	8
570.147	1	9
570.317	1	5
570.487	1	10
570.656	1	8
570.826	1	-6
570.996	1	8
571.166	1	18
571.336	1	2
571.506	1	9
571.676	1	-2
571.846	1	0
572.015	1	16
572.185	1	6
572.355	1	13
572.525	1	-5
572.695	1	7
572.865	1	12
573.035	1	2
573.205	1	-3
573.374	1	16
573.544	1	3
573.714	1	7
573.884	1	7
574.054	1	8
574.224	1	12
574.394	1	5
574.563	1	14
574.733	1	8
574.903	1	9
575.073	1	3
575.243	1	0
575.413	1	-1
575.583	1	5
575.752	1	10
575.922	1	10
576.092	1	7
576.262	1	7
576.432	1	25
576.602	1	-1
576.772	1	-2
576.941	1	17
577.111	1	10
577.281	1	23
577.451	1	5
577.621	1	7
577.791	1	10
577.960	1	3
578.130	1	7
578.300	1	3
578.470	1	-1
578.640	1	6
578.810	1	3
578.979	1	7
579.149	1	2
579.319	1	16
579.489	1	11
579.659	1	4
579.829	1	16
579.998	1	7
580.168	1	2
580.338	1	8
580.508	1	10
580.678	1	18
580.848	1	8
581.017	1	6
581.187	1	4
581.357	1	-3
581.527	1	2
581.697	1	1
581.867	1	17
582.036	1	4
582.206	1	-3
582.376	1	2
582.546	1	18
582.716	1	8
582.885	1	11
583.055	1	4
583.225	1	-5
583.395	1	10
583.565	1	4
583.735	1	4
583.904	1	7
584.074	1	-2
584.244	1	10
584.414	1	3
584.584	1	10
584.753	1	13
584.923	1	15
585.093	1	5
585.263	1	10
585.433	1	13
585.602	1	6
585.772	1	5
585.942	1	8
586.112	1	6
586.282	1	8
586.451	1	2
586.621	1	15
586.791	1	8
586.961	1	15
587.131	1	5
587.300	1	8
587.470	1	-3
587.640	1	-1
587.810	1	-5
587.980	1	-8
588.149	1	16
588.319	1	11
588.489	1	1
588.659	1	11
588.829	1	-1
588.998	1	3
589.168	1	2
589.338	1	4
589.508	1	12
589.677	1	0
589.847	1	11
590.017	1	0
590.187	1	6
590.357	1	6
590.526	1	17
590.696	1	2
590.866	1	-1
591.036	1	12
591.205	1	2
591.375	1	15
591.545	1	8
591.715	1	3
591.885	1	5
592.054	1	9
592.224	1	-3
592.394	1	3
592.564	1	5
592.733	1	14
592.903	1	11
593.073	1	-1
593.243	1	12
593.412	1	1
593.582	1	3
593.752	1	8
593.922	1	15
594.091	1	-1
594.261	1	-3
594.431	1	7
594.601	1	12
594.771	1	13
594.940	1	3
595.110	1	6
595.280	1	9
595.450	1	4
595.619	1	11
595.789	1	10
595.959	1	5
596.129	1	-5
596.298	1	8
596.468	1	7
596.638	1	10
596.808	1	3
596.977	1	8
597.147	1	13
597.317	1	2
597.487	1	5
597.656	1	13
597.826	1	8
597.996	1	2
598.166	1	14
598.335	1	-1
598.505	1	0
598.675	1	-8
598.844	1	0
599.014	1	2
599.184	1	3
599.354	1	7
599.523	1	11
599.693	1	16
599.863	1	16
600.033	1	4
600.202	1	10
600.372	1	7
600.542	1	4
600.712	1	10
600.881	1	16
601.051	1	12
601.221	1	11
601.390	1	14
601.560	1	10
601.730	1	3
601.900	1	23
602.069	1	2
602.239	1	9
602.409	1	13
602.578	1	20
602.748	1	-1
602.918	1	3
603.088	1	15
603.257	1	8
603.427	1	19
603.597	1	-3
603.767	1	3
603.936	1	14
604.106	1	12
604.276	1	5
604.445	1	5
604.615	1	-4
604.785	1	9
604.954	1	16
605.124	1	9
605.294	1	9
605.464	1	-1
605.633	1	9
605.803	1	6
605.973	1	6
606.142	1	16
606.312	1	10
606.482	1	5
606.652	1	20
606.821	1	16
606.991	1	5
607.161	1	8
607.330	1	9
607.500	1	9
607.670	1	7
607.839	1	6
608.009	1	11
608.179	1	12
608.348	1	3
608.518	1	6
608.688	1	12
608.858	1	3
609.027	1	1
609.197	1	12
609.367	1	7
609.536	1	14
609.706	1	10
609.876	1	4
610.045	1	-4
610.215	1	10
610.385	1	10
610.554	1	7
610.724	1	9
610.894	1	16
611.063	1	6
611.233	1	5
611.403	1	3
611.572	1	11
611.742	1	-1
611.912	1	7
612.081	1	11
612.251	1	14
612.421	1	5
612.590	1	9
612.760	1	16
612.930	1	-4
613.099	1	5
613.269	1	7
613.439	1	0
613.608	1	14
613.778	1	-1
613.948	1	13
614.117	1	6
614.287	1	10
614.457	1	6
614.626	1	12
614.796	1	5
614.966	1	13
615.135	1	13
615.305	1	18
615.475	1	-2
615.644	1	12
615.814	1	3
615.984	1	11
616.153	1	6
616.323	1	10
616.493	1	20
616.662	1	8
616.832	1	3
617.002	1	2
617.171	1	5
617.341	1	5
617.511	1	11
617.680	1	3
617.850	1	6
618.019	1	14
618.189	1	17
618.359	1	1
618.528	1	4
618.698	1	5
618.868	1	1
619.037	1	13
619.207	1	15
619.377	1	11
619.546	1	0
619.716	1	6
619.885	1	6
620.055	1	15
620.225	1	19
620.394	1	14
620.564	1	-2
620.734	1	7
620.903	1	15
621.073	1	9
621.242	1	7
621.412	1	0
621.582	1	4
621.751	1	11
621.921	1	15
622.091	1	2
622.260	1	12
622.430	1	16
622.599	1	5
622.769	1	12
622.939	1	11
623.108	1	7
623.278	1	21
623.448	1	7
623.617	1	9
623.787	1	20
623.956	1	14
624.126	1	2
624.296	1	5
624.465	1	10
624.635	1	12
624.804	1	9
624.974	1	0
625.144	1	24
625.313	1	3
625.483	1	11
625.652	1	7
625.822	1	4
625.992	1	18
626.161	1	2
626.331	1	10
626.501	1	4
626.670	1	6
626.840	1	18
627.009	1	13
627.179	1	-4
627.348	1	8
627.518	1	20
627.688	1	10
627.857	1	12
628.027	1	5
628.196	1	-1
628.366	1	5
628.536	1	17
628.705	1	5
628.875	1	9
629.044	1	11
629.214	1	1
629.384	1	6
629.553	1	12
629.723	1	4
629.892	1	6
630.062	1	-7
630.232	1	16
630.401	1	9
630.571	1	14
630.740	1	5
630.910	1	15
631.079	1	3
631.249	1	7
631.419	1	18
631.588	1	8
631.758	1	9
631.927	1	6
632.097	1	6
632.266	1	-4
632.436	1	12
632.606	1	6
632.775	1	20
632.945	1	-1
633.114	1	9
633.284	1	9
633.453	1	7
633.623	1	14
633.793	1	7
633.962	1	10
634.132	1	6
634.301	1	8
634.471	1	-2
634.640	1	8
634.810	1	9
634.979	1	11
635.149	1	11
635.319	1	14
635.488	1	-4
635.658	1	11
635.827	1	3
635.997	1	13
636.166	1	11
636.336	1	7
636.505	1	10
636.675	1	3
636.845	1	12
637.014	1	10
637.184	1	14
637.353	1	7
637.523	1	15
637.692	1	9
637.862	1	5
638.031	1	-4
638.201	1	4
638.370	1	19
638.540	1	15
638.710	1	15
638.879	1	19
639.049	1	8
639.218	1	26
639.388	1	8
639.557	1	22
639.727	1	23
639.896	1	7
640.066	1	9
640.235	1	3
640.405	1	19
640.574	1	12
640.744	1	2
640.914	1	6
641.083	1	12
641.253	1	6
641.422	1	16
641.592	1	2
641.761	1	9
641.931	1	6
642.100	1	14
642.270	1	9
642.439	1	8
642.609	1	8
642.778	1	7
642.948	1	11
643.117	1	6
643.287	1	5
643.456	1	11
643.626	1	14
643.795	1	6
643.965	1	15
644.134	1	-3
644.304	1	17
644.473	1	10
644.643	1	14
644.812	1	10
644.982	1	1
645.151	1	12
645.321	1	9
645.490	1	13
645.660	1	11
645.829	1	3
645.999	1	16
646.168	1	17
646.338	1	13
646.507	1	8
646.677	1	-2
646.846	1	7
647.016	1	7
647.185	1	7
647.355	1	-2
647.524	1	6
647.694	1	14
647.863	1	8
648.033	1	12
648.202	1	11
648.372	1	-1
648.541	1	8
648.711	1	3
648.880	1	0
649.050	1	10
649.219	1	10
649.389	1	4
649.558	1	6
649.728	1	11
649.897	1	17
650.067	1	8
650.236	1	3
650.406	1	9
650.575	1	15
650.745	1	4
650.914	1	0
651.084	1	2
651.253	1	7
651.423	1	12
651.592	1	4
651.762	1	11
651.931	1	17
652.101	1	17
652.270	1	1
652.440	1	18
652.609	1	12
652.778	1	13
652.948	1	9
653.117	1	12
653.287	1	12
653.456	1	3
653.626	1	8
653.795	1	14
653.965	1	-3
654.134	1	3
654.304	1	15
654.473	1	8
654.643	1	17
654.812	1	4
654.982	1	9
655.151	1	10
655.320	1	19
655.490	1	0
655.659	1	10
655.829	1	7
655.998	1	4
656.168	1	7
656.337	1	5
656.507	1	5
656.676	1	5
656.846	1	14
657.015	1	11
657.184	1	4
657.354	1	8
657.523	1	21
657.693	1	7
657.862	1	5
658.032	1	12
658.201	1	7
658.371	1	3
658.540	1	-1
658.709	1	7
658.879	1	21
659.048	1	12
659.218	1	-13
659.387	1	15
659.557	1	9
659.726	1	12
659.895	1	5
660.065	1	15
660.234	1	5
660.404	1	13
660.573	1	9
660.743	1	17
660.912	1	0
661.081	1	-1
661.251	1	9
661.420	1	15
661.590	1	2
661.759	1	4
661.929	1	9
662.098	1	14
662.267	1	12
662.437	1	21
662.606	1	16
662.776	1	-1
662.945	1	14
663.115	1	15
663.284	1	14
663.453	1	10
663.623	1	13
663.792	1	12
663.962	1	1
664.131	1	10
664.300	1	-6
664.470	1	7
664.639	1	11
664.809	1	18
664.978	1	11
665.148	1	-1
665.317	1	18
665.486	1	8
665.656	1	16
665.825	1	14
665.995	1	7
666.164	1	15
666.333	1	12
666.503	1	10
666.672	1	17
666.842	1	-5
667.011	1	1
667.180	1	17
667.350	1	14
667.519	1	8
667.689	1	-3
667.858	1	17
668.027	1	14
668.197	1	18
668.366	1	-1
668.536	1	1
668.705	1	11
668.874	1	12
669.044	1	12
669.213	1	14
669.382	1	8
669.552	1	17
669.721	1	14
669.891	1	14
670.060	1	8
670.229	1	8
670.399	1	8
670.568	1	6
670.738	1	5
670.907	1	7
671.076	1	6
671.246	1	2
671.415	1	20
671.584	1	5
671.754	1	16
671.923	1	11
672.093	1	11
672.262	1	15
672.431	1	13
672.601	1	3
672.770	1	11
672.939	1	8
673.109	1	11
673.278	1	-1
673.448	1	14
673.617	1	8
673.786	1	7
