325.333	1	-2
325.504	1	2
325.675	1	1
325.846	1	-7
326.017	1	0
326.188	1	8
326.359	1	1
326.531	1	6
326.702	1	9
326.873	1	-14
327.044	1	0
327.215	1	5
327.386	1	3
327.557	1	9
327.728	1	5
327.899	1	1
328.070	1	5
328.241	1	-8
328.412	1	-8
328.583	1	7
328.754	1	-5
328.926	1	2
329.097	1	-3
329.268	1	-4
329.439	1	-3
329.610	1	3
329.781	1	4
329.952	1	3
330.123	1	-6
330.294	1	6
330.465	1	6
330.636	1	15
330.807	1	-3
330.978	1	5
331.149	1	3
331.320	1	1
331.492	1	-2
331.663	1	3
331.834	1	-9
332.005	1	-2
332.176	1	9
332.347	1	9
332.518	1	11
332.689	1	0
332.860	1	3
333.031	1	12
333.202	1	1
333.373	1	6
333.544	1	5
333.715	1	-1
333.886	1	-6
334.057	1	-5
334.228	1	0
334.399	1	11
334.570	1	-4
334.741	1	2
334.912	1	7
335.084	1	0
335.255	1	6
335.426	1	7
335.597	1	4
335.768	1	-1
335.939	1	-9
336.110	1	11
336.281	1	3
336.452	1	-2
336.623	1	-3
336.794	1	5
336.965	1	4
337.136	1	9
337.307	1	3
337.478	1	7
337.649	1	-9
337.820	1	-6
337.991	1	7
338.162	1	12
338.333	1	10
338.504	1	9
338.675	1	8
338.846	1	11
339.017	1	7
339.188	1	5
339.359	1	-3
339.530	1	5
339.701	1	-2
339.872	1	1
340.043	1	-2
340.214	1	-2
340.385	1	6
340.556	1	-6
340.727	1	-2
340.898	1	7
341.069	1	-8
341.240	1	-2
341.411	1	14
341.582	1	9
341.753	1	0
341.924	1	6
342.095	1	9
342.266	1	-4
342.437	1	-5
342.608	1	3
342.779	1	8
342.950	1	3
343.121	1	4
343.292	1	12
343.463	1	6
343.634	1	0
343.805	1	5
343.976	1	-8
344.147	1	-1
344.318	1	2
344.489	1	7
344.660	1	14
344.831	1	3
345.002	1	18
345.173	1	9
345.344	1	-4
345.515	1	3
345.686	1	-10
345.857	1	2
346.028	1	-4
346.199	1	12
346.370	1	-4
346.541	1	7
346.712	1	6
346.883	1	14
347.054	1	9
347.225	1	-5
347.396	1	4
347.567	1	-12
347.738	1	6
347.909	1	4
348.080	1	6
348.251	1	1
348.422	1	3
348.593	1	12
348.764	1	5
348.935	1	2
349.106	1	1
349.277	1	-3
349.448	1	5
349.619	1	3
349.790	1	2
349.961	1	12
350.132	1	13
350.303	1	4
350.474	1	0
350.645	1	3
350.816	1	-3
350.987	1	13
351.157	1	-1
351.328	1	-2
351.499	1	3
351.670	1	6
351.841	1	5
352.012	1	9
352.183	1	5
352.354	1	1
352.525	1	2
352.696	1	0
352.867	1	3
353.038	1	-2
353.209	1	10
353.380	1	1
353.551	1	-9
353.722	1	3
353.893	1	4
354.064	1	-4
354.235	1	4
354.406	1	11
354.576	1	-4
354.747	1	8
354.918	1	20
355.089	1	11
355.260	1	3
355.431	1	6
355.602	1	-1
355.773	1	7
355.944	1	6
356.115	1	-7
356.286	1	0
356.457	1	-1
356.628	1	7
356.799	1	5
356.970	1	8
357.141	1	12
357.311	1	4
357.482	1	5
357.653	1	0
357.824	1	1
357.995	1	6
358.166	1	10
358.337	1	-5
358.508	1	1
358.679	1	3
358.850	1	3
359.021	1	-1
359.192	1	3
359.363	1	-5
359.533	1	4
359.704	1	2
359.875	1	2
360.046	1	-1
360.217	1	-5
360.388	1	-8
360.559	1	6
360.730	1	2
360.901	1	4
361.072	1	1
361.243	1	0
361.414	1	10
361.584	1	11
361.755	1	4
361.926	1	6
362.097	1	-2
362.268	1	8
362.439	1	4
362.610	1	-3
362.781	1	11
362.952	1	-5
363.123	1	6
363.293	1	-5
363.464	1	11
363.635	1	3
363.806	1	8
363.977	1	0
364.148	1	8
364.319	1	-9
364.490	1	10
364.661	1	3
364.832	1	0
365.002	1	-5
365.173	1	-15
365.344	1	9
365.515	1	8
365.686	1	2
365.857	1	6
366.028	1	2
366.199	1	2
366.370	1	-3
366.540	1	-5
366.711	1	6
366.882	1	6
367.053	1	2
367.224	1	-7
367.395	1	5
367.566	1	15
367.737	1	11
367.908	1	-8
368.078	1	10
368.249	1	8
368.420	1	7
368.591	1	5
368.762	1	-10
368.933	1	12
369.104	1	2
369.274	1	4
369.445	1	16
369.616	1	0
369.787	1	0
369.958	1	5
370.129	1	12
370.300	1	6
370.471	1	-1
370.641	1	-6
370.812	1	14
370.983	1	3
371.154	1	7
371.325	1	8
371.496	1	0
371.667	1	9
371.837	1	0
372.008	1	16
372.179	1	4
372.350	1	9
372.521	1	7
372.692	1	6
372.863	1	9
373.033	1	17
373.204	1	18
373.375	1	0
373.546	1	6
373.717	1	1
373.888	1	5
374.059	1	7
374.229	1	6
374.400	1	10
374.571	1	6
374.742	1	-1
374.913	1	9
375.084	1	11
375.254	1	7
375.425	1	5
375.596	1	4
375.767	1	-7
375.938	1	-3
376.109	1	-1
376.279	1	11
376.450	1	-4
376.621	1	12
376.792	1	11
376.963	1	0
377.134	1	-7
377.304	1	3
377.475	1	-1
377.646	1	2
377.817	1	-5
377.988	1	3
378.159	1	23
378.329	1	10
378.500	1	-2
378.671	1	6
378.842	1	1
379.013	1	7
379.184	1	4
379.354	1	17
379.525	1	2
379.696	1	12
379.867	1	-4
380.038	1	1
380.209	1	2
380.379	1	7
380.550	1	7
380.721	1	2
380.892	1	4
381.063	1	1
381.233	1	5
381.404	1	4
381.575	1	6
381.746	1	9
381.917	1	10
382.087	1	-3
382.258	1	8
382.429	1	-3
382.600	1	5
382.771	1	10
382.941	1	-4
383.112	1	7
383.283	1	15
383.454	1	14
383.625	1	-3
383.795	1	8
383.966	1	7
384.137	1	6
384.308	1	0
384.479	1	12
384.649	1	-1
384.820	1	14
384.991	1	-7
385.162	1	4
385.333	1	3
385.503	1	17
385.674	1	6
385.845	1	3
386.016	1	3
386.187	1	3
386.357	1	-2
386.528	1	-10
386.699	1	5
386.870	1	13
387.041	1	7
387.211	1	0
387.382	1	-8
387.553	1	12
387.724	1	-4
387.894	1	15
388.065	1	10
388.236	1	12
388.407	1	12
388.578	1	8
388.748	1	10
388.919	1	5
389.090	1	11
389.261	1	12
389.431	1	13
389.602	1	-1
389.773	1	-6
389.944	1	2
390.114	1	12
390.285	1	16
390.456	1	1
390.627	1	16
390.798	1	14
390.968	1	5
391.139	1	7
391.310	1	11
391.481	1	8
391.651	1	11
391.822	1	11
391.993	1	-1
392.164	1	-3
392.334	1	6
392.505	1	6
392.676	1	-2
392.847	1	10
393.017	1	5
393.188	1	7
393.359	1	7
393.530	1	14
393.700	1	17
393.871	1	7
394.042	1	9
394.213	1	8
394.383	1	17
394.554	1	6
394.725	1	4
394.896	1	10
395.066	1	14
395.237	1	-5
395.408	1	9
395.579	1	3
395.749	1	6
395.920	1	9
396.091	1	11
396.262	1	-3
396.432	1	4
396.603	1	4
396.774	1	6
396.945	1	10
397.115	1	2
397.286	1	8
397.457	1	6
397.627	1	4
397.798	1	8
397.969	1	1
398.140	1	5
398.310	1	12
398.481	1	12
398.652	1	3
398.823	1	2
398.993	1	19
399.164	1	7
399.335	1	8
399.505	1	15
399.676	1	9
399.847	1	13
400.018	1	9
400.188	1	8
400.359	1	16
400.530	1	2
400.700	1	9
400.871	1	9
401.042	1	-2
401.213	1	9
401.383	1	17
401.554	1	14
401.725	1	11
401.895	1	-6
402.066	1	10
402.237	1	22
402.408	1	8
402.578	1	7
402.749	1	18
402.920	1	6
403.090	1	5
403.261	1	14
403.432	1	10
403.603	1	-3
403.773	1	15
403.944	1	16
404.115	1	7
404.285	1	14
404.456	1	15
404.627	1	-2
404.797	1	17
404.968	1	-5
405.139	1	5
405.310	1	4
405.480	1	15
405.651	1	18
405.822	1	15
405.992	1	5
406.163	1	14
406.334	1	13
406.504	1	-1
406.675	1	7
406.846	1	12
407.016	1	2
407.187	1	12
407.358	1	13
407.528	1	11
407.699	1	10
407.870	1	12
408.041	1	4
408.211	1	-3
408.382	1	11
408.553	1	3
408.723	1	6
408.894	1	12
409.065	1	25
409.235	1	9
409.406	1	8
409.577	1	1
409.747	1	17
409.918	1	8
410.089	1	1
410.259	1	0
410.430	1	14
410.601	1	16
410.771	1	4
410.942	1	4
411.113	1	14
411.283	1	11
411.454	1	2
411.625	1	10
411.795	1	0
411.966	1	0
412.137	1	3
412.307	1	3
412.478	1	10
412.649	1	5
412.819	1	5
412.990	1	11
413.161	1	2
413.331	1	3
413.502	1	0
413.672	1	10
413.843	1	3
414.014	1	12
414.184	1	-4
414.355	1	4
414.526	1	19
414.696	1	5
414.867	1	12
415.038	1	11
415.208	1	6
415.379	1	6
415.550	1	16
415.720	1	2
415.891	1	17
416.062	1	2
416.232	1	14
416.403	1	0
416.573	1	2
416.744	1	12
416.915	1	10
417.085	1	2
417.256	1	9
417.427	1	13
417.597	1	6
417.768	1	9
417.939	1	18
418.109	1	-2
418.280	1	11
418.450	1	20
418.621	1	8
418.792	1	-2
418.962	1	1
419.133	1	11
419.304	1	0
419.474	1	-1
419.645	1	6
419.815	1	10
419.986	1	10
420.157	1	12
420.327	1	7
420.498	1	4
420.669	1	15
420.839	1	4
421.010	1	5
421.180	1	-6
421.351	1	21
421.522	1	17
421.692	1	23
421.863	1	12
422.033	1	10
422.204	1	9
422.375	1	2
422.545	1	9
422.716	1	1
422.886	1	17
423.057	1	4
423.228	1	13
423.398	1	11
423.569	1	12
423.740	1	-2
423.910	1	20
424.081	1	8
424.251	1	10
424.422	1	4
424.593	1	13
424.763	1	6
424.934	1	14
425.104	1	3
425.275	1	12
425.445	1	22
425.616	1	3
425.787	1	10
425.957	1	-8
426.128	1	22
426.298	1	12
426.469	1	-2
426.640	1	9
426.810	1	21
426.981	1	10
427.151	1	10
427.322	1	0
427.493	1	10
427.663	1	1
427.834	1	2
428.004	1	10
428.175	1	10
428.345	1	15
428.516	1	11
428.687	1	0
428.857	1	2
429.028	1	8
429.198	1	6
429.369	1	2
429.540	1	1
429.710	1	9
429.881	1	7
430.051	1	9
430.222	1	9
430.392	1	16
430.563	1	4
430.734	1	13
430.904	1	7
431.075	1	3
431.245	1	15
431.416	1	-3
431.586	1	9
431.757	1	9
431.927	1	2
432.098	1	13
432.269	1	14
432.439	1	10
432.610	1	10
432.780	1	5
432.951	1	7
433.121	1	12
433.292	1	11
433.462	1	12
433.633	1	18
433.804	1	3
433.974	1	2
434.145	1	8
434.315	1	5
434.486	1	3
434.656	1	-1
434.827	1	15
434.997	1	15
435.168	1	5
435.339	1	7
435.509	1	11
435.680	1	12
435.850	1	-1
436.021	1	4
436.191	1	3
436.362	1	13
436.532	1	14
436.703	1	21
436.873	1	4
437.044	1	9
437.214	1	17
437.385	1	19
437.556	1	10
437.726	1	6
437.897	1	3
438.067	1	3
438.238	1	13
438.408	1	26
438.579	1	10
438.749	1	-2
438.920	1	3
439.090	1	6
439.261	1	1
439.431	1	9
439.602	1	-6
439.772	1	11
439.943	1	15
440.113	1	4
440.284	1	11
440.455	1	10
440.625	1	9
440.796	1	6
440.966	1	5
441.137	1	3
441.307	1	11
441.478	1	9
441.648	1	7
441.819	1	5
441.989	1	0
442.160	1	13
442.330	1	16
442.501	1	5
442.671	1	4
442.842	1	0
443.012	1	1
443.183	1	3
443.353	1	13
443.524	1	9
443.694	1	13
443.865	1	4
444.035	1	2
444.206	1	2
444.376	1	10
444.547	1	2
444.717	1	17
444.888	1	10
445.058	1	16
445.229	1	-3
445.399	1	6
445.570	1	-2
445.740	1	12
445.911	1	10
446.081	1	12
446.252	1	-4
446.422	1	7
446.593	1	8
446.763	1	13
446.934	1	13
447.104	1	3
447.275	1	19
447.445	1	3
447.616	1	8
447.786	1	7
447.957	1	12
448.127	1	19
448.298	1	9
448.468	1	12
448.639	1	1
448.809	1	14
448.979	1	13
449.150	1	12
449.320	1	8
449.491	1	9
449.661	1	14
449.832	1	16
450.002	1	5
450.173	1	8
450.343	1	4
450.514	1	7
450.684	1	2
450.855	1	8
451.025	1	4
451.196	1	21
451.366	1	6
451.537	1	8
451.707	1	14
451.878	1	4
452.048	1	2
452.218	1	2
452.389	1	13
452.559	1	7
452.730	1	12
452.900	1	0
453.071	1	11
453.241	1	19
453.412	1	4
453.582	1	-8
453.753	1	6
453.923	1	7
454.093	1	10
454.264	1	-1
454.434	1	12
454.605	1	8
454.775	1	0
454.946	1	13
455.116	1	9
455.287	1	0
455.457	1	12
455.628	1	5
455.798	1	8
455.968	1	8
456.139	1	9
456.309	1	18
456.480	1	7
456.650	1	12
456.821	1	21
456.991	1	17
457.161	1	17
457.332	1	6
457.502	1	17
457.673	1	12
457.843	1	8
458.014	1	4
458.184	1	8
458.355	1	9
458.525	1	14
458.695	1	6
458.866	1	18
459.036	1	7
459.207	1	12
459.377	1	10
459.548	1	-5
459.718	1	8
459.888	1	14
460.059	1	20
460.229	1	8
460.400	1	12
460.570	1	7
460.740	1	6
460.911	1	26
461.081	1	6
461.252	1	4
461.422	1	6
461.593	1	11
461.763	1	15
461.933	1	8
462.104	1	13
462.274	1	0
462.445	1	0
462.615	1	9
462.785	1	9
462.956	1	11
463.126	1	3
463.297	1	10
463.467	1	9
463.638	1	7
463.808	1	13
463.978	1	8
464.149	1	-5
464.319	1	13
464.490	1	12
464.660	1	18
464.830	1	11
465.001	1	6
465.171	1	4
465.342	1	1
465.512	1	5
465.682	1	4
465.853	1	2
466.023	1	9
466.194	1	9
466.364	1	6
466.534	1	17
466.705	1	3
466.875	1	1
467.045	1	0
467.216	1	20
467.386	1	16
467.557	1	5
467.727	1	16
467.897	1	8
468.068	1	-7
468.238	1	14
468.409	1	8
468.579	1	13
468.749	1	6
468.920	1	-5
469.090	1	18
469.260	1	8
469.431	1	16
469.601	1	7
469.772	1	-1
469.942	1	5
470.112	1	13
470.283	1	15
470.453	1	12
470.623	1	-1
470.794	1	4
470.964	1	11
471.135	1	17
471.305	1	11
471.475	1	1
471.646	1	9
471.816	1	1
471.986	1	12
472.157	1	12
472.327	1	7
472.497	1	11
472.668	1	7
472.838	1	9
473.009	1	14
473.179	1	4
473.349	1	6
473.520	1	4
473.690	1	12
473.860	1	9
474.031	1	15
474.201	1	10
474.371	1	18
474.542	1	15
474.712	1	-4
474.882	1	1
475.053	1	8
475.223	1	-12
475.394	1	5
475.564	1	10
475.734	1	1
475.905	1	14
476.075	1	5
476.245	1	8
476.416	1	-16
476.586	1	2
476.756	1	0
476.927	1	1
477.097	1	4
477.267	1	14
477.438	1	8
477.608	1	6
477.778	1	1
477.949	1	17
478.119	1	4
478.289	1	4
478.460	1	-4
478.630	1	14
478.800	1	10
478.971	1	14
479.141	1	12
479.311	1	6
479.482	1	12
479.652	1	5
479.822	1	6
479.993	1	-7
480.163	1	15
480.333	1	9
480.504	1	-1
480.674	1	9
480.844	1	2
481.015	1	-4
481.185	1	3
481.355	1	15
481.525	1	7
481.696	1	7
481.866	1	10
482.036	1	2
482.207	1	11
482.377	1	5
482.547	1	-2
482.718	1	0
482.888	1	17
483.058	1	-4
483.229	1	5
483.399	1	9
483.569	1	10
483.740	1	8
483.910	1	-3
484.080	1	0
484.250	1	-1
484.421	1	-1
484.591	1	12
484.761	1	8
484.932	1	6
485.102	1	2
485.272	1	4
485.443	1	8
485.613	1	3
485.783	1	7
485.953	1	7
486.124	1	-3
486.294	1	4
486.464	1	-8
486.635	1	12
486.805	1	5
486.975	1	10
487.146	1	-2
487.316	1	5
487.486	1	3
487.656	1	6
487.827	1	2
487.997	1	11
488.167	1	7
488.338	1	1
488.508	1	6
488.678	1	-3
488.848	1	5
489.019	1	12
489.189	1	9
489.359	1	13
489.529	1	8
489.700	1	0
489.870	1	-10
490.040	1	6
490.211	1	2
490.381	1	4
490.551	1	3
490.721	1	7
490.892	1	5
491.062	1	3
491.232	1	-11
491.402	1	8
491.573	1	-1
491.743	1	3
491.913	1	-5
492.084	1	9
492.254	1	2
492.424	1	10
492.594	1	13
492.765	1	0
492.935	1	0
493.105	1	15
493.275	1	3
493.446	1	-2
493.616	1	6
493.786	1	3
493.956	1	2
494.127	1	21
494.297	1	1
494.467	1	4
494.637	1	5
494.808	1	4
494.978	1	11
495.148	1	4
495.318	1	10
495.489	1	-12
495.659	1	-1
495.829	1	0
495.999	1	-2
496.170	1	-1
496.340	1	13
496.510	1	10
496.680	1	-1
496.851	1	9
497.021	1	1
497.191	1	15
497.361	1	3
497.532	1	4
497.702	1	15
497.872	1	16
498.042	1	2
498.213	1	5
498.383	1	4
498.553	1	-5
498.723	1	-1
498.894	1	-2
499.064	1	10
499.234	1	12
499.404	1	-5
499.574	1	3
499.745	1	2
499.915	1	6
500.085	1	4
500.255	1	0
500.426	1	12
500.596	1	4
500.766	1	2
500.936	1	11
501.106	1	0
501.277	1	4
501.447	1	5
501.617	1	8
501.787	1	6
501.958	1	5
502.128	1	2
502.298	1	-4
502.468	1	10
502.638	1	4
502.809	1	2
502.979	1	18
503.149	1	-3
503.319	1	11
503.489	1	2
503.660	1	8
503.830	1	1
504.000	1	5
504.170	1	7
504.340	1	7
504.511	1	10
504.681	1	-7
504.851	1	3
505.021	1	14
505.192	1	0
505.362	1	7
505.532	1	4
505.702	1	-2
505.872	1	1
506.043	1	8
506.213	1	9
506.383	1	3
506.553	1	-2
506.723	1	13
506.893	1	-5
507.064	1	-1
507.234	1	4
507.404	1	10
507.574	1	-4
507.744	1	11
507.915	1	7
508.085	1	5
508.255	1	7
508.425	1	-5
508.595	1	2
508.766	1	-1
508.936	1	7
509.106	1	-1
509.276	1	1
509.446	1	7
509.616	1	-2
509.787	1	7
509.957	1	2
510.127	1	7
510.297	1	1
510.467	1	-8
510.638	1	14
510.808	1	-1
510.978	1	6
511.148	1	10
511.318	1	6
511.488	1	7
511.659	1	0
511.829	1	14
511.999	1	11
512.169	1	0
512.339	1	2
512.509	1	5
512.680	1	6
512.850	1	4
513.020	1	0
513.190	1	1
513.360	1	1
513.530	1	0
513.700	1	9
513.871	1	3
514.041	1	3
514.211	1	2
514.381	1	13
514.551	1	0
514.721	1	2
514.892	1	-4
515.062	1	12
515.232	1	0
515.402	1	3
515.572	1	-5
515.742	1	10
515.912	1	4
516.083	1	2
516.253	1	12
516.423	1	1
516.593	1	2
516.763	1	5
516.933	1	-1
517.104	1	-9
517.274	1	-7
517.444	1	-3
517.614	1	2
517.784	1	6
517.954	1	15
518.124	1	-4
518.294	1	8
518.465	1	-3
518.635	1	0
518.805	1	14
518.975	1	-3
519.145	1	7
519.315	1	3
519.485	1	-6
519.656	1	2
519.826	1	3
519.996	1	-6
520.166	1	6
520.336	1	-1
520.506	1	-15
520.676	1	11
520.846	1	2
521.017	1	-6
521.187	1	-2
521.357	1	-4
521.527	1	5
521.697	1	-7
521.867	1	2
522.037	1	-6
522.207	1	-2
522.377	1	7
522.548	1	8
522.718	1	3
522.888	1	6
523.058	1	7
523.228	1	4
523.398	1	4
523.568	1	-4
523.738	1	8
523.909	1	1
524.079	1	-2
524.249	1	1
524.419	1	5
524.589	1	-1
524.759	1	8
524.929	1	-5
525.099	1	5
525.269	1	7
525.439	1	-2
525.610	1	3
525.780	1	3
525.950	1	1
526.120	1	-7
526.290	1	6
526.460	1	7
526.630	1	-2
526.800	1	1
526.970	1	13
527.140	1	5
527.311	1	3
527.481	1	1
527.651	1	-4
527.821	1	2
527.991	1	5
528.161	1	-6
528.331	1	12
528.501	1	11
528.671	1	6
528.841	1	8
529.011	1	-3
529.181	1	-2
529.352	1	4
529.522	1	5
529.692	1	-5
529.862	1	-2
530.032	1	6
530.202	1	0
530.372	1	7
530.542	1	-3
530.712	1	6
530.882	1	3
531.052	1	10
531.222	1	-3
531.392	1	8
531.563	1	1
531.733	1	4
531.903	1	8
532.073	1	-4
532.243	1	2
532.413	1	12
532.583	1	-2
532.753	1	-8
532.923	1	11
533.093	1	6
533.263	1	-5
533.433	1	7
533.603	1	4
533.773	1	-1
533.943	1	-2
534.113	1	5
534.284	1	3
534.454	1	-9
534.624	1	6
534.794	1	-7
534.964	1	5
535.134	1	10
535.304	1	4
535.474	1	-16
535.644	1	10
535.814	1	9
535.984	1	1
536.154	1	1
536.324	1	15
536.494	1	-1
536.664	1	-1
536.834	1	-1
537.004	1	0
537.174	1	6
537.344	1	4
537.514	1	2
537.685	1	-2
537.855	1	-2
538.025	1	3
538.195	1	10
538.365	1	-3
538.535	1	-5
538.705	1	4
538.875	1	7
539.045	1	-2
539.215	1	-15
539.385	1	12
539.555	1	10
539.725	1	-11
539.895	1	9
540.065	1	-2
540.235	1	11
540.405	1	4
540.575	1	2
540.745	1	-7
540.915	1	4
541.085	1	-11
541.255	1	-13
541.425	1	5
541.595	1	7
541.765	1	12
541.935	1	0
542.105	1	4
542.275	1	2
542.445	1	5
542.615	1	8
542.785	1	-8
542.955	1	-2
543.125	1	-3
543.295	1	-1
543.465	1	8
543.635	1	2
543.805	1	12
543.975	1	6
544.145	1	3
544.315	1	-11
544.485	1	5
544.655	1	8
544.825	1	1
544.995	1	7
545.165	1	-5
545.335	1	-2
545.505	1	10
545.675	1	-16
545.845	1	14
546.015	1	4
546.185	1	5
546.355	1	9
546.525	1	2
546.695	1	-1
546.865	1	18
547.035	1	3
547.205	1	8
547.375	1	9
547.545	1	11
547.715	1	-2
547.885	1	0
548.055	1	-11
548.225	1	9
548.395	1	-5
548.565	1	4
548.735	1	3
548.905	1	-2
549.075	1	6
549.245	1	4
549.415	1	-6
549.585	1	5
549.755	1	6
549.925	1	0
550.095	1	5
550.265	1	1
550.435	1	-6
550.605	1	-1
550.775	1	-5
550.945	1	3
551.115	1	5
551.285	1	4
551.455	1	1
551.625	1	-8
551.795	1	-6
551.965	1	9
552.135	1	1
552.305	1	0
552.475	1	1
552.645	1	-1
552.815	1	-2
552.985	1	6
553.155	1	-2
553.325	1	6
553.495	1	2
553.665	1	7
553.835	1	-6
554.004	1	-8
554.174	1	-1
554.344	1	-3
554.514	1	7
554.684	1	-4
554.854	1	5
555.024	1	-3
555.194	1	4
555.364	1	-5
555.534	1	2
555.704	1	8
555.874	1	-3
556.044	1	7
556.214	1	1
556.384	1	-1
556.554	1	1
556.724	1	4
556.894	1	-6
557.064	1	-3
557.234	1	-5
557.404	1	3
557.573	1	-5
557.743	1	6
557.913	1	-8
558.083	1	6
558.253	1	-13
558.423	1	3
558.593	1	12
558.763	1	8
558.933	1	2
559.103	1	7
559.273	1	3
559.443	1	6
559.613	1	5
559.783	1	6
559.953	1	7
560.122	1	-4
560.292	1	-4
560.462	1	8
560.632	1	3
560.802	1	-6
560.972	1	8
561.142	1	11
561.312	1	-6
561.482	1	0
561.652	1	3
561.822	1	-8
561.992	1	-4
562.162	1	9
562.331	1	8
562.501	1	-2
562.671	1	7
562.841	1	-4
563.011	1	-13
563.181	1	8
563.351	1	6
563.521	1	-4
563.691	1	6
563.861	1	6
564.031	1	-4
564.201	1	1
564.370	1	-2
564.540	1	-5
564.710	1	1
564.880	1	-1
565.050	1	-6
565.220	1	0
565.390	1	6
565.560	1	1
565.730	1	7
565.900	1	-15
566.069	1	0
566.239	1	4
566.409	1	2
566.579	1	3
566.749	1	6
566.919	1	7
567.089	1	3
567.259	1	10
567.429	1	3
567.599	1	-6
567.768	1	5
567.938	1	-2
568.108	1	3
568.278	1	-4
568.448	1	-6
568.618	1	-2
568.788	1	-5
568.958	1	-18
569.128	1	-12
569.297	1	-4
569.467	1	6
569.637	1	2
569.807	1	8
569.977	1	-2
570.147	1	2
570.317	1	-1
570.487	1	-1
570.656	1	-7
570.826	1	-4
570.996	1	-1
571.166	1	-5
571.336	1	-1
571.506	1	3
571.676	1	-9
571.846	1	3
572.015	1	10
572.185	1	3
572.355	1	4
572.525	1	-7
572.695	1	6
572.865	1	3
573.035	1	-2
573.205	1	-10
573.374	1	8
573.544	1	-3
573.714	1	-11
573.884	1	3
574.054	1	4
574.224	1	-4
574.394	1	-1
574.563	1	18
574.733	1	4
574.903	1	-3
575.073	1	-2
575.243	1	14
575.413	1	-8
575.583	1	5
575.752	1	0
575.922	1	8
576.092	1	3
576.262	1	9
576.432	1	4
576.602	1	9
576.772	1	-3
576.941	1	7
577.111	1	-7
577.281	1	17
577.451	1	-1
577.621	1	6
577.791	1	-1
577.960	1	0
578.130	1	-2
578.300	1	9
578.470	1	9
578.640	1	-13
578.810	1	-1
578.979	1	-5
579.149	1	-3
579.319	1	6
579.489	1	1
579.659	1	-3
579.829	1	6
579.998	1	-1
580.168	1	-1
580.338	1	9
580.508	1	-3
580.678	1	4
580.848	1	-7
581.017	1	10
581.187	1	-2
581.357	1	-3
581.527	1	-5
581.697	1	-6
581.867	1	10
582.036	1	7
582.206	1	4
582.376	1	3
582.546	1	17
582.716	1	-2
582.885	1	-1
583.055	1	-3
583.225	1	-8
583.395	1	4
583.565	1	-3
583.735	1	2
583.904	1	7
584.074	1	2
584.244	1	-1
584.414	1	-4
584.584	1	2
584.753	1	2
584.923	1	11
585.093	1	5
585.263	1	-1
585.433	1	11
585.602	1	-4
585.772	1	-8
585.942	1	3
586.112	1	-4
586.282	1	5
586.451	1	-3
586.621	1	2
586.791	1	3
586.961	1	2
587.131	1	-2
587.300	1	3
587.470	1	-5
587.640	1	-19
587.810	1	-10
587.980	1	-9
588.149	1	3
588.319	1	6
588.489	1	-5
588.659	1	11
588.829	1	-10
588.998	1	2
589.168	1	-8
589.338	1	5
589.508	1	-3
589.677	1	2
589.847	1	5
590.017	1	-6
590.187	1	3
590.357	1	-8
590.526	1	11
590.696	1	-4
590.866	1	3
591.036	1	-3
591.205	1	6
591.375	1	6
591.545	1	4
591.715	1	-4
591.885	1	-7
592.054	1	0
592.224	1	7
592.394	1	-7
592.564	1	6
592.733	1	1
592.903	1	-6
593.073	1	-2
593.243	1	15
593.412	1	-4
593.582	1	-6
593.752	1	-1
593.922	1	9
594.091	1	-11
594.261	1	-2
594.431	1	4
594.601	1	6
594.771	1	9
594.940	1	-8
595.110	1	0
595.280	1	4
595.450	1	0
595.619	1	0
595.789	1	13
595.959	1	8
596.129	1	-10
596.298	1	5
596.468	1	6
596.638	1	-4
596.808	1	-4
596.977	1	3
597.147	1	5
597.317	1	3
597.487	1	1
597.656	1	-4
597.826	1	-4
597.996	1	-1
598.166	1	4
598.335	1	-1
598.505	1	-10
598.675	1	6
598.844	1	0
599.014	1	2
599.184	1	7
599.354	1	0
599.523	1	5
599.693	1	9
599.863	1	1
600.033	1	-5
600.202	1	13
600.372	1	-4
600.542	1	1
600.712	1	6
600.881	1	8
601.051	1	2
601.221	1	10
601.390	1	2
601.560	1	10
601.730	1	-7
601.900	1	13
602.069	1	-6
602.239	1	-3
602.409	1	-4
602.578	1	14
602.748	1	-5
602.918	1	6
603.088	1	7
603.257	1	3
603.427	1	16
603.597	1	-6
603.767	1	3
603.936	1	11
604.106	1	-1
604.276	1	10
604.445	1	-6
604.615	1	-7
604.785	1	3
604.954	1	2
605.124	1	-2
605.294	1	11
605.464	1	-17
605.633	1	9
605.803	1	9
605.973	1	4
606.142	1	6
606.312	1	-1
606.482	1	1
606.652	1	13
606.821	1	5
606.991	1	2
607.161	1	5
607.330	1	0
607.500	1	8
607.670	1	8
607.839	1	-3
608.009	1	5
608.179	1	1
608.348	1	1
608.518	1	-9
608.688	1	8
608.858	1	0
609.027	1	1
609.197	1	9
609.367	1	2
609.536	1	10
609.706	1	-3
609.876	1	2
610.045	1	4
610.215	1	13
610.385	1	-4
610.554	1	2
610.724	1	-5
610.894	1	5
611.063	1	2
611.233	1	-8
611.403	1	1
611.572	1	7
611.742	1	0
611.912	1	10
612.081	1	0
612.251	1	8
612.421	1	-3
612.590	1	5
612.760	1	4
612.930	1	6
613.099	1	-8
613.269	1	-10
613.439	1	-5
613.608	1	12
613.778	1	-7
613.948	1	5
614.117	1	1
614.287	1	1
614.457	1	0
614.626	1	14
614.796	1	4
614.966	1	5
615.135	1	3
615.305	1	1
615.475	1	-1
615.644	1	-2
615.814	1	-7
615.984	1	5
616.153	1	0
616.323	1	-3
616.493	1	9
616.662	1	-6
616.832	1	3
617.002	1	-4
617.171	1	5
617.341	1	-1
617.511	1	3
617.680	1	-6
617.850	1	3
618.019	1	7
618.189	1	0
618.359	1	4
618.528	1	-3
618.698	1	4
618.868	1	-2
619.037	1	5
619.207	1	3
619.377	1	9
619.546	1	-3
619.716	1	0
619.885	1	7
620.055	1	4
620.225	1	17
620.394	1	7
620.564	1	-4
620.734	1	8
620.903	1	8
621.073	1	1
621.242	1	-1
621.412	1	3
621.582	1	0
621.751	1	4
621.921	1	14
622.091	1	3
622.260	1	-1
622.430	1	9
622.599	1	2
622.769	1	-3
622.939	1	-4
623.108	1	4
623.278	1	19
623.448	1	11
623.617	1	1
623.787	1	13
623.956	1	13
624.126	1	0
624.296	1	2
624.465	1	-2
624.635	1	-1
624.804	1	10
624.974	1	4
625.144	1	6
625.313	1	0
625.483	1	2
625.652	1	13
625.822	1	3
625.992	1	0
626.161	1	-11
626.331	1	1
626.501	1	-2
626.670	1	-2
626.840	1	-1
627.009	1	-3
627.179	1	-6
627.348	1	11
627.518	1	12
627.688	1	-3
627.857	1	-1
628.027	1	-3
628.196	1	-6
628.366	1	4
628.536	1	5
628.705	1	1
628.875	1	6
629.044	1	6
629.214	1	-2
629.384	1	0
629.553	1	9
629.723	1	-3
629.892	1	-3
630.062	1	-6
630.232	1	5
630.401	1	3
630.571	1	2
630.740	1	3
630.910	1	3
631.079	1	-6
631.249	1	11
631.419	1	6
631.588	1	-3
631.758	1	1
631.927	1	1
632.097	1	0
632.266	1	-8
632.436	1	10
632.606	1	-4
632.775	1	14
632.945	1	3
633.114	1	4
633.284	1	0
633.453	1	3
633.623	1	11
633.793	1	3
633.962	1	-4
634.132	1	-3
634.301	1	-4
634.471	1	-1
634.640	1	3
634.810	1	3
634.979	1	7
635.149	1	6
635.319	1	15
635.488	1	-9
635.658	1	11
635.827	1	1
635.997	1	5
636.166	1	-3
636.336	1	6
636.505	1	0
636.675	1	-1
636.845	1	3
637.014	1	6
637.184	1	6
637.353	1	0
637.523	1	4
637.692	1	4
637.862	1	-1
638.031	1	-7
638.201	1	-1
638.370	1	15
638.540	1	1
638.710	1	15
638.879	1	8
639.049	1	-11
639.218	1	9
639.388	1	-7
639.557	1	1
639.727	1	13
639.896	1	0
640.066	1	5
640.235	1	6
640.405	1	-1
640.574	1	-3
640.744	1	-10
640.914	1	-8
641.083	1	2
641.253	1	1
641.422	1	7
641.592	1	-3
641.761	1	-1
641.931	1	2
642.100	1	12
642.270	1	-10
642.439	1	1
642.609	1	4
642.778	1	-4
642.948	1	13
643.117	1	3
643.287	1	1
643.456	1	3
643.626	1	8
643.795	1	3
643.965	1	-1
644.134	1	9
644.304	1	5
644.473	1	-5
644.643	1	3
644.812	1	5
644.982	1	-10
645.151	1	8
645.321	1	-6
645.490	1	4
645.660	1	2
645.829	1	-4
645.999	1	-5
646.168	1	0
646.338	1	1
646.507	1	-2
646.677	1	-1
646.846	1	-2
647.016	1	4
647.185	1	4
647.355	1	2
647.524	1	0
647.694	1	-10
647.863	1	3
648.033	1	-4
648.202	1	6
648.372	1	2
648.541	1	-8
648.711	1	4
648.880	1	4
649.050	1	3
649.219	1	2
649.389	1	-1
649.558	1	0
649.728	1	4
649.897	1	-1
650.067	1	-1
650.236	1	4
650.406	1	8
650.575	1	15
650.745	1	3
650.914	1	2
651.084	1	5
651.253	1	-2
651.423	1	5
651.592	1	-1
651.762	1	5
651.931	1	-2
652.101	1	13
652.270	1	-10
652.440	1	-2
652.609	1	2
652.778	1	1
652.948	1	8
653.117	1	3
653.287	1	6
653.456	1	3
653.626	1	7
653.795	1	-7
653.965	1	-7
654.134	1	-14
654.304	1	3
654.473	1	9
654.643	1	10
654.812	1	9
654.982	1	3
655.151	1	5
655.320	1	8
655.490	1	7
655.659	1	7
655.829	1	-8
655.998	1	-7
656.168	1	5
656.337	1	-2
656.507	1	-9
656.676	1	-3
656.846	1	8
657.015	1	-5
657.184	1	-4
657.354	1	4
657.523	1	12
657.693	1	-6
657.862	1	-5
658.032	1	8
658.201	1	9
658.371	1	-2
658.540	1	2
658.709	1	4
658.879	1	3
659.048	1	-1
659.218	1	-4
659.387	1	2
659.557	1	2
659.726	1	-7
659.895	1	8
660.065	1	13
660.234	1	-2
660.404	1	1
660.573	1	-3
660.743	1	0
660.912	1	-4
661.081	1	-13
661.251	1	5
661.420	1	3
661.590	1	-3
661.759	1	-4
661.929	1	9
662.098	1	-2
662.267	1	0
662.437	1	11
662.606	1	11
662.776	1	-11
662.945	1	14
663.115	1	9
663.284	1	12
663.453	1	7
663.623	1	5
663.792	1	-3
663.962	1	-6
664.131	1	0
664.300	1	-13
664.470	1	9
664.639	1	-1
664.809	1	-1
664.978	1	12
665.148	1	7
665.317	1	-10
665.486	1	1
665.656	1	2
665.825	1	7
665.995	1	9
666.164	1	14
666.333	1	4
666.503	1	15
666.672	1	13
666.842	1	-6
667.011	1	1
667.180	1	7
667.350	1	0
667.519	1	0
667.689	1	-6
667.858	1	0
668.027	1	8
668.197	1	8
668.366	1	2
668.536	1	-5
668.705	1	3
668.874	1	4
669.044	1	14
669.213	1	1
669.382	1	14
669.552	1	12
669.721	1	10
669.891	1	-9
670.060	1	-2
670.229	1	-5
670.399	1	-6
670.568	1	-9
670.738	1	1
670.907	1	5
671.076	1	4
671.246	1	-10
671.415	1	4
671.584	1	5
671.754	1	0
671.923	1	9
672.093	1	-4
672.262	1	-7
672.431	1	0
672.601	1	10
672.770	1	2
672.939	1	-4
673.109	1	6
673.278	1	4
673.448	1	-2
673.617	1	14
673.786	1	-2
