325.333	1	7
325.504	1	18
325.675	1	13
325.846	1	8
326.017	1	6
326.188	1	25
326.359	1	0
326.531	1	15
326.702	1	16
326.873	1	8
327.044	1	8
327.215	1	4
327.386	1	7
327.557	1	18
327.728	1	17
327.899	1	11
328.070	1	21
328.241	1	10
328.412	1	3
328.583	1	14
328.754	1	3
328.926	1	18
329.097	1	6
329.268	1	10
329.439	1	16
329.610	1	13
329.781	1	15
329.952	1	10
330.123	1	16
330.294	1	13
330.465	1	9
330.636	1	28
330.807	1	16
330.978	1	7
331.149	1	17
331.320	1	15
331.492	1	8
331.663	1	17
331.834	1	10
332.005	1	9
332.176	1	24
332.347	1	25
332.518	1	23
332.689	1	19
332.860	1	11
333.031	1	20
333.202	1	6
333.373	1	15
333.544	1	9
333.715	1	13
333.886	1	9
334.057	1	10
334.228	1	7
334.399	1	21
334.570	1	6
334.741	1	12
334.912	1	11
335.084	1	11
335.255	1	14
335.426	1	20
335.597	1	19
335.768	1	15
335.939	1	12
336.110	1	22
336.281	1	18
336.452	1	14
336.623	1	17
336.794	1	19
336.965	1	14
337.136	1	14
337.307	1	17
337.478	1	17
337.649	1	5
337.820	1	8
337.991	1	25
338.162	1	20
338.333	1	29
338.504	1	19
338.675	1	14
338.846	1	23
339.017	1	33
339.188	1	29
339.359	1	22
339.530	1	12
339.701	1	15
339.872	1	15
340.043	1	4
340.214	1	15
340.385	1	28
340.556	1	15
340.727	1	16
340.898	1	23
341.069	1	17
341.240	1	15
341.411	1	25
341.582	1	18
341.753	1	13
341.924	1	22
342.095	1	27
342.266	1	11
342.437	1	10
342.608	1	18
342.779	1	28
342.950	1	22
343.121	1	23
343.292	1	30
343.463	1	22
343.634	1	24
343.805	1	14
343.976	1	8
344.147	1	22
344.318	1	24
344.489	1	27
344.660	1	28
344.831	1	21
345.002	1	21
345.173	1	24
345.344	1	26
345.515	1	28
345.686	1	14
345.857	1	31
346.028	1	15
346.199	1	33
346.370	1	23
346.541	1	30
346.712	1	19
346.883	1	39
347.054	1	31
347.225	1	17
347.396	1	13
347.567	1	26
347.738	1	26
347.909	1	31
348.080	1	28
348.251	1	15
348.422	1	23
348.593	1	31
348.764	1	15
348.935	1	20
349.106	1	24
349.277	1	18
349.448	1	22
349.619	1	30
349.790	1	27
349.961	1	22
350.132	1	32
350.303	1	29
350.474	1	20
350.645	1	29
350.816	1	28
350.987	1	35
351.157	1	24
351.328	1	32
351.499	1	26
351.670	1	22
351.841	1	32
352.012	1	26
352.183	1	26
352.354	1	33
352.525	1	40
352.696	1	32
352.867	1	44
353.038	1	34
353.209	1	31
353.380	1	30
353.551	1	21
353.722	1	36
353.893	1	30
354.064	1	22
354.235	1	40
354.406	1	35
354.576	1	23
354.747	1	33
354.918	1	47
355.089	1	35
355.260	1	29
355.431	1	42
355.602	1	32
355.773	1	22
355.944	1	34
356.115	1	31
356.286	1	31
356.457	1	32
356.628	1	22
356.799	1	24
356.970	1	34
357.141	1	31
357.311	1	41
357.482	1	33
357.653	1	22
357.824	1	36
357.995	1	37
358.166	1	32
358.337	1	27
358.508	1	28
358.679	1	43
358.850	1	24
359.021	1	30
359.192	1	35
359.363	1	16
359.533	1	34
359.704	1	37
359.875	1	30
360.046	1	30
360.217	1	30
360.388	1	22
360.559	1	40
360.730	1	37
360.901	1	27
361.072	1	39
361.243	1	42
361.414	1	49
361.584	1	44
361.755	1	33
361.926	1	35
362.097	1	28
362.268	1	44
362.439	1	39
362.610	1	35
362.781	1	44
362.952	1	27
363.123	1	26
363.293	1	33
363.464	1	31
363.635	1	46
363.806	1	39
363.977	1	19
364.148	1	40
364.319	1	30
364.490	1	33
364.661	1	38
364.832	1	27
365.002	1	34
365.173	1	28
365.344	1	31
365.515	1	42
365.686	1	36
365.857	1	42
366.028	1	31
366.199	1	40
366.370	1	43
366.540	1	30
366.711	1	47
366.882	1	30
367.053	1	43
367.224	1	30
367.395	1	47
367.566	1	42
367.737	1	25
367.908	1	27
368.078	1	31
368.249	1	35
368.420	1	34
368.591	1	35
368.762	1	27
368.933	1	44
369.104	1	43
369.274	1	46
369.445	1	40
369.616	1	35
369.787	1	38
369.958	1	47
370.129	1	23
370.300	1	48
370.471	1	47
370.641	1	28
370.812	1	42
370.983	1	25
371.154	1	43
371.325	1	39
371.496	1	34
371.667	1	46
371.837	1	42
372.008	1	55
372.179	1	43
372.350	1	50
372.521	1	38
372.692	1	46
372.863	1	34
373.033	1	57
373.204	1	33
373.375	1	46
373.546	1	44
373.717	1	41
373.888	1	40
374.059	1	46
374.229	1	29
374.400	1	48
374.571	1	39
374.742	1	36
374.913	1	54
375.084	1	51
375.254	1	53
375.425	1	49
375.596	1	42
375.767	1	28
375.938	1	34
376.109	1	31
376.279	1	36
376.450	1	43
376.621	1	41
376.792	1	50
376.963	1	44
377.134	1	38
377.304	1	41
377.475	1	49
377.646	1	39
377.817	1	43
377.988	1	39
378.159	1	39
378.329	1	50
378.500	1	43
378.671	1	37
378.842	1	46
379.013	1	54
379.184	1	40
379.354	1	51
379.525	1	43
379.696	1	54
379.867	1	34
380.038	1	51
380.209	1	44
380.379	1	54
380.550	1	46
380.721	1	47
380.892	1	47
381.063	1	45
381.233	1	50
381.404	1	54
381.575	1	50
381.746	1	43
381.917	1	45
382.087	1	49
382.258	1	59
382.429	1	55
382.600	1	42
382.771	1	46
382.941	1	47
383.112	1	43
383.283	1	55
383.454	1	45
383.625	1	48
383.795	1	38
383.966	1	50
384.137	1	46
384.308	1	45
384.479	1	55
384.649	1	51
384.820	1	50
384.991	1	39
385.162	1	49
385.333	1	42
385.503	1	59
385.674	1	56
385.845	1	45
386.016	1	45
386.187	1	42
386.357	1	38
386.528	1	47
386.699	1	45
386.870	1	46
387.041	1	43
387.211	1	44
387.382	1	46
387.553	1	44
387.724	1	42
387.894	1	54
388.065	1	61
388.236	1	63
388.407	1	61
388.578	1	48
388.748	1	43
388.919	1	59
389.090	1	53
389.261	1	55
389.431	1	58
389.602	1	47
389.773	1	46
389.944	1	56
390.114	1	60
390.285	1	52
390.456	1	48
390.627	1	61
390.798	1	59
390.968	1	60
391.139	1	54
391.310	1	59
391.481	1	54
391.651	1	47
391.822	1	59
391.993	1	64
392.164	1	34
392.334	1	44
392.505	1	47
392.676	1	59
392.847	1	57
393.017	1	47
393.188	1	46
393.359	1	61
393.530	1	50
393.700	1	61
393.871	1	66
394.042	1	53
394.213	1	58
394.383	1	66
394.554	1	53
394.725	1	57
394.896	1	50
395.066	1	56
395.237	1	33
395.408	1	45
395.579	1	54
395.749	1	58
395.920	1	61
396.091	1	55
396.262	1	51
396.432	1	47
396.603	1	47
396.774	1	56
396.945	1	50
397.115	1	41
397.286	1	60
397.457	1	54
397.627	1	54
397.798	1	57
397.969	1	57
398.140	1	61
398.310	1	61
398.481	1	67
398.652	1	45
398.823	1	55
398.993	1	68
399.164	1	68
399.335	1	48
399.505	1	58
399.676	1	56
399.847	1	56
400.018	1	51
400.188	1	61
400.359	1	65
400.530	1	60
400.700	1	51
400.871	1	70
401.042	1	61
401.213	1	62
401.383	1	59
401.554	1	57
401.725	1	57
401.895	1	39
402.066	1	65
402.237	1	56
402.408	1	69
402.578	1	54
402.749	1	68
402.920	1	66
403.090	1	59
403.261	1	66
403.432	1	52
403.603	1	44
403.773	1	66
403.944	1	70
404.115	1	49
404.285	1	61
404.456	1	55
404.627	1	47
404.797	1	57
404.968	1	51
405.139	1	57
405.310	1	50
405.480	1	59
405.651	1	65
405.822	1	63
405.992	1	59
406.163	1	56
406.334	1	52
406.504	1	49
406.675	1	54
406.846	1	61
407.016	1	51
407.187	1	57
407.358	1	61
407.528	1	55
407.699	1	45
407.870	1	61
408.041	1	53
408.211	1	49
408.382	1	53
408.553	1	52
408.723	1	58
408.894	1	66
409.065	1	78
409.235	1	54
409.406	1	58
409.577	1	47
409.747	1	58
409.918	1	59
410.089	1	60
410.259	1	53
410.430	1	69
410.601	1	68
410.771	1	61
410.942	1	58
411.113	1	66
411.283	1	60
411.454	1	57
411.625	1	61
411.795	1	53
411.966	1	56
412.137	1	56
412.307	1	53
412.478	1	75
412.649	1	61
412.819	1	59
412.990	1	63
413.161	1	57
413.331	1	70
413.502	1	44
413.672	1	56
413.843	1	72
414.014	1	72
414.184	1	60
414.355	1	54
414.526	1	65
414.696	1	57
414.867	1	60
415.038	1	62
415.208	1	53
415.379	1	55
415.550	1	71
415.720	1	54
415.891	1	66
416.062	1	64
416.232	1	58
416.403	1	57
416.573	1	65
416.744	1	53
416.915	1	53
417.085	1	51
417.256	1	58
417.427	1	57
417.597	1	45
417.768	1	63
417.939	1	69
418.109	1	47
418.280	1	66
418.450	1	61
418.621	1	51
418.792	1	53
418.962	1	57
419.133	1	52
419.304	1	50
419.474	1	54
419.645	1	61
419.815	1	63
419.986	1	51
420.157	1	65
420.327	1	58
420.498	1	55
420.669	1	56
420.839	1	50
421.010	1	56
421.180	1	63
421.351	1	68
421.522	1	60
421.692	1	62
421.863	1	56
422.033	1	66
422.204	1	60
422.375	1	62
422.545	1	63
422.716	1	42
422.886	1	68
423.057	1	57
423.228	1	67
423.398	1	57
423.569	1	63
423.740	1	53
423.910	1	61
424.081	1	62
424.251	1	52
424.422	1	56
424.593	1	66
424.763	1	64
424.934	1	67
425.104	1	59
425.275	1	66
425.445	1	71
425.616	1	57
425.787	1	61
425.957	1	53
426.128	1	59
426.298	1	59
426.469	1	51
426.640	1	60
426.810	1	62
426.981	1	56
427.151	1	50
427.322	1	37
427.493	1	60
427.663	1	52
427.834	1	58
428.004	1	48
428.175	1	64
428.345	1	77
428.516	1	60
428.687	1	57
428.857	1	55
429.028	1	58
429.198	1	53
429.369	1	50
429.540	1	49
429.710	1	51
429.881	1	47
430.051	1	53
430.222	1	54
430.392	1	53
430.563	1	64
430.734	1	58
430.904	1	51
431.075	1	45
431.245	1	59
431.416	1	42
431.586	1	60
431.757	1	61
431.927	1	42
432.098	1	52
432.269	1	63
432.439	1	60
432.610	1	54
432.780	1	54
432.951	1	50
433.121	1	61
433.292	1	62
433.462	1	59
433.633	1	54
433.804	1	40
433.974	1	60
434.145	1	65
434.315	1	62
434.486	1	56
434.656	1	59
434.827	1	47
434.997	1	67
435.168	1	53
435.339	1	71
435.509	1	54
435.680	1	57
435.850	1	56
436.021	1	68
436.191	1	64
436.362	1	65
436.532	1	63
436.703	1	69
436.873	1	51
437.044	1	66
437.214	1	70
437.385	1	52
437.556	1	65
437.726	1	58
437.897	1	63
438.067	1	59
438.238	1	58
438.408	1	60
438.579	1	65
438.749	1	49
438.920	1	53
439.090	1	57
439.261	1	53
439.431	1	49
439.602	1	64
439.772	1	66
439.943	1	72
440.113	1	48
440.284	1	68
440.455	1	60
440.625	1	49
440.796	1	46
440.966	1	57
441.137	1	44
441.307	1	54
441.478	1	55
441.648	1	55
441.819	1	49
441.989	1	37
442.160	1	59
442.330	1	72
442.501	1	41
442.671	1	44
442.842	1	60
443.012	1	53
443.183	1	58
443.353	1	57
443.524	1	47
443.694	1	48
443.865	1	53
444.035	1	54
444.206	1	51
444.376	1	64
444.547	1	43
444.717	1	60
444.888	1	46
445.058	1	47
445.229	1	54
445.399	1	59
445.570	1	51
445.740	1	54
445.911	1	52
446.081	1	56
446.252	1	33
446.422	1	64
446.593	1	56
446.763	1	51
446.934	1	60
447.104	1	57
447.275	1	65
447.445	1	56
447.616	1	52
447.786	1	50
447.957	1	52
448.127	1	61
448.298	1	44
448.468	1	47
448.639	1	47
448.809	1	54
448.979	1	49
449.150	1	55
449.320	1	59
449.491	1	60
449.661	1	62
449.832	1	70
450.002	1	53
450.173	1	47
450.343	1	53
450.514	1	55
450.684	1	63
450.855	1	49
451.025	1	50
451.196	1	61
451.366	1	53
451.537	1	52
451.707	1	51
451.878	1	45
452.048	1	47
452.218	1	59
452.389	1	51
452.559	1	56
452.730	1	53
452.900	1	60
453.071	1	50
453.241	1	54
453.412	1	45
453.582	1	53
453.753	1	59
453.923	1	53
454.093	1	64
454.264	1	45
454.434	1	54
454.605	1	56
454.775	1	57
454.946	1	50
455.116	1	49
455.287	1	44
455.457	1	49
455.628	1	52
455.798	1	40
455.968	1	50
456.139	1	47
456.309	1	71
456.480	1	61
456.650	1	66
456.821	1	63
456.991	1	56
457.161	1	47
457.332	1	37
457.502	1	52
457.673	1	51
457.843	1	52
458.014	1	47
458.184	1	57
458.355	1	51
458.525	1	57
458.695	1	53
458.866	1	63
459.036	1	56
459.207	1	45
459.377	1	52
459.548	1	41
459.718	1	47
459.888	1	60
460.059	1	55
460.229	1	51
460.400	1	50
460.570	1	54
460.740	1	53
460.911	1	49
461.081	1	50
461.252	1	45
461.422	1	61
461.593	1	49
461.763	1	37
461.933	1	48
462.104	1	50
462.274	1	46
462.445	1	48
462.615	1	58
462.785	1	49
462.956	1	53
463.126	1	49
463.297	1	46
463.467	1	43
463.638	1	44
463.808	1	49
463.978	1	47
464.149	1	48
464.319	1	50
464.490	1	47
464.660	1	50
464.830	1	40
465.001	1	54
465.171	1	41
465.342	1	38
465.512	1	50
465.682	1	47
465.853	1	37
466.023	1	42
466.194	1	54
466.364	1	62
466.534	1	52
466.705	1	32
466.875	1	49
467.045	1	43
467.216	1	53
467.386	1	54
467.557	1	54
467.727	1	57
467.897	1	41
468.068	1	39
468.238	1	44
468.409	1	46
468.579	1	51
468.749	1	46
468.920	1	46
469.090	1	46
469.260	1	51
469.431	1	46
469.601	1	41
469.772	1	34
469.942	1	47
470.112	1	43
470.283	1	58
470.453	1	39
470.623	1	40
470.794	1	41
470.964	1	46
471.135	1	47
471.305	1	44
471.475	1	39
471.646	1	37
471.816	1	37
471.986	1	55
472.157	1	41
472.327	1	53
472.497	1	49
472.668	1	39
472.838	1	50
473.009	1	49
473.179	1	41
473.349	1	55
473.520	1	34
473.690	1	49
473.860	1	41
474.031	1	44
474.201	1	43
474.371	1	52
474.542	1	47
474.712	1	40
474.882	1	42
475.053	1	50
475.223	1	40
475.394	1	49
475.564	1	33
475.734	1	49
475.905	1	38
476.075	1	48
476.245	1	41
476.416	1	37
476.586	1	40
476.756	1	38
476.927	1	28
477.097	1	39
477.267	1	53
477.438	1	54
477.608	1	42
477.778	1	45
477.949	1	40
478.119	1	36
478.289	1	41
478.460	1	38
478.630	1	61
478.800	1	56
478.971	1	49
479.141	1	34
479.311	1	46
479.482	1	49
479.652	1	45
479.822	1	41
479.993	1	33
480.163	1	47
480.333	1	38
480.504	1	37
480.674	1	31
480.844	1	42
481.015	1	37
481.185	1	38
481.355	1	51
481.525	1	47
481.696	1	41
481.866	1	50
482.036	1	44
482.207	1	40
482.377	1	50
482.547	1	32
482.718	1	46
482.888	1	51
483.058	1	42
483.229	1	42
483.399	1	58
483.569	1	41
483.740	1	39
483.910	1	39
484.080	1	36
484.250	1	34
484.421	1	34
484.591	1	36
484.761	1	45
484.932	1	38
485.102	1	48
485.272	1	38
485.443	1	41
485.613	1	44
485.783	1	50
485.953	1	51
486.124	1	44
486.294	1	38
486.464	1	38
486.635	1	42
486.805	1	34
486.975	1	36
487.146	1	34
487.316	1	38
487.486	1	44
487.656	1	42
487.827	1	33
487.997	1	35
488.167	1	38
488.338	1	33
488.508	1	40
488.678	1	46
488.848	1	37
489.019	1	40
489.189	1	34
489.359	1	36
489.529	1	37
489.700	1	38
489.870	1	26
490.040	1	32
490.211	1	30
490.381	1	46
490.551	1	24
490.721	1	34
490.892	1	43
491.062	1	26
491.232	1	33
491.402	1	26
491.573	1	34
491.743	1	37
491.913	1	23
492.084	1	36
492.254	1	35
492.424	1	48
492.594	1	46
492.765	1	40
492.935	1	19
493.105	1	44
493.275	1	35
493.446	1	40
493.616	1	29
493.786	1	30
493.956	1	25
494.127	1	38
494.297	1	32
494.467	1	34
494.637	1	34
494.808	1	52
494.978	1	33
495.148	1	33
495.318	1	40
495.489	1	33
495.659	1	27
495.829	1	30
495.999	1	32
496.170	1	29
496.340	1	30
496.510	1	33
496.680	1	29
496.851	1	29
497.021	1	25
497.191	1	42
497.361	1	14
497.532	1	28
497.702	1	40
497.872	1	44
498.042	1	42
498.213	1	36
498.383	1	29
498.553	1	30
498.723	1	42
498.894	1	23
499.064	1	23
499.234	1	21
499.404	1	19
499.574	1	24
499.745	1	27
499.915	1	27
500.085	1	30
500.255	1	35
500.426	1	30
500.596	1	29
500.766	1	32
500.936	1	40
501.106	1	28
501.277	1	35
501.447	1	33
501.617	1	28
501.787	1	33
501.958	1	27
502.128	1	12
502.298	1	37
502.468	1	31
502.638	1	27
502.809	1	33
502.979	1	42
503.149	1	18
503.319	1	36
503.489	1	35
503.660	1	20
503.830	1	29
504.000	1	27
504.170	1	24
504.340	1	23
504.511	1	31
504.681	1	18
504.851	1	26
505.021	1	32
505.192	1	23
505.362	1	24
505.532	1	31
505.702	1	18
505.872	1	24
506.043	1	36
506.213	1	31
506.383	1	21
506.553	1	35
506.723	1	21
506.893	1	8
507.064	1	22
507.234	1	19
507.404	1	33
507.574	1	28
507.744	1	35
507.915	1	34
508.085	1	32
508.255	1	37
508.425	1	19
508.595	1	11
508.766	1	19
508.936	1	33
509.106	1	24
509.276	1	26
509.446	1	27
509.616	1	19
509.787	1	39
509.957	1	26
510.127	1	23
510.297	1	21
510.467	1	14
510.638	1	32
510.808	1	4
510.978	1	19
511.148	1	37
511.318	1	18
511.488	1	37
511.659	1	13
511.829	1	28
511.999	1	21
512.169	1	9
512.339	1	15
512.509	1	28
512.680	1	9
512.850	1	22
513.020	1	22
513.190	1	20
513.360	1	25
513.530	1	14
513.700	1	28
513.871	1	21
514.041	1	24
514.211	1	28
514.381	1	27
514.551	1	16
514.721	1	32
514.892	1	15
515.062	1	16
515.232	1	27
515.402	1	29
515.572	1	15
515.742	1	26
515.912	1	24
516.083	1	21
516.253	1	28
516.423	1	28
516.593	1	19
516.763	1	25
516.933	1	4
517.104	1	18
517.274	1	7
517.444	1	15
517.614	1	16
517.784	1	25
517.954	1	28
518.124	1	15
518.294	1	30
518.465	1	18
518.635	1	14
518.805	1	25
518.975	1	18
519.145	1	22
519.315	1	12
519.485	1	11
519.656	1	22
519.826	1	28
519.996	1	18
520.166	1	24
520.336	1	17
520.506	1	4
520.676	1	25
520.846	1	19
521.017	1	22
521.187	1	26
521.357	1	17
521.527	1	17
521.697	1	30
521.867	1	23
522.037	1	13
522.207	1	23
522.377	1	22
522.548	1	22
522.718	1	16
522.888	1	19
523.058	1	15
523.228	1	17
523.398	1	20
523.568	1	7
523.738	1	10
523.909	1	24
524.079	1	14
524.249	1	19
524.419	1	19
524.589	1	22
524.759	1	22
524.929	1	14
525.099	1	12
525.269	1	28
525.439	1	19
525.610	1	24
525.780	1	17
525.950	1	23
526.120	1	15
526.290	1	19
526.460	1	16
526.630	1	20
526.800	1	21
526.970	1	24
527.140	1	27
527.311	1	22
527.481	1	20
527.651	1	17
527.821	1	4
527.991	1	20
528.161	1	19
528.331	1	26
528.501	1	21
528.671	1	16
528.841	1	20
529.011	1	15
529.181	1	18
529.352	1	11
529.522	1	14
529.692	1	13
529.862	1	22
530.032	1	15
530.202	1	16
530.372	1	21
530.542	1	8
530.712	1	18
530.882	1	15
531.052	1	24
531.222	1	12
531.392	1	24
531.563	1	11
531.733	1	15
531.903	1	15
532.073	1	9
532.243	1	10
532.413	1	23
532.583	1	9
532.753	1	18
532.923	1	26
533.093	1	27
533.263	1	9
533.433	1	16
533.603	1	22
533.773	1	8
533.943	1	9
534.113	1	17
534.284	1	11
534.454	1	10
534.624	1	20
534.794	1	7
534.964	1	12
535.134	1	22
535.304	1	16
535.474	1	3
535.644	1	12
535.814	1	18
535.984	1	14
536.154	1	12
536.324	1	26
536.494	1	23
536.664	1	10
536.834	1	6
537.004	1	20
537.174	1	8
537.344	1	18
537.514	1	9
537.685	1	19
537.855	1	21
538.025	1	21
538.195	1	9
538.365	1	17
538.535	1	18
538.705	1	28
538.875	1	21
539.045	1	11
539.215	1	9
539.385	1	19
539.555	1	17
539.725	1	7
539.895	1	18
540.065	1	11
540.235	1	12
540.405	1	15
540.575	1	9
540.745	1	9
540.915	1	20
541.085	1	8
541.255	1	8
541.425	1	19
541.595	1	15
541.765	1	26
541.935	1	9
542.105	1	7
542.275	1	16
542.445	1	9
542.615	1	9
542.785	1	10
542.955	1	4
543.125	1	7
543.295	1	13
543.465	1	14
543.635	1	13
543.805	1	24
543.975	1	8
544.145	1	9
544.315	1	19
544.485	1	8
544.655	1	19
544.825	1	20
544.995	1	21
545.165	1	21
545.335	1	8
545.505	1	27
545.675	1	1
545.845	1	21
546.015	1	13
546.185	1	8
546.355	1	20
546.525	1	12
546.695	1	10
546.865	1	26
547.035	1	14
547.205	1	12
547.375	1	16
547.545	1	21
547.715	1	13
547.885	1	17
548.055	1	-1
548.225	1	15
548.395	1	11
548.565	1	13
548.735	1	10
548.905	1	3
549.075	1	18
549.245	1	6
549.415	1	13
549.585	1	18
549.755	1	17
549.925	1	18
550.095	1	0
550.265	1	14
550.435	1	-1
550.605	1	5
550.775	1	8
550.945	1	17
551.115	1	16
551.285	1	16
551.455	1	22
551.625	1	2
551.795	1	15
551.965	1	22
552.135	1	2
552.305	1	1
552.475	1	16
552.645	1	16
552.815	1	12
552.985	1	13
553.155	1	10
553.325	1	17
553.495	1	8
553.665	1	9
553.835	1	10
554.004	1	10
554.174	1	14
554.344	1	7
554.514	1	14
554.684	1	-2
554.854	1	12
555.024	1	11
555.194	1	17
555.364	1	10
555.534	1	10
555.704	1	21
555.874	1	8
556.044	1	14
556.214	1	14
556.384	1	16
556.554	1	24
556.724	1	8
556.894	1	7
557.064	1	9
557.234	1	8
557.404	1	12
557.573	1	-1
557.743	1	11
557.913	1	8
558.083	1	13
558.253	1	2
558.423	1	10
558.593	1	14
558.763	1	20
558.933	1	7
559.103	1	21
559.273	1	14
559.443	1	13
559.613	1	1
559.783	1	14
559.953	1	21
560.122	1	11
560.292	1	6
560.462	1	19
560.632	1	20
560.802	1	14
560.972	1	8
561.142	1	16
561.312	1	11
561.482	1	18
561.652	1	19
561.822	1	-7
561.992	1	-3
562.162	1	11
562.331	1	17
562.501	1	2
562.671	1	17
562.841	1	10
563.011	1	9
563.181	1	17
563.351	1	10
563.521	1	13
563.691	1	17
563.861	1	4
564.031	1	1
564.201	1	4
564.370	1	11
564.540	1	5
564.710	1	16
564.880	1	12
565.050	1	3
565.220	1	8
565.390	1	6
565.560	1	14
565.730	1	13
565.900	1	0
566.069	1	18
566.239	1	13
566.409	1	5
566.579	1	19
566.749	1	8
566.919	1	11
567.089	1	5
567.259	1	17
567.429	1	19
567.599	1	7
567.768	1	15
567.938	1	4
568.108	1	11
568.278	1	9
568.448	1	16
568.618	1	9
568.788	1	-4
568.958	1	-4
569.128	1	7
569.297	1	13
569.467	1	15
569.637	1	4
569.807	1	8
569.977	1	15
570.147	1	18
570.317	1	20
570.487	1	13
570.656	1	17
570.826	1	9
570.996	1	15
571.166	1	8
571.336	1	0
571.506	1	4
571.676	1	10
571.846	1	-2
572.015	1	13
572.185	1	7
572.355	1	15
572.525	1	3
572.695	1	12
572.865	1	14
573.035	1	6
573.205	1	-8
573.374	1	20
573.544	1	7
573.714	1	21
573.884	1	7
574.054	1	7
574.224	1	8
574.394	1	6
574.563	1	21
574.733	1	14
574.903	1	15
575.073	1	11
575.243	1	10
575.413	1	11
575.583	1	15
575.752	1	10
575.922	1	9
576.092	1	8
576.262	1	11
576.432	1	9
576.602	1	3
576.772	1	1
576.941	1	16
577.111	1	5
577.281	1	28
577.451	1	10
577.621	1	14
577.791	1	11
577.960	1	3
578.130	1	14
578.300	1	14
578.470	1	17
578.640	1	9
578.810	1	8
578.979	1	-3
579.149	1	6
579.319	1	3
579.489	1	13
579.659	1	5
579.829	1	15
579.998	1	1
580.168	1	2
580.338	1	10
580.508	1	10
580.678	1	27
580.848	1	5
581.017	1	5
581.187	1	8
581.357	1	8
581.527	1	0
581.697	1	-1
581.867	1	12
582.036	1	14
582.206	1	1
582.376	1	8
582.546	1	25
582.716	1	7
582.885	1	2
583.055	1	-2
583.225	1	9
583.395	1	5
583.565	1	6
583.735	1	10
583.904	1	16
584.074	1	7
584.244	1	12
584.414	1	6
584.584	1	12
584.753	1	16
584.923	1	17
585.093	1	5
585.263	1	10
585.433	1	22
585.602	1	11
585.772	1	14
585.942	1	13
586.112	1	4
586.282	1	15
586.451	1	-3
586.621	1	6
586.791	1	11
586.961	1	20
587.131	1	14
587.300	1	12
587.470	1	2
587.640	1	-5
587.810	1	3
587.980	1	-5
588.149	1	12
588.319	1	16
588.489	1	0
588.659	1	18
588.829	1	5
588.998	1	5
589.168	1	11
589.338	1	8
589.508	1	13
589.677	1	17
589.847	1	2
590.017	1	9
590.187	1	8
590.357	1	4
590.526	1	8
590.696	1	8
590.866	1	3
591.036	1	7
591.205	1	5
591.375	1	10
591.545	1	14
591.715	1	16
591.885	1	8
592.054	1	4
592.224	1	7
592.394	1	1
592.564	1	9
592.733	1	6
592.903	1	6
593.073	1	-1
593.243	1	3
593.412	1	8
593.582	1	7
593.752	1	13
593.922	1	17
594.091	1	3
594.261	1	13
594.431	1	9
594.601	1	10
594.771	1	6
594.940	1	15
595.110	1	4
595.280	1	8
595.450	1	6
595.619	1	7
595.789	1	9
595.959	1	7
596.129	1	0
596.298	1	6
596.468	1	12
596.638	1	10
596.808	1	7
596.977	1	4
597.147	1	10
597.317	1	11
597.487	1	16
597.656	1	8
597.826	1	5
597.996	1	10
598.166	1	9
598.335	1	3
598.505	1	6
598.675	1	7
598.844	1	14
599.014	1	3
599.184	1	4
599.354	1	10
599.523	1	10
599.693	1	17
599.863	1	16
600.033	1	3
600.202	1	13
600.372	1	8
600.542	1	5
600.712	1	12
600.881	1	16
601.051	1	12
601.221	1	13
601.390	1	15
601.560	1	11
601.730	1	8
601.900	1	16
602.069	1	-10
602.239	1	14
602.409	1	10
602.578	1	15
602.748	1	3
602.918	1	14
603.088	1	19
603.257	1	12
603.427	1	12
603.597	1	5
603.767	1	12
603.936	1	8
604.106	1	11
604.276	1	8
604.445	1	6
604.615	1	4
604.785	1	12
604.954	1	13
605.124	1	14
605.294	1	7
605.464	1	1
605.633	1	11
605.803	1	7
605.973	1	10
606.142	1	20
606.312	1	20
606.482	1	9
606.652	1	10
606.821	1	8
606.991	1	10
607.161	1	11
607.330	1	12
607.500	1	17
607.670	1	15
607.839	1	2
608.009	1	14
608.179	1	3
608.348	1	12
608.518	1	0
608.688	1	8
608.858	1	11
609.027	1	7
609.197	1	16
609.367	1	14
609.536	1	15
609.706	1	1
609.876	1	4
610.045	1	17
610.215	1	17
610.385	1	13
610.554	1	10
610.724	1	18
610.894	1	8
611.063	1	17
611.233	1	4
611.403	1	9
611.572	1	14
611.742	1	5
611.912	1	18
612.081	1	9
612.251	1	11
612.421	1	4
612.590	1	7
612.760	1	18
612.930	1	1
613.099	1	16
613.269	1	2
613.439	1	11
613.608	1	15
613.778	1	4
613.948	1	21
614.117	1	-2
614.287	1	7
614.457	1	7
614.626	1	24
614.796	1	12
614.966	1	8
615.135	1	13
615.305	1	14
615.475	1	0
615.644	1	6
615.814	1	3
615.984	1	23
616.153	1	9
616.323	1	6
616.493	1	18
616.662	1	3
616.832	1	13
617.002	1	3
617.171	1	14
617.341	1	8
617.511	1	5
617.680	1	11
617.850	1	16
618.019	1	9
618.189	1	13
618.359	1	1
618.528	1	2
618.698	1	14
618.868	1	2
619.037	1	16
619.207	1	10
619.377	1	6
619.546	1	-1
619.716	1	11
619.885	1	15
620.055	1	19
620.225	1	7
620.394	1	15
620.564	1	5
620.734	1	5
620.903	1	8
621.073	1	19
621.242	1	6
621.412	1	17
621.582	1	1
621.751	1	6
621.921	1	22
622.091	1	1
622.260	1	12
622.430	1	21
622.599	1	21
622.769	1	6
622.939	1	4
623.108	1	11
623.278	1	27
623.448	1	13
623.617	1	10
623.787	1	15
623.956	1	13
624.126	1	9
624.296	1	21
624.465	1	8
624.635	1	18
624.804	1	13
624.974	1	11
625.144	1	19
625.313	1	17
625.483	1	18
625.652	1	18
625.822	1	6
625.992	1	8
626.161	1	7
626.331	1	14
626.501	1	18
626.670	1	-2
626.840	1	13
627.009	1	8
627.179	1	3
627.348	1	19
627.518	1	15
627.688	1	16
627.857	1	8
628.027	1	3
628.196	1	4
628.366	1	16
628.536	1	15
628.705	1	7
628.875	1	12
629.044	1	14
629.214	1	12
629.384	1	3
629.553	1	9
629.723	1	5
629.892	1	4
630.062	1	0
630.232	1	21
630.401	1	16
630.571	1	21
630.740	1	8
630.910	1	15
631.079	1	15
631.249	1	12
631.419	1	10
631.588	1	15
631.758	1	8
631.927	1	15
632.097	1	9
632.266	1	3
632.436	1	12
632.606	1	-2
632.775	1	12
632.945	1	11
633.114	1	15
633.284	1	12
633.453	1	22
633.623	1	19
633.793	1	10
633.962	1	7
634.132	1	7
634.301	1	11
634.471	1	15
634.640	1	7
634.810	1	17
634.979	1	7
635.149	1	8
635.319	1	9
635.488	1	5
635.658	1	23
635.827	1	11
635.997	1	19
636.166	1	10
636.336	1	14
636.505	1	12
636.675	1	6
636.845	1	19
637.014	1	7
637.184	1	18
637.353	1	10
637.523	1	14
637.692	1	13
637.862	1	6
638.031	1	-4
638.201	1	12
638.370	1	14
638.540	1	15
638.710	1	16
638.879	1	16
639.049	1	5
639.218	1	16
639.388	1	10
639.557	1	21
639.727	1	24
639.896	1	13
640.066	1	15
640.235	1	9
640.405	1	22
640.574	1	-1
640.744	1	8
640.914	1	16
641.083	1	3
641.253	1	14
641.422	1	16
641.592	1	17
641.761	1	14
641.931	1	9
642.100	1	18
642.270	1	7
642.439	1	11
642.609	1	19
642.778	1	6
642.948	1	12
643.117	1	17
643.287	1	7
643.456	1	15
643.626	1	9
643.795	1	5
643.965	1	13
644.134	1	10
644.304	1	19
644.473	1	12
644.643	1	3
644.812	1	6
644.982	1	10
645.151	1	11
645.321	1	7
645.490	1	15
645.660	1	12
645.829	1	9
645.999	1	9
646.168	1	16
646.338	1	12
646.507	1	11
646.677	1	6
646.846	1	15
647.016	1	9
647.185	1	13
647.355	1	13
647.524	1	9
647.694	1	10
647.863	1	15
648.033	1	14
648.202	1	14
648.372	1	9
648.541	1	19
648.711	1	11
648.880	1	10
649.050	1	13
649.219	1	12
649.389	1	13
649.558	1	14
649.728	1	18
649.897	1	18
650.067	1	16
650.236	1	10
650.406	1	16
650.575	1	17
650.745	1	21
650.914	1	9
651.084	1	23
651.253	1	9
651.423	1	8
651.592	1	1
651.762	1	13
651.931	1	17
652.101	1	15
652.270	1	7
652.440	1	24
652.609	1	17
652.778	1	11
652.948	1	16
653.117	1	18
653.287	1	7
653.456	1	18
653.626	1	16
653.795	1	11
653.965	1	13
654.134	1	8
654.304	1	25
654.473	1	7
654.643	1	10
654.812	1	21
654.982	1	12
655.151	1	17
655.320	1	27
655.490	1	13
655.659	1	10
655.829	1	12
655.998	1	5
656.168	1	6
656.337	1	13
656.507	1	6
656.676	1	17
656.846	1	11
657.015	1	13
657.184	1	4
657.354	1	16
657.523	1	11
657.693	1	11
657.862	1	1
658.032	1	17
658.201	1	18
658.371	1	11
658.540	1	8
658.709	1	10
658.879	1	19
659.048	1	14
659.218	1	2
659.387	1	15
659.557	1	16
659.726	1	12
659.895	1	18
660.065	1	16
660.234	1	13
660.404	1	7
660.573	1	17
660.743	1	12
660.912	1	-1
661.081	1	6
661.251	1	21
661.420	1	29
661.590	1	8
661.759	1	9
661.929	1	16
662.098	1	13
662.267	1	21
662.437	1	16
662.606	1	9
662.776	1	4
662.945	1	18
663.115	1	14
663.284	1	11
663.453	1	16
663.623	1	16
663.792	1	10
663.962	1	2
664.131	1	12
664.300	1	-3
664.470	1	17
664.639	1	9
664.809	1	20
664.978	1	12
665.148	1	4
665.317	1	20
665.486	1	15
665.656	1	15
665.825	1	14
665.995	1	14
666.164	1	21
666.333	1	10
666.503	1	6
666.672	1	20
666.842	1	6
667.011	1	15
667.180	1	18
667.350	1	10
667.519	1	11
667.689	1	14
667.858	1	8
668.027	1	18
668.197	1	26
668.366	1	5
668.536	1	8
668.705	1	15
668.874	1	8
669.044	1	21
669.213	1	20
669.382	1	20
669.552	1	15
669.721	1	22
669.891	1	11
670.060	1	9
670.229	1	7
670.399	1	8
670.568	1	6
670.738	1	13
670.907	1	16
671.076	1	18
671.246	1	-3
671.415	1	23
671.584	1	14
671.754	1	16
671.923	1	17
672.093	1	21
672.262	1	8
672.431	1	21
672.601	1	21
672.770	1	13
672.939	1	14
673.109	1	12
673.278	1	16
673.448	1	19
673.617	1	15
673.786	1	9
