325.333	1	-1
325.504	1	12
325.675	1	-5
325.846	1	3
326.017	1	2
326.188	1	7
326.359	1	0
326.531	1	12
326.702	1	11
326.873	1	-1
327.044	1	8
327.215	1	-3
327.386	1	1
327.557	1	11
327.728	1	8
327.899	1	7
328.070	1	8
328.241	1	6
328.412	1	4
328.583	1	7
328.754	1	2
328.926	1	6
329.097	1	5
329.268	1	-2
329.439	1	6
329.610	1	3
329.781	1	5
329.952	1	3
330.123	1	-2
330.294	1	7
330.465	1	9
330.636	1	15
330.807	1	2
330.978	1	2
331.149	1	6
331.320	1	13
331.492	1	3
331.663	1	-4
331.834	1	2
332.005	1	3
332.176	1	9
332.347	1	11
332.518	1	19
332.689	1	5
332.860	1	9
333.031	1	11
333.202	1	3
333.373	1	12
333.544	1	5
333.715	1	5
333.886	1	2
334.057	1	-2
334.228	1	2
334.399	1	8
334.570	1	-5
334.741	1	6
334.912	1	0
335.084	1	5
335.255	1	6
335.426	1	20
335.597	1	12
335.768	1	7
335.939	1	-3
336.110	1	10
336.281	1	2
336.452	1	4
336.623	1	7
336.794	1	3
336.965	1	2
337.136	1	8
337.307	1	14
337.478	1	4
337.649	1	-5
337.820	1	-2
337.991	1	13
338.162	1	11
338.333	1	8
338.504	1	9
338.675	1	7
338.846	1	10
339.017	1	12
339.188	1	9
339.359	1	21
339.530	1	1
339.701	1	-4
339.872	1	8
340.043	1	12
340.214	1	2
340.385	1	15
340.556	1	3
340.727	1	9
340.898	1	15
341.069	1	-6
341.240	1	-5
341.411	1	14
341.582	1	19
341.753	1	1
341.924	1	9
342.095	1	11
342.266	1	1
342.437	1	6
342.608	1	11
342.779	1	5
342.950	1	7
343.121	1	10
343.292	1	8
343.463	1	5
343.634	1	13
343.805	1	17
343.976	1	4
344.147	1	10
344.318	1	10
344.489	1	11
344.660	1	7
344.831	1	7
345.002	1	10
345.173	1	12
345.344	1	9
345.515	1	9
345.686	1	2
345.857	1	1
346.028	1	2
346.199	1	8
346.370	1	6
346.541	1	7
346.712	1	6
346.883	1	26
347.054	1	8
347.225	1	1
347.396	1	7
347.567	1	8
347.738	1	6
347.909	1	3
348.080	1	15
348.251	1	8
348.422	1	-1
348.593	1	8
348.764	1	4
348.935	1	4
349.106	1	7
349.277	1	8
349.448	1	7
349.619	1	16
349.790	1	18
349.961	1	12
350.132	1	3
350.303	1	8
350.474	1	8
350.645	1	20
350.816	1	10
350.987	1	19
351.157	1	17
351.328	1	13
351.499	1	-2
351.670	1	1
351.841	1	1
352.012	1	6
352.183	1	14
352.354	1	10
352.525	1	17
352.696	1	3
352.867	1	13
353.038	1	3
353.209	1	10
353.380	1	2
353.551	1	2
353.722	1	10
353.893	1	6
354.064	1	9
354.235	1	15
354.406	1	15
354.576	1	3
354.747	1	21
354.918	1	14
355.089	1	12
355.260	1	9
355.431	1	15
355.602	1	12
355.773	1	-1
355.944	1	9
356.115	1	2
356.286	1	13
356.457	1	4
356.628	1	6
356.799	1	8
356.970	1	12
357.141	1	17
357.311	1	7
357.482	1	5
357.653	1	14
357.824	1	15
357.995	1	22
358.166	1	15
358.337	1	1
358.508	1	3
358.679	1	20
358.850	1	5
359.021	1	5
359.192	1	-1
359.363	1	4
359.533	1	10
359.704	1	11
359.875	1	7
360.046	1	5
360.217	1	2
360.388	1	3
360.559	1	5
360.730	1	5
360.901	1	13
361.072	1	2
361.243	1	12
361.414	1	13
361.584	1	15
361.755	1	10
361.926	1	4
362.097	1	3
362.268	1	19
362.439	1	19
362.610	1	10
362.781	1	18
362.952	1	1
363.123	1	-2
363.293	1	7
363.464	1	10
363.635	1	13
363.806	1	6
363.977	1	9
364.148	1	29
364.319	1	4
364.490	1	8
364.661	1	4
364.832	1	9
365.002	1	13
365.173	1	-1
365.344	1	14
365.515	1	11
365.686	1	7
365.857	1	10
366.028	1	7
366.199	1	21
366.370	1	16
366.540	1	7
366.711	1	16
366.882	1	9
367.053	1	9
367.224	1	4
367.395	1	15
367.566	1	18
367.737	1	9
367.908	1	15
368.078	1	7
368.249	1	10
368.420	1	7
368.591	1	19
368.762	1	-17
368.933	1	21
369.104	1	13
369.274	1	15
369.445	1	17
369.616	1	14
369.787	1	13
369.958	1	25
370.129	1	5
370.300	1	6
370.471	1	5
370.641	1	7
370.812	1	19
370.983	1	5
371.154	1	11
371.325	1	13
371.496	1	17
371.667	1	19
371.837	1	12
372.008	1	10
372.179	1	17
372.350	1	17
372.521	1	9
372.692	1	15
372.863	1	12
373.033	1	9
373.204	1	22
373.375	1	17
373.546	1	23
373.717	1	11
373.888	1	6
374.059	1	19
374.229	1	16
374.400	1	18
374.571	1	16
374.742	1	15
374.913	1	10
375.084	1	20
375.254	1	13
375.425	1	9
375.596	1	4
375.767	1	2
375.938	1	7
376.109	1	9
376.279	1	21
376.450	1	13
376.621	1	25
376.792	1	11
376.963	1	5
377.134	1	8
377.304	1	12
377.475	1	17
377.646	1	2
377.817	1	16
377.988	1	14
378.159	1	22
378.329	1	22
378.500	1	10
378.671	1	13
378.842	1	6
379.013	1	8
379.184	1	16
379.354	1	17
379.525	1	3
379.696	1	21
379.867	1	-4
380.038	1	5
380.209	1	16
380.379	1	24
380.550	1	10
380.721	1	13
380.892	1	13
381.063	1	9
381.233	1	14
381.404	1	12
381.575	1	14
381.746	1	13
381.917	1	12
382.087	1	3
382.258	1	18
382.429	1	13
382.600	1	27
382.771	1	24
382.941	1	9
383.112	1	10
383.283	1	20
383.454	1	11
383.625	1	12
383.795	1	13
383.966	1	10
384.137	1	23
384.308	1	20
384.479	1	29
384.649	1	26
384.820	1	18
384.991	1	-1
385.162	1	19
385.333	1	19
385.503	1	29
385.674	1	19
385.845	1	20
386.016	1	18
386.187	1	16
386.357	1	8
386.528	1	11
386.699	1	13
386.870	1	6
387.041	1	18
387.211	1	11
387.382	1	9
387.553	1	20
387.724	1	15
387.894	1	24
388.065	1	22
388.236	1	24
388.407	1	13
388.578	1	14
388.748	1	11
388.919	1	15
389.090	1	16
389.261	1	29
389.431	1	22
389.602	1	10
389.773	1	9
389.944	1	21
390.114	1	22
390.285	1	14
390.456	1	16
390.627	1	14
390.798	1	11
390.968	1	14
391.139	1	15
391.310	1	26
391.481	1	8
391.651	1	20
391.822	1	22
391.993	1	11
392.164	1	7
392.334	1	12
392.505	1	15
392.676	1	17
392.847	1	21
393.017	1	20
393.188	1	14
393.359	1	14
393.530	1	13
393.700	1	24
393.871	1	17
394.042	1	22
394.213	1	22
394.383	1	26
394.554	1	18
394.725	1	17
394.896	1	20
395.066	1	24
395.237	1	14
395.408	1	15
395.579	1	14
395.749	1	18
395.920	1	23
396.091	1	13
396.262	1	6
396.432	1	14
396.603	1	19
396.774	1	21
396.945	1	18
397.115	1	13
397.286	1	32
397.457	1	14
397.627	1	20
397.798	1	22
397.969	1	18
398.140	1	19
398.310	1	15
398.481	1	19
398.652	1	12
398.823	1	15
398.993	1	35
399.164	1	19
399.335	1	10
399.505	1	25
399.676	1	15
399.847	1	19
400.018	1	16
400.188	1	24
400.359	1	24
400.530	1	20
400.700	1	20
400.871	1	30
401.042	1	21
401.213	1	23
401.383	1	18
401.554	1	28
401.725	1	20
401.895	1	5
402.066	1	28
402.237	1	27
402.408	1	28
402.578	1	30
402.749	1	26
402.920	1	22
403.090	1	35
403.261	1	18
403.432	1	22
403.603	1	23
403.773	1	32
403.944	1	19
404.115	1	24
404.285	1	26
404.456	1	25
404.627	1	22
404.797	1	21
404.968	1	23
405.139	1	20
405.310	1	15
405.480	1	16
405.651	1	27
405.822	1	35
405.992	1	29
406.163	1	33
406.334	1	25
406.504	1	4
406.675	1	17
406.846	1	21
407.016	1	19
407.187	1	18
407.358	1	21
407.528	1	31
407.699	1	12
407.870	1	23
408.041	1	19
408.211	1	23
408.382	1	24
408.553	1	6
408.723	1	18
408.894	1	22
409.065	1	29
409.235	1	21
409.406	1	17
409.577	1	19
409.747	1	30
409.918	1	12
410.089	1	7
410.259	1	20
410.430	1	16
410.601	1	22
410.771	1	22
410.942	1	12
411.113	1	28
411.283	1	21
411.454	1	24
411.625	1	13
411.795	1	9
411.966	1	19
412.137	1	8
412.307	1	21
412.478	1	26
412.649	1	19
412.819	1	15
412.990	1	20
413.161	1	13
413.331	1	24
413.502	1	5
413.672	1	15
413.843	1	20
414.014	1	31
414.184	1	20
414.355	1	27
414.526	1	20
414.696	1	23
414.867	1	22
415.038	1	18
415.208	1	23
415.379	1	25
415.550	1	33
415.720	1	20
415.891	1	39
416.062	1	10
416.232	1	19
416.403	1	27
416.573	1	23
416.744	1	25
416.915	1	29
417.085	1	18
417.256	1	14
417.427	1	20
417.597	1	28
417.768	1	19
417.939	1	24
418.109	1	15
418.280	1	23
418.450	1	31
418.621	1	21
418.792	1	11
418.962	1	25
419.133	1	34
419.304	1	22
419.474	1	16
419.645	1	10
419.815	1	15
419.986	1	17
420.157	1	28
420.327	1	20
420.498	1	19
420.669	1	43
420.839	1	37
421.010	1	27
421.180	1	14
421.351	1	37
421.522	1	37
421.692	1	24
421.863	1	29
422.033	1	38
422.204	1	22
422.375	1	25
422.545	1	15
422.716	1	16
422.886	1	30
423.057	1	8
423.228	1	20
423.398	1	25
423.569	1	24
423.740	1	15
423.910	1	27
424.081	1	37
424.251	1	28
424.422	1	16
424.593	1	26
424.763	1	26
424.934	1	18
425.104	1	13
425.275	1	17
425.445	1	32
425.616	1	24
425.787	1	35
425.957	1	17
426.128	1	29
426.298	1	25
426.469	1	11
426.640	1	24
426.810	1	29
426.981	1	21
427.151	1	20
427.322	1	14
427.493	1	10
427.663	1	13
427.834	1	14
428.004	1	16
428.175	1	19
428.345	1	24
428.516	1	22
428.687	1	12
428.857	1	19
429.028	1	18
429.198	1	18
429.369	1	14
429.540	1	10
429.710	1	24
429.881	1	18
430.051	1	19
430.222	1	21
430.392	1	23
430.563	1	17
430.734	1	26
430.904	1	16
431.075	1	17
431.245	1	18
431.416	1	-1
431.586	1	20
431.757	1	20
431.927	1	9
432.098	1	22
432.269	1	26
432.439	1	22
432.610	1	40
432.780	1	21
432.951	1	14
433.121	1	33
433.292	1	18
433.462	1	30
433.633	1	33
433.804	1	16
433.974	1	26
434.145	1	27
434.315	1	20
434.486	1	10
434.656	1	18
434.827	1	26
434.997	1	22
435.168	1	22
435.339	1	24
435.509	1	20
435.680	1	25
435.850	1	20
436.021	1	32
436.191	1	27
436.362	1	21
436.532	1	21
436.703	1	28
436.873	1	20
437.044	1	26
437.214	1	25
437.385	1	30
437.556	1	23
437.726	1	19
437.897	1	15
438.067	1	6
438.238	1	27
438.408	1	22
438.579	1	15
438.749	1	9
438.920	1	17
439.090	1	15
439.261	1	10
439.431	1	22
439.602	1	27
439.772	1	25
439.943	1	18
440.113	1	33
440.284	1	27
440.455	1	21
440.625	1	22
440.796	1	13
440.966	1	19
441.137	1	27
441.307	1	24
441.478	1	23
441.648	1	26
441.819	1	22
441.989	1	11
442.160	1	20
442.330	1	24
442.501	1	11
442.671	1	11
442.842	1	21
443.012	1	19
443.183	1	25
443.353	1	27
443.524	1	15
443.694	1	16
443.865	1	25
444.035	1	23
444.206	1	11
444.376	1	35
444.547	1	10
444.717	1	29
444.888	1	20
445.058	1	23
445.229	1	18
445.399	1	18
445.570	1	11
445.740	1	19
445.911	1	25
446.081	1	28
446.252	1	8
446.422	1	21
446.593	1	25
446.763	1	19
446.934	1	34
447.104	1	19
447.275	1	30
447.445	1	13
447.616	1	19
447.786	1	13
447.957	1	22
448.127	1	26
448.298	1	25
448.468	1	18
448.639	1	20
448.809	1	13
448.979	1	25
449.150	1	11
449.320	1	25
449.491	1	21
449.661	1	18
449.832	1	19
450.002	1	28
450.173	1	20
450.343	1	26
450.514	1	30
450.684	1	12
450.855	1	14
451.025	1	24
451.196	1	30
451.366	1	18
451.537	1	15
451.707	1	18
451.878	1	10
452.048	1	24
452.218	1	20
452.389	1	23
452.559	1	19
452.730	1	22
452.900	1	28
453.071	1	21
453.241	1	14
453.412	1	18
453.582	1	16
453.753	1	20
453.923	1	22
454.093	1	16
454.264	1	15
454.434	1	24
454.605	1	22
454.775	1	22
454.946	1	27
455.116	1	24
455.287	1	23
455.457	1	13
455.628	1	20
455.798	1	18
455.968	1	18
456.139	1	20
456.309	1	23
456.480	1	23
456.650	1	35
456.821	1	29
456.991	1	23
457.161	1	18
457.332	1	14
457.502	1	26
457.673	1	29
457.843	1	21
458.014	1	23
458.184	1	15
458.355	1	16
458.525	1	27
458.695	1	18
458.866	1	24
459.036	1	24
459.207	1	26
459.377	1	13
459.548	1	17
459.718	1	13
459.888	1	26
460.059	1	17
460.229	1	17
460.400	1	10
460.570	1	19
460.740	1	14
460.911	1	17
461.081	1	22
461.252	1	7
461.422	1	27
461.593	1	11
461.763	1	20
461.933	1	19
462.104	1	20
462.274	1	18
462.445	1	11
462.615	1	18
462.785	1	14
462.956	1	28
463.126	1	24
463.297	1	18
463.467	1	27
463.638	1	17
463.808	1	30
463.978	1	24
464.149	1	15
464.319	1	25
464.490	1	16
464.660	1	16
464.830	1	19
465.001	1	19
465.171	1	21
465.342	1	13
465.512	1	15
465.682	1	16
465.853	1	10
466.023	1	9
466.194	1	16
466.364	1	28
466.534	1	20
466.705	1	14
466.875	1	22
467.045	1	20
467.216	1	23
467.386	1	25
467.557	1	25
467.727	1	27
467.897	1	8
468.068	1	6
468.238	1	23
468.409	1	16
468.579	1	22
468.749	1	23
468.920	1	16
469.090	1	24
469.260	1	18
469.431	1	20
469.601	1	11
469.772	1	7
469.942	1	22
470.112	1	16
470.283	1	21
470.453	1	25
470.623	1	20
470.794	1	13
470.964	1	16
471.135	1	17
471.305	1	16
471.475	1	12
471.646	1	15
471.816	1	17
471.986	1	30
472.157	1	16
472.327	1	24
472.497	1	24
472.668	1	8
472.838	1	13
473.009	1	22
473.179	1	18
473.349	1	12
473.520	1	18
473.690	1	22
473.860	1	22
474.031	1	22
474.201	1	21
474.371	1	14
474.542	1	12
474.712	1	12
474.882	1	1
475.053	1	18
475.223	1	4
475.394	1	10
475.564	1	12
475.734	1	25
475.905	1	20
476.075	1	11
476.245	1	18
476.416	1	7
476.586	1	20
476.756	1	11
476.927	1	11
477.097	1	8
477.267	1	19
477.438	1	26
477.608	1	19
477.778	1	10
477.949	1	20
478.119	1	14
478.289	1	9
478.460	1	8
478.630	1	25
478.800	1	22
478.971	1	13
479.141	1	17
479.311	1	22
479.482	1	22
479.652	1	20
479.822	1	26
479.993	1	15
480.163	1	22
480.333	1	14
480.504	1	4
480.674	1	18
480.844	1	13
481.015	1	10
481.185	1	11
481.355	1	23
481.525	1	17
481.696	1	14
481.866	1	20
482.036	1	23
482.207	1	13
482.377	1	21
482.547	1	-2
482.718	1	14
482.888	1	20
483.058	1	8
483.229	1	15
483.399	1	19
483.569	1	17
483.740	1	10
483.910	1	9
484.080	1	2
484.250	1	-2
484.421	1	11
484.591	1	9
484.761	1	18
484.932	1	13
485.102	1	18
485.272	1	2
485.443	1	17
485.613	1	22
485.783	1	20
485.953	1	19
486.124	1	15
486.294	1	9
486.464	1	10
486.635	1	11
486.805	1	14
486.975	1	18
487.146	1	4
487.316	1	9
487.486	1	12
487.656	1	9
487.827	1	-1
487.997	1	12
488.167	1	19
488.338	1	17
488.508	1	9
488.678	1	5
488.848	1	6
489.019	1	11
489.189	1	20
489.359	1	21
489.529	1	10
489.700	1	13
489.870	1	7
490.040	1	11
490.211	1	12
490.381	1	11
490.551	1	8
490.721	1	2
490.892	1	15
491.062	1	11
491.232	1	11
491.402	1	19
491.573	1	7
491.743	1	14
491.913	1	0
492.084	1	4
492.254	1	14
492.424	1	10
492.594	1	14
492.765	1	11
492.935	1	9
493.105	1	15
493.275	1	10
493.446	1	4
493.616	1	13
493.786	1	2
493.956	1	3
494.127	1	19
494.297	1	6
494.467	1	7
494.637	1	15
494.808	1	17
494.978	1	2
495.148	1	4
495.318	1	18
495.489	1	1
495.659	1	5
495.829	1	16
495.999	1	15
496.170	1	-3
496.340	1	11
496.510	1	10
496.680	1	9
496.851	1	21
497.021	1	6
497.191	1	10
497.361	1	8
497.532	1	6
497.702	1	13
497.872	1	8
498.042	1	15
498.213	1	18
498.383	1	11
498.553	1	6
498.723	1	12
498.894	1	15
499.064	1	19
499.234	1	15
499.404	1	7
499.574	1	13
499.745	1	3
499.915	1	11
500.085	1	2
500.255	1	5
500.426	1	14
500.596	1	6
500.766	1	0
500.936	1	20
501.106	1	13
501.277	1	6
501.447	1	8
501.617	1	10
501.787	1	9
501.958	1	11
502.128	1	4
502.298	1	12
502.468	1	18
502.638	1	7
502.809	1	8
502.979	1	12
503.149	1	-3
503.319	1	20
503.489	1	-1
503.660	1	7
503.830	1	9
504.000	1	15
504.170	1	6
504.340	1	4
504.511	1	12
504.681	1	4
504.851	1	9
505.021	1	21
505.192	1	1
505.362	1	15
505.532	1	14
505.702	1	8
505.872	1	11
506.043	1	11
506.213	1	21
506.383	1	9
506.553	1	16
506.723	1	11
506.893	1	9
507.064	1	4
507.234	1	8
507.404	1	20
507.574	1	1
507.744	1	16
507.915	1	5
508.085	1	17
508.255	1	5
508.425	1	10
508.595	1	3
508.766	1	7
508.936	1	6
509.106	1	7
509.276	1	5
509.446	1	9
509.616	1	6
509.787	1	16
509.957	1	4
510.127	1	7
510.297	1	-5
510.467	1	0
510.638	1	15
510.808	1	8
510.978	1	-5
511.148	1	21
511.318	1	10
511.488	1	28
511.659	1	-3
511.829	1	4
511.999	1	10
512.169	1	6
512.339	1	5
512.509	1	22
512.680	1	4
512.850	1	10
513.020	1	8
513.190	1	0
513.360	1	0
513.530	1	6
513.700	1	11
513.871	1	11
514.041	1	5
514.211	1	12
514.381	1	15
514.551	1	8
514.721	1	9
514.892	1	4
515.062	1	13
515.232	1	0
515.402	1	8
515.572	1	-3
515.742	1	15
515.912	1	3
516.083	1	10
516.253	1	11
516.423	1	-1
516.593	1	12
516.763	1	16
516.933	1	0
517.104	1	3
517.274	1	5
517.444	1	4
517.614	1	4
517.784	1	1
517.954	1	20
518.124	1	8
518.294	1	9
518.465	1	8
518.635	1	-5
518.805	1	23
518.975	1	-6
519.145	1	16
519.315	1	-9
519.485	1	4
519.656	1	6
519.826	1	12
519.996	1	1
520.166	1	9
520.336	1	15
520.506	1	-4
520.676	1	5
520.846	1	-2
521.017	1	6
521.187	1	12
521.357	1	6
521.527	1	6
521.697	1	7
521.867	1	2
522.037	1	-8
522.207	1	-4
522.377	1	6
522.548	1	12
522.718	1	7
522.888	1	8
523.058	1	9
523.228	1	7
523.398	1	15
523.568	1	-1
523.738	1	7
523.909	1	5
524.079	1	9
524.249	1	4
524.419	1	0
524.589	1	-2
524.759	1	9
524.929	1	1
525.099	1	5
525.269	1	23
525.439	1	5
525.610	1	11
525.780	1	9
525.950	1	1
526.120	1	-7
526.290	1	3
526.460	1	3
526.630	1	14
526.800	1	10
526.970	1	15
527.140	1	6
527.311	1	6
527.481	1	2
527.651	1	11
527.821	1	-3
527.991	1	8
528.161	1	8
528.331	1	8
528.501	1	5
528.671	1	-2
528.841	1	13
529.011	1	1
529.181	1	19
529.352	1	-3
529.522	1	-3
529.692	1	2
529.862	1	4
530.032	1	6
530.202	1	12
530.372	1	2
530.542	1	5
530.712	1	0
530.882	1	6
531.052	1	19
531.222	1	-5
531.392	1	0
531.563	1	5
531.733	1	11
531.903	1	6
532.073	1	8
532.243	1	3
532.413	1	16
532.583	1	-2
532.753	1	5
532.923	1	14
533.093	1	13
533.263	1	-11
533.433	1	12
533.603	1	16
533.773	1	0
533.943	1	0
534.113	1	1
534.284	1	10
534.454	1	1
534.624	1	3
534.794	1	-1
534.964	1	9
535.134	1	15
535.304	1	9
535.474	1	-14
535.644	1	8
535.814	1	12
535.984	1	9
536.154	1	1
536.324	1	8
536.494	1	8
536.664	1	6
536.834	1	-2
537.004	1	11
537.174	1	8
537.344	1	5
537.514	1	1
537.685	1	6
537.855	1	0
538.025	1	4
538.195	1	4
538.365	1	0
538.535	1	2
538.705	1	8
538.875	1	14
539.045	1	4
539.215	1	-10
539.385	1	-12
539.555	1	7
539.725	1	-1
539.895	1	15
540.065	1	3
540.235	1	9
540.405	1	2
540.575	1	3
540.745	1	2
540.915	1	5
541.085	1	-3
541.255	1	-11
541.425	1	5
541.595	1	7
541.765	1	18
541.935	1	-6
542.105	1	12
542.275	1	5
542.445	1	3
542.615	1	12
542.785	1	-2
542.955	1	0
543.125	1	-3
543.295	1	-6
543.465	1	10
543.635	1	4
543.805	1	19
543.975	1	1
544.145	1	8
544.315	1	6
544.485	1	7
544.655	1	8
544.825	1	3
544.995	1	9
545.165	1	1
545.335	1	7
545.505	1	10
545.675	1	-9
545.845	1	6
546.015	1	16
546.185	1	2
546.355	1	9
546.525	1	0
546.695	1	-1
546.865	1	16
547.035	1	5
547.205	1	8
547.375	1	5
547.545	1	15
547.715	1	5
547.885	1	17
548.055	1	-10
548.225	1	13
548.395	1	-1
548.565	1	13
548.735	1	-3
548.905	1	-1
549.075	1	4
549.245	1	7
549.415	1	7
549.585	1	1
549.755	1	5
549.925	1	4
550.095	1	4
550.265	1	-1
550.435	1	1
550.605	1	3
550.775	1	6
550.945	1	9
551.115	1	-2
551.285	1	-4
551.455	1	5
551.625	1	-4
551.795	1	1
551.965	1	17
552.135	1	6
552.305	1	-5
552.475	1	2
552.645	1	7
552.815	1	9
552.985	1	6
553.155	1	7
553.325	1	2
553.495	1	10
553.665	1	8
553.835	1	3
554.004	1	-2
554.174	1	7
554.344	1	3
554.514	1	6
554.684	1	-7
554.854	1	1
555.024	1	3
555.194	1	12
555.364	1	6
555.534	1	3
555.704	1	11
555.874	1	-7
556.044	1	11
556.214	1	11
556.384	1	3
556.554	1	-4
556.724	1	6
556.894	1	-7
557.064	1	6
557.234	1	6
557.404	1	6
557.573	1	-6
557.743	1	2
557.913	1	3
558.083	1	22
558.253	1	-2
558.423	1	-2
558.593	1	10
558.763	1	5
558.933	1	-1
559.103	1	6
559.273	1	6
559.443	1	2
559.613	1	11
559.783	1	8
559.953	1	15
560.122	1	3
560.292	1	1
560.462	1	-13
560.632	1	13
560.802	1	3
560.972	1	12
561.142	1	13
561.312	1	10
561.482	1	5
561.652	1	2
561.822	1	-2
561.992	1	-2
562.162	1	7
562.331	1	15
562.501	1	-6
562.671	1	12
562.841	1	1
563.011	1	-4
563.181	1	10
563.351	1	11
563.521	1	1
563.691	1	10
563.861	1	-4
564.031	1	-5
564.201	1	-2
564.370	1	2
564.540	1	2
564.710	1	4
564.880	1	5
565.050	1	7
565.220	1	2
565.390	1	8
565.560	1	3
565.730	1	5
565.900	1	-4
566.069	1	0
566.239	1	17
566.409	1	7
566.579	1	2
566.749	1	2
566.919	1	3
567.089	1	8
567.259	1	9
567.429	1	1
567.599	1	-5
567.768	1	0
567.938	1	-4
568.108	1	3
568.278	1	7
568.448	1	9
568.618	1	6
568.788	1	-10
568.958	1	-7
569.128	1	1
569.297	1	1
569.467	1	8
569.637	1	14
569.807	1	6
569.977	1	6
570.147	1	7
570.317	1	14
570.487	1	15
570.656	1	8
570.826	1	-1
570.996	1	8
571.166	1	-2
571.336	1	1
571.506	1	3
571.676	1	-5
571.846	1	-8
572.015	1	3
572.185	1	10
572.355	1	16
572.525	1	-3
572.695	1	3
572.865	1	10
573.035	1	-15
573.205	1	-3
573.374	1	16
573.544	1	5
573.714	1	0
573.884	1	5
574.054	1	3
574.224	1	3
574.394	1	-3
574.563	1	9
574.733	1	3
574.903	1	3
575.073	1	0
575.243	1	9
575.413	1	-1
575.583	1	4
575.752	1	-2
575.922	1	3
576.092	1	-3
576.262	1	8
576.432	1	10
576.602	1	0
576.772	1	-5
576.941	1	6
577.111	1	6
577.281	1	14
577.451	1	10
577.621	1	0
577.791	1	9
577.960	1	1
578.130	1	6
578.300	1	14
578.470	1	3
578.640	1	4
578.810	1	2
578.979	1	-6
579.149	1	5
579.319	1	1
579.489	1	0
579.659	1	-1
579.829	1	4
579.998	1	1
580.168	1	-9
580.338	1	7
580.508	1	5
580.678	1	12
580.848	1	-5
581.017	1	7
581.187	1	2
581.357	1	1
581.527	1	-8
581.697	1	-3
581.867	1	8
582.036	1	7
582.206	1	-4
582.376	1	8
582.546	1	12
582.716	1	7
582.885	1	-2
583.055	1	4
583.225	1	-3
583.395	1	-2
583.565	1	-4
583.735	1	3
583.904	1	9
584.074	1	-5
584.244	1	7
584.414	1	-1
584.584	1	13
584.753	1	5
584.923	1	18
585.093	1	-9
585.263	1	6
585.433	1	12
585.602	1	3
585.772	1	9
585.942	1	15
586.112	1	4
586.282	1	2
586.451	1	4
586.621	1	1
586.791	1	6
586.961	1	12
587.131	1	7
587.300	1	18
587.470	1	-1
587.640	1	-5
587.810	1	-7
587.980	1	-5
588.149	1	2
588.319	1	5
588.489	1	4
588.659	1	6
588.829	1	-3
588.998	1	1
589.168	1	4
589.338	1	2
589.508	1	9
589.677	1	-1
589.847	1	4
590.017	1	6
590.187	1	14
590.357	1	-6
590.526	1	14
590.696	1	0
590.866	1	-7
591.036	1	0
591.205	1	4
591.375	1	0
591.545	1	-4
591.715	1	-1
591.885	1	0
592.054	1	2
592.224	1	4
592.394	1	4
592.564	1	2
592.733	1	13
592.903	1	-6
593.073	1	-3
593.243	1	6
593.412	1	-2
593.582	1	4
593.752	1	12
593.922	1	7
594.091	1	0
594.261	1	2
594.431	1	8
594.601	1	-2
594.771	1	7
594.940	1	-3
595.110	1	4
595.280	1	13
595.450	1	7
595.619	1	-2
595.789	1	14
595.959	1	4
596.129	1	-1
596.298	1	5
596.468	1	4
596.638	1	4
596.808	1	0
596.977	1	-3
597.147	1	9
597.317	1	15
597.487	1	11
597.656	1	-3
597.826	1	8
597.996	1	-1
598.166	1	6
598.335	1	-7
598.505	1	1
598.675	1	-1
598.844	1	3
599.014	1	2
599.184	1	-3
599.354	1	-8
599.523	1	3
599.693	1	9
599.863	1	5
600.033	1	13
600.202	1	13
600.372	1	6
600.542	1	6
600.712	1	11
600.881	1	5
601.051	1	3
601.221	1	4
601.390	1	7
601.560	1	4
601.730	1	2
601.900	1	18
602.069	1	-8
602.239	1	8
602.409	1	-2
602.578	1	9
602.748	1	-5
602.918	1	6
603.088	1	14
603.257	1	10
603.427	1	7
603.597	1	4
603.767	1	4
603.936	1	10
604.106	1	-1
604.276	1	6
604.445	1	1
604.615	1	1
604.785	1	8
604.954	1	8
605.124	1	1
605.294	1	9
605.464	1	-5
605.633	1	6
605.803	1	4
605.973	1	6
606.142	1	4
606.312	1	15
606.482	1	-2
606.652	1	18
606.821	1	4
606.991	1	10
607.161	1	8
607.330	1	-1
607.500	1	10
607.670	1	3
607.839	1	9
608.009	1	7
608.179	1	-1
608.348	1	1
608.518	1	-1
608.688	1	9
608.858	1	7
609.027	1	3
609.197	1	6
609.367	1	-4
609.536	1	13
609.706	1	7
609.876	1	0
610.045	1	5
610.215	1	15
610.385	1	-2
610.554	1	13
610.724	1	5
610.894	1	4
611.063	1	-4
611.233	1	-8
611.403	1	1
611.572	1	5
611.742	1	5
611.912	1	9
612.081	1	3
612.251	1	17
612.421	1	0
612.590	1	8
612.760	1	6
612.930	1	-3
613.099	1	8
613.269	1	2
613.439	1	10
613.608	1	8
613.778	1	-3
613.948	1	10
614.117	1	10
614.287	1	3
614.457	1	6
614.626	1	15
614.796	1	3
614.966	1	3
615.135	1	6
615.305	1	10
615.475	1	-5
615.644	1	5
615.814	1	2
615.984	1	13
616.153	1	7
616.323	1	4
616.493	1	19
616.662	1	3
616.832	1	0
617.002	1	1
617.171	1	8
617.341	1	-3
617.511	1	4
617.680	1	-1
617.850	1	2
618.019	1	7
618.189	1	2
618.359	1	0
618.528	1	6
618.698	1	11
618.868	1	-7
619.037	1	10
619.207	1	10
619.377	1	7
619.546	1	1
619.716	1	2
619.885	1	-3
620.055	1	9
620.225	1	11
620.394	1	8
620.564	1	4
620.734	1	2
620.903	1	7
621.073	1	-1
621.242	1	1
621.412	1	2
621.582	1	-3
621.751	1	0
621.921	1	17
622.091	1	8
622.260	1	17
622.430	1	9
622.599	1	13
622.769	1	-2
622.939	1	1
623.108	1	5
623.278	1	20
623.448	1	10
623.617	1	3
623.787	1	4
623.956	1	17
624.126	1	0
624.296	1	4
624.465	1	2
624.635	1	7
624.804	1	3
624.974	1	3
625.144	1	15
625.313	1	7
625.483	1	0
625.652	1	19
625.822	1	4
625.992	1	13
626.161	1	1
626.331	1	9
626.501	1	3
626.670	1	2
626.840	1	6
627.009	1	3
627.179	1	-9
627.348	1	10
627.518	1	11
627.688	1	11
627.857	1	-1
628.027	1	-3
628.196	1	-4
628.366	1	9
628.536	1	7
628.705	1	10
628.875	1	6
629.044	1	15
629.214	1	-4
629.384	1	3
629.553	1	6
629.723	1	-4
629.892	1	5
630.062	1	-12
630.232	1	10
630.401	1	-4
630.571	1	20
630.740	1	1
630.910	1	-1
631.079	1	7
631.249	1	10
631.419	1	19
631.588	1	1
631.758	1	11
631.927	1	0
632.097	1	1
632.266	1	2
632.436	1	8
632.606	1	-5
632.775	1	11
632.945	1	-3
633.114	1	12
633.284	1	2
633.453	1	9
633.623	1	4
633.793	1	4
633.962	1	5
634.132	1	-1
634.301	1	3
634.471	1	5
634.640	1	2
634.810	1	12
634.979	1	4
635.149	1	4
635.319	1	7
635.488	1	4
635.658	1	12
635.827	1	3
635.997	1	5
636.166	1	11
636.336	1	7
636.505	1	5
636.675	1	4
636.845	1	7
637.014	1	11
637.184	1	16
637.353	1	5
637.523	1	-2
637.692	1	1
637.862	1	-7
638.031	1	1
638.201	1	4
638.370	1	4
638.540	1	6
638.710	1	12
638.879	1	13
639.049	1	-2
639.218	1	15
639.388	1	11
639.557	1	11
639.727	1	2
639.896	1	9
640.066	1	13
640.235	1	-3
640.405	1	16
640.574	1	0
640.744	1	-2
640.914	1	6
641.083	1	2
641.253	1	-1
641.422	1	5
641.592	1	1
641.761	1	-1
641.931	1	0
642.100	1	16
642.270	1	-2
642.439	1	9
642.609	1	3
642.778	1	1
642.948	1	9
643.117	1	6
643.287	1	2
643.456	1	6
643.626	1	2
643.795	1	2
643.965	1	17
644.134	1	10
644.304	1	5
644.473	1	7
644.643	1	-6
644.812	1	6
644.982	1	6
645.151	1	7
645.321	1	8
645.490	1	17
645.660	1	-1
645.829	1	7
645.999	1	9
646.168	1	1
646.338	1	7
646.507	1	2
646.677	1	0
646.846	1	5
647.016	1	5
647.185	1	7
647.355	1	10
647.524	1	5
647.694	1	9
647.863	1	4
648.033	1	8
648.202	1	3
648.372	1	-5
648.541	1	6
648.711	1	1
648.880	1	6
649.050	1	11
649.219	1	11
649.389	1	-3
649.558	1	11
649.728	1	3
649.897	1	2
650.067	1	5
650.236	1	11
650.406	1	10
650.575	1	12
650.745	1	15
650.914	1	6
651.084	1	1
651.253	1	-1
651.423	1	12
651.592	1	2
651.762	1	9
651.931	1	10
652.101	1	20
652.270	1	-2
652.440	1	9
652.609	1	6
652.778	1	8
652.948	1	2
653.117	1	9
653.287	1	-4
653.456	1	0
653.626	1	13
653.795	1	8
653.965	1	-4
654.134	1	-4
654.304	1	3
654.473	1	-1
654.643	1	6
654.812	1	10
654.982	1	4
655.151	1	11
655.320	1	12
655.490	1	5
655.659	1	4
655.829	1	7
655.998	1	-7
656.168	1	5
656.337	1	2
656.507	1	-4
656.676	1	2
656.846	1	3
657.015	1	11
657.184	1	-4
657.354	1	7
657.523	1	2
657.693	1	-4
657.862	1	-3
658.032	1	2
658.201	1	13
658.371	1	-6
658.540	1	2
658.709	1	5
658.879	1	22
659.048	1	10
659.218	1	-4
659.387	1	6
659.557	1	1
659.726	1	-2
659.895	1	9
660.065	1	19
660.234	1	7
660.404	1	4
660.573	1	6
660.743	1	5
660.912	1	4
661.081	1	1
661.251	1	14
661.420	1	1
661.590	1	3
661.759	1	0
661.929	1	3
662.098	1	0
662.267	1	11
662.437	1	14
662.606	1	6
662.776	1	-8
662.945	1	7
663.115	1	4
663.284	1	-3
663.453	1	10
663.623	1	13
663.792	1	5
663.962	1	5
664.131	1	7
664.300	1	-16
664.470	1	12
664.639	1	-7
664.809	1	5
664.978	1	6
665.148	1	-2
665.317	1	0
665.486	1	3
665.656	1	21
665.825	1	13
665.995	1	0
666.164	1	15
666.333	1	-1
666.503	1	8
666.672	1	9
666.842	1	6
667.011	1	-7
667.180	1	7
667.350	1	7
667.519	1	9
667.689	1	6
667.858	1	8
668.027	1	7
668.197	1	15
668.366	1	-4
668.536	1	-4
668.705	1	6
668.874	1	8
669.044	1	10
669.213	1	10
669.382	1	17
669.552	1	16
669.721	1	-6
669.891	1	4
670.060	1	7
670.229	1	-9
670.399	1	7
670.568	1	1
670.738	1	-5
670.907	1	4
671.076	1	4
671.246	1	5
671.415	1	12
671.584	1	9
671.754	1	5
671.923	1	7
672.093	1	-1
672.262	1	4
672.431	1	10
672.601	1	15
672.770	1	2
672.939	1	5
673.109	1	11
673.278	1	2
673.448	1	14
673.617	1	6
673.786	1	4
