325.333	1	-2
325.504	1	12
325.675	1	1
325.846	1	9
326.017	1	8
326.188	1	1
326.359	1	19
326.531	1	20
326.702	1	7
326.873	1	5
327.044	1	10
327.215	1	-9
327.386	1	10
327.557	1	5
327.728	1	4
327.899	1	-2
328.070	1	13
328.241	1	11
328.412	1	3
328.583	1	5
328.754	1	-3
328.926	1	12
329.097	1	6
329.268	1	3
329.439	1	4
329.610	1	15
329.781	1	14
329.952	1	5
330.123	1	11
330.294	1	8
330.465	1	15
330.636	1	19
330.807	1	9
330.978	1	15
331.149	1	4
331.320	1	17
331.492	1	0
331.663	1	8
331.834	1	-6
332.005	1	5
332.176	1	15
332.347	1	26
332.518	1	21
332.689	1	2
332.860	1	6
333.031	1	18
333.202	1	3
333.373	1	4
333.544	1	6
333.715	1	6
333.886	1	2
334.057	1	-1
334.228	1	3
334.399	1	22
334.570	1	-5
334.741	1	12
334.912	1	11
335.084	1	8
335.255	1	5
335.426	1	11
335.597	1	12
335.768	1	3
335.939	1	-2
336.110	1	4
336.281	1	6
336.452	1	9
336.623	1	6
336.794	1	3
336.965	1	8
337.136	1	12
337.307	1	13
337.478	1	6
337.649	1	-4
337.820	1	-1
337.991	1	14
338.162	1	13
338.333	1	8
338.504	1	20
338.675	1	25
338.846	1	13
339.017	1	16
339.188	1	15
339.359	1	15
339.530	1	16
339.701	1	6
339.872	1	13
340.043	1	11
340.214	1	4
340.385	1	15
340.556	1	10
340.727	1	6
340.898	1	17
341.069	1	1
341.240	1	8
341.411	1	12
341.582	1	9
341.753	1	6
341.924	1	8
342.095	1	23
342.266	1	6
342.437	1	0
342.608	1	9
342.779	1	17
342.950	1	7
343.121	1	7
343.292	1	14
343.463	1	12
343.634	1	14
343.805	1	5
343.976	1	1
344.147	1	15
344.318	1	15
344.489	1	11
344.660	1	12
344.831	1	4
345.002	1	19
345.173	1	22
345.344	1	4
345.515	1	12
345.686	1	10
345.857	1	10
346.028	1	4
346.199	1	4
346.370	1	2
346.541	1	12
346.712	1	6
346.883	1	21
347.054	1	2
347.225	1	7
347.396	1	8
347.567	1	18
347.738	1	14
347.909	1	20
348.080	1	8
348.251	1	15
348.422	1	3
348.593	1	14
348.764	1	5
348.935	1	6
349.106	1	16
349.277	1	12
349.448	1	14
349.619	1	19
349.790	1	12
349.961	1	10
350.132	1	17
350.303	1	7
350.474	1	9
350.645	1	10
350.816	1	10
350.987	1	23
351.157	1	18
351.328	1	9
351.499	1	14
351.670	1	10
351.841	1	6
352.012	1	16
352.183	1	14
352.354	1	18
352.525	1	15
352.696	1	15
352.867	1	16
353.038	1	1
353.209	1	15
353.380	1	18
353.551	1	3
353.722	1	17
353.893	1	12
354.064	1	11
354.235	1	21
354.406	1	21
354.576	1	0
354.747	1	13
354.918	1	23
355.089	1	11
355.260	1	17
355.431	1	13
355.602	1	15
355.773	1	18
355.944	1	18
356.115	1	9
356.286	1	10
356.457	1	23
356.628	1	6
356.799	1	9
356.970	1	14
357.141	1	24
357.311	1	11
357.482	1	14
357.653	1	16
357.824	1	20
357.995	1	17
358.166	1	13
358.337	1	8
358.508	1	7
358.679	1	12
358.850	1	20
359.021	1	24
359.192	1	13
359.363	1	0
359.533	1	11
359.704	1	16
359.875	1	14
360.046	1	14
360.217	1	2
360.388	1	13
360.559	1	17
360.730	1	18
360.901	1	8
361.072	1	11
361.243	1	7
361.414	1	16
361.584	1	14
361.755	1	18
361.926	1	14
362.097	1	10
362.268	1	25
362.439	1	24
362.610	1	12
362.781	1	21
362.952	1	20
363.123	1	16
363.293	1	4
363.464	1	26
363.635	1	19
363.806	1	18
363.977	1	15
364.148	1	18
364.319	1	10
364.490	1	17
364.661	1	17
364.832	1	18
365.002	1	9
365.173	1	9
365.344	1	15
365.515	1	14
365.686	1	3
365.857	1	15
366.028	1	7
366.199	1	25
366.370	1	19
366.540	1	13
366.711	1	18
366.882	1	12
367.053	1	18
367.224	1	9
367.395	1	16
367.566	1	24
367.737	1	17
367.908	1	6
368.078	1	21
368.249	1	26
368.420	1	6
368.591	1	27
368.762	1	2
368.933	1	21
369.104	1	10
369.274	1	26
369.445	1	21
369.616	1	2
369.787	1	13
369.958	1	28
370.129	1	13
370.300	1	12
370.471	1	16
370.641	1	10
370.812	1	26
370.983	1	9
371.154	1	21
371.325	1	19
371.496	1	24
371.667	1	24
371.837	1	12
372.008	1	21
372.179	1	14
372.350	1	16
372.521	1	24
372.692	1	10
372.863	1	20
373.033	1	30
373.204	1	20
373.375	1	15
373.546	1	27
373.717	1	17
373.888	1	17
374.059	1	24
374.229	1	25
374.400	1	15
374.571	1	25
374.742	1	15
374.913	1	28
375.084	1	27
375.254	1	17
375.425	1	11
375.596	1	15
375.767	1	9
375.938	1	25
376.109	1	10
376.279	1	21
376.450	1	12
376.621	1	21
376.792	1	19
376.963	1	13
377.134	1	6
377.304	1	21
377.475	1	25
377.646	1	10
377.817	1	8
377.988	1	24
378.159	1	16
378.329	1	19
378.500	1	16
378.671	1	13
378.842	1	11
379.013	1	16
379.184	1	31
379.354	1	29
379.525	1	17
379.696	1	22
379.867	1	9
380.038	1	19
380.209	1	9
380.379	1	23
380.550	1	9
380.721	1	23
380.892	1	31
381.063	1	24
381.233	1	22
381.404	1	14
381.575	1	17
381.746	1	19
381.917	1	16
382.087	1	20
382.258	1	25
382.429	1	22
382.600	1	23
382.771	1	18
382.941	1	26
383.112	1	14
383.283	1	25
383.454	1	14
383.625	1	16
383.795	1	11
383.966	1	16
384.137	1	12
384.308	1	28
384.479	1	29
384.649	1	25
384.820	1	14
384.991	1	7
385.162	1	23
385.333	1	20
385.503	1	24
385.674	1	19
385.845	1	23
386.016	1	29
386.187	1	19
386.357	1	14
386.528	1	10
386.699	1	15
386.870	1	16
387.041	1	23
387.211	1	24
387.382	1	18
387.553	1	29
387.724	1	14
387.894	1	34
388.065	1	31
388.236	1	21
388.407	1	21
388.578	1	24
388.748	1	27
388.919	1	26
389.090	1	11
389.261	1	32
389.431	1	28
389.602	1	23
389.773	1	14
389.944	1	35
390.114	1	25
390.285	1	22
390.456	1	26
390.627	1	23
390.798	1	24
390.968	1	16
391.139	1	20
391.310	1	37
391.481	1	27
391.651	1	22
391.822	1	36
391.993	1	23
392.164	1	13
392.334	1	21
392.505	1	25
392.676	1	26
392.847	1	29
393.017	1	26
393.188	1	22
393.359	1	24
393.530	1	26
393.700	1	31
393.871	1	20
394.042	1	22
394.213	1	29
394.383	1	29
394.554	1	26
394.725	1	31
394.896	1	32
395.066	1	25
395.237	1	16
395.408	1	28
395.579	1	31
395.749	1	21
395.920	1	26
396.091	1	32
396.262	1	9
396.432	1	24
396.603	1	30
396.774	1	32
396.945	1	15
397.115	1	22
397.286	1	25
397.457	1	26
397.627	1	26
397.798	1	23
397.969	1	17
398.140	1	17
398.310	1	25
398.481	1	34
398.652	1	23
398.823	1	26
398.993	1	39
399.164	1	18
399.335	1	31
399.505	1	34
399.676	1	29
399.847	1	30
400.018	1	26
400.188	1	32
400.359	1	32
400.530	1	12
400.700	1	25
400.871	1	32
401.042	1	30
401.213	1	32
401.383	1	31
401.554	1	27
401.725	1	28
401.895	1	31
402.066	1	31
402.237	1	44
402.408	1	40
402.578	1	32
402.749	1	37
402.920	1	32
403.090	1	35
403.261	1	34
403.432	1	26
403.603	1	19
403.773	1	44
403.944	1	33
404.115	1	13
404.285	1	37
404.456	1	32
404.627	1	24
404.797	1	38
404.968	1	37
405.139	1	22
405.310	1	29
405.480	1	29
405.651	1	27
405.822	1	41
405.992	1	22
406.163	1	34
406.334	1	37
406.504	1	24
406.675	1	31
406.846	1	43
407.016	1	32
407.187	1	31
407.358	1	22
407.528	1	27
407.699	1	33
407.870	1	27
408.041	1	29
408.211	1	32
408.382	1	35
408.553	1	20
408.723	1	28
408.894	1	34
409.065	1	38
409.235	1	29
409.406	1	31
409.577	1	22
409.747	1	38
409.918	1	23
410.089	1	19
410.259	1	23
410.430	1	28
410.601	1	29
410.771	1	26
410.942	1	13
411.113	1	37
411.283	1	35
411.454	1	35
411.625	1	34
411.795	1	28
411.966	1	28
412.137	1	34
412.307	1	19
412.478	1	39
412.649	1	35
412.819	1	21
412.990	1	35
413.161	1	44
413.331	1	21
413.502	1	31
413.672	1	30
413.843	1	25
414.014	1	53
414.184	1	30
414.355	1	27
414.526	1	32
414.696	1	34
414.867	1	30
415.038	1	31
415.208	1	30
415.379	1	35
415.550	1	36
415.720	1	27
415.891	1	36
416.062	1	31
416.232	1	39
416.403	1	30
416.573	1	41
416.744	1	26
416.915	1	41
417.085	1	25
417.256	1	34
417.427	1	29
417.597	1	38
417.768	1	26
417.939	1	33
418.109	1	23
418.280	1	28
418.450	1	27
418.621	1	33
418.792	1	17
418.962	1	23
419.133	1	36
419.304	1	21
419.474	1	17
419.645	1	30
419.815	1	32
419.986	1	21
420.157	1	41
420.327	1	38
420.498	1	23
420.669	1	42
420.839	1	34
421.010	1	26
421.180	1	17
421.351	1	35
421.522	1	35
421.692	1	28
421.863	1	25
422.033	1	55
422.204	1	37
422.375	1	24
422.545	1	35
422.716	1	37
422.886	1	28
423.057	1	25
423.228	1	35
423.398	1	28
423.569	1	31
423.740	1	22
423.910	1	40
424.081	1	33
424.251	1	24
424.422	1	27
424.593	1	22
424.763	1	29
424.934	1	35
425.104	1	30
425.275	1	45
425.445	1	48
425.616	1	32
425.787	1	36
425.957	1	31
426.128	1	35
426.298	1	26
426.469	1	26
426.640	1	28
426.810	1	33
426.981	1	37
427.151	1	24
427.322	1	27
427.493	1	26
427.663	1	33
427.834	1	30
428.004	1	40
428.175	1	28
428.345	1	40
428.516	1	39
428.687	1	27
428.857	1	36
429.028	1	42
429.198	1	34
429.369	1	27
429.540	1	28
429.710	1	40
429.881	1	32
430.051	1	26
430.222	1	31
430.392	1	14
430.563	1	31
430.734	1	41
430.904	1	10
431.075	1	26
431.245	1	28
431.416	1	17
431.586	1	34
431.757	1	26
431.927	1	8
432.098	1	35
432.269	1	32
432.439	1	24
432.610	1	38
432.780	1	31
432.951	1	34
433.121	1	32
433.292	1	33
433.462	1	30
433.633	1	34
433.804	1	33
433.974	1	24
434.145	1	23
434.315	1	32
434.486	1	20
434.656	1	28
434.827	1	42
434.997	1	38
435.168	1	35
435.339	1	27
435.509	1	22
435.680	1	35
435.850	1	18
436.021	1	33
436.191	1	32
436.362	1	33
436.532	1	33
436.703	1	28
436.873	1	32
437.044	1	32
437.214	1	29
437.385	1	37
437.556	1	38
437.726	1	23
437.897	1	32
438.067	1	24
438.238	1	36
438.408	1	30
438.579	1	26
438.749	1	23
438.920	1	28
439.090	1	25
439.261	1	34
439.431	1	37
439.602	1	37
439.772	1	40
439.943	1	35
440.113	1	31
440.284	1	29
440.455	1	36
440.625	1	27
440.796	1	18
440.966	1	33
441.137	1	25
441.307	1	25
441.478	1	34
441.648	1	24
441.819	1	22
441.989	1	25
442.160	1	25
442.330	1	33
442.501	1	30
442.671	1	16
442.842	1	31
443.012	1	30
443.183	1	30
443.353	1	27
443.524	1	33
443.694	1	35
443.865	1	30
444.035	1	23
444.206	1	27
444.376	1	34
444.547	1	26
444.717	1	39
444.888	1	16
445.058	1	43
445.229	1	26
445.399	1	29
445.570	1	24
445.740	1	27
445.911	1	36
446.081	1	34
446.252	1	12
446.422	1	44
446.593	1	28
446.763	1	35
446.934	1	38
447.104	1	27
447.275	1	38
447.445	1	33
447.616	1	26
447.786	1	29
447.957	1	25
448.127	1	34
448.298	1	29
448.468	1	27
448.639	1	19
448.809	1	19
448.979	1	28
449.150	1	31
449.320	1	34
449.491	1	33
449.661	1	35
449.832	1	37
450.002	1	26
450.173	1	31
450.343	1	31
450.514	1	26
450.684	1	34
450.855	1	39
451.025	1	24
451.196	1	35
451.366	1	23
451.537	1	21
451.707	1	34
451.878	1	22
452.048	1	22
452.218	1	24
452.389	1	26
452.559	1	28
452.730	1	14
452.900	1	28
453.071	1	35
453.241	1	24
453.412	1	14
453.582	1	23
453.753	1	29
453.923	1	28
454.093	1	31
454.264	1	16
454.434	1	18
454.605	1	20
454.775	1	32
454.946	1	28
455.116	1	20
455.287	1	31
455.457	1	27
455.628	1	25
455.798	1	25
455.968	1	36
456.139	1	24
456.309	1	29
456.480	1	21
456.650	1	32
456.821	1	30
456.991	1	33
457.161	1	29
457.332	1	19
457.502	1	36
457.673	1	31
457.843	1	24
458.014	1	23
458.184	1	30
458.355	1	24
458.525	1	26
458.695	1	30
458.866	1	34
459.036	1	26
459.207	1	34
459.377	1	26
459.548	1	15
459.718	1	33
459.888	1	20
460.059	1	32
460.229	1	35
460.400	1	22
460.570	1	24
460.740	1	20
460.911	1	22
461.081	1	26
461.252	1	22
461.422	1	22
461.593	1	23
461.763	1	26
461.933	1	19
462.104	1	25
462.274	1	13
462.445	1	20
462.615	1	18
462.785	1	26
462.956	1	25
463.126	1	24
463.297	1	24
463.467	1	18
463.638	1	18
463.808	1	22
463.978	1	22
464.149	1	21
464.319	1	23
464.490	1	25
464.660	1	26
464.830	1	24
465.001	1	18
465.171	1	24
465.342	1	18
465.512	1	30
465.682	1	18
465.853	1	9
466.023	1	20
466.194	1	21
466.364	1	26
466.534	1	27
466.705	1	17
466.875	1	33
467.045	1	10
467.216	1	25
467.386	1	38
467.557	1	27
467.727	1	33
467.897	1	30
468.068	1	8
468.238	1	18
468.409	1	30
468.579	1	27
468.749	1	15
468.920	1	23
469.090	1	25
469.260	1	24
469.431	1	17
469.601	1	25
469.772	1	6
469.942	1	32
470.112	1	21
470.283	1	29
470.453	1	20
470.623	1	13
470.794	1	20
470.964	1	29
471.135	1	27
471.305	1	25
471.475	1	9
471.646	1	26
471.816	1	15
471.986	1	24
472.157	1	22
472.327	1	17
472.497	1	30
472.668	1	11
472.838	1	30
473.009	1	19
473.179	1	21
473.349	1	23
473.520	1	16
473.690	1	32
473.860	1	23
474.031	1	23
474.201	1	21
474.371	1	17
474.542	1	21
474.712	1	21
474.882	1	10
475.053	1	29
475.223	1	10
475.394	1	21
475.564	1	19
475.734	1	22
475.905	1	26
476.075	1	5
476.245	1	16
476.416	1	13
476.586	1	27
476.756	1	17
476.927	1	11
477.097	1	16
477.267	1	16
477.438	1	13
477.608	1	17
477.778	1	27
477.949	1	14
478.119	1	23
478.289	1	7
478.460	1	16
478.630	1	30
478.800	1	22
478.971	1	17
479.141	1	11
479.311	1	26
479.482	1	26
479.652	1	26
479.822	1	16
479.993	1	17
480.163	1	24
480.333	1	17
480.504	1	8
480.674	1	21
480.844	1	21
481.015	1	20
481.185	1	9
481.355	1	21
481.525	1	14
481.696	1	13
481.866	1	23
482.036	1	16
482.207	1	22
482.377	1	29
482.547	1	16
482.718	1	13
482.888	1	22
483.058	1	18
483.229	1	27
483.399	1	20
483.569	1	23
483.740	1	18
483.910	1	20
484.080	1	11
484.250	1	6
484.421	1	18
484.591	1	15
484.761	1	24
484.932	1	10
485.102	1	27
485.272	1	9
485.443	1	18
485.613	1	23
485.783	1	32
485.953	1	25
486.124	1	30
486.294	1	15
486.464	1	12
486.635	1	17
486.805	1	14
486.975	1	22
487.146	1	14
487.316	1	13
487.486	1	13
487.656	1	16
487.827	1	5
487.997	1	9
488.167	1	21
488.338	1	16
488.508	1	16
488.678	1	7
488.848	1	14
489.019	1	12
489.189	1	16
489.359	1	23
489.529	1	13
489.700	1	14
489.870	1	7
490.040	1	10
490.211	1	16
490.381	1	15
490.551	1	22
490.721	1	20
490.892	1	11
491.062	1	3
491.232	1	16
491.402	1	13
491.573	1	9
491.743	1	13
491.913	1	-1
492.084	1	20
492.254	1	16
492.424	1	19
492.594	1	20
492.765	1	15
492.935	1	14
493.105	1	28
493.275	1	11
493.446	1	11
493.616	1	9
493.786	1	11
493.956	1	4
494.127	1	18
494.297	1	-1
494.467	1	19
494.637	1	13
494.808	1	18
494.978	1	16
495.148	1	6
495.318	1	25
495.489	1	1
495.659	1	13
495.829	1	8
495.999	1	21
496.170	1	-4
496.340	1	14
496.510	1	22
496.680	1	13
496.851	1	14
497.021	1	8
497.191	1	16
497.361	1	7
497.532	1	13
497.702	1	19
497.872	1	25
498.042	1	27
498.213	1	17
498.383	1	22
498.553	1	5
498.723	1	9
498.894	1	10
499.064	1	8
499.234	1	12
499.404	1	3
499.574	1	9
499.745	1	14
499.915	1	12
500.085	1	10
500.255	1	18
500.426	1	11
500.596	1	13
500.766	1	-2
500.936	1	19
501.106	1	15
501.277	1	20
501.447	1	14
501.617	1	15
501.787	1	11
501.958	1	11
502.128	1	6
502.298	1	12
502.468	1	9
502.638	1	6
502.809	1	2
502.979	1	22
503.149	1	1
503.319	1	18
503.489	1	3
503.660	1	8
503.830	1	7
504.000	1	18
504.170	1	19
504.340	1	11
504.511	1	16
504.681	1	11
504.851	1	5
505.021	1	15
505.192	1	-6
505.362	1	6
505.532	1	15
505.702	1	6
505.872	1	9
506.043	1	23
506.213	1	13
506.383	1	11
506.553	1	6
506.723	1	9
506.893	1	0
507.064	1	-2
507.234	1	14
507.404	1	20
507.574	1	9
507.744	1	16
507.915	1	13
508.085	1	20
508.255	1	1
508.425	1	2
508.595	1	5
508.766	1	4
508.936	1	6
509.106	1	7
509.276	1	12
509.446	1	13
509.616	1	15
509.787	1	18
509.957	1	6
510.127	1	8
510.297	1	4
510.467	1	-7
510.638	1	15
510.808	1	13
510.978	1	6
511.148	1	30
511.318	1	11
511.488	1	19
511.659	1	8
511.829	1	13
511.999	1	15
512.169	1	4
512.339	1	2
512.509	1	12
512.680	1	7
512.850	1	13
513.020	1	1
513.190	1	3
513.360	1	14
513.530	1	15
513.700	1	12
513.871	1	14
514.041	1	9
514.211	1	14
514.381	1	17
514.551	1	10
514.721	1	16
514.892	1	1
515.062	1	15
515.232	1	13
515.402	1	11
515.572	1	0
515.742	1	13
515.912	1	12
516.083	1	10
516.253	1	10
516.423	1	13
516.593	1	12
516.763	1	7
516.933	1	0
517.104	1	0
517.274	1	-2
517.444	1	0
517.614	1	-3
517.784	1	12
517.954	1	18
518.124	1	11
518.294	1	16
518.465	1	14
518.635	1	7
518.805	1	14
518.975	1	4
519.145	1	13
519.315	1	10
519.485	1	2
519.656	1	16
519.826	1	22
519.996	1	11
520.166	1	15
520.336	1	8
520.506	1	3
520.676	1	14
520.846	1	13
521.017	1	2
521.187	1	10
521.357	1	4
521.527	1	9
521.697	1	18
521.867	1	8
522.037	1	10
522.207	1	9
522.377	1	10
522.548	1	11
522.718	1	6
522.888	1	13
523.058	1	15
523.228	1	11
523.398	1	10
523.568	1	6
523.738	1	16
523.909	1	6
524.079	1	7
524.249	1	8
524.419	1	11
524.589	1	3
524.759	1	14
524.929	1	4
525.099	1	9
525.269	1	15
525.439	1	10
525.610	1	10
525.780	1	3
525.950	1	15
526.120	1	10
526.290	1	8
526.460	1	5
526.630	1	9
526.800	1	5
526.970	1	17
527.140	1	10
527.311	1	3
527.481	1	15
527.651	1	6
527.821	1	7
527.991	1	9
528.161	1	12
528.331	1	14
528.501	1	9
528.671	1	4
528.841	1	12
529.011	1	9
529.181	1	2
529.352	1	6
529.522	1	6
529.692	1	15
529.862	1	7
530.032	1	14
530.202	1	12
530.372	1	14
530.542	1	-1
530.712	1	3
530.882	1	3
531.052	1	12
531.222	1	4
531.392	1	8
531.563	1	11
531.733	1	10
531.903	1	10
532.073	1	3
532.243	1	1
532.413	1	15
532.583	1	-5
532.753	1	1
532.923	1	10
533.093	1	22
533.263	1	-6
533.433	1	20
533.603	1	6
533.773	1	9
533.943	1	-5
534.113	1	7
534.284	1	4
534.454	1	2
534.624	1	12
534.794	1	-3
534.964	1	10
535.134	1	18
535.304	1	13
535.474	1	-2
535.644	1	1
535.814	1	7
535.984	1	9
536.154	1	3
536.324	1	10
536.494	1	12
536.664	1	6
536.834	1	5
537.004	1	11
537.174	1	11
537.344	1	12
537.514	1	-2
537.685	1	2
537.855	1	10
538.025	1	4
538.195	1	5
538.365	1	-1
538.535	1	5
538.705	1	16
538.875	1	3
539.045	1	5
539.215	1	-6
539.385	1	0
539.555	1	2
539.725	1	1
539.895	1	9
540.065	1	6
540.235	1	9
540.405	1	12
540.575	1	7
540.745	1	1
540.915	1	-1
541.085	1	-7
541.255	1	-3
541.425	1	9
541.595	1	8
541.765	1	15
541.935	1	13
542.105	1	3
542.275	1	2
542.445	1	2
542.615	1	21
542.785	1	9
542.955	1	1
543.125	1	-8
543.295	1	-2
543.465	1	15
543.635	1	3
543.805	1	21
543.975	1	9
544.145	1	14
544.315	1	-1
544.485	1	8
544.655	1	9
544.825	1	16
544.995	1	8
545.165	1	6
545.335	1	3
545.505	1	21
545.675	1	-8
545.845	1	19
546.015	1	13
546.185	1	12
546.355	1	12
546.525	1	2
546.695	1	6
546.865	1	14
547.035	1	13
547.205	1	14
547.375	1	3
547.545	1	18
547.715	1	14
547.885	1	20
548.055	1	-6
548.225	1	1
548.395	1	-3
548.565	1	14
548.735	1	4
548.905	1	-7
549.075	1	2
549.245	1	3
549.415	1	0
549.585	1	10
549.755	1	7
549.925	1	4
550.095	1	1
550.265	1	1
550.435	1	-5
550.605	1	0
550.775	1	2
550.945	1	14
551.115	1	6
551.285	1	1
551.455	1	4
551.625	1	-2
551.795	1	-3
551.965	1	8
552.135	1	14
552.305	1	-12
552.475	1	5
552.645	1	3
552.815	1	2
552.985	1	3
553.155	1	3
553.325	1	7
553.495	1	5
553.665	1	12
553.835	1	3
554.004	1	-3
554.174	1	2
554.344	1	3
554.514	1	7
554.684	1	3
554.854	1	-4
555.024	1	4
555.194	1	10
555.364	1	9
555.534	1	4
555.704	1	7
555.874	1	-3
556.044	1	10
556.214	1	7
556.384	1	1
556.554	1	12
556.724	1	9
556.894	1	-4
557.064	1	6
557.234	1	4
557.404	1	6
557.573	1	7
557.743	1	-1
557.913	1	4
558.083	1	14
558.253	1	-6
558.423	1	9
558.593	1	7
558.763	1	10
558.933	1	6
559.103	1	22
559.273	1	11
559.443	1	7
559.613	1	8
559.783	1	9
559.953	1	7
560.122	1	-4
560.292	1	5
560.462	1	3
560.632	1	5
560.802	1	7
560.972	1	1
561.142	1	12
561.312	1	10
561.482	1	12
561.652	1	12
561.822	1	-1
561.992	1	-5
562.162	1	4
562.331	1	6
562.501	1	2
562.671	1	14
562.841	1	10
563.011	1	0
563.181	1	11
563.351	1	4
563.521	1	13
563.691	1	12
563.861	1	-2
564.031	1	5
564.201	1	6
564.370	1	-1
564.540	1	2
564.710	1	9
564.880	1	6
565.050	1	6
565.220	1	5
565.390	1	3
565.560	1	10
565.730	1	5
565.900	1	3
566.069	1	0
566.239	1	7
566.409	1	7
566.579	1	2
566.749	1	5
566.919	1	2
567.089	1	6
567.259	1	16
567.429	1	3
567.599	1	8
567.768	1	10
567.938	1	-4
568.108	1	6
568.278	1	2
568.448	1	5
568.618	1	11
568.788	1	-3
568.958	1	0
569.128	1	-3
569.297	1	1
569.467	1	6
569.637	1	11
569.807	1	-1
569.977	1	4
570.147	1	3
570.317	1	9
570.487	1	7
570.656	1	4
570.826	1	-2
570.996	1	6
571.166	1	6
571.336	1	-2
571.506	1	4
571.676	1	-3
571.846	1	5
572.015	1	4
572.185	1	4
572.355	1	5
572.525	1	1
572.695	1	1
572.865	1	19
573.035	1	-3
573.205	1	-3
573.374	1	4
573.544	1	3
573.714	1	6
573.884	1	-7
574.054	1	10
574.224	1	10
574.394	1	3
574.563	1	5
574.733	1	6
574.903	1	2
575.073	1	-3
575.243	1	8
575.413	1	-2
575.583	1	-1
575.752	1	13
575.922	1	13
576.092	1	-1
576.262	1	5
576.432	1	10
576.602	1	0
576.772	1	-4
576.941	1	12
577.111	1	2
577.281	1	16
577.451	1	-3
577.621	1	10
577.791	1	7
577.960	1	-1
578.130	1	6
578.300	1	16
578.470	1	11
578.640	1	0
578.810	1	5
578.979	1	0
579.149	1	3
579.319	1	12
579.489	1	10
579.659	1	5
579.829	1	10
579.998	1	2
580.168	1	2
580.338	1	4
580.508	1	2
580.678	1	19
580.848	1	8
581.017	1	6
581.187	1	9
581.357	1	5
581.527	1	-4
581.697	1	-4
581.867	1	8
582.036	1	10
582.206	1	-3
582.376	1	4
582.546	1	22
582.716	1	4
582.885	1	-2
583.055	1	-1
583.225	1	1
583.395	1	2
583.565	1	0
583.735	1	11
583.904	1	7
584.074	1	1
584.244	1	11
584.414	1	-1
584.584	1	3
584.753	1	10
584.923	1	9
585.093	1	-10
585.263	1	0
585.433	1	25
585.602	1	6
585.772	1	6
585.942	1	-2
586.112	1	-2
586.282	1	11
586.451	1	-1
586.621	1	8
586.791	1	3
586.961	1	12
587.131	1	8
587.300	1	4
587.470	1	2
587.640	1	3
587.810	1	-2
587.980	1	-9
588.149	1	13
588.319	1	15
588.489	1	5
588.659	1	11
588.829	1	-8
588.998	1	-5
589.168	1	8
589.338	1	7
589.508	1	12
589.677	1	8
589.847	1	5
590.017	1	3
590.187	1	7
590.357	1	3
590.526	1	9
590.696	1	7
590.866	1	-1
591.036	1	8
591.205	1	5
591.375	1	3
591.545	1	8
591.715	1	2
591.885	1	8
592.054	1	11
592.224	1	6
592.394	1	-3
592.564	1	6
592.733	1	9
592.903	1	4
593.073	1	1
593.243	1	11
593.412	1	1
593.582	1	4
593.752	1	0
593.922	1	17
594.091	1	-4
594.261	1	6
594.431	1	6
594.601	1	-1
594.771	1	7
594.940	1	1
595.110	1	1
595.280	1	14
595.450	1	0
595.619	1	6
595.789	1	7
595.959	1	13
596.129	1	-7
596.298	1	1
596.468	1	-12
596.638	1	8
596.808	1	-3
596.977	1	9
597.147	1	5
597.317	1	4
597.487	1	-1
597.656	1	11
597.826	1	-6
597.996	1	3
598.166	1	14
598.335	1	-2
598.505	1	-4
598.675	1	-2
598.844	1	5
599.014	1	2
599.184	1	1
599.354	1	6
599.523	1	7
599.693	1	6
599.863	1	12
600.033	1	9
600.202	1	10
600.372	1	6
600.542	1	5
600.712	1	21
600.881	1	9
601.051	1	11
601.221	1	9
601.390	1	5
601.560	1	7
601.730	1	5
601.900	1	14
602.069	1	-14
602.239	1	14
602.409	1	7
602.578	1	19
602.748	1	1
602.918	1	15
603.088	1	15
603.257	1	8
603.427	1	10
603.597	1	2
603.767	1	5
603.936	1	2
604.106	1	0
604.276	1	5
604.445	1	3
604.615	1	5
604.785	1	11
604.954	1	7
605.124	1	2
605.294	1	6
605.464	1	3
605.633	1	10
605.803	1	6
605.973	1	-1
606.142	1	5
606.312	1	15
606.482	1	2
606.652	1	12
606.821	1	-1
606.991	1	10
607.161	1	18
607.330	1	11
607.500	1	5
607.670	1	16
607.839	1	0
608.009	1	5
608.179	1	1
608.348	1	8
608.518	1	-1
608.688	1	6
608.858	1	4
609.027	1	2
609.197	1	10
609.367	1	4
609.536	1	17
609.706	1	3
609.876	1	-3
610.045	1	14
610.215	1	6
610.385	1	12
610.554	1	0
610.724	1	11
610.894	1	10
611.063	1	14
611.233	1	-4
611.403	1	10
611.572	1	9
611.742	1	5
611.912	1	3
612.081	1	12
612.251	1	12
612.421	1	9
612.590	1	-2
612.760	1	15
612.930	1	6
613.099	1	2
613.269	1	6
613.439	1	-2
613.608	1	10
613.778	1	-5
613.948	1	15
614.117	1	5
614.287	1	2
614.457	1	13
614.626	1	12
614.796	1	7
614.966	1	4
615.135	1	4
615.305	1	11
615.475	1	6
615.644	1	6
615.814	1	-1
615.984	1	5
616.153	1	4
616.323	1	0
616.493	1	11
616.662	1	-2
616.832	1	11
617.002	1	-2
617.171	1	6
617.341	1	-3
617.511	1	0
617.680	1	3
617.850	1	-1
618.019	1	7
618.189	1	7
618.359	1	0
618.528	1	1
618.698	1	1
618.868	1	4
619.037	1	6
619.207	1	11
619.377	1	3
619.546	1	-13
619.716	1	4
619.885	1	2
620.055	1	16
620.225	1	19
620.394	1	-1
620.564	1	-3
620.734	1	3
620.903	1	15
621.073	1	14
621.242	1	6
621.412	1	12
621.582	1	6
621.751	1	9
621.921	1	4
622.091	1	-2
622.260	1	2
622.430	1	12
622.599	1	3
622.769	1	5
622.939	1	-2
623.108	1	7
623.278	1	12
623.448	1	11
623.617	1	3
623.787	1	19
623.956	1	18
624.126	1	-2
624.296	1	5
624.465	1	-5
624.635	1	8
624.804	1	5
624.974	1	9
625.144	1	13
625.313	1	12
625.483	1	12
625.652	1	13
625.822	1	0
625.992	1	14
626.161	1	-5
626.331	1	7
626.501	1	7
626.670	1	2
626.840	1	-1
627.009	1	-1
627.179	1	1
627.348	1	14
627.518	1	8
627.688	1	8
627.857	1	4
628.027	1	2
628.196	1	2
628.366	1	10
628.536	1	5
628.705	1	4
628.875	1	13
629.044	1	12
629.214	1	2
629.384	1	7
629.553	1	9
629.723	1	0
629.892	1	4
630.062	1	-5
630.232	1	14
630.401	1	3
630.571	1	13
630.740	1	2
630.910	1	9
631.079	1	7
631.249	1	12
631.419	1	10
631.588	1	2
631.758	1	8
631.927	1	8
632.097	1	5
632.266	1	-8
632.436	1	-1
632.606	1	-2
632.775	1	19
632.945	1	-8
633.114	1	7
633.284	1	2
633.453	1	25
633.623	1	12
633.793	1	5
633.962	1	2
634.132	1	8
634.301	1	11
634.471	1	9
634.640	1	12
634.810	1	18
634.979	1	8
635.149	1	2
635.319	1	12
635.488	1	-2
635.658	1	16
635.827	1	6
635.997	1	6
636.166	1	4
636.336	1	9
636.505	1	15
636.675	1	3
636.845	1	9
637.014	1	1
637.184	1	17
637.353	1	5
637.523	1	12
637.692	1	7
637.862	1	3
638.031	1	1
638.201	1	5
638.370	1	18
638.540	1	2
638.710	1	9
638.879	1	9
639.049	1	2
639.218	1	17
639.388	1	7
639.557	1	7
639.727	1	21
639.896	1	15
640.066	1	14
640.235	1	5
640.405	1	12
640.574	1	-3
640.744	1	-1
640.914	1	9
641.083	1	5
641.253	1	-8
641.422	1	8
641.592	1	-5
641.761	1	7
641.931	1	6
642.100	1	10
642.270	1	6
642.439	1	4
642.609	1	2
642.778	1	2
642.948	1	8
643.117	1	11
643.287	1	7
643.456	1	9
643.626	1	16
643.795	1	1
643.965	1	9
644.134	1	2
644.304	1	16
644.473	1	6
644.643	1	1
644.812	1	9
644.982	1	9
645.151	1	2
645.321	1	8
645.490	1	19
645.660	1	5
645.829	1	-1
645.999	1	2
646.168	1	11
646.338	1	3
646.507	1	10
646.677	1	8
646.846	1	13
647.016	1	6
647.185	1	9
647.355	1	10
647.524	1	7
647.694	1	-1
647.863	1	8
648.033	1	8
648.202	1	9
648.372	1	0
648.541	1	6
648.711	1	9
648.880	1	2
649.050	1	4
649.219	1	11
649.389	1	2
649.558	1	4
649.728	1	13
649.897	1	-1
650.067	1	6
650.236	1	2
650.406	1	9
650.575	1	5
650.745	1	5
650.914	1	-6
651.084	1	13
651.253	1	6
651.423	1	6
651.592	1	-4
651.762	1	8
651.931	1	7
652.101	1	8
652.270	1	3
652.440	1	-2
652.609	1	4
652.778	1	8
652.948	1	10
653.117	1	13
653.287	1	8
653.456	1	3
653.626	1	6
653.795	1	8
653.965	1	0
654.134	1	-5
654.304	1	13
654.473	1	0
654.643	1	13
654.812	1	11
654.982	1	9
655.151	1	16
655.320	1	16
655.490	1	-5
655.659	1	11
655.829	1	3
655.998	1	1
656.168	1	10
656.337	1	15
656.507	1	2
656.676	1	1
656.846	1	8
657.015	1	12
657.184	1	0
657.354	1	6
657.523	1	10
657.693	1	0
657.862	1	-3
658.032	1	6
658.201	1	5
658.371	1	7
658.540	1	11
658.709	1	-5
658.879	1	5
659.048	1	1
659.218	1	10
659.387	1	6
659.557	1	7
659.726	1	4
659.895	1	10
660.065	1	18
660.234	1	4
660.404	1	4
660.573	1	5
660.743	1	3
660.912	1	-1
661.081	1	-3
661.251	1	2
661.420	1	9
661.590	1	5
661.759	1	-3
661.929	1	12
662.098	1	10
662.267	1	15
662.437	1	-1
662.606	1	6
662.776	1	2
662.945	1	12
663.115	1	4
663.284	1	4
663.453	1	14
663.623	1	13
663.792	1	10
663.962	1	7
664.131	1	-1
664.300	1	-10
664.470	1	7
664.639	1	3
664.809	1	14
664.978	1	6
665.148	1	7
665.317	1	8
665.486	1	-1
665.656	1	9
665.825	1	12
665.995	1	4
666.164	1	7
666.333	1	7
666.503	1	17
666.672	1	16
666.842	1	4
667.011	1	2
667.180	1	3
667.350	1	10
667.519	1	4
667.689	1	10
667.858	1	2
668.027	1	5
668.197	1	18
668.366	1	8
668.536	1	-3
668.705	1	8
668.874	1	0
669.044	1	14
669.213	1	6
669.382	1	13
669.552	1	12
669.721	1	2
669.891	1	9
670.060	1	14
670.229	1	0
670.399	1	-1
670.568	1	0
670.738	1	-6
670.907	1	14
671.076	1	2
671.246	1	6
671.415	1	12
671.584	1	11
671.754	1	9
671.923	1	6
672.093	1	-2
672.262	1	6
672.431	1	8
672.601	1	16
672.770	1	1
672.939	1	7
673.109	1	13
673.278	1	5
673.448	1	5
673.617	1	4
673.786	1	11
