325.333	1	3
325.504	1	7
325.675	1	-1
325.846	1	1
326.017	1	-6
326.188	1	6
326.359	1	12
326.531	1	4
326.702	1	18
326.873	1	0
327.044	1	8
327.215	1	0
327.386	1	0
327.557	1	-3
327.728	1	1
327.899	1	4
328.070	1	8
328.241	1	3
328.412	1	-3
328.583	1	11
328.754	1	-5
328.926	1	6
329.097	1	-1
329.268	1	-8
329.439	1	6
329.610	1	6
329.781	1	3
329.952	1	3
330.123	1	2
330.294	1	7
330.465	1	11
330.636	1	8
330.807	1	4
330.978	1	-7
331.149	1	8
331.320	1	2
331.492	1	3
331.663	1	-12
331.834	1	-1
332.005	1	8
332.176	1	3
332.347	1	10
332.518	1	10
332.689	1	-1
332.860	1	4
333.031	1	5
333.202	1	-2
333.373	1	-4
333.544	1	-8
333.715	1	6
333.886	1	2
334.057	1	6
334.228	1	2
334.399	1	-2
334.570	1	-6
334.741	1	6
334.912	1	-1
335.084	1	0
335.255	1	5
335.426	1	8
335.597	1	8
335.768	1	7
335.939	1	-4
336.110	1	10
336.281	1	1
336.452	1	8
336.623	1	-9
336.794	1	1
336.965	1	-1
337.136	1	20
337.307	1	10
337.478	1	5
337.649	1	-13
337.820	1	-11
337.991	1	7
338.162	1	10
338.333	1	10
338.504	1	9
338.675	1	9
338.846	1	9
339.017	1	22
339.188	1	7
339.359	1	9
339.530	1	0
339.701	1	0
339.872	1	9
340.043	1	-1
340.214	1	1
340.385	1	11
340.556	1	-2
340.727	1	4
340.898	1	8
341.069	1	-7
341.240	1	-2
341.411	1	12
341.582	1	9
341.753	1	1
341.924	1	3
342.095	1	14
342.266	1	-6
342.437	1	-5
342.608	1	-1
342.779	1	2
342.950	1	4
343.121	1	0
343.292	1	-4
343.463	1	7
343.634	1	4
343.805	1	5
343.976	1	-4
344.147	1	4
344.318	1	3
344.489	1	8
344.660	1	5
344.831	1	1
345.002	1	5
345.173	1	9
345.344	1	10
345.515	1	2
345.686	1	-4
345.857	1	3
346.028	1	-1
346.199	1	10
346.370	1	5
346.541	1	-3
346.712	1	-1
346.883	1	19
347.054	1	0
347.225	1	-5
347.396	1	-5
347.567	1	7
347.738	1	5
347.909	1	10
348.080	1	11
348.251	1	5
348.422	1	-9
348.593	1	4
348.764	1	1
348.935	1	-6
349.106	1	2
349.277	1	-1
349.448	1	5
349.619	1	4
349.790	1	11
349.961	1	1
350.132	1	8
350.303	1	5
350.474	1	5
350.645	1	19
350.816	1	6
350.987	1	12
351.157	1	4
351.328	1	-1
351.499	1	8
351.670	1	-3
351.841	1	2
352.012	1	-3
352.183	1	8
352.354	1	3
352.525	1	7
352.696	1	15
352.867	1	6
353.038	1	-7
353.209	1	2
353.380	1	-1
353.551	1	0
353.722	1	9
353.893	1	6
354.064	1	-1
354.235	1	8
354.406	1	9
354.576	1	-1
354.747	1	5
354.918	1	16
355.089	1	10
355.260	1	4
355.431	1	4
355.602	1	-3
355.773	1	13
355.944	1	7
356.115	1	-3
356.286	1	10
356.457	1	10
356.628	1	-1
356.799	1	-1
356.970	1	1
357.141	1	5
357.311	1	8
357.482	1	4
357.653	1	4
357.824	1	6
357.995	1	9
358.166	1	6
358.337	1	-9
358.508	1	-1
358.679	1	1
358.850	1	5
359.021	1	11
359.192	1	5
359.363	1	-7
359.533	1	6
359.704	1	3
359.875	1	3
360.046	1	-5
360.217	1	-5
360.388	1	-5
360.559	1	9
360.730	1	-1
360.901	1	1
361.072	1	0
361.243	1	7
361.414	1	11
361.584	1	13
361.755	1	11
361.926	1	-13
362.097	1	2
362.268	1	13
362.439	1	8
362.610	1	-3
362.781	1	3
362.952	1	10
363.123	1	-9
363.293	1	-1
363.464	1	12
363.635	1	16
363.806	1	18
363.977	1	4
364.148	1	5
364.319	1	-2
364.490	1	3
364.661	1	2
364.832	1	3
365.002	1	-8
365.173	1	-5
365.344	1	8
365.515	1	14
365.686	1	5
365.857	1	-1
366.028	1	2
366.199	1	13
366.370	1	-6
366.540	1	0
366.711	1	7
366.882	1	-2
367.053	1	4
367.224	1	-4
367.395	1	14
367.566	1	9
367.737	1	5
367.908	1	-1
368.078	1	1
368.249	1	13
368.420	1	4
368.591	1	12
368.762	1	-17
368.933	1	9
369.104	1	5
369.274	1	6
369.445	1	11
369.616	1	-3
369.787	1	0
369.958	1	7
370.129	1	4
370.300	1	8
370.471	1	-3
370.641	1	6
370.812	1	9
370.983	1	2
371.154	1	6
371.325	1	13
371.496	1	-4
371.667	1	14
371.837	1	3
372.008	1	12
372.179	1	4
372.350	1	12
372.521	1	7
372.692	1	-5
372.863	1	0
373.033	1	11
373.204	1	17
373.375	1	3
373.546	1	15
373.717	1	1
373.888	1	12
374.059	1	9
374.229	1	11
374.400	1	10
374.571	1	6
374.742	1	1
374.913	1	8
375.084	1	12
375.254	1	4
375.425	1	2
375.596	1	-1
375.767	1	-7
375.938	1	0
376.109	1	-6
376.279	1	10
376.450	1	11
376.621	1	7
376.792	1	16
376.963	1	-1
377.134	1	-5
377.304	1	7
377.475	1	-1
377.646	1	5
377.817	1	-1
377.988	1	12
378.159	1	2
378.329	1	15
378.500	1	9
378.671	1	5
378.842	1	2
379.013	1	8
379.184	1	15
379.354	1	7
379.525	1	2
379.696	1	8
379.867	1	-6
380.038	1	-1
380.209	1	12
380.379	1	6
380.550	1	2
380.721	1	2
380.892	1	7
381.063	1	-1
381.233	1	17
381.404	1	6
381.575	1	15
381.746	1	16
381.917	1	8
382.087	1	5
382.258	1	9
382.429	1	11
382.600	1	3
382.771	1	1
382.941	1	1
383.112	1	1
383.283	1	2
383.454	1	5
383.625	1	2
383.795	1	-5
383.966	1	13
384.137	1	13
384.308	1	7
384.479	1	7
384.649	1	9
384.820	1	-1
384.991	1	-6
385.162	1	4
385.333	1	3
385.503	1	25
385.674	1	12
385.845	1	2
386.016	1	11
386.187	1	3
386.357	1	5
386.528	1	-8
386.699	1	-4
386.870	1	6
387.041	1	6
387.211	1	0
387.382	1	-2
387.553	1	14
387.724	1	0
387.894	1	5
388.065	1	17
388.236	1	12
388.407	1	5
388.578	1	12
388.748	1	6
388.919	1	16
389.090	1	8
389.261	1	21
389.431	1	12
389.602	1	-6
389.773	1	0
389.944	1	10
390.114	1	14
390.285	1	2
390.456	1	9
390.627	1	12
390.798	1	11
390.968	1	3
391.139	1	10
391.310	1	18
391.481	1	9
391.651	1	5
391.822	1	19
391.993	1	6
392.164	1	-6
392.334	1	7
392.505	1	15
392.676	1	13
392.847	1	19
393.017	1	11
393.188	1	10
393.359	1	0
393.530	1	7
393.700	1	13
393.871	1	9
394.042	1	9
394.213	1	17
394.383	1	18
394.554	1	13
394.725	1	8
394.896	1	12
395.066	1	9
395.237	1	5
395.408	1	8
395.579	1	10
395.749	1	7
395.920	1	9
396.091	1	18
396.262	1	-2
396.432	1	10
396.603	1	3
396.774	1	16
396.945	1	5
397.115	1	-11
397.286	1	18
397.457	1	11
397.627	1	10
397.798	1	12
397.969	1	17
398.140	1	9
398.310	1	12
398.481	1	17
398.652	1	2
398.823	1	7
398.993	1	25
399.164	1	6
399.335	1	7
399.505	1	22
399.676	1	11
399.847	1	7
400.018	1	17
400.188	1	20
400.359	1	8
400.530	1	3
400.700	1	12
400.871	1	18
401.042	1	10
401.213	1	13
401.383	1	8
401.554	1	14
401.725	1	17
401.895	1	5
402.066	1	16
402.237	1	17
402.408	1	15
402.578	1	15
402.749	1	12
402.920	1	20
403.090	1	18
403.261	1	18
403.432	1	17
403.603	1	-1
403.773	1	17
403.944	1	16
404.115	1	2
404.285	1	20
404.456	1	16
404.627	1	6
404.797	1	13
404.968	1	5
405.139	1	16
405.310	1	7
405.480	1	4
405.651	1	20
405.822	1	24
405.992	1	9
406.163	1	16
406.334	1	6
406.504	1	-1
406.675	1	8
406.846	1	12
407.016	1	7
407.187	1	13
407.358	1	6
407.528	1	9
407.699	1	3
407.870	1	15
408.041	1	1
408.211	1	16
408.382	1	12
408.553	1	-3
408.723	1	12
408.894	1	0
409.065	1	14
409.235	1	9
409.406	1	12
409.577	1	4
409.747	1	13
409.918	1	12
410.089	1	2
410.259	1	15
410.430	1	12
410.601	1	10
410.771	1	10
410.942	1	3
411.113	1	14
411.283	1	8
411.454	1	11
411.625	1	10
411.795	1	10
411.966	1	9
412.137	1	11
412.307	1	6
412.478	1	17
412.649	1	12
412.819	1	2
412.990	1	9
413.161	1	18
413.331	1	10
413.502	1	-1
413.672	1	12
413.843	1	15
414.014	1	22
414.184	1	6
414.355	1	6
414.526	1	17
414.696	1	19
414.867	1	4
415.038	1	11
415.208	1	16
415.379	1	6
415.550	1	11
415.720	1	10
415.891	1	19
416.062	1	9
416.232	1	12
416.403	1	16
416.573	1	13
416.744	1	4
416.915	1	9
417.085	1	-1
417.256	1	6
417.427	1	13
417.597	1	17
417.768	1	-1
417.939	1	17
418.109	1	-3
418.280	1	12
418.450	1	16
418.621	1	14
418.792	1	5
418.962	1	3
419.133	1	24
419.304	1	6
419.474	1	4
419.645	1	9
419.815	1	7
419.986	1	1
420.157	1	15
420.327	1	8
420.498	1	7
420.669	1	16
420.839	1	3
421.010	1	10
421.180	1	-2
421.351	1	20
421.522	1	14
421.692	1	16
421.863	1	14
422.033	1	21
422.204	1	14
422.375	1	13
422.545	1	11
422.716	1	7
422.886	1	16
423.057	1	7
423.228	1	12
423.398	1	18
423.569	1	19
423.740	1	14
423.910	1	15
424.081	1	15
424.251	1	3
424.422	1	4
424.593	1	9
424.763	1	19
424.934	1	13
425.104	1	7
425.275	1	18
425.445	1	23
425.616	1	6
425.787	1	21
425.957	1	16
426.128	1	23
426.298	1	3
426.469	1	5
426.640	1	11
426.810	1	17
426.981	1	12
427.151	1	6
427.322	1	1
427.493	1	3
427.663	1	9
427.834	1	7
428.004	1	17
428.175	1	10
428.345	1	11
428.516	1	20
428.687	1	12
428.857	1	7
429.028	1	13
429.198	1	15
429.369	1	8
429.540	1	5
429.710	1	18
429.881	1	18
430.051	1	3
430.222	1	10
430.392	1	17
430.563	1	3
430.734	1	15
430.904	1	17
431.075	1	-5
431.245	1	12
431.416	1	-5
431.586	1	7
431.757	1	12
431.927	1	7
432.098	1	18
432.269	1	10
432.439	1	4
432.610	1	3
432.780	1	15
432.951	1	6
433.121	1	16
433.292	1	9
433.462	1	13
433.633	1	20
433.804	1	5
433.974	1	16
434.145	1	4
434.315	1	14
434.486	1	5
434.656	1	2
434.827	1	5
434.997	1	11
435.168	1	7
435.339	1	1
435.509	1	7
435.680	1	13
435.850	1	8
436.021	1	13
436.191	1	13
436.362	1	12
436.532	1	8
436.703	1	13
436.873	1	15
437.044	1	16
437.214	1	18
437.385	1	18
437.556	1	7
437.726	1	7
437.897	1	10
438.067	1	-2
438.238	1	8
438.408	1	13
438.579	1	13
438.749	1	1
438.920	1	5
439.090	1	3
439.261	1	5
439.431	1	10
439.602	1	14
439.772	1	15
439.943	1	14
440.113	1	6
440.284	1	8
440.455	1	21
440.625	1	9
440.796	1	6
440.966	1	2
441.137	1	4
441.307	1	10
441.478	1	19
441.648	1	12
441.819	1	13
441.989	1	9
442.160	1	-3
442.330	1	13
442.501	1	5
442.671	1	11
442.842	1	8
443.012	1	0
443.183	1	12
443.353	1	14
443.524	1	4
443.694	1	14
443.865	1	12
444.035	1	5
444.206	1	5
444.376	1	16
444.547	1	9
444.717	1	21
444.888	1	-1
445.058	1	11
445.229	1	7
445.399	1	18
445.570	1	8
445.740	1	15
445.911	1	13
446.081	1	11
446.252	1	0
446.422	1	18
446.593	1	8
446.763	1	14
446.934	1	13
447.104	1	11
447.275	1	17
447.445	1	11
447.616	1	7
447.786	1	5
447.957	1	7
448.127	1	18
448.298	1	4
448.468	1	16
448.639	1	10
448.809	1	3
448.979	1	13
449.150	1	6
449.320	1	12
449.491	1	19
449.661	1	25
449.832	1	22
450.002	1	15
450.173	1	10
450.343	1	15
450.514	1	-1
450.684	1	3
450.855	1	10
451.025	1	7
451.196	1	13
451.366	1	2
451.537	1	4
451.707	1	8
451.878	1	9
452.048	1	4
452.218	1	11
452.389	1	8
452.559	1	10
452.730	1	10
452.900	1	17
453.071	1	6
453.241	1	5
453.412	1	4
453.582	1	0
453.753	1	23
453.923	1	13
454.093	1	16
454.264	1	9
454.434	1	6
454.605	1	4
454.775	1	3
454.946	1	11
455.116	1	3
455.287	1	9
455.457	1	6
455.628	1	12
455.798	1	14
455.968	1	7
456.139	1	10
456.309	1	15
456.480	1	13
456.650	1	19
456.821	1	22
456.991	1	15
457.161	1	11
457.332	1	9
457.502	1	18
457.673	1	13
457.843	1	6
458.014	1	14
458.184	1	12
458.355	1	7
458.525	1	8
458.695	1	12
458.866	1	20
459.036	1	6
459.207	1	7
459.377	1	9
459.548	1	3
459.718	1	7
459.888	1	14
460.059	1	18
460.229	1	15
460.400	1	8
460.570	1	12
460.740	1	3
460.911	1	5
461.081	1	4
461.252	1	3
461.422	1	10
461.593	1	12
461.763	1	16
461.933	1	16
462.104	1	2
462.274	1	-7
462.445	1	4
462.615	1	11
462.785	1	5
462.956	1	10
463.126	1	7
463.297	1	4
463.467	1	14
463.638	1	16
463.808	1	10
463.978	1	10
464.149	1	5
464.319	1	7
464.490	1	12
464.660	1	8
464.830	1	19
465.001	1	5
465.171	1	12
465.342	1	1
465.512	1	4
465.682	1	12
465.853	1	0
466.023	1	2
466.194	1	7
466.364	1	18
466.534	1	10
466.705	1	1
466.875	1	12
467.045	1	5
467.216	1	2
467.386	1	11
467.557	1	8
467.727	1	23
467.897	1	13
468.068	1	-7
468.238	1	5
468.409	1	5
468.579	1	17
468.749	1	7
468.920	1	-1
469.090	1	19
469.260	1	15
469.431	1	19
469.601	1	4
469.772	1	-7
469.942	1	16
470.112	1	0
470.283	1	12
470.453	1	15
470.623	1	8
470.794	1	1
470.964	1	6
471.135	1	13
471.305	1	7
471.475	1	9
471.646	1	7
471.816	1	8
471.986	1	15
472.157	1	15
472.327	1	0
472.497	1	16
472.668	1	4
472.838	1	9
473.009	1	17
473.179	1	10
473.349	1	12
473.520	1	0
473.690	1	16
473.860	1	8
474.031	1	15
474.201	1	17
474.371	1	2
474.542	1	10
474.712	1	8
474.882	1	3
475.053	1	16
475.223	1	1
475.394	1	12
475.564	1	12
475.734	1	8
475.905	1	9
476.075	1	6
476.245	1	4
476.416	1	-2
476.586	1	0
476.756	1	8
476.927	1	6
477.097	1	-2
477.267	1	2
477.438	1	11
477.608	1	4
477.778	1	5
477.949	1	5
478.119	1	6
478.289	1	7
478.460	1	-7
478.630	1	26
478.800	1	16
478.971	1	9
479.141	1	13
479.311	1	15
479.482	1	18
479.652	1	11
479.822	1	9
479.993	1	5
480.163	1	10
480.333	1	6
480.504	1	4
480.674	1	11
480.844	1	-1
481.015	1	4
481.185	1	0
481.355	1	19
481.525	1	12
481.696	1	-7
481.866	1	8
482.036	1	16
482.207	1	9
482.377	1	14
482.547	1	4
482.718	1	7
482.888	1	12
483.058	1	-1
483.229	1	13
483.399	1	11
483.569	1	8
483.740	1	12
483.910	1	9
484.080	1	-3
484.250	1	-8
484.421	1	3
484.591	1	8
484.761	1	1
484.932	1	5
485.102	1	13
485.272	1	4
485.443	1	12
485.613	1	15
485.783	1	11
485.953	1	6
486.124	1	3
486.294	1	6
486.464	1	-5
486.635	1	4
486.805	1	-1
486.975	1	12
487.146	1	5
487.316	1	5
487.486	1	8
487.656	1	4
487.827	1	-9
487.997	1	0
488.167	1	10
488.338	1	7
488.508	1	6
488.678	1	13
488.848	1	9
489.019	1	1
489.189	1	11
489.359	1	3
489.529	1	9
489.700	1	8
489.870	1	-2
490.040	1	0
490.211	1	6
490.381	1	15
490.551	1	5
490.721	1	2
490.892	1	1
491.062	1	-3
491.232	1	8
491.402	1	3
491.573	1	2
491.743	1	-3
491.913	1	-7
492.084	1	9
492.254	1	-1
492.424	1	18
492.594	1	8
492.765	1	13
492.935	1	0
493.105	1	15
493.275	1	-4
493.446	1	3
493.616	1	4
493.786	1	4
493.956	1	1
494.127	1	19
494.297	1	1
494.467	1	11
494.637	1	17
494.808	1	12
494.978	1	5
495.148	1	4
495.318	1	15
495.489	1	-6
495.659	1	4
495.829	1	6
495.999	1	9
496.170	1	4
496.340	1	5
496.510	1	8
496.680	1	-1
496.851	1	4
497.021	1	-10
497.191	1	9
497.361	1	-3
497.532	1	1
497.702	1	14
497.872	1	24
498.042	1	20
498.213	1	5
498.383	1	9
498.553	1	5
498.723	1	8
498.894	1	2
499.064	1	16
499.234	1	10
499.404	1	-2
499.574	1	4
499.745	1	6
499.915	1	6
500.085	1	11
500.255	1	6
500.426	1	14
500.596	1	-6
500.766	1	2
500.936	1	12
501.106	1	10
501.277	1	11
501.447	1	4
501.617	1	6
501.787	1	7
501.958	1	4
502.128	1	-6
502.298	1	10
502.468	1	12
502.638	1	1
502.809	1	6
502.979	1	15
503.149	1	-5
503.319	1	10
503.489	1	1
503.660	1	-5
503.830	1	10
504.000	1	14
504.170	1	0
504.340	1	3
504.511	1	7
504.681	1	3
504.851	1	4
505.021	1	8
505.192	1	2
505.362	1	2
505.532	1	3
505.702	1	0
505.872	1	1
506.043	1	10
506.213	1	9
506.383	1	6
506.553	1	2
506.723	1	3
506.893	1	-7
507.064	1	0
507.234	1	2
507.404	1	7
507.574	1	3
507.744	1	-1
507.915	1	7
508.085	1	9
508.255	1	3
508.425	1	-8
508.595	1	2
508.766	1	3
508.936	1	6
509.106	1	8
509.276	1	6
509.446	1	6
509.616	1	0
509.787	1	7
509.957	1	4
510.127	1	-3
510.297	1	-6
510.467	1	-7
510.638	1	13
510.808	1	3
510.978	1	-4
511.148	1	21
511.318	1	10
511.488	1	19
511.659	1	-2
511.829	1	9
511.999	1	6
512.169	1	-2
512.339	1	2
512.509	1	7
512.680	1	0
512.850	1	4
513.020	1	-2
513.190	1	-7
513.360	1	1
513.530	1	0
513.700	1	13
513.871	1	13
514.041	1	10
514.211	1	8
514.381	1	12
514.551	1	0
514.721	1	10
514.892	1	0
515.062	1	-1
515.232	1	4
515.402	1	5
515.572	1	-4
515.742	1	5
515.912	1	3
516.083	1	10
516.253	1	11
516.423	1	-2
516.593	1	-1
516.763	1	-2
516.933	1	-7
517.104	1	-5
517.274	1	-6
517.444	1	-2
517.614	1	-1
517.784	1	13
517.954	1	13
518.124	1	-7
518.294	1	5
518.465	1	10
518.635	1	5
518.805	1	8
518.975	1	7
519.145	1	7
519.315	1	-2
519.485	1	-12
519.656	1	13
519.826	1	10
519.996	1	-4
520.166	1	13
520.336	1	3
520.506	1	-13
520.676	1	8
520.846	1	-2
521.017	1	5
521.187	1	10
521.357	1	-7
521.527	1	5
521.697	1	5
521.867	1	-5
522.037	1	0
522.207	1	-4
522.377	1	4
522.548	1	2
522.718	1	-1
522.888	1	14
523.058	1	6
523.228	1	12
523.398	1	0
523.568	1	2
523.738	1	8
523.909	1	1
524.079	1	6
524.249	1	2
524.419	1	9
524.589	1	-2
524.759	1	3
524.929	1	-1
525.099	1	-2
525.269	1	4
525.439	1	2
525.610	1	4
525.780	1	1
525.950	1	2
526.120	1	0
526.290	1	5
526.460	1	-9
526.630	1	1
526.800	1	11
526.970	1	11
527.140	1	0
527.311	1	-4
527.481	1	10
527.651	1	8
527.821	1	-8
527.991	1	14
528.161	1	7
528.331	1	16
528.501	1	3
528.671	1	-4
528.841	1	2
529.011	1	4
529.181	1	10
529.352	1	8
529.522	1	0
529.692	1	-1
529.862	1	9
530.032	1	7
530.202	1	4
530.372	1	0
530.542	1	-4
530.712	1	4
530.882	1	1
531.052	1	12
531.222	1	-1
531.392	1	6
531.563	1	1
531.733	1	2
531.903	1	9
532.073	1	-3
532.243	1	-3
532.413	1	2
532.583	1	-4
532.753	1	-2
532.923	1	12
533.093	1	12
533.263	1	-7
533.433	1	3
533.603	1	13
533.773	1	-1
533.943	1	-8
534.113	1	-2
534.284	1	3
534.454	1	-1
534.624	1	-3
534.794	1	4
534.964	1	2
535.134	1	11
535.304	1	4
535.474	1	-6
535.644	1	-4
535.814	1	8
535.984	1	8
536.154	1	3
536.324	1	3
536.494	1	9
536.664	1	-1
536.834	1	-4
537.004	1	7
537.174	1	6
537.344	1	10
537.514	1	-7
537.685	1	-5
537.855	1	3
538.025	1	7
538.195	1	-3
538.365	1	-1
538.535	1	5
538.705	1	10
538.875	1	10
539.045	1	4
539.215	1	-12
539.385	1	0
539.555	1	1
539.725	1	-3
539.895	1	8
540.065	1	6
540.235	1	7
540.405	1	4
540.575	1	0
540.745	1	0
540.915	1	5
541.085	1	-13
541.255	1	-15
541.425	1	2
541.595	1	6
541.765	1	14
541.935	1	-2
542.105	1	4
542.275	1	1
542.445	1	-1
542.615	1	-1
542.785	1	-8
542.955	1	-8
543.125	1	-13
543.295	1	-3
543.465	1	6
543.635	1	5
543.805	1	8
543.975	1	-6
544.145	1	0
544.315	1	-6
544.485	1	-11
544.655	1	9
544.825	1	12
544.995	1	10
545.165	1	-1
545.335	1	0
545.505	1	14
545.675	1	-11
545.845	1	4
546.015	1	1
546.185	1	6
546.355	1	-4
546.525	1	-3
546.695	1	0
546.865	1	8
547.035	1	10
547.205	1	3
547.375	1	12
547.545	1	16
547.715	1	7
547.885	1	6
548.055	1	-2
548.225	1	7
548.395	1	-3
548.565	1	8
548.735	1	2
548.905	1	-7
549.075	1	6
549.245	1	2
549.415	1	5
549.585	1	11
549.755	1	0
549.925	1	3
550.095	1	2
550.265	1	-5
550.435	1	-11
550.605	1	-4
550.775	1	-4
550.945	1	7
551.115	1	1
551.285	1	0
551.455	1	6
551.625	1	-6
551.795	1	4
551.965	1	9
552.135	1	2
552.305	1	0
552.475	1	1
552.645	1	-3
552.815	1	-3
552.985	1	2
553.155	1	7
553.325	1	-1
553.495	1	4
553.665	1	-3
553.835	1	-5
554.004	1	5
554.174	1	-1
554.344	1	2
554.514	1	1
554.684	1	-1
554.854	1	1
555.024	1	11
555.194	1	1
555.364	1	2
555.534	1	-7
555.704	1	9
555.874	1	-7
556.044	1	4
556.214	1	6
556.384	1	0
556.554	1	19
556.724	1	6
556.894	1	-1
557.064	1	1
557.234	1	2
557.404	1	-3
557.573	1	-3
557.743	1	4
557.913	1	-4
558.083	1	11
558.253	1	-4
558.423	1	-5
558.593	1	4
558.763	1	1
558.933	1	4
559.103	1	7
559.273	1	-8
559.443	1	9
559.613	1	5
559.783	1	9
559.953	1	3
560.122	1	1
560.292	1	4
560.462	1	-8
560.632	1	4
560.802	1	-5
560.972	1	9
561.142	1	4
561.312	1	2
561.482	1	8
561.652	1	-1
561.822	1	2
561.992	1	4
562.162	1	5
562.331	1	8
562.501	1	-1
562.671	1	20
562.841	1	7
563.011	1	-7
563.181	1	-3
563.351	1	1
563.521	1	5
563.691	1	9
563.861	1	-4
564.031	1	-1
564.201	1	-4
564.370	1	2
564.540	1	-5
564.710	1	11
564.880	1	-3
565.050	1	5
565.220	1	0
565.390	1	2
565.560	1	6
565.730	1	6
565.900	1	-4
566.069	1	3
566.239	1	0
566.409	1	7
566.579	1	6
566.749	1	0
566.919	1	3
567.089	1	8
567.259	1	5
567.429	1	8
567.599	1	3
567.768	1	7
567.938	1	-8
568.108	1	2
568.278	1	0
568.448	1	11
568.618	1	0
568.788	1	-11
568.958	1	-2
569.128	1	4
569.297	1	2
569.467	1	11
569.637	1	2
569.807	1	-4
569.977	1	0
570.147	1	2
570.317	1	1
570.487	1	-1
570.656	1	-5
570.826	1	0
570.996	1	2
571.166	1	-4
571.336	1	0
571.506	1	0
571.676	1	-8
571.846	1	-8
572.015	1	11
572.185	1	-5
572.355	1	11
572.525	1	-2
572.695	1	3
572.865	1	13
573.035	1	-3
573.205	1	-2
573.374	1	5
573.544	1	-1
573.714	1	-3
573.884	1	3
574.054	1	-12
574.224	1	-1
574.394	1	2
574.563	1	0
574.733	1	10
574.903	1	-1
575.073	1	0
575.243	1	1
575.413	1	5
575.583	1	4
575.752	1	8
575.922	1	4
576.092	1	-7
576.262	1	2
576.432	1	6
576.602	1	-2
576.772	1	4
576.941	1	14
577.111	1	0
577.281	1	11
577.451	1	-4
577.621	1	-4
577.791	1	4
577.960	1	-1
578.130	1	5
578.300	1	1
578.470	1	2
578.640	1	-3
578.810	1	4
578.979	1	2
579.149	1	3
579.319	1	6
579.489	1	7
579.659	1	-5
579.829	1	3
579.998	1	-10
580.168	1	-9
580.338	1	-4
580.508	1	-8
580.678	1	13
580.848	1	1
581.017	1	9
581.187	1	3
581.357	1	-2
581.527	1	-8
581.697	1	-5
581.867	1	10
582.036	1	-2
582.206	1	-3
582.376	1	9
582.546	1	15
582.716	1	0
582.885	1	2
583.055	1	-1
583.225	1	-9
583.395	1	-4
583.565	1	-5
583.735	1	-2
583.904	1	7
584.074	1	-4
584.244	1	11
584.414	1	3
584.584	1	1
584.753	1	11
584.923	1	13
585.093	1	-3
585.263	1	-10
585.433	1	17
585.602	1	-8
585.772	1	4
585.942	1	0
586.112	1	-2
586.282	1	2
586.451	1	3
586.621	1	0
586.791	1	5
586.961	1	3
587.131	1	-5
587.300	1	7
587.470	1	-11
587.640	1	-11
587.810	1	-8
587.980	1	-14
588.149	1	1
588.319	1	4
588.489	1	-7
588.659	1	8
588.829	1	-13
588.998	1	0
589.168	1	6
589.338	1	7
589.508	1	5
589.677	1	-1
589.847	1	2
590.017	1	4
590.187	1	-5
590.357	1	-9
590.526	1	3
590.696	1	-5
590.866	1	-4
591.036	1	-4
591.205	1	3
591.375	1	4
591.545	1	1
591.715	1	-12
591.885	1	-1
592.054	1	3
592.224	1	1
592.394	1	-3
592.564	1	4
592.733	1	2
592.903	1	-8
593.073	1	-4
593.243	1	5
593.412	1	4
593.582	1	0
593.752	1	5
593.922	1	3
594.091	1	1
594.261	1	-4
594.431	1	2
594.601	1	-2
594.771	1	5
594.940	1	8
595.110	1	3
595.280	1	9
595.450	1	4
595.619	1	-2
595.789	1	3
595.959	1	1
596.129	1	-6
596.298	1	-1
596.468	1	7
596.638	1	-1
596.808	1	-6
596.977	1	7
597.147	1	8
597.317	1	5
597.487	1	-2
597.656	1	-6
597.826	1	-12
597.996	1	-2
598.166	1	15
598.335	1	-12
598.505	1	2
598.675	1	-4
598.844	1	5
599.014	1	5
599.184	1	-5
599.354	1	1
599.523	1	5
599.693	1	1
599.863	1	3
600.033	1	1
600.202	1	12
600.372	1	0
600.542	1	-1
600.712	1	11
600.881	1	10
601.051	1	12
601.221	1	12
601.390	1	16
601.560	1	2
601.730	1	0
601.900	1	12
602.069	1	-7
602.239	1	0
602.409	1	6
602.578	1	0
602.748	1	9
602.918	1	5
603.088	1	3
603.257	1	10
603.427	1	15
603.597	1	2
603.767	1	7
603.936	1	4
604.106	1	0
604.276	1	10
604.445	1	-8
604.615	1	-3
604.785	1	6
604.954	1	9
605.124	1	0
605.294	1	7
605.464	1	-8
605.633	1	5
605.803	1	3
605.973	1	1
606.142	1	4
606.312	1	7
606.482	1	8
606.652	1	12
606.821	1	4
606.991	1	-5
607.161	1	3
607.330	1	1
607.500	1	8
607.670	1	12
607.839	1	-8
608.009	1	13
608.179	1	-2
608.348	1	1
608.518	1	-3
608.688	1	5
608.858	1	7
609.027	1	0
609.197	1	10
609.367	1	-2
609.536	1	5
609.706	1	1
609.876	1	4
610.045	1	7
610.215	1	10
610.385	1	2
610.554	1	11
610.724	1	-1
610.894	1	4
611.063	1	-3
611.233	1	-7
611.403	1	-1
611.572	1	0
611.742	1	-3
611.912	1	11
612.081	1	4
612.251	1	17
612.421	1	3
612.590	1	-6
612.760	1	8
612.930	1	-1
613.099	1	-1
613.269	1	0
613.439	1	-5
613.608	1	8
613.778	1	-7
613.948	1	6
614.117	1	3
614.287	1	-6
614.457	1	1
614.626	1	14
614.796	1	9
614.966	1	12
615.135	1	-3
615.305	1	5
615.475	1	-6
615.644	1	3
615.814	1	2
615.984	1	10
616.153	1	-2
616.323	1	1
616.493	1	9
616.662	1	5
616.832	1	1
617.002	1	1
617.171	1	2
617.341	1	2
617.511	1	-2
617.680	1	-4
617.850	1	5
618.019	1	6
618.189	1	3
618.359	1	-5
618.528	1	-3
618.698	1	0
618.868	1	-3
619.037	1	3
619.207	1	8
619.377	1	0
619.546	1	-10
619.716	1	0
619.885	1	6
620.055	1	14
620.225	1	13
620.394	1	-5
620.564	1	-12
620.734	1	-4
620.903	1	-10
621.073	1	-3
621.242	1	-1
621.412	1	11
621.582	1	7
621.751	1	7
621.921	1	13
622.091	1	-1
622.260	1	5
622.430	1	8
622.599	1	4
622.769	1	-6
622.939	1	-10
623.108	1	10
623.278	1	12
623.448	1	6
623.617	1	-1
623.787	1	14
623.956	1	5
624.126	1	4
624.296	1	13
624.465	1	6
624.635	1	-2
624.804	1	7
624.974	1	-3
625.144	1	18
625.313	1	-2
625.483	1	13
625.652	1	12
625.822	1	6
625.992	1	9
626.161	1	-6
626.331	1	3
626.501	1	-2
626.670	1	3
626.840	1	-2
627.009	1	5
627.179	1	-1
627.348	1	18
627.518	1	3
627.688	1	3
627.857	1	-3
628.027	1	0
628.196	1	-7
628.366	1	1
628.536	1	8
628.705	1	0
628.875	1	0
629.044	1	9
629.214	1	8
629.384	1	2
629.553	1	10
629.723	1	-2
629.892	1	3
630.062	1	-13
630.232	1	5
630.401	1	5
630.571	1	19
630.740	1	-3
630.910	1	-1
631.079	1	9
631.249	1	0
631.419	1	12
631.588	1	-4
631.758	1	3
631.927	1	1
632.097	1	-1
632.266	1	-7
632.436	1	7
632.606	1	-3
632.775	1	14
632.945	1	-15
633.114	1	-5
633.284	1	1
633.453	1	5
633.623	1	14
633.793	1	-1
633.962	1	-3
634.132	1	2
634.301	1	5
634.471	1	-1
634.640	1	2
634.810	1	7
634.979	1	0
635.149	1	1
635.319	1	18
635.488	1	3
635.658	1	2
635.827	1	-4
635.997	1	9
636.166	1	-2
636.336	1	-1
636.505	1	5
636.675	1	3
636.845	1	5
637.014	1	9
637.184	1	2
637.353	1	1
637.523	1	7
637.692	1	-4
637.862	1	-2
638.031	1	-8
638.201	1	-2
638.370	1	13
638.540	1	8
638.710	1	-2
638.879	1	9
639.049	1	-3
639.218	1	16
639.388	1	6
639.557	1	12
639.727	1	7
639.896	1	2
640.066	1	3
640.235	1	1
640.405	1	2
640.574	1	5
640.744	1	-3
640.914	1	6
641.083	1	3
641.253	1	-5
641.422	1	5
641.592	1	0
641.761	1	-8
641.931	1	1
642.100	1	2
642.270	1	-5
642.439	1	1
642.609	1	9
642.778	1	5
642.948	1	12
643.117	1	9
643.287	1	-1
643.456	1	-5
643.626	1	5
643.795	1	7
643.965	1	6
644.134	1	6
644.304	1	17
644.473	1	2
644.643	1	-5
644.812	1	3
644.982	1	1
645.151	1	8
645.321	1	3
645.490	1	15
645.660	1	3
645.829	1	-2
645.999	1	8
646.168	1	4
646.338	1	6
646.507	1	-3
646.677	1	3
646.846	1	2
647.016	1	1
647.185	1	6
647.355	1	11
647.524	1	4
647.694	1	-5
647.863	1	8
648.033	1	0
648.202	1	3
648.372	1	1
648.541	1	1
648.711	1	4
648.880	1	1
649.050	1	4
649.219	1	2
649.389	1	2
649.558	1	8
649.728	1	5
649.897	1	-2
650.067	1	-1
650.236	1	-4
650.406	1	9
650.575	1	11
650.745	1	-3
650.914	1	8
651.084	1	7
651.253	1	0
651.423	1	9
651.592	1	-7
651.762	1	5
651.931	1	15
652.101	1	7
652.270	1	2
652.440	1	5
652.609	1	5
652.778	1	2
652.948	1	5
653.117	1	6
653.287	1	-2
653.456	1	0
653.626	1	2
653.795	1	-2
653.965	1	-4
654.134	1	-7
654.304	1	4
654.473	1	0
654.643	1	9
654.812	1	3
654.982	1	7
655.151	1	7
655.320	1	9
655.490	1	-1
655.659	1	10
655.829	1	-1
655.998	1	-1
656.168	1	-6
656.337	1	-5
656.507	1	-3
656.676	1	2
656.846	1	7
657.015	1	-4
657.184	1	-5
657.354	1	6
657.523	1	-2
657.693	1	-9
657.862	1	0
658.032	1	8
658.201	1	2
658.371	1	6
658.540	1	13
658.709	1	-3
658.879	1	4
659.048	1	1
659.218	1	-5
659.387	1	6
659.557	1	1
659.726	1	0
659.895	1	8
660.065	1	13
660.234	1	-2
660.404	1	5
660.573	1	6
660.743	1	1
660.912	1	-7
661.081	1	-8
661.251	1	10
661.420	1	11
661.590	1	0
661.759	1	2
661.929	1	11
662.098	1	6
662.267	1	10
662.437	1	3
662.606	1	8
662.776	1	2
662.945	1	2
663.115	1	3
663.284	1	2
663.453	1	16
663.623	1	10
663.792	1	-3
663.962	1	-10
664.131	1	6
664.300	1	-12
664.470	1	2
664.639	1	1
664.809	1	4
664.978	1	8
665.148	1	-4
665.317	1	8
665.486	1	1
665.656	1	10
665.825	1	13
665.995	1	-2
666.164	1	8
666.333	1	-4
666.503	1	6
666.672	1	6
666.842	1	-4
667.011	1	7
667.180	1	9
667.350	1	-4
667.519	1	8
667.689	1	-4
667.858	1	1
668.027	1	7
668.197	1	-2
668.366	1	0
668.536	1	-12
668.705	1	3
668.874	1	5
669.044	1	9
669.213	1	4
669.382	1	0
669.552	1	-2
669.721	1	3
669.891	1	-8
670.060	1	1
670.229	1	-2
670.399	1	-6
670.568	1	-4
670.738	1	-5
670.907	1	-1
671.076	1	5
671.246	1	-11
671.415	1	11
671.584	1	4
671.754	1	2
671.923	1	8
672.093	1	1
672.262	1	-5
672.431	1	0
672.601	1	8
672.770	1	-5
672.939	1	-14
673.109	1	7
673.278	1	5
673.448	1	-2
673.617	1	3
673.786	1	10
