325.333	1	4
325.504	1	16
325.675	1	9
325.846	1	2
326.017	1	4
326.188	1	20
326.359	1	12
326.531	1	19
326.702	1	10
326.873	1	8
327.044	1	15
327.215	1	-6
327.386	1	10
327.557	1	18
327.728	1	9
327.899	1	11
328.070	1	16
328.241	1	7
328.412	1	7
328.583	1	20
328.754	1	9
328.926	1	11
329.097	1	1
329.268	1	-2
329.439	1	5
329.610	1	4
329.781	1	9
329.952	1	7
330.123	1	11
330.294	1	12
330.465	1	14
330.636	1	21
330.807	1	10
330.978	1	9
331.149	1	16
331.320	1	14
331.492	1	10
331.663	1	4
331.834	1	6
332.005	1	8
332.176	1	15
332.347	1	19
332.518	1	19
332.689	1	9
332.860	1	20
333.031	1	18
333.202	1	7
333.373	1	7
333.544	1	14
333.715	1	7
333.886	1	14
334.057	1	-1
334.228	1	6
334.399	1	10
334.570	1	7
334.741	1	2
334.912	1	16
335.084	1	11
335.255	1	6
335.426	1	11
335.597	1	16
335.768	1	22
335.939	1	6
336.110	1	16
336.281	1	7
336.452	1	17
336.623	1	7
336.794	1	12
336.965	1	5
337.136	1	21
337.307	1	23
337.478	1	6
337.649	1	6
337.820	1	5
337.991	1	11
338.162	1	16
338.333	1	21
338.504	1	21
338.675	1	14
338.846	1	11
339.017	1	28
339.188	1	30
339.359	1	18
339.530	1	18
339.701	1	14
339.872	1	25
340.043	1	5
340.214	1	5
340.385	1	7
340.556	1	13
340.727	1	14
340.898	1	24
341.069	1	0
341.240	1	12
341.411	1	25
341.582	1	21
341.753	1	-1
341.924	1	15
342.095	1	25
342.266	1	-2
342.437	1	6
342.608	1	13
342.779	1	21
342.950	1	11
343.121	1	19
343.292	1	27
343.463	1	17
343.634	1	32
343.805	1	24
343.976	1	8
344.147	1	20
344.318	1	15
344.489	1	13
344.660	1	23
344.831	1	22
345.002	1	29
345.173	1	27
345.344	1	9
345.515	1	21
345.686	1	7
345.857	1	13
346.028	1	8
346.199	1	15
346.370	1	19
346.541	1	19
346.712	1	19
346.883	1	27
347.054	1	17
347.225	1	10
347.396	1	20
347.567	1	19
347.738	1	18
347.909	1	21
348.080	1	23
348.251	1	14
348.422	1	9
348.593	1	24
348.764	1	29
348.935	1	19
349.106	1	16
349.277	1	26
349.448	1	14
349.619	1	21
349.790	1	21
349.961	1	18
350.132	1	31
350.303	1	19
350.474	1	22
350.645	1	22
350.816	1	14
350.987	1	20
351.157	1	26
351.328	1	24
351.499	1	26
351.670	1	16
351.841	1	20
352.012	1	32
352.183	1	26
352.354	1	22
352.525	1	24
352.696	1	21
352.867	1	25
353.038	1	15
353.209	1	18
353.380	1	27
353.551	1	13
353.722	1	26
353.893	1	27
354.064	1	19
354.235	1	25
354.406	1	32
354.576	1	19
354.747	1	23
354.918	1	24
355.089	1	27
355.260	1	28
355.431	1	27
355.602	1	12
355.773	1	21
355.944	1	24
356.115	1	10
356.286	1	28
356.457	1	24
356.628	1	23
356.799	1	31
356.970	1	23
357.141	1	30
357.311	1	27
357.482	1	12
357.653	1	18
357.824	1	20
357.995	1	32
358.166	1	24
358.337	1	15
358.508	1	14
358.679	1	14
358.850	1	22
359.021	1	29
359.192	1	32
359.363	1	7
359.533	1	15
359.704	1	40
359.875	1	15
360.046	1	24
360.217	1	16
360.388	1	18
360.559	1	20
360.730	1	14
360.901	1	21
361.072	1	29
361.243	1	19
361.414	1	29
361.584	1	45
361.755	1	21
361.926	1	13
362.097	1	26
362.268	1	28
362.439	1	29
362.610	1	20
362.781	1	27
362.952	1	21
363.123	1	23
363.293	1	20
363.464	1	15
363.635	1	30
363.806	1	29
363.977	1	23
364.148	1	26
364.319	1	22
364.490	1	29
364.661	1	30
364.832	1	34
365.002	1	16
365.173	1	24
365.344	1	27
365.515	1	26
365.686	1	19
365.857	1	20
366.028	1	26
366.199	1	28
366.370	1	29
366.540	1	28
366.711	1	20
366.882	1	17
367.053	1	32
367.224	1	24
367.395	1	38
367.566	1	41
367.737	1	26
367.908	1	23
368.078	1	22
368.249	1	23
368.420	1	20
368.591	1	22
368.762	1	14
368.933	1	32
369.104	1	31
369.274	1	35
369.445	1	37
369.616	1	26
369.787	1	14
369.958	1	28
370.129	1	36
370.300	1	26
370.471	1	28
370.641	1	21
370.812	1	28
370.983	1	28
371.154	1	30
371.325	1	29
371.496	1	25
371.667	1	25
371.837	1	27
372.008	1	33
372.179	1	25
372.350	1	33
372.521	1	23
372.692	1	25
372.863	1	23
373.033	1	33
373.204	1	29
373.375	1	21
373.546	1	31
373.717	1	23
373.888	1	38
374.059	1	31
374.229	1	36
374.400	1	40
374.571	1	35
374.742	1	27
374.913	1	38
375.084	1	45
375.254	1	31
375.425	1	30
375.596	1	19
375.767	1	12
375.938	1	21
376.109	1	19
376.279	1	39
376.450	1	24
376.621	1	31
376.792	1	40
376.963	1	24
377.134	1	25
377.304	1	25
377.475	1	17
377.646	1	31
377.817	1	18
377.988	1	34
378.159	1	38
378.329	1	19
378.500	1	33
378.671	1	27
378.842	1	28
379.013	1	29
379.184	1	42
379.354	1	36
379.525	1	18
379.696	1	47
379.867	1	35
380.038	1	30
380.209	1	28
380.379	1	42
380.550	1	33
380.721	1	33
380.892	1	39
381.063	1	40
381.233	1	43
381.404	1	36
381.575	1	32
381.746	1	36
381.917	1	40
382.087	1	26
382.258	1	45
382.429	1	36
382.600	1	28
382.771	1	40
382.941	1	40
383.112	1	25
383.283	1	39
383.454	1	40
383.625	1	23
383.795	1	41
383.966	1	39
384.137	1	27
384.308	1	31
384.479	1	42
384.649	1	29
384.820	1	41
384.991	1	27
385.162	1	28
385.333	1	30
385.503	1	36
385.674	1	48
385.845	1	36
386.016	1	32
386.187	1	41
386.357	1	34
386.528	1	32
386.699	1	33
386.870	1	29
387.041	1	44
387.211	1	35
387.382	1	24
387.553	1	40
387.724	1	39
387.894	1	42
388.065	1	52
388.236	1	45
388.407	1	50
388.578	1	40
388.748	1	39
388.919	1	51
389.090	1	49
389.261	1	56
389.431	1	40
389.602	1	43
389.773	1	35
389.944	1	44
390.114	1	48
390.285	1	35
390.456	1	46
390.627	1	44
390.798	1	45
390.968	1	34
391.139	1	38
391.310	1	40
391.481	1	49
391.651	1	44
391.822	1	41
391.993	1	40
392.164	1	32
392.334	1	25
392.505	1	51
392.676	1	43
392.847	1	49
393.017	1	31
393.188	1	37
393.359	1	37
393.530	1	32
393.700	1	45
393.871	1	42
394.042	1	51
394.213	1	49
394.383	1	43
394.554	1	61
394.725	1	45
394.896	1	41
395.066	1	43
395.237	1	28
395.408	1	42
395.579	1	43
395.749	1	42
395.920	1	35
396.091	1	50
396.262	1	32
396.432	1	42
396.603	1	38
396.774	1	44
396.945	1	39
397.115	1	34
397.286	1	46
397.457	1	40
397.627	1	40
397.798	1	44
397.969	1	40
398.140	1	36
398.310	1	47
398.481	1	42
398.652	1	41
398.823	1	32
398.993	1	57
399.164	1	49
399.335	1	38
399.505	1	57
399.676	1	58
399.847	1	43
400.018	1	43
400.188	1	52
400.359	1	51
400.530	1	34
400.700	1	52
400.871	1	56
401.042	1	51
401.213	1	38
401.383	1	50
401.554	1	46
401.725	1	44
401.895	1	37
402.066	1	55
402.237	1	55
402.408	1	53
402.578	1	50
402.749	1	51
402.920	1	50
403.090	1	51
403.261	1	46
403.432	1	55
403.603	1	31
403.773	1	51
403.944	1	51
404.115	1	35
404.285	1	62
404.456	1	44
404.627	1	40
404.797	1	40
404.968	1	34
405.139	1	50
405.310	1	46
405.480	1	51
405.651	1	48
405.822	1	58
405.992	1	52
406.163	1	47
406.334	1	50
406.504	1	36
406.675	1	41
406.846	1	43
407.016	1	43
407.187	1	45
407.358	1	45
407.528	1	45
407.699	1	46
407.870	1	52
408.041	1	52
408.211	1	40
408.382	1	45
408.553	1	34
408.723	1	48
408.894	1	52
409.065	1	51
409.235	1	46
409.406	1	41
409.577	1	47
409.747	1	57
409.918	1	47
410.089	1	40
410.259	1	45
410.430	1	60
410.601	1	60
410.771	1	39
410.942	1	32
411.113	1	47
411.283	1	49
411.454	1	49
411.625	1	49
411.795	1	35
411.966	1	56
412.137	1	40
412.307	1	48
412.478	1	55
412.649	1	43
412.819	1	40
412.990	1	54
413.161	1	56
413.331	1	49
413.502	1	32
413.672	1	48
413.843	1	50
414.014	1	62
414.184	1	49
414.355	1	42
414.526	1	55
414.696	1	42
414.867	1	48
415.038	1	37
415.208	1	50
415.379	1	42
415.550	1	47
415.720	1	47
415.891	1	60
416.062	1	42
416.232	1	42
416.403	1	40
416.573	1	50
416.744	1	44
416.915	1	42
417.085	1	37
417.256	1	51
417.427	1	53
417.597	1	47
417.768	1	49
417.939	1	53
418.109	1	31
418.280	1	49
418.450	1	47
418.621	1	40
418.792	1	47
418.962	1	46
419.133	1	49
419.304	1	36
419.474	1	38
419.645	1	42
419.815	1	52
419.986	1	49
420.157	1	50
420.327	1	48
420.498	1	39
420.669	1	56
420.839	1	48
421.010	1	43
421.180	1	32
421.351	1	61
421.522	1	49
421.692	1	54
421.863	1	51
422.033	1	60
422.204	1	48
422.375	1	41
422.545	1	46
422.716	1	45
422.886	1	56
423.057	1	36
423.228	1	50
423.398	1	47
423.569	1	53
423.740	1	34
423.910	1	51
424.081	1	53
424.251	1	42
424.422	1	37
424.593	1	43
424.763	1	45
424.934	1	47
425.104	1	51
425.275	1	43
425.445	1	58
425.616	1	46
425.787	1	42
425.957	1	55
426.128	1	47
426.298	1	47
426.469	1	41
426.640	1	53
426.810	1	58
426.981	1	41
427.151	1	40
427.322	1	41
427.493	1	42
427.663	1	42
427.834	1	49
428.004	1	57
428.175	1	36
428.345	1	55
428.516	1	56
428.687	1	41
428.857	1	39
429.028	1	44
429.198	1	42
429.369	1	40
429.540	1	50
429.710	1	53
429.881	1	43
430.051	1	39
430.222	1	47
430.392	1	60
430.563	1	46
430.734	1	52
430.904	1	44
431.075	1	36
431.245	1	40
431.416	1	34
431.586	1	50
431.757	1	53
431.927	1	38
432.098	1	55
432.269	1	59
432.439	1	53
432.610	1	52
432.780	1	37
432.951	1	39
433.121	1	45
433.292	1	43
433.462	1	49
433.633	1	57
433.804	1	29
433.974	1	53
434.145	1	48
434.315	1	54
434.486	1	30
434.656	1	52
434.827	1	48
434.997	1	55
435.168	1	45
435.339	1	44
435.509	1	44
435.680	1	45
435.850	1	43
436.021	1	48
436.191	1	55
436.362	1	48
436.532	1	41
436.703	1	52
436.873	1	51
437.044	1	41
437.214	1	55
437.385	1	63
437.556	1	57
437.726	1	40
437.897	1	42
438.067	1	41
438.238	1	45
438.408	1	46
438.579	1	43
438.749	1	30
438.920	1	45
439.090	1	50
439.261	1	38
439.431	1	43
439.602	1	47
439.772	1	37
439.943	1	51
440.113	1	52
440.284	1	50
440.455	1	56
440.625	1	40
440.796	1	38
440.966	1	41
441.137	1	42
441.307	1	48
441.478	1	40
441.648	1	64
441.819	1	38
441.989	1	39
442.160	1	44
442.330	1	47
442.501	1	38
442.671	1	41
442.842	1	46
443.012	1	34
443.183	1	47
443.353	1	44
443.524	1	42
443.694	1	39
443.865	1	53
444.035	1	44
444.206	1	38
444.376	1	50
444.547	1	31
444.717	1	52
444.888	1	32
445.058	1	48
445.229	1	46
445.399	1	41
445.570	1	44
445.740	1	49
445.911	1	39
446.081	1	46
446.252	1	32
446.422	1	52
446.593	1	48
446.763	1	46
446.934	1	48
447.104	1	45
447.275	1	50
447.445	1	44
447.616	1	45
447.786	1	32
447.957	1	57
448.127	1	59
448.298	1	57
448.468	1	43
448.639	1	43
448.809	1	40
448.979	1	47
449.150	1	46
449.320	1	53
449.491	1	37
449.661	1	58
449.832	1	47
450.002	1	48
450.173	1	33
450.343	1	50
450.514	1	39
450.684	1	48
450.855	1	37
451.025	1	48
451.196	1	48
451.366	1	47
451.537	1	39
451.707	1	50
451.878	1	47
452.048	1	38
452.218	1	49
452.389	1	41
452.559	1	47
452.730	1	39
452.900	1	48
453.071	1	42
453.241	1	38
453.412	1	33
453.582	1	32
453.753	1	51
453.923	1	45
454.093	1	52
454.264	1	35
454.434	1	44
454.605	1	50
454.775	1	44
454.946	1	43
455.116	1	41
455.287	1	46
455.457	1	36
455.628	1	42
455.798	1	37
455.968	1	35
456.139	1	42
456.309	1	52
456.480	1	50
456.650	1	48
456.821	1	48
456.991	1	40
457.161	1	48
457.332	1	41
457.502	1	53
457.673	1	53
457.843	1	39
458.014	1	47
458.184	1	39
458.355	1	32
458.525	1	48
458.695	1	41
458.866	1	54
459.036	1	40
459.207	1	42
459.377	1	48
459.548	1	36
459.718	1	43
459.888	1	42
460.059	1	43
460.229	1	35
460.400	1	40
460.570	1	48
460.740	1	33
460.911	1	49
461.081	1	37
461.252	1	45
461.422	1	39
461.593	1	47
461.763	1	35
461.933	1	35
462.104	1	39
462.274	1	26
462.445	1	47
462.615	1	34
462.785	1	36
462.956	1	44
463.126	1	38
463.297	1	36
463.467	1	45
463.638	1	31
463.808	1	53
463.978	1	47
464.149	1	36
464.319	1	42
464.490	1	43
464.660	1	36
464.830	1	38
465.001	1	42
465.171	1	40
465.342	1	32
465.512	1	39
465.682	1	25
465.853	1	28
466.023	1	42
466.194	1	31
466.364	1	37
466.534	1	41
466.705	1	33
466.875	1	50
467.045	1	31
467.216	1	34
467.386	1	49
467.557	1	39
467.727	1	38
467.897	1	36
468.068	1	22
468.238	1	39
468.409	1	34
468.579	1	35
468.749	1	38
468.920	1	35
469.090	1	43
469.260	1	44
469.431	1	51
469.601	1	38
469.772	1	23
469.942	1	37
470.112	1	35
470.283	1	40
470.453	1	37
470.623	1	30
470.794	1	24
470.964	1	40
471.135	1	43
471.305	1	34
471.475	1	35
471.646	1	41
471.816	1	38
471.986	1	42
472.157	1	34
472.327	1	40
472.497	1	35
472.668	1	36
472.838	1	29
473.009	1	35
473.179	1	44
473.349	1	27
473.520	1	50
473.690	1	44
473.860	1	22
474.031	1	40
474.201	1	32
474.371	1	35
474.542	1	37
474.712	1	31
474.882	1	35
475.053	1	44
475.223	1	22
475.394	1	34
475.564	1	26
475.734	1	40
475.905	1	33
476.075	1	25
476.245	1	34
476.416	1	27
476.586	1	20
476.756	1	30
476.927	1	24
477.097	1	25
477.267	1	39
477.438	1	36
477.608	1	31
477.778	1	26
477.949	1	30
478.119	1	40
478.289	1	18
478.460	1	27
478.630	1	39
478.800	1	33
478.971	1	28
479.141	1	23
479.311	1	29
479.482	1	30
479.652	1	37
479.822	1	28
479.993	1	23
480.163	1	37
480.333	1	23
480.504	1	20
480.674	1	33
480.844	1	24
481.015	1	37
481.185	1	33
481.355	1	30
481.525	1	37
481.696	1	23
481.866	1	23
482.036	1	33
482.207	1	27
482.377	1	32
482.547	1	23
482.718	1	25
482.888	1	32
483.058	1	28
483.229	1	24
483.399	1	27
483.569	1	31
483.740	1	29
483.910	1	18
484.080	1	23
484.250	1	19
484.421	1	28
484.591	1	34
484.761	1	29
484.932	1	15
485.102	1	40
485.272	1	22
485.443	1	27
485.613	1	35
485.783	1	28
485.953	1	25
486.124	1	23
486.294	1	19
486.464	1	21
486.635	1	28
486.805	1	18
486.975	1	31
487.146	1	26
487.316	1	30
487.486	1	33
487.656	1	23
487.827	1	24
487.997	1	20
488.167	1	18
488.338	1	11
488.508	1	26
488.678	1	17
488.848	1	28
489.019	1	15
489.189	1	17
489.359	1	21
489.529	1	27
489.700	1	22
489.870	1	8
490.040	1	16
490.211	1	31
490.381	1	25
490.551	1	18
490.721	1	26
490.892	1	24
491.062	1	18
491.232	1	15
491.402	1	25
491.573	1	20
491.743	1	16
491.913	1	15
492.084	1	29
492.254	1	21
492.424	1	30
492.594	1	24
492.765	1	17
492.935	1	19
493.105	1	26
493.275	1	25
493.446	1	29
493.616	1	30
493.786	1	17
493.956	1	25
494.127	1	27
494.297	1	14
494.467	1	39
494.637	1	23
494.808	1	25
494.978	1	20
495.148	1	27
495.318	1	22
495.489	1	18
495.659	1	11
495.829	1	25
495.999	1	11
496.170	1	13
496.340	1	22
496.510	1	26
496.680	1	22
496.851	1	28
497.021	1	13
497.191	1	24
497.361	1	12
497.532	1	17
497.702	1	17
497.872	1	35
498.042	1	21
498.213	1	25
498.383	1	16
498.553	1	10
498.723	1	27
498.894	1	18
499.064	1	17
499.234	1	11
499.404	1	11
499.574	1	16
499.745	1	13
499.915	1	18
500.085	1	14
500.255	1	16
500.426	1	22
500.596	1	17
500.766	1	16
500.936	1	24
501.106	1	12
501.277	1	13
501.447	1	21
501.617	1	18
501.787	1	21
501.958	1	16
502.128	1	1
502.298	1	21
502.468	1	22
502.638	1	23
502.809	1	22
502.979	1	34
503.149	1	15
503.319	1	18
503.489	1	12
503.660	1	10
503.830	1	14
504.000	1	19
504.170	1	22
504.340	1	18
504.511	1	30
504.681	1	9
504.851	1	15
505.021	1	21
505.192	1	6
505.362	1	16
505.532	1	31
505.702	1	21
505.872	1	13
506.043	1	27
506.213	1	14
506.383	1	9
506.553	1	24
506.723	1	16
506.893	1	14
507.064	1	11
507.234	1	18
507.404	1	21
507.574	1	14
507.744	1	17
507.915	1	26
508.085	1	17
508.255	1	10
508.425	1	21
508.595	1	6
508.766	1	16
508.936	1	25
509.106	1	19
509.276	1	21
509.446	1	18
509.616	1	10
509.787	1	24
509.957	1	25
510.127	1	19
510.297	1	4
510.467	1	0
510.638	1	22
510.808	1	13
510.978	1	7
511.148	1	31
511.318	1	13
511.488	1	22
511.659	1	9
511.829	1	22
511.999	1	13
512.169	1	15
512.339	1	17
512.509	1	13
512.680	1	21
512.850	1	23
513.020	1	10
513.190	1	10
513.360	1	8
513.530	1	19
513.700	1	13
513.871	1	20
514.041	1	15
514.211	1	19
514.381	1	25
514.551	1	6
514.721	1	12
514.892	1	5
515.062	1	4
515.232	1	10
515.402	1	17
515.572	1	9
515.742	1	14
515.912	1	18
516.083	1	14
516.253	1	23
516.423	1	13
516.593	1	13
516.763	1	23
516.933	1	2
517.104	1	3
517.274	1	7
517.444	1	11
517.614	1	18
517.784	1	18
517.954	1	24
518.124	1	-5
518.294	1	16
518.465	1	17
518.635	1	14
518.805	1	27
518.975	1	19
519.145	1	21
519.315	1	16
519.485	1	10
519.656	1	15
519.826	1	6
519.996	1	11
520.166	1	20
520.336	1	6
520.506	1	-4
520.676	1	22
520.846	1	11
521.017	1	15
521.187	1	16
521.357	1	12
521.527	1	13
521.697	1	15
521.867	1	22
522.037	1	4
522.207	1	10
522.377	1	9
522.548	1	10
522.718	1	11
522.888	1	18
523.058	1	18
523.228	1	13
523.398	1	8
523.568	1	7
523.738	1	7
523.909	1	11
524.079	1	10
524.249	1	14
524.419	1	12
524.589	1	10
524.759	1	11
524.929	1	7
525.099	1	8
525.269	1	23
525.439	1	11
525.610	1	10
525.780	1	13
525.950	1	18
526.120	1	9
526.290	1	14
526.460	1	15
526.630	1	21
526.800	1	16
526.970	1	19
527.140	1	8
527.311	1	13
527.481	1	6
527.651	1	9
527.821	1	9
527.991	1	13
528.161	1	13
528.331	1	22
528.501	1	21
528.671	1	14
528.841	1	9
529.011	1	3
529.181	1	18
529.352	1	0
529.522	1	11
529.692	1	15
529.862	1	11
530.032	1	25
530.202	1	0
530.372	1	22
530.542	1	7
530.712	1	5
530.882	1	4
531.052	1	14
531.222	1	1
531.392	1	4
531.563	1	14
531.733	1	13
531.903	1	16
532.073	1	14
532.243	1	0
532.413	1	15
532.583	1	12
532.753	1	19
532.923	1	16
533.093	1	13
533.263	1	-6
533.433	1	16
533.603	1	14
533.773	1	3
533.943	1	0
534.113	1	18
534.284	1	12
534.454	1	5
534.624	1	11
534.794	1	7
534.964	1	5
535.134	1	17
535.304	1	15
535.474	1	-6
535.644	1	11
535.814	1	16
535.984	1	18
536.154	1	9
536.324	1	15
536.494	1	17
536.664	1	10
536.834	1	12
537.004	1	15
537.174	1	7
537.344	1	23
537.514	1	8
537.685	1	10
537.855	1	2
538.025	1	12
538.195	1	9
538.365	1	17
538.535	1	-2
538.705	1	26
538.875	1	20
539.045	1	16
539.215	1	1
539.385	1	9
539.555	1	18
539.725	1	2
539.895	1	12
540.065	1	6
540.235	1	7
540.405	1	9
540.575	1	5
540.745	1	14
540.915	1	6
541.085	1	-4
541.255	1	-1
541.425	1	19
541.595	1	13
541.765	1	21
541.935	1	2
542.105	1	7
542.275	1	16
542.445	1	14
542.615	1	11
542.785	1	3
542.955	1	4
543.125	1	4
543.295	1	5
543.465	1	15
543.635	1	11
543.805	1	17
543.975	1	4
544.145	1	7
544.315	1	10
544.485	1	8
544.655	1	16
544.825	1	9
544.995	1	12
545.165	1	12
545.335	1	5
545.505	1	19
545.675	1	-1
545.845	1	13
546.015	1	11
546.185	1	18
546.355	1	8
546.525	1	8
546.695	1	10
546.865	1	19
547.035	1	17
547.205	1	9
547.375	1	17
547.545	1	26
547.715	1	23
547.885	1	20
548.055	1	1
548.225	1	12
548.395	1	-1
548.565	1	12
548.735	1	9
548.905	1	-1
549.075	1	6
549.245	1	12
549.415	1	6
549.585	1	8
549.755	1	11
549.925	1	-2
550.095	1	12
550.265	1	11
550.435	1	-5
550.605	1	4
550.775	1	7
550.945	1	17
551.115	1	6
551.285	1	5
551.455	1	12
551.625	1	-1
551.795	1	10
551.965	1	11
552.135	1	13
552.305	1	6
552.475	1	11
552.645	1	11
552.815	1	6
552.985	1	7
553.155	1	6
553.325	1	15
553.495	1	9
553.665	1	9
553.835	1	9
554.004	1	4
554.174	1	5
554.344	1	10
554.514	1	3
554.684	1	3
554.854	1	11
555.024	1	10
555.194	1	12
555.364	1	13
555.534	1	3
555.704	1	13
555.874	1	-1
556.044	1	14
556.214	1	2
556.384	1	16
556.554	1	14
556.724	1	3
556.894	1	5
557.064	1	2
557.234	1	13
557.404	1	2
557.573	1	5
557.743	1	8
557.913	1	1
558.083	1	6
558.253	1	-1
558.423	1	2
558.593	1	11
558.763	1	10
558.933	1	5
559.103	1	15
559.273	1	4
559.443	1	7
559.613	1	7
559.783	1	12
559.953	1	8
560.122	1	6
560.292	1	6
560.462	1	-5
560.632	1	9
560.802	1	14
560.972	1	10
561.142	1	12
561.312	1	10
561.482	1	16
561.652	1	10
561.822	1	-2
561.992	1	-5
562.162	1	12
562.331	1	16
562.501	1	-4
562.671	1	14
562.841	1	4
563.011	1	-2
563.181	1	17
563.351	1	1
563.521	1	9
563.691	1	13
563.861	1	14
564.031	1	-7
564.201	1	6
564.370	1	-3
564.540	1	-4
564.710	1	15
564.880	1	11
565.050	1	7
565.220	1	10
565.390	1	3
565.560	1	5
565.730	1	4
565.900	1	1
566.069	1	10
566.239	1	8
566.409	1	15
566.579	1	5
566.749	1	12
566.919	1	6
567.089	1	12
567.259	1	3
567.429	1	10
567.599	1	6
567.768	1	7
567.938	1	-9
568.108	1	6
568.278	1	6
568.448	1	16
568.618	1	10
568.788	1	-9
568.958	1	4
569.128	1	2
569.297	1	11
569.467	1	4
569.637	1	5
569.807	1	13
569.977	1	12
570.147	1	-2
570.317	1	8
570.487	1	16
570.656	1	3
570.826	1	5
570.996	1	8
571.166	1	1
571.336	1	8
571.506	1	8
571.676	1	-3
571.846	1	5
572.015	1	21
572.185	1	2
572.355	1	6
572.525	1	10
572.695	1	10
572.865	1	21
573.035	1	-5
573.205	1	-7
573.374	1	8
573.544	1	1
573.714	1	6
573.884	1	10
574.054	1	9
574.224	1	9
574.394	1	0
574.563	1	5
574.733	1	13
574.903	1	4
575.073	1	1
575.243	1	6
575.413	1	9
575.583	1	3
575.752	1	9
575.922	1	7
576.092	1	-8
576.262	1	16
576.432	1	16
576.602	1	4
576.772	1	8
576.941	1	9
577.111	1	2
577.281	1	21
577.451	1	1
577.621	1	9
577.791	1	12
577.960	1	7
578.130	1	13
578.300	1	9
578.470	1	5
578.640	1	-7
578.810	1	8
578.979	1	-7
579.149	1	-6
579.319	1	6
579.489	1	12
579.659	1	9
579.829	1	8
579.998	1	9
580.168	1	-3
580.338	1	2
580.508	1	6
580.678	1	13
580.848	1	0
581.017	1	8
581.187	1	4
581.357	1	0
581.527	1	11
581.697	1	5
581.867	1	18
582.036	1	11
582.206	1	-1
582.376	1	4
582.546	1	27
582.716	1	0
582.885	1	3
583.055	1	2
583.225	1	4
583.395	1	-1
583.565	1	8
583.735	1	7
583.904	1	11
584.074	1	-5
584.244	1	4
584.414	1	2
584.584	1	15
584.753	1	16
584.923	1	8
585.093	1	-2
585.263	1	4
585.433	1	18
585.602	1	12
585.772	1	5
585.942	1	10
586.112	1	4
586.282	1	5
586.451	1	3
586.621	1	0
586.791	1	4
586.961	1	18
587.131	1	15
587.300	1	17
587.470	1	7
587.640	1	-4
587.810	1	6
587.980	1	-3
588.149	1	15
588.319	1	14
588.489	1	3
588.659	1	12
588.829	1	-8
588.998	1	0
589.168	1	10
589.338	1	5
589.508	1	12
589.677	1	5
589.847	1	16
590.017	1	7
590.187	1	5
590.357	1	0
590.526	1	20
590.696	1	1
590.866	1	6
591.036	1	1
591.205	1	6
591.375	1	7
591.545	1	3
591.715	1	3
591.885	1	3
592.054	1	11
592.224	1	6
592.394	1	3
592.564	1	-1
592.733	1	10
592.903	1	9
593.073	1	3
593.243	1	6
593.412	1	-3
593.582	1	13
593.752	1	7
593.922	1	15
594.091	1	-8
594.261	1	3
594.431	1	3
594.601	1	7
594.771	1	9
594.940	1	8
595.110	1	5
595.280	1	12
595.450	1	9
595.619	1	12
595.789	1	8
595.959	1	7
596.129	1	-1
596.298	1	10
596.468	1	5
596.638	1	8
596.808	1	3
596.977	1	10
597.147	1	17
597.317	1	11
597.487	1	1
597.656	1	11
597.826	1	2
597.996	1	9
598.166	1	12
598.335	1	-1
598.505	1	3
598.675	1	-5
598.844	1	3
599.014	1	9
599.184	1	14
599.354	1	5
599.523	1	4
599.693	1	10
599.863	1	12
600.033	1	1
600.202	1	18
600.372	1	16
600.542	1	9
600.712	1	13
600.881	1	13
601.051	1	14
601.221	1	20
601.390	1	7
601.560	1	8
601.730	1	6
601.900	1	18
602.069	1	-8
602.239	1	2
602.409	1	5
602.578	1	12
602.748	1	1
602.918	1	11
603.088	1	9
603.257	1	9
603.427	1	6
603.597	1	10
603.767	1	9
603.936	1	15
604.106	1	7
604.276	1	11
604.445	1	-2
604.615	1	-2
604.785	1	15
604.954	1	14
605.124	1	12
605.294	1	9
605.464	1	-1
605.633	1	13
605.803	1	15
605.973	1	15
606.142	1	16
606.312	1	3
606.482	1	-3
606.652	1	16
606.821	1	19
606.991	1	1
607.161	1	2
607.330	1	1
607.500	1	12
607.670	1	2
607.839	1	1
608.009	1	12
608.179	1	-2
608.348	1	19
608.518	1	1
608.688	1	12
608.858	1	12
609.027	1	6
609.197	1	16
609.367	1	6
609.536	1	12
609.706	1	5
609.876	1	1
610.045	1	7
610.215	1	13
610.385	1	9
610.554	1	9
610.724	1	7
610.894	1	3
611.063	1	3
611.233	1	-1
611.403	1	8
611.572	1	-2
611.742	1	7
611.912	1	12
612.081	1	10
612.251	1	2
612.421	1	3
612.590	1	-2
612.760	1	12
612.930	1	4
613.099	1	8
613.269	1	1
613.439	1	12
613.608	1	16
613.778	1	9
613.948	1	23
614.117	1	21
614.287	1	-3
614.457	1	11
614.626	1	13
614.796	1	19
614.966	1	5
615.135	1	24
615.305	1	16
615.475	1	0
615.644	1	11
615.814	1	6
615.984	1	19
616.153	1	10
616.323	1	-1
616.493	1	17
616.662	1	4
616.832	1	10
617.002	1	12
617.171	1	3
617.341	1	6
617.511	1	5
617.680	1	0
617.850	1	1
618.019	1	14
618.189	1	3
618.359	1	3
618.528	1	4
618.698	1	8
618.868	1	8
619.037	1	1
619.207	1	11
619.377	1	4
619.546	1	-2
619.716	1	-4
619.885	1	5
620.055	1	14
620.225	1	14
620.394	1	18
620.564	1	9
620.734	1	10
620.903	1	5
621.073	1	8
621.242	1	3
621.412	1	13
621.582	1	0
621.751	1	9
621.921	1	18
622.091	1	12
622.260	1	12
622.430	1	17
622.599	1	19
622.769	1	5
622.939	1	4
623.108	1	3
623.278	1	18
623.448	1	23
623.617	1	5
623.787	1	26
623.956	1	7
624.126	1	5
624.296	1	11
624.465	1	3
624.635	1	13
624.804	1	4
624.974	1	9
625.144	1	19
625.313	1	11
625.483	1	16
625.652	1	19
625.822	1	8
625.992	1	17
626.161	1	4
626.331	1	3
626.501	1	7
626.670	1	2
626.840	1	5
627.009	1	13
627.179	1	-1
627.348	1	21
627.518	1	11
627.688	1	11
627.857	1	9
628.027	1	-2
628.196	1	3
628.366	1	4
628.536	1	10
628.705	1	9
628.875	1	7
629.044	1	8
629.214	1	2
629.384	1	9
629.553	1	13
629.723	1	-2
629.892	1	1
630.062	1	-2
630.232	1	14
630.401	1	8
630.571	1	16
630.740	1	10
630.910	1	5
631.079	1	8
631.249	1	15
631.419	1	13
631.588	1	1
631.758	1	10
631.927	1	6
632.097	1	10
632.266	1	-7
632.436	1	13
632.606	1	1
632.775	1	16
632.945	1	1
633.114	1	4
633.284	1	11
633.453	1	17
633.623	1	16
633.793	1	8
633.962	1	2
634.132	1	11
634.301	1	-1
634.471	1	1
634.640	1	6
634.810	1	12
634.979	1	9
635.149	1	0
635.319	1	7
635.488	1	4
635.658	1	16
635.827	1	-1
635.997	1	14
636.166	1	7
636.336	1	14
636.505	1	3
636.675	1	6
636.845	1	7
637.014	1	4
637.184	1	8
637.353	1	14
637.523	1	16
637.692	1	9
637.862	1	7
638.031	1	6
638.201	1	11
638.370	1	15
638.540	1	10
638.710	1	5
638.879	1	13
639.049	1	0
639.218	1	22
639.388	1	16
639.557	1	14
639.727	1	26
639.896	1	14
640.066	1	17
640.235	1	6
640.405	1	3
640.574	1	-2
640.744	1	-1
640.914	1	9
641.083	1	1
641.253	1	13
641.422	1	7
641.592	1	5
641.761	1	16
641.931	1	8
642.100	1	10
642.270	1	2
642.439	1	3
642.609	1	17
642.778	1	6
642.948	1	16
643.117	1	15
643.287	1	9
643.456	1	16
643.626	1	12
643.795	1	15
643.965	1	14
644.134	1	12
644.304	1	14
644.473	1	5
644.643	1	3
644.812	1	7
644.982	1	13
645.151	1	9
645.321	1	7
645.490	1	16
645.660	1	14
645.829	1	4
645.999	1	6
646.168	1	5
646.338	1	14
646.507	1	13
646.677	1	11
646.846	1	10
647.016	1	14
647.185	1	8
647.355	1	18
647.524	1	5
647.694	1	2
647.863	1	17
648.033	1	19
648.202	1	6
648.372	1	2
648.541	1	6
648.711	1	5
648.880	1	2
649.050	1	19
649.219	1	9
649.389	1	0
649.558	1	14
649.728	1	14
649.897	1	11
650.067	1	5
650.236	1	4
650.406	1	16
650.575	1	19
650.745	1	13
650.914	1	9
651.084	1	1
651.253	1	6
651.423	1	5
651.592	1	1
651.762	1	10
651.931	1	17
652.101	1	23
652.270	1	3
652.440	1	19
652.609	1	13
652.778	1	11
652.948	1	14
653.117	1	14
653.287	1	2
653.456	1	1
653.626	1	9
653.795	1	3
653.965	1	0
654.134	1	-3
654.304	1	23
654.473	1	7
654.643	1	6
654.812	1	12
654.982	1	11
655.151	1	17
655.320	1	17
655.490	1	11
655.659	1	1
655.829	1	9
655.998	1	-2
656.168	1	10
656.337	1	14
656.507	1	0
656.676	1	10
656.846	1	17
657.015	1	12
657.184	1	12
657.354	1	13
657.523	1	2
657.693	1	10
657.862	1	3
658.032	1	20
658.201	1	14
658.371	1	4
658.540	1	9
658.709	1	5
658.879	1	15
659.048	1	10
659.218	1	5
659.387	1	10
659.557	1	-1
659.726	1	7
659.895	1	9
660.065	1	25
660.234	1	13
660.404	1	10
660.573	1	11
660.743	1	8
660.912	1	0
661.081	1	2
661.251	1	15
661.420	1	15
661.590	1	11
661.759	1	8
661.929	1	20
662.098	1	10
662.267	1	12
662.437	1	8
662.606	1	12
662.776	1	4
662.945	1	16
663.115	1	23
663.284	1	4
663.453	1	14
663.623	1	19
663.792	1	9
663.962	1	-4
664.131	1	-2
664.300	1	-1
664.470	1	9
664.639	1	15
664.809	1	5
664.978	1	15
665.148	1	6
665.317	1	3
665.486	1	11
665.656	1	9
665.825	1	8
665.995	1	7
666.164	1	13
666.333	1	-1
666.503	1	16
666.672	1	21
666.842	1	9
667.011	1	7
667.180	1	15
667.350	1	5
667.519	1	13
667.689	1	8
667.858	1	5
668.027	1	15
668.197	1	14
668.366	1	8
668.536	1	2
668.705	1	2
668.874	1	2
669.044	1	18
669.213	1	14
669.382	1	19
669.552	1	13
669.721	1	1
669.891	1	15
670.060	1	8
670.229	1	4
670.399	1	12
670.568	1	2
670.738	1	3
670.907	1	18
671.076	1	15
671.246	1	12
671.415	1	19
671.584	1	14
671.754	1	1
671.923	1	21
672.093	1	12
672.262	1	6
672.431	1	10
672.601	1	18
672.770	1	10
672.939	1	4
673.109	1	11
673.278	1	14
673.448	1	14
673.617	1	15
673.786	1	18
