325.333	1	-4
325.504	1	13
325.675	1	-2
325.846	1	-4
326.017	1	-5
326.188	1	9
326.359	1	2
326.531	1	4
326.702	1	9
326.873	1	1
327.044	1	12
327.215	1	-8
327.386	1	12
327.557	1	8
327.728	1	4
327.899	1	-8
328.070	1	13
328.241	1	0
328.412	1	1
328.583	1	-1
328.754	1	3
328.926	1	6
329.097	1	1
329.268	1	-5
329.439	1	1
329.610	1	10
329.781	1	11
329.952	1	1
330.123	1	4
330.294	1	5
330.465	1	6
330.636	1	19
330.807	1	-2
330.978	1	-1
331.149	1	-5
331.320	1	4
331.492	1	-16
331.663	1	-5
331.834	1	-9
332.005	1	5
332.176	1	8
332.347	1	12
332.518	1	6
332.689	1	5
332.860	1	2
333.031	1	11
333.202	1	3
333.373	1	-2
333.544	1	5
333.715	1	-2
333.886	1	-1
334.057	1	-1
334.228	1	3
334.399	1	9
334.570	1	-3
334.741	1	3
334.912	1	9
335.084	1	1
335.255	1	7
335.426	1	-2
335.597	1	8
335.768	1	5
335.939	1	-9
336.110	1	8
336.281	1	3
336.452	1	-6
336.623	1	1
336.794	1	-5
336.965	1	8
337.136	1	2
337.307	1	6
337.478	1	5
337.649	1	-3
337.820	1	-5
337.991	1	14
338.162	1	4
338.333	1	2
338.504	1	-1
338.675	1	8
338.846	1	7
339.017	1	9
339.188	1	22
339.359	1	12
339.530	1	7
339.701	1	-4
339.872	1	10
340.043	1	-8
340.214	1	0
340.385	1	6
340.556	1	-1
340.727	1	3
340.898	1	8
341.069	1	-14
341.240	1	-2
341.411	1	9
341.582	1	5
341.753	1	-7
341.924	1	-6
342.095	1	16
342.266	1	8
342.437	1	-10
342.608	1	-4
342.779	1	14
342.950	1	5
343.121	1	7
343.292	1	7
343.463	1	13
343.634	1	7
343.805	1	1
343.976	1	-4
344.147	1	-1
344.318	1	4
344.489	1	10
344.660	1	10
344.831	1	6
345.002	1	11
345.173	1	8
345.344	1	-7
345.515	1	1
345.686	1	-4
345.857	1	4
346.028	1	-6
346.199	1	11
346.370	1	5
346.541	1	8
346.712	1	4
346.883	1	16
347.054	1	-4
347.225	1	-3
347.396	1	2
347.567	1	4
347.738	1	4
347.909	1	3
348.080	1	13
348.251	1	5
348.422	1	-1
348.593	1	1
348.764	1	-6
348.935	1	-6
349.106	1	11
349.277	1	0
349.448	1	6
349.619	1	6
349.790	1	1
349.961	1	6
350.132	1	11
350.303	1	10
350.474	1	-6
350.645	1	-2
350.816	1	2
350.987	1	3
351.157	1	5
351.328	1	9
351.499	1	6
351.670	1	-8
351.841	1	-1
352.012	1	5
352.183	1	2
352.354	1	-8
352.525	1	5
352.696	1	1
352.867	1	2
353.038	1	-1
353.209	1	3
353.380	1	7
353.551	1	-5
353.722	1	15
353.893	1	14
354.064	1	3
354.235	1	10
354.406	1	-4
354.576	1	3
354.747	1	-3
354.918	1	15
355.089	1	7
355.260	1	1
355.431	1	12
355.602	1	2
355.773	1	1
355.944	1	-2
356.115	1	-1
356.286	1	12
356.457	1	11
356.628	1	-9
356.799	1	8
356.970	1	4
357.141	1	7
357.311	1	-2
357.482	1	-1
357.653	1	-5
357.824	1	3
357.995	1	6
358.166	1	0
358.337	1	0
358.508	1	0
358.679	1	1
358.850	1	-2
359.021	1	0
359.192	1	2
359.363	1	-5
359.533	1	4
359.704	1	6
359.875	1	6
360.046	1	-5
360.217	1	0
360.388	1	2
360.559	1	12
360.730	1	-7
360.901	1	-1
361.072	1	-3
361.243	1	-2
361.414	1	6
361.584	1	21
361.755	1	3
361.926	1	-6
362.097	1	-7
362.268	1	15
362.439	1	8
362.610	1	5
362.781	1	12
362.952	1	1
363.123	1	-2
363.293	1	-2
363.464	1	3
363.635	1	8
363.806	1	6
363.977	1	6
364.148	1	-7
364.319	1	-4
364.490	1	9
364.661	1	8
364.832	1	8
365.002	1	-2
365.173	1	1
365.344	1	2
365.515	1	3
365.686	1	1
365.857	1	5
366.028	1	-2
366.199	1	3
366.370	1	2
366.540	1	-3
366.711	1	7
366.882	1	2
367.053	1	7
367.224	1	-1
367.395	1	14
367.566	1	14
367.737	1	3
367.908	1	-6
368.078	1	-4
368.249	1	5
368.420	1	7
368.591	1	0
368.762	1	-8
368.933	1	12
369.104	1	4
369.274	1	7
369.445	1	20
369.616	1	-6
369.787	1	-4
369.958	1	9
370.129	1	5
370.300	1	3
370.471	1	-1
370.641	1	-1
370.812	1	8
370.983	1	7
371.154	1	13
371.325	1	7
371.496	1	-10
371.667	1	5
371.837	1	0
372.008	1	16
372.179	1	4
372.350	1	11
372.521	1	2
372.692	1	-9
372.863	1	7
373.033	1	19
373.204	1	16
373.375	1	-1
373.546	1	6
373.717	1	5
373.888	1	3
374.059	1	0
374.229	1	7
374.400	1	8
374.571	1	12
374.742	1	-2
374.913	1	13
375.084	1	12
375.254	1	12
375.425	1	0
375.596	1	11
375.767	1	-3
375.938	1	0
376.109	1	-6
376.279	1	11
376.450	1	-1
376.621	1	14
376.792	1	7
376.963	1	1
377.134	1	-8
377.304	1	-2
377.475	1	10
377.646	1	-5
377.817	1	2
377.988	1	3
378.159	1	9
378.329	1	13
378.500	1	1
378.671	1	-2
378.842	1	3
379.013	1	-1
379.184	1	9
379.354	1	13
379.525	1	4
379.696	1	13
379.867	1	-4
380.038	1	-2
380.209	1	-1
380.379	1	6
380.550	1	7
380.721	1	12
380.892	1	9
381.063	1	1
381.233	1	12
381.404	1	1
381.575	1	13
381.746	1	3
381.917	1	1
382.087	1	6
382.258	1	18
382.429	1	7
382.600	1	8
382.771	1	10
382.941	1	5
383.112	1	3
383.283	1	9
383.454	1	3
383.625	1	1
383.795	1	1
383.966	1	10
384.137	1	3
384.308	1	4
384.479	1	10
384.649	1	9
384.820	1	12
384.991	1	3
385.162	1	8
385.333	1	4
385.503	1	4
385.674	1	1
385.845	1	10
386.016	1	6
386.187	1	6
386.357	1	8
386.528	1	-6
386.699	1	2
386.870	1	3
387.041	1	6
387.211	1	-1
387.382	1	3
387.553	1	12
387.724	1	-2
387.894	1	16
388.065	1	17
388.236	1	14
388.407	1	5
388.578	1	6
388.748	1	12
388.919	1	9
389.090	1	10
389.261	1	11
389.431	1	22
389.602	1	-5
389.773	1	-9
389.944	1	12
390.114	1	11
390.285	1	8
390.456	1	4
390.627	1	6
390.798	1	11
390.968	1	1
391.139	1	7
391.310	1	16
391.481	1	10
391.651	1	7
391.822	1	7
391.993	1	11
392.164	1	-15
392.334	1	-2
392.505	1	10
392.676	1	-2
392.847	1	21
393.017	1	6
393.188	1	5
393.359	1	4
393.530	1	9
393.700	1	10
393.871	1	6
394.042	1	18
394.213	1	12
394.383	1	18
394.554	1	11
394.725	1	17
394.896	1	0
395.066	1	4
395.237	1	7
395.408	1	5
395.579	1	11
395.749	1	13
395.920	1	8
396.091	1	14
396.262	1	-10
396.432	1	12
396.603	1	12
396.774	1	7
396.945	1	2
397.115	1	2
397.286	1	13
397.457	1	10
397.627	1	9
397.798	1	11
397.969	1	6
398.140	1	11
398.310	1	14
398.481	1	7
398.652	1	8
398.823	1	2
398.993	1	23
399.164	1	7
399.335	1	7
399.505	1	21
399.676	1	16
399.847	1	15
400.018	1	4
400.188	1	13
400.359	1	14
400.530	1	2
400.700	1	-2
400.871	1	8
401.042	1	12
401.213	1	10
401.383	1	9
401.554	1	18
401.725	1	11
401.895	1	8
402.066	1	15
402.237	1	21
402.408	1	18
402.578	1	8
402.749	1	18
402.920	1	19
403.090	1	10
403.261	1	19
403.432	1	13
403.603	1	-5
403.773	1	16
403.944	1	17
404.115	1	-1
404.285	1	13
404.456	1	8
404.627	1	8
404.797	1	8
404.968	1	6
405.139	1	4
405.310	1	17
405.480	1	15
405.651	1	11
405.822	1	21
405.992	1	5
406.163	1	17
406.334	1	14
406.504	1	-3
406.675	1	8
406.846	1	7
407.016	1	9
407.187	1	18
407.358	1	5
407.528	1	15
407.699	1	3
407.870	1	6
408.041	1	-1
408.211	1	5
408.382	1	6
408.553	1	-2
408.723	1	9
408.894	1	11
409.065	1	23
409.235	1	4
409.406	1	7
409.577	1	6
409.747	1	14
409.918	1	1
410.089	1	2
410.259	1	10
410.430	1	10
410.601	1	10
410.771	1	7
410.942	1	4
411.113	1	16
411.283	1	6
411.454	1	1
411.625	1	13
411.795	1	-7
411.966	1	-6
412.137	1	12
412.307	1	10
412.478	1	13
412.649	1	2
412.819	1	-3
412.990	1	21
413.161	1	11
413.331	1	6
413.502	1	-2
413.672	1	10
413.843	1	11
414.014	1	14
414.184	1	15
414.355	1	11
414.526	1	10
414.696	1	10
414.867	1	8
415.038	1	0
415.208	1	-1
415.379	1	13
415.550	1	13
415.720	1	4
415.891	1	20
416.062	1	6
416.232	1	6
416.403	1	6
416.573	1	9
416.744	1	3
416.915	1	13
417.085	1	10
417.256	1	11
417.427	1	12
417.597	1	4
417.768	1	13
417.939	1	7
418.109	1	1
418.280	1	12
418.450	1	17
418.621	1	13
418.792	1	4
418.962	1	9
419.133	1	16
419.304	1	6
419.474	1	8
419.645	1	6
419.815	1	6
419.986	1	4
420.157	1	13
420.327	1	10
420.498	1	7
420.669	1	3
420.839	1	7
421.010	1	12
421.180	1	9
421.351	1	22
421.522	1	21
421.692	1	13
421.863	1	7
422.033	1	16
422.204	1	5
422.375	1	3
422.545	1	8
422.716	1	10
422.886	1	18
423.057	1	7
423.228	1	14
423.398	1	16
423.569	1	17
423.740	1	5
423.910	1	7
424.081	1	16
424.251	1	2
424.422	1	4
424.593	1	12
424.763	1	2
424.934	1	11
425.104	1	7
425.275	1	13
425.445	1	11
425.616	1	2
425.787	1	12
425.957	1	10
426.128	1	19
426.298	1	4
426.469	1	11
426.640	1	10
426.810	1	7
426.981	1	10
427.151	1	7
427.322	1	-9
427.493	1	0
427.663	1	2
427.834	1	14
428.004	1	11
428.175	1	11
428.345	1	13
428.516	1	14
428.687	1	15
428.857	1	1
429.028	1	11
429.198	1	10
429.369	1	6
429.540	1	10
429.710	1	12
429.881	1	10
430.051	1	7
430.222	1	11
430.392	1	7
430.563	1	10
430.734	1	16
430.904	1	6
431.075	1	8
431.245	1	8
431.416	1	1
431.586	1	9
431.757	1	14
431.927	1	1
432.098	1	12
432.269	1	17
432.439	1	15
432.610	1	7
432.780	1	-4
432.951	1	2
433.121	1	16
433.292	1	15
433.462	1	13
433.633	1	19
433.804	1	-9
433.974	1	8
434.145	1	4
434.315	1	18
434.486	1	0
434.656	1	4
434.827	1	5
434.997	1	13
435.168	1	13
435.339	1	11
435.509	1	15
435.680	1	10
435.850	1	-1
436.021	1	17
436.191	1	8
436.362	1	16
436.532	1	10
436.703	1	10
436.873	1	24
437.044	1	8
437.214	1	21
437.385	1	13
437.556	1	9
437.726	1	11
437.897	1	5
438.067	1	11
438.238	1	12
438.408	1	11
438.579	1	9
438.749	1	4
438.920	1	6
439.090	1	10
439.261	1	12
439.431	1	13
439.602	1	11
439.772	1	8
439.943	1	17
440.113	1	8
440.284	1	12
440.455	1	13
440.625	1	7
440.796	1	-5
440.966	1	-1
441.137	1	7
441.307	1	-2
441.478	1	12
441.648	1	11
441.819	1	4
441.989	1	8
442.160	1	12
442.330	1	22
442.501	1	3
442.671	1	5
442.842	1	9
443.012	1	3
443.183	1	8
443.353	1	12
443.524	1	10
443.694	1	9
443.865	1	21
444.035	1	3
444.206	1	7
444.376	1	20
444.547	1	6
444.717	1	11
444.888	1	8
445.058	1	8
445.229	1	3
445.399	1	9
445.570	1	5
445.740	1	11
445.911	1	15
446.081	1	19
446.252	1	1
446.422	1	16
446.593	1	5
446.763	1	10
446.934	1	10
447.104	1	0
447.275	1	14
447.445	1	4
447.616	1	16
447.786	1	5
447.957	1	4
448.127	1	20
448.298	1	8
448.468	1	11
448.639	1	10
448.809	1	6
448.979	1	11
449.150	1	14
449.320	1	9
449.491	1	17
449.661	1	16
449.832	1	13
450.002	1	16
450.173	1	7
450.343	1	8
450.514	1	7
450.684	1	12
450.855	1	1
451.025	1	0
451.196	1	12
451.366	1	11
451.537	1	12
451.707	1	13
451.878	1	14
452.048	1	9
452.218	1	2
452.389	1	12
452.559	1	3
452.730	1	1
452.900	1	10
453.071	1	6
453.241	1	10
453.412	1	2
453.582	1	0
453.753	1	11
453.923	1	5
454.093	1	9
454.264	1	3
454.434	1	8
454.605	1	8
454.775	1	4
454.946	1	1
455.116	1	4
455.287	1	12
455.457	1	5
455.628	1	7
455.798	1	5
455.968	1	9
456.139	1	5
456.309	1	17
456.480	1	3
456.650	1	16
456.821	1	23
456.991	1	8
457.161	1	7
457.332	1	-6
457.502	1	11
457.673	1	12
457.843	1	16
458.014	1	2
458.184	1	12
458.355	1	8
458.525	1	16
458.695	1	2
458.866	1	16
459.036	1	9
459.207	1	14
459.377	1	9
459.548	1	1
459.718	1	4
459.888	1	22
460.059	1	20
460.229	1	7
460.400	1	6
460.570	1	1
460.740	1	5
460.911	1	13
461.081	1	15
461.252	1	9
461.422	1	7
461.593	1	9
461.763	1	18
461.933	1	7
462.104	1	9
462.274	1	2
462.445	1	4
462.615	1	8
462.785	1	13
462.956	1	12
463.126	1	0
463.297	1	4
463.467	1	9
463.638	1	10
463.808	1	6
463.978	1	15
464.149	1	-5
464.319	1	20
464.490	1	3
464.660	1	16
464.830	1	11
465.001	1	16
465.171	1	10
465.342	1	2
465.512	1	10
465.682	1	11
465.853	1	-8
466.023	1	0
466.194	1	13
466.364	1	5
466.534	1	9
466.705	1	-5
466.875	1	13
467.045	1	-1
467.216	1	6
467.386	1	17
467.557	1	8
467.727	1	13
467.897	1	-1
468.068	1	0
468.238	1	9
468.409	1	2
468.579	1	10
468.749	1	6
468.920	1	3
469.090	1	18
469.260	1	9
469.431	1	11
469.601	1	8
469.772	1	-3
469.942	1	13
470.112	1	12
470.283	1	8
470.453	1	15
470.623	1	13
470.794	1	9
470.964	1	8
471.135	1	13
471.305	1	1
471.475	1	10
471.646	1	7
471.816	1	14
471.986	1	10
472.157	1	9
472.327	1	9
472.497	1	21
472.668	1	3
472.838	1	10
473.009	1	9
473.179	1	7
473.349	1	10
473.520	1	2
473.690	1	22
473.860	1	21
474.031	1	8
474.201	1	17
474.371	1	12
474.542	1	4
474.712	1	3
474.882	1	-1
475.053	1	4
475.223	1	-2
475.394	1	-3
475.564	1	5
475.734	1	12
475.905	1	10
476.075	1	10
476.245	1	14
476.416	1	-8
476.586	1	0
476.756	1	0
476.927	1	0
477.097	1	-2
477.267	1	7
477.438	1	20
477.608	1	6
477.778	1	11
477.949	1	5
478.119	1	8
478.289	1	-3
478.460	1	-2
478.630	1	17
478.800	1	9
478.971	1	2
479.141	1	10
479.311	1	9
479.482	1	13
479.652	1	12
479.822	1	2
479.993	1	2
480.163	1	11
480.333	1	4
480.504	1	5
480.674	1	14
480.844	1	10
481.015	1	7
481.185	1	13
481.355	1	11
481.525	1	10
481.696	1	6
481.866	1	11
482.036	1	8
482.207	1	5
482.377	1	14
482.547	1	5
482.718	1	0
482.888	1	1
483.058	1	3
483.229	1	9
483.399	1	-2
483.569	1	6
483.740	1	3
483.910	1	4
484.080	1	-4
484.250	1	-3
484.421	1	9
484.591	1	16
484.761	1	13
484.932	1	6
485.102	1	3
485.272	1	2
485.443	1	14
485.613	1	13
485.783	1	7
485.953	1	3
486.124	1	8
486.294	1	7
486.464	1	2
486.635	1	12
486.805	1	5
486.975	1	3
487.146	1	-2
487.316	1	7
487.486	1	15
487.656	1	3
487.827	1	7
487.997	1	4
488.167	1	17
488.338	1	7
488.508	1	8
488.678	1	0
488.848	1	-3
489.019	1	3
489.189	1	3
489.359	1	12
489.529	1	14
489.700	1	7
489.870	1	-1
490.040	1	8
490.211	1	3
490.381	1	8
490.551	1	-2
490.721	1	4
490.892	1	9
491.062	1	-6
491.232	1	6
491.402	1	6
491.573	1	6
491.743	1	0
491.913	1	-1
492.084	1	7
492.254	1	4
492.424	1	10
492.594	1	13
492.765	1	-2
492.935	1	-3
493.105	1	8
493.275	1	4
493.446	1	-2
493.616	1	13
493.786	1	4
493.956	1	0
494.127	1	10
494.297	1	7
494.467	1	9
494.637	1	18
494.808	1	8
494.978	1	6
495.148	1	4
495.318	1	6
495.489	1	-5
495.659	1	-2
495.829	1	9
495.999	1	-1
496.170	1	3
496.340	1	14
496.510	1	3
496.680	1	0
496.851	1	-2
497.021	1	5
497.191	1	1
497.361	1	-2
497.532	1	5
497.702	1	13
497.872	1	12
498.042	1	16
498.213	1	10
498.383	1	7
498.553	1	0
498.723	1	3
498.894	1	7
499.064	1	8
499.234	1	2
499.404	1	-5
499.574	1	2
499.745	1	4
499.915	1	9
500.085	1	-7
500.255	1	1
500.426	1	6
500.596	1	-4
500.766	1	2
500.936	1	3
501.106	1	7
501.277	1	-2
501.447	1	2
501.617	1	8
501.787	1	-3
501.958	1	5
502.128	1	-6
502.298	1	1
502.468	1	11
502.638	1	5
502.809	1	1
502.979	1	25
503.149	1	1
503.319	1	6
503.489	1	0
503.660	1	0
503.830	1	4
504.000	1	6
504.170	1	3
504.340	1	0
504.511	1	8
504.681	1	-8
504.851	1	10
505.021	1	16
505.192	1	2
505.362	1	-1
505.532	1	6
505.702	1	2
505.872	1	3
506.043	1	14
506.213	1	5
506.383	1	8
506.553	1	-5
506.723	1	9
506.893	1	-15
507.064	1	-6
507.234	1	-5
507.404	1	8
507.574	1	10
507.744	1	12
507.915	1	2
508.085	1	14
508.255	1	4
508.425	1	-1
508.595	1	-1
508.766	1	-7
508.936	1	3
509.106	1	4
509.276	1	1
509.446	1	1
509.616	1	0
509.787	1	8
509.957	1	13
510.127	1	5
510.297	1	-6
510.467	1	-13
510.638	1	9
510.808	1	-2
510.978	1	-5
511.148	1	21
511.318	1	15
511.488	1	5
511.659	1	-2
511.829	1	0
511.999	1	3
512.169	1	4
512.339	1	11
512.509	1	11
512.680	1	-2
512.850	1	5
513.020	1	6
513.190	1	3
513.360	1	-1
513.530	1	0
513.700	1	7
513.871	1	0
514.041	1	3
514.211	1	5
514.381	1	15
514.551	1	4
514.721	1	7
514.892	1	1
515.062	1	0
515.232	1	6
515.402	1	0
515.572	1	-3
515.742	1	-3
515.912	1	3
516.083	1	9
516.253	1	10
516.423	1	1
516.593	1	4
516.763	1	0
516.933	1	-7
517.104	1	4
517.274	1	-5
517.444	1	-2
517.614	1	2
517.784	1	12
517.954	1	10
518.124	1	-5
518.294	1	16
518.465	1	3
518.635	1	4
518.805	1	6
518.975	1	7
519.145	1	-1
519.315	1	2
519.485	1	-13
519.656	1	-2
519.826	1	6
519.996	1	3
520.166	1	14
520.336	1	-1
520.506	1	-9
520.676	1	7
520.846	1	-3
521.017	1	-2
521.187	1	10
521.357	1	1
521.527	1	1
521.697	1	11
521.867	1	-3
522.037	1	-10
522.207	1	0
522.377	1	-3
522.548	1	-2
522.718	1	-1
522.888	1	2
523.058	1	2
523.228	1	12
523.398	1	1
523.568	1	5
523.738	1	-2
523.909	1	7
524.079	1	-4
524.249	1	13
524.419	1	7
524.589	1	2
524.759	1	4
524.929	1	-2
525.099	1	-5
525.269	1	16
525.439	1	6
525.610	1	-1
525.780	1	3
525.950	1	1
526.120	1	-4
526.290	1	-4
526.460	1	5
526.630	1	11
526.800	1	6
526.970	1	13
527.140	1	8
527.311	1	9
527.481	1	8
527.651	1	-3
527.821	1	-1
527.991	1	4
528.161	1	6
528.331	1	-3
528.501	1	8
528.671	1	-5
528.841	1	4
529.011	1	0
529.181	1	6
529.352	1	4
529.522	1	3
529.692	1	-2
529.862	1	17
530.032	1	12
530.202	1	2
530.372	1	7
530.542	1	2
530.712	1	-2
530.882	1	-2
531.052	1	15
531.222	1	-6
531.392	1	10
531.563	1	-11
531.733	1	9
531.903	1	9
532.073	1	-5
532.243	1	2
532.413	1	17
532.583	1	-3
532.753	1	5
532.923	1	5
533.093	1	22
533.263	1	-15
533.433	1	4
533.603	1	10
533.773	1	-6
533.943	1	0
534.113	1	4
534.284	1	9
534.454	1	4
534.624	1	8
534.794	1	-2
534.964	1	-4
535.134	1	1
535.304	1	8
535.474	1	-9
535.644	1	4
535.814	1	13
535.984	1	14
536.154	1	1
536.324	1	15
536.494	1	-5
536.664	1	2
536.834	1	-7
537.004	1	-4
537.174	1	3
537.344	1	11
537.514	1	3
537.685	1	-1
537.855	1	5
538.025	1	3
538.195	1	2
538.365	1	-6
538.535	1	3
538.705	1	12
538.875	1	3
539.045	1	2
539.215	1	-11
539.385	1	10
539.555	1	-2
539.725	1	-1
539.895	1	-1
540.065	1	0
540.235	1	6
540.405	1	-2
540.575	1	-4
540.745	1	0
540.915	1	-3
541.085	1	-9
541.255	1	-4
541.425	1	3
541.595	1	4
541.765	1	11
541.935	1	-2
542.105	1	0
542.275	1	8
542.445	1	-9
542.615	1	4
542.785	1	-1
542.955	1	-4
543.125	1	-11
543.295	1	-8
543.465	1	-1
543.635	1	-2
543.805	1	0
543.975	1	-5
544.145	1	0
544.315	1	-4
544.485	1	-2
544.655	1	14
544.825	1	-1
544.995	1	8
545.165	1	-2
545.335	1	-1
545.505	1	8
545.675	1	-7
545.845	1	17
546.015	1	6
546.185	1	6
546.355	1	2
546.525	1	-1
546.695	1	-9
546.865	1	10
547.035	1	8
547.205	1	7
547.375	1	9
547.545	1	10
547.715	1	8
547.885	1	7
548.055	1	-8
548.225	1	0
548.395	1	-5
548.565	1	11
548.735	1	4
548.905	1	-4
549.075	1	3
549.245	1	12
549.415	1	2
549.585	1	0
549.755	1	1
549.925	1	5
550.095	1	1
550.265	1	8
550.435	1	-10
550.605	1	-2
550.775	1	-8
550.945	1	16
551.115	1	10
551.285	1	1
551.455	1	7
551.625	1	-3
551.795	1	-3
551.965	1	5
552.135	1	8
552.305	1	-8
552.475	1	8
552.645	1	-4
552.815	1	-6
552.985	1	0
553.155	1	-9
553.325	1	7
553.495	1	8
553.665	1	7
553.835	1	3
554.004	1	-9
554.174	1	-4
554.344	1	-6
554.514	1	13
554.684	1	-1
554.854	1	-5
555.024	1	10
555.194	1	3
555.364	1	9
555.534	1	-5
555.704	1	10
555.874	1	-9
556.044	1	9
556.214	1	5
556.384	1	6
556.554	1	1
556.724	1	6
556.894	1	-11
557.064	1	2
557.234	1	-2
557.404	1	-6
557.573	1	-7
557.743	1	0
557.913	1	-5
558.083	1	7
558.253	1	-9
558.423	1	1
558.593	1	0
558.763	1	5
558.933	1	0
559.103	1	13
559.273	1	-4
559.443	1	10
559.613	1	-4
559.783	1	12
559.953	1	8
560.122	1	-3
560.292	1	0
560.462	1	-10
560.632	1	11
560.802	1	1
560.972	1	-1
561.142	1	-2
561.312	1	1
561.482	1	7
561.652	1	-7
561.822	1	-4
561.992	1	-14
562.162	1	12
562.331	1	-2
562.501	1	-7
562.671	1	12
562.841	1	-4
563.011	1	-11
563.181	1	7
563.351	1	-1
563.521	1	3
563.691	1	11
563.861	1	-11
564.031	1	-3
564.201	1	-8
564.370	1	-1
564.540	1	4
564.710	1	-4
564.880	1	0
565.050	1	-4
565.220	1	-6
565.390	1	3
565.560	1	-5
565.730	1	7
565.900	1	-2
566.069	1	1
566.239	1	5
566.409	1	2
566.579	1	1
566.749	1	-3
566.919	1	7
567.089	1	6
567.259	1	4
567.429	1	4
567.599	1	0
567.768	1	8
567.938	1	-4
568.108	1	-3
568.278	1	0
568.448	1	6
568.618	1	7
568.788	1	-7
568.958	1	-10
569.128	1	-8
569.297	1	1
569.467	1	8
569.637	1	3
569.807	1	1
569.977	1	12
570.147	1	-3
570.317	1	4
570.487	1	12
570.656	1	9
570.826	1	-10
570.996	1	4
571.166	1	-1
571.336	1	-7
571.506	1	4
571.676	1	-2
571.846	1	-7
572.015	1	0
572.185	1	1
572.355	1	15
572.525	1	-8
572.695	1	0
572.865	1	5
573.035	1	3
573.205	1	-9
573.374	1	1
573.544	1	5
573.714	1	7
573.884	1	-1
574.054	1	1
574.224	1	6
574.394	1	-4
574.563	1	4
574.733	1	4
574.903	1	4
575.073	1	5
575.243	1	2
575.413	1	1
575.583	1	2
575.752	1	-5
575.922	1	0
576.092	1	-5
576.262	1	10
576.432	1	0
576.602	1	-1
576.772	1	-4
576.941	1	6
577.111	1	1
577.281	1	9
577.451	1	-11
577.621	1	6
577.791	1	5
577.960	1	-4
578.130	1	6
578.300	1	2
578.470	1	5
578.640	1	-5
578.810	1	-3
578.979	1	-13
579.149	1	-3
579.319	1	6
579.489	1	-1
579.659	1	-6
579.829	1	11
579.998	1	-2
580.168	1	1
580.338	1	1
580.508	1	-1
580.678	1	18
580.848	1	5
581.017	1	6
581.187	1	5
581.357	1	-2
581.527	1	-2
581.697	1	-7
581.867	1	12
582.036	1	9
582.206	1	3
582.376	1	5
582.546	1	15
582.716	1	-5
582.885	1	3
583.055	1	-4
583.225	1	-11
583.395	1	5
583.565	1	1
583.735	1	-2
583.904	1	1
584.074	1	-11
584.244	1	6
584.414	1	0
584.584	1	2
584.753	1	8
584.923	1	5
585.093	1	1
585.263	1	0
585.433	1	8
585.602	1	5
585.772	1	-3
585.942	1	0
586.112	1	1
586.282	1	0
586.451	1	-5
586.621	1	-8
586.791	1	4
586.961	1	12
587.131	1	2
587.300	1	13
587.470	1	-7
587.640	1	-3
587.810	1	-12
587.980	1	-7
588.149	1	-3
588.319	1	14
588.489	1	-7
588.659	1	12
588.829	1	-9
588.998	1	-4
589.168	1	1
589.338	1	6
589.508	1	1
589.677	1	3
589.847	1	-10
590.017	1	-4
590.187	1	0
590.357	1	1
590.526	1	15
590.696	1	0
590.866	1	-1
591.036	1	-7
591.205	1	2
591.375	1	4
591.545	1	-1
591.715	1	-6
591.885	1	-1
592.054	1	4
592.224	1	12
592.394	1	-2
592.564	1	2
592.733	1	4
592.903	1	6
593.073	1	-6
593.243	1	-3
593.412	1	-13
593.582	1	6
593.752	1	5
593.922	1	6
594.091	1	1
594.261	1	3
594.431	1	3
594.601	1	4
594.771	1	0
594.940	1	6
595.110	1	-2
595.280	1	8
595.450	1	8
595.619	1	1
595.789	1	9
595.959	1	7
596.129	1	2
596.298	1	6
596.468	1	1
596.638	1	3
596.808	1	-9
596.977	1	-3
597.147	1	1
597.317	1	-2
597.487	1	1
597.656	1	5
597.826	1	1
597.996	1	5
598.166	1	6
598.335	1	-7
598.505	1	4
598.675	1	1
598.844	1	3
599.014	1	0
599.184	1	0
599.354	1	-1
599.523	1	5
599.693	1	1
599.863	1	6
600.033	1	-6
600.202	1	11
600.372	1	1
600.542	1	1
600.712	1	13
600.881	1	3
601.051	1	0
601.221	1	17
601.390	1	9
601.560	1	-3
601.730	1	0
601.900	1	8
602.069	1	-16
602.239	1	1
602.409	1	-7
602.578	1	3
602.748	1	-8
602.918	1	7
603.088	1	7
603.257	1	0
603.427	1	12
603.597	1	-8
603.767	1	2
603.936	1	-6
604.106	1	0
604.276	1	9
604.445	1	3
604.615	1	-3
604.785	1	4
604.954	1	4
605.124	1	-9
605.294	1	8
605.464	1	-9
605.633	1	-1
605.803	1	1
605.973	1	5
606.142	1	7
606.312	1	7
606.482	1	-4
606.652	1	12
606.821	1	-5
606.991	1	7
607.161	1	3
607.330	1	0
607.500	1	7
607.670	1	0
607.839	1	-3
608.009	1	-2
608.179	1	-5
608.348	1	1
608.518	1	3
608.688	1	14
608.858	1	-8
609.027	1	-3
609.197	1	13
609.367	1	-13
609.536	1	5
609.706	1	-3
609.876	1	2
610.045	1	1
610.215	1	11
610.385	1	-3
610.554	1	5
610.724	1	0
610.894	1	-1
611.063	1	-4
611.233	1	2
611.403	1	-2
611.572	1	12
611.742	1	1
611.912	1	6
612.081	1	3
612.251	1	3
612.421	1	6
612.590	1	6
612.760	1	11
612.930	1	-8
613.099	1	-12
613.269	1	2
613.439	1	-8
613.608	1	5
613.778	1	-6
613.948	1	4
614.117	1	1
614.287	1	4
614.457	1	4
614.626	1	9
614.796	1	11
614.966	1	0
615.135	1	5
615.305	1	5
615.475	1	7
615.644	1	0
615.814	1	-1
615.984	1	15
616.153	1	13
616.323	1	6
616.493	1	5
616.662	1	4
616.832	1	4
617.002	1	-4
617.171	1	-5
617.341	1	5
617.511	1	1
617.680	1	1
617.850	1	4
618.019	1	8
618.189	1	1
618.359	1	3
618.528	1	2
618.698	1	9
618.868	1	-1
619.037	1	4
619.207	1	5
619.377	1	6
619.546	1	-3
619.716	1	1
619.885	1	3
620.055	1	17
620.225	1	-6
620.394	1	9
620.564	1	-9
620.734	1	1
620.903	1	2
621.073	1	13
621.242	1	3
621.412	1	6
621.582	1	-3
621.751	1	1
621.921	1	15
622.091	1	4
622.260	1	4
622.430	1	0
622.599	1	7
622.769	1	3
622.939	1	1
623.108	1	5
623.278	1	18
623.448	1	5
623.617	1	-1
623.787	1	7
623.956	1	3
624.126	1	-1
624.296	1	2
624.465	1	-3
624.635	1	0
624.804	1	10
624.974	1	7
625.144	1	11
625.313	1	0
625.483	1	7
625.652	1	12
625.822	1	6
625.992	1	8
626.161	1	0
626.331	1	4
626.501	1	-3
626.670	1	6
626.840	1	4
627.009	1	0
627.179	1	-4
627.348	1	1
627.518	1	-4
627.688	1	6
627.857	1	-5
628.027	1	-7
628.196	1	-1
628.366	1	4
628.536	1	7
628.705	1	2
628.875	1	3
629.044	1	7
629.214	1	-7
629.384	1	-2
629.553	1	2
629.723	1	-8
629.892	1	-1
630.062	1	-11
630.232	1	13
630.401	1	-2
630.571	1	6
630.740	1	-3
630.910	1	4
631.079	1	-3
631.249	1	3
631.419	1	4
631.588	1	7
631.758	1	-1
631.927	1	-4
632.097	1	-2
632.266	1	0
632.436	1	7
632.606	1	0
632.775	1	16
632.945	1	-9
633.114	1	5
633.284	1	7
633.453	1	3
633.623	1	7
633.793	1	0
633.962	1	-4
634.132	1	0
634.301	1	-5
634.471	1	-2
634.640	1	15
634.810	1	3
634.979	1	3
635.149	1	5
635.319	1	5
635.488	1	-2
635.658	1	4
635.827	1	0
635.997	1	4
636.166	1	7
636.336	1	-3
636.505	1	10
636.675	1	-2
636.845	1	1
637.014	1	-1
637.184	1	2
637.353	1	-1
637.523	1	3
637.692	1	-3
637.862	1	6
638.031	1	-2
638.201	1	7
638.370	1	5
638.540	1	2
638.710	1	5
638.879	1	14
639.049	1	-3
639.218	1	12
639.388	1	-4
639.557	1	8
639.727	1	13
639.896	1	0
640.066	1	15
640.235	1	7
640.405	1	3
640.574	1	0
640.744	1	3
640.914	1	6
641.083	1	4
641.253	1	6
641.422	1	10
641.592	1	1
641.761	1	4
641.931	1	-6
642.100	1	1
642.270	1	-11
642.439	1	-3
642.609	1	6
642.778	1	1
642.948	1	6
643.117	1	11
643.287	1	-1
643.456	1	6
643.626	1	-5
643.795	1	-5
643.965	1	2
644.134	1	-3
644.304	1	4
644.473	1	2
644.643	1	-1
644.812	1	12
644.982	1	4
645.151	1	7
645.321	1	-5
645.490	1	10
645.660	1	1
645.829	1	-7
645.999	1	5
646.168	1	11
646.338	1	2
646.507	1	-5
646.677	1	-1
646.846	1	9
647.016	1	-7
647.185	1	10
647.355	1	1
647.524	1	-6
647.694	1	-6
647.863	1	6
648.033	1	2
648.202	1	10
648.372	1	-4
648.541	1	1
648.711	1	9
648.880	1	-1
649.050	1	7
649.219	1	5
649.389	1	3
649.558	1	3
649.728	1	18
649.897	1	-2
650.067	1	17
650.236	1	5
650.406	1	3
650.575	1	1
650.745	1	8
650.914	1	5
651.084	1	13
651.253	1	-2
651.423	1	7
651.592	1	-7
651.762	1	5
651.931	1	6
652.101	1	5
652.270	1	-5
652.440	1	10
652.609	1	11
652.778	1	11
652.948	1	1
653.117	1	0
653.287	1	1
653.456	1	4
653.626	1	-5
653.795	1	1
653.965	1	6
654.134	1	-4
654.304	1	8
654.473	1	-9
654.643	1	0
654.812	1	7
654.982	1	9
655.151	1	8
655.320	1	12
655.490	1	6
655.659	1	4
655.829	1	-3
655.998	1	-4
656.168	1	-1
656.337	1	4
656.507	1	-5
656.676	1	-2
656.846	1	1
657.015	1	1
657.184	1	0
657.354	1	11
657.523	1	-3
657.693	1	-13
657.862	1	-8
658.032	1	9
658.201	1	7
658.371	1	-7
658.540	1	-3
658.709	1	-6
658.879	1	8
659.048	1	-3
659.218	1	0
659.387	1	6
659.557	1	2
659.726	1	2
659.895	1	-2
660.065	1	11
660.234	1	5
660.404	1	5
660.573	1	4
660.743	1	-2
660.912	1	-7
661.081	1	-11
661.251	1	5
661.420	1	4
661.590	1	7
661.759	1	-2
661.929	1	1
662.098	1	2
662.267	1	9
662.437	1	11
662.606	1	-3
662.776	1	1
662.945	1	9
663.115	1	9
663.284	1	5
663.453	1	14
663.623	1	3
663.792	1	9
663.962	1	-4
664.131	1	-5
664.300	1	-8
664.470	1	-6
664.639	1	-2
664.809	1	5
664.978	1	3
665.148	1	3
665.317	1	2
665.486	1	1
665.656	1	7
665.825	1	9
665.995	1	-5
666.164	1	6
666.333	1	6
666.503	1	0
666.672	1	12
666.842	1	-4
667.011	1	-7
667.180	1	5
667.350	1	2
667.519	1	0
667.689	1	-4
667.858	1	1
668.027	1	11
668.197	1	6
668.366	1	-2
668.536	1	-7
668.705	1	6
668.874	1	0
669.044	1	9
669.213	1	5
669.382	1	5
669.552	1	-1
669.721	1	-5
669.891	1	1
670.060	1	-2
670.229	1	-2
670.399	1	-2
670.568	1	-6
670.738	1	6
670.907	1	-2
671.076	1	3
671.246	1	-4
671.415	1	6
671.584	1	9
671.754	1	3
671.923	1	17
672.093	1	-6
672.262	1	5
672.431	1	-5
672.601	1	8
672.770	1	-4
672.939	1	3
673.109	1	2
673.278	1	-8
673.448	1	-1
673.617	1	-5
673.786	1	5
