325.333	1	-1
325.504	1	8
325.675	1	-3
325.846	1	-7
326.017	1	-5
326.188	1	-4
326.359	1	15
326.531	1	1
326.702	1	6
326.873	1	1
327.044	1	2
327.215	1	-8
327.386	1	0
327.557	1	-3
327.728	1	-3
327.899	1	-2
328.070	1	7
328.241	1	4
328.412	1	-6
328.583	1	3
328.754	1	2
328.926	1	5
329.097	1	8
329.268	1	3
329.439	1	0
329.610	1	9
329.781	1	4
329.952	1	-2
330.123	1	-7
330.294	1	8
330.465	1	0
330.636	1	10
330.807	1	-6
330.978	1	1
331.149	1	1
331.320	1	-2
331.492	1	-6
331.663	1	-6
331.834	1	5
332.005	1	3
332.176	1	9
332.347	1	6
332.518	1	9
332.689	1	2
332.860	1	-3
333.031	1	6
333.202	1	3
333.373	1	0
333.544	1	2
333.715	1	3
333.886	1	-5
334.057	1	-6
334.228	1	-3
334.399	1	4
334.570	1	-10
334.741	1	-7
334.912	1	-5
335.084	1	-2
335.255	1	9
335.426	1	5
335.597	1	1
335.768	1	0
335.939	1	-15
336.110	1	5
336.281	1	5
336.452	1	-4
336.623	1	-7
336.794	1	6
336.965	1	-6
337.136	1	5
337.307	1	6
337.478	1	3
337.649	1	-11
337.820	1	0
337.991	1	12
338.162	1	-6
338.333	1	8
338.504	1	5
338.675	1	3
338.846	1	8
339.017	1	13
339.188	1	20
339.359	1	11
339.530	1	-2
339.701	1	-6
339.872	1	5
340.043	1	-6
340.214	1	-5
340.385	1	3
340.556	1	-1
340.727	1	2
340.898	1	9
341.069	1	-16
341.240	1	-2
341.411	1	9
341.582	1	1
341.753	1	-9
341.924	1	6
342.095	1	7
342.266	1	-6
342.437	1	-14
342.608	1	3
342.779	1	6
342.950	1	-2
343.121	1	-4
343.292	1	0
343.463	1	-1
343.634	1	-2
343.805	1	0
343.976	1	-4
344.147	1	3
344.318	1	0
344.489	1	6
344.660	1	3
344.831	1	3
345.002	1	5
345.173	1	4
345.344	1	-8
345.515	1	1
345.686	1	-4
345.857	1	-1
346.028	1	-8
346.199	1	-1
346.370	1	-7
346.541	1	0
346.712	1	-10
346.883	1	10
347.054	1	-6
347.225	1	-4
347.396	1	-5
347.567	1	-4
347.738	1	11
347.909	1	6
348.080	1	2
348.251	1	-1
348.422	1	-10
348.593	1	2
348.764	1	-9
348.935	1	-1
349.106	1	9
349.277	1	-8
349.448	1	4
349.619	1	4
349.790	1	0
349.961	1	-1
350.132	1	6
350.303	1	0
350.474	1	4
350.645	1	6
350.816	1	7
350.987	1	16
351.157	1	0
351.328	1	5
351.499	1	11
351.670	1	-3
351.841	1	-4
352.012	1	-3
352.183	1	5
352.354	1	5
352.525	1	2
352.696	1	1
352.867	1	-1
353.038	1	-10
353.209	1	2
353.380	1	-3
353.551	1	-6
353.722	1	12
353.893	1	3
354.064	1	2
354.235	1	-6
354.406	1	3
354.576	1	2
354.747	1	4
354.918	1	4
355.089	1	2
355.260	1	9
355.431	1	7
355.602	1	3
355.773	1	-1
355.944	1	2
356.115	1	-4
356.286	1	-1
356.457	1	4
356.628	1	5
356.799	1	4
356.970	1	-2
357.141	1	7
357.311	1	5
357.482	1	2
357.653	1	7
357.824	1	-3
357.995	1	9
358.166	1	0
358.337	1	-7
358.508	1	-8
358.679	1	-2
358.850	1	-4
359.021	1	4
359.192	1	3
359.363	1	-7
359.533	1	6
359.704	1	0
359.875	1	0
360.046	1	-10
360.217	1	-13
360.388	1	-11
360.559	1	4
360.730	1	1
360.901	1	-8
361.072	1	3
361.243	1	4
361.414	1	1
361.584	1	3
361.755	1	4
361.926	1	-9
362.097	1	3
362.268	1	5
362.439	1	-4
362.610	1	-1
362.781	1	8
362.952	1	-3
363.123	1	-13
363.293	1	1
363.464	1	-3
363.635	1	13
363.806	1	-4
363.977	1	6
364.148	1	2
364.319	1	-7
364.490	1	10
364.661	1	-5
364.832	1	-8
365.002	1	-6
365.173	1	-9
365.344	1	5
365.515	1	5
365.686	1	5
365.857	1	5
366.028	1	0
366.199	1	6
366.370	1	2
366.540	1	-2
366.711	1	6
366.882	1	2
367.053	1	-4
367.224	1	1
367.395	1	8
367.566	1	4
367.737	1	10
367.908	1	-11
368.078	1	2
368.249	1	-5
368.420	1	-4
368.591	1	4
368.762	1	-8
368.933	1	-4
369.104	1	0
369.274	1	10
369.445	1	12
369.616	1	0
369.787	1	8
369.958	1	14
370.129	1	0
370.300	1	1
370.471	1	-1
370.641	1	2
370.812	1	16
370.983	1	-7
371.154	1	4
371.325	1	6
371.496	1	-2
371.667	1	-1
371.837	1	6
372.008	1	12
372.179	1	4
372.350	1	5
372.521	1	3
372.692	1	-5
372.863	1	6
373.033	1	6
373.204	1	11
373.375	1	-4
373.546	1	15
373.717	1	4
373.888	1	11
374.059	1	1
374.229	1	10
374.400	1	2
374.571	1	5
374.742	1	1
374.913	1	4
375.084	1	10
375.254	1	9
375.425	1	-3
375.596	1	7
375.767	1	-2
375.938	1	-3
376.109	1	-13
376.279	1	11
376.450	1	-1
376.621	1	7
376.792	1	9
376.963	1	6
377.134	1	2
377.304	1	1
377.475	1	-11
377.646	1	-1
377.817	1	4
377.988	1	0
378.159	1	4
378.329	1	13
378.500	1	-1
378.671	1	-1
378.842	1	8
379.013	1	3
379.184	1	-1
379.354	1	7
379.525	1	-2
379.696	1	12
379.867	1	-13
380.038	1	-6
380.209	1	5
380.379	1	0
380.550	1	6
380.721	1	8
380.892	1	7
381.063	1	-4
381.233	1	7
381.404	1	12
381.575	1	-4
381.746	1	2
381.917	1	6
382.087	1	2
382.258	1	5
382.429	1	-7
382.600	1	7
382.771	1	-2
382.941	1	-4
383.112	1	4
383.283	1	4
383.454	1	5
383.625	1	3
383.795	1	-5
383.966	1	10
384.137	1	2
384.308	1	9
384.479	1	16
384.649	1	7
384.820	1	3
384.991	1	-4
385.162	1	0
385.333	1	-3
385.503	1	9
385.674	1	9
385.845	1	7
386.016	1	5
386.187	1	-2
386.357	1	-5
386.528	1	4
386.699	1	-8
386.870	1	9
387.041	1	2
387.211	1	4
387.382	1	-13
387.553	1	7
387.724	1	3
387.894	1	9
388.065	1	15
388.236	1	4
388.407	1	9
388.578	1	6
388.748	1	4
388.919	1	5
389.090	1	5
389.261	1	13
389.431	1	15
389.602	1	-9
389.773	1	-6
389.944	1	3
390.114	1	9
390.285	1	10
390.456	1	4
390.627	1	3
390.798	1	5
390.968	1	2
391.139	1	0
391.310	1	14
391.481	1	-4
391.651	1	6
391.822	1	10
391.993	1	-4
392.164	1	-13
392.334	1	0
392.505	1	5
392.676	1	4
392.847	1	12
393.017	1	5
393.188	1	-4
393.359	1	2
393.530	1	12
393.700	1	10
393.871	1	-2
394.042	1	13
394.213	1	4
394.383	1	19
394.554	1	7
394.725	1	2
394.896	1	6
395.066	1	2
395.237	1	0
395.408	1	-2
395.579	1	5
395.749	1	-2
395.920	1	3
396.091	1	15
396.262	1	-6
396.432	1	3
396.603	1	-4
396.774	1	11
396.945	1	0
397.115	1	-2
397.286	1	17
397.457	1	-3
397.627	1	9
397.798	1	-3
397.969	1	-1
398.140	1	-3
398.310	1	8
398.481	1	1
398.652	1	2
398.823	1	1
398.993	1	19
399.164	1	7
399.335	1	-7
399.505	1	14
399.676	1	4
399.847	1	13
400.018	1	4
400.188	1	11
400.359	1	19
400.530	1	4
400.700	1	4
400.871	1	12
401.042	1	9
401.213	1	3
401.383	1	10
401.554	1	8
401.725	1	4
401.895	1	-8
402.066	1	16
402.237	1	12
402.408	1	13
402.578	1	3
402.749	1	5
402.920	1	5
403.090	1	8
403.261	1	4
403.432	1	5
403.603	1	-6
403.773	1	11
403.944	1	8
404.115	1	1
404.285	1	18
404.456	1	9
404.627	1	2
404.797	1	2
404.968	1	-1
405.139	1	-1
405.310	1	2
405.480	1	6
405.651	1	8
405.822	1	15
405.992	1	4
406.163	1	9
406.334	1	11
406.504	1	2
406.675	1	4
406.846	1	8
407.016	1	7
407.187	1	3
407.358	1	11
407.528	1	4
407.699	1	3
407.870	1	12
408.041	1	-3
408.211	1	4
408.382	1	3
408.553	1	-3
408.723	1	4
408.894	1	0
409.065	1	8
409.235	1	13
409.406	1	7
409.577	1	8
409.747	1	13
409.918	1	7
410.089	1	-1
410.259	1	1
410.430	1	9
410.601	1	13
410.771	1	9
410.942	1	-5
411.113	1	8
411.283	1	9
411.454	1	12
411.625	1	-3
411.795	1	-1
411.966	1	-7
412.137	1	-2
412.307	1	5
412.478	1	6
412.649	1	7
412.819	1	-4
412.990	1	6
413.161	1	2
413.331	1	9
413.502	1	0
413.672	1	9
413.843	1	1
414.014	1	30
414.184	1	8
414.355	1	6
414.526	1	4
414.696	1	12
414.867	1	3
415.038	1	8
415.208	1	-3
415.379	1	1
415.550	1	6
415.720	1	-8
415.891	1	12
416.062	1	7
416.232	1	2
416.403	1	0
416.573	1	8
416.744	1	10
416.915	1	4
417.085	1	-3
417.256	1	7
417.427	1	2
417.597	1	4
417.768	1	8
417.939	1	20
418.109	1	-5
418.280	1	12
418.450	1	9
418.621	1	3
418.792	1	-2
418.962	1	10
419.133	1	12
419.304	1	7
419.474	1	4
419.645	1	3
419.815	1	2
419.986	1	3
420.157	1	14
420.327	1	7
420.498	1	-1
420.669	1	14
420.839	1	-3
421.010	1	4
421.180	1	-10
421.351	1	17
421.522	1	4
421.692	1	17
421.863	1	-2
422.033	1	17
422.204	1	5
422.375	1	6
422.545	1	9
422.716	1	-1
422.886	1	14
423.057	1	-2
423.228	1	9
423.398	1	5
423.569	1	7
423.740	1	3
423.910	1	13
424.081	1	8
424.251	1	-4
424.422	1	-3
424.593	1	4
424.763	1	2
424.934	1	6
425.104	1	1
425.275	1	12
425.445	1	19
425.616	1	13
425.787	1	5
425.957	1	3
426.128	1	17
426.298	1	0
426.469	1	-10
426.640	1	2
426.810	1	4
426.981	1	10
427.151	1	2
427.322	1	-10
427.493	1	-1
427.663	1	11
427.834	1	-5
428.004	1	14
428.175	1	12
428.345	1	9
428.516	1	3
428.687	1	-3
428.857	1	4
429.028	1	13
429.198	1	6
429.369	1	6
429.540	1	-2
429.710	1	18
429.881	1	13
430.051	1	-1
430.222	1	6
430.392	1	8
430.563	1	11
430.734	1	13
430.904	1	6
431.075	1	-6
431.245	1	11
431.416	1	-4
431.586	1	4
431.757	1	12
431.927	1	-3
432.098	1	11
432.269	1	2
432.439	1	8
432.610	1	12
432.780	1	5
432.951	1	6
433.121	1	10
433.292	1	5
433.462	1	1
433.633	1	13
433.804	1	-9
433.974	1	3
434.145	1	3
434.315	1	15
434.486	1	-1
434.656	1	9
434.827	1	-1
434.997	1	15
435.168	1	4
435.339	1	2
435.509	1	-7
435.680	1	4
435.850	1	3
436.021	1	13
436.191	1	9
436.362	1	17
436.532	1	4
436.703	1	16
436.873	1	3
437.044	1	5
437.214	1	10
437.385	1	13
437.556	1	10
437.726	1	6
437.897	1	5
438.067	1	-1
438.238	1	7
438.408	1	6
438.579	1	13
438.749	1	-4
438.920	1	-7
439.090	1	-4
439.261	1	4
439.431	1	8
439.602	1	9
439.772	1	2
439.943	1	12
440.113	1	11
440.284	1	6
440.455	1	7
440.625	1	8
440.796	1	3
440.966	1	1
441.137	1	-5
441.307	1	5
441.478	1	6
441.648	1	-1
441.819	1	-1
441.989	1	6
442.160	1	3
442.330	1	9
442.501	1	3
442.671	1	-1
442.842	1	5
443.012	1	2
443.183	1	1
443.353	1	19
443.524	1	7
443.694	1	0
443.865	1	6
444.035	1	4
444.206	1	1
444.376	1	17
444.547	1	6
444.717	1	17
444.888	1	0
445.058	1	8
445.229	1	2
445.399	1	3
445.570	1	-2
445.740	1	13
445.911	1	1
446.081	1	13
446.252	1	-5
446.422	1	11
446.593	1	5
446.763	1	12
446.934	1	11
447.104	1	2
447.275	1	9
447.445	1	1
447.616	1	4
447.786	1	0
447.957	1	3
448.127	1	8
448.298	1	8
448.468	1	8
448.639	1	7
448.809	1	2
448.979	1	10
449.150	1	10
449.320	1	12
449.491	1	11
449.661	1	12
449.832	1	7
450.002	1	10
450.173	1	7
450.343	1	-4
450.514	1	3
450.684	1	5
450.855	1	11
451.025	1	3
451.196	1	12
451.366	1	-4
451.537	1	0
451.707	1	8
451.878	1	4
452.048	1	0
452.218	1	5
452.389	1	11
452.559	1	4
452.730	1	2
452.900	1	10
453.071	1	5
453.241	1	10
453.412	1	-5
453.582	1	-8
453.753	1	2
453.923	1	5
454.093	1	13
454.264	1	2
454.434	1	6
454.605	1	9
454.775	1	-2
454.946	1	0
455.116	1	-4
455.287	1	2
455.457	1	1
455.628	1	3
455.798	1	3
455.968	1	5
456.139	1	0
456.309	1	17
456.480	1	-6
456.650	1	14
456.821	1	12
456.991	1	10
457.161	1	12
457.332	1	0
457.502	1	18
457.673	1	17
457.843	1	6
458.014	1	11
458.184	1	3
458.355	1	5
458.525	1	14
458.695	1	3
458.866	1	14
459.036	1	2
459.207	1	10
459.377	1	2
459.548	1	-5
459.718	1	6
459.888	1	9
460.059	1	8
460.229	1	3
460.400	1	4
460.570	1	13
460.740	1	-4
460.911	1	6
461.081	1	12
461.252	1	-3
461.422	1	-4
461.593	1	4
461.763	1	10
461.933	1	8
462.104	1	5
462.274	1	1
462.445	1	5
462.615	1	1
462.785	1	1
462.956	1	4
463.126	1	9
463.297	1	2
463.467	1	10
463.638	1	2
463.808	1	11
463.978	1	6
464.149	1	0
464.319	1	5
464.490	1	9
464.660	1	6
464.830	1	10
465.001	1	5
465.171	1	1
465.342	1	-4
465.512	1	5
465.682	1	5
465.853	1	-5
466.023	1	6
466.194	1	2
466.364	1	1
466.534	1	1
466.705	1	-6
466.875	1	19
467.045	1	6
467.216	1	13
467.386	1	8
467.557	1	3
467.727	1	9
467.897	1	5
468.068	1	-7
468.238	1	13
468.409	1	-5
468.579	1	13
468.749	1	0
468.920	1	2
469.090	1	10
469.260	1	7
469.431	1	7
469.601	1	7
469.772	1	-4
469.942	1	6
470.112	1	1
470.283	1	20
470.453	1	15
470.623	1	-2
470.794	1	7
470.964	1	8
471.135	1	14
471.305	1	3
471.475	1	-1
471.646	1	2
471.816	1	7
471.986	1	14
472.157	1	7
472.327	1	10
472.497	1	24
472.668	1	-2
472.838	1	9
473.009	1	1
473.179	1	-3
473.349	1	11
473.520	1	2
473.690	1	18
473.860	1	12
474.031	1	11
474.201	1	0
474.371	1	16
474.542	1	7
474.712	1	3
474.882	1	-4
475.053	1	8
475.223	1	-2
475.394	1	3
475.564	1	11
475.734	1	12
475.905	1	11
476.075	1	1
476.245	1	13
476.416	1	-7
476.586	1	-4
476.756	1	2
476.927	1	10
477.097	1	0
477.267	1	7
477.438	1	13
477.608	1	0
477.778	1	5
477.949	1	-6
478.119	1	8
478.289	1	-3
478.460	1	-10
478.630	1	18
478.800	1	10
478.971	1	14
479.141	1	9
479.311	1	11
479.482	1	12
479.652	1	2
479.822	1	3
479.993	1	2
480.163	1	6
480.333	1	2
480.504	1	-1
480.674	1	3
480.844	1	-1
481.015	1	7
481.185	1	-7
481.355	1	14
481.525	1	3
481.696	1	3
481.866	1	1
482.036	1	11
482.207	1	10
482.377	1	11
482.547	1	-2
482.718	1	-1
482.888	1	0
483.058	1	-2
483.229	1	-1
483.399	1	8
483.569	1	3
483.740	1	5
483.910	1	-5
484.080	1	-5
484.250	1	-13
484.421	1	5
484.591	1	10
484.761	1	-5
484.932	1	7
485.102	1	10
485.272	1	8
485.443	1	7
485.613	1	10
485.783	1	11
485.953	1	-1
486.124	1	7
486.294	1	-2
486.464	1	4
486.635	1	4
486.805	1	-1
486.975	1	3
487.146	1	-4
487.316	1	-2
487.486	1	1
487.656	1	-8
487.827	1	1
487.997	1	0
488.167	1	1
488.338	1	5
488.508	1	5
488.678	1	7
488.848	1	-6
489.019	1	6
489.189	1	-1
489.359	1	1
489.529	1	6
489.700	1	5
489.870	1	-8
490.040	1	-3
490.211	1	8
490.381	1	6
490.551	1	-7
490.721	1	7
490.892	1	-2
491.062	1	-3
491.232	1	-3
491.402	1	3
491.573	1	4
491.743	1	-3
491.913	1	-1
492.084	1	1
492.254	1	2
492.424	1	13
492.594	1	8
492.765	1	-3
492.935	1	4
493.105	1	7
493.275	1	6
493.446	1	3
493.616	1	10
493.786	1	1
493.956	1	-7
494.127	1	17
494.297	1	-8
494.467	1	6
494.637	1	12
494.808	1	7
494.978	1	3
495.148	1	8
495.318	1	20
495.489	1	-10
495.659	1	-11
495.829	1	4
495.999	1	2
496.170	1	-12
496.340	1	8
496.510	1	8
496.680	1	-7
496.851	1	4
497.021	1	-1
497.191	1	3
497.361	1	-8
497.532	1	-6
497.702	1	8
497.872	1	9
498.042	1	17
498.213	1	9
498.383	1	17
498.553	1	-6
498.723	1	3
498.894	1	2
499.064	1	4
499.234	1	-6
499.404	1	-9
499.574	1	4
499.745	1	2
499.915	1	20
500.085	1	3
500.255	1	7
500.426	1	-1
500.596	1	-2
500.766	1	-5
500.936	1	1
501.106	1	-9
501.277	1	1
501.447	1	-3
501.617	1	6
501.787	1	6
501.958	1	8
502.128	1	-10
502.298	1	-8
502.468	1	12
502.638	1	3
502.809	1	5
502.979	1	-2
503.149	1	1
503.319	1	9
503.489	1	-7
503.660	1	-5
503.830	1	3
504.000	1	6
504.170	1	0
504.340	1	-4
504.511	1	0
504.681	1	-5
504.851	1	12
505.021	1	6
505.192	1	-2
505.362	1	-5
505.532	1	9
505.702	1	2
505.872	1	-4
506.043	1	9
506.213	1	10
506.383	1	6
506.553	1	7
506.723	1	-3
506.893	1	2
507.064	1	-12
507.234	1	-2
507.404	1	4
507.574	1	-2
507.744	1	2
507.915	1	-2
508.085	1	8
508.255	1	3
508.425	1	-3
508.595	1	0
508.766	1	-2
508.936	1	0
509.106	1	2
509.276	1	8
509.446	1	11
509.616	1	2
509.787	1	17
509.957	1	5
510.127	1	-2
510.297	1	-1
510.467	1	-2
510.638	1	9
510.808	1	-2
510.978	1	-5
511.148	1	12
511.318	1	3
511.488	1	6
511.659	1	-1
511.829	1	5
511.999	1	-2
512.169	1	2
512.339	1	3
512.509	1	-4
512.680	1	-4
512.850	1	9
513.020	1	-6
513.190	1	-2
513.360	1	3
513.530	1	2
513.700	1	-1
513.871	1	7
514.041	1	5
514.211	1	0
514.381	1	12
514.551	1	-9
514.721	1	-1
514.892	1	-4
515.062	1	1
515.232	1	3
515.402	1	4
515.572	1	4
515.742	1	5
515.912	1	2
516.083	1	10
516.253	1	10
516.423	1	1
516.593	1	10
516.763	1	-9
516.933	1	-4
517.104	1	-2
517.274	1	-2
517.444	1	-3
517.614	1	-1
517.784	1	15
517.954	1	7
518.124	1	-2
518.294	1	4
518.465	1	4
518.635	1	2
518.805	1	11
518.975	1	5
519.145	1	-1
519.315	1	-2
519.485	1	-5
519.656	1	-5
519.826	1	4
519.996	1	1
520.166	1	14
520.336	1	6
520.506	1	-8
520.676	1	7
520.846	1	-1
521.017	1	-7
521.187	1	12
521.357	1	-2
521.527	1	3
521.697	1	1
521.867	1	-2
522.037	1	-4
522.207	1	-8
522.377	1	11
522.548	1	2
522.718	1	-5
522.888	1	9
523.058	1	4
523.228	1	5
523.398	1	0
523.568	1	-2
523.738	1	2
523.909	1	-2
524.079	1	2
524.249	1	0
524.419	1	10
524.589	1	-9
524.759	1	9
524.929	1	1
525.099	1	-3
525.269	1	-1
525.439	1	-4
525.610	1	3
525.780	1	-7
525.950	1	2
526.120	1	-6
526.290	1	-1
526.460	1	-5
526.630	1	9
526.800	1	2
526.970	1	0
527.140	1	-3
527.311	1	-7
527.481	1	-1
527.651	1	1
527.821	1	-4
527.991	1	-4
528.161	1	3
528.331	1	6
528.501	1	7
528.671	1	-1
528.841	1	9
529.011	1	-7
529.181	1	0
529.352	1	-8
529.522	1	-7
529.692	1	-6
529.862	1	-1
530.032	1	4
530.202	1	8
530.372	1	7
530.542	1	-9
530.712	1	-4
530.882	1	-3
531.052	1	3
531.222	1	-9
531.392	1	-1
531.563	1	1
531.733	1	5
531.903	1	1
532.073	1	-1
532.243	1	0
532.413	1	8
532.583	1	-5
532.753	1	-6
532.923	1	3
533.093	1	9
533.263	1	-9
533.433	1	4
533.603	1	2
533.773	1	0
533.943	1	-1
534.113	1	10
534.284	1	-4
534.454	1	-6
534.624	1	5
534.794	1	5
534.964	1	3
535.134	1	9
535.304	1	1
535.474	1	-9
535.644	1	-1
535.814	1	3
535.984	1	7
536.154	1	5
536.324	1	5
536.494	1	1
536.664	1	2
536.834	1	-12
537.004	1	9
537.174	1	13
537.344	1	16
537.514	1	3
537.685	1	-4
537.855	1	5
538.025	1	7
538.195	1	-6
538.365	1	-3
538.535	1	-2
538.705	1	2
538.875	1	6
539.045	1	4
539.215	1	-7
539.385	1	8
539.555	1	4
539.725	1	0
539.895	1	9
540.065	1	0
540.235	1	-2
540.405	1	3
540.575	1	-2
540.745	1	-9
540.915	1	-2
541.085	1	-3
541.255	1	-7
541.425	1	2
541.595	1	2
541.765	1	6
541.935	1	-9
542.105	1	4
542.275	1	-1
542.445	1	-11
542.615	1	0
542.785	1	2
542.955	1	-4
543.125	1	-7
543.295	1	-1
543.465	1	-2
543.635	1	10
543.805	1	11
543.975	1	-9
544.145	1	0
544.315	1	-4
544.485	1	3
544.655	1	-3
544.825	1	0
544.995	1	3
545.165	1	2
545.335	1	0
545.505	1	5
545.675	1	-6
545.845	1	10
546.015	1	-1
546.185	1	-1
546.355	1	1
546.525	1	-3
546.695	1	-6
546.865	1	11
547.035	1	0
547.205	1	3
547.375	1	12
547.545	1	5
547.715	1	5
547.885	1	4
548.055	1	-9
548.225	1	6
548.395	1	-16
548.565	1	7
548.735	1	7
548.905	1	-5
549.075	1	-1
549.245	1	-8
549.415	1	3
549.585	1	1
549.755	1	2
549.925	1	-1
550.095	1	-8
550.265	1	0
550.435	1	-17
550.605	1	-12
550.775	1	-11
550.945	1	18
551.115	1	2
551.285	1	-14
551.455	1	-3
551.625	1	-7
551.795	1	-7
551.965	1	7
552.135	1	-10
552.305	1	-5
552.475	1	1
552.645	1	1
552.815	1	2
552.985	1	1
553.155	1	-10
553.325	1	5
553.495	1	-1
553.665	1	5
553.835	1	3
554.004	1	-17
554.174	1	7
554.344	1	1
554.514	1	-1
554.684	1	-12
554.854	1	-3
555.024	1	-5
555.194	1	2
555.364	1	7
555.534	1	-6
555.704	1	0
555.874	1	-13
556.044	1	2
556.214	1	-1
556.384	1	1
556.554	1	-1
556.724	1	5
556.894	1	-8
557.064	1	0
557.234	1	-7
557.404	1	1
557.573	1	-5
557.743	1	-10
557.913	1	-1
558.083	1	8
558.253	1	-11
558.423	1	-5
558.593	1	4
558.763	1	-1
558.933	1	2
559.103	1	17
559.273	1	-7
559.443	1	4
559.613	1	4
559.783	1	-1
559.953	1	5
560.122	1	-4
560.292	1	-5
560.462	1	5
560.632	1	3
560.802	1	-1
560.972	1	4
561.142	1	6
561.312	1	-8
561.482	1	15
561.652	1	1
561.822	1	-4
561.992	1	-15
562.162	1	9
562.331	1	5
562.501	1	-11
562.671	1	6
562.841	1	9
563.011	1	-11
563.181	1	6
563.351	1	-1
563.521	1	4
563.691	1	11
563.861	1	-9
564.031	1	-2
564.201	1	-4
564.370	1	-5
564.540	1	-2
564.710	1	0
564.880	1	1
565.050	1	1
565.220	1	-5
565.390	1	-1
565.560	1	2
565.730	1	-6
565.900	1	-1
566.069	1	1
566.239	1	5
566.409	1	4
566.579	1	7
566.749	1	-3
566.919	1	2
567.089	1	-2
567.259	1	7
567.429	1	3
567.599	1	-3
567.768	1	1
567.938	1	-4
568.108	1	7
568.278	1	3
568.448	1	5
568.618	1	3
568.788	1	-18
568.958	1	-8
569.128	1	-7
569.297	1	-3
569.467	1	9
569.637	1	5
569.807	1	3
569.977	1	1
570.147	1	-1
570.317	1	5
570.487	1	2
570.656	1	-1
570.826	1	-9
570.996	1	2
571.166	1	2
571.336	1	-11
571.506	1	3
571.676	1	0
571.846	1	-8
572.015	1	3
572.185	1	1
572.355	1	3
572.525	1	-4
572.695	1	5
572.865	1	17
573.035	1	-9
573.205	1	-13
573.374	1	1
573.544	1	-2
573.714	1	3
573.884	1	-3
574.054	1	-5
574.224	1	-3
574.394	1	-9
574.563	1	14
574.733	1	11
574.903	1	-2
575.073	1	-1
575.243	1	2
575.413	1	2
575.583	1	3
575.752	1	0
575.922	1	3
576.092	1	-8
576.262	1	4
576.432	1	11
576.602	1	-1
576.772	1	8
576.941	1	11
577.111	1	4
577.281	1	10
577.451	1	-1
577.621	1	7
577.791	1	-6
577.960	1	-7
578.130	1	1
578.300	1	3
578.470	1	4
578.640	1	-3
578.810	1	-3
578.979	1	-5
579.149	1	2
579.319	1	7
579.489	1	1
579.659	1	-7
579.829	1	8
579.998	1	-5
580.168	1	-8
580.338	1	4
580.508	1	1
580.678	1	6
580.848	1	-2
581.017	1	5
581.187	1	9
581.357	1	-6
581.527	1	-2
581.697	1	-7
581.867	1	1
582.036	1	-1
582.206	1	-2
582.376	1	2
582.546	1	12
582.716	1	-1
582.885	1	-6
583.055	1	-8
583.225	1	-12
583.395	1	-3
583.565	1	-9
583.735	1	3
583.904	1	4
584.074	1	-11
584.244	1	1
584.414	1	-2
584.584	1	-1
584.753	1	5
584.923	1	-6
585.093	1	-8
585.263	1	-5
585.433	1	5
585.602	1	-1
585.772	1	1
585.942	1	-9
586.112	1	4
586.282	1	10
586.451	1	-8
586.621	1	-3
586.791	1	9
586.961	1	-6
587.131	1	5
587.300	1	4
587.470	1	-1
587.640	1	4
587.810	1	-7
587.980	1	-1
588.149	1	-2
588.319	1	2
588.489	1	-11
588.659	1	-2
588.829	1	-8
588.998	1	-3
589.168	1	0
589.338	1	-5
589.508	1	13
589.677	1	-4
589.847	1	-2
590.017	1	-4
590.187	1	2
590.357	1	-1
590.526	1	7
590.696	1	11
590.866	1	-4
591.036	1	-11
591.205	1	-3
591.375	1	-5
591.545	1	-2
591.715	1	-8
591.885	1	2
592.054	1	2
592.224	1	3
592.394	1	-9
592.564	1	-2
592.733	1	4
592.903	1	-4
593.073	1	-8
593.243	1	1
593.412	1	-4
593.582	1	2
593.752	1	6
593.922	1	11
594.091	1	-11
594.261	1	0
594.431	1	-1
594.601	1	3
594.771	1	10
594.940	1	3
595.110	1	-7
595.280	1	5
595.450	1	5
595.619	1	3
595.789	1	9
595.959	1	-10
596.129	1	-3
596.298	1	1
596.468	1	5
596.638	1	4
596.808	1	-7
596.977	1	-1
597.147	1	5
597.317	1	0
597.487	1	11
597.656	1	8
597.826	1	-2
597.996	1	-3
598.166	1	7
598.335	1	-3
598.505	1	0
598.675	1	-7
598.844	1	7
599.014	1	0
599.184	1	-4
599.354	1	1
599.523	1	-1
599.693	1	4
599.863	1	9
600.033	1	0
600.202	1	6
600.372	1	4
600.542	1	1
600.712	1	15
600.881	1	8
601.051	1	7
601.221	1	5
601.390	1	5
601.560	1	4
601.730	1	4
601.900	1	6
602.069	1	-3
602.239	1	5
602.409	1	-10
602.578	1	9
602.748	1	-3
602.918	1	-3
603.088	1	4
603.257	1	6
603.427	1	7
603.597	1	4
603.767	1	-2
603.936	1	6
604.106	1	3
604.276	1	5
604.445	1	-4
604.615	1	-3
604.785	1	-1
604.954	1	3
605.124	1	-4
605.294	1	2
605.464	1	-7
605.633	1	12
605.803	1	9
605.973	1	7
606.142	1	2
606.312	1	6
606.482	1	-4
606.652	1	12
606.821	1	-4
606.991	1	8
607.161	1	6
607.330	1	4
607.500	1	7
607.670	1	11
607.839	1	-1
608.009	1	5
608.179	1	-5
608.348	1	3
608.518	1	-6
608.688	1	5
608.858	1	-6
609.027	1	-8
609.197	1	2
609.367	1	-8
609.536	1	13
609.706	1	0
609.876	1	-11
610.045	1	6
610.215	1	0
610.385	1	-1
610.554	1	-4
610.724	1	1
610.894	1	0
611.063	1	3
611.233	1	-7
611.403	1	2
611.572	1	9
611.742	1	-7
611.912	1	1
612.081	1	5
612.251	1	-3
612.421	1	-2
612.590	1	-2
612.760	1	16
612.930	1	-7
613.099	1	4
613.269	1	-9
613.439	1	4
613.608	1	-2
613.778	1	-5
613.948	1	8
614.117	1	0
614.287	1	2
614.457	1	4
614.626	1	15
614.796	1	6
614.966	1	-6
615.135	1	5
615.305	1	7
615.475	1	1
615.644	1	0
615.814	1	-3
615.984	1	7
616.153	1	7
616.323	1	2
616.493	1	10
616.662	1	-11
616.832	1	-4
617.002	1	-6
617.171	1	-3
617.341	1	-7
617.511	1	-5
617.680	1	-10
617.850	1	-5
618.019	1	3
618.189	1	-5
618.359	1	-2
618.528	1	-20
618.698	1	-7
618.868	1	-2
619.037	1	5
619.207	1	3
619.377	1	-7
619.546	1	-10
619.716	1	0
619.885	1	4
620.055	1	17
620.225	1	9
620.394	1	-2
620.564	1	-11
620.734	1	-6
620.903	1	7
621.073	1	4
621.242	1	-7
621.412	1	2
621.582	1	-2
621.751	1	2
621.921	1	2
622.091	1	3
622.260	1	7
622.430	1	4
622.599	1	0
622.769	1	-6
622.939	1	1
623.108	1	2
623.278	1	9
623.448	1	12
623.617	1	0
623.787	1	6
623.956	1	6
624.126	1	-1
624.296	1	3
624.465	1	-9
624.635	1	9
624.804	1	1
624.974	1	-10
625.144	1	14
625.313	1	-3
625.483	1	11
625.652	1	7
625.822	1	4
625.992	1	11
626.161	1	-6
626.331	1	-6
626.501	1	-4
626.670	1	3
626.840	1	-7
627.009	1	5
627.179	1	-3
627.348	1	5
627.518	1	-4
627.688	1	-5
627.857	1	7
628.027	1	-7
628.196	1	-14
628.366	1	11
628.536	1	7
628.705	1	0
628.875	1	11
629.044	1	3
629.214	1	6
629.384	1	5
629.553	1	7
629.723	1	-12
629.892	1	-6
630.062	1	-11
630.232	1	5
630.401	1	3
630.571	1	5
630.740	1	0
630.910	1	0
631.079	1	2
631.249	1	5
631.419	1	6
631.588	1	-1
631.758	1	6
631.927	1	2
632.097	1	-1
632.266	1	-3
632.436	1	2
632.606	1	-15
632.775	1	9
632.945	1	-7
633.114	1	3
633.284	1	-5
633.453	1	7
633.623	1	5
633.793	1	0
633.962	1	-6
634.132	1	-2
634.301	1	2
634.471	1	-9
634.640	1	2
634.810	1	2
634.979	1	2
635.149	1	1
635.319	1	14
635.488	1	-5
635.658	1	-4
635.827	1	-2
635.997	1	-3
636.166	1	6
636.336	1	1
636.505	1	-2
636.675	1	-5
636.845	1	0
637.014	1	-8
637.184	1	9
637.353	1	-1
637.523	1	-3
637.692	1	5
637.862	1	-7
638.031	1	-1
638.201	1	3
638.370	1	3
638.540	1	-1
638.710	1	4
638.879	1	14
639.049	1	1
639.218	1	5
639.388	1	-7
639.557	1	3
639.727	1	11
639.896	1	-4
640.066	1	7
640.235	1	5
640.405	1	9
640.574	1	-7
640.744	1	-5
640.914	1	2
641.083	1	4
641.253	1	3
641.422	1	4
641.592	1	-3
641.761	1	4
641.931	1	-1
642.100	1	13
642.270	1	-11
642.439	1	-4
642.609	1	15
642.778	1	0
642.948	1	14
643.117	1	6
643.287	1	-9
643.456	1	4
643.626	1	-1
643.795	1	7
643.965	1	4
644.134	1	-3
644.304	1	3
644.473	1	-1
644.643	1	4
644.812	1	3
644.982	1	2
645.151	1	3
645.321	1	2
645.490	1	7
645.660	1	0
645.829	1	-4
645.999	1	1
646.168	1	4
646.338	1	7
646.507	1	-1
646.677	1	-5
646.846	1	6
647.016	1	-2
647.185	1	-7
647.355	1	-11
647.524	1	-5
647.694	1	-10
647.863	1	7
648.033	1	-3
648.202	1	-1
648.372	1	-3
648.541	1	-7
648.711	1	-2
648.880	1	4
649.050	1	9
649.219	1	-6
649.389	1	-3
649.558	1	7
649.728	1	2
649.897	1	-3
650.067	1	5
650.236	1	-7
650.406	1	12
650.575	1	1
650.745	1	-1
650.914	1	-3
651.084	1	4
651.253	1	-9
651.423	1	1
651.592	1	1
651.762	1	-1
651.931	1	13
652.101	1	11
652.270	1	-2
652.440	1	-4
652.609	1	-1
652.778	1	2
652.948	1	0
653.117	1	1
653.287	1	-4
653.456	1	3
653.626	1	-6
653.795	1	0
653.965	1	-6
654.134	1	-17
654.304	1	6
654.473	1	-8
654.643	1	1
654.812	1	1
654.982	1	3
655.151	1	0
655.320	1	6
655.490	1	1
655.659	1	0
655.829	1	0
655.998	1	-6
656.168	1	-1
656.337	1	-3
656.507	1	-6
656.676	1	-5
656.846	1	5
657.015	1	-1
657.184	1	-7
657.354	1	3
657.523	1	1
657.693	1	-13
657.862	1	1
658.032	1	14
658.201	1	8
658.371	1	-9
658.540	1	3
658.709	1	1
658.879	1	6
659.048	1	2
659.218	1	-4
659.387	1	7
659.557	1	-3
659.726	1	-2
659.895	1	-2
660.065	1	9
660.234	1	-2
660.404	1	0
660.573	1	8
660.743	1	-4
660.912	1	0
661.081	1	-14
661.251	1	12
661.420	1	9
661.590	1	-5
661.759	1	0
661.929	1	6
662.098	1	6
662.267	1	11
662.437	1	6
662.606	1	2
662.776	1	-7
662.945	1	2
663.115	1	5
663.284	1	6
663.453	1	12
663.623	1	8
663.792	1	-2
663.962	1	0
664.131	1	1
664.300	1	-12
664.470	1	6
664.639	1	1
664.809	1	-1
664.978	1	-8
665.148	1	0
665.317	1	-3
665.486	1	-1
665.656	1	6
665.825	1	12
665.995	1	6
666.164	1	12
666.333	1	2
666.503	1	-7
666.672	1	3
666.842	1	-3
667.011	1	-7
667.180	1	0
667.350	1	1
667.519	1	0
667.689	1	-3
667.858	1	5
668.027	1	2
668.197	1	6
668.366	1	2
668.536	1	-6
668.705	1	1
668.874	1	0
669.044	1	2
669.213	1	7
669.382	1	4
669.552	1	4
669.721	1	0
669.891	1	-8
670.060	1	1
670.229	1	-13
670.399	1	-4
670.568	1	-3
670.738	1	-6
670.907	1	6
671.076	1	5
671.246	1	-2
671.415	1	8
671.584	1	-4
671.754	1	-6
671.923	1	5
672.093	1	-2
672.262	1	-2
672.431	1	12
672.601	1	2
672.770	1	0
672.939	1	4
673.109	1	-3
673.278	1	-2
673.448	1	7
673.617	1	10
673.786	1	11
