325.333	1	-4
325.504	1	4
325.675	1	-6
325.846	1	1
326.017	1	2
326.188	1	11
326.359	1	8
326.531	1	9
326.702	1	12
326.873	1	-2
327.044	1	6
327.215	1	3
327.386	1	2
327.557	1	8
327.728	1	1
327.899	1	5
328.070	1	7
328.241	1	1
328.412	1	2
328.583	1	16
328.754	1	-7
328.926	1	10
329.097	1	1
329.268	1	2
329.439	1	4
329.610	1	10
329.781	1	7
329.952	1	10
330.123	1	11
330.294	1	-1
330.465	1	12
330.636	1	11
330.807	1	-1
330.978	1	-6
331.149	1	10
331.320	1	12
331.492	1	1
331.663	1	-1
331.834	1	-10
332.005	1	4
332.176	1	18
332.347	1	23
332.518	1	1
332.689	1	-3
332.860	1	-1
333.031	1	-2
333.202	1	8
333.373	1	4
333.544	1	1
333.715	1	4
333.886	1	-3
334.057	1	4
334.228	1	3
334.399	1	8
334.570	1	-6
334.741	1	3
334.912	1	5
335.084	1	-2
335.255	1	15
335.426	1	2
335.597	1	1
335.768	1	5
335.939	1	-4
336.110	1	11
336.281	1	-4
336.452	1	8
336.623	1	3
336.794	1	9
336.965	1	0
337.136	1	12
337.307	1	18
337.478	1	12
337.649	1	-10
337.820	1	-9
337.991	1	7
338.162	1	5
338.333	1	6
338.504	1	14
338.675	1	14
338.846	1	11
339.017	1	15
339.188	1	15
339.359	1	4
339.530	1	5
339.701	1	-5
339.872	1	11
340.043	1	6
340.214	1	-2
340.385	1	8
340.556	1	2
340.727	1	10
340.898	1	13
341.069	1	3
341.240	1	-5
341.411	1	18
341.582	1	8
341.753	1	-3
341.924	1	1
342.095	1	12
342.266	1	-3
342.437	1	-5
342.608	1	9
342.779	1	2
342.950	1	0
343.121	1	5
343.292	1	11
343.463	1	13
343.634	1	6
343.805	1	8
343.976	1	1
344.147	1	11
344.318	1	2
344.489	1	11
344.660	1	8
344.831	1	7
345.002	1	0
345.173	1	2
345.344	1	-4
345.515	1	10
345.686	1	5
345.857	1	14
346.028	1	-4
346.199	1	2
346.370	1	10
346.541	1	9
346.712	1	13
346.883	1	12
347.054	1	6
347.225	1	2
347.396	1	1
347.567	1	5
347.738	1	6
347.909	1	12
348.080	1	13
348.251	1	10
348.422	1	-4
348.593	1	10
348.764	1	-7
348.935	1	2
349.106	1	17
349.277	1	3
349.448	1	4
349.619	1	-2
349.790	1	11
349.961	1	4
350.132	1	13
350.303	1	9
350.474	1	-1
350.645	1	15
350.816	1	1
350.987	1	18
351.157	1	4
351.328	1	4
351.499	1	11
351.670	1	8
351.841	1	5
352.012	1	8
352.183	1	8
352.354	1	12
352.525	1	10
352.696	1	6
352.867	1	2
353.038	1	5
353.209	1	10
353.380	1	7
353.551	1	3
353.722	1	9
353.893	1	14
354.064	1	2
354.235	1	9
354.406	1	-2
354.576	1	-2
354.747	1	8
354.918	1	9
355.089	1	7
355.260	1	11
355.431	1	8
355.602	1	-1
355.773	1	2
355.944	1	4
356.115	1	0
356.286	1	8
356.457	1	9
356.628	1	4
356.799	1	-1
356.970	1	2
357.141	1	6
357.311	1	4
357.482	1	6
357.653	1	5
357.824	1	14
357.995	1	6
358.166	1	10
358.337	1	5
358.508	1	2
358.679	1	3
358.850	1	4
359.021	1	12
359.192	1	4
359.363	1	0
359.533	1	11
359.704	1	13
359.875	1	-2
360.046	1	-2
360.217	1	-1
360.388	1	-1
360.559	1	14
360.730	1	7
360.901	1	2
361.072	1	9
361.243	1	4
361.414	1	13
361.584	1	14
361.755	1	6
361.926	1	7
362.097	1	-1
362.268	1	8
362.439	1	6
362.610	1	8
362.781	1	13
362.952	1	4
363.123	1	1
363.293	1	5
363.464	1	16
363.635	1	15
363.806	1	1
363.977	1	9
364.148	1	19
364.319	1	2
364.490	1	10
364.661	1	2
364.832	1	6
365.002	1	4
365.173	1	-1
365.344	1	5
365.515	1	16
365.686	1	-2
365.857	1	3
366.028	1	8
366.199	1	12
366.370	1	5
366.540	1	13
366.711	1	9
366.882	1	17
367.053	1	10
367.224	1	11
367.395	1	6
367.566	1	16
367.737	1	12
367.908	1	6
368.078	1	7
368.249	1	8
368.420	1	10
368.591	1	11
368.762	1	3
368.933	1	15
369.104	1	4
369.274	1	23
369.445	1	16
369.616	1	3
369.787	1	4
369.958	1	12
370.129	1	9
370.300	1	5
370.471	1	4
370.641	1	3
370.812	1	19
370.983	1	6
371.154	1	15
371.325	1	5
371.496	1	3
371.667	1	13
371.837	1	4
372.008	1	15
372.179	1	9
372.350	1	10
372.521	1	3
372.692	1	4
372.863	1	6
373.033	1	14
373.204	1	18
373.375	1	10
373.546	1	9
373.717	1	4
373.888	1	9
374.059	1	20
374.229	1	9
374.400	1	3
374.571	1	7
374.742	1	3
374.913	1	6
375.084	1	23
375.254	1	8
375.425	1	11
375.596	1	5
375.767	1	5
375.938	1	2
376.109	1	-3
376.279	1	2
376.450	1	5
376.621	1	13
376.792	1	17
376.963	1	-1
377.134	1	6
377.304	1	18
377.475	1	8
377.646	1	-5
377.817	1	3
377.988	1	11
378.159	1	13
378.329	1	12
378.500	1	-1
378.671	1	0
378.842	1	10
379.013	1	19
379.184	1	9
379.354	1	15
379.525	1	4
379.696	1	28
379.867	1	-1
380.038	1	11
380.209	1	-1
380.379	1	15
380.550	1	2
380.721	1	16
380.892	1	11
381.063	1	5
381.233	1	19
381.404	1	6
381.575	1	18
381.746	1	9
381.917	1	4
382.087	1	-1
382.258	1	12
382.429	1	15
382.600	1	15
382.771	1	13
382.941	1	11
383.112	1	6
383.283	1	17
383.454	1	7
383.625	1	11
383.795	1	7
383.966	1	4
384.137	1	7
384.308	1	16
384.479	1	18
384.649	1	17
384.820	1	10
384.991	1	4
385.162	1	10
385.333	1	9
385.503	1	20
385.674	1	22
385.845	1	10
386.016	1	9
386.187	1	1
386.357	1	5
386.528	1	9
386.699	1	7
386.870	1	9
387.041	1	15
387.211	1	6
387.382	1	14
387.553	1	18
387.724	1	2
387.894	1	12
388.065	1	22
388.236	1	14
388.407	1	22
388.578	1	12
388.748	1	6
388.919	1	23
389.090	1	12
389.261	1	14
389.431	1	13
389.602	1	-1
389.773	1	6
389.944	1	8
390.114	1	15
390.285	1	18
390.456	1	15
390.627	1	13
390.798	1	11
390.968	1	7
391.139	1	9
391.310	1	16
391.481	1	18
391.651	1	7
391.822	1	20
391.993	1	16
392.164	1	-3
392.334	1	1
392.505	1	6
392.676	1	12
392.847	1	16
393.017	1	14
393.188	1	7
393.359	1	15
393.530	1	14
393.700	1	13
393.871	1	14
394.042	1	20
394.213	1	5
394.383	1	16
394.554	1	19
394.725	1	16
394.896	1	17
395.066	1	12
395.237	1	10
395.408	1	12
395.579	1	9
395.749	1	16
395.920	1	6
396.091	1	25
396.262	1	0
396.432	1	13
396.603	1	4
396.774	1	20
396.945	1	8
397.115	1	5
397.286	1	23
397.457	1	10
397.627	1	12
397.798	1	15
397.969	1	3
398.140	1	15
398.310	1	11
398.481	1	11
398.652	1	12
398.823	1	18
398.993	1	17
399.164	1	12
399.335	1	10
399.505	1	22
399.676	1	10
399.847	1	17
400.018	1	7
400.188	1	20
400.359	1	22
400.530	1	15
400.700	1	6
400.871	1	25
401.042	1	14
401.213	1	20
401.383	1	18
401.554	1	21
401.725	1	12
401.895	1	13
402.066	1	23
402.237	1	18
402.408	1	20
402.578	1	12
402.749	1	18
402.920	1	19
403.090	1	19
403.261	1	23
403.432	1	23
403.603	1	0
403.773	1	15
403.944	1	18
404.115	1	3
404.285	1	20
404.456	1	16
404.627	1	11
404.797	1	12
404.968	1	13
405.139	1	18
405.310	1	15
405.480	1	15
405.651	1	19
405.822	1	28
405.992	1	16
406.163	1	20
406.334	1	20
406.504	1	8
406.675	1	14
406.846	1	17
407.016	1	14
407.187	1	13
407.358	1	19
407.528	1	17
407.699	1	6
407.870	1	21
408.041	1	10
408.211	1	8
408.382	1	18
408.553	1	6
408.723	1	15
408.894	1	16
409.065	1	23
409.235	1	9
409.406	1	17
409.577	1	15
409.747	1	17
409.918	1	17
410.089	1	8
410.259	1	4
410.430	1	20
410.601	1	19
410.771	1	13
410.942	1	11
411.113	1	19
411.283	1	19
411.454	1	17
411.625	1	15
411.795	1	8
411.966	1	6
412.137	1	17
412.307	1	16
412.478	1	27
412.649	1	9
412.819	1	1
412.990	1	12
413.161	1	19
413.331	1	14
413.502	1	-4
413.672	1	20
413.843	1	22
414.014	1	28
414.184	1	18
414.355	1	16
414.526	1	11
414.696	1	19
414.867	1	12
415.038	1	6
415.208	1	9
415.379	1	14
415.550	1	17
415.720	1	22
415.891	1	17
416.062	1	11
416.232	1	20
416.403	1	21
416.573	1	6
416.744	1	20
416.915	1	17
417.085	1	6
417.256	1	19
417.427	1	21
417.597	1	15
417.768	1	19
417.939	1	28
418.109	1	2
418.280	1	10
418.450	1	21
418.621	1	18
418.792	1	10
418.962	1	19
419.133	1	23
419.304	1	3
419.474	1	-2
419.645	1	17
419.815	1	10
419.986	1	17
420.157	1	18
420.327	1	13
420.498	1	13
420.669	1	16
420.839	1	23
421.010	1	13
421.180	1	-1
421.351	1	16
421.522	1	18
421.692	1	16
421.863	1	13
422.033	1	30
422.204	1	12
422.375	1	15
422.545	1	13
422.716	1	13
422.886	1	24
423.057	1	8
423.228	1	26
423.398	1	23
423.569	1	18
423.740	1	12
423.910	1	20
424.081	1	19
424.251	1	13
424.422	1	3
424.593	1	14
424.763	1	21
424.934	1	18
425.104	1	11
425.275	1	19
425.445	1	16
425.616	1	21
425.787	1	21
425.957	1	15
426.128	1	25
426.298	1	6
426.469	1	4
426.640	1	21
426.810	1	25
426.981	1	10
427.151	1	22
427.322	1	6
427.493	1	8
427.663	1	7
427.834	1	13
428.004	1	22
428.175	1	18
428.345	1	14
428.516	1	12
428.687	1	12
428.857	1	11
429.028	1	15
429.198	1	14
429.369	1	14
429.540	1	7
429.710	1	25
429.881	1	17
430.051	1	14
430.222	1	12
430.392	1	22
430.563	1	15
430.734	1	20
430.904	1	9
431.075	1	5
431.245	1	15
431.416	1	2
431.586	1	15
431.757	1	13
431.927	1	-1
432.098	1	22
432.269	1	26
432.439	1	13
432.610	1	16
432.780	1	13
432.951	1	17
433.121	1	17
433.292	1	16
433.462	1	21
433.633	1	21
433.804	1	4
433.974	1	19
434.145	1	16
434.315	1	11
434.486	1	7
434.656	1	20
434.827	1	16
434.997	1	26
435.168	1	15
435.339	1	24
435.509	1	9
435.680	1	20
435.850	1	9
436.021	1	24
436.191	1	21
436.362	1	20
436.532	1	15
436.703	1	30
436.873	1	19
437.044	1	23
437.214	1	25
437.385	1	27
437.556	1	8
437.726	1	14
437.897	1	12
438.067	1	9
438.238	1	19
438.408	1	21
438.579	1	11
438.749	1	8
438.920	1	17
439.090	1	13
439.261	1	10
439.431	1	13
439.602	1	3
439.772	1	21
439.943	1	28
440.113	1	17
440.284	1	16
440.455	1	23
440.625	1	14
440.796	1	13
440.966	1	13
441.137	1	11
441.307	1	17
441.478	1	14
441.648	1	23
441.819	1	16
441.989	1	3
442.160	1	13
442.330	1	26
442.501	1	6
442.671	1	7
442.842	1	14
443.012	1	9
443.183	1	17
443.353	1	27
443.524	1	19
443.694	1	5
443.865	1	20
444.035	1	18
444.206	1	20
444.376	1	24
444.547	1	3
444.717	1	13
444.888	1	9
445.058	1	20
445.229	1	20
445.399	1	11
445.570	1	10
445.740	1	15
445.911	1	21
446.081	1	15
446.252	1	4
446.422	1	16
446.593	1	15
446.763	1	26
446.934	1	12
447.104	1	12
447.275	1	21
447.445	1	18
447.616	1	15
447.786	1	7
447.957	1	20
448.127	1	21
448.298	1	23
448.468	1	23
448.639	1	5
448.809	1	12
448.979	1	21
449.150	1	18
449.320	1	17
449.491	1	21
449.661	1	15
449.832	1	12
450.002	1	21
450.173	1	12
450.343	1	17
450.514	1	19
450.684	1	6
450.855	1	14
451.025	1	13
451.196	1	22
451.366	1	9
451.537	1	8
451.707	1	25
451.878	1	7
452.048	1	14
452.218	1	0
452.389	1	12
452.559	1	19
452.730	1	18
452.900	1	20
453.071	1	12
453.241	1	17
453.412	1	5
453.582	1	5
453.753	1	16
453.923	1	16
454.093	1	23
454.264	1	9
454.434	1	9
454.605	1	23
454.775	1	7
454.946	1	16
455.116	1	7
455.287	1	15
455.457	1	12
455.628	1	10
455.798	1	16
455.968	1	26
456.139	1	16
456.309	1	28
456.480	1	12
456.650	1	29
456.821	1	19
456.991	1	12
457.161	1	13
457.332	1	16
457.502	1	25
457.673	1	23
457.843	1	10
458.014	1	8
458.184	1	17
458.355	1	10
458.525	1	21
458.695	1	4
458.866	1	23
459.036	1	12
459.207	1	19
459.377	1	13
459.548	1	4
459.718	1	8
459.888	1	14
460.059	1	21
460.229	1	13
460.400	1	4
460.570	1	17
460.740	1	-1
460.911	1	14
461.081	1	16
461.252	1	15
461.422	1	4
461.593	1	15
461.763	1	21
461.933	1	14
462.104	1	14
462.274	1	2
462.445	1	7
462.615	1	13
462.785	1	16
462.956	1	8
463.126	1	17
463.297	1	10
463.467	1	25
463.638	1	12
463.808	1	18
463.978	1	13
464.149	1	7
464.319	1	12
464.490	1	12
464.660	1	12
464.830	1	11
465.001	1	4
465.171	1	13
465.342	1	11
465.512	1	12
465.682	1	8
465.853	1	9
466.023	1	9
466.194	1	14
466.364	1	16
466.534	1	8
466.705	1	9
466.875	1	18
467.045	1	11
467.216	1	19
467.386	1	22
467.557	1	22
467.727	1	21
467.897	1	7
468.068	1	-4
468.238	1	16
468.409	1	5
468.579	1	12
468.749	1	5
468.920	1	11
469.090	1	15
469.260	1	12
469.431	1	18
469.601	1	6
469.772	1	-6
469.942	1	17
470.112	1	15
470.283	1	17
470.453	1	20
470.623	1	3
470.794	1	18
470.964	1	10
471.135	1	17
471.305	1	14
471.475	1	11
471.646	1	6
471.816	1	16
471.986	1	20
472.157	1	13
472.327	1	15
472.497	1	26
472.668	1	8
472.838	1	11
473.009	1	20
473.179	1	16
473.349	1	14
473.520	1	5
473.690	1	11
473.860	1	11
474.031	1	11
474.201	1	6
474.371	1	10
474.542	1	17
474.712	1	23
474.882	1	12
475.053	1	14
475.223	1	5
475.394	1	12
475.564	1	15
475.734	1	8
475.905	1	10
476.075	1	9
476.245	1	19
476.416	1	1
476.586	1	17
476.756	1	11
476.927	1	6
477.097	1	14
477.267	1	18
477.438	1	16
477.608	1	14
477.778	1	2
477.949	1	8
478.119	1	11
478.289	1	6
478.460	1	6
478.630	1	28
478.800	1	20
478.971	1	10
479.141	1	6
479.311	1	11
479.482	1	19
479.652	1	11
479.822	1	14
479.993	1	11
480.163	1	26
480.333	1	8
480.504	1	10
480.674	1	16
480.844	1	11
481.015	1	8
481.185	1	11
481.355	1	15
481.525	1	10
481.696	1	9
481.866	1	16
482.036	1	11
482.207	1	12
482.377	1	12
482.547	1	1
482.718	1	10
482.888	1	8
483.058	1	9
483.229	1	3
483.399	1	17
483.569	1	4
483.740	1	10
483.910	1	5
484.080	1	8
484.250	1	6
484.421	1	5
484.591	1	13
484.761	1	7
484.932	1	5
485.102	1	11
485.272	1	7
485.443	1	11
485.613	1	14
485.783	1	18
485.953	1	9
486.124	1	11
486.294	1	7
486.464	1	4
486.635	1	14
486.805	1	2
486.975	1	11
487.146	1	2
487.316	1	14
487.486	1	10
487.656	1	4
487.827	1	2
487.997	1	15
488.167	1	-1
488.338	1	6
488.508	1	9
488.678	1	-5
488.848	1	8
489.019	1	5
489.189	1	-4
489.359	1	10
489.529	1	9
489.700	1	7
489.870	1	1
490.040	1	5
490.211	1	9
490.381	1	8
490.551	1	4
490.721	1	7
490.892	1	5
491.062	1	5
491.232	1	2
491.402	1	13
491.573	1	6
491.743	1	5
491.913	1	-5
492.084	1	0
492.254	1	10
492.424	1	17
492.594	1	11
492.765	1	2
492.935	1	-1
493.105	1	15
493.275	1	3
493.446	1	4
493.616	1	-1
493.786	1	4
493.956	1	2
494.127	1	14
494.297	1	3
494.467	1	8
494.637	1	17
494.808	1	9
494.978	1	5
495.148	1	6
495.318	1	11
495.489	1	1
495.659	1	7
495.829	1	-1
495.999	1	8
496.170	1	-4
496.340	1	15
496.510	1	6
496.680	1	7
496.851	1	14
497.021	1	3
497.191	1	7
497.361	1	-4
497.532	1	0
497.702	1	20
497.872	1	13
498.042	1	14
498.213	1	15
498.383	1	18
498.553	1	1
498.723	1	15
498.894	1	1
499.064	1	10
499.234	1	8
499.404	1	-5
499.574	1	2
499.745	1	14
499.915	1	19
500.085	1	0
500.255	1	14
500.426	1	7
500.596	1	5
500.766	1	3
500.936	1	14
501.106	1	1
501.277	1	6
501.447	1	20
501.617	1	9
501.787	1	8
501.958	1	5
502.128	1	-2
502.298	1	12
502.468	1	14
502.638	1	10
502.809	1	4
502.979	1	14
503.149	1	5
503.319	1	10
503.489	1	-2
503.660	1	0
503.830	1	3
504.000	1	10
504.170	1	10
504.340	1	7
504.511	1	4
504.681	1	2
504.851	1	7
505.021	1	18
505.192	1	-6
505.362	1	5
505.532	1	7
505.702	1	3
505.872	1	4
506.043	1	9
506.213	1	18
506.383	1	3
506.553	1	11
506.723	1	15
506.893	1	0
507.064	1	-5
507.234	1	2
507.404	1	5
507.574	1	5
507.744	1	5
507.915	1	10
508.085	1	17
508.255	1	-2
508.425	1	5
508.595	1	0
508.766	1	7
508.936	1	8
509.106	1	4
509.276	1	9
509.446	1	7
509.616	1	8
509.787	1	6
509.957	1	4
510.127	1	2
510.297	1	-1
510.467	1	-4
510.638	1	8
510.808	1	-4
510.978	1	10
511.148	1	20
511.318	1	10
511.488	1	14
511.659	1	1
511.829	1	4
511.999	1	9
512.169	1	0
512.339	1	8
512.509	1	6
512.680	1	6
512.850	1	8
513.020	1	-5
513.190	1	-4
513.360	1	9
513.530	1	5
513.700	1	1
513.871	1	5
514.041	1	3
514.211	1	10
514.381	1	12
514.551	1	-3
514.721	1	-1
514.892	1	-7
515.062	1	-5
515.232	1	11
515.402	1	5
515.572	1	-2
515.742	1	6
515.912	1	5
516.083	1	10
516.253	1	8
516.423	1	6
516.593	1	7
516.763	1	3
516.933	1	-4
517.104	1	-2
517.274	1	-1
517.444	1	1
517.614	1	1
517.784	1	16
517.954	1	20
518.124	1	-6
518.294	1	3
518.465	1	9
518.635	1	-1
518.805	1	22
518.975	1	1
519.145	1	11
519.315	1	1
519.485	1	0
519.656	1	3
519.826	1	9
519.996	1	1
520.166	1	11
520.336	1	11
520.506	1	-3
520.676	1	10
520.846	1	-7
521.017	1	-2
521.187	1	14
521.357	1	-1
521.527	1	9
521.697	1	14
521.867	1	7
522.037	1	-4
522.207	1	6
522.377	1	14
522.548	1	-3
522.718	1	1
522.888	1	10
523.058	1	3
523.228	1	4
523.398	1	-4
523.568	1	4
523.738	1	3
523.909	1	1
524.079	1	3
524.249	1	-2
524.419	1	8
524.589	1	-1
524.759	1	8
524.929	1	-2
525.099	1	5
525.269	1	13
525.439	1	3
525.610	1	2
525.780	1	11
525.950	1	1
526.120	1	0
526.290	1	2
526.460	1	5
526.630	1	8
526.800	1	8
526.970	1	11
527.140	1	2
527.311	1	7
527.481	1	6
527.651	1	7
527.821	1	-6
527.991	1	10
528.161	1	7
528.331	1	11
528.501	1	3
528.671	1	1
528.841	1	10
529.011	1	0
529.181	1	1
529.352	1	4
529.522	1	1
529.692	1	7
529.862	1	3
530.032	1	7
530.202	1	3
530.372	1	5
530.542	1	-3
530.712	1	0
530.882	1	-4
531.052	1	9
531.222	1	-6
531.392	1	10
531.563	1	-1
531.733	1	6
531.903	1	6
532.073	1	3
532.243	1	1
532.413	1	17
532.583	1	-2
532.753	1	5
532.923	1	7
533.093	1	4
533.263	1	-6
533.433	1	14
533.603	1	6
533.773	1	4
533.943	1	4
534.113	1	-1
534.284	1	5
534.454	1	-2
534.624	1	19
534.794	1	1
534.964	1	3
535.134	1	3
535.304	1	7
535.474	1	-7
535.644	1	5
535.814	1	9
535.984	1	14
536.154	1	-4
536.324	1	16
536.494	1	3
536.664	1	-5
536.834	1	7
537.004	1	3
537.174	1	3
537.344	1	-4
537.514	1	5
537.685	1	7
537.855	1	9
538.025	1	2
538.195	1	6
538.365	1	-2
538.535	1	-6
538.705	1	3
538.875	1	8
539.045	1	11
539.215	1	-4
539.385	1	11
539.555	1	6
539.725	1	-1
539.895	1	18
540.065	1	-4
540.235	1	1
540.405	1	1
540.575	1	5
540.745	1	7
540.915	1	8
541.085	1	-6
541.255	1	-5
541.425	1	5
541.595	1	3
541.765	1	27
541.935	1	-4
542.105	1	2
542.275	1	2
542.445	1	4
542.615	1	14
542.785	1	-1
542.955	1	0
543.125	1	-4
543.295	1	-7
543.465	1	10
543.635	1	2
543.805	1	20
543.975	1	1
544.145	1	8
544.315	1	-1
544.485	1	1
544.655	1	7
544.825	1	2
544.995	1	-2
545.165	1	13
545.335	1	5
545.505	1	3
545.675	1	-11
545.845	1	10
546.015	1	6
546.185	1	8
546.355	1	0
546.525	1	3
546.695	1	-1
546.865	1	13
547.035	1	10
547.205	1	8
547.375	1	1
547.545	1	10
547.715	1	3
547.885	1	12
548.055	1	4
548.225	1	11
548.395	1	-7
548.565	1	8
548.735	1	8
548.905	1	-8
549.075	1	0
549.245	1	-5
549.415	1	2
549.585	1	3
549.755	1	5
549.925	1	2
550.095	1	0
550.265	1	8
550.435	1	-9
550.605	1	2
550.775	1	-1
550.945	1	11
551.115	1	3
551.285	1	4
551.455	1	1
551.625	1	-8
551.795	1	1
551.965	1	8
552.135	1	-1
552.305	1	-3
552.475	1	4
552.645	1	0
552.815	1	3
552.985	1	-1
553.155	1	5
553.325	1	6
553.495	1	8
553.665	1	8
553.835	1	5
554.004	1	-5
554.174	1	2
554.344	1	5
554.514	1	9
554.684	1	10
554.854	1	2
555.024	1	4
555.194	1	4
555.364	1	0
555.534	1	-2
555.704	1	7
555.874	1	-3
556.044	1	10
556.214	1	5
556.384	1	5
556.554	1	5
556.724	1	12
556.894	1	-3
557.064	1	1
557.234	1	3
557.404	1	-2
557.573	1	-7
557.743	1	6
557.913	1	-3
558.083	1	7
558.253	1	-7
558.423	1	-2
558.593	1	3
558.763	1	6
558.933	1	-1
559.103	1	17
559.273	1	4
559.443	1	5
559.613	1	8
559.783	1	6
559.953	1	13
560.122	1	-11
560.292	1	7
560.462	1	1
560.632	1	-2
560.802	1	3
560.972	1	5
561.142	1	10
561.312	1	3
561.482	1	16
561.652	1	3
561.822	1	-7
561.992	1	-14
562.162	1	10
562.331	1	5
562.501	1	-2
562.671	1	7
562.841	1	-2
563.011	1	-5
563.181	1	11
563.351	1	0
563.521	1	4
563.691	1	7
563.861	1	-3
564.031	1	-6
564.201	1	1
564.370	1	-3
564.540	1	3
564.710	1	4
564.880	1	4
565.050	1	0
565.220	1	-3
565.390	1	8
565.560	1	3
565.730	1	7
565.900	1	-4
566.069	1	-3
566.239	1	9
566.409	1	13
566.579	1	11
566.749	1	4
566.919	1	10
567.089	1	7
567.259	1	-2
567.429	1	-2
567.599	1	-8
567.768	1	8
567.938	1	-7
568.108	1	3
568.278	1	-9
568.448	1	11
568.618	1	6
568.788	1	-12
568.958	1	-6
569.128	1	-6
569.297	1	1
569.467	1	1
569.637	1	-1
569.807	1	0
569.977	1	7
570.147	1	-1
570.317	1	1
570.487	1	12
570.656	1	-3
570.826	1	-2
570.996	1	1
571.166	1	3
571.336	1	9
571.506	1	0
571.676	1	-22
571.846	1	-2
572.015	1	7
572.185	1	-1
572.355	1	6
572.525	1	-3
572.695	1	2
572.865	1	7
573.035	1	-8
573.205	1	-4
573.374	1	13
573.544	1	-4
573.714	1	-3
573.884	1	-4
574.054	1	-1
574.224	1	-4
574.394	1	2
574.563	1	9
574.733	1	-1
574.903	1	6
575.073	1	3
575.243	1	6
575.413	1	6
575.583	1	-6
575.752	1	2
575.922	1	7
576.092	1	-5
576.262	1	4
576.432	1	11
576.602	1	8
576.772	1	0
576.941	1	11
577.111	1	6
577.281	1	22
577.451	1	-3
577.621	1	-3
577.791	1	5
577.960	1	-1
578.130	1	0
578.300	1	13
578.470	1	8
578.640	1	-2
578.810	1	-1
578.979	1	-7
579.149	1	-7
579.319	1	0
579.489	1	3
579.659	1	1
579.829	1	7
579.998	1	6
580.168	1	-2
580.338	1	10
580.508	1	0
580.678	1	11
580.848	1	1
581.017	1	2
581.187	1	-3
581.357	1	3
581.527	1	1
581.697	1	-1
581.867	1	7
582.036	1	7
582.206	1	-7
582.376	1	7
582.546	1	9
582.716	1	1
582.885	1	4
583.055	1	-7
583.225	1	-8
583.395	1	1
583.565	1	2
583.735	1	7
583.904	1	1
584.074	1	-7
584.244	1	12
584.414	1	2
584.584	1	0
584.753	1	4
584.923	1	11
585.093	1	-6
585.263	1	-5
585.433	1	16
585.602	1	7
585.772	1	11
585.942	1	-1
586.112	1	0
586.282	1	7
586.451	1	1
586.621	1	1
586.791	1	1
586.961	1	11
587.131	1	5
587.300	1	11
587.470	1	-5
587.640	1	-2
587.810	1	-11
587.980	1	0
588.149	1	6
588.319	1	-6
588.489	1	-5
588.659	1	8
588.829	1	2
588.998	1	-1
589.168	1	8
589.338	1	-4
589.508	1	5
589.677	1	-4
589.847	1	-3
590.017	1	1
590.187	1	6
590.357	1	-3
590.526	1	16
590.696	1	1
590.866	1	6
591.036	1	-1
591.205	1	3
591.375	1	1
591.545	1	-4
591.715	1	-7
591.885	1	-1
592.054	1	-1
592.224	1	2
592.394	1	0
592.564	1	7
592.733	1	7
592.903	1	1
593.073	1	-13
593.243	1	3
593.412	1	-9
593.582	1	4
593.752	1	0
593.922	1	4
594.091	1	-1
594.261	1	0
594.431	1	0
594.601	1	-2
594.771	1	7
594.940	1	5
595.110	1	-1
595.280	1	11
595.450	1	4
595.619	1	11
595.789	1	9
595.959	1	-5
596.129	1	-4
596.298	1	2
596.468	1	-6
596.638	1	8
596.808	1	-3
596.977	1	10
597.147	1	0
597.317	1	10
597.487	1	3
597.656	1	2
597.826	1	9
597.996	1	-1
598.166	1	15
598.335	1	-9
598.505	1	2
598.675	1	1
598.844	1	1
599.014	1	6
599.184	1	-3
599.354	1	-4
599.523	1	9
599.693	1	8
599.863	1	0
600.033	1	1
600.202	1	13
600.372	1	-1
600.542	1	-3
600.712	1	11
600.881	1	9
601.051	1	7
601.221	1	11
601.390	1	0
601.560	1	5
601.730	1	0
601.900	1	8
602.069	1	-8
602.239	1	12
602.409	1	11
602.578	1	16
602.748	1	-4
602.918	1	10
603.088	1	4
603.257	1	3
603.427	1	4
603.597	1	-6
603.767	1	-4
603.936	1	4
604.106	1	2
604.276	1	0
604.445	1	-2
604.615	1	11
604.785	1	8
604.954	1	12
605.124	1	3
605.294	1	3
605.464	1	-7
605.633	1	10
605.803	1	7
605.973	1	8
606.142	1	2
606.312	1	14
606.482	1	2
606.652	1	14
606.821	1	-6
606.991	1	-3
607.161	1	9
607.330	1	5
607.500	1	9
607.670	1	-1
607.839	1	-7
608.009	1	9
608.179	1	1
608.348	1	0
608.518	1	-3
608.688	1	7
608.858	1	2
609.027	1	8
609.197	1	1
609.367	1	-5
609.536	1	12
609.706	1	-3
609.876	1	2
610.045	1	2
610.215	1	9
610.385	1	0
610.554	1	9
610.724	1	6
610.894	1	9
611.063	1	-3
611.233	1	2
611.403	1	3
611.572	1	7
611.742	1	-1
611.912	1	3
612.081	1	-4
612.251	1	4
612.421	1	1
612.590	1	-2
612.760	1	7
612.930	1	5
613.099	1	2
613.269	1	-5
613.439	1	0
613.608	1	5
613.778	1	0
613.948	1	13
614.117	1	-5
614.287	1	-1
614.457	1	7
614.626	1	7
614.796	1	4
614.966	1	5
615.135	1	7
615.305	1	4
615.475	1	-2
615.644	1	9
615.814	1	8
615.984	1	5
616.153	1	8
616.323	1	-3
616.493	1	10
616.662	1	-8
616.832	1	0
617.002	1	-5
617.171	1	2
617.341	1	6
617.511	1	2
617.680	1	8
617.850	1	-6
618.019	1	6
618.189	1	-4
618.359	1	-3
618.528	1	-8
618.698	1	9
618.868	1	2
619.037	1	5
619.207	1	-4
619.377	1	13
619.546	1	-5
619.716	1	-3
619.885	1	9
620.055	1	11
620.225	1	12
620.394	1	2
620.564	1	-5
620.734	1	9
620.903	1	9
621.073	1	5
621.242	1	-5
621.412	1	11
621.582	1	-7
621.751	1	7
621.921	1	19
622.091	1	0
622.260	1	6
622.430	1	7
622.599	1	11
622.769	1	2
622.939	1	4
623.108	1	1
623.278	1	15
623.448	1	15
623.617	1	1
623.787	1	17
623.956	1	9
624.126	1	-6
624.296	1	2
624.465	1	4
624.635	1	10
624.804	1	7
624.974	1	5
625.144	1	17
625.313	1	3
625.483	1	7
625.652	1	9
625.822	1	8
625.992	1	11
626.161	1	4
626.331	1	1
626.501	1	3
626.670	1	7
626.840	1	1
627.009	1	4
627.179	1	-11
627.348	1	10
627.518	1	-1
627.688	1	0
627.857	1	7
628.027	1	-5
628.196	1	7
628.366	1	0
628.536	1	6
628.705	1	-2
628.875	1	11
629.044	1	2
629.214	1	1
629.384	1	3
629.553	1	10
629.723	1	-5
629.892	1	1
630.062	1	-11
630.232	1	9
630.401	1	1
630.571	1	15
630.740	1	-2
630.910	1	6
631.079	1	-2
631.249	1	7
631.419	1	5
631.588	1	3
631.758	1	5
631.927	1	10
632.097	1	9
632.266	1	-7
632.436	1	2
632.606	1	-7
632.775	1	10
632.945	1	-6
633.114	1	6
633.284	1	2
633.453	1	11
633.623	1	10
633.793	1	8
633.962	1	-3
634.132	1	4
634.301	1	-7
634.471	1	1
634.640	1	7
634.810	1	7
634.979	1	7
635.149	1	8
635.319	1	6
635.488	1	-4
635.658	1	16
635.827	1	8
635.997	1	0
636.166	1	8
636.336	1	7
636.505	1	11
636.675	1	0
636.845	1	4
637.014	1	4
637.184	1	13
637.353	1	1
637.523	1	3
637.692	1	7
637.862	1	0
638.031	1	-1
638.201	1	8
638.370	1	3
638.540	1	8
638.710	1	10
638.879	1	13
639.049	1	-5
639.218	1	13
639.388	1	9
639.557	1	11
639.727	1	16
639.896	1	2
640.066	1	8
640.235	1	0
640.405	1	8
640.574	1	0
640.744	1	-2
640.914	1	8
641.083	1	-7
641.253	1	-1
641.422	1	9
641.592	1	5
641.761	1	3
641.931	1	2
642.100	1	5
642.270	1	-4
642.439	1	-2
642.609	1	14
642.778	1	7
642.948	1	8
643.117	1	8
643.287	1	-2
643.456	1	6
643.626	1	4
643.795	1	4
643.965	1	9
644.134	1	-3
644.304	1	12
644.473	1	8
644.643	1	1
644.812	1	3
644.982	1	-3
645.151	1	-1
645.321	1	3
645.490	1	14
645.660	1	-5
645.829	1	1
645.999	1	6
646.168	1	3
646.338	1	11
646.507	1	5
646.677	1	-6
646.846	1	1
647.016	1	-1
647.185	1	-6
647.355	1	10
647.524	1	7
647.694	1	2
647.863	1	1
648.033	1	0
648.202	1	5
648.372	1	-4
648.541	1	-5
648.711	1	2
648.880	1	2
649.050	1	9
649.219	1	7
649.389	1	-4
649.558	1	6
649.728	1	5
649.897	1	5
650.067	1	14
650.236	1	0
650.406	1	6
650.575	1	7
650.745	1	4
650.914	1	4
651.084	1	4
651.253	1	2
651.423	1	3
651.592	1	0
651.762	1	2
651.931	1	9
652.101	1	0
652.270	1	-1
652.440	1	7
652.609	1	9
652.778	1	5
652.948	1	7
653.117	1	10
653.287	1	-1
653.456	1	5
653.626	1	4
653.795	1	2
653.965	1	-5
654.134	1	-2
654.304	1	8
654.473	1	-9
654.643	1	5
654.812	1	3
654.982	1	8
655.151	1	3
655.320	1	16
655.490	1	-7
655.659	1	8
655.829	1	3
655.998	1	-3
656.168	1	-8
656.337	1	7
656.507	1	1
656.676	1	4
656.846	1	4
657.015	1	-3
657.184	1	-4
657.354	1	11
657.523	1	0
657.693	1	-3
657.862	1	-4
658.032	1	10
658.201	1	5
658.371	1	-7
658.540	1	4
658.709	1	-4
658.879	1	19
659.048	1	4
659.218	1	3
659.387	1	6
659.557	1	1
659.726	1	-6
659.895	1	9
660.065	1	18
660.234	1	-2
660.404	1	3
660.573	1	4
660.743	1	5
660.912	1	-6
661.081	1	-11
661.251	1	10
661.420	1	12
661.590	1	6
661.759	1	-1
661.929	1	5
662.098	1	7
662.267	1	15
662.437	1	5
662.606	1	7
662.776	1	-2
662.945	1	4
663.115	1	0
663.284	1	4
663.453	1	13
663.623	1	1
663.792	1	4
663.962	1	4
664.131	1	5
664.300	1	-13
664.470	1	11
664.639	1	9
664.809	1	5
664.978	1	-3
665.148	1	-3
665.317	1	-2
665.486	1	-3
665.656	1	-2
665.825	1	11
665.995	1	-7
666.164	1	7
666.333	1	2
666.503	1	0
666.672	1	17
666.842	1	-7
667.011	1	-3
667.180	1	-3
667.350	1	0
667.519	1	8
667.689	1	-14
667.858	1	7
668.027	1	8
668.197	1	11
668.366	1	-7
668.536	1	-3
668.705	1	2
668.874	1	5
669.044	1	2
669.213	1	6
669.382	1	7
669.552	1	13
669.721	1	-1
669.891	1	2
670.060	1	-2
670.229	1	4
670.399	1	-8
670.568	1	-5
670.738	1	3
670.907	1	12
671.076	1	8
671.246	1	-2
671.415	1	5
671.584	1	4
671.754	1	-2
671.923	1	10
672.093	1	-2
672.262	1	4
672.431	1	12
672.601	1	9
672.770	1	-3
672.939	1	4
673.109	1	3
673.278	1	6
673.448	1	1
673.617	1	7
673.786	1	7
