325.333	1	0
325.504	1	8
325.675	1	5
325.846	1	-3
326.017	1	3
326.188	1	2
326.359	1	17
326.531	1	4
326.702	1	2
326.873	1	-5
327.044	1	11
327.215	1	-6
327.386	1	0
327.557	1	1
327.728	1	11
327.899	1	-9
328.070	1	4
328.241	1	3
328.412	1	-9
328.583	1	1
328.754	1	-6
328.926	1	7
329.097	1	9
329.268	1	-5
329.439	1	5
329.610	1	4
329.781	1	3
329.952	1	0
330.123	1	-5
330.294	1	-2
330.465	1	9
330.636	1	14
330.807	1	6
330.978	1	-1
331.149	1	8
331.320	1	10
331.492	1	-8
331.663	1	-9
331.834	1	-4
332.005	1	8
332.176	1	11
332.347	1	15
332.518	1	11
332.689	1	3
332.860	1	-2
333.031	1	7
333.202	1	6
333.373	1	1
333.544	1	4
333.715	1	5
333.886	1	1
334.057	1	-5
334.228	1	1
334.399	1	5
334.570	1	-15
334.741	1	6
334.912	1	-6
335.084	1	0
335.255	1	3
335.426	1	13
335.597	1	9
335.768	1	-1
335.939	1	-11
336.110	1	9
336.281	1	-2
336.452	1	3
336.623	1	-5
336.794	1	-4
336.965	1	-1
337.136	1	10
337.307	1	1
337.478	1	-8
337.649	1	-3
337.820	1	-4
337.991	1	4
338.162	1	-2
338.333	1	17
338.504	1	11
338.675	1	8
338.846	1	8
339.017	1	10
339.188	1	13
339.359	1	8
339.530	1	3
339.701	1	2
339.872	1	2
340.043	1	0
340.214	1	7
340.385	1	6
340.556	1	-1
340.727	1	-1
340.898	1	2
341.069	1	-7
341.240	1	-3
341.411	1	21
341.582	1	2
341.753	1	-3
341.924	1	2
342.095	1	12
342.266	1	-4
342.437	1	-11
342.608	1	4
342.779	1	10
342.950	1	0
343.121	1	4
343.292	1	11
343.463	1	5
343.634	1	9
343.805	1	6
343.976	1	-1
344.147	1	0
344.318	1	4
344.489	1	7
344.660	1	10
344.831	1	4
345.002	1	4
345.173	1	10
345.344	1	1
345.515	1	5
345.686	1	-4
345.857	1	8
346.028	1	-5
346.199	1	6
346.370	1	-5
346.541	1	3
346.712	1	7
346.883	1	1
347.054	1	4
347.225	1	-1
347.396	1	2
347.567	1	9
347.738	1	5
347.909	1	10
348.080	1	3
348.251	1	-9
348.422	1	-7
348.593	1	8
348.764	1	-4
348.935	1	-2
349.106	1	7
349.277	1	0
349.448	1	12
349.619	1	2
349.790	1	1
349.961	1	5
350.132	1	13
350.303	1	-1
350.474	1	9
350.645	1	7
350.816	1	3
350.987	1	7
351.157	1	7
351.328	1	-3
351.499	1	10
351.670	1	9
351.841	1	0
352.012	1	3
352.183	1	12
352.354	1	4
352.525	1	8
352.696	1	8
352.867	1	4
353.038	1	12
353.209	1	-3
353.380	1	2
353.551	1	-5
353.722	1	11
353.893	1	-3
354.064	1	-1
354.235	1	15
354.406	1	9
354.576	1	2
354.747	1	12
354.918	1	10
355.089	1	6
355.260	1	8
355.431	1	3
355.602	1	1
355.773	1	2
355.944	1	7
356.115	1	1
356.286	1	-3
356.457	1	3
356.628	1	3
356.799	1	1
356.970	1	-5
357.141	1	6
357.311	1	5
357.482	1	-3
357.653	1	10
357.824	1	2
357.995	1	4
358.166	1	0
358.337	1	3
358.508	1	-2
358.679	1	13
358.850	1	-7
359.021	1	11
359.192	1	7
359.363	1	-6
359.533	1	3
359.704	1	3
359.875	1	-2
360.046	1	3
360.217	1	-16
360.388	1	-10
360.559	1	-1
360.730	1	3
360.901	1	2
361.072	1	9
361.243	1	5
361.414	1	4
361.584	1	13
361.755	1	11
361.926	1	0
362.097	1	-5
362.268	1	4
362.439	1	3
362.610	1	-3
362.781	1	9
362.952	1	0
363.123	1	-4
363.293	1	-4
363.464	1	22
363.635	1	4
363.806	1	11
363.977	1	-6
364.148	1	-1
364.319	1	0
364.490	1	6
364.661	1	-8
364.832	1	10
365.002	1	-7
365.173	1	-8
365.344	1	3
365.515	1	13
365.686	1	2
365.857	1	-4
366.028	1	3
366.199	1	3
366.370	1	-1
366.540	1	-4
366.711	1	7
366.882	1	-1
367.053	1	1
367.224	1	-9
367.395	1	11
367.566	1	8
367.737	1	3
367.908	1	1
368.078	1	0
368.249	1	6
368.420	1	1
368.591	1	2
368.762	1	-9
368.933	1	11
369.104	1	-4
369.274	1	14
369.445	1	11
369.616	1	5
369.787	1	4
369.958	1	5
370.129	1	4
370.300	1	5
370.471	1	6
370.641	1	4
370.812	1	5
370.983	1	-2
371.154	1	6
371.325	1	1
371.496	1	-3
371.667	1	8
371.837	1	0
372.008	1	8
372.179	1	2
372.350	1	9
372.521	1	3
372.692	1	2
372.863	1	4
373.033	1	14
373.204	1	12
373.375	1	-1
373.546	1	10
373.717	1	4
373.888	1	7
374.059	1	0
374.229	1	10
374.400	1	13
374.571	1	3
374.742	1	0
374.913	1	10
375.084	1	12
375.254	1	-2
375.425	1	-5
375.596	1	4
375.767	1	-11
375.938	1	13
376.109	1	-6
376.279	1	9
376.450	1	1
376.621	1	8
376.792	1	6
376.963	1	2
377.134	1	2
377.304	1	8
377.475	1	-3
377.646	1	1
377.817	1	-1
377.988	1	-2
378.159	1	15
378.329	1	7
378.500	1	12
378.671	1	-4
378.842	1	2
379.013	1	7
379.184	1	5
379.354	1	8
379.525	1	0
379.696	1	15
379.867	1	0
380.038	1	8
380.209	1	-8
380.379	1	11
380.550	1	4
380.721	1	7
380.892	1	2
381.063	1	3
381.233	1	1
381.404	1	7
381.575	1	3
381.746	1	13
381.917	1	-3
382.087	1	6
382.258	1	6
382.429	1	4
382.600	1	9
382.771	1	7
382.941	1	6
383.112	1	1
383.283	1	14
383.454	1	2
383.625	1	-1
383.795	1	-7
383.966	1	5
384.137	1	2
384.308	1	8
384.479	1	9
384.649	1	8
384.820	1	10
384.991	1	-2
385.162	1	11
385.333	1	-1
385.503	1	10
385.674	1	7
385.845	1	4
386.016	1	14
386.187	1	2
386.357	1	0
386.528	1	-1
386.699	1	-2
386.870	1	8
387.041	1	5
387.211	1	-2
387.382	1	0
387.553	1	13
387.724	1	10
387.894	1	6
388.065	1	19
388.236	1	16
388.407	1	9
388.578	1	9
388.748	1	5
388.919	1	7
389.090	1	3
389.261	1	17
389.431	1	14
389.602	1	-2
389.773	1	-1
389.944	1	7
390.114	1	12
390.285	1	7
390.456	1	6
390.627	1	5
390.798	1	10
390.968	1	4
391.139	1	9
391.310	1	17
391.481	1	8
391.651	1	6
391.822	1	8
391.993	1	0
392.164	1	-6
392.334	1	0
392.505	1	1
392.676	1	6
392.847	1	11
393.017	1	-1
393.188	1	5
393.359	1	-4
393.530	1	15
393.700	1	14
393.871	1	3
394.042	1	20
394.213	1	22
394.383	1	11
394.554	1	10
394.725	1	7
394.896	1	15
395.066	1	9
395.237	1	-1
395.408	1	2
395.579	1	10
395.749	1	2
395.920	1	3
396.091	1	9
396.262	1	0
396.432	1	6
396.603	1	12
396.774	1	12
396.945	1	-2
397.115	1	-5
397.286	1	12
397.457	1	3
397.627	1	5
397.798	1	9
397.969	1	18
398.140	1	7
398.310	1	8
398.481	1	18
398.652	1	0
398.823	1	1
398.993	1	18
399.164	1	8
399.335	1	0
399.505	1	20
399.676	1	9
399.847	1	6
400.018	1	5
400.188	1	13
400.359	1	10
400.530	1	-1
400.700	1	4
400.871	1	14
401.042	1	14
401.213	1	13
401.383	1	8
401.554	1	5
401.725	1	8
401.895	1	0
402.066	1	17
402.237	1	23
402.408	1	19
402.578	1	4
402.749	1	9
402.920	1	9
403.090	1	8
403.261	1	9
403.432	1	4
403.603	1	5
403.773	1	14
403.944	1	19
404.115	1	10
404.285	1	24
404.456	1	4
404.627	1	4
404.797	1	8
404.968	1	4
405.139	1	8
405.310	1	12
405.480	1	8
405.651	1	12
405.822	1	9
405.992	1	9
406.163	1	25
406.334	1	18
406.504	1	-2
406.675	1	1
406.846	1	9
407.016	1	4
407.187	1	13
407.358	1	12
407.528	1	7
407.699	1	8
407.870	1	12
408.041	1	7
408.211	1	-3
408.382	1	8
408.553	1	-8
408.723	1	7
408.894	1	17
409.065	1	15
409.235	1	6
409.406	1	6
409.577	1	2
409.747	1	15
409.918	1	1
410.089	1	4
410.259	1	4
410.430	1	14
410.601	1	2
410.771	1	10
410.942	1	13
411.113	1	16
411.283	1	5
411.454	1	22
411.625	1	1
411.795	1	-1
411.966	1	-6
412.137	1	9
412.307	1	11
412.478	1	15
412.649	1	-2
412.819	1	2
412.990	1	7
413.161	1	12
413.331	1	14
413.502	1	-10
413.672	1	10
413.843	1	16
414.014	1	28
414.184	1	6
414.355	1	8
414.526	1	11
414.696	1	17
414.867	1	13
415.038	1	1
415.208	1	3
415.379	1	9
415.550	1	6
415.720	1	5
415.891	1	20
416.062	1	8
416.232	1	1
416.403	1	5
416.573	1	6
416.744	1	3
416.915	1	4
417.085	1	5
417.256	1	13
417.427	1	11
417.597	1	12
417.768	1	15
417.939	1	15
418.109	1	2
418.280	1	7
418.450	1	19
418.621	1	6
418.792	1	6
418.962	1	3
419.133	1	14
419.304	1	-3
419.474	1	6
419.645	1	14
419.815	1	12
419.986	1	6
420.157	1	16
420.327	1	4
420.498	1	0
420.669	1	19
420.839	1	11
421.010	1	13
421.180	1	-8
421.351	1	14
421.522	1	17
421.692	1	14
421.863	1	4
422.033	1	16
422.204	1	5
422.375	1	5
422.545	1	9
422.716	1	5
422.886	1	16
423.057	1	2
423.228	1	7
423.398	1	12
423.569	1	16
423.740	1	5
423.910	1	12
424.081	1	14
424.251	1	8
424.422	1	1
424.593	1	3
424.763	1	15
424.934	1	14
425.104	1	3
425.275	1	4
425.445	1	6
425.616	1	2
425.787	1	20
425.957	1	-1
426.128	1	18
426.298	1	13
426.469	1	8
426.640	1	6
426.810	1	6
426.981	1	8
427.151	1	-3
427.322	1	-8
427.493	1	2
427.663	1	4
427.834	1	12
428.004	1	6
428.175	1	10
428.345	1	10
428.516	1	7
428.687	1	1
428.857	1	4
429.028	1	17
429.198	1	4
429.369	1	10
429.540	1	10
429.710	1	12
429.881	1	9
430.051	1	4
430.222	1	9
430.392	1	16
430.563	1	6
430.734	1	15
430.904	1	16
431.075	1	-4
431.245	1	14
431.416	1	-6
431.586	1	10
431.757	1	14
431.927	1	3
432.098	1	14
432.269	1	11
432.439	1	3
432.610	1	13
432.780	1	1
432.951	1	1
433.121	1	13
433.292	1	15
433.462	1	16
433.633	1	20
433.804	1	0
433.974	1	16
434.145	1	3
434.315	1	6
434.486	1	1
434.656	1	0
434.827	1	6
434.997	1	21
435.168	1	8
435.339	1	9
435.509	1	6
435.680	1	5
435.850	1	7
436.021	1	8
436.191	1	13
436.362	1	17
436.532	1	3
436.703	1	12
436.873	1	11
437.044	1	10
437.214	1	19
437.385	1	22
437.556	1	9
437.726	1	10
437.897	1	-5
438.067	1	-3
438.238	1	7
438.408	1	12
438.579	1	9
438.749	1	-4
438.920	1	16
439.090	1	11
439.261	1	-1
439.431	1	11
439.602	1	9
439.772	1	8
439.943	1	9
440.113	1	4
440.284	1	5
440.455	1	16
440.625	1	10
440.796	1	9
440.966	1	-5
441.137	1	10
441.307	1	10
441.478	1	12
441.648	1	12
441.819	1	4
441.989	1	0
442.160	1	8
442.330	1	18
442.501	1	11
442.671	1	8
442.842	1	17
443.012	1	2
443.183	1	5
443.353	1	18
443.524	1	19
443.694	1	2
443.865	1	14
444.035	1	2
444.206	1	4
444.376	1	19
444.547	1	7
444.717	1	9
444.888	1	9
445.058	1	5
445.229	1	6
445.399	1	3
445.570	1	11
445.740	1	7
445.911	1	13
446.081	1	13
446.252	1	-1
446.422	1	6
446.593	1	14
446.763	1	7
446.934	1	17
447.104	1	-4
447.275	1	17
447.445	1	5
447.616	1	2
447.786	1	7
447.957	1	3
448.127	1	16
448.298	1	16
448.468	1	15
448.639	1	3
448.809	1	5
448.979	1	16
449.150	1	6
449.320	1	0
449.491	1	4
449.661	1	17
449.832	1	4
450.002	1	7
450.173	1	0
450.343	1	16
450.514	1	5
450.684	1	-1
450.855	1	8
451.025	1	14
451.196	1	18
451.366	1	8
451.537	1	7
451.707	1	12
451.878	1	1
452.048	1	1
452.218	1	13
452.389	1	15
452.559	1	10
452.730	1	10
452.900	1	4
453.071	1	14
453.241	1	-2
453.412	1	0
453.582	1	1
453.753	1	13
453.923	1	7
454.093	1	19
454.264	1	2
454.434	1	16
454.605	1	11
454.775	1	10
454.946	1	6
455.116	1	2
455.287	1	6
455.457	1	3
455.628	1	13
455.798	1	8
455.968	1	10
456.139	1	8
456.309	1	10
456.480	1	14
456.650	1	15
456.821	1	19
456.991	1	9
457.161	1	5
457.332	1	9
457.502	1	16
457.673	1	14
457.843	1	6
458.014	1	11
458.184	1	6
458.355	1	3
458.525	1	14
458.695	1	9
458.866	1	23
459.036	1	3
459.207	1	5
459.377	1	8
459.548	1	5
459.718	1	6
459.888	1	7
460.059	1	15
460.229	1	10
460.400	1	9
460.570	1	15
460.740	1	13
460.911	1	11
461.081	1	10
461.252	1	10
461.422	1	5
461.593	1	2
461.763	1	3
461.933	1	7
462.104	1	19
462.274	1	0
462.445	1	9
462.615	1	5
462.785	1	15
462.956	1	6
463.126	1	10
463.297	1	8
463.467	1	0
463.638	1	5
463.808	1	4
463.978	1	10
464.149	1	-2
464.319	1	14
464.490	1	11
464.660	1	6
464.830	1	9
465.001	1	6
465.171	1	10
465.342	1	3
465.512	1	-4
465.682	1	6
465.853	1	1
466.023	1	1
466.194	1	8
466.364	1	6
466.534	1	12
466.705	1	0
466.875	1	13
467.045	1	7
467.216	1	21
467.386	1	17
467.557	1	4
467.727	1	21
467.897	1	2
468.068	1	-4
468.238	1	10
468.409	1	-5
468.579	1	13
468.749	1	5
468.920	1	1
469.090	1	12
469.260	1	9
469.431	1	21
469.601	1	5
469.772	1	-2
469.942	1	9
470.112	1	3
470.283	1	17
470.453	1	17
470.623	1	7
470.794	1	4
470.964	1	11
471.135	1	14
471.305	1	14
471.475	1	3
471.646	1	9
471.816	1	-3
471.986	1	17
472.157	1	16
472.327	1	12
472.497	1	14
472.668	1	4
472.838	1	18
473.009	1	16
473.179	1	6
473.349	1	9
473.520	1	-3
473.690	1	14
473.860	1	1
474.031	1	12
474.201	1	5
474.371	1	10
474.542	1	9
474.712	1	6
474.882	1	-1
475.053	1	14
475.223	1	-2
475.394	1	4
475.564	1	0
475.734	1	12
475.905	1	8
476.075	1	12
476.245	1	10
476.416	1	0
476.586	1	6
476.756	1	5
476.927	1	1
477.097	1	1
477.267	1	10
477.438	1	9
477.608	1	4
477.778	1	2
477.949	1	8
478.119	1	12
478.289	1	5
478.460	1	-3
478.630	1	14
478.800	1	15
478.971	1	11
479.141	1	4
479.311	1	4
479.482	1	7
479.652	1	18
479.822	1	8
479.993	1	1
480.163	1	4
480.333	1	7
480.504	1	4
480.674	1	5
480.844	1	4
481.015	1	-1
481.185	1	6
481.355	1	9
481.525	1	7
481.696	1	1
481.866	1	8
482.036	1	9
482.207	1	9
482.377	1	11
482.547	1	-2
482.718	1	3
482.888	1	6
483.058	1	0
483.229	1	3
483.399	1	7
483.569	1	5
483.740	1	-4
483.910	1	3
484.080	1	0
484.250	1	1
484.421	1	6
484.591	1	6
484.761	1	8
484.932	1	3
485.102	1	14
485.272	1	7
485.443	1	12
485.613	1	10
485.783	1	9
485.953	1	13
486.124	1	3
486.294	1	7
486.464	1	-3
486.635	1	14
486.805	1	-2
486.975	1	2
487.146	1	1
487.316	1	7
487.486	1	2
487.656	1	5
487.827	1	-4
487.997	1	2
488.167	1	-1
488.338	1	4
488.508	1	5
488.678	1	-1
488.848	1	-8
489.019	1	8
489.189	1	-5
489.359	1	5
489.529	1	-2
489.700	1	10
489.870	1	-7
490.040	1	0
490.211	1	-1
490.381	1	6
490.551	1	9
490.721	1	4
490.892	1	3
491.062	1	-3
491.232	1	-6
491.402	1	-2
491.573	1	6
491.743	1	8
491.913	1	-9
492.084	1	6
492.254	1	8
492.424	1	14
492.594	1	14
492.765	1	4
492.935	1	2
493.105	1	17
493.275	1	1
493.446	1	0
493.616	1	6
493.786	1	4
493.956	1	-3
494.127	1	18
494.297	1	-1
494.467	1	9
494.637	1	7
494.808	1	3
494.978	1	1
495.148	1	-3
495.318	1	11
495.489	1	-1
495.659	1	3
495.829	1	7
495.999	1	9
496.170	1	-2
496.340	1	9
496.510	1	-1
496.680	1	1
496.851	1	10
497.021	1	-2
497.191	1	7
497.361	1	5
497.532	1	-3
497.702	1	9
497.872	1	16
498.042	1	9
498.213	1	11
498.383	1	11
498.553	1	5
498.723	1	1
498.894	1	1
499.064	1	9
499.234	1	-2
499.404	1	-3
499.574	1	1
499.745	1	6
499.915	1	-4
500.085	1	-6
500.255	1	-5
500.426	1	10
500.596	1	-9
500.766	1	0
500.936	1	7
501.106	1	10
501.277	1	9
501.447	1	5
501.617	1	4
501.787	1	4
501.958	1	6
502.128	1	-7
502.298	1	3
502.468	1	9
502.638	1	-3
502.809	1	2
502.979	1	11
503.149	1	-6
503.319	1	1
503.489	1	0
503.660	1	1
503.830	1	11
504.000	1	12
504.170	1	6
504.340	1	4
504.511	1	9
504.681	1	-3
504.851	1	8
505.021	1	12
505.192	1	-9
505.362	1	-4
505.532	1	0
505.702	1	-8
505.872	1	7
506.043	1	5
506.213	1	11
506.383	1	4
506.553	1	13
506.723	1	8
506.893	1	-8
507.064	1	0
507.234	1	1
507.404	1	7
507.574	1	13
507.744	1	12
507.915	1	1
508.085	1	9
508.255	1	6
508.425	1	-2
508.595	1	-7
508.766	1	1
508.936	1	-5
509.106	1	9
509.276	1	1
509.446	1	1
509.616	1	12
509.787	1	10
509.957	1	3
510.127	1	0
510.297	1	-8
510.467	1	-16
510.638	1	4
510.808	1	-6
510.978	1	1
511.148	1	22
511.318	1	4
511.488	1	10
511.659	1	-1
511.829	1	2
511.999	1	9
512.169	1	-6
512.339	1	4
512.509	1	1
512.680	1	9
512.850	1	8
513.020	1	5
513.190	1	-4
513.360	1	9
513.530	1	7
513.700	1	3
513.871	1	8
514.041	1	8
514.211	1	13
514.381	1	10
514.551	1	4
514.721	1	8
514.892	1	-2
515.062	1	5
515.232	1	7
515.402	1	-2
515.572	1	-1
515.742	1	10
515.912	1	-10
516.083	1	11
516.253	1	5
516.423	1	7
516.593	1	5
516.763	1	1
516.933	1	-12
517.104	1	1
517.274	1	-6
517.444	1	2
517.614	1	4
517.784	1	12
517.954	1	18
518.124	1	-1
518.294	1	12
518.465	1	2
518.635	1	2
518.805	1	13
518.975	1	5
519.145	1	8
519.315	1	2
519.485	1	-6
519.656	1	1
519.826	1	13
519.996	1	-3
520.166	1	14
520.336	1	-1
520.506	1	-10
520.676	1	6
520.846	1	-3
521.017	1	-8
521.187	1	9
521.357	1	5
521.527	1	7
521.697	1	6
521.867	1	1
522.037	1	-11
522.207	1	4
522.377	1	8
522.548	1	-4
522.718	1	1
522.888	1	16
523.058	1	3
523.228	1	16
523.398	1	5
523.568	1	0
523.738	1	-1
523.909	1	1
524.079	1	0
524.249	1	3
524.419	1	9
524.589	1	6
524.759	1	2
524.929	1	-5
525.099	1	-5
525.269	1	13
525.439	1	-1
525.610	1	3
525.780	1	2
525.950	1	-4
526.120	1	-7
526.290	1	1
526.460	1	-8
526.630	1	15
526.800	1	6
526.970	1	15
527.140	1	-2
527.311	1	-3
527.481	1	6
527.651	1	7
527.821	1	1
527.991	1	-1
528.161	1	9
528.331	1	9
528.501	1	15
528.671	1	-5
528.841	1	4
529.011	1	-7
529.181	1	15
529.352	1	-3
529.522	1	0
529.692	1	2
529.862	1	6
530.032	1	5
530.202	1	-1
530.372	1	0
530.542	1	-5
530.712	1	-10
530.882	1	2
531.052	1	11
531.222	1	-8
531.392	1	-1
531.563	1	-4
531.733	1	2
531.903	1	5
532.073	1	2
532.243	1	-6
532.413	1	12
532.583	1	-4
532.753	1	4
532.923	1	6
533.093	1	15
533.263	1	-9
533.433	1	10
533.603	1	3
533.773	1	0
533.943	1	-2
534.113	1	6
534.284	1	9
534.454	1	-10
534.624	1	5
534.794	1	0
534.964	1	0
535.134	1	9
535.304	1	-2
535.474	1	-9
535.644	1	5
535.814	1	4
535.984	1	12
536.154	1	2
536.324	1	13
536.494	1	3
536.664	1	-3
536.834	1	-3
537.004	1	0
537.174	1	3
537.344	1	6
537.514	1	2
537.685	1	5
537.855	1	-5
538.025	1	-2
538.195	1	3
538.365	1	-6
538.535	1	-5
538.705	1	9
538.875	1	8
539.045	1	-7
539.215	1	-13
539.385	1	1
539.555	1	2
539.725	1	6
539.895	1	3
540.065	1	0
540.235	1	1
540.405	1	7
540.575	1	1
540.745	1	2
540.915	1	2
541.085	1	-11
541.255	1	-4
541.425	1	3
541.595	1	12
541.765	1	9
541.935	1	1
542.105	1	2
542.275	1	8
542.445	1	4
542.615	1	4
542.785	1	-13
542.955	1	-1
543.125	1	-5
543.295	1	-7
543.465	1	5
543.635	1	7
543.805	1	13
543.975	1	-1
544.145	1	-2
544.315	1	-8
544.485	1	0
544.655	1	14
544.825	1	4
544.995	1	13
545.165	1	6
545.335	1	-4
545.505	1	7
545.675	1	-7
545.845	1	9
546.015	1	3
546.185	1	-1
546.355	1	0
546.525	1	-2
546.695	1	3
546.865	1	6
547.035	1	2
547.205	1	11
547.375	1	6
547.545	1	15
547.715	1	5
547.885	1	9
548.055	1	-3
548.225	1	7
548.395	1	-9
548.565	1	3
548.735	1	3
548.905	1	-9
549.075	1	13
549.245	1	-4
549.415	1	0
549.585	1	8
549.755	1	-3
549.925	1	10
550.095	1	-1
550.265	1	-6
550.435	1	-11
550.605	1	-3
550.775	1	-1
550.945	1	22
551.115	1	4
551.285	1	1
551.455	1	1
551.625	1	-5
551.795	1	4
551.965	1	8
552.135	1	0
552.305	1	-3
552.475	1	-3
552.645	1	-2
552.815	1	1
552.985	1	-1
553.155	1	5
553.325	1	-1
553.495	1	2
553.665	1	7
553.835	1	0
554.004	1	-3
554.174	1	-2
554.344	1	5
554.514	1	1
554.684	1	-8
554.854	1	-3
555.024	1	6
555.194	1	3
555.364	1	7
555.534	1	0
555.704	1	9
555.874	1	-5
556.044	1	10
556.214	1	1
556.384	1	1
556.554	1	7
556.724	1	7
556.894	1	-6
557.064	1	-1
557.234	1	-5
557.404	1	3
557.573	1	-8
557.743	1	5
557.913	1	-12
558.083	1	5
558.253	1	-11
558.423	1	-2
558.593	1	10
558.763	1	-2
558.933	1	1
559.103	1	11
559.273	1	-2
559.443	1	3
559.613	1	4
559.783	1	9
559.953	1	10
560.122	1	-5
560.292	1	4
560.462	1	-3
560.632	1	10
560.802	1	-2
560.972	1	4
561.142	1	15
561.312	1	3
561.482	1	9
561.652	1	-1
561.822	1	-10
561.992	1	-7
562.162	1	8
562.331	1	11
562.501	1	-2
562.671	1	9
562.841	1	-3
563.011	1	0
563.181	1	6
563.351	1	0
563.521	1	4
563.691	1	1
563.861	1	7
564.031	1	-11
564.201	1	-3
564.370	1	-6
564.540	1	-4
564.710	1	8
564.880	1	4
565.050	1	-3
565.220	1	-3
565.390	1	8
565.560	1	5
565.730	1	-1
565.900	1	-9
566.069	1	1
566.239	1	2
566.409	1	6
566.579	1	6
566.749	1	11
566.919	1	6
567.089	1	2
567.259	1	0
567.429	1	-3
567.599	1	-4
567.768	1	-3
567.938	1	-9
568.108	1	-2
568.278	1	-5
568.448	1	10
568.618	1	-2
568.788	1	-6
568.958	1	-6
569.128	1	-12
569.297	1	-3
569.467	1	3
569.637	1	-1
569.807	1	1
569.977	1	7
570.147	1	-3
570.317	1	5
570.487	1	2
570.656	1	2
570.826	1	-10
570.996	1	2
571.166	1	1
571.336	1	-1
571.506	1	-3
571.676	1	-9
571.846	1	-7
572.015	1	14
572.185	1	7
572.355	1	6
572.525	1	-9
572.695	1	-11
572.865	1	-1
573.035	1	-5
573.205	1	-3
573.374	1	11
573.544	1	4
573.714	1	0
573.884	1	1
574.054	1	-1
574.224	1	8
574.394	1	-1
574.563	1	5
574.733	1	7
574.903	1	2
575.073	1	-7
575.243	1	10
575.413	1	5
575.583	1	-4
575.752	1	0
575.922	1	7
576.092	1	-4
576.262	1	5
576.432	1	9
576.602	1	7
576.772	1	-5
576.941	1	6
577.111	1	2
577.281	1	14
577.451	1	-7
577.621	1	-4
577.791	1	4
577.960	1	-8
578.130	1	1
578.300	1	8
578.470	1	8
578.640	1	7
578.810	1	-4
578.979	1	2
579.149	1	-6
579.319	1	5
579.489	1	4
579.659	1	0
579.829	1	3
579.998	1	0
580.168	1	-6
580.338	1	4
580.508	1	-3
580.678	1	22
580.848	1	-4
581.017	1	10
581.187	1	6
581.357	1	-3
581.527	1	-3
581.697	1	-7
581.867	1	8
582.036	1	4
582.206	1	3
582.376	1	-1
582.546	1	14
582.716	1	-5
582.885	1	2
583.055	1	-3
583.225	1	-3
583.395	1	4
583.565	1	-4
583.735	1	-3
583.904	1	6
584.074	1	2
584.244	1	2
584.414	1	-5
584.584	1	5
584.753	1	2
584.923	1	5
585.093	1	-8
585.263	1	-6
585.433	1	16
585.602	1	0
585.772	1	-6
585.942	1	6
586.112	1	3
586.282	1	-5
586.451	1	-2
586.621	1	-3
586.791	1	4
586.961	1	2
587.131	1	-1
587.300	1	10
587.470	1	3
587.640	1	-10
587.810	1	3
587.980	1	-4
588.149	1	2
588.319	1	0
588.489	1	4
588.659	1	8
588.829	1	-8
588.998	1	-7
589.168	1	4
589.338	1	11
589.508	1	8
589.677	1	-2
589.847	1	-3
590.017	1	-7
590.187	1	-4
590.357	1	-13
590.526	1	7
590.696	1	0
590.866	1	-8
591.036	1	-3
591.205	1	3
591.375	1	5
591.545	1	-8
591.715	1	-4
591.885	1	-5
592.054	1	-2
592.224	1	2
592.394	1	-5
592.564	1	-4
592.733	1	7
592.903	1	-3
593.073	1	-13
593.243	1	6
593.412	1	-3
593.582	1	0
593.752	1	7
593.922	1	5
594.091	1	-7
594.261	1	-5
594.431	1	6
594.601	1	1
594.771	1	9
594.940	1	3
595.110	1	7
595.280	1	14
595.450	1	1
595.619	1	1
595.789	1	1
595.959	1	1
596.129	1	-4
596.298	1	-1
596.468	1	0
596.638	1	4
596.808	1	-1
596.977	1	5
597.147	1	3
597.317	1	-5
597.487	1	8
597.656	1	9
597.826	1	-5
597.996	1	2
598.166	1	12
598.335	1	-1
598.505	1	-13
598.675	1	-1
598.844	1	-1
599.014	1	-2
599.184	1	2
599.354	1	7
599.523	1	13
599.693	1	11
599.863	1	12
600.033	1	1
600.202	1	5
600.372	1	4
600.542	1	7
600.712	1	13
600.881	1	2
601.051	1	7
601.221	1	8
601.390	1	12
601.560	1	1
601.730	1	3
601.900	1	7
602.069	1	-14
602.239	1	11
602.409	1	-2
602.578	1	7
602.748	1	-9
602.918	1	1
603.088	1	6
603.257	1	3
603.427	1	14
603.597	1	3
603.767	1	-2
603.936	1	19
604.106	1	-7
604.276	1	-3
604.445	1	-7
604.615	1	-8
604.785	1	2
604.954	1	5
605.124	1	-6
605.294	1	9
605.464	1	-12
605.633	1	3
605.803	1	12
605.973	1	-4
606.142	1	3
606.312	1	5
606.482	1	-3
606.652	1	13
606.821	1	-1
606.991	1	1
607.161	1	3
607.330	1	-1
607.500	1	2
607.670	1	6
607.839	1	0
608.009	1	3
608.179	1	6
608.348	1	6
608.518	1	-6
608.688	1	7
608.858	1	-3
609.027	1	-5
609.197	1	5
609.367	1	-8
609.536	1	11
609.706	1	-1
609.876	1	-7
610.045	1	9
610.215	1	1
610.385	1	-4
610.554	1	3
610.724	1	3
610.894	1	0
611.063	1	-5
611.233	1	-2
611.403	1	5
611.572	1	1
611.742	1	5
611.912	1	5
612.081	1	14
612.251	1	-2
612.421	1	-1
612.590	1	-10
612.760	1	8
612.930	1	-3
613.099	1	-2
613.269	1	0
613.439	1	2
613.608	1	-3
613.778	1	-6
613.948	1	7
614.117	1	7
614.287	1	3
614.457	1	8
614.626	1	14
614.796	1	11
614.966	1	1
615.135	1	3
615.305	1	5
615.475	1	3
615.644	1	1
615.814	1	3
615.984	1	8
616.153	1	-5
616.323	1	7
616.493	1	13
616.662	1	1
616.832	1	1
617.002	1	-3
617.171	1	10
617.341	1	-1
617.511	1	-3
617.680	1	-3
617.850	1	0
618.019	1	9
618.189	1	0
618.359	1	-2
618.528	1	-2
618.698	1	3
618.868	1	0
619.037	1	3
619.207	1	10
619.377	1	-8
619.546	1	-6
619.716	1	1
619.885	1	2
620.055	1	2
620.225	1	11
620.394	1	-2
620.564	1	-8
620.734	1	-4
620.903	1	4
621.073	1	-1
621.242	1	-5
621.412	1	9
621.582	1	-5
621.751	1	-7
621.921	1	5
622.091	1	-6
622.260	1	7
622.430	1	16
622.599	1	12
622.769	1	-4
622.939	1	-3
623.108	1	3
623.278	1	15
623.448	1	4
623.617	1	2
623.787	1	4
623.956	1	13
624.126	1	1
624.296	1	6
624.465	1	5
624.635	1	4
624.804	1	-9
624.974	1	2
625.144	1	15
625.313	1	-2
625.483	1	4
625.652	1	15
625.822	1	10
625.992	1	6
626.161	1	-11
626.331	1	-1
626.501	1	-8
626.670	1	-4
626.840	1	6
627.009	1	-3
627.179	1	-8
627.348	1	15
627.518	1	10
627.688	1	5
627.857	1	-8
628.027	1	-8
628.196	1	-11
628.366	1	1
628.536	1	11
628.705	1	5
628.875	1	7
629.044	1	4
629.214	1	11
629.384	1	-2
629.553	1	2
629.723	1	-1
629.892	1	0
630.062	1	-5
630.232	1	12
630.401	1	4
630.571	1	6
630.740	1	1
630.910	1	4
631.079	1	-1
631.249	1	2
631.419	1	3
631.588	1	-1
631.758	1	3
631.927	1	6
632.097	1	3
632.266	1	-5
632.436	1	4
632.606	1	-2
632.775	1	7
632.945	1	-1
633.114	1	1
633.284	1	-4
633.453	1	6
633.623	1	10
633.793	1	3
633.962	1	-4
634.132	1	-3
634.301	1	-6
634.471	1	-10
634.640	1	10
634.810	1	4
634.979	1	5
635.149	1	5
635.319	1	15
635.488	1	-7
635.658	1	8
635.827	1	-2
635.997	1	5
636.166	1	-1
636.336	1	-3
636.505	1	0
636.675	1	-3
636.845	1	3
637.014	1	2
637.184	1	11
637.353	1	6
637.523	1	8
637.692	1	-4
637.862	1	-3
638.031	1	-8
638.201	1	-5
638.370	1	8
638.540	1	7
638.710	1	4
638.879	1	6
639.049	1	-4
639.218	1	17
639.388	1	8
639.557	1	1
639.727	1	13
639.896	1	-6
640.066	1	-2
640.235	1	3
640.405	1	8
640.574	1	-4
640.744	1	-2
640.914	1	7
641.083	1	3
641.253	1	5
641.422	1	1
641.592	1	-13
641.761	1	4
641.931	1	-5
642.100	1	8
642.270	1	5
642.439	1	2
642.609	1	8
642.778	1	-9
642.948	1	2
643.117	1	9
643.287	1	-7
643.456	1	2
643.626	1	5
643.795	1	3
643.965	1	-4
644.134	1	2
644.304	1	9
644.473	1	-9
644.643	1	-2
644.812	1	6
644.982	1	-6
645.151	1	8
645.321	1	6
645.490	1	6
645.660	1	10
645.829	1	-2
645.999	1	-2
646.168	1	-2
646.338	1	11
646.507	1	5
646.677	1	-1
646.846	1	5
647.016	1	-1
647.185	1	3
647.355	1	4
647.524	1	2
647.694	1	1
647.863	1	10
648.033	1	-1
648.202	1	-5
648.372	1	-2
648.541	1	2
648.711	1	-3
648.880	1	-1
649.050	1	3
649.219	1	4
649.389	1	5
649.558	1	6
649.728	1	3
649.897	1	0
650.067	1	10
650.236	1	2
650.406	1	5
650.575	1	2
650.745	1	6
650.914	1	2
651.084	1	3
651.253	1	-2
651.423	1	0
651.592	1	2
651.762	1	7
651.931	1	15
652.101	1	-1
652.270	1	-5
652.440	1	-1
652.609	1	5
652.778	1	6
652.948	1	2
653.117	1	6
653.287	1	5
653.456	1	-5
653.626	1	-3
653.795	1	3
653.965	1	-10
654.134	1	-10
654.304	1	11
654.473	1	-3
654.643	1	5
654.812	1	6
654.982	1	-6
655.151	1	4
655.320	1	10
655.490	1	8
655.659	1	3
655.829	1	-1
655.998	1	2
656.168	1	4
656.337	1	1
656.507	1	-3
656.676	1	-6
656.846	1	6
657.015	1	1
657.184	1	1
657.354	1	11
657.523	1	-3
657.693	1	-7
657.862	1	-5
658.032	1	8
658.201	1	9
658.371	1	0
658.540	1	2
658.709	1	0
658.879	1	2
659.048	1	3
659.218	1	-4
659.387	1	-1
659.557	1	0
659.726	1	3
659.895	1	-3
660.065	1	15
660.234	1	-3
660.404	1	-3
660.573	1	7
660.743	1	0
660.912	1	-3
661.081	1	-3
661.251	1	9
661.420	1	9
661.590	1	3
661.759	1	-4
661.929	1	8
662.098	1	10
662.267	1	2
662.437	1	4
662.606	1	1
662.776	1	-5
662.945	1	9
663.115	1	9
663.284	1	5
663.453	1	13
663.623	1	9
663.792	1	6
663.962	1	-1
664.131	1	2
664.300	1	-3
664.470	1	4
664.639	1	8
664.809	1	-1
664.978	1	6
665.148	1	3
665.317	1	-7
665.486	1	-2
665.656	1	5
665.825	1	13
665.995	1	-10
666.164	1	19
666.333	1	4
666.503	1	5
666.672	1	9
666.842	1	-3
667.011	1	-2
667.180	1	3
667.350	1	-9
667.519	1	1
667.689	1	-4
667.858	1	6
668.027	1	5
668.197	1	10
668.366	1	2
668.536	1	-5
668.705	1	4
668.874	1	-4
669.044	1	1
669.213	1	-8
669.382	1	5
669.552	1	-1
669.721	1	0
669.891	1	-1
670.060	1	8
670.229	1	0
670.399	1	3
670.568	1	-8
670.738	1	-1
670.907	1	0
671.076	1	-4
671.246	1	-3
671.415	1	9
671.584	1	-1
671.754	1	6
671.923	1	12
672.093	1	-4
672.262	1	-2
672.431	1	8
672.601	1	-1
672.770	1	5
672.939	1	-5
673.109	1	5
673.278	1	2
673.448	1	0
673.617	1	3
673.786	1	4
