325.333	1	-6
325.504	1	2
325.675	1	0
325.846	1	-2
326.017	1	-6
326.188	1	7
326.359	1	8
326.531	1	7
326.702	1	10
326.873	1	-1
327.044	1	10
327.215	1	-3
327.386	1	1
327.557	1	3
327.728	1	1
327.899	1	-7
328.070	1	12
328.241	1	2
328.412	1	-11
328.583	1	3
328.754	1	-1
328.926	1	8
329.097	1	-1
329.268	1	-11
329.439	1	0
329.610	1	6
329.781	1	1
329.952	1	-2
330.123	1	-2
330.294	1	-8
330.465	1	13
330.636	1	8
330.807	1	-4
330.978	1	-5
331.149	1	9
331.320	1	2
331.492	1	2
331.663	1	-7
331.834	1	-1
332.005	1	5
332.176	1	7
332.347	1	5
332.518	1	4
332.689	1	-2
332.860	1	3
333.031	1	4
333.202	1	2
333.373	1	5
333.544	1	-3
333.715	1	-2
333.886	1	-6
334.057	1	3
334.228	1	-4
334.399	1	9
334.570	1	-7
334.741	1	0
334.912	1	3
335.084	1	1
335.255	1	-3
335.426	1	1
335.597	1	2
335.768	1	-7
335.939	1	-8
336.110	1	3
336.281	1	-1
336.452	1	4
336.623	1	-4
336.794	1	4
336.965	1	-3
337.136	1	8
337.307	1	5
337.478	1	-1
337.649	1	-11
337.820	1	-1
337.991	1	4
338.162	1	7
338.333	1	3
338.504	1	5
338.675	1	4
338.846	1	8
339.017	1	10
339.188	1	6
339.359	1	9
339.530	1	2
339.701	1	-10
339.872	1	3
340.043	1	-10
340.214	1	-13
340.385	1	9
340.556	1	-15
340.727	1	1
340.898	1	9
341.069	1	-7
341.240	1	-11
341.411	1	13
341.582	1	4
341.753	1	0
341.924	1	5
342.095	1	6
342.266	1	-4
342.437	1	-6
342.608	1	2
342.779	1	13
342.950	1	7
343.121	1	7
343.292	1	12
343.463	1	-5
343.634	1	-4
343.805	1	-4
343.976	1	-13
344.147	1	-9
344.318	1	1
344.489	1	10
344.660	1	6
344.831	1	5
345.002	1	2
345.173	1	4
345.344	1	-7
345.515	1	-1
345.686	1	-9
345.857	1	3
346.028	1	-8
346.199	1	3
346.370	1	3
346.541	1	-2
346.712	1	3
346.883	1	5
347.054	1	3
347.225	1	-9
347.396	1	-3
347.567	1	-4
347.738	1	13
347.909	1	1
348.080	1	-2
348.251	1	1
348.422	1	-2
348.593	1	1
348.764	1	2
348.935	1	-1
349.106	1	6
349.277	1	7
349.448	1	-4
349.619	1	9
349.790	1	-2
349.961	1	1
350.132	1	16
350.303	1	2
350.474	1	8
350.645	1	9
350.816	1	3
350.987	1	3
351.157	1	3
351.328	1	-2
351.499	1	2
351.670	1	-6
351.841	1	0
352.012	1	4
352.183	1	3
352.354	1	-2
352.525	1	-7
352.696	1	-3
352.867	1	4
353.038	1	-5
353.209	1	-2
353.380	1	8
353.551	1	-14
353.722	1	-1
353.893	1	1
354.064	1	-4
354.235	1	0
354.406	1	6
354.576	1	-8
354.747	1	-2
354.918	1	14
355.089	1	-3
355.260	1	8
355.431	1	-2
355.602	1	-2
355.773	1	-6
355.944	1	-2
356.115	1	-6
356.286	1	6
356.457	1	4
356.628	1	2
356.799	1	2
356.970	1	-1
357.141	1	10
357.311	1	1
357.482	1	0
357.653	1	-2
357.824	1	5
357.995	1	8
358.166	1	7
358.337	1	-2
358.508	1	-8
358.679	1	-1
358.850	1	-7
359.021	1	9
359.192	1	-3
359.363	1	-8
359.533	1	5
359.704	1	2
359.875	1	-1
360.046	1	-1
360.217	1	-4
360.388	1	-6
360.559	1	2
360.730	1	3
360.901	1	6
361.072	1	4
361.243	1	-1
361.414	1	11
361.584	1	14
361.755	1	3
361.926	1	-8
362.097	1	-7
362.268	1	2
362.439	1	9
362.610	1	-9
362.781	1	9
362.952	1	-1
363.123	1	-10
363.293	1	-1
363.464	1	1
363.635	1	0
363.806	1	11
363.977	1	5
364.148	1	3
364.319	1	-10
364.490	1	-1
364.661	1	0
364.832	1	12
365.002	1	-4
365.173	1	2
365.344	1	-5
365.515	1	12
365.686	1	0
365.857	1	2
366.028	1	1
366.199	1	5
366.370	1	-8
366.540	1	-10
366.711	1	1
366.882	1	2
367.053	1	1
367.224	1	6
367.395	1	0
367.566	1	15
367.737	1	3
367.908	1	-7
368.078	1	6
368.249	1	-3
368.420	1	3
368.591	1	4
368.762	1	-12
368.933	1	2
369.104	1	3
369.274	1	7
369.445	1	7
369.616	1	7
369.787	1	2
369.958	1	15
370.129	1	-5
370.300	1	14
370.471	1	5
370.641	1	-6
370.812	1	12
370.983	1	-2
371.154	1	4
371.325	1	8
371.496	1	-3
371.667	1	6
371.837	1	0
372.008	1	17
372.179	1	4
372.350	1	8
372.521	1	1
372.692	1	-1
372.863	1	-3
373.033	1	1
373.204	1	14
373.375	1	-2
373.546	1	5
373.717	1	6
373.888	1	3
374.059	1	0
374.229	1	-2
374.400	1	12
374.571	1	6
374.742	1	-5
374.913	1	7
375.084	1	9
375.254	1	6
375.425	1	3
375.596	1	3
375.767	1	-1
375.938	1	-5
376.109	1	-5
376.279	1	10
376.450	1	2
376.621	1	-1
376.792	1	8
376.963	1	-5
377.134	1	-8
377.304	1	4
377.475	1	3
377.646	1	-5
377.817	1	-4
377.988	1	2
378.159	1	7
378.329	1	10
378.500	1	-9
378.671	1	-5
378.842	1	4
379.013	1	2
379.184	1	8
379.354	1	6
379.525	1	6
379.696	1	7
379.867	1	-7
380.038	1	-4
380.209	1	3
380.379	1	0
380.550	1	4
380.721	1	-1
380.892	1	3
381.063	1	2
381.233	1	9
381.404	1	4
381.575	1	1
381.746	1	10
381.917	1	1
382.087	1	-1
382.258	1	3
382.429	1	6
382.600	1	3
382.771	1	10
382.941	1	3
383.112	1	-6
383.283	1	6
383.454	1	6
383.625	1	11
383.795	1	-4
383.966	1	0
384.137	1	10
384.308	1	3
384.479	1	9
384.649	1	15
384.820	1	-1
384.991	1	-15
385.162	1	4
385.333	1	5
385.503	1	7
385.674	1	12
385.845	1	8
386.016	1	6
386.187	1	-5
386.357	1	1
386.528	1	1
386.699	1	-1
386.870	1	-1
387.041	1	0
387.211	1	-2
387.382	1	-6
387.553	1	5
387.724	1	-8
387.894	1	15
388.065	1	12
388.236	1	0
388.407	1	6
388.578	1	4
388.748	1	-1
388.919	1	13
389.090	1	9
389.261	1	6
389.431	1	6
389.602	1	5
389.773	1	-9
389.944	1	4
390.114	1	7
390.285	1	13
390.456	1	-2
390.627	1	10
390.798	1	5
390.968	1	5
391.139	1	0
391.310	1	11
391.481	1	6
391.651	1	5
391.822	1	0
391.993	1	4
392.164	1	-15
392.334	1	0
392.505	1	-5
392.676	1	6
392.847	1	13
393.017	1	6
393.188	1	-4
393.359	1	-3
393.530	1	1
393.700	1	11
393.871	1	6
394.042	1	18
394.213	1	16
394.383	1	10
394.554	1	11
394.725	1	-1
394.896	1	7
395.066	1	5
395.237	1	-6
395.408	1	6
395.579	1	6
395.749	1	-1
395.920	1	4
396.091	1	17
396.262	1	0
396.432	1	2
396.603	1	11
396.774	1	5
396.945	1	-7
397.115	1	-4
397.286	1	16
397.457	1	13
397.627	1	9
397.798	1	6
397.969	1	9
398.140	1	6
398.310	1	3
398.481	1	11
398.652	1	6
398.823	1	-2
398.993	1	13
399.164	1	-1
399.335	1	9
399.505	1	15
399.676	1	9
399.847	1	6
400.018	1	4
400.188	1	8
400.359	1	11
400.530	1	3
400.700	1	2
400.871	1	16
401.042	1	2
401.213	1	8
401.383	1	11
401.554	1	11
401.725	1	-1
401.895	1	-1
402.066	1	16
402.237	1	16
402.408	1	4
402.578	1	4
402.749	1	12
402.920	1	15
403.090	1	11
403.261	1	6
403.432	1	10
403.603	1	-7
403.773	1	7
403.944	1	11
404.115	1	6
404.285	1	12
404.456	1	6
404.627	1	-4
404.797	1	4
404.968	1	-3
405.139	1	16
405.310	1	8
405.480	1	12
405.651	1	6
405.822	1	17
405.992	1	7
406.163	1	7
406.334	1	8
406.504	1	2
406.675	1	7
406.846	1	5
407.016	1	-2
407.187	1	14
407.358	1	9
407.528	1	9
407.699	1	-5
407.870	1	9
408.041	1	-2
408.211	1	4
408.382	1	2
408.553	1	-2
408.723	1	2
408.894	1	2
409.065	1	9
409.235	1	4
409.406	1	-1
409.577	1	-1
409.747	1	13
409.918	1	0
410.089	1	-4
410.259	1	7
410.430	1	4
410.601	1	10
410.771	1	14
410.942	1	-4
411.113	1	14
411.283	1	5
411.454	1	7
411.625	1	5
411.795	1	-3
411.966	1	-4
412.137	1	3
412.307	1	13
412.478	1	12
412.649	1	1
412.819	1	-5
412.990	1	3
413.161	1	11
413.331	1	5
413.502	1	-9
413.672	1	4
413.843	1	12
414.014	1	22
414.184	1	6
414.355	1	6
414.526	1	2
414.696	1	4
414.867	1	8
415.038	1	1
415.208	1	-1
415.379	1	-1
415.550	1	13
415.720	1	1
415.891	1	15
416.062	1	6
416.232	1	14
416.403	1	5
416.573	1	1
416.744	1	0
416.915	1	4
417.085	1	1
417.256	1	8
417.427	1	8
417.597	1	3
417.768	1	13
417.939	1	15
418.109	1	-3
418.280	1	7
418.450	1	17
418.621	1	5
418.792	1	5
418.962	1	5
419.133	1	10
419.304	1	-5
419.474	1	-6
419.645	1	0
419.815	1	7
419.986	1	0
420.157	1	23
420.327	1	1
420.498	1	3
420.669	1	13
420.839	1	-1
421.010	1	6
421.180	1	-3
421.351	1	15
421.522	1	10
421.692	1	17
421.863	1	3
422.033	1	17
422.204	1	2
422.375	1	9
422.545	1	7
422.716	1	-4
422.886	1	9
423.057	1	-5
423.228	1	4
423.398	1	7
423.569	1	9
423.740	1	-7
423.910	1	12
424.081	1	1
424.251	1	8
424.422	1	0
424.593	1	6
424.763	1	0
424.934	1	13
425.104	1	3
425.275	1	16
425.445	1	12
425.616	1	10
425.787	1	8
425.957	1	2
426.128	1	17
426.298	1	3
426.469	1	-2
426.640	1	10
426.810	1	3
426.981	1	17
427.151	1	3
427.322	1	-2
427.493	1	6
427.663	1	2
427.834	1	-8
428.004	1	6
428.175	1	8
428.345	1	5
428.516	1	10
428.687	1	-3
428.857	1	0
429.028	1	3
429.198	1	8
429.369	1	6
429.540	1	7
429.710	1	10
429.881	1	11
430.051	1	2
430.222	1	2
430.392	1	4
430.563	1	1
430.734	1	15
430.904	1	4
431.075	1	9
431.245	1	7
431.416	1	-5
431.586	1	10
431.757	1	15
431.927	1	3
432.098	1	4
432.269	1	7
432.439	1	7
432.610	1	5
432.780	1	5
432.951	1	1
433.121	1	21
433.292	1	6
433.462	1	16
433.633	1	15
433.804	1	-10
433.974	1	3
434.145	1	-1
434.315	1	8
434.486	1	-10
434.656	1	11
434.827	1	6
434.997	1	19
435.168	1	-4
435.339	1	-4
435.509	1	8
435.680	1	8
435.850	1	4
436.021	1	11
436.191	1	11
436.362	1	14
436.532	1	1
436.703	1	17
436.873	1	7
437.044	1	4
437.214	1	9
437.385	1	10
437.556	1	9
437.726	1	0
437.897	1	2
438.067	1	-3
438.238	1	5
438.408	1	9
438.579	1	9
438.749	1	-7
438.920	1	5
439.090	1	2
439.261	1	4
439.431	1	3
439.602	1	4
439.772	1	4
439.943	1	8
440.113	1	10
440.284	1	11
440.455	1	11
440.625	1	-3
440.796	1	5
440.966	1	-1
441.137	1	6
441.307	1	3
441.478	1	7
441.648	1	5
441.819	1	13
441.989	1	-4
442.160	1	8
442.330	1	15
442.501	1	-1
442.671	1	1
442.842	1	9
443.012	1	4
443.183	1	13
443.353	1	4
443.524	1	1
443.694	1	5
443.865	1	7
444.035	1	4
444.206	1	2
444.376	1	12
444.547	1	2
444.717	1	17
444.888	1	0
445.058	1	8
445.229	1	4
445.399	1	3
445.570	1	1
445.740	1	7
445.911	1	9
446.081	1	10
446.252	1	-7
446.422	1	17
446.593	1	2
446.763	1	10
446.934	1	9
447.104	1	8
447.275	1	15
447.445	1	4
447.616	1	1
447.786	1	9
447.957	1	7
448.127	1	16
448.298	1	-7
448.468	1	11
448.639	1	-1
448.809	1	9
448.979	1	-2
449.150	1	6
449.320	1	4
449.491	1	6
449.661	1	9
449.832	1	0
450.002	1	4
450.173	1	10
450.343	1	6
450.514	1	-4
450.684	1	3
450.855	1	-1
451.025	1	2
451.196	1	7
451.366	1	2
451.537	1	-1
451.707	1	11
451.878	1	3
452.048	1	5
452.218	1	4
452.389	1	7
452.559	1	14
452.730	1	4
452.900	1	5
453.071	1	6
453.241	1	6
453.412	1	-2
453.582	1	1
453.753	1	3
453.923	1	8
454.093	1	16
454.264	1	-2
454.434	1	3
454.605	1	11
454.775	1	4
454.946	1	10
455.116	1	5
455.287	1	2
455.457	1	-2
455.628	1	11
455.798	1	7
455.968	1	1
456.139	1	0
456.309	1	14
456.480	1	6
456.650	1	16
456.821	1	14
456.991	1	1
457.161	1	2
457.332	1	-1
457.502	1	13
457.673	1	14
457.843	1	6
458.014	1	5
458.184	1	-2
458.355	1	-1
458.525	1	11
458.695	1	3
458.866	1	21
459.036	1	5
459.207	1	11
459.377	1	12
459.548	1	1
459.718	1	-8
459.888	1	7
460.059	1	13
460.229	1	14
460.400	1	9
460.570	1	3
460.740	1	-4
460.911	1	11
461.081	1	7
461.252	1	-2
461.422	1	5
461.593	1	8
461.763	1	8
461.933	1	12
462.104	1	6
462.274	1	-6
462.445	1	7
462.615	1	8
462.785	1	3
462.956	1	6
463.126	1	1
463.297	1	6
463.467	1	7
463.638	1	0
463.808	1	11
463.978	1	14
464.149	1	-2
464.319	1	18
464.490	1	5
464.660	1	8
464.830	1	3
465.001	1	7
465.171	1	0
465.342	1	-3
465.512	1	1
465.682	1	-5
465.853	1	-8
466.023	1	2
466.194	1	4
466.364	1	15
466.534	1	1
466.705	1	-2
466.875	1	3
467.045	1	5
467.216	1	6
467.386	1	12
467.557	1	3
467.727	1	6
467.897	1	4
468.068	1	-8
468.238	1	5
468.409	1	-7
468.579	1	7
468.749	1	5
468.920	1	14
469.090	1	4
469.260	1	10
469.431	1	10
469.601	1	-4
469.772	1	-15
469.942	1	10
470.112	1	5
470.283	1	11
470.453	1	11
470.623	1	2
470.794	1	12
470.964	1	10
471.135	1	7
471.305	1	4
471.475	1	0
471.646	1	8
471.816	1	4
471.986	1	13
472.157	1	11
472.327	1	13
472.497	1	6
472.668	1	1
472.838	1	4
473.009	1	12
473.179	1	6
473.349	1	7
473.520	1	2
473.690	1	19
473.860	1	17
474.031	1	7
474.201	1	8
474.371	1	7
474.542	1	14
474.712	1	1
474.882	1	-2
475.053	1	15
475.223	1	-7
475.394	1	5
475.564	1	-3
475.734	1	12
475.905	1	13
476.075	1	3
476.245	1	12
476.416	1	-4
476.586	1	2
476.756	1	-1
476.927	1	5
477.097	1	8
477.267	1	14
477.438	1	6
477.608	1	-2
477.778	1	3
477.949	1	5
478.119	1	16
478.289	1	-3
478.460	1	-5
478.630	1	13
478.800	1	9
478.971	1	6
479.141	1	1
479.311	1	5
479.482	1	12
479.652	1	3
479.822	1	-1
479.993	1	-5
480.163	1	13
480.333	1	8
480.504	1	-4
480.674	1	14
480.844	1	2
481.015	1	12
481.185	1	4
481.355	1	10
481.525	1	6
481.696	1	-3
481.866	1	3
482.036	1	3
482.207	1	15
482.377	1	10
482.547	1	1
482.718	1	-10
482.888	1	6
483.058	1	-3
483.229	1	0
483.399	1	12
483.569	1	2
483.740	1	-3
483.910	1	-5
484.080	1	1
484.250	1	-14
484.421	1	5
484.591	1	6
484.761	1	3
484.932	1	-1
485.102	1	6
485.272	1	0
485.443	1	1
485.613	1	10
485.783	1	6
485.953	1	11
486.124	1	2
486.294	1	7
486.464	1	-9
486.635	1	7
486.805	1	-5
486.975	1	10
487.146	1	-4
487.316	1	12
487.486	1	5
487.656	1	3
487.827	1	1
487.997	1	1
488.167	1	6
488.338	1	-1
488.508	1	5
488.678	1	5
488.848	1	6
489.019	1	6
489.189	1	3
489.359	1	0
489.529	1	4
489.700	1	-1
489.870	1	-8
490.040	1	4
490.211	1	2
490.381	1	1
490.551	1	2
490.721	1	7
490.892	1	3
491.062	1	0
491.232	1	1
491.402	1	10
491.573	1	-1
491.743	1	-5
491.913	1	-4
492.084	1	8
492.254	1	3
492.424	1	9
492.594	1	8
492.765	1	6
492.935	1	-4
493.105	1	14
493.275	1	1
493.446	1	-8
493.616	1	-6
493.786	1	4
493.956	1	4
494.127	1	12
494.297	1	3
494.467	1	9
494.637	1	8
494.808	1	12
494.978	1	2
495.148	1	4
495.318	1	10
495.489	1	-5
495.659	1	1
495.829	1	6
495.999	1	-4
496.170	1	-2
496.340	1	5
496.510	1	13
496.680	1	-1
496.851	1	3
497.021	1	-8
497.191	1	3
497.361	1	-7
497.532	1	-4
497.702	1	6
497.872	1	17
498.042	1	0
498.213	1	10
498.383	1	8
498.553	1	-2
498.723	1	-1
498.894	1	-3
499.064	1	1
499.234	1	4
499.404	1	-7
499.574	1	3
499.745	1	1
499.915	1	4
500.085	1	3
500.255	1	3
500.426	1	8
500.596	1	-11
500.766	1	-1
500.936	1	4
501.106	1	10
501.277	1	9
501.447	1	3
501.617	1	3
501.787	1	2
501.958	1	-1
502.128	1	-10
502.298	1	-9
502.468	1	6
502.638	1	1
502.809	1	-1
502.979	1	14
503.149	1	-1
503.319	1	10
503.489	1	-2
503.660	1	1
503.830	1	1
504.000	1	3
504.170	1	1
504.340	1	8
504.511	1	4
504.681	1	-6
504.851	1	5
505.021	1	10
505.192	1	-10
505.362	1	5
505.532	1	11
505.702	1	-3
505.872	1	7
506.043	1	6
506.213	1	6
506.383	1	0
506.553	1	4
506.723	1	9
506.893	1	-3
507.064	1	2
507.234	1	-3
507.404	1	3
507.574	1	-1
507.744	1	5
507.915	1	8
508.085	1	8
508.255	1	-3
508.425	1	-4
508.595	1	-2
508.766	1	-4
508.936	1	7
509.106	1	6
509.276	1	3
509.446	1	6
509.616	1	1
509.787	1	7
509.957	1	-2
510.127	1	5
510.297	1	-4
510.467	1	-11
510.638	1	7
510.808	1	3
510.978	1	-13
511.148	1	20
511.318	1	2
511.488	1	12
511.659	1	-2
511.829	1	4
511.999	1	7
512.169	1	-8
512.339	1	7
512.509	1	5
512.680	1	-5
512.850	1	0
513.020	1	0
513.190	1	-6
513.360	1	-2
513.530	1	-3
513.700	1	12
513.871	1	-1
514.041	1	-9
514.211	1	17
514.381	1	10
514.551	1	4
514.721	1	-1
514.892	1	4
515.062	1	3
515.232	1	1
515.402	1	-7
515.572	1	-1
515.742	1	6
515.912	1	2
516.083	1	4
516.253	1	9
516.423	1	6
516.593	1	3
516.763	1	-2
516.933	1	-10
517.104	1	-3
517.274	1	1
517.444	1	2
517.614	1	-1
517.784	1	11
517.954	1	14
518.124	1	-2
518.294	1	3
518.465	1	6
518.635	1	-7
518.805	1	10
518.975	1	3
519.145	1	3
519.315	1	0
519.485	1	-7
519.656	1	-1
519.826	1	5
519.996	1	-1
520.166	1	10
520.336	1	0
520.506	1	-14
520.676	1	6
520.846	1	1
521.017	1	-7
521.187	1	4
521.357	1	2
521.527	1	6
521.697	1	0
521.867	1	-8
522.037	1	-15
522.207	1	-1
522.377	1	5
522.548	1	-9
522.718	1	-3
522.888	1	10
523.058	1	1
523.228	1	9
523.398	1	0
523.568	1	2
523.738	1	-1
523.909	1	3
524.079	1	0
524.249	1	1
524.419	1	0
524.589	1	-2
524.759	1	10
524.929	1	4
525.099	1	0
525.269	1	4
525.439	1	-2
525.610	1	-1
525.780	1	-5
525.950	1	1
526.120	1	-1
526.290	1	-7
526.460	1	-3
526.630	1	8
526.800	1	-2
526.970	1	9
527.140	1	-2
527.311	1	-14
527.481	1	1
527.651	1	4
527.821	1	-5
527.991	1	0
528.161	1	6
528.331	1	9
528.501	1	-1
528.671	1	3
528.841	1	5
529.011	1	-6
529.181	1	0
529.352	1	-8
529.522	1	-12
529.692	1	-4
529.862	1	3
530.032	1	4
530.202	1	5
530.372	1	0
530.542	1	3
530.712	1	-6
530.882	1	-4
531.052	1	6
531.222	1	-9
531.392	1	6
531.563	1	3
531.733	1	2
531.903	1	3
532.073	1	-3
532.243	1	0
532.413	1	7
532.583	1	1
532.753	1	2
532.923	1	3
533.093	1	14
533.263	1	-10
533.433	1	7
533.603	1	2
533.773	1	-2
533.943	1	-1
534.113	1	9
534.284	1	0
534.454	1	-5
534.624	1	-2
534.794	1	-4
534.964	1	10
535.134	1	6
535.304	1	0
535.474	1	-14
535.644	1	1
535.814	1	-1
535.984	1	4
536.154	1	3
536.324	1	12
536.494	1	8
536.664	1	-1
536.834	1	-6
537.004	1	-6
537.174	1	7
537.344	1	1
537.514	1	-2
537.685	1	4
537.855	1	3
538.025	1	9
538.195	1	-1
538.365	1	2
538.535	1	-6
538.705	1	5
538.875	1	5
539.045	1	5
539.215	1	-20
539.385	1	6
539.555	1	2
539.725	1	-6
539.895	1	3
540.065	1	-10
540.235	1	-5
540.405	1	-5
540.575	1	-4
540.745	1	3
540.915	1	-3
541.085	1	-5
541.255	1	-7
541.425	1	-4
541.595	1	11
541.765	1	15
541.935	1	-7
542.105	1	-5
542.275	1	3
542.445	1	-7
542.615	1	1
542.785	1	-3
542.955	1	0
543.125	1	-7
543.295	1	-6
543.465	1	5
543.635	1	6
543.805	1	8
543.975	1	-11
544.145	1	2
544.315	1	-3
544.485	1	3
544.655	1	-2
544.825	1	1
544.995	1	-4
545.165	1	-1
545.335	1	1
545.505	1	-1
545.675	1	-3
545.845	1	2
546.015	1	0
546.185	1	-2
546.355	1	1
546.525	1	1
546.695	1	-1
546.865	1	9
547.035	1	6
547.205	1	12
547.375	1	0
547.545	1	14
547.715	1	6
547.885	1	7
548.055	1	-5
548.225	1	2
548.395	1	-2
548.565	1	8
548.735	1	4
548.905	1	-5
549.075	1	3
549.245	1	3
549.415	1	3
549.585	1	13
549.755	1	2
549.925	1	13
550.095	1	1
550.265	1	3
550.435	1	-10
550.605	1	-3
550.775	1	-3
550.945	1	15
551.115	1	3
551.285	1	2
551.455	1	-4
551.625	1	-1
551.795	1	-1
551.965	1	-5
552.135	1	7
552.305	1	-4
552.475	1	-9
552.645	1	4
552.815	1	-2
552.985	1	0
553.155	1	-4
553.325	1	6
553.495	1	4
553.665	1	8
553.835	1	-7
554.004	1	-5
554.174	1	-8
554.344	1	-6
554.514	1	1
554.684	1	-5
554.854	1	-8
555.024	1	3
555.194	1	4
555.364	1	5
555.534	1	-3
555.704	1	6
555.874	1	-8
556.044	1	7
556.214	1	-2
556.384	1	9
556.554	1	5
556.724	1	-14
556.894	1	-4
557.064	1	11
557.234	1	0
557.404	1	2
557.573	1	-10
557.743	1	5
557.913	1	-6
558.083	1	-3
558.253	1	-14
558.423	1	-11
558.593	1	2
558.763	1	-1
558.933	1	-2
559.103	1	8
559.273	1	-9
559.443	1	0
559.613	1	5
559.783	1	4
559.953	1	-4
560.122	1	2
560.292	1	10
560.462	1	-3
560.632	1	11
560.802	1	-1
560.972	1	5
561.142	1	3
561.312	1	7
561.482	1	20
561.652	1	-5
561.822	1	-15
561.992	1	-8
562.162	1	3
562.331	1	-2
562.501	1	-1
562.671	1	8
562.841	1	-7
563.011	1	-5
563.181	1	16
563.351	1	6
563.521	1	5
563.691	1	2
563.861	1	-1
564.031	1	-8
564.201	1	-12
564.370	1	-1
564.540	1	-11
564.710	1	6
564.880	1	0
565.050	1	-4
565.220	1	-6
565.390	1	-3
565.560	1	-7
565.730	1	-6
565.900	1	-9
566.069	1	-7
566.239	1	2
566.409	1	8
566.579	1	1
566.749	1	0
566.919	1	-4
567.089	1	5
567.259	1	2
567.429	1	4
567.599	1	-3
567.768	1	2
567.938	1	-4
568.108	1	8
568.278	1	-4
568.448	1	0
568.618	1	1
568.788	1	-12
568.958	1	-8
569.128	1	-4
569.297	1	-9
569.467	1	2
569.637	1	-8
569.807	1	7
569.977	1	11
570.147	1	-3
570.317	1	0
570.487	1	8
570.656	1	4
570.826	1	1
570.996	1	-2
571.166	1	-7
571.336	1	-3
571.506	1	-10
571.676	1	-11
571.846	1	-7
572.015	1	8
572.185	1	-8
572.355	1	9
572.525	1	-7
572.695	1	2
572.865	1	3
573.035	1	-9
573.205	1	-3
573.374	1	4
573.544	1	1
573.714	1	4
573.884	1	-3
574.054	1	-3
574.224	1	4
574.394	1	-7
574.563	1	11
574.733	1	-5
574.903	1	-4
575.073	1	-12
575.243	1	2
575.413	1	-4
575.583	1	2
575.752	1	-2
575.922	1	-3
576.092	1	-7
576.262	1	3
576.432	1	9
576.602	1	-6
576.772	1	-11
576.941	1	12
577.111	1	-8
577.281	1	22
577.451	1	-4
577.621	1	-1
577.791	1	-4
577.960	1	-9
578.130	1	-4
578.300	1	-2
578.470	1	1
578.640	1	-5
578.810	1	-4
578.979	1	-6
579.149	1	-3
579.319	1	-2
579.489	1	10
579.659	1	-8
579.829	1	0
579.998	1	-7
580.168	1	-3
580.338	1	-2
580.508	1	2
580.678	1	10
580.848	1	-2
581.017	1	-2
581.187	1	13
581.357	1	-15
581.527	1	-6
581.697	1	-13
581.867	1	4
582.036	1	-4
582.206	1	-1
582.376	1	1
582.546	1	11
582.716	1	-4
582.885	1	4
583.055	1	-9
583.225	1	-15
583.395	1	-8
583.565	1	-7
583.735	1	1
583.904	1	-1
584.074	1	3
584.244	1	11
584.414	1	-1
584.584	1	9
584.753	1	3
584.923	1	5
585.093	1	-5
585.263	1	-2
585.433	1	18
585.602	1	5
585.772	1	6
585.942	1	2
586.112	1	-4
586.282	1	2
586.451	1	-3
586.621	1	-11
586.791	1	7
586.961	1	11
587.131	1	0
587.300	1	4
587.470	1	-3
587.640	1	-4
587.810	1	-11
587.980	1	-11
588.149	1	7
588.319	1	6
588.489	1	-13
588.659	1	12
588.829	1	-10
588.998	1	4
589.168	1	9
589.338	1	5
589.508	1	10
589.677	1	-7
589.847	1	1
590.017	1	-1
590.187	1	-2
590.357	1	-5
590.526	1	15
590.696	1	-3
590.866	1	-5
591.036	1	0
591.205	1	-1
591.375	1	3
591.545	1	-6
591.715	1	-12
591.885	1	6
592.054	1	-5
592.224	1	-1
592.394	1	-1
592.564	1	0
592.733	1	8
592.903	1	-4
593.073	1	-15
593.243	1	2
593.412	1	4
593.582	1	0
593.752	1	-1
593.922	1	7
594.091	1	-3
594.261	1	4
594.431	1	-3
594.601	1	-6
594.771	1	4
594.940	1	-6
595.110	1	0
595.280	1	11
595.450	1	-5
595.619	1	4
595.789	1	6
595.959	1	-2
596.129	1	-11
596.298	1	-1
596.468	1	6
596.638	1	-11
596.808	1	-2
596.977	1	-15
597.147	1	4
597.317	1	-2
597.487	1	3
597.656	1	-3
597.826	1	0
597.996	1	1
598.166	1	10
598.335	1	-5
598.505	1	-13
598.675	1	-8
598.844	1	0
599.014	1	-1
599.184	1	6
599.354	1	3
599.523	1	-4
599.693	1	-3
599.863	1	9
600.033	1	-4
600.202	1	3
600.372	1	-2
600.542	1	15
600.712	1	6
600.881	1	0
601.051	1	7
601.221	1	8
601.390	1	0
601.560	1	2
601.730	1	1
601.900	1	0
602.069	1	-9
602.239	1	10
602.409	1	-1
602.578	1	6
602.748	1	6
602.918	1	10
603.088	1	11
603.257	1	-3
603.427	1	7
603.597	1	-6
603.767	1	6
603.936	1	6
604.106	1	-4
604.276	1	-2
604.445	1	-3
604.615	1	-1
604.785	1	7
604.954	1	2
605.124	1	-3
605.294	1	4
605.464	1	-6
605.633	1	13
605.803	1	11
605.973	1	5
606.142	1	3
606.312	1	7
606.482	1	-3
606.652	1	8
606.821	1	2
606.991	1	3
607.161	1	4
607.330	1	14
607.500	1	5
607.670	1	-3
607.839	1	-6
608.009	1	2
608.179	1	-5
608.348	1	-7
608.518	1	-4
608.688	1	6
608.858	1	-8
609.027	1	-1
609.197	1	12
609.367	1	-3
609.536	1	15
609.706	1	-4
609.876	1	-6
610.045	1	5
610.215	1	3
610.385	1	-5
610.554	1	-2
610.724	1	2
610.894	1	-3
611.063	1	8
611.233	1	-4
611.403	1	6
611.572	1	4
611.742	1	-1
611.912	1	3
612.081	1	2
612.251	1	1
612.421	1	-1
612.590	1	-10
612.760	1	11
612.930	1	-3
613.099	1	-2
613.269	1	-1
613.439	1	-1
613.608	1	3
613.778	1	-3
613.948	1	12
614.117	1	2
614.287	1	-10
614.457	1	3
614.626	1	13
614.796	1	6
614.966	1	1
615.135	1	0
615.305	1	3
615.475	1	1
615.644	1	-2
615.814	1	-1
615.984	1	7
616.153	1	-3
616.323	1	3
616.493	1	15
616.662	1	-4
616.832	1	6
617.002	1	3
617.171	1	3
617.341	1	3
617.511	1	1
617.680	1	-4
617.850	1	-8
618.019	1	4
618.189	1	5
618.359	1	-9
618.528	1	-2
618.698	1	-2
618.868	1	0
619.037	1	2
619.207	1	-2
619.377	1	5
619.546	1	-11
619.716	1	-5
619.885	1	6
620.055	1	11
620.225	1	1
620.394	1	-4
620.564	1	-5
620.734	1	0
620.903	1	1
621.073	1	1
621.242	1	2
621.412	1	5
621.582	1	-3
621.751	1	-1
621.921	1	16
622.091	1	-9
622.260	1	9
622.430	1	7
622.599	1	0
622.769	1	-3
622.939	1	-4
623.108	1	7
623.278	1	14
623.448	1	5
623.617	1	-2
623.787	1	12
623.956	1	4
624.126	1	-3
624.296	1	5
624.465	1	-4
624.635	1	8
624.804	1	-1
624.974	1	5
625.144	1	10
625.313	1	4
625.483	1	7
625.652	1	11
625.822	1	-5
625.992	1	13
626.161	1	-9
626.331	1	3
626.501	1	-4
626.670	1	-6
626.840	1	1
627.009	1	5
627.179	1	-9
627.348	1	3
627.518	1	2
627.688	1	5
627.857	1	1
628.027	1	-3
628.196	1	-2
628.366	1	-2
628.536	1	-1
628.705	1	-9
628.875	1	6
629.044	1	4
629.214	1	1
629.384	1	-1
629.553	1	-1
629.723	1	-6
629.892	1	-6
630.062	1	-16
630.232	1	6
630.401	1	1
630.571	1	-1
630.740	1	2
630.910	1	-6
631.079	1	2
631.249	1	9
631.419	1	5
631.588	1	-1
631.758	1	6
631.927	1	4
632.097	1	2
632.266	1	-7
632.436	1	1
632.606	1	-1
632.775	1	5
632.945	1	-6
633.114	1	0
633.284	1	2
633.453	1	16
633.623	1	15
633.793	1	1
633.962	1	-4
634.132	1	-6
634.301	1	4
634.471	1	1
634.640	1	-2
634.810	1	9
634.979	1	6
635.149	1	2
635.319	1	4
635.488	1	-9
635.658	1	9
635.827	1	-4
635.997	1	0
636.166	1	4
636.336	1	-2
636.505	1	3
636.675	1	-4
636.845	1	-10
637.014	1	-7
637.184	1	8
637.353	1	5
637.523	1	-3
637.692	1	9
637.862	1	-3
638.031	1	-11
638.201	1	-5
638.370	1	5
638.540	1	-3
638.710	1	6
638.879	1	6
639.049	1	-14
639.218	1	13
639.388	1	-1
639.557	1	7
639.727	1	12
639.896	1	-1
640.066	1	6
640.235	1	-11
640.405	1	-4
640.574	1	-2
640.744	1	-11
640.914	1	-3
641.083	1	-7
641.253	1	2
641.422	1	1
641.592	1	9
641.761	1	1
641.931	1	-5
642.100	1	0
642.270	1	-1
642.439	1	-4
642.609	1	2
642.778	1	-1
642.948	1	5
643.117	1	7
643.287	1	-6
643.456	1	13
643.626	1	8
643.795	1	-2
643.965	1	11
644.134	1	-1
644.304	1	8
644.473	1	-5
644.643	1	0
644.812	1	0
644.982	1	-2
645.151	1	10
645.321	1	-1
645.490	1	17
645.660	1	-2
645.829	1	-1
645.999	1	1
646.168	1	0
646.338	1	0
646.507	1	-2
646.677	1	-2
646.846	1	1
647.016	1	-1
647.185	1	5
647.355	1	6
647.524	1	-3
647.694	1	3
647.863	1	3
648.033	1	9
648.202	1	-3
648.372	1	1
648.541	1	-14
648.711	1	2
648.880	1	0
649.050	1	3
649.219	1	6
649.389	1	0
649.558	1	13
649.728	1	10
649.897	1	6
650.067	1	-3
650.236	1	-2
650.406	1	3
650.575	1	1
650.745	1	7
650.914	1	6
651.084	1	6
651.253	1	-1
651.423	1	6
651.592	1	0
651.762	1	5
651.931	1	5
652.101	1	5
652.270	1	-9
652.440	1	6
652.609	1	10
652.778	1	4
652.948	1	8
653.117	1	3
653.287	1	3
653.456	1	-2
653.626	1	10
653.795	1	2
653.965	1	-6
654.134	1	-8
654.304	1	9
654.473	1	2
654.643	1	1
654.812	1	11
654.982	1	0
655.151	1	-4
655.320	1	13
655.490	1	3
655.659	1	-7
655.829	1	-1
655.998	1	-13
656.168	1	0
656.337	1	3
656.507	1	-1
656.676	1	1
656.846	1	4
657.015	1	-9
657.184	1	1
657.354	1	9
657.523	1	-3
657.693	1	-5
657.862	1	2
658.032	1	4
658.201	1	12
658.371	1	-4
658.540	1	-7
658.709	1	-11
658.879	1	11
659.048	1	3
659.218	1	0
659.387	1	-3
659.557	1	0
659.726	1	0
659.895	1	4
660.065	1	3
660.234	1	-4
660.404	1	3
660.573	1	2
660.743	1	3
660.912	1	-10
661.081	1	-13
661.251	1	6
661.420	1	5
661.590	1	-2
661.759	1	-3
661.929	1	5
662.098	1	-9
662.267	1	2
662.437	1	6
662.606	1	2
662.776	1	-9
662.945	1	15
663.115	1	6
663.284	1	-5
663.453	1	1
663.623	1	5
663.792	1	-7
663.962	1	-7
664.131	1	-3
664.300	1	-18
664.470	1	0
664.639	1	0
664.809	1	2
664.978	1	7
665.148	1	-7
665.317	1	-2
665.486	1	-1
665.656	1	1
665.825	1	8
665.995	1	-1
666.164	1	7
666.333	1	4
666.503	1	1
666.672	1	6
666.842	1	-11
667.011	1	-5
667.180	1	4
667.350	1	-9
667.519	1	-2
667.689	1	2
667.858	1	2
668.027	1	2
668.197	1	13
668.366	1	-1
668.536	1	-4
668.705	1	-2
668.874	1	4
669.044	1	-1
669.213	1	-1
669.382	1	0
669.552	1	3
669.721	1	0
669.891	1	-8
670.060	1	-4
670.229	1	-2
670.399	1	-7
670.568	1	-8
670.738	1	2
670.907	1	6
671.076	1	2
671.246	1	-1
671.415	1	3
671.584	1	-5
671.754	1	1
671.923	1	1
672.093	1	-7
672.262	1	-3
672.431	1	5
672.601	1	10
672.770	1	2
672.939	1	1
673.109	1	4
673.278	1	1
673.448	1	2
673.617	1	1
673.786	1	0
