325.333	1	8
325.504	1	21
325.675	1	4
325.846	1	5
326.017	1	9
326.188	1	21
326.359	1	16
326.531	1	17
326.702	1	21
326.873	1	11
327.044	1	14
327.215	1	-1
327.386	1	13
327.557	1	18
327.728	1	10
327.899	1	10
328.070	1	21
328.241	1	20
328.412	1	10
328.583	1	7
328.754	1	6
328.926	1	13
329.097	1	6
329.268	1	-2
329.439	1	10
329.610	1	3
329.781	1	23
329.952	1	15
330.123	1	15
330.294	1	11
330.465	1	21
330.636	1	26
330.807	1	12
330.978	1	8
331.149	1	21
331.320	1	9
331.492	1	13
331.663	1	8
331.834	1	5
332.005	1	14
332.176	1	27
332.347	1	27
332.518	1	22
332.689	1	13
332.860	1	21
333.031	1	22
333.202	1	16
333.373	1	13
333.544	1	10
333.715	1	12
333.886	1	14
334.057	1	13
334.228	1	11
334.399	1	26
334.570	1	12
334.741	1	8
334.912	1	11
335.084	1	11
335.255	1	15
335.426	1	15
335.597	1	15
335.768	1	22
335.939	1	4
336.110	1	27
336.281	1	14
336.452	1	23
336.623	1	6
336.794	1	11
336.965	1	8
337.136	1	19
337.307	1	23
337.478	1	19
337.649	1	6
337.820	1	13
337.991	1	19
338.162	1	15
338.333	1	18
338.504	1	18
338.675	1	25
338.846	1	22
339.017	1	36
339.188	1	30
339.359	1	33
339.530	1	11
339.701	1	21
339.872	1	22
340.043	1	19
340.214	1	10
340.385	1	15
340.556	1	16
340.727	1	22
340.898	1	28
341.069	1	10
341.240	1	18
341.411	1	26
341.582	1	20
341.753	1	12
341.924	1	28
342.095	1	29
342.266	1	9
342.437	1	20
342.608	1	11
342.779	1	28
342.950	1	8
343.121	1	18
343.292	1	33
343.463	1	23
343.634	1	19
343.805	1	15
343.976	1	17
344.147	1	14
344.318	1	24
344.489	1	26
344.660	1	24
344.831	1	15
345.002	1	28
345.173	1	33
345.344	1	15
345.515	1	25
345.686	1	17
345.857	1	26
346.028	1	13
346.199	1	24
346.370	1	16
346.541	1	21
346.712	1	19
346.883	1	31
347.054	1	19
347.225	1	18
347.396	1	15
347.567	1	30
347.738	1	28
347.909	1	28
348.080	1	27
348.251	1	10
348.422	1	12
348.593	1	23
348.764	1	19
348.935	1	23
349.106	1	38
349.277	1	25
349.448	1	22
349.619	1	32
349.790	1	32
349.961	1	17
350.132	1	24
350.303	1	19
350.474	1	26
350.645	1	33
350.816	1	29
350.987	1	34
351.157	1	24
351.328	1	23
351.499	1	30
351.670	1	21
351.841	1	33
352.012	1	24
352.183	1	35
352.354	1	36
352.525	1	21
352.696	1	31
352.867	1	30
353.038	1	23
353.209	1	34
353.380	1	17
353.551	1	17
353.722	1	31
353.893	1	33
354.064	1	25
354.235	1	33
354.406	1	45
354.576	1	14
354.747	1	33
354.918	1	38
355.089	1	35
355.260	1	30
355.431	1	31
355.602	1	36
355.773	1	35
355.944	1	18
356.115	1	26
356.286	1	25
356.457	1	33
356.628	1	26
356.799	1	30
356.970	1	31
357.141	1	35
357.311	1	25
357.482	1	32
357.653	1	29
357.824	1	33
357.995	1	35
358.166	1	36
358.337	1	20
358.508	1	37
358.679	1	30
358.850	1	28
359.021	1	42
359.192	1	32
359.363	1	36
359.533	1	36
359.704	1	40
359.875	1	31
360.046	1	29
360.217	1	31
360.388	1	24
360.559	1	39
360.730	1	28
360.901	1	32
361.072	1	38
361.243	1	33
361.414	1	42
361.584	1	45
361.755	1	35
361.926	1	31
362.097	1	36
362.268	1	46
362.439	1	40
362.610	1	27
362.781	1	38
362.952	1	27
363.123	1	27
363.293	1	32
363.464	1	36
363.635	1	51
363.806	1	33
363.977	1	46
364.148	1	37
364.319	1	36
364.490	1	46
364.661	1	29
364.832	1	39
365.002	1	38
365.173	1	29
365.344	1	41
365.515	1	39
365.686	1	31
365.857	1	37
366.028	1	35
366.199	1	47
366.370	1	37
366.540	1	36
366.711	1	46
366.882	1	34
367.053	1	33
367.224	1	25
367.395	1	44
367.566	1	44
367.737	1	34
367.908	1	38
368.078	1	36
368.249	1	45
368.420	1	31
368.591	1	41
368.762	1	30
368.933	1	38
369.104	1	43
369.274	1	40
369.445	1	51
369.616	1	37
369.787	1	37
369.958	1	41
370.129	1	41
370.300	1	43
370.471	1	43
370.641	1	33
370.812	1	40
370.983	1	32
371.154	1	40
371.325	1	51
371.496	1	29
371.667	1	42
371.837	1	35
372.008	1	41
372.179	1	42
372.350	1	49
372.521	1	48
372.692	1	32
372.863	1	44
373.033	1	42
373.204	1	47
373.375	1	46
373.546	1	49
373.717	1	46
373.888	1	45
374.059	1	43
374.229	1	34
374.400	1	45
374.571	1	41
374.742	1	51
374.913	1	46
375.084	1	47
375.254	1	50
375.425	1	34
375.596	1	44
375.767	1	32
375.938	1	32
376.109	1	40
376.279	1	34
376.450	1	49
376.621	1	35
376.792	1	54
376.963	1	39
377.134	1	46
377.304	1	47
377.475	1	34
377.646	1	29
377.817	1	43
377.988	1	47
378.159	1	49
378.329	1	49
378.500	1	36
378.671	1	35
378.842	1	42
379.013	1	39
379.184	1	49
379.354	1	55
379.525	1	36
379.696	1	58
379.867	1	38
380.038	1	37
380.209	1	39
380.379	1	49
380.550	1	40
380.721	1	49
380.892	1	53
381.063	1	40
381.233	1	47
381.404	1	49
381.575	1	41
381.746	1	42
381.917	1	51
382.087	1	40
382.258	1	52
382.429	1	49
382.600	1	46
382.771	1	48
382.941	1	40
383.112	1	45
383.283	1	61
383.454	1	47
383.625	1	40
383.795	1	40
383.966	1	53
384.137	1	38
384.308	1	39
384.479	1	47
384.649	1	50
384.820	1	50
384.991	1	40
385.162	1	57
385.333	1	47
385.503	1	59
385.674	1	47
385.845	1	46
386.016	1	52
386.187	1	43
386.357	1	48
386.528	1	46
386.699	1	38
386.870	1	54
387.041	1	42
387.211	1	50
387.382	1	48
387.553	1	61
387.724	1	42
387.894	1	45
388.065	1	55
388.236	1	54
388.407	1	51
388.578	1	53
388.748	1	47
388.919	1	59
389.090	1	56
389.261	1	53
389.431	1	60
389.602	1	38
389.773	1	43
389.944	1	61
390.114	1	62
390.285	1	56
390.456	1	52
390.627	1	53
390.798	1	56
390.968	1	52
391.139	1	48
391.310	1	57
391.481	1	55
391.651	1	62
391.822	1	55
391.993	1	55
392.164	1	25
392.334	1	56
392.505	1	51
392.676	1	62
392.847	1	62
393.017	1	56
393.188	1	42
393.359	1	52
393.530	1	49
393.700	1	60
393.871	1	46
394.042	1	54
394.213	1	57
394.383	1	58
394.554	1	58
394.725	1	50
394.896	1	49
395.066	1	48
395.237	1	55
395.408	1	40
395.579	1	55
395.749	1	50
395.920	1	46
396.091	1	56
396.262	1	45
396.432	1	52
396.603	1	48
396.774	1	50
396.945	1	64
397.115	1	46
397.286	1	65
397.457	1	52
397.627	1	46
397.798	1	56
397.969	1	65
398.140	1	52
398.310	1	53
398.481	1	63
398.652	1	47
398.823	1	55
398.993	1	65
399.164	1	54
399.335	1	55
399.505	1	66
399.676	1	63
399.847	1	63
400.018	1	64
400.188	1	70
400.359	1	61
400.530	1	46
400.700	1	62
400.871	1	62
401.042	1	54
401.213	1	59
401.383	1	61
401.554	1	59
401.725	1	56
401.895	1	62
402.066	1	62
402.237	1	59
402.408	1	65
402.578	1	57
402.749	1	63
402.920	1	59
403.090	1	55
403.261	1	59
403.432	1	66
403.603	1	51
403.773	1	62
403.944	1	64
404.115	1	41
404.285	1	64
404.456	1	58
404.627	1	56
404.797	1	65
404.968	1	51
405.139	1	62
405.310	1	60
405.480	1	68
405.651	1	66
405.822	1	71
405.992	1	70
406.163	1	53
406.334	1	65
406.504	1	49
406.675	1	53
406.846	1	63
407.016	1	55
407.187	1	62
407.358	1	50
407.528	1	68
407.699	1	54
407.870	1	64
408.041	1	59
408.211	1	61
408.382	1	57
408.553	1	47
408.723	1	66
408.894	1	61
409.065	1	61
409.235	1	55
409.406	1	50
409.577	1	55
409.747	1	66
409.918	1	57
410.089	1	51
410.259	1	53
410.430	1	56
410.601	1	63
410.771	1	66
410.942	1	51
411.113	1	73
411.283	1	67
411.454	1	64
411.625	1	73
411.795	1	48
411.966	1	61
412.137	1	64
412.307	1	57
412.478	1	68
412.649	1	67
412.819	1	51
412.990	1	65
413.161	1	64
413.331	1	62
413.502	1	43
413.672	1	67
413.843	1	72
414.014	1	67
414.184	1	62
414.355	1	69
414.526	1	68
414.696	1	66
414.867	1	59
415.038	1	56
415.208	1	62
415.379	1	48
415.550	1	60
415.720	1	60
415.891	1	69
416.062	1	50
416.232	1	67
416.403	1	61
416.573	1	58
416.744	1	60
416.915	1	48
417.085	1	57
417.256	1	61
417.427	1	55
417.597	1	57
417.768	1	64
417.939	1	69
418.109	1	47
418.280	1	67
418.450	1	63
418.621	1	57
418.792	1	55
418.962	1	56
419.133	1	61
419.304	1	51
419.474	1	52
419.645	1	54
419.815	1	59
419.986	1	53
420.157	1	59
420.327	1	55
420.498	1	56
420.669	1	68
420.839	1	48
421.010	1	64
421.180	1	44
421.351	1	63
421.522	1	74
421.692	1	59
421.863	1	64
422.033	1	74
422.204	1	60
422.375	1	62
422.545	1	56
422.716	1	53
422.886	1	71
423.057	1	58
423.228	1	62
423.398	1	62
423.569	1	62
423.740	1	48
423.910	1	69
424.081	1	62
424.251	1	61
424.422	1	63
424.593	1	61
424.763	1	59
424.934	1	68
425.104	1	64
425.275	1	69
425.445	1	68
425.616	1	65
425.787	1	71
425.957	1	58
426.128	1	67
426.298	1	59
426.469	1	47
426.640	1	48
426.810	1	64
426.981	1	64
427.151	1	72
427.322	1	45
427.493	1	61
427.663	1	64
427.834	1	54
428.004	1	57
428.175	1	62
428.345	1	64
428.516	1	45
428.687	1	52
428.857	1	56
429.028	1	52
429.198	1	57
429.369	1	57
429.540	1	61
429.710	1	68
429.881	1	58
430.051	1	58
430.222	1	48
430.392	1	60
430.563	1	57
430.734	1	61
430.904	1	58
431.075	1	44
431.245	1	59
431.416	1	52
431.586	1	57
431.757	1	64
431.927	1	47
432.098	1	55
432.269	1	62
432.439	1	61
432.610	1	62
432.780	1	50
432.951	1	47
433.121	1	68
433.292	1	62
433.462	1	52
433.633	1	66
433.804	1	41
433.974	1	62
434.145	1	62
434.315	1	70
434.486	1	53
434.656	1	61
434.827	1	49
434.997	1	67
435.168	1	49
435.339	1	61
435.509	1	49
435.680	1	61
435.850	1	50
436.021	1	58
436.191	1	65
436.362	1	72
436.532	1	64
436.703	1	71
436.873	1	59
437.044	1	65
437.214	1	58
437.385	1	73
437.556	1	57
437.726	1	56
437.897	1	51
438.067	1	55
438.238	1	59
438.408	1	65
438.579	1	61
438.749	1	56
438.920	1	54
439.090	1	55
439.261	1	53
439.431	1	68
439.602	1	59
439.772	1	53
439.943	1	64
440.113	1	66
440.284	1	54
440.455	1	62
440.625	1	50
440.796	1	57
440.966	1	50
441.137	1	55
441.307	1	56
441.478	1	61
441.648	1	54
441.819	1	61
441.989	1	39
442.160	1	54
442.330	1	70
442.501	1	45
442.671	1	46
442.842	1	52
443.012	1	57
443.183	1	57
443.353	1	57
443.524	1	61
443.694	1	56
443.865	1	60
444.035	1	50
444.206	1	48
444.376	1	50
444.547	1	46
444.717	1	57
444.888	1	53
445.058	1	56
445.229	1	44
445.399	1	58
445.570	1	46
445.740	1	55
445.911	1	54
446.081	1	55
446.252	1	40
446.422	1	61
446.593	1	54
446.763	1	67
446.934	1	62
447.104	1	45
447.275	1	67
447.445	1	48
447.616	1	46
447.786	1	47
447.957	1	54
448.127	1	63
448.298	1	56
448.468	1	55
448.639	1	49
448.809	1	54
448.979	1	56
449.150	1	55
449.320	1	58
449.491	1	53
449.661	1	68
449.832	1	55
450.002	1	49
450.173	1	55
450.343	1	57
450.514	1	56
450.684	1	51
450.855	1	56
451.025	1	56
451.196	1	55
451.366	1	59
451.537	1	48
451.707	1	64
451.878	1	53
452.048	1	43
452.218	1	49
452.389	1	49
452.559	1	52
452.730	1	55
452.900	1	55
453.071	1	48
453.241	1	59
453.412	1	49
453.582	1	38
453.753	1	42
453.923	1	62
454.093	1	57
454.264	1	38
454.434	1	52
454.605	1	51
454.775	1	52
454.946	1	54
455.116	1	45
455.287	1	45
455.457	1	37
455.628	1	52
455.798	1	57
455.968	1	52
456.139	1	52
456.309	1	58
456.480	1	53
456.650	1	57
456.821	1	73
456.991	1	54
457.161	1	53
457.332	1	42
457.502	1	55
457.673	1	61
457.843	1	44
458.014	1	46
458.184	1	42
458.355	1	52
458.525	1	49
458.695	1	47
458.866	1	55
459.036	1	54
459.207	1	41
459.377	1	51
459.548	1	40
459.718	1	42
459.888	1	57
460.059	1	51
460.229	1	52
460.400	1	47
460.570	1	56
460.740	1	39
460.911	1	47
461.081	1	55
461.252	1	42
461.422	1	48
461.593	1	47
461.763	1	49
461.933	1	49
462.104	1	44
462.274	1	46
462.445	1	43
462.615	1	47
462.785	1	49
462.956	1	49
463.126	1	51
463.297	1	47
463.467	1	53
463.638	1	48
463.808	1	50
463.978	1	47
464.149	1	35
464.319	1	47
464.490	1	42
464.660	1	46
464.830	1	51
465.001	1	44
465.171	1	41
465.342	1	44
465.512	1	40
465.682	1	39
465.853	1	44
466.023	1	44
466.194	1	46
466.364	1	48
466.534	1	40
466.705	1	36
466.875	1	43
467.045	1	51
467.216	1	44
467.386	1	56
467.557	1	54
467.727	1	46
467.897	1	41
468.068	1	41
468.238	1	48
468.409	1	40
468.579	1	41
468.749	1	27
468.920	1	30
469.090	1	52
469.260	1	40
469.431	1	48
469.601	1	38
469.772	1	31
469.942	1	50
470.112	1	43
470.283	1	56
470.453	1	54
470.623	1	33
470.794	1	44
470.964	1	42
471.135	1	47
471.305	1	43
471.475	1	36
471.646	1	46
471.816	1	45
471.986	1	43
472.157	1	48
472.327	1	46
472.497	1	56
472.668	1	39
472.838	1	43
473.009	1	40
473.179	1	44
473.349	1	41
473.520	1	31
473.690	1	51
473.860	1	38
474.031	1	48
474.201	1	43
474.371	1	47
474.542	1	46
474.712	1	39
474.882	1	43
475.053	1	52
475.223	1	33
475.394	1	30
475.564	1	43
475.734	1	48
475.905	1	44
476.075	1	38
476.245	1	43
476.416	1	27
476.586	1	36
476.756	1	41
476.927	1	35
477.097	1	33
477.267	1	44
477.438	1	49
477.608	1	38
477.778	1	41
477.949	1	44
478.119	1	39
478.289	1	37
478.460	1	22
478.630	1	57
478.800	1	39
478.971	1	42
479.141	1	37
479.311	1	39
479.482	1	37
479.652	1	47
479.822	1	49
479.993	1	42
480.163	1	29
480.333	1	32
480.504	1	37
480.674	1	42
480.844	1	35
481.015	1	47
481.185	1	36
481.355	1	43
481.525	1	41
481.696	1	50
481.866	1	41
482.036	1	44
482.207	1	34
482.377	1	39
482.547	1	33
482.718	1	32
482.888	1	42
483.058	1	36
483.229	1	40
483.399	1	55
483.569	1	36
483.740	1	33
483.910	1	31
484.080	1	34
484.250	1	35
484.421	1	40
484.591	1	41
484.761	1	41
484.932	1	36
485.102	1	51
485.272	1	35
485.443	1	43
485.613	1	43
485.783	1	40
485.953	1	37
486.124	1	36
486.294	1	36
486.464	1	38
486.635	1	47
486.805	1	31
486.975	1	36
487.146	1	37
487.316	1	33
487.486	1	34
487.656	1	32
487.827	1	29
487.997	1	42
488.167	1	42
488.338	1	33
488.508	1	34
488.678	1	38
488.848	1	28
489.019	1	35
489.189	1	25
489.359	1	23
489.529	1	32
489.700	1	28
489.870	1	29
490.040	1	36
490.211	1	23
490.381	1	31
490.551	1	27
490.721	1	20
490.892	1	30
491.062	1	23
491.232	1	30
491.402	1	24
491.573	1	28
491.743	1	33
491.913	1	18
492.084	1	47
492.254	1	30
492.424	1	37
492.594	1	35
492.765	1	23
492.935	1	30
493.105	1	37
493.275	1	31
493.446	1	31
493.616	1	39
493.786	1	31
493.956	1	23
494.127	1	37
494.297	1	16
494.467	1	25
494.637	1	30
494.808	1	22
494.978	1	23
495.148	1	31
495.318	1	40
495.489	1	11
495.659	1	24
495.829	1	28
495.999	1	32
496.170	1	18
496.340	1	30
496.510	1	37
496.680	1	23
496.851	1	26
497.021	1	32
497.191	1	18
497.361	1	18
497.532	1	20
497.702	1	34
497.872	1	33
498.042	1	36
498.213	1	35
498.383	1	34
498.553	1	25
498.723	1	21
498.894	1	20
499.064	1	21
499.234	1	21
499.404	1	17
499.574	1	28
499.745	1	29
499.915	1	30
500.085	1	31
500.255	1	18
500.426	1	28
500.596	1	25
500.766	1	15
500.936	1	29
501.106	1	38
501.277	1	27
501.447	1	31
501.617	1	29
501.787	1	24
501.958	1	31
502.128	1	14
502.298	1	31
502.468	1	33
502.638	1	25
502.809	1	35
502.979	1	29
503.149	1	20
503.319	1	40
503.489	1	16
503.660	1	14
503.830	1	29
504.000	1	20
504.170	1	23
504.340	1	22
504.511	1	36
504.681	1	12
504.851	1	29
505.021	1	40
505.192	1	11
505.362	1	22
505.532	1	35
505.702	1	21
505.872	1	18
506.043	1	38
506.213	1	26
506.383	1	20
506.553	1	26
506.723	1	21
506.893	1	11
507.064	1	21
507.234	1	11
507.404	1	24
507.574	1	25
507.744	1	23
507.915	1	15
508.085	1	20
508.255	1	25
508.425	1	17
508.595	1	20
508.766	1	10
508.936	1	17
509.106	1	15
509.276	1	22
509.446	1	16
509.616	1	23
509.787	1	30
509.957	1	25
510.127	1	26
510.297	1	12
510.467	1	11
510.638	1	27
510.808	1	21
510.978	1	14
511.148	1	31
511.318	1	15
511.488	1	26
511.659	1	11
511.829	1	29
511.999	1	26
512.169	1	16
512.339	1	25
512.509	1	20
512.680	1	19
512.850	1	18
513.020	1	12
513.190	1	13
513.360	1	26
513.530	1	23
513.700	1	23
513.871	1	19
514.041	1	23
514.211	1	28
514.381	1	34
514.551	1	15
514.721	1	12
514.892	1	12
515.062	1	13
515.232	1	22
515.402	1	14
515.572	1	18
515.742	1	18
515.912	1	21
516.083	1	10
516.253	1	20
516.423	1	13
516.593	1	20
516.763	1	23
516.933	1	5
517.104	1	29
517.274	1	6
517.444	1	15
517.614	1	22
517.784	1	25
517.954	1	29
518.124	1	6
518.294	1	24
518.465	1	20
518.635	1	20
518.805	1	24
518.975	1	22
519.145	1	29
519.315	1	2
519.485	1	12
519.656	1	22
519.826	1	15
519.996	1	22
520.166	1	28
520.336	1	17
520.506	1	11
520.676	1	20
520.846	1	15
521.017	1	12
521.187	1	31
521.357	1	16
521.527	1	27
521.697	1	12
521.867	1	18
522.037	1	11
522.207	1	16
522.377	1	32
522.548	1	17
522.718	1	10
522.888	1	30
523.058	1	23
523.228	1	15
523.398	1	22
523.568	1	14
523.738	1	17
523.909	1	15
524.079	1	15
524.249	1	16
524.419	1	29
524.589	1	11
524.759	1	22
524.929	1	4
525.099	1	23
525.269	1	17
525.439	1	13
525.610	1	15
525.780	1	24
525.950	1	19
526.120	1	14
526.290	1	19
526.460	1	15
526.630	1	21
526.800	1	20
526.970	1	22
527.140	1	18
527.311	1	19
527.481	1	13
527.651	1	19
527.821	1	9
527.991	1	12
528.161	1	17
528.331	1	21
528.501	1	14
528.671	1	13
528.841	1	20
529.011	1	16
529.181	1	22
529.352	1	12
529.522	1	10
529.692	1	11
529.862	1	15
530.032	1	19
530.202	1	20
530.372	1	9
530.542	1	11
530.712	1	14
530.882	1	5
531.052	1	28
531.222	1	7
531.392	1	14
531.563	1	1
531.733	1	25
531.903	1	24
532.073	1	10
532.243	1	7
532.413	1	30
532.583	1	14
532.753	1	7
532.923	1	20
533.093	1	26
533.263	1	4
533.433	1	19
533.603	1	24
533.773	1	3
533.943	1	19
534.113	1	9
534.284	1	10
534.454	1	8
534.624	1	25
534.794	1	2
534.964	1	11
535.134	1	22
535.304	1	20
535.474	1	8
535.644	1	16
535.814	1	9
535.984	1	19
536.154	1	19
536.324	1	20
536.494	1	14
536.664	1	12
536.834	1	19
537.004	1	19
537.174	1	21
537.344	1	13
537.514	1	4
537.685	1	10
537.855	1	7
538.025	1	10
538.195	1	12
538.365	1	11
538.535	1	10
538.705	1	16
538.875	1	19
539.045	1	15
539.215	1	-1
539.385	1	17
539.555	1	15
539.725	1	3
539.895	1	20
540.065	1	17
540.235	1	18
540.405	1	16
540.575	1	8
540.745	1	11
540.915	1	11
541.085	1	10
541.255	1	16
541.425	1	5
541.595	1	18
541.765	1	24
541.935	1	14
542.105	1	17
542.275	1	16
542.445	1	11
542.615	1	17
542.785	1	9
542.955	1	10
543.125	1	3
543.295	1	3
543.465	1	14
543.635	1	8
543.805	1	21
543.975	1	9
544.145	1	12
544.315	1	0
544.485	1	13
544.655	1	19
544.825	1	17
544.995	1	23
545.165	1	17
545.335	1	3
545.505	1	20
545.675	1	6
545.845	1	11
546.015	1	13
546.185	1	12
546.355	1	14
546.525	1	10
546.695	1	13
546.865	1	19
547.035	1	4
547.205	1	14
547.375	1	16
547.545	1	18
547.715	1	19
547.885	1	19
548.055	1	9
548.225	1	11
548.395	1	0
548.565	1	18
548.735	1	8
548.905	1	-2
549.075	1	10
549.245	1	19
549.415	1	4
549.585	1	11
549.755	1	18
549.925	1	13
550.095	1	10
550.265	1	18
550.435	1	-3
550.605	1	10
550.775	1	7
550.945	1	13
551.115	1	8
551.285	1	7
551.455	1	13
551.625	1	-1
551.795	1	6
551.965	1	10
552.135	1	16
552.305	1	4
552.475	1	12
552.645	1	11
552.815	1	11
552.985	1	10
553.155	1	6
553.325	1	14
553.495	1	11
553.665	1	21
553.835	1	8
554.004	1	4
554.174	1	11
554.344	1	3
554.514	1	20
554.684	1	-2
554.854	1	7
555.024	1	11
555.194	1	8
555.364	1	14
555.534	1	6
555.704	1	18
555.874	1	7
556.044	1	13
556.214	1	7
556.384	1	14
556.554	1	8
556.724	1	16
556.894	1	3
557.064	1	24
557.234	1	18
557.404	1	9
557.573	1	6
557.743	1	6
557.913	1	3
558.083	1	13
558.253	1	6
558.423	1	10
558.593	1	17
558.763	1	7
558.933	1	3
559.103	1	16
559.273	1	2
559.443	1	11
559.613	1	16
559.783	1	18
559.953	1	16
560.122	1	6
560.292	1	8
560.462	1	-2
560.632	1	10
560.802	1	11
560.972	1	15
561.142	1	18
561.312	1	10
561.482	1	17
561.652	1	8
561.822	1	4
561.992	1	1
562.162	1	17
562.331	1	15
562.501	1	6
562.671	1	20
562.841	1	6
563.011	1	-6
563.181	1	12
563.351	1	15
563.521	1	13
563.691	1	17
563.861	1	6
564.031	1	9
564.201	1	7
564.370	1	11
564.540	1	7
564.710	1	7
564.880	1	9
565.050	1	8
565.220	1	8
565.390	1	13
565.560	1	11
565.730	1	15
565.900	1	0
566.069	1	19
566.239	1	9
566.409	1	11
566.579	1	5
566.749	1	16
566.919	1	10
567.089	1	21
567.259	1	16
567.429	1	14
567.599	1	4
567.768	1	11
567.938	1	1
568.108	1	10
568.278	1	2
568.448	1	7
568.618	1	11
568.788	1	0
568.958	1	3
569.128	1	-6
569.297	1	7
569.467	1	18
569.637	1	9
569.807	1	11
569.977	1	13
570.147	1	12
570.317	1	7
570.487	1	10
570.656	1	8
570.826	1	7
570.996	1	0
571.166	1	8
571.336	1	-1
571.506	1	4
571.676	1	-7
571.846	1	1
572.015	1	12
572.185	1	12
572.355	1	13
572.525	1	-1
572.695	1	5
572.865	1	19
573.035	1	3
573.205	1	-1
573.374	1	13
573.544	1	9
573.714	1	13
573.884	1	4
574.054	1	-5
574.224	1	5
574.394	1	16
574.563	1	17
574.733	1	21
574.903	1	12
575.073	1	3
575.243	1	9
575.413	1	1
575.583	1	7
575.752	1	10
575.922	1	10
576.092	1	1
576.262	1	9
576.432	1	13
576.602	1	5
576.772	1	5
576.941	1	24
577.111	1	10
577.281	1	20
577.451	1	3
577.621	1	-1
577.791	1	7
577.960	1	8
578.130	1	9
578.300	1	16
578.470	1	13
578.640	1	7
578.810	1	10
578.979	1	4
579.149	1	-1
579.319	1	12
579.489	1	10
579.659	1	3
579.829	1	14
579.998	1	6
580.168	1	11
580.338	1	13
580.508	1	4
580.678	1	27
580.848	1	0
581.017	1	3
581.187	1	10
581.357	1	11
581.527	1	3
581.697	1	-3
581.867	1	11
582.036	1	21
582.206	1	-2
582.376	1	9
582.546	1	20
582.716	1	-3
582.885	1	7
583.055	1	4
583.225	1	5
583.395	1	7
583.565	1	-2
583.735	1	10
583.904	1	14
584.074	1	7
584.244	1	9
584.414	1	7
584.584	1	10
584.753	1	18
584.923	1	14
585.093	1	1
585.263	1	2
585.433	1	22
585.602	1	7
585.772	1	4
585.942	1	3
586.112	1	8
586.282	1	9
586.451	1	2
586.621	1	-2
586.791	1	7
586.961	1	14
587.131	1	9
587.300	1	15
587.470	1	-2
587.640	1	-3
587.810	1	5
587.980	1	3
588.149	1	7
588.319	1	13
588.489	1	5
588.659	1	6
588.829	1	1
588.998	1	0
589.168	1	18
589.338	1	15
589.508	1	13
589.677	1	4
589.847	1	13
590.017	1	1
590.187	1	5
590.357	1	4
590.526	1	15
590.696	1	2
590.866	1	-4
591.036	1	-1
591.205	1	7
591.375	1	8
591.545	1	10
591.715	1	8
591.885	1	8
592.054	1	6
592.224	1	6
592.394	1	6
592.564	1	10
592.733	1	16
592.903	1	4
593.073	1	-7
593.243	1	4
593.412	1	-2
593.582	1	7
593.752	1	11
593.922	1	15
594.091	1	2
594.261	1	0
594.431	1	7
594.601	1	10
594.771	1	15
594.940	1	4
595.110	1	4
595.280	1	18
595.450	1	15
595.619	1	4
595.789	1	5
595.959	1	4
596.129	1	-5
596.298	1	15
596.468	1	13
596.638	1	11
596.808	1	-1
596.977	1	4
597.147	1	16
597.317	1	8
597.487	1	12
597.656	1	4
597.826	1	2
597.996	1	9
598.166	1	20
598.335	1	9
598.505	1	1
598.675	1	4
598.844	1	9
599.014	1	5
599.184	1	9
599.354	1	7
599.523	1	21
599.693	1	8
599.863	1	11
600.033	1	-1
600.202	1	15
600.372	1	8
600.542	1	11
600.712	1	11
600.881	1	12
601.051	1	12
601.221	1	20
601.390	1	8
601.560	1	17
601.730	1	6
601.900	1	17
602.069	1	-1
602.239	1	10
602.409	1	11
602.578	1	17
602.748	1	9
602.918	1	10
603.088	1	6
603.257	1	20
603.427	1	11
603.597	1	4
603.767	1	8
603.936	1	12
604.106	1	18
604.276	1	17
604.445	1	2
604.615	1	11
604.785	1	11
604.954	1	7
605.124	1	14
605.294	1	15
605.464	1	-1
605.633	1	16
605.803	1	8
605.973	1	19
606.142	1	9
606.312	1	10
606.482	1	1
606.652	1	14
606.821	1	3
606.991	1	3
607.161	1	15
607.330	1	4
607.500	1	15
607.670	1	12
607.839	1	8
608.009	1	7
608.179	1	7
608.348	1	9
608.518	1	8
608.688	1	16
608.858	1	17
609.027	1	1
609.197	1	18
609.367	1	8
609.536	1	17
609.706	1	16
609.876	1	0
610.045	1	20
610.215	1	10
610.385	1	12
610.554	1	8
610.724	1	10
610.894	1	12
611.063	1	14
611.233	1	10
611.403	1	7
611.572	1	16
611.742	1	7
611.912	1	19
612.081	1	11
612.251	1	13
612.421	1	15
612.590	1	1
612.760	1	20
612.930	1	9
613.099	1	5
613.269	1	15
613.439	1	2
613.608	1	14
613.778	1	9
613.948	1	13
614.117	1	11
614.287	1	7
614.457	1	18
614.626	1	18
614.796	1	10
614.966	1	10
615.135	1	9
615.305	1	12
615.475	1	2
615.644	1	18
615.814	1	10
615.984	1	14
616.153	1	12
616.323	1	3
616.493	1	19
616.662	1	3
616.832	1	20
617.002	1	2
617.171	1	13
617.341	1	5
617.511	1	4
617.680	1	11
617.850	1	16
618.019	1	19
618.189	1	6
618.359	1	2
618.528	1	2
618.698	1	16
618.868	1	10
619.037	1	9
619.207	1	14
619.377	1	10
619.546	1	1
619.716	1	8
619.885	1	6
620.055	1	16
620.225	1	19
620.394	1	11
620.564	1	1
620.734	1	7
620.903	1	13
621.073	1	13
621.242	1	-5
621.412	1	17
621.582	1	0
621.751	1	16
621.921	1	18
622.091	1	3
622.260	1	7
622.430	1	14
622.599	1	15
622.769	1	9
622.939	1	0
623.108	1	9
623.278	1	18
623.448	1	17
623.617	1	7
623.787	1	21
623.956	1	21
624.126	1	1
624.296	1	16
624.465	1	12
624.635	1	9
624.804	1	4
624.974	1	9
625.144	1	28
625.313	1	19
625.483	1	15
625.652	1	16
625.822	1	13
625.992	1	16
626.161	1	-5
626.331	1	5
626.501	1	8
626.670	1	10
626.840	1	14
627.009	1	11
627.179	1	5
627.348	1	25
627.518	1	6
627.688	1	10
627.857	1	11
628.027	1	12
628.196	1	2
628.366	1	11
628.536	1	14
628.705	1	5
628.875	1	15
629.044	1	13
629.214	1	9
629.384	1	12
629.553	1	8
629.723	1	4
629.892	1	3
630.062	1	-2
630.232	1	5
630.401	1	9
630.571	1	9
630.740	1	9
630.910	1	4
631.079	1	9
631.249	1	8
631.419	1	7
631.588	1	3
631.758	1	3
631.927	1	4
632.097	1	5
632.266	1	5
632.436	1	6
632.606	1	2
632.775	1	10
632.945	1	3
633.114	1	19
633.284	1	14
633.453	1	17
633.623	1	19
633.793	1	6
633.962	1	5
634.132	1	9
634.301	1	3
634.471	1	0
634.640	1	17
634.810	1	20
634.979	1	13
635.149	1	14
635.319	1	19
635.488	1	7
635.658	1	11
635.827	1	1
635.997	1	6
636.166	1	12
636.336	1	17
636.505	1	7
636.675	1	7
636.845	1	16
637.014	1	16
637.184	1	17
637.353	1	8
637.523	1	11
637.692	1	5
637.862	1	13
638.031	1	9
638.201	1	6
638.370	1	12
638.540	1	12
638.710	1	16
638.879	1	24
639.049	1	10
639.218	1	23
639.388	1	18
639.557	1	19
639.727	1	21
639.896	1	7
640.066	1	20
640.235	1	19
640.405	1	14
640.574	1	9
640.744	1	5
640.914	1	12
641.083	1	9
641.253	1	5
641.422	1	14
641.592	1	9
641.761	1	16
641.931	1	7
642.100	1	20
642.270	1	13
642.439	1	13
642.609	1	15
642.778	1	8
642.948	1	14
643.117	1	10
643.287	1	3
643.456	1	11
643.626	1	10
643.795	1	11
643.965	1	15
644.134	1	9
644.304	1	21
644.473	1	4
644.643	1	13
644.812	1	10
644.982	1	8
645.151	1	5
645.321	1	9
645.490	1	9
645.660	1	9
645.829	1	4
645.999	1	9
646.168	1	5
646.338	1	12
646.507	1	6
646.677	1	8
646.846	1	17
647.016	1	9
647.185	1	16
647.355	1	11
647.524	1	9
647.694	1	5
647.863	1	16
648.033	1	8
648.202	1	8
648.372	1	2
648.541	1	6
648.711	1	7
648.880	1	19
649.050	1	20
649.219	1	21
649.389	1	10
649.558	1	10
649.728	1	18
649.897	1	6
650.067	1	18
650.236	1	5
650.406	1	19
650.575	1	12
650.745	1	12
650.914	1	15
651.084	1	8
651.253	1	10
651.423	1	5
651.592	1	7
651.762	1	10
651.931	1	12
652.101	1	16
652.270	1	11
652.440	1	17
652.609	1	15
652.778	1	23
652.948	1	4
653.117	1	18
653.287	1	5
653.456	1	22
653.626	1	19
653.795	1	8
653.965	1	7
654.134	1	1
654.304	1	16
654.473	1	14
654.643	1	15
654.812	1	15
654.982	1	18
655.151	1	19
655.320	1	17
655.490	1	12
655.659	1	6
655.829	1	14
655.998	1	6
656.168	1	1
656.337	1	13
656.507	1	17
656.676	1	12
656.846	1	15
657.015	1	8
657.184	1	6
657.354	1	24
657.523	1	18
657.693	1	2
657.862	1	3
658.032	1	17
658.201	1	20
658.371	1	8
658.540	1	16
658.709	1	8
658.879	1	19
659.048	1	17
659.218	1	3
659.387	1	7
659.557	1	14
659.726	1	13
659.895	1	5
660.065	1	22
660.234	1	13
660.404	1	14
660.573	1	9
660.743	1	12
660.912	1	4
661.081	1	-1
661.251	1	18
661.420	1	18
661.590	1	17
661.759	1	14
661.929	1	13
662.098	1	18
662.267	1	10
662.437	1	9
662.606	1	22
662.776	1	-4
662.945	1	16
663.115	1	14
663.284	1	13
663.453	1	15
663.623	1	26
663.792	1	23
663.962	1	7
664.131	1	3
664.300	1	-3
664.470	1	15
664.639	1	13
664.809	1	14
664.978	1	12
665.148	1	15
665.317	1	7
665.486	1	23
665.656	1	13
665.825	1	12
665.995	1	13
666.164	1	16
666.333	1	12
666.503	1	10
666.672	1	15
666.842	1	1
667.011	1	9
667.180	1	17
667.350	1	15
667.519	1	15
667.689	1	12
667.858	1	17
668.027	1	19
668.197	1	21
668.366	1	5
668.536	1	7
668.705	1	16
668.874	1	22
669.044	1	9
669.213	1	3
669.382	1	20
669.552	1	13
669.721	1	12
669.891	1	8
670.060	1	23
670.229	1	2
670.399	1	7
670.568	1	9
670.738	1	10
670.907	1	9
671.076	1	5
671.246	1	2
671.415	1	21
671.584	1	13
671.754	1	14
671.923	1	11
672.093	1	12
672.262	1	16
672.431	1	15
672.601	1	13
672.770	1	12
672.939	1	11
673.109	1	13
673.278	1	6
673.448	1	11
673.617	1	7
673.786	1	13
