325.333	1	3
325.504	1	11
325.675	1	8
325.846	1	-1
326.017	1	-6
326.188	1	14
326.359	1	5
326.531	1	2
326.702	1	11
326.873	1	-4
327.044	1	15
327.215	1	1
327.386	1	7
327.557	1	6
327.728	1	3
327.899	1	4
328.070	1	5
328.241	1	-2
328.412	1	0
328.583	1	7
328.754	1	0
328.926	1	13
329.097	1	-4
329.268	1	-3
329.439	1	-4
329.610	1	12
329.781	1	3
329.952	1	6
330.123	1	3
330.294	1	6
330.465	1	4
330.636	1	9
330.807	1	11
330.978	1	0
331.149	1	3
331.320	1	4
331.492	1	8
331.663	1	0
331.834	1	-5
332.005	1	0
332.176	1	11
332.347	1	8
332.518	1	17
332.689	1	4
332.860	1	12
333.031	1	3
333.202	1	2
333.373	1	0
333.544	1	-2
333.715	1	7
333.886	1	-1
334.057	1	5
334.228	1	-5
334.399	1	14
334.570	1	-7
334.741	1	8
334.912	1	-3
335.084	1	-3
335.255	1	8
335.426	1	10
335.597	1	5
335.768	1	-2
335.939	1	-1
336.110	1	8
336.281	1	13
336.452	1	1
336.623	1	1
336.794	1	9
336.965	1	2
337.136	1	0
337.307	1	10
337.478	1	13
337.649	1	-2
337.820	1	-5
337.991	1	9
338.162	1	11
338.333	1	10
338.504	1	11
338.675	1	14
338.846	1	1
339.017	1	16
339.188	1	17
339.359	1	9
339.530	1	10
339.701	1	-2
339.872	1	12
340.043	1	-4
340.214	1	4
340.385	1	3
340.556	1	4
340.727	1	0
340.898	1	7
341.069	1	-13
341.240	1	6
341.411	1	18
341.582	1	15
341.753	1	-8
341.924	1	11
342.095	1	9
342.266	1	-7
342.437	1	-12
342.608	1	0
342.779	1	7
342.950	1	-6
343.121	1	6
343.292	1	9
343.463	1	6
343.634	1	2
343.805	1	-2
343.976	1	-6
344.147	1	4
344.318	1	-5
344.489	1	6
344.660	1	10
344.831	1	14
345.002	1	20
345.173	1	12
345.344	1	-3
345.515	1	14
345.686	1	-12
345.857	1	-3
346.028	1	-6
346.199	1	15
346.370	1	10
346.541	1	8
346.712	1	4
346.883	1	21
347.054	1	1
347.225	1	-6
347.396	1	3
347.567	1	5
347.738	1	5
347.909	1	4
348.080	1	5
348.251	1	5
348.422	1	-3
348.593	1	8
348.764	1	5
348.935	1	-1
349.106	1	8
349.277	1	0
349.448	1	4
349.619	1	4
349.790	1	7
349.961	1	3
350.132	1	4
350.303	1	1
350.474	1	10
350.645	1	13
350.816	1	4
350.987	1	6
351.157	1	14
351.328	1	5
351.499	1	10
351.670	1	2
351.841	1	3
352.012	1	10
352.183	1	8
352.354	1	4
352.525	1	7
352.696	1	4
352.867	1	12
353.038	1	2
353.209	1	4
353.380	1	1
353.551	1	0
353.722	1	10
353.893	1	9
354.064	1	11
354.235	1	9
354.406	1	1
354.576	1	0
354.747	1	8
354.918	1	16
355.089	1	5
355.260	1	15
355.431	1	4
355.602	1	4
355.773	1	5
355.944	1	8
356.115	1	12
356.286	1	8
356.457	1	2
356.628	1	-1
356.799	1	12
356.970	1	-2
357.141	1	9
357.311	1	3
357.482	1	9
357.653	1	7
357.824	1	8
357.995	1	11
358.166	1	14
358.337	1	1
358.508	1	0
358.679	1	-1
358.850	1	-4
359.021	1	8
359.192	1	8
359.363	1	-6
359.533	1	8
359.704	1	13
359.875	1	3
360.046	1	4
360.217	1	-5
360.388	1	-6
360.559	1	1
360.730	1	3
360.901	1	6
361.072	1	2
361.243	1	11
361.414	1	0
361.584	1	21
361.755	1	7
361.926	1	0
362.097	1	-2
362.268	1	13
362.439	1	13
362.610	1	-6
362.781	1	15
362.952	1	0
363.123	1	8
363.293	1	3
363.464	1	12
363.635	1	8
363.806	1	16
363.977	1	6
364.148	1	10
364.319	1	2
364.490	1	10
364.661	1	2
364.832	1	6
365.002	1	-4
365.173	1	2
365.344	1	7
365.515	1	11
365.686	1	10
365.857	1	6
366.028	1	10
366.199	1	7
366.370	1	7
366.540	1	5
366.711	1	8
366.882	1	2
367.053	1	1
367.224	1	5
367.395	1	2
367.566	1	8
367.737	1	9
367.908	1	-7
368.078	1	1
368.249	1	5
368.420	1	12
368.591	1	10
368.762	1	-7
368.933	1	14
369.104	1	-5
369.274	1	15
369.445	1	14
369.616	1	0
369.787	1	-2
369.958	1	15
370.129	1	5
370.300	1	14
370.471	1	6
370.641	1	-1
370.812	1	14
370.983	1	-1
371.154	1	7
371.325	1	6
371.496	1	5
371.667	1	14
371.837	1	6
372.008	1	19
372.179	1	3
372.350	1	19
372.521	1	-2
372.692	1	-1
372.863	1	9
373.033	1	15
373.204	1	17
373.375	1	10
373.546	1	16
373.717	1	3
373.888	1	5
374.059	1	3
374.229	1	15
374.400	1	10
374.571	1	12
374.742	1	7
374.913	1	13
375.084	1	17
375.254	1	5
375.425	1	4
375.596	1	3
375.767	1	8
375.938	1	-1
376.109	1	3
376.279	1	4
376.450	1	9
376.621	1	7
376.792	1	13
376.963	1	3
377.134	1	0
377.304	1	16
377.475	1	3
377.646	1	0
377.817	1	8
377.988	1	11
378.159	1	9
378.329	1	19
378.500	1	8
378.671	1	-3
378.842	1	3
379.013	1	4
379.184	1	13
379.354	1	17
379.525	1	-15
379.696	1	15
379.867	1	6
380.038	1	7
380.209	1	6
380.379	1	7
380.550	1	13
380.721	1	7
380.892	1	12
381.063	1	14
381.233	1	7
381.404	1	7
381.575	1	14
381.746	1	10
381.917	1	6
382.087	1	14
382.258	1	11
382.429	1	2
382.600	1	6
382.771	1	11
382.941	1	4
383.112	1	-2
383.283	1	6
383.454	1	7
383.625	1	12
383.795	1	-3
383.966	1	11
384.137	1	10
384.308	1	14
384.479	1	6
384.649	1	8
384.820	1	14
384.991	1	-5
385.162	1	11
385.333	1	9
385.503	1	14
385.674	1	18
385.845	1	8
386.016	1	7
386.187	1	7
386.357	1	12
386.528	1	4
386.699	1	11
386.870	1	9
387.041	1	20
387.211	1	10
387.382	1	5
387.553	1	3
387.724	1	4
387.894	1	12
388.065	1	22
388.236	1	12
388.407	1	20
388.578	1	13
388.748	1	11
388.919	1	17
389.090	1	12
389.261	1	16
389.431	1	15
389.602	1	0
389.773	1	-3
389.944	1	9
390.114	1	13
390.285	1	17
390.456	1	9
390.627	1	18
390.798	1	15
390.968	1	1
391.139	1	7
391.310	1	12
391.481	1	7
391.651	1	13
391.822	1	14
391.993	1	12
392.164	1	-4
392.334	1	2
392.505	1	2
392.676	1	11
392.847	1	15
393.017	1	5
393.188	1	8
393.359	1	0
393.530	1	15
393.700	1	14
393.871	1	9
394.042	1	20
394.213	1	18
394.383	1	19
394.554	1	19
394.725	1	4
394.896	1	8
395.066	1	18
395.237	1	4
395.408	1	7
395.579	1	16
395.749	1	4
395.920	1	10
396.091	1	10
396.262	1	-2
396.432	1	10
396.603	1	10
396.774	1	8
396.945	1	7
397.115	1	7
397.286	1	24
397.457	1	2
397.627	1	9
397.798	1	17
397.969	1	13
398.140	1	9
398.310	1	14
398.481	1	9
398.652	1	7
398.823	1	3
398.993	1	21
399.164	1	11
399.335	1	-2
399.505	1	21
399.676	1	14
399.847	1	19
400.018	1	14
400.188	1	13
400.359	1	16
400.530	1	4
400.700	1	8
400.871	1	16
401.042	1	13
401.213	1	18
401.383	1	6
401.554	1	15
401.725	1	7
401.895	1	2
402.066	1	18
402.237	1	24
402.408	1	19
402.578	1	11
402.749	1	13
402.920	1	16
403.090	1	17
403.261	1	16
403.432	1	16
403.603	1	6
403.773	1	20
403.944	1	15
404.115	1	7
404.285	1	24
404.456	1	12
404.627	1	8
404.797	1	19
404.968	1	5
405.139	1	9
405.310	1	21
405.480	1	19
405.651	1	26
405.822	1	29
405.992	1	12
406.163	1	10
406.334	1	21
406.504	1	7
406.675	1	16
406.846	1	14
407.016	1	1
407.187	1	13
407.358	1	21
407.528	1	16
407.699	1	8
407.870	1	11
408.041	1	12
408.211	1	13
408.382	1	8
408.553	1	1
408.723	1	20
408.894	1	16
409.065	1	27
409.235	1	10
409.406	1	13
409.577	1	17
409.747	1	13
409.918	1	11
410.089	1	3
410.259	1	11
410.430	1	12
410.601	1	14
410.771	1	19
410.942	1	1
411.113	1	31
411.283	1	10
411.454	1	15
411.625	1	10
411.795	1	2
411.966	1	5
412.137	1	9
412.307	1	4
412.478	1	16
412.649	1	7
412.819	1	9
412.990	1	16
413.161	1	19
413.331	1	19
413.502	1	0
413.672	1	8
413.843	1	14
414.014	1	22
414.184	1	11
414.355	1	5
414.526	1	13
414.696	1	14
414.867	1	14
415.038	1	6
415.208	1	12
415.379	1	17
415.550	1	21
415.720	1	6
415.891	1	32
416.062	1	4
416.232	1	10
416.403	1	7
416.573	1	11
416.744	1	17
416.915	1	13
417.085	1	10
417.256	1	18
417.427	1	13
417.597	1	25
417.768	1	16
417.939	1	17
418.109	1	1
418.280	1	17
418.450	1	19
418.621	1	13
418.792	1	16
418.962	1	4
419.133	1	19
419.304	1	7
419.474	1	12
419.645	1	6
419.815	1	10
419.986	1	11
420.157	1	29
420.327	1	17
420.498	1	15
420.669	1	18
420.839	1	14
421.010	1	16
421.180	1	11
421.351	1	21
421.522	1	26
421.692	1	14
421.863	1	17
422.033	1	23
422.204	1	11
422.375	1	14
422.545	1	13
422.716	1	7
422.886	1	24
423.057	1	0
423.228	1	21
423.398	1	18
423.569	1	11
423.740	1	4
423.910	1	27
424.081	1	19
424.251	1	11
424.422	1	3
424.593	1	13
424.763	1	8
424.934	1	18
425.104	1	10
425.275	1	15
425.445	1	18
425.616	1	14
425.787	1	14
425.957	1	17
426.128	1	18
426.298	1	13
426.469	1	10
426.640	1	8
426.810	1	16
426.981	1	19
427.151	1	11
427.322	1	5
427.493	1	4
427.663	1	9
427.834	1	19
428.004	1	15
428.175	1	8
428.345	1	15
428.516	1	15
428.687	1	13
428.857	1	17
429.028	1	17
429.198	1	17
429.369	1	11
429.540	1	14
429.710	1	13
429.881	1	25
430.051	1	3
430.222	1	18
430.392	1	12
430.563	1	16
430.734	1	14
430.904	1	14
431.075	1	7
431.245	1	9
431.416	1	0
431.586	1	8
431.757	1	25
431.927	1	3
432.098	1	17
432.269	1	24
432.439	1	18
432.610	1	11
432.780	1	15
432.951	1	17
433.121	1	17
433.292	1	22
433.462	1	19
433.633	1	20
433.804	1	9
433.974	1	21
434.145	1	7
434.315	1	19
434.486	1	-1
434.656	1	16
434.827	1	10
434.997	1	26
435.168	1	13
435.339	1	13
435.509	1	17
435.680	1	17
435.850	1	12
436.021	1	17
436.191	1	22
436.362	1	27
436.532	1	18
436.703	1	11
436.873	1	11
437.044	1	14
437.214	1	15
437.385	1	26
437.556	1	6
437.726	1	12
437.897	1	6
438.067	1	12
438.238	1	24
438.408	1	15
438.579	1	16
438.749	1	6
438.920	1	14
439.090	1	23
439.261	1	9
439.431	1	12
439.602	1	10
439.772	1	17
439.943	1	12
440.113	1	12
440.284	1	17
440.455	1	22
440.625	1	14
440.796	1	10
440.966	1	12
441.137	1	14
441.307	1	11
441.478	1	22
441.648	1	16
441.819	1	20
441.989	1	6
442.160	1	19
442.330	1	14
442.501	1	8
442.671	1	9
442.842	1	11
443.012	1	1
443.183	1	9
443.353	1	18
443.524	1	15
443.694	1	12
443.865	1	10
444.035	1	15
444.206	1	4
444.376	1	28
444.547	1	8
444.717	1	17
444.888	1	15
445.058	1	17
445.229	1	12
445.399	1	7
445.570	1	8
445.740	1	26
445.911	1	20
446.081	1	9
446.252	1	4
446.422	1	20
446.593	1	14
446.763	1	18
446.934	1	24
447.104	1	13
447.275	1	12
447.445	1	9
447.616	1	7
447.786	1	13
447.957	1	4
448.127	1	20
448.298	1	22
448.468	1	21
448.639	1	11
448.809	1	6
448.979	1	16
449.150	1	9
449.320	1	15
449.491	1	9
449.661	1	25
449.832	1	15
450.002	1	16
450.173	1	5
450.343	1	17
450.514	1	12
450.684	1	12
450.855	1	9
451.025	1	14
451.196	1	20
451.366	1	6
451.537	1	10
451.707	1	18
451.878	1	10
452.048	1	2
452.218	1	8
452.389	1	9
452.559	1	20
452.730	1	19
452.900	1	16
453.071	1	13
453.241	1	11
453.412	1	1
453.582	1	1
453.753	1	10
453.923	1	17
454.093	1	19
454.264	1	18
454.434	1	19
454.605	1	12
454.775	1	7
454.946	1	16
455.116	1	6
455.287	1	16
455.457	1	7
455.628	1	3
455.798	1	12
455.968	1	13
456.139	1	19
456.309	1	16
456.480	1	3
456.650	1	22
456.821	1	21
456.991	1	5
457.161	1	10
457.332	1	9
457.502	1	19
457.673	1	15
457.843	1	17
458.014	1	5
458.184	1	12
458.355	1	14
458.525	1	13
458.695	1	6
458.866	1	19
459.036	1	19
459.207	1	16
459.377	1	20
459.548	1	3
459.718	1	21
459.888	1	27
460.059	1	18
460.229	1	14
460.400	1	9
460.570	1	20
460.740	1	7
460.911	1	6
461.081	1	19
461.252	1	10
461.422	1	10
461.593	1	16
461.763	1	15
461.933	1	12
462.104	1	5
462.274	1	5
462.445	1	11
462.615	1	13
462.785	1	6
462.956	1	16
463.126	1	4
463.297	1	17
463.467	1	23
463.638	1	12
463.808	1	20
463.978	1	15
464.149	1	4
464.319	1	13
464.490	1	22
464.660	1	10
464.830	1	10
465.001	1	5
465.171	1	10
465.342	1	8
465.512	1	12
465.682	1	10
465.853	1	1
466.023	1	10
466.194	1	14
466.364	1	14
466.534	1	10
466.705	1	5
466.875	1	16
467.045	1	10
467.216	1	7
467.386	1	10
467.557	1	1
467.727	1	12
467.897	1	2
468.068	1	1
468.238	1	23
468.409	1	-2
468.579	1	15
468.749	1	12
468.920	1	15
469.090	1	12
469.260	1	18
469.431	1	15
469.601	1	3
469.772	1	2
469.942	1	21
470.112	1	8
470.283	1	13
470.453	1	19
470.623	1	9
470.794	1	13
470.964	1	17
471.135	1	21
471.305	1	10
471.475	1	6
471.646	1	8
471.816	1	7
471.986	1	10
472.157	1	16
472.327	1	14
472.497	1	16
472.668	1	5
472.838	1	12
473.009	1	15
473.179	1	13
473.349	1	15
473.520	1	8
473.690	1	15
473.860	1	6
474.031	1	15
474.201	1	2
474.371	1	17
474.542	1	16
474.712	1	13
474.882	1	6
475.053	1	14
475.223	1	-4
475.394	1	5
475.564	1	10
475.734	1	19
475.905	1	4
476.075	1	0
476.245	1	15
476.416	1	-4
476.586	1	12
476.756	1	1
476.927	1	3
477.097	1	8
477.267	1	16
477.438	1	10
477.608	1	2
477.778	1	5
477.949	1	6
478.119	1	13
478.289	1	-11
478.460	1	0
478.630	1	15
478.800	1	16
478.971	1	15
479.141	1	5
479.311	1	16
479.482	1	9
479.652	1	12
479.822	1	15
479.993	1	11
480.163	1	14
480.333	1	16
480.504	1	3
480.674	1	5
480.844	1	6
481.015	1	7
481.185	1	5
481.355	1	11
481.525	1	6
481.696	1	7
481.866	1	8
482.036	1	5
482.207	1	11
482.377	1	12
482.547	1	8
482.718	1	0
482.888	1	16
483.058	1	4
483.229	1	6
483.399	1	11
483.569	1	6
483.740	1	9
483.910	1	3
484.080	1	0
484.250	1	4
484.421	1	7
484.591	1	12
484.761	1	13
484.932	1	10
485.102	1	15
485.272	1	9
485.443	1	8
485.613	1	14
485.783	1	16
485.953	1	14
486.124	1	7
486.294	1	5
486.464	1	-4
486.635	1	8
486.805	1	8
486.975	1	2
487.146	1	4
487.316	1	14
487.486	1	10
487.656	1	8
487.827	1	1
487.997	1	-2
488.167	1	9
488.338	1	-3
488.508	1	8
488.678	1	7
488.848	1	3
489.019	1	10
489.189	1	3
489.359	1	10
489.529	1	4
489.700	1	12
489.870	1	-3
490.040	1	5
490.211	1	2
490.381	1	2
490.551	1	5
490.721	1	10
490.892	1	13
491.062	1	3
491.232	1	-4
491.402	1	7
491.573	1	-3
491.743	1	6
491.913	1	0
492.084	1	19
492.254	1	10
492.424	1	12
492.594	1	17
492.765	1	3
492.935	1	5
493.105	1	8
493.275	1	5
493.446	1	-2
493.616	1	10
493.786	1	6
493.956	1	8
494.127	1	22
494.297	1	6
494.467	1	6
494.637	1	8
494.808	1	5
494.978	1	11
495.148	1	-2
495.318	1	13
495.489	1	-7
495.659	1	10
495.829	1	-2
495.999	1	3
496.170	1	5
496.340	1	8
496.510	1	11
496.680	1	3
496.851	1	10
497.021	1	-1
497.191	1	5
497.361	1	5
497.532	1	6
497.702	1	12
497.872	1	18
498.042	1	7
498.213	1	15
498.383	1	18
498.553	1	-1
498.723	1	7
498.894	1	2
499.064	1	18
499.234	1	-5
499.404	1	0
499.574	1	6
499.745	1	10
499.915	1	12
500.085	1	-3
500.255	1	8
500.426	1	7
500.596	1	2
500.766	1	0
500.936	1	11
501.106	1	15
501.277	1	7
501.447	1	9
501.617	1	10
501.787	1	3
501.958	1	8
502.128	1	-7
502.298	1	7
502.468	1	11
502.638	1	7
502.809	1	9
502.979	1	22
503.149	1	-6
503.319	1	15
503.489	1	3
503.660	1	-4
503.830	1	5
504.000	1	13
504.170	1	15
504.340	1	10
504.511	1	0
504.681	1	-5
504.851	1	2
505.021	1	13
505.192	1	0
505.362	1	7
505.532	1	13
505.702	1	-1
505.872	1	6
506.043	1	6
506.213	1	12
506.383	1	0
506.553	1	15
506.723	1	5
506.893	1	4
507.064	1	-10
507.234	1	5
507.404	1	1
507.574	1	2
507.744	1	4
507.915	1	8
508.085	1	-6
508.255	1	7
508.425	1	4
508.595	1	0
508.766	1	-5
508.936	1	4
509.106	1	9
509.276	1	5
509.446	1	6
509.616	1	1
509.787	1	8
509.957	1	9
510.127	1	16
510.297	1	5
510.467	1	-8
510.638	1	13
510.808	1	1
510.978	1	1
511.148	1	12
511.318	1	11
511.488	1	11
511.659	1	2
511.829	1	5
511.999	1	7
512.169	1	1
512.339	1	16
512.509	1	10
512.680	1	0
512.850	1	10
513.020	1	-1
513.190	1	2
513.360	1	10
513.530	1	6
513.700	1	10
513.871	1	9
514.041	1	6
514.211	1	15
514.381	1	11
514.551	1	1
514.721	1	8
514.892	1	11
515.062	1	6
515.232	1	2
515.402	1	1
515.572	1	-1
515.742	1	3
515.912	1	7
516.083	1	5
516.253	1	17
516.423	1	5
516.593	1	10
516.763	1	2
516.933	1	-7
517.104	1	-6
517.274	1	2
517.444	1	0
517.614	1	2
517.784	1	9
517.954	1	9
518.124	1	-4
518.294	1	9
518.465	1	1
518.635	1	-3
518.805	1	14
518.975	1	2
519.145	1	10
519.315	1	3
519.485	1	-4
519.656	1	8
519.826	1	11
519.996	1	7
520.166	1	5
520.336	1	1
520.506	1	-7
520.676	1	-2
520.846	1	4
521.017	1	9
521.187	1	9
521.357	1	3
521.527	1	0
521.697	1	14
521.867	1	8
522.037	1	-1
522.207	1	4
522.377	1	-5
522.548	1	6
522.718	1	2
522.888	1	5
523.058	1	3
523.228	1	14
523.398	1	6
523.568	1	-4
523.738	1	7
523.909	1	5
524.079	1	-3
524.249	1	-2
524.419	1	6
524.589	1	5
524.759	1	11
524.929	1	-3
525.099	1	3
525.269	1	8
525.439	1	1
525.610	1	7
525.780	1	1
525.950	1	2
526.120	1	-2
526.290	1	-1
526.460	1	5
526.630	1	6
526.800	1	11
526.970	1	12
527.140	1	-1
527.311	1	-2
527.481	1	8
527.651	1	5
527.821	1	-4
527.991	1	12
528.161	1	8
528.331	1	21
528.501	1	7
528.671	1	5
528.841	1	9
529.011	1	2
529.181	1	5
529.352	1	-1
529.522	1	-4
529.692	1	10
529.862	1	4
530.032	1	13
530.202	1	7
530.372	1	5
530.542	1	-4
530.712	1	-1
530.882	1	4
531.052	1	8
531.222	1	-5
531.392	1	2
531.563	1	11
531.733	1	9
531.903	1	12
532.073	1	1
532.243	1	4
532.413	1	10
532.583	1	3
532.753	1	5
532.923	1	3
533.093	1	7
533.263	1	-6
533.433	1	7
533.603	1	14
533.773	1	3
533.943	1	4
534.113	1	-2
534.284	1	-4
534.454	1	-1
534.624	1	-2
534.794	1	-4
534.964	1	-1
535.134	1	12
535.304	1	8
535.474	1	-2
535.644	1	-4
535.814	1	3
535.984	1	14
536.154	1	0
536.324	1	18
536.494	1	9
536.664	1	0
536.834	1	0
537.004	1	9
537.174	1	6
537.344	1	10
537.514	1	6
537.685	1	-4
537.855	1	-1
538.025	1	6
538.195	1	-3
538.365	1	8
538.535	1	-14
538.705	1	11
538.875	1	9
539.045	1	5
539.215	1	-16
539.385	1	0
539.555	1	10
539.725	1	-3
539.895	1	13
540.065	1	-3
540.235	1	-1
540.405	1	2
540.575	1	6
540.745	1	-1
540.915	1	5
541.085	1	-6
541.255	1	-9
541.425	1	10
541.595	1	6
541.765	1	13
541.935	1	-8
542.105	1	7
542.275	1	-2
542.445	1	7
542.615	1	8
542.785	1	-1
542.955	1	-3
543.125	1	-2
543.295	1	-8
543.465	1	10
543.635	1	2
543.805	1	7
543.975	1	-7
544.145	1	6
544.315	1	5
544.485	1	-2
544.655	1	10
544.825	1	8
544.995	1	13
545.165	1	-1
545.335	1	-5
545.505	1	11
545.675	1	-3
545.845	1	5
546.015	1	2
546.185	1	9
546.355	1	5
546.525	1	2
546.695	1	3
546.865	1	11
547.035	1	4
547.205	1	7
547.375	1	5
547.545	1	8
547.715	1	8
547.885	1	3
548.055	1	-5
548.225	1	11
548.395	1	-9
548.565	1	10
548.735	1	5
548.905	1	0
549.075	1	13
549.245	1	-5
549.415	1	-3
549.585	1	10
549.755	1	4
549.925	1	17
550.095	1	-5
550.265	1	2
550.435	1	-17
550.605	1	-2
550.775	1	0
550.945	1	15
551.115	1	7
551.285	1	2
551.455	1	4
551.625	1	-3
551.795	1	6
551.965	1	5
552.135	1	1
552.305	1	-3
552.475	1	0
552.645	1	1
552.815	1	1
552.985	1	-1
553.155	1	1
553.325	1	12
553.495	1	2
553.665	1	3
553.835	1	4
554.004	1	-3
554.174	1	-1
554.344	1	-4
554.514	1	13
554.684	1	0
554.854	1	-5
555.024	1	-2
555.194	1	-1
555.364	1	6
555.534	1	-2
555.704	1	7
555.874	1	1
556.044	1	7
556.214	1	4
556.384	1	11
556.554	1	8
556.724	1	3
556.894	1	1
557.064	1	1
557.234	1	-9
557.404	1	-8
557.573	1	-3
557.743	1	-2
557.913	1	-1
558.083	1	12
558.253	1	0
558.423	1	-2
558.593	1	15
558.763	1	1
558.933	1	0
559.103	1	10
559.273	1	1
559.443	1	9
559.613	1	5
559.783	1	0
559.953	1	16
560.122	1	3
560.292	1	-2
560.462	1	-6
560.632	1	12
560.802	1	2
560.972	1	6
561.142	1	2
561.312	1	9
561.482	1	14
561.652	1	6
561.822	1	-8
561.992	1	-10
562.162	1	11
562.331	1	3
562.501	1	-5
562.671	1	8
562.841	1	-3
563.011	1	0
563.181	1	1
563.351	1	3
563.521	1	5
563.691	1	9
563.861	1	-6
564.031	1	-7
564.201	1	-4
564.370	1	1
564.540	1	-3
564.710	1	9
564.880	1	12
565.050	1	-1
565.220	1	3
565.390	1	4
565.560	1	1
565.730	1	3
565.900	1	1
566.069	1	-2
566.239	1	10
566.409	1	6
566.579	1	8
566.749	1	6
566.919	1	-4
567.089	1	9
567.259	1	6
567.429	1	0
567.599	1	-1
567.768	1	-3
567.938	1	-2
568.108	1	6
568.278	1	-5
568.448	1	0
568.618	1	6
568.788	1	-16
568.958	1	-3
569.128	1	-12
569.297	1	-3
569.467	1	5
569.637	1	2
569.807	1	5
569.977	1	3
570.147	1	-3
570.317	1	6
570.487	1	8
570.656	1	3
570.826	1	-3
570.996	1	1
571.166	1	-2
571.336	1	-6
571.506	1	4
571.676	1	-3
571.846	1	-5
572.015	1	2
572.185	1	-3
572.355	1	7
572.525	1	-15
572.695	1	6
572.865	1	1
573.035	1	-14
573.205	1	-3
573.374	1	4
573.544	1	-6
573.714	1	-1
573.884	1	6
574.054	1	-2
574.224	1	2
574.394	1	-6
574.563	1	6
574.733	1	12
574.903	1	-1
575.073	1	1
575.243	1	-2
575.413	1	4
575.583	1	-2
575.752	1	4
575.922	1	3
576.092	1	0
576.262	1	7
576.432	1	13
576.602	1	2
576.772	1	-3
576.941	1	9
577.111	1	-5
577.281	1	19
577.451	1	-2
577.621	1	4
577.791	1	-2
577.960	1	0
578.130	1	10
578.300	1	1
578.470	1	11
578.640	1	8
578.810	1	-1
578.979	1	-2
579.149	1	-7
579.319	1	9
579.489	1	9
579.659	1	5
579.829	1	3
579.998	1	-2
580.168	1	-8
580.338	1	7
580.508	1	5
580.678	1	8
580.848	1	-12
581.017	1	0
581.187	1	4
581.357	1	0
581.527	1	-3
581.697	1	-8
581.867	1	0
582.036	1	2
582.206	1	8
582.376	1	2
582.546	1	14
582.716	1	3
582.885	1	4
583.055	1	0
583.225	1	1
583.395	1	-4
583.565	1	-4
583.735	1	4
583.904	1	2
584.074	1	-2
584.244	1	2
584.414	1	2
584.584	1	0
584.753	1	4
584.923	1	1
585.093	1	-2
585.263	1	2
585.433	1	7
585.602	1	-1
585.772	1	0
585.942	1	7
586.112	1	-3
586.282	1	2
586.451	1	-2
586.621	1	3
586.791	1	3
586.961	1	8
587.131	1	5
587.300	1	7
587.470	1	-1
587.640	1	-7
587.810	1	7
587.980	1	-1
588.149	1	8
588.319	1	-1
588.489	1	3
588.659	1	2
588.829	1	-9
588.998	1	5
589.168	1	1
589.338	1	7
589.508	1	1
589.677	1	8
589.847	1	3
590.017	1	-9
590.187	1	5
590.357	1	2
590.526	1	13
590.696	1	-3
590.866	1	1
591.036	1	5
591.205	1	10
591.375	1	4
591.545	1	1
591.715	1	-4
591.885	1	-4
592.054	1	5
592.224	1	5
592.394	1	2
592.564	1	-3
592.733	1	11
592.903	1	0
593.073	1	-13
593.243	1	7
593.412	1	-4
593.582	1	10
593.752	1	-6
593.922	1	13
594.091	1	-4
594.261	1	-8
594.431	1	7
594.601	1	3
594.771	1	-1
594.940	1	9
595.110	1	-6
595.280	1	5
595.450	1	-2
595.619	1	-2
595.789	1	18
595.959	1	-2
596.129	1	-11
596.298	1	-5
596.468	1	14
596.638	1	2
596.808	1	7
596.977	1	-13
597.147	1	4
597.317	1	-3
597.487	1	10
597.656	1	5
597.826	1	-10
597.996	1	-2
598.166	1	10
598.335	1	-1
598.505	1	-7
598.675	1	-10
598.844	1	-1
599.014	1	5
599.184	1	1
599.354	1	-5
599.523	1	4
599.693	1	8
599.863	1	6
600.033	1	-5
600.202	1	9
600.372	1	7
600.542	1	-5
600.712	1	9
600.881	1	8
601.051	1	-1
601.221	1	17
601.390	1	9
601.560	1	4
601.730	1	0
601.900	1	14
602.069	1	-1
602.239	1	8
602.409	1	-6
602.578	1	10
602.748	1	3
602.918	1	4
603.088	1	8
603.257	1	9
603.427	1	9
603.597	1	6
603.767	1	-5
603.936	1	8
604.106	1	-4
604.276	1	0
604.445	1	-2
604.615	1	-1
604.785	1	7
604.954	1	5
605.124	1	10
605.294	1	1
605.464	1	2
605.633	1	6
605.803	1	3
605.973	1	0
606.142	1	5
606.312	1	11
606.482	1	5
606.652	1	13
606.821	1	2
606.991	1	4
607.161	1	-1
607.330	1	3
607.500	1	5
607.670	1	-5
607.839	1	3
608.009	1	15
608.179	1	5
608.348	1	4
608.518	1	-1
608.688	1	2
608.858	1	-13
609.027	1	4
609.197	1	5
609.367	1	7
609.536	1	18
609.706	1	5
609.876	1	3
610.045	1	6
610.215	1	11
610.385	1	2
610.554	1	7
610.724	1	10
610.894	1	7
611.063	1	-1
611.233	1	-5
611.403	1	0
611.572	1	5
611.742	1	7
611.912	1	1
612.081	1	9
612.251	1	9
612.421	1	2
612.590	1	-3
612.760	1	19
612.930	1	-1
613.099	1	11
613.269	1	-2
613.439	1	3
613.608	1	9
613.778	1	-2
613.948	1	6
614.117	1	2
614.287	1	0
614.457	1	0
614.626	1	11
614.796	1	11
614.966	1	1
615.135	1	14
615.305	1	13
615.475	1	-3
615.644	1	5
615.814	1	2
615.984	1	10
616.153	1	0
616.323	1	-4
616.493	1	3
616.662	1	7
616.832	1	3
617.002	1	-6
617.171	1	-1
617.341	1	-2
617.511	1	-5
617.680	1	1
617.850	1	4
618.019	1	4
618.189	1	-6
618.359	1	3
618.528	1	2
618.698	1	6
618.868	1	5
619.037	1	5
619.207	1	5
619.377	1	4
619.546	1	-3
619.716	1	5
619.885	1	1
620.055	1	16
620.225	1	6
620.394	1	12
620.564	1	0
620.734	1	-7
620.903	1	-4
621.073	1	3
621.242	1	-4
621.412	1	9
621.582	1	-3
621.751	1	8
621.921	1	14
622.091	1	-5
622.260	1	1
622.430	1	20
622.599	1	4
622.769	1	4
622.939	1	-5
623.108	1	8
623.278	1	13
623.448	1	10
623.617	1	7
623.787	1	11
623.956	1	5
624.126	1	-9
624.296	1	7
624.465	1	-3
624.635	1	5
624.804	1	-4
624.974	1	5
625.144	1	9
625.313	1	1
625.483	1	0
625.652	1	12
625.822	1	2
625.992	1	4
626.161	1	4
626.331	1	3
626.501	1	9
626.670	1	1
626.840	1	6
627.009	1	0
627.179	1	-7
627.348	1	11
627.518	1	-2
627.688	1	0
627.857	1	0
628.027	1	-5
628.196	1	-4
628.366	1	9
628.536	1	9
628.705	1	-4
628.875	1	0
629.044	1	11
629.214	1	0
629.384	1	-3
629.553	1	12
629.723	1	-2
629.892	1	-2
630.062	1	-10
630.232	1	10
630.401	1	-1
630.571	1	12
630.740	1	-2
630.910	1	-2
631.079	1	-16
631.249	1	8
631.419	1	7
631.588	1	3
631.758	1	5
631.927	1	-9
632.097	1	-1
632.266	1	-10
632.436	1	9
632.606	1	0
632.775	1	17
632.945	1	-6
633.114	1	2
633.284	1	9
633.453	1	11
633.623	1	14
633.793	1	1
633.962	1	1
634.132	1	-6
634.301	1	1
634.471	1	-7
634.640	1	4
634.810	1	10
634.979	1	5
635.149	1	2
635.319	1	11
635.488	1	-3
635.658	1	7
635.827	1	-4
635.997	1	8
636.166	1	4
636.336	1	4
636.505	1	12
636.675	1	9
636.845	1	0
637.014	1	-4
637.184	1	11
637.353	1	1
637.523	1	8
637.692	1	2
637.862	1	-9
638.031	1	-5
638.201	1	-3
638.370	1	0
638.540	1	13
638.710	1	6
638.879	1	8
639.049	1	-4
639.218	1	19
639.388	1	6
639.557	1	8
639.727	1	6
639.896	1	5
640.066	1	6
640.235	1	6
640.405	1	9
640.574	1	1
640.744	1	-4
640.914	1	9
641.083	1	2
641.253	1	4
641.422	1	6
641.592	1	-2
641.761	1	2
641.931	1	-6
642.100	1	13
642.270	1	1
642.439	1	1
642.609	1	8
642.778	1	1
642.948	1	8
643.117	1	13
643.287	1	-6
643.456	1	2
643.626	1	1
643.795	1	13
643.965	1	2
644.134	1	3
644.304	1	10
644.473	1	2
644.643	1	1
644.812	1	3
644.982	1	-1
645.151	1	2
645.321	1	2
645.490	1	8
645.660	1	8
645.829	1	-3
645.999	1	3
646.168	1	12
646.338	1	15
646.507	1	5
646.677	1	0
646.846	1	4
647.016	1	-1
647.185	1	11
647.355	1	-4
647.524	1	4
647.694	1	-3
647.863	1	8
648.033	1	5
648.202	1	3
648.372	1	-10
648.541	1	-6
648.711	1	4
648.880	1	-1
649.050	1	9
649.219	1	9
649.389	1	9
649.558	1	9
649.728	1	2
649.897	1	-7
650.067	1	1
650.236	1	-2
650.406	1	5
650.575	1	4
650.745	1	3
650.914	1	4
651.084	1	1
651.253	1	-2
651.423	1	5
651.592	1	-6
651.762	1	4
651.931	1	3
652.101	1	11
652.270	1	-2
652.440	1	1
652.609	1	11
652.778	1	4
652.948	1	-3
653.117	1	3
653.287	1	2
653.456	1	-4
653.626	1	5
653.795	1	-1
653.965	1	-8
654.134	1	-6
654.304	1	9
654.473	1	-3
654.643	1	7
654.812	1	1
654.982	1	5
655.151	1	5
655.320	1	13
655.490	1	4
655.659	1	3
655.829	1	4
655.998	1	-5
656.168	1	-1
656.337	1	0
656.507	1	2
656.676	1	-3
656.846	1	9
657.015	1	-3
657.184	1	-1
657.354	1	7
657.523	1	4
657.693	1	-2
657.862	1	1
658.032	1	10
658.201	1	12
658.371	1	-5
658.540	1	7
658.709	1	-11
658.879	1	7
659.048	1	0
659.218	1	-2
659.387	1	12
659.557	1	3
659.726	1	2
659.895	1	2
660.065	1	10
660.234	1	5
660.404	1	1
660.573	1	8
660.743	1	-1
660.912	1	1
661.081	1	-1
661.251	1	7
661.420	1	10
661.590	1	4
661.759	1	-7
661.929	1	1
662.098	1	6
662.267	1	0
662.437	1	11
662.606	1	9
662.776	1	2
662.945	1	12
663.115	1	3
663.284	1	5
663.453	1	7
663.623	1	14
663.792	1	5
663.962	1	-6
664.131	1	-3
664.300	1	-11
664.470	1	8
664.639	1	7
664.809	1	6
664.978	1	10
665.148	1	4
665.317	1	-5
665.486	1	10
665.656	1	6
665.825	1	8
665.995	1	-2
666.164	1	9
666.333	1	8
666.503	1	1
666.672	1	11
666.842	1	-1
667.011	1	-1
667.180	1	9
667.350	1	0
667.519	1	7
667.689	1	3
667.858	1	2
668.027	1	15
668.197	1	10
668.366	1	-2
668.536	1	-5
668.705	1	6
668.874	1	0
669.044	1	9
669.213	1	8
669.382	1	8
669.552	1	9
669.721	1	3
669.891	1	2
670.060	1	8
670.229	1	-5
670.399	1	-5
670.568	1	5
670.738	1	10
670.907	1	0
671.076	1	7
671.246	1	-1
671.415	1	16
671.584	1	10
671.754	1	1
671.923	1	2
672.093	1	5
672.262	1	-1
672.431	1	3
672.601	1	9
672.770	1	9
672.939	1	8
673.109	1	10
673.278	1	6
673.448	1	6
673.617	1	0
673.786	1	11
