325.333	1	4
325.504	1	14
325.675	1	7
325.846	1	9
326.017	1	13
326.188	1	15
326.359	1	20
326.531	1	22
326.702	1	11
326.873	1	9
327.044	1	19
327.215	1	0
327.386	1	17
327.557	1	17
327.728	1	18
327.899	1	6
328.070	1	6
328.241	1	12
328.412	1	5
328.583	1	22
328.754	1	-1
328.926	1	8
329.097	1	10
329.268	1	-2
329.439	1	6
329.610	1	2
329.781	1	6
329.952	1	12
330.123	1	11
330.294	1	17
330.465	1	12
330.636	1	19
330.807	1	12
330.978	1	6
331.149	1	10
331.320	1	11
331.492	1	8
331.663	1	-5
331.834	1	1
332.005	1	13
332.176	1	13
332.347	1	25
332.518	1	13
332.689	1	4
332.860	1	9
333.031	1	21
333.202	1	25
333.373	1	4
333.544	1	14
333.715	1	5
333.886	1	15
334.057	1	7
334.228	1	9
334.399	1	25
334.570	1	7
334.741	1	18
334.912	1	9
335.084	1	13
335.255	1	0
335.426	1	7
335.597	1	22
335.768	1	13
335.939	1	0
336.110	1	17
336.281	1	11
336.452	1	9
336.623	1	12
336.794	1	10
336.965	1	12
337.136	1	7
337.307	1	13
337.478	1	21
337.649	1	2
337.820	1	-3
337.991	1	8
338.162	1	17
338.333	1	20
338.504	1	21
338.675	1	30
338.846	1	18
339.017	1	23
339.188	1	21
339.359	1	24
339.530	1	12
339.701	1	3
339.872	1	18
340.043	1	15
340.214	1	12
340.385	1	23
340.556	1	9
340.727	1	18
340.898	1	26
341.069	1	5
341.240	1	2
341.411	1	30
341.582	1	20
341.753	1	4
341.924	1	18
342.095	1	22
342.266	1	7
342.437	1	-1
342.608	1	13
342.779	1	28
342.950	1	16
343.121	1	17
343.292	1	14
343.463	1	17
343.634	1	17
343.805	1	15
343.976	1	12
344.147	1	11
344.318	1	22
344.489	1	17
344.660	1	17
344.831	1	12
345.002	1	28
345.173	1	20
345.344	1	0
345.515	1	21
345.686	1	9
345.857	1	18
346.028	1	1
346.199	1	28
346.370	1	16
346.541	1	19
346.712	1	19
346.883	1	34
347.054	1	24
347.225	1	17
347.396	1	14
347.567	1	10
347.738	1	12
347.909	1	21
348.080	1	28
348.251	1	17
348.422	1	17
348.593	1	27
348.764	1	15
348.935	1	16
349.106	1	22
349.277	1	15
349.448	1	20
349.619	1	27
349.790	1	20
349.961	1	14
350.132	1	24
350.303	1	12
350.474	1	17
350.645	1	30
350.816	1	16
350.987	1	29
351.157	1	15
351.328	1	13
351.499	1	20
351.670	1	11
351.841	1	26
352.012	1	20
352.183	1	24
352.354	1	17
352.525	1	17
352.696	1	20
352.867	1	33
353.038	1	15
353.209	1	17
353.380	1	23
353.551	1	17
353.722	1	25
353.893	1	23
354.064	1	20
354.235	1	34
354.406	1	25
354.576	1	11
354.747	1	32
354.918	1	34
355.089	1	23
355.260	1	24
355.431	1	34
355.602	1	16
355.773	1	25
355.944	1	28
356.115	1	13
356.286	1	19
356.457	1	18
356.628	1	19
356.799	1	15
356.970	1	25
357.141	1	29
357.311	1	23
357.482	1	22
357.653	1	14
357.824	1	20
357.995	1	20
358.166	1	18
358.337	1	16
358.508	1	14
358.679	1	22
358.850	1	29
359.021	1	26
359.192	1	20
359.363	1	20
359.533	1	18
359.704	1	25
359.875	1	22
360.046	1	11
360.217	1	15
360.388	1	13
360.559	1	25
360.730	1	17
360.901	1	13
361.072	1	16
361.243	1	19
361.414	1	24
361.584	1	29
361.755	1	12
361.926	1	24
362.097	1	15
362.268	1	35
362.439	1	19
362.610	1	24
362.781	1	35
362.952	1	14
363.123	1	26
363.293	1	25
363.464	1	25
363.635	1	35
363.806	1	17
363.977	1	32
364.148	1	34
364.319	1	15
364.490	1	37
364.661	1	31
364.832	1	28
365.002	1	29
365.173	1	15
365.344	1	21
365.515	1	32
365.686	1	16
365.857	1	19
366.028	1	28
366.199	1	32
366.370	1	22
366.540	1	34
366.711	1	16
366.882	1	25
367.053	1	23
367.224	1	17
367.395	1	34
367.566	1	32
367.737	1	29
367.908	1	11
368.078	1	27
368.249	1	32
368.420	1	29
368.591	1	19
368.762	1	24
368.933	1	46
369.104	1	21
369.274	1	34
369.445	1	40
369.616	1	14
369.787	1	22
369.958	1	43
370.129	1	27
370.300	1	32
370.471	1	29
370.641	1	25
370.812	1	30
370.983	1	29
371.154	1	32
371.325	1	25
371.496	1	24
371.667	1	28
371.837	1	28
372.008	1	24
372.179	1	26
372.350	1	21
372.521	1	31
372.692	1	22
372.863	1	27
373.033	1	35
373.204	1	33
373.375	1	23
373.546	1	26
373.717	1	40
373.888	1	34
374.059	1	24
374.229	1	29
374.400	1	39
374.571	1	25
374.742	1	13
374.913	1	31
375.084	1	34
375.254	1	31
375.425	1	16
375.596	1	19
375.767	1	17
375.938	1	20
376.109	1	23
376.279	1	29
376.450	1	26
376.621	1	28
376.792	1	29
376.963	1	26
377.134	1	41
377.304	1	29
377.475	1	20
377.646	1	27
377.817	1	21
377.988	1	21
378.159	1	39
378.329	1	38
378.500	1	27
378.671	1	27
378.842	1	36
379.013	1	37
379.184	1	37
379.354	1	44
379.525	1	24
379.696	1	38
379.867	1	23
380.038	1	38
380.209	1	19
380.379	1	42
380.550	1	27
380.721	1	33
380.892	1	40
381.063	1	42
381.233	1	34
381.404	1	32
381.575	1	36
381.746	1	44
381.917	1	30
382.087	1	35
382.258	1	36
382.429	1	24
382.600	1	47
382.771	1	37
382.941	1	33
383.112	1	26
383.283	1	35
383.454	1	32
383.625	1	40
383.795	1	39
383.966	1	33
384.137	1	35
384.308	1	40
384.479	1	39
384.649	1	41
384.820	1	34
384.991	1	25
385.162	1	37
385.333	1	34
385.503	1	48
385.674	1	39
385.845	1	25
386.016	1	43
386.187	1	25
386.357	1	24
386.528	1	26
386.699	1	17
386.870	1	31
387.041	1	36
387.211	1	29
387.382	1	33
387.553	1	40
387.724	1	30
387.894	1	40
388.065	1	39
388.236	1	47
388.407	1	44
388.578	1	41
388.748	1	43
388.919	1	41
389.090	1	44
389.261	1	42
389.431	1	44
389.602	1	32
389.773	1	33
389.944	1	34
390.114	1	47
390.285	1	43
390.456	1	38
390.627	1	39
390.798	1	43
390.968	1	39
391.139	1	41
391.310	1	46
391.481	1	41
391.651	1	43
391.822	1	47
391.993	1	37
392.164	1	30
392.334	1	32
392.505	1	37
392.676	1	39
392.847	1	52
393.017	1	41
393.188	1	36
393.359	1	42
393.530	1	45
393.700	1	52
393.871	1	25
394.042	1	50
394.213	1	46
394.383	1	40
394.554	1	41
394.725	1	57
394.896	1	35
395.066	1	40
395.237	1	40
395.408	1	41
395.579	1	42
395.749	1	41
395.920	1	34
396.091	1	50
396.262	1	35
396.432	1	40
396.603	1	48
396.774	1	44
396.945	1	39
397.115	1	24
397.286	1	43
397.457	1	40
397.627	1	43
397.798	1	48
397.969	1	39
398.140	1	37
398.310	1	46
398.481	1	49
398.652	1	38
398.823	1	35
398.993	1	57
399.164	1	41
399.335	1	44
399.505	1	52
399.676	1	48
399.847	1	44
400.018	1	51
400.188	1	46
400.359	1	57
400.530	1	38
400.700	1	38
400.871	1	52
401.042	1	51
401.213	1	36
401.383	1	53
401.554	1	50
401.725	1	42
401.895	1	37
402.066	1	53
402.237	1	48
402.408	1	39
402.578	1	51
402.749	1	49
402.920	1	51
403.090	1	40
403.261	1	56
403.432	1	54
403.603	1	37
403.773	1	49
403.944	1	58
404.115	1	41
404.285	1	56
404.456	1	48
404.627	1	44
404.797	1	44
404.968	1	41
405.139	1	46
405.310	1	40
405.480	1	49
405.651	1	42
405.822	1	55
405.992	1	39
406.163	1	50
406.334	1	53
406.504	1	42
406.675	1	44
406.846	1	50
407.016	1	45
407.187	1	45
407.358	1	45
407.528	1	45
407.699	1	34
407.870	1	48
408.041	1	43
408.211	1	28
408.382	1	50
408.553	1	28
408.723	1	61
408.894	1	42
409.065	1	61
409.235	1	36
409.406	1	45
409.577	1	44
409.747	1	44
409.918	1	38
410.089	1	39
410.259	1	45
410.430	1	57
410.601	1	43
410.771	1	58
410.942	1	51
411.113	1	55
411.283	1	47
411.454	1	48
411.625	1	49
411.795	1	52
411.966	1	45
412.137	1	53
412.307	1	40
412.478	1	43
412.649	1	45
412.819	1	39
412.990	1	55
413.161	1	50
413.331	1	57
413.502	1	33
413.672	1	50
413.843	1	43
414.014	1	62
414.184	1	56
414.355	1	46
414.526	1	49
414.696	1	55
414.867	1	46
415.038	1	48
415.208	1	47
415.379	1	47
415.550	1	44
415.720	1	33
415.891	1	51
416.062	1	48
416.232	1	49
416.403	1	48
416.573	1	49
416.744	1	43
416.915	1	40
417.085	1	36
417.256	1	43
417.427	1	42
417.597	1	49
417.768	1	40
417.939	1	45
418.109	1	30
418.280	1	39
418.450	1	49
418.621	1	48
418.792	1	43
418.962	1	45
419.133	1	44
419.304	1	33
419.474	1	41
419.645	1	46
419.815	1	46
419.986	1	42
420.157	1	54
420.327	1	45
420.498	1	44
420.669	1	52
420.839	1	41
421.010	1	45
421.180	1	39
421.351	1	52
421.522	1	42
421.692	1	55
421.863	1	44
422.033	1	56
422.204	1	46
422.375	1	42
422.545	1	49
422.716	1	34
422.886	1	54
423.057	1	37
423.228	1	53
423.398	1	55
423.569	1	56
423.740	1	37
423.910	1	48
424.081	1	54
424.251	1	39
424.422	1	48
424.593	1	59
424.763	1	38
424.934	1	56
425.104	1	46
425.275	1	55
425.445	1	62
425.616	1	47
425.787	1	42
425.957	1	45
426.128	1	53
426.298	1	48
426.469	1	34
426.640	1	45
426.810	1	50
426.981	1	48
427.151	1	46
427.322	1	36
427.493	1	45
427.663	1	43
427.834	1	43
428.004	1	57
428.175	1	50
428.345	1	44
428.516	1	49
428.687	1	42
428.857	1	46
429.028	1	42
429.198	1	43
429.369	1	38
429.540	1	41
429.710	1	48
429.881	1	38
430.051	1	41
430.222	1	46
430.392	1	41
430.563	1	40
430.734	1	46
430.904	1	49
431.075	1	33
431.245	1	43
431.416	1	28
431.586	1	48
431.757	1	55
431.927	1	38
432.098	1	50
432.269	1	53
432.439	1	44
432.610	1	43
432.780	1	42
432.951	1	51
433.121	1	45
433.292	1	48
433.462	1	48
433.633	1	57
433.804	1	45
433.974	1	51
434.145	1	43
434.315	1	42
434.486	1	34
434.656	1	52
434.827	1	46
434.997	1	62
435.168	1	52
435.339	1	46
435.509	1	40
435.680	1	43
435.850	1	41
436.021	1	45
436.191	1	50
436.362	1	45
436.532	1	48
436.703	1	55
436.873	1	46
437.044	1	45
437.214	1	52
437.385	1	51
437.556	1	41
437.726	1	37
437.897	1	39
438.067	1	36
438.238	1	51
438.408	1	46
438.579	1	55
438.749	1	37
438.920	1	43
439.090	1	36
439.261	1	43
439.431	1	45
439.602	1	37
439.772	1	37
439.943	1	56
440.113	1	48
440.284	1	48
440.455	1	54
440.625	1	52
440.796	1	45
440.966	1	43
441.137	1	47
441.307	1	45
441.478	1	43
441.648	1	40
441.819	1	50
441.989	1	43
442.160	1	44
442.330	1	51
442.501	1	46
442.671	1	50
442.842	1	51
443.012	1	43
443.183	1	44
443.353	1	41
443.524	1	42
443.694	1	37
443.865	1	46
444.035	1	35
444.206	1	38
444.376	1	45
444.547	1	40
444.717	1	47
444.888	1	39
445.058	1	31
445.229	1	40
445.399	1	41
445.570	1	15
445.740	1	47
445.911	1	38
446.081	1	39
446.252	1	22
446.422	1	50
446.593	1	43
446.763	1	46
446.934	1	43
447.104	1	43
447.275	1	42
447.445	1	32
447.616	1	54
447.786	1	39
447.957	1	41
448.127	1	61
448.298	1	47
448.468	1	43
448.639	1	32
448.809	1	46
448.979	1	47
449.150	1	42
449.320	1	47
449.491	1	48
449.661	1	59
449.832	1	47
450.002	1	47
450.173	1	41
450.343	1	47
450.514	1	40
450.684	1	46
450.855	1	46
451.025	1	39
451.196	1	51
451.366	1	48
451.537	1	35
451.707	1	53
451.878	1	46
452.048	1	36
452.218	1	47
452.389	1	49
452.559	1	41
452.730	1	38
452.900	1	47
453.071	1	39
453.241	1	47
453.412	1	36
453.582	1	42
453.753	1	45
453.923	1	39
454.093	1	46
454.264	1	37
454.434	1	37
454.605	1	44
454.775	1	38
454.946	1	35
455.116	1	33
455.287	1	40
455.457	1	32
455.628	1	35
455.798	1	45
455.968	1	44
456.139	1	33
456.309	1	47
456.480	1	42
456.650	1	56
456.821	1	55
456.991	1	48
457.161	1	44
457.332	1	32
457.502	1	41
457.673	1	45
457.843	1	36
458.014	1	43
458.184	1	32
458.355	1	40
458.525	1	42
458.695	1	32
458.866	1	45
459.036	1	32
459.207	1	47
459.377	1	54
459.548	1	34
459.718	1	35
459.888	1	45
460.059	1	44
460.229	1	50
460.400	1	34
460.570	1	38
460.740	1	32
460.911	1	37
461.081	1	45
461.252	1	39
461.422	1	35
461.593	1	35
461.763	1	44
461.933	1	46
462.104	1	47
462.274	1	38
462.445	1	27
462.615	1	41
462.785	1	37
462.956	1	35
463.126	1	34
463.297	1	35
463.467	1	40
463.638	1	33
463.808	1	44
463.978	1	46
464.149	1	27
464.319	1	41
464.490	1	46
464.660	1	38
464.830	1	43
465.001	1	40
465.171	1	35
465.342	1	31
465.512	1	45
465.682	1	38
465.853	1	18
466.023	1	41
466.194	1	33
466.364	1	31
466.534	1	35
466.705	1	34
466.875	1	26
467.045	1	37
467.216	1	40
467.386	1	45
467.557	1	39
467.727	1	39
467.897	1	33
468.068	1	20
468.238	1	41
468.409	1	27
468.579	1	43
468.749	1	38
468.920	1	35
469.090	1	44
469.260	1	30
469.431	1	30
469.601	1	33
469.772	1	18
469.942	1	36
470.112	1	41
470.283	1	48
470.453	1	47
470.623	1	27
470.794	1	29
470.964	1	39
471.135	1	32
471.305	1	35
471.475	1	19
471.646	1	21
471.816	1	27
471.986	1	37
472.157	1	34
472.327	1	27
472.497	1	49
472.668	1	33
472.838	1	36
473.009	1	36
473.179	1	34
473.349	1	34
473.520	1	32
473.690	1	38
473.860	1	40
474.031	1	36
474.201	1	31
474.371	1	30
474.542	1	34
474.712	1	21
474.882	1	18
475.053	1	26
475.223	1	23
475.394	1	24
475.564	1	28
475.734	1	41
475.905	1	26
476.075	1	32
476.245	1	37
476.416	1	13
476.586	1	28
476.756	1	27
476.927	1	24
477.097	1	27
477.267	1	39
477.438	1	41
477.608	1	20
477.778	1	35
477.949	1	41
478.119	1	42
478.289	1	24
478.460	1	21
478.630	1	40
478.800	1	36
478.971	1	42
479.141	1	26
479.311	1	22
479.482	1	38
479.652	1	29
479.822	1	24
479.993	1	22
480.163	1	40
480.333	1	32
480.504	1	30
480.674	1	27
480.844	1	38
481.015	1	25
481.185	1	18
481.355	1	37
481.525	1	31
481.696	1	26
481.866	1	32
482.036	1	25
482.207	1	25
482.377	1	32
482.547	1	24
482.718	1	25
482.888	1	31
483.058	1	30
483.229	1	28
483.399	1	26
483.569	1	38
483.740	1	25
483.910	1	18
484.080	1	45
484.250	1	14
484.421	1	24
484.591	1	31
484.761	1	17
484.932	1	25
485.102	1	36
485.272	1	19
485.443	1	32
485.613	1	52
485.783	1	43
485.953	1	37
486.124	1	30
486.294	1	21
486.464	1	23
486.635	1	24
486.805	1	13
486.975	1	16
487.146	1	24
487.316	1	27
487.486	1	22
487.656	1	27
487.827	1	19
487.997	1	26
488.167	1	30
488.338	1	18
488.508	1	8
488.678	1	28
488.848	1	16
489.019	1	32
489.189	1	22
489.359	1	31
489.529	1	25
489.700	1	27
489.870	1	19
490.040	1	19
490.211	1	16
490.381	1	19
490.551	1	33
490.721	1	27
490.892	1	24
491.062	1	18
491.232	1	15
491.402	1	26
491.573	1	19
491.743	1	24
491.913	1	22
492.084	1	23
492.254	1	20
492.424	1	31
492.594	1	30
492.765	1	23
492.935	1	15
493.105	1	28
493.275	1	21
493.446	1	16
493.616	1	21
493.786	1	21
493.956	1	18
494.127	1	36
494.297	1	22
494.467	1	21
494.637	1	32
494.808	1	22
494.978	1	16
495.148	1	26
495.318	1	29
495.489	1	16
495.659	1	16
495.829	1	26
495.999	1	23
496.170	1	10
496.340	1	16
496.510	1	17
496.680	1	15
496.851	1	20
497.021	1	23
497.191	1	17
497.361	1	20
497.532	1	10
497.702	1	18
497.872	1	28
498.042	1	35
498.213	1	25
498.383	1	21
498.553	1	11
498.723	1	19
498.894	1	22
499.064	1	31
499.234	1	18
499.404	1	16
499.574	1	21
499.745	1	16
499.915	1	20
500.085	1	18
500.255	1	28
500.426	1	27
500.596	1	21
500.766	1	24
500.936	1	27
501.106	1	18
501.277	1	20
501.447	1	21
501.617	1	21
501.787	1	18
501.958	1	19
502.128	1	13
502.298	1	11
502.468	1	19
502.638	1	19
502.809	1	18
502.979	1	27
503.149	1	13
503.319	1	19
503.489	1	10
503.660	1	10
503.830	1	16
504.000	1	27
504.170	1	17
504.340	1	21
504.511	1	19
504.681	1	15
504.851	1	23
505.021	1	20
505.192	1	11
505.362	1	15
505.532	1	14
505.702	1	16
505.872	1	19
506.043	1	27
506.213	1	26
506.383	1	21
506.553	1	19
506.723	1	18
506.893	1	9
507.064	1	6
507.234	1	7
507.404	1	19
507.574	1	17
507.744	1	28
507.915	1	21
508.085	1	23
508.255	1	15
508.425	1	4
508.595	1	1
508.766	1	15
508.936	1	11
509.106	1	17
509.276	1	18
509.446	1	18
509.616	1	19
509.787	1	20
509.957	1	13
510.127	1	8
510.297	1	14
510.467	1	10
510.638	1	14
510.808	1	22
510.978	1	15
511.148	1	28
511.318	1	13
511.488	1	23
511.659	1	16
511.829	1	5
511.999	1	23
512.169	1	16
512.339	1	17
512.509	1	18
512.680	1	11
512.850	1	23
513.020	1	15
513.190	1	9
513.360	1	18
513.530	1	20
513.700	1	22
513.871	1	12
514.041	1	6
514.211	1	21
514.381	1	20
514.551	1	12
514.721	1	7
514.892	1	4
515.062	1	16
515.232	1	15
515.402	1	14
515.572	1	4
515.742	1	20
515.912	1	-3
516.083	1	17
516.253	1	19
516.423	1	15
516.593	1	16
516.763	1	7
516.933	1	4
517.104	1	17
517.274	1	5
517.444	1	11
517.614	1	12
517.784	1	10
517.954	1	19
518.124	1	-1
518.294	1	16
518.465	1	16
518.635	1	2
518.805	1	32
518.975	1	16
519.145	1	23
519.315	1	6
519.485	1	2
519.656	1	15
519.826	1	24
519.996	1	13
520.166	1	22
520.336	1	7
520.506	1	14
520.676	1	17
520.846	1	4
521.017	1	13
521.187	1	22
521.357	1	14
521.527	1	10
521.697	1	25
521.867	1	12
522.037	1	8
522.207	1	1
522.377	1	15
522.548	1	16
522.718	1	8
522.888	1	24
523.058	1	18
523.228	1	14
523.398	1	16
523.568	1	10
523.738	1	13
523.909	1	10
524.079	1	10
524.249	1	11
524.419	1	7
524.589	1	1
524.759	1	18
524.929	1	9
525.099	1	0
525.269	1	18
525.439	1	6
525.610	1	18
525.780	1	15
525.950	1	16
526.120	1	15
526.290	1	14
526.460	1	8
526.630	1	15
526.800	1	14
526.970	1	10
527.140	1	2
527.311	1	11
527.481	1	9
527.651	1	6
527.821	1	6
527.991	1	16
528.161	1	20
528.331	1	20
528.501	1	18
528.671	1	7
528.841	1	12
529.011	1	9
529.181	1	12
529.352	1	16
529.522	1	8
529.692	1	6
529.862	1	18
530.032	1	8
530.202	1	12
530.372	1	7
530.542	1	6
530.712	1	8
530.882	1	14
531.052	1	23
531.222	1	5
531.392	1	5
531.563	1	11
531.733	1	11
531.903	1	18
532.073	1	2
532.243	1	11
532.413	1	21
532.583	1	3
532.753	1	14
532.923	1	17
533.093	1	21
533.263	1	6
533.433	1	25
533.603	1	18
533.773	1	2
533.943	1	3
534.113	1	11
534.284	1	11
534.454	1	4
534.624	1	12
534.794	1	5
534.964	1	7
535.134	1	16
535.304	1	14
535.474	1	3
535.644	1	7
535.814	1	11
535.984	1	22
536.154	1	13
536.324	1	26
536.494	1	14
536.664	1	10
536.834	1	10
537.004	1	12
537.174	1	6
537.344	1	15
537.514	1	8
537.685	1	3
537.855	1	16
538.025	1	10
538.195	1	12
538.365	1	0
538.535	1	1
538.705	1	17
538.875	1	8
539.045	1	10
539.215	1	-6
539.385	1	8
539.555	1	9
539.725	1	11
539.895	1	17
540.065	1	1
540.235	1	14
540.405	1	5
540.575	1	13
540.745	1	0
540.915	1	11
541.085	1	6
541.255	1	5
541.425	1	9
541.595	1	21
541.765	1	26
541.935	1	9
542.105	1	3
542.275	1	10
542.445	1	5
542.615	1	11
542.785	1	-1
542.955	1	8
543.125	1	4
543.295	1	6
543.465	1	23
543.635	1	11
543.805	1	10
543.975	1	4
544.145	1	10
544.315	1	7
544.485	1	11
544.655	1	17
544.825	1	8
544.995	1	9
545.165	1	6
545.335	1	7
545.505	1	15
545.675	1	-10
545.845	1	9
546.015	1	11
546.185	1	3
546.355	1	10
546.525	1	12
546.695	1	8
546.865	1	15
547.035	1	5
547.205	1	8
547.375	1	5
547.545	1	19
547.715	1	16
547.885	1	23
548.055	1	0
548.225	1	11
548.395	1	0
548.565	1	11
548.735	1	15
548.905	1	4
549.075	1	13
549.245	1	7
549.415	1	6
549.585	1	11
549.755	1	10
549.925	1	3
550.095	1	5
550.265	1	16
550.435	1	0
550.605	1	9
550.775	1	1
550.945	1	14
551.115	1	6
551.285	1	2
551.455	1	9
551.625	1	10
551.795	1	10
551.965	1	11
552.135	1	3
552.305	1	11
552.475	1	6
552.645	1	3
552.815	1	7
552.985	1	7
553.155	1	0
553.325	1	16
553.495	1	4
553.665	1	14
553.835	1	9
554.004	1	-1
554.174	1	1
554.344	1	8
554.514	1	6
554.684	1	6
554.854	1	4
555.024	1	1
555.194	1	8
555.364	1	9
555.534	1	7
555.704	1	10
555.874	1	-8
556.044	1	13
556.214	1	8
556.384	1	11
556.554	1	9
556.724	1	8
556.894	1	-3
557.064	1	5
557.234	1	9
557.404	1	7
557.573	1	-5
557.743	1	12
557.913	1	3
558.083	1	18
558.253	1	3
558.423	1	6
558.593	1	16
558.763	1	14
558.933	1	5
559.103	1	13
559.273	1	2
559.443	1	13
559.613	1	14
559.783	1	19
559.953	1	11
560.122	1	0
560.292	1	3
560.462	1	1
560.632	1	18
560.802	1	8
560.972	1	10
561.142	1	15
561.312	1	9
561.482	1	20
561.652	1	5
561.822	1	2
561.992	1	3
562.162	1	4
562.331	1	7
562.501	1	-4
562.671	1	14
562.841	1	8
563.011	1	-2
563.181	1	17
563.351	1	8
563.521	1	17
563.691	1	11
563.861	1	5
564.031	1	-4
564.201	1	0
564.370	1	8
564.540	1	4
564.710	1	9
564.880	1	7
565.050	1	6
565.220	1	2
565.390	1	15
565.560	1	3
565.730	1	5
565.900	1	6
566.069	1	5
566.239	1	2
566.409	1	1
566.579	1	7
566.749	1	6
566.919	1	9
567.089	1	8
567.259	1	16
567.429	1	13
567.599	1	6
567.768	1	0
567.938	1	3
568.108	1	13
568.278	1	5
568.448	1	16
568.618	1	9
568.788	1	-6
568.958	1	-1
569.128	1	3
569.297	1	3
569.467	1	15
569.637	1	6
569.807	1	4
569.977	1	8
570.147	1	9
570.317	1	9
570.487	1	15
570.656	1	8
570.826	1	1
570.996	1	6
571.166	1	4
571.336	1	2
571.506	1	4
571.676	1	1
571.846	1	4
572.015	1	12
572.185	1	6
572.355	1	14
572.525	1	1
572.695	1	9
572.865	1	20
573.035	1	-6
573.205	1	-1
573.374	1	18
573.544	1	1
573.714	1	8
573.884	1	1
574.054	1	4
574.224	1	13
574.394	1	4
574.563	1	15
574.733	1	15
574.903	1	8
575.073	1	6
575.243	1	6
575.413	1	6
575.583	1	-2
575.752	1	13
575.922	1	19
576.092	1	6
576.262	1	9
576.432	1	10
576.602	1	8
576.772	1	-8
576.941	1	10
577.111	1	11
577.281	1	26
577.451	1	5
577.621	1	22
577.791	1	8
577.960	1	0
578.130	1	12
578.300	1	13
578.470	1	-1
578.640	1	5
578.810	1	9
578.979	1	-3
579.149	1	0
579.319	1	12
579.489	1	6
579.659	1	0
579.829	1	0
579.998	1	10
580.168	1	9
580.338	1	5
580.508	1	6
580.678	1	17
580.848	1	3
581.017	1	8
581.187	1	10
581.357	1	15
581.527	1	0
581.697	1	-2
581.867	1	14
582.036	1	8
582.206	1	-4
582.376	1	5
582.546	1	18
582.716	1	11
582.885	1	3
583.055	1	-4
583.225	1	-4
583.395	1	6
583.565	1	2
583.735	1	6
583.904	1	15
584.074	1	5
584.244	1	5
584.414	1	5
584.584	1	-2
584.753	1	14
584.923	1	7
585.093	1	9
585.263	1	10
585.433	1	26
585.602	1	6
585.772	1	1
585.942	1	3
586.112	1	-5
586.282	1	11
586.451	1	0
586.621	1	0
586.791	1	3
586.961	1	22
587.131	1	3
587.300	1	16
587.470	1	-5
587.640	1	-3
587.810	1	-3
587.980	1	-1
588.149	1	12
588.319	1	7
588.489	1	1
588.659	1	17
588.829	1	-3
588.998	1	7
589.168	1	4
589.338	1	8
589.508	1	9
589.677	1	4
589.847	1	9
590.017	1	5
590.187	1	6
590.357	1	10
590.526	1	14
590.696	1	10
590.866	1	6
591.036	1	3
591.205	1	2
591.375	1	11
591.545	1	11
591.715	1	3
591.885	1	0
592.054	1	7
592.224	1	11
592.394	1	5
592.564	1	9
592.733	1	8
592.903	1	1
593.073	1	6
593.243	1	13
593.412	1	-2
593.582	1	8
593.752	1	0
593.922	1	15
594.091	1	-2
594.261	1	10
594.431	1	7
594.601	1	0
594.771	1	17
594.940	1	2
595.110	1	7
595.280	1	6
595.450	1	6
595.619	1	6
595.789	1	13
595.959	1	6
596.129	1	-2
596.298	1	13
596.468	1	11
596.638	1	13
596.808	1	-5
596.977	1	4
597.147	1	13
597.317	1	8
597.487	1	1
597.656	1	13
597.826	1	0
597.996	1	3
598.166	1	9
598.335	1	0
598.505	1	-1
598.675	1	7
598.844	1	5
599.014	1	18
599.184	1	5
599.354	1	6
599.523	1	5
599.693	1	5
599.863	1	12
600.033	1	9
600.202	1	7
600.372	1	4
600.542	1	4
600.712	1	22
600.881	1	-4
601.051	1	10
601.221	1	14
601.390	1	8
601.560	1	1
601.730	1	6
601.900	1	25
602.069	1	-2
602.239	1	15
602.409	1	4
602.578	1	14
602.748	1	0
602.918	1	13
603.088	1	9
603.257	1	2
603.427	1	22
603.597	1	5
603.767	1	9
603.936	1	17
604.106	1	8
604.276	1	6
604.445	1	-2
604.615	1	10
604.785	1	15
604.954	1	6
605.124	1	8
605.294	1	8
605.464	1	0
605.633	1	11
605.803	1	5
605.973	1	7
606.142	1	10
606.312	1	6
606.482	1	6
606.652	1	15
606.821	1	9
606.991	1	-1
607.161	1	9
607.330	1	4
607.500	1	14
607.670	1	8
607.839	1	14
608.009	1	7
608.179	1	3
608.348	1	7
608.518	1	4
608.688	1	8
608.858	1	8
609.027	1	-3
609.197	1	14
609.367	1	-5
609.536	1	20
609.706	1	7
609.876	1	8
610.045	1	2
610.215	1	15
610.385	1	7
610.554	1	5
610.724	1	11
610.894	1	13
611.063	1	0
611.233	1	1
611.403	1	8
611.572	1	12
611.742	1	2
611.912	1	5
612.081	1	10
612.251	1	5
612.421	1	20
612.590	1	-3
612.760	1	16
612.930	1	0
613.099	1	11
613.269	1	4
613.439	1	1
613.608	1	11
613.778	1	-1
613.948	1	11
614.117	1	6
614.287	1	6
614.457	1	13
614.626	1	13
614.796	1	19
614.966	1	10
615.135	1	14
615.305	1	15
615.475	1	1
615.644	1	3
615.814	1	2
615.984	1	11
616.153	1	6
616.323	1	6
616.493	1	18
616.662	1	2
616.832	1	8
617.002	1	4
617.171	1	3
617.341	1	9
617.511	1	-3
617.680	1	7
617.850	1	3
618.019	1	13
618.189	1	7
618.359	1	4
618.528	1	2
618.698	1	11
618.868	1	10
619.037	1	17
619.207	1	6
619.377	1	6
619.546	1	5
619.716	1	9
619.885	1	8
620.055	1	15
620.225	1	12
620.394	1	12
620.564	1	0
620.734	1	5
620.903	1	6
621.073	1	4
621.242	1	-1
621.412	1	12
621.582	1	-6
621.751	1	4
621.921	1	15
622.091	1	-3
622.260	1	11
622.430	1	14
622.599	1	16
622.769	1	3
622.939	1	8
623.108	1	9
623.278	1	15
623.448	1	9
623.617	1	3
623.787	1	15
623.956	1	13
624.126	1	1
624.296	1	17
624.465	1	1
624.635	1	11
624.804	1	11
624.974	1	8
625.144	1	23
625.313	1	13
625.483	1	17
625.652	1	5
625.822	1	17
625.992	1	19
626.161	1	-1
626.331	1	4
626.501	1	8
626.670	1	3
626.840	1	9
627.009	1	9
627.179	1	-4
627.348	1	15
627.518	1	1
627.688	1	21
627.857	1	11
628.027	1	2
628.196	1	-3
628.366	1	12
628.536	1	14
628.705	1	9
628.875	1	7
629.044	1	13
629.214	1	9
629.384	1	10
629.553	1	15
629.723	1	0
629.892	1	4
630.062	1	-6
630.232	1	9
630.401	1	10
630.571	1	16
630.740	1	14
630.910	1	5
631.079	1	-2
631.249	1	10
631.419	1	9
631.588	1	2
631.758	1	5
631.927	1	12
632.097	1	12
632.266	1	-2
632.436	1	13
632.606	1	1
632.775	1	20
632.945	1	2
633.114	1	11
633.284	1	10
633.453	1	21
633.623	1	15
633.793	1	6
633.962	1	8
634.132	1	7
634.301	1	3
634.471	1	5
634.640	1	10
634.810	1	13
634.979	1	7
635.149	1	6
635.319	1	9
635.488	1	9
635.658	1	18
635.827	1	7
635.997	1	10
636.166	1	6
636.336	1	14
636.505	1	12
636.675	1	3
636.845	1	10
637.014	1	13
637.184	1	9
637.353	1	11
637.523	1	12
637.692	1	13
637.862	1	1
638.031	1	0
638.201	1	3
638.370	1	19
638.540	1	10
638.710	1	11
638.879	1	14
639.049	1	-4
639.218	1	17
639.388	1	7
639.557	1	15
639.727	1	14
639.896	1	12
640.066	1	11
640.235	1	10
640.405	1	6
640.574	1	7
640.744	1	2
640.914	1	13
641.083	1	12
641.253	1	10
641.422	1	4
641.592	1	4
641.761	1	9
641.931	1	6
642.100	1	19
642.270	1	4
642.439	1	8
642.609	1	17
642.778	1	14
642.948	1	14
643.117	1	14
643.287	1	10
643.456	1	10
643.626	1	4
643.795	1	12
643.965	1	7
644.134	1	4
644.304	1	13
644.473	1	5
644.643	1	-2
644.812	1	13
644.982	1	8
645.151	1	11
645.321	1	10
645.490	1	13
645.660	1	7
645.829	1	3
645.999	1	7
646.168	1	8
646.338	1	7
646.507	1	8
646.677	1	14
646.846	1	10
647.016	1	11
647.185	1	6
647.355	1	3
647.524	1	-4
647.694	1	3
647.863	1	12
648.033	1	14
648.202	1	12
648.372	1	12
648.541	1	4
648.711	1	7
648.880	1	9
649.050	1	13
649.219	1	16
649.389	1	5
649.558	1	18
649.728	1	11
649.897	1	11
650.067	1	10
650.236	1	2
650.406	1	16
650.575	1	8
650.745	1	14
650.914	1	5
651.084	1	11
651.253	1	2
651.423	1	23
651.592	1	-4
651.762	1	10
651.931	1	12
652.101	1	12
652.270	1	1
652.440	1	14
652.609	1	22
652.778	1	10
652.948	1	7
653.117	1	10
653.287	1	23
653.456	1	9
653.626	1	13
653.795	1	9
653.965	1	5
654.134	1	7
654.304	1	12
654.473	1	-1
654.643	1	16
654.812	1	11
654.982	1	6
655.151	1	14
655.320	1	20
655.490	1	6
655.659	1	11
655.829	1	0
655.998	1	0
656.168	1	3
656.337	1	7
656.507	1	2
656.676	1	6
656.846	1	10
657.015	1	16
657.184	1	11
657.354	1	14
657.523	1	8
657.693	1	0
657.862	1	2
658.032	1	12
658.201	1	5
658.371	1	2
658.540	1	16
658.709	1	6
658.879	1	16
659.048	1	11
659.218	1	2
659.387	1	19
659.557	1	1
659.726	1	6
659.895	1	18
660.065	1	21
660.234	1	10
660.404	1	5
660.573	1	15
660.743	1	1
660.912	1	3
661.081	1	-3
661.251	1	18
661.420	1	24
661.590	1	12
661.759	1	4
661.929	1	16
662.098	1	11
662.267	1	14
662.437	1	11
662.606	1	9
662.776	1	3
662.945	1	17
663.115	1	12
663.284	1	6
663.453	1	8
663.623	1	28
663.792	1	9
663.962	1	5
664.131	1	6
664.300	1	-1
664.470	1	6
664.639	1	17
664.809	1	15
664.978	1	14
665.148	1	2
665.317	1	3
665.486	1	12
665.656	1	12
665.825	1	15
665.995	1	8
666.164	1	20
666.333	1	6
666.503	1	18
666.672	1	21
666.842	1	-2
667.011	1	6
667.180	1	10
667.350	1	12
667.519	1	11
667.689	1	10
667.858	1	12
668.027	1	16
668.197	1	14
668.366	1	4
668.536	1	8
668.705	1	12
668.874	1	13
669.044	1	9
669.213	1	7
669.382	1	7
669.552	1	13
669.721	1	7
669.891	1	11
670.060	1	7
670.229	1	9
670.399	1	6
670.568	1	4
670.738	1	13
670.907	1	13
671.076	1	17
671.246	1	3
671.415	1	14
671.584	1	24
671.754	1	2
671.923	1	13
672.093	1	8
672.262	1	8
672.431	1	10
672.601	1	16
672.770	1	4
672.939	1	11
673.109	1	15
673.278	1	4
673.448	1	17
673.617	1	21
673.786	1	14
