325.333	1	1
325.504	1	7
325.675	1	0
325.846	1	0
326.017	1	5
326.188	1	7
326.359	1	5
326.531	1	5
326.702	1	9
326.873	1	-5
327.044	1	10
327.215	1	-6
327.386	1	4
327.557	1	2
327.728	1	7
327.899	1	10
328.070	1	12
328.241	1	1
328.412	1	-5
328.583	1	4
328.754	1	-4
328.926	1	14
329.097	1	-5
329.268	1	-9
329.439	1	-4
329.610	1	7
329.781	1	-2
329.952	1	-2
330.123	1	-3
330.294	1	0
330.465	1	4
330.636	1	17
330.807	1	3
330.978	1	0
331.149	1	-1
331.320	1	4
331.492	1	4
331.663	1	-4
331.834	1	-8
332.005	1	1
332.176	1	10
332.347	1	10
332.518	1	13
332.689	1	-2
332.860	1	4
333.031	1	1
333.202	1	4
333.373	1	-1
333.544	1	4
333.715	1	1
333.886	1	4
334.057	1	2
334.228	1	2
334.399	1	3
334.570	1	-6
334.741	1	-1
334.912	1	1
335.084	1	-7
335.255	1	5
335.426	1	6
335.597	1	11
335.768	1	-1
335.939	1	-5
336.110	1	8
336.281	1	9
336.452	1	-1
336.623	1	2
336.794	1	-10
336.965	1	6
337.136	1	8
337.307	1	14
337.478	1	1
337.649	1	-12
337.820	1	1
337.991	1	11
338.162	1	1
338.333	1	11
338.504	1	7
338.675	1	5
338.846	1	3
339.017	1	12
339.188	1	10
339.359	1	11
339.530	1	8
339.701	1	-1
339.872	1	-1
340.043	1	-7
340.214	1	-3
340.385	1	9
340.556	1	-4
340.727	1	-1
340.898	1	9
341.069	1	-6
341.240	1	2
341.411	1	11
341.582	1	6
341.753	1	-16
341.924	1	-1
342.095	1	12
342.266	1	-5
342.437	1	-3
342.608	1	-3
342.779	1	8
342.950	1	-5
343.121	1	2
343.292	1	7
343.463	1	3
343.634	1	0
343.805	1	-3
343.976	1	2
344.147	1	5
344.318	1	-3
344.489	1	8
344.660	1	8
344.831	1	3
345.002	1	8
345.173	1	3
345.344	1	-1
345.515	1	6
345.686	1	-6
345.857	1	-6
346.028	1	-5
346.199	1	3
346.370	1	0
346.541	1	3
346.712	1	-3
346.883	1	9
347.054	1	6
347.225	1	-4
347.396	1	-9
347.567	1	7
347.738	1	1
347.909	1	-5
348.080	1	9
348.251	1	3
348.422	1	1
348.593	1	3
348.764	1	-6
348.935	1	-3
349.106	1	7
349.277	1	6
349.448	1	3
349.619	1	10
349.790	1	2
349.961	1	-4
350.132	1	16
350.303	1	10
350.474	1	3
350.645	1	11
350.816	1	-1
350.987	1	8
351.157	1	8
351.328	1	2
351.499	1	10
351.670	1	-2
351.841	1	-2
352.012	1	6
352.183	1	5
352.354	1	9
352.525	1	4
352.696	1	4
352.867	1	-2
353.038	1	1
353.209	1	5
353.380	1	-5
353.551	1	-5
353.722	1	1
353.893	1	10
354.064	1	5
354.235	1	17
354.406	1	7
354.576	1	-1
354.747	1	14
354.918	1	11
355.089	1	2
355.260	1	5
355.431	1	5
355.602	1	7
355.773	1	2
355.944	1	-1
356.115	1	2
356.286	1	6
356.457	1	5
356.628	1	-2
356.799	1	3
356.970	1	0
357.141	1	11
357.311	1	8
357.482	1	0
357.653	1	3
357.824	1	6
357.995	1	6
358.166	1	-1
358.337	1	-3
358.508	1	-3
358.679	1	1
358.850	1	-2
359.021	1	3
359.192	1	6
359.363	1	-2
359.533	1	4
359.704	1	15
359.875	1	-2
360.046	1	1
360.217	1	-12
360.388	1	-1
360.559	1	3
360.730	1	-2
360.901	1	4
361.072	1	1
361.243	1	1
361.414	1	3
361.584	1	6
361.755	1	7
361.926	1	2
362.097	1	-6
362.268	1	7
362.439	1	8
362.610	1	-2
362.781	1	12
362.952	1	-2
363.123	1	5
363.293	1	-1
363.464	1	7
363.635	1	11
363.806	1	8
363.977	1	10
364.148	1	2
364.319	1	-1
364.490	1	9
364.661	1	0
364.832	1	2
365.002	1	-1
365.173	1	-3
365.344	1	6
365.515	1	6
365.686	1	1
365.857	1	11
366.028	1	9
366.199	1	10
366.370	1	3
366.540	1	2
366.711	1	2
366.882	1	-3
367.053	1	4
367.224	1	-4
367.395	1	13
367.566	1	14
367.737	1	9
367.908	1	-6
368.078	1	3
368.249	1	11
368.420	1	8
368.591	1	4
368.762	1	-5
368.933	1	16
369.104	1	3
369.274	1	19
369.445	1	13
369.616	1	7
369.787	1	-11
369.958	1	5
370.129	1	0
370.300	1	3
370.471	1	3
370.641	1	6
370.812	1	12
370.983	1	-6
371.154	1	0
371.325	1	10
371.496	1	-6
371.667	1	6
371.837	1	11
372.008	1	19
372.179	1	7
372.350	1	2
372.521	1	7
372.692	1	-3
372.863	1	-1
373.033	1	9
373.204	1	18
373.375	1	-2
373.546	1	16
373.717	1	0
373.888	1	10
374.059	1	3
374.229	1	13
374.400	1	11
374.571	1	8
374.742	1	-1
374.913	1	8
375.084	1	3
375.254	1	14
375.425	1	2
375.596	1	0
375.767	1	-4
375.938	1	-10
376.109	1	-2
376.279	1	11
376.450	1	-2
376.621	1	8
376.792	1	8
376.963	1	2
377.134	1	0
377.304	1	10
377.475	1	7
377.646	1	-5
377.817	1	-2
377.988	1	7
378.159	1	5
378.329	1	14
378.500	1	8
378.671	1	0
378.842	1	4
379.013	1	10
379.184	1	14
379.354	1	10
379.525	1	-9
379.696	1	15
379.867	1	3
380.038	1	7
380.209	1	-3
380.379	1	9
380.550	1	0
380.721	1	3
380.892	1	14
381.063	1	5
381.233	1	14
381.404	1	4
381.575	1	11
381.746	1	0
381.917	1	-5
382.087	1	-3
382.258	1	10
382.429	1	4
382.600	1	8
382.771	1	11
382.941	1	0
383.112	1	1
383.283	1	18
383.454	1	5
383.625	1	-3
383.795	1	-5
383.966	1	6
384.137	1	12
384.308	1	5
384.479	1	14
384.649	1	5
384.820	1	11
384.991	1	-8
385.162	1	10
385.333	1	5
385.503	1	13
385.674	1	12
385.845	1	-2
386.016	1	12
386.187	1	7
386.357	1	1
386.528	1	-2
386.699	1	3
386.870	1	11
387.041	1	9
387.211	1	6
387.382	1	1
387.553	1	12
387.724	1	-1
387.894	1	15
388.065	1	18
388.236	1	10
388.407	1	21
388.578	1	14
388.748	1	7
388.919	1	14
389.090	1	9
389.261	1	11
389.431	1	11
389.602	1	-1
389.773	1	-1
389.944	1	-1
390.114	1	15
390.285	1	13
390.456	1	11
390.627	1	10
390.798	1	7
390.968	1	-5
391.139	1	5
391.310	1	14
391.481	1	10
391.651	1	7
391.822	1	16
391.993	1	4
392.164	1	-2
392.334	1	-5
392.505	1	-2
392.676	1	8
392.847	1	12
393.017	1	7
393.188	1	-4
393.359	1	5
393.530	1	7
393.700	1	19
393.871	1	10
394.042	1	11
394.213	1	17
394.383	1	12
394.554	1	21
394.725	1	7
394.896	1	17
395.066	1	13
395.237	1	-3
395.408	1	8
395.579	1	8
395.749	1	13
395.920	1	8
396.091	1	15
396.262	1	-2
396.432	1	6
396.603	1	10
396.774	1	11
396.945	1	10
397.115	1	-4
397.286	1	10
397.457	1	8
397.627	1	9
397.798	1	14
397.969	1	12
398.140	1	5
398.310	1	13
398.481	1	10
398.652	1	8
398.823	1	6
398.993	1	24
399.164	1	6
399.335	1	5
399.505	1	15
399.676	1	9
399.847	1	8
400.018	1	12
400.188	1	11
400.359	1	16
400.530	1	2
400.700	1	4
400.871	1	9
401.042	1	18
401.213	1	12
401.383	1	5
401.554	1	17
401.725	1	2
401.895	1	-2
402.066	1	14
402.237	1	12
402.408	1	17
402.578	1	9
402.749	1	19
402.920	1	18
403.090	1	6
403.261	1	11
403.432	1	13
403.603	1	-2
403.773	1	15
403.944	1	18
404.115	1	5
404.285	1	25
404.456	1	3
404.627	1	8
404.797	1	15
404.968	1	9
405.139	1	15
405.310	1	2
405.480	1	4
405.651	1	20
405.822	1	21
405.992	1	7
406.163	1	8
406.334	1	16
406.504	1	6
406.675	1	12
406.846	1	4
407.016	1	7
407.187	1	12
407.358	1	6
407.528	1	13
407.699	1	5
407.870	1	13
408.041	1	6
408.211	1	2
408.382	1	8
408.553	1	1
408.723	1	16
408.894	1	3
409.065	1	25
409.235	1	6
409.406	1	10
409.577	1	11
409.747	1	19
409.918	1	7
410.089	1	2
410.259	1	-1
410.430	1	7
410.601	1	5
410.771	1	13
410.942	1	8
411.113	1	21
411.283	1	13
411.454	1	14
411.625	1	18
411.795	1	-3
411.966	1	-4
412.137	1	4
412.307	1	1
412.478	1	21
412.649	1	10
412.819	1	-1
412.990	1	14
413.161	1	9
413.331	1	5
413.502	1	-6
413.672	1	15
413.843	1	16
414.014	1	20
414.184	1	11
414.355	1	11
414.526	1	16
414.696	1	11
414.867	1	8
415.038	1	4
415.208	1	0
415.379	1	7
415.550	1	17
415.720	1	9
415.891	1	19
416.062	1	6
416.232	1	18
416.403	1	9
416.573	1	2
416.744	1	7
416.915	1	3
417.085	1	9
417.256	1	7
417.427	1	23
417.597	1	13
417.768	1	9
417.939	1	16
418.109	1	-9
418.280	1	10
418.450	1	21
418.621	1	5
418.792	1	0
418.962	1	11
419.133	1	11
419.304	1	8
419.474	1	-1
419.645	1	9
419.815	1	16
419.986	1	1
420.157	1	15
420.327	1	14
420.498	1	1
420.669	1	17
420.839	1	9
421.010	1	11
421.180	1	-7
421.351	1	24
421.522	1	13
421.692	1	10
421.863	1	10
422.033	1	13
422.204	1	12
422.375	1	3
422.545	1	16
422.716	1	-4
422.886	1	10
423.057	1	3
423.228	1	13
423.398	1	19
423.569	1	11
423.740	1	6
423.910	1	18
424.081	1	10
424.251	1	11
424.422	1	12
424.593	1	5
424.763	1	12
424.934	1	17
425.104	1	12
425.275	1	18
425.445	1	19
425.616	1	14
425.787	1	17
425.957	1	5
426.128	1	18
426.298	1	11
426.469	1	0
426.640	1	14
426.810	1	13
426.981	1	11
427.151	1	4
427.322	1	-7
427.493	1	0
427.663	1	5
427.834	1	2
428.004	1	14
428.175	1	16
428.345	1	23
428.516	1	2
428.687	1	11
428.857	1	6
429.028	1	10
429.198	1	6
429.369	1	8
429.540	1	8
429.710	1	18
429.881	1	16
430.051	1	0
430.222	1	15
430.392	1	3
430.563	1	15
430.734	1	20
430.904	1	10
431.075	1	1
431.245	1	8
431.416	1	-6
431.586	1	5
431.757	1	10
431.927	1	-3
432.098	1	17
432.269	1	7
432.439	1	19
432.610	1	11
432.780	1	5
432.951	1	3
433.121	1	11
433.292	1	8
433.462	1	7
433.633	1	17
433.804	1	1
433.974	1	-3
434.145	1	3
434.315	1	14
434.486	1	0
434.656	1	5
434.827	1	2
434.997	1	23
435.168	1	4
435.339	1	7
435.509	1	15
435.680	1	18
435.850	1	10
436.021	1	15
436.191	1	16
436.362	1	18
436.532	1	6
436.703	1	11
436.873	1	5
437.044	1	13
437.214	1	18
437.385	1	20
437.556	1	16
437.726	1	18
437.897	1	3
438.067	1	4
438.238	1	14
438.408	1	6
438.579	1	6
438.749	1	3
438.920	1	7
439.090	1	7
439.261	1	6
439.431	1	8
439.602	1	14
439.772	1	9
439.943	1	17
440.113	1	8
440.284	1	12
440.455	1	16
440.625	1	8
440.796	1	3
440.966	1	16
441.137	1	6
441.307	1	8
441.478	1	6
441.648	1	6
441.819	1	2
441.989	1	3
442.160	1	16
442.330	1	14
442.501	1	3
442.671	1	6
442.842	1	7
443.012	1	2
443.183	1	6
443.353	1	15
443.524	1	13
443.694	1	1
443.865	1	17
444.035	1	1
444.206	1	14
444.376	1	21
444.547	1	10
444.717	1	16
444.888	1	11
445.058	1	15
445.229	1	4
445.399	1	2
445.570	1	6
445.740	1	12
445.911	1	16
446.081	1	22
446.252	1	-2
446.422	1	12
446.593	1	9
446.763	1	19
446.934	1	12
447.104	1	1
447.275	1	19
447.445	1	10
447.616	1	17
447.786	1	1
447.957	1	11
448.127	1	18
448.298	1	8
448.468	1	7
448.639	1	3
448.809	1	-1
448.979	1	14
449.150	1	14
449.320	1	17
449.491	1	13
449.661	1	23
449.832	1	6
450.002	1	7
450.173	1	7
450.343	1	10
450.514	1	7
450.684	1	11
450.855	1	8
451.025	1	9
451.196	1	14
451.366	1	9
451.537	1	6
451.707	1	13
451.878	1	3
452.048	1	6
452.218	1	2
452.389	1	10
452.559	1	10
452.730	1	4
452.900	1	10
453.071	1	4
453.241	1	10
453.412	1	-2
453.582	1	1
453.753	1	7
453.923	1	11
454.093	1	19
454.264	1	6
454.434	1	18
454.605	1	10
454.775	1	8
454.946	1	10
455.116	1	5
455.287	1	0
455.457	1	6
455.628	1	7
455.798	1	6
455.968	1	12
456.139	1	6
456.309	1	16
456.480	1	2
456.650	1	17
456.821	1	10
456.991	1	9
457.161	1	4
457.332	1	5
457.502	1	12
457.673	1	21
457.843	1	3
458.014	1	8
458.184	1	12
458.355	1	0
458.525	1	7
458.695	1	6
458.866	1	18
459.036	1	10
459.207	1	13
459.377	1	20
459.548	1	1
459.718	1	10
459.888	1	14
460.059	1	12
460.229	1	10
460.400	1	8
460.570	1	12
460.740	1	3
460.911	1	17
461.081	1	14
461.252	1	2
461.422	1	11
461.593	1	11
461.763	1	12
461.933	1	3
462.104	1	8
462.274	1	-3
462.445	1	0
462.615	1	13
462.785	1	19
462.956	1	11
463.126	1	6
463.297	1	9
463.467	1	12
463.638	1	14
463.808	1	22
463.978	1	18
464.149	1	8
464.319	1	20
464.490	1	16
464.660	1	20
464.830	1	3
465.001	1	22
465.171	1	-6
465.342	1	5
465.512	1	6
465.682	1	5
465.853	1	1
466.023	1	7
466.194	1	10
466.364	1	13
466.534	1	11
466.705	1	-2
466.875	1	16
467.045	1	-1
467.216	1	2
467.386	1	12
467.557	1	13
467.727	1	18
467.897	1	1
468.068	1	-2
468.238	1	15
468.409	1	12
468.579	1	7
468.749	1	11
468.920	1	4
469.090	1	17
469.260	1	6
469.431	1	10
469.601	1	9
469.772	1	-11
469.942	1	14
470.112	1	5
470.283	1	19
470.453	1	18
470.623	1	4
470.794	1	8
470.964	1	8
471.135	1	14
471.305	1	0
471.475	1	9
471.646	1	4
471.816	1	5
471.986	1	5
472.157	1	8
472.327	1	12
472.497	1	18
472.668	1	3
472.838	1	5
473.009	1	10
473.179	1	11
473.349	1	15
473.520	1	3
473.690	1	19
473.860	1	12
474.031	1	10
474.201	1	6
474.371	1	8
474.542	1	5
474.712	1	2
474.882	1	6
475.053	1	16
475.223	1	2
475.394	1	6
475.564	1	15
475.734	1	12
475.905	1	1
476.075	1	1
476.245	1	4
476.416	1	0
476.586	1	7
476.756	1	4
476.927	1	1
477.097	1	2
477.267	1	10
477.438	1	8
477.608	1	9
477.778	1	4
477.949	1	3
478.119	1	5
478.289	1	-5
478.460	1	-2
478.630	1	16
478.800	1	12
478.971	1	14
479.141	1	8
479.311	1	11
479.482	1	7
479.652	1	14
479.822	1	2
479.993	1	5
480.163	1	9
480.333	1	12
480.504	1	0
480.674	1	14
480.844	1	0
481.015	1	4
481.185	1	-4
481.355	1	17
481.525	1	8
481.696	1	6
481.866	1	4
482.036	1	16
482.207	1	7
482.377	1	7
482.547	1	-2
482.718	1	0
482.888	1	10
483.058	1	-2
483.229	1	7
483.399	1	2
483.569	1	5
483.740	1	1
483.910	1	6
484.080	1	-4
484.250	1	3
484.421	1	15
484.591	1	15
484.761	1	7
484.932	1	-1
485.102	1	17
485.272	1	5
485.443	1	6
485.613	1	10
485.783	1	17
485.953	1	6
486.124	1	6
486.294	1	-3
486.464	1	-4
486.635	1	8
486.805	1	6
486.975	1	4
487.146	1	-1
487.316	1	5
487.486	1	9
487.656	1	-1
487.827	1	5
487.997	1	-7
488.167	1	5
488.338	1	4
488.508	1	-2
488.678	1	10
488.848	1	8
489.019	1	0
489.189	1	5
489.359	1	2
489.529	1	5
489.700	1	-2
489.870	1	-15
490.040	1	4
490.211	1	6
490.381	1	1
490.551	1	5
490.721	1	10
490.892	1	10
491.062	1	-2
491.232	1	8
491.402	1	6
491.573	1	-1
491.743	1	-2
491.913	1	-3
492.084	1	7
492.254	1	10
492.424	1	16
492.594	1	18
492.765	1	-5
492.935	1	-5
493.105	1	7
493.275	1	-4
493.446	1	6
493.616	1	2
493.786	1	-3
493.956	1	-3
494.127	1	17
494.297	1	2
494.467	1	12
494.637	1	5
494.808	1	2
494.978	1	1
495.148	1	5
495.318	1	20
495.489	1	-5
495.659	1	-2
495.829	1	7
495.999	1	3
496.170	1	-13
496.340	1	10
496.510	1	0
496.680	1	1
496.851	1	6
497.021	1	-6
497.191	1	12
497.361	1	1
497.532	1	-2
497.702	1	-3
497.872	1	9
498.042	1	7
498.213	1	16
498.383	1	14
498.553	1	0
498.723	1	-2
498.894	1	-4
499.064	1	3
499.234	1	12
499.404	1	-2
499.574	1	0
499.745	1	8
499.915	1	6
500.085	1	8
500.255	1	-1
500.426	1	9
500.596	1	0
500.766	1	5
500.936	1	12
501.106	1	1
501.277	1	8
501.447	1	9
501.617	1	6
501.787	1	7
501.958	1	7
502.128	1	-6
502.298	1	9
502.468	1	3
502.638	1	9
502.809	1	1
502.979	1	17
503.149	1	-2
503.319	1	13
503.489	1	-1
503.660	1	3
503.830	1	2
504.000	1	3
504.170	1	-2
504.340	1	5
504.511	1	7
504.681	1	-9
504.851	1	-4
505.021	1	15
505.192	1	2
505.362	1	-5
505.532	1	8
505.702	1	7
505.872	1	4
506.043	1	13
506.213	1	3
506.383	1	1
506.553	1	8
506.723	1	-1
506.893	1	3
507.064	1	-3
507.234	1	6
507.404	1	4
507.574	1	1
507.744	1	9
507.915	1	10
508.085	1	7
508.255	1	0
508.425	1	0
508.595	1	-7
508.766	1	-4
508.936	1	7
509.106	1	1
509.276	1	12
509.446	1	4
509.616	1	9
509.787	1	7
509.957	1	7
510.127	1	-4
510.297	1	1
510.467	1	-10
510.638	1	9
510.808	1	-5
510.978	1	8
511.148	1	22
511.318	1	10
511.488	1	11
511.659	1	-2
511.829	1	11
511.999	1	8
512.169	1	6
512.339	1	13
512.509	1	8
512.680	1	7
512.850	1	5
513.020	1	2
513.190	1	2
513.360	1	6
513.530	1	5
513.700	1	11
513.871	1	6
514.041	1	-7
514.211	1	7
514.381	1	13
514.551	1	-3
514.721	1	2
514.892	1	-9
515.062	1	5
515.232	1	0
515.402	1	1
515.572	1	-1
515.742	1	-2
515.912	1	0
516.083	1	-1
516.253	1	2
516.423	1	5
516.593	1	3
516.763	1	4
516.933	1	-7
517.104	1	-9
517.274	1	-21
517.444	1	1
517.614	1	3
517.784	1	2
517.954	1	5
518.124	1	7
518.294	1	10
518.465	1	-3
518.635	1	-5
518.805	1	18
518.975	1	-2
519.145	1	9
519.315	1	-5
519.485	1	-4
519.656	1	-2
519.826	1	9
519.996	1	1
520.166	1	16
520.336	1	-1
520.506	1	-1
520.676	1	5
520.846	1	3
521.017	1	-3
521.187	1	14
521.357	1	3
521.527	1	7
521.697	1	1
521.867	1	4
522.037	1	-10
522.207	1	0
522.377	1	5
522.548	1	10
522.718	1	1
522.888	1	2
523.058	1	0
523.228	1	7
523.398	1	-2
523.568	1	0
523.738	1	-4
523.909	1	-3
524.079	1	4
524.249	1	1
524.419	1	-2
524.589	1	-4
524.759	1	3
524.929	1	-9
525.099	1	6
525.269	1	9
525.439	1	-2
525.610	1	-2
525.780	1	5
525.950	1	3
526.120	1	-1
526.290	1	-7
526.460	1	-2
526.630	1	9
526.800	1	9
526.970	1	9
527.140	1	0
527.311	1	-1
527.481	1	2
527.651	1	3
527.821	1	2
527.991	1	-1
528.161	1	10
528.331	1	11
528.501	1	12
528.671	1	-1
528.841	1	10
529.011	1	-1
529.181	1	4
529.352	1	3
529.522	1	2
529.692	1	2
529.862	1	11
530.032	1	4
530.202	1	3
530.372	1	4
530.542	1	-1
530.712	1	4
530.882	1	-1
531.052	1	13
531.222	1	-6
531.392	1	4
531.563	1	5
531.733	1	1
531.903	1	6
532.073	1	0
532.243	1	6
532.413	1	15
532.583	1	7
532.753	1	3
532.923	1	12
533.093	1	3
533.263	1	-7
533.433	1	14
533.603	1	0
533.773	1	-8
533.943	1	11
534.113	1	8
534.284	1	2
534.454	1	-7
534.624	1	2
534.794	1	0
534.964	1	10
535.134	1	8
535.304	1	15
535.474	1	-9
535.644	1	5
535.814	1	5
535.984	1	6
536.154	1	3
536.324	1	14
536.494	1	6
536.664	1	7
536.834	1	5
537.004	1	1
537.174	1	9
537.344	1	3
537.514	1	-6
537.685	1	3
537.855	1	8
538.025	1	6
538.195	1	6
538.365	1	-4
538.535	1	-6
538.705	1	7
538.875	1	0
539.045	1	10
539.215	1	-7
539.385	1	-6
539.555	1	8
539.725	1	-2
539.895	1	3
540.065	1	-3
540.235	1	5
540.405	1	-1
540.575	1	1
540.745	1	-4
540.915	1	2
541.085	1	-8
541.255	1	-1
541.425	1	12
541.595	1	5
541.765	1	13
541.935	1	1
542.105	1	9
542.275	1	-5
542.445	1	0
542.615	1	0
542.785	1	-11
542.955	1	-6
543.125	1	-2
543.295	1	-6
543.465	1	19
543.635	1	13
543.805	1	9
543.975	1	0
544.145	1	0
544.315	1	-1
544.485	1	4
544.655	1	10
544.825	1	3
544.995	1	10
545.165	1	8
545.335	1	-1
545.505	1	13
545.675	1	-9
545.845	1	10
546.015	1	8
546.185	1	-2
546.355	1	2
546.525	1	10
546.695	1	3
546.865	1	10
547.035	1	5
547.205	1	1
547.375	1	9
547.545	1	19
547.715	1	12
547.885	1	6
548.055	1	-15
548.225	1	4
548.395	1	-2
548.565	1	9
548.735	1	-3
548.905	1	-6
549.075	1	5
549.245	1	0
549.415	1	0
549.585	1	6
549.755	1	1
549.925	1	5
550.095	1	0
550.265	1	5
550.435	1	-13
550.605	1	-5
550.775	1	-6
550.945	1	11
551.115	1	-5
551.285	1	8
551.455	1	7
551.625	1	-6
551.795	1	5
551.965	1	7
552.135	1	-3
552.305	1	-8
552.475	1	1
552.645	1	2
552.815	1	-1
552.985	1	-3
553.155	1	-3
553.325	1	6
553.495	1	7
553.665	1	12
553.835	1	9
554.004	1	-8
554.174	1	-4
554.344	1	0
554.514	1	8
554.684	1	4
554.854	1	-6
555.024	1	-1
555.194	1	2
555.364	1	2
555.534	1	2
555.704	1	15
555.874	1	-6
556.044	1	9
556.214	1	4
556.384	1	-1
556.554	1	10
556.724	1	6
556.894	1	-1
557.064	1	15
557.234	1	0
557.404	1	-6
557.573	1	-7
557.743	1	2
557.913	1	-5
558.083	1	10
558.253	1	-4
558.423	1	-5
558.593	1	8
558.763	1	6
558.933	1	6
559.103	1	2
559.273	1	-4
559.443	1	4
559.613	1	2
559.783	1	8
559.953	1	2
560.122	1	0
560.292	1	3
560.462	1	-2
560.632	1	-2
560.802	1	-2
560.972	1	3
561.142	1	1
561.312	1	9
561.482	1	9
561.652	1	-3
561.822	1	-7
561.992	1	-6
562.162	1	1
562.331	1	8
562.501	1	-4
562.671	1	-4
562.841	1	5
563.011	1	-8
563.181	1	8
563.351	1	1
563.521	1	2
563.691	1	7
563.861	1	2
564.031	1	2
564.201	1	-4
564.370	1	-4
564.540	1	-9
564.710	1	0
564.880	1	2
565.050	1	2
565.220	1	-13
565.390	1	3
565.560	1	6
565.730	1	-1
565.900	1	4
566.069	1	2
566.239	1	4
566.409	1	3
566.579	1	-1
566.749	1	-1
566.919	1	5
567.089	1	3
567.259	1	4
567.429	1	10
567.599	1	4
567.768	1	0
567.938	1	-10
568.108	1	9
568.278	1	0
568.448	1	4
568.618	1	3
568.788	1	-6
568.958	1	-3
569.128	1	-6
569.297	1	0
569.467	1	7
569.637	1	4
569.807	1	3
569.977	1	5
570.147	1	6
570.317	1	2
570.487	1	9
570.656	1	1
570.826	1	5
570.996	1	-2
571.166	1	5
571.336	1	-4
571.506	1	4
571.676	1	-9
571.846	1	-4
572.015	1	0
572.185	1	0
572.355	1	7
572.525	1	-3
572.695	1	6
572.865	1	10
573.035	1	2
573.205	1	-3
573.374	1	10
573.544	1	1
573.714	1	-4
573.884	1	3
574.054	1	-1
574.224	1	-5
574.394	1	-4
574.563	1	4
574.733	1	2
574.903	1	3
575.073	1	-3
575.243	1	3
575.413	1	-2
575.583	1	0
575.752	1	-1
575.922	1	8
576.092	1	1
576.262	1	5
576.432	1	3
576.602	1	0
576.772	1	-3
576.941	1	7
577.111	1	6
577.281	1	9
577.451	1	4
577.621	1	5
577.791	1	1
577.960	1	0
578.130	1	2
578.300	1	5
578.470	1	4
578.640	1	-1
578.810	1	1
578.979	1	0
579.149	1	-3
579.319	1	-4
579.489	1	-1
579.659	1	-1
579.829	1	0
579.998	1	-8
580.168	1	-3
580.338	1	6
580.508	1	0
580.678	1	12
580.848	1	6
581.017	1	5
581.187	1	9
581.357	1	-5
581.527	1	-1
581.697	1	-11
581.867	1	11
582.036	1	4
582.206	1	-5
582.376	1	12
582.546	1	9
582.716	1	2
582.885	1	-2
583.055	1	-3
583.225	1	-5
583.395	1	5
583.565	1	-3
583.735	1	-4
583.904	1	5
584.074	1	-5
584.244	1	10
584.414	1	-7
584.584	1	5
584.753	1	3
584.923	1	2
585.093	1	-8
585.263	1	-8
585.433	1	9
585.602	1	-4
585.772	1	4
585.942	1	-3
586.112	1	3
586.282	1	15
586.451	1	-5
586.621	1	1
586.791	1	-9
586.961	1	4
587.131	1	3
587.300	1	8
587.470	1	1
587.640	1	-9
587.810	1	3
587.980	1	-5
588.149	1	3
588.319	1	0
588.489	1	-1
588.659	1	13
588.829	1	-5
588.998	1	-7
589.168	1	-4
589.338	1	-1
589.508	1	-4
589.677	1	-5
589.847	1	0
590.017	1	-2
590.187	1	10
590.357	1	0
590.526	1	12
590.696	1	4
590.866	1	-2
591.036	1	0
591.205	1	-4
591.375	1	5
591.545	1	-6
591.715	1	3
591.885	1	-5
592.054	1	4
592.224	1	2
592.394	1	2
592.564	1	-1
592.733	1	-3
592.903	1	0
593.073	1	-5
593.243	1	-7
593.412	1	0
593.582	1	4
593.752	1	2
593.922	1	5
594.091	1	-5
594.261	1	-7
594.431	1	5
594.601	1	8
594.771	1	7
594.940	1	-4
595.110	1	-6
595.280	1	10
595.450	1	-2
595.619	1	11
595.789	1	9
595.959	1	5
596.129	1	-10
596.298	1	-4
596.468	1	-3
596.638	1	0
596.808	1	-7
596.977	1	3
597.147	1	12
597.317	1	6
597.487	1	-2
597.656	1	0
597.826	1	2
597.996	1	-6
598.166	1	2
598.335	1	7
598.505	1	-9
598.675	1	-8
598.844	1	2
599.014	1	3
599.184	1	-1
599.354	1	1
599.523	1	6
599.693	1	5
599.863	1	7
600.033	1	-1
600.202	1	11
600.372	1	-1
600.542	1	7
600.712	1	4
600.881	1	12
601.051	1	8
601.221	1	6
601.390	1	2
601.560	1	3
601.730	1	-1
601.900	1	16
602.069	1	-16
602.239	1	6
602.409	1	1
602.578	1	12
602.748	1	2
602.918	1	-4
603.088	1	3
603.257	1	8
603.427	1	12
603.597	1	-2
603.767	1	6
603.936	1	3
604.106	1	2
604.276	1	2
604.445	1	-6
604.615	1	-1
604.785	1	6
604.954	1	2
605.124	1	-6
605.294	1	-5
605.464	1	-8
605.633	1	17
605.803	1	1
605.973	1	7
606.142	1	4
606.312	1	3
606.482	1	-5
606.652	1	11
606.821	1	8
606.991	1	-4
607.161	1	9
607.330	1	4
607.500	1	10
607.670	1	8
607.839	1	3
608.009	1	3
608.179	1	-2
608.348	1	-4
608.518	1	-3
608.688	1	5
608.858	1	-6
609.027	1	2
609.197	1	9
609.367	1	-5
609.536	1	12
609.706	1	5
609.876	1	2
610.045	1	1
610.215	1	10
610.385	1	-8
610.554	1	14
610.724	1	5
610.894	1	3
611.063	1	6
611.233	1	-2
611.403	1	-4
611.572	1	4
611.742	1	2
611.912	1	-1
612.081	1	5
612.251	1	-2
612.421	1	-1
612.590	1	-4
612.760	1	12
612.930	1	5
613.099	1	2
613.269	1	-5
613.439	1	-2
613.608	1	9
613.778	1	-6
613.948	1	11
614.117	1	-1
614.287	1	2
614.457	1	4
614.626	1	13
614.796	1	5
614.966	1	3
615.135	1	10
615.305	1	9
615.475	1	-1
615.644	1	3
615.814	1	-1
615.984	1	5
616.153	1	4
616.323	1	9
616.493	1	6
616.662	1	4
616.832	1	-1
617.002	1	5
617.171	1	5
617.341	1	0
617.511	1	1
617.680	1	-4
617.850	1	2
618.019	1	6
618.189	1	2
618.359	1	-3
618.528	1	1
618.698	1	4
618.868	1	3
619.037	1	2
619.207	1	-3
619.377	1	-1
619.546	1	-2
619.716	1	2
619.885	1	4
620.055	1	10
620.225	1	7
620.394	1	6
620.564	1	-14
620.734	1	0
620.903	1	4
621.073	1	-11
621.242	1	-5
621.412	1	9
621.582	1	-2
621.751	1	2
621.921	1	19
622.091	1	5
622.260	1	3
622.430	1	8
622.599	1	8
622.769	1	-11
622.939	1	-2
623.108	1	3
623.278	1	15
623.448	1	5
623.617	1	0
623.787	1	4
623.956	1	13
624.126	1	-9
624.296	1	4
624.465	1	-1
624.635	1	3
624.804	1	-1
624.974	1	11
625.144	1	17
625.313	1	3
625.483	1	7
625.652	1	16
625.822	1	7
625.992	1	7
626.161	1	-10
626.331	1	-4
626.501	1	2
626.670	1	-3
626.840	1	6
627.009	1	2
627.179	1	-7
627.348	1	17
627.518	1	-1
627.688	1	5
627.857	1	8
628.027	1	-15
628.196	1	0
628.366	1	-1
628.536	1	8
628.705	1	2
628.875	1	5
629.044	1	12
629.214	1	-9
629.384	1	-3
629.553	1	-3
629.723	1	-5
629.892	1	0
630.062	1	-5
630.232	1	7
630.401	1	2
630.571	1	11
630.740	1	-6
630.910	1	6
631.079	1	-1
631.249	1	1
631.419	1	2
631.588	1	6
631.758	1	8
631.927	1	1
632.097	1	3
632.266	1	-6
632.436	1	3
632.606	1	0
632.775	1	10
632.945	1	-3
633.114	1	10
633.284	1	1
633.453	1	3
633.623	1	14
633.793	1	6
633.962	1	-3
634.132	1	-2
634.301	1	-1
634.471	1	1
634.640	1	7
634.810	1	11
634.979	1	0
635.149	1	3
635.319	1	9
635.488	1	3
635.658	1	12
635.827	1	0
635.997	1	3
636.166	1	3
636.336	1	11
636.505	1	5
636.675	1	-1
636.845	1	0
637.014	1	1
637.184	1	11
637.353	1	-5
637.523	1	1
637.692	1	4
637.862	1	0
638.031	1	-2
638.201	1	5
638.370	1	7
638.540	1	3
638.710	1	8
638.879	1	8
639.049	1	-1
639.218	1	7
639.388	1	-4
639.557	1	9
639.727	1	11
639.896	1	6
640.066	1	8
640.235	1	-2
640.405	1	-4
640.574	1	-5
640.744	1	-2
640.914	1	-1
641.083	1	3
641.253	1	3
641.422	1	8
641.592	1	-10
641.761	1	2
641.931	1	-1
642.100	1	9
642.270	1	0
642.439	1	4
642.609	1	9
642.778	1	3
642.948	1	8
643.117	1	11
643.287	1	-5
643.456	1	0
643.626	1	-6
643.795	1	3
643.965	1	1
644.134	1	0
644.304	1	8
644.473	1	7
644.643	1	-6
644.812	1	12
644.982	1	1
645.151	1	4
645.321	1	0
645.490	1	11
645.660	1	0
645.829	1	1
645.999	1	1
646.168	1	3
646.338	1	6
646.507	1	-2
646.677	1	0
646.846	1	-1
647.016	1	-2
647.185	1	4
647.355	1	-8
647.524	1	6
647.694	1	-2
647.863	1	2
648.033	1	2
648.202	1	8
648.372	1	6
648.541	1	-3
648.711	1	0
648.880	1	0
649.050	1	7
649.219	1	3
649.389	1	1
649.558	1	-1
649.728	1	9
649.897	1	-2
650.067	1	3
650.236	1	-5
650.406	1	7
650.575	1	12
650.745	1	0
650.914	1	7
651.084	1	-1
651.253	1	1
651.423	1	4
651.592	1	-8
651.762	1	-3
651.931	1	10
652.101	1	-1
652.270	1	-8
652.440	1	2
652.609	1	10
652.778	1	1
652.948	1	6
653.117	1	12
653.287	1	1
653.456	1	-7
653.626	1	7
653.795	1	0
653.965	1	-9
654.134	1	-6
654.304	1	1
654.473	1	0
654.643	1	11
654.812	1	7
654.982	1	-1
655.151	1	10
655.320	1	7
655.490	1	-2
655.659	1	5
655.829	1	1
655.998	1	-1
656.168	1	-8
656.337	1	1
656.507	1	-2
656.676	1	1
656.846	1	2
657.015	1	-3
657.184	1	0
657.354	1	8
657.523	1	8
657.693	1	-8
657.862	1	-7
658.032	1	5
658.201	1	-1
658.371	1	-6
658.540	1	-3
658.709	1	-9
658.879	1	9
659.048	1	7
659.218	1	-2
659.387	1	1
659.557	1	6
659.726	1	0
659.895	1	13
660.065	1	8
660.234	1	10
660.404	1	1
660.573	1	3
660.743	1	-7
660.912	1	-3
661.081	1	-12
661.251	1	2
661.420	1	7
661.590	1	3
661.759	1	3
661.929	1	2
662.098	1	-1
662.267	1	9
662.437	1	8
662.606	1	-1
662.776	1	-2
662.945	1	14
663.115	1	12
663.284	1	-3
663.453	1	1
663.623	1	12
663.792	1	6
663.962	1	-11
664.131	1	0
664.300	1	-14
664.470	1	3
664.639	1	1
664.809	1	3
664.978	1	4
665.148	1	-10
665.317	1	-1
665.486	1	4
665.656	1	5
665.825	1	11
665.995	1	1
666.164	1	13
666.333	1	-2
666.503	1	2
666.672	1	11
666.842	1	7
667.011	1	2
667.180	1	10
667.350	1	0
667.519	1	0
667.689	1	0
667.858	1	7
668.027	1	5
668.197	1	10
668.366	1	0
668.536	1	-9
668.705	1	-7
668.874	1	7
669.044	1	8
669.213	1	6
669.382	1	4
669.552	1	4
669.721	1	5
669.891	1	2
670.060	1	-1
670.229	1	-5
670.399	1	-8
670.568	1	0
670.738	1	1
670.907	1	1
671.076	1	4
671.246	1	0
671.415	1	7
671.584	1	3
671.754	1	-3
671.923	1	12
672.093	1	-1
672.262	1	3
672.431	1	6
672.601	1	-2
672.770	1	0
672.939	1	-1
673.109	1	-1
673.278	1	2
673.448	1	0
673.617	1	10
673.786	1	4
