325.333	1	-1
325.504	1	6
325.675	1	4
325.846	1	-3
326.017	1	3
326.188	1	2
326.359	1	12
326.531	1	9
326.702	1	14
326.873	1	2
327.044	1	2
327.215	1	-2
327.386	1	7
327.557	1	-1
327.728	1	6
327.899	1	3
328.070	1	20
328.241	1	10
328.412	1	-3
328.583	1	12
328.754	1	1
328.926	1	4
329.097	1	-2
329.268	1	-1
329.439	1	7
329.610	1	6
329.781	1	8
329.952	1	12
330.123	1	9
330.294	1	4
330.465	1	6
330.636	1	15
330.807	1	1
330.978	1	1
331.149	1	-1
331.320	1	12
331.492	1	-11
331.663	1	4
331.834	1	-2
332.005	1	19
332.176	1	3
332.347	1	15
332.518	1	24
332.689	1	4
332.860	1	-1
333.031	1	8
333.202	1	11
333.373	1	8
333.544	1	9
333.715	1	6
333.886	1	-2
334.057	1	2
334.228	1	-5
334.399	1	6
334.570	1	-6
334.741	1	1
334.912	1	4
335.084	1	-1
335.255	1	12
335.426	1	3
335.597	1	13
335.768	1	-4
335.939	1	-3
336.110	1	12
336.281	1	10
336.452	1	-2
336.623	1	0
336.794	1	0
336.965	1	2
337.136	1	12
337.307	1	8
337.478	1	6
337.649	1	-2
337.820	1	2
337.991	1	9
338.162	1	11
338.333	1	8
338.504	1	4
338.675	1	10
338.846	1	1
339.017	1	17
339.188	1	15
339.359	1	11
339.530	1	8
339.701	1	-9
339.872	1	5
340.043	1	-1
340.214	1	9
340.385	1	12
340.556	1	10
340.727	1	15
340.898	1	15
341.069	1	-10
341.240	1	-1
341.411	1	19
341.582	1	4
341.753	1	0
341.924	1	5
342.095	1	14
342.266	1	5
342.437	1	-5
342.608	1	8
342.779	1	6
342.950	1	-2
343.121	1	6
343.292	1	6
343.463	1	6
343.634	1	5
343.805	1	10
343.976	1	2
344.147	1	3
344.318	1	1
344.489	1	1
344.660	1	12
344.831	1	4
345.002	1	16
345.173	1	11
345.344	1	2
345.515	1	1
345.686	1	6
345.857	1	7
346.028	1	-2
346.199	1	9
346.370	1	5
346.541	1	11
346.712	1	-5
346.883	1	15
347.054	1	-3
347.225	1	0
347.396	1	-2
347.567	1	7
347.738	1	3
347.909	1	4
348.080	1	15
348.251	1	1
348.422	1	7
348.593	1	5
348.764	1	2
348.935	1	6
349.106	1	20
349.277	1	4
349.448	1	2
349.619	1	14
349.790	1	9
349.961	1	6
350.132	1	9
350.303	1	14
350.474	1	10
350.645	1	22
350.816	1	10
350.987	1	8
351.157	1	4
351.328	1	2
351.499	1	16
351.670	1	2
351.841	1	4
352.012	1	8
352.183	1	3
352.354	1	9
352.525	1	18
352.696	1	17
352.867	1	18
353.038	1	-4
353.209	1	11
353.380	1	3
353.551	1	4
353.722	1	12
353.893	1	10
354.064	1	3
354.235	1	11
354.406	1	14
354.576	1	8
354.747	1	22
354.918	1	8
355.089	1	7
355.260	1	16
355.431	1	6
355.602	1	5
355.773	1	4
355.944	1	5
356.115	1	4
356.286	1	12
356.457	1	7
356.628	1	6
356.799	1	1
356.970	1	8
357.141	1	16
357.311	1	2
357.482	1	0
357.653	1	1
357.824	1	11
357.995	1	9
358.166	1	7
358.337	1	4
358.508	1	-3
358.679	1	4
358.850	1	5
359.021	1	17
359.192	1	10
359.363	1	-1
359.533	1	12
359.704	1	8
359.875	1	-3
360.046	1	4
360.217	1	-4
360.388	1	-5
360.559	1	17
360.730	1	2
360.901	1	-2
361.072	1	0
361.243	1	1
361.414	1	12
361.584	1	10
361.755	1	9
361.926	1	3
362.097	1	9
362.268	1	16
362.439	1	15
362.610	1	2
362.781	1	10
362.952	1	7
363.123	1	5
363.293	1	4
363.464	1	16
363.635	1	18
363.806	1	7
363.977	1	24
364.148	1	10
364.319	1	0
364.490	1	4
364.661	1	6
364.832	1	9
365.002	1	-1
365.173	1	5
365.344	1	9
365.515	1	16
365.686	1	-4
365.857	1	8
366.028	1	11
366.199	1	10
366.370	1	11
366.540	1	2
366.711	1	10
366.882	1	8
367.053	1	14
367.224	1	7
367.395	1	9
367.566	1	11
367.737	1	6
367.908	1	7
368.078	1	7
368.249	1	10
368.420	1	4
368.591	1	14
368.762	1	-7
368.933	1	14
369.104	1	5
369.274	1	5
369.445	1	18
369.616	1	-7
369.787	1	1
369.958	1	20
370.129	1	4
370.300	1	2
370.471	1	14
370.641	1	14
370.812	1	12
370.983	1	6
371.154	1	12
371.325	1	13
371.496	1	5
371.667	1	18
371.837	1	16
372.008	1	10
372.179	1	7
372.350	1	15
372.521	1	0
372.692	1	0
372.863	1	4
373.033	1	14
373.204	1	13
373.375	1	12
373.546	1	15
373.717	1	17
373.888	1	10
374.059	1	13
374.229	1	6
374.400	1	20
374.571	1	14
374.742	1	2
374.913	1	20
375.084	1	14
375.254	1	9
375.425	1	13
375.596	1	8
375.767	1	9
375.938	1	4
376.109	1	-3
376.279	1	20
376.450	1	12
376.621	1	18
376.792	1	16
376.963	1	9
377.134	1	-1
377.304	1	10
377.475	1	10
377.646	1	3
377.817	1	7
377.988	1	8
378.159	1	18
378.329	1	17
378.500	1	2
378.671	1	9
378.842	1	12
379.013	1	-1
379.184	1	22
379.354	1	22
379.525	1	8
379.696	1	20
379.867	1	-1
380.038	1	11
380.209	1	9
380.379	1	14
380.550	1	6
380.721	1	6
380.892	1	20
381.063	1	11
381.233	1	16
381.404	1	8
381.575	1	1
381.746	1	6
381.917	1	12
382.087	1	14
382.258	1	10
382.429	1	9
382.600	1	11
382.771	1	11
382.941	1	7
383.112	1	6
383.283	1	14
383.454	1	10
383.625	1	12
383.795	1	6
383.966	1	9
384.137	1	14
384.308	1	16
384.479	1	23
384.649	1	18
384.820	1	16
384.991	1	4
385.162	1	21
385.333	1	16
385.503	1	22
385.674	1	19
385.845	1	15
386.016	1	13
386.187	1	12
386.357	1	11
386.528	1	4
386.699	1	22
386.870	1	14
387.041	1	15
387.211	1	7
387.382	1	15
387.553	1	21
387.724	1	12
387.894	1	18
388.065	1	23
388.236	1	19
388.407	1	18
388.578	1	21
388.748	1	11
388.919	1	22
389.090	1	10
389.261	1	12
389.431	1	13
389.602	1	2
389.773	1	6
389.944	1	12
390.114	1	22
390.285	1	18
390.456	1	14
390.627	1	23
390.798	1	17
390.968	1	10
391.139	1	7
391.310	1	13
391.481	1	17
391.651	1	21
391.822	1	19
391.993	1	18
392.164	1	4
392.334	1	10
392.505	1	12
392.676	1	12
392.847	1	24
393.017	1	17
393.188	1	18
393.359	1	15
393.530	1	17
393.700	1	31
393.871	1	10
394.042	1	13
394.213	1	20
394.383	1	23
394.554	1	14
394.725	1	18
394.896	1	25
395.066	1	16
395.237	1	15
395.408	1	12
395.579	1	12
395.749	1	23
395.920	1	16
396.091	1	21
396.262	1	3
396.432	1	6
396.603	1	7
396.774	1	20
396.945	1	9
397.115	1	11
397.286	1	30
397.457	1	12
397.627	1	12
397.798	1	13
397.969	1	21
398.140	1	17
398.310	1	16
398.481	1	17
398.652	1	5
398.823	1	17
398.993	1	28
399.164	1	14
399.335	1	10
399.505	1	21
399.676	1	10
399.847	1	14
400.018	1	10
400.188	1	16
400.359	1	23
400.530	1	14
400.700	1	16
400.871	1	21
401.042	1	21
401.213	1	18
401.383	1	21
401.554	1	21
401.725	1	12
401.895	1	5
402.066	1	25
402.237	1	19
402.408	1	15
402.578	1	8
402.749	1	19
402.920	1	17
403.090	1	19
403.261	1	16
403.432	1	25
403.603	1	-2
403.773	1	16
403.944	1	22
404.115	1	13
404.285	1	30
404.456	1	23
404.627	1	17
404.797	1	21
404.968	1	11
405.139	1	10
405.310	1	5
405.480	1	16
405.651	1	21
405.822	1	29
405.992	1	28
406.163	1	20
406.334	1	23
406.504	1	3
406.675	1	7
406.846	1	16
407.016	1	6
407.187	1	12
407.358	1	27
407.528	1	19
407.699	1	10
407.870	1	23
408.041	1	11
408.211	1	9
408.382	1	10
408.553	1	-5
408.723	1	19
408.894	1	9
409.065	1	30
409.235	1	10
409.406	1	27
409.577	1	17
409.747	1	15
409.918	1	12
410.089	1	13
410.259	1	5
410.430	1	14
410.601	1	23
410.771	1	13
410.942	1	6
411.113	1	22
411.283	1	15
411.454	1	9
411.625	1	21
411.795	1	14
411.966	1	18
412.137	1	12
412.307	1	15
412.478	1	22
412.649	1	19
412.819	1	12
412.990	1	22
413.161	1	17
413.331	1	18
413.502	1	7
413.672	1	22
413.843	1	23
414.014	1	29
414.184	1	11
414.355	1	18
414.526	1	23
414.696	1	20
414.867	1	17
415.038	1	15
415.208	1	2
415.379	1	10
415.550	1	20
415.720	1	11
415.891	1	18
416.062	1	26
416.232	1	22
416.403	1	22
416.573	1	9
416.744	1	14
416.915	1	23
417.085	1	14
417.256	1	24
417.427	1	24
417.597	1	15
417.768	1	23
417.939	1	20
418.109	1	10
418.280	1	25
418.450	1	29
418.621	1	13
418.792	1	6
418.962	1	14
419.133	1	23
419.304	1	15
419.474	1	15
419.645	1	11
419.815	1	13
419.986	1	21
420.157	1	22
420.327	1	20
420.498	1	12
420.669	1	30
420.839	1	16
421.010	1	27
421.180	1	8
421.351	1	19
421.522	1	35
421.692	1	22
421.863	1	18
422.033	1	36
422.204	1	21
422.375	1	15
422.545	1	11
422.716	1	12
422.886	1	21
423.057	1	7
423.228	1	22
423.398	1	16
423.569	1	26
423.740	1	12
423.910	1	29
424.081	1	20
424.251	1	5
424.422	1	13
424.593	1	22
424.763	1	16
424.934	1	15
425.104	1	11
425.275	1	22
425.445	1	28
425.616	1	24
425.787	1	26
425.957	1	19
426.128	1	18
426.298	1	18
426.469	1	11
426.640	1	15
426.810	1	19
426.981	1	19
427.151	1	16
427.322	1	6
427.493	1	14
427.663	1	14
427.834	1	11
428.004	1	25
428.175	1	18
428.345	1	23
428.516	1	25
428.687	1	13
428.857	1	7
429.028	1	12
429.198	1	28
429.369	1	18
429.540	1	16
429.710	1	17
429.881	1	18
430.051	1	17
430.222	1	14
430.392	1	20
430.563	1	24
430.734	1	20
430.904	1	19
431.075	1	10
431.245	1	14
431.416	1	0
431.586	1	15
431.757	1	18
431.927	1	12
432.098	1	14
432.269	1	21
432.439	1	23
432.610	1	19
432.780	1	4
432.951	1	19
433.121	1	28
433.292	1	22
433.462	1	16
433.633	1	24
433.804	1	10
433.974	1	11
434.145	1	14
434.315	1	19
434.486	1	5
434.656	1	12
434.827	1	11
434.997	1	23
435.168	1	20
435.339	1	20
435.509	1	22
435.680	1	14
435.850	1	21
436.021	1	23
436.191	1	19
436.362	1	11
436.532	1	23
436.703	1	25
436.873	1	19
437.044	1	20
437.214	1	24
437.385	1	32
437.556	1	18
437.726	1	17
437.897	1	12
438.067	1	17
438.238	1	19
438.408	1	13
438.579	1	14
438.749	1	5
438.920	1	11
439.090	1	10
439.261	1	19
439.431	1	9
439.602	1	22
439.772	1	17
439.943	1	27
440.113	1	7
440.284	1	22
440.455	1	18
440.625	1	10
440.796	1	15
440.966	1	7
441.137	1	22
441.307	1	18
441.478	1	21
441.648	1	20
441.819	1	9
441.989	1	10
442.160	1	20
442.330	1	29
442.501	1	15
442.671	1	12
442.842	1	17
443.012	1	18
443.183	1	17
443.353	1	20
443.524	1	27
443.694	1	15
443.865	1	22
444.035	1	18
444.206	1	13
444.376	1	22
444.547	1	9
444.717	1	28
444.888	1	18
445.058	1	16
445.229	1	17
445.399	1	16
445.570	1	15
445.740	1	14
445.911	1	16
446.081	1	23
446.252	1	12
446.422	1	23
446.593	1	10
446.763	1	26
446.934	1	20
447.104	1	11
447.275	1	21
447.445	1	17
447.616	1	14
447.786	1	7
447.957	1	15
448.127	1	27
448.298	1	19
448.468	1	21
448.639	1	13
448.809	1	15
448.979	1	15
449.150	1	20
449.320	1	29
449.491	1	18
449.661	1	19
449.832	1	18
450.002	1	16
450.173	1	12
450.343	1	27
450.514	1	10
450.684	1	14
450.855	1	18
451.025	1	19
451.196	1	17
451.366	1	12
451.537	1	13
451.707	1	18
451.878	1	18
452.048	1	14
452.218	1	14
452.389	1	17
452.559	1	9
452.730	1	18
452.900	1	21
453.071	1	16
453.241	1	17
453.412	1	4
453.582	1	8
453.753	1	22
453.923	1	24
454.093	1	32
454.264	1	15
454.434	1	23
454.605	1	25
454.775	1	11
454.946	1	24
455.116	1	14
455.287	1	13
455.457	1	12
455.628	1	5
455.798	1	16
455.968	1	17
456.139	1	14
456.309	1	20
456.480	1	17
456.650	1	33
456.821	1	26
456.991	1	14
457.161	1	15
457.332	1	10
457.502	1	28
457.673	1	10
457.843	1	25
458.014	1	13
458.184	1	13
458.355	1	14
458.525	1	21
458.695	1	15
458.866	1	31
459.036	1	15
459.207	1	12
459.377	1	10
459.548	1	5
459.718	1	4
459.888	1	26
460.059	1	19
460.229	1	16
460.400	1	12
460.570	1	21
460.740	1	22
460.911	1	15
461.081	1	15
461.252	1	6
461.422	1	9
461.593	1	15
461.763	1	17
461.933	1	15
462.104	1	17
462.274	1	13
462.445	1	7
462.615	1	17
462.785	1	10
462.956	1	11
463.126	1	17
463.297	1	23
463.467	1	9
463.638	1	7
463.808	1	15
463.978	1	10
464.149	1	7
464.319	1	19
464.490	1	12
464.660	1	20
464.830	1	15
465.001	1	12
465.171	1	14
465.342	1	14
465.512	1	14
465.682	1	11
465.853	1	5
466.023	1	11
466.194	1	20
466.364	1	18
466.534	1	11
466.705	1	8
466.875	1	14
467.045	1	9
467.216	1	23
467.386	1	20
467.557	1	13
467.727	1	18
467.897	1	9
468.068	1	1
468.238	1	14
468.409	1	8
468.579	1	14
468.749	1	11
468.920	1	7
469.090	1	20
469.260	1	18
469.431	1	21
469.601	1	6
469.772	1	6
469.942	1	13
470.112	1	19
470.283	1	20
470.453	1	26
470.623	1	15
470.794	1	6
470.964	1	15
471.135	1	20
471.305	1	21
471.475	1	12
471.646	1	16
471.816	1	16
471.986	1	24
472.157	1	18
472.327	1	13
472.497	1	13
472.668	1	17
472.838	1	15
473.009	1	13
473.179	1	18
473.349	1	20
473.520	1	11
473.690	1	12
473.860	1	27
474.031	1	18
474.201	1	15
474.371	1	12
474.542	1	23
474.712	1	11
474.882	1	6
475.053	1	17
475.223	1	-2
475.394	1	7
475.564	1	5
475.734	1	23
475.905	1	21
476.075	1	10
476.245	1	19
476.416	1	10
476.586	1	6
476.756	1	15
476.927	1	5
477.097	1	11
477.267	1	14
477.438	1	21
477.608	1	9
477.778	1	2
477.949	1	6
478.119	1	11
478.289	1	2
478.460	1	2
478.630	1	22
478.800	1	17
478.971	1	12
479.141	1	14
479.311	1	16
479.482	1	18
479.652	1	17
479.822	1	12
479.993	1	5
480.163	1	19
480.333	1	13
480.504	1	11
480.674	1	16
480.844	1	12
481.015	1	2
481.185	1	16
481.355	1	17
481.525	1	16
481.696	1	15
481.866	1	13
482.036	1	15
482.207	1	15
482.377	1	18
482.547	1	4
482.718	1	1
482.888	1	12
483.058	1	5
483.229	1	15
483.399	1	20
483.569	1	14
483.740	1	14
483.910	1	4
484.080	1	13
484.250	1	1
484.421	1	13
484.591	1	10
484.761	1	8
484.932	1	23
485.102	1	17
485.272	1	8
485.443	1	12
485.613	1	19
485.783	1	19
485.953	1	17
486.124	1	14
486.294	1	8
486.464	1	13
486.635	1	9
486.805	1	10
486.975	1	6
487.146	1	2
487.316	1	12
487.486	1	10
487.656	1	11
487.827	1	5
487.997	1	4
488.167	1	8
488.338	1	9
488.508	1	16
488.678	1	16
488.848	1	6
489.019	1	9
489.189	1	0
489.359	1	9
489.529	1	13
489.700	1	4
489.870	1	-1
490.040	1	-4
490.211	1	13
490.381	1	20
490.551	1	13
490.721	1	3
490.892	1	15
491.062	1	2
491.232	1	3
491.402	1	12
491.573	1	1
491.743	1	10
491.913	1	-2
492.084	1	13
492.254	1	12
492.424	1	12
492.594	1	14
492.765	1	5
492.935	1	6
493.105	1	15
493.275	1	8
493.446	1	13
493.616	1	9
493.786	1	12
493.956	1	7
494.127	1	21
494.297	1	6
494.467	1	17
494.637	1	19
494.808	1	8
494.978	1	6
495.148	1	3
495.318	1	16
495.489	1	-5
495.659	1	2
495.829	1	12
495.999	1	10
496.170	1	7
496.340	1	13
496.510	1	14
496.680	1	3
496.851	1	8
497.021	1	0
497.191	1	10
497.361	1	4
497.532	1	9
497.702	1	6
497.872	1	17
498.042	1	22
498.213	1	18
498.383	1	13
498.553	1	2
498.723	1	7
498.894	1	13
499.064	1	11
499.234	1	8
499.404	1	6
499.574	1	0
499.745	1	13
499.915	1	13
500.085	1	15
500.255	1	-2
500.426	1	3
500.596	1	2
500.766	1	11
500.936	1	15
501.106	1	7
501.277	1	11
501.447	1	10
501.617	1	16
501.787	1	12
501.958	1	7
502.128	1	3
502.298	1	8
502.468	1	19
502.638	1	-1
502.809	1	5
502.979	1	10
503.149	1	11
503.319	1	9
503.489	1	7
503.660	1	-5
503.830	1	16
504.000	1	8
504.170	1	11
504.340	1	5
504.511	1	9
504.681	1	1
504.851	1	7
505.021	1	9
505.192	1	0
505.362	1	10
505.532	1	12
505.702	1	14
505.872	1	8
506.043	1	17
506.213	1	13
506.383	1	0
506.553	1	12
506.723	1	11
506.893	1	6
507.064	1	-2
507.234	1	1
507.404	1	4
507.574	1	-5
507.744	1	10
507.915	1	15
508.085	1	1
508.255	1	2
508.425	1	1
508.595	1	4
508.766	1	1
508.936	1	6
509.106	1	0
509.276	1	8
509.446	1	9
509.616	1	14
509.787	1	17
509.957	1	0
510.127	1	13
510.297	1	6
510.467	1	6
510.638	1	7
510.808	1	5
510.978	1	2
511.148	1	16
511.318	1	5
511.488	1	6
511.659	1	-4
511.829	1	14
511.999	1	14
512.169	1	3
512.339	1	6
512.509	1	5
512.680	1	-4
512.850	1	3
513.020	1	0
513.190	1	-9
513.360	1	9
513.530	1	10
513.700	1	10
513.871	1	9
514.041	1	3
514.211	1	10
514.381	1	9
514.551	1	6
514.721	1	-1
514.892	1	-2
515.062	1	7
515.232	1	14
515.402	1	8
515.572	1	-2
515.742	1	6
515.912	1	9
516.083	1	7
516.253	1	10
516.423	1	6
516.593	1	13
516.763	1	3
516.933	1	-8
517.104	1	8
517.274	1	-5
517.444	1	6
517.614	1	5
517.784	1	14
517.954	1	13
518.124	1	-1
518.294	1	11
518.465	1	7
518.635	1	2
518.805	1	16
518.975	1	2
519.145	1	10
519.315	1	5
519.485	1	-4
519.656	1	17
519.826	1	0
519.996	1	1
520.166	1	12
520.336	1	6
520.506	1	-4
520.676	1	8
520.846	1	0
521.017	1	8
521.187	1	12
521.357	1	-2
521.527	1	7
521.697	1	9
521.867	1	-5
522.037	1	-7
522.207	1	-4
522.377	1	6
522.548	1	5
522.718	1	5
522.888	1	5
523.058	1	8
523.228	1	11
523.398	1	12
523.568	1	9
523.738	1	3
523.909	1	6
524.079	1	9
524.249	1	10
524.419	1	9
524.589	1	2
524.759	1	4
524.929	1	1
525.099	1	-2
525.269	1	8
525.439	1	3
525.610	1	6
525.780	1	11
525.950	1	-4
526.120	1	3
526.290	1	-1
526.460	1	-1
526.630	1	13
526.800	1	14
526.970	1	16
527.140	1	2
527.311	1	0
527.481	1	12
527.651	1	9
527.821	1	-3
527.991	1	6
528.161	1	2
528.331	1	10
528.501	1	3
528.671	1	4
528.841	1	5
529.011	1	6
529.181	1	7
529.352	1	2
529.522	1	-5
529.692	1	4
529.862	1	3
530.032	1	9
530.202	1	6
530.372	1	2
530.542	1	6
530.712	1	4
530.882	1	11
531.052	1	11
531.222	1	-2
531.392	1	11
531.563	1	-3
531.733	1	4
531.903	1	8
532.073	1	-3
532.243	1	5
532.413	1	22
532.583	1	-4
532.753	1	7
532.923	1	24
533.093	1	13
533.263	1	-10
533.433	1	5
533.603	1	5
533.773	1	5
533.943	1	-2
534.113	1	2
534.284	1	1
534.454	1	0
534.624	1	18
534.794	1	0
534.964	1	-2
535.134	1	16
535.304	1	5
535.474	1	-4
535.644	1	3
535.814	1	8
535.984	1	7
536.154	1	6
536.324	1	12
536.494	1	9
536.664	1	10
536.834	1	2
537.004	1	2
537.174	1	3
537.344	1	8
537.514	1	2
537.685	1	9
537.855	1	2
538.025	1	3
538.195	1	9
538.365	1	-5
538.535	1	8
538.705	1	14
538.875	1	9
539.045	1	-5
539.215	1	-10
539.385	1	3
539.555	1	0
539.725	1	-1
539.895	1	8
540.065	1	1
540.235	1	7
540.405	1	10
540.575	1	-2
540.745	1	4
540.915	1	-8
541.085	1	2
541.255	1	-6
541.425	1	2
541.595	1	3
541.765	1	17
541.935	1	-8
542.105	1	4
542.275	1	8
542.445	1	-4
542.615	1	2
542.785	1	-2
542.955	1	1
543.125	1	0
543.295	1	-10
543.465	1	5
543.635	1	3
543.805	1	7
543.975	1	-1
544.145	1	1
544.315	1	0
544.485	1	10
544.655	1	8
544.825	1	7
544.995	1	12
545.165	1	12
545.335	1	7
545.505	1	12
545.675	1	-3
545.845	1	7
546.015	1	6
546.185	1	9
546.355	1	5
546.525	1	10
546.695	1	5
546.865	1	14
547.035	1	1
547.205	1	6
547.375	1	5
547.545	1	10
547.715	1	13
547.885	1	14
548.055	1	-4
548.225	1	17
548.395	1	-2
548.565	1	10
548.735	1	5
548.905	1	-9
549.075	1	9
549.245	1	4
549.415	1	7
549.585	1	11
549.755	1	4
549.925	1	4
550.095	1	2
550.265	1	5
550.435	1	-4
550.605	1	1
550.775	1	6
550.945	1	14
551.115	1	3
551.285	1	7
551.455	1	13
551.625	1	-3
551.795	1	-1
551.965	1	7
552.135	1	-1
552.305	1	-1
552.475	1	5
552.645	1	12
552.815	1	-2
552.985	1	-2
553.155	1	0
553.325	1	7
553.495	1	2
553.665	1	6
553.835	1	-3
554.004	1	-2
554.174	1	-3
554.344	1	5
554.514	1	3
554.684	1	-4
554.854	1	10
555.024	1	9
555.194	1	4
555.364	1	-1
555.534	1	-2
555.704	1	14
555.874	1	-3
556.044	1	7
556.214	1	4
556.384	1	11
556.554	1	14
556.724	1	8
556.894	1	-4
557.064	1	-2
557.234	1	2
557.404	1	4
557.573	1	-11
557.743	1	9
557.913	1	1
558.083	1	5
558.253	1	-11
558.423	1	-3
558.593	1	10
558.763	1	3
558.933	1	2
559.103	1	12
559.273	1	11
559.443	1	5
559.613	1	1
559.783	1	2
559.953	1	8
560.122	1	-3
560.292	1	7
560.462	1	2
560.632	1	9
560.802	1	8
560.972	1	13
561.142	1	10
561.312	1	4
561.482	1	10
561.652	1	1
561.822	1	-5
561.992	1	0
562.162	1	9
562.331	1	11
562.501	1	-8
562.671	1	10
562.841	1	7
563.011	1	-5
563.181	1	8
563.351	1	-5
563.521	1	15
563.691	1	4
563.861	1	-11
564.031	1	-10
564.201	1	3
564.370	1	3
564.540	1	-9
564.710	1	1
564.880	1	4
565.050	1	3
565.220	1	1
565.390	1	12
565.560	1	13
565.730	1	-5
565.900	1	-9
566.069	1	8
566.239	1	6
566.409	1	12
566.579	1	2
566.749	1	-4
566.919	1	1
567.089	1	8
567.259	1	10
567.429	1	12
567.599	1	1
567.768	1	4
567.938	1	-2
568.108	1	5
568.278	1	-2
568.448	1	-4
568.618	1	-1
568.788	1	-9
568.958	1	-7
569.128	1	-9
569.297	1	-2
569.467	1	3
569.637	1	12
569.807	1	-1
569.977	1	4
570.147	1	1
570.317	1	3
570.487	1	9
570.656	1	2
570.826	1	8
570.996	1	7
571.166	1	-4
571.336	1	-2
571.506	1	-7
571.676	1	0
571.846	1	-2
572.015	1	12
572.185	1	0
572.355	1	9
572.525	1	-2
572.695	1	0
572.865	1	14
573.035	1	-7
573.205	1	-6
573.374	1	8
573.544	1	1
573.714	1	5
573.884	1	4
574.054	1	4
574.224	1	6
574.394	1	-3
574.563	1	11
574.733	1	4
574.903	1	0
575.073	1	-6
575.243	1	9
575.413	1	4
575.583	1	-4
575.752	1	8
575.922	1	6
576.092	1	-3
576.262	1	9
576.432	1	10
576.602	1	1
576.772	1	-5
576.941	1	14
577.111	1	11
577.281	1	9
577.451	1	-1
577.621	1	6
577.791	1	0
577.960	1	1
578.130	1	-2
578.300	1	1
578.470	1	10
578.640	1	-1
578.810	1	7
578.979	1	-5
579.149	1	-2
579.319	1	0
579.489	1	-1
579.659	1	1
579.829	1	16
579.998	1	-5
580.168	1	-6
580.338	1	7
580.508	1	2
580.678	1	11
580.848	1	-5
581.017	1	3
581.187	1	1
581.357	1	3
581.527	1	8
581.697	1	-1
581.867	1	12
582.036	1	11
582.206	1	-2
582.376	1	1
582.546	1	14
582.716	1	8
582.885	1	3
583.055	1	5
583.225	1	-4
583.395	1	7
583.565	1	3
583.735	1	4
583.904	1	7
584.074	1	-5
584.244	1	6
584.414	1	2
584.584	1	6
584.753	1	15
584.923	1	8
585.093	1	4
585.263	1	-1
585.433	1	14
585.602	1	1
585.772	1	2
585.942	1	4
586.112	1	6
586.282	1	3
586.451	1	-2
586.621	1	0
586.791	1	10
586.961	1	9
587.131	1	-1
587.300	1	6
587.470	1	-4
587.640	1	-10
587.810	1	0
587.980	1	-6
588.149	1	3
588.319	1	3
588.489	1	1
588.659	1	15
588.829	1	-7
588.998	1	-5
589.168	1	2
589.338	1	0
589.508	1	20
589.677	1	2
589.847	1	10
590.017	1	7
590.187	1	4
590.357	1	-3
590.526	1	15
590.696	1	-8
590.866	1	-1
591.036	1	-2
591.205	1	0
591.375	1	3
591.545	1	15
591.715	1	-2
591.885	1	-2
592.054	1	12
592.224	1	-1
592.394	1	1
592.564	1	-1
592.733	1	4
592.903	1	-1
593.073	1	0
593.243	1	3
593.412	1	1
593.582	1	3
593.752	1	10
593.922	1	4
594.091	1	-6
594.261	1	-6
594.431	1	2
594.601	1	6
594.771	1	14
594.940	1	6
595.110	1	6
595.280	1	13
595.450	1	2
595.619	1	3
595.789	1	10
595.959	1	-3
596.129	1	-2
596.298	1	1
596.468	1	-4
596.638	1	7
596.808	1	-1
596.977	1	-1
597.147	1	12
597.317	1	-2
597.487	1	11
597.656	1	8
597.826	1	2
597.996	1	-11
598.166	1	4
598.335	1	7
598.505	1	-5
598.675	1	0
598.844	1	0
599.014	1	0
599.184	1	6
599.354	1	1
599.523	1	0
599.693	1	2
599.863	1	11
600.033	1	1
600.202	1	10
600.372	1	2
600.542	1	1
600.712	1	19
600.881	1	10
601.051	1	8
601.221	1	13
601.390	1	4
601.560	1	9
601.730	1	-3
601.900	1	14
602.069	1	-12
602.239	1	4
602.409	1	4
602.578	1	7
602.748	1	-4
602.918	1	6
603.088	1	4
603.257	1	6
603.427	1	8
603.597	1	6
603.767	1	4
603.936	1	12
604.106	1	8
604.276	1	5
604.445	1	-2
604.615	1	4
604.785	1	6
604.954	1	9
605.124	1	4
605.294	1	7
605.464	1	-10
605.633	1	7
605.803	1	3
605.973	1	9
606.142	1	6
606.312	1	9
606.482	1	-5
606.652	1	10
606.821	1	-3
606.991	1	-7
607.161	1	12
607.330	1	11
607.500	1	10
607.670	1	12
607.839	1	4
608.009	1	10
608.179	1	-3
608.348	1	1
608.518	1	-7
608.688	1	7
608.858	1	9
609.027	1	1
609.197	1	9
609.367	1	-4
609.536	1	15
609.706	1	-3
609.876	1	-5
610.045	1	13
610.215	1	14
610.385	1	3
610.554	1	-4
610.724	1	8
610.894	1	14
611.063	1	1
611.233	1	4
611.403	1	-1
611.572	1	2
611.742	1	-1
611.912	1	5
612.081	1	0
612.251	1	8
612.421	1	2
612.590	1	7
612.760	1	5
612.930	1	4
613.099	1	9
613.269	1	3
613.439	1	5
613.608	1	2
613.778	1	0
613.948	1	18
614.117	1	4
614.287	1	10
614.457	1	-2
614.626	1	6
614.796	1	3
614.966	1	3
615.135	1	6
615.305	1	8
615.475	1	1
615.644	1	4
615.814	1	-2
615.984	1	7
616.153	1	8
616.323	1	2
616.493	1	16
616.662	1	-3
616.832	1	7
617.002	1	-2
617.171	1	3
617.341	1	-1
617.511	1	-5
617.680	1	2
617.850	1	-2
618.019	1	5
618.189	1	0
618.359	1	0
618.528	1	6
618.698	1	10
618.868	1	-8
619.037	1	9
619.207	1	4
619.377	1	-7
619.546	1	-1
619.716	1	7
619.885	1	8
620.055	1	15
620.225	1	14
620.394	1	0
620.564	1	-10
620.734	1	11
620.903	1	12
621.073	1	15
621.242	1	-1
621.412	1	12
621.582	1	-4
621.751	1	-1
621.921	1	2
622.091	1	1
622.260	1	10
622.430	1	2
622.599	1	-2
622.769	1	-5
622.939	1	1
623.108	1	7
623.278	1	23
623.448	1	12
623.617	1	7
623.787	1	5
623.956	1	10
624.126	1	-7
624.296	1	16
624.465	1	3
624.635	1	8
624.804	1	-6
624.974	1	8
625.144	1	15
625.313	1	1
625.483	1	7
625.652	1	12
625.822	1	9
625.992	1	8
626.161	1	-2
626.331	1	-4
626.501	1	10
626.670	1	5
626.840	1	9
627.009	1	9
627.179	1	-6
627.348	1	4
627.518	1	6
627.688	1	1
627.857	1	5
628.027	1	-2
628.196	1	2
628.366	1	2
628.536	1	7
628.705	1	0
628.875	1	14
629.044	1	7
629.214	1	4
629.384	1	2
629.553	1	7
629.723	1	-5
629.892	1	-3
630.062	1	-7
630.232	1	10
630.401	1	8
630.571	1	13
630.740	1	5
630.910	1	16
631.079	1	7
631.249	1	10
631.419	1	5
631.588	1	-4
631.758	1	2
631.927	1	5
632.097	1	9
632.266	1	3
632.436	1	15
632.606	1	-2
632.775	1	11
632.945	1	-10
633.114	1	10
633.284	1	3
633.453	1	4
633.623	1	7
633.793	1	6
633.962	1	6
634.132	1	3
634.301	1	-1
634.471	1	-3
634.640	1	7
634.810	1	1
634.979	1	7
635.149	1	-3
635.319	1	10
635.488	1	3
635.658	1	9
635.827	1	0
635.997	1	5
636.166	1	3
636.336	1	8
636.505	1	11
636.675	1	2
636.845	1	8
637.014	1	4
637.184	1	17
637.353	1	6
637.523	1	3
637.692	1	9
637.862	1	-2
638.031	1	-2
638.201	1	4
638.370	1	6
638.540	1	7
638.710	1	10
638.879	1	9
639.049	1	2
639.218	1	11
639.388	1	4
639.557	1	10
639.727	1	18
639.896	1	3
640.066	1	10
640.235	1	-2
640.405	1	11
640.574	1	-9
640.744	1	4
640.914	1	-8
641.083	1	-4
641.253	1	-7
641.422	1	-1
641.592	1	1
641.761	1	-3
641.931	1	11
642.100	1	15
642.270	1	8
642.439	1	-6
642.609	1	10
642.778	1	6
642.948	1	14
643.117	1	9
643.287	1	-2
643.456	1	10
643.626	1	7
643.795	1	10
643.965	1	9
644.134	1	8
644.304	1	17
644.473	1	5
644.643	1	-2
644.812	1	-1
644.982	1	-5
645.151	1	13
645.321	1	13
645.490	1	13
645.660	1	12
645.829	1	-1
645.999	1	0
646.168	1	-4
646.338	1	6
646.507	1	-4
646.677	1	-5
646.846	1	2
647.016	1	10
647.185	1	2
647.355	1	5
647.524	1	-2
647.694	1	-3
647.863	1	8
648.033	1	5
648.202	1	-1
648.372	1	2
648.541	1	-6
648.711	1	8
648.880	1	-1
649.050	1	4
649.219	1	11
649.389	1	4
649.558	1	15
649.728	1	6
649.897	1	-7
650.067	1	4
650.236	1	1
650.406	1	11
650.575	1	11
650.745	1	7
650.914	1	10
651.084	1	4
651.253	1	-2
651.423	1	0
651.592	1	-6
651.762	1	1
651.931	1	10
652.101	1	9
652.270	1	-1
652.440	1	17
652.609	1	0
652.778	1	-1
652.948	1	-1
653.117	1	2
653.287	1	-1
653.456	1	-2
653.626	1	12
653.795	1	-9
653.965	1	-1
654.134	1	-10
654.304	1	9
654.473	1	-7
654.643	1	15
654.812	1	-1
654.982	1	-4
655.151	1	11
655.320	1	15
655.490	1	9
655.659	1	17
655.829	1	5
655.998	1	-5
656.168	1	7
656.337	1	-1
656.507	1	0
656.676	1	3
656.846	1	7
657.015	1	3
657.184	1	2
657.354	1	13
657.523	1	7
657.693	1	-8
657.862	1	-8
658.032	1	11
658.201	1	4
658.371	1	6
658.540	1	6
658.709	1	-2
658.879	1	8
659.048	1	6
659.218	1	-4
659.387	1	5
659.557	1	4
659.726	1	-2
659.895	1	-5
660.065	1	8
660.234	1	8
660.404	1	3
660.573	1	8
660.743	1	-4
660.912	1	-6
661.081	1	-11
661.251	1	12
661.420	1	12
661.590	1	5
661.759	1	-2
661.929	1	11
662.098	1	13
662.267	1	9
662.437	1	8
662.606	1	-2
662.776	1	-1
662.945	1	9
663.115	1	3
663.284	1	-3
663.453	1	20
663.623	1	19
663.792	1	13
663.962	1	-3
664.131	1	3
664.300	1	-6
664.470	1	4
664.639	1	-2
664.809	1	8
664.978	1	3
665.148	1	4
665.317	1	3
665.486	1	7
665.656	1	14
665.825	1	5
665.995	1	3
666.164	1	7
666.333	1	9
666.503	1	-2
666.672	1	9
666.842	1	-3
667.011	1	5
667.180	1	6
667.350	1	-3
667.519	1	3
667.689	1	1
667.858	1	2
668.027	1	11
668.197	1	9
668.366	1	5
668.536	1	-5
668.705	1	5
668.874	1	1
669.044	1	12
669.213	1	13
669.382	1	9
669.552	1	10
669.721	1	6
669.891	1	4
670.060	1	11
670.229	1	1
670.399	1	1
670.568	1	-2
670.738	1	7
670.907	1	-10
671.076	1	8
671.246	1	0
671.415	1	2
671.584	1	7
671.754	1	1
671.923	1	6
672.093	1	1
672.262	1	3
672.431	1	13
672.601	1	10
672.770	1	2
672.939	1	-4
673.109	1	13
673.278	1	7
673.448	1	4
673.617	1	4
673.786	1	8
