325.333	1	6
325.504	1	20
325.675	1	12
325.846	1	8
326.017	1	6
326.188	1	9
326.359	1	7
326.531	1	14
326.702	1	12
326.873	1	11
327.044	1	8
327.215	1	6
327.386	1	13
327.557	1	11
327.728	1	5
327.899	1	13
328.070	1	7
328.241	1	9
328.412	1	5
328.583	1	16
328.754	1	-5
328.926	1	10
329.097	1	10
329.268	1	-4
329.439	1	1
329.610	1	6
329.781	1	16
329.952	1	4
330.123	1	9
330.294	1	6
330.465	1	14
330.636	1	20
330.807	1	8
330.978	1	8
331.149	1	14
331.320	1	9
331.492	1	3
331.663	1	2
331.834	1	5
332.005	1	10
332.176	1	11
332.347	1	22
332.518	1	17
332.689	1	5
332.860	1	13
333.031	1	12
333.202	1	7
333.373	1	10
333.544	1	3
333.715	1	11
333.886	1	9
334.057	1	3
334.228	1	9
334.399	1	12
334.570	1	-9
334.741	1	17
334.912	1	12
335.084	1	6
335.255	1	12
335.426	1	13
335.597	1	9
335.768	1	4
335.939	1	5
336.110	1	14
336.281	1	4
336.452	1	5
336.623	1	4
336.794	1	7
336.965	1	-2
337.136	1	9
337.307	1	9
337.478	1	10
337.649	1	-6
337.820	1	0
337.991	1	13
338.162	1	13
338.333	1	13
338.504	1	14
338.675	1	29
338.846	1	14
339.017	1	17
339.188	1	14
339.359	1	18
339.530	1	9
339.701	1	6
339.872	1	14
340.043	1	-5
340.214	1	1
340.385	1	13
340.556	1	15
340.727	1	10
340.898	1	19
341.069	1	2
341.240	1	6
341.411	1	15
341.582	1	21
341.753	1	-1
341.924	1	8
342.095	1	18
342.266	1	4
342.437	1	1
342.608	1	3
342.779	1	19
342.950	1	14
343.121	1	8
343.292	1	19
343.463	1	15
343.634	1	10
343.805	1	14
343.976	1	1
344.147	1	12
344.318	1	4
344.489	1	18
344.660	1	23
344.831	1	16
345.002	1	22
345.173	1	16
345.344	1	1
345.515	1	5
345.686	1	1
345.857	1	19
346.028	1	10
346.199	1	15
346.370	1	16
346.541	1	18
346.712	1	17
346.883	1	18
347.054	1	16
347.225	1	2
347.396	1	12
347.567	1	13
347.738	1	11
347.909	1	8
348.080	1	18
348.251	1	4
348.422	1	9
348.593	1	21
348.764	1	4
348.935	1	20
349.106	1	15
349.277	1	8
349.448	1	4
349.619	1	25
349.790	1	15
349.961	1	15
350.132	1	18
350.303	1	14
350.474	1	9
350.645	1	20
350.816	1	9
350.987	1	15
351.157	1	11
351.328	1	0
351.499	1	17
351.670	1	13
351.841	1	18
352.012	1	18
352.183	1	22
352.354	1	11
352.525	1	18
352.696	1	8
352.867	1	9
353.038	1	10
353.209	1	22
353.380	1	11
353.551	1	6
353.722	1	22
353.893	1	21
354.064	1	13
354.235	1	26
354.406	1	11
354.576	1	3
354.747	1	15
354.918	1	27
355.089	1	20
355.260	1	17
355.431	1	22
355.602	1	21
355.773	1	4
355.944	1	14
356.115	1	9
356.286	1	13
356.457	1	13
356.628	1	14
356.799	1	15
356.970	1	16
357.141	1	20
357.311	1	16
357.482	1	11
357.653	1	16
357.824	1	13
357.995	1	21
358.166	1	14
358.337	1	14
358.508	1	7
358.679	1	18
358.850	1	18
359.021	1	19
359.192	1	19
359.363	1	5
359.533	1	14
359.704	1	16
359.875	1	8
360.046	1	2
360.217	1	10
360.388	1	15
360.559	1	24
360.730	1	18
360.901	1	10
361.072	1	14
361.243	1	16
361.414	1	22
361.584	1	26
361.755	1	19
361.926	1	14
362.097	1	20
362.268	1	30
362.439	1	27
362.610	1	16
362.781	1	16
362.952	1	11
363.123	1	14
363.293	1	12
363.464	1	18
363.635	1	29
363.806	1	30
363.977	1	15
364.148	1	27
364.319	1	14
364.490	1	18
364.661	1	16
364.832	1	15
365.002	1	17
365.173	1	12
365.344	1	21
365.515	1	17
365.686	1	13
365.857	1	24
366.028	1	12
366.199	1	23
366.370	1	13
366.540	1	17
366.711	1	20
366.882	1	22
367.053	1	18
367.224	1	11
367.395	1	21
367.566	1	22
367.737	1	16
367.908	1	13
368.078	1	14
368.249	1	17
368.420	1	17
368.591	1	19
368.762	1	15
368.933	1	23
369.104	1	19
369.274	1	25
369.445	1	27
369.616	1	16
369.787	1	15
369.958	1	25
370.129	1	16
370.300	1	13
370.471	1	16
370.641	1	9
370.812	1	25
370.983	1	14
371.154	1	32
371.325	1	14
371.496	1	17
371.667	1	22
371.837	1	19
372.008	1	26
372.179	1	22
372.350	1	25
372.521	1	20
372.692	1	4
372.863	1	15
373.033	1	22
373.204	1	21
373.375	1	15
373.546	1	26
373.717	1	14
373.888	1	38
374.059	1	24
374.229	1	15
374.400	1	31
374.571	1	21
374.742	1	9
374.913	1	22
375.084	1	24
375.254	1	20
375.425	1	9
375.596	1	22
375.767	1	14
375.938	1	11
376.109	1	25
376.279	1	20
376.450	1	20
376.621	1	31
376.792	1	25
376.963	1	20
377.134	1	12
377.304	1	26
377.475	1	20
377.646	1	12
377.817	1	12
377.988	1	19
378.159	1	25
378.329	1	27
378.500	1	24
378.671	1	9
378.842	1	12
379.013	1	21
379.184	1	26
379.354	1	27
379.525	1	5
379.696	1	30
379.867	1	2
380.038	1	20
380.209	1	23
380.379	1	30
380.550	1	25
380.721	1	19
380.892	1	28
381.063	1	19
381.233	1	22
381.404	1	23
381.575	1	26
381.746	1	28
381.917	1	22
382.087	1	21
382.258	1	26
382.429	1	19
382.600	1	36
382.771	1	20
382.941	1	17
383.112	1	28
383.283	1	33
383.454	1	16
383.625	1	38
383.795	1	20
383.966	1	21
384.137	1	28
384.308	1	22
384.479	1	27
384.649	1	27
384.820	1	27
384.991	1	8
385.162	1	33
385.333	1	13
385.503	1	22
385.674	1	40
385.845	1	20
386.016	1	26
386.187	1	21
386.357	1	22
386.528	1	24
386.699	1	25
386.870	1	21
387.041	1	36
387.211	1	33
387.382	1	17
387.553	1	33
387.724	1	23
387.894	1	21
388.065	1	37
388.236	1	27
388.407	1	35
388.578	1	29
388.748	1	28
388.919	1	43
389.090	1	33
389.261	1	31
389.431	1	48
389.602	1	19
389.773	1	18
389.944	1	34
390.114	1	29
390.285	1	30
390.456	1	34
390.627	1	28
390.798	1	26
390.968	1	32
391.139	1	25
391.310	1	33
391.481	1	35
391.651	1	24
391.822	1	31
391.993	1	34
392.164	1	14
392.334	1	9
392.505	1	29
392.676	1	31
392.847	1	35
393.017	1	31
393.188	1	35
393.359	1	20
393.530	1	25
393.700	1	39
393.871	1	27
394.042	1	34
394.213	1	39
394.383	1	25
394.554	1	34
394.725	1	44
394.896	1	31
395.066	1	29
395.237	1	27
395.408	1	24
395.579	1	28
395.749	1	27
395.920	1	26
396.091	1	36
396.262	1	18
396.432	1	27
396.603	1	31
396.774	1	21
396.945	1	17
397.115	1	28
397.286	1	26
397.457	1	26
397.627	1	29
397.798	1	29
397.969	1	25
398.140	1	39
398.310	1	32
398.481	1	29
398.652	1	31
398.823	1	32
398.993	1	37
399.164	1	31
399.335	1	22
399.505	1	43
399.676	1	30
399.847	1	39
400.018	1	36
400.188	1	30
400.359	1	39
400.530	1	25
400.700	1	29
400.871	1	39
401.042	1	33
401.213	1	36
401.383	1	36
401.554	1	39
401.725	1	27
401.895	1	28
402.066	1	37
402.237	1	45
402.408	1	36
402.578	1	41
402.749	1	44
402.920	1	41
403.090	1	27
403.261	1	44
403.432	1	32
403.603	1	27
403.773	1	45
403.944	1	35
404.115	1	26
404.285	1	36
404.456	1	31
404.627	1	34
404.797	1	30
404.968	1	19
405.139	1	42
405.310	1	38
405.480	1	28
405.651	1	30
405.822	1	47
405.992	1	25
406.163	1	27
406.334	1	30
406.504	1	21
406.675	1	31
406.846	1	33
407.016	1	27
407.187	1	38
407.358	1	35
407.528	1	31
407.699	1	25
407.870	1	41
408.041	1	16
408.211	1	23
408.382	1	34
408.553	1	19
408.723	1	29
408.894	1	39
409.065	1	51
409.235	1	24
409.406	1	30
409.577	1	28
409.747	1	37
409.918	1	37
410.089	1	26
410.259	1	36
410.430	1	33
410.601	1	41
410.771	1	40
410.942	1	34
411.113	1	41
411.283	1	41
411.454	1	29
411.625	1	37
411.795	1	28
411.966	1	28
412.137	1	33
412.307	1	31
412.478	1	41
412.649	1	33
412.819	1	36
412.990	1	43
413.161	1	37
413.331	1	34
413.502	1	24
413.672	1	31
413.843	1	47
414.014	1	52
414.184	1	36
414.355	1	31
414.526	1	39
414.696	1	43
414.867	1	30
415.038	1	26
415.208	1	36
415.379	1	33
415.550	1	38
415.720	1	28
415.891	1	45
416.062	1	36
416.232	1	38
416.403	1	37
416.573	1	33
416.744	1	34
416.915	1	35
417.085	1	23
417.256	1	49
417.427	1	39
417.597	1	24
417.768	1	24
417.939	1	38
418.109	1	15
418.280	1	31
418.450	1	47
418.621	1	23
418.792	1	28
418.962	1	28
419.133	1	34
419.304	1	35
419.474	1	37
419.645	1	26
419.815	1	24
419.986	1	33
420.157	1	37
420.327	1	25
420.498	1	26
420.669	1	26
420.839	1	33
421.010	1	41
421.180	1	27
421.351	1	42
421.522	1	34
421.692	1	52
421.863	1	32
422.033	1	43
422.204	1	38
422.375	1	31
422.545	1	44
422.716	1	31
422.886	1	43
423.057	1	27
423.228	1	37
423.398	1	41
423.569	1	41
423.740	1	25
423.910	1	40
424.081	1	37
424.251	1	36
424.422	1	32
424.593	1	38
424.763	1	39
424.934	1	49
425.104	1	37
425.275	1	45
425.445	1	47
425.616	1	42
425.787	1	40
425.957	1	46
426.128	1	38
426.298	1	33
426.469	1	26
426.640	1	33
426.810	1	42
426.981	1	37
427.151	1	38
427.322	1	28
427.493	1	32
427.663	1	34
427.834	1	28
428.004	1	44
428.175	1	35
428.345	1	50
428.516	1	39
428.687	1	40
428.857	1	29
429.028	1	34
429.198	1	37
429.369	1	27
429.540	1	43
429.710	1	38
429.881	1	41
430.051	1	24
430.222	1	42
430.392	1	36
430.563	1	32
430.734	1	44
430.904	1	35
431.075	1	31
431.245	1	36
431.416	1	17
431.586	1	36
431.757	1	29
431.927	1	17
432.098	1	45
432.269	1	32
432.439	1	37
432.610	1	41
432.780	1	25
432.951	1	36
433.121	1	47
433.292	1	33
433.462	1	48
433.633	1	32
433.804	1	29
433.974	1	34
434.145	1	35
434.315	1	39
434.486	1	30
434.656	1	36
434.827	1	30
434.997	1	41
435.168	1	37
435.339	1	39
435.509	1	35
435.680	1	43
435.850	1	29
436.021	1	42
436.191	1	41
436.362	1	39
436.532	1	43
436.703	1	43
436.873	1	36
437.044	1	38
437.214	1	43
437.385	1	43
437.556	1	31
437.726	1	38
437.897	1	37
438.067	1	30
438.238	1	32
438.408	1	38
438.579	1	40
438.749	1	32
438.920	1	37
439.090	1	31
439.261	1	31
439.431	1	30
439.602	1	36
439.772	1	33
439.943	1	37
440.113	1	37
440.284	1	39
440.455	1	40
440.625	1	38
440.796	1	23
440.966	1	23
441.137	1	39
441.307	1	18
441.478	1	32
441.648	1	41
441.819	1	26
441.989	1	36
442.160	1	24
442.330	1	32
442.501	1	28
442.671	1	28
442.842	1	27
443.012	1	32
443.183	1	37
443.353	1	39
443.524	1	32
443.694	1	35
443.865	1	41
444.035	1	35
444.206	1	32
444.376	1	39
444.547	1	32
444.717	1	45
444.888	1	44
445.058	1	34
445.229	1	37
445.399	1	38
445.570	1	31
445.740	1	33
445.911	1	48
446.081	1	32
446.252	1	24
446.422	1	43
446.593	1	32
446.763	1	41
446.934	1	38
447.104	1	33
447.275	1	42
447.445	1	36
447.616	1	35
447.786	1	31
447.957	1	33
448.127	1	45
448.298	1	40
448.468	1	35
448.639	1	31
448.809	1	27
448.979	1	31
449.150	1	41
449.320	1	46
449.491	1	32
449.661	1	41
449.832	1	45
450.002	1	28
450.173	1	34
450.343	1	36
450.514	1	29
450.684	1	36
450.855	1	26
451.025	1	30
451.196	1	39
451.366	1	29
451.537	1	27
451.707	1	39
451.878	1	38
452.048	1	32
452.218	1	33
452.389	1	37
452.559	1	28
452.730	1	28
452.900	1	41
453.071	1	45
453.241	1	35
453.412	1	22
453.582	1	26
453.753	1	29
453.923	1	34
454.093	1	25
454.264	1	19
454.434	1	39
454.605	1	35
454.775	1	20
454.946	1	34
455.116	1	24
455.287	1	25
455.457	1	28
455.628	1	18
455.798	1	25
455.968	1	29
456.139	1	15
456.309	1	34
456.480	1	24
456.650	1	48
456.821	1	38
456.991	1	32
457.161	1	44
457.332	1	26
457.502	1	28
457.673	1	35
457.843	1	32
458.014	1	25
458.184	1	31
458.355	1	29
458.525	1	40
458.695	1	28
458.866	1	41
459.036	1	30
459.207	1	28
459.377	1	38
459.548	1	14
459.718	1	32
459.888	1	39
460.059	1	28
460.229	1	29
460.400	1	28
460.570	1	31
460.740	1	17
460.911	1	35
461.081	1	28
461.252	1	32
461.422	1	35
461.593	1	26
461.763	1	37
461.933	1	35
462.104	1	25
462.274	1	27
462.445	1	21
462.615	1	21
462.785	1	36
462.956	1	24
463.126	1	39
463.297	1	35
463.467	1	30
463.638	1	30
463.808	1	38
463.978	1	30
464.149	1	33
464.319	1	31
464.490	1	28
464.660	1	28
464.830	1	24
465.001	1	32
465.171	1	20
465.342	1	11
465.512	1	35
465.682	1	24
465.853	1	19
466.023	1	29
466.194	1	20
466.364	1	25
466.534	1	35
466.705	1	11
466.875	1	35
467.045	1	26
467.216	1	26
467.386	1	39
467.557	1	24
467.727	1	34
467.897	1	30
468.068	1	12
468.238	1	28
468.409	1	26
468.579	1	23
468.749	1	22
468.920	1	25
469.090	1	26
469.260	1	25
469.431	1	25
469.601	1	20
469.772	1	10
469.942	1	25
470.112	1	21
470.283	1	23
470.453	1	37
470.623	1	15
470.794	1	19
470.964	1	35
471.135	1	22
471.305	1	27
471.475	1	31
471.646	1	21
471.816	1	16
471.986	1	36
472.157	1	18
472.327	1	27
472.497	1	29
472.668	1	24
472.838	1	31
473.009	1	29
473.179	1	25
473.349	1	24
473.520	1	21
473.690	1	30
473.860	1	11
474.031	1	33
474.201	1	27
474.371	1	31
474.542	1	25
474.712	1	22
474.882	1	15
475.053	1	33
475.223	1	10
475.394	1	19
475.564	1	22
475.734	1	30
475.905	1	23
476.075	1	20
476.245	1	25
476.416	1	14
476.586	1	16
476.756	1	23
476.927	1	17
477.097	1	24
477.267	1	24
477.438	1	29
477.608	1	28
477.778	1	18
477.949	1	23
478.119	1	38
478.289	1	12
478.460	1	15
478.630	1	38
478.800	1	29
478.971	1	19
479.141	1	16
479.311	1	19
479.482	1	24
479.652	1	25
479.822	1	26
479.993	1	19
480.163	1	22
480.333	1	15
480.504	1	14
480.674	1	19
480.844	1	15
481.015	1	21
481.185	1	14
481.355	1	21
481.525	1	17
481.696	1	18
481.866	1	29
482.036	1	28
482.207	1	22
482.377	1	23
482.547	1	10
482.718	1	10
482.888	1	28
483.058	1	13
483.229	1	19
483.399	1	23
483.569	1	25
483.740	1	22
483.910	1	17
484.080	1	5
484.250	1	13
484.421	1	23
484.591	1	23
484.761	1	10
484.932	1	23
485.102	1	26
485.272	1	17
485.443	1	23
485.613	1	30
485.783	1	30
485.953	1	16
486.124	1	18
486.294	1	15
486.464	1	10
486.635	1	22
486.805	1	11
486.975	1	23
487.146	1	13
487.316	1	21
487.486	1	23
487.656	1	12
487.827	1	11
487.997	1	17
488.167	1	14
488.338	1	14
488.508	1	20
488.678	1	13
488.848	1	17
489.019	1	21
489.189	1	23
489.359	1	20
489.529	1	22
489.700	1	15
489.870	1	9
490.040	1	10
490.211	1	8
490.381	1	18
490.551	1	10
490.721	1	22
490.892	1	23
491.062	1	13
491.232	1	11
491.402	1	18
491.573	1	13
491.743	1	12
491.913	1	6
492.084	1	20
492.254	1	18
492.424	1	18
492.594	1	21
492.765	1	18
492.935	1	14
493.105	1	21
493.275	1	19
493.446	1	8
493.616	1	15
493.786	1	13
493.956	1	9
494.127	1	30
494.297	1	12
494.467	1	18
494.637	1	19
494.808	1	24
494.978	1	10
495.148	1	16
495.318	1	17
495.489	1	12
495.659	1	15
495.829	1	19
495.999	1	10
496.170	1	14
496.340	1	13
496.510	1	9
496.680	1	15
496.851	1	20
497.021	1	21
497.191	1	15
497.361	1	13
497.532	1	2
497.702	1	23
497.872	1	27
498.042	1	23
498.213	1	26
498.383	1	31
498.553	1	11
498.723	1	21
498.894	1	12
499.064	1	19
499.234	1	8
499.404	1	8
499.574	1	15
499.745	1	17
499.915	1	15
500.085	1	-1
500.255	1	13
500.426	1	15
500.596	1	6
500.766	1	9
500.936	1	19
501.106	1	15
501.277	1	18
501.447	1	20
501.617	1	14
501.787	1	18
501.958	1	14
502.128	1	0
502.298	1	14
502.468	1	17
502.638	1	7
502.809	1	26
502.979	1	15
503.149	1	10
503.319	1	10
503.489	1	8
503.660	1	8
503.830	1	11
504.000	1	10
504.170	1	11
504.340	1	7
504.511	1	18
504.681	1	14
504.851	1	7
505.021	1	23
505.192	1	-3
505.362	1	11
505.532	1	10
505.702	1	12
505.872	1	11
506.043	1	17
506.213	1	15
506.383	1	13
506.553	1	11
506.723	1	14
506.893	1	11
507.064	1	1
507.234	1	6
507.404	1	14
507.574	1	12
507.744	1	7
507.915	1	13
508.085	1	10
508.255	1	3
508.425	1	8
508.595	1	1
508.766	1	11
508.936	1	12
509.106	1	10
509.276	1	9
509.446	1	3
509.616	1	14
509.787	1	14
509.957	1	11
510.127	1	18
510.297	1	2
510.467	1	5
510.638	1	12
510.808	1	6
510.978	1	2
511.148	1	26
511.318	1	3
511.488	1	24
511.659	1	12
511.829	1	11
511.999	1	16
512.169	1	12
512.339	1	15
512.509	1	18
512.680	1	5
512.850	1	5
513.020	1	8
513.190	1	9
513.360	1	13
513.530	1	7
513.700	1	17
513.871	1	9
514.041	1	7
514.211	1	12
514.381	1	21
514.551	1	9
514.721	1	8
514.892	1	-3
515.062	1	2
515.232	1	15
515.402	1	15
515.572	1	17
515.742	1	18
515.912	1	11
516.083	1	14
516.253	1	8
516.423	1	10
516.593	1	3
516.763	1	11
516.933	1	-1
517.104	1	1
517.274	1	0
517.444	1	9
517.614	1	8
517.784	1	11
517.954	1	15
518.124	1	1
518.294	1	17
518.465	1	17
518.635	1	12
518.805	1	15
518.975	1	4
519.145	1	12
519.315	1	5
519.485	1	6
519.656	1	14
519.826	1	10
519.996	1	13
520.166	1	13
520.336	1	0
520.506	1	-5
520.676	1	11
520.846	1	10
521.017	1	11
521.187	1	11
521.357	1	1
521.527	1	14
521.697	1	14
521.867	1	9
522.037	1	-2
522.207	1	5
522.377	1	3
522.548	1	15
522.718	1	10
522.888	1	13
523.058	1	11
523.228	1	5
523.398	1	4
523.568	1	13
523.738	1	8
523.909	1	14
524.079	1	5
524.249	1	17
524.419	1	8
524.589	1	4
524.759	1	17
524.929	1	3
525.099	1	0
525.269	1	16
525.439	1	9
525.610	1	13
525.780	1	7
525.950	1	9
526.120	1	-3
526.290	1	12
526.460	1	4
526.630	1	23
526.800	1	12
526.970	1	17
527.140	1	13
527.311	1	6
527.481	1	6
527.651	1	-2
527.821	1	-4
527.991	1	4
528.161	1	9
528.331	1	16
528.501	1	10
528.671	1	3
528.841	1	5
529.011	1	8
529.181	1	12
529.352	1	6
529.522	1	6
529.692	1	1
529.862	1	1
530.032	1	17
530.202	1	9
530.372	1	12
530.542	1	3
530.712	1	2
530.882	1	4
531.052	1	12
531.222	1	1
531.392	1	17
531.563	1	3
531.733	1	13
531.903	1	19
532.073	1	6
532.243	1	7
532.413	1	10
532.583	1	-2
532.753	1	3
532.923	1	17
533.093	1	18
533.263	1	1
533.433	1	10
533.603	1	10
533.773	1	9
533.943	1	1
534.113	1	19
534.284	1	4
534.454	1	8
534.624	1	12
534.794	1	-4
534.964	1	1
535.134	1	13
535.304	1	8
535.474	1	-2
535.644	1	4
535.814	1	0
535.984	1	10
536.154	1	8
536.324	1	14
536.494	1	6
536.664	1	5
536.834	1	15
537.004	1	16
537.174	1	1
537.344	1	8
537.514	1	9
537.685	1	0
537.855	1	6
538.025	1	11
538.195	1	12
538.365	1	10
538.535	1	-7
538.705	1	20
538.875	1	14
539.045	1	8
539.215	1	-7
539.385	1	8
539.555	1	11
539.725	1	4
539.895	1	7
540.065	1	10
540.235	1	9
540.405	1	6
540.575	1	0
540.745	1	8
540.915	1	3
541.085	1	0
541.255	1	3
541.425	1	10
541.595	1	11
541.765	1	21
541.935	1	3
542.105	1	12
542.275	1	2
542.445	1	7
542.615	1	3
542.785	1	6
542.955	1	-3
543.125	1	8
543.295	1	1
543.465	1	10
543.635	1	10
543.805	1	23
543.975	1	1
544.145	1	4
544.315	1	2
544.485	1	9
544.655	1	19
544.825	1	6
544.995	1	7
545.165	1	11
545.335	1	7
545.505	1	24
545.675	1	-1
545.845	1	11
546.015	1	3
546.185	1	7
546.355	1	11
546.525	1	11
546.695	1	-3
546.865	1	19
547.035	1	13
547.205	1	13
547.375	1	7
547.545	1	9
547.715	1	12
547.885	1	9
548.055	1	1
548.225	1	14
548.395	1	0
548.565	1	7
548.735	1	10
548.905	1	-3
549.075	1	9
549.245	1	-1
549.415	1	9
549.585	1	13
549.755	1	7
549.925	1	13
550.095	1	6
550.265	1	6
550.435	1	-9
550.605	1	-1
550.775	1	6
550.945	1	11
551.115	1	9
551.285	1	-2
551.455	1	0
551.625	1	3
551.795	1	4
551.965	1	6
552.135	1	2
552.305	1	7
552.475	1	13
552.645	1	5
552.815	1	1
552.985	1	7
553.155	1	4
553.325	1	9
553.495	1	4
553.665	1	13
553.835	1	1
554.004	1	1
554.174	1	11
554.344	1	4
554.514	1	9
554.684	1	-6
554.854	1	5
555.024	1	2
555.194	1	9
555.364	1	16
555.534	1	6
555.704	1	13
555.874	1	6
556.044	1	7
556.214	1	7
556.384	1	2
556.554	1	11
556.724	1	8
556.894	1	-3
557.064	1	12
557.234	1	4
557.404	1	9
557.573	1	-3
557.743	1	2
557.913	1	2
558.083	1	9
558.253	1	0
558.423	1	-1
558.593	1	8
558.763	1	10
558.933	1	4
559.103	1	15
559.273	1	5
559.443	1	20
559.613	1	9
559.783	1	10
559.953	1	11
560.122	1	8
560.292	1	0
560.462	1	4
560.632	1	6
560.802	1	2
560.972	1	14
561.142	1	14
561.312	1	10
561.482	1	6
561.652	1	8
561.822	1	0
561.992	1	-4
562.162	1	9
562.331	1	15
562.501	1	4
562.671	1	10
562.841	1	-2
563.011	1	1
563.181	1	12
563.351	1	13
563.521	1	1
563.691	1	12
563.861	1	0
564.031	1	-5
564.201	1	-10
564.370	1	6
564.540	1	5
564.710	1	0
564.880	1	15
565.050	1	-2
565.220	1	4
565.390	1	11
565.560	1	2
565.730	1	4
565.900	1	3
566.069	1	4
566.239	1	12
566.409	1	8
566.579	1	0
566.749	1	10
566.919	1	6
567.089	1	1
567.259	1	11
567.429	1	11
567.599	1	-2
567.768	1	6
567.938	1	-1
568.108	1	10
568.278	1	1
568.448	1	7
568.618	1	11
568.788	1	-12
568.958	1	3
569.128	1	4
569.297	1	-2
569.467	1	6
569.637	1	9
569.807	1	5
569.977	1	8
570.147	1	6
570.317	1	15
570.487	1	7
570.656	1	0
570.826	1	-4
570.996	1	11
571.166	1	4
571.336	1	8
571.506	1	2
571.676	1	-3
571.846	1	-3
572.015	1	13
572.185	1	0
572.355	1	17
572.525	1	-3
572.695	1	2
572.865	1	13
573.035	1	-2
573.205	1	-2
573.374	1	9
573.544	1	6
573.714	1	12
573.884	1	3
574.054	1	-4
574.224	1	7
574.394	1	9
574.563	1	13
574.733	1	19
574.903	1	-3
575.073	1	1
575.243	1	1
575.413	1	3
575.583	1	3
575.752	1	7
575.922	1	6
576.092	1	2
576.262	1	11
576.432	1	12
576.602	1	12
576.772	1	-1
576.941	1	4
577.111	1	0
577.281	1	16
577.451	1	2
577.621	1	14
577.791	1	6
577.960	1	2
578.130	1	8
578.300	1	11
578.470	1	7
578.640	1	7
578.810	1	10
578.979	1	3
579.149	1	2
579.319	1	3
579.489	1	7
579.659	1	6
579.829	1	7
579.998	1	2
580.168	1	3
580.338	1	3
580.508	1	-7
580.678	1	6
580.848	1	-9
581.017	1	3
581.187	1	13
581.357	1	-3
581.527	1	-4
581.697	1	-6
581.867	1	8
582.036	1	6
582.206	1	4
582.376	1	6
582.546	1	18
582.716	1	3
582.885	1	7
583.055	1	-5
583.225	1	2
583.395	1	2
583.565	1	4
583.735	1	-1
583.904	1	2
584.074	1	-4
584.244	1	15
584.414	1	10
584.584	1	10
584.753	1	10
584.923	1	1
585.093	1	2
585.263	1	3
585.433	1	16
585.602	1	-1
585.772	1	7
585.942	1	6
586.112	1	5
586.282	1	3
586.451	1	8
586.621	1	7
586.791	1	3
586.961	1	6
587.131	1	5
587.300	1	19
587.470	1	0
587.640	1	2
587.810	1	0
587.980	1	7
588.149	1	16
588.319	1	12
588.489	1	-3
588.659	1	2
588.829	1	-4
588.998	1	2
589.168	1	9
589.338	1	3
589.508	1	6
589.677	1	-1
589.847	1	10
590.017	1	-1
590.187	1	2
590.357	1	9
590.526	1	17
590.696	1	12
590.866	1	-10
591.036	1	0
591.205	1	5
591.375	1	-2
591.545	1	6
591.715	1	3
591.885	1	1
592.054	1	0
592.224	1	-2
592.394	1	-4
592.564	1	11
592.733	1	10
592.903	1	2
593.073	1	1
593.243	1	14
593.412	1	-2
593.582	1	-5
593.752	1	7
593.922	1	8
594.091	1	-6
594.261	1	5
594.431	1	0
594.601	1	4
594.771	1	6
594.940	1	14
595.110	1	-1
595.280	1	8
595.450	1	5
595.619	1	-1
595.789	1	13
595.959	1	13
596.129	1	1
596.298	1	4
596.468	1	3
596.638	1	9
596.808	1	9
596.977	1	2
597.147	1	10
597.317	1	7
597.487	1	12
597.656	1	11
597.826	1	2
597.996	1	9
598.166	1	7
598.335	1	1
598.505	1	-7
598.675	1	3
598.844	1	9
599.014	1	4
599.184	1	-3
599.354	1	1
599.523	1	6
599.693	1	12
599.863	1	8
600.033	1	-2
600.202	1	23
600.372	1	0
600.542	1	6
600.712	1	15
600.881	1	12
601.051	1	5
601.221	1	7
601.390	1	11
601.560	1	6
601.730	1	1
601.900	1	8
602.069	1	-4
602.239	1	8
602.409	1	6
602.578	1	20
602.748	1	-3
602.918	1	12
603.088	1	4
603.257	1	7
603.427	1	9
603.597	1	8
603.767	1	9
603.936	1	12
604.106	1	6
604.276	1	3
604.445	1	-4
604.615	1	1
604.785	1	9
604.954	1	9
605.124	1	1
605.294	1	9
605.464	1	0
605.633	1	14
605.803	1	3
605.973	1	4
606.142	1	11
606.312	1	12
606.482	1	5
606.652	1	8
606.821	1	3
606.991	1	-1
607.161	1	7
607.330	1	9
607.500	1	14
607.670	1	16
607.839	1	-3
608.009	1	5
608.179	1	1
608.348	1	-1
608.518	1	2
608.688	1	10
608.858	1	3
609.027	1	-2
609.197	1	18
609.367	1	6
609.536	1	13
609.706	1	10
609.876	1	1
610.045	1	5
610.215	1	7
610.385	1	4
610.554	1	3
610.724	1	11
610.894	1	7
611.063	1	12
611.233	1	2
611.403	1	7
611.572	1	14
611.742	1	8
611.912	1	7
612.081	1	6
612.251	1	7
612.421	1	12
612.590	1	-5
612.760	1	15
612.930	1	-9
613.099	1	13
613.269	1	6
613.439	1	2
613.608	1	5
613.778	1	-3
613.948	1	12
614.117	1	14
614.287	1	-2
614.457	1	8
614.626	1	15
614.796	1	11
614.966	1	-1
615.135	1	10
615.305	1	13
615.475	1	6
615.644	1	4
615.814	1	5
615.984	1	7
616.153	1	9
616.323	1	3
616.493	1	12
616.662	1	0
616.832	1	3
617.002	1	1
617.171	1	12
617.341	1	0
617.511	1	-3
617.680	1	2
617.850	1	1
618.019	1	12
618.189	1	2
618.359	1	2
618.528	1	0
618.698	1	7
618.868	1	-1
619.037	1	10
619.207	1	10
619.377	1	16
619.546	1	-14
619.716	1	3
619.885	1	2
620.055	1	12
620.225	1	14
620.394	1	3
620.564	1	-5
620.734	1	11
620.903	1	20
621.073	1	9
621.242	1	5
621.412	1	8
621.582	1	-4
621.751	1	5
621.921	1	5
622.091	1	2
622.260	1	-2
622.430	1	15
622.599	1	16
622.769	1	13
622.939	1	7
623.108	1	8
623.278	1	19
623.448	1	12
623.617	1	2
623.787	1	14
623.956	1	19
624.126	1	2
624.296	1	11
624.465	1	-1
624.635	1	9
624.804	1	6
624.974	1	14
625.144	1	13
625.313	1	6
625.483	1	7
625.652	1	7
625.822	1	15
625.992	1	12
626.161	1	1
626.331	1	1
626.501	1	9
626.670	1	9
626.840	1	0
627.009	1	4
627.179	1	-9
627.348	1	19
627.518	1	0
627.688	1	17
627.857	1	0
628.027	1	5
628.196	1	-1
628.366	1	16
628.536	1	6
628.705	1	4
628.875	1	12
629.044	1	12
629.214	1	8
629.384	1	-2
629.553	1	2
629.723	1	4
629.892	1	11
630.062	1	-3
630.232	1	16
630.401	1	7
630.571	1	19
630.740	1	5
630.910	1	8
631.079	1	0
631.249	1	6
631.419	1	5
631.588	1	6
631.758	1	10
631.927	1	3
632.097	1	8
632.266	1	-1
632.436	1	4
632.606	1	1
632.775	1	16
632.945	1	-2
633.114	1	5
633.284	1	4
633.453	1	17
633.623	1	17
633.793	1	-4
633.962	1	7
634.132	1	0
634.301	1	2
634.471	1	6
634.640	1	13
634.810	1	10
634.979	1	-3
635.149	1	0
635.319	1	11
635.488	1	-1
635.658	1	5
635.827	1	10
635.997	1	16
636.166	1	1
636.336	1	14
636.505	1	13
636.675	1	8
636.845	1	3
637.014	1	7
637.184	1	14
637.353	1	5
637.523	1	11
637.692	1	5
637.862	1	1
638.031	1	-1
638.201	1	9
638.370	1	7
638.540	1	19
638.710	1	7
638.879	1	11
639.049	1	7
639.218	1	22
639.388	1	4
639.557	1	6
639.727	1	13
639.896	1	3
640.066	1	15
640.235	1	6
640.405	1	10
640.574	1	3
640.744	1	-2
640.914	1	6
641.083	1	3
641.253	1	0
641.422	1	3
641.592	1	10
641.761	1	10
641.931	1	14
642.100	1	9
642.270	1	7
642.439	1	3
642.609	1	21
642.778	1	0
642.948	1	12
643.117	1	9
643.287	1	0
643.456	1	9
643.626	1	11
643.795	1	19
643.965	1	14
644.134	1	6
644.304	1	15
644.473	1	2
644.643	1	-1
644.812	1	7
644.982	1	9
645.151	1	6
645.321	1	8
645.490	1	21
645.660	1	10
645.829	1	7
645.999	1	12
646.168	1	5
646.338	1	5
646.507	1	-2
646.677	1	6
646.846	1	5
647.016	1	7
647.185	1	10
647.355	1	7
647.524	1	0
647.694	1	-8
647.863	1	19
648.033	1	14
648.202	1	1
648.372	1	-5
648.541	1	8
648.711	1	9
648.880	1	8
649.050	1	14
649.219	1	10
649.389	1	13
649.558	1	8
649.728	1	18
649.897	1	4
650.067	1	5
650.236	1	8
650.406	1	12
650.575	1	11
650.745	1	10
650.914	1	6
651.084	1	5
651.253	1	9
651.423	1	17
651.592	1	2
651.762	1	8
651.931	1	7
652.101	1	13
652.270	1	-1
652.440	1	7
652.609	1	13
652.778	1	14
652.948	1	13
653.117	1	11
653.287	1	6
653.456	1	2
653.626	1	12
653.795	1	5
653.965	1	1
654.134	1	-1
654.304	1	12
654.473	1	0
654.643	1	16
654.812	1	6
654.982	1	16
655.151	1	7
655.320	1	16
655.490	1	2
655.659	1	3
655.829	1	0
655.998	1	8
656.168	1	5
656.337	1	6
656.507	1	8
656.676	1	13
656.846	1	2
657.015	1	-4
657.184	1	5
657.354	1	7
657.523	1	5
657.693	1	-1
657.862	1	3
658.032	1	14
658.201	1	9
658.371	1	-1
658.540	1	0
658.709	1	3
658.879	1	10
659.048	1	13
659.218	1	0
659.387	1	17
659.557	1	-2
659.726	1	0
659.895	1	6
660.065	1	9
660.234	1	6
660.404	1	-1
660.573	1	12
660.743	1	2
660.912	1	-6
661.081	1	-4
661.251	1	9
661.420	1	13
661.590	1	9
661.759	1	-1
661.929	1	12
662.098	1	7
662.267	1	5
662.437	1	8
662.606	1	7
662.776	1	4
662.945	1	13
663.115	1	16
663.284	1	1
663.453	1	11
663.623	1	17
663.792	1	6
663.962	1	3
664.131	1	5
664.300	1	-13
664.470	1	8
664.639	1	8
664.809	1	15
664.978	1	6
665.148	1	-4
665.317	1	9
665.486	1	5
665.656	1	13
665.825	1	12
665.995	1	3
666.164	1	19
666.333	1	10
666.503	1	9
666.672	1	11
666.842	1	1
667.011	1	-1
667.180	1	13
667.350	1	12
667.519	1	11
667.689	1	10
667.858	1	4
668.027	1	9
668.197	1	12
668.366	1	2
668.536	1	4
668.705	1	4
668.874	1	9
669.044	1	7
669.213	1	11
669.382	1	16
669.552	1	9
669.721	1	2
669.891	1	-7
670.060	1	6
670.229	1	-1
670.399	1	-1
670.568	1	5
670.738	1	4
670.907	1	7
671.076	1	2
671.246	1	-4
671.415	1	17
671.584	1	11
671.754	1	3
671.923	1	11
672.093	1	10
672.262	1	2
672.431	1	22
672.601	1	15
672.770	1	7
672.939	1	7
673.109	1	6
673.278	1	11
673.448	1	5
673.617	1	6
673.786	1	11
