325.333	1	-2
325.504	1	0
325.675	1	3
325.846	1	2
326.017	1	-3
326.188	1	6
326.359	1	3
326.531	1	9
326.702	1	-1
326.873	1	-4
327.044	1	6
327.215	1	-8
327.386	1	3
327.557	1	11
327.728	1	4
327.899	1	0
328.070	1	14
328.241	1	-5
328.412	1	-6
328.583	1	7
328.754	1	-2
328.926	1	7
329.097	1	3
329.268	1	1
329.439	1	3
329.610	1	-1
329.781	1	4
329.952	1	-5
330.123	1	-6
330.294	1	3
330.465	1	7
330.636	1	9
330.807	1	-1
330.978	1	9
331.149	1	13
331.320	1	2
331.492	1	-7
331.663	1	-7
331.834	1	-2
332.005	1	7
332.176	1	10
332.347	1	8
332.518	1	16
332.689	1	1
332.860	1	4
333.031	1	1
333.202	1	1
333.373	1	1
333.544	1	-2
333.715	1	-3
333.886	1	-5
334.057	1	-8
334.228	1	2
334.399	1	5
334.570	1	-7
334.741	1	-3
334.912	1	3
335.084	1	1
335.255	1	5
335.426	1	11
335.597	1	4
335.768	1	-12
335.939	1	-8
336.110	1	5
336.281	1	4
336.452	1	0
336.623	1	2
336.794	1	2
336.965	1	0
337.136	1	9
337.307	1	14
337.478	1	3
337.649	1	-10
337.820	1	-10
337.991	1	9
338.162	1	4
338.333	1	6
338.504	1	2
338.675	1	23
338.846	1	7
339.017	1	15
339.188	1	10
339.359	1	4
339.530	1	-4
339.701	1	0
339.872	1	7
340.043	1	-5
340.214	1	7
340.385	1	10
340.556	1	-4
340.727	1	4
340.898	1	0
341.069	1	-15
341.240	1	0
341.411	1	5
341.582	1	8
341.753	1	-2
341.924	1	0
342.095	1	7
342.266	1	-5
342.437	1	-7
342.608	1	12
342.779	1	4
342.950	1	7
343.121	1	0
343.292	1	7
343.463	1	11
343.634	1	7
343.805	1	1
343.976	1	-11
344.147	1	2
344.318	1	8
344.489	1	12
344.660	1	7
344.831	1	10
345.002	1	9
345.173	1	11
345.344	1	-6
345.515	1	13
345.686	1	-12
345.857	1	-9
346.028	1	-2
346.199	1	9
346.370	1	-1
346.541	1	2
346.712	1	3
346.883	1	18
347.054	1	1
347.225	1	-5
347.396	1	0
347.567	1	4
347.738	1	3
347.909	1	-3
348.080	1	6
348.251	1	1
348.422	1	-9
348.593	1	6
348.764	1	-9
348.935	1	2
349.106	1	10
349.277	1	1
349.448	1	-2
349.619	1	9
349.790	1	7
349.961	1	5
350.132	1	10
350.303	1	-2
350.474	1	-2
350.645	1	5
350.816	1	6
350.987	1	9
351.157	1	3
351.328	1	-3
351.499	1	8
351.670	1	1
351.841	1	2
352.012	1	4
352.183	1	5
352.354	1	4
352.525	1	0
352.696	1	0
352.867	1	13
353.038	1	1
353.209	1	1
353.380	1	-1
353.551	1	0
353.722	1	3
353.893	1	6
354.064	1	3
354.235	1	11
354.406	1	2
354.576	1	-2
354.747	1	5
354.918	1	13
355.089	1	10
355.260	1	20
355.431	1	8
355.602	1	1
355.773	1	7
355.944	1	-4
356.115	1	-6
356.286	1	2
356.457	1	-2
356.628	1	-3
356.799	1	13
356.970	1	8
357.141	1	8
357.311	1	-1
357.482	1	3
357.653	1	-1
357.824	1	1
357.995	1	3
358.166	1	8
358.337	1	-3
358.508	1	3
358.679	1	2
358.850	1	4
359.021	1	-1
359.192	1	4
359.363	1	-6
359.533	1	-4
359.704	1	7
359.875	1	-4
360.046	1	2
360.217	1	1
360.388	1	0
360.559	1	7
360.730	1	8
360.901	1	1
361.072	1	0
361.243	1	0
361.414	1	8
361.584	1	13
361.755	1	-4
361.926	1	-3
362.097	1	-3
362.268	1	-1
362.439	1	3
362.610	1	0
362.781	1	5
362.952	1	-2
363.123	1	-10
363.293	1	-3
363.464	1	9
363.635	1	7
363.806	1	9
363.977	1	11
364.148	1	4
364.319	1	-4
364.490	1	9
364.661	1	3
364.832	1	1
365.002	1	0
365.173	1	-10
365.344	1	1
365.515	1	4
365.686	1	-1
365.857	1	8
366.028	1	-1
366.199	1	14
366.370	1	4
366.540	1	-3
366.711	1	3
366.882	1	-3
367.053	1	6
367.224	1	-3
367.395	1	7
367.566	1	12
367.737	1	2
367.908	1	-4
368.078	1	5
368.249	1	4
368.420	1	11
368.591	1	18
368.762	1	-13
368.933	1	12
369.104	1	8
369.274	1	16
369.445	1	16
369.616	1	-1
369.787	1	4
369.958	1	1
370.129	1	3
370.300	1	9
370.471	1	5
370.641	1	4
370.812	1	9
370.983	1	-1
371.154	1	8
371.325	1	10
371.496	1	1
371.667	1	3
371.837	1	-3
372.008	1	11
372.179	1	5
372.350	1	12
372.521	1	-5
372.692	1	12
372.863	1	2
373.033	1	7
373.204	1	10
373.375	1	-2
373.546	1	10
373.717	1	0
373.888	1	13
374.059	1	1
374.229	1	8
374.400	1	2
374.571	1	11
374.742	1	0
374.913	1	8
375.084	1	13
375.254	1	9
375.425	1	3
375.596	1	4
375.767	1	-3
375.938	1	2
376.109	1	-5
376.279	1	8
376.450	1	5
376.621	1	5
376.792	1	5
376.963	1	8
377.134	1	-5
377.304	1	3
377.475	1	-4
377.646	1	4
377.817	1	-5
377.988	1	7
378.159	1	9
378.329	1	6
378.500	1	5
378.671	1	-8
378.842	1	6
379.013	1	6
379.184	1	18
379.354	1	9
379.525	1	0
379.696	1	10
379.867	1	-1
380.038	1	-5
380.209	1	0
380.379	1	10
380.550	1	7
380.721	1	12
380.892	1	12
381.063	1	10
381.233	1	5
381.404	1	3
381.575	1	9
381.746	1	5
381.917	1	-2
382.087	1	-2
382.258	1	13
382.429	1	3
382.600	1	9
382.771	1	11
382.941	1	10
383.112	1	6
383.283	1	5
383.454	1	-2
383.625	1	-1
383.795	1	9
383.966	1	8
384.137	1	7
384.308	1	3
384.479	1	8
384.649	1	11
384.820	1	6
384.991	1	-2
385.162	1	14
385.333	1	2
385.503	1	12
385.674	1	9
385.845	1	3
386.016	1	7
386.187	1	-2
386.357	1	3
386.528	1	-2
386.699	1	6
386.870	1	-4
387.041	1	1
387.211	1	3
387.382	1	-6
387.553	1	15
387.724	1	10
387.894	1	11
388.065	1	21
388.236	1	9
388.407	1	8
388.578	1	1
388.748	1	-1
388.919	1	13
389.090	1	6
389.261	1	1
389.431	1	9
389.602	1	4
389.773	1	-8
389.944	1	-1
390.114	1	11
390.285	1	4
390.456	1	5
390.627	1	3
390.798	1	10
390.968	1	-3
391.139	1	-2
391.310	1	4
391.481	1	5
391.651	1	21
391.822	1	8
391.993	1	7
392.164	1	-1
392.334	1	4
392.505	1	6
392.676	1	5
392.847	1	2
393.017	1	1
393.188	1	5
393.359	1	4
393.530	1	13
393.700	1	6
393.871	1	-1
394.042	1	14
394.213	1	22
394.383	1	12
394.554	1	11
394.725	1	9
394.896	1	4
395.066	1	13
395.237	1	0
395.408	1	11
395.579	1	12
395.749	1	7
395.920	1	4
396.091	1	9
396.262	1	4
396.432	1	2
396.603	1	6
396.774	1	0
396.945	1	7
397.115	1	-8
397.286	1	22
397.457	1	1
397.627	1	-1
397.798	1	5
397.969	1	9
398.140	1	2
398.310	1	7
398.481	1	11
398.652	1	3
398.823	1	-7
398.993	1	24
399.164	1	9
399.335	1	-4
399.505	1	16
399.676	1	15
399.847	1	8
400.018	1	6
400.188	1	16
400.359	1	24
400.530	1	4
400.700	1	0
400.871	1	18
401.042	1	6
401.213	1	4
401.383	1	8
401.554	1	7
401.725	1	-2
401.895	1	-9
402.066	1	19
402.237	1	18
402.408	1	15
402.578	1	11
402.749	1	9
402.920	1	14
403.090	1	14
403.261	1	13
403.432	1	8
403.603	1	-2
403.773	1	15
403.944	1	7
404.115	1	7
404.285	1	19
404.456	1	12
404.627	1	-5
404.797	1	7
404.968	1	7
405.139	1	13
405.310	1	7
405.480	1	10
405.651	1	10
405.822	1	12
405.992	1	7
406.163	1	7
406.334	1	8
406.504	1	1
406.675	1	4
406.846	1	13
407.016	1	-3
407.187	1	15
407.358	1	5
407.528	1	19
407.699	1	10
407.870	1	12
408.041	1	2
408.211	1	2
408.382	1	11
408.553	1	4
408.723	1	15
408.894	1	15
409.065	1	11
409.235	1	8
409.406	1	-2
409.577	1	1
409.747	1	14
409.918	1	9
410.089	1	1
410.259	1	1
410.430	1	2
410.601	1	13
410.771	1	7
410.942	1	0
411.113	1	11
411.283	1	15
411.454	1	12
411.625	1	14
411.795	1	1
411.966	1	-2
412.137	1	8
412.307	1	9
412.478	1	14
412.649	1	7
412.819	1	8
412.990	1	12
413.161	1	8
413.331	1	17
413.502	1	-8
413.672	1	10
413.843	1	7
414.014	1	18
414.184	1	9
414.355	1	4
414.526	1	13
414.696	1	10
414.867	1	9
415.038	1	2
415.208	1	3
415.379	1	4
415.550	1	19
415.720	1	0
415.891	1	21
416.062	1	5
416.232	1	13
416.403	1	8
416.573	1	6
416.744	1	-4
416.915	1	8
417.085	1	2
417.256	1	5
417.427	1	15
417.597	1	18
417.768	1	15
417.939	1	18
418.109	1	-2
418.280	1	6
418.450	1	22
418.621	1	4
418.792	1	-2
418.962	1	13
419.133	1	18
419.304	1	7
419.474	1	1
419.645	1	12
419.815	1	1
419.986	1	6
420.157	1	18
420.327	1	7
420.498	1	-4
420.669	1	15
420.839	1	9
421.010	1	10
421.180	1	-4
421.351	1	21
421.522	1	21
421.692	1	5
421.863	1	19
422.033	1	14
422.204	1	8
422.375	1	6
422.545	1	7
422.716	1	7
422.886	1	17
423.057	1	-2
423.228	1	13
423.398	1	10
423.569	1	8
423.740	1	4
423.910	1	13
424.081	1	18
424.251	1	3
424.422	1	5
424.593	1	7
424.763	1	8
424.934	1	9
425.104	1	3
425.275	1	16
425.445	1	16
425.616	1	11
425.787	1	12
425.957	1	10
426.128	1	19
426.298	1	8
426.469	1	5
426.640	1	8
426.810	1	9
426.981	1	14
427.151	1	11
427.322	1	-2
427.493	1	1
427.663	1	5
427.834	1	-1
428.004	1	12
428.175	1	13
428.345	1	12
428.516	1	4
428.687	1	-1
428.857	1	6
429.028	1	9
429.198	1	3
429.369	1	12
429.540	1	13
429.710	1	12
429.881	1	14
430.051	1	11
430.222	1	5
430.392	1	7
430.563	1	4
430.734	1	17
430.904	1	17
431.075	1	-4
431.245	1	7
431.416	1	-5
431.586	1	6
431.757	1	10
431.927	1	2
432.098	1	14
432.269	1	18
432.439	1	16
432.610	1	14
432.780	1	-1
432.951	1	10
433.121	1	14
433.292	1	11
433.462	1	5
433.633	1	14
433.804	1	-4
433.974	1	13
434.145	1	10
434.315	1	16
434.486	1	-3
434.656	1	7
434.827	1	7
434.997	1	18
435.168	1	13
435.339	1	0
435.509	1	8
435.680	1	6
435.850	1	11
436.021	1	6
436.191	1	11
436.362	1	5
436.532	1	14
436.703	1	22
436.873	1	4
437.044	1	7
437.214	1	16
437.385	1	14
437.556	1	2
437.726	1	1
437.897	1	7
438.067	1	1
438.238	1	4
438.408	1	7
438.579	1	6
438.749	1	-6
438.920	1	22
439.090	1	10
439.261	1	4
439.431	1	7
439.602	1	8
439.772	1	6
439.943	1	15
440.113	1	8
440.284	1	12
440.455	1	12
440.625	1	2
440.796	1	4
440.966	1	8
441.137	1	8
441.307	1	10
441.478	1	8
441.648	1	7
441.819	1	3
441.989	1	0
442.160	1	12
442.330	1	11
442.501	1	2
442.671	1	9
442.842	1	11
443.012	1	4
443.183	1	5
443.353	1	11
443.524	1	1
443.694	1	12
443.865	1	9
444.035	1	11
444.206	1	6
444.376	1	18
444.547	1	10
444.717	1	15
444.888	1	0
445.058	1	8
445.229	1	7
445.399	1	4
445.570	1	11
445.740	1	13
445.911	1	18
446.081	1	21
446.252	1	-4
446.422	1	16
446.593	1	9
446.763	1	15
446.934	1	14
447.104	1	1
447.275	1	23
447.445	1	7
447.616	1	5
447.786	1	4
447.957	1	8
448.127	1	17
448.298	1	5
448.468	1	7
448.639	1	0
448.809	1	8
448.979	1	6
449.150	1	10
449.320	1	10
449.491	1	12
449.661	1	6
449.832	1	16
450.002	1	9
450.173	1	3
450.343	1	5
450.514	1	14
450.684	1	12
450.855	1	5
451.025	1	10
451.196	1	4
451.366	1	5
451.537	1	12
451.707	1	15
451.878	1	10
452.048	1	3
452.218	1	1
452.389	1	4
452.559	1	7
452.730	1	5
452.900	1	13
453.071	1	5
453.241	1	6
453.412	1	5
453.582	1	3
453.753	1	9
453.923	1	9
454.093	1	15
454.264	1	5
454.434	1	23
454.605	1	8
454.775	1	6
454.946	1	9
455.116	1	-4
455.287	1	6
455.457	1	2
455.628	1	3
455.798	1	9
455.968	1	7
456.139	1	16
456.309	1	21
456.480	1	7
456.650	1	20
456.821	1	18
456.991	1	8
457.161	1	8
457.332	1	6
457.502	1	13
457.673	1	17
457.843	1	13
458.014	1	11
458.184	1	10
458.355	1	13
458.525	1	14
458.695	1	2
458.866	1	23
459.036	1	5
459.207	1	10
459.377	1	10
459.548	1	-6
459.718	1	10
459.888	1	21
460.059	1	17
460.229	1	4
460.400	1	15
460.570	1	12
460.740	1	4
460.911	1	10
461.081	1	16
461.252	1	4
461.422	1	5
461.593	1	3
461.763	1	9
461.933	1	8
462.104	1	8
462.274	1	3
462.445	1	2
462.615	1	6
462.785	1	3
462.956	1	10
463.126	1	2
463.297	1	9
463.467	1	10
463.638	1	17
463.808	1	17
463.978	1	1
464.149	1	-4
464.319	1	12
464.490	1	8
464.660	1	9
464.830	1	5
465.001	1	12
465.171	1	-4
465.342	1	-6
465.512	1	5
465.682	1	7
465.853	1	-1
466.023	1	4
466.194	1	7
466.364	1	11
466.534	1	3
466.705	1	4
466.875	1	0
467.045	1	1
467.216	1	15
467.386	1	14
467.557	1	9
467.727	1	14
467.897	1	11
468.068	1	-3
468.238	1	6
468.409	1	7
468.579	1	12
468.749	1	6
468.920	1	5
469.090	1	11
469.260	1	7
469.431	1	17
469.601	1	-4
469.772	1	4
469.942	1	5
470.112	1	7
470.283	1	14
470.453	1	11
470.623	1	4
470.794	1	8
470.964	1	12
471.135	1	3
471.305	1	14
471.475	1	-6
471.646	1	11
471.816	1	11
471.986	1	9
472.157	1	15
472.327	1	7
472.497	1	6
472.668	1	8
472.838	1	8
473.009	1	13
473.179	1	4
473.349	1	13
473.520	1	-2
473.690	1	19
473.860	1	10
474.031	1	11
474.201	1	8
474.371	1	9
474.542	1	3
474.712	1	2
474.882	1	4
475.053	1	12
475.223	1	2
475.394	1	-3
475.564	1	0
475.734	1	9
475.905	1	12
476.075	1	8
476.245	1	8
476.416	1	-3
476.586	1	1
476.756	1	4
476.927	1	-2
477.097	1	4
477.267	1	10
477.438	1	17
477.608	1	5
477.778	1	3
477.949	1	0
478.119	1	7
478.289	1	-3
478.460	1	-2
478.630	1	20
478.800	1	9
478.971	1	9
479.141	1	0
479.311	1	10
479.482	1	6
479.652	1	15
479.822	1	9
479.993	1	4
480.163	1	6
480.333	1	8
480.504	1	5
480.674	1	0
480.844	1	4
481.015	1	-1
481.185	1	7
481.355	1	4
481.525	1	3
481.696	1	4
481.866	1	8
482.036	1	8
482.207	1	14
482.377	1	9
482.547	1	8
482.718	1	-4
482.888	1	14
483.058	1	7
483.229	1	12
483.399	1	10
483.569	1	5
483.740	1	-3
483.910	1	4
484.080	1	-1
484.250	1	1
484.421	1	3
484.591	1	11
484.761	1	1
484.932	1	3
485.102	1	6
485.272	1	10
485.443	1	7
485.613	1	8
485.783	1	12
485.953	1	2
486.124	1	5
486.294	1	5
486.464	1	5
486.635	1	9
486.805	1	-2
486.975	1	2
487.146	1	5
487.316	1	4
487.486	1	4
487.656	1	3
487.827	1	1
487.997	1	-1
488.167	1	7
488.338	1	6
488.508	1	14
488.678	1	1
488.848	1	10
489.019	1	4
489.189	1	8
489.359	1	7
489.529	1	10
489.700	1	3
489.870	1	-4
490.040	1	2
490.211	1	13
490.381	1	9
490.551	1	0
490.721	1	-1
490.892	1	13
491.062	1	0
491.232	1	-3
491.402	1	1
491.573	1	7
491.743	1	1
491.913	1	-4
492.084	1	5
492.254	1	6
492.424	1	4
492.594	1	4
492.765	1	3
492.935	1	-4
493.105	1	12
493.275	1	2
493.446	1	0
493.616	1	0
493.786	1	3
493.956	1	-8
494.127	1	16
494.297	1	-5
494.467	1	9
494.637	1	11
494.808	1	10
494.978	1	0
495.148	1	-5
495.318	1	12
495.489	1	-3
495.659	1	-8
495.829	1	6
495.999	1	3
496.170	1	-2
496.340	1	3
496.510	1	13
496.680	1	-4
496.851	1	15
497.021	1	-4
497.191	1	6
497.361	1	1
497.532	1	6
497.702	1	7
497.872	1	14
498.042	1	7
498.213	1	14
498.383	1	8
498.553	1	5
498.723	1	6
498.894	1	-2
499.064	1	6
499.234	1	2
499.404	1	-1
499.574	1	6
499.745	1	7
499.915	1	13
500.085	1	5
500.255	1	-5
500.426	1	1
500.596	1	2
500.766	1	-6
500.936	1	16
501.106	1	3
501.277	1	15
501.447	1	4
501.617	1	4
501.787	1	6
501.958	1	7
502.128	1	-5
502.298	1	1
502.468	1	11
502.638	1	6
502.809	1	0
502.979	1	19
503.149	1	-10
503.319	1	13
503.489	1	-2
503.660	1	-6
503.830	1	7
504.000	1	6
504.170	1	9
504.340	1	-3
504.511	1	14
504.681	1	-10
504.851	1	9
505.021	1	17
505.192	1	-6
505.362	1	6
505.532	1	7
505.702	1	-1
505.872	1	-1
506.043	1	10
506.213	1	14
506.383	1	9
506.553	1	9
506.723	1	1
506.893	1	-6
507.064	1	-3
507.234	1	-3
507.404	1	3
507.574	1	-2
507.744	1	12
507.915	1	14
508.085	1	5
508.255	1	3
508.425	1	-11
508.595	1	2
508.766	1	-4
508.936	1	8
509.106	1	4
509.276	1	15
509.446	1	-5
509.616	1	6
509.787	1	10
509.957	1	6
510.127	1	-1
510.297	1	-3
510.467	1	-16
510.638	1	11
510.808	1	-2
510.978	1	-2
511.148	1	18
511.318	1	4
511.488	1	17
511.659	1	-5
511.829	1	-2
511.999	1	9
512.169	1	-6
512.339	1	4
512.509	1	6
512.680	1	9
512.850	1	8
513.020	1	2
513.190	1	5
513.360	1	11
513.530	1	2
513.700	1	9
513.871	1	-3
514.041	1	3
514.211	1	-4
514.381	1	7
514.551	1	5
514.721	1	1
514.892	1	-3
515.062	1	-2
515.232	1	5
515.402	1	-6
515.572	1	-1
515.742	1	4
515.912	1	1
516.083	1	3
516.253	1	6
516.423	1	-1
516.593	1	12
516.763	1	1
516.933	1	1
517.104	1	-1
517.274	1	-7
517.444	1	-2
517.614	1	0
517.784	1	8
517.954	1	7
518.124	1	4
518.294	1	13
518.465	1	4
518.635	1	1
518.805	1	14
518.975	1	-2
519.145	1	2
519.315	1	-8
519.485	1	-2
519.656	1	6
519.826	1	10
519.996	1	4
520.166	1	6
520.336	1	-3
520.506	1	-14
520.676	1	10
520.846	1	-1
521.017	1	-7
521.187	1	5
521.357	1	1
521.527	1	7
521.697	1	19
521.867	1	6
522.037	1	-8
522.207	1	-1
522.377	1	7
522.548	1	7
522.718	1	-2
522.888	1	2
523.058	1	9
523.228	1	12
523.398	1	-1
523.568	1	8
523.738	1	-3
523.909	1	1
524.079	1	1
524.249	1	1
524.419	1	2
524.589	1	-3
524.759	1	5
524.929	1	2
525.099	1	3
525.269	1	16
525.439	1	6
525.610	1	7
525.780	1	7
525.950	1	6
526.120	1	-14
526.290	1	-7
526.460	1	-5
526.630	1	10
526.800	1	5
526.970	1	12
527.140	1	-8
527.311	1	-3
527.481	1	8
527.651	1	-2
527.821	1	-4
527.991	1	-5
528.161	1	4
528.331	1	15
528.501	1	7
528.671	1	4
528.841	1	6
529.011	1	-2
529.181	1	-4
529.352	1	-3
529.522	1	-8
529.692	1	1
529.862	1	9
530.032	1	2
530.202	1	7
530.372	1	4
530.542	1	-8
530.712	1	-5
530.882	1	-6
531.052	1	9
531.222	1	-8
531.392	1	2
531.563	1	12
531.733	1	18
531.903	1	10
532.073	1	10
532.243	1	-5
532.413	1	9
532.583	1	-7
532.753	1	-3
532.923	1	10
533.093	1	14
533.263	1	-4
533.433	1	9
533.603	1	7
533.773	1	-1
533.943	1	0
534.113	1	1
534.284	1	1
534.454	1	-4
534.624	1	11
534.794	1	0
534.964	1	2
535.134	1	13
535.304	1	11
535.474	1	-5
535.644	1	-10
535.814	1	6
535.984	1	7
536.154	1	7
536.324	1	12
536.494	1	-1
536.664	1	-2
536.834	1	0
537.004	1	9
537.174	1	7
537.344	1	-1
537.514	1	0
537.685	1	-4
537.855	1	-3
538.025	1	-2
538.195	1	-2
538.365	1	-2
538.535	1	-14
538.705	1	10
538.875	1	8
539.045	1	-4
539.215	1	-5
539.385	1	0
539.555	1	-4
539.725	1	-3
539.895	1	10
540.065	1	1
540.235	1	0
540.405	1	1
540.575	1	-4
540.745	1	2
540.915	1	-1
541.085	1	-9
541.255	1	-6
541.425	1	6
541.595	1	5
541.765	1	5
541.935	1	-3
542.105	1	2
542.275	1	4
542.445	1	-7
542.615	1	8
542.785	1	-4
542.955	1	0
543.125	1	-11
543.295	1	-2
543.465	1	3
543.635	1	11
543.805	1	13
543.975	1	-1
544.145	1	-2
544.315	1	0
544.485	1	0
544.655	1	13
544.825	1	0
544.995	1	5
545.165	1	-1
545.335	1	2
545.505	1	10
545.675	1	-7
545.845	1	10
546.015	1	4
546.185	1	13
546.355	1	6
546.525	1	11
546.695	1	-1
546.865	1	13
547.035	1	3
547.205	1	3
547.375	1	1
547.545	1	11
547.715	1	14
547.885	1	14
548.055	1	-11
548.225	1	3
548.395	1	2
548.565	1	-1
548.735	1	8
548.905	1	-9
549.075	1	3
549.245	1	11
549.415	1	7
549.585	1	10
549.755	1	4
549.925	1	5
550.095	1	7
550.265	1	8
550.435	1	-6
550.605	1	11
550.775	1	-5
550.945	1	-1
551.115	1	-8
551.285	1	1
551.455	1	1
551.625	1	-11
551.795	1	-4
551.965	1	13
552.135	1	-1
552.305	1	-6
552.475	1	-3
552.645	1	2
552.815	1	3
552.985	1	-7
553.155	1	4
553.325	1	4
553.495	1	3
553.665	1	19
553.835	1	7
554.004	1	-8
554.174	1	4
554.344	1	-3
554.514	1	5
554.684	1	-7
554.854	1	-4
555.024	1	1
555.194	1	4
555.364	1	8
555.534	1	2
555.704	1	3
555.874	1	-5
556.044	1	8
556.214	1	-4
556.384	1	3
556.554	1	6
556.724	1	-1
556.894	1	-6
557.064	1	-1
557.234	1	-12
557.404	1	-1
557.573	1	-13
557.743	1	-2
557.913	1	-3
558.083	1	6
558.253	1	-7
558.423	1	-5
558.593	1	10
558.763	1	6
558.933	1	-8
559.103	1	12
559.273	1	-2
559.443	1	1
559.613	1	-4
559.783	1	5
559.953	1	9
560.122	1	-3
560.292	1	-2
560.462	1	6
560.632	1	13
560.802	1	2
560.972	1	6
561.142	1	5
561.312	1	8
561.482	1	2
561.652	1	-6
561.822	1	1
561.992	1	-12
562.162	1	6
562.331	1	13
562.501	1	-3
562.671	1	9
562.841	1	-1
563.011	1	-5
563.181	1	6
563.351	1	-1
563.521	1	8
563.691	1	10
563.861	1	-6
564.031	1	-12
564.201	1	-3
564.370	1	-3
564.540	1	-4
564.710	1	-1
564.880	1	-3
565.050	1	4
565.220	1	-5
565.390	1	-5
565.560	1	3
565.730	1	-3
565.900	1	-9
566.069	1	-4
566.239	1	-1
566.409	1	13
566.579	1	3
566.749	1	2
566.919	1	1
567.089	1	5
567.259	1	9
567.429	1	11
567.599	1	-6
567.768	1	7
567.938	1	-4
568.108	1	5
568.278	1	-3
568.448	1	5
568.618	1	4
568.788	1	-8
568.958	1	-6
569.128	1	1
569.297	1	-1
569.467	1	-3
569.637	1	-4
569.807	1	8
569.977	1	3
570.147	1	1
570.317	1	-2
570.487	1	6
570.656	1	-2
570.826	1	-2
570.996	1	0
571.166	1	1
571.336	1	-6
571.506	1	-7
571.676	1	-13
571.846	1	2
572.015	1	-2
572.185	1	5
572.355	1	2
572.525	1	-9
572.695	1	1
572.865	1	7
573.035	1	-19
573.205	1	-10
573.374	1	11
573.544	1	-3
573.714	1	10
573.884	1	-1
574.054	1	-4
574.224	1	-2
574.394	1	10
574.563	1	18
574.733	1	6
574.903	1	-5
575.073	1	-10
575.243	1	2
575.413	1	-1
575.583	1	-4
575.752	1	6
575.922	1	11
576.092	1	2
576.262	1	0
576.432	1	-4
576.602	1	-1
576.772	1	-2
576.941	1	3
577.111	1	-6
577.281	1	25
577.451	1	4
577.621	1	2
577.791	1	-2
577.960	1	-6
578.130	1	7
578.300	1	-6
578.470	1	7
578.640	1	-3
578.810	1	1
578.979	1	0
579.149	1	-4
579.319	1	-4
579.489	1	0
579.659	1	-1
579.829	1	4
579.998	1	5
580.168	1	-11
580.338	1	4
580.508	1	-3
580.678	1	10
580.848	1	-6
581.017	1	4
581.187	1	8
581.357	1	1
581.527	1	-2
581.697	1	-7
581.867	1	2
582.036	1	8
582.206	1	2
582.376	1	-3
582.546	1	9
582.716	1	1
582.885	1	-6
583.055	1	-1
583.225	1	-4
583.395	1	-3
583.565	1	-6
583.735	1	0
583.904	1	-6
584.074	1	3
584.244	1	1
584.414	1	-2
584.584	1	4
584.753	1	13
584.923	1	9
585.093	1	-3
585.263	1	-1
585.433	1	15
585.602	1	5
585.772	1	0
585.942	1	-3
586.112	1	-4
586.282	1	6
586.451	1	-13
586.621	1	-7
586.791	1	5
586.961	1	8
587.131	1	7
587.300	1	6
587.470	1	-7
587.640	1	-13
587.810	1	-9
587.980	1	-13
588.149	1	0
588.319	1	5
588.489	1	-6
588.659	1	-1
588.829	1	-3
588.998	1	1
589.168	1	-2
589.338	1	-3
589.508	1	4
589.677	1	-1
589.847	1	4
590.017	1	9
590.187	1	-2
590.357	1	-4
590.526	1	9
590.696	1	1
590.866	1	3
591.036	1	-4
591.205	1	6
591.375	1	1
591.545	1	3
591.715	1	-10
591.885	1	-10
592.054	1	8
592.224	1	3
592.394	1	-2
592.564	1	3
592.733	1	7
592.903	1	3
593.073	1	-11
593.243	1	1
593.412	1	-12
593.582	1	-3
593.752	1	2
593.922	1	4
594.091	1	-18
594.261	1	-5
594.431	1	2
594.601	1	6
594.771	1	10
594.940	1	3
595.110	1	0
595.280	1	6
595.450	1	10
595.619	1	1
595.789	1	11
595.959	1	-9
596.129	1	-6
596.298	1	3
596.468	1	7
596.638	1	-2
596.808	1	-11
596.977	1	9
597.147	1	-4
597.317	1	7
597.487	1	0
597.656	1	1
597.826	1	-5
597.996	1	8
598.166	1	13
598.335	1	-3
598.505	1	-9
598.675	1	0
598.844	1	1
599.014	1	14
599.184	1	-8
599.354	1	-6
599.523	1	12
599.693	1	8
599.863	1	2
600.033	1	-4
600.202	1	2
600.372	1	2
600.542	1	11
600.712	1	2
600.881	1	5
601.051	1	2
601.221	1	3
601.390	1	2
601.560	1	4
601.730	1	8
601.900	1	21
602.069	1	-15
602.239	1	-2
602.409	1	0
602.578	1	13
602.748	1	-13
602.918	1	9
603.088	1	9
603.257	1	12
603.427	1	12
603.597	1	5
603.767	1	-2
603.936	1	1
604.106	1	1
604.276	1	0
604.445	1	-7
604.615	1	-1
604.785	1	-5
604.954	1	4
605.124	1	4
605.294	1	6
605.464	1	-3
605.633	1	-1
605.803	1	6
605.973	1	3
606.142	1	4
606.312	1	3
606.482	1	-2
606.652	1	6
606.821	1	4
606.991	1	-6
607.161	1	9
607.330	1	8
607.500	1	7
607.670	1	5
607.839	1	-5
608.009	1	-7
608.179	1	5
608.348	1	7
608.518	1	3
608.688	1	4
608.858	1	-3
609.027	1	0
609.197	1	14
609.367	1	1
609.536	1	9
609.706	1	-1
609.876	1	3
610.045	1	0
610.215	1	5
610.385	1	-1
610.554	1	6
610.724	1	9
610.894	1	-1
611.063	1	6
611.233	1	-7
611.403	1	5
611.572	1	2
611.742	1	3
611.912	1	12
612.081	1	1
612.251	1	12
612.421	1	2
612.590	1	-2
612.760	1	6
612.930	1	0
613.099	1	2
613.269	1	1
613.439	1	-5
613.608	1	10
613.778	1	5
613.948	1	9
614.117	1	0
614.287	1	9
614.457	1	4
614.626	1	7
614.796	1	0
614.966	1	5
615.135	1	3
615.305	1	5
615.475	1	-4
615.644	1	12
615.814	1	-2
615.984	1	1
616.153	1	-3
616.323	1	-7
616.493	1	16
616.662	1	-9
616.832	1	2
617.002	1	1
617.171	1	-1
617.341	1	-1
617.511	1	-11
617.680	1	-9
617.850	1	-7
618.019	1	6
618.189	1	3
618.359	1	-6
618.528	1	-5
618.698	1	2
618.868	1	-6
619.037	1	6
619.207	1	7
619.377	1	4
619.546	1	-2
619.716	1	1
619.885	1	0
620.055	1	11
620.225	1	9
620.394	1	4
620.564	1	-7
620.734	1	4
620.903	1	3
621.073	1	3
621.242	1	-7
621.412	1	5
621.582	1	-5
621.751	1	1
621.921	1	9
622.091	1	-3
622.260	1	5
622.430	1	7
622.599	1	8
622.769	1	-2
622.939	1	-1
623.108	1	2
623.278	1	9
623.448	1	4
623.617	1	-2
623.787	1	5
623.956	1	6
624.126	1	-2
624.296	1	13
624.465	1	8
624.635	1	5
624.804	1	-7
624.974	1	3
625.144	1	12
625.313	1	-2
625.483	1	9
625.652	1	15
625.822	1	9
625.992	1	18
626.161	1	-7
626.331	1	-5
626.501	1	-1
626.670	1	2
626.840	1	-2
627.009	1	1
627.179	1	-7
627.348	1	21
627.518	1	3
627.688	1	5
627.857	1	2
628.027	1	-2
628.196	1	-9
628.366	1	8
628.536	1	5
628.705	1	1
628.875	1	4
629.044	1	9
629.214	1	-6
629.384	1	-1
629.553	1	-4
629.723	1	-6
629.892	1	2
630.062	1	-9
630.232	1	10
630.401	1	-1
630.571	1	9
630.740	1	9
630.910	1	1
631.079	1	6
631.249	1	-2
631.419	1	9
631.588	1	-1
631.758	1	5
631.927	1	1
632.097	1	3
632.266	1	-5
632.436	1	6
632.606	1	-7
632.775	1	2
632.945	1	8
633.114	1	7
633.284	1	12
633.453	1	5
633.623	1	10
633.793	1	5
633.962	1	11
634.132	1	3
634.301	1	-2
634.471	1	-9
634.640	1	-1
634.810	1	5
634.979	1	-7
635.149	1	3
635.319	1	7
635.488	1	-4
635.658	1	6
635.827	1	-4
635.997	1	-1
636.166	1	-4
636.336	1	2
636.505	1	9
636.675	1	2
636.845	1	5
637.014	1	6
637.184	1	11
637.353	1	6
637.523	1	1
637.692	1	-4
637.862	1	-2
638.031	1	4
638.201	1	-1
638.370	1	9
638.540	1	-4
638.710	1	4
638.879	1	5
639.049	1	2
639.218	1	13
639.388	1	-4
639.557	1	13
639.727	1	11
639.896	1	-7
640.066	1	6
640.235	1	0
640.405	1	12
640.574	1	3
640.744	1	0
640.914	1	1
641.083	1	1
641.253	1	-2
641.422	1	11
641.592	1	1
641.761	1	-5
641.931	1	3
642.100	1	9
642.270	1	-4
642.439	1	0
642.609	1	6
642.778	1	0
642.948	1	8
643.117	1	6
643.287	1	0
643.456	1	8
643.626	1	3
643.795	1	9
643.965	1	3
644.134	1	6
644.304	1	14
644.473	1	-11
644.643	1	-3
644.812	1	8
644.982	1	2
645.151	1	3
645.321	1	-3
645.490	1	9
645.660	1	2
645.829	1	-3
645.999	1	1
646.168	1	4
646.338	1	1
646.507	1	-2
646.677	1	-2
646.846	1	13
647.016	1	3
647.185	1	1
647.355	1	1
647.524	1	-1
647.694	1	0
647.863	1	2
648.033	1	4
648.202	1	-7
648.372	1	2
648.541	1	3
648.711	1	9
648.880	1	-3
649.050	1	5
649.219	1	-3
649.389	1	-2
649.558	1	6
649.728	1	-3
649.897	1	-7
650.067	1	3
650.236	1	0
650.406	1	4
650.575	1	6
650.745	1	5
650.914	1	9
651.084	1	-6
651.253	1	-6
651.423	1	4
651.592	1	-7
651.762	1	-4
651.931	1	8
652.101	1	5
652.270	1	-7
652.440	1	6
652.609	1	10
652.778	1	12
652.948	1	-6
653.117	1	3
653.287	1	-4
653.456	1	4
653.626	1	6
653.795	1	6
653.965	1	-7
654.134	1	-2
654.304	1	-7
654.473	1	-8
654.643	1	4
654.812	1	3
654.982	1	2
655.151	1	10
655.320	1	7
655.490	1	4
655.659	1	2
655.829	1	6
655.998	1	-10
656.168	1	-10
656.337	1	0
656.507	1	-6
656.676	1	4
656.846	1	6
657.015	1	1
657.184	1	2
657.354	1	9
657.523	1	0
657.693	1	-1
657.862	1	-4
658.032	1	0
658.201	1	3
658.371	1	-4
658.540	1	2
658.709	1	-3
658.879	1	15
659.048	1	7
659.218	1	-7
659.387	1	4
659.557	1	-4
659.726	1	-3
659.895	1	-1
660.065	1	5
660.234	1	7
660.404	1	5
660.573	1	3
660.743	1	-6
660.912	1	-1
661.081	1	-2
661.251	1	5
661.420	1	8
661.590	1	-2
661.759	1	-5
661.929	1	-1
662.098	1	-2
662.267	1	12
662.437	1	8
662.606	1	-2
662.776	1	-1
662.945	1	3
663.115	1	2
663.284	1	0
663.453	1	9
663.623	1	17
663.792	1	1
663.962	1	8
664.131	1	-6
664.300	1	-14
664.470	1	-1
664.639	1	-6
664.809	1	-1
664.978	1	-9
665.148	1	-5
665.317	1	-1
665.486	1	0
665.656	1	-2
665.825	1	4
665.995	1	1
666.164	1	-3
666.333	1	3
666.503	1	2
666.672	1	7
666.842	1	1
667.011	1	0
667.180	1	11
667.350	1	-4
667.519	1	11
667.689	1	1
667.858	1	3
668.027	1	-3
668.197	1	12
668.366	1	-4
668.536	1	-3
668.705	1	6
668.874	1	-3
669.044	1	11
669.213	1	6
669.382	1	0
669.552	1	3
669.721	1	2
669.891	1	-7
670.060	1	7
670.229	1	-1
670.399	1	1
670.568	1	2
670.738	1	3
670.907	1	7
671.076	1	8
671.246	1	-8
671.415	1	5
671.584	1	1
671.754	1	-10
671.923	1	10
672.093	1	0
672.262	1	3
672.431	1	10
672.601	1	4
672.770	1	-4
672.939	1	-8
673.109	1	4
673.278	1	-3
673.448	1	1
673.617	1	8
673.786	1	0
