325.333	1	1
325.504	1	3
325.675	1	1
325.846	1	4
326.017	1	-1
326.188	1	-1
326.359	1	1
326.531	1	15
326.702	1	12
326.873	1	-2
327.044	1	13
327.215	1	-3
327.386	1	1
327.557	1	4
327.728	1	-6
327.899	1	-1
328.070	1	3
328.241	1	-2
328.412	1	-9
328.583	1	4
328.754	1	-6
328.926	1	14
329.097	1	-3
329.268	1	-9
329.439	1	-8
329.610	1	-2
329.781	1	11
329.952	1	1
330.123	1	3
330.294	1	0
330.465	1	8
330.636	1	8
330.807	1	-3
330.978	1	-2
331.149	1	1
331.320	1	4
331.492	1	-1
331.663	1	-3
331.834	1	1
332.005	1	3
332.176	1	9
332.347	1	15
332.518	1	14
332.689	1	8
332.860	1	3
333.031	1	9
333.202	1	-3
333.373	1	-5
333.544	1	-2
333.715	1	3
333.886	1	0
334.057	1	2
334.228	1	-5
334.399	1	6
334.570	1	-12
334.741	1	0
334.912	1	1
335.084	1	-7
335.255	1	-4
335.426	1	-1
335.597	1	3
335.768	1	-7
335.939	1	1
336.110	1	16
336.281	1	-2
336.452	1	-1
336.623	1	-7
336.794	1	-6
336.965	1	-2
337.136	1	10
337.307	1	11
337.478	1	5
337.649	1	-9
337.820	1	-12
337.991	1	8
338.162	1	8
338.333	1	9
338.504	1	0
338.675	1	6
338.846	1	6
339.017	1	14
339.188	1	13
339.359	1	14
339.530	1	1
339.701	1	-9
339.872	1	0
340.043	1	2
340.214	1	1
340.385	1	13
340.556	1	-10
340.727	1	1
340.898	1	14
341.069	1	-9
341.240	1	0
341.411	1	14
341.582	1	4
341.753	1	-3
341.924	1	0
342.095	1	6
342.266	1	-2
342.437	1	-8
342.608	1	3
342.779	1	13
342.950	1	5
343.121	1	3
343.292	1	7
343.463	1	9
343.634	1	1
343.805	1	-7
343.976	1	-11
344.147	1	0
344.318	1	4
344.489	1	11
344.660	1	5
344.831	1	6
345.002	1	10
345.173	1	5
345.344	1	-4
345.515	1	-1
345.686	1	-4
345.857	1	-4
346.028	1	-2
346.199	1	8
346.370	1	-3
346.541	1	11
346.712	1	2
346.883	1	16
347.054	1	-3
347.225	1	-12
347.396	1	-2
347.567	1	-1
347.738	1	-6
347.909	1	0
348.080	1	4
348.251	1	-4
348.422	1	0
348.593	1	10
348.764	1	2
348.935	1	-3
349.106	1	5
349.277	1	2
349.448	1	-2
349.619	1	7
349.790	1	3
349.961	1	12
350.132	1	1
350.303	1	-8
350.474	1	-1
350.645	1	3
350.816	1	0
350.987	1	12
351.157	1	2
351.328	1	2
351.499	1	10
351.670	1	1
351.841	1	5
352.012	1	-7
352.183	1	1
352.354	1	0
352.525	1	10
352.696	1	1
352.867	1	3
353.038	1	-12
353.209	1	0
353.380	1	-4
353.551	1	-6
353.722	1	3
353.893	1	11
354.064	1	-1
354.235	1	7
354.406	1	7
354.576	1	0
354.747	1	8
354.918	1	9
355.089	1	8
355.260	1	10
355.431	1	3
355.602	1	4
355.773	1	3
355.944	1	3
356.115	1	-5
356.286	1	8
356.457	1	-1
356.628	1	-2
356.799	1	2
356.970	1	1
357.141	1	-1
357.311	1	-7
357.482	1	-9
357.653	1	-1
357.824	1	-1
357.995	1	5
358.166	1	1
358.337	1	-9
358.508	1	-15
358.679	1	1
358.850	1	-6
359.021	1	6
359.192	1	6
359.363	1	-7
359.533	1	2
359.704	1	4
359.875	1	0
360.046	1	-6
360.217	1	-4
360.388	1	-10
360.559	1	6
360.730	1	-6
360.901	1	-1
361.072	1	9
361.243	1	-2
361.414	1	-1
361.584	1	12
361.755	1	3
361.926	1	-4
362.097	1	-7
362.268	1	13
362.439	1	16
362.610	1	-3
362.781	1	10
362.952	1	3
363.123	1	-2
363.293	1	8
363.464	1	3
363.635	1	12
363.806	1	1
363.977	1	12
364.148	1	8
364.319	1	0
364.490	1	0
364.661	1	14
364.832	1	4
365.002	1	-6
365.173	1	-4
365.344	1	6
365.515	1	7
365.686	1	-4
365.857	1	-2
366.028	1	1
366.199	1	3
366.370	1	8
366.540	1	-8
366.711	1	6
366.882	1	-1
367.053	1	12
367.224	1	-1
367.395	1	7
367.566	1	3
367.737	1	7
367.908	1	-3
368.078	1	4
368.249	1	4
368.420	1	2
368.591	1	3
368.762	1	-2
368.933	1	11
369.104	1	-4
369.274	1	8
369.445	1	13
369.616	1	-7
369.787	1	-5
369.958	1	8
370.129	1	0
370.300	1	5
370.471	1	4
370.641	1	0
370.812	1	3
370.983	1	0
371.154	1	5
371.325	1	5
371.496	1	-1
371.667	1	5
371.837	1	2
372.008	1	6
372.179	1	0
372.350	1	9
372.521	1	6
372.692	1	-1
372.863	1	1
373.033	1	11
373.204	1	14
373.375	1	9
373.546	1	12
373.717	1	7
373.888	1	4
374.059	1	4
374.229	1	3
374.400	1	7
374.571	1	4
374.742	1	3
374.913	1	5
375.084	1	9
375.254	1	9
375.425	1	-4
375.596	1	4
375.767	1	-10
375.938	1	-2
376.109	1	-2
376.279	1	3
376.450	1	-5
376.621	1	12
376.792	1	19
376.963	1	1
377.134	1	2
377.304	1	5
377.475	1	1
377.646	1	2
377.817	1	6
377.988	1	-5
378.159	1	1
378.329	1	14
378.500	1	-1
378.671	1	-11
378.842	1	4
379.013	1	11
379.184	1	4
379.354	1	17
379.525	1	-8
379.696	1	11
379.867	1	-15
380.038	1	4
380.209	1	6
380.379	1	5
380.550	1	-4
380.721	1	3
380.892	1	4
381.063	1	-2
381.233	1	10
381.404	1	7
381.575	1	9
381.746	1	3
381.917	1	-3
382.087	1	3
382.258	1	11
382.429	1	17
382.600	1	7
382.771	1	5
382.941	1	-4
383.112	1	5
383.283	1	5
383.454	1	1
383.625	1	0
383.795	1	8
383.966	1	9
384.137	1	1
384.308	1	7
384.479	1	11
384.649	1	8
384.820	1	5
384.991	1	-9
385.162	1	5
385.333	1	-6
385.503	1	13
385.674	1	15
385.845	1	2
386.016	1	11
386.187	1	7
386.357	1	2
386.528	1	-5
386.699	1	-10
386.870	1	14
387.041	1	5
387.211	1	5
387.382	1	-6
387.553	1	10
387.724	1	5
387.894	1	7
388.065	1	13
388.236	1	9
388.407	1	13
388.578	1	6
388.748	1	7
388.919	1	14
389.090	1	4
389.261	1	13
389.431	1	17
389.602	1	1
389.773	1	-2
389.944	1	3
390.114	1	9
390.285	1	8
390.456	1	4
390.627	1	12
390.798	1	14
390.968	1	5
391.139	1	1
391.310	1	10
391.481	1	13
391.651	1	7
391.822	1	0
391.993	1	7
392.164	1	-13
392.334	1	-9
392.505	1	5
392.676	1	7
392.847	1	10
393.017	1	3
393.188	1	4
393.359	1	10
393.530	1	2
393.700	1	19
393.871	1	-6
394.042	1	14
394.213	1	11
394.383	1	10
394.554	1	7
394.725	1	12
394.896	1	15
395.066	1	3
395.237	1	1
395.408	1	-4
395.579	1	7
395.749	1	6
395.920	1	9
396.091	1	11
396.262	1	0
396.432	1	6
396.603	1	7
396.774	1	9
396.945	1	-6
397.115	1	-7
397.286	1	22
397.457	1	-2
397.627	1	9
397.798	1	9
397.969	1	10
398.140	1	8
398.310	1	17
398.481	1	13
398.652	1	-4
398.823	1	4
398.993	1	17
399.164	1	2
399.335	1	-3
399.505	1	16
399.676	1	2
399.847	1	18
400.018	1	10
400.188	1	8
400.359	1	18
400.530	1	3
400.700	1	8
400.871	1	13
401.042	1	7
401.213	1	3
401.383	1	7
401.554	1	6
401.725	1	10
401.895	1	0
402.066	1	15
402.237	1	15
402.408	1	13
402.578	1	8
402.749	1	12
402.920	1	12
403.090	1	8
403.261	1	3
403.432	1	12
403.603	1	-2
403.773	1	8
403.944	1	9
404.115	1	2
404.285	1	20
404.456	1	3
404.627	1	1
404.797	1	8
404.968	1	7
405.139	1	3
405.310	1	7
405.480	1	12
405.651	1	11
405.822	1	20
405.992	1	13
406.163	1	8
406.334	1	9
406.504	1	-7
406.675	1	11
406.846	1	7
407.016	1	8
407.187	1	3
407.358	1	4
407.528	1	5
407.699	1	8
407.870	1	10
408.041	1	1
408.211	1	3
408.382	1	6
408.553	1	-7
408.723	1	4
408.894	1	8
409.065	1	13
409.235	1	0
409.406	1	0
409.577	1	6
409.747	1	18
409.918	1	9
410.089	1	-8
410.259	1	-2
410.430	1	3
410.601	1	6
410.771	1	7
410.942	1	-4
411.113	1	7
411.283	1	7
411.454	1	9
411.625	1	1
411.795	1	-5
411.966	1	2
412.137	1	-1
412.307	1	5
412.478	1	9
412.649	1	7
412.819	1	-2
412.990	1	11
413.161	1	3
413.331	1	12
413.502	1	-8
413.672	1	7
413.843	1	-6
414.014	1	18
414.184	1	7
414.355	1	11
414.526	1	12
414.696	1	6
414.867	1	7
415.038	1	-1
415.208	1	-1
415.379	1	2
415.550	1	8
415.720	1	5
415.891	1	23
416.062	1	10
416.232	1	5
416.403	1	10
416.573	1	7
416.744	1	5
416.915	1	4
417.085	1	-3
417.256	1	10
417.427	1	9
417.597	1	6
417.768	1	6
417.939	1	20
418.109	1	-4
418.280	1	0
418.450	1	22
418.621	1	9
418.792	1	8
418.962	1	10
419.133	1	12
419.304	1	8
419.474	1	-1
419.645	1	-1
419.815	1	3
419.986	1	3
420.157	1	17
420.327	1	2
420.498	1	13
420.669	1	10
420.839	1	9
421.010	1	14
421.180	1	5
421.351	1	20
421.522	1	13
421.692	1	14
421.863	1	2
422.033	1	10
422.204	1	9
422.375	1	5
422.545	1	10
422.716	1	6
422.886	1	20
423.057	1	1
423.228	1	13
423.398	1	9
423.569	1	8
423.740	1	-6
423.910	1	10
424.081	1	3
424.251	1	7
424.422	1	-1
424.593	1	8
424.763	1	0
424.934	1	9
425.104	1	0
425.275	1	13
425.445	1	14
425.616	1	9
425.787	1	14
425.957	1	0
426.128	1	19
426.298	1	4
426.469	1	-1
426.640	1	8
426.810	1	10
426.981	1	5
427.151	1	3
427.322	1	-6
427.493	1	5
427.663	1	1
427.834	1	3
428.004	1	2
428.175	1	3
428.345	1	22
428.516	1	14
428.687	1	5
428.857	1	-5
429.028	1	12
429.198	1	8
429.369	1	-9
429.540	1	6
429.710	1	19
429.881	1	12
430.051	1	8
430.222	1	7
430.392	1	-2
430.563	1	7
430.734	1	11
430.904	1	13
431.075	1	7
431.245	1	14
431.416	1	3
431.586	1	7
431.757	1	8
431.927	1	-3
432.098	1	20
432.269	1	17
432.439	1	12
432.610	1	7
432.780	1	9
432.951	1	3
433.121	1	13
433.292	1	12
433.462	1	12
433.633	1	11
433.804	1	-3
433.974	1	8
434.145	1	9
434.315	1	9
434.486	1	-8
434.656	1	4
434.827	1	9
434.997	1	16
435.168	1	1
435.339	1	10
435.509	1	1
435.680	1	2
435.850	1	2
436.021	1	10
436.191	1	20
436.362	1	15
436.532	1	14
436.703	1	9
436.873	1	13
437.044	1	2
437.214	1	20
437.385	1	16
437.556	1	11
437.726	1	0
437.897	1	9
438.067	1	2
438.238	1	5
438.408	1	11
438.579	1	4
438.749	1	0
438.920	1	13
439.090	1	1
439.261	1	3
439.431	1	8
439.602	1	9
439.772	1	5
439.943	1	20
440.113	1	4
440.284	1	16
440.455	1	18
440.625	1	10
440.796	1	-2
440.966	1	-3
441.137	1	12
441.307	1	11
441.478	1	10
441.648	1	10
441.819	1	-1
441.989	1	5
442.160	1	3
442.330	1	15
442.501	1	7
442.671	1	2
442.842	1	11
443.012	1	7
443.183	1	6
443.353	1	7
443.524	1	4
443.694	1	3
443.865	1	5
444.035	1	12
444.206	1	0
444.376	1	18
444.547	1	7
444.717	1	12
444.888	1	4
445.058	1	7
445.229	1	5
445.399	1	-1
445.570	1	1
445.740	1	8
445.911	1	15
446.081	1	16
446.252	1	0
446.422	1	9
446.593	1	16
446.763	1	10
446.934	1	16
447.104	1	8
447.275	1	17
447.445	1	6
447.616	1	1
447.786	1	-4
447.957	1	8
448.127	1	11
448.298	1	9
448.468	1	6
448.639	1	-1
448.809	1	8
448.979	1	9
449.150	1	5
449.320	1	13
449.491	1	15
449.661	1	17
449.832	1	10
450.002	1	6
450.173	1	1
450.343	1	6
450.514	1	-5
450.684	1	-1
450.855	1	-2
451.025	1	8
451.196	1	11
451.366	1	2
451.537	1	-3
451.707	1	12
451.878	1	4
452.048	1	4
452.218	1	5
452.389	1	6
452.559	1	5
452.730	1	5
452.900	1	7
453.071	1	6
453.241	1	11
453.412	1	-2
453.582	1	-9
453.753	1	0
453.923	1	12
454.093	1	17
454.264	1	0
454.434	1	5
454.605	1	10
454.775	1	7
454.946	1	2
455.116	1	3
455.287	1	2
455.457	1	2
455.628	1	9
455.798	1	7
455.968	1	8
456.139	1	4
456.309	1	19
456.480	1	3
456.650	1	13
456.821	1	16
456.991	1	8
457.161	1	6
457.332	1	11
457.502	1	12
457.673	1	13
457.843	1	5
458.014	1	3
458.184	1	2
458.355	1	5
458.525	1	13
458.695	1	10
458.866	1	28
459.036	1	7
459.207	1	3
459.377	1	7
459.548	1	-5
459.718	1	5
459.888	1	11
460.059	1	12
460.229	1	10
460.400	1	-3
460.570	1	19
460.740	1	6
460.911	1	10
461.081	1	11
461.252	1	1
461.422	1	8
461.593	1	10
461.763	1	14
461.933	1	10
462.104	1	10
462.274	1	-1
462.445	1	1
462.615	1	6
462.785	1	-3
462.956	1	9
463.126	1	9
463.297	1	5
463.467	1	10
463.638	1	1
463.808	1	13
463.978	1	7
464.149	1	-7
464.319	1	14
464.490	1	11
464.660	1	16
464.830	1	-3
465.001	1	8
465.171	1	-5
465.342	1	-3
465.512	1	2
465.682	1	11
465.853	1	-3
466.023	1	2
466.194	1	10
466.364	1	10
466.534	1	7
466.705	1	2
466.875	1	9
467.045	1	-1
467.216	1	7
467.386	1	12
467.557	1	7
467.727	1	17
467.897	1	-2
468.068	1	-1
468.238	1	-1
468.409	1	-2
468.579	1	12
468.749	1	7
468.920	1	4
469.090	1	10
469.260	1	10
469.431	1	11
469.601	1	-3
469.772	1	-9
469.942	1	9
470.112	1	4
470.283	1	9
470.453	1	15
470.623	1	4
470.794	1	14
470.964	1	12
471.135	1	11
471.305	1	5
471.475	1	-2
471.646	1	13
471.816	1	4
471.986	1	15
472.157	1	12
472.327	1	15
472.497	1	9
472.668	1	0
472.838	1	4
473.009	1	13
473.179	1	7
473.349	1	10
473.520	1	0
473.690	1	10
473.860	1	18
474.031	1	-2
474.201	1	12
474.371	1	6
474.542	1	17
474.712	1	8
474.882	1	-3
475.053	1	4
475.223	1	-10
475.394	1	-4
475.564	1	16
475.734	1	13
475.905	1	11
476.075	1	2
476.245	1	13
476.416	1	-7
476.586	1	2
476.756	1	7
476.927	1	-3
477.097	1	2
477.267	1	6
477.438	1	8
477.608	1	3
477.778	1	6
477.949	1	0
478.119	1	13
478.289	1	-4
478.460	1	-1
478.630	1	14
478.800	1	14
478.971	1	6
479.141	1	6
479.311	1	15
479.482	1	12
479.652	1	9
479.822	1	4
479.993	1	4
480.163	1	15
480.333	1	2
480.504	1	-3
480.674	1	6
480.844	1	4
481.015	1	-1
481.185	1	-2
481.355	1	10
481.525	1	3
481.696	1	4
481.866	1	8
482.036	1	4
482.207	1	4
482.377	1	6
482.547	1	-4
482.718	1	1
482.888	1	2
483.058	1	-2
483.229	1	-1
483.399	1	3
483.569	1	6
483.740	1	6
483.910	1	0
484.080	1	1
484.250	1	-5
484.421	1	12
484.591	1	1
484.761	1	4
484.932	1	-1
485.102	1	17
485.272	1	0
485.443	1	8
485.613	1	7
485.783	1	9
485.953	1	18
486.124	1	-2
486.294	1	-3
486.464	1	-2
486.635	1	12
486.805	1	-3
486.975	1	6
487.146	1	1
487.316	1	0
487.486	1	2
487.656	1	-3
487.827	1	12
487.997	1	2
488.167	1	0
488.338	1	-3
488.508	1	6
488.678	1	4
488.848	1	9
489.019	1	3
489.189	1	-4
489.359	1	11
489.529	1	2
489.700	1	17
489.870	1	-6
490.040	1	-1
490.211	1	5
490.381	1	9
490.551	1	0
490.721	1	-2
490.892	1	10
491.062	1	3
491.232	1	-5
491.402	1	-2
491.573	1	3
491.743	1	8
491.913	1	-6
492.084	1	12
492.254	1	6
492.424	1	9
492.594	1	9
492.765	1	6
492.935	1	4
493.105	1	12
493.275	1	6
493.446	1	4
493.616	1	-2
493.786	1	-1
493.956	1	0
494.127	1	12
494.297	1	-1
494.467	1	8
494.637	1	7
494.808	1	10
494.978	1	-6
495.148	1	0
495.318	1	9
495.489	1	-14
495.659	1	-1
495.829	1	-2
495.999	1	9
496.170	1	-2
496.340	1	5
496.510	1	10
496.680	1	2
496.851	1	1
497.021	1	-8
497.191	1	3
497.361	1	2
497.532	1	3
497.702	1	14
497.872	1	11
498.042	1	16
498.213	1	8
498.383	1	12
498.553	1	-8
498.723	1	11
498.894	1	5
499.064	1	2
499.234	1	8
499.404	1	1
499.574	1	5
499.745	1	11
499.915	1	4
500.085	1	3
500.255	1	1
500.426	1	11
500.596	1	-1
500.766	1	2
500.936	1	4
501.106	1	2
501.277	1	10
501.447	1	6
501.617	1	7
501.787	1	6
501.958	1	11
502.128	1	-1
502.298	1	4
502.468	1	4
502.638	1	6
502.809	1	-1
502.979	1	9
503.149	1	-9
503.319	1	16
503.489	1	-2
503.660	1	-6
503.830	1	1
504.000	1	11
504.170	1	0
504.340	1	-1
504.511	1	1
504.681	1	11
504.851	1	0
505.021	1	12
505.192	1	6
505.362	1	1
505.532	1	5
505.702	1	-10
505.872	1	2
506.043	1	7
506.213	1	6
506.383	1	-4
506.553	1	5
506.723	1	7
506.893	1	-12
507.064	1	-4
507.234	1	6
507.404	1	-4
507.574	1	-1
507.744	1	4
507.915	1	9
508.085	1	6
508.255	1	6
508.425	1	0
508.595	1	-1
508.766	1	5
508.936	1	6
509.106	1	8
509.276	1	-4
509.446	1	9
509.616	1	6
509.787	1	7
509.957	1	2
510.127	1	7
510.297	1	3
510.467	1	-10
510.638	1	7
510.808	1	-6
510.978	1	10
511.148	1	22
511.318	1	-8
511.488	1	10
511.659	1	-5
511.829	1	1
511.999	1	6
512.169	1	-1
512.339	1	10
512.509	1	1
512.680	1	3
512.850	1	-3
513.020	1	-6
513.190	1	0
513.360	1	1
513.530	1	-3
513.700	1	7
513.871	1	11
514.041	1	-1
514.211	1	7
514.381	1	16
514.551	1	-7
514.721	1	3
514.892	1	-3
515.062	1	3
515.232	1	8
515.402	1	7
515.572	1	-1
515.742	1	8
515.912	1	-10
516.083	1	0
516.253	1	4
516.423	1	3
516.593	1	2
516.763	1	-6
516.933	1	-5
517.104	1	2
517.274	1	-16
517.444	1	-3
517.614	1	-3
517.784	1	0
517.954	1	14
518.124	1	4
518.294	1	0
518.465	1	7
518.635	1	-1
518.805	1	11
518.975	1	1
519.145	1	10
519.315	1	-10
519.485	1	-6
519.656	1	7
519.826	1	9
519.996	1	2
520.166	1	-1
520.336	1	4
520.506	1	-11
520.676	1	7
520.846	1	-7
521.017	1	-1
521.187	1	6
521.357	1	-5
521.527	1	3
521.697	1	5
521.867	1	4
522.037	1	2
522.207	1	3
522.377	1	4
522.548	1	-6
522.718	1	-4
522.888	1	9
523.058	1	3
523.228	1	-1
523.398	1	7
523.568	1	0
523.738	1	-6
523.909	1	1
524.079	1	7
524.249	1	1
524.419	1	-5
524.589	1	-5
524.759	1	8
524.929	1	-4
525.099	1	-3
525.269	1	4
525.439	1	-2
525.610	1	-5
525.780	1	2
525.950	1	9
526.120	1	-6
526.290	1	-3
526.460	1	-3
526.630	1	16
526.800	1	-1
526.970	1	10
527.140	1	3
527.311	1	-3
527.481	1	6
527.651	1	2
527.821	1	4
527.991	1	-3
528.161	1	0
528.331	1	19
528.501	1	-1
528.671	1	1
528.841	1	-6
529.011	1	1
529.181	1	5
529.352	1	0
529.522	1	-5
529.692	1	8
529.862	1	7
530.032	1	1
530.202	1	4
530.372	1	8
530.542	1	-10
530.712	1	-10
530.882	1	-6
531.052	1	10
531.222	1	-16
531.392	1	5
531.563	1	2
531.733	1	1
531.903	1	9
532.073	1	1
532.243	1	5
532.413	1	9
532.583	1	1
532.753	1	1
532.923	1	7
533.093	1	7
533.263	1	-5
533.433	1	20
533.603	1	11
533.773	1	-1
533.943	1	-1
534.113	1	3
534.284	1	4
534.454	1	0
534.624	1	3
534.794	1	-3
534.964	1	3
535.134	1	5
535.304	1	8
535.474	1	-4
535.644	1	-9
535.814	1	10
535.984	1	11
536.154	1	-3
536.324	1	9
536.494	1	6
536.664	1	-6
536.834	1	3
537.004	1	5
537.174	1	-2
537.344	1	2
537.514	1	1
537.685	1	1
537.855	1	7
538.025	1	4
538.195	1	-3
538.365	1	-14
538.535	1	-4
538.705	1	8
538.875	1	11
539.045	1	1
539.215	1	-7
539.385	1	3
539.555	1	3
539.725	1	3
539.895	1	7
540.065	1	-2
540.235	1	2
540.405	1	-11
540.575	1	2
540.745	1	0
540.915	1	-3
541.085	1	-1
541.255	1	-10
541.425	1	0
541.595	1	2
541.765	1	20
541.935	1	-10
542.105	1	2
542.275	1	-7
542.445	1	1
542.615	1	11
542.785	1	-10
542.955	1	-1
543.125	1	-12
543.295	1	-6
543.465	1	9
543.635	1	0
543.805	1	10
543.975	1	-5
544.145	1	0
544.315	1	3
544.485	1	12
544.655	1	18
544.825	1	1
544.995	1	7
545.165	1	-4
545.335	1	8
545.505	1	9
545.675	1	-10
545.845	1	3
546.015	1	11
546.185	1	-5
546.355	1	6
546.525	1	2
546.695	1	7
546.865	1	5
547.035	1	4
547.205	1	-5
547.375	1	9
547.545	1	11
547.715	1	8
547.885	1	15
548.055	1	-4
548.225	1	3
548.395	1	-19
548.565	1	2
548.735	1	6
548.905	1	-11
549.075	1	6
549.245	1	-2
549.415	1	-2
549.585	1	7
549.755	1	0
549.925	1	5
550.095	1	-5
550.265	1	-9
550.435	1	-11
550.605	1	-5
550.775	1	-7
550.945	1	7
551.115	1	-5
551.285	1	-1
551.455	1	1
551.625	1	-7
551.795	1	3
551.965	1	10
552.135	1	1
552.305	1	-11
552.475	1	14
552.645	1	-3
552.815	1	-5
552.985	1	5
553.155	1	-4
553.325	1	-4
553.495	1	9
553.665	1	7
553.835	1	1
554.004	1	-14
554.174	1	6
554.344	1	4
554.514	1	-5
554.684	1	-6
554.854	1	-7
555.024	1	-3
555.194	1	-1
555.364	1	3
555.534	1	-2
555.704	1	10
555.874	1	-11
556.044	1	2
556.214	1	3
556.384	1	-4
556.554	1	5
556.724	1	0
556.894	1	-3
557.064	1	2
557.234	1	-5
557.404	1	-4
557.573	1	-4
557.743	1	6
557.913	1	-4
558.083	1	8
558.253	1	-5
558.423	1	-3
558.593	1	12
558.763	1	15
558.933	1	1
559.103	1	4
559.273	1	-2
559.443	1	4
559.613	1	0
559.783	1	3
559.953	1	5
560.122	1	-4
560.292	1	-3
560.462	1	2
560.632	1	8
560.802	1	0
560.972	1	2
561.142	1	1
561.312	1	10
561.482	1	10
561.652	1	-5
561.822	1	-5
561.992	1	-15
562.162	1	9
562.331	1	13
562.501	1	-3
562.671	1	12
562.841	1	0
563.011	1	-4
563.181	1	7
563.351	1	4
563.521	1	8
563.691	1	10
563.861	1	-7
564.031	1	-6
564.201	1	3
564.370	1	6
564.540	1	1
564.710	1	-3
564.880	1	8
565.050	1	-5
565.220	1	-5
565.390	1	0
565.560	1	1
565.730	1	-3
565.900	1	-6
566.069	1	0
566.239	1	-1
566.409	1	13
566.579	1	4
566.749	1	4
566.919	1	-3
567.089	1	5
567.259	1	-1
567.429	1	7
567.599	1	-4
567.768	1	0
567.938	1	-7
568.108	1	3
568.278	1	-2
568.448	1	3
568.618	1	-7
568.788	1	-6
568.958	1	-15
569.128	1	-11
569.297	1	1
569.467	1	8
569.637	1	2
569.807	1	-5
569.977	1	3
570.147	1	-6
570.317	1	-8
570.487	1	-3
570.656	1	-6
570.826	1	-4
570.996	1	-1
571.166	1	-1
571.336	1	2
571.506	1	-5
571.676	1	-7
571.846	1	-6
572.015	1	6
572.185	1	-2
572.355	1	7
572.525	1	-3
572.695	1	1
572.865	1	12
573.035	1	-11
573.205	1	-4
573.374	1	3
573.544	1	-6
573.714	1	5
573.884	1	3
574.054	1	-3
574.224	1	1
574.394	1	-6
574.563	1	8
574.733	1	6
574.903	1	-4
575.073	1	-1
575.243	1	0
575.413	1	0
575.583	1	4
575.752	1	-4
575.922	1	5
576.092	1	-2
576.262	1	6
576.432	1	9
576.602	1	1
576.772	1	-9
576.941	1	6
577.111	1	8
577.281	1	4
577.451	1	1
577.621	1	6
577.791	1	9
577.960	1	-7
578.130	1	5
578.300	1	8
578.470	1	-2
578.640	1	4
578.810	1	-7
578.979	1	4
579.149	1	0
579.319	1	3
579.489	1	-4
579.659	1	-6
579.829	1	13
579.998	1	-6
580.168	1	-8
580.338	1	14
580.508	1	-4
580.678	1	5
580.848	1	3
581.017	1	-6
581.187	1	-4
581.357	1	-4
581.527	1	-6
581.697	1	-7
581.867	1	4
582.036	1	4
582.206	1	-3
582.376	1	4
582.546	1	9
582.716	1	4
582.885	1	2
583.055	1	-5
583.225	1	-2
583.395	1	9
583.565	1	0
583.735	1	-4
583.904	1	-3
584.074	1	-2
584.244	1	3
584.414	1	-8
584.584	1	7
584.753	1	6
584.923	1	-1
585.093	1	-11
585.263	1	-4
585.433	1	20
585.602	1	0
585.772	1	8
585.942	1	4
586.112	1	3
586.282	1	-1
586.451	1	-3
586.621	1	-5
586.791	1	-4
586.961	1	7
587.131	1	11
587.300	1	3
587.470	1	3
587.640	1	-7
587.810	1	-9
587.980	1	-8
588.149	1	7
588.319	1	4
588.489	1	-6
588.659	1	7
588.829	1	5
588.998	1	4
589.168	1	0
589.338	1	-4
589.508	1	4
589.677	1	1
589.847	1	-1
590.017	1	1
590.187	1	-5
590.357	1	3
590.526	1	10
590.696	1	0
590.866	1	-2
591.036	1	-8
591.205	1	2
591.375	1	-4
591.545	1	-10
591.715	1	-4
591.885	1	-2
592.054	1	0
592.224	1	-9
592.394	1	2
592.564	1	0
592.733	1	5
592.903	1	-2
593.073	1	-7
593.243	1	4
593.412	1	-1
593.582	1	-1
593.752	1	-1
593.922	1	12
594.091	1	-6
594.261	1	-3
594.431	1	-3
594.601	1	-1
594.771	1	5
594.940	1	-5
595.110	1	1
595.280	1	12
595.450	1	-3
595.619	1	-2
595.789	1	9
595.959	1	-1
596.129	1	-10
596.298	1	6
596.468	1	2
596.638	1	-7
596.808	1	-4
596.977	1	0
597.147	1	3
597.317	1	0
597.487	1	1
597.656	1	5
597.826	1	-6
597.996	1	6
598.166	1	5
598.335	1	5
598.505	1	-5
598.675	1	-7
598.844	1	-3
599.014	1	8
599.184	1	-5
599.354	1	-5
599.523	1	0
599.693	1	-4
599.863	1	5
600.033	1	3
600.202	1	4
600.372	1	5
600.542	1	2
600.712	1	11
600.881	1	9
601.051	1	0
601.221	1	0
601.390	1	12
601.560	1	-3
601.730	1	-3
601.900	1	11
602.069	1	-8
602.239	1	9
602.409	1	11
602.578	1	5
602.748	1	-10
602.918	1	6
603.088	1	4
603.257	1	-6
603.427	1	8
603.597	1	2
603.767	1	-3
603.936	1	7
604.106	1	-4
604.276	1	4
604.445	1	-2
604.615	1	-2
604.785	1	6
604.954	1	2
605.124	1	-4
605.294	1	5
605.464	1	-10
605.633	1	0
605.803	1	3
605.973	1	3
606.142	1	4
606.312	1	3
606.482	1	-2
606.652	1	13
606.821	1	-3
606.991	1	2
607.161	1	9
607.330	1	3
607.500	1	4
607.670	1	-2
607.839	1	0
608.009	1	2
608.179	1	-11
608.348	1	1
608.518	1	-1
608.688	1	7
608.858	1	0
609.027	1	-7
609.197	1	2
609.367	1	-4
609.536	1	9
609.706	1	-1
609.876	1	0
610.045	1	6
610.215	1	9
610.385	1	-2
610.554	1	3
610.724	1	6
610.894	1	5
611.063	1	-1
611.233	1	-8
611.403	1	-9
611.572	1	6
611.742	1	-2
611.912	1	-2
612.081	1	-1
612.251	1	6
612.421	1	9
612.590	1	4
612.760	1	9
612.930	1	-8
613.099	1	0
613.269	1	-2
613.439	1	-4
613.608	1	7
613.778	1	-6
613.948	1	7
614.117	1	3
614.287	1	-1
614.457	1	0
614.626	1	10
614.796	1	1
614.966	1	5
615.135	1	8
615.305	1	9
615.475	1	3
615.644	1	7
615.814	1	-4
615.984	1	5
616.153	1	6
616.323	1	-2
616.493	1	9
616.662	1	-13
616.832	1	-3
617.002	1	-3
617.171	1	0
617.341	1	0
617.511	1	-3
617.680	1	8
617.850	1	-4
618.019	1	11
618.189	1	1
618.359	1	0
618.528	1	3
618.698	1	3
618.868	1	-9
619.037	1	3
619.207	1	6
619.377	1	4
619.546	1	-14
619.716	1	6
619.885	1	0
620.055	1	13
620.225	1	10
620.394	1	-5
620.564	1	-5
620.734	1	2
620.903	1	-3
621.073	1	2
621.242	1	3
621.412	1	12
621.582	1	2
621.751	1	0
621.921	1	9
622.091	1	-8
622.260	1	-3
622.430	1	7
622.599	1	11
622.769	1	-10
622.939	1	2
623.108	1	-2
623.278	1	5
623.448	1	3
623.617	1	-6
623.787	1	10
623.956	1	14
624.126	1	-9
624.296	1	12
624.465	1	3
624.635	1	4
624.804	1	-8
624.974	1	8
625.144	1	10
625.313	1	1
625.483	1	-2
625.652	1	10
625.822	1	7
625.992	1	3
626.161	1	1
626.331	1	-7
626.501	1	-5
626.670	1	7
626.840	1	2
627.009	1	-4
627.179	1	-7
627.348	1	10
627.518	1	3
627.688	1	10
627.857	1	3
628.027	1	-2
628.196	1	-8
628.366	1	0
628.536	1	11
628.705	1	2
628.875	1	5
629.044	1	1
629.214	1	1
629.384	1	-6
629.553	1	-3
629.723	1	-8
629.892	1	3
630.062	1	-8
630.232	1	7
630.401	1	-3
630.571	1	2
630.740	1	-6
630.910	1	-1
631.079	1	-4
631.249	1	16
631.419	1	11
631.588	1	0
631.758	1	-1
631.927	1	-7
632.097	1	1
632.266	1	-5
632.436	1	7
632.606	1	-6
632.775	1	6
632.945	1	-12
633.114	1	2
633.284	1	2
633.453	1	-1
633.623	1	6
633.793	1	12
633.962	1	-2
634.132	1	1
634.301	1	3
634.471	1	-7
634.640	1	4
634.810	1	7
634.979	1	17
635.149	1	3
635.319	1	3
635.488	1	-1
635.658	1	11
635.827	1	-5
635.997	1	10
636.166	1	-4
636.336	1	5
636.505	1	3
636.675	1	4
636.845	1	-1
637.014	1	3
637.184	1	5
637.353	1	1
637.523	1	5
637.692	1	0
637.862	1	-7
638.031	1	-2
638.201	1	3
638.370	1	17
638.540	1	-4
638.710	1	4
638.879	1	16
639.049	1	-10
639.218	1	15
639.388	1	8
639.557	1	-1
639.727	1	6
639.896	1	3
640.066	1	16
640.235	1	-1
640.405	1	6
640.574	1	0
640.744	1	-10
640.914	1	-4
641.083	1	5
641.253	1	-3
641.422	1	12
641.592	1	-2
641.761	1	-2
641.931	1	0
642.100	1	4
642.270	1	-4
642.439	1	2
642.609	1	16
642.778	1	1
642.948	1	9
643.117	1	6
643.287	1	8
643.456	1	-2
643.626	1	-2
643.795	1	5
643.965	1	-1
644.134	1	0
644.304	1	17
644.473	1	6
644.643	1	-7
644.812	1	10
644.982	1	1
645.151	1	2
645.321	1	7
645.490	1	16
645.660	1	-1
645.829	1	-4
645.999	1	3
646.168	1	5
646.338	1	7
646.507	1	-3
646.677	1	1
646.846	1	4
647.016	1	7
647.185	1	7
647.355	1	13
647.524	1	2
647.694	1	-2
647.863	1	5
648.033	1	4
648.202	1	0
648.372	1	-5
648.541	1	-3
648.711	1	0
648.880	1	-2
649.050	1	1
649.219	1	6
649.389	1	-5
649.558	1	7
649.728	1	8
649.897	1	-8
650.067	1	-4
650.236	1	5
650.406	1	6
650.575	1	4
650.745	1	8
650.914	1	-2
651.084	1	8
651.253	1	-7
651.423	1	2
651.592	1	-3
651.762	1	-2
651.931	1	8
652.101	1	4
652.270	1	-8
652.440	1	-5
652.609	1	3
652.778	1	-5
652.948	1	-6
653.117	1	0
653.287	1	-1
653.456	1	9
653.626	1	-9
653.795	1	2
653.965	1	-9
654.134	1	-4
654.304	1	3
654.473	1	-7
654.643	1	4
654.812	1	13
654.982	1	-4
655.151	1	7
655.320	1	8
655.490	1	-4
655.659	1	1
655.829	1	-4
655.998	1	-8
656.168	1	-3
656.337	1	4
656.507	1	-5
656.676	1	-3
656.846	1	-2
657.015	1	-2
657.184	1	4
657.354	1	-1
657.523	1	-7
657.693	1	0
657.862	1	-1
658.032	1	1
658.201	1	3
658.371	1	-10
658.540	1	-6
658.709	1	-8
658.879	1	3
659.048	1	-2
659.218	1	-5
659.387	1	1
659.557	1	5
659.726	1	-1
659.895	1	-4
660.065	1	15
660.234	1	-3
660.404	1	0
660.573	1	5
660.743	1	0
660.912	1	2
661.081	1	-10
661.251	1	13
661.420	1	6
661.590	1	5
661.759	1	-4
661.929	1	7
662.098	1	3
662.267	1	8
662.437	1	11
662.606	1	3
662.776	1	-6
662.945	1	8
663.115	1	3
663.284	1	6
663.453	1	7
663.623	1	12
663.792	1	2
663.962	1	-17
664.131	1	-4
664.300	1	-3
664.470	1	6
664.639	1	1
664.809	1	-2
664.978	1	-2
665.148	1	-5
665.317	1	8
665.486	1	-3
665.656	1	-1
665.825	1	8
665.995	1	-13
666.164	1	3
666.333	1	5
666.503	1	3
666.672	1	7
666.842	1	-13
667.011	1	-7
667.180	1	8
667.350	1	-1
667.519	1	-7
667.689	1	3
667.858	1	2
668.027	1	1
668.197	1	10
668.366	1	0
668.536	1	-1
668.705	1	2
668.874	1	1
669.044	1	-6
669.213	1	9
669.382	1	5
669.552	1	6
669.721	1	-2
669.891	1	-3
670.060	1	2
670.229	1	-8
670.399	1	-6
670.568	1	-9
670.738	1	-7
670.907	1	2
671.076	1	0
671.246	1	-5
671.415	1	1
671.584	1	-6
671.754	1	-2
671.923	1	3
672.093	1	-9
672.262	1	8
672.431	1	10
672.601	1	6
672.770	1	3
672.939	1	-3
673.109	1	0
673.278	1	-9
673.448	1	3
673.617	1	1
673.786	1	3
