325.333	1	-3
325.504	1	15
325.675	1	7
325.846	1	-7
326.017	1	5
326.188	1	29
326.359	1	14
326.531	1	11
326.702	1	16
326.873	1	1
327.044	1	9
327.215	1	3
327.386	1	9
327.557	1	12
327.728	1	14
327.899	1	9
328.070	1	15
328.241	1	13
328.412	1	1
328.583	1	7
328.754	1	-2
328.926	1	10
329.097	1	6
329.268	1	1
329.439	1	10
329.610	1	3
329.781	1	4
329.952	1	0
330.123	1	4
330.294	1	8
330.465	1	8
330.636	1	21
330.807	1	2
330.978	1	2
331.149	1	7
331.320	1	12
331.492	1	3
331.663	1	-1
331.834	1	1
332.005	1	8
332.176	1	14
332.347	1	10
332.518	1	20
332.689	1	12
332.860	1	13
333.031	1	22
333.202	1	12
333.373	1	9
333.544	1	3
333.715	1	5
333.886	1	10
334.057	1	3
334.228	1	-1
334.399	1	13
334.570	1	5
334.741	1	15
334.912	1	16
335.084	1	1
335.255	1	16
335.426	1	8
335.597	1	11
335.768	1	6
335.939	1	-1
336.110	1	17
336.281	1	2
336.452	1	8
336.623	1	10
336.794	1	5
336.965	1	2
337.136	1	11
337.307	1	15
337.478	1	11
337.649	1	-5
337.820	1	1
337.991	1	19
338.162	1	11
338.333	1	19
338.504	1	16
338.675	1	19
338.846	1	7
339.017	1	19
339.188	1	15
339.359	1	11
339.530	1	11
339.701	1	8
339.872	1	10
340.043	1	6
340.214	1	8
340.385	1	12
340.556	1	-3
340.727	1	13
340.898	1	15
341.069	1	3
341.240	1	1
341.411	1	10
341.582	1	17
341.753	1	2
341.924	1	12
342.095	1	19
342.266	1	-1
342.437	1	3
342.608	1	16
342.779	1	18
342.950	1	5
343.121	1	8
343.292	1	21
343.463	1	16
343.634	1	13
343.805	1	14
343.976	1	2
344.147	1	4
344.318	1	1
344.489	1	22
344.660	1	9
344.831	1	6
345.002	1	22
345.173	1	21
345.344	1	3
345.515	1	7
345.686	1	11
345.857	1	6
346.028	1	-7
346.199	1	8
346.370	1	12
346.541	1	16
346.712	1	8
346.883	1	23
347.054	1	7
347.225	1	4
347.396	1	2
347.567	1	10
347.738	1	12
347.909	1	13
348.080	1	18
348.251	1	10
348.422	1	7
348.593	1	15
348.764	1	3
348.935	1	9
349.106	1	14
349.277	1	14
349.448	1	9
349.619	1	19
349.790	1	15
349.961	1	19
350.132	1	15
350.303	1	11
350.474	1	6
350.645	1	21
350.816	1	7
350.987	1	13
351.157	1	22
351.328	1	4
351.499	1	17
351.670	1	12
351.841	1	15
352.012	1	20
352.183	1	8
352.354	1	8
352.525	1	16
352.696	1	16
352.867	1	15
353.038	1	11
353.209	1	7
353.380	1	10
353.551	1	-1
353.722	1	23
353.893	1	12
354.064	1	14
354.235	1	18
354.406	1	14
354.576	1	12
354.747	1	19
354.918	1	26
355.089	1	25
355.260	1	11
355.431	1	12
355.602	1	14
355.773	1	21
355.944	1	8
356.115	1	10
356.286	1	19
356.457	1	23
356.628	1	3
356.799	1	8
356.970	1	6
357.141	1	20
357.311	1	14
357.482	1	17
357.653	1	20
357.824	1	18
357.995	1	15
358.166	1	20
358.337	1	8
358.508	1	5
358.679	1	13
358.850	1	16
359.021	1	1
359.192	1	17
359.363	1	10
359.533	1	4
359.704	1	19
359.875	1	11
360.046	1	15
360.217	1	3
360.388	1	-1
360.559	1	11
360.730	1	17
360.901	1	6
361.072	1	14
361.243	1	14
361.414	1	21
361.584	1	25
361.755	1	17
361.926	1	6
362.097	1	8
362.268	1	24
362.439	1	17
362.610	1	10
362.781	1	22
362.952	1	15
363.123	1	11
363.293	1	10
363.464	1	17
363.635	1	27
363.806	1	20
363.977	1	14
364.148	1	14
364.319	1	5
364.490	1	28
364.661	1	14
364.832	1	19
365.002	1	7
365.173	1	12
365.344	1	24
365.515	1	11
365.686	1	7
365.857	1	13
366.028	1	19
366.199	1	20
366.370	1	15
366.540	1	5
366.711	1	18
366.882	1	17
367.053	1	20
367.224	1	13
367.395	1	18
367.566	1	21
367.737	1	21
367.908	1	7
368.078	1	15
368.249	1	22
368.420	1	10
368.591	1	11
368.762	1	5
368.933	1	13
369.104	1	10
369.274	1	31
369.445	1	21
369.616	1	11
369.787	1	15
369.958	1	20
370.129	1	10
370.300	1	13
370.471	1	13
370.641	1	4
370.812	1	23
370.983	1	13
371.154	1	19
371.325	1	16
371.496	1	19
371.667	1	14
371.837	1	13
372.008	1	24
372.179	1	15
372.350	1	24
372.521	1	24
372.692	1	19
372.863	1	13
373.033	1	17
373.204	1	23
373.375	1	16
373.546	1	24
373.717	1	12
373.888	1	16
374.059	1	21
374.229	1	23
374.400	1	23
374.571	1	16
374.742	1	16
374.913	1	19
375.084	1	19
375.254	1	20
375.425	1	17
375.596	1	17
375.767	1	19
375.938	1	9
376.109	1	13
376.279	1	21
376.450	1	20
376.621	1	23
376.792	1	29
376.963	1	15
377.134	1	13
377.304	1	13
377.475	1	16
377.646	1	17
377.817	1	17
377.988	1	21
378.159	1	20
378.329	1	21
378.500	1	18
378.671	1	15
378.842	1	22
379.013	1	18
379.184	1	26
379.354	1	22
379.525	1	12
379.696	1	29
379.867	1	15
380.038	1	19
380.209	1	18
380.379	1	15
380.550	1	3
380.721	1	19
380.892	1	21
381.063	1	20
381.233	1	23
381.404	1	16
381.575	1	15
381.746	1	29
381.917	1	14
382.087	1	19
382.258	1	26
382.429	1	13
382.600	1	20
382.771	1	21
382.941	1	14
383.112	1	20
383.283	1	34
383.454	1	25
383.625	1	21
383.795	1	14
383.966	1	19
384.137	1	21
384.308	1	14
384.479	1	28
384.649	1	23
384.820	1	25
384.991	1	4
385.162	1	34
385.333	1	11
385.503	1	36
385.674	1	26
385.845	1	10
386.016	1	15
386.187	1	23
386.357	1	20
386.528	1	9
386.699	1	21
386.870	1	18
387.041	1	29
387.211	1	16
387.382	1	15
387.553	1	18
387.724	1	19
387.894	1	26
388.065	1	27
388.236	1	26
388.407	1	29
388.578	1	26
388.748	1	26
388.919	1	27
389.090	1	24
389.261	1	27
389.431	1	42
389.602	1	19
389.773	1	21
389.944	1	27
390.114	1	28
390.285	1	32
390.456	1	22
390.627	1	26
390.798	1	31
390.968	1	19
391.139	1	16
391.310	1	30
391.481	1	31
391.651	1	26
391.822	1	34
391.993	1	24
392.164	1	9
392.334	1	17
392.505	1	17
392.676	1	18
392.847	1	30
393.017	1	22
393.188	1	23
393.359	1	31
393.530	1	26
393.700	1	29
393.871	1	30
394.042	1	31
394.213	1	32
394.383	1	31
394.554	1	31
394.725	1	29
394.896	1	28
395.066	1	20
395.237	1	24
395.408	1	22
395.579	1	24
395.749	1	32
395.920	1	16
396.091	1	30
396.262	1	20
396.432	1	20
396.603	1	28
396.774	1	30
396.945	1	19
397.115	1	22
397.286	1	32
397.457	1	29
397.627	1	28
397.798	1	28
397.969	1	34
398.140	1	26
398.310	1	24
398.481	1	39
398.652	1	15
398.823	1	20
398.993	1	43
399.164	1	23
399.335	1	23
399.505	1	36
399.676	1	27
399.847	1	30
400.018	1	24
400.188	1	29
400.359	1	31
400.530	1	26
400.700	1	22
400.871	1	36
401.042	1	28
401.213	1	23
401.383	1	40
401.554	1	30
401.725	1	27
401.895	1	21
402.066	1	29
402.237	1	43
402.408	1	35
402.578	1	27
402.749	1	40
402.920	1	28
403.090	1	20
403.261	1	38
403.432	1	26
403.603	1	14
403.773	1	43
403.944	1	34
404.115	1	18
404.285	1	46
404.456	1	24
404.627	1	22
404.797	1	32
404.968	1	20
405.139	1	28
405.310	1	34
405.480	1	28
405.651	1	28
405.822	1	43
405.992	1	23
406.163	1	25
406.334	1	29
406.504	1	21
406.675	1	23
406.846	1	28
407.016	1	29
407.187	1	23
407.358	1	24
407.528	1	43
407.699	1	30
407.870	1	32
408.041	1	26
408.211	1	28
408.382	1	26
408.553	1	22
408.723	1	36
408.894	1	30
409.065	1	34
409.235	1	24
409.406	1	24
409.577	1	30
409.747	1	35
409.918	1	22
410.089	1	24
410.259	1	29
410.430	1	28
410.601	1	31
410.771	1	39
410.942	1	20
411.113	1	36
411.283	1	35
411.454	1	22
411.625	1	23
411.795	1	28
411.966	1	17
412.137	1	26
412.307	1	34
412.478	1	36
412.649	1	38
412.819	1	30
412.990	1	33
413.161	1	33
413.331	1	47
413.502	1	15
413.672	1	34
413.843	1	37
414.014	1	35
414.184	1	42
414.355	1	32
414.526	1	19
414.696	1	31
414.867	1	35
415.038	1	26
415.208	1	21
415.379	1	40
415.550	1	43
415.720	1	20
415.891	1	43
416.062	1	31
416.232	1	34
416.403	1	32
416.573	1	31
416.744	1	22
416.915	1	42
417.085	1	34
417.256	1	29
417.427	1	46
417.597	1	33
417.768	1	27
417.939	1	34
418.109	1	25
418.280	1	26
418.450	1	47
418.621	1	27
418.792	1	26
418.962	1	30
419.133	1	31
419.304	1	25
419.474	1	27
419.645	1	19
419.815	1	27
419.986	1	26
420.157	1	30
420.327	1	23
420.498	1	26
420.669	1	36
420.839	1	26
421.010	1	34
421.180	1	23
421.351	1	34
421.522	1	41
421.692	1	43
421.863	1	24
422.033	1	49
422.204	1	36
422.375	1	20
422.545	1	41
422.716	1	25
422.886	1	36
423.057	1	27
423.228	1	25
423.398	1	23
423.569	1	41
423.740	1	22
423.910	1	43
424.081	1	41
424.251	1	33
424.422	1	31
424.593	1	32
424.763	1	42
424.934	1	35
425.104	1	33
425.275	1	32
425.445	1	33
425.616	1	37
425.787	1	46
425.957	1	20
426.128	1	41
426.298	1	33
426.469	1	19
426.640	1	43
426.810	1	42
426.981	1	26
427.151	1	39
427.322	1	13
427.493	1	22
427.663	1	27
427.834	1	23
428.004	1	29
428.175	1	36
428.345	1	36
428.516	1	33
428.687	1	43
428.857	1	24
429.028	1	34
429.198	1	34
429.369	1	25
429.540	1	29
429.710	1	46
429.881	1	18
430.051	1	30
430.222	1	35
430.392	1	32
430.563	1	37
430.734	1	41
430.904	1	30
431.075	1	25
431.245	1	37
431.416	1	23
431.586	1	32
431.757	1	26
431.927	1	16
432.098	1	36
432.269	1	36
432.439	1	37
432.610	1	41
432.780	1	34
432.951	1	27
433.121	1	34
433.292	1	40
433.462	1	29
433.633	1	32
433.804	1	36
433.974	1	27
434.145	1	32
434.315	1	34
434.486	1	29
434.656	1	30
434.827	1	29
434.997	1	47
435.168	1	36
435.339	1	36
435.509	1	37
435.680	1	33
435.850	1	33
436.021	1	39
436.191	1	36
436.362	1	41
436.532	1	37
436.703	1	38
436.873	1	36
437.044	1	34
437.214	1	32
437.385	1	36
437.556	1	32
437.726	1	23
437.897	1	35
438.067	1	28
438.238	1	38
438.408	1	37
438.579	1	36
438.749	1	25
438.920	1	28
439.090	1	28
439.261	1	31
439.431	1	35
439.602	1	27
439.772	1	24
439.943	1	44
440.113	1	34
440.284	1	40
440.455	1	38
440.625	1	33
440.796	1	25
440.966	1	33
441.137	1	33
441.307	1	37
441.478	1	33
441.648	1	30
441.819	1	29
441.989	1	31
442.160	1	32
442.330	1	43
442.501	1	25
442.671	1	34
442.842	1	34
443.012	1	35
443.183	1	28
443.353	1	40
443.524	1	30
443.694	1	21
443.865	1	37
444.035	1	35
444.206	1	29
444.376	1	42
444.547	1	27
444.717	1	30
444.888	1	27
445.058	1	30
445.229	1	26
445.399	1	20
445.570	1	23
445.740	1	33
445.911	1	34
446.081	1	29
446.252	1	19
446.422	1	45
446.593	1	35
446.763	1	27
446.934	1	33
447.104	1	34
447.275	1	36
447.445	1	24
447.616	1	25
447.786	1	21
447.957	1	27
448.127	1	42
448.298	1	17
448.468	1	22
448.639	1	27
448.809	1	28
448.979	1	30
449.150	1	37
449.320	1	41
449.491	1	24
449.661	1	36
449.832	1	30
450.002	1	27
450.173	1	34
450.343	1	23
450.514	1	26
450.684	1	36
450.855	1	37
451.025	1	30
451.196	1	36
451.366	1	28
451.537	1	33
451.707	1	39
451.878	1	29
452.048	1	34
452.218	1	35
452.389	1	28
452.559	1	32
452.730	1	29
452.900	1	22
453.071	1	37
453.241	1	35
453.412	1	13
453.582	1	29
453.753	1	31
453.923	1	28
454.093	1	37
454.264	1	12
454.434	1	31
454.605	1	38
454.775	1	29
454.946	1	29
455.116	1	23
455.287	1	24
455.457	1	25
455.628	1	25
455.798	1	23
455.968	1	24
456.139	1	24
456.309	1	33
456.480	1	27
456.650	1	32
456.821	1	24
456.991	1	22
457.161	1	30
457.332	1	30
457.502	1	38
457.673	1	29
457.843	1	27
458.014	1	34
458.184	1	31
458.355	1	29
458.525	1	27
458.695	1	28
458.866	1	42
459.036	1	31
459.207	1	27
459.377	1	33
459.548	1	22
459.718	1	17
459.888	1	43
460.059	1	35
460.229	1	23
460.400	1	16
460.570	1	22
460.740	1	16
460.911	1	20
461.081	1	29
461.252	1	20
461.422	1	27
461.593	1	32
461.763	1	23
461.933	1	21
462.104	1	18
462.274	1	19
462.445	1	22
462.615	1	28
462.785	1	12
462.956	1	23
463.126	1	16
463.297	1	23
463.467	1	24
463.638	1	22
463.808	1	29
463.978	1	22
464.149	1	23
464.319	1	30
464.490	1	25
464.660	1	34
464.830	1	12
465.001	1	28
465.171	1	27
465.342	1	18
465.512	1	26
465.682	1	27
465.853	1	13
466.023	1	21
466.194	1	33
466.364	1	25
466.534	1	10
466.705	1	24
466.875	1	28
467.045	1	22
467.216	1	33
467.386	1	24
467.557	1	26
467.727	1	37
467.897	1	19
468.068	1	15
468.238	1	36
468.409	1	14
468.579	1	22
468.749	1	23
468.920	1	26
469.090	1	19
469.260	1	23
469.431	1	22
469.601	1	17
469.772	1	17
469.942	1	27
470.112	1	21
470.283	1	25
470.453	1	35
470.623	1	14
470.794	1	24
470.964	1	10
471.135	1	23
471.305	1	22
471.475	1	24
471.646	1	25
471.816	1	20
471.986	1	33
472.157	1	25
472.327	1	31
472.497	1	34
472.668	1	18
472.838	1	23
473.009	1	22
473.179	1	26
473.349	1	24
473.520	1	22
473.690	1	25
473.860	1	33
474.031	1	27
474.201	1	18
474.371	1	32
474.542	1	27
474.712	1	13
474.882	1	22
475.053	1	31
475.223	1	12
475.394	1	18
475.564	1	25
475.734	1	20
475.905	1	19
476.075	1	20
476.245	1	22
476.416	1	7
476.586	1	8
476.756	1	22
476.927	1	13
477.097	1	19
477.267	1	25
477.438	1	27
477.608	1	16
477.778	1	24
477.949	1	18
478.119	1	25
478.289	1	7
478.460	1	15
478.630	1	27
478.800	1	26
478.971	1	31
479.141	1	24
479.311	1	29
479.482	1	23
479.652	1	26
479.822	1	23
479.993	1	19
480.163	1	13
480.333	1	21
480.504	1	22
480.674	1	27
480.844	1	20
481.015	1	15
481.185	1	13
481.355	1	22
481.525	1	16
481.696	1	22
481.866	1	10
482.036	1	23
482.207	1	21
482.377	1	26
482.547	1	10
482.718	1	13
482.888	1	26
483.058	1	14
483.229	1	15
483.399	1	19
483.569	1	23
483.740	1	18
483.910	1	5
484.080	1	12
484.250	1	8
484.421	1	18
484.591	1	26
484.761	1	25
484.932	1	11
485.102	1	18
485.272	1	12
485.443	1	24
485.613	1	17
485.783	1	25
485.953	1	17
486.124	1	14
486.294	1	17
486.464	1	10
486.635	1	21
486.805	1	6
486.975	1	9
487.146	1	12
487.316	1	27
487.486	1	10
487.656	1	11
487.827	1	8
487.997	1	13
488.167	1	15
488.338	1	10
488.508	1	19
488.678	1	12
488.848	1	14
489.019	1	22
489.189	1	16
489.359	1	26
489.529	1	14
489.700	1	18
489.870	1	5
490.040	1	12
490.211	1	14
490.381	1	7
490.551	1	15
490.721	1	27
490.892	1	13
491.062	1	7
491.232	1	6
491.402	1	16
491.573	1	-2
491.743	1	12
491.913	1	9
492.084	1	21
492.254	1	18
492.424	1	14
492.594	1	33
492.765	1	21
492.935	1	8
493.105	1	15
493.275	1	14
493.446	1	5
493.616	1	17
493.786	1	12
493.956	1	7
494.127	1	29
494.297	1	17
494.467	1	18
494.637	1	18
494.808	1	18
494.978	1	12
495.148	1	12
495.318	1	23
495.489	1	11
495.659	1	16
495.829	1	19
495.999	1	14
496.170	1	4
496.340	1	22
496.510	1	20
496.680	1	4
496.851	1	18
497.021	1	5
497.191	1	19
497.361	1	8
497.532	1	13
497.702	1	23
497.872	1	20
498.042	1	16
498.213	1	23
498.383	1	19
498.553	1	9
498.723	1	12
498.894	1	11
499.064	1	2
499.234	1	6
499.404	1	10
499.574	1	15
499.745	1	16
499.915	1	4
500.085	1	3
500.255	1	7
500.426	1	21
500.596	1	0
500.766	1	7
500.936	1	15
501.106	1	15
501.277	1	13
501.447	1	13
501.617	1	10
501.787	1	12
501.958	1	9
502.128	1	-2
502.298	1	15
502.468	1	15
502.638	1	14
502.809	1	14
502.979	1	26
503.149	1	0
503.319	1	10
503.489	1	6
503.660	1	6
503.830	1	18
504.000	1	9
504.170	1	17
504.340	1	16
504.511	1	22
504.681	1	7
504.851	1	9
505.021	1	13
505.192	1	7
505.362	1	16
505.532	1	18
505.702	1	1
505.872	1	11
506.043	1	15
506.213	1	25
506.383	1	14
506.553	1	11
506.723	1	14
506.893	1	14
507.064	1	6
507.234	1	3
507.404	1	24
507.574	1	13
507.744	1	20
507.915	1	14
508.085	1	19
508.255	1	13
508.425	1	4
508.595	1	-1
508.766	1	7
508.936	1	11
509.106	1	7
509.276	1	14
509.446	1	13
509.616	1	9
509.787	1	13
509.957	1	7
510.127	1	11
510.297	1	5
510.467	1	6
510.638	1	11
510.808	1	4
510.978	1	11
511.148	1	25
511.318	1	3
511.488	1	19
511.659	1	1
511.829	1	18
511.999	1	8
512.169	1	9
512.339	1	17
512.509	1	13
512.680	1	7
512.850	1	11
513.020	1	1
513.190	1	1
513.360	1	9
513.530	1	11
513.700	1	14
513.871	1	18
514.041	1	10
514.211	1	17
514.381	1	21
514.551	1	9
514.721	1	9
514.892	1	11
515.062	1	10
515.232	1	10
515.402	1	8
515.572	1	6
515.742	1	2
515.912	1	6
516.083	1	9
516.253	1	17
516.423	1	6
516.593	1	9
516.763	1	7
516.933	1	-8
517.104	1	7
517.274	1	3
517.444	1	7
517.614	1	7
517.784	1	14
517.954	1	26
518.124	1	8
518.294	1	12
518.465	1	6
518.635	1	1
518.805	1	18
518.975	1	8
519.145	1	13
519.315	1	5
519.485	1	7
519.656	1	12
519.826	1	6
519.996	1	0
520.166	1	15
520.336	1	7
520.506	1	-4
520.676	1	8
520.846	1	8
521.017	1	3
521.187	1	11
521.357	1	5
521.527	1	5
521.697	1	10
521.867	1	4
522.037	1	3
522.207	1	4
522.377	1	5
522.548	1	4
522.718	1	8
522.888	1	11
523.058	1	21
523.228	1	12
523.398	1	18
523.568	1	9
523.738	1	14
523.909	1	13
524.079	1	15
524.249	1	7
524.419	1	7
524.589	1	3
524.759	1	15
524.929	1	3
525.099	1	19
525.269	1	13
525.439	1	12
525.610	1	11
525.780	1	16
525.950	1	19
526.120	1	-3
526.290	1	15
526.460	1	7
526.630	1	5
526.800	1	16
526.970	1	18
527.140	1	16
527.311	1	6
527.481	1	11
527.651	1	10
527.821	1	5
527.991	1	5
528.161	1	11
528.331	1	15
528.501	1	20
528.671	1	2
528.841	1	15
529.011	1	0
529.181	1	13
529.352	1	2
529.522	1	3
529.692	1	1
529.862	1	13
530.032	1	9
530.202	1	12
530.372	1	7
530.542	1	9
530.712	1	13
530.882	1	4
531.052	1	16
531.222	1	0
531.392	1	12
531.563	1	1
531.733	1	14
531.903	1	2
532.073	1	8
532.243	1	-1
532.413	1	19
532.583	1	3
532.753	1	9
532.923	1	14
533.093	1	14
533.263	1	3
533.433	1	20
533.603	1	7
533.773	1	-1
533.943	1	6
534.113	1	11
534.284	1	9
534.454	1	-1
534.624	1	9
534.794	1	5
534.964	1	13
535.134	1	18
535.304	1	5
535.474	1	-14
535.644	1	2
535.814	1	8
535.984	1	6
536.154	1	12
536.324	1	14
536.494	1	9
536.664	1	-2
536.834	1	-1
537.004	1	10
537.174	1	10
537.344	1	7
537.514	1	1
537.685	1	4
537.855	1	2
538.025	1	11
538.195	1	13
538.365	1	1
538.535	1	-2
538.705	1	14
538.875	1	12
539.045	1	9
539.215	1	0
539.385	1	10
539.555	1	8
539.725	1	2
539.895	1	1
540.065	1	5
540.235	1	9
540.405	1	-1
540.575	1	10
540.745	1	4
540.915	1	13
541.085	1	-4
541.255	1	-5
541.425	1	15
541.595	1	5
541.765	1	28
541.935	1	8
542.105	1	6
542.275	1	9
542.445	1	-1
542.615	1	11
542.785	1	0
542.955	1	1
543.125	1	-3
543.295	1	0
543.465	1	9
543.635	1	15
543.805	1	15
543.975	1	7
544.145	1	-1
544.315	1	7
544.485	1	7
544.655	1	16
544.825	1	4
544.995	1	3
545.165	1	6
545.335	1	8
545.505	1	10
545.675	1	-5
545.845	1	8
546.015	1	15
546.185	1	3
546.355	1	6
546.525	1	-1
546.695	1	3
546.865	1	9
547.035	1	10
547.205	1	0
547.375	1	3
547.545	1	18
547.715	1	8
547.885	1	15
548.055	1	4
548.225	1	15
548.395	1	-9
548.565	1	10
548.735	1	3
548.905	1	0
549.075	1	15
549.245	1	2
549.415	1	4
549.585	1	12
549.755	1	12
549.925	1	9
550.095	1	2
550.265	1	-1
550.435	1	-15
550.605	1	4
550.775	1	-1
550.945	1	10
551.115	1	9
551.285	1	8
551.455	1	6
551.625	1	1
551.795	1	5
551.965	1	11
552.135	1	-1
552.305	1	-1
552.475	1	6
552.645	1	6
552.815	1	10
552.985	1	5
553.155	1	4
553.325	1	9
553.495	1	11
553.665	1	13
553.835	1	2
554.004	1	1
554.174	1	8
554.344	1	2
554.514	1	3
554.684	1	-5
554.854	1	3
555.024	1	12
555.194	1	12
555.364	1	15
555.534	1	0
555.704	1	7
555.874	1	0
556.044	1	16
556.214	1	7
556.384	1	2
556.554	1	7
556.724	1	7
556.894	1	0
557.064	1	9
557.234	1	-1
557.404	1	8
557.573	1	-1
557.743	1	9
557.913	1	-3
558.083	1	18
558.253	1	-1
558.423	1	8
558.593	1	7
558.763	1	10
558.933	1	3
559.103	1	9
559.273	1	6
559.443	1	6
559.613	1	5
559.783	1	8
559.953	1	13
560.122	1	3
560.292	1	1
560.462	1	6
560.632	1	11
560.802	1	8
560.972	1	9
561.142	1	8
561.312	1	3
561.482	1	18
561.652	1	14
561.822	1	-9
561.992	1	-10
562.162	1	8
562.331	1	9
562.501	1	-9
562.671	1	7
562.841	1	-3
563.011	1	-3
563.181	1	11
563.351	1	2
563.521	1	13
563.691	1	10
563.861	1	-2
564.031	1	3
564.201	1	9
564.370	1	5
564.540	1	-6
564.710	1	-1
564.880	1	8
565.050	1	14
565.220	1	-3
565.390	1	7
565.560	1	4
565.730	1	4
565.900	1	-3
566.069	1	8
566.239	1	3
566.409	1	9
566.579	1	2
566.749	1	2
566.919	1	12
567.089	1	2
567.259	1	6
567.429	1	4
567.599	1	4
567.768	1	15
567.938	1	-5
568.108	1	8
568.278	1	4
568.448	1	4
568.618	1	10
568.788	1	-11
568.958	1	-4
569.128	1	9
569.297	1	9
569.467	1	6
569.637	1	3
569.807	1	2
569.977	1	16
570.147	1	-8
570.317	1	9
570.487	1	7
570.656	1	-2
570.826	1	4
570.996	1	8
571.166	1	5
571.336	1	-1
571.506	1	1
571.676	1	-8
571.846	1	-5
572.015	1	10
572.185	1	13
572.355	1	14
572.525	1	-12
572.695	1	7
572.865	1	7
573.035	1	-2
573.205	1	0
573.374	1	16
573.544	1	-3
573.714	1	6
573.884	1	1
574.054	1	-2
574.224	1	6
574.394	1	-4
574.563	1	12
574.733	1	10
574.903	1	-2
575.073	1	-7
575.243	1	3
575.413	1	6
575.583	1	1
575.752	1	5
575.922	1	6
576.092	1	3
576.262	1	11
576.432	1	7
576.602	1	-10
576.772	1	-7
576.941	1	19
577.111	1	3
577.281	1	23
577.451	1	1
577.621	1	9
577.791	1	11
577.960	1	-3
578.130	1	11
578.300	1	4
578.470	1	7
578.640	1	-5
578.810	1	7
578.979	1	-2
579.149	1	-7
579.319	1	2
579.489	1	3
579.659	1	4
579.829	1	10
579.998	1	0
580.168	1	4
580.338	1	6
580.508	1	0
580.678	1	15
580.848	1	10
581.017	1	4
581.187	1	7
581.357	1	-6
581.527	1	0
581.697	1	-15
581.867	1	5
582.036	1	10
582.206	1	4
582.376	1	2
582.546	1	17
582.716	1	3
582.885	1	7
583.055	1	3
583.225	1	3
583.395	1	-2
583.565	1	4
583.735	1	-7
583.904	1	2
584.074	1	1
584.244	1	12
584.414	1	1
584.584	1	6
584.753	1	14
584.923	1	17
585.093	1	3
585.263	1	8
585.433	1	10
585.602	1	14
585.772	1	0
585.942	1	10
586.112	1	-6
586.282	1	5
586.451	1	-6
586.621	1	-9
586.791	1	20
586.961	1	12
587.131	1	3
587.300	1	9
587.470	1	1
587.640	1	-2
587.810	1	-11
587.980	1	-1
588.149	1	8
588.319	1	3
588.489	1	-1
588.659	1	12
588.829	1	-7
588.998	1	3
589.168	1	10
589.338	1	0
589.508	1	9
589.677	1	9
589.847	1	7
590.017	1	-2
590.187	1	1
590.357	1	0
590.526	1	19
590.696	1	5
590.866	1	9
591.036	1	-3
591.205	1	7
591.375	1	1
591.545	1	1
591.715	1	-4
591.885	1	5
592.054	1	4
592.224	1	1
592.394	1	2
592.564	1	5
592.733	1	5
592.903	1	1
593.073	1	-5
593.243	1	0
593.412	1	2
593.582	1	2
593.752	1	11
593.922	1	15
594.091	1	-7
594.261	1	7
594.431	1	-3
594.601	1	3
594.771	1	1
594.940	1	1
595.110	1	5
595.280	1	10
595.450	1	3
595.619	1	13
595.789	1	18
595.959	1	5
596.129	1	-8
596.298	1	0
596.468	1	-2
596.638	1	1
596.808	1	6
596.977	1	-2
597.147	1	8
597.317	1	9
597.487	1	9
597.656	1	5
597.826	1	7
597.996	1	3
598.166	1	9
598.335	1	-4
598.505	1	1
598.675	1	0
598.844	1	8
599.014	1	10
599.184	1	3
599.354	1	-1
599.523	1	0
599.693	1	-4
599.863	1	4
600.033	1	2
600.202	1	2
600.372	1	9
600.542	1	4
600.712	1	4
600.881	1	12
601.051	1	11
601.221	1	6
601.390	1	14
601.560	1	-2
601.730	1	4
601.900	1	18
602.069	1	-11
602.239	1	5
602.409	1	-8
602.578	1	15
602.748	1	-1
602.918	1	6
603.088	1	9
603.257	1	21
603.427	1	13
603.597	1	-2
603.767	1	2
603.936	1	15
604.106	1	2
604.276	1	-1
604.445	1	-10
604.615	1	3
604.785	1	14
604.954	1	5
605.124	1	7
605.294	1	16
605.464	1	0
605.633	1	11
605.803	1	6
605.973	1	5
606.142	1	11
606.312	1	15
606.482	1	5
606.652	1	16
606.821	1	2
606.991	1	1
607.161	1	14
607.330	1	10
607.500	1	15
607.670	1	4
607.839	1	6
608.009	1	3
608.179	1	2
608.348	1	4
608.518	1	3
608.688	1	6
608.858	1	1
609.027	1	5
609.197	1	12
609.367	1	7
609.536	1	15
609.706	1	3
609.876	1	5
610.045	1	6
610.215	1	9
610.385	1	1
610.554	1	5
610.724	1	10
610.894	1	0
611.063	1	4
611.233	1	2
611.403	1	3
611.572	1	10
611.742	1	3
611.912	1	3
612.081	1	-1
612.251	1	9
612.421	1	10
612.590	1	4
612.760	1	16
612.930	1	0
613.099	1	5
613.269	1	2
613.439	1	1
613.608	1	6
613.778	1	-3
613.948	1	17
614.117	1	12
614.287	1	1
614.457	1	1
614.626	1	12
614.796	1	1
614.966	1	5
615.135	1	9
615.305	1	8
615.475	1	-6
615.644	1	11
615.814	1	6
615.984	1	5
616.153	1	4
616.323	1	-7
616.493	1	11
616.662	1	-1
616.832	1	-3
617.002	1	4
617.171	1	4
617.341	1	-2
617.511	1	-1
617.680	1	11
617.850	1	1
618.019	1	7
618.189	1	14
618.359	1	0
618.528	1	-4
618.698	1	10
618.868	1	-2
619.037	1	8
619.207	1	13
619.377	1	8
619.546	1	2
619.716	1	-6
619.885	1	2
620.055	1	17
620.225	1	10
620.394	1	9
620.564	1	-1
620.734	1	3
620.903	1	9
621.073	1	6
621.242	1	4
621.412	1	9
621.582	1	-2
621.751	1	6
621.921	1	15
622.091	1	2
622.260	1	7
622.430	1	15
622.599	1	12
622.769	1	6
622.939	1	0
623.108	1	11
623.278	1	11
623.448	1	14
623.617	1	2
623.787	1	5
623.956	1	18
624.126	1	4
624.296	1	12
624.465	1	-1
624.635	1	13
624.804	1	7
624.974	1	5
625.144	1	21
625.313	1	6
625.483	1	8
625.652	1	20
625.822	1	10
625.992	1	13
626.161	1	-1
626.331	1	-1
626.501	1	10
626.670	1	3
626.840	1	0
627.009	1	8
627.179	1	-4
627.348	1	12
627.518	1	3
627.688	1	9
627.857	1	0
628.027	1	3
628.196	1	0
628.366	1	4
628.536	1	15
628.705	1	3
628.875	1	18
629.044	1	4
629.214	1	11
629.384	1	3
629.553	1	11
629.723	1	-9
629.892	1	2
630.062	1	-6
630.232	1	19
630.401	1	15
630.571	1	7
630.740	1	-1
630.910	1	18
631.079	1	6
631.249	1	13
631.419	1	15
631.588	1	2
631.758	1	14
631.927	1	6
632.097	1	13
632.266	1	0
632.436	1	12
632.606	1	-8
632.775	1	12
632.945	1	2
633.114	1	12
633.284	1	11
633.453	1	9
633.623	1	13
633.793	1	1
633.962	1	5
634.132	1	11
634.301	1	3
634.471	1	3
634.640	1	5
634.810	1	16
634.979	1	-1
635.149	1	2
635.319	1	10
635.488	1	8
635.658	1	21
635.827	1	4
635.997	1	5
636.166	1	10
636.336	1	0
636.505	1	6
636.675	1	6
636.845	1	8
637.014	1	4
637.184	1	10
637.353	1	1
637.523	1	13
637.692	1	7
637.862	1	-11
638.031	1	5
638.201	1	1
638.370	1	7
638.540	1	-2
638.710	1	18
638.879	1	20
639.049	1	2
639.218	1	20
639.388	1	-2
639.557	1	13
639.727	1	11
639.896	1	10
640.066	1	6
640.235	1	-2
640.405	1	7
640.574	1	5
640.744	1	2
640.914	1	-6
641.083	1	1
641.253	1	3
641.422	1	8
641.592	1	-1
641.761	1	5
641.931	1	3
642.100	1	15
642.270	1	-4
642.439	1	5
642.609	1	19
642.778	1	3
642.948	1	7
643.117	1	8
643.287	1	1
643.456	1	9
643.626	1	8
643.795	1	9
643.965	1	6
644.134	1	-1
644.304	1	16
644.473	1	9
644.643	1	4
644.812	1	3
644.982	1	3
645.151	1	6
645.321	1	3
645.490	1	13
645.660	1	8
645.829	1	0
645.999	1	11
646.168	1	1
646.338	1	9
646.507	1	1
646.677	1	7
646.846	1	9
647.016	1	8
647.185	1	10
647.355	1	7
647.524	1	16
647.694	1	3
647.863	1	5
648.033	1	10
648.202	1	11
648.372	1	4
648.541	1	5
648.711	1	-3
648.880	1	4
649.050	1	-2
649.219	1	3
649.389	1	0
649.558	1	3
649.728	1	10
649.897	1	-2
650.067	1	11
650.236	1	-3
650.406	1	10
650.575	1	9
650.745	1	13
650.914	1	6
651.084	1	10
651.253	1	0
651.423	1	10
651.592	1	-7
651.762	1	13
651.931	1	8
652.101	1	21
652.270	1	0
652.440	1	12
652.609	1	19
652.778	1	2
652.948	1	6
653.117	1	15
653.287	1	1
653.456	1	-1
653.626	1	8
653.795	1	2
653.965	1	-10
654.134	1	-3
654.304	1	19
654.473	1	9
654.643	1	5
654.812	1	8
654.982	1	1
655.151	1	11
655.320	1	6
655.490	1	4
655.659	1	-1
655.829	1	8
655.998	1	3
656.168	1	18
656.337	1	1
656.507	1	-3
656.676	1	9
656.846	1	9
657.015	1	-6
657.184	1	6
657.354	1	10
657.523	1	2
657.693	1	-1
657.862	1	-2
658.032	1	20
658.201	1	10
658.371	1	-3
658.540	1	1
658.709	1	8
658.879	1	16
659.048	1	4
659.218	1	-1
659.387	1	14
659.557	1	8
659.726	1	9
659.895	1	0
660.065	1	10
660.234	1	-1
660.404	1	6
660.573	1	4
660.743	1	4
660.912	1	1
661.081	1	-7
661.251	1	17
661.420	1	10
661.590	1	-4
661.759	1	-8
661.929	1	5
662.098	1	8
662.267	1	11
662.437	1	14
662.606	1	7
662.776	1	5
662.945	1	6
663.115	1	19
663.284	1	-1
663.453	1	17
663.623	1	16
663.792	1	17
663.962	1	0
664.131	1	2
664.300	1	-13
664.470	1	6
664.639	1	12
664.809	1	5
664.978	1	4
665.148	1	-5
665.317	1	5
665.486	1	1
665.656	1	12
665.825	1	12
665.995	1	4
666.164	1	12
666.333	1	6
666.503	1	-2
666.672	1	17
666.842	1	5
667.011	1	-3
667.180	1	11
667.350	1	6
667.519	1	18
667.689	1	3
667.858	1	14
668.027	1	11
668.197	1	15
668.366	1	2
668.536	1	1
668.705	1	19
668.874	1	14
669.044	1	16
669.213	1	8
669.382	1	12
669.552	1	4
669.721	1	8
669.891	1	1
670.060	1	3
670.229	1	-1
670.399	1	0
670.568	1	-5
670.738	1	9
670.907	1	16
671.076	1	6
671.246	1	-3
671.415	1	11
671.584	1	5
671.754	1	5
671.923	1	8
672.093	1	7
672.262	1	9
672.431	1	14
672.601	1	1
672.770	1	-1
672.939	1	9
673.109	1	13
673.278	1	7
673.448	1	14
673.617	1	12
673.786	1	12
