325.333	1	0
325.504	1	5
325.675	1	-3
325.846	1	2
326.017	1	0
326.188	1	-2
326.359	1	-2
326.531	1	3
326.702	1	5
326.873	1	-13
327.044	1	13
327.215	1	-7
327.386	1	8
327.557	1	0
327.728	1	2
327.899	1	1
328.070	1	4
328.241	1	6
328.412	1	-14
328.583	1	7
328.754	1	-3
328.926	1	5
329.097	1	-2
329.268	1	-8
329.439	1	-3
329.610	1	-1
329.781	1	3
329.952	1	-1
330.123	1	-7
330.294	1	7
330.465	1	0
330.636	1	13
330.807	1	3
330.978	1	3
331.149	1	6
331.320	1	3
331.492	1	-1
331.663	1	-10
331.834	1	-1
332.005	1	-3
332.176	1	14
332.347	1	7
332.518	1	16
332.689	1	2
332.860	1	11
333.031	1	4
333.202	1	3
333.373	1	-4
333.544	1	-4
333.715	1	0
333.886	1	5
334.057	1	1
334.228	1	8
334.399	1	7
334.570	1	-6
334.741	1	9
334.912	1	1
335.084	1	-10
335.255	1	14
335.426	1	-2
335.597	1	-3
335.768	1	6
335.939	1	-1
336.110	1	-2
336.281	1	3
336.452	1	2
336.623	1	-5
336.794	1	8
336.965	1	-6
337.136	1	2
337.307	1	-4
337.478	1	-3
337.649	1	-9
337.820	1	-5
337.991	1	11
338.162	1	5
338.333	1	5
338.504	1	16
338.675	1	19
338.846	1	4
339.017	1	2
339.188	1	11
339.359	1	2
339.530	1	4
339.701	1	-6
339.872	1	10
340.043	1	-11
340.214	1	3
340.385	1	4
340.556	1	-6
340.727	1	5
340.898	1	5
341.069	1	-7
341.240	1	-1
341.411	1	15
341.582	1	13
341.753	1	9
341.924	1	12
342.095	1	4
342.266	1	-5
342.437	1	-6
342.608	1	2
342.779	1	7
342.950	1	2
343.121	1	-2
343.292	1	12
343.463	1	6
343.634	1	0
343.805	1	1
343.976	1	-20
344.147	1	1
344.318	1	4
344.489	1	6
344.660	1	7
344.831	1	2
345.002	1	11
345.173	1	1
345.344	1	-8
345.515	1	11
345.686	1	-12
345.857	1	3
346.028	1	-9
346.199	1	5
346.370	1	4
346.541	1	8
346.712	1	-1
346.883	1	18
347.054	1	0
347.225	1	-5
347.396	1	-5
347.567	1	1
347.738	1	-4
347.909	1	5
348.080	1	13
348.251	1	3
348.422	1	-6
348.593	1	1
348.764	1	-2
348.935	1	1
349.106	1	13
349.277	1	5
349.448	1	2
349.619	1	1
349.790	1	14
349.961	1	6
350.132	1	16
350.303	1	-4
350.474	1	6
350.645	1	10
350.816	1	-3
350.987	1	14
351.157	1	8
351.328	1	1
351.499	1	2
351.670	1	-7
351.841	1	0
352.012	1	6
352.183	1	3
352.354	1	8
352.525	1	1
352.696	1	1
352.867	1	2
353.038	1	-3
353.209	1	5
353.380	1	-4
353.551	1	-4
353.722	1	12
353.893	1	6
354.064	1	-2
354.235	1	4
354.406	1	11
354.576	1	4
354.747	1	14
354.918	1	16
355.089	1	7
355.260	1	5
355.431	1	8
355.602	1	4
355.773	1	9
355.944	1	11
356.115	1	-3
356.286	1	2
356.457	1	-3
356.628	1	-3
356.799	1	6
356.970	1	2
357.141	1	11
357.311	1	13
357.482	1	-1
357.653	1	7
357.824	1	5
357.995	1	14
358.166	1	4
358.337	1	-5
358.508	1	-8
358.679	1	2
358.850	1	-7
359.021	1	2
359.192	1	6
359.363	1	-11
359.533	1	1
359.704	1	4
359.875	1	-1
360.046	1	-6
360.217	1	-12
360.388	1	1
360.559	1	-2
360.730	1	-13
360.901	1	0
361.072	1	6
361.243	1	3
361.414	1	5
361.584	1	8
361.755	1	2
361.926	1	-2
362.097	1	-6
362.268	1	6
362.439	1	7
362.610	1	3
362.781	1	6
362.952	1	2
363.123	1	3
363.293	1	-6
363.464	1	7
363.635	1	9
363.806	1	9
363.977	1	-8
364.148	1	2
364.319	1	-4
364.490	1	7
364.661	1	10
364.832	1	1
365.002	1	6
365.173	1	-16
365.344	1	8
365.515	1	10
365.686	1	-4
365.857	1	2
366.028	1	-2
366.199	1	-2
366.370	1	3
366.540	1	8
366.711	1	7
366.882	1	7
367.053	1	5
367.224	1	-1
367.395	1	16
367.566	1	8
367.737	1	-3
367.908	1	-5
368.078	1	2
368.249	1	5
368.420	1	2
368.591	1	1
368.762	1	-8
368.933	1	17
369.104	1	-5
369.274	1	9
369.445	1	10
369.616	1	-9
369.787	1	-3
369.958	1	14
370.129	1	-2
370.300	1	4
370.471	1	-1
370.641	1	-1
370.812	1	10
370.983	1	2
371.154	1	7
371.325	1	9
371.496	1	2
371.667	1	5
371.837	1	2
372.008	1	24
372.179	1	2
372.350	1	10
372.521	1	2
372.692	1	2
372.863	1	3
373.033	1	18
373.204	1	11
373.375	1	-4
373.546	1	9
373.717	1	0
373.888	1	13
374.059	1	2
374.229	1	3
374.400	1	10
374.571	1	6
374.742	1	5
374.913	1	4
375.084	1	8
375.254	1	4
375.425	1	3
375.596	1	2
375.767	1	5
375.938	1	6
376.109	1	2
376.279	1	7
376.450	1	-6
376.621	1	15
376.792	1	14
376.963	1	0
377.134	1	-3
377.304	1	5
377.475	1	-2
377.646	1	5
377.817	1	1
377.988	1	3
378.159	1	11
378.329	1	7
378.500	1	2
378.671	1	3
378.842	1	8
379.013	1	12
379.184	1	8
379.354	1	14
379.525	1	-7
379.696	1	12
379.867	1	-3
380.038	1	6
380.209	1	6
380.379	1	12
380.550	1	1
380.721	1	0
380.892	1	16
381.063	1	6
381.233	1	8
381.404	1	6
381.575	1	7
381.746	1	6
381.917	1	7
382.087	1	4
382.258	1	6
382.429	1	5
382.600	1	1
382.771	1	8
382.941	1	7
383.112	1	7
383.283	1	12
383.454	1	8
383.625	1	-2
383.795	1	5
383.966	1	9
384.137	1	6
384.308	1	-3
384.479	1	2
384.649	1	14
384.820	1	12
384.991	1	1
385.162	1	6
385.333	1	-3
385.503	1	8
385.674	1	12
385.845	1	5
386.016	1	11
386.187	1	2
386.357	1	3
386.528	1	-2
386.699	1	5
386.870	1	4
387.041	1	9
387.211	1	6
387.382	1	0
387.553	1	3
387.724	1	-1
387.894	1	4
388.065	1	12
388.236	1	12
388.407	1	8
388.578	1	10
388.748	1	5
388.919	1	16
389.090	1	12
389.261	1	11
389.431	1	7
389.602	1	5
389.773	1	-2
389.944	1	4
390.114	1	1
390.285	1	7
390.456	1	0
390.627	1	18
390.798	1	5
390.968	1	12
391.139	1	7
391.310	1	11
391.481	1	6
391.651	1	8
391.822	1	7
391.993	1	12
392.164	1	-5
392.334	1	-3
392.505	1	4
392.676	1	14
392.847	1	12
393.017	1	10
393.188	1	1
393.359	1	16
393.530	1	5
393.700	1	8
393.871	1	10
394.042	1	10
394.213	1	12
394.383	1	7
394.554	1	15
394.725	1	7
394.896	1	9
395.066	1	9
395.237	1	5
395.408	1	-5
395.579	1	9
395.749	1	7
395.920	1	12
396.091	1	10
396.262	1	7
396.432	1	1
396.603	1	7
396.774	1	9
396.945	1	5
397.115	1	-4
397.286	1	16
397.457	1	11
397.627	1	1
397.798	1	12
397.969	1	10
398.140	1	1
398.310	1	14
398.481	1	6
398.652	1	7
398.823	1	-2
398.993	1	21
399.164	1	-8
399.335	1	4
399.505	1	16
399.676	1	13
399.847	1	18
400.018	1	9
400.188	1	9
400.359	1	15
400.530	1	3
400.700	1	3
400.871	1	11
401.042	1	8
401.213	1	7
401.383	1	2
401.554	1	15
401.725	1	11
401.895	1	2
402.066	1	13
402.237	1	13
402.408	1	15
402.578	1	10
402.749	1	15
402.920	1	12
403.090	1	11
403.261	1	15
403.432	1	17
403.603	1	0
403.773	1	3
403.944	1	4
404.115	1	9
404.285	1	21
404.456	1	17
404.627	1	5
404.797	1	4
404.968	1	-3
405.139	1	5
405.310	1	10
405.480	1	8
405.651	1	11
405.822	1	17
405.992	1	12
406.163	1	16
406.334	1	15
406.504	1	5
406.675	1	8
406.846	1	16
407.016	1	2
407.187	1	12
407.358	1	10
407.528	1	3
407.699	1	-3
407.870	1	11
408.041	1	-4
408.211	1	7
408.382	1	4
408.553	1	-2
408.723	1	11
408.894	1	4
409.065	1	16
409.235	1	14
409.406	1	10
409.577	1	5
409.747	1	13
409.918	1	3
410.089	1	3
410.259	1	8
410.430	1	8
410.601	1	6
410.771	1	12
410.942	1	3
411.113	1	14
411.283	1	8
411.454	1	15
411.625	1	6
411.795	1	7
411.966	1	5
412.137	1	0
412.307	1	10
412.478	1	10
412.649	1	13
412.819	1	1
412.990	1	7
413.161	1	8
413.331	1	17
413.502	1	-8
413.672	1	11
413.843	1	6
414.014	1	20
414.184	1	8
414.355	1	11
414.526	1	17
414.696	1	7
414.867	1	3
415.038	1	14
415.208	1	8
415.379	1	11
415.550	1	6
415.720	1	0
415.891	1	19
416.062	1	16
416.232	1	6
416.403	1	4
416.573	1	10
416.744	1	-1
416.915	1	14
417.085	1	-5
417.256	1	-1
417.427	1	13
417.597	1	8
417.768	1	13
417.939	1	14
418.109	1	3
418.280	1	3
418.450	1	15
418.621	1	21
418.792	1	10
418.962	1	2
419.133	1	18
419.304	1	11
419.474	1	5
419.645	1	5
419.815	1	8
419.986	1	2
420.157	1	17
420.327	1	3
420.498	1	4
420.669	1	9
420.839	1	3
421.010	1	8
421.180	1	2
421.351	1	22
421.522	1	16
421.692	1	7
421.863	1	15
422.033	1	12
422.204	1	4
422.375	1	6
422.545	1	11
422.716	1	1
422.886	1	20
423.057	1	1
423.228	1	12
423.398	1	13
423.569	1	14
423.740	1	6
423.910	1	21
424.081	1	8
424.251	1	2
424.422	1	6
424.593	1	6
424.763	1	15
424.934	1	5
425.104	1	10
425.275	1	12
425.445	1	22
425.616	1	13
425.787	1	10
425.957	1	-5
426.128	1	13
426.298	1	13
426.469	1	-2
426.640	1	9
426.810	1	13
426.981	1	13
427.151	1	8
427.322	1	-1
427.493	1	4
427.663	1	2
427.834	1	7
428.004	1	6
428.175	1	8
428.345	1	17
428.516	1	15
428.687	1	11
428.857	1	1
429.028	1	18
429.198	1	8
429.369	1	13
429.540	1	0
429.710	1	11
429.881	1	17
430.051	1	10
430.222	1	5
430.392	1	13
430.563	1	11
430.734	1	12
430.904	1	9
431.075	1	2
431.245	1	14
431.416	1	0
431.586	1	15
431.757	1	18
431.927	1	-2
432.098	1	17
432.269	1	12
432.439	1	10
432.610	1	13
432.780	1	4
432.951	1	4
433.121	1	4
433.292	1	10
433.462	1	12
433.633	1	23
433.804	1	8
433.974	1	10
434.145	1	11
434.315	1	6
434.486	1	4
434.656	1	10
434.827	1	13
434.997	1	24
435.168	1	2
435.339	1	16
435.509	1	10
435.680	1	22
435.850	1	4
436.021	1	6
436.191	1	18
436.362	1	14
436.532	1	13
436.703	1	15
436.873	1	10
437.044	1	15
437.214	1	19
437.385	1	7
437.556	1	0
437.726	1	5
437.897	1	1
438.067	1	11
438.238	1	17
438.408	1	14
438.579	1	11
438.749	1	-2
438.920	1	9
439.090	1	5
439.261	1	4
439.431	1	12
439.602	1	4
439.772	1	5
439.943	1	5
440.113	1	10
440.284	1	8
440.455	1	12
440.625	1	7
440.796	1	-2
440.966	1	5
441.137	1	8
441.307	1	9
441.478	1	7
441.648	1	9
441.819	1	7
441.989	1	-6
442.160	1	7
442.330	1	21
442.501	1	7
442.671	1	7
442.842	1	16
443.012	1	6
443.183	1	2
443.353	1	5
443.524	1	3
443.694	1	9
443.865	1	9
444.035	1	6
444.206	1	4
444.376	1	24
444.547	1	5
444.717	1	16
444.888	1	8
445.058	1	9
445.229	1	5
445.399	1	11
445.570	1	2
445.740	1	11
445.911	1	8
446.081	1	18
446.252	1	-5
446.422	1	15
446.593	1	9
446.763	1	8
446.934	1	16
447.104	1	3
447.275	1	17
447.445	1	12
447.616	1	8
447.786	1	-4
447.957	1	10
448.127	1	14
448.298	1	18
448.468	1	7
448.639	1	2
448.809	1	5
448.979	1	3
449.150	1	10
449.320	1	13
449.491	1	20
449.661	1	16
449.832	1	12
450.002	1	16
450.173	1	11
450.343	1	15
450.514	1	0
450.684	1	13
450.855	1	16
451.025	1	6
451.196	1	16
451.366	1	3
451.537	1	10
451.707	1	10
451.878	1	4
452.048	1	-4
452.218	1	15
452.389	1	6
452.559	1	5
452.730	1	8
452.900	1	8
453.071	1	8
453.241	1	15
453.412	1	0
453.582	1	3
453.753	1	15
453.923	1	9
454.093	1	7
454.264	1	1
454.434	1	14
454.605	1	4
454.775	1	4
454.946	1	6
455.116	1	11
455.287	1	1
455.457	1	4
455.628	1	9
455.798	1	11
455.968	1	5
456.139	1	5
456.309	1	15
456.480	1	9
456.650	1	17
456.821	1	19
456.991	1	8
457.161	1	9
457.332	1	6
457.502	1	14
457.673	1	9
457.843	1	12
458.014	1	6
458.184	1	10
458.355	1	7
458.525	1	10
458.695	1	5
458.866	1	19
459.036	1	9
459.207	1	15
459.377	1	17
459.548	1	0
459.718	1	6
459.888	1	20
460.059	1	16
460.229	1	15
460.400	1	13
460.570	1	7
460.740	1	-4
460.911	1	10
461.081	1	11
461.252	1	4
461.422	1	7
461.593	1	8
461.763	1	15
461.933	1	19
462.104	1	2
462.274	1	7
462.445	1	0
462.615	1	11
462.785	1	13
462.956	1	9
463.126	1	6
463.297	1	12
463.467	1	5
463.638	1	5
463.808	1	6
463.978	1	18
464.149	1	3
464.319	1	15
464.490	1	7
464.660	1	7
464.830	1	8
465.001	1	12
465.171	1	10
465.342	1	-4
465.512	1	5
465.682	1	3
465.853	1	-5
466.023	1	4
466.194	1	7
466.364	1	5
466.534	1	8
466.705	1	1
466.875	1	14
467.045	1	6
467.216	1	10
467.386	1	16
467.557	1	10
467.727	1	16
467.897	1	3
468.068	1	-6
468.238	1	16
468.409	1	-1
468.579	1	8
468.749	1	3
468.920	1	-2
469.090	1	14
469.260	1	5
469.431	1	19
469.601	1	2
469.772	1	1
469.942	1	13
470.112	1	7
470.283	1	7
470.453	1	12
470.623	1	3
470.794	1	0
470.964	1	11
471.135	1	12
471.305	1	-1
471.475	1	0
471.646	1	3
471.816	1	4
471.986	1	21
472.157	1	10
472.327	1	9
472.497	1	13
472.668	1	7
472.838	1	6
473.009	1	6
473.179	1	2
473.349	1	15
473.520	1	3
473.690	1	22
473.860	1	5
474.031	1	7
474.201	1	13
474.371	1	8
474.542	1	16
474.712	1	14
474.882	1	-4
475.053	1	8
475.223	1	4
475.394	1	0
475.564	1	3
475.734	1	16
475.905	1	18
476.075	1	4
476.245	1	6
476.416	1	-2
476.586	1	6
476.756	1	1
476.927	1	0
477.097	1	2
477.267	1	12
477.438	1	13
477.608	1	10
477.778	1	10
477.949	1	12
478.119	1	7
478.289	1	-1
478.460	1	2
478.630	1	14
478.800	1	18
478.971	1	10
479.141	1	6
479.311	1	12
479.482	1	6
479.652	1	14
479.822	1	4
479.993	1	2
480.163	1	12
480.333	1	4
480.504	1	2
480.674	1	4
480.844	1	5
481.015	1	0
481.185	1	-2
481.355	1	11
481.525	1	10
481.696	1	4
481.866	1	18
482.036	1	10
482.207	1	0
482.377	1	18
482.547	1	-5
482.718	1	1
482.888	1	5
483.058	1	0
483.229	1	13
483.399	1	12
483.569	1	8
483.740	1	13
483.910	1	3
484.080	1	5
484.250	1	-7
484.421	1	3
484.591	1	4
484.761	1	8
484.932	1	4
485.102	1	20
485.272	1	-4
485.443	1	10
485.613	1	6
485.783	1	15
485.953	1	3
486.124	1	4
486.294	1	4
486.464	1	1
486.635	1	14
486.805	1	8
486.975	1	10
487.146	1	-3
487.316	1	10
487.486	1	5
487.656	1	3
487.827	1	8
487.997	1	-6
488.167	1	9
488.338	1	1
488.508	1	4
488.678	1	12
488.848	1	7
489.019	1	10
489.189	1	1
489.359	1	5
489.529	1	2
489.700	1	11
489.870	1	-10
490.040	1	6
490.211	1	-4
490.381	1	9
490.551	1	6
490.721	1	4
490.892	1	10
491.062	1	1
491.232	1	-3
491.402	1	3
491.573	1	-6
491.743	1	12
491.913	1	-3
492.084	1	14
492.254	1	11
492.424	1	9
492.594	1	9
492.765	1	1
492.935	1	-3
493.105	1	14
493.275	1	7
493.446	1	10
493.616	1	1
493.786	1	-4
493.956	1	-8
494.127	1	11
494.297	1	6
494.467	1	7
494.637	1	8
494.808	1	2
494.978	1	3
495.148	1	10
495.318	1	10
495.489	1	-6
495.659	1	4
495.829	1	8
495.999	1	2
496.170	1	-2
496.340	1	3
496.510	1	10
496.680	1	-1
496.851	1	9
497.021	1	-9
497.191	1	13
497.361	1	1
497.532	1	-9
497.702	1	7
497.872	1	15
498.042	1	11
498.213	1	11
498.383	1	5
498.553	1	9
498.723	1	5
498.894	1	4
499.064	1	1
499.234	1	-2
499.404	1	1
499.574	1	-2
499.745	1	4
499.915	1	5
500.085	1	6
500.255	1	4
500.426	1	16
500.596	1	-3
500.766	1	2
500.936	1	3
501.106	1	-3
501.277	1	1
501.447	1	10
501.617	1	12
501.787	1	2
501.958	1	-2
502.128	1	-7
502.298	1	1
502.468	1	10
502.638	1	5
502.809	1	2
502.979	1	10
503.149	1	-1
503.319	1	1
503.489	1	3
503.660	1	5
503.830	1	0
504.000	1	5
504.170	1	-1
504.340	1	11
504.511	1	9
504.681	1	-6
504.851	1	13
505.021	1	1
505.192	1	5
505.362	1	1
505.532	1	6
505.702	1	2
505.872	1	7
506.043	1	9
506.213	1	12
506.383	1	7
506.553	1	10
506.723	1	4
506.893	1	-4
507.064	1	-2
507.234	1	-2
507.404	1	4
507.574	1	0
507.744	1	3
507.915	1	-2
508.085	1	14
508.255	1	11
508.425	1	3
508.595	1	1
508.766	1	7
508.936	1	5
509.106	1	3
509.276	1	0
509.446	1	5
509.616	1	5
509.787	1	14
509.957	1	5
510.127	1	5
510.297	1	1
510.467	1	1
510.638	1	7
510.808	1	-8
510.978	1	-5
511.148	1	21
511.318	1	9
511.488	1	12
511.659	1	-13
511.829	1	2
511.999	1	3
512.169	1	5
512.339	1	17
512.509	1	-3
512.680	1	1
512.850	1	5
513.020	1	-4
513.190	1	1
513.360	1	-5
513.530	1	4
513.700	1	9
513.871	1	4
514.041	1	-6
514.211	1	10
514.381	1	24
514.551	1	1
514.721	1	5
514.892	1	-7
515.062	1	9
515.232	1	-1
515.402	1	-2
515.572	1	1
515.742	1	12
515.912	1	2
516.083	1	-1
516.253	1	6
516.423	1	-4
516.593	1	5
516.763	1	-4
516.933	1	-9
517.104	1	-7
517.274	1	-2
517.444	1	2
517.614	1	2
517.784	1	2
517.954	1	15
518.124	1	0
518.294	1	1
518.465	1	5
518.635	1	-8
518.805	1	12
518.975	1	-3
519.145	1	8
519.315	1	3
519.485	1	-6
519.656	1	5
519.826	1	-1
519.996	1	3
520.166	1	13
520.336	1	4
520.506	1	-6
520.676	1	3
520.846	1	5
521.017	1	-6
521.187	1	5
521.357	1	-2
521.527	1	6
521.697	1	10
521.867	1	1
522.037	1	-10
522.207	1	-3
522.377	1	4
522.548	1	3
522.718	1	5
522.888	1	7
523.058	1	5
523.228	1	12
523.398	1	6
523.568	1	7
523.738	1	0
523.909	1	2
524.079	1	-2
524.249	1	3
524.419	1	4
524.589	1	3
524.759	1	6
524.929	1	-8
525.099	1	4
525.269	1	10
525.439	1	-1
525.610	1	4
525.780	1	11
525.950	1	10
526.120	1	0
526.290	1	-1
526.460	1	-2
526.630	1	3
526.800	1	8
526.970	1	6
527.140	1	-2
527.311	1	4
527.481	1	5
527.651	1	2
527.821	1	-4
527.991	1	-6
528.161	1	-3
528.331	1	12
528.501	1	-1
528.671	1	3
528.841	1	4
529.011	1	-11
529.181	1	3
529.352	1	-1
529.522	1	-4
529.692	1	6
529.862	1	13
530.032	1	2
530.202	1	5
530.372	1	2
530.542	1	-9
530.712	1	-1
530.882	1	3
531.052	1	12
531.222	1	-6
531.392	1	14
531.563	1	-3
531.733	1	9
531.903	1	-1
532.073	1	2
532.243	1	-3
532.413	1	5
532.583	1	1
532.753	1	3
532.923	1	9
533.093	1	18
533.263	1	-4
533.433	1	16
533.603	1	3
533.773	1	1
533.943	1	0
534.113	1	7
534.284	1	3
534.454	1	1
534.624	1	10
534.794	1	-4
534.964	1	6
535.134	1	6
535.304	1	5
535.474	1	-4
535.644	1	4
535.814	1	4
535.984	1	3
536.154	1	-2
536.324	1	13
536.494	1	-7
536.664	1	16
536.834	1	2
537.004	1	-2
537.174	1	-3
537.344	1	9
537.514	1	5
537.685	1	-4
537.855	1	-3
538.025	1	6
538.195	1	-4
538.365	1	-4
538.535	1	-5
538.705	1	5
538.875	1	5
539.045	1	2
539.215	1	-12
539.385	1	2
539.555	1	4
539.725	1	4
539.895	1	9
540.065	1	6
540.235	1	-6
540.405	1	-3
540.575	1	-1
540.745	1	-3
540.915	1	3
541.085	1	-8
541.255	1	-8
541.425	1	3
541.595	1	6
541.765	1	13
541.935	1	-5
542.105	1	-1
542.275	1	2
542.445	1	-9
542.615	1	-5
542.785	1	4
542.955	1	-7
543.125	1	-11
543.295	1	-4
543.465	1	2
543.635	1	13
543.805	1	7
543.975	1	8
544.145	1	1
544.315	1	0
544.485	1	-6
544.655	1	14
544.825	1	6
544.995	1	3
545.165	1	2
545.335	1	4
545.505	1	13
545.675	1	-13
545.845	1	10
546.015	1	9
546.185	1	0
546.355	1	-2
546.525	1	-5
546.695	1	0
546.865	1	7
547.035	1	9
547.205	1	2
547.375	1	10
547.545	1	8
547.715	1	16
547.885	1	1
548.055	1	1
548.225	1	5
548.395	1	-11
548.565	1	-2
548.735	1	9
548.905	1	-8
549.075	1	5
549.245	1	4
549.415	1	4
549.585	1	10
549.755	1	-1
549.925	1	1
550.095	1	-1
550.265	1	-1
550.435	1	-6
550.605	1	1
550.775	1	-5
550.945	1	-1
551.115	1	3
551.285	1	0
551.455	1	3
551.625	1	-4
551.795	1	-1
551.965	1	7
552.135	1	1
552.305	1	-7
552.475	1	7
552.645	1	-2
552.815	1	2
552.985	1	-10
553.155	1	-7
553.325	1	-8
553.495	1	9
553.665	1	4
553.835	1	8
554.004	1	-1
554.174	1	5
554.344	1	-9
554.514	1	9
554.684	1	-11
554.854	1	-9
555.024	1	-2
555.194	1	6
555.364	1	2
555.534	1	-3
555.704	1	13
555.874	1	-4
556.044	1	14
556.214	1	-3
556.384	1	-1
556.554	1	-1
556.724	1	6
556.894	1	1
557.064	1	7
557.234	1	-1
557.404	1	-1
557.573	1	-12
557.743	1	-5
557.913	1	-5
558.083	1	0
558.253	1	-10
558.423	1	0
558.593	1	7
558.763	1	-2
558.933	1	2
559.103	1	9
559.273	1	-9
559.443	1	4
559.613	1	4
559.783	1	6
559.953	1	9
560.122	1	-1
560.292	1	5
560.462	1	1
560.632	1	5
560.802	1	-1
560.972	1	9
561.142	1	8
561.312	1	2
561.482	1	6
561.652	1	-1
561.822	1	2
561.992	1	-12
562.162	1	3
562.331	1	1
562.501	1	-5
562.671	1	10
562.841	1	1
563.011	1	-1
563.181	1	3
563.351	1	-8
563.521	1	4
563.691	1	5
563.861	1	-2
564.031	1	0
564.201	1	0
564.370	1	-2
564.540	1	-5
564.710	1	5
564.880	1	-1
565.050	1	-1
565.220	1	-2
565.390	1	11
565.560	1	6
565.730	1	-3
565.900	1	-7
566.069	1	-3
566.239	1	-1
566.409	1	12
566.579	1	1
566.749	1	9
566.919	1	-4
567.089	1	7
567.259	1	-2
567.429	1	-1
567.599	1	-1
567.768	1	2
567.938	1	-6
568.108	1	8
568.278	1	1
568.448	1	4
568.618	1	1
568.788	1	-17
568.958	1	-8
569.128	1	-14
569.297	1	-12
569.467	1	-2
569.637	1	7
569.807	1	-2
569.977	1	-8
570.147	1	-6
570.317	1	3
570.487	1	4
570.656	1	8
570.826	1	-6
570.996	1	0
571.166	1	2
571.336	1	-3
571.506	1	-1
571.676	1	-13
571.846	1	-6
572.015	1	6
572.185	1	-8
572.355	1	0
572.525	1	-11
572.695	1	2
572.865	1	6
573.035	1	-4
573.205	1	-6
573.374	1	14
573.544	1	4
573.714	1	5
573.884	1	-3
574.054	1	5
574.224	1	6
574.394	1	-3
574.563	1	10
574.733	1	12
574.903	1	-1
575.073	1	-3
575.243	1	-3
575.413	1	5
575.583	1	10
575.752	1	-2
575.922	1	-2
576.092	1	0
576.262	1	-3
576.432	1	12
576.602	1	1
576.772	1	-8
576.941	1	13
577.111	1	-1
577.281	1	15
577.451	1	3
577.621	1	5
577.791	1	5
577.960	1	6
578.130	1	-2
578.300	1	5
578.470	1	1
578.640	1	-4
578.810	1	1
578.979	1	-8
579.149	1	1
579.319	1	-3
579.489	1	3
579.659	1	-1
579.829	1	6
579.998	1	2
580.168	1	1
580.338	1	-3
580.508	1	-6
580.678	1	8
580.848	1	-2
581.017	1	-1
581.187	1	9
581.357	1	1
581.527	1	-1
581.697	1	-12
581.867	1	6
582.036	1	3
582.206	1	-7
582.376	1	6
582.546	1	17
582.716	1	8
582.885	1	-3
583.055	1	0
583.225	1	1
583.395	1	-3
583.565	1	-6
583.735	1	4
583.904	1	0
584.074	1	2
584.244	1	2
584.414	1	1
584.584	1	1
584.753	1	7
584.923	1	4
585.093	1	-4
585.263	1	-12
585.433	1	12
585.602	1	-1
585.772	1	0
585.942	1	-1
586.112	1	6
586.282	1	0
586.451	1	-10
586.621	1	0
586.791	1	-1
586.961	1	-3
587.131	1	-2
587.300	1	7
587.470	1	-6
587.640	1	-4
587.810	1	-11
587.980	1	-8
588.149	1	9
588.319	1	-6
588.489	1	-5
588.659	1	8
588.829	1	-3
588.998	1	-4
589.168	1	3
589.338	1	2
589.508	1	10
589.677	1	7
589.847	1	9
590.017	1	3
590.187	1	4
590.357	1	-1
590.526	1	13
590.696	1	-2
590.866	1	0
591.036	1	-2
591.205	1	7
591.375	1	2
591.545	1	5
591.715	1	-7
591.885	1	0
592.054	1	2
592.224	1	8
592.394	1	0
592.564	1	0
592.733	1	5
592.903	1	2
593.073	1	-2
593.243	1	5
593.412	1	-11
593.582	1	1
593.752	1	1
593.922	1	3
594.091	1	-7
594.261	1	-7
594.431	1	2
594.601	1	5
594.771	1	-1
594.940	1	5
595.110	1	3
595.280	1	-2
595.450	1	-1
595.619	1	-2
595.789	1	4
595.959	1	-1
596.129	1	-1
596.298	1	-1
596.468	1	2
596.638	1	3
596.808	1	-1
596.977	1	-6
597.147	1	5
597.317	1	-2
597.487	1	3
597.656	1	7
597.826	1	-2
597.996	1	1
598.166	1	15
598.335	1	0
598.505	1	-5
598.675	1	11
598.844	1	1
599.014	1	1
599.184	1	-3
599.354	1	4
599.523	1	4
599.693	1	7
599.863	1	3
600.033	1	4
600.202	1	2
600.372	1	-2
600.542	1	8
600.712	1	2
600.881	1	10
601.051	1	1
601.221	1	7
601.390	1	13
601.560	1	5
601.730	1	-5
601.900	1	14
602.069	1	-9
602.239	1	-6
602.409	1	1
602.578	1	12
602.748	1	-5
602.918	1	8
603.088	1	12
603.257	1	1
603.427	1	12
603.597	1	3
603.767	1	0
603.936	1	15
604.106	1	-4
604.276	1	0
604.445	1	-9
604.615	1	-3
604.785	1	3
604.954	1	-2
605.124	1	9
605.294	1	9
605.464	1	-18
605.633	1	11
605.803	1	3
605.973	1	6
606.142	1	5
606.312	1	11
606.482	1	1
606.652	1	9
606.821	1	1
606.991	1	0
607.161	1	8
607.330	1	5
607.500	1	6
607.670	1	3
607.839	1	3
608.009	1	-5
608.179	1	4
608.348	1	7
608.518	1	0
608.688	1	11
608.858	1	1
609.027	1	-6
609.197	1	2
609.367	1	-4
609.536	1	10
609.706	1	3
609.876	1	-4
610.045	1	4
610.215	1	8
610.385	1	5
610.554	1	1
610.724	1	9
610.894	1	-2
611.063	1	7
611.233	1	-5
611.403	1	10
611.572	1	9
611.742	1	2
611.912	1	-4
612.081	1	10
612.251	1	3
612.421	1	3
612.590	1	-7
612.760	1	12
612.930	1	1
613.099	1	8
613.269	1	-1
613.439	1	-1
613.608	1	-6
613.778	1	-9
613.948	1	1
614.117	1	-3
614.287	1	4
614.457	1	0
614.626	1	19
614.796	1	10
614.966	1	1
615.135	1	7
615.305	1	6
615.475	1	-3
615.644	1	3
615.814	1	-6
615.984	1	7
616.153	1	5
616.323	1	0
616.493	1	4
616.662	1	-2
616.832	1	3
617.002	1	-1
617.171	1	-6
617.341	1	-3
617.511	1	1
617.680	1	-2
617.850	1	-3
618.019	1	5
618.189	1	1
618.359	1	7
618.528	1	-7
618.698	1	2
618.868	1	-6
619.037	1	5
619.207	1	8
619.377	1	4
619.546	1	-7
619.716	1	5
619.885	1	1
620.055	1	12
620.225	1	11
620.394	1	-1
620.564	1	-9
620.734	1	7
620.903	1	9
621.073	1	4
621.242	1	2
621.412	1	8
621.582	1	-10
621.751	1	7
621.921	1	7
622.091	1	-3
622.260	1	1
622.430	1	7
622.599	1	9
622.769	1	0
622.939	1	1
623.108	1	3
623.278	1	15
623.448	1	10
623.617	1	-1
623.787	1	11
623.956	1	9
624.126	1	-3
624.296	1	9
624.465	1	7
624.635	1	14
624.804	1	-2
624.974	1	3
625.144	1	7
625.313	1	3
625.483	1	6
625.652	1	4
625.822	1	2
625.992	1	10
626.161	1	-6
626.331	1	4
626.501	1	3
626.670	1	5
626.840	1	3
627.009	1	3
627.179	1	-7
627.348	1	5
627.518	1	8
627.688	1	1
627.857	1	5
628.027	1	0
628.196	1	-2
628.366	1	-6
628.536	1	-1
628.705	1	-2
628.875	1	10
629.044	1	3
629.214	1	2
629.384	1	8
629.553	1	1
629.723	1	-6
629.892	1	-3
630.062	1	-4
630.232	1	2
630.401	1	-1
630.571	1	15
630.740	1	-4
630.910	1	6
631.079	1	-9
631.249	1	10
631.419	1	6
631.588	1	8
631.758	1	2
631.927	1	2
632.097	1	4
632.266	1	-4
632.436	1	2
632.606	1	-4
632.775	1	9
632.945	1	-6
633.114	1	1
633.284	1	3
633.453	1	13
633.623	1	14
633.793	1	-2
633.962	1	-5
634.132	1	3
634.301	1	-6
634.471	1	-10
634.640	1	2
634.810	1	-5
634.979	1	-1
635.149	1	-2
635.319	1	10
635.488	1	1
635.658	1	5
635.827	1	0
635.997	1	6
636.166	1	5
636.336	1	4
636.505	1	2
636.675	1	-3
636.845	1	4
637.014	1	7
637.184	1	13
637.353	1	-6
637.523	1	-4
637.692	1	9
637.862	1	-3
638.031	1	-3
638.201	1	-7
638.370	1	1
638.540	1	14
638.710	1	1
638.879	1	11
639.049	1	-6
639.218	1	12
639.388	1	3
639.557	1	12
639.727	1	2
639.896	1	0
640.066	1	1
640.235	1	-2
640.405	1	3
640.574	1	7
640.744	1	-6
640.914	1	8
641.083	1	2
641.253	1	1
641.422	1	-2
641.592	1	4
641.761	1	3
641.931	1	3
642.100	1	9
642.270	1	-5
642.439	1	0
642.609	1	8
642.778	1	-9
642.948	1	6
643.117	1	6
643.287	1	-3
643.456	1	0
643.626	1	0
643.795	1	8
643.965	1	7
644.134	1	3
644.304	1	8
644.473	1	-4
644.643	1	-5
644.812	1	-1
644.982	1	0
645.151	1	6
645.321	1	5
645.490	1	15
645.660	1	-6
645.829	1	-8
645.999	1	6
646.168	1	13
646.338	1	-4
646.507	1	-1
646.677	1	0
646.846	1	4
647.016	1	3
647.185	1	8
647.355	1	5
647.524	1	-6
647.694	1	-4
647.863	1	3
648.033	1	0
648.202	1	4
648.372	1	2
648.541	1	7
648.711	1	4
648.880	1	3
649.050	1	12
649.219	1	4
649.389	1	-7
649.558	1	6
649.728	1	4
649.897	1	-3
650.067	1	4
650.236	1	1
650.406	1	6
650.575	1	-3
650.745	1	6
650.914	1	8
651.084	1	1
651.253	1	-3
651.423	1	-5
651.592	1	-6
651.762	1	2
651.931	1	1
652.101	1	8
652.270	1	-6
652.440	1	8
652.609	1	9
652.778	1	1
652.948	1	4
653.117	1	6
653.287	1	-2
653.456	1	6
653.626	1	5
653.795	1	6
653.965	1	-4
654.134	1	-10
654.304	1	-2
654.473	1	-4
654.643	1	2
654.812	1	1
654.982	1	2
655.151	1	12
655.320	1	15
655.490	1	-1
655.659	1	-3
655.829	1	-7
655.998	1	2
656.168	1	-5
656.337	1	-5
656.507	1	-3
656.676	1	0
656.846	1	4
657.015	1	4
657.184	1	0
657.354	1	3
657.523	1	-1
657.693	1	-6
657.862	1	-15
658.032	1	8
658.201	1	2
658.371	1	-7
658.540	1	-2
658.709	1	0
658.879	1	9
659.048	1	9
659.218	1	-2
659.387	1	3
659.557	1	0
659.726	1	6
659.895	1	0
660.065	1	4
660.234	1	-2
660.404	1	1
660.573	1	3
660.743	1	4
660.912	1	-7
661.081	1	-12
661.251	1	3
661.420	1	1
661.590	1	4
661.759	1	-9
661.929	1	0
662.098	1	-1
662.267	1	12
662.437	1	-2
662.606	1	5
662.776	1	0
662.945	1	-1
663.115	1	-1
663.284	1	1
663.453	1	16
663.623	1	8
663.792	1	4
663.962	1	-3
664.131	1	3
664.300	1	-7
664.470	1	1
664.639	1	-1
664.809	1	3
664.978	1	0
665.148	1	-3
665.317	1	-1
665.486	1	3
665.656	1	3
665.825	1	10
665.995	1	3
666.164	1	7
666.333	1	4
666.503	1	8
666.672	1	6
666.842	1	-5
667.011	1	-5
667.180	1	-1
667.350	1	1
667.519	1	8
667.689	1	-5
667.858	1	8
668.027	1	6
668.197	1	10
668.366	1	2
668.536	1	0
668.705	1	6
668.874	1	-8
669.044	1	2
669.213	1	8
669.382	1	10
669.552	1	5
669.721	1	0
669.891	1	-3
670.060	1	8
670.229	1	-2
670.399	1	7
670.568	1	-6
670.738	1	-4
670.907	1	3
671.076	1	5
671.246	1	-4
671.415	1	7
671.584	1	9
671.754	1	1
671.923	1	8
672.093	1	-1
672.262	1	-2
672.431	1	8
672.601	1	6
672.770	1	5
672.939	1	-3
673.109	1	4
673.278	1	-2
673.448	1	4
673.617	1	1
673.786	1	11
