325.333	1	-2
325.504	1	14
325.675	1	4
325.846	1	8
326.017	1	1
326.188	1	15
326.359	1	16
326.531	1	21
326.702	1	15
326.873	1	5
327.044	1	18
327.215	1	-3
327.386	1	19
327.557	1	11
327.728	1	9
327.899	1	4
328.070	1	17
328.241	1	17
328.412	1	9
328.583	1	12
328.754	1	4
328.926	1	14
329.097	1	6
329.268	1	7
329.439	1	10
329.610	1	6
329.781	1	17
329.952	1	12
330.123	1	18
330.294	1	12
330.465	1	19
330.636	1	21
330.807	1	10
330.978	1	9
331.149	1	11
331.320	1	21
331.492	1	18
331.663	1	15
331.834	1	11
332.005	1	18
332.176	1	15
332.347	1	15
332.518	1	19
332.689	1	14
332.860	1	8
333.031	1	10
333.202	1	15
333.373	1	17
333.544	1	14
333.715	1	23
333.886	1	17
334.057	1	22
334.228	1	15
334.399	1	15
334.570	1	0
334.741	1	11
334.912	1	17
335.084	1	9
335.255	1	22
335.426	1	15
335.597	1	23
335.768	1	14
335.939	1	11
336.110	1	25
336.281	1	18
336.452	1	12
336.623	1	4
336.794	1	4
336.965	1	8
337.136	1	20
337.307	1	18
337.478	1	16
337.649	1	6
337.820	1	12
337.991	1	18
338.162	1	18
338.333	1	15
338.504	1	23
338.675	1	26
338.846	1	13
339.017	1	28
339.188	1	23
339.359	1	19
339.530	1	15
339.701	1	12
339.872	1	24
340.043	1	19
340.214	1	13
340.385	1	20
340.556	1	10
340.727	1	23
340.898	1	30
341.069	1	10
341.240	1	17
341.411	1	27
341.582	1	23
341.753	1	15
341.924	1	21
342.095	1	19
342.266	1	5
342.437	1	13
342.608	1	18
342.779	1	16
342.950	1	18
343.121	1	16
343.292	1	21
343.463	1	27
343.634	1	21
343.805	1	19
343.976	1	13
344.147	1	21
344.318	1	32
344.489	1	30
344.660	1	32
344.831	1	24
345.002	1	18
345.173	1	28
345.344	1	16
345.515	1	18
345.686	1	12
345.857	1	24
346.028	1	13
346.199	1	27
346.370	1	17
346.541	1	20
346.712	1	17
346.883	1	32
347.054	1	14
347.225	1	12
347.396	1	19
347.567	1	33
347.738	1	17
347.909	1	26
348.080	1	41
348.251	1	23
348.422	1	18
348.593	1	29
348.764	1	15
348.935	1	20
349.106	1	33
349.277	1	23
349.448	1	14
349.619	1	25
349.790	1	30
349.961	1	32
350.132	1	37
350.303	1	27
350.474	1	24
350.645	1	34
350.816	1	9
350.987	1	35
351.157	1	26
351.328	1	13
351.499	1	26
351.670	1	21
351.841	1	30
352.012	1	23
352.183	1	25
352.354	1	31
352.525	1	30
352.696	1	29
352.867	1	32
353.038	1	16
353.209	1	22
353.380	1	29
353.551	1	7
353.722	1	29
353.893	1	38
354.064	1	38
354.235	1	30
354.406	1	40
354.576	1	32
354.747	1	24
354.918	1	41
355.089	1	41
355.260	1	35
355.431	1	35
355.602	1	36
355.773	1	32
355.944	1	36
356.115	1	26
356.286	1	34
356.457	1	35
356.628	1	31
356.799	1	27
356.970	1	36
357.141	1	32
357.311	1	15
357.482	1	26
357.653	1	34
357.824	1	32
357.995	1	34
358.166	1	27
358.337	1	32
358.508	1	23
358.679	1	28
358.850	1	32
359.021	1	36
359.192	1	26
359.363	1	27
359.533	1	32
359.704	1	34
359.875	1	26
360.046	1	31
360.217	1	23
360.388	1	25
360.559	1	30
360.730	1	43
360.901	1	30
361.072	1	36
361.243	1	34
361.414	1	38
361.584	1	50
361.755	1	34
361.926	1	34
362.097	1	32
362.268	1	42
362.439	1	33
362.610	1	33
362.781	1	32
362.952	1	39
363.123	1	32
363.293	1	33
363.464	1	36
363.635	1	36
363.806	1	31
363.977	1	42
364.148	1	42
364.319	1	19
364.490	1	35
364.661	1	41
364.832	1	38
365.002	1	33
365.173	1	16
365.344	1	33
365.515	1	29
365.686	1	34
365.857	1	38
366.028	1	27
366.199	1	39
366.370	1	37
366.540	1	33
366.711	1	39
366.882	1	35
367.053	1	38
367.224	1	26
367.395	1	32
367.566	1	42
367.737	1	35
367.908	1	26
368.078	1	39
368.249	1	30
368.420	1	38
368.591	1	32
368.762	1	31
368.933	1	49
369.104	1	34
369.274	1	43
369.445	1	40
369.616	1	28
369.787	1	33
369.958	1	49
370.129	1	34
370.300	1	36
370.471	1	34
370.641	1	26
370.812	1	41
370.983	1	32
371.154	1	49
371.325	1	37
371.496	1	31
371.667	1	38
371.837	1	41
372.008	1	47
372.179	1	44
372.350	1	46
372.521	1	40
372.692	1	33
372.863	1	38
373.033	1	42
373.204	1	45
373.375	1	40
373.546	1	44
373.717	1	46
373.888	1	33
374.059	1	33
374.229	1	41
374.400	1	39
374.571	1	51
374.742	1	34
374.913	1	47
375.084	1	50
375.254	1	50
375.425	1	33
375.596	1	39
375.767	1	35
375.938	1	31
376.109	1	35
376.279	1	36
376.450	1	42
376.621	1	42
376.792	1	39
376.963	1	37
377.134	1	34
377.304	1	40
377.475	1	43
377.646	1	34
377.817	1	35
377.988	1	49
378.159	1	43
378.329	1	49
378.500	1	30
378.671	1	34
378.842	1	41
379.013	1	38
379.184	1	51
379.354	1	51
379.525	1	43
379.696	1	58
379.867	1	38
380.038	1	38
380.209	1	29
380.379	1	56
380.550	1	47
380.721	1	50
380.892	1	56
381.063	1	40
381.233	1	53
381.404	1	43
381.575	1	46
381.746	1	53
381.917	1	37
382.087	1	43
382.258	1	50
382.429	1	53
382.600	1	53
382.771	1	44
382.941	1	36
383.112	1	40
383.283	1	48
383.454	1	57
383.625	1	48
383.795	1	39
383.966	1	47
384.137	1	33
384.308	1	43
384.479	1	53
384.649	1	53
384.820	1	46
384.991	1	34
385.162	1	37
385.333	1	41
385.503	1	52
385.674	1	52
385.845	1	41
386.016	1	51
386.187	1	37
386.357	1	45
386.528	1	39
386.699	1	41
386.870	1	51
387.041	1	45
387.211	1	38
387.382	1	39
387.553	1	45
387.724	1	49
387.894	1	57
388.065	1	63
388.236	1	49
388.407	1	51
388.578	1	58
388.748	1	51
388.919	1	54
389.090	1	47
389.261	1	57
389.431	1	62
389.602	1	48
389.773	1	51
389.944	1	52
390.114	1	66
390.285	1	60
390.456	1	58
390.627	1	57
390.798	1	56
390.968	1	47
391.139	1	47
391.310	1	58
391.481	1	50
391.651	1	51
391.822	1	55
391.993	1	47
392.164	1	44
392.334	1	46
392.505	1	50
392.676	1	50
392.847	1	60
393.017	1	53
393.188	1	48
393.359	1	49
393.530	1	50
393.700	1	57
393.871	1	47
394.042	1	58
394.213	1	51
394.383	1	52
394.554	1	53
394.725	1	54
394.896	1	50
395.066	1	57
395.237	1	41
395.408	1	52
395.579	1	48
395.749	1	59
395.920	1	46
396.091	1	58
396.262	1	42
396.432	1	51
396.603	1	44
396.774	1	65
396.945	1	41
397.115	1	55
397.286	1	62
397.457	1	51
397.627	1	45
397.798	1	52
397.969	1	57
398.140	1	58
398.310	1	62
398.481	1	57
398.652	1	54
398.823	1	50
398.993	1	67
399.164	1	56
399.335	1	57
399.505	1	69
399.676	1	54
399.847	1	71
400.018	1	58
400.188	1	57
400.359	1	61
400.530	1	52
400.700	1	53
400.871	1	62
401.042	1	51
401.213	1	47
401.383	1	71
401.554	1	60
401.725	1	52
401.895	1	60
402.066	1	66
402.237	1	68
402.408	1	77
402.578	1	60
402.749	1	58
402.920	1	66
403.090	1	54
403.261	1	68
403.432	1	49
403.603	1	37
403.773	1	62
403.944	1	60
404.115	1	57
404.285	1	66
404.456	1	58
404.627	1	62
404.797	1	58
404.968	1	56
405.139	1	65
405.310	1	50
405.480	1	59
405.651	1	60
405.822	1	67
405.992	1	55
406.163	1	69
406.334	1	68
406.504	1	47
406.675	1	53
406.846	1	62
407.016	1	43
407.187	1	60
407.358	1	59
407.528	1	64
407.699	1	47
407.870	1	67
408.041	1	52
408.211	1	62
408.382	1	61
408.553	1	48
408.723	1	54
408.894	1	59
409.065	1	66
409.235	1	55
409.406	1	60
409.577	1	59
409.747	1	72
409.918	1	55
410.089	1	52
410.259	1	56
410.430	1	67
410.601	1	58
410.771	1	58
410.942	1	54
411.113	1	54
411.283	1	56
411.454	1	59
411.625	1	61
411.795	1	57
411.966	1	56
412.137	1	64
412.307	1	56
412.478	1	69
412.649	1	61
412.819	1	53
412.990	1	64
413.161	1	52
413.331	1	59
413.502	1	59
413.672	1	63
413.843	1	56
414.014	1	70
414.184	1	57
414.355	1	68
414.526	1	54
414.696	1	56
414.867	1	72
415.038	1	47
415.208	1	53
415.379	1	59
415.550	1	59
415.720	1	52
415.891	1	64
416.062	1	58
416.232	1	64
416.403	1	62
416.573	1	63
416.744	1	54
416.915	1	68
417.085	1	59
417.256	1	57
417.427	1	58
417.597	1	54
417.768	1	60
417.939	1	59
418.109	1	41
418.280	1	56
418.450	1	66
418.621	1	65
418.792	1	44
418.962	1	53
419.133	1	65
419.304	1	48
419.474	1	52
419.645	1	51
419.815	1	55
419.986	1	51
420.157	1	61
420.327	1	54
420.498	1	53
420.669	1	60
420.839	1	56
421.010	1	58
421.180	1	47
421.351	1	68
421.522	1	66
421.692	1	60
421.863	1	48
422.033	1	61
422.204	1	53
422.375	1	65
422.545	1	61
422.716	1	56
422.886	1	67
423.057	1	60
423.228	1	57
423.398	1	52
423.569	1	61
423.740	1	50
423.910	1	77
424.081	1	65
424.251	1	55
424.422	1	59
424.593	1	62
424.763	1	53
424.934	1	60
425.104	1	60
425.275	1	68
425.445	1	70
425.616	1	61
425.787	1	56
425.957	1	55
426.128	1	61
426.298	1	61
426.469	1	44
426.640	1	64
426.810	1	68
426.981	1	68
427.151	1	55
427.322	1	49
427.493	1	58
427.663	1	57
427.834	1	55
428.004	1	60
428.175	1	62
428.345	1	63
428.516	1	59
428.687	1	55
428.857	1	63
429.028	1	51
429.198	1	59
429.369	1	50
429.540	1	50
429.710	1	59
429.881	1	47
430.051	1	58
430.222	1	57
430.392	1	55
430.563	1	50
430.734	1	62
430.904	1	54
431.075	1	44
431.245	1	55
431.416	1	46
431.586	1	63
431.757	1	63
431.927	1	39
432.098	1	68
432.269	1	58
432.439	1	58
432.610	1	59
432.780	1	53
432.951	1	52
433.121	1	62
433.292	1	62
433.462	1	57
433.633	1	63
433.804	1	40
433.974	1	57
434.145	1	56
434.315	1	66
434.486	1	47
434.656	1	54
434.827	1	58
434.997	1	62
435.168	1	62
435.339	1	59
435.509	1	47
435.680	1	54
435.850	1	48
436.021	1	62
436.191	1	59
436.362	1	61
436.532	1	58
436.703	1	66
436.873	1	48
437.044	1	55
437.214	1	62
437.385	1	66
437.556	1	64
437.726	1	52
437.897	1	53
438.067	1	53
438.238	1	61
438.408	1	56
438.579	1	58
438.749	1	36
438.920	1	59
439.090	1	53
439.261	1	55
439.431	1	60
439.602	1	58
439.772	1	60
439.943	1	52
440.113	1	50
440.284	1	60
440.455	1	68
440.625	1	50
440.796	1	47
440.966	1	48
441.137	1	45
441.307	1	52
441.478	1	61
441.648	1	55
441.819	1	52
441.989	1	49
442.160	1	55
442.330	1	62
442.501	1	39
442.671	1	51
442.842	1	59
443.012	1	40
443.183	1	45
443.353	1	64
443.524	1	46
443.694	1	54
443.865	1	44
444.035	1	46
444.206	1	42
444.376	1	62
444.547	1	47
444.717	1	65
444.888	1	49
445.058	1	60
445.229	1	45
445.399	1	49
445.570	1	49
445.740	1	53
445.911	1	57
446.081	1	55
446.252	1	35
446.422	1	58
446.593	1	54
446.763	1	54
446.934	1	55
447.104	1	48
447.275	1	62
447.445	1	51
447.616	1	49
447.786	1	44
447.957	1	56
448.127	1	64
448.298	1	48
448.468	1	51
448.639	1	54
448.809	1	54
448.979	1	56
449.150	1	51
449.320	1	63
449.491	1	53
449.661	1	54
449.832	1	56
450.002	1	54
450.173	1	51
450.343	1	59
450.514	1	49
450.684	1	49
450.855	1	55
451.025	1	49
451.196	1	52
451.366	1	50
451.537	1	54
451.707	1	63
451.878	1	58
452.048	1	51
452.218	1	48
452.389	1	56
452.559	1	57
452.730	1	49
452.900	1	54
453.071	1	47
453.241	1	63
453.412	1	50
453.582	1	48
453.753	1	58
453.923	1	62
454.093	1	55
454.264	1	53
454.434	1	44
454.605	1	53
454.775	1	50
454.946	1	54
455.116	1	53
455.287	1	48
455.457	1	44
455.628	1	56
455.798	1	47
455.968	1	49
456.139	1	51
456.309	1	60
456.480	1	52
456.650	1	63
456.821	1	58
456.991	1	50
457.161	1	50
457.332	1	43
457.502	1	58
457.673	1	42
457.843	1	36
458.014	1	49
458.184	1	47
458.355	1	53
458.525	1	47
458.695	1	44
458.866	1	62
459.036	1	43
459.207	1	43
459.377	1	46
459.548	1	33
459.718	1	48
459.888	1	53
460.059	1	51
460.229	1	57
460.400	1	39
460.570	1	46
460.740	1	43
460.911	1	41
461.081	1	46
461.252	1	32
461.422	1	47
461.593	1	46
461.763	1	53
461.933	1	51
462.104	1	49
462.274	1	46
462.445	1	42
462.615	1	51
462.785	1	54
462.956	1	57
463.126	1	43
463.297	1	55
463.467	1	45
463.638	1	32
463.808	1	52
463.978	1	46
464.149	1	40
464.319	1	51
464.490	1	50
464.660	1	43
464.830	1	53
465.001	1	55
465.171	1	45
465.342	1	37
465.512	1	43
465.682	1	43
465.853	1	39
466.023	1	39
466.194	1	48
466.364	1	45
466.534	1	43
466.705	1	38
466.875	1	49
467.045	1	50
467.216	1	48
467.386	1	59
467.557	1	42
467.727	1	45
467.897	1	38
468.068	1	27
468.238	1	48
468.409	1	28
468.579	1	48
468.749	1	40
468.920	1	50
469.090	1	57
469.260	1	48
469.431	1	52
469.601	1	39
469.772	1	30
469.942	1	38
470.112	1	46
470.283	1	47
470.453	1	42
470.623	1	53
470.794	1	41
470.964	1	43
471.135	1	45
471.305	1	44
471.475	1	36
471.646	1	38
471.816	1	37
471.986	1	54
472.157	1	51
472.327	1	42
472.497	1	45
472.668	1	38
472.838	1	43
473.009	1	41
473.179	1	35
473.349	1	37
473.520	1	41
473.690	1	49
473.860	1	44
474.031	1	43
474.201	1	40
474.371	1	46
474.542	1	41
474.712	1	40
474.882	1	38
475.053	1	53
475.223	1	23
475.394	1	40
475.564	1	40
475.734	1	44
475.905	1	32
476.075	1	36
476.245	1	44
476.416	1	40
476.586	1	34
476.756	1	36
476.927	1	38
477.097	1	45
477.267	1	40
477.438	1	38
477.608	1	28
477.778	1	33
477.949	1	40
478.119	1	43
478.289	1	32
478.460	1	27
478.630	1	57
478.800	1	44
478.971	1	48
479.141	1	34
479.311	1	30
479.482	1	44
479.652	1	38
479.822	1	28
479.993	1	39
480.163	1	39
480.333	1	33
480.504	1	44
480.674	1	38
480.844	1	39
481.015	1	35
481.185	1	35
481.355	1	39
481.525	1	48
481.696	1	38
481.866	1	48
482.036	1	44
482.207	1	42
482.377	1	37
482.547	1	28
482.718	1	30
482.888	1	42
483.058	1	43
483.229	1	34
483.399	1	40
483.569	1	41
483.740	1	29
483.910	1	35
484.080	1	22
484.250	1	23
484.421	1	33
484.591	1	29
484.761	1	45
484.932	1	36
485.102	1	43
485.272	1	32
485.443	1	36
485.613	1	52
485.783	1	44
485.953	1	37
486.124	1	38
486.294	1	38
486.464	1	30
486.635	1	49
486.805	1	34
486.975	1	37
487.146	1	28
487.316	1	42
487.486	1	36
487.656	1	33
487.827	1	34
487.997	1	28
488.167	1	31
488.338	1	24
488.508	1	37
488.678	1	28
488.848	1	29
489.019	1	29
489.189	1	17
489.359	1	49
489.529	1	33
489.700	1	25
489.870	1	22
490.040	1	24
490.211	1	24
490.381	1	39
490.551	1	24
490.721	1	29
490.892	1	40
491.062	1	18
491.232	1	19
491.402	1	43
491.573	1	20
491.743	1	23
491.913	1	22
492.084	1	30
492.254	1	24
492.424	1	31
492.594	1	44
492.765	1	30
492.935	1	26
493.105	1	44
493.275	1	34
493.446	1	20
493.616	1	36
493.786	1	27
493.956	1	28
494.127	1	45
494.297	1	12
494.467	1	36
494.637	1	29
494.808	1	27
494.978	1	34
495.148	1	17
495.318	1	34
495.489	1	22
495.659	1	21
495.829	1	24
495.999	1	27
496.170	1	18
496.340	1	36
496.510	1	26
496.680	1	27
496.851	1	36
497.021	1	18
497.191	1	17
497.361	1	19
497.532	1	24
497.702	1	31
497.872	1	39
498.042	1	30
498.213	1	33
498.383	1	29
498.553	1	18
498.723	1	24
498.894	1	26
499.064	1	17
499.234	1	21
499.404	1	20
499.574	1	23
499.745	1	21
499.915	1	22
500.085	1	20
500.255	1	30
500.426	1	35
500.596	1	29
500.766	1	34
500.936	1	32
501.106	1	26
501.277	1	31
501.447	1	31
501.617	1	13
501.787	1	24
501.958	1	28
502.128	1	16
502.298	1	18
502.468	1	38
502.638	1	22
502.809	1	27
502.979	1	36
503.149	1	13
503.319	1	28
503.489	1	17
503.660	1	10
503.830	1	16
504.000	1	25
504.170	1	20
504.340	1	26
504.511	1	27
504.681	1	21
504.851	1	33
505.021	1	35
505.192	1	17
505.362	1	29
505.532	1	25
505.702	1	21
505.872	1	27
506.043	1	29
506.213	1	25
506.383	1	20
506.553	1	22
506.723	1	21
506.893	1	20
507.064	1	16
507.234	1	21
507.404	1	27
507.574	1	21
507.744	1	23
507.915	1	29
508.085	1	30
508.255	1	20
508.425	1	20
508.595	1	18
508.766	1	20
508.936	1	20
509.106	1	25
509.276	1	22
509.446	1	19
509.616	1	20
509.787	1	24
509.957	1	23
510.127	1	23
510.297	1	21
510.467	1	5
510.638	1	20
510.808	1	9
510.978	1	12
511.148	1	34
511.318	1	21
511.488	1	32
511.659	1	9
511.829	1	16
511.999	1	26
512.169	1	8
512.339	1	19
512.509	1	26
512.680	1	25
512.850	1	16
513.020	1	20
513.190	1	17
513.360	1	23
513.530	1	21
513.700	1	19
513.871	1	21
514.041	1	12
514.211	1	23
514.381	1	34
514.551	1	24
514.721	1	19
514.892	1	7
515.062	1	24
515.232	1	20
515.402	1	19
515.572	1	6
515.742	1	19
515.912	1	24
516.083	1	13
516.253	1	33
516.423	1	25
516.593	1	23
516.763	1	14
516.933	1	3
517.104	1	10
517.274	1	17
517.444	1	25
517.614	1	16
517.784	1	28
517.954	1	19
518.124	1	19
518.294	1	25
518.465	1	16
518.635	1	15
518.805	1	32
518.975	1	21
519.145	1	26
519.315	1	16
519.485	1	9
519.656	1	29
519.826	1	21
519.996	1	11
520.166	1	25
520.336	1	20
520.506	1	3
520.676	1	16
520.846	1	19
521.017	1	19
521.187	1	24
521.357	1	12
521.527	1	12
521.697	1	21
521.867	1	12
522.037	1	7
522.207	1	17
522.377	1	17
522.548	1	23
522.718	1	13
522.888	1	16
523.058	1	22
523.228	1	20
523.398	1	13
523.568	1	12
523.738	1	23
523.909	1	15
524.079	1	13
524.249	1	13
524.419	1	13
524.589	1	14
524.759	1	20
524.929	1	11
525.099	1	13
525.269	1	24
525.439	1	13
525.610	1	26
525.780	1	16
525.950	1	22
526.120	1	14
526.290	1	8
526.460	1	10
526.630	1	23
526.800	1	12
526.970	1	17
527.140	1	15
527.311	1	10
527.481	1	20
527.651	1	12
527.821	1	7
527.991	1	16
528.161	1	13
528.331	1	17
528.501	1	22
528.671	1	11
528.841	1	19
529.011	1	6
529.181	1	13
529.352	1	7
529.522	1	8
529.692	1	15
529.862	1	14
530.032	1	9
530.202	1	11
530.372	1	14
530.542	1	6
530.712	1	0
530.882	1	22
531.052	1	25
531.222	1	5
531.392	1	24
531.563	1	8
531.733	1	20
531.903	1	13
532.073	1	10
532.243	1	13
532.413	1	21
532.583	1	8
532.753	1	9
532.923	1	25
533.093	1	21
533.263	1	5
533.433	1	24
533.603	1	18
533.773	1	8
533.943	1	9
534.113	1	19
534.284	1	4
534.454	1	6
534.624	1	18
534.794	1	3
534.964	1	15
535.134	1	17
535.304	1	18
535.474	1	6
535.644	1	17
535.814	1	14
535.984	1	16
536.154	1	12
536.324	1	20
536.494	1	16
536.664	1	11
536.834	1	13
537.004	1	14
537.174	1	19
537.344	1	16
537.514	1	8
537.685	1	13
537.855	1	17
538.025	1	13
538.195	1	10
538.365	1	11
538.535	1	6
538.705	1	21
538.875	1	12
539.045	1	13
539.215	1	1
539.385	1	8
539.555	1	15
539.725	1	10
539.895	1	24
540.065	1	5
540.235	1	5
540.405	1	13
540.575	1	15
540.745	1	9
540.915	1	13
541.085	1	9
541.255	1	3
541.425	1	10
541.595	1	28
541.765	1	20
541.935	1	7
542.105	1	20
542.275	1	19
542.445	1	10
542.615	1	10
542.785	1	2
542.955	1	6
543.125	1	3
543.295	1	7
543.465	1	14
543.635	1	19
543.805	1	15
543.975	1	6
544.145	1	11
544.315	1	3
544.485	1	8
544.655	1	21
544.825	1	13
544.995	1	17
545.165	1	21
545.335	1	11
545.505	1	20
545.675	1	-11
545.845	1	20
546.015	1	10
546.185	1	18
546.355	1	19
546.525	1	11
546.695	1	15
546.865	1	20
547.035	1	12
547.205	1	10
547.375	1	16
547.545	1	26
547.715	1	20
547.885	1	16
548.055	1	4
548.225	1	13
548.395	1	6
548.565	1	13
548.735	1	4
548.905	1	1
549.075	1	15
549.245	1	16
549.415	1	14
549.585	1	19
549.755	1	17
549.925	1	17
550.095	1	8
550.265	1	19
550.435	1	4
550.605	1	6
550.775	1	0
550.945	1	22
551.115	1	11
551.285	1	14
551.455	1	11
551.625	1	-3
551.795	1	10
551.965	1	15
552.135	1	9
552.305	1	7
552.475	1	5
552.645	1	14
552.815	1	14
552.985	1	12
553.155	1	7
553.325	1	19
553.495	1	17
553.665	1	16
553.835	1	1
554.004	1	3
554.174	1	8
554.344	1	16
554.514	1	16
554.684	1	9
554.854	1	15
555.024	1	6
555.194	1	11
555.364	1	11
555.534	1	8
555.704	1	19
555.874	1	3
556.044	1	8
556.214	1	11
556.384	1	12
556.554	1	15
556.724	1	13
556.894	1	4
557.064	1	14
557.234	1	8
557.404	1	13
557.573	1	7
557.743	1	15
557.913	1	1
558.083	1	22
558.253	1	12
558.423	1	3
558.593	1	18
558.763	1	12
558.933	1	14
559.103	1	14
559.273	1	11
559.443	1	18
559.613	1	16
559.783	1	10
559.953	1	21
560.122	1	0
560.292	1	13
560.462	1	3
560.632	1	19
560.802	1	2
560.972	1	14
561.142	1	15
561.312	1	14
561.482	1	22
561.652	1	18
561.822	1	1
561.992	1	1
562.162	1	18
562.331	1	20
562.501	1	-2
562.671	1	11
562.841	1	11
563.011	1	-2
563.181	1	13
563.351	1	2
563.521	1	14
563.691	1	20
563.861	1	10
564.031	1	1
564.201	1	8
564.370	1	2
564.540	1	4
564.710	1	19
564.880	1	5
565.050	1	10
565.220	1	5
565.390	1	18
565.560	1	10
565.730	1	7
565.900	1	7
566.069	1	10
566.239	1	19
566.409	1	11
566.579	1	9
566.749	1	7
566.919	1	7
567.089	1	15
567.259	1	9
567.429	1	11
567.599	1	3
567.768	1	14
567.938	1	-5
568.108	1	17
568.278	1	4
568.448	1	19
568.618	1	14
568.788	1	-10
568.958	1	4
569.128	1	4
569.297	1	11
569.467	1	7
569.637	1	2
569.807	1	13
569.977	1	16
570.147	1	0
570.317	1	12
570.487	1	15
570.656	1	2
570.826	1	2
570.996	1	13
571.166	1	0
571.336	1	1
571.506	1	2
571.676	1	10
571.846	1	-7
572.015	1	11
572.185	1	13
572.355	1	19
572.525	1	16
572.695	1	2
572.865	1	21
573.035	1	0
573.205	1	2
573.374	1	8
573.544	1	8
573.714	1	10
573.884	1	17
574.054	1	4
574.224	1	11
574.394	1	2
574.563	1	11
574.733	1	11
574.903	1	6
575.073	1	2
575.243	1	18
575.413	1	12
575.583	1	5
575.752	1	8
575.922	1	7
576.092	1	5
576.262	1	15
576.432	1	18
576.602	1	2
576.772	1	-7
576.941	1	19
577.111	1	11
577.281	1	17
577.451	1	-3
577.621	1	21
577.791	1	13
577.960	1	6
578.130	1	12
578.300	1	10
578.470	1	7
578.640	1	11
578.810	1	8
578.979	1	-3
579.149	1	1
579.319	1	16
579.489	1	13
579.659	1	10
579.829	1	13
579.998	1	2
580.168	1	8
580.338	1	8
580.508	1	8
580.678	1	6
580.848	1	8
581.017	1	12
581.187	1	15
581.357	1	4
581.527	1	6
581.697	1	-5
581.867	1	13
582.036	1	8
582.206	1	7
582.376	1	9
582.546	1	22
582.716	1	0
582.885	1	10
583.055	1	7
583.225	1	4
583.395	1	5
583.565	1	1
583.735	1	4
583.904	1	7
584.074	1	4
584.244	1	7
584.414	1	2
584.584	1	15
584.753	1	9
584.923	1	19
585.093	1	2
585.263	1	6
585.433	1	24
585.602	1	8
585.772	1	4
585.942	1	13
586.112	1	8
586.282	1	10
586.451	1	-1
586.621	1	9
586.791	1	6
586.961	1	12
587.131	1	16
587.300	1	15
587.470	1	10
587.640	1	-1
587.810	1	2
587.980	1	-6
588.149	1	9
588.319	1	7
588.489	1	3
588.659	1	18
588.829	1	-5
588.998	1	8
589.168	1	15
589.338	1	9
589.508	1	15
589.677	1	2
589.847	1	15
590.017	1	11
590.187	1	8
590.357	1	11
590.526	1	16
590.696	1	1
590.866	1	6
591.036	1	11
591.205	1	12
591.375	1	1
591.545	1	4
591.715	1	6
591.885	1	14
592.054	1	16
592.224	1	12
592.394	1	-4
592.564	1	12
592.733	1	4
592.903	1	4
593.073	1	2
593.243	1	13
593.412	1	9
593.582	1	5
593.752	1	6
593.922	1	15
594.091	1	4
594.261	1	0
594.431	1	5
594.601	1	9
594.771	1	6
594.940	1	8
595.110	1	4
595.280	1	18
595.450	1	11
595.619	1	14
595.789	1	11
595.959	1	9
596.129	1	0
596.298	1	21
596.468	1	11
596.638	1	6
596.808	1	-4
596.977	1	3
597.147	1	13
597.317	1	13
597.487	1	11
597.656	1	9
597.826	1	7
597.996	1	12
598.166	1	19
598.335	1	1
598.505	1	-1
598.675	1	5
598.844	1	17
599.014	1	14
599.184	1	-7
599.354	1	4
599.523	1	13
599.693	1	15
599.863	1	13
600.033	1	5
600.202	1	18
600.372	1	9
600.542	1	12
600.712	1	9
600.881	1	13
601.051	1	8
601.221	1	24
601.390	1	14
601.560	1	2
601.730	1	2
601.900	1	17
602.069	1	-10
602.239	1	14
602.409	1	10
602.578	1	22
602.748	1	5
602.918	1	11
603.088	1	17
603.257	1	8
603.427	1	14
603.597	1	3
603.767	1	7
603.936	1	14
604.106	1	13
604.276	1	17
604.445	1	5
604.615	1	6
604.785	1	18
604.954	1	12
605.124	1	11
605.294	1	9
605.464	1	3
605.633	1	16
605.803	1	12
605.973	1	15
606.142	1	12
606.312	1	14
606.482	1	3
606.652	1	18
606.821	1	3
606.991	1	1
607.161	1	19
607.330	1	12
607.500	1	14
607.670	1	12
607.839	1	8
608.009	1	8
608.179	1	7
608.348	1	7
608.518	1	5
608.688	1	14
608.858	1	3
609.027	1	9
609.197	1	13
609.367	1	-3
609.536	1	19
609.706	1	5
609.876	1	10
610.045	1	1
610.215	1	19
610.385	1	1
610.554	1	11
610.724	1	8
610.894	1	14
611.063	1	8
611.233	1	11
611.403	1	2
611.572	1	12
611.742	1	10
611.912	1	7
612.081	1	2
612.251	1	9
612.421	1	7
612.590	1	-1
612.760	1	19
612.930	1	14
613.099	1	17
613.269	1	-6
613.439	1	6
613.608	1	1
613.778	1	-9
613.948	1	10
614.117	1	13
614.287	1	5
614.457	1	4
614.626	1	19
614.796	1	16
614.966	1	12
615.135	1	18
615.305	1	19
615.475	1	2
615.644	1	14
615.814	1	-2
615.984	1	13
616.153	1	13
616.323	1	8
616.493	1	19
616.662	1	4
616.832	1	6
617.002	1	6
617.171	1	8
617.341	1	13
617.511	1	1
617.680	1	7
617.850	1	8
618.019	1	10
618.189	1	6
618.359	1	10
618.528	1	10
618.698	1	14
618.868	1	10
619.037	1	11
619.207	1	7
619.377	1	13
619.546	1	3
619.716	1	15
619.885	1	5
620.055	1	28
620.225	1	17
620.394	1	17
620.564	1	-1
620.734	1	0
620.903	1	11
621.073	1	11
621.242	1	8
621.412	1	12
621.582	1	-3
621.751	1	21
621.921	1	9
622.091	1	-1
622.260	1	7
622.430	1	17
622.599	1	21
622.769	1	3
622.939	1	3
623.108	1	14
623.278	1	23
623.448	1	7
623.617	1	6
623.787	1	18
623.956	1	19
624.126	1	9
624.296	1	13
624.465	1	9
624.635	1	19
624.804	1	3
624.974	1	9
625.144	1	21
625.313	1	9
625.483	1	19
625.652	1	20
625.822	1	15
625.992	1	26
626.161	1	7
626.331	1	12
626.501	1	9
626.670	1	3
626.840	1	9
627.009	1	11
627.179	1	-3
627.348	1	20
627.518	1	9
627.688	1	11
627.857	1	12
628.027	1	5
628.196	1	8
628.366	1	16
628.536	1	9
628.705	1	11
628.875	1	9
629.044	1	11
629.214	1	5
629.384	1	8
629.553	1	12
629.723	1	5
629.892	1	6
630.062	1	4
630.232	1	20
630.401	1	9
630.571	1	17
630.740	1	12
630.910	1	7
631.079	1	15
631.249	1	16
631.419	1	23
631.588	1	7
631.758	1	12
631.927	1	8
632.097	1	10
632.266	1	4
632.436	1	10
632.606	1	8
632.775	1	20
632.945	1	1
633.114	1	12
633.284	1	14
633.453	1	17
633.623	1	19
633.793	1	8
633.962	1	7
634.132	1	9
634.301	1	14
634.471	1	7
634.640	1	8
634.810	1	10
634.979	1	4
635.149	1	1
635.319	1	15
635.488	1	-1
635.658	1	23
635.827	1	-3
635.997	1	8
636.166	1	5
636.336	1	12
636.505	1	9
636.675	1	9
636.845	1	10
637.014	1	11
637.184	1	13
637.353	1	7
637.523	1	9
637.692	1	5
637.862	1	8
638.031	1	8
638.201	1	11
638.370	1	15
638.540	1	11
638.710	1	15
638.879	1	13
639.049	1	3
639.218	1	18
639.388	1	21
639.557	1	18
639.727	1	18
639.896	1	14
640.066	1	27
640.235	1	1
640.405	1	9
640.574	1	15
640.744	1	1
640.914	1	6
641.083	1	16
641.253	1	10
641.422	1	9
641.592	1	7
641.761	1	10
641.931	1	12
642.100	1	14
642.270	1	2
642.439	1	11
642.609	1	11
642.778	1	-2
642.948	1	19
643.117	1	17
643.287	1	10
643.456	1	5
643.626	1	11
643.795	1	13
643.965	1	6
644.134	1	6
644.304	1	24
644.473	1	8
644.643	1	6
644.812	1	18
644.982	1	10
645.151	1	15
645.321	1	13
645.490	1	13
645.660	1	10
645.829	1	5
645.999	1	7
646.168	1	12
646.338	1	11
646.507	1	7
646.677	1	8
646.846	1	9
647.016	1	10
647.185	1	13
647.355	1	17
647.524	1	5
647.694	1	8
647.863	1	11
648.033	1	12
648.202	1	7
648.372	1	-1
648.541	1	13
648.711	1	13
648.880	1	10
649.050	1	18
649.219	1	17
649.389	1	8
649.558	1	22
649.728	1	6
649.897	1	9
650.067	1	10
650.236	1	6
650.406	1	17
650.575	1	12
650.745	1	15
650.914	1	11
651.084	1	13
651.253	1	11
651.423	1	10
651.592	1	3
651.762	1	12
651.931	1	14
652.101	1	24
652.270	1	14
652.440	1	17
652.609	1	21
652.778	1	19
652.948	1	13
653.117	1	10
653.287	1	14
653.456	1	9
653.626	1	7
653.795	1	14
653.965	1	5
654.134	1	5
654.304	1	22
654.473	1	12
654.643	1	11
654.812	1	13
654.982	1	9
655.151	1	15
655.320	1	24
655.490	1	5
655.659	1	9
655.829	1	5
655.998	1	4
656.168	1	9
656.337	1	9
656.507	1	8
656.676	1	5
656.846	1	11
657.015	1	15
657.184	1	10
657.354	1	20
657.523	1	10
657.693	1	4
657.862	1	-5
658.032	1	19
658.201	1	19
658.371	1	18
658.540	1	8
658.709	1	4
658.879	1	13
659.048	1	9
659.218	1	10
659.387	1	16
659.557	1	10
659.726	1	8
659.895	1	12
660.065	1	13
660.234	1	8
660.404	1	18
660.573	1	9
660.743	1	11
660.912	1	2
661.081	1	4
661.251	1	12
661.420	1	18
661.590	1	9
661.759	1	9
661.929	1	18
662.098	1	20
662.267	1	25
662.437	1	26
662.606	1	14
662.776	1	9
662.945	1	14
663.115	1	15
663.284	1	10
663.453	1	20
663.623	1	18
663.792	1	11
663.962	1	1
664.131	1	7
664.300	1	1
664.470	1	15
664.639	1	11
664.809	1	19
664.978	1	11
665.148	1	10
665.317	1	1
665.486	1	5
665.656	1	22
665.825	1	18
665.995	1	14
666.164	1	23
666.333	1	7
666.503	1	6
666.672	1	29
666.842	1	8
667.011	1	22
667.180	1	14
667.350	1	8
667.519	1	13
667.689	1	7
667.858	1	16
668.027	1	10
668.197	1	28
668.366	1	10
668.536	1	11
668.705	1	10
668.874	1	7
669.044	1	19
669.213	1	20
669.382	1	28
669.552	1	15
669.721	1	10
669.891	1	13
670.060	1	6
670.229	1	6
670.399	1	6
670.568	1	4
670.738	1	9
670.907	1	23
671.076	1	17
671.246	1	13
671.415	1	15
671.584	1	19
671.754	1	7
671.923	1	14
672.093	1	8
672.262	1	5
672.431	1	18
672.601	1	15
672.770	1	12
672.939	1	8
673.109	1	19
673.278	1	8
673.448	1	9
673.617	1	16
673.786	1	17
