325.333	1	1
325.504	1	9
325.675	1	-5
325.846	1	-3
326.017	1	0
326.188	1	10
326.359	1	4
326.531	1	2
326.702	1	3
326.873	1	2
327.044	1	7
327.215	1	-13
327.386	1	4
327.557	1	8
327.728	1	8
327.899	1	3
328.070	1	2
328.241	1	-1
328.412	1	-6
328.583	1	2
328.754	1	2
328.926	1	6
329.097	1	4
329.268	1	-4
329.439	1	-1
329.610	1	-4
329.781	1	-3
329.952	1	3
330.123	1	4
330.294	1	-5
330.465	1	6
330.636	1	12
330.807	1	11
330.978	1	7
331.149	1	5
331.320	1	14
331.492	1	-8
331.663	1	-1
331.834	1	-9
332.005	1	2
332.176	1	6
332.347	1	23
332.518	1	9
332.689	1	0
332.860	1	9
333.031	1	1
333.202	1	11
333.373	1	3
333.544	1	-6
333.715	1	-1
333.886	1	5
334.057	1	1
334.228	1	4
334.399	1	7
334.570	1	-3
334.741	1	12
334.912	1	6
335.084	1	0
335.255	1	5
335.426	1	4
335.597	1	12
335.768	1	-1
335.939	1	0
336.110	1	3
336.281	1	5
336.452	1	1
336.623	1	-3
336.794	1	8
336.965	1	0
337.136	1	4
337.307	1	9
337.478	1	9
337.649	1	-4
337.820	1	-2
337.991	1	4
338.162	1	8
338.333	1	4
338.504	1	5
338.675	1	5
338.846	1	8
339.017	1	7
339.188	1	8
339.359	1	-3
339.530	1	14
339.701	1	-15
339.872	1	0
340.043	1	-1
340.214	1	-7
340.385	1	16
340.556	1	3
340.727	1	6
340.898	1	3
341.069	1	-9
341.240	1	-4
341.411	1	9
341.582	1	-3
341.753	1	-2
341.924	1	-3
342.095	1	4
342.266	1	-1
342.437	1	-4
342.608	1	5
342.779	1	2
342.950	1	0
343.121	1	3
343.292	1	9
343.463	1	4
343.634	1	3
343.805	1	10
343.976	1	-10
344.147	1	-3
344.318	1	1
344.489	1	12
344.660	1	7
344.831	1	6
345.002	1	4
345.173	1	7
345.344	1	-5
345.515	1	11
345.686	1	-5
345.857	1	7
346.028	1	-14
346.199	1	7
346.370	1	3
346.541	1	10
346.712	1	-5
346.883	1	16
347.054	1	-2
347.225	1	-1
347.396	1	-1
347.567	1	6
347.738	1	-2
347.909	1	8
348.080	1	10
348.251	1	5
348.422	1	-4
348.593	1	4
348.764	1	-1
348.935	1	0
349.106	1	13
349.277	1	4
349.448	1	6
349.619	1	1
349.790	1	3
349.961	1	6
350.132	1	9
350.303	1	4
350.474	1	-4
350.645	1	9
350.816	1	1
350.987	1	18
351.157	1	14
351.328	1	-5
351.499	1	6
351.670	1	2
351.841	1	-3
352.012	1	2
352.183	1	2
352.354	1	4
352.525	1	10
352.696	1	13
352.867	1	4
353.038	1	-4
353.209	1	2
353.380	1	5
353.551	1	2
353.722	1	7
353.893	1	15
354.064	1	-6
354.235	1	7
354.406	1	-1
354.576	1	-1
354.747	1	11
354.918	1	7
355.089	1	1
355.260	1	6
355.431	1	11
355.602	1	0
355.773	1	5
355.944	1	0
356.115	1	3
356.286	1	-3
356.457	1	12
356.628	1	-5
356.799	1	2
356.970	1	-4
357.141	1	10
357.311	1	9
357.482	1	-4
357.653	1	3
357.824	1	-5
357.995	1	8
358.166	1	5
358.337	1	-7
358.508	1	-4
358.679	1	5
358.850	1	5
359.021	1	9
359.192	1	0
359.363	1	-11
359.533	1	7
359.704	1	5
359.875	1	4
360.046	1	1
360.217	1	-1
360.388	1	-4
360.559	1	7
360.730	1	1
360.901	1	1
361.072	1	0
361.243	1	1
361.414	1	4
361.584	1	14
361.755	1	2
361.926	1	0
362.097	1	-3
362.268	1	13
362.439	1	4
362.610	1	-5
362.781	1	3
362.952	1	0
363.123	1	-1
363.293	1	-1
363.464	1	12
363.635	1	10
363.806	1	5
363.977	1	2
364.148	1	17
364.319	1	-4
364.490	1	4
364.661	1	2
364.832	1	8
365.002	1	1
365.173	1	-2
365.344	1	8
365.515	1	4
365.686	1	6
365.857	1	7
366.028	1	0
366.199	1	3
366.370	1	5
366.540	1	0
366.711	1	9
366.882	1	3
367.053	1	3
367.224	1	-4
367.395	1	13
367.566	1	10
367.737	1	4
367.908	1	-4
368.078	1	-2
368.249	1	7
368.420	1	2
368.591	1	11
368.762	1	-4
368.933	1	14
369.104	1	3
369.274	1	10
369.445	1	9
369.616	1	-1
369.787	1	-10
369.958	1	10
370.129	1	-1
370.300	1	9
370.471	1	-1
370.641	1	-2
370.812	1	18
370.983	1	5
371.154	1	11
371.325	1	-1
371.496	1	5
371.667	1	8
371.837	1	1
372.008	1	10
372.179	1	10
372.350	1	13
372.521	1	3
372.692	1	1
372.863	1	2
373.033	1	14
373.204	1	14
373.375	1	-1
373.546	1	13
373.717	1	0
373.888	1	8
374.059	1	4
374.229	1	8
374.400	1	13
374.571	1	4
374.742	1	0
374.913	1	9
375.084	1	18
375.254	1	6
375.425	1	0
375.596	1	4
375.767	1	1
375.938	1	4
376.109	1	5
376.279	1	12
376.450	1	1
376.621	1	4
376.792	1	9
376.963	1	0
377.134	1	-7
377.304	1	7
377.475	1	0
377.646	1	1
377.817	1	-2
377.988	1	3
378.159	1	7
378.329	1	12
378.500	1	-9
378.671	1	-5
378.842	1	-2
379.013	1	5
379.184	1	15
379.354	1	10
379.525	1	-2
379.696	1	14
379.867	1	-4
380.038	1	6
380.209	1	4
380.379	1	3
380.550	1	1
380.721	1	9
380.892	1	9
381.063	1	-2
381.233	1	4
381.404	1	1
381.575	1	1
381.746	1	0
381.917	1	3
382.087	1	1
382.258	1	9
382.429	1	5
382.600	1	13
382.771	1	11
382.941	1	6
383.112	1	6
383.283	1	15
383.454	1	2
383.625	1	4
383.795	1	-2
383.966	1	10
384.137	1	1
384.308	1	11
384.479	1	4
384.649	1	11
384.820	1	0
384.991	1	-2
385.162	1	16
385.333	1	5
385.503	1	10
385.674	1	9
385.845	1	5
386.016	1	6
386.187	1	-3
386.357	1	10
386.528	1	-2
386.699	1	2
386.870	1	5
387.041	1	6
387.211	1	3
387.382	1	0
387.553	1	15
387.724	1	6
387.894	1	11
388.065	1	17
388.236	1	17
388.407	1	11
388.578	1	10
388.748	1	8
388.919	1	19
389.090	1	10
389.261	1	13
389.431	1	11
389.602	1	4
389.773	1	-5
389.944	1	0
390.114	1	15
390.285	1	7
390.456	1	3
390.627	1	5
390.798	1	11
390.968	1	-2
391.139	1	10
391.310	1	13
391.481	1	2
391.651	1	4
391.822	1	9
391.993	1	6
392.164	1	-6
392.334	1	-2
392.505	1	11
392.676	1	8
392.847	1	13
393.017	1	12
393.188	1	-2
393.359	1	5
393.530	1	11
393.700	1	14
393.871	1	5
394.042	1	10
394.213	1	9
394.383	1	21
394.554	1	5
394.725	1	11
394.896	1	12
395.066	1	11
395.237	1	-7
395.408	1	8
395.579	1	8
395.749	1	13
395.920	1	7
396.091	1	12
396.262	1	2
396.432	1	12
396.603	1	6
396.774	1	5
396.945	1	3
397.115	1	-9
397.286	1	11
397.457	1	11
397.627	1	10
397.798	1	11
397.969	1	13
398.140	1	11
398.310	1	9
398.481	1	10
398.652	1	8
398.823	1	-9
398.993	1	23
399.164	1	-9
399.335	1	1
399.505	1	18
399.676	1	13
399.847	1	18
400.018	1	5
400.188	1	10
400.359	1	24
400.530	1	-3
400.700	1	2
400.871	1	12
401.042	1	13
401.213	1	9
401.383	1	10
401.554	1	10
401.725	1	8
401.895	1	-1
402.066	1	21
402.237	1	14
402.408	1	18
402.578	1	10
402.749	1	9
402.920	1	15
403.090	1	20
403.261	1	14
403.432	1	7
403.603	1	2
403.773	1	9
403.944	1	18
404.115	1	4
404.285	1	20
404.456	1	13
404.627	1	13
404.797	1	11
404.968	1	-1
405.139	1	10
405.310	1	6
405.480	1	12
405.651	1	18
405.822	1	20
405.992	1	8
406.163	1	12
406.334	1	12
406.504	1	3
406.675	1	7
406.846	1	7
407.016	1	1
407.187	1	5
407.358	1	1
407.528	1	17
407.699	1	11
407.870	1	17
408.041	1	1
408.211	1	5
408.382	1	7
408.553	1	4
408.723	1	1
408.894	1	14
409.065	1	15
409.235	1	8
409.406	1	4
409.577	1	8
409.747	1	13
409.918	1	14
410.089	1	-14
410.259	1	3
410.430	1	11
410.601	1	13
410.771	1	10
410.942	1	6
411.113	1	14
411.283	1	10
411.454	1	6
411.625	1	10
411.795	1	4
411.966	1	5
412.137	1	1
412.307	1	9
412.478	1	4
412.649	1	5
412.819	1	-1
412.990	1	7
413.161	1	12
413.331	1	3
413.502	1	-4
413.672	1	3
413.843	1	8
414.014	1	16
414.184	1	11
414.355	1	6
414.526	1	17
414.696	1	7
414.867	1	14
415.038	1	4
415.208	1	10
415.379	1	10
415.550	1	14
415.720	1	4
415.891	1	12
416.062	1	11
416.232	1	12
416.403	1	8
416.573	1	9
416.744	1	11
416.915	1	3
417.085	1	-1
417.256	1	9
417.427	1	5
417.597	1	0
417.768	1	19
417.939	1	9
418.109	1	-4
418.280	1	7
418.450	1	15
418.621	1	8
418.792	1	9
418.962	1	14
419.133	1	18
419.304	1	2
419.474	1	4
419.645	1	8
419.815	1	15
419.986	1	7
420.157	1	16
420.327	1	4
420.498	1	3
420.669	1	10
420.839	1	6
421.010	1	11
421.180	1	2
421.351	1	10
421.522	1	14
421.692	1	10
421.863	1	9
422.033	1	11
422.204	1	11
422.375	1	8
422.545	1	16
422.716	1	5
422.886	1	14
423.057	1	5
423.228	1	0
423.398	1	13
423.569	1	8
423.740	1	-3
423.910	1	11
424.081	1	19
424.251	1	3
424.422	1	1
424.593	1	13
424.763	1	6
424.934	1	14
425.104	1	4
425.275	1	12
425.445	1	12
425.616	1	8
425.787	1	12
425.957	1	8
426.128	1	11
426.298	1	12
426.469	1	-4
426.640	1	13
426.810	1	10
426.981	1	8
427.151	1	2
427.322	1	0
427.493	1	5
427.663	1	1
427.834	1	-2
428.004	1	7
428.175	1	7
428.345	1	23
428.516	1	8
428.687	1	16
428.857	1	-3
429.028	1	9
429.198	1	8
429.369	1	4
429.540	1	8
429.710	1	14
429.881	1	13
430.051	1	11
430.222	1	15
430.392	1	12
430.563	1	14
430.734	1	14
430.904	1	9
431.075	1	-1
431.245	1	10
431.416	1	2
431.586	1	17
431.757	1	15
431.927	1	-5
432.098	1	12
432.269	1	8
432.439	1	6
432.610	1	11
432.780	1	8
432.951	1	4
433.121	1	17
433.292	1	8
433.462	1	7
433.633	1	11
433.804	1	8
433.974	1	16
434.145	1	16
434.315	1	15
434.486	1	4
434.656	1	12
434.827	1	3
434.997	1	23
435.168	1	13
435.339	1	7
435.509	1	10
435.680	1	6
435.850	1	-2
436.021	1	14
436.191	1	17
436.362	1	15
436.532	1	10
436.703	1	13
436.873	1	6
437.044	1	11
437.214	1	14
437.385	1	12
437.556	1	4
437.726	1	9
437.897	1	8
438.067	1	6
438.238	1	13
438.408	1	2
438.579	1	11
438.749	1	-7
438.920	1	6
439.090	1	3
439.261	1	4
439.431	1	9
439.602	1	12
439.772	1	3
439.943	1	7
440.113	1	9
440.284	1	8
440.455	1	22
440.625	1	3
440.796	1	4
440.966	1	14
441.137	1	5
441.307	1	12
441.478	1	15
441.648	1	4
441.819	1	6
441.989	1	-4
442.160	1	7
442.330	1	9
442.501	1	-1
442.671	1	4
442.842	1	10
443.012	1	5
443.183	1	18
443.353	1	10
443.524	1	13
443.694	1	10
443.865	1	9
444.035	1	4
444.206	1	4
444.376	1	13
444.547	1	10
444.717	1	15
444.888	1	10
445.058	1	22
445.229	1	11
445.399	1	6
445.570	1	-2
445.740	1	14
445.911	1	13
446.081	1	16
446.252	1	-1
446.422	1	9
446.593	1	13
446.763	1	15
446.934	1	23
447.104	1	-1
447.275	1	6
447.445	1	-4
447.616	1	11
447.786	1	4
447.957	1	12
448.127	1	19
448.298	1	8
448.468	1	12
448.639	1	5
448.809	1	8
448.979	1	14
449.150	1	11
449.320	1	15
449.491	1	3
449.661	1	0
449.832	1	6
450.002	1	12
450.173	1	9
450.343	1	12
450.514	1	4
450.684	1	10
450.855	1	10
451.025	1	10
451.196	1	13
451.366	1	3
451.537	1	14
451.707	1	16
451.878	1	9
452.048	1	2
452.218	1	2
452.389	1	11
452.559	1	11
452.730	1	9
452.900	1	5
453.071	1	0
453.241	1	4
453.412	1	2
453.582	1	11
453.753	1	11
453.923	1	13
454.093	1	17
454.264	1	-4
454.434	1	20
454.605	1	-5
454.775	1	8
454.946	1	2
455.116	1	7
455.287	1	8
455.457	1	3
455.628	1	10
455.798	1	9
455.968	1	8
456.139	1	8
456.309	1	22
456.480	1	12
456.650	1	15
456.821	1	24
456.991	1	11
457.161	1	6
457.332	1	0
457.502	1	19
457.673	1	14
457.843	1	5
458.014	1	2
458.184	1	10
458.355	1	8
458.525	1	6
458.695	1	9
458.866	1	15
459.036	1	9
459.207	1	9
459.377	1	16
459.548	1	1
459.718	1	7
459.888	1	14
460.059	1	15
460.229	1	9
460.400	1	1
460.570	1	13
460.740	1	7
460.911	1	15
461.081	1	9
461.252	1	12
461.422	1	11
461.593	1	17
461.763	1	19
461.933	1	0
462.104	1	5
462.274	1	11
462.445	1	5
462.615	1	6
462.785	1	10
462.956	1	6
463.126	1	7
463.297	1	9
463.467	1	13
463.638	1	9
463.808	1	11
463.978	1	11
464.149	1	1
464.319	1	20
464.490	1	6
464.660	1	5
464.830	1	11
465.001	1	2
465.171	1	5
465.342	1	-5
465.512	1	14
465.682	1	9
465.853	1	-3
466.023	1	-5
466.194	1	1
466.364	1	10
466.534	1	13
466.705	1	1
466.875	1	14
467.045	1	9
467.216	1	8
467.386	1	14
467.557	1	4
467.727	1	12
467.897	1	5
468.068	1	2
468.238	1	15
468.409	1	-3
468.579	1	10
468.749	1	3
468.920	1	12
469.090	1	7
469.260	1	3
469.431	1	9
469.601	1	6
469.772	1	-8
469.942	1	9
470.112	1	9
470.283	1	21
470.453	1	17
470.623	1	-1
470.794	1	7
470.964	1	17
471.135	1	12
471.305	1	11
471.475	1	3
471.646	1	12
471.816	1	8
471.986	1	24
472.157	1	5
472.327	1	14
472.497	1	21
472.668	1	5
472.838	1	11
473.009	1	2
473.179	1	14
473.349	1	7
473.520	1	2
473.690	1	7
473.860	1	10
474.031	1	10
474.201	1	9
474.371	1	10
474.542	1	11
474.712	1	5
474.882	1	-6
475.053	1	18
475.223	1	4
475.394	1	12
475.564	1	-4
475.734	1	12
475.905	1	5
476.075	1	3
476.245	1	5
476.416	1	1
476.586	1	5
476.756	1	3
476.927	1	2
477.097	1	6
477.267	1	10
477.438	1	22
477.608	1	10
477.778	1	5
477.949	1	14
478.119	1	8
478.289	1	3
478.460	1	4
478.630	1	15
478.800	1	16
478.971	1	10
479.141	1	6
479.311	1	12
479.482	1	4
479.652	1	4
479.822	1	12
479.993	1	6
480.163	1	1
480.333	1	9
480.504	1	0
480.674	1	18
480.844	1	7
481.015	1	4
481.185	1	9
481.355	1	4
481.525	1	6
481.696	1	-3
481.866	1	9
482.036	1	18
482.207	1	10
482.377	1	4
482.547	1	0
482.718	1	0
482.888	1	11
483.058	1	2
483.229	1	8
483.399	1	18
483.569	1	-1
483.740	1	10
483.910	1	3
484.080	1	1
484.250	1	-8
484.421	1	-1
484.591	1	10
484.761	1	12
484.932	1	4
485.102	1	11
485.272	1	1
485.443	1	12
485.613	1	14
485.783	1	13
485.953	1	8
486.124	1	15
486.294	1	-1
486.464	1	8
486.635	1	14
486.805	1	4
486.975	1	6
487.146	1	5
487.316	1	8
487.486	1	-1
487.656	1	-2
487.827	1	-4
487.997	1	0
488.167	1	12
488.338	1	-1
488.508	1	11
488.678	1	2
488.848	1	11
489.019	1	8
489.189	1	11
489.359	1	1
489.529	1	4
489.700	1	4
489.870	1	-3
490.040	1	9
490.211	1	4
490.381	1	4
490.551	1	-9
490.721	1	8
490.892	1	9
491.062	1	-7
491.232	1	2
491.402	1	8
491.573	1	0
491.743	1	3
491.913	1	4
492.084	1	3
492.254	1	8
492.424	1	9
492.594	1	12
492.765	1	1
492.935	1	-2
493.105	1	13
493.275	1	0
493.446	1	-6
493.616	1	9
493.786	1	6
493.956	1	0
494.127	1	22
494.297	1	4
494.467	1	6
494.637	1	4
494.808	1	7
494.978	1	-3
495.148	1	13
495.318	1	13
495.489	1	-1
495.659	1	0
495.829	1	2
495.999	1	5
496.170	1	4
496.340	1	7
496.510	1	10
496.680	1	-7
496.851	1	7
497.021	1	11
497.191	1	8
497.361	1	1
497.532	1	-3
497.702	1	11
497.872	1	13
498.042	1	15
498.213	1	14
498.383	1	6
498.553	1	4
498.723	1	6
498.894	1	5
499.064	1	2
499.234	1	7
499.404	1	0
499.574	1	6
499.745	1	2
499.915	1	2
500.085	1	2
500.255	1	5
500.426	1	7
500.596	1	-10
500.766	1	2
500.936	1	10
501.106	1	7
501.277	1	-5
501.447	1	9
501.617	1	6
501.787	1	13
501.958	1	4
502.128	1	-12
502.298	1	4
502.468	1	9
502.638	1	8
502.809	1	5
502.979	1	8
503.149	1	-5
503.319	1	5
503.489	1	8
503.660	1	-5
503.830	1	0
504.000	1	0
504.170	1	2
504.340	1	3
504.511	1	8
504.681	1	-2
504.851	1	-4
505.021	1	16
505.192	1	-1
505.362	1	2
505.532	1	-2
505.702	1	0
505.872	1	-3
506.043	1	11
506.213	1	7
506.383	1	2
506.553	1	7
506.723	1	8
506.893	1	-1
507.064	1	-8
507.234	1	-2
507.404	1	10
507.574	1	2
507.744	1	12
507.915	1	5
508.085	1	15
508.255	1	6
508.425	1	4
508.595	1	8
508.766	1	9
508.936	1	1
509.106	1	5
509.276	1	6
509.446	1	7
509.616	1	3
509.787	1	10
509.957	1	1
510.127	1	8
510.297	1	-7
510.467	1	3
510.638	1	6
510.808	1	-4
510.978	1	2
511.148	1	18
511.318	1	2
511.488	1	9
511.659	1	-8
511.829	1	0
511.999	1	12
512.169	1	1
512.339	1	10
512.509	1	-2
512.680	1	-1
512.850	1	4
513.020	1	-1
513.190	1	9
513.360	1	5
513.530	1	5
513.700	1	6
513.871	1	5
514.041	1	1
514.211	1	4
514.381	1	9
514.551	1	0
514.721	1	8
514.892	1	-1
515.062	1	11
515.232	1	1
515.402	1	9
515.572	1	-1
515.742	1	13
515.912	1	-7
516.083	1	6
516.253	1	10
516.423	1	7
516.593	1	-2
516.763	1	1
516.933	1	-7
517.104	1	-2
517.274	1	5
517.444	1	4
517.614	1	-2
517.784	1	3
517.954	1	16
518.124	1	-5
518.294	1	18
518.465	1	0
518.635	1	12
518.805	1	12
518.975	1	-5
519.145	1	8
519.315	1	1
519.485	1	-7
519.656	1	0
519.826	1	6
519.996	1	-2
520.166	1	3
520.336	1	8
520.506	1	-8
520.676	1	3
520.846	1	2
521.017	1	-9
521.187	1	12
521.357	1	-1
521.527	1	8
521.697	1	5
521.867	1	5
522.037	1	-2
522.207	1	8
522.377	1	3
522.548	1	5
522.718	1	-6
522.888	1	4
523.058	1	6
523.228	1	4
523.398	1	7
523.568	1	-2
523.738	1	4
523.909	1	-1
524.079	1	1
524.249	1	-2
524.419	1	10
524.589	1	-3
524.759	1	1
524.929	1	-11
525.099	1	5
525.269	1	17
525.439	1	-6
525.610	1	-1
525.780	1	0
525.950	1	-2
526.120	1	0
526.290	1	-3
526.460	1	-7
526.630	1	6
526.800	1	13
526.970	1	7
527.140	1	6
527.311	1	-5
527.481	1	4
527.651	1	8
527.821	1	-5
527.991	1	3
528.161	1	4
528.331	1	13
528.501	1	3
528.671	1	3
528.841	1	6
529.011	1	-6
529.181	1	0
529.352	1	6
529.522	1	-5
529.692	1	-6
529.862	1	6
530.032	1	15
530.202	1	-4
530.372	1	2
530.542	1	-7
530.712	1	1
530.882	1	-4
531.052	1	4
531.222	1	-7
531.392	1	9
531.563	1	-3
531.733	1	4
531.903	1	8
532.073	1	1
532.243	1	-3
532.413	1	11
532.583	1	-8
532.753	1	-5
532.923	1	17
533.093	1	8
533.263	1	-8
533.433	1	16
533.603	1	5
533.773	1	5
533.943	1	-2
534.113	1	-2
534.284	1	-1
534.454	1	0
534.624	1	9
534.794	1	1
534.964	1	0
535.134	1	9
535.304	1	1
535.474	1	2
535.644	1	2
535.814	1	4
535.984	1	2
536.154	1	7
536.324	1	11
536.494	1	4
536.664	1	1
536.834	1	2
537.004	1	6
537.174	1	-5
537.344	1	6
537.514	1	0
537.685	1	2
537.855	1	1
538.025	1	-2
538.195	1	2
538.365	1	2
538.535	1	-6
538.705	1	12
538.875	1	11
539.045	1	-2
539.215	1	-11
539.385	1	6
539.555	1	3
539.725	1	-5
539.895	1	12
540.065	1	0
540.235	1	12
540.405	1	2
540.575	1	-4
540.745	1	0
540.915	1	-1
541.085	1	-5
541.255	1	-7
541.425	1	6
541.595	1	7
541.765	1	14
541.935	1	-10
542.105	1	3
542.275	1	1
542.445	1	-4
542.615	1	1
542.785	1	7
542.955	1	-3
543.125	1	-12
543.295	1	-11
543.465	1	8
543.635	1	-5
543.805	1	12
543.975	1	0
544.145	1	-4
544.315	1	0
544.485	1	4
544.655	1	14
544.825	1	1
544.995	1	9
545.165	1	3
545.335	1	-1
545.505	1	12
545.675	1	-5
545.845	1	2
546.015	1	4
546.185	1	6
546.355	1	5
546.525	1	1
546.695	1	-10
546.865	1	15
547.035	1	9
547.205	1	-1
547.375	1	-2
547.545	1	6
547.715	1	2
547.885	1	8
548.055	1	-6
548.225	1	-2
548.395	1	-6
548.565	1	4
548.735	1	-1
548.905	1	-4
549.075	1	-4
549.245	1	-4
549.415	1	-3
549.585	1	8
549.755	1	-3
549.925	1	9
550.095	1	0
550.265	1	2
550.435	1	-6
550.605	1	1
550.775	1	-6
550.945	1	8
551.115	1	4
551.285	1	2
551.455	1	-1
551.625	1	2
551.795	1	6
551.965	1	-2
552.135	1	-4
552.305	1	-2
552.475	1	6
552.645	1	-6
552.815	1	2
552.985	1	-10
553.155	1	2
553.325	1	3
553.495	1	-8
553.665	1	-2
553.835	1	0
554.004	1	-5
554.174	1	-7
554.344	1	4
554.514	1	10
554.684	1	-1
554.854	1	-4
555.024	1	7
555.194	1	-1
555.364	1	4
555.534	1	-3
555.704	1	3
555.874	1	1
556.044	1	11
556.214	1	-1
556.384	1	2
556.554	1	4
556.724	1	6
556.894	1	-13
557.064	1	-1
557.234	1	-1
557.404	1	1
557.573	1	-8
557.743	1	4
557.913	1	-8
558.083	1	14
558.253	1	2
558.423	1	2
558.593	1	8
558.763	1	9
558.933	1	59
559.103	1	35
559.273	1	0
559.443	1	7
559.613	1	7
559.783	1	8
559.953	1	10
560.122	1	-1
560.292	1	3
560.462	1	-2
560.632	1	4
560.802	1	2
560.972	1	-1
561.142	1	6
561.312	1	1
561.482	1	10
561.652	1	0
561.822	1	-1
561.992	1	-4
562.162	1	5
562.331	1	8
562.501	1	3
562.671	1	12
562.841	1	-3
563.011	1	-7
563.181	1	7
563.351	1	10
563.521	1	7
563.691	1	10
563.861	1	-12
564.031	1	-10
564.201	1	-5
564.370	1	-2
564.540	1	-2
564.710	1	2
564.880	1	6
565.050	1	5
565.220	1	3
565.390	1	7
565.560	1	2
565.730	1	-2
565.900	1	2
566.069	1	2
566.239	1	-10
566.409	1	1
566.579	1	2
566.749	1	-8
566.919	1	6
567.089	1	3
567.259	1	-6
567.429	1	2
567.599	1	6
567.768	1	3
567.938	1	-9
568.108	1	-1
568.278	1	7
568.448	1	2
568.618	1	6
568.788	1	-10
568.958	1	4
569.128	1	-9
569.297	1	0
569.467	1	5
569.637	1	8
569.807	1	3
569.977	1	2
570.147	1	4
570.317	1	-2
570.487	1	10
570.656	1	-7
570.826	1	3
570.996	1	0
571.166	1	-2
571.336	1	-5
571.506	1	4
571.676	1	-7
571.846	1	-2
572.015	1	1
572.185	1	-3
572.355	1	1
572.525	1	-11
572.695	1	14
572.865	1	16
573.035	1	-13
573.205	1	3
573.374	1	5
573.544	1	-2
573.714	1	-5
573.884	1	-1
574.054	1	-3
574.224	1	6
574.394	1	9
574.563	1	10
574.733	1	11
574.903	1	1
575.073	1	3
575.243	1	7
575.413	1	3
575.583	1	2
575.752	1	-1
575.922	1	11
576.092	1	-1
576.262	1	7
576.432	1	10
576.602	1	-8
576.772	1	-8
576.941	1	5
577.111	1	4
577.281	1	14
577.451	1	-4
577.621	1	11
577.791	1	2
577.960	1	-2
578.130	1	-4
578.300	1	0
578.470	1	6
578.640	1	-3
578.810	1	-4
578.979	1	-5
579.149	1	-6
579.319	1	-9
579.489	1	10
579.659	1	8
579.829	1	10
579.998	1	0
580.168	1	0
580.338	1	8
580.508	1	-6
580.678	1	8
580.848	1	-2
581.017	1	-8
581.187	1	4
581.357	1	-5
581.527	1	-6
581.697	1	-3
581.867	1	-2
582.036	1	7
582.206	1	0
582.376	1	4
582.546	1	13
582.716	1	3
582.885	1	7
583.055	1	-2
583.225	1	-5
583.395	1	-2
583.565	1	-5
583.735	1	-5
583.904	1	7
584.074	1	-2
584.244	1	8
584.414	1	2
584.584	1	1
584.753	1	10
584.923	1	2
585.093	1	-1
585.263	1	5
585.433	1	7
585.602	1	0
585.772	1	4
585.942	1	-3
586.112	1	-10
586.282	1	2
586.451	1	-3
586.621	1	-3
586.791	1	4
586.961	1	5
587.131	1	3
587.300	1	9
587.470	1	6
587.640	1	-5
587.810	1	-12
587.980	1	-8
588.149	1	12
588.319	1	0
588.489	1	-4
588.659	1	7
588.829	1	-10
588.998	1	-2
589.168	1	2
589.338	1	0
589.508	1	-1
589.677	1	-7
589.847	1	2
590.017	1	5
590.187	1	-2
590.357	1	-6
590.526	1	6
590.696	1	-2
590.866	1	-7
591.036	1	0
591.205	1	11
591.375	1	-2
591.545	1	-4
591.715	1	-3
591.885	1	-7
592.054	1	0
592.224	1	-2
592.394	1	4
592.564	1	1
592.733	1	2
592.903	1	4
593.073	1	-6
593.243	1	1
593.412	1	-8
593.582	1	3
593.752	1	3
593.922	1	3
594.091	1	-6
594.261	1	-3
594.431	1	0
594.601	1	-6
594.771	1	15
594.940	1	4
595.110	1	-1
595.280	1	3
595.450	1	8
595.619	1	3
595.789	1	11
595.959	1	3
596.129	1	-8
596.298	1	2
596.468	1	4
596.638	1	1
596.808	1	-9
596.977	1	-7
597.147	1	7
597.317	1	-9
597.487	1	6
597.656	1	0
597.826	1	-4
597.996	1	4
598.166	1	0
598.335	1	-1
598.505	1	-5
598.675	1	0
598.844	1	9
599.014	1	6
599.184	1	1
599.354	1	-3
599.523	1	9
599.693	1	11
599.863	1	4
600.033	1	2
600.202	1	7
600.372	1	3
600.542	1	1
600.712	1	9
600.881	1	1
601.051	1	5
601.221	1	18
601.390	1	-2
601.560	1	2
601.730	1	6
601.900	1	14
602.069	1	-7
602.239	1	3
602.409	1	1
602.578	1	6
602.748	1	-5
602.918	1	9
603.088	1	10
603.257	1	6
603.427	1	9
603.597	1	-2
603.767	1	8
603.936	1	9
604.106	1	2
604.276	1	-4
604.445	1	-2
604.615	1	-6
604.785	1	3
604.954	1	0
605.124	1	16
605.294	1	3
605.464	1	-12
605.633	1	6
605.803	1	16
605.973	1	-1
606.142	1	6
606.312	1	7
606.482	1	-2
606.652	1	12
606.821	1	1
606.991	1	8
607.161	1	9
607.330	1	-2
607.500	1	8
607.670	1	0
607.839	1	-7
608.009	1	5
608.179	1	-3
608.348	1	-4
608.518	1	-7
608.688	1	6
608.858	1	-5
609.027	1	-5
609.197	1	9
609.367	1	2
609.536	1	16
609.706	1	-9
609.876	1	1
610.045	1	8
610.215	1	11
610.385	1	-4
610.554	1	2
610.724	1	13
610.894	1	-6
611.063	1	-1
611.233	1	-3
611.403	1	3
611.572	1	12
611.742	1	-2
611.912	1	2
612.081	1	7
612.251	1	-1
612.421	1	4
612.590	1	-5
612.760	1	5
612.930	1	-2
613.099	1	7
613.269	1	-5
613.439	1	2
613.608	1	2
613.778	1	0
613.948	1	10
614.117	1	9
614.287	1	6
614.457	1	5
614.626	1	14
614.796	1	6
614.966	1	11
615.135	1	6
615.305	1	10
615.475	1	-1
615.644	1	3
615.814	1	0
615.984	1	5
616.153	1	0
616.323	1	3
616.493	1	18
616.662	1	-4
616.832	1	2
617.002	1	-2
617.171	1	0
617.341	1	-2
617.511	1	0
617.680	1	-2
617.850	1	1
618.019	1	2
618.189	1	11
618.359	1	-1
618.528	1	1
618.698	1	5
618.868	1	2
619.037	1	8
619.207	1	3
619.377	1	-2
619.546	1	-7
619.716	1	2
619.885	1	2
620.055	1	9
620.225	1	9
620.394	1	4
620.564	1	-9
620.734	1	3
620.903	1	11
621.073	1	5
621.242	1	-4
621.412	1	6
621.582	1	-10
621.751	1	6
621.921	1	10
622.091	1	-7
622.260	1	0
622.430	1	6
622.599	1	6
622.769	1	-5
622.939	1	-4
623.108	1	-1
623.278	1	15
623.448	1	10
623.617	1	1
623.787	1	14
623.956	1	23
624.126	1	0
624.296	1	1
624.465	1	-1
624.635	1	0
624.804	1	5
624.974	1	-4
625.144	1	11
625.313	1	0
625.483	1	3
625.652	1	12
625.822	1	7
625.992	1	9
626.161	1	6
626.331	1	4
626.501	1	-1
626.670	1	-3
626.840	1	9
627.009	1	1
627.179	1	-10
627.348	1	5
627.518	1	8
627.688	1	6
627.857	1	7
628.027	1	-4
628.196	1	-9
628.366	1	0
628.536	1	15
628.705	1	-6
628.875	1	10
629.044	1	4
629.214	1	0
629.384	1	1
629.553	1	4
629.723	1	-10
629.892	1	-3
630.062	1	-13
630.232	1	2
630.401	1	0
630.571	1	6
630.740	1	-4
630.910	1	7
631.079	1	-7
631.249	1	4
631.419	1	-3
631.588	1	0
631.758	1	2
631.927	1	5
632.097	1	7
632.266	1	-9
632.436	1	7
632.606	1	-5
632.775	1	14
632.945	1	-15
633.114	1	2
633.284	1	6
633.453	1	0
633.623	1	11
633.793	1	-2
633.962	1	-9
634.132	1	2
634.301	1	-8
634.471	1	-4
634.640	1	5
634.810	1	6
634.979	1	5
635.149	1	-3
635.319	1	4
635.488	1	-12
635.658	1	4
635.827	1	-4
635.997	1	0
636.166	1	6
636.336	1	3
636.505	1	5
636.675	1	-2
636.845	1	14
637.014	1	-3
637.184	1	17
637.353	1	-4
637.523	1	6
637.692	1	-5
637.862	1	2
638.031	1	2
638.201	1	-4
638.370	1	8
638.540	1	3
638.710	1	13
638.879	1	2
639.049	1	-3
639.218	1	15
639.388	1	7
639.557	1	11
639.727	1	20
639.896	1	0
640.066	1	3
640.235	1	-9
640.405	1	2
640.574	1	4
640.744	1	-4
640.914	1	8
641.083	1	3
641.253	1	7
641.422	1	4
641.592	1	-3
641.761	1	-4
641.931	1	3
642.100	1	5
642.270	1	-11
642.439	1	5
642.609	1	3
642.778	1	-2
642.948	1	3
643.117	1	8
643.287	1	-1
643.456	1	1
643.626	1	-1
643.795	1	5
643.965	1	-5
644.134	1	6
644.304	1	15
644.473	1	-2
644.643	1	-2
644.812	1	-2
644.982	1	5
645.151	1	8
645.321	1	-4
645.490	1	4
645.660	1	-3
645.829	1	1
645.999	1	-2
646.168	1	16
646.338	1	1
646.507	1	-2
646.677	1	1
646.846	1	5
647.016	1	5
647.185	1	7
647.355	1	7
647.524	1	2
647.694	1	2
647.863	1	7
648.033	1	7
648.202	1	8
648.372	1	-5
648.541	1	0
648.711	1	-4
648.880	1	5
649.050	1	-4
649.219	1	7
649.389	1	-6
649.558	1	7
649.728	1	2
649.897	1	-4
650.067	1	5
650.236	1	-2
650.406	1	8
650.575	1	7
650.745	1	6
650.914	1	-3
651.084	1	2
651.253	1	4
651.423	1	6
651.592	1	11
651.762	1	11
651.931	1	1
652.101	1	7
652.270	1	1
652.440	1	5
652.609	1	5
652.778	1	1
652.948	1	0
653.117	1	3
653.287	1	0
653.456	1	2
653.626	1	4
653.795	1	-1
653.965	1	-10
654.134	1	-16
654.304	1	11
654.473	1	-5
654.643	1	1
654.812	1	2
654.982	1	1
655.151	1	4
655.320	1	5
655.490	1	2
655.659	1	4
655.829	1	-3
655.998	1	-3
656.168	1	-9
656.337	1	3
656.507	1	5
656.676	1	-4
656.846	1	6
657.015	1	1
657.184	1	-4
657.354	1	-1
657.523	1	7
657.693	1	-5
657.862	1	-14
658.032	1	6
658.201	1	4
658.371	1	-6
658.540	1	5
658.709	1	2
658.879	1	9
659.048	1	0
659.218	1	-3
659.387	1	6
659.557	1	2
659.726	1	-8
659.895	1	3
660.065	1	19
660.234	1	-4
660.404	1	6
660.573	1	-4
660.743	1	5
660.912	1	-6
661.081	1	-7
661.251	1	15
661.420	1	11
661.590	1	0
661.759	1	-9
661.929	1	2
662.098	1	11
662.267	1	3
662.437	1	11
662.606	1	5
662.776	1	4
662.945	1	8
663.115	1	5
663.284	1	1
663.453	1	14
663.623	1	7
663.792	1	5
663.962	1	-5
664.131	1	3
664.300	1	-12
664.470	1	8
664.639	1	8
664.809	1	-1
664.978	1	6
665.148	1	-14
665.317	1	-10
665.486	1	4
665.656	1	11
665.825	1	4
665.995	1	-6
666.164	1	6
666.333	1	3
666.503	1	-2
666.672	1	9
666.842	1	-1
667.011	1	-2
667.180	1	10
667.350	1	-5
667.519	1	-4
667.689	1	2
667.858	1	-1
668.027	1	1
668.197	1	14
668.366	1	-12
668.536	1	2
668.705	1	2
668.874	1	6
669.044	1	6
669.213	1	9
669.382	1	10
669.552	1	3
669.721	1	-3
669.891	1	3
670.060	1	-1
670.229	1	-10
670.399	1	-1
670.568	1	-9
670.738	1	-2
670.907	1	9
671.076	1	-1
671.246	1	-3
671.415	1	5
671.584	1	4
671.754	1	-2
671.923	1	3
672.093	1	1
672.262	1	4
672.431	1	7
672.601	1	6
672.770	1	-6
672.939	1	-2
673.109	1	7
673.278	1	-6
673.448	1	3
673.617	1	1
673.786	1	3
