325.333	1	5
325.504	1	15
325.675	1	2
325.846	1	-2
326.017	1	0
326.188	1	2
326.359	1	13
326.531	1	12
326.702	1	13
326.873	1	0
327.044	1	8
327.215	1	-4
327.386	1	6
327.557	1	1
327.728	1	6
327.899	1	-1
328.070	1	16
328.241	1	14
328.412	1	-4
328.583	1	9
328.754	1	-3
328.926	1	6
329.097	1	-2
329.268	1	-4
329.439	1	5
329.610	1	5
329.781	1	2
329.952	1	-1
330.123	1	3
330.294	1	1
330.465	1	9
330.636	1	19
330.807	1	5
330.978	1	-2
331.149	1	2
331.320	1	13
331.492	1	-2
331.663	1	-4
331.834	1	1
332.005	1	-1
332.176	1	10
332.347	1	15
332.518	1	18
332.689	1	10
332.860	1	2
333.031	1	17
333.202	1	4
333.373	1	2
333.544	1	-1
333.715	1	6
333.886	1	5
334.057	1	5
334.228	1	3
334.399	1	17
334.570	1	-6
334.741	1	-2
334.912	1	4
335.084	1	4
335.255	1	2
335.426	1	10
335.597	1	7
335.768	1	4
335.939	1	-5
336.110	1	17
336.281	1	-2
336.452	1	-3
336.623	1	-4
336.794	1	1
336.965	1	-5
337.136	1	13
337.307	1	9
337.478	1	9
337.649	1	1
337.820	1	-6
337.991	1	8
338.162	1	-3
338.333	1	5
338.504	1	8
338.675	1	19
338.846	1	3
339.017	1	20
339.188	1	14
339.359	1	18
339.530	1	4
339.701	1	2
339.872	1	13
340.043	1	-6
340.214	1	-2
340.385	1	11
340.556	1	6
340.727	1	6
340.898	1	9
341.069	1	-7
341.240	1	2
341.411	1	7
341.582	1	6
341.753	1	-4
341.924	1	10
342.095	1	4
342.266	1	3
342.437	1	-4
342.608	1	10
342.779	1	11
342.950	1	6
343.121	1	12
343.292	1	12
343.463	1	13
343.634	1	3
343.805	1	2
343.976	1	-4
344.147	1	7
344.318	1	8
344.489	1	15
344.660	1	11
344.831	1	6
345.002	1	9
345.173	1	10
345.344	1	-6
345.515	1	6
345.686	1	3
345.857	1	2
346.028	1	1
346.199	1	10
346.370	1	8
346.541	1	8
346.712	1	8
346.883	1	12
347.054	1	0
347.225	1	-4
347.396	1	-4
347.567	1	1
347.738	1	2
347.909	1	12
348.080	1	12
348.251	1	4
348.422	1	2
348.593	1	20
348.764	1	7
348.935	1	1
349.106	1	17
349.277	1	7
349.448	1	-1
349.619	1	8
349.790	1	18
349.961	1	15
350.132	1	11
350.303	1	8
350.474	1	3
350.645	1	20
350.816	1	2
350.987	1	18
351.157	1	9
351.328	1	4
351.499	1	4
351.670	1	8
351.841	1	0
352.012	1	7
352.183	1	8
352.354	1	14
352.525	1	12
352.696	1	5
352.867	1	14
353.038	1	-9
353.209	1	0
353.380	1	6
353.551	1	-7
353.722	1	4
353.893	1	6
354.064	1	11
354.235	1	15
354.406	1	8
354.576	1	0
354.747	1	13
354.918	1	17
355.089	1	3
355.260	1	12
355.431	1	13
355.602	1	5
355.773	1	11
355.944	1	3
356.115	1	4
356.286	1	7
356.457	1	2
356.628	1	5
356.799	1	1
356.970	1	13
357.141	1	17
357.311	1	13
357.482	1	7
357.653	1	6
357.824	1	3
357.995	1	15
358.166	1	13
358.337	1	6
358.508	1	-1
358.679	1	7
358.850	1	-5
359.021	1	15
359.192	1	6
359.363	1	0
359.533	1	-3
359.704	1	19
359.875	1	8
360.046	1	6
360.217	1	5
360.388	1	3
360.559	1	14
360.730	1	7
360.901	1	8
361.072	1	15
361.243	1	0
361.414	1	6
361.584	1	16
361.755	1	8
361.926	1	3
362.097	1	-3
362.268	1	18
362.439	1	11
362.610	1	10
362.781	1	7
362.952	1	0
363.123	1	1
363.293	1	5
363.464	1	10
363.635	1	12
363.806	1	13
363.977	1	1
364.148	1	13
364.319	1	-10
364.490	1	10
364.661	1	7
364.832	1	22
365.002	1	9
365.173	1	4
365.344	1	4
365.515	1	10
365.686	1	5
365.857	1	10
366.028	1	11
366.199	1	10
366.370	1	12
366.540	1	2
366.711	1	10
366.882	1	1
367.053	1	11
367.224	1	-2
367.395	1	17
367.566	1	20
367.737	1	1
367.908	1	-6
368.078	1	5
368.249	1	6
368.420	1	9
368.591	1	6
368.762	1	-10
368.933	1	16
369.104	1	5
369.274	1	14
369.445	1	14
369.616	1	6
369.787	1	3
369.958	1	15
370.129	1	9
370.300	1	-1
370.471	1	7
370.641	1	4
370.812	1	20
370.983	1	4
371.154	1	12
371.325	1	10
371.496	1	5
371.667	1	11
371.837	1	13
372.008	1	14
372.179	1	9
372.350	1	18
372.521	1	11
372.692	1	4
372.863	1	6
373.033	1	17
373.204	1	19
373.375	1	2
373.546	1	20
373.717	1	12
373.888	1	10
374.059	1	7
374.229	1	14
374.400	1	17
374.571	1	3
374.742	1	6
374.913	1	5
375.084	1	16
375.254	1	22
375.425	1	-2
375.596	1	14
375.767	1	2
375.938	1	7
376.109	1	8
376.279	1	11
376.450	1	1
376.621	1	9
376.792	1	11
376.963	1	12
377.134	1	-3
377.304	1	10
377.475	1	8
377.646	1	1
377.817	1	3
377.988	1	7
378.159	1	15
378.329	1	16
378.500	1	8
378.671	1	7
378.842	1	6
379.013	1	12
379.184	1	15
379.354	1	9
379.525	1	6
379.696	1	12
379.867	1	2
380.038	1	5
380.209	1	3
380.379	1	14
380.550	1	17
380.721	1	9
380.892	1	20
381.063	1	8
381.233	1	16
381.404	1	8
381.575	1	7
381.746	1	11
381.917	1	4
382.087	1	3
382.258	1	7
382.429	1	15
382.600	1	18
382.771	1	15
382.941	1	5
383.112	1	10
383.283	1	15
383.454	1	9
383.625	1	16
383.795	1	16
383.966	1	11
384.137	1	6
384.308	1	10
384.479	1	8
384.649	1	17
384.820	1	12
384.991	1	-4
385.162	1	13
385.333	1	5
385.503	1	16
385.674	1	22
385.845	1	6
386.016	1	13
386.187	1	12
386.357	1	20
386.528	1	12
386.699	1	7
386.870	1	14
387.041	1	18
387.211	1	4
387.382	1	3
387.553	1	21
387.724	1	8
387.894	1	16
388.065	1	18
388.236	1	10
388.407	1	21
388.578	1	20
388.748	1	16
388.919	1	19
389.090	1	12
389.261	1	22
389.431	1	7
389.602	1	10
389.773	1	6
389.944	1	15
390.114	1	20
390.285	1	15
390.456	1	17
390.627	1	18
390.798	1	14
390.968	1	8
391.139	1	6
391.310	1	17
391.481	1	12
391.651	1	11
391.822	1	13
391.993	1	14
392.164	1	0
392.334	1	5
392.505	1	21
392.676	1	8
392.847	1	21
393.017	1	11
393.188	1	21
393.359	1	22
393.530	1	17
393.700	1	17
393.871	1	13
394.042	1	16
394.213	1	23
394.383	1	22
394.554	1	23
394.725	1	16
394.896	1	13
395.066	1	16
395.237	1	6
395.408	1	13
395.579	1	21
395.749	1	11
395.920	1	22
396.091	1	20
396.262	1	6
396.432	1	8
396.603	1	17
396.774	1	18
396.945	1	13
397.115	1	5
397.286	1	26
397.457	1	13
397.627	1	18
397.798	1	20
397.969	1	14
398.140	1	12
398.310	1	11
398.481	1	15
398.652	1	16
398.823	1	7
398.993	1	19
399.164	1	19
399.335	1	5
399.505	1	27
399.676	1	11
399.847	1	23
400.018	1	10
400.188	1	19
400.359	1	14
400.530	1	5
400.700	1	17
400.871	1	9
401.042	1	15
401.213	1	14
401.383	1	18
401.554	1	18
401.725	1	15
401.895	1	5
402.066	1	14
402.237	1	21
402.408	1	21
402.578	1	13
402.749	1	21
402.920	1	21
403.090	1	15
403.261	1	20
403.432	1	27
403.603	1	6
403.773	1	9
403.944	1	22
404.115	1	5
404.285	1	21
404.456	1	19
404.627	1	20
404.797	1	8
404.968	1	8
405.139	1	21
405.310	1	13
405.480	1	15
405.651	1	17
405.822	1	30
405.992	1	9
406.163	1	22
406.334	1	17
406.504	1	9
406.675	1	16
406.846	1	23
407.016	1	14
407.187	1	13
407.358	1	7
407.528	1	22
407.699	1	7
407.870	1	15
408.041	1	9
408.211	1	10
408.382	1	11
408.553	1	1
408.723	1	9
408.894	1	21
409.065	1	18
409.235	1	9
409.406	1	13
409.577	1	9
409.747	1	22
409.918	1	15
410.089	1	11
410.259	1	13
410.430	1	21
410.601	1	23
410.771	1	20
410.942	1	8
411.113	1	31
411.283	1	8
411.454	1	23
411.625	1	21
411.795	1	9
411.966	1	8
412.137	1	17
412.307	1	11
412.478	1	20
412.649	1	14
412.819	1	16
412.990	1	21
413.161	1	13
413.331	1	12
413.502	1	1
413.672	1	17
413.843	1	17
414.014	1	23
414.184	1	20
414.355	1	16
414.526	1	11
414.696	1	12
414.867	1	19
415.038	1	8
415.208	1	9
415.379	1	19
415.550	1	15
415.720	1	11
415.891	1	20
416.062	1	15
416.232	1	26
416.403	1	17
416.573	1	19
416.744	1	8
416.915	1	8
417.085	1	10
417.256	1	19
417.427	1	18
417.597	1	18
417.768	1	17
417.939	1	23
418.109	1	0
418.280	1	15
418.450	1	20
418.621	1	19
418.792	1	11
418.962	1	6
419.133	1	21
419.304	1	12
419.474	1	8
419.645	1	9
419.815	1	13
419.986	1	11
420.157	1	28
420.327	1	15
420.498	1	14
420.669	1	19
420.839	1	13
421.010	1	25
421.180	1	10
421.351	1	31
421.522	1	17
421.692	1	20
421.863	1	17
422.033	1	27
422.204	1	19
422.375	1	19
422.545	1	13
422.716	1	25
422.886	1	23
423.057	1	7
423.228	1	20
423.398	1	26
423.569	1	27
423.740	1	10
423.910	1	24
424.081	1	22
424.251	1	16
424.422	1	9
424.593	1	16
424.763	1	17
424.934	1	17
425.104	1	14
425.275	1	23
425.445	1	27
425.616	1	27
425.787	1	12
425.957	1	15
426.128	1	24
426.298	1	16
426.469	1	6
426.640	1	13
426.810	1	26
426.981	1	19
427.151	1	4
427.322	1	6
427.493	1	7
427.663	1	20
427.834	1	13
428.004	1	15
428.175	1	14
428.345	1	21
428.516	1	12
428.687	1	16
428.857	1	21
429.028	1	14
429.198	1	21
429.369	1	12
429.540	1	9
429.710	1	15
429.881	1	26
430.051	1	8
430.222	1	19
430.392	1	18
430.563	1	8
430.734	1	10
430.904	1	16
431.075	1	7
431.245	1	15
431.416	1	6
431.586	1	17
431.757	1	19
431.927	1	2
432.098	1	18
432.269	1	23
432.439	1	12
432.610	1	22
432.780	1	13
432.951	1	20
433.121	1	22
433.292	1	10
433.462	1	25
433.633	1	19
433.804	1	-1
433.974	1	18
434.145	1	17
434.315	1	14
434.486	1	12
434.656	1	12
434.827	1	11
434.997	1	21
435.168	1	20
435.339	1	15
435.509	1	14
435.680	1	13
435.850	1	17
436.021	1	22
436.191	1	24
436.362	1	14
436.532	1	31
436.703	1	26
436.873	1	17
437.044	1	23
437.214	1	22
437.385	1	22
437.556	1	17
437.726	1	9
437.897	1	22
438.067	1	23
438.238	1	30
438.408	1	23
438.579	1	23
438.749	1	5
438.920	1	14
439.090	1	9
439.261	1	18
439.431	1	18
439.602	1	21
439.772	1	20
439.943	1	22
440.113	1	15
440.284	1	20
440.455	1	19
440.625	1	8
440.796	1	15
440.966	1	19
441.137	1	10
441.307	1	12
441.478	1	17
441.648	1	14
441.819	1	9
441.989	1	7
442.160	1	18
442.330	1	26
442.501	1	12
442.671	1	8
442.842	1	25
443.012	1	10
443.183	1	11
443.353	1	24
443.524	1	8
443.694	1	13
443.865	1	15
444.035	1	12
444.206	1	21
444.376	1	24
444.547	1	17
444.717	1	22
444.888	1	7
445.058	1	18
445.229	1	14
445.399	1	13
445.570	1	17
445.740	1	15
445.911	1	19
446.081	1	23
446.252	1	10
446.422	1	25
446.593	1	19
446.763	1	19
446.934	1	19
447.104	1	15
447.275	1	29
447.445	1	3
447.616	1	19
447.786	1	15
447.957	1	13
448.127	1	19
448.298	1	18
448.468	1	17
448.639	1	11
448.809	1	10
448.979	1	11
449.150	1	9
449.320	1	12
449.491	1	20
449.661	1	18
449.832	1	25
450.002	1	20
450.173	1	7
450.343	1	7
450.514	1	24
450.684	1	12
450.855	1	12
451.025	1	13
451.196	1	16
451.366	1	16
451.537	1	25
451.707	1	20
451.878	1	13
452.048	1	10
452.218	1	19
452.389	1	19
452.559	1	10
452.730	1	14
452.900	1	16
453.071	1	12
453.241	1	16
453.412	1	14
453.582	1	14
453.753	1	14
453.923	1	13
454.093	1	23
454.264	1	11
454.434	1	18
454.605	1	19
454.775	1	12
454.946	1	8
455.116	1	14
455.287	1	15
455.457	1	8
455.628	1	15
455.798	1	19
455.968	1	18
456.139	1	11
456.309	1	20
456.480	1	18
456.650	1	22
456.821	1	27
456.991	1	15
457.161	1	13
457.332	1	10
457.502	1	18
457.673	1	16
457.843	1	8
458.014	1	14
458.184	1	9
458.355	1	10
458.525	1	16
458.695	1	19
458.866	1	19
459.036	1	13
459.207	1	17
459.377	1	18
459.548	1	5
459.718	1	14
459.888	1	23
460.059	1	25
460.229	1	24
460.400	1	11
460.570	1	21
460.740	1	15
460.911	1	13
461.081	1	20
461.252	1	14
461.422	1	18
461.593	1	12
461.763	1	15
461.933	1	18
462.104	1	15
462.274	1	7
462.445	1	14
462.615	1	6
462.785	1	10
462.956	1	21
463.126	1	9
463.297	1	15
463.467	1	19
463.638	1	16
463.808	1	19
463.978	1	19
464.149	1	9
464.319	1	23
464.490	1	24
464.660	1	13
464.830	1	11
465.001	1	16
465.171	1	19
465.342	1	11
465.512	1	17
465.682	1	8
465.853	1	11
466.023	1	11
466.194	1	19
466.364	1	18
466.534	1	19
466.705	1	3
466.875	1	20
467.045	1	8
467.216	1	12
467.386	1	24
467.557	1	19
467.727	1	17
467.897	1	9
468.068	1	2
468.238	1	17
468.409	1	11
468.579	1	21
468.749	1	-1
468.920	1	17
469.090	1	12
469.260	1	18
469.431	1	16
469.601	1	15
469.772	1	3
469.942	1	13
470.112	1	13
470.283	1	24
470.453	1	21
470.623	1	6
470.794	1	11
470.964	1	14
471.135	1	14
471.305	1	13
471.475	1	8
471.646	1	7
471.816	1	22
471.986	1	22
472.157	1	17
472.327	1	15
472.497	1	15
472.668	1	4
472.838	1	18
473.009	1	18
473.179	1	12
473.349	1	13
473.520	1	5
473.690	1	12
473.860	1	23
474.031	1	15
474.201	1	8
474.371	1	13
474.542	1	13
474.712	1	14
474.882	1	12
475.053	1	19
475.223	1	7
475.394	1	9
475.564	1	6
475.734	1	18
475.905	1	16
476.075	1	7
476.245	1	10
476.416	1	15
476.586	1	8
476.756	1	6
476.927	1	8
477.097	1	4
477.267	1	16
477.438	1	13
477.608	1	14
477.778	1	12
477.949	1	11
478.119	1	15
478.289	1	0
478.460	1	2
478.630	1	29
478.800	1	16
478.971	1	8
479.141	1	10
479.311	1	17
479.482	1	16
479.652	1	16
479.822	1	8
479.993	1	6
480.163	1	13
480.333	1	10
480.504	1	9
480.674	1	13
480.844	1	9
481.015	1	3
481.185	1	5
481.355	1	10
481.525	1	14
481.696	1	5
481.866	1	12
482.036	1	9
482.207	1	18
482.377	1	16
482.547	1	10
482.718	1	5
482.888	1	17
483.058	1	9
483.229	1	7
483.399	1	13
483.569	1	5
483.740	1	0
483.910	1	2
484.080	1	4
484.250	1	1
484.421	1	8
484.591	1	6
484.761	1	10
484.932	1	9
485.102	1	23
485.272	1	0
485.443	1	13
485.613	1	19
485.783	1	4
485.953	1	14
486.124	1	1
486.294	1	1
486.464	1	0
486.635	1	22
486.805	1	11
486.975	1	15
487.146	1	0
487.316	1	12
487.486	1	15
487.656	1	13
487.827	1	0
487.997	1	10
488.167	1	13
488.338	1	5
488.508	1	5
488.678	1	11
488.848	1	7
489.019	1	9
489.189	1	-5
489.359	1	14
489.529	1	12
489.700	1	13
489.870	1	-8
490.040	1	14
490.211	1	8
490.381	1	13
490.551	1	6
490.721	1	5
490.892	1	7
491.062	1	-2
491.232	1	6
491.402	1	12
491.573	1	3
491.743	1	9
491.913	1	4
492.084	1	11
492.254	1	5
492.424	1	13
492.594	1	19
492.765	1	9
492.935	1	8
493.105	1	18
493.275	1	7
493.446	1	-4
493.616	1	3
493.786	1	5
493.956	1	12
494.127	1	22
494.297	1	-2
494.467	1	13
494.637	1	17
494.808	1	7
494.978	1	7
495.148	1	12
495.318	1	12
495.489	1	-11
495.659	1	-1
495.829	1	13
495.999	1	11
496.170	1	5
496.340	1	8
496.510	1	13
496.680	1	6
496.851	1	10
497.021	1	4
497.191	1	6
497.361	1	11
497.532	1	1
497.702	1	10
497.872	1	27
498.042	1	15
498.213	1	13
498.383	1	14
498.553	1	0
498.723	1	7
498.894	1	9
499.064	1	7
499.234	1	2
499.404	1	-1
499.574	1	5
499.745	1	6
499.915	1	13
500.085	1	-3
500.255	1	10
500.426	1	11
500.596	1	1
500.766	1	5
500.936	1	12
501.106	1	6
501.277	1	12
501.447	1	10
501.617	1	12
501.787	1	8
501.958	1	7
502.128	1	3
502.298	1	9
502.468	1	11
502.638	1	8
502.809	1	10
502.979	1	19
503.149	1	5
503.319	1	3
503.489	1	1
503.660	1	2
503.830	1	11
504.000	1	13
504.170	1	12
504.340	1	3
504.511	1	13
504.681	1	-2
504.851	1	2
505.021	1	10
505.192	1	-5
505.362	1	5
505.532	1	8
505.702	1	9
505.872	1	3
506.043	1	17
506.213	1	11
506.383	1	12
506.553	1	5
506.723	1	7
506.893	1	-13
507.064	1	-3
507.234	1	1
507.404	1	-1
507.574	1	8
507.744	1	11
507.915	1	4
508.085	1	11
508.255	1	5
508.425	1	-3
508.595	1	1
508.766	1	8
508.936	1	8
509.106	1	7
509.276	1	9
509.446	1	0
509.616	1	7
509.787	1	14
509.957	1	12
510.127	1	0
510.297	1	6
510.467	1	0
510.638	1	9
510.808	1	2
510.978	1	-6
511.148	1	15
511.318	1	2
511.488	1	9
511.659	1	-3
511.829	1	8
511.999	1	10
512.169	1	0
512.339	1	9
512.509	1	3
512.680	1	4
512.850	1	5
513.020	1	10
513.190	1	0
513.360	1	8
513.530	1	7
513.700	1	9
513.871	1	17
514.041	1	4
514.211	1	5
514.381	1	12
514.551	1	8
514.721	1	16
514.892	1	7
515.062	1	8
515.232	1	10
515.402	1	2
515.572	1	4
515.742	1	8
515.912	1	5
516.083	1	11
516.253	1	9
516.423	1	2
516.593	1	8
516.763	1	7
516.933	1	-15
517.104	1	5
517.274	1	-9
517.444	1	8
517.614	1	6
517.784	1	21
517.954	1	12
518.124	1	5
518.294	1	14
518.465	1	13
518.635	1	-2
518.805	1	12
518.975	1	1
519.145	1	5
519.315	1	8
519.485	1	4
519.656	1	8
519.826	1	16
519.996	1	1
520.166	1	14
520.336	1	-3
520.506	1	-6
520.676	1	8
520.846	1	10
521.017	1	-1
521.187	1	16
521.357	1	-8
521.527	1	3
521.697	1	10
521.867	1	1
522.037	1	-6
522.207	1	4
522.377	1	11
522.548	1	10
522.718	1	2
522.888	1	8
523.058	1	7
523.228	1	10
523.398	1	6
523.568	1	10
523.738	1	5
523.909	1	4
524.079	1	-3
524.249	1	4
524.419	1	12
524.589	1	2
524.759	1	9
524.929	1	2
525.099	1	6
525.269	1	16
525.439	1	5
525.610	1	6
525.780	1	4
525.950	1	7
526.120	1	1
526.290	1	3
526.460	1	2
526.630	1	8
526.800	1	5
526.970	1	10
527.140	1	11
527.311	1	1
527.481	1	8
527.651	1	2
527.821	1	-9
527.991	1	4
528.161	1	10
528.331	1	9
528.501	1	8
528.671	1	5
528.841	1	14
529.011	1	-1
529.181	1	9
529.352	1	0
529.522	1	6
529.692	1	7
529.862	1	-2
530.032	1	3
530.202	1	1
530.372	1	7
530.542	1	2
530.712	1	3
530.882	1	6
531.052	1	11
531.222	1	0
531.392	1	2
531.563	1	7
531.733	1	4
531.903	1	13
532.073	1	2
532.243	1	-3
532.413	1	9
532.583	1	3
532.753	1	6
532.923	1	15
533.093	1	13
533.263	1	-6
533.433	1	14
533.603	1	4
533.773	1	10
533.943	1	-10
534.113	1	10
534.284	1	7
534.454	1	0
534.624	1	7
534.794	1	-1
534.964	1	6
535.134	1	11
535.304	1	8
535.474	1	-5
535.644	1	0
535.814	1	10
535.984	1	13
536.154	1	5
536.324	1	12
536.494	1	7
536.664	1	12
536.834	1	12
537.004	1	5
537.174	1	-1
537.344	1	6
537.514	1	3
537.685	1	5
537.855	1	11
538.025	1	-1
538.195	1	0
538.365	1	-5
538.535	1	6
538.705	1	18
538.875	1	10
539.045	1	-1
539.215	1	-15
539.385	1	-2
539.555	1	12
539.725	1	-2
539.895	1	12
540.065	1	-1
540.235	1	10
540.405	1	8
540.575	1	-5
540.745	1	-1
540.915	1	2
541.085	1	-5
541.255	1	-9
541.425	1	7
541.595	1	8
541.765	1	22
541.935	1	2
542.105	1	4
542.275	1	2
542.445	1	-3
542.615	1	10
542.785	1	-7
542.955	1	1
543.125	1	-4
543.295	1	6
543.465	1	4
543.635	1	0
543.805	1	8
543.975	1	-4
544.145	1	6
544.315	1	2
544.485	1	9
544.655	1	10
544.825	1	9
544.995	1	10
545.165	1	8
545.335	1	-9
545.505	1	17
545.675	1	-11
545.845	1	10
546.015	1	7
546.185	1	3
546.355	1	5
546.525	1	2
546.695	1	8
546.865	1	13
547.035	1	-1
547.205	1	8
547.375	1	2
547.545	1	11
547.715	1	-1
547.885	1	9
548.055	1	0
548.225	1	7
548.395	1	5
548.565	1	9
548.735	1	8
548.905	1	-6
549.075	1	12
549.245	1	4
549.415	1	2
549.585	1	1
549.755	1	1
549.925	1	10
550.095	1	2
550.265	1	-2
550.435	1	-12
550.605	1	-2
550.775	1	-1
550.945	1	11
551.115	1	7
551.285	1	-3
551.455	1	2
551.625	1	-3
551.795	1	-7
551.965	1	12
552.135	1	0
552.305	1	-4
552.475	1	-1
552.645	1	-3
552.815	1	0
552.985	1	5
553.155	1	-3
553.325	1	5
553.495	1	5
553.665	1	9
553.835	1	6
554.004	1	-6
554.174	1	2
554.344	1	-4
554.514	1	1
554.684	1	-6
554.854	1	-1
555.024	1	-4
555.194	1	5
555.364	1	9
555.534	1	3
555.704	1	12
555.874	1	-7
556.044	1	19
556.214	1	7
556.384	1	5
556.554	1	0
556.724	1	5
556.894	1	-7
557.064	1	1
557.234	1	1
557.404	1	-1
557.573	1	1
557.743	1	5
557.913	1	0
558.083	1	10
558.253	1	-2
558.423	1	-1
558.593	1	7
558.763	1	4
558.933	1	10
559.103	1	16
559.273	1	-1
559.443	1	2
559.613	1	-2
559.783	1	8
559.953	1	10
560.122	1	-7
560.292	1	-1
560.462	1	-8
560.632	1	3
560.802	1	-3
560.972	1	1
561.142	1	5
561.312	1	6
561.482	1	16
561.652	1	-3
561.822	1	-4
561.992	1	-10
562.162	1	12
562.331	1	9
562.501	1	-3
562.671	1	7
562.841	1	5
563.011	1	-11
563.181	1	13
563.351	1	6
563.521	1	3
563.691	1	7
563.861	1	-11
564.031	1	-7
564.201	1	2
564.370	1	-3
564.540	1	1
564.710	1	5
564.880	1	2
565.050	1	0
565.220	1	2
565.390	1	3
565.560	1	7
565.730	1	10
565.900	1	-2
566.069	1	-3
566.239	1	3
566.409	1	2
566.579	1	5
566.749	1	3
566.919	1	8
567.089	1	0
567.259	1	6
567.429	1	10
567.599	1	3
567.768	1	6
567.938	1	0
568.108	1	6
568.278	1	2
568.448	1	6
568.618	1	4
568.788	1	-18
568.958	1	-7
569.128	1	-1
569.297	1	-3
569.467	1	7
569.637	1	10
569.807	1	0
569.977	1	9
570.147	1	1
570.317	1	4
570.487	1	3
570.656	1	5
570.826	1	-3
570.996	1	15
571.166	1	-1
571.336	1	1
571.506	1	1
571.676	1	-5
571.846	1	-6
572.015	1	13
572.185	1	2
572.355	1	12
572.525	1	-5
572.695	1	6
572.865	1	9
573.035	1	-2
573.205	1	-4
573.374	1	10
573.544	1	-2
573.714	1	15
573.884	1	7
574.054	1	0
574.224	1	-3
574.394	1	3
574.563	1	14
574.733	1	10
574.903	1	4
575.073	1	0
575.243	1	9
575.413	1	0
575.583	1	-4
575.752	1	8
575.922	1	8
576.092	1	-6
576.262	1	3
576.432	1	7
576.602	1	5
576.772	1	2
576.941	1	17
577.111	1	4
577.281	1	17
577.451	1	-5
577.621	1	1
577.791	1	-1
577.960	1	-3
578.130	1	2
578.300	1	6
578.470	1	7
578.640	1	4
578.810	1	6
578.979	1	1
579.149	1	0
579.319	1	8
579.489	1	3
579.659	1	-7
579.829	1	5
579.998	1	-6
580.168	1	-12
580.338	1	3
580.508	1	2
580.678	1	12
580.848	1	-2
581.017	1	7
581.187	1	5
581.357	1	2
581.527	1	-6
581.697	1	-7
581.867	1	2
582.036	1	12
582.206	1	-6
582.376	1	8
582.546	1	14
582.716	1	-5
582.885	1	4
583.055	1	-7
583.225	1	-1
583.395	1	-2
583.565	1	0
583.735	1	0
583.904	1	6
584.074	1	-4
584.244	1	8
584.414	1	-2
584.584	1	8
584.753	1	12
584.923	1	5
585.093	1	-1
585.263	1	1
585.433	1	20
585.602	1	3
585.772	1	5
585.942	1	1
586.112	1	5
586.282	1	4
586.451	1	-1
586.621	1	-6
586.791	1	7
586.961	1	9
587.131	1	13
587.300	1	11
587.470	1	3
587.640	1	-4
587.810	1	-1
587.980	1	4
588.149	1	13
588.319	1	4
588.489	1	-6
588.659	1	11
588.829	1	-4
588.998	1	12
589.168	1	-5
589.338	1	-1
589.508	1	3
589.677	1	-2
589.847	1	2
590.017	1	0
590.187	1	9
590.357	1	-5
590.526	1	10
590.696	1	-8
590.866	1	8
591.036	1	3
591.205	1	3
591.375	1	1
591.545	1	6
591.715	1	0
591.885	1	-3
592.054	1	7
592.224	1	3
592.394	1	-7
592.564	1	0
592.733	1	4
592.903	1	1
593.073	1	4
593.243	1	5
593.412	1	3
593.582	1	2
593.752	1	8
593.922	1	8
594.091	1	-8
594.261	1	-3
594.431	1	11
594.601	1	0
594.771	1	7
594.940	1	2
595.110	1	2
595.280	1	11
595.450	1	7
595.619	1	3
595.789	1	14
595.959	1	8
596.129	1	-6
596.298	1	5
596.468	1	6
596.638	1	10
596.808	1	-3
596.977	1	-2
597.147	1	1
597.317	1	2
597.487	1	9
597.656	1	4
597.826	1	0
597.996	1	6
598.166	1	4
598.335	1	-2
598.505	1	5
598.675	1	2
598.844	1	8
599.014	1	2
599.184	1	2
599.354	1	-1
599.523	1	0
599.693	1	4
599.863	1	9
600.033	1	8
600.202	1	10
600.372	1	0
600.542	1	8
600.712	1	14
600.881	1	5
601.051	1	6
601.221	1	8
601.390	1	19
601.560	1	5
601.730	1	1
601.900	1	15
602.069	1	-4
602.239	1	4
602.409	1	11
602.578	1	7
602.748	1	1
602.918	1	1
603.088	1	15
603.257	1	4
603.427	1	17
603.597	1	-8
603.767	1	-1
603.936	1	7
604.106	1	0
604.276	1	7
604.445	1	-6
604.615	1	-5
604.785	1	6
604.954	1	4
605.124	1	3
605.294	1	-5
605.464	1	-8
605.633	1	12
605.803	1	4
605.973	1	5
606.142	1	4
606.312	1	8
606.482	1	1
606.652	1	10
606.821	1	3
606.991	1	-2
607.161	1	5
607.330	1	3
607.500	1	5
607.670	1	3
607.839	1	2
608.009	1	8
608.179	1	3
608.348	1	6
608.518	1	-2
608.688	1	3
608.858	1	-1
609.027	1	4
609.197	1	14
609.367	1	1
609.536	1	5
609.706	1	4
609.876	1	9
610.045	1	8
610.215	1	4
610.385	1	-1
610.554	1	5
610.724	1	8
610.894	1	7
611.063	1	1
611.233	1	-2
611.403	1	9
611.572	1	4
611.742	1	5
611.912	1	4
612.081	1	4
612.251	1	9
612.421	1	4
612.590	1	0
612.760	1	12
612.930	1	7
613.099	1	9
613.269	1	-4
613.439	1	-1
613.608	1	9
613.778	1	-2
613.948	1	6
614.117	1	7
614.287	1	8
614.457	1	3
614.626	1	6
614.796	1	10
614.966	1	12
615.135	1	5
615.305	1	16
615.475	1	-8
615.644	1	13
615.814	1	1
615.984	1	0
616.153	1	4
616.323	1	2
616.493	1	5
616.662	1	2
616.832	1	2
617.002	1	2
617.171	1	1
617.341	1	-1
617.511	1	-7
617.680	1	0
617.850	1	7
618.019	1	3
618.189	1	-3
618.359	1	2
618.528	1	-3
618.698	1	8
618.868	1	-3
619.037	1	3
619.207	1	4
619.377	1	3
619.546	1	-1
619.716	1	2
619.885	1	8
620.055	1	12
620.225	1	7
620.394	1	7
620.564	1	-3
620.734	1	-1
620.903	1	5
621.073	1	-1
621.242	1	4
621.412	1	12
621.582	1	-5
621.751	1	3
621.921	1	7
622.091	1	-2
622.260	1	6
622.430	1	9
622.599	1	12
622.769	1	5
622.939	1	-5
623.108	1	5
623.278	1	17
623.448	1	7
623.617	1	2
623.787	1	14
623.956	1	11
624.126	1	1
624.296	1	2
624.465	1	6
624.635	1	7
624.804	1	-2
624.974	1	4
625.144	1	17
625.313	1	2
625.483	1	9
625.652	1	20
625.822	1	0
625.992	1	16
626.161	1	3
626.331	1	11
626.501	1	-1
626.670	1	-1
626.840	1	0
627.009	1	2
627.179	1	-9
627.348	1	14
627.518	1	6
627.688	1	5
627.857	1	-2
628.027	1	3
628.196	1	5
628.366	1	13
628.536	1	6
628.705	1	-4
628.875	1	0
629.044	1	6
629.214	1	5
629.384	1	9
629.553	1	9
629.723	1	-2
629.892	1	5
630.062	1	-7
630.232	1	11
630.401	1	3
630.571	1	11
630.740	1	-3
630.910	1	11
631.079	1	4
631.249	1	13
631.419	1	3
631.588	1	3
631.758	1	9
631.927	1	6
632.097	1	1
632.266	1	-11
632.436	1	13
632.606	1	-4
632.775	1	5
632.945	1	-5
633.114	1	4
633.284	1	8
633.453	1	18
633.623	1	11
633.793	1	2
633.962	1	2
634.132	1	1
634.301	1	-2
634.471	1	-1
634.640	1	1
634.810	1	4
634.979	1	0
635.149	1	7
635.319	1	9
635.488	1	-3
635.658	1	14
635.827	1	-6
635.997	1	5
636.166	1	7
636.336	1	16
636.505	1	2
636.675	1	-1
636.845	1	11
637.014	1	-4
637.184	1	14
637.353	1	1
637.523	1	5
637.692	1	4
637.862	1	-7
638.031	1	-2
638.201	1	1
638.370	1	12
638.540	1	2
638.710	1	9
638.879	1	7
639.049	1	-9
639.218	1	17
639.388	1	0
639.557	1	4
639.727	1	12
639.896	1	4
640.066	1	9
640.235	1	-1
640.405	1	14
640.574	1	1
640.744	1	-2
640.914	1	3
641.083	1	9
641.253	1	-2
641.422	1	12
641.592	1	2
641.761	1	10
641.931	1	3
642.100	1	2
642.270	1	-5
642.439	1	-4
642.609	1	13
642.778	1	5
642.948	1	15
643.117	1	12
643.287	1	2
643.456	1	-1
643.626	1	9
643.795	1	1
643.965	1	20
644.134	1	7
644.304	1	14
644.473	1	-7
644.643	1	-2
644.812	1	-2
644.982	1	5
645.151	1	3
645.321	1	4
645.490	1	9
645.660	1	2
645.829	1	7
645.999	1	4
646.168	1	1
646.338	1	11
646.507	1	-2
646.677	1	5
646.846	1	8
647.016	1	9
647.185	1	1
647.355	1	11
647.524	1	4
647.694	1	0
647.863	1	14
648.033	1	-1
648.202	1	1
648.372	1	1
648.541	1	2
648.711	1	7
648.880	1	7
649.050	1	4
649.219	1	6
649.389	1	0
649.558	1	6
649.728	1	2
649.897	1	7
650.067	1	17
650.236	1	-2
650.406	1	12
650.575	1	3
650.745	1	8
650.914	1	1
651.084	1	4
651.253	1	3
651.423	1	8
651.592	1	-6
651.762	1	3
651.931	1	9
652.101	1	6
652.270	1	-2
652.440	1	7
652.609	1	7
652.778	1	1
652.948	1	7
653.117	1	10
653.287	1	5
653.456	1	1
653.626	1	11
653.795	1	-6
653.965	1	-8
654.134	1	-12
654.304	1	7
654.473	1	-1
654.643	1	7
654.812	1	13
654.982	1	4
655.151	1	2
655.320	1	8
655.490	1	6
655.659	1	8
655.829	1	6
655.998	1	4
656.168	1	4
656.337	1	-2
656.507	1	1
656.676	1	1
656.846	1	19
657.015	1	4
657.184	1	4
657.354	1	14
657.523	1	3
657.693	1	0
657.862	1	-9
658.032	1	12
658.201	1	5
658.371	1	-1
658.540	1	4
658.709	1	-1
658.879	1	3
659.048	1	4
659.218	1	-2
659.387	1	4
659.557	1	9
659.726	1	1
659.895	1	-3
660.065	1	4
660.234	1	-2
660.404	1	0
660.573	1	-2
660.743	1	12
660.912	1	-4
661.081	1	-8
661.251	1	14
661.420	1	9
661.590	1	0
661.759	1	2
661.929	1	6
662.098	1	1
662.267	1	9
662.437	1	9
662.606	1	5
662.776	1	0
662.945	1	6
663.115	1	11
663.284	1	1
663.453	1	10
663.623	1	17
663.792	1	8
663.962	1	0
664.131	1	5
664.300	1	-9
664.470	1	5
664.639	1	6
664.809	1	6
664.978	1	1
665.148	1	0
665.317	1	5
665.486	1	8
665.656	1	10
665.825	1	13
665.995	1	1
666.164	1	12
666.333	1	4
666.503	1	4
666.672	1	12
666.842	1	3
667.011	1	1
667.180	1	11
667.350	1	-1
667.519	1	1
667.689	1	-6
667.858	1	17
668.027	1	1
668.197	1	14
668.366	1	-5
668.536	1	3
668.705	1	8
668.874	1	4
669.044	1	15
669.213	1	12
669.382	1	14
669.552	1	8
669.721	1	0
669.891	1	-2
670.060	1	9
670.229	1	-1
670.399	1	-9
670.568	1	4
670.738	1	4
670.907	1	3
671.076	1	5
671.246	1	-7
671.415	1	14
671.584	1	-1
671.754	1	7
671.923	1	6
672.093	1	10
672.262	1	-6
672.431	1	15
672.601	1	3
672.770	1	-2
672.939	1	-3
673.109	1	12
673.278	1	0
673.448	1	4
673.617	1	5
673.786	1	10
