325.333	1	6
325.504	1	-6
325.675	1	3
325.846	1	2
326.017	1	-7
326.188	1	4
326.359	1	2
326.531	1	7
326.702	1	2
326.873	1	-9
327.044	1	17
327.215	1	-11
327.386	1	12
327.557	1	6
327.728	1	2
327.899	1	-5
328.070	1	12
328.241	1	17
328.412	1	-8
328.583	1	4
328.754	1	-4
328.926	1	12
329.097	1	-2
329.268	1	-4
329.439	1	3
329.610	1	-2
329.781	1	14
329.952	1	5
330.123	1	6
330.294	1	-3
330.465	1	7
330.636	1	11
330.807	1	6
330.978	1	1
331.149	1	8
331.320	1	10
331.492	1	-9
331.663	1	-1
331.834	1	-4
332.005	1	4
332.176	1	5
332.347	1	10
332.518	1	11
332.689	1	-5
332.860	1	11
333.031	1	11
333.202	1	2
333.373	1	-4
333.544	1	-9
333.715	1	2
333.886	1	5
334.057	1	4
334.228	1	6
334.399	1	7
334.570	1	-5
334.741	1	-6
334.912	1	8
335.084	1	1
335.255	1	3
335.426	1	5
335.597	1	13
335.768	1	6
335.939	1	-9
336.110	1	2
336.281	1	2
336.452	1	6
336.623	1	-2
336.794	1	1
336.965	1	-2
337.136	1	11
337.307	1	9
337.478	1	11
337.649	1	-10
337.820	1	-7
337.991	1	17
338.162	1	0
338.333	1	13
338.504	1	7
338.675	1	12
338.846	1	14
339.017	1	17
339.188	1	15
339.359	1	14
339.530	1	-3
339.701	1	-5
339.872	1	-3
340.043	1	4
340.214	1	7
340.385	1	7
340.556	1	2
340.727	1	3
340.898	1	11
341.069	1	-6
341.240	1	-4
341.411	1	12
341.582	1	5
341.753	1	2
341.924	1	2
342.095	1	12
342.266	1	-5
342.437	1	-4
342.608	1	10
342.779	1	2
342.950	1	-1
343.121	1	-2
343.292	1	12
343.463	1	5
343.634	1	-2
343.805	1	6
343.976	1	-6
344.147	1	10
344.318	1	3
344.489	1	12
344.660	1	5
344.831	1	2
345.002	1	8
345.173	1	0
345.344	1	-3
345.515	1	6
345.686	1	-7
345.857	1	0
346.028	1	-11
346.199	1	11
346.370	1	4
346.541	1	2
346.712	1	9
346.883	1	5
347.054	1	3
347.225	1	-13
347.396	1	4
347.567	1	7
347.738	1	-1
347.909	1	5
348.080	1	5
348.251	1	-5
348.422	1	-2
348.593	1	12
348.764	1	-5
348.935	1	0
349.106	1	7
349.277	1	8
349.448	1	4
349.619	1	7
349.790	1	3
349.961	1	4
350.132	1	7
350.303	1	10
350.474	1	9
350.645	1	5
350.816	1	3
350.987	1	15
351.157	1	-1
351.328	1	-2
351.499	1	9
351.670	1	6
351.841	1	1
352.012	1	14
352.183	1	7
352.354	1	5
352.525	1	5
352.696	1	0
352.867	1	12
353.038	1	-3
353.209	1	2
353.380	1	2
353.551	1	-4
353.722	1	10
353.893	1	0
354.064	1	1
354.235	1	18
354.406	1	5
354.576	1	-1
354.747	1	3
354.918	1	20
355.089	1	12
355.260	1	13
355.431	1	5
355.602	1	8
355.773	1	-1
355.944	1	6
356.115	1	-3
356.286	1	13
356.457	1	7
356.628	1	3
356.799	1	6
356.970	1	2
357.141	1	13
357.311	1	-1
357.482	1	1
357.653	1	1
357.824	1	10
357.995	1	14
358.166	1	11
358.337	1	-5
358.508	1	-10
358.679	1	8
358.850	1	11
359.021	1	9
359.192	1	-1
359.363	1	-1
359.533	1	2
359.704	1	2
359.875	1	4
360.046	1	0
360.217	1	-9
360.388	1	-4
360.559	1	2
360.730	1	3
360.901	1	0
361.072	1	7
361.243	1	5
361.414	1	9
361.584	1	3
361.755	1	5
361.926	1	1
362.097	1	-3
362.268	1	12
362.439	1	7
362.610	1	0
362.781	1	4
362.952	1	-9
363.123	1	2
363.293	1	7
363.464	1	3
363.635	1	7
363.806	1	-1
363.977	1	10
364.148	1	9
364.319	1	-7
364.490	1	12
364.661	1	7
364.832	1	11
365.002	1	-2
365.173	1	3
365.344	1	5
365.515	1	16
365.686	1	-3
365.857	1	7
366.028	1	3
366.199	1	8
366.370	1	2
366.540	1	-3
366.711	1	5
366.882	1	-3
367.053	1	7
367.224	1	7
367.395	1	19
367.566	1	10
367.737	1	4
367.908	1	13
368.078	1	-3
368.249	1	6
368.420	1	9
368.591	1	14
368.762	1	-6
368.933	1	16
369.104	1	4
369.274	1	10
369.445	1	14
369.616	1	-5
369.787	1	-8
369.958	1	11
370.129	1	1
370.300	1	2
370.471	1	0
370.641	1	4
370.812	1	22
370.983	1	8
371.154	1	8
371.325	1	9
371.496	1	-5
371.667	1	9
371.837	1	7
372.008	1	16
372.179	1	4
372.350	1	5
372.521	1	7
372.692	1	-5
372.863	1	-5
373.033	1	11
373.204	1	18
373.375	1	3
373.546	1	3
373.717	1	6
373.888	1	8
374.059	1	6
374.229	1	1
374.400	1	13
374.571	1	6
374.742	1	2
374.913	1	15
375.084	1	22
375.254	1	0
375.425	1	6
375.596	1	1
375.767	1	1
375.938	1	-3
376.109	1	0
376.279	1	13
376.450	1	-1
376.621	1	5
376.792	1	10
376.963	1	7
377.134	1	13
377.304	1	7
377.475	1	6
377.646	1	3
377.817	1	-7
377.988	1	13
378.159	1	9
378.329	1	8
378.500	1	2
378.671	1	0
378.842	1	5
379.013	1	-2
379.184	1	13
379.354	1	10
379.525	1	4
379.696	1	20
379.867	1	-3
380.038	1	4
380.209	1	5
380.379	1	16
380.550	1	2
380.721	1	4
380.892	1	5
381.063	1	4
381.233	1	8
381.404	1	8
381.575	1	2
381.746	1	7
381.917	1	7
382.087	1	-1
382.258	1	15
382.429	1	8
382.600	1	9
382.771	1	10
382.941	1	8
383.112	1	0
383.283	1	20
383.454	1	4
383.625	1	-1
383.795	1	4
383.966	1	3
384.137	1	7
384.308	1	8
384.479	1	9
384.649	1	15
384.820	1	-1
384.991	1	-5
385.162	1	17
385.333	1	2
385.503	1	16
385.674	1	18
385.845	1	9
386.016	1	9
386.187	1	7
386.357	1	2
386.528	1	1
386.699	1	1
386.870	1	6
387.041	1	7
387.211	1	8
387.382	1	-3
387.553	1	15
387.724	1	2
387.894	1	19
388.065	1	17
388.236	1	14
388.407	1	14
388.578	1	14
388.748	1	7
388.919	1	15
389.090	1	11
389.261	1	21
389.431	1	13
389.602	1	-1
389.773	1	3
389.944	1	12
390.114	1	12
390.285	1	10
390.456	1	15
390.627	1	6
390.798	1	4
390.968	1	1
391.139	1	-1
391.310	1	10
391.481	1	8
391.651	1	14
391.822	1	15
391.993	1	7
392.164	1	0
392.334	1	4
392.505	1	8
392.676	1	9
392.847	1	16
393.017	1	15
393.188	1	3
393.359	1	5
393.530	1	13
393.700	1	16
393.871	1	7
394.042	1	12
394.213	1	13
394.383	1	16
394.554	1	9
394.725	1	9
394.896	1	9
395.066	1	12
395.237	1	-6
395.408	1	9
395.579	1	6
395.749	1	13
395.920	1	10
396.091	1	24
396.262	1	9
396.432	1	1
396.603	1	9
396.774	1	13
396.945	1	12
397.115	1	9
397.286	1	20
397.457	1	2
397.627	1	7
397.798	1	8
397.969	1	11
398.140	1	-4
398.310	1	13
398.481	1	17
398.652	1	10
398.823	1	-1
398.993	1	20
399.164	1	9
399.335	1	6
399.505	1	7
399.676	1	13
399.847	1	2
400.018	1	6
400.188	1	8
400.359	1	20
400.530	1	7
400.700	1	9
400.871	1	6
401.042	1	12
401.213	1	3
401.383	1	7
401.554	1	10
401.725	1	12
401.895	1	1
402.066	1	20
402.237	1	28
402.408	1	17
402.578	1	12
402.749	1	7
402.920	1	21
403.090	1	6
403.261	1	7
403.432	1	9
403.603	1	-4
403.773	1	12
403.944	1	15
404.115	1	3
404.285	1	23
404.456	1	7
404.627	1	7
404.797	1	8
404.968	1	8
405.139	1	6
405.310	1	7
405.480	1	1
405.651	1	17
405.822	1	15
405.992	1	6
406.163	1	17
406.334	1	22
406.504	1	12
406.675	1	7
406.846	1	17
407.016	1	-1
407.187	1	2
407.358	1	12
407.528	1	15
407.699	1	8
407.870	1	12
408.041	1	10
408.211	1	7
408.382	1	14
408.553	1	-1
408.723	1	12
408.894	1	7
409.065	1	24
409.235	1	8
409.406	1	14
409.577	1	11
409.747	1	26
409.918	1	17
410.089	1	1
410.259	1	11
410.430	1	5
410.601	1	4
410.771	1	13
410.942	1	1
411.113	1	22
411.283	1	12
411.454	1	13
411.625	1	19
411.795	1	4
411.966	1	2
412.137	1	4
412.307	1	16
412.478	1	11
412.649	1	7
412.819	1	8
412.990	1	14
413.161	1	3
413.331	1	15
413.502	1	2
413.672	1	12
413.843	1	18
414.014	1	25
414.184	1	10
414.355	1	10
414.526	1	14
414.696	1	17
414.867	1	12
415.038	1	4
415.208	1	12
415.379	1	18
415.550	1	17
415.720	1	9
415.891	1	19
416.062	1	8
416.232	1	21
416.403	1	16
416.573	1	10
416.744	1	8
416.915	1	11
417.085	1	6
417.256	1	11
417.427	1	15
417.597	1	4
417.768	1	12
417.939	1	10
418.109	1	-1
418.280	1	10
418.450	1	19
418.621	1	9
418.792	1	2
418.962	1	11
419.133	1	19
419.304	1	4
419.474	1	2
419.645	1	5
419.815	1	19
419.986	1	17
420.157	1	20
420.327	1	13
420.498	1	4
420.669	1	14
420.839	1	3
421.010	1	15
421.180	1	-4
421.351	1	13
421.522	1	9
421.692	1	15
421.863	1	14
422.033	1	18
422.204	1	10
422.375	1	14
422.545	1	4
422.716	1	1
422.886	1	24
423.057	1	9
423.228	1	10
423.398	1	14
423.569	1	19
423.740	1	6
423.910	1	12
424.081	1	16
424.251	1	1
424.422	1	4
424.593	1	11
424.763	1	11
424.934	1	9
425.104	1	17
425.275	1	10
425.445	1	24
425.616	1	14
425.787	1	14
425.957	1	3
426.128	1	23
426.298	1	4
426.469	1	4
426.640	1	16
426.810	1	18
426.981	1	14
427.151	1	19
427.322	1	4
427.493	1	6
427.663	1	10
427.834	1	12
428.004	1	6
428.175	1	11
428.345	1	14
428.516	1	14
428.687	1	8
428.857	1	14
429.028	1	23
429.198	1	6
429.369	1	4
429.540	1	5
429.710	1	14
429.881	1	7
430.051	1	16
430.222	1	19
430.392	1	8
430.563	1	16
430.734	1	18
430.904	1	13
431.075	1	4
431.245	1	8
431.416	1	0
431.586	1	6
431.757	1	11
431.927	1	5
432.098	1	13
432.269	1	21
432.439	1	20
432.610	1	16
432.780	1	6
432.951	1	5
433.121	1	24
433.292	1	17
433.462	1	16
433.633	1	14
433.804	1	-4
433.974	1	13
434.145	1	6
434.315	1	9
434.486	1	3
434.656	1	18
434.827	1	10
434.997	1	6
435.168	1	20
435.339	1	11
435.509	1	4
435.680	1	8
435.850	1	10
436.021	1	20
436.191	1	14
436.362	1	19
436.532	1	16
436.703	1	12
436.873	1	12
437.044	1	13
437.214	1	15
437.385	1	18
437.556	1	14
437.726	1	5
437.897	1	4
438.067	1	4
438.238	1	16
438.408	1	10
438.579	1	12
438.749	1	5
438.920	1	2
439.090	1	13
439.261	1	6
439.431	1	8
439.602	1	15
439.772	1	7
439.943	1	9
440.113	1	10
440.284	1	11
440.455	1	9
440.625	1	3
440.796	1	2
440.966	1	11
441.137	1	8
441.307	1	14
441.478	1	11
441.648	1	18
441.819	1	12
441.989	1	-2
442.160	1	0
442.330	1	10
442.501	1	15
442.671	1	18
442.842	1	15
443.012	1	8
443.183	1	8
443.353	1	13
443.524	1	10
443.694	1	11
443.865	1	6
444.035	1	10
444.206	1	3
444.376	1	18
444.547	1	5
444.717	1	12
444.888	1	9
445.058	1	18
445.229	1	10
445.399	1	6
445.570	1	5
445.740	1	7
445.911	1	9
446.081	1	10
446.252	1	4
446.422	1	12
446.593	1	20
446.763	1	17
446.934	1	24
447.104	1	5
447.275	1	17
447.445	1	5
447.616	1	5
447.786	1	7
447.957	1	10
448.127	1	27
448.298	1	19
448.468	1	15
448.639	1	7
448.809	1	8
448.979	1	21
449.150	1	14
449.320	1	6
449.491	1	19
449.661	1	14
449.832	1	13
450.002	1	16
450.173	1	14
450.343	1	11
450.514	1	8
450.684	1	11
450.855	1	14
451.025	1	6
451.196	1	21
451.366	1	9
451.537	1	1
451.707	1	11
451.878	1	0
452.048	1	10
452.218	1	15
452.389	1	7
452.559	1	6
452.730	1	10
452.900	1	14
453.071	1	12
453.241	1	19
453.412	1	2
453.582	1	8
453.753	1	6
453.923	1	7
454.093	1	12
454.264	1	4
454.434	1	20
454.605	1	9
454.775	1	5
454.946	1	7
455.116	1	3
455.287	1	7
455.457	1	0
455.628	1	14
455.798	1	13
455.968	1	13
456.139	1	4
456.309	1	25
456.480	1	12
456.650	1	14
456.821	1	19
456.991	1	5
457.161	1	8
457.332	1	8
457.502	1	14
457.673	1	13
457.843	1	6
458.014	1	13
458.184	1	11
458.355	1	11
458.525	1	5
458.695	1	7
458.866	1	15
459.036	1	14
459.207	1	14
459.377	1	17
459.548	1	-2
459.718	1	5
459.888	1	13
460.059	1	19
460.229	1	16
460.400	1	15
460.570	1	10
460.740	1	22
460.911	1	17
461.081	1	16
461.252	1	0
461.422	1	12
461.593	1	18
461.763	1	20
461.933	1	24
462.104	1	12
462.274	1	8
462.445	1	-2
462.615	1	7
462.785	1	15
462.956	1	19
463.126	1	20
463.297	1	15
463.467	1	6
463.638	1	9
463.808	1	7
463.978	1	5
464.149	1	-2
464.319	1	17
464.490	1	8
464.660	1	14
464.830	1	9
465.001	1	18
465.171	1	6
465.342	1	-2
465.512	1	12
465.682	1	5
465.853	1	-3
466.023	1	-2
466.194	1	13
466.364	1	11
466.534	1	8
466.705	1	3
466.875	1	17
467.045	1	10
467.216	1	5
467.386	1	15
467.557	1	8
467.727	1	14
467.897	1	9
468.068	1	-5
468.238	1	24
468.409	1	4
468.579	1	19
468.749	1	15
468.920	1	10
469.090	1	11
469.260	1	-1
469.431	1	6
469.601	1	9
469.772	1	-3
469.942	1	9
470.112	1	1
470.283	1	9
470.453	1	22
470.623	1	7
470.794	1	7
470.964	1	13
471.135	1	9
471.305	1	16
471.475	1	5
471.646	1	17
471.816	1	16
471.986	1	17
472.157	1	9
472.327	1	15
472.497	1	11
472.668	1	-3
472.838	1	11
473.009	1	17
473.179	1	11
473.349	1	11
473.520	1	3
473.690	1	17
473.860	1	8
474.031	1	17
474.201	1	17
474.371	1	3
474.542	1	16
474.712	1	12
474.882	1	11
475.053	1	14
475.223	1	-8
475.394	1	3
475.564	1	4
475.734	1	18
475.905	1	15
476.075	1	11
476.245	1	6
476.416	1	-7
476.586	1	2
476.756	1	2
476.927	1	5
477.097	1	7
477.267	1	13
477.438	1	13
477.608	1	5
477.778	1	8
477.949	1	6
478.119	1	12
478.289	1	7
478.460	1	0
478.630	1	29
478.800	1	3
478.971	1	7
479.141	1	11
479.311	1	11
479.482	1	17
479.652	1	8
479.822	1	17
479.993	1	6
480.163	1	13
480.333	1	12
480.504	1	2
480.674	1	10
480.844	1	0
481.015	1	11
481.185	1	1
481.355	1	18
481.525	1	12
481.696	1	7
481.866	1	8
482.036	1	8
482.207	1	11
482.377	1	10
482.547	1	6
482.718	1	0
482.888	1	4
483.058	1	-1
483.229	1	4
483.399	1	10
483.569	1	8
483.740	1	8
483.910	1	1
484.080	1	-6
484.250	1	-1
484.421	1	10
484.591	1	6
484.761	1	7
484.932	1	0
485.102	1	5
485.272	1	-7
485.443	1	8
485.613	1	18
485.783	1	17
485.953	1	11
486.124	1	8
486.294	1	-3
486.464	1	3
486.635	1	13
486.805	1	2
486.975	1	7
487.146	1	-8
487.316	1	7
487.486	1	7
487.656	1	9
487.827	1	1
487.997	1	1
488.167	1	7
488.338	1	5
488.508	1	6
488.678	1	-2
488.848	1	9
489.019	1	4
489.189	1	5
489.359	1	3
489.529	1	7
489.700	1	-3
489.870	1	-1
490.040	1	-5
490.211	1	3
490.381	1	6
490.551	1	3
490.721	1	9
490.892	1	13
491.062	1	5
491.232	1	2
491.402	1	-2
491.573	1	2
491.743	1	4
491.913	1	-5
492.084	1	10
492.254	1	13
492.424	1	10
492.594	1	10
492.765	1	3
492.935	1	1
493.105	1	11
493.275	1	7
493.446	1	-1
493.616	1	5
493.786	1	4
493.956	1	-9
494.127	1	23
494.297	1	7
494.467	1	4
494.637	1	6
494.808	1	13
494.978	1	6
495.148	1	6
495.318	1	9
495.489	1	4
495.659	1	2
495.829	1	8
495.999	1	-1
496.170	1	7
496.340	1	10
496.510	1	13
496.680	1	4
496.851	1	-4
497.021	1	-3
497.191	1	11
497.361	1	-2
497.532	1	3
497.702	1	1
497.872	1	14
498.042	1	4
498.213	1	9
498.383	1	10
498.553	1	19
498.723	1	3
498.894	1	1
499.064	1	7
499.234	1	9
499.404	1	0
499.574	1	5
499.745	1	2
499.915	1	0
500.085	1	9
500.255	1	4
500.426	1	17
500.596	1	-3
500.766	1	-3
500.936	1	8
501.106	1	13
501.277	1	11
501.447	1	10
501.617	1	13
501.787	1	-1
501.958	1	9
502.128	1	-3
502.298	1	9
502.468	1	7
502.638	1	5
502.809	1	2
502.979	1	16
503.149	1	-1
503.319	1	15
503.489	1	5
503.660	1	0
503.830	1	4
504.000	1	7
504.170	1	7
504.340	1	4
504.511	1	16
504.681	1	-7
504.851	1	2
505.021	1	4
505.192	1	6
505.362	1	8
505.532	1	6
505.702	1	-4
505.872	1	1
506.043	1	5
506.213	1	10
506.383	1	-3
506.553	1	8
506.723	1	8
506.893	1	2
507.064	1	3
507.234	1	-3
507.404	1	17
507.574	1	5
507.744	1	7
507.915	1	13
508.085	1	7
508.255	1	-2
508.425	1	-2
508.595	1	1
508.766	1	3
508.936	1	5
509.106	1	2
509.276	1	5
509.446	1	2
509.616	1	8
509.787	1	11
509.957	1	7
510.127	1	5
510.297	1	1
510.467	1	-6
510.638	1	11
510.808	1	-3
510.978	1	-6
511.148	1	24
511.318	1	-2
511.488	1	6
511.659	1	6
511.829	1	14
511.999	1	4
512.169	1	0
512.339	1	3
512.509	1	4
512.680	1	2
512.850	1	5
513.020	1	3
513.190	1	-4
513.360	1	14
513.530	1	5
513.700	1	8
513.871	1	-6
514.041	1	5
514.211	1	9
514.381	1	15
514.551	1	3
514.721	1	-1
514.892	1	3
515.062	1	-4
515.232	1	2
515.402	1	12
515.572	1	2
515.742	1	4
515.912	1	6
516.083	1	7
516.253	1	-2
516.423	1	9
516.593	1	14
516.763	1	7
516.933	1	-4
517.104	1	-4
517.274	1	-9
517.444	1	-5
517.614	1	2
517.784	1	5
517.954	1	6
518.124	1	-1
518.294	1	7
518.465	1	1
518.635	1	3
518.805	1	8
518.975	1	-3
519.145	1	9
519.315	1	-6
519.485	1	2
519.656	1	10
519.826	1	9
519.996	1	1
520.166	1	9
520.336	1	0
520.506	1	-3
520.676	1	6
520.846	1	3
521.017	1	2
521.187	1	7
521.357	1	4
521.527	1	-3
521.697	1	7
521.867	1	4
522.037	1	-9
522.207	1	-1
522.377	1	7
522.548	1	2
522.718	1	2
522.888	1	7
523.058	1	7
523.228	1	12
523.398	1	5
523.568	1	5
523.738	1	2
523.909	1	6
524.079	1	-1
524.249	1	9
524.419	1	7
524.589	1	3
524.759	1	12
524.929	1	-6
525.099	1	9
525.269	1	5
525.439	1	0
525.610	1	2
525.780	1	7
525.950	1	5
526.120	1	-5
526.290	1	-3
526.460	1	0
526.630	1	6
526.800	1	11
526.970	1	11
527.140	1	6
527.311	1	2
527.481	1	3
527.651	1	5
527.821	1	0
527.991	1	9
528.161	1	9
528.331	1	13
528.501	1	5
528.671	1	2
528.841	1	11
529.011	1	0
529.181	1	3
529.352	1	1
529.522	1	5
529.692	1	-3
529.862	1	12
530.032	1	5
530.202	1	8
530.372	1	4
530.542	1	0
530.712	1	-4
530.882	1	9
531.052	1	11
531.222	1	1
531.392	1	1
531.563	1	9
531.733	1	8
531.903	1	2
532.073	1	-7
532.243	1	6
532.413	1	14
532.583	1	-3
532.753	1	4
532.923	1	12
533.093	1	15
533.263	1	-6
533.433	1	13
533.603	1	7
533.773	1	1
533.943	1	-2
534.113	1	6
534.284	1	-7
534.454	1	-7
534.624	1	6
534.794	1	0
534.964	1	10
535.134	1	7
535.304	1	9
535.474	1	-6
535.644	1	7
535.814	1	-7
535.984	1	8
536.154	1	12
536.324	1	15
536.494	1	12
536.664	1	-2
536.834	1	-1
537.004	1	4
537.174	1	13
537.344	1	3
537.514	1	-3
537.685	1	-1
537.855	1	4
538.025	1	7
538.195	1	3
538.365	1	-3
538.535	1	5
538.705	1	11
538.875	1	4
539.045	1	1
539.215	1	-16
539.385	1	5
539.555	1	3
539.725	1	5
539.895	1	4
540.065	1	1
540.235	1	4
540.405	1	-3
540.575	1	1
540.745	1	-8
540.915	1	11
541.085	1	-4
541.255	1	-22
541.425	1	6
541.595	1	13
541.765	1	10
541.935	1	1
542.105	1	-5
542.275	1	4
542.445	1	0
542.615	1	-1
542.785	1	-2
542.955	1	1
543.125	1	-15
543.295	1	3
543.465	1	14
543.635	1	1
543.805	1	13
543.975	1	2
544.145	1	10
544.315	1	-1
544.485	1	-2
544.655	1	6
544.825	1	0
544.995	1	7
545.165	1	4
545.335	1	2
545.505	1	7
545.675	1	-6
545.845	1	1
546.015	1	19
546.185	1	3
546.355	1	-2
546.525	1	3
546.695	1	4
546.865	1	15
547.035	1	6
547.205	1	4
547.375	1	0
547.545	1	11
547.715	1	13
547.885	1	12
548.055	1	-6
548.225	1	10
548.395	1	-7
548.565	1	8
548.735	1	3
548.905	1	0
549.075	1	-1
549.245	1	-6
549.415	1	3
549.585	1	5
549.755	1	11
549.925	1	7
550.095	1	4
550.265	1	0
550.435	1	-6
550.605	1	-4
550.775	1	8
550.945	1	1
551.115	1	5
551.285	1	1
551.455	1	7
551.625	1	-4
551.795	1	4
551.965	1	4
552.135	1	4
552.305	1	0
552.475	1	2
552.645	1	2
552.815	1	-3
552.985	1	-2
553.155	1	-5
553.325	1	4
553.495	1	4
553.665	1	6
553.835	1	4
554.004	1	-4
554.174	1	-4
554.344	1	-6
554.514	1	2
554.684	1	2
554.854	1	-4
555.024	1	3
555.194	1	7
555.364	1	5
555.534	1	-3
555.704	1	8
555.874	1	-12
556.044	1	15
556.214	1	7
556.384	1	0
556.554	1	2
556.724	1	1
556.894	1	5
557.064	1	6
557.234	1	0
557.404	1	-1
557.573	1	-9
557.743	1	7
557.913	1	1
558.083	1	8
558.253	1	-3
558.423	1	0
558.593	1	7
558.763	1	5
558.933	1	0
559.103	1	3
559.273	1	2
559.443	1	12
559.613	1	-3
559.783	1	10
559.953	1	9
560.122	1	0
560.292	1	-2
560.462	1	-5
560.632	1	9
560.802	1	-3
560.972	1	6
561.142	1	7
561.312	1	3
561.482	1	0
561.652	1	8
561.822	1	-11
561.992	1	-8
562.162	1	3
562.331	1	0
562.501	1	-1
562.671	1	14
562.841	1	0
563.011	1	-9
563.181	1	4
563.351	1	3
563.521	1	4
563.691	1	13
563.861	1	3
564.031	1	-7
564.201	1	-1
564.370	1	3
564.540	1	-5
564.710	1	5
564.880	1	1
565.050	1	1
565.220	1	-7
565.390	1	10
565.560	1	12
565.730	1	6
565.900	1	-7
566.069	1	-5
566.239	1	7
566.409	1	10
566.579	1	-4
566.749	1	0
566.919	1	13
567.089	1	-3
567.259	1	2
567.429	1	5
567.599	1	-1
567.768	1	1
567.938	1	-4
568.108	1	8
568.278	1	1
568.448	1	-1
568.618	1	3
568.788	1	-13
568.958	1	-3
569.128	1	-10
569.297	1	1
569.467	1	8
569.637	1	-1
569.807	1	-1
569.977	1	6
570.147	1	-1
570.317	1	8
570.487	1	10
570.656	1	0
570.826	1	-7
570.996	1	3
571.166	1	1
571.336	1	-10
571.506	1	7
571.676	1	-5
571.846	1	-7
572.015	1	5
572.185	1	-3
572.355	1	11
572.525	1	-8
572.695	1	0
572.865	1	10
573.035	1	-2
573.205	1	-7
573.374	1	3
573.544	1	-2
573.714	1	6
573.884	1	0
574.054	1	-5
574.224	1	-2
574.394	1	1
574.563	1	8
574.733	1	0
574.903	1	0
575.073	1	11
575.243	1	3
575.413	1	1
575.583	1	8
575.752	1	0
575.922	1	3
576.092	1	-11
576.262	1	1
576.432	1	10
576.602	1	-7
576.772	1	7
576.941	1	22
577.111	1	0
577.281	1	9
577.451	1	0
577.621	1	-4
577.791	1	4
577.960	1	0
578.130	1	-1
578.300	1	0
578.470	1	7
578.640	1	-5
578.810	1	-1
578.979	1	-8
579.149	1	-8
579.319	1	-2
579.489	1	2
579.659	1	-5
579.829	1	-1
579.998	1	2
580.168	1	-2
580.338	1	1
580.508	1	5
580.678	1	18
580.848	1	-7
581.017	1	5
581.187	1	-1
581.357	1	-12
581.527	1	3
581.697	1	-4
581.867	1	3
582.036	1	-2
582.206	1	2
582.376	1	7
582.546	1	13
582.716	1	-3
582.885	1	8
583.055	1	-9
583.225	1	0
583.395	1	0
583.565	1	-6
583.735	1	-3
583.904	1	3
584.074	1	6
584.244	1	8
584.414	1	-9
584.584	1	1
584.753	1	6
584.923	1	7
585.093	1	1
585.263	1	0
585.433	1	14
585.602	1	5
585.772	1	4
585.942	1	6
586.112	1	-2
586.282	1	0
586.451	1	-3
586.621	1	0
586.791	1	-7
586.961	1	8
587.131	1	-1
587.300	1	-1
587.470	1	-4
587.640	1	-8
587.810	1	-6
587.980	1	-4
588.149	1	10
588.319	1	0
588.489	1	-9
588.659	1	5
588.829	1	-2
588.998	1	-3
589.168	1	2
589.338	1	-1
589.508	1	3
589.677	1	-1
589.847	1	3
590.017	1	5
590.187	1	5
590.357	1	-3
590.526	1	11
590.696	1	-1
590.866	1	0
591.036	1	-3
591.205	1	8
591.375	1	0
591.545	1	0
591.715	1	-8
591.885	1	2
592.054	1	3
592.224	1	5
592.394	1	-6
592.564	1	11
592.733	1	2
592.903	1	-1
593.073	1	-16
593.243	1	10
593.412	1	-6
593.582	1	6
593.752	1	5
593.922	1	10
594.091	1	-8
594.261	1	-6
594.431	1	1
594.601	1	2
594.771	1	11
594.940	1	-4
595.110	1	9
595.280	1	7
595.450	1	0
595.619	1	6
595.789	1	7
595.959	1	6
596.129	1	2
596.298	1	3
596.468	1	4
596.638	1	-1
596.808	1	-1
596.977	1	4
597.147	1	4
597.317	1	5
597.487	1	6
597.656	1	11
597.826	1	-7
597.996	1	-2
598.166	1	0
598.335	1	-9
598.505	1	-2
598.675	1	3
598.844	1	7
599.014	1	0
599.184	1	3
599.354	1	5
599.523	1	13
599.693	1	-3
599.863	1	4
600.033	1	-3
600.202	1	5
600.372	1	2
600.542	1	2
600.712	1	8
600.881	1	10
601.051	1	13
601.221	1	4
601.390	1	-2
601.560	1	1
601.730	1	4
601.900	1	12
602.069	1	-1
602.239	1	2
602.409	1	6
602.578	1	5
602.748	1	3
602.918	1	1
603.088	1	13
603.257	1	10
603.427	1	10
603.597	1	2
603.767	1	4
603.936	1	12
604.106	1	3
604.276	1	-8
604.445	1	-4
604.615	1	0
604.785	1	3
604.954	1	7
605.124	1	2
605.294	1	1
605.464	1	-1
605.633	1	8
605.803	1	11
605.973	1	0
606.142	1	5
606.312	1	1
606.482	1	-6
606.652	1	6
606.821	1	6
606.991	1	-2
607.161	1	14
607.330	1	5
607.500	1	10
607.670	1	3
607.839	1	-3
608.009	1	6
608.179	1	-1
608.348	1	6
608.518	1	5
608.688	1	7
608.858	1	-5
609.027	1	0
609.197	1	11
609.367	1	7
609.536	1	12
609.706	1	1
609.876	1	-5
610.045	1	7
610.215	1	11
610.385	1	2
610.554	1	11
610.724	1	8
610.894	1	2
611.063	1	-4
611.233	1	-9
611.403	1	-2
611.572	1	-1
611.742	1	0
611.912	1	3
612.081	1	-6
612.251	1	2
612.421	1	4
612.590	1	-4
612.760	1	10
612.930	1	-3
613.099	1	10
613.269	1	-8
613.439	1	0
613.608	1	5
613.778	1	-6
613.948	1	5
614.117	1	6
614.287	1	3
614.457	1	11
614.626	1	17
614.796	1	7
614.966	1	4
615.135	1	-3
615.305	1	1
615.475	1	2
615.644	1	0
615.814	1	1
615.984	1	12
616.153	1	7
616.323	1	-3
616.493	1	11
616.662	1	4
616.832	1	6
617.002	1	-11
617.171	1	3
617.341	1	4
617.511	1	1
617.680	1	1
617.850	1	2
618.019	1	3
618.189	1	-2
618.359	1	-17
618.528	1	-6
618.698	1	4
618.868	1	-2
619.037	1	5
619.207	1	0
619.377	1	13
619.546	1	-12
619.716	1	4
619.885	1	7
620.055	1	7
620.225	1	17
620.394	1	3
620.564	1	-8
620.734	1	3
620.903	1	8
621.073	1	4
621.242	1	0
621.412	1	4
621.582	1	-2
621.751	1	9
621.921	1	10
622.091	1	-5
622.260	1	2
622.430	1	7
622.599	1	19
622.769	1	10
622.939	1	2
623.108	1	-5
623.278	1	15
623.448	1	10
623.617	1	-3
623.787	1	8
623.956	1	12
624.126	1	-6
624.296	1	7
624.465	1	-2
624.635	1	5
624.804	1	2
624.974	1	-4
625.144	1	14
625.313	1	5
625.483	1	5
625.652	1	6
625.822	1	6
625.992	1	16
626.161	1	-5
626.331	1	7
626.501	1	-5
626.670	1	4
626.840	1	0
627.009	1	-6
627.179	1	-12
627.348	1	12
627.518	1	4
627.688	1	11
627.857	1	10
628.027	1	4
628.196	1	-5
628.366	1	-3
628.536	1	5
628.705	1	1
628.875	1	-2
629.044	1	7
629.214	1	7
629.384	1	2
629.553	1	2
629.723	1	-1
629.892	1	-5
630.062	1	-13
630.232	1	16
630.401	1	-1
630.571	1	8
630.740	1	-1
630.910	1	1
631.079	1	4
631.249	1	1
631.419	1	2
631.588	1	-1
631.758	1	2
631.927	1	1
632.097	1	3
632.266	1	-2
632.436	1	5
632.606	1	-6
632.775	1	8
632.945	1	-8
633.114	1	5
633.284	1	10
633.453	1	8
633.623	1	13
633.793	1	-1
633.962	1	3
634.132	1	-1
634.301	1	-1
634.471	1	-11
634.640	1	-4
634.810	1	13
634.979	1	6
635.149	1	2
635.319	1	13
635.488	1	-4
635.658	1	23
635.827	1	0
635.997	1	8
636.166	1	0
636.336	1	4
636.505	1	5
636.675	1	3
636.845	1	3
637.014	1	2
637.184	1	10
637.353	1	6
637.523	1	5
637.692	1	-6
637.862	1	4
638.031	1	-9
638.201	1	3
638.370	1	6
638.540	1	7
638.710	1	0
638.879	1	3
639.049	1	-2
639.218	1	8
639.388	1	2
639.557	1	3
639.727	1	4
639.896	1	2
640.066	1	21
640.235	1	-11
640.405	1	6
640.574	1	4
640.744	1	-4
640.914	1	7
641.083	1	7
641.253	1	1
641.422	1	-3
641.592	1	-4
641.761	1	4
641.931	1	-3
642.100	1	14
642.270	1	-11
642.439	1	9
642.609	1	4
642.778	1	4
642.948	1	4
643.117	1	1
643.287	1	-11
643.456	1	13
643.626	1	5
643.795	1	6
643.965	1	1
644.134	1	-7
644.304	1	17
644.473	1	1
644.643	1	1
644.812	1	4
644.982	1	0
645.151	1	4
645.321	1	5
645.490	1	8
645.660	1	-1
645.829	1	0
645.999	1	3
646.168	1	1
646.338	1	2
646.507	1	-2
646.677	1	8
646.846	1	4
647.016	1	-3
647.185	1	1
647.355	1	5
647.524	1	2
647.694	1	3
647.863	1	-1
648.033	1	-4
648.202	1	0
648.372	1	-13
648.541	1	2
648.711	1	4
648.880	1	0
649.050	1	5
649.219	1	1
649.389	1	11
649.558	1	5
649.728	1	6
649.897	1	-5
650.067	1	7
650.236	1	-4
650.406	1	10
650.575	1	6
650.745	1	6
650.914	1	-2
651.084	1	5
651.253	1	3
651.423	1	2
651.592	1	-5
651.762	1	10
651.931	1	-6
652.101	1	6
652.270	1	-1
652.440	1	12
652.609	1	3
652.778	1	8
652.948	1	3
653.117	1	8
653.287	1	3
653.456	1	-5
653.626	1	0
653.795	1	1
653.965	1	-2
654.134	1	-3
654.304	1	9
654.473	1	-5
654.643	1	5
654.812	1	6
654.982	1	-3
655.151	1	11
655.320	1	11
655.490	1	0
655.659	1	3
655.829	1	6
655.998	1	-3
656.168	1	-3
656.337	1	4
656.507	1	-3
656.676	1	8
656.846	1	7
657.015	1	3
657.184	1	2
657.354	1	13
657.523	1	-2
657.693	1	-10
657.862	1	1
658.032	1	10
658.201	1	10
658.371	1	-1
658.540	1	4
658.709	1	-2
658.879	1	2
659.048	1	12
659.218	1	2
659.387	1	-6
659.557	1	5
659.726	1	6
659.895	1	-3
660.065	1	10
660.234	1	-4
660.404	1	3
660.573	1	7
660.743	1	3
660.912	1	-11
661.081	1	-13
661.251	1	7
661.420	1	0
661.590	1	5
661.759	1	9
661.929	1	9
662.098	1	-2
662.267	1	4
662.437	1	3
662.606	1	8
662.776	1	-2
662.945	1	13
663.115	1	7
663.284	1	-1
663.453	1	9
663.623	1	8
663.792	1	7
663.962	1	1
664.131	1	-3
664.300	1	-9
664.470	1	4
664.639	1	-1
664.809	1	-1
664.978	1	4
665.148	1	1
665.317	1	-2
665.486	1	7
665.656	1	1
665.825	1	0
665.995	1	0
666.164	1	10
666.333	1	-1
666.503	1	1
666.672	1	9
666.842	1	2
667.011	1	1
667.180	1	-4
667.350	1	10
667.519	1	8
667.689	1	4
667.858	1	-2
668.027	1	1
668.197	1	18
668.366	1	-10
668.536	1	4
668.705	1	-2
668.874	1	2
669.044	1	8
669.213	1	1
669.382	1	11
669.552	1	6
669.721	1	-3
669.891	1	-5
670.060	1	6
670.229	1	-5
670.399	1	7
670.568	1	-4
670.738	1	5
670.907	1	-3
671.076	1	10
671.246	1	-7
671.415	1	9
671.584	1	3
671.754	1	1
671.923	1	10
672.093	1	-8
672.262	1	3
672.431	1	10
672.601	1	4
672.770	1	-8
672.939	1	2
673.109	1	9
673.278	1	0
673.448	1	1
673.617	1	1
673.786	1	8
