325.333	1	-1
325.504	1	12
325.675	1	6
325.846	1	3
326.017	1	6
326.188	1	9
326.359	1	9
326.531	1	4
326.702	1	10
326.873	1	-2
327.044	1	11
327.215	1	-3
327.386	1	9
327.557	1	2
327.728	1	5
327.899	1	-5
328.070	1	12
328.241	1	7
328.412	1	0
328.583	1	7
328.754	1	1
328.926	1	2
329.097	1	-9
329.268	1	-13
329.439	1	3
329.610	1	2
329.781	1	9
329.952	1	3
330.123	1	5
330.294	1	4
330.465	1	11
330.636	1	10
330.807	1	7
330.978	1	1
331.149	1	11
331.320	1	5
331.492	1	-1
331.663	1	-6
331.834	1	-9
332.005	1	6
332.176	1	10
332.347	1	13
332.518	1	9
332.689	1	10
332.860	1	2
333.031	1	9
333.202	1	2
333.373	1	-5
333.544	1	-6
333.715	1	-3
333.886	1	3
334.057	1	-1
334.228	1	-4
334.399	1	3
334.570	1	-10
334.741	1	1
334.912	1	6
335.084	1	0
335.255	1	7
335.426	1	5
335.597	1	0
335.768	1	5
335.939	1	-5
336.110	1	13
336.281	1	5
336.452	1	3
336.623	1	-8
336.794	1	1
336.965	1	4
337.136	1	7
337.307	1	12
337.478	1	3
337.649	1	-9
337.820	1	-3
337.991	1	8
338.162	1	7
338.333	1	6
338.504	1	7
338.675	1	10
338.846	1	7
339.017	1	9
339.188	1	17
339.359	1	5
339.530	1	-1
339.701	1	-3
339.872	1	1
340.043	1	0
340.214	1	-12
340.385	1	7
340.556	1	-2
340.727	1	-2
340.898	1	5
341.069	1	-9
341.240	1	-1
341.411	1	16
341.582	1	6
341.753	1	6
341.924	1	1
342.095	1	1
342.266	1	-5
342.437	1	-10
342.608	1	-1
342.779	1	2
342.950	1	3
343.121	1	-1
343.292	1	7
343.463	1	3
343.634	1	10
343.805	1	0
343.976	1	-6
344.147	1	-4
344.318	1	7
344.489	1	4
344.660	1	4
344.831	1	2
345.002	1	16
345.173	1	9
345.344	1	-4
345.515	1	11
345.686	1	-7
345.857	1	-6
346.028	1	-2
346.199	1	3
346.370	1	3
346.541	1	9
346.712	1	3
346.883	1	15
347.054	1	5
347.225	1	-4
347.396	1	1
347.567	1	3
347.738	1	-4
347.909	1	3
348.080	1	6
348.251	1	-6
348.422	1	2
348.593	1	-1
348.764	1	-5
348.935	1	9
349.106	1	5
349.277	1	3
349.448	1	8
349.619	1	5
349.790	1	4
349.961	1	13
350.132	1	0
350.303	1	4
350.474	1	-1
350.645	1	13
350.816	1	-3
350.987	1	12
351.157	1	-4
351.328	1	-4
351.499	1	11
351.670	1	-4
351.841	1	3
352.012	1	7
352.183	1	8
352.354	1	4
352.525	1	5
352.696	1	11
352.867	1	14
353.038	1	-10
353.209	1	1
353.380	1	8
353.551	1	-7
353.722	1	-3
353.893	1	1
354.064	1	2
354.235	1	7
354.406	1	7
354.576	1	-9
354.747	1	6
354.918	1	13
355.089	1	11
355.260	1	16
355.431	1	12
355.602	1	2
355.773	1	6
355.944	1	0
356.115	1	-3
356.286	1	6
356.457	1	7
356.628	1	0
356.799	1	6
356.970	1	1
357.141	1	13
357.311	1	6
357.482	1	1
357.653	1	3
357.824	1	10
357.995	1	11
358.166	1	10
358.337	1	5
358.508	1	-1
358.679	1	1
358.850	1	5
359.021	1	1
359.192	1	7
359.363	1	-10
359.533	1	1
359.704	1	10
359.875	1	6
360.046	1	5
360.217	1	-11
360.388	1	0
360.559	1	9
360.730	1	5
360.901	1	-7
361.072	1	-4
361.243	1	2
361.414	1	12
361.584	1	18
361.755	1	-1
361.926	1	-5
362.097	1	-5
362.268	1	23
362.439	1	8
362.610	1	0
362.781	1	5
362.952	1	7
363.123	1	-2
363.293	1	-1
363.464	1	-3
363.635	1	13
363.806	1	3
363.977	1	3
364.148	1	14
364.319	1	-7
364.490	1	13
364.661	1	3
364.832	1	6
365.002	1	-1
365.173	1	-5
365.344	1	5
365.515	1	-2
365.686	1	5
365.857	1	2
366.028	1	5
366.199	1	7
366.370	1	5
366.540	1	2
366.711	1	4
366.882	1	2
367.053	1	7
367.224	1	0
367.395	1	6
367.566	1	6
367.737	1	1
367.908	1	-2
368.078	1	-4
368.249	1	11
368.420	1	4
368.591	1	3
368.762	1	0
368.933	1	7
369.104	1	8
369.274	1	5
369.445	1	10
369.616	1	-1
369.787	1	0
369.958	1	19
370.129	1	-4
370.300	1	-2
370.471	1	-1
370.641	1	-1
370.812	1	14
370.983	1	-2
371.154	1	6
371.325	1	3
371.496	1	2
371.667	1	11
371.837	1	-1
372.008	1	14
372.179	1	1
372.350	1	10
372.521	1	6
372.692	1	6
372.863	1	-2
373.033	1	12
373.204	1	7
373.375	1	7
373.546	1	8
373.717	1	-2
373.888	1	13
374.059	1	20
374.229	1	4
374.400	1	5
374.571	1	7
374.742	1	7
374.913	1	9
375.084	1	14
375.254	1	4
375.425	1	-4
375.596	1	8
375.767	1	5
375.938	1	-3
376.109	1	6
376.279	1	7
376.450	1	1
376.621	1	12
376.792	1	13
376.963	1	5
377.134	1	-1
377.304	1	1
377.475	1	-1
377.646	1	3
377.817	1	3
377.988	1	2
378.159	1	8
378.329	1	6
378.500	1	4
378.671	1	-11
378.842	1	2
379.013	1	-2
379.184	1	9
379.354	1	8
379.525	1	-3
379.696	1	20
379.867	1	2
380.038	1	2
380.209	1	2
380.379	1	13
380.550	1	6
380.721	1	9
380.892	1	7
381.063	1	1
381.233	1	7
381.404	1	9
381.575	1	14
381.746	1	12
381.917	1	-2
382.087	1	-3
382.258	1	22
382.429	1	7
382.600	1	12
382.771	1	6
382.941	1	4
383.112	1	11
383.283	1	11
383.454	1	7
383.625	1	9
383.795	1	4
383.966	1	-2
384.137	1	8
384.308	1	5
384.479	1	19
384.649	1	10
384.820	1	17
384.991	1	-7
385.162	1	4
385.333	1	7
385.503	1	15
385.674	1	5
385.845	1	7
386.016	1	12
386.187	1	12
386.357	1	-3
386.528	1	3
386.699	1	3
386.870	1	11
387.041	1	9
387.211	1	8
387.382	1	-2
387.553	1	8
387.724	1	-6
387.894	1	12
388.065	1	12
388.236	1	10
388.407	1	12
388.578	1	10
388.748	1	9
388.919	1	12
389.090	1	0
389.261	1	6
389.431	1	14
389.602	1	-4
389.773	1	4
389.944	1	2
390.114	1	18
390.285	1	6
390.456	1	5
390.627	1	7
390.798	1	10
390.968	1	5
391.139	1	9
391.310	1	9
391.481	1	6
391.651	1	4
391.822	1	3
391.993	1	8
392.164	1	-9
392.334	1	2
392.505	1	2
392.676	1	2
392.847	1	11
393.017	1	9
393.188	1	12
393.359	1	5
393.530	1	15
393.700	1	13
393.871	1	13
394.042	1	10
394.213	1	9
394.383	1	13
394.554	1	2
394.725	1	14
394.896	1	11
395.066	1	13
395.237	1	7
395.408	1	3
395.579	1	6
395.749	1	8
395.920	1	4
396.091	1	16
396.262	1	3
396.432	1	-3
396.603	1	5
396.774	1	11
396.945	1	2
397.115	1	-5
397.286	1	21
397.457	1	2
397.627	1	1
397.798	1	5
397.969	1	15
398.140	1	9
398.310	1	20
398.481	1	17
398.652	1	1
398.823	1	4
398.993	1	21
399.164	1	8
399.335	1	0
399.505	1	11
399.676	1	14
399.847	1	15
400.018	1	8
400.188	1	11
400.359	1	11
400.530	1	8
400.700	1	7
400.871	1	15
401.042	1	9
401.213	1	-1
401.383	1	12
401.554	1	18
401.725	1	8
401.895	1	3
402.066	1	13
402.237	1	5
402.408	1	16
402.578	1	10
402.749	1	26
402.920	1	13
403.090	1	16
403.261	1	13
403.432	1	23
403.603	1	2
403.773	1	12
403.944	1	12
404.115	1	3
404.285	1	21
404.456	1	15
404.627	1	-2
404.797	1	11
404.968	1	-1
405.139	1	24
405.310	1	11
405.480	1	13
405.651	1	15
405.822	1	14
405.992	1	8
406.163	1	12
406.334	1	18
406.504	1	4
406.675	1	8
406.846	1	8
407.016	1	8
407.187	1	15
407.358	1	8
407.528	1	7
407.699	1	1
407.870	1	22
408.041	1	5
408.211	1	6
408.382	1	4
408.553	1	-3
408.723	1	19
408.894	1	13
409.065	1	25
409.235	1	15
409.406	1	9
409.577	1	17
409.747	1	15
409.918	1	6
410.089	1	-9
410.259	1	4
410.430	1	18
410.601	1	14
410.771	1	13
410.942	1	9
411.113	1	16
411.283	1	10
411.454	1	15
411.625	1	12
411.795	1	3
411.966	1	10
412.137	1	-1
412.307	1	5
412.478	1	26
412.649	1	12
412.819	1	2
412.990	1	12
413.161	1	16
413.331	1	8
413.502	1	0
413.672	1	14
413.843	1	6
414.014	1	17
414.184	1	17
414.355	1	7
414.526	1	7
414.696	1	13
414.867	1	3
415.038	1	0
415.208	1	12
415.379	1	15
415.550	1	19
415.720	1	14
415.891	1	26
416.062	1	12
416.232	1	7
416.403	1	8
416.573	1	4
416.744	1	1
416.915	1	11
417.085	1	6
417.256	1	10
417.427	1	7
417.597	1	6
417.768	1	9
417.939	1	5
418.109	1	2
418.280	1	10
418.450	1	17
418.621	1	5
418.792	1	10
418.962	1	11
419.133	1	14
419.304	1	-1
419.474	1	2
419.645	1	11
419.815	1	14
419.986	1	7
420.157	1	16
420.327	1	10
420.498	1	3
420.669	1	12
420.839	1	9
421.010	1	17
421.180	1	2
421.351	1	20
421.522	1	14
421.692	1	10
421.863	1	10
422.033	1	20
422.204	1	10
422.375	1	6
422.545	1	15
422.716	1	5
422.886	1	27
423.057	1	1
423.228	1	8
423.398	1	6
423.569	1	15
423.740	1	2
423.910	1	23
424.081	1	11
424.251	1	12
424.422	1	2
424.593	1	10
424.763	1	12
424.934	1	14
425.104	1	4
425.275	1	13
425.445	1	23
425.616	1	19
425.787	1	14
425.957	1	11
426.128	1	15
426.298	1	7
426.469	1	4
426.640	1	12
426.810	1	9
426.981	1	15
427.151	1	13
427.322	1	0
427.493	1	13
427.663	1	3
427.834	1	4
428.004	1	22
428.175	1	22
428.345	1	9
428.516	1	1
428.687	1	4
428.857	1	2
429.028	1	15
429.198	1	9
429.369	1	12
429.540	1	4
429.710	1	12
429.881	1	24
430.051	1	4
430.222	1	-1
430.392	1	5
430.563	1	8
430.734	1	24
430.904	1	8
431.075	1	-1
431.245	1	13
431.416	1	-3
431.586	1	14
431.757	1	17
431.927	1	1
432.098	1	15
432.269	1	17
432.439	1	7
432.610	1	2
432.780	1	5
432.951	1	10
433.121	1	27
433.292	1	4
433.462	1	14
433.633	1	13
433.804	1	-2
433.974	1	9
434.145	1	14
434.315	1	5
434.486	1	-3
434.656	1	6
434.827	1	12
434.997	1	24
435.168	1	16
435.339	1	17
435.509	1	8
435.680	1	6
435.850	1	0
436.021	1	18
436.191	1	14
436.362	1	10
436.532	1	17
436.703	1	17
436.873	1	14
437.044	1	9
437.214	1	19
437.385	1	17
437.556	1	8
437.726	1	16
437.897	1	6
438.067	1	10
438.238	1	17
438.408	1	7
438.579	1	17
438.749	1	1
438.920	1	13
439.090	1	9
439.261	1	3
439.431	1	12
439.602	1	14
439.772	1	5
439.943	1	18
440.113	1	7
440.284	1	8
440.455	1	23
440.625	1	7
440.796	1	4
440.966	1	6
441.137	1	18
441.307	1	3
441.478	1	17
441.648	1	6
441.819	1	20
441.989	1	3
442.160	1	11
442.330	1	19
442.501	1	0
442.671	1	6
442.842	1	8
443.012	1	1
443.183	1	14
443.353	1	13
443.524	1	13
443.694	1	11
443.865	1	14
444.035	1	-2
444.206	1	9
444.376	1	15
444.547	1	-3
444.717	1	13
444.888	1	6
445.058	1	8
445.229	1	14
445.399	1	8
445.570	1	8
445.740	1	13
445.911	1	8
446.081	1	10
446.252	1	1
446.422	1	14
446.593	1	13
446.763	1	11
446.934	1	18
447.104	1	11
447.275	1	12
447.445	1	7
447.616	1	8
447.786	1	9
447.957	1	10
448.127	1	22
448.298	1	6
448.468	1	20
448.639	1	5
448.809	1	-1
448.979	1	13
449.150	1	14
449.320	1	12
449.491	1	18
449.661	1	16
449.832	1	19
450.002	1	18
450.173	1	8
450.343	1	20
450.514	1	4
450.684	1	9
450.855	1	6
451.025	1	13
451.196	1	9
451.366	1	14
451.537	1	4
451.707	1	13
451.878	1	12
452.048	1	3
452.218	1	7
452.389	1	17
452.559	1	8
452.730	1	7
452.900	1	13
453.071	1	15
453.241	1	5
453.412	1	3
453.582	1	2
453.753	1	15
453.923	1	16
454.093	1	16
454.264	1	-7
454.434	1	9
454.605	1	10
454.775	1	7
454.946	1	3
455.116	1	1
455.287	1	16
455.457	1	11
455.628	1	16
455.798	1	8
455.968	1	7
456.139	1	5
456.309	1	16
456.480	1	6
456.650	1	16
456.821	1	27
456.991	1	11
457.161	1	16
457.332	1	7
457.502	1	14
457.673	1	19
457.843	1	12
458.014	1	8
458.184	1	18
458.355	1	4
458.525	1	14
458.695	1	15
458.866	1	11
459.036	1	9
459.207	1	9
459.377	1	16
459.548	1	0
459.718	1	3
459.888	1	18
460.059	1	14
460.229	1	5
460.400	1	1
460.570	1	9
460.740	1	3
460.911	1	14
461.081	1	13
461.252	1	-1
461.422	1	13
461.593	1	9
461.763	1	15
461.933	1	7
462.104	1	7
462.274	1	3
462.445	1	-3
462.615	1	8
462.785	1	7
462.956	1	11
463.126	1	7
463.297	1	8
463.467	1	5
463.638	1	14
463.808	1	13
463.978	1	11
464.149	1	6
464.319	1	8
464.490	1	10
464.660	1	11
464.830	1	3
465.001	1	8
465.171	1	0
465.342	1	9
465.512	1	12
465.682	1	6
465.853	1	-7
466.023	1	2
466.194	1	12
466.364	1	9
466.534	1	15
466.705	1	5
466.875	1	28
467.045	1	11
467.216	1	10
467.386	1	16
467.557	1	14
467.727	1	14
467.897	1	7
468.068	1	-5
468.238	1	9
468.409	1	3
468.579	1	15
468.749	1	13
468.920	1	10
469.090	1	8
469.260	1	6
469.431	1	15
469.601	1	1
469.772	1	-11
469.942	1	15
470.112	1	7
470.283	1	10
470.453	1	3
470.623	1	9
470.794	1	-1
470.964	1	5
471.135	1	7
471.305	1	5
471.475	1	6
471.646	1	13
471.816	1	7
471.986	1	18
472.157	1	0
472.327	1	9
472.497	1	15
472.668	1	1
472.838	1	12
473.009	1	11
473.179	1	7
473.349	1	8
473.520	1	7
473.690	1	15
473.860	1	14
474.031	1	11
474.201	1	3
474.371	1	7
474.542	1	15
474.712	1	5
474.882	1	-3
475.053	1	8
475.223	1	-7
475.394	1	9
475.564	1	5
475.734	1	17
475.905	1	10
476.075	1	2
476.245	1	1
476.416	1	6
476.586	1	13
476.756	1	5
476.927	1	6
477.097	1	11
477.267	1	11
477.438	1	7
477.608	1	-1
477.778	1	6
477.949	1	5
478.119	1	14
478.289	1	-6
478.460	1	-2
478.630	1	22
478.800	1	16
478.971	1	7
479.141	1	12
479.311	1	5
479.482	1	10
479.652	1	11
479.822	1	1
479.993	1	4
480.163	1	10
480.333	1	4
480.504	1	12
480.674	1	1
480.844	1	-2
481.015	1	4
481.185	1	14
481.355	1	10
481.525	1	9
481.696	1	3
481.866	1	6
482.036	1	13
482.207	1	13
482.377	1	16
482.547	1	0
482.718	1	10
482.888	1	6
483.058	1	5
483.229	1	4
483.399	1	10
483.569	1	6
483.740	1	3
483.910	1	0
484.080	1	5
484.250	1	0
484.421	1	0
484.591	1	7
484.761	1	10
484.932	1	6
485.102	1	17
485.272	1	5
485.443	1	6
485.613	1	6
485.783	1	5
485.953	1	6
486.124	1	14
486.294	1	3
486.464	1	8
486.635	1	10
486.805	1	0
486.975	1	0
487.146	1	-4
487.316	1	3
487.486	1	6
487.656	1	1
487.827	1	-4
487.997	1	10
488.167	1	6
488.338	1	6
488.508	1	4
488.678	1	4
488.848	1	-3
489.019	1	7
489.189	1	3
489.359	1	4
489.529	1	9
489.700	1	11
489.870	1	-2
490.040	1	3
490.211	1	-2
490.381	1	16
490.551	1	-2
490.721	1	7
490.892	1	10
491.062	1	2
491.232	1	-2
491.402	1	4
491.573	1	2
491.743	1	3
491.913	1	2
492.084	1	10
492.254	1	7
492.424	1	10
492.594	1	14
492.765	1	5
492.935	1	4
493.105	1	15
493.275	1	9
493.446	1	6
493.616	1	7
493.786	1	3
493.956	1	-3
494.127	1	25
494.297	1	-2
494.467	1	13
494.637	1	17
494.808	1	9
494.978	1	-4
495.148	1	-4
495.318	1	11
495.489	1	-4
495.659	1	-6
495.829	1	-4
495.999	1	1
496.170	1	-4
496.340	1	14
496.510	1	12
496.680	1	2
496.851	1	2
497.021	1	-7
497.191	1	5
497.361	1	-3
497.532	1	-3
497.702	1	6
497.872	1	24
498.042	1	7
498.213	1	9
498.383	1	6
498.553	1	-3
498.723	1	4
498.894	1	7
499.064	1	3
499.234	1	8
499.404	1	-6
499.574	1	6
499.745	1	9
499.915	1	0
500.085	1	1
500.255	1	-4
500.426	1	8
500.596	1	-3
500.766	1	-1
500.936	1	6
501.106	1	7
501.277	1	9
501.447	1	9
501.617	1	5
501.787	1	14
501.958	1	17
502.128	1	-5
502.298	1	-5
502.468	1	13
502.638	1	11
502.809	1	3
502.979	1	8
503.149	1	-4
503.319	1	9
503.489	1	-6
503.660	1	-1
503.830	1	9
504.000	1	7
504.170	1	7
504.340	1	-2
504.511	1	11
504.681	1	-3
504.851	1	5
505.021	1	15
505.192	1	-2
505.362	1	6
505.532	1	15
505.702	1	5
505.872	1	12
506.043	1	10
506.213	1	9
506.383	1	-6
506.553	1	7
506.723	1	5
506.893	1	-4
507.064	1	-6
507.234	1	-2
507.404	1	13
507.574	1	5
507.744	1	9
507.915	1	1
508.085	1	11
508.255	1	2
508.425	1	1
508.595	1	-4
508.766	1	6
508.936	1	7
509.106	1	-3
509.276	1	5
509.446	1	3
509.616	1	-4
509.787	1	13
509.957	1	13
510.127	1	-2
510.297	1	-3
510.467	1	-8
510.638	1	7
510.808	1	-3
510.978	1	2
511.148	1	17
511.318	1	7
511.488	1	17
511.659	1	1
511.829	1	-4
511.999	1	10
512.169	1	1
512.339	1	6
512.509	1	11
512.680	1	1
512.850	1	12
513.020	1	5
513.190	1	1
513.360	1	2
513.530	1	2
513.700	1	2
513.871	1	5
514.041	1	2
514.211	1	12
514.381	1	16
514.551	1	6
514.721	1	-2
514.892	1	-2
515.062	1	8
515.232	1	-3
515.402	1	8
515.572	1	2
515.742	1	1
515.912	1	1
516.083	1	6
516.253	1	15
516.423	1	5
516.593	1	3
516.763	1	1
516.933	1	-3
517.104	1	-2
517.274	1	-7
517.444	1	-1
517.614	1	-2
517.784	1	5
517.954	1	10
518.124	1	-5
518.294	1	8
518.465	1	3
518.635	1	-3
518.805	1	15
518.975	1	-6
519.145	1	13
519.315	1	-8
519.485	1	-1
519.656	1	11
519.826	1	19
519.996	1	6
520.166	1	16
520.336	1	7
520.506	1	-14
520.676	1	-3
520.846	1	-5
521.017	1	-9
521.187	1	7
521.357	1	8
521.527	1	1
521.697	1	12
521.867	1	2
522.037	1	-6
522.207	1	-6
522.377	1	6
522.548	1	4
522.718	1	-4
522.888	1	5
523.058	1	-4
523.228	1	-4
523.398	1	9
523.568	1	3
523.738	1	5
523.909	1	0
524.079	1	1
524.249	1	2
524.419	1	7
524.589	1	-4
524.759	1	2
524.929	1	7
525.099	1	7
525.269	1	7
525.439	1	-12
525.610	1	-1
525.780	1	10
525.950	1	4
526.120	1	-1
526.290	1	-5
526.460	1	-3
526.630	1	4
526.800	1	0
526.970	1	17
527.140	1	9
527.311	1	6
527.481	1	8
527.651	1	-3
527.821	1	-12
527.991	1	2
528.161	1	1
528.331	1	11
528.501	1	13
528.671	1	1
528.841	1	9
529.011	1	1
529.181	1	7
529.352	1	2
529.522	1	5
529.692	1	-3
529.862	1	6
530.032	1	2
530.202	1	8
530.372	1	0
530.542	1	-4
530.712	1	10
530.882	1	0
531.052	1	13
531.222	1	-7
531.392	1	5
531.563	1	-5
531.733	1	5
531.903	1	3
532.073	1	-1
532.243	1	-3
532.413	1	13
532.583	1	-13
532.753	1	3
532.923	1	0
533.093	1	19
533.263	1	-4
533.433	1	9
533.603	1	4
533.773	1	-2
533.943	1	-1
534.113	1	1
534.284	1	0
534.454	1	4
534.624	1	4
534.794	1	-8
534.964	1	-3
535.134	1	7
535.304	1	1
535.474	1	-6
535.644	1	3
535.814	1	13
535.984	1	5
536.154	1	2
536.324	1	16
536.494	1	8
536.664	1	12
536.834	1	-10
537.004	1	5
537.174	1	12
537.344	1	9
537.514	1	3
537.685	1	9
537.855	1	-1
538.025	1	4
538.195	1	-11
538.365	1	-3
538.535	1	1
538.705	1	10
538.875	1	3
539.045	1	4
539.215	1	-3
539.385	1	4
539.555	1	-1
539.725	1	-3
539.895	1	9
540.065	1	6
540.235	1	1
540.405	1	5
540.575	1	-4
540.745	1	3
540.915	1	7
541.085	1	-1
541.255	1	-4
541.425	1	1
541.595	1	14
541.765	1	9
541.935	1	-4
542.105	1	5
542.275	1	4
542.445	1	-4
542.615	1	5
542.785	1	-2
542.955	1	-2
543.125	1	-8
543.295	1	-7
543.465	1	7
543.635	1	8
543.805	1	14
543.975	1	2
544.145	1	-2
544.315	1	8
544.485	1	5
544.655	1	10
544.825	1	0
544.995	1	-2
545.165	1	-3
545.335	1	1
545.505	1	2
545.675	1	-5
545.845	1	8
546.015	1	8
546.185	1	6
546.355	1	5
546.525	1	7
546.695	1	-5
546.865	1	8
547.035	1	6
547.205	1	2
547.375	1	4
547.545	1	6
547.715	1	3
547.885	1	7
548.055	1	-4
548.225	1	15
548.395	1	-3
548.565	1	5
548.735	1	4
548.905	1	-4
549.075	1	3
549.245	1	3
549.415	1	-4
549.585	1	11
549.755	1	10
549.925	1	-3
550.095	1	1
550.265	1	4
550.435	1	-9
550.605	1	-11
550.775	1	-5
550.945	1	10
551.115	1	5
551.285	1	-1
551.455	1	0
551.625	1	-6
551.795	1	0
551.965	1	-3
552.135	1	4
552.305	1	3
552.475	1	-8
552.645	1	-1
552.815	1	0
552.985	1	-7
553.155	1	-8
553.325	1	4
553.495	1	3
553.665	1	6
553.835	1	8
554.004	1	-11
554.174	1	1
554.344	1	3
554.514	1	-3
554.684	1	-6
554.854	1	2
555.024	1	-10
555.194	1	10
555.364	1	-3
555.534	1	-2
555.704	1	5
555.874	1	-2
556.044	1	7
556.214	1	-9
556.384	1	1
556.554	1	7
556.724	1	7
556.894	1	-7
557.064	1	5
557.234	1	-7
557.404	1	4
557.573	1	-6
557.743	1	2
557.913	1	2
558.083	1	9
558.253	1	3
558.423	1	-4
558.593	1	6
558.763	1	0
558.933	1	2
559.103	1	7
559.273	1	-6
559.443	1	10
559.613	1	4
559.783	1	3
559.953	1	14
560.122	1	4
560.292	1	-7
560.462	1	-10
560.632	1	5
560.802	1	3
560.972	1	1
561.142	1	9
561.312	1	9
561.482	1	20
561.652	1	-3
561.822	1	-5
561.992	1	-9
562.162	1	12
562.331	1	14
562.501	1	-6
562.671	1	10
562.841	1	1
563.011	1	-1
563.181	1	18
563.351	1	1
563.521	1	1
563.691	1	-8
563.861	1	-6
564.031	1	7
564.201	1	2
564.370	1	-2
564.540	1	-4
564.710	1	1
564.880	1	2
565.050	1	3
565.220	1	-7
565.390	1	0
565.560	1	0
565.730	1	0
565.900	1	-6
566.069	1	1
566.239	1	0
566.409	1	2
566.579	1	-4
566.749	1	5
566.919	1	8
567.089	1	-6
567.259	1	11
567.429	1	6
567.599	1	-6
567.768	1	11
567.938	1	-6
568.108	1	1
568.278	1	0
568.448	1	-3
568.618	1	3
568.788	1	0
568.958	1	-13
569.128	1	-4
569.297	1	-1
569.467	1	0
569.637	1	-1
569.807	1	-2
569.977	1	4
570.147	1	-12
570.317	1	0
570.487	1	4
570.656	1	-13
570.826	1	-6
570.996	1	6
571.166	1	-3
571.336	1	0
571.506	1	2
571.676	1	-1
571.846	1	3
572.015	1	12
572.185	1	-8
572.355	1	-1
572.525	1	-1
572.695	1	3
572.865	1	5
573.035	1	-9
573.205	1	-3
573.374	1	10
573.544	1	-10
573.714	1	-2
573.884	1	5
574.054	1	-7
574.224	1	-6
574.394	1	-1
574.563	1	5
574.733	1	6
574.903	1	0
575.073	1	0
575.243	1	-3
575.413	1	-1
575.583	1	-1
575.752	1	-1
575.922	1	8
576.092	1	1
576.262	1	12
576.432	1	7
576.602	1	-4
576.772	1	-6
576.941	1	10
577.111	1	10
577.281	1	13
577.451	1	4
577.621	1	1
577.791	1	1
577.960	1	5
578.130	1	10
578.300	1	10
578.470	1	3
578.640	1	2
578.810	1	0
578.979	1	-8
579.149	1	-4
579.319	1	5
579.489	1	-3
579.659	1	7
579.829	1	9
579.998	1	0
580.168	1	-4
580.338	1	0
580.508	1	5
580.678	1	8
580.848	1	-5
581.017	1	9
581.187	1	6
581.357	1	0
581.527	1	-7
581.697	1	-4
581.867	1	5
582.036	1	1
582.206	1	-2
582.376	1	5
582.546	1	19
582.716	1	-5
582.885	1	0
583.055	1	0
583.225	1	-11
583.395	1	0
583.565	1	4
583.735	1	-2
583.904	1	4
584.074	1	-6
584.244	1	4
584.414	1	-1
584.584	1	4
584.753	1	8
584.923	1	4
585.093	1	-1
585.263	1	-6
585.433	1	17
585.602	1	-2
585.772	1	3
585.942	1	9
586.112	1	1
586.282	1	5
586.451	1	-4
586.621	1	1
586.791	1	3
586.961	1	9
587.131	1	17
587.300	1	10
587.470	1	0
587.640	1	-9
587.810	1	-7
587.980	1	-8
588.149	1	3
588.319	1	1
588.489	1	-5
588.659	1	8
588.829	1	-4
588.998	1	-5
589.168	1	1
589.338	1	0
589.508	1	1
589.677	1	0
589.847	1	7
590.017	1	4
590.187	1	-3
590.357	1	-9
590.526	1	7
590.696	1	-1
590.866	1	-1
591.036	1	-7
591.205	1	9
591.375	1	3
591.545	1	3
591.715	1	-4
591.885	1	-4
592.054	1	4
592.224	1	0
592.394	1	1
592.564	1	-2
592.733	1	2
592.903	1	6
593.073	1	9
593.243	1	7
593.412	1	-4
593.582	1	-2
593.752	1	-3
593.922	1	1
594.091	1	-7
594.261	1	-3
594.431	1	3
594.601	1	2
594.771	1	3
594.940	1	4
595.110	1	-6
595.280	1	5
595.450	1	-1
595.619	1	7
595.789	1	10
595.959	1	3
596.129	1	-2
596.298	1	12
596.468	1	3
596.638	1	1
596.808	1	-21
596.977	1	7
597.147	1	11
597.317	1	-2
597.487	1	4
597.656	1	3
597.826	1	0
597.996	1	2
598.166	1	7
598.335	1	-10
598.505	1	-8
598.675	1	-9
598.844	1	7
599.014	1	-1
599.184	1	-1
599.354	1	0
599.523	1	10
599.693	1	7
599.863	1	3
600.033	1	-4
600.202	1	9
600.372	1	7
600.542	1	7
600.712	1	8
600.881	1	9
601.051	1	5
601.221	1	13
601.390	1	8
601.560	1	14
601.730	1	-3
601.900	1	9
602.069	1	-17
602.239	1	4
602.409	1	6
602.578	1	4
602.748	1	-5
602.918	1	7
603.088	1	6
603.257	1	3
603.427	1	14
603.597	1	2
603.767	1	6
603.936	1	11
604.106	1	-1
604.276	1	-6
604.445	1	-7
604.615	1	1
604.785	1	3
604.954	1	4
605.124	1	5
605.294	1	13
605.464	1	-9
605.633	1	12
605.803	1	3
605.973	1	12
606.142	1	4
606.312	1	6
606.482	1	-2
606.652	1	13
606.821	1	-6
606.991	1	-3
607.161	1	9
607.330	1	5
607.500	1	6
607.670	1	15
607.839	1	-1
608.009	1	4
608.179	1	1
608.348	1	7
608.518	1	0
608.688	1	4
608.858	1	-7
609.027	1	-3
609.197	1	6
609.367	1	-9
609.536	1	17
609.706	1	-1
609.876	1	1
610.045	1	12
610.215	1	6
610.385	1	-9
610.554	1	-2
610.724	1	3
610.894	1	-5
611.063	1	7
611.233	1	-16
611.403	1	0
611.572	1	6
611.742	1	-2
611.912	1	7
612.081	1	4
612.251	1	7
612.421	1	-4
612.590	1	-8
612.760	1	8
612.930	1	-3
613.099	1	6
613.269	1	-8
613.439	1	-3
613.608	1	6
613.778	1	-1
613.948	1	13
614.117	1	7
614.287	1	1
614.457	1	5
614.626	1	12
614.796	1	0
614.966	1	2
615.135	1	-1
615.305	1	1
615.475	1	0
615.644	1	11
615.814	1	-1
615.984	1	5
616.153	1	0
616.323	1	3
616.493	1	10
616.662	1	-1
616.832	1	-2
617.002	1	1
617.171	1	0
617.341	1	1
617.511	1	4
617.680	1	-3
617.850	1	0
618.019	1	4
618.189	1	0
618.359	1	-10
618.528	1	-9
618.698	1	3
618.868	1	-11
619.037	1	3
619.207	1	8
619.377	1	6
619.546	1	-4
619.716	1	3
619.885	1	6
620.055	1	11
620.225	1	-2
620.394	1	0
620.564	1	-4
620.734	1	1
620.903	1	4
621.073	1	7
621.242	1	0
621.412	1	3
621.582	1	-1
621.751	1	-3
621.921	1	9
622.091	1	-1
622.260	1	-3
622.430	1	17
622.599	1	15
622.769	1	-2
622.939	1	-6
623.108	1	5
623.278	1	14
623.448	1	13
623.617	1	1
623.787	1	11
623.956	1	6
624.126	1	5
624.296	1	14
624.465	1	8
624.635	1	1
624.804	1	-1
624.974	1	2
625.144	1	6
625.313	1	5
625.483	1	5
625.652	1	1
625.822	1	7
625.992	1	10
626.161	1	1
626.331	1	3
626.501	1	1
626.670	1	0
626.840	1	1
627.009	1	1
627.179	1	-10
627.348	1	3
627.518	1	4
627.688	1	6
627.857	1	0
628.027	1	-3
628.196	1	-12
628.366	1	11
628.536	1	6
628.705	1	-3
628.875	1	8
629.044	1	11
629.214	1	2
629.384	1	-4
629.553	1	14
629.723	1	2
629.892	1	5
630.062	1	-13
630.232	1	10
630.401	1	-3
630.571	1	9
630.740	1	0
630.910	1	1
631.079	1	10
631.249	1	0
631.419	1	7
631.588	1	-4
631.758	1	1
631.927	1	4
632.097	1	6
632.266	1	-6
632.436	1	8
632.606	1	-11
632.775	1	12
632.945	1	-1
633.114	1	-4
633.284	1	5
633.453	1	11
633.623	1	17
633.793	1	7
633.962	1	-6
634.132	1	-1
634.301	1	0
634.471	1	-6
634.640	1	4
634.810	1	5
634.979	1	6
635.149	1	0
635.319	1	15
635.488	1	-3
635.658	1	11
635.827	1	-6
635.997	1	0
636.166	1	-9
636.336	1	2
636.505	1	10
636.675	1	2
636.845	1	3
637.014	1	2
637.184	1	10
637.353	1	0
637.523	1	3
637.692	1	1
637.862	1	-4
638.031	1	-6
638.201	1	-8
638.370	1	4
638.540	1	6
638.710	1	5
638.879	1	11
639.049	1	-1
639.218	1	16
639.388	1	3
639.557	1	8
639.727	1	8
639.896	1	2
640.066	1	12
640.235	1	-2
640.405	1	-1
640.574	1	1
640.744	1	-4
640.914	1	3
641.083	1	10
641.253	1	2
641.422	1	-4
641.592	1	-7
641.761	1	0
641.931	1	2
642.100	1	1
642.270	1	-5
642.439	1	-3
642.609	1	3
642.778	1	-4
642.948	1	4
643.117	1	5
643.287	1	-4
643.456	1	2
643.626	1	1
643.795	1	5
643.965	1	4
644.134	1	2
644.304	1	10
644.473	1	-5
644.643	1	-9
644.812	1	10
644.982	1	-5
645.151	1	4
645.321	1	5
645.490	1	7
645.660	1	6
645.829	1	0
645.999	1	11
646.168	1	-1
646.338	1	5
646.507	1	-3
646.677	1	7
646.846	1	9
647.016	1	-2
647.185	1	4
647.355	1	0
647.524	1	1
647.694	1	-5
647.863	1	1
648.033	1	6
648.202	1	8
648.372	1	-8
648.541	1	4
648.711	1	10
648.880	1	11
649.050	1	8
649.219	1	3
649.389	1	3
649.558	1	3
649.728	1	7
649.897	1	-6
650.067	1	4
650.236	1	6
650.406	1	6
650.575	1	2
650.745	1	6
650.914	1	3
651.084	1	3
651.253	1	-7
651.423	1	9
651.592	1	-3
651.762	1	3
651.931	1	6
652.101	1	15
652.270	1	2
652.440	1	4
652.609	1	0
652.778	1	1
652.948	1	8
653.117	1	4
653.287	1	1
653.456	1	-8
653.626	1	5
653.795	1	-2
653.965	1	-2
654.134	1	-9
654.304	1	11
654.473	1	3
654.643	1	7
654.812	1	9
654.982	1	-4
655.151	1	0
655.320	1	19
655.490	1	-8
655.659	1	1
655.829	1	-1
655.998	1	2
656.168	1	1
656.337	1	0
656.507	1	0
656.676	1	-2
656.846	1	2
657.015	1	3
657.184	1	6
657.354	1	3
657.523	1	-1
657.693	1	3
657.862	1	-9
658.032	1	10
658.201	1	10
658.371	1	-6
658.540	1	0
658.709	1	0
658.879	1	1
659.048	1	4
659.218	1	-2
659.387	1	8
659.557	1	-4
659.726	1	4
659.895	1	0
660.065	1	2
660.234	1	-7
660.404	1	-3
660.573	1	4
660.743	1	-4
660.912	1	-6
661.081	1	-6
661.251	1	11
661.420	1	5
661.590	1	3
661.759	1	0
661.929	1	5
662.098	1	1
662.267	1	-1
662.437	1	5
662.606	1	-3
662.776	1	-8
662.945	1	9
663.115	1	6
663.284	1	-9
663.453	1	4
663.623	1	4
663.792	1	4
663.962	1	-9
664.131	1	-4
664.300	1	-10
664.470	1	2
664.639	1	0
664.809	1	2
664.978	1	-1
665.148	1	-2
665.317	1	-4
665.486	1	-13
665.656	1	4
665.825	1	8
665.995	1	-3
666.164	1	11
666.333	1	0
666.503	1	6
666.672	1	10
666.842	1	-8
667.011	1	6
667.180	1	9
667.350	1	-4
667.519	1	-3
667.689	1	-5
667.858	1	-6
668.027	1	0
668.197	1	11
668.366	1	-2
668.536	1	-2
668.705	1	-3
668.874	1	1
669.044	1	5
669.213	1	1
669.382	1	12
669.552	1	13
669.721	1	3
669.891	1	-2
670.060	1	1
670.229	1	2
670.399	1	0
670.568	1	4
670.738	1	-5
670.907	1	6
671.076	1	6
671.246	1	-7
671.415	1	4
671.584	1	-2
671.754	1	-2
671.923	1	10
672.093	1	6
672.262	1	3
672.431	1	9
672.601	1	7
672.770	1	-6
672.939	1	-1
673.109	1	7
673.278	1	-4
673.448	1	5
673.617	1	8
673.786	1	4
