325.333	1	9
325.504	1	17
325.675	1	4
325.846	1	5
326.017	1	-1
326.188	1	5
326.359	1	6
326.531	1	9
326.702	1	4
326.873	1	3
327.044	1	8
327.215	1	-9
327.386	1	11
327.557	1	1
327.728	1	9
327.899	1	3
328.070	1	13
328.241	1	9
328.412	1	-1
328.583	1	4
328.754	1	-9
328.926	1	13
329.097	1	-1
329.268	1	10
329.439	1	4
329.610	1	7
329.781	1	4
329.952	1	4
330.123	1	3
330.294	1	3
330.465	1	9
330.636	1	18
330.807	1	4
330.978	1	7
331.149	1	8
331.320	1	12
331.492	1	-6
331.663	1	4
331.834	1	2
332.005	1	8
332.176	1	12
332.347	1	13
332.518	1	16
332.689	1	10
332.860	1	14
333.031	1	16
333.202	1	8
333.373	1	9
333.544	1	8
333.715	1	2
333.886	1	2
334.057	1	1
334.228	1	0
334.399	1	2
334.570	1	-6
334.741	1	15
334.912	1	8
335.084	1	-1
335.255	1	5
335.426	1	8
335.597	1	14
335.768	1	1
335.939	1	4
336.110	1	15
336.281	1	11
336.452	1	6
336.623	1	-1
336.794	1	7
336.965	1	2
337.136	1	8
337.307	1	17
337.478	1	14
337.649	1	-1
337.820	1	-2
337.991	1	11
338.162	1	13
338.333	1	14
338.504	1	9
338.675	1	12
338.846	1	13
339.017	1	23
339.188	1	20
339.359	1	9
339.530	1	16
339.701	1	3
339.872	1	12
340.043	1	-3
340.214	1	5
340.385	1	11
340.556	1	2
340.727	1	13
340.898	1	11
341.069	1	1
341.240	1	1
341.411	1	15
341.582	1	16
341.753	1	3
341.924	1	8
342.095	1	10
342.266	1	3
342.437	1	3
342.608	1	14
342.779	1	10
342.950	1	9
343.121	1	8
343.292	1	18
343.463	1	7
343.634	1	16
343.805	1	5
343.976	1	6
344.147	1	3
344.318	1	1
344.489	1	20
344.660	1	14
344.831	1	11
345.002	1	16
345.173	1	12
345.344	1	1
345.515	1	17
345.686	1	2
345.857	1	1
346.028	1	-3
346.199	1	17
346.370	1	7
346.541	1	11
346.712	1	3
346.883	1	22
347.054	1	10
347.225	1	1
347.396	1	-1
347.567	1	4
347.738	1	7
347.909	1	2
348.080	1	11
348.251	1	10
348.422	1	6
348.593	1	15
348.764	1	5
348.935	1	15
349.106	1	13
349.277	1	10
349.448	1	10
349.619	1	9
349.790	1	9
349.961	1	6
350.132	1	13
350.303	1	13
350.474	1	6
350.645	1	17
350.816	1	13
350.987	1	11
351.157	1	11
351.328	1	9
351.499	1	8
351.670	1	14
351.841	1	6
352.012	1	9
352.183	1	14
352.354	1	15
352.525	1	14
352.696	1	7
352.867	1	6
353.038	1	11
353.209	1	9
353.380	1	4
353.551	1	10
353.722	1	26
353.893	1	23
354.064	1	7
354.235	1	23
354.406	1	15
354.576	1	0
354.747	1	14
354.918	1	22
355.089	1	15
355.260	1	24
355.431	1	6
355.602	1	17
355.773	1	9
355.944	1	15
356.115	1	3
356.286	1	15
356.457	1	19
356.628	1	-4
356.799	1	8
356.970	1	4
357.141	1	10
357.311	1	10
357.482	1	2
357.653	1	19
357.824	1	8
357.995	1	18
358.166	1	15
358.337	1	4
358.508	1	4
358.679	1	13
358.850	1	5
359.021	1	4
359.192	1	7
359.363	1	4
359.533	1	16
359.704	1	10
359.875	1	14
360.046	1	3
360.217	1	5
360.388	1	5
360.559	1	22
360.730	1	10
360.901	1	8
361.072	1	12
361.243	1	14
361.414	1	18
361.584	1	30
361.755	1	11
361.926	1	7
362.097	1	3
362.268	1	21
362.439	1	20
362.610	1	15
362.781	1	22
362.952	1	2
363.123	1	3
363.293	1	10
363.464	1	21
363.635	1	19
363.806	1	20
363.977	1	17
364.148	1	15
364.319	1	2
364.490	1	16
364.661	1	13
364.832	1	17
365.002	1	14
365.173	1	-1
365.344	1	15
365.515	1	14
365.686	1	17
365.857	1	20
366.028	1	11
366.199	1	13
366.370	1	10
366.540	1	9
366.711	1	18
366.882	1	11
367.053	1	8
367.224	1	16
367.395	1	16
367.566	1	20
367.737	1	-1
367.908	1	5
368.078	1	8
368.249	1	14
368.420	1	6
368.591	1	13
368.762	1	-7
368.933	1	27
369.104	1	12
369.274	1	23
369.445	1	16
369.616	1	3
369.787	1	7
369.958	1	20
370.129	1	14
370.300	1	8
370.471	1	15
370.641	1	4
370.812	1	25
370.983	1	-1
371.154	1	19
371.325	1	17
371.496	1	3
371.667	1	16
371.837	1	18
372.008	1	17
372.179	1	10
372.350	1	22
372.521	1	1
372.692	1	14
372.863	1	6
373.033	1	34
373.204	1	17
373.375	1	9
373.546	1	19
373.717	1	18
373.888	1	18
374.059	1	20
374.229	1	8
374.400	1	22
374.571	1	19
374.742	1	13
374.913	1	16
375.084	1	30
375.254	1	10
375.425	1	12
375.596	1	12
375.767	1	5
375.938	1	6
376.109	1	11
376.279	1	23
376.450	1	7
376.621	1	24
376.792	1	17
376.963	1	10
377.134	1	5
377.304	1	15
377.475	1	12
377.646	1	4
377.817	1	6
377.988	1	19
378.159	1	20
378.329	1	20
378.500	1	9
378.671	1	14
378.842	1	7
379.013	1	23
379.184	1	17
379.354	1	23
379.525	1	13
379.696	1	27
379.867	1	11
380.038	1	10
380.209	1	22
380.379	1	14
380.550	1	12
380.721	1	10
380.892	1	18
381.063	1	17
381.233	1	20
381.404	1	13
381.575	1	24
381.746	1	14
381.917	1	19
382.087	1	22
382.258	1	27
382.429	1	19
382.600	1	16
382.771	1	15
382.941	1	0
383.112	1	14
383.283	1	24
383.454	1	21
383.625	1	23
383.795	1	8
383.966	1	22
384.137	1	16
384.308	1	14
384.479	1	25
384.649	1	19
384.820	1	22
384.991	1	5
385.162	1	27
385.333	1	16
385.503	1	34
385.674	1	22
385.845	1	12
386.016	1	9
386.187	1	13
386.357	1	17
386.528	1	14
386.699	1	22
386.870	1	28
387.041	1	19
387.211	1	12
387.382	1	5
387.553	1	20
387.724	1	22
387.894	1	26
388.065	1	23
388.236	1	22
388.407	1	14
388.578	1	31
388.748	1	22
388.919	1	26
389.090	1	21
389.261	1	26
389.431	1	19
389.602	1	16
389.773	1	15
389.944	1	14
390.114	1	26
390.285	1	28
390.456	1	23
390.627	1	25
390.798	1	17
390.968	1	12
391.139	1	25
391.310	1	30
391.481	1	17
391.651	1	15
391.822	1	29
391.993	1	20
392.164	1	-5
392.334	1	15
392.505	1	15
392.676	1	20
392.847	1	26
393.017	1	18
393.188	1	18
393.359	1	21
393.530	1	19
393.700	1	20
393.871	1	18
394.042	1	21
394.213	1	31
394.383	1	20
394.554	1	24
394.725	1	28
394.896	1	17
395.066	1	18
395.237	1	13
395.408	1	23
395.579	1	22
395.749	1	26
395.920	1	18
396.091	1	20
396.262	1	11
396.432	1	19
396.603	1	27
396.774	1	32
396.945	1	15
397.115	1	7
397.286	1	27
397.457	1	14
397.627	1	24
397.798	1	22
397.969	1	26
398.140	1	17
398.310	1	26
398.481	1	28
398.652	1	17
398.823	1	15
398.993	1	30
399.164	1	26
399.335	1	21
399.505	1	30
399.676	1	21
399.847	1	30
400.018	1	22
400.188	1	31
400.359	1	26
400.530	1	20
400.700	1	15
400.871	1	30
401.042	1	21
401.213	1	21
401.383	1	27
401.554	1	30
401.725	1	29
401.895	1	16
402.066	1	29
402.237	1	34
402.408	1	25
402.578	1	25
402.749	1	30
402.920	1	32
403.090	1	23
403.261	1	31
403.432	1	29
403.603	1	14
403.773	1	32
403.944	1	22
404.115	1	20
404.285	1	27
404.456	1	21
404.627	1	22
404.797	1	32
404.968	1	18
405.139	1	22
405.310	1	26
405.480	1	23
405.651	1	31
405.822	1	31
405.992	1	22
406.163	1	24
406.334	1	29
406.504	1	22
406.675	1	30
406.846	1	23
407.016	1	14
407.187	1	17
407.358	1	17
407.528	1	31
407.699	1	23
407.870	1	26
408.041	1	17
408.211	1	27
408.382	1	9
408.553	1	5
408.723	1	31
408.894	1	14
409.065	1	26
409.235	1	15
409.406	1	22
409.577	1	14
409.747	1	30
409.918	1	23
410.089	1	11
410.259	1	20
410.430	1	31
410.601	1	22
410.771	1	23
410.942	1	15
411.113	1	44
411.283	1	23
411.454	1	24
411.625	1	23
411.795	1	18
411.966	1	4
412.137	1	19
412.307	1	23
412.478	1	34
412.649	1	25
412.819	1	27
412.990	1	37
413.161	1	27
413.331	1	26
413.502	1	20
413.672	1	28
413.843	1	26
414.014	1	39
414.184	1	20
414.355	1	23
414.526	1	27
414.696	1	30
414.867	1	19
415.038	1	21
415.208	1	15
415.379	1	23
415.550	1	29
415.720	1	18
415.891	1	36
416.062	1	31
416.232	1	24
416.403	1	23
416.573	1	30
416.744	1	26
416.915	1	25
417.085	1	27
417.256	1	35
417.427	1	23
417.597	1	24
417.768	1	27
417.939	1	23
418.109	1	5
418.280	1	29
418.450	1	33
418.621	1	22
418.792	1	14
418.962	1	17
419.133	1	27
419.304	1	19
419.474	1	16
419.645	1	14
419.815	1	21
419.986	1	24
420.157	1	32
420.327	1	23
420.498	1	16
420.669	1	34
420.839	1	24
421.010	1	23
421.180	1	22
421.351	1	25
421.522	1	26
421.692	1	27
421.863	1	31
422.033	1	27
422.204	1	23
422.375	1	24
422.545	1	26
422.716	1	20
422.886	1	29
423.057	1	22
423.228	1	24
423.398	1	26
423.569	1	28
423.740	1	26
423.910	1	36
424.081	1	23
424.251	1	22
424.422	1	26
424.593	1	24
424.763	1	26
424.934	1	34
425.104	1	17
425.275	1	19
425.445	1	36
425.616	1	27
425.787	1	25
425.957	1	20
426.128	1	27
426.298	1	26
426.469	1	16
426.640	1	25
426.810	1	27
426.981	1	30
427.151	1	19
427.322	1	16
427.493	1	24
427.663	1	26
427.834	1	26
428.004	1	28
428.175	1	25
428.345	1	31
428.516	1	18
428.687	1	17
428.857	1	22
429.028	1	30
429.198	1	28
429.369	1	24
429.540	1	30
429.710	1	28
429.881	1	23
430.051	1	24
430.222	1	19
430.392	1	23
430.563	1	23
430.734	1	37
430.904	1	18
431.075	1	13
431.245	1	37
431.416	1	9
431.586	1	20
431.757	1	36
431.927	1	16
432.098	1	23
432.269	1	38
432.439	1	35
432.610	1	30
432.780	1	28
432.951	1	29
433.121	1	28
433.292	1	34
433.462	1	36
433.633	1	29
433.804	1	27
433.974	1	26
434.145	1	28
434.315	1	24
434.486	1	16
434.656	1	18
434.827	1	25
434.997	1	36
435.168	1	25
435.339	1	24
435.509	1	22
435.680	1	30
435.850	1	27
436.021	1	35
436.191	1	29
436.362	1	34
436.532	1	36
436.703	1	35
436.873	1	19
437.044	1	32
437.214	1	20
437.385	1	31
437.556	1	33
437.726	1	25
437.897	1	21
438.067	1	32
438.238	1	22
438.408	1	29
438.579	1	33
438.749	1	19
438.920	1	25
439.090	1	34
439.261	1	17
439.431	1	26
439.602	1	26
439.772	1	27
439.943	1	24
440.113	1	21
440.284	1	24
440.455	1	25
440.625	1	17
440.796	1	27
440.966	1	24
441.137	1	21
441.307	1	24
441.478	1	30
441.648	1	23
441.819	1	21
441.989	1	21
442.160	1	18
442.330	1	34
442.501	1	15
442.671	1	30
442.842	1	27
443.012	1	22
443.183	1	23
443.353	1	26
443.524	1	25
443.694	1	24
443.865	1	45
444.035	1	27
444.206	1	16
444.376	1	41
444.547	1	26
444.717	1	31
444.888	1	32
445.058	1	27
445.229	1	25
445.399	1	25
445.570	1	13
445.740	1	24
445.911	1	22
446.081	1	30
446.252	1	16
446.422	1	27
446.593	1	31
446.763	1	27
446.934	1	29
447.104	1	31
447.275	1	25
447.445	1	20
447.616	1	32
447.786	1	19
447.957	1	22
448.127	1	38
448.298	1	28
448.468	1	35
448.639	1	17
448.809	1	22
448.979	1	29
449.150	1	15
449.320	1	30
449.491	1	31
449.661	1	35
449.832	1	27
450.002	1	22
450.173	1	21
450.343	1	29
450.514	1	34
450.684	1	31
450.855	1	21
451.025	1	29
451.196	1	31
451.366	1	18
451.537	1	26
451.707	1	30
451.878	1	23
452.048	1	15
452.218	1	26
452.389	1	22
452.559	1	16
452.730	1	36
452.900	1	23
453.071	1	25
453.241	1	32
453.412	1	23
453.582	1	6
453.753	1	26
453.923	1	24
454.093	1	28
454.264	1	16
454.434	1	23
454.605	1	30
454.775	1	25
454.946	1	31
455.116	1	17
455.287	1	12
455.457	1	13
455.628	1	19
455.798	1	21
455.968	1	24
456.139	1	25
456.309	1	30
456.480	1	21
456.650	1	28
456.821	1	39
456.991	1	29
457.161	1	24
457.332	1	16
457.502	1	29
457.673	1	30
457.843	1	18
458.014	1	17
458.184	1	22
458.355	1	19
458.525	1	23
458.695	1	23
458.866	1	33
459.036	1	20
459.207	1	24
459.377	1	24
459.548	1	8
459.718	1	28
459.888	1	28
460.059	1	36
460.229	1	19
460.400	1	22
460.570	1	26
460.740	1	17
460.911	1	23
461.081	1	23
461.252	1	17
461.422	1	24
461.593	1	29
461.763	1	29
461.933	1	25
462.104	1	20
462.274	1	15
462.445	1	13
462.615	1	24
462.785	1	16
462.956	1	28
463.126	1	13
463.297	1	26
463.467	1	25
463.638	1	16
463.808	1	20
463.978	1	32
464.149	1	11
464.319	1	24
464.490	1	21
464.660	1	23
464.830	1	20
465.001	1	12
465.171	1	21
465.342	1	20
465.512	1	19
465.682	1	22
465.853	1	12
466.023	1	16
466.194	1	14
466.364	1	29
466.534	1	20
466.705	1	2
466.875	1	29
467.045	1	15
467.216	1	28
467.386	1	35
467.557	1	23
467.727	1	27
467.897	1	17
468.068	1	4
468.238	1	22
468.409	1	13
468.579	1	20
468.749	1	20
468.920	1	13
469.090	1	17
469.260	1	21
469.431	1	29
469.601	1	13
469.772	1	4
469.942	1	26
470.112	1	19
470.283	1	29
470.453	1	23
470.623	1	16
470.794	1	14
470.964	1	23
471.135	1	24
471.305	1	14
471.475	1	12
471.646	1	16
471.816	1	13
471.986	1	25
472.157	1	20
472.327	1	25
472.497	1	20
472.668	1	20
472.838	1	29
473.009	1	25
473.179	1	20
473.349	1	16
473.520	1	24
473.690	1	23
473.860	1	15
474.031	1	14
474.201	1	20
474.371	1	17
474.542	1	23
474.712	1	21
474.882	1	20
475.053	1	19
475.223	1	4
475.394	1	20
475.564	1	22
475.734	1	24
475.905	1	22
476.075	1	22
476.245	1	14
476.416	1	10
476.586	1	12
476.756	1	15
476.927	1	10
477.097	1	19
477.267	1	20
477.438	1	26
477.608	1	10
477.778	1	13
477.949	1	13
478.119	1	17
478.289	1	15
478.460	1	8
478.630	1	30
478.800	1	19
478.971	1	23
479.141	1	16
479.311	1	16
479.482	1	18
479.652	1	21
479.822	1	15
479.993	1	13
480.163	1	25
480.333	1	19
480.504	1	9
480.674	1	16
480.844	1	8
481.015	1	18
481.185	1	12
481.355	1	16
481.525	1	20
481.696	1	15
481.866	1	13
482.036	1	25
482.207	1	25
482.377	1	24
482.547	1	3
482.718	1	13
482.888	1	21
483.058	1	17
483.229	1	18
483.399	1	32
483.569	1	19
483.740	1	14
483.910	1	7
484.080	1	12
484.250	1	1
484.421	1	10
484.591	1	14
484.761	1	15
484.932	1	9
485.102	1	15
485.272	1	17
485.443	1	17
485.613	1	27
485.783	1	25
485.953	1	14
486.124	1	17
486.294	1	9
486.464	1	11
486.635	1	20
486.805	1	9
486.975	1	28
487.146	1	11
487.316	1	10
487.486	1	22
487.656	1	8
487.827	1	7
487.997	1	10
488.167	1	7
488.338	1	11
488.508	1	11
488.678	1	16
488.848	1	18
489.019	1	3
489.189	1	6
489.359	1	17
489.529	1	17
489.700	1	12
489.870	1	9
490.040	1	23
490.211	1	12
490.381	1	15
490.551	1	7
490.721	1	12
490.892	1	11
491.062	1	5
491.232	1	1
491.402	1	15
491.573	1	15
491.743	1	11
491.913	1	10
492.084	1	21
492.254	1	17
492.424	1	11
492.594	1	21
492.765	1	14
492.935	1	6
493.105	1	13
493.275	1	14
493.446	1	2
493.616	1	13
493.786	1	12
493.956	1	13
494.127	1	18
494.297	1	10
494.467	1	10
494.637	1	20
494.808	1	18
494.978	1	10
495.148	1	11
495.318	1	16
495.489	1	-1
495.659	1	-2
495.829	1	11
495.999	1	12
496.170	1	7
496.340	1	27
496.510	1	12
496.680	1	9
496.851	1	13
497.021	1	8
497.191	1	4
497.361	1	0
497.532	1	12
497.702	1	28
497.872	1	20
498.042	1	19
498.213	1	21
498.383	1	14
498.553	1	-4
498.723	1	13
498.894	1	9
499.064	1	11
499.234	1	10
499.404	1	-2
499.574	1	10
499.745	1	6
499.915	1	21
500.085	1	9
500.255	1	12
500.426	1	18
500.596	1	1
500.766	1	12
500.936	1	19
501.106	1	13
501.277	1	10
501.447	1	17
501.617	1	15
501.787	1	10
501.958	1	16
502.128	1	2
502.298	1	3
502.468	1	18
502.638	1	9
502.809	1	4
502.979	1	22
503.149	1	-2
503.319	1	5
503.489	1	1
503.660	1	4
503.830	1	13
504.000	1	18
504.170	1	14
504.340	1	1
504.511	1	22
504.681	1	8
504.851	1	9
505.021	1	18
505.192	1	9
505.362	1	8
505.532	1	10
505.702	1	4
505.872	1	9
506.043	1	13
506.213	1	20
506.383	1	10
506.553	1	13
506.723	1	10
506.893	1	1
507.064	1	4
507.234	1	16
507.404	1	13
507.574	1	12
507.744	1	11
507.915	1	12
508.085	1	5
508.255	1	13
508.425	1	3
508.595	1	9
508.766	1	-3
508.936	1	20
509.106	1	14
509.276	1	6
509.446	1	7
509.616	1	4
509.787	1	12
509.957	1	9
510.127	1	10
510.297	1	12
510.467	1	1
510.638	1	16
510.808	1	10
510.978	1	3
511.148	1	16
511.318	1	3
511.488	1	21
511.659	1	-1
511.829	1	17
511.999	1	8
512.169	1	2
512.339	1	11
512.509	1	11
512.680	1	5
512.850	1	9
513.020	1	18
513.190	1	11
513.360	1	5
513.530	1	-2
513.700	1	12
513.871	1	16
514.041	1	7
514.211	1	9
514.381	1	10
514.551	1	10
514.721	1	13
514.892	1	-1
515.062	1	10
515.232	1	5
515.402	1	11
515.572	1	7
515.742	1	11
515.912	1	8
516.083	1	6
516.253	1	14
516.423	1	7
516.593	1	8
516.763	1	5
516.933	1	-7
517.104	1	1
517.274	1	-3
517.444	1	9
517.614	1	10
517.784	1	14
517.954	1	12
518.124	1	3
518.294	1	8
518.465	1	4
518.635	1	0
518.805	1	27
518.975	1	1
519.145	1	11
519.315	1	5
519.485	1	5
519.656	1	15
519.826	1	17
519.996	1	8
520.166	1	9
520.336	1	-1
520.506	1	-9
520.676	1	12
520.846	1	7
521.017	1	8
521.187	1	10
521.357	1	13
521.527	1	9
521.697	1	23
521.867	1	-2
522.037	1	-5
522.207	1	2
522.377	1	10
522.548	1	11
522.718	1	6
522.888	1	14
523.058	1	11
523.228	1	-1
523.398	1	3
523.568	1	16
523.738	1	8
523.909	1	11
524.079	1	6
524.249	1	14
524.419	1	5
524.589	1	7
524.759	1	11
524.929	1	3
525.099	1	4
525.269	1	15
525.439	1	9
525.610	1	3
525.780	1	0
525.950	1	6
526.120	1	8
526.290	1	8
526.460	1	-2
526.630	1	9
526.800	1	14
526.970	1	10
527.140	1	4
527.311	1	3
527.481	1	12
527.651	1	6
527.821	1	5
527.991	1	11
528.161	1	3
528.331	1	14
528.501	1	11
528.671	1	1
528.841	1	5
529.011	1	-1
529.181	1	12
529.352	1	10
529.522	1	7
529.692	1	-2
529.862	1	10
530.032	1	10
530.202	1	13
530.372	1	7
530.542	1	-1
530.712	1	9
530.882	1	2
531.052	1	15
531.222	1	-3
531.392	1	13
531.563	1	14
531.733	1	10
531.903	1	3
532.073	1	7
532.243	1	8
532.413	1	20
532.583	1	-3
532.753	1	4
532.923	1	13
533.093	1	10
533.263	1	2
533.433	1	21
533.603	1	6
533.773	1	1
533.943	1	-2
534.113	1	11
534.284	1	2
534.454	1	3
534.624	1	14
534.794	1	-2
534.964	1	-5
535.134	1	10
535.304	1	8
535.474	1	-8
535.644	1	13
535.814	1	10
535.984	1	22
536.154	1	3
536.324	1	29
536.494	1	9
536.664	1	3
536.834	1	-5
537.004	1	-1
537.174	1	3
537.344	1	6
537.514	1	5
537.685	1	5
537.855	1	8
538.025	1	5
538.195	1	6
538.365	1	-1
538.535	1	1
538.705	1	6
538.875	1	10
539.045	1	7
539.215	1	0
539.385	1	-7
539.555	1	14
539.725	1	2
539.895	1	5
540.065	1	1
540.235	1	11
540.405	1	5
540.575	1	6
540.745	1	1
540.915	1	6
541.085	1	-10
541.255	1	1
541.425	1	13
541.595	1	9
541.765	1	19
541.935	1	4
542.105	1	1
542.275	1	11
542.445	1	-1
542.615	1	11
542.785	1	-3
542.955	1	-3
543.125	1	9
543.295	1	-2
543.465	1	3
543.635	1	13
543.805	1	8
543.975	1	3
544.145	1	9
544.315	1	7
544.485	1	6
544.655	1	4
544.825	1	5
544.995	1	4
545.165	1	16
545.335	1	-6
545.505	1	17
545.675	1	-2
545.845	1	2
546.015	1	9
546.185	1	6
546.355	1	-3
546.525	1	1
546.695	1	3
546.865	1	14
547.035	1	7
547.205	1	0
547.375	1	10
547.545	1	16
547.715	1	15
547.885	1	9
548.055	1	-1
548.225	1	3
548.395	1	-1
548.565	1	10
548.735	1	6
548.905	1	-4
549.075	1	9
549.245	1	1
549.415	1	3
549.585	1	9
549.755	1	9
549.925	1	6
550.095	1	1
550.265	1	4
550.435	1	-2
550.605	1	8
550.775	1	6
550.945	1	16
551.115	1	12
551.285	1	2
551.455	1	2
551.625	1	-5
551.795	1	7
551.965	1	5
552.135	1	-2
552.305	1	-2
552.475	1	11
552.645	1	13
552.815	1	-1
552.985	1	7
553.155	1	5
553.325	1	4
553.495	1	0
553.665	1	7
553.835	1	5
554.004	1	-1
554.174	1	5
554.344	1	3
554.514	1	13
554.684	1	-5
554.854	1	5
555.024	1	3
555.194	1	13
555.364	1	11
555.534	1	0
555.704	1	17
555.874	1	-3
556.044	1	8
556.214	1	4
556.384	1	4
556.554	1	10
556.724	1	5
556.894	1	-3
557.064	1	9
557.234	1	1
557.404	1	2
557.573	1	4
557.743	1	-1
557.913	1	-8
558.083	1	12
558.253	1	-3
558.423	1	9
558.593	1	13
558.763	1	10
558.933	1	0
559.103	1	9
559.273	1	-3
559.443	1	6
559.613	1	9
559.783	1	7
559.953	1	8
560.122	1	3
560.292	1	3
560.462	1	-1
560.632	1	7
560.802	1	1
560.972	1	7
561.142	1	8
561.312	1	-4
561.482	1	18
561.652	1	1
561.822	1	3
561.992	1	-6
562.162	1	15
562.331	1	10
562.501	1	-5
562.671	1	15
562.841	1	8
563.011	1	-6
563.181	1	8
563.351	1	2
563.521	1	3
563.691	1	16
563.861	1	-1
564.031	1	-6
564.201	1	6
564.370	1	3
564.540	1	4
564.710	1	-1
564.880	1	3
565.050	1	-5
565.220	1	2
565.390	1	7
565.560	1	8
565.730	1	11
565.900	1	-4
566.069	1	-4
566.239	1	6
566.409	1	7
566.579	1	-5
566.749	1	3
566.919	1	11
567.089	1	2
567.259	1	14
567.429	1	3
567.599	1	10
567.768	1	2
567.938	1	-12
568.108	1	10
568.278	1	-6
568.448	1	12
568.618	1	15
568.788	1	-8
568.958	1	-2
569.128	1	-8
569.297	1	8
569.467	1	7
569.637	1	5
569.807	1	-5
569.977	1	10
570.147	1	1
570.317	1	5
570.487	1	13
570.656	1	-1
570.826	1	-1
570.996	1	-3
571.166	1	-2
571.336	1	15
571.506	1	-3
571.676	1	0
571.846	1	-6
572.015	1	18
572.185	1	6
572.355	1	8
572.525	1	-13
572.695	1	3
572.865	1	11
573.035	1	-10
573.205	1	-3
573.374	1	13
573.544	1	-3
573.714	1	14
573.884	1	4
574.054	1	-1
574.224	1	-4
574.394	1	-1
574.563	1	10
574.733	1	3
574.903	1	9
575.073	1	-5
575.243	1	8
575.413	1	2
575.583	1	12
575.752	1	3
575.922	1	13
576.092	1	-9
576.262	1	5
576.432	1	12
576.602	1	3
576.772	1	-4
576.941	1	14
577.111	1	9
577.281	1	14
577.451	1	-7
577.621	1	5
577.791	1	-4
577.960	1	1
578.130	1	2
578.300	1	-1
578.470	1	-1
578.640	1	3
578.810	1	5
578.979	1	-2
579.149	1	-5
579.319	1	6
579.489	1	3
579.659	1	-2
579.829	1	7
579.998	1	-1
580.168	1	-1
580.338	1	18
580.508	1	0
580.678	1	12
580.848	1	-6
581.017	1	12
581.187	1	12
581.357	1	-1
581.527	1	4
581.697	1	-5
581.867	1	12
582.036	1	16
582.206	1	6
582.376	1	7
582.546	1	14
582.716	1	5
582.885	1	0
583.055	1	1
583.225	1	2
583.395	1	3
583.565	1	0
583.735	1	-1
583.904	1	4
584.074	1	-5
584.244	1	10
584.414	1	1
584.584	1	3
584.753	1	4
584.923	1	9
585.093	1	1
585.263	1	6
585.433	1	11
585.602	1	8
585.772	1	7
585.942	1	2
586.112	1	3
586.282	1	15
586.451	1	6
586.621	1	-3
586.791	1	8
586.961	1	9
587.131	1	7
587.300	1	9
587.470	1	3
587.640	1	-6
587.810	1	-14
587.980	1	-8
588.149	1	10
588.319	1	7
588.489	1	5
588.659	1	9
588.829	1	-10
588.998	1	7
589.168	1	6
589.338	1	2
589.508	1	9
589.677	1	0
589.847	1	3
590.017	1	-1
590.187	1	6
590.357	1	-5
590.526	1	19
590.696	1	-1
590.866	1	-1
591.036	1	6
591.205	1	10
591.375	1	-2
591.545	1	1
591.715	1	-5
591.885	1	2
592.054	1	4
592.224	1	0
592.394	1	6
592.564	1	0
592.733	1	12
592.903	1	9
593.073	1	1
593.243	1	5
593.412	1	-1
593.582	1	-3
593.752	1	3
593.922	1	8
594.091	1	-9
594.261	1	2
594.431	1	8
594.601	1	6
594.771	1	4
594.940	1	6
595.110	1	7
595.280	1	5
595.450	1	7
595.619	1	-1
595.789	1	5
595.959	1	0
596.129	1	1
596.298	1	15
596.468	1	10
596.638	1	7
596.808	1	6
596.977	1	-1
597.147	1	3
597.317	1	3
597.487	1	13
597.656	1	10
597.826	1	2
597.996	1	1
598.166	1	12
598.335	1	3
598.505	1	4
598.675	1	2
598.844	1	9
599.014	1	7
599.184	1	-2
599.354	1	1
599.523	1	12
599.693	1	4
599.863	1	14
600.033	1	2
600.202	1	13
600.372	1	2
600.542	1	7
600.712	1	2
600.881	1	11
601.051	1	6
601.221	1	14
601.390	1	16
601.560	1	8
601.730	1	11
601.900	1	7
602.069	1	-13
602.239	1	1
602.409	1	8
602.578	1	11
602.748	1	-9
602.918	1	3
603.088	1	8
603.257	1	14
603.427	1	10
603.597	1	1
603.767	1	0
603.936	1	21
604.106	1	7
604.276	1	11
604.445	1	4
604.615	1	5
604.785	1	8
604.954	1	7
605.124	1	4
605.294	1	9
605.464	1	-7
605.633	1	7
605.803	1	8
605.973	1	2
606.142	1	17
606.312	1	14
606.482	1	-1
606.652	1	13
606.821	1	-2
606.991	1	3
607.161	1	-2
607.330	1	1
607.500	1	13
607.670	1	3
607.839	1	1
608.009	1	11
608.179	1	2
608.348	1	8
608.518	1	-4
608.688	1	14
608.858	1	-5
609.027	1	7
609.197	1	5
609.367	1	-2
609.536	1	17
609.706	1	6
609.876	1	3
610.045	1	3
610.215	1	-5
610.385	1	2
610.554	1	3
610.724	1	-2
610.894	1	7
611.063	1	7
611.233	1	-7
611.403	1	8
611.572	1	8
611.742	1	-5
611.912	1	3
612.081	1	2
612.251	1	17
612.421	1	9
612.590	1	-7
612.760	1	16
612.930	1	3
613.099	1	18
613.269	1	0
613.439	1	2
613.608	1	6
613.778	1	-1
613.948	1	10
614.117	1	7
614.287	1	2
614.457	1	-3
614.626	1	19
614.796	1	13
614.966	1	12
615.135	1	8
615.305	1	12
615.475	1	-5
615.644	1	-9
615.814	1	6
615.984	1	18
616.153	1	2
616.323	1	1
616.493	1	19
616.662	1	-2
616.832	1	-1
617.002	1	7
617.171	1	7
617.341	1	15
617.511	1	0
617.680	1	3
617.850	1	3
618.019	1	7
618.189	1	5
618.359	1	4
618.528	1	0
618.698	1	6
618.868	1	3
619.037	1	2
619.207	1	10
619.377	1	7
619.546	1	2
619.716	1	0
619.885	1	0
620.055	1	16
620.225	1	15
620.394	1	1
620.564	1	-4
620.734	1	6
620.903	1	9
621.073	1	17
621.242	1	7
621.412	1	11
621.582	1	4
621.751	1	1
621.921	1	7
622.091	1	-7
622.260	1	9
622.430	1	14
622.599	1	23
622.769	1	-7
622.939	1	2
623.108	1	11
623.278	1	22
623.448	1	21
623.617	1	3
623.787	1	16
623.956	1	10
624.126	1	-4
624.296	1	13
624.465	1	5
624.635	1	5
624.804	1	7
624.974	1	5
625.144	1	15
625.313	1	4
625.483	1	0
625.652	1	16
625.822	1	3
625.992	1	11
626.161	1	7
626.331	1	8
626.501	1	10
626.670	1	3
626.840	1	20
627.009	1	5
627.179	1	-9
627.348	1	12
627.518	1	10
627.688	1	8
627.857	1	5
628.027	1	-3
628.196	1	4
628.366	1	6
628.536	1	3
628.705	1	8
628.875	1	14
629.044	1	10
629.214	1	0
629.384	1	1
629.553	1	9
629.723	1	-1
629.892	1	5
630.062	1	-4
630.232	1	13
630.401	1	-2
630.571	1	5
630.740	1	5
630.910	1	10
631.079	1	7
631.249	1	8
631.419	1	9
631.588	1	3
631.758	1	1
631.927	1	2
632.097	1	8
632.266	1	-2
632.436	1	12
632.606	1	-2
632.775	1	11
632.945	1	-5
633.114	1	11
633.284	1	4
633.453	1	6
633.623	1	10
633.793	1	5
633.962	1	10
634.132	1	10
634.301	1	9
634.471	1	-4
634.640	1	6
634.810	1	7
634.979	1	5
635.149	1	4
635.319	1	11
635.488	1	-2
635.658	1	18
635.827	1	-1
635.997	1	7
636.166	1	2
636.336	1	10
636.505	1	17
636.675	1	4
636.845	1	7
637.014	1	0
637.184	1	8
637.353	1	5
637.523	1	6
637.692	1	1
637.862	1	-7
638.031	1	4
638.201	1	16
638.370	1	3
638.540	1	1
638.710	1	8
638.879	1	17
639.049	1	-6
639.218	1	19
639.388	1	8
639.557	1	11
639.727	1	14
639.896	1	8
640.066	1	13
640.235	1	3
640.405	1	-1
640.574	1	7
640.744	1	9
640.914	1	4
641.083	1	-7
641.253	1	3
641.422	1	2
641.592	1	5
641.761	1	3
641.931	1	7
642.100	1	17
642.270	1	-6
642.439	1	-2
642.609	1	17
642.778	1	8
642.948	1	8
643.117	1	0
643.287	1	0
643.456	1	-1
643.626	1	11
643.795	1	9
643.965	1	13
644.134	1	6
644.304	1	16
644.473	1	10
644.643	1	-7
644.812	1	11
644.982	1	-3
645.151	1	4
645.321	1	10
645.490	1	23
645.660	1	10
645.829	1	-1
645.999	1	9
646.168	1	6
646.338	1	9
646.507	1	-3
646.677	1	5
646.846	1	10
647.016	1	1
647.185	1	5
647.355	1	4
647.524	1	10
647.694	1	8
647.863	1	8
648.033	1	-7
648.202	1	6
648.372	1	5
648.541	1	5
648.711	1	9
648.880	1	12
649.050	1	-3
649.219	1	10
649.389	1	-3
649.558	1	11
649.728	1	8
649.897	1	3
650.067	1	4
650.236	1	1
650.406	1	15
650.575	1	15
650.745	1	11
650.914	1	4
651.084	1	6
651.253	1	-4
651.423	1	4
651.592	1	0
651.762	1	9
651.931	1	9
652.101	1	12
652.270	1	1
652.440	1	8
652.609	1	12
652.778	1	10
652.948	1	9
653.117	1	3
653.287	1	2
653.456	1	0
653.626	1	-2
653.795	1	0
653.965	1	6
654.134	1	3
654.304	1	2
654.473	1	1
654.643	1	5
654.812	1	4
654.982	1	2
655.151	1	10
655.320	1	9
655.490	1	4
655.659	1	7
655.829	1	6
655.998	1	4
656.168	1	13
656.337	1	2
656.507	1	1
656.676	1	7
656.846	1	5
657.015	1	-5
657.184	1	14
657.354	1	12
657.523	1	10
657.693	1	5
657.862	1	-1
658.032	1	12
658.201	1	11
658.371	1	10
658.540	1	7
658.709	1	-6
658.879	1	14
659.048	1	4
659.218	1	3
659.387	1	1
659.557	1	3
659.726	1	1
659.895	1	2
660.065	1	10
660.234	1	3
660.404	1	4
660.573	1	7
660.743	1	-2
660.912	1	5
661.081	1	-17
661.251	1	19
661.420	1	18
661.590	1	9
661.759	1	5
661.929	1	1
662.098	1	7
662.267	1	8
662.437	1	9
662.606	1	7
662.776	1	-6
662.945	1	8
663.115	1	5
663.284	1	8
663.453	1	15
663.623	1	11
663.792	1	-5
663.962	1	-1
664.131	1	4
664.300	1	0
664.470	1	4
664.639	1	-1
664.809	1	4
664.978	1	13
665.148	1	-5
665.317	1	4
665.486	1	5
665.656	1	7
665.825	1	7
665.995	1	-1
666.164	1	14
666.333	1	5
666.503	1	6
666.672	1	5
666.842	1	-2
667.011	1	6
667.180	1	9
667.350	1	9
667.519	1	-2
667.689	1	5
667.858	1	6
668.027	1	10
668.197	1	23
668.366	1	3
668.536	1	2
668.705	1	12
668.874	1	4
669.044	1	17
669.213	1	14
669.382	1	9
669.552	1	3
669.721	1	12
669.891	1	6
670.060	1	4
670.229	1	-3
670.399	1	1
670.568	1	-2
670.738	1	10
670.907	1	7
671.076	1	16
671.246	1	-3
671.415	1	10
671.584	1	2
671.754	1	2
671.923	1	20
672.093	1	3
672.262	1	5
672.431	1	9
672.601	1	1
672.770	1	11
672.939	1	-4
673.109	1	6
673.278	1	0
673.448	1	1
673.617	1	5
673.786	1	10
