325.333	1	4
325.504	1	10
325.675	1	14
325.846	1	7
326.017	1	4
326.188	1	27
326.359	1	18
326.531	1	19
326.702	1	18
326.873	1	-3
327.044	1	16
327.215	1	-2
327.386	1	16
327.557	1	11
327.728	1	14
327.899	1	10
328.070	1	16
328.241	1	12
328.412	1	1
328.583	1	20
328.754	1	3
328.926	1	7
329.097	1	12
329.268	1	5
329.439	1	8
329.610	1	13
329.781	1	19
329.952	1	19
330.123	1	10
330.294	1	6
330.465	1	18
330.636	1	18
330.807	1	3
330.978	1	11
331.149	1	10
331.320	1	18
331.492	1	3
331.663	1	1
331.834	1	4
332.005	1	14
332.176	1	21
332.347	1	21
332.518	1	20
332.689	1	10
332.860	1	11
333.031	1	24
333.202	1	6
333.373	1	14
333.544	1	2
333.715	1	9
333.886	1	10
334.057	1	9
334.228	1	15
334.399	1	21
334.570	1	11
334.741	1	14
334.912	1	9
335.084	1	12
335.255	1	8
335.426	1	6
335.597	1	19
335.768	1	8
335.939	1	7
336.110	1	16
336.281	1	20
336.452	1	9
336.623	1	0
336.794	1	9
336.965	1	15
337.136	1	13
337.307	1	12
337.478	1	12
337.649	1	-2
337.820	1	3
337.991	1	24
338.162	1	12
338.333	1	16
338.504	1	26
338.675	1	21
338.846	1	16
339.017	1	28
339.188	1	22
339.359	1	22
339.530	1	10
339.701	1	-1
339.872	1	19
340.043	1	4
340.214	1	16
340.385	1	14
340.556	1	20
340.727	1	13
340.898	1	25
341.069	1	1
341.240	1	4
341.411	1	27
341.582	1	13
341.753	1	4
341.924	1	18
342.095	1	25
342.266	1	1
342.437	1	6
342.608	1	12
342.779	1	13
342.950	1	16
343.121	1	15
343.292	1	20
343.463	1	17
343.634	1	7
343.805	1	17
343.976	1	11
344.147	1	13
344.318	1	9
344.489	1	23
344.660	1	16
344.831	1	18
345.002	1	27
345.173	1	27
345.344	1	15
345.515	1	19
345.686	1	9
345.857	1	13
346.028	1	8
346.199	1	16
346.370	1	14
346.541	1	19
346.712	1	21
346.883	1	29
347.054	1	7
347.225	1	20
347.396	1	11
347.567	1	20
347.738	1	21
347.909	1	17
348.080	1	16
348.251	1	9
348.422	1	11
348.593	1	25
348.764	1	12
348.935	1	12
349.106	1	26
349.277	1	19
349.448	1	15
349.619	1	19
349.790	1	22
349.961	1	21
350.132	1	29
350.303	1	15
350.474	1	21
350.645	1	21
350.816	1	15
350.987	1	21
351.157	1	16
351.328	1	10
351.499	1	18
351.670	1	20
351.841	1	16
352.012	1	28
352.183	1	19
352.354	1	14
352.525	1	21
352.696	1	21
352.867	1	22
353.038	1	2
353.209	1	16
353.380	1	12
353.551	1	16
353.722	1	25
353.893	1	17
354.064	1	20
354.235	1	25
354.406	1	26
354.576	1	10
354.747	1	28
354.918	1	24
355.089	1	27
355.260	1	24
355.431	1	23
355.602	1	16
355.773	1	21
355.944	1	29
356.115	1	22
356.286	1	18
356.457	1	17
356.628	1	16
356.799	1	20
356.970	1	18
357.141	1	14
357.311	1	20
357.482	1	14
357.653	1	32
357.824	1	25
357.995	1	24
358.166	1	21
358.337	1	15
358.508	1	15
358.679	1	25
358.850	1	11
359.021	1	23
359.192	1	31
359.363	1	17
359.533	1	17
359.704	1	28
359.875	1	15
360.046	1	18
360.217	1	7
360.388	1	21
360.559	1	21
360.730	1	24
360.901	1	14
361.072	1	27
361.243	1	22
361.414	1	24
361.584	1	34
361.755	1	25
361.926	1	24
362.097	1	13
362.268	1	33
362.439	1	22
362.610	1	13
362.781	1	25
362.952	1	18
363.123	1	28
363.293	1	22
363.464	1	30
363.635	1	28
363.806	1	13
363.977	1	29
364.148	1	23
364.319	1	8
364.490	1	23
364.661	1	23
364.832	1	30
365.002	1	15
365.173	1	23
365.344	1	23
365.515	1	16
365.686	1	20
365.857	1	13
366.028	1	19
366.199	1	24
366.370	1	22
366.540	1	26
366.711	1	24
366.882	1	18
367.053	1	32
367.224	1	19
367.395	1	23
367.566	1	35
367.737	1	19
367.908	1	15
368.078	1	27
368.249	1	28
368.420	1	20
368.591	1	31
368.762	1	10
368.933	1	29
369.104	1	26
369.274	1	26
369.445	1	24
369.616	1	12
369.787	1	28
369.958	1	33
370.129	1	19
370.300	1	27
370.471	1	25
370.641	1	19
370.812	1	25
370.983	1	20
371.154	1	30
371.325	1	27
371.496	1	16
371.667	1	27
371.837	1	26
372.008	1	34
372.179	1	18
372.350	1	22
372.521	1	24
372.692	1	21
372.863	1	20
373.033	1	25
373.204	1	37
373.375	1	26
373.546	1	38
373.717	1	30
373.888	1	29
374.059	1	30
374.229	1	22
374.400	1	31
374.571	1	21
374.742	1	18
374.913	1	20
375.084	1	43
375.254	1	23
375.425	1	25
375.596	1	26
375.767	1	16
375.938	1	12
376.109	1	20
376.279	1	31
376.450	1	26
376.621	1	29
376.792	1	31
376.963	1	24
377.134	1	23
377.304	1	28
377.475	1	19
377.646	1	13
377.817	1	28
377.988	1	28
378.159	1	29
378.329	1	42
378.500	1	29
378.671	1	14
378.842	1	31
379.013	1	34
379.184	1	31
379.354	1	32
379.525	1	25
379.696	1	39
379.867	1	13
380.038	1	40
380.209	1	29
380.379	1	33
380.550	1	26
380.721	1	32
380.892	1	42
381.063	1	20
381.233	1	36
381.404	1	31
381.575	1	25
381.746	1	34
381.917	1	26
382.087	1	26
382.258	1	36
382.429	1	19
382.600	1	20
382.771	1	34
382.941	1	23
383.112	1	30
383.283	1	34
383.454	1	26
383.625	1	40
383.795	1	16
383.966	1	33
384.137	1	30
384.308	1	23
384.479	1	31
384.649	1	41
384.820	1	31
384.991	1	25
385.162	1	34
385.333	1	21
385.503	1	41
385.674	1	37
385.845	1	23
386.016	1	36
386.187	1	23
386.357	1	17
386.528	1	31
386.699	1	24
386.870	1	26
387.041	1	40
387.211	1	30
387.382	1	26
387.553	1	41
387.724	1	21
387.894	1	38
388.065	1	46
388.236	1	30
388.407	1	49
388.578	1	33
388.748	1	36
388.919	1	44
389.090	1	37
389.261	1	46
389.431	1	41
389.602	1	25
389.773	1	43
389.944	1	24
390.114	1	46
390.285	1	41
390.456	1	39
390.627	1	37
390.798	1	33
390.968	1	31
391.139	1	42
391.310	1	49
391.481	1	31
391.651	1	29
391.822	1	39
391.993	1	42
392.164	1	12
392.334	1	42
392.505	1	29
392.676	1	33
392.847	1	45
393.017	1	40
393.188	1	42
393.359	1	38
393.530	1	39
393.700	1	36
393.871	1	33
394.042	1	37
394.213	1	47
394.383	1	38
394.554	1	50
394.725	1	32
394.896	1	44
395.066	1	42
395.237	1	32
395.408	1	29
395.579	1	37
395.749	1	44
395.920	1	44
396.091	1	48
396.262	1	38
396.432	1	33
396.603	1	43
396.774	1	46
396.945	1	36
397.115	1	31
397.286	1	54
397.457	1	40
397.627	1	43
397.798	1	38
397.969	1	48
398.140	1	31
398.310	1	44
398.481	1	38
398.652	1	40
398.823	1	30
398.993	1	49
399.164	1	34
399.335	1	33
399.505	1	45
399.676	1	40
399.847	1	51
400.018	1	45
400.188	1	46
400.359	1	50
400.530	1	38
400.700	1	45
400.871	1	45
401.042	1	48
401.213	1	43
401.383	1	38
401.554	1	41
401.725	1	43
401.895	1	35
402.066	1	43
402.237	1	49
402.408	1	43
402.578	1	32
402.749	1	50
402.920	1	52
403.090	1	40
403.261	1	51
403.432	1	53
403.603	1	34
403.773	1	41
403.944	1	49
404.115	1	38
404.285	1	54
404.456	1	43
404.627	1	31
404.797	1	37
404.968	1	38
405.139	1	35
405.310	1	32
405.480	1	36
405.651	1	50
405.822	1	52
405.992	1	46
406.163	1	38
406.334	1	44
406.504	1	34
406.675	1	42
406.846	1	35
407.016	1	31
407.187	1	39
407.358	1	46
407.528	1	41
407.699	1	37
407.870	1	50
408.041	1	37
408.211	1	33
408.382	1	43
408.553	1	29
408.723	1	44
408.894	1	48
409.065	1	58
409.235	1	44
409.406	1	45
409.577	1	36
409.747	1	45
409.918	1	32
410.089	1	38
410.259	1	41
410.430	1	41
410.601	1	47
410.771	1	50
410.942	1	41
411.113	1	53
411.283	1	48
411.454	1	41
411.625	1	46
411.795	1	37
411.966	1	41
412.137	1	40
412.307	1	56
412.478	1	39
412.649	1	48
412.819	1	42
412.990	1	38
413.161	1	47
413.331	1	47
413.502	1	29
413.672	1	49
413.843	1	56
414.014	1	53
414.184	1	46
414.355	1	51
414.526	1	44
414.696	1	49
414.867	1	44
415.038	1	36
415.208	1	41
415.379	1	39
415.550	1	45
415.720	1	38
415.891	1	48
416.062	1	53
416.232	1	45
416.403	1	43
416.573	1	39
416.744	1	47
416.915	1	37
417.085	1	31
417.256	1	44
417.427	1	48
417.597	1	42
417.768	1	40
417.939	1	48
418.109	1	34
418.280	1	46
418.450	1	45
418.621	1	34
418.792	1	30
418.962	1	42
419.133	1	52
419.304	1	36
419.474	1	44
419.645	1	38
419.815	1	36
419.986	1	46
420.157	1	53
420.327	1	43
420.498	1	38
420.669	1	44
420.839	1	42
421.010	1	49
421.180	1	31
421.351	1	50
421.522	1	49
421.692	1	47
421.863	1	50
422.033	1	46
422.204	1	41
422.375	1	36
422.545	1	45
422.716	1	41
422.886	1	49
423.057	1	38
423.228	1	42
423.398	1	39
423.569	1	42
423.740	1	38
423.910	1	42
424.081	1	50
424.251	1	40
424.422	1	36
424.593	1	50
424.763	1	40
424.934	1	41
425.104	1	42
425.275	1	53
425.445	1	61
425.616	1	52
425.787	1	43
425.957	1	47
426.128	1	41
426.298	1	38
426.469	1	30
426.640	1	47
426.810	1	44
426.981	1	50
427.151	1	55
427.322	1	24
427.493	1	38
427.663	1	32
427.834	1	51
428.004	1	36
428.175	1	42
428.345	1	51
428.516	1	43
428.687	1	34
428.857	1	43
429.028	1	44
429.198	1	49
429.369	1	40
429.540	1	38
429.710	1	38
429.881	1	47
430.051	1	48
430.222	1	35
430.392	1	52
430.563	1	47
430.734	1	56
430.904	1	36
431.075	1	41
431.245	1	43
431.416	1	26
431.586	1	34
431.757	1	51
431.927	1	35
432.098	1	39
432.269	1	50
432.439	1	42
432.610	1	44
432.780	1	40
432.951	1	48
433.121	1	48
433.292	1	48
433.462	1	35
433.633	1	53
433.804	1	36
433.974	1	57
434.145	1	48
434.315	1	42
434.486	1	32
434.656	1	34
434.827	1	36
434.997	1	57
435.168	1	44
435.339	1	42
435.509	1	37
435.680	1	45
435.850	1	34
436.021	1	53
436.191	1	54
436.362	1	53
436.532	1	45
436.703	1	49
436.873	1	43
437.044	1	44
437.214	1	54
437.385	1	47
437.556	1	40
437.726	1	40
437.897	1	39
438.067	1	37
438.238	1	41
438.408	1	39
438.579	1	44
438.749	1	32
438.920	1	42
439.090	1	36
439.261	1	49
439.431	1	40
439.602	1	45
439.772	1	42
439.943	1	51
440.113	1	45
440.284	1	38
440.455	1	50
440.625	1	35
440.796	1	50
440.966	1	37
441.137	1	44
441.307	1	50
441.478	1	49
441.648	1	39
441.819	1	34
441.989	1	34
442.160	1	45
442.330	1	59
442.501	1	54
442.671	1	32
442.842	1	42
443.012	1	42
443.183	1	45
443.353	1	54
443.524	1	49
443.694	1	37
443.865	1	46
444.035	1	42
444.206	1	42
444.376	1	54
444.547	1	31
444.717	1	49
444.888	1	35
445.058	1	48
445.229	1	37
445.399	1	41
445.570	1	38
445.740	1	46
445.911	1	42
446.081	1	42
446.252	1	33
446.422	1	49
446.593	1	39
446.763	1	40
446.934	1	43
447.104	1	43
447.275	1	43
447.445	1	34
447.616	1	48
447.786	1	27
447.957	1	39
448.127	1	46
448.298	1	48
448.468	1	46
448.639	1	34
448.809	1	43
448.979	1	43
449.150	1	38
449.320	1	42
449.491	1	45
449.661	1	44
449.832	1	44
450.002	1	58
450.173	1	45
450.343	1	51
450.514	1	38
450.684	1	34
450.855	1	44
451.025	1	38
451.196	1	53
451.366	1	40
451.537	1	33
451.707	1	43
451.878	1	45
452.048	1	39
452.218	1	49
452.389	1	51
452.559	1	46
452.730	1	46
452.900	1	39
453.071	1	42
453.241	1	44
453.412	1	34
453.582	1	35
453.753	1	44
453.923	1	50
454.093	1	46
454.264	1	31
454.434	1	38
454.605	1	40
454.775	1	35
454.946	1	31
455.116	1	33
455.287	1	41
455.457	1	39
455.628	1	35
455.798	1	33
455.968	1	38
456.139	1	34
456.309	1	34
456.480	1	39
456.650	1	46
456.821	1	59
456.991	1	42
457.161	1	45
457.332	1	30
457.502	1	46
457.673	1	44
457.843	1	42
458.014	1	44
458.184	1	41
458.355	1	27
458.525	1	36
458.695	1	34
458.866	1	40
459.036	1	35
459.207	1	38
459.377	1	34
459.548	1	20
459.718	1	42
459.888	1	39
460.059	1	33
460.229	1	43
460.400	1	41
460.570	1	35
460.740	1	36
460.911	1	36
461.081	1	44
461.252	1	25
461.422	1	37
461.593	1	36
461.763	1	39
461.933	1	40
462.104	1	43
462.274	1	34
462.445	1	38
462.615	1	38
462.785	1	34
462.956	1	35
463.126	1	31
463.297	1	44
463.467	1	34
463.638	1	42
463.808	1	45
463.978	1	37
464.149	1	30
464.319	1	47
464.490	1	36
464.660	1	34
464.830	1	35
465.001	1	43
465.171	1	29
465.342	1	32
465.512	1	38
465.682	1	32
465.853	1	29
466.023	1	34
466.194	1	39
466.364	1	40
466.534	1	34
466.705	1	33
466.875	1	36
467.045	1	33
467.216	1	26
467.386	1	41
467.557	1	32
467.727	1	39
467.897	1	28
468.068	1	19
468.238	1	40
468.409	1	37
468.579	1	39
468.749	1	30
468.920	1	31
469.090	1	38
469.260	1	35
469.431	1	41
469.601	1	30
469.772	1	23
469.942	1	34
470.112	1	34
470.283	1	42
470.453	1	46
470.623	1	26
470.794	1	26
470.964	1	34
471.135	1	32
471.305	1	32
471.475	1	29
471.646	1	23
471.816	1	33
471.986	1	41
472.157	1	27
472.327	1	33
472.497	1	46
472.668	1	30
472.838	1	34
473.009	1	33
473.179	1	36
473.349	1	49
473.520	1	15
473.690	1	40
473.860	1	30
474.031	1	22
474.201	1	40
474.371	1	26
474.542	1	36
474.712	1	26
474.882	1	18
475.053	1	32
475.223	1	18
475.394	1	22
475.564	1	31
475.734	1	31
475.905	1	25
476.075	1	33
476.245	1	27
476.416	1	22
476.586	1	31
476.756	1	22
476.927	1	28
477.097	1	21
477.267	1	31
477.438	1	34
477.608	1	23
477.778	1	21
477.949	1	17
478.119	1	14
478.289	1	23
478.460	1	16
478.630	1	29
478.800	1	33
478.971	1	30
479.141	1	34
479.311	1	34
479.482	1	23
479.652	1	19
479.822	1	17
479.993	1	29
480.163	1	38
480.333	1	24
480.504	1	40
480.674	1	29
480.844	1	20
481.015	1	31
481.185	1	25
481.355	1	35
481.525	1	32
481.696	1	10
481.866	1	39
482.036	1	34
482.207	1	24
482.377	1	37
482.547	1	20
482.718	1	25
482.888	1	41
483.058	1	20
483.229	1	11
483.399	1	33
483.569	1	15
483.740	1	18
483.910	1	14
484.080	1	23
484.250	1	11
484.421	1	21
484.591	1	35
484.761	1	21
484.932	1	29
485.102	1	38
485.272	1	21
485.443	1	33
485.613	1	30
485.783	1	25
485.953	1	33
486.124	1	17
486.294	1	20
486.464	1	23
486.635	1	23
486.805	1	25
486.975	1	13
487.146	1	28
487.316	1	20
487.486	1	25
487.656	1	23
487.827	1	19
487.997	1	17
488.167	1	15
488.338	1	12
488.508	1	23
488.678	1	15
488.848	1	16
489.019	1	27
489.189	1	19
489.359	1	28
489.529	1	29
489.700	1	26
489.870	1	0
490.040	1	5
490.211	1	17
490.381	1	17
490.551	1	13
490.721	1	25
490.892	1	24
491.062	1	9
491.232	1	19
491.402	1	18
491.573	1	14
491.743	1	9
491.913	1	10
492.084	1	21
492.254	1	22
492.424	1	32
492.594	1	29
492.765	1	13
492.935	1	15
493.105	1	21
493.275	1	18
493.446	1	19
493.616	1	26
493.786	1	12
493.956	1	13
494.127	1	26
494.297	1	16
494.467	1	25
494.637	1	29
494.808	1	22
494.978	1	20
495.148	1	20
495.318	1	29
495.489	1	20
495.659	1	16
495.829	1	21
495.999	1	9
496.170	1	14
496.340	1	22
496.510	1	14
496.680	1	14
496.851	1	26
497.021	1	7
497.191	1	17
497.361	1	18
497.532	1	19
497.702	1	28
497.872	1	23
498.042	1	27
498.213	1	25
498.383	1	16
498.553	1	15
498.723	1	21
498.894	1	4
499.064	1	18
499.234	1	17
499.404	1	14
499.574	1	25
499.745	1	10
499.915	1	14
500.085	1	16
500.255	1	23
500.426	1	16
500.596	1	16
500.766	1	13
500.936	1	23
501.106	1	14
501.277	1	27
501.447	1	17
501.617	1	27
501.787	1	24
501.958	1	27
502.128	1	8
502.298	1	6
502.468	1	19
502.638	1	15
502.809	1	19
502.979	1	18
503.149	1	18
503.319	1	20
503.489	1	18
503.660	1	11
503.830	1	19
504.000	1	12
504.170	1	17
504.340	1	16
504.511	1	18
504.681	1	13
504.851	1	18
505.021	1	22
505.192	1	5
505.362	1	15
505.532	1	17
505.702	1	9
505.872	1	11
506.043	1	25
506.213	1	17
506.383	1	16
506.553	1	21
506.723	1	19
506.893	1	13
507.064	1	12
507.234	1	9
507.404	1	16
507.574	1	18
507.744	1	24
507.915	1	8
508.085	1	22
508.255	1	22
508.425	1	22
508.595	1	7
508.766	1	15
508.936	1	11
509.106	1	18
509.276	1	8
509.446	1	9
509.616	1	10
509.787	1	22
509.957	1	18
510.127	1	16
510.297	1	12
510.467	1	6
510.638	1	16
510.808	1	11
510.978	1	14
511.148	1	31
511.318	1	15
511.488	1	20
511.659	1	10
511.829	1	18
511.999	1	11
512.169	1	13
512.339	1	18
512.509	1	26
512.680	1	7
512.850	1	16
513.020	1	1
513.190	1	11
513.360	1	21
513.530	1	16
513.700	1	19
513.871	1	22
514.041	1	20
514.211	1	28
514.381	1	22
514.551	1	6
514.721	1	12
514.892	1	17
515.062	1	16
515.232	1	6
515.402	1	13
515.572	1	6
515.742	1	12
515.912	1	13
516.083	1	22
516.253	1	27
516.423	1	14
516.593	1	20
516.763	1	9
516.933	1	-4
517.104	1	12
517.274	1	8
517.444	1	1
517.614	1	13
517.784	1	26
517.954	1	15
518.124	1	7
518.294	1	14
518.465	1	17
518.635	1	8
518.805	1	26
518.975	1	11
519.145	1	19
519.315	1	15
519.485	1	-6
519.656	1	11
519.826	1	15
519.996	1	12
520.166	1	16
520.336	1	13
520.506	1	-2
520.676	1	19
520.846	1	10
521.017	1	2
521.187	1	13
521.357	1	7
521.527	1	7
521.697	1	21
521.867	1	11
522.037	1	4
522.207	1	6
522.377	1	13
522.548	1	12
522.718	1	6
522.888	1	5
523.058	1	17
523.228	1	21
523.398	1	18
523.568	1	8
523.738	1	8
523.909	1	13
524.079	1	15
524.249	1	-3
524.419	1	13
524.589	1	13
524.759	1	8
524.929	1	4
525.099	1	8
525.269	1	20
525.439	1	7
525.610	1	12
525.780	1	10
525.950	1	16
526.120	1	12
526.290	1	6
526.460	1	13
526.630	1	16
526.800	1	7
526.970	1	19
527.140	1	11
527.311	1	11
527.481	1	6
527.651	1	8
527.821	1	10
527.991	1	18
528.161	1	18
528.331	1	14
528.501	1	14
528.671	1	9
528.841	1	11
529.011	1	3
529.181	1	13
529.352	1	7
529.522	1	8
529.692	1	6
529.862	1	13
530.032	1	15
530.202	1	14
530.372	1	10
530.542	1	4
530.712	1	9
530.882	1	6
531.052	1	18
531.222	1	2
531.392	1	9
531.563	1	2
531.733	1	6
531.903	1	16
532.073	1	10
532.243	1	7
532.413	1	20
532.583	1	8
532.753	1	11
532.923	1	16
533.093	1	17
533.263	1	0
533.433	1	16
533.603	1	7
533.773	1	10
533.943	1	2
534.113	1	13
534.284	1	8
534.454	1	6
534.624	1	11
534.794	1	4
534.964	1	9
535.134	1	18
535.304	1	12
535.474	1	-2
535.644	1	10
535.814	1	4
535.984	1	13
536.154	1	15
536.324	1	20
536.494	1	14
536.664	1	15
536.834	1	6
537.004	1	9
537.174	1	8
537.344	1	9
537.514	1	11
537.685	1	9
537.855	1	8
538.025	1	9
538.195	1	5
538.365	1	3
538.535	1	2
538.705	1	19
538.875	1	13
539.045	1	10
539.215	1	-3
539.385	1	10
539.555	1	8
539.725	1	8
539.895	1	17
540.065	1	8
540.235	1	11
540.405	1	9
540.575	1	9
540.745	1	1
540.915	1	6
541.085	1	0
541.255	1	0
541.425	1	11
541.595	1	9
541.765	1	14
541.935	1	-2
542.105	1	14
542.275	1	9
542.445	1	0
542.615	1	8
542.785	1	1
542.955	1	13
543.125	1	-2
543.295	1	4
543.465	1	14
543.635	1	12
543.805	1	12
543.975	1	12
544.145	1	8
544.315	1	4
544.485	1	10
544.655	1	12
544.825	1	11
544.995	1	9
545.165	1	17
545.335	1	1
545.505	1	13
545.675	1	-8
545.845	1	13
546.015	1	15
546.185	1	10
546.355	1	8
546.525	1	3
546.695	1	12
546.865	1	19
547.035	1	8
547.205	1	12
547.375	1	7
547.545	1	18
547.715	1	8
547.885	1	18
548.055	1	-4
548.225	1	9
548.395	1	-2
548.565	1	11
548.735	1	14
548.905	1	1
549.075	1	14
549.245	1	8
549.415	1	7
549.585	1	13
549.755	1	9
549.925	1	6
550.095	1	8
550.265	1	10
550.435	1	-2
550.605	1	-1
550.775	1	4
550.945	1	24
551.115	1	6
551.285	1	11
551.455	1	8
551.625	1	5
551.795	1	-1
551.965	1	14
552.135	1	11
552.305	1	5
552.475	1	7
552.645	1	14
552.815	1	9
552.985	1	3
553.155	1	1
553.325	1	2
553.495	1	8
553.665	1	7
553.835	1	13
554.004	1	2
554.174	1	9
554.344	1	8
554.514	1	4
554.684	1	-1
554.854	1	2
555.024	1	13
555.194	1	6
555.364	1	12
555.534	1	6
555.704	1	14
555.874	1	4
556.044	1	5
556.214	1	7
556.384	1	7
556.554	1	12
556.724	1	12
556.894	1	8
557.064	1	12
557.234	1	8
557.404	1	3
557.573	1	-4
557.743	1	4
557.913	1	3
558.083	1	10
558.253	1	-8
558.423	1	2
558.593	1	11
558.763	1	13
558.933	1	6
559.103	1	14
559.273	1	3
559.443	1	17
559.613	1	15
559.783	1	8
559.953	1	21
560.122	1	2
560.292	1	5
560.462	1	10
560.632	1	10
560.802	1	13
560.972	1	5
561.142	1	21
561.312	1	13
561.482	1	8
561.652	1	11
561.822	1	-1
561.992	1	-4
562.162	1	11
562.331	1	11
562.501	1	4
562.671	1	9
562.841	1	3
563.011	1	5
563.181	1	5
563.351	1	8
563.521	1	10
563.691	1	20
563.861	1	0
564.031	1	2
564.201	1	6
564.370	1	7
564.540	1	8
564.710	1	9
564.880	1	1
565.050	1	11
565.220	1	4
565.390	1	8
565.560	1	8
565.730	1	8
565.900	1	-2
566.069	1	3
566.239	1	3
566.409	1	12
566.579	1	17
566.749	1	13
566.919	1	6
567.089	1	6
567.259	1	16
567.429	1	1
567.599	1	6
567.768	1	5
567.938	1	3
568.108	1	7
568.278	1	11
568.448	1	10
568.618	1	11
568.788	1	-8
568.958	1	2
569.128	1	-10
569.297	1	3
569.467	1	8
569.637	1	10
569.807	1	11
569.977	1	3
570.147	1	9
570.317	1	6
570.487	1	15
570.656	1	7
570.826	1	4
570.996	1	2
571.166	1	-2
571.336	1	0
571.506	1	8
571.676	1	-3
571.846	1	5
572.015	1	16
572.185	1	-2
572.355	1	8
572.525	1	4
572.695	1	14
572.865	1	8
573.035	1	-5
573.205	1	2
573.374	1	18
573.544	1	8
573.714	1	6
573.884	1	10
574.054	1	8
574.224	1	2
574.394	1	7
574.563	1	11
574.733	1	7
574.903	1	3
575.073	1	1
575.243	1	15
575.413	1	5
575.583	1	10
575.752	1	2
575.922	1	6
576.092	1	1
576.262	1	7
576.432	1	14
576.602	1	1
576.772	1	2
576.941	1	10
577.111	1	7
577.281	1	15
577.451	1	2
577.621	1	8
577.791	1	5
577.960	1	-9
578.130	1	-2
578.300	1	7
578.470	1	6
578.640	1	5
578.810	1	5
578.979	1	9
579.149	1	7
579.319	1	8
579.489	1	14
579.659	1	-1
579.829	1	11
579.998	1	3
580.168	1	8
580.338	1	7
580.508	1	7
580.678	1	14
580.848	1	-1
581.017	1	12
581.187	1	10
581.357	1	0
581.527	1	2
581.697	1	-4
581.867	1	9
582.036	1	7
582.206	1	1
582.376	1	7
582.546	1	20
582.716	1	-7
582.885	1	3
583.055	1	-1
583.225	1	7
583.395	1	13
583.565	1	6
583.735	1	5
583.904	1	12
584.074	1	7
584.244	1	10
584.414	1	2
584.584	1	1
584.753	1	12
584.923	1	5
585.093	1	3
585.263	1	4
585.433	1	19
585.602	1	10
585.772	1	11
585.942	1	1
586.112	1	-2
586.282	1	6
586.451	1	-5
586.621	1	5
586.791	1	-1
586.961	1	9
587.131	1	5
587.300	1	16
587.470	1	5
587.640	1	-8
587.810	1	-5
587.980	1	-3
588.149	1	11
588.319	1	12
588.489	1	5
588.659	1	13
588.829	1	5
588.998	1	4
589.168	1	10
589.338	1	-2
589.508	1	18
589.677	1	1
589.847	1	9
590.017	1	15
590.187	1	12
590.357	1	1
590.526	1	19
590.696	1	0
590.866	1	6
591.036	1	3
591.205	1	9
591.375	1	6
591.545	1	9
591.715	1	0
591.885	1	8
592.054	1	3
592.224	1	6
592.394	1	3
592.564	1	12
592.733	1	11
592.903	1	1
593.073	1	-3
593.243	1	7
593.412	1	1
593.582	1	6
593.752	1	1
593.922	1	18
594.091	1	2
594.261	1	5
594.431	1	8
594.601	1	9
594.771	1	12
594.940	1	6
595.110	1	7
595.280	1	12
595.450	1	9
595.619	1	12
595.789	1	7
595.959	1	11
596.129	1	-5
596.298	1	12
596.468	1	17
596.638	1	3
596.808	1	1
596.977	1	15
597.147	1	12
597.317	1	5
597.487	1	9
597.656	1	15
597.826	1	0
597.996	1	7
598.166	1	4
598.335	1	-7
598.505	1	-1
598.675	1	-6
598.844	1	8
599.014	1	7
599.184	1	3
599.354	1	4
599.523	1	8
599.693	1	6
599.863	1	14
600.033	1	11
600.202	1	10
600.372	1	-2
600.542	1	2
600.712	1	11
600.881	1	14
601.051	1	3
601.221	1	12
601.390	1	12
601.560	1	14
601.730	1	8
601.900	1	14
602.069	1	-3
602.239	1	5
602.409	1	9
602.578	1	22
602.748	1	-1
602.918	1	11
603.088	1	17
603.257	1	8
603.427	1	3
603.597	1	3
603.767	1	9
603.936	1	18
604.106	1	8
604.276	1	7
604.445	1	4
604.615	1	0
604.785	1	11
604.954	1	8
605.124	1	-2
605.294	1	9
605.464	1	-1
605.633	1	8
605.803	1	23
605.973	1	3
606.142	1	12
606.312	1	11
606.482	1	5
606.652	1	11
606.821	1	1
606.991	1	8
607.161	1	10
607.330	1	16
607.500	1	7
607.670	1	10
607.839	1	10
608.009	1	12
608.179	1	11
608.348	1	3
608.518	1	5
608.688	1	10
608.858	1	7
609.027	1	2
609.197	1	10
609.367	1	-3
609.536	1	23
609.706	1	18
609.876	1	7
610.045	1	15
610.215	1	11
610.385	1	2
610.554	1	15
610.724	1	12
610.894	1	11
611.063	1	7
611.233	1	-2
611.403	1	1
611.572	1	19
611.742	1	4
611.912	1	-2
612.081	1	6
612.251	1	13
612.421	1	8
612.590	1	-12
612.760	1	11
612.930	1	-2
613.099	1	9
613.269	1	0
613.439	1	1
613.608	1	-1
613.778	1	-3
613.948	1	16
614.117	1	0
614.287	1	-1
614.457	1	2
614.626	1	16
614.796	1	15
614.966	1	14
615.135	1	14
615.305	1	11
615.475	1	1
615.644	1	10
615.814	1	5
615.984	1	8
616.153	1	3
616.323	1	7
616.493	1	13
616.662	1	7
616.832	1	6
617.002	1	11
617.171	1	5
617.341	1	1
617.511	1	4
617.680	1	8
617.850	1	2
618.019	1	9
618.189	1	10
618.359	1	-2
618.528	1	2
618.698	1	15
618.868	1	2
619.037	1	12
619.207	1	14
619.377	1	9
619.546	1	-2
619.716	1	-3
619.885	1	7
620.055	1	22
620.225	1	11
620.394	1	4
620.564	1	-7
620.734	1	11
620.903	1	7
621.073	1	11
621.242	1	8
621.412	1	11
621.582	1	3
621.751	1	11
621.921	1	20
622.091	1	2
622.260	1	6
622.430	1	15
622.599	1	12
622.769	1	8
622.939	1	2
623.108	1	14
623.278	1	14
623.448	1	7
623.617	1	-4
623.787	1	19
623.956	1	11
624.126	1	1
624.296	1	11
624.465	1	14
624.635	1	18
624.804	1	6
624.974	1	8
625.144	1	19
625.313	1	5
625.483	1	11
625.652	1	8
625.822	1	0
625.992	1	10
626.161	1	2
626.331	1	0
626.501	1	7
626.670	1	10
626.840	1	11
627.009	1	2
627.179	1	-5
627.348	1	8
627.518	1	12
627.688	1	8
627.857	1	1
628.027	1	6
628.196	1	4
628.366	1	14
628.536	1	10
628.705	1	-1
628.875	1	15
629.044	1	7
629.214	1	16
629.384	1	3
629.553	1	5
629.723	1	-1
629.892	1	18
630.062	1	-5
630.232	1	12
630.401	1	14
630.571	1	10
630.740	1	4
630.910	1	3
631.079	1	2
631.249	1	13
631.419	1	9
631.588	1	4
631.758	1	4
631.927	1	13
632.097	1	15
632.266	1	-1
632.436	1	18
632.606	1	6
632.775	1	19
632.945	1	2
633.114	1	2
633.284	1	2
633.453	1	12
633.623	1	20
633.793	1	5
633.962	1	4
634.132	1	10
634.301	1	7
634.471	1	1
634.640	1	9
634.810	1	10
634.979	1	1
635.149	1	5
635.319	1	23
635.488	1	8
635.658	1	8
635.827	1	-1
635.997	1	13
636.166	1	15
636.336	1	4
636.505	1	15
636.675	1	1
636.845	1	8
637.014	1	16
637.184	1	15
637.353	1	9
637.523	1	8
637.692	1	2
637.862	1	-1
638.031	1	-1
638.201	1	9
638.370	1	9
638.540	1	12
638.710	1	19
638.879	1	12
639.049	1	4
639.218	1	27
639.388	1	8
639.557	1	13
639.727	1	21
639.896	1	1
640.066	1	6
640.235	1	14
640.405	1	9
640.574	1	7
640.744	1	6
640.914	1	12
641.083	1	14
641.253	1	1
641.422	1	9
641.592	1	0
641.761	1	16
641.931	1	5
642.100	1	11
642.270	1	3
642.439	1	6
642.609	1	13
642.778	1	6
642.948	1	10
643.117	1	12
643.287	1	7
643.456	1	13
643.626	1	13
643.795	1	13
643.965	1	15
644.134	1	3
644.304	1	15
644.473	1	12
644.643	1	1
644.812	1	4
644.982	1	10
645.151	1	6
645.321	1	5
645.490	1	14
645.660	1	4
645.829	1	-2
645.999	1	9
646.168	1	4
646.338	1	7
646.507	1	3
646.677	1	11
646.846	1	9
647.016	1	14
647.185	1	7
647.355	1	15
647.524	1	13
647.694	1	12
647.863	1	18
648.033	1	7
648.202	1	3
648.372	1	7
648.541	1	4
648.711	1	9
648.880	1	2
649.050	1	9
649.219	1	10
649.389	1	8
649.558	1	13
649.728	1	5
649.897	1	9
650.067	1	12
650.236	1	9
650.406	1	16
650.575	1	11
650.745	1	7
650.914	1	3
651.084	1	8
651.253	1	6
651.423	1	11
651.592	1	8
651.762	1	3
651.931	1	17
652.101	1	9
652.270	1	12
652.440	1	21
652.609	1	15
652.778	1	9
652.948	1	10
653.117	1	7
653.287	1	4
653.456	1	7
653.626	1	11
653.795	1	9
653.965	1	0
654.134	1	-2
654.304	1	12
654.473	1	1
654.643	1	8
654.812	1	12
654.982	1	5
655.151	1	21
655.320	1	14
655.490	1	4
655.659	1	9
655.829	1	10
655.998	1	2
656.168	1	7
656.337	1	5
656.507	1	3
656.676	1	6
656.846	1	21
657.015	1	10
657.184	1	8
657.354	1	8
657.523	1	10
657.693	1	8
657.862	1	5
658.032	1	20
658.201	1	7
658.371	1	5
658.540	1	12
658.709	1	3
658.879	1	19
659.048	1	12
659.218	1	3
659.387	1	4
659.557	1	10
659.726	1	3
659.895	1	12
660.065	1	11
660.234	1	6
660.404	1	12
660.573	1	14
660.743	1	2
660.912	1	5
661.081	1	-7
661.251	1	9
661.420	1	14
661.590	1	9
661.759	1	3
661.929	1	12
662.098	1	13
662.267	1	17
662.437	1	6
662.606	1	7
662.776	1	6
662.945	1	22
663.115	1	13
663.284	1	1
663.453	1	11
663.623	1	10
663.792	1	15
663.962	1	-2
664.131	1	0
664.300	1	-14
664.470	1	15
664.639	1	12
664.809	1	19
664.978	1	6
665.148	1	-2
665.317	1	0
665.486	1	10
665.656	1	13
665.825	1	11
665.995	1	7
666.164	1	23
666.333	1	8
666.503	1	5
666.672	1	24
666.842	1	4
667.011	1	3
667.180	1	8
667.350	1	12
667.519	1	6
667.689	1	10
667.858	1	10
668.027	1	17
668.197	1	17
668.366	1	3
668.536	1	6
668.705	1	16
668.874	1	12
669.044	1	12
669.213	1	12
669.382	1	16
669.552	1	12
669.721	1	14
669.891	1	2
670.060	1	5
670.229	1	6
670.399	1	3
670.568	1	11
670.738	1	5
670.907	1	11
671.076	1	7
671.246	1	4
671.415	1	7
671.584	1	15
671.754	1	-7
671.923	1	13
672.093	1	11
672.262	1	9
672.431	1	6
672.601	1	10
672.770	1	1
672.939	1	4
673.109	1	10
673.278	1	2
673.448	1	9
673.617	1	13
673.786	1	12
