325.333	1	-9
325.504	1	11
325.675	1	0
325.846	1	5
326.017	1	-11
326.188	1	-4
326.359	1	9
326.531	1	10
326.702	1	1
326.873	1	5
327.044	1	6
327.215	1	-2
327.386	1	1
327.557	1	2
327.728	1	-1
327.899	1	5
328.070	1	3
328.241	1	2
328.412	1	-8
328.583	1	8
328.754	1	-6
328.926	1	7
329.097	1	-7
329.268	1	1
329.439	1	-3
329.610	1	7
329.781	1	1
329.952	1	3
330.123	1	3
330.294	1	6
330.465	1	2
330.636	1	12
330.807	1	3
330.978	1	13
331.149	1	6
331.320	1	0
331.492	1	-5
331.663	1	-4
331.834	1	-7
332.005	1	1
332.176	1	4
332.347	1	8
332.518	1	9
332.689	1	-6
332.860	1	-1
333.031	1	4
333.202	1	2
333.373	1	-2
333.544	1	-6
333.715	1	-4
333.886	1	3
334.057	1	1
334.228	1	4
334.399	1	3
334.570	1	3
334.741	1	-7
334.912	1	-4
335.084	1	-1
335.255	1	4
335.426	1	6
335.597	1	7
335.768	1	-1
335.939	1	-7
336.110	1	-1
336.281	1	-4
336.452	1	-2
336.623	1	-3
336.794	1	-2
336.965	1	4
337.136	1	2
337.307	1	12
337.478	1	4
337.649	1	-3
337.820	1	-7
337.991	1	9
338.162	1	-1
338.333	1	1
338.504	1	5
338.675	1	11
338.846	1	5
339.017	1	9
339.188	1	10
339.359	1	9
339.530	1	-5
339.701	1	-8
339.872	1	-3
340.043	1	-4
340.214	1	-5
340.385	1	4
340.556	1	-7
340.727	1	4
340.898	1	4
341.069	1	-5
341.240	1	-3
341.411	1	13
341.582	1	0
341.753	1	-7
341.924	1	-7
342.095	1	-4
342.266	1	-5
342.437	1	-17
342.608	1	7
342.779	1	-2
342.950	1	5
343.121	1	1
343.292	1	-9
343.463	1	4
343.634	1	5
343.805	1	-3
343.976	1	-13
344.147	1	1
344.318	1	-4
344.489	1	16
344.660	1	7
344.831	1	3
345.002	1	-1
345.173	1	1
345.344	1	-5
345.515	1	6
345.686	1	-8
345.857	1	-1
346.028	1	-10
346.199	1	10
346.370	1	6
346.541	1	2
346.712	1	1
346.883	1	15
347.054	1	-7
347.225	1	-13
347.396	1	-5
347.567	1	0
347.738	1	0
347.909	1	7
348.080	1	6
348.251	1	4
348.422	1	-4
348.593	1	6
348.764	1	-9
348.935	1	9
349.106	1	10
349.277	1	-5
349.448	1	0
349.619	1	5
349.790	1	4
349.961	1	2
350.132	1	15
350.303	1	7
350.474	1	-6
350.645	1	-1
350.816	1	-4
350.987	1	8
351.157	1	4
351.328	1	5
351.499	1	3
351.670	1	-6
351.841	1	-7
352.012	1	4
352.183	1	3
352.354	1	3
352.525	1	1
352.696	1	4
352.867	1	-6
353.038	1	0
353.209	1	3
353.380	1	-3
353.551	1	-3
353.722	1	2
353.893	1	-4
354.064	1	-6
354.235	1	1
354.406	1	-5
354.576	1	-2
354.747	1	-1
354.918	1	12
355.089	1	4
355.260	1	3
355.431	1	7
355.602	1	-2
355.773	1	-2
355.944	1	-9
356.115	1	-8
356.286	1	11
356.457	1	4
356.628	1	0
356.799	1	7
356.970	1	5
357.141	1	4
357.311	1	-3
357.482	1	2
357.653	1	0
357.824	1	-3
357.995	1	7
358.166	1	1
358.337	1	-2
358.508	1	-4
358.679	1	14
358.850	1	4
359.021	1	-2
359.192	1	-6
359.363	1	-5
359.533	1	-12
359.704	1	-2
359.875	1	1
360.046	1	-5
360.217	1	-5
360.388	1	-5
360.559	1	-2
360.730	1	-1
360.901	1	0
361.072	1	-5
361.243	1	5
361.414	1	4
361.584	1	11
361.755	1	8
361.926	1	-3
362.097	1	2
362.268	1	-2
362.439	1	8
362.610	1	-9
362.781	1	0
362.952	1	-3
363.123	1	-4
363.293	1	-6
363.464	1	2
363.635	1	7
363.806	1	1
363.977	1	8
364.148	1	4
364.319	1	-8
364.490	1	2
364.661	1	-3
364.832	1	1
365.002	1	4
365.173	1	-2
365.344	1	10
365.515	1	2
365.686	1	-3
365.857	1	6
366.028	1	2
366.199	1	7
366.370	1	2
366.540	1	1
366.711	1	7
366.882	1	1
367.053	1	0
367.224	1	-3
367.395	1	7
367.566	1	14
367.737	1	-1
367.908	1	-6
368.078	1	-7
368.249	1	2
368.420	1	1
368.591	1	-1
368.762	1	-9
368.933	1	15
369.104	1	3
369.274	1	1
369.445	1	12
369.616	1	-3
369.787	1	-8
369.958	1	14
370.129	1	5
370.300	1	1
370.471	1	2
370.641	1	2
370.812	1	9
370.983	1	-10
371.154	1	7
371.325	1	-2
371.496	1	2
371.667	1	8
371.837	1	0
372.008	1	3
372.179	1	0
372.350	1	7
372.521	1	-5
372.692	1	0
372.863	1	8
373.033	1	7
373.204	1	15
373.375	1	-6
373.546	1	4
373.717	1	3
373.888	1	-5
374.059	1	8
374.229	1	0
374.400	1	9
374.571	1	7
374.742	1	5
374.913	1	0
375.084	1	9
375.254	1	7
375.425	1	3
375.596	1	-2
375.767	1	-9
375.938	1	-3
376.109	1	-4
376.279	1	6
376.450	1	6
376.621	1	-1
376.792	1	17
376.963	1	-9
377.134	1	-3
377.304	1	6
377.475	1	-5
377.646	1	-6
377.817	1	4
377.988	1	6
378.159	1	2
378.329	1	0
378.500	1	3
378.671	1	2
378.842	1	-6
379.013	1	8
379.184	1	-4
379.354	1	-1
379.525	1	0
379.696	1	18
379.867	1	-11
380.038	1	11
380.209	1	-7
380.379	1	16
380.550	1	-3
380.721	1	1
380.892	1	7
381.063	1	3
381.233	1	4
381.404	1	-2
381.575	1	6
381.746	1	3
381.917	1	5
382.087	1	0
382.258	1	15
382.429	1	6
382.600	1	4
382.771	1	-6
382.941	1	5
383.112	1	-2
383.283	1	8
383.454	1	3
383.625	1	12
383.795	1	-7
383.966	1	6
384.137	1	-3
384.308	1	-7
384.479	1	9
384.649	1	3
384.820	1	1
384.991	1	-7
385.162	1	2
385.333	1	-1
385.503	1	5
385.674	1	15
385.845	1	0
386.016	1	-2
386.187	1	-6
386.357	1	0
386.528	1	2
386.699	1	-7
386.870	1	4
387.041	1	3
387.211	1	-3
387.382	1	-1
387.553	1	2
387.724	1	-1
387.894	1	11
388.065	1	15
388.236	1	12
388.407	1	1
388.578	1	12
388.748	1	2
388.919	1	5
389.090	1	8
389.261	1	17
389.431	1	10
389.602	1	-12
389.773	1	-7
389.944	1	1
390.114	1	6
390.285	1	4
390.456	1	2
390.627	1	4
390.798	1	11
390.968	1	-1
391.139	1	2
391.310	1	5
391.481	1	5
391.651	1	4
391.822	1	9
391.993	1	-3
392.164	1	-8
392.334	1	3
392.505	1	-8
392.676	1	1
392.847	1	8
393.017	1	7
393.188	1	-5
393.359	1	6
393.530	1	2
393.700	1	14
393.871	1	4
394.042	1	23
394.213	1	9
394.383	1	9
394.554	1	4
394.725	1	21
394.896	1	0
395.066	1	8
395.237	1	-4
395.408	1	8
395.579	1	-3
395.749	1	6
395.920	1	6
396.091	1	13
396.262	1	-4
396.432	1	-2
396.603	1	-3
396.774	1	9
396.945	1	2
397.115	1	-3
397.286	1	17
397.457	1	3
397.627	1	4
397.798	1	11
397.969	1	12
398.140	1	-6
398.310	1	6
398.481	1	7
398.652	1	-11
398.823	1	0
398.993	1	21
399.164	1	6
399.335	1	1
399.505	1	8
399.676	1	8
399.847	1	12
400.018	1	1
400.188	1	12
400.359	1	16
400.530	1	-1
400.700	1	2
400.871	1	9
401.042	1	8
401.213	1	10
401.383	1	12
401.554	1	13
401.725	1	0
401.895	1	-3
402.066	1	13
402.237	1	10
402.408	1	7
402.578	1	2
402.749	1	4
402.920	1	11
403.090	1	3
403.261	1	9
403.432	1	12
403.603	1	-2
403.773	1	2
403.944	1	14
404.115	1	-2
404.285	1	14
404.456	1	1
404.627	1	0
404.797	1	6
404.968	1	-5
405.139	1	5
405.310	1	3
405.480	1	-2
405.651	1	4
405.822	1	11
405.992	1	2
406.163	1	16
406.334	1	18
406.504	1	0
406.675	1	-1
406.846	1	13
407.016	1	4
407.187	1	5
407.358	1	2
407.528	1	7
407.699	1	1
407.870	1	12
408.041	1	6
408.211	1	9
408.382	1	4
408.553	1	-3
408.723	1	3
408.894	1	11
409.065	1	13
409.235	1	-3
409.406	1	6
409.577	1	4
409.747	1	18
409.918	1	1
410.089	1	1
410.259	1	0
410.430	1	4
410.601	1	8
410.771	1	10
410.942	1	-3
411.113	1	11
411.283	1	6
411.454	1	0
411.625	1	4
411.795	1	-7
411.966	1	-5
412.137	1	-10
412.307	1	9
412.478	1	5
412.649	1	-6
412.819	1	-11
412.990	1	9
413.161	1	-2
413.331	1	5
413.502	1	-7
413.672	1	2
413.843	1	9
414.014	1	16
414.184	1	9
414.355	1	-4
414.526	1	7
414.696	1	7
414.867	1	5
415.038	1	-2
415.208	1	5
415.379	1	5
415.550	1	18
415.720	1	1
415.891	1	14
416.062	1	9
416.232	1	14
416.403	1	9
416.573	1	4
416.744	1	-3
416.915	1	1
417.085	1	2
417.256	1	6
417.427	1	8
417.597	1	12
417.768	1	4
417.939	1	9
418.109	1	-6
418.280	1	3
418.450	1	7
418.621	1	5
418.792	1	-4
418.962	1	0
419.133	1	6
419.304	1	-2
419.474	1	5
419.645	1	11
419.815	1	4
419.986	1	-2
420.157	1	11
420.327	1	-1
420.498	1	-3
420.669	1	9
420.839	1	1
421.010	1	8
421.180	1	-6
421.351	1	13
421.522	1	20
421.692	1	15
421.863	1	10
422.033	1	27
422.204	1	4
422.375	1	0
422.545	1	5
422.716	1	5
422.886	1	16
423.057	1	-1
423.228	1	1
423.398	1	12
423.569	1	13
423.740	1	0
423.910	1	9
424.081	1	12
424.251	1	-1
424.422	1	-10
424.593	1	3
424.763	1	8
424.934	1	6
425.104	1	6
425.275	1	10
425.445	1	17
425.616	1	8
425.787	1	13
425.957	1	-1
426.128	1	6
426.298	1	6
426.469	1	3
426.640	1	-2
426.810	1	8
426.981	1	1
427.151	1	5
427.322	1	-4
427.493	1	-2
427.663	1	11
427.834	1	5
428.004	1	-1
428.175	1	2
428.345	1	9
428.516	1	-2
428.687	1	-4
428.857	1	4
429.028	1	14
429.198	1	7
429.369	1	9
429.540	1	6
429.710	1	12
429.881	1	13
430.051	1	6
430.222	1	5
430.392	1	7
430.563	1	11
430.734	1	15
430.904	1	1
431.075	1	-6
431.245	1	7
431.416	1	-3
431.586	1	6
431.757	1	9
431.927	1	-3
432.098	1	14
432.269	1	9
432.439	1	12
432.610	1	5
432.780	1	2
432.951	1	4
433.121	1	16
433.292	1	11
433.462	1	-4
433.633	1	8
433.804	1	-5
433.974	1	-1
434.145	1	2
434.315	1	7
434.486	1	-1
434.656	1	0
434.827	1	13
434.997	1	10
435.168	1	3
435.339	1	2
435.509	1	9
435.680	1	2
435.850	1	4
436.021	1	9
436.191	1	11
436.362	1	14
436.532	1	5
436.703	1	7
436.873	1	9
437.044	1	-1
437.214	1	8
437.385	1	11
437.556	1	7
437.726	1	2
437.897	1	-7
438.067	1	4
438.238	1	8
438.408	1	12
438.579	1	6
438.749	1	-1
438.920	1	5
439.090	1	-3
439.261	1	-2
439.431	1	1
439.602	1	11
439.772	1	6
439.943	1	12
440.113	1	3
440.284	1	12
440.455	1	12
440.625	1	8
440.796	1	-9
440.966	1	-2
441.137	1	2
441.307	1	-1
441.478	1	11
441.648	1	9
441.819	1	6
441.989	1	-14
442.160	1	5
442.330	1	14
442.501	1	-6
442.671	1	0
442.842	1	13
443.012	1	2
443.183	1	5
443.353	1	6
443.524	1	7
443.694	1	4
443.865	1	9
444.035	1	-1
444.206	1	10
444.376	1	0
444.547	1	2
444.717	1	16
444.888	1	6
445.058	1	10
445.229	1	10
445.399	1	3
445.570	1	2
445.740	1	6
445.911	1	10
446.081	1	4
446.252	1	0
446.422	1	17
446.593	1	4
446.763	1	11
446.934	1	11
447.104	1	-3
447.275	1	9
447.445	1	6
447.616	1	2
447.786	1	2
447.957	1	9
448.127	1	16
448.298	1	0
448.468	1	4
448.639	1	3
448.809	1	6
448.979	1	12
449.150	1	5
449.320	1	6
449.491	1	18
449.661	1	9
449.832	1	5
450.002	1	6
450.173	1	6
450.343	1	11
450.514	1	4
450.684	1	6
450.855	1	3
451.025	1	6
451.196	1	5
451.366	1	-2
451.537	1	8
451.707	1	7
451.878	1	5
452.048	1	7
452.218	1	10
452.389	1	8
452.559	1	2
452.730	1	10
452.900	1	2
453.071	1	-5
453.241	1	5
453.412	1	-4
453.582	1	-2
453.753	1	18
453.923	1	9
454.093	1	6
454.264	1	-6
454.434	1	13
454.605	1	3
454.775	1	-1
454.946	1	-3
455.116	1	-6
455.287	1	3
455.457	1	0
455.628	1	2
455.798	1	2
455.968	1	4
456.139	1	1
456.309	1	15
456.480	1	7
456.650	1	13
456.821	1	14
456.991	1	7
457.161	1	-1
457.332	1	2
457.502	1	15
457.673	1	14
457.843	1	12
458.014	1	4
458.184	1	-3
458.355	1	8
458.525	1	13
458.695	1	3
458.866	1	8
459.036	1	3
459.207	1	6
459.377	1	10
459.548	1	1
459.718	1	3
459.888	1	13
460.059	1	9
460.229	1	5
460.400	1	7
460.570	1	12
460.740	1	3
460.911	1	12
461.081	1	16
461.252	1	10
461.422	1	-1
461.593	1	3
461.763	1	9
461.933	1	6
462.104	1	-1
462.274	1	-5
462.445	1	-6
462.615	1	6
462.785	1	9
462.956	1	9
463.126	1	7
463.297	1	6
463.467	1	7
463.638	1	5
463.808	1	6
463.978	1	12
464.149	1	-7
464.319	1	9
464.490	1	1
464.660	1	7
464.830	1	-3
465.001	1	3
465.171	1	6
465.342	1	-10
465.512	1	3
465.682	1	-6
465.853	1	-11
466.023	1	0
466.194	1	1
466.364	1	16
466.534	1	7
466.705	1	-5
466.875	1	3
467.045	1	-2
467.216	1	10
467.386	1	8
467.557	1	4
467.727	1	5
467.897	1	4
468.068	1	-4
468.238	1	5
468.409	1	-4
468.579	1	18
468.749	1	10
468.920	1	4
469.090	1	11
469.260	1	7
469.431	1	-3
469.601	1	5
469.772	1	-10
469.942	1	10
470.112	1	-5
470.283	1	8
470.453	1	11
470.623	1	-3
470.794	1	3
470.964	1	5
471.135	1	12
471.305	1	7
471.475	1	-3
471.646	1	2
471.816	1	3
471.986	1	12
472.157	1	6
472.327	1	-1
472.497	1	18
472.668	1	8
472.838	1	4
473.009	1	10
473.179	1	10
473.349	1	2
473.520	1	3
473.690	1	13
473.860	1	16
474.031	1	5
474.201	1	8
474.371	1	-2
474.542	1	18
474.712	1	6
474.882	1	-4
475.053	1	9
475.223	1	3
475.394	1	-5
475.564	1	7
475.734	1	7
475.905	1	8
476.075	1	-1
476.245	1	5
476.416	1	-6
476.586	1	4
476.756	1	1
476.927	1	-2
477.097	1	2
477.267	1	16
477.438	1	7
477.608	1	-6
477.778	1	-1
477.949	1	9
478.119	1	8
478.289	1	0
478.460	1	-10
478.630	1	14
478.800	1	11
478.971	1	13
479.141	1	7
479.311	1	7
479.482	1	11
479.652	1	12
479.822	1	3
479.993	1	2
480.163	1	4
480.333	1	2
480.504	1	3
480.674	1	6
480.844	1	1
481.015	1	-2
481.185	1	10
481.355	1	5
481.525	1	9
481.696	1	7
481.866	1	6
482.036	1	9
482.207	1	1
482.377	1	2
482.547	1	-11
482.718	1	11
482.888	1	5
483.058	1	-3
483.229	1	6
483.399	1	15
483.569	1	10
483.740	1	8
483.910	1	-8
484.080	1	-4
484.250	1	-10
484.421	1	11
484.591	1	3
484.761	1	10
484.932	1	4
485.102	1	12
485.272	1	-7
485.443	1	-8
485.613	1	17
485.783	1	17
485.953	1	-2
486.124	1	5
486.294	1	0
486.464	1	-4
486.635	1	3
486.805	1	-5
486.975	1	12
487.146	1	-5
487.316	1	7
487.486	1	6
487.656	1	0
487.827	1	-7
487.997	1	-1
488.167	1	9
488.338	1	4
488.508	1	-3
488.678	1	0
488.848	1	5
489.019	1	2
489.189	1	3
489.359	1	6
489.529	1	5
489.700	1	9
489.870	1	-8
490.040	1	0
490.211	1	3
490.381	1	12
490.551	1	1
490.721	1	4
490.892	1	5
491.062	1	-4
491.232	1	4
491.402	1	6
491.573	1	-5
491.743	1	5
491.913	1	-10
492.084	1	11
492.254	1	-3
492.424	1	8
492.594	1	16
492.765	1	1
492.935	1	4
493.105	1	12
493.275	1	2
493.446	1	1
493.616	1	-2
493.786	1	-3
493.956	1	5
494.127	1	15
494.297	1	-7
494.467	1	11
494.637	1	9
494.808	1	3
494.978	1	-3
495.148	1	6
495.318	1	11
495.489	1	-12
495.659	1	5
495.829	1	3
495.999	1	-5
496.170	1	-4
496.340	1	7
496.510	1	5
496.680	1	-7
496.851	1	6
497.021	1	-9
497.191	1	-4
497.361	1	-9
497.532	1	-3
497.702	1	11
497.872	1	9
498.042	1	11
498.213	1	18
498.383	1	8
498.553	1	-6
498.723	1	5
498.894	1	-3
499.064	1	-8
499.234	1	-1
499.404	1	-7
499.574	1	-6
499.745	1	3
499.915	1	3
500.085	1	-2
500.255	1	3
500.426	1	1
500.596	1	-6
500.766	1	-12
500.936	1	-1
501.106	1	4
501.277	1	1
501.447	1	4
501.617	1	-4
501.787	1	2
501.958	1	2
502.128	1	-2
502.298	1	5
502.468	1	5
502.638	1	-1
502.809	1	7
502.979	1	2
503.149	1	1
503.319	1	8
503.489	1	-8
503.660	1	-3
503.830	1	0
504.000	1	-1
504.170	1	10
504.340	1	6
504.511	1	-3
504.681	1	-1
504.851	1	3
505.021	1	13
505.192	1	0
505.362	1	-2
505.532	1	5
505.702	1	0
505.872	1	1
506.043	1	14
506.213	1	2
506.383	1	0
506.553	1	0
506.723	1	-1
506.893	1	-5
507.064	1	-11
507.234	1	-4
507.404	1	4
507.574	1	2
507.744	1	7
507.915	1	6
508.085	1	2
508.255	1	4
508.425	1	-5
508.595	1	-7
508.766	1	-7
508.936	1	1
509.106	1	2
509.276	1	2
509.446	1	-2
509.616	1	-3
509.787	1	2
509.957	1	14
510.127	1	9
510.297	1	-8
510.467	1	-3
510.638	1	5
510.808	1	-9
510.978	1	-9
511.148	1	16
511.318	1	9
511.488	1	10
511.659	1	-11
511.829	1	2
511.999	1	10
512.169	1	-5
512.339	1	-1
512.509	1	-3
512.680	1	3
512.850	1	4
513.020	1	-7
513.190	1	1
513.360	1	6
513.530	1	9
513.700	1	5
513.871	1	7
514.041	1	2
514.211	1	7
514.381	1	7
514.551	1	0
514.721	1	1
514.892	1	-1
515.062	1	3
515.232	1	-1
515.402	1	7
515.572	1	-1
515.742	1	8
515.912	1	-2
516.083	1	2
516.253	1	11
516.423	1	9
516.593	1	5
516.763	1	10
516.933	1	-8
517.104	1	1
517.274	1	-10
517.444	1	1
517.614	1	-3
517.784	1	10
517.954	1	7
518.124	1	2
518.294	1	14
518.465	1	-4
518.635	1	-3
518.805	1	10
518.975	1	-5
519.145	1	6
519.315	1	-5
519.485	1	-4
519.656	1	13
519.826	1	2
519.996	1	3
520.166	1	4
520.336	1	-7
520.506	1	-11
520.676	1	8
520.846	1	4
521.017	1	-4
521.187	1	6
521.357	1	6
521.527	1	4
521.697	1	12
521.867	1	-4
522.037	1	-8
522.207	1	-6
522.377	1	0
522.548	1	-2
522.718	1	1
522.888	1	16
523.058	1	9
523.228	1	8
523.398	1	0
523.568	1	8
523.738	1	6
523.909	1	0
524.079	1	-2
524.249	1	1
524.419	1	7
524.589	1	3
524.759	1	7
524.929	1	4
525.099	1	10
525.269	1	9
525.439	1	4
525.610	1	7
525.780	1	5
525.950	1	1
526.120	1	-6
526.290	1	0
526.460	1	6
526.630	1	2
526.800	1	6
526.970	1	8
527.140	1	9
527.311	1	1
527.481	1	2
527.651	1	-2
527.821	1	-11
527.991	1	1
528.161	1	0
528.331	1	3
528.501	1	13
528.671	1	8
528.841	1	-1
529.011	1	-6
529.181	1	4
529.352	1	-6
529.522	1	-9
529.692	1	-4
529.862	1	6
530.032	1	5
530.202	1	6
530.372	1	-3
530.542	1	-2
530.712	1	0
530.882	1	-14
531.052	1	18
531.222	1	-12
531.392	1	5
531.563	1	-3
531.733	1	4
531.903	1	10
532.073	1	-3
532.243	1	-7
532.413	1	13
532.583	1	4
532.753	1	-9
532.923	1	15
533.093	1	7
533.263	1	-17
533.433	1	8
533.603	1	11
533.773	1	-5
533.943	1	1
534.113	1	-2
534.284	1	0
534.454	1	-5
534.624	1	-4
534.794	1	4
534.964	1	0
535.134	1	8
535.304	1	8
535.474	1	-1
535.644	1	8
535.814	1	0
535.984	1	4
536.154	1	-2
536.324	1	2
536.494	1	5
536.664	1	-4
536.834	1	-2
537.004	1	3
537.174	1	0
537.344	1	11
537.514	1	-3
537.685	1	5
537.855	1	-5
538.025	1	5
538.195	1	-8
538.365	1	-2
538.535	1	-2
538.705	1	-1
538.875	1	7
539.045	1	-1
539.215	1	-16
539.385	1	3
539.555	1	7
539.725	1	-5
539.895	1	8
540.065	1	-6
540.235	1	9
540.405	1	4
540.575	1	4
540.745	1	0
540.915	1	-1
541.085	1	-5
541.255	1	-10
541.425	1	6
541.595	1	4
541.765	1	13
541.935	1	-6
542.105	1	11
542.275	1	0
542.445	1	-4
542.615	1	9
542.785	1	-1
542.955	1	0
543.125	1	-8
543.295	1	-6
543.465	1	6
543.635	1	5
543.805	1	10
543.975	1	-3
544.145	1	-12
544.315	1	-3
544.485	1	8
544.655	1	6
544.825	1	3
544.995	1	-1
545.165	1	0
545.335	1	0
545.505	1	0
545.675	1	-7
545.845	1	3
546.015	1	4
546.185	1	5
546.355	1	4
546.525	1	1
546.695	1	-1
546.865	1	7
547.035	1	12
547.205	1	7
547.375	1	9
547.545	1	9
547.715	1	0
547.885	1	8
548.055	1	-15
548.225	1	2
548.395	1	-4
548.565	1	6
548.735	1	8
548.905	1	-5
549.075	1	2
549.245	1	0
549.415	1	4
549.585	1	0
549.755	1	2
549.925	1	-3
550.095	1	-5
550.265	1	2
550.435	1	-7
550.605	1	-1
550.775	1	-5
550.945	1	0
551.115	1	-2
551.285	1	3
551.455	1	-6
551.625	1	-7
551.795	1	-2
551.965	1	2
552.135	1	1
552.305	1	0
552.475	1	9
552.645	1	4
552.815	1	-2
552.985	1	4
553.155	1	-3
553.325	1	7
553.495	1	11
553.665	1	4
553.835	1	-5
554.004	1	-5
554.174	1	3
554.344	1	-3
554.514	1	-9
554.684	1	-3
554.854	1	-2
555.024	1	3
555.194	1	4
555.364	1	6
555.534	1	0
555.704	1	6
555.874	1	-3
556.044	1	4
556.214	1	3
556.384	1	-4
556.554	1	7
556.724	1	5
556.894	1	-11
557.064	1	-4
557.234	1	-6
557.404	1	-7
557.573	1	-7
557.743	1	-1
557.913	1	-7
558.083	1	1
558.253	1	-4
558.423	1	0
558.593	1	9
558.763	1	0
558.933	1	3
559.103	1	12
559.273	1	-3
559.443	1	-2
559.613	1	1
559.783	1	11
559.953	1	8
560.122	1	-7
560.292	1	-9
560.462	1	-4
560.632	1	7
560.802	1	-2
560.972	1	-1
561.142	1	1
561.312	1	3
561.482	1	7
561.652	1	-8
561.822	1	-16
561.992	1	-9
562.162	1	-3
562.331	1	5
562.501	1	-11
562.671	1	2
562.841	1	-4
563.011	1	-9
563.181	1	1
563.351	1	5
563.521	1	7
563.691	1	5
563.861	1	-1
564.031	1	-9
564.201	1	4
564.370	1	-3
564.540	1	-9
564.710	1	-3
564.880	1	2
565.050	1	-4
565.220	1	-4
565.390	1	2
565.560	1	-6
565.730	1	0
565.900	1	-13
566.069	1	-9
566.239	1	3
566.409	1	7
566.579	1	4
566.749	1	-3
566.919	1	4
567.089	1	-2
567.259	1	10
567.429	1	4
567.599	1	-12
567.768	1	-1
567.938	1	-7
568.108	1	-5
568.278	1	3
568.448	1	7
568.618	1	11
568.788	1	-12
568.958	1	-3
569.128	1	-14
569.297	1	-1
569.467	1	-5
569.637	1	3
569.807	1	2
569.977	1	6
570.147	1	3
570.317	1	3
570.487	1	3
570.656	1	3
570.826	1	-13
570.996	1	4
571.166	1	-3
571.336	1	-10
571.506	1	5
571.676	1	-13
571.846	1	-7
572.015	1	3
572.185	1	0
572.355	1	5
572.525	1	-4
572.695	1	-10
572.865	1	10
573.035	1	-6
573.205	1	-9
573.374	1	3
573.544	1	-8
573.714	1	8
573.884	1	3
574.054	1	5
574.224	1	-5
574.394	1	-7
574.563	1	3
574.733	1	5
574.903	1	-13
575.073	1	-7
575.243	1	6
575.413	1	2
575.583	1	-4
575.752	1	6
575.922	1	7
576.092	1	-8
576.262	1	-10
576.432	1	8
576.602	1	-2
576.772	1	-2
576.941	1	4
577.111	1	8
577.281	1	15
577.451	1	-5
577.621	1	0
577.791	1	5
577.960	1	-4
578.130	1	-3
578.300	1	8
578.470	1	11
578.640	1	-5
578.810	1	-4
578.979	1	-3
579.149	1	-6
579.319	1	3
579.489	1	-2
579.659	1	-4
579.829	1	7
579.998	1	-6
580.168	1	-7
580.338	1	6
580.508	1	-3
580.678	1	3
580.848	1	-8
581.017	1	1
581.187	1	-4
581.357	1	-1
581.527	1	-5
581.697	1	-10
581.867	1	5
582.036	1	-2
582.206	1	4
582.376	1	5
582.546	1	17
582.716	1	0
582.885	1	2
583.055	1	-5
583.225	1	-6
583.395	1	7
583.565	1	-3
583.735	1	3
583.904	1	4
584.074	1	-8
584.244	1	2
584.414	1	-13
584.584	1	-2
584.753	1	4
584.923	1	13
585.093	1	-11
585.263	1	1
585.433	1	17
585.602	1	0
585.772	1	-1
585.942	1	-11
586.112	1	1
586.282	1	10
586.451	1	-10
586.621	1	-3
586.791	1	6
586.961	1	11
587.131	1	8
587.300	1	8
587.470	1	-1
587.640	1	-1
587.810	1	-15
587.980	1	-4
588.149	1	-3
588.319	1	1
588.489	1	-8
588.659	1	9
588.829	1	-7
588.998	1	-5
589.168	1	-1
589.338	1	-3
589.508	1	9
589.677	1	-3
589.847	1	5
590.017	1	4
590.187	1	-2
590.357	1	-6
590.526	1	5
590.696	1	-1
590.866	1	0
591.036	1	-3
591.205	1	-1
591.375	1	-9
591.545	1	2
591.715	1	-3
591.885	1	-4
592.054	1	6
592.224	1	-3
592.394	1	-2
592.564	1	-2
592.733	1	-5
592.903	1	3
593.073	1	2
593.243	1	-7
593.412	1	-5
593.582	1	-3
593.752	1	13
593.922	1	10
594.091	1	-11
594.261	1	-6
594.431	1	1
594.601	1	3
594.771	1	11
594.940	1	2
595.110	1	1
595.280	1	2
595.450	1	-1
595.619	1	3
595.789	1	2
595.959	1	-8
596.129	1	-6
596.298	1	1
596.468	1	-2
596.638	1	4
596.808	1	6
596.977	1	-10
597.147	1	10
597.317	1	3
597.487	1	3
597.656	1	7
597.826	1	-11
597.996	1	-5
598.166	1	13
598.335	1	-10
598.505	1	-12
598.675	1	3
598.844	1	4
599.014	1	-3
599.184	1	-6
599.354	1	4
599.523	1	2
599.693	1	-3
599.863	1	9
600.033	1	3
600.202	1	9
600.372	1	-5
600.542	1	1
600.712	1	6
600.881	1	3
601.051	1	1
601.221	1	12
601.390	1	7
601.560	1	2
601.730	1	-2
601.900	1	11
602.069	1	-10
602.239	1	-2
602.409	1	6
602.578	1	14
602.748	1	-5
602.918	1	3
603.088	1	7
603.257	1	3
603.427	1	4
603.597	1	0
603.767	1	-5
603.936	1	3
604.106	1	2
604.276	1	8
604.445	1	-1
604.615	1	1
604.785	1	-2
604.954	1	6
605.124	1	9
605.294	1	4
605.464	1	-6
605.633	1	6
605.803	1	9
605.973	1	4
606.142	1	3
606.312	1	0
606.482	1	-2
606.652	1	11
606.821	1	-2
606.991	1	8
607.161	1	6
607.330	1	4
607.500	1	9
607.670	1	4
607.839	1	-3
608.009	1	-1
608.179	1	2
608.348	1	4
608.518	1	0
608.688	1	9
608.858	1	-2
609.027	1	1
609.197	1	-6
609.367	1	-1
609.536	1	3
609.706	1	5
609.876	1	-1
610.045	1	5
610.215	1	5
610.385	1	0
610.554	1	4
610.724	1	5
610.894	1	1
611.063	1	-7
611.233	1	-6
611.403	1	6
611.572	1	0
611.742	1	5
611.912	1	1
612.081	1	-8
612.251	1	8
612.421	1	2
612.590	1	-6
612.760	1	2
612.930	1	-4
613.099	1	9
613.269	1	-2
613.439	1	1
613.608	1	2
613.778	1	-5
613.948	1	10
614.117	1	7
614.287	1	-3
614.457	1	2
614.626	1	7
614.796	1	5
614.966	1	5
615.135	1	2
615.305	1	8
615.475	1	-1
615.644	1	6
615.814	1	-3
615.984	1	6
616.153	1	3
616.323	1	-6
616.493	1	9
616.662	1	-7
616.832	1	-2
617.002	1	1
617.171	1	2
617.341	1	4
617.511	1	-9
617.680	1	-4
617.850	1	9
618.019	1	1
618.189	1	6
618.359	1	-5
618.528	1	-7
618.698	1	-6
618.868	1	-12
619.037	1	0
619.207	1	1
619.377	1	-10
619.546	1	-9
619.716	1	-2
619.885	1	0
620.055	1	13
620.225	1	14
620.394	1	1
620.564	1	-6
620.734	1	-7
620.903	1	6
621.073	1	-8
621.242	1	-14
621.412	1	4
621.582	1	-6
621.751	1	8
621.921	1	14
622.091	1	2
622.260	1	-1
622.430	1	4
622.599	1	7
622.769	1	0
622.939	1	-9
623.108	1	-3
623.278	1	16
623.448	1	11
623.617	1	0
623.787	1	5
623.956	1	15
624.126	1	-1
624.296	1	7
624.465	1	1
624.635	1	0
624.804	1	-1
624.974	1	8
625.144	1	11
625.313	1	5
625.483	1	4
625.652	1	7
625.822	1	4
625.992	1	1
626.161	1	-3
626.331	1	-2
626.501	1	-8
626.670	1	3
626.840	1	6
627.009	1	-2
627.179	1	-18
627.348	1	4
627.518	1	5
627.688	1	5
627.857	1	12
628.027	1	-6
628.196	1	-11
628.366	1	-2
628.536	1	7
628.705	1	-9
628.875	1	13
629.044	1	4
629.214	1	0
629.384	1	5
629.553	1	0
629.723	1	-14
629.892	1	-2
630.062	1	-13
630.232	1	8
630.401	1	8
630.571	1	10
630.740	1	-3
630.910	1	0
631.079	1	-6
631.249	1	-6
631.419	1	-2
631.588	1	-4
631.758	1	9
631.927	1	-6
632.097	1	1
632.266	1	-12
632.436	1	-1
632.606	1	-4
632.775	1	4
632.945	1	-7
633.114	1	3
633.284	1	4
633.453	1	5
633.623	1	6
633.793	1	-1
633.962	1	2
634.132	1	3
634.301	1	-5
634.471	1	-8
634.640	1	-6
634.810	1	3
634.979	1	6
635.149	1	-4
635.319	1	6
635.488	1	-5
635.658	1	5
635.827	1	-7
635.997	1	3
636.166	1	2
636.336	1	-3
636.505	1	9
636.675	1	-9
636.845	1	4
637.014	1	2
637.184	1	12
637.353	1	8
637.523	1	9
637.692	1	0
637.862	1	2
638.031	1	-6
638.201	1	0
638.370	1	12
638.540	1	2
638.710	1	4
638.879	1	12
639.049	1	-3
639.218	1	13
639.388	1	9
639.557	1	5
639.727	1	13
639.896	1	2
640.066	1	5
640.235	1	-1
640.405	1	1
640.574	1	-4
640.744	1	0
640.914	1	-4
641.083	1	-4
641.253	1	5
641.422	1	-7
641.592	1	-5
641.761	1	0
641.931	1	0
642.100	1	11
642.270	1	0
642.439	1	0
642.609	1	6
642.778	1	2
642.948	1	8
643.117	1	7
643.287	1	-6
643.456	1	6
643.626	1	-5
643.795	1	-2
643.965	1	-1
644.134	1	4
644.304	1	7
644.473	1	-4
644.643	1	-6
644.812	1	9
644.982	1	-2
645.151	1	9
645.321	1	-8
645.490	1	14
645.660	1	2
645.829	1	-2
645.999	1	-5
646.168	1	-3
646.338	1	8
646.507	1	-4
646.677	1	-4
646.846	1	4
647.016	1	-2
647.185	1	0
647.355	1	9
647.524	1	-2
647.694	1	-9
647.863	1	6
648.033	1	1
648.202	1	-5
648.372	1	0
648.541	1	-3
648.711	1	1
648.880	1	3
649.050	1	8
649.219	1	2
649.389	1	-3
649.558	1	-2
649.728	1	12
649.897	1	7
650.067	1	-6
650.236	1	-1
650.406	1	7
650.575	1	5
650.745	1	4
650.914	1	-4
651.084	1	7
651.253	1	-1
651.423	1	-5
651.592	1	-2
651.762	1	11
651.931	1	3
652.101	1	6
652.270	1	-2
652.440	1	10
652.609	1	13
652.778	1	-2
652.948	1	5
653.117	1	-5
653.287	1	0
653.456	1	1
653.626	1	4
653.795	1	-10
653.965	1	-10
654.134	1	-8
654.304	1	-3
654.473	1	-8
654.643	1	7
654.812	1	-1
654.982	1	3
655.151	1	7
655.320	1	2
655.490	1	4
655.659	1	-2
655.829	1	3
655.998	1	-8
656.168	1	-1
656.337	1	4
656.507	1	-10
656.676	1	-1
656.846	1	2
657.015	1	1
657.184	1	-1
657.354	1	7
657.523	1	-1
657.693	1	-7
657.862	1	-9
658.032	1	4
658.201	1	10
658.371	1	-3
658.540	1	-3
658.709	1	-2
658.879	1	3
659.048	1	0
659.218	1	-7
659.387	1	3
659.557	1	7
659.726	1	-3
659.895	1	5
660.065	1	5
660.234	1	-5
660.404	1	-1
660.573	1	-1
660.743	1	-6
660.912	1	-16
661.081	1	-13
661.251	1	6
661.420	1	7
661.590	1	-1
661.759	1	-9
661.929	1	10
662.098	1	12
662.267	1	7
662.437	1	6
662.606	1	3
662.776	1	-5
662.945	1	4
663.115	1	6
663.284	1	9
663.453	1	9
663.623	1	12
663.792	1	-2
663.962	1	4
664.131	1	4
664.300	1	-21
664.470	1	6
664.639	1	-1
664.809	1	-1
664.978	1	7
665.148	1	5
665.317	1	0
665.486	1	-5
665.656	1	2
665.825	1	7
665.995	1	-4
666.164	1	14
666.333	1	0
666.503	1	-2
666.672	1	6
666.842	1	-6
667.011	1	-2
667.180	1	-2
667.350	1	11
667.519	1	-2
667.689	1	-7
667.858	1	4
668.027	1	3
668.197	1	13
668.366	1	-1
668.536	1	-6
668.705	1	2
668.874	1	1
669.044	1	-2
669.213	1	5
669.382	1	5
669.552	1	7
669.721	1	1
669.891	1	0
670.060	1	3
670.229	1	-8
670.399	1	1
670.568	1	2
670.738	1	-1
670.907	1	2
671.076	1	1
671.246	1	-1
671.415	1	13
671.584	1	3
671.754	1	1
671.923	1	8
672.093	1	-1
672.262	1	5
672.431	1	5
672.601	1	-5
672.770	1	-4
672.939	1	-6
673.109	1	11
673.278	1	-1
673.448	1	3
673.617	1	-1
673.786	1	5
