325.333	1	6
325.504	1	14
325.675	1	3
325.846	1	-2
326.017	1	4
326.188	1	7
326.359	1	4
326.531	1	7
326.702	1	7
326.873	1	-1
327.044	1	18
327.215	1	2
327.386	1	0
327.557	1	2
327.728	1	5
327.899	1	-1
328.070	1	10
328.241	1	12
328.412	1	-2
328.583	1	8
328.754	1	-1
328.926	1	5
329.097	1	-1
329.268	1	-1
329.439	1	-4
329.610	1	13
329.781	1	4
329.952	1	7
330.123	1	10
330.294	1	6
330.465	1	18
330.636	1	16
330.807	1	-9
330.978	1	2
331.149	1	1
331.320	1	11
331.492	1	5
331.663	1	0
331.834	1	7
332.005	1	12
332.176	1	5
332.347	1	12
332.518	1	17
332.689	1	2
332.860	1	-3
333.031	1	2
333.202	1	8
333.373	1	7
333.544	1	0
333.715	1	8
333.886	1	5
334.057	1	4
334.228	1	4
334.399	1	15
334.570	1	-2
334.741	1	5
334.912	1	2
335.084	1	-1
335.255	1	18
335.426	1	12
335.597	1	5
335.768	1	14
335.939	1	-11
336.110	1	8
336.281	1	5
336.452	1	7
336.623	1	-7
336.794	1	-1
336.965	1	5
337.136	1	11
337.307	1	7
337.478	1	5
337.649	1	-2
337.820	1	-8
337.991	1	13
338.162	1	10
338.333	1	13
338.504	1	13
338.675	1	12
338.846	1	13
339.017	1	9
339.188	1	16
339.359	1	11
339.530	1	10
339.701	1	3
339.872	1	13
340.043	1	-8
340.214	1	-2
340.385	1	0
340.556	1	5
340.727	1	9
340.898	1	12
341.069	1	-6
341.240	1	12
341.411	1	21
341.582	1	11
341.753	1	-6
341.924	1	0
342.095	1	16
342.266	1	4
342.437	1	3
342.608	1	9
342.779	1	9
342.950	1	-6
343.121	1	10
343.292	1	16
343.463	1	11
343.634	1	0
343.805	1	9
343.976	1	-5
344.147	1	8
344.318	1	4
344.489	1	8
344.660	1	13
344.831	1	5
345.002	1	17
345.173	1	8
345.344	1	5
345.515	1	7
345.686	1	-6
345.857	1	1
346.028	1	-2
346.199	1	11
346.370	1	7
346.541	1	11
346.712	1	14
346.883	1	22
347.054	1	10
347.225	1	-6
347.396	1	-2
347.567	1	3
347.738	1	13
347.909	1	10
348.080	1	9
348.251	1	3
348.422	1	3
348.593	1	11
348.764	1	2
348.935	1	9
349.106	1	7
349.277	1	5
349.448	1	-4
349.619	1	10
349.790	1	21
349.961	1	1
350.132	1	17
350.303	1	17
350.474	1	13
350.645	1	14
350.816	1	-1
350.987	1	13
351.157	1	10
351.328	1	10
351.499	1	18
351.670	1	7
351.841	1	4
352.012	1	11
352.183	1	10
352.354	1	12
352.525	1	19
352.696	1	7
352.867	1	11
353.038	1	7
353.209	1	8
353.380	1	8
353.551	1	2
353.722	1	11
353.893	1	11
354.064	1	9
354.235	1	16
354.406	1	12
354.576	1	-2
354.747	1	15
354.918	1	22
355.089	1	16
355.260	1	12
355.431	1	22
355.602	1	10
355.773	1	9
355.944	1	7
356.115	1	1
356.286	1	11
356.457	1	5
356.628	1	7
356.799	1	6
356.970	1	12
357.141	1	15
357.311	1	5
357.482	1	6
357.653	1	8
357.824	1	23
357.995	1	14
358.166	1	10
358.337	1	5
358.508	1	-6
358.679	1	9
358.850	1	3
359.021	1	16
359.192	1	4
359.363	1	1
359.533	1	7
359.704	1	10
359.875	1	0
360.046	1	7
360.217	1	9
360.388	1	3
360.559	1	10
360.730	1	12
360.901	1	2
361.072	1	7
361.243	1	14
361.414	1	6
361.584	1	10
361.755	1	10
361.926	1	1
362.097	1	6
362.268	1	17
362.439	1	13
362.610	1	4
362.781	1	14
362.952	1	5
363.123	1	12
363.293	1	-1
363.464	1	9
363.635	1	18
363.806	1	18
363.977	1	11
364.148	1	2
364.319	1	6
364.490	1	7
364.661	1	6
364.832	1	13
365.002	1	13
365.173	1	10
365.344	1	6
365.515	1	18
365.686	1	8
365.857	1	26
366.028	1	10
366.199	1	12
366.370	1	8
366.540	1	6
366.711	1	11
366.882	1	9
367.053	1	14
367.224	1	1
367.395	1	14
367.566	1	10
367.737	1	12
367.908	1	0
368.078	1	7
368.249	1	9
368.420	1	14
368.591	1	12
368.762	1	1
368.933	1	13
369.104	1	1
369.274	1	14
369.445	1	21
369.616	1	6
369.787	1	5
369.958	1	23
370.129	1	11
370.300	1	11
370.471	1	9
370.641	1	5
370.812	1	7
370.983	1	12
371.154	1	20
371.325	1	11
371.496	1	14
371.667	1	16
371.837	1	5
372.008	1	27
372.179	1	9
372.350	1	17
372.521	1	18
372.692	1	12
372.863	1	9
373.033	1	33
373.204	1	26
373.375	1	7
373.546	1	13
373.717	1	13
373.888	1	8
374.059	1	13
374.229	1	18
374.400	1	10
374.571	1	6
374.742	1	9
374.913	1	9
375.084	1	29
375.254	1	5
375.425	1	2
375.596	1	7
375.767	1	9
375.938	1	-1
376.109	1	4
376.279	1	21
376.450	1	6
376.621	1	13
376.792	1	16
376.963	1	3
377.134	1	3
377.304	1	19
377.475	1	14
377.646	1	-1
377.817	1	7
377.988	1	15
378.159	1	10
378.329	1	22
378.500	1	3
378.671	1	16
378.842	1	2
379.013	1	12
379.184	1	23
379.354	1	18
379.525	1	8
379.696	1	21
379.867	1	-2
380.038	1	20
380.209	1	15
380.379	1	16
380.550	1	9
380.721	1	17
380.892	1	22
381.063	1	10
381.233	1	13
381.404	1	17
381.575	1	18
381.746	1	16
381.917	1	14
382.087	1	14
382.258	1	23
382.429	1	10
382.600	1	21
382.771	1	11
382.941	1	11
383.112	1	15
383.283	1	14
383.454	1	13
383.625	1	11
383.795	1	15
383.966	1	19
384.137	1	20
384.308	1	6
384.479	1	15
384.649	1	21
384.820	1	12
384.991	1	8
385.162	1	13
385.333	1	16
385.503	1	20
385.674	1	24
385.845	1	13
386.016	1	9
386.187	1	11
386.357	1	22
386.528	1	4
386.699	1	7
386.870	1	10
387.041	1	10
387.211	1	10
387.382	1	14
387.553	1	21
387.724	1	5
387.894	1	25
388.065	1	26
388.236	1	20
388.407	1	12
388.578	1	21
388.748	1	10
388.919	1	25
389.090	1	16
389.261	1	22
389.431	1	32
389.602	1	3
389.773	1	13
389.944	1	23
390.114	1	25
390.285	1	13
390.456	1	15
390.627	1	13
390.798	1	13
390.968	1	20
391.139	1	10
391.310	1	20
391.481	1	18
391.651	1	17
391.822	1	24
391.993	1	13
392.164	1	8
392.334	1	-2
392.505	1	24
392.676	1	20
392.847	1	26
393.017	1	16
393.188	1	26
393.359	1	15
393.530	1	15
393.700	1	27
393.871	1	14
394.042	1	14
394.213	1	30
394.383	1	24
394.554	1	12
394.725	1	10
394.896	1	11
395.066	1	9
395.237	1	12
395.408	1	6
395.579	1	21
395.749	1	17
395.920	1	16
396.091	1	22
396.262	1	14
396.432	1	15
396.603	1	16
396.774	1	17
396.945	1	11
397.115	1	5
397.286	1	22
397.457	1	21
397.627	1	19
397.798	1	26
397.969	1	27
398.140	1	11
398.310	1	19
398.481	1	19
398.652	1	12
398.823	1	13
398.993	1	28
399.164	1	14
399.335	1	8
399.505	1	25
399.676	1	22
399.847	1	20
400.018	1	21
400.188	1	16
400.359	1	20
400.530	1	12
400.700	1	10
400.871	1	24
401.042	1	18
401.213	1	19
401.383	1	26
401.554	1	23
401.725	1	15
401.895	1	10
402.066	1	25
402.237	1	35
402.408	1	26
402.578	1	17
402.749	1	15
402.920	1	21
403.090	1	20
403.261	1	17
403.432	1	30
403.603	1	11
403.773	1	26
403.944	1	20
404.115	1	11
404.285	1	38
404.456	1	27
404.627	1	16
404.797	1	9
404.968	1	14
405.139	1	20
405.310	1	21
405.480	1	26
405.651	1	28
405.822	1	36
405.992	1	28
406.163	1	21
406.334	1	12
406.504	1	12
406.675	1	15
406.846	1	21
407.016	1	19
407.187	1	18
407.358	1	24
407.528	1	32
407.699	1	19
407.870	1	24
408.041	1	12
408.211	1	16
408.382	1	20
408.553	1	17
408.723	1	20
408.894	1	26
409.065	1	25
409.235	1	12
409.406	1	19
409.577	1	23
409.747	1	34
409.918	1	9
410.089	1	9
410.259	1	12
410.430	1	20
410.601	1	24
410.771	1	28
410.942	1	12
411.113	1	36
411.283	1	18
411.454	1	22
411.625	1	10
411.795	1	18
411.966	1	6
412.137	1	23
412.307	1	14
412.478	1	30
412.649	1	19
412.819	1	12
412.990	1	26
413.161	1	19
413.331	1	21
413.502	1	8
413.672	1	24
413.843	1	26
414.014	1	29
414.184	1	26
414.355	1	18
414.526	1	23
414.696	1	23
414.867	1	23
415.038	1	13
415.208	1	18
415.379	1	24
415.550	1	25
415.720	1	21
415.891	1	25
416.062	1	14
416.232	1	12
416.403	1	18
416.573	1	21
416.744	1	18
416.915	1	23
417.085	1	15
417.256	1	15
417.427	1	27
417.597	1	14
417.768	1	29
417.939	1	26
418.109	1	13
418.280	1	21
418.450	1	33
418.621	1	19
418.792	1	14
418.962	1	18
419.133	1	21
419.304	1	10
419.474	1	14
419.645	1	16
419.815	1	28
419.986	1	14
420.157	1	36
420.327	1	20
420.498	1	13
420.669	1	19
420.839	1	24
421.010	1	25
421.180	1	17
421.351	1	23
421.522	1	30
421.692	1	35
421.863	1	21
422.033	1	26
422.204	1	25
422.375	1	15
422.545	1	20
422.716	1	21
422.886	1	30
423.057	1	13
423.228	1	23
423.398	1	22
423.569	1	24
423.740	1	17
423.910	1	28
424.081	1	25
424.251	1	16
424.422	1	8
424.593	1	5
424.763	1	25
424.934	1	22
425.104	1	22
425.275	1	28
425.445	1	32
425.616	1	21
425.787	1	24
425.957	1	15
426.128	1	23
426.298	1	16
426.469	1	24
426.640	1	20
426.810	1	21
426.981	1	34
427.151	1	16
427.322	1	7
427.493	1	21
427.663	1	17
427.834	1	21
428.004	1	22
428.175	1	11
428.345	1	22
428.516	1	18
428.687	1	22
428.857	1	23
429.028	1	15
429.198	1	26
429.369	1	20
429.540	1	16
429.710	1	27
429.881	1	23
430.051	1	18
430.222	1	31
430.392	1	20
430.563	1	10
430.734	1	28
430.904	1	16
431.075	1	14
431.245	1	12
431.416	1	6
431.586	1	22
431.757	1	22
431.927	1	7
432.098	1	25
432.269	1	29
432.439	1	27
432.610	1	28
432.780	1	10
432.951	1	10
433.121	1	21
433.292	1	17
433.462	1	25
433.633	1	32
433.804	1	11
433.974	1	16
434.145	1	12
434.315	1	23
434.486	1	18
434.656	1	16
434.827	1	21
434.997	1	22
435.168	1	19
435.339	1	19
435.509	1	15
435.680	1	19
435.850	1	18
436.021	1	25
436.191	1	32
436.362	1	34
436.532	1	26
436.703	1	31
436.873	1	21
437.044	1	18
437.214	1	34
437.385	1	33
437.556	1	25
437.726	1	17
437.897	1	18
438.067	1	18
438.238	1	23
438.408	1	19
438.579	1	24
438.749	1	9
438.920	1	18
439.090	1	21
439.261	1	26
439.431	1	29
439.602	1	23
439.772	1	26
439.943	1	29
440.113	1	27
440.284	1	16
440.455	1	22
440.625	1	7
440.796	1	17
440.966	1	17
441.137	1	16
441.307	1	23
441.478	1	16
441.648	1	31
441.819	1	12
441.989	1	18
442.160	1	27
442.330	1	29
442.501	1	17
442.671	1	20
442.842	1	34
443.012	1	17
443.183	1	16
443.353	1	24
443.524	1	19
443.694	1	22
443.865	1	22
444.035	1	20
444.206	1	16
444.376	1	29
444.547	1	19
444.717	1	21
444.888	1	18
445.058	1	21
445.229	1	16
445.399	1	15
445.570	1	13
445.740	1	20
445.911	1	20
446.081	1	20
446.252	1	19
446.422	1	27
446.593	1	24
446.763	1	27
446.934	1	23
447.104	1	12
447.275	1	21
447.445	1	17
447.616	1	22
447.786	1	13
447.957	1	17
448.127	1	30
448.298	1	28
448.468	1	16
448.639	1	18
448.809	1	21
448.979	1	34
449.150	1	19
449.320	1	25
449.491	1	36
449.661	1	26
449.832	1	18
450.002	1	29
450.173	1	14
450.343	1	19
450.514	1	24
450.684	1	22
450.855	1	15
451.025	1	17
451.196	1	32
451.366	1	14
451.537	1	16
451.707	1	24
451.878	1	22
452.048	1	23
452.218	1	19
452.389	1	18
452.559	1	13
452.730	1	16
452.900	1	21
453.071	1	20
453.241	1	18
453.412	1	15
453.582	1	12
453.753	1	26
453.923	1	24
454.093	1	28
454.264	1	9
454.434	1	24
454.605	1	18
454.775	1	16
454.946	1	14
455.116	1	10
455.287	1	17
455.457	1	25
455.628	1	20
455.798	1	14
455.968	1	19
456.139	1	18
456.309	1	35
456.480	1	14
456.650	1	22
456.821	1	29
456.991	1	11
457.161	1	24
457.332	1	12
457.502	1	23
457.673	1	21
457.843	1	23
458.014	1	15
458.184	1	21
458.355	1	17
458.525	1	24
458.695	1	28
458.866	1	26
459.036	1	21
459.207	1	11
459.377	1	25
459.548	1	17
459.718	1	23
459.888	1	28
460.059	1	28
460.229	1	18
460.400	1	21
460.570	1	23
460.740	1	23
460.911	1	15
461.081	1	27
461.252	1	25
461.422	1	25
461.593	1	28
461.763	1	18
461.933	1	26
462.104	1	18
462.274	1	7
462.445	1	18
462.615	1	24
462.785	1	15
462.956	1	20
463.126	1	26
463.297	1	13
463.467	1	22
463.638	1	16
463.808	1	17
463.978	1	19
464.149	1	7
464.319	1	18
464.490	1	20
464.660	1	16
464.830	1	9
465.001	1	15
465.171	1	12
465.342	1	12
465.512	1	16
465.682	1	20
465.853	1	10
466.023	1	14
466.194	1	19
466.364	1	24
466.534	1	16
466.705	1	9
466.875	1	19
467.045	1	17
467.216	1	17
467.386	1	35
467.557	1	29
467.727	1	21
467.897	1	9
468.068	1	4
468.238	1	20
468.409	1	5
468.579	1	16
468.749	1	19
468.920	1	13
469.090	1	17
469.260	1	12
469.431	1	23
469.601	1	12
469.772	1	1
469.942	1	18
470.112	1	14
470.283	1	19
470.453	1	22
470.623	1	8
470.794	1	12
470.964	1	21
471.135	1	14
471.305	1	19
471.475	1	17
471.646	1	17
471.816	1	14
471.986	1	23
472.157	1	18
472.327	1	22
472.497	1	29
472.668	1	14
472.838	1	22
473.009	1	17
473.179	1	19
473.349	1	25
473.520	1	14
473.690	1	19
473.860	1	12
474.031	1	17
474.201	1	19
474.371	1	19
474.542	1	29
474.712	1	12
474.882	1	12
475.053	1	31
475.223	1	3
475.394	1	5
475.564	1	9
475.734	1	17
475.905	1	18
476.075	1	11
476.245	1	26
476.416	1	13
476.586	1	21
476.756	1	17
476.927	1	10
477.097	1	11
477.267	1	12
477.438	1	22
477.608	1	3
477.778	1	15
477.949	1	20
478.119	1	15
478.289	1	8
478.460	1	2
478.630	1	28
478.800	1	29
478.971	1	21
479.141	1	12
479.311	1	14
479.482	1	15
479.652	1	20
479.822	1	15
479.993	1	10
480.163	1	9
480.333	1	14
480.504	1	8
480.674	1	16
480.844	1	17
481.015	1	7
481.185	1	9
481.355	1	21
481.525	1	23
481.696	1	12
481.866	1	18
482.036	1	20
482.207	1	16
482.377	1	16
482.547	1	12
482.718	1	8
482.888	1	16
483.058	1	10
483.229	1	11
483.399	1	13
483.569	1	19
483.740	1	16
483.910	1	2
484.080	1	8
484.250	1	2
484.421	1	16
484.591	1	17
484.761	1	14
484.932	1	9
485.102	1	19
485.272	1	4
485.443	1	17
485.613	1	16
485.783	1	24
485.953	1	18
486.124	1	9
486.294	1	7
486.464	1	9
486.635	1	9
486.805	1	8
486.975	1	14
487.146	1	6
487.316	1	7
487.486	1	9
487.656	1	12
487.827	1	13
487.997	1	-2
488.167	1	13
488.338	1	13
488.508	1	5
488.678	1	14
488.848	1	4
489.019	1	16
489.189	1	11
489.359	1	9
489.529	1	13
489.700	1	17
489.870	1	2
490.040	1	9
490.211	1	9
490.381	1	11
490.551	1	0
490.721	1	20
490.892	1	10
491.062	1	9
491.232	1	7
491.402	1	3
491.573	1	8
491.743	1	8
491.913	1	12
492.084	1	13
492.254	1	10
492.424	1	12
492.594	1	16
492.765	1	19
492.935	1	5
493.105	1	17
493.275	1	11
493.446	1	6
493.616	1	13
493.786	1	1
493.956	1	7
494.127	1	19
494.297	1	5
494.467	1	8
494.637	1	12
494.808	1	12
494.978	1	3
495.148	1	5
495.318	1	13
495.489	1	-3
495.659	1	6
495.829	1	12
495.999	1	13
496.170	1	8
496.340	1	14
496.510	1	13
496.680	1	1
496.851	1	8
497.021	1	3
497.191	1	10
497.361	1	5
497.532	1	5
497.702	1	21
497.872	1	22
498.042	1	12
498.213	1	16
498.383	1	11
498.553	1	4
498.723	1	4
498.894	1	15
499.064	1	12
499.234	1	16
499.404	1	4
499.574	1	13
499.745	1	14
499.915	1	4
500.085	1	14
500.255	1	13
500.426	1	13
500.596	1	11
500.766	1	14
500.936	1	18
501.106	1	10
501.277	1	15
501.447	1	22
501.617	1	3
501.787	1	12
501.958	1	8
502.128	1	-3
502.298	1	1
502.468	1	3
502.638	1	-5
502.809	1	18
502.979	1	20
503.149	1	8
503.319	1	12
503.489	1	1
503.660	1	7
503.830	1	5
504.000	1	10
504.170	1	4
504.340	1	6
504.511	1	6
504.681	1	11
504.851	1	16
505.021	1	26
505.192	1	-3
505.362	1	6
505.532	1	13
505.702	1	11
505.872	1	6
506.043	1	18
506.213	1	18
506.383	1	13
506.553	1	10
506.723	1	12
506.893	1	9
507.064	1	-4
507.234	1	4
507.404	1	18
507.574	1	10
507.744	1	9
507.915	1	11
508.085	1	7
508.255	1	8
508.425	1	0
508.595	1	1
508.766	1	14
508.936	1	13
509.106	1	10
509.276	1	3
509.446	1	5
509.616	1	4
509.787	1	4
509.957	1	-1
510.127	1	0
510.297	1	7
510.467	1	-1
510.638	1	15
510.808	1	9
510.978	1	1
511.148	1	18
511.318	1	-2
511.488	1	27
511.659	1	1
511.829	1	8
511.999	1	12
512.169	1	2
512.339	1	14
512.509	1	9
512.680	1	18
512.850	1	12
513.020	1	2
513.190	1	-1
513.360	1	4
513.530	1	3
513.700	1	16
513.871	1	17
514.041	1	12
514.211	1	11
514.381	1	15
514.551	1	6
514.721	1	16
514.892	1	3
515.062	1	0
515.232	1	6
515.402	1	12
515.572	1	-1
515.742	1	-2
515.912	1	3
516.083	1	6
516.253	1	4
516.423	1	7
516.593	1	8
516.763	1	5
516.933	1	-6
517.104	1	11
517.274	1	4
517.444	1	6
517.614	1	-1
517.784	1	15
517.954	1	20
518.124	1	-8
518.294	1	15
518.465	1	-3
518.635	1	-2
518.805	1	22
518.975	1	1
519.145	1	17
519.315	1	-6
519.485	1	6
519.656	1	10
519.826	1	22
519.996	1	8
520.166	1	14
520.336	1	6
520.506	1	-4
520.676	1	8
520.846	1	6
521.017	1	5
521.187	1	12
521.357	1	-2
521.527	1	12
521.697	1	9
521.867	1	0
522.037	1	-6
522.207	1	8
522.377	1	5
522.548	1	9
522.718	1	9
522.888	1	13
523.058	1	2
523.228	1	3
523.398	1	15
523.568	1	4
523.738	1	11
523.909	1	8
524.079	1	10
524.249	1	1
524.419	1	5
524.589	1	1
524.759	1	9
524.929	1	1
525.099	1	4
525.269	1	16
525.439	1	-4
525.610	1	12
525.780	1	3
525.950	1	20
526.120	1	0
526.290	1	-1
526.460	1	-1
526.630	1	3
526.800	1	11
526.970	1	16
527.140	1	7
527.311	1	-2
527.481	1	13
527.651	1	6
527.821	1	-6
527.991	1	2
528.161	1	8
528.331	1	16
528.501	1	5
528.671	1	-1
528.841	1	1
529.011	1	1
529.181	1	15
529.352	1	1
529.522	1	3
529.692	1	-2
529.862	1	11
530.032	1	4
530.202	1	18
530.372	1	-1
530.542	1	9
530.712	1	0
530.882	1	-1
531.052	1	9
531.222	1	-6
531.392	1	12
531.563	1	15
531.733	1	3
531.903	1	17
532.073	1	-6
532.243	1	4
532.413	1	12
532.583	1	1
532.753	1	3
532.923	1	10
533.093	1	16
533.263	1	-10
533.433	1	13
533.603	1	10
533.773	1	1
533.943	1	0
534.113	1	6
534.284	1	6
534.454	1	0
534.624	1	14
534.794	1	-9
534.964	1	7
535.134	1	11
535.304	1	8
535.474	1	-2
535.644	1	-7
535.814	1	7
535.984	1	9
536.154	1	10
536.324	1	15
536.494	1	13
536.664	1	13
536.834	1	6
537.004	1	5
537.174	1	2
537.344	1	13
537.514	1	-8
537.685	1	1
537.855	1	6
538.025	1	2
538.195	1	3
538.365	1	7
538.535	1	-2
538.705	1	11
538.875	1	15
539.045	1	6
539.215	1	-7
539.385	1	-2
539.555	1	-2
539.725	1	-3
539.895	1	12
540.065	1	0
540.235	1	9
540.405	1	14
540.575	1	1
540.745	1	6
540.915	1	4
541.085	1	-4
541.255	1	-6
541.425	1	0
541.595	1	5
541.765	1	16
541.935	1	-7
542.105	1	14
542.275	1	9
542.445	1	-1
542.615	1	14
542.785	1	-6
542.955	1	-1
543.125	1	-5
543.295	1	4
543.465	1	6
543.635	1	13
543.805	1	13
543.975	1	9
544.145	1	2
544.315	1	-6
544.485	1	6
544.655	1	10
544.825	1	8
544.995	1	10
545.165	1	5
545.335	1	-2
545.505	1	10
545.675	1	-2
545.845	1	10
546.015	1	-1
546.185	1	11
546.355	1	1
546.525	1	1
546.695	1	4
546.865	1	14
547.035	1	9
547.205	1	9
547.375	1	13
547.545	1	7
547.715	1	14
547.885	1	14
548.055	1	-11
548.225	1	14
548.395	1	5
548.565	1	9
548.735	1	2
548.905	1	-1
549.075	1	9
549.245	1	4
549.415	1	1
549.585	1	15
549.755	1	3
549.925	1	2
550.095	1	-5
550.265	1	5
550.435	1	-5
550.605	1	5
550.775	1	-2
550.945	1	9
551.115	1	3
551.285	1	5
551.455	1	7
551.625	1	-6
551.795	1	4
551.965	1	16
552.135	1	4
552.305	1	4
552.475	1	0
552.645	1	2
552.815	1	-1
552.985	1	-3
553.155	1	-2
553.325	1	8
553.495	1	2
553.665	1	14
553.835	1	3
554.004	1	1
554.174	1	5
554.344	1	1
554.514	1	15
554.684	1	0
554.854	1	-5
555.024	1	7
555.194	1	3
555.364	1	8
555.534	1	-2
555.704	1	13
555.874	1	0
556.044	1	9
556.214	1	6
556.384	1	1
556.554	1	11
556.724	1	9
556.894	1	6
557.064	1	7
557.234	1	5
557.404	1	5
557.573	1	-8
557.743	1	5
557.913	1	-1
558.083	1	13
558.253	1	-8
558.423	1	0
558.593	1	6
558.763	1	7
558.933	1	-8
559.103	1	6
559.273	1	-1
559.443	1	2
559.613	1	16
559.783	1	11
559.953	1	19
560.122	1	-3
560.292	1	-2
560.462	1	1
560.632	1	7
560.802	1	1
560.972	1	8
561.142	1	3
561.312	1	10
561.482	1	4
561.652	1	2
561.822	1	-2
561.992	1	2
562.162	1	7
562.331	1	5
562.501	1	-9
562.671	1	12
562.841	1	4
563.011	1	-3
563.181	1	14
563.351	1	8
563.521	1	9
563.691	1	9
563.861	1	1
564.031	1	1
564.201	1	-1
564.370	1	6
564.540	1	5
564.710	1	-3
564.880	1	2
565.050	1	-5
565.220	1	-6
565.390	1	9
565.560	1	-8
565.730	1	2
565.900	1	-5
566.069	1	-2
566.239	1	7
566.409	1	11
566.579	1	1
566.749	1	4
566.919	1	11
567.089	1	6
567.259	1	-1
567.429	1	7
567.599	1	-2
567.768	1	7
567.938	1	-1
568.108	1	14
568.278	1	9
568.448	1	2
568.618	1	1
568.788	1	-11
568.958	1	-9
569.128	1	-10
569.297	1	-1
569.467	1	2
569.637	1	5
569.807	1	8
569.977	1	7
570.147	1	-2
570.317	1	-1
570.487	1	5
570.656	1	6
570.826	1	-7
570.996	1	0
571.166	1	-3
571.336	1	-7
571.506	1	6
571.676	1	-3
571.846	1	-7
572.015	1	6
572.185	1	-5
572.355	1	11
572.525	1	2
572.695	1	2
572.865	1	13
573.035	1	-7
573.205	1	-3
573.374	1	10
573.544	1	4
573.714	1	4
573.884	1	14
574.054	1	-2
574.224	1	9
574.394	1	-8
574.563	1	9
574.733	1	8
574.903	1	6
575.073	1	5
575.243	1	9
575.413	1	-3
575.583	1	-3
575.752	1	8
575.922	1	6
576.092	1	4
576.262	1	1
576.432	1	8
576.602	1	2
576.772	1	2
576.941	1	1
577.111	1	-6
577.281	1	17
577.451	1	-1
577.621	1	7
577.791	1	0
577.960	1	5
578.130	1	11
578.300	1	11
578.470	1	2
578.640	1	-4
578.810	1	7
578.979	1	2
579.149	1	9
579.319	1	2
579.489	1	0
579.659	1	5
579.829	1	4
579.998	1	3
580.168	1	-4
580.338	1	8
580.508	1	-4
580.678	1	10
580.848	1	4
581.017	1	4
581.187	1	4
581.357	1	8
581.527	1	-1
581.697	1	-5
581.867	1	0
582.036	1	4
582.206	1	-4
582.376	1	3
582.546	1	14
582.716	1	6
582.885	1	4
583.055	1	0
583.225	1	-2
583.395	1	-2
583.565	1	-6
583.735	1	3
583.904	1	-1
584.074	1	3
584.244	1	12
584.414	1	4
584.584	1	12
584.753	1	5
584.923	1	7
585.093	1	-8
585.263	1	-1
585.433	1	12
585.602	1	-3
585.772	1	9
585.942	1	1
586.112	1	6
586.282	1	12
586.451	1	-2
586.621	1	-1
586.791	1	0
586.961	1	5
587.131	1	5
587.300	1	7
587.470	1	2
587.640	1	-9
587.810	1	-6
587.980	1	-1
588.149	1	-5
588.319	1	7
588.489	1	-1
588.659	1	9
588.829	1	-6
588.998	1	-6
589.168	1	0
589.338	1	4
589.508	1	10
589.677	1	3
589.847	1	9
590.017	1	4
590.187	1	2
590.357	1	-3
590.526	1	13
590.696	1	8
590.866	1	7
591.036	1	-2
591.205	1	0
591.375	1	3
591.545	1	4
591.715	1	-3
591.885	1	-4
592.054	1	10
592.224	1	0
592.394	1	4
592.564	1	-3
592.733	1	13
592.903	1	3
593.073	1	0
593.243	1	12
593.412	1	-4
593.582	1	-1
593.752	1	4
593.922	1	15
594.091	1	-2
594.261	1	-2
594.431	1	6
594.601	1	7
594.771	1	15
594.940	1	1
595.110	1	-8
595.280	1	5
595.450	1	-1
595.619	1	2
595.789	1	14
595.959	1	1
596.129	1	-3
596.298	1	7
596.468	1	3
596.638	1	9
596.808	1	5
596.977	1	-5
597.147	1	-4
597.317	1	4
597.487	1	6
597.656	1	1
597.826	1	-5
597.996	1	-3
598.166	1	6
598.335	1	-7
598.505	1	-4
598.675	1	1
598.844	1	10
599.014	1	0
599.184	1	0
599.354	1	4
599.523	1	9
599.693	1	12
599.863	1	9
600.033	1	0
600.202	1	8
600.372	1	9
600.542	1	7
600.712	1	2
600.881	1	6
601.051	1	15
601.221	1	15
601.390	1	12
601.560	1	-1
601.730	1	4
601.900	1	11
602.069	1	-16
602.239	1	7
602.409	1	4
602.578	1	6
602.748	1	8
602.918	1	7
603.088	1	9
603.257	1	1
603.427	1	15
603.597	1	4
603.767	1	4
603.936	1	8
604.106	1	7
604.276	1	9
604.445	1	-4
604.615	1	2
604.785	1	9
604.954	1	5
605.124	1	9
605.294	1	5
605.464	1	-3
605.633	1	8
605.803	1	4
605.973	1	0
606.142	1	4
606.312	1	5
606.482	1	7
606.652	1	12
606.821	1	5
606.991	1	-11
607.161	1	7
607.330	1	4
607.500	1	14
607.670	1	-3
607.839	1	2
608.009	1	4
608.179	1	-8
608.348	1	2
608.518	1	8
608.688	1	0
608.858	1	-2
609.027	1	-1
609.197	1	6
609.367	1	-3
609.536	1	16
609.706	1	3
609.876	1	-2
610.045	1	5
610.215	1	14
610.385	1	1
610.554	1	-8
610.724	1	7
610.894	1	-3
611.063	1	6
611.233	1	-2
611.403	1	0
611.572	1	9
611.742	1	12
611.912	1	1
612.081	1	8
612.251	1	7
612.421	1	-1
612.590	1	-4
612.760	1	6
612.930	1	1
613.099	1	6
613.269	1	7
613.439	1	10
613.608	1	13
613.778	1	-2
613.948	1	10
614.117	1	3
614.287	1	-2
614.457	1	1
614.626	1	7
614.796	1	7
614.966	1	9
615.135	1	14
615.305	1	12
615.475	1	9
615.644	1	-5
615.814	1	2
615.984	1	11
616.153	1	9
616.323	1	-4
616.493	1	6
616.662	1	-6
616.832	1	5
617.002	1	3
617.171	1	9
617.341	1	2
617.511	1	-7
617.680	1	4
617.850	1	-2
618.019	1	12
618.189	1	1
618.359	1	8
618.528	1	2
618.698	1	4
618.868	1	-4
619.037	1	13
619.207	1	12
619.377	1	5
619.546	1	-5
619.716	1	2
619.885	1	6
620.055	1	14
620.225	1	18
620.394	1	8
620.564	1	-8
620.734	1	7
620.903	1	11
621.073	1	2
621.242	1	-3
621.412	1	5
621.582	1	1
621.751	1	0
621.921	1	11
622.091	1	1
622.260	1	12
622.430	1	2
622.599	1	10
622.769	1	-3
622.939	1	6
623.108	1	5
623.278	1	13
623.448	1	9
623.617	1	1
623.787	1	15
623.956	1	9
624.126	1	6
624.296	1	13
624.465	1	0
624.635	1	2
624.804	1	7
624.974	1	4
625.144	1	18
625.313	1	7
625.483	1	5
625.652	1	9
625.822	1	4
625.992	1	15
626.161	1	2
626.331	1	-4
626.501	1	-2
626.670	1	-9
626.840	1	8
627.009	1	3
627.179	1	-8
627.348	1	13
627.518	1	9
627.688	1	14
627.857	1	8
628.027	1	-3
628.196	1	-3
628.366	1	5
628.536	1	5
628.705	1	-2
628.875	1	14
629.044	1	19
629.214	1	6
629.384	1	10
629.553	1	4
629.723	1	-8
629.892	1	3
630.062	1	1
630.232	1	12
630.401	1	2
630.571	1	12
630.740	1	6
630.910	1	11
631.079	1	4
631.249	1	7
631.419	1	6
631.588	1	6
631.758	1	3
631.927	1	3
632.097	1	5
632.266	1	2
632.436	1	12
632.606	1	-8
632.775	1	12
632.945	1	4
633.114	1	10
633.284	1	6
633.453	1	6
633.623	1	11
633.793	1	7
633.962	1	-1
634.132	1	9
634.301	1	-3
634.471	1	-5
634.640	1	9
634.810	1	5
634.979	1	2
635.149	1	5
635.319	1	11
635.488	1	-1
635.658	1	6
635.827	1	6
635.997	1	12
636.166	1	14
636.336	1	4
636.505	1	4
636.675	1	5
636.845	1	7
637.014	1	1
637.184	1	8
637.353	1	0
637.523	1	14
637.692	1	15
637.862	1	0
638.031	1	-2
638.201	1	2
638.370	1	3
638.540	1	8
638.710	1	7
638.879	1	10
639.049	1	-1
639.218	1	17
639.388	1	1
639.557	1	9
639.727	1	19
639.896	1	8
640.066	1	12
640.235	1	-1
640.405	1	6
640.574	1	5
640.744	1	-6
640.914	1	6
641.083	1	5
641.253	1	1
641.422	1	3
641.592	1	3
641.761	1	8
641.931	1	-6
642.100	1	15
642.270	1	2
642.439	1	3
642.609	1	13
642.778	1	7
642.948	1	9
643.117	1	6
643.287	1	-4
643.456	1	9
643.626	1	1
643.795	1	5
643.965	1	4
644.134	1	3
644.304	1	16
644.473	1	4
644.643	1	-2
644.812	1	6
644.982	1	12
645.151	1	8
645.321	1	-1
645.490	1	12
645.660	1	11
645.829	1	-3
645.999	1	15
646.168	1	-1
646.338	1	5
646.507	1	9
646.677	1	3
646.846	1	10
647.016	1	-1
647.185	1	1
647.355	1	12
647.524	1	17
647.694	1	2
647.863	1	8
648.033	1	9
648.202	1	9
648.372	1	-1
648.541	1	-5
648.711	1	1
648.880	1	2
649.050	1	13
649.219	1	14
649.389	1	9
649.558	1	2
649.728	1	7
649.897	1	3
650.067	1	3
650.236	1	-8
650.406	1	14
650.575	1	12
650.745	1	-2
650.914	1	3
651.084	1	3
651.253	1	0
651.423	1	4
651.592	1	-4
651.762	1	8
651.931	1	2
652.101	1	8
652.270	1	-6
652.440	1	6
652.609	1	7
652.778	1	16
652.948	1	8
653.117	1	7
653.287	1	10
653.456	1	8
653.626	1	5
653.795	1	-3
653.965	1	-9
654.134	1	-9
654.304	1	17
654.473	1	-9
654.643	1	18
654.812	1	5
654.982	1	3
655.151	1	11
655.320	1	17
655.490	1	-3
655.659	1	3
655.829	1	0
655.998	1	-5
656.168	1	8
656.337	1	5
656.507	1	-2
656.676	1	5
656.846	1	8
657.015	1	7
657.184	1	8
657.354	1	10
657.523	1	2
657.693	1	4
657.862	1	3
658.032	1	12
658.201	1	1
658.371	1	5
658.540	1	8
658.709	1	3
658.879	1	9
659.048	1	3
659.218	1	0
659.387	1	8
659.557	1	-2
659.726	1	-1
659.895	1	11
660.065	1	18
660.234	1	-1
660.404	1	4
660.573	1	4
660.743	1	-3
660.912	1	-9
661.081	1	-3
661.251	1	13
661.420	1	12
661.590	1	7
661.759	1	6
661.929	1	5
662.098	1	9
662.267	1	5
662.437	1	16
662.606	1	7
662.776	1	-1
662.945	1	1
663.115	1	18
663.284	1	7
663.453	1	5
663.623	1	8
663.792	1	7
663.962	1	4
664.131	1	4
664.300	1	-25
664.470	1	10
664.639	1	-1
664.809	1	13
664.978	1	5
665.148	1	3
665.317	1	-1
665.486	1	13
665.656	1	8
665.825	1	15
665.995	1	3
666.164	1	3
666.333	1	1
666.503	1	2
666.672	1	4
666.842	1	0
667.011	1	6
667.180	1	2
667.350	1	11
667.519	1	2
667.689	1	17
667.858	1	8
668.027	1	3
668.197	1	12
668.366	1	6
668.536	1	3
668.705	1	9
668.874	1	0
669.044	1	-1
669.213	1	10
669.382	1	12
669.552	1	9
669.721	1	8
669.891	1	-9
670.060	1	7
670.229	1	1
670.399	1	3
670.568	1	-4
670.738	1	0
670.907	1	-2
671.076	1	1
671.246	1	-2
671.415	1	9
671.584	1	0
671.754	1	5
671.923	1	10
672.093	1	3
672.262	1	4
672.431	1	11
672.601	1	9
672.770	1	1
672.939	1	6
673.109	1	9
673.278	1	3
673.448	1	15
673.617	1	12
673.786	1	15
