325.333	1	-3
325.504	1	3
325.675	1	2
325.846	1	1
326.017	1	-1
326.188	1	3
326.359	1	8
326.531	1	11
326.702	1	10
326.873	1	1
327.044	1	11
327.215	1	-2
327.386	1	5
327.557	1	9
327.728	1	4
327.899	1	7
328.070	1	17
328.241	1	9
328.412	1	1
328.583	1	6
328.754	1	-6
328.926	1	8
329.097	1	-2
329.268	1	-1
329.439	1	4
329.610	1	12
329.781	1	5
329.952	1	3
330.123	1	-2
330.294	1	-2
330.465	1	14
330.636	1	16
330.807	1	7
330.978	1	8
331.149	1	8
331.320	1	-2
331.492	1	0
331.663	1	2
331.834	1	-1
332.005	1	5
332.176	1	5
332.347	1	7
332.518	1	16
332.689	1	-1
332.860	1	8
333.031	1	9
333.202	1	0
333.373	1	1
333.544	1	6
333.715	1	7
333.886	1	-1
334.057	1	-3
334.228	1	-2
334.399	1	5
334.570	1	-1
334.741	1	0
334.912	1	-7
335.084	1	-5
335.255	1	3
335.426	1	9
335.597	1	9
335.768	1	-1
335.939	1	-10
336.110	1	8
336.281	1	0
336.452	1	0
336.623	1	-1
336.794	1	0
336.965	1	-6
337.136	1	10
337.307	1	10
337.478	1	-4
337.649	1	-9
337.820	1	-4
337.991	1	2
338.162	1	8
338.333	1	10
338.504	1	7
338.675	1	11
338.846	1	4
339.017	1	18
339.188	1	13
339.359	1	14
339.530	1	4
339.701	1	3
339.872	1	10
340.043	1	-6
340.214	1	-1
340.385	1	20
340.556	1	7
340.727	1	6
340.898	1	10
341.069	1	-7
341.240	1	-1
341.411	1	11
341.582	1	4
341.753	1	-5
341.924	1	3
342.095	1	12
342.266	1	-9
342.437	1	-2
342.608	1	6
342.779	1	12
342.950	1	-2
343.121	1	0
343.292	1	5
343.463	1	7
343.634	1	4
343.805	1	14
343.976	1	1
344.147	1	3
344.318	1	-3
344.489	1	13
344.660	1	16
344.831	1	6
345.002	1	8
345.173	1	16
345.344	1	-8
345.515	1	7
345.686	1	-2
345.857	1	6
346.028	1	-4
346.199	1	12
346.370	1	0
346.541	1	7
346.712	1	1
346.883	1	17
347.054	1	6
347.225	1	4
347.396	1	-7
347.567	1	4
347.738	1	-3
347.909	1	10
348.080	1	10
348.251	1	-1
348.422	1	0
348.593	1	17
348.764	1	-7
348.935	1	3
349.106	1	11
349.277	1	4
349.448	1	2
349.619	1	5
349.790	1	9
349.961	1	7
350.132	1	3
350.303	1	6
350.474	1	8
350.645	1	4
350.816	1	3
350.987	1	17
351.157	1	12
351.328	1	-2
351.499	1	2
351.670	1	8
351.841	1	5
352.012	1	4
352.183	1	1
352.354	1	11
352.525	1	9
352.696	1	3
352.867	1	4
353.038	1	-3
353.209	1	8
353.380	1	-1
353.551	1	2
353.722	1	8
353.893	1	14
354.064	1	-2
354.235	1	8
354.406	1	8
354.576	1	8
354.747	1	6
354.918	1	13
355.089	1	8
355.260	1	15
355.431	1	5
355.602	1	1
355.773	1	0
355.944	1	9
356.115	1	-1
356.286	1	16
356.457	1	4
356.628	1	1
356.799	1	8
356.970	1	4
357.141	1	12
357.311	1	-4
357.482	1	-2
357.653	1	5
357.824	1	10
357.995	1	16
358.166	1	9
358.337	1	-2
358.508	1	-7
358.679	1	2
358.850	1	0
359.021	1	8
359.192	1	9
359.363	1	-5
359.533	1	5
359.704	1	11
359.875	1	4
360.046	1	0
360.217	1	-3
360.388	1	3
360.559	1	4
360.730	1	7
360.901	1	-3
361.072	1	-8
361.243	1	8
361.414	1	9
361.584	1	9
361.755	1	4
361.926	1	1
362.097	1	5
362.268	1	15
362.439	1	4
362.610	1	3
362.781	1	15
362.952	1	-1
363.123	1	-3
363.293	1	-6
363.464	1	8
363.635	1	9
363.806	1	7
363.977	1	11
364.148	1	15
364.319	1	2
364.490	1	18
364.661	1	3
364.832	1	7
365.002	1	-2
365.173	1	-3
365.344	1	9
365.515	1	3
365.686	1	2
365.857	1	5
366.028	1	7
366.199	1	11
366.370	1	7
366.540	1	3
366.711	1	6
366.882	1	9
367.053	1	8
367.224	1	2
367.395	1	10
367.566	1	7
367.737	1	7
367.908	1	3
368.078	1	7
368.249	1	9
368.420	1	-1
368.591	1	3
368.762	1	-7
368.933	1	14
369.104	1	7
369.274	1	11
369.445	1	19
369.616	1	-2
369.787	1	-2
369.958	1	9
370.129	1	-6
370.300	1	7
370.471	1	9
370.641	1	0
370.812	1	13
370.983	1	3
371.154	1	11
371.325	1	14
371.496	1	9
371.667	1	18
371.837	1	6
372.008	1	14
372.179	1	9
372.350	1	16
372.521	1	5
372.692	1	0
372.863	1	5
373.033	1	9
373.204	1	21
373.375	1	5
373.546	1	16
373.717	1	9
373.888	1	11
374.059	1	6
374.229	1	18
374.400	1	16
374.571	1	9
374.742	1	-3
374.913	1	12
375.084	1	18
375.254	1	11
375.425	1	4
375.596	1	-1
375.767	1	2
375.938	1	-4
376.109	1	3
376.279	1	10
376.450	1	13
376.621	1	6
376.792	1	10
376.963	1	6
377.134	1	-2
377.304	1	5
377.475	1	4
377.646	1	3
377.817	1	9
377.988	1	8
378.159	1	11
378.329	1	7
378.500	1	6
378.671	1	7
378.842	1	11
379.013	1	6
379.184	1	18
379.354	1	21
379.525	1	0
379.696	1	20
379.867	1	-7
380.038	1	6
380.209	1	2
380.379	1	13
380.550	1	8
380.721	1	12
380.892	1	15
381.063	1	3
381.233	1	9
381.404	1	5
381.575	1	11
381.746	1	7
381.917	1	5
382.087	1	2
382.258	1	22
382.429	1	5
382.600	1	10
382.771	1	10
382.941	1	1
383.112	1	0
383.283	1	17
383.454	1	10
383.625	1	8
383.795	1	12
383.966	1	10
384.137	1	2
384.308	1	14
384.479	1	11
384.649	1	18
384.820	1	18
384.991	1	-3
385.162	1	12
385.333	1	7
385.503	1	15
385.674	1	13
385.845	1	13
386.016	1	15
386.187	1	0
386.357	1	4
386.528	1	3
386.699	1	10
386.870	1	13
387.041	1	11
387.211	1	11
387.382	1	1
387.553	1	11
387.724	1	9
387.894	1	20
388.065	1	12
388.236	1	17
388.407	1	13
388.578	1	17
388.748	1	9
388.919	1	9
389.090	1	23
389.261	1	14
389.431	1	16
389.602	1	2
389.773	1	0
389.944	1	14
390.114	1	14
390.285	1	13
390.456	1	2
390.627	1	15
390.798	1	9
390.968	1	4
391.139	1	6
391.310	1	13
391.481	1	13
391.651	1	8
391.822	1	9
391.993	1	14
392.164	1	3
392.334	1	3
392.505	1	14
392.676	1	5
392.847	1	21
393.017	1	10
393.188	1	-3
393.359	1	11
393.530	1	9
393.700	1	15
393.871	1	2
394.042	1	21
394.213	1	19
394.383	1	26
394.554	1	16
394.725	1	19
394.896	1	10
395.066	1	3
395.237	1	0
395.408	1	3
395.579	1	21
395.749	1	7
395.920	1	15
396.091	1	21
396.262	1	9
396.432	1	13
396.603	1	15
396.774	1	11
396.945	1	4
397.115	1	-10
397.286	1	22
397.457	1	5
397.627	1	7
397.798	1	11
397.969	1	24
398.140	1	15
398.310	1	14
398.481	1	13
398.652	1	4
398.823	1	13
398.993	1	16
399.164	1	10
399.335	1	-3
399.505	1	13
399.676	1	18
399.847	1	15
400.018	1	14
400.188	1	17
400.359	1	12
400.530	1	4
400.700	1	4
400.871	1	20
401.042	1	8
401.213	1	20
401.383	1	23
401.554	1	18
401.725	1	15
401.895	1	3
402.066	1	25
402.237	1	20
402.408	1	14
402.578	1	17
402.749	1	20
402.920	1	18
403.090	1	12
403.261	1	12
403.432	1	14
403.603	1	2
403.773	1	17
403.944	1	16
404.115	1	6
404.285	1	21
404.456	1	24
404.627	1	5
404.797	1	14
404.968	1	10
405.139	1	17
405.310	1	19
405.480	1	14
405.651	1	13
405.822	1	16
405.992	1	17
406.163	1	15
406.334	1	20
406.504	1	-1
406.675	1	5
406.846	1	16
407.016	1	6
407.187	1	19
407.358	1	14
407.528	1	13
407.699	1	10
407.870	1	14
408.041	1	0
408.211	1	10
408.382	1	15
408.553	1	9
408.723	1	17
408.894	1	16
409.065	1	27
409.235	1	11
409.406	1	14
409.577	1	5
409.747	1	20
409.918	1	5
410.089	1	3
410.259	1	4
410.430	1	15
410.601	1	12
410.771	1	11
410.942	1	8
411.113	1	16
411.283	1	10
411.454	1	18
411.625	1	4
411.795	1	12
411.966	1	4
412.137	1	10
412.307	1	11
412.478	1	9
412.649	1	19
412.819	1	10
412.990	1	21
413.161	1	17
413.331	1	12
413.502	1	-1
413.672	1	17
413.843	1	19
414.014	1	29
414.184	1	13
414.355	1	10
414.526	1	9
414.696	1	19
414.867	1	13
415.038	1	8
415.208	1	11
415.379	1	3
415.550	1	23
415.720	1	10
415.891	1	31
416.062	1	17
416.232	1	14
416.403	1	13
416.573	1	10
416.744	1	3
416.915	1	13
417.085	1	6
417.256	1	14
417.427	1	14
417.597	1	11
417.768	1	15
417.939	1	21
418.109	1	0
418.280	1	20
418.450	1	25
418.621	1	5
418.792	1	11
418.962	1	15
419.133	1	17
419.304	1	4
419.474	1	3
419.645	1	11
419.815	1	19
419.986	1	9
420.157	1	20
420.327	1	10
420.498	1	4
420.669	1	17
420.839	1	8
421.010	1	22
421.180	1	-4
421.351	1	21
421.522	1	15
421.692	1	17
421.863	1	18
422.033	1	27
422.204	1	15
422.375	1	12
422.545	1	17
422.716	1	14
422.886	1	19
423.057	1	12
423.228	1	17
423.398	1	13
423.569	1	19
423.740	1	11
423.910	1	9
424.081	1	22
424.251	1	9
424.422	1	-2
424.593	1	14
424.763	1	9
424.934	1	11
425.104	1	17
425.275	1	11
425.445	1	16
425.616	1	19
425.787	1	13
425.957	1	20
426.128	1	22
426.298	1	14
426.469	1	9
426.640	1	19
426.810	1	19
426.981	1	17
427.151	1	11
427.322	1	-1
427.493	1	11
427.663	1	13
427.834	1	-1
428.004	1	16
428.175	1	13
428.345	1	15
428.516	1	21
428.687	1	15
428.857	1	7
429.028	1	17
429.198	1	9
429.369	1	14
429.540	1	16
429.710	1	16
429.881	1	17
430.051	1	21
430.222	1	9
430.392	1	16
430.563	1	12
430.734	1	15
430.904	1	10
431.075	1	7
431.245	1	17
431.416	1	4
431.586	1	12
431.757	1	15
431.927	1	4
432.098	1	8
432.269	1	13
432.439	1	17
432.610	1	15
432.780	1	14
432.951	1	16
433.121	1	17
433.292	1	15
433.462	1	25
433.633	1	17
433.804	1	-5
433.974	1	16
434.145	1	4
434.315	1	16
434.486	1	3
434.656	1	17
434.827	1	3
434.997	1	15
435.168	1	7
435.339	1	14
435.509	1	12
435.680	1	15
435.850	1	8
436.021	1	20
436.191	1	18
436.362	1	20
436.532	1	25
436.703	1	26
436.873	1	17
437.044	1	14
437.214	1	16
437.385	1	22
437.556	1	17
437.726	1	8
437.897	1	13
438.067	1	8
438.238	1	19
438.408	1	25
438.579	1	8
438.749	1	2
438.920	1	13
439.090	1	10
439.261	1	9
439.431	1	14
439.602	1	11
439.772	1	18
439.943	1	20
440.113	1	15
440.284	1	14
440.455	1	22
440.625	1	13
440.796	1	11
440.966	1	13
441.137	1	8
441.307	1	4
441.478	1	15
441.648	1	12
441.819	1	14
441.989	1	5
442.160	1	16
442.330	1	19
442.501	1	8
442.671	1	14
442.842	1	19
443.012	1	6
443.183	1	10
443.353	1	24
443.524	1	6
443.694	1	8
443.865	1	18
444.035	1	16
444.206	1	10
444.376	1	23
444.547	1	7
444.717	1	18
444.888	1	13
445.058	1	16
445.229	1	7
445.399	1	10
445.570	1	12
445.740	1	17
445.911	1	11
446.081	1	23
446.252	1	7
446.422	1	23
446.593	1	9
446.763	1	8
446.934	1	18
447.104	1	0
447.275	1	18
447.445	1	14
447.616	1	13
447.786	1	14
447.957	1	5
448.127	1	26
448.298	1	8
448.468	1	14
448.639	1	14
448.809	1	11
448.979	1	22
449.150	1	10
449.320	1	12
449.491	1	15
449.661	1	15
449.832	1	11
450.002	1	19
450.173	1	27
450.343	1	19
450.514	1	15
450.684	1	13
450.855	1	12
451.025	1	10
451.196	1	16
451.366	1	13
451.537	1	12
451.707	1	12
451.878	1	11
452.048	1	8
452.218	1	14
452.389	1	10
452.559	1	18
452.730	1	18
452.900	1	21
453.071	1	24
453.241	1	16
453.412	1	8
453.582	1	0
453.753	1	8
453.923	1	19
454.093	1	21
454.264	1	5
454.434	1	16
454.605	1	20
454.775	1	7
454.946	1	8
455.116	1	7
455.287	1	11
455.457	1	10
455.628	1	19
455.798	1	11
455.968	1	18
456.139	1	9
456.309	1	20
456.480	1	9
456.650	1	15
456.821	1	21
456.991	1	17
457.161	1	9
457.332	1	7
457.502	1	19
457.673	1	12
457.843	1	6
458.014	1	13
458.184	1	9
458.355	1	18
458.525	1	10
458.695	1	7
458.866	1	19
459.036	1	17
459.207	1	25
459.377	1	15
459.548	1	13
459.718	1	8
459.888	1	10
460.059	1	19
460.229	1	9
460.400	1	9
460.570	1	9
460.740	1	8
460.911	1	8
461.081	1	17
461.252	1	8
461.422	1	18
461.593	1	15
461.763	1	10
461.933	1	13
462.104	1	15
462.274	1	12
462.445	1	9
462.615	1	12
462.785	1	12
462.956	1	7
463.126	1	6
463.297	1	15
463.467	1	13
463.638	1	14
463.808	1	14
463.978	1	13
464.149	1	6
464.319	1	23
464.490	1	10
464.660	1	8
464.830	1	16
465.001	1	8
465.171	1	10
465.342	1	-2
465.512	1	13
465.682	1	3
465.853	1	4
466.023	1	16
466.194	1	11
466.364	1	21
466.534	1	8
466.705	1	3
466.875	1	21
467.045	1	3
467.216	1	18
467.386	1	26
467.557	1	15
467.727	1	11
467.897	1	7
468.068	1	-7
468.238	1	6
468.409	1	12
468.579	1	18
468.749	1	12
468.920	1	6
469.090	1	17
469.260	1	13
469.431	1	14
469.601	1	8
469.772	1	-3
469.942	1	15
470.112	1	11
470.283	1	24
470.453	1	16
470.623	1	11
470.794	1	9
470.964	1	7
471.135	1	19
471.305	1	16
471.475	1	-3
471.646	1	8
471.816	1	8
471.986	1	11
472.157	1	11
472.327	1	15
472.497	1	18
472.668	1	8
472.838	1	15
473.009	1	20
473.179	1	12
473.349	1	9
473.520	1	10
473.690	1	19
473.860	1	8
474.031	1	16
474.201	1	9
474.371	1	10
474.542	1	20
474.712	1	11
474.882	1	6
475.053	1	13
475.223	1	-9
475.394	1	5
475.564	1	6
475.734	1	13
475.905	1	9
476.075	1	10
476.245	1	19
476.416	1	7
476.586	1	-1
476.756	1	14
476.927	1	7
477.097	1	4
477.267	1	19
477.438	1	16
477.608	1	9
477.778	1	4
477.949	1	6
478.119	1	19
478.289	1	7
478.460	1	-6
478.630	1	21
478.800	1	21
478.971	1	9
479.141	1	4
479.311	1	10
479.482	1	14
479.652	1	12
479.822	1	7
479.993	1	4
480.163	1	19
480.333	1	4
480.504	1	13
480.674	1	6
480.844	1	0
481.015	1	9
481.185	1	7
481.355	1	19
481.525	1	8
481.696	1	5
481.866	1	18
482.036	1	11
482.207	1	13
482.377	1	10
482.547	1	2
482.718	1	-5
482.888	1	16
483.058	1	8
483.229	1	8
483.399	1	11
483.569	1	8
483.740	1	16
483.910	1	1
484.080	1	-2
484.250	1	-3
484.421	1	11
484.591	1	10
484.761	1	12
484.932	1	6
485.102	1	10
485.272	1	12
485.443	1	11
485.613	1	12
485.783	1	10
485.953	1	3
486.124	1	14
486.294	1	-2
486.464	1	-2
486.635	1	16
486.805	1	13
486.975	1	9
487.146	1	3
487.316	1	12
487.486	1	8
487.656	1	-1
487.827	1	4
487.997	1	5
488.167	1	17
488.338	1	-5
488.508	1	8
488.678	1	3
488.848	1	4
489.019	1	12
489.189	1	10
489.359	1	10
489.529	1	8
489.700	1	6
489.870	1	7
490.040	1	6
490.211	1	9
490.381	1	10
490.551	1	2
490.721	1	9
490.892	1	9
491.062	1	2
491.232	1	8
491.402	1	5
491.573	1	5
491.743	1	4
491.913	1	3
492.084	1	14
492.254	1	13
492.424	1	21
492.594	1	14
492.765	1	-5
492.935	1	1
493.105	1	15
493.275	1	-4
493.446	1	3
493.616	1	14
493.786	1	-2
493.956	1	-4
494.127	1	2
494.297	1	5
494.467	1	6
494.637	1	12
494.808	1	10
494.978	1	2
495.148	1	14
495.318	1	12
495.489	1	-11
495.659	1	6
495.829	1	7
495.999	1	14
496.170	1	-8
496.340	1	13
496.510	1	10
496.680	1	4
496.851	1	6
497.021	1	2
497.191	1	5
497.361	1	-2
497.532	1	2
497.702	1	11
497.872	1	12
498.042	1	19
498.213	1	16
498.383	1	6
498.553	1	-2
498.723	1	6
498.894	1	6
499.064	1	10
499.234	1	11
499.404	1	-10
499.574	1	-2
499.745	1	3
499.915	1	7
500.085	1	14
500.255	1	10
500.426	1	4
500.596	1	1
500.766	1	-4
500.936	1	15
501.106	1	4
501.277	1	11
501.447	1	10
501.617	1	4
501.787	1	6
501.958	1	5
502.128	1	-1
502.298	1	4
502.468	1	11
502.638	1	2
502.809	1	5
502.979	1	16
503.149	1	-2
503.319	1	10
503.489	1	0
503.660	1	0
503.830	1	3
504.000	1	4
504.170	1	2
504.340	1	7
504.511	1	10
504.681	1	4
504.851	1	1
505.021	1	15
505.192	1	-2
505.362	1	2
505.532	1	7
505.702	1	-2
505.872	1	7
506.043	1	19
506.213	1	9
506.383	1	-1
506.553	1	9
506.723	1	8
506.893	1	1
507.064	1	2
507.234	1	-3
507.404	1	12
507.574	1	-4
507.744	1	5
507.915	1	8
508.085	1	7
508.255	1	10
508.425	1	10
508.595	1	-3
508.766	1	1
508.936	1	9
509.106	1	7
509.276	1	-2
509.446	1	5
509.616	1	6
509.787	1	14
509.957	1	3
510.127	1	-1
510.297	1	0
510.467	1	-4
510.638	1	2
510.808	1	3
510.978	1	-2
511.148	1	18
511.318	1	5
511.488	1	14
511.659	1	4
511.829	1	2
511.999	1	4
512.169	1	-10
512.339	1	0
512.509	1	4
512.680	1	8
512.850	1	2
513.020	1	5
513.190	1	0
513.360	1	3
513.530	1	-1
513.700	1	6
513.871	1	7
514.041	1	10
514.211	1	17
514.381	1	9
514.551	1	4
514.721	1	5
514.892	1	6
515.062	1	10
515.232	1	9
515.402	1	7
515.572	1	3
515.742	1	3
515.912	1	1
516.083	1	2
516.253	1	13
516.423	1	2
516.593	1	7
516.763	1	2
516.933	1	-8
517.104	1	-1
517.274	1	-11
517.444	1	-1
517.614	1	2
517.784	1	7
517.954	1	6
518.124	1	-10
518.294	1	16
518.465	1	12
518.635	1	-7
518.805	1	13
518.975	1	2
519.145	1	3
519.315	1	-4
519.485	1	-7
519.656	1	13
519.826	1	5
519.996	1	-2
520.166	1	12
520.336	1	3
520.506	1	-10
520.676	1	19
520.846	1	6
521.017	1	-5
521.187	1	4
521.357	1	-3
521.527	1	3
521.697	1	2
521.867	1	5
522.037	1	-3
522.207	1	0
522.377	1	4
522.548	1	15
522.718	1	5
522.888	1	9
523.058	1	8
523.228	1	7
523.398	1	3
523.568	1	5
523.738	1	-1
523.909	1	6
524.079	1	5
524.249	1	-1
524.419	1	10
524.589	1	-2
524.759	1	9
524.929	1	1
525.099	1	2
525.269	1	8
525.439	1	-5
525.610	1	4
525.780	1	4
525.950	1	9
526.120	1	-2
526.290	1	0
526.460	1	1
526.630	1	2
526.800	1	1
526.970	1	10
527.140	1	11
527.311	1	5
527.481	1	3
527.651	1	-5
527.821	1	-4
527.991	1	10
528.161	1	-2
528.331	1	6
528.501	1	7
528.671	1	1
528.841	1	14
529.011	1	5
529.181	1	15
529.352	1	2
529.522	1	-1
529.692	1	-1
529.862	1	7
530.032	1	9
530.202	1	1
530.372	1	-3
530.542	1	0
530.712	1	1
530.882	1	-9
531.052	1	16
531.222	1	-2
531.392	1	6
531.563	1	0
531.733	1	4
531.903	1	6
532.073	1	-2
532.243	1	5
532.413	1	8
532.583	1	1
532.753	1	1
532.923	1	10
533.093	1	14
533.263	1	-11
533.433	1	8
533.603	1	1
533.773	1	-7
533.943	1	9
534.113	1	8
534.284	1	-7
534.454	1	-5
534.624	1	11
534.794	1	-2
534.964	1	5
535.134	1	14
535.304	1	2
535.474	1	-11
535.644	1	0
535.814	1	8
535.984	1	5
536.154	1	8
536.324	1	15
536.494	1	16
536.664	1	7
536.834	1	-2
537.004	1	1
537.174	1	7
537.344	1	0
537.514	1	4
537.685	1	-1
537.855	1	-1
538.025	1	5
538.195	1	11
538.365	1	6
538.535	1	0
538.705	1	10
538.875	1	8
539.045	1	1
539.215	1	-6
539.385	1	2
539.555	1	9
539.725	1	-1
539.895	1	13
540.065	1	2
540.235	1	10
540.405	1	-2
540.575	1	4
540.745	1	-11
540.915	1	-3
541.085	1	-5
541.255	1	-2
541.425	1	3
541.595	1	12
541.765	1	17
541.935	1	6
542.105	1	9
542.275	1	0
542.445	1	-2
542.615	1	8
542.785	1	1
542.955	1	-2
543.125	1	0
543.295	1	-8
543.465	1	4
543.635	1	0
543.805	1	4
543.975	1	2
544.145	1	-4
544.315	1	1
544.485	1	-1
544.655	1	15
544.825	1	-6
544.995	1	6
545.165	1	3
545.335	1	-3
545.505	1	13
545.675	1	-3
545.845	1	9
546.015	1	5
546.185	1	4
546.355	1	8
546.525	1	4
546.695	1	1
546.865	1	10
547.035	1	11
547.205	1	5
547.375	1	8
547.545	1	14
547.715	1	4
547.885	1	2
548.055	1	-4
548.225	1	18
548.395	1	-8
548.565	1	4
548.735	1	7
548.905	1	-9
549.075	1	2
549.245	1	-7
549.415	1	-1
549.585	1	13
549.755	1	8
549.925	1	6
550.095	1	5
550.265	1	7
550.435	1	-11
550.605	1	2
550.775	1	0
550.945	1	12
551.115	1	-1
551.285	1	8
551.455	1	11
551.625	1	0
551.795	1	-8
551.965	1	9
552.135	1	2
552.305	1	-3
552.475	1	3
552.645	1	10
552.815	1	2
552.985	1	7
553.155	1	-5
553.325	1	1
553.495	1	5
553.665	1	9
553.835	1	5
554.004	1	2
554.174	1	3
554.344	1	8
554.514	1	1
554.684	1	-6
554.854	1	-6
555.024	1	5
555.194	1	6
555.364	1	0
555.534	1	1
555.704	1	18
555.874	1	-3
556.044	1	17
556.214	1	7
556.384	1	10
556.554	1	-2
556.724	1	7
556.894	1	-5
557.064	1	6
557.234	1	3
557.404	1	-2
557.573	1	3
557.743	1	2
557.913	1	-9
558.083	1	6
558.253	1	1
558.423	1	-9
558.593	1	9
558.763	1	7
558.933	1	-6
559.103	1	-1
559.273	1	5
559.443	1	2
559.613	1	5
559.783	1	3
559.953	1	7
560.122	1	3
560.292	1	0
560.462	1	-1
560.632	1	13
560.802	1	3
560.972	1	2
561.142	1	6
561.312	1	1
561.482	1	14
561.652	1	-1
561.822	1	-2
561.992	1	-6
562.162	1	12
562.331	1	13
562.501	1	-2
562.671	1	12
562.841	1	2
563.011	1	-3
563.181	1	7
563.351	1	2
563.521	1	5
563.691	1	11
563.861	1	-8
564.031	1	-4
564.201	1	-1
564.370	1	0
564.540	1	2
564.710	1	5
564.880	1	5
565.050	1	9
565.220	1	-7
565.390	1	1
565.560	1	1
565.730	1	-3
565.900	1	-2
566.069	1	3
566.239	1	3
566.409	1	6
566.579	1	2
566.749	1	7
566.919	1	-1
567.089	1	0
567.259	1	6
567.429	1	0
567.599	1	3
567.768	1	7
567.938	1	1
568.108	1	2
568.278	1	2
568.448	1	0
568.618	1	6
568.788	1	-10
568.958	1	-7
569.128	1	1
569.297	1	-1
569.467	1	7
569.637	1	3
569.807	1	-1
569.977	1	2
570.147	1	0
570.317	1	2
570.487	1	12
570.656	1	0
570.826	1	-5
570.996	1	1
571.166	1	-2
571.336	1	-3
571.506	1	-1
571.676	1	-7
571.846	1	3
572.015	1	1
572.185	1	-4
572.355	1	7
572.525	1	-4
572.695	1	1
572.865	1	11
573.035	1	0
573.205	1	-4
573.374	1	11
573.544	1	2
573.714	1	4
573.884	1	7
574.054	1	3
574.224	1	-5
574.394	1	-3
574.563	1	10
574.733	1	-1
574.903	1	5
575.073	1	-6
575.243	1	11
575.413	1	5
575.583	1	7
575.752	1	-1
575.922	1	8
576.092	1	-8
576.262	1	5
576.432	1	1
576.602	1	9
576.772	1	-2
576.941	1	8
577.111	1	10
577.281	1	24
577.451	1	3
577.621	1	4
577.791	1	0
577.960	1	-4
578.130	1	2
578.300	1	6
578.470	1	9
578.640	1	0
578.810	1	8
578.979	1	-3
579.149	1	2
579.319	1	5
579.489	1	8
579.659	1	-4
579.829	1	5
579.998	1	-1
580.168	1	5
580.338	1	2
580.508	1	6
580.678	1	6
580.848	1	1
581.017	1	7
581.187	1	13
581.357	1	-2
581.527	1	-3
581.697	1	-11
581.867	1	2
582.036	1	9
582.206	1	-4
582.376	1	5
582.546	1	18
582.716	1	0
582.885	1	-1
583.055	1	-9
583.225	1	-8
583.395	1	-5
583.565	1	-1
583.735	1	4
583.904	1	1
584.074	1	-5
584.244	1	-2
584.414	1	-7
584.584	1	6
584.753	1	0
584.923	1	8
585.093	1	-10
585.263	1	-2
585.433	1	16
585.602	1	4
585.772	1	11
585.942	1	4
586.112	1	0
586.282	1	3
586.451	1	-8
586.621	1	-1
586.791	1	6
586.961	1	0
587.131	1	10
587.300	1	9
587.470	1	2
587.640	1	3
587.810	1	-3
587.980	1	-10
588.149	1	3
588.319	1	3
588.489	1	1
588.659	1	13
588.829	1	-6
588.998	1	-4
589.168	1	-2
589.338	1	1
589.508	1	7
589.677	1	-8
589.847	1	9
590.017	1	8
590.187	1	3
590.357	1	3
590.526	1	15
590.696	1	-2
590.866	1	-6
591.036	1	-1
591.205	1	1
591.375	1	0
591.545	1	0
591.715	1	-5
591.885	1	-6
592.054	1	-1
592.224	1	6
592.394	1	-4
592.564	1	1
592.733	1	3
592.903	1	3
593.073	1	-7
593.243	1	8
593.412	1	-3
593.582	1	0
593.752	1	5
593.922	1	15
594.091	1	-4
594.261	1	2
594.431	1	-3
594.601	1	-4
594.771	1	4
594.940	1	1
595.110	1	5
595.280	1	10
595.450	1	5
595.619	1	-5
595.789	1	8
595.959	1	-2
596.129	1	-11
596.298	1	1
596.468	1	8
596.638	1	13
596.808	1	-3
596.977	1	-5
597.147	1	1
597.317	1	9
597.487	1	3
597.656	1	8
597.826	1	-3
597.996	1	0
598.166	1	2
598.335	1	1
598.505	1	-7
598.675	1	-1
598.844	1	3
599.014	1	-3
599.184	1	-2
599.354	1	-1
599.523	1	-1
599.693	1	8
599.863	1	10
600.033	1	11
600.202	1	12
600.372	1	5
600.542	1	-3
600.712	1	11
600.881	1	4
601.051	1	-3
601.221	1	9
601.390	1	0
601.560	1	9
601.730	1	8
601.900	1	14
602.069	1	-7
602.239	1	-5
602.409	1	-1
602.578	1	16
602.748	1	-5
602.918	1	-1
603.088	1	6
603.257	1	13
603.427	1	10
603.597	1	9
603.767	1	1
603.936	1	14
604.106	1	3
604.276	1	14
604.445	1	0
604.615	1	2
604.785	1	4
604.954	1	8
605.124	1	2
605.294	1	5
605.464	1	-4
605.633	1	9
605.803	1	11
605.973	1	11
606.142	1	15
606.312	1	9
606.482	1	-2
606.652	1	13
606.821	1	4
606.991	1	4
607.161	1	-2
607.330	1	5
607.500	1	13
607.670	1	8
607.839	1	5
608.009	1	12
608.179	1	-4
608.348	1	3
608.518	1	-1
608.688	1	6
608.858	1	4
609.027	1	6
609.197	1	7
609.367	1	3
609.536	1	10
609.706	1	-1
609.876	1	9
610.045	1	4
610.215	1	2
610.385	1	-5
610.554	1	0
610.724	1	0
610.894	1	15
611.063	1	1
611.233	1	-3
611.403	1	4
611.572	1	9
611.742	1	6
611.912	1	5
612.081	1	6
612.251	1	4
612.421	1	-8
612.590	1	-6
612.760	1	16
612.930	1	0
613.099	1	2
613.269	1	5
613.439	1	7
613.608	1	0
613.778	1	0
613.948	1	11
614.117	1	4
614.287	1	-3
614.457	1	9
614.626	1	8
614.796	1	8
614.966	1	1
615.135	1	5
615.305	1	7
615.475	1	0
615.644	1	3
615.814	1	-1
615.984	1	4
616.153	1	10
616.323	1	4
616.493	1	10
616.662	1	0
616.832	1	8
617.002	1	-6
617.171	1	2
617.341	1	-2
617.511	1	-2
617.680	1	-1
617.850	1	3
618.019	1	8
618.189	1	-1
618.359	1	3
618.528	1	0
618.698	1	8
618.868	1	-6
619.037	1	1
619.207	1	-2
619.377	1	-4
619.546	1	0
619.716	1	-4
619.885	1	-5
620.055	1	15
620.225	1	8
620.394	1	2
620.564	1	-8
620.734	1	1
620.903	1	0
621.073	1	2
621.242	1	-4
621.412	1	11
621.582	1	1
621.751	1	4
621.921	1	10
622.091	1	-1
622.260	1	-4
622.430	1	3
622.599	1	5
622.769	1	-8
622.939	1	-1
623.108	1	3
623.278	1	14
623.448	1	10
623.617	1	5
623.787	1	8
623.956	1	15
624.126	1	-3
624.296	1	6
624.465	1	-3
624.635	1	12
624.804	1	-4
624.974	1	3
625.144	1	13
625.313	1	1
625.483	1	4
625.652	1	21
625.822	1	10
625.992	1	8
626.161	1	-7
626.331	1	2
626.501	1	2
626.670	1	-5
626.840	1	12
627.009	1	0
627.179	1	-9
627.348	1	14
627.518	1	5
627.688	1	3
627.857	1	3
628.027	1	-3
628.196	1	0
628.366	1	1
628.536	1	7
628.705	1	17
628.875	1	11
629.044	1	6
629.214	1	-1
629.384	1	3
629.553	1	-2
629.723	1	2
629.892	1	-9
630.062	1	-3
630.232	1	9
630.401	1	-2
630.571	1	8
630.740	1	-6
630.910	1	8
631.079	1	-3
631.249	1	15
631.419	1	7
631.588	1	8
631.758	1	6
631.927	1	8
632.097	1	9
632.266	1	0
632.436	1	2
632.606	1	3
632.775	1	6
632.945	1	-3
633.114	1	8
633.284	1	14
633.453	1	8
633.623	1	13
633.793	1	-2
633.962	1	4
634.132	1	0
634.301	1	3
634.471	1	-3
634.640	1	11
634.810	1	13
634.979	1	14
635.149	1	7
635.319	1	14
635.488	1	0
635.658	1	3
635.827	1	-4
635.997	1	5
636.166	1	0
636.336	1	8
636.505	1	4
636.675	1	6
636.845	1	3
637.014	1	3
637.184	1	8
637.353	1	-6
637.523	1	6
637.692	1	4
637.862	1	-1
638.031	1	-10
638.201	1	1
638.370	1	16
638.540	1	2
638.710	1	8
638.879	1	14
639.049	1	7
639.218	1	17
639.388	1	7
639.557	1	3
639.727	1	7
639.896	1	3
640.066	1	9
640.235	1	1
640.405	1	13
640.574	1	5
640.744	1	-2
640.914	1	1
641.083	1	-2
641.253	1	-4
641.422	1	-4
641.592	1	-2
641.761	1	3
641.931	1	4
642.100	1	6
642.270	1	-1
642.439	1	3
642.609	1	8
642.778	1	-6
642.948	1	6
643.117	1	12
643.287	1	-3
643.456	1	11
643.626	1	8
643.795	1	11
643.965	1	2
644.134	1	7
644.304	1	10
644.473	1	-3
644.643	1	4
644.812	1	3
644.982	1	-3
645.151	1	6
645.321	1	11
645.490	1	4
645.660	1	2
645.829	1	-5
645.999	1	10
646.168	1	11
646.338	1	3
646.507	1	3
646.677	1	4
646.846	1	0
647.016	1	8
647.185	1	1
647.355	1	3
647.524	1	1
647.694	1	4
647.863	1	4
648.033	1	3
648.202	1	-2
648.372	1	4
648.541	1	3
648.711	1	3
648.880	1	1
649.050	1	7
649.219	1	7
649.389	1	-1
649.558	1	10
649.728	1	11
649.897	1	2
650.067	1	5
650.236	1	-3
650.406	1	10
650.575	1	3
650.745	1	6
650.914	1	1
651.084	1	3
651.253	1	-2
651.423	1	1
651.592	1	-2
651.762	1	6
651.931	1	8
652.101	1	9
652.270	1	3
652.440	1	5
652.609	1	-3
652.778	1	3
652.948	1	-2
653.117	1	6
653.287	1	1
653.456	1	-4
653.626	1	4
653.795	1	-1
653.965	1	-1
654.134	1	-4
654.304	1	11
654.473	1	2
654.643	1	8
654.812	1	8
654.982	1	7
655.151	1	8
655.320	1	2
655.490	1	10
655.659	1	2
655.829	1	2
655.998	1	0
656.168	1	-2
656.337	1	4
656.507	1	-1
656.676	1	-1
656.846	1	-3
657.015	1	6
657.184	1	-3
657.354	1	11
657.523	1	6
657.693	1	5
657.862	1	-6
658.032	1	7
658.201	1	6
658.371	1	0
658.540	1	-4
658.709	1	-4
658.879	1	-1
659.048	1	6
659.218	1	-11
659.387	1	4
659.557	1	1
659.726	1	-4
659.895	1	-1
660.065	1	12
660.234	1	5
660.404	1	8
660.573	1	9
660.743	1	6
660.912	1	0
661.081	1	-6
661.251	1	6
661.420	1	9
661.590	1	0
661.759	1	-1
661.929	1	5
662.098	1	9
662.267	1	4
662.437	1	7
662.606	1	-2
662.776	1	-8
662.945	1	6
663.115	1	0
663.284	1	-3
663.453	1	8
663.623	1	15
663.792	1	9
663.962	1	0
664.131	1	-5
664.300	1	-7
664.470	1	7
664.639	1	-1
664.809	1	-2
664.978	1	-3
665.148	1	-2
665.317	1	-1
665.486	1	-1
665.656	1	1
665.825	1	15
665.995	1	12
666.164	1	9
666.333	1	5
666.503	1	3
666.672	1	-2
666.842	1	-3
667.011	1	-3
667.180	1	3
667.350	1	10
667.519	1	5
667.689	1	9
667.858	1	12
668.027	1	1
668.197	1	10
668.366	1	0
668.536	1	-6
668.705	1	4
668.874	1	-5
669.044	1	9
669.213	1	1
669.382	1	6
669.552	1	2
669.721	1	8
669.891	1	5
670.060	1	2
670.229	1	-3
670.399	1	4
670.568	1	-2
670.738	1	8
670.907	1	2
671.076	1	5
671.246	1	-5
671.415	1	2
671.584	1	3
671.754	1	8
671.923	1	5
672.093	1	-9
672.262	1	-1
672.431	1	6
672.601	1	6
672.770	1	10
672.939	1	6
673.109	1	4
673.278	1	-3
673.448	1	1
673.617	1	0
673.786	1	4
