325.333	1	-2
325.504	1	6
325.675	1	-2
325.846	1	-4
326.017	1	2
326.188	1	4
326.359	1	13
326.531	1	3
326.702	1	7
326.873	1	1
327.044	1	10
327.215	1	-10
327.386	1	5
327.557	1	-5
327.728	1	6
327.899	1	-1
328.070	1	11
328.241	1	8
328.412	1	-2
328.583	1	4
328.754	1	-11
328.926	1	6
329.097	1	-2
329.268	1	-10
329.439	1	-7
329.610	1	-1
329.781	1	4
329.952	1	9
330.123	1	4
330.294	1	4
330.465	1	4
330.636	1	7
330.807	1	-8
330.978	1	0
331.149	1	-1
331.320	1	-1
331.492	1	-7
331.663	1	4
331.834	1	-4
332.005	1	-1
332.176	1	8
332.347	1	9
332.518	1	19
332.689	1	10
332.860	1	10
333.031	1	-3
333.202	1	7
333.373	1	6
333.544	1	-8
333.715	1	-4
333.886	1	-5
334.057	1	-5
334.228	1	0
334.399	1	8
334.570	1	-4
334.741	1	2
334.912	1	2
335.084	1	-2
335.255	1	1
335.426	1	5
335.597	1	-9
335.768	1	-4
335.939	1	-10
336.110	1	8
336.281	1	1
336.452	1	2
336.623	1	-1
336.794	1	0
336.965	1	-4
337.136	1	3
337.307	1	1
337.478	1	-1
337.649	1	-20
337.820	1	-9
337.991	1	5
338.162	1	0
338.333	1	4
338.504	1	5
338.675	1	12
338.846	1	5
339.017	1	13
339.188	1	14
339.359	1	-4
339.530	1	3
339.701	1	-8
339.872	1	8
340.043	1	-3
340.214	1	1
340.385	1	14
340.556	1	-10
340.727	1	-3
340.898	1	0
341.069	1	-16
341.240	1	-13
341.411	1	13
341.582	1	3
341.753	1	-7
341.924	1	0
342.095	1	9
342.266	1	-7
342.437	1	-8
342.608	1	-7
342.779	1	12
342.950	1	0
343.121	1	8
343.292	1	3
343.463	1	7
343.634	1	0
343.805	1	6
343.976	1	-5
344.147	1	-3
344.318	1	3
344.489	1	7
344.660	1	16
344.831	1	-1
345.002	1	7
345.173	1	5
345.344	1	-4
345.515	1	0
345.686	1	-8
345.857	1	-2
346.028	1	-6
346.199	1	6
346.370	1	-3
346.541	1	9
346.712	1	5
346.883	1	14
347.054	1	-1
347.225	1	-4
347.396	1	-2
347.567	1	-1
347.738	1	4
347.909	1	1
348.080	1	7
348.251	1	0
348.422	1	-6
348.593	1	5
348.764	1	8
348.935	1	-3
349.106	1	2
349.277	1	-1
349.448	1	0
349.619	1	12
349.790	1	8
349.961	1	2
350.132	1	7
350.303	1	0
350.474	1	0
350.645	1	9
350.816	1	0
350.987	1	8
351.157	1	0
351.328	1	5
351.499	1	11
351.670	1	-3
351.841	1	-6
352.012	1	12
352.183	1	-2
352.354	1	-6
352.525	1	1
352.696	1	0
352.867	1	5
353.038	1	-6
353.209	1	6
353.380	1	-8
353.551	1	-3
353.722	1	1
353.893	1	-1
354.064	1	4
354.235	1	11
354.406	1	1
354.576	1	-7
354.747	1	5
354.918	1	26
355.089	1	5
355.260	1	4
355.431	1	7
355.602	1	-3
355.773	1	0
355.944	1	4
356.115	1	-5
356.286	1	2
356.457	1	7
356.628	1	1
356.799	1	9
356.970	1	3
357.141	1	5
357.311	1	6
357.482	1	-3
357.653	1	-1
357.824	1	1
357.995	1	4
358.166	1	12
358.337	1	-3
358.508	1	2
358.679	1	0
358.850	1	1
359.021	1	-1
359.192	1	3
359.363	1	-15
359.533	1	-10
359.704	1	5
359.875	1	-1
360.046	1	-6
360.217	1	-9
360.388	1	-7
360.559	1	6
360.730	1	2
360.901	1	-2
361.072	1	2
361.243	1	4
361.414	1	3
361.584	1	9
361.755	1	-2
361.926	1	-1
362.097	1	0
362.268	1	10
362.439	1	-2
362.610	1	-7
362.781	1	9
362.952	1	-13
363.123	1	-3
363.293	1	-5
363.464	1	2
363.635	1	4
363.806	1	11
363.977	1	6
364.148	1	1
364.319	1	-14
364.490	1	3
364.661	1	2
364.832	1	9
365.002	1	-7
365.173	1	-10
365.344	1	8
365.515	1	7
365.686	1	6
365.857	1	-2
366.028	1	13
366.199	1	-2
366.370	1	6
366.540	1	-2
366.711	1	3
366.882	1	-8
367.053	1	0
367.224	1	-5
367.395	1	9
367.566	1	5
367.737	1	6
367.908	1	-7
368.078	1	2
368.249	1	-1
368.420	1	-6
368.591	1	2
368.762	1	-7
368.933	1	11
369.104	1	3
369.274	1	12
369.445	1	11
369.616	1	-3
369.787	1	-1
369.958	1	14
370.129	1	-3
370.300	1	-3
370.471	1	-2
370.641	1	-4
370.812	1	12
370.983	1	2
371.154	1	11
371.325	1	3
371.496	1	3
371.667	1	4
371.837	1	0
372.008	1	1
372.179	1	-2
372.350	1	15
372.521	1	0
372.692	1	1
372.863	1	1
373.033	1	6
373.204	1	5
373.375	1	-2
373.546	1	12
373.717	1	0
373.888	1	12
374.059	1	13
374.229	1	2
374.400	1	11
374.571	1	0
374.742	1	-4
374.913	1	12
375.084	1	3
375.254	1	2
375.425	1	-4
375.596	1	-5
375.767	1	1
375.938	1	-1
376.109	1	1
376.279	1	4
376.450	1	-8
376.621	1	4
376.792	1	11
376.963	1	-8
377.134	1	2
377.304	1	6
377.475	1	-1
377.646	1	-9
377.817	1	-6
377.988	1	6
378.159	1	-1
378.329	1	7
378.500	1	-3
378.671	1	-6
378.842	1	8
379.013	1	8
379.184	1	3
379.354	1	4
379.525	1	-11
379.696	1	16
379.867	1	-8
380.038	1	-6
380.209	1	-3
380.379	1	4
380.550	1	-7
380.721	1	1
380.892	1	6
381.063	1	2
381.233	1	4
381.404	1	-1
381.575	1	-6
381.746	1	8
381.917	1	-1
382.087	1	8
382.258	1	14
382.429	1	7
382.600	1	1
382.771	1	-5
382.941	1	-6
383.112	1	-4
383.283	1	13
383.454	1	5
383.625	1	1
383.795	1	1
383.966	1	2
384.137	1	3
384.308	1	1
384.479	1	15
384.649	1	7
384.820	1	5
384.991	1	-10
385.162	1	6
385.333	1	5
385.503	1	12
385.674	1	6
385.845	1	10
386.016	1	4
386.187	1	5
386.357	1	-2
386.528	1	-3
386.699	1	-3
386.870	1	5
387.041	1	6
387.211	1	-4
387.382	1	-4
387.553	1	11
387.724	1	1
387.894	1	13
388.065	1	14
388.236	1	7
388.407	1	4
388.578	1	2
388.748	1	9
388.919	1	15
389.090	1	2
389.261	1	5
389.431	1	2
389.602	1	10
389.773	1	-3
389.944	1	2
390.114	1	11
390.285	1	7
390.456	1	5
390.627	1	8
390.798	1	8
390.968	1	2
391.139	1	8
391.310	1	7
391.481	1	9
391.651	1	11
391.822	1	12
391.993	1	3
392.164	1	-5
392.334	1	-2
392.505	1	-2
392.676	1	1
392.847	1	17
393.017	1	0
393.188	1	1
393.359	1	5
393.530	1	11
393.700	1	7
393.871	1	8
394.042	1	8
394.213	1	9
394.383	1	9
394.554	1	9
394.725	1	10
394.896	1	1
395.066	1	1
395.237	1	-3
395.408	1	12
395.579	1	5
395.749	1	6
395.920	1	5
396.091	1	16
396.262	1	-9
396.432	1	9
396.603	1	3
396.774	1	3
396.945	1	-1
397.115	1	-9
397.286	1	13
397.457	1	6
397.627	1	10
397.798	1	3
397.969	1	6
398.140	1	-2
398.310	1	12
398.481	1	4
398.652	1	-7
398.823	1	1
398.993	1	13
399.164	1	1
399.335	1	4
399.505	1	6
399.676	1	9
399.847	1	14
400.018	1	9
400.188	1	6
400.359	1	11
400.530	1	-3
400.700	1	8
400.871	1	15
401.042	1	12
401.213	1	13
401.383	1	4
401.554	1	19
401.725	1	4
401.895	1	2
402.066	1	18
402.237	1	17
402.408	1	10
402.578	1	4
402.749	1	15
402.920	1	6
403.090	1	5
403.261	1	12
403.432	1	8
403.603	1	-5
403.773	1	10
403.944	1	14
404.115	1	-5
404.285	1	10
404.456	1	2
404.627	1	6
404.797	1	6
404.968	1	1
405.139	1	11
405.310	1	5
405.480	1	11
405.651	1	13
405.822	1	22
405.992	1	11
406.163	1	7
406.334	1	8
406.504	1	-3
406.675	1	8
406.846	1	9
407.016	1	8
407.187	1	3
407.358	1	13
407.528	1	3
407.699	1	4
407.870	1	4
408.041	1	-7
408.211	1	6
408.382	1	0
408.553	1	-7
408.723	1	8
408.894	1	-1
409.065	1	16
409.235	1	-1
409.406	1	8
409.577	1	-3
409.747	1	17
409.918	1	2
410.089	1	10
410.259	1	1
410.430	1	7
410.601	1	0
410.771	1	8
410.942	1	-1
411.113	1	17
411.283	1	7
411.454	1	11
411.625	1	10
411.795	1	-1
411.966	1	-5
412.137	1	-3
412.307	1	5
412.478	1	4
412.649	1	-2
412.819	1	-3
412.990	1	10
413.161	1	6
413.331	1	10
413.502	1	-10
413.672	1	12
413.843	1	8
414.014	1	10
414.184	1	-1
414.355	1	1
414.526	1	7
414.696	1	11
414.867	1	-1
415.038	1	4
415.208	1	-2
415.379	1	8
415.550	1	13
415.720	1	2
415.891	1	19
416.062	1	7
416.232	1	3
416.403	1	-3
416.573	1	9
416.744	1	7
416.915	1	7
417.085	1	-2
417.256	1	6
417.427	1	3
417.597	1	6
417.768	1	6
417.939	1	10
418.109	1	-9
418.280	1	6
418.450	1	20
418.621	1	4
418.792	1	-2
418.962	1	-7
419.133	1	17
419.304	1	0
419.474	1	-4
419.645	1	10
419.815	1	4
419.986	1	4
420.157	1	17
420.327	1	-1
420.498	1	3
420.669	1	5
420.839	1	7
421.010	1	-4
421.180	1	-6
421.351	1	15
421.522	1	11
421.692	1	12
421.863	1	10
422.033	1	13
422.204	1	9
422.375	1	2
422.545	1	2
422.716	1	-2
422.886	1	10
423.057	1	5
423.228	1	17
423.398	1	12
423.569	1	13
423.740	1	-8
423.910	1	13
424.081	1	9
424.251	1	7
424.422	1	-5
424.593	1	-7
424.763	1	10
424.934	1	11
425.104	1	11
425.275	1	19
425.445	1	15
425.616	1	10
425.787	1	1
425.957	1	2
426.128	1	12
426.298	1	8
426.469	1	-7
426.640	1	6
426.810	1	12
426.981	1	6
427.151	1	1
427.322	1	-3
427.493	1	2
427.663	1	5
427.834	1	-1
428.004	1	5
428.175	1	5
428.345	1	5
428.516	1	1
428.687	1	8
428.857	1	6
429.028	1	6
429.198	1	11
429.369	1	7
429.540	1	9
429.710	1	10
429.881	1	7
430.051	1	-1
430.222	1	7
430.392	1	3
430.563	1	7
430.734	1	10
430.904	1	7
431.075	1	-9
431.245	1	2
431.416	1	2
431.586	1	8
431.757	1	16
431.927	1	-13
432.098	1	3
432.269	1	12
432.439	1	8
432.610	1	17
432.780	1	6
432.951	1	13
433.121	1	8
433.292	1	3
433.462	1	5
433.633	1	19
433.804	1	-4
433.974	1	9
434.145	1	3
434.315	1	3
434.486	1	4
434.656	1	2
434.827	1	11
434.997	1	10
435.168	1	4
435.339	1	7
435.509	1	10
435.680	1	9
435.850	1	-4
436.021	1	15
436.191	1	8
436.362	1	16
436.532	1	2
436.703	1	13
436.873	1	11
437.044	1	11
437.214	1	15
437.385	1	11
437.556	1	4
437.726	1	2
437.897	1	2
438.067	1	6
438.238	1	8
438.408	1	7
438.579	1	7
438.749	1	1
438.920	1	0
439.090	1	6
439.261	1	1
439.431	1	7
439.602	1	2
439.772	1	6
439.943	1	11
440.113	1	7
440.284	1	16
440.455	1	3
440.625	1	5
440.796	1	0
440.966	1	4
441.137	1	4
441.307	1	1
441.478	1	6
441.648	1	9
441.819	1	8
441.989	1	1
442.160	1	10
442.330	1	12
442.501	1	6
442.671	1	0
442.842	1	2
443.012	1	0
443.183	1	7
443.353	1	8
443.524	1	-8
443.694	1	4
443.865	1	15
444.035	1	15
444.206	1	-3
444.376	1	8
444.547	1	5
444.717	1	10
444.888	1	5
445.058	1	3
445.229	1	8
445.399	1	0
445.570	1	1
445.740	1	12
445.911	1	8
446.081	1	11
446.252	1	-4
446.422	1	13
446.593	1	12
446.763	1	5
446.934	1	11
447.104	1	-10
447.275	1	19
447.445	1	7
447.616	1	8
447.786	1	-4
447.957	1	10
448.127	1	14
448.298	1	9
448.468	1	7
448.639	1	6
448.809	1	1
448.979	1	7
449.150	1	1
449.320	1	16
449.491	1	10
449.661	1	8
449.832	1	13
450.002	1	7
450.173	1	-2
450.343	1	3
450.514	1	2
450.684	1	-4
450.855	1	10
451.025	1	7
451.196	1	3
451.366	1	9
451.537	1	-2
451.707	1	13
451.878	1	3
452.048	1	-1
452.218	1	0
452.389	1	4
452.559	1	2
452.730	1	6
452.900	1	11
453.071	1	4
453.241	1	3
453.412	1	-4
453.582	1	5
453.753	1	2
453.923	1	9
454.093	1	15
454.264	1	5
454.434	1	8
454.605	1	0
454.775	1	2
454.946	1	3
455.116	1	1
455.287	1	0
455.457	1	-4
455.628	1	3
455.798	1	-2
455.968	1	6
456.139	1	4
456.309	1	13
456.480	1	10
456.650	1	21
456.821	1	16
456.991	1	6
457.161	1	-3
457.332	1	11
457.502	1	3
457.673	1	11
457.843	1	3
458.014	1	12
458.184	1	1
458.355	1	7
458.525	1	12
458.695	1	-3
458.866	1	17
459.036	1	6
459.207	1	15
459.377	1	9
459.548	1	-4
459.718	1	-3
459.888	1	13
460.059	1	17
460.229	1	1
460.400	1	3
460.570	1	5
460.740	1	7
460.911	1	4
461.081	1	13
461.252	1	7
461.422	1	3
461.593	1	9
461.763	1	18
461.933	1	11
462.104	1	4
462.274	1	0
462.445	1	6
462.615	1	9
462.785	1	2
462.956	1	9
463.126	1	6
463.297	1	10
463.467	1	9
463.638	1	4
463.808	1	14
463.978	1	11
464.149	1	-4
464.319	1	1
464.490	1	8
464.660	1	2
464.830	1	10
465.001	1	10
465.171	1	7
465.342	1	-1
465.512	1	3
465.682	1	1
465.853	1	-3
466.023	1	-1
466.194	1	9
466.364	1	16
466.534	1	-4
466.705	1	-4
466.875	1	9
467.045	1	-7
467.216	1	11
467.386	1	14
467.557	1	4
467.727	1	6
467.897	1	0
468.068	1	-5
468.238	1	16
468.409	1	-1
468.579	1	9
468.749	1	4
468.920	1	4
469.090	1	5
469.260	1	8
469.431	1	11
469.601	1	-1
469.772	1	-9
469.942	1	12
470.112	1	8
470.283	1	12
470.453	1	12
470.623	1	13
470.794	1	3
470.964	1	-1
471.135	1	17
471.305	1	9
471.475	1	3
471.646	1	3
471.816	1	-1
471.986	1	14
472.157	1	11
472.327	1	7
472.497	1	6
472.668	1	0
472.838	1	6
473.009	1	5
473.179	1	4
473.349	1	12
473.520	1	-8
473.690	1	14
473.860	1	10
474.031	1	12
474.201	1	6
474.371	1	9
474.542	1	11
474.712	1	0
474.882	1	12
475.053	1	10
475.223	1	-6
475.394	1	-7
475.564	1	8
475.734	1	4
475.905	1	-2
476.075	1	4
476.245	1	15
476.416	1	-5
476.586	1	5
476.756	1	8
476.927	1	-2
477.097	1	0
477.267	1	8
477.438	1	12
477.608	1	0
477.778	1	4
477.949	1	2
478.119	1	13
478.289	1	-5
478.460	1	-4
478.630	1	19
478.800	1	13
478.971	1	8
479.141	1	3
479.311	1	9
479.482	1	6
479.652	1	14
479.822	1	-5
479.993	1	1
480.163	1	9
480.333	1	2
480.504	1	0
480.674	1	3
480.844	1	1
481.015	1	12
481.185	1	5
481.355	1	10
481.525	1	-1
481.696	1	-7
481.866	1	-2
482.036	1	-3
482.207	1	3
482.377	1	4
482.547	1	-2
482.718	1	-2
482.888	1	11
483.058	1	2
483.229	1	5
483.399	1	11
483.569	1	9
483.740	1	3
483.910	1	0
484.080	1	-1
484.250	1	3
484.421	1	3
484.591	1	9
484.761	1	-1
484.932	1	3
485.102	1	7
485.272	1	0
485.443	1	2
485.613	1	11
485.783	1	7
485.953	1	9
486.124	1	-3
486.294	1	7
486.464	1	-4
486.635	1	9
486.805	1	-6
486.975	1	3
487.146	1	-13
487.316	1	4
487.486	1	2
487.656	1	7
487.827	1	2
487.997	1	1
488.167	1	3
488.338	1	-2
488.508	1	6
488.678	1	10
488.848	1	6
489.019	1	-8
489.189	1	3
489.359	1	0
489.529	1	3
489.700	1	1
489.870	1	-9
490.040	1	-9
490.211	1	8
490.381	1	13
490.551	1	-2
490.721	1	7
490.892	1	-4
491.062	1	1
491.232	1	2
491.402	1	0
491.573	1	4
491.743	1	7
491.913	1	-6
492.084	1	2
492.254	1	9
492.424	1	10
492.594	1	17
492.765	1	7
492.935	1	2
493.105	1	6
493.275	1	1
493.446	1	-2
493.616	1	2
493.786	1	-3
493.956	1	-1
494.127	1	14
494.297	1	-2
494.467	1	9
494.637	1	7
494.808	1	7
494.978	1	9
495.148	1	-5
495.318	1	16
495.489	1	-9
495.659	1	-7
495.829	1	10
495.999	1	6
496.170	1	1
496.340	1	2
496.510	1	3
496.680	1	3
496.851	1	2
497.021	1	-6
497.191	1	1
497.361	1	-1
497.532	1	0
497.702	1	15
497.872	1	10
498.042	1	10
498.213	1	3
498.383	1	1
498.553	1	-2
498.723	1	2
498.894	1	-3
499.064	1	3
499.234	1	0
499.404	1	3
499.574	1	-1
499.745	1	-1
499.915	1	6
500.085	1	0
500.255	1	6
500.426	1	6
500.596	1	4
500.766	1	-3
500.936	1	10
501.106	1	-3
501.277	1	7
501.447	1	4
501.617	1	8
501.787	1	10
501.958	1	-1
502.128	1	-11
502.298	1	-2
502.468	1	4
502.638	1	9
502.809	1	3
502.979	1	7
503.149	1	-4
503.319	1	12
503.489	1	-2
503.660	1	0
503.830	1	-6
504.000	1	2
504.170	1	1
504.340	1	-2
504.511	1	9
504.681	1	-5
504.851	1	6
505.021	1	7
505.192	1	-5
505.362	1	0
505.532	1	8
505.702	1	2
505.872	1	6
506.043	1	9
506.213	1	9
506.383	1	-4
506.553	1	9
506.723	1	0
506.893	1	-9
507.064	1	-5
507.234	1	8
507.404	1	9
507.574	1	-1
507.744	1	7
507.915	1	7
508.085	1	10
508.255	1	4
508.425	1	-3
508.595	1	-5
508.766	1	-5
508.936	1	7
509.106	1	6
509.276	1	8
509.446	1	1
509.616	1	-7
509.787	1	9
509.957	1	0
510.127	1	1
510.297	1	-2
510.467	1	-3
510.638	1	9
510.808	1	-4
510.978	1	-2
511.148	1	20
511.318	1	3
511.488	1	11
511.659	1	1
511.829	1	7
511.999	1	10
512.169	1	-7
512.339	1	3
512.509	1	1
512.680	1	0
512.850	1	0
513.020	1	-3
513.190	1	-16
513.360	1	8
513.530	1	3
513.700	1	2
513.871	1	9
514.041	1	-1
514.211	1	9
514.381	1	4
514.551	1	0
514.721	1	-5
514.892	1	-6
515.062	1	-3
515.232	1	8
515.402	1	-7
515.572	1	7
515.742	1	3
515.912	1	2
516.083	1	-3
516.253	1	5
516.423	1	1
516.593	1	2
516.763	1	-2
516.933	1	-5
517.104	1	-2
517.274	1	2
517.444	1	1
517.614	1	2
517.784	1	4
517.954	1	7
518.124	1	-4
518.294	1	1
518.465	1	8
518.635	1	1
518.805	1	15
518.975	1	2
519.145	1	10
519.315	1	-1
519.485	1	-10
519.656	1	8
519.826	1	4
519.996	1	8
520.166	1	4
520.336	1	1
520.506	1	-17
520.676	1	-3
520.846	1	-6
521.017	1	-3
521.187	1	4
521.357	1	-5
521.527	1	9
521.697	1	3
521.867	1	1
522.037	1	-9
522.207	1	1
522.377	1	1
522.548	1	1
522.718	1	-4
522.888	1	14
523.058	1	5
523.228	1	2
523.398	1	11
523.568	1	5
523.738	1	-2
523.909	1	2
524.079	1	-13
524.249	1	10
524.419	1	1
524.589	1	0
524.759	1	8
524.929	1	-5
525.099	1	-4
525.269	1	10
525.439	1	-1
525.610	1	0
525.780	1	6
525.950	1	-5
526.120	1	-1
526.290	1	5
526.460	1	-4
526.630	1	0
526.800	1	0
526.970	1	4
527.140	1	-5
527.311	1	3
527.481	1	8
527.651	1	1
527.821	1	4
527.991	1	9
528.161	1	-1
528.331	1	9
528.501	1	10
528.671	1	-3
528.841	1	9
529.011	1	1
529.181	1	2
529.352	1	-5
529.522	1	-1
529.692	1	2
529.862	1	6
530.032	1	5
530.202	1	1
530.372	1	0
530.542	1	-8
530.712	1	-1
530.882	1	-5
531.052	1	9
531.222	1	-4
531.392	1	6
531.563	1	3
531.733	1	16
531.903	1	7
532.073	1	1
532.243	1	0
532.413	1	4
532.583	1	0
532.753	1	3
532.923	1	5
533.093	1	11
533.263	1	-8
533.433	1	13
533.603	1	14
533.773	1	-4
533.943	1	-2
534.113	1	3
534.284	1	6
534.454	1	-5
534.624	1	9
534.794	1	-7
534.964	1	0
535.134	1	7
535.304	1	8
535.474	1	-9
535.644	1	-3
535.814	1	1
535.984	1	18
536.154	1	-6
536.324	1	4
536.494	1	4
536.664	1	2
536.834	1	-4
537.004	1	5
537.174	1	2
537.344	1	6
537.514	1	1
537.685	1	0
537.855	1	1
538.025	1	0
538.195	1	4
538.365	1	2
538.535	1	-9
538.705	1	5
538.875	1	3
539.045	1	-3
539.215	1	-14
539.385	1	0
539.555	1	6
539.725	1	-7
539.895	1	2
540.065	1	-8
540.235	1	3
540.405	1	5
540.575	1	0
540.745	1	-2
540.915	1	0
541.085	1	-10
541.255	1	-10
541.425	1	10
541.595	1	9
541.765	1	18
541.935	1	-9
542.105	1	-3
542.275	1	11
542.445	1	-10
542.615	1	-5
542.785	1	-2
542.955	1	-3
543.125	1	-6
543.295	1	5
543.465	1	12
543.635	1	8
543.805	1	10
543.975	1	-4
544.145	1	-5
544.315	1	-13
544.485	1	0
544.655	1	-1
544.825	1	-1
544.995	1	2
545.165	1	1
545.335	1	-3
545.505	1	10
545.675	1	-13
545.845	1	1
546.015	1	5
546.185	1	0
546.355	1	3
546.525	1	-7
546.695	1	-1
546.865	1	8
547.035	1	7
547.205	1	-2
547.375	1	3
547.545	1	4
547.715	1	1
547.885	1	7
548.055	1	-10
548.225	1	0
548.395	1	-2
548.565	1	10
548.735	1	5
548.905	1	-9
549.075	1	7
549.245	1	2
549.415	1	4
549.585	1	7
549.755	1	4
549.925	1	-2
550.095	1	1
550.265	1	4
550.435	1	-14
550.605	1	-2
550.775	1	2
550.945	1	4
551.115	1	2
551.285	1	2
551.455	1	-4
551.625	1	-7
551.795	1	-8
551.965	1	9
552.135	1	8
552.305	1	-5
552.475	1	0
552.645	1	-2
552.815	1	-7
552.985	1	-7
553.155	1	-9
553.325	1	-9
553.495	1	3
553.665	1	4
553.835	1	-9
554.004	1	-7
554.174	1	2
554.344	1	4
554.514	1	-5
554.684	1	-5
554.854	1	-1
555.024	1	-6
555.194	1	7
555.364	1	7
555.534	1	-4
555.704	1	12
555.874	1	-14
556.044	1	13
556.214	1	7
556.384	1	1
556.554	1	5
556.724	1	9
556.894	1	-5
557.064	1	0
557.234	1	4
557.404	1	3
557.573	1	-7
557.743	1	5
557.913	1	-11
558.083	1	7
558.253	1	-7
558.423	1	-7
558.593	1	7
558.763	1	17
558.933	1	-8
559.103	1	6
559.273	1	-5
559.443	1	3
559.613	1	4
559.783	1	-2
559.953	1	12
560.122	1	10
560.292	1	4
560.462	1	-1
560.632	1	4
560.802	1	-4
560.972	1	7
561.142	1	1
561.312	1	0
561.482	1	0
561.652	1	1
561.822	1	-6
561.992	1	-14
562.162	1	7
562.331	1	2
562.501	1	-9
562.671	1	9
562.841	1	1
563.011	1	-15
563.181	1	5
563.351	1	-3
563.521	1	-2
563.691	1	9
563.861	1	0
564.031	1	-9
564.201	1	-6
564.370	1	5
564.540	1	-11
564.710	1	-4
564.880	1	5
565.050	1	2
565.220	1	7
565.390	1	4
565.560	1	-4
565.730	1	4
565.900	1	-5
566.069	1	0
566.239	1	2
566.409	1	1
566.579	1	-11
566.749	1	-4
566.919	1	-2
567.089	1	-3
567.259	1	4
567.429	1	0
567.599	1	0
567.768	1	0
567.938	1	0
568.108	1	3
568.278	1	-5
568.448	1	5
568.618	1	1
568.788	1	-16
568.958	1	-6
569.128	1	-5
569.297	1	-8
569.467	1	-5
569.637	1	7
569.807	1	-5
569.977	1	6
570.147	1	6
570.317	1	2
570.487	1	9
570.656	1	4
570.826	1	2
570.996	1	4
571.166	1	-8
571.336	1	6
571.506	1	2
571.676	1	-7
571.846	1	2
572.015	1	8
572.185	1	-1
572.355	1	-1
572.525	1	-2
572.695	1	0
572.865	1	1
573.035	1	-13
573.205	1	-4
573.374	1	1
573.544	1	0
573.714	1	7
573.884	1	0
574.054	1	5
574.224	1	-7
574.394	1	-7
574.563	1	5
574.733	1	4
574.903	1	-3
575.073	1	-2
575.243	1	-2
575.413	1	-1
575.583	1	3
575.752	1	2
575.922	1	8
576.092	1	-4
576.262	1	-1
576.432	1	7
576.602	1	3
576.772	1	-11
576.941	1	13
577.111	1	-5
577.281	1	12
577.451	1	-3
577.621	1	5
577.791	1	7
577.960	1	-5
578.130	1	-2
578.300	1	0
578.470	1	2
578.640	1	-5
578.810	1	-6
578.979	1	1
579.149	1	-3
579.319	1	8
579.489	1	-2
579.659	1	-2
579.829	1	5
579.998	1	-7
580.168	1	-2
580.338	1	5
580.508	1	-4
580.678	1	14
580.848	1	-4
581.017	1	-3
581.187	1	-1
581.357	1	-2
581.527	1	-4
581.697	1	-11
581.867	1	-1
582.036	1	8
582.206	1	1
582.376	1	5
582.546	1	23
582.716	1	2
582.885	1	4
583.055	1	2
583.225	1	-5
583.395	1	2
583.565	1	-5
583.735	1	4
583.904	1	0
584.074	1	-9
584.244	1	-1
584.414	1	-8
584.584	1	-2
584.753	1	2
584.923	1	10
585.093	1	-7
585.263	1	-1
585.433	1	7
585.602	1	12
585.772	1	-1
585.942	1	-4
586.112	1	-1
586.282	1	7
586.451	1	-7
586.621	1	0
586.791	1	5
586.961	1	6
587.131	1	1
587.300	1	12
587.470	1	-2
587.640	1	-9
587.810	1	-2
587.980	1	0
588.149	1	9
588.319	1	6
588.489	1	-3
588.659	1	7
588.829	1	-8
588.998	1	-1
589.168	1	3
589.338	1	4
589.508	1	2
589.677	1	-4
589.847	1	3
590.017	1	6
590.187	1	-1
590.357	1	-4
590.526	1	5
590.696	1	-4
590.866	1	-8
591.036	1	-5
591.205	1	8
591.375	1	-5
591.545	1	3
591.715	1	-6
591.885	1	-10
592.054	1	4
592.224	1	5
592.394	1	-3
592.564	1	0
592.733	1	5
592.903	1	1
593.073	1	-11
593.243	1	5
593.412	1	-9
593.582	1	-8
593.752	1	1
593.922	1	10
594.091	1	-11
594.261	1	-6
594.431	1	-5
594.601	1	7
594.771	1	11
594.940	1	-8
595.110	1	9
595.280	1	3
595.450	1	3
595.619	1	1
595.789	1	11
595.959	1	4
596.129	1	-3
596.298	1	-3
596.468	1	6
596.638	1	6
596.808	1	-15
596.977	1	-10
597.147	1	1
597.317	1	5
597.487	1	0
597.656	1	6
597.826	1	-4
597.996	1	1
598.166	1	6
598.335	1	-3
598.505	1	-10
598.675	1	-6
598.844	1	-1
599.014	1	-2
599.184	1	7
599.354	1	0
599.523	1	7
599.693	1	0
599.863	1	4
600.033	1	0
600.202	1	4
600.372	1	3
600.542	1	4
600.712	1	11
600.881	1	0
601.051	1	1
601.221	1	3
601.390	1	-1
601.560	1	11
601.730	1	-5
601.900	1	7
602.069	1	-8
602.239	1	-7
602.409	1	9
602.578	1	11
602.748	1	-3
602.918	1	6
603.088	1	4
603.257	1	8
603.427	1	14
603.597	1	0
603.767	1	7
603.936	1	7
604.106	1	3
604.276	1	1
604.445	1	-1
604.615	1	-13
604.785	1	3
604.954	1	-3
605.124	1	2
605.294	1	12
605.464	1	-14
605.633	1	6
605.803	1	3
605.973	1	4
606.142	1	1
606.312	1	5
606.482	1	3
606.652	1	0
606.821	1	-2
606.991	1	1
607.161	1	8
607.330	1	-2
607.500	1	3
607.670	1	2
607.839	1	-11
608.009	1	4
608.179	1	-2
608.348	1	-4
608.518	1	-7
608.688	1	6
608.858	1	-2
609.027	1	1
609.197	1	2
609.367	1	-16
609.536	1	10
609.706	1	3
609.876	1	-7
610.045	1	3
610.215	1	8
610.385	1	1
610.554	1	3
610.724	1	6
610.894	1	-2
611.063	1	-4
611.233	1	-18
611.403	1	-2
611.572	1	-4
611.742	1	-1
611.912	1	7
612.081	1	1
612.251	1	3
612.421	1	3
612.590	1	1
612.760	1	9
612.930	1	-7
613.099	1	-4
613.269	1	-3
613.439	1	3
613.608	1	6
613.778	1	0
613.948	1	13
614.117	1	-9
614.287	1	-4
614.457	1	-2
614.626	1	9
614.796	1	9
614.966	1	1
615.135	1	7
615.305	1	11
615.475	1	4
615.644	1	-2
615.814	1	-6
615.984	1	4
616.153	1	2
616.323	1	-12
616.493	1	6
616.662	1	5
616.832	1	3
617.002	1	1
617.171	1	3
617.341	1	-2
617.511	1	-4
617.680	1	-6
617.850	1	3
618.019	1	3
618.189	1	-4
618.359	1	5
618.528	1	3
618.698	1	10
618.868	1	-6
619.037	1	0
619.207	1	1
619.377	1	2
619.546	1	-10
619.716	1	4
619.885	1	6
620.055	1	10
620.225	1	6
620.394	1	1
620.564	1	-10
620.734	1	-2
620.903	1	3
621.073	1	7
621.242	1	-8
621.412	1	9
621.582	1	3
621.751	1	7
621.921	1	14
622.091	1	-6
622.260	1	9
622.430	1	10
622.599	1	3
622.769	1	-2
622.939	1	-7
623.108	1	-2
623.278	1	13
623.448	1	0
623.617	1	0
623.787	1	12
623.956	1	9
624.126	1	-4
624.296	1	0
624.465	1	-2
624.635	1	4
624.804	1	-5
624.974	1	5
625.144	1	5
625.313	1	-1
625.483	1	1
625.652	1	10
625.822	1	5
625.992	1	13
626.161	1	-5
626.331	1	6
626.501	1	1
626.670	1	-10
626.840	1	1
627.009	1	-1
627.179	1	-5
627.348	1	12
627.518	1	3
627.688	1	4
627.857	1	0
628.027	1	-4
628.196	1	-8
628.366	1	-3
628.536	1	4
628.705	1	1
628.875	1	0
629.044	1	3
629.214	1	7
629.384	1	-8
629.553	1	7
629.723	1	-12
629.892	1	-2
630.062	1	-16
630.232	1	6
630.401	1	-4
630.571	1	5
630.740	1	7
630.910	1	9
631.079	1	0
631.249	1	7
631.419	1	3
631.588	1	1
631.758	1	6
631.927	1	-3
632.097	1	-1
632.266	1	-5
632.436	1	3
632.606	1	-8
632.775	1	8
632.945	1	0
633.114	1	-2
633.284	1	4
633.453	1	9
633.623	1	18
633.793	1	7
633.962	1	-10
634.132	1	-1
634.301	1	3
634.471	1	-5
634.640	1	-5
634.810	1	4
634.979	1	-1
635.149	1	-8
635.319	1	9
635.488	1	0
635.658	1	2
635.827	1	-2
635.997	1	2
636.166	1	0
636.336	1	2
636.505	1	3
636.675	1	0
636.845	1	0
637.014	1	-1
637.184	1	3
637.353	1	10
637.523	1	5
637.692	1	-3
637.862	1	-1
638.031	1	1
638.201	1	-2
638.370	1	5
638.540	1	10
638.710	1	6
638.879	1	10
639.049	1	-9
639.218	1	7
639.388	1	3
639.557	1	-3
639.727	1	9
639.896	1	10
640.066	1	-5
640.235	1	6
640.405	1	-1
640.574	1	4
640.744	1	2
640.914	1	-1
641.083	1	-3
641.253	1	-8
641.422	1	10
641.592	1	-1
641.761	1	-6
641.931	1	-6
642.100	1	8
642.270	1	-7
642.439	1	-8
642.609	1	7
642.778	1	6
642.948	1	5
643.117	1	4
643.287	1	-7
643.456	1	3
643.626	1	1
643.795	1	6
643.965	1	-2
644.134	1	-13
644.304	1	15
644.473	1	-2
644.643	1	2
644.812	1	7
644.982	1	6
645.151	1	0
645.321	1	4
645.490	1	3
645.660	1	12
645.829	1	5
645.999	1	-4
646.168	1	1
646.338	1	-2
646.507	1	7
646.677	1	2
646.846	1	-1
647.016	1	2
647.185	1	-6
647.355	1	-5
647.524	1	3
647.694	1	-7
647.863	1	5
648.033	1	0
648.202	1	4
648.372	1	-9
648.541	1	6
648.711	1	3
648.880	1	-1
649.050	1	3
649.219	1	8
649.389	1	3
649.558	1	3
649.728	1	-6
649.897	1	-3
650.067	1	6
650.236	1	-6
650.406	1	17
650.575	1	4
650.745	1	4
650.914	1	-3
651.084	1	-1
651.253	1	-6
651.423	1	3
651.592	1	-2
651.762	1	-7
651.931	1	0
652.101	1	3
652.270	1	-4
652.440	1	4
652.609	1	6
652.778	1	4
652.948	1	3
653.117	1	-1
653.287	1	3
653.456	1	-4
653.626	1	-5
653.795	1	-10
653.965	1	6
654.134	1	-5
654.304	1	7
654.473	1	-11
654.643	1	-6
654.812	1	12
654.982	1	4
655.151	1	2
655.320	1	10
655.490	1	4
655.659	1	7
655.829	1	-4
655.998	1	5
656.168	1	0
656.337	1	-9
656.507	1	0
656.676	1	3
656.846	1	3
657.015	1	0
657.184	1	-7
657.354	1	7
657.523	1	-6
657.693	1	-7
657.862	1	-13
658.032	1	3
658.201	1	4
658.371	1	-5
658.540	1	-4
658.709	1	2
658.879	1	10
659.048	1	6
659.218	1	-5
659.387	1	1
659.557	1	-1
659.726	1	-7
659.895	1	6
660.065	1	14
660.234	1	-3
660.404	1	-3
660.573	1	1
660.743	1	-2
660.912	1	-12
661.081	1	-6
661.251	1	10
661.420	1	11
661.590	1	-2
661.759	1	-8
661.929	1	4
662.098	1	0
662.267	1	-7
662.437	1	10
662.606	1	-5
662.776	1	-7
662.945	1	-6
663.115	1	14
663.284	1	3
663.453	1	8
663.623	1	5
663.792	1	3
663.962	1	-3
664.131	1	-2
664.300	1	-13
664.470	1	8
664.639	1	-3
664.809	1	3
664.978	1	-3
665.148	1	4
665.317	1	6
665.486	1	4
665.656	1	-1
665.825	1	8
665.995	1	-8
666.164	1	0
666.333	1	-3
666.503	1	-2
666.672	1	-2
666.842	1	-7
667.011	1	-2
667.180	1	2
667.350	1	2
667.519	1	3
667.689	1	-1
667.858	1	0
668.027	1	4
668.197	1	8
668.366	1	-3
668.536	1	-1
668.705	1	3
668.874	1	2
669.044	1	2
669.213	1	4
669.382	1	-2
669.552	1	4
669.721	1	-5
669.891	1	-7
670.060	1	-2
670.229	1	-9
670.399	1	-2
670.568	1	-9
670.738	1	-1
670.907	1	10
671.076	1	-5
671.246	1	0
671.415	1	5
671.584	1	-10
671.754	1	-4
671.923	1	-1
672.093	1	4
672.262	1	7
672.431	1	2
672.601	1	10
672.770	1	-6
672.939	1	2
673.109	1	7
673.278	1	1
673.448	1	5
673.617	1	1
673.786	1	8
