325.333	1	5
325.504	1	4
325.675	1	1
325.846	1	-4
326.017	1	4
326.188	1	11
326.359	1	3
326.531	1	14
326.702	1	9
326.873	1	-7
327.044	1	7
327.215	1	-9
327.386	1	11
327.557	1	10
327.728	1	4
327.899	1	5
328.070	1	12
328.241	1	8
328.412	1	3
328.583	1	-2
328.754	1	-9
328.926	1	11
329.097	1	-1
329.268	1	-2
329.439	1	-3
329.610	1	7
329.781	1	-2
329.952	1	4
330.123	1	-1
330.294	1	3
330.465	1	0
330.636	1	9
330.807	1	-8
330.978	1	5
331.149	1	0
331.320	1	-3
331.492	1	-4
331.663	1	-5
331.834	1	-3
332.005	1	0
332.176	1	9
332.347	1	14
332.518	1	8
332.689	1	8
332.860	1	3
333.031	1	4
333.202	1	2
333.373	1	0
333.544	1	-4
333.715	1	-2
333.886	1	-3
334.057	1	0
334.228	1	1
334.399	1	13
334.570	1	-14
334.741	1	-4
334.912	1	-5
335.084	1	-1
335.255	1	7
335.426	1	6
335.597	1	4
335.768	1	4
335.939	1	-4
336.110	1	13
336.281	1	6
336.452	1	8
336.623	1	-7
336.794	1	4
336.965	1	-8
337.136	1	10
337.307	1	11
337.478	1	7
337.649	1	-5
337.820	1	-5
337.991	1	4
338.162	1	8
338.333	1	12
338.504	1	19
338.675	1	1
338.846	1	6
339.017	1	14
339.188	1	15
339.359	1	5
339.530	1	-5
339.701	1	2
339.872	1	3
340.043	1	3
340.214	1	5
340.385	1	12
340.556	1	3
340.727	1	4
340.898	1	2
341.069	1	-6
341.240	1	-2
341.411	1	19
341.582	1	8
341.753	1	0
341.924	1	-3
342.095	1	2
342.266	1	-4
342.437	1	-5
342.608	1	3
342.779	1	7
342.950	1	3
343.121	1	3
343.292	1	9
343.463	1	-2
343.634	1	-2
343.805	1	0
343.976	1	-12
344.147	1	9
344.318	1	-2
344.489	1	2
344.660	1	13
344.831	1	3
345.002	1	2
345.173	1	4
345.344	1	-3
345.515	1	0
345.686	1	-9
345.857	1	-8
346.028	1	-13
346.199	1	8
346.370	1	-6
346.541	1	-1
346.712	1	1
346.883	1	8
347.054	1	0
347.225	1	-11
347.396	1	5
347.567	1	2
347.738	1	3
347.909	1	9
348.080	1	6
348.251	1	3
348.422	1	-9
348.593	1	14
348.764	1	-7
348.935	1	4
349.106	1	7
349.277	1	9
349.448	1	4
349.619	1	0
349.790	1	5
349.961	1	5
350.132	1	8
350.303	1	4
350.474	1	-6
350.645	1	19
350.816	1	2
350.987	1	15
351.157	1	5
351.328	1	-7
351.499	1	2
351.670	1	0
351.841	1	-6
352.012	1	6
352.183	1	12
352.354	1	1
352.525	1	8
352.696	1	-1
352.867	1	12
353.038	1	-6
353.209	1	11
353.380	1	3
353.551	1	-3
353.722	1	2
353.893	1	9
354.064	1	0
354.235	1	9
354.406	1	11
354.576	1	-2
354.747	1	1
354.918	1	8
355.089	1	3
355.260	1	0
355.431	1	6
355.602	1	4
355.773	1	6
355.944	1	13
356.115	1	1
356.286	1	2
356.457	1	10
356.628	1	-1
356.799	1	10
356.970	1	0
357.141	1	0
357.311	1	-2
357.482	1	-1
357.653	1	-1
357.824	1	13
357.995	1	9
358.166	1	2
358.337	1	0
358.508	1	-4
358.679	1	4
358.850	1	-10
359.021	1	9
359.192	1	3
359.363	1	-4
359.533	1	-1
359.704	1	2
359.875	1	-3
360.046	1	0
360.217	1	0
360.388	1	1
360.559	1	5
360.730	1	-5
360.901	1	-2
361.072	1	5
361.243	1	3
361.414	1	8
361.584	1	14
361.755	1	-6
361.926	1	-13
362.097	1	-5
362.268	1	0
362.439	1	3
362.610	1	5
362.781	1	10
362.952	1	-3
363.123	1	-4
363.293	1	6
363.464	1	9
363.635	1	6
363.806	1	2
363.977	1	3
364.148	1	2
364.319	1	-2
364.490	1	7
364.661	1	6
364.832	1	6
365.002	1	6
365.173	1	-8
365.344	1	1
365.515	1	13
365.686	1	-1
365.857	1	8
366.028	1	7
366.199	1	3
366.370	1	-6
366.540	1	3
366.711	1	11
366.882	1	1
367.053	1	8
367.224	1	-5
367.395	1	9
367.566	1	14
367.737	1	15
367.908	1	0
368.078	1	8
368.249	1	7
368.420	1	9
368.591	1	-1
368.762	1	2
368.933	1	14
369.104	1	0
369.274	1	5
369.445	1	14
369.616	1	-5
369.787	1	5
369.958	1	8
370.129	1	-1
370.300	1	0
370.471	1	0
370.641	1	2
370.812	1	18
370.983	1	4
371.154	1	8
371.325	1	4
371.496	1	-2
371.667	1	3
371.837	1	5
372.008	1	17
372.179	1	-2
372.350	1	16
372.521	1	3
372.692	1	7
372.863	1	5
373.033	1	9
373.204	1	17
373.375	1	-8
373.546	1	10
373.717	1	-2
373.888	1	9
374.059	1	2
374.229	1	-7
374.400	1	12
374.571	1	3
374.742	1	1
374.913	1	13
375.084	1	12
375.254	1	-4
375.425	1	-6
375.596	1	3
375.767	1	-3
375.938	1	-4
376.109	1	-2
376.279	1	6
376.450	1	1
376.621	1	8
376.792	1	9
376.963	1	5
377.134	1	-4
377.304	1	6
377.475	1	15
377.646	1	-3
377.817	1	6
377.988	1	2
378.159	1	3
378.329	1	12
378.500	1	-1
378.671	1	2
378.842	1	2
379.013	1	8
379.184	1	9
379.354	1	10
379.525	1	-7
379.696	1	13
379.867	1	-6
380.038	1	-3
380.209	1	1
380.379	1	14
380.550	1	4
380.721	1	0
380.892	1	10
381.063	1	10
381.233	1	5
381.404	1	3
381.575	1	10
381.746	1	8
381.917	1	5
382.087	1	2
382.258	1	23
382.429	1	8
382.600	1	6
382.771	1	-2
382.941	1	5
383.112	1	4
383.283	1	20
383.454	1	6
383.625	1	8
383.795	1	6
383.966	1	4
384.137	1	9
384.308	1	6
384.479	1	4
384.649	1	14
384.820	1	11
384.991	1	0
385.162	1	8
385.333	1	2
385.503	1	17
385.674	1	14
385.845	1	12
386.016	1	12
386.187	1	5
386.357	1	3
386.528	1	-1
386.699	1	-3
386.870	1	-1
387.041	1	2
387.211	1	-1
387.382	1	3
387.553	1	14
387.724	1	-2
387.894	1	12
388.065	1	16
388.236	1	11
388.407	1	8
388.578	1	10
388.748	1	7
388.919	1	14
389.090	1	3
389.261	1	6
389.431	1	12
389.602	1	-4
389.773	1	-10
389.944	1	4
390.114	1	13
390.285	1	5
390.456	1	8
390.627	1	7
390.798	1	10
390.968	1	0
391.139	1	7
391.310	1	9
391.481	1	7
391.651	1	16
391.822	1	9
391.993	1	3
392.164	1	-4
392.334	1	-2
392.505	1	7
392.676	1	4
392.847	1	15
393.017	1	-3
393.188	1	0
393.359	1	7
393.530	1	11
393.700	1	15
393.871	1	9
394.042	1	6
394.213	1	5
394.383	1	12
394.554	1	12
394.725	1	3
394.896	1	8
395.066	1	8
395.237	1	7
395.408	1	11
395.579	1	4
395.749	1	8
395.920	1	10
396.091	1	16
396.262	1	0
396.432	1	4
396.603	1	0
396.774	1	18
396.945	1	3
397.115	1	2
397.286	1	13
397.457	1	6
397.627	1	9
397.798	1	11
397.969	1	13
398.140	1	-4
398.310	1	10
398.481	1	16
398.652	1	3
398.823	1	-1
398.993	1	14
399.164	1	5
399.335	1	-2
399.505	1	20
399.676	1	5
399.847	1	13
400.018	1	4
400.188	1	14
400.359	1	14
400.530	1	5
400.700	1	5
400.871	1	17
401.042	1	4
401.213	1	2
401.383	1	4
401.554	1	11
401.725	1	10
401.895	1	-4
402.066	1	17
402.237	1	14
402.408	1	16
402.578	1	10
402.749	1	15
402.920	1	21
403.090	1	20
403.261	1	20
403.432	1	17
403.603	1	-5
403.773	1	17
403.944	1	13
404.115	1	-4
404.285	1	16
404.456	1	8
404.627	1	4
404.797	1	9
404.968	1	6
405.139	1	13
405.310	1	13
405.480	1	14
405.651	1	12
405.822	1	24
405.992	1	4
406.163	1	14
406.334	1	7
406.504	1	1
406.675	1	4
406.846	1	14
407.016	1	4
407.187	1	15
407.358	1	8
407.528	1	17
407.699	1	16
407.870	1	14
408.041	1	1
408.211	1	6
408.382	1	5
408.553	1	2
408.723	1	18
408.894	1	14
409.065	1	17
409.235	1	13
409.406	1	3
409.577	1	13
409.747	1	13
409.918	1	8
410.089	1	3
410.259	1	3
410.430	1	12
410.601	1	7
410.771	1	11
410.942	1	5
411.113	1	17
411.283	1	3
411.454	1	1
411.625	1	4
411.795	1	5
411.966	1	-3
412.137	1	-2
412.307	1	10
412.478	1	8
412.649	1	9
412.819	1	-2
412.990	1	19
413.161	1	6
413.331	1	19
413.502	1	-1
413.672	1	12
413.843	1	14
414.014	1	21
414.184	1	8
414.355	1	-1
414.526	1	13
414.696	1	15
414.867	1	14
415.038	1	1
415.208	1	2
415.379	1	13
415.550	1	13
415.720	1	6
415.891	1	23
416.062	1	10
416.232	1	10
416.403	1	1
416.573	1	6
416.744	1	9
416.915	1	9
417.085	1	5
417.256	1	10
417.427	1	11
417.597	1	2
417.768	1	6
417.939	1	15
418.109	1	2
418.280	1	7
418.450	1	19
418.621	1	4
418.792	1	10
418.962	1	1
419.133	1	13
419.304	1	11
419.474	1	8
419.645	1	8
419.815	1	9
419.986	1	6
420.157	1	19
420.327	1	1
420.498	1	7
420.669	1	12
420.839	1	11
421.010	1	7
421.180	1	6
421.351	1	15
421.522	1	17
421.692	1	15
421.863	1	7
422.033	1	22
422.204	1	12
422.375	1	9
422.545	1	8
422.716	1	10
422.886	1	23
423.057	1	1
423.228	1	14
423.398	1	13
423.569	1	7
423.740	1	2
423.910	1	21
424.081	1	17
424.251	1	3
424.422	1	5
424.593	1	8
424.763	1	8
424.934	1	13
425.104	1	6
425.275	1	18
425.445	1	17
425.616	1	12
425.787	1	16
425.957	1	8
426.128	1	17
426.298	1	11
426.469	1	0
426.640	1	9
426.810	1	7
426.981	1	1
427.151	1	8
427.322	1	-3
427.493	1	2
427.663	1	8
427.834	1	-3
428.004	1	12
428.175	1	9
428.345	1	21
428.516	1	10
428.687	1	4
428.857	1	9
429.028	1	15
429.198	1	5
429.369	1	16
429.540	1	7
429.710	1	15
429.881	1	8
430.051	1	15
430.222	1	12
430.392	1	8
430.563	1	11
430.734	1	12
430.904	1	11
431.075	1	11
431.245	1	8
431.416	1	0
431.586	1	12
431.757	1	7
431.927	1	-2
432.098	1	9
432.269	1	15
432.439	1	12
432.610	1	16
432.780	1	6
432.951	1	9
433.121	1	16
433.292	1	15
433.462	1	13
433.633	1	13
433.804	1	5
433.974	1	6
434.145	1	11
434.315	1	8
434.486	1	6
434.656	1	3
434.827	1	13
434.997	1	14
435.168	1	13
435.339	1	8
435.509	1	0
435.680	1	9
435.850	1	5
436.021	1	19
436.191	1	13
436.362	1	13
436.532	1	10
436.703	1	18
436.873	1	8
437.044	1	8
437.214	1	21
437.385	1	10
437.556	1	3
437.726	1	1
437.897	1	7
438.067	1	17
438.238	1	10
438.408	1	11
438.579	1	4
438.749	1	1
438.920	1	5
439.090	1	3
439.261	1	5
439.431	1	10
439.602	1	5
439.772	1	11
439.943	1	19
440.113	1	8
440.284	1	11
440.455	1	16
440.625	1	4
440.796	1	2
440.966	1	0
441.137	1	6
441.307	1	2
441.478	1	12
441.648	1	14
441.819	1	18
441.989	1	-3
442.160	1	7
442.330	1	15
442.501	1	2
442.671	1	5
442.842	1	13
443.012	1	5
443.183	1	8
443.353	1	9
443.524	1	2
443.694	1	4
443.865	1	4
444.035	1	11
444.206	1	0
444.376	1	16
444.547	1	4
444.717	1	16
444.888	1	13
445.058	1	18
445.229	1	7
445.399	1	9
445.570	1	3
445.740	1	1
445.911	1	1
446.081	1	7
446.252	1	5
446.422	1	11
446.593	1	12
446.763	1	14
446.934	1	17
447.104	1	3
447.275	1	17
447.445	1	7
447.616	1	7
447.786	1	5
447.957	1	12
448.127	1	14
448.298	1	9
448.468	1	14
448.639	1	5
448.809	1	16
448.979	1	8
449.150	1	5
449.320	1	14
449.491	1	4
449.661	1	10
449.832	1	19
450.002	1	17
450.173	1	5
450.343	1	13
450.514	1	16
450.684	1	14
450.855	1	7
451.025	1	8
451.196	1	17
451.366	1	-4
451.537	1	12
451.707	1	10
451.878	1	2
452.048	1	7
452.218	1	2
452.389	1	9
452.559	1	8
452.730	1	7
452.900	1	10
453.071	1	8
453.241	1	10
453.412	1	2
453.582	1	6
453.753	1	15
453.923	1	12
454.093	1	20
454.264	1	-2
454.434	1	7
454.605	1	12
454.775	1	0
454.946	1	6
455.116	1	2
455.287	1	8
455.457	1	4
455.628	1	9
455.798	1	12
455.968	1	10
456.139	1	8
456.309	1	14
456.480	1	10
456.650	1	18
456.821	1	19
456.991	1	12
457.161	1	8
457.332	1	10
457.502	1	11
457.673	1	7
457.843	1	6
458.014	1	5
458.184	1	7
458.355	1	7
458.525	1	6
458.695	1	6
458.866	1	15
459.036	1	11
459.207	1	8
459.377	1	7
459.548	1	-1
459.718	1	7
459.888	1	10
460.059	1	15
460.229	1	13
460.400	1	1
460.570	1	13
460.740	1	7
460.911	1	18
461.081	1	18
461.252	1	11
461.422	1	3
461.593	1	12
461.763	1	16
461.933	1	14
462.104	1	15
462.274	1	9
462.445	1	6
462.615	1	4
462.785	1	3
462.956	1	10
463.126	1	8
463.297	1	8
463.467	1	8
463.638	1	11
463.808	1	9
463.978	1	17
464.149	1	-6
464.319	1	18
464.490	1	9
464.660	1	-2
464.830	1	0
465.001	1	10
465.171	1	7
465.342	1	4
465.512	1	7
465.682	1	6
465.853	1	-12
466.023	1	-4
466.194	1	7
466.364	1	10
466.534	1	8
466.705	1	1
466.875	1	6
467.045	1	3
467.216	1	5
467.386	1	11
467.557	1	14
467.727	1	17
467.897	1	4
468.068	1	1
468.238	1	10
468.409	1	-9
468.579	1	17
468.749	1	4
468.920	1	3
469.090	1	19
469.260	1	18
469.431	1	19
469.601	1	-3
469.772	1	-7
469.942	1	20
470.112	1	10
470.283	1	16
470.453	1	16
470.623	1	3
470.794	1	0
470.964	1	16
471.135	1	9
471.305	1	10
471.475	1	4
471.646	1	4
471.816	1	5
471.986	1	9
472.157	1	13
472.327	1	2
472.497	1	18
472.668	1	7
472.838	1	11
473.009	1	24
473.179	1	8
473.349	1	10
473.520	1	3
473.690	1	11
473.860	1	5
474.031	1	3
474.201	1	9
474.371	1	8
474.542	1	13
474.712	1	8
474.882	1	13
475.053	1	7
475.223	1	6
475.394	1	2
475.564	1	1
475.734	1	18
475.905	1	5
476.075	1	6
476.245	1	-3
476.416	1	-2
476.586	1	-2
476.756	1	1
476.927	1	2
477.097	1	9
477.267	1	13
477.438	1	16
477.608	1	2
477.778	1	6
477.949	1	2
478.119	1	19
478.289	1	-1
478.460	1	1
478.630	1	12
478.800	1	16
478.971	1	11
479.141	1	6
479.311	1	8
479.482	1	10
479.652	1	0
479.822	1	4
479.993	1	8
480.163	1	4
480.333	1	2
480.504	1	10
480.674	1	9
480.844	1	4
481.015	1	-4
481.185	1	-3
481.355	1	18
481.525	1	6
481.696	1	5
481.866	1	6
482.036	1	3
482.207	1	3
482.377	1	14
482.547	1	-5
482.718	1	2
482.888	1	10
483.058	1	10
483.229	1	3
483.399	1	14
483.569	1	16
483.740	1	8
483.910	1	-1
484.080	1	1
484.250	1	-3
484.421	1	1
484.591	1	5
484.761	1	8
484.932	1	6
485.102	1	8
485.272	1	7
485.443	1	15
485.613	1	10
485.783	1	7
485.953	1	8
486.124	1	10
486.294	1	4
486.464	1	3
486.635	1	10
486.805	1	-2
486.975	1	9
487.146	1	1
487.316	1	8
487.486	1	8
487.656	1	-2
487.827	1	3
487.997	1	3
488.167	1	14
488.338	1	-9
488.508	1	10
488.678	1	-3
488.848	1	5
489.019	1	2
489.189	1	12
489.359	1	7
489.529	1	3
489.700	1	8
489.870	1	-4
490.040	1	0
490.211	1	8
490.381	1	6
490.551	1	2
490.721	1	5
490.892	1	6
491.062	1	-9
491.232	1	-1
491.402	1	5
491.573	1	-3
491.743	1	9
491.913	1	-1
492.084	1	15
492.254	1	1
492.424	1	9
492.594	1	10
492.765	1	12
492.935	1	-6
493.105	1	10
493.275	1	-3
493.446	1	1
493.616	1	2
493.786	1	5
493.956	1	5
494.127	1	11
494.297	1	3
494.467	1	7
494.637	1	8
494.808	1	7
494.978	1	6
495.148	1	11
495.318	1	6
495.489	1	-5
495.659	1	-6
495.829	1	1
495.999	1	-1
496.170	1	6
496.340	1	12
496.510	1	10
496.680	1	-2
496.851	1	5
497.021	1	-3
497.191	1	3
497.361	1	-15
497.532	1	-1
497.702	1	10
497.872	1	17
498.042	1	8
498.213	1	0
498.383	1	13
498.553	1	10
498.723	1	2
498.894	1	-2
499.064	1	-1
499.234	1	9
499.404	1	-4
499.574	1	3
499.745	1	9
499.915	1	8
500.085	1	-9
500.255	1	3
500.426	1	13
500.596	1	4
500.766	1	0
500.936	1	9
501.106	1	-4
501.277	1	7
501.447	1	8
501.617	1	0
501.787	1	8
501.958	1	6
502.128	1	-2
502.298	1	4
502.468	1	13
502.638	1	4
502.809	1	0
502.979	1	7
503.149	1	1
503.319	1	17
503.489	1	5
503.660	1	-6
503.830	1	6
504.000	1	8
504.170	1	7
504.340	1	3
504.511	1	7
504.681	1	-6
504.851	1	12
505.021	1	7
505.192	1	4
505.362	1	-1
505.532	1	5
505.702	1	-4
505.872	1	1
506.043	1	9
506.213	1	12
506.383	1	-4
506.553	1	2
506.723	1	7
506.893	1	-10
507.064	1	-1
507.234	1	6
507.404	1	6
507.574	1	4
507.744	1	-3
507.915	1	12
508.085	1	9
508.255	1	6
508.425	1	3
508.595	1	-3
508.766	1	-5
508.936	1	6
509.106	1	7
509.276	1	5
509.446	1	-2
509.616	1	2
509.787	1	9
509.957	1	10
510.127	1	3
510.297	1	-1
510.467	1	-4
510.638	1	4
510.808	1	-7
510.978	1	5
511.148	1	21
511.318	1	-2
511.488	1	9
511.659	1	-4
511.829	1	7
511.999	1	1
512.169	1	-4
512.339	1	-1
512.509	1	4
512.680	1	6
512.850	1	-2
513.020	1	4
513.190	1	-3
513.360	1	-2
513.530	1	2
513.700	1	3
513.871	1	0
514.041	1	-3
514.211	1	9
514.381	1	10
514.551	1	-3
514.721	1	5
514.892	1	-5
515.062	1	4
515.232	1	-5
515.402	1	5
515.572	1	-10
515.742	1	7
515.912	1	-2
516.083	1	4
516.253	1	7
516.423	1	6
516.593	1	11
516.763	1	2
516.933	1	-20
517.104	1	-8
517.274	1	-5
517.444	1	1
517.614	1	-10
517.784	1	11
517.954	1	12
518.124	1	-5
518.294	1	7
518.465	1	15
518.635	1	3
518.805	1	21
518.975	1	4
519.145	1	10
519.315	1	-5
519.485	1	0
519.656	1	8
519.826	1	3
519.996	1	-1
520.166	1	11
520.336	1	9
520.506	1	2
520.676	1	3
520.846	1	-1
521.017	1	-2
521.187	1	10
521.357	1	-1
521.527	1	1
521.697	1	11
521.867	1	0
522.037	1	-4
522.207	1	-2
522.377	1	3
522.548	1	7
522.718	1	-3
522.888	1	8
523.058	1	7
523.228	1	11
523.398	1	6
523.568	1	2
523.738	1	3
523.909	1	-1
524.079	1	0
524.249	1	4
524.419	1	12
524.589	1	-5
524.759	1	3
524.929	1	1
525.099	1	2
525.269	1	3
525.439	1	2
525.610	1	6
525.780	1	5
525.950	1	2
526.120	1	2
526.290	1	-6
526.460	1	6
526.630	1	12
526.800	1	10
526.970	1	5
527.140	1	-10
527.311	1	0
527.481	1	14
527.651	1	0
527.821	1	-6
527.991	1	4
528.161	1	10
528.331	1	10
528.501	1	4
528.671	1	-5
528.841	1	10
529.011	1	3
529.181	1	8
529.352	1	-3
529.522	1	4
529.692	1	-7
529.862	1	5
530.032	1	9
530.202	1	1
530.372	1	10
530.542	1	-3
530.712	1	-3
530.882	1	-6
531.052	1	7
531.222	1	-5
531.392	1	0
531.563	1	-1
531.733	1	6
531.903	1	1
532.073	1	3
532.243	1	1
532.413	1	6
532.583	1	-3
532.753	1	3
532.923	1	19
533.093	1	6
533.263	1	-4
533.433	1	7
533.603	1	10
533.773	1	-6
533.943	1	0
534.113	1	2
534.284	1	6
534.454	1	-3
534.624	1	2
534.794	1	-4
534.964	1	2
535.134	1	9
535.304	1	-3
535.474	1	-3
535.644	1	-1
535.814	1	2
535.984	1	16
536.154	1	10
536.324	1	10
536.494	1	9
536.664	1	16
536.834	1	-5
537.004	1	5
537.174	1	-1
537.344	1	-6
537.514	1	-1
537.685	1	3
537.855	1	-9
538.025	1	-6
538.195	1	1
538.365	1	3
538.535	1	-7
538.705	1	13
538.875	1	11
539.045	1	10
539.215	1	-11
539.385	1	5
539.555	1	-1
539.725	1	5
539.895	1	8
540.065	1	4
540.235	1	-3
540.405	1	4
540.575	1	2
540.745	1	4
540.915	1	-1
541.085	1	-1
541.255	1	-1
541.425	1	15
541.595	1	11
541.765	1	21
541.935	1	-5
542.105	1	-3
542.275	1	0
542.445	1	-5
542.615	1	-4
542.785	1	-7
542.955	1	-3
543.125	1	-4
543.295	1	-2
543.465	1	5
543.635	1	8
543.805	1	5
543.975	1	-1
544.145	1	6
544.315	1	-7
544.485	1	5
544.655	1	1
544.825	1	0
544.995	1	7
545.165	1	4
545.335	1	-3
545.505	1	8
545.675	1	-6
545.845	1	7
546.015	1	-2
546.185	1	5
546.355	1	7
546.525	1	2
546.695	1	-4
546.865	1	9
547.035	1	5
547.205	1	11
547.375	1	2
547.545	1	14
547.715	1	15
547.885	1	10
548.055	1	-5
548.225	1	9
548.395	1	-11
548.565	1	-1
548.735	1	0
548.905	1	-9
549.075	1	8
549.245	1	4
549.415	1	-2
549.585	1	2
549.755	1	1
549.925	1	8
550.095	1	-7
550.265	1	7
550.435	1	-7
550.605	1	-1
550.775	1	-1
550.945	1	9
551.115	1	-4
551.285	1	3
551.455	1	3
551.625	1	-5
551.795	1	-4
551.965	1	14
552.135	1	1
552.305	1	-6
552.475	1	0
552.645	1	4
552.815	1	14
552.985	1	0
553.155	1	-5
553.325	1	9
553.495	1	5
553.665	1	8
553.835	1	1
554.004	1	-6
554.174	1	1
554.344	1	7
554.514	1	8
554.684	1	-8
554.854	1	-6
555.024	1	11
555.194	1	2
555.364	1	3
555.534	1	-8
555.704	1	11
555.874	1	-11
556.044	1	3
556.214	1	4
556.384	1	-5
556.554	1	6
556.724	1	9
556.894	1	-8
557.064	1	17
557.234	1	-10
557.404	1	12
557.573	1	-10
557.743	1	2
557.913	1	-7
558.083	1	5
558.253	1	-8
558.423	1	-6
558.593	1	11
558.763	1	6
558.933	1	-7
559.103	1	15
559.273	1	-1
559.443	1	4
559.613	1	2
559.783	1	10
559.953	1	16
560.122	1	-3
560.292	1	-1
560.462	1	-5
560.632	1	9
560.802	1	-3
560.972	1	6
561.142	1	9
561.312	1	14
561.482	1	15
561.652	1	2
561.822	1	-12
561.992	1	-7
562.162	1	11
562.331	1	5
562.501	1	-7
562.671	1	12
562.841	1	0
563.011	1	-8
563.181	1	10
563.351	1	5
563.521	1	5
563.691	1	0
563.861	1	1
564.031	1	-2
564.201	1	-1
564.370	1	1
564.540	1	-10
564.710	1	0
564.880	1	-4
565.050	1	0
565.220	1	-3
565.390	1	3
565.560	1	1
565.730	1	4
565.900	1	-9
566.069	1	-1
566.239	1	0
566.409	1	13
566.579	1	5
566.749	1	4
566.919	1	5
567.089	1	12
567.259	1	6
567.429	1	2
567.599	1	1
567.768	1	-1
567.938	1	-4
568.108	1	10
568.278	1	1
568.448	1	5
568.618	1	10
568.788	1	-4
568.958	1	-2
569.128	1	0
569.297	1	-3
569.467	1	6
569.637	1	9
569.807	1	-3
569.977	1	13
570.147	1	-2
570.317	1	9
570.487	1	4
570.656	1	6
570.826	1	-6
570.996	1	-2
571.166	1	-8
571.336	1	1
571.506	1	-5
571.676	1	-6
571.846	1	-5
572.015	1	11
572.185	1	9
572.355	1	0
572.525	1	-2
572.695	1	1
572.865	1	5
573.035	1	-8
573.205	1	-5
573.374	1	5
573.544	1	9
573.714	1	3
573.884	1	-2
574.054	1	-5
574.224	1	5
574.394	1	-14
574.563	1	9
574.733	1	1
574.903	1	-3
575.073	1	-7
575.243	1	3
575.413	1	1
575.583	1	5
575.752	1	0
575.922	1	-4
576.092	1	-4
576.262	1	1
576.432	1	6
576.602	1	-2
576.772	1	-2
576.941	1	13
577.111	1	6
577.281	1	17
577.451	1	-4
577.621	1	-7
577.791	1	7
577.960	1	1
578.130	1	11
578.300	1	7
578.470	1	4
578.640	1	5
578.810	1	-3
578.979	1	-6
579.149	1	-5
579.319	1	1
579.489	1	-4
579.659	1	-6
579.829	1	14
579.998	1	2
580.168	1	-1
580.338	1	-5
580.508	1	4
580.678	1	10
580.848	1	0
581.017	1	0
581.187	1	11
581.357	1	-3
581.527	1	-3
581.697	1	-13
581.867	1	14
582.036	1	7
582.206	1	-7
582.376	1	-1
582.546	1	19
582.716	1	-1
582.885	1	-3
583.055	1	2
583.225	1	-7
583.395	1	1
583.565	1	1
583.735	1	-3
583.904	1	4
584.074	1	-1
584.244	1	2
584.414	1	2
584.584	1	3
584.753	1	12
584.923	1	1
585.093	1	-8
585.263	1	1
585.433	1	17
585.602	1	-3
585.772	1	3
585.942	1	2
586.112	1	-1
586.282	1	-1
586.451	1	-6
586.621	1	-8
586.791	1	5
586.961	1	10
587.131	1	-6
587.300	1	4
587.470	1	1
587.640	1	-7
587.810	1	-4
587.980	1	-7
588.149	1	7
588.319	1	1
588.489	1	-3
588.659	1	2
588.829	1	-7
588.998	1	1
589.168	1	6
589.338	1	-3
589.508	1	9
589.677	1	-10
589.847	1	8
590.017	1	5
590.187	1	-5
590.357	1	4
590.526	1	5
590.696	1	-7
590.866	1	-11
591.036	1	-1
591.205	1	3
591.375	1	-3
591.545	1	7
591.715	1	-2
591.885	1	-7
592.054	1	0
592.224	1	-2
592.394	1	-3
592.564	1	-2
592.733	1	0
592.903	1	6
593.073	1	-7
593.243	1	0
593.412	1	-10
593.582	1	-1
593.752	1	8
593.922	1	6
594.091	1	-10
594.261	1	3
594.431	1	1
594.601	1	0
594.771	1	3
594.940	1	-5
595.110	1	2
595.280	1	6
595.450	1	4
595.619	1	-3
595.789	1	10
595.959	1	1
596.129	1	-5
596.298	1	5
596.468	1	-1
596.638	1	0
596.808	1	-3
596.977	1	1
597.147	1	6
597.317	1	0
597.487	1	3
597.656	1	2
597.826	1	-7
597.996	1	-1
598.166	1	4
598.335	1	-8
598.505	1	-8
598.675	1	5
598.844	1	-7
599.014	1	5
599.184	1	4
599.354	1	-1
599.523	1	1
599.693	1	4
599.863	1	1
600.033	1	-9
600.202	1	13
600.372	1	-2
600.542	1	1
600.712	1	8
600.881	1	14
601.051	1	9
601.221	1	5
601.390	1	5
601.560	1	5
601.730	1	6
601.900	1	9
602.069	1	-3
602.239	1	0
602.409	1	11
602.578	1	6
602.748	1	1
602.918	1	-1
603.088	1	14
603.257	1	5
603.427	1	4
603.597	1	4
603.767	1	4
603.936	1	3
604.106	1	4
604.276	1	2
604.445	1	-4
604.615	1	-1
604.785	1	-5
604.954	1	2
605.124	1	2
605.294	1	0
605.464	1	-2
605.633	1	11
605.803	1	7
605.973	1	5
606.142	1	5
606.312	1	6
606.482	1	-1
606.652	1	14
606.821	1	5
606.991	1	-5
607.161	1	4
607.330	1	-3
607.500	1	10
607.670	1	2
607.839	1	-10
608.009	1	2
608.179	1	-1
608.348	1	-2
608.518	1	2
608.688	1	11
608.858	1	-2
609.027	1	-3
609.197	1	3
609.367	1	-1
609.536	1	12
609.706	1	-1
609.876	1	0
610.045	1	3
610.215	1	6
610.385	1	-8
610.554	1	-1
610.724	1	8
610.894	1	-1
611.063	1	10
611.233	1	2
611.403	1	7
611.572	1	7
611.742	1	-3
611.912	1	3
612.081	1	2
612.251	1	15
612.421	1	4
612.590	1	-4
612.760	1	2
612.930	1	-5
613.099	1	2
613.269	1	0
613.439	1	3
613.608	1	2
613.778	1	-4
613.948	1	14
614.117	1	0
614.287	1	4
614.457	1	2
614.626	1	10
614.796	1	7
614.966	1	3
615.135	1	4
615.305	1	9
615.475	1	-8
615.644	1	6
615.814	1	-5
615.984	1	3
616.153	1	2
616.323	1	0
616.493	1	9
616.662	1	-2
616.832	1	1
617.002	1	5
617.171	1	3
617.341	1	2
617.511	1	-5
617.680	1	1
617.850	1	1
618.019	1	7
618.189	1	4
618.359	1	12
618.528	1	-6
618.698	1	7
618.868	1	0
619.037	1	6
619.207	1	4
619.377	1	1
619.546	1	-5
619.716	1	6
619.885	1	-6
620.055	1	11
620.225	1	12
620.394	1	-2
620.564	1	-7
620.734	1	10
620.903	1	12
621.073	1	-4
621.242	1	-3
621.412	1	7
621.582	1	-4
621.751	1	6
621.921	1	11
622.091	1	0
622.260	1	-5
622.430	1	9
622.599	1	10
622.769	1	-7
622.939	1	-5
623.108	1	2
623.278	1	18
623.448	1	7
623.617	1	4
623.787	1	16
623.956	1	5
624.126	1	1
624.296	1	-6
624.465	1	2
624.635	1	6
624.804	1	2
624.974	1	2
625.144	1	8
625.313	1	-3
625.483	1	3
625.652	1	15
625.822	1	1
625.992	1	8
626.161	1	1
626.331	1	-4
626.501	1	5
626.670	1	-4
626.840	1	9
627.009	1	5
627.179	1	-5
627.348	1	6
627.518	1	5
627.688	1	3
627.857	1	7
628.027	1	-1
628.196	1	0
628.366	1	1
628.536	1	9
628.705	1	-6
628.875	1	3
629.044	1	2
629.214	1	-9
629.384	1	5
629.553	1	8
629.723	1	-9
629.892	1	0
630.062	1	-9
630.232	1	3
630.401	1	-2
630.571	1	8
630.740	1	11
630.910	1	5
631.079	1	-5
631.249	1	10
631.419	1	13
631.588	1	2
631.758	1	-5
631.927	1	0
632.097	1	1
632.266	1	-11
632.436	1	1
632.606	1	-2
632.775	1	3
632.945	1	-8
633.114	1	-1
633.284	1	-7
633.453	1	15
633.623	1	11
633.793	1	-6
633.962	1	1
634.132	1	0
634.301	1	-6
634.471	1	-7
634.640	1	5
634.810	1	9
634.979	1	1
635.149	1	0
635.319	1	2
635.488	1	-6
635.658	1	8
635.827	1	-6
635.997	1	4
636.166	1	1
636.336	1	6
636.505	1	11
636.675	1	0
636.845	1	8
637.014	1	-1
637.184	1	13
637.353	1	-2
637.523	1	6
637.692	1	11
637.862	1	2
638.031	1	-10
638.201	1	-1
638.370	1	7
638.540	1	0
638.710	1	9
638.879	1	8
639.049	1	1
639.218	1	10
639.388	1	-1
639.557	1	7
639.727	1	10
639.896	1	-5
640.066	1	7
640.235	1	2
640.405	1	5
640.574	1	6
640.744	1	-2
640.914	1	1
641.083	1	-1
641.253	1	0
641.422	1	2
641.592	1	-3
641.761	1	1
641.931	1	8
642.100	1	7
642.270	1	-9
642.439	1	-4
642.609	1	15
642.778	1	-1
642.948	1	13
643.117	1	-1
643.287	1	2
643.456	1	0
643.626	1	1
643.795	1	2
643.965	1	2
644.134	1	6
644.304	1	14
644.473	1	-2
644.643	1	-3
644.812	1	4
644.982	1	0
645.151	1	2
645.321	1	8
645.490	1	-1
645.660	1	4
645.829	1	3
645.999	1	0
646.168	1	3
646.338	1	6
646.507	1	3
646.677	1	-2
646.846	1	2
647.016	1	-5
647.185	1	0
647.355	1	1
647.524	1	-1
647.694	1	-2
647.863	1	0
648.033	1	0
648.202	1	4
648.372	1	-5
648.541	1	-5
648.711	1	0
648.880	1	9
649.050	1	8
649.219	1	1
649.389	1	6
649.558	1	5
649.728	1	-1
649.897	1	3
650.067	1	6
650.236	1	-9
650.406	1	10
650.575	1	1
650.745	1	-2
650.914	1	-5
651.084	1	5
651.253	1	-2
651.423	1	7
651.592	1	-11
651.762	1	3
651.931	1	9
652.101	1	4
652.270	1	-3
652.440	1	0
652.609	1	14
652.778	1	3
652.948	1	6
653.117	1	7
653.287	1	-2
653.456	1	-2
653.626	1	5
653.795	1	0
653.965	1	-6
654.134	1	-12
654.304	1	3
654.473	1	5
654.643	1	1
654.812	1	14
654.982	1	8
655.151	1	-1
655.320	1	7
655.490	1	3
655.659	1	-5
655.829	1	4
655.998	1	-2
656.168	1	2
656.337	1	-9
656.507	1	-5
656.676	1	-2
656.846	1	8
657.015	1	2
657.184	1	-3
657.354	1	6
657.523	1	-4
657.693	1	-3
657.862	1	-6
658.032	1	5
658.201	1	4
658.371	1	-8
658.540	1	2
658.709	1	5
658.879	1	7
659.048	1	7
659.218	1	-10
659.387	1	5
659.557	1	-3
659.726	1	-8
659.895	1	-1
660.065	1	11
660.234	1	-5
660.404	1	-1
660.573	1	1
660.743	1	-4
660.912	1	-17
661.081	1	-7
661.251	1	14
661.420	1	4
661.590	1	-3
661.759	1	-1
661.929	1	0
662.098	1	7
662.267	1	5
662.437	1	3
662.606	1	6
662.776	1	-2
662.945	1	4
663.115	1	0
663.284	1	4
663.453	1	3
663.623	1	4
663.792	1	3
663.962	1	-5
664.131	1	0
664.300	1	-12
664.470	1	6
664.639	1	-1
664.809	1	6
664.978	1	2
665.148	1	0
665.317	1	5
665.486	1	8
665.656	1	10
665.825	1	11
665.995	1	0
666.164	1	9
666.333	1	-7
666.503	1	5
666.672	1	7
666.842	1	-11
667.011	1	-7
667.180	1	8
667.350	1	0
667.519	1	0
667.689	1	2
667.858	1	1
668.027	1	7
668.197	1	7
668.366	1	1
668.536	1	-8
668.705	1	4
668.874	1	2
669.044	1	0
669.213	1	2
669.382	1	12
669.552	1	-4
669.721	1	-2
669.891	1	1
670.060	1	5
670.229	1	-7
670.399	1	0
670.568	1	-6
670.738	1	4
670.907	1	6
671.076	1	10
671.246	1	-7
671.415	1	1
671.584	1	3
671.754	1	5
671.923	1	6
672.093	1	3
672.262	1	0
672.431	1	2
672.601	1	5
672.770	1	-2
672.939	1	-3
673.109	1	11
673.278	1	-3
673.448	1	0
673.617	1	9
673.786	1	11
