325.333	1	-3
325.504	1	4
325.675	1	2
325.846	1	-7
326.017	1	-8
326.188	1	9
326.359	1	7
326.531	1	-6
326.702	1	-1
326.873	1	-1
327.044	1	2
327.215	1	-4
327.386	1	-2
327.557	1	4
327.728	1	5
327.899	1	-8
328.070	1	5
328.241	1	-2
328.412	1	7
328.583	1	-7
328.754	1	1
328.926	1	6
329.097	1	6
329.268	1	-11
329.439	1	-1
329.610	1	-4
329.781	1	-4
329.952	1	12
330.123	1	9
330.294	1	10
330.465	1	0
330.636	1	2
330.807	1	9
330.978	1	-5
331.149	1	-1
331.320	1	2
331.492	1	-4
331.663	1	-2
331.834	1	11
332.005	1	0
332.176	1	3
332.347	1	8
332.518	1	9
332.689	1	-3
332.860	1	0
333.031	1	7
333.202	1	-3
333.373	1	2
333.544	1	-6
333.715	1	3
333.886	1	-10
334.057	1	-7
334.228	1	0
334.399	1	-5
334.570	1	-7
334.741	1	-7
334.912	1	-5
335.084	1	-1
335.255	1	-2
335.426	1	-3
335.597	1	0
335.768	1	2
335.939	1	1
336.110	1	0
336.281	1	-10
336.452	1	-5
336.623	1	8
336.794	1	-1
336.965	1	-3
337.136	1	-1
337.307	1	4
337.478	1	5
337.649	1	0
337.820	1	12
337.991	1	8
338.162	1	0
338.333	1	-9
338.504	1	3
338.675	1	1
338.846	1	2
339.017	1	5
339.188	1	7
339.359	1	-3
339.530	1	-12
339.701	1	-4
339.872	1	3
340.043	1	2
340.214	1	5
340.385	1	-3
340.556	1	9
340.727	1	-1
340.898	1	3
341.069	1	0
341.240	1	4
341.411	1	4
341.582	1	-3
341.753	1	-3
341.924	1	-4
342.095	1	5
342.266	1	-5
342.437	1	6
342.608	1	0
342.779	1	10
342.950	1	-1
343.121	1	2
343.292	1	7
343.463	1	-4
343.634	1	-6
343.805	1	7
343.976	1	3
344.147	1	-1
344.318	1	4
344.489	1	-12
344.660	1	15
344.831	1	-9
345.002	1	8
345.173	1	-2
345.344	1	0
345.515	1	-7
345.686	1	2
345.857	1	-4
346.028	1	-2
346.199	1	-4
346.370	1	-4
346.541	1	-4
346.712	1	-2
346.883	1	2
347.054	1	4
347.225	1	4
347.396	1	3
347.567	1	1
347.738	1	5
347.909	1	3
348.080	1	-1
348.251	1	9
348.422	1	1
348.593	1	4
348.764	1	-4
348.935	1	7
349.106	1	-4
349.277	1	-6
349.448	1	1
349.619	1	4
349.790	1	-2
349.961	1	2
350.132	1	-7
350.303	1	-8
350.474	1	2
350.645	1	-5
350.816	1	-7
350.987	1	-6
351.157	1	7
351.328	1	0
351.499	1	3
351.670	1	12
351.841	1	8
352.012	1	-6
352.183	1	3
352.354	1	0
352.525	1	2
352.696	1	-7
352.867	1	7
353.038	1	15
353.209	1	4
353.380	1	1
353.551	1	8
353.722	1	-1
353.893	1	2
354.064	1	-1
354.235	1	-1
354.406	1	-7
354.576	1	1
354.747	1	-11
354.918	1	-4
355.089	1	-1
355.260	1	-2
355.431	1	7
355.602	1	3
355.773	1	-1
355.944	1	-8
356.115	1	-9
356.286	1	1
356.457	1	-5
356.628	1	0
356.799	1	1
356.970	1	-3
357.141	1	-5
357.311	1	0
357.482	1	-2
357.653	1	3
357.824	1	-3
357.995	1	11
358.166	1	5
358.337	1	6
358.508	1	3
358.679	1	15
358.850	1	-1
359.021	1	-7
359.192	1	4
359.363	1	4
359.533	1	2
359.704	1	3
359.875	1	4
360.046	1	-9
360.217	1	18
360.388	1	3
360.559	1	8
360.730	1	-4
360.901	1	-1
361.072	1	6
361.243	1	13
361.414	1	11
361.584	1	6
361.755	1	11
361.926	1	16
362.097	1	2
362.268	1	16
362.439	1	9
362.610	1	7
362.781	1	9
362.952	1	4
363.123	1	13
363.293	1	13
363.464	1	17
363.635	1	7
363.806	1	13
363.977	1	7
364.148	1	3
364.319	1	10
364.490	1	7
364.661	1	11
364.832	1	8
365.002	1	21
365.173	1	7
365.344	1	8
365.515	1	12
365.686	1	12
365.857	1	17
366.028	1	15
366.199	1	14
366.370	1	8
366.540	1	21
366.711	1	18
366.882	1	16
367.053	1	17
367.224	1	12
367.395	1	11
367.566	1	14
367.737	1	7
367.908	1	13
368.078	1	18
368.249	1	11
368.420	1	13
368.591	1	17
368.762	1	-2
368.933	1	24
369.104	1	11
369.274	1	12
369.445	1	8
369.616	1	1
369.787	1	14
369.958	1	5
370.129	1	19
370.300	1	-2
370.471	1	13
370.641	1	8
370.812	1	0
370.983	1	6
371.154	1	4
371.325	1	7
371.496	1	-6
371.667	1	8
371.837	1	-6
372.008	1	3
372.179	1	2
372.350	1	0
372.521	1	5
372.692	1	9
372.863	1	6
373.033	1	3
373.204	1	2
373.375	1	9
373.546	1	6
373.717	1	0
373.888	1	-2
374.059	1	-1
374.229	1	-1
374.400	1	1
374.571	1	14
374.742	1	10
374.913	1	-4
375.084	1	-3
375.254	1	1
375.425	1	-6
375.596	1	-11
375.767	1	8
375.938	1	14
376.109	1	2
376.279	1	4
376.450	1	8
376.621	1	15
376.792	1	-4
376.963	1	0
377.134	1	3
377.304	1	6
377.475	1	8
377.646	1	0
377.817	1	9
377.988	1	3
378.159	1	6
378.329	1	0
378.500	1	0
378.671	1	0
378.842	1	-3
379.013	1	4
379.184	1	8
379.354	1	3
379.525	1	9
379.696	1	-1
379.867	1	8
380.038	1	6
380.209	1	11
380.379	1	2
380.550	1	3
380.721	1	13
380.892	1	8
381.063	1	2
381.233	1	13
381.404	1	5
381.575	1	8
381.746	1	5
381.917	1	1
382.087	1	5
382.258	1	13
382.429	1	17
382.600	1	14
382.771	1	16
382.941	1	10
383.112	1	14
383.283	1	10
383.454	1	13
383.625	1	9
383.795	1	25
383.966	1	18
384.137	1	14
384.308	1	27
384.479	1	24
384.649	1	19
384.820	1	16
384.991	1	19
385.162	1	20
385.333	1	25
385.503	1	17
385.674	1	19
385.845	1	20
386.016	1	19
386.187	1	31
386.357	1	22
386.528	1	29
386.699	1	32
386.870	1	33
387.041	1	16
387.211	1	25
387.382	1	20
387.553	1	18
387.724	1	18
387.894	1	25
388.065	1	26
388.236	1	27
388.407	1	24
388.578	1	15
388.748	1	25
388.919	1	24
389.090	1	28
389.261	1	5
389.431	1	30
389.602	1	26
389.773	1	21
389.944	1	19
390.114	1	28
390.285	1	26
390.456	1	26
390.627	1	15
390.798	1	40
390.968	1	16
391.139	1	22
391.310	1	32
391.481	1	15
391.651	1	27
391.822	1	32
391.993	1	23
392.164	1	17
392.334	1	26
392.505	1	12
392.676	1	19
392.847	1	27
393.017	1	17
393.188	1	19
393.359	1	19
393.530	1	21
393.700	1	33
393.871	1	18
394.042	1	17
394.213	1	14
394.383	1	22
394.554	1	18
394.725	1	9
394.896	1	20
395.066	1	16
395.237	1	33
395.408	1	21
395.579	1	29
395.749	1	30
395.920	1	17
396.091	1	24
396.262	1	17
396.432	1	17
396.603	1	24
396.774	1	16
396.945	1	31
397.115	1	33
397.286	1	34
397.457	1	26
397.627	1	18
397.798	1	5
397.969	1	8
398.140	1	21
398.310	1	27
398.481	1	16
398.652	1	34
398.823	1	38
398.993	1	14
399.164	1	39
399.335	1	16
399.505	1	27
399.676	1	32
399.847	1	13
400.018	1	17
400.188	1	19
400.359	1	18
400.530	1	21
400.700	1	15
400.871	1	10
401.042	1	17
401.213	1	12
401.383	1	29
401.554	1	16
401.725	1	14
401.895	1	23
402.066	1	18
402.237	1	16
402.408	1	10
402.578	1	23
402.749	1	13
402.920	1	2
403.090	1	19
403.261	1	18
403.432	1	19
403.603	1	8
403.773	1	20
403.944	1	16
404.115	1	-3
404.285	1	19
404.456	1	13
404.627	1	19
404.797	1	25
404.968	1	13
405.139	1	13
405.310	1	4
405.480	1	21
405.651	1	21
405.822	1	21
405.992	1	14
406.163	1	12
406.334	1	20
406.504	1	9
406.675	1	26
406.846	1	1
407.016	1	14
407.187	1	11
407.358	1	9
407.528	1	25
407.699	1	21
407.870	1	23
408.041	1	16
408.211	1	15
408.382	1	15
408.553	1	17
408.723	1	10
408.894	1	10
409.065	1	29
409.235	1	1
409.406	1	20
409.577	1	13
409.747	1	8
409.918	1	17
410.089	1	8
410.259	1	11
410.430	1	21
410.601	1	9
410.771	1	11
410.942	1	20
411.113	1	8
411.283	1	4
411.454	1	10
411.625	1	10
411.795	1	15
411.966	1	7
412.137	1	10
412.307	1	9
412.478	1	19
412.649	1	2
412.819	1	20
412.990	1	14
413.161	1	6
413.331	1	-3
413.502	1	14
413.672	1	10
413.843	1	8
414.014	1	9
414.184	1	-8
414.355	1	6
414.526	1	7
414.696	1	9
414.867	1	3
415.038	1	16
415.208	1	5
415.379	1	14
415.550	1	9
415.720	1	11
415.891	1	25
416.062	1	5
416.232	1	7
416.403	1	17
416.573	1	12
416.744	1	8
416.915	1	8
417.085	1	8
417.256	1	12
417.427	1	3
417.597	1	-8
417.768	1	11
417.939	1	5
418.109	1	13
418.280	1	10
418.450	1	0
418.621	1	13
418.792	1	-2
418.962	1	3
419.133	1	7
419.304	1	10
419.474	1	-5
419.645	1	18
419.815	1	9
419.986	1	16
420.157	1	8
420.327	1	17
420.498	1	16
420.669	1	15
420.839	1	4
421.010	1	18
421.180	1	-3
421.351	1	14
421.522	1	10
421.692	1	12
421.863	1	0
422.033	1	4
422.204	1	-3
422.375	1	2
422.545	1	13
422.716	1	5
422.886	1	13
423.057	1	8
423.228	1	-3
423.398	1	9
423.569	1	10
423.740	1	-1
423.910	1	-6
424.081	1	9
424.251	1	4
424.422	1	8
424.593	1	7
424.763	1	3
424.934	1	1
425.104	1	12
425.275	1	-3
425.445	1	4
425.616	1	8
425.787	1	-2
425.957	1	19
426.128	1	3
426.298	1	3
426.469	1	4
426.640	1	2
426.810	1	13
426.981	1	-8
427.151	1	17
427.322	1	5
427.493	1	3
427.663	1	0
427.834	1	0
428.004	1	13
428.175	1	-6
428.345	1	16
428.516	1	9
428.687	1	0
428.857	1	2
429.028	1	6
429.198	1	2
429.369	1	0
429.540	1	19
429.710	1	3
429.881	1	18
430.051	1	14
430.222	1	0
430.392	1	2
430.563	1	20
430.734	1	9
430.904	1	-5
431.075	1	2
431.245	1	9
431.416	1	1
431.586	1	3
431.757	1	9
431.927	1	7
432.098	1	-5
432.269	1	-4
432.439	1	0
432.610	1	5
432.780	1	3
432.951	1	6
433.121	1	-2
433.292	1	6
433.462	1	6
433.633	1	5
433.804	1	-11
433.974	1	-8
434.145	1	8
434.315	1	9
434.486	1	10
434.656	1	4
434.827	1	-5
434.997	1	12
435.168	1	3
435.339	1	10
435.509	1	1
435.680	1	-10
435.850	1	9
436.021	1	5
436.191	1	5
436.362	1	9
436.532	1	9
436.703	1	2
436.873	1	-8
437.044	1	0
437.214	1	7
437.385	1	-3
437.556	1	-4
437.726	1	-4
437.897	1	4
438.067	1	4
438.238	1	0
438.408	1	0
438.579	1	7
438.749	1	9
438.920	1	4
439.090	1	11
439.261	1	0
439.431	1	-3
439.602	1	3
439.772	1	11
439.943	1	3
440.113	1	4
440.284	1	14
440.455	1	-5
440.625	1	7
440.796	1	-3
440.966	1	18
441.137	1	-8
441.307	1	4
441.478	1	-3
441.648	1	-6
441.819	1	5
441.989	1	-4
442.160	1	-2
442.330	1	7
442.501	1	4
442.671	1	4
442.842	1	3
443.012	1	-1
443.183	1	-7
443.353	1	4
443.524	1	4
443.694	1	8
443.865	1	4
444.035	1	0
444.206	1	4
444.376	1	8
444.547	1	2
444.717	1	12
444.888	1	-3
445.058	1	5
445.229	1	-3
445.399	1	9
445.570	1	8
445.740	1	6
445.911	1	14
446.081	1	0
446.252	1	-9
446.422	1	2
446.593	1	3
446.763	1	9
446.934	1	1
447.104	1	-3
447.275	1	-4
447.445	1	6
447.616	1	-3
447.786	1	3
447.957	1	1
448.127	1	2
448.298	1	8
448.468	1	1
448.639	1	0
448.809	1	3
448.979	1	5
449.150	1	1
449.320	1	3
449.491	1	-5
449.661	1	5
449.832	1	-4
450.002	1	-2
450.173	1	-10
450.343	1	1
450.514	1	8
450.684	1	7
450.855	1	14
451.025	1	8
451.196	1	-5
451.366	1	4
451.537	1	-3
451.707	1	4
451.878	1	-3
452.048	1	7
452.218	1	3
452.389	1	-2
452.559	1	-10
452.730	1	5
452.900	1	5
453.071	1	4
453.241	1	-7
453.412	1	-2
453.582	1	11
453.753	1	-4
453.923	1	1
454.093	1	-3
454.264	1	-7
454.434	1	2
454.605	1	5
454.775	1	10
454.946	1	2
455.116	1	0
455.287	1	6
455.457	1	0
455.628	1	-2
455.798	1	-6
455.968	1	13
456.139	1	9
456.309	1	4
456.480	1	-5
456.650	1	4
456.821	1	6
456.991	1	8
457.161	1	8
457.332	1	8
457.502	1	0
457.673	1	-3
457.843	1	-1
458.014	1	1
458.184	1	5
458.355	1	10
458.525	1	1
458.695	1	8
458.866	1	3
459.036	1	11
459.207	1	0
459.377	1	-5
459.548	1	-3
459.718	1	-3
459.888	1	14
460.059	1	1
460.229	1	4
460.400	1	3
460.570	1	-4
460.740	1	-9
460.911	1	15
461.081	1	-6
461.252	1	2
461.422	1	6
461.593	1	0
461.763	1	11
461.933	1	5
462.104	1	0
462.274	1	5
462.445	1	-2
462.615	1	-9
462.785	1	-2
462.956	1	-9
463.126	1	4
463.297	1	4
463.467	1	3
463.638	1	8
463.808	1	6
463.978	1	1
464.149	1	-13
464.319	1	-1
464.490	1	-1
464.660	1	5
464.830	1	-1
465.001	1	12
465.171	1	8
465.342	1	7
465.512	1	4
465.682	1	7
465.853	1	-3
466.023	1	9
466.194	1	-8
466.364	1	4
466.534	1	5
466.705	1	-2
466.875	1	7
467.045	1	7
467.216	1	-2
467.386	1	-5
467.557	1	7
467.727	1	6
467.897	1	17
468.068	1	3
468.238	1	-5
468.409	1	-2
468.579	1	13
468.749	1	1
468.920	1	-4
469.090	1	12
469.260	1	3
469.431	1	11
469.601	1	6
469.772	1	-17
469.942	1	6
470.112	1	-2
470.283	1	4
470.453	1	-2
470.623	1	7
470.794	1	5
470.964	1	7
471.135	1	-10
471.305	1	-3
471.475	1	-4
471.646	1	2
471.816	1	-8
471.986	1	6
472.157	1	8
472.327	1	1
472.497	1	-6
472.668	1	-2
472.838	1	3
473.009	1	6
473.179	1	7
473.349	1	8
473.520	1	5
473.690	1	10
473.860	1	13
474.031	1	5
474.201	1	0
474.371	1	5
474.542	1	-5
474.712	1	6
474.882	1	-1
475.053	1	-9
475.223	1	1
475.394	1	3
475.564	1	29
475.734	1	3
475.905	1	2
476.075	1	0
476.245	1	-1
476.416	1	-6
476.586	1	1
476.756	1	5
476.927	1	14
477.097	1	-2
477.267	1	-4
477.438	1	-1
477.608	1	12
477.778	1	8
477.949	1	2
478.119	1	5
478.289	1	-9
478.460	1	-1
478.630	1	0
478.800	1	-2
478.971	1	-3
479.141	1	11
479.311	1	0
479.482	1	-1
479.652	1	2
479.822	1	4
479.993	1	-4
480.163	1	-14
480.333	1	-6
480.504	1	-6
480.674	1	8
480.844	1	13
481.015	1	-9
481.185	1	4
481.355	1	9
481.525	1	-3
481.696	1	11
481.866	1	-3
482.036	1	2
482.207	1	7
482.377	1	1
482.547	1	-1
482.718	1	14
482.888	1	-7
483.058	1	3
483.229	1	3
483.399	1	2
483.569	1	3
483.740	1	-7
483.910	1	9
484.080	1	4
484.250	1	15
484.421	1	-8
484.591	1	3
484.761	1	-9
484.932	1	1
485.102	1	5
485.272	1	10
485.443	1	7
485.613	1	-13
485.783	1	10
485.953	1	4
486.124	1	9
486.294	1	4
486.464	1	1
486.635	1	14
486.805	1	17
486.975	1	-17
487.146	1	5
487.316	1	11
487.486	1	6
487.656	1	-2
487.827	1	5
487.997	1	2
488.167	1	2
488.338	1	6
488.508	1	6
488.678	1	10
488.848	1	-4
489.019	1	-2
489.189	1	-5
489.359	1	2
489.529	1	0
489.700	1	6
489.870	1	-1
490.040	1	2
490.211	1	17
490.381	1	-1
490.551	1	-3
490.721	1	3
490.892	1	13
491.062	1	12
491.232	1	8
491.402	1	-9
491.573	1	9
491.743	1	-3
491.913	1	11
492.084	1	3
492.254	1	-1
492.424	1	-2
492.594	1	6
492.765	1	5
492.935	1	-3
493.105	1	12
493.275	1	7
493.446	1	-2
493.616	1	9
493.786	1	2
493.956	1	2
494.127	1	0
494.297	1	12
494.467	1	6
494.637	1	-3
494.808	1	7
494.978	1	5
495.148	1	11
495.318	1	18
495.489	1	-1
495.659	1	9
495.829	1	8
495.999	1	8
496.170	1	-2
496.340	1	1
496.510	1	7
496.680	1	5
496.851	1	7
497.021	1	3
497.191	1	1
497.361	1	6
497.532	1	10
497.702	1	-4
497.872	1	9
498.042	1	4
498.213	1	13
498.383	1	-4
498.553	1	7
498.723	1	8
498.894	1	8
499.064	1	8
499.234	1	-10
499.404	1	1
499.574	1	-2
499.745	1	-2
499.915	1	12
500.085	1	-3
500.255	1	-4
500.426	1	2
500.596	1	7
500.766	1	3
500.936	1	0
501.106	1	-4
501.277	1	7
501.447	1	9
501.617	1	8
501.787	1	-1
501.958	1	1
502.128	1	1
502.298	1	11
502.468	1	13
502.638	1	11
502.809	1	6
502.979	1	3
503.149	1	8
503.319	1	16
503.489	1	8
503.660	1	11
503.830	1	5
504.000	1	-3
504.170	1	3
504.340	1	3
504.511	1	9
504.681	1	9
504.851	1	14
505.021	1	1
505.192	1	2
505.362	1	3
505.532	1	3
505.702	1	13
505.872	1	-2
506.043	1	9
506.213	1	5
506.383	1	13
506.553	1	15
506.723	1	6
506.893	1	9
507.064	1	-2
507.234	1	8
507.404	1	11
507.574	1	11
507.744	1	-4
507.915	1	12
508.085	1	2
508.255	1	10
508.425	1	11
508.595	1	12
508.766	1	2
508.936	1	8
509.106	1	0
509.276	1	6
509.446	1	4
509.616	1	8
509.787	1	7
509.957	1	7
510.127	1	19
510.297	1	2
510.467	1	1
510.638	1	4
510.808	1	5
510.978	1	-5
511.148	1	18
511.318	1	7
511.488	1	9
511.659	1	2
511.829	1	2
511.999	1	18
512.169	1	8
512.339	1	12
512.509	1	11
512.680	1	4
512.850	1	8
513.020	1	15
513.190	1	7
513.360	1	14
513.530	1	-5
513.700	1	10
513.871	1	20
514.041	1	3
514.211	1	2
514.381	1	16
514.551	1	8
514.721	1	16
514.892	1	7
515.062	1	11
515.232	1	13
515.402	1	5
515.572	1	11
515.742	1	13
515.912	1	16
516.083	1	13
516.253	1	9
516.423	1	19
516.593	1	5
516.763	1	10
516.933	1	9
517.104	1	15
517.274	1	12
517.444	1	15
517.614	1	5
517.784	1	0
517.954	1	6
518.124	1	20
518.294	1	6
518.465	1	8
518.635	1	12
518.805	1	12
518.975	1	14
519.145	1	16
519.315	1	4
519.485	1	-6
519.656	1	14
519.826	1	15
519.996	1	12
520.166	1	11
520.336	1	16
520.506	1	10
520.676	1	5
520.846	1	7
521.017	1	2
521.187	1	11
521.357	1	-1
521.527	1	16
521.697	1	16
521.867	1	17
522.037	1	4
522.207	1	14
522.377	1	16
522.548	1	1
522.718	1	6
522.888	1	12
523.058	1	27
523.228	1	14
523.398	1	16
523.568	1	12
523.738	1	19
523.909	1	21
524.079	1	10
524.249	1	15
524.419	1	15
524.589	1	10
524.759	1	5
524.929	1	10
525.099	1	12
525.269	1	23
525.439	1	8
525.610	1	18
525.780	1	7
525.950	1	7
526.120	1	0
526.290	1	8
526.460	1	10
526.630	1	10
526.800	1	14
526.970	1	8
527.140	1	11
527.311	1	17
527.481	1	17
527.651	1	24
527.821	1	8
527.991	1	5
528.161	1	10
528.331	1	13
528.501	1	0
528.671	1	10
528.841	1	5
529.011	1	11
529.181	1	16
529.352	1	17
529.522	1	14
529.692	1	19
529.862	1	16
530.032	1	9
530.202	1	19
530.372	1	4
530.542	1	15
530.712	1	20
530.882	1	3
531.052	1	9
531.222	1	-3
531.392	1	5
531.563	1	16
531.733	1	23
531.903	1	18
532.073	1	13
532.243	1	9
532.413	1	17
532.583	1	17
532.753	1	17
532.923	1	15
533.093	1	10
533.263	1	16
533.433	1	12
533.603	1	12
533.773	1	11
533.943	1	10
534.113	1	11
534.284	1	13
534.454	1	6
534.624	1	16
534.794	1	11
534.964	1	5
535.134	1	12
535.304	1	26
535.474	1	13
535.644	1	22
535.814	1	16
535.984	1	9
536.154	1	5
536.324	1	14
536.494	1	26
536.664	1	7
536.834	1	18
537.004	1	19
537.174	1	15
537.344	1	20
537.514	1	18
537.685	1	7
537.855	1	18
538.025	1	19
538.195	1	17
538.365	1	20
538.535	1	14
538.705	1	0
538.875	1	17
539.045	1	17
539.215	1	7
539.385	1	2
539.555	1	14
539.725	1	14
539.895	1	11
540.065	1	3
540.235	1	-8
540.405	1	9
540.575	1	26
540.745	1	7
540.915	1	9
541.085	1	5
541.255	1	5
541.425	1	9
541.595	1	15
541.765	1	2
541.935	1	16
542.105	1	16
542.275	1	9
542.445	1	11
542.615	1	11
542.785	1	15
542.955	1	11
543.125	1	3
543.295	1	14
543.465	1	19
543.635	1	11
543.805	1	16
543.975	1	12
544.145	1	10
544.315	1	8
544.485	1	10
544.655	1	13
544.825	1	16
544.995	1	12
545.165	1	15
545.335	1	21
545.505	1	5
545.675	1	10
545.845	1	9
546.015	1	15
546.185	1	11
546.355	1	19
546.525	1	11
546.695	1	-3
546.865	1	2
547.035	1	15
547.205	1	6
547.375	1	15
547.545	1	10
547.715	1	16
547.885	1	5
548.055	1	14
548.225	1	0
548.395	1	7
548.565	1	17
548.735	1	9
548.905	1	0
549.075	1	8
549.245	1	13
549.415	1	20
549.585	1	15
549.755	1	-2
549.925	1	16
550.095	1	15
550.265	1	-7
550.435	1	13
550.605	1	6
550.775	1	7
550.945	1	13
551.115	1	3
551.285	1	6
551.455	1	9
551.625	1	-1
551.795	1	12
551.965	1	6
552.135	1	14
552.305	1	6
552.475	1	3
552.645	1	16
552.815	1	10
552.985	1	8
553.155	1	16
553.325	1	14
553.495	1	11
553.665	1	13
553.835	1	10
554.004	1	13
554.174	1	9
554.344	1	2
554.514	1	15
554.684	1	5
554.854	1	10
555.024	1	15
555.194	1	21
555.364	1	18
555.534	1	5
555.704	1	13
555.874	1	2
556.044	1	15
556.214	1	-3
556.384	1	15
556.554	1	-2
556.724	1	3
556.894	1	16
557.064	1	9
557.234	1	1
557.404	1	5
557.573	1	6
557.743	1	11
557.913	1	3
558.083	1	-4
558.253	1	1
558.423	1	-4
558.593	1	1
558.763	1	0
558.933	1	13
559.103	1	3
559.273	1	7
559.443	1	5
559.613	1	12
559.783	1	13
559.953	1	5
560.122	1	10
560.292	1	8
560.462	1	12
560.632	1	7
560.802	1	12
560.972	1	6
561.142	1	5
561.312	1	2
561.482	1	3
561.652	1	15
561.822	1	8
561.992	1	8
562.162	1	4
562.331	1	5
562.501	1	11
562.671	1	5
562.841	1	1
563.011	1	16
563.181	1	22
563.351	1	-1
563.521	1	11
563.691	1	13
563.861	1	10
564.031	1	-3
564.201	1	14
564.370	1	12
564.540	1	12
564.710	1	-2
564.880	1	4
565.050	1	3
565.220	1	12
565.390	1	-3
565.560	1	14
565.730	1	10
565.900	1	8
566.069	1	15
566.239	1	2
566.409	1	5
566.579	1	0
566.749	1	4
566.919	1	16
567.089	1	5
567.259	1	17
567.429	1	5
567.599	1	8
567.768	1	19
567.938	1	9
568.108	1	0
568.278	1	-1
568.448	1	-3
568.618	1	5
568.788	1	1
568.958	1	10
569.128	1	12
569.297	1	13
569.467	1	4
569.637	1	6
569.807	1	-1
569.977	1	8
570.147	1	5
570.317	1	16
570.487	1	8
570.656	1	5
570.826	1	6
570.996	1	0
571.166	1	0
571.336	1	4
571.506	1	9
571.676	1	11
571.846	1	19
572.015	1	-6
572.185	1	-2
572.355	1	18
572.525	1	4
572.695	1	3
572.865	1	8
573.035	1	12
573.205	1	14
573.374	1	6
573.544	1	4
573.714	1	15
573.884	1	5
574.054	1	4
574.224	1	-2
574.394	1	1
574.563	1	11
574.733	1	4
574.903	1	5
575.073	1	0
575.243	1	-2
575.413	1	8
575.583	1	10
575.752	1	-3
575.922	1	7
576.092	1	9
576.262	1	5
576.432	1	-4
576.602	1	4
576.772	1	5
576.941	1	9
577.111	1	7
577.281	1	-2
577.451	1	3
577.621	1	7
577.791	1	14
577.960	1	1
578.130	1	-5
578.300	1	0
578.470	1	1
578.640	1	-6
578.810	1	7
578.979	1	7
579.149	1	0
579.319	1	8
579.489	1	6
579.659	1	5
579.829	1	3
579.998	1	0
580.168	1	14
580.338	1	-6
580.508	1	4
580.678	1	-2
580.848	1	-1
581.017	1	10
581.187	1	6
581.357	1	6
581.527	1	14
581.697	1	-5
581.867	1	0
582.036	1	8
582.206	1	-6
582.376	1	-1
582.546	1	12
582.716	1	16
582.885	1	-1
583.055	1	2
583.225	1	-1
583.395	1	22
583.565	1	10
583.735	1	-2
583.904	1	8
584.074	1	5
584.244	1	-2
584.414	1	6
584.584	1	14
584.753	1	12
584.923	1	2
585.093	1	8
585.263	1	2
585.433	1	3
585.602	1	-1
585.772	1	-2
585.942	1	4
586.112	1	4
586.282	1	4
586.451	1	3
586.621	1	4
586.791	1	1
586.961	1	-1
587.131	1	1
587.300	1	3
587.470	1	0
587.640	1	-2
587.810	1	7
587.980	1	9
588.149	1	5
588.319	1	4
588.489	1	8
588.659	1	-4
588.829	1	12
588.998	1	2
589.168	1	4
589.338	1	16
589.508	1	1
589.677	1	1
589.847	1	2
590.017	1	-12
590.187	1	-1
590.357	1	5
590.526	1	8
590.696	1	-1
590.866	1	-3
591.036	1	9
591.205	1	13
591.375	1	-8
591.545	1	-4
591.715	1	-6
591.885	1	10
592.054	1	5
592.224	1	2
592.394	1	8
592.564	1	2
592.733	1	5
592.903	1	-2
593.073	1	0
593.243	1	-7
593.412	1	8
593.582	1	11
593.752	1	1
593.922	1	-3
594.091	1	9
594.261	1	8
594.431	1	9
594.601	1	-9
594.771	1	9
594.940	1	-5
595.110	1	5
595.280	1	-3
595.450	1	2
595.619	1	-2
595.789	1	7
595.959	1	5
596.129	1	-1
596.298	1	4
596.468	1	4
596.638	1	9
596.808	1	11
596.977	1	2
597.147	1	5
597.317	1	6
597.487	1	2
597.656	1	0
597.826	1	0
597.996	1	2
598.166	1	4
598.335	1	12
598.505	1	1
598.675	1	3
598.844	1	-4
599.014	1	-1
599.184	1	-4
599.354	1	-7
599.523	1	3
599.693	1	10
599.863	1	8
600.033	1	4
600.202	1	1
600.372	1	-3
600.542	1	-2
600.712	1	5
600.881	1	1
601.051	1	8
601.221	1	-5
601.390	1	-11
601.560	1	8
601.730	1	9
601.900	1	6
602.069	1	0
602.239	1	-3
602.409	1	0
602.578	1	2
602.748	1	-6
602.918	1	-4
603.088	1	17
603.257	1	8
603.427	1	7
603.597	1	25
603.767	1	-5
603.936	1	4
604.106	1	1
604.276	1	8
604.445	1	3
604.615	1	5
604.785	1	3
604.954	1	6
605.124	1	-4
605.294	1	6
605.464	1	0
605.633	1	3
605.803	1	4
605.973	1	-4
606.142	1	4
606.312	1	-1
606.482	1	7
606.652	1	-4
606.821	1	9
606.991	1	7
607.161	1	3
607.330	1	20
607.500	1	4
607.670	1	1
607.839	1	-1
608.009	1	-10
608.179	1	2
608.348	1	-4
608.518	1	3
608.688	1	8
608.858	1	4
609.027	1	8
609.197	1	-1
609.367	1	-7
609.536	1	1
609.706	1	-5
609.876	1	-4
610.045	1	-2
610.215	1	-10
610.385	1	8
610.554	1	1
610.724	1	8
610.894	1	5
611.063	1	13
611.233	1	-4
611.403	1	3
611.572	1	4
611.742	1	-2
611.912	1	1
612.081	1	7
612.251	1	7
612.421	1	15
612.590	1	-10
612.760	1	11
612.930	1	9
613.099	1	-8
613.269	1	-6
613.439	1	-5
613.608	1	10
613.778	1	-3
613.948	1	7
614.117	1	11
614.287	1	1
614.457	1	4
614.626	1	8
614.796	1	7
614.966	1	9
615.135	1	-8
615.305	1	1
615.475	1	4
615.644	1	-3
615.814	1	0
615.984	1	13
616.153	1	8
616.323	1	7
616.493	1	2
616.662	1	-2
616.832	1	-2
617.002	1	-3
617.171	1	5
617.341	1	4
617.511	1	1
617.680	1	-2
617.850	1	6
618.019	1	1
618.189	1	-5
618.359	1	3
618.528	1	-7
618.698	1	-1
618.868	1	12
619.037	1	7
619.207	1	-4
619.377	1	-8
619.546	1	4
619.716	1	-7
619.885	1	3
620.055	1	5
620.225	1	5
620.394	1	4
620.564	1	-1
620.734	1	7
620.903	1	3
621.073	1	-6
621.242	1	-5
621.412	1	8
621.582	1	5
621.751	1	0
621.921	1	9
622.091	1	-3
622.260	1	-1
622.430	1	-3
622.599	1	8
622.769	1	-7
622.939	1	-1
623.108	1	-5
623.278	1	0
623.448	1	-1
623.617	1	11
623.787	1	4
623.956	1	5
624.126	1	3
624.296	1	2
624.465	1	4
624.635	1	12
624.804	1	-8
624.974	1	-3
625.144	1	4
625.313	1	6
625.483	1	6
625.652	1	5
625.822	1	0
625.992	1	-6
626.161	1	1
626.331	1	11
626.501	1	7
626.670	1	8
626.840	1	10
627.009	1	-7
627.179	1	-2
627.348	1	6
627.518	1	2
627.688	1	0
627.857	1	5
628.027	1	6
628.196	1	12
628.366	1	9
628.536	1	5
628.705	1	-2
628.875	1	3
629.044	1	3
629.214	1	3
629.384	1	-7
629.553	1	4
629.723	1	7
629.892	1	0
630.062	1	7
630.232	1	8
630.401	1	1
630.571	1	5
630.740	1	6
630.910	1	3
631.079	1	12
631.249	1	1
631.419	1	8
631.588	1	-2
631.758	1	5
631.927	1	0
632.097	1	13
632.266	1	-4
632.436	1	-3
632.606	1	0
632.775	1	-3
632.945	1	-4
633.114	1	5
633.284	1	-13
633.453	1	-3
633.623	1	-6
633.793	1	-5
633.962	1	15
634.132	1	6
634.301	1	0
634.471	1	-7
634.640	1	-8
634.810	1	1
634.979	1	3
635.149	1	2
635.319	1	4
635.488	1	2
635.658	1	-3
635.827	1	1
635.997	1	9
636.166	1	-5
636.336	1	11
636.505	1	-4
636.675	1	-4
636.845	1	9
637.014	1	5
637.184	1	-8
637.353	1	4
637.523	1	-6
637.692	1	1
637.862	1	-5
638.031	1	10
638.201	1	7
638.370	1	7
638.540	1	7
638.710	1	5
638.879	1	0
639.049	1	7
639.218	1	3
639.388	1	5
639.557	1	10
639.727	1	0
639.896	1	-1
640.066	1	7
640.235	1	7
640.405	1	-2
640.574	1	0
640.744	1	-1
640.914	1	-4
641.083	1	2
641.253	1	-5
641.422	1	2
641.592	1	-4
641.761	1	1
641.931	1	2
642.100	1	-2
642.270	1	3
642.439	1	0
642.609	1	2
642.778	1	-6
642.948	1	14
643.117	1	0
643.287	1	5
643.456	1	15
643.626	1	4
643.795	1	8
643.965	1	-1
644.134	1	8
644.304	1	0
644.473	1	28
644.643	1	2
644.812	1	4
644.982	1	13
645.151	1	-5
645.321	1	6
645.490	1	7
645.660	1	-1
645.829	1	-9
645.999	1	-2
646.168	1	-3
646.338	1	8
646.507	1	-1
646.677	1	4
646.846	1	6
647.016	1	3
647.185	1	-10
647.355	1	3
647.524	1	5
647.694	1	-14
647.863	1	-7
648.033	1	-6
648.202	1	7
648.372	1	11
648.541	1	3
648.711	1	5
648.880	1	-9
649.050	1	0
649.219	1	4
649.389	1	-2
649.558	1	-5
649.728	1	2
649.897	1	1
650.067	1	3
650.236	1	9
650.406	1	1
650.575	1	2
650.745	1	-7
650.914	1	-3
651.084	1	-2
651.253	1	4
651.423	1	5
651.592	1	2
651.762	1	3
651.931	1	-3
652.101	1	6
652.270	1	9
652.440	1	5
652.609	1	1
652.778	1	0
652.948	1	-13
653.117	1	-3
653.287	1	9
653.456	1	1
653.626	1	13
653.795	1	14
653.965	1	15
654.134	1	7
654.304	1	5
654.473	1	8
654.643	1	13
654.812	1	-7
654.982	1	-7
655.151	1	-14
655.320	1	-3
655.490	1	4
655.659	1	-2
655.829	1	0
655.998	1	4
656.168	1	0
656.337	1	2
656.507	1	14
656.676	1	2
656.846	1	-12
657.015	1	6
657.184	1	2
657.354	1	13
657.523	1	0
657.693	1	11
657.862	1	-2
658.032	1	14
658.201	1	1
658.371	1	-2
658.540	1	-5
658.709	1	-4
658.879	1	3
659.048	1	1
659.218	1	0
659.387	1	4
659.557	1	5
659.726	1	5
659.895	1	-3
660.065	1	6
660.234	1	0
660.404	1	8
660.573	1	-11
660.743	1	1
660.912	1	-1
661.081	1	1
661.251	1	3
661.420	1	-6
661.590	1	3
661.759	1	6
661.929	1	1
662.098	1	-10
662.267	1	10
662.437	1	2
662.606	1	1
662.776	1	2
662.945	1	12
663.115	1	-6
663.284	1	-7
663.453	1	-3
663.623	1	6
663.792	1	-2
663.962	1	-4
664.131	1	-4
664.300	1	3
664.470	1	-4
664.639	1	-2
664.809	1	4
664.978	1	-4
665.148	1	-5
665.317	1	-4
665.486	1	7
665.656	1	-6
665.825	1	7
665.995	1	11
666.164	1	-1
666.333	1	5
666.503	1	-1
666.672	1	-6
666.842	1	0
667.011	1	7
667.180	1	-1
667.350	1	8
667.519	1	0
667.689	1	3
667.858	1	9
668.027	1	-8
668.197	1	10
668.366	1	-1
668.536	1	-5
668.705	1	4
668.874	1	-2
669.044	1	-6
669.213	1	-1
669.382	1	-1
669.552	1	1
669.721	1	-6
669.891	1	2
670.060	1	3
670.229	1	11
670.399	1	5
670.568	1	4
670.738	1	-1
670.907	1	-3
671.076	1	8
671.246	1	5
671.415	1	-4
671.584	1	-4
671.754	1	-9
671.923	1	-4
672.093	1	9
672.262	1	6
672.431	1	0
672.601	1	-7
672.770	1	0
672.939	1	-4
673.109	1	0
673.278	1	13
673.448	1	3
673.617	1	7
673.786	1	-5
