325.333	1	5
325.504	1	4
325.675	1	0
325.846	1	-7
326.017	1	2
326.188	1	4
326.359	1	-3
326.531	1	-2
326.702	1	4
326.873	1	1
327.044	1	-2
327.215	1	-8
327.386	1	-4
327.557	1	-7
327.728	1	-2
327.899	1	-8
328.070	1	3
328.241	1	-7
328.412	1	6
328.583	1	-1
328.754	1	-6
328.926	1	2
329.097	1	10
329.268	1	-2
329.439	1	-7
329.610	1	-7
329.781	1	-7
329.952	1	14
330.123	1	4
330.294	1	10
330.465	1	-6
330.636	1	-2
330.807	1	-3
330.978	1	3
331.149	1	8
331.320	1	9
331.492	1	-10
331.663	1	-10
331.834	1	7
332.005	1	4
332.176	1	-2
332.347	1	-2
332.518	1	7
332.689	1	0
332.860	1	1
333.031	1	-3
333.202	1	-1
333.373	1	2
333.544	1	-4
333.715	1	-4
333.886	1	-1
334.057	1	-13
334.228	1	-5
334.399	1	9
334.570	1	-4
334.741	1	-9
334.912	1	-9
335.084	1	-5
335.255	1	2
335.426	1	0
335.597	1	0
335.768	1	-1
335.939	1	-5
336.110	1	-7
336.281	1	-5
336.452	1	2
336.623	1	6
336.794	1	-6
336.965	1	-4
337.136	1	-7
337.307	1	7
337.478	1	0
337.649	1	4
337.820	1	10
337.991	1	1
338.162	1	2
338.333	1	4
338.504	1	1
338.675	1	2
338.846	1	0
339.017	1	-8
339.188	1	2
339.359	1	-3
339.530	1	-1
339.701	1	0
339.872	1	2
340.043	1	-2
340.214	1	-2
340.385	1	2
340.556	1	5
340.727	1	-2
340.898	1	-2
341.069	1	-12
341.240	1	-4
341.411	1	6
341.582	1	-5
341.753	1	-5
341.924	1	-7
342.095	1	-2
342.266	1	-16
342.437	1	2
342.608	1	4
342.779	1	-7
342.950	1	5
343.121	1	0
343.292	1	-6
343.463	1	-4
343.634	1	0
343.805	1	2
343.976	1	6
344.147	1	-5
344.318	1	1
344.489	1	-15
344.660	1	13
344.831	1	-4
345.002	1	1
345.173	1	-9
345.344	1	-4
345.515	1	-6
345.686	1	0
345.857	1	-9
346.028	1	-10
346.199	1	0
346.370	1	0
346.541	1	-12
346.712	1	3
346.883	1	-2
347.054	1	-6
347.225	1	-8
347.396	1	-5
347.567	1	1
347.738	1	2
347.909	1	4
348.080	1	-1
348.251	1	3
348.422	1	0
348.593	1	-3
348.764	1	1
348.935	1	4
349.106	1	3
349.277	1	-12
349.448	1	-9
349.619	1	-1
349.790	1	-6
349.961	1	1
350.132	1	-8
350.303	1	-9
350.474	1	0
350.645	1	0
350.816	1	-8
350.987	1	-2
351.157	1	2
351.328	1	-3
351.499	1	-2
351.670	1	12
351.841	1	-1
352.012	1	-14
352.183	1	-9
352.354	1	-2
352.525	1	0
352.696	1	-7
352.867	1	3
353.038	1	8
353.209	1	10
353.380	1	5
353.551	1	3
353.722	1	-1
353.893	1	-3
354.064	1	-3
354.235	1	5
354.406	1	0
354.576	1	6
354.747	1	-7
354.918	1	-13
355.089	1	2
355.260	1	-6
355.431	1	-2
355.602	1	5
355.773	1	-14
355.944	1	4
356.115	1	-3
356.286	1	3
356.457	1	-2
356.628	1	-8
356.799	1	3
356.970	1	-6
357.141	1	-11
357.311	1	-5
357.482	1	-1
357.653	1	-1
357.824	1	-15
357.995	1	-9
358.166	1	7
358.337	1	1
358.508	1	-10
358.679	1	1
358.850	1	7
359.021	1	-10
359.192	1	1
359.363	1	0
359.533	1	2
359.704	1	-4
359.875	1	-2
360.046	1	-4
360.217	1	13
360.388	1	0
360.559	1	4
360.730	1	-3
360.901	1	0
361.072	1	-3
361.243	1	11
361.414	1	0
361.584	1	3
361.755	1	6
361.926	1	5
362.097	1	-1
362.268	1	-6
362.439	1	1
362.610	1	-8
362.781	1	5
362.952	1	4
363.123	1	8
363.293	1	-7
363.464	1	11
363.635	1	1
363.806	1	8
363.977	1	-2
364.148	1	3
364.319	1	-4
364.490	1	-5
364.661	1	5
364.832	1	7
365.002	1	2
365.173	1	6
365.344	1	-1
365.515	1	3
365.686	1	-1
365.857	1	8
366.028	1	8
366.199	1	0
366.370	1	9
366.540	1	7
366.711	1	11
366.882	1	-3
367.053	1	5
367.224	1	10
367.395	1	11
367.566	1	-1
367.737	1	-6
367.908	1	7
368.078	1	7
368.249	1	-3
368.420	1	-7
368.591	1	19
368.762	1	-3
368.933	1	1
369.104	1	10
369.274	1	2
369.445	1	-7
369.616	1	-7
369.787	1	4
369.958	1	3
370.129	1	5
370.300	1	-3
370.471	1	0
370.641	1	5
370.812	1	-2
370.983	1	3
371.154	1	2
371.325	1	5
371.496	1	-5
371.667	1	-2
371.837	1	-10
372.008	1	2
372.179	1	10
372.350	1	-5
372.521	1	-3
372.692	1	0
372.863	1	0
373.033	1	-5
373.204	1	5
373.375	1	0
373.546	1	-7
373.717	1	1
373.888	1	-6
374.059	1	3
374.229	1	-9
374.400	1	6
374.571	1	0
374.742	1	9
374.913	1	-14
375.084	1	-11
375.254	1	1
375.425	1	2
375.596	1	-13
375.767	1	0
375.938	1	4
376.109	1	-4
376.279	1	-7
376.450	1	-8
376.621	1	6
376.792	1	-5
376.963	1	0
377.134	1	-9
377.304	1	8
377.475	1	-1
377.646	1	3
377.817	1	6
377.988	1	3
378.159	1	3
378.329	1	3
378.500	1	-12
378.671	1	-4
378.842	1	-8
379.013	1	1
379.184	1	6
379.354	1	3
379.525	1	8
379.696	1	-8
379.867	1	5
380.038	1	5
380.209	1	10
380.379	1	-1
380.550	1	-3
380.721	1	7
380.892	1	-4
381.063	1	9
381.233	1	3
381.404	1	-5
381.575	1	-4
381.746	1	8
381.917	1	-10
382.087	1	0
382.258	1	10
382.429	1	13
382.600	1	5
382.771	1	4
382.941	1	-2
383.112	1	1
383.283	1	-4
383.454	1	4
383.625	1	3
383.795	1	7
383.966	1	-6
384.137	1	6
384.308	1	10
384.479	1	15
384.649	1	7
384.820	1	-2
384.991	1	3
385.162	1	5
385.333	1	8
385.503	1	0
385.674	1	5
385.845	1	11
386.016	1	8
386.187	1	14
386.357	1	-1
386.528	1	9
386.699	1	13
386.870	1	22
387.041	1	-3
387.211	1	8
387.382	1	16
387.553	1	6
387.724	1	3
387.894	1	9
388.065	1	11
388.236	1	6
388.407	1	11
388.578	1	11
388.748	1	17
388.919	1	-3
389.090	1	14
389.261	1	-7
389.431	1	10
389.602	1	3
389.773	1	0
389.944	1	7
390.114	1	10
390.285	1	7
390.456	1	0
390.627	1	1
390.798	1	10
390.968	1	1
391.139	1	-2
391.310	1	6
391.481	1	8
391.651	1	6
391.822	1	15
391.993	1	11
392.164	1	8
392.334	1	11
392.505	1	1
392.676	1	6
392.847	1	7
393.017	1	-9
393.188	1	8
393.359	1	4
393.530	1	6
393.700	1	13
393.871	1	2
394.042	1	10
394.213	1	-1
394.383	1	5
394.554	1	8
394.725	1	7
394.896	1	5
395.066	1	8
395.237	1	12
395.408	1	2
395.579	1	6
395.749	1	17
395.920	1	-1
396.091	1	10
396.262	1	8
396.432	1	6
396.603	1	10
396.774	1	-8
396.945	1	11
397.115	1	13
397.286	1	21
397.457	1	0
397.627	1	4
397.798	1	-2
397.969	1	9
398.140	1	6
398.310	1	19
398.481	1	-5
398.652	1	9
398.823	1	24
398.993	1	1
399.164	1	12
399.335	1	0
399.505	1	8
399.676	1	4
399.847	1	1
400.018	1	18
400.188	1	7
400.359	1	-1
400.530	1	15
400.700	1	4
400.871	1	-4
401.042	1	-2
401.213	1	3
401.383	1	10
401.554	1	5
401.725	1	1
401.895	1	12
402.066	1	5
402.237	1	5
402.408	1	5
402.578	1	6
402.749	1	0
402.920	1	-4
403.090	1	3
403.261	1	4
403.432	1	-4
403.603	1	4
403.773	1	2
403.944	1	7
404.115	1	-12
404.285	1	0
404.456	1	5
404.627	1	7
404.797	1	19
404.968	1	0
405.139	1	-4
405.310	1	-1
405.480	1	6
405.651	1	2
405.822	1	7
405.992	1	5
406.163	1	8
406.334	1	7
406.504	1	7
406.675	1	8
406.846	1	1
407.016	1	-3
407.187	1	7
407.358	1	-2
407.528	1	10
407.699	1	7
407.870	1	3
408.041	1	-4
408.211	1	3
408.382	1	8
408.553	1	10
408.723	1	6
408.894	1	1
409.065	1	6
409.235	1	1
409.406	1	6
409.577	1	3
409.747	1	-3
409.918	1	-1
410.089	1	13
410.259	1	-5
410.430	1	10
410.601	1	-1
410.771	1	9
410.942	1	11
411.113	1	-4
411.283	1	7
411.454	1	-5
411.625	1	7
411.795	1	13
411.966	1	-5
412.137	1	3
412.307	1	2
412.478	1	9
412.649	1	7
412.819	1	9
412.990	1	2
413.161	1	6
413.331	1	-11
413.502	1	17
413.672	1	11
413.843	1	5
414.014	1	9
414.184	1	-10
414.355	1	-6
414.526	1	-2
414.696	1	8
414.867	1	12
415.038	1	3
415.208	1	-11
415.379	1	6
415.550	1	-1
415.720	1	9
415.891	1	1
416.062	1	13
416.232	1	4
416.403	1	2
416.573	1	13
416.744	1	8
416.915	1	-3
417.085	1	-3
417.256	1	0
417.427	1	5
417.597	1	-5
417.768	1	-2
417.939	1	3
418.109	1	11
418.280	1	-3
418.450	1	0
418.621	1	-2
418.792	1	-1
418.962	1	1
419.133	1	-5
419.304	1	3
419.474	1	-3
419.645	1	15
419.815	1	2
419.986	1	13
420.157	1	13
420.327	1	5
420.498	1	2
420.669	1	5
420.839	1	4
421.010	1	7
421.180	1	7
421.351	1	3
421.522	1	9
421.692	1	-5
421.863	1	-5
422.033	1	2
422.204	1	-17
422.375	1	5
422.545	1	3
422.716	1	1
422.886	1	-4
423.057	1	1
423.228	1	-7
423.398	1	3
423.569	1	-2
423.740	1	-4
423.910	1	-7
424.081	1	1
424.251	1	0
424.422	1	8
424.593	1	4
424.763	1	4
424.934	1	-5
425.104	1	6
425.275	1	-6
425.445	1	-5
425.616	1	11
425.787	1	-7
425.957	1	11
426.128	1	-4
426.298	1	3
426.469	1	-2
426.640	1	6
426.810	1	4
426.981	1	-5
427.151	1	-1
427.322	1	-3
427.493	1	-1
427.663	1	-3
427.834	1	-5
428.004	1	6
428.175	1	5
428.345	1	14
428.516	1	-7
428.687	1	4
428.857	1	-1
429.028	1	-8
429.198	1	-2
429.369	1	5
429.540	1	3
429.710	1	-2
429.881	1	8
430.051	1	8
430.222	1	-4
430.392	1	-7
430.563	1	-2
430.734	1	2
430.904	1	-4
431.075	1	2
431.245	1	2
431.416	1	8
431.586	1	4
431.757	1	4
431.927	1	-3
432.098	1	-4
432.269	1	-6
432.439	1	-12
432.610	1	4
432.780	1	2
432.951	1	-1
433.121	1	6
433.292	1	2
433.462	1	9
433.633	1	-11
433.804	1	-5
433.974	1	-6
434.145	1	0
434.315	1	1
434.486	1	9
434.656	1	1
434.827	1	-4
434.997	1	3
435.168	1	-4
435.339	1	-2
435.509	1	4
435.680	1	-5
435.850	1	-1
436.021	1	5
436.191	1	-3
436.362	1	5
436.532	1	5
436.703	1	0
436.873	1	0
437.044	1	8
437.214	1	2
437.385	1	-9
437.556	1	-7
437.726	1	-5
437.897	1	0
438.067	1	11
438.238	1	-7
438.408	1	2
438.579	1	9
438.749	1	13
438.920	1	-4
439.090	1	6
439.261	1	-1
439.431	1	-1
439.602	1	5
439.772	1	5
439.943	1	7
440.113	1	-1
440.284	1	8
440.455	1	-11
440.625	1	-7
440.796	1	0
440.966	1	8
441.137	1	-10
441.307	1	5
441.478	1	-3
441.648	1	-9
441.819	1	0
441.989	1	-2
442.160	1	2
442.330	1	2
442.501	1	-4
442.671	1	3
442.842	1	1
443.012	1	2
443.183	1	-13
443.353	1	7
443.524	1	1
443.694	1	6
443.865	1	11
444.035	1	-6
444.206	1	12
444.376	1	3
444.547	1	-11
444.717	1	6
444.888	1	-4
445.058	1	0
445.229	1	-6
445.399	1	3
445.570	1	8
445.740	1	-2
445.911	1	7
446.081	1	1
446.252	1	-13
446.422	1	-9
446.593	1	-5
446.763	1	6
446.934	1	-2
447.104	1	-3
447.275	1	1
447.445	1	0
447.616	1	-1
447.786	1	-1
447.957	1	-1
448.127	1	-2
448.298	1	-1
448.468	1	-7
448.639	1	-9
448.809	1	4
448.979	1	-3
449.150	1	-5
449.320	1	-1
449.491	1	-4
449.661	1	3
449.832	1	0
450.002	1	-3
450.173	1	2
450.343	1	-6
450.514	1	0
450.684	1	2
450.855	1	3
451.025	1	-2
451.196	1	-3
451.366	1	8
451.537	1	0
451.707	1	7
451.878	1	-1
452.048	1	-7
452.218	1	4
452.389	1	-3
452.559	1	-4
452.730	1	0
452.900	1	0
453.071	1	8
453.241	1	6
453.412	1	-1
453.582	1	13
453.753	1	-8
453.923	1	0
454.093	1	-4
454.264	1	-2
454.434	1	7
454.605	1	6
454.775	1	12
454.946	1	-4
455.116	1	-1
455.287	1	7
455.457	1	-1
455.628	1	-4
455.798	1	-7
455.968	1	0
456.139	1	-4
456.309	1	-5
456.480	1	-8
456.650	1	2
456.821	1	0
456.991	1	12
457.161	1	1
457.332	1	0
457.502	1	4
457.673	1	3
457.843	1	6
458.014	1	-7
458.184	1	0
458.355	1	1
458.525	1	-3
458.695	1	8
458.866	1	-3
459.036	1	6
459.207	1	2
459.377	1	-5
459.548	1	-9
459.718	1	0
459.888	1	8
460.059	1	2
460.229	1	0
460.400	1	6
460.570	1	-10
460.740	1	-10
460.911	1	3
461.081	1	-3
461.252	1	-5
461.422	1	-2
461.593	1	-3
461.763	1	4
461.933	1	-5
462.104	1	0
462.274	1	4
462.445	1	-14
462.615	1	-6
462.785	1	-1
462.956	1	-3
463.126	1	4
463.297	1	-4
463.467	1	8
463.638	1	0
463.808	1	9
463.978	1	10
464.149	1	-1
464.319	1	-10
464.490	1	-8
464.660	1	-2
464.830	1	-1
465.001	1	2
465.171	1	-1
465.342	1	6
465.512	1	9
465.682	1	-8
465.853	1	-3
466.023	1	1
466.194	1	-9
466.364	1	-2
466.534	1	-3
466.705	1	1
466.875	1	0
467.045	1	5
467.216	1	-8
467.386	1	2
467.557	1	7
467.727	1	-7
467.897	1	5
468.068	1	3
468.238	1	0
468.409	1	6
468.579	1	15
468.749	1	-4
468.920	1	1
469.090	1	4
469.260	1	-4
469.431	1	3
469.601	1	4
469.772	1	-8
469.942	1	-2
470.112	1	-2
470.283	1	6
470.453	1	-7
470.623	1	-2
470.794	1	2
470.964	1	-3
471.135	1	-8
471.305	1	2
471.475	1	-3
471.646	1	9
471.816	1	-4
471.986	1	-1
472.157	1	3
472.327	1	0
472.497	1	-9
472.668	1	0
472.838	1	1
473.009	1	-1
473.179	1	3
473.349	1	-1
473.520	1	8
473.690	1	1
473.860	1	-3
474.031	1	0
474.201	1	0
474.371	1	4
474.542	1	3
474.712	1	-1
474.882	1	1
475.053	1	-11
475.223	1	1
475.394	1	7
475.564	1	8
475.734	1	-3
475.905	1	0
476.075	1	1
476.245	1	-1
476.416	1	-4
476.586	1	1
476.756	1	-7
476.927	1	-7
477.097	1	-9
477.267	1	-8
477.438	1	0
477.608	1	12
477.778	1	13
477.949	1	-9
478.119	1	-4
478.289	1	-3
478.460	1	-1
478.630	1	-2
478.800	1	-9
478.971	1	2
479.141	1	13
479.311	1	-8
479.482	1	0
479.652	1	4
479.822	1	1
479.993	1	5
480.163	1	-9
480.333	1	-7
480.504	1	-2
480.674	1	12
480.844	1	10
481.015	1	-6
481.185	1	7
481.355	1	0
481.525	1	5
481.696	1	1
481.866	1	0
482.036	1	-1
482.207	1	12
482.377	1	2
482.547	1	-4
482.718	1	2
482.888	1	-10
483.058	1	-1
483.229	1	-3
483.399	1	-4
483.569	1	1
483.740	1	-14
483.910	1	-5
484.080	1	-7
484.250	1	-1
484.421	1	-2
484.591	1	9
484.761	1	-5
484.932	1	4
485.102	1	3
485.272	1	1
485.443	1	0
485.613	1	-17
485.783	1	-1
485.953	1	-6
486.124	1	5
486.294	1	3
486.464	1	-6
486.635	1	3
486.805	1	8
486.975	1	-10
487.146	1	-3
487.316	1	-1
487.486	1	-1
487.656	1	-3
487.827	1	-5
487.997	1	6
488.167	1	-2
488.338	1	4
488.508	1	3
488.678	1	5
488.848	1	-8
489.019	1	5
489.189	1	-6
489.359	1	-4
489.529	1	-8
489.700	1	6
489.870	1	-6
490.040	1	-3
490.211	1	9
490.381	1	-3
490.551	1	-2
490.721	1	0
490.892	1	4
491.062	1	8
491.232	1	6
491.402	1	-11
491.573	1	4
491.743	1	-15
491.913	1	-3
492.084	1	7
492.254	1	2
492.424	1	-5
492.594	1	1
492.765	1	4
492.935	1	-12
493.105	1	9
493.275	1	7
493.446	1	-2
493.616	1	4
493.786	1	-1
493.956	1	-2
494.127	1	1
494.297	1	2
494.467	1	1
494.637	1	-4
494.808	1	-3
494.978	1	5
495.148	1	-1
495.318	1	15
495.489	1	-5
495.659	1	9
495.829	1	8
495.999	1	-2
496.170	1	3
496.340	1	-8
496.510	1	4
496.680	1	2
496.851	1	7
497.021	1	4
497.191	1	10
497.361	1	-4
497.532	1	-2
497.702	1	-11
497.872	1	4
498.042	1	-2
498.213	1	1
498.383	1	-11
498.553	1	0
498.723	1	0
498.894	1	-1
499.064	1	5
499.234	1	0
499.404	1	5
499.574	1	-9
499.745	1	4
499.915	1	0
500.085	1	-16
500.255	1	4
500.426	1	7
500.596	1	-8
500.766	1	4
500.936	1	-4
501.106	1	-5
501.277	1	-2
501.447	1	4
501.617	1	4
501.787	1	-3
501.958	1	-11
502.128	1	-5
502.298	1	18
502.468	1	9
502.638	1	5
502.809	1	0
502.979	1	-4
503.149	1	-2
503.319	1	4
503.489	1	1
503.660	1	-2
503.830	1	-6
504.000	1	-7
504.170	1	0
504.340	1	-6
504.511	1	2
504.681	1	2
504.851	1	-8
505.021	1	0
505.192	1	12
505.362	1	3
505.532	1	8
505.702	1	2
505.872	1	-7
506.043	1	-8
506.213	1	7
506.383	1	1
506.553	1	9
506.723	1	3
506.893	1	2
507.064	1	1
507.234	1	6
507.404	1	-4
507.574	1	2
507.744	1	-14
507.915	1	7
508.085	1	8
508.255	1	13
508.425	1	4
508.595	1	3
508.766	1	-4
508.936	1	-2
509.106	1	-4
509.276	1	1
509.446	1	0
509.616	1	6
509.787	1	-4
509.957	1	-2
510.127	1	5
510.297	1	-2
510.467	1	-4
510.638	1	1
510.808	1	-6
510.978	1	-11
511.148	1	3
511.318	1	4
511.488	1	10
511.659	1	-1
511.829	1	0
511.999	1	10
512.169	1	3
512.339	1	-2
512.509	1	7
512.680	1	7
512.850	1	-7
513.020	1	9
513.190	1	-7
513.360	1	-1
513.530	1	2
513.700	1	8
513.871	1	2
514.041	1	-3
514.211	1	-2
514.381	1	0
514.551	1	10
514.721	1	9
514.892	1	3
515.062	1	3
515.232	1	12
515.402	1	-4
515.572	1	-3
515.742	1	8
515.912	1	8
516.083	1	1
516.253	1	0
516.423	1	3
516.593	1	-4
516.763	1	4
516.933	1	0
517.104	1	6
517.274	1	3
517.444	1	-2
517.614	1	7
517.784	1	-4
517.954	1	-6
518.124	1	7
518.294	1	-3
518.465	1	8
518.635	1	5
518.805	1	-1
518.975	1	19
519.145	1	7
519.315	1	0
519.485	1	-15
519.656	1	9
519.826	1	6
519.996	1	18
520.166	1	0
520.336	1	7
520.506	1	11
520.676	1	-9
520.846	1	-8
521.017	1	-5
521.187	1	-6
521.357	1	2
521.527	1	0
521.697	1	2
521.867	1	6
522.037	1	-3
522.207	1	1
522.377	1	9
522.548	1	-10
522.718	1	4
522.888	1	2
523.058	1	16
523.228	1	11
523.398	1	-1
523.568	1	-5
523.738	1	-6
523.909	1	11
524.079	1	4
524.249	1	6
524.419	1	-10
524.589	1	5
524.759	1	4
524.929	1	8
525.099	1	-5
525.269	1	5
525.439	1	0
525.610	1	-2
525.780	1	8
525.950	1	-7
526.120	1	3
526.290	1	-7
526.460	1	5
526.630	1	7
526.800	1	3
526.970	1	0
527.140	1	1
527.311	1	4
527.481	1	20
527.651	1	13
527.821	1	1
527.991	1	-11
528.161	1	4
528.331	1	-1
528.501	1	-13
528.671	1	5
528.841	1	11
529.011	1	-1
529.181	1	0
529.352	1	6
529.522	1	6
529.692	1	11
529.862	1	5
530.032	1	-5
530.202	1	-1
530.372	1	-2
530.542	1	8
530.712	1	22
530.882	1	4
531.052	1	10
531.222	1	-8
531.392	1	-5
531.563	1	5
531.733	1	-3
531.903	1	17
532.073	1	-3
532.243	1	-2
532.413	1	3
532.583	1	2
532.753	1	-4
532.923	1	0
533.093	1	5
533.263	1	0
533.433	1	-1
533.603	1	6
533.773	1	-6
533.943	1	5
534.113	1	0
534.284	1	7
534.454	1	7
534.624	1	12
534.794	1	1
534.964	1	-2
535.134	1	-4
535.304	1	7
535.474	1	6
535.644	1	14
535.814	1	5
535.984	1	3
536.154	1	-8
536.324	1	6
536.494	1	4
536.664	1	15
536.834	1	11
537.004	1	17
537.174	1	5
537.344	1	-2
537.514	1	4
537.685	1	8
537.855	1	3
538.025	1	12
538.195	1	4
538.365	1	10
538.535	1	9
538.705	1	1
538.875	1	2
539.045	1	2
539.215	1	-11
539.385	1	6
539.555	1	-5
539.725	1	12
539.895	1	11
540.065	1	-1
540.235	1	-8
540.405	1	-1
540.575	1	2
540.745	1	1
540.915	1	10
541.085	1	-8
541.255	1	1
541.425	1	-6
541.595	1	11
541.765	1	-6
541.935	1	6
542.105	1	5
542.275	1	6
542.445	1	10
542.615	1	-2
542.785	1	3
542.955	1	12
543.125	1	-6
543.295	1	9
543.465	1	11
543.635	1	11
543.805	1	-2
543.975	1	3
544.145	1	3
544.315	1	-6
544.485	1	4
544.655	1	1
544.825	1	4
544.995	1	6
545.165	1	10
545.335	1	2
545.505	1	1
545.675	1	-3
545.845	1	1
546.015	1	12
546.185	1	-6
546.355	1	8
546.525	1	5
546.695	1	0
546.865	1	-5
547.035	1	2
547.205	1	-3
547.375	1	6
547.545	1	11
547.715	1	3
547.885	1	2
548.055	1	0
548.225	1	0
548.395	1	0
548.565	1	9
548.735	1	5
548.905	1	1
549.075	1	-9
549.245	1	4
549.415	1	-11
549.585	1	1
549.755	1	-6
549.925	1	3
550.095	1	10
550.265	1	-3
550.435	1	8
550.605	1	5
550.775	1	-1
550.945	1	12
551.115	1	-7
551.285	1	6
551.455	1	4
551.625	1	-7
551.795	1	-1
551.965	1	2
552.135	1	8
552.305	1	-1
552.475	1	4
552.645	1	9
552.815	1	5
552.985	1	8
553.155	1	7
553.325	1	8
553.495	1	-1
553.665	1	3
553.835	1	0
554.004	1	0
554.174	1	-10
554.344	1	5
554.514	1	10
554.684	1	12
554.854	1	7
555.024	1	0
555.194	1	10
555.364	1	9
555.534	1	7
555.704	1	-6
555.874	1	-3
556.044	1	9
556.214	1	7
556.384	1	5
556.554	1	-9
556.724	1	-9
556.894	1	3
557.064	1	3
557.234	1	2
557.404	1	-9
557.573	1	-3
557.743	1	5
557.913	1	6
558.083	1	-13
558.253	1	-6
558.423	1	-11
558.593	1	2
558.763	1	-9
558.933	1	7
559.103	1	0
559.273	1	5
559.443	1	-3
559.613	1	2
559.783	1	5
559.953	1	-8
560.122	1	-10
560.292	1	5
560.462	1	-3
560.632	1	10
560.802	1	-3
560.972	1	11
561.142	1	8
561.312	1	-5
561.482	1	8
561.652	1	-1
561.822	1	1
561.992	1	1
562.162	1	9
562.331	1	-6
562.501	1	-8
562.671	1	1
562.841	1	-7
563.011	1	-2
563.181	1	6
563.351	1	-9
563.521	1	-1
563.691	1	8
563.861	1	8
564.031	1	1
564.201	1	0
564.370	1	9
564.540	1	10
564.710	1	-7
564.880	1	-3
565.050	1	0
565.220	1	2
565.390	1	-3
565.560	1	13
565.730	1	13
565.900	1	5
566.069	1	4
566.239	1	-4
566.409	1	0
566.579	1	0
566.749	1	1
566.919	1	9
567.089	1	6
567.259	1	11
567.429	1	-10
567.599	1	-2
567.768	1	-1
567.938	1	-5
568.108	1	-2
568.278	1	-13
568.448	1	-9
568.618	1	9
568.788	1	6
568.958	1	0
569.128	1	-7
569.297	1	0
569.467	1	3
569.637	1	-4
569.807	1	-6
569.977	1	10
570.147	1	-8
570.317	1	9
570.487	1	11
570.656	1	0
570.826	1	1
570.996	1	-1
571.166	1	-13
571.336	1	6
571.506	1	-2
571.676	1	-1
571.846	1	10
572.015	1	-6
572.185	1	-9
572.355	1	16
572.525	1	0
572.695	1	10
572.865	1	1
573.035	1	-1
573.205	1	4
573.374	1	-8
573.544	1	-1
573.714	1	9
573.884	1	2
574.054	1	2
574.224	1	3
574.394	1	-3
574.563	1	6
574.733	1	-2
574.903	1	7
575.073	1	-1
575.243	1	-11
575.413	1	5
575.583	1	6
575.752	1	0
575.922	1	4
576.092	1	14
576.262	1	-1
576.432	1	-13
576.602	1	0
576.772	1	-2
576.941	1	2
577.111	1	4
577.281	1	-3
577.451	1	2
577.621	1	-2
577.791	1	1
577.960	1	-2
578.130	1	-2
578.300	1	2
578.470	1	-3
578.640	1	-2
578.810	1	-1
578.979	1	11
579.149	1	-1
579.319	1	6
579.489	1	2
579.659	1	-7
579.829	1	-3
579.998	1	4
580.168	1	0
580.338	1	-8
580.508	1	-7
580.678	1	-3
580.848	1	7
581.017	1	-4
581.187	1	1
581.357	1	0
581.527	1	0
581.697	1	-7
581.867	1	2
582.036	1	-3
582.206	1	-8
582.376	1	0
582.546	1	-3
582.716	1	13
582.885	1	-1
583.055	1	-14
583.225	1	5
583.395	1	6
583.565	1	5
583.735	1	-13
583.904	1	3
584.074	1	-6
584.244	1	6
584.414	1	-9
584.584	1	13
584.753	1	2
584.923	1	-11
585.093	1	1
585.263	1	4
585.433	1	-3
585.602	1	4
585.772	1	-2
585.942	1	4
586.112	1	0
586.282	1	-4
586.451	1	2
586.621	1	2
586.791	1	-5
586.961	1	3
587.131	1	-2
587.300	1	1
587.470	1	2
587.640	1	1
587.810	1	-2
587.980	1	-1
588.149	1	-4
588.319	1	2
588.489	1	9
588.659	1	-1
588.829	1	-1
588.998	1	1
589.168	1	10
589.338	1	5
589.508	1	-3
589.677	1	-2
589.847	1	1
590.017	1	-13
590.187	1	9
590.357	1	2
590.526	1	-1
590.696	1	0
590.866	1	1
591.036	1	8
591.205	1	4
591.375	1	-19
591.545	1	-15
591.715	1	-12
591.885	1	15
592.054	1	3
592.224	1	4
592.394	1	3
592.564	1	-14
592.733	1	1
592.903	1	3
593.073	1	5
593.243	1	-1
593.412	1	-2
593.582	1	5
593.752	1	3
593.922	1	-7
594.091	1	7
594.261	1	2
594.431	1	5
594.601	1	-12
594.771	1	10
594.940	1	-2
595.110	1	4
595.280	1	-1
595.450	1	4
595.619	1	1
595.789	1	8
595.959	1	2
596.129	1	-16
596.298	1	11
596.468	1	-2
596.638	1	-3
596.808	1	0
596.977	1	3
597.147	1	11
597.317	1	-6
597.487	1	-3
597.656	1	-7
597.826	1	-3
597.996	1	12
598.166	1	-8
598.335	1	-4
598.505	1	-6
598.675	1	-6
598.844	1	-1
599.014	1	-6
599.184	1	-1
599.354	1	-2
599.523	1	0
599.693	1	1
599.863	1	5
600.033	1	-4
600.202	1	0
600.372	1	-12
600.542	1	-4
600.712	1	6
600.881	1	-4
601.051	1	6
601.221	1	-2
601.390	1	-5
601.560	1	4
601.730	1	9
601.900	1	2
602.069	1	-1
602.239	1	-6
602.409	1	-4
602.578	1	-2
602.748	1	-7
602.918	1	-1
603.088	1	9
603.257	1	2
603.427	1	-1
603.597	1	15
603.767	1	-2
603.936	1	10
604.106	1	-3
604.276	1	-1
604.445	1	3
604.615	1	-11
604.785	1	12
604.954	1	4
605.124	1	-3
605.294	1	1
605.464	1	-5
605.633	1	11
605.803	1	3
605.973	1	-5
606.142	1	6
606.312	1	-3
606.482	1	1
606.652	1	-12
606.821	1	10
606.991	1	4
607.161	1	-5
607.330	1	4
607.500	1	7
607.670	1	-11
607.839	1	7
608.009	1	-9
608.179	1	3
608.348	1	6
608.518	1	7
608.688	1	-1
608.858	1	0
609.027	1	-2
609.197	1	-4
609.367	1	-10
609.536	1	-2
609.706	1	4
609.876	1	-7
610.045	1	-7
610.215	1	-4
610.385	1	-1
610.554	1	-9
610.724	1	3
610.894	1	9
611.063	1	19
611.233	1	-4
611.403	1	1
611.572	1	1
611.742	1	0
611.912	1	-1
612.081	1	0
612.251	1	5
612.421	1	7
612.590	1	0
612.760	1	1
612.930	1	6
613.099	1	-16
613.269	1	-6
613.439	1	-1
613.608	1	-3
613.778	1	-8
613.948	1	4
614.117	1	2
614.287	1	-2
614.457	1	-2
614.626	1	3
614.796	1	8
614.966	1	1
615.135	1	-3
615.305	1	0
615.475	1	-2
615.644	1	-8
615.814	1	-9
615.984	1	3
616.153	1	2
616.323	1	-4
616.493	1	3
616.662	1	7
616.832	1	0
617.002	1	-12
617.171	1	-7
617.341	1	3
617.511	1	-3
617.680	1	7
617.850	1	3
618.019	1	3
618.189	1	-1
618.359	1	2
618.528	1	1
618.698	1	-10
618.868	1	8
619.037	1	4
619.207	1	-10
619.377	1	-9
619.546	1	3
619.716	1	-8
619.885	1	-5
620.055	1	12
620.225	1	10
620.394	1	1
620.564	1	-3
620.734	1	1
620.903	1	10
621.073	1	1
621.242	1	-5
621.412	1	7
621.582	1	0
621.751	1	-2
621.921	1	3
622.091	1	-13
622.260	1	-6
622.430	1	2
622.599	1	2
622.769	1	-3
622.939	1	-1
623.108	1	-3
623.278	1	3
623.448	1	-12
623.617	1	11
623.787	1	-3
623.956	1	-3
624.126	1	2
624.296	1	-1
624.465	1	4
624.635	1	4
624.804	1	-13
624.974	1	-8
625.144	1	5
625.313	1	6
625.483	1	11
625.652	1	5
625.822	1	4
625.992	1	-6
626.161	1	-1
626.331	1	9
626.501	1	7
626.670	1	1
626.840	1	-1
627.009	1	-9
627.179	1	6
627.348	1	-8
627.518	1	-4
627.688	1	-3
627.857	1	2
628.027	1	-5
628.196	1	9
628.366	1	10
628.536	1	3
628.705	1	-3
628.875	1	-1
629.044	1	3
629.214	1	0
629.384	1	-9
629.553	1	6
629.723	1	5
629.892	1	-5
630.062	1	-9
630.232	1	3
630.401	1	-11
630.571	1	3
630.740	1	3
630.910	1	-2
631.079	1	9
631.249	1	-5
631.419	1	3
631.588	1	-1
631.758	1	10
631.927	1	4
632.097	1	3
632.266	1	-3
632.436	1	-7
632.606	1	8
632.775	1	-1
632.945	1	-1
633.114	1	7
633.284	1	-3
633.453	1	-5
633.623	1	-7
633.793	1	1
633.962	1	4
634.132	1	3
634.301	1	-5
634.471	1	-10
634.640	1	4
634.810	1	9
634.979	1	11
635.149	1	-7
635.319	1	2
635.488	1	-5
635.658	1	-9
635.827	1	3
635.997	1	2
636.166	1	-4
636.336	1	8
636.505	1	0
636.675	1	7
636.845	1	10
637.014	1	-4
637.184	1	-5
637.353	1	-1
637.523	1	-7
637.692	1	3
637.862	1	-18
638.031	1	14
638.201	1	2
638.370	1	7
638.540	1	-2
638.710	1	3
638.879	1	-4
639.049	1	3
639.218	1	-8
639.388	1	10
639.557	1	1
639.727	1	0
639.896	1	-2
640.066	1	7
640.235	1	2
640.405	1	3
640.574	1	-9
640.744	1	-1
640.914	1	-3
641.083	1	-8
641.253	1	-8
641.422	1	-12
641.592	1	-7
641.761	1	-4
641.931	1	1
642.100	1	-12
642.270	1	-6
642.439	1	2
642.609	1	0
642.778	1	-6
642.948	1	-7
643.117	1	-1
643.287	1	-7
643.456	1	1
643.626	1	5
643.795	1	4
643.965	1	-7
644.134	1	5
644.304	1	-8
644.473	1	2
644.643	1	2
644.812	1	5
644.982	1	-6
645.151	1	-9
645.321	1	11
645.490	1	-2
645.660	1	-9
645.829	1	-7
645.999	1	-7
646.168	1	-7
646.338	1	4
646.507	1	6
646.677	1	-6
646.846	1	5
647.016	1	-3
647.185	1	-1
647.355	1	-5
647.524	1	-1
647.694	1	7
647.863	1	-5
648.033	1	-15
648.202	1	-1
648.372	1	2
648.541	1	6
648.711	1	-5
648.880	1	2
649.050	1	7
649.219	1	-7
649.389	1	-7
649.558	1	-3
649.728	1	0
649.897	1	-5
650.067	1	-7
650.236	1	10
650.406	1	-9
650.575	1	3
650.745	1	-10
650.914	1	7
651.084	1	-1
651.253	1	-2
651.423	1	2
651.592	1	-3
651.762	1	3
651.931	1	-7
652.101	1	0
652.270	1	5
652.440	1	-1
652.609	1	-1
652.778	1	-13
652.948	1	1
653.117	1	-11
653.287	1	1
653.456	1	2
653.626	1	8
653.795	1	3
653.965	1	7
654.134	1	3
654.304	1	1
654.473	1	8
654.643	1	10
654.812	1	0
654.982	1	-15
655.151	1	-3
655.320	1	-7
655.490	1	0
655.659	1	-4
655.829	1	1
655.998	1	-5
656.168	1	-4
656.337	1	-5
656.507	1	2
656.676	1	0
656.846	1	-7
657.015	1	-5
657.184	1	6
657.354	1	5
657.523	1	-11
657.693	1	2
657.862	1	-7
658.032	1	5
658.201	1	-4
658.371	1	-18
658.540	1	3
658.709	1	-3
658.879	1	-5
659.048	1	-2
659.218	1	-8
659.387	1	-14
659.557	1	-4
659.726	1	-12
659.895	1	0
660.065	1	1
660.234	1	5
660.404	1	7
660.573	1	-8
660.743	1	2
660.912	1	2
661.081	1	4
661.251	1	-1
661.420	1	2
661.590	1	-3
661.759	1	6
661.929	1	-6
662.098	1	-22
662.267	1	12
662.437	1	5
662.606	1	7
662.776	1	-2
662.945	1	1
663.115	1	-9
663.284	1	-2
663.453	1	10
663.623	1	-1
663.792	1	4
663.962	1	-3
664.131	1	-13
664.300	1	-1
664.470	1	-8
664.639	1	-1
664.809	1	-4
664.978	1	-11
665.148	1	-3
665.317	1	-2
665.486	1	0
665.656	1	-7
665.825	1	-1
665.995	1	9
666.164	1	1
666.333	1	4
666.503	1	-8
666.672	1	-3
666.842	1	-8
667.011	1	6
667.180	1	1
667.350	1	3
667.519	1	-1
667.689	1	-11
667.858	1	2
668.027	1	-1
668.197	1	-2
668.366	1	-2
668.536	1	7
668.705	1	-4
668.874	1	-3
669.044	1	-2
669.213	1	0
669.382	1	-6
669.552	1	9
669.721	1	-1
669.891	1	1
670.060	1	3
670.229	1	-2
670.399	1	9
670.568	1	4
670.738	1	-3
670.907	1	-7
671.076	1	6
671.246	1	1
671.415	1	0
671.584	1	3
671.754	1	-11
671.923	1	-5
672.093	1	8
672.262	1	8
672.431	1	-4
672.601	1	-9
672.770	1	4
672.939	1	-7
673.109	1	-13
673.278	1	4
673.448	1	-2
673.617	1	1
673.786	1	3
