325.333	1	0
325.504	1	4
325.675	1	-2
325.846	1	3
326.017	1	-6
326.188	1	5
326.359	1	-4
326.531	1	-15
326.702	1	2
326.873	1	2
327.044	1	-4
327.215	1	-9
327.386	1	4
327.557	1	6
327.728	1	4
327.899	1	-3
328.070	1	-4
328.241	1	-6
328.412	1	8
328.583	1	-3
328.754	1	-4
328.926	1	0
329.097	1	8
329.268	1	-6
329.439	1	-1
329.610	1	-13
329.781	1	-7
329.952	1	16
330.123	1	-3
330.294	1	6
330.465	1	2
330.636	1	-3
330.807	1	2
330.978	1	-5
331.149	1	3
331.320	1	-9
331.492	1	0
331.663	1	-7
331.834	1	12
332.005	1	5
332.176	1	8
332.347	1	1
332.518	1	4
332.689	1	-3
332.860	1	4
333.031	1	-11
333.202	1	-7
333.373	1	2
333.544	1	-10
333.715	1	2
333.886	1	-6
334.057	1	-14
334.228	1	0
334.399	1	-4
334.570	1	4
334.741	1	-6
334.912	1	-15
335.084	1	-2
335.255	1	-7
335.426	1	-3
335.597	1	-5
335.768	1	-3
335.939	1	-9
336.110	1	-6
336.281	1	-5
336.452	1	-1
336.623	1	6
336.794	1	-9
336.965	1	1
337.136	1	-8
337.307	1	7
337.478	1	12
337.649	1	-2
337.820	1	15
337.991	1	7
338.162	1	6
338.333	1	0
338.504	1	-5
338.675	1	4
338.846	1	3
339.017	1	-9
339.188	1	2
339.359	1	-9
339.530	1	0
339.701	1	-4
339.872	1	0
340.043	1	-3
340.214	1	0
340.385	1	2
340.556	1	6
340.727	1	-1
340.898	1	-5
341.069	1	-5
341.240	1	2
341.411	1	5
341.582	1	-3
341.753	1	-4
341.924	1	-9
342.095	1	0
342.266	1	-5
342.437	1	0
342.608	1	-7
342.779	1	-3
342.950	1	-5
343.121	1	4
343.292	1	-1
343.463	1	-5
343.634	1	-8
343.805	1	-2
343.976	1	3
344.147	1	-3
344.318	1	4
344.489	1	-14
344.660	1	11
344.831	1	-5
345.002	1	2
345.173	1	-5
345.344	1	-6
345.515	1	-5
345.686	1	-5
345.857	1	-9
346.028	1	-4
346.199	1	-4
346.370	1	1
346.541	1	-4
346.712	1	-5
346.883	1	-2
347.054	1	1
347.225	1	-9
347.396	1	-3
347.567	1	2
347.738	1	-1
347.909	1	9
348.080	1	-3
348.251	1	-1
348.422	1	-9
348.593	1	-6
348.764	1	-3
348.935	1	16
349.106	1	1
349.277	1	-11
349.448	1	2
349.619	1	-3
349.790	1	-2
349.961	1	2
350.132	1	3
350.303	1	-9
350.474	1	-6
350.645	1	2
350.816	1	-12
350.987	1	-11
351.157	1	4
351.328	1	-5
351.499	1	0
351.670	1	8
351.841	1	-6
352.012	1	-16
352.183	1	3
352.354	1	-5
352.525	1	2
352.696	1	-15
352.867	1	-8
353.038	1	2
353.209	1	1
353.380	1	-5
353.551	1	-3
353.722	1	2
353.893	1	3
354.064	1	-3
354.235	1	1
354.406	1	-9
354.576	1	-2
354.747	1	-9
354.918	1	-6
355.089	1	-2
355.260	1	-11
355.431	1	4
355.602	1	8
355.773	1	-2
355.944	1	7
356.115	1	-10
356.286	1	-1
356.457	1	-8
356.628	1	6
356.799	1	0
356.970	1	-7
357.141	1	-10
357.311	1	-5
357.482	1	5
357.653	1	-1
357.824	1	-7
357.995	1	-5
358.166	1	-3
358.337	1	-12
358.508	1	-7
358.679	1	16
358.850	1	0
359.021	1	-14
359.192	1	2
359.363	1	6
359.533	1	-9
359.704	1	-6
359.875	1	3
360.046	1	3
360.217	1	8
360.388	1	0
360.559	1	-4
360.730	1	-7
360.901	1	0
361.072	1	3
361.243	1	3
361.414	1	-3
361.584	1	4
361.755	1	11
361.926	1	6
362.097	1	-10
362.268	1	6
362.439	1	3
362.610	1	-1
362.781	1	-6
362.952	1	2
363.123	1	-3
363.293	1	-7
363.464	1	8
363.635	1	-1
363.806	1	-1
363.977	1	5
364.148	1	-1
364.319	1	-1
364.490	1	-9
364.661	1	3
364.832	1	-16
365.002	1	2
365.173	1	3
365.344	1	-1
365.515	1	5
365.686	1	4
365.857	1	-4
366.028	1	-9
366.199	1	-8
366.370	1	-6
366.540	1	2
366.711	1	4
366.882	1	-2
367.053	1	13
367.224	1	-1
367.395	1	-2
367.566	1	5
367.737	1	-18
367.908	1	-2
368.078	1	2
368.249	1	-8
368.420	1	4
368.591	1	13
368.762	1	-5
368.933	1	1
369.104	1	2
369.274	1	-5
369.445	1	-10
369.616	1	-4
369.787	1	-3
369.958	1	3
370.129	1	8
370.300	1	-8
370.471	1	1
370.641	1	-6
370.812	1	4
370.983	1	-7
371.154	1	0
371.325	1	-6
371.496	1	-12
371.667	1	0
371.837	1	-12
372.008	1	1
372.179	1	-5
372.350	1	-7
372.521	1	-2
372.692	1	-6
372.863	1	2
373.033	1	3
373.204	1	2
373.375	1	-2
373.546	1	-5
373.717	1	-2
373.888	1	-10
374.059	1	2
374.229	1	-5
374.400	1	-9
374.571	1	1
374.742	1	2
374.913	1	-2
375.084	1	-5
375.254	1	0
375.425	1	-11
375.596	1	-14
375.767	1	6
375.938	1	6
376.109	1	-10
376.279	1	-12
376.450	1	-2
376.621	1	5
376.792	1	-12
376.963	1	-4
377.134	1	-9
377.304	1	-2
377.475	1	-14
377.646	1	-3
377.817	1	7
377.988	1	-2
378.159	1	-9
378.329	1	-1
378.500	1	2
378.671	1	-7
378.842	1	-9
379.013	1	-7
379.184	1	-1
379.354	1	1
379.525	1	-1
379.696	1	-9
379.867	1	2
380.038	1	3
380.209	1	4
380.379	1	-13
380.550	1	2
380.721	1	-1
380.892	1	-7
381.063	1	-6
381.233	1	-1
381.404	1	-9
381.575	1	-8
381.746	1	-1
381.917	1	-3
382.087	1	5
382.258	1	-9
382.429	1	2
382.600	1	-2
382.771	1	-7
382.941	1	6
383.112	1	-8
383.283	1	-5
383.454	1	-5
383.625	1	-7
383.795	1	4
383.966	1	-2
384.137	1	-11
384.308	1	3
384.479	1	4
384.649	1	-4
384.820	1	-10
384.991	1	0
385.162	1	-5
385.333	1	1
385.503	1	-1
385.674	1	-5
385.845	1	3
386.016	1	-11
386.187	1	5
386.357	1	-7
386.528	1	1
386.699	1	7
386.870	1	3
387.041	1	-16
387.211	1	0
387.382	1	-7
387.553	1	-4
387.724	1	-10
387.894	1	0
388.065	1	-4
388.236	1	1
388.407	1	1
388.578	1	-4
388.748	1	6
388.919	1	-3
389.090	1	-1
389.261	1	-15
389.431	1	1
389.602	1	0
389.773	1	5
389.944	1	-3
390.114	1	2
390.285	1	-13
390.456	1	-2
390.627	1	-4
390.798	1	-4
390.968	1	-9
391.139	1	-10
391.310	1	6
391.481	1	2
391.651	1	-2
391.822	1	10
391.993	1	7
392.164	1	-8
392.334	1	3
392.505	1	-8
392.676	1	-10
392.847	1	-2
393.017	1	-19
393.188	1	-1
393.359	1	0
393.530	1	2
393.700	1	8
393.871	1	-3
394.042	1	0
394.213	1	-1
394.383	1	-2
394.554	1	-11
394.725	1	-2
394.896	1	-13
395.066	1	7
395.237	1	10
395.408	1	-2
395.579	1	-4
395.749	1	-4
395.920	1	6
396.091	1	2
396.262	1	-7
396.432	1	-14
396.603	1	4
396.774	1	-5
396.945	1	2
397.115	1	2
397.286	1	10
397.457	1	5
397.627	1	-4
397.798	1	-11
397.969	1	-4
398.140	1	7
398.310	1	2
398.481	1	-9
398.652	1	5
398.823	1	16
398.993	1	-9
399.164	1	16
399.335	1	-6
399.505	1	-2
399.676	1	1
399.847	1	2
400.018	1	4
400.188	1	4
400.359	1	-2
400.530	1	2
400.700	1	-2
400.871	1	-9
401.042	1	-6
401.213	1	-1
401.383	1	-4
401.554	1	6
401.725	1	-11
401.895	1	4
402.066	1	2
402.237	1	-10
402.408	1	-2
402.578	1	3
402.749	1	-8
402.920	1	-8
403.090	1	-3
403.261	1	0
403.432	1	-9
403.603	1	-1
403.773	1	7
403.944	1	-1
404.115	1	-16
404.285	1	-12
404.456	1	-3
404.627	1	3
404.797	1	9
404.968	1	-4
405.139	1	-4
405.310	1	-6
405.480	1	9
405.651	1	-10
405.822	1	-10
405.992	1	-3
406.163	1	4
406.334	1	-3
406.504	1	-1
406.675	1	5
406.846	1	-9
407.016	1	-3
407.187	1	-8
407.358	1	-8
407.528	1	-6
407.699	1	-4
407.870	1	5
408.041	1	-9
408.211	1	-3
408.382	1	3
408.553	1	4
408.723	1	-5
408.894	1	-10
409.065	1	-1
409.235	1	-4
409.406	1	6
409.577	1	5
409.747	1	-4
409.918	1	-1
410.089	1	-5
410.259	1	0
410.430	1	-4
410.601	1	-18
410.771	1	-4
410.942	1	-4
411.113	1	-1
411.283	1	2
411.454	1	-7
411.625	1	-11
411.795	1	-2
411.966	1	-12
412.137	1	-3
412.307	1	-4
412.478	1	2
412.649	1	2
412.819	1	2
412.990	1	0
413.161	1	-4
413.331	1	-10
413.502	1	4
413.672	1	-14
413.843	1	-3
414.014	1	1
414.184	1	-2
414.355	1	-8
414.526	1	-7
414.696	1	-7
414.867	1	10
415.038	1	-8
415.208	1	-1
415.379	1	-3
415.550	1	-2
415.720	1	-6
415.891	1	5
416.062	1	10
416.232	1	2
416.403	1	0
416.573	1	-6
416.744	1	1
416.915	1	-8
417.085	1	-13
417.256	1	-1
417.427	1	-4
417.597	1	-20
417.768	1	4
417.939	1	-7
418.109	1	7
418.280	1	-7
418.450	1	-8
418.621	1	-5
418.792	1	-4
418.962	1	-13
419.133	1	-6
419.304	1	-6
419.474	1	-9
419.645	1	11
419.815	1	-4
419.986	1	5
420.157	1	4
420.327	1	2
420.498	1	4
420.669	1	-3
420.839	1	1
421.010	1	8
421.180	1	-8
421.351	1	-6
421.522	1	3
421.692	1	7
421.863	1	-12
422.033	1	-4
422.204	1	-10
422.375	1	-8
422.545	1	4
422.716	1	-3
422.886	1	8
423.057	1	0
423.228	1	-7
423.398	1	0
423.569	1	-5
423.740	1	-6
423.910	1	-15
424.081	1	-2
424.251	1	-5
424.422	1	-4
424.593	1	15
424.763	1	-2
424.934	1	-6
425.104	1	1
425.275	1	0
425.445	1	-13
425.616	1	-9
425.787	1	-13
425.957	1	12
426.128	1	-9
426.298	1	0
426.469	1	3
426.640	1	-5
426.810	1	-2
426.981	1	0
427.151	1	-1
427.322	1	-3
427.493	1	-2
427.663	1	0
427.834	1	-14
428.004	1	-2
428.175	1	1
428.345	1	8
428.516	1	2
428.687	1	2
428.857	1	1
429.028	1	-5
429.198	1	-23
429.369	1	1
429.540	1	4
429.710	1	-10
429.881	1	0
430.051	1	6
430.222	1	1
430.392	1	-6
430.563	1	11
430.734	1	-4
430.904	1	-10
431.075	1	9
431.245	1	1
431.416	1	0
431.586	1	-4
431.757	1	6
431.927	1	1
432.098	1	-1
432.269	1	-9
432.439	1	-1
432.610	1	-9
432.780	1	-9
432.951	1	-8
433.121	1	2
433.292	1	-3
433.462	1	-1
433.633	1	2
433.804	1	-19
433.974	1	-10
434.145	1	0
434.315	1	1
434.486	1	-2
434.656	1	-3
434.827	1	-3
434.997	1	8
435.168	1	-12
435.339	1	9
435.509	1	2
435.680	1	-8
435.850	1	-7
436.021	1	5
436.191	1	-6
436.362	1	-8
436.532	1	3
436.703	1	4
436.873	1	-6
437.044	1	1
437.214	1	1
437.385	1	2
437.556	1	-4
437.726	1	-5
437.897	1	1
438.067	1	-5
438.238	1	-12
438.408	1	-1
438.579	1	-2
438.749	1	0
438.920	1	1
439.090	1	10
439.261	1	16
439.431	1	-3
439.602	1	1
439.772	1	4
439.943	1	-1
440.113	1	6
440.284	1	4
440.455	1	-5
440.625	1	-4
440.796	1	7
440.966	1	9
441.137	1	-11
441.307	1	-9
441.478	1	-1
441.648	1	-3
441.819	1	-9
441.989	1	0
442.160	1	0
442.330	1	-3
442.501	1	-7
442.671	1	-1
442.842	1	-2
443.012	1	-4
443.183	1	-3
443.353	1	-2
443.524	1	-6
443.694	1	0
443.865	1	-1
444.035	1	-6
444.206	1	1
444.376	1	2
444.547	1	-10
444.717	1	13
444.888	1	-5
445.058	1	-1
445.229	1	-2
445.399	1	-2
445.570	1	-1
445.740	1	-4
445.911	1	9
446.081	1	2
446.252	1	-11
446.422	1	-5
446.593	1	1
446.763	1	11
446.934	1	-4
447.104	1	-6
447.275	1	-8
447.445	1	-6
447.616	1	-6
447.786	1	-10
447.957	1	-7
448.127	1	10
448.298	1	1
448.468	1	6
448.639	1	2
448.809	1	0
448.979	1	0
449.150	1	-2
449.320	1	-4
449.491	1	7
449.661	1	0
449.832	1	-13
450.002	1	-6
450.173	1	-4
450.343	1	-5
450.514	1	4
450.684	1	-8
450.855	1	1
451.025	1	2
451.196	1	-3
451.366	1	1
451.537	1	1
451.707	1	1
451.878	1	-9
452.048	1	-4
452.218	1	-5
452.389	1	-8
452.559	1	-6
452.730	1	-1
452.900	1	-6
453.071	1	3
453.241	1	-4
453.412	1	-15
453.582	1	0
453.753	1	-9
453.923	1	-2
454.093	1	-6
454.264	1	-7
454.434	1	4
454.605	1	-1
454.775	1	8
454.946	1	1
455.116	1	0
455.287	1	12
455.457	1	-8
455.628	1	-4
455.798	1	-14
455.968	1	5
456.139	1	-2
456.309	1	-3
456.480	1	-10
456.650	1	-1
456.821	1	-3
456.991	1	-6
457.161	1	-1
457.332	1	-11
457.502	1	-2
457.673	1	-10
457.843	1	11
458.014	1	-5
458.184	1	8
458.355	1	2
458.525	1	2
458.695	1	-1
458.866	1	-4
459.036	1	0
459.207	1	4
459.377	1	2
459.548	1	-14
459.718	1	-3
459.888	1	8
460.059	1	2
460.229	1	-2
460.400	1	1
460.570	1	-14
460.740	1	-16
460.911	1	17
461.081	1	-8
461.252	1	-2
461.422	1	2
461.593	1	-5
461.763	1	1
461.933	1	-4
462.104	1	-3
462.274	1	-4
462.445	1	-17
462.615	1	-2
462.785	1	-9
462.956	1	-6
463.126	1	-9
463.297	1	-6
463.467	1	2
463.638	1	8
463.808	1	-6
463.978	1	0
464.149	1	1
464.319	1	-1
464.490	1	-7
464.660	1	-4
464.830	1	-8
465.001	1	1
465.171	1	3
465.342	1	0
465.512	1	9
465.682	1	0
465.853	1	-7
466.023	1	-2
466.194	1	4
466.364	1	-7
466.534	1	-6
466.705	1	-4
466.875	1	-2
467.045	1	4
467.216	1	-9
467.386	1	-4
467.557	1	10
467.727	1	7
467.897	1	9
468.068	1	7
468.238	1	-10
468.409	1	3
468.579	1	4
468.749	1	-6
468.920	1	-5
469.090	1	6
469.260	1	-4
469.431	1	-2
469.601	1	3
469.772	1	-8
469.942	1	-11
470.112	1	-4
470.283	1	10
470.453	1	1
470.623	1	-5
470.794	1	-4
470.964	1	-5
471.135	1	-19
471.305	1	-7
471.475	1	-2
471.646	1	14
471.816	1	-10
471.986	1	7
472.157	1	-4
472.327	1	-13
472.497	1	-6
472.668	1	1
472.838	1	-1
473.009	1	-4
473.179	1	2
473.349	1	3
473.520	1	-1
473.690	1	7
473.860	1	-2
474.031	1	-2
474.201	1	-6
474.371	1	-1
474.542	1	-3
474.712	1	3
474.882	1	-7
475.053	1	-10
475.223	1	6
475.394	1	2
475.564	1	15
475.734	1	-6
475.905	1	2
476.075	1	-2
476.245	1	-9
476.416	1	-3
476.586	1	-3
476.756	1	-5
476.927	1	7
477.097	1	-8
477.267	1	-10
477.438	1	-5
477.608	1	-2
477.778	1	-2
477.949	1	1
478.119	1	-5
478.289	1	-2
478.460	1	-3
478.630	1	-4
478.800	1	-9
478.971	1	-1
479.141	1	11
479.311	1	-7
479.482	1	-17
479.652	1	-7
479.822	1	-11
479.993	1	7
480.163	1	-10
480.333	1	-4
480.504	1	3
480.674	1	5
480.844	1	0
481.015	1	-5
481.185	1	5
481.355	1	-3
481.525	1	-11
481.696	1	-1
481.866	1	-6
482.036	1	-12
482.207	1	8
482.377	1	-1
482.547	1	-2
482.718	1	2
482.888	1	-17
483.058	1	-6
483.229	1	-5
483.399	1	-4
483.569	1	-2
483.740	1	-11
483.910	1	-2
484.080	1	-9
484.250	1	6
484.421	1	-1
484.591	1	2
484.761	1	-9
484.932	1	2
485.102	1	-11
485.272	1	5
485.443	1	7
485.613	1	-12
485.783	1	-2
485.953	1	2
486.124	1	10
486.294	1	9
486.464	1	-8
486.635	1	3
486.805	1	9
486.975	1	-14
487.146	1	-10
487.316	1	4
487.486	1	-1
487.656	1	-4
487.827	1	1
487.997	1	3
488.167	1	3
488.338	1	8
488.508	1	0
488.678	1	-3
488.848	1	-4
489.019	1	-1
489.189	1	-13
489.359	1	2
489.529	1	-7
489.700	1	2
489.870	1	-11
490.040	1	-6
490.211	1	12
490.381	1	-7
490.551	1	-10
490.721	1	0
490.892	1	7
491.062	1	1
491.232	1	4
491.402	1	-11
491.573	1	-6
491.743	1	-17
491.913	1	-3
492.084	1	4
492.254	1	-2
492.424	1	-9
492.594	1	3
492.765	1	3
492.935	1	-8
493.105	1	20
493.275	1	-1
493.446	1	1
493.616	1	9
493.786	1	-12
493.956	1	-2
494.127	1	-2
494.297	1	-1
494.467	1	-3
494.637	1	1
494.808	1	4
494.978	1	-5
495.148	1	9
495.318	1	6
495.489	1	-6
495.659	1	-3
495.829	1	0
495.999	1	0
496.170	1	-10
496.340	1	-1
496.510	1	7
496.680	1	-9
496.851	1	8
497.021	1	-6
497.191	1	-6
497.361	1	-5
497.532	1	3
497.702	1	-2
497.872	1	-1
498.042	1	4
498.213	1	0
498.383	1	-7
498.553	1	2
498.723	1	-2
498.894	1	2
499.064	1	10
499.234	1	-14
499.404	1	-2
499.574	1	-5
499.745	1	-5
499.915	1	4
500.085	1	-2
500.255	1	2
500.426	1	-2
500.596	1	-2
500.766	1	8
500.936	1	-11
501.106	1	-7
501.277	1	0
501.447	1	-5
501.617	1	1
501.787	1	-4
501.958	1	-6
502.128	1	-7
502.298	1	9
502.468	1	4
502.638	1	-1
502.809	1	2
502.979	1	-6
503.149	1	-9
503.319	1	3
503.489	1	4
503.660	1	-5
503.830	1	2
504.000	1	-14
504.170	1	-5
504.340	1	3
504.511	1	1
504.681	1	0
504.851	1	-8
505.021	1	-9
505.192	1	5
505.362	1	-4
505.532	1	-7
505.702	1	2
505.872	1	-13
506.043	1	-11
506.213	1	0
506.383	1	-7
506.553	1	11
506.723	1	-11
506.893	1	-3
507.064	1	-7
507.234	1	-2
507.404	1	-15
507.574	1	-2
507.744	1	-13
507.915	1	7
508.085	1	8
508.255	1	10
508.425	1	-2
508.595	1	-6
508.766	1	3
508.936	1	-1
509.106	1	-4
509.276	1	6
509.446	1	-7
509.616	1	8
509.787	1	-11
509.957	1	3
510.127	1	6
510.297	1	-6
510.467	1	-6
510.638	1	-16
510.808	1	-8
510.978	1	-13
511.148	1	11
511.318	1	-2
511.488	1	5
511.659	1	-6
511.829	1	3
511.999	1	-2
512.169	1	-9
512.339	1	-5
512.509	1	-1
512.680	1	-1
512.850	1	-11
513.020	1	2
513.190	1	4
513.360	1	4
513.530	1	-8
513.700	1	-3
513.871	1	6
514.041	1	-5
514.211	1	-18
514.381	1	3
514.551	1	-4
514.721	1	1
514.892	1	-5
515.062	1	4
515.232	1	-2
515.402	1	-7
515.572	1	-8
515.742	1	4
515.912	1	-1
516.083	1	-8
516.253	1	-2
516.423	1	2
516.593	1	-13
516.763	1	-1
516.933	1	-3
517.104	1	4
517.274	1	3
517.444	1	2
517.614	1	-3
517.784	1	-15
517.954	1	-6
518.124	1	-1
518.294	1	-9
518.465	1	-2
518.635	1	0
518.805	1	2
518.975	1	1
519.145	1	2
519.315	1	-3
519.485	1	-2
519.656	1	-1
519.826	1	-11
519.996	1	13
520.166	1	-1
520.336	1	-7
520.506	1	0
520.676	1	0
520.846	1	-12
521.017	1	-17
521.187	1	-9
521.357	1	-13
521.527	1	4
521.697	1	-2
521.867	1	1
522.037	1	-1
522.207	1	-7
522.377	1	5
522.548	1	-12
522.718	1	4
522.888	1	-19
523.058	1	5
523.228	1	4
523.398	1	4
523.568	1	-10
523.738	1	-1
523.909	1	4
524.079	1	-4
524.249	1	-1
524.419	1	1
524.589	1	2
524.759	1	-2
524.929	1	-5
525.099	1	-7
525.269	1	0
525.439	1	-7
525.610	1	-1
525.780	1	1
525.950	1	-11
526.120	1	-6
526.290	1	-10
526.460	1	3
526.630	1	3
526.800	1	-1
526.970	1	-2
527.140	1	1
527.311	1	9
527.481	1	6
527.651	1	7
527.821	1	-10
527.991	1	0
528.161	1	-7
528.331	1	-7
528.501	1	-7
528.671	1	-2
528.841	1	-3
529.011	1	-6
529.181	1	2
529.352	1	-6
529.522	1	6
529.692	1	-6
529.862	1	-3
530.032	1	-8
530.202	1	3
530.372	1	-4
530.542	1	8
530.712	1	18
530.882	1	-4
531.052	1	2
531.222	1	-8
531.392	1	-8
531.563	1	2
531.733	1	-2
531.903	1	6
532.073	1	0
532.243	1	0
532.413	1	3
532.583	1	-4
532.753	1	-6
532.923	1	-4
533.093	1	8
533.263	1	-13
533.433	1	-5
533.603	1	-3
533.773	1	0
533.943	1	-3
534.113	1	3
534.284	1	1
534.454	1	2
534.624	1	2
534.794	1	-6
534.964	1	-9
535.134	1	-5
535.304	1	11
535.474	1	0
535.644	1	6
535.814	1	2
535.984	1	-7
536.154	1	0
536.324	1	-1
536.494	1	-1
536.664	1	3
536.834	1	-5
537.004	1	5
537.174	1	-2
537.344	1	9
537.514	1	-3
537.685	1	-7
537.855	1	-5
538.025	1	-3
538.195	1	7
538.365	1	3
538.535	1	12
538.705	1	-7
538.875	1	1
539.045	1	2
539.215	1	-13
539.385	1	-2
539.555	1	-13
539.725	1	8
539.895	1	0
540.065	1	-7
540.235	1	-8
540.405	1	1
540.575	1	-2
540.745	1	3
540.915	1	3
541.085	1	-9
541.255	1	-13
541.425	1	-10
541.595	1	-2
541.765	1	-8
541.935	1	4
542.105	1	0
542.275	1	-10
542.445	1	-8
542.615	1	-5
542.785	1	-8
542.955	1	-10
543.125	1	3
543.295	1	-2
543.465	1	8
543.635	1	-4
543.805	1	1
543.975	1	-1
544.145	1	-9
544.315	1	-5
544.485	1	-3
544.655	1	-3
544.825	1	11
544.995	1	-3
545.165	1	0
545.335	1	-2
545.505	1	-1
545.675	1	-5
545.845	1	-2
546.015	1	-1
546.185	1	-8
546.355	1	4
546.525	1	7
546.695	1	4
546.865	1	-7
547.035	1	3
547.205	1	-12
547.375	1	3
547.545	1	9
547.715	1	-1
547.885	1	-3
548.055	1	6
548.225	1	-3
548.395	1	13
548.565	1	10
548.735	1	-1
548.905	1	-16
549.075	1	-12
549.245	1	-1
549.415	1	-7
549.585	1	-11
549.755	1	1
549.925	1	-5
550.095	1	1
550.265	1	-6
550.435	1	6
550.605	1	3
550.775	1	-9
550.945	1	-2
551.115	1	-15
551.285	1	5
551.455	1	-9
551.625	1	-10
551.795	1	-8
551.965	1	-2
552.135	1	-8
552.305	1	0
552.475	1	2
552.645	1	6
552.815	1	1
552.985	1	1
553.155	1	3
553.325	1	10
553.495	1	-4
553.665	1	-1
553.835	1	-5
554.004	1	2
554.174	1	-3
554.344	1	-9
554.514	1	6
554.684	1	7
554.854	1	9
555.024	1	-6
555.194	1	15
555.364	1	-3
555.534	1	-10
555.704	1	-5
555.874	1	-16
556.044	1	6
556.214	1	3
556.384	1	3
556.554	1	-9
556.724	1	-11
556.894	1	10
557.064	1	-7
557.234	1	3
557.404	1	-7
557.573	1	4
557.743	1	1
557.913	1	1
558.083	1	-9
558.253	1	-7
558.423	1	-9
558.593	1	2
558.763	1	-11
558.933	1	2
559.103	1	-13
559.273	1	-2
559.443	1	-9
559.613	1	0
559.783	1	-3
559.953	1	-2
560.122	1	-8
560.292	1	0
560.462	1	-3
560.632	1	-1
560.802	1	3
560.972	1	14
561.142	1	9
561.312	1	-5
561.482	1	13
561.652	1	-1
561.822	1	-4
561.992	1	1
562.162	1	8
562.331	1	-1
562.501	1	-9
562.671	1	-5
562.841	1	-5
563.011	1	4
563.181	1	-3
563.351	1	-5
563.521	1	0
563.691	1	-7
563.861	1	0
564.031	1	2
564.201	1	-3
564.370	1	3
564.540	1	13
564.710	1	-10
564.880	1	0
565.050	1	-2
565.220	1	8
565.390	1	-12
565.560	1	-2
565.730	1	-12
565.900	1	-8
566.069	1	1
566.239	1	-6
566.409	1	-3
566.579	1	-2
566.749	1	-2
566.919	1	4
567.089	1	3
567.259	1	5
567.429	1	-3
567.599	1	-9
567.768	1	6
567.938	1	-3
568.108	1	-11
568.278	1	-6
568.448	1	-11
568.618	1	2
568.788	1	-11
568.958	1	-7
569.128	1	-1
569.297	1	-5
569.467	1	1
569.637	1	-1
569.807	1	-9
569.977	1	8
570.147	1	4
570.317	1	16
570.487	1	4
570.656	1	-3
570.826	1	3
570.996	1	-11
571.166	1	-10
571.336	1	-2
571.506	1	-7
571.676	1	0
571.846	1	2
572.015	1	-9
572.185	1	-10
572.355	1	11
572.525	1	1
572.695	1	-4
572.865	1	3
573.035	1	-5
573.205	1	3
573.374	1	-5
573.544	1	-5
573.714	1	2
573.884	1	-8
574.054	1	1
574.224	1	-4
574.394	1	1
574.563	1	1
574.733	1	-5
574.903	1	0
575.073	1	-8
575.243	1	-7
575.413	1	1
575.583	1	1
575.752	1	-14
575.922	1	-2
576.092	1	4
576.262	1	0
576.432	1	-18
576.602	1	-1
576.772	1	0
576.941	1	0
577.111	1	8
577.281	1	-1
577.451	1	-9
577.621	1	-6
577.791	1	-7
577.960	1	1
578.130	1	-5
578.300	1	-6
578.470	1	-8
578.640	1	-1
578.810	1	7
578.979	1	5
579.149	1	-6
579.319	1	3
579.489	1	-8
579.659	1	3
579.829	1	3
579.998	1	-5
580.168	1	3
580.338	1	-9
580.508	1	6
580.678	1	-4
580.848	1	0
581.017	1	-6
581.187	1	2
581.357	1	-7
581.527	1	-7
581.697	1	-13
581.867	1	-4
582.036	1	6
582.206	1	-11
582.376	1	-5
582.546	1	10
582.716	1	-2
582.885	1	-1
583.055	1	-8
583.225	1	-3
583.395	1	3
583.565	1	13
583.735	1	-16
583.904	1	2
584.074	1	-5
584.244	1	-4
584.414	1	-7
584.584	1	12
584.753	1	-13
584.923	1	-8
585.093	1	1
585.263	1	0
585.433	1	-7
585.602	1	-7
585.772	1	1
585.942	1	1
586.112	1	9
586.282	1	1
586.451	1	-4
586.621	1	-4
586.791	1	0
586.961	1	-6
587.131	1	-7
587.300	1	-3
587.470	1	-2
587.640	1	-9
587.810	1	1
587.980	1	2
588.149	1	0
588.319	1	2
588.489	1	-5
588.659	1	2
588.829	1	-2
588.998	1	-17
589.168	1	9
589.338	1	-8
589.508	1	4
589.677	1	-2
589.847	1	3
590.017	1	-3
590.187	1	3
590.357	1	-13
590.526	1	-3
590.696	1	-5
590.866	1	3
591.036	1	1
591.205	1	-1
591.375	1	-13
591.545	1	-15
591.715	1	-9
591.885	1	5
592.054	1	1
592.224	1	-2
592.394	1	8
592.564	1	-14
592.733	1	-3
592.903	1	0
593.073	1	-1
593.243	1	-15
593.412	1	-1
593.582	1	4
593.752	1	-3
593.922	1	-6
594.091	1	-3
594.261	1	-1
594.431	1	-7
594.601	1	-15
594.771	1	4
594.940	1	-11
595.110	1	2
595.280	1	4
595.450	1	-6
595.619	1	1
595.789	1	3
595.959	1	-12
596.129	1	-3
596.298	1	-2
596.468	1	-1
596.638	1	-6
596.808	1	-1
596.977	1	-6
597.147	1	0
597.317	1	-3
597.487	1	6
597.656	1	-1
597.826	1	-2
597.996	1	-2
598.166	1	-7
598.335	1	-8
598.505	1	-13
598.675	1	1
598.844	1	-6
599.014	1	3
599.184	1	-7
599.354	1	-12
599.523	1	-2
599.693	1	3
599.863	1	4
600.033	1	-9
600.202	1	-10
600.372	1	-3
600.542	1	-8
600.712	1	-1
600.881	1	-4
601.051	1	-1
601.221	1	1
601.390	1	-11
601.560	1	-2
601.730	1	-1
601.900	1	5
602.069	1	-6
602.239	1	-5
602.409	1	1
602.578	1	-4
602.748	1	-10
602.918	1	-5
603.088	1	0
603.257	1	4
603.427	1	1
603.597	1	8
603.767	1	-6
603.936	1	14
604.106	1	-2
604.276	1	-2
604.445	1	-8
604.615	1	-5
604.785	1	-1
604.954	1	-2
605.124	1	-4
605.294	1	0
605.464	1	-12
605.633	1	2
605.803	1	2
605.973	1	-10
606.142	1	-1
606.312	1	-8
606.482	1	-8
606.652	1	0
606.821	1	-1
606.991	1	-9
607.161	1	4
607.330	1	-3
607.500	1	-1
607.670	1	-8
607.839	1	-2
608.009	1	-10
608.179	1	-4
608.348	1	3
608.518	1	4
608.688	1	5
608.858	1	2
609.027	1	2
609.197	1	-13
609.367	1	-7
609.536	1	2
609.706	1	-2
609.876	1	1
610.045	1	-4
610.215	1	-9
610.385	1	-7
610.554	1	-5
610.724	1	-4
610.894	1	-6
611.063	1	15
611.233	1	-7
611.403	1	-1
611.572	1	-2
611.742	1	-2
611.912	1	8
612.081	1	1
612.251	1	-1
612.421	1	11
612.590	1	-7
612.760	1	0
612.930	1	-6
613.099	1	-11
613.269	1	-5
613.439	1	2
613.608	1	6
613.778	1	1
613.948	1	10
614.117	1	11
614.287	1	-7
614.457	1	3
614.626	1	-3
614.796	1	7
614.966	1	2
615.135	1	-6
615.305	1	-2
615.475	1	-3
615.644	1	-7
615.814	1	1
615.984	1	6
616.153	1	-1
616.323	1	-4
616.493	1	8
616.662	1	-7
616.832	1	2
617.002	1	-9
617.171	1	-16
617.341	1	-5
617.511	1	-8
617.680	1	2
617.850	1	-5
618.019	1	-7
618.189	1	-4
618.359	1	2
618.528	1	-15
618.698	1	-6
618.868	1	6
619.037	1	9
619.207	1	-18
619.377	1	-10
619.546	1	5
619.716	1	-10
619.885	1	-3
620.055	1	4
620.225	1	5
620.394	1	1
620.564	1	-6
620.734	1	5
620.903	1	7
621.073	1	-17
621.242	1	-11
621.412	1	4
621.582	1	-2
621.751	1	0
621.921	1	3
622.091	1	-6
622.260	1	-8
622.430	1	6
622.599	1	1
622.769	1	-4
622.939	1	-3
623.108	1	-9
623.278	1	1
623.448	1	-1
623.617	1	6
623.787	1	-6
623.956	1	-8
624.126	1	-2
624.296	1	-14
624.465	1	2
624.635	1	0
624.804	1	-16
624.974	1	-4
625.144	1	4
625.313	1	1
625.483	1	7
625.652	1	0
625.822	1	3
625.992	1	-8
626.161	1	-2
626.331	1	5
626.501	1	3
626.670	1	-8
626.840	1	6
627.009	1	-13
627.179	1	-9
627.348	1	-11
627.518	1	-2
627.688	1	1
627.857	1	9
628.027	1	-5
628.196	1	14
628.366	1	10
628.536	1	-5
628.705	1	-1
628.875	1	-4
629.044	1	-1
629.214	1	2
629.384	1	-5
629.553	1	6
629.723	1	7
629.892	1	-2
630.062	1	1
630.232	1	12
630.401	1	-11
630.571	1	0
630.740	1	9
630.910	1	-7
631.079	1	9
631.249	1	-5
631.419	1	1
631.588	1	-7
631.758	1	-3
631.927	1	-8
632.097	1	11
632.266	1	-17
632.436	1	-14
632.606	1	2
632.775	1	-6
632.945	1	-6
633.114	1	8
633.284	1	-11
633.453	1	-7
633.623	1	-10
633.793	1	-8
633.962	1	2
634.132	1	4
634.301	1	-2
634.471	1	-10
634.640	1	1
634.810	1	4
634.979	1	6
635.149	1	-1
635.319	1	6
635.488	1	-2
635.658	1	-9
635.827	1	-11
635.997	1	-7
636.166	1	-9
636.336	1	3
636.505	1	3
636.675	1	-6
636.845	1	1
637.014	1	-5
637.184	1	-4
637.353	1	-1
637.523	1	5
637.692	1	-4
637.862	1	-20
638.031	1	-2
638.201	1	3
638.370	1	-4
638.540	1	-6
638.710	1	1
638.879	1	-11
639.049	1	5
639.218	1	-3
639.388	1	7
639.557	1	-1
639.727	1	-2
639.896	1	5
640.066	1	-5
640.235	1	3
640.405	1	3
640.574	1	-5
640.744	1	-1
640.914	1	5
641.083	1	-7
641.253	1	-2
641.422	1	-7
641.592	1	-15
641.761	1	-4
641.931	1	0
642.100	1	2
642.270	1	-9
642.439	1	3
642.609	1	-4
642.778	1	3
642.948	1	-4
643.117	1	-3
643.287	1	3
643.456	1	9
643.626	1	1
643.795	1	-2
643.965	1	-8
644.134	1	-7
644.304	1	-9
644.473	1	5
644.643	1	4
644.812	1	5
644.982	1	8
645.151	1	-2
645.321	1	10
645.490	1	-8
645.660	1	-7
645.829	1	-17
645.999	1	-8
646.168	1	-2
646.338	1	5
646.507	1	-6
646.677	1	-5
646.846	1	7
647.016	1	0
647.185	1	-14
647.355	1	-9
647.524	1	7
647.694	1	-7
647.863	1	-11
648.033	1	-23
648.202	1	1
648.372	1	4
648.541	1	-6
648.711	1	-10
648.880	1	-2
649.050	1	-9
649.219	1	5
649.389	1	1
649.558	1	-9
649.728	1	0
649.897	1	3
650.067	1	-2
650.236	1	11
650.406	1	2
650.575	1	1
650.745	1	-8
650.914	1	-10
651.084	1	-1
651.253	1	0
651.423	1	-8
651.592	1	-6
651.762	1	3
651.931	1	2
652.101	1	7
652.270	1	4
652.440	1	2
652.609	1	0
652.778	1	-4
652.948	1	3
653.117	1	-6
653.287	1	6
653.456	1	-4
653.626	1	0
653.795	1	7
653.965	1	14
654.134	1	1
654.304	1	-2
654.473	1	0
654.643	1	9
654.812	1	-1
654.982	1	-1
655.151	1	-6
655.320	1	-7
655.490	1	1
655.659	1	-9
655.829	1	-3
655.998	1	4
656.168	1	0
656.337	1	-15
656.507	1	2
656.676	1	0
656.846	1	-13
657.015	1	-8
657.184	1	-3
657.354	1	1
657.523	1	-7
657.693	1	-7
657.862	1	0
658.032	1	8
658.201	1	-10
658.371	1	-12
658.540	1	-1
658.709	1	-4
658.879	1	4
659.048	1	3
659.218	1	-2
659.387	1	-13
659.557	1	1
659.726	1	3
659.895	1	-2
660.065	1	-1
660.234	1	5
660.404	1	4
660.573	1	-16
660.743	1	-5
660.912	1	-1
661.081	1	1
661.251	1	12
661.420	1	-9
661.590	1	-4
661.759	1	6
661.929	1	-1
662.098	1	-18
662.267	1	3
662.437	1	1
662.606	1	-4
662.776	1	-3
662.945	1	3
663.115	1	-11
663.284	1	-9
663.453	1	2
663.623	1	2
663.792	1	-2
663.962	1	-4
664.131	1	-5
664.300	1	4
664.470	1	3
664.639	1	-9
664.809	1	4
664.978	1	-3
665.148	1	-4
665.317	1	1
665.486	1	0
665.656	1	-2
665.825	1	3
665.995	1	5
666.164	1	5
666.333	1	14
666.503	1	-3
666.672	1	-14
666.842	1	-7
667.011	1	3
667.180	1	-3
667.350	1	0
667.519	1	-1
667.689	1	-6
667.858	1	7
668.027	1	-11
668.197	1	-1
668.366	1	-6
668.536	1	-1
668.705	1	-3
668.874	1	-18
669.044	1	-8
669.213	1	8
669.382	1	-2
669.552	1	1
669.721	1	-9
669.891	1	1
670.060	1	5
670.229	1	-3
670.399	1	-1
670.568	1	0
670.738	1	-7
670.907	1	-8
671.076	1	5
671.246	1	1
671.415	1	-6
671.584	1	-2
671.754	1	-6
671.923	1	-16
672.093	1	4
672.262	1	-2
672.431	1	-4
672.601	1	-8
672.770	1	-2
672.939	1	-6
673.109	1	0
673.278	1	-5
673.448	1	3
673.617	1	-3
673.786	1	-13
