325.333	1	0
325.504	1	5
325.675	1	7
325.846	1	1
326.017	1	0
326.188	1	15
326.359	1	0
326.531	1	0
326.702	1	4
326.873	1	5
327.044	1	-6
327.215	1	0
327.386	1	-5
327.557	1	13
327.728	1	0
327.899	1	-1
328.070	1	4
328.241	1	-2
328.412	1	5
328.583	1	-6
328.754	1	1
328.926	1	7
329.097	1	5
329.268	1	-8
329.439	1	3
329.610	1	-6
329.781	1	-8
329.952	1	13
330.123	1	10
330.294	1	11
330.465	1	-6
330.636	1	4
330.807	1	3
330.978	1	-15
331.149	1	-1
331.320	1	4
331.492	1	-4
331.663	1	-6
331.834	1	6
332.005	1	-3
332.176	1	1
332.347	1	0
332.518	1	4
332.689	1	-4
332.860	1	-1
333.031	1	-2
333.202	1	6
333.373	1	0
333.544	1	2
333.715	1	-4
333.886	1	-2
334.057	1	-14
334.228	1	-3
334.399	1	7
334.570	1	-7
334.741	1	-5
334.912	1	-5
335.084	1	0
335.255	1	0
335.426	1	-7
335.597	1	-3
335.768	1	2
335.939	1	3
336.110	1	-6
336.281	1	-6
336.452	1	-2
336.623	1	9
336.794	1	-3
336.965	1	-7
337.136	1	0
337.307	1	7
337.478	1	15
337.649	1	3
337.820	1	13
337.991	1	9
338.162	1	0
338.333	1	3
338.504	1	4
338.675	1	1
338.846	1	1
339.017	1	-2
339.188	1	3
339.359	1	5
339.530	1	4
339.701	1	3
339.872	1	5
340.043	1	2
340.214	1	0
340.385	1	2
340.556	1	0
340.727	1	-6
340.898	1	0
341.069	1	8
341.240	1	-3
341.411	1	8
341.582	1	-6
341.753	1	5
341.924	1	-4
342.095	1	-2
342.266	1	-5
342.437	1	1
342.608	1	-4
342.779	1	-7
342.950	1	4
343.121	1	8
343.292	1	6
343.463	1	-8
343.634	1	-7
343.805	1	1
343.976	1	4
344.147	1	-1
344.318	1	-3
344.489	1	-13
344.660	1	11
344.831	1	-4
345.002	1	-3
345.173	1	2
345.344	1	-13
345.515	1	-2
345.686	1	-4
345.857	1	-2
346.028	1	-6
346.199	1	-2
346.370	1	2
346.541	1	-2
346.712	1	3
346.883	1	-6
347.054	1	4
347.225	1	-3
347.396	1	-7
347.567	1	3
347.738	1	0
347.909	1	-1
348.080	1	-12
348.251	1	-4
348.422	1	6
348.593	1	-6
348.764	1	-7
348.935	1	7
349.106	1	2
349.277	1	-9
349.448	1	-2
349.619	1	-5
349.790	1	3
349.961	1	-7
350.132	1	3
350.303	1	-6
350.474	1	0
350.645	1	4
350.816	1	-5
350.987	1	-2
351.157	1	8
351.328	1	-1
351.499	1	6
351.670	1	6
351.841	1	1
352.012	1	-7
352.183	1	-7
352.354	1	-7
352.525	1	-6
352.696	1	-6
352.867	1	0
353.038	1	6
353.209	1	2
353.380	1	-1
353.551	1	3
353.722	1	-5
353.893	1	-2
354.064	1	-5
354.235	1	3
354.406	1	3
354.576	1	4
354.747	1	0
354.918	1	-6
355.089	1	-4
355.260	1	3
355.431	1	-4
355.602	1	4
355.773	1	-16
355.944	1	3
356.115	1	-6
356.286	1	7
356.457	1	-9
356.628	1	3
356.799	1	-6
356.970	1	-4
357.141	1	-6
357.311	1	-2
357.482	1	2
357.653	1	2
357.824	1	-1
357.995	1	3
358.166	1	4
358.337	1	6
358.508	1	2
358.679	1	5
358.850	1	6
359.021	1	-8
359.192	1	8
359.363	1	3
359.533	1	-4
359.704	1	0
359.875	1	3
360.046	1	5
360.217	1	15
360.388	1	-4
360.559	1	6
360.730	1	-1
360.901	1	-2
361.072	1	-5
361.243	1	7
361.414	1	8
361.584	1	6
361.755	1	11
361.926	1	12
362.097	1	-6
362.268	1	6
362.439	1	0
362.610	1	6
362.781	1	2
362.952	1	13
363.123	1	3
363.293	1	-8
363.464	1	13
363.635	1	8
363.806	1	7
363.977	1	8
364.148	1	2
364.319	1	7
364.490	1	2
364.661	1	5
364.832	1	1
365.002	1	12
365.173	1	9
365.344	1	-3
365.515	1	-3
365.686	1	-3
365.857	1	13
366.028	1	4
366.199	1	9
366.370	1	2
366.540	1	23
366.711	1	11
366.882	1	12
367.053	1	8
367.224	1	14
367.395	1	2
367.566	1	6
367.737	1	-10
367.908	1	10
368.078	1	4
368.249	1	8
368.420	1	-2
368.591	1	15
368.762	1	-5
368.933	1	15
369.104	1	4
369.274	1	6
369.445	1	-1
369.616	1	-2
369.787	1	7
369.958	1	-1
370.129	1	8
370.300	1	-1
370.471	1	12
370.641	1	8
370.812	1	-1
370.983	1	4
371.154	1	4
371.325	1	4
371.496	1	-3
371.667	1	0
371.837	1	-1
372.008	1	12
372.179	1	0
372.350	1	0
372.521	1	6
372.692	1	2
372.863	1	-3
373.033	1	7
373.204	1	0
373.375	1	6
373.546	1	1
373.717	1	2
373.888	1	-1
374.059	1	2
374.229	1	-2
374.400	1	-8
374.571	1	4
374.742	1	4
374.913	1	3
375.084	1	-9
375.254	1	16
375.425	1	-2
375.596	1	-3
375.767	1	6
375.938	1	12
376.109	1	-6
376.279	1	-5
376.450	1	1
376.621	1	9
376.792	1	-1
376.963	1	7
377.134	1	-8
377.304	1	10
377.475	1	10
377.646	1	2
377.817	1	13
377.988	1	-5
378.159	1	7
378.329	1	2
378.500	1	-1
378.671	1	-1
378.842	1	-6
379.013	1	2
379.184	1	7
379.354	1	4
379.525	1	13
379.696	1	-8
379.867	1	11
380.038	1	1
380.209	1	8
380.379	1	-10
380.550	1	8
380.721	1	11
380.892	1	8
381.063	1	0
381.233	1	11
381.404	1	2
381.575	1	1
381.746	1	9
381.917	1	-2
382.087	1	1
382.258	1	8
382.429	1	3
382.600	1	2
382.771	1	2
382.941	1	6
383.112	1	3
383.283	1	6
383.454	1	8
383.625	1	-2
383.795	1	15
383.966	1	1
384.137	1	3
384.308	1	24
384.479	1	18
384.649	1	8
384.820	1	6
384.991	1	16
385.162	1	11
385.333	1	16
385.503	1	4
385.674	1	16
385.845	1	11
386.016	1	20
386.187	1	18
386.357	1	-2
386.528	1	18
386.699	1	23
386.870	1	24
387.041	1	-4
387.211	1	9
387.382	1	8
387.553	1	12
387.724	1	10
387.894	1	9
388.065	1	13
388.236	1	12
388.407	1	12
388.578	1	3
388.748	1	10
388.919	1	7
389.090	1	24
389.261	1	-5
389.431	1	14
389.602	1	16
389.773	1	11
389.944	1	7
390.114	1	10
390.285	1	11
390.456	1	9
390.627	1	4
390.798	1	18
390.968	1	5
391.139	1	11
391.310	1	15
391.481	1	9
391.651	1	12
391.822	1	21
391.993	1	15
392.164	1	12
392.334	1	16
392.505	1	1
392.676	1	18
392.847	1	15
393.017	1	6
393.188	1	2
393.359	1	21
393.530	1	17
393.700	1	11
393.871	1	4
394.042	1	13
394.213	1	16
394.383	1	3
394.554	1	18
394.725	1	11
394.896	1	-1
395.066	1	20
395.237	1	18
395.408	1	11
395.579	1	12
395.749	1	11
395.920	1	17
396.091	1	12
396.262	1	13
396.432	1	-2
396.603	1	12
396.774	1	12
396.945	1	20
397.115	1	24
397.286	1	28
397.457	1	15
397.627	1	21
397.798	1	1
397.969	1	21
398.140	1	7
398.310	1	16
398.481	1	5
398.652	1	17
398.823	1	23
398.993	1	14
399.164	1	16
399.335	1	11
399.505	1	10
399.676	1	13
399.847	1	8
400.018	1	12
400.188	1	18
400.359	1	3
400.530	1	15
400.700	1	9
400.871	1	-2
401.042	1	10
401.213	1	7
401.383	1	6
401.554	1	10
401.725	1	1
401.895	1	10
402.066	1	1
402.237	1	8
402.408	1	10
402.578	1	4
402.749	1	7
402.920	1	5
403.090	1	17
403.261	1	6
403.432	1	11
403.603	1	5
403.773	1	7
403.944	1	15
404.115	1	-18
404.285	1	4
404.456	1	5
404.627	1	20
404.797	1	21
404.968	1	12
405.139	1	2
405.310	1	5
405.480	1	12
405.651	1	6
405.822	1	5
405.992	1	17
406.163	1	11
406.334	1	17
406.504	1	6
406.675	1	22
406.846	1	9
407.016	1	2
407.187	1	4
407.358	1	-2
407.528	1	11
407.699	1	13
407.870	1	17
408.041	1	7
408.211	1	2
408.382	1	5
408.553	1	15
408.723	1	6
408.894	1	7
409.065	1	5
409.235	1	5
409.406	1	8
409.577	1	8
409.747	1	-2
409.918	1	12
410.089	1	6
410.259	1	2
410.430	1	12
410.601	1	6
410.771	1	10
410.942	1	4
411.113	1	5
411.283	1	8
411.454	1	-3
411.625	1	-2
411.795	1	11
411.966	1	0
412.137	1	11
412.307	1	6
412.478	1	14
412.649	1	4
412.819	1	5
412.990	1	8
413.161	1	4
413.331	1	0
413.502	1	15
413.672	1	3
413.843	1	10
414.014	1	8
414.184	1	-2
414.355	1	-1
414.526	1	0
414.696	1	1
414.867	1	10
415.038	1	7
415.208	1	-2
415.379	1	2
415.550	1	3
415.720	1	9
415.891	1	13
416.062	1	9
416.232	1	9
416.403	1	0
416.573	1	0
416.744	1	4
416.915	1	11
417.085	1	3
417.256	1	-2
417.427	1	-4
417.597	1	-3
417.768	1	-9
417.939	1	-1
418.109	1	6
418.280	1	3
418.450	1	3
418.621	1	7
418.792	1	4
418.962	1	-5
419.133	1	3
419.304	1	9
419.474	1	-7
419.645	1	6
419.815	1	2
419.986	1	6
420.157	1	2
420.327	1	12
420.498	1	1
420.669	1	16
420.839	1	2
421.010	1	7
421.180	1	6
421.351	1	11
421.522	1	4
421.692	1	3
421.863	1	3
422.033	1	0
422.204	1	-10
422.375	1	-9
422.545	1	7
422.716	1	-1
422.886	1	2
423.057	1	3
423.228	1	-7
423.398	1	7
423.569	1	-3
423.740	1	-9
423.910	1	1
424.081	1	5
424.251	1	-1
424.422	1	7
424.593	1	3
424.763	1	11
424.934	1	-3
425.104	1	14
425.275	1	-8
425.445	1	-5
425.616	1	10
425.787	1	-9
425.957	1	16
426.128	1	-5
426.298	1	4
426.469	1	12
426.640	1	4
426.810	1	2
426.981	1	-8
427.151	1	4
427.322	1	1
427.493	1	-1
427.663	1	-7
427.834	1	-3
428.004	1	9
428.175	1	2
428.345	1	19
428.516	1	2
428.687	1	0
428.857	1	3
429.028	1	-5
429.198	1	-4
429.369	1	10
429.540	1	-5
429.710	1	-5
429.881	1	2
430.051	1	19
430.222	1	4
430.392	1	1
430.563	1	12
430.734	1	2
430.904	1	-3
431.075	1	9
431.245	1	9
431.416	1	5
431.586	1	-10
431.757	1	2
431.927	1	8
432.098	1	-2
432.269	1	-5
432.439	1	-10
432.610	1	-5
432.780	1	2
432.951	1	0
433.121	1	3
433.292	1	4
433.462	1	4
433.633	1	-8
433.804	1	-7
433.974	1	-6
434.145	1	-3
434.315	1	-4
434.486	1	15
434.656	1	1
434.827	1	-7
434.997	1	5
435.168	1	-1
435.339	1	5
435.509	1	3
435.680	1	-7
435.850	1	1
436.021	1	7
436.191	1	1
436.362	1	0
436.532	1	5
436.703	1	10
436.873	1	-6
437.044	1	12
437.214	1	-3
437.385	1	6
437.556	1	-4
437.726	1	-5
437.897	1	-2
438.067	1	5
438.238	1	-3
438.408	1	3
438.579	1	8
438.749	1	6
438.920	1	2
439.090	1	6
439.261	1	4
439.431	1	0
439.602	1	2
439.772	1	2
439.943	1	-2
440.113	1	5
440.284	1	12
440.455	1	-1
440.625	1	2
440.796	1	6
440.966	1	5
441.137	1	-10
441.307	1	-2
441.478	1	-7
441.648	1	-5
441.819	1	1
441.989	1	0
442.160	1	5
442.330	1	6
442.501	1	-6
442.671	1	0
442.842	1	-1
443.012	1	-2
443.183	1	0
443.353	1	2
443.524	1	1
443.694	1	4
443.865	1	5
444.035	1	-4
444.206	1	6
444.376	1	3
444.547	1	-4
444.717	1	6
444.888	1	-1
445.058	1	7
445.229	1	-1
445.399	1	3
445.570	1	9
445.740	1	4
445.911	1	9
446.081	1	4
446.252	1	-9
446.422	1	-3
446.593	1	-8
446.763	1	9
446.934	1	11
447.104	1	-4
447.275	1	0
447.445	1	1
447.616	1	3
447.786	1	-6
447.957	1	9
448.127	1	8
448.298	1	-3
448.468	1	5
448.639	1	3
448.809	1	-3
448.979	1	8
449.150	1	-3
449.320	1	-2
449.491	1	-1
449.661	1	-1
449.832	1	5
450.002	1	-2
450.173	1	-4
450.343	1	-5
450.514	1	7
450.684	1	-1
450.855	1	-1
451.025	1	-12
451.196	1	1
451.366	1	0
451.537	1	-6
451.707	1	6
451.878	1	-1
452.048	1	-1
452.218	1	2
452.389	1	2
452.559	1	-2
452.730	1	0
452.900	1	2
453.071	1	1
453.241	1	-5
453.412	1	-6
453.582	1	5
453.753	1	-2
453.923	1	0
454.093	1	5
454.264	1	-5
454.434	1	-6
454.605	1	7
454.775	1	10
454.946	1	6
455.116	1	-3
455.287	1	-1
455.457	1	0
455.628	1	-1
455.798	1	-12
455.968	1	8
456.139	1	-5
456.309	1	-6
456.480	1	-7
456.650	1	-2
456.821	1	-3
456.991	1	8
457.161	1	10
457.332	1	-2
457.502	1	-1
457.673	1	-6
457.843	1	9
458.014	1	-2
458.184	1	2
458.355	1	11
458.525	1	5
458.695	1	3
458.866	1	-5
459.036	1	8
459.207	1	-2
459.377	1	-2
459.548	1	1
459.718	1	-4
459.888	1	5
460.059	1	3
460.229	1	1
460.400	1	6
460.570	1	-5
460.740	1	-7
460.911	1	12
461.081	1	5
461.252	1	-3
461.422	1	7
461.593	1	-2
461.763	1	2
461.933	1	-7
462.104	1	-3
462.274	1	0
462.445	1	-4
462.615	1	4
462.785	1	-9
462.956	1	-12
463.126	1	-5
463.297	1	-13
463.467	1	-2
463.638	1	9
463.808	1	8
463.978	1	10
464.149	1	-2
464.319	1	0
464.490	1	-5
464.660	1	-3
464.830	1	5
465.001	1	4
465.171	1	5
465.342	1	1
465.512	1	7
465.682	1	1
465.853	1	-6
466.023	1	-2
466.194	1	4
466.364	1	-1
466.534	1	3
466.705	1	5
466.875	1	6
467.045	1	-1
467.216	1	-6
467.386	1	-3
467.557	1	-3
467.727	1	-2
467.897	1	12
468.068	1	4
468.238	1	-4
468.409	1	10
468.579	1	9
468.749	1	0
468.920	1	0
469.090	1	3
469.260	1	1
469.431	1	1
469.601	1	5
469.772	1	-7
469.942	1	9
470.112	1	1
470.283	1	8
470.453	1	7
470.623	1	-2
470.794	1	1
470.964	1	-8
471.135	1	0
471.305	1	0
471.475	1	1
471.646	1	6
471.816	1	-1
471.986	1	-2
472.157	1	-2
472.327	1	-11
472.497	1	-2
472.668	1	-7
472.838	1	5
473.009	1	3
473.179	1	7
473.349	1	10
473.520	1	5
473.690	1	8
473.860	1	-3
474.031	1	9
474.201	1	4
474.371	1	-1
474.542	1	-6
474.712	1	3
474.882	1	1
475.053	1	-6
475.223	1	1
475.394	1	8
475.564	1	16
475.734	1	-7
475.905	1	-1
476.075	1	3
476.245	1	-2
476.416	1	-6
476.586	1	1
476.756	1	5
476.927	1	1
477.097	1	-3
477.267	1	-6
477.438	1	-4
477.608	1	2
477.778	1	5
477.949	1	4
478.119	1	5
478.289	1	1
478.460	1	-8
478.630	1	-8
478.800	1	-3
478.971	1	-2
479.141	1	10
479.311	1	6
479.482	1	-5
479.652	1	3
479.822	1	-5
479.993	1	1
480.163	1	-7
480.333	1	-2
480.504	1	-1
480.674	1	8
480.844	1	3
481.015	1	5
481.185	1	4
481.355	1	17
481.525	1	-4
481.696	1	9
481.866	1	-10
482.036	1	-2
482.207	1	6
482.377	1	0
482.547	1	-2
482.718	1	10
482.888	1	0
483.058	1	0
483.229	1	-5
483.399	1	-5
483.569	1	11
483.740	1	-12
483.910	1	1
484.080	1	-5
484.250	1	4
484.421	1	1
484.591	1	7
484.761	1	-2
484.932	1	-1
485.102	1	3
485.272	1	-1
485.443	1	5
485.613	1	-7
485.783	1	5
485.953	1	1
486.124	1	4
486.294	1	0
486.464	1	-9
486.635	1	9
486.805	1	7
486.975	1	-18
487.146	1	2
487.316	1	0
487.486	1	-4
487.656	1	-5
487.827	1	6
487.997	1	6
488.167	1	6
488.338	1	14
488.508	1	14
488.678	1	-3
488.848	1	2
489.019	1	-4
489.189	1	-8
489.359	1	-1
489.529	1	6
489.700	1	-2
489.870	1	-5
490.040	1	-2
490.211	1	13
490.381	1	-3
490.551	1	-1
490.721	1	5
490.892	1	3
491.062	1	10
491.232	1	11
491.402	1	-4
491.573	1	0
491.743	1	-9
491.913	1	3
492.084	1	9
492.254	1	-4
492.424	1	0
492.594	1	4
492.765	1	-2
492.935	1	-6
493.105	1	7
493.275	1	6
493.446	1	2
493.616	1	4
493.786	1	9
493.956	1	2
494.127	1	0
494.297	1	3
494.467	1	6
494.637	1	2
494.808	1	3
494.978	1	2
495.148	1	7
495.318	1	13
495.489	1	0
495.659	1	5
495.829	1	-6
495.999	1	0
496.170	1	-4
496.340	1	2
496.510	1	3
496.680	1	0
496.851	1	9
497.021	1	2
497.191	1	2
497.361	1	-7
497.532	1	4
497.702	1	-9
497.872	1	-3
498.042	1	6
498.213	1	9
498.383	1	12
498.553	1	3
498.723	1	4
498.894	1	1
499.064	1	12
499.234	1	-11
499.404	1	-2
499.574	1	-3
499.745	1	3
499.915	1	0
500.085	1	-4
500.255	1	12
500.426	1	11
500.596	1	2
500.766	1	11
500.936	1	-8
501.106	1	-6
501.277	1	-4
501.447	1	13
501.617	1	6
501.787	1	-8
501.958	1	-1
502.128	1	1
502.298	1	5
502.468	1	9
502.638	1	1
502.809	1	12
502.979	1	-10
503.149	1	14
503.319	1	2
503.489	1	-1
503.660	1	0
503.830	1	12
504.000	1	1
504.170	1	-3
504.340	1	-2
504.511	1	6
504.681	1	-3
504.851	1	2
505.021	1	-4
505.192	1	3
505.362	1	0
505.532	1	4
505.702	1	9
505.872	1	-7
506.043	1	0
506.213	1	4
506.383	1	-2
506.553	1	9
506.723	1	-4
506.893	1	2
507.064	1	-12
507.234	1	5
507.404	1	6
507.574	1	-6
507.744	1	-7
507.915	1	0
508.085	1	10
508.255	1	3
508.425	1	13
508.595	1	-2
508.766	1	-3
508.936	1	-2
509.106	1	1
509.276	1	6
509.446	1	2
509.616	1	4
509.787	1	-4
509.957	1	-4
510.127	1	6
510.297	1	5
510.467	1	7
510.638	1	-3
510.808	1	-5
510.978	1	-11
511.148	1	13
511.318	1	9
511.488	1	14
511.659	1	-1
511.829	1	3
511.999	1	11
512.169	1	6
512.339	1	4
512.509	1	4
512.680	1	6
512.850	1	2
513.020	1	3
513.190	1	-2
513.360	1	7
513.530	1	8
513.700	1	7
513.871	1	18
514.041	1	6
514.211	1	-5
514.381	1	1
514.551	1	4
514.721	1	4
514.892	1	5
515.062	1	0
515.232	1	9
515.402	1	5
515.572	1	-1
515.742	1	5
515.912	1	13
516.083	1	5
516.253	1	7
516.423	1	8
516.593	1	-6
516.763	1	2
516.933	1	13
517.104	1	13
517.274	1	2
517.444	1	7
517.614	1	7
517.784	1	-9
517.954	1	-3
518.124	1	14
518.294	1	18
518.465	1	15
518.635	1	9
518.805	1	4
518.975	1	14
519.145	1	13
519.315	1	2
519.485	1	-1
519.656	1	4
519.826	1	11
519.996	1	5
520.166	1	10
520.336	1	11
520.506	1	8
520.676	1	-11
520.846	1	-2
521.017	1	-7
521.187	1	2
521.357	1	-4
521.527	1	6
521.697	1	12
521.867	1	15
522.037	1	8
522.207	1	-1
522.377	1	-2
522.548	1	0
522.718	1	1
522.888	1	-8
523.058	1	20
523.228	1	14
523.398	1	9
523.568	1	0
523.738	1	13
523.909	1	7
524.079	1	9
524.249	1	-2
524.419	1	6
524.589	1	10
524.759	1	-2
524.929	1	3
525.099	1	10
525.269	1	10
525.439	1	-1
525.610	1	5
525.780	1	11
525.950	1	-6
526.120	1	2
526.290	1	1
526.460	1	13
526.630	1	8
526.800	1	2
526.970	1	8
527.140	1	-5
527.311	1	9
527.481	1	28
527.651	1	20
527.821	1	6
527.991	1	5
528.161	1	8
528.331	1	6
528.501	1	-3
528.671	1	6
528.841	1	11
529.011	1	3
529.181	1	9
529.352	1	15
529.522	1	7
529.692	1	10
529.862	1	0
530.032	1	12
530.202	1	17
530.372	1	-7
530.542	1	6
530.712	1	19
530.882	1	-3
531.052	1	13
531.222	1	-5
531.392	1	5
531.563	1	3
531.733	1	7
531.903	1	10
532.073	1	15
532.243	1	-10
532.413	1	8
532.583	1	12
532.753	1	-4
532.923	1	15
533.093	1	11
533.263	1	-3
533.433	1	2
533.603	1	0
533.773	1	1
533.943	1	8
534.113	1	10
534.284	1	-1
534.454	1	7
534.624	1	2
534.794	1	10
534.964	1	1
535.134	1	2
535.304	1	12
535.474	1	3
535.644	1	13
535.814	1	3
535.984	1	-2
536.154	1	6
536.324	1	8
536.494	1	12
536.664	1	3
536.834	1	5
537.004	1	23
537.174	1	13
537.344	1	4
537.514	1	16
537.685	1	7
537.855	1	9
538.025	1	15
538.195	1	11
538.365	1	16
538.535	1	14
538.705	1	4
538.875	1	-1
539.045	1	5
539.215	1	-9
539.385	1	11
539.555	1	-4
539.725	1	12
539.895	1	15
540.065	1	10
540.235	1	-4
540.405	1	8
540.575	1	5
540.745	1	3
540.915	1	8
541.085	1	-2
541.255	1	-11
541.425	1	-2
541.595	1	1
541.765	1	-3
541.935	1	11
542.105	1	9
542.275	1	-2
542.445	1	11
542.615	1	2
542.785	1	0
542.955	1	5
543.125	1	-4
543.295	1	12
543.465	1	8
543.635	1	-4
543.805	1	10
543.975	1	9
544.145	1	-3
544.315	1	-4
544.485	1	4
544.655	1	10
544.825	1	14
544.995	1	4
545.165	1	-1
545.335	1	1
545.505	1	9
545.675	1	13
545.845	1	-4
546.015	1	-1
546.185	1	-3
546.355	1	7
546.525	1	8
546.695	1	-6
546.865	1	8
547.035	1	8
547.205	1	1
547.375	1	7
547.545	1	4
547.715	1	11
547.885	1	5
548.055	1	7
548.225	1	-8
548.395	1	3
548.565	1	-1
548.735	1	8
548.905	1	-6
549.075	1	3
549.245	1	5
549.415	1	1
549.585	1	2
549.755	1	3
549.925	1	17
550.095	1	10
550.265	1	-5
550.435	1	16
550.605	1	10
550.775	1	-7
550.945	1	12
551.115	1	11
551.285	1	5
551.455	1	5
551.625	1	-6
551.795	1	-6
551.965	1	8
552.135	1	-11
552.305	1	9
552.475	1	-3
552.645	1	4
552.815	1	0
552.985	1	12
553.155	1	4
553.325	1	11
553.495	1	-9
553.665	1	5
553.835	1	2
554.004	1	5
554.174	1	5
554.344	1	-3
554.514	1	8
554.684	1	9
554.854	1	6
555.024	1	-7
555.194	1	12
555.364	1	3
555.534	1	1
555.704	1	11
555.874	1	-4
556.044	1	6
556.214	1	7
556.384	1	1
556.554	1	3
556.724	1	-8
556.894	1	18
557.064	1	0
557.234	1	4
557.404	1	-6
557.573	1	7
557.743	1	1
557.913	1	8
558.083	1	1
558.253	1	-1
558.423	1	-8
558.593	1	-2
558.763	1	4
558.933	1	8
559.103	1	-4
559.273	1	7
559.443	1	0
559.613	1	9
559.783	1	10
559.953	1	6
560.122	1	-10
560.292	1	3
560.462	1	-1
560.632	1	0
560.802	1	10
560.972	1	6
561.142	1	10
561.312	1	1
561.482	1	-1
561.652	1	12
561.822	1	0
561.992	1	9
562.162	1	3
562.331	1	7
562.501	1	-7
562.671	1	9
562.841	1	5
563.011	1	-2
563.181	1	15
563.351	1	-1
563.521	1	5
563.691	1	10
563.861	1	2
564.031	1	6
564.201	1	6
564.370	1	5
564.540	1	8
564.710	1	-8
564.880	1	13
565.050	1	9
565.220	1	-1
565.390	1	-6
565.560	1	8
565.730	1	5
565.900	1	2
566.069	1	19
566.239	1	2
566.409	1	1
566.579	1	10
566.749	1	6
566.919	1	1
567.089	1	-1
567.259	1	6
567.429	1	0
567.599	1	-3
567.768	1	16
567.938	1	10
568.108	1	6
568.278	1	3
568.448	1	0
568.618	1	11
568.788	1	-3
568.958	1	3
569.128	1	5
569.297	1	8
569.467	1	7
569.637	1	3
569.807	1	4
569.977	1	14
570.147	1	3
570.317	1	22
570.487	1	-3
570.656	1	-9
570.826	1	5
570.996	1	-6
571.166	1	1
571.336	1	0
571.506	1	6
571.676	1	7
571.846	1	6
572.015	1	-3
572.185	1	-1
572.355	1	14
572.525	1	-2
572.695	1	9
572.865	1	4
573.035	1	8
573.205	1	5
573.374	1	0
573.544	1	-2
573.714	1	-1
573.884	1	10
574.054	1	2
574.224	1	-1
574.394	1	3
574.563	1	7
574.733	1	-3
574.903	1	4
575.073	1	3
575.243	1	-5
575.413	1	-3
575.583	1	11
575.752	1	0
575.922	1	-3
576.092	1	9
576.262	1	-1
576.432	1	-15
576.602	1	0
576.772	1	-1
576.941	1	-5
577.111	1	4
577.281	1	1
577.451	1	-4
577.621	1	6
577.791	1	4
577.960	1	-1
578.130	1	2
578.300	1	2
578.470	1	-3
578.640	1	-8
578.810	1	8
578.979	1	0
579.149	1	1
579.319	1	3
579.489	1	3
579.659	1	8
579.829	1	0
579.998	1	-1
580.168	1	15
580.338	1	-16
580.508	1	5
580.678	1	-6
580.848	1	5
581.017	1	-5
581.187	1	3
581.357	1	-3
581.527	1	-1
581.697	1	-8
581.867	1	5
582.036	1	10
582.206	1	-9
582.376	1	3
582.546	1	4
582.716	1	9
582.885	1	1
583.055	1	5
583.225	1	13
583.395	1	4
583.565	1	11
583.735	1	1
583.904	1	0
584.074	1	2
584.244	1	0
584.414	1	-5
584.584	1	8
584.753	1	6
584.923	1	5
585.093	1	7
585.263	1	-3
585.433	1	-3
585.602	1	-8
585.772	1	-4
585.942	1	8
586.112	1	-3
586.282	1	-3
586.451	1	3
586.621	1	0
586.791	1	5
586.961	1	1
587.131	1	13
587.300	1	-5
587.470	1	8
587.640	1	-8
587.810	1	1
587.980	1	3
588.149	1	6
588.319	1	-1
588.489	1	9
588.659	1	0
588.829	1	6
588.998	1	4
589.168	1	0
589.338	1	6
589.508	1	7
589.677	1	5
589.847	1	1
590.017	1	-6
590.187	1	3
590.357	1	0
590.526	1	3
590.696	1	-6
590.866	1	3
591.036	1	0
591.205	1	-2
591.375	1	-2
591.545	1	-5
591.715	1	-10
591.885	1	8
592.054	1	-3
592.224	1	7
592.394	1	3
592.564	1	-7
592.733	1	-2
592.903	1	6
593.073	1	-2
593.243	1	-1
593.412	1	-2
593.582	1	7
593.752	1	4
593.922	1	-7
594.091	1	14
594.261	1	-1
594.431	1	3
594.601	1	-10
594.771	1	12
594.940	1	-10
595.110	1	1
595.280	1	6
595.450	1	-2
595.619	1	2
595.789	1	7
595.959	1	3
596.129	1	-3
596.298	1	7
596.468	1	5
596.638	1	6
596.808	1	7
596.977	1	-2
597.147	1	8
597.317	1	14
597.487	1	-2
597.656	1	-2
597.826	1	-10
597.996	1	5
598.166	1	-5
598.335	1	4
598.505	1	6
598.675	1	1
598.844	1	-1
599.014	1	-5
599.184	1	4
599.354	1	-9
599.523	1	5
599.693	1	6
599.863	1	5
600.033	1	-1
600.202	1	6
600.372	1	2
600.542	1	1
600.712	1	0
600.881	1	-4
601.051	1	5
601.221	1	5
601.390	1	-7
601.560	1	-3
601.730	1	-3
601.900	1	7
602.069	1	-11
602.239	1	-2
602.409	1	6
602.578	1	4
602.748	1	-1
602.918	1	-6
603.088	1	9
603.257	1	-1
603.427	1	9
603.597	1	14
603.767	1	-16
603.936	1	7
604.106	1	6
604.276	1	-2
604.445	1	1
604.615	1	-6
604.785	1	2
604.954	1	5
605.124	1	-4
605.294	1	7
605.464	1	0
605.633	1	6
605.803	1	2
605.973	1	-6
606.142	1	-4
606.312	1	-3
606.482	1	2
606.652	1	-12
606.821	1	0
606.991	1	1
607.161	1	-1
607.330	1	0
607.500	1	-1
607.670	1	2
607.839	1	-2
608.009	1	-15
608.179	1	9
608.348	1	6
608.518	1	0
608.688	1	-1
608.858	1	-3
609.027	1	7
609.197	1	-2
609.367	1	-3
609.536	1	0
609.706	1	-3
609.876	1	-8
610.045	1	-3
610.215	1	-3
610.385	1	-4
610.554	1	-5
610.724	1	2
610.894	1	9
611.063	1	13
611.233	1	2
611.403	1	14
611.572	1	-2
611.742	1	-2
611.912	1	-6
612.081	1	7
612.251	1	3
612.421	1	21
612.590	1	-10
612.760	1	7
612.930	1	5
613.099	1	-13
613.269	1	-4
613.439	1	-9
613.608	1	0
613.778	1	5
613.948	1	7
614.117	1	11
614.287	1	-8
614.457	1	2
614.626	1	3
614.796	1	10
614.966	1	8
615.135	1	-7
615.305	1	-7
615.475	1	6
615.644	1	-3
615.814	1	-10
615.984	1	6
616.153	1	10
616.323	1	-10
616.493	1	8
616.662	1	2
616.832	1	3
617.002	1	-5
617.171	1	-3
617.341	1	13
617.511	1	-6
617.680	1	1
617.850	1	-4
618.019	1	1
618.189	1	2
618.359	1	4
618.528	1	-4
618.698	1	4
618.868	1	4
619.037	1	12
619.207	1	1
619.377	1	-13
619.546	1	-10
619.716	1	-14
619.885	1	11
620.055	1	8
620.225	1	2
620.394	1	1
620.564	1	-1
620.734	1	2
620.903	1	11
621.073	1	-9
621.242	1	-10
621.412	1	7
621.582	1	2
621.751	1	-1
621.921	1	6
622.091	1	-7
622.260	1	-5
622.430	1	-6
622.599	1	3
622.769	1	-7
622.939	1	-4
623.108	1	-2
623.278	1	-3
623.448	1	-3
623.617	1	9
623.787	1	0
623.956	1	6
624.126	1	0
624.296	1	2
624.465	1	-1
624.635	1	11
624.804	1	-11
624.974	1	-5
625.144	1	8
625.313	1	5
625.483	1	-4
625.652	1	5
625.822	1	0
625.992	1	-7
626.161	1	7
626.331	1	14
626.501	1	9
626.670	1	8
626.840	1	1
627.009	1	1
627.179	1	1
627.348	1	-6
627.518	1	0
627.688	1	0
627.857	1	13
628.027	1	4
628.196	1	6
628.366	1	5
628.536	1	-8
628.705	1	-1
628.875	1	3
629.044	1	3
629.214	1	-1
629.384	1	-9
629.553	1	-3
629.723	1	3
629.892	1	4
630.062	1	6
630.232	1	7
630.401	1	-3
630.571	1	4
630.740	1	5
630.910	1	-1
631.079	1	5
631.249	1	-5
631.419	1	3
631.588	1	-10
631.758	1	7
631.927	1	1
632.097	1	9
632.266	1	-8
632.436	1	-7
632.606	1	-4
632.775	1	3
632.945	1	4
633.114	1	-1
633.284	1	-6
633.453	1	3
633.623	1	0
633.793	1	3
633.962	1	7
634.132	1	4
634.301	1	-4
634.471	1	-3
634.640	1	-2
634.810	1	0
634.979	1	2
635.149	1	-8
635.319	1	4
635.488	1	5
635.658	1	-11
635.827	1	1
635.997	1	5
636.166	1	-1
636.336	1	6
636.505	1	7
636.675	1	-5
636.845	1	9
637.014	1	-7
637.184	1	-4
637.353	1	0
637.523	1	-6
637.692	1	0
637.862	1	-15
638.031	1	3
638.201	1	0
638.370	1	4
638.540	1	-1
638.710	1	-8
638.879	1	5
639.049	1	-5
639.218	1	-1
639.388	1	8
639.557	1	2
639.727	1	3
639.896	1	3
640.066	1	6
640.235	1	10
640.405	1	4
640.574	1	-8
640.744	1	0
640.914	1	-2
641.083	1	-3
641.253	1	-7
641.422	1	-6
641.592	1	-4
641.761	1	0
641.931	1	5
642.100	1	-6
642.270	1	0
642.439	1	-8
642.609	1	-2
642.778	1	4
642.948	1	-4
643.117	1	-2
643.287	1	1
643.456	1	8
643.626	1	4
643.795	1	3
643.965	1	-2
644.134	1	5
644.304	1	-10
644.473	1	-7
644.643	1	-1
644.812	1	3
644.982	1	5
645.151	1	7
645.321	1	9
645.490	1	4
645.660	1	-11
645.829	1	-9
645.999	1	-8
646.168	1	-7
646.338	1	6
646.507	1	-1
646.677	1	-1
646.846	1	6
647.016	1	7
647.185	1	-8
647.355	1	-1
647.524	1	-7
647.694	1	-9
647.863	1	-8
648.033	1	-10
648.202	1	11
648.372	1	5
648.541	1	0
648.711	1	3
648.880	1	-5
649.050	1	-1
649.219	1	3
649.389	1	-1
649.558	1	-9
649.728	1	3
649.897	1	-3
650.067	1	-1
650.236	1	15
650.406	1	-3
650.575	1	-2
650.745	1	-9
650.914	1	-3
651.084	1	-10
651.253	1	1
651.423	1	6
651.592	1	-2
651.762	1	4
651.931	1	10
652.101	1	7
652.270	1	8
652.440	1	5
652.609	1	0
652.778	1	-6
652.948	1	0
653.117	1	4
653.287	1	7
653.456	1	1
653.626	1	6
653.795	1	5
653.965	1	6
654.134	1	9
654.304	1	4
654.473	1	4
654.643	1	10
654.812	1	1
654.982	1	-3
655.151	1	-5
655.320	1	-7
655.490	1	3
655.659	1	1
655.829	1	2
655.998	1	4
656.168	1	3
656.337	1	-12
656.507	1	12
656.676	1	0
656.846	1	-6
657.015	1	-3
657.184	1	3
657.354	1	5
657.523	1	-1
657.693	1	-1
657.862	1	2
658.032	1	8
658.201	1	-11
658.371	1	-6
658.540	1	0
658.709	1	-6
658.879	1	3
659.048	1	2
659.218	1	-4
659.387	1	-6
659.557	1	0
659.726	1	-4
659.895	1	3
660.065	1	5
660.234	1	5
660.404	1	4
660.573	1	-7
660.743	1	-6
660.912	1	-6
661.081	1	-8
661.251	1	-4
661.420	1	3
661.590	1	-1
661.759	1	2
661.929	1	7
662.098	1	-18
662.267	1	14
662.437	1	5
662.606	1	-2
662.776	1	7
662.945	1	4
663.115	1	-13
663.284	1	5
663.453	1	-6
663.623	1	1
663.792	1	-2
663.962	1	-3
664.131	1	-9
664.300	1	1
664.470	1	1
664.639	1	2
664.809	1	1
664.978	1	6
665.148	1	-6
665.317	1	-14
665.486	1	-11
665.656	1	-8
665.825	1	3
665.995	1	0
666.164	1	5
666.333	1	12
666.503	1	-7
666.672	1	-5
666.842	1	-4
667.011	1	7
667.180	1	7
667.350	1	14
667.519	1	-3
667.689	1	0
667.858	1	1
668.027	1	-4
668.197	1	6
668.366	1	-1
668.536	1	3
668.705	1	2
668.874	1	-2
669.044	1	-13
669.213	1	-2
669.382	1	-11
669.552	1	4
669.721	1	-15
669.891	1	0
670.060	1	1
670.229	1	1
670.399	1	11
670.568	1	5
670.738	1	-5
670.907	1	-16
671.076	1	10
671.246	1	1
671.415	1	2
671.584	1	3
671.754	1	-6
671.923	1	-11
672.093	1	-1
672.262	1	3
672.431	1	-8
672.601	1	-11
672.770	1	7
672.939	1	-3
673.109	1	1
673.278	1	9
673.448	1	-1
673.617	1	10
673.786	1	-5
