325.333	1	-6
325.504	1	2
325.675	1	3
325.846	1	-1
326.017	1	-8
326.188	1	12
326.359	1	0
326.531	1	2
326.702	1	-1
326.873	1	4
327.044	1	-3
327.215	1	4
327.386	1	2
327.557	1	-3
327.728	1	5
327.899	1	-8
328.070	1	4
328.241	1	-6
328.412	1	5
328.583	1	-4
328.754	1	1
328.926	1	3
329.097	1	10
329.268	1	1
329.439	1	7
329.610	1	-4
329.781	1	-12
329.952	1	9
330.123	1	12
330.294	1	7
330.465	1	8
330.636	1	2
330.807	1	9
330.978	1	3
331.149	1	7
331.320	1	1
331.492	1	-8
331.663	1	-11
331.834	1	10
332.005	1	13
332.176	1	3
332.347	1	10
332.518	1	8
332.689	1	3
332.860	1	-10
333.031	1	5
333.202	1	-3
333.373	1	2
333.544	1	-3
333.715	1	3
333.886	1	1
334.057	1	-5
334.228	1	-1
334.399	1	1
334.570	1	1
334.741	1	-11
334.912	1	3
335.084	1	-3
335.255	1	7
335.426	1	-3
335.597	1	10
335.768	1	1
335.939	1	7
336.110	1	-8
336.281	1	-5
336.452	1	-2
336.623	1	14
336.794	1	-7
336.965	1	1
337.136	1	-1
337.307	1	9
337.478	1	8
337.649	1	1
337.820	1	16
337.991	1	9
338.162	1	4
338.333	1	0
338.504	1	-3
338.675	1	-2
338.846	1	3
339.017	1	1
339.188	1	4
339.359	1	-1
339.530	1	0
339.701	1	-4
339.872	1	8
340.043	1	5
340.214	1	-2
340.385	1	4
340.556	1	4
340.727	1	-5
340.898	1	2
341.069	1	1
341.240	1	4
341.411	1	6
341.582	1	2
341.753	1	1
341.924	1	-4
342.095	1	6
342.266	1	0
342.437	1	4
342.608	1	-5
342.779	1	1
342.950	1	4
343.121	1	9
343.292	1	0
343.463	1	-4
343.634	1	-4
343.805	1	3
343.976	1	2
344.147	1	5
344.318	1	5
344.489	1	-4
344.660	1	12
344.831	1	-2
345.002	1	4
345.173	1	-3
345.344	1	1
345.515	1	-9
345.686	1	5
345.857	1	0
346.028	1	-1
346.199	1	-4
346.370	1	-3
346.541	1	1
346.712	1	10
346.883	1	6
347.054	1	8
347.225	1	4
347.396	1	8
347.567	1	2
347.738	1	12
347.909	1	5
348.080	1	5
348.251	1	5
348.422	1	-2
348.593	1	2
348.764	1	5
348.935	1	10
349.106	1	9
349.277	1	-8
349.448	1	-1
349.619	1	2
349.790	1	2
349.961	1	13
350.132	1	8
350.303	1	-8
350.474	1	10
350.645	1	4
350.816	1	3
350.987	1	4
351.157	1	3
351.328	1	5
351.499	1	6
351.670	1	6
351.841	1	6
352.012	1	1
352.183	1	3
352.354	1	11
352.525	1	3
352.696	1	-3
352.867	1	3
353.038	1	23
353.209	1	3
353.380	1	6
353.551	1	5
353.722	1	8
353.893	1	9
354.064	1	6
354.235	1	2
354.406	1	7
354.576	1	17
354.747	1	-3
354.918	1	-6
355.089	1	5
355.260	1	0
355.431	1	15
355.602	1	16
355.773	1	-2
355.944	1	13
356.115	1	6
356.286	1	13
356.457	1	2
356.628	1	8
356.799	1	4
356.970	1	7
357.141	1	5
357.311	1	2
357.482	1	-2
357.653	1	4
357.824	1	12
357.995	1	18
358.166	1	13
358.337	1	15
358.508	1	17
358.679	1	20
358.850	1	10
359.021	1	4
359.192	1	15
359.363	1	15
359.533	1	11
359.704	1	8
359.875	1	15
360.046	1	8
360.217	1	25
360.388	1	25
360.559	1	22
360.730	1	15
360.901	1	27
361.072	1	10
361.243	1	21
361.414	1	29
361.584	1	31
361.755	1	19
361.926	1	26
362.097	1	30
362.268	1	26
362.439	1	23
362.610	1	23
362.781	1	18
362.952	1	41
363.123	1	28
363.293	1	27
363.464	1	42
363.635	1	33
363.806	1	41
363.977	1	43
364.148	1	44
364.319	1	46
364.490	1	38
364.661	1	44
364.832	1	47
365.002	1	51
365.173	1	47
365.344	1	54
365.515	1	52
365.686	1	54
365.857	1	57
366.028	1	54
366.199	1	54
366.370	1	51
366.540	1	60
366.711	1	62
366.882	1	50
367.053	1	57
367.224	1	52
367.395	1	50
367.566	1	47
367.737	1	40
367.908	1	50
368.078	1	53
368.249	1	51
368.420	1	42
368.591	1	54
368.762	1	34
368.933	1	52
369.104	1	41
369.274	1	39
369.445	1	46
369.616	1	32
369.787	1	48
369.958	1	38
370.129	1	43
370.300	1	36
370.471	1	45
370.641	1	40
370.812	1	34
370.983	1	37
371.154	1	35
371.325	1	32
371.496	1	24
371.667	1	27
371.837	1	26
372.008	1	36
372.179	1	33
372.350	1	28
372.521	1	26
372.692	1	30
372.863	1	29
373.033	1	32
373.204	1	31
373.375	1	31
373.546	1	29
373.717	1	29
373.888	1	21
374.059	1	32
374.229	1	5
374.400	1	16
374.571	1	25
374.742	1	32
374.913	1	7
375.084	1	18
375.254	1	17
375.425	1	22
375.596	1	6
375.767	1	20
375.938	1	23
376.109	1	15
376.279	1	17
376.450	1	13
376.621	1	33
376.792	1	8
376.963	1	21
377.134	1	9
377.304	1	23
377.475	1	19
377.646	1	22
377.817	1	37
377.988	1	20
378.159	1	15
378.329	1	22
378.500	1	11
378.671	1	15
378.842	1	13
379.013	1	6
379.184	1	14
379.354	1	17
379.525	1	26
379.696	1	9
379.867	1	14
380.038	1	21
380.209	1	24
380.379	1	14
380.550	1	20
380.721	1	32
380.892	1	23
381.063	1	27
381.233	1	31
381.404	1	28
381.575	1	24
381.746	1	38
381.917	1	21
382.087	1	40
382.258	1	48
382.429	1	41
382.600	1	40
382.771	1	51
382.941	1	49
383.112	1	54
383.283	1	54
383.454	1	50
383.625	1	43
383.795	1	62
383.966	1	52
384.137	1	56
384.308	1	71
384.479	1	78
384.649	1	63
384.820	1	64
384.991	1	65
385.162	1	76
385.333	1	71
385.503	1	67
385.674	1	69
385.845	1	80
386.016	1	73
386.187	1	88
386.357	1	83
386.528	1	79
386.699	1	97
386.870	1	88
387.041	1	70
387.211	1	72
387.382	1	73
387.553	1	74
387.724	1	78
387.894	1	88
388.065	1	74
388.236	1	74
388.407	1	79
388.578	1	71
388.748	1	88
388.919	1	61
389.090	1	75
389.261	1	54
389.431	1	78
389.602	1	70
389.773	1	72
389.944	1	64
390.114	1	77
390.285	1	64
390.456	1	67
390.627	1	57
390.798	1	76
390.968	1	65
391.139	1	61
391.310	1	73
391.481	1	70
391.651	1	64
391.822	1	74
391.993	1	65
392.164	1	62
392.334	1	69
392.505	1	54
392.676	1	59
392.847	1	66
393.017	1	60
393.188	1	64
393.359	1	62
393.530	1	55
393.700	1	55
393.871	1	51
394.042	1	68
394.213	1	63
394.383	1	62
394.554	1	69
394.725	1	77
394.896	1	62
395.066	1	69
395.237	1	74
395.408	1	68
395.579	1	73
395.749	1	73
395.920	1	76
396.091	1	74
396.262	1	79
396.432	1	55
396.603	1	80
396.774	1	67
396.945	1	82
397.115	1	73
397.286	1	87
397.457	1	56
397.627	1	75
397.798	1	72
397.969	1	67
398.140	1	67
398.310	1	69
398.481	1	76
398.652	1	69
398.823	1	78
398.993	1	54
399.164	1	71
399.335	1	65
399.505	1	51
399.676	1	80
399.847	1	58
400.018	1	65
400.188	1	70
400.359	1	68
400.530	1	62
400.700	1	51
400.871	1	55
401.042	1	47
401.213	1	56
401.383	1	61
401.554	1	59
401.725	1	45
401.895	1	50
402.066	1	42
402.237	1	66
402.408	1	46
402.578	1	48
402.749	1	45
402.920	1	40
403.090	1	54
403.261	1	54
403.432	1	49
403.603	1	45
403.773	1	56
403.944	1	55
404.115	1	39
404.285	1	47
404.456	1	54
404.627	1	47
404.797	1	62
404.968	1	40
405.139	1	41
405.310	1	53
405.480	1	45
405.651	1	41
405.822	1	54
405.992	1	47
406.163	1	55
406.334	1	50
406.504	1	55
406.675	1	53
406.846	1	41
407.016	1	39
407.187	1	42
407.358	1	47
407.528	1	52
407.699	1	55
407.870	1	45
408.041	1	50
408.211	1	44
408.382	1	48
408.553	1	46
408.723	1	40
408.894	1	34
409.065	1	49
409.235	1	40
409.406	1	44
409.577	1	52
409.747	1	49
409.918	1	45
410.089	1	41
410.259	1	39
410.430	1	47
410.601	1	36
410.771	1	42
410.942	1	43
411.113	1	47
411.283	1	41
411.454	1	40
411.625	1	29
411.795	1	42
411.966	1	31
412.137	1	35
412.307	1	36
412.478	1	46
412.649	1	34
412.819	1	38
412.990	1	47
413.161	1	27
413.331	1	22
413.502	1	47
413.672	1	22
413.843	1	28
414.014	1	42
414.184	1	28
414.355	1	31
414.526	1	29
414.696	1	32
414.867	1	41
415.038	1	27
415.208	1	23
415.379	1	38
415.550	1	31
415.720	1	27
415.891	1	36
416.062	1	13
416.232	1	11
416.403	1	30
416.573	1	29
416.744	1	21
416.915	1	30
417.085	1	26
417.256	1	22
417.427	1	34
417.597	1	21
417.768	1	16
417.939	1	39
418.109	1	34
418.280	1	35
418.450	1	18
418.621	1	33
418.792	1	27
418.962	1	22
419.133	1	36
419.304	1	32
419.474	1	17
419.645	1	33
419.815	1	33
419.986	1	29
420.157	1	28
420.327	1	42
420.498	1	24
420.669	1	23
420.839	1	29
421.010	1	28
421.180	1	15
421.351	1	25
421.522	1	22
421.692	1	23
421.863	1	22
422.033	1	9
422.204	1	8
422.375	1	14
422.545	1	29
422.716	1	21
422.886	1	13
423.057	1	12
423.228	1	8
423.398	1	23
423.569	1	18
423.740	1	12
423.910	1	4
424.081	1	7
424.251	1	17
424.422	1	21
424.593	1	25
424.763	1	9
424.934	1	12
425.104	1	19
425.275	1	11
425.445	1	21
425.616	1	19
425.787	1	3
425.957	1	22
426.128	1	3
426.298	1	14
426.469	1	21
426.640	1	11
426.810	1	22
426.981	1	12
427.151	1	20
427.322	1	24
427.493	1	1
427.663	1	16
427.834	1	5
428.004	1	24
428.175	1	17
428.345	1	15
428.516	1	21
428.687	1	13
428.857	1	16
429.028	1	8
429.198	1	7
429.369	1	11
429.540	1	25
429.710	1	15
429.881	1	24
430.051	1	18
430.222	1	6
430.392	1	13
430.563	1	20
430.734	1	13
430.904	1	11
431.075	1	13
431.245	1	23
431.416	1	15
431.586	1	5
431.757	1	23
431.927	1	19
432.098	1	13
432.269	1	13
432.439	1	-4
432.610	1	3
432.780	1	5
432.951	1	13
433.121	1	12
433.292	1	14
433.462	1	22
433.633	1	-1
433.804	1	-1
433.974	1	-10
434.145	1	12
434.315	1	15
434.486	1	19
434.656	1	11
434.827	1	12
434.997	1	11
435.168	1	7
435.339	1	22
435.509	1	21
435.680	1	0
435.850	1	12
436.021	1	21
436.191	1	6
436.362	1	11
436.532	1	10
436.703	1	5
436.873	1	0
437.044	1	13
437.214	1	6
437.385	1	7
437.556	1	5
437.726	1	4
437.897	1	14
438.067	1	-1
438.238	1	2
438.408	1	12
438.579	1	11
438.749	1	17
438.920	1	6
439.090	1	20
439.261	1	16
439.431	1	9
439.602	1	5
439.772	1	4
439.943	1	17
440.113	1	1
440.284	1	14
440.455	1	4
440.625	1	6
440.796	1	9
440.966	1	7
441.137	1	1
441.307	1	9
441.478	1	13
441.648	1	10
441.819	1	3
441.989	1	6
442.160	1	6
442.330	1	9
442.501	1	2
442.671	1	5
442.842	1	16
443.012	1	13
443.183	1	5
443.353	1	4
443.524	1	7
443.694	1	16
443.865	1	9
444.035	1	6
444.206	1	6
444.376	1	11
444.547	1	3
444.717	1	17
444.888	1	0
445.058	1	9
445.229	1	9
445.399	1	8
445.570	1	10
445.740	1	4
445.911	1	13
446.081	1	11
446.252	1	1
446.422	1	-3
446.593	1	10
446.763	1	19
446.934	1	12
447.104	1	-2
447.275	1	-1
447.445	1	4
447.616	1	5
447.786	1	4
447.957	1	1
448.127	1	7
448.298	1	11
448.468	1	8
448.639	1	12
448.809	1	1
448.979	1	11
449.150	1	12
449.320	1	4
449.491	1	0
449.661	1	6
449.832	1	1
450.002	1	1
450.173	1	7
450.343	1	4
450.514	1	5
450.684	1	1
450.855	1	5
451.025	1	12
451.196	1	2
451.366	1	10
451.537	1	-1
451.707	1	5
451.878	1	-1
452.048	1	13
452.218	1	8
452.389	1	6
452.559	1	10
452.730	1	1
452.900	1	1
453.071	1	1
453.241	1	-4
453.412	1	2
453.582	1	21
453.753	1	9
453.923	1	0
454.093	1	4
454.264	1	0
454.434	1	11
454.605	1	6
454.775	1	13
454.946	1	8
455.116	1	1
455.287	1	8
455.457	1	-2
455.628	1	2
455.798	1	-3
455.968	1	9
456.139	1	7
456.309	1	2
456.480	1	1
456.650	1	5
456.821	1	8
456.991	1	18
457.161	1	12
457.332	1	9
457.502	1	7
457.673	1	-2
457.843	1	6
458.014	1	-2
458.184	1	9
458.355	1	11
458.525	1	8
458.695	1	10
458.866	1	2
459.036	1	5
459.207	1	-4
459.377	1	-5
459.548	1	-1
459.718	1	-2
459.888	1	12
460.059	1	-3
460.229	1	13
460.400	1	3
460.570	1	-5
460.740	1	-2
460.911	1	10
461.081	1	3
461.252	1	5
461.422	1	-4
461.593	1	7
461.763	1	-4
461.933	1	-5
462.104	1	10
462.274	1	3
462.445	1	-10
462.615	1	3
462.785	1	6
462.956	1	7
463.126	1	-7
463.297	1	0
463.467	1	8
463.638	1	18
463.808	1	4
463.978	1	0
464.149	1	1
464.319	1	11
464.490	1	7
464.660	1	1
464.830	1	6
465.001	1	12
465.171	1	2
465.342	1	1
465.512	1	2
465.682	1	4
465.853	1	5
466.023	1	1
466.194	1	6
466.364	1	7
466.534	1	1
466.705	1	13
466.875	1	13
467.045	1	23
467.216	1	-13
467.386	1	1
467.557	1	7
467.727	1	5
467.897	1	16
468.068	1	6
468.238	1	1
468.409	1	6
468.579	1	11
468.749	1	3
468.920	1	-6
469.090	1	5
469.260	1	7
469.431	1	7
469.601	1	3
469.772	1	-9
469.942	1	12
470.112	1	5
470.283	1	12
470.453	1	0
470.623	1	6
470.794	1	4
470.964	1	1
471.135	1	-4
471.305	1	2
471.475	1	-3
471.646	1	14
471.816	1	10
471.986	1	4
472.157	1	7
472.327	1	3
472.497	1	4
472.668	1	-11
472.838	1	7
473.009	1	10
473.179	1	8
473.349	1	5
473.520	1	11
473.690	1	19
473.860	1	7
474.031	1	9
474.201	1	-5
474.371	1	6
474.542	1	1
474.712	1	6
474.882	1	4
475.053	1	-4
475.223	1	6
475.394	1	15
475.564	1	18
475.734	1	3
475.905	1	1
476.075	1	11
476.245	1	-1
476.416	1	5
476.586	1	12
476.756	1	-3
476.927	1	12
477.097	1	2
477.267	1	-2
477.438	1	9
477.608	1	5
477.778	1	12
477.949	1	13
478.119	1	12
478.289	1	-5
478.460	1	5
478.630	1	2
478.800	1	5
478.971	1	5
479.141	1	18
479.311	1	6
479.482	1	-2
479.652	1	4
479.822	1	8
479.993	1	8
480.163	1	2
480.333	1	0
480.504	1	-1
480.674	1	7
480.844	1	7
481.015	1	4
481.185	1	5
481.355	1	14
481.525	1	4
481.696	1	6
481.866	1	9
482.036	1	5
482.207	1	9
482.377	1	3
482.547	1	4
482.718	1	14
482.888	1	0
483.058	1	2
483.229	1	9
483.399	1	8
483.569	1	12
483.740	1	-11
483.910	1	2
484.080	1	-1
484.250	1	5
484.421	1	5
484.591	1	7
484.761	1	0
484.932	1	11
485.102	1	5
485.272	1	12
485.443	1	11
485.613	1	-8
485.783	1	13
485.953	1	7
486.124	1	9
486.294	1	14
486.464	1	3
486.635	1	20
486.805	1	11
486.975	1	1
487.146	1	9
487.316	1	9
487.486	1	8
487.656	1	0
487.827	1	13
487.997	1	-1
488.167	1	13
488.338	1	25
488.508	1	1
488.678	1	6
488.848	1	12
489.019	1	11
489.189	1	12
489.359	1	16
489.529	1	9
489.700	1	3
489.870	1	-1
490.040	1	-1
490.211	1	19
490.381	1	4
490.551	1	2
490.721	1	7
490.892	1	9
491.062	1	17
491.232	1	8
491.402	1	0
491.573	1	3
491.743	1	8
491.913	1	1
492.084	1	7
492.254	1	6
492.424	1	7
492.594	1	10
492.765	1	23
492.935	1	10
493.105	1	20
493.275	1	11
493.446	1	18
493.616	1	14
493.786	1	8
493.956	1	13
494.127	1	4
494.297	1	14
494.467	1	14
494.637	1	11
494.808	1	17
494.978	1	11
495.148	1	18
495.318	1	26
495.489	1	11
495.659	1	12
495.829	1	17
495.999	1	5
496.170	1	7
496.340	1	10
496.510	1	19
496.680	1	16
496.851	1	18
497.021	1	6
497.191	1	19
497.361	1	15
497.532	1	13
497.702	1	8
497.872	1	9
498.042	1	20
498.213	1	21
498.383	1	13
498.553	1	16
498.723	1	18
498.894	1	17
499.064	1	25
499.234	1	10
499.404	1	8
499.574	1	10
499.745	1	17
499.915	1	16
500.085	1	13
500.255	1	21
500.426	1	27
500.596	1	20
500.766	1	14
500.936	1	19
501.106	1	12
501.277	1	22
501.447	1	12
501.617	1	21
501.787	1	10
501.958	1	12
502.128	1	16
502.298	1	32
502.468	1	32
502.638	1	22
502.809	1	20
502.979	1	20
503.149	1	19
503.319	1	29
503.489	1	21
503.660	1	10
503.830	1	34
504.000	1	13
504.170	1	24
504.340	1	22
504.511	1	33
504.681	1	15
504.851	1	22
505.021	1	15
505.192	1	31
505.362	1	24
505.532	1	27
505.702	1	24
505.872	1	10
506.043	1	30
506.213	1	19
506.383	1	23
506.553	1	43
506.723	1	25
506.893	1	32
507.064	1	23
507.234	1	30
507.404	1	29
507.574	1	31
507.744	1	7
507.915	1	30
508.085	1	44
508.255	1	25
508.425	1	29
508.595	1	36
508.766	1	28
508.936	1	28
509.106	1	22
509.276	1	29
509.446	1	20
509.616	1	26
509.787	1	27
509.957	1	28
510.127	1	33
510.297	1	26
510.467	1	36
510.638	1	13
510.808	1	25
510.978	1	24
511.148	1	45
511.318	1	32
511.488	1	36
511.659	1	29
511.829	1	41
511.999	1	45
512.169	1	40
512.339	1	31
512.509	1	31
512.680	1	33
512.850	1	31
513.020	1	37
513.190	1	31
513.360	1	41
513.530	1	38
513.700	1	36
513.871	1	45
514.041	1	20
514.211	1	35
514.381	1	36
514.551	1	40
514.721	1	43
514.892	1	35
515.062	1	37
515.232	1	47
515.402	1	31
515.572	1	28
515.742	1	43
515.912	1	46
516.083	1	35
516.253	1	28
516.423	1	44
516.593	1	32
516.763	1	37
516.933	1	36
517.104	1	44
517.274	1	42
517.444	1	32
517.614	1	38
517.784	1	34
517.954	1	26
518.124	1	46
518.294	1	32
518.465	1	43
518.635	1	33
518.805	1	43
518.975	1	45
519.145	1	46
519.315	1	38
519.485	1	33
519.656	1	42
519.826	1	37
519.996	1	55
520.166	1	45
520.336	1	36
520.506	1	56
520.676	1	41
520.846	1	44
521.017	1	31
521.187	1	33
521.357	1	43
521.527	1	35
521.697	1	47
521.867	1	47
522.037	1	40
522.207	1	29
522.377	1	47
522.548	1	39
522.718	1	38
522.888	1	28
523.058	1	57
523.228	1	51
523.398	1	44
523.568	1	33
523.738	1	42
523.909	1	55
524.079	1	44
524.249	1	40
524.419	1	40
524.589	1	52
524.759	1	45
524.929	1	43
525.099	1	44
525.269	1	47
525.439	1	37
525.610	1	53
525.780	1	52
525.950	1	35
526.120	1	44
526.290	1	42
526.460	1	44
526.630	1	51
526.800	1	35
526.970	1	47
527.140	1	37
527.311	1	55
527.481	1	56
527.651	1	64
527.821	1	35
527.991	1	47
528.161	1	44
528.331	1	56
528.501	1	38
528.671	1	51
528.841	1	45
529.011	1	41
529.181	1	47
529.352	1	52
529.522	1	42
529.692	1	53
529.862	1	48
530.032	1	43
530.202	1	46
530.372	1	40
530.542	1	49
530.712	1	60
530.882	1	49
531.052	1	53
531.222	1	37
531.392	1	44
531.563	1	54
531.733	1	54
531.903	1	56
532.073	1	42
532.243	1	44
532.413	1	61
532.583	1	45
532.753	1	51
532.923	1	50
533.093	1	49
533.263	1	46
533.433	1	51
533.603	1	49
533.773	1	49
533.943	1	42
534.113	1	53
534.284	1	45
534.454	1	41
534.624	1	49
534.794	1	50
534.964	1	31
535.134	1	46
535.304	1	52
535.474	1	49
535.644	1	54
535.814	1	50
535.984	1	46
536.154	1	41
536.324	1	55
536.494	1	69
536.664	1	61
536.834	1	47
537.004	1	63
537.174	1	43
537.344	1	60
537.514	1	45
537.685	1	48
537.855	1	44
538.025	1	50
538.195	1	54
538.365	1	53
538.535	1	60
538.705	1	39
538.875	1	39
539.045	1	46
539.215	1	22
539.385	1	43
539.555	1	34
539.725	1	50
539.895	1	46
540.065	1	41
540.235	1	35
540.405	1	42
540.575	1	50
540.745	1	44
540.915	1	46
541.085	1	42
541.255	1	44
541.425	1	43
541.595	1	32
541.765	1	37
541.935	1	48
542.105	1	49
542.275	1	37
542.445	1	47
542.615	1	41
542.785	1	49
542.955	1	47
543.125	1	34
543.295	1	42
543.465	1	45
543.635	1	45
543.805	1	45
543.975	1	42
544.145	1	43
544.315	1	41
544.485	1	46
544.655	1	37
544.825	1	53
544.995	1	44
545.165	1	43
545.335	1	51
545.505	1	37
545.675	1	50
545.845	1	40
546.015	1	42
546.185	1	38
546.355	1	51
546.525	1	46
546.695	1	38
546.865	1	34
547.035	1	55
547.205	1	42
547.375	1	41
547.545	1	37
547.715	1	40
547.885	1	35
548.055	1	42
548.225	1	29
548.395	1	47
548.565	1	54
548.735	1	47
548.905	1	39
549.075	1	34
549.245	1	41
549.415	1	34
549.585	1	42
549.755	1	49
549.925	1	45
550.095	1	39
550.265	1	39
550.435	1	48
550.605	1	40
550.775	1	35
550.945	1	42
551.115	1	37
551.285	1	37
551.455	1	42
551.625	1	34
551.795	1	40
551.965	1	37
552.135	1	42
552.305	1	39
552.475	1	38
552.645	1	48
552.815	1	33
552.985	1	42
553.155	1	39
553.325	1	49
553.495	1	30
553.665	1	36
553.835	1	35
554.004	1	38
554.174	1	31
554.344	1	27
554.514	1	36
554.684	1	34
554.854	1	44
555.024	1	36
555.194	1	48
555.364	1	32
555.534	1	32
555.704	1	25
555.874	1	31
556.044	1	38
556.214	1	35
556.384	1	27
556.554	1	24
556.724	1	31
556.894	1	35
557.064	1	33
557.234	1	31
557.404	1	15
557.573	1	29
557.743	1	37
557.913	1	27
558.083	1	14
558.253	1	29
558.423	1	20
558.593	1	27
558.763	1	23
558.933	1	39
559.103	1	29
559.273	1	21
559.443	1	36
559.613	1	32
559.783	1	27
559.953	1	31
560.122	1	25
560.292	1	30
560.462	1	31
560.632	1	37
560.802	1	18
560.972	1	47
561.142	1	33
561.312	1	23
561.482	1	32
561.652	1	21
561.822	1	30
561.992	1	35
562.162	1	26
562.331	1	34
562.501	1	26
562.671	1	22
562.841	1	14
563.011	1	28
563.181	1	21
563.351	1	19
563.521	1	30
563.691	1	18
563.861	1	35
564.031	1	26
564.201	1	35
564.370	1	30
564.540	1	25
564.710	1	22
564.880	1	18
565.050	1	17
565.220	1	27
565.390	1	15
565.560	1	29
565.730	1	19
565.900	1	24
566.069	1	28
566.239	1	16
566.409	1	17
566.579	1	34
566.749	1	25
566.919	1	19
567.089	1	33
567.259	1	32
567.429	1	20
567.599	1	31
567.768	1	24
567.938	1	23
568.108	1	25
568.278	1	13
568.448	1	8
568.618	1	22
568.788	1	15
568.958	1	19
569.128	1	30
569.297	1	29
569.467	1	18
569.637	1	25
569.807	1	16
569.977	1	20
570.147	1	15
570.317	1	31
570.487	1	24
570.656	1	16
570.826	1	24
570.996	1	15
571.166	1	22
571.336	1	20
571.506	1	16
571.676	1	29
571.846	1	23
572.015	1	11
572.185	1	19
572.355	1	30
572.525	1	16
572.695	1	20
572.865	1	21
573.035	1	23
573.205	1	27
573.374	1	21
573.544	1	10
573.714	1	26
573.884	1	17
574.054	1	14
574.224	1	19
574.394	1	12
574.563	1	15
574.733	1	10
574.903	1	15
575.073	1	25
575.243	1	6
575.413	1	24
575.583	1	22
575.752	1	14
575.922	1	22
576.092	1	24
576.262	1	14
576.432	1	12
576.602	1	18
576.772	1	19
576.941	1	13
577.111	1	22
577.281	1	19
577.451	1	11
577.621	1	10
577.791	1	19
577.960	1	14
578.130	1	12
578.300	1	10
578.470	1	12
578.640	1	16
578.810	1	20
578.979	1	19
579.149	1	8
579.319	1	31
579.489	1	12
579.659	1	15
579.829	1	22
579.998	1	9
580.168	1	16
580.338	1	5
580.508	1	13
580.678	1	18
580.848	1	16
581.017	1	18
581.187	1	16
581.357	1	11
581.527	1	16
581.697	1	0
581.867	1	14
582.036	1	15
582.206	1	4
582.376	1	12
582.546	1	18
582.716	1	12
582.885	1	18
583.055	1	16
583.225	1	18
583.395	1	18
583.565	1	23
583.735	1	5
583.904	1	13
584.074	1	12
584.244	1	17
584.414	1	12
584.584	1	17
584.753	1	12
584.923	1	10
585.093	1	16
585.263	1	15
585.433	1	10
585.602	1	7
585.772	1	12
585.942	1	13
586.112	1	10
586.282	1	15
586.451	1	12
586.621	1	9
586.791	1	17
586.961	1	11
587.131	1	7
587.300	1	1
587.470	1	4
587.640	1	2
587.810	1	18
587.980	1	15
588.149	1	15
588.319	1	21
588.489	1	10
588.659	1	10
588.829	1	10
588.998	1	3
589.168	1	14
589.338	1	9
589.508	1	14
589.677	1	6
589.847	1	12
590.017	1	1
590.187	1	18
590.357	1	9
590.526	1	12
590.696	1	20
590.866	1	13
591.036	1	9
591.205	1	15
591.375	1	3
591.545	1	-4
591.715	1	7
591.885	1	15
592.054	1	5
592.224	1	14
592.394	1	15
592.564	1	7
592.733	1	3
592.903	1	6
593.073	1	13
593.243	1	7
593.412	1	9
593.582	1	20
593.752	1	4
593.922	1	4
594.091	1	8
594.261	1	11
594.431	1	11
594.601	1	-3
594.771	1	15
594.940	1	2
595.110	1	13
595.280	1	7
595.450	1	13
595.619	1	13
595.789	1	12
595.959	1	2
596.129	1	2
596.298	1	13
596.468	1	0
596.638	1	13
596.808	1	18
596.977	1	14
597.147	1	14
597.317	1	14
597.487	1	11
597.656	1	6
597.826	1	13
597.996	1	-1
598.166	1	1
598.335	1	9
598.505	1	13
598.675	1	7
598.844	1	2
599.014	1	10
599.184	1	5
599.354	1	2
599.523	1	11
599.693	1	16
599.863	1	16
600.033	1	-1
600.202	1	10
600.372	1	8
600.542	1	7
600.712	1	11
600.881	1	7
601.051	1	14
601.221	1	-2
601.390	1	1
601.560	1	9
601.730	1	6
601.900	1	14
602.069	1	11
602.239	1	7
602.409	1	10
602.578	1	7
602.748	1	11
602.918	1	9
603.088	1	13
603.257	1	13
603.427	1	8
603.597	1	18
603.767	1	4
603.936	1	11
604.106	1	14
604.276	1	5
604.445	1	17
604.615	1	10
604.785	1	8
604.954	1	3
605.124	1	9
605.294	1	15
605.464	1	8
605.633	1	13
605.803	1	17
605.973	1	2
606.142	1	9
606.312	1	7
606.482	1	2
606.652	1	-5
606.821	1	16
606.991	1	10
607.161	1	5
607.330	1	7
607.500	1	7
607.670	1	12
607.839	1	1
608.009	1	-7
608.179	1	11
608.348	1	4
608.518	1	2
608.688	1	12
608.858	1	16
609.027	1	4
609.197	1	-5
609.367	1	11
609.536	1	3
609.706	1	4
609.876	1	5
610.045	1	15
610.215	1	4
610.385	1	9
610.554	1	0
610.724	1	7
610.894	1	18
611.063	1	13
611.233	1	2
611.403	1	2
611.572	1	12
611.742	1	6
611.912	1	7
612.081	1	4
612.251	1	6
612.421	1	21
612.590	1	13
612.760	1	16
612.930	1	6
613.099	1	-2
613.269	1	-1
613.439	1	5
613.608	1	7
613.778	1	18
613.948	1	9
614.117	1	13
614.287	1	2
614.457	1	4
614.626	1	10
614.796	1	7
614.966	1	14
615.135	1	1
615.305	1	6
615.475	1	12
615.644	1	-5
615.814	1	17
615.984	1	7
616.153	1	13
616.323	1	1
616.493	1	5
616.662	1	10
616.832	1	7
617.002	1	-2
617.171	1	-2
617.341	1	16
617.511	1	3
617.680	1	1
617.850	1	2
618.019	1	8
618.189	1	-2
618.359	1	5
618.528	1	5
618.698	1	13
618.868	1	12
619.037	1	6
619.207	1	2
619.377	1	-6
619.546	1	6
619.716	1	-4
619.885	1	5
620.055	1	14
620.225	1	6
620.394	1	14
620.564	1	-4
620.734	1	10
620.903	1	10
621.073	1	5
621.242	1	-10
621.412	1	8
621.582	1	5
621.751	1	11
621.921	1	5
622.091	1	13
622.260	1	1
622.430	1	9
622.599	1	8
622.769	1	5
622.939	1	2
623.108	1	0
623.278	1	6
623.448	1	-3
623.617	1	12
623.787	1	-1
623.956	1	5
624.126	1	8
624.296	1	-2
624.465	1	10
624.635	1	13
624.804	1	4
624.974	1	3
625.144	1	7
625.313	1	9
625.483	1	10
625.652	1	9
625.822	1	4
625.992	1	4
626.161	1	12
626.331	1	11
626.501	1	-3
626.670	1	4
626.840	1	12
627.009	1	-7
627.179	1	5
627.348	1	2
627.518	1	8
627.688	1	5
627.857	1	6
628.027	1	10
628.196	1	11
628.366	1	15
628.536	1	4
628.705	1	13
628.875	1	9
629.044	1	13
629.214	1	9
629.384	1	0
629.553	1	12
629.723	1	9
629.892	1	4
630.062	1	8
630.232	1	18
630.401	1	-2
630.571	1	6
630.740	1	8
630.910	1	11
631.079	1	8
631.249	1	2
631.419	1	0
631.588	1	0
631.758	1	2
631.927	1	5
632.097	1	3
632.266	1	5
632.436	1	-7
632.606	1	16
632.775	1	-3
632.945	1	10
633.114	1	14
633.284	1	-1
633.453	1	2
633.623	1	2
633.793	1	4
633.962	1	9
634.132	1	7
634.301	1	-10
634.471	1	2
634.640	1	7
634.810	1	9
634.979	1	7
635.149	1	4
635.319	1	13
635.488	1	8
635.658	1	-1
635.827	1	-2
635.997	1	9
636.166	1	-1
636.336	1	10
636.505	1	5
636.675	1	2
636.845	1	14
637.014	1	0
637.184	1	-3
637.353	1	13
637.523	1	5
637.692	1	7
637.862	1	-7
638.031	1	14
638.201	1	12
638.370	1	7
638.540	1	8
638.710	1	4
638.879	1	0
639.049	1	11
639.218	1	5
639.388	1	6
639.557	1	17
639.727	1	2
639.896	1	5
640.066	1	17
640.235	1	13
640.405	1	6
640.574	1	5
640.744	1	-2
640.914	1	3
641.083	1	-3
641.253	1	-4
641.422	1	-4
641.592	1	-5
641.761	1	6
641.931	1	9
642.100	1	0
642.270	1	3
642.439	1	1
642.609	1	16
642.778	1	-2
642.948	1	8
643.117	1	1
643.287	1	8
643.456	1	14
643.626	1	10
643.795	1	11
643.965	1	-9
644.134	1	19
644.304	1	-4
644.473	1	6
644.643	1	-1
644.812	1	5
644.982	1	11
645.151	1	5
645.321	1	14
645.490	1	11
645.660	1	0
645.829	1	-5
645.999	1	4
646.168	1	4
646.338	1	10
646.507	1	-1
646.677	1	3
646.846	1	17
647.016	1	13
647.185	1	2
647.355	1	-3
647.524	1	12
647.694	1	2
647.863	1	-4
648.033	1	-7
648.202	1	6
648.372	1	10
648.541	1	3
648.711	1	6
648.880	1	2
649.050	1	1
649.219	1	5
649.389	1	14
649.558	1	2
649.728	1	7
649.897	1	8
650.067	1	0
650.236	1	4
650.406	1	1
650.575	1	3
650.745	1	-3
650.914	1	0
651.084	1	3
651.253	1	8
651.423	1	13
651.592	1	0
651.762	1	10
651.931	1	9
652.101	1	5
652.270	1	2
652.440	1	7
652.609	1	10
652.778	1	-1
652.948	1	5
653.117	1	-3
653.287	1	14
653.456	1	1
653.626	1	15
653.795	1	11
653.965	1	10
654.134	1	3
654.304	1	3
654.473	1	12
654.643	1	16
654.812	1	4
654.982	1	-5
655.151	1	3
655.320	1	-11
655.490	1	12
655.659	1	9
655.829	1	3
655.998	1	11
656.168	1	4
656.337	1	-6
656.507	1	16
656.676	1	-4
656.846	1	-5
657.015	1	9
657.184	1	1
657.354	1	7
657.523	1	2
657.693	1	13
657.862	1	6
658.032	1	15
658.201	1	-1
658.371	1	-10
658.540	1	5
658.709	1	3
658.879	1	3
659.048	1	5
659.218	1	5
659.387	1	3
659.557	1	5
659.726	1	-2
659.895	1	4
660.065	1	1
660.234	1	10
660.404	1	9
660.573	1	0
660.743	1	-6
660.912	1	-7
661.081	1	4
661.251	1	7
661.420	1	6
661.590	1	6
661.759	1	5
661.929	1	-2
662.098	1	-3
662.267	1	18
662.437	1	4
662.606	1	-3
662.776	1	11
662.945	1	2
663.115	1	2
663.284	1	-1
663.453	1	8
663.623	1	-1
663.792	1	8
663.962	1	-7
664.131	1	1
664.300	1	5
664.470	1	2
664.639	1	2
664.809	1	7
664.978	1	0
665.148	1	-1
665.317	1	-3
665.486	1	4
665.656	1	2
665.825	1	8
665.995	1	11
666.164	1	9
666.333	1	15
666.503	1	9
666.672	1	-5
666.842	1	-1
667.011	1	5
667.180	1	6
667.350	1	5
667.519	1	2
667.689	1	2
667.858	1	15
668.027	1	2
668.197	1	11
668.366	1	0
668.536	1	6
668.705	1	5
668.874	1	-8
669.044	1	-4
669.213	1	6
669.382	1	-4
669.552	1	11
669.721	1	0
669.891	1	6
670.060	1	4
670.229	1	-3
670.399	1	19
670.568	1	7
670.738	1	1
670.907	1	-4
671.076	1	12
671.246	1	3
671.415	1	5
671.584	1	-4
671.754	1	-12
671.923	1	-2
672.093	1	8
672.262	1	2
672.431	1	-2
672.601	1	0
672.770	1	8
672.939	1	0
673.109	1	5
673.278	1	5
673.448	1	7
673.617	1	6
673.786	1	2
