325.333	1	2
325.504	1	13
325.675	1	7
325.846	1	2
326.017	1	-11
326.188	1	20
326.359	1	9
326.531	1	-8
326.702	1	-2
326.873	1	17
327.044	1	3
327.215	1	1
327.386	1	6
327.557	1	12
327.728	1	1
327.899	1	-6
328.070	1	11
328.241	1	-5
328.412	1	17
328.583	1	-1
328.754	1	8
328.926	1	7
329.097	1	3
329.268	1	1
329.439	1	6
329.610	1	-5
329.781	1	-4
329.952	1	14
330.123	1	6
330.294	1	12
330.465	1	6
330.636	1	5
330.807	1	9
330.978	1	-2
331.149	1	12
331.320	1	10
331.492	1	-3
331.663	1	-2
331.834	1	12
332.005	1	15
332.176	1	-1
332.347	1	16
332.518	1	11
332.689	1	3
332.860	1	11
333.031	1	7
333.202	1	-4
333.373	1	2
333.544	1	-3
333.715	1	3
333.886	1	10
334.057	1	-2
334.228	1	2
334.399	1	11
334.570	1	0
334.741	1	-4
334.912	1	6
335.084	1	-8
335.255	1	-2
335.426	1	0
335.597	1	3
335.768	1	8
335.939	1	4
336.110	1	3
336.281	1	2
336.452	1	3
336.623	1	9
336.794	1	9
336.965	1	-6
337.136	1	1
337.307	1	10
337.478	1	11
337.649	1	8
337.820	1	14
337.991	1	13
338.162	1	7
338.333	1	5
338.504	1	3
338.675	1	6
338.846	1	0
339.017	1	2
339.188	1	-2
339.359	1	9
339.530	1	12
339.701	1	6
339.872	1	2
340.043	1	3
340.214	1	3
340.385	1	8
340.556	1	5
340.727	1	5
340.898	1	1
341.069	1	6
341.240	1	8
341.411	1	9
341.582	1	12
341.753	1	6
341.924	1	-1
342.095	1	12
342.266	1	1
342.437	1	3
342.608	1	-4
342.779	1	10
342.950	1	7
343.121	1	13
343.292	1	1
343.463	1	4
343.634	1	-6
343.805	1	17
343.976	1	8
344.147	1	9
344.318	1	12
344.489	1	6
344.660	1	17
344.831	1	1
345.002	1	15
345.173	1	3
345.344	1	9
345.515	1	-2
345.686	1	8
345.857	1	-4
346.028	1	5
346.199	1	5
346.370	1	8
346.541	1	7
346.712	1	10
346.883	1	3
347.054	1	10
347.225	1	1
347.396	1	13
347.567	1	10
347.738	1	12
347.909	1	13
348.080	1	4
348.251	1	3
348.422	1	4
348.593	1	7
348.764	1	13
348.935	1	12
349.106	1	6
349.277	1	-1
349.448	1	2
349.619	1	15
349.790	1	14
349.961	1	12
350.132	1	7
350.303	1	12
350.474	1	7
350.645	1	9
350.816	1	2
350.987	1	14
351.157	1	17
351.328	1	7
351.499	1	13
351.670	1	21
351.841	1	14
352.012	1	8
352.183	1	21
352.354	1	17
352.525	1	17
352.696	1	5
352.867	1	10
353.038	1	36
353.209	1	26
353.380	1	18
353.551	1	19
353.722	1	17
353.893	1	19
354.064	1	28
354.235	1	21
354.406	1	17
354.576	1	26
354.747	1	21
354.918	1	14
355.089	1	26
355.260	1	24
355.431	1	30
355.602	1	28
355.773	1	24
355.944	1	27
356.115	1	21
356.286	1	30
356.457	1	27
356.628	1	31
356.799	1	43
356.970	1	31
357.141	1	28
357.311	1	37
357.482	1	40
357.653	1	49
357.824	1	53
357.995	1	46
358.166	1	51
358.337	1	55
358.508	1	62
358.679	1	61
358.850	1	58
359.021	1	59
359.192	1	66
359.363	1	61
359.533	1	62
359.704	1	79
359.875	1	67
360.046	1	81
360.217	1	98
360.388	1	94
360.559	1	90
360.730	1	95
360.901	1	115
361.072	1	106
361.243	1	126
361.414	1	136
361.584	1	135
361.755	1	142
361.926	1	165
362.097	1	161
362.268	1	173
362.439	1	172
362.610	1	191
362.781	1	193
362.952	1	207
363.123	1	216
363.293	1	232
363.464	1	258
363.635	1	260
363.806	1	281
363.977	1	283
364.148	1	296
364.319	1	318
364.490	1	326
364.661	1	343
364.832	1	352
365.002	1	371
365.173	1	370
365.344	1	379
365.515	1	403
365.686	1	406
365.857	1	410
366.028	1	409
366.199	1	412
366.370	1	423
366.540	1	404
366.711	1	427
366.882	1	420
367.053	1	416
367.224	1	405
367.395	1	389
367.566	1	368
367.737	1	360
367.908	1	356
368.078	1	357
368.249	1	345
368.420	1	342
368.591	1	342
368.762	1	298
368.933	1	302
369.104	1	295
369.274	1	291
369.445	1	277
369.616	1	252
369.787	1	268
369.958	1	253
370.129	1	242
370.300	1	211
370.471	1	233
370.641	1	227
370.812	1	219
370.983	1	219
371.154	1	205
371.325	1	193
371.496	1	192
371.667	1	197
371.837	1	189
372.008	1	188
372.179	1	188
372.350	1	162
372.521	1	183
372.692	1	175
372.863	1	163
373.033	1	161
373.204	1	169
373.375	1	155
373.546	1	138
373.717	1	146
373.888	1	136
374.059	1	136
374.229	1	131
374.400	1	149
374.571	1	144
374.742	1	130
374.913	1	113
375.084	1	118
375.254	1	113
375.425	1	113
375.596	1	100
375.767	1	130
375.938	1	109
376.109	1	117
376.279	1	99
376.450	1	103
376.621	1	112
376.792	1	110
376.963	1	104
377.134	1	96
377.304	1	107
377.475	1	103
377.646	1	108
377.817	1	116
377.988	1	104
378.159	1	101
378.329	1	104
378.500	1	98
378.671	1	105
378.842	1	104
379.013	1	104
379.184	1	104
379.354	1	108
379.525	1	116
379.696	1	110
379.867	1	120
380.038	1	119
380.209	1	133
380.379	1	128
380.550	1	138
380.721	1	155
380.892	1	162
381.063	1	150
381.233	1	173
381.404	1	177
381.575	1	195
381.746	1	200
381.917	1	219
382.087	1	236
382.258	1	245
382.429	1	249
382.600	1	279
382.771	1	287
382.941	1	297
383.112	1	318
383.283	1	336
383.454	1	363
383.625	1	371
383.795	1	399
383.966	1	418
384.137	1	437
384.308	1	463
384.479	1	482
384.649	1	486
384.820	1	489
384.991	1	524
385.162	1	533
385.333	1	544
385.503	1	559
385.674	1	564
385.845	1	557
386.016	1	585
386.187	1	581
386.357	1	597
386.528	1	600
386.699	1	596
386.870	1	604
387.041	1	570
387.211	1	561
387.382	1	569
387.553	1	581
387.724	1	556
387.894	1	570
388.065	1	556
388.236	1	572
388.407	1	554
388.578	1	539
388.748	1	551
388.919	1	540
389.090	1	537
389.261	1	500
389.431	1	537
389.602	1	514
389.773	1	529
389.944	1	534
390.114	1	535
390.285	1	502
390.456	1	500
390.627	1	495
390.798	1	521
390.968	1	507
391.139	1	484
391.310	1	495
391.481	1	484
391.651	1	499
391.822	1	470
391.993	1	471
392.164	1	472
392.334	1	473
392.505	1	452
392.676	1	462
392.847	1	438
393.017	1	452
393.188	1	460
393.359	1	446
393.530	1	445
393.700	1	438
393.871	1	458
394.042	1	432
394.213	1	450
394.383	1	454
394.554	1	468
394.725	1	469
394.896	1	441
395.066	1	485
395.237	1	470
395.408	1	501
395.579	1	496
395.749	1	491
395.920	1	502
396.091	1	506
396.262	1	512
396.432	1	493
396.603	1	527
396.774	1	535
396.945	1	524
397.115	1	548
397.286	1	541
397.457	1	529
397.627	1	535
397.798	1	510
397.969	1	509
398.140	1	523
398.310	1	537
398.481	1	524
398.652	1	528
398.823	1	505
398.993	1	487
399.164	1	492
399.335	1	490
399.505	1	471
399.676	1	482
399.847	1	476
400.018	1	452
400.188	1	452
400.359	1	426
400.530	1	429
400.700	1	419
400.871	1	417
401.042	1	401
401.213	1	398
401.383	1	393
401.554	1	401
401.725	1	379
401.895	1	389
402.066	1	381
402.237	1	361
402.408	1	380
402.578	1	367
402.749	1	373
402.920	1	330
403.090	1	358
403.261	1	338
403.432	1	362
403.603	1	361
403.773	1	355
403.944	1	354
404.115	1	326
404.285	1	336
404.456	1	349
404.627	1	355
404.797	1	358
404.968	1	353
405.139	1	357
405.310	1	331
405.480	1	344
405.651	1	323
405.822	1	344
405.992	1	330
406.163	1	335
406.334	1	337
406.504	1	323
406.675	1	338
406.846	1	334
407.016	1	324
407.187	1	314
407.358	1	317
407.528	1	329
407.699	1	331
407.870	1	330
408.041	1	301
408.211	1	309
408.382	1	334
408.553	1	318
408.723	1	298
408.894	1	298
409.065	1	312
409.235	1	288
409.406	1	312
409.577	1	312
409.747	1	297
409.918	1	306
410.089	1	310
410.259	1	277
410.430	1	293
410.601	1	276
410.771	1	285
410.942	1	275
411.113	1	266
411.283	1	282
411.454	1	261
411.625	1	270
411.795	1	276
411.966	1	235
412.137	1	259
412.307	1	249
412.478	1	239
412.649	1	243
412.819	1	237
412.990	1	245
413.161	1	231
413.331	1	217
413.502	1	240
413.672	1	222
413.843	1	210
414.014	1	211
414.184	1	220
414.355	1	206
414.526	1	218
414.696	1	197
414.867	1	224
415.038	1	203
415.208	1	206
415.379	1	207
415.550	1	210
415.720	1	195
415.891	1	204
416.062	1	177
416.232	1	191
416.403	1	202
416.573	1	203
416.744	1	201
416.915	1	191
417.085	1	195
417.256	1	191
417.427	1	205
417.597	1	177
417.768	1	180
417.939	1	187
418.109	1	184
418.280	1	177
418.450	1	179
418.621	1	191
418.792	1	169
418.962	1	178
419.133	1	190
419.304	1	183
419.474	1	177
419.645	1	190
419.815	1	171
419.986	1	155
420.157	1	156
420.327	1	181
420.498	1	166
420.669	1	163
420.839	1	161
421.010	1	164
421.180	1	147
421.351	1	151
421.522	1	161
421.692	1	139
421.863	1	133
422.033	1	131
422.204	1	118
422.375	1	126
422.545	1	131
422.716	1	135
422.886	1	128
423.057	1	126
423.228	1	118
423.398	1	126
423.569	1	114
423.740	1	112
423.910	1	101
424.081	1	121
424.251	1	113
424.422	1	126
424.593	1	119
424.763	1	103
424.934	1	117
425.104	1	109
425.275	1	96
425.445	1	103
425.616	1	105
425.787	1	103
425.957	1	118
426.128	1	104
426.298	1	109
426.469	1	105
426.640	1	99
426.810	1	121
426.981	1	93
427.151	1	104
427.322	1	100
427.493	1	108
427.663	1	97
427.834	1	88
428.004	1	98
428.175	1	105
428.345	1	114
428.516	1	93
428.687	1	98
428.857	1	100
429.028	1	95
429.198	1	84
429.369	1	100
429.540	1	91
429.710	1	86
429.881	1	89
430.051	1	97
430.222	1	83
430.392	1	80
430.563	1	84
430.734	1	83
430.904	1	83
431.075	1	89
431.245	1	85
431.416	1	79
431.586	1	72
431.757	1	77
431.927	1	75
432.098	1	66
432.269	1	76
432.439	1	78
432.610	1	72
432.780	1	72
432.951	1	68
433.121	1	74
433.292	1	69
433.462	1	66
433.633	1	74
433.804	1	66
433.974	1	54
434.145	1	71
434.315	1	62
434.486	1	69
434.656	1	70
434.827	1	67
434.997	1	58
435.168	1	51
435.339	1	69
435.509	1	72
435.680	1	59
435.850	1	62
436.021	1	60
436.191	1	62
436.362	1	66
436.532	1	72
436.703	1	63
436.873	1	53
437.044	1	69
437.214	1	63
437.385	1	63
437.556	1	56
437.726	1	51
437.897	1	66
438.067	1	52
438.238	1	57
438.408	1	47
438.579	1	57
438.749	1	58
438.920	1	52
439.090	1	63
439.261	1	44
439.431	1	46
439.602	1	62
439.772	1	52
439.943	1	51
440.113	1	45
440.284	1	57
440.455	1	44
440.625	1	52
440.796	1	51
440.966	1	55
441.137	1	42
441.307	1	45
441.478	1	47
441.648	1	33
441.819	1	51
441.989	1	46
442.160	1	46
442.330	1	48
442.501	1	41
442.671	1	44
442.842	1	50
443.012	1	46
443.183	1	43
443.353	1	47
443.524	1	42
443.694	1	55
443.865	1	36
444.035	1	44
444.206	1	51
444.376	1	39
444.547	1	32
444.717	1	44
444.888	1	41
445.058	1	35
445.229	1	39
445.399	1	40
445.570	1	38
445.740	1	41
445.911	1	47
446.081	1	42
446.252	1	36
446.422	1	36
446.593	1	25
446.763	1	51
446.934	1	42
447.104	1	22
447.275	1	28
447.445	1	37
447.616	1	11
447.786	1	31
447.957	1	36
448.127	1	34
448.298	1	36
448.468	1	32
448.639	1	27
448.809	1	34
448.979	1	30
449.150	1	27
449.320	1	32
449.491	1	22
449.661	1	26
449.832	1	28
450.002	1	25
450.173	1	26
450.343	1	28
450.514	1	19
450.684	1	33
450.855	1	23
451.025	1	26
451.196	1	23
451.366	1	27
451.537	1	22
451.707	1	33
451.878	1	14
452.048	1	23
452.218	1	33
452.389	1	22
452.559	1	19
452.730	1	35
452.900	1	18
453.071	1	24
453.241	1	25
453.412	1	17
453.582	1	28
453.753	1	26
453.923	1	23
454.093	1	22
454.264	1	23
454.434	1	29
454.605	1	26
454.775	1	35
454.946	1	22
455.116	1	21
455.287	1	23
455.457	1	19
455.628	1	28
455.798	1	14
455.968	1	29
456.139	1	33
456.309	1	16
456.480	1	27
456.650	1	21
456.821	1	16
456.991	1	24
457.161	1	22
457.332	1	18
457.502	1	26
457.673	1	17
457.843	1	20
458.014	1	14
458.184	1	16
458.355	1	23
458.525	1	14
458.695	1	20
458.866	1	18
459.036	1	25
459.207	1	15
459.377	1	9
459.548	1	8
459.718	1	10
459.888	1	30
460.059	1	14
460.229	1	31
460.400	1	22
460.570	1	2
460.740	1	4
460.911	1	31
461.081	1	19
461.252	1	18
461.422	1	19
461.593	1	22
461.763	1	10
461.933	1	8
462.104	1	17
462.274	1	25
462.445	1	11
462.615	1	11
462.785	1	15
462.956	1	12
463.126	1	11
463.297	1	12
463.467	1	17
463.638	1	15
463.808	1	24
463.978	1	17
464.149	1	11
464.319	1	10
464.490	1	11
464.660	1	13
464.830	1	14
465.001	1	18
465.171	1	16
465.342	1	17
465.512	1	15
465.682	1	18
465.853	1	13
466.023	1	11
466.194	1	10
466.364	1	18
466.534	1	15
466.705	1	18
466.875	1	15
467.045	1	18
467.216	1	8
467.386	1	10
467.557	1	23
467.727	1	13
467.897	1	16
468.068	1	15
468.238	1	5
468.409	1	15
468.579	1	14
468.749	1	21
468.920	1	13
469.090	1	22
469.260	1	10
469.431	1	21
469.601	1	18
469.772	1	9
469.942	1	16
470.112	1	18
470.283	1	23
470.453	1	22
470.623	1	14
470.794	1	15
470.964	1	19
471.135	1	5
471.305	1	10
471.475	1	9
471.646	1	26
471.816	1	16
471.986	1	12
472.157	1	19
472.327	1	12
472.497	1	12
472.668	1	15
472.838	1	27
473.009	1	17
473.179	1	9
473.349	1	17
473.520	1	23
473.690	1	19
473.860	1	11
474.031	1	12
474.201	1	4
474.371	1	20
474.542	1	16
474.712	1	24
474.882	1	18
475.053	1	14
475.223	1	11
475.394	1	15
475.564	1	23
475.734	1	16
475.905	1	14
476.075	1	15
476.245	1	9
476.416	1	13
476.586	1	9
476.756	1	18
476.927	1	21
477.097	1	12
477.267	1	11
477.438	1	13
477.608	1	20
477.778	1	19
477.949	1	19
478.119	1	15
478.289	1	8
478.460	1	9
478.630	1	21
478.800	1	10
478.971	1	13
479.141	1	17
479.311	1	26
479.482	1	9
479.652	1	15
479.822	1	22
479.993	1	11
480.163	1	7
480.333	1	13
480.504	1	6
480.674	1	20
480.844	1	30
481.015	1	13
481.185	1	22
481.355	1	18
481.525	1	17
481.696	1	23
481.866	1	22
482.036	1	8
482.207	1	22
482.377	1	12
482.547	1	22
482.718	1	29
482.888	1	16
483.058	1	18
483.229	1	28
483.399	1	29
483.569	1	26
483.740	1	5
483.910	1	22
484.080	1	17
484.250	1	23
484.421	1	20
484.591	1	23
484.761	1	29
484.932	1	35
485.102	1	20
485.272	1	36
485.443	1	34
485.613	1	9
485.783	1	41
485.953	1	15
486.124	1	29
486.294	1	36
486.464	1	22
486.635	1	43
486.805	1	48
486.975	1	9
487.146	1	27
487.316	1	33
487.486	1	24
487.656	1	19
487.827	1	40
487.997	1	29
488.167	1	33
488.338	1	55
488.508	1	37
488.678	1	39
488.848	1	23
489.019	1	39
489.189	1	33
489.359	1	28
489.529	1	40
489.700	1	46
489.870	1	37
490.040	1	38
490.211	1	54
490.381	1	40
490.551	1	41
490.721	1	46
490.892	1	49
491.062	1	61
491.232	1	48
491.402	1	37
491.573	1	52
491.743	1	36
491.913	1	57
492.084	1	59
492.254	1	50
492.424	1	50
492.594	1	49
492.765	1	59
492.935	1	46
493.105	1	67
493.275	1	66
493.446	1	53
493.616	1	58
493.786	1	62
493.956	1	62
494.127	1	52
494.297	1	67
494.467	1	50
494.637	1	68
494.808	1	68
494.978	1	63
495.148	1	66
495.318	1	75
495.489	1	73
495.659	1	63
495.829	1	69
495.999	1	78
496.170	1	54
496.340	1	71
496.510	1	68
496.680	1	65
496.851	1	74
497.021	1	84
497.191	1	64
497.361	1	76
497.532	1	72
497.702	1	64
497.872	1	79
498.042	1	83
498.213	1	80
498.383	1	82
498.553	1	96
498.723	1	83
498.894	1	84
499.064	1	91
499.234	1	78
499.404	1	89
499.574	1	83
499.745	1	89
499.915	1	81
500.085	1	77
500.255	1	97
500.426	1	89
500.596	1	94
500.766	1	98
500.936	1	98
501.106	1	109
501.277	1	96
501.447	1	107
501.617	1	108
501.787	1	107
501.958	1	117
502.128	1	109
502.298	1	113
502.468	1	134
502.638	1	122
502.809	1	109
502.979	1	124
503.149	1	119
503.319	1	128
503.489	1	128
503.660	1	124
503.830	1	117
504.000	1	135
504.170	1	138
504.340	1	127
504.511	1	143
504.681	1	142
504.851	1	146
505.021	1	143
505.192	1	149
505.362	1	154
505.532	1	144
505.702	1	141
505.872	1	135
506.043	1	149
506.213	1	162
506.383	1	160
506.553	1	161
506.723	1	168
506.893	1	164
507.064	1	149
507.234	1	172
507.404	1	155
507.574	1	158
507.744	1	154
507.915	1	185
508.085	1	179
508.255	1	182
508.425	1	176
508.595	1	186
508.766	1	179
508.936	1	178
509.106	1	164
509.276	1	186
509.446	1	168
509.616	1	184
509.787	1	170
509.957	1	180
510.127	1	195
510.297	1	192
510.467	1	179
510.638	1	178
510.808	1	185
510.978	1	174
511.148	1	200
511.318	1	191
511.488	1	206
511.659	1	195
511.829	1	200
511.999	1	210
512.169	1	210
512.339	1	195
512.509	1	202
512.680	1	191
512.850	1	191
513.020	1	209
513.190	1	211
513.360	1	211
513.530	1	217
513.700	1	210
513.871	1	217
514.041	1	216
514.211	1	211
514.381	1	211
514.551	1	208
514.721	1	211
514.892	1	206
515.062	1	216
515.232	1	229
515.402	1	230
515.572	1	225
515.742	1	221
515.912	1	238
516.083	1	225
516.253	1	227
516.423	1	230
516.593	1	241
516.763	1	235
516.933	1	246
517.104	1	242
517.274	1	233
517.444	1	242
517.614	1	239
517.784	1	233
517.954	1	238
518.124	1	260
518.294	1	246
518.465	1	253
518.635	1	251
518.805	1	224
518.975	1	247
519.145	1	247
519.315	1	255
519.485	1	233
519.656	1	243
519.826	1	249
519.996	1	255
520.166	1	247
520.336	1	249
520.506	1	264
520.676	1	254
520.846	1	260
521.017	1	256
521.187	1	254
521.357	1	254
521.527	1	246
521.697	1	266
521.867	1	250
522.037	1	249
522.207	1	243
522.377	1	253
522.548	1	249
522.718	1	249
522.888	1	258
523.058	1	277
523.228	1	282
523.398	1	264
523.568	1	257
523.738	1	251
523.909	1	262
524.079	1	276
524.249	1	276
524.419	1	253
524.589	1	270
524.759	1	261
524.929	1	270
525.099	1	268
525.269	1	262
525.439	1	268
525.610	1	261
525.780	1	288
525.950	1	270
526.120	1	272
526.290	1	273
526.460	1	281
526.630	1	286
526.800	1	271
526.970	1	262
527.140	1	266
527.311	1	288
527.481	1	290
527.651	1	278
527.821	1	292
527.991	1	276
528.161	1	299
528.331	1	293
528.501	1	294
528.671	1	274
528.841	1	296
529.011	1	290
529.181	1	283
529.352	1	299
529.522	1	317
529.692	1	283
529.862	1	295
530.032	1	287
530.202	1	299
530.372	1	297
530.542	1	308
530.712	1	330
530.882	1	299
531.052	1	302
531.222	1	278
531.392	1	303
531.563	1	304
531.733	1	315
531.903	1	310
532.073	1	308
532.243	1	296
532.413	1	311
532.583	1	306
532.753	1	299
532.923	1	299
533.093	1	320
533.263	1	316
533.433	1	335
533.603	1	297
533.773	1	296
533.943	1	304
534.113	1	305
534.284	1	310
534.454	1	320
534.624	1	310
534.794	1	301
534.964	1	307
535.134	1	304
535.304	1	318
535.474	1	302
535.644	1	311
535.814	1	308
535.984	1	297
536.154	1	290
536.324	1	307
536.494	1	305
536.664	1	310
536.834	1	310
537.004	1	309
537.174	1	303
537.344	1	304
537.514	1	285
537.685	1	294
537.855	1	303
538.025	1	298
538.195	1	296
538.365	1	300
538.535	1	273
538.705	1	280
538.875	1	291
539.045	1	278
539.215	1	269
539.385	1	289
539.555	1	274
539.725	1	269
539.895	1	270
540.065	1	257
540.235	1	242
540.405	1	275
540.575	1	268
540.745	1	264
540.915	1	272
541.085	1	261
541.255	1	254
541.425	1	257
541.595	1	262
541.765	1	254
541.935	1	258
542.105	1	262
542.275	1	264
542.445	1	275
542.615	1	254
542.785	1	252
542.955	1	255
543.125	1	258
543.295	1	263
543.465	1	275
543.635	1	264
543.805	1	254
543.975	1	261
544.145	1	260
544.315	1	249
544.485	1	259
544.655	1	259
544.825	1	267
544.995	1	255
545.165	1	257
545.335	1	255
545.505	1	259
545.675	1	261
545.845	1	247
546.015	1	255
546.185	1	246
546.355	1	254
546.525	1	247
546.695	1	252
546.865	1	249
547.035	1	255
547.205	1	256
547.375	1	259
547.545	1	241
547.715	1	250
547.885	1	255
548.055	1	243
548.225	1	246
548.395	1	252
548.565	1	245
548.735	1	261
548.905	1	248
549.075	1	243
549.245	1	249
549.415	1	260
549.585	1	247
549.755	1	230
549.925	1	258
550.095	1	257
550.265	1	238
550.435	1	249
550.605	1	250
550.775	1	238
550.945	1	254
551.115	1	233
551.285	1	251
551.455	1	247
551.625	1	247
551.795	1	234
551.965	1	234
552.135	1	239
552.305	1	238
552.475	1	235
552.645	1	232
552.815	1	238
552.985	1	222
553.155	1	239
553.325	1	231
553.495	1	238
553.665	1	226
553.835	1	228
554.004	1	217
554.174	1	224
554.344	1	213
554.514	1	206
554.684	1	233
554.854	1	219
555.024	1	214
555.194	1	229
555.364	1	215
555.534	1	214
555.704	1	223
555.874	1	194
556.044	1	210
556.214	1	200
556.384	1	208
556.554	1	187
556.724	1	190
556.894	1	208
557.064	1	199
557.234	1	193
557.404	1	194
557.573	1	183
557.743	1	194
557.913	1	195
558.083	1	175
558.253	1	172
558.423	1	166
558.593	1	195
558.763	1	190
558.933	1	194
559.103	1	182
559.273	1	177
559.443	1	176
559.613	1	175
559.783	1	166
559.953	1	171
560.122	1	164
560.292	1	169
560.462	1	167
560.632	1	175
560.802	1	169
560.972	1	186
561.142	1	177
561.312	1	167
561.482	1	161
561.652	1	154
561.822	1	163
561.992	1	167
562.162	1	166
562.331	1	157
562.501	1	158
562.671	1	169
562.841	1	165
563.011	1	170
563.181	1	166
563.351	1	152
563.521	1	162
563.691	1	157
563.861	1	161
564.031	1	151
564.201	1	158
564.370	1	152
564.540	1	160
564.710	1	137
564.880	1	140
565.050	1	150
565.220	1	142
565.390	1	140
565.560	1	148
565.730	1	129
565.900	1	153
566.069	1	148
566.239	1	154
566.409	1	141
566.579	1	147
566.749	1	148
566.919	1	145
567.089	1	134
567.259	1	142
567.429	1	138
567.599	1	124
567.768	1	140
567.938	1	138
568.108	1	126
568.278	1	122
568.448	1	118
568.618	1	131
568.788	1	126
568.958	1	130
569.128	1	120
569.297	1	119
569.467	1	126
569.637	1	129
569.807	1	120
569.977	1	127
570.147	1	113
570.317	1	145
570.487	1	132
570.656	1	130
570.826	1	132
570.996	1	113
571.166	1	110
571.336	1	129
571.506	1	110
571.676	1	123
571.846	1	128
572.015	1	110
572.185	1	109
572.355	1	126
572.525	1	108
572.695	1	125
572.865	1	122
573.035	1	118
573.205	1	123
573.374	1	114
573.544	1	101
573.714	1	121
573.884	1	107
574.054	1	111
574.224	1	105
574.394	1	97
574.563	1	118
574.733	1	101
574.903	1	106
575.073	1	100
575.243	1	90
575.413	1	108
575.583	1	100
575.752	1	93
575.922	1	103
576.092	1	103
576.262	1	87
576.432	1	88
576.602	1	98
576.772	1	97
576.941	1	92
577.111	1	110
577.281	1	99
577.451	1	86
577.621	1	96
577.791	1	100
577.960	1	87
578.130	1	90
578.300	1	92
578.470	1	85
578.640	1	91
578.810	1	105
578.979	1	92
579.149	1	81
579.319	1	94
579.489	1	83
579.659	1	102
579.829	1	96
579.998	1	86
580.168	1	99
580.338	1	68
580.508	1	83
580.678	1	97
580.848	1	96
581.017	1	89
581.187	1	91
581.357	1	98
581.527	1	88
581.697	1	80
581.867	1	76
582.036	1	93
582.206	1	77
582.376	1	85
582.546	1	81
582.716	1	83
582.885	1	93
583.055	1	89
583.225	1	85
583.395	1	76
583.565	1	76
583.735	1	74
583.904	1	72
584.074	1	73
584.244	1	72
584.414	1	83
584.584	1	88
584.753	1	77
584.923	1	76
585.093	1	93
585.263	1	81
585.433	1	77
585.602	1	75
585.772	1	81
585.942	1	81
586.112	1	82
586.282	1	84
586.451	1	78
586.621	1	77
586.791	1	68
586.961	1	69
587.131	1	63
587.300	1	70
587.470	1	67
587.640	1	55
587.810	1	71
587.980	1	76
588.149	1	81
588.319	1	67
588.489	1	69
588.659	1	67
588.829	1	73
588.998	1	68
589.168	1	73
589.338	1	72
589.508	1	67
589.677	1	71
589.847	1	69
590.017	1	56
590.187	1	62
590.357	1	58
590.526	1	62
590.696	1	66
590.866	1	72
591.036	1	68
591.205	1	67
591.375	1	55
591.545	1	50
591.715	1	53
591.885	1	67
592.054	1	65
592.224	1	67
592.394	1	66
592.564	1	53
592.733	1	60
592.903	1	63
593.073	1	71
593.243	1	55
593.412	1	50
593.582	1	68
593.752	1	49
593.922	1	51
594.091	1	54
594.261	1	57
594.431	1	48
594.601	1	47
594.771	1	63
594.940	1	47
595.110	1	52
595.280	1	55
595.450	1	55
595.619	1	52
595.789	1	50
595.959	1	56
596.129	1	46
596.298	1	60
596.468	1	52
596.638	1	52
596.808	1	53
596.977	1	47
597.147	1	59
597.317	1	50
597.487	1	56
597.656	1	54
597.826	1	59
597.996	1	49
598.166	1	40
598.335	1	57
598.505	1	45
598.675	1	41
598.844	1	43
599.014	1	45
599.184	1	44
599.354	1	43
599.523	1	45
599.693	1	56
599.863	1	42
600.033	1	45
600.202	1	54
600.372	1	54
600.542	1	43
600.712	1	47
600.881	1	46
601.051	1	63
601.221	1	44
601.390	1	36
601.560	1	37
601.730	1	51
601.900	1	42
602.069	1	45
602.239	1	42
602.409	1	43
602.578	1	48
602.748	1	32
602.918	1	36
603.088	1	52
603.257	1	46
603.427	1	51
603.597	1	54
603.767	1	37
603.936	1	38
604.106	1	43
604.276	1	43
604.445	1	62
604.615	1	46
604.785	1	57
604.954	1	48
605.124	1	29
605.294	1	53
605.464	1	48
605.633	1	49
605.803	1	57
605.973	1	40
606.142	1	45
606.312	1	34
606.482	1	47
606.652	1	31
606.821	1	50
606.991	1	45
607.161	1	44
607.330	1	53
607.500	1	47
607.670	1	40
607.839	1	47
608.009	1	27
608.179	1	41
608.348	1	39
608.518	1	45
608.688	1	50
608.858	1	47
609.027	1	47
609.197	1	42
609.367	1	39
609.536	1	34
609.706	1	42
609.876	1	40
610.045	1	27
610.215	1	24
610.385	1	41
610.554	1	32
610.724	1	35
610.894	1	41
611.063	1	58
611.233	1	32
611.403	1	51
611.572	1	41
611.742	1	30
611.912	1	36
612.081	1	30
612.251	1	45
612.421	1	41
612.590	1	48
612.760	1	43
612.930	1	37
613.099	1	26
613.269	1	43
613.439	1	29
613.608	1	40
613.778	1	41
613.948	1	47
614.117	1	40
614.287	1	28
614.457	1	40
614.626	1	45
614.796	1	44
614.966	1	46
615.135	1	31
615.305	1	22
615.475	1	35
615.644	1	26
615.814	1	35
615.984	1	48
616.153	1	43
616.323	1	41
616.493	1	37
616.662	1	37
616.832	1	35
617.002	1	28
617.171	1	29
617.341	1	36
617.511	1	31
617.680	1	32
617.850	1	34
618.019	1	27
618.189	1	31
618.359	1	30
618.528	1	20
618.698	1	28
618.868	1	29
619.037	1	36
619.207	1	23
619.377	1	11
619.546	1	36
619.716	1	23
619.885	1	29
620.055	1	46
620.225	1	39
620.394	1	28
620.564	1	28
620.734	1	34
620.903	1	46
621.073	1	21
621.242	1	21
621.412	1	36
621.582	1	31
621.751	1	32
621.921	1	38
622.091	1	30
622.260	1	37
622.430	1	28
622.599	1	37
622.769	1	26
622.939	1	21
623.108	1	34
623.278	1	24
623.448	1	21
623.617	1	37
623.787	1	33
623.956	1	22
624.126	1	29
624.296	1	25
624.465	1	25
624.635	1	38
624.804	1	13
624.974	1	19
625.144	1	28
625.313	1	37
625.483	1	29
625.652	1	34
625.822	1	27
625.992	1	17
626.161	1	34
626.331	1	21
626.501	1	22
626.670	1	39
626.840	1	31
627.009	1	20
627.179	1	27
627.348	1	30
627.518	1	21
627.688	1	29
627.857	1	39
628.027	1	24
628.196	1	38
628.366	1	28
628.536	1	26
628.705	1	33
628.875	1	28
629.044	1	28
629.214	1	25
629.384	1	11
629.553	1	27
629.723	1	24
629.892	1	33
630.062	1	26
630.232	1	31
630.401	1	32
630.571	1	18
630.740	1	23
630.910	1	37
631.079	1	25
631.249	1	13
631.419	1	30
631.588	1	15
631.758	1	36
631.927	1	24
632.097	1	26
632.266	1	18
632.436	1	18
632.606	1	27
632.775	1	16
632.945	1	24
633.114	1	34
633.284	1	17
633.453	1	24
633.623	1	19
633.793	1	23
633.962	1	26
634.132	1	29
634.301	1	19
634.471	1	25
634.640	1	33
634.810	1	22
634.979	1	32
635.149	1	22
635.319	1	25
635.488	1	16
635.658	1	22
635.827	1	19
635.997	1	25
636.166	1	21
636.336	1	27
636.505	1	21
636.675	1	31
636.845	1	32
637.014	1	23
637.184	1	25
637.353	1	18
637.523	1	18
637.692	1	17
637.862	1	11
638.031	1	33
638.201	1	27
638.370	1	26
638.540	1	26
638.710	1	23
638.879	1	11
639.049	1	31
639.218	1	24
639.388	1	21
639.557	1	24
639.727	1	10
639.896	1	19
640.066	1	23
640.235	1	27
640.405	1	25
640.574	1	22
640.744	1	15
640.914	1	20
641.083	1	14
641.253	1	14
641.422	1	14
641.592	1	20
641.761	1	10
641.931	1	26
642.100	1	17
642.270	1	15
642.439	1	18
642.609	1	22
642.778	1	19
642.948	1	21
643.117	1	17
643.287	1	29
643.456	1	25
643.626	1	31
643.795	1	18
643.965	1	12
644.134	1	15
644.304	1	22
644.473	1	27
644.643	1	23
644.812	1	37
644.982	1	26
645.151	1	18
645.321	1	31
645.490	1	27
645.660	1	6
645.829	1	17
645.999	1	17
646.168	1	18
646.338	1	24
646.507	1	27
646.677	1	27
646.846	1	24
647.016	1	19
647.185	1	11
647.355	1	21
647.524	1	18
647.694	1	16
647.863	1	9
648.033	1	15
648.202	1	28
648.372	1	27
648.541	1	20
648.711	1	19
648.880	1	13
649.050	1	26
649.219	1	14
649.389	1	20
649.558	1	11
649.728	1	22
649.897	1	17
650.067	1	17
650.236	1	24
650.406	1	20
650.575	1	20
650.745	1	15
650.914	1	16
651.084	1	7
651.253	1	22
651.423	1	20
651.592	1	15
651.762	1	25
651.931	1	21
652.101	1	20
652.270	1	11
652.440	1	25
652.609	1	27
652.778	1	12
652.948	1	11
653.117	1	12
653.287	1	22
653.456	1	27
653.626	1	19
653.795	1	29
653.965	1	23
654.134	1	18
654.304	1	27
654.473	1	20
654.643	1	25
654.812	1	27
654.982	1	1
655.151	1	9
655.320	1	14
655.490	1	18
655.659	1	24
655.829	1	15
655.998	1	21
656.168	1	16
656.337	1	18
656.507	1	22
656.676	1	13
656.846	1	11
657.015	1	19
657.184	1	26
657.354	1	16
657.523	1	13
657.693	1	15
657.862	1	10
658.032	1	25
658.201	1	24
658.371	1	10
658.540	1	14
658.709	1	10
658.879	1	18
659.048	1	18
659.218	1	12
659.387	1	11
659.557	1	14
659.726	1	5
659.895	1	19
660.065	1	24
660.234	1	23
660.404	1	16
660.573	1	10
660.743	1	17
660.912	1	6
661.081	1	19
661.251	1	15
661.420	1	14
661.590	1	22
661.759	1	24
661.929	1	11
662.098	1	1
662.267	1	14
662.437	1	14
662.606	1	21
662.776	1	13
662.945	1	15
663.115	1	3
663.284	1	5
663.453	1	17
663.623	1	10
663.792	1	16
663.962	1	7
664.131	1	6
664.300	1	26
664.470	1	9
664.639	1	16
664.809	1	10
664.978	1	18
665.148	1	10
665.317	1	15
665.486	1	12
665.656	1	8
665.825	1	27
665.995	1	22
666.164	1	21
666.333	1	23
666.503	1	19
666.672	1	-4
666.842	1	-5
667.011	1	23
667.180	1	16
667.350	1	22
667.519	1	17
667.689	1	15
667.858	1	22
668.027	1	11
668.197	1	18
668.366	1	20
668.536	1	9
668.705	1	16
668.874	1	10
669.044	1	9
669.213	1	16
669.382	1	12
669.552	1	27
669.721	1	9
669.891	1	19
670.060	1	21
670.229	1	12
670.399	1	23
670.568	1	14
670.738	1	-4
670.907	1	3
671.076	1	21
671.246	1	21
671.415	1	11
671.584	1	22
671.754	1	4
671.923	1	3
672.093	1	15
672.262	1	22
672.431	1	12
672.601	1	17
672.770	1	14
672.939	1	12
673.109	1	11
673.278	1	14
673.448	1	15
673.617	1	10
673.786	1	5
