325.333	1	-2
325.504	1	1
325.675	1	-3
325.846	1	-2
326.017	1	-7
326.188	1	7
326.359	1	3
326.531	1	-2
326.702	1	1
326.873	1	0
327.044	1	-1
327.215	1	-9
327.386	1	-5
327.557	1	-2
327.728	1	2
327.899	1	-11
328.070	1	2
328.241	1	-2
328.412	1	9
328.583	1	-3
328.754	1	-6
328.926	1	-8
329.097	1	-5
329.268	1	2
329.439	1	-2
329.610	1	-10
329.781	1	-4
329.952	1	10
330.123	1	6
330.294	1	4
330.465	1	-2
330.636	1	1
330.807	1	-1
330.978	1	-5
331.149	1	6
331.320	1	-3
331.492	1	-3
331.663	1	-7
331.834	1	5
332.005	1	7
332.176	1	5
332.347	1	-6
332.518	1	9
332.689	1	-5
332.860	1	-5
333.031	1	-4
333.202	1	-7
333.373	1	-11
333.544	1	1
333.715	1	7
333.886	1	-7
334.057	1	-5
334.228	1	-7
334.399	1	2
334.570	1	-10
334.741	1	-9
334.912	1	-10
335.084	1	-6
335.255	1	5
335.426	1	-9
335.597	1	-3
335.768	1	-1
335.939	1	-1
336.110	1	-11
336.281	1	-6
336.452	1	0
336.623	1	-1
336.794	1	5
336.965	1	-7
337.136	1	-6
337.307	1	6
337.478	1	4
337.649	1	2
337.820	1	3
337.991	1	2
338.162	1	1
338.333	1	-9
338.504	1	-6
338.675	1	-2
338.846	1	-7
339.017	1	-3
339.188	1	-9
339.359	1	-6
339.530	1	-3
339.701	1	1
339.872	1	1
340.043	1	-5
340.214	1	-2
340.385	1	1
340.556	1	-4
340.727	1	-1
340.898	1	-5
341.069	1	6
341.240	1	2
341.411	1	6
341.582	1	-4
341.753	1	3
341.924	1	-12
342.095	1	1
342.266	1	-2
342.437	1	-6
342.608	1	-8
342.779	1	-7
342.950	1	-4
343.121	1	5
343.292	1	1
343.463	1	-13
343.634	1	-9
343.805	1	9
343.976	1	4
344.147	1	-13
344.318	1	-5
344.489	1	-5
344.660	1	14
344.831	1	-8
345.002	1	-3
345.173	1	-5
345.344	1	-11
345.515	1	1
345.686	1	2
345.857	1	-11
346.028	1	-8
346.199	1	-7
346.370	1	1
346.541	1	-10
346.712	1	2
346.883	1	0
347.054	1	2
347.225	1	-12
347.396	1	-9
347.567	1	-3
347.738	1	-2
347.909	1	6
348.080	1	-3
348.251	1	-6
348.422	1	-3
348.593	1	1
348.764	1	-11
348.935	1	8
349.106	1	-1
349.277	1	-12
349.448	1	1
349.619	1	1
349.790	1	-4
349.961	1	-1
350.132	1	-1
350.303	1	-8
350.474	1	3
350.645	1	9
350.816	1	-6
350.987	1	-2
351.157	1	8
351.328	1	-3
351.499	1	4
351.670	1	4
351.841	1	3
352.012	1	-9
352.183	1	0
352.354	1	-4
352.525	1	5
352.696	1	-8
352.867	1	-5
353.038	1	14
353.209	1	3
353.380	1	5
353.551	1	-3
353.722	1	-4
353.893	1	-1
354.064	1	0
354.235	1	-9
354.406	1	-7
354.576	1	-3
354.747	1	-7
354.918	1	-3
355.089	1	1
355.260	1	-5
355.431	1	3
355.602	1	6
355.773	1	-7
355.944	1	3
356.115	1	-12
356.286	1	7
356.457	1	-8
356.628	1	-7
356.799	1	-4
356.970	1	3
357.141	1	-5
357.311	1	-2
357.482	1	-20
357.653	1	-8
357.824	1	-4
357.995	1	-3
358.166	1	-1
358.337	1	9
358.508	1	-4
358.679	1	8
358.850	1	-6
359.021	1	-11
359.192	1	-2
359.363	1	-7
359.533	1	-3
359.704	1	-3
359.875	1	-4
360.046	1	5
360.217	1	8
360.388	1	7
360.559	1	-1
360.730	1	-3
360.901	1	-3
361.072	1	-4
361.243	1	4
361.414	1	8
361.584	1	4
361.755	1	6
361.926	1	4
362.097	1	-4
362.268	1	7
362.439	1	-10
362.610	1	-2
362.781	1	-10
362.952	1	4
363.123	1	5
363.293	1	0
363.464	1	7
363.635	1	3
363.806	1	1
363.977	1	3
364.148	1	-2
364.319	1	-3
364.490	1	-8
364.661	1	6
364.832	1	0
365.002	1	12
365.173	1	5
365.344	1	-3
365.515	1	4
365.686	1	2
365.857	1	-2
366.028	1	-6
366.199	1	2
366.370	1	-1
366.540	1	9
366.711	1	11
366.882	1	2
367.053	1	11
367.224	1	-2
367.395	1	5
367.566	1	-3
367.737	1	-8
367.908	1	-2
368.078	1	4
368.249	1	2
368.420	1	-2
368.591	1	20
368.762	1	-7
368.933	1	8
369.104	1	3
369.274	1	0
369.445	1	3
369.616	1	-10
369.787	1	5
369.958	1	0
370.129	1	-4
370.300	1	3
370.471	1	7
370.641	1	0
370.812	1	1
370.983	1	-4
371.154	1	-4
371.325	1	-5
371.496	1	-7
371.667	1	4
371.837	1	-12
372.008	1	6
372.179	1	9
372.350	1	-11
372.521	1	-1
372.692	1	-5
372.863	1	0
373.033	1	4
373.204	1	10
373.375	1	-4
373.546	1	5
373.717	1	1
373.888	1	2
374.059	1	1
374.229	1	-13
374.400	1	-1
374.571	1	3
374.742	1	7
374.913	1	-4
375.084	1	-1
375.254	1	6
375.425	1	4
375.596	1	-14
375.767	1	6
375.938	1	6
376.109	1	-18
376.279	1	-11
376.450	1	-3
376.621	1	11
376.792	1	-11
376.963	1	2
377.134	1	-3
377.304	1	6
377.475	1	1
377.646	1	2
377.817	1	10
377.988	1	-2
378.159	1	7
378.329	1	-8
378.500	1	-4
378.671	1	-9
378.842	1	-8
379.013	1	-3
379.184	1	-1
379.354	1	6
379.525	1	1
379.696	1	-4
379.867	1	6
380.038	1	9
380.209	1	-3
380.379	1	-7
380.550	1	6
380.721	1	10
380.892	1	4
381.063	1	-4
381.233	1	6
381.404	1	-1
381.575	1	1
381.746	1	2
381.917	1	-2
382.087	1	-2
382.258	1	8
382.429	1	-4
382.600	1	4
382.771	1	1
382.941	1	-3
383.112	1	8
383.283	1	4
383.454	1	5
383.625	1	-2
383.795	1	6
383.966	1	1
384.137	1	6
384.308	1	11
384.479	1	9
384.649	1	-4
384.820	1	-6
384.991	1	14
385.162	1	5
385.333	1	3
385.503	1	10
385.674	1	7
385.845	1	8
386.016	1	8
386.187	1	17
386.357	1	8
386.528	1	17
386.699	1	21
386.870	1	13
387.041	1	-5
387.211	1	5
387.382	1	1
387.553	1	8
387.724	1	-6
387.894	1	14
388.065	1	10
388.236	1	9
388.407	1	12
388.578	1	2
388.748	1	9
388.919	1	3
389.090	1	10
389.261	1	-11
389.431	1	6
389.602	1	5
389.773	1	7
389.944	1	6
390.114	1	0
390.285	1	6
390.456	1	10
390.627	1	0
390.798	1	9
390.968	1	0
391.139	1	-1
391.310	1	2
391.481	1	-4
391.651	1	7
391.822	1	7
391.993	1	11
392.164	1	-1
392.334	1	13
392.505	1	-7
392.676	1	7
392.847	1	9
393.017	1	1
393.188	1	2
393.359	1	2
393.530	1	10
393.700	1	-1
393.871	1	-2
394.042	1	5
394.213	1	8
394.383	1	14
394.554	1	5
394.725	1	7
394.896	1	-3
395.066	1	7
395.237	1	13
395.408	1	11
395.579	1	5
395.749	1	13
395.920	1	2
396.091	1	2
396.262	1	8
396.432	1	-6
396.603	1	8
396.774	1	-8
396.945	1	9
397.115	1	9
397.286	1	17
397.457	1	1
397.627	1	6
397.798	1	-2
397.969	1	1
398.140	1	4
398.310	1	6
398.481	1	5
398.652	1	14
398.823	1	18
398.993	1	0
399.164	1	10
399.335	1	1
399.505	1	7
399.676	1	9
399.847	1	1
400.018	1	11
400.188	1	15
400.359	1	-9
400.530	1	7
400.700	1	4
400.871	1	1
401.042	1	-11
401.213	1	2
401.383	1	4
401.554	1	-1
401.725	1	5
401.895	1	9
402.066	1	5
402.237	1	5
402.408	1	5
402.578	1	-2
402.749	1	0
402.920	1	-3
403.090	1	-2
403.261	1	4
403.432	1	1
403.603	1	17
403.773	1	7
403.944	1	11
404.115	1	-8
404.285	1	1
404.456	1	-8
404.627	1	8
404.797	1	17
404.968	1	0
405.139	1	-2
405.310	1	-2
405.480	1	7
405.651	1	-1
405.822	1	4
405.992	1	8
406.163	1	13
406.334	1	5
406.504	1	1
406.675	1	25
406.846	1	-3
407.016	1	-2
407.187	1	10
407.358	1	-2
407.528	1	14
407.699	1	7
407.870	1	2
408.041	1	-6
408.211	1	3
408.382	1	4
408.553	1	9
408.723	1	7
408.894	1	-5
409.065	1	6
409.235	1	-1
409.406	1	6
409.577	1	10
409.747	1	4
409.918	1	2
410.089	1	1
410.259	1	2
410.430	1	12
410.601	1	-1
410.771	1	2
410.942	1	6
411.113	1	4
411.283	1	-5
411.454	1	-13
411.625	1	4
411.795	1	10
411.966	1	-6
412.137	1	-4
412.307	1	3
412.478	1	6
412.649	1	0
412.819	1	0
412.990	1	9
413.161	1	0
413.331	1	-1
413.502	1	8
413.672	1	6
413.843	1	-2
414.014	1	-3
414.184	1	-1
414.355	1	1
414.526	1	-2
414.696	1	-5
414.867	1	9
415.038	1	-4
415.208	1	-1
415.379	1	10
415.550	1	3
415.720	1	5
415.891	1	13
416.062	1	6
416.232	1	-8
416.403	1	-5
416.573	1	1
416.744	1	11
416.915	1	-7
417.085	1	-5
417.256	1	-2
417.427	1	1
417.597	1	-6
417.768	1	10
417.939	1	-1
418.109	1	11
418.280	1	-2
418.450	1	-5
418.621	1	-6
418.792	1	3
418.962	1	0
419.133	1	-3
419.304	1	8
419.474	1	-5
419.645	1	21
419.815	1	-4
419.986	1	10
420.157	1	-2
420.327	1	2
420.498	1	12
420.669	1	1
420.839	1	2
421.010	1	6
421.180	1	3
421.351	1	-1
421.522	1	12
421.692	1	0
421.863	1	2
422.033	1	-6
422.204	1	-10
422.375	1	-4
422.545	1	10
422.716	1	-3
422.886	1	4
423.057	1	-2
423.228	1	-6
423.398	1	4
423.569	1	12
423.740	1	-2
423.910	1	-5
424.081	1	-1
424.251	1	4
424.422	1	0
424.593	1	5
424.763	1	-7
424.934	1	0
425.104	1	14
425.275	1	0
425.445	1	0
425.616	1	-1
425.787	1	-10
425.957	1	9
426.128	1	-8
426.298	1	-3
426.469	1	7
426.640	1	-3
426.810	1	13
426.981	1	-4
427.151	1	1
427.322	1	-3
427.493	1	-2
427.663	1	-3
427.834	1	0
428.004	1	4
428.175	1	6
428.345	1	11
428.516	1	1
428.687	1	-3
428.857	1	1
429.028	1	-4
429.198	1	-7
429.369	1	0
429.540	1	5
429.710	1	-1
429.881	1	9
430.051	1	8
430.222	1	-6
430.392	1	7
430.563	1	6
430.734	1	0
430.904	1	0
431.075	1	10
431.245	1	1
431.416	1	2
431.586	1	7
431.757	1	2
431.927	1	2
432.098	1	-3
432.269	1	-5
432.439	1	-8
432.610	1	-7
432.780	1	-2
432.951	1	3
433.121	1	3
433.292	1	-2
433.462	1	6
433.633	1	-8
433.804	1	-6
433.974	1	-8
434.145	1	4
434.315	1	3
434.486	1	4
434.656	1	4
434.827	1	5
434.997	1	-3
435.168	1	-3
435.339	1	9
435.509	1	3
435.680	1	-4
435.850	1	4
436.021	1	7
436.191	1	0
436.362	1	-5
436.532	1	4
436.703	1	12
436.873	1	-5
437.044	1	-3
437.214	1	-13
437.385	1	4
437.556	1	-1
437.726	1	-3
437.897	1	-1
438.067	1	4
438.238	1	-14
438.408	1	0
438.579	1	0
438.749	1	3
438.920	1	-2
439.090	1	11
439.261	1	3
439.431	1	2
439.602	1	-3
439.772	1	5
439.943	1	3
440.113	1	-13
440.284	1	15
440.455	1	-2
440.625	1	3
440.796	1	-2
440.966	1	-1
441.137	1	-1
441.307	1	-10
441.478	1	0
441.648	1	-10
441.819	1	8
441.989	1	-1
442.160	1	0
442.330	1	7
442.501	1	-12
442.671	1	-5
442.842	1	4
443.012	1	-2
443.183	1	-8
443.353	1	5
443.524	1	5
443.694	1	4
443.865	1	-1
444.035	1	-5
444.206	1	9
444.376	1	5
444.547	1	3
444.717	1	10
444.888	1	-6
445.058	1	1
445.229	1	-4
445.399	1	3
445.570	1	4
445.740	1	2
445.911	1	7
446.081	1	-8
446.252	1	-9
446.422	1	-2
446.593	1	-10
446.763	1	3
446.934	1	6
447.104	1	-10
447.275	1	-7
447.445	1	0
447.616	1	-6
447.786	1	1
447.957	1	4
448.127	1	11
448.298	1	3
448.468	1	4
448.639	1	-5
448.809	1	-6
448.979	1	0
449.150	1	-3
449.320	1	1
449.491	1	0
449.661	1	-4
449.832	1	-1
450.002	1	-4
450.173	1	-9
450.343	1	5
450.514	1	0
450.684	1	-11
450.855	1	0
451.025	1	-7
451.196	1	-9
451.366	1	8
451.537	1	1
451.707	1	-2
451.878	1	-5
452.048	1	2
452.218	1	-2
452.389	1	1
452.559	1	0
452.730	1	-3
452.900	1	1
453.071	1	-1
453.241	1	-17
453.412	1	-4
453.582	1	5
453.753	1	-4
453.923	1	3
454.093	1	-1
454.264	1	-10
454.434	1	0
454.605	1	-1
454.775	1	7
454.946	1	12
455.116	1	3
455.287	1	-1
455.457	1	-4
455.628	1	-8
455.798	1	-13
455.968	1	5
456.139	1	-3
456.309	1	-7
456.480	1	-9
456.650	1	-4
456.821	1	0
456.991	1	5
457.161	1	14
457.332	1	2
457.502	1	1
457.673	1	-4
457.843	1	11
458.014	1	0
458.184	1	7
458.355	1	5
458.525	1	2
458.695	1	-10
458.866	1	1
459.036	1	0
459.207	1	0
459.377	1	-9
459.548	1	-2
459.718	1	-4
459.888	1	6
460.059	1	3
460.229	1	7
460.400	1	-5
460.570	1	-5
460.740	1	-7
460.911	1	4
461.081	1	-1
461.252	1	-2
461.422	1	-5
461.593	1	-2
461.763	1	6
461.933	1	-7
462.104	1	2
462.274	1	-2
462.445	1	-3
462.615	1	-8
462.785	1	-19
462.956	1	-4
463.126	1	-2
463.297	1	-5
463.467	1	3
463.638	1	2
463.808	1	8
463.978	1	1
464.149	1	-2
464.319	1	-3
464.490	1	-2
464.660	1	4
464.830	1	3
465.001	1	1
465.171	1	2
465.342	1	4
465.512	1	6
465.682	1	-5
465.853	1	-10
466.023	1	7
466.194	1	2
466.364	1	1
466.534	1	-3
466.705	1	0
466.875	1	8
467.045	1	1
467.216	1	4
467.386	1	-3
467.557	1	-2
467.727	1	-5
467.897	1	2
468.068	1	0
468.238	1	1
468.409	1	-2
468.579	1	5
468.749	1	3
468.920	1	3
469.090	1	7
469.260	1	0
469.431	1	2
469.601	1	-4
469.772	1	-9
469.942	1	-3
470.112	1	-4
470.283	1	13
470.453	1	1
470.623	1	-5
470.794	1	0
470.964	1	-3
471.135	1	-12
471.305	1	-4
471.475	1	-8
471.646	1	6
471.816	1	-2
471.986	1	-5
472.157	1	9
472.327	1	-5
472.497	1	-4
472.668	1	-6
472.838	1	8
473.009	1	2
473.179	1	-2
473.349	1	-1
473.520	1	-1
473.690	1	12
473.860	1	-3
474.031	1	2
474.201	1	-9
474.371	1	3
474.542	1	1
474.712	1	1
474.882	1	-3
475.053	1	-15
475.223	1	4
475.394	1	3
475.564	1	16
475.734	1	-1
475.905	1	-6
476.075	1	-5
476.245	1	-1
476.416	1	-9
476.586	1	-3
476.756	1	1
476.927	1	-1
477.097	1	0
477.267	1	-10
477.438	1	-10
477.608	1	3
477.778	1	2
477.949	1	1
478.119	1	6
478.289	1	-4
478.460	1	4
478.630	1	-10
478.800	1	-2
478.971	1	-3
479.141	1	-3
479.311	1	0
479.482	1	-11
479.652	1	5
479.822	1	4
479.993	1	5
480.163	1	-5
480.333	1	-8
480.504	1	1
480.674	1	8
480.844	1	1
481.015	1	-5
481.185	1	5
481.355	1	8
481.525	1	-2
481.696	1	4
481.866	1	2
482.036	1	-11
482.207	1	3
482.377	1	8
482.547	1	-18
482.718	1	0
482.888	1	-5
483.058	1	-2
483.229	1	-4
483.399	1	0
483.569	1	4
483.740	1	-14
483.910	1	6
484.080	1	-5
484.250	1	4
484.421	1	0
484.591	1	6
484.761	1	-4
484.932	1	11
485.102	1	3
485.272	1	3
485.443	1	1
485.613	1	-13
485.783	1	1
485.953	1	-11
486.124	1	4
486.294	1	8
486.464	1	-6
486.635	1	5
486.805	1	15
486.975	1	-13
487.146	1	8
487.316	1	3
487.486	1	3
487.656	1	-6
487.827	1	10
487.997	1	2
488.167	1	7
488.338	1	14
488.508	1	0
488.678	1	-1
488.848	1	6
489.019	1	-8
489.189	1	-9
489.359	1	0
489.529	1	2
489.700	1	-3
489.870	1	-15
490.040	1	-7
490.211	1	8
490.381	1	-8
490.551	1	-6
490.721	1	-2
490.892	1	5
491.062	1	12
491.232	1	-9
491.402	1	-3
491.573	1	0
491.743	1	-16
491.913	1	1
492.084	1	2
492.254	1	-10
492.424	1	-4
492.594	1	-3
492.765	1	7
492.935	1	-5
493.105	1	18
493.275	1	3
493.446	1	-4
493.616	1	2
493.786	1	5
493.956	1	-8
494.127	1	-4
494.297	1	2
494.467	1	3
494.637	1	0
494.808	1	12
494.978	1	3
495.148	1	7
495.318	1	11
495.489	1	2
495.659	1	12
495.829	1	2
495.999	1	2
496.170	1	-11
496.340	1	5
496.510	1	-3
496.680	1	-1
496.851	1	4
497.021	1	-9
497.191	1	-1
497.361	1	3
497.532	1	4
497.702	1	5
497.872	1	-7
498.042	1	-1
498.213	1	7
498.383	1	-8
498.553	1	5
498.723	1	8
498.894	1	-8
499.064	1	13
499.234	1	-5
499.404	1	3
499.574	1	-7
499.745	1	1
499.915	1	-6
500.085	1	-4
500.255	1	2
500.426	1	-8
500.596	1	-4
500.766	1	9
500.936	1	-9
501.106	1	0
501.277	1	1
501.447	1	-7
501.617	1	0
501.787	1	-1
501.958	1	-11
502.128	1	-1
502.298	1	2
502.468	1	11
502.638	1	12
502.809	1	5
502.979	1	-8
503.149	1	13
503.319	1	11
503.489	1	7
503.660	1	-1
503.830	1	-3
504.000	1	-6
504.170	1	5
504.340	1	9
504.511	1	3
504.681	1	-1
504.851	1	-10
505.021	1	-1
505.192	1	9
505.362	1	1
505.532	1	-2
505.702	1	3
505.872	1	-8
506.043	1	6
506.213	1	9
506.383	1	5
506.553	1	7
506.723	1	6
506.893	1	5
507.064	1	-7
507.234	1	3
507.404	1	1
507.574	1	-3
507.744	1	-7
507.915	1	9
508.085	1	10
508.255	1	2
508.425	1	11
508.595	1	8
508.766	1	5
508.936	1	-3
509.106	1	-7
509.276	1	11
509.446	1	2
509.616	1	9
509.787	1	1
509.957	1	1
510.127	1	5
510.297	1	-7
510.467	1	0
510.638	1	-1
510.808	1	5
510.978	1	-16
511.148	1	9
511.318	1	6
511.488	1	3
511.659	1	-5
511.829	1	-6
511.999	1	5
512.169	1	-3
512.339	1	-2
512.509	1	-2
512.680	1	-2
512.850	1	3
513.020	1	-1
513.190	1	-6
513.360	1	10
513.530	1	-6
513.700	1	3
513.871	1	11
514.041	1	-1
514.211	1	-8
514.381	1	13
514.551	1	1
514.721	1	7
514.892	1	-2
515.062	1	4
515.232	1	1
515.402	1	1
515.572	1	-3
515.742	1	13
515.912	1	6
516.083	1	-2
516.253	1	2
516.423	1	7
516.593	1	-2
516.763	1	5
516.933	1	2
517.104	1	3
517.274	1	8
517.444	1	5
517.614	1	-1
517.784	1	3
517.954	1	-4
518.124	1	3
518.294	1	6
518.465	1	3
518.635	1	-5
518.805	1	-4
518.975	1	9
519.145	1	10
519.315	1	0
519.485	1	0
519.656	1	-2
519.826	1	-4
519.996	1	2
520.166	1	13
520.336	1	-1
520.506	1	8
520.676	1	-2
520.846	1	3
521.017	1	-6
521.187	1	-1
521.357	1	-7
521.527	1	-3
521.697	1	10
521.867	1	3
522.037	1	0
522.207	1	-10
522.377	1	11
522.548	1	-3
522.718	1	-8
522.888	1	-9
523.058	1	23
523.228	1	2
523.398	1	0
523.568	1	-4
523.738	1	6
523.909	1	10
524.079	1	4
524.249	1	4
524.419	1	-3
524.589	1	5
524.759	1	-2
524.929	1	8
525.099	1	2
525.269	1	10
525.439	1	-7
525.610	1	12
525.780	1	11
525.950	1	-9
526.120	1	-15
526.290	1	-8
526.460	1	3
526.630	1	10
526.800	1	2
526.970	1	-7
527.140	1	-4
527.311	1	14
527.481	1	11
527.651	1	5
527.821	1	3
527.991	1	7
528.161	1	-4
528.331	1	-4
528.501	1	-4
528.671	1	5
528.841	1	4
529.011	1	1
529.181	1	6
529.352	1	6
529.522	1	1
529.692	1	10
529.862	1	8
530.032	1	-5
530.202	1	4
530.372	1	-2
530.542	1	6
530.712	1	15
530.882	1	0
531.052	1	11
531.222	1	-13
531.392	1	-8
531.563	1	1
531.733	1	16
531.903	1	3
532.073	1	-1
532.243	1	3
532.413	1	6
532.583	1	0
532.753	1	12
532.923	1	-3
533.093	1	5
533.263	1	-2
533.433	1	4
533.603	1	5
533.773	1	-1
533.943	1	-4
534.113	1	-1
534.284	1	-2
534.454	1	-1
534.624	1	4
534.794	1	2
534.964	1	-7
535.134	1	2
535.304	1	3
535.474	1	0
535.644	1	-2
535.814	1	6
535.984	1	-5
536.154	1	-6
536.324	1	10
536.494	1	15
536.664	1	9
536.834	1	-8
537.004	1	20
537.174	1	10
537.344	1	5
537.514	1	4
537.685	1	1
537.855	1	-2
538.025	1	1
538.195	1	7
538.365	1	-2
538.535	1	12
538.705	1	-9
538.875	1	0
539.045	1	7
539.215	1	-15
539.385	1	6
539.555	1	-4
539.725	1	2
539.895	1	7
540.065	1	2
540.235	1	-2
540.405	1	0
540.575	1	3
540.745	1	-2
540.915	1	10
541.085	1	-2
541.255	1	-3
541.425	1	-2
541.595	1	6
541.765	1	-6
541.935	1	3
542.105	1	4
542.275	1	2
542.445	1	3
542.615	1	-3
542.785	1	1
542.955	1	-1
543.125	1	-5
543.295	1	0
543.465	1	16
543.635	1	5
543.805	1	7
543.975	1	-5
544.145	1	8
544.315	1	-2
544.485	1	-3
544.655	1	9
544.825	1	6
544.995	1	2
545.165	1	-5
545.335	1	-2
545.505	1	3
545.675	1	-10
545.845	1	-2
546.015	1	4
546.185	1	-4
546.355	1	9
546.525	1	7
546.695	1	-1
546.865	1	0
547.035	1	6
547.205	1	-9
547.375	1	4
547.545	1	1
547.715	1	-6
547.885	1	4
548.055	1	6
548.225	1	0
548.395	1	3
548.565	1	5
548.735	1	8
548.905	1	-3
549.075	1	-1
549.245	1	3
549.415	1	-2
549.585	1	0
549.755	1	-4
549.925	1	10
550.095	1	13
550.265	1	-1
550.435	1	2
550.605	1	-9
550.775	1	-9
550.945	1	1
551.115	1	-13
551.285	1	17
551.455	1	-2
551.625	1	-10
551.795	1	-1
551.965	1	2
552.135	1	-7
552.305	1	7
552.475	1	-5
552.645	1	3
552.815	1	5
552.985	1	-1
553.155	1	6
553.325	1	9
553.495	1	10
553.665	1	8
553.835	1	-5
554.004	1	1
554.174	1	-6
554.344	1	-7
554.514	1	7
554.684	1	5
554.854	1	1
555.024	1	11
555.194	1	16
555.364	1	-2
555.534	1	0
555.704	1	5
555.874	1	-4
556.044	1	5
556.214	1	-7
556.384	1	12
556.554	1	-3
556.724	1	-7
556.894	1	0
557.064	1	2
557.234	1	10
557.404	1	-13
557.573	1	1
557.743	1	1
557.913	1	-7
558.083	1	2
558.253	1	-2
558.423	1	-11
558.593	1	0
558.763	1	-3
558.933	1	5
559.103	1	-2
559.273	1	2
559.443	1	2
559.613	1	6
559.783	1	-1
559.953	1	1
560.122	1	-6
560.292	1	14
560.462	1	1
560.632	1	8
560.802	1	2
560.972	1	12
561.142	1	-1
561.312	1	7
561.482	1	7
561.652	1	-4
561.822	1	6
561.992	1	9
562.162	1	-6
562.331	1	3
562.501	1	-7
562.671	1	3
562.841	1	-1
563.011	1	3
563.181	1	9
563.351	1	-1
563.521	1	8
563.691	1	0
563.861	1	4
564.031	1	4
564.201	1	0
564.370	1	4
564.540	1	10
564.710	1	-3
564.880	1	1
565.050	1	4
565.220	1	-3
565.390	1	-7
565.560	1	6
565.730	1	-1
565.900	1	0
566.069	1	-1
566.239	1	-6
566.409	1	-7
566.579	1	1
566.749	1	12
566.919	1	4
567.089	1	5
567.259	1	4
567.429	1	1
567.599	1	0
567.768	1	-2
567.938	1	4
568.108	1	-1
568.278	1	-8
568.448	1	-4
568.618	1	2
568.788	1	-3
568.958	1	5
569.128	1	6
569.297	1	7
569.467	1	-5
569.637	1	3
569.807	1	-6
569.977	1	2
570.147	1	3
570.317	1	13
570.487	1	6
570.656	1	-11
570.826	1	6
570.996	1	-12
571.166	1	7
571.336	1	-2
571.506	1	0
571.676	1	4
571.846	1	15
572.015	1	-9
572.185	1	-7
572.355	1	2
572.525	1	-3
572.695	1	8
572.865	1	4
573.035	1	-3
573.205	1	9
573.374	1	-2
573.544	1	6
573.714	1	4
573.884	1	-4
574.054	1	-2
574.224	1	2
574.394	1	-5
574.563	1	2
574.733	1	-3
574.903	1	0
575.073	1	0
575.243	1	-2
575.413	1	-1
575.583	1	9
575.752	1	6
575.922	1	7
576.092	1	-1
576.262	1	-5
576.432	1	-10
576.602	1	0
576.772	1	-2
576.941	1	0
577.111	1	10
577.281	1	-7
577.451	1	-3
577.621	1	-2
577.791	1	6
577.960	1	-11
578.130	1	-8
578.300	1	2
578.470	1	0
578.640	1	0
578.810	1	0
578.979	1	5
579.149	1	1
579.319	1	10
579.489	1	-5
579.659	1	3
579.829	1	2
579.998	1	-9
580.168	1	2
580.338	1	-8
580.508	1	-3
580.678	1	-7
580.848	1	1
581.017	1	4
581.187	1	-7
581.357	1	2
581.527	1	3
581.697	1	-12
581.867	1	0
582.036	1	12
582.206	1	-7
582.376	1	-3
582.546	1	-2
582.716	1	5
582.885	1	5
583.055	1	-2
583.225	1	3
583.395	1	0
583.565	1	9
583.735	1	-2
583.904	1	3
584.074	1	-5
584.244	1	2
584.414	1	-1
584.584	1	7
584.753	1	6
584.923	1	-2
585.093	1	11
585.263	1	3
585.433	1	5
585.602	1	4
585.772	1	2
585.942	1	3
586.112	1	3
586.282	1	1
586.451	1	0
586.621	1	-1
586.791	1	3
586.961	1	3
587.131	1	-6
587.300	1	-6
587.470	1	-7
587.640	1	-6
587.810	1	4
587.980	1	3
588.149	1	9
588.319	1	2
588.489	1	7
588.659	1	-4
588.829	1	8
588.998	1	-5
589.168	1	11
589.338	1	-2
589.508	1	5
589.677	1	5
589.847	1	3
590.017	1	-15
590.187	1	-3
590.357	1	-7
590.526	1	4
590.696	1	3
590.866	1	3
591.036	1	6
591.205	1	7
591.375	1	-11
591.545	1	-10
591.715	1	-10
591.885	1	10
592.054	1	-2
592.224	1	9
592.394	1	8
592.564	1	-15
592.733	1	-8
592.903	1	10
593.073	1	-6
593.243	1	-5
593.412	1	-1
593.582	1	10
593.752	1	-2
593.922	1	-7
594.091	1	8
594.261	1	10
594.431	1	-5
594.601	1	-8
594.771	1	6
594.940	1	-5
595.110	1	-3
595.280	1	-4
595.450	1	2
595.619	1	-1
595.789	1	2
595.959	1	-6
596.129	1	-3
596.298	1	6
596.468	1	-3
596.638	1	-5
596.808	1	9
596.977	1	-9
597.147	1	-3
597.317	1	-4
597.487	1	2
597.656	1	0
597.826	1	-3
597.996	1	4
598.166	1	0
598.335	1	12
598.505	1	-5
598.675	1	5
598.844	1	-2
599.014	1	7
599.184	1	-2
599.354	1	-11
599.523	1	-3
599.693	1	5
599.863	1	9
600.033	1	-11
600.202	1	3
600.372	1	-6
600.542	1	3
600.712	1	0
600.881	1	-1
601.051	1	4
601.221	1	0
601.390	1	-11
601.560	1	-8
601.730	1	-3
601.900	1	0
602.069	1	-4
602.239	1	-2
602.409	1	-11
602.578	1	-2
602.748	1	-4
602.918	1	-10
603.088	1	5
603.257	1	8
603.427	1	0
603.597	1	20
603.767	1	-5
603.936	1	16
604.106	1	-2
604.276	1	1
604.445	1	0
604.615	1	-12
604.785	1	-3
604.954	1	0
605.124	1	-9
605.294	1	0
605.464	1	2
605.633	1	14
605.803	1	7
605.973	1	1
606.142	1	-2
606.312	1	-1
606.482	1	-13
606.652	1	-8
606.821	1	11
606.991	1	-3
607.161	1	2
607.330	1	14
607.500	1	5
607.670	1	-6
607.839	1	2
608.009	1	-8
608.179	1	3
608.348	1	0
608.518	1	3
608.688	1	2
608.858	1	5
609.027	1	2
609.197	1	-3
609.367	1	-5
609.536	1	-5
609.706	1	-2
609.876	1	0
610.045	1	-2
610.215	1	-11
610.385	1	0
610.554	1	1
610.724	1	-2
610.894	1	5
611.063	1	0
611.233	1	-3
611.403	1	-5
611.572	1	0
611.742	1	-2
611.912	1	-5
612.081	1	3
612.251	1	2
612.421	1	6
612.590	1	3
612.760	1	-2
612.930	1	-1
613.099	1	-12
613.269	1	-3
613.439	1	-1
613.608	1	4
613.778	1	4
613.948	1	8
614.117	1	14
614.287	1	-11
614.457	1	8
614.626	1	4
614.796	1	0
614.966	1	1
615.135	1	2
615.305	1	-10
615.475	1	4
615.644	1	-10
615.814	1	9
615.984	1	8
616.153	1	7
616.323	1	-11
616.493	1	-2
616.662	1	-13
616.832	1	-7
617.002	1	-3
617.171	1	-5
617.341	1	-3
617.511	1	-6
617.680	1	-2
617.850	1	1
618.019	1	0
618.189	1	-8
618.359	1	-4
618.528	1	-5
618.698	1	-7
618.868	1	-1
619.037	1	1
619.207	1	-13
619.377	1	-14
619.546	1	-2
619.716	1	-8
619.885	1	-5
620.055	1	7
620.225	1	2
620.394	1	1
620.564	1	-7
620.734	1	-2
620.903	1	9
621.073	1	-7
621.242	1	-20
621.412	1	5
621.582	1	-4
621.751	1	-5
621.921	1	11
622.091	1	-8
622.260	1	-5
622.430	1	0
622.599	1	9
622.769	1	-2
622.939	1	4
623.108	1	-4
623.278	1	0
623.448	1	0
623.617	1	5
623.787	1	2
623.956	1	-1
624.126	1	0
624.296	1	-2
624.465	1	3
624.635	1	-3
624.804	1	-5
624.974	1	-8
625.144	1	-8
625.313	1	-1
625.483	1	4
625.652	1	6
625.822	1	7
625.992	1	-9
626.161	1	-1
626.331	1	10
626.501	1	8
626.670	1	-6
626.840	1	7
627.009	1	-1
627.179	1	-3
627.348	1	0
627.518	1	0
627.688	1	3
627.857	1	2
628.027	1	0
628.196	1	5
628.366	1	7
628.536	1	-8
628.705	1	-3
628.875	1	5
629.044	1	4
629.214	1	5
629.384	1	-5
629.553	1	3
629.723	1	-5
629.892	1	4
630.062	1	4
630.232	1	7
630.401	1	-5
630.571	1	0
630.740	1	1
630.910	1	5
631.079	1	13
631.249	1	-3
631.419	1	-2
631.588	1	-10
631.758	1	1
631.927	1	-7
632.097	1	2
632.266	1	-1
632.436	1	-11
632.606	1	3
632.775	1	6
632.945	1	-3
633.114	1	5
633.284	1	3
633.453	1	-2
633.623	1	2
633.793	1	-5
633.962	1	7
634.132	1	-6
634.301	1	-7
634.471	1	-12
634.640	1	-1
634.810	1	-3
634.979	1	6
635.149	1	-1
635.319	1	0
635.488	1	4
635.658	1	-11
635.827	1	3
635.997	1	3
636.166	1	-1
636.336	1	7
636.505	1	0
636.675	1	-9
636.845	1	5
637.014	1	3
637.184	1	-6
637.353	1	5
637.523	1	-6
637.692	1	0
637.862	1	-4
638.031	1	8
638.201	1	1
638.370	1	-4
638.540	1	-1
638.710	1	-1
638.879	1	-7
639.049	1	7
639.218	1	-2
639.388	1	11
639.557	1	5
639.727	1	3
639.896	1	4
640.066	1	0
640.235	1	0
640.405	1	-7
640.574	1	-1
640.744	1	-6
640.914	1	-6
641.083	1	-6
641.253	1	-9
641.422	1	-15
641.592	1	-2
641.761	1	-9
641.931	1	9
642.100	1	-6
642.270	1	-2
642.439	1	-1
642.609	1	5
642.778	1	0
642.948	1	3
643.117	1	-10
643.287	1	10
643.456	1	7
643.626	1	6
643.795	1	1
643.965	1	-3
644.134	1	5
644.304	1	-7
644.473	1	11
644.643	1	-2
644.812	1	0
644.982	1	8
645.151	1	-4
645.321	1	6
645.490	1	3
645.660	1	-6
645.829	1	-7
645.999	1	-6
646.168	1	9
646.338	1	4
646.507	1	2
646.677	1	2
646.846	1	9
647.016	1	0
647.185	1	6
647.355	1	-11
647.524	1	5
647.694	1	-11
647.863	1	-9
648.033	1	-10
648.202	1	4
648.372	1	-3
648.541	1	3
648.711	1	6
648.880	1	-8
649.050	1	-3
649.219	1	5
649.389	1	-2
649.558	1	-3
649.728	1	-6
649.897	1	6
650.067	1	-9
650.236	1	4
650.406	1	1
650.575	1	6
650.745	1	-10
650.914	1	-2
651.084	1	-4
651.253	1	-2
651.423	1	1
651.592	1	-7
651.762	1	12
651.931	1	0
652.101	1	-4
652.270	1	-2
652.440	1	0
652.609	1	-1
652.778	1	-10
652.948	1	2
653.117	1	-10
653.287	1	9
653.456	1	-1
653.626	1	6
653.795	1	3
653.965	1	3
654.134	1	9
654.304	1	-5
654.473	1	-6
654.643	1	9
654.812	1	-2
654.982	1	-13
655.151	1	-5
655.320	1	2
655.490	1	7
655.659	1	-2
655.829	1	0
655.998	1	6
656.168	1	-3
656.337	1	-4
656.507	1	2
656.676	1	-7
656.846	1	-5
657.015	1	-5
657.184	1	8
657.354	1	-11
657.523	1	-13
657.693	1	1
657.862	1	-6
658.032	1	4
658.201	1	0
658.371	1	-9
658.540	1	-5
658.709	1	-12
658.879	1	-6
659.048	1	9
659.218	1	-8
659.387	1	-11
659.557	1	-3
659.726	1	-7
659.895	1	-4
660.065	1	5
660.234	1	4
660.404	1	10
660.573	1	-18
660.743	1	-5
660.912	1	-6
661.081	1	-6
661.251	1	7
661.420	1	-7
661.590	1	-9
661.759	1	3
661.929	1	-1
662.098	1	-16
662.267	1	15
662.437	1	-2
662.606	1	8
662.776	1	1
662.945	1	-8
663.115	1	-6
663.284	1	0
663.453	1	-4
663.623	1	2
663.792	1	9
663.962	1	-15
664.131	1	-4
664.300	1	-5
664.470	1	-2
664.639	1	-10
664.809	1	4
664.978	1	-5
665.148	1	-3
665.317	1	-8
665.486	1	-3
665.656	1	-2
665.825	1	-2
665.995	1	4
666.164	1	0
666.333	1	12
666.503	1	-6
666.672	1	-13
666.842	1	-4
667.011	1	-1
667.180	1	-3
667.350	1	2
667.519	1	-6
667.689	1	-11
667.858	1	-5
668.027	1	-4
668.197	1	10
668.366	1	-4
668.536	1	-1
668.705	1	-4
668.874	1	0
669.044	1	-9
669.213	1	0
669.382	1	-8
669.552	1	1
669.721	1	-5
669.891	1	7
670.060	1	-6
670.229	1	-4
670.399	1	9
670.568	1	1
670.738	1	-10
670.907	1	-6
671.076	1	8
671.246	1	4
671.415	1	3
671.584	1	-4
671.754	1	-15
671.923	1	-19
672.093	1	3
672.262	1	5
672.431	1	0
672.601	1	0
672.770	1	7
672.939	1	-7
673.109	1	-7
673.278	1	7
673.448	1	-1
673.617	1	4
673.786	1	-2
