325.333	1	-1
325.504	1	4
325.675	1	9
325.846	1	-2
326.017	1	-4
326.188	1	12
326.359	1	5
326.531	1	5
326.702	1	5
326.873	1	9
327.044	1	7
327.215	1	-6
327.386	1	9
327.557	1	-6
327.728	1	-1
327.899	1	-8
328.070	1	4
328.241	1	1
328.412	1	5
328.583	1	-12
328.754	1	-10
328.926	1	6
329.097	1	14
329.268	1	7
329.439	1	2
329.610	1	-3
329.781	1	-5
329.952	1	16
330.123	1	4
330.294	1	14
330.465	1	-1
330.636	1	5
330.807	1	14
330.978	1	-5
331.149	1	3
331.320	1	6
331.492	1	3
331.663	1	-12
331.834	1	13
332.005	1	-3
332.176	1	3
332.347	1	5
332.518	1	17
332.689	1	10
332.860	1	5
333.031	1	6
333.202	1	2
333.373	1	-2
333.544	1	-3
333.715	1	-5
333.886	1	11
334.057	1	-6
334.228	1	7
334.399	1	1
334.570	1	5
334.741	1	-7
334.912	1	4
335.084	1	-7
335.255	1	17
335.426	1	-4
335.597	1	1
335.768	1	6
335.939	1	4
336.110	1	-2
336.281	1	-1
336.452	1	-1
336.623	1	9
336.794	1	-6
336.965	1	-1
337.136	1	8
337.307	1	11
337.478	1	11
337.649	1	7
337.820	1	11
337.991	1	10
338.162	1	-3
338.333	1	-3
338.504	1	4
338.675	1	15
338.846	1	9
339.017	1	6
339.188	1	10
339.359	1	8
339.530	1	1
339.701	1	-6
339.872	1	1
340.043	1	1
340.214	1	1
340.385	1	-2
340.556	1	-4
340.727	1	-2
340.898	1	5
341.069	1	5
341.240	1	12
341.411	1	5
341.582	1	8
341.753	1	4
341.924	1	3
342.095	1	6
342.266	1	3
342.437	1	-2
342.608	1	4
342.779	1	-4
342.950	1	6
343.121	1	7
343.292	1	3
343.463	1	2
343.634	1	-7
343.805	1	13
343.976	1	6
344.147	1	-2
344.318	1	7
344.489	1	-1
344.660	1	17
344.831	1	0
345.002	1	5
345.173	1	5
345.344	1	0
345.515	1	0
345.686	1	-2
345.857	1	2
346.028	1	1
346.199	1	7
346.370	1	7
346.541	1	-1
346.712	1	-3
346.883	1	0
347.054	1	8
347.225	1	-2
347.396	1	-4
347.567	1	4
347.738	1	5
347.909	1	4
348.080	1	6
348.251	1	6
348.422	1	13
348.593	1	6
348.764	1	0
348.935	1	12
349.106	1	5
349.277	1	-8
349.448	1	9
349.619	1	11
349.790	1	8
349.961	1	11
350.132	1	5
350.303	1	6
350.474	1	11
350.645	1	14
350.816	1	0
350.987	1	9
351.157	1	13
351.328	1	10
351.499	1	4
351.670	1	12
351.841	1	19
352.012	1	7
352.183	1	4
352.354	1	8
352.525	1	11
352.696	1	3
352.867	1	6
353.038	1	14
353.209	1	13
353.380	1	7
353.551	1	16
353.722	1	11
353.893	1	16
354.064	1	13
354.235	1	20
354.406	1	4
354.576	1	16
354.747	1	7
354.918	1	-3
355.089	1	22
355.260	1	7
355.431	1	19
355.602	1	20
355.773	1	9
355.944	1	12
356.115	1	9
356.286	1	21
356.457	1	8
356.628	1	10
356.799	1	10
356.970	1	13
357.141	1	9
357.311	1	14
357.482	1	15
357.653	1	14
357.824	1	11
357.995	1	13
358.166	1	30
358.337	1	13
358.508	1	28
358.679	1	44
358.850	1	21
359.021	1	24
359.192	1	35
359.363	1	38
359.533	1	38
359.704	1	27
359.875	1	28
360.046	1	40
360.217	1	43
360.388	1	45
360.559	1	47
360.730	1	34
360.901	1	41
361.072	1	33
361.243	1	43
361.414	1	53
361.584	1	58
361.755	1	56
361.926	1	60
362.097	1	51
362.268	1	61
362.439	1	54
362.610	1	54
362.781	1	60
362.952	1	80
363.123	1	67
363.293	1	73
363.464	1	83
363.635	1	82
363.806	1	88
363.977	1	77
364.148	1	74
364.319	1	86
364.490	1	94
364.661	1	97
364.832	1	107
365.002	1	105
365.173	1	104
365.344	1	112
365.515	1	112
365.686	1	120
365.857	1	120
366.028	1	125
366.199	1	116
366.370	1	129
366.540	1	128
366.711	1	125
366.882	1	122
367.053	1	127
367.224	1	110
367.395	1	123
367.566	1	115
367.737	1	97
367.908	1	113
368.078	1	113
368.249	1	93
368.420	1	105
368.591	1	104
368.762	1	103
368.933	1	101
369.104	1	89
369.274	1	85
369.445	1	88
369.616	1	80
369.787	1	85
369.958	1	85
370.129	1	86
370.300	1	71
370.471	1	82
370.641	1	79
370.812	1	66
370.983	1	73
371.154	1	75
371.325	1	56
371.496	1	69
371.667	1	64
371.837	1	54
372.008	1	62
372.179	1	66
372.350	1	54
372.521	1	59
372.692	1	64
372.863	1	50
373.033	1	60
373.204	1	50
373.375	1	53
373.546	1	43
373.717	1	53
373.888	1	52
374.059	1	59
374.229	1	47
374.400	1	61
374.571	1	57
374.742	1	45
374.913	1	35
375.084	1	41
375.254	1	50
375.425	1	36
375.596	1	34
375.767	1	44
375.938	1	50
376.109	1	30
376.279	1	44
376.450	1	46
376.621	1	48
376.792	1	40
376.963	1	42
377.134	1	31
377.304	1	49
377.475	1	46
377.646	1	38
377.817	1	52
377.988	1	38
378.159	1	49
378.329	1	35
378.500	1	31
378.671	1	36
378.842	1	40
379.013	1	32
379.184	1	40
379.354	1	40
379.525	1	56
379.696	1	40
379.867	1	56
380.038	1	46
380.209	1	60
380.379	1	35
380.550	1	49
380.721	1	50
380.892	1	53
381.063	1	63
381.233	1	49
381.404	1	67
381.575	1	60
381.746	1	87
381.917	1	64
382.087	1	69
382.258	1	70
382.429	1	70
382.600	1	81
382.771	1	93
382.941	1	88
383.112	1	104
383.283	1	104
383.454	1	106
383.625	1	114
383.795	1	112
383.966	1	124
384.137	1	118
384.308	1	129
384.479	1	137
384.649	1	150
384.820	1	141
384.991	1	146
385.162	1	149
385.333	1	156
385.503	1	151
385.674	1	153
385.845	1	157
386.016	1	157
386.187	1	180
386.357	1	159
386.528	1	169
386.699	1	181
386.870	1	167
387.041	1	153
387.211	1	172
387.382	1	159
387.553	1	165
387.724	1	163
387.894	1	164
388.065	1	157
388.236	1	160
388.407	1	156
388.578	1	155
388.748	1	169
388.919	1	149
389.090	1	163
389.261	1	130
389.431	1	163
389.602	1	157
389.773	1	139
389.944	1	150
390.114	1	149
390.285	1	145
390.456	1	141
390.627	1	130
390.798	1	146
390.968	1	134
391.139	1	134
391.310	1	138
391.481	1	137
391.651	1	140
391.822	1	138
391.993	1	138
392.164	1	126
392.334	1	134
392.505	1	136
392.676	1	132
392.847	1	131
393.017	1	120
393.188	1	128
393.359	1	131
393.530	1	124
393.700	1	133
393.871	1	120
394.042	1	129
394.213	1	134
394.383	1	126
394.554	1	126
394.725	1	124
394.896	1	118
395.066	1	129
395.237	1	154
395.408	1	125
395.579	1	149
395.749	1	139
395.920	1	133
396.091	1	147
396.262	1	155
396.432	1	126
396.603	1	148
396.774	1	150
396.945	1	159
397.115	1	156
397.286	1	166
397.457	1	138
397.627	1	155
397.798	1	139
397.969	1	147
398.140	1	130
398.310	1	148
398.481	1	135
398.652	1	153
398.823	1	169
398.993	1	143
399.164	1	147
399.335	1	135
399.505	1	137
399.676	1	129
399.847	1	123
400.018	1	134
400.188	1	137
400.359	1	121
400.530	1	124
400.700	1	116
400.871	1	104
401.042	1	105
401.213	1	110
401.383	1	109
401.554	1	95
401.725	1	101
401.895	1	110
402.066	1	116
402.237	1	100
402.408	1	100
402.578	1	107
402.749	1	112
402.920	1	89
403.090	1	101
403.261	1	102
403.432	1	93
403.603	1	101
403.773	1	101
403.944	1	106
404.115	1	92
404.285	1	93
404.456	1	93
404.627	1	98
404.797	1	110
404.968	1	94
405.139	1	92
405.310	1	97
405.480	1	85
405.651	1	94
405.822	1	116
405.992	1	98
406.163	1	104
406.334	1	103
406.504	1	84
406.675	1	104
406.846	1	93
407.016	1	87
407.187	1	90
407.358	1	93
407.528	1	97
407.699	1	89
407.870	1	103
408.041	1	101
408.211	1	85
408.382	1	93
408.553	1	104
408.723	1	89
408.894	1	94
409.065	1	98
409.235	1	80
409.406	1	94
409.577	1	82
409.747	1	82
409.918	1	80
410.089	1	88
410.259	1	70
410.430	1	86
410.601	1	79
410.771	1	88
410.942	1	83
411.113	1	78
411.283	1	71
411.454	1	76
411.625	1	74
411.795	1	70
411.966	1	61
412.137	1	66
412.307	1	60
412.478	1	88
412.649	1	72
412.819	1	79
412.990	1	81
413.161	1	64
413.331	1	63
413.502	1	69
413.672	1	67
413.843	1	65
414.014	1	62
414.184	1	56
414.355	1	52
414.526	1	62
414.696	1	59
414.867	1	68
415.038	1	65
415.208	1	67
415.379	1	70
415.550	1	56
415.720	1	63
415.891	1	65
416.062	1	67
416.232	1	56
416.403	1	52
416.573	1	64
416.744	1	65
416.915	1	58
417.085	1	52
417.256	1	71
417.427	1	52
417.597	1	44
417.768	1	66
417.939	1	52
418.109	1	65
418.280	1	53
418.450	1	55
418.621	1	63
418.792	1	54
418.962	1	48
419.133	1	58
419.304	1	55
419.474	1	53
419.645	1	52
419.815	1	54
419.986	1	53
420.157	1	50
420.327	1	55
420.498	1	70
420.669	1	53
420.839	1	57
421.010	1	44
421.180	1	45
421.351	1	49
421.522	1	52
421.692	1	39
421.863	1	41
422.033	1	37
422.204	1	29
422.375	1	33
422.545	1	46
422.716	1	35
422.886	1	40
423.057	1	36
423.228	1	29
423.398	1	42
423.569	1	38
423.740	1	41
423.910	1	24
424.081	1	40
424.251	1	36
424.422	1	41
424.593	1	38
424.763	1	33
424.934	1	44
425.104	1	36
425.275	1	30
425.445	1	34
425.616	1	44
425.787	1	32
425.957	1	50
426.128	1	30
426.298	1	33
426.469	1	38
426.640	1	35
426.810	1	30
426.981	1	19
427.151	1	44
427.322	1	30
427.493	1	31
427.663	1	34
427.834	1	33
428.004	1	37
428.175	1	32
428.345	1	38
428.516	1	32
428.687	1	33
428.857	1	30
429.028	1	30
429.198	1	16
429.369	1	33
429.540	1	43
429.710	1	8
429.881	1	40
430.051	1	36
430.222	1	24
430.392	1	30
430.563	1	30
430.734	1	19
430.904	1	34
431.075	1	31
431.245	1	31
431.416	1	20
431.586	1	16
431.757	1	24
431.927	1	24
432.098	1	25
432.269	1	19
432.439	1	16
432.610	1	23
432.780	1	21
432.951	1	18
433.121	1	19
433.292	1	26
433.462	1	20
433.633	1	23
433.804	1	16
433.974	1	22
434.145	1	15
434.315	1	24
434.486	1	31
434.656	1	11
434.827	1	13
434.997	1	19
435.168	1	8
435.339	1	19
435.509	1	27
435.680	1	3
435.850	1	23
436.021	1	18
436.191	1	11
436.362	1	19
436.532	1	23
436.703	1	25
436.873	1	13
437.044	1	15
437.214	1	17
437.385	1	20
437.556	1	17
437.726	1	13
437.897	1	5
438.067	1	20
438.238	1	15
438.408	1	24
438.579	1	16
438.749	1	20
438.920	1	13
439.090	1	24
439.261	1	19
439.431	1	19
439.602	1	18
439.772	1	18
439.943	1	10
440.113	1	13
440.284	1	22
440.455	1	6
440.625	1	19
440.796	1	27
440.966	1	20
441.137	1	4
441.307	1	6
441.478	1	20
441.648	1	7
441.819	1	8
441.989	1	10
442.160	1	14
442.330	1	23
442.501	1	1
442.671	1	5
442.842	1	21
443.012	1	5
443.183	1	11
443.353	1	22
443.524	1	24
443.694	1	26
443.865	1	2
444.035	1	17
444.206	1	17
444.376	1	15
444.547	1	7
444.717	1	23
444.888	1	12
445.058	1	15
445.229	1	16
445.399	1	16
445.570	1	14
445.740	1	11
445.911	1	17
446.081	1	12
446.252	1	1
446.422	1	10
446.593	1	12
446.763	1	19
446.934	1	19
447.104	1	6
447.275	1	11
447.445	1	13
447.616	1	15
447.786	1	7
447.957	1	19
448.127	1	21
448.298	1	9
448.468	1	11
448.639	1	7
448.809	1	14
448.979	1	4
449.150	1	9
449.320	1	8
449.491	1	14
449.661	1	12
449.832	1	11
450.002	1	11
450.173	1	4
450.343	1	5
450.514	1	-1
450.684	1	2
450.855	1	11
451.025	1	12
451.196	1	9
451.366	1	12
451.537	1	8
451.707	1	5
451.878	1	5
452.048	1	-2
452.218	1	7
452.389	1	-2
452.559	1	8
452.730	1	17
452.900	1	13
453.071	1	8
453.241	1	9
453.412	1	5
453.582	1	21
453.753	1	7
453.923	1	2
454.093	1	0
454.264	1	-2
454.434	1	15
454.605	1	12
454.775	1	18
454.946	1	20
455.116	1	2
455.287	1	18
455.457	1	0
455.628	1	11
455.798	1	0
455.968	1	15
456.139	1	11
456.309	1	3
456.480	1	-2
456.650	1	8
456.821	1	13
456.991	1	13
457.161	1	4
457.332	1	-1
457.502	1	11
457.673	1	6
457.843	1	16
458.014	1	4
458.184	1	15
458.355	1	6
458.525	1	10
458.695	1	8
458.866	1	5
459.036	1	12
459.207	1	14
459.377	1	7
459.548	1	8
459.718	1	0
459.888	1	9
460.059	1	6
460.229	1	20
460.400	1	9
460.570	1	2
460.740	1	5
460.911	1	18
461.081	1	11
461.252	1	1
461.422	1	8
461.593	1	6
461.763	1	2
461.933	1	0
462.104	1	8
462.274	1	14
462.445	1	3
462.615	1	-2
462.785	1	-1
462.956	1	2
463.126	1	0
463.297	1	9
463.467	1	8
463.638	1	9
463.808	1	11
463.978	1	11
464.149	1	6
464.319	1	3
464.490	1	8
464.660	1	10
464.830	1	5
465.001	1	5
465.171	1	11
465.342	1	1
465.512	1	8
465.682	1	4
465.853	1	10
466.023	1	6
466.194	1	5
466.364	1	7
466.534	1	13
466.705	1	7
466.875	1	7
467.045	1	13
467.216	1	-6
467.386	1	3
467.557	1	12
467.727	1	4
467.897	1	17
468.068	1	3
468.238	1	2
468.409	1	4
468.579	1	15
468.749	1	1
468.920	1	8
469.090	1	14
469.260	1	14
469.431	1	4
469.601	1	13
469.772	1	-6
469.942	1	6
470.112	1	2
470.283	1	14
470.453	1	9
470.623	1	2
470.794	1	8
470.964	1	-4
471.135	1	-3
471.305	1	2
471.475	1	0
471.646	1	5
471.816	1	9
471.986	1	5
472.157	1	18
472.327	1	4
472.497	1	3
472.668	1	10
472.838	1	11
473.009	1	12
473.179	1	2
473.349	1	10
473.520	1	11
473.690	1	8
473.860	1	7
474.031	1	5
474.201	1	4
474.371	1	8
474.542	1	8
474.712	1	14
474.882	1	0
475.053	1	-3
475.223	1	4
475.394	1	16
475.564	1	23
475.734	1	4
475.905	1	8
476.075	1	9
476.245	1	3
476.416	1	3
476.586	1	7
476.756	1	4
476.927	1	17
477.097	1	-2
477.267	1	5
477.438	1	4
477.608	1	11
477.778	1	17
477.949	1	4
478.119	1	19
478.289	1	10
478.460	1	1
478.630	1	13
478.800	1	1
478.971	1	13
479.141	1	18
479.311	1	5
479.482	1	1
479.652	1	10
479.822	1	10
479.993	1	9
480.163	1	2
480.333	1	1
480.504	1	7
480.674	1	12
480.844	1	16
481.015	1	-3
481.185	1	17
481.355	1	11
481.525	1	4
481.696	1	-1
481.866	1	8
482.036	1	4
482.207	1	18
482.377	1	10
482.547	1	2
482.718	1	26
482.888	1	4
483.058	1	7
483.229	1	6
483.399	1	5
483.569	1	14
483.740	1	4
483.910	1	23
484.080	1	-6
484.250	1	12
484.421	1	7
484.591	1	13
484.761	1	-7
484.932	1	6
485.102	1	12
485.272	1	17
485.443	1	14
485.613	1	-2
485.783	1	25
485.953	1	11
486.124	1	8
486.294	1	18
486.464	1	14
486.635	1	21
486.805	1	25
486.975	1	4
487.146	1	18
487.316	1	22
487.486	1	16
487.656	1	2
487.827	1	15
487.997	1	18
488.167	1	10
488.338	1	22
488.508	1	11
488.678	1	15
488.848	1	11
489.019	1	15
489.189	1	14
489.359	1	18
489.529	1	14
489.700	1	8
489.870	1	16
490.040	1	17
490.211	1	20
490.381	1	12
490.551	1	19
490.721	1	16
490.892	1	14
491.062	1	25
491.232	1	22
491.402	1	8
491.573	1	18
491.743	1	0
491.913	1	20
492.084	1	22
492.254	1	24
492.424	1	15
492.594	1	14
492.765	1	18
492.935	1	19
493.105	1	26
493.275	1	23
493.446	1	11
493.616	1	20
493.786	1	23
493.956	1	24
494.127	1	23
494.297	1	19
494.467	1	34
494.637	1	21
494.808	1	24
494.978	1	31
495.148	1	16
495.318	1	20
495.489	1	29
495.659	1	22
495.829	1	20
495.999	1	29
496.170	1	20
496.340	1	29
496.510	1	23
496.680	1	24
496.851	1	33
497.021	1	24
497.191	1	23
497.361	1	23
497.532	1	29
497.702	1	27
497.872	1	19
498.042	1	42
498.213	1	36
498.383	1	28
498.553	1	34
498.723	1	32
498.894	1	25
499.064	1	35
499.234	1	29
499.404	1	38
499.574	1	24
499.745	1	51
499.915	1	43
500.085	1	31
500.255	1	38
500.426	1	40
500.596	1	40
500.766	1	46
500.936	1	30
501.106	1	25
501.277	1	41
501.447	1	43
501.617	1	36
501.787	1	29
501.958	1	35
502.128	1	34
502.298	1	48
502.468	1	59
502.638	1	41
502.809	1	50
502.979	1	37
503.149	1	48
503.319	1	44
503.489	1	49
503.660	1	47
503.830	1	51
504.000	1	41
504.170	1	49
504.340	1	51
504.511	1	60
504.681	1	48
504.851	1	41
505.021	1	51
505.192	1	61
505.362	1	54
505.532	1	51
505.702	1	56
505.872	1	37
506.043	1	67
506.213	1	66
506.383	1	59
506.553	1	64
506.723	1	61
506.893	1	71
507.064	1	51
507.234	1	61
507.404	1	61
507.574	1	56
507.744	1	52
507.915	1	70
508.085	1	76
508.255	1	60
508.425	1	66
508.595	1	65
508.766	1	64
508.936	1	62
509.106	1	60
509.276	1	59
509.446	1	64
509.616	1	62
509.787	1	58
509.957	1	71
510.127	1	79
510.297	1	57
510.467	1	62
510.638	1	57
510.808	1	69
510.978	1	55
511.148	1	75
511.318	1	73
511.488	1	75
511.659	1	64
511.829	1	71
511.999	1	70
512.169	1	66
512.339	1	64
512.509	1	85
512.680	1	74
512.850	1	72
513.020	1	70
513.190	1	68
513.360	1	82
513.530	1	69
513.700	1	67
513.871	1	83
514.041	1	72
514.211	1	69
514.381	1	84
514.551	1	85
514.721	1	67
514.892	1	84
515.062	1	82
515.232	1	91
515.402	1	89
515.572	1	75
515.742	1	92
515.912	1	79
516.083	1	76
516.253	1	81
516.423	1	95
516.593	1	92
516.763	1	80
516.933	1	90
517.104	1	84
517.274	1	86
517.444	1	91
517.614	1	96
517.784	1	77
517.954	1	77
518.124	1	91
518.294	1	90
518.465	1	96
518.635	1	75
518.805	1	76
518.975	1	93
519.145	1	83
519.315	1	82
519.485	1	87
519.656	1	93
519.826	1	85
519.996	1	103
520.166	1	93
520.336	1	83
520.506	1	94
520.676	1	82
520.846	1	90
521.017	1	81
521.187	1	83
521.357	1	81
521.527	1	93
521.697	1	89
521.867	1	95
522.037	1	96
522.207	1	85
522.377	1	94
522.548	1	88
522.718	1	79
522.888	1	82
523.058	1	112
523.228	1	98
523.398	1	101
523.568	1	82
523.738	1	97
523.909	1	104
524.079	1	92
524.249	1	102
524.419	1	94
524.589	1	92
524.759	1	92
524.929	1	105
525.099	1	91
525.269	1	96
525.439	1	93
525.610	1	103
525.780	1	93
525.950	1	89
526.120	1	87
526.290	1	83
526.460	1	98
526.630	1	106
526.800	1	96
526.970	1	100
527.140	1	91
527.311	1	110
527.481	1	104
527.651	1	109
527.821	1	92
527.991	1	102
528.161	1	101
528.331	1	105
528.501	1	94
528.671	1	94
528.841	1	102
529.011	1	90
529.181	1	108
529.352	1	104
529.522	1	108
529.692	1	98
529.862	1	106
530.032	1	103
530.202	1	95
530.372	1	105
530.542	1	106
530.712	1	115
530.882	1	107
531.052	1	109
531.222	1	90
531.392	1	105
531.563	1	117
531.733	1	115
531.903	1	115
532.073	1	102
532.243	1	112
532.413	1	102
532.583	1	114
532.753	1	110
532.923	1	101
533.093	1	112
533.263	1	106
533.433	1	105
533.603	1	108
533.773	1	104
533.943	1	108
534.113	1	111
534.284	1	105
534.454	1	109
534.624	1	120
534.794	1	104
534.964	1	98
535.134	1	104
535.304	1	113
535.474	1	98
535.644	1	119
535.814	1	104
535.984	1	107
536.154	1	100
536.324	1	108
536.494	1	109
536.664	1	114
536.834	1	94
537.004	1	112
537.174	1	104
537.344	1	112
537.514	1	112
537.685	1	93
537.855	1	106
538.025	1	106
538.195	1	107
538.365	1	94
538.535	1	107
538.705	1	99
538.875	1	100
539.045	1	94
539.215	1	81
539.385	1	92
539.555	1	93
539.725	1	100
539.895	1	98
540.065	1	95
540.235	1	88
540.405	1	92
540.575	1	101
540.745	1	78
540.915	1	85
541.085	1	89
541.255	1	81
541.425	1	82
541.595	1	88
541.765	1	95
541.935	1	102
542.105	1	89
542.275	1	78
542.445	1	98
542.615	1	92
542.785	1	91
542.955	1	94
543.125	1	91
543.295	1	99
543.465	1	87
543.635	1	87
543.805	1	97
543.975	1	95
544.145	1	93
544.315	1	88
544.485	1	87
544.655	1	97
544.825	1	102
544.995	1	80
545.165	1	86
545.335	1	93
545.505	1	92
545.675	1	95
545.845	1	81
546.015	1	95
546.185	1	84
546.355	1	90
546.525	1	93
546.695	1	87
546.865	1	77
547.035	1	99
547.205	1	84
547.375	1	107
547.545	1	92
547.715	1	86
547.885	1	99
548.055	1	92
548.225	1	83
548.395	1	91
548.565	1	87
548.735	1	99
548.905	1	76
549.075	1	78
549.245	1	99
549.415	1	81
549.585	1	86
549.755	1	79
549.925	1	80
550.095	1	87
550.265	1	83
550.435	1	81
550.605	1	78
550.775	1	83
550.945	1	97
551.115	1	84
551.285	1	84
551.455	1	80
551.625	1	76
551.795	1	78
551.965	1	87
552.135	1	72
552.305	1	90
552.475	1	72
552.645	1	91
552.815	1	74
552.985	1	83
553.155	1	79
553.325	1	83
553.495	1	81
553.665	1	79
553.835	1	72
554.004	1	74
554.174	1	77
554.344	1	74
554.514	1	78
554.684	1	75
554.854	1	73
555.024	1	75
555.194	1	74
555.364	1	69
555.534	1	73
555.704	1	73
555.874	1	68
556.044	1	76
556.214	1	76
556.384	1	66
556.554	1	69
556.724	1	71
556.894	1	77
557.064	1	75
557.234	1	67
557.404	1	60
557.573	1	71
557.743	1	74
557.913	1	68
558.083	1	61
558.253	1	67
558.423	1	54
558.593	1	62
558.763	1	57
558.933	1	69
559.103	1	61
559.273	1	57
559.443	1	58
559.613	1	63
559.783	1	53
559.953	1	58
560.122	1	43
560.292	1	66
560.462	1	72
560.632	1	46
560.802	1	56
560.972	1	66
561.142	1	66
561.312	1	69
561.482	1	65
561.652	1	62
561.822	1	55
561.992	1	64
562.162	1	54
562.331	1	60
562.501	1	48
562.671	1	59
562.841	1	46
563.011	1	55
563.181	1	55
563.351	1	48
563.521	1	60
563.691	1	54
563.861	1	61
564.031	1	57
564.201	1	55
564.370	1	55
564.540	1	55
564.710	1	42
564.880	1	52
565.050	1	52
565.220	1	50
565.390	1	50
565.560	1	52
565.730	1	52
565.900	1	45
566.069	1	59
566.239	1	48
566.409	1	45
566.579	1	59
566.749	1	52
566.919	1	54
567.089	1	57
567.259	1	55
567.429	1	47
567.599	1	38
567.768	1	47
567.938	1	48
568.108	1	44
568.278	1	32
568.448	1	39
568.618	1	50
568.788	1	38
568.958	1	58
569.128	1	46
569.297	1	51
569.467	1	50
569.637	1	40
569.807	1	42
569.977	1	45
570.147	1	50
570.317	1	63
570.487	1	46
570.656	1	45
570.826	1	42
570.996	1	39
571.166	1	45
571.336	1	47
571.506	1	38
571.676	1	46
571.846	1	37
572.015	1	37
572.185	1	44
572.355	1	56
572.525	1	39
572.695	1	52
572.865	1	36
573.035	1	46
573.205	1	47
573.374	1	40
573.544	1	41
573.714	1	53
573.884	1	43
574.054	1	35
574.224	1	29
574.394	1	38
574.563	1	34
574.733	1	38
574.903	1	46
575.073	1	36
575.243	1	23
575.413	1	33
575.583	1	44
575.752	1	37
575.922	1	37
576.092	1	44
576.262	1	32
576.432	1	34
576.602	1	40
576.772	1	37
576.941	1	39
577.111	1	38
577.281	1	26
577.451	1	33
577.621	1	33
577.791	1	37
577.960	1	21
578.130	1	25
578.300	1	36
578.470	1	27
578.640	1	27
578.810	1	30
578.979	1	38
579.149	1	30
579.319	1	40
579.489	1	32
579.659	1	41
579.829	1	34
579.998	1	30
580.168	1	37
580.338	1	23
580.508	1	37
580.678	1	32
580.848	1	41
581.017	1	28
581.187	1	39
581.357	1	31
581.527	1	28
581.697	1	16
581.867	1	33
582.036	1	29
582.206	1	10
582.376	1	33
582.546	1	20
582.716	1	28
582.885	1	41
583.055	1	32
583.225	1	27
583.395	1	36
583.565	1	43
583.735	1	17
583.904	1	31
584.074	1	22
584.244	1	22
584.414	1	36
584.584	1	30
584.753	1	32
584.923	1	18
585.093	1	32
585.263	1	39
585.433	1	26
585.602	1	22
585.772	1	28
585.942	1	21
586.112	1	23
586.282	1	30
586.451	1	27
586.621	1	16
586.791	1	33
586.961	1	22
587.131	1	15
587.300	1	21
587.470	1	24
587.640	1	11
587.810	1	21
587.980	1	26
588.149	1	31
588.319	1	29
588.489	1	23
588.659	1	32
588.829	1	23
588.998	1	17
589.168	1	28
589.338	1	27
589.508	1	25
589.677	1	19
589.847	1	18
590.017	1	13
590.187	1	16
590.357	1	21
590.526	1	20
590.696	1	21
590.866	1	23
591.036	1	22
591.205	1	29
591.375	1	10
591.545	1	16
591.715	1	5
591.885	1	14
592.054	1	22
592.224	1	17
592.394	1	15
592.564	1	11
592.733	1	20
592.903	1	22
593.073	1	16
593.243	1	17
593.412	1	21
593.582	1	20
593.752	1	17
593.922	1	23
594.091	1	26
594.261	1	22
594.431	1	19
594.601	1	9
594.771	1	23
594.940	1	13
595.110	1	13
595.280	1	6
595.450	1	21
595.619	1	9
595.789	1	19
595.959	1	19
596.129	1	9
596.298	1	24
596.468	1	13
596.638	1	21
596.808	1	27
596.977	1	8
597.147	1	26
597.317	1	14
597.487	1	20
597.656	1	23
597.826	1	19
597.996	1	21
598.166	1	7
598.335	1	12
598.505	1	17
598.675	1	19
598.844	1	7
599.014	1	10
599.184	1	15
599.354	1	6
599.523	1	6
599.693	1	24
599.863	1	22
600.033	1	16
600.202	1	23
600.372	1	19
600.542	1	12
600.712	1	16
600.881	1	12
601.051	1	26
601.221	1	16
601.390	1	5
601.560	1	12
601.730	1	17
601.900	1	25
602.069	1	13
602.239	1	18
602.409	1	15
602.578	1	10
602.748	1	6
602.918	1	9
603.088	1	28
603.257	1	14
603.427	1	16
603.597	1	23
603.767	1	15
603.936	1	26
604.106	1	20
604.276	1	20
604.445	1	20
604.615	1	3
604.785	1	17
604.954	1	19
605.124	1	7
605.294	1	16
605.464	1	14
605.633	1	24
605.803	1	13
605.973	1	1
606.142	1	17
606.312	1	5
606.482	1	13
606.652	1	-2
606.821	1	29
606.991	1	11
607.161	1	16
607.330	1	18
607.500	1	20
607.670	1	9
607.839	1	15
608.009	1	8
608.179	1	9
608.348	1	21
608.518	1	22
608.688	1	21
608.858	1	19
609.027	1	22
609.197	1	1
609.367	1	10
609.536	1	8
609.706	1	14
609.876	1	12
610.045	1	6
610.215	1	22
610.385	1	17
610.554	1	16
610.724	1	14
610.894	1	21
611.063	1	18
611.233	1	-1
611.403	1	14
611.572	1	17
611.742	1	17
611.912	1	7
612.081	1	3
612.251	1	15
612.421	1	26
612.590	1	9
612.760	1	11
612.930	1	10
613.099	1	-6
613.269	1	8
613.439	1	7
613.608	1	24
613.778	1	18
613.948	1	17
614.117	1	19
614.287	1	11
614.457	1	19
614.626	1	19
614.796	1	16
614.966	1	11
615.135	1	9
615.305	1	11
615.475	1	17
615.644	1	7
615.814	1	16
615.984	1	32
616.153	1	12
616.323	1	10
616.493	1	7
616.662	1	10
616.832	1	3
617.002	1	12
617.171	1	0
617.341	1	27
617.511	1	4
617.680	1	11
617.850	1	17
618.019	1	12
618.189	1	11
618.359	1	20
618.528	1	-3
618.698	1	7
618.868	1	21
619.037	1	24
619.207	1	2
619.377	1	-3
619.546	1	17
619.716	1	8
619.885	1	7
620.055	1	12
620.225	1	14
620.394	1	10
620.564	1	1
620.734	1	6
620.903	1	17
621.073	1	6
621.242	1	2
621.412	1	5
621.582	1	9
621.751	1	8
621.921	1	11
622.091	1	1
622.260	1	-5
622.430	1	14
622.599	1	23
622.769	1	9
622.939	1	7
623.108	1	11
623.278	1	13
623.448	1	-3
623.617	1	16
623.787	1	12
623.956	1	12
624.126	1	5
624.296	1	10
624.465	1	11
624.635	1	19
624.804	1	3
624.974	1	12
625.144	1	18
625.313	1	4
625.483	1	11
625.652	1	15
625.822	1	19
625.992	1	-6
626.161	1	6
626.331	1	13
626.501	1	18
626.670	1	12
626.840	1	14
627.009	1	11
627.179	1	7
627.348	1	6
627.518	1	11
627.688	1	7
627.857	1	18
628.027	1	8
628.196	1	23
628.366	1	12
628.536	1	6
628.705	1	5
628.875	1	12
629.044	1	15
629.214	1	10
629.384	1	1
629.553	1	6
629.723	1	13
629.892	1	-4
630.062	1	6
630.232	1	17
630.401	1	6
630.571	1	13
630.740	1	19
630.910	1	5
631.079	1	23
631.249	1	4
631.419	1	9
631.588	1	11
631.758	1	11
631.927	1	3
632.097	1	17
632.266	1	-5
632.436	1	6
632.606	1	8
632.775	1	7
632.945	1	5
633.114	1	13
633.284	1	-1
633.453	1	7
633.623	1	11
633.793	1	13
633.962	1	13
634.132	1	17
634.301	1	7
634.471	1	5
634.640	1	11
634.810	1	10
634.979	1	7
635.149	1	-4
635.319	1	8
635.488	1	18
635.658	1	-4
635.827	1	8
635.997	1	9
636.166	1	7
636.336	1	17
636.505	1	23
636.675	1	8
636.845	1	19
637.014	1	3
637.184	1	3
637.353	1	8
637.523	1	2
637.692	1	-2
637.862	1	-7
638.031	1	13
638.201	1	18
638.370	1	8
638.540	1	12
638.710	1	14
638.879	1	1
639.049	1	11
639.218	1	12
639.388	1	23
639.557	1	9
639.727	1	7
639.896	1	5
640.066	1	13
640.235	1	11
640.405	1	10
640.574	1	4
640.744	1	15
640.914	1	10
641.083	1	3
641.253	1	12
641.422	1	3
641.592	1	1
641.761	1	2
641.931	1	20
642.100	1	5
642.270	1	10
642.439	1	11
642.609	1	11
642.778	1	12
642.948	1	2
643.117	1	6
643.287	1	13
643.456	1	16
643.626	1	8
643.795	1	4
643.965	1	5
644.134	1	15
644.304	1	4
644.473	1	14
644.643	1	7
644.812	1	13
644.982	1	19
645.151	1	5
645.321	1	15
645.490	1	7
645.660	1	5
645.829	1	3
645.999	1	5
646.168	1	3
646.338	1	7
646.507	1	5
646.677	1	14
646.846	1	25
647.016	1	8
647.185	1	9
647.355	1	11
647.524	1	14
647.694	1	5
647.863	1	2
648.033	1	-6
648.202	1	10
648.372	1	13
648.541	1	10
648.711	1	11
648.880	1	2
649.050	1	5
649.219	1	2
649.389	1	2
649.558	1	2
649.728	1	12
649.897	1	7
650.067	1	3
650.236	1	8
650.406	1	9
650.575	1	10
650.745	1	-4
650.914	1	3
651.084	1	8
651.253	1	9
651.423	1	7
651.592	1	6
651.762	1	11
651.931	1	9
652.101	1	3
652.270	1	15
652.440	1	11
652.609	1	12
652.778	1	-2
652.948	1	10
653.117	1	-2
653.287	1	13
653.456	1	2
653.626	1	13
653.795	1	12
653.965	1	7
654.134	1	13
654.304	1	10
654.473	1	13
654.643	1	22
654.812	1	8
654.982	1	1
655.151	1	9
655.320	1	-1
655.490	1	17
655.659	1	4
655.829	1	2
655.998	1	18
656.168	1	4
656.337	1	-4
656.507	1	17
656.676	1	3
656.846	1	-1
657.015	1	-1
657.184	1	9
657.354	1	12
657.523	1	-4
657.693	1	9
657.862	1	-1
658.032	1	18
658.201	1	5
658.371	1	-1
658.540	1	2
658.709	1	2
658.879	1	1
659.048	1	2
659.218	1	1
659.387	1	1
659.557	1	9
659.726	1	5
659.895	1	11
660.065	1	12
660.234	1	8
660.404	1	1
660.573	1	0
660.743	1	3
660.912	1	0
661.081	1	7
661.251	1	16
661.420	1	4
661.590	1	3
661.759	1	5
661.929	1	7
662.098	1	-3
662.267	1	19
662.437	1	10
662.606	1	9
662.776	1	5
662.945	1	-1
663.115	1	0
663.284	1	5
663.453	1	4
663.623	1	15
663.792	1	11
663.962	1	-5
664.131	1	-4
664.300	1	7
664.470	1	7
664.639	1	-2
664.809	1	11
664.978	1	-3
665.148	1	7
665.317	1	-2
665.486	1	12
665.656	1	6
665.825	1	14
665.995	1	6
666.164	1	10
666.333	1	23
666.503	1	1
666.672	1	-6
666.842	1	1
667.011	1	11
667.180	1	16
667.350	1	12
667.519	1	7
667.689	1	-11
667.858	1	17
668.027	1	-2
668.197	1	9
668.366	1	5
668.536	1	6
668.705	1	3
668.874	1	3
669.044	1	3
669.213	1	8
669.382	1	-1
669.552	1	11
669.721	1	8
669.891	1	3
670.060	1	11
670.229	1	2
670.399	1	23
670.568	1	16
670.738	1	-2
670.907	1	2
671.076	1	5
671.246	1	4
671.415	1	3
671.584	1	9
671.754	1	-4
671.923	1	-6
672.093	1	6
672.262	1	11
672.431	1	18
672.601	1	-3
672.770	1	1
672.939	1	-2
673.109	1	8
673.278	1	18
673.448	1	6
673.617	1	7
673.786	1	-1
