325.333	1	-6
325.504	1	4
325.675	1	-7
325.846	1	2
326.017	1	-3
326.188	1	8
326.359	1	6
326.531	1	6
326.702	1	-5
326.873	1	9
327.044	1	-3
327.215	1	-3
327.386	1	-7
327.557	1	3
327.728	1	0
327.899	1	-9
328.070	1	5
328.241	1	3
328.412	1	11
328.583	1	-12
328.754	1	-5
328.926	1	-4
329.097	1	9
329.268	1	0
329.439	1	0
329.610	1	-5
329.781	1	-8
329.952	1	9
330.123	1	-1
330.294	1	3
330.465	1	1
330.636	1	8
330.807	1	6
330.978	1	-3
331.149	1	1
331.320	1	5
331.492	1	-20
331.663	1	-7
331.834	1	4
332.005	1	2
332.176	1	-1
332.347	1	9
332.518	1	10
332.689	1	8
332.860	1	0
333.031	1	0
333.202	1	-5
333.373	1	-8
333.544	1	3
333.715	1	10
333.886	1	4
334.057	1	-6
334.228	1	-2
334.399	1	3
334.570	1	-7
334.741	1	-12
334.912	1	-3
335.084	1	0
335.255	1	4
335.426	1	-4
335.597	1	-10
335.768	1	-1
335.939	1	-1
336.110	1	-5
336.281	1	-6
336.452	1	-1
336.623	1	-6
336.794	1	-10
336.965	1	-4
337.136	1	-4
337.307	1	-1
337.478	1	7
337.649	1	4
337.820	1	9
337.991	1	0
338.162	1	1
338.333	1	1
338.504	1	7
338.675	1	5
338.846	1	1
339.017	1	-11
339.188	1	3
339.359	1	-3
339.530	1	-4
339.701	1	5
339.872	1	5
340.043	1	2
340.214	1	3
340.385	1	6
340.556	1	8
340.727	1	3
340.898	1	-6
341.069	1	5
341.240	1	1
341.411	1	10
341.582	1	-2
341.753	1	2
341.924	1	-8
342.095	1	9
342.266	1	-9
342.437	1	2
342.608	1	-12
342.779	1	-1
342.950	1	6
343.121	1	-1
343.292	1	0
343.463	1	-2
343.634	1	-8
343.805	1	4
343.976	1	13
344.147	1	-8
344.318	1	4
344.489	1	-10
344.660	1	0
344.831	1	-9
345.002	1	-1
345.173	1	0
345.344	1	-5
345.515	1	2
345.686	1	-2
345.857	1	-5
346.028	1	-9
346.199	1	-3
346.370	1	4
346.541	1	-11
346.712	1	-2
346.883	1	-5
347.054	1	5
347.225	1	-3
347.396	1	4
347.567	1	-3
347.738	1	6
347.909	1	-13
348.080	1	-7
348.251	1	4
348.422	1	-3
348.593	1	-3
348.764	1	-6
348.935	1	6
349.106	1	6
349.277	1	-7
349.448	1	-3
349.619	1	-2
349.790	1	-1
349.961	1	3
350.132	1	-2
350.303	1	-18
350.474	1	0
350.645	1	0
350.816	1	-5
350.987	1	-3
351.157	1	7
351.328	1	-2
351.499	1	-3
351.670	1	4
351.841	1	-1
352.012	1	-6
352.183	1	-3
352.354	1	-2
352.525	1	1
352.696	1	-5
352.867	1	3
353.038	1	6
353.209	1	11
353.380	1	2
353.551	1	3
353.722	1	-3
353.893	1	-3
354.064	1	-1
354.235	1	5
354.406	1	-4
354.576	1	1
354.747	1	8
354.918	1	-9
355.089	1	-3
355.260	1	1
355.431	1	3
355.602	1	6
355.773	1	-5
355.944	1	11
356.115	1	-11
356.286	1	3
356.457	1	-4
356.628	1	-6
356.799	1	-6
356.970	1	3
357.141	1	-13
357.311	1	-1
357.482	1	-9
357.653	1	1
357.824	1	10
357.995	1	1
358.166	1	3
358.337	1	1
358.508	1	2
358.679	1	3
358.850	1	-2
359.021	1	-2
359.192	1	12
359.363	1	6
359.533	1	-4
359.704	1	-4
359.875	1	-1
360.046	1	3
360.217	1	10
360.388	1	-5
360.559	1	-4
360.730	1	-2
360.901	1	5
361.072	1	-7
361.243	1	2
361.414	1	8
361.584	1	9
361.755	1	7
361.926	1	17
362.097	1	-1
362.268	1	7
362.439	1	-14
362.610	1	0
362.781	1	4
362.952	1	0
363.123	1	11
363.293	1	0
363.464	1	5
363.635	1	8
363.806	1	3
363.977	1	5
364.148	1	-6
364.319	1	3
364.490	1	0
364.661	1	6
364.832	1	4
365.002	1	4
365.173	1	12
365.344	1	-2
365.515	1	7
365.686	1	9
365.857	1	4
366.028	1	-2
366.199	1	0
366.370	1	4
366.540	1	10
366.711	1	11
366.882	1	9
367.053	1	8
367.224	1	8
367.395	1	5
367.566	1	3
367.737	1	-10
367.908	1	11
368.078	1	11
368.249	1	-1
368.420	1	-5
368.591	1	14
368.762	1	-6
368.933	1	9
369.104	1	2
369.274	1	5
369.445	1	2
369.616	1	9
369.787	1	10
369.958	1	6
370.129	1	3
370.300	1	0
370.471	1	14
370.641	1	3
370.812	1	4
370.983	1	-3
371.154	1	-1
371.325	1	1
371.496	1	-3
371.667	1	-5
371.837	1	-12
372.008	1	1
372.179	1	6
372.350	1	-15
372.521	1	-3
372.692	1	3
372.863	1	5
373.033	1	7
373.204	1	12
373.375	1	-1
373.546	1	3
373.717	1	-3
373.888	1	-7
374.059	1	1
374.229	1	-14
374.400	1	1
374.571	1	7
374.742	1	5
374.913	1	-5
375.084	1	-7
375.254	1	-2
375.425	1	-3
375.596	1	-12
375.767	1	8
375.938	1	-1
376.109	1	-2
376.279	1	-9
376.450	1	3
376.621	1	13
376.792	1	4
376.963	1	-3
377.134	1	-6
377.304	1	-1
377.475	1	1
377.646	1	3
377.817	1	0
377.988	1	-2
378.159	1	-2
378.329	1	2
378.500	1	-3
378.671	1	-6
378.842	1	-10
379.013	1	-2
379.184	1	1
379.354	1	4
379.525	1	4
379.696	1	1
379.867	1	3
380.038	1	3
380.209	1	3
380.379	1	-4
380.550	1	1
380.721	1	15
380.892	1	4
381.063	1	2
381.233	1	4
381.404	1	-5
381.575	1	-7
381.746	1	9
381.917	1	-13
382.087	1	0
382.258	1	6
382.429	1	2
382.600	1	11
382.771	1	2
382.941	1	7
383.112	1	7
383.283	1	2
383.454	1	-3
383.625	1	-8
383.795	1	10
383.966	1	-1
384.137	1	12
384.308	1	2
384.479	1	12
384.649	1	3
384.820	1	18
384.991	1	13
385.162	1	15
385.333	1	6
385.503	1	-4
385.674	1	2
385.845	1	18
386.016	1	13
386.187	1	4
386.357	1	4
386.528	1	13
386.699	1	18
386.870	1	21
387.041	1	7
387.211	1	12
387.382	1	2
387.553	1	-2
387.724	1	1
387.894	1	12
388.065	1	21
388.236	1	16
388.407	1	4
388.578	1	6
388.748	1	18
388.919	1	20
389.090	1	17
389.261	1	-11
389.431	1	8
389.602	1	5
389.773	1	4
389.944	1	14
390.114	1	9
390.285	1	5
390.456	1	4
390.627	1	2
390.798	1	14
390.968	1	6
391.139	1	-6
391.310	1	11
391.481	1	-4
391.651	1	12
391.822	1	10
391.993	1	5
392.164	1	12
392.334	1	14
392.505	1	9
392.676	1	10
392.847	1	3
393.017	1	-4
393.188	1	2
393.359	1	9
393.530	1	2
393.700	1	20
393.871	1	2
394.042	1	9
394.213	1	6
394.383	1	8
394.554	1	13
394.725	1	4
394.896	1	1
395.066	1	6
395.237	1	19
395.408	1	13
395.579	1	15
395.749	1	13
395.920	1	9
396.091	1	7
396.262	1	6
396.432	1	2
396.603	1	7
396.774	1	3
396.945	1	11
397.115	1	14
397.286	1	9
397.457	1	14
397.627	1	12
397.798	1	7
397.969	1	4
398.140	1	11
398.310	1	12
398.481	1	4
398.652	1	17
398.823	1	20
398.993	1	8
399.164	1	22
399.335	1	-1
399.505	1	11
399.676	1	13
399.847	1	3
400.018	1	5
400.188	1	13
400.359	1	14
400.530	1	13
400.700	1	7
400.871	1	3
401.042	1	10
401.213	1	-5
401.383	1	5
401.554	1	11
401.725	1	9
401.895	1	13
402.066	1	4
402.237	1	7
402.408	1	13
402.578	1	5
402.749	1	4
402.920	1	-3
403.090	1	7
403.261	1	7
403.432	1	3
403.603	1	5
403.773	1	7
403.944	1	13
404.115	1	-5
404.285	1	2
404.456	1	8
404.627	1	14
404.797	1	26
404.968	1	8
405.139	1	1
405.310	1	-2
405.480	1	13
405.651	1	11
405.822	1	15
405.992	1	4
406.163	1	9
406.334	1	11
406.504	1	0
406.675	1	21
406.846	1	2
407.016	1	-2
407.187	1	5
407.358	1	-5
407.528	1	13
407.699	1	11
407.870	1	14
408.041	1	4
408.211	1	0
408.382	1	13
408.553	1	9
408.723	1	6
408.894	1	-7
409.065	1	10
409.235	1	-16
409.406	1	6
409.577	1	3
409.747	1	1
409.918	1	2
410.089	1	12
410.259	1	-8
410.430	1	18
410.601	1	-4
410.771	1	7
410.942	1	2
411.113	1	-2
411.283	1	5
411.454	1	0
411.625	1	1
411.795	1	17
411.966	1	6
412.137	1	2
412.307	1	8
412.478	1	14
412.649	1	-2
412.819	1	4
412.990	1	7
413.161	1	10
413.331	1	-7
413.502	1	12
413.672	1	5
413.843	1	7
414.014	1	2
414.184	1	-1
414.355	1	3
414.526	1	8
414.696	1	2
414.867	1	8
415.038	1	3
415.208	1	4
415.379	1	12
415.550	1	6
415.720	1	0
415.891	1	6
416.062	1	4
416.232	1	-1
416.403	1	7
416.573	1	7
416.744	1	6
416.915	1	-4
417.085	1	-1
417.256	1	1
417.427	1	7
417.597	1	-11
417.768	1	-3
417.939	1	1
418.109	1	7
418.280	1	13
418.450	1	7
418.621	1	4
418.792	1	2
418.962	1	-4
419.133	1	-11
419.304	1	1
419.474	1	-6
419.645	1	16
419.815	1	-5
419.986	1	4
420.157	1	9
420.327	1	13
420.498	1	7
420.669	1	6
420.839	1	4
421.010	1	14
421.180	1	-3
421.351	1	15
421.522	1	5
421.692	1	5
421.863	1	-6
422.033	1	-1
422.204	1	-9
422.375	1	-5
422.545	1	2
422.716	1	3
422.886	1	1
423.057	1	-1
423.228	1	-16
423.398	1	-4
423.569	1	2
423.740	1	-5
423.910	1	-12
424.081	1	4
424.251	1	2
424.422	1	1
424.593	1	0
424.763	1	4
424.934	1	2
425.104	1	4
425.275	1	-7
425.445	1	1
425.616	1	6
425.787	1	-10
425.957	1	12
426.128	1	-5
426.298	1	1
426.469	1	2
426.640	1	-4
426.810	1	3
426.981	1	-3
427.151	1	4
427.322	1	3
427.493	1	9
427.663	1	-1
427.834	1	-3
428.004	1	2
428.175	1	2
428.345	1	13
428.516	1	9
428.687	1	4
428.857	1	-4
429.028	1	-10
429.198	1	-10
429.369	1	1
429.540	1	7
429.710	1	-7
429.881	1	11
430.051	1	7
430.222	1	-7
430.392	1	1
430.563	1	1
430.734	1	9
430.904	1	-2
431.075	1	12
431.245	1	10
431.416	1	-1
431.586	1	1
431.757	1	15
431.927	1	6
432.098	1	-8
432.269	1	2
432.439	1	-10
432.610	1	-7
432.780	1	-2
432.951	1	1
433.121	1	1
433.292	1	8
433.462	1	6
433.633	1	1
433.804	1	-7
433.974	1	-5
434.145	1	0
434.315	1	-3
434.486	1	9
434.656	1	-1
434.827	1	-7
434.997	1	4
435.168	1	0
435.339	1	-2
435.509	1	-2
435.680	1	-12
435.850	1	-6
436.021	1	0
436.191	1	1
436.362	1	1
436.532	1	-1
436.703	1	6
436.873	1	5
437.044	1	-2
437.214	1	3
437.385	1	1
437.556	1	-4
437.726	1	-1
437.897	1	0
438.067	1	3
438.238	1	-11
438.408	1	5
438.579	1	8
438.749	1	7
438.920	1	-5
439.090	1	10
439.261	1	1
439.431	1	-4
439.602	1	0
439.772	1	2
439.943	1	3
440.113	1	3
440.284	1	12
440.455	1	1
440.625	1	3
440.796	1	8
440.966	1	15
441.137	1	-12
441.307	1	2
441.478	1	-2
441.648	1	-1
441.819	1	-5
441.989	1	1
442.160	1	1
442.330	1	4
442.501	1	-11
442.671	1	4
442.842	1	7
443.012	1	1
443.183	1	-4
443.353	1	5
443.524	1	8
443.694	1	8
443.865	1	-7
444.035	1	-6
444.206	1	8
444.376	1	7
444.547	1	-10
444.717	1	8
444.888	1	-8
445.058	1	0
445.229	1	1
445.399	1	1
445.570	1	4
445.740	1	3
445.911	1	7
446.081	1	8
446.252	1	-1
446.422	1	2
446.593	1	-10
446.763	1	7
446.934	1	4
447.104	1	-9
447.275	1	-5
447.445	1	-4
447.616	1	4
447.786	1	11
447.957	1	3
448.127	1	0
448.298	1	0
448.468	1	7
448.639	1	5
448.809	1	-1
448.979	1	4
449.150	1	5
449.320	1	-7
449.491	1	-5
449.661	1	-4
449.832	1	1
450.002	1	1
450.173	1	-7
450.343	1	-3
450.514	1	2
450.684	1	-9
450.855	1	10
451.025	1	-3
451.196	1	-3
451.366	1	-7
451.537	1	-3
451.707	1	-1
451.878	1	-7
452.048	1	-8
452.218	1	-6
452.389	1	-1
452.559	1	-1
452.730	1	-8
452.900	1	5
453.071	1	3
453.241	1	1
453.412	1	-8
453.582	1	2
453.753	1	-8
453.923	1	6
454.093	1	-5
454.264	1	0
454.434	1	9
454.605	1	11
454.775	1	-1
454.946	1	1
455.116	1	1
455.287	1	7
455.457	1	-4
455.628	1	-1
455.798	1	-10
455.968	1	0
456.139	1	3
456.309	1	-1
456.480	1	-6
456.650	1	2
456.821	1	2
456.991	1	5
457.161	1	1
457.332	1	6
457.502	1	1
457.673	1	-11
457.843	1	5
458.014	1	3
458.184	1	4
458.355	1	5
458.525	1	6
458.695	1	-4
458.866	1	-4
459.036	1	6
459.207	1	-2
459.377	1	6
459.548	1	-2
459.718	1	-12
459.888	1	7
460.059	1	0
460.229	1	10
460.400	1	5
460.570	1	-3
460.740	1	-7
460.911	1	11
461.081	1	-2
461.252	1	6
461.422	1	2
461.593	1	10
461.763	1	-1
461.933	1	-15
462.104	1	0
462.274	1	3
462.445	1	-7
462.615	1	-10
462.785	1	-2
462.956	1	-5
463.126	1	-4
463.297	1	-9
463.467	1	-2
463.638	1	-5
463.808	1	0
463.978	1	5
464.149	1	-5
464.319	1	2
464.490	1	-5
464.660	1	2
464.830	1	-2
465.001	1	3
465.171	1	10
465.342	1	7
465.512	1	6
465.682	1	3
465.853	1	1
466.023	1	1
466.194	1	-3
466.364	1	-3
466.534	1	3
466.705	1	6
466.875	1	8
467.045	1	0
467.216	1	-3
467.386	1	-4
467.557	1	14
467.727	1	-11
467.897	1	16
468.068	1	7
468.238	1	-10
468.409	1	4
468.579	1	10
468.749	1	-2
468.920	1	4
469.090	1	8
469.260	1	4
469.431	1	6
469.601	1	2
469.772	1	-7
469.942	1	-1
470.112	1	-2
470.283	1	9
470.453	1	3
470.623	1	6
470.794	1	3
470.964	1	-2
471.135	1	-8
471.305	1	-5
471.475	1	-3
471.646	1	8
471.816	1	-3
471.986	1	3
472.157	1	-1
472.327	1	-4
472.497	1	0
472.668	1	-9
472.838	1	3
473.009	1	2
473.179	1	-2
473.349	1	11
473.520	1	2
473.690	1	11
473.860	1	-4
474.031	1	3
474.201	1	-3
474.371	1	-4
474.542	1	-7
474.712	1	-3
474.882	1	-11
475.053	1	-19
475.223	1	-6
475.394	1	-6
475.564	1	14
475.734	1	-3
475.905	1	4
476.075	1	-1
476.245	1	1
476.416	1	-7
476.586	1	0
476.756	1	-2
476.927	1	10
477.097	1	1
477.267	1	-4
477.438	1	-1
477.608	1	10
477.778	1	10
477.949	1	1
478.119	1	-3
478.289	1	-5
478.460	1	4
478.630	1	-4
478.800	1	7
478.971	1	-4
479.141	1	1
479.311	1	5
479.482	1	-6
479.652	1	4
479.822	1	-12
479.993	1	0
480.163	1	-3
480.333	1	-5
480.504	1	0
480.674	1	9
480.844	1	6
481.015	1	-4
481.185	1	12
481.355	1	8
481.525	1	4
481.696	1	0
481.866	1	-8
482.036	1	-4
482.207	1	1
482.377	1	-4
482.547	1	-6
482.718	1	5
482.888	1	-1
483.058	1	-2
483.229	1	8
483.399	1	3
483.569	1	5
483.740	1	-13
483.910	1	0
484.080	1	-2
484.250	1	-1
484.421	1	-3
484.591	1	14
484.761	1	1
484.932	1	15
485.102	1	0
485.272	1	13
485.443	1	11
485.613	1	6
485.783	1	2
485.953	1	-2
486.124	1	10
486.294	1	-1
486.464	1	-11
486.635	1	6
486.805	1	13
486.975	1	-19
487.146	1	6
487.316	1	11
487.486	1	-5
487.656	1	-9
487.827	1	-3
487.997	1	5
488.167	1	10
488.338	1	11
488.508	1	3
488.678	1	-2
488.848	1	-3
489.019	1	-2
489.189	1	-1
489.359	1	-3
489.529	1	5
489.700	1	1
489.870	1	-4
490.040	1	-6
490.211	1	6
490.381	1	-1
490.551	1	-7
490.721	1	2
490.892	1	8
491.062	1	13
491.232	1	1
491.402	1	-4
491.573	1	-2
491.743	1	-9
491.913	1	0
492.084	1	3
492.254	1	1
492.424	1	4
492.594	1	-2
492.765	1	8
492.935	1	-3
493.105	1	7
493.275	1	10
493.446	1	0
493.616	1	6
493.786	1	-4
493.956	1	-2
494.127	1	-13
494.297	1	1
494.467	1	5
494.637	1	1
494.808	1	7
494.978	1	-2
495.148	1	7
495.318	1	7
495.489	1	-8
495.659	1	2
495.829	1	2
495.999	1	-2
496.170	1	-2
496.340	1	-6
496.510	1	2
496.680	1	-3
496.851	1	-2
497.021	1	9
497.191	1	-5
497.361	1	-2
497.532	1	10
497.702	1	-5
497.872	1	-1
498.042	1	-4
498.213	1	3
498.383	1	-3
498.553	1	4
498.723	1	4
498.894	1	5
499.064	1	16
499.234	1	-7
499.404	1	3
499.574	1	-8
499.745	1	5
499.915	1	4
500.085	1	-1
500.255	1	9
500.426	1	2
500.596	1	-1
500.766	1	7
500.936	1	-5
501.106	1	2
501.277	1	5
501.447	1	1
501.617	1	11
501.787	1	-2
501.958	1	0
502.128	1	-2
502.298	1	5
502.468	1	7
502.638	1	3
502.809	1	9
502.979	1	-9
503.149	1	0
503.319	1	6
503.489	1	0
503.660	1	6
503.830	1	5
504.000	1	-2
504.170	1	5
504.340	1	2
504.511	1	8
504.681	1	-4
504.851	1	4
505.021	1	-5
505.192	1	7
505.362	1	4
505.532	1	-8
505.702	1	7
505.872	1	-14
506.043	1	-6
506.213	1	-1
506.383	1	-2
506.553	1	11
506.723	1	11
506.893	1	4
507.064	1	-4
507.234	1	4
507.404	1	0
507.574	1	3
507.744	1	-5
507.915	1	9
508.085	1	5
508.255	1	4
508.425	1	9
508.595	1	-1
508.766	1	-9
508.936	1	-1
509.106	1	-3
509.276	1	8
509.446	1	5
509.616	1	6
509.787	1	-4
509.957	1	-1
510.127	1	12
510.297	1	-4
510.467	1	2
510.638	1	-8
510.808	1	-7
510.978	1	-9
511.148	1	19
511.318	1	11
511.488	1	9
511.659	1	-1
511.829	1	9
511.999	1	10
512.169	1	11
512.339	1	-2
512.509	1	3
512.680	1	3
512.850	1	-2
513.020	1	11
513.190	1	-4
513.360	1	5
513.530	1	-8
513.700	1	-3
513.871	1	20
514.041	1	5
514.211	1	-9
514.381	1	6
514.551	1	0
514.721	1	7
514.892	1	8
515.062	1	3
515.232	1	13
515.402	1	-7
515.572	1	2
515.742	1	3
515.912	1	1
516.083	1	1
516.253	1	-8
516.423	1	13
516.593	1	0
516.763	1	3
516.933	1	7
517.104	1	0
517.274	1	1
517.444	1	1
517.614	1	2
517.784	1	2
517.954	1	-2
518.124	1	8
518.294	1	3
518.465	1	2
518.635	1	2
518.805	1	7
518.975	1	0
519.145	1	3
519.315	1	-7
519.485	1	0
519.656	1	17
519.826	1	3
519.996	1	19
520.166	1	15
520.336	1	3
520.506	1	11
520.676	1	-3
520.846	1	-8
521.017	1	-7
521.187	1	9
521.357	1	-1
521.527	1	2
521.697	1	2
521.867	1	9
522.037	1	1
522.207	1	-1
522.377	1	9
522.548	1	-8
522.718	1	-6
522.888	1	2
523.058	1	20
523.228	1	21
523.398	1	6
523.568	1	-1
523.738	1	5
523.909	1	13
524.079	1	12
524.249	1	9
524.419	1	1
524.589	1	7
524.759	1	-2
524.929	1	5
525.099	1	-3
525.269	1	8
525.439	1	-2
525.610	1	1
525.780	1	13
525.950	1	-13
526.120	1	2
526.290	1	-4
526.460	1	6
526.630	1	5
526.800	1	11
526.970	1	-3
527.140	1	-6
527.311	1	5
527.481	1	12
527.651	1	10
527.821	1	3
527.991	1	14
528.161	1	8
528.331	1	10
528.501	1	1
528.671	1	1
528.841	1	3
529.011	1	2
529.181	1	2
529.352	1	10
529.522	1	3
529.692	1	12
529.862	1	6
530.032	1	1
530.202	1	8
530.372	1	4
530.542	1	2
530.712	1	10
530.882	1	-5
531.052	1	6
531.222	1	-5
531.392	1	-6
531.563	1	3
531.733	1	11
531.903	1	6
532.073	1	6
532.243	1	0
532.413	1	5
532.583	1	13
532.753	1	5
532.923	1	0
533.093	1	3
533.263	1	5
533.433	1	3
533.603	1	-2
533.773	1	2
533.943	1	8
534.113	1	0
534.284	1	14
534.454	1	5
534.624	1	9
534.794	1	2
534.964	1	-8
535.134	1	-3
535.304	1	8
535.474	1	2
535.644	1	14
535.814	1	13
535.984	1	4
536.154	1	4
536.324	1	4
536.494	1	9
536.664	1	1
536.834	1	4
537.004	1	17
537.174	1	16
537.344	1	0
537.514	1	1
537.685	1	0
537.855	1	10
538.025	1	4
538.195	1	6
538.365	1	13
538.535	1	9
538.705	1	7
538.875	1	2
539.045	1	13
539.215	1	-15
539.385	1	-1
539.555	1	0
539.725	1	9
539.895	1	10
540.065	1	7
540.235	1	-2
540.405	1	-5
540.575	1	0
540.745	1	9
540.915	1	4
541.085	1	-1
541.255	1	-5
541.425	1	4
541.595	1	0
541.765	1	3
541.935	1	10
542.105	1	4
542.275	1	2
542.445	1	13
542.615	1	6
542.785	1	5
542.955	1	11
543.125	1	-4
543.295	1	11
543.465	1	7
543.635	1	5
543.805	1	17
543.975	1	14
544.145	1	2
544.315	1	0
544.485	1	9
544.655	1	6
544.825	1	16
544.995	1	5
545.165	1	6
545.335	1	4
545.505	1	-3
545.675	1	1
545.845	1	-7
546.015	1	8
546.185	1	-2
546.355	1	8
546.525	1	10
546.695	1	-4
546.865	1	0
547.035	1	14
547.205	1	-2
547.375	1	2
547.545	1	5
547.715	1	-1
547.885	1	6
548.055	1	4
548.225	1	7
548.395	1	3
548.565	1	0
548.735	1	10
548.905	1	-8
549.075	1	-4
549.245	1	6
549.415	1	5
549.585	1	-2
549.755	1	6
549.925	1	-1
550.095	1	8
550.265	1	3
550.435	1	12
550.605	1	-5
550.775	1	-5
550.945	1	12
551.115	1	-10
551.285	1	8
551.455	1	0
551.625	1	-1
551.795	1	1
551.965	1	8
552.135	1	-2
552.305	1	7
552.475	1	-6
552.645	1	14
552.815	1	2
552.985	1	12
553.155	1	3
553.325	1	12
553.495	1	0
553.665	1	0
553.835	1	5
554.004	1	6
554.174	1	4
554.344	1	-11
554.514	1	6
554.684	1	16
554.854	1	-3
555.024	1	0
555.194	1	13
555.364	1	9
555.534	1	0
555.704	1	-1
555.874	1	2
556.044	1	9
556.214	1	4
556.384	1	7
556.554	1	-8
556.724	1	-4
556.894	1	8
557.064	1	10
557.234	1	-1
557.404	1	-3
557.573	1	-3
557.743	1	12
557.913	1	3
558.083	1	0
558.253	1	-8
558.423	1	-4
558.593	1	1
558.763	1	2
558.933	1	8
559.103	1	2
559.273	1	0
559.443	1	7
559.613	1	2
559.783	1	3
559.953	1	3
560.122	1	0
560.292	1	2
560.462	1	-6
560.632	1	2
560.802	1	2
560.972	1	13
561.142	1	10
561.312	1	3
561.482	1	5
561.652	1	12
561.822	1	-2
561.992	1	-1
562.162	1	3
562.331	1	7
562.501	1	1
562.671	1	8
562.841	1	-6
563.011	1	11
563.181	1	7
563.351	1	-4
563.521	1	3
563.691	1	-3
563.861	1	10
564.031	1	3
564.201	1	5
564.370	1	8
564.540	1	6
564.710	1	-7
564.880	1	3
565.050	1	8
565.220	1	7
565.390	1	-11
565.560	1	-1
565.730	1	5
565.900	1	-1
566.069	1	5
566.239	1	7
566.409	1	0
566.579	1	8
566.749	1	-3
566.919	1	9
567.089	1	2
567.259	1	11
567.429	1	-1
567.599	1	0
567.768	1	3
567.938	1	13
568.108	1	4
568.278	1	-3
568.448	1	-9
568.618	1	5
568.788	1	-5
568.958	1	5
569.128	1	-6
569.297	1	6
569.467	1	-2
569.637	1	-3
569.807	1	-1
569.977	1	-3
570.147	1	-1
570.317	1	16
570.487	1	6
570.656	1	-3
570.826	1	0
570.996	1	4
571.166	1	-1
571.336	1	2
571.506	1	3
571.676	1	7
571.846	1	14
572.015	1	0
572.185	1	-8
572.355	1	11
572.525	1	2
572.695	1	10
572.865	1	8
573.035	1	-1
573.205	1	16
573.374	1	0
573.544	1	1
573.714	1	11
573.884	1	-8
574.054	1	-7
574.224	1	-2
574.394	1	1
574.563	1	-2
574.733	1	6
574.903	1	8
575.073	1	1
575.243	1	-5
575.413	1	10
575.583	1	6
575.752	1	-4
575.922	1	5
576.092	1	12
576.262	1	5
576.432	1	-14
576.602	1	6
576.772	1	8
576.941	1	7
577.111	1	0
577.281	1	3
577.451	1	-2
577.621	1	6
577.791	1	-5
577.960	1	-1
578.130	1	2
578.300	1	-4
578.470	1	-2
578.640	1	-2
578.810	1	-1
578.979	1	-1
579.149	1	-15
579.319	1	0
579.489	1	-2
579.659	1	9
579.829	1	7
579.998	1	3
580.168	1	1
580.338	1	-19
580.508	1	2
580.678	1	8
580.848	1	3
581.017	1	-4
581.187	1	0
581.357	1	9
581.527	1	9
581.697	1	-10
581.867	1	-7
582.036	1	12
582.206	1	-2
582.376	1	9
582.546	1	3
582.716	1	8
582.885	1	2
583.055	1	-9
583.225	1	1
583.395	1	0
583.565	1	10
583.735	1	1
583.904	1	5
584.074	1	-3
584.244	1	-5
584.414	1	-4
584.584	1	11
584.753	1	-8
584.923	1	-1
585.093	1	4
585.263	1	3
585.433	1	-1
585.602	1	-3
585.772	1	-3
585.942	1	9
586.112	1	5
586.282	1	4
586.451	1	5
586.621	1	-2
586.791	1	3
586.961	1	1
587.131	1	-5
587.300	1	-3
587.470	1	10
587.640	1	-1
587.810	1	-4
587.980	1	-3
588.149	1	5
588.319	1	5
588.489	1	7
588.659	1	-3
588.829	1	3
588.998	1	-1
589.168	1	12
589.338	1	1
589.508	1	10
589.677	1	-3
589.847	1	1
590.017	1	-7
590.187	1	-7
590.357	1	-2
590.526	1	9
590.696	1	0
590.866	1	1
591.036	1	13
591.205	1	1
591.375	1	-9
591.545	1	-8
591.715	1	1
591.885	1	3
592.054	1	1
592.224	1	0
592.394	1	8
592.564	1	0
592.733	1	-1
592.903	1	3
593.073	1	11
593.243	1	-6
593.412	1	-4
593.582	1	7
593.752	1	2
593.922	1	0
594.091	1	5
594.261	1	10
594.431	1	2
594.601	1	-9
594.771	1	3
594.940	1	0
595.110	1	7
595.280	1	4
595.450	1	7
595.619	1	5
595.789	1	3
595.959	1	3
596.129	1	2
596.298	1	7
596.468	1	-1
596.638	1	2
596.808	1	4
596.977	1	-7
597.147	1	8
597.317	1	11
597.487	1	-4
597.656	1	3
597.826	1	-2
597.996	1	1
598.166	1	-1
598.335	1	2
598.505	1	1
598.675	1	14
598.844	1	-3
599.014	1	5
599.184	1	1
599.354	1	-10
599.523	1	-8
599.693	1	9
599.863	1	10
600.033	1	-4
600.202	1	0
600.372	1	-9
600.542	1	0
600.712	1	10
600.881	1	9
601.051	1	3
601.221	1	0
601.390	1	-15
601.560	1	9
601.730	1	1
601.900	1	-7
602.069	1	-4
602.239	1	-3
602.409	1	-10
602.578	1	-4
602.748	1	-5
602.918	1	-4
603.088	1	-1
603.257	1	3
603.427	1	10
603.597	1	5
603.767	1	-11
603.936	1	-1
604.106	1	1
604.276	1	1
604.445	1	-1
604.615	1	-1
604.785	1	6
604.954	1	4
605.124	1	-2
605.294	1	4
605.464	1	0
605.633	1	6
605.803	1	0
605.973	1	-1
606.142	1	2
606.312	1	-8
606.482	1	-1
606.652	1	-4
606.821	1	7
606.991	1	1
607.161	1	6
607.330	1	9
607.500	1	1
607.670	1	-4
607.839	1	1
608.009	1	-11
608.179	1	5
608.348	1	0
608.518	1	5
608.688	1	3
608.858	1	6
609.027	1	3
609.197	1	-4
609.367	1	-4
609.536	1	2
609.706	1	-2
609.876	1	3
610.045	1	-5
610.215	1	-1
610.385	1	-8
610.554	1	-9
610.724	1	6
610.894	1	3
611.063	1	20
611.233	1	-9
611.403	1	5
611.572	1	-2
611.742	1	-3
611.912	1	-5
612.081	1	-1
612.251	1	-6
612.421	1	10
612.590	1	-5
612.760	1	-4
612.930	1	3
613.099	1	-8
613.269	1	-3
613.439	1	-1
613.608	1	8
613.778	1	1
613.948	1	7
614.117	1	5
614.287	1	0
614.457	1	0
614.626	1	1
614.796	1	8
614.966	1	-3
615.135	1	-15
615.305	1	-8
615.475	1	10
615.644	1	-15
615.814	1	-3
615.984	1	13
616.153	1	3
616.323	1	0
616.493	1	1
616.662	1	4
616.832	1	-3
617.002	1	-5
617.171	1	-3
617.341	1	1
617.511	1	1
617.680	1	-4
617.850	1	7
618.019	1	-1
618.189	1	-13
618.359	1	4
618.528	1	-5
618.698	1	0
618.868	1	4
619.037	1	3
619.207	1	-6
619.377	1	-5
619.546	1	-6
619.716	1	-5
619.885	1	-3
620.055	1	5
620.225	1	-4
620.394	1	1
620.564	1	-12
620.734	1	-3
620.903	1	5
621.073	1	-8
621.242	1	-8
621.412	1	-4
621.582	1	-6
621.751	1	3
621.921	1	-6
622.091	1	1
622.260	1	-6
622.430	1	-2
622.599	1	6
622.769	1	9
622.939	1	-9
623.108	1	3
623.278	1	-1
623.448	1	-1
623.617	1	6
623.787	1	0
623.956	1	-4
624.126	1	3
624.296	1	-1
624.465	1	7
624.635	1	6
624.804	1	-5
624.974	1	-4
625.144	1	3
625.313	1	4
625.483	1	0
625.652	1	2
625.822	1	0
625.992	1	-4
626.161	1	8
626.331	1	8
626.501	1	2
626.670	1	5
626.840	1	6
627.009	1	-12
627.179	1	-6
627.348	1	2
627.518	1	-11
627.688	1	6
627.857	1	4
628.027	1	1
628.196	1	1
628.366	1	-2
628.536	1	-2
628.705	1	-4
628.875	1	3
629.044	1	1
629.214	1	4
629.384	1	-10
629.553	1	2
629.723	1	4
629.892	1	-4
630.062	1	4
630.232	1	7
630.401	1	4
630.571	1	-1
630.740	1	11
630.910	1	4
631.079	1	8
631.249	1	0
631.419	1	-2
631.588	1	-1
631.758	1	-2
631.927	1	-8
632.097	1	1
632.266	1	-13
632.436	1	-12
632.606	1	5
632.775	1	-7
632.945	1	2
633.114	1	-1
633.284	1	-9
633.453	1	-3
633.623	1	-7
633.793	1	-1
633.962	1	2
634.132	1	1
634.301	1	-3
634.471	1	-7
634.640	1	7
634.810	1	-2
634.979	1	4
635.149	1	-5
635.319	1	6
635.488	1	-1
635.658	1	-16
635.827	1	-6
635.997	1	13
636.166	1	1
636.336	1	1
636.505	1	3
636.675	1	-12
636.845	1	3
637.014	1	-1
637.184	1	-2
637.353	1	-2
637.523	1	-3
637.692	1	4
637.862	1	-17
638.031	1	17
638.201	1	13
638.370	1	5
638.540	1	0
638.710	1	-2
638.879	1	-1
639.049	1	0
639.218	1	6
639.388	1	10
639.557	1	3
639.727	1	-5
639.896	1	-3
640.066	1	-4
640.235	1	5
640.405	1	7
640.574	1	-2
640.744	1	-3
640.914	1	-5
641.083	1	1
641.253	1	-1
641.422	1	-1
641.592	1	-14
641.761	1	2
641.931	1	2
642.100	1	-6
642.270	1	0
642.439	1	-6
642.609	1	3
642.778	1	-10
642.948	1	9
643.117	1	-2
643.287	1	-3
643.456	1	-2
643.626	1	-2
643.795	1	2
643.965	1	-5
644.134	1	4
644.304	1	-6
644.473	1	21
644.643	1	-2
644.812	1	8
644.982	1	9
645.151	1	0
645.321	1	12
645.490	1	1
645.660	1	-3
645.829	1	-12
645.999	1	-4
646.168	1	-2
646.338	1	6
646.507	1	6
646.677	1	-7
646.846	1	12
647.016	1	-1
647.185	1	-10
647.355	1	1
647.524	1	2
647.694	1	-11
647.863	1	-14
648.033	1	-5
648.202	1	11
648.372	1	8
648.541	1	-5
648.711	1	4
648.880	1	-3
649.050	1	-3
649.219	1	3
649.389	1	4
649.558	1	-3
649.728	1	10
649.897	1	-5
650.067	1	-5
650.236	1	7
650.406	1	-1
650.575	1	4
650.745	1	-8
650.914	1	-7
651.084	1	-1
651.253	1	0
651.423	1	1
651.592	1	1
651.762	1	3
651.931	1	6
652.101	1	-10
652.270	1	2
652.440	1	5
652.609	1	9
652.778	1	-6
652.948	1	0
653.117	1	1
653.287	1	5
653.456	1	-4
653.626	1	3
653.795	1	2
653.965	1	13
654.134	1	-1
654.304	1	4
654.473	1	1
654.643	1	3
654.812	1	3
654.982	1	-10
655.151	1	-5
655.320	1	-4
655.490	1	11
655.659	1	2
655.829	1	0
655.998	1	3
656.168	1	-2
656.337	1	-4
656.507	1	11
656.676	1	-14
656.846	1	-2
657.015	1	2
657.184	1	1
657.354	1	-1
657.523	1	-1
657.693	1	4
657.862	1	-6
658.032	1	3
658.201	1	1
658.371	1	-7
658.540	1	3
658.709	1	-11
658.879	1	-2
659.048	1	18
659.218	1	-8
659.387	1	-5
659.557	1	0
659.726	1	-2
659.895	1	-2
660.065	1	2
660.234	1	2
660.404	1	6
660.573	1	-1
660.743	1	-10
660.912	1	5
661.081	1	2
661.251	1	3
661.420	1	2
661.590	1	-2
661.759	1	10
661.929	1	6
662.098	1	-10
662.267	1	6
662.437	1	1
662.606	1	-2
662.776	1	5
662.945	1	3
663.115	1	-10
663.284	1	-1
663.453	1	2
663.623	1	0
663.792	1	7
663.962	1	-15
664.131	1	1
664.300	1	4
664.470	1	-1
664.639	1	1
664.809	1	-1
664.978	1	-6
665.148	1	-2
665.317	1	-7
665.486	1	-9
665.656	1	-1
665.825	1	11
665.995	1	3
666.164	1	-1
666.333	1	1
666.503	1	-2
666.672	1	-11
666.842	1	-3
667.011	1	6
667.180	1	-2
667.350	1	8
667.519	1	-2
667.689	1	-1
667.858	1	7
668.027	1	-9
668.197	1	3
668.366	1	-4
668.536	1	-2
668.705	1	-3
668.874	1	5
669.044	1	-7
669.213	1	3
669.382	1	-8
669.552	1	7
669.721	1	-6
669.891	1	1
670.060	1	0
670.229	1	-3
670.399	1	7
670.568	1	6
670.738	1	-10
670.907	1	-13
671.076	1	16
671.246	1	-2
671.415	1	-2
671.584	1	-4
671.754	1	-9
671.923	1	-8
672.093	1	2
672.262	1	11
672.431	1	7
672.601	1	-2
672.770	1	4
672.939	1	-8
673.109	1	0
673.278	1	-7
673.448	1	-5
673.617	1	9
673.786	1	-3
