325.333	1	2
325.504	1	7
325.675	1	-5
325.846	1	-1
326.017	1	-3
326.188	1	8
326.359	1	16
326.531	1	-1
326.702	1	-3
326.873	1	2
327.044	1	-1
327.215	1	-2
327.386	1	-2
327.557	1	1
327.728	1	-3
327.899	1	-2
328.070	1	6
328.241	1	-2
328.412	1	3
328.583	1	-1
328.754	1	-2
328.926	1	0
329.097	1	4
329.268	1	3
329.439	1	-3
329.610	1	-7
329.781	1	0
329.952	1	17
330.123	1	-5
330.294	1	9
330.465	1	2
330.636	1	9
330.807	1	9
330.978	1	4
331.149	1	2
331.320	1	1
331.492	1	-4
331.663	1	-1
331.834	1	14
332.005	1	1
332.176	1	-7
332.347	1	9
332.518	1	5
332.689	1	0
332.860	1	-4
333.031	1	1
333.202	1	-3
333.373	1	-2
333.544	1	0
333.715	1	1
333.886	1	-2
334.057	1	-3
334.228	1	-10
334.399	1	2
334.570	1	-4
334.741	1	-11
334.912	1	-2
335.084	1	-6
335.255	1	-3
335.426	1	3
335.597	1	1
335.768	1	-7
335.939	1	0
336.110	1	2
336.281	1	-12
336.452	1	-6
336.623	1	6
336.794	1	-2
336.965	1	10
337.136	1	-2
337.307	1	12
337.478	1	9
337.649	1	0
337.820	1	13
337.991	1	12
338.162	1	1
338.333	1	7
338.504	1	-2
338.675	1	3
338.846	1	-4
339.017	1	12
339.188	1	8
339.359	1	8
339.530	1	4
339.701	1	-4
339.872	1	4
340.043	1	-5
340.214	1	-2
340.385	1	8
340.556	1	9
340.727	1	4
340.898	1	5
341.069	1	3
341.240	1	2
341.411	1	1
341.582	1	-1
341.753	1	-3
341.924	1	-3
342.095	1	5
342.266	1	0
342.437	1	8
342.608	1	-8
342.779	1	-3
342.950	1	-4
343.121	1	6
343.292	1	12
343.463	1	-8
343.634	1	-2
343.805	1	8
343.976	1	9
344.147	1	7
344.318	1	5
344.489	1	-5
344.660	1	10
344.831	1	-1
345.002	1	-2
345.173	1	-2
345.344	1	-7
345.515	1	2
345.686	1	-1
345.857	1	-1
346.028	1	3
346.199	1	-7
346.370	1	5
346.541	1	-1
346.712	1	8
346.883	1	6
347.054	1	-1
347.225	1	-6
347.396	1	2
347.567	1	1
347.738	1	7
347.909	1	11
348.080	1	-3
348.251	1	-3
348.422	1	-2
348.593	1	-1
348.764	1	-4
348.935	1	4
349.106	1	7
349.277	1	-4
349.448	1	4
349.619	1	10
349.790	1	-3
349.961	1	3
350.132	1	-4
350.303	1	-9
350.474	1	7
350.645	1	8
350.816	1	0
350.987	1	-7
351.157	1	13
351.328	1	1
351.499	1	3
351.670	1	4
351.841	1	8
352.012	1	-6
352.183	1	0
352.354	1	9
352.525	1	1
352.696	1	-5
352.867	1	-3
353.038	1	26
353.209	1	8
353.380	1	4
353.551	1	4
353.722	1	0
353.893	1	1
354.064	1	11
354.235	1	5
354.406	1	-3
354.576	1	13
354.747	1	-3
354.918	1	-9
355.089	1	5
355.260	1	-5
355.431	1	8
355.602	1	8
355.773	1	-8
355.944	1	0
356.115	1	-6
356.286	1	1
356.457	1	7
356.628	1	-3
356.799	1	2
356.970	1	-4
357.141	1	3
357.311	1	3
357.482	1	11
357.653	1	-4
357.824	1	7
357.995	1	8
358.166	1	7
358.337	1	1
358.508	1	8
358.679	1	17
358.850	1	9
359.021	1	-2
359.192	1	7
359.363	1	3
359.533	1	2
359.704	1	-2
359.875	1	8
360.046	1	-1
360.217	1	15
360.388	1	15
360.559	1	10
360.730	1	4
360.901	1	6
361.072	1	10
361.243	1	9
361.414	1	6
361.584	1	22
361.755	1	15
361.926	1	21
362.097	1	3
362.268	1	20
362.439	1	7
362.610	1	6
362.781	1	7
362.952	1	12
363.123	1	13
363.293	1	4
363.464	1	26
363.635	1	15
363.806	1	16
363.977	1	17
364.148	1	12
364.319	1	25
364.490	1	10
364.661	1	16
364.832	1	7
365.002	1	22
365.173	1	14
365.344	1	20
365.515	1	6
365.686	1	30
365.857	1	15
366.028	1	18
366.199	1	32
366.370	1	28
366.540	1	21
366.711	1	32
366.882	1	7
367.053	1	34
367.224	1	22
367.395	1	19
367.566	1	35
367.737	1	3
367.908	1	23
368.078	1	32
368.249	1	11
368.420	1	11
368.591	1	27
368.762	1	5
368.933	1	15
369.104	1	20
369.274	1	10
369.445	1	15
369.616	1	15
369.787	1	12
369.958	1	16
370.129	1	28
370.300	1	5
370.471	1	29
370.641	1	8
370.812	1	10
370.983	1	13
371.154	1	12
371.325	1	4
371.496	1	8
371.667	1	10
371.837	1	-5
372.008	1	12
372.179	1	8
372.350	1	8
372.521	1	16
372.692	1	7
372.863	1	10
373.033	1	13
373.204	1	18
373.375	1	4
373.546	1	11
373.717	1	16
373.888	1	2
374.059	1	12
374.229	1	6
374.400	1	1
374.571	1	7
374.742	1	16
374.913	1	7
375.084	1	5
375.254	1	9
375.425	1	4
375.596	1	0
375.767	1	11
375.938	1	16
376.109	1	5
376.279	1	1
376.450	1	13
376.621	1	13
376.792	1	1
376.963	1	11
377.134	1	10
377.304	1	18
377.475	1	12
377.646	1	8
377.817	1	17
377.988	1	2
378.159	1	5
378.329	1	15
378.500	1	0
378.671	1	8
378.842	1	8
379.013	1	2
379.184	1	7
379.354	1	4
379.525	1	20
379.696	1	5
379.867	1	9
380.038	1	15
380.209	1	7
380.379	1	2
380.550	1	3
380.721	1	23
380.892	1	16
381.063	1	10
381.233	1	19
381.404	1	11
381.575	1	5
381.746	1	18
381.917	1	6
382.087	1	14
382.258	1	31
382.429	1	14
382.600	1	8
382.771	1	14
382.941	1	29
383.112	1	13
383.283	1	22
383.454	1	27
383.625	1	23
383.795	1	28
383.966	1	27
384.137	1	20
384.308	1	29
384.479	1	49
384.649	1	21
384.820	1	29
384.991	1	38
385.162	1	28
385.333	1	46
385.503	1	36
385.674	1	40
385.845	1	35
386.016	1	46
386.187	1	36
386.357	1	36
386.528	1	50
386.699	1	51
386.870	1	56
387.041	1	37
387.211	1	39
387.382	1	38
387.553	1	45
387.724	1	30
387.894	1	50
388.065	1	33
388.236	1	43
388.407	1	44
388.578	1	29
388.748	1	45
388.919	1	34
389.090	1	45
389.261	1	18
389.431	1	44
389.602	1	40
389.773	1	39
389.944	1	37
390.114	1	47
390.285	1	34
390.456	1	44
390.627	1	27
390.798	1	41
390.968	1	20
391.139	1	17
391.310	1	39
391.481	1	25
391.651	1	36
391.822	1	44
391.993	1	26
392.164	1	29
392.334	1	35
392.505	1	25
392.676	1	32
392.847	1	40
393.017	1	28
393.188	1	26
393.359	1	34
393.530	1	33
393.700	1	30
393.871	1	17
394.042	1	41
394.213	1	29
394.383	1	32
394.554	1	37
394.725	1	31
394.896	1	31
395.066	1	46
395.237	1	38
395.408	1	37
395.579	1	37
395.749	1	35
395.920	1	33
396.091	1	39
396.262	1	36
396.432	1	29
396.603	1	32
396.774	1	30
396.945	1	47
397.115	1	47
397.286	1	40
397.457	1	33
397.627	1	38
397.798	1	27
397.969	1	34
398.140	1	42
398.310	1	36
398.481	1	28
398.652	1	34
398.823	1	49
398.993	1	20
399.164	1	46
399.335	1	32
399.505	1	31
399.676	1	39
399.847	1	26
400.018	1	44
400.188	1	39
400.359	1	37
400.530	1	40
400.700	1	36
400.871	1	25
401.042	1	27
401.213	1	26
401.383	1	33
401.554	1	33
401.725	1	29
401.895	1	34
402.066	1	27
402.237	1	27
402.408	1	33
402.578	1	23
402.749	1	22
402.920	1	16
403.090	1	28
403.261	1	21
403.432	1	23
403.603	1	33
403.773	1	32
403.944	1	18
404.115	1	12
404.285	1	20
404.456	1	17
404.627	1	23
404.797	1	36
404.968	1	20
405.139	1	23
405.310	1	17
405.480	1	28
405.651	1	21
405.822	1	24
405.992	1	16
406.163	1	29
406.334	1	14
406.504	1	25
406.675	1	31
406.846	1	22
407.016	1	14
407.187	1	13
407.358	1	17
407.528	1	29
407.699	1	23
407.870	1	20
408.041	1	26
408.211	1	11
408.382	1	31
408.553	1	31
408.723	1	18
408.894	1	12
409.065	1	28
409.235	1	24
409.406	1	15
409.577	1	15
409.747	1	30
409.918	1	22
410.089	1	24
410.259	1	20
410.430	1	24
410.601	1	8
410.771	1	17
410.942	1	13
411.113	1	15
411.283	1	22
411.454	1	11
411.625	1	11
411.795	1	24
411.966	1	15
412.137	1	14
412.307	1	14
412.478	1	19
412.649	1	10
412.819	1	21
412.990	1	16
413.161	1	15
413.331	1	6
413.502	1	30
413.672	1	3
413.843	1	21
414.014	1	22
414.184	1	2
414.355	1	12
414.526	1	6
414.696	1	14
414.867	1	20
415.038	1	17
415.208	1	11
415.379	1	17
415.550	1	11
415.720	1	24
415.891	1	26
416.062	1	17
416.232	1	12
416.403	1	16
416.573	1	8
416.744	1	12
416.915	1	13
417.085	1	5
417.256	1	10
417.427	1	18
417.597	1	-4
417.768	1	7
417.939	1	10
418.109	1	19
418.280	1	10
418.450	1	5
418.621	1	22
418.792	1	15
418.962	1	13
419.133	1	9
419.304	1	17
419.474	1	9
419.645	1	23
419.815	1	16
419.986	1	12
420.157	1	21
420.327	1	9
420.498	1	8
420.669	1	12
420.839	1	6
421.010	1	24
421.180	1	12
421.351	1	14
421.522	1	21
421.692	1	18
421.863	1	5
422.033	1	3
422.204	1	-1
422.375	1	-4
422.545	1	12
422.716	1	12
422.886	1	23
423.057	1	5
423.228	1	4
423.398	1	12
423.569	1	9
423.740	1	2
423.910	1	-9
424.081	1	4
424.251	1	0
424.422	1	15
424.593	1	11
424.763	1	7
424.934	1	10
425.104	1	18
425.275	1	-5
425.445	1	6
425.616	1	10
425.787	1	-6
425.957	1	27
426.128	1	3
426.298	1	0
426.469	1	8
426.640	1	3
426.810	1	12
426.981	1	-5
427.151	1	14
427.322	1	-3
427.493	1	11
427.663	1	12
427.834	1	6
428.004	1	3
428.175	1	0
428.345	1	19
428.516	1	7
428.687	1	13
428.857	1	2
429.028	1	3
429.198	1	-8
429.369	1	14
429.540	1	8
429.710	1	5
429.881	1	7
430.051	1	9
430.222	1	-2
430.392	1	2
430.563	1	8
430.734	1	0
430.904	1	-1
431.075	1	2
431.245	1	8
431.416	1	9
431.586	1	6
431.757	1	4
431.927	1	10
432.098	1	7
432.269	1	7
432.439	1	-2
432.610	1	2
432.780	1	4
432.951	1	6
433.121	1	11
433.292	1	1
433.462	1	6
433.633	1	-1
433.804	1	1
433.974	1	0
434.145	1	6
434.315	1	14
434.486	1	15
434.656	1	-2
434.827	1	3
434.997	1	10
435.168	1	5
435.339	1	8
435.509	1	5
435.680	1	0
435.850	1	8
436.021	1	2
436.191	1	5
436.362	1	2
436.532	1	10
436.703	1	13
436.873	1	4
437.044	1	15
437.214	1	2
437.385	1	6
437.556	1	3
437.726	1	5
437.897	1	12
438.067	1	5
438.238	1	-10
438.408	1	1
438.579	1	5
438.749	1	15
438.920	1	1
439.090	1	12
439.261	1	1
439.431	1	-6
439.602	1	6
439.772	1	6
439.943	1	8
440.113	1	15
440.284	1	11
440.455	1	-1
440.625	1	10
440.796	1	7
440.966	1	16
441.137	1	-9
441.307	1	3
441.478	1	2
441.648	1	-3
441.819	1	6
441.989	1	7
442.160	1	11
442.330	1	10
442.501	1	-5
442.671	1	5
442.842	1	8
443.012	1	-2
443.183	1	-4
443.353	1	1
443.524	1	4
443.694	1	7
443.865	1	10
444.035	1	-1
444.206	1	7
444.376	1	10
444.547	1	-3
444.717	1	11
444.888	1	-7
445.058	1	14
445.229	1	6
445.399	1	10
445.570	1	4
445.740	1	11
445.911	1	14
446.081	1	10
446.252	1	-4
446.422	1	4
446.593	1	-5
446.763	1	9
446.934	1	7
447.104	1	0
447.275	1	10
447.445	1	3
447.616	1	2
447.786	1	-2
447.957	1	0
448.127	1	14
448.298	1	6
448.468	1	14
448.639	1	-7
448.809	1	12
448.979	1	3
449.150	1	4
449.320	1	7
449.491	1	-4
449.661	1	11
449.832	1	-10
450.002	1	2
450.173	1	-5
450.343	1	0
450.514	1	2
450.684	1	2
450.855	1	-1
451.025	1	-2
451.196	1	10
451.366	1	7
451.537	1	-2
451.707	1	-1
451.878	1	10
452.048	1	-7
452.218	1	4
452.389	1	3
452.559	1	2
452.730	1	-4
452.900	1	3
453.071	1	7
453.241	1	-2
453.412	1	-2
453.582	1	6
453.753	1	-5
453.923	1	5
454.093	1	3
454.264	1	-6
454.434	1	9
454.605	1	0
454.775	1	10
454.946	1	-1
455.116	1	-4
455.287	1	11
455.457	1	-4
455.628	1	8
455.798	1	-4
455.968	1	2
456.139	1	6
456.309	1	2
456.480	1	-3
456.650	1	7
456.821	1	7
456.991	1	15
457.161	1	8
457.332	1	-1
457.502	1	-4
457.673	1	-2
457.843	1	9
458.014	1	-1
458.184	1	10
458.355	1	11
458.525	1	6
458.695	1	7
458.866	1	-1
459.036	1	1
459.207	1	-3
459.377	1	7
459.548	1	3
459.718	1	-1
459.888	1	-1
460.059	1	4
460.229	1	2
460.400	1	7
460.570	1	0
460.740	1	-3
460.911	1	10
461.081	1	-4
461.252	1	3
461.422	1	0
461.593	1	6
461.763	1	10
461.933	1	-1
462.104	1	-1
462.274	1	6
462.445	1	-3
462.615	1	-9
462.785	1	-6
462.956	1	-3
463.126	1	6
463.297	1	-1
463.467	1	10
463.638	1	-2
463.808	1	9
463.978	1	9
464.149	1	-6
464.319	1	-3
464.490	1	-4
464.660	1	0
464.830	1	14
465.001	1	5
465.171	1	12
465.342	1	5
465.512	1	10
465.682	1	-2
465.853	1	2
466.023	1	6
466.194	1	1
466.364	1	0
466.534	1	3
466.705	1	13
466.875	1	11
467.045	1	7
467.216	1	-2
467.386	1	-3
467.557	1	6
467.727	1	-1
467.897	1	15
468.068	1	-1
468.238	1	-2
468.409	1	1
468.579	1	10
468.749	1	4
468.920	1	6
469.090	1	7
469.260	1	4
469.431	1	5
469.601	1	4
469.772	1	0
469.942	1	0
470.112	1	-2
470.283	1	10
470.453	1	6
470.623	1	-1
470.794	1	0
470.964	1	6
471.135	1	-13
471.305	1	-2
471.475	1	-2
471.646	1	9
471.816	1	5
471.986	1	4
472.157	1	13
472.327	1	9
472.497	1	-4
472.668	1	-4
472.838	1	8
473.009	1	4
473.179	1	-2
473.349	1	3
473.520	1	13
473.690	1	15
473.860	1	4
474.031	1	-1
474.201	1	-8
474.371	1	6
474.542	1	8
474.712	1	2
474.882	1	-4
475.053	1	-9
475.223	1	-2
475.394	1	11
475.564	1	14
475.734	1	6
475.905	1	-2
476.075	1	-1
476.245	1	-5
476.416	1	2
476.586	1	4
476.756	1	7
476.927	1	6
477.097	1	0
477.267	1	4
477.438	1	13
477.608	1	8
477.778	1	10
477.949	1	2
478.119	1	1
478.289	1	-6
478.460	1	-2
478.630	1	-2
478.800	1	-4
478.971	1	4
479.141	1	22
479.311	1	6
479.482	1	-7
479.652	1	-1
479.822	1	-5
479.993	1	0
480.163	1	-6
480.333	1	4
480.504	1	0
480.674	1	6
480.844	1	9
481.015	1	-10
481.185	1	6
481.355	1	9
481.525	1	-1
481.696	1	8
481.866	1	2
482.036	1	0
482.207	1	10
482.377	1	3
482.547	1	3
482.718	1	5
482.888	1	-1
483.058	1	9
483.229	1	11
483.399	1	9
483.569	1	-5
483.740	1	-8
483.910	1	8
484.080	1	-8
484.250	1	-1
484.421	1	8
484.591	1	14
484.761	1	-7
484.932	1	15
485.102	1	9
485.272	1	20
485.443	1	8
485.613	1	-17
485.783	1	8
485.953	1	3
486.124	1	4
486.294	1	2
486.464	1	1
486.635	1	7
486.805	1	25
486.975	1	-10
487.146	1	2
487.316	1	6
487.486	1	-2
487.656	1	-2
487.827	1	7
487.997	1	11
488.167	1	12
488.338	1	17
488.508	1	13
488.678	1	7
488.848	1	-5
489.019	1	2
489.189	1	-1
489.359	1	-3
489.529	1	7
489.700	1	11
489.870	1	-6
490.040	1	4
490.211	1	16
490.381	1	-1
490.551	1	3
490.721	1	7
490.892	1	8
491.062	1	10
491.232	1	6
491.402	1	-12
491.573	1	5
491.743	1	-5
491.913	1	3
492.084	1	9
492.254	1	8
492.424	1	-4
492.594	1	16
492.765	1	9
492.935	1	3
493.105	1	12
493.275	1	11
493.446	1	-6
493.616	1	10
493.786	1	2
493.956	1	-4
494.127	1	1
494.297	1	-4
494.467	1	17
494.637	1	5
494.808	1	5
494.978	1	5
495.148	1	15
495.318	1	25
495.489	1	-4
495.659	1	12
495.829	1	8
495.999	1	8
496.170	1	-5
496.340	1	-1
496.510	1	5
496.680	1	8
496.851	1	10
497.021	1	4
497.191	1	8
497.361	1	4
497.532	1	-2
497.702	1	-2
497.872	1	9
498.042	1	12
498.213	1	16
498.383	1	2
498.553	1	9
498.723	1	5
498.894	1	11
499.064	1	21
499.234	1	8
499.404	1	15
499.574	1	0
499.745	1	9
499.915	1	14
500.085	1	1
500.255	1	16
500.426	1	10
500.596	1	-2
500.766	1	12
500.936	1	-7
501.106	1	3
501.277	1	8
501.447	1	11
501.617	1	15
501.787	1	2
501.958	1	7
502.128	1	8
502.298	1	11
502.468	1	15
502.638	1	6
502.809	1	11
502.979	1	6
503.149	1	7
503.319	1	20
503.489	1	9
503.660	1	7
503.830	1	1
504.000	1	5
504.170	1	13
504.340	1	7
504.511	1	16
504.681	1	-1
504.851	1	3
505.021	1	14
505.192	1	15
505.362	1	12
505.532	1	10
505.702	1	20
505.872	1	0
506.043	1	0
506.213	1	12
506.383	1	14
506.553	1	22
506.723	1	10
506.893	1	12
507.064	1	-1
507.234	1	13
507.404	1	10
507.574	1	11
507.744	1	-4
507.915	1	23
508.085	1	16
508.255	1	17
508.425	1	24
508.595	1	11
508.766	1	2
508.936	1	10
509.106	1	1
509.276	1	10
509.446	1	-1
509.616	1	18
509.787	1	5
509.957	1	11
510.127	1	4
510.297	1	14
510.467	1	14
510.638	1	8
510.808	1	8
510.978	1	0
511.148	1	16
511.318	1	6
511.488	1	16
511.659	1	19
511.829	1	12
511.999	1	16
512.169	1	13
512.339	1	12
512.509	1	11
512.680	1	14
512.850	1	15
513.020	1	10
513.190	1	10
513.360	1	15
513.530	1	13
513.700	1	17
513.871	1	15
514.041	1	17
514.211	1	7
514.381	1	11
514.551	1	10
514.721	1	15
514.892	1	14
515.062	1	11
515.232	1	25
515.402	1	16
515.572	1	12
515.742	1	15
515.912	1	15
516.083	1	16
516.253	1	16
516.423	1	27
516.593	1	9
516.763	1	12
516.933	1	21
517.104	1	20
517.274	1	18
517.444	1	14
517.614	1	11
517.784	1	12
517.954	1	3
518.124	1	21
518.294	1	16
518.465	1	11
518.635	1	9
518.805	1	22
518.975	1	27
519.145	1	12
519.315	1	17
519.485	1	6
519.656	1	11
519.826	1	12
519.996	1	28
520.166	1	16
520.336	1	8
520.506	1	12
520.676	1	8
520.846	1	13
521.017	1	5
521.187	1	12
521.357	1	7
521.527	1	16
521.697	1	22
521.867	1	17
522.037	1	13
522.207	1	7
522.377	1	17
522.548	1	8
522.718	1	13
522.888	1	15
523.058	1	26
523.228	1	34
523.398	1	20
523.568	1	15
523.738	1	13
523.909	1	25
524.079	1	29
524.249	1	21
524.419	1	21
524.589	1	17
524.759	1	12
524.929	1	19
525.099	1	12
525.269	1	26
525.439	1	11
525.610	1	13
525.780	1	17
525.950	1	15
526.120	1	13
526.290	1	13
526.460	1	26
526.630	1	16
526.800	1	14
526.970	1	15
527.140	1	8
527.311	1	29
527.481	1	24
527.651	1	27
527.821	1	9
527.991	1	19
528.161	1	8
528.331	1	22
528.501	1	7
528.671	1	14
528.841	1	26
529.011	1	16
529.181	1	18
529.352	1	20
529.522	1	21
529.692	1	21
529.862	1	19
530.032	1	8
530.202	1	19
530.372	1	7
530.542	1	21
530.712	1	26
530.882	1	20
531.052	1	22
531.222	1	9
531.392	1	12
531.563	1	19
531.733	1	18
531.903	1	23
532.073	1	23
532.243	1	16
532.413	1	23
532.583	1	20
532.753	1	23
532.923	1	18
533.093	1	20
533.263	1	16
533.433	1	15
533.603	1	22
533.773	1	9
533.943	1	19
534.113	1	13
534.284	1	14
534.454	1	27
534.624	1	23
534.794	1	24
534.964	1	11
535.134	1	15
535.304	1	28
535.474	1	16
535.644	1	21
535.814	1	32
535.984	1	9
536.154	1	18
536.324	1	25
536.494	1	27
536.664	1	25
536.834	1	20
537.004	1	26
537.174	1	25
537.344	1	26
537.514	1	20
537.685	1	12
537.855	1	22
538.025	1	18
538.195	1	24
538.365	1	21
538.535	1	24
538.705	1	13
538.875	1	21
539.045	1	21
539.215	1	7
539.385	1	14
539.555	1	10
539.725	1	17
539.895	1	20
540.065	1	14
540.235	1	9
540.405	1	29
540.575	1	23
540.745	1	21
540.915	1	12
541.085	1	7
541.255	1	4
541.425	1	10
541.595	1	20
541.765	1	14
541.935	1	30
542.105	1	19
542.275	1	18
542.445	1	12
542.615	1	20
542.785	1	15
542.955	1	21
543.125	1	15
543.295	1	21
543.465	1	23
543.635	1	16
543.805	1	31
543.975	1	23
544.145	1	19
544.315	1	2
544.485	1	17
544.655	1	7
544.825	1	26
544.995	1	19
545.165	1	29
545.335	1	16
545.505	1	15
545.675	1	22
545.845	1	15
546.015	1	7
546.185	1	15
546.355	1	25
546.525	1	25
546.695	1	1
546.865	1	8
547.035	1	11
547.205	1	7
547.375	1	16
547.545	1	20
547.715	1	19
547.885	1	15
548.055	1	19
548.225	1	10
548.395	1	16
548.565	1	17
548.735	1	23
548.905	1	11
549.075	1	10
549.245	1	12
549.415	1	6
549.585	1	17
549.755	1	9
549.925	1	20
550.095	1	16
550.265	1	9
550.435	1	25
550.605	1	17
550.775	1	6
550.945	1	17
551.115	1	7
551.285	1	14
551.455	1	12
551.625	1	7
551.795	1	12
551.965	1	13
552.135	1	13
552.305	1	18
552.475	1	14
552.645	1	25
552.815	1	11
552.985	1	17
553.155	1	22
553.325	1	24
553.495	1	15
553.665	1	10
553.835	1	15
554.004	1	19
554.174	1	12
554.344	1	10
554.514	1	11
554.684	1	14
554.854	1	13
555.024	1	15
555.194	1	30
555.364	1	13
555.534	1	6
555.704	1	20
555.874	1	8
556.044	1	19
556.214	1	11
556.384	1	23
556.554	1	12
556.724	1	2
556.894	1	21
557.064	1	20
557.234	1	12
557.404	1	6
557.573	1	11
557.743	1	17
557.913	1	19
558.083	1	3
558.253	1	7
558.423	1	-2
558.593	1	12
558.763	1	18
558.933	1	9
559.103	1	13
559.273	1	11
559.443	1	15
559.613	1	21
559.783	1	14
559.953	1	9
560.122	1	-3
560.292	1	26
560.462	1	10
560.632	1	18
560.802	1	16
560.972	1	22
561.142	1	15
561.312	1	12
561.482	1	3
561.652	1	5
561.822	1	10
561.992	1	16
562.162	1	15
562.331	1	14
562.501	1	15
562.671	1	10
562.841	1	3
563.011	1	11
563.181	1	10
563.351	1	-5
563.521	1	18
563.691	1	16
563.861	1	14
564.031	1	11
564.201	1	22
564.370	1	20
564.540	1	15
564.710	1	7
564.880	1	17
565.050	1	9
565.220	1	13
565.390	1	2
565.560	1	20
565.730	1	18
565.900	1	7
566.069	1	18
566.239	1	1
566.409	1	1
566.579	1	7
566.749	1	18
566.919	1	18
567.089	1	11
567.259	1	20
567.429	1	16
567.599	1	4
567.768	1	8
567.938	1	12
568.108	1	12
568.278	1	-8
568.448	1	2
568.618	1	16
568.788	1	-2
568.958	1	22
569.128	1	12
569.297	1	7
569.467	1	13
569.637	1	10
569.807	1	-1
569.977	1	14
570.147	1	3
570.317	1	29
570.487	1	14
570.656	1	2
570.826	1	15
570.996	1	-2
571.166	1	4
571.336	1	5
571.506	1	9
571.676	1	10
571.846	1	16
572.015	1	1
572.185	1	4
572.355	1	27
572.525	1	8
572.695	1	6
572.865	1	20
573.035	1	7
573.205	1	23
573.374	1	3
573.544	1	9
573.714	1	15
573.884	1	4
574.054	1	2
574.224	1	14
574.394	1	6
574.563	1	10
574.733	1	12
574.903	1	5
575.073	1	-6
575.243	1	-4
575.413	1	10
575.583	1	6
575.752	1	10
575.922	1	10
576.092	1	18
576.262	1	11
576.432	1	-3
576.602	1	6
576.772	1	4
576.941	1	5
577.111	1	12
577.281	1	12
577.451	1	2
577.621	1	3
577.791	1	13
577.960	1	6
578.130	1	4
578.300	1	-5
578.470	1	3
578.640	1	3
578.810	1	1
578.979	1	5
579.149	1	-5
579.319	1	8
579.489	1	8
579.659	1	10
579.829	1	4
579.998	1	-1
580.168	1	6
580.338	1	-17
580.508	1	9
580.678	1	4
580.848	1	11
581.017	1	5
581.187	1	8
581.357	1	5
581.527	1	13
581.697	1	1
581.867	1	-1
582.036	1	4
582.206	1	-3
582.376	1	4
582.546	1	10
582.716	1	13
582.885	1	11
583.055	1	0
583.225	1	11
583.395	1	1
583.565	1	21
583.735	1	1
583.904	1	10
584.074	1	-11
584.244	1	3
584.414	1	6
584.584	1	19
584.753	1	1
584.923	1	3
585.093	1	11
585.263	1	7
585.433	1	8
585.602	1	3
585.772	1	9
585.942	1	6
586.112	1	10
586.282	1	12
586.451	1	15
586.621	1	1
586.791	1	-4
586.961	1	13
587.131	1	-5
587.300	1	0
587.470	1	12
587.640	1	4
587.810	1	6
587.980	1	-3
588.149	1	3
588.319	1	10
588.489	1	14
588.659	1	-4
588.829	1	6
588.998	1	-6
589.168	1	19
589.338	1	5
589.508	1	17
589.677	1	3
589.847	1	12
590.017	1	-7
590.187	1	-1
590.357	1	1
590.526	1	9
590.696	1	5
590.866	1	5
591.036	1	13
591.205	1	12
591.375	1	-11
591.545	1	-7
591.715	1	0
591.885	1	12
592.054	1	2
592.224	1	15
592.394	1	11
592.564	1	-4
592.733	1	2
592.903	1	7
593.073	1	11
593.243	1	0
593.412	1	4
593.582	1	16
593.752	1	7
593.922	1	7
594.091	1	10
594.261	1	3
594.431	1	9
594.601	1	-6
594.771	1	15
594.940	1	2
595.110	1	5
595.280	1	4
595.450	1	10
595.619	1	-6
595.789	1	13
595.959	1	3
596.129	1	2
596.298	1	17
596.468	1	7
596.638	1	13
596.808	1	0
596.977	1	3
597.147	1	9
597.317	1	8
597.487	1	11
597.656	1	6
597.826	1	5
597.996	1	4
598.166	1	-2
598.335	1	4
598.505	1	4
598.675	1	1
598.844	1	5
599.014	1	4
599.184	1	0
599.354	1	-2
599.523	1	3
599.693	1	9
599.863	1	9
600.033	1	5
600.202	1	1
600.372	1	4
600.542	1	0
600.712	1	11
600.881	1	6
601.051	1	8
601.221	1	7
601.390	1	-1
601.560	1	2
601.730	1	7
601.900	1	8
602.069	1	5
602.239	1	1
602.409	1	-2
602.578	1	9
602.748	1	-9
602.918	1	-4
603.088	1	12
603.257	1	15
603.427	1	4
603.597	1	15
603.767	1	-6
603.936	1	9
604.106	1	6
604.276	1	3
604.445	1	5
604.615	1	-7
604.785	1	12
604.954	1	5
605.124	1	-3
605.294	1	7
605.464	1	-2
605.633	1	11
605.803	1	12
605.973	1	-5
606.142	1	3
606.312	1	-1
606.482	1	-2
606.652	1	-10
606.821	1	12
606.991	1	1
607.161	1	11
607.330	1	11
607.500	1	2
607.670	1	-2
607.839	1	7
608.009	1	-3
608.179	1	9
608.348	1	7
608.518	1	5
608.688	1	0
608.858	1	11
609.027	1	11
609.197	1	-3
609.367	1	0
609.536	1	7
609.706	1	-2
609.876	1	-1
610.045	1	-5
610.215	1	3
610.385	1	-1
610.554	1	-2
610.724	1	6
610.894	1	11
611.063	1	3
611.233	1	-3
611.403	1	4
611.572	1	8
611.742	1	4
611.912	1	-6
612.081	1	2
612.251	1	1
612.421	1	14
612.590	1	6
612.760	1	6
612.930	1	4
613.099	1	-5
613.269	1	9
613.439	1	-8
613.608	1	8
613.778	1	6
613.948	1	6
614.117	1	11
614.287	1	3
614.457	1	-4
614.626	1	8
614.796	1	6
614.966	1	5
615.135	1	-5
615.305	1	9
615.475	1	3
615.644	1	5
615.814	1	3
615.984	1	21
616.153	1	4
616.323	1	11
616.493	1	-4
616.662	1	0
616.832	1	0
617.002	1	-1
617.171	1	-2
617.341	1	-1
617.511	1	5
617.680	1	2
617.850	1	2
618.019	1	1
618.189	1	7
618.359	1	3
618.528	1	-5
618.698	1	5
618.868	1	12
619.037	1	15
619.207	1	-10
619.377	1	-14
619.546	1	9
619.716	1	-3
619.885	1	5
620.055	1	6
620.225	1	16
620.394	1	0
620.564	1	-2
620.734	1	5
620.903	1	10
621.073	1	4
621.242	1	-1
621.412	1	3
621.582	1	-1
621.751	1	-1
621.921	1	9
622.091	1	2
622.260	1	4
622.430	1	10
622.599	1	10
622.769	1	7
622.939	1	2
623.108	1	5
623.278	1	-2
623.448	1	-1
623.617	1	12
623.787	1	-1
623.956	1	7
624.126	1	8
624.296	1	-1
624.465	1	15
624.635	1	6
624.804	1	-4
624.974	1	-3
625.144	1	4
625.313	1	9
625.483	1	12
625.652	1	4
625.822	1	3
625.992	1	-7
626.161	1	12
626.331	1	5
626.501	1	-2
626.670	1	4
626.840	1	8
627.009	1	1
627.179	1	3
627.348	1	9
627.518	1	-6
627.688	1	7
627.857	1	12
628.027	1	2
628.196	1	6
628.366	1	6
628.536	1	1
628.705	1	7
628.875	1	-6
629.044	1	16
629.214	1	1
629.384	1	-10
629.553	1	1
629.723	1	9
629.892	1	4
630.062	1	3
630.232	1	12
630.401	1	5
630.571	1	7
630.740	1	14
630.910	1	7
631.079	1	12
631.249	1	-1
631.419	1	1
631.588	1	1
631.758	1	3
631.927	1	2
632.097	1	10
632.266	1	-13
632.436	1	0
632.606	1	4
632.775	1	0
632.945	1	6
633.114	1	5
633.284	1	-4
633.453	1	6
633.623	1	7
633.793	1	10
633.962	1	5
634.132	1	10
634.301	1	-2
634.471	1	-9
634.640	1	-2
634.810	1	2
634.979	1	6
635.149	1	1
635.319	1	21
635.488	1	13
635.658	1	-5
635.827	1	6
635.997	1	6
636.166	1	3
636.336	1	12
636.505	1	5
636.675	1	-1
636.845	1	11
637.014	1	0
637.184	1	1
637.353	1	3
637.523	1	-1
637.692	1	-3
637.862	1	2
638.031	1	11
638.201	1	11
638.370	1	5
638.540	1	8
638.710	1	4
638.879	1	-6
639.049	1	6
639.218	1	3
639.388	1	0
639.557	1	6
639.727	1	6
639.896	1	3
640.066	1	6
640.235	1	6
640.405	1	6
640.574	1	1
640.744	1	1
640.914	1	-1
641.083	1	1
641.253	1	-7
641.422	1	-5
641.592	1	-4
641.761	1	7
641.931	1	12
642.100	1	3
642.270	1	1
642.439	1	7
642.609	1	4
642.778	1	-3
642.948	1	4
643.117	1	-8
643.287	1	10
643.456	1	9
643.626	1	8
643.795	1	3
643.965	1	6
644.134	1	6
644.304	1	2
644.473	1	5
644.643	1	4
644.812	1	10
644.982	1	12
645.151	1	-4
645.321	1	8
645.490	1	8
645.660	1	-6
645.829	1	-3
645.999	1	4
646.168	1	9
646.338	1	2
646.507	1	3
646.677	1	1
646.846	1	10
647.016	1	3
647.185	1	-7
647.355	1	-2
647.524	1	6
647.694	1	4
647.863	1	-1
648.033	1	-6
648.202	1	4
648.372	1	0
648.541	1	-2
648.711	1	0
648.880	1	13
649.050	1	-7
649.219	1	4
649.389	1	6
649.558	1	-7
649.728	1	2
649.897	1	7
650.067	1	0
650.236	1	11
650.406	1	-9
650.575	1	-8
650.745	1	-8
650.914	1	-3
651.084	1	-7
651.253	1	3
651.423	1	15
651.592	1	4
651.762	1	7
651.931	1	1
652.101	1	1
652.270	1	14
652.440	1	1
652.609	1	21
652.778	1	-8
652.948	1	3
653.117	1	1
653.287	1	14
653.456	1	2
653.626	1	8
653.795	1	6
653.965	1	6
654.134	1	13
654.304	1	4
654.473	1	12
654.643	1	18
654.812	1	3
654.982	1	0
655.151	1	3
655.320	1	-4
655.490	1	14
655.659	1	6
655.829	1	5
655.998	1	12
656.168	1	2
656.337	1	7
656.507	1	7
656.676	1	-3
656.846	1	-10
657.015	1	1
657.184	1	12
657.354	1	11
657.523	1	-9
657.693	1	-1
657.862	1	7
658.032	1	0
658.201	1	2
658.371	1	-6
658.540	1	0
658.709	1	-9
658.879	1	1
659.048	1	2
659.218	1	9
659.387	1	-5
659.557	1	11
659.726	1	-4
659.895	1	-3
660.065	1	-8
660.234	1	2
660.404	1	1
660.573	1	-1
660.743	1	2
660.912	1	13
661.081	1	3
661.251	1	4
661.420	1	-1
661.590	1	2
661.759	1	8
661.929	1	3
662.098	1	-11
662.267	1	7
662.437	1	-3
662.606	1	2
662.776	1	9
662.945	1	8
663.115	1	-10
663.284	1	1
663.453	1	1
663.623	1	3
663.792	1	0
663.962	1	-11
664.131	1	-2
664.300	1	11
664.470	1	3
664.639	1	6
664.809	1	8
664.978	1	-2
665.148	1	8
665.317	1	-10
665.486	1	1
665.656	1	-4
665.825	1	12
665.995	1	3
666.164	1	4
666.333	1	9
666.503	1	0
666.672	1	-11
666.842	1	5
667.011	1	3
667.180	1	1
667.350	1	3
667.519	1	5
667.689	1	8
667.858	1	15
668.027	1	-1
668.197	1	2
668.366	1	3
668.536	1	-1
668.705	1	-1
668.874	1	2
669.044	1	-3
669.213	1	8
669.382	1	0
669.552	1	10
669.721	1	-4
669.891	1	10
670.060	1	8
670.229	1	5
670.399	1	7
670.568	1	8
670.738	1	-5
670.907	1	-5
671.076	1	3
671.246	1	4
671.415	1	6
671.584	1	1
671.754	1	-5
671.923	1	-5
672.093	1	1
672.262	1	7
672.431	1	1
672.601	1	0
672.770	1	5
672.939	1	-4
673.109	1	11
673.278	1	2
673.448	1	2
673.617	1	2
673.786	1	4
