325.333	1	-3
325.504	1	0
325.675	1	9
325.846	1	-10
326.017	1	-9
326.188	1	7
326.359	1	5
326.531	1	-8
326.702	1	-6
326.873	1	-8
327.044	1	-2
327.215	1	-5
327.386	1	6
327.557	1	-2
327.728	1	-5
327.899	1	-12
328.070	1	6
328.241	1	-2
328.412	1	5
328.583	1	-4
328.754	1	1
328.926	1	-3
329.097	1	4
329.268	1	-6
329.439	1	-2
329.610	1	-1
329.781	1	-4
329.952	1	2
330.123	1	1
330.294	1	2
330.465	1	-5
330.636	1	2
330.807	1	-1
330.978	1	-8
331.149	1	0
331.320	1	7
331.492	1	-1
331.663	1	-19
331.834	1	9
332.005	1	1
332.176	1	-5
332.347	1	2
332.518	1	10
332.689	1	-2
332.860	1	-9
333.031	1	2
333.202	1	-3
333.373	1	-2
333.544	1	-4
333.715	1	0
333.886	1	-3
334.057	1	-13
334.228	1	-11
334.399	1	2
334.570	1	2
334.741	1	-10
334.912	1	-10
335.084	1	-7
335.255	1	11
335.426	1	-3
335.597	1	-4
335.768	1	-3
335.939	1	-3
336.110	1	-4
336.281	1	-18
336.452	1	-1
336.623	1	1
336.794	1	-15
336.965	1	-5
337.136	1	-6
337.307	1	-3
337.478	1	9
337.649	1	7
337.820	1	1
337.991	1	-7
338.162	1	0
338.333	1	-2
338.504	1	-6
338.675	1	-5
338.846	1	-3
339.017	1	3
339.188	1	0
339.359	1	-3
339.530	1	-4
339.701	1	-5
339.872	1	-6
340.043	1	-2
340.214	1	-6
340.385	1	-6
340.556	1	4
340.727	1	-1
340.898	1	-5
341.069	1	4
341.240	1	6
341.411	1	-3
341.582	1	2
341.753	1	-5
341.924	1	-10
342.095	1	3
342.266	1	-8
342.437	1	4
342.608	1	-2
342.779	1	1
342.950	1	1
343.121	1	5
343.292	1	1
343.463	1	-4
343.634	1	-13
343.805	1	-3
343.976	1	9
344.147	1	-13
344.318	1	4
344.489	1	-5
344.660	1	9
344.831	1	-12
345.002	1	-8
345.173	1	-3
345.344	1	-7
345.515	1	-6
345.686	1	2
345.857	1	-4
346.028	1	-8
346.199	1	-4
346.370	1	3
346.541	1	-9
346.712	1	-3
346.883	1	-3
347.054	1	-2
347.225	1	-9
347.396	1	-4
347.567	1	10
347.738	1	2
347.909	1	-5
348.080	1	-6
348.251	1	3
348.422	1	-6
348.593	1	-10
348.764	1	-2
348.935	1	4
349.106	1	-6
349.277	1	-11
349.448	1	-7
349.619	1	-12
349.790	1	7
349.961	1	0
350.132	1	-1
350.303	1	-16
350.474	1	1
350.645	1	-3
350.816	1	-13
350.987	1	-1
351.157	1	2
351.328	1	-13
351.499	1	-5
351.670	1	6
351.841	1	-4
352.012	1	-18
352.183	1	2
352.354	1	-1
352.525	1	-1
352.696	1	4
352.867	1	-4
353.038	1	18
353.209	1	-6
353.380	1	1
353.551	1	2
353.722	1	-2
353.893	1	1
354.064	1	-2
354.235	1	7
354.406	1	-11
354.576	1	3
354.747	1	-6
354.918	1	-17
355.089	1	-6
355.260	1	-5
355.431	1	4
355.602	1	0
355.773	1	-10
355.944	1	6
356.115	1	-10
356.286	1	-7
356.457	1	-1
356.628	1	-7
356.799	1	1
356.970	1	-7
357.141	1	-16
357.311	1	-3
357.482	1	0
357.653	1	-7
357.824	1	-7
357.995	1	1
358.166	1	-8
358.337	1	-7
358.508	1	-1
358.679	1	1
358.850	1	-6
359.021	1	-8
359.192	1	3
359.363	1	-8
359.533	1	5
359.704	1	-6
359.875	1	1
360.046	1	-9
360.217	1	8
360.388	1	4
360.559	1	5
360.730	1	-8
360.901	1	2
361.072	1	-6
361.243	1	-8
361.414	1	3
361.584	1	6
361.755	1	3
361.926	1	8
362.097	1	-12
362.268	1	3
362.439	1	1
362.610	1	-8
362.781	1	2
362.952	1	7
363.123	1	4
363.293	1	-5
363.464	1	7
363.635	1	-2
363.806	1	1
363.977	1	1
364.148	1	-4
364.319	1	4
364.490	1	-7
364.661	1	2
364.832	1	0
365.002	1	5
365.173	1	-3
365.344	1	-6
365.515	1	0
365.686	1	-5
365.857	1	0
366.028	1	-2
366.199	1	-4
366.370	1	7
366.540	1	8
366.711	1	7
366.882	1	-16
367.053	1	3
367.224	1	2
367.395	1	-2
367.566	1	0
367.737	1	-12
367.908	1	-2
368.078	1	0
368.249	1	-4
368.420	1	2
368.591	1	12
368.762	1	-3
368.933	1	5
369.104	1	-3
369.274	1	-5
369.445	1	-7
369.616	1	-12
369.787	1	-12
369.958	1	0
370.129	1	5
370.300	1	-9
370.471	1	5
370.641	1	0
370.812	1	-2
370.983	1	0
371.154	1	-1
371.325	1	0
371.496	1	-7
371.667	1	-4
371.837	1	-5
372.008	1	0
372.179	1	6
372.350	1	-7
372.521	1	-4
372.692	1	-6
372.863	1	-6
373.033	1	0
373.204	1	-5
373.375	1	-1
373.546	1	-5
373.717	1	-2
373.888	1	-11
374.059	1	2
374.229	1	-12
374.400	1	-6
374.571	1	-4
374.742	1	-4
374.913	1	-8
375.084	1	-8
375.254	1	7
375.425	1	-5
375.596	1	-18
375.767	1	4
375.938	1	7
376.109	1	-10
376.279	1	-7
376.450	1	-2
376.621	1	13
376.792	1	-9
376.963	1	5
377.134	1	-6
377.304	1	2
377.475	1	9
377.646	1	1
377.817	1	2
377.988	1	-2
378.159	1	5
378.329	1	-4
378.500	1	-7
378.671	1	-6
378.842	1	-11
379.013	1	-4
379.184	1	0
379.354	1	-3
379.525	1	5
379.696	1	-8
379.867	1	7
380.038	1	5
380.209	1	-2
380.379	1	-16
380.550	1	-3
380.721	1	3
380.892	1	-10
381.063	1	2
381.233	1	-4
381.404	1	1
381.575	1	-7
381.746	1	-2
381.917	1	-12
382.087	1	-2
382.258	1	9
382.429	1	-2
382.600	1	-5
382.771	1	-6
382.941	1	2
383.112	1	-3
383.283	1	-12
383.454	1	-7
383.625	1	-9
383.795	1	2
383.966	1	-10
384.137	1	-4
384.308	1	3
384.479	1	-2
384.649	1	-5
384.820	1	-9
384.991	1	-12
385.162	1	-2
385.333	1	7
385.503	1	-5
385.674	1	-3
385.845	1	5
386.016	1	1
386.187	1	3
386.357	1	-7
386.528	1	4
386.699	1	11
386.870	1	9
387.041	1	-7
387.211	1	1
387.382	1	-7
387.553	1	9
387.724	1	-11
387.894	1	15
388.065	1	-2
388.236	1	-7
388.407	1	-5
388.578	1	-1
388.748	1	4
388.919	1	-13
389.090	1	5
389.261	1	-21
389.431	1	3
389.602	1	0
389.773	1	1
389.944	1	2
390.114	1	-1
390.285	1	-7
390.456	1	5
390.627	1	-19
390.798	1	6
390.968	1	2
391.139	1	-3
391.310	1	-4
391.481	1	-5
391.651	1	8
391.822	1	-2
391.993	1	-1
392.164	1	0
392.334	1	-8
392.505	1	-10
392.676	1	-1
392.847	1	-4
393.017	1	-10
393.188	1	3
393.359	1	1
393.530	1	2
393.700	1	5
393.871	1	-6
394.042	1	3
394.213	1	1
394.383	1	1
394.554	1	7
394.725	1	-6
394.896	1	-7
395.066	1	4
395.237	1	3
395.408	1	11
395.579	1	7
395.749	1	-3
395.920	1	-4
396.091	1	4
396.262	1	6
396.432	1	-11
396.603	1	5
396.774	1	-9
396.945	1	5
397.115	1	4
397.286	1	10
397.457	1	2
397.627	1	1
397.798	1	-10
397.969	1	-5
398.140	1	-7
398.310	1	4
398.481	1	-8
398.652	1	9
398.823	1	12
398.993	1	-8
399.164	1	10
399.335	1	0
399.505	1	2
399.676	1	8
399.847	1	-17
400.018	1	3
400.188	1	2
400.359	1	-4
400.530	1	4
400.700	1	-8
400.871	1	-17
401.042	1	-4
401.213	1	-5
401.383	1	1
401.554	1	7
401.725	1	0
401.895	1	6
402.066	1	3
402.237	1	4
402.408	1	-6
402.578	1	-8
402.749	1	-13
402.920	1	-17
403.090	1	-5
403.261	1	-10
403.432	1	-7
403.603	1	-1
403.773	1	0
403.944	1	3
404.115	1	-9
404.285	1	-1
404.456	1	-4
404.627	1	10
404.797	1	11
404.968	1	-12
405.139	1	-4
405.310	1	3
405.480	1	-2
405.651	1	-3
405.822	1	4
405.992	1	-5
406.163	1	11
406.334	1	10
406.504	1	0
406.675	1	4
406.846	1	0
407.016	1	0
407.187	1	-5
407.358	1	-8
407.528	1	-7
407.699	1	8
407.870	1	5
408.041	1	-5
408.211	1	-4
408.382	1	3
408.553	1	5
408.723	1	1
408.894	1	-12
409.065	1	8
409.235	1	-7
409.406	1	-6
409.577	1	0
409.747	1	-4
409.918	1	-3
410.089	1	-2
410.259	1	-10
410.430	1	6
410.601	1	-5
410.771	1	4
410.942	1	0
411.113	1	-3
411.283	1	-10
411.454	1	-10
411.625	1	-2
411.795	1	-4
411.966	1	-6
412.137	1	-10
412.307	1	-10
412.478	1	8
412.649	1	-5
412.819	1	-9
412.990	1	0
413.161	1	5
413.331	1	-13
413.502	1	7
413.672	1	-8
413.843	1	2
414.014	1	-7
414.184	1	-13
414.355	1	-1
414.526	1	-9
414.696	1	-12
414.867	1	6
415.038	1	-5
415.208	1	-11
415.379	1	-4
415.550	1	1
415.720	1	-2
415.891	1	3
416.062	1	-2
416.232	1	-5
416.403	1	8
416.573	1	-5
416.744	1	0
416.915	1	-7
417.085	1	-11
417.256	1	0
417.427	1	-1
417.597	1	-16
417.768	1	-3
417.939	1	-8
418.109	1	6
418.280	1	1
418.450	1	-1
418.621	1	3
418.792	1	-2
418.962	1	-8
419.133	1	0
419.304	1	-3
419.474	1	-5
419.645	1	8
419.815	1	-14
419.986	1	5
420.157	1	-2
420.327	1	10
420.498	1	0
420.669	1	3
420.839	1	1
421.010	1	8
421.180	1	-9
421.351	1	1
421.522	1	3
421.692	1	1
421.863	1	-7
422.033	1	-8
422.204	1	-11
422.375	1	-5
422.545	1	-3
422.716	1	0
422.886	1	-5
423.057	1	-1
423.228	1	-1
423.398	1	-4
423.569	1	-1
423.740	1	-9
423.910	1	-17
424.081	1	-3
424.251	1	-3
424.422	1	-3
424.593	1	-4
424.763	1	-4
424.934	1	1
425.104	1	3
425.275	1	-20
425.445	1	-3
425.616	1	4
425.787	1	-15
425.957	1	4
426.128	1	-7
426.298	1	-9
426.469	1	3
426.640	1	-11
426.810	1	11
426.981	1	-14
427.151	1	0
427.322	1	0
427.493	1	-3
427.663	1	2
427.834	1	-14
428.004	1	6
428.175	1	-4
428.345	1	1
428.516	1	3
428.687	1	6
428.857	1	-1
429.028	1	-8
429.198	1	-17
429.369	1	-2
429.540	1	4
429.710	1	-7
429.881	1	2
430.051	1	-1
430.222	1	0
430.392	1	-4
430.563	1	14
430.734	1	-2
430.904	1	-4
431.075	1	5
431.245	1	-1
431.416	1	-8
431.586	1	-4
431.757	1	-2
431.927	1	-3
432.098	1	-2
432.269	1	-4
432.439	1	-10
432.610	1	-8
432.780	1	-2
432.951	1	-3
433.121	1	14
433.292	1	0
433.462	1	11
433.633	1	-10
433.804	1	-10
433.974	1	-12
434.145	1	-2
434.315	1	2
434.486	1	-3
434.656	1	-5
434.827	1	-4
434.997	1	0
435.168	1	-10
435.339	1	14
435.509	1	4
435.680	1	-3
435.850	1	-9
436.021	1	-5
436.191	1	-7
436.362	1	-9
436.532	1	3
436.703	1	8
436.873	1	-6
437.044	1	2
437.214	1	-4
437.385	1	3
437.556	1	-9
437.726	1	4
437.897	1	1
438.067	1	3
438.238	1	-14
438.408	1	0
438.579	1	-4
438.749	1	2
438.920	1	-9
439.090	1	2
439.261	1	3
439.431	1	-8
439.602	1	-3
439.772	1	0
439.943	1	-7
440.113	1	-5
440.284	1	2
440.455	1	-5
440.625	1	-4
440.796	1	2
440.966	1	11
441.137	1	-21
441.307	1	3
441.478	1	-3
441.648	1	-11
441.819	1	10
441.989	1	-1
442.160	1	-4
442.330	1	-7
442.501	1	-16
442.671	1	-6
442.842	1	6
443.012	1	-5
443.183	1	-4
443.353	1	10
443.524	1	-1
443.694	1	12
443.865	1	-5
444.035	1	-4
444.206	1	7
444.376	1	-1
444.547	1	-3
444.717	1	4
444.888	1	-5
445.058	1	-4
445.229	1	-4
445.399	1	-2
445.570	1	-5
445.740	1	-4
445.911	1	6
446.081	1	-8
446.252	1	-9
446.422	1	-1
446.593	1	0
446.763	1	8
446.934	1	-2
447.104	1	-12
447.275	1	-6
447.445	1	-5
447.616	1	-12
447.786	1	4
447.957	1	-2
448.127	1	-12
448.298	1	-2
448.468	1	6
448.639	1	-7
448.809	1	4
448.979	1	2
449.150	1	-7
449.320	1	-3
449.491	1	-4
449.661	1	0
449.832	1	-10
450.002	1	-5
450.173	1	-4
450.343	1	-3
450.514	1	-6
450.684	1	-5
450.855	1	3
451.025	1	-5
451.196	1	1
451.366	1	-2
451.537	1	-9
451.707	1	1
451.878	1	2
452.048	1	1
452.218	1	-1
452.389	1	-10
452.559	1	-15
452.730	1	-1
452.900	1	-5
453.071	1	3
453.241	1	-11
453.412	1	-14
453.582	1	4
453.753	1	-4
453.923	1	-2
454.093	1	3
454.264	1	-12
454.434	1	2
454.605	1	-3
454.775	1	4
454.946	1	-1
455.116	1	-11
455.287	1	12
455.457	1	-2
455.628	1	-6
455.798	1	-10
455.968	1	6
456.139	1	-9
456.309	1	-5
456.480	1	-10
456.650	1	-5
456.821	1	2
456.991	1	-1
457.161	1	-13
457.332	1	2
457.502	1	-8
457.673	1	-9
457.843	1	2
458.014	1	-12
458.184	1	4
458.355	1	6
458.525	1	-6
458.695	1	10
458.866	1	-5
459.036	1	-1
459.207	1	-3
459.377	1	-3
459.548	1	-10
459.718	1	-17
459.888	1	5
460.059	1	1
460.229	1	5
460.400	1	-5
460.570	1	-2
460.740	1	-12
460.911	1	8
461.081	1	-8
461.252	1	-6
461.422	1	10
461.593	1	-8
461.763	1	2
461.933	1	-11
462.104	1	-3
462.274	1	-2
462.445	1	-5
462.615	1	1
462.785	1	-4
462.956	1	-2
463.126	1	-7
463.297	1	4
463.467	1	-4
463.638	1	-6
463.808	1	2
463.978	1	7
464.149	1	-4
464.319	1	-3
464.490	1	2
464.660	1	0
464.830	1	1
465.001	1	1
465.171	1	0
465.342	1	-3
465.512	1	-4
465.682	1	3
465.853	1	-10
466.023	1	0
466.194	1	-5
466.364	1	0
466.534	1	0
466.705	1	0
466.875	1	-8
467.045	1	2
467.216	1	-3
467.386	1	-1
467.557	1	3
467.727	1	0
467.897	1	3
468.068	1	6
468.238	1	-1
468.409	1	0
468.579	1	3
468.749	1	-9
468.920	1	5
469.090	1	-1
469.260	1	-8
469.431	1	0
469.601	1	0
469.772	1	-4
469.942	1	3
470.112	1	6
470.283	1	0
470.453	1	0
470.623	1	4
470.794	1	8
470.964	1	-6
471.135	1	-8
471.305	1	-6
471.475	1	-2
471.646	1	6
471.816	1	-3
471.986	1	-8
472.157	1	1
472.327	1	0
472.497	1	-6
472.668	1	-9
472.838	1	1
473.009	1	-3
473.179	1	1
473.349	1	3
473.520	1	6
473.690	1	2
473.860	1	-5
474.031	1	8
474.201	1	-13
474.371	1	-2
474.542	1	-7
474.712	1	1
474.882	1	-7
475.053	1	-16
475.223	1	4
475.394	1	-1
475.564	1	11
475.734	1	1
475.905	1	-6
476.075	1	0
476.245	1	-2
476.416	1	-5
476.586	1	-9
476.756	1	-1
476.927	1	13
477.097	1	-5
477.267	1	-6
477.438	1	-10
477.608	1	6
477.778	1	3
477.949	1	0
478.119	1	2
478.289	1	0
478.460	1	-4
478.630	1	-13
478.800	1	0
478.971	1	1
479.141	1	4
479.311	1	-1
479.482	1	-8
479.652	1	-1
479.822	1	-10
479.993	1	4
480.163	1	-9
480.333	1	-8
480.504	1	-4
480.674	1	5
480.844	1	7
481.015	1	1
481.185	1	9
481.355	1	0
481.525	1	1
481.696	1	-1
481.866	1	-4
482.036	1	-14
482.207	1	4
482.377	1	-1
482.547	1	-9
482.718	1	2
482.888	1	-11
483.058	1	-4
483.229	1	-6
483.399	1	-1
483.569	1	5
483.740	1	-16
483.910	1	2
484.080	1	-2
484.250	1	0
484.421	1	0
484.591	1	8
484.761	1	-3
484.932	1	-7
485.102	1	2
485.272	1	5
485.443	1	11
485.613	1	-19
485.783	1	4
485.953	1	0
486.124	1	4
486.294	1	-3
486.464	1	-7
486.635	1	7
486.805	1	10
486.975	1	-10
487.146	1	7
487.316	1	5
487.486	1	1
487.656	1	-9
487.827	1	-2
487.997	1	0
488.167	1	-2
488.338	1	6
488.508	1	2
488.678	1	5
488.848	1	-3
489.019	1	-2
489.189	1	-10
489.359	1	2
489.529	1	-1
489.700	1	-4
489.870	1	-7
490.040	1	0
490.211	1	17
490.381	1	-3
490.551	1	-7
490.721	1	-6
490.892	1	-4
491.062	1	10
491.232	1	-1
491.402	1	-9
491.573	1	3
491.743	1	-11
491.913	1	6
492.084	1	10
492.254	1	1
492.424	1	-8
492.594	1	-7
492.765	1	4
492.935	1	-5
493.105	1	7
493.275	1	10
493.446	1	3
493.616	1	6
493.786	1	5
493.956	1	-8
494.127	1	-1
494.297	1	-10
494.467	1	1
494.637	1	-6
494.808	1	-2
494.978	1	-2
495.148	1	-6
495.318	1	7
495.489	1	3
495.659	1	-4
495.829	1	-6
495.999	1	-3
496.170	1	-7
496.340	1	-2
496.510	1	-5
496.680	1	-1
496.851	1	4
497.021	1	-4
497.191	1	-5
497.361	1	-13
497.532	1	-6
497.702	1	-4
497.872	1	-2
498.042	1	-1
498.213	1	7
498.383	1	-7
498.553	1	10
498.723	1	1
498.894	1	3
499.064	1	5
499.234	1	-1
499.404	1	1
499.574	1	-12
499.745	1	-4
499.915	1	3
500.085	1	-3
500.255	1	2
500.426	1	-9
500.596	1	-11
500.766	1	2
500.936	1	-1
501.106	1	-5
501.277	1	5
501.447	1	-7
501.617	1	2
501.787	1	-3
501.958	1	-6
502.128	1	-8
502.298	1	1
502.468	1	5
502.638	1	-3
502.809	1	-2
502.979	1	-10
503.149	1	-6
503.319	1	4
503.489	1	-2
503.660	1	-2
503.830	1	4
504.000	1	-6
504.170	1	-2
504.340	1	-6
504.511	1	1
504.681	1	-10
504.851	1	-7
505.021	1	-7
505.192	1	8
505.362	1	3
505.532	1	-2
505.702	1	-3
505.872	1	-11
506.043	1	3
506.213	1	-3
506.383	1	1
506.553	1	4
506.723	1	1
506.893	1	-2
507.064	1	-8
507.234	1	-2
507.404	1	0
507.574	1	-6
507.744	1	-18
507.915	1	4
508.085	1	11
508.255	1	0
508.425	1	5
508.595	1	-5
508.766	1	-6
508.936	1	-7
509.106	1	-12
509.276	1	-6
509.446	1	-5
509.616	1	-4
509.787	1	-8
509.957	1	2
510.127	1	1
510.297	1	-1
510.467	1	-8
510.638	1	-5
510.808	1	-4
510.978	1	-16
511.148	1	9
511.318	1	-7
511.488	1	-2
511.659	1	-2
511.829	1	-7
511.999	1	5
512.169	1	5
512.339	1	-7
512.509	1	4
512.680	1	8
512.850	1	-6
513.020	1	-3
513.190	1	-1
513.360	1	7
513.530	1	-9
513.700	1	6
513.871	1	-2
514.041	1	-2
514.211	1	-13
514.381	1	-4
514.551	1	-2
514.721	1	-6
514.892	1	-6
515.062	1	6
515.232	1	4
515.402	1	3
515.572	1	-12
515.742	1	0
515.912	1	2
516.083	1	-1
516.253	1	-7
516.423	1	3
516.593	1	-2
516.763	1	-7
516.933	1	-6
517.104	1	3
517.274	1	-8
517.444	1	-2
517.614	1	1
517.784	1	-5
517.954	1	-10
518.124	1	6
518.294	1	8
518.465	1	-4
518.635	1	2
518.805	1	0
518.975	1	2
519.145	1	7
519.315	1	-4
519.485	1	-7
519.656	1	-7
519.826	1	3
519.996	1	5
520.166	1	4
520.336	1	-4
520.506	1	9
520.676	1	-5
520.846	1	-4
521.017	1	-4
521.187	1	9
521.357	1	-13
521.527	1	-1
521.697	1	-3
521.867	1	-3
522.037	1	-2
522.207	1	1
522.377	1	3
522.548	1	-10
522.718	1	-3
522.888	1	-9
523.058	1	11
523.228	1	17
523.398	1	-5
523.568	1	-3
523.738	1	-5
523.909	1	6
524.079	1	-9
524.249	1	5
524.419	1	-7
524.589	1	-3
524.759	1	-7
524.929	1	-4
525.099	1	-8
525.269	1	-5
525.439	1	-7
525.610	1	-3
525.780	1	-2
525.950	1	-10
526.120	1	-3
526.290	1	-11
526.460	1	-2
526.630	1	4
526.800	1	-7
526.970	1	-15
527.140	1	-11
527.311	1	2
527.481	1	5
527.651	1	6
527.821	1	1
527.991	1	6
528.161	1	-6
528.331	1	0
528.501	1	-14
528.671	1	-5
528.841	1	-4
529.011	1	-7
529.181	1	-6
529.352	1	4
529.522	1	-6
529.692	1	-1
529.862	1	-1
530.032	1	-9
530.202	1	-10
530.372	1	-11
530.542	1	2
530.712	1	10
530.882	1	-7
531.052	1	5
531.222	1	-10
531.392	1	2
531.563	1	-6
531.733	1	5
531.903	1	3
532.073	1	-3
532.243	1	-3
532.413	1	7
532.583	1	-3
532.753	1	-3
532.923	1	-13
533.093	1	0
533.263	1	-7
533.433	1	1
533.603	1	-3
533.773	1	-9
533.943	1	-10
534.113	1	-2
534.284	1	-5
534.454	1	-1
534.624	1	-1
534.794	1	-4
534.964	1	-17
535.134	1	-10
535.304	1	13
535.474	1	-5
535.644	1	-2
535.814	1	-3
535.984	1	-14
536.154	1	-9
536.324	1	3
536.494	1	-6
536.664	1	-4
536.834	1	-3
537.004	1	5
537.174	1	5
537.344	1	-7
537.514	1	-3
537.685	1	-7
537.855	1	-6
538.025	1	-1
538.195	1	3
538.365	1	4
538.535	1	10
538.705	1	-7
538.875	1	5
539.045	1	-5
539.215	1	-12
539.385	1	-10
539.555	1	-8
539.725	1	0
539.895	1	2
540.065	1	0
540.235	1	-13
540.405	1	6
540.575	1	4
540.745	1	-4
540.915	1	8
541.085	1	-12
541.255	1	-8
541.425	1	3
541.595	1	-11
541.765	1	-4
541.935	1	0
542.105	1	3
542.275	1	0
542.445	1	6
542.615	1	-2
542.785	1	-8
542.955	1	3
543.125	1	-5
543.295	1	-8
543.465	1	13
543.635	1	-3
543.805	1	-2
543.975	1	0
544.145	1	-6
544.315	1	-10
544.485	1	6
544.655	1	-7
544.825	1	-1
544.995	1	-4
545.165	1	1
545.335	1	-8
545.505	1	-5
545.675	1	-6
545.845	1	-12
546.015	1	5
546.185	1	-3
546.355	1	6
546.525	1	7
546.695	1	-12
546.865	1	-7
547.035	1	1
547.205	1	-10
547.375	1	1
547.545	1	-4
547.715	1	-3
547.885	1	2
548.055	1	-4
548.225	1	-4
548.395	1	9
548.565	1	0
548.735	1	0
548.905	1	-4
549.075	1	-11
549.245	1	-3
549.415	1	-7
549.585	1	-10
549.755	1	-8
549.925	1	-3
550.095	1	11
550.265	1	-6
550.435	1	5
550.605	1	-3
550.775	1	-11
550.945	1	7
551.115	1	-7
551.285	1	2
551.455	1	2
551.625	1	-6
551.795	1	-10
551.965	1	-2
552.135	1	0
552.305	1	-2
552.475	1	-2
552.645	1	11
552.815	1	-1
552.985	1	1
553.155	1	-5
553.325	1	1
553.495	1	7
553.665	1	-5
553.835	1	2
554.004	1	-1
554.174	1	-10
554.344	1	-9
554.514	1	3
554.684	1	-1
554.854	1	2
555.024	1	2
555.194	1	9
555.364	1	0
555.534	1	-4
555.704	1	-3
555.874	1	-4
556.044	1	3
556.214	1	-6
556.384	1	4
556.554	1	-6
556.724	1	-6
556.894	1	-9
557.064	1	9
557.234	1	1
557.404	1	-1
557.573	1	-5
557.743	1	4
557.913	1	3
558.083	1	-13
558.253	1	3
558.423	1	-11
558.593	1	-3
558.763	1	-3
558.933	1	-3
559.103	1	-7
559.273	1	1
559.443	1	4
559.613	1	-10
559.783	1	-1
559.953	1	-7
560.122	1	-7
560.292	1	4
560.462	1	-10
560.632	1	-3
560.802	1	2
560.972	1	9
561.142	1	1
561.312	1	4
561.482	1	-8
561.652	1	-6
561.822	1	-6
561.992	1	-1
562.162	1	-10
562.331	1	-10
562.501	1	2
562.671	1	-1
562.841	1	-7
563.011	1	1
563.181	1	4
563.351	1	-5
563.521	1	4
563.691	1	-3
563.861	1	5
564.031	1	2
564.201	1	1
564.370	1	4
564.540	1	10
564.710	1	-14
564.880	1	-5
565.050	1	-3
565.220	1	-6
565.390	1	-19
565.560	1	11
565.730	1	2
565.900	1	-9
566.069	1	4
566.239	1	-7
566.409	1	-8
566.579	1	2
566.749	1	5
566.919	1	0
567.089	1	5
567.259	1	14
567.429	1	3
567.599	1	-6
567.768	1	-4
567.938	1	-7
568.108	1	-3
568.278	1	-13
568.448	1	-9
568.618	1	-2
568.788	1	-9
568.958	1	11
569.128	1	2
569.297	1	3
569.467	1	-7
569.637	1	6
569.807	1	-8
569.977	1	-1
570.147	1	-4
570.317	1	0
570.487	1	-1
570.656	1	-2
570.826	1	0
570.996	1	-5
571.166	1	-6
571.336	1	6
571.506	1	-8
571.676	1	9
571.846	1	3
572.015	1	-11
572.185	1	-5
572.355	1	11
572.525	1	0
572.695	1	2
572.865	1	6
573.035	1	-9
573.205	1	8
573.374	1	-1
573.544	1	3
573.714	1	10
573.884	1	-10
574.054	1	5
574.224	1	-6
574.394	1	-1
574.563	1	0
574.733	1	-2
574.903	1	-1
575.073	1	4
575.243	1	-12
575.413	1	2
575.583	1	-4
575.752	1	0
575.922	1	-7
576.092	1	10
576.262	1	-6
576.432	1	-9
576.602	1	2
576.772	1	-4
576.941	1	-7
577.111	1	4
577.281	1	2
577.451	1	-8
577.621	1	-1
577.791	1	-3
577.960	1	-10
578.130	1	-18
578.300	1	-11
578.470	1	-13
578.640	1	-7
578.810	1	-5
578.979	1	-1
579.149	1	-5
579.319	1	6
579.489	1	4
579.659	1	3
579.829	1	-4
579.998	1	-5
580.168	1	2
580.338	1	-17
580.508	1	-5
580.678	1	4
580.848	1	6
581.017	1	-5
581.187	1	1
581.357	1	-5
581.527	1	1
581.697	1	-18
581.867	1	-5
582.036	1	1
582.206	1	-9
582.376	1	-4
582.546	1	-6
582.716	1	7
582.885	1	-6
583.055	1	-4
583.225	1	-1
583.395	1	4
583.565	1	6
583.735	1	-5
583.904	1	-1
584.074	1	-4
584.244	1	-3
584.414	1	-7
584.584	1	5
584.753	1	1
584.923	1	-11
585.093	1	2
585.263	1	4
585.433	1	4
585.602	1	4
585.772	1	-3
585.942	1	2
586.112	1	-3
586.282	1	-10
586.451	1	-2
586.621	1	-3
586.791	1	2
586.961	1	3
587.131	1	-7
587.300	1	-10
587.470	1	-1
587.640	1	-11
587.810	1	-5
587.980	1	-6
588.149	1	-4
588.319	1	-7
588.489	1	5
588.659	1	-6
588.829	1	-1
588.998	1	-8
589.168	1	5
589.338	1	-1
589.508	1	-2
589.677	1	-4
589.847	1	2
590.017	1	-9
590.187	1	-1
590.357	1	0
590.526	1	0
590.696	1	0
590.866	1	0
591.036	1	6
591.205	1	5
591.375	1	-11
591.545	1	-8
591.715	1	-11
591.885	1	5
592.054	1	-1
592.224	1	5
592.394	1	0
592.564	1	-10
592.733	1	-13
592.903	1	5
593.073	1	0
593.243	1	-10
593.412	1	-1
593.582	1	-7
593.752	1	-8
593.922	1	-12
594.091	1	1
594.261	1	5
594.431	1	-1
594.601	1	-14
594.771	1	-5
594.940	1	-8
595.110	1	-3
595.280	1	-6
595.450	1	-3
595.619	1	-7
595.789	1	7
595.959	1	-8
596.129	1	6
596.298	1	-1
596.468	1	-8
596.638	1	-5
596.808	1	-1
596.977	1	-11
597.147	1	-1
597.317	1	-5
597.487	1	-3
597.656	1	-2
597.826	1	-5
597.996	1	3
598.166	1	-6
598.335	1	-3
598.505	1	-1
598.675	1	-2
598.844	1	-7
599.014	1	-6
599.184	1	-3
599.354	1	-13
599.523	1	-10
599.693	1	7
599.863	1	-6
600.033	1	-8
600.202	1	-1
600.372	1	-5
600.542	1	-11
600.712	1	9
600.881	1	-1
601.051	1	8
601.221	1	6
601.390	1	-14
601.560	1	-11
601.730	1	-9
601.900	1	-5
602.069	1	0
602.239	1	-5
602.409	1	-9
602.578	1	-4
602.748	1	-12
602.918	1	-5
603.088	1	-2
603.257	1	-1
603.427	1	-9
603.597	1	14
603.767	1	-15
603.936	1	-2
604.106	1	4
604.276	1	-5
604.445	1	10
604.615	1	-3
604.785	1	3
604.954	1	-3
605.124	1	-5
605.294	1	-6
605.464	1	-9
605.633	1	-2
605.803	1	-2
605.973	1	-6
606.142	1	-1
606.312	1	3
606.482	1	-2
606.652	1	-7
606.821	1	-2
606.991	1	-2
607.161	1	-6
607.330	1	-1
607.500	1	-4
607.670	1	-7
607.839	1	-1
608.009	1	-18
608.179	1	-3
608.348	1	0
608.518	1	-1
608.688	1	-7
608.858	1	-1
609.027	1	1
609.197	1	-10
609.367	1	-14
609.536	1	-1
609.706	1	4
609.876	1	-9
610.045	1	-1
610.215	1	-7
610.385	1	-3
610.554	1	-6
610.724	1	1
610.894	1	-2
611.063	1	13
611.233	1	-7
611.403	1	-7
611.572	1	1
611.742	1	-3
611.912	1	-4
612.081	1	-15
612.251	1	0
612.421	1	16
612.590	1	-6
612.760	1	-1
612.930	1	-9
613.099	1	-16
613.269	1	-3
613.439	1	2
613.608	1	-2
613.778	1	2
613.948	1	10
614.117	1	6
614.287	1	-8
614.457	1	-5
614.626	1	2
614.796	1	9
614.966	1	2
615.135	1	-12
615.305	1	0
615.475	1	4
615.644	1	-13
615.814	1	-5
615.984	1	0
616.153	1	2
616.323	1	-5
616.493	1	-1
616.662	1	1
616.832	1	-12
617.002	1	-6
617.171	1	-11
617.341	1	-2
617.511	1	-5
617.680	1	-3
617.850	1	-2
618.019	1	-5
618.189	1	-6
618.359	1	-2
618.528	1	-10
618.698	1	1
618.868	1	-4
619.037	1	5
619.207	1	-8
619.377	1	-14
619.546	1	-4
619.716	1	-12
619.885	1	1
620.055	1	-1
620.225	1	3
620.394	1	-1
620.564	1	-10
620.734	1	-2
620.903	1	5
621.073	1	-7
621.242	1	-11
621.412	1	11
621.582	1	-3
621.751	1	-4
621.921	1	-9
622.091	1	-2
622.260	1	-11
622.430	1	3
622.599	1	3
622.769	1	-2
622.939	1	3
623.108	1	-4
623.278	1	5
623.448	1	-5
623.617	1	3
623.787	1	-6
623.956	1	5
624.126	1	5
624.296	1	-11
624.465	1	-1
624.635	1	-4
624.804	1	-22
624.974	1	-7
625.144	1	-7
625.313	1	-7
625.483	1	2
625.652	1	6
625.822	1	-4
625.992	1	-10
626.161	1	-2
626.331	1	1
626.501	1	-1
626.670	1	-3
626.840	1	2
627.009	1	-13
627.179	1	-5
627.348	1	-9
627.518	1	-3
627.688	1	-2
627.857	1	12
628.027	1	-2
628.196	1	3
628.366	1	5
628.536	1	-5
628.705	1	-3
628.875	1	0
629.044	1	-10
629.214	1	0
629.384	1	-3
629.553	1	-2
629.723	1	4
629.892	1	0
630.062	1	-9
630.232	1	10
630.401	1	-6
630.571	1	2
630.740	1	2
630.910	1	-5
631.079	1	10
631.249	1	1
631.419	1	-2
631.588	1	-9
631.758	1	1
631.927	1	-12
632.097	1	3
632.266	1	-1
632.436	1	-8
632.606	1	3
632.775	1	-7
632.945	1	0
633.114	1	6
633.284	1	-20
633.453	1	-2
633.623	1	1
633.793	1	-4
633.962	1	-1
634.132	1	7
634.301	1	-7
634.471	1	-10
634.640	1	2
634.810	1	-8
634.979	1	0
635.149	1	-1
635.319	1	-3
635.488	1	-3
635.658	1	-5
635.827	1	0
635.997	1	0
636.166	1	-4
636.336	1	11
636.505	1	1
636.675	1	3
636.845	1	1
637.014	1	-2
637.184	1	1
637.353	1	-8
637.523	1	-3
637.692	1	-9
637.862	1	-11
638.031	1	11
638.201	1	3
638.370	1	0
638.540	1	2
638.710	1	-1
638.879	1	-8
639.049	1	3
639.218	1	8
639.388	1	7
639.557	1	5
639.727	1	-3
639.896	1	5
640.066	1	1
640.235	1	-6
640.405	1	9
640.574	1	-6
640.744	1	-8
640.914	1	-3
641.083	1	-9
641.253	1	-12
641.422	1	-1
641.592	1	-16
641.761	1	-7
641.931	1	4
642.100	1	-10
642.270	1	-1
642.439	1	9
642.609	1	-4
642.778	1	1
642.948	1	5
643.117	1	-13
643.287	1	1
643.456	1	6
643.626	1	3
643.795	1	-2
643.965	1	-1
644.134	1	7
644.304	1	-5
644.473	1	3
644.643	1	0
644.812	1	8
644.982	1	-3
645.151	1	1
645.321	1	12
645.490	1	2
645.660	1	-5
645.829	1	-9
645.999	1	3
646.168	1	-8
646.338	1	5
646.507	1	-2
646.677	1	0
646.846	1	12
647.016	1	-10
647.185	1	1
647.355	1	-1
647.524	1	6
647.694	1	-4
647.863	1	-8
648.033	1	-16
648.202	1	0
648.372	1	2
648.541	1	-6
648.711	1	0
648.880	1	1
649.050	1	-12
649.219	1	3
649.389	1	5
649.558	1	-11
649.728	1	2
649.897	1	-3
650.067	1	-5
650.236	1	3
650.406	1	-9
650.575	1	5
650.745	1	-6
650.914	1	-11
651.084	1	-9
651.253	1	6
651.423	1	5
651.592	1	-3
651.762	1	-7
651.931	1	5
652.101	1	-5
652.270	1	1
652.440	1	-7
652.609	1	2
652.778	1	-8
652.948	1	1
653.117	1	-3
653.287	1	4
653.456	1	-4
653.626	1	2
653.795	1	1
653.965	1	0
654.134	1	5
654.304	1	8
654.473	1	1
654.643	1	9
654.812	1	-7
654.982	1	-8
655.151	1	-9
655.320	1	-9
655.490	1	6
655.659	1	-5
655.829	1	0
655.998	1	5
656.168	1	-3
656.337	1	-7
656.507	1	6
656.676	1	-11
656.846	1	-15
657.015	1	-1
657.184	1	2
657.354	1	-3
657.523	1	-1
657.693	1	7
657.862	1	-8
658.032	1	5
658.201	1	-8
658.371	1	-11
658.540	1	4
658.709	1	-13
658.879	1	0
659.048	1	-3
659.218	1	-2
659.387	1	-1
659.557	1	-4
659.726	1	-4
659.895	1	-5
660.065	1	0
660.234	1	0
660.404	1	-9
660.573	1	1
660.743	1	0
660.912	1	-10
661.081	1	-2
661.251	1	3
661.420	1	-7
661.590	1	2
661.759	1	5
661.929	1	-3
662.098	1	-16
662.267	1	12
662.437	1	-2
662.606	1	5
662.776	1	2
662.945	1	-4
663.115	1	-10
663.284	1	-8
663.453	1	-7
663.623	1	1
663.792	1	0
663.962	1	-10
664.131	1	-5
664.300	1	4
664.470	1	-13
664.639	1	-3
664.809	1	-1
664.978	1	-10
665.148	1	-7
665.317	1	-3
665.486	1	-6
665.656	1	-8
665.825	1	5
665.995	1	7
666.164	1	4
666.333	1	2
666.503	1	-3
666.672	1	-21
666.842	1	-10
667.011	1	-1
667.180	1	-7
667.350	1	-5
667.519	1	-2
667.689	1	-12
667.858	1	1
668.027	1	-5
668.197	1	2
668.366	1	-9
668.536	1	-5
668.705	1	3
668.874	1	-3
669.044	1	-14
669.213	1	4
669.382	1	-13
669.552	1	2
669.721	1	-11
669.891	1	-5
670.060	1	-7
670.229	1	-2
670.399	1	0
670.568	1	-1
670.738	1	-2
670.907	1	-8
671.076	1	4
671.246	1	-2
671.415	1	0
671.584	1	-10
671.754	1	-12
671.923	1	-5
672.093	1	-4
672.262	1	-9
672.431	1	-7
672.601	1	0
672.770	1	-4
672.939	1	-15
673.109	1	-2
673.278	1	-6
673.448	1	-11
673.617	1	9
673.786	1	-12
