325.333	1	-7
325.504	1	2
325.675	1	0
325.846	1	-4
326.017	1	2
326.188	1	4
326.359	1	-1
326.531	1	-6
326.702	1	-3
326.873	1	0
327.044	1	-1
327.215	1	6
327.386	1	-6
327.557	1	0
327.728	1	-6
327.899	1	1
328.070	1	-6
328.241	1	-1
328.412	1	5
328.583	1	2
328.754	1	-7
328.926	1	3
329.097	1	4
329.268	1	0
329.439	1	1
329.610	1	-3
329.781	1	6
329.952	1	5
330.123	1	-12
330.294	1	13
330.465	1	-4
330.636	1	6
330.807	1	3
330.978	1	-7
331.149	1	0
331.320	1	3
331.492	1	-14
331.663	1	-2
331.834	1	9
332.005	1	3
332.176	1	-2
332.347	1	-3
332.518	1	5
332.689	1	-4
332.860	1	-1
333.031	1	3
333.202	1	1
333.373	1	-2
333.544	1	3
333.715	1	-10
333.886	1	-7
334.057	1	-10
334.228	1	-3
334.399	1	6
334.570	1	3
334.741	1	-9
334.912	1	-9
335.084	1	-10
335.255	1	6
335.426	1	1
335.597	1	-4
335.768	1	6
335.939	1	-3
336.110	1	-9
336.281	1	-13
336.452	1	0
336.623	1	-1
336.794	1	-7
336.965	1	-1
337.136	1	-2
337.307	1	11
337.478	1	4
337.649	1	10
337.820	1	11
337.991	1	1
338.162	1	0
338.333	1	-7
338.504	1	-1
338.675	1	7
338.846	1	-1
339.017	1	-3
339.188	1	6
339.359	1	0
339.530	1	-3
339.701	1	-4
339.872	1	2
340.043	1	-7
340.214	1	-7
340.385	1	0
340.556	1	1
340.727	1	-10
340.898	1	3
341.069	1	5
341.240	1	1
341.411	1	4
341.582	1	-2
341.753	1	0
341.924	1	-13
342.095	1	5
342.266	1	4
342.437	1	-2
342.608	1	-13
342.779	1	-7
342.950	1	-9
343.121	1	11
343.292	1	-4
343.463	1	-8
343.634	1	-7
343.805	1	0
343.976	1	-6
344.147	1	5
344.318	1	-1
344.489	1	-11
344.660	1	13
344.831	1	-7
345.002	1	2
345.173	1	-9
345.344	1	-7
345.515	1	-3
345.686	1	-7
345.857	1	-2
346.028	1	3
346.199	1	-14
346.370	1	2
346.541	1	-6
346.712	1	2
346.883	1	-2
347.054	1	-3
347.225	1	-4
347.396	1	1
347.567	1	-4
347.738	1	0
347.909	1	4
348.080	1	-10
348.251	1	-7
348.422	1	-2
348.593	1	-8
348.764	1	0
348.935	1	10
349.106	1	3
349.277	1	-7
349.448	1	-2
349.619	1	-1
349.790	1	3
349.961	1	-6
350.132	1	2
350.303	1	-11
350.474	1	-9
350.645	1	-8
350.816	1	-3
350.987	1	-6
351.157	1	1
351.328	1	-9
351.499	1	5
351.670	1	8
351.841	1	2
352.012	1	-8
352.183	1	-7
352.354	1	-2
352.525	1	1
352.696	1	-6
352.867	1	-5
353.038	1	4
353.209	1	1
353.380	1	9
353.551	1	4
353.722	1	7
353.893	1	-5
354.064	1	0
354.235	1	5
354.406	1	-4
354.576	1	1
354.747	1	4
354.918	1	-6
355.089	1	3
355.260	1	7
355.431	1	2
355.602	1	5
355.773	1	0
355.944	1	8
356.115	1	-5
356.286	1	-10
356.457	1	-3
356.628	1	-4
356.799	1	0
356.970	1	-5
357.141	1	-3
357.311	1	-3
357.482	1	-9
357.653	1	4
357.824	1	-2
357.995	1	-6
358.166	1	-3
358.337	1	2
358.508	1	0
358.679	1	11
358.850	1	5
359.021	1	-8
359.192	1	-3
359.363	1	2
359.533	1	-14
359.704	1	-9
359.875	1	2
360.046	1	-6
360.217	1	8
360.388	1	1
360.559	1	1
360.730	1	1
360.901	1	9
361.072	1	-6
361.243	1	5
361.414	1	5
361.584	1	8
361.755	1	0
361.926	1	8
362.097	1	-3
362.268	1	4
362.439	1	3
362.610	1	-2
362.781	1	4
362.952	1	4
363.123	1	13
363.293	1	-4
363.464	1	18
363.635	1	6
363.806	1	-2
363.977	1	1
364.148	1	-2
364.319	1	-5
364.490	1	-7
364.661	1	7
364.832	1	-11
365.002	1	9
365.173	1	3
365.344	1	0
365.515	1	6
365.686	1	-3
365.857	1	1
366.028	1	-2
366.199	1	-4
366.370	1	-1
366.540	1	7
366.711	1	9
366.882	1	1
367.053	1	6
367.224	1	-1
367.395	1	7
367.566	1	9
367.737	1	-3
367.908	1	6
368.078	1	-2
368.249	1	3
368.420	1	-5
368.591	1	14
368.762	1	-5
368.933	1	11
369.104	1	1
369.274	1	1
369.445	1	-5
369.616	1	-1
369.787	1	8
369.958	1	0
370.129	1	11
370.300	1	-1
370.471	1	3
370.641	1	0
370.812	1	-2
370.983	1	6
371.154	1	0
371.325	1	2
371.496	1	-5
371.667	1	-1
371.837	1	-7
372.008	1	3
372.179	1	4
372.350	1	-2
372.521	1	-10
372.692	1	-2
372.863	1	0
373.033	1	5
373.204	1	-3
373.375	1	0
373.546	1	1
373.717	1	-3
373.888	1	0
374.059	1	5
374.229	1	-18
374.400	1	-3
374.571	1	-6
374.742	1	10
374.913	1	-2
375.084	1	-13
375.254	1	3
375.425	1	0
375.596	1	-11
375.767	1	0
375.938	1	3
376.109	1	-4
376.279	1	-9
376.450	1	-2
376.621	1	15
376.792	1	4
376.963	1	3
377.134	1	-3
377.304	1	5
377.475	1	10
377.646	1	1
377.817	1	8
377.988	1	-2
378.159	1	7
378.329	1	-1
378.500	1	-8
378.671	1	-1
378.842	1	-8
379.013	1	0
379.184	1	0
379.354	1	4
379.525	1	10
379.696	1	-1
379.867	1	4
380.038	1	9
380.209	1	10
380.379	1	-6
380.550	1	3
380.721	1	7
380.892	1	5
381.063	1	-8
381.233	1	3
381.404	1	-3
381.575	1	-3
381.746	1	6
381.917	1	-9
382.087	1	3
382.258	1	15
382.429	1	7
382.600	1	4
382.771	1	-2
382.941	1	3
383.112	1	9
383.283	1	12
383.454	1	2
383.625	1	1
383.795	1	12
383.966	1	5
384.137	1	0
384.308	1	3
384.479	1	5
384.649	1	-4
384.820	1	-1
384.991	1	8
385.162	1	5
385.333	1	7
385.503	1	1
385.674	1	6
385.845	1	10
386.016	1	4
386.187	1	9
386.357	1	8
386.528	1	6
386.699	1	19
386.870	1	15
387.041	1	1
387.211	1	3
387.382	1	1
387.553	1	13
387.724	1	2
387.894	1	15
388.065	1	6
388.236	1	7
388.407	1	10
388.578	1	6
388.748	1	15
388.919	1	7
389.090	1	13
389.261	1	-10
389.431	1	8
389.602	1	12
389.773	1	3
389.944	1	5
390.114	1	8
390.285	1	1
390.456	1	4
390.627	1	0
390.798	1	13
390.968	1	0
391.139	1	-7
391.310	1	9
391.481	1	3
391.651	1	11
391.822	1	11
391.993	1	8
392.164	1	1
392.334	1	12
392.505	1	9
392.676	1	9
392.847	1	0
393.017	1	-8
393.188	1	9
393.359	1	16
393.530	1	9
393.700	1	10
393.871	1	-2
394.042	1	12
394.213	1	8
394.383	1	-1
394.554	1	5
394.725	1	-3
394.896	1	9
395.066	1	16
395.237	1	16
395.408	1	5
395.579	1	6
395.749	1	16
395.920	1	4
396.091	1	12
396.262	1	5
396.432	1	-10
396.603	1	6
396.774	1	-4
396.945	1	16
397.115	1	12
397.286	1	18
397.457	1	7
397.627	1	6
397.798	1	-4
397.969	1	2
398.140	1	2
398.310	1	16
398.481	1	-2
398.652	1	9
398.823	1	13
398.993	1	1
399.164	1	13
399.335	1	2
399.505	1	3
399.676	1	10
399.847	1	11
400.018	1	12
400.188	1	15
400.359	1	9
400.530	1	6
400.700	1	-5
400.871	1	-9
401.042	1	1
401.213	1	-3
401.383	1	16
401.554	1	5
401.725	1	8
401.895	1	9
402.066	1	1
402.237	1	6
402.408	1	4
402.578	1	5
402.749	1	-1
402.920	1	-10
403.090	1	7
403.261	1	4
403.432	1	3
403.603	1	6
403.773	1	8
403.944	1	3
404.115	1	-13
404.285	1	-2
404.456	1	16
404.627	1	13
404.797	1	13
404.968	1	2
405.139	1	4
405.310	1	4
405.480	1	6
405.651	1	0
405.822	1	10
405.992	1	-2
406.163	1	4
406.334	1	10
406.504	1	6
406.675	1	17
406.846	1	7
407.016	1	-5
407.187	1	-4
407.358	1	-2
407.528	1	15
407.699	1	12
407.870	1	6
408.041	1	-11
408.211	1	0
408.382	1	16
408.553	1	1
408.723	1	2
408.894	1	-15
409.065	1	11
409.235	1	1
409.406	1	4
409.577	1	5
409.747	1	-3
409.918	1	1
410.089	1	-4
410.259	1	-7
410.430	1	16
410.601	1	-5
410.771	1	7
410.942	1	8
411.113	1	-2
411.283	1	1
411.454	1	-6
411.625	1	0
411.795	1	5
411.966	1	-8
412.137	1	-7
412.307	1	7
412.478	1	9
412.649	1	0
412.819	1	-4
412.990	1	12
413.161	1	4
413.331	1	-12
413.502	1	5
413.672	1	7
413.843	1	2
414.014	1	-1
414.184	1	-6
414.355	1	-1
414.526	1	2
414.696	1	3
414.867	1	15
415.038	1	-2
415.208	1	-4
415.379	1	5
415.550	1	1
415.720	1	1
415.891	1	7
416.062	1	-3
416.232	1	-7
416.403	1	-1
416.573	1	1
416.744	1	1
416.915	1	14
417.085	1	-14
417.256	1	0
417.427	1	0
417.597	1	-13
417.768	1	-3
417.939	1	-5
418.109	1	7
418.280	1	4
418.450	1	1
418.621	1	9
418.792	1	8
418.962	1	-8
419.133	1	-2
419.304	1	-2
419.474	1	-3
419.645	1	14
419.815	1	0
419.986	1	6
420.157	1	2
420.327	1	8
420.498	1	2
420.669	1	3
420.839	1	4
421.010	1	7
421.180	1	5
421.351	1	7
421.522	1	5
421.692	1	5
421.863	1	1
422.033	1	-5
422.204	1	-9
422.375	1	-7
422.545	1	11
422.716	1	-3
422.886	1	5
423.057	1	-3
423.228	1	-7
423.398	1	-1
423.569	1	-4
423.740	1	-10
423.910	1	-7
424.081	1	-8
424.251	1	0
424.422	1	-1
424.593	1	1
424.763	1	1
424.934	1	4
425.104	1	4
425.275	1	-11
425.445	1	-3
425.616	1	4
425.787	1	-13
425.957	1	22
426.128	1	0
426.298	1	4
426.469	1	1
426.640	1	1
426.810	1	1
426.981	1	-5
427.151	1	1
427.322	1	6
427.493	1	1
427.663	1	4
427.834	1	-20
428.004	1	6
428.175	1	-4
428.345	1	11
428.516	1	2
428.687	1	4
428.857	1	-5
429.028	1	-2
429.198	1	-8
429.369	1	8
429.540	1	3
429.710	1	-7
429.881	1	16
430.051	1	11
430.222	1	-2
430.392	1	-5
430.563	1	6
430.734	1	1
430.904	1	0
431.075	1	5
431.245	1	10
431.416	1	4
431.586	1	0
431.757	1	5
431.927	1	3
432.098	1	-4
432.269	1	-5
432.439	1	-9
432.610	1	-9
432.780	1	-6
432.951	1	1
433.121	1	1
433.292	1	4
433.462	1	-3
433.633	1	-5
433.804	1	-3
433.974	1	-11
434.145	1	-4
434.315	1	4
434.486	1	8
434.656	1	5
434.827	1	-4
434.997	1	11
435.168	1	0
435.339	1	2
435.509	1	4
435.680	1	-9
435.850	1	-7
436.021	1	7
436.191	1	-10
436.362	1	0
436.532	1	1
436.703	1	-1
436.873	1	-4
437.044	1	2
437.214	1	-6
437.385	1	-4
437.556	1	-6
437.726	1	-13
437.897	1	-7
438.067	1	0
438.238	1	-9
438.408	1	-5
438.579	1	1
438.749	1	4
438.920	1	0
439.090	1	7
439.261	1	10
439.431	1	-5
439.602	1	-7
439.772	1	3
439.943	1	-1
440.113	1	-1
440.284	1	9
440.455	1	-2
440.625	1	-3
440.796	1	3
440.966	1	7
441.137	1	-16
441.307	1	1
441.478	1	0
441.648	1	-7
441.819	1	0
441.989	1	-2
442.160	1	-2
442.330	1	6
442.501	1	-11
442.671	1	1
442.842	1	11
443.012	1	-2
443.183	1	-4
443.353	1	1
443.524	1	-8
443.694	1	-3
443.865	1	5
444.035	1	-1
444.206	1	6
444.376	1	4
444.547	1	2
444.717	1	16
444.888	1	-19
445.058	1	2
445.229	1	2
445.399	1	-1
445.570	1	5
445.740	1	3
445.911	1	4
446.081	1	5
446.252	1	-5
446.422	1	-2
446.593	1	0
446.763	1	6
446.934	1	5
447.104	1	2
447.275	1	-9
447.445	1	5
447.616	1	-8
447.786	1	2
447.957	1	1
448.127	1	-1
448.298	1	6
448.468	1	-1
448.639	1	5
448.809	1	2
448.979	1	-3
449.150	1	-2
449.320	1	0
449.491	1	-3
449.661	1	2
449.832	1	-4
450.002	1	0
450.173	1	-7
450.343	1	0
450.514	1	-3
450.684	1	-11
450.855	1	2
451.025	1	3
451.196	1	1
451.366	1	-3
451.537	1	4
451.707	1	-4
451.878	1	-3
452.048	1	-2
452.218	1	-2
452.389	1	0
452.559	1	-1
452.730	1	6
452.900	1	2
453.071	1	0
453.241	1	-10
453.412	1	-3
453.582	1	7
453.753	1	-6
453.923	1	3
454.093	1	3
454.264	1	-7
454.434	1	1
454.605	1	-3
454.775	1	10
454.946	1	-3
455.116	1	-12
455.287	1	11
455.457	1	-13
455.628	1	-4
455.798	1	-2
455.968	1	12
456.139	1	4
456.309	1	-2
456.480	1	-14
456.650	1	-10
456.821	1	1
456.991	1	-1
457.161	1	6
457.332	1	-5
457.502	1	-3
457.673	1	3
457.843	1	0
458.014	1	6
458.184	1	6
458.355	1	3
458.525	1	-2
458.695	1	-2
458.866	1	-8
459.036	1	4
459.207	1	17
459.377	1	-9
459.548	1	-7
459.718	1	-20
459.888	1	0
460.059	1	-3
460.229	1	16
460.400	1	-3
460.570	1	-5
460.740	1	-7
460.911	1	13
461.081	1	-3
461.252	1	-4
461.422	1	4
461.593	1	6
461.763	1	1
461.933	1	-1
462.104	1	-1
462.274	1	9
462.445	1	-6
462.615	1	-4
462.785	1	-17
462.956	1	0
463.126	1	-5
463.297	1	1
463.467	1	3
463.638	1	3
463.808	1	3
463.978	1	6
464.149	1	-4
464.319	1	-2
464.490	1	-13
464.660	1	0
464.830	1	6
465.001	1	2
465.171	1	6
465.342	1	-4
465.512	1	1
465.682	1	-1
465.853	1	-2
466.023	1	1
466.194	1	0
466.364	1	1
466.534	1	-1
466.705	1	-2
466.875	1	13
467.045	1	6
467.216	1	-6
467.386	1	-3
467.557	1	-3
467.727	1	-4
467.897	1	5
468.068	1	1
468.238	1	6
468.409	1	12
468.579	1	6
468.749	1	0
468.920	1	-2
469.090	1	12
469.260	1	-3
469.431	1	4
469.601	1	7
469.772	1	-17
469.942	1	4
470.112	1	5
470.283	1	11
470.453	1	5
470.623	1	4
470.794	1	4
470.964	1	-2
471.135	1	-14
471.305	1	-4
471.475	1	-1
471.646	1	1
471.816	1	-1
471.986	1	9
472.157	1	12
472.327	1	-2
472.497	1	-6
472.668	1	0
472.838	1	3
473.009	1	1
473.179	1	-1
473.349	1	0
473.520	1	1
473.690	1	6
473.860	1	3
474.031	1	7
474.201	1	-13
474.371	1	10
474.542	1	-4
474.712	1	-8
474.882	1	0
475.053	1	-7
475.223	1	8
475.394	1	-5
475.564	1	5
475.734	1	1
475.905	1	-6
476.075	1	-3
476.245	1	-6
476.416	1	-8
476.586	1	-8
476.756	1	0
476.927	1	3
477.097	1	-7
477.267	1	-8
477.438	1	0
477.608	1	6
477.778	1	6
477.949	1	-2
478.119	1	2
478.289	1	1
478.460	1	-16
478.630	1	-8
478.800	1	-4
478.971	1	3
479.141	1	1
479.311	1	-2
479.482	1	-5
479.652	1	-9
479.822	1	-6
479.993	1	-7
480.163	1	-8
480.333	1	-4
480.504	1	-5
480.674	1	2
480.844	1	1
481.015	1	-8
481.185	1	6
481.355	1	9
481.525	1	-2
481.696	1	3
481.866	1	-7
482.036	1	-5
482.207	1	6
482.377	1	-1
482.547	1	1
482.718	1	10
482.888	1	-13
483.058	1	1
483.229	1	-2
483.399	1	-3
483.569	1	-3
483.740	1	-11
483.910	1	4
484.080	1	-9
484.250	1	8
484.421	1	2
484.591	1	7
484.761	1	-6
484.932	1	0
485.102	1	6
485.272	1	4
485.443	1	-5
485.613	1	-6
485.783	1	4
485.953	1	-5
486.124	1	9
486.294	1	1
486.464	1	-9
486.635	1	6
486.805	1	15
486.975	1	-18
487.146	1	-10
487.316	1	4
487.486	1	2
487.656	1	-5
487.827	1	-3
487.997	1	6
488.167	1	5
488.338	1	7
488.508	1	-3
488.678	1	4
488.848	1	-4
489.019	1	-6
489.189	1	-5
489.359	1	6
489.529	1	7
489.700	1	0
489.870	1	-7
490.040	1	-3
490.211	1	8
490.381	1	2
490.551	1	-3
490.721	1	6
490.892	1	2
491.062	1	9
491.232	1	0
491.402	1	-4
491.573	1	6
491.743	1	-6
491.913	1	0
492.084	1	2
492.254	1	-3
492.424	1	-4
492.594	1	3
492.765	1	11
492.935	1	-12
493.105	1	7
493.275	1	4
493.446	1	-1
493.616	1	-5
493.786	1	5
493.956	1	0
494.127	1	-12
494.297	1	-8
494.467	1	0
494.637	1	-6
494.808	1	10
494.978	1	-3
495.148	1	10
495.318	1	8
495.489	1	-4
495.659	1	-1
495.829	1	1
495.999	1	3
496.170	1	-8
496.340	1	3
496.510	1	0
496.680	1	-2
496.851	1	7
497.021	1	4
497.191	1	3
497.361	1	0
497.532	1	3
497.702	1	-3
497.872	1	-1
498.042	1	-3
498.213	1	12
498.383	1	-3
498.553	1	7
498.723	1	9
498.894	1	-2
499.064	1	15
499.234	1	0
499.404	1	7
499.574	1	-7
499.745	1	-8
499.915	1	7
500.085	1	0
500.255	1	5
500.426	1	4
500.596	1	-5
500.766	1	-1
500.936	1	-6
501.106	1	1
501.277	1	-5
501.447	1	8
501.617	1	8
501.787	1	-5
501.958	1	-1
502.128	1	-1
502.298	1	10
502.468	1	13
502.638	1	5
502.809	1	3
502.979	1	-9
503.149	1	3
503.319	1	2
503.489	1	4
503.660	1	-4
503.830	1	1
504.000	1	-10
504.170	1	7
504.340	1	6
504.511	1	-1
504.681	1	-2
504.851	1	-7
505.021	1	-5
505.192	1	9
505.362	1	9
505.532	1	-6
505.702	1	-2
505.872	1	-5
506.043	1	-9
506.213	1	-6
506.383	1	0
506.553	1	6
506.723	1	10
506.893	1	2
507.064	1	-7
507.234	1	3
507.404	1	1
507.574	1	2
507.744	1	-5
507.915	1	7
508.085	1	2
508.255	1	3
508.425	1	-1
508.595	1	4
508.766	1	0
508.936	1	2
509.106	1	-12
509.276	1	11
509.446	1	-7
509.616	1	2
509.787	1	4
509.957	1	-2
510.127	1	11
510.297	1	0
510.467	1	-2
510.638	1	1
510.808	1	-1
510.978	1	-16
511.148	1	12
511.318	1	-4
511.488	1	-2
511.659	1	4
511.829	1	6
511.999	1	11
512.169	1	5
512.339	1	4
512.509	1	9
512.680	1	-2
512.850	1	8
513.020	1	-2
513.190	1	-10
513.360	1	3
513.530	1	-11
513.700	1	0
513.871	1	11
514.041	1	3
514.211	1	3
514.381	1	-2
514.551	1	1
514.721	1	1
514.892	1	6
515.062	1	1
515.232	1	9
515.402	1	1
515.572	1	-7
515.742	1	8
515.912	1	7
516.083	1	-7
516.253	1	-3
516.423	1	11
516.593	1	-2
516.763	1	6
516.933	1	2
517.104	1	4
517.274	1	3
517.444	1	1
517.614	1	-1
517.784	1	-14
517.954	1	-2
518.124	1	6
518.294	1	5
518.465	1	0
518.635	1	3
518.805	1	5
518.975	1	1
519.145	1	-2
519.315	1	0
519.485	1	5
519.656	1	4
519.826	1	0
519.996	1	10
520.166	1	-4
520.336	1	5
520.506	1	8
520.676	1	-4
520.846	1	-1
521.017	1	-5
521.187	1	-2
521.357	1	-3
521.527	1	1
521.697	1	-2
521.867	1	12
522.037	1	0
522.207	1	-4
522.377	1	-2
522.548	1	-2
522.718	1	1
522.888	1	-8
523.058	1	21
523.228	1	18
523.398	1	-3
523.568	1	-12
523.738	1	1
523.909	1	10
524.079	1	4
524.249	1	12
524.419	1	3
524.589	1	17
524.759	1	-3
524.929	1	-1
525.099	1	-3
525.269	1	3
525.439	1	6
525.610	1	1
525.780	1	10
525.950	1	-11
526.120	1	6
526.290	1	-6
526.460	1	7
526.630	1	3
526.800	1	4
526.970	1	-4
527.140	1	-2
527.311	1	-2
527.481	1	17
527.651	1	14
527.821	1	-4
527.991	1	-2
528.161	1	-2
528.331	1	-2
528.501	1	-8
528.671	1	2
528.841	1	7
529.011	1	5
529.181	1	8
529.352	1	1
529.522	1	1
529.692	1	0
529.862	1	2
530.032	1	-4
530.202	1	2
530.372	1	-3
530.542	1	7
530.712	1	12
530.882	1	-10
531.052	1	6
531.222	1	-2
531.392	1	-10
531.563	1	3
531.733	1	2
531.903	1	4
532.073	1	8
532.243	1	-2
532.413	1	4
532.583	1	-5
532.753	1	2
532.923	1	4
533.093	1	13
533.263	1	-4
533.433	1	4
533.603	1	3
533.773	1	5
533.943	1	3
534.113	1	0
534.284	1	-4
534.454	1	3
534.624	1	0
534.794	1	4
534.964	1	-8
535.134	1	2
535.304	1	14
535.474	1	10
535.644	1	6
535.814	1	5
535.984	1	-7
536.154	1	0
536.324	1	-3
536.494	1	11
536.664	1	9
536.834	1	10
537.004	1	18
537.174	1	6
537.344	1	6
537.514	1	11
537.685	1	3
537.855	1	-1
538.025	1	-5
538.195	1	12
538.365	1	11
538.535	1	5
538.705	1	-2
538.875	1	9
539.045	1	9
539.215	1	-9
539.385	1	-2
539.555	1	-1
539.725	1	3
539.895	1	0
540.065	1	6
540.235	1	-2
540.405	1	6
540.575	1	-5
540.745	1	-3
540.915	1	5
541.085	1	-9
541.255	1	3
541.425	1	1
541.595	1	4
541.765	1	3
541.935	1	10
542.105	1	6
542.275	1	3
542.445	1	12
542.615	1	5
542.785	1	3
542.955	1	-1
543.125	1	-2
543.295	1	2
543.465	1	12
543.635	1	2
543.805	1	10
543.975	1	0
544.145	1	5
544.315	1	-2
544.485	1	2
544.655	1	-4
544.825	1	12
544.995	1	8
545.165	1	1
545.335	1	6
545.505	1	-1
545.675	1	9
545.845	1	-4
546.015	1	1
546.185	1	-11
546.355	1	9
546.525	1	7
546.695	1	-4
546.865	1	4
547.035	1	10
547.205	1	2
547.375	1	0
547.545	1	1
547.715	1	-1
547.885	1	-1
548.055	1	1
548.225	1	2
548.395	1	3
548.565	1	7
548.735	1	11
548.905	1	3
549.075	1	-5
549.245	1	-4
549.415	1	-2
549.585	1	7
549.755	1	-5
549.925	1	11
550.095	1	-1
550.265	1	-2
550.435	1	11
550.605	1	-4
550.775	1	-3
550.945	1	1
551.115	1	5
551.285	1	0
551.455	1	0
551.625	1	-6
551.795	1	5
551.965	1	4
552.135	1	-1
552.305	1	10
552.475	1	-8
552.645	1	3
552.815	1	1
552.985	1	0
553.155	1	4
553.325	1	12
553.495	1	3
553.665	1	0
553.835	1	5
554.004	1	-10
554.174	1	0
554.344	1	0
554.514	1	5
554.684	1	7
554.854	1	8
555.024	1	-2
555.194	1	8
555.364	1	7
555.534	1	-3
555.704	1	4
555.874	1	-9
556.044	1	12
556.214	1	-6
556.384	1	8
556.554	1	-7
556.724	1	-8
556.894	1	9
557.064	1	1
557.234	1	3
557.404	1	-6
557.573	1	5
557.743	1	-4
557.913	1	9
558.083	1	-5
558.253	1	-2
558.423	1	-10
558.593	1	3
558.763	1	1
558.933	1	4
559.103	1	7
559.273	1	4
559.443	1	2
559.613	1	-1
559.783	1	4
559.953	1	0
560.122	1	-8
560.292	1	4
560.462	1	4
560.632	1	6
560.802	1	-5
560.972	1	12
561.142	1	3
561.312	1	0
561.482	1	7
561.652	1	10
561.822	1	0
561.992	1	13
562.162	1	5
562.331	1	2
562.501	1	1
562.671	1	1
562.841	1	-4
563.011	1	6
563.181	1	-1
563.351	1	0
563.521	1	2
563.691	1	2
563.861	1	6
564.031	1	0
564.201	1	3
564.370	1	16
564.540	1	10
564.710	1	-10
564.880	1	-4
565.050	1	-1
565.220	1	8
565.390	1	-13
565.560	1	13
565.730	1	-2
565.900	1	-5
566.069	1	4
566.239	1	-3
566.409	1	4
566.579	1	5
566.749	1	4
566.919	1	16
567.089	1	4
567.259	1	5
567.429	1	3
567.599	1	-1
567.768	1	6
567.938	1	6
568.108	1	-2
568.278	1	-11
568.448	1	-4
568.618	1	0
568.788	1	-2
568.958	1	5
569.128	1	6
569.297	1	-1
569.467	1	-1
569.637	1	2
569.807	1	-10
569.977	1	8
570.147	1	-2
570.317	1	8
570.487	1	1
570.656	1	0
570.826	1	4
570.996	1	-10
571.166	1	-2
571.336	1	2
571.506	1	-8
571.676	1	6
571.846	1	5
572.015	1	-9
572.185	1	0
572.355	1	12
572.525	1	1
572.695	1	2
572.865	1	8
573.035	1	8
573.205	1	18
573.374	1	-5
573.544	1	6
573.714	1	8
573.884	1	-6
574.054	1	-4
574.224	1	5
574.394	1	4
574.563	1	5
574.733	1	-6
574.903	1	-4
575.073	1	-7
575.243	1	-16
575.413	1	4
575.583	1	7
575.752	1	-7
575.922	1	3
576.092	1	11
576.262	1	0
576.432	1	-9
576.602	1	-2
576.772	1	11
576.941	1	-1
577.111	1	6
577.281	1	-6
577.451	1	-1
577.621	1	-6
577.791	1	-2
577.960	1	-12
578.130	1	-7
578.300	1	-7
578.470	1	3
578.640	1	-6
578.810	1	4
578.979	1	-10
579.149	1	7
579.319	1	3
579.489	1	10
579.659	1	-2
579.829	1	7
579.998	1	-8
580.168	1	-2
580.338	1	-16
580.508	1	-7
580.678	1	-5
580.848	1	3
581.017	1	-5
581.187	1	8
581.357	1	2
581.527	1	2
581.697	1	-5
581.867	1	-7
582.036	1	3
582.206	1	-11
582.376	1	-1
582.546	1	7
582.716	1	-5
582.885	1	1
583.055	1	0
583.225	1	1
583.395	1	0
583.565	1	14
583.735	1	-6
583.904	1	4
584.074	1	-5
584.244	1	10
584.414	1	-5
584.584	1	18
584.753	1	-9
584.923	1	3
585.093	1	-5
585.263	1	1
585.433	1	-7
585.602	1	2
585.772	1	7
585.942	1	1
586.112	1	-3
586.282	1	3
586.451	1	-1
586.621	1	-11
586.791	1	2
586.961	1	-2
587.131	1	-12
587.300	1	-9
587.470	1	1
587.640	1	-8
587.810	1	-11
587.980	1	-1
588.149	1	7
588.319	1	1
588.489	1	4
588.659	1	-8
588.829	1	5
588.998	1	0
589.168	1	2
589.338	1	-6
589.508	1	2
589.677	1	5
589.847	1	4
590.017	1	-8
590.187	1	-6
590.357	1	-3
590.526	1	4
590.696	1	-2
590.866	1	1
591.036	1	5
591.205	1	7
591.375	1	-5
591.545	1	-9
591.715	1	-9
591.885	1	-1
592.054	1	3
592.224	1	-1
592.394	1	1
592.564	1	-13
592.733	1	-3
592.903	1	9
593.073	1	1
593.243	1	-4
593.412	1	-8
593.582	1	17
593.752	1	-9
593.922	1	-5
594.091	1	11
594.261	1	9
594.431	1	-3
594.601	1	-14
594.771	1	0
594.940	1	-4
595.110	1	-4
595.280	1	-3
595.450	1	5
595.619	1	3
595.789	1	2
595.959	1	-2
596.129	1	0
596.298	1	14
596.468	1	0
596.638	1	-5
596.808	1	5
596.977	1	4
597.147	1	7
597.317	1	6
597.487	1	2
597.656	1	1
597.826	1	1
597.996	1	2
598.166	1	-5
598.335	1	-9
598.505	1	-8
598.675	1	4
598.844	1	-6
599.014	1	-1
599.184	1	2
599.354	1	-7
599.523	1	-5
599.693	1	8
599.863	1	5
600.033	1	-2
600.202	1	6
600.372	1	-1
600.542	1	-7
600.712	1	2
600.881	1	6
601.051	1	3
601.221	1	2
601.390	1	-8
601.560	1	6
601.730	1	-5
601.900	1	0
602.069	1	0
602.239	1	-4
602.409	1	-8
602.578	1	3
602.748	1	-15
602.918	1	-12
603.088	1	-1
603.257	1	2
603.427	1	-6
603.597	1	13
603.767	1	-9
603.936	1	3
604.106	1	-7
604.276	1	-6
604.445	1	4
604.615	1	-6
604.785	1	-5
604.954	1	7
605.124	1	-11
605.294	1	-4
605.464	1	-6
605.633	1	16
605.803	1	4
605.973	1	-2
606.142	1	-1
606.312	1	-8
606.482	1	-9
606.652	1	-2
606.821	1	0
606.991	1	-5
607.161	1	-2
607.330	1	5
607.500	1	9
607.670	1	2
607.839	1	8
608.009	1	-5
608.179	1	-1
608.348	1	-3
608.518	1	2
608.688	1	-5
608.858	1	6
609.027	1	7
609.197	1	-9
609.367	1	-4
609.536	1	-11
609.706	1	-8
609.876	1	1
610.045	1	-2
610.215	1	-6
610.385	1	2
610.554	1	-3
610.724	1	3
610.894	1	-2
611.063	1	13
611.233	1	0
611.403	1	-6
611.572	1	3
611.742	1	-3
611.912	1	-5
612.081	1	-11
612.251	1	-5
612.421	1	12
612.590	1	-8
612.760	1	-7
612.930	1	4
613.099	1	-13
613.269	1	1
613.439	1	-1
613.608	1	6
613.778	1	-4
613.948	1	10
614.117	1	9
614.287	1	-10
614.457	1	3
614.626	1	0
614.796	1	6
614.966	1	5
615.135	1	-7
615.305	1	2
615.475	1	7
615.644	1	-12
615.814	1	-8
615.984	1	16
616.153	1	4
616.323	1	-2
616.493	1	0
616.662	1	8
616.832	1	-6
617.002	1	1
617.171	1	-1
617.341	1	1
617.511	1	3
617.680	1	-6
617.850	1	-2
618.019	1	-2
618.189	1	-7
618.359	1	-6
618.528	1	-1
618.698	1	-1
618.868	1	-4
619.037	1	10
619.207	1	-5
619.377	1	-15
619.546	1	-8
619.716	1	-9
619.885	1	-1
620.055	1	1
620.225	1	8
620.394	1	7
620.564	1	7
620.734	1	-7
620.903	1	8
621.073	1	-8
621.242	1	-2
621.412	1	-3
621.582	1	-4
621.751	1	-2
621.921	1	4
622.091	1	-9
622.260	1	-2
622.430	1	0
622.599	1	6
622.769	1	1
622.939	1	2
623.108	1	1
623.278	1	-3
623.448	1	-5
623.617	1	2
623.787	1	6
623.956	1	-3
624.126	1	-1
624.296	1	1
624.465	1	0
624.635	1	-3
624.804	1	-14
624.974	1	-16
625.144	1	-4
625.313	1	3
625.483	1	6
625.652	1	7
625.822	1	7
625.992	1	-8
626.161	1	0
626.331	1	5
626.501	1	1
626.670	1	2
626.840	1	5
627.009	1	-6
627.179	1	-5
627.348	1	-4
627.518	1	-4
627.688	1	-3
627.857	1	10
628.027	1	-5
628.196	1	8
628.366	1	6
628.536	1	-5
628.705	1	5
628.875	1	3
629.044	1	-10
629.214	1	-4
629.384	1	-6
629.553	1	-5
629.723	1	-2
629.892	1	-10
630.062	1	0
630.232	1	4
630.401	1	-5
630.571	1	-5
630.740	1	0
630.910	1	-9
631.079	1	9
631.249	1	3
631.419	1	-13
631.588	1	-2
631.758	1	1
631.927	1	3
632.097	1	2
632.266	1	-7
632.436	1	-7
632.606	1	9
632.775	1	4
632.945	1	-2
633.114	1	7
633.284	1	-7
633.453	1	-3
633.623	1	-6
633.793	1	7
633.962	1	0
634.132	1	0
634.301	1	-3
634.471	1	-14
634.640	1	4
634.810	1	-3
634.979	1	6
635.149	1	-1
635.319	1	1
635.488	1	2
635.658	1	-9
635.827	1	5
635.997	1	1
636.166	1	-4
636.336	1	8
636.505	1	6
636.675	1	0
636.845	1	6
637.014	1	0
637.184	1	-1
637.353	1	8
637.523	1	-9
637.692	1	0
637.862	1	-16
638.031	1	2
638.201	1	-9
638.370	1	6
638.540	1	9
638.710	1	-1
638.879	1	-6
639.049	1	5
639.218	1	-3
639.388	1	3
639.557	1	3
639.727	1	0
639.896	1	-1
640.066	1	-3
640.235	1	1
640.405	1	-4
640.574	1	-2
640.744	1	-2
640.914	1	-5
641.083	1	1
641.253	1	-6
641.422	1	-1
641.592	1	-9
641.761	1	-4
641.931	1	-7
642.100	1	-5
642.270	1	-8
642.439	1	0
642.609	1	-3
642.778	1	-6
642.948	1	6
643.117	1	-9
643.287	1	0
643.456	1	5
643.626	1	2
643.795	1	5
643.965	1	-4
644.134	1	2
644.304	1	-3
644.473	1	9
644.643	1	-4
644.812	1	6
644.982	1	10
645.151	1	-4
645.321	1	5
645.490	1	-9
645.660	1	-11
645.829	1	-5
645.999	1	-4
646.168	1	-3
646.338	1	-3
646.507	1	6
646.677	1	8
646.846	1	13
647.016	1	-4
647.185	1	-9
647.355	1	-7
647.524	1	4
647.694	1	-7
647.863	1	-13
648.033	1	-9
648.202	1	2
648.372	1	6
648.541	1	5
648.711	1	7
648.880	1	-3
649.050	1	1
649.219	1	0
649.389	1	-6
649.558	1	-7
649.728	1	0
649.897	1	1
650.067	1	-5
650.236	1	7
650.406	1	4
650.575	1	7
650.745	1	-6
650.914	1	-4
651.084	1	-4
651.253	1	-5
651.423	1	16
651.592	1	-3
651.762	1	0
651.931	1	4
652.101	1	4
652.270	1	3
652.440	1	0
652.609	1	-1
652.778	1	-3
652.948	1	-6
653.117	1	-8
653.287	1	17
653.456	1	-7
653.626	1	6
653.795	1	6
653.965	1	10
654.134	1	10
654.304	1	4
654.473	1	3
654.643	1	15
654.812	1	-2
654.982	1	-14
655.151	1	-12
655.320	1	-5
655.490	1	13
655.659	1	-9
655.829	1	-1
655.998	1	12
656.168	1	-7
656.337	1	-10
656.507	1	7
656.676	1	-2
656.846	1	-10
657.015	1	3
657.184	1	-4
657.354	1	4
657.523	1	-10
657.693	1	5
657.862	1	2
658.032	1	11
658.201	1	-10
658.371	1	-4
658.540	1	8
658.709	1	-7
658.879	1	0
659.048	1	-2
659.218	1	-9
659.387	1	-4
659.557	1	-9
659.726	1	-5
659.895	1	-4
660.065	1	1
660.234	1	7
660.404	1	8
660.573	1	-6
660.743	1	1
660.912	1	-11
661.081	1	-2
661.251	1	13
661.420	1	-9
661.590	1	-3
661.759	1	7
661.929	1	-1
662.098	1	-17
662.267	1	9
662.437	1	5
662.606	1	-2
662.776	1	7
662.945	1	-4
663.115	1	-10
663.284	1	5
663.453	1	-7
663.623	1	3
663.792	1	0
663.962	1	-4
664.131	1	-12
664.300	1	8
664.470	1	-6
664.639	1	-10
664.809	1	-3
664.978	1	-6
665.148	1	-9
665.317	1	-7
665.486	1	-1
665.656	1	-7
665.825	1	3
665.995	1	-4
666.164	1	4
666.333	1	8
666.503	1	-3
666.672	1	-7
666.842	1	-4
667.011	1	10
667.180	1	-13
667.350	1	13
667.519	1	-5
667.689	1	-10
667.858	1	4
668.027	1	-14
668.197	1	-5
668.366	1	-1
668.536	1	2
668.705	1	-2
668.874	1	-3
669.044	1	-4
669.213	1	3
669.382	1	-14
669.552	1	5
669.721	1	-5
669.891	1	3
670.060	1	5
670.229	1	-1
670.399	1	13
670.568	1	3
670.738	1	-8
670.907	1	-15
671.076	1	1
671.246	1	0
671.415	1	4
671.584	1	2
671.754	1	-9
671.923	1	-3
672.093	1	-1
672.262	1	4
672.431	1	-3
672.601	1	0
672.770	1	-2
672.939	1	-7
673.109	1	-2
673.278	1	0
673.448	1	3
673.617	1	8
673.786	1	-2
