325.333	1	2
325.504	1	8
325.675	1	1
325.846	1	-2
326.017	1	-2
326.188	1	7
326.359	1	8
326.531	1	-3
326.702	1	-4
326.873	1	1
327.044	1	-2
327.215	1	-6
327.386	1	-1
327.557	1	3
327.728	1	4
327.899	1	3
328.070	1	7
328.241	1	-6
328.412	1	5
328.583	1	-4
328.754	1	-1
328.926	1	6
329.097	1	14
329.268	1	-3
329.439	1	0
329.610	1	-1
329.781	1	-4
329.952	1	11
330.123	1	2
330.294	1	7
330.465	1	4
330.636	1	2
330.807	1	-1
330.978	1	-2
331.149	1	1
331.320	1	8
331.492	1	-1
331.663	1	-2
331.834	1	12
332.005	1	4
332.176	1	-3
332.347	1	5
332.518	1	2
332.689	1	1
332.860	1	2
333.031	1	2
333.202	1	-5
333.373	1	-3
333.544	1	-2
333.715	1	2
333.886	1	-5
334.057	1	-6
334.228	1	0
334.399	1	5
334.570	1	-2
334.741	1	-13
334.912	1	3
335.084	1	-8
335.255	1	7
335.426	1	-10
335.597	1	0
335.768	1	3
335.939	1	-15
336.110	1	3
336.281	1	-4
336.452	1	2
336.623	1	4
336.794	1	-4
336.965	1	-3
337.136	1	3
337.307	1	7
337.478	1	11
337.649	1	6
337.820	1	20
337.991	1	4
338.162	1	7
338.333	1	4
338.504	1	8
338.675	1	11
338.846	1	3
339.017	1	0
339.188	1	-1
339.359	1	3
339.530	1	5
339.701	1	-3
339.872	1	4
340.043	1	-12
340.214	1	3
340.385	1	6
340.556	1	6
340.727	1	1
340.898	1	-2
341.069	1	-1
341.240	1	4
341.411	1	3
341.582	1	-2
341.753	1	-1
341.924	1	11
342.095	1	2
342.266	1	-2
342.437	1	8
342.608	1	3
342.779	1	0
342.950	1	4
343.121	1	16
343.292	1	3
343.463	1	-2
343.634	1	-5
343.805	1	10
343.976	1	-1
344.147	1	-2
344.318	1	7
344.489	1	-16
344.660	1	10
344.831	1	-1
345.002	1	0
345.173	1	1
345.344	1	-6
345.515	1	7
345.686	1	0
345.857	1	-1
346.028	1	-4
346.199	1	-1
346.370	1	2
346.541	1	0
346.712	1	2
346.883	1	6
347.054	1	-8
347.225	1	-2
347.396	1	4
347.567	1	4
347.738	1	9
347.909	1	4
348.080	1	2
348.251	1	-1
348.422	1	5
348.593	1	-7
348.764	1	-3
348.935	1	2
349.106	1	4
349.277	1	-7
349.448	1	6
349.619	1	-3
349.790	1	3
349.961	1	5
350.132	1	2
350.303	1	-7
350.474	1	9
350.645	1	4
350.816	1	-1
350.987	1	-4
351.157	1	1
351.328	1	2
351.499	1	0
351.670	1	12
351.841	1	14
352.012	1	-12
352.183	1	-2
352.354	1	4
352.525	1	11
352.696	1	-7
352.867	1	9
353.038	1	12
353.209	1	4
353.380	1	-3
353.551	1	2
353.722	1	-1
353.893	1	5
354.064	1	13
354.235	1	3
354.406	1	0
354.576	1	4
354.747	1	0
354.918	1	0
355.089	1	5
355.260	1	10
355.431	1	1
355.602	1	19
355.773	1	5
355.944	1	2
356.115	1	0
356.286	1	6
356.457	1	-1
356.628	1	1
356.799	1	13
356.970	1	-3
357.141	1	-6
357.311	1	15
357.482	1	5
357.653	1	4
357.824	1	7
357.995	1	9
358.166	1	1
358.337	1	6
358.508	1	7
358.679	1	14
358.850	1	12
359.021	1	0
359.192	1	13
359.363	1	11
359.533	1	6
359.704	1	11
359.875	1	7
360.046	1	4
360.217	1	20
360.388	1	12
360.559	1	21
360.730	1	4
360.901	1	16
361.072	1	15
361.243	1	6
361.414	1	23
361.584	1	15
361.755	1	23
361.926	1	18
362.097	1	4
362.268	1	16
362.439	1	10
362.610	1	12
362.781	1	21
362.952	1	21
363.123	1	33
363.293	1	8
363.464	1	28
363.635	1	31
363.806	1	18
363.977	1	31
364.148	1	29
364.319	1	25
364.490	1	17
364.661	1	30
364.832	1	21
365.002	1	33
365.173	1	31
365.344	1	21
365.515	1	37
365.686	1	39
365.857	1	28
366.028	1	31
366.199	1	34
366.370	1	32
366.540	1	44
366.711	1	42
366.882	1	37
367.053	1	40
367.224	1	44
367.395	1	32
367.566	1	37
367.737	1	21
367.908	1	39
368.078	1	39
368.249	1	39
368.420	1	27
368.591	1	43
368.762	1	28
368.933	1	38
369.104	1	30
369.274	1	29
369.445	1	29
369.616	1	12
369.787	1	31
369.958	1	32
370.129	1	34
370.300	1	23
370.471	1	36
370.641	1	28
370.812	1	27
370.983	1	29
371.154	1	11
371.325	1	21
371.496	1	7
371.667	1	21
371.837	1	14
372.008	1	17
372.179	1	16
372.350	1	13
372.521	1	17
372.692	1	15
372.863	1	18
373.033	1	18
373.204	1	20
373.375	1	19
373.546	1	19
373.717	1	12
373.888	1	11
374.059	1	19
374.229	1	9
374.400	1	11
374.571	1	12
374.742	1	22
374.913	1	14
375.084	1	5
375.254	1	17
375.425	1	16
375.596	1	6
375.767	1	18
375.938	1	13
376.109	1	6
376.279	1	-1
376.450	1	7
376.621	1	23
376.792	1	10
376.963	1	12
377.134	1	3
377.304	1	14
377.475	1	8
377.646	1	13
377.817	1	21
377.988	1	9
378.159	1	11
378.329	1	24
378.500	1	-6
378.671	1	6
378.842	1	-1
379.013	1	5
379.184	1	7
379.354	1	13
379.525	1	12
379.696	1	6
379.867	1	23
380.038	1	17
380.209	1	22
380.379	1	7
380.550	1	19
380.721	1	25
380.892	1	17
381.063	1	7
381.233	1	21
381.404	1	17
381.575	1	12
381.746	1	36
381.917	1	13
382.087	1	23
382.258	1	33
382.429	1	34
382.600	1	24
382.771	1	27
382.941	1	35
383.112	1	30
383.283	1	39
383.454	1	28
383.625	1	32
383.795	1	44
383.966	1	38
384.137	1	42
384.308	1	41
384.479	1	59
384.649	1	50
384.820	1	43
384.991	1	49
385.162	1	53
385.333	1	61
385.503	1	49
385.674	1	55
385.845	1	64
386.016	1	54
386.187	1	61
386.357	1	55
386.528	1	68
386.699	1	73
386.870	1	74
387.041	1	56
387.211	1	61
387.382	1	56
387.553	1	61
387.724	1	50
387.894	1	60
388.065	1	65
388.236	1	55
388.407	1	51
388.578	1	58
388.748	1	68
388.919	1	48
389.090	1	61
389.261	1	36
389.431	1	51
389.602	1	54
389.773	1	47
389.944	1	54
390.114	1	62
390.285	1	46
390.456	1	51
390.627	1	44
390.798	1	56
390.968	1	39
391.139	1	43
391.310	1	50
391.481	1	46
391.651	1	57
391.822	1	58
391.993	1	50
392.164	1	44
392.334	1	46
392.505	1	48
392.676	1	45
392.847	1	48
393.017	1	29
393.188	1	38
393.359	1	51
393.530	1	51
393.700	1	45
393.871	1	33
394.042	1	48
394.213	1	51
394.383	1	40
394.554	1	58
394.725	1	42
394.896	1	27
395.066	1	50
395.237	1	56
395.408	1	41
395.579	1	51
395.749	1	52
395.920	1	51
396.091	1	52
396.262	1	42
396.432	1	49
396.603	1	57
396.774	1	46
396.945	1	56
397.115	1	54
397.286	1	63
397.457	1	57
397.627	1	54
397.798	1	56
397.969	1	44
398.140	1	37
398.310	1	61
398.481	1	46
398.652	1	58
398.823	1	52
398.993	1	44
399.164	1	56
399.335	1	48
399.505	1	51
399.676	1	51
399.847	1	37
400.018	1	53
400.188	1	48
400.359	1	51
400.530	1	49
400.700	1	38
400.871	1	37
401.042	1	47
401.213	1	39
401.383	1	52
401.554	1	42
401.725	1	41
401.895	1	46
402.066	1	42
402.237	1	42
402.408	1	34
402.578	1	39
402.749	1	29
402.920	1	30
403.090	1	35
403.261	1	42
403.432	1	30
403.603	1	36
403.773	1	35
403.944	1	45
404.115	1	23
404.285	1	33
404.456	1	29
404.627	1	37
404.797	1	49
404.968	1	46
405.139	1	37
405.310	1	38
405.480	1	38
405.651	1	35
405.822	1	32
405.992	1	40
406.163	1	42
406.334	1	30
406.504	1	31
406.675	1	38
406.846	1	19
407.016	1	32
407.187	1	22
407.358	1	28
407.528	1	30
407.699	1	43
407.870	1	39
408.041	1	24
408.211	1	39
408.382	1	37
408.553	1	26
408.723	1	30
408.894	1	29
409.065	1	41
409.235	1	28
409.406	1	32
409.577	1	46
409.747	1	30
409.918	1	28
410.089	1	33
410.259	1	35
410.430	1	43
410.601	1	28
410.771	1	29
410.942	1	30
411.113	1	27
411.283	1	34
411.454	1	16
411.625	1	23
411.795	1	36
411.966	1	19
412.137	1	27
412.307	1	36
412.478	1	28
412.649	1	37
412.819	1	29
412.990	1	25
413.161	1	35
413.331	1	12
413.502	1	25
413.672	1	25
413.843	1	23
414.014	1	22
414.184	1	10
414.355	1	21
414.526	1	14
414.696	1	18
414.867	1	29
415.038	1	25
415.208	1	18
415.379	1	24
415.550	1	18
415.720	1	22
415.891	1	25
416.062	1	22
416.232	1	20
416.403	1	17
416.573	1	16
416.744	1	24
416.915	1	18
417.085	1	11
417.256	1	14
417.427	1	24
417.597	1	8
417.768	1	9
417.939	1	12
418.109	1	23
418.280	1	23
418.450	1	18
418.621	1	20
418.792	1	14
418.962	1	18
419.133	1	25
419.304	1	17
419.474	1	2
419.645	1	30
419.815	1	15
419.986	1	21
420.157	1	15
420.327	1	15
420.498	1	20
420.669	1	12
420.839	1	18
421.010	1	22
421.180	1	15
421.351	1	20
421.522	1	21
421.692	1	13
421.863	1	10
422.033	1	5
422.204	1	0
422.375	1	12
422.545	1	16
422.716	1	8
422.886	1	23
423.057	1	8
423.228	1	4
423.398	1	16
423.569	1	9
423.740	1	7
423.910	1	4
424.081	1	15
424.251	1	7
424.422	1	16
424.593	1	15
424.763	1	14
424.934	1	10
425.104	1	21
425.275	1	-1
425.445	1	6
425.616	1	14
425.787	1	3
425.957	1	27
426.128	1	7
426.298	1	12
426.469	1	8
426.640	1	12
426.810	1	10
426.981	1	-4
427.151	1	14
427.322	1	12
427.493	1	6
427.663	1	15
427.834	1	2
428.004	1	19
428.175	1	13
428.345	1	15
428.516	1	10
428.687	1	12
428.857	1	8
429.028	1	5
429.198	1	7
429.369	1	2
429.540	1	13
429.710	1	5
429.881	1	19
430.051	1	12
430.222	1	0
430.392	1	5
430.563	1	14
430.734	1	1
430.904	1	2
431.075	1	4
431.245	1	7
431.416	1	2
431.586	1	6
431.757	1	10
431.927	1	17
432.098	1	5
432.269	1	6
432.439	1	5
432.610	1	5
432.780	1	9
432.951	1	-2
433.121	1	6
433.292	1	15
433.462	1	2
433.633	1	7
433.804	1	12
433.974	1	0
434.145	1	12
434.315	1	4
434.486	1	14
434.656	1	11
434.827	1	5
434.997	1	5
435.168	1	3
435.339	1	9
435.509	1	23
435.680	1	8
435.850	1	8
436.021	1	15
436.191	1	10
436.362	1	7
436.532	1	6
436.703	1	9
436.873	1	7
437.044	1	18
437.214	1	6
437.385	1	1
437.556	1	-4
437.726	1	6
437.897	1	12
438.067	1	6
438.238	1	6
438.408	1	0
438.579	1	10
438.749	1	4
438.920	1	4
439.090	1	15
439.261	1	8
439.431	1	11
439.602	1	8
439.772	1	14
439.943	1	2
440.113	1	6
440.284	1	15
440.455	1	3
440.625	1	9
440.796	1	11
440.966	1	10
441.137	1	-7
441.307	1	0
441.478	1	10
441.648	1	-5
441.819	1	0
441.989	1	10
442.160	1	10
442.330	1	18
442.501	1	-6
442.671	1	5
442.842	1	14
443.012	1	8
443.183	1	1
443.353	1	12
443.524	1	7
443.694	1	19
443.865	1	-4
444.035	1	2
444.206	1	7
444.376	1	6
444.547	1	1
444.717	1	16
444.888	1	-8
445.058	1	9
445.229	1	4
445.399	1	8
445.570	1	10
445.740	1	4
445.911	1	12
446.081	1	5
446.252	1	-1
446.422	1	3
446.593	1	3
446.763	1	8
446.934	1	5
447.104	1	1
447.275	1	-3
447.445	1	3
447.616	1	0
447.786	1	5
447.957	1	6
448.127	1	8
448.298	1	9
448.468	1	8
448.639	1	5
448.809	1	-5
448.979	1	4
449.150	1	3
449.320	1	-4
449.491	1	-2
449.661	1	7
449.832	1	-5
450.002	1	0
450.173	1	4
450.343	1	11
450.514	1	4
450.684	1	6
450.855	1	0
451.025	1	6
451.196	1	2
451.366	1	7
451.537	1	4
451.707	1	7
451.878	1	5
452.048	1	4
452.218	1	3
452.389	1	-2
452.559	1	4
452.730	1	5
452.900	1	12
453.071	1	2
453.241	1	-1
453.412	1	6
453.582	1	10
453.753	1	-1
453.923	1	10
454.093	1	1
454.264	1	-9
454.434	1	4
454.605	1	7
454.775	1	10
454.946	1	1
455.116	1	0
455.287	1	17
455.457	1	3
455.628	1	4
455.798	1	-3
455.968	1	10
456.139	1	1
456.309	1	0
456.480	1	-5
456.650	1	4
456.821	1	6
456.991	1	9
457.161	1	9
457.332	1	8
457.502	1	4
457.673	1	-3
457.843	1	7
458.014	1	2
458.184	1	6
458.355	1	6
458.525	1	4
458.695	1	2
458.866	1	0
459.036	1	8
459.207	1	7
459.377	1	2
459.548	1	1
459.718	1	-8
459.888	1	0
460.059	1	5
460.229	1	11
460.400	1	7
460.570	1	4
460.740	1	-4
460.911	1	13
461.081	1	-8
461.252	1	6
461.422	1	6
461.593	1	2
461.763	1	-3
461.933	1	-7
462.104	1	8
462.274	1	6
462.445	1	1
462.615	1	-3
462.785	1	2
462.956	1	-3
463.126	1	-8
463.297	1	6
463.467	1	5
463.638	1	6
463.808	1	-1
463.978	1	5
464.149	1	1
464.319	1	-3
464.490	1	-3
464.660	1	5
464.830	1	8
465.001	1	10
465.171	1	7
465.342	1	3
465.512	1	7
465.682	1	3
465.853	1	-1
466.023	1	4
466.194	1	-2
466.364	1	6
466.534	1	0
466.705	1	6
466.875	1	5
467.045	1	11
467.216	1	-2
467.386	1	1
467.557	1	9
467.727	1	-5
467.897	1	11
468.068	1	10
468.238	1	-6
468.409	1	5
468.579	1	13
468.749	1	1
468.920	1	3
469.090	1	6
469.260	1	5
469.431	1	12
469.601	1	6
469.772	1	-5
469.942	1	-3
470.112	1	-3
470.283	1	15
470.453	1	-1
470.623	1	0
470.794	1	-3
470.964	1	2
471.135	1	-9
471.305	1	-5
471.475	1	-7
471.646	1	7
471.816	1	7
471.986	1	0
472.157	1	8
472.327	1	3
472.497	1	9
472.668	1	3
472.838	1	20
473.009	1	-7
473.179	1	-1
473.349	1	12
473.520	1	6
473.690	1	20
473.860	1	1
474.031	1	5
474.201	1	2
474.371	1	19
474.542	1	-8
474.712	1	7
474.882	1	1
475.053	1	-14
475.223	1	5
475.394	1	5
475.564	1	13
475.734	1	-1
475.905	1	4
476.075	1	14
476.245	1	0
476.416	1	1
476.586	1	0
476.756	1	-1
476.927	1	9
477.097	1	3
477.267	1	0
477.438	1	1
477.608	1	9
477.778	1	19
477.949	1	2
478.119	1	5
478.289	1	10
478.460	1	-9
478.630	1	0
478.800	1	-8
478.971	1	7
479.141	1	3
479.311	1	6
479.482	1	-6
479.652	1	11
479.822	1	7
479.993	1	8
480.163	1	-5
480.333	1	-1
480.504	1	5
480.674	1	5
480.844	1	11
481.015	1	-9
481.185	1	4
481.355	1	4
481.525	1	5
481.696	1	9
481.866	1	7
482.036	1	-3
482.207	1	5
482.377	1	5
482.547	1	2
482.718	1	6
482.888	1	-8
483.058	1	1
483.229	1	16
483.399	1	2
483.569	1	9
483.740	1	-12
483.910	1	5
484.080	1	-1
484.250	1	2
484.421	1	2
484.591	1	14
484.761	1	-2
484.932	1	1
485.102	1	5
485.272	1	11
485.443	1	18
485.613	1	-6
485.783	1	16
485.953	1	2
486.124	1	9
486.294	1	7
486.464	1	-2
486.635	1	19
486.805	1	19
486.975	1	-13
487.146	1	3
487.316	1	15
487.486	1	12
487.656	1	-8
487.827	1	8
487.997	1	8
488.167	1	5
488.338	1	19
488.508	1	6
488.678	1	6
488.848	1	2
489.019	1	-4
489.189	1	7
489.359	1	9
489.529	1	2
489.700	1	6
489.870	1	-9
490.040	1	2
490.211	1	21
490.381	1	-3
490.551	1	5
490.721	1	9
490.892	1	17
491.062	1	15
491.232	1	10
491.402	1	-2
491.573	1	12
491.743	1	-6
491.913	1	10
492.084	1	4
492.254	1	8
492.424	1	10
492.594	1	5
492.765	1	9
492.935	1	-5
493.105	1	22
493.275	1	9
493.446	1	5
493.616	1	20
493.786	1	7
493.956	1	11
494.127	1	5
494.297	1	6
494.467	1	0
494.637	1	6
494.808	1	20
494.978	1	6
495.148	1	18
495.318	1	17
495.489	1	18
495.659	1	12
495.829	1	15
495.999	1	10
496.170	1	5
496.340	1	4
496.510	1	15
496.680	1	1
496.851	1	9
497.021	1	4
497.191	1	2
497.361	1	10
497.532	1	4
497.702	1	6
497.872	1	7
498.042	1	11
498.213	1	19
498.383	1	14
498.553	1	8
498.723	1	20
498.894	1	6
499.064	1	20
499.234	1	4
499.404	1	5
499.574	1	1
499.745	1	21
499.915	1	12
500.085	1	2
500.255	1	9
500.426	1	4
500.596	1	4
500.766	1	11
500.936	1	9
501.106	1	5
501.277	1	8
501.447	1	14
501.617	1	13
501.787	1	6
501.958	1	2
502.128	1	11
502.298	1	17
502.468	1	20
502.638	1	13
502.809	1	5
502.979	1	13
503.149	1	11
503.319	1	24
503.489	1	16
503.660	1	7
503.830	1	18
504.000	1	14
504.170	1	19
504.340	1	10
504.511	1	7
504.681	1	20
504.851	1	13
505.021	1	15
505.192	1	20
505.362	1	22
505.532	1	10
505.702	1	17
505.872	1	12
506.043	1	16
506.213	1	22
506.383	1	19
506.553	1	23
506.723	1	16
506.893	1	25
507.064	1	15
507.234	1	22
507.404	1	20
507.574	1	20
507.744	1	0
507.915	1	18
508.085	1	28
508.255	1	22
508.425	1	22
508.595	1	28
508.766	1	9
508.936	1	18
509.106	1	13
509.276	1	24
509.446	1	16
509.616	1	13
509.787	1	14
509.957	1	20
510.127	1	21
510.297	1	8
510.467	1	21
510.638	1	9
510.808	1	11
510.978	1	-2
511.148	1	29
511.318	1	16
511.488	1	18
511.659	1	13
511.829	1	23
511.999	1	47
512.169	1	23
512.339	1	22
512.509	1	27
512.680	1	22
512.850	1	21
513.020	1	24
513.190	1	17
513.360	1	27
513.530	1	16
513.700	1	27
513.871	1	29
514.041	1	24
514.211	1	13
514.381	1	23
514.551	1	32
514.721	1	17
514.892	1	31
515.062	1	29
515.232	1	24
515.402	1	24
515.572	1	9
515.742	1	28
515.912	1	24
516.083	1	20
516.253	1	25
516.423	1	31
516.593	1	34
516.763	1	17
516.933	1	26
517.104	1	36
517.274	1	22
517.444	1	24
517.614	1	33
517.784	1	30
517.954	1	20
518.124	1	31
518.294	1	25
518.465	1	33
518.635	1	17
518.805	1	18
518.975	1	39
519.145	1	22
519.315	1	20
519.485	1	18
519.656	1	23
519.826	1	26
519.996	1	35
520.166	1	31
520.336	1	27
520.506	1	24
520.676	1	35
520.846	1	28
521.017	1	16
521.187	1	22
521.357	1	24
521.527	1	24
521.697	1	37
521.867	1	36
522.037	1	16
522.207	1	33
522.377	1	36
522.548	1	20
522.718	1	31
522.888	1	21
523.058	1	38
523.228	1	39
523.398	1	30
523.568	1	21
523.738	1	26
523.909	1	33
524.079	1	19
524.249	1	18
524.419	1	22
524.589	1	36
524.759	1	26
524.929	1	25
525.099	1	37
525.269	1	25
525.439	1	24
525.610	1	35
525.780	1	28
525.950	1	26
526.120	1	29
526.290	1	26
526.460	1	35
526.630	1	36
526.800	1	41
526.970	1	23
527.140	1	23
527.311	1	33
527.481	1	32
527.651	1	47
527.821	1	40
527.991	1	31
528.161	1	34
528.331	1	33
528.501	1	27
528.671	1	38
528.841	1	32
529.011	1	21
529.181	1	29
529.352	1	43
529.522	1	31
529.692	1	49
529.862	1	24
530.032	1	33
530.202	1	32
530.372	1	27
530.542	1	35
530.712	1	43
530.882	1	31
531.052	1	29
531.222	1	28
531.392	1	37
531.563	1	38
531.733	1	39
531.903	1	36
532.073	1	31
532.243	1	42
532.413	1	40
532.583	1	39
532.753	1	31
532.923	1	41
533.093	1	37
533.263	1	33
533.433	1	29
533.603	1	34
533.773	1	26
533.943	1	31
534.113	1	33
534.284	1	32
534.454	1	40
534.624	1	41
534.794	1	34
534.964	1	30
535.134	1	29
535.304	1	47
535.474	1	38
535.644	1	32
535.814	1	42
535.984	1	31
536.154	1	35
536.324	1	25
536.494	1	37
536.664	1	33
536.834	1	31
537.004	1	47
537.174	1	44
537.344	1	43
537.514	1	33
537.685	1	30
537.855	1	34
538.025	1	36
538.195	1	37
538.365	1	32
538.535	1	39
538.705	1	24
538.875	1	32
539.045	1	35
539.215	1	24
539.385	1	26
539.555	1	27
539.725	1	30
539.895	1	26
540.065	1	29
540.235	1	13
540.405	1	29
540.575	1	31
540.745	1	36
540.915	1	27
541.085	1	29
541.255	1	28
541.425	1	19
541.595	1	29
541.765	1	28
541.935	1	34
542.105	1	41
542.275	1	23
542.445	1	31
542.615	1	27
542.785	1	23
542.955	1	28
543.125	1	31
543.295	1	20
543.465	1	35
543.635	1	34
543.805	1	30
543.975	1	24
544.145	1	33
544.315	1	17
544.485	1	20
544.655	1	31
544.825	1	33
544.995	1	22
545.165	1	26
545.335	1	30
545.505	1	27
545.675	1	31
545.845	1	27
546.015	1	27
546.185	1	26
546.355	1	38
546.525	1	24
546.695	1	22
546.865	1	29
547.035	1	28
547.205	1	29
547.375	1	33
547.545	1	27
547.715	1	25
547.885	1	27
548.055	1	22
548.225	1	13
548.395	1	34
548.565	1	26
548.735	1	27
548.905	1	26
549.075	1	18
549.245	1	28
549.415	1	32
549.585	1	22
549.755	1	22
549.925	1	30
550.095	1	26
550.265	1	12
550.435	1	23
550.605	1	21
550.775	1	26
550.945	1	29
551.115	1	19
551.285	1	27
551.455	1	31
551.625	1	19
551.795	1	22
551.965	1	24
552.135	1	12
552.305	1	26
552.475	1	8
552.645	1	33
552.815	1	16
552.985	1	20
553.155	1	22
553.325	1	31
553.495	1	14
553.665	1	30
553.835	1	24
554.004	1	19
554.174	1	25
554.344	1	9
554.514	1	26
554.684	1	25
554.854	1	26
555.024	1	25
555.194	1	27
555.364	1	23
555.534	1	15
555.704	1	10
555.874	1	8
556.044	1	30
556.214	1	22
556.384	1	26
556.554	1	11
556.724	1	20
556.894	1	32
557.064	1	23
557.234	1	18
557.404	1	20
557.573	1	28
557.743	1	19
557.913	1	20
558.083	1	5
558.253	1	13
558.423	1	12
558.593	1	16
558.763	1	14
558.933	1	18
559.103	1	21
559.273	1	17
559.443	1	11
559.613	1	25
559.783	1	23
559.953	1	16
560.122	1	0
560.292	1	22
560.462	1	15
560.632	1	18
560.802	1	21
560.972	1	34
561.142	1	22
561.312	1	24
561.482	1	20
561.652	1	19
561.822	1	11
561.992	1	18
562.162	1	14
562.331	1	10
562.501	1	13
562.671	1	19
562.841	1	7
563.011	1	25
563.181	1	16
563.351	1	21
563.521	1	22
563.691	1	13
563.861	1	17
564.031	1	11
564.201	1	16
564.370	1	17
564.540	1	29
564.710	1	2
564.880	1	20
565.050	1	13
565.220	1	17
565.390	1	-5
565.560	1	23
565.730	1	3
565.900	1	13
566.069	1	18
566.239	1	5
566.409	1	19
566.579	1	11
566.749	1	20
566.919	1	23
567.089	1	14
567.259	1	15
567.429	1	16
567.599	1	6
567.768	1	17
567.938	1	16
568.108	1	10
568.278	1	8
568.448	1	12
568.618	1	9
568.788	1	13
568.958	1	19
569.128	1	14
569.297	1	17
569.467	1	10
569.637	1	13
569.807	1	10
569.977	1	11
570.147	1	14
570.317	1	26
570.487	1	13
570.656	1	13
570.826	1	19
570.996	1	8
571.166	1	8
571.336	1	14
571.506	1	18
571.676	1	16
571.846	1	18
572.015	1	1
572.185	1	7
572.355	1	32
572.525	1	9
572.695	1	13
572.865	1	11
573.035	1	9
573.205	1	22
573.374	1	19
573.544	1	7
573.714	1	23
573.884	1	2
574.054	1	10
574.224	1	3
574.394	1	6
574.563	1	16
574.733	1	12
574.903	1	2
575.073	1	11
575.243	1	2
575.413	1	20
575.583	1	15
575.752	1	10
575.922	1	14
576.092	1	21
576.262	1	4
576.432	1	3
576.602	1	11
576.772	1	18
576.941	1	4
577.111	1	12
577.281	1	7
577.451	1	8
577.621	1	12
577.791	1	12
577.960	1	7
578.130	1	9
578.300	1	9
578.470	1	10
578.640	1	8
578.810	1	15
578.979	1	14
579.149	1	18
579.319	1	18
579.489	1	18
579.659	1	13
579.829	1	17
579.998	1	7
580.168	1	15
580.338	1	-1
580.508	1	6
580.678	1	2
580.848	1	12
581.017	1	10
581.187	1	11
581.357	1	3
581.527	1	13
581.697	1	1
581.867	1	6
582.036	1	18
582.206	1	-4
582.376	1	9
582.546	1	18
582.716	1	10
582.885	1	6
583.055	1	15
583.225	1	20
583.395	1	15
583.565	1	20
583.735	1	6
583.904	1	14
584.074	1	2
584.244	1	12
584.414	1	3
584.584	1	10
584.753	1	9
584.923	1	12
585.093	1	13
585.263	1	11
585.433	1	6
585.602	1	9
585.772	1	2
585.942	1	13
586.112	1	15
586.282	1	9
586.451	1	5
586.621	1	7
586.791	1	14
586.961	1	2
587.131	1	2
587.300	1	8
587.470	1	8
587.640	1	1
587.810	1	8
587.980	1	17
588.149	1	10
588.319	1	10
588.489	1	14
588.659	1	4
588.829	1	2
588.998	1	5
589.168	1	14
589.338	1	8
589.508	1	10
589.677	1	5
589.847	1	8
590.017	1	3
590.187	1	-1
590.357	1	3
590.526	1	8
590.696	1	10
590.866	1	13
591.036	1	17
591.205	1	12
591.375	1	-4
591.545	1	2
591.715	1	3
591.885	1	9
592.054	1	7
592.224	1	3
592.394	1	8
592.564	1	-5
592.733	1	12
592.903	1	4
593.073	1	9
593.243	1	3
593.412	1	1
593.582	1	12
593.752	1	1
593.922	1	6
594.091	1	14
594.261	1	5
594.431	1	13
594.601	1	-5
594.771	1	13
594.940	1	0
595.110	1	5
595.280	1	-1
595.450	1	8
595.619	1	2
595.789	1	4
595.959	1	7
596.129	1	6
596.298	1	14
596.468	1	4
596.638	1	5
596.808	1	16
596.977	1	5
597.147	1	15
597.317	1	11
597.487	1	7
597.656	1	6
597.826	1	-1
597.996	1	4
598.166	1	3
598.335	1	5
598.505	1	7
598.675	1	12
598.844	1	3
599.014	1	7
599.184	1	-6
599.354	1	-7
599.523	1	8
599.693	1	19
599.863	1	12
600.033	1	1
600.202	1	2
600.372	1	1
600.542	1	-7
600.712	1	3
600.881	1	6
601.051	1	9
601.221	1	5
601.390	1	3
601.560	1	9
601.730	1	15
601.900	1	-2
602.069	1	-3
602.239	1	-10
602.409	1	1
602.578	1	3
602.748	1	5
602.918	1	4
603.088	1	4
603.257	1	14
603.427	1	2
603.597	1	12
603.767	1	0
603.936	1	13
604.106	1	17
604.276	1	10
604.445	1	11
604.615	1	5
604.785	1	12
604.954	1	9
605.124	1	-4
605.294	1	11
605.464	1	-4
605.633	1	13
605.803	1	6
605.973	1	2
606.142	1	7
606.312	1	6
606.482	1	1
606.652	1	-7
606.821	1	6
606.991	1	7
607.161	1	5
607.330	1	19
607.500	1	12
607.670	1	8
607.839	1	4
608.009	1	1
608.179	1	14
608.348	1	16
608.518	1	10
608.688	1	-4
608.858	1	10
609.027	1	9
609.197	1	4
609.367	1	0
609.536	1	0
609.706	1	2
609.876	1	3
610.045	1	4
610.215	1	-3
610.385	1	-2
610.554	1	-2
610.724	1	5
610.894	1	14
611.063	1	14
611.233	1	3
611.403	1	10
611.572	1	9
611.742	1	1
611.912	1	2
612.081	1	-4
612.251	1	10
612.421	1	18
612.590	1	2
612.760	1	8
612.930	1	1
613.099	1	-7
613.269	1	3
613.439	1	1
613.608	1	7
613.778	1	6
613.948	1	9
614.117	1	14
614.287	1	4
614.457	1	15
614.626	1	3
614.796	1	7
614.966	1	7
615.135	1	5
615.305	1	4
615.475	1	11
615.644	1	-2
615.814	1	2
615.984	1	20
616.153	1	5
616.323	1	1
616.493	1	0
616.662	1	7
616.832	1	4
617.002	1	-8
617.171	1	-8
617.341	1	7
617.511	1	4
617.680	1	10
617.850	1	3
618.019	1	10
618.189	1	0
618.359	1	4
618.528	1	0
618.698	1	1
618.868	1	6
619.037	1	15
619.207	1	-6
619.377	1	-6
619.546	1	5
619.716	1	-7
619.885	1	16
620.055	1	-1
620.225	1	13
620.394	1	5
620.564	1	-4
620.734	1	3
620.903	1	10
621.073	1	4
621.242	1	0
621.412	1	8
621.582	1	3
621.751	1	6
621.921	1	6
622.091	1	-3
622.260	1	-3
622.430	1	-8
622.599	1	6
622.769	1	5
622.939	1	0
623.108	1	5
623.278	1	0
623.448	1	2
623.617	1	17
623.787	1	11
623.956	1	8
624.126	1	3
624.296	1	-9
624.465	1	6
624.635	1	-4
624.804	1	-9
624.974	1	4
625.144	1	2
625.313	1	6
625.483	1	16
625.652	1	12
625.822	1	5
625.992	1	-5
626.161	1	9
626.331	1	9
626.501	1	5
626.670	1	10
626.840	1	7
627.009	1	0
627.179	1	5
627.348	1	-5
627.518	1	7
627.688	1	8
627.857	1	13
628.027	1	3
628.196	1	9
628.366	1	14
628.536	1	7
628.705	1	5
628.875	1	14
629.044	1	4
629.214	1	1
629.384	1	-18
629.553	1	7
629.723	1	8
629.892	1	2
630.062	1	9
630.232	1	7
630.401	1	3
630.571	1	1
630.740	1	9
630.910	1	7
631.079	1	15
631.249	1	3
631.419	1	4
631.588	1	2
631.758	1	8
631.927	1	2
632.097	1	10
632.266	1	-7
632.436	1	1
632.606	1	12
632.775	1	0
632.945	1	4
633.114	1	5
633.284	1	-2
633.453	1	-4
633.623	1	4
633.793	1	6
633.962	1	8
634.132	1	7
634.301	1	-1
634.471	1	-7
634.640	1	2
634.810	1	6
634.979	1	8
635.149	1	8
635.319	1	7
635.488	1	6
635.658	1	-4
635.827	1	6
635.997	1	8
636.166	1	1
636.336	1	10
636.505	1	1
636.675	1	9
636.845	1	-2
637.014	1	11
637.184	1	-12
637.353	1	10
637.523	1	1
637.692	1	-3
637.862	1	-10
638.031	1	12
638.201	1	12
638.370	1	2
638.540	1	6
638.710	1	2
638.879	1	-5
639.049	1	5
639.218	1	9
639.388	1	10
639.557	1	8
639.727	1	1
639.896	1	10
640.066	1	9
640.235	1	6
640.405	1	-8
640.574	1	-4
640.744	1	4
640.914	1	1
641.083	1	-4
641.253	1	0
641.422	1	0
641.592	1	-1
641.761	1	2
641.931	1	10
642.100	1	-3
642.270	1	5
642.439	1	9
642.609	1	0
642.778	1	-2
642.948	1	2
643.117	1	-3
643.287	1	11
643.456	1	10
643.626	1	17
643.795	1	9
643.965	1	-1
644.134	1	-4
644.304	1	-1
644.473	1	17
644.643	1	3
644.812	1	6
644.982	1	10
645.151	1	4
645.321	1	12
645.490	1	4
645.660	1	-3
645.829	1	-1
645.999	1	1
646.168	1	-4
646.338	1	8
646.507	1	11
646.677	1	-4
646.846	1	10
647.016	1	3
647.185	1	2
647.355	1	0
647.524	1	7
647.694	1	-1
647.863	1	-9
648.033	1	-15
648.202	1	7
648.372	1	12
648.541	1	-3
648.711	1	-1
648.880	1	1
649.050	1	2
649.219	1	2
649.389	1	7
649.558	1	-3
649.728	1	1
649.897	1	2
650.067	1	-2
650.236	1	10
650.406	1	9
650.575	1	-3
650.745	1	3
650.914	1	-3
651.084	1	-11
651.253	1	2
651.423	1	5
651.592	1	0
651.762	1	9
651.931	1	6
652.101	1	3
652.270	1	5
652.440	1	10
652.609	1	9
652.778	1	-1
652.948	1	-4
653.117	1	8
653.287	1	17
653.456	1	3
653.626	1	3
653.795	1	4
653.965	1	11
654.134	1	7
654.304	1	5
654.473	1	10
654.643	1	16
654.812	1	4
654.982	1	-4
655.151	1	-2
655.320	1	-3
655.490	1	8
655.659	1	7
655.829	1	-2
655.998	1	7
656.168	1	-2
656.337	1	4
656.507	1	16
656.676	1	-5
656.846	1	-7
657.015	1	8
657.184	1	13
657.354	1	12
657.523	1	-1
657.693	1	5
657.862	1	8
658.032	1	5
658.201	1	-4
658.371	1	-6
658.540	1	2
658.709	1	-5
658.879	1	9
659.048	1	5
659.218	1	-9
659.387	1	-4
659.557	1	5
659.726	1	1
659.895	1	6
660.065	1	8
660.234	1	-1
660.404	1	5
660.573	1	-10
660.743	1	11
660.912	1	2
661.081	1	8
661.251	1	-2
661.420	1	-2
661.590	1	4
661.759	1	8
661.929	1	1
662.098	1	-16
662.267	1	7
662.437	1	0
662.606	1	16
662.776	1	7
662.945	1	8
663.115	1	-6
663.284	1	1
663.453	1	1
663.623	1	10
663.792	1	5
663.962	1	-11
664.131	1	-9
664.300	1	0
664.470	1	1
664.639	1	6
664.809	1	12
664.978	1	2
665.148	1	5
665.317	1	1
665.486	1	-5
665.656	1	-8
665.825	1	8
665.995	1	11
666.164	1	5
666.333	1	18
666.503	1	0
666.672	1	-5
666.842	1	-3
667.011	1	8
667.180	1	-3
667.350	1	13
667.519	1	1
667.689	1	0
667.858	1	12
668.027	1	-4
668.197	1	11
668.366	1	-3
668.536	1	0
668.705	1	7
668.874	1	3
669.044	1	6
669.213	1	4
669.382	1	-6
669.552	1	16
669.721	1	-8
669.891	1	6
670.060	1	5
670.229	1	-1
670.399	1	6
670.568	1	-1
670.738	1	-5
670.907	1	1
671.076	1	7
671.246	1	7
671.415	1	0
671.584	1	1
671.754	1	1
671.923	1	0
672.093	1	7
672.262	1	5
672.431	1	2
672.601	1	3
672.770	1	8
672.939	1	-7
673.109	1	4
673.278	1	4
673.448	1	1
673.617	1	2
673.786	1	2
