325.333	1	-8
325.504	1	11
325.675	1	-5
325.846	1	-6
326.017	1	-1
326.188	1	12
326.359	1	1
326.531	1	-4
326.702	1	-7
326.873	1	3
327.044	1	-7
327.215	1	-3
327.386	1	0
327.557	1	5
327.728	1	-1
327.899	1	-3
328.070	1	9
328.241	1	0
328.412	1	-1
328.583	1	-12
328.754	1	-3
328.926	1	-2
329.097	1	4
329.268	1	-1
329.439	1	1
329.610	1	-9
329.781	1	-1
329.952	1	11
330.123	1	11
330.294	1	7
330.465	1	-1
330.636	1	-4
330.807	1	5
330.978	1	-8
331.149	1	-2
331.320	1	1
331.492	1	-7
331.663	1	-4
331.834	1	5
332.005	1	4
332.176	1	-4
332.347	1	-2
332.518	1	5
332.689	1	1
332.860	1	-5
333.031	1	5
333.202	1	-3
333.373	1	6
333.544	1	-2
333.715	1	5
333.886	1	-2
334.057	1	-11
334.228	1	-5
334.399	1	6
334.570	1	-4
334.741	1	-3
334.912	1	-4
335.084	1	-2
335.255	1	8
335.426	1	-2
335.597	1	-4
335.768	1	5
335.939	1	-7
336.110	1	-5
336.281	1	-11
336.452	1	2
336.623	1	3
336.794	1	-5
336.965	1	3
337.136	1	-4
337.307	1	10
337.478	1	7
337.649	1	5
337.820	1	7
337.991	1	2
338.162	1	-7
338.333	1	-1
338.504	1	0
338.675	1	7
338.846	1	3
339.017	1	-3
339.188	1	3
339.359	1	-5
339.530	1	1
339.701	1	-1
339.872	1	3
340.043	1	-10
340.214	1	-6
340.385	1	3
340.556	1	4
340.727	1	0
340.898	1	-7
341.069	1	0
341.240	1	-1
341.411	1	-5
341.582	1	-8
341.753	1	4
341.924	1	-11
342.095	1	-4
342.266	1	-3
342.437	1	4
342.608	1	-7
342.779	1	-5
342.950	1	-5
343.121	1	9
343.292	1	-3
343.463	1	-7
343.634	1	-11
343.805	1	-4
343.976	1	7
344.147	1	0
344.318	1	3
344.489	1	-13
344.660	1	16
344.831	1	-8
345.002	1	6
345.173	1	-5
345.344	1	-13
345.515	1	-1
345.686	1	6
345.857	1	-12
346.028	1	-6
346.199	1	-2
346.370	1	-3
346.541	1	0
346.712	1	0
346.883	1	-3
347.054	1	-5
347.225	1	-1
347.396	1	-6
347.567	1	-3
347.738	1	-2
347.909	1	3
348.080	1	-2
348.251	1	-4
348.422	1	-2
348.593	1	2
348.764	1	-1
348.935	1	8
349.106	1	3
349.277	1	-4
349.448	1	-9
349.619	1	1
349.790	1	-11
349.961	1	3
350.132	1	-7
350.303	1	-3
350.474	1	4
350.645	1	0
350.816	1	-1
350.987	1	-8
351.157	1	6
351.328	1	-7
351.499	1	4
351.670	1	7
351.841	1	4
352.012	1	-8
352.183	1	0
352.354	1	-8
352.525	1	6
352.696	1	-7
352.867	1	-4
353.038	1	4
353.209	1	6
353.380	1	1
353.551	1	7
353.722	1	-6
353.893	1	-2
354.064	1	1
354.235	1	3
354.406	1	-9
354.576	1	-1
354.747	1	-6
354.918	1	-9
355.089	1	-6
355.260	1	1
355.431	1	1
355.602	1	-1
355.773	1	-2
355.944	1	-13
356.115	1	-13
356.286	1	0
356.457	1	-6
356.628	1	-6
356.799	1	7
356.970	1	-6
357.141	1	-16
357.311	1	-3
357.482	1	-5
357.653	1	0
357.824	1	5
357.995	1	-4
358.166	1	1
358.337	1	-3
358.508	1	7
358.679	1	7
358.850	1	2
359.021	1	-2
359.192	1	4
359.363	1	-8
359.533	1	-3
359.704	1	-3
359.875	1	-1
360.046	1	3
360.217	1	16
360.388	1	5
360.559	1	-2
360.730	1	4
360.901	1	5
361.072	1	-17
361.243	1	7
361.414	1	8
361.584	1	1
361.755	1	11
361.926	1	15
362.097	1	-2
362.268	1	0
362.439	1	-1
362.610	1	2
362.781	1	1
362.952	1	9
363.123	1	5
363.293	1	1
363.464	1	7
363.635	1	4
363.806	1	2
363.977	1	-1
364.148	1	-4
364.319	1	8
364.490	1	-7
364.661	1	9
364.832	1	-4
365.002	1	9
365.173	1	6
365.344	1	3
365.515	1	8
365.686	1	6
365.857	1	4
366.028	1	-2
366.199	1	6
366.370	1	5
366.540	1	13
366.711	1	14
366.882	1	5
367.053	1	13
367.224	1	9
367.395	1	6
367.566	1	10
367.737	1	-3
367.908	1	5
368.078	1	4
368.249	1	11
368.420	1	-1
368.591	1	19
368.762	1	-1
368.933	1	13
369.104	1	3
369.274	1	3
369.445	1	-4
369.616	1	0
369.787	1	0
369.958	1	-3
370.129	1	12
370.300	1	3
370.471	1	3
370.641	1	2
370.812	1	3
370.983	1	-1
371.154	1	1
371.325	1	1
371.496	1	-7
371.667	1	-2
371.837	1	-13
372.008	1	2
372.179	1	7
372.350	1	-12
372.521	1	4
372.692	1	-5
372.863	1	-4
373.033	1	7
373.204	1	11
373.375	1	-4
373.546	1	-4
373.717	1	2
373.888	1	5
374.059	1	1
374.229	1	-2
374.400	1	-1
374.571	1	3
374.742	1	12
374.913	1	-4
375.084	1	1
375.254	1	2
375.425	1	2
375.596	1	-14
375.767	1	6
375.938	1	8
376.109	1	-12
376.279	1	-8
376.450	1	-2
376.621	1	3
376.792	1	-2
376.963	1	7
377.134	1	-6
377.304	1	8
377.475	1	9
377.646	1	10
377.817	1	6
377.988	1	-2
378.159	1	4
378.329	1	-2
378.500	1	-10
378.671	1	-6
378.842	1	-9
379.013	1	0
379.184	1	2
379.354	1	-3
379.525	1	6
379.696	1	-9
379.867	1	5
380.038	1	3
380.209	1	9
380.379	1	-11
380.550	1	10
380.721	1	13
380.892	1	1
381.063	1	1
381.233	1	11
381.404	1	0
381.575	1	-1
381.746	1	6
381.917	1	-5
382.087	1	1
382.258	1	14
382.429	1	5
382.600	1	8
382.771	1	0
382.941	1	5
383.112	1	1
383.283	1	-4
383.454	1	3
383.625	1	1
383.795	1	8
383.966	1	6
384.137	1	3
384.308	1	13
384.479	1	14
384.649	1	9
384.820	1	0
384.991	1	4
385.162	1	-1
385.333	1	6
385.503	1	5
385.674	1	13
385.845	1	6
386.016	1	13
386.187	1	12
386.357	1	9
386.528	1	17
386.699	1	22
386.870	1	22
387.041	1	8
387.211	1	8
387.382	1	4
387.553	1	14
387.724	1	9
387.894	1	7
388.065	1	13
388.236	1	14
388.407	1	11
388.578	1	3
388.748	1	20
388.919	1	6
389.090	1	12
389.261	1	-16
389.431	1	14
389.602	1	13
389.773	1	11
389.944	1	8
390.114	1	17
390.285	1	13
390.456	1	9
390.627	1	3
390.798	1	16
390.968	1	-1
391.139	1	-4
391.310	1	10
391.481	1	9
391.651	1	11
391.822	1	17
391.993	1	10
392.164	1	1
392.334	1	15
392.505	1	1
392.676	1	12
392.847	1	5
393.017	1	-3
393.188	1	8
393.359	1	9
393.530	1	15
393.700	1	17
393.871	1	5
394.042	1	7
394.213	1	7
394.383	1	1
394.554	1	14
394.725	1	-3
394.896	1	1
395.066	1	9
395.237	1	10
395.408	1	8
395.579	1	18
395.749	1	12
395.920	1	9
396.091	1	14
396.262	1	1
396.432	1	4
396.603	1	6
396.774	1	3
396.945	1	24
397.115	1	12
397.286	1	15
397.457	1	11
397.627	1	5
397.798	1	-3
397.969	1	8
398.140	1	3
398.310	1	14
398.481	1	-5
398.652	1	15
398.823	1	19
398.993	1	7
399.164	1	17
399.335	1	4
399.505	1	2
399.676	1	16
399.847	1	2
400.018	1	19
400.188	1	0
400.359	1	6
400.530	1	14
400.700	1	7
400.871	1	0
401.042	1	5
401.213	1	0
401.383	1	4
401.554	1	6
401.725	1	1
401.895	1	6
402.066	1	3
402.237	1	11
402.408	1	2
402.578	1	12
402.749	1	3
402.920	1	5
403.090	1	2
403.261	1	0
403.432	1	11
403.603	1	9
403.773	1	7
403.944	1	6
404.115	1	-7
404.285	1	4
404.456	1	6
404.627	1	7
404.797	1	19
404.968	1	5
405.139	1	-1
405.310	1	0
405.480	1	3
405.651	1	13
405.822	1	12
405.992	1	7
406.163	1	12
406.334	1	3
406.504	1	8
406.675	1	17
406.846	1	7
407.016	1	-2
407.187	1	-2
407.358	1	-8
407.528	1	17
407.699	1	16
407.870	1	16
408.041	1	-3
408.211	1	1
408.382	1	12
408.553	1	7
408.723	1	-7
408.894	1	-10
409.065	1	4
409.235	1	-13
409.406	1	11
409.577	1	9
409.747	1	7
409.918	1	5
410.089	1	3
410.259	1	4
410.430	1	12
410.601	1	5
410.771	1	0
410.942	1	5
411.113	1	-1
411.283	1	-5
411.454	1	-3
411.625	1	3
411.795	1	17
411.966	1	-9
412.137	1	6
412.307	1	3
412.478	1	18
412.649	1	1
412.819	1	4
412.990	1	8
413.161	1	3
413.331	1	-14
413.502	1	16
413.672	1	7
413.843	1	-2
414.014	1	-4
414.184	1	-3
414.355	1	-1
414.526	1	-9
414.696	1	-6
414.867	1	7
415.038	1	0
415.208	1	-3
415.379	1	1
415.550	1	7
415.720	1	6
415.891	1	14
416.062	1	1
416.232	1	4
416.403	1	10
416.573	1	6
416.744	1	8
416.915	1	8
417.085	1	2
417.256	1	0
417.427	1	-2
417.597	1	-15
417.768	1	-6
417.939	1	2
418.109	1	4
418.280	1	5
418.450	1	-1
418.621	1	1
418.792	1	0
418.962	1	-4
419.133	1	8
419.304	1	6
419.474	1	3
419.645	1	12
419.815	1	5
419.986	1	3
420.157	1	9
420.327	1	2
420.498	1	5
420.669	1	6
420.839	1	4
421.010	1	12
421.180	1	-1
421.351	1	5
421.522	1	9
421.692	1	-6
421.863	1	-7
422.033	1	-2
422.204	1	-17
422.375	1	0
422.545	1	12
422.716	1	-5
422.886	1	0
423.057	1	3
423.228	1	-9
423.398	1	8
423.569	1	-3
423.740	1	-4
423.910	1	-1
424.081	1	11
424.251	1	-4
424.422	1	12
424.593	1	-1
424.763	1	5
424.934	1	-5
425.104	1	4
425.275	1	-3
425.445	1	-11
425.616	1	7
425.787	1	-4
425.957	1	15
426.128	1	-5
426.298	1	-11
426.469	1	5
426.640	1	1
426.810	1	2
426.981	1	-11
427.151	1	0
427.322	1	-1
427.493	1	0
427.663	1	-6
427.834	1	-2
428.004	1	7
428.175	1	-4
428.345	1	4
428.516	1	4
428.687	1	-4
428.857	1	-2
429.028	1	-1
429.198	1	-10
429.369	1	-2
429.540	1	13
429.710	1	-12
429.881	1	8
430.051	1	4
430.222	1	-7
430.392	1	1
430.563	1	12
430.734	1	-5
430.904	1	4
431.075	1	9
431.245	1	2
431.416	1	3
431.586	1	0
431.757	1	6
431.927	1	9
432.098	1	-4
432.269	1	-2
432.439	1	-6
432.610	1	-1
432.780	1	6
432.951	1	3
433.121	1	4
433.292	1	2
433.462	1	-2
433.633	1	3
433.804	1	-4
433.974	1	-5
434.145	1	-2
434.315	1	2
434.486	1	2
434.656	1	-7
434.827	1	-7
434.997	1	2
435.168	1	0
435.339	1	0
435.509	1	5
435.680	1	-7
435.850	1	7
436.021	1	7
436.191	1	-3
436.362	1	2
436.532	1	2
436.703	1	9
436.873	1	-5
437.044	1	-1
437.214	1	0
437.385	1	7
437.556	1	-6
437.726	1	-2
437.897	1	0
438.067	1	3
438.238	1	-5
438.408	1	-7
438.579	1	0
438.749	1	-7
438.920	1	-9
439.090	1	12
439.261	1	7
439.431	1	-4
439.602	1	2
439.772	1	11
439.943	1	1
440.113	1	0
440.284	1	2
440.455	1	-3
440.625	1	2
440.796	1	-2
440.966	1	6
441.137	1	-12
441.307	1	-1
441.478	1	3
441.648	1	-9
441.819	1	0
441.989	1	1
442.160	1	5
442.330	1	5
442.501	1	0
442.671	1	-8
442.842	1	2
443.012	1	-3
443.183	1	-6
443.353	1	-5
443.524	1	5
443.694	1	4
443.865	1	8
444.035	1	-8
444.206	1	2
444.376	1	4
444.547	1	-5
444.717	1	11
444.888	1	-2
445.058	1	-1
445.229	1	-8
445.399	1	0
445.570	1	5
445.740	1	-1
445.911	1	9
446.081	1	6
446.252	1	-3
446.422	1	10
446.593	1	-8
446.763	1	13
446.934	1	-6
447.104	1	-9
447.275	1	-9
447.445	1	-6
447.616	1	0
447.786	1	-2
447.957	1	2
448.127	1	4
448.298	1	-3
448.468	1	4
448.639	1	1
448.809	1	-5
448.979	1	1
449.150	1	7
449.320	1	1
449.491	1	4
449.661	1	0
449.832	1	-2
450.002	1	-4
450.173	1	2
450.343	1	1
450.514	1	3
450.684	1	-2
450.855	1	2
451.025	1	-7
451.196	1	9
451.366	1	3
451.537	1	0
451.707	1	4
451.878	1	-5
452.048	1	-7
452.218	1	2
452.389	1	-5
452.559	1	-8
452.730	1	2
452.900	1	2
453.071	1	-7
453.241	1	-6
453.412	1	-7
453.582	1	0
453.753	1	-3
453.923	1	-1
454.093	1	-1
454.264	1	-8
454.434	1	7
454.605	1	8
454.775	1	2
454.946	1	-1
455.116	1	-8
455.287	1	5
455.457	1	-3
455.628	1	-6
455.798	1	-5
455.968	1	7
456.139	1	1
456.309	1	-3
456.480	1	-10
456.650	1	0
456.821	1	-3
456.991	1	-6
457.161	1	-1
457.332	1	-9
457.502	1	-1
457.673	1	-4
457.843	1	5
458.014	1	6
458.184	1	2
458.355	1	11
458.525	1	3
458.695	1	3
458.866	1	4
459.036	1	-1
459.207	1	-7
459.377	1	0
459.548	1	-8
459.718	1	3
459.888	1	5
460.059	1	-2
460.229	1	2
460.400	1	5
460.570	1	-9
460.740	1	-5
460.911	1	16
461.081	1	1
461.252	1	4
461.422	1	4
461.593	1	2
461.763	1	1
461.933	1	-5
462.104	1	-4
462.274	1	6
462.445	1	-6
462.615	1	-10
462.785	1	2
462.956	1	-1
463.126	1	-9
463.297	1	-1
463.467	1	10
463.638	1	7
463.808	1	8
463.978	1	0
464.149	1	-7
464.319	1	3
464.490	1	0
464.660	1	2
464.830	1	-4
465.001	1	6
465.171	1	-1
465.342	1	-8
465.512	1	5
465.682	1	-11
465.853	1	0
466.023	1	2
466.194	1	1
466.364	1	-6
466.534	1	-6
466.705	1	3
466.875	1	2
467.045	1	2
467.216	1	0
467.386	1	-1
467.557	1	0
467.727	1	-11
467.897	1	12
468.068	1	-1
468.238	1	-7
468.409	1	14
468.579	1	8
468.749	1	4
468.920	1	-3
469.090	1	4
469.260	1	7
469.431	1	-1
469.601	1	-4
469.772	1	-20
469.942	1	7
470.112	1	-6
470.283	1	6
470.453	1	2
470.623	1	-3
470.794	1	3
470.964	1	0
471.135	1	-13
471.305	1	-4
471.475	1	-3
471.646	1	3
471.816	1	-8
471.986	1	-7
472.157	1	11
472.327	1	0
472.497	1	-3
472.668	1	-9
472.838	1	8
473.009	1	1
473.179	1	5
473.349	1	-1
473.520	1	5
473.690	1	6
473.860	1	-6
474.031	1	0
474.201	1	-5
474.371	1	2
474.542	1	2
474.712	1	5
474.882	1	-7
475.053	1	-6
475.223	1	1
475.394	1	7
475.564	1	15
475.734	1	-13
475.905	1	3
476.075	1	5
476.245	1	0
476.416	1	-13
476.586	1	-1
476.756	1	-3
476.927	1	3
477.097	1	-4
477.267	1	-7
477.438	1	-3
477.608	1	12
477.778	1	8
477.949	1	7
478.119	1	1
478.289	1	0
478.460	1	-4
478.630	1	-5
478.800	1	-6
478.971	1	10
479.141	1	14
479.311	1	2
479.482	1	-8
479.652	1	5
479.822	1	-2
479.993	1	-5
480.163	1	-15
480.333	1	-3
480.504	1	-3
480.674	1	9
480.844	1	5
481.015	1	7
481.185	1	5
481.355	1	5
481.525	1	4
481.696	1	-4
481.866	1	1
482.036	1	-10
482.207	1	3
482.377	1	-4
482.547	1	4
482.718	1	7
482.888	1	-7
483.058	1	-5
483.229	1	4
483.399	1	-1
483.569	1	4
483.740	1	-12
483.910	1	3
484.080	1	-5
484.250	1	9
484.421	1	-2
484.591	1	5
484.761	1	-8
484.932	1	6
485.102	1	1
485.272	1	7
485.443	1	10
485.613	1	-13
485.783	1	16
485.953	1	0
486.124	1	4
486.294	1	6
486.464	1	-6
486.635	1	3
486.805	1	16
486.975	1	-16
487.146	1	-3
487.316	1	1
487.486	1	-1
487.656	1	-4
487.827	1	-4
487.997	1	-2
488.167	1	3
488.338	1	14
488.508	1	-1
488.678	1	-1
488.848	1	6
489.019	1	-4
489.189	1	1
489.359	1	2
489.529	1	-1
489.700	1	3
489.870	1	-9
490.040	1	8
490.211	1	6
490.381	1	-3
490.551	1	-17
490.721	1	0
490.892	1	8
491.062	1	7
491.232	1	6
491.402	1	-11
491.573	1	6
491.743	1	-4
491.913	1	7
492.084	1	2
492.254	1	-6
492.424	1	2
492.594	1	4
492.765	1	3
492.935	1	-4
493.105	1	6
493.275	1	10
493.446	1	2
493.616	1	-1
493.786	1	4
493.956	1	-7
494.127	1	-2
494.297	1	4
494.467	1	-2
494.637	1	-1
494.808	1	8
494.978	1	-2
495.148	1	4
495.318	1	3
495.489	1	1
495.659	1	5
495.829	1	3
495.999	1	4
496.170	1	-1
496.340	1	0
496.510	1	4
496.680	1	7
496.851	1	3
497.021	1	-2
497.191	1	4
497.361	1	2
497.532	1	4
497.702	1	-7
497.872	1	-1
498.042	1	-2
498.213	1	3
498.383	1	-13
498.553	1	-1
498.723	1	2
498.894	1	-1
499.064	1	10
499.234	1	-2
499.404	1	0
499.574	1	2
499.745	1	7
499.915	1	3
500.085	1	0
500.255	1	3
500.426	1	9
500.596	1	-4
500.766	1	9
500.936	1	-6
501.106	1	-3
501.277	1	1
501.447	1	2
501.617	1	4
501.787	1	-9
501.958	1	2
502.128	1	-2
502.298	1	9
502.468	1	14
502.638	1	-5
502.809	1	5
502.979	1	0
503.149	1	-4
503.319	1	5
503.489	1	0
503.660	1	-10
503.830	1	5
504.000	1	-7
504.170	1	1
504.340	1	7
504.511	1	8
504.681	1	-3
504.851	1	-1
505.021	1	2
505.192	1	8
505.362	1	4
505.532	1	-5
505.702	1	2
505.872	1	-3
506.043	1	11
506.213	1	12
506.383	1	6
506.553	1	9
506.723	1	7
506.893	1	0
507.064	1	-12
507.234	1	1
507.404	1	-3
507.574	1	-1
507.744	1	-8
507.915	1	8
508.085	1	2
508.255	1	2
508.425	1	14
508.595	1	-6
508.766	1	1
508.936	1	3
509.106	1	-5
509.276	1	4
509.446	1	-3
509.616	1	3
509.787	1	6
509.957	1	-2
510.127	1	13
510.297	1	-5
510.467	1	-1
510.638	1	-3
510.808	1	-4
510.978	1	-12
511.148	1	8
511.318	1	0
511.488	1	11
511.659	1	3
511.829	1	-1
511.999	1	5
512.169	1	4
512.339	1	7
512.509	1	0
512.680	1	15
512.850	1	-3
513.020	1	5
513.190	1	-1
513.360	1	7
513.530	1	-1
513.700	1	5
513.871	1	9
514.041	1	-3
514.211	1	-2
514.381	1	6
514.551	1	-2
514.721	1	9
514.892	1	2
515.062	1	17
515.232	1	-5
515.402	1	-1
515.572	1	-9
515.742	1	9
515.912	1	2
516.083	1	7
516.253	1	-2
516.423	1	14
516.593	1	-3
516.763	1	2
516.933	1	4
517.104	1	14
517.274	1	12
517.444	1	1
517.614	1	-7
517.784	1	-4
517.954	1	-1
518.124	1	6
518.294	1	4
518.465	1	11
518.635	1	-2
518.805	1	6
518.975	1	0
519.145	1	2
519.315	1	5
519.485	1	-6
519.656	1	13
519.826	1	11
519.996	1	14
520.166	1	-1
520.336	1	-3
520.506	1	1
520.676	1	0
520.846	1	1
521.017	1	-2
521.187	1	0
521.357	1	-11
521.527	1	-5
521.697	1	8
521.867	1	-2
522.037	1	-3
522.207	1	5
522.377	1	2
522.548	1	-7
522.718	1	-4
522.888	1	-5
523.058	1	18
523.228	1	12
523.398	1	0
523.568	1	-5
523.738	1	3
523.909	1	11
524.079	1	4
524.249	1	8
524.419	1	-5
524.589	1	7
524.759	1	-2
524.929	1	-2
525.099	1	2
525.269	1	7
525.439	1	0
525.610	1	3
525.780	1	8
525.950	1	-4
526.120	1	-5
526.290	1	1
526.460	1	1
526.630	1	12
526.800	1	6
526.970	1	-3
527.140	1	0
527.311	1	3
527.481	1	7
527.651	1	8
527.821	1	1
527.991	1	6
528.161	1	1
528.331	1	-4
528.501	1	-7
528.671	1	1
528.841	1	7
529.011	1	3
529.181	1	3
529.352	1	8
529.522	1	-3
529.692	1	9
529.862	1	11
530.032	1	7
530.202	1	4
530.372	1	-7
530.542	1	8
530.712	1	4
530.882	1	0
531.052	1	5
531.222	1	-5
531.392	1	0
531.563	1	-3
531.733	1	5
531.903	1	3
532.073	1	3
532.243	1	9
532.413	1	8
532.583	1	-4
532.753	1	4
532.923	1	5
533.093	1	-4
533.263	1	1
533.433	1	4
533.603	1	-3
533.773	1	-6
533.943	1	0
534.113	1	9
534.284	1	5
534.454	1	1
534.624	1	2
534.794	1	3
534.964	1	-10
535.134	1	-5
535.304	1	10
535.474	1	5
535.644	1	8
535.814	1	12
535.984	1	0
536.154	1	2
536.324	1	10
536.494	1	5
536.664	1	10
536.834	1	4
537.004	1	10
537.174	1	9
537.344	1	1
537.514	1	10
537.685	1	4
537.855	1	3
538.025	1	-2
538.195	1	8
538.365	1	14
538.535	1	15
538.705	1	0
538.875	1	5
539.045	1	-3
539.215	1	-7
539.385	1	2
539.555	1	3
539.725	1	1
539.895	1	5
540.065	1	0
540.235	1	-8
540.405	1	1
540.575	1	8
540.745	1	6
540.915	1	1
541.085	1	-5
541.255	1	9
541.425	1	-3
541.595	1	2
541.765	1	-5
541.935	1	15
542.105	1	3
542.275	1	0
542.445	1	8
542.615	1	5
542.785	1	0
542.955	1	10
543.125	1	6
543.295	1	12
543.465	1	6
543.635	1	-7
543.805	1	-3
543.975	1	0
544.145	1	-3
544.315	1	-2
544.485	1	0
544.655	1	1
544.825	1	12
544.995	1	7
545.165	1	7
545.335	1	2
545.505	1	3
545.675	1	3
545.845	1	-4
546.015	1	-6
546.185	1	-3
546.355	1	11
546.525	1	8
546.695	1	-8
546.865	1	5
547.035	1	6
547.205	1	-1
547.375	1	5
547.545	1	4
547.715	1	-4
547.885	1	2
548.055	1	1
548.225	1	1
548.395	1	9
548.565	1	8
548.735	1	5
548.905	1	-4
549.075	1	-3
549.245	1	5
549.415	1	3
549.585	1	-3
549.755	1	-10
549.925	1	12
550.095	1	6
550.265	1	-8
550.435	1	13
550.605	1	6
550.775	1	1
550.945	1	9
551.115	1	-6
551.285	1	-2
551.455	1	1
551.625	1	-5
551.795	1	4
551.965	1	4
552.135	1	5
552.305	1	5
552.475	1	-2
552.645	1	-1
552.815	1	3
552.985	1	14
553.155	1	6
553.325	1	6
553.495	1	-5
553.665	1	3
553.835	1	4
554.004	1	0
554.174	1	3
554.344	1	-10
554.514	1	12
554.684	1	-3
554.854	1	-4
555.024	1	6
555.194	1	12
555.364	1	2
555.534	1	-3
555.704	1	8
555.874	1	-9
556.044	1	3
556.214	1	5
556.384	1	9
556.554	1	3
556.724	1	-9
556.894	1	6
557.064	1	4
557.234	1	3
557.404	1	0
557.573	1	2
557.743	1	9
557.913	1	3
558.083	1	-8
558.253	1	-5
558.423	1	-14
558.593	1	0
558.763	1	10
558.933	1	5
559.103	1	7
559.273	1	11
559.443	1	1
559.613	1	9
559.783	1	8
559.953	1	-5
560.122	1	1
560.292	1	0
560.462	1	0
560.632	1	-2
560.802	1	11
560.972	1	9
561.142	1	8
561.312	1	2
561.482	1	14
561.652	1	9
561.822	1	2
561.992	1	15
562.162	1	0
562.331	1	0
562.501	1	-3
562.671	1	3
562.841	1	-12
563.011	1	-2
563.181	1	14
563.351	1	4
563.521	1	2
563.691	1	3
563.861	1	4
564.031	1	5
564.201	1	3
564.370	1	7
564.540	1	13
564.710	1	-6
564.880	1	0
565.050	1	6
565.220	1	2
565.390	1	-4
565.560	1	7
565.730	1	9
565.900	1	-3
566.069	1	5
566.239	1	-6
566.409	1	0
566.579	1	2
566.749	1	1
566.919	1	3
567.089	1	3
567.259	1	6
567.429	1	4
567.599	1	-1
567.768	1	9
567.938	1	3
568.108	1	6
568.278	1	-19
568.448	1	-3
568.618	1	-1
568.788	1	-15
568.958	1	5
569.128	1	0
569.297	1	1
569.467	1	-5
569.637	1	5
569.807	1	2
569.977	1	1
570.147	1	1
570.317	1	22
570.487	1	-2
570.656	1	-6
570.826	1	0
570.996	1	-4
571.166	1	1
571.336	1	8
571.506	1	13
571.676	1	7
571.846	1	3
572.015	1	-1
572.185	1	-5
572.355	1	5
572.525	1	0
572.695	1	10
572.865	1	9
573.035	1	-3
573.205	1	5
573.374	1	6
573.544	1	14
573.714	1	5
573.884	1	-1
574.054	1	-3
574.224	1	-4
574.394	1	9
574.563	1	7
574.733	1	-3
574.903	1	9
575.073	1	2
575.243	1	-9
575.413	1	-4
575.583	1	5
575.752	1	-3
575.922	1	1
576.092	1	5
576.262	1	5
576.432	1	2
576.602	1	3
576.772	1	4
576.941	1	0
577.111	1	3
577.281	1	-3
577.451	1	-11
577.621	1	1
577.791	1	10
577.960	1	-6
578.130	1	-14
578.300	1	-3
578.470	1	0
578.640	1	-7
578.810	1	1
578.979	1	-1
579.149	1	-1
579.319	1	9
579.489	1	6
579.659	1	3
579.829	1	3
579.998	1	3
580.168	1	11
580.338	1	-17
580.508	1	7
580.678	1	-2
580.848	1	7
581.017	1	-4
581.187	1	4
581.357	1	4
581.527	1	-3
581.697	1	-10
581.867	1	-1
582.036	1	1
582.206	1	-3
582.376	1	-1
582.546	1	-7
582.716	1	0
582.885	1	5
583.055	1	1
583.225	1	-2
583.395	1	-3
583.565	1	10
583.735	1	7
583.904	1	2
584.074	1	-5
584.244	1	-5
584.414	1	-3
584.584	1	2
584.753	1	-6
584.923	1	8
585.093	1	2
585.263	1	-5
585.433	1	2
585.602	1	3
585.772	1	-3
585.942	1	-5
586.112	1	10
586.282	1	1
586.451	1	0
586.621	1	1
586.791	1	8
586.961	1	-1
587.131	1	-2
587.300	1	-1
587.470	1	-3
587.640	1	-11
587.810	1	1
587.980	1	-3
588.149	1	0
588.319	1	2
588.489	1	9
588.659	1	-2
588.829	1	1
588.998	1	-6
589.168	1	8
589.338	1	-1
589.508	1	0
589.677	1	5
589.847	1	6
590.017	1	-5
590.187	1	-5
590.357	1	-3
590.526	1	-4
590.696	1	5
590.866	1	0
591.036	1	-1
591.205	1	11
591.375	1	-7
591.545	1	-9
591.715	1	-8
591.885	1	0
592.054	1	-3
592.224	1	0
592.394	1	-2
592.564	1	-5
592.733	1	-2
592.903	1	1
593.073	1	10
593.243	1	3
593.412	1	-11
593.582	1	3
593.752	1	-4
593.922	1	-9
594.091	1	6
594.261	1	8
594.431	1	-6
594.601	1	-7
594.771	1	4
594.940	1	1
595.110	1	5
595.280	1	1
595.450	1	2
595.619	1	-2
595.789	1	10
595.959	1	3
596.129	1	-5
596.298	1	6
596.468	1	-2
596.638	1	-5
596.808	1	4
596.977	1	0
597.147	1	6
597.317	1	-1
597.487	1	4
597.656	1	-3
597.826	1	-4
597.996	1	5
598.166	1	2
598.335	1	6
598.505	1	2
598.675	1	1
598.844	1	-1
599.014	1	1
599.184	1	-6
599.354	1	-9
599.523	1	-14
599.693	1	5
599.863	1	4
600.033	1	-1
600.202	1	-8
600.372	1	2
600.542	1	-5
600.712	1	4
600.881	1	-3
601.051	1	13
601.221	1	4
601.390	1	-8
601.560	1	1
601.730	1	1
601.900	1	-6
602.069	1	-3
602.239	1	-8
602.409	1	-4
602.578	1	-4
602.748	1	0
602.918	1	-8
603.088	1	3
603.257	1	5
603.427	1	2
603.597	1	9
603.767	1	-2
603.936	1	16
604.106	1	2
604.276	1	-1
604.445	1	10
604.615	1	-6
604.785	1	1
604.954	1	2
605.124	1	-11
605.294	1	2
605.464	1	-7
605.633	1	15
605.803	1	1
605.973	1	-11
606.142	1	-1
606.312	1	-1
606.482	1	-13
606.652	1	-3
606.821	1	4
606.991	1	-3
607.161	1	1
607.330	1	0
607.500	1	7
607.670	1	4
607.839	1	3
608.009	1	-7
608.179	1	-1
608.348	1	-1
608.518	1	4
608.688	1	-3
608.858	1	2
609.027	1	0
609.197	1	-10
609.367	1	-4
609.536	1	-4
609.706	1	1
609.876	1	4
610.045	1	-5
610.215	1	-7
610.385	1	-5
610.554	1	-12
610.724	1	9
610.894	1	10
611.063	1	17
611.233	1	-1
611.403	1	3
611.572	1	-8
611.742	1	-5
611.912	1	1
612.081	1	-7
612.251	1	-6
612.421	1	5
612.590	1	-2
612.760	1	5
612.930	1	1
613.099	1	-18
613.269	1	4
613.439	1	-1
613.608	1	4
613.778	1	7
613.948	1	13
614.117	1	5
614.287	1	-6
614.457	1	8
614.626	1	7
614.796	1	7
614.966	1	-3
615.135	1	-4
615.305	1	-6
615.475	1	6
615.644	1	-11
615.814	1	-2
615.984	1	11
616.153	1	-3
616.323	1	-6
616.493	1	2
616.662	1	-3
616.832	1	-9
617.002	1	5
617.171	1	-8
617.341	1	6
617.511	1	2
617.680	1	13
617.850	1	-3
618.019	1	0
618.189	1	-1
618.359	1	-2
618.528	1	-2
618.698	1	2
618.868	1	6
619.037	1	1
619.207	1	-16
619.377	1	-14
619.546	1	-5
619.716	1	-9
619.885	1	8
620.055	1	-1
620.225	1	11
620.394	1	-8
620.564	1	-12
620.734	1	6
620.903	1	4
621.073	1	-3
621.242	1	-6
621.412	1	1
621.582	1	-1
621.751	1	-1
621.921	1	5
622.091	1	-2
622.260	1	-4
622.430	1	7
622.599	1	6
622.769	1	1
622.939	1	4
623.108	1	-3
623.278	1	2
623.448	1	-6
623.617	1	9
623.787	1	-7
623.956	1	0
624.126	1	-2
624.296	1	-11
624.465	1	1
624.635	1	2
624.804	1	-8
624.974	1	-10
625.144	1	-1
625.313	1	2
625.483	1	5
625.652	1	11
625.822	1	5
625.992	1	0
626.161	1	3
626.331	1	-2
626.501	1	3
626.670	1	4
626.840	1	-2
627.009	1	-14
627.179	1	-1
627.348	1	-5
627.518	1	-4
627.688	1	4
627.857	1	21
628.027	1	-1
628.196	1	4
628.366	1	10
628.536	1	-3
628.705	1	-2
628.875	1	-1
629.044	1	-1
629.214	1	8
629.384	1	-9
629.553	1	4
629.723	1	2
629.892	1	-9
630.062	1	-7
630.232	1	5
630.401	1	-2
630.571	1	-3
630.740	1	8
630.910	1	-1
631.079	1	12
631.249	1	-1
631.419	1	-6
631.588	1	-4
631.758	1	2
631.927	1	-8
632.097	1	4
632.266	1	-7
632.436	1	-8
632.606	1	4
632.775	1	-3
632.945	1	5
633.114	1	2
633.284	1	-13
633.453	1	-7
633.623	1	-7
633.793	1	-7
633.962	1	-8
634.132	1	-2
634.301	1	-5
634.471	1	-12
634.640	1	-3
634.810	1	5
634.979	1	16
635.149	1	-5
635.319	1	-9
635.488	1	7
635.658	1	-13
635.827	1	-1
635.997	1	-1
636.166	1	-3
636.336	1	7
636.505	1	-4
636.675	1	2
636.845	1	3
637.014	1	-2
637.184	1	-10
637.353	1	7
637.523	1	-7
637.692	1	-5
637.862	1	-11
638.031	1	9
638.201	1	6
638.370	1	12
638.540	1	-6
638.710	1	0
638.879	1	-8
639.049	1	3
639.218	1	-2
639.388	1	3
639.557	1	7
639.727	1	1
639.896	1	3
640.066	1	-2
640.235	1	2
640.405	1	-4
640.574	1	-8
640.744	1	-5
640.914	1	-3
641.083	1	-14
641.253	1	-5
641.422	1	-2
641.592	1	-3
641.761	1	-6
641.931	1	10
642.100	1	-6
642.270	1	-2
642.439	1	0
642.609	1	-3
642.778	1	-1
642.948	1	7
643.117	1	-16
643.287	1	4
643.456	1	12
643.626	1	0
643.795	1	5
643.965	1	4
644.134	1	-7
644.304	1	-5
644.473	1	8
644.643	1	-5
644.812	1	8
644.982	1	1
645.151	1	-13
645.321	1	5
645.490	1	-1
645.660	1	-3
645.829	1	-5
645.999	1	-13
646.168	1	-9
646.338	1	5
646.507	1	0
646.677	1	3
646.846	1	16
647.016	1	-6
647.185	1	-3
647.355	1	-8
647.524	1	1
647.694	1	-4
647.863	1	-16
648.033	1	-11
648.202	1	-3
648.372	1	0
648.541	1	1
648.711	1	-8
648.880	1	2
649.050	1	4
649.219	1	-2
649.389	1	12
649.558	1	-6
649.728	1	-7
649.897	1	0
650.067	1	-5
650.236	1	6
650.406	1	2
650.575	1	-1
650.745	1	-5
650.914	1	-5
651.084	1	-3
651.253	1	10
651.423	1	11
651.592	1	-3
651.762	1	1
651.931	1	5
652.101	1	4
652.270	1	-9
652.440	1	0
652.609	1	4
652.778	1	-6
652.948	1	9
653.117	1	0
653.287	1	8
653.456	1	-6
653.626	1	2
653.795	1	6
653.965	1	13
654.134	1	9
654.304	1	-1
654.473	1	7
654.643	1	20
654.812	1	-2
654.982	1	-16
655.151	1	-4
655.320	1	-9
655.490	1	5
655.659	1	-9
655.829	1	-7
655.998	1	8
656.168	1	3
656.337	1	-6
656.507	1	8
656.676	1	-11
656.846	1	-7
657.015	1	4
657.184	1	-4
657.354	1	-4
657.523	1	4
657.693	1	-5
657.862	1	-4
658.032	1	4
658.201	1	-2
658.371	1	-7
658.540	1	-4
658.709	1	-10
658.879	1	-7
659.048	1	-3
659.218	1	-1
659.387	1	0
659.557	1	-1
659.726	1	-5
659.895	1	-2
660.065	1	8
660.234	1	5
660.404	1	2
660.573	1	-5
660.743	1	3
660.912	1	-7
661.081	1	-6
661.251	1	0
661.420	1	-12
661.590	1	1
661.759	1	4
661.929	1	7
662.098	1	-11
662.267	1	9
662.437	1	1
662.606	1	1
662.776	1	0
662.945	1	0
663.115	1	-4
663.284	1	3
663.453	1	-4
663.623	1	-2
663.792	1	-1
663.962	1	-13
664.131	1	-1
664.300	1	0
664.470	1	-4
664.639	1	-4
664.809	1	2
664.978	1	7
665.148	1	2
665.317	1	-7
665.486	1	-10
665.656	1	-6
665.825	1	9
665.995	1	7
666.164	1	7
666.333	1	1
666.503	1	-8
666.672	1	-13
666.842	1	-2
667.011	1	3
667.180	1	-1
667.350	1	7
667.519	1	4
667.689	1	-7
667.858	1	10
668.027	1	-3
668.197	1	-7
668.366	1	-1
668.536	1	-3
668.705	1	-1
668.874	1	-1
669.044	1	-7
669.213	1	-2
669.382	1	-12
669.552	1	18
669.721	1	-9
669.891	1	6
670.060	1	-4
670.229	1	-8
670.399	1	1
670.568	1	1
670.738	1	-16
670.907	1	-5
671.076	1	8
671.246	1	1
671.415	1	0
671.584	1	-3
671.754	1	-6
671.923	1	-10
672.093	1	1
672.262	1	-1
672.431	1	-7
672.601	1	2
672.770	1	3
672.939	1	-10
673.109	1	-5
673.278	1	-3
673.448	1	1
673.617	1	-4
673.786	1	-2
