325.333	1	-15
325.504	1	6
325.675	1	-1
325.846	1	-7
326.017	1	-5
326.188	1	5
326.359	1	3
326.531	1	-10
326.702	1	0
326.873	1	5
327.044	1	0
327.215	1	-2
327.386	1	-7
327.557	1	-6
327.728	1	-2
327.899	1	-9
328.070	1	9
328.241	1	1
328.412	1	10
328.583	1	-12
328.754	1	-8
328.926	1	-1
329.097	1	1
329.268	1	1
329.439	1	5
329.610	1	-1
329.781	1	0
329.952	1	10
330.123	1	4
330.294	1	3
330.465	1	-3
330.636	1	8
330.807	1	4
330.978	1	4
331.149	1	-3
331.320	1	-2
331.492	1	-5
331.663	1	-2
331.834	1	17
332.005	1	0
332.176	1	0
332.347	1	11
332.518	1	12
332.689	1	1
332.860	1	-6
333.031	1	0
333.202	1	-8
333.373	1	7
333.544	1	-4
333.715	1	10
333.886	1	-5
334.057	1	-10
334.228	1	0
334.399	1	8
334.570	1	-1
334.741	1	1
334.912	1	-10
335.084	1	-5
335.255	1	5
335.426	1	-2
335.597	1	2
335.768	1	8
335.939	1	0
336.110	1	-4
336.281	1	-1
336.452	1	3
336.623	1	0
336.794	1	-6
336.965	1	-3
337.136	1	0
337.307	1	8
337.478	1	13
337.649	1	6
337.820	1	12
337.991	1	-2
338.162	1	-6
338.333	1	-4
338.504	1	-8
338.675	1	-7
338.846	1	-2
339.017	1	-8
339.188	1	3
339.359	1	8
339.530	1	8
339.701	1	0
339.872	1	-5
340.043	1	-4
340.214	1	2
340.385	1	-7
340.556	1	8
340.727	1	2
340.898	1	-2
341.069	1	-4
341.240	1	4
341.411	1	2
341.582	1	-3
341.753	1	5
341.924	1	-5
342.095	1	3
342.266	1	-5
342.437	1	2
342.608	1	-5
342.779	1	-11
342.950	1	3
343.121	1	10
343.292	1	-3
343.463	1	-2
343.634	1	-2
343.805	1	4
343.976	1	1
344.147	1	-4
344.318	1	6
344.489	1	-6
344.660	1	14
344.831	1	-4
345.002	1	3
345.173	1	4
345.344	1	-2
345.515	1	-4
345.686	1	5
345.857	1	-16
346.028	1	-4
346.199	1	-7
346.370	1	-2
346.541	1	-4
346.712	1	7
346.883	1	3
347.054	1	-5
347.225	1	-13
347.396	1	6
347.567	1	5
347.738	1	12
347.909	1	-4
348.080	1	1
348.251	1	-4
348.422	1	3
348.593	1	-6
348.764	1	-8
348.935	1	3
349.106	1	1
349.277	1	-8
349.448	1	-2
349.619	1	0
349.790	1	-6
349.961	1	0
350.132	1	9
350.303	1	-12
350.474	1	1
350.645	1	5
350.816	1	-4
350.987	1	-7
351.157	1	12
351.328	1	8
351.499	1	10
351.670	1	1
351.841	1	2
352.012	1	-11
352.183	1	-10
352.354	1	-2
352.525	1	3
352.696	1	-11
352.867	1	8
353.038	1	18
353.209	1	0
353.380	1	-2
353.551	1	0
353.722	1	-1
353.893	1	-1
354.064	1	2
354.235	1	4
354.406	1	-6
354.576	1	-2
354.747	1	-8
354.918	1	-5
355.089	1	-6
355.260	1	7
355.431	1	10
355.602	1	9
355.773	1	-6
355.944	1	6
356.115	1	-6
356.286	1	2
356.457	1	-1
356.628	1	3
356.799	1	4
356.970	1	-3
357.141	1	-5
357.311	1	-5
357.482	1	-1
357.653	1	-2
357.824	1	-9
357.995	1	-10
358.166	1	5
358.337	1	-3
358.508	1	3
358.679	1	8
358.850	1	-3
359.021	1	-2
359.192	1	7
359.363	1	1
359.533	1	2
359.704	1	-4
359.875	1	-2
360.046	1	-2
360.217	1	10
360.388	1	15
360.559	1	7
360.730	1	-1
360.901	1	6
361.072	1	-2
361.243	1	-2
361.414	1	10
361.584	1	4
361.755	1	9
361.926	1	17
362.097	1	1
362.268	1	10
362.439	1	4
362.610	1	-8
362.781	1	0
362.952	1	9
363.123	1	13
363.293	1	-1
363.464	1	11
363.635	1	3
363.806	1	10
363.977	1	-2
364.148	1	-2
364.319	1	0
364.490	1	-3
364.661	1	-2
364.832	1	5
365.002	1	10
365.173	1	10
365.344	1	-5
365.515	1	6
365.686	1	10
365.857	1	17
366.028	1	2
366.199	1	10
366.370	1	6
366.540	1	8
366.711	1	6
366.882	1	3
367.053	1	6
367.224	1	6
367.395	1	8
367.566	1	8
367.737	1	-9
367.908	1	4
368.078	1	12
368.249	1	2
368.420	1	-2
368.591	1	18
368.762	1	0
368.933	1	14
369.104	1	7
369.274	1	7
369.445	1	-9
369.616	1	-2
369.787	1	8
369.958	1	-3
370.129	1	7
370.300	1	6
370.471	1	11
370.641	1	0
370.812	1	6
370.983	1	2
371.154	1	7
371.325	1	7
371.496	1	1
371.667	1	-7
371.837	1	-12
372.008	1	1
372.179	1	-3
372.350	1	-1
372.521	1	-5
372.692	1	1
372.863	1	1
373.033	1	9
373.204	1	8
373.375	1	2
373.546	1	-1
373.717	1	13
373.888	1	-5
374.059	1	5
374.229	1	-8
374.400	1	5
374.571	1	-1
374.742	1	16
374.913	1	3
375.084	1	-4
375.254	1	-3
375.425	1	-4
375.596	1	-12
375.767	1	0
375.938	1	5
376.109	1	0
376.279	1	-7
376.450	1	-3
376.621	1	13
376.792	1	-2
376.963	1	10
377.134	1	-4
377.304	1	8
377.475	1	11
377.646	1	10
377.817	1	-2
377.988	1	-8
378.159	1	1
378.329	1	4
378.500	1	-6
378.671	1	2
378.842	1	-5
379.013	1	-2
379.184	1	1
379.354	1	2
379.525	1	3
379.696	1	-3
379.867	1	5
380.038	1	11
380.209	1	-3
380.379	1	-3
380.550	1	-7
380.721	1	19
380.892	1	7
381.063	1	2
381.233	1	5
381.404	1	8
381.575	1	1
381.746	1	3
381.917	1	-3
382.087	1	5
382.258	1	13
382.429	1	10
382.600	1	15
382.771	1	4
382.941	1	8
383.112	1	0
383.283	1	8
383.454	1	13
383.625	1	7
383.795	1	4
383.966	1	11
384.137	1	4
384.308	1	14
384.479	1	16
384.649	1	5
384.820	1	7
384.991	1	14
385.162	1	2
385.333	1	21
385.503	1	9
385.674	1	7
385.845	1	18
386.016	1	11
386.187	1	13
386.357	1	16
386.528	1	20
386.699	1	25
386.870	1	20
387.041	1	6
387.211	1	12
387.382	1	9
387.553	1	11
387.724	1	2
387.894	1	12
388.065	1	11
388.236	1	12
388.407	1	20
388.578	1	13
388.748	1	19
388.919	1	13
389.090	1	23
389.261	1	-5
389.431	1	9
389.602	1	18
389.773	1	10
389.944	1	5
390.114	1	16
390.285	1	8
390.456	1	7
390.627	1	1
390.798	1	17
390.968	1	5
391.139	1	-2
391.310	1	15
391.481	1	16
391.651	1	17
391.822	1	21
391.993	1	12
392.164	1	12
392.334	1	17
392.505	1	6
392.676	1	5
392.847	1	11
393.017	1	-1
393.188	1	10
393.359	1	7
393.530	1	19
393.700	1	15
393.871	1	3
394.042	1	3
394.213	1	10
394.383	1	5
394.554	1	9
394.725	1	8
394.896	1	9
395.066	1	16
395.237	1	15
395.408	1	18
395.579	1	19
395.749	1	13
395.920	1	9
396.091	1	9
396.262	1	17
396.432	1	-4
396.603	1	3
396.774	1	8
396.945	1	22
397.115	1	14
397.286	1	22
397.457	1	13
397.627	1	13
397.798	1	7
397.969	1	1
398.140	1	17
398.310	1	15
398.481	1	7
398.652	1	24
398.823	1	33
398.993	1	9
399.164	1	11
399.335	1	15
399.505	1	20
399.676	1	17
399.847	1	6
400.018	1	18
400.188	1	21
400.359	1	9
400.530	1	17
400.700	1	5
400.871	1	4
401.042	1	10
401.213	1	4
401.383	1	19
401.554	1	11
401.725	1	8
401.895	1	16
402.066	1	8
402.237	1	14
402.408	1	8
402.578	1	6
402.749	1	-3
402.920	1	-10
403.090	1	15
403.261	1	9
403.432	1	12
403.603	1	14
403.773	1	11
403.944	1	18
404.115	1	-14
404.285	1	6
404.456	1	10
404.627	1	9
404.797	1	15
404.968	1	4
405.139	1	5
405.310	1	8
405.480	1	12
405.651	1	9
405.822	1	16
405.992	1	0
406.163	1	10
406.334	1	6
406.504	1	7
406.675	1	18
406.846	1	4
407.016	1	0
407.187	1	5
407.358	1	6
407.528	1	13
407.699	1	19
407.870	1	11
408.041	1	2
408.211	1	4
408.382	1	8
408.553	1	14
408.723	1	1
408.894	1	-11
409.065	1	16
409.235	1	0
409.406	1	5
409.577	1	13
409.747	1	6
409.918	1	4
410.089	1	7
410.259	1	2
410.430	1	15
410.601	1	-3
410.771	1	9
410.942	1	3
411.113	1	-5
411.283	1	3
411.454	1	3
411.625	1	-7
411.795	1	13
411.966	1	-4
412.137	1	10
412.307	1	8
412.478	1	17
412.649	1	-7
412.819	1	5
412.990	1	9
413.161	1	1
413.331	1	-3
413.502	1	10
413.672	1	-1
413.843	1	3
414.014	1	2
414.184	1	-7
414.355	1	3
414.526	1	-2
414.696	1	5
414.867	1	5
415.038	1	13
415.208	1	1
415.379	1	6
415.550	1	1
415.720	1	10
415.891	1	14
416.062	1	5
416.232	1	1
416.403	1	10
416.573	1	10
416.744	1	8
416.915	1	12
417.085	1	6
417.256	1	5
417.427	1	9
417.597	1	-6
417.768	1	2
417.939	1	-2
418.109	1	14
418.280	1	-3
418.450	1	-2
418.621	1	1
418.792	1	4
418.962	1	0
419.133	1	5
419.304	1	8
419.474	1	3
419.645	1	14
419.815	1	3
419.986	1	5
420.157	1	9
420.327	1	11
420.498	1	13
420.669	1	5
420.839	1	4
421.010	1	3
421.180	1	-3
421.351	1	5
421.522	1	4
421.692	1	7
421.863	1	-2
422.033	1	-2
422.204	1	-11
422.375	1	-1
422.545	1	8
422.716	1	5
422.886	1	8
423.057	1	0
423.228	1	-2
423.398	1	2
423.569	1	-2
423.740	1	-11
423.910	1	-6
424.081	1	9
424.251	1	-5
424.422	1	2
424.593	1	13
424.763	1	3
424.934	1	2
425.104	1	7
425.275	1	-4
425.445	1	1
425.616	1	3
425.787	1	-4
425.957	1	17
426.128	1	-5
426.298	1	1
426.469	1	1
426.640	1	-1
426.810	1	4
426.981	1	-9
427.151	1	-3
427.322	1	-1
427.493	1	5
427.663	1	5
427.834	1	-5
428.004	1	0
428.175	1	5
428.345	1	14
428.516	1	3
428.687	1	6
428.857	1	7
429.028	1	2
429.198	1	-3
429.369	1	12
429.540	1	8
429.710	1	-2
429.881	1	7
430.051	1	6
430.222	1	-3
430.392	1	-4
430.563	1	11
430.734	1	6
430.904	1	-2
431.075	1	14
431.245	1	8
431.416	1	10
431.586	1	-2
431.757	1	5
431.927	1	-4
432.098	1	-3
432.269	1	0
432.439	1	-7
432.610	1	-4
432.780	1	-4
432.951	1	-1
433.121	1	12
433.292	1	3
433.462	1	8
433.633	1	-4
433.804	1	-14
433.974	1	-8
434.145	1	-1
434.315	1	9
434.486	1	9
434.656	1	3
434.827	1	3
434.997	1	11
435.168	1	-3
435.339	1	1
435.509	1	6
435.680	1	-11
435.850	1	3
436.021	1	11
436.191	1	-9
436.362	1	1
436.532	1	-4
436.703	1	4
436.873	1	-7
437.044	1	10
437.214	1	-3
437.385	1	10
437.556	1	-5
437.726	1	0
437.897	1	-4
438.067	1	8
438.238	1	-8
438.408	1	-3
438.579	1	2
438.749	1	0
438.920	1	0
439.090	1	10
439.261	1	7
439.431	1	-1
439.602	1	5
439.772	1	7
439.943	1	4
440.113	1	11
440.284	1	7
440.455	1	5
440.625	1	9
440.796	1	10
440.966	1	7
441.137	1	-13
441.307	1	-3
441.478	1	8
441.648	1	-5
441.819	1	0
441.989	1	2
442.160	1	13
442.330	1	3
442.501	1	-13
442.671	1	0
442.842	1	5
443.012	1	1
443.183	1	-10
443.353	1	-2
443.524	1	2
443.694	1	0
443.865	1	-1
444.035	1	10
444.206	1	1
444.376	1	3
444.547	1	-4
444.717	1	11
444.888	1	-7
445.058	1	3
445.229	1	-2
445.399	1	4
445.570	1	3
445.740	1	2
445.911	1	7
446.081	1	2
446.252	1	-8
446.422	1	9
446.593	1	-6
446.763	1	8
446.934	1	-4
447.104	1	-12
447.275	1	0
447.445	1	-4
447.616	1	-5
447.786	1	2
447.957	1	5
448.127	1	5
448.298	1	0
448.468	1	5
448.639	1	2
448.809	1	3
448.979	1	9
449.150	1	3
449.320	1	0
449.491	1	1
449.661	1	6
449.832	1	3
450.002	1	-7
450.173	1	1
450.343	1	-8
450.514	1	-9
450.684	1	0
450.855	1	1
451.025	1	5
451.196	1	-3
451.366	1	8
451.537	1	4
451.707	1	9
451.878	1	-3
452.048	1	-7
452.218	1	-9
452.389	1	-4
452.559	1	-11
452.730	1	-1
452.900	1	-8
453.071	1	-2
453.241	1	-9
453.412	1	-2
453.582	1	12
453.753	1	3
453.923	1	-5
454.093	1	-7
454.264	1	-13
454.434	1	7
454.605	1	0
454.775	1	8
454.946	1	4
455.116	1	0
455.287	1	2
455.457	1	-2
455.628	1	4
455.798	1	-9
455.968	1	3
456.139	1	7
456.309	1	2
456.480	1	-10
456.650	1	-4
456.821	1	-3
456.991	1	4
457.161	1	11
457.332	1	-5
457.502	1	3
457.673	1	-6
457.843	1	2
458.014	1	5
458.184	1	4
458.355	1	4
458.525	1	-11
458.695	1	0
458.866	1	-1
459.036	1	11
459.207	1	-3
459.377	1	-1
459.548	1	-9
459.718	1	-6
459.888	1	13
460.059	1	-4
460.229	1	9
460.400	1	5
460.570	1	-13
460.740	1	-1
460.911	1	7
461.081	1	-5
461.252	1	5
461.422	1	5
461.593	1	6
461.763	1	5
461.933	1	-15
462.104	1	-3
462.274	1	-1
462.445	1	-4
462.615	1	2
462.785	1	0
462.956	1	-2
463.126	1	-3
463.297	1	-7
463.467	1	5
463.638	1	4
463.808	1	-4
463.978	1	1
464.149	1	2
464.319	1	1
464.490	1	-3
464.660	1	-1
464.830	1	-1
465.001	1	3
465.171	1	10
465.342	1	5
465.512	1	8
465.682	1	7
465.853	1	-3
466.023	1	-1
466.194	1	-2
466.364	1	5
466.534	1	-2
466.705	1	2
466.875	1	5
467.045	1	6
467.216	1	-15
467.386	1	-5
467.557	1	3
467.727	1	-9
467.897	1	4
468.068	1	3
468.238	1	-11
468.409	1	5
468.579	1	5
468.749	1	-7
468.920	1	4
469.090	1	6
469.260	1	-3
469.431	1	1
469.601	1	11
469.772	1	-8
469.942	1	4
470.112	1	1
470.283	1	12
470.453	1	2
470.623	1	-2
470.794	1	6
470.964	1	5
471.135	1	-7
471.305	1	-2
471.475	1	-1
471.646	1	-3
471.816	1	-4
471.986	1	2
472.157	1	7
472.327	1	-6
472.497	1	1
472.668	1	-8
472.838	1	9
473.009	1	7
473.179	1	-1
473.349	1	12
473.520	1	1
473.690	1	7
473.860	1	-6
474.031	1	-5
474.201	1	-4
474.371	1	4
474.542	1	-16
474.712	1	6
474.882	1	-11
475.053	1	-3
475.223	1	0
475.394	1	9
475.564	1	3
475.734	1	-3
475.905	1	-1
476.075	1	5
476.245	1	-5
476.416	1	-7
476.586	1	0
476.756	1	2
476.927	1	16
477.097	1	-7
477.267	1	-1
477.438	1	-7
477.608	1	-1
477.778	1	-3
477.949	1	-2
478.119	1	-3
478.289	1	-3
478.460	1	-7
478.630	1	-6
478.800	1	-6
478.971	1	-6
479.141	1	11
479.311	1	3
479.482	1	-10
479.652	1	-2
479.822	1	7
479.993	1	8
480.163	1	-11
480.333	1	-5
480.504	1	0
480.674	1	5
480.844	1	1
481.015	1	-9
481.185	1	10
481.355	1	5
481.525	1	-9
481.696	1	10
481.866	1	-2
482.036	1	-11
482.207	1	7
482.377	1	3
482.547	1	-5
482.718	1	5
482.888	1	-1
483.058	1	2
483.229	1	7
483.399	1	1
483.569	1	3
483.740	1	-9
483.910	1	6
484.080	1	-11
484.250	1	3
484.421	1	-5
484.591	1	9
484.761	1	-9
484.932	1	-4
485.102	1	5
485.272	1	8
485.443	1	7
485.613	1	-12
485.783	1	10
485.953	1	-4
486.124	1	10
486.294	1	3
486.464	1	-5
486.635	1	17
486.805	1	18
486.975	1	-21
487.146	1	7
487.316	1	3
487.486	1	-1
487.656	1	-5
487.827	1	3
487.997	1	7
488.167	1	6
488.338	1	23
488.508	1	4
488.678	1	-1
488.848	1	-6
489.019	1	4
489.189	1	-4
489.359	1	8
489.529	1	5
489.700	1	-4
489.870	1	-9
490.040	1	1
490.211	1	13
490.381	1	-4
490.551	1	-13
490.721	1	-3
490.892	1	5
491.062	1	9
491.232	1	4
491.402	1	-11
491.573	1	-1
491.743	1	-8
491.913	1	-3
492.084	1	5
492.254	1	-3
492.424	1	-4
492.594	1	4
492.765	1	4
492.935	1	-4
493.105	1	10
493.275	1	10
493.446	1	2
493.616	1	1
493.786	1	5
493.956	1	-2
494.127	1	-1
494.297	1	5
494.467	1	17
494.637	1	-5
494.808	1	-1
494.978	1	4
495.148	1	3
495.318	1	10
495.489	1	5
495.659	1	5
495.829	1	5
495.999	1	1
496.170	1	-6
496.340	1	11
496.510	1	0
496.680	1	6
496.851	1	8
497.021	1	4
497.191	1	-4
497.361	1	4
497.532	1	4
497.702	1	1
497.872	1	3
498.042	1	0
498.213	1	12
498.383	1	-13
498.553	1	8
498.723	1	9
498.894	1	10
499.064	1	11
499.234	1	0
499.404	1	5
499.574	1	-3
499.745	1	0
499.915	1	4
500.085	1	1
500.255	1	7
500.426	1	0
500.596	1	-6
500.766	1	4
500.936	1	0
501.106	1	3
501.277	1	7
501.447	1	-4
501.617	1	6
501.787	1	-7
501.958	1	1
502.128	1	-4
502.298	1	5
502.468	1	11
502.638	1	12
502.809	1	11
502.979	1	-8
503.149	1	0
503.319	1	6
503.489	1	14
503.660	1	-2
503.830	1	5
504.000	1	-7
504.170	1	1
504.340	1	10
504.511	1	5
504.681	1	0
504.851	1	-1
505.021	1	4
505.192	1	10
505.362	1	13
505.532	1	-1
505.702	1	7
505.872	1	-9
506.043	1	10
506.213	1	-5
506.383	1	0
506.553	1	15
506.723	1	8
506.893	1	3
507.064	1	-6
507.234	1	8
507.404	1	1
507.574	1	6
507.744	1	-10
507.915	1	8
508.085	1	-3
508.255	1	9
508.425	1	9
508.595	1	-2
508.766	1	3
508.936	1	5
509.106	1	0
509.276	1	2
509.446	1	-12
509.616	1	12
509.787	1	3
509.957	1	-3
510.127	1	3
510.297	1	2
510.467	1	0
510.638	1	1
510.808	1	-1
510.978	1	-13
511.148	1	13
511.318	1	2
511.488	1	7
511.659	1	-1
511.829	1	3
511.999	1	17
512.169	1	4
512.339	1	6
512.509	1	9
512.680	1	10
512.850	1	0
513.020	1	0
513.190	1	-3
513.360	1	9
513.530	1	5
513.700	1	7
513.871	1	12
514.041	1	0
514.211	1	-5
514.381	1	13
514.551	1	1
514.721	1	8
514.892	1	2
515.062	1	4
515.232	1	6
515.402	1	3
515.572	1	-2
515.742	1	9
515.912	1	12
516.083	1	15
516.253	1	0
516.423	1	11
516.593	1	0
516.763	1	5
516.933	1	1
517.104	1	9
517.274	1	6
517.444	1	11
517.614	1	1
517.784	1	3
517.954	1	1
518.124	1	18
518.294	1	8
518.465	1	10
518.635	1	5
518.805	1	0
518.975	1	5
519.145	1	9
519.315	1	2
519.485	1	4
519.656	1	0
519.826	1	0
519.996	1	8
520.166	1	5
520.336	1	5
520.506	1	5
520.676	1	0
520.846	1	-4
521.017	1	-1
521.187	1	0
521.357	1	1
521.527	1	-2
521.697	1	11
521.867	1	8
522.037	1	7
522.207	1	-2
522.377	1	7
522.548	1	-7
522.718	1	-1
522.888	1	1
523.058	1	19
523.228	1	12
523.398	1	9
523.568	1	2
523.738	1	2
523.909	1	16
524.079	1	3
524.249	1	0
524.419	1	1
524.589	1	11
524.759	1	5
524.929	1	1
525.099	1	7
525.269	1	7
525.439	1	-2
525.610	1	6
525.780	1	10
525.950	1	-7
526.120	1	-9
526.290	1	-2
526.460	1	14
526.630	1	12
526.800	1	-1
526.970	1	3
527.140	1	-5
527.311	1	8
527.481	1	9
527.651	1	21
527.821	1	-2
527.991	1	6
528.161	1	1
528.331	1	4
528.501	1	3
528.671	1	3
528.841	1	11
529.011	1	-1
529.181	1	5
529.352	1	7
529.522	1	8
529.692	1	8
529.862	1	9
530.032	1	-3
530.202	1	7
530.372	1	1
530.542	1	14
530.712	1	13
530.882	1	-6
531.052	1	4
531.222	1	-8
531.392	1	2
531.563	1	6
531.733	1	10
531.903	1	19
532.073	1	9
532.243	1	2
532.413	1	11
532.583	1	0
532.753	1	-3
532.923	1	2
533.093	1	13
533.263	1	10
533.433	1	5
533.603	1	2
533.773	1	0
533.943	1	3
534.113	1	-3
534.284	1	0
534.454	1	13
534.624	1	11
534.794	1	8
534.964	1	-2
535.134	1	6
535.304	1	18
535.474	1	12
535.644	1	10
535.814	1	13
535.984	1	7
536.154	1	2
536.324	1	13
536.494	1	3
536.664	1	19
536.834	1	9
537.004	1	22
537.174	1	18
537.344	1	4
537.514	1	6
537.685	1	10
537.855	1	8
538.025	1	16
538.195	1	10
538.365	1	11
538.535	1	18
538.705	1	9
538.875	1	3
539.045	1	9
539.215	1	0
539.385	1	7
539.555	1	-1
539.725	1	5
539.895	1	6
540.065	1	3
540.235	1	10
540.405	1	9
540.575	1	11
540.745	1	3
540.915	1	9
541.085	1	-3
541.255	1	-4
541.425	1	0
541.595	1	4
541.765	1	3
541.935	1	11
542.105	1	6
542.275	1	2
542.445	1	11
542.615	1	2
542.785	1	1
542.955	1	12
543.125	1	3
543.295	1	5
543.465	1	11
543.635	1	4
543.805	1	9
543.975	1	10
544.145	1	0
544.315	1	8
544.485	1	2
544.655	1	2
544.825	1	15
544.995	1	5
545.165	1	5
545.335	1	8
545.505	1	8
545.675	1	7
545.845	1	-4
546.015	1	8
546.185	1	7
546.355	1	12
546.525	1	11
546.695	1	-4
546.865	1	0
547.035	1	8
547.205	1	-2
547.375	1	4
547.545	1	9
547.715	1	14
547.885	1	6
548.055	1	1
548.225	1	4
548.395	1	4
548.565	1	7
548.735	1	8
548.905	1	0
549.075	1	2
549.245	1	-1
549.415	1	-1
549.585	1	-2
549.755	1	9
549.925	1	13
550.095	1	1
550.265	1	0
550.435	1	14
550.605	1	5
550.775	1	-5
550.945	1	10
551.115	1	0
551.285	1	10
551.455	1	12
551.625	1	1
551.795	1	-3
551.965	1	6
552.135	1	4
552.305	1	7
552.475	1	1
552.645	1	10
552.815	1	5
552.985	1	8
553.155	1	5
553.325	1	7
553.495	1	2
553.665	1	5
553.835	1	-4
554.004	1	7
554.174	1	-1
554.344	1	2
554.514	1	8
554.684	1	11
554.854	1	6
555.024	1	8
555.194	1	12
555.364	1	12
555.534	1	2
555.704	1	9
555.874	1	-6
556.044	1	13
556.214	1	2
556.384	1	14
556.554	1	-4
556.724	1	-4
556.894	1	8
557.064	1	4
557.234	1	-6
557.404	1	-6
557.573	1	2
557.743	1	2
557.913	1	1
558.083	1	-12
558.253	1	3
558.423	1	-5
558.593	1	2
558.763	1	3
558.933	1	6
559.103	1	2
559.273	1	-1
559.443	1	6
559.613	1	7
559.783	1	4
559.953	1	2
560.122	1	-13
560.292	1	6
560.462	1	13
560.632	1	8
560.802	1	0
560.972	1	10
561.142	1	2
561.312	1	9
561.482	1	1
561.652	1	14
561.822	1	0
561.992	1	9
562.162	1	-4
562.331	1	2
562.501	1	-4
562.671	1	5
562.841	1	4
563.011	1	1
563.181	1	13
563.351	1	-14
563.521	1	6
563.691	1	2
563.861	1	13
564.031	1	9
564.201	1	6
564.370	1	5
564.540	1	21
564.710	1	-2
564.880	1	16
565.050	1	-2
565.220	1	7
565.390	1	-6
565.560	1	13
565.730	1	5
565.900	1	4
566.069	1	9
566.239	1	-3
566.409	1	0
566.579	1	4
566.749	1	6
566.919	1	7
567.089	1	2
567.259	1	12
567.429	1	3
567.599	1	-1
567.768	1	9
567.938	1	14
568.108	1	2
568.278	1	-8
568.448	1	-2
568.618	1	1
568.788	1	-13
568.958	1	2
569.128	1	7
569.297	1	10
569.467	1	9
569.637	1	6
569.807	1	3
569.977	1	8
570.147	1	4
570.317	1	23
570.487	1	11
570.656	1	11
570.826	1	5
570.996	1	0
571.166	1	4
571.336	1	6
571.506	1	1
571.676	1	10
571.846	1	8
572.015	1	-2
572.185	1	-2
572.355	1	18
572.525	1	-5
572.695	1	13
572.865	1	-1
573.035	1	3
573.205	1	7
573.374	1	7
573.544	1	3
573.714	1	8
573.884	1	-4
574.054	1	5
574.224	1	3
574.394	1	0
574.563	1	1
574.733	1	1
574.903	1	-3
575.073	1	-1
575.243	1	-7
575.413	1	1
575.583	1	5
575.752	1	-1
575.922	1	9
576.092	1	7
576.262	1	3
576.432	1	0
576.602	1	3
576.772	1	4
576.941	1	1
577.111	1	3
577.281	1	-5
577.451	1	2
577.621	1	1
577.791	1	6
577.960	1	-4
578.130	1	-3
578.300	1	-1
578.470	1	6
578.640	1	-8
578.810	1	7
578.979	1	12
579.149	1	12
579.319	1	3
579.489	1	-11
579.659	1	8
579.829	1	8
579.998	1	1
580.168	1	15
580.338	1	-15
580.508	1	-1
580.678	1	-6
580.848	1	6
581.017	1	1
581.187	1	6
581.357	1	5
581.527	1	8
581.697	1	-9
581.867	1	-4
582.036	1	8
582.206	1	-7
582.376	1	-1
582.546	1	5
582.716	1	5
582.885	1	-3
583.055	1	-3
583.225	1	7
583.395	1	0
583.565	1	7
583.735	1	-4
583.904	1	4
584.074	1	0
584.244	1	-2
584.414	1	3
584.584	1	1
584.753	1	-3
584.923	1	5
585.093	1	2
585.263	1	5
585.433	1	7
585.602	1	5
585.772	1	0
585.942	1	6
586.112	1	7
586.282	1	2
586.451	1	-4
586.621	1	-4
586.791	1	4
586.961	1	-2
587.131	1	3
587.300	1	-7
587.470	1	8
587.640	1	-1
587.810	1	1
587.980	1	-1
588.149	1	6
588.319	1	1
588.489	1	9
588.659	1	-4
588.829	1	1
588.998	1	-2
589.168	1	9
589.338	1	4
589.508	1	-2
589.677	1	-4
589.847	1	6
590.017	1	-1
590.187	1	5
590.357	1	0
590.526	1	-3
590.696	1	1
590.866	1	3
591.036	1	5
591.205	1	13
591.375	1	-13
591.545	1	-6
591.715	1	-4
591.885	1	-5
592.054	1	-2
592.224	1	3
592.394	1	8
592.564	1	-8
592.733	1	-4
592.903	1	14
593.073	1	5
593.243	1	0
593.412	1	0
593.582	1	2
593.752	1	-5
593.922	1	-11
594.091	1	9
594.261	1	9
594.431	1	-1
594.601	1	-7
594.771	1	9
594.940	1	-3
595.110	1	-1
595.280	1	-2
595.450	1	1
595.619	1	-2
595.789	1	4
595.959	1	3
596.129	1	0
596.298	1	15
596.468	1	1
596.638	1	-1
596.808	1	6
596.977	1	0
597.147	1	2
597.317	1	3
597.487	1	0
597.656	1	0
597.826	1	1
597.996	1	4
598.166	1	2
598.335	1	-2
598.505	1	-3
598.675	1	2
598.844	1	-5
599.014	1	-3
599.184	1	1
599.354	1	-14
599.523	1	-8
599.693	1	11
599.863	1	7
600.033	1	-3
600.202	1	-1
600.372	1	3
600.542	1	0
600.712	1	-1
600.881	1	3
601.051	1	9
601.221	1	1
601.390	1	-9
601.560	1	5
601.730	1	2
601.900	1	3
602.069	1	-8
602.239	1	-16
602.409	1	-2
602.578	1	4
602.748	1	-7
602.918	1	-1
603.088	1	7
603.257	1	7
603.427	1	2
603.597	1	23
603.767	1	-11
603.936	1	-1
604.106	1	-1
604.276	1	-3
604.445	1	5
604.615	1	5
604.785	1	7
604.954	1	5
605.124	1	-13
605.294	1	-2
605.464	1	0
605.633	1	-1
605.803	1	0
605.973	1	-5
606.142	1	-4
606.312	1	-3
606.482	1	-1
606.652	1	-10
606.821	1	12
606.991	1	1
607.161	1	3
607.330	1	5
607.500	1	0
607.670	1	1
607.839	1	1
608.009	1	-5
608.179	1	4
608.348	1	-4
608.518	1	4
608.688	1	1
608.858	1	-4
609.027	1	-1
609.197	1	-3
609.367	1	-6
609.536	1	-10
609.706	1	1
609.876	1	6
610.045	1	-1
610.215	1	-5
610.385	1	-1
610.554	1	-8
610.724	1	6
610.894	1	9
611.063	1	1
611.233	1	-9
611.403	1	6
611.572	1	2
611.742	1	2
611.912	1	-5
612.081	1	-4
612.251	1	2
612.421	1	8
612.590	1	1
612.760	1	8
612.930	1	6
613.099	1	-7
613.269	1	0
613.439	1	1
613.608	1	8
613.778	1	6
613.948	1	12
614.117	1	13
614.287	1	-1
614.457	1	3
614.626	1	3
614.796	1	6
614.966	1	5
615.135	1	-1
615.305	1	-1
615.475	1	7
615.644	1	-7
615.814	1	9
615.984	1	-1
616.153	1	8
616.323	1	1
616.493	1	1
616.662	1	3
616.832	1	-7
617.002	1	-9
617.171	1	0
617.341	1	-3
617.511	1	-1
617.680	1	0
617.850	1	-5
618.019	1	9
618.189	1	-5
618.359	1	8
618.528	1	-12
618.698	1	3
618.868	1	0
619.037	1	10
619.207	1	-11
619.377	1	-7
619.546	1	-3
619.716	1	-14
619.885	1	7
620.055	1	7
620.225	1	-3
620.394	1	-1
620.564	1	-3
620.734	1	-3
620.903	1	13
621.073	1	-5
621.242	1	-7
621.412	1	4
621.582	1	4
621.751	1	0
621.921	1	7
622.091	1	-1
622.260	1	-8
622.430	1	7
622.599	1	7
622.769	1	2
622.939	1	5
623.108	1	1
623.278	1	-1
623.448	1	-9
623.617	1	1
623.787	1	-4
623.956	1	-4
624.126	1	-7
624.296	1	-1
624.465	1	0
624.635	1	4
624.804	1	-4
624.974	1	-3
625.144	1	5
625.313	1	-2
625.483	1	2
625.652	1	3
625.822	1	-1
625.992	1	-2
626.161	1	6
626.331	1	-1
626.501	1	4
626.670	1	1
626.840	1	6
627.009	1	-12
627.179	1	-4
627.348	1	-1
627.518	1	3
627.688	1	1
627.857	1	7
628.027	1	-6
628.196	1	0
628.366	1	11
628.536	1	-3
628.705	1	0
628.875	1	7
629.044	1	3
629.214	1	2
629.384	1	-12
629.553	1	5
629.723	1	10
629.892	1	8
630.062	1	2
630.232	1	4
630.401	1	2
630.571	1	6
630.740	1	-3
630.910	1	-3
631.079	1	8
631.249	1	-9
631.419	1	-8
631.588	1	-5
631.758	1	11
631.927	1	0
632.097	1	9
632.266	1	-14
632.436	1	-1
632.606	1	3
632.775	1	4
632.945	1	5
633.114	1	12
633.284	1	-3
633.453	1	-4
633.623	1	2
633.793	1	2
633.962	1	9
634.132	1	1
634.301	1	0
634.471	1	-13
634.640	1	5
634.810	1	-1
634.979	1	6
635.149	1	-1
635.319	1	9
635.488	1	0
635.658	1	2
635.827	1	6
635.997	1	7
636.166	1	-13
636.336	1	10
636.505	1	-1
636.675	1	-6
636.845	1	5
637.014	1	-4
637.184	1	-9
637.353	1	8
637.523	1	0
637.692	1	11
637.862	1	-14
638.031	1	6
638.201	1	2
638.370	1	-10
638.540	1	4
638.710	1	0
638.879	1	-4
639.049	1	11
639.218	1	7
639.388	1	6
639.557	1	10
639.727	1	-2
639.896	1	-4
640.066	1	-2
640.235	1	7
640.405	1	0
640.574	1	-11
640.744	1	1
640.914	1	3
641.083	1	-5
641.253	1	-7
641.422	1	-5
641.592	1	-10
641.761	1	5
641.931	1	7
642.100	1	-1
642.270	1	-2
642.439	1	-1
642.609	1	-4
642.778	1	-1
642.948	1	13
643.117	1	-5
643.287	1	1
643.456	1	5
643.626	1	9
643.795	1	-3
643.965	1	-4
644.134	1	-1
644.304	1	-6
644.473	1	8
644.643	1	-1
644.812	1	10
644.982	1	7
645.151	1	-5
645.321	1	7
645.490	1	5
645.660	1	3
645.829	1	-9
645.999	1	0
646.168	1	1
646.338	1	5
646.507	1	-1
646.677	1	-5
646.846	1	4
647.016	1	-3
647.185	1	-5
647.355	1	-4
647.524	1	8
647.694	1	-4
647.863	1	-6
648.033	1	-12
648.202	1	0
648.372	1	4
648.541	1	-1
648.711	1	1
648.880	1	2
649.050	1	-1
649.219	1	-1
649.389	1	-1
649.558	1	-6
649.728	1	4
649.897	1	3
650.067	1	2
650.236	1	0
650.406	1	3
650.575	1	-15
650.745	1	-7
650.914	1	1
651.084	1	-7
651.253	1	-6
651.423	1	10
651.592	1	1
651.762	1	3
651.931	1	6
652.101	1	-2
652.270	1	0
652.440	1	7
652.609	1	4
652.778	1	-5
652.948	1	0
653.117	1	1
653.287	1	14
653.456	1	5
653.626	1	5
653.795	1	6
653.965	1	4
654.134	1	1
654.304	1	10
654.473	1	2
654.643	1	19
654.812	1	-4
654.982	1	-16
655.151	1	0
655.320	1	-10
655.490	1	8
655.659	1	5
655.829	1	-16
655.998	1	3
656.168	1	2
656.337	1	-7
656.507	1	12
656.676	1	-6
656.846	1	-1
657.015	1	-6
657.184	1	3
657.354	1	-3
657.523	1	-8
657.693	1	0
657.862	1	-3
658.032	1	2
658.201	1	-10
658.371	1	-17
658.540	1	-6
658.709	1	1
658.879	1	1
659.048	1	4
659.218	1	-7
659.387	1	-5
659.557	1	-2
659.726	1	-7
659.895	1	4
660.065	1	2
660.234	1	-3
660.404	1	6
660.573	1	-9
660.743	1	-3
660.912	1	-7
661.081	1	2
661.251	1	7
661.420	1	-5
661.590	1	8
661.759	1	4
661.929	1	1
662.098	1	-15
662.267	1	11
662.437	1	-1
662.606	1	-3
662.776	1	10
662.945	1	8
663.115	1	-11
663.284	1	4
663.453	1	1
663.623	1	-1
663.792	1	-2
663.962	1	-11
664.131	1	-1
664.300	1	-4
664.470	1	-5
664.639	1	2
664.809	1	2
664.978	1	-5
665.148	1	-6
665.317	1	-1
665.486	1	-4
665.656	1	-11
665.825	1	4
665.995	1	14
666.164	1	5
666.333	1	10
666.503	1	-8
666.672	1	-6
666.842	1	0
667.011	1	11
667.180	1	3
667.350	1	6
667.519	1	-1
667.689	1	-3
667.858	1	12
668.027	1	-8
668.197	1	0
668.366	1	-5
668.536	1	2
668.705	1	-11
668.874	1	-1
669.044	1	1
669.213	1	10
669.382	1	-8
669.552	1	10
669.721	1	-11
669.891	1	1
670.060	1	-2
670.229	1	-4
670.399	1	8
670.568	1	2
670.738	1	-11
670.907	1	-18
671.076	1	7
671.246	1	-3
671.415	1	8
671.584	1	0
671.754	1	-6
671.923	1	-1
672.093	1	-4
672.262	1	-3
672.431	1	-6
672.601	1	1
672.770	1	7
672.939	1	-5
673.109	1	-4
673.278	1	12
673.448	1	2
673.617	1	1
673.786	1	-7
