325.333	1	1
325.504	1	7
325.675	1	-2
325.846	1	-4
326.017	1	0
326.188	1	9
326.359	1	0
326.531	1	-5
326.702	1	5
326.873	1	7
327.044	1	2
327.215	1	6
327.386	1	1
327.557	1	-2
327.728	1	-2
327.899	1	-9
328.070	1	0
328.241	1	-4
328.412	1	10
328.583	1	-3
328.754	1	-3
328.926	1	0
329.097	1	13
329.268	1	0
329.439	1	-2
329.610	1	0
329.781	1	5
329.952	1	9
330.123	1	-1
330.294	1	14
330.465	1	-2
330.636	1	14
330.807	1	5
330.978	1	3
331.149	1	2
331.320	1	0
331.492	1	-6
331.663	1	-9
331.834	1	9
332.005	1	10
332.176	1	3
332.347	1	3
332.518	1	14
332.689	1	4
332.860	1	0
333.031	1	7
333.202	1	-1
333.373	1	-2
333.544	1	0
333.715	1	-4
333.886	1	2
334.057	1	-4
334.228	1	4
334.399	1	2
334.570	1	8
334.741	1	-5
334.912	1	-5
335.084	1	5
335.255	1	9
335.426	1	3
335.597	1	-11
335.768	1	5
335.939	1	0
336.110	1	5
336.281	1	-5
336.452	1	-4
336.623	1	3
336.794	1	-1
336.965	1	8
337.136	1	3
337.307	1	4
337.478	1	9
337.649	1	15
337.820	1	15
337.991	1	7
338.162	1	-2
338.333	1	2
338.504	1	3
338.675	1	5
338.846	1	0
339.017	1	-2
339.188	1	-5
339.359	1	3
339.530	1	-2
339.701	1	-4
339.872	1	2
340.043	1	10
340.214	1	-1
340.385	1	0
340.556	1	12
340.727	1	-5
340.898	1	-1
341.069	1	2
341.240	1	5
341.411	1	3
341.582	1	-4
341.753	1	2
341.924	1	-10
342.095	1	3
342.266	1	6
342.437	1	4
342.608	1	0
342.779	1	-3
342.950	1	1
343.121	1	2
343.292	1	-2
343.463	1	-2
343.634	1	-3
343.805	1	20
343.976	1	5
344.147	1	3
344.318	1	4
344.489	1	-7
344.660	1	15
344.831	1	-3
345.002	1	1
345.173	1	0
345.344	1	-1
345.515	1	0
345.686	1	-2
345.857	1	1
346.028	1	-3
346.199	1	-2
346.370	1	-1
346.541	1	0
346.712	1	1
346.883	1	5
347.054	1	1
347.225	1	-6
347.396	1	2
347.567	1	-1
347.738	1	4
347.909	1	6
348.080	1	5
348.251	1	-4
348.422	1	-3
348.593	1	1
348.764	1	-4
348.935	1	-1
349.106	1	10
349.277	1	-7
349.448	1	-2
349.619	1	-2
349.790	1	3
349.961	1	4
350.132	1	-5
350.303	1	-7
350.474	1	3
350.645	1	4
350.816	1	3
350.987	1	13
351.157	1	-8
351.328	1	11
351.499	1	3
351.670	1	12
351.841	1	7
352.012	1	-4
352.183	1	0
352.354	1	1
352.525	1	-1
352.696	1	-6
352.867	1	5
353.038	1	19
353.209	1	1
353.380	1	5
353.551	1	1
353.722	1	12
353.893	1	-4
354.064	1	10
354.235	1	1
354.406	1	-11
354.576	1	5
354.747	1	-4
354.918	1	-12
355.089	1	5
355.260	1	11
355.431	1	3
355.602	1	18
355.773	1	-7
355.944	1	7
356.115	1	-3
356.286	1	3
356.457	1	-8
356.628	1	-3
356.799	1	-4
356.970	1	6
357.141	1	-4
357.311	1	-3
357.482	1	2
357.653	1	1
357.824	1	0
357.995	1	0
358.166	1	10
358.337	1	7
358.508	1	-3
358.679	1	0
358.850	1	-4
359.021	1	-9
359.192	1	1
359.363	1	12
359.533	1	6
359.704	1	-2
359.875	1	-8
360.046	1	4
360.217	1	14
360.388	1	2
360.559	1	14
360.730	1	1
360.901	1	11
361.072	1	-6
361.243	1	9
361.414	1	5
361.584	1	11
361.755	1	4
361.926	1	11
362.097	1	0
362.268	1	-1
362.439	1	4
362.610	1	-4
362.781	1	-9
362.952	1	3
363.123	1	6
363.293	1	-7
363.464	1	11
363.635	1	1
363.806	1	15
363.977	1	3
364.148	1	2
364.319	1	10
364.490	1	-13
364.661	1	-4
364.832	1	-5
365.002	1	2
365.173	1	0
365.344	1	1
365.515	1	-13
365.686	1	6
365.857	1	2
366.028	1	-7
366.199	1	-5
366.370	1	6
366.540	1	4
366.711	1	4
366.882	1	5
367.053	1	1
367.224	1	16
367.395	1	5
367.566	1	9
367.737	1	-2
367.908	1	-2
368.078	1	12
368.249	1	-9
368.420	1	7
368.591	1	10
368.762	1	-4
368.933	1	12
369.104	1	3
369.274	1	10
369.445	1	2
369.616	1	-7
369.787	1	2
369.958	1	0
370.129	1	6
370.300	1	0
370.471	1	8
370.641	1	-4
370.812	1	-3
370.983	1	2
371.154	1	-3
371.325	1	-4
371.496	1	2
371.667	1	-1
371.837	1	-5
372.008	1	3
372.179	1	4
372.350	1	-3
372.521	1	-7
372.692	1	2
372.863	1	-7
373.033	1	2
373.204	1	2
373.375	1	3
373.546	1	2
373.717	1	1
373.888	1	-1
374.059	1	3
374.229	1	5
374.400	1	-1
374.571	1	-3
374.742	1	13
374.913	1	-8
375.084	1	0
375.254	1	-5
375.425	1	0
375.596	1	-10
375.767	1	-1
375.938	1	5
376.109	1	-2
376.279	1	-2
376.450	1	-1
376.621	1	16
376.792	1	0
376.963	1	0
377.134	1	-10
377.304	1	4
377.475	1	5
377.646	1	6
377.817	1	7
377.988	1	6
378.159	1	6
378.329	1	6
378.500	1	-5
378.671	1	-10
378.842	1	0
379.013	1	-2
379.184	1	4
379.354	1	3
379.525	1	9
379.696	1	-3
379.867	1	-3
380.038	1	4
380.209	1	1
380.379	1	-17
380.550	1	9
380.721	1	11
380.892	1	0
381.063	1	-1
381.233	1	7
381.404	1	3
381.575	1	-1
381.746	1	9
381.917	1	-7
382.087	1	-6
382.258	1	3
382.429	1	4
382.600	1	8
382.771	1	6
382.941	1	8
383.112	1	-5
383.283	1	-1
383.454	1	1
383.625	1	-5
383.795	1	12
383.966	1	3
384.137	1	-1
384.308	1	-1
384.479	1	7
384.649	1	-6
384.820	1	-10
384.991	1	-4
385.162	1	8
385.333	1	10
385.503	1	-6
385.674	1	-4
385.845	1	2
386.016	1	9
386.187	1	6
386.357	1	7
386.528	1	6
386.699	1	9
386.870	1	4
387.041	1	5
387.211	1	0
387.382	1	-9
387.553	1	11
387.724	1	-4
387.894	1	4
388.065	1	-3
388.236	1	9
388.407	1	11
388.578	1	6
388.748	1	4
388.919	1	-3
389.090	1	10
389.261	1	-19
389.431	1	7
389.602	1	7
389.773	1	3
389.944	1	6
390.114	1	2
390.285	1	2
390.456	1	1
390.627	1	-5
390.798	1	17
390.968	1	-9
391.139	1	-15
391.310	1	4
391.481	1	-3
391.651	1	-3
391.822	1	10
391.993	1	10
392.164	1	-2
392.334	1	8
392.505	1	1
392.676	1	8
392.847	1	2
393.017	1	-15
393.188	1	0
393.359	1	2
393.530	1	3
393.700	1	11
393.871	1	-4
394.042	1	1
394.213	1	5
394.383	1	2
394.554	1	4
394.725	1	8
394.896	1	-11
395.066	1	3
395.237	1	5
395.408	1	2
395.579	1	11
395.749	1	7
395.920	1	11
396.091	1	7
396.262	1	-2
396.432	1	-3
396.603	1	-3
396.774	1	-6
396.945	1	8
397.115	1	11
397.286	1	13
397.457	1	0
397.627	1	0
397.798	1	-13
397.969	1	-5
398.140	1	2
398.310	1	1
398.481	1	2
398.652	1	7
398.823	1	17
398.993	1	-1
399.164	1	8
399.335	1	7
399.505	1	1
399.676	1	7
399.847	1	1
400.018	1	4
400.188	1	4
400.359	1	-4
400.530	1	5
400.700	1	4
400.871	1	-9
401.042	1	-3
401.213	1	-3
401.383	1	6
401.554	1	2
401.725	1	3
401.895	1	2
402.066	1	1
402.237	1	3
402.408	1	3
402.578	1	2
402.749	1	-3
402.920	1	-14
403.090	1	2
403.261	1	1
403.432	1	5
403.603	1	4
403.773	1	9
403.944	1	5
404.115	1	-8
404.285	1	-4
404.456	1	5
404.627	1	11
404.797	1	18
404.968	1	-3
405.139	1	-2
405.310	1	-4
405.480	1	14
405.651	1	0
405.822	1	8
405.992	1	-4
406.163	1	6
406.334	1	-1
406.504	1	-8
406.675	1	4
406.846	1	-8
407.016	1	-5
407.187	1	-2
407.358	1	-3
407.528	1	7
407.699	1	5
407.870	1	3
408.041	1	-3
408.211	1	-5
408.382	1	12
408.553	1	1
408.723	1	4
408.894	1	-14
409.065	1	9
409.235	1	-4
409.406	1	3
409.577	1	9
409.747	1	0
409.918	1	5
410.089	1	6
410.259	1	-10
410.430	1	13
410.601	1	-10
410.771	1	-2
410.942	1	2
411.113	1	4
411.283	1	1
411.454	1	-2
411.625	1	5
411.795	1	6
411.966	1	-6
412.137	1	1
412.307	1	4
412.478	1	7
412.649	1	3
412.819	1	2
412.990	1	12
413.161	1	4
413.331	1	-8
413.502	1	13
413.672	1	-3
413.843	1	-1
414.014	1	12
414.184	1	0
414.355	1	-2
414.526	1	-8
414.696	1	-7
414.867	1	6
415.038	1	-2
415.208	1	-1
415.379	1	-1
415.550	1	-7
415.720	1	5
415.891	1	4
416.062	1	0
416.232	1	0
416.403	1	-2
416.573	1	0
416.744	1	9
416.915	1	-1
417.085	1	4
417.256	1	-5
417.427	1	-3
417.597	1	0
417.768	1	1
417.939	1	8
418.109	1	-4
418.280	1	9
418.450	1	6
418.621	1	3
418.792	1	-7
418.962	1	-10
419.133	1	-13
419.304	1	2
419.474	1	-8
419.645	1	15
419.815	1	-2
419.986	1	4
420.157	1	4
420.327	1	2
420.498	1	9
420.669	1	8
420.839	1	7
421.010	1	0
421.180	1	5
421.351	1	3
421.522	1	-1
421.692	1	2
421.863	1	-1
422.033	1	-3
422.204	1	-5
422.375	1	-6
422.545	1	5
422.716	1	2
422.886	1	6
423.057	1	-1
423.228	1	-8
423.398	1	10
423.569	1	9
423.740	1	-10
423.910	1	-7
424.081	1	-1
424.251	1	7
424.422	1	3
424.593	1	5
424.763	1	5
424.934	1	3
425.104	1	10
425.275	1	-6
425.445	1	-6
425.616	1	9
425.787	1	-7
425.957	1	4
426.128	1	-3
426.298	1	5
426.469	1	18
426.640	1	-9
426.810	1	3
426.981	1	-5
427.151	1	-2
427.322	1	2
427.493	1	2
427.663	1	4
427.834	1	-5
428.004	1	9
428.175	1	1
428.345	1	15
428.516	1	5
428.687	1	2
428.857	1	-3
429.028	1	-1
429.198	1	-3
429.369	1	3
429.540	1	9
429.710	1	-4
429.881	1	8
430.051	1	1
430.222	1	0
430.392	1	-3
430.563	1	0
430.734	1	1
430.904	1	2
431.075	1	-2
431.245	1	6
431.416	1	7
431.586	1	3
431.757	1	5
431.927	1	3
432.098	1	2
432.269	1	-2
432.439	1	-4
432.610	1	-11
432.780	1	5
432.951	1	3
433.121	1	-1
433.292	1	1
433.462	1	7
433.633	1	2
433.804	1	2
433.974	1	-6
434.145	1	-4
434.315	1	8
434.486	1	5
434.656	1	-2
434.827	1	-3
434.997	1	-1
435.168	1	4
435.339	1	9
435.509	1	6
435.680	1	-9
435.850	1	1
436.021	1	5
436.191	1	6
436.362	1	2
436.532	1	2
436.703	1	0
436.873	1	0
437.044	1	11
437.214	1	-1
437.385	1	1
437.556	1	4
437.726	1	-5
437.897	1	2
438.067	1	-4
438.238	1	-9
438.408	1	2
438.579	1	10
438.749	1	2
438.920	1	1
439.090	1	21
439.261	1	0
439.431	1	-2
439.602	1	-6
439.772	1	8
439.943	1	0
440.113	1	-2
440.284	1	0
440.455	1	-10
440.625	1	7
440.796	1	7
440.966	1	11
441.137	1	0
441.307	1	-2
441.478	1	6
441.648	1	2
441.819	1	2
441.989	1	5
442.160	1	0
442.330	1	10
442.501	1	-9
442.671	1	10
442.842	1	3
443.012	1	1
443.183	1	-2
443.353	1	4
443.524	1	-4
443.694	1	5
443.865	1	-2
444.035	1	-4
444.206	1	7
444.376	1	3
444.547	1	5
444.717	1	3
444.888	1	-5
445.058	1	1
445.229	1	2
445.399	1	2
445.570	1	8
445.740	1	5
445.911	1	12
446.081	1	1
446.252	1	-2
446.422	1	2
446.593	1	1
446.763	1	4
446.934	1	-1
447.104	1	-6
447.275	1	0
447.445	1	-1
447.616	1	-5
447.786	1	4
447.957	1	5
448.127	1	4
448.298	1	-5
448.468	1	3
448.639	1	4
448.809	1	-7
448.979	1	7
449.150	1	3
449.320	1	-4
449.491	1	-3
449.661	1	3
449.832	1	-1
450.002	1	-2
450.173	1	-6
450.343	1	3
450.514	1	6
450.684	1	0
450.855	1	2
451.025	1	1
451.196	1	4
451.366	1	13
451.537	1	5
451.707	1	8
451.878	1	-6
452.048	1	-3
452.218	1	7
452.389	1	-2
452.559	1	5
452.730	1	4
452.900	1	-2
453.071	1	0
453.241	1	-8
453.412	1	-5
453.582	1	10
453.753	1	0
453.923	1	2
454.093	1	1
454.264	1	-9
454.434	1	0
454.605	1	1
454.775	1	15
454.946	1	0
455.116	1	0
455.287	1	9
455.457	1	-9
455.628	1	-9
455.798	1	-12
455.968	1	4
456.139	1	0
456.309	1	-4
456.480	1	1
456.650	1	1
456.821	1	11
456.991	1	1
457.161	1	4
457.332	1	-3
457.502	1	-5
457.673	1	-8
457.843	1	10
458.014	1	-1
458.184	1	8
458.355	1	14
458.525	1	0
458.695	1	3
458.866	1	-4
459.036	1	6
459.207	1	8
459.377	1	7
459.548	1	2
459.718	1	-9
459.888	1	7
460.059	1	17
460.229	1	6
460.400	1	7
460.570	1	0
460.740	1	-5
460.911	1	14
461.081	1	-4
461.252	1	7
461.422	1	-1
461.593	1	-2
461.763	1	-2
461.933	1	-8
462.104	1	2
462.274	1	5
462.445	1	-1
462.615	1	-2
462.785	1	-6
462.956	1	0
463.126	1	-12
463.297	1	2
463.467	1	3
463.638	1	-2
463.808	1	7
463.978	1	-3
464.149	1	-4
464.319	1	2
464.490	1	0
464.660	1	1
464.830	1	1
465.001	1	5
465.171	1	-2
465.342	1	5
465.512	1	-2
465.682	1	-2
465.853	1	-8
466.023	1	-3
466.194	1	7
466.364	1	4
466.534	1	3
466.705	1	4
466.875	1	2
467.045	1	2
467.216	1	-1
467.386	1	5
467.557	1	6
467.727	1	-1
467.897	1	9
468.068	1	10
468.238	1	-3
468.409	1	4
468.579	1	4
468.749	1	4
468.920	1	0
469.090	1	7
469.260	1	6
469.431	1	6
469.601	1	-2
469.772	1	-8
469.942	1	8
470.112	1	-4
470.283	1	9
470.453	1	4
470.623	1	2
470.794	1	3
470.964	1	-1
471.135	1	-7
471.305	1	0
471.475	1	-2
471.646	1	9
471.816	1	3
471.986	1	13
472.157	1	10
472.327	1	-3
472.497	1	-3
472.668	1	-6
472.838	1	13
473.009	1	3
473.179	1	2
473.349	1	4
473.520	1	-3
473.690	1	12
473.860	1	8
474.031	1	6
474.201	1	5
474.371	1	-5
474.542	1	-1
474.712	1	7
474.882	1	-8
475.053	1	-7
475.223	1	8
475.394	1	0
475.564	1	23
475.734	1	-2
475.905	1	2
476.075	1	-1
476.245	1	-1
476.416	1	-2
476.586	1	-4
476.756	1	2
476.927	1	13
477.097	1	1
477.267	1	-6
477.438	1	-1
477.608	1	7
477.778	1	10
477.949	1	13
478.119	1	10
478.289	1	-2
478.460	1	-4
478.630	1	-3
478.800	1	-5
478.971	1	7
479.141	1	11
479.311	1	2
479.482	1	1
479.652	1	5
479.822	1	1
479.993	1	4
480.163	1	-2
480.333	1	3
480.504	1	-1
480.674	1	4
480.844	1	2
481.015	1	-10
481.185	1	11
481.355	1	6
481.525	1	1
481.696	1	3
481.866	1	11
482.036	1	-8
482.207	1	-1
482.377	1	-6
482.547	1	0
482.718	1	-3
482.888	1	-7
483.058	1	-1
483.229	1	4
483.399	1	-9
483.569	1	2
483.740	1	-9
483.910	1	12
484.080	1	-6
484.250	1	9
484.421	1	1
484.591	1	10
484.761	1	-8
484.932	1	3
485.102	1	1
485.272	1	5
485.443	1	9
485.613	1	-9
485.783	1	7
485.953	1	-3
486.124	1	-2
486.294	1	6
486.464	1	-7
486.635	1	12
486.805	1	22
486.975	1	-11
487.146	1	2
487.316	1	2
487.486	1	2
487.656	1	3
487.827	1	8
487.997	1	11
488.167	1	4
488.338	1	13
488.508	1	6
488.678	1	12
488.848	1	-1
489.019	1	-7
489.189	1	-8
489.359	1	-1
489.529	1	-3
489.700	1	3
489.870	1	-4
490.040	1	7
490.211	1	5
490.381	1	-3
490.551	1	7
490.721	1	0
490.892	1	10
491.062	1	7
491.232	1	7
491.402	1	-9
491.573	1	7
491.743	1	-10
491.913	1	11
492.084	1	3
492.254	1	3
492.424	1	-3
492.594	1	2
492.765	1	5
492.935	1	-1
493.105	1	19
493.275	1	4
493.446	1	-6
493.616	1	-5
493.786	1	0
493.956	1	-4
494.127	1	4
494.297	1	7
494.467	1	7
494.637	1	1
494.808	1	11
494.978	1	-1
495.148	1	11
495.318	1	16
495.489	1	2
495.659	1	13
495.829	1	6
495.999	1	-1
496.170	1	-7
496.340	1	4
496.510	1	9
496.680	1	8
496.851	1	6
497.021	1	0
497.191	1	1
497.361	1	5
497.532	1	-2
497.702	1	-5
497.872	1	7
498.042	1	4
498.213	1	8
498.383	1	-5
498.553	1	8
498.723	1	-6
498.894	1	-4
499.064	1	12
499.234	1	0
499.404	1	7
499.574	1	-1
499.745	1	-1
499.915	1	2
500.085	1	-4
500.255	1	11
500.426	1	0
500.596	1	-1
500.766	1	6
500.936	1	-4
501.106	1	-3
501.277	1	2
501.447	1	-5
501.617	1	5
501.787	1	-3
501.958	1	6
502.128	1	1
502.298	1	7
502.468	1	6
502.638	1	7
502.809	1	2
502.979	1	-3
503.149	1	7
503.319	1	6
503.489	1	8
503.660	1	-6
503.830	1	-1
504.000	1	-14
504.170	1	2
504.340	1	1
504.511	1	7
504.681	1	-3
504.851	1	-3
505.021	1	2
505.192	1	13
505.362	1	12
505.532	1	-9
505.702	1	-1
505.872	1	-7
506.043	1	1
506.213	1	2
506.383	1	5
506.553	1	11
506.723	1	-2
506.893	1	8
507.064	1	4
507.234	1	-2
507.404	1	0
507.574	1	-3
507.744	1	-22
507.915	1	2
508.085	1	9
508.255	1	0
508.425	1	11
508.595	1	6
508.766	1	4
508.936	1	-1
509.106	1	0
509.276	1	9
509.446	1	-4
509.616	1	9
509.787	1	-2
509.957	1	2
510.127	1	12
510.297	1	0
510.467	1	-2
510.638	1	-5
510.808	1	0
510.978	1	-9
511.148	1	17
511.318	1	-3
511.488	1	2
511.659	1	7
511.829	1	2
511.999	1	18
512.169	1	6
512.339	1	-7
512.509	1	7
512.680	1	4
512.850	1	-9
513.020	1	7
513.190	1	-1
513.360	1	5
513.530	1	-6
513.700	1	10
513.871	1	12
514.041	1	0
514.211	1	-10
514.381	1	1
514.551	1	4
514.721	1	6
514.892	1	3
515.062	1	6
515.232	1	0
515.402	1	1
515.572	1	-13
515.742	1	7
515.912	1	7
516.083	1	-4
516.253	1	0
516.423	1	14
516.593	1	-7
516.763	1	6
516.933	1	-3
517.104	1	9
517.274	1	-3
517.444	1	6
517.614	1	-5
517.784	1	-2
517.954	1	-6
518.124	1	9
518.294	1	-2
518.465	1	1
518.635	1	-2
518.805	1	4
518.975	1	4
519.145	1	8
519.315	1	-2
519.485	1	1
519.656	1	-2
519.826	1	-1
519.996	1	8
520.166	1	8
520.336	1	0
520.506	1	3
520.676	1	-7
520.846	1	0
521.017	1	-9
521.187	1	5
521.357	1	-1
521.527	1	0
521.697	1	7
521.867	1	11
522.037	1	0
522.207	1	0
522.377	1	-3
522.548	1	-4
522.718	1	2
522.888	1	1
523.058	1	13
523.228	1	10
523.398	1	14
523.568	1	-10
523.738	1	7
523.909	1	14
524.079	1	6
524.249	1	-1
524.419	1	-2
524.589	1	8
524.759	1	4
524.929	1	6
525.099	1	1
525.269	1	4
525.439	1	0
525.610	1	7
525.780	1	8
525.950	1	-2
526.120	1	1
526.290	1	-6
526.460	1	2
526.630	1	3
526.800	1	1
526.970	1	-8
527.140	1	-3
527.311	1	7
527.481	1	18
527.651	1	16
527.821	1	-2
527.991	1	5
528.161	1	4
528.331	1	5
528.501	1	-13
528.671	1	1
528.841	1	3
529.011	1	-5
529.181	1	4
529.352	1	4
529.522	1	4
529.692	1	7
529.862	1	-2
530.032	1	-4
530.202	1	4
530.372	1	-1
530.542	1	8
530.712	1	14
530.882	1	-8
531.052	1	8
531.222	1	-4
531.392	1	-5
531.563	1	4
531.733	1	10
531.903	1	7
532.073	1	-6
532.243	1	3
532.413	1	4
532.583	1	0
532.753	1	0
532.923	1	-2
533.093	1	1
533.263	1	2
533.433	1	2
533.603	1	-3
533.773	1	4
533.943	1	-2
534.113	1	-7
534.284	1	7
534.454	1	10
534.624	1	0
534.794	1	4
534.964	1	4
535.134	1	1
535.304	1	13
535.474	1	-1
535.644	1	2
535.814	1	6
535.984	1	-5
536.154	1	-7
536.324	1	6
536.494	1	2
536.664	1	3
536.834	1	4
537.004	1	15
537.174	1	2
537.344	1	4
537.514	1	1
537.685	1	4
537.855	1	5
538.025	1	-2
538.195	1	6
538.365	1	3
538.535	1	9
538.705	1	-3
538.875	1	-1
539.045	1	8
539.215	1	-11
539.385	1	5
539.555	1	-5
539.725	1	2
539.895	1	9
540.065	1	2
540.235	1	-2
540.405	1	6
540.575	1	-1
540.745	1	-1
540.915	1	3
541.085	1	-2
541.255	1	-6
541.425	1	-5
541.595	1	6
541.765	1	1
541.935	1	8
542.105	1	5
542.275	1	-1
542.445	1	2
542.615	1	1
542.785	1	-4
542.955	1	4
543.125	1	-5
543.295	1	9
543.465	1	15
543.635	1	0
543.805	1	2
543.975	1	8
544.145	1	5
544.315	1	-1
544.485	1	0
544.655	1	1
544.825	1	12
544.995	1	2
545.165	1	0
545.335	1	4
545.505	1	1
545.675	1	1
545.845	1	-11
546.015	1	6
546.185	1	4
546.355	1	7
546.525	1	10
546.695	1	-8
546.865	1	-3
547.035	1	6
547.205	1	2
547.375	1	1
547.545	1	3
547.715	1	6
547.885	1	-1
548.055	1	-2
548.225	1	-1
548.395	1	13
548.565	1	4
548.735	1	4
548.905	1	-6
549.075	1	0
549.245	1	1
549.415	1	-3
549.585	1	0
549.755	1	-7
549.925	1	7
550.095	1	-2
550.265	1	-10
550.435	1	12
550.605	1	2
550.775	1	-5
550.945	1	5
551.115	1	-1
551.285	1	8
551.455	1	-1
551.625	1	1
551.795	1	7
551.965	1	0
552.135	1	-8
552.305	1	1
552.475	1	-4
552.645	1	-2
552.815	1	-1
552.985	1	3
553.155	1	4
553.325	1	14
553.495	1	1
553.665	1	-4
553.835	1	2
554.004	1	0
554.174	1	-10
554.344	1	-2
554.514	1	10
554.684	1	1
554.854	1	-1
555.024	1	-4
555.194	1	11
555.364	1	4
555.534	1	2
555.704	1	-3
555.874	1	-12
556.044	1	-3
556.214	1	2
556.384	1	7
556.554	1	-6
556.724	1	-5
556.894	1	13
557.064	1	0
557.234	1	-5
557.404	1	-10
557.573	1	4
557.743	1	5
557.913	1	6
558.083	1	-13
558.253	1	3
558.423	1	-2
558.593	1	5
558.763	1	-1
558.933	1	11
559.103	1	1
559.273	1	-1
559.443	1	10
559.613	1	9
559.783	1	2
559.953	1	4
560.122	1	-10
560.292	1	9
560.462	1	4
560.632	1	-9
560.802	1	8
560.972	1	5
561.142	1	15
561.312	1	3
561.482	1	1
561.652	1	-8
561.822	1	-6
561.992	1	1
562.162	1	5
562.331	1	-5
562.501	1	-6
562.671	1	8
562.841	1	-3
563.011	1	11
563.181	1	9
563.351	1	-5
563.521	1	5
563.691	1	1
563.861	1	8
564.031	1	1
564.201	1	4
564.370	1	7
564.540	1	12
564.710	1	-7
564.880	1	4
565.050	1	2
565.220	1	1
565.390	1	-10
565.560	1	8
565.730	1	3
565.900	1	0
566.069	1	8
566.239	1	0
566.409	1	1
566.579	1	6
566.749	1	1
566.919	1	9
567.089	1	13
567.259	1	10
567.429	1	11
567.599	1	-7
567.768	1	-1
567.938	1	11
568.108	1	-2
568.278	1	-10
568.448	1	-12
568.618	1	4
568.788	1	-8
568.958	1	-3
569.128	1	1
569.297	1	9
569.467	1	4
569.637	1	-5
569.807	1	-7
569.977	1	8
570.147	1	-5
570.317	1	12
570.487	1	-2
570.656	1	-3
570.826	1	1
570.996	1	-6
571.166	1	-4
571.336	1	2
571.506	1	9
571.676	1	10
571.846	1	11
572.015	1	-8
572.185	1	-2
572.355	1	17
572.525	1	-7
572.695	1	-4
572.865	1	7
573.035	1	2
573.205	1	15
573.374	1	0
573.544	1	1
573.714	1	8
573.884	1	-7
574.054	1	-6
574.224	1	-1
574.394	1	-8
574.563	1	6
574.733	1	7
574.903	1	3
575.073	1	-4
575.243	1	-16
575.413	1	-3
575.583	1	4
575.752	1	-2
575.922	1	-7
576.092	1	9
576.262	1	-1
576.432	1	-5
576.602	1	6
576.772	1	3
576.941	1	0
577.111	1	3
577.281	1	4
577.451	1	0
577.621	1	-1
577.791	1	9
577.960	1	-4
578.130	1	1
578.300	1	-3
578.470	1	5
578.640	1	-1
578.810	1	3
578.979	1	3
579.149	1	-5
579.319	1	6
579.489	1	0
579.659	1	3
579.829	1	6
579.998	1	-2
580.168	1	6
580.338	1	-15
580.508	1	7
580.678	1	3
580.848	1	4
581.017	1	-1
581.187	1	-3
581.357	1	-5
581.527	1	14
581.697	1	-13
581.867	1	8
582.036	1	4
582.206	1	-1
582.376	1	7
582.546	1	2
582.716	1	4
582.885	1	-1
583.055	1	-5
583.225	1	4
583.395	1	1
583.565	1	12
583.735	1	4
583.904	1	-3
584.074	1	1
584.244	1	8
584.414	1	3
584.584	1	7
584.753	1	-5
584.923	1	-3
585.093	1	10
585.263	1	-1
585.433	1	0
585.602	1	7
585.772	1	3
585.942	1	-3
586.112	1	6
586.282	1	0
586.451	1	3
586.621	1	2
586.791	1	0
586.961	1	2
587.131	1	-2
587.300	1	-12
587.470	1	-3
587.640	1	-19
587.810	1	6
587.980	1	-5
588.149	1	9
588.319	1	-3
588.489	1	4
588.659	1	-3
588.829	1	-4
588.998	1	-3
589.168	1	4
589.338	1	7
589.508	1	8
589.677	1	3
589.847	1	-6
590.017	1	-4
590.187	1	8
590.357	1	-6
590.526	1	5
590.696	1	5
590.866	1	1
591.036	1	2
591.205	1	4
591.375	1	-11
591.545	1	-6
591.715	1	-5
591.885	1	7
592.054	1	5
592.224	1	0
592.394	1	2
592.564	1	-9
592.733	1	1
592.903	1	3
593.073	1	6
593.243	1	-3
593.412	1	-4
593.582	1	6
593.752	1	4
593.922	1	4
594.091	1	1
594.261	1	4
594.431	1	-3
594.601	1	-16
594.771	1	0
594.940	1	2
595.110	1	7
595.280	1	0
595.450	1	17
595.619	1	4
595.789	1	4
595.959	1	10
596.129	1	-2
596.298	1	9
596.468	1	-3
596.638	1	8
596.808	1	2
596.977	1	-1
597.147	1	0
597.317	1	13
597.487	1	-2
597.656	1	-6
597.826	1	-3
597.996	1	8
598.166	1	-7
598.335	1	6
598.505	1	-1
598.675	1	3
598.844	1	0
599.014	1	9
599.184	1	1
599.354	1	-4
599.523	1	-10
599.693	1	9
599.863	1	6
600.033	1	0
600.202	1	-2
600.372	1	-1
600.542	1	1
600.712	1	3
600.881	1	-3
601.051	1	4
601.221	1	0
601.390	1	-3
601.560	1	9
601.730	1	3
601.900	1	2
602.069	1	-6
602.239	1	-1
602.409	1	-2
602.578	1	-8
602.748	1	-4
602.918	1	-8
603.088	1	-2
603.257	1	6
603.427	1	1
603.597	1	12
603.767	1	-1
603.936	1	11
604.106	1	3
604.276	1	5
604.445	1	-2
604.615	1	0
604.785	1	-2
604.954	1	-1
605.124	1	-6
605.294	1	0
605.464	1	4
605.633	1	1
605.803	1	6
605.973	1	-10
606.142	1	-6
606.312	1	-1
606.482	1	-2
606.652	1	-8
606.821	1	11
606.991	1	-1
607.161	1	6
607.330	1	15
607.500	1	5
607.670	1	-2
607.839	1	-2
608.009	1	-13
608.179	1	8
608.348	1	3
608.518	1	4
608.688	1	7
608.858	1	10
609.027	1	13
609.197	1	-3
609.367	1	-9
609.536	1	0
609.706	1	-10
609.876	1	4
610.045	1	1
610.215	1	3
610.385	1	6
610.554	1	-9
610.724	1	5
610.894	1	-1
611.063	1	10
611.233	1	-2
611.403	1	4
611.572	1	1
611.742	1	-6
611.912	1	2
612.081	1	-6
612.251	1	6
612.421	1	9
612.590	1	7
612.760	1	-3
612.930	1	7
613.099	1	-11
613.269	1	-3
613.439	1	1
613.608	1	8
613.778	1	-3
613.948	1	4
614.117	1	5
614.287	1	-2
614.457	1	3
614.626	1	4
614.796	1	8
614.966	1	-2
615.135	1	-4
615.305	1	-2
615.475	1	9
615.644	1	-7
615.814	1	8
615.984	1	14
616.153	1	4
616.323	1	-5
616.493	1	2
616.662	1	4
616.832	1	-6
617.002	1	1
617.171	1	2
617.341	1	2
617.511	1	-3
617.680	1	2
617.850	1	5
618.019	1	1
618.189	1	-8
618.359	1	2
618.528	1	-5
618.698	1	-6
618.868	1	3
619.037	1	10
619.207	1	-7
619.377	1	-1
619.546	1	2
619.716	1	-7
619.885	1	-4
620.055	1	12
620.225	1	9
620.394	1	-3
620.564	1	-2
620.734	1	1
620.903	1	10
621.073	1	-8
621.242	1	-5
621.412	1	5
621.582	1	-7
621.751	1	-4
621.921	1	2
622.091	1	-8
622.260	1	-3
622.430	1	4
622.599	1	16
622.769	1	5
622.939	1	-1
623.108	1	6
623.278	1	2
623.448	1	-2
623.617	1	3
623.787	1	0
623.956	1	3
624.126	1	6
624.296	1	-1
624.465	1	7
624.635	1	4
624.804	1	-4
624.974	1	-5
625.144	1	8
625.313	1	2
625.483	1	4
625.652	1	2
625.822	1	1
625.992	1	-3
626.161	1	12
626.331	1	9
626.501	1	9
626.670	1	9
626.840	1	2
627.009	1	-5
627.179	1	-3
627.348	1	-4
627.518	1	10
627.688	1	5
627.857	1	10
628.027	1	1
628.196	1	9
628.366	1	9
628.536	1	5
628.705	1	0
628.875	1	7
629.044	1	5
629.214	1	5
629.384	1	-5
629.553	1	4
629.723	1	3
629.892	1	0
630.062	1	3
630.232	1	1
630.401	1	-7
630.571	1	8
630.740	1	8
630.910	1	0
631.079	1	11
631.249	1	-1
631.419	1	10
631.588	1	-11
631.758	1	8
631.927	1	0
632.097	1	10
632.266	1	-11
632.436	1	-3
632.606	1	9
632.775	1	-2
632.945	1	1
633.114	1	13
633.284	1	-2
633.453	1	-1
633.623	1	-2
633.793	1	5
633.962	1	5
634.132	1	0
634.301	1	0
634.471	1	-11
634.640	1	3
634.810	1	5
634.979	1	3
635.149	1	4
635.319	1	0
635.488	1	2
635.658	1	-6
635.827	1	2
635.997	1	2
636.166	1	-2
636.336	1	11
636.505	1	4
636.675	1	2
636.845	1	0
637.014	1	3
637.184	1	-7
637.353	1	7
637.523	1	-1
637.692	1	-3
637.862	1	-3
638.031	1	2
638.201	1	3
638.370	1	7
638.540	1	2
638.710	1	0
638.879	1	0
639.049	1	5
639.218	1	9
639.388	1	11
639.557	1	2
639.727	1	4
639.896	1	2
640.066	1	2
640.235	1	3
640.405	1	-5
640.574	1	3
640.744	1	-1
640.914	1	2
641.083	1	-3
641.253	1	-3
641.422	1	-3
641.592	1	-11
641.761	1	0
641.931	1	10
642.100	1	-14
642.270	1	-4
642.439	1	-1
642.609	1	-2
642.778	1	-2
642.948	1	11
643.117	1	5
643.287	1	4
643.456	1	7
643.626	1	10
643.795	1	8
643.965	1	4
644.134	1	9
644.304	1	-4
644.473	1	13
644.643	1	-3
644.812	1	5
644.982	1	6
645.151	1	2
645.321	1	16
645.490	1	6
645.660	1	-4
645.829	1	-4
645.999	1	2
646.168	1	-2
646.338	1	5
646.507	1	2
646.677	1	-1
646.846	1	12
647.016	1	5
647.185	1	1
647.355	1	-1
647.524	1	5
647.694	1	4
647.863	1	-11
648.033	1	-13
648.202	1	3
648.372	1	5
648.541	1	-1
648.711	1	1
648.880	1	0
649.050	1	-2
649.219	1	-1
649.389	1	2
649.558	1	-1
649.728	1	5
649.897	1	-1
650.067	1	0
650.236	1	4
650.406	1	3
650.575	1	0
650.745	1	-6
650.914	1	-9
651.084	1	-6
651.253	1	5
651.423	1	12
651.592	1	-5
651.762	1	6
651.931	1	1
652.101	1	3
652.270	1	14
652.440	1	-5
652.609	1	3
652.778	1	-5
652.948	1	-2
653.117	1	1
653.287	1	23
653.456	1	-1
653.626	1	2
653.795	1	6
653.965	1	11
654.134	1	1
654.304	1	-1
654.473	1	2
654.643	1	18
654.812	1	1
654.982	1	-7
655.151	1	-2
655.320	1	5
655.490	1	5
655.659	1	-4
655.829	1	3
655.998	1	5
656.168	1	-6
656.337	1	-7
656.507	1	15
656.676	1	-1
656.846	1	-4
657.015	1	-4
657.184	1	10
657.354	1	2
657.523	1	-3
657.693	1	-7
657.862	1	8
658.032	1	4
658.201	1	-2
658.371	1	-9
658.540	1	-2
658.709	1	-5
658.879	1	5
659.048	1	9
659.218	1	-10
659.387	1	0
659.557	1	-11
659.726	1	-6
659.895	1	-4
660.065	1	1
660.234	1	1
660.404	1	11
660.573	1	-7
660.743	1	1
660.912	1	1
661.081	1	7
661.251	1	8
661.420	1	-4
661.590	1	0
661.759	1	3
661.929	1	6
662.098	1	-5
662.267	1	15
662.437	1	7
662.606	1	10
662.776	1	-1
662.945	1	6
663.115	1	-7
663.284	1	-3
663.453	1	2
663.623	1	0
663.792	1	7
663.962	1	-5
664.131	1	-3
664.300	1	2
664.470	1	1
664.639	1	-5
664.809	1	6
664.978	1	1
665.148	1	5
665.317	1	0
665.486	1	-1
665.656	1	0
665.825	1	4
665.995	1	16
666.164	1	2
666.333	1	7
666.503	1	-5
666.672	1	-13
666.842	1	3
667.011	1	11
667.180	1	3
667.350	1	16
667.519	1	0
667.689	1	2
667.858	1	-1
668.027	1	-9
668.197	1	14
668.366	1	3
668.536	1	6
668.705	1	2
668.874	1	-2
669.044	1	-1
669.213	1	3
669.382	1	-3
669.552	1	5
669.721	1	-13
669.891	1	10
670.060	1	3
670.229	1	-2
670.399	1	2
670.568	1	7
670.738	1	2
670.907	1	-6
671.076	1	11
671.246	1	5
671.415	1	-1
671.584	1	0
671.754	1	-4
671.923	1	-7
672.093	1	-1
672.262	1	-4
672.431	1	0
672.601	1	-1
672.770	1	-2
672.939	1	4
673.109	1	0
673.278	1	-1
673.448	1	-2
673.617	1	12
673.786	1	0
