325.333	1	6
325.504	1	12
325.675	1	3
325.846	1	7
326.017	1	2
326.188	1	11
326.359	1	11
326.531	1	-6
326.702	1	2
326.873	1	11
327.044	1	-8
327.215	1	-5
327.386	1	4
327.557	1	4
327.728	1	6
327.899	1	-7
328.070	1	7
328.241	1	6
328.412	1	1
328.583	1	-3
328.754	1	3
328.926	1	4
329.097	1	1
329.268	1	3
329.439	1	0
329.610	1	0
329.781	1	-5
329.952	1	14
330.123	1	-3
330.294	1	7
330.465	1	-8
330.636	1	9
330.807	1	-6
330.978	1	-2
331.149	1	5
331.320	1	-5
331.492	1	-3
331.663	1	-7
331.834	1	17
332.005	1	5
332.176	1	-1
332.347	1	0
332.518	1	6
332.689	1	7
332.860	1	3
333.031	1	5
333.202	1	-3
333.373	1	-5
333.544	1	-8
333.715	1	6
333.886	1	-4
334.057	1	-5
334.228	1	-1
334.399	1	4
334.570	1	-5
334.741	1	-3
334.912	1	-11
335.084	1	2
335.255	1	6
335.426	1	6
335.597	1	-4
335.768	1	1
335.939	1	-2
336.110	1	-7
336.281	1	-13
336.452	1	4
336.623	1	0
336.794	1	1
336.965	1	-4
337.136	1	-1
337.307	1	13
337.478	1	8
337.649	1	11
337.820	1	15
337.991	1	16
338.162	1	-5
338.333	1	4
338.504	1	-4
338.675	1	15
338.846	1	1
339.017	1	0
339.188	1	4
339.359	1	2
339.530	1	5
339.701	1	-4
339.872	1	-3
340.043	1	9
340.214	1	7
340.385	1	3
340.556	1	-9
340.727	1	-1
340.898	1	-3
341.069	1	6
341.240	1	-7
341.411	1	0
341.582	1	0
341.753	1	-6
341.924	1	1
342.095	1	-4
342.266	1	-2
342.437	1	9
342.608	1	-3
342.779	1	2
342.950	1	1
343.121	1	9
343.292	1	-5
343.463	1	-4
343.634	1	-5
343.805	1	5
343.976	1	-1
344.147	1	1
344.318	1	9
344.489	1	-16
344.660	1	15
344.831	1	-4
345.002	1	-4
345.173	1	4
345.344	1	-6
345.515	1	-3
345.686	1	8
345.857	1	3
346.028	1	0
346.199	1	-3
346.370	1	0
346.541	1	-2
346.712	1	3
346.883	1	0
347.054	1	-6
347.225	1	-3
347.396	1	6
347.567	1	7
347.738	1	8
347.909	1	6
348.080	1	-6
348.251	1	6
348.422	1	-1
348.593	1	-5
348.764	1	-6
348.935	1	1
349.106	1	8
349.277	1	-10
349.448	1	-5
349.619	1	9
349.790	1	3
349.961	1	13
350.132	1	-1
350.303	1	-8
350.474	1	-2
350.645	1	2
350.816	1	-6
350.987	1	0
351.157	1	5
351.328	1	6
351.499	1	3
351.670	1	6
351.841	1	8
352.012	1	-10
352.183	1	-4
352.354	1	1
352.525	1	9
352.696	1	-7
352.867	1	-6
353.038	1	13
353.209	1	10
353.380	1	0
353.551	1	-7
353.722	1	-3
353.893	1	7
354.064	1	-5
354.235	1	4
354.406	1	-4
354.576	1	5
354.747	1	1
354.918	1	-7
355.089	1	-4
355.260	1	-5
355.431	1	6
355.602	1	11
355.773	1	-13
355.944	1	2
356.115	1	-3
356.286	1	2
356.457	1	-5
356.628	1	-1
356.799	1	5
356.970	1	-4
357.141	1	-8
357.311	1	3
357.482	1	-6
357.653	1	7
357.824	1	-2
357.995	1	4
358.166	1	-2
358.337	1	6
358.508	1	-3
358.679	1	15
358.850	1	-3
359.021	1	-9
359.192	1	5
359.363	1	9
359.533	1	-4
359.704	1	8
359.875	1	4
360.046	1	-5
360.217	1	8
360.388	1	3
360.559	1	1
360.730	1	-1
360.901	1	10
361.072	1	-8
361.243	1	2
361.414	1	1
361.584	1	8
361.755	1	7
361.926	1	14
362.097	1	2
362.268	1	1
362.439	1	2
362.610	1	-2
362.781	1	-1
362.952	1	9
363.123	1	-3
363.293	1	4
363.464	1	15
363.635	1	-2
363.806	1	2
363.977	1	-3
364.148	1	-10
364.319	1	-6
364.490	1	-7
364.661	1	5
364.832	1	-7
365.002	1	7
365.173	1	0
365.344	1	-8
365.515	1	-5
365.686	1	3
365.857	1	0
366.028	1	-1
366.199	1	-1
366.370	1	9
366.540	1	3
366.711	1	3
366.882	1	-4
367.053	1	5
367.224	1	7
367.395	1	7
367.566	1	8
367.737	1	-9
367.908	1	2
368.078	1	9
368.249	1	3
368.420	1	-3
368.591	1	19
368.762	1	-5
368.933	1	8
369.104	1	4
369.274	1	7
369.445	1	3
369.616	1	-10
369.787	1	8
369.958	1	-4
370.129	1	-8
370.300	1	-3
370.471	1	9
370.641	1	2
370.812	1	2
370.983	1	7
371.154	1	9
371.325	1	-2
371.496	1	-9
371.667	1	-1
371.837	1	-2
372.008	1	-6
372.179	1	7
372.350	1	-2
372.521	1	-1
372.692	1	4
372.863	1	-6
373.033	1	4
373.204	1	9
373.375	1	-5
373.546	1	-4
373.717	1	-2
373.888	1	-5
374.059	1	4
374.229	1	-4
374.400	1	4
374.571	1	-3
374.742	1	2
374.913	1	-11
375.084	1	-2
375.254	1	7
375.425	1	-9
375.596	1	-14
375.767	1	-4
375.938	1	1
376.109	1	-15
376.279	1	-9
376.450	1	-1
376.621	1	16
376.792	1	7
376.963	1	12
377.134	1	-2
377.304	1	6
377.475	1	2
377.646	1	8
377.817	1	10
377.988	1	-2
378.159	1	-2
378.329	1	5
378.500	1	-7
378.671	1	-5
378.842	1	-2
379.013	1	-3
379.184	1	-1
379.354	1	3
379.525	1	8
379.696	1	-2
379.867	1	10
380.038	1	5
380.209	1	8
380.379	1	1
380.550	1	-1
380.721	1	9
380.892	1	-7
381.063	1	-2
381.233	1	3
381.404	1	-1
381.575	1	-1
381.746	1	10
381.917	1	-8
382.087	1	4
382.258	1	16
382.429	1	-2
382.600	1	5
382.771	1	2
382.941	1	6
383.112	1	2
383.283	1	-3
383.454	1	4
383.625	1	-3
383.795	1	11
383.966	1	-4
384.137	1	-6
384.308	1	8
384.479	1	7
384.649	1	-4
384.820	1	-10
384.991	1	6
385.162	1	-2
385.333	1	15
385.503	1	-6
385.674	1	-3
385.845	1	-7
386.016	1	5
386.187	1	10
386.357	1	-4
386.528	1	7
386.699	1	17
386.870	1	2
387.041	1	-2
387.211	1	1
387.382	1	-7
387.553	1	4
387.724	1	-4
387.894	1	8
388.065	1	5
388.236	1	6
388.407	1	1
388.578	1	0
388.748	1	7
388.919	1	-5
389.090	1	10
389.261	1	-11
389.431	1	5
389.602	1	-1
389.773	1	-1
389.944	1	-4
390.114	1	3
390.285	1	-5
390.456	1	9
390.627	1	-10
390.798	1	3
390.968	1	-2
391.139	1	-9
391.310	1	5
391.481	1	-2
391.651	1	3
391.822	1	1
391.993	1	0
392.164	1	-5
392.334	1	2
392.505	1	1
392.676	1	11
392.847	1	6
393.017	1	-14
393.188	1	-3
393.359	1	4
393.530	1	-6
393.700	1	6
393.871	1	-12
394.042	1	11
394.213	1	2
394.383	1	-3
394.554	1	1
394.725	1	1
394.896	1	-3
395.066	1	-4
395.237	1	1
395.408	1	-5
395.579	1	7
395.749	1	2
395.920	1	2
396.091	1	5
396.262	1	2
396.432	1	-10
396.603	1	5
396.774	1	-4
396.945	1	2
397.115	1	5
397.286	1	10
397.457	1	0
397.627	1	-8
397.798	1	-1
397.969	1	8
398.140	1	-1
398.310	1	-1
398.481	1	-12
398.652	1	-1
398.823	1	11
398.993	1	2
399.164	1	14
399.335	1	-4
399.505	1	9
399.676	1	2
399.847	1	-1
400.018	1	-2
400.188	1	9
400.359	1	2
400.530	1	6
400.700	1	-4
400.871	1	-12
401.042	1	-5
401.213	1	4
401.383	1	6
401.554	1	1
401.725	1	-4
401.895	1	7
402.066	1	9
402.237	1	9
402.408	1	2
402.578	1	4
402.749	1	-2
402.920	1	-10
403.090	1	-2
403.261	1	1
403.432	1	0
403.603	1	10
403.773	1	-3
403.944	1	4
404.115	1	-17
404.285	1	-7
404.456	1	6
404.627	1	-2
404.797	1	12
404.968	1	-2
405.139	1	-1
405.310	1	-6
405.480	1	10
405.651	1	-6
405.822	1	-1
405.992	1	-7
406.163	1	4
406.334	1	0
406.504	1	-7
406.675	1	13
406.846	1	8
407.016	1	-2
407.187	1	-3
407.358	1	-2
407.528	1	0
407.699	1	7
407.870	1	8
408.041	1	3
408.211	1	-1
408.382	1	7
408.553	1	1
408.723	1	-9
408.894	1	-10
409.065	1	9
409.235	1	-7
409.406	1	7
409.577	1	8
409.747	1	1
409.918	1	-3
410.089	1	3
410.259	1	-11
410.430	1	17
410.601	1	-10
410.771	1	-6
410.942	1	2
411.113	1	8
411.283	1	-5
411.454	1	-4
411.625	1	-10
411.795	1	12
411.966	1	-10
412.137	1	-3
412.307	1	2
412.478	1	13
412.649	1	5
412.819	1	0
412.990	1	11
413.161	1	4
413.331	1	-14
413.502	1	9
413.672	1	2
413.843	1	-3
414.014	1	16
414.184	1	-10
414.355	1	-4
414.526	1	-4
414.696	1	1
414.867	1	9
415.038	1	9
415.208	1	2
415.379	1	7
415.550	1	-1
415.720	1	6
415.891	1	5
416.062	1	-4
416.232	1	0
416.403	1	1
416.573	1	-6
416.744	1	0
416.915	1	-1
417.085	1	-3
417.256	1	6
417.427	1	2
417.597	1	-10
417.768	1	-4
417.939	1	-2
418.109	1	6
418.280	1	-6
418.450	1	-6
418.621	1	4
418.792	1	3
418.962	1	7
419.133	1	-3
419.304	1	3
419.474	1	-7
419.645	1	12
419.815	1	-2
419.986	1	11
420.157	1	-3
420.327	1	0
420.498	1	5
420.669	1	11
420.839	1	7
421.010	1	6
421.180	1	1
421.351	1	3
421.522	1	14
421.692	1	-7
421.863	1	-6
422.033	1	-17
422.204	1	-10
422.375	1	-1
422.545	1	14
422.716	1	-7
422.886	1	-1
423.057	1	2
423.228	1	-9
423.398	1	5
423.569	1	3
423.740	1	-3
423.910	1	-5
424.081	1	4
424.251	1	-1
424.422	1	6
424.593	1	6
424.763	1	0
424.934	1	-3
425.104	1	1
425.275	1	-9
425.445	1	4
425.616	1	-2
425.787	1	-12
425.957	1	7
426.128	1	7
426.298	1	4
426.469	1	-3
426.640	1	6
426.810	1	7
426.981	1	0
427.151	1	6
427.322	1	8
427.493	1	-3
427.663	1	4
427.834	1	-6
428.004	1	4
428.175	1	-8
428.345	1	16
428.516	1	2
428.687	1	1
428.857	1	-3
429.028	1	-6
429.198	1	-4
429.369	1	5
429.540	1	10
429.710	1	0
429.881	1	11
430.051	1	4
430.222	1	3
430.392	1	2
430.563	1	9
430.734	1	-3
430.904	1	-3
431.075	1	10
431.245	1	6
431.416	1	-2
431.586	1	1
431.757	1	5
431.927	1	1
432.098	1	-10
432.269	1	-1
432.439	1	-11
432.610	1	1
432.780	1	-6
432.951	1	-2
433.121	1	8
433.292	1	6
433.462	1	1
433.633	1	-5
433.804	1	-19
433.974	1	-1
434.145	1	-1
434.315	1	3
434.486	1	0
434.656	1	5
434.827	1	0
434.997	1	-2
435.168	1	-5
435.339	1	6
435.509	1	1
435.680	1	-10
435.850	1	-8
436.021	1	6
436.191	1	-6
436.362	1	-4
436.532	1	10
436.703	1	10
436.873	1	-3
437.044	1	-3
437.214	1	2
437.385	1	4
437.556	1	1
437.726	1	-3
437.897	1	3
438.067	1	12
438.238	1	-2
438.408	1	-1
438.579	1	7
438.749	1	4
438.920	1	0
439.090	1	10
439.261	1	-3
439.431	1	-1
439.602	1	7
439.772	1	8
439.943	1	10
440.113	1	-5
440.284	1	3
440.455	1	-6
440.625	1	1
440.796	1	3
440.966	1	5
441.137	1	-7
441.307	1	-1
441.478	1	13
441.648	1	-6
441.819	1	12
441.989	1	-5
442.160	1	6
442.330	1	0
442.501	1	-10
442.671	1	6
442.842	1	2
443.012	1	5
443.183	1	-10
443.353	1	2
443.524	1	8
443.694	1	3
443.865	1	0
444.035	1	-2
444.206	1	-6
444.376	1	5
444.547	1	-4
444.717	1	8
444.888	1	-11
445.058	1	8
445.229	1	2
445.399	1	-4
445.570	1	5
445.740	1	-1
445.911	1	11
446.081	1	7
446.252	1	-2
446.422	1	-4
446.593	1	-2
446.763	1	12
446.934	1	4
447.104	1	-2
447.275	1	-2
447.445	1	0
447.616	1	-8
447.786	1	7
447.957	1	0
448.127	1	-5
448.298	1	3
448.468	1	11
448.639	1	0
448.809	1	-2
448.979	1	6
449.150	1	6
449.320	1	-3
449.491	1	0
449.661	1	1
449.832	1	-7
450.002	1	-1
450.173	1	-7
450.343	1	-2
450.514	1	8
450.684	1	-12
450.855	1	10
451.025	1	3
451.196	1	-8
451.366	1	1
451.537	1	-8
451.707	1	-7
451.878	1	-5
452.048	1	-10
452.218	1	-1
452.389	1	-3
452.559	1	-7
452.730	1	13
452.900	1	7
453.071	1	3
453.241	1	-11
453.412	1	-1
453.582	1	3
453.753	1	-6
453.923	1	2
454.093	1	11
454.264	1	-4
454.434	1	-2
454.605	1	5
454.775	1	8
454.946	1	-4
455.116	1	4
455.287	1	13
455.457	1	-6
455.628	1	-1
455.798	1	-11
455.968	1	5
456.139	1	-1
456.309	1	-13
456.480	1	1
456.650	1	2
456.821	1	-4
456.991	1	1
457.161	1	9
457.332	1	7
457.502	1	-1
457.673	1	-6
457.843	1	2
458.014	1	4
458.184	1	1
458.355	1	5
458.525	1	-2
458.695	1	9
458.866	1	-1
459.036	1	7
459.207	1	-1
459.377	1	-2
459.548	1	-5
459.718	1	-8
459.888	1	11
460.059	1	4
460.229	1	16
460.400	1	8
460.570	1	-13
460.740	1	0
460.911	1	16
461.081	1	3
461.252	1	-1
461.422	1	3
461.593	1	3
461.763	1	3
461.933	1	-13
462.104	1	0
462.274	1	6
462.445	1	-9
462.615	1	-3
462.785	1	-9
462.956	1	-1
463.126	1	-7
463.297	1	-9
463.467	1	-1
463.638	1	5
463.808	1	2
463.978	1	4
464.149	1	-6
464.319	1	0
464.490	1	-6
464.660	1	5
464.830	1	-6
465.001	1	4
465.171	1	-1
465.342	1	-3
465.512	1	2
465.682	1	0
465.853	1	-1
466.023	1	3
466.194	1	7
466.364	1	11
466.534	1	-1
466.705	1	8
466.875	1	-6
467.045	1	1
467.216	1	-9
467.386	1	-8
467.557	1	6
467.727	1	4
467.897	1	2
468.068	1	5
468.238	1	-12
468.409	1	-1
468.579	1	4
468.749	1	-5
468.920	1	-4
469.090	1	18
469.260	1	9
469.431	1	10
469.601	1	4
469.772	1	-6
469.942	1	0
470.112	1	2
470.283	1	15
470.453	1	4
470.623	1	6
470.794	1	7
470.964	1	-13
471.135	1	-4
471.305	1	6
471.475	1	-2
471.646	1	14
471.816	1	-2
471.986	1	-2
472.157	1	3
472.327	1	0
472.497	1	-10
472.668	1	-7
472.838	1	10
473.009	1	-1
473.179	1	7
473.349	1	3
473.520	1	15
473.690	1	4
473.860	1	7
474.031	1	-5
474.201	1	0
474.371	1	5
474.542	1	-11
474.712	1	7
474.882	1	0
475.053	1	-15
475.223	1	3
475.394	1	2
475.564	1	17
475.734	1	-2
475.905	1	3
476.075	1	3
476.245	1	-1
476.416	1	-7
476.586	1	-5
476.756	1	-3
476.927	1	12
477.097	1	2
477.267	1	-6
477.438	1	6
477.608	1	2
477.778	1	6
477.949	1	-3
478.119	1	14
478.289	1	-1
478.460	1	-14
478.630	1	-9
478.800	1	1
478.971	1	3
479.141	1	-3
479.311	1	5
479.482	1	-5
479.652	1	7
479.822	1	-11
479.993	1	-10
480.163	1	-5
480.333	1	-4
480.504	1	-6
480.674	1	3
480.844	1	1
481.015	1	-10
481.185	1	2
481.355	1	10
481.525	1	-6
481.696	1	-2
481.866	1	-9
482.036	1	-8
482.207	1	10
482.377	1	1
482.547	1	-5
482.718	1	9
482.888	1	0
483.058	1	-1
483.229	1	8
483.399	1	-1
483.569	1	6
483.740	1	-9
483.910	1	3
484.080	1	-6
484.250	1	-1
484.421	1	-4
484.591	1	6
484.761	1	-7
484.932	1	10
485.102	1	6
485.272	1	8
485.443	1	8
485.613	1	-18
485.783	1	10
485.953	1	-2
486.124	1	-2
486.294	1	8
486.464	1	-1
486.635	1	4
486.805	1	7
486.975	1	-16
487.146	1	1
487.316	1	8
487.486	1	7
487.656	1	-6
487.827	1	1
487.997	1	4
488.167	1	-2
488.338	1	14
488.508	1	6
488.678	1	-1
488.848	1	-2
489.019	1	3
489.189	1	-2
489.359	1	-3
489.529	1	-6
489.700	1	4
489.870	1	-9
490.040	1	7
490.211	1	8
490.381	1	6
490.551	1	-4
490.721	1	8
490.892	1	8
491.062	1	9
491.232	1	5
491.402	1	-7
491.573	1	4
491.743	1	6
491.913	1	-1
492.084	1	8
492.254	1	-2
492.424	1	1
492.594	1	6
492.765	1	4
492.935	1	-2
493.105	1	11
493.275	1	7
493.446	1	-4
493.616	1	5
493.786	1	-3
493.956	1	3
494.127	1	-1
494.297	1	-4
494.467	1	-5
494.637	1	0
494.808	1	0
494.978	1	2
495.148	1	11
495.318	1	9
495.489	1	2
495.659	1	10
495.829	1	2
495.999	1	-1
496.170	1	-7
496.340	1	4
496.510	1	4
496.680	1	7
496.851	1	6
497.021	1	-4
497.191	1	-3
497.361	1	2
497.532	1	1
497.702	1	1
497.872	1	2
498.042	1	-1
498.213	1	2
498.383	1	-8
498.553	1	9
498.723	1	5
498.894	1	-6
499.064	1	15
499.234	1	-4
499.404	1	4
499.574	1	1
499.745	1	3
499.915	1	4
500.085	1	-5
500.255	1	6
500.426	1	-7
500.596	1	0
500.766	1	2
500.936	1	-13
501.106	1	-2
501.277	1	4
501.447	1	-9
501.617	1	5
501.787	1	-4
501.958	1	4
502.128	1	-6
502.298	1	6
502.468	1	14
502.638	1	3
502.809	1	6
502.979	1	-6
503.149	1	-4
503.319	1	2
503.489	1	1
503.660	1	-8
503.830	1	-1
504.000	1	-6
504.170	1	5
504.340	1	3
504.511	1	5
504.681	1	-4
504.851	1	0
505.021	1	-3
505.192	1	-2
505.362	1	-2
505.532	1	1
505.702	1	-2
505.872	1	-17
506.043	1	4
506.213	1	0
506.383	1	4
506.553	1	8
506.723	1	11
506.893	1	-1
507.064	1	-12
507.234	1	4
507.404	1	4
507.574	1	-3
507.744	1	-12
507.915	1	2
508.085	1	14
508.255	1	16
508.425	1	10
508.595	1	-3
508.766	1	-6
508.936	1	-5
509.106	1	-4
509.276	1	0
509.446	1	-1
509.616	1	3
509.787	1	-5
509.957	1	5
510.127	1	6
510.297	1	-3
510.467	1	-2
510.638	1	-1
510.808	1	4
510.978	1	-10
511.148	1	4
511.318	1	1
511.488	1	9
511.659	1	-4
511.829	1	3
511.999	1	6
512.169	1	2
512.339	1	2
512.509	1	1
512.680	1	4
512.850	1	5
513.020	1	9
513.190	1	4
513.360	1	0
513.530	1	-3
513.700	1	6
513.871	1	2
514.041	1	-2
514.211	1	-3
514.381	1	-6
514.551	1	-8
514.721	1	1
514.892	1	-3
515.062	1	7
515.232	1	10
515.402	1	-5
515.572	1	-5
515.742	1	11
515.912	1	10
516.083	1	-1
516.253	1	-2
516.423	1	13
516.593	1	-2
516.763	1	-6
516.933	1	-6
517.104	1	3
517.274	1	3
517.444	1	3
517.614	1	-2
517.784	1	1
517.954	1	-10
518.124	1	8
518.294	1	1
518.465	1	-4
518.635	1	-3
518.805	1	7
518.975	1	-2
519.145	1	2
519.315	1	-4
519.485	1	-3
519.656	1	4
519.826	1	-4
519.996	1	16
520.166	1	-3
520.336	1	-9
520.506	1	2
520.676	1	-6
520.846	1	1
521.017	1	-6
521.187	1	1
521.357	1	2
521.527	1	8
521.697	1	1
521.867	1	3
522.037	1	0
522.207	1	2
522.377	1	1
522.548	1	-3
522.718	1	-9
522.888	1	2
523.058	1	13
523.228	1	11
523.398	1	-3
523.568	1	-8
523.738	1	-6
523.909	1	-3
524.079	1	6
524.249	1	-3
524.419	1	0
524.589	1	6
524.759	1	-7
524.929	1	-1
525.099	1	-1
525.269	1	6
525.439	1	0
525.610	1	0
525.780	1	7
525.950	1	-8
526.120	1	-6
526.290	1	-6
526.460	1	9
526.630	1	7
526.800	1	9
526.970	1	-6
527.140	1	-5
527.311	1	1
527.481	1	5
527.651	1	12
527.821	1	2
527.991	1	3
528.161	1	1
528.331	1	-1
528.501	1	-13
528.671	1	0
528.841	1	7
529.011	1	-11
529.181	1	-4
529.352	1	7
529.522	1	2
529.692	1	13
529.862	1	-5
530.032	1	-8
530.202	1	-2
530.372	1	-14
530.542	1	8
530.712	1	14
530.882	1	-11
531.052	1	4
531.222	1	-5
531.392	1	-3
531.563	1	4
531.733	1	10
531.903	1	13
532.073	1	-1
532.243	1	1
532.413	1	2
532.583	1	-5
532.753	1	0
532.923	1	10
533.093	1	8
533.263	1	3
533.433	1	1
533.603	1	0
533.773	1	-1
533.943	1	0
534.113	1	4
534.284	1	1
534.454	1	-2
534.624	1	6
534.794	1	4
534.964	1	-5
535.134	1	-5
535.304	1	7
535.474	1	-3
535.644	1	9
535.814	1	0
535.984	1	3
536.154	1	0
536.324	1	4
536.494	1	-1
536.664	1	8
536.834	1	-8
537.004	1	12
537.174	1	2
537.344	1	-2
537.514	1	6
537.685	1	5
537.855	1	3
538.025	1	3
538.195	1	4
538.365	1	14
538.535	1	14
538.705	1	-6
538.875	1	-4
539.045	1	5
539.215	1	-11
539.385	1	-5
539.555	1	-6
539.725	1	7
539.895	1	12
540.065	1	-6
540.235	1	-10
540.405	1	-6
540.575	1	0
540.745	1	5
540.915	1	2
541.085	1	-3
541.255	1	-7
541.425	1	7
541.595	1	0
541.765	1	5
541.935	1	7
542.105	1	0
542.275	1	-4
542.445	1	6
542.615	1	-2
542.785	1	-1
542.955	1	8
543.125	1	-8
543.295	1	8
543.465	1	9
543.635	1	-3
543.805	1	7
543.975	1	-11
544.145	1	-9
544.315	1	-7
544.485	1	-1
544.655	1	-3
544.825	1	5
544.995	1	3
545.165	1	11
545.335	1	-1
545.505	1	-1
545.675	1	0
545.845	1	-3
546.015	1	5
546.185	1	3
546.355	1	7
546.525	1	10
546.695	1	-8
546.865	1	-7
547.035	1	6
547.205	1	2
547.375	1	7
547.545	1	-2
547.715	1	9
547.885	1	-2
548.055	1	1
548.225	1	-4
548.395	1	10
548.565	1	1
548.735	1	8
548.905	1	-11
549.075	1	-4
549.245	1	3
549.415	1	1
549.585	1	-4
549.755	1	-9
549.925	1	-5
550.095	1	12
550.265	1	-10
550.435	1	9
550.605	1	-1
550.775	1	-13
550.945	1	10
551.115	1	-8
551.285	1	1
551.455	1	6
551.625	1	-8
551.795	1	6
551.965	1	3
552.135	1	-3
552.305	1	-5
552.475	1	-9
552.645	1	3
552.815	1	-1
552.985	1	-4
553.155	1	4
553.325	1	0
553.495	1	-13
553.665	1	4
553.835	1	-4
554.004	1	-4
554.174	1	-6
554.344	1	0
554.514	1	4
554.684	1	3
554.854	1	4
555.024	1	2
555.194	1	12
555.364	1	8
555.534	1	-2
555.704	1	-2
555.874	1	-8
556.044	1	7
556.214	1	-1
556.384	1	1
556.554	1	-2
556.724	1	0
556.894	1	8
557.064	1	-4
557.234	1	-2
557.404	1	0
557.573	1	-1
557.743	1	9
557.913	1	3
558.083	1	-11
558.253	1	-9
558.423	1	-9
558.593	1	4
558.763	1	-2
558.933	1	6
559.103	1	-1
559.273	1	4
559.443	1	2
559.613	1	5
559.783	1	-6
559.953	1	-4
560.122	1	-12
560.292	1	3
560.462	1	2
560.632	1	4
560.802	1	7
560.972	1	14
561.142	1	7
561.312	1	6
561.482	1	2
561.652	1	2
561.822	1	-1
561.992	1	12
562.162	1	3
562.331	1	7
562.501	1	-3
562.671	1	5
562.841	1	-9
563.011	1	0
563.181	1	1
563.351	1	-4
563.521	1	0
563.691	1	-4
563.861	1	3
564.031	1	12
564.201	1	4
564.370	1	5
564.540	1	4
564.710	1	-7
564.880	1	6
565.050	1	-7
565.220	1	2
565.390	1	-10
565.560	1	10
565.730	1	13
565.900	1	10
566.069	1	3
566.239	1	-1
566.409	1	-4
566.579	1	8
566.749	1	4
566.919	1	5
567.089	1	6
567.259	1	12
567.429	1	10
567.599	1	-3
567.768	1	2
567.938	1	-4
568.108	1	-5
568.278	1	-11
568.448	1	-15
568.618	1	1
568.788	1	-7
568.958	1	-3
569.128	1	5
569.297	1	3
569.467	1	-7
569.637	1	1
569.807	1	-6
569.977	1	-3
570.147	1	-1
570.317	1	16
570.487	1	0
570.656	1	0
570.826	1	1
570.996	1	-8
571.166	1	-7
571.336	1	7
571.506	1	-5
571.676	1	6
571.846	1	2
572.015	1	3
572.185	1	-6
572.355	1	19
572.525	1	1
572.695	1	1
572.865	1	1
573.035	1	-6
573.205	1	15
573.374	1	0
573.544	1	-10
573.714	1	8
573.884	1	1
574.054	1	-5
574.224	1	5
574.394	1	-3
574.563	1	-2
574.733	1	-1
574.903	1	3
575.073	1	2
575.243	1	-6
575.413	1	2
575.583	1	1
575.752	1	6
575.922	1	-4
576.092	1	3
576.262	1	-3
576.432	1	-11
576.602	1	-5
576.772	1	4
576.941	1	6
577.111	1	-1
577.281	1	-2
577.451	1	-3
577.621	1	0
577.791	1	3
577.960	1	-15
578.130	1	-6
578.300	1	4
578.470	1	-2
578.640	1	-9
578.810	1	-2
578.979	1	8
579.149	1	-1
579.319	1	8
579.489	1	-1
579.659	1	13
579.829	1	0
579.998	1	2
580.168	1	-2
580.338	1	-26
580.508	1	-1
580.678	1	-7
580.848	1	0
581.017	1	10
581.187	1	-2
581.357	1	-4
581.527	1	2
581.697	1	-4
581.867	1	-4
582.036	1	6
582.206	1	-10
582.376	1	4
582.546	1	5
582.716	1	12
582.885	1	-5
583.055	1	-2
583.225	1	4
583.395	1	1
583.565	1	8
583.735	1	-3
583.904	1	2
584.074	1	-5
584.244	1	3
584.414	1	-3
584.584	1	13
584.753	1	-4
584.923	1	-3
585.093	1	7
585.263	1	0
585.433	1	1
585.602	1	8
585.772	1	3
585.942	1	6
586.112	1	10
586.282	1	-5
586.451	1	-4
586.621	1	3
586.791	1	-1
586.961	1	-15
587.131	1	3
587.300	1	-2
587.470	1	0
587.640	1	-10
587.810	1	1
587.980	1	10
588.149	1	4
588.319	1	-4
588.489	1	5
588.659	1	-1
588.829	1	2
588.998	1	-8
589.168	1	11
589.338	1	0
589.508	1	4
589.677	1	-1
589.847	1	6
590.017	1	-13
590.187	1	-2
590.357	1	-3
590.526	1	2
590.696	1	-4
590.866	1	6
591.036	1	10
591.205	1	-4
591.375	1	0
591.545	1	-1
591.715	1	-4
591.885	1	6
592.054	1	-1
592.224	1	7
592.394	1	5
592.564	1	-5
592.733	1	-1
592.903	1	1
593.073	1	2
593.243	1	-1
593.412	1	-3
593.582	1	17
593.752	1	2
593.922	1	5
594.091	1	0
594.261	1	3
594.431	1	2
594.601	1	-7
594.771	1	4
594.940	1	0
595.110	1	6
595.280	1	5
595.450	1	-1
595.619	1	5
595.789	1	4
595.959	1	4
596.129	1	-2
596.298	1	11
596.468	1	1
596.638	1	9
596.808	1	7
596.977	1	-2
597.147	1	8
597.317	1	5
597.487	1	-2
597.656	1	2
597.826	1	10
597.996	1	7
598.166	1	-7
598.335	1	-3
598.505	1	1
598.675	1	3
598.844	1	-8
599.014	1	5
599.184	1	-9
599.354	1	-17
599.523	1	2
599.693	1	11
599.863	1	12
600.033	1	-2
600.202	1	3
600.372	1	-3
600.542	1	3
600.712	1	5
600.881	1	6
601.051	1	6
601.221	1	-1
601.390	1	-1
601.560	1	-9
601.730	1	4
601.900	1	0
602.069	1	-8
602.239	1	-4
602.409	1	-3
602.578	1	2
602.748	1	-4
602.918	1	-2
603.088	1	2
603.257	1	3
603.427	1	-1
603.597	1	16
603.767	1	-2
603.936	1	4
604.106	1	2
604.276	1	4
604.445	1	13
604.615	1	1
604.785	1	0
604.954	1	2
605.124	1	-13
605.294	1	-2
605.464	1	0
605.633	1	5
605.803	1	-1
605.973	1	1
606.142	1	3
606.312	1	0
606.482	1	-6
606.652	1	1
606.821	1	5
606.991	1	0
607.161	1	-3
607.330	1	5
607.500	1	1
607.670	1	5
607.839	1	3
608.009	1	-5
608.179	1	2
608.348	1	6
608.518	1	6
608.688	1	5
608.858	1	-4
609.027	1	3
609.197	1	-8
609.367	1	-8
609.536	1	1
609.706	1	8
609.876	1	1
610.045	1	-2
610.215	1	-11
610.385	1	0
610.554	1	-4
610.724	1	1
610.894	1	4
611.063	1	10
611.233	1	-4
611.403	1	5
611.572	1	0
611.742	1	0
611.912	1	-4
612.081	1	-3
612.251	1	-1
612.421	1	11
612.590	1	1
612.760	1	-2
612.930	1	7
613.099	1	-8
613.269	1	-2
613.439	1	-1
613.608	1	7
613.778	1	4
613.948	1	3
614.117	1	4
614.287	1	-10
614.457	1	-3
614.626	1	9
614.796	1	10
614.966	1	2
615.135	1	-3
615.305	1	1
615.475	1	7
615.644	1	-5
615.814	1	12
615.984	1	14
616.153	1	4
616.323	1	-6
616.493	1	5
616.662	1	2
616.832	1	-4
617.002	1	-11
617.171	1	-3
617.341	1	9
617.511	1	3
617.680	1	4
617.850	1	-3
618.019	1	2
618.189	1	1
618.359	1	4
618.528	1	-1
618.698	1	9
618.868	1	7
619.037	1	10
619.207	1	-9
619.377	1	-16
619.546	1	3
619.716	1	-10
619.885	1	4
620.055	1	6
620.225	1	9
620.394	1	-4
620.564	1	-6
620.734	1	3
620.903	1	0
621.073	1	-1
621.242	1	-5
621.412	1	2
621.582	1	5
621.751	1	-1
621.921	1	4
622.091	1	-4
622.260	1	-3
622.430	1	1
622.599	1	7
622.769	1	4
622.939	1	0
623.108	1	0
623.278	1	4
623.448	1	6
623.617	1	7
623.787	1	5
623.956	1	-6
624.126	1	5
624.296	1	1
624.465	1	3
624.635	1	12
624.804	1	-3
624.974	1	-7
625.144	1	-1
625.313	1	2
625.483	1	11
625.652	1	5
625.822	1	7
625.992	1	-7
626.161	1	15
626.331	1	0
626.501	1	1
626.670	1	-1
626.840	1	0
627.009	1	-10
627.179	1	3
627.348	1	-4
627.518	1	3
627.688	1	0
627.857	1	16
628.027	1	3
628.196	1	7
628.366	1	3
628.536	1	3
628.705	1	2
628.875	1	9
629.044	1	-2
629.214	1	2
629.384	1	-19
629.553	1	1
629.723	1	10
629.892	1	12
630.062	1	4
630.232	1	18
630.401	1	-4
630.571	1	5
630.740	1	8
630.910	1	-2
631.079	1	11
631.249	1	-8
631.419	1	-7
631.588	1	-1
631.758	1	-5
631.927	1	-3
632.097	1	9
632.266	1	-9
632.436	1	-9
632.606	1	2
632.775	1	2
632.945	1	-4
633.114	1	4
633.284	1	-10
633.453	1	5
633.623	1	1
633.793	1	-10
633.962	1	1
634.132	1	3
634.301	1	-7
634.471	1	-8
634.640	1	5
634.810	1	-8
634.979	1	12
635.149	1	-1
635.319	1	0
635.488	1	5
635.658	1	-4
635.827	1	3
635.997	1	1
636.166	1	-2
636.336	1	9
636.505	1	-8
636.675	1	-2
636.845	1	9
637.014	1	1
637.184	1	0
637.353	1	-3
637.523	1	2
637.692	1	3
637.862	1	-7
638.031	1	11
638.201	1	4
638.370	1	-5
638.540	1	-8
638.710	1	-2
638.879	1	-8
639.049	1	4
639.218	1	6
639.388	1	0
639.557	1	10
639.727	1	2
639.896	1	6
640.066	1	5
640.235	1	-4
640.405	1	1
640.574	1	2
640.744	1	7
640.914	1	-7
641.083	1	7
641.253	1	-2
641.422	1	-9
641.592	1	-5
641.761	1	8
641.931	1	5
642.100	1	-4
642.270	1	-7
642.439	1	-5
642.609	1	8
642.778	1	0
642.948	1	5
643.117	1	3
643.287	1	4
643.456	1	4
643.626	1	8
643.795	1	-3
643.965	1	1
644.134	1	1
644.304	1	-6
644.473	1	6
644.643	1	-1
644.812	1	12
644.982	1	8
645.151	1	-1
645.321	1	9
645.490	1	5
645.660	1	-3
645.829	1	-4
645.999	1	-8
646.168	1	-8
646.338	1	9
646.507	1	4
646.677	1	12
646.846	1	10
647.016	1	-4
647.185	1	-5
647.355	1	5
647.524	1	4
647.694	1	-2
647.863	1	-17
648.033	1	-13
648.202	1	2
648.372	1	3
648.541	1	-2
648.711	1	3
648.880	1	0
649.050	1	3
649.219	1	-1
649.389	1	-6
649.558	1	0
649.728	1	6
649.897	1	-3
650.067	1	-4
650.236	1	4
650.406	1	2
650.575	1	-6
650.745	1	-8
650.914	1	-3
651.084	1	-16
651.253	1	4
651.423	1	4
651.592	1	-4
651.762	1	9
651.931	1	2
652.101	1	2
652.270	1	1
652.440	1	7
652.609	1	2
652.778	1	-6
652.948	1	-3
653.117	1	11
653.287	1	13
653.456	1	2
653.626	1	8
653.795	1	3
653.965	1	11
654.134	1	9
654.304	1	9
654.473	1	-1
654.643	1	12
654.812	1	-2
654.982	1	-7
655.151	1	-7
655.320	1	3
655.490	1	5
655.659	1	2
655.829	1	-1
655.998	1	11
656.168	1	-4
656.337	1	-1
656.507	1	6
656.676	1	2
656.846	1	-5
657.015	1	1
657.184	1	5
657.354	1	-2
657.523	1	3
657.693	1	4
657.862	1	9
658.032	1	14
658.201	1	-8
658.371	1	-14
658.540	1	0
658.709	1	-4
658.879	1	9
659.048	1	7
659.218	1	-6
659.387	1	-17
659.557	1	-2
659.726	1	1
659.895	1	-3
660.065	1	6
660.234	1	3
660.404	1	-2
660.573	1	-2
660.743	1	-2
660.912	1	0
661.081	1	0
661.251	1	-1
661.420	1	-9
661.590	1	3
661.759	1	-7
661.929	1	2
662.098	1	-16
662.267	1	5
662.437	1	9
662.606	1	10
662.776	1	-5
662.945	1	0
663.115	1	-3
663.284	1	-2
663.453	1	-1
663.623	1	5
663.792	1	-1
663.962	1	0
664.131	1	-7
664.300	1	7
664.470	1	4
664.639	1	-5
664.809	1	4
664.978	1	-3
665.148	1	-5
665.317	1	-11
665.486	1	3
665.656	1	-12
665.825	1	2
665.995	1	2
666.164	1	-8
666.333	1	16
666.503	1	0
666.672	1	-12
666.842	1	1
667.011	1	2
667.180	1	0
667.350	1	13
667.519	1	-5
667.689	1	2
667.858	1	4
668.027	1	-6
668.197	1	10
668.366	1	2
668.536	1	5
668.705	1	-3
668.874	1	-7
669.044	1	-4
669.213	1	5
669.382	1	-12
669.552	1	4
669.721	1	-14
669.891	1	-1
670.060	1	6
670.229	1	3
670.399	1	10
670.568	1	3
670.738	1	-1
670.907	1	-7
671.076	1	13
671.246	1	-1
671.415	1	-8
671.584	1	-1
671.754	1	-7
671.923	1	-8
672.093	1	9
672.262	1	18
672.431	1	5
672.601	1	-3
672.770	1	-1
672.939	1	-7
673.109	1	-3
673.278	1	4
673.448	1	0
673.617	1	2
673.786	1	-3
