325.333	1	4
325.504	1	11
325.675	1	-2
325.846	1	-2
326.017	1	4
326.188	1	0
326.359	1	4
326.531	1	-9
326.702	1	-3
326.873	1	9
327.044	1	-6
327.215	1	-3
327.386	1	-4
327.557	1	0
327.728	1	-9
327.899	1	-5
328.070	1	-5
328.241	1	5
328.412	1	9
328.583	1	-6
328.754	1	-6
328.926	1	8
329.097	1	0
329.268	1	1
329.439	1	2
329.610	1	1
329.781	1	-6
329.952	1	0
330.123	1	8
330.294	1	2
330.465	1	-9
330.636	1	4
330.807	1	3
330.978	1	-9
331.149	1	-2
331.320	1	2
331.492	1	-2
331.663	1	-4
331.834	1	10
332.005	1	0
332.176	1	-6
332.347	1	1
332.518	1	5
332.689	1	8
332.860	1	-4
333.031	1	-5
333.202	1	-1
333.373	1	5
333.544	1	0
333.715	1	-1
333.886	1	0
334.057	1	-5
334.228	1	-5
334.399	1	-3
334.570	1	-5
334.741	1	-12
334.912	1	-2
335.084	1	-7
335.255	1	6
335.426	1	-7
335.597	1	-2
335.768	1	-3
335.939	1	-1
336.110	1	-7
336.281	1	-14
336.452	1	-3
336.623	1	6
336.794	1	-7
336.965	1	-5
337.136	1	2
337.307	1	5
337.478	1	4
337.649	1	7
337.820	1	10
337.991	1	7
338.162	1	-1
338.333	1	-6
338.504	1	-7
338.675	1	5
338.846	1	-7
339.017	1	-7
339.188	1	3
339.359	1	-6
339.530	1	1
339.701	1	-1
339.872	1	-6
340.043	1	0
340.214	1	-5
340.385	1	-5
340.556	1	6
340.727	1	-1
340.898	1	-5
341.069	1	-2
341.240	1	2
341.411	1	3
341.582	1	-6
341.753	1	1
341.924	1	-8
342.095	1	-1
342.266	1	-2
342.437	1	5
342.608	1	-7
342.779	1	-3
342.950	1	2
343.121	1	10
343.292	1	-3
343.463	1	-4
343.634	1	-5
343.805	1	1
343.976	1	5
344.147	1	-3
344.318	1	-1
344.489	1	-5
344.660	1	13
344.831	1	-3
345.002	1	-2
345.173	1	-10
345.344	1	-2
345.515	1	-2
345.686	1	10
345.857	1	-8
346.028	1	0
346.199	1	-3
346.370	1	-6
346.541	1	-4
346.712	1	6
346.883	1	-8
347.054	1	-5
347.225	1	-2
347.396	1	-3
347.567	1	-1
347.738	1	-1
347.909	1	10
348.080	1	-10
348.251	1	-1
348.422	1	1
348.593	1	0
348.764	1	0
348.935	1	1
349.106	1	-4
349.277	1	-12
349.448	1	-6
349.619	1	0
349.790	1	-8
349.961	1	0
350.132	1	4
350.303	1	-5
350.474	1	5
350.645	1	-1
350.816	1	-4
350.987	1	-10
351.157	1	7
351.328	1	-3
351.499	1	8
351.670	1	-1
351.841	1	4
352.012	1	-13
352.183	1	-5
352.354	1	-5
352.525	1	-2
352.696	1	4
352.867	1	-8
353.038	1	3
353.209	1	6
353.380	1	6
353.551	1	7
353.722	1	-8
353.893	1	2
354.064	1	7
354.235	1	2
354.406	1	-13
354.576	1	1
354.747	1	-7
354.918	1	-14
355.089	1	4
355.260	1	-4
355.431	1	4
355.602	1	6
355.773	1	-7
355.944	1	3
356.115	1	-6
356.286	1	12
356.457	1	-6
356.628	1	5
356.799	1	1
356.970	1	0
357.141	1	-9
357.311	1	3
357.482	1	-2
357.653	1	1
357.824	1	-6
357.995	1	7
358.166	1	1
358.337	1	-4
358.508	1	1
358.679	1	8
358.850	1	0
359.021	1	-8
359.192	1	13
359.363	1	-1
359.533	1	2
359.704	1	-9
359.875	1	6
360.046	1	-2
360.217	1	14
360.388	1	7
360.559	1	1
360.730	1	6
360.901	1	7
361.072	1	-6
361.243	1	8
361.414	1	3
361.584	1	3
361.755	1	15
361.926	1	9
362.097	1	5
362.268	1	0
362.439	1	-2
362.610	1	-4
362.781	1	4
362.952	1	9
363.123	1	4
363.293	1	4
363.464	1	7
363.635	1	3
363.806	1	11
363.977	1	4
364.148	1	-1
364.319	1	8
364.490	1	-2
364.661	1	2
364.832	1	-1
365.002	1	13
365.173	1	5
365.344	1	-1
365.515	1	1
365.686	1	6
365.857	1	-1
366.028	1	-2
366.199	1	6
366.370	1	7
366.540	1	6
366.711	1	2
366.882	1	10
367.053	1	9
367.224	1	12
367.395	1	6
367.566	1	3
367.737	1	-6
367.908	1	3
368.078	1	10
368.249	1	2
368.420	1	-5
368.591	1	19
368.762	1	-2
368.933	1	6
369.104	1	6
369.274	1	8
369.445	1	-6
369.616	1	-7
369.787	1	5
369.958	1	0
370.129	1	14
370.300	1	-6
370.471	1	7
370.641	1	1
370.812	1	1
370.983	1	2
371.154	1	-4
371.325	1	-7
371.496	1	-8
371.667	1	3
371.837	1	-6
372.008	1	7
372.179	1	6
372.350	1	1
372.521	1	-1
372.692	1	1
372.863	1	0
373.033	1	1
373.204	1	5
373.375	1	5
373.546	1	3
373.717	1	-2
373.888	1	-6
374.059	1	2
374.229	1	-6
374.400	1	5
374.571	1	-1
374.742	1	8
374.913	1	-1
375.084	1	1
375.254	1	-6
375.425	1	-3
375.596	1	-7
375.767	1	-2
375.938	1	4
376.109	1	3
376.279	1	-8
376.450	1	-6
376.621	1	12
376.792	1	4
376.963	1	1
377.134	1	0
377.304	1	-2
377.475	1	11
377.646	1	2
377.817	1	8
377.988	1	0
378.159	1	3
378.329	1	5
378.500	1	-1
378.671	1	2
378.842	1	-2
379.013	1	-10
379.184	1	0
379.354	1	8
379.525	1	11
379.696	1	-4
379.867	1	0
380.038	1	7
380.209	1	6
380.379	1	-1
380.550	1	-1
380.721	1	12
380.892	1	-5
381.063	1	3
381.233	1	7
381.404	1	13
381.575	1	-3
381.746	1	4
381.917	1	-18
382.087	1	3
382.258	1	15
382.429	1	5
382.600	1	3
382.771	1	0
382.941	1	3
383.112	1	5
383.283	1	4
383.454	1	-1
383.625	1	2
383.795	1	3
383.966	1	3
384.137	1	9
384.308	1	12
384.479	1	17
384.649	1	10
384.820	1	3
384.991	1	7
385.162	1	8
385.333	1	14
385.503	1	3
385.674	1	2
385.845	1	11
386.016	1	4
386.187	1	23
386.357	1	14
386.528	1	17
386.699	1	13
386.870	1	22
387.041	1	11
387.211	1	13
387.382	1	2
387.553	1	12
387.724	1	8
387.894	1	21
388.065	1	8
388.236	1	16
388.407	1	12
388.578	1	8
388.748	1	18
388.919	1	5
389.090	1	12
389.261	1	-6
389.431	1	19
389.602	1	13
389.773	1	5
389.944	1	5
390.114	1	12
390.285	1	4
390.456	1	7
390.627	1	7
390.798	1	16
390.968	1	0
391.139	1	-3
391.310	1	13
391.481	1	3
391.651	1	24
391.822	1	21
391.993	1	9
392.164	1	3
392.334	1	15
392.505	1	6
392.676	1	16
392.847	1	14
393.017	1	5
393.188	1	4
393.359	1	10
393.530	1	9
393.700	1	23
393.871	1	1
394.042	1	7
394.213	1	14
394.383	1	4
394.554	1	9
394.725	1	6
394.896	1	2
395.066	1	17
395.237	1	9
395.408	1	10
395.579	1	12
395.749	1	13
395.920	1	9
396.091	1	14
396.262	1	16
396.432	1	1
396.603	1	11
396.774	1	11
396.945	1	17
397.115	1	14
397.286	1	27
397.457	1	7
397.627	1	12
397.798	1	4
397.969	1	13
398.140	1	8
398.310	1	12
398.481	1	2
398.652	1	14
398.823	1	21
398.993	1	4
399.164	1	20
399.335	1	5
399.505	1	13
399.676	1	9
399.847	1	8
400.018	1	14
400.188	1	15
400.359	1	11
400.530	1	13
400.700	1	6
400.871	1	-8
401.042	1	3
401.213	1	8
401.383	1	16
401.554	1	8
401.725	1	5
401.895	1	2
402.066	1	3
402.237	1	7
402.408	1	13
402.578	1	9
402.749	1	3
402.920	1	-1
403.090	1	12
403.261	1	8
403.432	1	-3
403.603	1	16
403.773	1	3
403.944	1	14
404.115	1	2
404.285	1	10
404.456	1	11
404.627	1	15
404.797	1	19
404.968	1	0
405.139	1	5
405.310	1	4
405.480	1	17
405.651	1	13
405.822	1	10
405.992	1	7
406.163	1	4
406.334	1	14
406.504	1	6
406.675	1	17
406.846	1	2
407.016	1	1
407.187	1	4
407.358	1	5
407.528	1	3
407.699	1	17
407.870	1	15
408.041	1	10
408.211	1	1
408.382	1	7
408.553	1	13
408.723	1	-3
408.894	1	3
409.065	1	14
409.235	1	1
409.406	1	10
409.577	1	8
409.747	1	6
409.918	1	4
410.089	1	0
410.259	1	0
410.430	1	15
410.601	1	-1
410.771	1	-2
410.942	1	0
411.113	1	10
411.283	1	8
411.454	1	-5
411.625	1	-3
411.795	1	8
411.966	1	0
412.137	1	1
412.307	1	7
412.478	1	8
412.649	1	5
412.819	1	11
412.990	1	6
413.161	1	8
413.331	1	-7
413.502	1	15
413.672	1	-1
413.843	1	6
414.014	1	0
414.184	1	-2
414.355	1	-3
414.526	1	-2
414.696	1	6
414.867	1	10
415.038	1	8
415.208	1	-1
415.379	1	2
415.550	1	7
415.720	1	5
415.891	1	14
416.062	1	3
416.232	1	-1
416.403	1	6
416.573	1	4
416.744	1	9
416.915	1	4
417.085	1	3
417.256	1	5
417.427	1	9
417.597	1	-15
417.768	1	1
417.939	1	5
418.109	1	-3
418.280	1	3
418.450	1	0
418.621	1	2
418.792	1	8
418.962	1	-14
419.133	1	1
419.304	1	2
419.474	1	-6
419.645	1	15
419.815	1	-2
419.986	1	4
420.157	1	10
420.327	1	9
420.498	1	3
420.669	1	7
420.839	1	5
421.010	1	10
421.180	1	-2
421.351	1	4
421.522	1	6
421.692	1	5
421.863	1	-1
422.033	1	0
422.204	1	-17
422.375	1	1
422.545	1	8
422.716	1	10
422.886	1	2
423.057	1	-3
423.228	1	-6
423.398	1	6
423.569	1	3
423.740	1	-5
423.910	1	-5
424.081	1	5
424.251	1	-10
424.422	1	5
424.593	1	0
424.763	1	2
424.934	1	1
425.104	1	3
425.275	1	-1
425.445	1	-6
425.616	1	10
425.787	1	-8
425.957	1	27
426.128	1	0
426.298	1	-3
426.469	1	4
426.640	1	-6
426.810	1	1
426.981	1	-5
427.151	1	11
427.322	1	4
427.493	1	2
427.663	1	2
427.834	1	-13
428.004	1	0
428.175	1	-6
428.345	1	13
428.516	1	1
428.687	1	5
428.857	1	0
429.028	1	1
429.198	1	-7
429.369	1	-5
429.540	1	9
429.710	1	-2
429.881	1	11
430.051	1	3
430.222	1	-6
430.392	1	1
430.563	1	16
430.734	1	3
430.904	1	-2
431.075	1	12
431.245	1	-1
431.416	1	3
431.586	1	-1
431.757	1	4
431.927	1	-2
432.098	1	-1
432.269	1	-8
432.439	1	-6
432.610	1	-7
432.780	1	-4
432.951	1	3
433.121	1	1
433.292	1	-5
433.462	1	2
433.633	1	-5
433.804	1	-4
433.974	1	-10
434.145	1	3
434.315	1	5
434.486	1	6
434.656	1	-4
434.827	1	-8
434.997	1	5
435.168	1	5
435.339	1	0
435.509	1	4
435.680	1	0
435.850	1	8
436.021	1	4
436.191	1	-8
436.362	1	-6
436.532	1	4
436.703	1	-2
436.873	1	-4
437.044	1	3
437.214	1	2
437.385	1	0
437.556	1	2
437.726	1	5
437.897	1	-1
438.067	1	3
438.238	1	-13
438.408	1	7
438.579	1	4
438.749	1	1
438.920	1	3
439.090	1	14
439.261	1	4
439.431	1	3
439.602	1	3
439.772	1	3
439.943	1	3
440.113	1	1
440.284	1	12
440.455	1	-9
440.625	1	2
440.796	1	9
440.966	1	5
441.137	1	-10
441.307	1	-8
441.478	1	1
441.648	1	-12
441.819	1	-1
441.989	1	-8
442.160	1	-1
442.330	1	11
442.501	1	-7
442.671	1	9
442.842	1	5
443.012	1	-10
443.183	1	-4
443.353	1	-4
443.524	1	9
443.694	1	8
443.865	1	-2
444.035	1	0
444.206	1	3
444.376	1	-4
444.547	1	-5
444.717	1	15
444.888	1	-16
445.058	1	9
445.229	1	-4
445.399	1	9
445.570	1	4
445.740	1	7
445.911	1	10
446.081	1	4
446.252	1	-8
446.422	1	11
446.593	1	-1
446.763	1	5
446.934	1	3
447.104	1	-1
447.275	1	5
447.445	1	1
447.616	1	-3
447.786	1	1
447.957	1	0
448.127	1	3
448.298	1	5
448.468	1	5
448.639	1	1
448.809	1	0
448.979	1	1
449.150	1	3
449.320	1	-7
449.491	1	1
449.661	1	1
449.832	1	-8
450.002	1	-1
450.173	1	-10
450.343	1	-3
450.514	1	-2
450.684	1	-5
450.855	1	11
451.025	1	-6
451.196	1	5
451.366	1	7
451.537	1	-10
451.707	1	5
451.878	1	-5
452.048	1	-7
452.218	1	-3
452.389	1	-4
452.559	1	-12
452.730	1	0
452.900	1	4
453.071	1	2
453.241	1	-4
453.412	1	1
453.582	1	12
453.753	1	2
453.923	1	6
454.093	1	2
454.264	1	-9
454.434	1	-2
454.605	1	3
454.775	1	14
454.946	1	4
455.116	1	10
455.287	1	11
455.457	1	-5
455.628	1	-8
455.798	1	-15
455.968	1	6
456.139	1	-7
456.309	1	-13
456.480	1	-10
456.650	1	3
456.821	1	-10
456.991	1	3
457.161	1	10
457.332	1	-1
457.502	1	11
457.673	1	-2
457.843	1	12
458.014	1	-1
458.184	1	3
458.355	1	1
458.525	1	2
458.695	1	-1
458.866	1	0
459.036	1	-3
459.207	1	0
459.377	1	-5
459.548	1	2
459.718	1	-9
459.888	1	8
460.059	1	1
460.229	1	14
460.400	1	4
460.570	1	-4
460.740	1	-10
460.911	1	8
461.081	1	2
461.252	1	-11
461.422	1	5
461.593	1	-6
461.763	1	2
461.933	1	-7
462.104	1	5
462.274	1	8
462.445	1	-2
462.615	1	-3
462.785	1	-10
462.956	1	-6
463.126	1	-6
463.297	1	-3
463.467	1	2
463.638	1	4
463.808	1	10
463.978	1	5
464.149	1	-11
464.319	1	2
464.490	1	-9
464.660	1	1
464.830	1	-2
465.001	1	5
465.171	1	1
465.342	1	3
465.512	1	4
465.682	1	-1
465.853	1	2
466.023	1	-5
466.194	1	-2
466.364	1	5
466.534	1	-4
466.705	1	1
466.875	1	4
467.045	1	9
467.216	1	-11
467.386	1	0
467.557	1	10
467.727	1	-9
467.897	1	8
468.068	1	3
468.238	1	-9
468.409	1	2
468.579	1	10
468.749	1	-2
468.920	1	0
469.090	1	11
469.260	1	2
469.431	1	4
469.601	1	5
469.772	1	-14
469.942	1	-4
470.112	1	-4
470.283	1	14
470.453	1	2
470.623	1	1
470.794	1	8
470.964	1	6
471.135	1	-11
471.305	1	-5
471.475	1	-9
471.646	1	-4
471.816	1	6
471.986	1	-4
472.157	1	-1
472.327	1	-4
472.497	1	4
472.668	1	-9
472.838	1	4
473.009	1	3
473.179	1	-1
473.349	1	9
473.520	1	-5
473.690	1	6
473.860	1	1
474.031	1	0
474.201	1	-3
474.371	1	9
474.542	1	0
474.712	1	0
474.882	1	-4
475.053	1	-12
475.223	1	4
475.394	1	4
475.564	1	-4
475.734	1	-5
475.905	1	-2
476.075	1	6
476.245	1	6
476.416	1	7
476.586	1	-5
476.756	1	-1
476.927	1	12
477.097	1	4
477.267	1	-3
477.438	1	1
477.608	1	6
477.778	1	6
477.949	1	-3
478.119	1	4
478.289	1	-1
478.460	1	-6
478.630	1	-6
478.800	1	-7
478.971	1	-2
479.141	1	2
479.311	1	5
479.482	1	-6
479.652	1	10
479.822	1	-5
479.993	1	19
480.163	1	-11
480.333	1	-3
480.504	1	1
480.674	1	4
480.844	1	2
481.015	1	-7
481.185	1	6
481.355	1	13
481.525	1	-5
481.696	1	6
481.866	1	-4
482.036	1	-9
482.207	1	2
482.377	1	4
482.547	1	-8
482.718	1	3
482.888	1	-13
483.058	1	-2
483.229	1	1
483.399	1	0
483.569	1	4
483.740	1	-9
483.910	1	0
484.080	1	-9
484.250	1	9
484.421	1	-4
484.591	1	11
484.761	1	-11
484.932	1	7
485.102	1	11
485.272	1	9
485.443	1	5
485.613	1	-13
485.783	1	8
485.953	1	0
486.124	1	10
486.294	1	1
486.464	1	0
486.635	1	7
486.805	1	16
486.975	1	-3
487.146	1	8
487.316	1	-2
487.486	1	-4
487.656	1	-13
487.827	1	1
487.997	1	8
488.167	1	1
488.338	1	15
488.508	1	9
488.678	1	4
488.848	1	-4
489.019	1	0
489.189	1	-8
489.359	1	6
489.529	1	5
489.700	1	-4
489.870	1	-8
490.040	1	5
490.211	1	9
490.381	1	4
490.551	1	-2
490.721	1	7
490.892	1	1
491.062	1	9
491.232	1	6
491.402	1	-6
491.573	1	-7
491.743	1	-21
491.913	1	4
492.084	1	1
492.254	1	9
492.424	1	3
492.594	1	5
492.765	1	5
492.935	1	-5
493.105	1	16
493.275	1	8
493.446	1	-4
493.616	1	5
493.786	1	2
493.956	1	-5
494.127	1	-6
494.297	1	5
494.467	1	-2
494.637	1	0
494.808	1	7
494.978	1	2
495.148	1	10
495.318	1	13
495.489	1	-4
495.659	1	3
495.829	1	0
495.999	1	11
496.170	1	-10
496.340	1	2
496.510	1	0
496.680	1	-6
496.851	1	5
497.021	1	3
497.191	1	-1
497.361	1	3
497.532	1	4
497.702	1	0
497.872	1	2
498.042	1	4
498.213	1	6
498.383	1	-7
498.553	1	2
498.723	1	-4
498.894	1	7
499.064	1	20
499.234	1	-12
499.404	1	9
499.574	1	-3
499.745	1	8
499.915	1	-1
500.085	1	4
500.255	1	7
500.426	1	-4
500.596	1	-6
500.766	1	8
500.936	1	-6
501.106	1	1
501.277	1	4
501.447	1	-2
501.617	1	-6
501.787	1	-1
501.958	1	-6
502.128	1	-1
502.298	1	0
502.468	1	14
502.638	1	0
502.809	1	4
502.979	1	0
503.149	1	7
503.319	1	6
503.489	1	8
503.660	1	-8
503.830	1	0
504.000	1	-6
504.170	1	-2
504.340	1	-3
504.511	1	14
504.681	1	0
504.851	1	0
505.021	1	-6
505.192	1	5
505.362	1	9
505.532	1	3
505.702	1	7
505.872	1	-10
506.043	1	2
506.213	1	6
506.383	1	7
506.553	1	4
506.723	1	6
506.893	1	5
507.064	1	-3
507.234	1	2
507.404	1	-2
507.574	1	3
507.744	1	-6
507.915	1	1
508.085	1	7
508.255	1	7
508.425	1	-4
508.595	1	8
508.766	1	-6
508.936	1	3
509.106	1	-3
509.276	1	2
509.446	1	-4
509.616	1	8
509.787	1	4
509.957	1	2
510.127	1	15
510.297	1	-6
510.467	1	-2
510.638	1	-5
510.808	1	4
510.978	1	-10
511.148	1	12
511.318	1	4
511.488	1	11
511.659	1	10
511.829	1	2
511.999	1	9
512.169	1	-2
512.339	1	0
512.509	1	9
512.680	1	5
512.850	1	1
513.020	1	2
513.190	1	-2
513.360	1	4
513.530	1	-2
513.700	1	10
513.871	1	7
514.041	1	-3
514.211	1	6
514.381	1	4
514.551	1	7
514.721	1	13
514.892	1	11
515.062	1	3
515.232	1	4
515.402	1	-2
515.572	1	-7
515.742	1	7
515.912	1	7
516.083	1	-4
516.253	1	3
516.423	1	6
516.593	1	3
516.763	1	3
516.933	1	10
517.104	1	2
517.274	1	15
517.444	1	12
517.614	1	8
517.784	1	1
517.954	1	-6
518.124	1	9
518.294	1	6
518.465	1	15
518.635	1	6
518.805	1	4
518.975	1	11
519.145	1	13
519.315	1	-4
519.485	1	-8
519.656	1	2
519.826	1	5
519.996	1	9
520.166	1	2
520.336	1	-6
520.506	1	9
520.676	1	6
520.846	1	-9
521.017	1	6
521.187	1	3
521.357	1	-7
521.527	1	9
521.697	1	5
521.867	1	3
522.037	1	-3
522.207	1	-4
522.377	1	4
522.548	1	-2
522.718	1	2
522.888	1	-1
523.058	1	19
523.228	1	10
523.398	1	11
523.568	1	-1
523.738	1	3
523.909	1	9
524.079	1	9
524.249	1	4
524.419	1	3
524.589	1	6
524.759	1	4
524.929	1	3
525.099	1	9
525.269	1	15
525.439	1	1
525.610	1	-6
525.780	1	11
525.950	1	-10
526.120	1	-1
526.290	1	0
526.460	1	6
526.630	1	8
526.800	1	9
526.970	1	1
527.140	1	-4
527.311	1	5
527.481	1	10
527.651	1	18
527.821	1	6
527.991	1	8
528.161	1	3
528.331	1	3
528.501	1	-3
528.671	1	-6
528.841	1	11
529.011	1	4
529.181	1	-1
529.352	1	2
529.522	1	14
529.692	1	17
529.862	1	2
530.032	1	8
530.202	1	-6
530.372	1	6
530.542	1	1
530.712	1	12
530.882	1	2
531.052	1	11
531.222	1	-10
531.392	1	7
531.563	1	12
531.733	1	10
531.903	1	9
532.073	1	13
532.243	1	1
532.413	1	3
532.583	1	9
532.753	1	4
532.923	1	13
533.093	1	4
533.263	1	10
533.433	1	5
533.603	1	7
533.773	1	-1
533.943	1	4
534.113	1	4
534.284	1	9
534.454	1	10
534.624	1	6
534.794	1	9
534.964	1	-1
535.134	1	-10
535.304	1	12
535.474	1	3
535.644	1	8
535.814	1	2
535.984	1	-2
536.154	1	4
536.324	1	6
536.494	1	2
536.664	1	7
536.834	1	6
537.004	1	16
537.174	1	10
537.344	1	10
537.514	1	4
537.685	1	8
537.855	1	1
538.025	1	7
538.195	1	10
538.365	1	5
538.535	1	8
538.705	1	3
538.875	1	7
539.045	1	11
539.215	1	-5
539.385	1	0
539.555	1	-7
539.725	1	9
539.895	1	6
540.065	1	7
540.235	1	1
540.405	1	11
540.575	1	10
540.745	1	13
540.915	1	11
541.085	1	-4
541.255	1	4
541.425	1	-3
541.595	1	5
541.765	1	-6
541.935	1	12
542.105	1	9
542.275	1	7
542.445	1	1
542.615	1	10
542.785	1	3
542.955	1	9
543.125	1	-1
543.295	1	5
543.465	1	7
543.635	1	5
543.805	1	6
543.975	1	6
544.145	1	7
544.315	1	-11
544.485	1	2
544.655	1	3
544.825	1	12
544.995	1	-2
545.165	1	-2
545.335	1	10
545.505	1	-1
545.675	1	6
545.845	1	-1
546.015	1	3
546.185	1	1
546.355	1	13
546.525	1	2
546.695	1	-6
546.865	1	2
547.035	1	14
547.205	1	0
547.375	1	6
547.545	1	-2
547.715	1	9
547.885	1	-2
548.055	1	15
548.225	1	-3
548.395	1	4
548.565	1	10
548.735	1	5
548.905	1	-6
549.075	1	-4
549.245	1	7
549.415	1	3
549.585	1	4
549.755	1	3
549.925	1	6
550.095	1	9
550.265	1	-15
550.435	1	6
550.605	1	2
550.775	1	-8
550.945	1	16
551.115	1	-5
551.285	1	2
551.455	1	-1
551.625	1	1
551.795	1	9
551.965	1	10
552.135	1	0
552.305	1	-3
552.475	1	4
552.645	1	3
552.815	1	2
552.985	1	3
553.155	1	10
553.325	1	4
553.495	1	8
553.665	1	7
553.835	1	-1
554.004	1	-4
554.174	1	4
554.344	1	-1
554.514	1	12
554.684	1	10
554.854	1	7
555.024	1	-1
555.194	1	11
555.364	1	2
555.534	1	3
555.704	1	2
555.874	1	-4
556.044	1	-1
556.214	1	0
556.384	1	4
556.554	1	0
556.724	1	-1
556.894	1	17
557.064	1	1
557.234	1	-4
557.404	1	-6
557.573	1	14
557.743	1	7
557.913	1	8
558.083	1	-14
558.253	1	6
558.423	1	-7
558.593	1	3
558.763	1	-2
558.933	1	7
559.103	1	0
559.273	1	10
559.443	1	6
559.613	1	4
559.783	1	4
559.953	1	4
560.122	1	-6
560.292	1	2
560.462	1	0
560.632	1	1
560.802	1	5
560.972	1	13
561.142	1	13
561.312	1	1
561.482	1	9
561.652	1	1
561.822	1	-3
561.992	1	15
562.162	1	1
562.331	1	4
562.501	1	-7
562.671	1	7
562.841	1	-1
563.011	1	-3
563.181	1	15
563.351	1	-2
563.521	1	7
563.691	1	3
563.861	1	20
564.031	1	0
564.201	1	-4
564.370	1	3
564.540	1	15
564.710	1	-1
564.880	1	0
565.050	1	3
565.220	1	4
565.390	1	-6
565.560	1	4
565.730	1	-1
565.900	1	7
566.069	1	13
566.239	1	-6
566.409	1	1
566.579	1	3
566.749	1	1
566.919	1	8
567.089	1	9
567.259	1	13
567.429	1	-1
567.599	1	-7
567.768	1	9
567.938	1	8
568.108	1	-13
568.278	1	-7
568.448	1	0
568.618	1	3
568.788	1	-3
568.958	1	5
569.128	1	-1
569.297	1	1
569.467	1	2
569.637	1	5
569.807	1	7
569.977	1	2
570.147	1	2
570.317	1	14
570.487	1	2
570.656	1	0
570.826	1	3
570.996	1	-2
571.166	1	-2
571.336	1	1
571.506	1	-1
571.676	1	9
571.846	1	12
572.015	1	1
572.185	1	-6
572.355	1	13
572.525	1	-2
572.695	1	7
572.865	1	2
573.035	1	5
573.205	1	13
573.374	1	-4
573.544	1	5
573.714	1	8
573.884	1	-1
574.054	1	0
574.224	1	2
574.394	1	-8
574.563	1	-6
574.733	1	-1
574.903	1	5
575.073	1	-5
575.243	1	-8
575.413	1	-1
575.583	1	6
575.752	1	1
575.922	1	4
576.092	1	11
576.262	1	3
576.432	1	-4
576.602	1	4
576.772	1	5
576.941	1	2
577.111	1	4
577.281	1	-1
577.451	1	-1
577.621	1	-1
577.791	1	-1
577.960	1	-2
578.130	1	-6
578.300	1	2
578.470	1	-1
578.640	1	2
578.810	1	-2
578.979	1	4
579.149	1	1
579.319	1	7
579.489	1	1
579.659	1	-1
579.829	1	13
579.998	1	-13
580.168	1	1
580.338	1	-11
580.508	1	9
580.678	1	8
580.848	1	-3
581.017	1	1
581.187	1	3
581.357	1	-1
581.527	1	4
581.697	1	-9
581.867	1	-5
582.036	1	4
582.206	1	-15
582.376	1	5
582.546	1	1
582.716	1	8
582.885	1	3
583.055	1	2
583.225	1	1
583.395	1	5
583.565	1	1
583.735	1	-4
583.904	1	-7
584.074	1	-11
584.244	1	-1
584.414	1	-4
584.584	1	5
584.753	1	8
584.923	1	2
585.093	1	6
585.263	1	8
585.433	1	0
585.602	1	1
585.772	1	-4
585.942	1	1
586.112	1	4
586.282	1	0
586.451	1	2
586.621	1	1
586.791	1	4
586.961	1	-2
587.131	1	-1
587.300	1	-2
587.470	1	-2
587.640	1	-15
587.810	1	-4
587.980	1	4
588.149	1	2
588.319	1	1
588.489	1	0
588.659	1	-7
588.829	1	-4
588.998	1	3
589.168	1	8
589.338	1	6
589.508	1	1
589.677	1	4
589.847	1	-1
590.017	1	-8
590.187	1	0
590.357	1	-3
590.526	1	3
590.696	1	5
590.866	1	1
591.036	1	11
591.205	1	4
591.375	1	-8
591.545	1	-16
591.715	1	-4
591.885	1	13
592.054	1	2
592.224	1	-1
592.394	1	-1
592.564	1	-14
592.733	1	-13
592.903	1	3
593.073	1	-6
593.243	1	-1
593.412	1	12
593.582	1	2
593.752	1	-3
593.922	1	2
594.091	1	-2
594.261	1	3
594.431	1	2
594.601	1	-12
594.771	1	8
594.940	1	-4
595.110	1	1
595.280	1	-8
595.450	1	5
595.619	1	0
595.789	1	3
595.959	1	-3
596.129	1	-3
596.298	1	6
596.468	1	5
596.638	1	11
596.808	1	10
596.977	1	-5
597.147	1	15
597.317	1	2
597.487	1	4
597.656	1	2
597.826	1	8
597.996	1	9
598.166	1	-1
598.335	1	2
598.505	1	-6
598.675	1	7
598.844	1	-1
599.014	1	-5
599.184	1	-4
599.354	1	-6
599.523	1	0
599.693	1	14
599.863	1	9
600.033	1	-4
600.202	1	1
600.372	1	-6
600.542	1	3
600.712	1	2
600.881	1	2
601.051	1	11
601.221	1	-5
601.390	1	-7
601.560	1	-1
601.730	1	0
601.900	1	1
602.069	1	1
602.239	1	-6
602.409	1	-8
602.578	1	-1
602.748	1	-1
602.918	1	-11
603.088	1	1
603.257	1	4
603.427	1	-8
603.597	1	18
603.767	1	-3
603.936	1	7
604.106	1	10
604.276	1	-3
604.445	1	4
604.615	1	-3
604.785	1	8
604.954	1	-4
605.124	1	-11
605.294	1	-7
605.464	1	-8
605.633	1	18
605.803	1	6
605.973	1	-5
606.142	1	5
606.312	1	-6
606.482	1	-6
606.652	1	-6
606.821	1	3
606.991	1	1
607.161	1	-1
607.330	1	10
607.500	1	2
607.670	1	-4
607.839	1	-2
608.009	1	-13
608.179	1	4
608.348	1	3
608.518	1	-1
608.688	1	6
608.858	1	-3
609.027	1	0
609.197	1	-13
609.367	1	-16
609.536	1	4
609.706	1	-2
609.876	1	4
610.045	1	-4
610.215	1	-4
610.385	1	-2
610.554	1	-6
610.724	1	3
610.894	1	3
611.063	1	7
611.233	1	4
611.403	1	7
611.572	1	0
611.742	1	-6
611.912	1	0
612.081	1	-5
612.251	1	0
612.421	1	8
612.590	1	-2
612.760	1	2
612.930	1	7
613.099	1	-6
613.269	1	-3
613.439	1	-8
613.608	1	6
613.778	1	0
613.948	1	3
614.117	1	16
614.287	1	-4
614.457	1	2
614.626	1	2
614.796	1	8
614.966	1	1
615.135	1	-5
615.305	1	2
615.475	1	1
615.644	1	2
615.814	1	-5
615.984	1	8
616.153	1	4
616.323	1	-1
616.493	1	5
616.662	1	-5
616.832	1	-2
617.002	1	3
617.171	1	-9
617.341	1	8
617.511	1	-3
617.680	1	-1
617.850	1	4
618.019	1	7
618.189	1	0
618.359	1	7
618.528	1	-6
618.698	1	-5
618.868	1	5
619.037	1	13
619.207	1	-12
619.377	1	-14
619.546	1	1
619.716	1	-9
619.885	1	4
620.055	1	7
620.225	1	6
620.394	1	-8
620.564	1	-6
620.734	1	5
620.903	1	3
621.073	1	-11
621.242	1	-7
621.412	1	10
621.582	1	0
621.751	1	-2
621.921	1	10
622.091	1	4
622.260	1	-7
622.430	1	1
622.599	1	1
622.769	1	3
622.939	1	-3
623.108	1	-5
623.278	1	-6
623.448	1	2
623.617	1	18
623.787	1	-7
623.956	1	7
624.126	1	-3
624.296	1	-13
624.465	1	7
624.635	1	2
624.804	1	-11
624.974	1	-10
625.144	1	2
625.313	1	12
625.483	1	1
625.652	1	0
625.822	1	3
625.992	1	-7
626.161	1	-7
626.331	1	6
626.501	1	-7
626.670	1	3
626.840	1	12
627.009	1	-10
627.179	1	3
627.348	1	-2
627.518	1	0
627.688	1	-6
627.857	1	-2
628.027	1	3
628.196	1	5
628.366	1	9
628.536	1	-2
628.705	1	7
628.875	1	9
629.044	1	8
629.214	1	2
629.384	1	-11
629.553	1	5
629.723	1	1
629.892	1	6
630.062	1	3
630.232	1	14
630.401	1	-1
630.571	1	9
630.740	1	9
630.910	1	0
631.079	1	13
631.249	1	2
631.419	1	6
631.588	1	-11
631.758	1	6
631.927	1	-5
632.097	1	13
632.266	1	-8
632.436	1	-12
632.606	1	2
632.775	1	2
632.945	1	-1
633.114	1	9
633.284	1	-1
633.453	1	-8
633.623	1	-2
633.793	1	8
633.962	1	4
634.132	1	1
634.301	1	-5
634.471	1	-5
634.640	1	12
634.810	1	0
634.979	1	-4
635.149	1	9
635.319	1	4
635.488	1	6
635.658	1	-1
635.827	1	-1
635.997	1	-7
636.166	1	-11
636.336	1	9
636.505	1	-1
636.675	1	-4
636.845	1	3
637.014	1	0
637.184	1	-2
637.353	1	4
637.523	1	-2
637.692	1	3
637.862	1	-9
638.031	1	9
638.201	1	3
638.370	1	2
638.540	1	4
638.710	1	4
638.879	1	-5
639.049	1	-6
639.218	1	-7
639.388	1	5
639.557	1	7
639.727	1	-4
639.896	1	2
640.066	1	11
640.235	1	16
640.405	1	-6
640.574	1	-4
640.744	1	1
640.914	1	-10
641.083	1	-5
641.253	1	-5
641.422	1	-7
641.592	1	-10
641.761	1	-1
641.931	1	7
642.100	1	1
642.270	1	0
642.439	1	0
642.609	1	4
642.778	1	-1
642.948	1	0
643.117	1	-11
643.287	1	8
643.456	1	15
643.626	1	-1
643.795	1	-3
643.965	1	-11
644.134	1	4
644.304	1	-1
644.473	1	4
644.643	1	-4
644.812	1	8
644.982	1	8
645.151	1	1
645.321	1	12
645.490	1	5
645.660	1	-9
645.829	1	-7
645.999	1	-4
646.168	1	-8
646.338	1	-3
646.507	1	3
646.677	1	0
646.846	1	6
647.016	1	-3
647.185	1	-3
647.355	1	-8
647.524	1	5
647.694	1	-3
647.863	1	-9
648.033	1	-2
648.202	1	9
648.372	1	1
648.541	1	-2
648.711	1	0
648.880	1	8
649.050	1	-2
649.219	1	6
649.389	1	-2
649.558	1	-7
649.728	1	-3
649.897	1	4
650.067	1	3
650.236	1	3
650.406	1	1
650.575	1	0
650.745	1	-9
650.914	1	-6
651.084	1	-3
651.253	1	7
651.423	1	3
651.592	1	-7
651.762	1	5
651.931	1	4
652.101	1	0
652.270	1	2
652.440	1	8
652.609	1	0
652.778	1	-4
652.948	1	1
653.117	1	5
653.287	1	3
653.456	1	8
653.626	1	7
653.795	1	-3
653.965	1	10
654.134	1	-10
654.304	1	1
654.473	1	2
654.643	1	0
654.812	1	3
654.982	1	-15
655.151	1	0
655.320	1	-2
655.490	1	4
655.659	1	-6
655.829	1	-2
655.998	1	-4
656.168	1	0
656.337	1	-9
656.507	1	12
656.676	1	-5
656.846	1	-8
657.015	1	0
657.184	1	2
657.354	1	-2
657.523	1	3
657.693	1	-11
657.862	1	11
658.032	1	3
658.201	1	-11
658.371	1	-6
658.540	1	-3
658.709	1	-12
658.879	1	5
659.048	1	5
659.218	1	1
659.387	1	-7
659.557	1	4
659.726	1	-1
659.895	1	4
660.065	1	3
660.234	1	6
660.404	1	4
660.573	1	-5
660.743	1	-10
660.912	1	4
661.081	1	-3
661.251	1	-4
661.420	1	-3
661.590	1	5
661.759	1	2
661.929	1	4
662.098	1	-18
662.267	1	14
662.437	1	0
662.606	1	9
662.776	1	-4
662.945	1	2
663.115	1	-5
663.284	1	-3
663.453	1	3
663.623	1	-2
663.792	1	0
663.962	1	-3
664.131	1	-1
664.300	1	-1
664.470	1	1
664.639	1	0
664.809	1	6
664.978	1	-2
665.148	1	-2
665.317	1	-2
665.486	1	-1
665.656	1	-1
665.825	1	9
665.995	1	3
666.164	1	-2
666.333	1	5
666.503	1	4
666.672	1	-16
666.842	1	1
667.011	1	0
667.180	1	-3
667.350	1	9
667.519	1	4
667.689	1	-3
667.858	1	3
668.027	1	3
668.197	1	9
668.366	1	3
668.536	1	-1
668.705	1	0
668.874	1	-11
669.044	1	-7
669.213	1	-2
669.382	1	-3
669.552	1	10
669.721	1	-8
669.891	1	1
670.060	1	-3
670.229	1	-2
670.399	1	2
670.568	1	1
670.738	1	-4
670.907	1	-17
671.076	1	8
671.246	1	-6
671.415	1	-5
671.584	1	-1
671.754	1	-6
671.923	1	-11
672.093	1	9
672.262	1	9
672.431	1	-5
672.601	1	-3
672.770	1	7
672.939	1	-17
673.109	1	-1
673.278	1	0
673.448	1	6
673.617	1	0
673.786	1	5
