325.333	1	-2
325.504	1	3
325.675	1	2
325.846	1	-2
326.017	1	1
326.188	1	-5
326.359	1	3
326.531	1	-7
326.702	1	6
326.873	1	3
327.044	1	-7
327.215	1	-5
327.386	1	-3
327.557	1	5
327.728	1	3
327.899	1	-2
328.070	1	-8
328.241	1	0
328.412	1	7
328.583	1	-9
328.754	1	-2
328.926	1	7
329.097	1	8
329.268	1	1
329.439	1	-3
329.610	1	-14
329.781	1	-9
329.952	1	13
330.123	1	-1
330.294	1	11
330.465	1	-1
330.636	1	6
330.807	1	3
330.978	1	-4
331.149	1	4
331.320	1	1
331.492	1	-8
331.663	1	-14
331.834	1	1
332.005	1	11
332.176	1	3
332.347	1	7
332.518	1	2
332.689	1	2
332.860	1	-3
333.031	1	1
333.202	1	-2
333.373	1	-2
333.544	1	-4
333.715	1	-7
333.886	1	-2
334.057	1	-11
334.228	1	-9
334.399	1	4
334.570	1	-8
334.741	1	-1
334.912	1	-6
335.084	1	3
335.255	1	-5
335.426	1	-2
335.597	1	-8
335.768	1	-1
335.939	1	-7
336.110	1	-6
336.281	1	-5
336.452	1	-4
336.623	1	13
336.794	1	-11
336.965	1	-1
337.136	1	-5
337.307	1	9
337.478	1	2
337.649	1	5
337.820	1	6
337.991	1	3
338.162	1	-5
338.333	1	0
338.504	1	1
338.675	1	9
338.846	1	4
339.017	1	3
339.188	1	-5
339.359	1	-5
339.530	1	8
339.701	1	-7
339.872	1	4
340.043	1	3
340.214	1	1
340.385	1	6
340.556	1	0
340.727	1	-7
340.898	1	-1
341.069	1	-4
341.240	1	-3
341.411	1	2
341.582	1	-5
341.753	1	1
341.924	1	1
342.095	1	0
342.266	1	-2
342.437	1	8
342.608	1	0
342.779	1	-7
342.950	1	0
343.121	1	0
343.292	1	-2
343.463	1	-3
343.634	1	-2
343.805	1	10
343.976	1	8
344.147	1	0
344.318	1	11
344.489	1	-4
344.660	1	0
344.831	1	-8
345.002	1	-8
345.173	1	-5
345.344	1	-1
345.515	1	-2
345.686	1	8
345.857	1	3
346.028	1	-9
346.199	1	-6
346.370	1	-3
346.541	1	-12
346.712	1	9
346.883	1	2
347.054	1	-5
347.225	1	-5
347.396	1	-8
347.567	1	1
347.738	1	10
347.909	1	-5
348.080	1	-6
348.251	1	2
348.422	1	2
348.593	1	3
348.764	1	3
348.935	1	7
349.106	1	6
349.277	1	-3
349.448	1	-3
349.619	1	0
349.790	1	6
349.961	1	-1
350.132	1	-10
350.303	1	-5
350.474	1	1
350.645	1	-5
350.816	1	1
350.987	1	-4
351.157	1	7
351.328	1	2
351.499	1	-2
351.670	1	14
351.841	1	3
352.012	1	-8
352.183	1	-6
352.354	1	-3
352.525	1	5
352.696	1	-5
352.867	1	-6
353.038	1	15
353.209	1	6
353.380	1	-13
353.551	1	1
353.722	1	-3
353.893	1	-5
354.064	1	-3
354.235	1	2
354.406	1	-8
354.576	1	-2
354.747	1	-4
354.918	1	1
355.089	1	-2
355.260	1	3
355.431	1	5
355.602	1	8
355.773	1	-4
355.944	1	5
356.115	1	-6
356.286	1	-1
356.457	1	-5
356.628	1	1
356.799	1	7
356.970	1	-6
357.141	1	-2
357.311	1	-8
357.482	1	-1
357.653	1	1
357.824	1	6
357.995	1	-3
358.166	1	6
358.337	1	7
358.508	1	4
358.679	1	7
358.850	1	3
359.021	1	-2
359.192	1	1
359.363	1	6
359.533	1	-6
359.704	1	-1
359.875	1	-1
360.046	1	6
360.217	1	15
360.388	1	6
360.559	1	8
360.730	1	6
360.901	1	0
361.072	1	-4
361.243	1	-1
361.414	1	6
361.584	1	5
361.755	1	10
361.926	1	12
362.097	1	2
362.268	1	-3
362.439	1	0
362.610	1	-3
362.781	1	-3
362.952	1	0
363.123	1	-1
363.293	1	-1
363.464	1	4
363.635	1	5
363.806	1	7
363.977	1	11
364.148	1	10
364.319	1	1
364.490	1	-2
364.661	1	1
364.832	1	-4
365.002	1	8
365.173	1	17
365.344	1	5
365.515	1	6
365.686	1	1
365.857	1	1
366.028	1	4
366.199	1	6
366.370	1	3
366.540	1	10
366.711	1	8
366.882	1	1
367.053	1	15
367.224	1	4
367.395	1	5
367.566	1	2
367.737	1	3
367.908	1	0
368.078	1	7
368.249	1	2
368.420	1	-7
368.591	1	13
368.762	1	3
368.933	1	8
369.104	1	6
369.274	1	-4
369.445	1	-6
369.616	1	7
369.787	1	-4
369.958	1	-1
370.129	1	6
370.300	1	0
370.471	1	11
370.641	1	4
370.812	1	-6
370.983	1	5
371.154	1	-2
371.325	1	9
371.496	1	-4
371.667	1	9
371.837	1	-8
372.008	1	2
372.179	1	9
372.350	1	1
372.521	1	-6
372.692	1	-2
372.863	1	8
373.033	1	7
373.204	1	6
373.375	1	-5
373.546	1	4
373.717	1	-4
373.888	1	-3
374.059	1	12
374.229	1	-8
374.400	1	0
374.571	1	4
374.742	1	7
374.913	1	-9
375.084	1	-8
375.254	1	-1
375.425	1	-8
375.596	1	-7
375.767	1	0
375.938	1	2
376.109	1	-4
376.279	1	-11
376.450	1	-4
376.621	1	10
376.792	1	-16
376.963	1	3
377.134	1	-1
377.304	1	8
377.475	1	5
377.646	1	-4
377.817	1	8
377.988	1	-5
378.159	1	3
378.329	1	4
378.500	1	-2
378.671	1	1
378.842	1	-4
379.013	1	-6
379.184	1	1
379.354	1	2
379.525	1	4
379.696	1	1
379.867	1	7
380.038	1	3
380.209	1	5
380.379	1	-11
380.550	1	0
380.721	1	12
380.892	1	-4
381.063	1	0
381.233	1	8
381.404	1	11
381.575	1	-7
381.746	1	8
381.917	1	3
382.087	1	4
382.258	1	13
382.429	1	5
382.600	1	8
382.771	1	-3
382.941	1	1
383.112	1	8
383.283	1	2
383.454	1	6
383.625	1	-3
383.795	1	17
383.966	1	3
384.137	1	10
384.308	1	11
384.479	1	12
384.649	1	4
384.820	1	-5
384.991	1	10
385.162	1	11
385.333	1	16
385.503	1	4
385.674	1	15
385.845	1	9
386.016	1	12
386.187	1	12
386.357	1	0
386.528	1	17
386.699	1	17
386.870	1	27
387.041	1	7
387.211	1	5
387.382	1	14
387.553	1	21
387.724	1	5
387.894	1	14
388.065	1	13
388.236	1	19
388.407	1	15
388.578	1	-1
388.748	1	17
388.919	1	1
389.090	1	20
389.261	1	-9
389.431	1	10
389.602	1	14
389.773	1	12
389.944	1	13
390.114	1	18
390.285	1	-1
390.456	1	8
390.627	1	3
390.798	1	13
390.968	1	7
391.139	1	-5
391.310	1	14
391.481	1	9
391.651	1	8
391.822	1	18
391.993	1	16
392.164	1	3
392.334	1	12
392.505	1	14
392.676	1	11
392.847	1	14
393.017	1	2
393.188	1	2
393.359	1	11
393.530	1	11
393.700	1	16
393.871	1	1
394.042	1	13
394.213	1	13
394.383	1	7
394.554	1	9
394.725	1	5
394.896	1	0
395.066	1	14
395.237	1	13
395.408	1	11
395.579	1	13
395.749	1	13
395.920	1	6
396.091	1	12
396.262	1	4
396.432	1	0
396.603	1	8
396.774	1	4
396.945	1	8
397.115	1	23
397.286	1	17
397.457	1	16
397.627	1	5
397.798	1	5
397.969	1	7
398.140	1	18
398.310	1	16
398.481	1	1
398.652	1	10
398.823	1	26
398.993	1	2
399.164	1	19
399.335	1	6
399.505	1	11
399.676	1	25
399.847	1	-2
400.018	1	7
400.188	1	12
400.359	1	5
400.530	1	15
400.700	1	1
400.871	1	-5
401.042	1	8
401.213	1	3
401.383	1	14
401.554	1	9
401.725	1	10
401.895	1	12
402.066	1	5
402.237	1	3
402.408	1	10
402.578	1	8
402.749	1	7
402.920	1	3
403.090	1	9
403.261	1	5
403.432	1	3
403.603	1	8
403.773	1	13
403.944	1	6
404.115	1	-1
404.285	1	8
404.456	1	4
404.627	1	4
404.797	1	15
404.968	1	8
405.139	1	7
405.310	1	6
405.480	1	4
405.651	1	10
405.822	1	11
405.992	1	15
406.163	1	9
406.334	1	18
406.504	1	9
406.675	1	18
406.846	1	6
407.016	1	-7
407.187	1	2
407.358	1	-6
407.528	1	8
407.699	1	6
407.870	1	12
408.041	1	7
408.211	1	3
408.382	1	13
408.553	1	9
408.723	1	5
408.894	1	-1
409.065	1	15
409.235	1	1
409.406	1	4
409.577	1	11
409.747	1	10
409.918	1	4
410.089	1	7
410.259	1	2
410.430	1	7
410.601	1	-2
410.771	1	6
410.942	1	16
411.113	1	7
411.283	1	4
411.454	1	-6
411.625	1	4
411.795	1	9
411.966	1	12
412.137	1	-1
412.307	1	2
412.478	1	17
412.649	1	10
412.819	1	9
412.990	1	13
413.161	1	1
413.331	1	-2
413.502	1	12
413.672	1	8
413.843	1	2
414.014	1	7
414.184	1	-5
414.355	1	1
414.526	1	-1
414.696	1	2
414.867	1	13
415.038	1	4
415.208	1	1
415.379	1	3
415.550	1	8
415.720	1	7
415.891	1	19
416.062	1	2
416.232	1	3
416.403	1	7
416.573	1	6
416.744	1	-2
416.915	1	-5
417.085	1	4
417.256	1	-1
417.427	1	-3
417.597	1	-10
417.768	1	-4
417.939	1	12
418.109	1	8
418.280	1	6
418.450	1	0
418.621	1	12
418.792	1	0
418.962	1	4
419.133	1	5
419.304	1	5
419.474	1	0
419.645	1	18
419.815	1	-6
419.986	1	7
420.157	1	11
420.327	1	11
420.498	1	2
420.669	1	6
420.839	1	15
421.010	1	14
421.180	1	0
421.351	1	10
421.522	1	9
421.692	1	-1
421.863	1	-6
422.033	1	-8
422.204	1	-11
422.375	1	2
422.545	1	10
422.716	1	11
422.886	1	3
423.057	1	1
423.228	1	-16
423.398	1	6
423.569	1	-5
423.740	1	-6
423.910	1	-7
424.081	1	2
424.251	1	2
424.422	1	5
424.593	1	8
424.763	1	3
424.934	1	3
425.104	1	8
425.275	1	-7
425.445	1	-3
425.616	1	4
425.787	1	-2
425.957	1	17
426.128	1	5
426.298	1	-5
426.469	1	-1
426.640	1	-6
426.810	1	5
426.981	1	-1
427.151	1	6
427.322	1	11
427.493	1	6
427.663	1	11
427.834	1	-2
428.004	1	13
428.175	1	-2
428.345	1	7
428.516	1	-2
428.687	1	8
428.857	1	-2
429.028	1	4
429.198	1	5
429.369	1	7
429.540	1	4
429.710	1	-6
429.881	1	8
430.051	1	11
430.222	1	-7
430.392	1	-7
430.563	1	9
430.734	1	2
430.904	1	-1
431.075	1	12
431.245	1	10
431.416	1	3
431.586	1	-3
431.757	1	5
431.927	1	8
432.098	1	-5
432.269	1	-2
432.439	1	-2
432.610	1	1
432.780	1	-1
432.951	1	1
433.121	1	0
433.292	1	11
433.462	1	2
433.633	1	-2
433.804	1	-12
433.974	1	-8
434.145	1	0
434.315	1	-4
434.486	1	2
434.656	1	3
434.827	1	-2
434.997	1	2
435.168	1	-2
435.339	1	4
435.509	1	3
435.680	1	-7
435.850	1	-3
436.021	1	5
436.191	1	-4
436.362	1	3
436.532	1	5
436.703	1	2
436.873	1	-7
437.044	1	5
437.214	1	-2
437.385	1	-1
437.556	1	6
437.726	1	-2
437.897	1	8
438.067	1	-2
438.238	1	-10
438.408	1	-6
438.579	1	4
438.749	1	7
438.920	1	-9
439.090	1	11
439.261	1	-6
439.431	1	-14
439.602	1	1
439.772	1	6
439.943	1	-3
440.113	1	6
440.284	1	0
440.455	1	-13
440.625	1	-5
440.796	1	-1
440.966	1	8
441.137	1	-8
441.307	1	5
441.478	1	4
441.648	1	-6
441.819	1	3
441.989	1	1
442.160	1	4
442.330	1	-2
442.501	1	-6
442.671	1	4
442.842	1	5
443.012	1	4
443.183	1	-2
443.353	1	7
443.524	1	1
443.694	1	7
443.865	1	2
444.035	1	4
444.206	1	8
444.376	1	3
444.547	1	-3
444.717	1	5
444.888	1	-3
445.058	1	-1
445.229	1	0
445.399	1	-3
445.570	1	10
445.740	1	15
445.911	1	8
446.081	1	4
446.252	1	2
446.422	1	0
446.593	1	-8
446.763	1	-2
446.934	1	10
447.104	1	0
447.275	1	1
447.445	1	10
447.616	1	-3
447.786	1	4
447.957	1	-2
448.127	1	-6
448.298	1	1
448.468	1	1
448.639	1	4
448.809	1	4
448.979	1	5
449.150	1	9
449.320	1	-1
449.491	1	4
449.661	1	7
449.832	1	-4
450.002	1	-2
450.173	1	-8
450.343	1	-1
450.514	1	2
450.684	1	1
450.855	1	10
451.025	1	-5
451.196	1	-4
451.366	1	4
451.537	1	-6
451.707	1	9
451.878	1	-7
452.048	1	7
452.218	1	-7
452.389	1	-4
452.559	1	-7
452.730	1	-4
452.900	1	3
453.071	1	4
453.241	1	-6
453.412	1	-8
453.582	1	8
453.753	1	-5
453.923	1	8
454.093	1	7
454.264	1	-10
454.434	1	2
454.605	1	3
454.775	1	15
454.946	1	10
455.116	1	-1
455.287	1	6
455.457	1	-6
455.628	1	-2
455.798	1	-11
455.968	1	6
456.139	1	8
456.309	1	-13
456.480	1	-12
456.650	1	-1
456.821	1	4
456.991	1	1
457.161	1	0
457.332	1	3
457.502	1	1
457.673	1	-5
457.843	1	5
458.014	1	1
458.184	1	6
458.355	1	9
458.525	1	-1
458.695	1	1
458.866	1	-1
459.036	1	8
459.207	1	1
459.377	1	4
459.548	1	-12
459.718	1	-6
459.888	1	5
460.059	1	-4
460.229	1	10
460.400	1	10
460.570	1	-13
460.740	1	-8
460.911	1	10
461.081	1	1
461.252	1	-6
461.422	1	3
461.593	1	0
461.763	1	-5
461.933	1	-6
462.104	1	5
462.274	1	2
462.445	1	-1
462.615	1	-10
462.785	1	2
462.956	1	-9
463.126	1	-16
463.297	1	-4
463.467	1	2
463.638	1	7
463.808	1	5
463.978	1	4
464.149	1	-4
464.319	1	-5
464.490	1	1
464.660	1	1
464.830	1	-2
465.001	1	6
465.171	1	6
465.342	1	5
465.512	1	2
465.682	1	4
465.853	1	-1
466.023	1	-8
466.194	1	0
466.364	1	8
466.534	1	2
466.705	1	5
466.875	1	-1
467.045	1	7
467.216	1	-1
467.386	1	-9
467.557	1	3
467.727	1	4
467.897	1	0
468.068	1	4
468.238	1	-7
468.409	1	1
468.579	1	1
468.749	1	3
468.920	1	-2
469.090	1	0
469.260	1	1
469.431	1	9
469.601	1	-2
469.772	1	-15
469.942	1	5
470.112	1	-3
470.283	1	4
470.453	1	5
470.623	1	7
470.794	1	1
470.964	1	-9
471.135	1	-11
471.305	1	2
471.475	1	1
471.646	1	-2
471.816	1	8
471.986	1	-3
472.157	1	15
472.327	1	-4
472.497	1	0
472.668	1	-9
472.838	1	6
473.009	1	-4
473.179	1	8
473.349	1	-5
473.520	1	-4
473.690	1	5
473.860	1	1
474.031	1	7
474.201	1	-6
474.371	1	7
474.542	1	3
474.712	1	9
474.882	1	-10
475.053	1	-11
475.223	1	-4
475.394	1	6
475.564	1	14
475.734	1	-8
475.905	1	2
476.075	1	-1
476.245	1	0
476.416	1	-6
476.586	1	-6
476.756	1	0
476.927	1	15
477.097	1	0
477.267	1	0
477.438	1	-3
477.608	1	3
477.778	1	10
477.949	1	-1
478.119	1	3
478.289	1	1
478.460	1	-3
478.630	1	-2
478.800	1	-1
478.971	1	0
479.141	1	6
479.311	1	-2
479.482	1	-6
479.652	1	5
479.822	1	6
479.993	1	-6
480.163	1	-8
480.333	1	-4
480.504	1	-8
480.674	1	7
480.844	1	3
481.015	1	-8
481.185	1	3
481.355	1	8
481.525	1	-3
481.696	1	2
481.866	1	-4
482.036	1	-13
482.207	1	0
482.377	1	-4
482.547	1	0
482.718	1	1
482.888	1	1
483.058	1	0
483.229	1	7
483.399	1	0
483.569	1	-2
483.740	1	-7
483.910	1	0
484.080	1	-12
484.250	1	8
484.421	1	2
484.591	1	11
484.761	1	-5
484.932	1	-1
485.102	1	4
485.272	1	7
485.443	1	7
485.613	1	-9
485.783	1	8
485.953	1	-4
486.124	1	0
486.294	1	11
486.464	1	-1
486.635	1	12
486.805	1	16
486.975	1	-14
487.146	1	-3
487.316	1	2
487.486	1	-2
487.656	1	-8
487.827	1	5
487.997	1	12
488.167	1	1
488.338	1	15
488.508	1	3
488.678	1	2
488.848	1	-4
489.019	1	-1
489.189	1	-1
489.359	1	-2
489.529	1	3
489.700	1	6
489.870	1	2
490.040	1	-3
490.211	1	20
490.381	1	-4
490.551	1	0
490.721	1	4
490.892	1	0
491.062	1	3
491.232	1	1
491.402	1	2
491.573	1	-4
491.743	1	-12
491.913	1	1
492.084	1	-6
492.254	1	-1
492.424	1	-3
492.594	1	7
492.765	1	14
492.935	1	1
493.105	1	18
493.275	1	-1
493.446	1	-3
493.616	1	2
493.786	1	0
493.956	1	-1
494.127	1	-16
494.297	1	3
494.467	1	-5
494.637	1	3
494.808	1	10
494.978	1	4
495.148	1	12
495.318	1	13
495.489	1	1
495.659	1	1
495.829	1	-2
495.999	1	2
496.170	1	1
496.340	1	2
496.510	1	3
496.680	1	-1
496.851	1	6
497.021	1	4
497.191	1	1
497.361	1	7
497.532	1	-4
497.702	1	-3
497.872	1	2
498.042	1	1
498.213	1	9
498.383	1	5
498.553	1	4
498.723	1	3
498.894	1	7
499.064	1	9
499.234	1	-3
499.404	1	-5
499.574	1	-8
499.745	1	-3
499.915	1	7
500.085	1	-1
500.255	1	8
500.426	1	3
500.596	1	8
500.766	1	13
500.936	1	-5
501.106	1	-4
501.277	1	6
501.447	1	1
501.617	1	9
501.787	1	1
501.958	1	1
502.128	1	0
502.298	1	6
502.468	1	13
502.638	1	8
502.809	1	11
502.979	1	-7
503.149	1	7
503.319	1	3
503.489	1	2
503.660	1	-5
503.830	1	0
504.000	1	-1
504.170	1	2
504.340	1	4
504.511	1	18
504.681	1	3
504.851	1	-2
505.021	1	6
505.192	1	9
505.362	1	0
505.532	1	1
505.702	1	5
505.872	1	-2
506.043	1	4
506.213	1	-4
506.383	1	2
506.553	1	11
506.723	1	0
506.893	1	-3
507.064	1	-9
507.234	1	12
507.404	1	-4
507.574	1	4
507.744	1	-18
507.915	1	13
508.085	1	18
508.255	1	6
508.425	1	8
508.595	1	4
508.766	1	-5
508.936	1	5
509.106	1	-3
509.276	1	10
509.446	1	-3
509.616	1	6
509.787	1	4
509.957	1	5
510.127	1	11
510.297	1	-3
510.467	1	-7
510.638	1	-3
510.808	1	2
510.978	1	-15
511.148	1	5
511.318	1	4
511.488	1	17
511.659	1	7
511.829	1	6
511.999	1	14
512.169	1	3
512.339	1	-1
512.509	1	8
512.680	1	6
512.850	1	3
513.020	1	-3
513.190	1	-1
513.360	1	7
513.530	1	-7
513.700	1	9
513.871	1	16
514.041	1	0
514.211	1	-6
514.381	1	3
514.551	1	4
514.721	1	5
514.892	1	4
515.062	1	10
515.232	1	6
515.402	1	7
515.572	1	-7
515.742	1	15
515.912	1	11
516.083	1	-6
516.253	1	3
516.423	1	15
516.593	1	4
516.763	1	6
516.933	1	3
517.104	1	-1
517.274	1	8
517.444	1	2
517.614	1	-1
517.784	1	-10
517.954	1	1
518.124	1	4
518.294	1	4
518.465	1	7
518.635	1	7
518.805	1	6
518.975	1	11
519.145	1	4
519.315	1	3
519.485	1	-9
519.656	1	2
519.826	1	5
519.996	1	7
520.166	1	8
520.336	1	2
520.506	1	9
520.676	1	1
520.846	1	-8
521.017	1	-5
521.187	1	9
521.357	1	-1
521.527	1	6
521.697	1	6
521.867	1	0
522.037	1	0
522.207	1	-5
522.377	1	7
522.548	1	-7
522.718	1	2
522.888	1	2
523.058	1	27
523.228	1	7
523.398	1	0
523.568	1	0
523.738	1	8
523.909	1	7
524.079	1	8
524.249	1	1
524.419	1	2
524.589	1	10
524.759	1	8
524.929	1	6
525.099	1	-2
525.269	1	12
525.439	1	-10
525.610	1	9
525.780	1	13
525.950	1	-5
526.120	1	-1
526.290	1	-2
526.460	1	4
526.630	1	6
526.800	1	6
526.970	1	-1
527.140	1	1
527.311	1	15
527.481	1	9
527.651	1	16
527.821	1	-15
527.991	1	5
528.161	1	1
528.331	1	5
528.501	1	-5
528.671	1	5
528.841	1	6
529.011	1	2
529.181	1	7
529.352	1	16
529.522	1	9
529.692	1	8
529.862	1	8
530.032	1	-4
530.202	1	7
530.372	1	-3
530.542	1	10
530.712	1	21
530.882	1	9
531.052	1	13
531.222	1	-9
531.392	1	7
531.563	1	12
531.733	1	13
531.903	1	16
532.073	1	5
532.243	1	2
532.413	1	3
532.583	1	9
532.753	1	2
532.923	1	7
533.093	1	10
533.263	1	5
533.433	1	11
533.603	1	3
533.773	1	-4
533.943	1	4
534.113	1	6
534.284	1	2
534.454	1	8
534.624	1	8
534.794	1	2
534.964	1	-7
535.134	1	-2
535.304	1	10
535.474	1	7
535.644	1	10
535.814	1	10
535.984	1	0
536.154	1	-4
536.324	1	4
536.494	1	16
536.664	1	14
536.834	1	3
537.004	1	13
537.174	1	15
537.344	1	3
537.514	1	4
537.685	1	-5
537.855	1	6
538.025	1	-2
538.195	1	24
538.365	1	7
538.535	1	17
538.705	1	-4
538.875	1	9
539.045	1	9
539.215	1	0
539.385	1	-1
539.555	1	0
539.725	1	4
539.895	1	6
540.065	1	0
540.235	1	-2
540.405	1	5
540.575	1	15
540.745	1	-2
540.915	1	9
541.085	1	4
541.255	1	-2
541.425	1	4
541.595	1	2
541.765	1	5
541.935	1	8
542.105	1	14
542.275	1	-6
542.445	1	15
542.615	1	-1
542.785	1	7
542.955	1	2
543.125	1	10
543.295	1	5
543.465	1	11
543.635	1	3
543.805	1	12
543.975	1	10
544.145	1	-5
544.315	1	3
544.485	1	1
544.655	1	7
544.825	1	13
544.995	1	5
545.165	1	10
545.335	1	9
545.505	1	5
545.675	1	8
545.845	1	-10
546.015	1	9
546.185	1	-1
546.355	1	14
546.525	1	6
546.695	1	-9
546.865	1	-7
547.035	1	13
547.205	1	-3
547.375	1	16
547.545	1	5
547.715	1	3
547.885	1	-1
548.055	1	7
548.225	1	-5
548.395	1	7
548.565	1	12
548.735	1	10
548.905	1	3
549.075	1	3
549.245	1	7
549.415	1	4
549.585	1	-5
549.755	1	-5
549.925	1	10
550.095	1	5
550.265	1	-1
550.435	1	18
550.605	1	4
550.775	1	-3
550.945	1	13
551.115	1	5
551.285	1	11
551.455	1	8
551.625	1	-5
551.795	1	4
551.965	1	5
552.135	1	10
552.305	1	0
552.475	1	2
552.645	1	10
552.815	1	8
552.985	1	5
553.155	1	11
553.325	1	6
553.495	1	6
553.665	1	4
553.835	1	6
554.004	1	2
554.174	1	-1
554.344	1	-3
554.514	1	11
554.684	1	0
554.854	1	3
555.024	1	3
555.194	1	13
555.364	1	10
555.534	1	2
555.704	1	9
555.874	1	1
556.044	1	2
556.214	1	2
556.384	1	8
556.554	1	-4
556.724	1	-1
556.894	1	14
557.064	1	6
557.234	1	2
557.404	1	-4
557.573	1	12
557.743	1	9
557.913	1	2
558.083	1	-13
558.253	1	-2
558.423	1	-5
558.593	1	6
558.763	1	2
558.933	1	4
559.103	1	-5
559.273	1	1
559.443	1	4
559.613	1	9
559.783	1	0
559.953	1	-4
560.122	1	-10
560.292	1	4
560.462	1	-4
560.632	1	8
560.802	1	2
560.972	1	9
561.142	1	6
561.312	1	6
561.482	1	10
561.652	1	4
561.822	1	-2
561.992	1	6
562.162	1	1
562.331	1	6
562.501	1	5
562.671	1	11
562.841	1	-10
563.011	1	6
563.181	1	11
563.351	1	-10
563.521	1	7
563.691	1	10
563.861	1	14
564.031	1	5
564.201	1	1
564.370	1	11
564.540	1	15
564.710	1	-1
564.880	1	4
565.050	1	2
565.220	1	0
565.390	1	-12
565.560	1	11
565.730	1	1
565.900	1	-4
566.069	1	0
566.239	1	5
566.409	1	1
566.579	1	-3
566.749	1	6
566.919	1	10
567.089	1	-1
567.259	1	13
567.429	1	8
567.599	1	-2
567.768	1	9
567.938	1	3
568.108	1	7
568.278	1	-13
568.448	1	-11
568.618	1	1
568.788	1	4
568.958	1	4
569.128	1	5
569.297	1	5
569.467	1	7
569.637	1	-1
569.807	1	-1
569.977	1	10
570.147	1	-1
570.317	1	13
570.487	1	4
570.656	1	1
570.826	1	-3
570.996	1	-8
571.166	1	0
571.336	1	0
571.506	1	-3
571.676	1	12
571.846	1	10
572.015	1	-3
572.185	1	0
572.355	1	10
572.525	1	-4
572.695	1	7
572.865	1	10
573.035	1	3
573.205	1	9
573.374	1	11
573.544	1	5
573.714	1	5
573.884	1	0
574.054	1	4
574.224	1	1
574.394	1	3
574.563	1	6
574.733	1	-8
574.903	1	7
575.073	1	0
575.243	1	-15
575.413	1	-2
575.583	1	1
575.752	1	-2
575.922	1	-4
576.092	1	6
576.262	1	-2
576.432	1	-5
576.602	1	4
576.772	1	5
576.941	1	-1
577.111	1	-4
577.281	1	-3
577.451	1	-7
577.621	1	2
577.791	1	-1
577.960	1	-6
578.130	1	1
578.300	1	1
578.470	1	8
578.640	1	-8
578.810	1	2
578.979	1	1
579.149	1	4
579.319	1	10
579.489	1	-6
579.659	1	8
579.829	1	11
579.998	1	1
580.168	1	14
580.338	1	-15
580.508	1	-10
580.678	1	-1
580.848	1	-11
581.017	1	-5
581.187	1	-5
581.357	1	0
581.527	1	4
581.697	1	-8
581.867	1	-1
582.036	1	6
582.206	1	0
582.376	1	1
582.546	1	4
582.716	1	6
582.885	1	-2
583.055	1	7
583.225	1	8
583.395	1	8
583.565	1	17
583.735	1	-1
583.904	1	-6
584.074	1	-12
584.244	1	13
584.414	1	-4
584.584	1	7
584.753	1	4
584.923	1	2
585.093	1	7
585.263	1	0
585.433	1	6
585.602	1	-1
585.772	1	-1
585.942	1	6
586.112	1	5
586.282	1	-2
586.451	1	2
586.621	1	6
586.791	1	3
586.961	1	-3
587.131	1	-5
587.300	1	-7
587.470	1	1
587.640	1	-7
587.810	1	0
587.980	1	5
588.149	1	0
588.319	1	2
588.489	1	11
588.659	1	-5
588.829	1	7
588.998	1	-11
589.168	1	13
589.338	1	4
589.508	1	1
589.677	1	2
589.847	1	4
590.017	1	-4
590.187	1	-2
590.357	1	3
590.526	1	2
590.696	1	6
590.866	1	1
591.036	1	10
591.205	1	7
591.375	1	-2
591.545	1	-8
591.715	1	-15
591.885	1	-2
592.054	1	-6
592.224	1	-1
592.394	1	2
592.564	1	-7
592.733	1	-3
592.903	1	4
593.073	1	9
593.243	1	-3
593.412	1	-2
593.582	1	15
593.752	1	-9
593.922	1	-9
594.091	1	0
594.261	1	4
594.431	1	-5
594.601	1	-2
594.771	1	4
594.940	1	-9
595.110	1	-4
595.280	1	-12
595.450	1	3
595.619	1	-3
595.789	1	4
595.959	1	0
596.129	1	-1
596.298	1	7
596.468	1	5
596.638	1	2
596.808	1	3
596.977	1	-10
597.147	1	1
597.317	1	4
597.487	1	-4
597.656	1	9
597.826	1	-2
597.996	1	6
598.166	1	3
598.335	1	4
598.505	1	-9
598.675	1	9
598.844	1	-3
599.014	1	-2
599.184	1	-4
599.354	1	-5
599.523	1	-11
599.693	1	4
599.863	1	5
600.033	1	-3
600.202	1	6
600.372	1	-4
600.542	1	-4
600.712	1	9
600.881	1	-2
601.051	1	3
601.221	1	-3
601.390	1	-2
601.560	1	-1
601.730	1	-2
601.900	1	-3
602.069	1	4
602.239	1	-2
602.409	1	-2
602.578	1	1
602.748	1	-5
602.918	1	-4
603.088	1	13
603.257	1	1
603.427	1	-6
603.597	1	11
603.767	1	-5
603.936	1	6
604.106	1	3
604.276	1	-3
604.445	1	-2
604.615	1	5
604.785	1	4
604.954	1	2
605.124	1	-3
605.294	1	-3
605.464	1	-3
605.633	1	2
605.803	1	0
605.973	1	-8
606.142	1	3
606.312	1	-7
606.482	1	-4
606.652	1	-14
606.821	1	18
606.991	1	4
607.161	1	2
607.330	1	8
607.500	1	7
607.670	1	-4
607.839	1	0
608.009	1	-15
608.179	1	9
608.348	1	6
608.518	1	3
608.688	1	8
608.858	1	2
609.027	1	0
609.197	1	-3
609.367	1	0
609.536	1	-1
609.706	1	-1
609.876	1	2
610.045	1	3
610.215	1	0
610.385	1	3
610.554	1	-7
610.724	1	-6
610.894	1	-2
611.063	1	6
611.233	1	-10
611.403	1	9
611.572	1	-2
611.742	1	-8
611.912	1	-6
612.081	1	3
612.251	1	-3
612.421	1	21
612.590	1	1
612.760	1	-5
612.930	1	-1
613.099	1	-15
613.269	1	1
613.439	1	7
613.608	1	5
613.778	1	4
613.948	1	9
614.117	1	12
614.287	1	7
614.457	1	-4
614.626	1	10
614.796	1	4
614.966	1	2
615.135	1	-10
615.305	1	-7
615.475	1	1
615.644	1	-9
615.814	1	4
615.984	1	7
616.153	1	8
616.323	1	-4
616.493	1	4
616.662	1	-10
616.832	1	3
617.002	1	-10
617.171	1	-7
617.341	1	13
617.511	1	3
617.680	1	3
617.850	1	2
618.019	1	8
618.189	1	-4
618.359	1	4
618.528	1	-10
618.698	1	-3
618.868	1	6
619.037	1	3
619.207	1	-8
619.377	1	-7
619.546	1	4
619.716	1	-1
619.885	1	7
620.055	1	-3
620.225	1	3
620.394	1	4
620.564	1	-11
620.734	1	3
620.903	1	12
621.073	1	2
621.242	1	-8
621.412	1	4
621.582	1	-1
621.751	1	3
621.921	1	-4
622.091	1	-7
622.260	1	-2
622.430	1	-1
622.599	1	7
622.769	1	-6
622.939	1	1
623.108	1	-2
623.278	1	-4
623.448	1	-4
623.617	1	3
623.787	1	9
623.956	1	-3
624.126	1	-3
624.296	1	-2
624.465	1	7
624.635	1	3
624.804	1	-4
624.974	1	-11
625.144	1	1
625.313	1	-6
625.483	1	0
625.652	1	14
625.822	1	3
625.992	1	-9
626.161	1	-2
626.331	1	1
626.501	1	-1
626.670	1	0
626.840	1	11
627.009	1	-3
627.179	1	4
627.348	1	2
627.518	1	5
627.688	1	2
627.857	1	0
628.027	1	-4
628.196	1	2
628.366	1	-4
628.536	1	-1
628.705	1	-4
628.875	1	5
629.044	1	0
629.214	1	4
629.384	1	-10
629.553	1	4
629.723	1	14
629.892	1	0
630.062	1	0
630.232	1	4
630.401	1	-3
630.571	1	-1
630.740	1	-10
630.910	1	5
631.079	1	5
631.249	1	-2
631.419	1	1
631.588	1	-11
631.758	1	7
631.927	1	-5
632.097	1	6
632.266	1	-16
632.436	1	3
632.606	1	9
632.775	1	-5
632.945	1	-4
633.114	1	16
633.284	1	-3
633.453	1	-5
633.623	1	-1
633.793	1	4
633.962	1	0
634.132	1	-1
634.301	1	-15
634.471	1	-22
634.640	1	-3
634.810	1	-4
634.979	1	11
635.149	1	-1
635.319	1	9
635.488	1	-4
635.658	1	-6
635.827	1	-3
635.997	1	-5
636.166	1	-5
636.336	1	18
636.505	1	-3
636.675	1	-8
636.845	1	4
637.014	1	0
637.184	1	-11
637.353	1	6
637.523	1	-11
637.692	1	-2
637.862	1	-17
638.031	1	11
638.201	1	12
638.370	1	1
638.540	1	8
638.710	1	-1
638.879	1	11
639.049	1	1
639.218	1	0
639.388	1	15
639.557	1	2
639.727	1	-4
639.896	1	3
640.066	1	-2
640.235	1	9
640.405	1	-2
640.574	1	-1
640.744	1	4
640.914	1	0
641.083	1	-9
641.253	1	1
641.422	1	-2
641.592	1	-10
641.761	1	-2
641.931	1	12
642.100	1	-1
642.270	1	-1
642.439	1	-2
642.609	1	-4
642.778	1	-6
642.948	1	6
643.117	1	-1
643.287	1	11
643.456	1	12
643.626	1	8
643.795	1	-3
643.965	1	0
644.134	1	2
644.304	1	-6
644.473	1	7
644.643	1	4
644.812	1	11
644.982	1	0
645.151	1	-3
645.321	1	14
645.490	1	7
645.660	1	1
645.829	1	-2
645.999	1	-9
646.168	1	-2
646.338	1	7
646.507	1	1
646.677	1	-1
646.846	1	8
647.016	1	-1
647.185	1	0
647.355	1	-5
647.524	1	8
647.694	1	-2
647.863	1	-6
648.033	1	-9
648.202	1	4
648.372	1	0
648.541	1	2
648.711	1	5
648.880	1	5
649.050	1	5
649.219	1	6
649.389	1	1
649.558	1	-7
649.728	1	-4
649.897	1	-6
650.067	1	-1
650.236	1	3
650.406	1	3
650.575	1	-2
650.745	1	-10
650.914	1	-8
651.084	1	-1
651.253	1	-6
651.423	1	7
651.592	1	4
651.762	1	7
651.931	1	-2
652.101	1	0
652.270	1	4
652.440	1	11
652.609	1	11
652.778	1	1
652.948	1	-4
653.117	1	-7
653.287	1	8
653.456	1	6
653.626	1	5
653.795	1	5
653.965	1	9
654.134	1	-2
654.304	1	-1
654.473	1	4
654.643	1	18
654.812	1	-2
654.982	1	-10
655.151	1	1
655.320	1	0
655.490	1	7
655.659	1	-3
655.829	1	1
655.998	1	6
656.168	1	1
656.337	1	-2
656.507	1	9
656.676	1	-4
656.846	1	-13
657.015	1	3
657.184	1	5
657.354	1	-7
657.523	1	-4
657.693	1	2
657.862	1	1
658.032	1	3
658.201	1	1
658.371	1	-4
658.540	1	6
658.709	1	-10
658.879	1	-2
659.048	1	-3
659.218	1	-1
659.387	1	-3
659.557	1	1
659.726	1	-2
659.895	1	2
660.065	1	10
660.234	1	0
660.404	1	7
660.573	1	-6
660.743	1	-8
660.912	1	2
661.081	1	6
661.251	1	2
661.420	1	1
661.590	1	2
661.759	1	8
661.929	1	-4
662.098	1	-20
662.267	1	1
662.437	1	-2
662.606	1	1
662.776	1	2
662.945	1	-2
663.115	1	-12
663.284	1	-13
663.453	1	1
663.623	1	5
663.792	1	0
663.962	1	-10
664.131	1	-8
664.300	1	2
664.470	1	-2
664.639	1	2
664.809	1	1
664.978	1	4
665.148	1	-1
665.317	1	-6
665.486	1	0
665.656	1	-4
665.825	1	-6
665.995	1	-1
666.164	1	9
666.333	1	2
666.503	1	2
666.672	1	-12
666.842	1	-6
667.011	1	7
667.180	1	1
667.350	1	3
667.519	1	-3
667.689	1	-8
667.858	1	0
668.027	1	-8
668.197	1	0
668.366	1	0
668.536	1	0
668.705	1	-7
668.874	1	-6
669.044	1	-1
669.213	1	1
669.382	1	0
669.552	1	8
669.721	1	1
669.891	1	3
670.060	1	5
670.229	1	4
670.399	1	14
670.568	1	1
670.738	1	-12
670.907	1	-10
671.076	1	10
671.246	1	-1
671.415	1	7
671.584	1	-11
671.754	1	-1
671.923	1	-10
672.093	1	-4
672.262	1	-7
672.431	1	-5
672.601	1	-8
672.770	1	5
672.939	1	-10
673.109	1	8
673.278	1	9
673.448	1	5
673.617	1	0
673.786	1	-8
