325.333	1	1
325.504	1	6
325.675	1	-1
325.846	1	-7
326.017	1	-8
326.188	1	12
326.359	1	-6
326.531	1	-2
326.702	1	-3
326.873	1	5
327.044	1	-9
327.215	1	-5
327.386	1	-12
327.557	1	-1
327.728	1	-6
327.899	1	0
328.070	1	6
328.241	1	-3
328.412	1	5
328.583	1	-4
328.754	1	-6
328.926	1	2
329.097	1	8
329.268	1	-4
329.439	1	-2
329.610	1	-3
329.781	1	-3
329.952	1	6
330.123	1	5
330.294	1	5
330.465	1	0
330.636	1	-1
330.807	1	6
330.978	1	-7
331.149	1	4
331.320	1	-3
331.492	1	-7
331.663	1	-11
331.834	1	2
332.005	1	15
332.176	1	3
332.347	1	3
332.518	1	11
332.689	1	0
332.860	1	-3
333.031	1	-3
333.202	1	2
333.373	1	-3
333.544	1	-3
333.715	1	8
333.886	1	-1
334.057	1	-9
334.228	1	-5
334.399	1	0
334.570	1	0
334.741	1	-4
334.912	1	-12
335.084	1	4
335.255	1	-3
335.426	1	-5
335.597	1	3
335.768	1	-4
335.939	1	-1
336.110	1	-3
336.281	1	-4
336.452	1	2
336.623	1	-3
336.794	1	-8
336.965	1	-6
337.136	1	-8
337.307	1	2
337.478	1	1
337.649	1	6
337.820	1	5
337.991	1	3
338.162	1	-1
338.333	1	11
338.504	1	1
338.675	1	12
338.846	1	1
339.017	1	-6
339.188	1	-3
339.359	1	-7
339.530	1	2
339.701	1	0
339.872	1	-4
340.043	1	1
340.214	1	3
340.385	1	5
340.556	1	-2
340.727	1	-4
340.898	1	-1
341.069	1	-5
341.240	1	2
341.411	1	-2
341.582	1	3
341.753	1	5
341.924	1	-15
342.095	1	4
342.266	1	-4
342.437	1	5
342.608	1	-9
342.779	1	2
342.950	1	1
343.121	1	8
343.292	1	-8
343.463	1	0
343.634	1	-3
343.805	1	7
343.976	1	-2
344.147	1	-4
344.318	1	2
344.489	1	-21
344.660	1	11
344.831	1	-1
345.002	1	-5
345.173	1	-1
345.344	1	-3
345.515	1	2
345.686	1	1
345.857	1	2
346.028	1	-6
346.199	1	-10
346.370	1	0
346.541	1	-8
346.712	1	8
346.883	1	1
347.054	1	-6
347.225	1	1
347.396	1	1
347.567	1	-3
347.738	1	8
347.909	1	-2
348.080	1	-10
348.251	1	-4
348.422	1	5
348.593	1	-3
348.764	1	-8
348.935	1	-2
349.106	1	5
349.277	1	1
349.448	1	-4
349.619	1	-3
349.790	1	-4
349.961	1	4
350.132	1	-6
350.303	1	-1
350.474	1	-2
350.645	1	0
350.816	1	-12
350.987	1	-5
351.157	1	8
351.328	1	-3
351.499	1	2
351.670	1	5
351.841	1	10
352.012	1	-10
352.183	1	-10
352.354	1	1
352.525	1	4
352.696	1	-5
352.867	1	-5
353.038	1	13
353.209	1	8
353.380	1	1
353.551	1	5
353.722	1	1
353.893	1	4
354.064	1	-5
354.235	1	-3
354.406	1	-11
354.576	1	-8
354.747	1	4
354.918	1	-10
355.089	1	3
355.260	1	-1
355.431	1	16
355.602	1	-1
355.773	1	-1
355.944	1	-11
356.115	1	-5
356.286	1	1
356.457	1	-6
356.628	1	0
356.799	1	1
356.970	1	-6
357.141	1	-12
357.311	1	-1
357.482	1	-11
357.653	1	-2
357.824	1	1
357.995	1	-1
358.166	1	1
358.337	1	0
358.508	1	2
358.679	1	-1
358.850	1	-4
359.021	1	-1
359.192	1	4
359.363	1	0
359.533	1	-6
359.704	1	1
359.875	1	3
360.046	1	-5
360.217	1	3
360.388	1	3
360.559	1	-4
360.730	1	3
360.901	1	3
361.072	1	-1
361.243	1	4
361.414	1	8
361.584	1	-5
361.755	1	8
361.926	1	18
362.097	1	-5
362.268	1	10
362.439	1	-9
362.610	1	5
362.781	1	-3
362.952	1	8
363.123	1	8
363.293	1	1
363.464	1	6
363.635	1	-2
363.806	1	4
363.977	1	7
364.148	1	1
364.319	1	-3
364.490	1	0
364.661	1	1
364.832	1	9
365.002	1	6
365.173	1	7
365.344	1	1
365.515	1	-1
365.686	1	3
365.857	1	0
366.028	1	-2
366.199	1	-3
366.370	1	0
366.540	1	11
366.711	1	11
366.882	1	3
367.053	1	5
367.224	1	5
367.395	1	9
367.566	1	17
367.737	1	-11
367.908	1	1
368.078	1	8
368.249	1	7
368.420	1	-3
368.591	1	16
368.762	1	4
368.933	1	12
369.104	1	4
369.274	1	2
369.445	1	-7
369.616	1	-6
369.787	1	9
369.958	1	7
370.129	1	5
370.300	1	-1
370.471	1	-1
370.641	1	9
370.812	1	4
370.983	1	0
371.154	1	0
371.325	1	-4
371.496	1	4
371.667	1	-4
371.837	1	0
372.008	1	1
372.179	1	0
372.350	1	-5
372.521	1	9
372.692	1	4
372.863	1	2
373.033	1	2
373.204	1	10
373.375	1	6
373.546	1	-2
373.717	1	-1
373.888	1	-2
374.059	1	5
374.229	1	-3
374.400	1	-5
374.571	1	-3
374.742	1	13
374.913	1	-5
375.084	1	-9
375.254	1	-3
375.425	1	0
375.596	1	-2
375.767	1	0
375.938	1	2
376.109	1	-11
376.279	1	-1
376.450	1	0
376.621	1	0
376.792	1	2
376.963	1	1
377.134	1	-6
377.304	1	8
377.475	1	2
377.646	1	6
377.817	1	11
377.988	1	-8
378.159	1	-1
378.329	1	1
378.500	1	-13
378.671	1	2
378.842	1	-12
379.013	1	-4
379.184	1	5
379.354	1	10
379.525	1	15
379.696	1	-6
379.867	1	-1
380.038	1	3
380.209	1	1
380.379	1	-11
380.550	1	4
380.721	1	9
380.892	1	2
381.063	1	4
381.233	1	11
381.404	1	4
381.575	1	-3
381.746	1	10
381.917	1	-4
382.087	1	3
382.258	1	15
382.429	1	-3
382.600	1	3
382.771	1	2
382.941	1	4
383.112	1	4
383.283	1	6
383.454	1	7
383.625	1	1
383.795	1	7
383.966	1	3
384.137	1	4
384.308	1	12
384.479	1	12
384.649	1	4
384.820	1	6
384.991	1	11
385.162	1	7
385.333	1	17
385.503	1	0
385.674	1	3
385.845	1	16
386.016	1	13
386.187	1	12
386.357	1	9
386.528	1	25
386.699	1	13
386.870	1	9
387.041	1	1
387.211	1	11
387.382	1	6
387.553	1	7
387.724	1	4
387.894	1	8
388.065	1	7
388.236	1	16
388.407	1	12
388.578	1	11
388.748	1	15
388.919	1	13
389.090	1	12
389.261	1	-9
389.431	1	8
389.602	1	11
389.773	1	7
389.944	1	9
390.114	1	17
390.285	1	2
390.456	1	1
390.627	1	-9
390.798	1	9
390.968	1	-3
391.139	1	-9
391.310	1	11
391.481	1	-3
391.651	1	14
391.822	1	9
391.993	1	10
392.164	1	4
392.334	1	10
392.505	1	3
392.676	1	9
392.847	1	14
393.017	1	0
393.188	1	10
393.359	1	8
393.530	1	14
393.700	1	11
393.871	1	-1
394.042	1	6
394.213	1	5
394.383	1	10
394.554	1	4
394.725	1	0
394.896	1	-5
395.066	1	19
395.237	1	15
395.408	1	12
395.579	1	14
395.749	1	5
395.920	1	13
396.091	1	11
396.262	1	9
396.432	1	-4
396.603	1	13
396.774	1	1
396.945	1	9
397.115	1	13
397.286	1	14
397.457	1	10
397.627	1	3
397.798	1	14
397.969	1	-5
398.140	1	3
398.310	1	15
398.481	1	14
398.652	1	17
398.823	1	18
398.993	1	10
399.164	1	12
399.335	1	6
399.505	1	6
399.676	1	8
399.847	1	2
400.018	1	11
400.188	1	8
400.359	1	13
400.530	1	10
400.700	1	-3
400.871	1	-10
401.042	1	-5
401.213	1	9
401.383	1	13
401.554	1	9
401.725	1	1
401.895	1	6
402.066	1	12
402.237	1	4
402.408	1	15
402.578	1	10
402.749	1	-2
402.920	1	3
403.090	1	3
403.261	1	3
403.432	1	0
403.603	1	3
403.773	1	13
403.944	1	12
404.115	1	-7
404.285	1	3
404.456	1	6
404.627	1	5
404.797	1	21
404.968	1	1
405.139	1	6
405.310	1	-1
405.480	1	9
405.651	1	6
405.822	1	19
405.992	1	3
406.163	1	12
406.334	1	9
406.504	1	3
406.675	1	17
406.846	1	-3
407.016	1	2
407.187	1	2
407.358	1	5
407.528	1	11
407.699	1	9
407.870	1	5
408.041	1	1
408.211	1	0
408.382	1	11
408.553	1	8
408.723	1	6
408.894	1	-4
409.065	1	10
409.235	1	-3
409.406	1	-1
409.577	1	9
409.747	1	3
409.918	1	-7
410.089	1	5
410.259	1	0
410.430	1	15
410.601	1	0
410.771	1	-1
410.942	1	-2
411.113	1	11
411.283	1	8
411.454	1	-4
411.625	1	0
411.795	1	6
411.966	1	-3
412.137	1	7
412.307	1	8
412.478	1	12
412.649	1	2
412.819	1	6
412.990	1	4
413.161	1	10
413.331	1	-7
413.502	1	12
413.672	1	3
413.843	1	2
414.014	1	5
414.184	1	-7
414.355	1	-1
414.526	1	-5
414.696	1	-7
414.867	1	8
415.038	1	2
415.208	1	1
415.379	1	10
415.550	1	10
415.720	1	-1
415.891	1	15
416.062	1	7
416.232	1	2
416.403	1	5
416.573	1	1
416.744	1	8
416.915	1	5
417.085	1	-4
417.256	1	3
417.427	1	4
417.597	1	-7
417.768	1	3
417.939	1	1
418.109	1	7
418.280	1	11
418.450	1	5
418.621	1	4
418.792	1	5
418.962	1	-13
419.133	1	7
419.304	1	8
419.474	1	-6
419.645	1	17
419.815	1	-4
419.986	1	6
420.157	1	13
420.327	1	4
420.498	1	4
420.669	1	4
420.839	1	7
421.010	1	8
421.180	1	12
421.351	1	0
421.522	1	1
421.692	1	11
421.863	1	1
422.033	1	-9
422.204	1	-10
422.375	1	0
422.545	1	4
422.716	1	5
422.886	1	4
423.057	1	-3
423.228	1	-12
423.398	1	9
423.569	1	4
423.740	1	-11
423.910	1	-11
424.081	1	4
424.251	1	-10
424.422	1	8
424.593	1	1
424.763	1	3
424.934	1	-2
425.104	1	15
425.275	1	-7
425.445	1	-8
425.616	1	-4
425.787	1	-12
425.957	1	15
426.128	1	1
426.298	1	-4
426.469	1	5
426.640	1	-2
426.810	1	3
426.981	1	-7
427.151	1	-3
427.322	1	3
427.493	1	3
427.663	1	-1
427.834	1	-5
428.004	1	7
428.175	1	0
428.345	1	12
428.516	1	0
428.687	1	-3
428.857	1	0
429.028	1	-2
429.198	1	-9
429.369	1	3
429.540	1	6
429.710	1	-11
429.881	1	10
430.051	1	7
430.222	1	7
430.392	1	-5
430.563	1	12
430.734	1	-1
430.904	1	3
431.075	1	-5
431.245	1	14
431.416	1	-11
431.586	1	0
431.757	1	3
431.927	1	4
432.098	1	-6
432.269	1	3
432.439	1	-7
432.610	1	-4
432.780	1	-9
432.951	1	1
433.121	1	2
433.292	1	4
433.462	1	0
433.633	1	-5
433.804	1	-11
433.974	1	-8
434.145	1	-5
434.315	1	2
434.486	1	1
434.656	1	-6
434.827	1	0
434.997	1	6
435.168	1	-6
435.339	1	6
435.509	1	3
435.680	1	-6
435.850	1	4
436.021	1	4
436.191	1	0
436.362	1	2
436.532	1	2
436.703	1	2
436.873	1	-3
437.044	1	-1
437.214	1	-1
437.385	1	-1
437.556	1	-6
437.726	1	2
437.897	1	8
438.067	1	1
438.238	1	-8
438.408	1	-2
438.579	1	7
438.749	1	-5
438.920	1	-10
439.090	1	8
439.261	1	2
439.431	1	-5
439.602	1	3
439.772	1	2
439.943	1	7
440.113	1	1
440.284	1	6
440.455	1	-9
440.625	1	8
440.796	1	5
440.966	1	9
441.137	1	4
441.307	1	2
441.478	1	-1
441.648	1	-1
441.819	1	-6
441.989	1	7
442.160	1	5
442.330	1	3
442.501	1	-9
442.671	1	-1
442.842	1	9
443.012	1	4
443.183	1	-2
443.353	1	6
443.524	1	-4
443.694	1	2
443.865	1	-2
444.035	1	-2
444.206	1	3
444.376	1	5
444.547	1	2
444.717	1	11
444.888	1	-4
445.058	1	6
445.229	1	0
445.399	1	0
445.570	1	-3
445.740	1	10
445.911	1	2
446.081	1	6
446.252	1	-11
446.422	1	12
446.593	1	-6
446.763	1	13
446.934	1	3
447.104	1	-15
447.275	1	-2
447.445	1	-1
447.616	1	-5
447.786	1	6
447.957	1	0
448.127	1	10
448.298	1	0
448.468	1	4
448.639	1	1
448.809	1	-3
448.979	1	-4
449.150	1	6
449.320	1	0
449.491	1	-4
449.661	1	5
449.832	1	2
450.002	1	1
450.173	1	-5
450.343	1	1
450.514	1	0
450.684	1	-2
450.855	1	4
451.025	1	3
451.196	1	1
451.366	1	-5
451.537	1	-6
451.707	1	6
451.878	1	1
452.048	1	4
452.218	1	-3
452.389	1	-4
452.559	1	-4
452.730	1	6
452.900	1	0
453.071	1	-7
453.241	1	-2
453.412	1	-2
453.582	1	4
453.753	1	-7
453.923	1	-3
454.093	1	-1
454.264	1	-4
454.434	1	5
454.605	1	6
454.775	1	9
454.946	1	4
455.116	1	2
455.287	1	0
455.457	1	-5
455.628	1	-5
455.798	1	-5
455.968	1	5
456.139	1	13
456.309	1	-8
456.480	1	-4
456.650	1	-2
456.821	1	4
456.991	1	0
457.161	1	11
457.332	1	-2
457.502	1	7
457.673	1	-8
457.843	1	9
458.014	1	-1
458.184	1	10
458.355	1	-1
458.525	1	1
458.695	1	3
458.866	1	-2
459.036	1	15
459.207	1	1
459.377	1	7
459.548	1	-2
459.718	1	-1
459.888	1	8
460.059	1	9
460.229	1	3
460.400	1	3
460.570	1	-5
460.740	1	-15
460.911	1	8
461.081	1	-10
461.252	1	5
461.422	1	2
461.593	1	-3
461.763	1	1
461.933	1	2
462.104	1	7
462.274	1	4
462.445	1	-8
462.615	1	-12
462.785	1	-8
462.956	1	-10
463.126	1	-6
463.297	1	-2
463.467	1	3
463.638	1	5
463.808	1	5
463.978	1	-5
464.149	1	-7
464.319	1	-7
464.490	1	-2
464.660	1	5
464.830	1	-9
465.001	1	0
465.171	1	1
465.342	1	2
465.512	1	7
465.682	1	-3
465.853	1	-6
466.023	1	0
466.194	1	3
466.364	1	-3
466.534	1	1
466.705	1	1
466.875	1	7
467.045	1	7
467.216	1	-3
467.386	1	-11
467.557	1	-1
467.727	1	-3
467.897	1	6
468.068	1	6
468.238	1	-7
468.409	1	9
468.579	1	6
468.749	1	-2
468.920	1	-6
469.090	1	-2
469.260	1	2
469.431	1	1
469.601	1	7
469.772	1	1
469.942	1	0
470.112	1	7
470.283	1	7
470.453	1	0
470.623	1	3
470.794	1	4
470.964	1	2
471.135	1	-10
471.305	1	-2
471.475	1	7
471.646	1	2
471.816	1	5
471.986	1	-4
472.157	1	-3
472.327	1	-6
472.497	1	-2
472.668	1	-5
472.838	1	6
473.009	1	-4
473.179	1	0
473.349	1	7
473.520	1	4
473.690	1	13
473.860	1	0
474.031	1	-1
474.201	1	-10
474.371	1	7
474.542	1	-5
474.712	1	-3
474.882	1	-5
475.053	1	-13
475.223	1	-3
475.394	1	7
475.564	1	5
475.734	1	-13
475.905	1	-4
476.075	1	9
476.245	1	1
476.416	1	-13
476.586	1	-1
476.756	1	1
476.927	1	6
477.097	1	-1
477.267	1	-4
477.438	1	7
477.608	1	8
477.778	1	1
477.949	1	4
478.119	1	5
478.289	1	-7
478.460	1	0
478.630	1	-5
478.800	1	-10
478.971	1	3
479.141	1	5
479.311	1	-5
479.482	1	0
479.652	1	7
479.822	1	-4
479.993	1	-1
480.163	1	-6
480.333	1	-2
480.504	1	0
480.674	1	8
480.844	1	5
481.015	1	-9
481.185	1	5
481.355	1	7
481.525	1	-4
481.696	1	3
481.866	1	3
482.036	1	-7
482.207	1	4
482.377	1	3
482.547	1	-5
482.718	1	12
482.888	1	-5
483.058	1	-5
483.229	1	5
483.399	1	-3
483.569	1	-2
483.740	1	-13
483.910	1	3
484.080	1	-7
484.250	1	5
484.421	1	5
484.591	1	7
484.761	1	-2
484.932	1	0
485.102	1	4
485.272	1	8
485.443	1	3
485.613	1	-6
485.783	1	1
485.953	1	-13
486.124	1	2
486.294	1	5
486.464	1	-6
486.635	1	13
486.805	1	11
486.975	1	-8
487.146	1	6
487.316	1	-2
487.486	1	-6
487.656	1	-12
487.827	1	5
487.997	1	-5
488.167	1	0
488.338	1	17
488.508	1	7
488.678	1	2
488.848	1	-11
489.019	1	-3
489.189	1	-1
489.359	1	-3
489.529	1	-6
489.700	1	2
489.870	1	-4
490.040	1	0
490.211	1	13
490.381	1	0
490.551	1	-7
490.721	1	2
490.892	1	-2
491.062	1	10
491.232	1	9
491.402	1	-8
491.573	1	-3
491.743	1	-11
491.913	1	3
492.084	1	0
492.254	1	0
492.424	1	2
492.594	1	4
492.765	1	6
492.935	1	-7
493.105	1	8
493.275	1	6
493.446	1	1
493.616	1	-1
493.786	1	1
493.956	1	-1
494.127	1	2
494.297	1	6
494.467	1	-1
494.637	1	3
494.808	1	6
494.978	1	8
495.148	1	-5
495.318	1	12
495.489	1	1
495.659	1	8
495.829	1	-2
495.999	1	1
496.170	1	3
496.340	1	2
496.510	1	3
496.680	1	5
496.851	1	3
497.021	1	1
497.191	1	-3
497.361	1	-2
497.532	1	-4
497.702	1	-9
497.872	1	6
498.042	1	-4
498.213	1	3
498.383	1	-7
498.553	1	5
498.723	1	5
498.894	1	-1
499.064	1	10
499.234	1	-9
499.404	1	8
499.574	1	4
499.745	1	3
499.915	1	4
500.085	1	-8
500.255	1	5
500.426	1	-9
500.596	1	-3
500.766	1	1
500.936	1	-11
501.106	1	9
501.277	1	0
501.447	1	1
501.617	1	1
501.787	1	-3
501.958	1	-3
502.128	1	0
502.298	1	15
502.468	1	5
502.638	1	-2
502.809	1	3
502.979	1	-6
503.149	1	5
503.319	1	10
503.489	1	-1
503.660	1	-6
503.830	1	3
504.000	1	3
504.170	1	6
504.340	1	-1
504.511	1	5
504.681	1	4
504.851	1	-4
505.021	1	-3
505.192	1	2
505.362	1	4
505.532	1	7
505.702	1	8
505.872	1	-11
506.043	1	3
506.213	1	2
506.383	1	-1
506.553	1	6
506.723	1	3
506.893	1	5
507.064	1	-5
507.234	1	7
507.404	1	-3
507.574	1	4
507.744	1	-6
507.915	1	2
508.085	1	7
508.255	1	1
508.425	1	14
508.595	1	0
508.766	1	-2
508.936	1	0
509.106	1	1
509.276	1	8
509.446	1	-4
509.616	1	-3
509.787	1	0
509.957	1	-2
510.127	1	-4
510.297	1	-5
510.467	1	4
510.638	1	-4
510.808	1	1
510.978	1	-6
511.148	1	11
511.318	1	1
511.488	1	9
511.659	1	1
511.829	1	-6
511.999	1	9
512.169	1	6
512.339	1	0
512.509	1	-1
512.680	1	9
512.850	1	-4
513.020	1	7
513.190	1	-5
513.360	1	4
513.530	1	-12
513.700	1	0
513.871	1	10
514.041	1	-5
514.211	1	-2
514.381	1	5
514.551	1	0
514.721	1	4
514.892	1	5
515.062	1	0
515.232	1	9
515.402	1	-2
515.572	1	-3
515.742	1	11
515.912	1	3
516.083	1	3
516.253	1	-1
516.423	1	11
516.593	1	0
516.763	1	-2
516.933	1	9
517.104	1	6
517.274	1	-1
517.444	1	5
517.614	1	-4
517.784	1	-9
517.954	1	-4
518.124	1	15
518.294	1	6
518.465	1	12
518.635	1	-2
518.805	1	5
518.975	1	8
519.145	1	7
519.315	1	-2
519.485	1	-1
519.656	1	2
519.826	1	7
519.996	1	12
520.166	1	3
520.336	1	-1
520.506	1	5
520.676	1	0
520.846	1	-11
521.017	1	-3
521.187	1	2
521.357	1	4
521.527	1	-1
521.697	1	10
521.867	1	4
522.037	1	1
522.207	1	-4
522.377	1	5
522.548	1	-9
522.718	1	1
522.888	1	-2
523.058	1	15
523.228	1	9
523.398	1	4
523.568	1	2
523.738	1	0
523.909	1	14
524.079	1	6
524.249	1	4
524.419	1	4
524.589	1	7
524.759	1	1
524.929	1	4
525.099	1	1
525.269	1	6
525.439	1	3
525.610	1	6
525.780	1	13
525.950	1	-12
526.120	1	1
526.290	1	1
526.460	1	3
526.630	1	7
526.800	1	0
526.970	1	-6
527.140	1	-1
527.311	1	6
527.481	1	11
527.651	1	14
527.821	1	-6
527.991	1	8
528.161	1	1
528.331	1	-2
528.501	1	-12
528.671	1	4
528.841	1	4
529.011	1	1
529.181	1	-6
529.352	1	6
529.522	1	3
529.692	1	8
529.862	1	0
530.032	1	2
530.202	1	11
530.372	1	3
530.542	1	3
530.712	1	11
530.882	1	-1
531.052	1	0
531.222	1	-10
531.392	1	7
531.563	1	4
531.733	1	7
531.903	1	12
532.073	1	3
532.243	1	-9
532.413	1	3
532.583	1	1
532.753	1	7
532.923	1	9
533.093	1	8
533.263	1	4
533.433	1	8
533.603	1	6
533.773	1	5
533.943	1	-6
534.113	1	3
534.284	1	-1
534.454	1	3
534.624	1	10
534.794	1	5
534.964	1	-1
535.134	1	2
535.304	1	18
535.474	1	8
535.644	1	0
535.814	1	-2
535.984	1	3
536.154	1	5
536.324	1	-1
536.494	1	11
536.664	1	9
536.834	1	-1
537.004	1	9
537.174	1	9
537.344	1	15
537.514	1	7
537.685	1	-4
537.855	1	3
538.025	1	1
538.195	1	10
538.365	1	11
538.535	1	12
538.705	1	5
538.875	1	-2
539.045	1	14
539.215	1	-16
539.385	1	8
539.555	1	-2
539.725	1	2
539.895	1	-2
540.065	1	-1
540.235	1	0
540.405	1	5
540.575	1	7
540.745	1	1
540.915	1	4
541.085	1	3
541.255	1	-8
541.425	1	-6
541.595	1	-1
541.765	1	6
541.935	1	9
542.105	1	7
542.275	1	6
542.445	1	3
542.615	1	0
542.785	1	1
542.955	1	3
543.125	1	4
543.295	1	3
543.465	1	7
543.635	1	7
543.805	1	6
543.975	1	10
544.145	1	3
544.315	1	2
544.485	1	1
544.655	1	5
544.825	1	12
544.995	1	6
545.165	1	4
545.335	1	1
545.505	1	3
545.675	1	3
545.845	1	9
546.015	1	1
546.185	1	-1
546.355	1	9
546.525	1	15
546.695	1	-2
546.865	1	-3
547.035	1	4
547.205	1	3
547.375	1	12
547.545	1	1
547.715	1	5
547.885	1	-3
548.055	1	5
548.225	1	1
548.395	1	3
548.565	1	1
548.735	1	6
548.905	1	3
549.075	1	-1
549.245	1	-1
549.415	1	2
549.585	1	-12
549.755	1	-2
549.925	1	12
550.095	1	2
550.265	1	0
550.435	1	15
550.605	1	-5
550.775	1	-6
550.945	1	8
551.115	1	-13
551.285	1	3
551.455	1	-2
551.625	1	-4
551.795	1	-2
551.965	1	5
552.135	1	0
552.305	1	12
552.475	1	1
552.645	1	13
552.815	1	5
552.985	1	4
553.155	1	3
553.325	1	13
553.495	1	3
553.665	1	10
553.835	1	1
554.004	1	11
554.174	1	1
554.344	1	-7
554.514	1	2
554.684	1	8
554.854	1	-2
555.024	1	2
555.194	1	11
555.364	1	12
555.534	1	-8
555.704	1	4
555.874	1	-3
556.044	1	5
556.214	1	-1
556.384	1	0
556.554	1	-9
556.724	1	-4
556.894	1	0
557.064	1	-5
557.234	1	-1
557.404	1	-5
557.573	1	10
557.743	1	2
557.913	1	-6
558.083	1	-7
558.253	1	-6
558.423	1	-3
558.593	1	-1
558.763	1	-6
558.933	1	7
559.103	1	-2
559.273	1	5
559.443	1	3
559.613	1	-2
559.783	1	-4
559.953	1	-1
560.122	1	-11
560.292	1	1
560.462	1	7
560.632	1	1
560.802	1	9
560.972	1	15
561.142	1	9
561.312	1	-3
561.482	1	6
561.652	1	5
561.822	1	4
561.992	1	5
562.162	1	0
562.331	1	6
562.501	1	-2
562.671	1	-7
562.841	1	-3
563.011	1	9
563.181	1	3
563.351	1	-5
563.521	1	1
563.691	1	7
563.861	1	6
564.031	1	1
564.201	1	10
564.370	1	10
564.540	1	15
564.710	1	-9
564.880	1	11
565.050	1	4
565.220	1	3
565.390	1	-12
565.560	1	7
565.730	1	2
565.900	1	-9
566.069	1	6
566.239	1	0
566.409	1	3
566.579	1	4
566.749	1	2
566.919	1	9
567.089	1	8
567.259	1	7
567.429	1	4
567.599	1	2
567.768	1	0
567.938	1	-2
568.108	1	0
568.278	1	-3
568.448	1	-1
568.618	1	7
568.788	1	-1
568.958	1	4
569.128	1	4
569.297	1	6
569.467	1	-2
569.637	1	1
569.807	1	-6
569.977	1	4
570.147	1	3
570.317	1	17
570.487	1	2
570.656	1	-2
570.826	1	1
570.996	1	-4
571.166	1	-1
571.336	1	-4
571.506	1	3
571.676	1	10
571.846	1	15
572.015	1	-5
572.185	1	-9
572.355	1	6
572.525	1	-2
572.695	1	2
572.865	1	-1
573.035	1	-1
573.205	1	9
573.374	1	8
573.544	1	-2
573.714	1	13
573.884	1	0
574.054	1	-2
574.224	1	6
574.394	1	-5
574.563	1	4
574.733	1	-2
574.903	1	4
575.073	1	-1
575.243	1	-10
575.413	1	3
575.583	1	13
575.752	1	-1
575.922	1	9
576.092	1	8
576.262	1	5
576.432	1	-13
576.602	1	2
576.772	1	-1
576.941	1	-4
577.111	1	-1
577.281	1	-1
577.451	1	0
577.621	1	-1
577.791	1	7
577.960	1	-6
578.130	1	-1
578.300	1	2
578.470	1	1
578.640	1	-10
578.810	1	1
578.979	1	4
579.149	1	6
579.319	1	1
579.489	1	-7
579.659	1	6
579.829	1	9
579.998	1	-2
580.168	1	8
580.338	1	-7
580.508	1	-3
580.678	1	4
580.848	1	4
581.017	1	8
581.187	1	1
581.357	1	4
581.527	1	11
581.697	1	-3
581.867	1	-5
582.036	1	5
582.206	1	-9
582.376	1	4
582.546	1	8
582.716	1	5
582.885	1	-3
583.055	1	1
583.225	1	-2
583.395	1	-3
583.565	1	9
583.735	1	4
583.904	1	0
584.074	1	-9
584.244	1	-4
584.414	1	5
584.584	1	3
584.753	1	-3
584.923	1	-1
585.093	1	0
585.263	1	4
585.433	1	3
585.602	1	-3
585.772	1	2
585.942	1	3
586.112	1	9
586.282	1	-9
586.451	1	3
586.621	1	0
586.791	1	2
586.961	1	4
587.131	1	4
587.300	1	-3
587.470	1	0
587.640	1	-16
587.810	1	-1
587.980	1	9
588.149	1	3
588.319	1	1
588.489	1	8
588.659	1	-7
588.829	1	1
588.998	1	-10
589.168	1	11
589.338	1	5
589.508	1	0
589.677	1	8
589.847	1	7
590.017	1	-2
590.187	1	3
590.357	1	-4
590.526	1	2
590.696	1	1
590.866	1	1
591.036	1	4
591.205	1	7
591.375	1	-9
591.545	1	-8
591.715	1	-4
591.885	1	4
592.054	1	1
592.224	1	-1
592.394	1	6
592.564	1	-12
592.733	1	-8
592.903	1	8
593.073	1	10
593.243	1	-1
593.412	1	1
593.582	1	9
593.752	1	-3
593.922	1	1
594.091	1	3
594.261	1	-1
594.431	1	0
594.601	1	-8
594.771	1	3
594.940	1	-2
595.110	1	1
595.280	1	-7
595.450	1	1
595.619	1	9
595.789	1	0
595.959	1	-2
596.129	1	1
596.298	1	1
596.468	1	3
596.638	1	-8
596.808	1	3
596.977	1	3
597.147	1	1
597.317	1	8
597.487	1	1
597.656	1	-4
597.826	1	3
597.996	1	-10
598.166	1	-10
598.335	1	7
598.505	1	-2
598.675	1	-2
598.844	1	1
599.014	1	-4
599.184	1	2
599.354	1	-10
599.523	1	-4
599.693	1	9
599.863	1	1
600.033	1	-4
600.202	1	-6
600.372	1	-7
600.542	1	0
600.712	1	7
600.881	1	-7
601.051	1	-1
601.221	1	-8
601.390	1	-5
601.560	1	-6
601.730	1	0
601.900	1	-9
602.069	1	6
602.239	1	-11
602.409	1	-3
602.578	1	3
602.748	1	-9
602.918	1	-6
603.088	1	4
603.257	1	14
603.427	1	-4
603.597	1	19
603.767	1	-5
603.936	1	5
604.106	1	2
604.276	1	-3
604.445	1	4
604.615	1	-2
604.785	1	9
604.954	1	8
605.124	1	1
605.294	1	2
605.464	1	-5
605.633	1	7
605.803	1	5
605.973	1	5
606.142	1	7
606.312	1	-8
606.482	1	-1
606.652	1	-3
606.821	1	-1
606.991	1	8
607.161	1	-2
607.330	1	3
607.500	1	0
607.670	1	0
607.839	1	3
608.009	1	-16
608.179	1	-2
608.348	1	0
608.518	1	-2
608.688	1	2
608.858	1	2
609.027	1	7
609.197	1	-8
609.367	1	-2
609.536	1	-5
609.706	1	2
609.876	1	-5
610.045	1	-2
610.215	1	-2
610.385	1	-1
610.554	1	-6
610.724	1	2
610.894	1	6
611.063	1	5
611.233	1	0
611.403	1	10
611.572	1	1
611.742	1	-8
611.912	1	-1
612.081	1	-7
612.251	1	-8
612.421	1	17
612.590	1	5
612.760	1	1
612.930	1	0
613.099	1	-7
613.269	1	-1
613.439	1	2
613.608	1	-2
613.778	1	12
613.948	1	9
614.117	1	11
614.287	1	-11
614.457	1	9
614.626	1	2
614.796	1	3
614.966	1	-4
615.135	1	-5
615.305	1	-3
615.475	1	-6
615.644	1	0
615.814	1	6
615.984	1	8
616.153	1	8
616.323	1	-6
616.493	1	8
616.662	1	-11
616.832	1	-9
617.002	1	-3
617.171	1	-2
617.341	1	3
617.511	1	-4
617.680	1	4
617.850	1	2
618.019	1	2
618.189	1	-6
618.359	1	1
618.528	1	-2
618.698	1	0
618.868	1	11
619.037	1	6
619.207	1	-5
619.377	1	-13
619.546	1	3
619.716	1	-5
619.885	1	-2
620.055	1	4
620.225	1	6
620.394	1	-4
620.564	1	-12
620.734	1	-8
620.903	1	3
621.073	1	3
621.242	1	-11
621.412	1	8
621.582	1	-5
621.751	1	-3
621.921	1	-6
622.091	1	-3
622.260	1	1
622.430	1	-4
622.599	1	5
622.769	1	-3
622.939	1	0
623.108	1	0
623.278	1	0
623.448	1	-2
623.617	1	8
623.787	1	4
623.956	1	2
624.126	1	0
624.296	1	3
624.465	1	-1
624.635	1	5
624.804	1	-7
624.974	1	-7
625.144	1	1
625.313	1	-1
625.483	1	3
625.652	1	-1
625.822	1	12
625.992	1	-13
626.161	1	3
626.331	1	0
626.501	1	9
626.670	1	0
626.840	1	-2
627.009	1	-9
627.179	1	3
627.348	1	-3
627.518	1	0
627.688	1	-1
627.857	1	7
628.027	1	-1
628.196	1	13
628.366	1	5
628.536	1	1
628.705	1	-4
628.875	1	10
629.044	1	5
629.214	1	-2
629.384	1	-7
629.553	1	9
629.723	1	5
629.892	1	2
630.062	1	6
630.232	1	7
630.401	1	-8
630.571	1	-7
630.740	1	5
630.910	1	-1
631.079	1	3
631.249	1	-6
631.419	1	-1
631.588	1	-2
631.758	1	4
631.927	1	2
632.097	1	-1
632.266	1	-11
632.436	1	-8
632.606	1	5
632.775	1	-1
632.945	1	-2
633.114	1	11
633.284	1	-3
633.453	1	-3
633.623	1	-5
633.793	1	-6
633.962	1	1
634.132	1	7
634.301	1	-2
634.471	1	3
634.640	1	6
634.810	1	6
634.979	1	5
635.149	1	2
635.319	1	1
635.488	1	7
635.658	1	-10
635.827	1	-1
635.997	1	-7
636.166	1	-7
636.336	1	7
636.505	1	-6
636.675	1	-7
636.845	1	1
637.014	1	2
637.184	1	0
637.353	1	-1
637.523	1	-16
637.692	1	-6
637.862	1	-15
638.031	1	6
638.201	1	4
638.370	1	-1
638.540	1	8
638.710	1	-2
638.879	1	0
639.049	1	6
639.218	1	-1
639.388	1	0
639.557	1	6
639.727	1	-3
639.896	1	-2
640.066	1	6
640.235	1	10
640.405	1	2
640.574	1	-7
640.744	1	-1
640.914	1	-3
641.083	1	-5
641.253	1	-9
641.422	1	0
641.592	1	-7
641.761	1	0
641.931	1	8
642.100	1	-13
642.270	1	1
642.439	1	1
642.609	1	-7
642.778	1	-4
642.948	1	3
643.117	1	-10
643.287	1	3
643.456	1	4
643.626	1	5
643.795	1	0
643.965	1	5
644.134	1	3
644.304	1	-5
644.473	1	0
644.643	1	-4
644.812	1	7
644.982	1	6
645.151	1	-8
645.321	1	10
645.490	1	2
645.660	1	-15
645.829	1	-13
645.999	1	-6
646.168	1	-8
646.338	1	10
646.507	1	-1
646.677	1	-5
646.846	1	10
647.016	1	7
647.185	1	-7
647.355	1	-1
647.524	1	0
647.694	1	-18
647.863	1	-4
648.033	1	-6
648.202	1	3
648.372	1	1
648.541	1	-7
648.711	1	3
648.880	1	2
649.050	1	0
649.219	1	1
649.389	1	-2
649.558	1	-10
649.728	1	3
649.897	1	0
650.067	1	-6
650.236	1	10
650.406	1	11
650.575	1	-14
650.745	1	-4
650.914	1	-2
651.084	1	-11
651.253	1	1
651.423	1	2
651.592	1	-7
651.762	1	10
651.931	1	0
652.101	1	5
652.270	1	4
652.440	1	3
652.609	1	8
652.778	1	-5
652.948	1	1
653.117	1	-5
653.287	1	5
653.456	1	1
653.626	1	8
653.795	1	10
653.965	1	-2
654.134	1	6
654.304	1	4
654.473	1	1
654.643	1	5
654.812	1	-1
654.982	1	-9
655.151	1	-11
655.320	1	-6
655.490	1	10
655.659	1	-4
655.829	1	2
655.998	1	3
656.168	1	-3
656.337	1	-11
656.507	1	13
656.676	1	-6
656.846	1	-8
657.015	1	-6
657.184	1	1
657.354	1	-2
657.523	1	-3
657.693	1	4
657.862	1	4
658.032	1	1
658.201	1	-2
658.371	1	-6
658.540	1	-6
658.709	1	-8
658.879	1	0
659.048	1	1
659.218	1	-1
659.387	1	-6
659.557	1	2
659.726	1	-7
659.895	1	0
660.065	1	8
660.234	1	10
660.404	1	2
660.573	1	-8
660.743	1	-4
660.912	1	4
661.081	1	4
661.251	1	1
661.420	1	0
661.590	1	3
661.759	1	12
661.929	1	-2
662.098	1	-10
662.267	1	7
662.437	1	3
662.606	1	6
662.776	1	5
662.945	1	3
663.115	1	-9
663.284	1	3
663.453	1	-10
663.623	1	1
663.792	1	0
663.962	1	-4
664.131	1	-5
664.300	1	-3
664.470	1	-3
664.639	1	2
664.809	1	-3
664.978	1	4
665.148	1	-8
665.317	1	-9
665.486	1	10
665.656	1	-3
665.825	1	-3
665.995	1	5
666.164	1	2
666.333	1	0
666.503	1	-4
666.672	1	-9
666.842	1	-7
667.011	1	6
667.180	1	3
667.350	1	3
667.519	1	-1
667.689	1	-18
667.858	1	7
668.027	1	-2
668.197	1	-2
668.366	1	-8
668.536	1	-9
668.705	1	-2
668.874	1	-5
669.044	1	-9
669.213	1	0
669.382	1	0
669.552	1	8
669.721	1	-5
669.891	1	4
670.060	1	5
670.229	1	-6
670.399	1	5
670.568	1	5
670.738	1	-14
670.907	1	-5
671.076	1	-1
671.246	1	8
671.415	1	1
671.584	1	1
671.754	1	-12
671.923	1	-4
672.093	1	2
672.262	1	-5
672.431	1	-7
672.601	1	-5
672.770	1	-1
672.939	1	-10
673.109	1	6
673.278	1	5
673.448	1	3
673.617	1	0
673.786	1	-6
