325.333	1	6
325.504	1	8
325.675	1	2
325.846	1	-1
326.017	1	4
326.188	1	6
326.359	1	12
326.531	1	-8
326.702	1	-1
326.873	1	2
327.044	1	11
327.215	1	6
327.386	1	0
327.557	1	0
327.728	1	0
327.899	1	-7
328.070	1	5
328.241	1	-1
328.412	1	11
328.583	1	2
328.754	1	-1
328.926	1	7
329.097	1	4
329.268	1	5
329.439	1	5
329.610	1	-1
329.781	1	-7
329.952	1	8
330.123	1	6
330.294	1	9
330.465	1	0
330.636	1	-3
330.807	1	11
330.978	1	7
331.149	1	10
331.320	1	0
331.492	1	0
331.663	1	-6
331.834	1	10
332.005	1	11
332.176	1	-3
332.347	1	7
332.518	1	8
332.689	1	7
332.860	1	3
333.031	1	-1
333.202	1	-2
333.373	1	-5
333.544	1	2
333.715	1	2
333.886	1	-4
334.057	1	-4
334.228	1	-3
334.399	1	0
334.570	1	-5
334.741	1	-1
334.912	1	-7
335.084	1	-7
335.255	1	9
335.426	1	3
335.597	1	-2
335.768	1	6
335.939	1	1
336.110	1	-5
336.281	1	-4
336.452	1	2
336.623	1	2
336.794	1	1
336.965	1	5
337.136	1	1
337.307	1	16
337.478	1	15
337.649	1	7
337.820	1	11
337.991	1	5
338.162	1	-3
338.333	1	6
338.504	1	3
338.675	1	10
338.846	1	-2
339.017	1	8
339.188	1	3
339.359	1	13
339.530	1	3
339.701	1	8
339.872	1	-3
340.043	1	9
340.214	1	-1
340.385	1	13
340.556	1	5
340.727	1	4
340.898	1	-1
341.069	1	-3
341.240	1	3
341.411	1	10
341.582	1	8
341.753	1	2
341.924	1	4
342.095	1	6
342.266	1	6
342.437	1	8
342.608	1	5
342.779	1	4
342.950	1	7
343.121	1	13
343.292	1	3
343.463	1	6
343.634	1	7
343.805	1	13
343.976	1	6
344.147	1	-1
344.318	1	9
344.489	1	-7
344.660	1	17
344.831	1	1
345.002	1	12
345.173	1	1
345.344	1	-12
345.515	1	-2
345.686	1	-2
345.857	1	-4
346.028	1	5
346.199	1	1
346.370	1	4
346.541	1	5
346.712	1	7
346.883	1	-3
347.054	1	7
347.225	1	-1
347.396	1	5
347.567	1	3
347.738	1	11
347.909	1	4
348.080	1	3
348.251	1	4
348.422	1	1
348.593	1	4
348.764	1	0
348.935	1	11
349.106	1	3
349.277	1	-6
349.448	1	-4
349.619	1	3
349.790	1	4
349.961	1	6
350.132	1	-2
350.303	1	6
350.474	1	2
350.645	1	-2
350.816	1	1
350.987	1	6
351.157	1	12
351.328	1	8
351.499	1	8
351.670	1	21
351.841	1	8
352.012	1	-3
352.183	1	1
352.354	1	8
352.525	1	12
352.696	1	0
352.867	1	11
353.038	1	23
353.209	1	19
353.380	1	20
353.551	1	1
353.722	1	8
353.893	1	5
354.064	1	17
354.235	1	6
354.406	1	10
354.576	1	14
354.747	1	9
354.918	1	3
355.089	1	11
355.260	1	9
355.431	1	12
355.602	1	14
355.773	1	8
355.944	1	18
356.115	1	6
356.286	1	9
356.457	1	12
356.628	1	23
356.799	1	12
356.970	1	5
357.141	1	9
357.311	1	9
357.482	1	12
357.653	1	17
357.824	1	19
357.995	1	20
358.166	1	17
358.337	1	21
358.508	1	23
358.679	1	31
358.850	1	19
359.021	1	12
359.192	1	21
359.363	1	32
359.533	1	22
359.704	1	29
359.875	1	31
360.046	1	27
360.217	1	51
360.388	1	38
360.559	1	34
360.730	1	40
360.901	1	47
361.072	1	33
361.243	1	38
361.414	1	45
361.584	1	51
361.755	1	42
361.926	1	55
362.097	1	48
362.268	1	52
362.439	1	44
362.610	1	52
362.781	1	59
362.952	1	73
363.123	1	71
363.293	1	60
363.464	1	83
363.635	1	72
363.806	1	88
363.977	1	82
364.148	1	77
364.319	1	73
364.490	1	80
364.661	1	96
364.832	1	84
365.002	1	93
365.173	1	97
365.344	1	93
365.515	1	86
365.686	1	102
365.857	1	108
366.028	1	109
366.199	1	98
366.370	1	111
366.540	1	110
366.711	1	108
366.882	1	109
367.053	1	118
367.224	1	105
367.395	1	110
367.566	1	96
367.737	1	89
367.908	1	90
368.078	1	109
368.249	1	86
368.420	1	76
368.591	1	106
368.762	1	73
368.933	1	86
369.104	1	92
369.274	1	84
369.445	1	77
369.616	1	67
369.787	1	75
369.958	1	71
370.129	1	78
370.300	1	63
370.471	1	81
370.641	1	64
370.812	1	62
370.983	1	61
371.154	1	66
371.325	1	64
371.496	1	52
371.667	1	56
371.837	1	53
372.008	1	58
372.179	1	60
372.350	1	60
372.521	1	54
372.692	1	49
372.863	1	57
373.033	1	59
373.204	1	57
373.375	1	53
373.546	1	47
373.717	1	56
373.888	1	48
374.059	1	56
374.229	1	36
374.400	1	52
374.571	1	47
374.742	1	50
374.913	1	35
375.084	1	34
375.254	1	45
375.425	1	38
375.596	1	26
375.767	1	42
375.938	1	46
376.109	1	36
376.279	1	31
376.450	1	36
376.621	1	44
376.792	1	32
376.963	1	32
377.134	1	26
377.304	1	45
377.475	1	37
377.646	1	40
377.817	1	46
377.988	1	27
378.159	1	33
378.329	1	35
378.500	1	32
378.671	1	28
378.842	1	26
379.013	1	32
379.184	1	38
379.354	1	44
379.525	1	39
379.696	1	35
379.867	1	41
380.038	1	45
380.209	1	33
380.379	1	48
380.550	1	41
380.721	1	62
380.892	1	47
381.063	1	50
381.233	1	60
381.404	1	58
381.575	1	55
381.746	1	70
381.917	1	56
382.087	1	70
382.258	1	69
382.429	1	73
382.600	1	77
382.771	1	85
382.941	1	90
383.112	1	92
383.283	1	98
383.454	1	78
383.625	1	97
383.795	1	116
383.966	1	114
384.137	1	104
384.308	1	117
384.479	1	142
384.649	1	125
384.820	1	130
384.991	1	128
385.162	1	132
385.333	1	147
385.503	1	145
385.674	1	135
385.845	1	148
386.016	1	132
386.187	1	144
386.357	1	148
386.528	1	167
386.699	1	157
386.870	1	157
387.041	1	136
387.211	1	145
387.382	1	152
387.553	1	142
387.724	1	137
387.894	1	148
388.065	1	137
388.236	1	147
388.407	1	134
388.578	1	141
388.748	1	149
388.919	1	123
389.090	1	143
389.261	1	125
389.431	1	140
389.602	1	141
389.773	1	138
389.944	1	124
390.114	1	134
390.285	1	116
390.456	1	118
390.627	1	119
390.798	1	133
390.968	1	133
391.139	1	105
391.310	1	131
391.481	1	118
391.651	1	122
391.822	1	125
391.993	1	121
392.164	1	114
392.334	1	118
392.505	1	108
392.676	1	122
392.847	1	111
393.017	1	102
393.188	1	117
393.359	1	121
393.530	1	103
393.700	1	120
393.871	1	109
394.042	1	131
394.213	1	104
394.383	1	114
394.554	1	120
394.725	1	111
394.896	1	117
395.066	1	123
395.237	1	130
395.408	1	129
395.579	1	137
395.749	1	126
395.920	1	118
396.091	1	128
396.262	1	119
396.432	1	114
396.603	1	135
396.774	1	133
396.945	1	123
397.115	1	137
397.286	1	133
397.457	1	139
397.627	1	122
397.798	1	115
397.969	1	134
398.140	1	126
398.310	1	137
398.481	1	126
398.652	1	132
398.823	1	139
398.993	1	119
399.164	1	136
399.335	1	115
399.505	1	116
399.676	1	124
399.847	1	113
400.018	1	117
400.188	1	106
400.359	1	104
400.530	1	120
400.700	1	113
400.871	1	96
401.042	1	101
401.213	1	95
401.383	1	99
401.554	1	102
401.725	1	99
401.895	1	99
402.066	1	104
402.237	1	94
402.408	1	88
402.578	1	96
402.749	1	87
402.920	1	76
403.090	1	89
403.261	1	91
403.432	1	89
403.603	1	88
403.773	1	89
403.944	1	86
404.115	1	80
404.285	1	93
404.456	1	92
404.627	1	88
404.797	1	103
404.968	1	84
405.139	1	91
405.310	1	78
405.480	1	85
405.651	1	94
405.822	1	84
405.992	1	85
406.163	1	86
406.334	1	90
406.504	1	78
406.675	1	88
406.846	1	79
407.016	1	85
407.187	1	79
407.358	1	78
407.528	1	84
407.699	1	92
407.870	1	95
408.041	1	78
408.211	1	83
408.382	1	84
408.553	1	81
408.723	1	74
408.894	1	67
409.065	1	90
409.235	1	72
409.406	1	82
409.577	1	78
409.747	1	70
409.918	1	76
410.089	1	81
410.259	1	68
410.430	1	82
410.601	1	69
410.771	1	59
410.942	1	74
411.113	1	64
411.283	1	61
411.454	1	65
411.625	1	72
411.795	1	72
411.966	1	54
412.137	1	60
412.307	1	68
412.478	1	83
412.649	1	64
412.819	1	66
412.990	1	73
413.161	1	56
413.331	1	50
413.502	1	66
413.672	1	57
413.843	1	56
414.014	1	58
414.184	1	48
414.355	1	48
414.526	1	62
414.696	1	50
414.867	1	60
415.038	1	53
415.208	1	45
415.379	1	54
415.550	1	59
415.720	1	56
415.891	1	56
416.062	1	52
416.232	1	48
416.403	1	57
416.573	1	53
416.744	1	50
416.915	1	45
417.085	1	56
417.256	1	53
417.427	1	53
417.597	1	40
417.768	1	42
417.939	1	45
418.109	1	55
418.280	1	47
418.450	1	49
418.621	1	46
418.792	1	58
418.962	1	45
419.133	1	51
419.304	1	47
419.474	1	43
419.645	1	59
419.815	1	43
419.986	1	56
420.157	1	50
420.327	1	57
420.498	1	49
420.669	1	47
420.839	1	39
421.010	1	40
421.180	1	34
421.351	1	42
421.522	1	42
421.692	1	40
421.863	1	40
422.033	1	32
422.204	1	33
422.375	1	36
422.545	1	36
422.716	1	32
422.886	1	30
423.057	1	37
423.228	1	35
423.398	1	28
423.569	1	36
423.740	1	25
423.910	1	24
424.081	1	36
424.251	1	36
424.422	1	32
424.593	1	33
424.763	1	28
424.934	1	17
425.104	1	50
425.275	1	14
425.445	1	23
425.616	1	46
425.787	1	22
425.957	1	38
426.128	1	30
426.298	1	28
426.469	1	31
426.640	1	33
426.810	1	36
426.981	1	32
427.151	1	21
427.322	1	42
427.493	1	32
427.663	1	19
427.834	1	17
428.004	1	36
428.175	1	24
428.345	1	32
428.516	1	28
428.687	1	27
428.857	1	15
429.028	1	13
429.198	1	12
429.369	1	27
429.540	1	31
429.710	1	18
429.881	1	41
430.051	1	30
430.222	1	20
430.392	1	23
430.563	1	31
430.734	1	14
430.904	1	16
431.075	1	26
431.245	1	29
431.416	1	16
431.586	1	11
431.757	1	27
431.927	1	26
432.098	1	27
432.269	1	17
432.439	1	5
432.610	1	10
432.780	1	17
432.951	1	9
433.121	1	19
433.292	1	15
433.462	1	25
433.633	1	8
433.804	1	25
433.974	1	5
434.145	1	25
434.315	1	20
434.486	1	29
434.656	1	20
434.827	1	18
434.997	1	24
435.168	1	22
435.339	1	27
435.509	1	22
435.680	1	3
435.850	1	14
436.021	1	27
436.191	1	5
436.362	1	22
436.532	1	18
436.703	1	13
436.873	1	5
437.044	1	24
437.214	1	17
437.385	1	22
437.556	1	10
437.726	1	6
437.897	1	4
438.067	1	16
438.238	1	3
438.408	1	17
438.579	1	21
438.749	1	18
438.920	1	20
439.090	1	23
439.261	1	17
439.431	1	9
439.602	1	14
439.772	1	10
439.943	1	16
440.113	1	26
440.284	1	26
440.455	1	11
440.625	1	13
440.796	1	17
440.966	1	24
441.137	1	-1
441.307	1	6
441.478	1	11
441.648	1	10
441.819	1	14
441.989	1	10
442.160	1	12
442.330	1	20
442.501	1	-2
442.671	1	11
442.842	1	26
443.012	1	19
443.183	1	6
443.353	1	24
443.524	1	8
443.694	1	21
443.865	1	12
444.035	1	10
444.206	1	14
444.376	1	10
444.547	1	11
444.717	1	24
444.888	1	4
445.058	1	15
445.229	1	10
445.399	1	21
445.570	1	22
445.740	1	12
445.911	1	19
446.081	1	9
446.252	1	0
446.422	1	8
446.593	1	15
446.763	1	14
446.934	1	22
447.104	1	10
447.275	1	8
447.445	1	15
447.616	1	5
447.786	1	4
447.957	1	17
448.127	1	12
448.298	1	2
448.468	1	16
448.639	1	8
448.809	1	7
448.979	1	9
449.150	1	14
449.320	1	10
449.491	1	12
449.661	1	17
449.832	1	4
450.002	1	6
450.173	1	-1
450.343	1	15
450.514	1	13
450.684	1	3
450.855	1	11
451.025	1	10
451.196	1	7
451.366	1	11
451.537	1	-3
451.707	1	16
451.878	1	4
452.048	1	9
452.218	1	6
452.389	1	7
452.559	1	6
452.730	1	4
452.900	1	9
453.071	1	7
453.241	1	1
453.412	1	1
453.582	1	20
453.753	1	8
453.923	1	4
454.093	1	14
454.264	1	5
454.434	1	17
454.605	1	8
454.775	1	8
454.946	1	13
455.116	1	7
455.287	1	22
455.457	1	0
455.628	1	-1
455.798	1	5
455.968	1	9
456.139	1	14
456.309	1	1
456.480	1	3
456.650	1	1
456.821	1	14
456.991	1	5
457.161	1	13
457.332	1	9
457.502	1	3
457.673	1	3
457.843	1	14
458.014	1	8
458.184	1	11
458.355	1	8
458.525	1	11
458.695	1	8
458.866	1	10
459.036	1	13
459.207	1	10
459.377	1	8
459.548	1	1
459.718	1	2
459.888	1	17
460.059	1	17
460.229	1	10
460.400	1	15
460.570	1	2
460.740	1	6
460.911	1	11
461.081	1	2
461.252	1	7
461.422	1	8
461.593	1	1
461.763	1	2
461.933	1	4
462.104	1	6
462.274	1	13
462.445	1	-3
462.615	1	0
462.785	1	-1
462.956	1	5
463.126	1	-7
463.297	1	8
463.467	1	5
463.638	1	12
463.808	1	6
463.978	1	12
464.149	1	1
464.319	1	1
464.490	1	2
464.660	1	4
464.830	1	2
465.001	1	12
465.171	1	5
465.342	1	6
465.512	1	10
465.682	1	11
465.853	1	0
466.023	1	12
466.194	1	3
466.364	1	12
466.534	1	5
466.705	1	7
466.875	1	2
467.045	1	13
467.216	1	-1
467.386	1	6
467.557	1	15
467.727	1	-3
467.897	1	13
468.068	1	4
468.238	1	8
468.409	1	12
468.579	1	18
468.749	1	13
468.920	1	9
469.090	1	8
469.260	1	9
469.431	1	3
469.601	1	6
469.772	1	0
469.942	1	6
470.112	1	9
470.283	1	12
470.453	1	14
470.623	1	5
470.794	1	6
470.964	1	-1
471.135	1	5
471.305	1	0
471.475	1	0
471.646	1	16
471.816	1	-1
471.986	1	6
472.157	1	3
472.327	1	4
472.497	1	3
472.668	1	1
472.838	1	11
473.009	1	8
473.179	1	14
473.349	1	7
473.520	1	0
473.690	1	12
473.860	1	4
474.031	1	13
474.201	1	7
474.371	1	6
474.542	1	0
474.712	1	5
474.882	1	6
475.053	1	4
475.223	1	3
475.394	1	10
475.564	1	17
475.734	1	11
475.905	1	7
476.075	1	10
476.245	1	8
476.416	1	6
476.586	1	8
476.756	1	3
476.927	1	13
477.097	1	1
477.267	1	0
477.438	1	4
477.608	1	13
477.778	1	13
477.949	1	15
478.119	1	17
478.289	1	7
478.460	1	6
478.630	1	2
478.800	1	4
478.971	1	10
479.141	1	14
479.311	1	4
479.482	1	0
479.652	1	7
479.822	1	11
479.993	1	10
480.163	1	1
480.333	1	-1
480.504	1	9
480.674	1	4
480.844	1	16
481.015	1	2
481.185	1	16
481.355	1	0
481.525	1	3
481.696	1	17
481.866	1	2
482.036	1	-2
482.207	1	14
482.377	1	3
482.547	1	6
482.718	1	11
482.888	1	11
483.058	1	10
483.229	1	14
483.399	1	16
483.569	1	21
483.740	1	0
483.910	1	9
484.080	1	-3
484.250	1	10
484.421	1	7
484.591	1	15
484.761	1	5
484.932	1	17
485.102	1	11
485.272	1	19
485.443	1	20
485.613	1	-6
485.783	1	14
485.953	1	17
486.124	1	13
486.294	1	9
486.464	1	11
486.635	1	16
486.805	1	29
486.975	1	-4
487.146	1	15
487.316	1	20
487.486	1	11
487.656	1	10
487.827	1	11
487.997	1	12
488.167	1	10
488.338	1	26
488.508	1	18
488.678	1	6
488.848	1	12
489.019	1	9
489.189	1	11
489.359	1	6
489.529	1	17
489.700	1	23
489.870	1	0
490.040	1	13
490.211	1	27
490.381	1	24
490.551	1	13
490.721	1	10
490.892	1	18
491.062	1	28
491.232	1	18
491.402	1	18
491.573	1	15
491.743	1	8
491.913	1	19
492.084	1	19
492.254	1	15
492.424	1	18
492.594	1	16
492.765	1	24
492.935	1	8
493.105	1	26
493.275	1	15
493.446	1	13
493.616	1	18
493.786	1	20
493.956	1	15
494.127	1	14
494.297	1	16
494.467	1	24
494.637	1	14
494.808	1	24
494.978	1	18
495.148	1	29
495.318	1	25
495.489	1	26
495.659	1	22
495.829	1	29
495.999	1	28
496.170	1	17
496.340	1	17
496.510	1	23
496.680	1	23
496.851	1	25
497.021	1	23
497.191	1	14
497.361	1	20
497.532	1	25
497.702	1	14
497.872	1	23
498.042	1	30
498.213	1	41
498.383	1	22
498.553	1	26
498.723	1	37
498.894	1	31
499.064	1	33
499.234	1	30
499.404	1	34
499.574	1	23
499.745	1	36
499.915	1	30
500.085	1	25
500.255	1	39
500.426	1	23
500.596	1	27
500.766	1	43
500.936	1	27
501.106	1	37
501.277	1	38
501.447	1	44
501.617	1	36
501.787	1	43
501.958	1	35
502.128	1	30
502.298	1	40
502.468	1	40
502.638	1	40
502.809	1	49
502.979	1	37
503.149	1	48
503.319	1	50
503.489	1	44
503.660	1	45
503.830	1	43
504.000	1	30
504.170	1	49
504.340	1	35
504.511	1	52
504.681	1	41
504.851	1	48
505.021	1	46
505.192	1	50
505.362	1	59
505.532	1	55
505.702	1	48
505.872	1	38
506.043	1	50
506.213	1	60
506.383	1	48
506.553	1	62
506.723	1	53
506.893	1	60
507.064	1	48
507.234	1	57
507.404	1	48
507.574	1	58
507.744	1	46
507.915	1	53
508.085	1	59
508.255	1	59
508.425	1	57
508.595	1	55
508.766	1	59
508.936	1	56
509.106	1	57
509.276	1	65
509.446	1	48
509.616	1	67
509.787	1	62
509.957	1	66
510.127	1	69
510.297	1	58
510.467	1	57
510.638	1	56
510.808	1	56
510.978	1	48
511.148	1	81
511.318	1	57
511.488	1	65
511.659	1	69
511.829	1	70
511.999	1	79
512.169	1	73
512.339	1	69
512.509	1	68
512.680	1	65
512.850	1	57
513.020	1	69
513.190	1	66
513.360	1	72
513.530	1	53
513.700	1	71
513.871	1	75
514.041	1	69
514.211	1	59
514.381	1	80
514.551	1	68
514.721	1	72
514.892	1	65
515.062	1	70
515.232	1	75
515.402	1	65
515.572	1	62
515.742	1	75
515.912	1	76
516.083	1	67
516.253	1	67
516.423	1	77
516.593	1	68
516.763	1	64
516.933	1	74
517.104	1	72
517.274	1	80
517.444	1	76
517.614	1	77
517.784	1	72
517.954	1	73
518.124	1	83
518.294	1	84
518.465	1	88
518.635	1	74
518.805	1	89
518.975	1	79
519.145	1	82
519.315	1	77
519.485	1	57
519.656	1	71
519.826	1	82
519.996	1	85
520.166	1	83
520.336	1	72
520.506	1	88
520.676	1	85
520.846	1	69
521.017	1	76
521.187	1	80
521.357	1	68
521.527	1	79
521.697	1	80
521.867	1	86
522.037	1	76
522.207	1	81
522.377	1	90
522.548	1	63
522.718	1	74
522.888	1	82
523.058	1	87
523.228	1	95
523.398	1	87
523.568	1	73
523.738	1	77
523.909	1	93
524.079	1	83
524.249	1	83
524.419	1	80
524.589	1	92
524.759	1	73
524.929	1	91
525.099	1	79
525.269	1	86
525.439	1	83
525.610	1	94
525.780	1	95
525.950	1	89
526.120	1	84
526.290	1	70
526.460	1	90
526.630	1	88
526.800	1	86
526.970	1	84
527.140	1	79
527.311	1	86
527.481	1	93
527.651	1	99
527.821	1	93
527.991	1	90
528.161	1	87
528.331	1	96
528.501	1	94
528.671	1	95
528.841	1	88
529.011	1	86
529.181	1	95
529.352	1	99
529.522	1	101
529.692	1	113
529.862	1	97
530.032	1	94
530.202	1	90
530.372	1	88
530.542	1	102
530.712	1	100
530.882	1	88
531.052	1	105
531.222	1	81
531.392	1	100
531.563	1	106
531.733	1	100
531.903	1	102
532.073	1	98
532.243	1	102
532.413	1	98
532.583	1	92
532.753	1	91
532.923	1	90
533.093	1	99
533.263	1	102
533.433	1	99
533.603	1	91
533.773	1	103
533.943	1	96
534.113	1	83
534.284	1	96
534.454	1	100
534.624	1	101
534.794	1	94
534.964	1	95
535.134	1	89
535.304	1	102
535.474	1	97
535.644	1	101
535.814	1	96
535.984	1	75
536.154	1	91
536.324	1	93
536.494	1	98
536.664	1	91
536.834	1	97
537.004	1	99
537.174	1	95
537.344	1	92
537.514	1	87
537.685	1	87
537.855	1	78
538.025	1	83
538.195	1	102
538.365	1	93
538.535	1	106
538.705	1	76
538.875	1	95
539.045	1	82
539.215	1	70
539.385	1	91
539.555	1	80
539.725	1	90
539.895	1	96
540.065	1	78
540.235	1	79
540.405	1	95
540.575	1	77
540.745	1	91
540.915	1	82
541.085	1	79
541.255	1	67
541.425	1	76
541.595	1	81
541.765	1	85
541.935	1	87
542.105	1	88
542.275	1	79
542.445	1	80
542.615	1	88
542.785	1	74
542.955	1	73
543.125	1	72
543.295	1	74
543.465	1	93
543.635	1	81
543.805	1	79
543.975	1	83
544.145	1	86
544.315	1	75
544.485	1	72
544.655	1	78
544.825	1	88
544.995	1	78
545.165	1	80
545.335	1	79
545.505	1	68
545.675	1	81
545.845	1	75
546.015	1	79
546.185	1	72
546.355	1	80
546.525	1	87
546.695	1	73
546.865	1	74
547.035	1	88
547.205	1	73
547.375	1	98
547.545	1	83
547.715	1	71
547.885	1	83
548.055	1	78
548.225	1	72
548.395	1	92
548.565	1	88
548.735	1	81
548.905	1	65
549.075	1	77
549.245	1	76
549.415	1	71
549.585	1	78
549.755	1	63
549.925	1	91
550.095	1	84
550.265	1	71
550.435	1	82
550.605	1	82
550.775	1	69
550.945	1	81
551.115	1	70
551.285	1	78
551.455	1	70
551.625	1	77
551.795	1	75
551.965	1	82
552.135	1	67
552.305	1	79
552.475	1	67
552.645	1	77
552.815	1	74
552.985	1	75
553.155	1	72
553.325	1	72
553.495	1	74
553.665	1	62
553.835	1	74
554.004	1	78
554.174	1	76
554.344	1	54
554.514	1	70
554.684	1	74
554.854	1	67
555.024	1	70
555.194	1	74
555.364	1	75
555.534	1	71
555.704	1	59
555.874	1	61
556.044	1	64
556.214	1	61
556.384	1	68
556.554	1	61
556.724	1	54
556.894	1	59
557.064	1	60
557.234	1	68
557.404	1	48
557.573	1	54
557.743	1	64
557.913	1	57
558.083	1	50
558.253	1	54
558.423	1	45
558.593	1	52
558.763	1	50
558.933	1	63
559.103	1	48
559.273	1	54
559.443	1	61
559.613	1	50
559.783	1	56
559.953	1	49
560.122	1	52
560.292	1	51
560.462	1	56
560.632	1	40
560.802	1	62
560.972	1	62
561.142	1	62
561.312	1	65
561.482	1	61
561.652	1	47
561.822	1	52
561.992	1	55
562.162	1	55
562.331	1	61
562.501	1	49
562.671	1	51
562.841	1	49
563.011	1	51
563.181	1	55
563.351	1	51
563.521	1	51
563.691	1	56
563.861	1	58
564.031	1	51
564.201	1	44
564.370	1	54
564.540	1	66
564.710	1	39
564.880	1	56
565.050	1	49
565.220	1	52
565.390	1	49
565.560	1	58
565.730	1	47
565.900	1	46
566.069	1	44
566.239	1	44
566.409	1	50
566.579	1	47
566.749	1	57
566.919	1	53
567.089	1	52
567.259	1	58
567.429	1	49
567.599	1	49
567.768	1	42
567.938	1	46
568.108	1	37
568.278	1	34
568.448	1	47
568.618	1	45
568.788	1	38
568.958	1	50
569.128	1	46
569.297	1	33
569.467	1	42
569.637	1	50
569.807	1	44
569.977	1	36
570.147	1	46
570.317	1	55
570.487	1	46
570.656	1	50
570.826	1	45
570.996	1	28
571.166	1	33
571.336	1	35
571.506	1	38
571.676	1	48
571.846	1	41
572.015	1	30
572.185	1	28
572.355	1	55
572.525	1	34
572.695	1	36
572.865	1	32
573.035	1	40
573.205	1	45
573.374	1	42
573.544	1	39
573.714	1	50
573.884	1	19
574.054	1	29
574.224	1	33
574.394	1	21
574.563	1	42
574.733	1	32
574.903	1	41
575.073	1	20
575.243	1	32
575.413	1	35
575.583	1	35
575.752	1	33
575.922	1	32
576.092	1	41
576.262	1	26
576.432	1	22
576.602	1	28
576.772	1	22
576.941	1	38
577.111	1	31
577.281	1	19
577.451	1	32
577.621	1	25
577.791	1	32
577.960	1	31
578.130	1	20
578.300	1	30
578.470	1	29
578.640	1	24
578.810	1	34
578.979	1	32
579.149	1	27
579.319	1	43
579.489	1	39
579.659	1	23
579.829	1	27
579.998	1	31
580.168	1	26
580.338	1	7
580.508	1	27
580.678	1	30
580.848	1	31
581.017	1	20
581.187	1	34
581.357	1	33
581.527	1	23
581.697	1	19
581.867	1	25
582.036	1	35
582.206	1	19
582.376	1	32
582.546	1	33
582.716	1	32
582.885	1	22
583.055	1	24
583.225	1	25
583.395	1	25
583.565	1	28
583.735	1	24
583.904	1	27
584.074	1	20
584.244	1	26
584.414	1	21
584.584	1	34
584.753	1	27
584.923	1	25
585.093	1	28
585.263	1	35
585.433	1	17
585.602	1	22
585.772	1	29
585.942	1	21
586.112	1	42
586.282	1	27
586.451	1	13
586.621	1	21
586.791	1	20
586.961	1	16
587.131	1	19
587.300	1	21
587.470	1	30
587.640	1	12
587.810	1	26
587.980	1	31
588.149	1	24
588.319	1	27
588.489	1	28
588.659	1	7
588.829	1	23
588.998	1	10
589.168	1	23
589.338	1	28
589.508	1	20
589.677	1	21
589.847	1	11
590.017	1	14
590.187	1	18
590.357	1	21
590.526	1	27
590.696	1	21
590.866	1	18
591.036	1	18
591.205	1	19
591.375	1	11
591.545	1	16
591.715	1	11
591.885	1	14
592.054	1	19
592.224	1	21
592.394	1	15
592.564	1	13
592.733	1	12
592.903	1	23
593.073	1	26
593.243	1	12
593.412	1	18
593.582	1	11
593.752	1	23
593.922	1	7
594.091	1	13
594.261	1	13
594.431	1	7
594.601	1	10
594.771	1	22
594.940	1	6
595.110	1	17
595.280	1	18
595.450	1	10
595.619	1	20
595.789	1	22
595.959	1	18
596.129	1	11
596.298	1	18
596.468	1	14
596.638	1	17
596.808	1	23
596.977	1	19
597.147	1	19
597.317	1	23
597.487	1	12
597.656	1	17
597.826	1	15
597.996	1	11
598.166	1	13
598.335	1	8
598.505	1	8
598.675	1	12
598.844	1	6
599.014	1	15
599.184	1	12
599.354	1	9
599.523	1	8
599.693	1	23
599.863	1	19
600.033	1	8
600.202	1	15
600.372	1	16
600.542	1	11
600.712	1	24
600.881	1	14
601.051	1	15
601.221	1	6
601.390	1	13
601.560	1	12
601.730	1	13
601.900	1	10
602.069	1	8
602.239	1	6
602.409	1	5
602.578	1	14
602.748	1	12
602.918	1	8
603.088	1	25
603.257	1	13
603.427	1	15
603.597	1	28
603.767	1	7
603.936	1	22
604.106	1	16
604.276	1	13
604.445	1	22
604.615	1	18
604.785	1	13
604.954	1	18
605.124	1	16
605.294	1	17
605.464	1	7
605.633	1	15
605.803	1	17
605.973	1	11
606.142	1	21
606.312	1	10
606.482	1	9
606.652	1	9
606.821	1	18
606.991	1	22
607.161	1	10
607.330	1	21
607.500	1	7
607.670	1	10
607.839	1	15
608.009	1	-1
608.179	1	18
608.348	1	9
608.518	1	19
608.688	1	19
608.858	1	12
609.027	1	11
609.197	1	5
609.367	1	-2
609.536	1	3
609.706	1	13
609.876	1	22
610.045	1	10
610.215	1	14
610.385	1	10
610.554	1	6
610.724	1	11
610.894	1	15
611.063	1	18
611.233	1	8
611.403	1	14
611.572	1	13
611.742	1	14
611.912	1	9
612.081	1	5
612.251	1	17
612.421	1	14
612.590	1	7
612.760	1	8
612.930	1	4
613.099	1	-1
613.269	1	8
613.439	1	10
613.608	1	22
613.778	1	12
613.948	1	21
614.117	1	24
614.287	1	1
614.457	1	11
614.626	1	14
614.796	1	19
614.966	1	8
615.135	1	8
615.305	1	14
615.475	1	20
615.644	1	8
615.814	1	11
615.984	1	24
616.153	1	14
616.323	1	5
616.493	1	8
616.662	1	9
616.832	1	13
617.002	1	8
617.171	1	8
617.341	1	18
617.511	1	8
617.680	1	16
617.850	1	16
618.019	1	9
618.189	1	8
618.359	1	14
618.528	1	2
618.698	1	3
618.868	1	11
619.037	1	12
619.207	1	5
619.377	1	1
619.546	1	5
619.716	1	5
619.885	1	9
620.055	1	11
620.225	1	16
620.394	1	8
620.564	1	13
620.734	1	10
620.903	1	14
621.073	1	1
621.242	1	1
621.412	1	9
621.582	1	2
621.751	1	14
621.921	1	16
622.091	1	2
622.260	1	-1
622.430	1	13
622.599	1	8
622.769	1	10
622.939	1	11
623.108	1	1
623.278	1	7
623.448	1	5
623.617	1	21
623.787	1	5
623.956	1	10
624.126	1	7
624.296	1	10
624.465	1	19
624.635	1	19
624.804	1	8
624.974	1	4
625.144	1	15
625.313	1	12
625.483	1	16
625.652	1	13
625.822	1	13
625.992	1	8
626.161	1	9
626.331	1	14
626.501	1	10
626.670	1	16
626.840	1	9
627.009	1	12
627.179	1	1
627.348	1	6
627.518	1	7
627.688	1	12
627.857	1	12
628.027	1	14
628.196	1	12
628.366	1	12
628.536	1	11
628.705	1	12
628.875	1	12
629.044	1	17
629.214	1	9
629.384	1	-14
629.553	1	13
629.723	1	18
629.892	1	4
630.062	1	9
630.232	1	16
630.401	1	6
630.571	1	12
630.740	1	9
630.910	1	12
631.079	1	21
631.249	1	-1
631.419	1	14
631.588	1	0
631.758	1	8
631.927	1	3
632.097	1	9
632.266	1	6
632.436	1	3
632.606	1	7
632.775	1	7
632.945	1	9
633.114	1	17
633.284	1	-2
633.453	1	4
633.623	1	2
633.793	1	7
633.962	1	13
634.132	1	12
634.301	1	0
634.471	1	-7
634.640	1	7
634.810	1	15
634.979	1	16
635.149	1	8
635.319	1	11
635.488	1	10
635.658	1	10
635.827	1	12
635.997	1	3
636.166	1	1
636.336	1	17
636.505	1	15
636.675	1	5
636.845	1	22
637.014	1	5
637.184	1	5
637.353	1	16
637.523	1	7
637.692	1	6
637.862	1	3
638.031	1	18
638.201	1	19
638.370	1	12
638.540	1	7
638.710	1	12
638.879	1	2
639.049	1	5
639.218	1	9
639.388	1	21
639.557	1	13
639.727	1	8
639.896	1	3
640.066	1	11
640.235	1	8
640.405	1	9
640.574	1	7
640.744	1	5
640.914	1	14
641.083	1	3
641.253	1	2
641.422	1	-4
641.592	1	3
641.761	1	5
641.931	1	17
642.100	1	4
642.270	1	11
642.439	1	1
642.609	1	7
642.778	1	5
642.948	1	7
643.117	1	-4
643.287	1	11
643.456	1	17
643.626	1	10
643.795	1	5
643.965	1	-3
644.134	1	7
644.304	1	10
644.473	1	18
644.643	1	4
644.812	1	20
644.982	1	9
645.151	1	6
645.321	1	19
645.490	1	11
645.660	1	-6
645.829	1	-2
645.999	1	5
646.168	1	11
646.338	1	14
646.507	1	4
646.677	1	12
646.846	1	22
647.016	1	9
647.185	1	3
647.355	1	9
647.524	1	18
647.694	1	2
647.863	1	-5
648.033	1	-2
648.202	1	5
648.372	1	12
648.541	1	8
648.711	1	12
648.880	1	6
649.050	1	5
649.219	1	11
649.389	1	11
649.558	1	8
649.728	1	9
649.897	1	9
650.067	1	5
650.236	1	14
650.406	1	11
650.575	1	7
650.745	1	-7
650.914	1	3
651.084	1	3
651.253	1	0
651.423	1	10
651.592	1	-5
651.762	1	12
651.931	1	13
652.101	1	8
652.270	1	13
652.440	1	10
652.609	1	13
652.778	1	1
652.948	1	5
653.117	1	7
653.287	1	13
653.456	1	6
653.626	1	14
653.795	1	13
653.965	1	11
654.134	1	9
654.304	1	11
654.473	1	9
654.643	1	18
654.812	1	6
654.982	1	-1
655.151	1	4
655.320	1	-6
655.490	1	18
655.659	1	4
655.829	1	13
655.998	1	18
656.168	1	4
656.337	1	9
656.507	1	13
656.676	1	-3
656.846	1	-1
657.015	1	5
657.184	1	9
657.354	1	2
657.523	1	-6
657.693	1	11
657.862	1	16
658.032	1	16
658.201	1	7
658.371	1	2
658.540	1	4
658.709	1	-3
658.879	1	9
659.048	1	9
659.218	1	-4
659.387	1	-2
659.557	1	5
659.726	1	10
659.895	1	-2
660.065	1	14
660.234	1	4
660.404	1	10
660.573	1	-5
660.743	1	-3
660.912	1	3
661.081	1	-2
661.251	1	9
661.420	1	9
661.590	1	5
661.759	1	16
661.929	1	5
662.098	1	-7
662.267	1	8
662.437	1	11
662.606	1	9
662.776	1	12
662.945	1	8
663.115	1	0
663.284	1	0
663.453	1	0
663.623	1	8
663.792	1	2
663.962	1	-3
664.131	1	-11
664.300	1	7
664.470	1	5
664.639	1	1
664.809	1	4
664.978	1	5
665.148	1	4
665.317	1	6
665.486	1	5
665.656	1	3
665.825	1	6
665.995	1	16
666.164	1	-1
666.333	1	12
666.503	1	-1
666.672	1	-2
666.842	1	1
667.011	1	17
667.180	1	2
667.350	1	15
667.519	1	2
667.689	1	2
667.858	1	2
668.027	1	1
668.197	1	6
668.366	1	9
668.536	1	10
668.705	1	13
668.874	1	1
669.044	1	-1
669.213	1	17
669.382	1	-3
669.552	1	7
669.721	1	3
669.891	1	9
670.060	1	13
670.229	1	-1
670.399	1	11
670.568	1	11
670.738	1	0
670.907	1	-3
671.076	1	11
671.246	1	0
671.415	1	0
671.584	1	9
671.754	1	-4
671.923	1	2
672.093	1	2
672.262	1	15
672.431	1	-1
672.601	1	5
672.770	1	12
672.939	1	-13
673.109	1	1
673.278	1	8
673.448	1	2
673.617	1	13
673.786	1	3
