325.333	1	4
325.504	1	8
325.675	1	4
325.846	1	-1
326.017	1	-3
326.188	1	7
326.359	1	-4
326.531	1	-1
326.702	1	4
326.873	1	5
327.044	1	0
327.215	1	-8
327.386	1	-2
327.557	1	10
327.728	1	-1
327.899	1	-3
328.070	1	6
328.241	1	0
328.412	1	6
328.583	1	-1
328.754	1	-3
328.926	1	7
329.097	1	3
329.268	1	2
329.439	1	5
329.610	1	3
329.781	1	-5
329.952	1	14
330.123	1	1
330.294	1	8
330.465	1	-1
330.636	1	-1
330.807	1	-5
330.978	1	-6
331.149	1	12
331.320	1	0
331.492	1	6
331.663	1	-3
331.834	1	3
332.005	1	9
332.176	1	-3
332.347	1	7
332.518	1	2
332.689	1	10
332.860	1	-1
333.031	1	2
333.202	1	1
333.373	1	-3
333.544	1	-5
333.715	1	6
333.886	1	11
334.057	1	-4
334.228	1	-2
334.399	1	8
334.570	1	2
334.741	1	-3
334.912	1	-6
335.084	1	-6
335.255	1	-2
335.426	1	-3
335.597	1	-6
335.768	1	5
335.939	1	-7
336.110	1	-3
336.281	1	-2
336.452	1	3
336.623	1	9
336.794	1	-7
336.965	1	-3
337.136	1	-1
337.307	1	2
337.478	1	9
337.649	1	4
337.820	1	7
337.991	1	8
338.162	1	-2
338.333	1	7
338.504	1	-3
338.675	1	11
338.846	1	-2
339.017	1	-2
339.188	1	7
339.359	1	6
339.530	1	2
339.701	1	2
339.872	1	-5
340.043	1	5
340.214	1	-6
340.385	1	0
340.556	1	5
340.727	1	4
340.898	1	-1
341.069	1	2
341.240	1	3
341.411	1	4
341.582	1	-3
341.753	1	2
341.924	1	-6
342.095	1	2
342.266	1	-1
342.437	1	5
342.608	1	-1
342.779	1	-1
342.950	1	2
343.121	1	9
343.292	1	4
343.463	1	-3
343.634	1	-6
343.805	1	5
343.976	1	7
344.147	1	-2
344.318	1	7
344.489	1	-15
344.660	1	15
344.831	1	-1
345.002	1	-1
345.173	1	4
345.344	1	-3
345.515	1	-7
345.686	1	2
345.857	1	-6
346.028	1	-5
346.199	1	-8
346.370	1	1
346.541	1	-2
346.712	1	6
346.883	1	4
347.054	1	2
347.225	1	6
347.396	1	1
347.567	1	3
347.738	1	2
347.909	1	9
348.080	1	2
348.251	1	4
348.422	1	2
348.593	1	-1
348.764	1	-6
348.935	1	10
349.106	1	5
349.277	1	-5
349.448	1	-1
349.619	1	-4
349.790	1	8
349.961	1	4
350.132	1	-7
350.303	1	-9
350.474	1	5
350.645	1	2
350.816	1	1
350.987	1	-10
351.157	1	10
351.328	1	4
351.499	1	-1
351.670	1	8
351.841	1	6
352.012	1	-6
352.183	1	-7
352.354	1	1
352.525	1	-2
352.696	1	-7
352.867	1	-1
353.038	1	5
353.209	1	9
353.380	1	10
353.551	1	0
353.722	1	0
353.893	1	8
354.064	1	10
354.235	1	8
354.406	1	-5
354.576	1	10
354.747	1	-1
354.918	1	-4
355.089	1	4
355.260	1	-4
355.431	1	1
355.602	1	8
355.773	1	4
355.944	1	-1
356.115	1	-6
356.286	1	5
356.457	1	-4
356.628	1	7
356.799	1	-4
356.970	1	0
357.141	1	-8
357.311	1	-2
357.482	1	6
357.653	1	5
357.824	1	3
357.995	1	12
358.166	1	2
358.337	1	13
358.508	1	4
358.679	1	10
358.850	1	7
359.021	1	8
359.192	1	10
359.363	1	-1
359.533	1	5
359.704	1	8
359.875	1	11
360.046	1	2
360.217	1	12
360.388	1	7
360.559	1	13
360.730	1	1
360.901	1	9
361.072	1	4
361.243	1	5
361.414	1	7
361.584	1	7
361.755	1	13
361.926	1	17
362.097	1	4
362.268	1	13
362.439	1	10
362.610	1	3
362.781	1	7
362.952	1	13
363.123	1	10
363.293	1	6
363.464	1	22
363.635	1	16
363.806	1	15
363.977	1	18
364.148	1	9
364.319	1	17
364.490	1	9
364.661	1	6
364.832	1	7
365.002	1	22
365.173	1	20
365.344	1	14
365.515	1	18
365.686	1	16
365.857	1	24
366.028	1	7
366.199	1	14
366.370	1	25
366.540	1	16
366.711	1	20
366.882	1	18
367.053	1	26
367.224	1	18
367.395	1	19
367.566	1	21
367.737	1	10
367.908	1	9
368.078	1	27
368.249	1	8
368.420	1	11
368.591	1	23
368.762	1	12
368.933	1	16
369.104	1	15
369.274	1	13
369.445	1	7
369.616	1	3
369.787	1	20
369.958	1	16
370.129	1	19
370.300	1	1
370.471	1	20
370.641	1	16
370.812	1	12
370.983	1	18
371.154	1	14
371.325	1	5
371.496	1	9
371.667	1	15
371.837	1	8
372.008	1	8
372.179	1	12
372.350	1	8
372.521	1	13
372.692	1	9
372.863	1	13
373.033	1	6
373.204	1	12
373.375	1	5
373.546	1	6
373.717	1	14
373.888	1	0
374.059	1	11
374.229	1	-5
374.400	1	4
374.571	1	3
374.742	1	17
374.913	1	6
375.084	1	2
375.254	1	9
375.425	1	6
375.596	1	2
375.767	1	1
375.938	1	9
376.109	1	-1
376.279	1	0
376.450	1	8
376.621	1	18
376.792	1	12
376.963	1	16
377.134	1	2
377.304	1	11
377.475	1	10
377.646	1	15
377.817	1	13
377.988	1	0
378.159	1	0
378.329	1	9
378.500	1	1
378.671	1	1
378.842	1	-7
379.013	1	1
379.184	1	6
379.354	1	15
379.525	1	16
379.696	1	7
379.867	1	9
380.038	1	11
380.209	1	12
380.379	1	1
380.550	1	9
380.721	1	16
380.892	1	6
381.063	1	11
381.233	1	17
381.404	1	18
381.575	1	5
381.746	1	22
381.917	1	0
382.087	1	8
382.258	1	29
382.429	1	22
382.600	1	20
382.771	1	19
382.941	1	17
383.112	1	11
383.283	1	19
383.454	1	7
383.625	1	23
383.795	1	25
383.966	1	13
384.137	1	18
384.308	1	39
384.479	1	39
384.649	1	24
384.820	1	24
384.991	1	39
385.162	1	25
385.333	1	47
385.503	1	38
385.674	1	32
385.845	1	46
386.016	1	38
386.187	1	41
386.357	1	47
386.528	1	50
386.699	1	43
386.870	1	44
387.041	1	31
387.211	1	36
387.382	1	30
387.553	1	38
387.724	1	41
387.894	1	47
388.065	1	39
388.236	1	45
388.407	1	35
388.578	1	42
388.748	1	33
388.919	1	35
389.090	1	36
389.261	1	13
389.431	1	42
389.602	1	36
389.773	1	36
389.944	1	30
390.114	1	38
390.285	1	34
390.456	1	33
390.627	1	30
390.798	1	40
390.968	1	28
391.139	1	24
391.310	1	28
391.481	1	29
391.651	1	36
391.822	1	37
391.993	1	42
392.164	1	29
392.334	1	33
392.505	1	26
392.676	1	37
392.847	1	35
393.017	1	17
393.188	1	36
393.359	1	34
393.530	1	26
393.700	1	33
393.871	1	26
394.042	1	27
394.213	1	20
394.383	1	36
394.554	1	27
394.725	1	23
394.896	1	23
395.066	1	34
395.237	1	31
395.408	1	30
395.579	1	43
395.749	1	38
395.920	1	44
396.091	1	33
396.262	1	29
396.432	1	28
396.603	1	31
396.774	1	29
396.945	1	37
397.115	1	40
397.286	1	46
397.457	1	35
397.627	1	37
397.798	1	22
397.969	1	24
398.140	1	29
398.310	1	48
398.481	1	17
398.652	1	41
398.823	1	50
398.993	1	22
399.164	1	38
399.335	1	34
399.505	1	22
399.676	1	32
399.847	1	24
400.018	1	33
400.188	1	32
400.359	1	23
400.530	1	42
400.700	1	14
400.871	1	21
401.042	1	25
401.213	1	22
401.383	1	31
401.554	1	30
401.725	1	17
401.895	1	25
402.066	1	14
402.237	1	28
402.408	1	24
402.578	1	17
402.749	1	20
402.920	1	9
403.090	1	27
403.261	1	15
403.432	1	18
403.603	1	26
403.773	1	22
403.944	1	23
404.115	1	7
404.285	1	16
404.456	1	21
404.627	1	26
404.797	1	37
404.968	1	22
405.139	1	18
405.310	1	23
405.480	1	22
405.651	1	11
405.822	1	27
405.992	1	22
406.163	1	33
406.334	1	20
406.504	1	15
406.675	1	28
406.846	1	9
407.016	1	17
407.187	1	15
407.358	1	16
407.528	1	21
407.699	1	31
407.870	1	23
408.041	1	13
408.211	1	23
408.382	1	24
408.553	1	23
408.723	1	12
408.894	1	8
409.065	1	19
409.235	1	8
409.406	1	19
409.577	1	21
409.747	1	26
409.918	1	13
410.089	1	15
410.259	1	26
410.430	1	20
410.601	1	7
410.771	1	22
410.942	1	21
411.113	1	15
411.283	1	6
411.454	1	17
411.625	1	16
411.795	1	16
411.966	1	12
412.137	1	7
412.307	1	25
412.478	1	26
412.649	1	12
412.819	1	21
412.990	1	24
413.161	1	18
413.331	1	5
413.502	1	17
413.672	1	10
413.843	1	15
414.014	1	20
414.184	1	6
414.355	1	12
414.526	1	9
414.696	1	11
414.867	1	23
415.038	1	6
415.208	1	11
415.379	1	27
415.550	1	24
415.720	1	13
415.891	1	15
416.062	1	5
416.232	1	22
416.403	1	18
416.573	1	12
416.744	1	15
416.915	1	0
417.085	1	19
417.256	1	9
417.427	1	16
417.597	1	-1
417.768	1	7
417.939	1	10
418.109	1	13
418.280	1	11
418.450	1	8
418.621	1	9
418.792	1	19
418.962	1	15
419.133	1	10
419.304	1	7
419.474	1	9
419.645	1	21
419.815	1	5
419.986	1	26
420.157	1	15
420.327	1	15
420.498	1	12
420.669	1	21
420.839	1	6
421.010	1	9
421.180	1	7
421.351	1	10
421.522	1	18
421.692	1	16
421.863	1	0
422.033	1	7
422.204	1	-3
422.375	1	3
422.545	1	17
422.716	1	5
422.886	1	5
423.057	1	7
423.228	1	0
423.398	1	9
423.569	1	12
423.740	1	3
423.910	1	5
424.081	1	6
424.251	1	3
424.422	1	14
424.593	1	20
424.763	1	5
424.934	1	10
425.104	1	10
425.275	1	3
425.445	1	6
425.616	1	11
425.787	1	-1
425.957	1	20
426.128	1	2
426.298	1	3
426.469	1	10
426.640	1	11
426.810	1	17
426.981	1	-6
427.151	1	15
427.322	1	7
427.493	1	14
427.663	1	11
427.834	1	3
428.004	1	5
428.175	1	3
428.345	1	20
428.516	1	12
428.687	1	10
428.857	1	-5
429.028	1	7
429.198	1	-5
429.369	1	19
429.540	1	11
429.710	1	0
429.881	1	9
430.051	1	6
430.222	1	5
430.392	1	2
430.563	1	10
430.734	1	1
430.904	1	-3
431.075	1	18
431.245	1	12
431.416	1	4
431.586	1	3
431.757	1	9
431.927	1	10
432.098	1	-1
432.269	1	4
432.439	1	-2
432.610	1	-3
432.780	1	-3
432.951	1	15
433.121	1	6
433.292	1	8
433.462	1	5
433.633	1	6
433.804	1	-3
433.974	1	-7
434.145	1	3
434.315	1	12
434.486	1	13
434.656	1	-1
434.827	1	1
434.997	1	5
435.168	1	-3
435.339	1	7
435.509	1	13
435.680	1	0
435.850	1	1
436.021	1	6
436.191	1	3
436.362	1	9
436.532	1	14
436.703	1	13
436.873	1	-3
437.044	1	1
437.214	1	-3
437.385	1	9
437.556	1	4
437.726	1	2
437.897	1	4
438.067	1	-7
438.238	1	-4
438.408	1	6
438.579	1	10
438.749	1	3
438.920	1	0
439.090	1	20
439.261	1	7
439.431	1	0
439.602	1	1
439.772	1	7
439.943	1	4
440.113	1	2
440.284	1	17
440.455	1	5
440.625	1	8
440.796	1	1
440.966	1	6
441.137	1	-4
441.307	1	3
441.478	1	6
441.648	1	-8
441.819	1	5
441.989	1	2
442.160	1	16
442.330	1	6
442.501	1	-1
442.671	1	12
442.842	1	10
443.012	1	5
443.183	1	-8
443.353	1	8
443.524	1	3
443.694	1	11
443.865	1	0
444.035	1	1
444.206	1	7
444.376	1	7
444.547	1	-4
444.717	1	13
444.888	1	-4
445.058	1	4
445.229	1	5
445.399	1	9
445.570	1	12
445.740	1	10
445.911	1	17
446.081	1	4
446.252	1	-9
446.422	1	0
446.593	1	-3
446.763	1	11
446.934	1	8
447.104	1	0
447.275	1	3
447.445	1	0
447.616	1	3
447.786	1	4
447.957	1	0
448.127	1	10
448.298	1	8
448.468	1	7
448.639	1	1
448.809	1	1
448.979	1	7
449.150	1	1
449.320	1	4
449.491	1	6
449.661	1	4
449.832	1	-1
450.002	1	2
450.173	1	4
450.343	1	3
450.514	1	2
450.684	1	-6
450.855	1	-1
451.025	1	1
451.196	1	7
451.366	1	7
451.537	1	5
451.707	1	6
451.878	1	4
452.048	1	5
452.218	1	-9
452.389	1	0
452.559	1	-2
452.730	1	8
452.900	1	-3
453.071	1	4
453.241	1	-8
453.412	1	5
453.582	1	13
453.753	1	-1
453.923	1	-1
454.093	1	4
454.264	1	-8
454.434	1	7
454.605	1	2
454.775	1	4
454.946	1	0
455.116	1	3
455.287	1	13
455.457	1	2
455.628	1	-5
455.798	1	-12
455.968	1	10
456.139	1	1
456.309	1	-9
456.480	1	-8
456.650	1	9
456.821	1	-2
456.991	1	6
457.161	1	7
457.332	1	9
457.502	1	5
457.673	1	-2
457.843	1	8
458.014	1	1
458.184	1	3
458.355	1	7
458.525	1	-2
458.695	1	1
458.866	1	-7
459.036	1	8
459.207	1	3
459.377	1	0
459.548	1	3
459.718	1	-10
459.888	1	9
460.059	1	14
460.229	1	0
460.400	1	2
460.570	1	-1
460.740	1	-5
460.911	1	12
461.081	1	3
461.252	1	-3
461.422	1	-1
461.593	1	0
461.763	1	2
461.933	1	-17
462.104	1	2
462.274	1	2
462.445	1	-6
462.615	1	-7
462.785	1	-6
462.956	1	1
463.126	1	2
463.297	1	-4
463.467	1	9
463.638	1	2
463.808	1	9
463.978	1	1
464.149	1	-1
464.319	1	4
464.490	1	-2
464.660	1	5
464.830	1	1
465.001	1	10
465.171	1	3
465.342	1	11
465.512	1	5
465.682	1	3
465.853	1	-5
466.023	1	5
466.194	1	10
466.364	1	9
466.534	1	3
466.705	1	-2
466.875	1	4
467.045	1	4
467.216	1	-5
467.386	1	8
467.557	1	6
467.727	1	-2
467.897	1	8
468.068	1	11
468.238	1	-5
468.409	1	7
468.579	1	8
468.749	1	3
468.920	1	2
469.090	1	14
469.260	1	-1
469.431	1	0
469.601	1	16
469.772	1	-8
469.942	1	4
470.112	1	0
470.283	1	13
470.453	1	6
470.623	1	0
470.794	1	5
470.964	1	-2
471.135	1	2
471.305	1	1
471.475	1	-5
471.646	1	3
471.816	1	-1
471.986	1	10
472.157	1	9
472.327	1	5
472.497	1	-1
472.668	1	3
472.838	1	6
473.009	1	3
473.179	1	4
473.349	1	2
473.520	1	5
473.690	1	14
473.860	1	4
474.031	1	2
474.201	1	1
474.371	1	7
474.542	1	-1
474.712	1	-3
474.882	1	-2
475.053	1	-9
475.223	1	6
475.394	1	11
475.564	1	9
475.734	1	-4
475.905	1	10
476.075	1	2
476.245	1	3
476.416	1	-3
476.586	1	-1
476.756	1	10
476.927	1	9
477.097	1	6
477.267	1	-1
477.438	1	1
477.608	1	5
477.778	1	6
477.949	1	4
478.119	1	5
478.289	1	3
478.460	1	5
478.630	1	1
478.800	1	-7
478.971	1	10
479.141	1	9
479.311	1	3
479.482	1	-4
479.652	1	7
479.822	1	0
479.993	1	7
480.163	1	-8
480.333	1	-1
480.504	1	4
480.674	1	20
480.844	1	10
481.015	1	3
481.185	1	8
481.355	1	7
481.525	1	0
481.696	1	1
481.866	1	3
482.036	1	-7
482.207	1	7
482.377	1	3
482.547	1	-2
482.718	1	8
482.888	1	-2
483.058	1	11
483.229	1	4
483.399	1	3
483.569	1	4
483.740	1	-9
483.910	1	-4
484.080	1	-8
484.250	1	5
484.421	1	8
484.591	1	14
484.761	1	-3
484.932	1	14
485.102	1	-8
485.272	1	10
485.443	1	9
485.613	1	-12
485.783	1	14
485.953	1	1
486.124	1	11
486.294	1	9
486.464	1	-7
486.635	1	6
486.805	1	17
486.975	1	-13
487.146	1	-1
487.316	1	9
487.486	1	6
487.656	1	-2
487.827	1	7
487.997	1	8
488.167	1	-1
488.338	1	14
488.508	1	2
488.678	1	10
488.848	1	4
489.019	1	-3
489.189	1	5
489.359	1	-2
489.529	1	0
489.700	1	7
489.870	1	-9
490.040	1	5
490.211	1	17
490.381	1	4
490.551	1	3
490.721	1	8
490.892	1	4
491.062	1	12
491.232	1	13
491.402	1	5
491.573	1	9
491.743	1	-12
491.913	1	8
492.084	1	10
492.254	1	2
492.424	1	-1
492.594	1	8
492.765	1	10
492.935	1	-4
493.105	1	16
493.275	1	9
493.446	1	3
493.616	1	14
493.786	1	0
493.956	1	3
494.127	1	-4
494.297	1	-1
494.467	1	8
494.637	1	4
494.808	1	13
494.978	1	9
495.148	1	18
495.318	1	24
495.489	1	-3
495.659	1	13
495.829	1	2
495.999	1	6
496.170	1	-5
496.340	1	6
496.510	1	13
496.680	1	5
496.851	1	8
497.021	1	0
497.191	1	4
497.361	1	7
497.532	1	5
497.702	1	3
497.872	1	0
498.042	1	8
498.213	1	17
498.383	1	5
498.553	1	9
498.723	1	10
498.894	1	7
499.064	1	17
499.234	1	-5
499.404	1	5
499.574	1	5
499.745	1	13
499.915	1	3
500.085	1	1
500.255	1	8
500.426	1	1
500.596	1	3
500.766	1	11
500.936	1	-1
501.106	1	5
501.277	1	6
501.447	1	4
501.617	1	10
501.787	1	7
501.958	1	8
502.128	1	7
502.298	1	10
502.468	1	13
502.638	1	5
502.809	1	16
502.979	1	-3
503.149	1	13
503.319	1	6
503.489	1	9
503.660	1	-2
503.830	1	8
504.000	1	4
504.170	1	9
504.340	1	12
504.511	1	11
504.681	1	11
504.851	1	2
505.021	1	6
505.192	1	14
505.362	1	11
505.532	1	7
505.702	1	11
505.872	1	-3
506.043	1	18
506.213	1	7
506.383	1	-4
506.553	1	22
506.723	1	15
506.893	1	7
507.064	1	-1
507.234	1	21
507.404	1	2
507.574	1	6
507.744	1	-2
507.915	1	1
508.085	1	-1
508.255	1	16
508.425	1	25
508.595	1	24
508.766	1	19
508.936	1	10
509.106	1	2
509.276	1	6
509.446	1	11
509.616	1	8
509.787	1	8
509.957	1	19
510.127	1	25
510.297	1	10
510.467	1	9
510.638	1	5
510.808	1	1
510.978	1	-8
511.148	1	29
511.318	1	9
511.488	1	19
511.659	1	6
511.829	1	5
511.999	1	19
512.169	1	12
512.339	1	11
512.509	1	24
512.680	1	11
512.850	1	10
513.020	1	13
513.190	1	12
513.360	1	20
513.530	1	7
513.700	1	21
513.871	1	25
514.041	1	17
514.211	1	3
514.381	1	10
514.551	1	7
514.721	1	13
514.892	1	13
515.062	1	12
515.232	1	11
515.402	1	1
515.572	1	9
515.742	1	17
515.912	1	24
516.083	1	12
516.253	1	19
516.423	1	24
516.593	1	16
516.763	1	12
516.933	1	26
517.104	1	17
517.274	1	18
517.444	1	11
517.614	1	7
517.784	1	11
517.954	1	10
518.124	1	15
518.294	1	20
518.465	1	12
518.635	1	8
518.805	1	17
518.975	1	20
519.145	1	21
519.315	1	9
519.485	1	5
519.656	1	13
519.826	1	9
519.996	1	24
520.166	1	27
520.336	1	8
520.506	1	18
520.676	1	9
520.846	1	3
521.017	1	3
521.187	1	24
521.357	1	5
521.527	1	8
521.697	1	21
521.867	1	19
522.037	1	12
522.207	1	10
522.377	1	15
522.548	1	12
522.718	1	6
522.888	1	4
523.058	1	31
523.228	1	24
523.398	1	14
523.568	1	10
523.738	1	11
523.909	1	24
524.079	1	10
524.249	1	17
524.419	1	26
524.589	1	23
524.759	1	15
524.929	1	10
525.099	1	13
525.269	1	19
525.439	1	4
525.610	1	18
525.780	1	25
525.950	1	11
526.120	1	13
526.290	1	9
526.460	1	27
526.630	1	21
526.800	1	20
526.970	1	1
527.140	1	13
527.311	1	16
527.481	1	22
527.651	1	27
527.821	1	27
527.991	1	21
528.161	1	13
528.331	1	14
528.501	1	6
528.671	1	15
528.841	1	22
529.011	1	15
529.181	1	25
529.352	1	21
529.522	1	17
529.692	1	29
529.862	1	14
530.032	1	10
530.202	1	15
530.372	1	18
530.542	1	23
530.712	1	30
530.882	1	16
531.052	1	22
531.222	1	2
531.392	1	17
531.563	1	13
531.733	1	16
531.903	1	20
532.073	1	25
532.243	1	16
532.413	1	23
532.583	1	17
532.753	1	16
532.923	1	12
533.093	1	20
533.263	1	16
533.433	1	27
533.603	1	17
533.773	1	16
533.943	1	16
534.113	1	16
534.284	1	19
534.454	1	15
534.624	1	17
534.794	1	17
534.964	1	6
535.134	1	9
535.304	1	20
535.474	1	11
535.644	1	26
535.814	1	20
535.984	1	12
536.154	1	25
536.324	1	22
536.494	1	23
536.664	1	23
536.834	1	17
537.004	1	27
537.174	1	16
537.344	1	23
537.514	1	24
537.685	1	12
537.855	1	27
538.025	1	15
538.195	1	19
538.365	1	17
538.535	1	25
538.705	1	21
538.875	1	17
539.045	1	20
539.215	1	7
539.385	1	9
539.555	1	12
539.725	1	10
539.895	1	14
540.065	1	18
540.235	1	4
540.405	1	10
540.575	1	21
540.745	1	19
540.915	1	19
541.085	1	6
541.255	1	15
541.425	1	9
541.595	1	16
541.765	1	18
541.935	1	27
542.105	1	25
542.275	1	16
542.445	1	19
542.615	1	11
542.785	1	7
542.955	1	15
543.125	1	16
543.295	1	12
543.465	1	28
543.635	1	17
543.805	1	18
543.975	1	18
544.145	1	19
544.315	1	6
544.485	1	14
544.655	1	14
544.825	1	15
544.995	1	19
545.165	1	12
545.335	1	23
545.505	1	10
545.675	1	16
545.845	1	12
546.015	1	12
546.185	1	12
546.355	1	27
546.525	1	26
546.695	1	10
546.865	1	15
547.035	1	24
547.205	1	8
547.375	1	19
547.545	1	11
547.715	1	26
547.885	1	11
548.055	1	19
548.225	1	7
548.395	1	21
548.565	1	13
548.735	1	31
548.905	1	6
549.075	1	11
549.245	1	20
549.415	1	18
549.585	1	6
549.755	1	12
549.925	1	20
550.095	1	11
550.265	1	15
550.435	1	23
550.605	1	14
550.775	1	8
550.945	1	17
551.115	1	9
551.285	1	16
551.455	1	12
551.625	1	5
551.795	1	12
551.965	1	6
552.135	1	4
552.305	1	11
552.475	1	16
552.645	1	16
552.815	1	12
552.985	1	15
553.155	1	9
553.325	1	20
553.495	1	20
553.665	1	21
553.835	1	10
554.004	1	14
554.174	1	11
554.344	1	2
554.514	1	13
554.684	1	30
554.854	1	12
555.024	1	11
555.194	1	18
555.364	1	14
555.534	1	11
555.704	1	14
555.874	1	10
556.044	1	20
556.214	1	6
556.384	1	25
556.554	1	9
556.724	1	8
556.894	1	13
557.064	1	8
557.234	1	16
557.404	1	4
557.573	1	18
557.743	1	7
557.913	1	11
558.083	1	1
558.253	1	10
558.423	1	-6
558.593	1	14
558.763	1	8
558.933	1	22
559.103	1	9
559.273	1	6
559.443	1	11
559.613	1	12
559.783	1	3
559.953	1	6
560.122	1	2
560.292	1	17
560.462	1	16
560.632	1	14
560.802	1	10
560.972	1	22
561.142	1	14
561.312	1	15
561.482	1	5
561.652	1	15
561.822	1	21
561.992	1	11
562.162	1	15
562.331	1	6
562.501	1	10
562.671	1	10
562.841	1	1
563.011	1	18
563.181	1	9
563.351	1	2
563.521	1	21
563.691	1	6
563.861	1	20
564.031	1	11
564.201	1	7
564.370	1	24
564.540	1	19
564.710	1	3
564.880	1	4
565.050	1	8
565.220	1	7
565.390	1	-1
565.560	1	19
565.730	1	8
565.900	1	7
566.069	1	11
566.239	1	5
566.409	1	13
566.579	1	9
566.749	1	14
566.919	1	19
567.089	1	17
567.259	1	14
567.429	1	8
567.599	1	1
567.768	1	17
567.938	1	7
568.108	1	-1
568.278	1	-3
568.448	1	11
568.618	1	17
568.788	1	1
568.958	1	6
569.128	1	9
569.297	1	13
569.467	1	3
569.637	1	12
569.807	1	4
569.977	1	14
570.147	1	9
570.317	1	32
570.487	1	9
570.656	1	5
570.826	1	5
570.996	1	8
571.166	1	6
571.336	1	6
571.506	1	5
571.676	1	12
571.846	1	21
572.015	1	-5
572.185	1	13
572.355	1	20
572.525	1	3
572.695	1	7
572.865	1	11
573.035	1	3
573.205	1	20
573.374	1	5
573.544	1	3
573.714	1	8
573.884	1	5
574.054	1	10
574.224	1	9
574.394	1	-5
574.563	1	4
574.733	1	6
574.903	1	13
575.073	1	-4
575.243	1	-4
575.413	1	5
575.583	1	12
575.752	1	7
575.922	1	13
576.092	1	13
576.262	1	4
576.432	1	-6
576.602	1	4
576.772	1	11
576.941	1	11
577.111	1	6
577.281	1	8
577.451	1	6
577.621	1	-1
577.791	1	17
577.960	1	6
578.130	1	-5
578.300	1	1
578.470	1	-2
578.640	1	3
578.810	1	8
578.979	1	20
579.149	1	3
579.319	1	16
579.489	1	6
579.659	1	14
579.829	1	0
579.998	1	4
580.168	1	11
580.338	1	-7
580.508	1	2
580.678	1	5
580.848	1	10
581.017	1	3
581.187	1	6
581.357	1	3
581.527	1	10
581.697	1	-2
581.867	1	2
582.036	1	13
582.206	1	3
582.376	1	0
582.546	1	5
582.716	1	15
582.885	1	8
583.055	1	6
583.225	1	2
583.395	1	3
583.565	1	15
583.735	1	2
583.904	1	7
584.074	1	-2
584.244	1	8
584.414	1	8
584.584	1	7
584.753	1	1
584.923	1	6
585.093	1	6
585.263	1	7
585.433	1	-2
585.602	1	7
585.772	1	2
585.942	1	6
586.112	1	12
586.282	1	3
586.451	1	5
586.621	1	7
586.791	1	9
586.961	1	6
587.131	1	-4
587.300	1	-1
587.470	1	8
587.640	1	8
587.810	1	11
587.980	1	8
588.149	1	7
588.319	1	3
588.489	1	6
588.659	1	4
588.829	1	9
588.998	1	-11
589.168	1	7
589.338	1	1
589.508	1	9
589.677	1	5
589.847	1	0
590.017	1	-8
590.187	1	3
590.357	1	8
590.526	1	20
590.696	1	-2
590.866	1	9
591.036	1	6
591.205	1	6
591.375	1	-5
591.545	1	-8
591.715	1	1
591.885	1	5
592.054	1	6
592.224	1	3
592.394	1	12
592.564	1	-7
592.733	1	2
592.903	1	8
593.073	1	0
593.243	1	1
593.412	1	1
593.582	1	9
593.752	1	10
593.922	1	1
594.091	1	11
594.261	1	11
594.431	1	3
594.601	1	-9
594.771	1	11
594.940	1	2
595.110	1	4
595.280	1	3
595.450	1	11
595.619	1	12
595.789	1	4
595.959	1	4
596.129	1	1
596.298	1	12
596.468	1	9
596.638	1	3
596.808	1	9
596.977	1	4
597.147	1	9
597.317	1	4
597.487	1	5
597.656	1	10
597.826	1	2
597.996	1	5
598.166	1	8
598.335	1	4
598.505	1	-2
598.675	1	7
598.844	1	3
599.014	1	-1
599.184	1	12
599.354	1	0
599.523	1	2
599.693	1	1
599.863	1	6
600.033	1	0
600.202	1	9
600.372	1	1
600.542	1	-1
600.712	1	5
600.881	1	7
601.051	1	8
601.221	1	4
601.390	1	-9
601.560	1	3
601.730	1	-2
601.900	1	8
602.069	1	-8
602.239	1	-4
602.409	1	9
602.578	1	5
602.748	1	-2
602.918	1	-4
603.088	1	8
603.257	1	5
603.427	1	2
603.597	1	17
603.767	1	4
603.936	1	9
604.106	1	6
604.276	1	5
604.445	1	10
604.615	1	-3
604.785	1	-1
604.954	1	4
605.124	1	-3
605.294	1	9
605.464	1	8
605.633	1	9
605.803	1	3
605.973	1	2
606.142	1	3
606.312	1	-1
606.482	1	1
606.652	1	-4
606.821	1	7
606.991	1	1
607.161	1	7
607.330	1	13
607.500	1	4
607.670	1	-3
607.839	1	-1
608.009	1	-4
608.179	1	12
608.348	1	7
608.518	1	11
608.688	1	7
608.858	1	0
609.027	1	6
609.197	1	0
609.367	1	1
609.536	1	4
609.706	1	7
609.876	1	2
610.045	1	-1
610.215	1	-13
610.385	1	5
610.554	1	0
610.724	1	5
610.894	1	9
611.063	1	11
611.233	1	4
611.403	1	9
611.572	1	5
611.742	1	-1
611.912	1	4
612.081	1	-3
612.251	1	-3
612.421	1	16
612.590	1	-2
612.760	1	2
612.930	1	10
613.099	1	-3
613.269	1	11
613.439	1	5
613.608	1	5
613.778	1	11
613.948	1	9
614.117	1	10
614.287	1	-1
614.457	1	7
614.626	1	6
614.796	1	16
614.966	1	13
615.135	1	-5
615.305	1	0
615.475	1	10
615.644	1	-5
615.814	1	6
615.984	1	12
616.153	1	16
616.323	1	7
616.493	1	3
616.662	1	4
616.832	1	0
617.002	1	10
617.171	1	4
617.341	1	4
617.511	1	-3
617.680	1	-1
617.850	1	5
618.019	1	7
618.189	1	6
618.359	1	0
618.528	1	-7
618.698	1	-4
618.868	1	17
619.037	1	14
619.207	1	-3
619.377	1	-14
619.546	1	3
619.716	1	-12
619.885	1	1
620.055	1	3
620.225	1	12
620.394	1	9
620.564	1	-7
620.734	1	-3
620.903	1	10
621.073	1	1
621.242	1	-13
621.412	1	7
621.582	1	5
621.751	1	2
621.921	1	8
622.091	1	9
622.260	1	-2
622.430	1	7
622.599	1	22
622.769	1	0
622.939	1	3
623.108	1	-7
623.278	1	6
623.448	1	-9
623.617	1	6
623.787	1	-1
623.956	1	4
624.126	1	3
624.296	1	-3
624.465	1	10
624.635	1	9
624.804	1	-7
624.974	1	-1
625.144	1	6
625.313	1	12
625.483	1	-1
625.652	1	6
625.822	1	9
625.992	1	-8
626.161	1	11
626.331	1	5
626.501	1	-2
626.670	1	4
626.840	1	24
627.009	1	-10
627.179	1	9
627.348	1	4
627.518	1	14
627.688	1	1
627.857	1	12
628.027	1	3
628.196	1	6
628.366	1	-2
628.536	1	6
628.705	1	1
628.875	1	-4
629.044	1	1
629.214	1	3
629.384	1	-5
629.553	1	3
629.723	1	-3
629.892	1	7
630.062	1	1
630.232	1	12
630.401	1	3
630.571	1	2
630.740	1	1
630.910	1	0
631.079	1	7
631.249	1	1
631.419	1	3
631.588	1	-6
631.758	1	8
631.927	1	1
632.097	1	7
632.266	1	-5
632.436	1	-11
632.606	1	13
632.775	1	-9
632.945	1	0
633.114	1	12
633.284	1	-10
633.453	1	2
633.623	1	-4
633.793	1	1
633.962	1	14
634.132	1	12
634.301	1	3
634.471	1	-12
634.640	1	1
634.810	1	7
634.979	1	15
635.149	1	6
635.319	1	5
635.488	1	4
635.658	1	-2
635.827	1	4
635.997	1	2
636.166	1	-2
636.336	1	10
636.505	1	-1
636.675	1	-1
636.845	1	6
637.014	1	0
637.184	1	5
637.353	1	11
637.523	1	-1
637.692	1	3
637.862	1	-11
638.031	1	18
638.201	1	10
638.370	1	17
638.540	1	7
638.710	1	7
638.879	1	-8
639.049	1	11
639.218	1	2
639.388	1	-4
639.557	1	5
639.727	1	1
639.896	1	1
640.066	1	5
640.235	1	2
640.405	1	6
640.574	1	7
640.744	1	8
640.914	1	0
641.083	1	-1
641.253	1	-1
641.422	1	1
641.592	1	-8
641.761	1	5
641.931	1	5
642.100	1	-5
642.270	1	4
642.439	1	9
642.609	1	5
642.778	1	4
642.948	1	3
643.117	1	-10
643.287	1	9
643.456	1	8
643.626	1	-2
643.795	1	2
643.965	1	0
644.134	1	-1
644.304	1	-2
644.473	1	15
644.643	1	0
644.812	1	14
644.982	1	3
645.151	1	-2
645.321	1	11
645.490	1	3
645.660	1	-8
645.829	1	-4
645.999	1	-2
646.168	1	4
646.338	1	11
646.507	1	13
646.677	1	-2
646.846	1	13
647.016	1	1
647.185	1	-2
647.355	1	0
647.524	1	11
647.694	1	1
647.863	1	-2
648.033	1	-13
648.202	1	1
648.372	1	11
648.541	1	11
648.711	1	-2
648.880	1	4
649.050	1	-1
649.219	1	10
649.389	1	-1
649.558	1	-1
649.728	1	4
649.897	1	11
650.067	1	-1
650.236	1	10
650.406	1	10
650.575	1	3
650.745	1	-4
650.914	1	-1
651.084	1	-1
651.253	1	6
651.423	1	8
651.592	1	1
651.762	1	10
651.931	1	4
652.101	1	-5
652.270	1	5
652.440	1	3
652.609	1	11
652.778	1	-3
652.948	1	-2
653.117	1	3
653.287	1	11
653.456	1	6
653.626	1	13
653.795	1	4
653.965	1	12
654.134	1	3
654.304	1	0
654.473	1	4
654.643	1	14
654.812	1	4
654.982	1	0
655.151	1	-1
655.320	1	-11
655.490	1	12
655.659	1	1
655.829	1	3
655.998	1	10
656.168	1	3
656.337	1	-5
656.507	1	15
656.676	1	-14
656.846	1	-2
657.015	1	-6
657.184	1	-2
657.354	1	4
657.523	1	-6
657.693	1	-2
657.862	1	6
658.032	1	8
658.201	1	-8
658.371	1	-7
658.540	1	3
658.709	1	-11
658.879	1	1
659.048	1	9
659.218	1	-5
659.387	1	-6
659.557	1	2
659.726	1	0
659.895	1	4
660.065	1	9
660.234	1	-2
660.404	1	10
660.573	1	-5
660.743	1	-8
660.912	1	0
661.081	1	0
661.251	1	-7
661.420	1	5
661.590	1	3
661.759	1	13
661.929	1	0
662.098	1	-13
662.267	1	16
662.437	1	5
662.606	1	-1
662.776	1	6
662.945	1	6
663.115	1	2
663.284	1	-1
663.453	1	7
663.623	1	2
663.792	1	1
663.962	1	-6
664.131	1	5
664.300	1	1
664.470	1	6
664.639	1	0
664.809	1	6
664.978	1	5
665.148	1	1
665.317	1	-2
665.486	1	-2
665.656	1	-2
665.825	1	9
665.995	1	14
666.164	1	1
666.333	1	-2
666.503	1	-3
666.672	1	-7
666.842	1	-3
667.011	1	17
667.180	1	-2
667.350	1	10
667.519	1	3
667.689	1	-3
667.858	1	-2
668.027	1	-5
668.197	1	0
668.366	1	-3
668.536	1	4
668.705	1	2
668.874	1	1
669.044	1	7
669.213	1	2
669.382	1	-12
669.552	1	12
669.721	1	-5
669.891	1	8
670.060	1	4
670.229	1	8
670.399	1	11
670.568	1	12
670.738	1	-13
670.907	1	-11
671.076	1	8
671.246	1	-2
671.415	1	9
671.584	1	-4
671.754	1	0
671.923	1	-3
672.093	1	9
672.262	1	4
672.431	1	2
672.601	1	-2
672.770	1	11
672.939	1	-5
673.109	1	3
673.278	1	8
673.448	1	-5
673.617	1	10
673.786	1	4
