325.333	1	-3
325.504	1	5
325.675	1	3
325.846	1	-10
326.017	1	4
326.188	1	6
326.359	1	1
326.531	1	-2
326.702	1	-5
326.873	1	6
327.044	1	0
327.215	1	3
327.386	1	0
327.557	1	1
327.728	1	-4
327.899	1	0
328.070	1	7
328.241	1	-5
328.412	1	0
328.583	1	-5
328.754	1	-1
328.926	1	2
329.097	1	5
329.268	1	-3
329.439	1	0
329.610	1	5
329.781	1	-8
329.952	1	11
330.123	1	3
330.294	1	11
330.465	1	-1
330.636	1	14
330.807	1	1
330.978	1	-5
331.149	1	2
331.320	1	2
331.492	1	-3
331.663	1	-10
331.834	1	11
332.005	1	12
332.176	1	-6
332.347	1	7
332.518	1	8
332.689	1	8
332.860	1	-1
333.031	1	0
333.202	1	-5
333.373	1	5
333.544	1	-1
333.715	1	-1
333.886	1	-4
334.057	1	-5
334.228	1	-7
334.399	1	6
334.570	1	2
334.741	1	-7
334.912	1	0
335.084	1	-3
335.255	1	-6
335.426	1	-10
335.597	1	-5
335.768	1	15
335.939	1	-3
336.110	1	5
336.281	1	-15
336.452	1	-4
336.623	1	1
336.794	1	-11
336.965	1	-3
337.136	1	2
337.307	1	17
337.478	1	4
337.649	1	1
337.820	1	9
337.991	1	8
338.162	1	1
338.333	1	2
338.504	1	-4
338.675	1	4
338.846	1	-1
339.017	1	-5
339.188	1	-2
339.359	1	-10
339.530	1	11
339.701	1	-1
339.872	1	-3
340.043	1	-6
340.214	1	2
340.385	1	-2
340.556	1	12
340.727	1	-2
340.898	1	-1
341.069	1	4
341.240	1	3
341.411	1	5
341.582	1	1
341.753	1	7
341.924	1	-3
342.095	1	2
342.266	1	-9
342.437	1	3
342.608	1	1
342.779	1	-14
342.950	1	3
343.121	1	7
343.292	1	-1
343.463	1	-7
343.634	1	-14
343.805	1	9
343.976	1	10
344.147	1	-10
344.318	1	6
344.489	1	-3
344.660	1	9
344.831	1	0
345.002	1	4
345.173	1	0
345.344	1	-9
345.515	1	-4
345.686	1	-4
345.857	1	-4
346.028	1	-9
346.199	1	-10
346.370	1	-3
346.541	1	-10
346.712	1	-3
346.883	1	1
347.054	1	6
347.225	1	-9
347.396	1	5
347.567	1	2
347.738	1	2
347.909	1	4
348.080	1	-4
348.251	1	11
348.422	1	3
348.593	1	-2
348.764	1	-5
348.935	1	10
349.106	1	5
349.277	1	-1
349.448	1	4
349.619	1	-2
349.790	1	-3
349.961	1	6
350.132	1	4
350.303	1	-11
350.474	1	3
350.645	1	-1
350.816	1	7
350.987	1	-8
351.157	1	16
351.328	1	11
351.499	1	8
351.670	1	4
351.841	1	1
352.012	1	-18
352.183	1	8
352.354	1	7
352.525	1	7
352.696	1	-3
352.867	1	3
353.038	1	18
353.209	1	12
353.380	1	4
353.551	1	16
353.722	1	4
353.893	1	8
354.064	1	10
354.235	1	3
354.406	1	1
354.576	1	10
354.747	1	-7
354.918	1	-3
355.089	1	0
355.260	1	-4
355.431	1	1
355.602	1	4
355.773	1	9
355.944	1	-11
356.115	1	0
356.286	1	9
356.457	1	-6
356.628	1	-5
356.799	1	-5
356.970	1	10
357.141	1	-5
357.311	1	-5
357.482	1	3
357.653	1	2
357.824	1	-1
357.995	1	-2
358.166	1	5
358.337	1	8
358.508	1	9
358.679	1	10
358.850	1	-1
359.021	1	-15
359.192	1	6
359.363	1	1
359.533	1	-2
359.704	1	8
359.875	1	-1
360.046	1	6
360.217	1	14
360.388	1	1
360.559	1	11
360.730	1	-6
360.901	1	17
361.072	1	-5
361.243	1	4
361.414	1	17
361.584	1	11
361.755	1	12
361.926	1	16
362.097	1	10
362.268	1	11
362.439	1	9
362.610	1	9
362.781	1	6
362.952	1	16
363.123	1	12
363.293	1	-2
363.464	1	17
363.635	1	10
363.806	1	14
363.977	1	8
364.148	1	14
364.319	1	10
364.490	1	18
364.661	1	18
364.832	1	9
365.002	1	18
365.173	1	19
365.344	1	7
365.515	1	15
365.686	1	9
365.857	1	14
366.028	1	11
366.199	1	17
366.370	1	24
366.540	1	27
366.711	1	23
366.882	1	15
367.053	1	16
367.224	1	23
367.395	1	21
367.566	1	19
367.737	1	-4
367.908	1	19
368.078	1	26
368.249	1	17
368.420	1	15
368.591	1	30
368.762	1	8
368.933	1	14
369.104	1	13
369.274	1	9
369.445	1	6
369.616	1	5
369.787	1	15
369.958	1	19
370.129	1	12
370.300	1	1
370.471	1	18
370.641	1	8
370.812	1	8
370.983	1	8
371.154	1	6
371.325	1	11
371.496	1	5
371.667	1	10
371.837	1	-7
372.008	1	3
372.179	1	4
372.350	1	-1
372.521	1	2
372.692	1	11
372.863	1	12
373.033	1	25
373.204	1	9
373.375	1	9
373.546	1	8
373.717	1	3
373.888	1	6
374.059	1	7
374.229	1	-4
374.400	1	8
374.571	1	6
374.742	1	16
374.913	1	12
375.084	1	3
375.254	1	9
375.425	1	2
375.596	1	-4
375.767	1	13
375.938	1	7
376.109	1	-2
376.279	1	-3
376.450	1	7
376.621	1	17
376.792	1	8
376.963	1	12
377.134	1	-3
377.304	1	7
377.475	1	22
377.646	1	9
377.817	1	14
377.988	1	0
378.159	1	6
378.329	1	8
378.500	1	-3
378.671	1	-4
378.842	1	-2
379.013	1	4
379.184	1	15
379.354	1	16
379.525	1	11
379.696	1	5
379.867	1	15
380.038	1	20
380.209	1	8
380.379	1	-6
380.550	1	6
380.721	1	20
380.892	1	8
381.063	1	11
381.233	1	2
381.404	1	6
381.575	1	4
381.746	1	24
381.917	1	1
382.087	1	15
382.258	1	25
382.429	1	23
382.600	1	15
382.771	1	6
382.941	1	10
383.112	1	15
383.283	1	12
383.454	1	15
383.625	1	15
383.795	1	28
383.966	1	21
384.137	1	19
384.308	1	30
384.479	1	42
384.649	1	21
384.820	1	14
384.991	1	22
385.162	1	27
385.333	1	32
385.503	1	25
385.674	1	43
385.845	1	32
386.016	1	45
386.187	1	39
386.357	1	31
386.528	1	41
386.699	1	41
386.870	1	42
387.041	1	17
387.211	1	39
387.382	1	21
387.553	1	30
387.724	1	31
387.894	1	33
388.065	1	40
388.236	1	40
388.407	1	39
388.578	1	28
388.748	1	40
388.919	1	34
389.090	1	30
389.261	1	25
389.431	1	37
389.602	1	35
389.773	1	32
389.944	1	38
390.114	1	36
390.285	1	31
390.456	1	35
390.627	1	18
390.798	1	36
390.968	1	23
391.139	1	22
391.310	1	32
391.481	1	35
391.651	1	31
391.822	1	39
391.993	1	36
392.164	1	21
392.334	1	31
392.505	1	30
392.676	1	25
392.847	1	26
393.017	1	22
393.188	1	28
393.359	1	20
393.530	1	31
393.700	1	23
393.871	1	27
394.042	1	35
394.213	1	25
394.383	1	36
394.554	1	38
394.725	1	6
394.896	1	25
395.066	1	30
395.237	1	35
395.408	1	34
395.579	1	26
395.749	1	26
395.920	1	37
396.091	1	27
396.262	1	30
396.432	1	18
396.603	1	31
396.774	1	25
396.945	1	28
397.115	1	45
397.286	1	42
397.457	1	37
397.627	1	34
397.798	1	28
397.969	1	25
398.140	1	22
398.310	1	29
398.481	1	32
398.652	1	37
398.823	1	33
398.993	1	25
399.164	1	38
399.335	1	24
399.505	1	32
399.676	1	29
399.847	1	25
400.018	1	35
400.188	1	24
400.359	1	21
400.530	1	35
400.700	1	19
400.871	1	15
401.042	1	26
401.213	1	18
401.383	1	23
401.554	1	34
401.725	1	17
401.895	1	35
402.066	1	25
402.237	1	22
402.408	1	28
402.578	1	15
402.749	1	8
402.920	1	-3
403.090	1	18
403.261	1	17
403.432	1	18
403.603	1	22
403.773	1	21
403.944	1	31
404.115	1	5
404.285	1	18
404.456	1	16
404.627	1	31
404.797	1	30
404.968	1	19
405.139	1	12
405.310	1	20
405.480	1	28
405.651	1	16
405.822	1	27
405.992	1	11
406.163	1	18
406.334	1	17
406.504	1	18
406.675	1	23
406.846	1	17
407.016	1	9
407.187	1	12
407.358	1	15
407.528	1	16
407.699	1	26
407.870	1	24
408.041	1	17
408.211	1	20
408.382	1	30
408.553	1	19
408.723	1	13
408.894	1	11
409.065	1	21
409.235	1	3
409.406	1	24
409.577	1	18
409.747	1	20
409.918	1	17
410.089	1	16
410.259	1	21
410.430	1	22
410.601	1	6
410.771	1	13
410.942	1	17
411.113	1	28
411.283	1	16
411.454	1	9
411.625	1	16
411.795	1	13
411.966	1	10
412.137	1	14
412.307	1	21
412.478	1	20
412.649	1	11
412.819	1	23
412.990	1	14
413.161	1	4
413.331	1	1
413.502	1	20
413.672	1	12
413.843	1	10
414.014	1	12
414.184	1	7
414.355	1	-2
414.526	1	6
414.696	1	8
414.867	1	12
415.038	1	14
415.208	1	8
415.379	1	14
415.550	1	6
415.720	1	13
415.891	1	22
416.062	1	18
416.232	1	13
416.403	1	13
416.573	1	3
416.744	1	16
416.915	1	13
417.085	1	-2
417.256	1	18
417.427	1	8
417.597	1	-2
417.768	1	5
417.939	1	13
418.109	1	13
418.280	1	7
418.450	1	10
418.621	1	15
418.792	1	7
418.962	1	1
419.133	1	8
419.304	1	10
419.474	1	8
419.645	1	15
419.815	1	4
419.986	1	12
420.157	1	21
420.327	1	12
420.498	1	8
420.669	1	15
420.839	1	7
421.010	1	19
421.180	1	9
421.351	1	20
421.522	1	5
421.692	1	8
421.863	1	2
422.033	1	6
422.204	1	3
422.375	1	-1
422.545	1	13
422.716	1	5
422.886	1	9
423.057	1	-1
423.228	1	5
423.398	1	18
423.569	1	6
423.740	1	8
423.910	1	-9
424.081	1	12
424.251	1	-2
424.422	1	2
424.593	1	5
424.763	1	15
424.934	1	8
425.104	1	13
425.275	1	6
425.445	1	4
425.616	1	11
425.787	1	-4
425.957	1	19
426.128	1	4
426.298	1	2
426.469	1	4
426.640	1	6
426.810	1	13
426.981	1	2
427.151	1	13
427.322	1	10
427.493	1	7
427.663	1	-3
427.834	1	-2
428.004	1	8
428.175	1	8
428.345	1	14
428.516	1	12
428.687	1	7
428.857	1	8
429.028	1	3
429.198	1	-3
429.369	1	6
429.540	1	8
429.710	1	4
429.881	1	15
430.051	1	10
430.222	1	2
430.392	1	7
430.563	1	18
430.734	1	10
430.904	1	7
431.075	1	17
431.245	1	13
431.416	1	3
431.586	1	-2
431.757	1	7
431.927	1	6
432.098	1	9
432.269	1	-1
432.439	1	-2
432.610	1	-1
432.780	1	-3
432.951	1	0
433.121	1	7
433.292	1	11
433.462	1	18
433.633	1	1
433.804	1	-3
433.974	1	-5
434.145	1	11
434.315	1	5
434.486	1	3
434.656	1	-5
434.827	1	3
434.997	1	9
435.168	1	0
435.339	1	18
435.509	1	17
435.680	1	-5
435.850	1	8
436.021	1	13
436.191	1	12
436.362	1	0
436.532	1	1
436.703	1	15
436.873	1	-6
437.044	1	7
437.214	1	-7
437.385	1	8
437.556	1	3
437.726	1	-5
437.897	1	5
438.067	1	5
438.238	1	1
438.408	1	5
438.579	1	20
438.749	1	6
438.920	1	5
439.090	1	14
439.261	1	6
439.431	1	-3
439.602	1	4
439.772	1	7
439.943	1	5
440.113	1	2
440.284	1	18
440.455	1	-1
440.625	1	1
440.796	1	8
440.966	1	11
441.137	1	-6
441.307	1	8
441.478	1	10
441.648	1	0
441.819	1	1
441.989	1	0
442.160	1	2
442.330	1	8
442.501	1	-5
442.671	1	5
442.842	1	5
443.012	1	-4
443.183	1	-5
443.353	1	9
443.524	1	-5
443.694	1	5
443.865	1	13
444.035	1	2
444.206	1	9
444.376	1	10
444.547	1	-5
444.717	1	14
444.888	1	-10
445.058	1	-2
445.229	1	-1
445.399	1	9
445.570	1	4
445.740	1	11
445.911	1	15
446.081	1	6
446.252	1	-2
446.422	1	8
446.593	1	6
446.763	1	4
446.934	1	8
447.104	1	-9
447.275	1	1
447.445	1	-2
447.616	1	0
447.786	1	10
447.957	1	1
448.127	1	11
448.298	1	-1
448.468	1	13
448.639	1	6
448.809	1	6
448.979	1	1
449.150	1	-5
449.320	1	8
449.491	1	3
449.661	1	0
449.832	1	3
450.002	1	10
450.173	1	4
450.343	1	8
450.514	1	-1
450.684	1	4
450.855	1	-7
451.025	1	0
451.196	1	0
451.366	1	-2
451.537	1	-5
451.707	1	3
451.878	1	3
452.048	1	2
452.218	1	2
452.389	1	5
452.559	1	0
452.730	1	-2
452.900	1	8
453.071	1	5
453.241	1	-3
453.412	1	-3
453.582	1	12
453.753	1	-9
453.923	1	2
454.093	1	3
454.264	1	-7
454.434	1	6
454.605	1	5
454.775	1	4
454.946	1	4
455.116	1	0
455.287	1	13
455.457	1	1
455.628	1	-2
455.798	1	-11
455.968	1	15
456.139	1	5
456.309	1	-12
456.480	1	-10
456.650	1	0
456.821	1	4
456.991	1	10
457.161	1	7
457.332	1	3
457.502	1	0
457.673	1	-6
457.843	1	5
458.014	1	-1
458.184	1	11
458.355	1	14
458.525	1	0
458.695	1	0
458.866	1	-1
459.036	1	10
459.207	1	0
459.377	1	-10
459.548	1	2
459.718	1	-1
459.888	1	-2
460.059	1	14
460.229	1	12
460.400	1	4
460.570	1	-10
460.740	1	-6
460.911	1	12
461.081	1	-4
461.252	1	9
461.422	1	0
461.593	1	-3
461.763	1	0
461.933	1	-2
462.104	1	4
462.274	1	8
462.445	1	5
462.615	1	0
462.785	1	-4
462.956	1	-7
463.126	1	1
463.297	1	2
463.467	1	2
463.638	1	4
463.808	1	-2
463.978	1	-2
464.149	1	-1
464.319	1	-5
464.490	1	-15
464.660	1	3
464.830	1	14
465.001	1	-1
465.171	1	6
465.342	1	8
465.512	1	-1
465.682	1	5
465.853	1	0
466.023	1	-6
466.194	1	2
466.364	1	4
466.534	1	3
466.705	1	5
466.875	1	4
467.045	1	6
467.216	1	-4
467.386	1	0
467.557	1	12
467.727	1	0
467.897	1	7
468.068	1	7
468.238	1	-13
468.409	1	-1
468.579	1	12
468.749	1	-5
468.920	1	0
469.090	1	10
469.260	1	7
469.431	1	9
469.601	1	4
469.772	1	-19
469.942	1	14
470.112	1	-5
470.283	1	13
470.453	1	7
470.623	1	3
470.794	1	9
470.964	1	0
471.135	1	-9
471.305	1	-8
471.475	1	1
471.646	1	11
471.816	1	2
471.986	1	5
472.157	1	8
472.327	1	-4
472.497	1	3
472.668	1	1
472.838	1	12
473.009	1	10
473.179	1	5
473.349	1	3
473.520	1	7
473.690	1	10
473.860	1	11
474.031	1	-2
474.201	1	-4
474.371	1	5
474.542	1	1
474.712	1	7
474.882	1	5
475.053	1	-7
475.223	1	2
475.394	1	0
475.564	1	14
475.734	1	6
475.905	1	-4
476.075	1	2
476.245	1	-6
476.416	1	0
476.586	1	-3
476.756	1	9
476.927	1	10
477.097	1	-4
477.267	1	-8
477.438	1	-2
477.608	1	4
477.778	1	11
477.949	1	11
478.119	1	-3
478.289	1	-7
478.460	1	3
478.630	1	-6
478.800	1	-5
478.971	1	-2
479.141	1	8
479.311	1	3
479.482	1	-1
479.652	1	6
479.822	1	1
479.993	1	11
480.163	1	-12
480.333	1	-4
480.504	1	3
480.674	1	19
480.844	1	-1
481.015	1	1
481.185	1	5
481.355	1	1
481.525	1	7
481.696	1	4
481.866	1	4
482.036	1	-5
482.207	1	12
482.377	1	9
482.547	1	0
482.718	1	11
482.888	1	-9
483.058	1	-11
483.229	1	7
483.399	1	7
483.569	1	-5
483.740	1	-3
483.910	1	12
484.080	1	-8
484.250	1	-3
484.421	1	1
484.591	1	18
484.761	1	3
484.932	1	9
485.102	1	1
485.272	1	11
485.443	1	13
485.613	1	-6
485.783	1	11
485.953	1	0
486.124	1	-2
486.294	1	1
486.464	1	-2
486.635	1	9
486.805	1	27
486.975	1	-9
487.146	1	6
487.316	1	8
487.486	1	2
487.656	1	-5
487.827	1	-3
487.997	1	-1
488.167	1	6
488.338	1	10
488.508	1	3
488.678	1	5
488.848	1	7
489.019	1	7
489.189	1	-5
489.359	1	4
489.529	1	4
489.700	1	9
489.870	1	4
490.040	1	6
490.211	1	6
490.381	1	-3
490.551	1	7
490.721	1	6
490.892	1	4
491.062	1	18
491.232	1	3
491.402	1	4
491.573	1	-1
491.743	1	-4
491.913	1	8
492.084	1	7
492.254	1	4
492.424	1	12
492.594	1	0
492.765	1	17
492.935	1	3
493.105	1	14
493.275	1	1
493.446	1	-1
493.616	1	9
493.786	1	-1
493.956	1	-7
494.127	1	8
494.297	1	9
494.467	1	4
494.637	1	0
494.808	1	12
494.978	1	0
495.148	1	12
495.318	1	4
495.489	1	6
495.659	1	11
495.829	1	13
495.999	1	9
496.170	1	1
496.340	1	4
496.510	1	-1
496.680	1	4
496.851	1	7
497.021	1	4
497.191	1	4
497.361	1	10
497.532	1	4
497.702	1	2
497.872	1	6
498.042	1	3
498.213	1	7
498.383	1	7
498.553	1	4
498.723	1	8
498.894	1	3
499.064	1	20
499.234	1	5
499.404	1	5
499.574	1	-8
499.745	1	10
499.915	1	6
500.085	1	7
500.255	1	6
500.426	1	6
500.596	1	4
500.766	1	15
500.936	1	7
501.106	1	3
501.277	1	2
501.447	1	4
501.617	1	9
501.787	1	5
501.958	1	-3
502.128	1	5
502.298	1	19
502.468	1	12
502.638	1	0
502.809	1	3
502.979	1	0
503.149	1	9
503.319	1	10
503.489	1	1
503.660	1	1
503.830	1	9
504.000	1	9
504.170	1	17
504.340	1	9
504.511	1	14
504.681	1	4
504.851	1	4
505.021	1	7
505.192	1	16
505.362	1	4
505.532	1	8
505.702	1	6
505.872	1	1
506.043	1	9
506.213	1	11
506.383	1	13
506.553	1	14
506.723	1	19
506.893	1	17
507.064	1	-2
507.234	1	12
507.404	1	13
507.574	1	13
507.744	1	-7
507.915	1	6
508.085	1	18
508.255	1	9
508.425	1	18
508.595	1	8
508.766	1	7
508.936	1	6
509.106	1	0
509.276	1	10
509.446	1	5
509.616	1	19
509.787	1	-5
509.957	1	6
510.127	1	14
510.297	1	4
510.467	1	3
510.638	1	-7
510.808	1	0
510.978	1	-5
511.148	1	15
511.318	1	15
511.488	1	17
511.659	1	28
511.829	1	12
511.999	1	24
512.169	1	11
512.339	1	17
512.509	1	7
512.680	1	18
512.850	1	10
513.020	1	7
513.190	1	-2
513.360	1	21
513.530	1	9
513.700	1	13
513.871	1	20
514.041	1	17
514.211	1	-1
514.381	1	5
514.551	1	14
514.721	1	25
514.892	1	10
515.062	1	9
515.232	1	15
515.402	1	20
515.572	1	0
515.742	1	14
515.912	1	21
516.083	1	13
516.253	1	16
516.423	1	27
516.593	1	8
516.763	1	12
516.933	1	12
517.104	1	13
517.274	1	12
517.444	1	14
517.614	1	14
517.784	1	8
517.954	1	0
518.124	1	15
518.294	1	15
518.465	1	17
518.635	1	4
518.805	1	15
518.975	1	15
519.145	1	15
519.315	1	9
519.485	1	-5
519.656	1	8
519.826	1	7
519.996	1	25
520.166	1	12
520.336	1	13
520.506	1	19
520.676	1	3
520.846	1	12
521.017	1	16
521.187	1	16
521.357	1	7
521.527	1	13
521.697	1	11
521.867	1	13
522.037	1	17
522.207	1	10
522.377	1	20
522.548	1	3
522.718	1	19
522.888	1	10
523.058	1	24
523.228	1	18
523.398	1	19
523.568	1	9
523.738	1	12
523.909	1	10
524.079	1	20
524.249	1	15
524.419	1	11
524.589	1	17
524.759	1	13
524.929	1	20
525.099	1	15
525.269	1	19
525.439	1	12
525.610	1	14
525.780	1	19
525.950	1	9
526.120	1	13
526.290	1	5
526.460	1	19
526.630	1	15
526.800	1	8
526.970	1	12
527.140	1	17
527.311	1	25
527.481	1	30
527.651	1	23
527.821	1	15
527.991	1	17
528.161	1	22
528.331	1	19
528.501	1	6
528.671	1	17
528.841	1	17
529.011	1	17
529.181	1	16
529.352	1	21
529.522	1	8
529.692	1	23
529.862	1	13
530.032	1	6
530.202	1	19
530.372	1	20
530.542	1	19
530.712	1	26
530.882	1	12
531.052	1	14
531.222	1	5
531.392	1	14
531.563	1	17
531.733	1	24
531.903	1	17
532.073	1	12
532.243	1	17
532.413	1	10
532.583	1	11
532.753	1	13
532.923	1	14
533.093	1	23
533.263	1	16
533.433	1	15
533.603	1	20
533.773	1	20
533.943	1	12
534.113	1	21
534.284	1	21
534.454	1	11
534.624	1	13
534.794	1	18
534.964	1	9
535.134	1	15
535.304	1	21
535.474	1	18
535.644	1	28
535.814	1	19
535.984	1	13
536.154	1	8
536.324	1	17
536.494	1	17
536.664	1	19
536.834	1	18
537.004	1	31
537.174	1	23
537.344	1	36
537.514	1	13
537.685	1	7
537.855	1	20
538.025	1	16
538.195	1	14
538.365	1	24
538.535	1	23
538.705	1	10
538.875	1	17
539.045	1	18
539.215	1	8
539.385	1	12
539.555	1	14
539.725	1	12
539.895	1	25
540.065	1	7
540.235	1	14
540.405	1	16
540.575	1	16
540.745	1	10
540.915	1	16
541.085	1	11
541.255	1	4
541.425	1	10
541.595	1	10
541.765	1	17
541.935	1	21
542.105	1	23
542.275	1	9
542.445	1	13
542.615	1	12
542.785	1	9
542.955	1	17
543.125	1	4
543.295	1	20
543.465	1	25
543.635	1	15
543.805	1	19
543.975	1	19
544.145	1	8
544.315	1	13
544.485	1	15
544.655	1	15
544.825	1	23
544.995	1	9
545.165	1	17
545.335	1	21
545.505	1	12
545.675	1	17
545.845	1	10
546.015	1	16
546.185	1	7
546.355	1	13
546.525	1	22
546.695	1	-2
546.865	1	15
547.035	1	21
547.205	1	12
547.375	1	17
547.545	1	15
547.715	1	16
547.885	1	12
548.055	1	16
548.225	1	9
548.395	1	17
548.565	1	17
548.735	1	16
548.905	1	9
549.075	1	9
549.245	1	10
549.415	1	14
549.585	1	2
549.755	1	12
549.925	1	22
550.095	1	22
550.265	1	11
550.435	1	19
550.605	1	12
550.775	1	7
550.945	1	18
551.115	1	19
551.285	1	24
551.455	1	8
551.625	1	0
551.795	1	6
551.965	1	9
552.135	1	11
552.305	1	13
552.475	1	11
552.645	1	16
552.815	1	13
552.985	1	15
553.155	1	7
553.325	1	22
553.495	1	6
553.665	1	14
553.835	1	15
554.004	1	6
554.174	1	9
554.344	1	6
554.514	1	8
554.684	1	17
554.854	1	11
555.024	1	12
555.194	1	25
555.364	1	15
555.534	1	6
555.704	1	15
555.874	1	9
556.044	1	14
556.214	1	18
556.384	1	10
556.554	1	5
556.724	1	8
556.894	1	20
557.064	1	9
557.234	1	9
557.404	1	10
557.573	1	13
557.743	1	15
557.913	1	7
558.083	1	-5
558.253	1	2
558.423	1	-3
558.593	1	5
558.763	1	11
558.933	1	11
559.103	1	8
559.273	1	10
559.443	1	15
559.613	1	5
559.783	1	10
559.953	1	13
560.122	1	0
560.292	1	19
560.462	1	9
560.632	1	3
560.802	1	11
560.972	1	25
561.142	1	9
561.312	1	2
561.482	1	12
561.652	1	13
561.822	1	1
561.992	1	15
562.162	1	11
562.331	1	4
562.501	1	6
562.671	1	13
562.841	1	2
563.011	1	16
563.181	1	16
563.351	1	8
563.521	1	10
563.691	1	6
563.861	1	19
564.031	1	16
564.201	1	12
564.370	1	15
564.540	1	21
564.710	1	0
564.880	1	7
565.050	1	5
565.220	1	5
565.390	1	-1
565.560	1	23
565.730	1	10
565.900	1	8
566.069	1	10
566.239	1	11
566.409	1	10
566.579	1	17
566.749	1	16
566.919	1	13
567.089	1	5
567.259	1	10
567.429	1	17
567.599	1	4
567.768	1	10
567.938	1	9
568.108	1	-8
568.278	1	-6
568.448	1	-1
568.618	1	19
568.788	1	1
568.958	1	15
569.128	1	2
569.297	1	13
569.467	1	10
569.637	1	17
569.807	1	2
569.977	1	6
570.147	1	0
570.317	1	22
570.487	1	11
570.656	1	2
570.826	1	1
570.996	1	2
571.166	1	5
571.336	1	12
571.506	1	11
571.676	1	12
571.846	1	11
572.015	1	2
572.185	1	-1
572.355	1	29
572.525	1	1
572.695	1	15
572.865	1	3
573.035	1	2
573.205	1	11
573.374	1	10
573.544	1	1
573.714	1	9
573.884	1	10
574.054	1	5
574.224	1	3
574.394	1	8
574.563	1	6
574.733	1	8
574.903	1	1
575.073	1	-3
575.243	1	-1
575.413	1	6
575.583	1	10
575.752	1	13
575.922	1	3
576.092	1	23
576.262	1	4
576.432	1	4
576.602	1	9
576.772	1	9
576.941	1	9
577.111	1	7
577.281	1	2
577.451	1	2
577.621	1	-1
577.791	1	12
577.960	1	4
578.130	1	-2
578.300	1	1
578.470	1	9
578.640	1	-2
578.810	1	1
578.979	1	6
579.149	1	3
579.319	1	2
579.489	1	4
579.659	1	4
579.829	1	5
579.998	1	14
580.168	1	16
580.338	1	-4
580.508	1	1
580.678	1	8
580.848	1	10
581.017	1	8
581.187	1	3
581.357	1	2
581.527	1	6
581.697	1	-3
581.867	1	3
582.036	1	12
582.206	1	1
582.376	1	8
582.546	1	12
582.716	1	7
582.885	1	3
583.055	1	5
583.225	1	14
583.395	1	1
583.565	1	18
583.735	1	4
583.904	1	-1
584.074	1	6
584.244	1	8
584.414	1	1
584.584	1	6
584.753	1	2
584.923	1	1
585.093	1	13
585.263	1	5
585.433	1	11
585.602	1	7
585.772	1	11
585.942	1	0
586.112	1	11
586.282	1	0
586.451	1	12
586.621	1	5
586.791	1	1
586.961	1	-1
587.131	1	9
587.300	1	6
587.470	1	6
587.640	1	9
587.810	1	2
587.980	1	0
588.149	1	3
588.319	1	9
588.489	1	10
588.659	1	6
588.829	1	6
588.998	1	1
589.168	1	5
589.338	1	6
589.508	1	11
589.677	1	4
589.847	1	7
590.017	1	-4
590.187	1	1
590.357	1	-1
590.526	1	6
590.696	1	7
590.866	1	2
591.036	1	12
591.205	1	15
591.375	1	0
591.545	1	-2
591.715	1	-8
591.885	1	11
592.054	1	2
592.224	1	8
592.394	1	9
592.564	1	6
592.733	1	6
592.903	1	8
593.073	1	10
593.243	1	3
593.412	1	6
593.582	1	10
593.752	1	0
593.922	1	3
594.091	1	11
594.261	1	8
594.431	1	3
594.601	1	-7
594.771	1	6
594.940	1	-1
595.110	1	4
595.280	1	0
595.450	1	0
595.619	1	10
595.789	1	4
595.959	1	3
596.129	1	5
596.298	1	9
596.468	1	1
596.638	1	0
596.808	1	7
596.977	1	0
597.147	1	2
597.317	1	8
597.487	1	6
597.656	1	8
597.826	1	7
597.996	1	5
598.166	1	1
598.335	1	3
598.505	1	-4
598.675	1	0
598.844	1	1
599.014	1	16
599.184	1	3
599.354	1	-13
599.523	1	4
599.693	1	15
599.863	1	4
600.033	1	-8
600.202	1	2
600.372	1	3
600.542	1	0
600.712	1	7
600.881	1	8
601.051	1	8
601.221	1	1
601.390	1	-6
601.560	1	4
601.730	1	-2
601.900	1	9
602.069	1	1
602.239	1	2
602.409	1	0
602.578	1	6
602.748	1	-1
602.918	1	-6
603.088	1	5
603.257	1	6
603.427	1	-5
603.597	1	15
603.767	1	-3
603.936	1	1
604.106	1	11
604.276	1	3
604.445	1	9
604.615	1	4
604.785	1	17
604.954	1	5
605.124	1	1
605.294	1	8
605.464	1	3
605.633	1	3
605.803	1	13
605.973	1	-8
606.142	1	4
606.312	1	-2
606.482	1	-1
606.652	1	-11
606.821	1	10
606.991	1	-1
607.161	1	2
607.330	1	10
607.500	1	10
607.670	1	5
607.839	1	-3
608.009	1	-9
608.179	1	2
608.348	1	3
608.518	1	3
608.688	1	7
608.858	1	4
609.027	1	9
609.197	1	-6
609.367	1	-9
609.536	1	1
609.706	1	2
609.876	1	12
610.045	1	5
610.215	1	-4
610.385	1	4
610.554	1	-1
610.724	1	3
610.894	1	9
611.063	1	14
611.233	1	2
611.403	1	9
611.572	1	3
611.742	1	-4
611.912	1	3
612.081	1	-1
612.251	1	1
612.421	1	14
612.590	1	2
612.760	1	8
612.930	1	6
613.099	1	-11
613.269	1	3
613.439	1	0
613.608	1	6
613.778	1	-3
613.948	1	7
614.117	1	16
614.287	1	2
614.457	1	1
614.626	1	7
614.796	1	7
614.966	1	9
615.135	1	-2
615.305	1	-3
615.475	1	5
615.644	1	-6
615.814	1	6
615.984	1	15
616.153	1	9
616.323	1	-8
616.493	1	3
616.662	1	1
616.832	1	-4
617.002	1	0
617.171	1	-6
617.341	1	7
617.511	1	-3
617.680	1	7
617.850	1	11
618.019	1	5
618.189	1	0
618.359	1	7
618.528	1	-6
618.698	1	-3
618.868	1	5
619.037	1	9
619.207	1	-3
619.377	1	-9
619.546	1	8
619.716	1	-5
619.885	1	4
620.055	1	10
620.225	1	1
620.394	1	-1
620.564	1	-2
620.734	1	3
620.903	1	12
621.073	1	2
621.242	1	0
621.412	1	9
621.582	1	5
621.751	1	-2
621.921	1	5
622.091	1	0
622.260	1	-11
622.430	1	1
622.599	1	16
622.769	1	-3
622.939	1	10
623.108	1	1
623.278	1	6
623.448	1	-9
623.617	1	8
623.787	1	8
623.956	1	0
624.126	1	-3
624.296	1	2
624.465	1	10
624.635	1	6
624.804	1	-1
624.974	1	0
625.144	1	2
625.313	1	1
625.483	1	12
625.652	1	14
625.822	1	7
625.992	1	-4
626.161	1	10
626.331	1	16
626.501	1	12
626.670	1	-1
626.840	1	6
627.009	1	0
627.179	1	2
627.348	1	4
627.518	1	6
627.688	1	7
627.857	1	9
628.027	1	2
628.196	1	1
628.366	1	13
628.536	1	5
628.705	1	4
628.875	1	7
629.044	1	-7
629.214	1	7
629.384	1	-5
629.553	1	3
629.723	1	13
629.892	1	9
630.062	1	6
630.232	1	12
630.401	1	-2
630.571	1	-6
630.740	1	3
630.910	1	-2
631.079	1	7
631.249	1	-5
631.419	1	8
631.588	1	0
631.758	1	2
631.927	1	-1
632.097	1	11
632.266	1	-3
632.436	1	2
632.606	1	8
632.775	1	-1
632.945	1	2
633.114	1	3
633.284	1	-5
633.453	1	-1
633.623	1	-9
633.793	1	4
633.962	1	9
634.132	1	14
634.301	1	-4
634.471	1	2
634.640	1	5
634.810	1	14
634.979	1	1
635.149	1	5
635.319	1	9
635.488	1	-2
635.658	1	0
635.827	1	0
635.997	1	4
636.166	1	-6
636.336	1	12
636.505	1	1
636.675	1	0
636.845	1	-3
637.014	1	-5
637.184	1	6
637.353	1	5
637.523	1	-6
637.692	1	2
637.862	1	-11
638.031	1	21
638.201	1	9
638.370	1	7
638.540	1	-1
638.710	1	4
638.879	1	-3
639.049	1	9
639.218	1	-2
639.388	1	10
639.557	1	9
639.727	1	4
639.896	1	1
640.066	1	5
640.235	1	7
640.405	1	2
640.574	1	-2
640.744	1	3
640.914	1	-5
641.083	1	-3
641.253	1	-5
641.422	1	-4
641.592	1	4
641.761	1	9
641.931	1	7
642.100	1	2
642.270	1	-2
642.439	1	-1
642.609	1	8
642.778	1	1
642.948	1	0
643.117	1	1
643.287	1	5
643.456	1	9
643.626	1	14
643.795	1	-1
643.965	1	-4
644.134	1	-4
644.304	1	2
644.473	1	18
644.643	1	0
644.812	1	9
644.982	1	17
645.151	1	0
645.321	1	11
645.490	1	-1
645.660	1	-3
645.829	1	-7
645.999	1	-4
646.168	1	-4
646.338	1	9
646.507	1	1
646.677	1	6
646.846	1	8
647.016	1	4
647.185	1	-5
647.355	1	8
647.524	1	12
647.694	1	6
647.863	1	-7
648.033	1	-7
648.202	1	3
648.372	1	5
648.541	1	-4
648.711	1	7
648.880	1	4
649.050	1	-3
649.219	1	3
649.389	1	1
649.558	1	-6
649.728	1	1
649.897	1	0
650.067	1	-2
650.236	1	10
650.406	1	6
650.575	1	2
650.745	1	-2
650.914	1	-2
651.084	1	-2
651.253	1	3
651.423	1	10
651.592	1	-2
651.762	1	5
651.931	1	3
652.101	1	1
652.270	1	10
652.440	1	1
652.609	1	9
652.778	1	-5
652.948	1	-3
653.117	1	1
653.287	1	17
653.456	1	1
653.626	1	8
653.795	1	3
653.965	1	6
654.134	1	13
654.304	1	-2
654.473	1	10
654.643	1	14
654.812	1	2
654.982	1	-11
655.151	1	-6
655.320	1	0
655.490	1	8
655.659	1	-4
655.829	1	3
655.998	1	2
656.168	1	-1
656.337	1	0
656.507	1	9
656.676	1	-1
656.846	1	-8
657.015	1	-4
657.184	1	10
657.354	1	-1
657.523	1	5
657.693	1	-4
657.862	1	13
658.032	1	4
658.201	1	8
658.371	1	-5
658.540	1	5
658.709	1	3
658.879	1	7
659.048	1	4
659.218	1	-10
659.387	1	-2
659.557	1	0
659.726	1	-4
659.895	1	8
660.065	1	4
660.234	1	5
660.404	1	4
660.573	1	0
660.743	1	1
660.912	1	-4
661.081	1	12
661.251	1	1
661.420	1	4
661.590	1	2
661.759	1	13
661.929	1	7
662.098	1	-12
662.267	1	6
662.437	1	5
662.606	1	6
662.776	1	4
662.945	1	-3
663.115	1	-4
663.284	1	6
663.453	1	1
663.623	1	3
663.792	1	4
663.962	1	0
664.131	1	-1
664.300	1	2
664.470	1	0
664.639	1	-6
664.809	1	0
664.978	1	11
665.148	1	0
665.317	1	-5
665.486	1	-12
665.656	1	-4
665.825	1	6
665.995	1	9
666.164	1	3
666.333	1	16
666.503	1	-6
666.672	1	-4
666.842	1	8
667.011	1	5
667.180	1	-2
667.350	1	7
667.519	1	2
667.689	1	-2
667.858	1	12
668.027	1	-9
668.197	1	7
668.366	1	-1
668.536	1	8
668.705	1	-5
668.874	1	2
669.044	1	-1
669.213	1	7
669.382	1	1
669.552	1	5
669.721	1	-2
669.891	1	5
670.060	1	12
670.229	1	9
670.399	1	9
670.568	1	-3
670.738	1	2
670.907	1	-4
671.076	1	8
671.246	1	-9
671.415	1	2
671.584	1	0
671.754	1	-2
671.923	1	-4
672.093	1	5
672.262	1	9
672.431	1	1
672.601	1	-2
672.770	1	4
672.939	1	-5
673.109	1	1
673.278	1	-3
673.448	1	2
673.617	1	4
673.786	1	-9
