325.333	1	-2
325.504	1	0
325.675	1	-4
325.846	1	-5
326.017	1	2
326.188	1	9
326.359	1	4
326.531	1	-2
326.702	1	6
326.873	1	-1
327.044	1	-7
327.215	1	-3
327.386	1	-5
327.557	1	4
327.728	1	-5
327.899	1	-7
328.070	1	-2
328.241	1	5
328.412	1	5
328.583	1	1
328.754	1	-7
328.926	1	1
329.097	1	4
329.268	1	4
329.439	1	0
329.610	1	-3
329.781	1	-10
329.952	1	13
330.123	1	-3
330.294	1	12
330.465	1	2
330.636	1	10
330.807	1	-2
330.978	1	-4
331.149	1	-1
331.320	1	7
331.492	1	-3
331.663	1	-5
331.834	1	2
332.005	1	2
332.176	1	-4
332.347	1	1
332.518	1	10
332.689	1	0
332.860	1	-4
333.031	1	4
333.202	1	-2
333.373	1	-2
333.544	1	-8
333.715	1	-1
333.886	1	0
334.057	1	-9
334.228	1	-4
334.399	1	0
334.570	1	5
334.741	1	-5
334.912	1	-5
335.084	1	-2
335.255	1	0
335.426	1	-10
335.597	1	-5
335.768	1	2
335.939	1	-8
336.110	1	-4
336.281	1	-6
336.452	1	-7
336.623	1	4
336.794	1	-11
336.965	1	0
337.136	1	-3
337.307	1	5
337.478	1	3
337.649	1	3
337.820	1	12
337.991	1	8
338.162	1	1
338.333	1	0
338.504	1	-4
338.675	1	3
338.846	1	-4
339.017	1	-1
339.188	1	-3
339.359	1	5
339.530	1	4
339.701	1	4
339.872	1	-3
340.043	1	-7
340.214	1	0
340.385	1	8
340.556	1	-1
340.727	1	0
340.898	1	-6
341.069	1	4
341.240	1	-1
341.411	1	10
341.582	1	-5
341.753	1	-7
341.924	1	-13
342.095	1	10
342.266	1	-4
342.437	1	4
342.608	1	-3
342.779	1	-3
342.950	1	-6
343.121	1	7
343.292	1	1
343.463	1	-5
343.634	1	-10
343.805	1	1
343.976	1	6
344.147	1	-1
344.318	1	5
344.489	1	-12
344.660	1	13
344.831	1	-11
345.002	1	1
345.173	1	-7
345.344	1	-5
345.515	1	4
345.686	1	-2
345.857	1	-1
346.028	1	5
346.199	1	6
346.370	1	3
346.541	1	-1
346.712	1	-2
346.883	1	-1
347.054	1	-2
347.225	1	-4
347.396	1	-1
347.567	1	3
347.738	1	9
347.909	1	7
348.080	1	-5
348.251	1	10
348.422	1	-10
348.593	1	-8
348.764	1	-10
348.935	1	10
349.106	1	-4
349.277	1	-2
349.448	1	1
349.619	1	-3
349.790	1	-3
349.961	1	-1
350.132	1	-6
350.303	1	-14
350.474	1	4
350.645	1	-5
350.816	1	-7
350.987	1	-4
351.157	1	4
351.328	1	-2
351.499	1	6
351.670	1	7
351.841	1	0
352.012	1	-11
352.183	1	-6
352.354	1	-6
352.525	1	13
352.696	1	-1
352.867	1	0
353.038	1	9
353.209	1	7
353.380	1	1
353.551	1	4
353.722	1	9
353.893	1	-6
354.064	1	-3
354.235	1	5
354.406	1	-8
354.576	1	6
354.747	1	-5
354.918	1	-6
355.089	1	1
355.260	1	-2
355.431	1	6
355.602	1	1
355.773	1	2
355.944	1	8
356.115	1	-10
356.286	1	6
356.457	1	-3
356.628	1	7
356.799	1	3
356.970	1	6
357.141	1	-13
357.311	1	-1
357.482	1	-7
357.653	1	0
357.824	1	0
357.995	1	0
358.166	1	4
358.337	1	0
358.508	1	6
358.679	1	8
358.850	1	0
359.021	1	-4
359.192	1	5
359.363	1	0
359.533	1	-1
359.704	1	-5
359.875	1	7
360.046	1	8
360.217	1	16
360.388	1	-3
360.559	1	2
360.730	1	-8
360.901	1	2
361.072	1	-4
361.243	1	5
361.414	1	14
361.584	1	2
361.755	1	12
361.926	1	19
362.097	1	-3
362.268	1	4
362.439	1	-10
362.610	1	-6
362.781	1	-2
362.952	1	4
363.123	1	5
363.293	1	0
363.464	1	17
363.635	1	0
363.806	1	3
363.977	1	0
364.148	1	-1
364.319	1	6
364.490	1	-4
364.661	1	8
364.832	1	-1
365.002	1	13
365.173	1	3
365.344	1	7
365.515	1	4
365.686	1	4
365.857	1	7
366.028	1	6
366.199	1	0
366.370	1	6
366.540	1	9
366.711	1	14
366.882	1	10
367.053	1	8
367.224	1	11
367.395	1	11
367.566	1	13
367.737	1	-12
367.908	1	14
368.078	1	1
368.249	1	15
368.420	1	-2
368.591	1	13
368.762	1	1
368.933	1	10
369.104	1	13
369.274	1	10
369.445	1	1
369.616	1	6
369.787	1	8
369.958	1	4
370.129	1	8
370.300	1	-7
370.471	1	15
370.641	1	10
370.812	1	9
370.983	1	4
371.154	1	0
371.325	1	4
371.496	1	-3
371.667	1	6
371.837	1	5
372.008	1	6
372.179	1	6
372.350	1	-2
372.521	1	-2
372.692	1	1
372.863	1	7
373.033	1	8
373.204	1	5
373.375	1	3
373.546	1	-3
373.717	1	8
373.888	1	-7
374.059	1	4
374.229	1	-10
374.400	1	1
374.571	1	4
374.742	1	11
374.913	1	0
375.084	1	-4
375.254	1	7
375.425	1	4
375.596	1	-8
375.767	1	1
375.938	1	-1
376.109	1	-1
376.279	1	7
376.450	1	1
376.621	1	8
376.792	1	-3
376.963	1	2
377.134	1	-5
377.304	1	9
377.475	1	2
377.646	1	-2
377.817	1	15
377.988	1	7
378.159	1	6
378.329	1	6
378.500	1	-3
378.671	1	-5
378.842	1	-3
379.013	1	-4
379.184	1	5
379.354	1	-2
379.525	1	-1
379.696	1	-11
379.867	1	13
380.038	1	5
380.209	1	-1
380.379	1	2
380.550	1	-4
380.721	1	6
380.892	1	-4
381.063	1	19
381.233	1	17
381.404	1	3
381.575	1	-2
381.746	1	8
381.917	1	-2
382.087	1	0
382.258	1	12
382.429	1	7
382.600	1	4
382.771	1	6
382.941	1	8
383.112	1	10
383.283	1	4
383.454	1	10
383.625	1	12
383.795	1	14
383.966	1	9
384.137	1	12
384.308	1	10
384.479	1	20
384.649	1	10
384.820	1	9
384.991	1	14
385.162	1	5
385.333	1	13
385.503	1	8
385.674	1	11
385.845	1	19
386.016	1	12
386.187	1	14
386.357	1	14
386.528	1	21
386.699	1	25
386.870	1	21
387.041	1	16
387.211	1	7
387.382	1	13
387.553	1	10
387.724	1	5
387.894	1	22
388.065	1	14
388.236	1	14
388.407	1	18
388.578	1	18
388.748	1	28
388.919	1	14
389.090	1	24
389.261	1	-2
389.431	1	16
389.602	1	17
389.773	1	15
389.944	1	8
390.114	1	15
390.285	1	9
390.456	1	21
390.627	1	7
390.798	1	18
390.968	1	11
391.139	1	1
391.310	1	8
391.481	1	12
391.651	1	16
391.822	1	19
391.993	1	27
392.164	1	10
392.334	1	27
392.505	1	2
392.676	1	16
392.847	1	9
393.017	1	-4
393.188	1	0
393.359	1	15
393.530	1	6
393.700	1	14
393.871	1	1
394.042	1	21
394.213	1	17
394.383	1	11
394.554	1	19
394.725	1	9
394.896	1	6
395.066	1	19
395.237	1	16
395.408	1	12
395.579	1	17
395.749	1	20
395.920	1	14
396.091	1	4
396.262	1	14
396.432	1	-2
396.603	1	19
396.774	1	-8
396.945	1	14
397.115	1	21
397.286	1	23
397.457	1	13
397.627	1	11
397.798	1	3
397.969	1	6
398.140	1	12
398.310	1	19
398.481	1	2
398.652	1	21
398.823	1	29
398.993	1	5
399.164	1	20
399.335	1	12
399.505	1	10
399.676	1	7
399.847	1	11
400.018	1	10
400.188	1	19
400.359	1	18
400.530	1	20
400.700	1	15
400.871	1	0
401.042	1	11
401.213	1	2
401.383	1	13
401.554	1	12
401.725	1	5
401.895	1	14
402.066	1	11
402.237	1	15
402.408	1	4
402.578	1	12
402.749	1	4
402.920	1	1
403.090	1	-4
403.261	1	9
403.432	1	13
403.603	1	14
403.773	1	14
403.944	1	9
404.115	1	-6
404.285	1	1
404.456	1	9
404.627	1	7
404.797	1	22
404.968	1	0
405.139	1	6
405.310	1	8
405.480	1	11
405.651	1	3
405.822	1	11
405.992	1	3
406.163	1	13
406.334	1	12
406.504	1	8
406.675	1	19
406.846	1	7
407.016	1	-3
407.187	1	8
407.358	1	5
407.528	1	12
407.699	1	9
407.870	1	11
408.041	1	4
408.211	1	5
408.382	1	7
408.553	1	10
408.723	1	4
408.894	1	3
409.065	1	13
409.235	1	8
409.406	1	10
409.577	1	3
409.747	1	7
409.918	1	16
410.089	1	18
410.259	1	3
410.430	1	16
410.601	1	9
410.771	1	14
410.942	1	6
411.113	1	5
411.283	1	13
411.454	1	-4
411.625	1	4
411.795	1	15
411.966	1	9
412.137	1	-4
412.307	1	5
412.478	1	15
412.649	1	3
412.819	1	9
412.990	1	16
413.161	1	15
413.331	1	-4
413.502	1	9
413.672	1	13
413.843	1	5
414.014	1	5
414.184	1	-2
414.355	1	-8
414.526	1	-4
414.696	1	10
414.867	1	5
415.038	1	17
415.208	1	3
415.379	1	1
415.550	1	11
415.720	1	7
415.891	1	16
416.062	1	10
416.232	1	6
416.403	1	9
416.573	1	-2
416.744	1	7
416.915	1	-2
417.085	1	-3
417.256	1	7
417.427	1	3
417.597	1	-9
417.768	1	8
417.939	1	3
418.109	1	11
418.280	1	-4
418.450	1	11
418.621	1	11
418.792	1	0
418.962	1	1
419.133	1	4
419.304	1	1
419.474	1	2
419.645	1	12
419.815	1	-1
419.986	1	16
420.157	1	7
420.327	1	2
420.498	1	-4
420.669	1	0
420.839	1	8
421.010	1	7
421.180	1	5
421.351	1	9
421.522	1	15
421.692	1	1
421.863	1	-6
422.033	1	-6
422.204	1	9
422.375	1	2
422.545	1	11
422.716	1	6
422.886	1	4
423.057	1	-8
423.228	1	-2
423.398	1	4
423.569	1	-1
423.740	1	-3
423.910	1	-4
424.081	1	5
424.251	1	0
424.422	1	1
424.593	1	4
424.763	1	8
424.934	1	10
425.104	1	5
425.275	1	-2
425.445	1	7
425.616	1	5
425.787	1	-5
425.957	1	16
426.128	1	-2
426.298	1	2
426.469	1	-1
426.640	1	-4
426.810	1	-1
426.981	1	-1
427.151	1	7
427.322	1	10
427.493	1	1
427.663	1	2
427.834	1	-8
428.004	1	4
428.175	1	2
428.345	1	11
428.516	1	0
428.687	1	5
428.857	1	-1
429.028	1	-2
429.198	1	-14
429.369	1	14
429.540	1	7
429.710	1	-1
429.881	1	8
430.051	1	7
430.222	1	-12
430.392	1	-3
430.563	1	10
430.734	1	1
430.904	1	1
431.075	1	9
431.245	1	12
431.416	1	8
431.586	1	-2
431.757	1	7
431.927	1	0
432.098	1	4
432.269	1	-4
432.439	1	-3
432.610	1	-6
432.780	1	1
432.951	1	-1
433.121	1	7
433.292	1	6
433.462	1	9
433.633	1	-4
433.804	1	-17
433.974	1	-11
434.145	1	10
434.315	1	9
434.486	1	9
434.656	1	7
434.827	1	6
434.997	1	3
435.168	1	4
435.339	1	6
435.509	1	3
435.680	1	-8
435.850	1	3
436.021	1	12
436.191	1	-6
436.362	1	-4
436.532	1	3
436.703	1	4
436.873	1	-6
437.044	1	6
437.214	1	1
437.385	1	2
437.556	1	-5
437.726	1	-7
437.897	1	8
438.067	1	12
438.238	1	-8
438.408	1	-5
438.579	1	3
438.749	1	8
438.920	1	-8
439.090	1	12
439.261	1	6
439.431	1	-9
439.602	1	0
439.772	1	7
439.943	1	7
440.113	1	1
440.284	1	10
440.455	1	-8
440.625	1	9
440.796	1	0
440.966	1	13
441.137	1	-12
441.307	1	2
441.478	1	9
441.648	1	-5
441.819	1	4
441.989	1	-10
442.160	1	1
442.330	1	1
442.501	1	-13
442.671	1	0
442.842	1	5
443.012	1	4
443.183	1	-2
443.353	1	1
443.524	1	3
443.694	1	11
443.865	1	-1
444.035	1	-11
444.206	1	6
444.376	1	2
444.547	1	-10
444.717	1	10
444.888	1	-5
445.058	1	6
445.229	1	-5
445.399	1	12
445.570	1	2
445.740	1	-4
445.911	1	9
446.081	1	4
446.252	1	-13
446.422	1	0
446.593	1	-8
446.763	1	3
446.934	1	2
447.104	1	-2
447.275	1	-5
447.445	1	-4
447.616	1	-3
447.786	1	6
447.957	1	2
448.127	1	1
448.298	1	-7
448.468	1	3
448.639	1	8
448.809	1	-8
448.979	1	12
449.150	1	5
449.320	1	1
449.491	1	-3
449.661	1	-2
449.832	1	2
450.002	1	-1
450.173	1	-2
450.343	1	-1
450.514	1	-1
450.684	1	-6
450.855	1	11
451.025	1	3
451.196	1	4
451.366	1	1
451.537	1	-10
451.707	1	3
451.878	1	2
452.048	1	-4
452.218	1	-9
452.389	1	-8
452.559	1	-2
452.730	1	2
452.900	1	-6
453.071	1	0
453.241	1	-11
453.412	1	-7
453.582	1	9
453.753	1	-6
453.923	1	4
454.093	1	4
454.264	1	-6
454.434	1	9
454.605	1	8
454.775	1	8
454.946	1	2
455.116	1	4
455.287	1	3
455.457	1	-3
455.628	1	-5
455.798	1	-13
455.968	1	10
456.139	1	6
456.309	1	-9
456.480	1	1
456.650	1	-5
456.821	1	-7
456.991	1	8
457.161	1	-6
457.332	1	-5
457.502	1	1
457.673	1	-2
457.843	1	3
458.014	1	-1
458.184	1	7
458.355	1	2
458.525	1	-1
458.695	1	2
458.866	1	-2
459.036	1	3
459.207	1	0
459.377	1	2
459.548	1	-1
459.718	1	-4
459.888	1	7
460.059	1	10
460.229	1	3
460.400	1	5
460.570	1	-2
460.740	1	-8
460.911	1	16
461.081	1	-7
461.252	1	3
461.422	1	0
461.593	1	-2
461.763	1	1
461.933	1	-12
462.104	1	-3
462.274	1	6
462.445	1	-14
462.615	1	-1
462.785	1	-5
462.956	1	-1
463.126	1	-11
463.297	1	-3
463.467	1	-10
463.638	1	4
463.808	1	3
463.978	1	7
464.149	1	3
464.319	1	0
464.490	1	-6
464.660	1	6
464.830	1	0
465.001	1	-1
465.171	1	9
465.342	1	-7
465.512	1	-1
465.682	1	3
465.853	1	1
466.023	1	-7
466.194	1	1
466.364	1	11
466.534	1	-1
466.705	1	6
466.875	1	1
467.045	1	0
467.216	1	-6
467.386	1	-9
467.557	1	9
467.727	1	-6
467.897	1	6
468.068	1	5
468.238	1	-2
468.409	1	9
468.579	1	8
468.749	1	-1
468.920	1	5
469.090	1	6
469.260	1	-4
469.431	1	2
469.601	1	0
469.772	1	-8
469.942	1	-7
470.112	1	5
470.283	1	5
470.453	1	-2
470.623	1	6
470.794	1	-6
470.964	1	0
471.135	1	-12
471.305	1	-1
471.475	1	4
471.646	1	11
471.816	1	-2
471.986	1	1
472.157	1	9
472.327	1	2
472.497	1	-6
472.668	1	-2
472.838	1	3
473.009	1	-12
473.179	1	10
473.349	1	2
473.520	1	-4
473.690	1	13
473.860	1	-2
474.031	1	9
474.201	1	-2
474.371	1	4
474.542	1	-5
474.712	1	4
474.882	1	-9
475.053	1	-6
475.223	1	-1
475.394	1	4
475.564	1	12
475.734	1	2
475.905	1	10
476.075	1	-2
476.245	1	-4
476.416	1	4
476.586	1	-3
476.756	1	1
476.927	1	4
477.097	1	-1
477.267	1	-7
477.438	1	-3
477.608	1	7
477.778	1	11
477.949	1	3
478.119	1	10
478.289	1	-4
478.460	1	-2
478.630	1	0
478.800	1	-14
478.971	1	3
479.141	1	11
479.311	1	7
479.482	1	-10
479.652	1	3
479.822	1	-4
479.993	1	11
480.163	1	-5
480.333	1	-1
480.504	1	-4
480.674	1	2
480.844	1	7
481.015	1	2
481.185	1	12
481.355	1	6
481.525	1	-3
481.696	1	7
481.866	1	7
482.036	1	-6
482.207	1	5
482.377	1	-1
482.547	1	7
482.718	1	6
482.888	1	-7
483.058	1	-1
483.229	1	-1
483.399	1	1
483.569	1	4
483.740	1	-8
483.910	1	4
484.080	1	-5
484.250	1	5
484.421	1	1
484.591	1	2
484.761	1	-1
484.932	1	1
485.102	1	-2
485.272	1	5
485.443	1	14
485.613	1	2
485.783	1	5
485.953	1	-7
486.124	1	3
486.294	1	11
486.464	1	-9
486.635	1	9
486.805	1	11
486.975	1	-13
487.146	1	-3
487.316	1	7
487.486	1	6
487.656	1	-4
487.827	1	4
487.997	1	1
488.167	1	7
488.338	1	22
488.508	1	7
488.678	1	-4
488.848	1	-8
489.019	1	-6
489.189	1	-2
489.359	1	6
489.529	1	7
489.700	1	5
489.870	1	-16
490.040	1	-8
490.211	1	13
490.381	1	-9
490.551	1	-4
490.721	1	3
490.892	1	12
491.062	1	7
491.232	1	10
491.402	1	-10
491.573	1	-1
491.743	1	-19
491.913	1	8
492.084	1	9
492.254	1	-3
492.424	1	2
492.594	1	4
492.765	1	8
492.935	1	-4
493.105	1	1
493.275	1	-1
493.446	1	-2
493.616	1	-3
493.786	1	-2
493.956	1	1
494.127	1	0
494.297	1	4
494.467	1	-1
494.637	1	5
494.808	1	1
494.978	1	-2
495.148	1	19
495.318	1	13
495.489	1	0
495.659	1	8
495.829	1	0
495.999	1	-1
496.170	1	-7
496.340	1	-2
496.510	1	4
496.680	1	9
496.851	1	17
497.021	1	-1
497.191	1	-2
497.361	1	-8
497.532	1	4
497.702	1	-7
497.872	1	-4
498.042	1	5
498.213	1	12
498.383	1	-4
498.553	1	10
498.723	1	4
498.894	1	3
499.064	1	15
499.234	1	-5
499.404	1	6
499.574	1	-7
499.745	1	8
499.915	1	2
500.085	1	-9
500.255	1	1
500.426	1	3
500.596	1	10
500.766	1	-2
500.936	1	-4
501.106	1	-5
501.277	1	-8
501.447	1	6
501.617	1	4
501.787	1	3
501.958	1	-1
502.128	1	1
502.298	1	12
502.468	1	13
502.638	1	7
502.809	1	7
502.979	1	-2
503.149	1	-1
503.319	1	0
503.489	1	-5
503.660	1	12
503.830	1	1
504.000	1	-10
504.170	1	7
504.340	1	2
504.511	1	2
504.681	1	5
504.851	1	2
505.021	1	1
505.192	1	8
505.362	1	1
505.532	1	1
505.702	1	9
505.872	1	1
506.043	1	2
506.213	1	2
506.383	1	1
506.553	1	6
506.723	1	9
506.893	1	2
507.064	1	-6
507.234	1	-2
507.404	1	4
507.574	1	0
507.744	1	-10
507.915	1	3
508.085	1	11
508.255	1	8
508.425	1	11
508.595	1	11
508.766	1	-3
508.936	1	0
509.106	1	0
509.276	1	9
509.446	1	-4
509.616	1	2
509.787	1	6
509.957	1	-5
510.127	1	7
510.297	1	3
510.467	1	4
510.638	1	4
510.808	1	5
510.978	1	-7
511.148	1	3
511.318	1	7
511.488	1	19
511.659	1	9
511.829	1	0
511.999	1	17
512.169	1	5
512.339	1	-2
512.509	1	2
512.680	1	6
512.850	1	-3
513.020	1	11
513.190	1	-3
513.360	1	8
513.530	1	0
513.700	1	20
513.871	1	8
514.041	1	-4
514.211	1	1
514.381	1	0
514.551	1	6
514.721	1	5
514.892	1	11
515.062	1	8
515.232	1	6
515.402	1	-2
515.572	1	-3
515.742	1	12
515.912	1	7
516.083	1	5
516.253	1	3
516.423	1	15
516.593	1	0
516.763	1	7
516.933	1	7
517.104	1	10
517.274	1	7
517.444	1	9
517.614	1	4
517.784	1	3
517.954	1	-4
518.124	1	17
518.294	1	0
518.465	1	7
518.635	1	2
518.805	1	8
518.975	1	6
519.145	1	10
519.315	1	4
519.485	1	-8
519.656	1	4
519.826	1	7
519.996	1	20
520.166	1	7
520.336	1	6
520.506	1	5
520.676	1	6
520.846	1	0
521.017	1	4
521.187	1	5
521.357	1	1
521.527	1	15
521.697	1	12
521.867	1	-2
522.037	1	-1
522.207	1	3
522.377	1	5
522.548	1	-6
522.718	1	3
522.888	1	2
523.058	1	23
523.228	1	19
523.398	1	6
523.568	1	3
523.738	1	-4
523.909	1	12
524.079	1	10
524.249	1	8
524.419	1	3
524.589	1	8
524.759	1	2
524.929	1	3
525.099	1	7
525.269	1	3
525.439	1	-5
525.610	1	6
525.780	1	13
525.950	1	-6
526.120	1	-2
526.290	1	-10
526.460	1	6
526.630	1	8
526.800	1	1
526.970	1	5
527.140	1	5
527.311	1	7
527.481	1	9
527.651	1	16
527.821	1	5
527.991	1	2
528.161	1	5
528.331	1	1
528.501	1	-6
528.671	1	0
528.841	1	9
529.011	1	3
529.181	1	9
529.352	1	8
529.522	1	12
529.692	1	10
529.862	1	7
530.032	1	0
530.202	1	11
530.372	1	1
530.542	1	9
530.712	1	7
530.882	1	4
531.052	1	12
531.222	1	0
531.392	1	3
531.563	1	-5
531.733	1	6
531.903	1	23
532.073	1	10
532.243	1	8
532.413	1	7
532.583	1	3
532.753	1	8
532.923	1	1
533.093	1	9
533.263	1	8
533.433	1	7
533.603	1	1
533.773	1	2
533.943	1	9
534.113	1	3
534.284	1	6
534.454	1	10
534.624	1	4
534.794	1	7
534.964	1	7
535.134	1	4
535.304	1	17
535.474	1	4
535.644	1	19
535.814	1	14
535.984	1	2
536.154	1	4
536.324	1	5
536.494	1	10
536.664	1	8
536.834	1	4
537.004	1	18
537.174	1	17
537.344	1	11
537.514	1	6
537.685	1	2
537.855	1	13
538.025	1	7
538.195	1	7
538.365	1	4
538.535	1	12
538.705	1	8
538.875	1	6
539.045	1	3
539.215	1	4
539.385	1	8
539.555	1	4
539.725	1	15
539.895	1	8
540.065	1	10
540.235	1	-9
540.405	1	7
540.575	1	10
540.745	1	8
540.915	1	10
541.085	1	-6
541.255	1	5
541.425	1	2
541.595	1	7
541.765	1	2
541.935	1	18
542.105	1	5
542.275	1	3
542.445	1	17
542.615	1	6
542.785	1	8
542.955	1	16
543.125	1	9
543.295	1	8
543.465	1	14
543.635	1	-3
543.805	1	11
543.975	1	3
544.145	1	8
544.315	1	5
544.485	1	5
544.655	1	15
544.825	1	3
544.995	1	10
545.165	1	5
545.335	1	10
545.505	1	3
545.675	1	7
545.845	1	-3
546.015	1	2
546.185	1	10
546.355	1	10
546.525	1	17
546.695	1	1
546.865	1	-2
547.035	1	5
547.205	1	-2
547.375	1	4
547.545	1	6
547.715	1	6
547.885	1	1
548.055	1	11
548.225	1	-6
548.395	1	11
548.565	1	-3
548.735	1	10
548.905	1	6
549.075	1	-2
549.245	1	16
549.415	1	2
549.585	1	9
549.755	1	7
549.925	1	8
550.095	1	4
550.265	1	6
550.435	1	13
550.605	1	10
550.775	1	1
550.945	1	10
551.115	1	-4
551.285	1	5
551.455	1	10
551.625	1	3
551.795	1	7
551.965	1	2
552.135	1	2
552.305	1	11
552.475	1	4
552.645	1	7
552.815	1	4
552.985	1	5
553.155	1	4
553.325	1	8
553.495	1	4
553.665	1	12
553.835	1	12
554.004	1	8
554.174	1	0
554.344	1	10
554.514	1	-1
554.684	1	3
554.854	1	-3
555.024	1	7
555.194	1	19
555.364	1	4
555.534	1	1
555.704	1	5
555.874	1	-2
556.044	1	6
556.214	1	-3
556.384	1	7
556.554	1	-6
556.724	1	0
556.894	1	19
557.064	1	-4
557.234	1	4
557.404	1	-7
557.573	1	6
557.743	1	8
557.913	1	5
558.083	1	-10
558.253	1	1
558.423	1	-3
558.593	1	8
558.763	1	3
558.933	1	12
559.103	1	10
559.273	1	1
559.443	1	5
559.613	1	8
559.783	1	12
559.953	1	3
560.122	1	-5
560.292	1	6
560.462	1	3
560.632	1	8
560.802	1	4
560.972	1	13
561.142	1	3
561.312	1	3
561.482	1	6
561.652	1	8
561.822	1	6
561.992	1	14
562.162	1	1
562.331	1	0
562.501	1	7
562.671	1	7
562.841	1	1
563.011	1	9
563.181	1	13
563.351	1	-6
563.521	1	5
563.691	1	5
563.861	1	23
564.031	1	11
564.201	1	12
564.370	1	8
564.540	1	14
564.710	1	-5
564.880	1	12
565.050	1	6
565.220	1	7
565.390	1	-3
565.560	1	4
565.730	1	1
565.900	1	4
566.069	1	15
566.239	1	4
566.409	1	5
566.579	1	16
566.749	1	4
566.919	1	11
567.089	1	1
567.259	1	5
567.429	1	4
567.599	1	5
567.768	1	8
567.938	1	9
568.108	1	-3
568.278	1	-1
568.448	1	-4
568.618	1	-1
568.788	1	3
568.958	1	8
569.128	1	9
569.297	1	1
569.467	1	10
569.637	1	1
569.807	1	4
569.977	1	-2
570.147	1	12
570.317	1	12
570.487	1	0
570.656	1	-3
570.826	1	3
570.996	1	4
571.166	1	1
571.336	1	-6
571.506	1	-1
571.676	1	8
571.846	1	12
572.015	1	1
572.185	1	-4
572.355	1	18
572.525	1	1
572.695	1	9
572.865	1	1
573.035	1	3
573.205	1	17
573.374	1	2
573.544	1	9
573.714	1	10
573.884	1	-4
574.054	1	3
574.224	1	0
574.394	1	3
574.563	1	11
574.733	1	0
574.903	1	9
575.073	1	-2
575.243	1	-5
575.413	1	5
575.583	1	0
575.752	1	-1
575.922	1	-5
576.092	1	8
576.262	1	2
576.432	1	-11
576.602	1	4
576.772	1	8
576.941	1	4
577.111	1	5
577.281	1	4
577.451	1	1
577.621	1	-1
577.791	1	5
577.960	1	6
578.130	1	-9
578.300	1	-1
578.470	1	-1
578.640	1	1
578.810	1	4
578.979	1	0
579.149	1	-6
579.319	1	-3
579.489	1	4
579.659	1	7
579.829	1	10
579.998	1	7
580.168	1	8
580.338	1	-4
580.508	1	-3
580.678	1	6
580.848	1	0
581.017	1	-6
581.187	1	4
581.357	1	-1
581.527	1	0
581.697	1	-4
581.867	1	8
582.036	1	6
582.206	1	-8
582.376	1	-1
582.546	1	1
582.716	1	4
582.885	1	-3
583.055	1	-1
583.225	1	3
583.395	1	-5
583.565	1	22
583.735	1	-1
583.904	1	4
584.074	1	8
584.244	1	10
584.414	1	-8
584.584	1	3
584.753	1	3
584.923	1	-3
585.093	1	1
585.263	1	12
585.433	1	0
585.602	1	5
585.772	1	-2
585.942	1	2
586.112	1	14
586.282	1	-2
586.451	1	2
586.621	1	2
586.791	1	4
586.961	1	-4
587.131	1	-7
587.300	1	-3
587.470	1	9
587.640	1	-4
587.810	1	3
587.980	1	-7
588.149	1	5
588.319	1	-1
588.489	1	1
588.659	1	-1
588.829	1	6
588.998	1	-3
589.168	1	12
589.338	1	2
589.508	1	3
589.677	1	0
589.847	1	0
590.017	1	-13
590.187	1	-1
590.357	1	8
590.526	1	-5
590.696	1	-8
590.866	1	-3
591.036	1	12
591.205	1	-1
591.375	1	-10
591.545	1	-1
591.715	1	-11
591.885	1	7
592.054	1	1
592.224	1	7
592.394	1	3
592.564	1	-10
592.733	1	-5
592.903	1	5
593.073	1	8
593.243	1	-3
593.412	1	12
593.582	1	13
593.752	1	-7
593.922	1	1
594.091	1	-1
594.261	1	2
594.431	1	0
594.601	1	-14
594.771	1	5
594.940	1	-2
595.110	1	2
595.280	1	4
595.450	1	6
595.619	1	2
595.789	1	16
595.959	1	-1
596.129	1	-2
596.298	1	4
596.468	1	12
596.638	1	3
596.808	1	5
596.977	1	1
597.147	1	6
597.317	1	4
597.487	1	-2
597.656	1	6
597.826	1	1
597.996	1	8
598.166	1	-7
598.335	1	2
598.505	1	1
598.675	1	2
598.844	1	7
599.014	1	-4
599.184	1	-9
599.354	1	-8
599.523	1	-3
599.693	1	4
599.863	1	5
600.033	1	-3
600.202	1	2
600.372	1	-7
600.542	1	-6
600.712	1	10
600.881	1	4
601.051	1	-4
601.221	1	-8
601.390	1	-5
601.560	1	0
601.730	1	2
601.900	1	1
602.069	1	-4
602.239	1	-7
602.409	1	-7
602.578	1	6
602.748	1	2
602.918	1	-7
603.088	1	6
603.257	1	-2
603.427	1	2
603.597	1	10
603.767	1	-10
603.936	1	5
604.106	1	0
604.276	1	5
604.445	1	-1
604.615	1	0
604.785	1	3
604.954	1	5
605.124	1	-9
605.294	1	6
605.464	1	-1
605.633	1	10
605.803	1	-11
605.973	1	-1
606.142	1	7
606.312	1	-3
606.482	1	-8
606.652	1	-6
606.821	1	2
606.991	1	-4
607.161	1	0
607.330	1	11
607.500	1	6
607.670	1	-4
607.839	1	6
608.009	1	-5
608.179	1	0
608.348	1	11
608.518	1	6
608.688	1	3
608.858	1	0
609.027	1	14
609.197	1	-5
609.367	1	-1
609.536	1	-2
609.706	1	7
609.876	1	6
610.045	1	0
610.215	1	-2
610.385	1	-7
610.554	1	-6
610.724	1	2
610.894	1	6
611.063	1	10
611.233	1	-17
611.403	1	1
611.572	1	4
611.742	1	5
611.912	1	5
612.081	1	-3
612.251	1	1
612.421	1	11
612.590	1	-2
612.760	1	-1
612.930	1	-5
613.099	1	-11
613.269	1	-2
613.439	1	-4
613.608	1	10
613.778	1	2
613.948	1	15
614.117	1	10
614.287	1	-2
614.457	1	6
614.626	1	-1
614.796	1	6
614.966	1	6
615.135	1	-6
615.305	1	-5
615.475	1	-2
615.644	1	-15
615.814	1	3
615.984	1	0
616.153	1	-4
616.323	1	-6
616.493	1	-3
616.662	1	0
616.832	1	0
617.002	1	-11
617.171	1	2
617.341	1	4
617.511	1	-1
617.680	1	2
617.850	1	-2
618.019	1	0
618.189	1	-11
618.359	1	5
618.528	1	-2
618.698	1	3
618.868	1	7
619.037	1	10
619.207	1	-11
619.377	1	-15
619.546	1	-1
619.716	1	-7
619.885	1	1
620.055	1	8
620.225	1	13
620.394	1	5
620.564	1	-7
620.734	1	5
620.903	1	9
621.073	1	1
621.242	1	-6
621.412	1	1
621.582	1	-4
621.751	1	-5
621.921	1	13
622.091	1	-9
622.260	1	-6
622.430	1	-4
622.599	1	10
622.769	1	6
622.939	1	-3
623.108	1	2
623.278	1	2
623.448	1	-3
623.617	1	4
623.787	1	2
623.956	1	5
624.126	1	-1
624.296	1	-3
624.465	1	12
624.635	1	12
624.804	1	-11
624.974	1	-8
625.144	1	5
625.313	1	2
625.483	1	1
625.652	1	9
625.822	1	-1
625.992	1	-4
626.161	1	7
626.331	1	-1
626.501	1	9
626.670	1	-5
626.840	1	5
627.009	1	-12
627.179	1	-8
627.348	1	0
627.518	1	3
627.688	1	-1
627.857	1	2
628.027	1	10
628.196	1	10
628.366	1	6
628.536	1	-6
628.705	1	1
628.875	1	3
629.044	1	4
629.214	1	-6
629.384	1	-10
629.553	1	6
629.723	1	6
629.892	1	2
630.062	1	7
630.232	1	15
630.401	1	3
630.571	1	10
630.740	1	5
630.910	1	-2
631.079	1	11
631.249	1	8
631.419	1	-1
631.588	1	-5
631.758	1	-1
631.927	1	6
632.097	1	4
632.266	1	-8
632.436	1	-3
632.606	1	6
632.775	1	-1
632.945	1	-1
633.114	1	7
633.284	1	-8
633.453	1	-3
633.623	1	-7
633.793	1	4
633.962	1	6
634.132	1	4
634.301	1	-7
634.471	1	-8
634.640	1	7
634.810	1	3
634.979	1	14
635.149	1	-6
635.319	1	2
635.488	1	5
635.658	1	-8
635.827	1	-6
635.997	1	-1
636.166	1	4
636.336	1	2
636.505	1	-1
636.675	1	-4
636.845	1	3
637.014	1	-1
637.184	1	1
637.353	1	3
637.523	1	-4
637.692	1	1
637.862	1	-6
638.031	1	9
638.201	1	2
638.370	1	3
638.540	1	2
638.710	1	8
638.879	1	-6
639.049	1	6
639.218	1	-2
639.388	1	1
639.557	1	5
639.727	1	1
639.896	1	-2
640.066	1	10
640.235	1	1
640.405	1	-6
640.574	1	-5
640.744	1	7
640.914	1	-4
641.083	1	-1
641.253	1	-9
641.422	1	-4
641.592	1	-14
641.761	1	-1
641.931	1	8
642.100	1	-4
642.270	1	1
642.439	1	2
642.609	1	6
642.778	1	1
642.948	1	1
643.117	1	3
643.287	1	3
643.456	1	1
643.626	1	15
643.795	1	5
643.965	1	-8
644.134	1	-2
644.304	1	-8
644.473	1	4
644.643	1	2
644.812	1	9
644.982	1	3
645.151	1	-3
645.321	1	9
645.490	1	-2
645.660	1	3
645.829	1	-6
645.999	1	-6
646.168	1	-3
646.338	1	8
646.507	1	9
646.677	1	5
646.846	1	13
647.016	1	0
647.185	1	-3
647.355	1	-5
647.524	1	5
647.694	1	-4
647.863	1	-4
648.033	1	-13
648.202	1	5
648.372	1	2
648.541	1	-3
648.711	1	4
648.880	1	-1
649.050	1	1
649.219	1	1
649.389	1	3
649.558	1	-1
649.728	1	8
649.897	1	0
650.067	1	-5
650.236	1	12
650.406	1	2
650.575	1	0
650.745	1	-7
650.914	1	-2
651.084	1	-10
651.253	1	-6
651.423	1	4
651.592	1	3
651.762	1	-1
651.931	1	4
652.101	1	-1
652.270	1	-1
652.440	1	3
652.609	1	0
652.778	1	-3
652.948	1	-5
653.117	1	1
653.287	1	7
653.456	1	8
653.626	1	8
653.795	1	-3
653.965	1	7
654.134	1	12
654.304	1	3
654.473	1	12
654.643	1	6
654.812	1	-1
654.982	1	-10
655.151	1	-8
655.320	1	-3
655.490	1	3
655.659	1	-1
655.829	1	-4
655.998	1	1
656.168	1	-10
656.337	1	5
656.507	1	10
656.676	1	-6
656.846	1	-7
657.015	1	-7
657.184	1	-2
657.354	1	-1
657.523	1	-9
657.693	1	1
657.862	1	-1
658.032	1	3
658.201	1	-1
658.371	1	-11
658.540	1	-5
658.709	1	-9
658.879	1	-2
659.048	1	0
659.218	1	4
659.387	1	0
659.557	1	4
659.726	1	-6
659.895	1	4
660.065	1	5
660.234	1	-2
660.404	1	6
660.573	1	-9
660.743	1	-10
660.912	1	-10
661.081	1	1
661.251	1	2
661.420	1	-6
661.590	1	-4
661.759	1	4
661.929	1	-1
662.098	1	-14
662.267	1	12
662.437	1	-4
662.606	1	5
662.776	1	1
662.945	1	0
663.115	1	-3
663.284	1	1
663.453	1	-5
663.623	1	3
663.792	1	-2
663.962	1	-4
664.131	1	-10
664.300	1	5
664.470	1	2
664.639	1	-12
664.809	1	1
664.978	1	6
665.148	1	-3
665.317	1	-5
665.486	1	-3
665.656	1	-6
665.825	1	2
665.995	1	5
666.164	1	6
666.333	1	6
666.503	1	-4
666.672	1	-12
666.842	1	-2
667.011	1	12
667.180	1	-5
667.350	1	4
667.519	1	4
667.689	1	-8
667.858	1	13
668.027	1	-13
668.197	1	2
668.366	1	-6
668.536	1	-8
668.705	1	1
668.874	1	-9
669.044	1	-1
669.213	1	-2
669.382	1	-9
669.552	1	6
669.721	1	-13
669.891	1	-6
670.060	1	1
670.229	1	1
670.399	1	16
670.568	1	6
670.738	1	-9
670.907	1	-15
671.076	1	7
671.246	1	2
671.415	1	6
671.584	1	-2
671.754	1	-15
671.923	1	-11
672.093	1	4
672.262	1	5
672.431	1	-6
672.601	1	-3
672.770	1	3
672.939	1	-7
673.109	1	0
673.278	1	5
673.448	1	-2
673.617	1	10
673.786	1	-4
