325.333	1	-7
325.504	1	4
325.675	1	3
325.846	1	-7
326.017	1	-5
326.188	1	5
326.359	1	6
326.531	1	-8
326.702	1	0
326.873	1	7
327.044	1	-7
327.215	1	-1
327.386	1	-2
327.557	1	2
327.728	1	3
327.899	1	-2
328.070	1	4
328.241	1	0
328.412	1	13
328.583	1	-8
328.754	1	-4
328.926	1	-7
329.097	1	6
329.268	1	-2
329.439	1	5
329.610	1	-6
329.781	1	5
329.952	1	10
330.123	1	-2
330.294	1	11
330.465	1	-9
330.636	1	12
330.807	1	5
330.978	1	-12
331.149	1	6
331.320	1	11
331.492	1	-12
331.663	1	-7
331.834	1	12
332.005	1	0
332.176	1	-1
332.347	1	2
332.518	1	14
332.689	1	6
332.860	1	2
333.031	1	4
333.202	1	-2
333.373	1	4
333.544	1	0
333.715	1	2
333.886	1	-7
334.057	1	-10
334.228	1	-1
334.399	1	11
334.570	1	-3
334.741	1	-2
334.912	1	-6
335.084	1	1
335.255	1	-4
335.426	1	-2
335.597	1	-6
335.768	1	-3
335.939	1	-7
336.110	1	-4
336.281	1	-6
336.452	1	10
336.623	1	1
336.794	1	0
336.965	1	6
337.136	1	-3
337.307	1	11
337.478	1	1
337.649	1	0
337.820	1	7
337.991	1	8
338.162	1	3
338.333	1	0
338.504	1	-1
338.675	1	11
338.846	1	6
339.017	1	1
339.188	1	3
339.359	1	5
339.530	1	-6
339.701	1	2
339.872	1	0
340.043	1	-1
340.214	1	-5
340.385	1	-1
340.556	1	2
340.727	1	4
340.898	1	-5
341.069	1	1
341.240	1	5
341.411	1	2
341.582	1	-3
341.753	1	-2
341.924	1	-7
342.095	1	11
342.266	1	-4
342.437	1	0
342.608	1	0
342.779	1	6
342.950	1	2
343.121	1	9
343.292	1	-6
343.463	1	-6
343.634	1	-4
343.805	1	5
343.976	1	4
344.147	1	1
344.318	1	-1
344.489	1	-6
344.660	1	13
344.831	1	-12
345.002	1	2
345.173	1	2
345.344	1	-11
345.515	1	2
345.686	1	-5
345.857	1	-1
346.028	1	-8
346.199	1	-5
346.370	1	5
346.541	1	-1
346.712	1	-8
346.883	1	-4
347.054	1	0
347.225	1	-7
347.396	1	0
347.567	1	-4
347.738	1	13
347.909	1	-3
348.080	1	-2
348.251	1	2
348.422	1	3
348.593	1	-1
348.764	1	-1
348.935	1	13
349.106	1	1
349.277	1	-6
349.448	1	-5
349.619	1	-2
349.790	1	-6
349.961	1	-1
350.132	1	3
350.303	1	-3
350.474	1	9
350.645	1	-1
350.816	1	0
350.987	1	-12
351.157	1	14
351.328	1	-2
351.499	1	-7
351.670	1	4
351.841	1	5
352.012	1	-8
352.183	1	-5
352.354	1	0
352.525	1	9
352.696	1	-5
352.867	1	-7
353.038	1	11
353.209	1	8
353.380	1	-2
353.551	1	7
353.722	1	6
353.893	1	9
354.064	1	7
354.235	1	4
354.406	1	-7
354.576	1	1
354.747	1	-9
354.918	1	-4
355.089	1	10
355.260	1	-4
355.431	1	2
355.602	1	9
355.773	1	-3
355.944	1	6
356.115	1	-8
356.286	1	2
356.457	1	-2
356.628	1	-5
356.799	1	-2
356.970	1	-3
357.141	1	-16
357.311	1	9
357.482	1	-7
357.653	1	-1
357.824	1	-5
357.995	1	-1
358.166	1	1
358.337	1	8
358.508	1	3
358.679	1	10
358.850	1	3
359.021	1	-8
359.192	1	4
359.363	1	-3
359.533	1	0
359.704	1	11
359.875	1	-6
360.046	1	6
360.217	1	17
360.388	1	3
360.559	1	5
360.730	1	-12
360.901	1	8
361.072	1	-5
361.243	1	12
361.414	1	10
361.584	1	8
361.755	1	8
361.926	1	12
362.097	1	7
362.268	1	10
362.439	1	7
362.610	1	-8
362.781	1	3
362.952	1	8
363.123	1	9
363.293	1	-4
363.464	1	17
363.635	1	11
363.806	1	9
363.977	1	8
364.148	1	0
364.319	1	8
364.490	1	-8
364.661	1	2
364.832	1	1
365.002	1	12
365.173	1	10
365.344	1	0
365.515	1	8
365.686	1	8
365.857	1	9
366.028	1	5
366.199	1	7
366.370	1	6
366.540	1	2
366.711	1	10
366.882	1	13
367.053	1	12
367.224	1	9
367.395	1	6
367.566	1	12
367.737	1	5
367.908	1	6
368.078	1	7
368.249	1	11
368.420	1	4
368.591	1	16
368.762	1	-4
368.933	1	11
369.104	1	9
369.274	1	15
369.445	1	8
369.616	1	3
369.787	1	6
369.958	1	8
370.129	1	5
370.300	1	-2
370.471	1	13
370.641	1	3
370.812	1	7
370.983	1	5
371.154	1	-3
371.325	1	2
371.496	1	-5
371.667	1	2
371.837	1	-2
372.008	1	10
372.179	1	7
372.350	1	4
372.521	1	-1
372.692	1	8
372.863	1	-1
373.033	1	1
373.204	1	6
373.375	1	4
373.546	1	2
373.717	1	5
373.888	1	-1
374.059	1	0
374.229	1	-3
374.400	1	4
374.571	1	10
374.742	1	15
374.913	1	-3
375.084	1	0
375.254	1	13
375.425	1	-1
375.596	1	-15
375.767	1	6
375.938	1	8
376.109	1	-3
376.279	1	-6
376.450	1	1
376.621	1	5
376.792	1	2
376.963	1	15
377.134	1	-12
377.304	1	0
377.475	1	5
377.646	1	4
377.817	1	9
377.988	1	-2
378.159	1	4
378.329	1	4
378.500	1	-1
378.671	1	-7
378.842	1	-4
379.013	1	-10
379.184	1	12
379.354	1	3
379.525	1	5
379.696	1	-8
379.867	1	9
380.038	1	7
380.209	1	11
380.379	1	-7
380.550	1	2
380.721	1	19
380.892	1	-2
381.063	1	3
381.233	1	0
381.404	1	13
381.575	1	7
381.746	1	2
381.917	1	-8
382.087	1	16
382.258	1	20
382.429	1	7
382.600	1	22
382.771	1	8
382.941	1	9
383.112	1	4
383.283	1	10
383.454	1	9
383.625	1	10
383.795	1	16
383.966	1	8
384.137	1	18
384.308	1	19
384.479	1	13
384.649	1	14
384.820	1	7
384.991	1	23
385.162	1	16
385.333	1	20
385.503	1	6
385.674	1	17
385.845	1	10
386.016	1	11
386.187	1	26
386.357	1	14
386.528	1	35
386.699	1	27
386.870	1	28
387.041	1	16
387.211	1	14
387.382	1	13
387.553	1	18
387.724	1	7
387.894	1	31
388.065	1	22
388.236	1	25
388.407	1	17
388.578	1	18
388.748	1	19
388.919	1	12
389.090	1	21
389.261	1	-3
389.431	1	29
389.602	1	17
389.773	1	19
389.944	1	8
390.114	1	12
390.285	1	10
390.456	1	19
390.627	1	5
390.798	1	10
390.968	1	10
391.139	1	5
391.310	1	18
391.481	1	12
391.651	1	17
391.822	1	25
391.993	1	12
392.164	1	13
392.334	1	15
392.505	1	15
392.676	1	16
392.847	1	14
393.017	1	0
393.188	1	20
393.359	1	7
393.530	1	15
393.700	1	23
393.871	1	-1
394.042	1	22
394.213	1	13
394.383	1	7
394.554	1	15
394.725	1	8
394.896	1	5
395.066	1	20
395.237	1	21
395.408	1	18
395.579	1	15
395.749	1	30
395.920	1	18
396.091	1	21
396.262	1	6
396.432	1	5
396.603	1	9
396.774	1	17
396.945	1	21
397.115	1	20
397.286	1	21
397.457	1	11
397.627	1	13
397.798	1	3
397.969	1	11
398.140	1	12
398.310	1	12
398.481	1	8
398.652	1	14
398.823	1	30
398.993	1	12
399.164	1	19
399.335	1	7
399.505	1	24
399.676	1	27
399.847	1	7
400.018	1	12
400.188	1	23
400.359	1	3
400.530	1	12
400.700	1	11
400.871	1	8
401.042	1	6
401.213	1	6
401.383	1	19
401.554	1	20
401.725	1	12
401.895	1	9
402.066	1	21
402.237	1	14
402.408	1	9
402.578	1	8
402.749	1	5
402.920	1	-2
403.090	1	5
403.261	1	3
403.432	1	13
403.603	1	10
403.773	1	7
403.944	1	8
404.115	1	-4
404.285	1	8
404.456	1	11
404.627	1	19
404.797	1	25
404.968	1	7
405.139	1	2
405.310	1	6
405.480	1	14
405.651	1	5
405.822	1	15
405.992	1	12
406.163	1	23
406.334	1	12
406.504	1	1
406.675	1	22
406.846	1	13
407.016	1	6
407.187	1	6
407.358	1	8
407.528	1	15
407.699	1	12
407.870	1	13
408.041	1	9
408.211	1	18
408.382	1	14
408.553	1	9
408.723	1	12
408.894	1	0
409.065	1	10
409.235	1	5
409.406	1	17
409.577	1	15
409.747	1	4
409.918	1	6
410.089	1	12
410.259	1	-3
410.430	1	15
410.601	1	4
410.771	1	5
410.942	1	3
411.113	1	6
411.283	1	11
411.454	1	1
411.625	1	2
411.795	1	12
411.966	1	-6
412.137	1	2
412.307	1	-2
412.478	1	14
412.649	1	-3
412.819	1	21
412.990	1	11
413.161	1	12
413.331	1	-5
413.502	1	11
413.672	1	4
413.843	1	11
414.014	1	7
414.184	1	2
414.355	1	8
414.526	1	1
414.696	1	-4
414.867	1	16
415.038	1	2
415.208	1	9
415.379	1	13
415.550	1	7
415.720	1	6
415.891	1	18
416.062	1	8
416.232	1	10
416.403	1	1
416.573	1	10
416.744	1	8
416.915	1	3
417.085	1	3
417.256	1	2
417.427	1	-2
417.597	1	-6
417.768	1	-7
417.939	1	9
418.109	1	14
418.280	1	6
418.450	1	6
418.621	1	1
418.792	1	7
418.962	1	-1
419.133	1	8
419.304	1	9
419.474	1	-3
419.645	1	13
419.815	1	-3
419.986	1	10
420.157	1	8
420.327	1	21
420.498	1	7
420.669	1	2
420.839	1	9
421.010	1	5
421.180	1	8
421.351	1	3
421.522	1	13
421.692	1	3
421.863	1	-1
422.033	1	5
422.204	1	-1
422.375	1	-5
422.545	1	12
422.716	1	8
422.886	1	8
423.057	1	6
423.228	1	-2
423.398	1	6
423.569	1	7
423.740	1	-6
423.910	1	-4
424.081	1	5
424.251	1	-1
424.422	1	14
424.593	1	7
424.763	1	2
424.934	1	1
425.104	1	5
425.275	1	1
425.445	1	6
425.616	1	5
425.787	1	-7
425.957	1	21
426.128	1	4
426.298	1	4
426.469	1	8
426.640	1	5
426.810	1	12
426.981	1	-11
427.151	1	4
427.322	1	0
427.493	1	0
427.663	1	5
427.834	1	0
428.004	1	8
428.175	1	2
428.345	1	9
428.516	1	2
428.687	1	6
428.857	1	-6
429.028	1	4
429.198	1	-4
429.369	1	-2
429.540	1	12
429.710	1	-2
429.881	1	8
430.051	1	8
430.222	1	-1
430.392	1	-2
430.563	1	14
430.734	1	1
430.904	1	-5
431.075	1	7
431.245	1	9
431.416	1	7
431.586	1	0
431.757	1	14
431.927	1	7
432.098	1	4
432.269	1	-9
432.439	1	0
432.610	1	-3
432.780	1	-5
432.951	1	0
433.121	1	6
433.292	1	9
433.462	1	8
433.633	1	-3
433.804	1	-7
433.974	1	-1
434.145	1	3
434.315	1	6
434.486	1	4
434.656	1	-10
434.827	1	8
434.997	1	10
435.168	1	7
435.339	1	-1
435.509	1	8
435.680	1	-8
435.850	1	-3
436.021	1	8
436.191	1	2
436.362	1	8
436.532	1	2
436.703	1	10
436.873	1	-5
437.044	1	7
437.214	1	-2
437.385	1	2
437.556	1	-2
437.726	1	-3
437.897	1	3
438.067	1	5
438.238	1	-6
438.408	1	10
438.579	1	8
438.749	1	6
438.920	1	-4
439.090	1	11
439.261	1	5
439.431	1	1
439.602	1	2
439.772	1	9
439.943	1	0
440.113	1	0
440.284	1	10
440.455	1	0
440.625	1	-3
440.796	1	1
440.966	1	8
441.137	1	-8
441.307	1	-10
441.478	1	3
441.648	1	2
441.819	1	-2
441.989	1	-6
442.160	1	3
442.330	1	3
442.501	1	-15
442.671	1	0
442.842	1	4
443.012	1	-1
443.183	1	-5
443.353	1	4
443.524	1	5
443.694	1	7
443.865	1	0
444.035	1	-7
444.206	1	2
444.376	1	3
444.547	1	-1
444.717	1	16
444.888	1	-1
445.058	1	8
445.229	1	-3
445.399	1	7
445.570	1	11
445.740	1	1
445.911	1	10
446.081	1	-3
446.252	1	-7
446.422	1	3
446.593	1	-12
446.763	1	6
446.934	1	6
447.104	1	-1
447.275	1	4
447.445	1	-3
447.616	1	-1
447.786	1	1
447.957	1	0
448.127	1	8
448.298	1	6
448.468	1	5
448.639	1	0
448.809	1	1
448.979	1	7
449.150	1	9
449.320	1	1
449.491	1	-7
449.661	1	0
449.832	1	-1
450.002	1	-5
450.173	1	4
450.343	1	-6
450.514	1	0
450.684	1	-2
450.855	1	-5
451.025	1	7
451.196	1	6
451.366	1	7
451.537	1	-4
451.707	1	-2
451.878	1	5
452.048	1	1
452.218	1	-2
452.389	1	-1
452.559	1	-5
452.730	1	7
452.900	1	2
453.071	1	-1
453.241	1	-5
453.412	1	-6
453.582	1	12
453.753	1	-4
453.923	1	1
454.093	1	2
454.264	1	-5
454.434	1	7
454.605	1	7
454.775	1	8
454.946	1	-4
455.116	1	-3
455.287	1	12
455.457	1	2
455.628	1	-7
455.798	1	0
455.968	1	7
456.139	1	6
456.309	1	-4
456.480	1	3
456.650	1	-4
456.821	1	0
456.991	1	2
457.161	1	3
457.332	1	0
457.502	1	6
457.673	1	-2
457.843	1	8
458.014	1	-2
458.184	1	3
458.355	1	2
458.525	1	-3
458.695	1	3
458.866	1	6
459.036	1	12
459.207	1	-10
459.377	1	-3
459.548	1	-1
459.718	1	-9
459.888	1	2
460.059	1	8
460.229	1	8
460.400	1	-4
460.570	1	-3
460.740	1	-3
460.911	1	8
461.081	1	4
461.252	1	-3
461.422	1	13
461.593	1	-6
461.763	1	4
461.933	1	-6
462.104	1	5
462.274	1	14
462.445	1	0
462.615	1	-8
462.785	1	-4
462.956	1	-2
463.126	1	-7
463.297	1	-1
463.467	1	2
463.638	1	8
463.808	1	8
463.978	1	5
464.149	1	-3
464.319	1	-6
464.490	1	-2
464.660	1	4
464.830	1	-10
465.001	1	1
465.171	1	1
465.342	1	9
465.512	1	3
465.682	1	-1
465.853	1	-6
466.023	1	0
466.194	1	0
466.364	1	5
466.534	1	6
466.705	1	11
466.875	1	6
467.045	1	5
467.216	1	-11
467.386	1	0
467.557	1	8
467.727	1	-2
467.897	1	8
468.068	1	3
468.238	1	-2
468.409	1	3
468.579	1	12
468.749	1	7
468.920	1	-5
469.090	1	3
469.260	1	7
469.431	1	5
469.601	1	-6
469.772	1	-15
469.942	1	5
470.112	1	5
470.283	1	1
470.453	1	-5
470.623	1	3
470.794	1	-4
470.964	1	4
471.135	1	-11
471.305	1	-1
471.475	1	3
471.646	1	9
471.816	1	3
471.986	1	-1
472.157	1	4
472.327	1	-5
472.497	1	-2
472.668	1	-3
472.838	1	10
473.009	1	11
473.179	1	14
473.349	1	0
473.520	1	1
473.690	1	17
473.860	1	-4
474.031	1	2
474.201	1	0
474.371	1	3
474.542	1	-5
474.712	1	2
474.882	1	1
475.053	1	0
475.223	1	0
475.394	1	13
475.564	1	10
475.734	1	-2
475.905	1	1
476.075	1	5
476.245	1	8
476.416	1	-3
476.586	1	-9
476.756	1	7
476.927	1	6
477.097	1	-5
477.267	1	-5
477.438	1	-4
477.608	1	6
477.778	1	6
477.949	1	4
478.119	1	-7
478.289	1	-10
478.460	1	2
478.630	1	-3
478.800	1	-11
478.971	1	2
479.141	1	6
479.311	1	-1
479.482	1	-1
479.652	1	9
479.822	1	-1
479.993	1	4
480.163	1	-5
480.333	1	-2
480.504	1	-1
480.674	1	4
480.844	1	5
481.015	1	-15
481.185	1	9
481.355	1	11
481.525	1	-3
481.696	1	1
481.866	1	-6
482.036	1	-4
482.207	1	6
482.377	1	-9
482.547	1	7
482.718	1	12
482.888	1	2
483.058	1	-2
483.229	1	-2
483.399	1	-6
483.569	1	3
483.740	1	-6
483.910	1	-5
484.080	1	-9
484.250	1	6
484.421	1	-2
484.591	1	6
484.761	1	-5
484.932	1	12
485.102	1	1
485.272	1	6
485.443	1	8
485.613	1	-15
485.783	1	10
485.953	1	-2
486.124	1	0
486.294	1	-1
486.464	1	-2
486.635	1	7
486.805	1	22
486.975	1	-15
487.146	1	6
487.316	1	3
487.486	1	9
487.656	1	-7
487.827	1	9
487.997	1	6
488.167	1	10
488.338	1	15
488.508	1	13
488.678	1	-5
488.848	1	-9
489.019	1	-12
489.189	1	-2
489.359	1	-2
489.529	1	-5
489.700	1	2
489.870	1	0
490.040	1	4
490.211	1	10
490.381	1	-11
490.551	1	1
490.721	1	0
490.892	1	4
491.062	1	9
491.232	1	18
491.402	1	-3
491.573	1	7
491.743	1	-10
491.913	1	-3
492.084	1	4
492.254	1	2
492.424	1	-10
492.594	1	5
492.765	1	1
492.935	1	-13
493.105	1	8
493.275	1	6
493.446	1	8
493.616	1	8
493.786	1	4
493.956	1	4
494.127	1	-3
494.297	1	-2
494.467	1	12
494.637	1	8
494.808	1	6
494.978	1	-1
495.148	1	11
495.318	1	11
495.489	1	0
495.659	1	5
495.829	1	6
495.999	1	6
496.170	1	-11
496.340	1	3
496.510	1	-4
496.680	1	-1
496.851	1	10
497.021	1	11
497.191	1	4
497.361	1	-3
497.532	1	1
497.702	1	-1
497.872	1	4
498.042	1	3
498.213	1	11
498.383	1	4
498.553	1	18
498.723	1	0
498.894	1	-1
499.064	1	9
499.234	1	-2
499.404	1	0
499.574	1	-4
499.745	1	9
499.915	1	17
500.085	1	1
500.255	1	14
500.426	1	3
500.596	1	0
500.766	1	-1
500.936	1	-1
501.106	1	1
501.277	1	3
501.447	1	3
501.617	1	4
501.787	1	2
501.958	1	9
502.128	1	-2
502.298	1	4
502.468	1	10
502.638	1	1
502.809	1	10
502.979	1	-3
503.149	1	5
503.319	1	8
503.489	1	7
503.660	1	10
503.830	1	3
504.000	1	-2
504.170	1	3
504.340	1	10
504.511	1	9
504.681	1	2
504.851	1	1
505.021	1	2
505.192	1	7
505.362	1	12
505.532	1	3
505.702	1	13
505.872	1	-10
506.043	1	4
506.213	1	8
506.383	1	6
506.553	1	5
506.723	1	8
506.893	1	4
507.064	1	6
507.234	1	9
507.404	1	2
507.574	1	5
507.744	1	-4
507.915	1	8
508.085	1	3
508.255	1	5
508.425	1	15
508.595	1	11
508.766	1	5
508.936	1	2
509.106	1	-2
509.276	1	4
509.446	1	1
509.616	1	8
509.787	1	2
509.957	1	-7
510.127	1	13
510.297	1	5
510.467	1	0
510.638	1	-1
510.808	1	3
510.978	1	-4
511.148	1	19
511.318	1	8
511.488	1	5
511.659	1	5
511.829	1	2
511.999	1	17
512.169	1	8
512.339	1	6
512.509	1	4
512.680	1	9
512.850	1	5
513.020	1	9
513.190	1	5
513.360	1	3
513.530	1	-6
513.700	1	8
513.871	1	12
514.041	1	2
514.211	1	6
514.381	1	5
514.551	1	6
514.721	1	9
514.892	1	6
515.062	1	7
515.232	1	11
515.402	1	5
515.572	1	1
515.742	1	7
515.912	1	16
516.083	1	5
516.253	1	5
516.423	1	19
516.593	1	0
516.763	1	6
516.933	1	9
517.104	1	2
517.274	1	6
517.444	1	6
517.614	1	-2
517.784	1	2
517.954	1	2
518.124	1	16
518.294	1	3
518.465	1	2
518.635	1	2
518.805	1	16
518.975	1	17
519.145	1	18
519.315	1	0
519.485	1	1
519.656	1	10
519.826	1	4
519.996	1	15
520.166	1	16
520.336	1	1
520.506	1	6
520.676	1	2
520.846	1	6
521.017	1	-2
521.187	1	8
521.357	1	0
521.527	1	14
521.697	1	0
521.867	1	13
522.037	1	5
522.207	1	2
522.377	1	8
522.548	1	5
522.718	1	1
522.888	1	4
523.058	1	18
523.228	1	19
523.398	1	7
523.568	1	1
523.738	1	3
523.909	1	7
524.079	1	15
524.249	1	9
524.419	1	2
524.589	1	11
524.759	1	9
524.929	1	12
525.099	1	-1
525.269	1	10
525.439	1	-2
525.610	1	2
525.780	1	14
525.950	1	-6
526.120	1	8
526.290	1	1
526.460	1	7
526.630	1	12
526.800	1	13
526.970	1	-5
527.140	1	3
527.311	1	15
527.481	1	21
527.651	1	16
527.821	1	-5
527.991	1	16
528.161	1	3
528.331	1	12
528.501	1	8
528.671	1	11
528.841	1	13
529.011	1	7
529.181	1	5
529.352	1	9
529.522	1	15
529.692	1	13
529.862	1	5
530.032	1	-2
530.202	1	3
530.372	1	1
530.542	1	22
530.712	1	19
530.882	1	-3
531.052	1	8
531.222	1	-12
531.392	1	10
531.563	1	11
531.733	1	12
531.903	1	10
532.073	1	14
532.243	1	9
532.413	1	15
532.583	1	7
532.753	1	7
532.923	1	3
533.093	1	4
533.263	1	6
533.433	1	15
533.603	1	13
533.773	1	7
533.943	1	8
534.113	1	5
534.284	1	14
534.454	1	5
534.624	1	11
534.794	1	6
534.964	1	-7
535.134	1	5
535.304	1	9
535.474	1	-4
535.644	1	15
535.814	1	13
535.984	1	10
536.154	1	-2
536.324	1	6
536.494	1	16
536.664	1	7
536.834	1	14
537.004	1	19
537.174	1	15
537.344	1	9
537.514	1	9
537.685	1	5
537.855	1	7
538.025	1	7
538.195	1	14
538.365	1	16
538.535	1	13
538.705	1	-1
538.875	1	10
539.045	1	10
539.215	1	-3
539.385	1	7
539.555	1	4
539.725	1	8
539.895	1	9
540.065	1	3
540.235	1	4
540.405	1	8
540.575	1	3
540.745	1	3
540.915	1	13
541.085	1	1
541.255	1	1
541.425	1	3
541.595	1	5
541.765	1	10
541.935	1	16
542.105	1	8
542.275	1	7
542.445	1	6
542.615	1	8
542.785	1	3
542.955	1	17
543.125	1	12
543.295	1	16
543.465	1	18
543.635	1	4
543.805	1	19
543.975	1	15
544.145	1	9
544.315	1	7
544.485	1	3
544.655	1	15
544.825	1	15
544.995	1	-6
545.165	1	10
545.335	1	5
545.505	1	6
545.675	1	9
545.845	1	11
546.015	1	6
546.185	1	6
546.355	1	6
546.525	1	15
546.695	1	-5
546.865	1	4
547.035	1	11
547.205	1	4
547.375	1	8
547.545	1	6
547.715	1	2
547.885	1	10
548.055	1	5
548.225	1	-3
548.395	1	8
548.565	1	8
548.735	1	13
548.905	1	8
549.075	1	-7
549.245	1	8
549.415	1	5
549.585	1	-2
549.755	1	4
549.925	1	14
550.095	1	11
550.265	1	0
550.435	1	17
550.605	1	9
550.775	1	1
550.945	1	13
551.115	1	-3
551.285	1	8
551.455	1	4
551.625	1	5
551.795	1	17
551.965	1	9
552.135	1	7
552.305	1	8
552.475	1	4
552.645	1	13
552.815	1	12
552.985	1	5
553.155	1	12
553.325	1	4
553.495	1	10
553.665	1	4
553.835	1	2
554.004	1	5
554.174	1	-1
554.344	1	-1
554.514	1	7
554.684	1	11
554.854	1	11
555.024	1	1
555.194	1	17
555.364	1	9
555.534	1	2
555.704	1	5
555.874	1	3
556.044	1	4
556.214	1	-4
556.384	1	7
556.554	1	-3
556.724	1	5
556.894	1	13
557.064	1	6
557.234	1	9
557.404	1	-3
557.573	1	11
557.743	1	8
557.913	1	3
558.083	1	4
558.253	1	1
558.423	1	1
558.593	1	3
558.763	1	-1
558.933	1	10
559.103	1	7
559.273	1	-2
559.443	1	4
559.613	1	6
559.783	1	2
559.953	1	7
560.122	1	2
560.292	1	10
560.462	1	3
560.632	1	0
560.802	1	0
560.972	1	13
561.142	1	11
561.312	1	6
561.482	1	6
561.652	1	3
561.822	1	3
561.992	1	10
562.162	1	7
562.331	1	-5
562.501	1	1
562.671	1	4
562.841	1	0
563.011	1	9
563.181	1	15
563.351	1	-3
563.521	1	5
563.691	1	1
563.861	1	15
564.031	1	11
564.201	1	-1
564.370	1	5
564.540	1	14
564.710	1	-7
564.880	1	1
565.050	1	4
565.220	1	4
565.390	1	-3
565.560	1	2
565.730	1	-2
565.900	1	-2
566.069	1	7
566.239	1	7
566.409	1	11
566.579	1	14
566.749	1	5
566.919	1	5
567.089	1	12
567.259	1	11
567.429	1	4
567.599	1	2
567.768	1	6
567.938	1	3
568.108	1	-5
568.278	1	-13
568.448	1	1
568.618	1	11
568.788	1	0
568.958	1	4
569.128	1	-2
569.297	1	2
569.467	1	3
569.637	1	7
569.807	1	2
569.977	1	13
570.147	1	4
570.317	1	13
570.487	1	8
570.656	1	1
570.826	1	6
570.996	1	3
571.166	1	-10
571.336	1	9
571.506	1	2
571.676	1	16
571.846	1	7
572.015	1	-6
572.185	1	-1
572.355	1	15
572.525	1	5
572.695	1	1
572.865	1	11
573.035	1	3
573.205	1	20
573.374	1	1
573.544	1	1
573.714	1	11
573.884	1	-1
574.054	1	2
574.224	1	1
574.394	1	-2
574.563	1	-4
574.733	1	2
574.903	1	8
575.073	1	3
575.243	1	-3
575.413	1	6
575.583	1	7
575.752	1	7
575.922	1	6
576.092	1	7
576.262	1	1
576.432	1	0
576.602	1	1
576.772	1	16
576.941	1	3
577.111	1	-2
577.281	1	4
577.451	1	6
577.621	1	-8
577.791	1	-2
577.960	1	-2
578.130	1	-4
578.300	1	-1
578.470	1	1
578.640	1	7
578.810	1	4
578.979	1	3
579.149	1	3
579.319	1	8
579.489	1	-4
579.659	1	7
579.829	1	7
579.998	1	-1
580.168	1	7
580.338	1	-13
580.508	1	1
580.678	1	-5
580.848	1	13
581.017	1	7
581.187	1	7
581.357	1	4
581.527	1	11
581.697	1	-5
581.867	1	0
582.036	1	9
582.206	1	-8
582.376	1	3
582.546	1	0
582.716	1	9
582.885	1	5
583.055	1	10
583.225	1	2
583.395	1	4
583.565	1	14
583.735	1	3
583.904	1	-2
584.074	1	2
584.244	1	2
584.414	1	5
584.584	1	3
584.753	1	-3
584.923	1	5
585.093	1	3
585.263	1	8
585.433	1	-3
585.602	1	10
585.772	1	4
585.942	1	3
586.112	1	6
586.282	1	6
586.451	1	14
586.621	1	-1
586.791	1	4
586.961	1	7
587.131	1	-2
587.300	1	-2
587.470	1	0
587.640	1	-3
587.810	1	0
587.980	1	10
588.149	1	2
588.319	1	0
588.489	1	-1
588.659	1	3
588.829	1	5
588.998	1	-17
589.168	1	6
589.338	1	0
589.508	1	8
589.677	1	5
589.847	1	9
590.017	1	-8
590.187	1	6
590.357	1	-9
590.526	1	12
590.696	1	0
590.866	1	4
591.036	1	6
591.205	1	7
591.375	1	-7
591.545	1	0
591.715	1	-4
591.885	1	13
592.054	1	-2
592.224	1	7
592.394	1	0
592.564	1	-8
592.733	1	-4
592.903	1	1
593.073	1	10
593.243	1	1
593.412	1	2
593.582	1	15
593.752	1	4
593.922	1	-4
594.091	1	3
594.261	1	-1
594.431	1	4
594.601	1	-10
594.771	1	-2
594.940	1	5
595.110	1	7
595.280	1	3
595.450	1	5
595.619	1	5
595.789	1	4
595.959	1	5
596.129	1	3
596.298	1	3
596.468	1	-6
596.638	1	7
596.808	1	7
596.977	1	2
597.147	1	7
597.317	1	7
597.487	1	-2
597.656	1	-2
597.826	1	0
597.996	1	3
598.166	1	9
598.335	1	8
598.505	1	-3
598.675	1	7
598.844	1	7
599.014	1	4
599.184	1	2
599.354	1	-7
599.523	1	2
599.693	1	10
599.863	1	12
600.033	1	1
600.202	1	0
600.372	1	6
600.542	1	5
600.712	1	8
600.881	1	-3
601.051	1	10
601.221	1	1
601.390	1	-15
601.560	1	-5
601.730	1	1
601.900	1	-2
602.069	1	-8
602.239	1	-4
602.409	1	2
602.578	1	4
602.748	1	-2
602.918	1	-3
603.088	1	-2
603.257	1	1
603.427	1	2
603.597	1	13
603.767	1	0
603.936	1	15
604.106	1	3
604.276	1	-1
604.445	1	3
604.615	1	1
604.785	1	8
604.954	1	6
605.124	1	-3
605.294	1	0
605.464	1	-8
605.633	1	21
605.803	1	6
605.973	1	-1
606.142	1	1
606.312	1	2
606.482	1	-9
606.652	1	-6
606.821	1	2
606.991	1	0
607.161	1	1
607.330	1	12
607.500	1	1
607.670	1	-7
607.839	1	5
608.009	1	-7
608.179	1	3
608.348	1	-5
608.518	1	2
608.688	1	9
608.858	1	2
609.027	1	2
609.197	1	-8
609.367	1	-2
609.536	1	2
609.706	1	9
609.876	1	3
610.045	1	-2
610.215	1	-10
610.385	1	-3
610.554	1	-3
610.724	1	4
610.894	1	5
611.063	1	8
611.233	1	-3
611.403	1	-3
611.572	1	4
611.742	1	4
611.912	1	-5
612.081	1	1
612.251	1	4
612.421	1	8
612.590	1	11
612.760	1	-1
612.930	1	15
613.099	1	-6
613.269	1	-7
613.439	1	-3
613.608	1	16
613.778	1	4
613.948	1	9
614.117	1	10
614.287	1	-3
614.457	1	4
614.626	1	0
614.796	1	8
614.966	1	1
615.135	1	-13
615.305	1	1
615.475	1	9
615.644	1	-9
615.814	1	1
615.984	1	8
616.153	1	8
616.323	1	0
616.493	1	5
616.662	1	-4
616.832	1	1
617.002	1	-9
617.171	1	2
617.341	1	8
617.511	1	0
617.680	1	-4
617.850	1	10
618.019	1	-6
618.189	1	-12
618.359	1	1
618.528	1	-4
618.698	1	2
618.868	1	9
619.037	1	14
619.207	1	-6
619.377	1	-2
619.546	1	1
619.716	1	-6
619.885	1	1
620.055	1	6
620.225	1	18
620.394	1	-4
620.564	1	-8
620.734	1	4
620.903	1	3
621.073	1	-10
621.242	1	2
621.412	1	12
621.582	1	-5
621.751	1	-4
621.921	1	2
622.091	1	-2
622.260	1	-6
622.430	1	3
622.599	1	11
622.769	1	5
622.939	1	-2
623.108	1	-3
623.278	1	4
623.448	1	-3
623.617	1	11
623.787	1	3
623.956	1	8
624.126	1	5
624.296	1	-13
624.465	1	14
624.635	1	4
624.804	1	-14
624.974	1	-11
625.144	1	-1
625.313	1	2
625.483	1	3
625.652	1	9
625.822	1	7
625.992	1	3
626.161	1	7
626.331	1	5
626.501	1	0
626.670	1	2
626.840	1	10
627.009	1	-7
627.179	1	-4
627.348	1	-4
627.518	1	9
627.688	1	8
627.857	1	17
628.027	1	-1
628.196	1	3
628.366	1	10
628.536	1	5
628.705	1	3
628.875	1	3
629.044	1	2
629.214	1	0
629.384	1	-6
629.553	1	-2
629.723	1	6
629.892	1	7
630.062	1	3
630.232	1	10
630.401	1	-5
630.571	1	7
630.740	1	5
630.910	1	-3
631.079	1	1
631.249	1	-5
631.419	1	9
631.588	1	-5
631.758	1	11
631.927	1	-2
632.097	1	7
632.266	1	-10
632.436	1	-4
632.606	1	4
632.775	1	1
632.945	1	6
633.114	1	7
633.284	1	-12
633.453	1	2
633.623	1	-1
633.793	1	-2
633.962	1	2
634.132	1	13
634.301	1	-2
634.471	1	-6
634.640	1	4
634.810	1	2
634.979	1	5
635.149	1	2
635.319	1	1
635.488	1	10
635.658	1	-4
635.827	1	-2
635.997	1	1
636.166	1	6
636.336	1	7
636.505	1	3
636.675	1	1
636.845	1	12
637.014	1	-7
637.184	1	-4
637.353	1	4
637.523	1	-1
637.692	1	4
637.862	1	-10
638.031	1	10
638.201	1	9
638.370	1	2
638.540	1	15
638.710	1	-2
638.879	1	-7
639.049	1	5
639.218	1	-4
639.388	1	5
639.557	1	5
639.727	1	-4
639.896	1	4
640.066	1	1
640.235	1	6
640.405	1	3
640.574	1	0
640.744	1	-10
640.914	1	-6
641.083	1	-1
641.253	1	-7
641.422	1	-1
641.592	1	-4
641.761	1	9
641.931	1	5
642.100	1	-11
642.270	1	0
642.439	1	1
642.609	1	-5
642.778	1	-5
642.948	1	3
643.117	1	-7
643.287	1	6
643.456	1	7
643.626	1	9
643.795	1	5
643.965	1	2
644.134	1	-6
644.304	1	-9
644.473	1	10
644.643	1	-5
644.812	1	5
644.982	1	6
645.151	1	6
645.321	1	17
645.490	1	4
645.660	1	8
645.829	1	-7
645.999	1	-2
646.168	1	0
646.338	1	6
646.507	1	3
646.677	1	3
646.846	1	10
647.016	1	-6
647.185	1	-6
647.355	1	-2
647.524	1	4
647.694	1	-3
647.863	1	-13
648.033	1	-9
648.202	1	7
648.372	1	2
648.541	1	8
648.711	1	7
648.880	1	-2
649.050	1	-6
649.219	1	1
649.389	1	1
649.558	1	-6
649.728	1	0
649.897	1	1
650.067	1	-6
650.236	1	11
650.406	1	-3
650.575	1	4
650.745	1	-10
650.914	1	-5
651.084	1	-9
651.253	1	-2
651.423	1	10
651.592	1	0
651.762	1	8
651.931	1	-4
652.101	1	3
652.270	1	5
652.440	1	7
652.609	1	13
652.778	1	1
652.948	1	3
653.117	1	-2
653.287	1	6
653.456	1	-2
653.626	1	1
653.795	1	5
653.965	1	11
654.134	1	-1
654.304	1	4
654.473	1	5
654.643	1	9
654.812	1	-2
654.982	1	-14
655.151	1	-11
655.320	1	-2
655.490	1	10
655.659	1	-1
655.829	1	1
655.998	1	10
656.168	1	6
656.337	1	-12
656.507	1	9
656.676	1	-4
656.846	1	-11
657.015	1	-6
657.184	1	4
657.354	1	5
657.523	1	-8
657.693	1	7
657.862	1	1
658.032	1	17
658.201	1	-3
658.371	1	-13
658.540	1	-4
658.709	1	-1
658.879	1	-3
659.048	1	5
659.218	1	5
659.387	1	1
659.557	1	10
659.726	1	9
659.895	1	-1
660.065	1	-4
660.234	1	10
660.404	1	4
660.573	1	-5
660.743	1	-1
660.912	1	1
661.081	1	-3
661.251	1	6
661.420	1	0
661.590	1	5
661.759	1	4
661.929	1	-1
662.098	1	-14
662.267	1	8
662.437	1	5
662.606	1	7
662.776	1	7
662.945	1	-7
663.115	1	-5
663.284	1	10
663.453	1	-5
663.623	1	2
663.792	1	0
663.962	1	-12
664.131	1	-9
664.300	1	-3
664.470	1	-5
664.639	1	-9
664.809	1	-3
664.978	1	-9
665.148	1	-4
665.317	1	-13
665.486	1	-4
665.656	1	6
665.825	1	4
665.995	1	-3
666.164	1	-3
666.333	1	14
666.503	1	-4
666.672	1	-21
666.842	1	2
667.011	1	5
667.180	1	5
667.350	1	8
667.519	1	-2
667.689	1	1
667.858	1	0
668.027	1	-4
668.197	1	6
668.366	1	1
668.536	1	7
668.705	1	1
668.874	1	-6
669.044	1	-1
669.213	1	1
669.382	1	4
669.552	1	4
669.721	1	0
669.891	1	-1
670.060	1	0
670.229	1	-3
670.399	1	2
670.568	1	3
670.738	1	-4
670.907	1	-14
671.076	1	7
671.246	1	3
671.415	1	-1
671.584	1	-2
671.754	1	-5
671.923	1	-14
672.093	1	3
672.262	1	10
672.431	1	-9
672.601	1	-6
672.770	1	-6
672.939	1	-10
673.109	1	3
673.278	1	0
673.448	1	4
673.617	1	4
673.786	1	4
