325.333	1	-4
325.504	1	7
325.675	1	-1
325.846	1	-1
326.017	1	-4
326.188	1	9
326.359	1	-3
326.531	1	-14
326.702	1	5
326.873	1	1
327.044	1	2
327.215	1	-8
327.386	1	-4
327.557	1	1
327.728	1	4
327.899	1	-5
328.070	1	4
328.241	1	0
328.412	1	7
328.583	1	-9
328.754	1	-8
328.926	1	3
329.097	1	9
329.268	1	-12
329.439	1	2
329.610	1	-1
329.781	1	-10
329.952	1	9
330.123	1	6
330.294	1	10
330.465	1	-4
330.636	1	-4
330.807	1	4
330.978	1	-9
331.149	1	-2
331.320	1	-7
331.492	1	-10
331.663	1	-11
331.834	1	6
332.005	1	11
332.176	1	6
332.347	1	9
332.518	1	6
332.689	1	-2
332.860	1	-6
333.031	1	-1
333.202	1	-1
333.373	1	0
333.544	1	-5
333.715	1	-4
333.886	1	-4
334.057	1	-12
334.228	1	-3
334.399	1	5
334.570	1	-3
334.741	1	-14
334.912	1	-3
335.084	1	-6
335.255	1	-8
335.426	1	-4
335.597	1	7
335.768	1	4
335.939	1	-9
336.110	1	-5
336.281	1	-10
336.452	1	-9
336.623	1	-3
336.794	1	-7
336.965	1	2
337.136	1	-3
337.307	1	12
337.478	1	11
337.649	1	-1
337.820	1	0
337.991	1	1
338.162	1	6
338.333	1	-1
338.504	1	-2
338.675	1	0
338.846	1	-5
339.017	1	2
339.188	1	0
339.359	1	-10
339.530	1	0
339.701	1	-4
339.872	1	0
340.043	1	-3
340.214	1	-4
340.385	1	0
340.556	1	2
340.727	1	6
340.898	1	-3
341.069	1	7
341.240	1	-8
341.411	1	2
341.582	1	-7
341.753	1	1
341.924	1	-11
342.095	1	4
342.266	1	-9
342.437	1	2
342.608	1	-5
342.779	1	-6
342.950	1	-6
343.121	1	4
343.292	1	-2
343.463	1	-6
343.634	1	6
343.805	1	12
343.976	1	7
344.147	1	-9
344.318	1	4
344.489	1	-7
344.660	1	6
344.831	1	-1
345.002	1	1
345.173	1	-8
345.344	1	-2
345.515	1	0
345.686	1	-2
345.857	1	-13
346.028	1	-10
346.199	1	-6
346.370	1	6
346.541	1	0
346.712	1	6
346.883	1	-3
347.054	1	-2
347.225	1	-3
347.396	1	-6
347.567	1	4
347.738	1	7
347.909	1	1
348.080	1	5
348.251	1	-4
348.422	1	0
348.593	1	-8
348.764	1	-9
348.935	1	4
349.106	1	-5
349.277	1	-8
349.448	1	-3
349.619	1	-4
349.790	1	-5
349.961	1	5
350.132	1	3
350.303	1	-14
350.474	1	6
350.645	1	4
350.816	1	-3
350.987	1	-7
351.157	1	1
351.328	1	-2
351.499	1	-5
351.670	1	-3
351.841	1	4
352.012	1	-15
352.183	1	-8
352.354	1	-5
352.525	1	3
352.696	1	-8
352.867	1	-6
353.038	1	21
353.209	1	5
353.380	1	-3
353.551	1	-4
353.722	1	3
353.893	1	-3
354.064	1	0
354.235	1	-2
354.406	1	-4
354.576	1	-8
354.747	1	-15
354.918	1	-8
355.089	1	1
355.260	1	-3
355.431	1	4
355.602	1	7
355.773	1	3
355.944	1	0
356.115	1	-8
356.286	1	-4
356.457	1	-5
356.628	1	2
356.799	1	-6
356.970	1	-3
357.141	1	-13
357.311	1	-4
357.482	1	-2
357.653	1	-9
357.824	1	1
357.995	1	7
358.166	1	-1
358.337	1	1
358.508	1	0
358.679	1	13
358.850	1	1
359.021	1	-6
359.192	1	8
359.363	1	3
359.533	1	1
359.704	1	-7
359.875	1	-2
360.046	1	-3
360.217	1	-1
360.388	1	3
360.559	1	5
360.730	1	-2
360.901	1	6
361.072	1	-5
361.243	1	2
361.414	1	10
361.584	1	-1
361.755	1	8
361.926	1	8
362.097	1	-3
362.268	1	4
362.439	1	1
362.610	1	-4
362.781	1	-1
362.952	1	3
363.123	1	2
363.293	1	0
363.464	1	8
363.635	1	3
363.806	1	0
363.977	1	13
364.148	1	-3
364.319	1	-6
364.490	1	-6
364.661	1	3
364.832	1	-1
365.002	1	1
365.173	1	2
365.344	1	-7
365.515	1	-3
365.686	1	7
365.857	1	1
366.028	1	4
366.199	1	3
366.370	1	1
366.540	1	0
366.711	1	11
366.882	1	-1
367.053	1	13
367.224	1	0
367.395	1	14
367.566	1	1
367.737	1	-6
367.908	1	-6
368.078	1	16
368.249	1	2
368.420	1	0
368.591	1	14
368.762	1	-4
368.933	1	6
369.104	1	8
369.274	1	8
369.445	1	-3
369.616	1	-3
369.787	1	-8
369.958	1	1
370.129	1	7
370.300	1	-7
370.471	1	11
370.641	1	4
370.812	1	-1
370.983	1	8
371.154	1	-3
371.325	1	-8
371.496	1	-8
371.667	1	-3
371.837	1	-8
372.008	1	10
372.179	1	4
372.350	1	-8
372.521	1	-6
372.692	1	2
372.863	1	-9
373.033	1	3
373.204	1	-5
373.375	1	-2
373.546	1	14
373.717	1	2
373.888	1	-5
374.059	1	-6
374.229	1	-8
374.400	1	-3
374.571	1	1
374.742	1	8
374.913	1	1
375.084	1	-10
375.254	1	5
375.425	1	1
375.596	1	-8
375.767	1	3
375.938	1	2
376.109	1	-4
376.279	1	-4
376.450	1	-5
376.621	1	12
376.792	1	2
376.963	1	2
377.134	1	-9
377.304	1	2
377.475	1	4
377.646	1	-7
377.817	1	4
377.988	1	-4
378.159	1	3
378.329	1	-2
378.500	1	-12
378.671	1	-3
378.842	1	-5
379.013	1	4
379.184	1	-4
379.354	1	3
379.525	1	2
379.696	1	-15
379.867	1	7
380.038	1	9
380.209	1	3
380.379	1	-9
380.550	1	10
380.721	1	4
380.892	1	-4
381.063	1	-7
381.233	1	2
381.404	1	5
381.575	1	-11
381.746	1	6
381.917	1	-6
382.087	1	-3
382.258	1	12
382.429	1	6
382.600	1	3
382.771	1	3
382.941	1	5
383.112	1	1
383.283	1	5
383.454	1	0
383.625	1	3
383.795	1	6
383.966	1	2
384.137	1	-2
384.308	1	5
384.479	1	6
384.649	1	3
384.820	1	-4
384.991	1	7
385.162	1	8
385.333	1	13
385.503	1	4
385.674	1	7
385.845	1	11
386.016	1	4
386.187	1	16
386.357	1	1
386.528	1	22
386.699	1	10
386.870	1	17
387.041	1	5
387.211	1	9
387.382	1	-2
387.553	1	12
387.724	1	2
387.894	1	15
388.065	1	-1
388.236	1	13
388.407	1	13
388.578	1	14
388.748	1	13
388.919	1	2
389.090	1	17
389.261	1	-15
389.431	1	16
389.602	1	4
389.773	1	6
389.944	1	8
390.114	1	14
390.285	1	7
390.456	1	3
390.627	1	-1
390.798	1	18
390.968	1	-1
391.139	1	-8
391.310	1	8
391.481	1	2
391.651	1	12
391.822	1	11
391.993	1	5
392.164	1	4
392.334	1	17
392.505	1	11
392.676	1	1
392.847	1	11
393.017	1	-2
393.188	1	9
393.359	1	15
393.530	1	10
393.700	1	13
393.871	1	-5
394.042	1	13
394.213	1	6
394.383	1	6
394.554	1	4
394.725	1	10
394.896	1	-4
395.066	1	2
395.237	1	13
395.408	1	6
395.579	1	11
395.749	1	15
395.920	1	14
396.091	1	7
396.262	1	10
396.432	1	-1
396.603	1	11
396.774	1	0
396.945	1	13
397.115	1	13
397.286	1	8
397.457	1	6
397.627	1	5
397.798	1	2
397.969	1	6
398.140	1	7
398.310	1	5
398.481	1	0
398.652	1	6
398.823	1	17
398.993	1	1
399.164	1	19
399.335	1	4
399.505	1	12
399.676	1	7
399.847	1	10
400.018	1	10
400.188	1	15
400.359	1	4
400.530	1	10
400.700	1	2
400.871	1	-1
401.042	1	3
401.213	1	5
401.383	1	9
401.554	1	2
401.725	1	6
401.895	1	10
402.066	1	15
402.237	1	8
402.408	1	3
402.578	1	6
402.749	1	2
402.920	1	-2
403.090	1	5
403.261	1	9
403.432	1	-2
403.603	1	10
403.773	1	6
403.944	1	7
404.115	1	-12
404.285	1	4
404.456	1	2
404.627	1	9
404.797	1	19
404.968	1	2
405.139	1	5
405.310	1	0
405.480	1	-1
405.651	1	7
405.822	1	10
405.992	1	-4
406.163	1	17
406.334	1	6
406.504	1	7
406.675	1	14
406.846	1	8
407.016	1	0
407.187	1	2
407.358	1	6
407.528	1	5
407.699	1	4
407.870	1	1
408.041	1	-3
408.211	1	1
408.382	1	7
408.553	1	2
408.723	1	2
408.894	1	6
409.065	1	17
409.235	1	4
409.406	1	5
409.577	1	4
409.747	1	3
409.918	1	3
410.089	1	6
410.259	1	4
410.430	1	6
410.601	1	2
410.771	1	4
410.942	1	2
411.113	1	2
411.283	1	-3
411.454	1	-1
411.625	1	-2
411.795	1	18
411.966	1	-8
412.137	1	-3
412.307	1	2
412.478	1	15
412.649	1	-2
412.819	1	2
412.990	1	13
413.161	1	3
413.331	1	-18
413.502	1	9
413.672	1	1
413.843	1	0
414.014	1	6
414.184	1	-10
414.355	1	1
414.526	1	0
414.696	1	4
414.867	1	11
415.038	1	9
415.208	1	-6
415.379	1	1
415.550	1	1
415.720	1	-3
415.891	1	7
416.062	1	2
416.232	1	12
416.403	1	6
416.573	1	-3
416.744	1	1
416.915	1	-2
417.085	1	0
417.256	1	-6
417.427	1	7
417.597	1	-17
417.768	1	-4
417.939	1	6
418.109	1	11
418.280	1	-5
418.450	1	-4
418.621	1	-5
418.792	1	2
418.962	1	6
419.133	1	0
419.304	1	-1
419.474	1	-2
419.645	1	11
419.815	1	3
419.986	1	9
420.157	1	15
420.327	1	7
420.498	1	12
420.669	1	6
420.839	1	5
421.010	1	8
421.180	1	-3
421.351	1	1
421.522	1	2
421.692	1	7
421.863	1	-8
422.033	1	3
422.204	1	-9
422.375	1	-1
422.545	1	4
422.716	1	10
422.886	1	3
423.057	1	-4
423.228	1	-11
423.398	1	-3
423.569	1	6
423.740	1	-9
423.910	1	-8
424.081	1	-2
424.251	1	-9
424.422	1	3
424.593	1	8
424.763	1	0
424.934	1	4
425.104	1	7
425.275	1	-15
425.445	1	2
425.616	1	7
425.787	1	0
425.957	1	13
426.128	1	-5
426.298	1	-1
426.469	1	4
426.640	1	2
426.810	1	5
426.981	1	-9
427.151	1	3
427.322	1	-7
427.493	1	2
427.663	1	-3
427.834	1	-8
428.004	1	14
428.175	1	7
428.345	1	12
428.516	1	-4
428.687	1	5
428.857	1	1
429.028	1	1
429.198	1	-4
429.369	1	6
429.540	1	8
429.710	1	1
429.881	1	20
430.051	1	14
430.222	1	4
430.392	1	0
430.563	1	9
430.734	1	2
430.904	1	-6
431.075	1	9
431.245	1	7
431.416	1	13
431.586	1	-7
431.757	1	2
431.927	1	5
432.098	1	-3
432.269	1	-6
432.439	1	2
432.610	1	6
432.780	1	-2
432.951	1	2
433.121	1	10
433.292	1	-3
433.462	1	5
433.633	1	2
433.804	1	-5
433.974	1	-12
434.145	1	-5
434.315	1	4
434.486	1	0
434.656	1	-7
434.827	1	-2
434.997	1	0
435.168	1	-2
435.339	1	7
435.509	1	0
435.680	1	-12
435.850	1	5
436.021	1	0
436.191	1	-4
436.362	1	3
436.532	1	4
436.703	1	17
436.873	1	-14
437.044	1	-2
437.214	1	-1
437.385	1	4
437.556	1	-5
437.726	1	0
437.897	1	3
438.067	1	6
438.238	1	-8
438.408	1	3
438.579	1	3
438.749	1	2
438.920	1	-5
439.090	1	9
439.261	1	4
439.431	1	6
439.602	1	10
439.772	1	15
439.943	1	1
440.113	1	-3
440.284	1	2
440.455	1	-1
440.625	1	3
440.796	1	-7
440.966	1	6
441.137	1	-9
441.307	1	-3
441.478	1	0
441.648	1	-3
441.819	1	5
441.989	1	0
442.160	1	0
442.330	1	4
442.501	1	-14
442.671	1	1
442.842	1	2
443.012	1	-1
443.183	1	0
443.353	1	8
443.524	1	4
443.694	1	5
443.865	1	-2
444.035	1	-3
444.206	1	2
444.376	1	1
444.547	1	-4
444.717	1	5
444.888	1	-9
445.058	1	6
445.229	1	-3
445.399	1	5
445.570	1	6
445.740	1	1
445.911	1	10
446.081	1	5
446.252	1	-3
446.422	1	6
446.593	1	-3
446.763	1	6
446.934	1	-3
447.104	1	-4
447.275	1	-4
447.445	1	-6
447.616	1	-7
447.786	1	-4
447.957	1	-5
448.127	1	-7
448.298	1	2
448.468	1	8
448.639	1	-1
448.809	1	-4
448.979	1	-2
449.150	1	3
449.320	1	5
449.491	1	-5
449.661	1	4
449.832	1	-7
450.002	1	-3
450.173	1	-3
450.343	1	2
450.514	1	-2
450.684	1	-2
450.855	1	1
451.025	1	5
451.196	1	-3
451.366	1	5
451.537	1	-8
451.707	1	7
451.878	1	-5
452.048	1	2
452.218	1	-2
452.389	1	3
452.559	1	-2
452.730	1	-1
452.900	1	-2
453.071	1	2
453.241	1	3
453.412	1	-11
453.582	1	11
453.753	1	-3
453.923	1	-5
454.093	1	1
454.264	1	-4
454.434	1	-2
454.605	1	6
454.775	1	5
454.946	1	1
455.116	1	-3
455.287	1	2
455.457	1	-3
455.628	1	-7
455.798	1	-9
455.968	1	9
456.139	1	1
456.309	1	-10
456.480	1	-4
456.650	1	1
456.821	1	-2
456.991	1	10
457.161	1	0
457.332	1	-2
457.502	1	5
457.673	1	-4
457.843	1	13
458.014	1	7
458.184	1	8
458.355	1	1
458.525	1	-7
458.695	1	-6
458.866	1	-7
459.036	1	-1
459.207	1	6
459.377	1	2
459.548	1	-2
459.718	1	-9
459.888	1	8
460.059	1	4
460.229	1	15
460.400	1	9
460.570	1	-11
460.740	1	-8
460.911	1	7
461.081	1	-11
461.252	1	-5
461.422	1	3
461.593	1	-7
461.763	1	-3
461.933	1	-10
462.104	1	1
462.274	1	-8
462.445	1	-1
462.615	1	-8
462.785	1	-4
462.956	1	-7
463.126	1	-9
463.297	1	-8
463.467	1	0
463.638	1	10
463.808	1	1
463.978	1	2
464.149	1	-7
464.319	1	1
464.490	1	-10
464.660	1	-2
464.830	1	-1
465.001	1	5
465.171	1	5
465.342	1	7
465.512	1	3
465.682	1	0
465.853	1	-2
466.023	1	-1
466.194	1	-4
466.364	1	-2
466.534	1	2
466.705	1	-6
466.875	1	1
467.045	1	4
467.216	1	-12
467.386	1	-1
467.557	1	3
467.727	1	-7
467.897	1	5
468.068	1	4
468.238	1	-3
468.409	1	6
468.579	1	6
468.749	1	-1
468.920	1	-1
469.090	1	6
469.260	1	1
469.431	1	4
469.601	1	2
469.772	1	-7
469.942	1	-2
470.112	1	0
470.283	1	2
470.453	1	4
470.623	1	1
470.794	1	2
470.964	1	-3
471.135	1	-12
471.305	1	-2
471.475	1	-5
471.646	1	6
471.816	1	-4
471.986	1	4
472.157	1	5
472.327	1	-5
472.497	1	-7
472.668	1	1
472.838	1	9
473.009	1	-4
473.179	1	3
473.349	1	0
473.520	1	-3
473.690	1	9
473.860	1	0
474.031	1	1
474.201	1	-9
474.371	1	1
474.542	1	-5
474.712	1	-2
474.882	1	0
475.053	1	-4
475.223	1	-5
475.394	1	9
475.564	1	9
475.734	1	0
475.905	1	-3
476.075	1	-2
476.245	1	-5
476.416	1	1
476.586	1	-6
476.756	1	3
476.927	1	5
477.097	1	-5
477.267	1	-2
477.438	1	2
477.608	1	9
477.778	1	7
477.949	1	-4
478.119	1	1
478.289	1	1
478.460	1	3
478.630	1	4
478.800	1	-2
478.971	1	8
479.141	1	3
479.311	1	0
479.482	1	-1
479.652	1	1
479.822	1	-7
479.993	1	1
480.163	1	-6
480.333	1	-6
480.504	1	-6
480.674	1	5
480.844	1	6
481.015	1	-11
481.185	1	13
481.355	1	6
481.525	1	6
481.696	1	-2
481.866	1	-6
482.036	1	-9
482.207	1	4
482.377	1	-10
482.547	1	-4
482.718	1	4
482.888	1	-15
483.058	1	5
483.229	1	6
483.399	1	-2
483.569	1	-2
483.740	1	-23
483.910	1	5
484.080	1	-9
484.250	1	4
484.421	1	-3
484.591	1	9
484.761	1	-5
484.932	1	10
485.102	1	3
485.272	1	0
485.443	1	7
485.613	1	-14
485.783	1	2
485.953	1	-5
486.124	1	5
486.294	1	0
486.464	1	-8
486.635	1	14
486.805	1	8
486.975	1	-11
487.146	1	-3
487.316	1	2
487.486	1	4
487.656	1	-2
487.827	1	3
487.997	1	0
488.167	1	3
488.338	1	9
488.508	1	13
488.678	1	-1
488.848	1	-13
489.019	1	-3
489.189	1	-5
489.359	1	-5
489.529	1	-1
489.700	1	4
489.870	1	-2
490.040	1	-7
490.211	1	10
490.381	1	-5
490.551	1	-12
490.721	1	7
490.892	1	5
491.062	1	12
491.232	1	14
491.402	1	-6
491.573	1	9
491.743	1	-7
491.913	1	-2
492.084	1	4
492.254	1	-2
492.424	1	0
492.594	1	-8
492.765	1	3
492.935	1	2
493.105	1	13
493.275	1	11
493.446	1	3
493.616	1	9
493.786	1	2
493.956	1	4
494.127	1	-5
494.297	1	-3
494.467	1	5
494.637	1	-1
494.808	1	-3
494.978	1	-7
495.148	1	9
495.318	1	2
495.489	1	-4
495.659	1	14
495.829	1	1
495.999	1	5
496.170	1	-3
496.340	1	0
496.510	1	-2
496.680	1	6
496.851	1	4
497.021	1	1
497.191	1	1
497.361	1	2
497.532	1	-2
497.702	1	-2
497.872	1	2
498.042	1	5
498.213	1	9
498.383	1	-4
498.553	1	5
498.723	1	-3
498.894	1	5
499.064	1	10
499.234	1	4
499.404	1	-7
499.574	1	-8
499.745	1	2
499.915	1	-4
500.085	1	-5
500.255	1	-1
500.426	1	-8
500.596	1	3
500.766	1	5
500.936	1	-8
501.106	1	-12
501.277	1	-2
501.447	1	0
501.617	1	-3
501.787	1	-3
501.958	1	-13
502.128	1	-9
502.298	1	5
502.468	1	12
502.638	1	2
502.809	1	-1
502.979	1	7
503.149	1	7
503.319	1	2
503.489	1	-1
503.660	1	5
503.830	1	-1
504.000	1	1
504.170	1	7
504.340	1	6
504.511	1	6
504.681	1	3
504.851	1	4
505.021	1	-1
505.192	1	4
505.362	1	-2
505.532	1	3
505.702	1	4
505.872	1	-7
506.043	1	2
506.213	1	7
506.383	1	-5
506.553	1	17
506.723	1	2
506.893	1	4
507.064	1	-6
507.234	1	3
507.404	1	-1
507.574	1	7
507.744	1	-4
507.915	1	10
508.085	1	5
508.255	1	5
508.425	1	6
508.595	1	10
508.766	1	-2
508.936	1	1
509.106	1	-4
509.276	1	2
509.446	1	-1
509.616	1	-2
509.787	1	7
509.957	1	-8
510.127	1	11
510.297	1	-3
510.467	1	0
510.638	1	-2
510.808	1	-8
510.978	1	-8
511.148	1	8
511.318	1	-7
511.488	1	7
511.659	1	2
511.829	1	0
511.999	1	14
512.169	1	6
512.339	1	3
512.509	1	0
512.680	1	2
512.850	1	0
513.020	1	10
513.190	1	-5
513.360	1	5
513.530	1	-2
513.700	1	4
513.871	1	12
514.041	1	-4
514.211	1	3
514.381	1	10
514.551	1	1
514.721	1	-4
514.892	1	6
515.062	1	1
515.232	1	10
515.402	1	8
515.572	1	-6
515.742	1	11
515.912	1	3
516.083	1	7
516.253	1	4
516.423	1	13
516.593	1	-8
516.763	1	1
516.933	1	2
517.104	1	5
517.274	1	3
517.444	1	4
517.614	1	1
517.784	1	0
517.954	1	-2
518.124	1	4
518.294	1	8
518.465	1	2
518.635	1	-3
518.805	1	1
518.975	1	8
519.145	1	7
519.315	1	0
519.485	1	-3
519.656	1	7
519.826	1	2
519.996	1	8
520.166	1	0
520.336	1	2
520.506	1	5
520.676	1	1
520.846	1	-11
521.017	1	1
521.187	1	11
521.357	1	0
521.527	1	6
521.697	1	0
521.867	1	15
522.037	1	-2
522.207	1	-1
522.377	1	0
522.548	1	-1
522.718	1	3
522.888	1	9
523.058	1	19
523.228	1	17
523.398	1	8
523.568	1	-8
523.738	1	1
523.909	1	1
524.079	1	10
524.249	1	-1
524.419	1	6
524.589	1	7
524.759	1	7
524.929	1	4
525.099	1	0
525.269	1	3
525.439	1	-3
525.610	1	0
525.780	1	1
525.950	1	1
526.120	1	-6
526.290	1	-6
526.460	1	8
526.630	1	12
526.800	1	6
526.970	1	-3
527.140	1	-10
527.311	1	-1
527.481	1	18
527.651	1	11
527.821	1	-3
527.991	1	-2
528.161	1	8
528.331	1	9
528.501	1	-5
528.671	1	12
528.841	1	2
529.011	1	2
529.181	1	-1
529.352	1	4
529.522	1	1
529.692	1	12
529.862	1	4
530.032	1	8
530.202	1	3
530.372	1	0
530.542	1	11
530.712	1	20
530.882	1	-1
531.052	1	12
531.222	1	-10
531.392	1	1
531.563	1	4
531.733	1	4
531.903	1	13
532.073	1	1
532.243	1	0
532.413	1	5
532.583	1	4
532.753	1	0
532.923	1	9
533.093	1	1
533.263	1	0
533.433	1	3
533.603	1	3
533.773	1	1
533.943	1	-9
534.113	1	-6
534.284	1	-3
534.454	1	-1
534.624	1	11
534.794	1	4
534.964	1	-2
535.134	1	-2
535.304	1	12
535.474	1	9
535.644	1	4
535.814	1	4
535.984	1	2
536.154	1	9
536.324	1	4
536.494	1	1
536.664	1	13
536.834	1	1
537.004	1	19
537.174	1	4
537.344	1	2
537.514	1	2
537.685	1	1
537.855	1	7
538.025	1	4
538.195	1	4
538.365	1	7
538.535	1	3
538.705	1	-5
538.875	1	3
539.045	1	0
539.215	1	-9
539.385	1	1
539.555	1	4
539.725	1	3
539.895	1	12
540.065	1	-7
540.235	1	-11
540.405	1	0
540.575	1	13
540.745	1	5
540.915	1	0
541.085	1	-9
541.255	1	-8
541.425	1	-2
541.595	1	-3
541.765	1	2
541.935	1	16
542.105	1	10
542.275	1	-1
542.445	1	8
542.615	1	0
542.785	1	-1
542.955	1	7
543.125	1	-3
543.295	1	5
543.465	1	12
543.635	1	-2
543.805	1	1
543.975	1	-4
544.145	1	4
544.315	1	0
544.485	1	5
544.655	1	10
544.825	1	8
544.995	1	2
545.165	1	2
545.335	1	-7
545.505	1	-4
545.675	1	-1
545.845	1	2
546.015	1	7
546.185	1	0
546.355	1	2
546.525	1	-2
546.695	1	4
546.865	1	1
547.035	1	7
547.205	1	6
547.375	1	-1
547.545	1	-2
547.715	1	-4
547.885	1	-7
548.055	1	7
548.225	1	1
548.395	1	0
548.565	1	6
548.735	1	12
548.905	1	-4
549.075	1	-1
549.245	1	4
549.415	1	-8
549.585	1	-5
549.755	1	-2
549.925	1	4
550.095	1	9
550.265	1	-2
550.435	1	16
550.605	1	4
550.775	1	-3
550.945	1	2
551.115	1	-8
551.285	1	4
551.455	1	-1
551.625	1	0
551.795	1	2
551.965	1	4
552.135	1	2
552.305	1	-3
552.475	1	-7
552.645	1	14
552.815	1	2
552.985	1	8
553.155	1	7
553.325	1	17
553.495	1	-5
553.665	1	-6
553.835	1	1
554.004	1	6
554.174	1	4
554.344	1	-2
554.514	1	4
554.684	1	2
554.854	1	8
555.024	1	6
555.194	1	10
555.364	1	2
555.534	1	0
555.704	1	2
555.874	1	-3
556.044	1	6
556.214	1	-3
556.384	1	5
556.554	1	-6
556.724	1	-3
556.894	1	11
557.064	1	5
557.234	1	-1
557.404	1	-4
557.573	1	4
557.743	1	7
557.913	1	1
558.083	1	-10
558.253	1	-6
558.423	1	-10
558.593	1	-2
558.763	1	-5
558.933	1	5
559.103	1	-3
559.273	1	-1
559.443	1	-5
559.613	1	10
559.783	1	3
559.953	1	4
560.122	1	-8
560.292	1	3
560.462	1	3
560.632	1	5
560.802	1	8
560.972	1	6
561.142	1	4
561.312	1	1
561.482	1	-6
561.652	1	7
561.822	1	5
561.992	1	12
562.162	1	7
562.331	1	5
562.501	1	-4
562.671	1	-1
562.841	1	2
563.011	1	8
563.181	1	9
563.351	1	-12
563.521	1	2
563.691	1	2
563.861	1	7
564.031	1	2
564.201	1	7
564.370	1	3
564.540	1	12
564.710	1	-8
564.880	1	6
565.050	1	-3
565.220	1	4
565.390	1	-3
565.560	1	9
565.730	1	-2
565.900	1	2
566.069	1	5
566.239	1	-10
566.409	1	-8
566.579	1	1
566.749	1	9
566.919	1	4
567.089	1	1
567.259	1	16
567.429	1	4
567.599	1	2
567.768	1	5
567.938	1	7
568.108	1	8
568.278	1	-6
568.448	1	-3
568.618	1	4
568.788	1	-6
568.958	1	6
569.128	1	1
569.297	1	3
569.467	1	2
569.637	1	-1
569.807	1	0
569.977	1	0
570.147	1	3
570.317	1	18
570.487	1	6
570.656	1	1
570.826	1	5
570.996	1	-5
571.166	1	-6
571.336	1	-8
571.506	1	-8
571.676	1	7
571.846	1	14
572.015	1	-1
572.185	1	-2
572.355	1	14
572.525	1	-3
572.695	1	4
572.865	1	4
573.035	1	1
573.205	1	9
573.374	1	-3
573.544	1	6
573.714	1	7
573.884	1	-2
574.054	1	-6
574.224	1	-1
574.394	1	5
574.563	1	3
574.733	1	1
574.903	1	6
575.073	1	0
575.243	1	-9
575.413	1	5
575.583	1	4
575.752	1	-2
575.922	1	-2
576.092	1	10
576.262	1	2
576.432	1	-4
576.602	1	2
576.772	1	2
576.941	1	3
577.111	1	-1
577.281	1	-2
577.451	1	-9
577.621	1	-1
577.791	1	11
577.960	1	-4
578.130	1	-3
578.300	1	-3
578.470	1	1
578.640	1	-2
578.810	1	4
578.979	1	2
579.149	1	-10
579.319	1	6
579.489	1	3
579.659	1	2
579.829	1	11
579.998	1	-6
580.168	1	2
580.338	1	-16
580.508	1	2
580.678	1	8
580.848	1	5
581.017	1	0
581.187	1	-3
581.357	1	5
581.527	1	4
581.697	1	-14
581.867	1	2
582.036	1	0
582.206	1	6
582.376	1	2
582.546	1	-1
582.716	1	2
582.885	1	4
583.055	1	-9
583.225	1	5
583.395	1	5
583.565	1	10
583.735	1	-2
583.904	1	7
584.074	1	-1
584.244	1	11
584.414	1	-2
584.584	1	8
584.753	1	0
584.923	1	0
585.093	1	13
585.263	1	7
585.433	1	2
585.602	1	5
585.772	1	-5
585.942	1	-7
586.112	1	3
586.282	1	8
586.451	1	4
586.621	1	-4
586.791	1	7
586.961	1	3
587.131	1	-5
587.300	1	0
587.470	1	3
587.640	1	-11
587.810	1	3
587.980	1	-13
588.149	1	1
588.319	1	4
588.489	1	7
588.659	1	-13
588.829	1	-1
588.998	1	-14
589.168	1	10
589.338	1	5
589.508	1	-1
589.677	1	-2
589.847	1	-2
590.017	1	-12
590.187	1	7
590.357	1	-7
590.526	1	2
590.696	1	0
590.866	1	4
591.036	1	10
591.205	1	-4
591.375	1	-8
591.545	1	-1
591.715	1	-9
591.885	1	3
592.054	1	3
592.224	1	4
592.394	1	2
592.564	1	-15
592.733	1	-5
592.903	1	1
593.073	1	0
593.243	1	-7
593.412	1	3
593.582	1	0
593.752	1	-10
593.922	1	-4
594.091	1	4
594.261	1	-4
594.431	1	1
594.601	1	-5
594.771	1	11
594.940	1	-3
595.110	1	1
595.280	1	1
595.450	1	-1
595.619	1	-1
595.789	1	-1
595.959	1	-5
596.129	1	9
596.298	1	3
596.468	1	4
596.638	1	-7
596.808	1	5
596.977	1	-6
597.147	1	6
597.317	1	6
597.487	1	8
597.656	1	-1
597.826	1	0
597.996	1	5
598.166	1	12
598.335	1	8
598.505	1	0
598.675	1	0
598.844	1	-1
599.014	1	-4
599.184	1	-4
599.354	1	-12
599.523	1	-1
599.693	1	9
599.863	1	5
600.033	1	-10
600.202	1	7
600.372	1	1
600.542	1	-9
600.712	1	2
600.881	1	1
601.051	1	16
601.221	1	-6
601.390	1	-7
601.560	1	-5
601.730	1	-4
601.900	1	3
602.069	1	-9
602.239	1	-9
602.409	1	0
602.578	1	8
602.748	1	-2
602.918	1	-7
603.088	1	1
603.257	1	-7
603.427	1	1
603.597	1	19
603.767	1	-12
603.936	1	9
604.106	1	2
604.276	1	1
604.445	1	4
604.615	1	-4
604.785	1	7
604.954	1	2
605.124	1	-4
605.294	1	-1
605.464	1	-8
605.633	1	-2
605.803	1	6
605.973	1	-2
606.142	1	2
606.312	1	3
606.482	1	0
606.652	1	-12
606.821	1	8
606.991	1	-12
607.161	1	-11
607.330	1	1
607.500	1	1
607.670	1	-2
607.839	1	-4
608.009	1	-12
608.179	1	7
608.348	1	-5
608.518	1	0
608.688	1	-1
608.858	1	6
609.027	1	3
609.197	1	0
609.367	1	-2
609.536	1	-4
609.706	1	1
609.876	1	-2
610.045	1	0
610.215	1	-6
610.385	1	4
610.554	1	4
610.724	1	2
610.894	1	3
611.063	1	7
611.233	1	2
611.403	1	4
611.572	1	-7
611.742	1	-8
611.912	1	0
612.081	1	-10
612.251	1	-4
612.421	1	15
612.590	1	-6
612.760	1	-4
612.930	1	5
613.099	1	-16
613.269	1	-1
613.439	1	-4
613.608	1	3
613.778	1	2
613.948	1	2
614.117	1	13
614.287	1	-8
614.457	1	-2
614.626	1	-1
614.796	1	11
614.966	1	3
615.135	1	-3
615.305	1	-8
615.475	1	0
615.644	1	-12
615.814	1	1
615.984	1	2
616.153	1	8
616.323	1	-3
616.493	1	1
616.662	1	1
616.832	1	3
617.002	1	-9
617.171	1	-4
617.341	1	1
617.511	1	-3
617.680	1	5
617.850	1	10
618.019	1	11
618.189	1	-5
618.359	1	2
618.528	1	-7
618.698	1	2
618.868	1	4
619.037	1	10
619.207	1	-9
619.377	1	-8
619.546	1	-1
619.716	1	-3
619.885	1	-2
620.055	1	4
620.225	1	2
620.394	1	2
620.564	1	1
620.734	1	2
620.903	1	-4
621.073	1	-12
621.242	1	-9
621.412	1	5
621.582	1	-7
621.751	1	-9
621.921	1	-1
622.091	1	-2
622.260	1	-7
622.430	1	7
622.599	1	6
622.769	1	2
622.939	1	1
623.108	1	1
623.278	1	0
623.448	1	-4
623.617	1	10
623.787	1	0
623.956	1	1
624.126	1	-4
624.296	1	-3
624.465	1	4
624.635	1	-5
624.804	1	-15
624.974	1	2
625.144	1	-6
625.313	1	9
625.483	1	6
625.652	1	5
625.822	1	2
625.992	1	-2
626.161	1	9
626.331	1	7
626.501	1	3
626.670	1	-1
626.840	1	2
627.009	1	-2
627.179	1	-1
627.348	1	-9
627.518	1	-1
627.688	1	-2
627.857	1	9
628.027	1	-2
628.196	1	10
628.366	1	5
628.536	1	0
628.705	1	4
628.875	1	5
629.044	1	3
629.214	1	1
629.384	1	-9
629.553	1	10
629.723	1	12
629.892	1	7
630.062	1	1
630.232	1	3
630.401	1	3
630.571	1	-2
630.740	1	1
630.910	1	-3
631.079	1	6
631.249	1	-11
631.419	1	1
631.588	1	-1
631.758	1	0
631.927	1	-6
632.097	1	10
632.266	1	-7
632.436	1	0
632.606	1	-1
632.775	1	-1
632.945	1	6
633.114	1	9
633.284	1	-6
633.453	1	-7
633.623	1	-6
633.793	1	-3
633.962	1	-5
634.132	1	9
634.301	1	-3
634.471	1	-12
634.640	1	1
634.810	1	5
634.979	1	1
635.149	1	1
635.319	1	0
635.488	1	1
635.658	1	-3
635.827	1	-1
635.997	1	9
636.166	1	1
636.336	1	13
636.505	1	-1
636.675	1	-6
636.845	1	9
637.014	1	-1
637.184	1	-7
637.353	1	-3
637.523	1	-3
637.692	1	-2
637.862	1	-5
638.031	1	19
638.201	1	9
638.370	1	5
638.540	1	-5
638.710	1	-6
638.879	1	-7
639.049	1	2
639.218	1	-2
639.388	1	1
639.557	1	1
639.727	1	-4
639.896	1	0
640.066	1	8
640.235	1	9
640.405	1	-3
640.574	1	3
640.744	1	1
640.914	1	-4
641.083	1	-4
641.253	1	-8
641.422	1	-1
641.592	1	-15
641.761	1	-3
641.931	1	7
642.100	1	-3
642.270	1	6
642.439	1	-3
642.609	1	0
642.778	1	-1
642.948	1	5
643.117	1	-3
643.287	1	5
643.456	1	8
643.626	1	2
643.795	1	6
643.965	1	-7
644.134	1	-1
644.304	1	-4
644.473	1	-2
644.643	1	2
644.812	1	7
644.982	1	-1
645.151	1	3
645.321	1	8
645.490	1	2
645.660	1	-7
645.829	1	-1
645.999	1	-2
646.168	1	3
646.338	1	6
646.507	1	3
646.677	1	3
646.846	1	7
647.016	1	0
647.185	1	-6
647.355	1	-6
647.524	1	5
647.694	1	-11
647.863	1	-7
648.033	1	-10
648.202	1	-4
648.372	1	0
648.541	1	9
648.711	1	-2
648.880	1	5
649.050	1	-8
649.219	1	-1
649.389	1	6
649.558	1	-6
649.728	1	3
649.897	1	-2
650.067	1	0
650.236	1	6
650.406	1	-1
650.575	1	4
650.745	1	-5
650.914	1	-4
651.084	1	-9
651.253	1	-2
651.423	1	6
651.592	1	3
651.762	1	8
651.931	1	0
652.101	1	4
652.270	1	2
652.440	1	12
652.609	1	3
652.778	1	-7
652.948	1	-4
653.117	1	0
653.287	1	11
653.456	1	-3
653.626	1	1
653.795	1	0
653.965	1	4
654.134	1	5
654.304	1	-3
654.473	1	3
654.643	1	12
654.812	1	-5
654.982	1	-10
655.151	1	1
655.320	1	-15
655.490	1	13
655.659	1	3
655.829	1	-1
655.998	1	8
656.168	1	-7
656.337	1	-4
656.507	1	13
656.676	1	-13
656.846	1	-13
657.015	1	9
657.184	1	4
657.354	1	-9
657.523	1	-9
657.693	1	5
657.862	1	5
658.032	1	8
658.201	1	5
658.371	1	-7
658.540	1	6
658.709	1	-2
658.879	1	-3
659.048	1	1
659.218	1	-2
659.387	1	-1
659.557	1	9
659.726	1	-7
659.895	1	-1
660.065	1	3
660.234	1	-7
660.404	1	2
660.573	1	-10
660.743	1	-5
660.912	1	-2
661.081	1	-2
661.251	1	4
661.420	1	-3
661.590	1	-1
661.759	1	1
661.929	1	-3
662.098	1	-11
662.267	1	8
662.437	1	-3
662.606	1	0
662.776	1	10
662.945	1	-3
663.115	1	-4
663.284	1	-4
663.453	1	3
663.623	1	1
663.792	1	0
663.962	1	-1
664.131	1	-6
664.300	1	5
664.470	1	-3
664.639	1	-1
664.809	1	7
664.978	1	-3
665.148	1	2
665.317	1	-4
665.486	1	-2
665.656	1	-6
665.825	1	-2
665.995	1	2
666.164	1	7
666.333	1	8
666.503	1	-3
666.672	1	-10
666.842	1	-10
667.011	1	2
667.180	1	1
667.350	1	2
667.519	1	-5
667.689	1	-1
667.858	1	0
668.027	1	-12
668.197	1	0
668.366	1	-4
668.536	1	-1
668.705	1	-4
668.874	1	-9
669.044	1	-7
669.213	1	-8
669.382	1	-5
669.552	1	8
669.721	1	-9
669.891	1	3
670.060	1	-4
670.229	1	-5
670.399	1	8
670.568	1	5
670.738	1	-7
670.907	1	-13
671.076	1	9
671.246	1	5
671.415	1	3
671.584	1	5
671.754	1	-10
671.923	1	-9
672.093	1	-1
672.262	1	2
672.431	1	0
672.601	1	-9
672.770	1	-4
672.939	1	-11
673.109	1	-10
673.278	1	-6
673.448	1	-3
673.617	1	12
673.786	1	-4
