325.333	1	4
325.504	1	6
325.675	1	5
325.846	1	-5
326.017	1	-3
326.188	1	5
326.359	1	-3
326.531	1	2
326.702	1	-6
326.873	1	6
327.044	1	2
327.215	1	-8
327.386	1	-11
327.557	1	-6
327.728	1	3
327.899	1	4
328.070	1	6
328.241	1	2
328.412	1	12
328.583	1	-7
328.754	1	-8
328.926	1	4
329.097	1	3
329.268	1	-5
329.439	1	1
329.610	1	0
329.781	1	-1
329.952	1	4
330.123	1	-1
330.294	1	0
330.465	1	-5
330.636	1	0
330.807	1	2
330.978	1	2
331.149	1	10
331.320	1	1
331.492	1	0
331.663	1	-10
331.834	1	3
332.005	1	4
332.176	1	-9
332.347	1	6
332.518	1	4
332.689	1	-5
332.860	1	-5
333.031	1	4
333.202	1	-9
333.373	1	-2
333.544	1	1
333.715	1	-8
333.886	1	-8
334.057	1	-15
334.228	1	-8
334.399	1	6
334.570	1	3
334.741	1	-12
334.912	1	3
335.084	1	0
335.255	1	-4
335.426	1	-17
335.597	1	-9
335.768	1	2
335.939	1	-1
336.110	1	2
336.281	1	-10
336.452	1	0
336.623	1	1
336.794	1	-1
336.965	1	1
337.136	1	1
337.307	1	8
337.478	1	6
337.649	1	-1
337.820	1	9
337.991	1	4
338.162	1	5
338.333	1	2
338.504	1	4
338.675	1	-1
338.846	1	8
339.017	1	-7
339.188	1	4
339.359	1	0
339.530	1	-4
339.701	1	-3
339.872	1	3
340.043	1	-6
340.214	1	7
340.385	1	-2
340.556	1	12
340.727	1	-9
340.898	1	-2
341.069	1	2
341.240	1	-4
341.411	1	1
341.582	1	-6
341.753	1	-6
341.924	1	0
342.095	1	-2
342.266	1	-9
342.437	1	3
342.608	1	-7
342.779	1	-11
342.950	1	4
343.121	1	5
343.292	1	-2
343.463	1	-10
343.634	1	6
343.805	1	8
343.976	1	-5
344.147	1	0
344.318	1	13
344.489	1	-5
344.660	1	13
344.831	1	-5
345.002	1	2
345.173	1	-4
345.344	1	-8
345.515	1	-4
345.686	1	0
345.857	1	-1
346.028	1	-3
346.199	1	-2
346.370	1	-6
346.541	1	-5
346.712	1	-1
346.883	1	2
347.054	1	-1
347.225	1	2
347.396	1	8
347.567	1	5
347.738	1	2
347.909	1	-4
348.080	1	-5
348.251	1	6
348.422	1	2
348.593	1	-3
348.764	1	-9
348.935	1	5
349.106	1	1
349.277	1	-11
349.448	1	-4
349.619	1	-3
349.790	1	-3
349.961	1	0
350.132	1	-8
350.303	1	-8
350.474	1	-1
350.645	1	-5
350.816	1	-1
350.987	1	-3
351.157	1	4
351.328	1	0
351.499	1	-1
351.670	1	12
351.841	1	-1
352.012	1	-5
352.183	1	-1
352.354	1	4
352.525	1	0
352.696	1	-10
352.867	1	-5
353.038	1	14
353.209	1	-4
353.380	1	1
353.551	1	5
353.722	1	-2
353.893	1	-3
354.064	1	2
354.235	1	-5
354.406	1	-10
354.576	1	13
354.747	1	-7
354.918	1	-11
355.089	1	-5
355.260	1	-3
355.431	1	4
355.602	1	1
355.773	1	-1
355.944	1	2
356.115	1	-10
356.286	1	5
356.457	1	-4
356.628	1	2
356.799	1	-7
356.970	1	-2
357.141	1	2
357.311	1	0
357.482	1	-6
357.653	1	2
357.824	1	0
357.995	1	-5
358.166	1	-5
358.337	1	9
358.508	1	-12
358.679	1	8
358.850	1	-2
359.021	1	-4
359.192	1	5
359.363	1	4
359.533	1	2
359.704	1	1
359.875	1	-6
360.046	1	1
360.217	1	8
360.388	1	10
360.559	1	-6
360.730	1	1
360.901	1	10
361.072	1	-1
361.243	1	-4
361.414	1	3
361.584	1	6
361.755	1	10
361.926	1	17
362.097	1	-1
362.268	1	4
362.439	1	2
362.610	1	-4
362.781	1	3
362.952	1	7
363.123	1	7
363.293	1	-6
363.464	1	11
363.635	1	2
363.806	1	11
363.977	1	6
364.148	1	1
364.319	1	13
364.490	1	-11
364.661	1	10
364.832	1	-1
365.002	1	-2
365.173	1	8
365.344	1	4
365.515	1	4
365.686	1	7
365.857	1	17
366.028	1	8
366.199	1	-7
366.370	1	8
366.540	1	-2
366.711	1	11
366.882	1	0
367.053	1	6
367.224	1	4
367.395	1	10
367.566	1	10
367.737	1	-5
367.908	1	13
368.078	1	8
368.249	1	7
368.420	1	1
368.591	1	15
368.762	1	-3
368.933	1	16
369.104	1	7
369.274	1	5
369.445	1	0
369.616	1	-5
369.787	1	8
369.958	1	8
370.129	1	9
370.300	1	-2
370.471	1	4
370.641	1	0
370.812	1	9
370.983	1	13
371.154	1	-3
371.325	1	0
371.496	1	-14
371.667	1	1
371.837	1	-2
372.008	1	-1
372.179	1	5
372.350	1	3
372.521	1	-2
372.692	1	5
372.863	1	4
373.033	1	2
373.204	1	1
373.375	1	-3
373.546	1	4
373.717	1	6
373.888	1	-3
374.059	1	-2
374.229	1	-2
374.400	1	-1
374.571	1	5
374.742	1	7
374.913	1	1
375.084	1	-12
375.254	1	3
375.425	1	2
375.596	1	-7
375.767	1	6
375.938	1	13
376.109	1	2
376.279	1	-6
376.450	1	3
376.621	1	7
376.792	1	6
376.963	1	4
377.134	1	-4
377.304	1	6
377.475	1	1
377.646	1	6
377.817	1	7
377.988	1	5
378.159	1	4
378.329	1	3
378.500	1	-12
378.671	1	-2
378.842	1	-6
379.013	1	0
379.184	1	3
379.354	1	2
379.525	1	6
379.696	1	-2
379.867	1	13
380.038	1	1
380.209	1	7
380.379	1	5
380.550	1	6
380.721	1	5
380.892	1	1
381.063	1	-8
381.233	1	19
381.404	1	9
381.575	1	-3
381.746	1	6
381.917	1	1
382.087	1	7
382.258	1	10
382.429	1	1
382.600	1	7
382.771	1	12
382.941	1	16
383.112	1	10
383.283	1	5
383.454	1	1
383.625	1	1
383.795	1	8
383.966	1	2
384.137	1	1
384.308	1	12
384.479	1	12
384.649	1	20
384.820	1	-3
384.991	1	17
385.162	1	6
385.333	1	22
385.503	1	5
385.674	1	13
385.845	1	12
386.016	1	6
386.187	1	29
386.357	1	3
386.528	1	19
386.699	1	27
386.870	1	18
387.041	1	8
387.211	1	8
387.382	1	16
387.553	1	21
387.724	1	8
387.894	1	24
388.065	1	14
388.236	1	12
388.407	1	12
388.578	1	17
388.748	1	19
388.919	1	5
389.090	1	14
389.261	1	2
389.431	1	14
389.602	1	18
389.773	1	4
389.944	1	10
390.114	1	11
390.285	1	6
390.456	1	10
390.627	1	9
390.798	1	22
390.968	1	8
391.139	1	3
391.310	1	8
391.481	1	10
391.651	1	18
391.822	1	13
391.993	1	12
392.164	1	5
392.334	1	13
392.505	1	9
392.676	1	13
392.847	1	15
393.017	1	0
393.188	1	16
393.359	1	20
393.530	1	8
393.700	1	16
393.871	1	-1
394.042	1	10
394.213	1	10
394.383	1	12
394.554	1	9
394.725	1	12
394.896	1	6
395.066	1	13
395.237	1	14
395.408	1	11
395.579	1	17
395.749	1	16
395.920	1	17
396.091	1	6
396.262	1	9
396.432	1	0
396.603	1	16
396.774	1	10
396.945	1	16
397.115	1	31
397.286	1	22
397.457	1	21
397.627	1	12
397.798	1	11
397.969	1	7
398.140	1	9
398.310	1	7
398.481	1	2
398.652	1	18
398.823	1	29
398.993	1	11
399.164	1	20
399.335	1	12
399.505	1	16
399.676	1	12
399.847	1	9
400.018	1	7
400.188	1	15
400.359	1	8
400.530	1	22
400.700	1	12
400.871	1	1
401.042	1	-2
401.213	1	10
401.383	1	13
401.554	1	9
401.725	1	2
401.895	1	9
402.066	1	10
402.237	1	15
402.408	1	21
402.578	1	11
402.749	1	19
402.920	1	-1
403.090	1	7
403.261	1	2
403.432	1	8
403.603	1	4
403.773	1	13
403.944	1	16
404.115	1	-9
404.285	1	10
404.456	1	11
404.627	1	21
404.797	1	19
404.968	1	2
405.139	1	7
405.310	1	7
405.480	1	13
405.651	1	12
405.822	1	15
405.992	1	9
406.163	1	5
406.334	1	8
406.504	1	-2
406.675	1	21
406.846	1	8
407.016	1	1
407.187	1	3
407.358	1	1
407.528	1	8
407.699	1	11
407.870	1	10
408.041	1	18
408.211	1	2
408.382	1	7
408.553	1	13
408.723	1	8
408.894	1	7
409.065	1	11
409.235	1	8
409.406	1	7
409.577	1	21
409.747	1	-2
409.918	1	5
410.089	1	4
410.259	1	4
410.430	1	19
410.601	1	2
410.771	1	-1
410.942	1	4
411.113	1	7
411.283	1	1
411.454	1	-2
411.625	1	-5
411.795	1	18
411.966	1	-1
412.137	1	5
412.307	1	14
412.478	1	15
412.649	1	0
412.819	1	5
412.990	1	8
413.161	1	6
413.331	1	-7
413.502	1	7
413.672	1	-3
413.843	1	0
414.014	1	9
414.184	1	1
414.355	1	4
414.526	1	-3
414.696	1	2
414.867	1	6
415.038	1	4
415.208	1	-1
415.379	1	7
415.550	1	1
415.720	1	8
415.891	1	19
416.062	1	0
416.232	1	7
416.403	1	4
416.573	1	0
416.744	1	7
416.915	1	-3
417.085	1	3
417.256	1	5
417.427	1	11
417.597	1	-5
417.768	1	0
417.939	1	-1
418.109	1	11
418.280	1	0
418.450	1	6
418.621	1	-3
418.792	1	2
418.962	1	-2
419.133	1	0
419.304	1	2
419.474	1	2
419.645	1	15
419.815	1	7
419.986	1	6
420.157	1	9
420.327	1	5
420.498	1	8
420.669	1	13
420.839	1	0
421.010	1	14
421.180	1	-3
421.351	1	7
421.522	1	14
421.692	1	12
421.863	1	-2
422.033	1	-2
422.204	1	-7
422.375	1	0
422.545	1	4
422.716	1	1
422.886	1	12
423.057	1	-6
423.228	1	-6
423.398	1	12
423.569	1	2
423.740	1	-6
423.910	1	-12
424.081	1	5
424.251	1	0
424.422	1	1
424.593	1	11
424.763	1	5
424.934	1	9
425.104	1	6
425.275	1	0
425.445	1	-6
425.616	1	1
425.787	1	-14
425.957	1	13
426.128	1	-13
426.298	1	-4
426.469	1	6
426.640	1	5
426.810	1	10
426.981	1	-3
427.151	1	2
427.322	1	-3
427.493	1	8
427.663	1	0
427.834	1	-6
428.004	1	7
428.175	1	1
428.345	1	15
428.516	1	10
428.687	1	7
428.857	1	0
429.028	1	2
429.198	1	-11
429.369	1	0
429.540	1	6
429.710	1	3
429.881	1	11
430.051	1	4
430.222	1	0
430.392	1	5
430.563	1	20
430.734	1	-4
430.904	1	4
431.075	1	-2
431.245	1	5
431.416	1	-2
431.586	1	-4
431.757	1	1
431.927	1	15
432.098	1	-2
432.269	1	3
432.439	1	-8
432.610	1	-3
432.780	1	-1
432.951	1	-2
433.121	1	3
433.292	1	1
433.462	1	13
433.633	1	-5
433.804	1	1
433.974	1	-3
434.145	1	1
434.315	1	-1
434.486	1	16
434.656	1	-1
434.827	1	4
434.997	1	-1
435.168	1	2
435.339	1	10
435.509	1	-1
435.680	1	0
435.850	1	2
436.021	1	4
436.191	1	-6
436.362	1	6
436.532	1	2
436.703	1	14
436.873	1	5
437.044	1	11
437.214	1	-3
437.385	1	-1
437.556	1	0
437.726	1	2
437.897	1	8
438.067	1	-4
438.238	1	-7
438.408	1	-4
438.579	1	-1
438.749	1	8
438.920	1	-4
439.090	1	8
439.261	1	2
439.431	1	-10
439.602	1	5
439.772	1	6
439.943	1	3
440.113	1	5
440.284	1	1
440.455	1	-6
440.625	1	7
440.796	1	-5
440.966	1	7
441.137	1	-6
441.307	1	-5
441.478	1	8
441.648	1	2
441.819	1	7
441.989	1	-3
442.160	1	1
442.330	1	7
442.501	1	-8
442.671	1	5
442.842	1	4
443.012	1	6
443.183	1	1
443.353	1	8
443.524	1	3
443.694	1	7
443.865	1	2
444.035	1	-7
444.206	1	8
444.376	1	1
444.547	1	0
444.717	1	7
444.888	1	-6
445.058	1	4
445.229	1	3
445.399	1	2
445.570	1	5
445.740	1	10
445.911	1	11
446.081	1	1
446.252	1	-6
446.422	1	5
446.593	1	2
446.763	1	11
446.934	1	7
447.104	1	-10
447.275	1	-8
447.445	1	1
447.616	1	-6
447.786	1	-7
447.957	1	1
448.127	1	-2
448.298	1	3
448.468	1	5
448.639	1	-1
448.809	1	-4
448.979	1	-7
449.150	1	-2
449.320	1	4
449.491	1	-4
449.661	1	6
449.832	1	2
450.002	1	3
450.173	1	-3
450.343	1	1
450.514	1	0
450.684	1	-12
450.855	1	-1
451.025	1	4
451.196	1	0
451.366	1	5
451.537	1	-4
451.707	1	7
451.878	1	-4
452.048	1	-4
452.218	1	4
452.389	1	-2
452.559	1	1
452.730	1	4
452.900	1	2
453.071	1	8
453.241	1	-1
453.412	1	-10
453.582	1	10
453.753	1	3
453.923	1	0
454.093	1	-9
454.264	1	-9
454.434	1	4
454.605	1	-2
454.775	1	9
454.946	1	-3
455.116	1	6
455.287	1	8
455.457	1	-5
455.628	1	-3
455.798	1	-5
455.968	1	6
456.139	1	3
456.309	1	-4
456.480	1	-3
456.650	1	3
456.821	1	-2
456.991	1	10
457.161	1	-4
457.332	1	0
457.502	1	-3
457.673	1	-1
457.843	1	12
458.014	1	0
458.184	1	5
458.355	1	6
458.525	1	-2
458.695	1	7
458.866	1	-2
459.036	1	10
459.207	1	0
459.377	1	-6
459.548	1	-4
459.718	1	-2
459.888	1	-2
460.059	1	11
460.229	1	9
460.400	1	0
460.570	1	-6
460.740	1	2
460.911	1	3
461.081	1	-5
461.252	1	2
461.422	1	8
461.593	1	-3
461.763	1	-3
461.933	1	-2
462.104	1	5
462.274	1	5
462.445	1	-3
462.615	1	-7
462.785	1	-16
462.956	1	-16
463.126	1	-5
463.297	1	-2
463.467	1	-4
463.638	1	9
463.808	1	-1
463.978	1	3
464.149	1	-5
464.319	1	0
464.490	1	-3
464.660	1	12
464.830	1	4
465.001	1	1
465.171	1	-1
465.342	1	-6
465.512	1	0
465.682	1	-7
465.853	1	4
466.023	1	7
466.194	1	2
466.364	1	9
466.534	1	4
466.705	1	4
466.875	1	0
467.045	1	2
467.216	1	-3
467.386	1	0
467.557	1	4
467.727	1	-5
467.897	1	10
468.068	1	-4
468.238	1	0
468.409	1	8
468.579	1	-2
468.749	1	-6
468.920	1	3
469.090	1	4
469.260	1	6
469.431	1	3
469.601	1	-1
469.772	1	-13
469.942	1	6
470.112	1	0
470.283	1	11
470.453	1	6
470.623	1	-3
470.794	1	4
470.964	1	-4
471.135	1	-9
471.305	1	-1
471.475	1	-6
471.646	1	7
471.816	1	-6
471.986	1	7
472.157	1	6
472.327	1	-3
472.497	1	-3
472.668	1	0
472.838	1	12
473.009	1	2
473.179	1	5
473.349	1	-3
473.520	1	8
473.690	1	8
473.860	1	2
474.031	1	-7
474.201	1	0
474.371	1	3
474.542	1	-2
474.712	1	5
474.882	1	-5
475.053	1	-4
475.223	1	0
475.394	1	6
475.564	1	11
475.734	1	6
475.905	1	-1
476.075	1	4
476.245	1	-3
476.416	1	-1
476.586	1	-3
476.756	1	0
476.927	1	7
477.097	1	7
477.267	1	-3
477.438	1	-4
477.608	1	7
477.778	1	12
477.949	1	1
478.119	1	-2
478.289	1	-7
478.460	1	0
478.630	1	-14
478.800	1	1
478.971	1	6
479.141	1	2
479.311	1	4
479.482	1	-9
479.652	1	12
479.822	1	-2
479.993	1	4
480.163	1	-8
480.333	1	-8
480.504	1	-4
480.674	1	11
480.844	1	-4
481.015	1	1
481.185	1	9
481.355	1	-4
481.525	1	-5
481.696	1	-4
481.866	1	-3
482.036	1	-7
482.207	1	2
482.377	1	-1
482.547	1	8
482.718	1	9
482.888	1	-2
483.058	1	-7
483.229	1	-2
483.399	1	-4
483.569	1	-1
483.740	1	-18
483.910	1	2
484.080	1	-10
484.250	1	1
484.421	1	-4
484.591	1	14
484.761	1	-4
484.932	1	2
485.102	1	-8
485.272	1	5
485.443	1	5
485.613	1	-6
485.783	1	7
485.953	1	-1
486.124	1	10
486.294	1	3
486.464	1	1
486.635	1	12
486.805	1	8
486.975	1	-15
487.146	1	-2
487.316	1	-1
487.486	1	1
487.656	1	-5
487.827	1	9
487.997	1	8
488.167	1	1
488.338	1	16
488.508	1	-1
488.678	1	5
488.848	1	-1
489.019	1	-6
489.189	1	-1
489.359	1	4
489.529	1	0
489.700	1	1
489.870	1	-6
490.040	1	4
490.211	1	12
490.381	1	4
490.551	1	-1
490.721	1	2
490.892	1	1
491.062	1	9
491.232	1	0
491.402	1	-3
491.573	1	1
491.743	1	-9
491.913	1	3
492.084	1	3
492.254	1	3
492.424	1	-1
492.594	1	-4
492.765	1	5
492.935	1	-4
493.105	1	5
493.275	1	6
493.446	1	6
493.616	1	-5
493.786	1	8
493.956	1	-11
494.127	1	1
494.297	1	5
494.467	1	2
494.637	1	5
494.808	1	5
494.978	1	4
495.148	1	7
495.318	1	14
495.489	1	-1
495.659	1	0
495.829	1	2
495.999	1	1
496.170	1	6
496.340	1	2
496.510	1	8
496.680	1	3
496.851	1	4
497.021	1	-2
497.191	1	3
497.361	1	-1
497.532	1	6
497.702	1	0
497.872	1	0
498.042	1	8
498.213	1	5
498.383	1	3
498.553	1	7
498.723	1	10
498.894	1	5
499.064	1	6
499.234	1	-9
499.404	1	3
499.574	1	0
499.745	1	3
499.915	1	7
500.085	1	1
500.255	1	6
500.426	1	-2
500.596	1	-3
500.766	1	4
500.936	1	-9
501.106	1	2
501.277	1	6
501.447	1	-6
501.617	1	6
501.787	1	-10
501.958	1	-7
502.128	1	-3
502.298	1	3
502.468	1	13
502.638	1	7
502.809	1	9
502.979	1	0
503.149	1	0
503.319	1	12
503.489	1	5
503.660	1	0
503.830	1	2
504.000	1	-8
504.170	1	2
504.340	1	0
504.511	1	4
504.681	1	-3
504.851	1	-2
505.021	1	8
505.192	1	9
505.362	1	-6
505.532	1	-1
505.702	1	2
505.872	1	-11
506.043	1	1
506.213	1	4
506.383	1	8
506.553	1	9
506.723	1	14
506.893	1	6
507.064	1	0
507.234	1	0
507.404	1	5
507.574	1	-2
507.744	1	-3
507.915	1	0
508.085	1	8
508.255	1	9
508.425	1	12
508.595	1	9
508.766	1	0
508.936	1	5
509.106	1	-5
509.276	1	6
509.446	1	-2
509.616	1	13
509.787	1	-1
509.957	1	-2
510.127	1	8
510.297	1	-3
510.467	1	-1
510.638	1	-7
510.808	1	-1
510.978	1	-8
511.148	1	16
511.318	1	3
511.488	1	3
511.659	1	7
511.829	1	-2
511.999	1	12
512.169	1	5
512.339	1	1
512.509	1	6
512.680	1	5
512.850	1	3
513.020	1	2
513.190	1	-1
513.360	1	2
513.530	1	3
513.700	1	5
513.871	1	13
514.041	1	-1
514.211	1	0
514.381	1	14
514.551	1	8
514.721	1	10
514.892	1	2
515.062	1	4
515.232	1	-2
515.402	1	3
515.572	1	1
515.742	1	8
515.912	1	12
516.083	1	-7
516.253	1	1
516.423	1	8
516.593	1	4
516.763	1	2
516.933	1	9
517.104	1	9
517.274	1	9
517.444	1	8
517.614	1	-3
517.784	1	-9
517.954	1	0
518.124	1	16
518.294	1	10
518.465	1	7
518.635	1	10
518.805	1	4
518.975	1	6
519.145	1	13
519.315	1	0
519.485	1	0
519.656	1	9
519.826	1	6
519.996	1	13
520.166	1	11
520.336	1	1
520.506	1	1
520.676	1	1
520.846	1	6
521.017	1	5
521.187	1	0
521.357	1	-12
521.527	1	1
521.697	1	5
521.867	1	10
522.037	1	4
522.207	1	0
522.377	1	14
522.548	1	-5
522.718	1	-4
522.888	1	5
523.058	1	22
523.228	1	8
523.398	1	8
523.568	1	-6
523.738	1	10
523.909	1	7
524.079	1	8
524.249	1	6
524.419	1	13
524.589	1	22
524.759	1	3
524.929	1	14
525.099	1	5
525.269	1	11
525.439	1	5
525.610	1	2
525.780	1	10
525.950	1	-8
526.120	1	-9
526.290	1	0
526.460	1	13
526.630	1	6
526.800	1	4
526.970	1	-1
527.140	1	-6
527.311	1	7
527.481	1	17
527.651	1	13
527.821	1	2
527.991	1	10
528.161	1	9
528.331	1	-2
528.501	1	5
528.671	1	3
528.841	1	12
529.011	1	-2
529.181	1	4
529.352	1	10
529.522	1	4
529.692	1	14
529.862	1	8
530.032	1	-12
530.202	1	10
530.372	1	0
530.542	1	6
530.712	1	13
530.882	1	5
531.052	1	11
531.222	1	-1
531.392	1	6
531.563	1	6
531.733	1	3
531.903	1	8
532.073	1	-3
532.243	1	7
532.413	1	8
532.583	1	4
532.753	1	5
532.923	1	9
533.093	1	8
533.263	1	12
533.433	1	5
533.603	1	3
533.773	1	-2
533.943	1	10
534.113	1	7
534.284	1	10
534.454	1	3
534.624	1	11
534.794	1	6
534.964	1	4
535.134	1	-1
535.304	1	11
535.474	1	8
535.644	1	2
535.814	1	11
535.984	1	0
536.154	1	4
536.324	1	6
536.494	1	15
536.664	1	10
536.834	1	5
537.004	1	10
537.174	1	7
537.344	1	5
537.514	1	11
537.685	1	5
537.855	1	9
538.025	1	2
538.195	1	12
538.365	1	10
538.535	1	7
538.705	1	-2
538.875	1	13
539.045	1	8
539.215	1	-12
539.385	1	-2
539.555	1	7
539.725	1	13
539.895	1	13
540.065	1	12
540.235	1	-6
540.405	1	6
540.575	1	5
540.745	1	11
540.915	1	5
541.085	1	-3
541.255	1	-9
541.425	1	9
541.595	1	-1
541.765	1	5
541.935	1	12
542.105	1	11
542.275	1	2
542.445	1	14
542.615	1	4
542.785	1	1
542.955	1	-1
543.125	1	-2
543.295	1	7
543.465	1	20
543.635	1	0
543.805	1	14
543.975	1	3
544.145	1	9
544.315	1	0
544.485	1	0
544.655	1	6
544.825	1	14
544.995	1	4
545.165	1	5
545.335	1	2
545.505	1	3
545.675	1	12
545.845	1	8
546.015	1	7
546.185	1	-1
546.355	1	4
546.525	1	5
546.695	1	-4
546.865	1	15
547.035	1	5
547.205	1	1
547.375	1	6
547.545	1	5
547.715	1	-1
547.885	1	4
548.055	1	3
548.225	1	-6
548.395	1	11
548.565	1	10
548.735	1	15
548.905	1	1
549.075	1	1
549.245	1	7
549.415	1	1
549.585	1	0
549.755	1	2
549.925	1	3
550.095	1	7
550.265	1	0
550.435	1	9
550.605	1	9
550.775	1	9
550.945	1	12
551.115	1	-9
551.285	1	-2
551.455	1	5
551.625	1	4
551.795	1	16
551.965	1	12
552.135	1	7
552.305	1	8
552.475	1	-4
552.645	1	14
552.815	1	8
552.985	1	8
553.155	1	9
553.325	1	8
553.495	1	1
553.665	1	-1
553.835	1	10
554.004	1	0
554.174	1	4
554.344	1	-7
554.514	1	10
554.684	1	5
554.854	1	7
555.024	1	3
555.194	1	4
555.364	1	5
555.534	1	-7
555.704	1	14
555.874	1	2
556.044	1	7
556.214	1	0
556.384	1	5
556.554	1	-2
556.724	1	-2
556.894	1	5
557.064	1	4
557.234	1	3
557.404	1	1
557.573	1	6
557.743	1	0
557.913	1	2
558.083	1	1
558.253	1	0
558.423	1	-5
558.593	1	-3
558.763	1	2
558.933	1	13
559.103	1	7
559.273	1	13
559.443	1	1
559.613	1	2
559.783	1	9
559.953	1	-4
560.122	1	-13
560.292	1	3
560.462	1	2
560.632	1	4
560.802	1	7
560.972	1	15
561.142	1	8
561.312	1	12
561.482	1	13
561.652	1	9
561.822	1	-4
561.992	1	7
562.162	1	3
562.331	1	5
562.501	1	0
562.671	1	6
562.841	1	5
563.011	1	5
563.181	1	8
563.351	1	0
563.521	1	6
563.691	1	-5
563.861	1	13
564.031	1	7
564.201	1	5
564.370	1	8
564.540	1	21
564.710	1	-2
564.880	1	-1
565.050	1	11
565.220	1	10
565.390	1	-3
565.560	1	7
565.730	1	0
565.900	1	-3
566.069	1	6
566.239	1	6
566.409	1	1
566.579	1	9
566.749	1	12
566.919	1	12
567.089	1	3
567.259	1	18
567.429	1	2
567.599	1	-6
567.768	1	3
567.938	1	6
568.108	1	9
568.278	1	-5
568.448	1	-4
568.618	1	0
568.788	1	5
568.958	1	-3
569.128	1	4
569.297	1	1
569.467	1	0
569.637	1	4
569.807	1	2
569.977	1	5
570.147	1	6
570.317	1	19
570.487	1	4
570.656	1	-4
570.826	1	8
570.996	1	-4
571.166	1	0
571.336	1	1
571.506	1	8
571.676	1	10
571.846	1	7
572.015	1	-2
572.185	1	-5
572.355	1	6
572.525	1	0
572.695	1	8
572.865	1	2
573.035	1	2
573.205	1	3
573.374	1	-5
573.544	1	1
573.714	1	9
573.884	1	-2
574.054	1	1
574.224	1	0
574.394	1	-2
574.563	1	0
574.733	1	1
574.903	1	0
575.073	1	6
575.243	1	-12
575.413	1	5
575.583	1	8
575.752	1	4
575.922	1	2
576.092	1	9
576.262	1	8
576.432	1	-7
576.602	1	0
576.772	1	7
576.941	1	3
577.111	1	3
577.281	1	0
577.451	1	-4
577.621	1	5
577.791	1	4
577.960	1	0
578.130	1	-8
578.300	1	-4
578.470	1	2
578.640	1	1
578.810	1	-1
578.979	1	11
579.149	1	2
579.319	1	-2
579.489	1	-1
579.659	1	3
579.829	1	1
579.998	1	0
580.168	1	5
580.338	1	-11
580.508	1	4
580.678	1	5
580.848	1	9
581.017	1	2
581.187	1	-6
581.357	1	3
581.527	1	8
581.697	1	-6
581.867	1	-1
582.036	1	7
582.206	1	-2
582.376	1	9
582.546	1	2
582.716	1	15
582.885	1	8
583.055	1	0
583.225	1	-1
583.395	1	-1
583.565	1	15
583.735	1	7
583.904	1	10
584.074	1	-4
584.244	1	-6
584.414	1	-4
584.584	1	18
584.753	1	2
584.923	1	1
585.093	1	-3
585.263	1	-10
585.433	1	-3
585.602	1	-3
585.772	1	-2
585.942	1	17
586.112	1	9
586.282	1	3
586.451	1	7
586.621	1	-1
586.791	1	0
586.961	1	4
587.131	1	-5
587.300	1	2
587.470	1	3
587.640	1	-6
587.810	1	4
587.980	1	2
588.149	1	-9
588.319	1	4
588.489	1	-1
588.659	1	-9
588.829	1	6
588.998	1	-8
589.168	1	11
589.338	1	-3
589.508	1	0
589.677	1	5
589.847	1	-2
590.017	1	-2
590.187	1	-4
590.357	1	4
590.526	1	-7
590.696	1	8
590.866	1	2
591.036	1	8
591.205	1	6
591.375	1	-10
591.545	1	-11
591.715	1	-2
591.885	1	11
592.054	1	-1
592.224	1	12
592.394	1	1
592.564	1	-5
592.733	1	-3
592.903	1	8
593.073	1	4
593.243	1	3
593.412	1	-4
593.582	1	2
593.752	1	2
593.922	1	-5
594.091	1	3
594.261	1	4
594.431	1	-1
594.601	1	0
594.771	1	4
594.940	1	-12
595.110	1	-3
595.280	1	8
595.450	1	1
595.619	1	3
595.789	1	4
595.959	1	4
596.129	1	-2
596.298	1	6
596.468	1	7
596.638	1	-1
596.808	1	2
596.977	1	-2
597.147	1	8
597.317	1	5
597.487	1	5
597.656	1	-6
597.826	1	0
597.996	1	5
598.166	1	-6
598.335	1	6
598.505	1	0
598.675	1	5
598.844	1	8
599.014	1	4
599.184	1	5
599.354	1	-5
599.523	1	-1
599.693	1	10
599.863	1	-2
600.033	1	-4
600.202	1	2
600.372	1	4
600.542	1	5
600.712	1	5
600.881	1	4
601.051	1	7
601.221	1	-5
601.390	1	-9
601.560	1	9
601.730	1	0
601.900	1	-4
602.069	1	-4
602.239	1	-1
602.409	1	-8
602.578	1	6
602.748	1	-12
602.918	1	-15
603.088	1	3
603.257	1	1
603.427	1	2
603.597	1	3
603.767	1	-7
603.936	1	4
604.106	1	-1
604.276	1	2
604.445	1	7
604.615	1	7
604.785	1	4
604.954	1	7
605.124	1	-8
605.294	1	2
605.464	1	-1
605.633	1	6
605.803	1	3
605.973	1	-3
606.142	1	-6
606.312	1	-3
606.482	1	-6
606.652	1	-9
606.821	1	7
606.991	1	2
607.161	1	2
607.330	1	14
607.500	1	-6
607.670	1	2
607.839	1	0
608.009	1	-6
608.179	1	4
608.348	1	4
608.518	1	-1
608.688	1	11
608.858	1	1
609.027	1	6
609.197	1	-12
609.367	1	2
609.536	1	-4
609.706	1	2
609.876	1	-3
610.045	1	1
610.215	1	4
610.385	1	-1
610.554	1	-4
610.724	1	2
610.894	1	8
611.063	1	7
611.233	1	-6
611.403	1	3
611.572	1	4
611.742	1	-5
611.912	1	4
612.081	1	-8
612.251	1	8
612.421	1	15
612.590	1	-5
612.760	1	-3
612.930	1	-2
613.099	1	-11
613.269	1	2
613.439	1	-1
613.608	1	-2
613.778	1	2
613.948	1	6
614.117	1	8
614.287	1	-2
614.457	1	1
614.626	1	10
614.796	1	3
614.966	1	0
615.135	1	-10
615.305	1	0
615.475	1	0
615.644	1	-4
615.814	1	6
615.984	1	3
616.153	1	6
616.323	1	5
616.493	1	-4
616.662	1	-2
616.832	1	2
617.002	1	-3
617.171	1	-1
617.341	1	1
617.511	1	1
617.680	1	2
617.850	1	9
618.019	1	4
618.189	1	-6
618.359	1	-1
618.528	1	-18
618.698	1	-2
618.868	1	4
619.037	1	9
619.207	1	-7
619.377	1	-8
619.546	1	3
619.716	1	-14
619.885	1	6
620.055	1	6
620.225	1	-1
620.394	1	-7
620.564	1	-11
620.734	1	1
620.903	1	6
621.073	1	-9
621.242	1	-7
621.412	1	8
621.582	1	0
621.751	1	-2
621.921	1	3
622.091	1	-7
622.260	1	-10
622.430	1	0
622.599	1	19
622.769	1	1
622.939	1	-3
623.108	1	-1
623.278	1	1
623.448	1	-1
623.617	1	13
623.787	1	0
623.956	1	5
624.126	1	0
624.296	1	-1
624.465	1	12
624.635	1	5
624.804	1	-4
624.974	1	-1
625.144	1	4
625.313	1	2
625.483	1	3
625.652	1	-3
625.822	1	7
625.992	1	-4
626.161	1	7
626.331	1	0
626.501	1	-1
626.670	1	2
626.840	1	8
627.009	1	-6
627.179	1	-2
627.348	1	0
627.518	1	-1
627.688	1	0
627.857	1	8
628.027	1	7
628.196	1	1
628.366	1	8
628.536	1	-3
628.705	1	2
628.875	1	1
629.044	1	3
629.214	1	5
629.384	1	-3
629.553	1	3
629.723	1	4
629.892	1	6
630.062	1	-4
630.232	1	9
630.401	1	1
630.571	1	1
630.740	1	7
630.910	1	-5
631.079	1	7
631.249	1	-9
631.419	1	-1
631.588	1	3
631.758	1	5
631.927	1	-4
632.097	1	3
632.266	1	-6
632.436	1	-11
632.606	1	7
632.775	1	2
632.945	1	-5
633.114	1	2
633.284	1	1
633.453	1	-7
633.623	1	0
633.793	1	-8
633.962	1	3
634.132	1	-3
634.301	1	-10
634.471	1	-11
634.640	1	3
634.810	1	0
634.979	1	10
635.149	1	-4
635.319	1	4
635.488	1	2
635.658	1	-12
635.827	1	0
635.997	1	6
636.166	1	2
636.336	1	12
636.505	1	-3
636.675	1	3
636.845	1	0
637.014	1	-3
637.184	1	3
637.353	1	6
637.523	1	-6
637.692	1	-2
637.862	1	-11
638.031	1	11
638.201	1	7
638.370	1	7
638.540	1	3
638.710	1	-3
638.879	1	2
639.049	1	4
639.218	1	-2
639.388	1	-4
639.557	1	3
639.727	1	-5
639.896	1	-4
640.066	1	3
640.235	1	7
640.405	1	2
640.574	1	6
640.744	1	-1
640.914	1	3
641.083	1	-3
641.253	1	-7
641.422	1	-5
641.592	1	-15
641.761	1	1
641.931	1	7
642.100	1	-7
642.270	1	-2
642.439	1	-2
642.609	1	9
642.778	1	-5
642.948	1	3
643.117	1	-3
643.287	1	6
643.456	1	2
643.626	1	16
643.795	1	3
643.965	1	-1
644.134	1	-5
644.304	1	3
644.473	1	5
644.643	1	-1
644.812	1	10
644.982	1	10
645.151	1	-4
645.321	1	8
645.490	1	6
645.660	1	-6
645.829	1	-10
645.999	1	-1
646.168	1	-3
646.338	1	5
646.507	1	2
646.677	1	6
646.846	1	17
647.016	1	-3
647.185	1	4
647.355	1	-5
647.524	1	5
647.694	1	-10
647.863	1	-8
648.033	1	-9
648.202	1	5
648.372	1	5
648.541	1	0
648.711	1	4
648.880	1	-7
649.050	1	-7
649.219	1	4
649.389	1	4
649.558	1	-2
649.728	1	-3
649.897	1	2
650.067	1	-6
650.236	1	6
650.406	1	3
650.575	1	-4
650.745	1	-3
650.914	1	-5
651.084	1	-10
651.253	1	-6
651.423	1	5
651.592	1	1
651.762	1	5
651.931	1	-5
652.101	1	-4
652.270	1	3
652.440	1	2
652.609	1	3
652.778	1	-5
652.948	1	4
653.117	1	8
653.287	1	13
653.456	1	-4
653.626	1	1
653.795	1	-4
653.965	1	13
654.134	1	-4
654.304	1	-3
654.473	1	7
654.643	1	13
654.812	1	0
654.982	1	-11
655.151	1	-7
655.320	1	-6
655.490	1	7
655.659	1	3
655.829	1	-5
655.998	1	6
656.168	1	-4
656.337	1	-6
656.507	1	15
656.676	1	1
656.846	1	-11
657.015	1	-3
657.184	1	-3
657.354	1	6
657.523	1	6
657.693	1	1
657.862	1	-1
658.032	1	10
658.201	1	2
658.371	1	-8
658.540	1	-2
658.709	1	-13
658.879	1	1
659.048	1	1
659.218	1	-1
659.387	1	-5
659.557	1	12
659.726	1	4
659.895	1	-6
660.065	1	0
660.234	1	-1
660.404	1	-5
660.573	1	-7
660.743	1	1
660.912	1	-6
661.081	1	1
661.251	1	6
661.420	1	-2
661.590	1	6
661.759	1	6
661.929	1	4
662.098	1	-10
662.267	1	7
662.437	1	4
662.606	1	-2
662.776	1	3
662.945	1	4
663.115	1	-11
663.284	1	5
663.453	1	-2
663.623	1	-4
663.792	1	3
663.962	1	-7
664.131	1	-6
664.300	1	5
664.470	1	-3
664.639	1	-9
664.809	1	8
664.978	1	11
665.148	1	1
665.317	1	-5
665.486	1	-7
665.656	1	-3
665.825	1	7
665.995	1	-1
666.164	1	5
666.333	1	8
666.503	1	-8
666.672	1	-9
666.842	1	-2
667.011	1	12
667.180	1	5
667.350	1	5
667.519	1	7
667.689	1	-1
667.858	1	10
668.027	1	-6
668.197	1	-1
668.366	1	2
668.536	1	-10
668.705	1	-5
668.874	1	-10
669.044	1	-7
669.213	1	3
669.382	1	-7
669.552	1	13
669.721	1	-10
669.891	1	5
670.060	1	-4
670.229	1	5
670.399	1	11
670.568	1	-1
670.738	1	-5
670.907	1	-13
671.076	1	13
671.246	1	0
671.415	1	-5
671.584	1	8
671.754	1	-6
671.923	1	-11
672.093	1	1
672.262	1	4
672.431	1	-11
672.601	1	0
672.770	1	1
672.939	1	3
673.109	1	-5
673.278	1	0
673.448	1	-5
673.617	1	4
673.786	1	-6
