325.333	1	-4
325.504	1	3
325.675	1	5
325.846	1	-1
326.017	1	1
326.188	1	1
326.359	1	8
326.531	1	2
326.702	1	3
326.873	1	3
327.044	1	-1
327.215	1	-4
327.386	1	5
327.557	1	2
327.728	1	7
327.899	1	-9
328.070	1	6
328.241	1	-2
328.412	1	9
328.583	1	-7
328.754	1	-6
328.926	1	9
329.097	1	4
329.268	1	6
329.439	1	2
329.610	1	-8
329.781	1	-1
329.952	1	8
330.123	1	-1
330.294	1	12
330.465	1	-1
330.636	1	10
330.807	1	2
330.978	1	3
331.149	1	7
331.320	1	0
331.492	1	-2
331.663	1	-9
331.834	1	7
332.005	1	8
332.176	1	4
332.347	1	13
332.518	1	7
332.689	1	5
332.860	1	3
333.031	1	-7
333.202	1	-6
333.373	1	3
333.544	1	-6
333.715	1	0
333.886	1	-4
334.057	1	-11
334.228	1	3
334.399	1	5
334.570	1	0
334.741	1	-6
334.912	1	0
335.084	1	-8
335.255	1	0
335.426	1	1
335.597	1	-2
335.768	1	5
335.939	1	6
336.110	1	-5
336.281	1	-9
336.452	1	-9
336.623	1	0
336.794	1	-1
336.965	1	-7
337.136	1	-6
337.307	1	6
337.478	1	10
337.649	1	-1
337.820	1	12
337.991	1	7
338.162	1	1
338.333	1	-2
338.504	1	-6
338.675	1	1
338.846	1	5
339.017	1	-6
339.188	1	2
339.359	1	8
339.530	1	10
339.701	1	-2
339.872	1	1
340.043	1	4
340.214	1	-2
340.385	1	-11
340.556	1	-1
340.727	1	-1
340.898	1	-7
341.069	1	12
341.240	1	-3
341.411	1	3
341.582	1	-7
341.753	1	12
341.924	1	-6
342.095	1	4
342.266	1	-3
342.437	1	1
342.608	1	-5
342.779	1	-1
342.950	1	1
343.121	1	2
343.292	1	2
343.463	1	-3
343.634	1	-9
343.805	1	5
343.976	1	6
344.147	1	-5
344.318	1	3
344.489	1	-11
344.660	1	11
344.831	1	-1
345.002	1	8
345.173	1	3
345.344	1	-4
345.515	1	-7
345.686	1	1
345.857	1	-2
346.028	1	-2
346.199	1	-11
346.370	1	5
346.541	1	-5
346.712	1	2
346.883	1	-2
347.054	1	4
347.225	1	2
347.396	1	-2
347.567	1	6
347.738	1	8
347.909	1	5
348.080	1	-4
348.251	1	5
348.422	1	3
348.593	1	-7
348.764	1	1
348.935	1	6
349.106	1	3
349.277	1	-10
349.448	1	3
349.619	1	3
349.790	1	3
349.961	1	3
350.132	1	-6
350.303	1	-6
350.474	1	0
350.645	1	-2
350.816	1	-5
350.987	1	-18
351.157	1	10
351.328	1	9
351.499	1	7
351.670	1	9
351.841	1	-3
352.012	1	-6
352.183	1	-6
352.354	1	-8
352.525	1	-7
352.696	1	1
352.867	1	-3
353.038	1	12
353.209	1	-6
353.380	1	8
353.551	1	7
353.722	1	1
353.893	1	1
354.064	1	4
354.235	1	7
354.406	1	-8
354.576	1	9
354.747	1	-4
354.918	1	-4
355.089	1	-1
355.260	1	6
355.431	1	5
355.602	1	10
355.773	1	-2
355.944	1	-1
356.115	1	-2
356.286	1	0
356.457	1	-1
356.628	1	-1
356.799	1	7
356.970	1	-2
357.141	1	7
357.311	1	4
357.482	1	2
357.653	1	4
357.824	1	6
357.995	1	0
358.166	1	-4
358.337	1	-1
358.508	1	7
358.679	1	11
358.850	1	7
359.021	1	-9
359.192	1	8
359.363	1	6
359.533	1	4
359.704	1	5
359.875	1	3
360.046	1	0
360.217	1	7
360.388	1	1
360.559	1	9
360.730	1	6
360.901	1	8
361.072	1	-4
361.243	1	-4
361.414	1	10
361.584	1	5
361.755	1	8
361.926	1	12
362.097	1	6
362.268	1	7
362.439	1	-2
362.610	1	-1
362.781	1	-4
362.952	1	11
363.123	1	8
363.293	1	4
363.464	1	13
363.635	1	10
363.806	1	8
363.977	1	6
364.148	1	6
364.319	1	-1
364.490	1	4
364.661	1	8
364.832	1	8
365.002	1	16
365.173	1	12
365.344	1	-5
365.515	1	14
365.686	1	9
365.857	1	13
366.028	1	11
366.199	1	8
366.370	1	11
366.540	1	16
366.711	1	21
366.882	1	8
367.053	1	18
367.224	1	20
367.395	1	10
367.566	1	17
367.737	1	-3
367.908	1	6
368.078	1	10
368.249	1	10
368.420	1	14
368.591	1	17
368.762	1	7
368.933	1	12
369.104	1	5
369.274	1	3
369.445	1	4
369.616	1	1
369.787	1	8
369.958	1	-4
370.129	1	11
370.300	1	0
370.471	1	6
370.641	1	2
370.812	1	8
370.983	1	8
371.154	1	2
371.325	1	0
371.496	1	-9
371.667	1	-1
371.837	1	6
372.008	1	-3
372.179	1	7
372.350	1	0
372.521	1	-1
372.692	1	1
372.863	1	6
373.033	1	7
373.204	1	-3
373.375	1	7
373.546	1	3
373.717	1	-7
373.888	1	-3
374.059	1	13
374.229	1	-6
374.400	1	2
374.571	1	2
374.742	1	18
374.913	1	-3
375.084	1	-10
375.254	1	2
375.425	1	1
375.596	1	-10
375.767	1	3
375.938	1	-6
376.109	1	-6
376.279	1	-5
376.450	1	1
376.621	1	13
376.792	1	-4
376.963	1	6
377.134	1	2
377.304	1	11
377.475	1	2
377.646	1	8
377.817	1	7
377.988	1	1
378.159	1	9
378.329	1	8
378.500	1	-7
378.671	1	-1
378.842	1	-5
379.013	1	0
379.184	1	0
379.354	1	2
379.525	1	7
379.696	1	3
379.867	1	3
380.038	1	5
380.209	1	12
380.379	1	-1
380.550	1	-2
380.721	1	5
380.892	1	9
381.063	1	6
381.233	1	12
381.404	1	6
381.575	1	-2
381.746	1	9
381.917	1	1
382.087	1	6
382.258	1	17
382.429	1	21
382.600	1	20
382.771	1	4
382.941	1	1
383.112	1	22
383.283	1	-3
383.454	1	6
383.625	1	13
383.795	1	12
383.966	1	8
384.137	1	12
384.308	1	15
384.479	1	17
384.649	1	9
384.820	1	-2
384.991	1	19
385.162	1	13
385.333	1	19
385.503	1	13
385.674	1	18
385.845	1	19
386.016	1	24
386.187	1	18
386.357	1	14
386.528	1	17
386.699	1	25
386.870	1	27
387.041	1	13
387.211	1	18
387.382	1	20
387.553	1	16
387.724	1	8
387.894	1	34
388.065	1	24
388.236	1	20
388.407	1	22
388.578	1	19
388.748	1	25
388.919	1	6
389.090	1	27
389.261	1	8
389.431	1	30
389.602	1	25
389.773	1	11
389.944	1	7
390.114	1	12
390.285	1	8
390.456	1	16
390.627	1	10
390.798	1	21
390.968	1	12
391.139	1	8
391.310	1	12
391.481	1	18
391.651	1	13
391.822	1	20
391.993	1	22
392.164	1	15
392.334	1	21
392.505	1	13
392.676	1	10
392.847	1	15
393.017	1	9
393.188	1	17
393.359	1	23
393.530	1	15
393.700	1	15
393.871	1	2
394.042	1	11
394.213	1	10
394.383	1	18
394.554	1	26
394.725	1	15
394.896	1	6
395.066	1	22
395.237	1	13
395.408	1	27
395.579	1	15
395.749	1	22
395.920	1	22
396.091	1	13
396.262	1	16
396.432	1	10
396.603	1	17
396.774	1	2
396.945	1	18
397.115	1	22
397.286	1	31
397.457	1	18
397.627	1	21
397.798	1	10
397.969	1	6
398.140	1	19
398.310	1	27
398.481	1	9
398.652	1	14
398.823	1	20
398.993	1	9
399.164	1	28
399.335	1	4
399.505	1	23
399.676	1	18
399.847	1	16
400.018	1	21
400.188	1	29
400.359	1	14
400.530	1	16
400.700	1	7
400.871	1	5
401.042	1	13
401.213	1	8
401.383	1	15
401.554	1	15
401.725	1	-1
401.895	1	12
402.066	1	18
402.237	1	18
402.408	1	1
402.578	1	12
402.749	1	0
402.920	1	10
403.090	1	8
403.261	1	11
403.432	1	18
403.603	1	18
403.773	1	16
403.944	1	11
404.115	1	-1
404.285	1	5
404.456	1	10
404.627	1	10
404.797	1	35
404.968	1	5
405.139	1	11
405.310	1	13
405.480	1	11
405.651	1	11
405.822	1	15
405.992	1	3
406.163	1	19
406.334	1	17
406.504	1	14
406.675	1	26
406.846	1	12
407.016	1	7
407.187	1	14
407.358	1	6
407.528	1	11
407.699	1	14
407.870	1	9
408.041	1	10
408.211	1	15
408.382	1	14
408.553	1	26
408.723	1	7
408.894	1	4
409.065	1	25
409.235	1	2
409.406	1	10
409.577	1	13
409.747	1	-1
409.918	1	10
410.089	1	6
410.259	1	2
410.430	1	15
410.601	1	-3
410.771	1	15
410.942	1	17
411.113	1	10
411.283	1	7
411.454	1	4
411.625	1	-4
411.795	1	9
411.966	1	-1
412.137	1	6
412.307	1	4
412.478	1	16
412.649	1	7
412.819	1	13
412.990	1	9
413.161	1	12
413.331	1	-4
413.502	1	18
413.672	1	4
413.843	1	8
414.014	1	3
414.184	1	6
414.355	1	0
414.526	1	5
414.696	1	9
414.867	1	10
415.038	1	3
415.208	1	1
415.379	1	9
415.550	1	6
415.720	1	3
415.891	1	9
416.062	1	8
416.232	1	0
416.403	1	10
416.573	1	6
416.744	1	19
416.915	1	3
417.085	1	-2
417.256	1	-2
417.427	1	3
417.597	1	-3
417.768	1	6
417.939	1	2
418.109	1	14
418.280	1	8
418.450	1	6
418.621	1	7
418.792	1	6
418.962	1	0
419.133	1	3
419.304	1	8
419.474	1	-2
419.645	1	15
419.815	1	1
419.986	1	10
420.157	1	17
420.327	1	10
420.498	1	9
420.669	1	13
420.839	1	1
421.010	1	2
421.180	1	0
421.351	1	7
421.522	1	8
421.692	1	9
421.863	1	3
422.033	1	4
422.204	1	-15
422.375	1	-4
422.545	1	14
422.716	1	-2
422.886	1	8
423.057	1	2
423.228	1	-2
423.398	1	12
423.569	1	10
423.740	1	-6
423.910	1	-9
424.081	1	6
424.251	1	0
424.422	1	15
424.593	1	3
424.763	1	4
424.934	1	8
425.104	1	14
425.275	1	-2
425.445	1	3
425.616	1	6
425.787	1	-12
425.957	1	17
426.128	1	3
426.298	1	10
426.469	1	-1
426.640	1	-4
426.810	1	8
426.981	1	-8
427.151	1	4
427.322	1	2
427.493	1	-3
427.663	1	6
427.834	1	-1
428.004	1	3
428.175	1	4
428.345	1	17
428.516	1	11
428.687	1	3
428.857	1	5
429.028	1	1
429.198	1	-4
429.369	1	6
429.540	1	14
429.710	1	-2
429.881	1	8
430.051	1	7
430.222	1	4
430.392	1	1
430.563	1	16
430.734	1	2
430.904	1	10
431.075	1	5
431.245	1	3
431.416	1	14
431.586	1	3
431.757	1	3
431.927	1	6
432.098	1	2
432.269	1	4
432.439	1	-5
432.610	1	7
432.780	1	-6
432.951	1	-1
433.121	1	0
433.292	1	8
433.462	1	3
433.633	1	-4
433.804	1	3
433.974	1	-3
434.145	1	13
434.315	1	2
434.486	1	13
434.656	1	1
434.827	1	-3
434.997	1	8
435.168	1	4
435.339	1	8
435.509	1	7
435.680	1	-6
435.850	1	2
436.021	1	4
436.191	1	-5
436.362	1	3
436.532	1	6
436.703	1	8
436.873	1	0
437.044	1	4
437.214	1	-3
437.385	1	-3
437.556	1	-1
437.726	1	3
437.897	1	2
438.067	1	8
438.238	1	1
438.408	1	-2
438.579	1	13
438.749	1	6
438.920	1	-1
439.090	1	16
439.261	1	6
439.431	1	1
439.602	1	1
439.772	1	8
439.943	1	8
440.113	1	2
440.284	1	0
440.455	1	-5
440.625	1	1
440.796	1	10
440.966	1	17
441.137	1	6
441.307	1	-2
441.478	1	-3
441.648	1	-2
441.819	1	2
441.989	1	-9
442.160	1	12
442.330	1	7
442.501	1	-15
442.671	1	6
442.842	1	11
443.012	1	1
443.183	1	5
443.353	1	-4
443.524	1	4
443.694	1	6
443.865	1	7
444.035	1	3
444.206	1	5
444.376	1	5
444.547	1	-5
444.717	1	16
444.888	1	1
445.058	1	5
445.229	1	-3
445.399	1	0
445.570	1	4
445.740	1	7
445.911	1	6
446.081	1	5
446.252	1	-11
446.422	1	6
446.593	1	-5
446.763	1	11
446.934	1	9
447.104	1	-5
447.275	1	-6
447.445	1	-2
447.616	1	2
447.786	1	3
447.957	1	5
448.127	1	5
448.298	1	-4
448.468	1	-1
448.639	1	-3
448.809	1	-1
448.979	1	7
449.150	1	-1
449.320	1	-4
449.491	1	6
449.661	1	2
449.832	1	-7
450.002	1	-6
450.173	1	9
450.343	1	-9
450.514	1	1
450.684	1	5
450.855	1	3
451.025	1	-6
451.196	1	2
451.366	1	10
451.537	1	-9
451.707	1	-1
451.878	1	1
452.048	1	1
452.218	1	-5
452.389	1	-15
452.559	1	7
452.730	1	17
452.900	1	7
453.071	1	2
453.241	1	-3
453.412	1	-2
453.582	1	0
453.753	1	-9
453.923	1	7
454.093	1	0
454.264	1	-14
454.434	1	2
454.605	1	14
454.775	1	9
454.946	1	5
455.116	1	-5
455.287	1	11
455.457	1	-7
455.628	1	-6
455.798	1	-16
455.968	1	7
456.139	1	1
456.309	1	0
456.480	1	-3
456.650	1	3
456.821	1	4
456.991	1	6
457.161	1	1
457.332	1	-1
457.502	1	2
457.673	1	1
457.843	1	11
458.014	1	0
458.184	1	4
458.355	1	6
458.525	1	7
458.695	1	4
458.866	1	-2
459.036	1	2
459.207	1	-2
459.377	1	-7
459.548	1	4
459.718	1	0
459.888	1	5
460.059	1	3
460.229	1	9
460.400	1	-2
460.570	1	-5
460.740	1	-10
460.911	1	3
461.081	1	-8
461.252	1	-3
461.422	1	2
461.593	1	-7
461.763	1	2
461.933	1	-6
462.104	1	-1
462.274	1	13
462.445	1	-6
462.615	1	-1
462.785	1	-9
462.956	1	-1
463.126	1	-3
463.297	1	-10
463.467	1	1
463.638	1	10
463.808	1	-2
463.978	1	-4
464.149	1	-9
464.319	1	-2
464.490	1	-4
464.660	1	-2
464.830	1	7
465.001	1	3
465.171	1	3
465.342	1	2
465.512	1	11
465.682	1	-1
465.853	1	1
466.023	1	3
466.194	1	3
466.364	1	6
466.534	1	-8
466.705	1	2
466.875	1	2
467.045	1	3
467.216	1	-6
467.386	1	1
467.557	1	11
467.727	1	-5
467.897	1	13
468.068	1	8
468.238	1	-10
468.409	1	-2
468.579	1	3
468.749	1	-2
468.920	1	0
469.090	1	-9
469.260	1	-3
469.431	1	4
469.601	1	5
469.772	1	-15
469.942	1	6
470.112	1	-1
470.283	1	4
470.453	1	-7
470.623	1	-1
470.794	1	7
470.964	1	-6
471.135	1	-4
471.305	1	2
471.475	1	0
471.646	1	0
471.816	1	-2
471.986	1	1
472.157	1	1
472.327	1	8
472.497	1	2
472.668	1	-1
472.838	1	2
473.009	1	3
473.179	1	-1
473.349	1	-2
473.520	1	-2
473.690	1	6
473.860	1	-1
474.031	1	-4
474.201	1	-3
474.371	1	6
474.542	1	-4
474.712	1	11
474.882	1	-5
475.053	1	-7
475.223	1	0
475.394	1	-1
475.564	1	10
475.734	1	-4
475.905	1	-1
476.075	1	8
476.245	1	0
476.416	1	0
476.586	1	1
476.756	1	-5
476.927	1	8
477.097	1	-3
477.267	1	-10
477.438	1	-5
477.608	1	9
477.778	1	11
477.949	1	6
478.119	1	7
478.289	1	1
478.460	1	-3
478.630	1	-2
478.800	1	-7
478.971	1	5
479.141	1	10
479.311	1	8
479.482	1	-10
479.652	1	8
479.822	1	2
479.993	1	10
480.163	1	-12
480.333	1	-2
480.504	1	3
480.674	1	4
480.844	1	5
481.015	1	-5
481.185	1	4
481.355	1	3
481.525	1	2
481.696	1	7
481.866	1	-1
482.036	1	-11
482.207	1	8
482.377	1	-3
482.547	1	-5
482.718	1	11
482.888	1	0
483.058	1	-5
483.229	1	16
483.399	1	-4
483.569	1	8
483.740	1	-9
483.910	1	4
484.080	1	-6
484.250	1	3
484.421	1	2
484.591	1	13
484.761	1	1
484.932	1	-8
485.102	1	-3
485.272	1	2
485.443	1	5
485.613	1	-12
485.783	1	17
485.953	1	0
486.124	1	8
486.294	1	6
486.464	1	-3
486.635	1	11
486.805	1	11
486.975	1	-19
487.146	1	-7
487.316	1	11
487.486	1	1
487.656	1	-8
487.827	1	3
487.997	1	5
488.167	1	-2
488.338	1	6
488.508	1	1
488.678	1	-5
488.848	1	-7
489.019	1	-4
489.189	1	-4
489.359	1	-3
489.529	1	6
489.700	1	4
489.870	1	-6
490.040	1	-4
490.211	1	12
490.381	1	-6
490.551	1	4
490.721	1	4
490.892	1	9
491.062	1	5
491.232	1	5
491.402	1	-11
491.573	1	3
491.743	1	-5
491.913	1	-5
492.084	1	11
492.254	1	-4
492.424	1	1
492.594	1	-1
492.765	1	17
492.935	1	-1
493.105	1	12
493.275	1	9
493.446	1	1
493.616	1	1
493.786	1	-2
493.956	1	-4
494.127	1	1
494.297	1	3
494.467	1	14
494.637	1	-2
494.808	1	3
494.978	1	1
495.148	1	18
495.318	1	11
495.489	1	-2
495.659	1	8
495.829	1	9
495.999	1	-1
496.170	1	4
496.340	1	3
496.510	1	9
496.680	1	-2
496.851	1	4
497.021	1	-1
497.191	1	1
497.361	1	-1
497.532	1	-2
497.702	1	2
497.872	1	1
498.042	1	7
498.213	1	12
498.383	1	2
498.553	1	10
498.723	1	5
498.894	1	1
499.064	1	15
499.234	1	4
499.404	1	8
499.574	1	-10
499.745	1	6
499.915	1	4
500.085	1	3
500.255	1	10
500.426	1	1
500.596	1	-4
500.766	1	11
500.936	1	2
501.106	1	-1
501.277	1	-3
501.447	1	0
501.617	1	2
501.787	1	7
501.958	1	-4
502.128	1	3
502.298	1	7
502.468	1	14
502.638	1	8
502.809	1	6
502.979	1	8
503.149	1	6
503.319	1	10
503.489	1	6
503.660	1	0
503.830	1	0
504.000	1	-4
504.170	1	12
504.340	1	9
504.511	1	8
504.681	1	2
504.851	1	7
505.021	1	12
505.192	1	0
505.362	1	7
505.532	1	10
505.702	1	0
505.872	1	-1
506.043	1	7
506.213	1	9
506.383	1	6
506.553	1	0
506.723	1	14
506.893	1	7
507.064	1	-1
507.234	1	7
507.404	1	3
507.574	1	9
507.744	1	-8
507.915	1	3
508.085	1	7
508.255	1	0
508.425	1	10
508.595	1	13
508.766	1	3
508.936	1	3
509.106	1	5
509.276	1	4
509.446	1	-1
509.616	1	5
509.787	1	4
509.957	1	16
510.127	1	9
510.297	1	-1
510.467	1	-7
510.638	1	-5
510.808	1	2
510.978	1	-11
511.148	1	16
511.318	1	5
511.488	1	16
511.659	1	2
511.829	1	8
511.999	1	15
512.169	1	4
512.339	1	12
512.509	1	2
512.680	1	14
512.850	1	13
513.020	1	5
513.190	1	1
513.360	1	16
513.530	1	14
513.700	1	16
513.871	1	10
514.041	1	5
514.211	1	0
514.381	1	5
514.551	1	6
514.721	1	10
514.892	1	5
515.062	1	11
515.232	1	14
515.402	1	6
515.572	1	4
515.742	1	5
515.912	1	10
516.083	1	6
516.253	1	4
516.423	1	14
516.593	1	1
516.763	1	6
516.933	1	8
517.104	1	11
517.274	1	11
517.444	1	11
517.614	1	1
517.784	1	2
517.954	1	-1
518.124	1	14
518.294	1	3
518.465	1	13
518.635	1	9
518.805	1	7
518.975	1	9
519.145	1	16
519.315	1	12
519.485	1	8
519.656	1	4
519.826	1	8
519.996	1	8
520.166	1	4
520.336	1	0
520.506	1	14
520.676	1	0
520.846	1	8
521.017	1	-4
521.187	1	10
521.357	1	7
521.527	1	15
521.697	1	4
521.867	1	1
522.037	1	6
522.207	1	9
522.377	1	13
522.548	1	4
522.718	1	12
522.888	1	10
523.058	1	17
523.228	1	19
523.398	1	4
523.568	1	4
523.738	1	7
523.909	1	20
524.079	1	9
524.249	1	8
524.419	1	14
524.589	1	22
524.759	1	5
524.929	1	12
525.099	1	12
525.269	1	17
525.439	1	-10
525.610	1	8
525.780	1	8
525.950	1	-3
526.120	1	0
526.290	1	5
526.460	1	21
526.630	1	-2
526.800	1	11
526.970	1	7
527.140	1	0
527.311	1	15
527.481	1	10
527.651	1	23
527.821	1	2
527.991	1	4
528.161	1	5
528.331	1	8
528.501	1	-5
528.671	1	2
528.841	1	12
529.011	1	5
529.181	1	13
529.352	1	10
529.522	1	12
529.692	1	13
529.862	1	8
530.032	1	-1
530.202	1	14
530.372	1	10
530.542	1	16
530.712	1	20
530.882	1	-4
531.052	1	15
531.222	1	-2
531.392	1	4
531.563	1	10
531.733	1	7
531.903	1	14
532.073	1	7
532.243	1	8
532.413	1	20
532.583	1	5
532.753	1	12
532.923	1	8
533.093	1	8
533.263	1	6
533.433	1	8
533.603	1	4
533.773	1	5
533.943	1	7
534.113	1	8
534.284	1	-1
534.454	1	12
534.624	1	11
534.794	1	6
534.964	1	-7
535.134	1	15
535.304	1	13
535.474	1	10
535.644	1	6
535.814	1	16
535.984	1	4
536.154	1	3
536.324	1	12
536.494	1	17
536.664	1	14
536.834	1	-1
537.004	1	18
537.174	1	12
537.344	1	14
537.514	1	7
537.685	1	12
537.855	1	5
538.025	1	13
538.195	1	14
538.365	1	17
538.535	1	24
538.705	1	2
538.875	1	2
539.045	1	8
539.215	1	-1
539.385	1	8
539.555	1	6
539.725	1	14
539.895	1	8
540.065	1	9
540.235	1	-4
540.405	1	4
540.575	1	12
540.745	1	8
540.915	1	8
541.085	1	5
541.255	1	0
541.425	1	2
541.595	1	5
541.765	1	11
541.935	1	19
542.105	1	14
542.275	1	3
542.445	1	18
542.615	1	-1
542.785	1	5
542.955	1	15
543.125	1	10
543.295	1	15
543.465	1	15
543.635	1	10
543.805	1	11
543.975	1	17
544.145	1	1
544.315	1	12
544.485	1	6
544.655	1	11
544.825	1	9
544.995	1	9
545.165	1	3
545.335	1	8
545.505	1	4
545.675	1	14
545.845	1	-5
546.015	1	3
546.185	1	19
546.355	1	10
546.525	1	12
546.695	1	-12
546.865	1	6
547.035	1	15
547.205	1	-2
547.375	1	13
547.545	1	16
547.715	1	0
547.885	1	-1
548.055	1	10
548.225	1	-5
548.395	1	14
548.565	1	2
548.735	1	11
548.905	1	0
549.075	1	11
549.245	1	11
549.415	1	7
549.585	1	-1
549.755	1	-5
549.925	1	13
550.095	1	7
550.265	1	7
550.435	1	14
550.605	1	7
550.775	1	3
550.945	1	10
551.115	1	-3
551.285	1	12
551.455	1	15
551.625	1	-1
551.795	1	1
551.965	1	5
552.135	1	6
552.305	1	4
552.475	1	6
552.645	1	17
552.815	1	8
552.985	1	7
553.155	1	5
553.325	1	18
553.495	1	6
553.665	1	7
553.835	1	7
554.004	1	9
554.174	1	8
554.344	1	0
554.514	1	9
554.684	1	9
554.854	1	7
555.024	1	1
555.194	1	21
555.364	1	16
555.534	1	1
555.704	1	1
555.874	1	5
556.044	1	5
556.214	1	4
556.384	1	9
556.554	1	5
556.724	1	2
556.894	1	11
557.064	1	7
557.234	1	6
557.404	1	-6
557.573	1	1
557.743	1	10
557.913	1	9
558.083	1	-13
558.253	1	3
558.423	1	-7
558.593	1	11
558.763	1	4
558.933	1	14
559.103	1	8
559.273	1	5
559.443	1	13
559.613	1	12
559.783	1	15
559.953	1	4
560.122	1	-2
560.292	1	7
560.462	1	5
560.632	1	5
560.802	1	6
560.972	1	17
561.142	1	9
561.312	1	13
561.482	1	8
561.652	1	13
561.822	1	1
561.992	1	14
562.162	1	-11
562.331	1	3
562.501	1	3
562.671	1	6
562.841	1	-4
563.011	1	6
563.181	1	12
563.351	1	-2
563.521	1	9
563.691	1	7
563.861	1	14
564.031	1	9
564.201	1	0
564.370	1	7
564.540	1	10
564.710	1	4
564.880	1	6
565.050	1	10
565.220	1	4
565.390	1	-4
565.560	1	11
565.730	1	-4
565.900	1	2
566.069	1	9
566.239	1	5
566.409	1	2
566.579	1	4
566.749	1	5
566.919	1	13
567.089	1	10
567.259	1	10
567.429	1	-2
567.599	1	2
567.768	1	10
567.938	1	1
568.108	1	4
568.278	1	-1
568.448	1	-5
568.618	1	0
568.788	1	1
568.958	1	10
569.128	1	-2
569.297	1	10
569.467	1	8
569.637	1	12
569.807	1	0
569.977	1	6
570.147	1	4
570.317	1	13
570.487	1	10
570.656	1	3
570.826	1	3
570.996	1	1
571.166	1	-2
571.336	1	-1
571.506	1	-1
571.676	1	7
571.846	1	6
572.015	1	0
572.185	1	-9
572.355	1	24
572.525	1	-3
572.695	1	14
572.865	1	-2
573.035	1	1
573.205	1	6
573.374	1	4
573.544	1	-1
573.714	1	18
573.884	1	-4
574.054	1	4
574.224	1	11
574.394	1	3
574.563	1	3
574.733	1	-3
574.903	1	5
575.073	1	5
575.243	1	-6
575.413	1	1
575.583	1	9
575.752	1	-4
575.922	1	7
576.092	1	11
576.262	1	11
576.432	1	-2
576.602	1	3
576.772	1	1
576.941	1	4
577.111	1	6
577.281	1	4
577.451	1	-10
577.621	1	-3
577.791	1	14
577.960	1	2
578.130	1	-4
578.300	1	-3
578.470	1	-2
578.640	1	-4
578.810	1	1
578.979	1	3
579.149	1	7
579.319	1	7
579.489	1	1
579.659	1	6
579.829	1	12
579.998	1	-6
580.168	1	6
580.338	1	-15
580.508	1	0
580.678	1	-4
580.848	1	7
581.017	1	10
581.187	1	8
581.357	1	11
581.527	1	5
581.697	1	-4
581.867	1	-4
582.036	1	4
582.206	1	-4
582.376	1	3
582.546	1	4
582.716	1	5
582.885	1	9
583.055	1	4
583.225	1	2
583.395	1	0
583.565	1	19
583.735	1	5
583.904	1	9
584.074	1	-8
584.244	1	-1
584.414	1	4
584.584	1	6
584.753	1	7
584.923	1	7
585.093	1	4
585.263	1	8
585.433	1	-2
585.602	1	4
585.772	1	3
585.942	1	-5
586.112	1	6
586.282	1	8
586.451	1	9
586.621	1	5
586.791	1	3
586.961	1	5
587.131	1	-5
587.300	1	-10
587.470	1	-5
587.640	1	-12
587.810	1	4
587.980	1	0
588.149	1	2
588.319	1	12
588.489	1	7
588.659	1	4
588.829	1	4
588.998	1	-6
589.168	1	0
589.338	1	3
589.508	1	12
589.677	1	-2
589.847	1	6
590.017	1	-3
590.187	1	3
590.357	1	-4
590.526	1	-5
590.696	1	3
590.866	1	1
591.036	1	5
591.205	1	10
591.375	1	1
591.545	1	-7
591.715	1	-2
591.885	1	3
592.054	1	4
592.224	1	15
592.394	1	9
592.564	1	-2
592.733	1	-4
592.903	1	7
593.073	1	13
593.243	1	5
593.412	1	4
593.582	1	12
593.752	1	-1
593.922	1	-1
594.091	1	2
594.261	1	1
594.431	1	2
594.601	1	-2
594.771	1	2
594.940	1	-6
595.110	1	4
595.280	1	9
595.450	1	14
595.619	1	5
595.789	1	-4
595.959	1	-11
596.129	1	-3
596.298	1	6
596.468	1	8
596.638	1	7
596.808	1	5
596.977	1	0
597.147	1	13
597.317	1	3
597.487	1	-1
597.656	1	0
597.826	1	-2
597.996	1	-1
598.166	1	-2
598.335	1	2
598.505	1	7
598.675	1	10
598.844	1	1
599.014	1	-1
599.184	1	-6
599.354	1	-12
599.523	1	-5
599.693	1	14
599.863	1	13
600.033	1	2
600.202	1	7
600.372	1	-1
600.542	1	-1
600.712	1	2
600.881	1	6
601.051	1	10
601.221	1	0
601.390	1	-2
601.560	1	3
601.730	1	0
601.900	1	3
602.069	1	-9
602.239	1	-1
602.409	1	0
602.578	1	7
602.748	1	-11
602.918	1	-7
603.088	1	1
603.257	1	3
603.427	1	-3
603.597	1	12
603.767	1	-4
603.936	1	10
604.106	1	17
604.276	1	-4
604.445	1	4
604.615	1	-10
604.785	1	1
604.954	1	12
605.124	1	-11
605.294	1	3
605.464	1	0
605.633	1	8
605.803	1	11
605.973	1	-1
606.142	1	2
606.312	1	-3
606.482	1	-5
606.652	1	-2
606.821	1	2
606.991	1	0
607.161	1	-1
607.330	1	10
607.500	1	6
607.670	1	5
607.839	1	4
608.009	1	-10
608.179	1	1
608.348	1	-5
608.518	1	-5
608.688	1	1
608.858	1	-2
609.027	1	3
609.197	1	1
609.367	1	-9
609.536	1	3
609.706	1	4
609.876	1	5
610.045	1	3
610.215	1	-2
610.385	1	-2
610.554	1	-11
610.724	1	1
610.894	1	3
611.063	1	11
611.233	1	-10
611.403	1	-1
611.572	1	8
611.742	1	-3
611.912	1	-4
612.081	1	-4
612.251	1	-1
612.421	1	15
612.590	1	3
612.760	1	7
612.930	1	0
613.099	1	-10
613.269	1	1
613.439	1	-6
613.608	1	8
613.778	1	3
613.948	1	14
614.117	1	5
614.287	1	-3
614.457	1	0
614.626	1	3
614.796	1	22
614.966	1	-1
615.135	1	1
615.305	1	-6
615.475	1	7
615.644	1	-9
615.814	1	-3
615.984	1	11
616.153	1	8
616.323	1	-3
616.493	1	7
616.662	1	8
616.832	1	0
617.002	1	-6
617.171	1	-2
617.341	1	1
617.511	1	-2
617.680	1	3
617.850	1	6
618.019	1	4
618.189	1	-1
618.359	1	5
618.528	1	-9
618.698	1	-1
618.868	1	0
619.037	1	8
619.207	1	-8
619.377	1	-9
619.546	1	3
619.716	1	-4
619.885	1	3
620.055	1	9
620.225	1	8
620.394	1	-5
620.564	1	-9
620.734	1	5
620.903	1	12
621.073	1	-7
621.242	1	-7
621.412	1	12
621.582	1	4
621.751	1	1
621.921	1	2
622.091	1	0
622.260	1	-1
622.430	1	2
622.599	1	6
622.769	1	-3
622.939	1	0
623.108	1	0
623.278	1	-3
623.448	1	2
623.617	1	5
623.787	1	6
623.956	1	-2
624.126	1	-5
624.296	1	-1
624.465	1	-3
624.635	1	4
624.804	1	-5
624.974	1	-6
625.144	1	7
625.313	1	4
625.483	1	12
625.652	1	9
625.822	1	3
625.992	1	-7
626.161	1	2
626.331	1	9
626.501	1	8
626.670	1	3
626.840	1	1
627.009	1	-17
627.179	1	-7
627.348	1	-7
627.518	1	7
627.688	1	1
627.857	1	6
628.027	1	4
628.196	1	9
628.366	1	10
628.536	1	-3
628.705	1	8
628.875	1	7
629.044	1	17
629.214	1	5
629.384	1	-9
629.553	1	-1
629.723	1	13
629.892	1	3
630.062	1	6
630.232	1	8
630.401	1	5
630.571	1	1
630.740	1	2
630.910	1	-1
631.079	1	10
631.249	1	0
631.419	1	5
631.588	1	-4
631.758	1	0
631.927	1	11
632.097	1	1
632.266	1	-8
632.436	1	-2
632.606	1	2
632.775	1	-3
632.945	1	2
633.114	1	12
633.284	1	-10
633.453	1	-5
633.623	1	3
633.793	1	1
633.962	1	6
634.132	1	-1
634.301	1	-1
634.471	1	-4
634.640	1	4
634.810	1	4
634.979	1	8
635.149	1	4
635.319	1	9
635.488	1	6
635.658	1	-2
635.827	1	1
635.997	1	7
636.166	1	-2
636.336	1	11
636.505	1	1
636.675	1	0
636.845	1	2
637.014	1	-6
637.184	1	-8
637.353	1	8
637.523	1	-3
637.692	1	0
637.862	1	-6
638.031	1	14
638.201	1	6
638.370	1	-8
638.540	1	2
638.710	1	-4
638.879	1	-6
639.049	1	7
639.218	1	4
639.388	1	1
639.557	1	16
639.727	1	6
639.896	1	-3
640.066	1	-3
640.235	1	7
640.405	1	-7
640.574	1	-5
640.744	1	5
640.914	1	3
641.083	1	-1
641.253	1	-2
641.422	1	7
641.592	1	-2
641.761	1	-5
641.931	1	0
642.100	1	1
642.270	1	-3
642.439	1	-3
642.609	1	0
642.778	1	-2
642.948	1	5
643.117	1	-6
643.287	1	3
643.456	1	2
643.626	1	1
643.795	1	6
643.965	1	-4
644.134	1	4
644.304	1	-4
644.473	1	10
644.643	1	-6
644.812	1	12
644.982	1	7
645.151	1	-1
645.321	1	7
645.490	1	4
645.660	1	-7
645.829	1	-7
645.999	1	-10
646.168	1	2
646.338	1	3
646.507	1	-1
646.677	1	5
646.846	1	11
647.016	1	4
647.185	1	-9
647.355	1	-2
647.524	1	10
647.694	1	-5
647.863	1	-14
648.033	1	-7
648.202	1	11
648.372	1	-1
648.541	1	-5
648.711	1	4
648.880	1	-3
649.050	1	-8
649.219	1	0
649.389	1	3
649.558	1	-2
649.728	1	2
649.897	1	-1
650.067	1	-3
650.236	1	6
650.406	1	0
650.575	1	8
650.745	1	-5
650.914	1	-3
651.084	1	-2
651.253	1	4
651.423	1	4
651.592	1	-3
651.762	1	8
651.931	1	14
652.101	1	1
652.270	1	0
652.440	1	10
652.609	1	0
652.778	1	-7
652.948	1	-7
653.117	1	7
653.287	1	4
653.456	1	0
653.626	1	9
653.795	1	5
653.965	1	15
654.134	1	2
654.304	1	4
654.473	1	5
654.643	1	15
654.812	1	10
654.982	1	-13
655.151	1	-14
655.320	1	-7
655.490	1	11
655.659	1	0
655.829	1	-3
655.998	1	3
656.168	1	-3
656.337	1	-5
656.507	1	9
656.676	1	-2
656.846	1	-9
657.015	1	3
657.184	1	11
657.354	1	6
657.523	1	-4
657.693	1	2
657.862	1	8
658.032	1	6
658.201	1	-10
658.371	1	-6
658.540	1	0
658.709	1	-3
658.879	1	2
659.048	1	5
659.218	1	-4
659.387	1	3
659.557	1	-3
659.726	1	1
659.895	1	0
660.065	1	12
660.234	1	-4
660.404	1	-2
660.573	1	-9
660.743	1	-3
660.912	1	1
661.081	1	0
661.251	1	5
661.420	1	-4
661.590	1	-6
661.759	1	13
661.929	1	5
662.098	1	-14
662.267	1	17
662.437	1	-1
662.606	1	1
662.776	1	4
662.945	1	6
663.115	1	0
663.284	1	-3
663.453	1	-6
663.623	1	-4
663.792	1	5
663.962	1	-6
664.131	1	-9
664.300	1	1
664.470	1	1
664.639	1	6
664.809	1	5
664.978	1	6
665.148	1	-3
665.317	1	0
665.486	1	-12
665.656	1	1
665.825	1	3
665.995	1	5
666.164	1	2
666.333	1	10
666.503	1	-4
666.672	1	-12
666.842	1	-3
667.011	1	16
667.180	1	-4
667.350	1	10
667.519	1	1
667.689	1	4
667.858	1	7
668.027	1	-11
668.197	1	2
668.366	1	6
668.536	1	-6
668.705	1	9
668.874	1	-1
669.044	1	-9
669.213	1	2
669.382	1	0
669.552	1	15
669.721	1	-10
669.891	1	11
670.060	1	6
670.229	1	3
670.399	1	7
670.568	1	0
670.738	1	-13
670.907	1	-7
671.076	1	9
671.246	1	5
671.415	1	0
671.584	1	5
671.754	1	-8
671.923	1	-2
672.093	1	-6
672.262	1	5
672.431	1	-6
672.601	1	-12
672.770	1	4
672.939	1	-8
673.109	1	-4
673.278	1	1
673.448	1	3
673.617	1	9
673.786	1	-15
