325.333	1	0
325.504	1	11
325.675	1	-5
325.846	1	-5
326.017	1	-9
326.188	1	13
326.359	1	5
326.531	1	-4
326.702	1	5
326.873	1	-5
327.044	1	-4
327.215	1	2
327.386	1	4
327.557	1	0
327.728	1	-9
327.899	1	-2
328.070	1	-9
328.241	1	2
328.412	1	8
328.583	1	-6
328.754	1	2
328.926	1	5
329.097	1	4
329.268	1	5
329.439	1	-1
329.610	1	1
329.781	1	-3
329.952	1	9
330.123	1	1
330.294	1	9
330.465	1	-1
330.636	1	1
330.807	1	4
330.978	1	-4
331.149	1	2
331.320	1	1
331.492	1	-1
331.663	1	-2
331.834	1	7
332.005	1	2
332.176	1	-6
332.347	1	9
332.518	1	7
332.689	1	0
332.860	1	0
333.031	1	2
333.202	1	-3
333.373	1	-9
333.544	1	5
333.715	1	2
333.886	1	-6
334.057	1	-11
334.228	1	-2
334.399	1	8
334.570	1	-1
334.741	1	-9
334.912	1	-8
335.084	1	0
335.255	1	-4
335.426	1	0
335.597	1	3
335.768	1	7
335.939	1	-4
336.110	1	5
336.281	1	3
336.452	1	-4
336.623	1	-3
336.794	1	-9
336.965	1	3
337.136	1	-3
337.307	1	5
337.478	1	8
337.649	1	3
337.820	1	6
337.991	1	3
338.162	1	5
338.333	1	2
338.504	1	-9
338.675	1	5
338.846	1	6
339.017	1	-3
339.188	1	7
339.359	1	3
339.530	1	-10
339.701	1	-1
339.872	1	2
340.043	1	3
340.214	1	3
340.385	1	3
340.556	1	7
340.727	1	1
340.898	1	-4
341.069	1	5
341.240	1	-2
341.411	1	4
341.582	1	-3
341.753	1	0
341.924	1	-9
342.095	1	5
342.266	1	0
342.437	1	10
342.608	1	-4
342.779	1	6
342.950	1	2
343.121	1	5
343.292	1	0
343.463	1	4
343.634	1	0
343.805	1	3
343.976	1	4
344.147	1	8
344.318	1	4
344.489	1	-4
344.660	1	13
344.831	1	-3
345.002	1	1
345.173	1	-6
345.344	1	-16
345.515	1	-2
345.686	1	5
345.857	1	-6
346.028	1	-6
346.199	1	-9
346.370	1	0
346.541	1	-5
346.712	1	2
346.883	1	-3
347.054	1	-1
347.225	1	1
347.396	1	0
347.567	1	-2
347.738	1	12
347.909	1	4
348.080	1	-4
348.251	1	5
348.422	1	5
348.593	1	-3
348.764	1	-5
348.935	1	-5
349.106	1	14
349.277	1	-2
349.448	1	-7
349.619	1	-8
349.790	1	1
349.961	1	0
350.132	1	-2
350.303	1	-4
350.474	1	2
350.645	1	0
350.816	1	-5
350.987	1	-1
351.157	1	9
351.328	1	2
351.499	1	-4
351.670	1	7
351.841	1	-1
352.012	1	-10
352.183	1	3
352.354	1	2
352.525	1	-3
352.696	1	-4
352.867	1	-8
353.038	1	20
353.209	1	7
353.380	1	-2
353.551	1	7
353.722	1	5
353.893	1	4
354.064	1	14
354.235	1	-3
354.406	1	-4
354.576	1	4
354.747	1	1
354.918	1	-12
355.089	1	1
355.260	1	-4
355.431	1	-6
355.602	1	9
355.773	1	1
355.944	1	6
356.115	1	-11
356.286	1	10
356.457	1	-4
356.628	1	-2
356.799	1	-2
356.970	1	-2
357.141	1	-4
357.311	1	0
357.482	1	6
357.653	1	-3
357.824	1	0
357.995	1	0
358.166	1	6
358.337	1	-1
358.508	1	4
358.679	1	9
358.850	1	-1
359.021	1	-8
359.192	1	3
359.363	1	2
359.533	1	5
359.704	1	-3
359.875	1	-1
360.046	1	-2
360.217	1	12
360.388	1	10
360.559	1	6
360.730	1	-11
360.901	1	1
361.072	1	-5
361.243	1	8
361.414	1	5
361.584	1	8
361.755	1	6
361.926	1	18
362.097	1	1
362.268	1	7
362.439	1	11
362.610	1	-2
362.781	1	10
362.952	1	2
363.123	1	10
363.293	1	-4
363.464	1	17
363.635	1	5
363.806	1	5
363.977	1	5
364.148	1	12
364.319	1	6
364.490	1	1
364.661	1	11
364.832	1	1
365.002	1	9
365.173	1	9
365.344	1	7
365.515	1	11
365.686	1	9
365.857	1	9
366.028	1	11
366.199	1	10
366.370	1	12
366.540	1	16
366.711	1	11
366.882	1	8
367.053	1	15
367.224	1	8
367.395	1	9
367.566	1	6
367.737	1	-11
367.908	1	13
368.078	1	9
368.249	1	10
368.420	1	4
368.591	1	26
368.762	1	-6
368.933	1	11
369.104	1	16
369.274	1	14
369.445	1	3
369.616	1	3
369.787	1	11
369.958	1	6
370.129	1	5
370.300	1	-6
370.471	1	14
370.641	1	12
370.812	1	13
370.983	1	9
371.154	1	6
371.325	1	-7
371.496	1	3
371.667	1	3
371.837	1	-8
372.008	1	-1
372.179	1	9
372.350	1	-2
372.521	1	2
372.692	1	2
372.863	1	3
373.033	1	0
373.204	1	1
373.375	1	0
373.546	1	12
373.717	1	-3
373.888	1	8
374.059	1	4
374.229	1	-8
374.400	1	8
374.571	1	-2
374.742	1	8
374.913	1	-5
375.084	1	-3
375.254	1	0
375.425	1	0
375.596	1	-7
375.767	1	10
375.938	1	4
376.109	1	-6
376.279	1	-4
376.450	1	7
376.621	1	10
376.792	1	2
376.963	1	5
377.134	1	-1
377.304	1	4
377.475	1	-1
377.646	1	2
377.817	1	8
377.988	1	4
378.159	1	5
378.329	1	6
378.500	1	-5
378.671	1	0
378.842	1	1
379.013	1	3
379.184	1	11
379.354	1	1
379.525	1	5
379.696	1	-13
379.867	1	13
380.038	1	7
380.209	1	5
380.379	1	-8
380.550	1	8
380.721	1	12
380.892	1	4
381.063	1	-2
381.233	1	9
381.404	1	5
381.575	1	4
381.746	1	8
381.917	1	-6
382.087	1	5
382.258	1	18
382.429	1	6
382.600	1	13
382.771	1	6
382.941	1	10
383.112	1	2
383.283	1	7
383.454	1	13
383.625	1	11
383.795	1	20
383.966	1	15
384.137	1	12
384.308	1	18
384.479	1	19
384.649	1	23
384.820	1	9
384.991	1	21
385.162	1	22
385.333	1	18
385.503	1	16
385.674	1	10
385.845	1	17
386.016	1	15
386.187	1	21
386.357	1	17
386.528	1	34
386.699	1	22
386.870	1	26
387.041	1	6
387.211	1	17
387.382	1	12
387.553	1	14
387.724	1	13
387.894	1	19
388.065	1	20
388.236	1	25
388.407	1	20
388.578	1	12
388.748	1	22
388.919	1	10
389.090	1	13
389.261	1	-1
389.431	1	21
389.602	1	20
389.773	1	15
389.944	1	15
390.114	1	22
390.285	1	15
390.456	1	13
390.627	1	13
390.798	1	13
390.968	1	14
391.139	1	4
391.310	1	12
391.481	1	12
391.651	1	16
391.822	1	17
391.993	1	15
392.164	1	12
392.334	1	13
392.505	1	17
392.676	1	17
392.847	1	14
393.017	1	2
393.188	1	9
393.359	1	19
393.530	1	20
393.700	1	15
393.871	1	2
394.042	1	21
394.213	1	16
394.383	1	14
394.554	1	18
394.725	1	10
394.896	1	15
395.066	1	17
395.237	1	24
395.408	1	14
395.579	1	27
395.749	1	17
395.920	1	17
396.091	1	19
396.262	1	15
396.432	1	-3
396.603	1	11
396.774	1	0
396.945	1	18
397.115	1	21
397.286	1	20
397.457	1	23
397.627	1	20
397.798	1	7
397.969	1	22
398.140	1	19
398.310	1	19
398.481	1	5
398.652	1	22
398.823	1	25
398.993	1	14
399.164	1	16
399.335	1	15
399.505	1	17
399.676	1	19
399.847	1	8
400.018	1	15
400.188	1	15
400.359	1	17
400.530	1	18
400.700	1	11
400.871	1	9
401.042	1	19
401.213	1	10
401.383	1	16
401.554	1	12
401.725	1	12
401.895	1	15
402.066	1	18
402.237	1	10
402.408	1	17
402.578	1	17
402.749	1	4
402.920	1	-2
403.090	1	5
403.261	1	10
403.432	1	17
403.603	1	14
403.773	1	11
403.944	1	22
404.115	1	-5
404.285	1	7
404.456	1	14
404.627	1	15
404.797	1	23
404.968	1	13
405.139	1	8
405.310	1	9
405.480	1	9
405.651	1	10
405.822	1	17
405.992	1	9
406.163	1	8
406.334	1	13
406.504	1	11
406.675	1	26
406.846	1	11
407.016	1	11
407.187	1	6
407.358	1	6
407.528	1	23
407.699	1	12
407.870	1	18
408.041	1	9
408.211	1	7
408.382	1	15
408.553	1	3
408.723	1	13
408.894	1	-2
409.065	1	14
409.235	1	0
409.406	1	16
409.577	1	11
409.747	1	4
409.918	1	6
410.089	1	14
410.259	1	5
410.430	1	14
410.601	1	2
410.771	1	8
410.942	1	14
411.113	1	8
411.283	1	6
411.454	1	2
411.625	1	4
411.795	1	10
411.966	1	0
412.137	1	7
412.307	1	16
412.478	1	13
412.649	1	4
412.819	1	13
412.990	1	16
413.161	1	8
413.331	1	-5
413.502	1	20
413.672	1	10
413.843	1	16
414.014	1	-3
414.184	1	0
414.355	1	0
414.526	1	0
414.696	1	2
414.867	1	12
415.038	1	11
415.208	1	4
415.379	1	4
415.550	1	14
415.720	1	1
415.891	1	7
416.062	1	10
416.232	1	1
416.403	1	10
416.573	1	5
416.744	1	10
416.915	1	5
417.085	1	7
417.256	1	1
417.427	1	4
417.597	1	-12
417.768	1	5
417.939	1	4
418.109	1	10
418.280	1	9
418.450	1	3
418.621	1	11
418.792	1	-1
418.962	1	8
419.133	1	11
419.304	1	3
419.474	1	5
419.645	1	15
419.815	1	2
419.986	1	8
420.157	1	8
420.327	1	13
420.498	1	10
420.669	1	7
420.839	1	1
421.010	1	12
421.180	1	1
421.351	1	7
421.522	1	6
421.692	1	3
421.863	1	-2
422.033	1	-2
422.204	1	-6
422.375	1	0
422.545	1	8
422.716	1	3
422.886	1	3
423.057	1	-1
423.228	1	-13
423.398	1	7
423.569	1	8
423.740	1	2
423.910	1	-6
424.081	1	-3
424.251	1	-4
424.422	1	9
424.593	1	8
424.763	1	8
424.934	1	5
425.104	1	10
425.275	1	-6
425.445	1	-1
425.616	1	15
425.787	1	-6
425.957	1	15
426.128	1	3
426.298	1	2
426.469	1	2
426.640	1	6
426.810	1	2
426.981	1	1
427.151	1	2
427.322	1	9
427.493	1	5
427.663	1	-2
427.834	1	-4
428.004	1	5
428.175	1	8
428.345	1	10
428.516	1	2
428.687	1	4
428.857	1	5
429.028	1	-5
429.198	1	-3
429.369	1	6
429.540	1	8
429.710	1	-2
429.881	1	8
430.051	1	13
430.222	1	6
430.392	1	-3
430.563	1	7
430.734	1	5
430.904	1	7
431.075	1	7
431.245	1	13
431.416	1	-1
431.586	1	-4
431.757	1	2
431.927	1	5
432.098	1	5
432.269	1	0
432.439	1	-9
432.610	1	-3
432.780	1	-6
432.951	1	7
433.121	1	3
433.292	1	8
433.462	1	11
433.633	1	-6
433.804	1	-3
433.974	1	-2
434.145	1	2
434.315	1	6
434.486	1	13
434.656	1	9
434.827	1	-1
434.997	1	3
435.168	1	-9
435.339	1	8
435.509	1	7
435.680	1	-5
435.850	1	0
436.021	1	5
436.191	1	-2
436.362	1	-1
436.532	1	12
436.703	1	7
436.873	1	0
437.044	1	15
437.214	1	-1
437.385	1	2
437.556	1	1
437.726	1	4
437.897	1	4
438.067	1	7
438.238	1	-5
438.408	1	5
438.579	1	8
438.749	1	7
438.920	1	-8
439.090	1	15
439.261	1	2
439.431	1	3
439.602	1	5
439.772	1	7
439.943	1	8
440.113	1	-9
440.284	1	19
440.455	1	1
440.625	1	3
440.796	1	2
440.966	1	9
441.137	1	-8
441.307	1	0
441.478	1	7
441.648	1	-4
441.819	1	10
441.989	1	3
442.160	1	8
442.330	1	5
442.501	1	-14
442.671	1	10
442.842	1	-4
443.012	1	7
443.183	1	-4
443.353	1	-3
443.524	1	7
443.694	1	9
443.865	1	1
444.035	1	-2
444.206	1	8
444.376	1	6
444.547	1	-5
444.717	1	12
444.888	1	-6
445.058	1	13
445.229	1	0
445.399	1	7
445.570	1	2
445.740	1	7
445.911	1	14
446.081	1	1
446.252	1	-7
446.422	1	0
446.593	1	1
446.763	1	5
446.934	1	7
447.104	1	-8
447.275	1	1
447.445	1	-5
447.616	1	7
447.786	1	-1
447.957	1	8
448.127	1	-4
448.298	1	2
448.468	1	5
448.639	1	3
448.809	1	-4
448.979	1	0
449.150	1	-5
449.320	1	3
449.491	1	0
449.661	1	-3
449.832	1	-7
450.002	1	5
450.173	1	-3
450.343	1	0
450.514	1	-2
450.684	1	-4
450.855	1	7
451.025	1	8
451.196	1	0
451.366	1	2
451.537	1	1
451.707	1	4
451.878	1	1
452.048	1	1
452.218	1	-2
452.389	1	0
452.559	1	6
452.730	1	2
452.900	1	-4
453.071	1	8
453.241	1	-3
453.412	1	-6
453.582	1	2
453.753	1	-5
453.923	1	4
454.093	1	2
454.264	1	-10
454.434	1	4
454.605	1	5
454.775	1	11
454.946	1	3
455.116	1	1
455.287	1	6
455.457	1	-1
455.628	1	-3
455.798	1	-10
455.968	1	7
456.139	1	5
456.309	1	2
456.480	1	-4
456.650	1	1
456.821	1	-4
456.991	1	10
457.161	1	8
457.332	1	-7
457.502	1	1
457.673	1	1
457.843	1	5
458.014	1	4
458.184	1	3
458.355	1	11
458.525	1	1
458.695	1	0
458.866	1	4
459.036	1	7
459.207	1	0
459.377	1	1
459.548	1	-5
459.718	1	-3
459.888	1	9
460.059	1	2
460.229	1	8
460.400	1	7
460.570	1	0
460.740	1	-5
460.911	1	17
461.081	1	2
461.252	1	3
461.422	1	9
461.593	1	-4
461.763	1	-4
461.933	1	-5
462.104	1	0
462.274	1	-1
462.445	1	-4
462.615	1	-8
462.785	1	2
462.956	1	2
463.126	1	-5
463.297	1	-2
463.467	1	6
463.638	1	5
463.808	1	0
463.978	1	10
464.149	1	-4
464.319	1	-5
464.490	1	-8
464.660	1	0
464.830	1	3
465.001	1	0
465.171	1	8
465.342	1	1
465.512	1	6
465.682	1	8
465.853	1	2
466.023	1	-6
466.194	1	10
466.364	1	2
466.534	1	3
466.705	1	8
466.875	1	0
467.045	1	0
467.216	1	-2
467.386	1	-1
467.557	1	8
467.727	1	-8
467.897	1	11
468.068	1	2
468.238	1	-3
468.409	1	7
468.579	1	12
468.749	1	-4
468.920	1	-4
469.090	1	2
469.260	1	7
469.431	1	9
469.601	1	10
469.772	1	-14
469.942	1	6
470.112	1	2
470.283	1	13
470.453	1	1
470.623	1	-1
470.794	1	-2
470.964	1	-5
471.135	1	-6
471.305	1	-15
471.475	1	4
471.646	1	0
471.816	1	-2
471.986	1	7
472.157	1	-4
472.327	1	-5
472.497	1	9
472.668	1	-10
472.838	1	12
473.009	1	1
473.179	1	-4
473.349	1	6
473.520	1	9
473.690	1	9
473.860	1	-2
474.031	1	0
474.201	1	-9
474.371	1	11
474.542	1	-6
474.712	1	-1
474.882	1	-5
475.053	1	-2
475.223	1	3
475.394	1	8
475.564	1	20
475.734	1	-1
475.905	1	-3
476.075	1	-4
476.245	1	-5
476.416	1	-2
476.586	1	-2
476.756	1	2
476.927	1	9
477.097	1	-6
477.267	1	-1
477.438	1	0
477.608	1	3
477.778	1	3
477.949	1	13
478.119	1	1
478.289	1	0
478.460	1	-6
478.630	1	1
478.800	1	-4
478.971	1	7
479.141	1	2
479.311	1	5
479.482	1	-6
479.652	1	10
479.822	1	-6
479.993	1	7
480.163	1	-9
480.333	1	3
480.504	1	0
480.674	1	5
480.844	1	4
481.015	1	1
481.185	1	16
481.355	1	16
481.525	1	-1
481.696	1	0
481.866	1	3
482.036	1	-15
482.207	1	3
482.377	1	-1
482.547	1	-9
482.718	1	8
482.888	1	-1
483.058	1	-5
483.229	1	8
483.399	1	-6
483.569	1	4
483.740	1	-13
483.910	1	0
484.080	1	-8
484.250	1	10
484.421	1	5
484.591	1	4
484.761	1	-12
484.932	1	5
485.102	1	-2
485.272	1	-2
485.443	1	10
485.613	1	-15
485.783	1	7
485.953	1	0
486.124	1	2
486.294	1	1
486.464	1	-4
486.635	1	13
486.805	1	20
486.975	1	-13
487.146	1	4
487.316	1	8
487.486	1	5
487.656	1	-7
487.827	1	5
487.997	1	9
488.167	1	10
488.338	1	15
488.508	1	5
488.678	1	3
488.848	1	3
489.019	1	-1
489.189	1	-7
489.359	1	-3
489.529	1	2
489.700	1	6
489.870	1	-8
490.040	1	-4
490.211	1	11
490.381	1	-4
490.551	1	5
490.721	1	3
490.892	1	2
491.062	1	1
491.232	1	2
491.402	1	-8
491.573	1	-5
491.743	1	-13
491.913	1	3
492.084	1	4
492.254	1	10
492.424	1	-6
492.594	1	1
492.765	1	4
492.935	1	-1
493.105	1	13
493.275	1	10
493.446	1	-12
493.616	1	-2
493.786	1	4
493.956	1	3
494.127	1	-7
494.297	1	6
494.467	1	4
494.637	1	-2
494.808	1	10
494.978	1	4
495.148	1	8
495.318	1	12
495.489	1	-2
495.659	1	3
495.829	1	8
495.999	1	2
496.170	1	-12
496.340	1	-2
496.510	1	5
496.680	1	3
496.851	1	6
497.021	1	-1
497.191	1	-5
497.361	1	0
497.532	1	2
497.702	1	5
497.872	1	8
498.042	1	5
498.213	1	12
498.383	1	-4
498.553	1	9
498.723	1	2
498.894	1	9
499.064	1	10
499.234	1	4
499.404	1	7
499.574	1	2
499.745	1	-1
499.915	1	6
500.085	1	-9
500.255	1	8
500.426	1	-2
500.596	1	-2
500.766	1	5
500.936	1	1
501.106	1	5
501.277	1	-1
501.447	1	-10
501.617	1	3
501.787	1	-2
501.958	1	-4
502.128	1	0
502.298	1	15
502.468	1	7
502.638	1	1
502.809	1	-1
502.979	1	1
503.149	1	10
503.319	1	7
503.489	1	6
503.660	1	-7
503.830	1	5
504.000	1	-6
504.170	1	17
504.340	1	7
504.511	1	8
504.681	1	6
504.851	1	4
505.021	1	3
505.192	1	2
505.362	1	1
505.532	1	3
505.702	1	12
505.872	1	-3
506.043	1	8
506.213	1	5
506.383	1	9
506.553	1	10
506.723	1	8
506.893	1	6
507.064	1	-5
507.234	1	9
507.404	1	0
507.574	1	12
507.744	1	-7
507.915	1	6
508.085	1	14
508.255	1	6
508.425	1	8
508.595	1	1
508.766	1	0
508.936	1	10
509.106	1	1
509.276	1	8
509.446	1	-14
509.616	1	9
509.787	1	-2
509.957	1	3
510.127	1	8
510.297	1	-1
510.467	1	7
510.638	1	-7
510.808	1	-6
510.978	1	0
511.148	1	12
511.318	1	11
511.488	1	11
511.659	1	2
511.829	1	0
511.999	1	19
512.169	1	6
512.339	1	4
512.509	1	8
512.680	1	13
512.850	1	9
513.020	1	7
513.190	1	4
513.360	1	6
513.530	1	0
513.700	1	8
513.871	1	8
514.041	1	1
514.211	1	-11
514.381	1	8
514.551	1	4
514.721	1	0
514.892	1	3
515.062	1	7
515.232	1	15
515.402	1	4
515.572	1	4
515.742	1	1
515.912	1	13
516.083	1	5
516.253	1	9
516.423	1	20
516.593	1	7
516.763	1	2
516.933	1	7
517.104	1	4
517.274	1	10
517.444	1	5
517.614	1	9
517.784	1	3
517.954	1	-2
518.124	1	9
518.294	1	14
518.465	1	14
518.635	1	-1
518.805	1	7
518.975	1	8
519.145	1	11
519.315	1	8
519.485	1	8
519.656	1	8
519.826	1	12
519.996	1	11
520.166	1	20
520.336	1	3
520.506	1	14
520.676	1	6
520.846	1	11
521.017	1	-2
521.187	1	4
521.357	1	7
521.527	1	8
521.697	1	14
521.867	1	11
522.037	1	3
522.207	1	-8
522.377	1	4
522.548	1	1
522.718	1	-2
522.888	1	7
523.058	1	23
523.228	1	12
523.398	1	9
523.568	1	1
523.738	1	9
523.909	1	13
524.079	1	13
524.249	1	10
524.419	1	9
524.589	1	18
524.759	1	7
524.929	1	6
525.099	1	4
525.269	1	5
525.439	1	8
525.610	1	9
525.780	1	18
525.950	1	0
526.120	1	3
526.290	1	-1
526.460	1	12
526.630	1	12
526.800	1	12
526.970	1	5
527.140	1	3
527.311	1	8
527.481	1	12
527.651	1	22
527.821	1	11
527.991	1	6
528.161	1	4
528.331	1	5
528.501	1	7
528.671	1	11
528.841	1	9
529.011	1	3
529.181	1	10
529.352	1	16
529.522	1	15
529.692	1	9
529.862	1	15
530.032	1	8
530.202	1	8
530.372	1	5
530.542	1	15
530.712	1	16
530.882	1	8
531.052	1	2
531.222	1	7
531.392	1	12
531.563	1	16
531.733	1	12
531.903	1	11
532.073	1	9
532.243	1	0
532.413	1	12
532.583	1	1
532.753	1	8
532.923	1	5
533.093	1	10
533.263	1	7
533.433	1	10
533.603	1	5
533.773	1	4
533.943	1	5
534.113	1	7
534.284	1	9
534.454	1	14
534.624	1	6
534.794	1	6
534.964	1	7
535.134	1	11
535.304	1	18
535.474	1	16
535.644	1	10
535.814	1	9
535.984	1	9
536.154	1	10
536.324	1	14
536.494	1	17
536.664	1	6
536.834	1	7
537.004	1	17
537.174	1	19
537.344	1	14
537.514	1	17
537.685	1	5
537.855	1	2
538.025	1	12
538.195	1	6
538.365	1	23
538.535	1	13
538.705	1	3
538.875	1	5
539.045	1	9
539.215	1	-1
539.385	1	7
539.555	1	2
539.725	1	13
539.895	1	12
540.065	1	-3
540.235	1	-1
540.405	1	3
540.575	1	9
540.745	1	15
540.915	1	14
541.085	1	4
541.255	1	2
541.425	1	5
541.595	1	4
541.765	1	4
541.935	1	13
542.105	1	8
542.275	1	2
542.445	1	11
542.615	1	1
542.785	1	8
542.955	1	-3
543.125	1	7
543.295	1	1
543.465	1	17
543.635	1	6
543.805	1	10
543.975	1	14
544.145	1	4
544.315	1	8
544.485	1	7
544.655	1	6
544.825	1	12
544.995	1	5
545.165	1	10
545.335	1	10
545.505	1	4
545.675	1	3
545.845	1	-2
546.015	1	6
546.185	1	-4
546.355	1	9
546.525	1	8
546.695	1	8
546.865	1	2
547.035	1	19
547.205	1	7
547.375	1	8
547.545	1	13
547.715	1	3
547.885	1	-6
548.055	1	-8
548.225	1	1
548.395	1	19
548.565	1	12
548.735	1	21
548.905	1	2
549.075	1	-2
549.245	1	12
549.415	1	11
549.585	1	0
549.755	1	-2
549.925	1	19
550.095	1	16
550.265	1	6
550.435	1	8
550.605	1	11
550.775	1	-3
550.945	1	14
551.115	1	0
551.285	1	4
551.455	1	7
551.625	1	-1
551.795	1	10
551.965	1	8
552.135	1	2
552.305	1	7
552.475	1	1
552.645	1	22
552.815	1	5
552.985	1	13
553.155	1	16
553.325	1	20
553.495	1	1
553.665	1	2
553.835	1	10
554.004	1	10
554.174	1	4
554.344	1	3
554.514	1	8
554.684	1	14
554.854	1	15
555.024	1	12
555.194	1	11
555.364	1	10
555.534	1	3
555.704	1	11
555.874	1	-1
556.044	1	6
556.214	1	4
556.384	1	11
556.554	1	6
556.724	1	6
556.894	1	14
557.064	1	7
557.234	1	5
557.404	1	-4
557.573	1	11
557.743	1	10
557.913	1	7
558.083	1	0
558.253	1	3
558.423	1	-8
558.593	1	-1
558.763	1	7
558.933	1	11
559.103	1	9
559.273	1	6
559.443	1	1
559.613	1	7
559.783	1	5
559.953	1	-2
560.122	1	0
560.292	1	7
560.462	1	7
560.632	1	9
560.802	1	8
560.972	1	13
561.142	1	14
561.312	1	11
561.482	1	16
561.652	1	15
561.822	1	6
561.992	1	7
562.162	1	9
562.331	1	9
562.501	1	1
562.671	1	12
562.841	1	2
563.011	1	0
563.181	1	1
563.351	1	-2
563.521	1	11
563.691	1	5
563.861	1	9
564.031	1	-7
564.201	1	8
564.370	1	7
564.540	1	17
564.710	1	-9
564.880	1	7
565.050	1	-3
565.220	1	6
565.390	1	-2
565.560	1	18
565.730	1	7
565.900	1	10
566.069	1	7
566.239	1	0
566.409	1	0
566.579	1	12
566.749	1	5
566.919	1	12
567.089	1	9
567.259	1	11
567.429	1	11
567.599	1	-3
567.768	1	6
567.938	1	12
568.108	1	1
568.278	1	-5
568.448	1	5
568.618	1	1
568.788	1	-4
568.958	1	5
569.128	1	2
569.297	1	7
569.467	1	4
569.637	1	14
569.807	1	3
569.977	1	3
570.147	1	-5
570.317	1	16
570.487	1	10
570.656	1	-3
570.826	1	10
570.996	1	-2
571.166	1	7
571.336	1	0
571.506	1	4
571.676	1	5
571.846	1	11
572.015	1	-1
572.185	1	6
572.355	1	23
572.525	1	4
572.695	1	1
572.865	1	3
573.035	1	-2
573.205	1	11
573.374	1	-2
573.544	1	10
573.714	1	11
573.884	1	7
574.054	1	2
574.224	1	5
574.394	1	-7
574.563	1	8
574.733	1	1
574.903	1	14
575.073	1	1
575.243	1	2
575.413	1	10
575.583	1	8
575.752	1	-1
575.922	1	-5
576.092	1	6
576.262	1	10
576.432	1	-4
576.602	1	1
576.772	1	2
576.941	1	3
577.111	1	11
577.281	1	-3
577.451	1	-1
577.621	1	3
577.791	1	14
577.960	1	-1
578.130	1	1
578.300	1	0
578.470	1	1
578.640	1	-1
578.810	1	-1
578.979	1	5
579.149	1	2
579.319	1	5
579.489	1	1
579.659	1	7
579.829	1	11
579.998	1	-7
580.168	1	10
580.338	1	-15
580.508	1	11
580.678	1	-7
580.848	1	11
581.017	1	8
581.187	1	3
581.357	1	1
581.527	1	5
581.697	1	-13
581.867	1	7
582.036	1	10
582.206	1	-2
582.376	1	3
582.546	1	8
582.716	1	21
582.885	1	4
583.055	1	-3
583.225	1	5
583.395	1	6
583.565	1	17
583.735	1	-5
583.904	1	1
584.074	1	4
584.244	1	12
584.414	1	3
584.584	1	12
584.753	1	-3
584.923	1	8
585.093	1	3
585.263	1	-3
585.433	1	-5
585.602	1	9
585.772	1	1
585.942	1	22
586.112	1	11
586.282	1	3
586.451	1	-3
586.621	1	-1
586.791	1	9
586.961	1	1
587.131	1	-6
587.300	1	-5
587.470	1	6
587.640	1	-1
587.810	1	0
587.980	1	7
588.149	1	2
588.319	1	3
588.489	1	-5
588.659	1	3
588.829	1	4
588.998	1	-8
589.168	1	13
589.338	1	9
589.508	1	11
589.677	1	-1
589.847	1	-4
590.017	1	-10
590.187	1	1
590.357	1	-5
590.526	1	5
590.696	1	2
590.866	1	7
591.036	1	4
591.205	1	5
591.375	1	-9
591.545	1	-9
591.715	1	-12
591.885	1	5
592.054	1	2
592.224	1	5
592.394	1	4
592.564	1	-1
592.733	1	-3
592.903	1	6
593.073	1	6
593.243	1	-4
593.412	1	10
593.582	1	5
593.752	1	1
593.922	1	-1
594.091	1	9
594.261	1	4
594.431	1	0
594.601	1	-2
594.771	1	10
594.940	1	3
595.110	1	2
595.280	1	1
595.450	1	4
595.619	1	7
595.789	1	8
595.959	1	8
596.129	1	3
596.298	1	-2
596.468	1	2
596.638	1	3
596.808	1	4
596.977	1	-5
597.147	1	6
597.317	1	11
597.487	1	-1
597.656	1	-2
597.826	1	4
597.996	1	4
598.166	1	8
598.335	1	3
598.505	1	-2
598.675	1	6
598.844	1	-4
599.014	1	-9
599.184	1	0
599.354	1	-7
599.523	1	1
599.693	1	5
599.863	1	7
600.033	1	-2
600.202	1	-1
600.372	1	-3
600.542	1	5
600.712	1	9
600.881	1	2
601.051	1	13
601.221	1	5
601.390	1	0
601.560	1	-3
601.730	1	1
601.900	1	-5
602.069	1	-3
602.239	1	2
602.409	1	-2
602.578	1	10
602.748	1	-7
602.918	1	-3
603.088	1	2
603.257	1	15
603.427	1	5
603.597	1	24
603.767	1	-3
603.936	1	6
604.106	1	5
604.276	1	1
604.445	1	15
604.615	1	-3
604.785	1	-1
604.954	1	-1
605.124	1	-4
605.294	1	5
605.464	1	-1
605.633	1	12
605.803	1	3
605.973	1	-2
606.142	1	3
606.312	1	5
606.482	1	-10
606.652	1	-5
606.821	1	3
606.991	1	0
607.161	1	-1
607.330	1	16
607.500	1	2
607.670	1	1
607.839	1	7
608.009	1	0
608.179	1	8
608.348	1	0
608.518	1	2
608.688	1	4
608.858	1	0
609.027	1	4
609.197	1	-9
609.367	1	-2
609.536	1	1
609.706	1	0
609.876	1	7
610.045	1	5
610.215	1	-3
610.385	1	-2
610.554	1	-2
610.724	1	2
610.894	1	8
611.063	1	13
611.233	1	-3
611.403	1	0
611.572	1	4
611.742	1	-4
611.912	1	-6
612.081	1	-4
612.251	1	-7
612.421	1	15
612.590	1	2
612.760	1	1
612.930	1	5
613.099	1	-22
613.269	1	1
613.439	1	1
613.608	1	7
613.778	1	2
613.948	1	6
614.117	1	6
614.287	1	-8
614.457	1	3
614.626	1	7
614.796	1	11
614.966	1	3
615.135	1	-3
615.305	1	4
615.475	1	4
615.644	1	-8
615.814	1	2
615.984	1	9
616.153	1	13
616.323	1	0
616.493	1	0
616.662	1	-4
616.832	1	-1
617.002	1	0
617.171	1	2
617.341	1	4
617.511	1	-3
617.680	1	9
617.850	1	4
618.019	1	2
618.189	1	-1
618.359	1	2
618.528	1	2
618.698	1	0
618.868	1	6
619.037	1	4
619.207	1	-13
619.377	1	-10
619.546	1	-1
619.716	1	-7
619.885	1	6
620.055	1	9
620.225	1	-1
620.394	1	-1
620.564	1	2
620.734	1	8
620.903	1	7
621.073	1	-2
621.242	1	-4
621.412	1	3
621.582	1	-3
621.751	1	-2
621.921	1	2
622.091	1	-3
622.260	1	-4
622.430	1	0
622.599	1	2
622.769	1	3
622.939	1	4
623.108	1	-1
623.278	1	5
623.448	1	0
623.617	1	8
623.787	1	3
623.956	1	3
624.126	1	5
624.296	1	-2
624.465	1	9
624.635	1	4
624.804	1	-5
624.974	1	-5
625.144	1	-1
625.313	1	8
625.483	1	4
625.652	1	6
625.822	1	3
625.992	1	0
626.161	1	4
626.331	1	4
626.501	1	5
626.670	1	3
626.840	1	12
627.009	1	-10
627.179	1	2
627.348	1	-6
627.518	1	1
627.688	1	-7
627.857	1	6
628.027	1	6
628.196	1	7
628.366	1	4
628.536	1	4
628.705	1	-5
628.875	1	1
629.044	1	4
629.214	1	-4
629.384	1	-5
629.553	1	7
629.723	1	0
629.892	1	-2
630.062	1	6
630.232	1	6
630.401	1	0
630.571	1	1
630.740	1	9
630.910	1	-4
631.079	1	16
631.249	1	-3
631.419	1	1
631.588	1	-2
631.758	1	0
631.927	1	6
632.097	1	4
632.266	1	-2
632.436	1	-5
632.606	1	8
632.775	1	-1
632.945	1	1
633.114	1	3
633.284	1	-3
633.453	1	0
633.623	1	0
633.793	1	6
633.962	1	3
634.132	1	-5
634.301	1	3
634.471	1	-14
634.640	1	4
634.810	1	5
634.979	1	1
635.149	1	1
635.319	1	2
635.488	1	1
635.658	1	-2
635.827	1	8
635.997	1	1
636.166	1	-8
636.336	1	7
636.505	1	-3
636.675	1	1
636.845	1	4
637.014	1	-4
637.184	1	2
637.353	1	7
637.523	1	-9
637.692	1	6
637.862	1	-15
638.031	1	14
638.201	1	13
638.370	1	1
638.540	1	-1
638.710	1	-9
638.879	1	-2
639.049	1	6
639.218	1	1
639.388	1	2
639.557	1	8
639.727	1	-2
639.896	1	5
640.066	1	1
640.235	1	5
640.405	1	5
640.574	1	0
640.744	1	-4
640.914	1	-5
641.083	1	-2
641.253	1	0
641.422	1	4
641.592	1	-4
641.761	1	-3
641.931	1	7
642.100	1	-4
642.270	1	11
642.439	1	-5
642.609	1	4
642.778	1	-3
642.948	1	3
643.117	1	-3
643.287	1	3
643.456	1	10
643.626	1	5
643.795	1	6
643.965	1	-3
644.134	1	-2
644.304	1	-1
644.473	1	10
644.643	1	5
644.812	1	15
644.982	1	16
645.151	1	-2
645.321	1	8
645.490	1	9
645.660	1	6
645.829	1	-3
645.999	1	-3
646.168	1	6
646.338	1	10
646.507	1	0
646.677	1	-11
646.846	1	3
647.016	1	5
647.185	1	-1
647.355	1	-5
647.524	1	1
647.694	1	-3
647.863	1	-4
648.033	1	-10
648.202	1	6
648.372	1	3
648.541	1	4
648.711	1	6
648.880	1	-7
649.050	1	-5
649.219	1	4
649.389	1	-3
649.558	1	-4
649.728	1	6
649.897	1	-9
650.067	1	1
650.236	1	8
650.406	1	11
650.575	1	3
650.745	1	-5
650.914	1	-1
651.084	1	-1
651.253	1	10
651.423	1	-3
651.592	1	-3
651.762	1	11
651.931	1	3
652.101	1	6
652.270	1	4
652.440	1	4
652.609	1	-1
652.778	1	-5
652.948	1	-4
653.117	1	-1
653.287	1	7
653.456	1	1
653.626	1	14
653.795	1	7
653.965	1	5
654.134	1	8
654.304	1	4
654.473	1	1
654.643	1	13
654.812	1	1
654.982	1	-5
655.151	1	-7
655.320	1	0
655.490	1	11
655.659	1	2
655.829	1	-11
655.998	1	8
656.168	1	-3
656.337	1	-8
656.507	1	4
656.676	1	-1
656.846	1	-18
657.015	1	-6
657.184	1	2
657.354	1	5
657.523	1	-5
657.693	1	7
657.862	1	3
658.032	1	14
658.201	1	2
658.371	1	-7
658.540	1	3
658.709	1	-13
658.879	1	1
659.048	1	8
659.218	1	-6
659.387	1	-7
659.557	1	3
659.726	1	-9
659.895	1	4
660.065	1	-4
660.234	1	-2
660.404	1	2
660.573	1	-8
660.743	1	-6
660.912	1	1
661.081	1	1
661.251	1	3
661.420	1	-7
661.590	1	5
661.759	1	3
661.929	1	3
662.098	1	-16
662.267	1	11
662.437	1	-7
662.606	1	8
662.776	1	0
662.945	1	-2
663.115	1	-2
663.284	1	1
663.453	1	-1
663.623	1	6
663.792	1	-2
663.962	1	-3
664.131	1	-4
664.300	1	9
664.470	1	-2
664.639	1	2
664.809	1	2
664.978	1	2
665.148	1	-3
665.317	1	1
665.486	1	2
665.656	1	-3
665.825	1	8
665.995	1	9
666.164	1	-3
666.333	1	9
666.503	1	0
666.672	1	-13
666.842	1	-1
667.011	1	5
667.180	1	2
667.350	1	0
667.519	1	0
667.689	1	-10
667.858	1	-2
668.027	1	-9
668.197	1	-3
668.366	1	-5
668.536	1	6
668.705	1	6
668.874	1	0
669.044	1	-5
669.213	1	-2
669.382	1	-3
669.552	1	4
669.721	1	-12
669.891	1	3
670.060	1	6
670.229	1	3
670.399	1	14
670.568	1	1
670.738	1	-2
670.907	1	-8
671.076	1	17
671.246	1	-5
671.415	1	1
671.584	1	0
671.754	1	-8
671.923	1	-5
672.093	1	10
672.262	1	2
672.431	1	2
672.601	1	-13
672.770	1	1
672.939	1	-15
673.109	1	-5
673.278	1	4
673.448	1	0
673.617	1	9
673.786	1	-2
