325.333	1	-7
325.504	1	5
325.675	1	-1
325.846	1	4
326.017	1	0
326.188	1	10
326.359	1	-1
326.531	1	-2
326.702	1	2
326.873	1	5
327.044	1	5
327.215	1	7
327.386	1	4
327.557	1	5
327.728	1	6
327.899	1	-3
328.070	1	1
328.241	1	-8
328.412	1	13
328.583	1	-7
328.754	1	5
328.926	1	0
329.097	1	8
329.268	1	12
329.439	1	-3
329.610	1	-4
329.781	1	1
329.952	1	18
330.123	1	0
330.294	1	17
330.465	1	-6
330.636	1	5
330.807	1	6
330.978	1	7
331.149	1	10
331.320	1	5
331.492	1	-5
331.663	1	-8
331.834	1	9
332.005	1	9
332.176	1	7
332.347	1	3
332.518	1	11
332.689	1	3
332.860	1	5
333.031	1	4
333.202	1	2
333.373	1	-6
333.544	1	3
333.715	1	-4
333.886	1	13
334.057	1	-11
334.228	1	1
334.399	1	3
334.570	1	-1
334.741	1	1
334.912	1	4
335.084	1	-1
335.255	1	2
335.426	1	-7
335.597	1	-4
335.768	1	6
335.939	1	2
336.110	1	-5
336.281	1	-9
336.452	1	6
336.623	1	6
336.794	1	-2
336.965	1	-1
337.136	1	3
337.307	1	11
337.478	1	8
337.649	1	0
337.820	1	16
337.991	1	7
338.162	1	-1
338.333	1	1
338.504	1	5
338.675	1	12
338.846	1	2
339.017	1	-7
339.188	1	0
339.359	1	-3
339.530	1	1
339.701	1	9
339.872	1	1
340.043	1	0
340.214	1	2
340.385	1	5
340.556	1	5
340.727	1	1
340.898	1	0
341.069	1	-7
341.240	1	-3
341.411	1	4
341.582	1	3
341.753	1	13
341.924	1	-2
342.095	1	11
342.266	1	0
342.437	1	3
342.608	1	-3
342.779	1	8
342.950	1	9
343.121	1	8
343.292	1	-4
343.463	1	4
343.634	1	0
343.805	1	5
343.976	1	9
344.147	1	7
344.318	1	6
344.489	1	-6
344.660	1	19
344.831	1	0
345.002	1	7
345.173	1	8
345.344	1	1
345.515	1	2
345.686	1	6
345.857	1	4
346.028	1	-10
346.199	1	0
346.370	1	-5
346.541	1	-1
346.712	1	6
346.883	1	2
347.054	1	7
347.225	1	11
347.396	1	1
347.567	1	4
347.738	1	9
347.909	1	3
348.080	1	-8
348.251	1	22
348.422	1	12
348.593	1	11
348.764	1	-2
348.935	1	10
349.106	1	6
349.277	1	-9
349.448	1	1
349.619	1	8
349.790	1	4
349.961	1	2
350.132	1	4
350.303	1	-3
350.474	1	4
350.645	1	5
350.816	1	3
350.987	1	10
351.157	1	10
351.328	1	6
351.499	1	6
351.670	1	12
351.841	1	-2
352.012	1	-6
352.183	1	8
352.354	1	15
352.525	1	9
352.696	1	6
352.867	1	0
353.038	1	22
353.209	1	9
353.380	1	11
353.551	1	12
353.722	1	11
353.893	1	15
354.064	1	7
354.235	1	5
354.406	1	1
354.576	1	10
354.747	1	11
354.918	1	-10
355.089	1	6
355.260	1	5
355.431	1	15
355.602	1	16
355.773	1	2
355.944	1	10
356.115	1	-1
356.286	1	16
356.457	1	7
356.628	1	9
356.799	1	5
356.970	1	4
357.141	1	0
357.311	1	16
357.482	1	12
357.653	1	9
357.824	1	13
357.995	1	16
358.166	1	8
358.337	1	22
358.508	1	19
358.679	1	15
358.850	1	6
359.021	1	9
359.192	1	17
359.363	1	15
359.533	1	17
359.704	1	19
359.875	1	15
360.046	1	13
360.217	1	24
360.388	1	26
360.559	1	20
360.730	1	14
360.901	1	27
361.072	1	21
361.243	1	18
361.414	1	23
361.584	1	30
361.755	1	31
361.926	1	31
362.097	1	25
362.268	1	27
362.439	1	32
362.610	1	32
362.781	1	32
362.952	1	48
363.123	1	43
363.293	1	42
363.464	1	46
363.635	1	43
363.806	1	57
363.977	1	59
364.148	1	46
364.319	1	45
364.490	1	42
364.661	1	67
364.832	1	58
365.002	1	70
365.173	1	56
365.344	1	50
365.515	1	54
365.686	1	59
365.857	1	66
366.028	1	61
366.199	1	70
366.370	1	70
366.540	1	72
366.711	1	66
366.882	1	67
367.053	1	74
367.224	1	72
367.395	1	64
367.566	1	70
367.737	1	48
367.908	1	64
368.078	1	59
368.249	1	61
368.420	1	56
368.591	1	65
368.762	1	45
368.933	1	59
369.104	1	46
369.274	1	48
369.445	1	49
369.616	1	43
369.787	1	52
369.958	1	42
370.129	1	58
370.300	1	46
370.471	1	50
370.641	1	44
370.812	1	45
370.983	1	42
371.154	1	44
371.325	1	38
371.496	1	31
371.667	1	46
371.837	1	32
372.008	1	40
372.179	1	34
372.350	1	31
372.521	1	38
372.692	1	37
372.863	1	36
373.033	1	45
373.204	1	25
373.375	1	31
373.546	1	35
373.717	1	29
373.888	1	21
374.059	1	32
374.229	1	16
374.400	1	17
374.571	1	32
374.742	1	31
374.913	1	19
375.084	1	12
375.254	1	24
375.425	1	24
375.596	1	17
375.767	1	30
375.938	1	24
376.109	1	20
376.279	1	15
376.450	1	18
376.621	1	35
376.792	1	17
376.963	1	25
377.134	1	8
377.304	1	23
377.475	1	25
377.646	1	21
377.817	1	27
377.988	1	15
378.159	1	27
378.329	1	28
378.500	1	13
378.671	1	13
378.842	1	9
379.013	1	26
379.184	1	26
379.354	1	20
379.525	1	44
379.696	1	15
379.867	1	27
380.038	1	27
380.209	1	20
380.379	1	15
380.550	1	32
380.721	1	40
380.892	1	28
381.063	1	41
381.233	1	42
381.404	1	36
381.575	1	30
381.746	1	46
381.917	1	35
382.087	1	34
382.258	1	50
382.429	1	44
382.600	1	57
382.771	1	52
382.941	1	57
383.112	1	52
383.283	1	59
383.454	1	48
383.625	1	65
383.795	1	70
383.966	1	73
384.137	1	67
384.308	1	80
384.479	1	83
384.649	1	81
384.820	1	82
384.991	1	79
385.162	1	78
385.333	1	95
385.503	1	85
385.674	1	83
385.845	1	104
386.016	1	89
386.187	1	97
386.357	1	91
386.528	1	99
386.699	1	105
386.870	1	112
387.041	1	81
387.211	1	95
387.382	1	96
387.553	1	92
387.724	1	91
387.894	1	97
388.065	1	99
388.236	1	103
388.407	1	100
388.578	1	86
388.748	1	86
388.919	1	81
389.090	1	103
389.261	1	74
389.431	1	83
389.602	1	98
389.773	1	77
389.944	1	89
390.114	1	85
390.285	1	80
390.456	1	79
390.627	1	66
390.798	1	89
390.968	1	78
391.139	1	83
391.310	1	86
391.481	1	67
391.651	1	93
391.822	1	93
391.993	1	80
392.164	1	68
392.334	1	74
392.505	1	81
392.676	1	73
392.847	1	78
393.017	1	67
393.188	1	77
393.359	1	74
393.530	1	75
393.700	1	73
393.871	1	78
394.042	1	84
394.213	1	79
394.383	1	75
394.554	1	81
394.725	1	63
394.896	1	59
395.066	1	93
395.237	1	81
395.408	1	70
395.579	1	81
395.749	1	76
395.920	1	93
396.091	1	76
396.262	1	80
396.432	1	72
396.603	1	90
396.774	1	83
396.945	1	92
397.115	1	88
397.286	1	89
397.457	1	86
397.627	1	83
397.798	1	76
397.969	1	82
398.140	1	77
398.310	1	90
398.481	1	86
398.652	1	87
398.823	1	95
398.993	1	79
399.164	1	84
399.335	1	78
399.505	1	81
399.676	1	70
399.847	1	80
400.018	1	84
400.188	1	68
400.359	1	72
400.530	1	71
400.700	1	67
400.871	1	55
401.042	1	69
401.213	1	66
401.383	1	77
401.554	1	70
401.725	1	71
401.895	1	70
402.066	1	64
402.237	1	60
402.408	1	60
402.578	1	62
402.749	1	48
402.920	1	51
403.090	1	58
403.261	1	59
403.432	1	63
403.603	1	60
403.773	1	60
403.944	1	59
404.115	1	44
404.285	1	59
404.456	1	57
404.627	1	56
404.797	1	68
404.968	1	59
405.139	1	46
405.310	1	57
405.480	1	69
405.651	1	61
405.822	1	54
405.992	1	53
406.163	1	65
406.334	1	53
406.504	1	53
406.675	1	68
406.846	1	53
407.016	1	54
407.187	1	52
407.358	1	47
407.528	1	46
407.699	1	57
407.870	1	53
408.041	1	51
408.211	1	53
408.382	1	61
408.553	1	65
408.723	1	48
408.894	1	44
409.065	1	65
409.235	1	51
409.406	1	50
409.577	1	60
409.747	1	53
409.918	1	51
410.089	1	37
410.259	1	41
410.430	1	53
410.601	1	54
410.771	1	44
410.942	1	55
411.113	1	52
411.283	1	29
411.454	1	40
411.625	1	47
411.795	1	56
411.966	1	36
412.137	1	43
412.307	1	44
412.478	1	40
412.649	1	44
412.819	1	45
412.990	1	46
413.161	1	37
413.331	1	25
413.502	1	52
413.672	1	43
413.843	1	35
414.014	1	34
414.184	1	29
414.355	1	30
414.526	1	39
414.696	1	34
414.867	1	46
415.038	1	32
415.208	1	23
415.379	1	36
415.550	1	40
415.720	1	23
415.891	1	37
416.062	1	36
416.232	1	20
416.403	1	36
416.573	1	29
416.744	1	36
416.915	1	38
417.085	1	38
417.256	1	36
417.427	1	36
417.597	1	18
417.768	1	34
417.939	1	35
418.109	1	41
418.280	1	36
418.450	1	42
418.621	1	36
418.792	1	35
418.962	1	37
419.133	1	21
419.304	1	35
419.474	1	37
419.645	1	35
419.815	1	32
419.986	1	32
420.157	1	22
420.327	1	35
420.498	1	17
420.669	1	40
420.839	1	25
421.010	1	26
421.180	1	26
421.351	1	21
421.522	1	31
421.692	1	26
421.863	1	15
422.033	1	21
422.204	1	19
422.375	1	12
422.545	1	29
422.716	1	25
422.886	1	25
423.057	1	19
423.228	1	15
423.398	1	14
423.569	1	23
423.740	1	9
423.910	1	4
424.081	1	24
424.251	1	17
424.422	1	14
424.593	1	27
424.763	1	14
424.934	1	22
425.104	1	29
425.275	1	16
425.445	1	14
425.616	1	16
425.787	1	12
425.957	1	33
426.128	1	22
426.298	1	16
426.469	1	13
426.640	1	5
426.810	1	18
426.981	1	11
427.151	1	18
427.322	1	18
427.493	1	12
427.663	1	18
427.834	1	18
428.004	1	12
428.175	1	12
428.345	1	25
428.516	1	13
428.687	1	20
428.857	1	14
429.028	1	15
429.198	1	9
429.369	1	23
429.540	1	22
429.710	1	15
429.881	1	24
430.051	1	13
430.222	1	13
430.392	1	12
430.563	1	25
430.734	1	15
430.904	1	20
431.075	1	28
431.245	1	24
431.416	1	11
431.586	1	5
431.757	1	11
431.927	1	17
432.098	1	4
432.269	1	17
432.439	1	17
432.610	1	8
432.780	1	10
432.951	1	12
433.121	1	22
433.292	1	14
433.462	1	17
433.633	1	5
433.804	1	6
433.974	1	-3
434.145	1	21
434.315	1	7
434.486	1	26
434.656	1	15
434.827	1	15
434.997	1	25
435.168	1	3
435.339	1	8
435.509	1	21
435.680	1	3
435.850	1	12
436.021	1	16
436.191	1	5
436.362	1	10
436.532	1	14
436.703	1	16
436.873	1	9
437.044	1	16
437.214	1	4
437.385	1	6
437.556	1	-1
437.726	1	9
437.897	1	8
438.067	1	13
438.238	1	2
438.408	1	15
438.579	1	16
438.749	1	10
438.920	1	13
439.090	1	21
439.261	1	9
439.431	1	7
439.602	1	0
439.772	1	10
439.943	1	17
440.113	1	4
440.284	1	23
440.455	1	3
440.625	1	9
440.796	1	9
440.966	1	18
441.137	1	-1
441.307	1	8
441.478	1	9
441.648	1	10
441.819	1	7
441.989	1	2
442.160	1	9
442.330	1	22
442.501	1	5
442.671	1	20
442.842	1	7
443.012	1	17
443.183	1	7
443.353	1	16
443.524	1	11
443.694	1	10
443.865	1	13
444.035	1	1
444.206	1	19
444.376	1	1
444.547	1	-1
444.717	1	13
444.888	1	2
445.058	1	19
445.229	1	11
445.399	1	17
445.570	1	9
445.740	1	2
445.911	1	21
446.081	1	14
446.252	1	-7
446.422	1	6
446.593	1	2
446.763	1	9
446.934	1	5
447.104	1	-1
447.275	1	-2
447.445	1	3
447.616	1	6
447.786	1	16
447.957	1	14
448.127	1	3
448.298	1	6
448.468	1	15
448.639	1	10
448.809	1	7
448.979	1	10
449.150	1	4
449.320	1	4
449.491	1	12
449.661	1	7
449.832	1	1
450.002	1	7
450.173	1	-1
450.343	1	2
450.514	1	10
450.684	1	1
450.855	1	13
451.025	1	6
451.196	1	6
451.366	1	7
451.537	1	10
451.707	1	3
451.878	1	3
452.048	1	-2
452.218	1	3
452.389	1	4
452.559	1	8
452.730	1	14
452.900	1	4
453.071	1	6
453.241	1	-1
453.412	1	1
453.582	1	18
453.753	1	4
453.923	1	5
454.093	1	1
454.264	1	1
454.434	1	11
454.605	1	9
454.775	1	10
454.946	1	9
455.116	1	5
455.287	1	19
455.457	1	5
455.628	1	1
455.798	1	-7
455.968	1	5
456.139	1	13
456.309	1	4
456.480	1	-2
456.650	1	6
456.821	1	7
456.991	1	15
457.161	1	12
457.332	1	2
457.502	1	9
457.673	1	0
457.843	1	9
458.014	1	4
458.184	1	10
458.355	1	19
458.525	1	3
458.695	1	10
458.866	1	7
459.036	1	10
459.207	1	8
459.377	1	2
459.548	1	5
459.718	1	0
459.888	1	14
460.059	1	5
460.229	1	13
460.400	1	3
460.570	1	3
460.740	1	-3
460.911	1	21
461.081	1	1
461.252	1	4
461.422	1	-2
461.593	1	-3
461.763	1	0
461.933	1	-1
462.104	1	5
462.274	1	3
462.445	1	2
462.615	1	6
462.785	1	-1
462.956	1	-6
463.126	1	-2
463.297	1	-6
463.467	1	11
463.638	1	7
463.808	1	4
463.978	1	9
464.149	1	4
464.319	1	11
464.490	1	-1
464.660	1	8
464.830	1	3
465.001	1	7
465.171	1	3
465.342	1	11
465.512	1	7
465.682	1	-2
465.853	1	12
466.023	1	9
466.194	1	18
466.364	1	12
466.534	1	2
466.705	1	0
466.875	1	7
467.045	1	11
467.216	1	4
467.386	1	2
467.557	1	7
467.727	1	7
467.897	1	16
468.068	1	5
468.238	1	-5
468.409	1	9
468.579	1	6
468.749	1	6
468.920	1	2
469.090	1	16
469.260	1	7
469.431	1	3
469.601	1	11
469.772	1	-12
469.942	1	14
470.112	1	0
470.283	1	19
470.453	1	4
470.623	1	2
470.794	1	6
470.964	1	2
471.135	1	-7
471.305	1	-2
471.475	1	8
471.646	1	11
471.816	1	8
471.986	1	0
472.157	1	8
472.327	1	8
472.497	1	-3
472.668	1	7
472.838	1	11
473.009	1	7
473.179	1	8
473.349	1	13
473.520	1	9
473.690	1	13
473.860	1	0
474.031	1	11
474.201	1	-2
474.371	1	6
474.542	1	3
474.712	1	6
474.882	1	5
475.053	1	-3
475.223	1	3
475.394	1	6
475.564	1	33
475.734	1	2
475.905	1	5
476.075	1	13
476.245	1	3
476.416	1	1
476.586	1	-6
476.756	1	-3
476.927	1	16
477.097	1	-4
477.267	1	2
477.438	1	5
477.608	1	9
477.778	1	6
477.949	1	8
478.119	1	15
478.289	1	-1
478.460	1	-2
478.630	1	4
478.800	1	-2
478.971	1	3
479.141	1	8
479.311	1	9
479.482	1	-3
479.652	1	8
479.822	1	3
479.993	1	9
480.163	1	5
480.333	1	6
480.504	1	8
480.674	1	13
480.844	1	7
481.015	1	-1
481.185	1	9
481.355	1	13
481.525	1	6
481.696	1	3
481.866	1	-3
482.036	1	4
482.207	1	13
482.377	1	5
482.547	1	3
482.718	1	11
482.888	1	-2
483.058	1	0
483.229	1	10
483.399	1	-2
483.569	1	6
483.740	1	-12
483.910	1	9
484.080	1	-1
484.250	1	15
484.421	1	10
484.591	1	13
484.761	1	4
484.932	1	8
485.102	1	14
485.272	1	19
485.443	1	18
485.613	1	-2
485.783	1	14
485.953	1	6
486.124	1	12
486.294	1	10
486.464	1	-1
486.635	1	16
486.805	1	17
486.975	1	-4
487.146	1	6
487.316	1	16
487.486	1	17
487.656	1	1
487.827	1	9
487.997	1	7
488.167	1	10
488.338	1	19
488.508	1	16
488.678	1	16
488.848	1	6
489.019	1	1
489.189	1	5
489.359	1	8
489.529	1	8
489.700	1	5
489.870	1	5
490.040	1	8
490.211	1	21
490.381	1	6
490.551	1	-1
490.721	1	6
490.892	1	10
491.062	1	15
491.232	1	12
491.402	1	-4
491.573	1	16
491.743	1	5
491.913	1	15
492.084	1	18
492.254	1	16
492.424	1	7
492.594	1	11
492.765	1	25
492.935	1	9
493.105	1	13
493.275	1	12
493.446	1	12
493.616	1	15
493.786	1	20
493.956	1	12
494.127	1	18
494.297	1	3
494.467	1	20
494.637	1	16
494.808	1	26
494.978	1	8
495.148	1	17
495.318	1	24
495.489	1	8
495.659	1	15
495.829	1	20
495.999	1	16
496.170	1	2
496.340	1	17
496.510	1	17
496.680	1	4
496.851	1	18
497.021	1	15
497.191	1	17
497.361	1	13
497.532	1	20
497.702	1	14
497.872	1	17
498.042	1	16
498.213	1	18
498.383	1	13
498.553	1	18
498.723	1	6
498.894	1	19
499.064	1	25
499.234	1	14
499.404	1	24
499.574	1	11
499.745	1	21
499.915	1	19
500.085	1	13
500.255	1	20
500.426	1	13
500.596	1	17
500.766	1	20
500.936	1	15
501.106	1	19
501.277	1	25
501.447	1	17
501.617	1	23
501.787	1	17
501.958	1	9
502.128	1	16
502.298	1	35
502.468	1	23
502.638	1	23
502.809	1	38
502.979	1	19
503.149	1	12
503.319	1	30
503.489	1	27
503.660	1	16
503.830	1	28
504.000	1	18
504.170	1	24
504.340	1	14
504.511	1	33
504.681	1	22
504.851	1	21
505.021	1	23
505.192	1	41
505.362	1	30
505.532	1	32
505.702	1	37
505.872	1	21
506.043	1	32
506.213	1	42
506.383	1	44
506.553	1	42
506.723	1	38
506.893	1	28
507.064	1	31
507.234	1	43
507.404	1	26
507.574	1	30
507.744	1	20
507.915	1	24
508.085	1	54
508.255	1	35
508.425	1	41
508.595	1	34
508.766	1	31
508.936	1	34
509.106	1	29
509.276	1	36
509.446	1	33
509.616	1	40
509.787	1	27
509.957	1	36
510.127	1	51
510.297	1	39
510.467	1	44
510.638	1	37
510.808	1	29
510.978	1	31
511.148	1	42
511.318	1	37
511.488	1	38
511.659	1	39
511.829	1	39
511.999	1	51
512.169	1	48
512.339	1	39
512.509	1	43
512.680	1	39
512.850	1	36
513.020	1	44
513.190	1	44
513.360	1	48
513.530	1	32
513.700	1	39
513.871	1	44
514.041	1	44
514.211	1	31
514.381	1	44
514.551	1	42
514.721	1	48
514.892	1	39
515.062	1	50
515.232	1	50
515.402	1	41
515.572	1	31
515.742	1	58
515.912	1	46
516.083	1	43
516.253	1	39
516.423	1	49
516.593	1	50
516.763	1	46
516.933	1	45
517.104	1	53
517.274	1	54
517.444	1	68
517.614	1	40
517.784	1	34
517.954	1	45
518.124	1	57
518.294	1	53
518.465	1	57
518.635	1	45
518.805	1	53
518.975	1	48
519.145	1	56
519.315	1	46
519.485	1	48
519.656	1	42
519.826	1	43
519.996	1	64
520.166	1	50
520.336	1	36
520.506	1	49
520.676	1	43
520.846	1	47
521.017	1	36
521.187	1	50
521.357	1	43
521.527	1	53
521.697	1	46
521.867	1	56
522.037	1	51
522.207	1	61
522.377	1	52
522.548	1	42
522.718	1	46
522.888	1	44
523.058	1	64
523.228	1	61
523.398	1	52
523.568	1	39
523.738	1	49
523.909	1	53
524.079	1	51
524.249	1	56
524.419	1	48
524.589	1	64
524.759	1	47
524.929	1	61
525.099	1	47
525.269	1	61
525.439	1	49
525.610	1	49
525.780	1	59
525.950	1	44
526.120	1	50
526.290	1	38
526.460	1	51
526.630	1	50
526.800	1	51
526.970	1	42
527.140	1	57
527.311	1	53
527.481	1	61
527.651	1	73
527.821	1	49
527.991	1	52
528.161	1	56
528.331	1	65
528.501	1	45
528.671	1	54
528.841	1	60
529.011	1	47
529.181	1	47
529.352	1	59
529.522	1	61
529.692	1	69
529.862	1	58
530.032	1	59
530.202	1	54
530.372	1	54
530.542	1	53
530.712	1	67
530.882	1	52
531.052	1	60
531.222	1	46
531.392	1	53
531.563	1	64
531.733	1	66
531.903	1	69
532.073	1	57
532.243	1	54
532.413	1	59
532.583	1	59
532.753	1	61
532.923	1	58
533.093	1	62
533.263	1	60
533.433	1	57
533.603	1	52
533.773	1	59
533.943	1	63
534.113	1	64
534.284	1	65
534.454	1	65
534.624	1	72
534.794	1	60
534.964	1	36
535.134	1	56
535.304	1	67
535.474	1	56
535.644	1	60
535.814	1	57
535.984	1	54
536.154	1	58
536.324	1	58
536.494	1	63
536.664	1	60
536.834	1	54
537.004	1	59
537.174	1	62
537.344	1	64
537.514	1	63
537.685	1	54
537.855	1	61
538.025	1	61
538.195	1	56
538.365	1	66
538.535	1	56
538.705	1	51
538.875	1	54
539.045	1	57
539.215	1	39
539.385	1	54
539.555	1	59
539.725	1	49
539.895	1	53
540.065	1	57
540.235	1	40
540.405	1	53
540.575	1	54
540.745	1	56
540.915	1	50
541.085	1	51
541.255	1	41
541.425	1	50
541.595	1	52
541.765	1	47
541.935	1	56
542.105	1	54
542.275	1	57
542.445	1	58
542.615	1	41
542.785	1	48
542.955	1	55
543.125	1	51
543.295	1	55
543.465	1	61
543.635	1	49
543.805	1	54
543.975	1	52
544.145	1	48
544.315	1	44
544.485	1	43
544.655	1	63
544.825	1	61
544.995	1	49
545.165	1	61
545.335	1	50
545.505	1	50
545.675	1	57
545.845	1	49
546.015	1	42
546.185	1	38
546.355	1	54
546.525	1	55
546.695	1	39
546.865	1	50
547.035	1	61
547.205	1	45
547.375	1	54
547.545	1	50
547.715	1	56
547.885	1	48
548.055	1	57
548.225	1	46
548.395	1	57
548.565	1	54
548.735	1	58
548.905	1	39
549.075	1	46
549.245	1	57
549.415	1	61
549.585	1	50
549.755	1	40
549.925	1	53
550.095	1	55
550.265	1	33
550.435	1	53
550.605	1	49
550.775	1	44
550.945	1	43
551.115	1	42
551.285	1	54
551.455	1	49
551.625	1	37
551.795	1	46
551.965	1	50
552.135	1	45
552.305	1	49
552.475	1	35
552.645	1	57
552.815	1	39
552.985	1	56
553.155	1	57
553.325	1	56
553.495	1	44
553.665	1	36
553.835	1	38
554.004	1	43
554.174	1	44
554.344	1	43
554.514	1	42
554.684	1	46
554.854	1	50
555.024	1	40
555.194	1	51
555.364	1	53
555.534	1	35
555.704	1	34
555.874	1	34
556.044	1	38
556.214	1	41
556.384	1	47
556.554	1	32
556.724	1	30
556.894	1	42
557.064	1	35
557.234	1	46
557.404	1	35
557.573	1	40
557.743	1	36
557.913	1	39
558.083	1	31
558.253	1	31
558.423	1	36
558.593	1	32
558.763	1	36
558.933	1	44
559.103	1	37
559.273	1	38
559.443	1	39
559.613	1	34
559.783	1	39
559.953	1	39
560.122	1	32
560.292	1	38
560.462	1	36
560.632	1	40
560.802	1	34
560.972	1	42
561.142	1	46
561.312	1	43
561.482	1	34
561.652	1	43
561.822	1	31
561.992	1	39
562.162	1	35
562.331	1	33
562.501	1	31
562.671	1	30
562.841	1	26
563.011	1	38
563.181	1	35
563.351	1	23
563.521	1	42
563.691	1	33
563.861	1	26
564.031	1	34
564.201	1	34
564.370	1	37
564.540	1	47
564.710	1	26
564.880	1	36
565.050	1	30
565.220	1	35
565.390	1	29
565.560	1	37
565.730	1	35
565.900	1	28
566.069	1	36
566.239	1	29
566.409	1	30
566.579	1	36
566.749	1	29
566.919	1	33
567.089	1	32
567.259	1	34
567.429	1	26
567.599	1	28
567.768	1	21
567.938	1	21
568.108	1	23
568.278	1	16
568.448	1	18
568.618	1	26
568.788	1	17
568.958	1	23
569.128	1	21
569.297	1	32
569.467	1	24
569.637	1	15
569.807	1	23
569.977	1	26
570.147	1	33
570.317	1	37
570.487	1	26
570.656	1	21
570.826	1	17
570.996	1	15
571.166	1	24
571.336	1	23
571.506	1	23
571.676	1	37
571.846	1	20
572.015	1	25
572.185	1	15
572.355	1	37
572.525	1	21
572.695	1	26
572.865	1	25
573.035	1	17
573.205	1	36
573.374	1	30
573.544	1	25
573.714	1	18
573.884	1	24
574.054	1	21
574.224	1	22
574.394	1	16
574.563	1	25
574.733	1	24
574.903	1	20
575.073	1	22
575.243	1	8
575.413	1	21
575.583	1	29
575.752	1	22
575.922	1	17
576.092	1	21
576.262	1	28
576.432	1	5
576.602	1	22
576.772	1	33
576.941	1	21
577.111	1	19
577.281	1	24
577.451	1	17
577.621	1	14
577.791	1	25
577.960	1	14
578.130	1	23
578.300	1	12
578.470	1	19
578.640	1	14
578.810	1	19
578.979	1	16
579.149	1	16
579.319	1	21
579.489	1	17
579.659	1	18
579.829	1	22
579.998	1	13
580.168	1	25
580.338	1	1
580.508	1	19
580.678	1	13
580.848	1	19
581.017	1	6
581.187	1	17
581.357	1	19
581.527	1	26
581.697	1	-3
581.867	1	18
582.036	1	25
582.206	1	4
582.376	1	25
582.546	1	16
582.716	1	17
582.885	1	15
583.055	1	22
583.225	1	21
583.395	1	25
583.565	1	35
583.735	1	15
583.904	1	21
584.074	1	10
584.244	1	15
584.414	1	14
584.584	1	26
584.753	1	20
584.923	1	16
585.093	1	20
585.263	1	12
585.433	1	15
585.602	1	9
585.772	1	18
585.942	1	21
586.112	1	25
586.282	1	15
586.451	1	20
586.621	1	7
586.791	1	13
586.961	1	10
587.131	1	13
587.300	1	4
587.470	1	14
587.640	1	4
587.810	1	14
587.980	1	14
588.149	1	12
588.319	1	17
588.489	1	15
588.659	1	2
588.829	1	12
588.998	1	10
589.168	1	21
589.338	1	14
589.508	1	21
589.677	1	11
589.847	1	15
590.017	1	7
590.187	1	15
590.357	1	10
590.526	1	13
590.696	1	14
590.866	1	12
591.036	1	6
591.205	1	20
591.375	1	0
591.545	1	11
591.715	1	10
591.885	1	12
592.054	1	11
592.224	1	13
592.394	1	15
592.564	1	-1
592.733	1	11
592.903	1	24
593.073	1	17
593.243	1	10
593.412	1	11
593.582	1	16
593.752	1	18
593.922	1	10
594.091	1	15
594.261	1	15
594.431	1	11
594.601	1	-7
594.771	1	8
594.940	1	6
595.110	1	12
595.280	1	15
595.450	1	12
595.619	1	14
595.789	1	4
595.959	1	9
596.129	1	0
596.298	1	10
596.468	1	16
596.638	1	10
596.808	1	13
596.977	1	12
597.147	1	16
597.317	1	19
597.487	1	17
597.656	1	6
597.826	1	12
597.996	1	2
598.166	1	10
598.335	1	14
598.505	1	18
598.675	1	3
598.844	1	15
599.014	1	6
599.184	1	5
599.354	1	8
599.523	1	12
599.693	1	20
599.863	1	18
600.033	1	6
600.202	1	15
600.372	1	8
600.542	1	8
600.712	1	15
600.881	1	9
601.051	1	15
601.221	1	2
601.390	1	-2
601.560	1	3
601.730	1	15
601.900	1	14
602.069	1	4
602.239	1	11
602.409	1	8
602.578	1	8
602.748	1	-2
602.918	1	4
603.088	1	9
603.257	1	13
603.427	1	9
603.597	1	21
603.767	1	4
603.936	1	16
604.106	1	17
604.276	1	10
604.445	1	12
604.615	1	3
604.785	1	17
604.954	1	11
605.124	1	7
605.294	1	14
605.464	1	8
605.633	1	13
605.803	1	13
605.973	1	6
606.142	1	14
606.312	1	3
606.482	1	8
606.652	1	3
606.821	1	18
606.991	1	8
607.161	1	5
607.330	1	17
607.500	1	15
607.670	1	10
607.839	1	16
608.009	1	-5
608.179	1	16
608.348	1	11
608.518	1	16
608.688	1	20
608.858	1	15
609.027	1	15
609.197	1	-8
609.367	1	2
609.536	1	-2
609.706	1	13
609.876	1	-2
610.045	1	3
610.215	1	2
610.385	1	6
610.554	1	0
610.724	1	14
610.894	1	23
611.063	1	18
611.233	1	-4
611.403	1	18
611.572	1	11
611.742	1	13
611.912	1	14
612.081	1	8
612.251	1	11
612.421	1	24
612.590	1	10
612.760	1	3
612.930	1	12
613.099	1	-1
613.269	1	9
613.439	1	-3
613.608	1	21
613.778	1	3
613.948	1	16
614.117	1	18
614.287	1	7
614.457	1	12
614.626	1	4
614.796	1	10
614.966	1	3
615.135	1	0
615.305	1	5
615.475	1	12
615.644	1	6
615.814	1	17
615.984	1	13
616.153	1	10
616.323	1	1
616.493	1	8
616.662	1	7
616.832	1	4
617.002	1	4
617.171	1	0
617.341	1	19
617.511	1	6
617.680	1	9
617.850	1	-2
618.019	1	7
618.189	1	6
618.359	1	5
618.528	1	4
618.698	1	2
618.868	1	8
619.037	1	13
619.207	1	11
619.377	1	-3
619.546	1	11
619.716	1	4
619.885	1	8
620.055	1	7
620.225	1	11
620.394	1	1
620.564	1	2
620.734	1	11
620.903	1	19
621.073	1	5
621.242	1	-3
621.412	1	11
621.582	1	5
621.751	1	4
621.921	1	10
622.091	1	-6
622.260	1	13
622.430	1	9
622.599	1	24
622.769	1	2
622.939	1	4
623.108	1	9
623.278	1	4
623.448	1	4
623.617	1	-1
623.787	1	13
623.956	1	5
624.126	1	8
624.296	1	11
624.465	1	14
624.635	1	8
624.804	1	-5
624.974	1	5
625.144	1	12
625.313	1	4
625.483	1	10
625.652	1	17
625.822	1	6
625.992	1	4
626.161	1	6
626.331	1	16
626.501	1	7
626.670	1	8
626.840	1	10
627.009	1	-4
627.179	1	7
627.348	1	6
627.518	1	3
627.688	1	2
627.857	1	8
628.027	1	6
628.196	1	11
628.366	1	9
628.536	1	7
628.705	1	7
628.875	1	7
629.044	1	11
629.214	1	9
629.384	1	4
629.553	1	14
629.723	1	12
629.892	1	8
630.062	1	-4
630.232	1	16
630.401	1	5
630.571	1	2
630.740	1	7
630.910	1	8
631.079	1	18
631.249	1	6
631.419	1	8
631.588	1	-5
631.758	1	2
631.927	1	-2
632.097	1	5
632.266	1	-3
632.436	1	-2
632.606	1	4
632.775	1	4
632.945	1	8
633.114	1	14
633.284	1	1
633.453	1	-1
633.623	1	5
633.793	1	10
633.962	1	5
634.132	1	5
634.301	1	4
634.471	1	1
634.640	1	12
634.810	1	8
634.979	1	10
635.149	1	1
635.319	1	5
635.488	1	6
635.658	1	0
635.827	1	5
635.997	1	7
636.166	1	10
636.336	1	21
636.505	1	6
636.675	1	1
636.845	1	12
637.014	1	4
637.184	1	3
637.353	1	8
637.523	1	-2
637.692	1	5
637.862	1	1
638.031	1	23
638.201	1	11
638.370	1	10
638.540	1	10
638.710	1	8
638.879	1	6
639.049	1	1
639.218	1	0
639.388	1	7
639.557	1	4
639.727	1	6
639.896	1	-2
640.066	1	6
640.235	1	16
640.405	1	11
640.574	1	-1
640.744	1	5
640.914	1	-3
641.083	1	-3
641.253	1	4
641.422	1	-1
641.592	1	3
641.761	1	8
641.931	1	8
642.100	1	-2
642.270	1	5
642.439	1	0
642.609	1	6
642.778	1	11
642.948	1	2
643.117	1	11
643.287	1	13
643.456	1	15
643.626	1	18
643.795	1	6
643.965	1	-1
644.134	1	11
644.304	1	1
644.473	1	13
644.643	1	10
644.812	1	13
644.982	1	10
645.151	1	5
645.321	1	15
645.490	1	19
645.660	1	11
645.829	1	-3
645.999	1	4
646.168	1	-1
646.338	1	14
646.507	1	10
646.677	1	9
646.846	1	13
647.016	1	6
647.185	1	-2
647.355	1	2
647.524	1	7
647.694	1	-1
647.863	1	0
648.033	1	-6
648.202	1	2
648.372	1	10
648.541	1	3
648.711	1	12
648.880	1	5
649.050	1	5
649.219	1	8
649.389	1	3
649.558	1	-3
649.728	1	1
649.897	1	-1
650.067	1	9
650.236	1	14
650.406	1	1
650.575	1	3
650.745	1	-1
650.914	1	3
651.084	1	-4
651.253	1	6
651.423	1	5
651.592	1	6
651.762	1	10
651.931	1	9
652.101	1	3
652.270	1	7
652.440	1	0
652.609	1	12
652.778	1	-2
652.948	1	4
653.117	1	3
653.287	1	16
653.456	1	-2
653.626	1	5
653.795	1	5
653.965	1	14
654.134	1	12
654.304	1	9
654.473	1	6
654.643	1	19
654.812	1	9
654.982	1	-8
655.151	1	-7
655.320	1	3
655.490	1	11
655.659	1	10
655.829	1	4
655.998	1	13
656.168	1	0
656.337	1	-5
656.507	1	17
656.676	1	3
656.846	1	-9
657.015	1	5
657.184	1	6
657.354	1	7
657.523	1	4
657.693	1	10
657.862	1	4
658.032	1	14
658.201	1	0
658.371	1	-5
658.540	1	-5
658.709	1	7
658.879	1	-2
659.048	1	8
659.218	1	6
659.387	1	7
659.557	1	2
659.726	1	-7
659.895	1	4
660.065	1	7
660.234	1	2
660.404	1	16
660.573	1	-6
660.743	1	0
660.912	1	-9
661.081	1	8
661.251	1	13
661.420	1	-2
661.590	1	1
661.759	1	14
661.929	1	8
662.098	1	-13
662.267	1	10
662.437	1	13
662.606	1	3
662.776	1	7
662.945	1	2
663.115	1	1
663.284	1	3
663.453	1	-3
663.623	1	6
663.792	1	8
663.962	1	-2
664.131	1	-11
664.300	1	11
664.470	1	5
664.639	1	-1
664.809	1	10
664.978	1	6
665.148	1	-4
665.317	1	-7
665.486	1	-3
665.656	1	2
665.825	1	10
665.995	1	9
666.164	1	9
666.333	1	19
666.503	1	-3
666.672	1	-1
666.842	1	-1
667.011	1	11
667.180	1	6
667.350	1	15
667.519	1	9
667.689	1	4
667.858	1	13
668.027	1	-2
668.197	1	11
668.366	1	2
668.536	1	1
668.705	1	6
668.874	1	4
669.044	1	5
669.213	1	-2
669.382	1	-2
669.552	1	12
669.721	1	0
669.891	1	2
670.060	1	4
670.229	1	1
670.399	1	9
670.568	1	5
670.738	1	3
670.907	1	-1
671.076	1	14
671.246	1	11
671.415	1	7
671.584	1	6
671.754	1	-8
671.923	1	1
672.093	1	6
672.262	1	12
672.431	1	5
672.601	1	1
672.770	1	1
672.939	1	-1
673.109	1	4
673.278	1	10
673.448	1	8
673.617	1	15
673.786	1	2
