325.333	1	4
325.504	1	1
325.675	1	-2
325.846	1	-6
326.017	1	-2
326.188	1	6
326.359	1	0
326.531	1	-1
326.702	1	0
326.873	1	4
327.044	1	2
327.215	1	-1
327.386	1	0
327.557	1	-6
327.728	1	0
327.899	1	0
328.070	1	0
328.241	1	-6
328.412	1	4
328.583	1	-5
328.754	1	1
328.926	1	0
329.097	1	9
329.268	1	-4
329.439	1	-7
329.610	1	3
329.781	1	-7
329.952	1	12
330.123	1	-4
330.294	1	13
330.465	1	-3
330.636	1	4
330.807	1	2
330.978	1	0
331.149	1	3
331.320	1	-4
331.492	1	-5
331.663	1	-22
331.834	1	19
332.005	1	4
332.176	1	2
332.347	1	3
332.518	1	7
332.689	1	2
332.860	1	0
333.031	1	-4
333.202	1	-1
333.373	1	-1
333.544	1	-2
333.715	1	-1
333.886	1	-3
334.057	1	-10
334.228	1	-6
334.399	1	10
334.570	1	-3
334.741	1	-12
334.912	1	-7
335.084	1	-2
335.255	1	2
335.426	1	2
335.597	1	-8
335.768	1	11
335.939	1	-3
336.110	1	-1
336.281	1	-11
336.452	1	-9
336.623	1	2
336.794	1	-7
336.965	1	-13
337.136	1	-6
337.307	1	4
337.478	1	5
337.649	1	-4
337.820	1	10
337.991	1	12
338.162	1	-2
338.333	1	-4
338.504	1	-7
338.675	1	4
338.846	1	8
339.017	1	-6
339.188	1	3
339.359	1	-8
339.530	1	-2
339.701	1	1
339.872	1	0
340.043	1	2
340.214	1	3
340.385	1	4
340.556	1	-2
340.727	1	2
340.898	1	2
341.069	1	-4
341.240	1	1
341.411	1	4
341.582	1	-8
341.753	1	1
341.924	1	-8
342.095	1	-3
342.266	1	-7
342.437	1	7
342.608	1	-11
342.779	1	-9
342.950	1	4
343.121	1	8
343.292	1	-5
343.463	1	-5
343.634	1	-6
343.805	1	3
343.976	1	8
344.147	1	8
344.318	1	5
344.489	1	-5
344.660	1	6
344.831	1	-7
345.002	1	-5
345.173	1	0
345.344	1	-2
345.515	1	-1
345.686	1	2
345.857	1	-6
346.028	1	-8
346.199	1	-5
346.370	1	0
346.541	1	-2
346.712	1	3
346.883	1	-3
347.054	1	0
347.225	1	-6
347.396	1	-1
347.567	1	-1
347.738	1	6
347.909	1	-4
348.080	1	-7
348.251	1	0
348.422	1	-6
348.593	1	-12
348.764	1	-2
348.935	1	12
349.106	1	-2
349.277	1	-8
349.448	1	-4
349.619	1	-10
349.790	1	0
349.961	1	1
350.132	1	2
350.303	1	-3
350.474	1	3
350.645	1	-1
350.816	1	-4
350.987	1	-4
351.157	1	3
351.328	1	4
351.499	1	-1
351.670	1	5
351.841	1	4
352.012	1	-7
352.183	1	-1
352.354	1	2
352.525	1	2
352.696	1	-18
352.867	1	-2
353.038	1	3
353.209	1	-2
353.380	1	-5
353.551	1	-2
353.722	1	-3
353.893	1	-3
354.064	1	2
354.235	1	-1
354.406	1	-1
354.576	1	-9
354.747	1	-7
354.918	1	-7
355.089	1	-5
355.260	1	-3
355.431	1	8
355.602	1	9
355.773	1	-9
355.944	1	-3
356.115	1	-12
356.286	1	3
356.457	1	-2
356.628	1	-9
356.799	1	0
356.970	1	1
357.141	1	-13
357.311	1	4
357.482	1	-6
357.653	1	-7
357.824	1	-7
357.995	1	6
358.166	1	3
358.337	1	-1
358.508	1	6
358.679	1	8
358.850	1	4
359.021	1	-4
359.192	1	5
359.363	1	2
359.533	1	-5
359.704	1	-6
359.875	1	-4
360.046	1	-2
360.217	1	12
360.388	1	11
360.559	1	10
360.730	1	1
360.901	1	6
361.072	1	-9
361.243	1	-3
361.414	1	7
361.584	1	10
361.755	1	7
361.926	1	15
362.097	1	-1
362.268	1	8
362.439	1	2
362.610	1	-3
362.781	1	0
362.952	1	2
363.123	1	4
363.293	1	-1
363.464	1	10
363.635	1	-3
363.806	1	5
363.977	1	12
364.148	1	4
364.319	1	0
364.490	1	-9
364.661	1	3
364.832	1	5
365.002	1	7
365.173	1	7
365.344	1	1
365.515	1	-4
365.686	1	5
365.857	1	0
366.028	1	7
366.199	1	1
366.370	1	7
366.540	1	8
366.711	1	5
366.882	1	2
367.053	1	6
367.224	1	6
367.395	1	-1
367.566	1	6
367.737	1	-6
367.908	1	6
368.078	1	-4
368.249	1	6
368.420	1	4
368.591	1	9
368.762	1	1
368.933	1	12
369.104	1	4
369.274	1	-3
369.445	1	0
369.616	1	0
369.787	1	13
369.958	1	-3
370.129	1	7
370.300	1	-8
370.471	1	10
370.641	1	-5
370.812	1	1
370.983	1	4
371.154	1	0
371.325	1	-2
371.496	1	-2
371.667	1	5
371.837	1	-8
372.008	1	-3
372.179	1	-3
372.350	1	0
372.521	1	-3
372.692	1	-2
372.863	1	-1
373.033	1	1
373.204	1	6
373.375	1	-2
373.546	1	1
373.717	1	-5
373.888	1	-4
374.059	1	-3
374.229	1	-8
374.400	1	6
374.571	1	0
374.742	1	7
374.913	1	-1
375.084	1	-7
375.254	1	2
375.425	1	-8
375.596	1	-8
375.767	1	2
375.938	1	7
376.109	1	-8
376.279	1	-12
376.450	1	2
376.621	1	14
376.792	1	-5
376.963	1	1
377.134	1	-8
377.304	1	4
377.475	1	1
377.646	1	3
377.817	1	9
377.988	1	-4
378.159	1	8
378.329	1	0
378.500	1	-11
378.671	1	-9
378.842	1	-3
379.013	1	-3
379.184	1	-1
379.354	1	3
379.525	1	3
379.696	1	-11
379.867	1	7
380.038	1	7
380.209	1	-1
380.379	1	-6
380.550	1	2
380.721	1	9
380.892	1	-4
381.063	1	5
381.233	1	7
381.404	1	5
381.575	1	-7
381.746	1	7
381.917	1	-9
382.087	1	2
382.258	1	9
382.429	1	7
382.600	1	3
382.771	1	3
382.941	1	7
383.112	1	6
383.283	1	3
383.454	1	-3
383.625	1	-2
383.795	1	6
383.966	1	4
384.137	1	0
384.308	1	4
384.479	1	10
384.649	1	9
384.820	1	-3
384.991	1	3
385.162	1	-3
385.333	1	18
385.503	1	1
385.674	1	10
385.845	1	7
386.016	1	4
386.187	1	6
386.357	1	4
386.528	1	15
386.699	1	20
386.870	1	22
387.041	1	7
387.211	1	2
387.382	1	3
387.553	1	5
387.724	1	6
387.894	1	5
388.065	1	12
388.236	1	13
388.407	1	17
388.578	1	0
388.748	1	18
388.919	1	2
389.090	1	11
389.261	1	-6
389.431	1	8
389.602	1	12
389.773	1	4
389.944	1	9
390.114	1	12
390.285	1	8
390.456	1	1
390.627	1	3
390.798	1	16
390.968	1	1
391.139	1	-2
391.310	1	-1
391.481	1	12
391.651	1	11
391.822	1	19
391.993	1	13
392.164	1	7
392.334	1	15
392.505	1	4
392.676	1	4
392.847	1	9
393.017	1	-3
393.188	1	4
393.359	1	13
393.530	1	9
393.700	1	2
393.871	1	-7
394.042	1	4
394.213	1	12
394.383	1	10
394.554	1	11
394.725	1	7
394.896	1	-9
395.066	1	14
395.237	1	15
395.408	1	6
395.579	1	10
395.749	1	13
395.920	1	7
396.091	1	8
396.262	1	5
396.432	1	-7
396.603	1	11
396.774	1	5
396.945	1	6
397.115	1	5
397.286	1	15
397.457	1	7
397.627	1	12
397.798	1	-3
397.969	1	2
398.140	1	9
398.310	1	13
398.481	1	-1
398.652	1	4
398.823	1	13
398.993	1	-1
399.164	1	15
399.335	1	7
399.505	1	5
399.676	1	3
399.847	1	8
400.018	1	8
400.188	1	5
400.359	1	7
400.530	1	9
400.700	1	3
400.871	1	-6
401.042	1	6
401.213	1	9
401.383	1	14
401.554	1	7
401.725	1	6
401.895	1	10
402.066	1	10
402.237	1	6
402.408	1	0
402.578	1	8
402.749	1	1
402.920	1	-1
403.090	1	3
403.261	1	8
403.432	1	-2
403.603	1	4
403.773	1	11
403.944	1	12
404.115	1	-3
404.285	1	-4
404.456	1	6
404.627	1	2
404.797	1	22
404.968	1	0
405.139	1	6
405.310	1	2
405.480	1	13
405.651	1	6
405.822	1	3
405.992	1	4
406.163	1	9
406.334	1	14
406.504	1	-2
406.675	1	22
406.846	1	-2
407.016	1	-2
407.187	1	-3
407.358	1	-4
407.528	1	13
407.699	1	18
407.870	1	9
408.041	1	-1
408.211	1	3
408.382	1	22
408.553	1	9
408.723	1	5
408.894	1	-7
409.065	1	11
409.235	1	-4
409.406	1	4
409.577	1	4
409.747	1	4
409.918	1	9
410.089	1	-1
410.259	1	-4
410.430	1	1
410.601	1	1
410.771	1	3
410.942	1	5
411.113	1	-3
411.283	1	1
411.454	1	-7
411.625	1	0
411.795	1	7
411.966	1	-1
412.137	1	0
412.307	1	0
412.478	1	5
412.649	1	7
412.819	1	3
412.990	1	7
413.161	1	4
413.331	1	-3
413.502	1	12
413.672	1	3
413.843	1	2
414.014	1	-2
414.184	1	-9
414.355	1	-8
414.526	1	4
414.696	1	0
414.867	1	11
415.038	1	0
415.208	1	-2
415.379	1	14
415.550	1	6
415.720	1	0
415.891	1	9
416.062	1	4
416.232	1	2
416.403	1	4
416.573	1	-2
416.744	1	5
416.915	1	1
417.085	1	7
417.256	1	-3
417.427	1	-9
417.597	1	-10
417.768	1	7
417.939	1	-3
418.109	1	2
418.280	1	-3
418.450	1	-7
418.621	1	-1
418.792	1	3
418.962	1	-7
419.133	1	1
419.304	1	10
419.474	1	0
419.645	1	11
419.815	1	1
419.986	1	9
420.157	1	3
420.327	1	9
420.498	1	6
420.669	1	6
420.839	1	2
421.010	1	8
421.180	1	3
421.351	1	8
421.522	1	10
421.692	1	-1
421.863	1	-1
422.033	1	-2
422.204	1	-12
422.375	1	-9
422.545	1	7
422.716	1	4
422.886	1	0
423.057	1	-4
423.228	1	-2
423.398	1	2
423.569	1	4
423.740	1	0
423.910	1	-9
424.081	1	2
424.251	1	4
424.422	1	5
424.593	1	3
424.763	1	-3
424.934	1	4
425.104	1	7
425.275	1	-3
425.445	1	-1
425.616	1	5
425.787	1	-10
425.957	1	10
426.128	1	1
426.298	1	1
426.469	1	1
426.640	1	-5
426.810	1	3
426.981	1	-4
427.151	1	5
427.322	1	10
427.493	1	-2
427.663	1	-3
427.834	1	-7
428.004	1	5
428.175	1	-2
428.345	1	13
428.516	1	4
428.687	1	1
428.857	1	-4
429.028	1	-2
429.198	1	-1
429.369	1	2
429.540	1	3
429.710	1	-3
429.881	1	8
430.051	1	14
430.222	1	0
430.392	1	0
430.563	1	12
430.734	1	5
430.904	1	0
431.075	1	6
431.245	1	7
431.416	1	2
431.586	1	8
431.757	1	-3
431.927	1	5
432.098	1	3
432.269	1	-2
432.439	1	-2
432.610	1	1
432.780	1	-9
432.951	1	2
433.121	1	4
433.292	1	-1
433.462	1	0
433.633	1	-5
433.804	1	-12
433.974	1	-3
434.145	1	-2
434.315	1	1
434.486	1	11
434.656	1	1
434.827	1	2
434.997	1	-2
435.168	1	-2
435.339	1	5
435.509	1	2
435.680	1	-6
435.850	1	2
436.021	1	8
436.191	1	-2
436.362	1	2
436.532	1	3
436.703	1	6
436.873	1	-3
437.044	1	6
437.214	1	2
437.385	1	-1
437.556	1	-6
437.726	1	-1
437.897	1	-3
438.067	1	12
438.238	1	-9
438.408	1	3
438.579	1	-9
438.749	1	4
438.920	1	1
439.090	1	10
439.261	1	-3
439.431	1	-1
439.602	1	-7
439.772	1	0
439.943	1	2
440.113	1	-2
440.284	1	3
440.455	1	-2
440.625	1	1
440.796	1	-7
440.966	1	7
441.137	1	-15
441.307	1	-2
441.478	1	6
441.648	1	-9
441.819	1	-3
441.989	1	1
442.160	1	-2
442.330	1	-1
442.501	1	-15
442.671	1	-2
442.842	1	1
443.012	1	-5
443.183	1	-7
443.353	1	4
443.524	1	1
443.694	1	4
443.865	1	2
444.035	1	3
444.206	1	8
444.376	1	3
444.547	1	-2
444.717	1	1
444.888	1	-6
445.058	1	2
445.229	1	-6
445.399	1	8
445.570	1	6
445.740	1	-7
445.911	1	10
446.081	1	-1
446.252	1	-6
446.422	1	3
446.593	1	-7
446.763	1	6
446.934	1	2
447.104	1	-11
447.275	1	1
447.445	1	-6
447.616	1	-13
447.786	1	1
447.957	1	-4
448.127	1	5
448.298	1	-2
448.468	1	11
448.639	1	-6
448.809	1	-1
448.979	1	8
449.150	1	4
449.320	1	-1
449.491	1	-2
449.661	1	-3
449.832	1	5
450.002	1	-6
450.173	1	-9
450.343	1	0
450.514	1	6
450.684	1	-11
450.855	1	-1
451.025	1	4
451.196	1	-18
451.366	1	10
451.537	1	-4
451.707	1	0
451.878	1	-2
452.048	1	3
452.218	1	-4
452.389	1	3
452.559	1	-3
452.730	1	-3
452.900	1	-5
453.071	1	-1
453.241	1	-5
453.412	1	-13
453.582	1	12
453.753	1	0
453.923	1	-3
454.093	1	4
454.264	1	-1
454.434	1	9
454.605	1	1
454.775	1	6
454.946	1	3
455.116	1	-1
455.287	1	15
455.457	1	-10
455.628	1	-8
455.798	1	-12
455.968	1	7
456.139	1	-1
456.309	1	-1
456.480	1	2
456.650	1	-2
456.821	1	2
456.991	1	10
457.161	1	7
457.332	1	-3
457.502	1	3
457.673	1	-14
457.843	1	4
458.014	1	-4
458.184	1	2
458.355	1	11
458.525	1	7
458.695	1	-1
458.866	1	-4
459.036	1	5
459.207	1	-11
459.377	1	1
459.548	1	-10
459.718	1	-2
459.888	1	1
460.059	1	0
460.229	1	6
460.400	1	0
460.570	1	-10
460.740	1	-7
460.911	1	6
461.081	1	-5
461.252	1	2
461.422	1	-3
461.593	1	3
461.763	1	-1
461.933	1	-10
462.104	1	5
462.274	1	1
462.445	1	-2
462.615	1	-4
462.785	1	-9
462.956	1	-3
463.126	1	-7
463.297	1	2
463.467	1	-5
463.638	1	-2
463.808	1	6
463.978	1	-4
464.149	1	-5
464.319	1	-3
464.490	1	-4
464.660	1	1
464.830	1	-5
465.001	1	3
465.171	1	-4
465.342	1	-2
465.512	1	6
465.682	1	2
465.853	1	-11
466.023	1	0
466.194	1	-6
466.364	1	0
466.534	1	3
466.705	1	0
466.875	1	-3
467.045	1	1
467.216	1	-7
467.386	1	-6
467.557	1	-3
467.727	1	2
467.897	1	1
468.068	1	8
468.238	1	-4
468.409	1	4
468.579	1	6
468.749	1	4
468.920	1	-4
469.090	1	1
469.260	1	13
469.431	1	1
469.601	1	-9
469.772	1	-19
469.942	1	4
470.112	1	-2
470.283	1	12
470.453	1	1
470.623	1	3
470.794	1	1
470.964	1	0
471.135	1	-14
471.305	1	-10
471.475	1	-5
471.646	1	-1
471.816	1	2
471.986	1	3
472.157	1	5
472.327	1	5
472.497	1	-11
472.668	1	-15
472.838	1	5
473.009	1	1
473.179	1	0
473.349	1	5
473.520	1	-5
473.690	1	11
473.860	1	3
474.031	1	4
474.201	1	-6
474.371	1	4
474.542	1	-12
474.712	1	3
474.882	1	-4
475.053	1	-7
475.223	1	3
475.394	1	5
475.564	1	12
475.734	1	-5
475.905	1	2
476.075	1	0
476.245	1	3
476.416	1	-10
476.586	1	3
476.756	1	-4
476.927	1	5
477.097	1	-3
477.267	1	-1
477.438	1	3
477.608	1	3
477.778	1	6
477.949	1	1
478.119	1	2
478.289	1	1
478.460	1	0
478.630	1	-3
478.800	1	-11
478.971	1	3
479.141	1	8
479.311	1	-1
479.482	1	-5
479.652	1	5
479.822	1	-5
479.993	1	0
480.163	1	-13
480.333	1	7
480.504	1	13
480.674	1	-1
480.844	1	5
481.015	1	-1
481.185	1	8
481.355	1	11
481.525	1	-5
481.696	1	2
481.866	1	1
482.036	1	-9
482.207	1	8
482.377	1	-5
482.547	1	4
482.718	1	3
482.888	1	-11
483.058	1	-5
483.229	1	10
483.399	1	-5
483.569	1	6
483.740	1	-13
483.910	1	-4
484.080	1	2
484.250	1	7
484.421	1	-5
484.591	1	3
484.761	1	-9
484.932	1	4
485.102	1	6
485.272	1	12
485.443	1	0
485.613	1	-8
485.783	1	8
485.953	1	0
486.124	1	7
486.294	1	4
486.464	1	-5
486.635	1	6
486.805	1	6
486.975	1	-8
487.146	1	9
487.316	1	4
487.486	1	5
487.656	1	-4
487.827	1	6
487.997	1	8
488.167	1	2
488.338	1	15
488.508	1	8
488.678	1	3
488.848	1	-11
489.019	1	-8
489.189	1	-6
489.359	1	-6
489.529	1	2
489.700	1	1
489.870	1	-8
490.040	1	1
490.211	1	15
490.381	1	0
490.551	1	-6
490.721	1	4
490.892	1	3
491.062	1	19
491.232	1	5
491.402	1	-8
491.573	1	-4
491.743	1	-8
491.913	1	-6
492.084	1	4
492.254	1	-8
492.424	1	-2
492.594	1	5
492.765	1	9
492.935	1	0
493.105	1	15
493.275	1	7
493.446	1	0
493.616	1	4
493.786	1	-3
493.956	1	3
494.127	1	2
494.297	1	1
494.467	1	5
494.637	1	0
494.808	1	10
494.978	1	4
495.148	1	4
495.318	1	3
495.489	1	0
495.659	1	2
495.829	1	-4
495.999	1	1
496.170	1	-11
496.340	1	1
496.510	1	10
496.680	1	0
496.851	1	0
497.021	1	5
497.191	1	0
497.361	1	0
497.532	1	-3
497.702	1	-9
497.872	1	4
498.042	1	0
498.213	1	0
498.383	1	-7
498.553	1	7
498.723	1	0
498.894	1	7
499.064	1	11
499.234	1	-8
499.404	1	-2
499.574	1	0
499.745	1	-5
499.915	1	-1
500.085	1	-12
500.255	1	5
500.426	1	7
500.596	1	-2
500.766	1	6
500.936	1	5
501.106	1	4
501.277	1	-5
501.447	1	-4
501.617	1	-1
501.787	1	-6
501.958	1	-3
502.128	1	1
502.298	1	5
502.468	1	9
502.638	1	6
502.809	1	7
502.979	1	-4
503.149	1	-2
503.319	1	6
503.489	1	1
503.660	1	7
503.830	1	-2
504.000	1	1
504.170	1	-4
504.340	1	10
504.511	1	11
504.681	1	-8
504.851	1	-6
505.021	1	4
505.192	1	6
505.362	1	5
505.532	1	4
505.702	1	1
505.872	1	-10
506.043	1	1
506.213	1	3
506.383	1	-2
506.553	1	6
506.723	1	3
506.893	1	7
507.064	1	-1
507.234	1	5
507.404	1	1
507.574	1	1
507.744	1	-14
507.915	1	4
508.085	1	9
508.255	1	9
508.425	1	4
508.595	1	1
508.766	1	-8
508.936	1	0
509.106	1	-7
509.276	1	3
509.446	1	-2
509.616	1	6
509.787	1	6
509.957	1	-5
510.127	1	10
510.297	1	-1
510.467	1	-1
510.638	1	-5
510.808	1	-5
510.978	1	-6
511.148	1	12
511.318	1	6
511.488	1	6
511.659	1	-2
511.829	1	3
511.999	1	12
512.169	1	6
512.339	1	-6
512.509	1	12
512.680	1	13
512.850	1	1
513.020	1	2
513.190	1	3
513.360	1	4
513.530	1	-8
513.700	1	6
513.871	1	12
514.041	1	1
514.211	1	2
514.381	1	10
514.551	1	-3
514.721	1	2
514.892	1	1
515.062	1	4
515.232	1	-3
515.402	1	-2
515.572	1	1
515.742	1	1
515.912	1	6
516.083	1	-8
516.253	1	-3
516.423	1	13
516.593	1	-8
516.763	1	0
516.933	1	1
517.104	1	6
517.274	1	4
517.444	1	11
517.614	1	-4
517.784	1	-3
517.954	1	1
518.124	1	9
518.294	1	2
518.465	1	2
518.635	1	2
518.805	1	3
518.975	1	6
519.145	1	5
519.315	1	7
519.485	1	-3
519.656	1	9
519.826	1	1
519.996	1	5
520.166	1	5
520.336	1	-3
520.506	1	5
520.676	1	2
520.846	1	4
521.017	1	-5
521.187	1	-1
521.357	1	-1
521.527	1	5
521.697	1	0
521.867	1	6
522.037	1	1
522.207	1	5
522.377	1	2
522.548	1	-9
522.718	1	7
522.888	1	-1
523.058	1	18
523.228	1	13
523.398	1	6
523.568	1	-4
523.738	1	4
523.909	1	11
524.079	1	-4
524.249	1	8
524.419	1	-8
524.589	1	6
524.759	1	5
524.929	1	6
525.099	1	0
525.269	1	5
525.439	1	1
525.610	1	1
525.780	1	15
525.950	1	-6
526.120	1	0
526.290	1	-6
526.460	1	10
526.630	1	4
526.800	1	-1
526.970	1	-6
527.140	1	-10
527.311	1	8
527.481	1	5
527.651	1	13
527.821	1	1
527.991	1	4
528.161	1	-1
528.331	1	5
528.501	1	1
528.671	1	6
528.841	1	1
529.011	1	-6
529.181	1	0
529.352	1	5
529.522	1	11
529.692	1	12
529.862	1	-1
530.032	1	2
530.202	1	7
530.372	1	6
530.542	1	13
530.712	1	13
530.882	1	4
531.052	1	3
531.222	1	-10
531.392	1	3
531.563	1	7
531.733	1	8
531.903	1	7
532.073	1	1
532.243	1	-1
532.413	1	2
532.583	1	3
532.753	1	-6
532.923	1	2
533.093	1	14
533.263	1	-8
533.433	1	3
533.603	1	2
533.773	1	-4
533.943	1	-3
534.113	1	1
534.284	1	7
534.454	1	6
534.624	1	-1
534.794	1	6
534.964	1	-2
535.134	1	1
535.304	1	10
535.474	1	0
535.644	1	9
535.814	1	6
535.984	1	1
536.154	1	0
536.324	1	0
536.494	1	5
536.664	1	9
536.834	1	-1
537.004	1	18
537.174	1	11
537.344	1	9
537.514	1	8
537.685	1	0
537.855	1	9
538.025	1	10
538.195	1	-2
538.365	1	7
538.535	1	8
538.705	1	-7
538.875	1	13
539.045	1	14
539.215	1	1
539.385	1	-6
539.555	1	5
539.725	1	2
539.895	1	-5
540.065	1	-5
540.235	1	-1
540.405	1	1
540.575	1	-3
540.745	1	5
540.915	1	11
541.085	1	-11
541.255	1	1
541.425	1	-4
541.595	1	1
541.765	1	0
541.935	1	11
542.105	1	11
542.275	1	3
542.445	1	4
542.615	1	3
542.785	1	-10
542.955	1	5
543.125	1	1
543.295	1	7
543.465	1	10
543.635	1	-3
543.805	1	1
543.975	1	8
544.145	1	-1
544.315	1	4
544.485	1	1
544.655	1	2
544.825	1	6
544.995	1	4
545.165	1	1
545.335	1	4
545.505	1	-1
545.675	1	12
545.845	1	-4
546.015	1	2
546.185	1	-11
546.355	1	7
546.525	1	5
546.695	1	-7
546.865	1	-5
547.035	1	6
547.205	1	-1
547.375	1	-3
547.545	1	11
547.715	1	-4
547.885	1	-2
548.055	1	0
548.225	1	5
548.395	1	6
548.565	1	3
548.735	1	6
548.905	1	-3
549.075	1	0
549.245	1	5
549.415	1	5
549.585	1	1
549.755	1	-4
549.925	1	9
550.095	1	8
550.265	1	-2
550.435	1	18
550.605	1	-1
550.775	1	-8
550.945	1	12
551.115	1	-6
551.285	1	6
551.455	1	7
551.625	1	-1
551.795	1	3
551.965	1	1
552.135	1	0
552.305	1	10
552.475	1	0
552.645	1	4
552.815	1	2
552.985	1	3
553.155	1	7
553.325	1	3
553.495	1	5
553.665	1	-5
553.835	1	1
554.004	1	1
554.174	1	-1
554.344	1	-3
554.514	1	1
554.684	1	9
554.854	1	0
555.024	1	8
555.194	1	4
555.364	1	8
555.534	1	4
555.704	1	8
555.874	1	-3
556.044	1	8
556.214	1	2
556.384	1	6
556.554	1	-2
556.724	1	-7
556.894	1	11
557.064	1	5
557.234	1	1
557.404	1	-11
557.573	1	5
557.743	1	2
557.913	1	-1
558.083	1	-17
558.253	1	4
558.423	1	-3
558.593	1	-2
558.763	1	7
558.933	1	4
559.103	1	3
559.273	1	-4
559.443	1	-3
559.613	1	3
559.783	1	5
559.953	1	-10
560.122	1	-7
560.292	1	6
560.462	1	4
560.632	1	-2
560.802	1	5
560.972	1	11
561.142	1	7
561.312	1	1
561.482	1	5
561.652	1	1
561.822	1	1
561.992	1	6
562.162	1	6
562.331	1	5
562.501	1	-9
562.671	1	0
562.841	1	-3
563.011	1	-7
563.181	1	-2
563.351	1	-6
563.521	1	-1
563.691	1	-2
563.861	1	11
564.031	1	-1
564.201	1	14
564.370	1	9
564.540	1	11
564.710	1	-8
564.880	1	8
565.050	1	2
565.220	1	-2
565.390	1	0
565.560	1	6
565.730	1	0
565.900	1	-5
566.069	1	17
566.239	1	-12
566.409	1	4
566.579	1	1
566.749	1	8
566.919	1	10
567.089	1	0
567.259	1	3
567.429	1	11
567.599	1	4
567.768	1	8
567.938	1	-3
568.108	1	-4
568.278	1	-4
568.448	1	-7
568.618	1	4
568.788	1	-2
568.958	1	7
569.128	1	8
569.297	1	7
569.467	1	-5
569.637	1	3
569.807	1	-3
569.977	1	-8
570.147	1	2
570.317	1	12
570.487	1	6
570.656	1	-6
570.826	1	8
570.996	1	-5
571.166	1	-6
571.336	1	-5
571.506	1	2
571.676	1	10
571.846	1	1
572.015	1	0
572.185	1	4
572.355	1	8
572.525	1	-5
572.695	1	4
572.865	1	2
573.035	1	0
573.205	1	8
573.374	1	3
573.544	1	-10
573.714	1	4
573.884	1	-2
574.054	1	-6
574.224	1	0
574.394	1	1
574.563	1	5
574.733	1	4
574.903	1	5
575.073	1	-1
575.243	1	-10
575.413	1	11
575.583	1	10
575.752	1	-1
575.922	1	2
576.092	1	5
576.262	1	-4
576.432	1	-4
576.602	1	3
576.772	1	1
576.941	1	4
577.111	1	5
577.281	1	11
577.451	1	-3
577.621	1	0
577.791	1	5
577.960	1	-1
578.130	1	-13
578.300	1	1
578.470	1	-4
578.640	1	-4
578.810	1	-6
578.979	1	0
579.149	1	6
579.319	1	3
579.489	1	1
579.659	1	8
579.829	1	7
579.998	1	-4
580.168	1	7
580.338	1	-12
580.508	1	0
580.678	1	-7
580.848	1	-6
581.017	1	6
581.187	1	-2
581.357	1	-3
581.527	1	9
581.697	1	-1
581.867	1	-4
582.036	1	9
582.206	1	-4
582.376	1	-1
582.546	1	-8
582.716	1	7
582.885	1	4
583.055	1	-1
583.225	1	-3
583.395	1	1
583.565	1	9
583.735	1	2
583.904	1	2
584.074	1	-1
584.244	1	7
584.414	1	3
584.584	1	4
584.753	1	3
584.923	1	-1
585.093	1	10
585.263	1	11
585.433	1	-4
585.602	1	1
585.772	1	-4
585.942	1	3
586.112	1	5
586.282	1	2
586.451	1	4
586.621	1	-7
586.791	1	3
586.961	1	4
587.131	1	-7
587.300	1	3
587.470	1	5
587.640	1	1
587.810	1	0
587.980	1	-5
588.149	1	-2
588.319	1	1
588.489	1	4
588.659	1	-5
588.829	1	-4
588.998	1	-3
589.168	1	5
589.338	1	-2
589.508	1	5
589.677	1	-2
589.847	1	-2
590.017	1	-12
590.187	1	3
590.357	1	-2
590.526	1	-2
590.696	1	0
590.866	1	0
591.036	1	2
591.205	1	-2
591.375	1	-9
591.545	1	-1
591.715	1	-9
591.885	1	10
592.054	1	2
592.224	1	5
592.394	1	3
592.564	1	-13
592.733	1	-2
592.903	1	-2
593.073	1	-8
593.243	1	0
593.412	1	3
593.582	1	4
593.752	1	1
593.922	1	-7
594.091	1	-3
594.261	1	5
594.431	1	2
594.601	1	-10
594.771	1	8
594.940	1	0
595.110	1	2
595.280	1	-2
595.450	1	5
595.619	1	0
595.789	1	5
595.959	1	-5
596.129	1	-1
596.298	1	1
596.468	1	-2
596.638	1	1
596.808	1	2
596.977	1	8
597.147	1	6
597.317	1	8
597.487	1	-5
597.656	1	-2
597.826	1	0
597.996	1	-1
598.166	1	-1
598.335	1	-2
598.505	1	-2
598.675	1	7
598.844	1	0
599.014	1	-3
599.184	1	-9
599.354	1	-8
599.523	1	-2
599.693	1	8
599.863	1	0
600.033	1	-4
600.202	1	-4
600.372	1	-6
600.542	1	2
600.712	1	8
600.881	1	-10
601.051	1	12
601.221	1	1
601.390	1	-9
601.560	1	-1
601.730	1	2
601.900	1	8
602.069	1	-10
602.239	1	-11
602.409	1	10
602.578	1	-8
602.748	1	-8
602.918	1	-1
603.088	1	3
603.257	1	5
603.427	1	-4
603.597	1	13
603.767	1	-8
603.936	1	5
604.106	1	0
604.276	1	10
604.445	1	3
604.615	1	0
604.785	1	6
604.954	1	10
605.124	1	-14
605.294	1	0
605.464	1	-5
605.633	1	-3
605.803	1	9
605.973	1	-3
606.142	1	-7
606.312	1	7
606.482	1	-7
606.652	1	-6
606.821	1	1
606.991	1	2
607.161	1	-4
607.330	1	12
607.500	1	3
607.670	1	-5
607.839	1	5
608.009	1	-11
608.179	1	6
608.348	1	-2
608.518	1	6
608.688	1	-3
608.858	1	0
609.027	1	8
609.197	1	-13
609.367	1	-14
609.536	1	5
609.706	1	1
609.876	1	1
610.045	1	-5
610.215	1	-1
610.385	1	0
610.554	1	-14
610.724	1	-1
610.894	1	7
611.063	1	4
611.233	1	-3
611.403	1	3
611.572	1	5
611.742	1	-4
611.912	1	-9
612.081	1	-1
612.251	1	4
612.421	1	4
612.590	1	-3
612.760	1	-1
612.930	1	-5
613.099	1	-6
613.269	1	0
613.439	1	-10
613.608	1	6
613.778	1	-2
613.948	1	0
614.117	1	8
614.287	1	2
614.457	1	4
614.626	1	14
614.796	1	1
614.966	1	2
615.135	1	-3
615.305	1	-7
615.475	1	5
615.644	1	-5
615.814	1	1
615.984	1	10
616.153	1	4
616.323	1	-6
616.493	1	2
616.662	1	5
616.832	1	-3
617.002	1	-6
617.171	1	-9
617.341	1	5
617.511	1	-3
617.680	1	-7
617.850	1	-3
618.019	1	5
618.189	1	-10
618.359	1	4
618.528	1	-5
618.698	1	0
618.868	1	1
619.037	1	-4
619.207	1	-10
619.377	1	-19
619.546	1	3
619.716	1	-6
619.885	1	0
620.055	1	9
620.225	1	4
620.394	1	-4
620.564	1	1
620.734	1	5
620.903	1	5
621.073	1	-5
621.242	1	-14
621.412	1	-5
621.582	1	-4
621.751	1	-8
621.921	1	4
622.091	1	-8
622.260	1	-10
622.430	1	9
622.599	1	15
622.769	1	-8
622.939	1	-5
623.108	1	0
623.278	1	-4
623.448	1	-2
623.617	1	2
623.787	1	14
623.956	1	4
624.126	1	2
624.296	1	-4
624.465	1	13
624.635	1	-5
624.804	1	-13
624.974	1	-9
625.144	1	-7
625.313	1	1
625.483	1	7
625.652	1	8
625.822	1	4
625.992	1	-4
626.161	1	-1
626.331	1	2
626.501	1	2
626.670	1	-4
626.840	1	7
627.009	1	-5
627.179	1	-7
627.348	1	-2
627.518	1	-2
627.688	1	-8
627.857	1	9
628.027	1	-14
628.196	1	1
628.366	1	11
628.536	1	3
628.705	1	-2
628.875	1	2
629.044	1	-2
629.214	1	-5
629.384	1	-10
629.553	1	1
629.723	1	9
629.892	1	4
630.062	1	4
630.232	1	4
630.401	1	-3
630.571	1	-6
630.740	1	1
630.910	1	-1
631.079	1	7
631.249	1	-11
631.419	1	-1
631.588	1	-7
631.758	1	16
631.927	1	-1
632.097	1	11
632.266	1	-11
632.436	1	0
632.606	1	0
632.775	1	-9
632.945	1	12
633.114	1	0
633.284	1	-3
633.453	1	-2
633.623	1	-5
633.793	1	0
633.962	1	6
634.132	1	7
634.301	1	-10
634.471	1	-3
634.640	1	2
634.810	1	-2
634.979	1	8
635.149	1	-1
635.319	1	4
635.488	1	0
635.658	1	-8
635.827	1	1
635.997	1	-3
636.166	1	0
636.336	1	9
636.505	1	1
636.675	1	0
636.845	1	6
637.014	1	5
637.184	1	-4
637.353	1	2
637.523	1	-8
637.692	1	2
637.862	1	-10
638.031	1	2
638.201	1	5
638.370	1	-4
638.540	1	8
638.710	1	-2
638.879	1	0
639.049	1	8
639.218	1	-4
639.388	1	4
639.557	1	6
639.727	1	0
639.896	1	7
640.066	1	-4
640.235	1	1
640.405	1	-3
640.574	1	-5
640.744	1	4
640.914	1	-3
641.083	1	-8
641.253	1	-1
641.422	1	-7
641.592	1	-8
641.761	1	-7
641.931	1	4
642.100	1	-5
642.270	1	-13
642.439	1	-4
642.609	1	4
642.778	1	6
642.948	1	-4
643.117	1	-1
643.287	1	-2
643.456	1	-2
643.626	1	1
643.795	1	-7
643.965	1	-5
644.134	1	6
644.304	1	-8
644.473	1	11
644.643	1	4
644.812	1	6
644.982	1	6
645.151	1	-3
645.321	1	6
645.490	1	-12
645.660	1	-11
645.829	1	-10
645.999	1	-4
646.168	1	-8
646.338	1	10
646.507	1	-1
646.677	1	2
646.846	1	5
647.016	1	2
647.185	1	-5
647.355	1	-14
647.524	1	-3
647.694	1	-4
647.863	1	-15
648.033	1	-10
648.202	1	7
648.372	1	1
648.541	1	-7
648.711	1	0
648.880	1	2
649.050	1	-11
649.219	1	5
649.389	1	-1
649.558	1	-2
649.728	1	2
649.897	1	0
650.067	1	-5
650.236	1	10
650.406	1	8
650.575	1	-1
650.745	1	-8
650.914	1	3
651.084	1	1
651.253	1	-5
651.423	1	2
651.592	1	-7
651.762	1	4
651.931	1	1
652.101	1	-5
652.270	1	4
652.440	1	7
652.609	1	-3
652.778	1	-5
652.948	1	1
653.117	1	-3
653.287	1	4
653.456	1	-2
653.626	1	10
653.795	1	2
653.965	1	12
654.134	1	4
654.304	1	1
654.473	1	-4
654.643	1	8
654.812	1	-6
654.982	1	-12
655.151	1	-6
655.320	1	-7
655.490	1	10
655.659	1	6
655.829	1	1
655.998	1	1
656.168	1	-4
656.337	1	-5
656.507	1	8
656.676	1	-10
656.846	1	-15
657.015	1	-7
657.184	1	1
657.354	1	1
657.523	1	-6
657.693	1	4
657.862	1	5
658.032	1	3
658.201	1	-2
658.371	1	-10
658.540	1	-2
658.709	1	-5
658.879	1	-1
659.048	1	7
659.218	1	-1
659.387	1	-8
659.557	1	-2
659.726	1	1
659.895	1	-10
660.065	1	4
660.234	1	4
660.404	1	4
660.573	1	-10
660.743	1	4
660.912	1	-2
661.081	1	5
661.251	1	0
661.420	1	0
661.590	1	8
661.759	1	8
661.929	1	6
662.098	1	-9
662.267	1	9
662.437	1	4
662.606	1	0
662.776	1	7
662.945	1	3
663.115	1	-8
663.284	1	-2
663.453	1	1
663.623	1	4
663.792	1	7
663.962	1	-4
664.131	1	-14
664.300	1	2
664.470	1	-7
664.639	1	-10
664.809	1	-2
664.978	1	-4
665.148	1	-4
665.317	1	-3
665.486	1	-11
665.656	1	3
665.825	1	11
665.995	1	3
666.164	1	3
666.333	1	8
666.503	1	-4
666.672	1	-12
666.842	1	-2
667.011	1	9
667.180	1	-4
667.350	1	12
667.519	1	0
667.689	1	5
667.858	1	8
668.027	1	-12
668.197	1	1
668.366	1	-6
668.536	1	-5
668.705	1	4
668.874	1	-4
669.044	1	-4
669.213	1	2
669.382	1	-1
669.552	1	10
669.721	1	-8
669.891	1	-8
670.060	1	-1
670.229	1	7
670.399	1	3
670.568	1	-13
670.738	1	-6
670.907	1	-7
671.076	1	10
671.246	1	4
671.415	1	5
671.584	1	-4
671.754	1	-10
671.923	1	-5
672.093	1	-3
672.262	1	4
672.431	1	-2
672.601	1	-13
672.770	1	9
672.939	1	0
673.109	1	-8
673.278	1	-3
673.448	1	-10
673.617	1	2
673.786	1	-7
