325.333	1	-6
325.504	1	2
325.675	1	4
325.846	1	-4
326.017	1	-6
326.188	1	10
326.359	1	8
326.531	1	-4
326.702	1	5
326.873	1	11
327.044	1	3
327.215	1	-1
327.386	1	-6
327.557	1	7
327.728	1	3
327.899	1	-7
328.070	1	0
328.241	1	-9
328.412	1	11
328.583	1	3
328.754	1	-7
328.926	1	4
329.097	1	6
329.268	1	-2
329.439	1	2
329.610	1	-1
329.781	1	0
329.952	1	1
330.123	1	0
330.294	1	4
330.465	1	1
330.636	1	10
330.807	1	6
330.978	1	-11
331.149	1	3
331.320	1	2
331.492	1	-10
331.663	1	-11
331.834	1	5
332.005	1	3
332.176	1	0
332.347	1	8
332.518	1	4
332.689	1	2
332.860	1	-8
333.031	1	4
333.202	1	1
333.373	1	1
333.544	1	-1
333.715	1	-3
333.886	1	-6
334.057	1	-4
334.228	1	-5
334.399	1	6
334.570	1	-7
334.741	1	-9
334.912	1	-5
335.084	1	-1
335.255	1	1
335.426	1	0
335.597	1	-6
335.768	1	4
335.939	1	-2
336.110	1	-8
336.281	1	-5
336.452	1	-1
336.623	1	8
336.794	1	-9
336.965	1	-4
337.136	1	-6
337.307	1	0
337.478	1	7
337.649	1	-3
337.820	1	11
337.991	1	-2
338.162	1	-3
338.333	1	-6
338.504	1	-7
338.675	1	9
338.846	1	-3
339.017	1	-11
339.188	1	1
339.359	1	10
339.530	1	1
339.701	1	-2
339.872	1	3
340.043	1	1
340.214	1	-2
340.385	1	-5
340.556	1	-1
340.727	1	-4
340.898	1	-10
341.069	1	5
341.240	1	3
341.411	1	4
341.582	1	-7
341.753	1	-7
341.924	1	0
342.095	1	9
342.266	1	-11
342.437	1	5
342.608	1	-7
342.779	1	-5
342.950	1	-1
343.121	1	6
343.292	1	-5
343.463	1	5
343.634	1	-9
343.805	1	3
343.976	1	4
344.147	1	-14
344.318	1	1
344.489	1	-6
344.660	1	-3
344.831	1	-4
345.002	1	1
345.173	1	-5
345.344	1	-7
345.515	1	4
345.686	1	2
345.857	1	-4
346.028	1	-8
346.199	1	1
346.370	1	2
346.541	1	-5
346.712	1	-9
346.883	1	-3
347.054	1	0
347.225	1	-2
347.396	1	0
347.567	1	2
347.738	1	9
347.909	1	7
348.080	1	-8
348.251	1	9
348.422	1	2
348.593	1	-6
348.764	1	-10
348.935	1	2
349.106	1	4
349.277	1	-12
349.448	1	5
349.619	1	1
349.790	1	-5
349.961	1	5
350.132	1	-7
350.303	1	-13
350.474	1	-5
350.645	1	-7
350.816	1	-14
350.987	1	-4
351.157	1	0
351.328	1	2
351.499	1	4
351.670	1	10
351.841	1	3
352.012	1	-12
352.183	1	-3
352.354	1	-3
352.525	1	-2
352.696	1	-5
352.867	1	-6
353.038	1	5
353.209	1	3
353.380	1	5
353.551	1	5
353.722	1	0
353.893	1	-7
354.064	1	5
354.235	1	1
354.406	1	-4
354.576	1	-2
354.747	1	-5
354.918	1	-12
355.089	1	-8
355.260	1	-2
355.431	1	2
355.602	1	3
355.773	1	-1
355.944	1	4
356.115	1	-6
356.286	1	8
356.457	1	-5
356.628	1	2
356.799	1	1
356.970	1	1
357.141	1	-10
357.311	1	-1
357.482	1	-3
357.653	1	-2
357.824	1	-8
357.995	1	-2
358.166	1	2
358.337	1	1
358.508	1	8
358.679	1	6
358.850	1	0
359.021	1	2
359.192	1	3
359.363	1	1
359.533	1	-1
359.704	1	-8
359.875	1	-5
360.046	1	-2
360.217	1	11
360.388	1	-6
360.559	1	6
360.730	1	0
360.901	1	2
361.072	1	-5
361.243	1	7
361.414	1	10
361.584	1	0
361.755	1	7
361.926	1	5
362.097	1	0
362.268	1	6
362.439	1	-3
362.610	1	-1
362.781	1	6
362.952	1	7
363.123	1	8
363.293	1	2
363.464	1	10
363.635	1	-5
363.806	1	-1
363.977	1	2
364.148	1	-4
364.319	1	-3
364.490	1	-3
364.661	1	4
364.832	1	3
365.002	1	7
365.173	1	11
365.344	1	0
365.515	1	-11
365.686	1	3
365.857	1	4
366.028	1	1
366.199	1	1
366.370	1	2
366.540	1	8
366.711	1	7
366.882	1	3
367.053	1	5
367.224	1	14
367.395	1	3
367.566	1	11
367.737	1	-11
367.908	1	5
368.078	1	6
368.249	1	3
368.420	1	-1
368.591	1	16
368.762	1	-12
368.933	1	13
369.104	1	11
369.274	1	-4
369.445	1	-5
369.616	1	-14
369.787	1	6
369.958	1	1
370.129	1	-1
370.300	1	-2
370.471	1	2
370.641	1	3
370.812	1	9
370.983	1	-3
371.154	1	2
371.325	1	7
371.496	1	-6
371.667	1	-3
371.837	1	-8
372.008	1	6
372.179	1	4
372.350	1	-11
372.521	1	0
372.692	1	-5
372.863	1	0
373.033	1	1
373.204	1	8
373.375	1	-3
373.546	1	0
373.717	1	-2
373.888	1	-3
374.059	1	-3
374.229	1	2
374.400	1	7
374.571	1	-12
374.742	1	1
374.913	1	-6
375.084	1	-9
375.254	1	-2
375.425	1	-1
375.596	1	-8
375.767	1	3
375.938	1	4
376.109	1	-10
376.279	1	-3
376.450	1	3
376.621	1	11
376.792	1	-7
376.963	1	3
377.134	1	-2
377.304	1	3
377.475	1	5
377.646	1	-9
377.817	1	8
377.988	1	-2
378.159	1	2
378.329	1	3
378.500	1	-3
378.671	1	0
378.842	1	-9
379.013	1	-4
379.184	1	1
379.354	1	7
379.525	1	9
379.696	1	-6
379.867	1	0
380.038	1	7
380.209	1	-1
380.379	1	-1
380.550	1	3
380.721	1	6
380.892	1	4
381.063	1	-5
381.233	1	9
381.404	1	7
381.575	1	-2
381.746	1	10
381.917	1	-4
382.087	1	-1
382.258	1	11
382.429	1	-1
382.600	1	1
382.771	1	-9
382.941	1	12
383.112	1	6
383.283	1	0
383.454	1	6
383.625	1	3
383.795	1	1
383.966	1	4
384.137	1	1
384.308	1	3
384.479	1	8
384.649	1	3
384.820	1	2
384.991	1	9
385.162	1	-2
385.333	1	17
385.503	1	14
385.674	1	-1
385.845	1	12
386.016	1	2
386.187	1	20
386.357	1	0
386.528	1	6
386.699	1	22
386.870	1	14
387.041	1	5
387.211	1	16
387.382	1	2
387.553	1	6
387.724	1	3
387.894	1	22
388.065	1	14
388.236	1	20
388.407	1	7
388.578	1	13
388.748	1	9
388.919	1	-4
389.090	1	13
389.261	1	-16
389.431	1	15
389.602	1	6
389.773	1	9
389.944	1	0
390.114	1	10
390.285	1	0
390.456	1	11
390.627	1	-6
390.798	1	7
390.968	1	-7
391.139	1	-3
391.310	1	2
391.481	1	2
391.651	1	7
391.822	1	16
391.993	1	10
392.164	1	-2
392.334	1	7
392.505	1	-3
392.676	1	7
392.847	1	7
393.017	1	-5
393.188	1	10
393.359	1	16
393.530	1	6
393.700	1	11
393.871	1	0
394.042	1	10
394.213	1	6
394.383	1	8
394.554	1	10
394.725	1	10
394.896	1	-1
395.066	1	14
395.237	1	16
395.408	1	7
395.579	1	11
395.749	1	14
395.920	1	5
396.091	1	11
396.262	1	8
396.432	1	0
396.603	1	5
396.774	1	-3
396.945	1	12
397.115	1	10
397.286	1	13
397.457	1	7
397.627	1	6
397.798	1	-5
397.969	1	3
398.140	1	3
398.310	1	12
398.481	1	-2
398.652	1	12
398.823	1	19
398.993	1	0
399.164	1	14
399.335	1	4
399.505	1	14
399.676	1	15
399.847	1	7
400.018	1	12
400.188	1	10
400.359	1	8
400.530	1	6
400.700	1	7
400.871	1	-7
401.042	1	3
401.213	1	-1
401.383	1	2
401.554	1	7
401.725	1	6
401.895	1	2
402.066	1	7
402.237	1	8
402.408	1	10
402.578	1	1
402.749	1	5
402.920	1	-7
403.090	1	8
403.261	1	0
403.432	1	2
403.603	1	7
403.773	1	12
403.944	1	10
404.115	1	-8
404.285	1	-6
404.456	1	1
404.627	1	3
404.797	1	15
404.968	1	-2
405.139	1	1
405.310	1	3
405.480	1	9
405.651	1	-2
405.822	1	7
405.992	1	0
406.163	1	12
406.334	1	7
406.504	1	2
406.675	1	14
406.846	1	-3
407.016	1	1
407.187	1	-4
407.358	1	5
407.528	1	2
407.699	1	9
407.870	1	2
408.041	1	9
408.211	1	-6
408.382	1	11
408.553	1	4
408.723	1	11
408.894	1	-6
409.065	1	13
409.235	1	3
409.406	1	5
409.577	1	3
409.747	1	7
409.918	1	2
410.089	1	-4
410.259	1	-10
410.430	1	9
410.601	1	-8
410.771	1	8
410.942	1	11
411.113	1	9
411.283	1	-3
411.454	1	-8
411.625	1	-6
411.795	1	3
411.966	1	-12
412.137	1	3
412.307	1	1
412.478	1	3
412.649	1	1
412.819	1	10
412.990	1	7
413.161	1	2
413.331	1	-10
413.502	1	11
413.672	1	0
413.843	1	4
414.014	1	6
414.184	1	-4
414.355	1	1
414.526	1	4
414.696	1	1
414.867	1	8
415.038	1	0
415.208	1	3
415.379	1	3
415.550	1	8
415.720	1	-3
415.891	1	7
416.062	1	6
416.232	1	6
416.403	1	8
416.573	1	-3
416.744	1	1
416.915	1	4
417.085	1	6
417.256	1	0
417.427	1	8
417.597	1	-11
417.768	1	-2
417.939	1	-3
418.109	1	3
418.280	1	-1
418.450	1	-7
418.621	1	1
418.792	1	-1
418.962	1	-3
419.133	1	-1
419.304	1	9
419.474	1	-1
419.645	1	14
419.815	1	-8
419.986	1	7
420.157	1	2
420.327	1	5
420.498	1	6
420.669	1	3
420.839	1	-3
421.010	1	9
421.180	1	-5
421.351	1	-2
421.522	1	-2
421.692	1	-5
421.863	1	-8
422.033	1	-3
422.204	1	-11
422.375	1	-7
422.545	1	3
422.716	1	-2
422.886	1	-6
423.057	1	-5
423.228	1	-1
423.398	1	1
423.569	1	5
423.740	1	-7
423.910	1	-2
424.081	1	7
424.251	1	-3
424.422	1	6
424.593	1	8
424.763	1	-5
424.934	1	0
425.104	1	1
425.275	1	-8
425.445	1	-4
425.616	1	5
425.787	1	-9
425.957	1	15
426.128	1	3
426.298	1	5
426.469	1	-5
426.640	1	-3
426.810	1	7
426.981	1	-11
427.151	1	0
427.322	1	1
427.493	1	5
427.663	1	-3
427.834	1	-1
428.004	1	0
428.175	1	1
428.345	1	9
428.516	1	2
428.687	1	-1
428.857	1	-5
429.028	1	1
429.198	1	-9
429.369	1	7
429.540	1	13
429.710	1	-8
429.881	1	10
430.051	1	4
430.222	1	-4
430.392	1	-2
430.563	1	8
430.734	1	1
430.904	1	-2
431.075	1	4
431.245	1	11
431.416	1	6
431.586	1	-7
431.757	1	0
431.927	1	-4
432.098	1	-8
432.269	1	2
432.439	1	-10
432.610	1	-11
432.780	1	-2
432.951	1	3
433.121	1	-2
433.292	1	-2
433.462	1	0
433.633	1	-7
433.804	1	-14
433.974	1	-8
434.145	1	-5
434.315	1	3
434.486	1	1
434.656	1	-8
434.827	1	0
434.997	1	2
435.168	1	-1
435.339	1	-2
435.509	1	9
435.680	1	2
435.850	1	-4
436.021	1	8
436.191	1	-5
436.362	1	-1
436.532	1	-1
436.703	1	10
436.873	1	-1
437.044	1	0
437.214	1	-8
437.385	1	-5
437.556	1	-7
437.726	1	-3
437.897	1	0
438.067	1	0
438.238	1	-5
438.408	1	6
438.579	1	8
438.749	1	7
438.920	1	-4
439.090	1	3
439.261	1	-7
439.431	1	2
439.602	1	-3
439.772	1	-2
439.943	1	-4
440.113	1	-5
440.284	1	10
440.455	1	-15
440.625	1	1
440.796	1	8
440.966	1	6
441.137	1	-17
441.307	1	3
441.478	1	-7
441.648	1	-8
441.819	1	1
441.989	1	1
442.160	1	6
442.330	1	6
442.501	1	-6
442.671	1	-6
442.842	1	3
443.012	1	10
443.183	1	-8
443.353	1	-2
443.524	1	7
443.694	1	1
443.865	1	-6
444.035	1	3
444.206	1	5
444.376	1	-1
444.547	1	7
444.717	1	9
444.888	1	-3
445.058	1	-7
445.229	1	4
445.399	1	5
445.570	1	1
445.740	1	2
445.911	1	16
446.081	1	5
446.252	1	-14
446.422	1	2
446.593	1	-3
446.763	1	4
446.934	1	9
447.104	1	-2
447.275	1	4
447.445	1	3
447.616	1	-8
447.786	1	-4
447.957	1	0
448.127	1	2
448.298	1	-5
448.468	1	0
448.639	1	1
448.809	1	1
448.979	1	-2
449.150	1	-2
449.320	1	-4
449.491	1	-3
449.661	1	1
449.832	1	-8
450.002	1	-1
450.173	1	-5
450.343	1	-6
450.514	1	-9
450.684	1	5
450.855	1	-1
451.025	1	3
451.196	1	-5
451.366	1	5
451.537	1	-3
451.707	1	12
451.878	1	-8
452.048	1	-2
452.218	1	-6
452.389	1	-1
452.559	1	3
452.730	1	1
452.900	1	-4
453.071	1	-2
453.241	1	-4
453.412	1	-6
453.582	1	6
453.753	1	-9
453.923	1	1
454.093	1	-3
454.264	1	-10
454.434	1	2
454.605	1	1
454.775	1	6
454.946	1	8
455.116	1	-2
455.287	1	11
455.457	1	-2
455.628	1	-1
455.798	1	-12
455.968	1	2
456.139	1	-3
456.309	1	-11
456.480	1	-10
456.650	1	-2
456.821	1	-5
456.991	1	3
457.161	1	5
457.332	1	-6
457.502	1	10
457.673	1	0
457.843	1	-4
458.014	1	-4
458.184	1	6
458.355	1	0
458.525	1	-4
458.695	1	-6
458.866	1	2
459.036	1	-4
459.207	1	0
459.377	1	-2
459.548	1	1
459.718	1	-11
459.888	1	1
460.059	1	2
460.229	1	1
460.400	1	7
460.570	1	-5
460.740	1	-7
460.911	1	11
461.081	1	-4
461.252	1	1
461.422	1	-2
461.593	1	1
461.763	1	-4
461.933	1	-15
462.104	1	-3
462.274	1	-2
462.445	1	-5
462.615	1	-5
462.785	1	-7
462.956	1	-4
463.126	1	-5
463.297	1	-4
463.467	1	-1
463.638	1	8
463.808	1	1
463.978	1	6
464.149	1	0
464.319	1	-5
464.490	1	-10
464.660	1	2
464.830	1	-1
465.001	1	7
465.171	1	1
465.342	1	5
465.512	1	4
465.682	1	-5
465.853	1	-2
466.023	1	-5
466.194	1	-6
466.364	1	4
466.534	1	-2
466.705	1	7
466.875	1	-1
467.045	1	7
467.216	1	-7
467.386	1	-8
467.557	1	1
467.727	1	-2
467.897	1	6
468.068	1	8
468.238	1	-6
468.409	1	5
468.579	1	9
468.749	1	-1
468.920	1	-3
469.090	1	3
469.260	1	0
469.431	1	4
469.601	1	7
469.772	1	-9
469.942	1	-2
470.112	1	3
470.283	1	17
470.453	1	-7
470.623	1	2
470.794	1	1
470.964	1	-8
471.135	1	-9
471.305	1	5
471.475	1	9
471.646	1	5
471.816	1	-1
471.986	1	2
472.157	1	-7
472.327	1	0
472.497	1	-5
472.668	1	-4
472.838	1	6
473.009	1	10
473.179	1	6
473.349	1	0
473.520	1	8
473.690	1	6
473.860	1	5
474.031	1	2
474.201	1	0
474.371	1	3
474.542	1	0
474.712	1	2
474.882	1	2
475.053	1	-3
475.223	1	-1
475.394	1	11
475.564	1	14
475.734	1	-3
475.905	1	-1
476.075	1	3
476.245	1	-5
476.416	1	-1
476.586	1	0
476.756	1	-1
476.927	1	9
477.097	1	-6
477.267	1	0
477.438	1	3
477.608	1	6
477.778	1	3
477.949	1	6
478.119	1	6
478.289	1	-1
478.460	1	-2
478.630	1	-3
478.800	1	-5
478.971	1	6
479.141	1	15
479.311	1	-5
479.482	1	-11
479.652	1	1
479.822	1	-2
479.993	1	-4
480.163	1	-11
480.333	1	-3
480.504	1	-8
480.674	1	10
480.844	1	3
481.015	1	-6
481.185	1	12
481.355	1	3
481.525	1	-1
481.696	1	3
481.866	1	-1
482.036	1	-1
482.207	1	8
482.377	1	-9
482.547	1	-3
482.718	1	5
482.888	1	-5
483.058	1	-2
483.229	1	9
483.399	1	4
483.569	1	12
483.740	1	-9
483.910	1	10
484.080	1	-13
484.250	1	2
484.421	1	-1
484.591	1	2
484.761	1	-12
484.932	1	-2
485.102	1	0
485.272	1	1
485.443	1	6
485.613	1	-14
485.783	1	8
485.953	1	-5
486.124	1	3
486.294	1	2
486.464	1	-4
486.635	1	10
486.805	1	15
486.975	1	-11
487.146	1	-6
487.316	1	4
487.486	1	2
487.656	1	-10
487.827	1	8
487.997	1	7
488.167	1	-9
488.338	1	7
488.508	1	5
488.678	1	-4
488.848	1	-5
489.019	1	-3
489.189	1	-2
489.359	1	0
489.529	1	-3
489.700	1	-5
489.870	1	-4
490.040	1	-6
490.211	1	3
490.381	1	-6
490.551	1	-11
490.721	1	3
490.892	1	7
491.062	1	10
491.232	1	4
491.402	1	-7
491.573	1	-3
491.743	1	-9
491.913	1	-3
492.084	1	3
492.254	1	-3
492.424	1	-1
492.594	1	7
492.765	1	4
492.935	1	-6
493.105	1	10
493.275	1	3
493.446	1	1
493.616	1	2
493.786	1	-7
493.956	1	-5
494.127	1	4
494.297	1	-3
494.467	1	-5
494.637	1	-8
494.808	1	6
494.978	1	1
495.148	1	-2
495.318	1	11
495.489	1	-8
495.659	1	0
495.829	1	8
495.999	1	1
496.170	1	-3
496.340	1	-7
496.510	1	-4
496.680	1	-1
496.851	1	4
497.021	1	3
497.191	1	7
497.361	1	0
497.532	1	-5
497.702	1	-10
497.872	1	7
498.042	1	2
498.213	1	4
498.383	1	-10
498.553	1	4
498.723	1	1
498.894	1	-1
499.064	1	16
499.234	1	-5
499.404	1	12
499.574	1	-7
499.745	1	-5
499.915	1	0
500.085	1	-8
500.255	1	4
500.426	1	-3
500.596	1	-5
500.766	1	10
500.936	1	1
501.106	1	6
501.277	1	8
501.447	1	-3
501.617	1	-1
501.787	1	-4
501.958	1	-2
502.128	1	-3
502.298	1	3
502.468	1	10
502.638	1	6
502.809	1	7
502.979	1	0
503.149	1	0
503.319	1	2
503.489	1	9
503.660	1	-5
503.830	1	-3
504.000	1	-8
504.170	1	12
504.340	1	8
504.511	1	9
504.681	1	0
504.851	1	9
505.021	1	-8
505.192	1	0
505.362	1	13
505.532	1	2
505.702	1	-1
505.872	1	-13
506.043	1	-1
506.213	1	0
506.383	1	-6
506.553	1	15
506.723	1	11
506.893	1	0
507.064	1	-2
507.234	1	12
507.404	1	-4
507.574	1	1
507.744	1	-8
507.915	1	-1
508.085	1	6
508.255	1	9
508.425	1	12
508.595	1	2
508.766	1	-3
508.936	1	3
509.106	1	-3
509.276	1	3
509.446	1	-12
509.616	1	2
509.787	1	2
509.957	1	-4
510.127	1	16
510.297	1	-1
510.467	1	-7
510.638	1	-13
510.808	1	-5
510.978	1	-14
511.148	1	2
511.318	1	-1
511.488	1	4
511.659	1	-1
511.829	1	1
511.999	1	17
512.169	1	5
512.339	1	-3
512.509	1	-4
512.680	1	5
512.850	1	-4
513.020	1	-7
513.190	1	5
513.360	1	11
513.530	1	-9
513.700	1	6
513.871	1	14
514.041	1	4
514.211	1	-16
514.381	1	1
514.551	1	-2
514.721	1	6
514.892	1	3
515.062	1	5
515.232	1	6
515.402	1	2
515.572	1	-1
515.742	1	3
515.912	1	6
516.083	1	-3
516.253	1	10
516.423	1	13
516.593	1	-6
516.763	1	-2
516.933	1	-3
517.104	1	8
517.274	1	10
517.444	1	14
517.614	1	5
517.784	1	-4
517.954	1	-6
518.124	1	5
518.294	1	2
518.465	1	1
518.635	1	-2
518.805	1	4
518.975	1	5
519.145	1	12
519.315	1	-1
519.485	1	-1
519.656	1	3
519.826	1	-2
519.996	1	14
520.166	1	14
520.336	1	-2
520.506	1	8
520.676	1	-1
520.846	1	-1
521.017	1	-8
521.187	1	-2
521.357	1	-7
521.527	1	2
521.697	1	-2
521.867	1	5
522.037	1	3
522.207	1	-8
522.377	1	7
522.548	1	-2
522.718	1	-6
522.888	1	2
523.058	1	21
523.228	1	17
523.398	1	7
523.568	1	-6
523.738	1	5
523.909	1	8
524.079	1	1
524.249	1	9
524.419	1	-2
524.589	1	6
524.759	1	-5
524.929	1	11
525.099	1	-1
525.269	1	17
525.439	1	-11
525.610	1	0
525.780	1	6
525.950	1	-7
526.120	1	-3
526.290	1	-2
526.460	1	7
526.630	1	9
526.800	1	5
526.970	1	-13
527.140	1	-5
527.311	1	4
527.481	1	10
527.651	1	12
527.821	1	3
527.991	1	7
528.161	1	3
528.331	1	7
528.501	1	-11
528.671	1	8
528.841	1	-4
529.011	1	4
529.181	1	4
529.352	1	-2
529.522	1	6
529.692	1	13
529.862	1	7
530.032	1	-2
530.202	1	5
530.372	1	-5
530.542	1	-2
530.712	1	5
530.882	1	-1
531.052	1	11
531.222	1	-6
531.392	1	2
531.563	1	2
531.733	1	16
531.903	1	4
532.073	1	3
532.243	1	1
532.413	1	9
532.583	1	-4
532.753	1	-2
532.923	1	8
533.093	1	12
533.263	1	1
533.433	1	1
533.603	1	2
533.773	1	-3
533.943	1	-5
534.113	1	4
534.284	1	1
534.454	1	-1
534.624	1	2
534.794	1	10
534.964	1	-2
535.134	1	2
535.304	1	4
535.474	1	1
535.644	1	7
535.814	1	7
535.984	1	-7
536.154	1	-1
536.324	1	1
536.494	1	10
536.664	1	0
536.834	1	7
537.004	1	9
537.174	1	14
537.344	1	-5
537.514	1	13
537.685	1	-1
537.855	1	8
538.025	1	0
538.195	1	18
538.365	1	15
538.535	1	13
538.705	1	-2
538.875	1	-1
539.045	1	15
539.215	1	-6
539.385	1	3
539.555	1	-11
539.725	1	7
539.895	1	7
540.065	1	5
540.235	1	-8
540.405	1	3
540.575	1	6
540.745	1	8
540.915	1	0
541.085	1	-2
541.255	1	-8
541.425	1	9
541.595	1	6
541.765	1	5
541.935	1	10
542.105	1	-1
542.275	1	-6
542.445	1	12
542.615	1	3
542.785	1	6
542.955	1	2
543.125	1	7
543.295	1	4
543.465	1	3
543.635	1	-2
543.805	1	8
543.975	1	-3
544.145	1	6
544.315	1	13
544.485	1	-2
544.655	1	-3
544.825	1	9
544.995	1	0
545.165	1	8
545.335	1	1
545.505	1	7
545.675	1	2
545.845	1	-2
546.015	1	-5
546.185	1	7
546.355	1	9
546.525	1	3
546.695	1	-4
546.865	1	-1
547.035	1	9
547.205	1	7
547.375	1	8
547.545	1	3
547.715	1	0
547.885	1	2
548.055	1	10
548.225	1	-6
548.395	1	-3
548.565	1	6
548.735	1	8
548.905	1	-13
549.075	1	4
549.245	1	-2
549.415	1	-8
549.585	1	0
549.755	1	0
549.925	1	-2
550.095	1	-3
550.265	1	5
550.435	1	5
550.605	1	0
550.775	1	-11
550.945	1	11
551.115	1	-6
551.285	1	6
551.455	1	2
551.625	1	-8
551.795	1	1
551.965	1	2
552.135	1	-10
552.305	1	-6
552.475	1	-7
552.645	1	9
552.815	1	0
552.985	1	11
553.155	1	-3
553.325	1	14
553.495	1	-2
553.665	1	3
553.835	1	2
554.004	1	-6
554.174	1	-2
554.344	1	-10
554.514	1	4
554.684	1	8
554.854	1	2
555.024	1	5
555.194	1	14
555.364	1	12
555.534	1	-7
555.704	1	-7
555.874	1	3
556.044	1	-4
556.214	1	0
556.384	1	-1
556.554	1	-2
556.724	1	-8
556.894	1	12
557.064	1	5
557.234	1	-1
557.404	1	-3
557.573	1	-7
557.743	1	8
557.913	1	-11
558.083	1	-13
558.253	1	2
558.423	1	-7
558.593	1	6
558.763	1	-3
558.933	1	7
559.103	1	-1
559.273	1	-7
559.443	1	-2
559.613	1	11
559.783	1	5
559.953	1	2
560.122	1	-6
560.292	1	-1
560.462	1	4
560.632	1	7
560.802	1	6
560.972	1	8
561.142	1	8
561.312	1	6
561.482	1	3
561.652	1	3
561.822	1	-3
561.992	1	7
562.162	1	-3
562.331	1	-3
562.501	1	-7
562.671	1	8
562.841	1	1
563.011	1	-4
563.181	1	7
563.351	1	4
563.521	1	4
563.691	1	-4
563.861	1	11
564.031	1	-1
564.201	1	8
564.370	1	0
564.540	1	8
564.710	1	-5
564.880	1	-1
565.050	1	0
565.220	1	-2
565.390	1	-9
565.560	1	10
565.730	1	2
565.900	1	-5
566.069	1	8
566.239	1	-1
566.409	1	10
566.579	1	2
566.749	1	11
566.919	1	4
567.089	1	-3
567.259	1	17
567.429	1	4
567.599	1	-8
567.768	1	5
567.938	1	7
568.108	1	-8
568.278	1	-11
568.448	1	-1
568.618	1	-1
568.788	1	-4
568.958	1	9
569.128	1	3
569.297	1	-7
569.467	1	5
569.637	1	1
569.807	1	4
569.977	1	3
570.147	1	-2
570.317	1	15
570.487	1	1
570.656	1	7
570.826	1	5
570.996	1	-2
571.166	1	-4
571.336	1	8
571.506	1	4
571.676	1	14
571.846	1	7
572.015	1	-7
572.185	1	-6
572.355	1	12
572.525	1	-3
572.695	1	3
572.865	1	0
573.035	1	0
573.205	1	14
573.374	1	6
573.544	1	-8
573.714	1	16
573.884	1	1
574.054	1	2
574.224	1	-5
574.394	1	-4
574.563	1	7
574.733	1	-2
574.903	1	-1
575.073	1	9
575.243	1	-3
575.413	1	7
575.583	1	4
575.752	1	0
575.922	1	0
576.092	1	5
576.262	1	-1
576.432	1	-7
576.602	1	2
576.772	1	-2
576.941	1	9
577.111	1	4
577.281	1	-11
577.451	1	1
577.621	1	-1
577.791	1	-5
577.960	1	-11
578.130	1	1
578.300	1	-4
578.470	1	4
578.640	1	2
578.810	1	1
578.979	1	0
579.149	1	3
579.319	1	3
579.489	1	1
579.659	1	-2
579.829	1	4
579.998	1	2
580.168	1	0
580.338	1	-19
580.508	1	2
580.678	1	4
580.848	1	-5
581.017	1	-3
581.187	1	8
581.357	1	2
581.527	1	3
581.697	1	-6
581.867	1	-6
582.036	1	14
582.206	1	-10
582.376	1	-4
582.546	1	5
582.716	1	12
582.885	1	-4
583.055	1	8
583.225	1	8
583.395	1	-7
583.565	1	5
583.735	1	-2
583.904	1	4
584.074	1	-5
584.244	1	0
584.414	1	2
584.584	1	7
584.753	1	-5
584.923	1	-8
585.093	1	7
585.263	1	4
585.433	1	0
585.602	1	7
585.772	1	3
585.942	1	-2
586.112	1	1
586.282	1	0
586.451	1	0
586.621	1	-4
586.791	1	-2
586.961	1	-1
587.131	1	0
587.300	1	-6
587.470	1	5
587.640	1	1
587.810	1	4
587.980	1	0
588.149	1	3
588.319	1	0
588.489	1	5
588.659	1	-3
588.829	1	10
588.998	1	-8
589.168	1	12
589.338	1	6
589.508	1	4
589.677	1	5
589.847	1	4
590.017	1	-3
590.187	1	3
590.357	1	-9
590.526	1	0
590.696	1	-8
590.866	1	0
591.036	1	9
591.205	1	-2
591.375	1	-7
591.545	1	-19
591.715	1	-8
591.885	1	3
592.054	1	-6
592.224	1	5
592.394	1	6
592.564	1	-10
592.733	1	-4
592.903	1	3
593.073	1	3
593.243	1	-8
593.412	1	2
593.582	1	4
593.752	1	-5
593.922	1	1
594.091	1	14
594.261	1	2
594.431	1	0
594.601	1	-10
594.771	1	9
594.940	1	-3
595.110	1	-8
595.280	1	1
595.450	1	7
595.619	1	-2
595.789	1	4
595.959	1	2
596.129	1	-2
596.298	1	6
596.468	1	5
596.638	1	2
596.808	1	1
596.977	1	-5
597.147	1	8
597.317	1	1
597.487	1	-3
597.656	1	1
597.826	1	4
597.996	1	9
598.166	1	-5
598.335	1	3
598.505	1	-8
598.675	1	-2
598.844	1	-7
599.014	1	3
599.184	1	-2
599.354	1	-11
599.523	1	-1
599.693	1	13
599.863	1	7
600.033	1	-5
600.202	1	-4
600.372	1	-7
600.542	1	-2
600.712	1	5
600.881	1	-2
601.051	1	2
601.221	1	-5
601.390	1	-8
601.560	1	-2
601.730	1	5
601.900	1	0
602.069	1	-11
602.239	1	-4
602.409	1	-10
602.578	1	-1
602.748	1	-7
602.918	1	-2
603.088	1	4
603.257	1	3
603.427	1	3
603.597	1	16
603.767	1	-2
603.936	1	6
604.106	1	5
604.276	1	5
604.445	1	9
604.615	1	0
604.785	1	-4
604.954	1	4
605.124	1	-3
605.294	1	0
605.464	1	-3
605.633	1	8
605.803	1	-3
605.973	1	-7
606.142	1	1
606.312	1	1
606.482	1	-3
606.652	1	-3
606.821	1	12
606.991	1	4
607.161	1	-8
607.330	1	3
607.500	1	3
607.670	1	-13
607.839	1	0
608.009	1	-6
608.179	1	1
608.348	1	-1
608.518	1	-3
608.688	1	5
608.858	1	-2
609.027	1	-4
609.197	1	-9
609.367	1	-4
609.536	1	0
609.706	1	-3
609.876	1	-2
610.045	1	-1
610.215	1	3
610.385	1	-3
610.554	1	-3
610.724	1	1
610.894	1	0
611.063	1	6
611.233	1	-7
611.403	1	-4
611.572	1	-4
611.742	1	1
611.912	1	-11
612.081	1	-5
612.251	1	7
612.421	1	14
612.590	1	10
612.760	1	5
612.930	1	5
613.099	1	-13
613.269	1	3
613.439	1	-3
613.608	1	1
613.778	1	-3
613.948	1	16
614.117	1	3
614.287	1	-2
614.457	1	-4
614.626	1	0
614.796	1	12
614.966	1	2
615.135	1	-9
615.305	1	-9
615.475	1	0
615.644	1	-6
615.814	1	0
615.984	1	12
616.153	1	7
616.323	1	4
616.493	1	3
616.662	1	-4
616.832	1	-2
617.002	1	0
617.171	1	0
617.341	1	-2
617.511	1	-1
617.680	1	3
617.850	1	-2
618.019	1	2
618.189	1	-4
618.359	1	-6
618.528	1	0
618.698	1	-8
618.868	1	8
619.037	1	4
619.207	1	-13
619.377	1	-16
619.546	1	2
619.716	1	-8
619.885	1	2
620.055	1	15
620.225	1	4
620.394	1	-1
620.564	1	-9
620.734	1	0
620.903	1	4
621.073	1	-3
621.242	1	-3
621.412	1	5
621.582	1	-1
621.751	1	-3
621.921	1	8
622.091	1	-3
622.260	1	0
622.430	1	-2
622.599	1	5
622.769	1	4
622.939	1	-7
623.108	1	7
623.278	1	2
623.448	1	-15
623.617	1	-3
623.787	1	1
623.956	1	-1
624.126	1	-4
624.296	1	2
624.465	1	9
624.635	1	-2
624.804	1	-1
624.974	1	-3
625.144	1	4
625.313	1	3
625.483	1	3
625.652	1	9
625.822	1	3
625.992	1	-9
626.161	1	-2
626.331	1	4
626.501	1	6
626.670	1	-1
626.840	1	10
627.009	1	-16
627.179	1	1
627.348	1	-12
627.518	1	-1
627.688	1	8
627.857	1	10
628.027	1	-1
628.196	1	0
628.366	1	11
628.536	1	0
628.705	1	-3
628.875	1	6
629.044	1	2
629.214	1	6
629.384	1	-11
629.553	1	3
629.723	1	7
629.892	1	-3
630.062	1	5
630.232	1	5
630.401	1	6
630.571	1	0
630.740	1	4
630.910	1	-2
631.079	1	10
631.249	1	-6
631.419	1	9
631.588	1	-3
631.758	1	1
631.927	1	4
632.097	1	11
632.266	1	-9
632.436	1	-10
632.606	1	15
632.775	1	-1
632.945	1	-7
633.114	1	8
633.284	1	-4
633.453	1	-15
633.623	1	2
633.793	1	-2
633.962	1	5
634.132	1	5
634.301	1	1
634.471	1	-11
634.640	1	1
634.810	1	-1
634.979	1	5
635.149	1	0
635.319	1	2
635.488	1	-4
635.658	1	-7
635.827	1	-6
635.997	1	2
636.166	1	-5
636.336	1	6
636.505	1	-4
636.675	1	0
636.845	1	7
637.014	1	1
637.184	1	0
637.353	1	5
637.523	1	-9
637.692	1	8
637.862	1	-16
638.031	1	8
638.201	1	8
638.370	1	-6
638.540	1	5
638.710	1	-2
638.879	1	-1
639.049	1	6
639.218	1	0
639.388	1	6
639.557	1	3
639.727	1	-4
639.896	1	-2
640.066	1	-1
640.235	1	7
640.405	1	-4
640.574	1	0
640.744	1	-1
640.914	1	9
641.083	1	-3
641.253	1	-10
641.422	1	-7
641.592	1	-9
641.761	1	1
641.931	1	7
642.100	1	-2
642.270	1	-1
642.439	1	0
642.609	1	-3
642.778	1	-2
642.948	1	-7
643.117	1	-8
643.287	1	5
643.456	1	5
643.626	1	3
643.795	1	7
643.965	1	-4
644.134	1	-7
644.304	1	-3
644.473	1	8
644.643	1	-2
644.812	1	10
644.982	1	3
645.151	1	5
645.321	1	15
645.490	1	-2
645.660	1	-13
645.829	1	-11
645.999	1	-7
646.168	1	-3
646.338	1	9
646.507	1	11
646.677	1	-4
646.846	1	3
647.016	1	1
647.185	1	0
647.355	1	-4
647.524	1	3
647.694	1	-5
647.863	1	1
648.033	1	-12
648.202	1	9
648.372	1	-6
648.541	1	0
648.711	1	2
648.880	1	-4
649.050	1	-4
649.219	1	8
649.389	1	1
649.558	1	-4
649.728	1	2
649.897	1	2
650.067	1	4
650.236	1	2
650.406	1	0
650.575	1	3
650.745	1	-12
650.914	1	-6
651.084	1	-6
651.253	1	-6
651.423	1	8
651.592	1	-2
651.762	1	2
651.931	1	-4
652.101	1	2
652.270	1	5
652.440	1	2
652.609	1	2
652.778	1	-6
652.948	1	-4
653.117	1	5
653.287	1	8
653.456	1	0
653.626	1	10
653.795	1	11
653.965	1	10
654.134	1	4
654.304	1	-3
654.473	1	1
654.643	1	9
654.812	1	-7
654.982	1	-13
655.151	1	-8
655.320	1	-3
655.490	1	9
655.659	1	1
655.829	1	1
655.998	1	6
656.168	1	-6
656.337	1	-15
656.507	1	9
656.676	1	-10
656.846	1	-6
657.015	1	-1
657.184	1	-2
657.354	1	4
657.523	1	-9
657.693	1	7
657.862	1	-7
658.032	1	8
658.201	1	-6
658.371	1	-11
658.540	1	-9
658.709	1	-17
658.879	1	-7
659.048	1	0
659.218	1	-4
659.387	1	-13
659.557	1	-1
659.726	1	1
659.895	1	6
660.065	1	11
660.234	1	0
660.404	1	-4
660.573	1	-12
660.743	1	3
660.912	1	-6
661.081	1	-2
661.251	1	8
661.420	1	-6
661.590	1	2
661.759	1	9
661.929	1	-7
662.098	1	-6
662.267	1	4
662.437	1	-5
662.606	1	3
662.776	1	-1
662.945	1	-4
663.115	1	-1
663.284	1	1
663.453	1	8
663.623	1	2
663.792	1	0
663.962	1	-12
664.131	1	-5
664.300	1	4
664.470	1	-6
664.639	1	-5
664.809	1	1
664.978	1	-1
665.148	1	0
665.317	1	-9
665.486	1	-3
665.656	1	-5
665.825	1	-5
665.995	1	1
666.164	1	6
666.333	1	1
666.503	1	-5
666.672	1	-16
666.842	1	-5
667.011	1	5
667.180	1	-8
667.350	1	3
667.519	1	-1
667.689	1	-8
667.858	1	3
668.027	1	-6
668.197	1	-4
668.366	1	-5
668.536	1	-2
668.705	1	4
668.874	1	-1
669.044	1	-2
669.213	1	4
669.382	1	-14
669.552	1	4
669.721	1	-7
669.891	1	0
670.060	1	7
670.229	1	1
670.399	1	13
670.568	1	0
670.738	1	-6
670.907	1	-9
671.076	1	-5
671.246	1	1
671.415	1	2
671.584	1	-2
671.754	1	-12
671.923	1	-3
672.093	1	-2
672.262	1	-4
672.431	1	-8
672.601	1	-9
672.770	1	-9
672.939	1	-6
673.109	1	-9
673.278	1	0
673.448	1	-3
673.617	1	-8
673.786	1	-1
