325.333	1	-7
325.504	1	9
325.675	1	-2
325.846	1	-2
326.017	1	-4
326.188	1	5
326.359	1	-1
326.531	1	-8
326.702	1	2
326.873	1	4
327.044	1	0
327.215	1	-10
327.386	1	-5
327.557	1	-6
327.728	1	-9
327.899	1	-6
328.070	1	-1
328.241	1	5
328.412	1	8
328.583	1	-6
328.754	1	-4
328.926	1	6
329.097	1	3
329.268	1	0
329.439	1	-8
329.610	1	-1
329.781	1	-1
329.952	1	2
330.123	1	3
330.294	1	3
330.465	1	0
330.636	1	2
330.807	1	6
330.978	1	-4
331.149	1	-2
331.320	1	-5
331.492	1	-13
331.663	1	-10
331.834	1	9
332.005	1	3
332.176	1	-8
332.347	1	2
332.518	1	6
332.689	1	5
332.860	1	2
333.031	1	7
333.202	1	-8
333.373	1	-2
333.544	1	-4
333.715	1	4
333.886	1	-4
334.057	1	-8
334.228	1	4
334.399	1	7
334.570	1	1
334.741	1	-15
334.912	1	-6
335.084	1	-5
335.255	1	3
335.426	1	-6
335.597	1	1
335.768	1	2
335.939	1	2
336.110	1	2
336.281	1	-5
336.452	1	4
336.623	1	0
336.794	1	-10
336.965	1	-2
337.136	1	5
337.307	1	6
337.478	1	10
337.649	1	7
337.820	1	8
337.991	1	2
338.162	1	-4
338.333	1	2
338.504	1	-4
338.675	1	-2
338.846	1	-8
339.017	1	2
339.188	1	-2
339.359	1	8
339.530	1	4
339.701	1	1
339.872	1	-5
340.043	1	-2
340.214	1	7
340.385	1	1
340.556	1	-2
340.727	1	0
340.898	1	-2
341.069	1	-2
341.240	1	4
341.411	1	0
341.582	1	-9
341.753	1	-9
341.924	1	0
342.095	1	4
342.266	1	-14
342.437	1	-5
342.608	1	1
342.779	1	-1
342.950	1	4
343.121	1	13
343.292	1	1
343.463	1	-15
343.634	1	-5
343.805	1	-2
343.976	1	5
344.147	1	0
344.318	1	4
344.489	1	-1
344.660	1	14
344.831	1	-5
345.002	1	1
345.173	1	-11
345.344	1	-11
345.515	1	-1
345.686	1	-5
345.857	1	-5
346.028	1	-6
346.199	1	-3
346.370	1	-1
346.541	1	-7
346.712	1	-4
346.883	1	-2
347.054	1	-1
347.225	1	-10
347.396	1	3
347.567	1	-3
347.738	1	4
347.909	1	2
348.080	1	-2
348.251	1	2
348.422	1	0
348.593	1	-1
348.764	1	-5
348.935	1	0
349.106	1	-6
349.277	1	-3
349.448	1	-4
349.619	1	-12
349.790	1	-3
349.961	1	8
350.132	1	-2
350.303	1	-9
350.474	1	2
350.645	1	-6
350.816	1	-7
350.987	1	-1
351.157	1	6
351.328	1	1
351.499	1	-1
351.670	1	15
351.841	1	1
352.012	1	-13
352.183	1	-8
352.354	1	1
352.525	1	1
352.696	1	-5
352.867	1	-4
353.038	1	11
353.209	1	13
353.380	1	1
353.551	1	-1
353.722	1	-3
353.893	1	5
354.064	1	6
354.235	1	3
354.406	1	-2
354.576	1	-2
354.747	1	-12
354.918	1	-13
355.089	1	-12
355.260	1	2
355.431	1	0
355.602	1	4
355.773	1	-4
355.944	1	-5
356.115	1	-10
356.286	1	-4
356.457	1	-6
356.628	1	-4
356.799	1	-4
356.970	1	-5
357.141	1	-1
357.311	1	-2
357.482	1	-7
357.653	1	-2
357.824	1	-1
357.995	1	-9
358.166	1	-4
358.337	1	1
358.508	1	-1
358.679	1	11
358.850	1	-1
359.021	1	-8
359.192	1	1
359.363	1	-8
359.533	1	0
359.704	1	-1
359.875	1	-3
360.046	1	-2
360.217	1	15
360.388	1	5
360.559	1	9
360.730	1	1
360.901	1	7
361.072	1	-10
361.243	1	-3
361.414	1	14
361.584	1	-1
361.755	1	2
361.926	1	10
362.097	1	-8
362.268	1	-2
362.439	1	5
362.610	1	-9
362.781	1	3
362.952	1	2
363.123	1	5
363.293	1	-4
363.464	1	7
363.635	1	-1
363.806	1	1
363.977	1	4
364.148	1	-4
364.319	1	-2
364.490	1	-6
364.661	1	7
364.832	1	-3
365.002	1	6
365.173	1	1
365.344	1	-5
365.515	1	-2
365.686	1	4
365.857	1	7
366.028	1	6
366.199	1	6
366.370	1	3
366.540	1	5
366.711	1	8
366.882	1	6
367.053	1	19
367.224	1	4
367.395	1	3
367.566	1	4
367.737	1	0
367.908	1	4
368.078	1	1
368.249	1	0
368.420	1	6
368.591	1	24
368.762	1	-6
368.933	1	3
369.104	1	-5
369.274	1	3
369.445	1	7
369.616	1	-6
369.787	1	5
369.958	1	-2
370.129	1	7
370.300	1	-7
370.471	1	9
370.641	1	-3
370.812	1	8
370.983	1	1
371.154	1	-4
371.325	1	3
371.496	1	0
371.667	1	10
371.837	1	-3
372.008	1	3
372.179	1	8
372.350	1	-4
372.521	1	-5
372.692	1	3
372.863	1	2
373.033	1	2
373.204	1	6
373.375	1	-2
373.546	1	-1
373.717	1	-3
373.888	1	-3
374.059	1	-5
374.229	1	-10
374.400	1	-3
374.571	1	-7
374.742	1	11
374.913	1	-4
375.084	1	-7
375.254	1	3
375.425	1	-2
375.596	1	-6
375.767	1	0
375.938	1	8
376.109	1	-12
376.279	1	-7
376.450	1	-1
376.621	1	10
376.792	1	-4
376.963	1	4
377.134	1	-9
377.304	1	10
377.475	1	4
377.646	1	-3
377.817	1	5
377.988	1	-2
378.159	1	-2
378.329	1	4
378.500	1	-10
378.671	1	-11
378.842	1	-9
379.013	1	0
379.184	1	11
379.354	1	3
379.525	1	8
379.696	1	-9
379.867	1	-1
380.038	1	9
380.209	1	10
380.379	1	-5
380.550	1	3
380.721	1	3
380.892	1	-5
381.063	1	2
381.233	1	5
381.404	1	10
381.575	1	1
381.746	1	16
381.917	1	-9
382.087	1	-2
382.258	1	9
382.429	1	-1
382.600	1	3
382.771	1	-11
382.941	1	-4
383.112	1	4
383.283	1	4
383.454	1	2
383.625	1	8
383.795	1	11
383.966	1	4
384.137	1	-2
384.308	1	11
384.479	1	14
384.649	1	8
384.820	1	1
384.991	1	6
385.162	1	5
385.333	1	13
385.503	1	8
385.674	1	4
385.845	1	8
386.016	1	1
386.187	1	16
386.357	1	10
386.528	1	10
386.699	1	15
386.870	1	23
387.041	1	-5
387.211	1	10
387.382	1	8
387.553	1	2
387.724	1	3
387.894	1	16
388.065	1	14
388.236	1	19
388.407	1	7
388.578	1	8
388.748	1	14
388.919	1	5
389.090	1	14
389.261	1	0
389.431	1	12
389.602	1	7
389.773	1	4
389.944	1	8
390.114	1	10
390.285	1	5
390.456	1	10
390.627	1	4
390.798	1	4
390.968	1	-8
391.139	1	-2
391.310	1	0
391.481	1	8
391.651	1	8
391.822	1	20
391.993	1	8
392.164	1	11
392.334	1	11
392.505	1	8
392.676	1	0
392.847	1	2
393.017	1	-5
393.188	1	6
393.359	1	10
393.530	1	11
393.700	1	12
393.871	1	2
394.042	1	13
394.213	1	14
394.383	1	5
394.554	1	16
394.725	1	1
394.896	1	-2
395.066	1	14
395.237	1	8
395.408	1	3
395.579	1	9
395.749	1	12
395.920	1	6
396.091	1	3
396.262	1	7
396.432	1	-2
396.603	1	5
396.774	1	1
396.945	1	13
397.115	1	12
397.286	1	16
397.457	1	0
397.627	1	7
397.798	1	-4
397.969	1	8
398.140	1	5
398.310	1	15
398.481	1	-10
398.652	1	16
398.823	1	25
398.993	1	1
399.164	1	16
399.335	1	-2
399.505	1	11
399.676	1	11
399.847	1	7
400.018	1	11
400.188	1	15
400.359	1	9
400.530	1	8
400.700	1	0
400.871	1	2
401.042	1	4
401.213	1	2
401.383	1	13
401.554	1	12
401.725	1	11
401.895	1	12
402.066	1	3
402.237	1	4
402.408	1	4
402.578	1	-7
402.749	1	-3
402.920	1	-6
403.090	1	-1
403.261	1	3
403.432	1	3
403.603	1	9
403.773	1	9
403.944	1	6
404.115	1	-8
404.285	1	0
404.456	1	-5
404.627	1	7
404.797	1	15
404.968	1	2
405.139	1	-2
405.310	1	7
405.480	1	13
405.651	1	1
405.822	1	7
405.992	1	-7
406.163	1	12
406.334	1	11
406.504	1	4
406.675	1	11
406.846	1	4
407.016	1	0
407.187	1	-1
407.358	1	-1
407.528	1	4
407.699	1	5
407.870	1	4
408.041	1	2
408.211	1	4
408.382	1	19
408.553	1	8
408.723	1	2
408.894	1	-6
409.065	1	6
409.235	1	-7
409.406	1	9
409.577	1	8
409.747	1	-1
409.918	1	0
410.089	1	11
410.259	1	-3
410.430	1	9
410.601	1	-6
410.771	1	-5
410.942	1	0
411.113	1	-2
411.283	1	2
411.454	1	3
411.625	1	6
411.795	1	5
411.966	1	-10
412.137	1	-4
412.307	1	6
412.478	1	9
412.649	1	3
412.819	1	6
412.990	1	16
413.161	1	11
413.331	1	-5
413.502	1	11
413.672	1	-5
413.843	1	4
414.014	1	-4
414.184	1	-4
414.355	1	-5
414.526	1	-8
414.696	1	-3
414.867	1	5
415.038	1	-5
415.208	1	4
415.379	1	3
415.550	1	6
415.720	1	3
415.891	1	15
416.062	1	4
416.232	1	0
416.403	1	0
416.573	1	6
416.744	1	11
416.915	1	-2
417.085	1	-1
417.256	1	7
417.427	1	6
417.597	1	-7
417.768	1	5
417.939	1	0
418.109	1	3
418.280	1	5
418.450	1	0
418.621	1	-4
418.792	1	-5
418.962	1	-2
419.133	1	-5
419.304	1	13
419.474	1	-4
419.645	1	13
419.815	1	-8
419.986	1	3
420.157	1	3
420.327	1	0
420.498	1	13
420.669	1	6
420.839	1	-4
421.010	1	2
421.180	1	1
421.351	1	9
421.522	1	13
421.692	1	3
421.863	1	-7
422.033	1	-11
422.204	1	-9
422.375	1	5
422.545	1	7
422.716	1	0
422.886	1	4
423.057	1	-5
423.228	1	-4
423.398	1	0
423.569	1	6
423.740	1	-7
423.910	1	-13
424.081	1	-5
424.251	1	-11
424.422	1	5
424.593	1	1
424.763	1	-4
424.934	1	4
425.104	1	16
425.275	1	-7
425.445	1	-6
425.616	1	13
425.787	1	-9
425.957	1	11
426.128	1	-7
426.298	1	-4
426.469	1	8
426.640	1	-7
426.810	1	14
426.981	1	-12
427.151	1	1
427.322	1	-2
427.493	1	1
427.663	1	-1
427.834	1	-6
428.004	1	10
428.175	1	2
428.345	1	11
428.516	1	1
428.687	1	11
428.857	1	5
429.028	1	0
429.198	1	-10
429.369	1	4
429.540	1	5
429.710	1	-4
429.881	1	5
430.051	1	4
430.222	1	-3
430.392	1	3
430.563	1	1
430.734	1	-5
430.904	1	-5
431.075	1	4
431.245	1	1
431.416	1	5
431.586	1	5
431.757	1	7
431.927	1	10
432.098	1	-6
432.269	1	0
432.439	1	-13
432.610	1	-6
432.780	1	-7
432.951	1	-4
433.121	1	4
433.292	1	6
433.462	1	3
433.633	1	-4
433.804	1	-1
433.974	1	-4
434.145	1	3
434.315	1	3
434.486	1	1
434.656	1	-2
434.827	1	-6
434.997	1	0
435.168	1	-1
435.339	1	12
435.509	1	2
435.680	1	-7
435.850	1	-1
436.021	1	4
436.191	1	-3
436.362	1	4
436.532	1	6
436.703	1	-3
436.873	1	-5
437.044	1	-2
437.214	1	-9
437.385	1	0
437.556	1	-9
437.726	1	-12
437.897	1	2
438.067	1	-5
438.238	1	-7
438.408	1	0
438.579	1	6
438.749	1	9
438.920	1	0
439.090	1	17
439.261	1	-7
439.431	1	-3
439.602	1	-6
439.772	1	9
439.943	1	-3
440.113	1	-4
440.284	1	3
440.455	1	-10
440.625	1	6
440.796	1	-2
440.966	1	7
441.137	1	-6
441.307	1	2
441.478	1	5
441.648	1	-12
441.819	1	-4
441.989	1	-1
442.160	1	6
442.330	1	3
442.501	1	-10
442.671	1	5
442.842	1	-2
443.012	1	-3
443.183	1	-4
443.353	1	0
443.524	1	3
443.694	1	3
443.865	1	2
444.035	1	-1
444.206	1	12
444.376	1	3
444.547	1	4
444.717	1	1
444.888	1	-4
445.058	1	-2
445.229	1	-10
445.399	1	0
445.570	1	8
445.740	1	1
445.911	1	8
446.081	1	1
446.252	1	-1
446.422	1	8
446.593	1	-6
446.763	1	6
446.934	1	5
447.104	1	-10
447.275	1	1
447.445	1	-2
447.616	1	-3
447.786	1	-1
447.957	1	7
448.127	1	-2
448.298	1	2
448.468	1	0
448.639	1	-12
448.809	1	1
448.979	1	0
449.150	1	4
449.320	1	2
449.491	1	0
449.661	1	-4
449.832	1	7
450.002	1	-6
450.173	1	-2
450.343	1	-2
450.514	1	5
450.684	1	-7
450.855	1	0
451.025	1	4
451.196	1	2
451.366	1	5
451.537	1	1
451.707	1	-1
451.878	1	-7
452.048	1	-4
452.218	1	-1
452.389	1	-17
452.559	1	-6
452.730	1	12
452.900	1	-1
453.071	1	6
453.241	1	-20
453.412	1	-12
453.582	1	13
453.753	1	-7
453.923	1	0
454.093	1	7
454.264	1	-6
454.434	1	-3
454.605	1	-2
454.775	1	12
454.946	1	-2
455.116	1	-5
455.287	1	16
455.457	1	-7
455.628	1	-5
455.798	1	-11
455.968	1	9
456.139	1	-2
456.309	1	-6
456.480	1	-6
456.650	1	-7
456.821	1	-1
456.991	1	2
457.161	1	1
457.332	1	6
457.502	1	0
457.673	1	-9
457.843	1	2
458.014	1	-5
458.184	1	0
458.355	1	4
458.525	1	3
458.695	1	9
458.866	1	1
459.036	1	0
459.207	1	2
459.377	1	-4
459.548	1	-9
459.718	1	-12
459.888	1	6
460.059	1	2
460.229	1	16
460.400	1	1
460.570	1	-6
460.740	1	-8
460.911	1	11
461.081	1	-9
461.252	1	1
461.422	1	-4
461.593	1	-6
461.763	1	2
461.933	1	-6
462.104	1	-8
462.274	1	3
462.445	1	-6
462.615	1	-8
462.785	1	-2
462.956	1	-6
463.126	1	-5
463.297	1	-3
463.467	1	3
463.638	1	6
463.808	1	9
463.978	1	-7
464.149	1	-9
464.319	1	4
464.490	1	-5
464.660	1	-5
464.830	1	9
465.001	1	7
465.171	1	-1
465.342	1	1
465.512	1	6
465.682	1	-3
465.853	1	-7
466.023	1	1
466.194	1	9
466.364	1	2
466.534	1	-4
466.705	1	2
466.875	1	8
467.045	1	2
467.216	1	-7
467.386	1	-1
467.557	1	-4
467.727	1	-7
467.897	1	8
468.068	1	5
468.238	1	-10
468.409	1	2
468.579	1	10
468.749	1	-1
468.920	1	-1
469.090	1	1
469.260	1	-2
469.431	1	5
469.601	1	-8
469.772	1	-13
469.942	1	5
470.112	1	-10
470.283	1	8
470.453	1	-1
470.623	1	-8
470.794	1	-1
470.964	1	-3
471.135	1	-5
471.305	1	-7
471.475	1	-7
471.646	1	4
471.816	1	-8
471.986	1	-3
472.157	1	2
472.327	1	1
472.497	1	-7
472.668	1	-8
472.838	1	4
473.009	1	-2
473.179	1	2
473.349	1	6
473.520	1	8
473.690	1	13
473.860	1	0
474.031	1	-1
474.201	1	1
474.371	1	5
474.542	1	-1
474.712	1	2
474.882	1	-6
475.053	1	-12
475.223	1	4
475.394	1	6
475.564	1	8
475.734	1	0
475.905	1	0
476.075	1	-3
476.245	1	0
476.416	1	-7
476.586	1	-1
476.756	1	-3
476.927	1	6
477.097	1	-6
477.267	1	-12
477.438	1	3
477.608	1	2
477.778	1	10
477.949	1	7
478.119	1	7
478.289	1	-5
478.460	1	-1
478.630	1	-3
478.800	1	-4
478.971	1	0
479.141	1	4
479.311	1	1
479.482	1	-6
479.652	1	-4
479.822	1	-8
479.993	1	3
480.163	1	-10
480.333	1	-10
480.504	1	5
480.674	1	4
480.844	1	5
481.015	1	-7
481.185	1	0
481.355	1	0
481.525	1	-4
481.696	1	-1
481.866	1	-4
482.036	1	-9
482.207	1	5
482.377	1	5
482.547	1	-3
482.718	1	4
482.888	1	-3
483.058	1	-7
483.229	1	8
483.399	1	-4
483.569	1	-1
483.740	1	-13
483.910	1	3
484.080	1	-17
484.250	1	1
484.421	1	-5
484.591	1	10
484.761	1	-13
484.932	1	3
485.102	1	0
485.272	1	8
485.443	1	3
485.613	1	-18
485.783	1	8
485.953	1	-4
486.124	1	-7
486.294	1	4
486.464	1	1
486.635	1	12
486.805	1	12
486.975	1	-19
487.146	1	-1
487.316	1	2
487.486	1	-4
487.656	1	-6
487.827	1	8
487.997	1	3
488.167	1	-1
488.338	1	19
488.508	1	-4
488.678	1	-5
488.848	1	-1
489.019	1	-4
489.189	1	-9
489.359	1	-5
489.529	1	4
489.700	1	-2
489.870	1	-8
490.040	1	3
490.211	1	23
490.381	1	-7
490.551	1	-15
490.721	1	7
490.892	1	5
491.062	1	3
491.232	1	0
491.402	1	-1
491.573	1	-1
491.743	1	-4
491.913	1	-3
492.084	1	3
492.254	1	-5
492.424	1	-6
492.594	1	-4
492.765	1	4
492.935	1	2
493.105	1	7
493.275	1	9
493.446	1	-4
493.616	1	2
493.786	1	-3
493.956	1	-1
494.127	1	-4
494.297	1	-8
494.467	1	-1
494.637	1	4
494.808	1	-2
494.978	1	10
495.148	1	4
495.318	1	7
495.489	1	2
495.659	1	5
495.829	1	0
495.999	1	5
496.170	1	-5
496.340	1	-2
496.510	1	-3
496.680	1	6
496.851	1	11
497.021	1	0
497.191	1	-1
497.361	1	-5
497.532	1	7
497.702	1	0
497.872	1	1
498.042	1	12
498.213	1	2
498.383	1	-2
498.553	1	1
498.723	1	2
498.894	1	-4
499.064	1	22
499.234	1	-10
499.404	1	3
499.574	1	-7
499.745	1	6
499.915	1	4
500.085	1	-12
500.255	1	8
500.426	1	3
500.596	1	1
500.766	1	3
500.936	1	-11
501.106	1	-7
501.277	1	7
501.447	1	-4
501.617	1	-4
501.787	1	-6
501.958	1	-8
502.128	1	-3
502.298	1	13
502.468	1	5
502.638	1	9
502.809	1	7
502.979	1	-2
503.149	1	3
503.319	1	2
503.489	1	-1
503.660	1	-13
503.830	1	2
504.000	1	-11
504.170	1	6
504.340	1	2
504.511	1	7
504.681	1	-4
504.851	1	-3
505.021	1	0
505.192	1	2
505.362	1	3
505.532	1	0
505.702	1	3
505.872	1	-7
506.043	1	-6
506.213	1	4
506.383	1	2
506.553	1	6
506.723	1	-1
506.893	1	5
507.064	1	-3
507.234	1	9
507.404	1	0
507.574	1	-2
507.744	1	-8
507.915	1	-1
508.085	1	2
508.255	1	3
508.425	1	-1
508.595	1	-2
508.766	1	-7
508.936	1	2
509.106	1	-4
509.276	1	8
509.446	1	-17
509.616	1	7
509.787	1	-1
509.957	1	8
510.127	1	10
510.297	1	-1
510.467	1	-5
510.638	1	0
510.808	1	-12
510.978	1	-8
511.148	1	11
511.318	1	-2
511.488	1	0
511.659	1	1
511.829	1	9
511.999	1	7
512.169	1	4
512.339	1	0
512.509	1	11
512.680	1	0
512.850	1	0
513.020	1	4
513.190	1	3
513.360	1	9
513.530	1	-3
513.700	1	6
513.871	1	10
514.041	1	9
514.211	1	-5
514.381	1	6
514.551	1	-1
514.721	1	2
514.892	1	4
515.062	1	2
515.232	1	7
515.402	1	2
515.572	1	-4
515.742	1	5
515.912	1	8
516.083	1	10
516.253	1	9
516.423	1	9
516.593	1	-8
516.763	1	-5
516.933	1	4
517.104	1	2
517.274	1	0
517.444	1	0
517.614	1	-9
517.784	1	1
517.954	1	-2
518.124	1	5
518.294	1	-8
518.465	1	-3
518.635	1	1
518.805	1	9
518.975	1	-2
519.145	1	2
519.315	1	1
519.485	1	-13
519.656	1	9
519.826	1	-3
519.996	1	11
520.166	1	5
520.336	1	-2
520.506	1	8
520.676	1	-5
520.846	1	0
521.017	1	0
521.187	1	4
521.357	1	-3
521.527	1	14
521.697	1	8
521.867	1	6
522.037	1	1
522.207	1	3
522.377	1	0
522.548	1	-5
522.718	1	3
522.888	1	6
523.058	1	10
523.228	1	13
523.398	1	1
523.568	1	-7
523.738	1	-5
523.909	1	12
524.079	1	12
524.249	1	5
524.419	1	3
524.589	1	5
524.759	1	-5
524.929	1	10
525.099	1	0
525.269	1	8
525.439	1	3
525.610	1	-4
525.780	1	6
525.950	1	-9
526.120	1	-16
526.290	1	-6
526.460	1	11
526.630	1	3
526.800	1	2
526.970	1	-3
527.140	1	-5
527.311	1	1
527.481	1	7
527.651	1	11
527.821	1	4
527.991	1	8
528.161	1	3
528.331	1	8
528.501	1	-9
528.671	1	0
528.841	1	9
529.011	1	0
529.181	1	1
529.352	1	4
529.522	1	-1
529.692	1	7
529.862	1	0
530.032	1	5
530.202	1	16
530.372	1	0
530.542	1	6
530.712	1	16
530.882	1	-3
531.052	1	15
531.222	1	-1
531.392	1	6
531.563	1	7
531.733	1	2
531.903	1	12
532.073	1	4
532.243	1	4
532.413	1	14
532.583	1	-3
532.753	1	0
532.923	1	-1
533.093	1	8
533.263	1	0
533.433	1	3
533.603	1	0
533.773	1	1
533.943	1	1
534.113	1	-2
534.284	1	-1
534.454	1	6
534.624	1	2
534.794	1	5
534.964	1	4
535.134	1	-1
535.304	1	9
535.474	1	1
535.644	1	-2
535.814	1	3
535.984	1	12
536.154	1	-3
536.324	1	4
536.494	1	9
536.664	1	7
536.834	1	5
537.004	1	17
537.174	1	2
537.344	1	5
537.514	1	7
537.685	1	3
537.855	1	2
538.025	1	-1
538.195	1	15
538.365	1	5
538.535	1	4
538.705	1	-3
538.875	1	2
539.045	1	10
539.215	1	-11
539.385	1	2
539.555	1	-7
539.725	1	6
539.895	1	4
540.065	1	3
540.235	1	-6
540.405	1	5
540.575	1	10
540.745	1	5
540.915	1	3
541.085	1	-12
541.255	1	-3
541.425	1	0
541.595	1	8
541.765	1	-8
541.935	1	6
542.105	1	5
542.275	1	-7
542.445	1	20
542.615	1	4
542.785	1	-2
542.955	1	6
543.125	1	-5
543.295	1	3
543.465	1	0
543.635	1	5
543.805	1	0
543.975	1	1
544.145	1	-3
544.315	1	4
544.485	1	0
544.655	1	11
544.825	1	10
544.995	1	2
545.165	1	6
545.335	1	-4
545.505	1	-7
545.675	1	-7
545.845	1	-5
546.015	1	0
546.185	1	0
546.355	1	6
546.525	1	4
546.695	1	-8
546.865	1	-11
547.035	1	7
547.205	1	2
547.375	1	7
547.545	1	9
547.715	1	3
547.885	1	5
548.055	1	1
548.225	1	-9
548.395	1	4
548.565	1	-1
548.735	1	11
548.905	1	4
549.075	1	5
549.245	1	7
549.415	1	3
549.585	1	-2
549.755	1	-11
549.925	1	5
550.095	1	7
550.265	1	-2
550.435	1	15
550.605	1	1
550.775	1	0
550.945	1	9
551.115	1	-4
551.285	1	1
551.455	1	1
551.625	1	-3
551.795	1	-5
551.965	1	-4
552.135	1	-10
552.305	1	5
552.475	1	0
552.645	1	11
552.815	1	-7
552.985	1	2
553.155	1	3
553.325	1	11
553.495	1	-6
553.665	1	0
553.835	1	-2
554.004	1	3
554.174	1	1
554.344	1	-1
554.514	1	12
554.684	1	1
554.854	1	7
555.024	1	-3
555.194	1	10
555.364	1	5
555.534	1	4
555.704	1	7
555.874	1	-6
556.044	1	8
556.214	1	7
556.384	1	15
556.554	1	-5
556.724	1	-9
556.894	1	1
557.064	1	1
557.234	1	7
557.404	1	-2
557.573	1	11
557.743	1	1
557.913	1	-2
558.083	1	-6
558.253	1	4
558.423	1	-10
558.593	1	-6
558.763	1	-2
558.933	1	5
559.103	1	-6
559.273	1	3
559.443	1	12
559.613	1	-5
559.783	1	9
559.953	1	-8
560.122	1	-12
560.292	1	3
560.462	1	-5
560.632	1	0
560.802	1	5
560.972	1	19
561.142	1	7
561.312	1	0
561.482	1	6
561.652	1	1
561.822	1	8
561.992	1	1
562.162	1	5
562.331	1	1
562.501	1	2
562.671	1	-3
562.841	1	-5
563.011	1	2
563.181	1	9
563.351	1	4
563.521	1	-5
563.691	1	1
563.861	1	13
564.031	1	3
564.201	1	2
564.370	1	5
564.540	1	14
564.710	1	-3
564.880	1	-1
565.050	1	3
565.220	1	9
565.390	1	-4
565.560	1	6
565.730	1	-3
565.900	1	-5
566.069	1	13
566.239	1	5
566.409	1	6
566.579	1	3
566.749	1	3
566.919	1	7
567.089	1	6
567.259	1	9
567.429	1	-2
567.599	1	1
567.768	1	6
567.938	1	-2
568.108	1	-3
568.278	1	-16
568.448	1	-4
568.618	1	1
568.788	1	-5
568.958	1	11
569.128	1	5
569.297	1	6
569.467	1	2
569.637	1	4
569.807	1	-2
569.977	1	3
570.147	1	-1
570.317	1	13
570.487	1	5
570.656	1	2
570.826	1	7
570.996	1	-8
571.166	1	-1
571.336	1	-5
571.506	1	1
571.676	1	0
571.846	1	-1
572.015	1	1
572.185	1	-4
572.355	1	9
572.525	1	4
572.695	1	10
572.865	1	9
573.035	1	3
573.205	1	12
573.374	1	1
573.544	1	-10
573.714	1	2
573.884	1	-3
574.054	1	-1
574.224	1	0
574.394	1	-4
574.563	1	4
574.733	1	-4
574.903	1	-1
575.073	1	3
575.243	1	-2
575.413	1	1
575.583	1	0
575.752	1	-6
575.922	1	4
576.092	1	15
576.262	1	-3
576.432	1	-6
576.602	1	4
576.772	1	6
576.941	1	6
577.111	1	0
577.281	1	-1
577.451	1	2
577.621	1	12
577.791	1	0
577.960	1	4
578.130	1	-6
578.300	1	0
578.470	1	5
578.640	1	1
578.810	1	6
578.979	1	0
579.149	1	0
579.319	1	7
579.489	1	11
579.659	1	4
579.829	1	0
579.998	1	-6
580.168	1	7
580.338	1	-13
580.508	1	6
580.678	1	-5
580.848	1	-3
581.017	1	3
581.187	1	-3
581.357	1	5
581.527	1	8
581.697	1	-16
581.867	1	-5
582.036	1	-2
582.206	1	-11
582.376	1	8
582.546	1	8
582.716	1	0
582.885	1	4
583.055	1	3
583.225	1	-2
583.395	1	2
583.565	1	16
583.735	1	4
583.904	1	3
584.074	1	-3
584.244	1	-6
584.414	1	-3
584.584	1	10
584.753	1	-7
584.923	1	4
585.093	1	1
585.263	1	5
585.433	1	-6
585.602	1	0
585.772	1	-6
585.942	1	-7
586.112	1	0
586.282	1	-3
586.451	1	-3
586.621	1	-3
586.791	1	3
586.961	1	-3
587.131	1	-8
587.300	1	-12
587.470	1	10
587.640	1	-6
587.810	1	4
587.980	1	1
588.149	1	-1
588.319	1	1
588.489	1	10
588.659	1	-1
588.829	1	4
588.998	1	-1
589.168	1	5
589.338	1	-2
589.508	1	12
589.677	1	-2
589.847	1	-3
590.017	1	-1
590.187	1	-5
590.357	1	-6
590.526	1	5
590.696	1	1
590.866	1	3
591.036	1	12
591.205	1	-5
591.375	1	-5
591.545	1	-3
591.715	1	-12
591.885	1	2
592.054	1	1
592.224	1	4
592.394	1	0
592.564	1	-12
592.733	1	0
592.903	1	-1
593.073	1	5
593.243	1	6
593.412	1	2
593.582	1	7
593.752	1	-4
593.922	1	2
594.091	1	-1
594.261	1	1
594.431	1	-6
594.601	1	-13
594.771	1	5
594.940	1	-5
595.110	1	-1
595.280	1	4
595.450	1	6
595.619	1	0
595.789	1	5
595.959	1	-1
596.129	1	-2
596.298	1	2
596.468	1	2
596.638	1	-3
596.808	1	15
596.977	1	-4
597.147	1	11
597.317	1	4
597.487	1	1
597.656	1	-3
597.826	1	-2
597.996	1	2
598.166	1	7
598.335	1	5
598.505	1	1
598.675	1	12
598.844	1	-7
599.014	1	-10
599.184	1	-4
599.354	1	-5
599.523	1	-7
599.693	1	11
599.863	1	7
600.033	1	-8
600.202	1	-1
600.372	1	-11
600.542	1	-10
600.712	1	-2
600.881	1	4
601.051	1	10
601.221	1	3
601.390	1	-12
601.560	1	-1
601.730	1	3
601.900	1	2
602.069	1	-7
602.239	1	-12
602.409	1	0
602.578	1	1
602.748	1	-12
602.918	1	-2
603.088	1	5
603.257	1	0
603.427	1	-3
603.597	1	17
603.767	1	-5
603.936	1	6
604.106	1	-5
604.276	1	-10
604.445	1	6
604.615	1	-9
604.785	1	5
604.954	1	3
605.124	1	-8
605.294	1	2
605.464	1	1
605.633	1	7
605.803	1	7
605.973	1	-4
606.142	1	0
606.312	1	-9
606.482	1	-3
606.652	1	-10
606.821	1	1
606.991	1	-10
607.161	1	6
607.330	1	8
607.500	1	5
607.670	1	-6
607.839	1	1
608.009	1	-13
608.179	1	9
608.348	1	-12
608.518	1	7
608.688	1	4
608.858	1	0
609.027	1	-3
609.197	1	-6
609.367	1	-3
609.536	1	-4
609.706	1	-5
609.876	1	-3
610.045	1	-1
610.215	1	-11
610.385	1	6
610.554	1	-2
610.724	1	12
610.894	1	-1
611.063	1	4
611.233	1	-12
611.403	1	2
611.572	1	13
611.742	1	-9
611.912	1	-14
612.081	1	-13
612.251	1	4
612.421	1	15
612.590	1	-2
612.760	1	3
612.930	1	-2
613.099	1	-10
613.269	1	-1
613.439	1	-1
613.608	1	6
613.778	1	3
613.948	1	4
614.117	1	4
614.287	1	-5
614.457	1	4
614.626	1	4
614.796	1	10
614.966	1	-8
615.135	1	-12
615.305	1	-8
615.475	1	5
615.644	1	-14
615.814	1	4
615.984	1	12
616.153	1	9
616.323	1	-2
616.493	1	4
616.662	1	1
616.832	1	-1
617.002	1	-11
617.171	1	0
617.341	1	16
617.511	1	-7
617.680	1	-3
617.850	1	-2
618.019	1	-2
618.189	1	-10
618.359	1	1
618.528	1	-2
618.698	1	-7
618.868	1	5
619.037	1	11
619.207	1	-12
619.377	1	-15
619.546	1	3
619.716	1	-7
619.885	1	-7
620.055	1	11
620.225	1	5
620.394	1	-2
620.564	1	-11
620.734	1	-1
620.903	1	4
621.073	1	-6
621.242	1	-11
621.412	1	4
621.582	1	-5
621.751	1	1
621.921	1	3
622.091	1	-3
622.260	1	-20
622.430	1	7
622.599	1	7
622.769	1	6
622.939	1	7
623.108	1	-7
623.278	1	-6
623.448	1	-9
623.617	1	2
623.787	1	-8
623.956	1	8
624.126	1	-7
624.296	1	5
624.465	1	6
624.635	1	3
624.804	1	-9
624.974	1	-7
625.144	1	4
625.313	1	2
625.483	1	4
625.652	1	9
625.822	1	6
625.992	1	1
626.161	1	3
626.331	1	2
626.501	1	-1
626.670	1	4
626.840	1	3
627.009	1	-20
627.179	1	-10
627.348	1	8
627.518	1	-5
627.688	1	1
627.857	1	5
628.027	1	-2
628.196	1	10
628.366	1	9
628.536	1	-6
628.705	1	-3
628.875	1	9
629.044	1	-4
629.214	1	7
629.384	1	-7
629.553	1	1
629.723	1	8
629.892	1	4
630.062	1	-3
630.232	1	2
630.401	1	-11
630.571	1	-11
630.740	1	5
630.910	1	2
631.079	1	5
631.249	1	-10
631.419	1	5
631.588	1	-11
631.758	1	5
631.927	1	1
632.097	1	4
632.266	1	-10
632.436	1	-1
632.606	1	5
632.775	1	-2
632.945	1	-7
633.114	1	1
633.284	1	-12
633.453	1	-6
633.623	1	-4
633.793	1	-3
633.962	1	11
634.132	1	2
634.301	1	3
634.471	1	-6
634.640	1	15
634.810	1	-3
634.979	1	3
635.149	1	-8
635.319	1	3
635.488	1	5
635.658	1	-5
635.827	1	-1
635.997	1	-3
636.166	1	-3
636.336	1	9
636.505	1	-1
636.675	1	-2
636.845	1	4
637.014	1	-5
637.184	1	-4
637.353	1	11
637.523	1	-5
637.692	1	4
637.862	1	-12
638.031	1	17
638.201	1	2
638.370	1	10
638.540	1	-8
638.710	1	-3
638.879	1	-3
639.049	1	5
639.218	1	3
639.388	1	8
639.557	1	-1
639.727	1	-7
639.896	1	-2
640.066	1	2
640.235	1	4
640.405	1	-4
640.574	1	-10
640.744	1	1
640.914	1	2
641.083	1	-6
641.253	1	0
641.422	1	-10
641.592	1	-5
641.761	1	-4
641.931	1	10
642.100	1	-9
642.270	1	-15
642.439	1	-3
642.609	1	-3
642.778	1	-2
642.948	1	2
643.117	1	-8
643.287	1	5
643.456	1	0
643.626	1	4
643.795	1	0
643.965	1	-4
644.134	1	0
644.304	1	3
644.473	1	9
644.643	1	8
644.812	1	13
644.982	1	9
645.151	1	2
645.321	1	2
645.490	1	5
645.660	1	-4
645.829	1	0
645.999	1	-12
646.168	1	-7
646.338	1	9
646.507	1	-4
646.677	1	-4
646.846	1	9
647.016	1	-6
647.185	1	-10
647.355	1	-5
647.524	1	5
647.694	1	-9
647.863	1	-8
648.033	1	-11
648.202	1	18
648.372	1	0
648.541	1	2
648.711	1	1
648.880	1	1
649.050	1	-8
649.219	1	-1
649.389	1	8
649.558	1	-6
649.728	1	3
649.897	1	5
650.067	1	-7
650.236	1	5
650.406	1	0
650.575	1	-1
650.745	1	-6
650.914	1	3
651.084	1	-5
651.253	1	0
651.423	1	0
651.592	1	-1
651.762	1	9
651.931	1	-3
652.101	1	-7
652.270	1	-3
652.440	1	2
652.609	1	0
652.778	1	-2
652.948	1	-4
653.117	1	-7
653.287	1	12
653.456	1	2
653.626	1	2
653.795	1	5
653.965	1	1
654.134	1	5
654.304	1	2
654.473	1	5
654.643	1	19
654.812	1	-5
654.982	1	-16
655.151	1	-19
655.320	1	-8
655.490	1	5
655.659	1	-6
655.829	1	9
655.998	1	4
656.168	1	-2
656.337	1	-12
656.507	1	8
656.676	1	-11
656.846	1	-5
657.015	1	-6
657.184	1	-6
657.354	1	-6
657.523	1	-1
657.693	1	-2
657.862	1	-1
658.032	1	11
658.201	1	-9
658.371	1	-3
658.540	1	-5
658.709	1	-11
658.879	1	2
659.048	1	6
659.218	1	-11
659.387	1	4
659.557	1	0
659.726	1	4
659.895	1	-5
660.065	1	1
660.234	1	2
660.404	1	-2
660.573	1	-4
660.743	1	-6
660.912	1	-1
661.081	1	-2
661.251	1	-6
661.420	1	2
661.590	1	-5
661.759	1	3
661.929	1	-4
662.098	1	-18
662.267	1	7
662.437	1	2
662.606	1	-2
662.776	1	4
662.945	1	3
663.115	1	-8
663.284	1	0
663.453	1	5
663.623	1	0
663.792	1	4
663.962	1	-5
664.131	1	-8
664.300	1	-4
664.470	1	5
664.639	1	0
664.809	1	1
664.978	1	2
665.148	1	-1
665.317	1	-12
665.486	1	-4
665.656	1	-6
665.825	1	4
665.995	1	8
666.164	1	-8
666.333	1	12
666.503	1	5
666.672	1	-10
666.842	1	-7
667.011	1	8
667.180	1	6
667.350	1	9
667.519	1	-7
667.689	1	3
667.858	1	-1
668.027	1	-9
668.197	1	0
668.366	1	-4
668.536	1	8
668.705	1	-3
668.874	1	-7
669.044	1	-14
669.213	1	-2
669.382	1	-11
669.552	1	9
669.721	1	-5
669.891	1	-6
670.060	1	4
670.229	1	2
670.399	1	5
670.568	1	4
670.738	1	-3
670.907	1	-3
671.076	1	5
671.246	1	-1
671.415	1	-2
671.584	1	0
671.754	1	-11
671.923	1	-7
672.093	1	0
672.262	1	7
672.431	1	6
672.601	1	0
672.770	1	-8
672.939	1	-10
673.109	1	-7
673.278	1	0
673.448	1	2
673.617	1	-3
673.786	1	-1
