325.333	1	-3
325.504	1	6
325.675	1	-5
325.846	1	-3
326.017	1	-1
326.188	1	17
326.359	1	1
326.531	1	-2
326.702	1	4
326.873	1	1
327.044	1	-1
327.215	1	0
327.386	1	0
327.557	1	2
327.728	1	1
327.899	1	-2
328.070	1	5
328.241	1	4
328.412	1	8
328.583	1	-5
328.754	1	-2
328.926	1	6
329.097	1	12
329.268	1	2
329.439	1	3
329.610	1	-10
329.781	1	-3
329.952	1	18
330.123	1	6
330.294	1	12
330.465	1	-1
330.636	1	8
330.807	1	-1
330.978	1	0
331.149	1	3
331.320	1	3
331.492	1	-1
331.663	1	-6
331.834	1	8
332.005	1	8
332.176	1	-3
332.347	1	8
332.518	1	5
332.689	1	1
332.860	1	-2
333.031	1	8
333.202	1	6
333.373	1	0
333.544	1	-2
333.715	1	-8
333.886	1	-2
334.057	1	-13
334.228	1	-3
334.399	1	4
334.570	1	9
334.741	1	-8
334.912	1	-2
335.084	1	-3
335.255	1	-2
335.426	1	-3
335.597	1	0
335.768	1	3
335.939	1	-3
336.110	1	-2
336.281	1	-1
336.452	1	1
336.623	1	8
336.794	1	-5
336.965	1	5
337.136	1	-1
337.307	1	5
337.478	1	3
337.649	1	1
337.820	1	10
337.991	1	-3
338.162	1	-1
338.333	1	0
338.504	1	1
338.675	1	13
338.846	1	9
339.017	1	9
339.188	1	5
339.359	1	3
339.530	1	-3
339.701	1	8
339.872	1	2
340.043	1	-6
340.214	1	-2
340.385	1	-3
340.556	1	6
340.727	1	3
340.898	1	9
341.069	1	-1
341.240	1	4
341.411	1	-2
341.582	1	-6
341.753	1	-12
341.924	1	-7
342.095	1	6
342.266	1	5
342.437	1	3
342.608	1	4
342.779	1	-9
342.950	1	5
343.121	1	4
343.292	1	2
343.463	1	-1
343.634	1	3
343.805	1	11
343.976	1	9
344.147	1	4
344.318	1	4
344.489	1	0
344.660	1	12
344.831	1	0
345.002	1	2
345.173	1	-7
345.344	1	1
345.515	1	2
345.686	1	3
345.857	1	4
346.028	1	-3
346.199	1	-4
346.370	1	-1
346.541	1	-7
346.712	1	3
346.883	1	1
347.054	1	3
347.225	1	1
347.396	1	2
347.567	1	0
347.738	1	9
347.909	1	3
348.080	1	-5
348.251	1	0
348.422	1	4
348.593	1	-1
348.764	1	9
348.935	1	5
349.106	1	0
349.277	1	-9
349.448	1	4
349.619	1	2
349.790	1	5
349.961	1	1
350.132	1	-6
350.303	1	-7
350.474	1	5
350.645	1	-1
350.816	1	-3
350.987	1	0
351.157	1	7
351.328	1	-8
351.499	1	3
351.670	1	12
351.841	1	-4
352.012	1	-12
352.183	1	2
352.354	1	3
352.525	1	9
352.696	1	-4
352.867	1	0
353.038	1	11
353.209	1	3
353.380	1	6
353.551	1	0
353.722	1	6
353.893	1	-2
354.064	1	9
354.235	1	1
354.406	1	-1
354.576	1	10
354.747	1	-3
354.918	1	5
355.089	1	-8
355.260	1	5
355.431	1	2
355.602	1	3
355.773	1	-1
355.944	1	3
356.115	1	-7
356.286	1	1
356.457	1	-5
356.628	1	-3
356.799	1	8
356.970	1	-4
357.141	1	-10
357.311	1	-7
357.482	1	1
357.653	1	-2
357.824	1	-5
357.995	1	0
358.166	1	3
358.337	1	-2
358.508	1	3
358.679	1	10
358.850	1	1
359.021	1	-4
359.192	1	9
359.363	1	2
359.533	1	-1
359.704	1	-2
359.875	1	5
360.046	1	3
360.217	1	4
360.388	1	4
360.559	1	-4
360.730	1	-3
360.901	1	5
361.072	1	-5
361.243	1	6
361.414	1	8
361.584	1	-1
361.755	1	4
361.926	1	16
362.097	1	11
362.268	1	12
362.439	1	7
362.610	1	0
362.781	1	4
362.952	1	2
363.123	1	14
363.293	1	-3
363.464	1	15
363.635	1	-3
363.806	1	5
363.977	1	6
364.148	1	-3
364.319	1	-2
364.490	1	4
364.661	1	1
364.832	1	-5
365.002	1	3
365.173	1	7
365.344	1	2
365.515	1	0
365.686	1	-5
365.857	1	0
366.028	1	-8
366.199	1	-7
366.370	1	5
366.540	1	1
366.711	1	1
366.882	1	4
367.053	1	11
367.224	1	3
367.395	1	0
367.566	1	12
367.737	1	-11
367.908	1	6
368.078	1	7
368.249	1	1
368.420	1	3
368.591	1	17
368.762	1	-6
368.933	1	0
369.104	1	5
369.274	1	7
369.445	1	-6
369.616	1	-3
369.787	1	1
369.958	1	-2
370.129	1	11
370.300	1	0
370.471	1	2
370.641	1	1
370.812	1	-4
370.983	1	0
371.154	1	4
371.325	1	-9
371.496	1	-9
371.667	1	4
371.837	1	-13
372.008	1	2
372.179	1	5
372.350	1	-2
372.521	1	12
372.692	1	6
372.863	1	2
373.033	1	2
373.204	1	-5
373.375	1	5
373.546	1	-3
373.717	1	-1
373.888	1	-4
374.059	1	2
374.229	1	-5
374.400	1	-2
374.571	1	2
374.742	1	1
374.913	1	-2
375.084	1	-5
375.254	1	2
375.425	1	-4
375.596	1	-7
375.767	1	7
375.938	1	-2
376.109	1	-4
376.279	1	-9
376.450	1	-4
376.621	1	7
376.792	1	-6
376.963	1	1
377.134	1	-5
377.304	1	14
377.475	1	8
377.646	1	8
377.817	1	4
377.988	1	1
378.159	1	-3
378.329	1	-2
378.500	1	-12
378.671	1	-9
378.842	1	-8
379.013	1	9
379.184	1	0
379.354	1	10
379.525	1	7
379.696	1	-7
379.867	1	3
380.038	1	4
380.209	1	8
380.379	1	-4
380.550	1	-1
380.721	1	12
380.892	1	1
381.063	1	-2
381.233	1	5
381.404	1	5
381.575	1	-6
381.746	1	8
381.917	1	-16
382.087	1	-1
382.258	1	10
382.429	1	1
382.600	1	0
382.771	1	-3
382.941	1	3
383.112	1	1
383.283	1	0
383.454	1	-1
383.625	1	-3
383.795	1	1
383.966	1	-2
384.137	1	0
384.308	1	6
384.479	1	9
384.649	1	-1
384.820	1	-5
384.991	1	0
385.162	1	-2
385.333	1	10
385.503	1	-1
385.674	1	1
385.845	1	4
386.016	1	-2
386.187	1	4
386.357	1	-8
386.528	1	8
386.699	1	6
386.870	1	9
387.041	1	-6
387.211	1	1
387.382	1	2
387.553	1	1
387.724	1	-6
387.894	1	11
388.065	1	5
388.236	1	15
388.407	1	2
388.578	1	2
388.748	1	7
388.919	1	4
389.090	1	13
389.261	1	-17
389.431	1	1
389.602	1	-3
389.773	1	1
389.944	1	3
390.114	1	6
390.285	1	2
390.456	1	0
390.627	1	-3
390.798	1	6
390.968	1	2
391.139	1	-2
391.310	1	3
391.481	1	-5
391.651	1	-1
391.822	1	9
391.993	1	7
392.164	1	-3
392.334	1	7
392.505	1	-1
392.676	1	4
392.847	1	14
393.017	1	-7
393.188	1	9
393.359	1	2
393.530	1	-4
393.700	1	3
393.871	1	5
394.042	1	0
394.213	1	-2
394.383	1	0
394.554	1	3
394.725	1	4
394.896	1	-5
395.066	1	4
395.237	1	12
395.408	1	3
395.579	1	5
395.749	1	12
395.920	1	1
396.091	1	-6
396.262	1	-2
396.432	1	-2
396.603	1	-3
396.774	1	-4
396.945	1	3
397.115	1	13
397.286	1	9
397.457	1	0
397.627	1	4
397.798	1	-5
397.969	1	-3
398.140	1	3
398.310	1	12
398.481	1	-10
398.652	1	13
398.823	1	10
398.993	1	-1
399.164	1	3
399.335	1	1
399.505	1	7
399.676	1	1
399.847	1	-1
400.018	1	1
400.188	1	13
400.359	1	0
400.530	1	10
400.700	1	2
400.871	1	-9
401.042	1	-3
401.213	1	-5
401.383	1	6
401.554	1	0
401.725	1	-2
401.895	1	4
402.066	1	8
402.237	1	5
402.408	1	-2
402.578	1	-1
402.749	1	2
402.920	1	-11
403.090	1	4
403.261	1	-2
403.432	1	2
403.603	1	2
403.773	1	0
403.944	1	4
404.115	1	-8
404.285	1	5
404.456	1	2
404.627	1	6
404.797	1	18
404.968	1	2
405.139	1	1
405.310	1	-5
405.480	1	8
405.651	1	5
405.822	1	13
405.992	1	-8
406.163	1	4
406.334	1	1
406.504	1	-5
406.675	1	22
406.846	1	-1
407.016	1	1
407.187	1	-1
407.358	1	-2
407.528	1	2
407.699	1	4
407.870	1	10
408.041	1	-4
408.211	1	2
408.382	1	2
408.553	1	6
408.723	1	-1
408.894	1	-2
409.065	1	7
409.235	1	-1
409.406	1	7
409.577	1	6
409.747	1	-7
409.918	1	-1
410.089	1	-1
410.259	1	-8
410.430	1	20
410.601	1	-2
410.771	1	3
410.942	1	0
411.113	1	-1
411.283	1	-2
411.454	1	-6
411.625	1	-2
411.795	1	6
411.966	1	-4
412.137	1	2
412.307	1	4
412.478	1	6
412.649	1	-2
412.819	1	0
412.990	1	16
413.161	1	8
413.331	1	-10
413.502	1	6
413.672	1	3
413.843	1	1
414.014	1	18
414.184	1	-5
414.355	1	-7
414.526	1	-5
414.696	1	0
414.867	1	11
415.038	1	1
415.208	1	-7
415.379	1	5
415.550	1	5
415.720	1	4
415.891	1	7
416.062	1	-1
416.232	1	5
416.403	1	0
416.573	1	0
416.744	1	3
416.915	1	-4
417.085	1	-1
417.256	1	-4
417.427	1	6
417.597	1	-13
417.768	1	4
417.939	1	-5
418.109	1	12
418.280	1	2
418.450	1	2
418.621	1	3
418.792	1	-7
418.962	1	-8
419.133	1	4
419.304	1	1
419.474	1	2
419.645	1	7
419.815	1	4
419.986	1	9
420.157	1	14
420.327	1	6
420.498	1	9
420.669	1	0
420.839	1	0
421.010	1	3
421.180	1	5
421.351	1	1
421.522	1	6
421.692	1	1
421.863	1	-4
422.033	1	-1
422.204	1	-4
422.375	1	-2
422.545	1	5
422.716	1	2
422.886	1	-1
423.057	1	-7
423.228	1	-4
423.398	1	4
423.569	1	1
423.740	1	-7
423.910	1	-4
424.081	1	2
424.251	1	-1
424.422	1	4
424.593	1	8
424.763	1	-4
424.934	1	2
425.104	1	-3
425.275	1	-12
425.445	1	-7
425.616	1	4
425.787	1	-8
425.957	1	17
426.128	1	7
426.298	1	2
426.469	1	-2
426.640	1	-3
426.810	1	7
426.981	1	-8
427.151	1	9
427.322	1	6
427.493	1	-1
427.663	1	-3
427.834	1	2
428.004	1	5
428.175	1	10
428.345	1	5
428.516	1	4
428.687	1	-3
428.857	1	-3
429.028	1	0
429.198	1	-1
429.369	1	7
429.540	1	0
429.710	1	-7
429.881	1	13
430.051	1	13
430.222	1	0
430.392	1	0
430.563	1	6
430.734	1	2
430.904	1	7
431.075	1	16
431.245	1	3
431.416	1	3
431.586	1	-2
431.757	1	4
431.927	1	7
432.098	1	4
432.269	1	-2
432.439	1	-1
432.610	1	-8
432.780	1	6
432.951	1	4
433.121	1	11
433.292	1	5
433.462	1	2
433.633	1	-8
433.804	1	-4
433.974	1	-6
434.145	1	1
434.315	1	1
434.486	1	4
434.656	1	3
434.827	1	2
434.997	1	7
435.168	1	0
435.339	1	9
435.509	1	4
435.680	1	-2
435.850	1	-4
436.021	1	4
436.191	1	-4
436.362	1	2
436.532	1	-2
436.703	1	1
436.873	1	0
437.044	1	1
437.214	1	-8
437.385	1	-6
437.556	1	4
437.726	1	-7
437.897	1	-4
438.067	1	-3
438.238	1	-5
438.408	1	-1
438.579	1	10
438.749	1	8
438.920	1	-1
439.090	1	10
439.261	1	6
439.431	1	-7
439.602	1	1
439.772	1	12
439.943	1	12
440.113	1	-7
440.284	1	7
440.455	1	-3
440.625	1	5
440.796	1	7
440.966	1	11
441.137	1	-11
441.307	1	-6
441.478	1	9
441.648	1	-4
441.819	1	-1
441.989	1	-5
442.160	1	7
442.330	1	1
442.501	1	-14
442.671	1	7
442.842	1	3
443.012	1	3
443.183	1	-3
443.353	1	17
443.524	1	5
443.694	1	8
443.865	1	5
444.035	1	-6
444.206	1	12
444.376	1	6
444.547	1	-5
444.717	1	16
444.888	1	-4
445.058	1	6
445.229	1	0
445.399	1	3
445.570	1	1
445.740	1	1
445.911	1	10
446.081	1	4
446.252	1	-6
446.422	1	-2
446.593	1	6
446.763	1	8
446.934	1	10
447.104	1	-14
447.275	1	1
447.445	1	-1
447.616	1	-1
447.786	1	6
447.957	1	9
448.127	1	5
448.298	1	2
448.468	1	1
448.639	1	4
448.809	1	-2
448.979	1	11
449.150	1	8
449.320	1	7
449.491	1	1
449.661	1	0
449.832	1	-1
450.002	1	-10
450.173	1	-3
450.343	1	-2
450.514	1	1
450.684	1	-6
450.855	1	5
451.025	1	-3
451.196	1	5
451.366	1	1
451.537	1	8
451.707	1	-2
451.878	1	-2
452.048	1	-8
452.218	1	-2
452.389	1	-2
452.559	1	-4
452.730	1	1
452.900	1	1
453.071	1	2
453.241	1	0
453.412	1	-5
453.582	1	11
453.753	1	-2
453.923	1	-3
454.093	1	3
454.264	1	-14
454.434	1	4
454.605	1	3
454.775	1	7
454.946	1	0
455.116	1	2
455.287	1	13
455.457	1	-5
455.628	1	0
455.798	1	-4
455.968	1	9
456.139	1	6
456.309	1	-2
456.480	1	1
456.650	1	-2
456.821	1	-1
456.991	1	3
457.161	1	7
457.332	1	7
457.502	1	7
457.673	1	-11
457.843	1	6
458.014	1	-4
458.184	1	9
458.355	1	7
458.525	1	-5
458.695	1	10
458.866	1	1
459.036	1	2
459.207	1	2
459.377	1	-5
459.548	1	-2
459.718	1	0
459.888	1	10
460.059	1	1
460.229	1	3
460.400	1	11
460.570	1	8
460.740	1	-7
460.911	1	9
461.081	1	-5
461.252	1	4
461.422	1	4
461.593	1	-4
461.763	1	3
461.933	1	-5
462.104	1	2
462.274	1	3
462.445	1	-5
462.615	1	-16
462.785	1	-7
462.956	1	-3
463.126	1	-1
463.297	1	-3
463.467	1	7
463.638	1	4
463.808	1	1
463.978	1	-1
464.149	1	3
464.319	1	7
464.490	1	0
464.660	1	3
464.830	1	2
465.001	1	4
465.171	1	8
465.342	1	6
465.512	1	6
465.682	1	-3
465.853	1	1
466.023	1	2
466.194	1	2
466.364	1	2
466.534	1	-2
466.705	1	7
466.875	1	6
467.045	1	4
467.216	1	-7
467.386	1	6
467.557	1	6
467.727	1	0
467.897	1	9
468.068	1	5
468.238	1	-1
468.409	1	5
468.579	1	5
468.749	1	4
468.920	1	3
469.090	1	4
469.260	1	16
469.431	1	4
469.601	1	2
469.772	1	-2
469.942	1	7
470.112	1	-7
470.283	1	9
470.453	1	-5
470.623	1	2
470.794	1	-1
470.964	1	4
471.135	1	-7
471.305	1	-7
471.475	1	-1
471.646	1	3
471.816	1	1
471.986	1	8
472.157	1	7
472.327	1	3
472.497	1	-2
472.668	1	1
472.838	1	5
473.009	1	3
473.179	1	3
473.349	1	4
473.520	1	1
473.690	1	7
473.860	1	10
474.031	1	2
474.201	1	0
474.371	1	13
474.542	1	0
474.712	1	0
474.882	1	-6
475.053	1	-3
475.223	1	5
475.394	1	5
475.564	1	21
475.734	1	-6
475.905	1	3
476.075	1	6
476.245	1	-5
476.416	1	0
476.586	1	-2
476.756	1	0
476.927	1	6
477.097	1	-1
477.267	1	-7
477.438	1	-3
477.608	1	8
477.778	1	12
477.949	1	9
478.119	1	1
478.289	1	4
478.460	1	-1
478.630	1	1
478.800	1	-1
478.971	1	2
479.141	1	6
479.311	1	3
479.482	1	-9
479.652	1	0
479.822	1	-3
479.993	1	0
480.163	1	-6
480.333	1	-1
480.504	1	-2
480.674	1	2
480.844	1	6
481.015	1	-1
481.185	1	13
481.355	1	6
481.525	1	-3
481.696	1	-5
481.866	1	0
482.036	1	-6
482.207	1	5
482.377	1	9
482.547	1	6
482.718	1	13
482.888	1	0
483.058	1	1
483.229	1	2
483.399	1	0
483.569	1	-5
483.740	1	-12
483.910	1	3
484.080	1	-8
484.250	1	8
484.421	1	1
484.591	1	8
484.761	1	4
484.932	1	6
485.102	1	7
485.272	1	7
485.443	1	12
485.613	1	-6
485.783	1	9
485.953	1	-8
486.124	1	14
486.294	1	8
486.464	1	-10
486.635	1	8
486.805	1	12
486.975	1	-11
487.146	1	2
487.316	1	7
487.486	1	2
487.656	1	-6
487.827	1	8
487.997	1	-1
488.167	1	7
488.338	1	19
488.508	1	8
488.678	1	11
488.848	1	2
489.019	1	-2
489.189	1	-5
489.359	1	8
489.529	1	-2
489.700	1	4
489.870	1	-1
490.040	1	7
490.211	1	8
490.381	1	4
490.551	1	-2
490.721	1	8
490.892	1	-2
491.062	1	8
491.232	1	13
491.402	1	-7
491.573	1	5
491.743	1	-15
491.913	1	8
492.084	1	0
492.254	1	2
492.424	1	3
492.594	1	11
492.765	1	2
492.935	1	-7
493.105	1	10
493.275	1	8
493.446	1	-1
493.616	1	8
493.786	1	-1
493.956	1	2
494.127	1	2
494.297	1	-1
494.467	1	9
494.637	1	-1
494.808	1	5
494.978	1	4
495.148	1	7
495.318	1	17
495.489	1	-4
495.659	1	6
495.829	1	2
495.999	1	3
496.170	1	-5
496.340	1	12
496.510	1	3
496.680	1	1
496.851	1	4
497.021	1	3
497.191	1	1
497.361	1	6
497.532	1	-3
497.702	1	-2
497.872	1	-4
498.042	1	10
498.213	1	6
498.383	1	-4
498.553	1	1
498.723	1	-2
498.894	1	2
499.064	1	17
499.234	1	-10
499.404	1	-3
499.574	1	-5
499.745	1	0
499.915	1	6
500.085	1	0
500.255	1	11
500.426	1	-5
500.596	1	-5
500.766	1	3
500.936	1	-6
501.106	1	-3
501.277	1	5
501.447	1	3
501.617	1	12
501.787	1	-7
501.958	1	9
502.128	1	-1
502.298	1	3
502.468	1	5
502.638	1	-3
502.809	1	14
502.979	1	-2
503.149	1	1
503.319	1	-4
503.489	1	4
503.660	1	0
503.830	1	-1
504.000	1	-9
504.170	1	4
504.340	1	6
504.511	1	5
504.681	1	-5
504.851	1	2
505.021	1	0
505.192	1	9
505.362	1	7
505.532	1	0
505.702	1	1
505.872	1	-7
506.043	1	-1
506.213	1	9
506.383	1	-3
506.553	1	7
506.723	1	6
506.893	1	12
507.064	1	-5
507.234	1	1
507.404	1	-7
507.574	1	-3
507.744	1	-9
507.915	1	-3
508.085	1	10
508.255	1	1
508.425	1	9
508.595	1	2
508.766	1	0
508.936	1	7
509.106	1	-4
509.276	1	-1
509.446	1	-2
509.616	1	1
509.787	1	4
509.957	1	0
510.127	1	4
510.297	1	-9
510.467	1	0
510.638	1	0
510.808	1	-6
510.978	1	-14
511.148	1	9
511.318	1	5
511.488	1	13
511.659	1	3
511.829	1	-4
511.999	1	10
512.169	1	2
512.339	1	10
512.509	1	1
512.680	1	0
512.850	1	-3
513.020	1	4
513.190	1	3
513.360	1	5
513.530	1	-7
513.700	1	8
513.871	1	6
514.041	1	0
514.211	1	-3
514.381	1	-1
514.551	1	1
514.721	1	-6
514.892	1	4
515.062	1	2
515.232	1	5
515.402	1	-4
515.572	1	-4
515.742	1	8
515.912	1	6
516.083	1	5
516.253	1	-5
516.423	1	14
516.593	1	-5
516.763	1	-4
516.933	1	3
517.104	1	9
517.274	1	9
517.444	1	0
517.614	1	5
517.784	1	-4
517.954	1	0
518.124	1	7
518.294	1	-2
518.465	1	-1
518.635	1	-2
518.805	1	2
518.975	1	6
519.145	1	13
519.315	1	-3
519.485	1	-11
519.656	1	3
519.826	1	9
519.996	1	7
520.166	1	7
520.336	1	5
520.506	1	2
520.676	1	-4
520.846	1	-5
521.017	1	-4
521.187	1	-1
521.357	1	-2
521.527	1	0
521.697	1	3
521.867	1	7
522.037	1	-3
522.207	1	-11
522.377	1	4
522.548	1	-6
522.718	1	3
522.888	1	0
523.058	1	16
523.228	1	19
523.398	1	3
523.568	1	-2
523.738	1	-3
523.909	1	9
524.079	1	0
524.249	1	4
524.419	1	4
524.589	1	9
524.759	1	-3
524.929	1	2
525.099	1	5
525.269	1	6
525.439	1	-7
525.610	1	1
525.780	1	6
525.950	1	-3
526.120	1	-5
526.290	1	-1
526.460	1	9
526.630	1	8
526.800	1	10
526.970	1	-9
527.140	1	-2
527.311	1	5
527.481	1	6
527.651	1	8
527.821	1	-5
527.991	1	4
528.161	1	2
528.331	1	1
528.501	1	-9
528.671	1	3
528.841	1	3
529.011	1	-4
529.181	1	5
529.352	1	10
529.522	1	3
529.692	1	5
529.862	1	4
530.032	1	-8
530.202	1	6
530.372	1	-4
530.542	1	3
530.712	1	13
530.882	1	8
531.052	1	3
531.222	1	-17
531.392	1	0
531.563	1	7
531.733	1	-1
531.903	1	3
532.073	1	-1
532.243	1	-6
532.413	1	9
532.583	1	1
532.753	1	-2
532.923	1	-5
533.093	1	2
533.263	1	-4
533.433	1	8
533.603	1	-1
533.773	1	-2
533.943	1	-3
534.113	1	-4
534.284	1	-1
534.454	1	5
534.624	1	3
534.794	1	-2
534.964	1	-15
535.134	1	-8
535.304	1	14
535.474	1	2
535.644	1	10
535.814	1	9
535.984	1	-3
536.154	1	-1
536.324	1	2
536.494	1	12
536.664	1	-2
536.834	1	0
537.004	1	13
537.174	1	6
537.344	1	5
537.514	1	4
537.685	1	-1
537.855	1	2
538.025	1	2
538.195	1	14
538.365	1	6
538.535	1	6
538.705	1	-5
538.875	1	1
539.045	1	10
539.215	1	-8
539.385	1	1
539.555	1	-6
539.725	1	9
539.895	1	0
540.065	1	-2
540.235	1	-7
540.405	1	8
540.575	1	5
540.745	1	2
540.915	1	3
541.085	1	-7
541.255	1	-10
541.425	1	0
541.595	1	-4
541.765	1	2
541.935	1	5
542.105	1	4
542.275	1	-3
542.445	1	3
542.615	1	3
542.785	1	2
542.955	1	1
543.125	1	-3
543.295	1	8
543.465	1	14
543.635	1	-3
543.805	1	5
543.975	1	8
544.145	1	-1
544.315	1	-5
544.485	1	-1
544.655	1	3
544.825	1	6
544.995	1	3
545.165	1	8
545.335	1	6
545.505	1	-2
545.675	1	-2
545.845	1	-6
546.015	1	-5
546.185	1	1
546.355	1	13
546.525	1	6
546.695	1	-2
546.865	1	-5
547.035	1	11
547.205	1	6
547.375	1	1
547.545	1	2
547.715	1	-4
547.885	1	-2
548.055	1	6
548.225	1	-4
548.395	1	8
548.565	1	0
548.735	1	4
548.905	1	-3
549.075	1	-3
549.245	1	6
549.415	1	-10
549.585	1	-7
549.755	1	-2
549.925	1	7
550.095	1	1
550.265	1	-4
550.435	1	7
550.605	1	8
550.775	1	-1
550.945	1	16
551.115	1	-6
551.285	1	7
551.455	1	4
551.625	1	-10
551.795	1	-3
551.965	1	-4
552.135	1	-3
552.305	1	1
552.475	1	-11
552.645	1	7
552.815	1	-5
552.985	1	7
553.155	1	-2
553.325	1	-1
553.495	1	-9
553.665	1	-5
553.835	1	5
554.004	1	2
554.174	1	-5
554.344	1	-6
554.514	1	9
554.684	1	2
554.854	1	5
555.024	1	5
555.194	1	8
555.364	1	-4
555.534	1	1
555.704	1	4
555.874	1	-4
556.044	1	4
556.214	1	-2
556.384	1	5
556.554	1	-3
556.724	1	-5
556.894	1	11
557.064	1	1
557.234	1	-3
557.404	1	-10
557.573	1	3
557.743	1	6
557.913	1	-5
558.083	1	-1
558.253	1	5
558.423	1	-12
558.593	1	0
558.763	1	5
558.933	1	7
559.103	1	-3
559.273	1	-2
559.443	1	4
559.613	1	1
559.783	1	3
559.953	1	-7
560.122	1	-3
560.292	1	6
560.462	1	1
560.632	1	2
560.802	1	7
560.972	1	20
561.142	1	2
561.312	1	0
561.482	1	3
561.652	1	9
561.822	1	0
561.992	1	8
562.162	1	7
562.331	1	4
562.501	1	-6
562.671	1	4
562.841	1	-10
563.011	1	6
563.181	1	7
563.351	1	-3
563.521	1	4
563.691	1	0
563.861	1	12
564.031	1	2
564.201	1	1
564.370	1	8
564.540	1	9
564.710	1	-12
564.880	1	-1
565.050	1	6
565.220	1	-4
565.390	1	-10
565.560	1	9
565.730	1	-1
565.900	1	0
566.069	1	7
566.239	1	-5
566.409	1	1
566.579	1	6
566.749	1	8
566.919	1	1
567.089	1	6
567.259	1	6
567.429	1	4
567.599	1	-3
567.768	1	4
567.938	1	4
568.108	1	-10
568.278	1	-12
568.448	1	-2
568.618	1	11
568.788	1	1
568.958	1	-2
569.128	1	1
569.297	1	5
569.467	1	3
569.637	1	0
569.807	1	3
569.977	1	-6
570.147	1	4
570.317	1	19
570.487	1	4
570.656	1	2
570.826	1	5
570.996	1	-3
571.166	1	-14
571.336	1	-2
571.506	1	-12
571.676	1	2
571.846	1	7
572.015	1	3
572.185	1	-1
572.355	1	15
572.525	1	4
572.695	1	3
572.865	1	2
573.035	1	-4
573.205	1	14
573.374	1	1
573.544	1	-3
573.714	1	11
573.884	1	-3
574.054	1	-1
574.224	1	-8
574.394	1	-11
574.563	1	6
574.733	1	-3
574.903	1	0
575.073	1	5
575.243	1	-5
575.413	1	6
575.583	1	9
575.752	1	-10
575.922	1	1
576.092	1	10
576.262	1	-2
576.432	1	-7
576.602	1	1
576.772	1	2
576.941	1	4
577.111	1	4
577.281	1	0
577.451	1	0
577.621	1	-3
577.791	1	6
577.960	1	-3
578.130	1	-9
578.300	1	0
578.470	1	-4
578.640	1	-13
578.810	1	3
578.979	1	10
579.149	1	2
579.319	1	3
579.489	1	7
579.659	1	3
579.829	1	-7
579.998	1	-1
580.168	1	1
580.338	1	-2
580.508	1	1
580.678	1	-4
580.848	1	0
581.017	1	9
581.187	1	10
581.357	1	0
581.527	1	1
581.697	1	-5
581.867	1	-5
582.036	1	7
582.206	1	-5
582.376	1	6
582.546	1	3
582.716	1	13
582.885	1	1
583.055	1	0
583.225	1	-1
583.395	1	0
583.565	1	14
583.735	1	-6
583.904	1	0
584.074	1	-1
584.244	1	0
584.414	1	4
584.584	1	9
584.753	1	4
584.923	1	5
585.093	1	1
585.263	1	4
585.433	1	-1
585.602	1	13
585.772	1	-7
585.942	1	-1
586.112	1	3
586.282	1	-3
586.451	1	1
586.621	1	1
586.791	1	5
586.961	1	1
587.131	1	-5
587.300	1	-16
587.470	1	9
587.640	1	-6
587.810	1	1
587.980	1	2
588.149	1	5
588.319	1	10
588.489	1	-3
588.659	1	-10
588.829	1	1
588.998	1	-3
589.168	1	4
589.338	1	9
589.508	1	-2
589.677	1	7
589.847	1	-1
590.017	1	-10
590.187	1	-3
590.357	1	7
590.526	1	6
590.696	1	5
590.866	1	-3
591.036	1	10
591.205	1	3
591.375	1	-17
591.545	1	-5
591.715	1	-9
591.885	1	6
592.054	1	1
592.224	1	14
592.394	1	17
592.564	1	-6
592.733	1	-6
592.903	1	5
593.073	1	2
593.243	1	-3
593.412	1	-1
593.582	1	13
593.752	1	-3
593.922	1	-3
594.091	1	7
594.261	1	11
594.431	1	4
594.601	1	-14
594.771	1	3
594.940	1	9
595.110	1	-4
595.280	1	1
595.450	1	-2
595.619	1	8
595.789	1	2
595.959	1	-6
596.129	1	-6
596.298	1	10
596.468	1	1
596.638	1	-1
596.808	1	6
596.977	1	1
597.147	1	5
597.317	1	7
597.487	1	-3
597.656	1	-1
597.826	1	-1
597.996	1	4
598.166	1	6
598.335	1	11
598.505	1	0
598.675	1	6
598.844	1	4
599.014	1	-2
599.184	1	-5
599.354	1	2
599.523	1	-7
599.693	1	6
599.863	1	-1
600.033	1	-6
600.202	1	-3
600.372	1	-10
600.542	1	2
600.712	1	9
600.881	1	1
601.051	1	7
601.221	1	-1
601.390	1	-2
601.560	1	3
601.730	1	4
601.900	1	2
602.069	1	-4
602.239	1	-10
602.409	1	-1
602.578	1	1
602.748	1	0
602.918	1	1
603.088	1	8
603.257	1	8
603.427	1	-1
603.597	1	12
603.767	1	-1
603.936	1	8
604.106	1	8
604.276	1	-6
604.445	1	0
604.615	1	0
604.785	1	-1
604.954	1	-1
605.124	1	-2
605.294	1	-3
605.464	1	-4
605.633	1	2
605.803	1	-5
605.973	1	-2
606.142	1	4
606.312	1	-6
606.482	1	1
606.652	1	-8
606.821	1	8
606.991	1	-1
607.161	1	10
607.330	1	9
607.500	1	8
607.670	1	-4
607.839	1	6
608.009	1	-4
608.179	1	1
608.348	1	2
608.518	1	-2
608.688	1	7
608.858	1	8
609.027	1	12
609.197	1	-4
609.367	1	1
609.536	1	-3
609.706	1	0
609.876	1	0
610.045	1	-2
610.215	1	-6
610.385	1	4
610.554	1	-12
610.724	1	-2
610.894	1	-1
611.063	1	7
611.233	1	-5
611.403	1	5
611.572	1	3
611.742	1	9
611.912	1	-4
612.081	1	-7
612.251	1	0
612.421	1	7
612.590	1	-7
612.760	1	0
612.930	1	1
613.099	1	-10
613.269	1	3
613.439	1	2
613.608	1	18
613.778	1	-3
613.948	1	-2
614.117	1	10
614.287	1	2
614.457	1	-3
614.626	1	10
614.796	1	11
614.966	1	4
615.135	1	-5
615.305	1	5
615.475	1	0
615.644	1	-5
615.814	1	5
615.984	1	5
616.153	1	5
616.323	1	-6
616.493	1	-6
616.662	1	-1
616.832	1	-6
617.002	1	0
617.171	1	-5
617.341	1	-6
617.511	1	-6
617.680	1	1
617.850	1	4
618.019	1	-4
618.189	1	-7
618.359	1	1
618.528	1	-10
618.698	1	-3
618.868	1	2
619.037	1	11
619.207	1	-10
619.377	1	-1
619.546	1	1
619.716	1	-3
619.885	1	-2
620.055	1	0
620.225	1	8
620.394	1	-1
620.564	1	1
620.734	1	1
620.903	1	19
621.073	1	-9
621.242	1	-5
621.412	1	3
621.582	1	8
621.751	1	-2
621.921	1	6
622.091	1	-12
622.260	1	-3
622.430	1	3
622.599	1	9
622.769	1	0
622.939	1	1
623.108	1	5
623.278	1	1
623.448	1	-1
623.617	1	11
623.787	1	2
623.956	1	4
624.126	1	-2
624.296	1	-6
624.465	1	5
624.635	1	4
624.804	1	-6
624.974	1	-5
625.144	1	5
625.313	1	1
625.483	1	5
625.652	1	12
625.822	1	4
625.992	1	-14
626.161	1	8
626.331	1	13
626.501	1	2
626.670	1	10
626.840	1	3
627.009	1	-3
627.179	1	-10
627.348	1	3
627.518	1	-2
627.688	1	0
627.857	1	9
628.027	1	3
628.196	1	10
628.366	1	11
628.536	1	1
628.705	1	-2
628.875	1	3
629.044	1	4
629.214	1	0
629.384	1	-4
629.553	1	6
629.723	1	8
629.892	1	-2
630.062	1	0
630.232	1	2
630.401	1	4
630.571	1	3
630.740	1	8
630.910	1	-2
631.079	1	9
631.249	1	-4
631.419	1	8
631.588	1	-4
631.758	1	6
631.927	1	-5
632.097	1	8
632.266	1	-2
632.436	1	-7
632.606	1	11
632.775	1	8
632.945	1	-5
633.114	1	3
633.284	1	-10
633.453	1	-3
633.623	1	0
633.793	1	4
633.962	1	2
634.132	1	7
634.301	1	-6
634.471	1	-4
634.640	1	9
634.810	1	11
634.979	1	6
635.149	1	-3
635.319	1	7
635.488	1	7
635.658	1	-3
635.827	1	13
635.997	1	-1
636.166	1	1
636.336	1	14
636.505	1	-2
636.675	1	4
636.845	1	5
637.014	1	-2
637.184	1	0
637.353	1	10
637.523	1	-7
637.692	1	5
637.862	1	-4
638.031	1	20
638.201	1	3
638.370	1	0
638.540	1	-2
638.710	1	2
638.879	1	0
639.049	1	1
639.218	1	-1
639.388	1	8
639.557	1	3
639.727	1	5
639.896	1	2
640.066	1	7
640.235	1	2
640.405	1	5
640.574	1	-1
640.744	1	-1
640.914	1	1
641.083	1	-2
641.253	1	3
641.422	1	-5
641.592	1	-10
641.761	1	2
641.931	1	8
642.100	1	0
642.270	1	2
642.439	1	4
642.609	1	4
642.778	1	-1
642.948	1	-2
643.117	1	6
643.287	1	4
643.456	1	23
643.626	1	4
643.795	1	6
643.965	1	-1
644.134	1	2
644.304	1	-3
644.473	1	12
644.643	1	4
644.812	1	-4
644.982	1	16
645.151	1	-5
645.321	1	12
645.490	1	4
645.660	1	4
645.829	1	-11
645.999	1	-8
646.168	1	4
646.338	1	6
646.507	1	-4
646.677	1	2
646.846	1	15
647.016	1	3
647.185	1	1
647.355	1	-4
647.524	1	-6
647.694	1	-12
647.863	1	-6
648.033	1	-10
648.202	1	5
648.372	1	7
648.541	1	2
648.711	1	4
648.880	1	-3
649.050	1	5
649.219	1	4
649.389	1	10
649.558	1	-10
649.728	1	1
649.897	1	-4
650.067	1	-8
650.236	1	8
650.406	1	10
650.575	1	1
650.745	1	1
650.914	1	0
651.084	1	0
651.253	1	1
651.423	1	0
651.592	1	-5
651.762	1	8
651.931	1	-2
652.101	1	6
652.270	1	1
652.440	1	7
652.609	1	7
652.778	1	-6
652.948	1	4
653.117	1	-3
653.287	1	7
653.456	1	-4
653.626	1	8
653.795	1	12
653.965	1	12
654.134	1	6
654.304	1	3
654.473	1	10
654.643	1	14
654.812	1	-1
654.982	1	-9
655.151	1	0
655.320	1	3
655.490	1	7
655.659	1	9
655.829	1	-8
655.998	1	3
656.168	1	-1
656.337	1	-9
656.507	1	18
656.676	1	-9
656.846	1	-6
657.015	1	7
657.184	1	5
657.354	1	0
657.523	1	-9
657.693	1	4
657.862	1	-1
658.032	1	8
658.201	1	-1
658.371	1	-13
658.540	1	3
658.709	1	-2
658.879	1	-6
659.048	1	4
659.218	1	5
659.387	1	-3
659.557	1	1
659.726	1	-8
659.895	1	0
660.065	1	2
660.234	1	5
660.404	1	3
660.573	1	-8
660.743	1	0
660.912	1	4
661.081	1	1
661.251	1	6
661.420	1	-5
661.590	1	6
661.759	1	2
661.929	1	5
662.098	1	-10
662.267	1	10
662.437	1	0
662.606	1	17
662.776	1	0
662.945	1	4
663.115	1	-1
663.284	1	2
663.453	1	6
663.623	1	4
663.792	1	1
663.962	1	2
664.131	1	-3
664.300	1	-1
664.470	1	-2
664.639	1	3
664.809	1	4
664.978	1	3
665.148	1	-1
665.317	1	-4
665.486	1	-2
665.656	1	0
665.825	1	11
665.995	1	5
666.164	1	2
666.333	1	1
666.503	1	-1
666.672	1	-14
666.842	1	-3
667.011	1	7
667.180	1	8
667.350	1	7
667.519	1	7
667.689	1	-11
667.858	1	9
668.027	1	-7
668.197	1	1
668.366	1	-8
668.536	1	2
668.705	1	5
668.874	1	-3
669.044	1	-10
669.213	1	0
669.382	1	-5
669.552	1	7
669.721	1	-2
669.891	1	7
670.060	1	3
670.229	1	2
670.399	1	11
670.568	1	5
670.738	1	0
670.907	1	-7
671.076	1	7
671.246	1	10
671.415	1	0
671.584	1	-4
671.754	1	-19
671.923	1	0
672.093	1	8
672.262	1	9
672.431	1	0
672.601	1	-4
672.770	1	6
672.939	1	-8
673.109	1	11
673.278	1	1
673.448	1	-2
673.617	1	2
673.786	1	5
