325.333	1	0
325.504	1	2
325.675	1	1
325.846	1	7
326.017	1	0
326.188	1	7
326.359	1	7
326.531	1	-5
326.702	1	6
326.873	1	8
327.044	1	-4
327.215	1	-3
327.386	1	3
327.557	1	6
327.728	1	6
327.899	1	-10
328.070	1	2
328.241	1	0
328.412	1	10
328.583	1	1
328.754	1	-4
328.926	1	6
329.097	1	1
329.268	1	-5
329.439	1	-2
329.610	1	4
329.781	1	3
329.952	1	10
330.123	1	6
330.294	1	16
330.465	1	-1
330.636	1	10
330.807	1	3
330.978	1	-2
331.149	1	6
331.320	1	8
331.492	1	4
331.663	1	-7
331.834	1	6
332.005	1	4
332.176	1	-3
332.347	1	5
332.518	1	4
332.689	1	3
332.860	1	3
333.031	1	6
333.202	1	-10
333.373	1	-3
333.544	1	2
333.715	1	-2
333.886	1	3
334.057	1	-8
334.228	1	3
334.399	1	9
334.570	1	-5
334.741	1	-1
334.912	1	-5
335.084	1	10
335.255	1	6
335.426	1	-7
335.597	1	-1
335.768	1	2
335.939	1	0
336.110	1	-3
336.281	1	1
336.452	1	8
336.623	1	7
336.794	1	-3
336.965	1	4
337.136	1	3
337.307	1	13
337.478	1	4
337.649	1	2
337.820	1	16
337.991	1	16
338.162	1	9
338.333	1	2
338.504	1	3
338.675	1	4
338.846	1	10
339.017	1	-5
339.188	1	-2
339.359	1	-1
339.530	1	7
339.701	1	5
339.872	1	5
340.043	1	1
340.214	1	5
340.385	1	2
340.556	1	2
340.727	1	-1
340.898	1	3
341.069	1	7
341.240	1	4
341.411	1	12
341.582	1	2
341.753	1	8
341.924	1	-3
342.095	1	3
342.266	1	2
342.437	1	0
342.608	1	3
342.779	1	-5
342.950	1	4
343.121	1	11
343.292	1	7
343.463	1	-1
343.634	1	-6
343.805	1	9
343.976	1	7
344.147	1	8
344.318	1	7
344.489	1	0
344.660	1	11
344.831	1	-4
345.002	1	3
345.173	1	5
345.344	1	-2
345.515	1	4
345.686	1	5
345.857	1	-8
346.028	1	-5
346.199	1	-8
346.370	1	7
346.541	1	0
346.712	1	7
346.883	1	5
347.054	1	11
347.225	1	-5
347.396	1	5
347.567	1	7
347.738	1	12
347.909	1	11
348.080	1	-2
348.251	1	12
348.422	1	2
348.593	1	-10
348.764	1	2
348.935	1	11
349.106	1	7
349.277	1	6
349.448	1	3
349.619	1	-1
349.790	1	7
349.961	1	8
350.132	1	2
350.303	1	6
350.474	1	1
350.645	1	6
350.816	1	4
350.987	1	2
351.157	1	16
351.328	1	2
351.499	1	8
351.670	1	18
351.841	1	1
352.012	1	-1
352.183	1	3
352.354	1	7
352.525	1	7
352.696	1	0
352.867	1	6
353.038	1	15
353.209	1	5
353.380	1	10
353.551	1	12
353.722	1	8
353.893	1	11
354.064	1	16
354.235	1	16
354.406	1	8
354.576	1	12
354.747	1	5
354.918	1	-2
355.089	1	10
355.260	1	5
355.431	1	18
355.602	1	14
355.773	1	10
355.944	1	18
356.115	1	4
356.286	1	18
356.457	1	7
356.628	1	9
356.799	1	14
356.970	1	10
357.141	1	1
357.311	1	3
357.482	1	4
357.653	1	11
357.824	1	14
357.995	1	18
358.166	1	9
358.337	1	20
358.508	1	22
358.679	1	25
358.850	1	15
359.021	1	13
359.192	1	20
359.363	1	15
359.533	1	17
359.704	1	12
359.875	1	18
360.046	1	12
360.217	1	33
360.388	1	34
360.559	1	32
360.730	1	18
360.901	1	36
361.072	1	36
361.243	1	27
361.414	1	42
361.584	1	31
361.755	1	48
361.926	1	38
362.097	1	27
362.268	1	42
362.439	1	42
362.610	1	30
362.781	1	35
362.952	1	50
363.123	1	50
363.293	1	33
363.464	1	62
363.635	1	49
363.806	1	59
363.977	1	54
364.148	1	56
364.319	1	60
364.490	1	47
364.661	1	59
364.832	1	63
365.002	1	66
365.173	1	72
365.344	1	61
365.515	1	69
365.686	1	70
365.857	1	69
366.028	1	70
366.199	1	64
366.370	1	74
366.540	1	74
366.711	1	82
366.882	1	78
367.053	1	82
367.224	1	81
367.395	1	78
367.566	1	84
367.737	1	48
367.908	1	59
368.078	1	72
368.249	1	71
368.420	1	60
368.591	1	73
368.762	1	56
368.933	1	61
369.104	1	57
369.274	1	64
369.445	1	55
369.616	1	64
369.787	1	63
369.958	1	52
370.129	1	56
370.300	1	33
370.471	1	64
370.641	1	47
370.812	1	51
370.983	1	42
371.154	1	36
371.325	1	49
371.496	1	37
371.667	1	43
371.837	1	28
372.008	1	43
372.179	1	48
372.350	1	34
372.521	1	32
372.692	1	35
372.863	1	44
373.033	1	39
373.204	1	39
373.375	1	32
373.546	1	38
373.717	1	35
373.888	1	40
374.059	1	32
374.229	1	29
374.400	1	37
374.571	1	39
374.742	1	39
374.913	1	36
375.084	1	29
375.254	1	32
375.425	1	24
375.596	1	16
375.767	1	30
375.938	1	29
376.109	1	18
376.279	1	25
376.450	1	16
376.621	1	38
376.792	1	28
376.963	1	29
377.134	1	12
377.304	1	31
377.475	1	24
377.646	1	32
377.817	1	18
377.988	1	25
378.159	1	28
378.329	1	20
378.500	1	12
378.671	1	19
378.842	1	21
379.013	1	25
379.184	1	29
379.354	1	20
379.525	1	27
379.696	1	15
379.867	1	29
380.038	1	33
380.209	1	34
380.379	1	24
380.550	1	38
380.721	1	46
380.892	1	42
381.063	1	41
381.233	1	47
381.404	1	39
381.575	1	38
381.746	1	44
381.917	1	41
382.087	1	41
382.258	1	57
382.429	1	49
382.600	1	59
382.771	1	58
382.941	1	62
383.112	1	57
383.283	1	67
383.454	1	66
383.625	1	74
383.795	1	72
383.966	1	78
384.137	1	82
384.308	1	86
384.479	1	95
384.649	1	99
384.820	1	100
384.991	1	106
385.162	1	102
385.333	1	104
385.503	1	100
385.674	1	99
385.845	1	116
386.016	1	106
386.187	1	113
386.357	1	103
386.528	1	111
386.699	1	121
386.870	1	121
387.041	1	107
387.211	1	103
387.382	1	101
387.553	1	113
387.724	1	107
387.894	1	114
388.065	1	100
388.236	1	112
388.407	1	126
388.578	1	106
388.748	1	112
388.919	1	95
389.090	1	110
389.261	1	76
389.431	1	100
389.602	1	112
389.773	1	97
389.944	1	96
390.114	1	96
390.285	1	99
390.456	1	103
390.627	1	89
390.798	1	98
390.968	1	80
391.139	1	81
391.310	1	91
391.481	1	99
391.651	1	101
391.822	1	87
391.993	1	99
392.164	1	84
392.334	1	91
392.505	1	90
392.676	1	87
392.847	1	90
393.017	1	77
393.188	1	80
393.359	1	89
393.530	1	87
393.700	1	96
393.871	1	78
394.042	1	95
394.213	1	87
394.383	1	96
394.554	1	89
394.725	1	78
394.896	1	87
395.066	1	93
395.237	1	94
395.408	1	96
395.579	1	94
395.749	1	97
395.920	1	101
396.091	1	94
396.262	1	104
396.432	1	79
396.603	1	96
396.774	1	84
396.945	1	95
397.115	1	97
397.286	1	106
397.457	1	93
397.627	1	96
397.798	1	88
397.969	1	91
398.140	1	99
398.310	1	110
398.481	1	83
398.652	1	104
398.823	1	112
398.993	1	86
399.164	1	105
399.335	1	87
399.505	1	100
399.676	1	90
399.847	1	80
400.018	1	94
400.188	1	91
400.359	1	92
400.530	1	76
400.700	1	81
400.871	1	69
401.042	1	69
401.213	1	68
401.383	1	74
401.554	1	66
401.725	1	78
401.895	1	71
402.066	1	69
402.237	1	71
402.408	1	72
402.578	1	63
402.749	1	75
402.920	1	62
403.090	1	69
403.261	1	66
403.432	1	73
403.603	1	68
403.773	1	66
403.944	1	68
404.115	1	59
404.285	1	72
404.456	1	68
404.627	1	76
404.797	1	77
404.968	1	59
405.139	1	63
405.310	1	62
405.480	1	69
405.651	1	59
405.822	1	69
405.992	1	64
406.163	1	76
406.334	1	73
406.504	1	63
406.675	1	75
406.846	1	55
407.016	1	59
407.187	1	64
407.358	1	59
407.528	1	69
407.699	1	70
407.870	1	63
408.041	1	62
408.211	1	59
408.382	1	65
408.553	1	75
408.723	1	59
408.894	1	54
409.065	1	72
409.235	1	58
409.406	1	67
409.577	1	57
409.747	1	58
409.918	1	51
410.089	1	53
410.259	1	53
410.430	1	54
410.601	1	47
410.771	1	54
410.942	1	55
411.113	1	48
411.283	1	57
411.454	1	55
411.625	1	51
411.795	1	57
411.966	1	38
412.137	1	53
412.307	1	47
412.478	1	57
412.649	1	45
412.819	1	48
412.990	1	55
413.161	1	51
413.331	1	38
413.502	1	58
413.672	1	49
413.843	1	49
414.014	1	46
414.184	1	40
414.355	1	31
414.526	1	41
414.696	1	43
414.867	1	47
415.038	1	40
415.208	1	41
415.379	1	44
415.550	1	40
415.720	1	48
415.891	1	53
416.062	1	39
416.232	1	49
416.403	1	38
416.573	1	39
416.744	1	38
416.915	1	45
417.085	1	27
417.256	1	38
417.427	1	37
417.597	1	22
417.768	1	30
417.939	1	43
418.109	1	41
418.280	1	30
418.450	1	46
418.621	1	28
418.792	1	42
418.962	1	30
419.133	1	31
419.304	1	45
419.474	1	36
419.645	1	44
419.815	1	21
419.986	1	37
420.157	1	43
420.327	1	29
420.498	1	38
420.669	1	42
420.839	1	26
421.010	1	41
421.180	1	40
421.351	1	29
421.522	1	35
421.692	1	36
421.863	1	11
422.033	1	22
422.204	1	14
422.375	1	21
422.545	1	25
422.716	1	23
422.886	1	27
423.057	1	22
423.228	1	17
423.398	1	26
423.569	1	29
423.740	1	11
423.910	1	4
424.081	1	35
424.251	1	22
424.422	1	28
424.593	1	29
424.763	1	16
424.934	1	17
425.104	1	21
425.275	1	11
425.445	1	16
425.616	1	29
425.787	1	21
425.957	1	34
426.128	1	9
426.298	1	26
426.469	1	22
426.640	1	14
426.810	1	20
426.981	1	12
427.151	1	19
427.322	1	21
427.493	1	21
427.663	1	24
427.834	1	11
428.004	1	19
428.175	1	20
428.345	1	33
428.516	1	26
428.687	1	19
428.857	1	7
429.028	1	20
429.198	1	7
429.369	1	17
429.540	1	19
429.710	1	18
429.881	1	28
430.051	1	21
430.222	1	25
430.392	1	15
430.563	1	26
430.734	1	10
430.904	1	17
431.075	1	19
431.245	1	19
431.416	1	22
431.586	1	14
431.757	1	16
431.927	1	11
432.098	1	5
432.269	1	12
432.439	1	2
432.610	1	11
432.780	1	16
432.951	1	12
433.121	1	10
433.292	1	12
433.462	1	15
433.633	1	16
433.804	1	3
433.974	1	5
434.145	1	17
434.315	1	22
434.486	1	13
434.656	1	6
434.827	1	14
434.997	1	13
435.168	1	14
435.339	1	21
435.509	1	21
435.680	1	6
435.850	1	11
436.021	1	23
436.191	1	5
436.362	1	11
436.532	1	13
436.703	1	10
436.873	1	-4
437.044	1	14
437.214	1	11
437.385	1	9
437.556	1	4
437.726	1	11
437.897	1	14
438.067	1	11
438.238	1	4
438.408	1	19
438.579	1	19
438.749	1	8
438.920	1	13
439.090	1	29
439.261	1	12
439.431	1	12
439.602	1	9
439.772	1	20
439.943	1	5
440.113	1	17
440.284	1	20
440.455	1	0
440.625	1	11
440.796	1	10
440.966	1	15
441.137	1	5
441.307	1	5
441.478	1	20
441.648	1	0
441.819	1	15
441.989	1	8
442.160	1	8
442.330	1	6
442.501	1	-2
442.671	1	10
442.842	1	13
443.012	1	12
443.183	1	4
443.353	1	16
443.524	1	6
443.694	1	17
443.865	1	14
444.035	1	8
444.206	1	5
444.376	1	17
444.547	1	1
444.717	1	19
444.888	1	4
445.058	1	16
445.229	1	14
445.399	1	13
445.570	1	16
445.740	1	14
445.911	1	22
446.081	1	16
446.252	1	-6
446.422	1	2
446.593	1	7
446.763	1	17
446.934	1	14
447.104	1	3
447.275	1	6
447.445	1	3
447.616	1	12
447.786	1	13
447.957	1	11
448.127	1	1
448.298	1	5
448.468	1	14
448.639	1	12
448.809	1	5
448.979	1	21
449.150	1	10
449.320	1	5
449.491	1	7
449.661	1	3
449.832	1	-10
450.002	1	1
450.173	1	8
450.343	1	13
450.514	1	6
450.684	1	5
450.855	1	16
451.025	1	7
451.196	1	3
451.366	1	16
451.537	1	5
451.707	1	12
451.878	1	2
452.048	1	7
452.218	1	4
452.389	1	8
452.559	1	11
452.730	1	3
452.900	1	8
453.071	1	13
453.241	1	2
453.412	1	2
453.582	1	8
453.753	1	-3
453.923	1	7
454.093	1	15
454.264	1	1
454.434	1	14
454.605	1	10
454.775	1	5
454.946	1	15
455.116	1	4
455.287	1	17
455.457	1	1
455.628	1	7
455.798	1	-5
455.968	1	14
456.139	1	7
456.309	1	7
456.480	1	2
456.650	1	8
456.821	1	3
456.991	1	13
457.161	1	12
457.332	1	11
457.502	1	3
457.673	1	10
457.843	1	11
458.014	1	0
458.184	1	2
458.355	1	16
458.525	1	7
458.695	1	6
458.866	1	8
459.036	1	23
459.207	1	6
459.377	1	5
459.548	1	5
459.718	1	-2
459.888	1	10
460.059	1	2
460.229	1	19
460.400	1	1
460.570	1	-1
460.740	1	-4
460.911	1	15
461.081	1	4
461.252	1	-3
461.422	1	7
461.593	1	4
461.763	1	10
461.933	1	-3
462.104	1	10
462.274	1	1
462.445	1	3
462.615	1	-7
462.785	1	1
462.956	1	-3
463.126	1	-3
463.297	1	-2
463.467	1	14
463.638	1	10
463.808	1	11
463.978	1	13
464.149	1	-2
464.319	1	-4
464.490	1	6
464.660	1	3
464.830	1	14
465.001	1	-1
465.171	1	5
465.342	1	10
465.512	1	3
465.682	1	6
465.853	1	-1
466.023	1	7
466.194	1	8
466.364	1	9
466.534	1	9
466.705	1	12
466.875	1	13
467.045	1	5
467.216	1	-2
467.386	1	2
467.557	1	10
467.727	1	1
467.897	1	6
468.068	1	15
468.238	1	-7
468.409	1	15
468.579	1	11
468.749	1	12
468.920	1	-3
469.090	1	4
469.260	1	9
469.431	1	13
469.601	1	7
469.772	1	-6
469.942	1	5
470.112	1	3
470.283	1	22
470.453	1	2
470.623	1	5
470.794	1	16
470.964	1	1
471.135	1	-6
471.305	1	-1
471.475	1	6
471.646	1	7
471.816	1	6
471.986	1	4
472.157	1	17
472.327	1	-1
472.497	1	0
472.668	1	9
472.838	1	12
473.009	1	10
473.179	1	4
473.349	1	-1
473.520	1	7
473.690	1	16
473.860	1	0
474.031	1	5
474.201	1	1
474.371	1	10
474.542	1	6
474.712	1	7
474.882	1	-1
475.053	1	-8
475.223	1	3
475.394	1	5
475.564	1	14
475.734	1	15
475.905	1	3
476.075	1	11
476.245	1	-2
476.416	1	3
476.586	1	-2
476.756	1	5
476.927	1	10
477.097	1	7
477.267	1	0
477.438	1	2
477.608	1	12
477.778	1	19
477.949	1	10
478.119	1	4
478.289	1	1
478.460	1	4
478.630	1	10
478.800	1	1
478.971	1	8
479.141	1	13
479.311	1	5
479.482	1	3
479.652	1	4
479.822	1	3
479.993	1	8
480.163	1	-1
480.333	1	0
480.504	1	11
480.674	1	9
480.844	1	6
481.015	1	7
481.185	1	16
481.355	1	19
481.525	1	-4
481.696	1	2
481.866	1	5
482.036	1	1
482.207	1	11
482.377	1	2
482.547	1	-1
482.718	1	21
482.888	1	0
483.058	1	-1
483.229	1	20
483.399	1	12
483.569	1	4
483.740	1	-8
483.910	1	12
484.080	1	2
484.250	1	1
484.421	1	1
484.591	1	20
484.761	1	2
484.932	1	10
485.102	1	7
485.272	1	3
485.443	1	16
485.613	1	0
485.783	1	14
485.953	1	9
486.124	1	15
486.294	1	19
486.464	1	2
486.635	1	9
486.805	1	11
486.975	1	-5
487.146	1	12
487.316	1	12
487.486	1	6
487.656	1	0
487.827	1	8
487.997	1	10
488.167	1	10
488.338	1	21
488.508	1	10
488.678	1	12
488.848	1	6
489.019	1	3
489.189	1	2
489.359	1	15
489.529	1	12
489.700	1	17
489.870	1	11
490.040	1	17
490.211	1	15
490.381	1	7
490.551	1	12
490.721	1	25
490.892	1	11
491.062	1	19
491.232	1	14
491.402	1	-1
491.573	1	14
491.743	1	-3
491.913	1	11
492.084	1	20
492.254	1	19
492.424	1	18
492.594	1	19
492.765	1	22
492.935	1	8
493.105	1	26
493.275	1	22
493.446	1	16
493.616	1	22
493.786	1	9
493.956	1	23
494.127	1	8
494.297	1	9
494.467	1	15
494.637	1	15
494.808	1	22
494.978	1	23
495.148	1	26
495.318	1	21
495.489	1	15
495.659	1	21
495.829	1	10
495.999	1	20
496.170	1	9
496.340	1	17
496.510	1	18
496.680	1	22
496.851	1	24
497.021	1	16
497.191	1	16
497.361	1	13
497.532	1	21
497.702	1	15
497.872	1	19
498.042	1	19
498.213	1	25
498.383	1	24
498.553	1	27
498.723	1	15
498.894	1	13
499.064	1	29
499.234	1	20
499.404	1	20
499.574	1	17
499.745	1	23
499.915	1	14
500.085	1	14
500.255	1	27
500.426	1	13
500.596	1	16
500.766	1	20
500.936	1	30
501.106	1	17
501.277	1	17
501.447	1	26
501.617	1	20
501.787	1	25
501.958	1	15
502.128	1	23
502.298	1	44
502.468	1	39
502.638	1	24
502.809	1	35
502.979	1	24
503.149	1	30
503.319	1	39
503.489	1	35
503.660	1	26
503.830	1	33
504.000	1	27
504.170	1	31
504.340	1	40
504.511	1	36
504.681	1	34
504.851	1	29
505.021	1	40
505.192	1	35
505.362	1	38
505.532	1	40
505.702	1	47
505.872	1	25
506.043	1	30
506.213	1	39
506.383	1	37
506.553	1	50
506.723	1	42
506.893	1	38
507.064	1	37
507.234	1	39
507.404	1	42
507.574	1	39
507.744	1	35
507.915	1	47
508.085	1	46
508.255	1	51
508.425	1	50
508.595	1	38
508.766	1	35
508.936	1	39
509.106	1	37
509.276	1	48
509.446	1	33
509.616	1	38
509.787	1	45
509.957	1	44
510.127	1	52
510.297	1	27
510.467	1	39
510.638	1	31
510.808	1	38
510.978	1	32
511.148	1	65
511.318	1	51
511.488	1	50
511.659	1	40
511.829	1	44
511.999	1	63
512.169	1	38
512.339	1	52
512.509	1	40
512.680	1	43
512.850	1	43
513.020	1	43
513.190	1	42
513.360	1	46
513.530	1	46
513.700	1	50
513.871	1	49
514.041	1	39
514.211	1	43
514.381	1	51
514.551	1	56
514.721	1	51
514.892	1	54
515.062	1	46
515.232	1	52
515.402	1	50
515.572	1	38
515.742	1	74
515.912	1	54
516.083	1	56
516.253	1	54
516.423	1	61
516.593	1	48
516.763	1	58
516.933	1	54
517.104	1	51
517.274	1	60
517.444	1	62
517.614	1	55
517.784	1	55
517.954	1	47
518.124	1	58
518.294	1	67
518.465	1	56
518.635	1	51
518.805	1	61
518.975	1	66
519.145	1	63
519.315	1	52
519.485	1	47
519.656	1	60
519.826	1	58
519.996	1	65
520.166	1	60
520.336	1	56
520.506	1	56
520.676	1	50
520.846	1	49
521.017	1	50
521.187	1	63
521.357	1	46
521.527	1	59
521.697	1	66
521.867	1	63
522.037	1	57
522.207	1	66
522.377	1	62
522.548	1	46
522.718	1	54
522.888	1	52
523.058	1	67
523.228	1	70
523.398	1	57
523.568	1	58
523.738	1	65
523.909	1	64
524.079	1	64
524.249	1	62
524.419	1	66
524.589	1	65
524.759	1	51
524.929	1	59
525.099	1	64
525.269	1	74
525.439	1	57
525.610	1	57
525.780	1	66
525.950	1	55
526.120	1	60
526.290	1	56
526.460	1	72
526.630	1	66
526.800	1	63
526.970	1	58
527.140	1	52
527.311	1	72
527.481	1	80
527.651	1	68
527.821	1	67
527.991	1	56
528.161	1	64
528.331	1	78
528.501	1	57
528.671	1	70
528.841	1	72
529.011	1	61
529.181	1	62
529.352	1	68
529.522	1	60
529.692	1	72
529.862	1	65
530.032	1	51
530.202	1	70
530.372	1	64
530.542	1	64
530.712	1	83
530.882	1	64
531.052	1	68
531.222	1	51
531.392	1	70
531.563	1	70
531.733	1	80
531.903	1	74
532.073	1	59
532.243	1	67
532.413	1	70
532.583	1	54
532.753	1	60
532.923	1	67
533.093	1	71
533.263	1	64
533.433	1	79
533.603	1	76
533.773	1	71
533.943	1	72
534.113	1	64
534.284	1	72
534.454	1	63
534.624	1	67
534.794	1	62
534.964	1	64
535.134	1	63
535.304	1	73
535.474	1	75
535.644	1	64
535.814	1	82
535.984	1	59
536.154	1	68
536.324	1	67
536.494	1	72
536.664	1	73
536.834	1	68
537.004	1	71
537.174	1	77
537.344	1	68
537.514	1	61
537.685	1	67
537.855	1	67
538.025	1	65
538.195	1	64
538.365	1	78
538.535	1	76
538.705	1	60
538.875	1	63
539.045	1	68
539.215	1	48
539.385	1	68
539.555	1	56
539.725	1	66
539.895	1	64
540.065	1	59
540.235	1	42
540.405	1	69
540.575	1	63
540.745	1	57
540.915	1	60
541.085	1	57
541.255	1	49
541.425	1	54
541.595	1	59
541.765	1	64
541.935	1	65
542.105	1	58
542.275	1	52
542.445	1	65
542.615	1	50
542.785	1	55
542.955	1	67
543.125	1	47
543.295	1	53
543.465	1	74
543.635	1	55
543.805	1	57
543.975	1	54
544.145	1	57
544.315	1	55
544.485	1	52
544.655	1	57
544.825	1	68
544.995	1	61
545.165	1	55
545.335	1	48
545.505	1	58
545.675	1	60
545.845	1	60
546.015	1	46
546.185	1	51
546.355	1	66
546.525	1	67
546.695	1	53
546.865	1	46
547.035	1	59
547.205	1	49
547.375	1	57
547.545	1	52
547.715	1	64
547.885	1	56
548.055	1	65
548.225	1	43
548.395	1	61
548.565	1	61
548.735	1	67
548.905	1	54
549.075	1	54
549.245	1	60
549.415	1	62
549.585	1	48
549.755	1	44
549.925	1	57
550.095	1	58
550.265	1	52
550.435	1	65
550.605	1	53
550.775	1	43
550.945	1	57
551.115	1	47
551.285	1	58
551.455	1	54
551.625	1	51
551.795	1	48
551.965	1	56
552.135	1	54
552.305	1	53
552.475	1	47
552.645	1	51
552.815	1	53
552.985	1	53
553.155	1	51
553.325	1	58
553.495	1	49
553.665	1	50
553.835	1	50
554.004	1	45
554.174	1	52
554.344	1	41
554.514	1	56
554.684	1	56
554.854	1	57
555.024	1	54
555.194	1	55
555.364	1	48
555.534	1	41
555.704	1	51
555.874	1	48
556.044	1	39
556.214	1	52
556.384	1	54
556.554	1	45
556.724	1	37
556.894	1	57
557.064	1	43
557.234	1	41
557.404	1	33
557.573	1	41
557.743	1	45
557.913	1	37
558.083	1	32
558.253	1	36
558.423	1	44
558.593	1	36
558.763	1	40
558.933	1	43
559.103	1	34
559.273	1	39
559.443	1	37
559.613	1	41
559.783	1	34
559.953	1	31
560.122	1	33
560.292	1	38
560.462	1	32
560.632	1	34
560.802	1	40
560.972	1	45
561.142	1	37
561.312	1	42
561.482	1	42
561.652	1	35
561.822	1	40
561.992	1	49
562.162	1	36
562.331	1	29
562.501	1	41
562.671	1	34
562.841	1	38
563.011	1	35
563.181	1	42
563.351	1	26
563.521	1	43
563.691	1	34
563.861	1	50
564.031	1	34
564.201	1	35
564.370	1	43
564.540	1	51
564.710	1	21
564.880	1	43
565.050	1	32
565.220	1	40
565.390	1	34
565.560	1	43
565.730	1	37
565.900	1	33
566.069	1	32
566.239	1	31
566.409	1	39
566.579	1	22
566.749	1	35
566.919	1	35
567.089	1	30
567.259	1	50
567.429	1	44
567.599	1	26
567.768	1	46
567.938	1	35
568.108	1	26
568.278	1	24
568.448	1	27
568.618	1	34
568.788	1	24
568.958	1	29
569.128	1	36
569.297	1	33
569.467	1	25
569.637	1	35
569.807	1	25
569.977	1	21
570.147	1	34
570.317	1	49
570.487	1	33
570.656	1	28
570.826	1	28
570.996	1	33
571.166	1	30
571.336	1	21
571.506	1	26
571.676	1	41
571.846	1	33
572.015	1	9
572.185	1	17
572.355	1	39
572.525	1	33
572.695	1	24
572.865	1	23
573.035	1	34
573.205	1	33
573.374	1	14
573.544	1	25
573.714	1	25
573.884	1	22
574.054	1	16
574.224	1	24
574.394	1	16
574.563	1	28
574.733	1	20
574.903	1	28
575.073	1	17
575.243	1	13
575.413	1	29
575.583	1	32
575.752	1	25
575.922	1	16
576.092	1	29
576.262	1	19
576.432	1	21
576.602	1	15
576.772	1	23
576.941	1	23
577.111	1	31
577.281	1	13
577.451	1	18
577.621	1	12
577.791	1	27
577.960	1	22
578.130	1	22
578.300	1	23
578.470	1	17
578.640	1	11
578.810	1	18
578.979	1	24
579.149	1	18
579.319	1	24
579.489	1	19
579.659	1	20
579.829	1	22
579.998	1	21
580.168	1	26
580.338	1	1
580.508	1	18
580.678	1	23
580.848	1	15
581.017	1	12
581.187	1	14
581.357	1	19
581.527	1	17
581.697	1	10
581.867	1	20
582.036	1	22
582.206	1	17
582.376	1	19
582.546	1	27
582.716	1	16
582.885	1	17
583.055	1	11
583.225	1	21
583.395	1	16
583.565	1	26
583.735	1	5
583.904	1	24
584.074	1	19
584.244	1	15
584.414	1	12
584.584	1	20
584.753	1	21
584.923	1	14
585.093	1	32
585.263	1	21
585.433	1	22
585.602	1	10
585.772	1	13
585.942	1	18
586.112	1	13
586.282	1	18
586.451	1	16
586.621	1	23
586.791	1	18
586.961	1	16
587.131	1	9
587.300	1	17
587.470	1	24
587.640	1	8
587.810	1	3
587.980	1	13
588.149	1	19
588.319	1	8
588.489	1	22
588.659	1	7
588.829	1	14
588.998	1	8
589.168	1	19
589.338	1	13
589.508	1	17
589.677	1	21
589.847	1	16
590.017	1	3
590.187	1	3
590.357	1	16
590.526	1	7
590.696	1	10
590.866	1	7
591.036	1	13
591.205	1	18
591.375	1	2
591.545	1	0
591.715	1	6
591.885	1	18
592.054	1	17
592.224	1	20
592.394	1	23
592.564	1	0
592.733	1	14
592.903	1	9
593.073	1	18
593.243	1	14
593.412	1	8
593.582	1	14
593.752	1	8
593.922	1	-2
594.091	1	17
594.261	1	18
594.431	1	4
594.601	1	3
594.771	1	17
594.940	1	10
595.110	1	12
595.280	1	-1
595.450	1	8
595.619	1	18
595.789	1	13
595.959	1	15
596.129	1	16
596.298	1	17
596.468	1	14
596.638	1	10
596.808	1	25
596.977	1	2
597.147	1	16
597.317	1	13
597.487	1	19
597.656	1	6
597.826	1	20
597.996	1	6
598.166	1	12
598.335	1	15
598.505	1	11
598.675	1	19
598.844	1	8
599.014	1	20
599.184	1	8
599.354	1	3
599.523	1	10
599.693	1	13
599.863	1	17
600.033	1	4
600.202	1	6
600.372	1	-1
600.542	1	8
600.712	1	27
600.881	1	25
601.051	1	15
601.221	1	2
601.390	1	-3
601.560	1	13
601.730	1	9
601.900	1	8
602.069	1	-2
602.239	1	8
602.409	1	4
602.578	1	16
602.748	1	7
602.918	1	6
603.088	1	13
603.257	1	15
603.427	1	5
603.597	1	27
603.767	1	3
603.936	1	17
604.106	1	14
604.276	1	0
604.445	1	16
604.615	1	2
604.785	1	12
604.954	1	12
605.124	1	7
605.294	1	7
605.464	1	10
605.633	1	12
605.803	1	14
605.973	1	9
606.142	1	16
606.312	1	4
606.482	1	7
606.652	1	9
606.821	1	21
606.991	1	1
607.161	1	17
607.330	1	15
607.500	1	13
607.670	1	11
607.839	1	23
608.009	1	6
608.179	1	7
608.348	1	3
608.518	1	6
608.688	1	13
608.858	1	18
609.027	1	17
609.197	1	2
609.367	1	2
609.536	1	14
609.706	1	7
609.876	1	11
610.045	1	9
610.215	1	3
610.385	1	7
610.554	1	6
610.724	1	10
610.894	1	16
611.063	1	13
611.233	1	-4
611.403	1	11
611.572	1	15
611.742	1	4
611.912	1	10
612.081	1	3
612.251	1	10
612.421	1	14
612.590	1	4
612.760	1	13
612.930	1	11
613.099	1	-1
613.269	1	10
613.439	1	11
613.608	1	12
613.778	1	13
613.948	1	18
614.117	1	19
614.287	1	6
614.457	1	7
614.626	1	1
614.796	1	10
614.966	1	7
615.135	1	7
615.305	1	2
615.475	1	11
615.644	1	7
615.814	1	5
615.984	1	19
616.153	1	11
616.323	1	7
616.493	1	9
616.662	1	0
616.832	1	12
617.002	1	4
617.171	1	9
617.341	1	9
617.511	1	3
617.680	1	14
617.850	1	9
618.019	1	7
618.189	1	-1
618.359	1	12
618.528	1	7
618.698	1	4
618.868	1	9
619.037	1	10
619.207	1	-11
619.377	1	6
619.546	1	3
619.716	1	-6
619.885	1	17
620.055	1	12
620.225	1	11
620.394	1	12
620.564	1	3
620.734	1	6
620.903	1	9
621.073	1	-1
621.242	1	3
621.412	1	10
621.582	1	-2
621.751	1	0
621.921	1	10
622.091	1	8
622.260	1	6
622.430	1	5
622.599	1	16
622.769	1	-3
622.939	1	2
623.108	1	1
623.278	1	17
623.448	1	5
623.617	1	14
623.787	1	14
623.956	1	12
624.126	1	6
624.296	1	2
624.465	1	13
624.635	1	6
624.804	1	-3
624.974	1	3
625.144	1	18
625.313	1	12
625.483	1	8
625.652	1	13
625.822	1	9
625.992	1	1
626.161	1	13
626.331	1	11
626.501	1	9
626.670	1	3
626.840	1	13
627.009	1	-2
627.179	1	5
627.348	1	-2
627.518	1	7
627.688	1	9
627.857	1	17
628.027	1	12
628.196	1	10
628.366	1	17
628.536	1	1
628.705	1	8
628.875	1	5
629.044	1	8
629.214	1	11
629.384	1	-4
629.553	1	10
629.723	1	7
629.892	1	4
630.062	1	5
630.232	1	17
630.401	1	3
630.571	1	7
630.740	1	4
630.910	1	5
631.079	1	17
631.249	1	12
631.419	1	8
631.588	1	2
631.758	1	15
631.927	1	10
632.097	1	10
632.266	1	-2
632.436	1	0
632.606	1	13
632.775	1	5
632.945	1	5
633.114	1	12
633.284	1	1
633.453	1	3
633.623	1	8
633.793	1	11
633.962	1	11
634.132	1	2
634.301	1	-4
634.471	1	-7
634.640	1	9
634.810	1	5
634.979	1	10
635.149	1	9
635.319	1	10
635.488	1	13
635.658	1	6
635.827	1	1
635.997	1	11
636.166	1	10
636.336	1	24
636.505	1	5
636.675	1	2
636.845	1	14
637.014	1	0
637.184	1	0
637.353	1	12
637.523	1	1
637.692	1	2
637.862	1	-4
638.031	1	19
638.201	1	12
638.370	1	10
638.540	1	11
638.710	1	15
638.879	1	8
639.049	1	12
639.218	1	7
639.388	1	8
639.557	1	12
639.727	1	5
639.896	1	13
640.066	1	8
640.235	1	12
640.405	1	7
640.574	1	-2
640.744	1	3
640.914	1	2
641.083	1	6
641.253	1	-4
641.422	1	6
641.592	1	3
641.761	1	7
641.931	1	16
642.100	1	1
642.270	1	3
642.439	1	16
642.609	1	4
642.778	1	0
642.948	1	4
643.117	1	2
643.287	1	15
643.456	1	16
643.626	1	6
643.795	1	4
643.965	1	2
644.134	1	2
644.304	1	-5
644.473	1	17
644.643	1	11
644.812	1	13
644.982	1	13
645.151	1	5
645.321	1	20
645.490	1	16
645.660	1	-9
645.829	1	-3
645.999	1	7
646.168	1	-2
646.338	1	10
646.507	1	12
646.677	1	6
646.846	1	10
647.016	1	6
647.185	1	4
647.355	1	2
647.524	1	3
647.694	1	-3
647.863	1	-4
648.033	1	-5
648.202	1	8
648.372	1	9
648.541	1	0
648.711	1	7
648.880	1	7
649.050	1	2
649.219	1	8
649.389	1	5
649.558	1	-9
649.728	1	3
649.897	1	5
650.067	1	4
650.236	1	16
650.406	1	12
650.575	1	9
650.745	1	0
650.914	1	3
651.084	1	2
651.253	1	1
651.423	1	10
651.592	1	3
651.762	1	18
651.931	1	5
652.101	1	6
652.270	1	12
652.440	1	6
652.609	1	16
652.778	1	-4
652.948	1	1
653.117	1	6
653.287	1	11
653.456	1	6
653.626	1	9
653.795	1	16
653.965	1	9
654.134	1	16
654.304	1	2
654.473	1	14
654.643	1	16
654.812	1	2
654.982	1	-11
655.151	1	1
655.320	1	4
655.490	1	13
655.659	1	9
655.829	1	9
655.998	1	17
656.168	1	-1
656.337	1	1
656.507	1	13
656.676	1	-4
656.846	1	-2
657.015	1	8
657.184	1	4
657.354	1	4
657.523	1	6
657.693	1	8
657.862	1	2
658.032	1	7
658.201	1	2
658.371	1	2
658.540	1	7
658.709	1	4
658.879	1	-3
659.048	1	11
659.218	1	-4
659.387	1	-1
659.557	1	-2
659.726	1	6
659.895	1	2
660.065	1	2
660.234	1	5
660.404	1	-2
660.573	1	3
660.743	1	5
660.912	1	5
661.081	1	1
661.251	1	16
661.420	1	-5
661.590	1	2
661.759	1	5
661.929	1	5
662.098	1	-8
662.267	1	17
662.437	1	12
662.606	1	11
662.776	1	3
662.945	1	10
663.115	1	1
663.284	1	11
663.453	1	0
663.623	1	8
663.792	1	0
663.962	1	-6
664.131	1	-3
664.300	1	5
664.470	1	3
664.639	1	7
664.809	1	7
664.978	1	0
665.148	1	7
665.317	1	4
665.486	1	7
665.656	1	-6
665.825	1	12
665.995	1	11
666.164	1	8
666.333	1	6
666.503	1	6
666.672	1	-3
666.842	1	-2
667.011	1	19
667.180	1	5
667.350	1	10
667.519	1	2
667.689	1	-2
667.858	1	7
668.027	1	1
668.197	1	15
668.366	1	1
668.536	1	1
668.705	1	11
668.874	1	7
669.044	1	4
669.213	1	13
669.382	1	-8
669.552	1	8
669.721	1	-5
669.891	1	16
670.060	1	12
670.229	1	3
670.399	1	12
670.568	1	12
670.738	1	-6
670.907	1	-5
671.076	1	9
671.246	1	10
671.415	1	10
671.584	1	6
671.754	1	-5
671.923	1	-8
672.093	1	6
672.262	1	8
672.431	1	1
672.601	1	-7
672.770	1	7
672.939	1	-4
673.109	1	3
673.278	1	14
673.448	1	12
673.617	1	10
673.786	1	-2
