325.333	1	-1
325.504	1	6
325.675	1	-3
325.846	1	-12
326.017	1	-9
326.188	1	6
326.359	1	6
326.531	1	-5
326.702	1	-5
326.873	1	4
327.044	1	-7
327.215	1	-6
327.386	1	-2
327.557	1	-2
327.728	1	-2
327.899	1	-3
328.070	1	-1
328.241	1	-6
328.412	1	4
328.583	1	-6
328.754	1	-9
328.926	1	-1
329.097	1	0
329.268	1	8
329.439	1	-5
329.610	1	-6
329.781	1	-7
329.952	1	21
330.123	1	3
330.294	1	14
330.465	1	-4
330.636	1	10
330.807	1	2
330.978	1	1
331.149	1	0
331.320	1	3
331.492	1	-7
331.663	1	-13
331.834	1	14
332.005	1	5
332.176	1	3
332.347	1	1
332.518	1	4
332.689	1	3
332.860	1	4
333.031	1	4
333.202	1	-12
333.373	1	-2
333.544	1	-4
333.715	1	1
333.886	1	2
334.057	1	-8
334.228	1	-4
334.399	1	3
334.570	1	-3
334.741	1	-8
334.912	1	-3
335.084	1	2
335.255	1	6
335.426	1	-5
335.597	1	1
335.768	1	12
335.939	1	8
336.110	1	-15
336.281	1	-12
336.452	1	-4
336.623	1	7
336.794	1	-10
336.965	1	4
337.136	1	-6
337.307	1	4
337.478	1	7
337.649	1	5
337.820	1	8
337.991	1	3
338.162	1	5
338.333	1	-1
338.504	1	-4
338.675	1	3
338.846	1	0
339.017	1	-1
339.188	1	0
339.359	1	-2
339.530	1	8
339.701	1	-2
339.872	1	-1
340.043	1	-8
340.214	1	-6
340.385	1	-6
340.556	1	6
340.727	1	-2
340.898	1	5
341.069	1	-7
341.240	1	-2
341.411	1	2
341.582	1	-4
341.753	1	0
341.924	1	-8
342.095	1	3
342.266	1	-4
342.437	1	1
342.608	1	-10
342.779	1	-3
342.950	1	-1
343.121	1	4
343.292	1	-11
343.463	1	-1
343.634	1	-2
343.805	1	1
343.976	1	6
344.147	1	2
344.318	1	-4
344.489	1	-9
344.660	1	12
344.831	1	-10
345.002	1	5
345.173	1	3
345.344	1	-11
345.515	1	-3
345.686	1	2
345.857	1	1
346.028	1	-8
346.199	1	-13
346.370	1	-5
346.541	1	-5
346.712	1	-8
346.883	1	-9
347.054	1	12
347.225	1	-2
347.396	1	4
347.567	1	-6
347.738	1	1
347.909	1	0
348.080	1	-15
348.251	1	9
348.422	1	2
348.593	1	-6
348.764	1	-5
348.935	1	0
349.106	1	5
349.277	1	-14
349.448	1	-5
349.619	1	4
349.790	1	-5
349.961	1	10
350.132	1	7
350.303	1	-11
350.474	1	-1
350.645	1	-4
350.816	1	-1
350.987	1	-10
351.157	1	-2
351.328	1	-5
351.499	1	2
351.670	1	2
351.841	1	-1
352.012	1	-11
352.183	1	-14
352.354	1	-1
352.525	1	2
352.696	1	-2
352.867	1	1
353.038	1	9
353.209	1	-5
353.380	1	7
353.551	1	3
353.722	1	-8
353.893	1	-5
354.064	1	5
354.235	1	-13
354.406	1	-7
354.576	1	3
354.747	1	1
354.918	1	-21
355.089	1	6
355.260	1	-3
355.431	1	3
355.602	1	0
355.773	1	-4
355.944	1	-1
356.115	1	-12
356.286	1	1
356.457	1	-1
356.628	1	-5
356.799	1	-4
356.970	1	-2
357.141	1	-11
357.311	1	-6
357.482	1	-9
357.653	1	0
357.824	1	-4
357.995	1	0
358.166	1	1
358.337	1	6
358.508	1	-2
358.679	1	3
358.850	1	2
359.021	1	-4
359.192	1	-2
359.363	1	3
359.533	1	-1
359.704	1	-9
359.875	1	0
360.046	1	-2
360.217	1	7
360.388	1	-7
360.559	1	1
360.730	1	-3
360.901	1	7
361.072	1	-3
361.243	1	4
361.414	1	3
361.584	1	15
361.755	1	-2
361.926	1	17
362.097	1	2
362.268	1	4
362.439	1	-12
362.610	1	-1
362.781	1	-5
362.952	1	14
363.123	1	2
363.293	1	-7
363.464	1	7
363.635	1	1
363.806	1	5
363.977	1	2
364.148	1	2
364.319	1	-2
364.490	1	-2
364.661	1	4
364.832	1	3
365.002	1	9
365.173	1	5
365.344	1	-3
365.515	1	-3
365.686	1	-10
365.857	1	8
366.028	1	5
366.199	1	2
366.370	1	11
366.540	1	2
366.711	1	12
366.882	1	-4
367.053	1	7
367.224	1	8
367.395	1	1
367.566	1	3
367.737	1	-5
367.908	1	3
368.078	1	7
368.249	1	-3
368.420	1	-8
368.591	1	9
368.762	1	-1
368.933	1	12
369.104	1	4
369.274	1	1
369.445	1	-5
369.616	1	3
369.787	1	8
369.958	1	1
370.129	1	4
370.300	1	1
370.471	1	3
370.641	1	6
370.812	1	-3
370.983	1	8
371.154	1	1
371.325	1	1
371.496	1	-2
371.667	1	2
371.837	1	-5
372.008	1	3
372.179	1	-1
372.350	1	-6
372.521	1	-9
372.692	1	2
372.863	1	-2
373.033	1	3
373.204	1	9
373.375	1	-7
373.546	1	-1
373.717	1	-2
373.888	1	2
374.059	1	11
374.229	1	-12
374.400	1	4
374.571	1	-3
374.742	1	2
374.913	1	-3
375.084	1	5
375.254	1	-6
375.425	1	2
375.596	1	-13
375.767	1	4
375.938	1	2
376.109	1	-13
376.279	1	-2
376.450	1	1
376.621	1	5
376.792	1	-3
376.963	1	6
377.134	1	-2
377.304	1	6
377.475	1	-2
377.646	1	-2
377.817	1	4
377.988	1	-7
378.159	1	12
378.329	1	0
378.500	1	-14
378.671	1	-9
378.842	1	-9
379.013	1	-5
379.184	1	-2
379.354	1	2
379.525	1	10
379.696	1	4
379.867	1	3
380.038	1	2
380.209	1	0
380.379	1	-16
380.550	1	2
380.721	1	5
380.892	1	-6
381.063	1	1
381.233	1	10
381.404	1	4
381.575	1	-6
381.746	1	5
381.917	1	-7
382.087	1	-6
382.258	1	4
382.429	1	10
382.600	1	5
382.771	1	6
382.941	1	-3
383.112	1	-7
383.283	1	5
383.454	1	-1
383.625	1	-2
383.795	1	6
383.966	1	1
384.137	1	3
384.308	1	8
384.479	1	5
384.649	1	2
384.820	1	-5
384.991	1	10
385.162	1	4
385.333	1	7
385.503	1	11
385.674	1	-3
385.845	1	8
386.016	1	7
386.187	1	16
386.357	1	1
386.528	1	16
386.699	1	16
386.870	1	15
387.041	1	-3
387.211	1	8
387.382	1	-3
387.553	1	11
387.724	1	2
387.894	1	15
388.065	1	9
388.236	1	12
388.407	1	10
388.578	1	8
388.748	1	5
388.919	1	3
389.090	1	10
389.261	1	-10
389.431	1	7
389.602	1	11
389.773	1	10
389.944	1	7
390.114	1	5
390.285	1	4
390.456	1	-1
390.627	1	-2
390.798	1	12
390.968	1	9
391.139	1	-5
391.310	1	12
391.481	1	12
391.651	1	8
391.822	1	2
391.993	1	11
392.164	1	7
392.334	1	11
392.505	1	5
392.676	1	12
392.847	1	1
393.017	1	-7
393.188	1	-3
393.359	1	14
393.530	1	7
393.700	1	16
393.871	1	-5
394.042	1	6
394.213	1	8
394.383	1	4
394.554	1	16
394.725	1	11
394.896	1	-6
395.066	1	21
395.237	1	11
395.408	1	-4
395.579	1	15
395.749	1	6
395.920	1	7
396.091	1	3
396.262	1	6
396.432	1	-5
396.603	1	13
396.774	1	-10
396.945	1	4
397.115	1	17
397.286	1	22
397.457	1	10
397.627	1	8
397.798	1	-6
397.969	1	-1
398.140	1	4
398.310	1	9
398.481	1	1
398.652	1	11
398.823	1	18
398.993	1	3
399.164	1	14
399.335	1	4
399.505	1	5
399.676	1	9
399.847	1	9
400.018	1	10
400.188	1	13
400.359	1	-2
400.530	1	14
400.700	1	-2
400.871	1	-3
401.042	1	1
401.213	1	6
401.383	1	9
401.554	1	1
401.725	1	4
401.895	1	11
402.066	1	1
402.237	1	6
402.408	1	9
402.578	1	2
402.749	1	-5
402.920	1	-5
403.090	1	1
403.261	1	0
403.432	1	3
403.603	1	9
403.773	1	7
403.944	1	11
404.115	1	-3
404.285	1	2
404.456	1	-3
404.627	1	21
404.797	1	18
404.968	1	6
405.139	1	5
405.310	1	-6
405.480	1	7
405.651	1	7
405.822	1	2
405.992	1	1
406.163	1	14
406.334	1	9
406.504	1	0
406.675	1	5
406.846	1	9
407.016	1	-2
407.187	1	5
407.358	1	1
407.528	1	14
407.699	1	11
407.870	1	3
408.041	1	2
408.211	1	7
408.382	1	9
408.553	1	6
408.723	1	7
408.894	1	-6
409.065	1	8
409.235	1	-2
409.406	1	17
409.577	1	5
409.747	1	5
409.918	1	5
410.089	1	1
410.259	1	-8
410.430	1	5
410.601	1	-4
410.771	1	8
410.942	1	12
411.113	1	8
411.283	1	-3
411.454	1	-9
411.625	1	4
411.795	1	8
411.966	1	-8
412.137	1	-8
412.307	1	-1
412.478	1	6
412.649	1	-3
412.819	1	7
412.990	1	15
413.161	1	6
413.331	1	-2
413.502	1	8
413.672	1	2
413.843	1	3
414.014	1	7
414.184	1	-4
414.355	1	-11
414.526	1	-1
414.696	1	0
414.867	1	13
415.038	1	-9
415.208	1	-5
415.379	1	5
415.550	1	7
415.720	1	0
415.891	1	13
416.062	1	3
416.232	1	0
416.403	1	-4
416.573	1	-1
416.744	1	2
416.915	1	-6
417.085	1	7
417.256	1	4
417.427	1	-9
417.597	1	-10
417.768	1	2
417.939	1	3
418.109	1	1
418.280	1	0
418.450	1	4
418.621	1	-1
418.792	1	4
418.962	1	-5
419.133	1	1
419.304	1	1
419.474	1	-2
419.645	1	16
419.815	1	-4
419.986	1	1
420.157	1	0
420.327	1	3
420.498	1	8
420.669	1	0
420.839	1	-2
421.010	1	2
421.180	1	3
421.351	1	9
421.522	1	-6
421.692	1	6
421.863	1	2
422.033	1	-6
422.204	1	-9
422.375	1	-1
422.545	1	7
422.716	1	11
422.886	1	-3
423.057	1	-9
423.228	1	-12
423.398	1	-2
423.569	1	4
423.740	1	-4
423.910	1	-12
424.081	1	1
424.251	1	-6
424.422	1	-3
424.593	1	6
424.763	1	1
424.934	1	-1
425.104	1	10
425.275	1	-11
425.445	1	-5
425.616	1	-1
425.787	1	-11
425.957	1	16
426.128	1	-11
426.298	1	1
426.469	1	3
426.640	1	-6
426.810	1	9
426.981	1	-6
427.151	1	0
427.322	1	1
427.493	1	-2
427.663	1	-2
427.834	1	-11
428.004	1	5
428.175	1	-6
428.345	1	8
428.516	1	1
428.687	1	2
428.857	1	-3
429.028	1	-16
429.198	1	-9
429.369	1	4
429.540	1	6
429.710	1	-6
429.881	1	4
430.051	1	13
430.222	1	1
430.392	1	3
430.563	1	6
430.734	1	-1
430.904	1	-1
431.075	1	6
431.245	1	0
431.416	1	10
431.586	1	-2
431.757	1	-3
431.927	1	3
432.098	1	-7
432.269	1	-3
432.439	1	-8
432.610	1	-5
432.780	1	-1
432.951	1	0
433.121	1	-3
433.292	1	2
433.462	1	0
433.633	1	-7
433.804	1	-6
433.974	1	-7
434.145	1	2
434.315	1	3
434.486	1	7
434.656	1	3
434.827	1	0
434.997	1	7
435.168	1	-8
435.339	1	3
435.509	1	3
435.680	1	0
435.850	1	6
436.021	1	9
436.191	1	-1
436.362	1	-1
436.532	1	7
436.703	1	4
436.873	1	0
437.044	1	3
437.214	1	4
437.385	1	-8
437.556	1	-6
437.726	1	-3
437.897	1	-1
438.067	1	5
438.238	1	-9
438.408	1	-1
438.579	1	9
438.749	1	1
438.920	1	-4
439.090	1	3
439.261	1	2
439.431	1	-3
439.602	1	6
439.772	1	14
439.943	1	1
440.113	1	-3
440.284	1	3
440.455	1	-5
440.625	1	-1
440.796	1	5
440.966	1	13
441.137	1	-6
441.307	1	-13
441.478	1	3
441.648	1	0
441.819	1	1
441.989	1	-4
442.160	1	9
442.330	1	1
442.501	1	-15
442.671	1	3
442.842	1	12
443.012	1	-11
443.183	1	0
443.353	1	4
443.524	1	-3
443.694	1	2
443.865	1	-3
444.035	1	-9
444.206	1	2
444.376	1	-4
444.547	1	-4
444.717	1	9
444.888	1	-8
445.058	1	6
445.229	1	-3
445.399	1	-2
445.570	1	5
445.740	1	4
445.911	1	-2
446.081	1	1
446.252	1	-14
446.422	1	-1
446.593	1	5
446.763	1	6
446.934	1	10
447.104	1	-15
447.275	1	1
447.445	1	4
447.616	1	-5
447.786	1	4
447.957	1	2
448.127	1	1
448.298	1	-9
448.468	1	0
448.639	1	4
448.809	1	-2
448.979	1	4
449.150	1	8
449.320	1	-1
449.491	1	2
449.661	1	2
449.832	1	-2
450.002	1	-4
450.173	1	-1
450.343	1	8
450.514	1	1
450.684	1	-4
450.855	1	-3
451.025	1	-4
451.196	1	0
451.366	1	4
451.537	1	-2
451.707	1	4
451.878	1	6
452.048	1	-4
452.218	1	-3
452.389	1	-7
452.559	1	-3
452.730	1	-3
452.900	1	2
453.071	1	4
453.241	1	-10
453.412	1	-9
453.582	1	7
453.753	1	-7
453.923	1	-8
454.093	1	4
454.264	1	-11
454.434	1	-3
454.605	1	6
454.775	1	-5
454.946	1	2
455.116	1	6
455.287	1	13
455.457	1	-3
455.628	1	-11
455.798	1	-7
455.968	1	2
456.139	1	6
456.309	1	-6
456.480	1	-3
456.650	1	-4
456.821	1	3
456.991	1	4
457.161	1	14
457.332	1	-2
457.502	1	1
457.673	1	-6
457.843	1	-4
458.014	1	-8
458.184	1	1
458.355	1	-1
458.525	1	1
458.695	1	0
458.866	1	-3
459.036	1	8
459.207	1	-6
459.377	1	0
459.548	1	-9
459.718	1	-4
459.888	1	12
460.059	1	2
460.229	1	11
460.400	1	5
460.570	1	-10
460.740	1	-13
460.911	1	2
461.081	1	-10
461.252	1	-2
461.422	1	5
461.593	1	0
461.763	1	4
461.933	1	-8
462.104	1	1
462.274	1	-2
462.445	1	-3
462.615	1	-3
462.785	1	-15
462.956	1	1
463.126	1	-10
463.297	1	-6
463.467	1	3
463.638	1	2
463.808	1	-5
463.978	1	0
464.149	1	-3
464.319	1	2
464.490	1	5
464.660	1	3
464.830	1	-6
465.001	1	1
465.171	1	0
465.342	1	-3
465.512	1	-3
465.682	1	1
465.853	1	-5
466.023	1	-6
466.194	1	-3
466.364	1	8
466.534	1	0
466.705	1	3
466.875	1	-1
467.045	1	10
467.216	1	-9
467.386	1	-6
467.557	1	-4
467.727	1	3
467.897	1	2
468.068	1	2
468.238	1	-7
468.409	1	5
468.579	1	9
468.749	1	6
468.920	1	-3
469.090	1	1
469.260	1	1
469.431	1	10
469.601	1	-5
469.772	1	-9
469.942	1	2
470.112	1	0
470.283	1	10
470.453	1	-4
470.623	1	-5
470.794	1	-2
470.964	1	-11
471.135	1	-8
471.305	1	-2
471.475	1	-2
471.646	1	5
471.816	1	-5
471.986	1	1
472.157	1	1
472.327	1	-10
472.497	1	-7
472.668	1	4
472.838	1	-6
473.009	1	-2
473.179	1	0
473.349	1	1
473.520	1	6
473.690	1	13
473.860	1	2
474.031	1	-2
474.201	1	-5
474.371	1	-3
474.542	1	-1
474.712	1	-3
474.882	1	3
475.053	1	-5
475.223	1	2
475.394	1	0
475.564	1	10
475.734	1	-1
475.905	1	-2
476.075	1	4
476.245	1	1
476.416	1	-1
476.586	1	-3
476.756	1	-1
476.927	1	6
477.097	1	-5
477.267	1	-2
477.438	1	-3
477.608	1	9
477.778	1	-1
477.949	1	1
478.119	1	6
478.289	1	-8
478.460	1	-4
478.630	1	-2
478.800	1	-9
478.971	1	-3
479.141	1	5
479.311	1	-5
479.482	1	-9
479.652	1	0
479.822	1	-6
479.993	1	6
480.163	1	-13
480.333	1	-7
480.504	1	-4
480.674	1	3
480.844	1	9
481.015	1	-4
481.185	1	11
481.355	1	7
481.525	1	-1
481.696	1	-3
481.866	1	0
482.036	1	-10
482.207	1	6
482.377	1	-3
482.547	1	-4
482.718	1	6
482.888	1	-2
483.058	1	-8
483.229	1	8
483.399	1	-3
483.569	1	6
483.740	1	-12
483.910	1	6
484.080	1	-9
484.250	1	-10
484.421	1	-4
484.591	1	15
484.761	1	-8
484.932	1	12
485.102	1	9
485.272	1	7
485.443	1	8
485.613	1	-16
485.783	1	7
485.953	1	-1
486.124	1	-1
486.294	1	9
486.464	1	-4
486.635	1	-3
486.805	1	11
486.975	1	-12
487.146	1	-6
487.316	1	6
487.486	1	-6
487.656	1	-13
487.827	1	1
487.997	1	-5
488.167	1	-2
488.338	1	10
488.508	1	5
488.678	1	3
488.848	1	-6
489.019	1	-5
489.189	1	-8
489.359	1	6
489.529	1	-5
489.700	1	-9
489.870	1	-6
490.040	1	-10
490.211	1	8
490.381	1	-1
490.551	1	-6
490.721	1	-3
490.892	1	1
491.062	1	4
491.232	1	0
491.402	1	0
491.573	1	5
491.743	1	-8
491.913	1	-1
492.084	1	0
492.254	1	-3
492.424	1	-4
492.594	1	1
492.765	1	11
492.935	1	-3
493.105	1	11
493.275	1	3
493.446	1	-5
493.616	1	2
493.786	1	-9
493.956	1	-5
494.127	1	0
494.297	1	0
494.467	1	2
494.637	1	3
494.808	1	8
494.978	1	-5
495.148	1	8
495.318	1	5
495.489	1	-6
495.659	1	-1
495.829	1	-7
495.999	1	-3
496.170	1	-6
496.340	1	1
496.510	1	-2
496.680	1	-1
496.851	1	0
497.021	1	5
497.191	1	-4
497.361	1	-9
497.532	1	2
497.702	1	0
497.872	1	3
498.042	1	7
498.213	1	8
498.383	1	-4
498.553	1	7
498.723	1	-7
498.894	1	-3
499.064	1	2
499.234	1	-3
499.404	1	9
499.574	1	-9
499.745	1	9
499.915	1	2
500.085	1	-10
500.255	1	-3
500.426	1	10
500.596	1	-1
500.766	1	0
500.936	1	-11
501.106	1	-8
501.277	1	0
501.447	1	3
501.617	1	-7
501.787	1	-3
501.958	1	3
502.128	1	-7
502.298	1	3
502.468	1	9
502.638	1	-1
502.809	1	6
502.979	1	5
503.149	1	-4
503.319	1	-1
503.489	1	12
503.660	1	-5
503.830	1	7
504.000	1	-9
504.170	1	7
504.340	1	-1
504.511	1	5
504.681	1	-5
504.851	1	-1
505.021	1	1
505.192	1	5
505.362	1	0
505.532	1	0
505.702	1	1
505.872	1	-11
506.043	1	-6
506.213	1	1
506.383	1	-2
506.553	1	5
506.723	1	10
506.893	1	-2
507.064	1	-7
507.234	1	-6
507.404	1	2
507.574	1	5
507.744	1	-11
507.915	1	-5
508.085	1	2
508.255	1	9
508.425	1	15
508.595	1	-9
508.766	1	-5
508.936	1	1
509.106	1	-7
509.276	1	8
509.446	1	1
509.616	1	6
509.787	1	-5
509.957	1	-1
510.127	1	13
510.297	1	-5
510.467	1	5
510.638	1	2
510.808	1	-1
510.978	1	-16
511.148	1	9
511.318	1	2
511.488	1	5
511.659	1	1
511.829	1	3
511.999	1	8
512.169	1	9
512.339	1	6
512.509	1	7
512.680	1	10
512.850	1	3
513.020	1	-3
513.190	1	-5
513.360	1	2
513.530	1	-6
513.700	1	5
513.871	1	10
514.041	1	-2
514.211	1	-10
514.381	1	5
514.551	1	5
514.721	1	0
514.892	1	-1
515.062	1	9
515.232	1	0
515.402	1	5
515.572	1	1
515.742	1	13
515.912	1	11
516.083	1	-3
516.253	1	-4
516.423	1	14
516.593	1	-2
516.763	1	-3
516.933	1	1
517.104	1	4
517.274	1	5
517.444	1	8
517.614	1	-1
517.784	1	-10
517.954	1	-8
518.124	1	5
518.294	1	-2
518.465	1	-1
518.635	1	2
518.805	1	-7
518.975	1	6
519.145	1	8
519.315	1	1
519.485	1	0
519.656	1	-2
519.826	1	5
519.996	1	11
520.166	1	0
520.336	1	0
520.506	1	4
520.676	1	8
520.846	1	0
521.017	1	-5
521.187	1	1
521.357	1	-7
521.527	1	-4
521.697	1	10
521.867	1	8
522.037	1	-1
522.207	1	3
522.377	1	7
522.548	1	-5
522.718	1	6
522.888	1	-11
523.058	1	19
523.228	1	12
523.398	1	7
523.568	1	-5
523.738	1	0
523.909	1	18
524.079	1	12
524.249	1	9
524.419	1	4
524.589	1	8
524.759	1	-2
524.929	1	-1
525.099	1	0
525.269	1	5
525.439	1	1
525.610	1	3
525.780	1	5
525.950	1	-7
526.120	1	-3
526.290	1	1
526.460	1	5
526.630	1	0
526.800	1	1
526.970	1	-11
527.140	1	1
527.311	1	3
527.481	1	4
527.651	1	9
527.821	1	3
527.991	1	3
528.161	1	7
528.331	1	6
528.501	1	-6
528.671	1	-2
528.841	1	3
529.011	1	-2
529.181	1	8
529.352	1	10
529.522	1	6
529.692	1	10
529.862	1	3
530.032	1	-3
530.202	1	5
530.372	1	-2
530.542	1	9
530.712	1	15
530.882	1	-3
531.052	1	7
531.222	1	-1
531.392	1	9
531.563	1	12
531.733	1	5
531.903	1	6
532.073	1	6
532.243	1	-2
532.413	1	3
532.583	1	-3
532.753	1	-1
532.923	1	-3
533.093	1	3
533.263	1	1
533.433	1	2
533.603	1	-3
533.773	1	-3
533.943	1	5
534.113	1	2
534.284	1	-8
534.454	1	0
534.624	1	8
534.794	1	-1
534.964	1	0
535.134	1	-1
535.304	1	24
535.474	1	4
535.644	1	2
535.814	1	3
535.984	1	-2
536.154	1	0
536.324	1	5
536.494	1	5
536.664	1	9
536.834	1	7
537.004	1	19
537.174	1	6
537.344	1	2
537.514	1	7
537.685	1	9
537.855	1	0
538.025	1	7
538.195	1	12
538.365	1	15
538.535	1	13
538.705	1	-1
538.875	1	-1
539.045	1	0
539.215	1	-13
539.385	1	4
539.555	1	-4
539.725	1	3
539.895	1	-3
540.065	1	6
540.235	1	-2
540.405	1	10
540.575	1	10
540.745	1	-2
540.915	1	2
541.085	1	-2
541.255	1	-7
541.425	1	-1
541.595	1	10
541.765	1	4
541.935	1	5
542.105	1	-1
542.275	1	2
542.445	1	10
542.615	1	8
542.785	1	0
542.955	1	3
543.125	1	-5
543.295	1	5
543.465	1	14
543.635	1	2
543.805	1	6
543.975	1	4
544.145	1	-1
544.315	1	1
544.485	1	3
544.655	1	11
544.825	1	14
544.995	1	5
545.165	1	4
545.335	1	-2
545.505	1	5
545.675	1	4
545.845	1	-1
546.015	1	-4
546.185	1	4
546.355	1	12
546.525	1	17
546.695	1	-6
546.865	1	-6
547.035	1	2
547.205	1	-6
547.375	1	5
547.545	1	11
547.715	1	3
547.885	1	5
548.055	1	0
548.225	1	2
548.395	1	3
548.565	1	2
548.735	1	-2
548.905	1	-3
549.075	1	-1
549.245	1	-3
549.415	1	0
549.585	1	-9
549.755	1	0
549.925	1	7
550.095	1	8
550.265	1	-4
550.435	1	1
550.605	1	-1
550.775	1	-1
550.945	1	2
551.115	1	0
551.285	1	13
551.455	1	12
551.625	1	-4
551.795	1	-1
551.965	1	-3
552.135	1	-2
552.305	1	8
552.475	1	4
552.645	1	8
552.815	1	3
552.985	1	-3
553.155	1	7
553.325	1	9
553.495	1	-6
553.665	1	0
553.835	1	5
554.004	1	3
554.174	1	-2
554.344	1	-2
554.514	1	7
554.684	1	10
554.854	1	3
555.024	1	3
555.194	1	12
555.364	1	9
555.534	1	3
555.704	1	5
555.874	1	-4
556.044	1	2
556.214	1	-1
556.384	1	4
556.554	1	4
556.724	1	-10
556.894	1	10
557.064	1	0
557.234	1	13
557.404	1	0
557.573	1	1
557.743	1	7
557.913	1	6
558.083	1	-4
558.253	1	-2
558.423	1	-3
558.593	1	3
558.763	1	2
558.933	1	6
559.103	1	-4
559.273	1	-3
559.443	1	10
559.613	1	-1
559.783	1	1
559.953	1	1
560.122	1	-9
560.292	1	2
560.462	1	2
560.632	1	3
560.802	1	5
560.972	1	8
561.142	1	6
561.312	1	2
561.482	1	0
561.652	1	2
561.822	1	10
561.992	1	7
562.162	1	0
562.331	1	8
562.501	1	1
562.671	1	-2
562.841	1	-2
563.011	1	-4
563.181	1	5
563.351	1	-1
563.521	1	5
563.691	1	-5
563.861	1	7
564.031	1	-5
564.201	1	0
564.370	1	3
564.540	1	7
564.710	1	-6
564.880	1	-3
565.050	1	2
565.220	1	5
565.390	1	-3
565.560	1	4
565.730	1	0
565.900	1	4
566.069	1	5
566.239	1	-5
566.409	1	-2
566.579	1	-3
566.749	1	-1
566.919	1	8
567.089	1	1
567.259	1	10
567.429	1	12
567.599	1	5
567.768	1	8
567.938	1	-4
568.108	1	-4
568.278	1	-11
568.448	1	-10
568.618	1	-1
568.788	1	0
568.958	1	0
569.128	1	2
569.297	1	4
569.467	1	2
569.637	1	-5
569.807	1	2
569.977	1	4
570.147	1	-5
570.317	1	15
570.487	1	5
570.656	1	-4
570.826	1	2
570.996	1	-9
571.166	1	-6
571.336	1	3
571.506	1	0
571.676	1	8
571.846	1	5
572.015	1	-4
572.185	1	-3
572.355	1	9
572.525	1	-1
572.695	1	1
572.865	1	10
573.035	1	1
573.205	1	10
573.374	1	-8
573.544	1	-1
573.714	1	11
573.884	1	-6
574.054	1	0
574.224	1	-3
574.394	1	-2
574.563	1	6
574.733	1	3
574.903	1	8
575.073	1	-1
575.243	1	-3
575.413	1	0
575.583	1	3
575.752	1	-4
575.922	1	-1
576.092	1	2
576.262	1	1
576.432	1	-10
576.602	1	-2
576.772	1	-3
576.941	1	7
577.111	1	6
577.281	1	-5
577.451	1	2
577.621	1	2
577.791	1	-2
577.960	1	-1
578.130	1	-4
578.300	1	-10
578.470	1	-5
578.640	1	-13
578.810	1	-2
578.979	1	5
579.149	1	-3
579.319	1	15
579.489	1	0
579.659	1	4
579.829	1	-11
579.998	1	2
580.168	1	5
580.338	1	-15
580.508	1	-1
580.678	1	-2
580.848	1	6
581.017	1	0
581.187	1	5
581.357	1	-1
581.527	1	-1
581.697	1	-18
581.867	1	-2
582.036	1	4
582.206	1	-5
582.376	1	11
582.546	1	8
582.716	1	1
582.885	1	0
583.055	1	-1
583.225	1	-4
583.395	1	11
583.565	1	13
583.735	1	-11
583.904	1	-1
584.074	1	-11
584.244	1	-5
584.414	1	1
584.584	1	12
584.753	1	-3
584.923	1	0
585.093	1	8
585.263	1	7
585.433	1	6
585.602	1	-2
585.772	1	-4
585.942	1	-3
586.112	1	11
586.282	1	-4
586.451	1	-3
586.621	1	-4
586.791	1	2
586.961	1	0
587.131	1	-5
587.300	1	-5
587.470	1	-1
587.640	1	-6
587.810	1	-3
587.980	1	6
588.149	1	5
588.319	1	1
588.489	1	2
588.659	1	-4
588.829	1	2
588.998	1	-10
589.168	1	9
589.338	1	5
589.508	1	1
589.677	1	-1
589.847	1	-4
590.017	1	-3
590.187	1	0
590.357	1	-2
590.526	1	4
590.696	1	4
590.866	1	1
591.036	1	4
591.205	1	1
591.375	1	-17
591.545	1	-4
591.715	1	-1
591.885	1	4
592.054	1	-4
592.224	1	4
592.394	1	-4
592.564	1	-4
592.733	1	3
592.903	1	2
593.073	1	2
593.243	1	-3
593.412	1	0
593.582	1	7
593.752	1	-8
593.922	1	-4
594.091	1	5
594.261	1	-1
594.431	1	5
594.601	1	-7
594.771	1	-1
594.940	1	-6
595.110	1	1
595.280	1	-4
595.450	1	3
595.619	1	2
595.789	1	7
595.959	1	0
596.129	1	-3
596.298	1	0
596.468	1	2
596.638	1	2
596.808	1	3
596.977	1	-4
597.147	1	11
597.317	1	0
597.487	1	4
597.656	1	4
597.826	1	-3
597.996	1	-1
598.166	1	-11
598.335	1	3
598.505	1	2
598.675	1	3
598.844	1	-4
599.014	1	-6
599.184	1	0
599.354	1	-10
599.523	1	-13
599.693	1	1
599.863	1	11
600.033	1	-13
600.202	1	4
600.372	1	-5
600.542	1	9
600.712	1	1
600.881	1	2
601.051	1	-7
601.221	1	-5
601.390	1	-9
601.560	1	-8
601.730	1	11
601.900	1	-2
602.069	1	3
602.239	1	-3
602.409	1	3
602.578	1	-1
602.748	1	-10
602.918	1	-4
603.088	1	6
603.257	1	-2
603.427	1	7
603.597	1	14
603.767	1	-10
603.936	1	4
604.106	1	3
604.276	1	-2
604.445	1	12
604.615	1	-6
604.785	1	9
604.954	1	5
605.124	1	3
605.294	1	9
605.464	1	-7
605.633	1	2
605.803	1	-1
605.973	1	-11
606.142	1	-5
606.312	1	1
606.482	1	-4
606.652	1	-7
606.821	1	13
606.991	1	2
607.161	1	5
607.330	1	9
607.500	1	-1
607.670	1	-4
607.839	1	-7
608.009	1	-8
608.179	1	2
608.348	1	-8
608.518	1	-6
608.688	1	6
608.858	1	8
609.027	1	6
609.197	1	-5
609.367	1	-6
609.536	1	-5
609.706	1	-2
609.876	1	-5
610.045	1	-3
610.215	1	0
610.385	1	-3
610.554	1	6
610.724	1	4
610.894	1	9
611.063	1	-4
611.233	1	1
611.403	1	2
611.572	1	2
611.742	1	0
611.912	1	-6
612.081	1	1
612.251	1	-2
612.421	1	19
612.590	1	-1
612.760	1	5
612.930	1	2
613.099	1	-10
613.269	1	2
613.439	1	-2
613.608	1	3
613.778	1	-3
613.948	1	12
614.117	1	4
614.287	1	0
614.457	1	2
614.626	1	6
614.796	1	3
614.966	1	-1
615.135	1	-10
615.305	1	6
615.475	1	8
615.644	1	-15
615.814	1	1
615.984	1	6
616.153	1	3
616.323	1	-1
616.493	1	9
616.662	1	2
616.832	1	0
617.002	1	-9
617.171	1	-5
617.341	1	2
617.511	1	-3
617.680	1	-1
617.850	1	12
618.019	1	0
618.189	1	-1
618.359	1	-7
618.528	1	-8
618.698	1	-4
618.868	1	0
619.037	1	6
619.207	1	-5
619.377	1	-13
619.546	1	3
619.716	1	-8
619.885	1	-2
620.055	1	8
620.225	1	2
620.394	1	-2
620.564	1	-6
620.734	1	-2
620.903	1	7
621.073	1	-5
621.242	1	-12
621.412	1	8
621.582	1	-6
621.751	1	-1
621.921	1	-4
622.091	1	-2
622.260	1	-2
622.430	1	2
622.599	1	14
622.769	1	-1
622.939	1	-1
623.108	1	-8
623.278	1	-5
623.448	1	-3
623.617	1	0
623.787	1	-5
623.956	1	5
624.126	1	-1
624.296	1	0
624.465	1	7
624.635	1	1
624.804	1	-8
624.974	1	-6
625.144	1	-1
625.313	1	-1
625.483	1	6
625.652	1	11
625.822	1	4
625.992	1	-7
626.161	1	4
626.331	1	4
626.501	1	0
626.670	1	7
626.840	1	0
627.009	1	-9
627.179	1	-6
627.348	1	-12
627.518	1	5
627.688	1	-2
627.857	1	7
628.027	1	8
628.196	1	0
628.366	1	12
628.536	1	-13
628.705	1	-3
628.875	1	5
629.044	1	-2
629.214	1	-4
629.384	1	-9
629.553	1	3
629.723	1	1
629.892	1	0
630.062	1	6
630.232	1	13
630.401	1	6
630.571	1	-8
630.740	1	6
630.910	1	-6
631.079	1	15
631.249	1	2
631.419	1	0
631.588	1	-5
631.758	1	3
631.927	1	6
632.097	1	17
632.266	1	-4
632.436	1	-4
632.606	1	-2
632.775	1	-6
632.945	1	4
633.114	1	6
633.284	1	-5
633.453	1	-15
633.623	1	-7
633.793	1	4
633.962	1	6
634.132	1	0
634.301	1	-2
634.471	1	-4
634.640	1	-4
634.810	1	8
634.979	1	3
635.149	1	-1
635.319	1	2
635.488	1	1
635.658	1	1
635.827	1	-5
635.997	1	-3
636.166	1	-4
636.336	1	-3
636.505	1	3
636.675	1	-5
636.845	1	0
637.014	1	1
637.184	1	-3
637.353	1	2
637.523	1	-6
637.692	1	6
637.862	1	-9
638.031	1	12
638.201	1	8
638.370	1	11
638.540	1	-3
638.710	1	0
638.879	1	2
639.049	1	-1
639.218	1	-5
639.388	1	3
639.557	1	-1
639.727	1	0
639.896	1	-1
640.066	1	5
640.235	1	1
640.405	1	2
640.574	1	-5
640.744	1	8
640.914	1	3
641.083	1	-6
641.253	1	-6
641.422	1	-2
641.592	1	-8
641.761	1	-4
641.931	1	11
642.100	1	-4
642.270	1	-2
642.439	1	-5
642.609	1	3
642.778	1	-3
642.948	1	-2
643.117	1	-5
643.287	1	5
643.456	1	10
643.626	1	5
643.795	1	4
643.965	1	-2
644.134	1	-3
644.304	1	-12
644.473	1	3
644.643	1	-3
644.812	1	6
644.982	1	1
645.151	1	-5
645.321	1	8
645.490	1	1
645.660	1	0
645.829	1	-8
645.999	1	-2
646.168	1	1
646.338	1	10
646.507	1	3
646.677	1	2
646.846	1	12
647.016	1	-3
647.185	1	-5
647.355	1	-1
647.524	1	0
647.694	1	-2
647.863	1	-12
648.033	1	-5
648.202	1	-1
648.372	1	6
648.541	1	-1
648.711	1	10
648.880	1	2
649.050	1	-1
649.219	1	8
649.389	1	8
649.558	1	-10
649.728	1	-3
649.897	1	-4
650.067	1	-12
650.236	1	9
650.406	1	8
650.575	1	2
650.745	1	-8
650.914	1	-1
651.084	1	-8
651.253	1	3
651.423	1	1
651.592	1	2
651.762	1	8
651.931	1	2
652.101	1	-6
652.270	1	-2
652.440	1	5
652.609	1	11
652.778	1	-5
652.948	1	1
653.117	1	0
653.287	1	10
653.456	1	-8
653.626	1	-3
653.795	1	-1
653.965	1	12
654.134	1	0
654.304	1	4
654.473	1	8
654.643	1	6
654.812	1	-2
654.982	1	-14
655.151	1	-10
655.320	1	-7
655.490	1	6
655.659	1	-1
655.829	1	-1
655.998	1	-5
656.168	1	7
656.337	1	-7
656.507	1	14
656.676	1	-12
656.846	1	-3
657.015	1	-4
657.184	1	6
657.354	1	0
657.523	1	6
657.693	1	2
657.862	1	-5
658.032	1	6
658.201	1	-1
658.371	1	-11
658.540	1	-4
658.709	1	-10
658.879	1	-4
659.048	1	-7
659.218	1	-3
659.387	1	-3
659.557	1	3
659.726	1	0
659.895	1	-2
660.065	1	0
660.234	1	2
660.404	1	1
660.573	1	3
660.743	1	-10
660.912	1	-3
661.081	1	-2
661.251	1	-3
661.420	1	-2
661.590	1	4
661.759	1	-1
661.929	1	-7
662.098	1	-5
662.267	1	12
662.437	1	-2
662.606	1	-6
662.776	1	4
662.945	1	7
663.115	1	-7
663.284	1	4
663.453	1	5
663.623	1	4
663.792	1	3
663.962	1	-8
664.131	1	-3
664.300	1	-1
664.470	1	5
664.639	1	-11
664.809	1	0
664.978	1	2
665.148	1	-2
665.317	1	-3
665.486	1	-8
665.656	1	3
665.825	1	4
665.995	1	2
666.164	1	-2
666.333	1	13
666.503	1	1
666.672	1	-14
666.842	1	-11
667.011	1	2
667.180	1	-1
667.350	1	10
667.519	1	-8
667.689	1	2
667.858	1	2
668.027	1	-9
668.197	1	6
668.366	1	2
668.536	1	2
668.705	1	3
668.874	1	-5
669.044	1	-3
669.213	1	0
669.382	1	1
669.552	1	15
669.721	1	-1
669.891	1	-1
670.060	1	-3
670.229	1	2
670.399	1	14
670.568	1	6
670.738	1	-4
670.907	1	-20
671.076	1	9
671.246	1	1
671.415	1	-3
671.584	1	1
671.754	1	-8
671.923	1	-1
672.093	1	5
672.262	1	0
672.431	1	-4
672.601	1	-4
672.770	1	-6
672.939	1	-8
673.109	1	2
673.278	1	-2
673.448	1	4
673.617	1	9
673.786	1	-1
