325.333	1	5
325.504	1	8
325.675	1	-7
325.846	1	-3
326.017	1	-1
326.188	1	11
326.359	1	-1
326.531	1	-1
326.702	1	1
326.873	1	5
327.044	1	-1
327.215	1	2
327.386	1	2
327.557	1	-4
327.728	1	-3
327.899	1	-5
328.070	1	4
328.241	1	1
328.412	1	6
328.583	1	-4
328.754	1	-5
328.926	1	6
329.097	1	4
329.268	1	1
329.439	1	0
329.610	1	-1
329.781	1	0
329.952	1	7
330.123	1	2
330.294	1	3
330.465	1	-7
330.636	1	2
330.807	1	4
330.978	1	0
331.149	1	6
331.320	1	8
331.492	1	-3
331.663	1	-2
331.834	1	14
332.005	1	5
332.176	1	-4
332.347	1	-2
332.518	1	3
332.689	1	12
332.860	1	4
333.031	1	-3
333.202	1	-3
333.373	1	3
333.544	1	-3
333.715	1	1
333.886	1	-2
334.057	1	2
334.228	1	-9
334.399	1	0
334.570	1	0
334.741	1	4
334.912	1	-3
335.084	1	-1
335.255	1	0
335.426	1	-1
335.597	1	-5
335.768	1	8
335.939	1	3
336.110	1	-14
336.281	1	-7
336.452	1	9
336.623	1	7
336.794	1	-8
336.965	1	8
337.136	1	-8
337.307	1	13
337.478	1	-3
337.649	1	5
337.820	1	5
337.991	1	7
338.162	1	-6
338.333	1	-4
338.504	1	-9
338.675	1	5
338.846	1	4
339.017	1	-1
339.188	1	1
339.359	1	3
339.530	1	3
339.701	1	-1
339.872	1	5
340.043	1	7
340.214	1	13
340.385	1	3
340.556	1	2
340.727	1	-11
340.898	1	-4
341.069	1	-3
341.240	1	-4
341.411	1	12
341.582	1	7
341.753	1	3
341.924	1	1
342.095	1	5
342.266	1	1
342.437	1	6
342.608	1	-4
342.779	1	-7
342.950	1	1
343.121	1	3
343.292	1	2
343.463	1	1
343.634	1	-3
343.805	1	15
343.976	1	6
344.147	1	2
344.318	1	6
344.489	1	-11
344.660	1	12
344.831	1	-3
345.002	1	5
345.173	1	-3
345.344	1	-5
345.515	1	4
345.686	1	2
345.857	1	-9
346.028	1	-12
346.199	1	-1
346.370	1	-1
346.541	1	0
346.712	1	7
346.883	1	2
347.054	1	3
347.225	1	-4
347.396	1	8
347.567	1	-2
347.738	1	1
347.909	1	2
348.080	1	-8
348.251	1	-2
348.422	1	9
348.593	1	3
348.764	1	-1
348.935	1	3
349.106	1	8
349.277	1	-6
349.448	1	6
349.619	1	-8
349.790	1	-1
349.961	1	1
350.132	1	-1
350.303	1	-9
350.474	1	7
350.645	1	-2
350.816	1	4
350.987	1	3
351.157	1	7
351.328	1	-2
351.499	1	0
351.670	1	9
351.841	1	10
352.012	1	-7
352.183	1	4
352.354	1	3
352.525	1	12
352.696	1	1
352.867	1	5
353.038	1	16
353.209	1	8
353.380	1	1
353.551	1	0
353.722	1	1
353.893	1	6
354.064	1	12
354.235	1	2
354.406	1	0
354.576	1	10
354.747	1	2
354.918	1	-4
355.089	1	1
355.260	1	1
355.431	1	8
355.602	1	10
355.773	1	5
355.944	1	6
356.115	1	-1
356.286	1	13
356.457	1	5
356.628	1	12
356.799	1	0
356.970	1	-5
357.141	1	-5
357.311	1	4
357.482	1	-4
357.653	1	10
357.824	1	-1
357.995	1	9
358.166	1	0
358.337	1	4
358.508	1	8
358.679	1	9
358.850	1	10
359.021	1	-5
359.192	1	17
359.363	1	5
359.533	1	11
359.704	1	10
359.875	1	2
360.046	1	15
360.217	1	14
360.388	1	16
360.559	1	1
360.730	1	12
360.901	1	9
361.072	1	3
361.243	1	11
361.414	1	21
361.584	1	13
361.755	1	11
361.926	1	19
362.097	1	4
362.268	1	9
362.439	1	-1
362.610	1	6
362.781	1	9
362.952	1	10
363.123	1	15
363.293	1	1
363.464	1	29
363.635	1	19
363.806	1	10
363.977	1	10
364.148	1	12
364.319	1	13
364.490	1	12
364.661	1	17
364.832	1	16
365.002	1	19
365.173	1	26
365.344	1	22
365.515	1	22
365.686	1	14
365.857	1	26
366.028	1	21
366.199	1	20
366.370	1	21
366.540	1	20
366.711	1	29
366.882	1	15
367.053	1	27
367.224	1	21
367.395	1	13
367.566	1	19
367.737	1	11
367.908	1	15
368.078	1	28
368.249	1	12
368.420	1	21
368.591	1	32
368.762	1	11
368.933	1	15
369.104	1	12
369.274	1	17
369.445	1	5
369.616	1	8
369.787	1	11
369.958	1	10
370.129	1	23
370.300	1	10
370.471	1	14
370.641	1	19
370.812	1	18
370.983	1	11
371.154	1	10
371.325	1	17
371.496	1	6
371.667	1	13
371.837	1	-3
372.008	1	6
372.179	1	12
372.350	1	9
372.521	1	16
372.692	1	1
372.863	1	14
373.033	1	7
373.204	1	18
373.375	1	10
373.546	1	6
373.717	1	13
373.888	1	2
374.059	1	8
374.229	1	-1
374.400	1	13
374.571	1	12
374.742	1	14
374.913	1	1
375.084	1	-7
375.254	1	7
375.425	1	2
375.596	1	-1
375.767	1	12
375.938	1	18
376.109	1	0
376.279	1	3
376.450	1	6
376.621	1	18
376.792	1	0
376.963	1	3
377.134	1	4
377.304	1	12
377.475	1	15
377.646	1	12
377.817	1	11
377.988	1	7
378.159	1	6
378.329	1	15
378.500	1	-9
378.671	1	-6
378.842	1	-1
379.013	1	12
379.184	1	11
379.354	1	9
379.525	1	12
379.696	1	-1
379.867	1	7
380.038	1	5
380.209	1	16
380.379	1	1
380.550	1	10
380.721	1	20
380.892	1	8
381.063	1	8
381.233	1	7
381.404	1	5
381.575	1	9
381.746	1	12
381.917	1	11
382.087	1	18
382.258	1	19
382.429	1	12
382.600	1	26
382.771	1	11
382.941	1	13
383.112	1	24
383.283	1	27
383.454	1	20
383.625	1	14
383.795	1	27
383.966	1	26
384.137	1	30
384.308	1	28
384.479	1	36
384.649	1	30
384.820	1	24
384.991	1	41
385.162	1	32
385.333	1	39
385.503	1	32
385.674	1	36
385.845	1	36
386.016	1	30
386.187	1	44
386.357	1	41
386.528	1	47
386.699	1	46
386.870	1	55
387.041	1	29
387.211	1	27
387.382	1	30
387.553	1	43
387.724	1	39
387.894	1	39
388.065	1	33
388.236	1	58
388.407	1	43
388.578	1	40
388.748	1	49
388.919	1	27
389.090	1	41
389.261	1	9
389.431	1	41
389.602	1	31
389.773	1	31
389.944	1	35
390.114	1	39
390.285	1	27
390.456	1	39
390.627	1	19
390.798	1	37
390.968	1	30
391.139	1	20
391.310	1	42
391.481	1	28
391.651	1	37
391.822	1	37
391.993	1	41
392.164	1	21
392.334	1	39
392.505	1	23
392.676	1	20
392.847	1	30
393.017	1	13
393.188	1	40
393.359	1	28
393.530	1	36
393.700	1	31
393.871	1	19
394.042	1	31
394.213	1	36
394.383	1	37
394.554	1	31
394.725	1	27
394.896	1	23
395.066	1	45
395.237	1	43
395.408	1	35
395.579	1	39
395.749	1	38
395.920	1	40
396.091	1	39
396.262	1	40
396.432	1	26
396.603	1	25
396.774	1	29
396.945	1	35
397.115	1	36
397.286	1	39
397.457	1	37
397.627	1	38
397.798	1	28
397.969	1	30
398.140	1	36
398.310	1	49
398.481	1	29
398.652	1	40
398.823	1	48
398.993	1	27
399.164	1	40
399.335	1	35
399.505	1	27
399.676	1	34
399.847	1	32
400.018	1	32
400.188	1	34
400.359	1	36
400.530	1	23
400.700	1	36
400.871	1	16
401.042	1	25
401.213	1	31
401.383	1	34
401.554	1	22
401.725	1	25
401.895	1	33
402.066	1	22
402.237	1	27
402.408	1	27
402.578	1	25
402.749	1	14
402.920	1	7
403.090	1	14
403.261	1	21
403.432	1	24
403.603	1	29
403.773	1	20
403.944	1	29
404.115	1	15
404.285	1	26
404.456	1	24
404.627	1	28
404.797	1	42
404.968	1	20
405.139	1	17
405.310	1	6
405.480	1	26
405.651	1	18
405.822	1	34
405.992	1	23
406.163	1	26
406.334	1	35
406.504	1	14
406.675	1	32
406.846	1	20
407.016	1	18
407.187	1	21
407.358	1	13
407.528	1	26
407.699	1	24
407.870	1	29
408.041	1	17
408.211	1	13
408.382	1	24
408.553	1	19
408.723	1	23
408.894	1	7
409.065	1	25
409.235	1	8
409.406	1	24
409.577	1	24
409.747	1	14
409.918	1	18
410.089	1	2
410.259	1	14
410.430	1	26
410.601	1	16
410.771	1	27
410.942	1	26
411.113	1	22
411.283	1	12
411.454	1	5
411.625	1	15
411.795	1	21
411.966	1	7
412.137	1	16
412.307	1	17
412.478	1	23
412.649	1	18
412.819	1	14
412.990	1	25
413.161	1	12
413.331	1	6
413.502	1	19
413.672	1	12
413.843	1	15
414.014	1	16
414.184	1	17
414.355	1	12
414.526	1	6
414.696	1	8
414.867	1	18
415.038	1	12
415.208	1	9
415.379	1	16
415.550	1	9
415.720	1	19
415.891	1	19
416.062	1	12
416.232	1	10
416.403	1	12
416.573	1	13
416.744	1	16
416.915	1	10
417.085	1	15
417.256	1	7
417.427	1	6
417.597	1	-2
417.768	1	2
417.939	1	13
418.109	1	24
418.280	1	14
418.450	1	17
418.621	1	18
418.792	1	10
418.962	1	3
419.133	1	13
419.304	1	11
419.474	1	1
419.645	1	23
419.815	1	8
419.986	1	11
420.157	1	17
420.327	1	18
420.498	1	19
420.669	1	13
420.839	1	12
421.010	1	14
421.180	1	2
421.351	1	8
421.522	1	6
421.692	1	13
421.863	1	4
422.033	1	-2
422.204	1	-2
422.375	1	2
422.545	1	16
422.716	1	1
422.886	1	9
423.057	1	14
423.228	1	-2
423.398	1	5
423.569	1	13
423.740	1	0
423.910	1	1
424.081	1	8
424.251	1	0
424.422	1	12
424.593	1	24
424.763	1	10
424.934	1	-1
425.104	1	6
425.275	1	-2
425.445	1	7
425.616	1	6
425.787	1	-3
425.957	1	23
426.128	1	7
426.298	1	9
426.469	1	9
426.640	1	9
426.810	1	14
426.981	1	-4
427.151	1	1
427.322	1	10
427.493	1	7
427.663	1	5
427.834	1	-2
428.004	1	12
428.175	1	-2
428.345	1	19
428.516	1	4
428.687	1	8
428.857	1	5
429.028	1	5
429.198	1	-5
429.369	1	10
429.540	1	16
429.710	1	4
429.881	1	14
430.051	1	7
430.222	1	4
430.392	1	11
430.563	1	17
430.734	1	6
430.904	1	5
431.075	1	16
431.245	1	9
431.416	1	8
431.586	1	3
431.757	1	12
431.927	1	5
432.098	1	4
432.269	1	7
432.439	1	-4
432.610	1	-9
432.780	1	-4
432.951	1	8
433.121	1	8
433.292	1	8
433.462	1	14
433.633	1	2
433.804	1	-4
433.974	1	-7
434.145	1	4
434.315	1	14
434.486	1	18
434.656	1	6
434.827	1	1
434.997	1	15
435.168	1	12
435.339	1	11
435.509	1	2
435.680	1	-3
435.850	1	3
436.021	1	10
436.191	1	-7
436.362	1	3
436.532	1	7
436.703	1	14
436.873	1	-9
437.044	1	5
437.214	1	5
437.385	1	-2
437.556	1	-4
437.726	1	11
437.897	1	10
438.067	1	4
438.238	1	-5
438.408	1	6
438.579	1	12
438.749	1	10
438.920	1	1
439.090	1	6
439.261	1	0
439.431	1	4
439.602	1	18
439.772	1	9
439.943	1	3
440.113	1	7
440.284	1	16
440.455	1	-7
440.625	1	4
440.796	1	9
440.966	1	5
441.137	1	-7
441.307	1	5
441.478	1	13
441.648	1	-3
441.819	1	5
441.989	1	1
442.160	1	1
442.330	1	9
442.501	1	-5
442.671	1	10
442.842	1	11
443.012	1	6
443.183	1	-2
443.353	1	-2
443.524	1	2
443.694	1	4
443.865	1	-1
444.035	1	6
444.206	1	7
444.376	1	10
444.547	1	-3
444.717	1	10
444.888	1	-3
445.058	1	8
445.229	1	1
445.399	1	7
445.570	1	5
445.740	1	10
445.911	1	5
446.081	1	7
446.252	1	-5
446.422	1	-2
446.593	1	7
446.763	1	4
446.934	1	5
447.104	1	-6
447.275	1	-1
447.445	1	6
447.616	1	4
447.786	1	7
447.957	1	6
448.127	1	5
448.298	1	5
448.468	1	15
448.639	1	8
448.809	1	6
448.979	1	1
449.150	1	6
449.320	1	9
449.491	1	-3
449.661	1	-4
449.832	1	-5
450.002	1	6
450.173	1	-11
450.343	1	2
450.514	1	-2
450.684	1	0
450.855	1	-5
451.025	1	0
451.196	1	10
451.366	1	10
451.537	1	-2
451.707	1	-2
451.878	1	1
452.048	1	5
452.218	1	-2
452.389	1	2
452.559	1	2
452.730	1	3
452.900	1	2
453.071	1	9
453.241	1	-3
453.412	1	6
453.582	1	5
453.753	1	-4
453.923	1	2
454.093	1	1
454.264	1	0
454.434	1	5
454.605	1	-1
454.775	1	8
454.946	1	8
455.116	1	0
455.287	1	9
455.457	1	-1
455.628	1	-2
455.798	1	-2
455.968	1	8
456.139	1	7
456.309	1	-3
456.480	1	-8
456.650	1	6
456.821	1	1
456.991	1	10
457.161	1	6
457.332	1	8
457.502	1	3
457.673	1	-3
457.843	1	3
458.014	1	4
458.184	1	2
458.355	1	14
458.525	1	8
458.695	1	-2
458.866	1	-8
459.036	1	10
459.207	1	4
459.377	1	0
459.548	1	0
459.718	1	-3
459.888	1	14
460.059	1	9
460.229	1	5
460.400	1	7
460.570	1	-9
460.740	1	4
460.911	1	17
461.081	1	4
461.252	1	6
461.422	1	10
461.593	1	0
461.763	1	-1
461.933	1	-8
462.104	1	2
462.274	1	7
462.445	1	-6
462.615	1	-5
462.785	1	-8
462.956	1	-3
463.126	1	0
463.297	1	2
463.467	1	-6
463.638	1	6
463.808	1	6
463.978	1	5
464.149	1	-4
464.319	1	0
464.490	1	6
464.660	1	0
464.830	1	1
465.001	1	5
465.171	1	10
465.342	1	5
465.512	1	8
465.682	1	2
465.853	1	-4
466.023	1	-4
466.194	1	0
466.364	1	7
466.534	1	-1
466.705	1	0
466.875	1	1
467.045	1	4
467.216	1	-3
467.386	1	-3
467.557	1	4
467.727	1	5
467.897	1	7
468.068	1	6
468.238	1	-6
468.409	1	-2
468.579	1	11
468.749	1	3
468.920	1	-5
469.090	1	3
469.260	1	5
469.431	1	16
469.601	1	10
469.772	1	-16
469.942	1	0
470.112	1	2
470.283	1	1
470.453	1	5
470.623	1	-2
470.794	1	4
470.964	1	-2
471.135	1	-5
471.305	1	3
471.475	1	6
471.646	1	7
471.816	1	-1
471.986	1	3
472.157	1	-1
472.327	1	2
472.497	1	1
472.668	1	-7
472.838	1	3
473.009	1	8
473.179	1	0
473.349	1	5
473.520	1	1
473.690	1	11
473.860	1	0
474.031	1	2
474.201	1	-2
474.371	1	9
474.542	1	-4
474.712	1	5
474.882	1	3
475.053	1	-7
475.223	1	3
475.394	1	9
475.564	1	14
475.734	1	-4
475.905	1	10
476.075	1	6
476.245	1	0
476.416	1	-3
476.586	1	6
476.756	1	6
476.927	1	6
477.097	1	1
477.267	1	4
477.438	1	-4
477.608	1	2
477.778	1	6
477.949	1	5
478.119	1	11
478.289	1	0
478.460	1	0
478.630	1	-5
478.800	1	-9
478.971	1	3
479.141	1	12
479.311	1	5
479.482	1	-12
479.652	1	5
479.822	1	-1
479.993	1	8
480.163	1	-10
480.333	1	4
480.504	1	0
480.674	1	10
480.844	1	9
481.015	1	0
481.185	1	3
481.355	1	7
481.525	1	-3
481.696	1	6
481.866	1	-5
482.036	1	-7
482.207	1	3
482.377	1	-1
482.547	1	1
482.718	1	7
482.888	1	2
483.058	1	11
483.229	1	2
483.399	1	0
483.569	1	4
483.740	1	-17
483.910	1	9
484.080	1	-10
484.250	1	5
484.421	1	1
484.591	1	19
484.761	1	-2
484.932	1	7
485.102	1	5
485.272	1	9
485.443	1	4
485.613	1	-5
485.783	1	10
485.953	1	0
486.124	1	11
486.294	1	1
486.464	1	-8
486.635	1	2
486.805	1	23
486.975	1	-3
487.146	1	4
487.316	1	1
487.486	1	1
487.656	1	0
487.827	1	4
487.997	1	4
488.167	1	4
488.338	1	13
488.508	1	7
488.678	1	5
488.848	1	7
489.019	1	-7
489.189	1	1
489.359	1	2
489.529	1	-1
489.700	1	9
489.870	1	-4
490.040	1	5
490.211	1	18
490.381	1	0
490.551	1	-1
490.721	1	8
490.892	1	3
491.062	1	11
491.232	1	10
491.402	1	1
491.573	1	6
491.743	1	-5
491.913	1	2
492.084	1	6
492.254	1	2
492.424	1	5
492.594	1	0
492.765	1	5
492.935	1	2
493.105	1	15
493.275	1	13
493.446	1	10
493.616	1	10
493.786	1	6
493.956	1	1
494.127	1	3
494.297	1	8
494.467	1	6
494.637	1	2
494.808	1	18
494.978	1	8
495.148	1	12
495.318	1	15
495.489	1	2
495.659	1	3
495.829	1	7
495.999	1	-2
496.170	1	-1
496.340	1	7
496.510	1	7
496.680	1	6
496.851	1	4
497.021	1	0
497.191	1	4
497.361	1	3
497.532	1	8
497.702	1	8
497.872	1	10
498.042	1	10
498.213	1	11
498.383	1	5
498.553	1	8
498.723	1	6
498.894	1	8
499.064	1	7
499.234	1	-3
499.404	1	18
499.574	1	5
499.745	1	10
499.915	1	9
500.085	1	12
500.255	1	9
500.426	1	7
500.596	1	1
500.766	1	11
500.936	1	9
501.106	1	2
501.277	1	7
501.447	1	8
501.617	1	9
501.787	1	-1
501.958	1	-4
502.128	1	3
502.298	1	15
502.468	1	13
502.638	1	13
502.809	1	14
502.979	1	4
503.149	1	3
503.319	1	11
503.489	1	9
503.660	1	5
503.830	1	15
504.000	1	6
504.170	1	8
504.340	1	8
504.511	1	3
504.681	1	14
504.851	1	12
505.021	1	12
505.192	1	12
505.362	1	15
505.532	1	12
505.702	1	18
505.872	1	1
506.043	1	15
506.213	1	12
506.383	1	7
506.553	1	17
506.723	1	9
506.893	1	21
507.064	1	4
507.234	1	15
507.404	1	13
507.574	1	13
507.744	1	0
507.915	1	12
508.085	1	13
508.255	1	12
508.425	1	22
508.595	1	19
508.766	1	8
508.936	1	16
509.106	1	0
509.276	1	11
509.446	1	4
509.616	1	11
509.787	1	8
509.957	1	6
510.127	1	16
510.297	1	13
510.467	1	7
510.638	1	6
510.808	1	9
510.978	1	-4
511.148	1	22
511.318	1	13
511.488	1	9
511.659	1	17
511.829	1	13
511.999	1	26
512.169	1	18
512.339	1	14
512.509	1	18
512.680	1	14
512.850	1	14
513.020	1	13
513.190	1	-3
513.360	1	30
513.530	1	13
513.700	1	22
513.871	1	16
514.041	1	12
514.211	1	5
514.381	1	6
514.551	1	12
514.721	1	12
514.892	1	13
515.062	1	10
515.232	1	13
515.402	1	10
515.572	1	4
515.742	1	24
515.912	1	19
516.083	1	11
516.253	1	22
516.423	1	23
516.593	1	10
516.763	1	6
516.933	1	16
517.104	1	15
517.274	1	10
517.444	1	19
517.614	1	10
517.784	1	4
517.954	1	3
518.124	1	20
518.294	1	19
518.465	1	14
518.635	1	8
518.805	1	20
518.975	1	16
519.145	1	23
519.315	1	15
519.485	1	15
519.656	1	10
519.826	1	15
519.996	1	20
520.166	1	18
520.336	1	14
520.506	1	12
520.676	1	8
520.846	1	12
521.017	1	8
521.187	1	21
521.357	1	19
521.527	1	20
521.697	1	21
521.867	1	16
522.037	1	22
522.207	1	13
522.377	1	19
522.548	1	3
522.718	1	6
522.888	1	11
523.058	1	28
523.228	1	30
523.398	1	25
523.568	1	20
523.738	1	16
523.909	1	23
524.079	1	21
524.249	1	10
524.419	1	18
524.589	1	24
524.759	1	14
524.929	1	9
525.099	1	17
525.269	1	26
525.439	1	13
525.610	1	12
525.780	1	31
525.950	1	7
526.120	1	12
526.290	1	9
526.460	1	25
526.630	1	25
526.800	1	23
526.970	1	9
527.140	1	2
527.311	1	21
527.481	1	22
527.651	1	20
527.821	1	18
527.991	1	16
528.161	1	12
528.331	1	19
528.501	1	11
528.671	1	22
528.841	1	11
529.011	1	10
529.181	1	15
529.352	1	24
529.522	1	18
529.692	1	22
529.862	1	19
530.032	1	6
530.202	1	22
530.372	1	17
530.542	1	18
530.712	1	36
530.882	1	11
531.052	1	25
531.222	1	9
531.392	1	15
531.563	1	20
531.733	1	27
531.903	1	25
532.073	1	12
532.243	1	10
532.413	1	17
532.583	1	4
532.753	1	9
532.923	1	17
533.093	1	21
533.263	1	17
533.433	1	20
533.603	1	23
533.773	1	18
533.943	1	23
534.113	1	20
534.284	1	28
534.454	1	12
534.624	1	23
534.794	1	11
534.964	1	3
535.134	1	12
535.304	1	27
535.474	1	21
535.644	1	29
535.814	1	25
535.984	1	17
536.154	1	14
536.324	1	17
536.494	1	32
536.664	1	25
536.834	1	31
537.004	1	33
537.174	1	20
537.344	1	25
537.514	1	17
537.685	1	19
537.855	1	16
538.025	1	15
538.195	1	21
538.365	1	17
538.535	1	24
538.705	1	13
538.875	1	22
539.045	1	25
539.215	1	8
539.385	1	9
539.555	1	10
539.725	1	17
539.895	1	16
540.065	1	16
540.235	1	13
540.405	1	20
540.575	1	14
540.745	1	20
540.915	1	18
541.085	1	4
541.255	1	7
541.425	1	12
541.595	1	17
541.765	1	15
541.935	1	24
542.105	1	21
542.275	1	16
542.445	1	20
542.615	1	13
542.785	1	18
542.955	1	18
543.125	1	9
543.295	1	15
543.465	1	23
543.635	1	17
543.805	1	18
543.975	1	14
544.145	1	17
544.315	1	11
544.485	1	18
544.655	1	16
544.825	1	24
544.995	1	20
545.165	1	14
545.335	1	20
545.505	1	15
545.675	1	19
545.845	1	5
546.015	1	18
546.185	1	11
546.355	1	20
546.525	1	26
546.695	1	10
546.865	1	17
547.035	1	23
547.205	1	8
547.375	1	14
547.545	1	20
547.715	1	23
547.885	1	7
548.055	1	8
548.225	1	8
548.395	1	14
548.565	1	16
548.735	1	18
548.905	1	4
549.075	1	13
549.245	1	19
549.415	1	9
549.585	1	6
549.755	1	11
549.925	1	14
550.095	1	17
550.265	1	7
550.435	1	15
550.605	1	18
550.775	1	2
550.945	1	24
551.115	1	6
551.285	1	17
551.455	1	15
551.625	1	9
551.795	1	11
551.965	1	6
552.135	1	11
552.305	1	26
552.475	1	27
552.645	1	14
552.815	1	15
552.985	1	21
553.155	1	15
553.325	1	26
553.495	1	13
553.665	1	9
553.835	1	10
554.004	1	9
554.174	1	16
554.344	1	11
554.514	1	19
554.684	1	15
554.854	1	23
555.024	1	14
555.194	1	19
555.364	1	23
555.534	1	14
555.704	1	14
555.874	1	-3
556.044	1	15
556.214	1	16
556.384	1	17
556.554	1	9
556.724	1	8
556.894	1	26
557.064	1	20
557.234	1	10
557.404	1	5
557.573	1	16
557.743	1	18
557.913	1	10
558.083	1	0
558.253	1	3
558.423	1	-3
558.593	1	6
558.763	1	12
558.933	1	21
559.103	1	15
559.273	1	15
559.443	1	19
559.613	1	13
559.783	1	16
559.953	1	6
560.122	1	3
560.292	1	15
560.462	1	19
560.632	1	7
560.802	1	17
560.972	1	23
561.142	1	14
561.312	1	8
561.482	1	15
561.652	1	11
561.822	1	1
561.992	1	19
562.162	1	6
562.331	1	4
562.501	1	4
562.671	1	12
562.841	1	4
563.011	1	8
563.181	1	11
563.351	1	5
563.521	1	8
563.691	1	12
563.861	1	3
564.031	1	9
564.201	1	8
564.370	1	20
564.540	1	22
564.710	1	-2
564.880	1	16
565.050	1	7
565.220	1	5
565.390	1	-1
565.560	1	13
565.730	1	16
565.900	1	8
566.069	1	18
566.239	1	2
566.409	1	6
566.579	1	6
566.749	1	11
566.919	1	15
567.089	1	13
567.259	1	8
567.429	1	12
567.599	1	2
567.768	1	17
567.938	1	10
568.108	1	9
568.278	1	-1
568.448	1	0
568.618	1	10
568.788	1	9
568.958	1	11
569.128	1	10
569.297	1	19
569.467	1	14
569.637	1	9
569.807	1	9
569.977	1	21
570.147	1	13
570.317	1	19
570.487	1	8
570.656	1	8
570.826	1	17
570.996	1	4
571.166	1	1
571.336	1	7
571.506	1	7
571.676	1	9
571.846	1	12
572.015	1	-1
572.185	1	5
572.355	1	22
572.525	1	6
572.695	1	9
572.865	1	9
573.035	1	8
573.205	1	17
573.374	1	6
573.544	1	-4
573.714	1	13
573.884	1	3
574.054	1	11
574.224	1	3
574.394	1	-4
574.563	1	9
574.733	1	5
574.903	1	10
575.073	1	4
575.243	1	-7
575.413	1	8
575.583	1	9
575.752	1	6
575.922	1	11
576.092	1	13
576.262	1	1
576.432	1	-1
576.602	1	10
576.772	1	8
576.941	1	6
577.111	1	7
577.281	1	10
577.451	1	-1
577.621	1	2
577.791	1	3
577.960	1	4
578.130	1	-2
578.300	1	5
578.470	1	14
578.640	1	-9
578.810	1	14
578.979	1	3
579.149	1	5
579.319	1	13
579.489	1	6
579.659	1	13
579.829	1	9
579.998	1	-3
580.168	1	4
580.338	1	-7
580.508	1	5
580.678	1	1
580.848	1	7
581.017	1	14
581.187	1	18
581.357	1	9
581.527	1	11
581.697	1	-7
581.867	1	0
582.036	1	12
582.206	1	-4
582.376	1	10
582.546	1	12
582.716	1	13
582.885	1	11
583.055	1	6
583.225	1	3
583.395	1	1
583.565	1	1
583.735	1	4
583.904	1	3
584.074	1	3
584.244	1	17
584.414	1	8
584.584	1	3
584.753	1	6
584.923	1	3
585.093	1	2
585.263	1	9
585.433	1	0
585.602	1	17
585.772	1	0
585.942	1	4
586.112	1	17
586.282	1	9
586.451	1	8
586.621	1	2
586.791	1	10
586.961	1	10
587.131	1	3
587.300	1	-2
587.470	1	6
587.640	1	9
587.810	1	7
587.980	1	0
588.149	1	8
588.319	1	4
588.489	1	4
588.659	1	2
588.829	1	5
588.998	1	-5
589.168	1	11
589.338	1	-1
589.508	1	5
589.677	1	9
589.847	1	10
590.017	1	-2
590.187	1	5
590.357	1	1
590.526	1	9
590.696	1	-2
590.866	1	4
591.036	1	6
591.205	1	18
591.375	1	0
591.545	1	7
591.715	1	-7
591.885	1	9
592.054	1	-3
592.224	1	7
592.394	1	15
592.564	1	-2
592.733	1	-2
592.903	1	5
593.073	1	13
593.243	1	8
593.412	1	6
593.582	1	21
593.752	1	3
593.922	1	2
594.091	1	14
594.261	1	9
594.431	1	5
594.601	1	-5
594.771	1	9
594.940	1	4
595.110	1	6
595.280	1	1
595.450	1	0
595.619	1	-2
595.789	1	8
595.959	1	5
596.129	1	-1
596.298	1	15
596.468	1	4
596.638	1	2
596.808	1	15
596.977	1	4
597.147	1	9
597.317	1	5
597.487	1	5
597.656	1	3
597.826	1	2
597.996	1	4
598.166	1	-2
598.335	1	8
598.505	1	8
598.675	1	7
598.844	1	12
599.014	1	1
599.184	1	6
599.354	1	1
599.523	1	3
599.693	1	11
599.863	1	11
600.033	1	8
600.202	1	1
600.372	1	5
600.542	1	2
600.712	1	11
600.881	1	5
601.051	1	4
601.221	1	8
601.390	1	-1
601.560	1	4
601.730	1	6
601.900	1	7
602.069	1	2
602.239	1	4
602.409	1	6
602.578	1	5
602.748	1	-5
602.918	1	6
603.088	1	4
603.257	1	7
603.427	1	0
603.597	1	19
603.767	1	-8
603.936	1	11
604.106	1	6
604.276	1	1
604.445	1	8
604.615	1	3
604.785	1	11
604.954	1	5
605.124	1	-6
605.294	1	8
605.464	1	3
605.633	1	11
605.803	1	4
605.973	1	2
606.142	1	11
606.312	1	1
606.482	1	4
606.652	1	-7
606.821	1	13
606.991	1	-2
607.161	1	3
607.330	1	11
607.500	1	0
607.670	1	-3
607.839	1	16
608.009	1	-2
608.179	1	5
608.348	1	1
608.518	1	-1
608.688	1	14
608.858	1	9
609.027	1	8
609.197	1	-3
609.367	1	-1
609.536	1	1
609.706	1	1
609.876	1	-1
610.045	1	3
610.215	1	2
610.385	1	0
610.554	1	4
610.724	1	6
610.894	1	3
611.063	1	13
611.233	1	-5
611.403	1	9
611.572	1	-5
611.742	1	0
611.912	1	4
612.081	1	-7
612.251	1	2
612.421	1	24
612.590	1	7
612.760	1	1
612.930	1	3
613.099	1	-13
613.269	1	6
613.439	1	-1
613.608	1	2
613.778	1	7
613.948	1	7
614.117	1	17
614.287	1	7
614.457	1	1
614.626	1	-2
614.796	1	5
614.966	1	7
615.135	1	-2
615.305	1	-2
615.475	1	9
615.644	1	-4
615.814	1	5
615.984	1	13
616.153	1	-1
616.323	1	10
616.493	1	7
616.662	1	-5
616.832	1	2
617.002	1	2
617.171	1	-14
617.341	1	4
617.511	1	7
617.680	1	10
617.850	1	-1
618.019	1	7
618.189	1	-2
618.359	1	14
618.528	1	0
618.698	1	4
618.868	1	6
619.037	1	8
619.207	1	-9
619.377	1	-9
619.546	1	4
619.716	1	-3
619.885	1	7
620.055	1	4
620.225	1	11
620.394	1	4
620.564	1	-9
620.734	1	14
620.903	1	8
621.073	1	-13
621.242	1	-11
621.412	1	13
621.582	1	7
621.751	1	1
621.921	1	6
622.091	1	-2
622.260	1	-5
622.430	1	3
622.599	1	3
622.769	1	9
622.939	1	4
623.108	1	1
623.278	1	-1
623.448	1	5
623.617	1	15
623.787	1	1
623.956	1	4
624.126	1	3
624.296	1	-4
624.465	1	5
624.635	1	4
624.804	1	-7
624.974	1	-8
625.144	1	5
625.313	1	4
625.483	1	11
625.652	1	2
625.822	1	8
625.992	1	2
626.161	1	11
626.331	1	5
626.501	1	5
626.670	1	0
626.840	1	7
627.009	1	-7
627.179	1	5
627.348	1	1
627.518	1	11
627.688	1	4
627.857	1	12
628.027	1	4
628.196	1	4
628.366	1	6
628.536	1	-2
628.705	1	-1
628.875	1	7
629.044	1	11
629.214	1	4
629.384	1	-8
629.553	1	8
629.723	1	5
629.892	1	4
630.062	1	4
630.232	1	15
630.401	1	-13
630.571	1	2
630.740	1	13
630.910	1	5
631.079	1	10
631.249	1	-7
631.419	1	4
631.588	1	1
631.758	1	10
631.927	1	1
632.097	1	9
632.266	1	-3
632.436	1	1
632.606	1	12
632.775	1	4
632.945	1	1
633.114	1	15
633.284	1	-8
633.453	1	1
633.623	1	2
633.793	1	3
633.962	1	9
634.132	1	13
634.301	1	-7
634.471	1	-3
634.640	1	12
634.810	1	-6
634.979	1	2
635.149	1	3
635.319	1	-4
635.488	1	4
635.658	1	6
635.827	1	-4
635.997	1	7
636.166	1	-3
636.336	1	7
636.505	1	9
636.675	1	3
636.845	1	3
637.014	1	-7
637.184	1	1
637.353	1	3
637.523	1	1
637.692	1	6
637.862	1	-5
638.031	1	10
638.201	1	4
638.370	1	9
638.540	1	0
638.710	1	1
638.879	1	1
639.049	1	13
639.218	1	10
639.388	1	2
639.557	1	0
639.727	1	0
639.896	1	3
640.066	1	2
640.235	1	7
640.405	1	2
640.574	1	-5
640.744	1	1
640.914	1	-6
641.083	1	3
641.253	1	4
641.422	1	-5
641.592	1	-5
641.761	1	6
641.931	1	14
642.100	1	-6
642.270	1	0
642.439	1	-9
642.609	1	2
642.778	1	1
642.948	1	-7
643.117	1	5
643.287	1	4
643.456	1	4
643.626	1	-1
643.795	1	2
643.965	1	4
644.134	1	2
644.304	1	2
644.473	1	14
644.643	1	9
644.812	1	13
644.982	1	8
645.151	1	1
645.321	1	12
645.490	1	8
645.660	1	3
645.829	1	-7
645.999	1	2
646.168	1	0
646.338	1	12
646.507	1	5
646.677	1	9
646.846	1	14
647.016	1	1
647.185	1	-8
647.355	1	0
647.524	1	5
647.694	1	0
647.863	1	-1
648.033	1	-14
648.202	1	4
648.372	1	3
648.541	1	4
648.711	1	8
648.880	1	4
649.050	1	-2
649.219	1	5
649.389	1	3
649.558	1	-6
649.728	1	2
649.897	1	0
650.067	1	8
650.236	1	13
650.406	1	6
650.575	1	-10
650.745	1	-6
650.914	1	-4
651.084	1	-7
651.253	1	6
651.423	1	10
651.592	1	4
651.762	1	1
651.931	1	7
652.101	1	2
652.270	1	2
652.440	1	4
652.609	1	4
652.778	1	-4
652.948	1	-5
653.117	1	13
653.287	1	11
653.456	1	11
653.626	1	7
653.795	1	1
653.965	1	9
654.134	1	8
654.304	1	11
654.473	1	10
654.643	1	6
654.812	1	2
654.982	1	-11
655.151	1	-3
655.320	1	-3
655.490	1	6
655.659	1	1
655.829	1	-1
655.998	1	6
656.168	1	2
656.337	1	4
656.507	1	2
656.676	1	-1
656.846	1	-1
657.015	1	3
657.184	1	12
657.354	1	2
657.523	1	-11
657.693	1	-2
657.862	1	9
658.032	1	9
658.201	1	-1
658.371	1	-8
658.540	1	4
658.709	1	1
658.879	1	7
659.048	1	7
659.218	1	0
659.387	1	4
659.557	1	3
659.726	1	0
659.895	1	-4
660.065	1	2
660.234	1	1
660.404	1	9
660.573	1	-5
660.743	1	1
660.912	1	2
661.081	1	3
661.251	1	9
661.420	1	-2
661.590	1	2
661.759	1	3
661.929	1	-1
662.098	1	-9
662.267	1	13
662.437	1	5
662.606	1	11
662.776	1	2
662.945	1	8
663.115	1	-10
663.284	1	2
663.453	1	-4
663.623	1	11
663.792	1	4
663.962	1	-8
664.131	1	-1
664.300	1	7
664.470	1	3
664.639	1	2
664.809	1	-2
664.978	1	-3
665.148	1	-1
665.317	1	-2
665.486	1	2
665.656	1	0
665.825	1	0
665.995	1	12
666.164	1	2
666.333	1	13
666.503	1	-5
666.672	1	-10
666.842	1	4
667.011	1	10
667.180	1	-3
667.350	1	9
667.519	1	3
667.689	1	8
667.858	1	14
668.027	1	-12
668.197	1	9
668.366	1	8
668.536	1	3
668.705	1	9
668.874	1	-1
669.044	1	-2
669.213	1	6
669.382	1	-11
669.552	1	5
669.721	1	-9
669.891	1	6
670.060	1	5
670.229	1	3
670.399	1	7
670.568	1	5
670.738	1	0
670.907	1	-11
671.076	1	-1
671.246	1	6
671.415	1	5
671.584	1	4
671.754	1	-9
671.923	1	-9
672.093	1	4
672.262	1	8
672.431	1	0
672.601	1	-5
672.770	1	7
672.939	1	-2
673.109	1	0
673.278	1	-1
673.448	1	5
673.617	1	6
673.786	1	-3
