325.333	1	0
325.504	1	2
325.675	1	1
325.846	1	-1
326.017	1	-2
326.188	1	19
326.359	1	4
326.531	1	-5
326.702	1	7
326.873	1	2
327.044	1	-7
327.215	1	-3
327.386	1	4
327.557	1	4
327.728	1	-8
327.899	1	-8
328.070	1	0
328.241	1	-4
328.412	1	6
328.583	1	-7
328.754	1	-8
328.926	1	0
329.097	1	5
329.268	1	-5
329.439	1	7
329.610	1	-5
329.781	1	1
329.952	1	7
330.123	1	0
330.294	1	-1
330.465	1	6
330.636	1	5
330.807	1	-1
330.978	1	3
331.149	1	10
331.320	1	5
331.492	1	-3
331.663	1	-9
331.834	1	9
332.005	1	6
332.176	1	-2
332.347	1	2
332.518	1	13
332.689	1	9
332.860	1	-3
333.031	1	3
333.202	1	0
333.373	1	-5
333.544	1	-10
333.715	1	1
333.886	1	0
334.057	1	-11
334.228	1	-8
334.399	1	-10
334.570	1	2
334.741	1	-8
334.912	1	-10
335.084	1	-6
335.255	1	0
335.426	1	1
335.597	1	-7
335.768	1	2
335.939	1	-6
336.110	1	-4
336.281	1	-10
336.452	1	-6
336.623	1	6
336.794	1	-9
336.965	1	2
337.136	1	-1
337.307	1	7
337.478	1	2
337.649	1	7
337.820	1	13
337.991	1	8
338.162	1	0
338.333	1	1
338.504	1	3
338.675	1	9
338.846	1	0
339.017	1	-7
339.188	1	2
339.359	1	-1
339.530	1	-9
339.701	1	-5
339.872	1	3
340.043	1	-1
340.214	1	-2
340.385	1	-4
340.556	1	10
340.727	1	1
340.898	1	-1
341.069	1	-11
341.240	1	1
341.411	1	-1
341.582	1	5
341.753	1	0
341.924	1	1
342.095	1	3
342.266	1	-8
342.437	1	-2
342.608	1	1
342.779	1	-2
342.950	1	-13
343.121	1	7
343.292	1	-4
343.463	1	-3
343.634	1	-10
343.805	1	8
343.976	1	0
344.147	1	-13
344.318	1	4
344.489	1	-6
344.660	1	12
344.831	1	-4
345.002	1	5
345.173	1	-6
345.344	1	-2
345.515	1	-1
345.686	1	8
345.857	1	-6
346.028	1	-5
346.199	1	-3
346.370	1	7
346.541	1	-11
346.712	1	7
346.883	1	-2
347.054	1	-1
347.225	1	-6
347.396	1	-3
347.567	1	-4
347.738	1	2
347.909	1	3
348.080	1	-6
348.251	1	2
348.422	1	-1
348.593	1	-4
348.764	1	-3
348.935	1	13
349.106	1	-1
349.277	1	-15
349.448	1	-3
349.619	1	2
349.790	1	-5
349.961	1	1
350.132	1	-1
350.303	1	-12
350.474	1	4
350.645	1	6
350.816	1	-10
350.987	1	-2
351.157	1	1
351.328	1	-1
351.499	1	-5
351.670	1	-2
351.841	1	4
352.012	1	-12
352.183	1	-2
352.354	1	6
352.525	1	8
352.696	1	-7
352.867	1	0
353.038	1	14
353.209	1	2
353.380	1	2
353.551	1	9
353.722	1	4
353.893	1	1
354.064	1	-1
354.235	1	-7
354.406	1	-7
354.576	1	-3
354.747	1	-5
354.918	1	-5
355.089	1	-1
355.260	1	-3
355.431	1	4
355.602	1	8
355.773	1	-5
355.944	1	2
356.115	1	-13
356.286	1	4
356.457	1	-8
356.628	1	7
356.799	1	5
356.970	1	-8
357.141	1	-23
357.311	1	-7
357.482	1	-4
357.653	1	-5
357.824	1	-4
357.995	1	9
358.166	1	-8
358.337	1	0
358.508	1	-2
358.679	1	11
358.850	1	0
359.021	1	-11
359.192	1	5
359.363	1	0
359.533	1	-8
359.704	1	-1
359.875	1	3
360.046	1	-1
360.217	1	9
360.388	1	-3
360.559	1	1
360.730	1	-1
360.901	1	-1
361.072	1	-1
361.243	1	4
361.414	1	6
361.584	1	12
361.755	1	8
361.926	1	16
362.097	1	1
362.268	1	8
362.439	1	-2
362.610	1	-2
362.781	1	3
362.952	1	8
363.123	1	6
363.293	1	-8
363.464	1	12
363.635	1	-2
363.806	1	6
363.977	1	-2
364.148	1	-5
364.319	1	-1
364.490	1	-3
364.661	1	8
364.832	1	-2
365.002	1	6
365.173	1	8
365.344	1	6
365.515	1	0
365.686	1	-1
365.857	1	12
366.028	1	5
366.199	1	-6
366.370	1	12
366.540	1	5
366.711	1	8
366.882	1	0
367.053	1	3
367.224	1	2
367.395	1	5
367.566	1	5
367.737	1	4
367.908	1	3
368.078	1	23
368.249	1	4
368.420	1	6
368.591	1	6
368.762	1	-1
368.933	1	6
369.104	1	-1
369.274	1	3
369.445	1	0
369.616	1	-10
369.787	1	6
369.958	1	7
370.129	1	7
370.300	1	-7
370.471	1	5
370.641	1	-7
370.812	1	10
370.983	1	2
371.154	1	1
371.325	1	0
371.496	1	-8
371.667	1	6
371.837	1	-3
372.008	1	5
372.179	1	-4
372.350	1	3
372.521	1	-2
372.692	1	-1
372.863	1	1
373.033	1	3
373.204	1	5
373.375	1	-2
373.546	1	-5
373.717	1	7
373.888	1	2
374.059	1	11
374.229	1	-10
374.400	1	6
374.571	1	0
374.742	1	6
374.913	1	-6
375.084	1	-7
375.254	1	-1
375.425	1	7
375.596	1	3
375.767	1	6
375.938	1	2
376.109	1	-2
376.279	1	-5
376.450	1	5
376.621	1	17
376.792	1	-2
376.963	1	8
377.134	1	-9
377.304	1	4
377.475	1	9
377.646	1	1
377.817	1	5
377.988	1	-1
378.159	1	0
378.329	1	4
378.500	1	-7
378.671	1	-11
378.842	1	-7
379.013	1	-3
379.184	1	-6
379.354	1	0
379.525	1	10
379.696	1	-7
379.867	1	11
380.038	1	9
380.209	1	14
380.379	1	-2
380.550	1	-1
380.721	1	9
380.892	1	1
381.063	1	-4
381.233	1	13
381.404	1	1
381.575	1	1
381.746	1	14
381.917	1	1
382.087	1	1
382.258	1	8
382.429	1	12
382.600	1	6
382.771	1	8
382.941	1	3
383.112	1	12
383.283	1	-3
383.454	1	0
383.625	1	3
383.795	1	18
383.966	1	6
384.137	1	4
384.308	1	13
384.479	1	13
384.649	1	5
384.820	1	-2
384.991	1	-1
385.162	1	7
385.333	1	13
385.503	1	9
385.674	1	7
385.845	1	12
386.016	1	16
386.187	1	13
386.357	1	10
386.528	1	6
386.699	1	14
386.870	1	18
387.041	1	3
387.211	1	13
387.382	1	10
387.553	1	20
387.724	1	7
387.894	1	16
388.065	1	17
388.236	1	12
388.407	1	12
388.578	1	15
388.748	1	16
388.919	1	12
389.090	1	22
389.261	1	3
389.431	1	16
389.602	1	8
389.773	1	9
389.944	1	9
390.114	1	9
390.285	1	3
390.456	1	8
390.627	1	6
390.798	1	5
390.968	1	-5
391.139	1	-2
391.310	1	13
391.481	1	5
391.651	1	15
391.822	1	13
391.993	1	10
392.164	1	3
392.334	1	23
392.505	1	4
392.676	1	5
392.847	1	14
393.017	1	1
393.188	1	7
393.359	1	6
393.530	1	9
393.700	1	19
393.871	1	2
394.042	1	15
394.213	1	8
394.383	1	7
394.554	1	6
394.725	1	4
394.896	1	0
395.066	1	10
395.237	1	14
395.408	1	7
395.579	1	11
395.749	1	12
395.920	1	16
396.091	1	16
396.262	1	8
396.432	1	-2
396.603	1	11
396.774	1	3
396.945	1	20
397.115	1	12
397.286	1	15
397.457	1	11
397.627	1	3
397.798	1	6
397.969	1	18
398.140	1	3
398.310	1	14
398.481	1	-6
398.652	1	14
398.823	1	26
398.993	1	10
399.164	1	21
399.335	1	16
399.505	1	11
399.676	1	15
399.847	1	9
400.018	1	8
400.188	1	16
400.359	1	8
400.530	1	10
400.700	1	19
400.871	1	4
401.042	1	11
401.213	1	-4
401.383	1	17
401.554	1	8
401.725	1	9
401.895	1	16
402.066	1	12
402.237	1	7
402.408	1	0
402.578	1	7
402.749	1	-5
402.920	1	-7
403.090	1	2
403.261	1	-7
403.432	1	-2
403.603	1	1
403.773	1	12
403.944	1	13
404.115	1	-2
404.285	1	8
404.456	1	7
404.627	1	23
404.797	1	15
404.968	1	4
405.139	1	2
405.310	1	9
405.480	1	7
405.651	1	0
405.822	1	15
405.992	1	8
406.163	1	12
406.334	1	6
406.504	1	10
406.675	1	21
406.846	1	7
407.016	1	5
407.187	1	1
407.358	1	-6
407.528	1	5
407.699	1	17
407.870	1	17
408.041	1	9
408.211	1	-2
408.382	1	19
408.553	1	3
408.723	1	5
408.894	1	-5
409.065	1	9
409.235	1	-10
409.406	1	10
409.577	1	8
409.747	1	6
409.918	1	7
410.089	1	6
410.259	1	1
410.430	1	9
410.601	1	-7
410.771	1	1
410.942	1	13
411.113	1	-11
411.283	1	1
411.454	1	2
411.625	1	0
411.795	1	16
411.966	1	-6
412.137	1	11
412.307	1	-2
412.478	1	12
412.649	1	3
412.819	1	12
412.990	1	4
413.161	1	6
413.331	1	-9
413.502	1	21
413.672	1	10
413.843	1	0
414.014	1	14
414.184	1	-3
414.355	1	-1
414.526	1	9
414.696	1	-7
414.867	1	14
415.038	1	-1
415.208	1	1
415.379	1	5
415.550	1	3
415.720	1	2
415.891	1	15
416.062	1	2
416.232	1	-1
416.403	1	9
416.573	1	11
416.744	1	2
416.915	1	0
417.085	1	-5
417.256	1	-5
417.427	1	2
417.597	1	-12
417.768	1	3
417.939	1	8
418.109	1	1
418.280	1	-1
418.450	1	-3
418.621	1	2
418.792	1	2
418.962	1	-1
419.133	1	2
419.304	1	7
419.474	1	-2
419.645	1	18
419.815	1	-1
419.986	1	10
420.157	1	0
420.327	1	12
420.498	1	7
420.669	1	-1
420.839	1	-2
421.010	1	3
421.180	1	-2
421.351	1	16
421.522	1	9
421.692	1	6
421.863	1	-4
422.033	1	-7
422.204	1	-10
422.375	1	2
422.545	1	18
422.716	1	-1
422.886	1	-2
423.057	1	7
423.228	1	-1
423.398	1	7
423.569	1	10
423.740	1	-2
423.910	1	-1
424.081	1	4
424.251	1	-4
424.422	1	12
424.593	1	3
424.763	1	0
424.934	1	-4
425.104	1	14
425.275	1	-8
425.445	1	1
425.616	1	7
425.787	1	-13
425.957	1	15
426.128	1	-4
426.298	1	5
426.469	1	3
426.640	1	4
426.810	1	2
426.981	1	-10
427.151	1	7
427.322	1	3
427.493	1	4
427.663	1	7
427.834	1	-3
428.004	1	1
428.175	1	1
428.345	1	5
428.516	1	0
428.687	1	-5
428.857	1	-4
429.028	1	-2
429.198	1	-7
429.369	1	5
429.540	1	3
429.710	1	-1
429.881	1	6
430.051	1	0
430.222	1	-4
430.392	1	7
430.563	1	9
430.734	1	1
430.904	1	1
431.075	1	7
431.245	1	1
431.416	1	-7
431.586	1	0
431.757	1	9
431.927	1	7
432.098	1	-1
432.269	1	0
432.439	1	6
432.610	1	-8
432.780	1	0
432.951	1	-2
433.121	1	9
433.292	1	2
433.462	1	9
433.633	1	-4
433.804	1	-2
433.974	1	-4
434.145	1	3
434.315	1	-2
434.486	1	-1
434.656	1	-6
434.827	1	-10
434.997	1	-1
435.168	1	-2
435.339	1	0
435.509	1	1
435.680	1	-3
435.850	1	4
436.021	1	7
436.191	1	-12
436.362	1	1
436.532	1	3
436.703	1	0
436.873	1	1
437.044	1	11
437.214	1	-7
437.385	1	3
437.556	1	-5
437.726	1	0
437.897	1	-1
438.067	1	4
438.238	1	-8
438.408	1	6
438.579	1	0
438.749	1	6
438.920	1	5
439.090	1	14
439.261	1	4
439.431	1	-7
439.602	1	5
439.772	1	8
439.943	1	1
440.113	1	-3
440.284	1	10
440.455	1	-2
440.625	1	4
440.796	1	3
440.966	1	0
441.137	1	-9
441.307	1	-3
441.478	1	-5
441.648	1	-4
441.819	1	0
441.989	1	-9
442.160	1	2
442.330	1	7
442.501	1	-17
442.671	1	-2
442.842	1	5
443.012	1	-4
443.183	1	-2
443.353	1	6
443.524	1	-6
443.694	1	1
443.865	1	-2
444.035	1	-3
444.206	1	7
444.376	1	4
444.547	1	-5
444.717	1	5
444.888	1	-18
445.058	1	-1
445.229	1	1
445.399	1	2
445.570	1	2
445.740	1	9
445.911	1	9
446.081	1	10
446.252	1	-3
446.422	1	-2
446.593	1	-3
446.763	1	12
446.934	1	7
447.104	1	5
447.275	1	-4
447.445	1	1
447.616	1	-9
447.786	1	-7
447.957	1	-5
448.127	1	3
448.298	1	-3
448.468	1	2
448.639	1	-8
448.809	1	-1
448.979	1	7
449.150	1	6
449.320	1	-3
449.491	1	1
449.661	1	4
449.832	1	-6
450.002	1	-7
450.173	1	-2
450.343	1	2
450.514	1	-6
450.684	1	2
450.855	1	10
451.025	1	1
451.196	1	0
451.366	1	-11
451.537	1	-5
451.707	1	-1
451.878	1	-5
452.048	1	8
452.218	1	4
452.389	1	-1
452.559	1	1
452.730	1	-3
452.900	1	-5
453.071	1	2
453.241	1	-11
453.412	1	-10
453.582	1	12
453.753	1	-10
453.923	1	0
454.093	1	3
454.264	1	-15
454.434	1	-4
454.605	1	1
454.775	1	3
454.946	1	4
455.116	1	-9
455.287	1	9
455.457	1	1
455.628	1	0
455.798	1	-13
455.968	1	7
456.139	1	-4
456.309	1	-9
456.480	1	4
456.650	1	-1
456.821	1	2
456.991	1	9
457.161	1	7
457.332	1	2
457.502	1	2
457.673	1	1
457.843	1	0
458.014	1	2
458.184	1	3
458.355	1	3
458.525	1	1
458.695	1	1
458.866	1	2
459.036	1	2
459.207	1	-5
459.377	1	2
459.548	1	1
459.718	1	-17
459.888	1	1
460.059	1	1
460.229	1	10
460.400	1	0
460.570	1	-5
460.740	1	-10
460.911	1	-3
461.081	1	-7
461.252	1	-10
461.422	1	7
461.593	1	-1
461.763	1	3
461.933	1	-1
462.104	1	0
462.274	1	6
462.445	1	-16
462.615	1	-12
462.785	1	-6
462.956	1	-8
463.126	1	-6
463.297	1	-4
463.467	1	0
463.638	1	6
463.808	1	7
463.978	1	1
464.149	1	0
464.319	1	-4
464.490	1	4
464.660	1	6
464.830	1	3
465.001	1	-1
465.171	1	9
465.342	1	3
465.512	1	6
465.682	1	3
465.853	1	0
466.023	1	-7
466.194	1	-1
466.364	1	2
466.534	1	3
466.705	1	3
466.875	1	2
467.045	1	5
467.216	1	-2
467.386	1	7
467.557	1	6
467.727	1	0
467.897	1	3
468.068	1	-7
468.238	1	-2
468.409	1	1
468.579	1	12
468.749	1	-1
468.920	1	3
469.090	1	1
469.260	1	12
469.431	1	1
469.601	1	-4
469.772	1	-13
469.942	1	-1
470.112	1	-2
470.283	1	15
470.453	1	-5
470.623	1	5
470.794	1	8
470.964	1	-14
471.135	1	-12
471.305	1	0
471.475	1	-3
471.646	1	8
471.816	1	2
471.986	1	4
472.157	1	3
472.327	1	-9
472.497	1	6
472.668	1	-5
472.838	1	5
473.009	1	1
473.179	1	2
473.349	1	2
473.520	1	2
473.690	1	7
473.860	1	5
474.031	1	4
474.201	1	-13
474.371	1	3
474.542	1	0
474.712	1	11
474.882	1	-5
475.053	1	-6
475.223	1	-2
475.394	1	0
475.564	1	7
475.734	1	-4
475.905	1	3
476.075	1	-5
476.245	1	-8
476.416	1	-5
476.586	1	-2
476.756	1	2
476.927	1	14
477.097	1	-7
477.267	1	-5
477.438	1	0
477.608	1	6
477.778	1	7
477.949	1	0
478.119	1	6
478.289	1	-9
478.460	1	-1
478.630	1	-6
478.800	1	3
478.971	1	4
479.141	1	6
479.311	1	-6
479.482	1	-8
479.652	1	-3
479.822	1	-9
479.993	1	6
480.163	1	-6
480.333	1	-2
480.504	1	-2
480.674	1	5
480.844	1	8
481.015	1	-5
481.185	1	6
481.355	1	6
481.525	1	0
481.696	1	4
481.866	1	-7
482.036	1	-12
482.207	1	4
482.377	1	-8
482.547	1	-14
482.718	1	5
482.888	1	-6
483.058	1	-2
483.229	1	7
483.399	1	3
483.569	1	0
483.740	1	-20
483.910	1	1
484.080	1	-9
484.250	1	8
484.421	1	5
484.591	1	9
484.761	1	1
484.932	1	4
485.102	1	-1
485.272	1	8
485.443	1	11
485.613	1	-10
485.783	1	7
485.953	1	2
486.124	1	6
486.294	1	3
486.464	1	-8
486.635	1	11
486.805	1	7
486.975	1	-7
487.146	1	3
487.316	1	1
487.486	1	-3
487.656	1	-4
487.827	1	2
487.997	1	5
488.167	1	-4
488.338	1	11
488.508	1	5
488.678	1	2
488.848	1	-2
489.019	1	-7
489.189	1	0
489.359	1	1
489.529	1	-9
489.700	1	4
489.870	1	-12
490.040	1	2
490.211	1	11
490.381	1	-4
490.551	1	-6
490.721	1	-2
490.892	1	0
491.062	1	13
491.232	1	2
491.402	1	-4
491.573	1	3
491.743	1	-18
491.913	1	5
492.084	1	6
492.254	1	-8
492.424	1	-1
492.594	1	1
492.765	1	6
492.935	1	-9
493.105	1	16
493.275	1	11
493.446	1	-10
493.616	1	15
493.786	1	6
493.956	1	-3
494.127	1	5
494.297	1	1
494.467	1	0
494.637	1	1
494.808	1	8
494.978	1	5
495.148	1	9
495.318	1	2
495.489	1	-5
495.659	1	3
495.829	1	1
495.999	1	0
496.170	1	0
496.340	1	-6
496.510	1	3
496.680	1	3
496.851	1	5
497.021	1	-5
497.191	1	-4
497.361	1	-4
497.532	1	-4
497.702	1	-9
497.872	1	-1
498.042	1	-3
498.213	1	5
498.383	1	6
498.553	1	4
498.723	1	1
498.894	1	1
499.064	1	12
499.234	1	-5
499.404	1	3
499.574	1	-6
499.745	1	4
499.915	1	4
500.085	1	2
500.255	1	8
500.426	1	1
500.596	1	-2
500.766	1	0
500.936	1	-7
501.106	1	-3
501.277	1	-8
501.447	1	4
501.617	1	2
501.787	1	2
501.958	1	-5
502.128	1	1
502.298	1	1
502.468	1	9
502.638	1	7
502.809	1	2
502.979	1	-1
503.149	1	0
503.319	1	12
503.489	1	0
503.660	1	-2
503.830	1	3
504.000	1	-1
504.170	1	9
504.340	1	10
504.511	1	11
504.681	1	1
504.851	1	0
505.021	1	-2
505.192	1	7
505.362	1	5
505.532	1	4
505.702	1	11
505.872	1	-5
506.043	1	1
506.213	1	4
506.383	1	-2
506.553	1	8
506.723	1	8
506.893	1	7
507.064	1	5
507.234	1	7
507.404	1	1
507.574	1	-1
507.744	1	-6
507.915	1	2
508.085	1	11
508.255	1	3
508.425	1	7
508.595	1	8
508.766	1	-7
508.936	1	11
509.106	1	-7
509.276	1	6
509.446	1	-2
509.616	1	2
509.787	1	-5
509.957	1	-1
510.127	1	9
510.297	1	-6
510.467	1	3
510.638	1	-8
510.808	1	5
510.978	1	-6
511.148	1	21
511.318	1	2
511.488	1	7
511.659	1	-5
511.829	1	1
511.999	1	23
512.169	1	3
512.339	1	0
512.509	1	8
512.680	1	13
512.850	1	2
513.020	1	8
513.190	1	-9
513.360	1	5
513.530	1	-14
513.700	1	3
513.871	1	15
514.041	1	-5
514.211	1	-9
514.381	1	6
514.551	1	8
514.721	1	-2
514.892	1	5
515.062	1	1
515.232	1	-2
515.402	1	4
515.572	1	-1
515.742	1	5
515.912	1	19
516.083	1	3
516.253	1	9
516.423	1	13
516.593	1	4
516.763	1	-3
516.933	1	6
517.104	1	-4
517.274	1	8
517.444	1	2
517.614	1	3
517.784	1	-4
517.954	1	-5
518.124	1	7
518.294	1	6
518.465	1	11
518.635	1	-2
518.805	1	9
518.975	1	3
519.145	1	8
519.315	1	4
519.485	1	-4
519.656	1	5
519.826	1	4
519.996	1	7
520.166	1	5
520.336	1	2
520.506	1	2
520.676	1	-5
520.846	1	-9
521.017	1	0
521.187	1	2
521.357	1	-3
521.527	1	7
521.697	1	3
521.867	1	11
522.037	1	3
522.207	1	1
522.377	1	9
522.548	1	-3
522.718	1	5
522.888	1	-3
523.058	1	15
523.228	1	17
523.398	1	9
523.568	1	5
523.738	1	-5
523.909	1	11
524.079	1	0
524.249	1	14
524.419	1	5
524.589	1	12
524.759	1	-2
524.929	1	2
525.099	1	4
525.269	1	8
525.439	1	-1
525.610	1	6
525.780	1	11
525.950	1	-6
526.120	1	-2
526.290	1	-6
526.460	1	5
526.630	1	3
526.800	1	0
526.970	1	-2
527.140	1	-2
527.311	1	7
527.481	1	15
527.651	1	14
527.821	1	3
527.991	1	0
528.161	1	10
528.331	1	7
528.501	1	-2
528.671	1	6
528.841	1	3
529.011	1	-2
529.181	1	4
529.352	1	6
529.522	1	6
529.692	1	8
529.862	1	-4
530.032	1	-3
530.202	1	9
530.372	1	4
530.542	1	6
530.712	1	15
530.882	1	1
531.052	1	9
531.222	1	-4
531.392	1	9
531.563	1	4
531.733	1	11
531.903	1	6
532.073	1	9
532.243	1	1
532.413	1	9
532.583	1	1
532.753	1	1
532.923	1	2
533.093	1	14
533.263	1	7
533.433	1	4
533.603	1	3
533.773	1	9
533.943	1	-1
534.113	1	5
534.284	1	6
534.454	1	9
534.624	1	11
534.794	1	9
534.964	1	-6
535.134	1	4
535.304	1	10
535.474	1	8
535.644	1	9
535.814	1	9
535.984	1	0
536.154	1	2
536.324	1	6
536.494	1	22
536.664	1	14
536.834	1	7
537.004	1	12
537.174	1	8
537.344	1	1
537.514	1	3
537.685	1	5
537.855	1	7
538.025	1	-1
538.195	1	4
538.365	1	12
538.535	1	19
538.705	1	-2
538.875	1	0
539.045	1	4
539.215	1	-5
539.385	1	-2
539.555	1	0
539.725	1	7
539.895	1	2
540.065	1	-3
540.235	1	-1
540.405	1	1
540.575	1	-3
540.745	1	6
540.915	1	12
541.085	1	2
541.255	1	0
541.425	1	-2
541.595	1	3
541.765	1	-3
541.935	1	9
542.105	1	9
542.275	1	-1
542.445	1	3
542.615	1	2
542.785	1	-1
542.955	1	7
543.125	1	3
543.295	1	13
543.465	1	8
543.635	1	5
543.805	1	5
543.975	1	12
544.145	1	4
544.315	1	-1
544.485	1	-7
544.655	1	10
544.825	1	16
544.995	1	3
545.165	1	6
545.335	1	4
545.505	1	6
545.675	1	3
545.845	1	3
546.015	1	-3
546.185	1	-2
546.355	1	9
546.525	1	8
546.695	1	0
546.865	1	5
547.035	1	11
547.205	1	5
547.375	1	0
547.545	1	3
547.715	1	3
547.885	1	8
548.055	1	12
548.225	1	-4
548.395	1	2
548.565	1	5
548.735	1	9
548.905	1	2
549.075	1	-5
549.245	1	0
549.415	1	6
549.585	1	1
549.755	1	3
549.925	1	4
550.095	1	4
550.265	1	-2
550.435	1	18
550.605	1	-3
550.775	1	-2
550.945	1	7
551.115	1	-1
551.285	1	1
551.455	1	6
551.625	1	1
551.795	1	13
551.965	1	4
552.135	1	2
552.305	1	7
552.475	1	-12
552.645	1	6
552.815	1	10
552.985	1	9
553.155	1	5
553.325	1	8
553.495	1	-3
553.665	1	-3
553.835	1	2
554.004	1	-4
554.174	1	11
554.344	1	-1
554.514	1	12
554.684	1	9
554.854	1	12
555.024	1	4
555.194	1	13
555.364	1	6
555.534	1	-5
555.704	1	5
555.874	1	2
556.044	1	10
556.214	1	-4
556.384	1	7
556.554	1	-4
556.724	1	5
556.894	1	9
557.064	1	5
557.234	1	2
557.404	1	-8
557.573	1	10
557.743	1	-1
557.913	1	3
558.083	1	-5
558.253	1	2
558.423	1	-11
558.593	1	9
558.763	1	0
558.933	1	8
559.103	1	7
559.273	1	-1
559.443	1	1
559.613	1	5
559.783	1	5
559.953	1	-5
560.122	1	-9
560.292	1	3
560.462	1	5
560.632	1	-1
560.802	1	1
560.972	1	10
561.142	1	2
561.312	1	6
561.482	1	3
561.652	1	11
561.822	1	-4
561.992	1	7
562.162	1	8
562.331	1	8
562.501	1	-8
562.671	1	3
562.841	1	-7
563.011	1	-1
563.181	1	6
563.351	1	-2
563.521	1	10
563.691	1	4
563.861	1	10
564.031	1	8
564.201	1	4
564.370	1	-3
564.540	1	11
564.710	1	-1
564.880	1	-6
565.050	1	4
565.220	1	4
565.390	1	-12
565.560	1	10
565.730	1	-1
565.900	1	-1
566.069	1	13
566.239	1	-2
566.409	1	3
566.579	1	-5
566.749	1	1
566.919	1	5
567.089	1	-3
567.259	1	13
567.429	1	11
567.599	1	-6
567.768	1	8
567.938	1	5
568.108	1	10
568.278	1	-5
568.448	1	-5
568.618	1	-1
568.788	1	-9
568.958	1	4
569.128	1	8
569.297	1	9
569.467	1	5
569.637	1	-2
569.807	1	0
569.977	1	5
570.147	1	0
570.317	1	14
570.487	1	1
570.656	1	-4
570.826	1	7
570.996	1	1
571.166	1	-4
571.336	1	-4
571.506	1	-2
571.676	1	8
571.846	1	8
572.015	1	-7
572.185	1	-5
572.355	1	13
572.525	1	-6
572.695	1	16
572.865	1	9
573.035	1	4
573.205	1	8
573.374	1	3
573.544	1	-4
573.714	1	11
573.884	1	-12
574.054	1	0
574.224	1	1
574.394	1	-4
574.563	1	13
574.733	1	-2
574.903	1	15
575.073	1	-2
575.243	1	-13
575.413	1	2
575.583	1	11
575.752	1	-2
575.922	1	-3
576.092	1	8
576.262	1	1
576.432	1	-12
576.602	1	6
576.772	1	1
576.941	1	11
577.111	1	-2
577.281	1	3
577.451	1	-5
577.621	1	1
577.791	1	4
577.960	1	-4
578.130	1	-7
578.300	1	-1
578.470	1	-4
578.640	1	-7
578.810	1	1
578.979	1	1
579.149	1	-1
579.319	1	15
579.489	1	9
579.659	1	0
579.829	1	3
579.998	1	6
580.168	1	9
580.338	1	-12
580.508	1	-4
580.678	1	-5
580.848	1	7
581.017	1	2
581.187	1	9
581.357	1	2
581.527	1	6
581.697	1	-13
581.867	1	-7
582.036	1	8
582.206	1	-10
582.376	1	0
582.546	1	2
582.716	1	7
582.885	1	5
583.055	1	-2
583.225	1	4
583.395	1	-1
583.565	1	14
583.735	1	-1
583.904	1	-1
584.074	1	1
584.244	1	-2
584.414	1	11
584.584	1	6
584.753	1	3
584.923	1	1
585.093	1	5
585.263	1	6
585.433	1	-2
585.602	1	-2
585.772	1	-11
585.942	1	11
586.112	1	12
586.282	1	6
586.451	1	4
586.621	1	3
586.791	1	1
586.961	1	5
587.131	1	3
587.300	1	-1
587.470	1	-4
587.640	1	-6
587.810	1	3
587.980	1	0
588.149	1	9
588.319	1	-6
588.489	1	4
588.659	1	-4
588.829	1	4
588.998	1	-6
589.168	1	0
589.338	1	1
589.508	1	10
589.677	1	-8
589.847	1	3
590.017	1	-11
590.187	1	1
590.357	1	-3
590.526	1	0
590.696	1	3
590.866	1	2
591.036	1	5
591.205	1	6
591.375	1	-11
591.545	1	-18
591.715	1	-3
591.885	1	5
592.054	1	4
592.224	1	6
592.394	1	10
592.564	1	-6
592.733	1	-2
592.903	1	6
593.073	1	4
593.243	1	-1
593.412	1	1
593.582	1	8
593.752	1	-7
593.922	1	-5
594.091	1	2
594.261	1	13
594.431	1	-6
594.601	1	0
594.771	1	6
594.940	1	-3
595.110	1	-7
595.280	1	-4
595.450	1	-5
595.619	1	7
595.789	1	8
595.959	1	2
596.129	1	-2
596.298	1	5
596.468	1	-2
596.638	1	4
596.808	1	5
596.977	1	7
597.147	1	-10
597.317	1	0
597.487	1	-3
597.656	1	0
597.826	1	7
597.996	1	6
598.166	1	-7
598.335	1	1
598.505	1	-8
598.675	1	-4
598.844	1	-4
599.014	1	-1
599.184	1	3
599.354	1	-16
599.523	1	4
599.693	1	9
599.863	1	4
600.033	1	1
600.202	1	-4
600.372	1	0
600.542	1	-2
600.712	1	13
600.881	1	7
601.051	1	12
601.221	1	-7
601.390	1	-11
601.560	1	3
601.730	1	-9
601.900	1	7
602.069	1	-13
602.239	1	-12
602.409	1	-5
602.578	1	11
602.748	1	-12
602.918	1	1
603.088	1	5
603.257	1	2
603.427	1	-2
603.597	1	13
603.767	1	-11
603.936	1	7
604.106	1	2
604.276	1	4
604.445	1	6
604.615	1	-1
604.785	1	8
604.954	1	1
605.124	1	-9
605.294	1	2
605.464	1	0
605.633	1	11
605.803	1	6
605.973	1	-13
606.142	1	-4
606.312	1	4
606.482	1	-9
606.652	1	-13
606.821	1	3
606.991	1	-3
607.161	1	-5
607.330	1	4
607.500	1	8
607.670	1	3
607.839	1	4
608.009	1	-10
608.179	1	1
608.348	1	-4
608.518	1	1
608.688	1	6
608.858	1	5
609.027	1	1
609.197	1	-9
609.367	1	-3
609.536	1	2
609.706	1	-3
609.876	1	3
610.045	1	-8
610.215	1	-5
610.385	1	1
610.554	1	-4
610.724	1	11
610.894	1	-3
611.063	1	6
611.233	1	-3
611.403	1	3
611.572	1	2
611.742	1	-4
611.912	1	8
612.081	1	-2
612.251	1	0
612.421	1	10
612.590	1	3
612.760	1	-7
612.930	1	8
613.099	1	-10
613.269	1	-6
613.439	1	-6
613.608	1	6
613.778	1	1
613.948	1	15
614.117	1	13
614.287	1	-7
614.457	1	0
614.626	1	6
614.796	1	6
614.966	1	-3
615.135	1	0
615.305	1	2
615.475	1	7
615.644	1	-12
615.814	1	5
615.984	1	-1
616.153	1	-2
616.323	1	1
616.493	1	-8
616.662	1	6
616.832	1	-1
617.002	1	-4
617.171	1	1
617.341	1	-3
617.511	1	1
617.680	1	2
617.850	1	0
618.019	1	1
618.189	1	-4
618.359	1	2
618.528	1	-6
618.698	1	-7
618.868	1	5
619.037	1	13
619.207	1	-9
619.377	1	-12
619.546	1	8
619.716	1	-8
619.885	1	-5
620.055	1	1
620.225	1	9
620.394	1	3
620.564	1	-6
620.734	1	4
620.903	1	9
621.073	1	-3
621.242	1	-1
621.412	1	8
621.582	1	4
621.751	1	-5
621.921	1	-4
622.091	1	4
622.260	1	-1
622.430	1	-2
622.599	1	5
622.769	1	-5
622.939	1	-5
623.108	1	3
623.278	1	-12
623.448	1	-5
623.617	1	2
623.787	1	0
623.956	1	-3
624.126	1	1
624.296	1	-10
624.465	1	9
624.635	1	8
624.804	1	-14
624.974	1	-7
625.144	1	8
625.313	1	1
625.483	1	0
625.652	1	7
625.822	1	1
625.992	1	-2
626.161	1	8
626.331	1	8
626.501	1	6
626.670	1	0
626.840	1	6
627.009	1	-5
627.179	1	-3
627.348	1	-5
627.518	1	-1
627.688	1	-2
627.857	1	19
628.027	1	0
628.196	1	6
628.366	1	2
628.536	1	2
628.705	1	-3
628.875	1	0
629.044	1	-1
629.214	1	3
629.384	1	-7
629.553	1	-1
629.723	1	4
629.892	1	4
630.062	1	6
630.232	1	11
630.401	1	-8
630.571	1	0
630.740	1	6
630.910	1	-4
631.079	1	12
631.249	1	0
631.419	1	2
631.588	1	-9
631.758	1	-3
631.927	1	0
632.097	1	1
632.266	1	-8
632.436	1	-4
632.606	1	3
632.775	1	-6
632.945	1	1
633.114	1	17
633.284	1	-3
633.453	1	-3
633.623	1	0
633.793	1	0
633.962	1	9
634.132	1	-1
634.301	1	-2
634.471	1	-8
634.640	1	-1
634.810	1	5
634.979	1	-2
635.149	1	-3
635.319	1	4
635.488	1	3
635.658	1	-7
635.827	1	-3
635.997	1	-4
636.166	1	-1
636.336	1	11
636.505	1	-1
636.675	1	-3
636.845	1	6
637.014	1	2
637.184	1	-2
637.353	1	1
637.523	1	-16
637.692	1	0
637.862	1	-9
638.031	1	4
638.201	1	4
638.370	1	4
638.540	1	4
638.710	1	6
638.879	1	-2
639.049	1	11
639.218	1	-3
639.388	1	1
639.557	1	6
639.727	1	7
639.896	1	-3
640.066	1	0
640.235	1	3
640.405	1	7
640.574	1	-3
640.744	1	-2
640.914	1	-9
641.083	1	-7
641.253	1	-2
641.422	1	-13
641.592	1	-11
641.761	1	5
641.931	1	6
642.100	1	-13
642.270	1	-6
642.439	1	-2
642.609	1	-7
642.778	1	-7
642.948	1	3
643.117	1	-9
643.287	1	4
643.456	1	12
643.626	1	8
643.795	1	3
643.965	1	-2
644.134	1	1
644.304	1	-4
644.473	1	6
644.643	1	1
644.812	1	15
644.982	1	7
645.151	1	-7
645.321	1	9
645.490	1	4
645.660	1	-7
645.829	1	-6
645.999	1	0
646.168	1	-4
646.338	1	4
646.507	1	-5
646.677	1	0
646.846	1	7
647.016	1	-3
647.185	1	-1
647.355	1	-5
647.524	1	-4
647.694	1	5
647.863	1	-6
648.033	1	-10
648.202	1	0
648.372	1	1
648.541	1	-5
648.711	1	-3
648.880	1	8
649.050	1	-4
649.219	1	-7
649.389	1	3
649.558	1	0
649.728	1	0
649.897	1	2
650.067	1	-8
650.236	1	6
650.406	1	0
650.575	1	3
650.745	1	2
650.914	1	-7
651.084	1	-5
651.253	1	-2
651.423	1	-1
651.592	1	-4
651.762	1	5
651.931	1	-4
652.101	1	2
652.270	1	-4
652.440	1	-5
652.609	1	-1
652.778	1	-5
652.948	1	-5
653.117	1	-4
653.287	1	13
653.456	1	9
653.626	1	2
653.795	1	7
653.965	1	10
654.134	1	7
654.304	1	0
654.473	1	-4
654.643	1	9
654.812	1	0
654.982	1	-16
655.151	1	-10
655.320	1	3
655.490	1	-1
655.659	1	1
655.829	1	-4
655.998	1	15
656.168	1	-2
656.337	1	-3
656.507	1	10
656.676	1	-3
656.846	1	-10
657.015	1	1
657.184	1	4
657.354	1	5
657.523	1	-2
657.693	1	8
657.862	1	-4
658.032	1	5
658.201	1	-3
658.371	1	-9
658.540	1	1
658.709	1	-13
658.879	1	-4
659.048	1	5
659.218	1	-10
659.387	1	2
659.557	1	4
659.726	1	-5
659.895	1	-3
660.065	1	-6
660.234	1	7
660.404	1	0
660.573	1	-16
660.743	1	-5
660.912	1	-7
661.081	1	6
661.251	1	8
661.420	1	-6
661.590	1	6
661.759	1	-1
661.929	1	-6
662.098	1	-12
662.267	1	6
662.437	1	1
662.606	1	8
662.776	1	4
662.945	1	0
663.115	1	-13
663.284	1	2
663.453	1	-2
663.623	1	-5
663.792	1	-4
663.962	1	-6
664.131	1	-16
664.300	1	-5
664.470	1	10
664.639	1	-7
664.809	1	1
664.978	1	-4
665.148	1	-10
665.317	1	-9
665.486	1	0
665.656	1	-7
665.825	1	5
665.995	1	5
666.164	1	9
666.333	1	7
666.503	1	-5
666.672	1	-3
666.842	1	-8
667.011	1	6
667.180	1	-3
667.350	1	5
667.519	1	-1
667.689	1	-3
667.858	1	12
668.027	1	-6
668.197	1	2
668.366	1	0
668.536	1	0
668.705	1	3
668.874	1	-3
669.044	1	-9
669.213	1	-7
669.382	1	-4
669.552	1	9
669.721	1	-6
669.891	1	4
670.060	1	1
670.229	1	-2
670.399	1	9
670.568	1	8
670.738	1	-11
670.907	1	-13
671.076	1	5
671.246	1	-3
671.415	1	-11
671.584	1	1
671.754	1	-10
671.923	1	-10
672.093	1	-3
672.262	1	7
672.431	1	-6
672.601	1	-6
672.770	1	9
672.939	1	-1
673.109	1	-1
673.278	1	6
673.448	1	-8
673.617	1	6
673.786	1	-7
