325.333	1	-3
325.504	1	6
325.675	1	-1
325.846	1	-3
326.017	1	-6
326.188	1	9
326.359	1	7
326.531	1	-2
326.702	1	5
326.873	1	0
327.044	1	-1
327.215	1	-1
327.386	1	1
327.557	1	-1
327.728	1	1
327.899	1	-6
328.070	1	8
328.241	1	-1
328.412	1	9
328.583	1	-4
328.754	1	-3
328.926	1	1
329.097	1	5
329.268	1	-2
329.439	1	-1
329.610	1	-6
329.781	1	1
329.952	1	9
330.123	1	15
330.294	1	13
330.465	1	-4
330.636	1	1
330.807	1	10
330.978	1	-2
331.149	1	4
331.320	1	-2
331.492	1	-3
331.663	1	-3
331.834	1	14
332.005	1	7
332.176	1	1
332.347	1	8
332.518	1	3
332.689	1	3
332.860	1	-3
333.031	1	2
333.202	1	0
333.373	1	3
333.544	1	5
333.715	1	0
333.886	1	0
334.057	1	-20
334.228	1	-3
334.399	1	4
334.570	1	-3
334.741	1	-8
334.912	1	-5
335.084	1	0
335.255	1	-3
335.426	1	0
335.597	1	-2
335.768	1	12
335.939	1	-1
336.110	1	-9
336.281	1	-13
336.452	1	-9
336.623	1	7
336.794	1	1
336.965	1	-1
337.136	1	-7
337.307	1	11
337.478	1	1
337.649	1	12
337.820	1	17
337.991	1	4
338.162	1	-3
338.333	1	8
338.504	1	0
338.675	1	12
338.846	1	4
339.017	1	-5
339.188	1	5
339.359	1	1
339.530	1	9
339.701	1	0
339.872	1	3
340.043	1	0
340.214	1	-3
340.385	1	8
340.556	1	3
340.727	1	1
340.898	1	4
341.069	1	2
341.240	1	0
341.411	1	8
341.582	1	-8
341.753	1	1
341.924	1	-2
342.095	1	-3
342.266	1	4
342.437	1	0
342.608	1	-8
342.779	1	-3
342.950	1	4
343.121	1	-2
343.292	1	-1
343.463	1	0
343.634	1	-4
343.805	1	11
343.976	1	7
344.147	1	5
344.318	1	7
344.489	1	-10
344.660	1	4
344.831	1	-10
345.002	1	-3
345.173	1	-4
345.344	1	-8
345.515	1	-4
345.686	1	4
345.857	1	-2
346.028	1	1
346.199	1	1
346.370	1	11
346.541	1	-6
346.712	1	6
346.883	1	-8
347.054	1	1
347.225	1	1
347.396	1	-2
347.567	1	-2
347.738	1	6
347.909	1	8
348.080	1	0
348.251	1	5
348.422	1	4
348.593	1	-4
348.764	1	2
348.935	1	4
349.106	1	-2
349.277	1	-5
349.448	1	3
349.619	1	2
349.790	1	-6
349.961	1	8
350.132	1	1
350.303	1	-1
350.474	1	6
350.645	1	1
350.816	1	-5
350.987	1	-3
351.157	1	11
351.328	1	5
351.499	1	6
351.670	1	11
351.841	1	-5
352.012	1	-6
352.183	1	-3
352.354	1	5
352.525	1	3
352.696	1	0
352.867	1	-4
353.038	1	11
353.209	1	5
353.380	1	11
353.551	1	0
353.722	1	4
353.893	1	5
354.064	1	14
354.235	1	1
354.406	1	7
354.576	1	6
354.747	1	-9
354.918	1	2
355.089	1	1
355.260	1	0
355.431	1	9
355.602	1	11
355.773	1	-3
355.944	1	7
356.115	1	1
356.286	1	9
356.457	1	-8
356.628	1	-1
356.799	1	7
356.970	1	-3
357.141	1	6
357.311	1	2
357.482	1	8
357.653	1	8
357.824	1	4
357.995	1	7
358.166	1	-1
358.337	1	6
358.508	1	4
358.679	1	11
358.850	1	10
359.021	1	3
359.192	1	8
359.363	1	5
359.533	1	-4
359.704	1	-1
359.875	1	-1
360.046	1	3
360.217	1	13
360.388	1	9
360.559	1	4
360.730	1	4
360.901	1	15
361.072	1	1
361.243	1	11
361.414	1	22
361.584	1	16
361.755	1	24
361.926	1	18
362.097	1	4
362.268	1	13
362.439	1	11
362.610	1	9
362.781	1	19
362.952	1	10
363.123	1	16
363.293	1	1
363.464	1	27
363.635	1	13
363.806	1	24
363.977	1	14
364.148	1	20
364.319	1	12
364.490	1	6
364.661	1	16
364.832	1	16
365.002	1	32
365.173	1	18
365.344	1	13
365.515	1	28
365.686	1	17
365.857	1	15
366.028	1	25
366.199	1	25
366.370	1	36
366.540	1	22
366.711	1	24
366.882	1	29
367.053	1	27
367.224	1	21
367.395	1	34
367.566	1	30
367.737	1	18
367.908	1	29
368.078	1	17
368.249	1	24
368.420	1	20
368.591	1	29
368.762	1	13
368.933	1	25
369.104	1	21
369.274	1	14
369.445	1	8
369.616	1	12
369.787	1	18
369.958	1	6
370.129	1	24
370.300	1	6
370.471	1	26
370.641	1	21
370.812	1	25
370.983	1	15
371.154	1	6
371.325	1	13
371.496	1	12
371.667	1	16
371.837	1	4
372.008	1	18
372.179	1	13
372.350	1	8
372.521	1	5
372.692	1	11
372.863	1	13
373.033	1	12
373.204	1	13
373.375	1	11
373.546	1	4
373.717	1	11
373.888	1	6
374.059	1	15
374.229	1	1
374.400	1	14
374.571	1	6
374.742	1	33
374.913	1	6
375.084	1	2
375.254	1	10
375.425	1	16
375.596	1	0
375.767	1	11
375.938	1	8
376.109	1	-9
376.279	1	1
376.450	1	5
376.621	1	16
376.792	1	4
376.963	1	4
377.134	1	9
377.304	1	10
377.475	1	22
377.646	1	8
377.817	1	16
377.988	1	5
378.159	1	9
378.329	1	11
378.500	1	3
378.671	1	0
378.842	1	11
379.013	1	5
379.184	1	13
379.354	1	11
379.525	1	14
379.696	1	2
379.867	1	13
380.038	1	11
380.209	1	19
380.379	1	1
380.550	1	10
380.721	1	14
380.892	1	9
381.063	1	10
381.233	1	14
381.404	1	7
381.575	1	8
381.746	1	19
381.917	1	13
382.087	1	21
382.258	1	21
382.429	1	21
382.600	1	23
382.771	1	24
382.941	1	22
383.112	1	31
383.283	1	22
383.454	1	13
383.625	1	26
383.795	1	22
383.966	1	24
384.137	1	31
384.308	1	37
384.479	1	35
384.649	1	36
384.820	1	25
384.991	1	49
385.162	1	42
385.333	1	48
385.503	1	45
385.674	1	42
385.845	1	50
386.016	1	36
386.187	1	49
386.357	1	40
386.528	1	50
386.699	1	56
386.870	1	49
387.041	1	34
387.211	1	45
387.382	1	47
387.553	1	43
387.724	1	32
387.894	1	47
388.065	1	41
388.236	1	42
388.407	1	36
388.578	1	40
388.748	1	50
388.919	1	47
389.090	1	48
389.261	1	26
389.431	1	48
389.602	1	34
389.773	1	32
389.944	1	41
390.114	1	44
390.285	1	45
390.456	1	44
390.627	1	38
390.798	1	41
390.968	1	37
391.139	1	28
391.310	1	41
391.481	1	41
391.651	1	43
391.822	1	43
391.993	1	31
392.164	1	30
392.334	1	48
392.505	1	29
392.676	1	41
392.847	1	38
393.017	1	25
393.188	1	32
393.359	1	41
393.530	1	32
393.700	1	47
393.871	1	29
394.042	1	44
394.213	1	41
394.383	1	44
394.554	1	31
394.725	1	34
394.896	1	29
395.066	1	44
395.237	1	49
395.408	1	40
395.579	1	34
395.749	1	50
395.920	1	42
396.091	1	48
396.262	1	40
396.432	1	28
396.603	1	35
396.774	1	36
396.945	1	44
397.115	1	37
397.286	1	52
397.457	1	44
397.627	1	42
397.798	1	39
397.969	1	43
398.140	1	36
398.310	1	36
398.481	1	34
398.652	1	38
398.823	1	47
398.993	1	31
399.164	1	49
399.335	1	37
399.505	1	41
399.676	1	44
399.847	1	30
400.018	1	36
400.188	1	37
400.359	1	38
400.530	1	48
400.700	1	31
400.871	1	28
401.042	1	18
401.213	1	32
401.383	1	39
401.554	1	29
401.725	1	25
401.895	1	30
402.066	1	26
402.237	1	18
402.408	1	30
402.578	1	32
402.749	1	18
402.920	1	24
403.090	1	28
403.261	1	23
403.432	1	36
403.603	1	35
403.773	1	31
403.944	1	36
404.115	1	19
404.285	1	11
404.456	1	33
404.627	1	40
404.797	1	44
404.968	1	28
405.139	1	27
405.310	1	22
405.480	1	30
405.651	1	28
405.822	1	27
405.992	1	26
406.163	1	29
406.334	1	31
406.504	1	19
406.675	1	35
406.846	1	23
407.016	1	20
407.187	1	28
407.358	1	15
407.528	1	34
407.699	1	36
407.870	1	22
408.041	1	36
408.211	1	28
408.382	1	35
408.553	1	23
408.723	1	19
408.894	1	25
409.065	1	29
409.235	1	19
409.406	1	33
409.577	1	23
409.747	1	21
409.918	1	22
410.089	1	26
410.259	1	8
410.430	1	37
410.601	1	12
410.771	1	25
410.942	1	22
411.113	1	19
411.283	1	12
411.454	1	11
411.625	1	8
411.795	1	20
411.966	1	21
412.137	1	18
412.307	1	16
412.478	1	37
412.649	1	13
412.819	1	22
412.990	1	33
413.161	1	19
413.331	1	9
413.502	1	19
413.672	1	11
413.843	1	18
414.014	1	15
414.184	1	10
414.355	1	14
414.526	1	11
414.696	1	18
414.867	1	23
415.038	1	10
415.208	1	16
415.379	1	34
415.550	1	11
415.720	1	19
415.891	1	28
416.062	1	13
416.232	1	15
416.403	1	17
416.573	1	15
416.744	1	13
416.915	1	15
417.085	1	3
417.256	1	6
417.427	1	12
417.597	1	-2
417.768	1	9
417.939	1	4
418.109	1	18
418.280	1	19
418.450	1	12
418.621	1	19
418.792	1	7
418.962	1	3
419.133	1	10
419.304	1	13
419.474	1	17
419.645	1	26
419.815	1	11
419.986	1	23
420.157	1	15
420.327	1	25
420.498	1	17
420.669	1	11
420.839	1	9
421.010	1	17
421.180	1	7
421.351	1	13
421.522	1	13
421.692	1	10
421.863	1	14
422.033	1	9
422.204	1	4
422.375	1	5
422.545	1	19
422.716	1	9
422.886	1	8
423.057	1	16
423.228	1	2
423.398	1	13
423.569	1	5
423.740	1	5
423.910	1	-1
424.081	1	6
424.251	1	3
424.422	1	17
424.593	1	9
424.763	1	10
424.934	1	11
425.104	1	19
425.275	1	-8
425.445	1	1
425.616	1	8
425.787	1	3
425.957	1	20
426.128	1	14
426.298	1	11
426.469	1	3
426.640	1	7
426.810	1	20
426.981	1	4
427.151	1	7
427.322	1	5
427.493	1	7
427.663	1	3
427.834	1	2
428.004	1	16
428.175	1	11
428.345	1	9
428.516	1	6
428.687	1	2
428.857	1	13
429.028	1	1
429.198	1	-1
429.369	1	10
429.540	1	16
429.710	1	4
429.881	1	10
430.051	1	16
430.222	1	7
430.392	1	12
430.563	1	14
430.734	1	7
430.904	1	16
431.075	1	24
431.245	1	14
431.416	1	8
431.586	1	1
431.757	1	3
431.927	1	5
432.098	1	8
432.269	1	10
432.439	1	-1
432.610	1	-4
432.780	1	15
432.951	1	11
433.121	1	11
433.292	1	14
433.462	1	13
433.633	1	1
433.804	1	-4
433.974	1	2
434.145	1	4
434.315	1	3
434.486	1	8
434.656	1	5
434.827	1	-1
434.997	1	9
435.168	1	8
435.339	1	5
435.509	1	15
435.680	1	-1
435.850	1	-7
436.021	1	8
436.191	1	1
436.362	1	-3
436.532	1	3
436.703	1	9
436.873	1	9
437.044	1	14
437.214	1	5
437.385	1	14
437.556	1	-8
437.726	1	1
437.897	1	-2
438.067	1	1
438.238	1	-5
438.408	1	13
438.579	1	17
438.749	1	12
438.920	1	4
439.090	1	14
439.261	1	10
439.431	1	0
439.602	1	6
439.772	1	8
439.943	1	14
440.113	1	7
440.284	1	8
440.455	1	-1
440.625	1	8
440.796	1	14
440.966	1	15
441.137	1	-5
441.307	1	1
441.478	1	8
441.648	1	-3
441.819	1	8
441.989	1	11
442.160	1	10
442.330	1	6
442.501	1	-6
442.671	1	0
442.842	1	8
443.012	1	4
443.183	1	0
443.353	1	4
443.524	1	6
443.694	1	9
443.865	1	5
444.035	1	0
444.206	1	9
444.376	1	5
444.547	1	-5
444.717	1	12
444.888	1	-3
445.058	1	8
445.229	1	7
445.399	1	7
445.570	1	11
445.740	1	7
445.911	1	18
446.081	1	4
446.252	1	6
446.422	1	3
446.593	1	-1
446.763	1	15
446.934	1	11
447.104	1	-6
447.275	1	-5
447.445	1	0
447.616	1	11
447.786	1	8
447.957	1	0
448.127	1	14
448.298	1	4
448.468	1	17
448.639	1	-6
448.809	1	0
448.979	1	11
449.150	1	4
449.320	1	3
449.491	1	-1
449.661	1	2
449.832	1	0
450.002	1	-7
450.173	1	-1
450.343	1	9
450.514	1	-7
450.684	1	-2
450.855	1	6
451.025	1	7
451.196	1	2
451.366	1	2
451.537	1	0
451.707	1	-2
451.878	1	-5
452.048	1	-1
452.218	1	-1
452.389	1	6
452.559	1	-4
452.730	1	1
452.900	1	2
453.071	1	4
453.241	1	8
453.412	1	-5
453.582	1	11
453.753	1	-7
453.923	1	1
454.093	1	10
454.264	1	-4
454.434	1	10
454.605	1	-3
454.775	1	8
454.946	1	-4
455.116	1	-3
455.287	1	13
455.457	1	-2
455.628	1	-5
455.798	1	-9
455.968	1	9
456.139	1	2
456.309	1	3
456.480	1	1
456.650	1	8
456.821	1	4
456.991	1	16
457.161	1	10
457.332	1	-4
457.502	1	-1
457.673	1	-3
457.843	1	5
458.014	1	-6
458.184	1	1
458.355	1	11
458.525	1	5
458.695	1	0
458.866	1	-2
459.036	1	7
459.207	1	-2
459.377	1	2
459.548	1	1
459.718	1	3
459.888	1	2
460.059	1	6
460.229	1	19
460.400	1	2
460.570	1	-7
460.740	1	-4
460.911	1	13
461.081	1	-4
461.252	1	5
461.422	1	4
461.593	1	0
461.763	1	5
461.933	1	6
462.104	1	8
462.274	1	6
462.445	1	-8
462.615	1	-10
462.785	1	-7
462.956	1	1
463.126	1	-10
463.297	1	2
463.467	1	2
463.638	1	-2
463.808	1	7
463.978	1	7
464.149	1	-3
464.319	1	-4
464.490	1	-2
464.660	1	13
464.830	1	8
465.001	1	13
465.171	1	10
465.342	1	8
465.512	1	-3
465.682	1	5
465.853	1	-1
466.023	1	-6
466.194	1	7
466.364	1	9
466.534	1	1
466.705	1	3
466.875	1	11
467.045	1	1
467.216	1	3
467.386	1	0
467.557	1	1
467.727	1	5
467.897	1	8
468.068	1	12
468.238	1	-5
468.409	1	6
468.579	1	1
468.749	1	-5
468.920	1	-3
469.090	1	5
469.260	1	0
469.431	1	8
469.601	1	3
469.772	1	-11
469.942	1	5
470.112	1	2
470.283	1	6
470.453	1	-2
470.623	1	0
470.794	1	12
470.964	1	3
471.135	1	1
471.305	1	-2
471.475	1	-2
471.646	1	9
471.816	1	8
471.986	1	2
472.157	1	8
472.327	1	3
472.497	1	2
472.668	1	-2
472.838	1	13
473.009	1	9
473.179	1	9
473.349	1	9
473.520	1	5
473.690	1	12
473.860	1	2
474.031	1	4
474.201	1	-1
474.371	1	6
474.542	1	-4
474.712	1	6
474.882	1	5
475.053	1	-6
475.223	1	-4
475.394	1	5
475.564	1	14
475.734	1	0
475.905	1	9
476.075	1	9
476.245	1	-3
476.416	1	0
476.586	1	1
476.756	1	0
476.927	1	7
477.097	1	1
477.267	1	-2
477.438	1	-3
477.608	1	1
477.778	1	5
477.949	1	8
478.119	1	9
478.289	1	6
478.460	1	-3
478.630	1	-4
478.800	1	3
478.971	1	-3
479.141	1	11
479.311	1	3
479.482	1	-3
479.652	1	5
479.822	1	-1
479.993	1	6
480.163	1	-5
480.333	1	2
480.504	1	5
480.674	1	6
480.844	1	9
481.015	1	-2
481.185	1	13
481.355	1	6
481.525	1	0
481.696	1	7
481.866	1	4
482.036	1	0
482.207	1	5
482.377	1	5
482.547	1	-1
482.718	1	7
482.888	1	-4
483.058	1	-6
483.229	1	2
483.399	1	2
483.569	1	14
483.740	1	-10
483.910	1	6
484.080	1	1
484.250	1	13
484.421	1	2
484.591	1	2
484.761	1	-4
484.932	1	3
485.102	1	-3
485.272	1	8
485.443	1	15
485.613	1	-14
485.783	1	16
485.953	1	4
486.124	1	12
486.294	1	9
486.464	1	2
486.635	1	6
486.805	1	17
486.975	1	-10
487.146	1	1
487.316	1	6
487.486	1	4
487.656	1	1
487.827	1	4
487.997	1	5
488.167	1	6
488.338	1	21
488.508	1	8
488.678	1	1
488.848	1	-4
489.019	1	-3
489.189	1	1
489.359	1	1
489.529	1	3
489.700	1	5
489.870	1	-1
490.040	1	-1
490.211	1	15
490.381	1	1
490.551	1	-5
490.721	1	7
490.892	1	13
491.062	1	15
491.232	1	13
491.402	1	-4
491.573	1	4
491.743	1	-2
491.913	1	4
492.084	1	2
492.254	1	5
492.424	1	13
492.594	1	13
492.765	1	10
492.935	1	-1
493.105	1	15
493.275	1	15
493.446	1	0
493.616	1	11
493.786	1	9
493.956	1	10
494.127	1	-2
494.297	1	6
494.467	1	12
494.637	1	8
494.808	1	8
494.978	1	4
495.148	1	7
495.318	1	14
495.489	1	6
495.659	1	15
495.829	1	5
495.999	1	3
496.170	1	0
496.340	1	4
496.510	1	5
496.680	1	10
496.851	1	6
497.021	1	0
497.191	1	8
497.361	1	8
497.532	1	2
497.702	1	-2
497.872	1	8
498.042	1	12
498.213	1	12
498.383	1	-9
498.553	1	3
498.723	1	13
498.894	1	4
499.064	1	16
499.234	1	4
499.404	1	11
499.574	1	4
499.745	1	16
499.915	1	8
500.085	1	6
500.255	1	7
500.426	1	7
500.596	1	-3
500.766	1	12
500.936	1	-2
501.106	1	6
501.277	1	14
501.447	1	9
501.617	1	11
501.787	1	8
501.958	1	6
502.128	1	4
502.298	1	14
502.468	1	12
502.638	1	9
502.809	1	20
502.979	1	5
503.149	1	11
503.319	1	8
503.489	1	4
503.660	1	4
503.830	1	14
504.000	1	10
504.170	1	9
504.340	1	15
504.511	1	15
504.681	1	10
504.851	1	3
505.021	1	12
505.192	1	26
505.362	1	14
505.532	1	10
505.702	1	10
505.872	1	3
506.043	1	9
506.213	1	13
506.383	1	9
506.553	1	26
506.723	1	13
506.893	1	9
507.064	1	2
507.234	1	20
507.404	1	7
507.574	1	10
507.744	1	-2
507.915	1	13
508.085	1	10
508.255	1	16
508.425	1	18
508.595	1	18
508.766	1	21
508.936	1	22
509.106	1	7
509.276	1	16
509.446	1	4
509.616	1	18
509.787	1	7
509.957	1	16
510.127	1	16
510.297	1	6
510.467	1	15
510.638	1	7
510.808	1	9
510.978	1	5
511.148	1	23
511.318	1	21
511.488	1	19
511.659	1	9
511.829	1	8
511.999	1	24
512.169	1	18
512.339	1	9
512.509	1	18
512.680	1	13
512.850	1	20
513.020	1	13
513.190	1	7
513.360	1	19
513.530	1	15
513.700	1	25
513.871	1	24
514.041	1	9
514.211	1	9
514.381	1	13
514.551	1	9
514.721	1	24
514.892	1	22
515.062	1	21
515.232	1	17
515.402	1	21
515.572	1	12
515.742	1	21
515.912	1	14
516.083	1	16
516.253	1	19
516.423	1	36
516.593	1	13
516.763	1	14
516.933	1	19
517.104	1	25
517.274	1	17
517.444	1	16
517.614	1	14
517.784	1	10
517.954	1	9
518.124	1	21
518.294	1	24
518.465	1	26
518.635	1	21
518.805	1	16
518.975	1	23
519.145	1	16
519.315	1	12
519.485	1	10
519.656	1	18
519.826	1	27
519.996	1	26
520.166	1	10
520.336	1	18
520.506	1	18
520.676	1	3
520.846	1	6
521.017	1	3
521.187	1	11
521.357	1	11
521.527	1	22
521.697	1	18
521.867	1	16
522.037	1	18
522.207	1	7
522.377	1	26
522.548	1	5
522.718	1	12
522.888	1	13
523.058	1	30
523.228	1	26
523.398	1	20
523.568	1	6
523.738	1	29
523.909	1	23
524.079	1	25
524.249	1	24
524.419	1	19
524.589	1	23
524.759	1	18
524.929	1	17
525.099	1	24
525.269	1	17
525.439	1	15
525.610	1	18
525.780	1	30
525.950	1	17
526.120	1	16
526.290	1	21
526.460	1	24
526.630	1	20
526.800	1	15
526.970	1	14
527.140	1	19
527.311	1	26
527.481	1	26
527.651	1	28
527.821	1	14
527.991	1	19
528.161	1	18
528.331	1	21
528.501	1	10
528.671	1	15
528.841	1	29
529.011	1	23
529.181	1	15
529.352	1	17
529.522	1	28
529.692	1	27
529.862	1	22
530.032	1	9
530.202	1	30
530.372	1	17
530.542	1	27
530.712	1	31
530.882	1	12
531.052	1	25
531.222	1	12
531.392	1	24
531.563	1	27
531.733	1	16
531.903	1	21
532.073	1	16
532.243	1	27
532.413	1	16
532.583	1	27
532.753	1	31
532.923	1	24
533.093	1	25
533.263	1	38
533.433	1	19
533.603	1	20
533.773	1	22
533.943	1	19
534.113	1	17
534.284	1	22
534.454	1	24
534.624	1	26
534.794	1	16
534.964	1	9
535.134	1	23
535.304	1	33
535.474	1	18
535.644	1	14
535.814	1	20
535.984	1	15
536.154	1	23
536.324	1	18
536.494	1	25
536.664	1	26
536.834	1	21
537.004	1	32
537.174	1	23
537.344	1	16
537.514	1	25
537.685	1	21
537.855	1	28
538.025	1	31
538.195	1	21
538.365	1	22
538.535	1	30
538.705	1	8
538.875	1	25
539.045	1	26
539.215	1	9
539.385	1	10
539.555	1	16
539.725	1	18
539.895	1	21
540.065	1	14
540.235	1	11
540.405	1	22
540.575	1	21
540.745	1	19
540.915	1	32
541.085	1	16
541.255	1	13
541.425	1	29
541.595	1	31
541.765	1	4
541.935	1	35
542.105	1	25
542.275	1	10
542.445	1	28
542.615	1	14
542.785	1	19
542.955	1	27
543.125	1	13
543.295	1	29
543.465	1	28
543.635	1	13
543.805	1	25
543.975	1	15
544.145	1	17
544.315	1	11
544.485	1	15
544.655	1	23
544.825	1	25
544.995	1	17
545.165	1	21
545.335	1	17
545.505	1	17
545.675	1	15
545.845	1	14
546.015	1	28
546.185	1	21
546.355	1	24
546.525	1	27
546.695	1	6
546.865	1	17
547.035	1	23
547.205	1	13
547.375	1	26
547.545	1	23
547.715	1	14
547.885	1	17
548.055	1	17
548.225	1	22
548.395	1	10
548.565	1	23
548.735	1	20
548.905	1	14
549.075	1	11
549.245	1	24
549.415	1	23
549.585	1	14
549.755	1	18
549.925	1	19
550.095	1	21
550.265	1	9
550.435	1	26
550.605	1	15
550.775	1	20
550.945	1	17
551.115	1	8
551.285	1	22
551.455	1	24
551.625	1	8
551.795	1	14
551.965	1	17
552.135	1	18
552.305	1	19
552.475	1	18
552.645	1	29
552.815	1	16
552.985	1	22
553.155	1	14
553.325	1	28
553.495	1	12
553.665	1	11
553.835	1	18
554.004	1	18
554.174	1	11
554.344	1	7
554.514	1	18
554.684	1	24
554.854	1	29
555.024	1	6
555.194	1	25
555.364	1	13
555.534	1	12
555.704	1	18
555.874	1	17
556.044	1	19
556.214	1	24
556.384	1	19
556.554	1	15
556.724	1	12
556.894	1	25
557.064	1	9
557.234	1	12
557.404	1	4
557.573	1	10
557.743	1	17
557.913	1	13
558.083	1	2
558.253	1	10
558.423	1	7
558.593	1	11
558.763	1	7
558.933	1	18
559.103	1	17
559.273	1	16
559.443	1	11
559.613	1	19
559.783	1	18
559.953	1	6
560.122	1	3
560.292	1	14
560.462	1	8
560.632	1	12
560.802	1	10
560.972	1	31
561.142	1	14
561.312	1	13
561.482	1	15
561.652	1	16
561.822	1	9
561.992	1	13
562.162	1	7
562.331	1	12
562.501	1	6
562.671	1	18
562.841	1	3
563.011	1	13
563.181	1	13
563.351	1	0
563.521	1	14
563.691	1	7
563.861	1	20
564.031	1	19
564.201	1	13
564.370	1	14
564.540	1	24
564.710	1	-6
564.880	1	8
565.050	1	8
565.220	1	16
565.390	1	-3
565.560	1	16
565.730	1	18
565.900	1	5
566.069	1	19
566.239	1	13
566.409	1	10
566.579	1	20
566.749	1	10
566.919	1	11
567.089	1	13
567.259	1	21
567.429	1	12
567.599	1	6
567.768	1	18
567.938	1	3
568.108	1	7
568.278	1	3
568.448	1	8
568.618	1	11
568.788	1	15
568.958	1	9
569.128	1	12
569.297	1	16
569.467	1	15
569.637	1	8
569.807	1	1
569.977	1	3
570.147	1	8
570.317	1	29
570.487	1	7
570.656	1	11
570.826	1	8
570.996	1	19
571.166	1	12
571.336	1	12
571.506	1	0
571.676	1	7
571.846	1	15
572.015	1	-3
572.185	1	-1
572.355	1	30
572.525	1	2
572.695	1	12
572.865	1	16
573.035	1	13
573.205	1	14
573.374	1	14
573.544	1	10
573.714	1	18
573.884	1	11
574.054	1	0
574.224	1	7
574.394	1	6
574.563	1	8
574.733	1	8
574.903	1	10
575.073	1	6
575.243	1	1
575.413	1	7
575.583	1	7
575.752	1	6
575.922	1	18
576.092	1	15
576.262	1	8
576.432	1	-4
576.602	1	10
576.772	1	7
576.941	1	13
577.111	1	8
577.281	1	17
577.451	1	5
577.621	1	7
577.791	1	13
577.960	1	6
578.130	1	5
578.300	1	6
578.470	1	7
578.640	1	-2
578.810	1	9
578.979	1	10
579.149	1	7
579.319	1	13
579.489	1	0
579.659	1	7
579.829	1	16
579.998	1	3
580.168	1	9
580.338	1	-8
580.508	1	5
580.678	1	8
580.848	1	15
581.017	1	8
581.187	1	7
581.357	1	10
581.527	1	5
581.697	1	-1
581.867	1	-1
582.036	1	21
582.206	1	-1
582.376	1	5
582.546	1	16
582.716	1	14
582.885	1	8
583.055	1	10
583.225	1	13
583.395	1	18
583.565	1	16
583.735	1	-4
583.904	1	7
584.074	1	4
584.244	1	18
584.414	1	1
584.584	1	13
584.753	1	-1
584.923	1	6
585.093	1	15
585.263	1	14
585.433	1	7
585.602	1	3
585.772	1	8
585.942	1	14
586.112	1	5
586.282	1	1
586.451	1	5
586.621	1	9
586.791	1	10
586.961	1	5
587.131	1	7
587.300	1	5
587.470	1	10
587.640	1	-4
587.810	1	1
587.980	1	6
588.149	1	12
588.319	1	13
588.489	1	12
588.659	1	3
588.829	1	7
588.998	1	-4
589.168	1	13
589.338	1	8
589.508	1	5
589.677	1	9
589.847	1	3
590.017	1	-5
590.187	1	1
590.357	1	1
590.526	1	7
590.696	1	7
590.866	1	8
591.036	1	19
591.205	1	14
591.375	1	-2
591.545	1	3
591.715	1	2
591.885	1	13
592.054	1	5
592.224	1	8
592.394	1	5
592.564	1	-1
592.733	1	-3
592.903	1	10
593.073	1	11
593.243	1	1
593.412	1	6
593.582	1	16
593.752	1	-3
593.922	1	2
594.091	1	9
594.261	1	12
594.431	1	7
594.601	1	0
594.771	1	9
594.940	1	0
595.110	1	9
595.280	1	-5
595.450	1	11
595.619	1	0
595.789	1	-3
595.959	1	8
596.129	1	0
596.298	1	13
596.468	1	0
596.638	1	9
596.808	1	7
596.977	1	0
597.147	1	7
597.317	1	14
597.487	1	4
597.656	1	6
597.826	1	10
597.996	1	8
598.166	1	7
598.335	1	7
598.505	1	1
598.675	1	13
598.844	1	1
599.014	1	5
599.184	1	-6
599.354	1	-8
599.523	1	6
599.693	1	13
599.863	1	15
600.033	1	-2
600.202	1	4
600.372	1	1
600.542	1	0
600.712	1	2
600.881	1	12
601.051	1	8
601.221	1	-4
601.390	1	-6
601.560	1	5
601.730	1	3
601.900	1	2
602.069	1	6
602.239	1	1
602.409	1	0
602.578	1	1
602.748	1	-3
602.918	1	0
603.088	1	11
603.257	1	14
603.427	1	8
603.597	1	22
603.767	1	-4
603.936	1	4
604.106	1	5
604.276	1	4
604.445	1	2
604.615	1	1
604.785	1	8
604.954	1	8
605.124	1	-9
605.294	1	3
605.464	1	4
605.633	1	12
605.803	1	11
605.973	1	2
606.142	1	3
606.312	1	5
606.482	1	8
606.652	1	-3
606.821	1	11
606.991	1	7
607.161	1	4
607.330	1	14
607.500	1	5
607.670	1	-4
607.839	1	0
608.009	1	-7
608.179	1	5
608.348	1	10
608.518	1	5
608.688	1	1
608.858	1	5
609.027	1	4
609.197	1	2
609.367	1	-6
609.536	1	1
609.706	1	6
609.876	1	1
610.045	1	6
610.215	1	-2
610.385	1	-3
610.554	1	0
610.724	1	6
610.894	1	8
611.063	1	10
611.233	1	8
611.403	1	7
611.572	1	12
611.742	1	1
611.912	1	-4
612.081	1	3
612.251	1	1
612.421	1	19
612.590	1	1
612.760	1	8
612.930	1	7
613.099	1	-9
613.269	1	3
613.439	1	-1
613.608	1	9
613.778	1	1
613.948	1	9
614.117	1	10
614.287	1	0
614.457	1	6
614.626	1	14
614.796	1	6
614.966	1	6
615.135	1	-5
615.305	1	-3
615.475	1	9
615.644	1	-3
615.814	1	4
615.984	1	25
616.153	1	4
616.323	1	-7
616.493	1	4
616.662	1	10
616.832	1	-1
617.002	1	2
617.171	1	-3
617.341	1	6
617.511	1	0
617.680	1	0
617.850	1	2
618.019	1	1
618.189	1	-2
618.359	1	10
618.528	1	-3
618.698	1	8
618.868	1	5
619.037	1	15
619.207	1	-1
619.377	1	-8
619.546	1	1
619.716	1	-2
619.885	1	9
620.055	1	2
620.225	1	3
620.394	1	-4
620.564	1	3
620.734	1	12
620.903	1	15
621.073	1	-4
621.242	1	-4
621.412	1	4
621.582	1	1
621.751	1	-6
621.921	1	-1
622.091	1	-3
622.260	1	-5
622.430	1	9
622.599	1	12
622.769	1	8
622.939	1	7
623.108	1	0
623.278	1	4
623.448	1	-8
623.617	1	9
623.787	1	6
623.956	1	9
624.126	1	6
624.296	1	-5
624.465	1	13
624.635	1	12
624.804	1	-6
624.974	1	-3
625.144	1	0
625.313	1	4
625.483	1	8
625.652	1	7
625.822	1	9
625.992	1	3
626.161	1	8
626.331	1	8
626.501	1	4
626.670	1	-1
626.840	1	7
627.009	1	-7
627.179	1	3
627.348	1	4
627.518	1	11
627.688	1	5
627.857	1	6
628.027	1	-1
628.196	1	10
628.366	1	10
628.536	1	8
628.705	1	4
628.875	1	7
629.044	1	10
629.214	1	4
629.384	1	-2
629.553	1	-6
629.723	1	13
629.892	1	-2
630.062	1	-5
630.232	1	16
630.401	1	1
630.571	1	6
630.740	1	13
630.910	1	-1
631.079	1	21
631.249	1	1
631.419	1	-1
631.588	1	1
631.758	1	4
631.927	1	5
632.097	1	11
632.266	1	-3
632.436	1	-3
632.606	1	8
632.775	1	0
632.945	1	8
633.114	1	5
633.284	1	-6
633.453	1	4
633.623	1	6
633.793	1	7
633.962	1	12
634.132	1	3
634.301	1	3
634.471	1	-14
634.640	1	7
634.810	1	8
634.979	1	2
635.149	1	9
635.319	1	6
635.488	1	9
635.658	1	-4
635.827	1	2
635.997	1	3
636.166	1	-1
636.336	1	11
636.505	1	0
636.675	1	-3
636.845	1	7
637.014	1	10
637.184	1	1
637.353	1	4
637.523	1	-12
637.692	1	7
637.862	1	-7
638.031	1	5
638.201	1	9
638.370	1	8
638.540	1	0
638.710	1	0
638.879	1	-1
639.049	1	1
639.218	1	1
639.388	1	13
639.557	1	7
639.727	1	7
639.896	1	-1
640.066	1	4
640.235	1	10
640.405	1	9
640.574	1	-9
640.744	1	-2
640.914	1	-2
641.083	1	-1
641.253	1	0
641.422	1	-10
641.592	1	-5
641.761	1	2
641.931	1	10
642.100	1	2
642.270	1	0
642.439	1	3
642.609	1	7
642.778	1	0
642.948	1	0
643.117	1	4
643.287	1	4
643.456	1	10
643.626	1	-6
643.795	1	7
643.965	1	1
644.134	1	5
644.304	1	0
644.473	1	4
644.643	1	-5
644.812	1	12
644.982	1	1
645.151	1	0
645.321	1	14
645.490	1	2
645.660	1	0
645.829	1	-12
645.999	1	1
646.168	1	-1
646.338	1	5
646.507	1	7
646.677	1	9
646.846	1	12
647.016	1	2
647.185	1	-3
647.355	1	-4
647.524	1	5
647.694	1	-7
647.863	1	-2
648.033	1	-11
648.202	1	8
648.372	1	-2
648.541	1	-2
648.711	1	3
648.880	1	-4
649.050	1	-2
649.219	1	5
649.389	1	5
649.558	1	-7
649.728	1	11
649.897	1	-5
650.067	1	-1
650.236	1	8
650.406	1	5
650.575	1	2
650.745	1	-4
650.914	1	-1
651.084	1	-4
651.253	1	-4
651.423	1	7
651.592	1	0
651.762	1	5
651.931	1	-6
652.101	1	11
652.270	1	-1
652.440	1	3
652.609	1	3
652.778	1	-2
652.948	1	1
653.117	1	4
653.287	1	15
653.456	1	5
653.626	1	10
653.795	1	0
653.965	1	15
654.134	1	17
654.304	1	3
654.473	1	1
654.643	1	17
654.812	1	3
654.982	1	-7
655.151	1	-10
655.320	1	-6
655.490	1	9
655.659	1	-5
655.829	1	-1
655.998	1	7
656.168	1	6
656.337	1	-7
656.507	1	1
656.676	1	-2
656.846	1	-6
657.015	1	-5
657.184	1	3
657.354	1	-3
657.523	1	3
657.693	1	7
657.862	1	3
658.032	1	18
658.201	1	-2
658.371	1	-6
658.540	1	1
658.709	1	1
658.879	1	1
659.048	1	15
659.218	1	-7
659.387	1	-1
659.557	1	0
659.726	1	1
659.895	1	-3
660.065	1	-2
660.234	1	8
660.404	1	9
660.573	1	-1
660.743	1	1
660.912	1	-2
661.081	1	1
661.251	1	1
661.420	1	1
661.590	1	4
661.759	1	8
661.929	1	-1
662.098	1	-8
662.267	1	6
662.437	1	7
662.606	1	8
662.776	1	4
662.945	1	7
663.115	1	-8
663.284	1	-1
663.453	1	0
663.623	1	6
663.792	1	6
663.962	1	-4
664.131	1	-8
664.300	1	10
664.470	1	4
664.639	1	-1
664.809	1	-3
664.978	1	1
665.148	1	-2
665.317	1	-4
665.486	1	-1
665.656	1	2
665.825	1	5
665.995	1	8
666.164	1	5
666.333	1	15
666.503	1	4
666.672	1	-15
666.842	1	-4
667.011	1	3
667.180	1	-5
667.350	1	12
667.519	1	20
667.689	1	-1
667.858	1	11
668.027	1	-5
668.197	1	8
668.366	1	0
668.536	1	9
668.705	1	2
668.874	1	-3
669.044	1	-8
669.213	1	8
669.382	1	-5
669.552	1	12
669.721	1	7
669.891	1	9
670.060	1	2
670.229	1	3
670.399	1	9
670.568	1	8
670.738	1	-8
670.907	1	-7
671.076	1	6
671.246	1	13
671.415	1	7
671.584	1	8
671.754	1	-1
671.923	1	-11
672.093	1	5
672.262	1	6
672.431	1	-1
672.601	1	-5
672.770	1	2
672.939	1	-3
673.109	1	-1
673.278	1	7
673.448	1	8
673.617	1	13
673.786	1	-10
