325.333	1	-11
325.504	1	11
325.675	1	-4
325.846	1	-7
326.017	1	0
326.188	1	11
326.359	1	5
326.531	1	-3
326.702	1	2
326.873	1	0
327.044	1	-2
327.215	1	2
327.386	1	0
327.557	1	7
327.728	1	-8
327.899	1	-6
328.070	1	0
328.241	1	-4
328.412	1	3
328.583	1	-6
328.754	1	-1
328.926	1	2
329.097	1	-6
329.268	1	-3
329.439	1	1
329.610	1	-5
329.781	1	-2
329.952	1	6
330.123	1	-4
330.294	1	6
330.465	1	2
330.636	1	4
330.807	1	5
330.978	1	-5
331.149	1	0
331.320	1	-2
331.492	1	-1
331.663	1	-7
331.834	1	11
332.005	1	1
332.176	1	0
332.347	1	2
332.518	1	6
332.689	1	3
332.860	1	4
333.031	1	-1
333.202	1	-3
333.373	1	-6
333.544	1	-2
333.715	1	-2
333.886	1	-2
334.057	1	-11
334.228	1	4
334.399	1	4
334.570	1	-6
334.741	1	-6
334.912	1	-17
335.084	1	-4
335.255	1	-2
335.426	1	2
335.597	1	-4
335.768	1	4
335.939	1	-2
336.110	1	-4
336.281	1	-8
336.452	1	0
336.623	1	4
336.794	1	-15
336.965	1	-5
337.136	1	0
337.307	1	3
337.478	1	4
337.649	1	4
337.820	1	11
337.991	1	-4
338.162	1	-2
338.333	1	-5
338.504	1	-6
338.675	1	6
338.846	1	6
339.017	1	1
339.188	1	2
339.359	1	2
339.530	1	3
339.701	1	0
339.872	1	-1
340.043	1	1
340.214	1	-6
340.385	1	0
340.556	1	-2
340.727	1	4
340.898	1	0
341.069	1	2
341.240	1	0
341.411	1	1
341.582	1	-1
341.753	1	0
341.924	1	-3
342.095	1	-2
342.266	1	-3
342.437	1	5
342.608	1	-6
342.779	1	-7
342.950	1	5
343.121	1	5
343.292	1	-9
343.463	1	0
343.634	1	-9
343.805	1	2
343.976	1	0
344.147	1	-12
344.318	1	9
344.489	1	-9
344.660	1	9
344.831	1	-8
345.002	1	2
345.173	1	-4
345.344	1	1
345.515	1	-2
345.686	1	0
345.857	1	-8
346.028	1	-5
346.199	1	-7
346.370	1	-4
346.541	1	-1
346.712	1	2
346.883	1	-10
347.054	1	-3
347.225	1	-9
347.396	1	6
347.567	1	1
347.738	1	5
347.909	1	-3
348.080	1	-10
348.251	1	2
348.422	1	4
348.593	1	-3
348.764	1	-7
348.935	1	2
349.106	1	1
349.277	1	-19
349.448	1	8
349.619	1	1
349.790	1	-5
349.961	1	0
350.132	1	0
350.303	1	-10
350.474	1	6
350.645	1	0
350.816	1	-7
350.987	1	-5
351.157	1	1
351.328	1	2
351.499	1	6
351.670	1	3
351.841	1	4
352.012	1	-11
352.183	1	1
352.354	1	-2
352.525	1	0
352.696	1	-10
352.867	1	0
353.038	1	11
353.209	1	2
353.380	1	1
353.551	1	-1
353.722	1	-5
353.893	1	0
354.064	1	6
354.235	1	-1
354.406	1	-7
354.576	1	10
354.747	1	-5
354.918	1	-6
355.089	1	0
355.260	1	4
355.431	1	8
355.602	1	-1
355.773	1	-8
355.944	1	0
356.115	1	-3
356.286	1	-8
356.457	1	0
356.628	1	-6
356.799	1	-10
356.970	1	-8
357.141	1	-5
357.311	1	-1
357.482	1	1
357.653	1	5
357.824	1	-2
357.995	1	-4
358.166	1	1
358.337	1	5
358.508	1	-4
358.679	1	5
358.850	1	5
359.021	1	-9
359.192	1	0
359.363	1	-5
359.533	1	4
359.704	1	0
359.875	1	-2
360.046	1	4
360.217	1	10
360.388	1	6
360.559	1	1
360.730	1	-1
360.901	1	7
361.072	1	-3
361.243	1	8
361.414	1	14
361.584	1	8
361.755	1	6
361.926	1	9
362.097	1	-14
362.268	1	2
362.439	1	-4
362.610	1	-3
362.781	1	5
362.952	1	10
363.123	1	4
363.293	1	6
363.464	1	18
363.635	1	2
363.806	1	5
363.977	1	4
364.148	1	1
364.319	1	-1
364.490	1	-6
364.661	1	-3
364.832	1	2
365.002	1	6
365.173	1	16
365.344	1	0
365.515	1	1
365.686	1	1
365.857	1	7
366.028	1	4
366.199	1	9
366.370	1	3
366.540	1	5
366.711	1	5
366.882	1	6
367.053	1	9
367.224	1	17
367.395	1	6
367.566	1	9
367.737	1	-6
367.908	1	7
368.078	1	10
368.249	1	1
368.420	1	-4
368.591	1	9
368.762	1	4
368.933	1	6
369.104	1	7
369.274	1	7
369.445	1	4
369.616	1	2
369.787	1	7
369.958	1	1
370.129	1	7
370.300	1	-3
370.471	1	14
370.641	1	12
370.812	1	-1
370.983	1	-8
371.154	1	6
371.325	1	9
371.496	1	-4
371.667	1	-6
371.837	1	-13
372.008	1	1
372.179	1	6
372.350	1	-6
372.521	1	1
372.692	1	-4
372.863	1	6
373.033	1	-3
373.204	1	6
373.375	1	5
373.546	1	0
373.717	1	-1
373.888	1	0
374.059	1	2
374.229	1	-9
374.400	1	0
374.571	1	5
374.742	1	4
374.913	1	-4
375.084	1	2
375.254	1	1
375.425	1	1
375.596	1	-6
375.767	1	6
375.938	1	4
376.109	1	3
376.279	1	-13
376.450	1	-3
376.621	1	8
376.792	1	-7
376.963	1	11
377.134	1	-1
377.304	1	1
377.475	1	-3
377.646	1	-4
377.817	1	13
377.988	1	-9
378.159	1	1
378.329	1	2
378.500	1	-9
378.671	1	4
378.842	1	-12
379.013	1	0
379.184	1	-1
379.354	1	-2
379.525	1	10
379.696	1	-5
379.867	1	-2
380.038	1	6
380.209	1	9
380.379	1	-5
380.550	1	7
380.721	1	13
380.892	1	11
381.063	1	1
381.233	1	17
381.404	1	8
381.575	1	-6
381.746	1	7
381.917	1	-6
382.087	1	3
382.258	1	14
382.429	1	-2
382.600	1	6
382.771	1	-1
382.941	1	6
383.112	1	6
383.283	1	9
383.454	1	2
383.625	1	8
383.795	1	10
383.966	1	12
384.137	1	5
384.308	1	6
384.479	1	14
384.649	1	7
384.820	1	-2
384.991	1	6
385.162	1	5
385.333	1	14
385.503	1	3
385.674	1	5
385.845	1	17
386.016	1	10
386.187	1	12
386.357	1	1
386.528	1	18
386.699	1	9
386.870	1	20
387.041	1	-4
387.211	1	14
387.382	1	0
387.553	1	6
387.724	1	8
387.894	1	17
388.065	1	14
388.236	1	15
388.407	1	12
388.578	1	16
388.748	1	21
388.919	1	5
389.090	1	16
389.261	1	-15
389.431	1	17
389.602	1	13
389.773	1	7
389.944	1	17
390.114	1	13
390.285	1	-2
390.456	1	5
390.627	1	-3
390.798	1	13
390.968	1	4
391.139	1	9
391.310	1	14
391.481	1	9
391.651	1	13
391.822	1	17
391.993	1	12
392.164	1	-5
392.334	1	14
392.505	1	7
392.676	1	11
392.847	1	7
393.017	1	-2
393.188	1	5
393.359	1	16
393.530	1	8
393.700	1	15
393.871	1	5
394.042	1	12
394.213	1	8
394.383	1	8
394.554	1	10
394.725	1	6
394.896	1	1
395.066	1	7
395.237	1	22
395.408	1	9
395.579	1	13
395.749	1	14
395.920	1	8
396.091	1	9
396.262	1	11
396.432	1	-3
396.603	1	4
396.774	1	6
396.945	1	16
397.115	1	15
397.286	1	19
397.457	1	6
397.627	1	5
397.798	1	2
397.969	1	3
398.140	1	14
398.310	1	18
398.481	1	-1
398.652	1	15
398.823	1	19
398.993	1	-3
399.164	1	10
399.335	1	13
399.505	1	8
399.676	1	17
399.847	1	5
400.018	1	11
400.188	1	18
400.359	1	8
400.530	1	13
400.700	1	6
400.871	1	-7
401.042	1	11
401.213	1	10
401.383	1	22
401.554	1	1
401.725	1	12
401.895	1	9
402.066	1	6
402.237	1	13
402.408	1	15
402.578	1	3
402.749	1	-2
402.920	1	-1
403.090	1	7
403.261	1	7
403.432	1	9
403.603	1	13
403.773	1	5
403.944	1	18
404.115	1	1
404.285	1	3
404.456	1	-3
404.627	1	8
404.797	1	18
404.968	1	7
405.139	1	-3
405.310	1	0
405.480	1	14
405.651	1	9
405.822	1	11
405.992	1	7
406.163	1	17
406.334	1	11
406.504	1	2
406.675	1	8
406.846	1	4
407.016	1	11
407.187	1	6
407.358	1	-2
407.528	1	8
407.699	1	7
407.870	1	16
408.041	1	5
408.211	1	1
408.382	1	15
408.553	1	11
408.723	1	-1
408.894	1	-2
409.065	1	16
409.235	1	-8
409.406	1	4
409.577	1	9
409.747	1	5
409.918	1	-1
410.089	1	9
410.259	1	-2
410.430	1	16
410.601	1	-1
410.771	1	6
410.942	1	12
411.113	1	-6
411.283	1	6
411.454	1	3
411.625	1	5
411.795	1	10
411.966	1	-14
412.137	1	-1
412.307	1	13
412.478	1	13
412.649	1	0
412.819	1	7
412.990	1	16
413.161	1	5
413.331	1	-8
413.502	1	16
413.672	1	4
413.843	1	-1
414.014	1	3
414.184	1	2
414.355	1	3
414.526	1	0
414.696	1	3
414.867	1	6
415.038	1	4
415.208	1	-4
415.379	1	10
415.550	1	8
415.720	1	-3
415.891	1	9
416.062	1	5
416.232	1	6
416.403	1	7
416.573	1	6
416.744	1	9
416.915	1	2
417.085	1	0
417.256	1	1
417.427	1	2
417.597	1	3
417.768	1	-3
417.939	1	12
418.109	1	13
418.280	1	4
418.450	1	1
418.621	1	12
418.792	1	3
418.962	1	-6
419.133	1	-8
419.304	1	10
419.474	1	6
419.645	1	6
419.815	1	0
419.986	1	8
420.157	1	2
420.327	1	9
420.498	1	15
420.669	1	-5
420.839	1	0
421.010	1	14
421.180	1	-4
421.351	1	13
421.522	1	11
421.692	1	4
421.863	1	-7
422.033	1	3
422.204	1	0
422.375	1	-11
422.545	1	8
422.716	1	7
422.886	1	2
423.057	1	-3
423.228	1	-6
423.398	1	3
423.569	1	3
423.740	1	-13
423.910	1	-4
424.081	1	6
424.251	1	-4
424.422	1	0
424.593	1	11
424.763	1	0
424.934	1	1
425.104	1	15
425.275	1	-6
425.445	1	-8
425.616	1	4
425.787	1	-5
425.957	1	8
426.128	1	-3
426.298	1	8
426.469	1	1
426.640	1	3
426.810	1	8
426.981	1	-3
427.151	1	6
427.322	1	5
427.493	1	11
427.663	1	5
427.834	1	-4
428.004	1	1
428.175	1	-1
428.345	1	11
428.516	1	3
428.687	1	1
428.857	1	-3
429.028	1	1
429.198	1	-4
429.369	1	4
429.540	1	3
429.710	1	-12
429.881	1	17
430.051	1	13
430.222	1	5
430.392	1	-1
430.563	1	9
430.734	1	4
430.904	1	1
431.075	1	10
431.245	1	4
431.416	1	-5
431.586	1	-1
431.757	1	8
431.927	1	-2
432.098	1	0
432.269	1	4
432.439	1	-9
432.610	1	-3
432.780	1	-2
432.951	1	4
433.121	1	1
433.292	1	9
433.462	1	0
433.633	1	-1
433.804	1	-9
433.974	1	-4
434.145	1	-2
434.315	1	9
434.486	1	-1
434.656	1	10
434.827	1	-7
434.997	1	4
435.168	1	-3
435.339	1	5
435.509	1	7
435.680	1	-7
435.850	1	-4
436.021	1	2
436.191	1	5
436.362	1	-3
436.532	1	4
436.703	1	3
436.873	1	-1
437.044	1	4
437.214	1	-3
437.385	1	-4
437.556	1	-5
437.726	1	3
437.897	1	2
438.067	1	2
438.238	1	-9
438.408	1	3
438.579	1	4
438.749	1	5
438.920	1	-1
439.090	1	9
439.261	1	4
439.431	1	3
439.602	1	2
439.772	1	8
439.943	1	1
440.113	1	1
440.284	1	5
440.455	1	-5
440.625	1	10
440.796	1	5
440.966	1	9
441.137	1	-14
441.307	1	-6
441.478	1	10
441.648	1	-11
441.819	1	-3
441.989	1	-3
442.160	1	9
442.330	1	2
442.501	1	-9
442.671	1	3
442.842	1	-4
443.012	1	-2
443.183	1	-8
443.353	1	3
443.524	1	3
443.694	1	-2
443.865	1	4
444.035	1	-4
444.206	1	-5
444.376	1	8
444.547	1	-2
444.717	1	3
444.888	1	-6
445.058	1	15
445.229	1	4
445.399	1	16
445.570	1	0
445.740	1	10
445.911	1	5
446.081	1	0
446.252	1	-7
446.422	1	-1
446.593	1	-7
446.763	1	8
446.934	1	12
447.104	1	-8
447.275	1	-4
447.445	1	-6
447.616	1	11
447.786	1	-8
447.957	1	1
448.127	1	2
448.298	1	1
448.468	1	-1
448.639	1	3
448.809	1	1
448.979	1	1
449.150	1	-3
449.320	1	-1
449.491	1	2
449.661	1	-9
449.832	1	-6
450.002	1	-2
450.173	1	-2
450.343	1	4
450.514	1	-3
450.684	1	1
450.855	1	1
451.025	1	-2
451.196	1	-6
451.366	1	6
451.537	1	-6
451.707	1	-5
451.878	1	-6
452.048	1	-5
452.218	1	-5
452.389	1	1
452.559	1	-7
452.730	1	5
452.900	1	1
453.071	1	5
453.241	1	-9
453.412	1	-8
453.582	1	-1
453.753	1	-6
453.923	1	0
454.093	1	5
454.264	1	-8
454.434	1	-2
454.605	1	1
454.775	1	5
454.946	1	-1
455.116	1	0
455.287	1	2
455.457	1	0
455.628	1	-6
455.798	1	-15
455.968	1	1
456.139	1	1
456.309	1	-13
456.480	1	-5
456.650	1	2
456.821	1	2
456.991	1	4
457.161	1	2
457.332	1	2
457.502	1	-3
457.673	1	-9
457.843	1	6
458.014	1	5
458.184	1	-6
458.355	1	5
458.525	1	-1
458.695	1	6
458.866	1	-5
459.036	1	9
459.207	1	7
459.377	1	-4
459.548	1	-6
459.718	1	-10
459.888	1	13
460.059	1	2
460.229	1	17
460.400	1	0
460.570	1	-6
460.740	1	-16
460.911	1	9
461.081	1	-7
461.252	1	1
461.422	1	0
461.593	1	3
461.763	1	7
461.933	1	-5
462.104	1	3
462.274	1	-2
462.445	1	-2
462.615	1	-14
462.785	1	-5
462.956	1	2
463.126	1	-18
463.297	1	-2
463.467	1	10
463.638	1	4
463.808	1	-1
463.978	1	5
464.149	1	0
464.319	1	-11
464.490	1	-4
464.660	1	-7
464.830	1	3
465.001	1	2
465.171	1	4
465.342	1	6
465.512	1	5
465.682	1	-3
465.853	1	-12
466.023	1	0
466.194	1	-3
466.364	1	5
466.534	1	-1
466.705	1	9
466.875	1	5
467.045	1	-3
467.216	1	-6
467.386	1	0
467.557	1	3
467.727	1	-3
467.897	1	2
468.068	1	-1
468.238	1	-6
468.409	1	0
468.579	1	5
468.749	1	2
468.920	1	4
469.090	1	7
469.260	1	7
469.431	1	-6
469.601	1	-1
469.772	1	-12
469.942	1	6
470.112	1	5
470.283	1	14
470.453	1	0
470.623	1	-9
470.794	1	6
470.964	1	-6
471.135	1	-10
471.305	1	-7
471.475	1	6
471.646	1	6
471.816	1	-8
471.986	1	1
472.157	1	-6
472.327	1	-3
472.497	1	0
472.668	1	-1
472.838	1	5
473.009	1	2
473.179	1	2
473.349	1	1
473.520	1	-1
473.690	1	8
473.860	1	3
474.031	1	-2
474.201	1	-1
474.371	1	7
474.542	1	-1
474.712	1	6
474.882	1	1
475.053	1	-11
475.223	1	-3
475.394	1	-1
475.564	1	13
475.734	1	-4
475.905	1	-2
476.075	1	6
476.245	1	0
476.416	1	-7
476.586	1	0
476.756	1	3
476.927	1	12
477.097	1	-2
477.267	1	-3
477.438	1	-2
477.608	1	2
477.778	1	5
477.949	1	-2
478.119	1	11
478.289	1	0
478.460	1	-1
478.630	1	3
478.800	1	-6
478.971	1	5
479.141	1	11
479.311	1	4
479.482	1	-5
479.652	1	4
479.822	1	0
479.993	1	-1
480.163	1	-8
480.333	1	-3
480.504	1	2
480.674	1	8
480.844	1	12
481.015	1	-6
481.185	1	3
481.355	1	2
481.525	1	-6
481.696	1	3
481.866	1	0
482.036	1	-8
482.207	1	5
482.377	1	0
482.547	1	-11
482.718	1	14
482.888	1	-3
483.058	1	-3
483.229	1	-3
483.399	1	1
483.569	1	-3
483.740	1	-15
483.910	1	11
484.080	1	-14
484.250	1	7
484.421	1	-12
484.591	1	11
484.761	1	-6
484.932	1	0
485.102	1	10
485.272	1	4
485.443	1	6
485.613	1	-8
485.783	1	4
485.953	1	-2
486.124	1	5
486.294	1	1
486.464	1	-4
486.635	1	12
486.805	1	18
486.975	1	-17
487.146	1	-4
487.316	1	7
487.486	1	2
487.656	1	-15
487.827	1	5
487.997	1	4
488.167	1	7
488.338	1	2
488.508	1	5
488.678	1	4
488.848	1	-2
489.019	1	-2
489.189	1	-3
489.359	1	0
489.529	1	9
489.700	1	2
489.870	1	-3
490.040	1	-2
490.211	1	7
490.381	1	2
490.551	1	-6
490.721	1	3
490.892	1	15
491.062	1	10
491.232	1	2
491.402	1	-9
491.573	1	1
491.743	1	-14
491.913	1	7
492.084	1	4
492.254	1	-4
492.424	1	2
492.594	1	4
492.765	1	5
492.935	1	-7
493.105	1	6
493.275	1	11
493.446	1	-2
493.616	1	9
493.786	1	5
493.956	1	-6
494.127	1	-6
494.297	1	-2
494.467	1	7
494.637	1	-6
494.808	1	10
494.978	1	1
495.148	1	-2
495.318	1	10
495.489	1	-6
495.659	1	9
495.829	1	1
495.999	1	1
496.170	1	2
496.340	1	11
496.510	1	-3
496.680	1	-1
496.851	1	2
497.021	1	-4
497.191	1	-2
497.361	1	9
497.532	1	-2
497.702	1	-4
497.872	1	1
498.042	1	6
498.213	1	12
498.383	1	3
498.553	1	3
498.723	1	0
498.894	1	3
499.064	1	10
499.234	1	-2
499.404	1	10
499.574	1	2
499.745	1	0
499.915	1	5
500.085	1	-1
500.255	1	8
500.426	1	4
500.596	1	-1
500.766	1	3
500.936	1	-4
501.106	1	-7
501.277	1	-6
501.447	1	4
501.617	1	1
501.787	1	-10
501.958	1	0
502.128	1	-2
502.298	1	10
502.468	1	11
502.638	1	3
502.809	1	8
502.979	1	-9
503.149	1	2
503.319	1	3
503.489	1	-1
503.660	1	-3
503.830	1	4
504.000	1	-8
504.170	1	3
504.340	1	-7
504.511	1	10
504.681	1	-4
504.851	1	-2
505.021	1	4
505.192	1	9
505.362	1	0
505.532	1	0
505.702	1	-1
505.872	1	-4
506.043	1	2
506.213	1	4
506.383	1	1
506.553	1	11
506.723	1	1
506.893	1	2
507.064	1	1
507.234	1	5
507.404	1	1
507.574	1	-7
507.744	1	-6
507.915	1	9
508.085	1	11
508.255	1	2
508.425	1	13
508.595	1	-1
508.766	1	3
508.936	1	6
509.106	1	-5
509.276	1	5
509.446	1	-14
509.616	1	0
509.787	1	-6
509.957	1	-7
510.127	1	6
510.297	1	-1
510.467	1	0
510.638	1	-8
510.808	1	-8
510.978	1	-3
511.148	1	14
511.318	1	-5
511.488	1	7
511.659	1	10
511.829	1	-3
511.999	1	15
512.169	1	4
512.339	1	5
512.509	1	1
512.680	1	4
512.850	1	-3
513.020	1	9
513.190	1	-2
513.360	1	7
513.530	1	-1
513.700	1	0
513.871	1	14
514.041	1	1
514.211	1	-3
514.381	1	6
514.551	1	-2
514.721	1	3
514.892	1	13
515.062	1	9
515.232	1	9
515.402	1	-4
515.572	1	-3
515.742	1	4
515.912	1	5
516.083	1	-7
516.253	1	1
516.423	1	12
516.593	1	-1
516.763	1	-1
516.933	1	7
517.104	1	15
517.274	1	3
517.444	1	7
517.614	1	-4
517.784	1	-1
517.954	1	0
518.124	1	14
518.294	1	7
518.465	1	5
518.635	1	-1
518.805	1	2
518.975	1	8
519.145	1	1
519.315	1	0
519.485	1	-2
519.656	1	2
519.826	1	7
519.996	1	12
520.166	1	1
520.336	1	-1
520.506	1	5
520.676	1	7
520.846	1	-4
521.017	1	0
521.187	1	2
521.357	1	7
521.527	1	7
521.697	1	6
521.867	1	9
522.037	1	4
522.207	1	-4
522.377	1	4
522.548	1	-8
522.718	1	-6
522.888	1	-3
523.058	1	15
523.228	1	10
523.398	1	5
523.568	1	-1
523.738	1	5
523.909	1	14
524.079	1	8
524.249	1	7
524.419	1	3
524.589	1	8
524.759	1	5
524.929	1	2
525.099	1	-5
525.269	1	14
525.439	1	0
525.610	1	9
525.780	1	11
525.950	1	-3
526.120	1	-5
526.290	1	-4
526.460	1	14
526.630	1	2
526.800	1	-4
526.970	1	-6
527.140	1	6
527.311	1	9
527.481	1	11
527.651	1	15
527.821	1	0
527.991	1	11
528.161	1	1
528.331	1	3
528.501	1	-7
528.671	1	2
528.841	1	2
529.011	1	1
529.181	1	8
529.352	1	10
529.522	1	-3
529.692	1	1
529.862	1	5
530.032	1	2
530.202	1	6
530.372	1	-6
530.542	1	5
530.712	1	21
530.882	1	-3
531.052	1	10
531.222	1	-6
531.392	1	7
531.563	1	14
531.733	1	20
531.903	1	6
532.073	1	3
532.243	1	3
532.413	1	9
532.583	1	-2
532.753	1	-2
532.923	1	5
533.093	1	20
533.263	1	1
533.433	1	3
533.603	1	7
533.773	1	-5
533.943	1	8
534.113	1	8
534.284	1	8
534.454	1	6
534.624	1	6
534.794	1	-5
534.964	1	-9
535.134	1	0
535.304	1	23
535.474	1	3
535.644	1	7
535.814	1	7
535.984	1	-2
536.154	1	-1
536.324	1	0
536.494	1	19
536.664	1	2
536.834	1	5
537.004	1	15
537.174	1	7
537.344	1	6
537.514	1	3
537.685	1	0
537.855	1	5
538.025	1	6
538.195	1	19
538.365	1	8
538.535	1	11
538.705	1	0
538.875	1	4
539.045	1	5
539.215	1	-6
539.385	1	-5
539.555	1	-2
539.725	1	12
539.895	1	9
540.065	1	2
540.235	1	-11
540.405	1	6
540.575	1	3
540.745	1	12
540.915	1	1
541.085	1	-2
541.255	1	6
541.425	1	-3
541.595	1	6
541.765	1	2
541.935	1	15
542.105	1	8
542.275	1	-2
542.445	1	14
542.615	1	2
542.785	1	2
542.955	1	8
543.125	1	3
543.295	1	-3
543.465	1	16
543.635	1	3
543.805	1	2
543.975	1	11
544.145	1	1
544.315	1	6
544.485	1	0
544.655	1	7
544.825	1	5
544.995	1	8
545.165	1	10
545.335	1	5
545.505	1	1
545.675	1	9
545.845	1	-7
546.015	1	10
546.185	1	-7
546.355	1	15
546.525	1	12
546.695	1	-8
546.865	1	-4
547.035	1	11
547.205	1	7
547.375	1	2
547.545	1	-2
547.715	1	-5
547.885	1	8
548.055	1	10
548.225	1	-8
548.395	1	4
548.565	1	4
548.735	1	2
548.905	1	1
549.075	1	1
549.245	1	9
549.415	1	-7
549.585	1	9
549.755	1	3
549.925	1	8
550.095	1	9
550.265	1	-1
550.435	1	9
550.605	1	-1
550.775	1	-2
550.945	1	5
551.115	1	-3
551.285	1	11
551.455	1	7
551.625	1	3
551.795	1	-1
551.965	1	1
552.135	1	4
552.305	1	7
552.475	1	-2
552.645	1	13
552.815	1	2
552.985	1	7
553.155	1	1
553.325	1	3
553.495	1	1
553.665	1	-1
553.835	1	2
554.004	1	8
554.174	1	-4
554.344	1	-8
554.514	1	8
554.684	1	7
554.854	1	10
555.024	1	9
555.194	1	10
555.364	1	6
555.534	1	4
555.704	1	-1
555.874	1	-10
556.044	1	8
556.214	1	2
556.384	1	19
556.554	1	-4
556.724	1	-11
556.894	1	8
557.064	1	7
557.234	1	4
557.404	1	-4
557.573	1	5
557.743	1	0
557.913	1	6
558.083	1	3
558.253	1	-6
558.423	1	-10
558.593	1	6
558.763	1	-3
558.933	1	15
559.103	1	-2
559.273	1	1
559.443	1	-1
559.613	1	-1
559.783	1	11
559.953	1	-7
560.122	1	-10
560.292	1	0
560.462	1	2
560.632	1	7
560.802	1	7
560.972	1	15
561.142	1	8
561.312	1	3
561.482	1	6
561.652	1	0
561.822	1	3
561.992	1	13
562.162	1	7
562.331	1	0
562.501	1	0
562.671	1	-7
562.841	1	-6
563.011	1	5
563.181	1	15
563.351	1	-9
563.521	1	1
563.691	1	-4
563.861	1	5
564.031	1	9
564.201	1	9
564.370	1	1
564.540	1	7
564.710	1	-11
564.880	1	6
565.050	1	7
565.220	1	5
565.390	1	-12
565.560	1	2
565.730	1	1
565.900	1	-8
566.069	1	14
566.239	1	-4
566.409	1	-5
566.579	1	1
566.749	1	9
566.919	1	0
567.089	1	9
567.259	1	11
567.429	1	-9
567.599	1	-3
567.768	1	7
567.938	1	0
568.108	1	-1
568.278	1	-2
568.448	1	-6
568.618	1	-1
568.788	1	-3
568.958	1	4
569.128	1	4
569.297	1	3
569.467	1	8
569.637	1	0
569.807	1	4
569.977	1	8
570.147	1	2
570.317	1	20
570.487	1	4
570.656	1	5
570.826	1	7
570.996	1	-8
571.166	1	0
571.336	1	-2
571.506	1	0
571.676	1	6
571.846	1	13
572.015	1	-5
572.185	1	4
572.355	1	12
572.525	1	0
572.695	1	-2
572.865	1	6
573.035	1	2
573.205	1	12
573.374	1	1
573.544	1	2
573.714	1	10
573.884	1	-1
574.054	1	3
574.224	1	2
574.394	1	-5
574.563	1	1
574.733	1	-5
574.903	1	3
575.073	1	7
575.243	1	0
575.413	1	0
575.583	1	9
575.752	1	-1
575.922	1	-3
576.092	1	6
576.262	1	-3
576.432	1	-14
576.602	1	9
576.772	1	7
576.941	1	0
577.111	1	3
577.281	1	2
577.451	1	7
577.621	1	0
577.791	1	9
577.960	1	-5
578.130	1	-3
578.300	1	0
578.470	1	0
578.640	1	-1
578.810	1	5
578.979	1	4
579.149	1	-2
579.319	1	8
579.489	1	1
579.659	1	7
579.829	1	5
579.998	1	-2
580.168	1	0
580.338	1	-18
580.508	1	-8
580.678	1	2
580.848	1	8
581.017	1	-6
581.187	1	5
581.357	1	-3
581.527	1	5
581.697	1	-13
581.867	1	4
582.036	1	1
582.206	1	-9
582.376	1	1
582.546	1	6
582.716	1	6
582.885	1	0
583.055	1	5
583.225	1	6
583.395	1	7
583.565	1	12
583.735	1	-1
583.904	1	-1
584.074	1	-6
584.244	1	5
584.414	1	10
584.584	1	8
584.753	1	-4
584.923	1	-5
585.093	1	17
585.263	1	0
585.433	1	5
585.602	1	6
585.772	1	-3
585.942	1	2
586.112	1	1
586.282	1	1
586.451	1	1
586.621	1	2
586.791	1	7
586.961	1	-3
587.131	1	-7
587.300	1	-3
587.470	1	-4
587.640	1	-4
587.810	1	-3
587.980	1	-2
588.149	1	-5
588.319	1	5
588.489	1	5
588.659	1	-1
588.829	1	10
588.998	1	-10
589.168	1	5
589.338	1	-1
589.508	1	-2
589.677	1	4
589.847	1	4
590.017	1	-10
590.187	1	5
590.357	1	-3
590.526	1	-3
590.696	1	-1
590.866	1	9
591.036	1	3
591.205	1	10
591.375	1	-8
591.545	1	-5
591.715	1	-13
591.885	1	8
592.054	1	-2
592.224	1	-6
592.394	1	9
592.564	1	-16
592.733	1	6
592.903	1	4
593.073	1	8
593.243	1	-3
593.412	1	3
593.582	1	7
593.752	1	-9
593.922	1	-13
594.091	1	1
594.261	1	-1
594.431	1	-11
594.601	1	-4
594.771	1	6
594.940	1	-2
595.110	1	-4
595.280	1	0
595.450	1	3
595.619	1	0
595.789	1	-3
595.959	1	6
596.129	1	5
596.298	1	0
596.468	1	2
596.638	1	4
596.808	1	4
596.977	1	0
597.147	1	4
597.317	1	5
597.487	1	-9
597.656	1	4
597.826	1	-4
597.996	1	0
598.166	1	-3
598.335	1	6
598.505	1	2
598.675	1	-1
598.844	1	-1
599.014	1	-3
599.184	1	-7
599.354	1	-3
599.523	1	-4
599.693	1	12
599.863	1	8
600.033	1	3
600.202	1	2
600.372	1	7
600.542	1	-6
600.712	1	2
600.881	1	1
601.051	1	3
601.221	1	1
601.390	1	-9
601.560	1	5
601.730	1	3
601.900	1	-2
602.069	1	-6
602.239	1	-12
602.409	1	-5
602.578	1	3
602.748	1	-1
602.918	1	-4
603.088	1	1
603.257	1	2
603.427	1	-2
603.597	1	8
603.767	1	-10
603.936	1	9
604.106	1	4
604.276	1	4
604.445	1	8
604.615	1	0
604.785	1	0
604.954	1	-1
605.124	1	-5
605.294	1	1
605.464	1	3
605.633	1	11
605.803	1	4
605.973	1	-1
606.142	1	-3
606.312	1	-2
606.482	1	-8
606.652	1	-1
606.821	1	3
606.991	1	-6
607.161	1	-2
607.330	1	7
607.500	1	-3
607.670	1	2
607.839	1	-3
608.009	1	-15
608.179	1	6
608.348	1	-1
608.518	1	-7
608.688	1	0
608.858	1	1
609.027	1	2
609.197	1	-5
609.367	1	-5
609.536	1	8
609.706	1	3
609.876	1	3
610.045	1	-1
610.215	1	-4
610.385	1	0
610.554	1	-3
610.724	1	7
610.894	1	5
611.063	1	0
611.233	1	-1
611.403	1	-1
611.572	1	0
611.742	1	3
611.912	1	6
612.081	1	-7
612.251	1	-2
612.421	1	7
612.590	1	1
612.760	1	0
612.930	1	1
613.099	1	-6
613.269	1	1
613.439	1	-4
613.608	1	6
613.778	1	1
613.948	1	13
614.117	1	3
614.287	1	-3
614.457	1	8
614.626	1	-1
614.796	1	9
614.966	1	0
615.135	1	-4
615.305	1	-8
615.475	1	-3
615.644	1	-4
615.814	1	6
615.984	1	6
616.153	1	2
616.323	1	-6
616.493	1	-1
616.662	1	-1
616.832	1	0
617.002	1	3
617.171	1	-8
617.341	1	6
617.511	1	-2
617.680	1	-2
617.850	1	3
618.019	1	-2
618.189	1	-4
618.359	1	5
618.528	1	-1
618.698	1	-4
618.868	1	2
619.037	1	8
619.207	1	1
619.377	1	-9
619.546	1	1
619.716	1	-12
619.885	1	-2
620.055	1	3
620.225	1	6
620.394	1	0
620.564	1	1
620.734	1	2
620.903	1	7
621.073	1	4
621.242	1	-5
621.412	1	3
621.582	1	-10
621.751	1	3
621.921	1	6
622.091	1	-4
622.260	1	-8
622.430	1	0
622.599	1	10
622.769	1	2
622.939	1	-4
623.108	1	7
623.278	1	-1
623.448	1	-1
623.617	1	3
623.787	1	-8
623.956	1	9
624.126	1	9
624.296	1	-1
624.465	1	0
624.635	1	3
624.804	1	-16
624.974	1	-3
625.144	1	-1
625.313	1	1
625.483	1	3
625.652	1	1
625.822	1	-2
625.992	1	-7
626.161	1	4
626.331	1	5
626.501	1	-2
626.670	1	0
626.840	1	15
627.009	1	-12
627.179	1	0
627.348	1	-4
627.518	1	2
627.688	1	-2
627.857	1	12
628.027	1	1
628.196	1	4
628.366	1	-1
628.536	1	2
628.705	1	3
628.875	1	4
629.044	1	7
629.214	1	-5
629.384	1	-9
629.553	1	5
629.723	1	5
629.892	1	5
630.062	1	0
630.232	1	14
630.401	1	0
630.571	1	2
630.740	1	2
630.910	1	0
631.079	1	6
631.249	1	3
631.419	1	5
631.588	1	-7
631.758	1	-8
631.927	1	2
632.097	1	13
632.266	1	-1
632.436	1	-2
632.606	1	2
632.775	1	7
632.945	1	4
633.114	1	12
633.284	1	-11
633.453	1	-6
633.623	1	3
633.793	1	6
633.962	1	10
634.132	1	1
634.301	1	-7
634.471	1	-15
634.640	1	5
634.810	1	1
634.979	1	5
635.149	1	2
635.319	1	2
635.488	1	4
635.658	1	-16
635.827	1	-8
635.997	1	-2
636.166	1	2
636.336	1	-1
636.505	1	0
636.675	1	2
636.845	1	5
637.014	1	0
637.184	1	2
637.353	1	8
637.523	1	-7
637.692	1	-6
637.862	1	-13
638.031	1	11
638.201	1	10
638.370	1	12
638.540	1	3
638.710	1	-3
638.879	1	-1
639.049	1	8
639.218	1	-2
639.388	1	8
639.557	1	-4
639.727	1	1
639.896	1	-4
640.066	1	-1
640.235	1	8
640.405	1	-10
640.574	1	6
640.744	1	-4
640.914	1	-5
641.083	1	-6
641.253	1	-1
641.422	1	-5
641.592	1	-4
641.761	1	-7
641.931	1	9
642.100	1	-6
642.270	1	5
642.439	1	-2
642.609	1	9
642.778	1	-4
642.948	1	1
643.117	1	-5
643.287	1	5
643.456	1	6
643.626	1	-4
643.795	1	-1
643.965	1	-8
644.134	1	-9
644.304	1	-1
644.473	1	5
644.643	1	-2
644.812	1	11
644.982	1	10
645.151	1	-6
645.321	1	7
645.490	1	11
645.660	1	-13
645.829	1	-5
645.999	1	-4
646.168	1	0
646.338	1	8
646.507	1	3
646.677	1	-1
646.846	1	10
647.016	1	3
647.185	1	4
647.355	1	-2
647.524	1	-1
647.694	1	-7
647.863	1	-4
648.033	1	-5
648.202	1	7
648.372	1	2
648.541	1	1
648.711	1	2
648.880	1	-1
649.050	1	0
649.219	1	0
649.389	1	-1
649.558	1	-5
649.728	1	-4
649.897	1	-7
650.067	1	-7
650.236	1	2
650.406	1	5
650.575	1	-3
650.745	1	-9
650.914	1	-9
651.084	1	0
651.253	1	5
651.423	1	2
651.592	1	-4
651.762	1	4
651.931	1	-3
652.101	1	1
652.270	1	-1
652.440	1	-8
652.609	1	4
652.778	1	-6
652.948	1	-2
653.117	1	-2
653.287	1	3
653.456	1	-8
653.626	1	4
653.795	1	-6
653.965	1	14
654.134	1	6
654.304	1	7
654.473	1	3
654.643	1	9
654.812	1	-1
654.982	1	-15
655.151	1	-2
655.320	1	-8
655.490	1	5
655.659	1	-1
655.829	1	-11
655.998	1	4
656.168	1	9
656.337	1	-2
656.507	1	3
656.676	1	-9
656.846	1	-21
657.015	1	-8
657.184	1	10
657.354	1	1
657.523	1	3
657.693	1	3
657.862	1	-6
658.032	1	12
658.201	1	-4
658.371	1	-12
658.540	1	-9
658.709	1	-14
658.879	1	3
659.048	1	4
659.218	1	0
659.387	1	-10
659.557	1	1
659.726	1	-10
659.895	1	-5
660.065	1	3
660.234	1	0
660.404	1	0
660.573	1	-1
660.743	1	0
660.912	1	-6
661.081	1	-3
661.251	1	0
661.420	1	7
661.590	1	-1
661.759	1	-2
661.929	1	0
662.098	1	-17
662.267	1	4
662.437	1	5
662.606	1	-3
662.776	1	-4
662.945	1	2
663.115	1	-12
663.284	1	-6
663.453	1	2
663.623	1	1
663.792	1	-3
663.962	1	3
664.131	1	-11
664.300	1	-4
664.470	1	0
664.639	1	-6
664.809	1	-3
664.978	1	1
665.148	1	-7
665.317	1	-16
665.486	1	-4
665.656	1	-13
665.825	1	3
665.995	1	3
666.164	1	-1
666.333	1	16
666.503	1	2
666.672	1	-9
666.842	1	-10
667.011	1	9
667.180	1	4
667.350	1	5
667.519	1	0
667.689	1	-1
667.858	1	0
668.027	1	-5
668.197	1	3
668.366	1	-3
668.536	1	2
668.705	1	-2
668.874	1	1
669.044	1	-4
669.213	1	3
669.382	1	-3
669.552	1	12
669.721	1	-4
669.891	1	1
670.060	1	0
670.229	1	-4
670.399	1	12
670.568	1	5
670.738	1	-14
670.907	1	-15
671.076	1	14
671.246	1	3
671.415	1	-8
671.584	1	6
671.754	1	-8
671.923	1	-7
672.093	1	-3
672.262	1	-1
672.431	1	2
672.601	1	-9
672.770	1	-6
672.939	1	-8
673.109	1	-4
673.278	1	-3
673.448	1	-2
673.617	1	6
673.786	1	-9
