325.333	1	-3
325.504	1	10
325.675	1	-2
325.846	1	-1
326.017	1	-12
326.188	1	6
326.359	1	3
326.531	1	-9
326.702	1	0
326.873	1	2
327.044	1	-5
327.215	1	-6
327.386	1	-3
327.557	1	8
327.728	1	0
327.899	1	-3
328.070	1	-3
328.241	1	-4
328.412	1	3
328.583	1	-3
328.754	1	-5
328.926	1	-4
329.097	1	3
329.268	1	-5
329.439	1	-4
329.610	1	-5
329.781	1	-7
329.952	1	11
330.123	1	3
330.294	1	14
330.465	1	0
330.636	1	-3
330.807	1	5
330.978	1	5
331.149	1	9
331.320	1	7
331.492	1	-5
331.663	1	-3
331.834	1	8
332.005	1	5
332.176	1	-2
332.347	1	-7
332.518	1	11
332.689	1	8
332.860	1	-10
333.031	1	6
333.202	1	-2
333.373	1	-4
333.544	1	-6
333.715	1	3
333.886	1	0
334.057	1	-9
334.228	1	1
334.399	1	4
334.570	1	-4
334.741	1	-7
334.912	1	-9
335.084	1	0
335.255	1	4
335.426	1	-4
335.597	1	-9
335.768	1	-1
335.939	1	-1
336.110	1	-7
336.281	1	-8
336.452	1	-4
336.623	1	7
336.794	1	-9
336.965	1	-6
337.136	1	-2
337.307	1	2
337.478	1	10
337.649	1	0
337.820	1	7
337.991	1	6
338.162	1	7
338.333	1	-6
338.504	1	-7
338.675	1	-3
338.846	1	-6
339.017	1	1
339.188	1	-1
339.359	1	5
339.530	1	-2
339.701	1	3
339.872	1	2
340.043	1	-4
340.214	1	6
340.385	1	-4
340.556	1	-1
340.727	1	-2
340.898	1	7
341.069	1	4
341.240	1	2
341.411	1	4
341.582	1	-4
341.753	1	1
341.924	1	1
342.095	1	4
342.266	1	-7
342.437	1	4
342.608	1	1
342.779	1	-1
342.950	1	-4
343.121	1	10
343.292	1	2
343.463	1	-8
343.634	1	-1
343.805	1	8
343.976	1	2
344.147	1	-3
344.318	1	4
344.489	1	-11
344.660	1	24
344.831	1	-8
345.002	1	2
345.173	1	0
345.344	1	-2
345.515	1	7
345.686	1	5
345.857	1	-5
346.028	1	-9
346.199	1	-9
346.370	1	2
346.541	1	-2
346.712	1	5
346.883	1	-3
347.054	1	2
347.225	1	-3
347.396	1	-3
347.567	1	2
347.738	1	-1
347.909	1	8
348.080	1	-8
348.251	1	6
348.422	1	9
348.593	1	-1
348.764	1	-7
348.935	1	2
349.106	1	5
349.277	1	-10
349.448	1	-1
349.619	1	3
349.790	1	-1
349.961	1	3
350.132	1	3
350.303	1	-5
350.474	1	3
350.645	1	10
350.816	1	1
350.987	1	0
351.157	1	-2
351.328	1	-3
351.499	1	0
351.670	1	5
351.841	1	2
352.012	1	-7
352.183	1	-4
352.354	1	2
352.525	1	9
352.696	1	-2
352.867	1	2
353.038	1	8
353.209	1	-1
353.380	1	6
353.551	1	4
353.722	1	-1
353.893	1	1
354.064	1	-2
354.235	1	5
354.406	1	-6
354.576	1	3
354.747	1	0
354.918	1	-7
355.089	1	2
355.260	1	7
355.431	1	5
355.602	1	7
355.773	1	-6
355.944	1	2
356.115	1	-8
356.286	1	3
356.457	1	-2
356.628	1	4
356.799	1	-6
356.970	1	0
357.141	1	1
357.311	1	-2
357.482	1	-2
357.653	1	-2
357.824	1	3
357.995	1	-1
358.166	1	8
358.337	1	1
358.508	1	14
358.679	1	4
358.850	1	-2
359.021	1	-8
359.192	1	2
359.363	1	6
359.533	1	0
359.704	1	-2
359.875	1	-3
360.046	1	-3
360.217	1	14
360.388	1	5
360.559	1	12
360.730	1	-2
360.901	1	10
361.072	1	1
361.243	1	12
361.414	1	6
361.584	1	8
361.755	1	6
361.926	1	10
362.097	1	4
362.268	1	10
362.439	1	12
362.610	1	-6
362.781	1	-2
362.952	1	16
363.123	1	11
363.293	1	14
363.464	1	9
363.635	1	3
363.806	1	7
363.977	1	4
364.148	1	12
364.319	1	17
364.490	1	12
364.661	1	9
364.832	1	16
365.002	1	14
365.173	1	14
365.344	1	9
365.515	1	5
365.686	1	17
365.857	1	20
366.028	1	9
366.199	1	14
366.370	1	18
366.540	1	15
366.711	1	24
366.882	1	19
367.053	1	19
367.224	1	19
367.395	1	18
367.566	1	16
367.737	1	5
367.908	1	8
368.078	1	19
368.249	1	16
368.420	1	5
368.591	1	21
368.762	1	0
368.933	1	15
369.104	1	7
369.274	1	4
369.445	1	-1
369.616	1	-4
369.787	1	15
369.958	1	6
370.129	1	14
370.300	1	-1
370.471	1	12
370.641	1	7
370.812	1	6
370.983	1	12
371.154	1	12
371.325	1	7
371.496	1	-5
371.667	1	5
371.837	1	-5
372.008	1	6
372.179	1	6
372.350	1	2
372.521	1	5
372.692	1	0
372.863	1	3
373.033	1	3
373.204	1	10
373.375	1	6
373.546	1	9
373.717	1	11
373.888	1	-3
374.059	1	2
374.229	1	-6
374.400	1	1
374.571	1	4
374.742	1	9
374.913	1	2
375.084	1	-5
375.254	1	6
375.425	1	-3
375.596	1	-5
375.767	1	7
375.938	1	7
376.109	1	1
376.279	1	-2
376.450	1	1
376.621	1	21
376.792	1	3
376.963	1	6
377.134	1	-8
377.304	1	5
377.475	1	6
377.646	1	4
377.817	1	6
377.988	1	4
378.159	1	7
378.329	1	5
378.500	1	-12
378.671	1	5
378.842	1	-6
379.013	1	4
379.184	1	6
379.354	1	3
379.525	1	9
379.696	1	2
379.867	1	15
380.038	1	7
380.209	1	10
380.379	1	-4
380.550	1	13
380.721	1	25
380.892	1	-2
381.063	1	7
381.233	1	11
381.404	1	9
381.575	1	11
381.746	1	52
381.917	1	71
382.087	1	23
382.258	1	22
382.429	1	9
382.600	1	8
382.771	1	-1
382.941	1	10
383.112	1	11
383.283	1	20
383.454	1	13
383.625	1	9
383.795	1	18
383.966	1	13
384.137	1	12
384.308	1	21
384.479	1	30
384.649	1	22
384.820	1	13
384.991	1	17
385.162	1	16
385.333	1	24
385.503	1	24
385.674	1	20
385.845	1	29
386.016	1	21
386.187	1	31
386.357	1	20
386.528	1	30
386.699	1	27
386.870	1	37
387.041	1	11
387.211	1	23
387.382	1	20
387.553	1	25
387.724	1	22
387.894	1	21
388.065	1	29
388.236	1	14
388.407	1	30
388.578	1	22
388.748	1	33
388.919	1	21
389.090	1	27
389.261	1	10
389.431	1	21
389.602	1	26
389.773	1	16
389.944	1	21
390.114	1	21
390.285	1	12
390.456	1	23
390.627	1	19
390.798	1	23
390.968	1	9
391.139	1	1
391.310	1	20
391.481	1	19
391.651	1	23
391.822	1	18
391.993	1	20
392.164	1	16
392.334	1	18
392.505	1	19
392.676	1	12
392.847	1	23
393.017	1	14
393.188	1	8
393.359	1	22
393.530	1	21
393.700	1	20
393.871	1	9
394.042	1	25
394.213	1	17
394.383	1	18
394.554	1	21
394.725	1	18
394.896	1	6
395.066	1	30
395.237	1	30
395.408	1	27
395.579	1	24
395.749	1	31
395.920	1	17
396.091	1	25
396.262	1	8
396.432	1	16
396.603	1	13
396.774	1	19
396.945	1	21
397.115	1	25
397.286	1	32
397.457	1	19
397.627	1	17
397.798	1	17
397.969	1	19
398.140	1	22
398.310	1	32
398.481	1	17
398.652	1	25
398.823	1	33
398.993	1	18
399.164	1	29
399.335	1	15
399.505	1	16
399.676	1	26
399.847	1	21
400.018	1	21
400.188	1	23
400.359	1	18
400.530	1	17
400.700	1	21
400.871	1	9
401.042	1	16
401.213	1	11
401.383	1	27
401.554	1	25
401.725	1	12
401.895	1	20
402.066	1	21
402.237	1	12
402.408	1	16
402.578	1	10
402.749	1	13
402.920	1	2
403.090	1	12
403.261	1	13
403.432	1	6
403.603	1	19
403.773	1	15
403.944	1	23
404.115	1	2
404.285	1	8
404.456	1	19
404.627	1	21
404.797	1	28
404.968	1	5
405.139	1	12
405.310	1	8
405.480	1	16
405.651	1	14
405.822	1	26
405.992	1	13
406.163	1	22
406.334	1	20
406.504	1	16
406.675	1	19
406.846	1	12
407.016	1	11
407.187	1	7
407.358	1	10
407.528	1	16
407.699	1	17
407.870	1	17
408.041	1	8
408.211	1	1
408.382	1	9
408.553	1	19
408.723	1	7
408.894	1	-2
409.065	1	15
409.235	1	10
409.406	1	18
409.577	1	16
409.747	1	8
409.918	1	17
410.089	1	15
410.259	1	7
410.430	1	26
410.601	1	3
410.771	1	12
410.942	1	15
411.113	1	10
411.283	1	3
411.454	1	-2
411.625	1	6
411.795	1	20
411.966	1	3
412.137	1	9
412.307	1	9
412.478	1	23
412.649	1	8
412.819	1	11
412.990	1	20
413.161	1	1
413.331	1	5
413.502	1	16
413.672	1	14
413.843	1	8
414.014	1	7
414.184	1	6
414.355	1	1
414.526	1	8
414.696	1	10
414.867	1	11
415.038	1	10
415.208	1	7
415.379	1	16
415.550	1	4
415.720	1	12
415.891	1	12
416.062	1	7
416.232	1	3
416.403	1	11
416.573	1	4
416.744	1	6
416.915	1	5
417.085	1	17
417.256	1	10
417.427	1	7
417.597	1	0
417.768	1	-6
417.939	1	12
418.109	1	9
418.280	1	8
418.450	1	4
418.621	1	11
418.792	1	12
418.962	1	0
419.133	1	3
419.304	1	8
419.474	1	3
419.645	1	14
419.815	1	3
419.986	1	15
420.157	1	11
420.327	1	12
420.498	1	7
420.669	1	8
420.839	1	14
421.010	1	11
421.180	1	5
421.351	1	11
421.522	1	8
421.692	1	11
421.863	1	4
422.033	1	5
422.204	1	-4
422.375	1	2
422.545	1	11
422.716	1	11
422.886	1	11
423.057	1	2
423.228	1	-7
423.398	1	-4
423.569	1	8
423.740	1	-8
423.910	1	-9
424.081	1	3
424.251	1	5
424.422	1	19
424.593	1	13
424.763	1	-1
424.934	1	8
425.104	1	17
425.275	1	3
425.445	1	-3
425.616	1	3
425.787	1	-7
425.957	1	16
426.128	1	-2
426.298	1	8
426.469	1	0
426.640	1	0
426.810	1	6
426.981	1	-2
427.151	1	11
427.322	1	3
427.493	1	3
427.663	1	4
427.834	1	-1
428.004	1	9
428.175	1	3
428.345	1	27
428.516	1	6
428.687	1	1
428.857	1	-1
429.028	1	5
429.198	1	-4
429.369	1	8
429.540	1	11
429.710	1	4
429.881	1	12
430.051	1	11
430.222	1	-3
430.392	1	-2
430.563	1	15
430.734	1	9
430.904	1	-2
431.075	1	4
431.245	1	8
431.416	1	9
431.586	1	2
431.757	1	4
431.927	1	5
432.098	1	4
432.269	1	-1
432.439	1	-11
432.610	1	4
432.780	1	4
432.951	1	-6
433.121	1	9
433.292	1	3
433.462	1	3
433.633	1	-4
433.804	1	0
433.974	1	0
434.145	1	9
434.315	1	2
434.486	1	2
434.656	1	5
434.827	1	3
434.997	1	11
435.168	1	0
435.339	1	7
435.509	1	9
435.680	1	-6
435.850	1	-11
436.021	1	13
436.191	1	-1
436.362	1	-3
436.532	1	9
436.703	1	10
436.873	1	3
437.044	1	14
437.214	1	-1
437.385	1	8
437.556	1	-1
437.726	1	2
437.897	1	3
438.067	1	-4
438.238	1	-7
438.408	1	1
438.579	1	6
438.749	1	10
438.920	1	-3
439.090	1	16
439.261	1	-10
439.431	1	1
439.602	1	10
439.772	1	12
439.943	1	6
440.113	1	7
440.284	1	4
440.455	1	5
440.625	1	1
440.796	1	10
440.966	1	5
441.137	1	-7
441.307	1	0
441.478	1	8
441.648	1	-4
441.819	1	2
441.989	1	-2
442.160	1	-5
442.330	1	16
442.501	1	-11
442.671	1	5
442.842	1	2
443.012	1	5
443.183	1	1
443.353	1	4
443.524	1	5
443.694	1	0
443.865	1	2
444.035	1	-1
444.206	1	4
444.376	1	-4
444.547	1	2
444.717	1	15
444.888	1	-6
445.058	1	11
445.229	1	5
445.399	1	10
445.570	1	4
445.740	1	1
445.911	1	15
446.081	1	4
446.252	1	-3
446.422	1	4
446.593	1	-1
446.763	1	15
446.934	1	7
447.104	1	-4
447.275	1	-6
447.445	1	4
447.616	1	-7
447.786	1	6
447.957	1	2
448.127	1	-5
448.298	1	2
448.468	1	12
448.639	1	4
448.809	1	4
448.979	1	2
449.150	1	-2
449.320	1	9
449.491	1	2
449.661	1	4
449.832	1	-9
450.002	1	0
450.173	1	-1
450.343	1	-1
450.514	1	4
450.684	1	-1
450.855	1	1
451.025	1	4
451.196	1	2
451.366	1	10
451.537	1	-2
451.707	1	-5
451.878	1	-8
452.048	1	8
452.218	1	1
452.389	1	-3
452.559	1	-6
452.730	1	7
452.900	1	0
453.071	1	4
453.241	1	-7
453.412	1	0
453.582	1	6
453.753	1	1
453.923	1	6
454.093	1	5
454.264	1	-2
454.434	1	1
454.605	1	9
454.775	1	13
454.946	1	5
455.116	1	-2
455.287	1	8
455.457	1	-8
455.628	1	0
455.798	1	1
455.968	1	3
456.139	1	0
456.309	1	-3
456.480	1	4
456.650	1	2
456.821	1	-1
456.991	1	8
457.161	1	1
457.332	1	2
457.502	1	7
457.673	1	2
457.843	1	12
458.014	1	-5
458.184	1	0
458.355	1	8
458.525	1	0
458.695	1	6
458.866	1	0
459.036	1	7
459.207	1	3
459.377	1	-9
459.548	1	-6
459.718	1	-9
459.888	1	9
460.059	1	7
460.229	1	8
460.400	1	9
460.570	1	-4
460.740	1	-1
460.911	1	16
461.081	1	-2
461.252	1	6
461.422	1	4
461.593	1	-2
461.763	1	1
461.933	1	-4
462.104	1	-2
462.274	1	9
462.445	1	-7
462.615	1	-5
462.785	1	-3
462.956	1	-7
463.126	1	0
463.297	1	-1
463.467	1	1
463.638	1	-3
463.808	1	12
463.978	1	7
464.149	1	-2
464.319	1	3
464.490	1	0
464.660	1	4
464.830	1	8
465.001	1	12
465.171	1	3
465.342	1	2
465.512	1	-2
465.682	1	-2
465.853	1	2
466.023	1	4
466.194	1	5
466.364	1	3
466.534	1	4
466.705	1	15
466.875	1	8
467.045	1	4
467.216	1	-8
467.386	1	0
467.557	1	6
467.727	1	-2
467.897	1	12
468.068	1	5
468.238	1	-5
468.409	1	2
468.579	1	6
468.749	1	3
468.920	1	2
469.090	1	6
469.260	1	-6
469.431	1	-1
469.601	1	-2
469.772	1	-17
469.942	1	2
470.112	1	4
470.283	1	4
470.453	1	9
470.623	1	-1
470.794	1	5
470.964	1	-5
471.135	1	-11
471.305	1	-7
471.475	1	-3
471.646	1	5
471.816	1	-8
471.986	1	-5
472.157	1	4
472.327	1	-3
472.497	1	9
472.668	1	-5
472.838	1	8
473.009	1	-5
473.179	1	5
473.349	1	9
473.520	1	7
473.690	1	7
473.860	1	12
474.031	1	1
474.201	1	-4
474.371	1	-2
474.542	1	1
474.712	1	9
474.882	1	-2
475.053	1	-4
475.223	1	10
475.394	1	-2
475.564	1	18
475.734	1	5
475.905	1	-1
476.075	1	-2
476.245	1	-2
476.416	1	-1
476.586	1	-5
476.756	1	7
476.927	1	9
477.097	1	-5
477.267	1	-16
477.438	1	-2
477.608	1	8
477.778	1	9
477.949	1	9
478.119	1	10
478.289	1	2
478.460	1	3
478.630	1	-7
478.800	1	-7
478.971	1	8
479.141	1	6
479.311	1	7
479.482	1	-2
479.652	1	4
479.822	1	-4
479.993	1	0
480.163	1	-12
480.333	1	2
480.504	1	5
480.674	1	6
480.844	1	6
481.015	1	-5
481.185	1	0
481.355	1	8
481.525	1	-3
481.696	1	3
481.866	1	3
482.036	1	-7
482.207	1	11
482.377	1	-7
482.547	1	5
482.718	1	6
482.888	1	-8
483.058	1	-3
483.229	1	3
483.399	1	-9
483.569	1	10
483.740	1	-8
483.910	1	-4
484.080	1	-11
484.250	1	5
484.421	1	-3
484.591	1	1
484.761	1	-7
484.932	1	4
485.102	1	5
485.272	1	4
485.443	1	7
485.613	1	-7
485.783	1	12
485.953	1	5
486.124	1	-5
486.294	1	9
486.464	1	-4
486.635	1	16
486.805	1	19
486.975	1	-12
487.146	1	2
487.316	1	6
487.486	1	-1
487.656	1	-8
487.827	1	7
487.997	1	9
488.167	1	9
488.338	1	11
488.508	1	10
488.678	1	0
488.848	1	-1
489.019	1	-6
489.189	1	-2
489.359	1	5
489.529	1	-4
489.700	1	-2
489.870	1	-9
490.040	1	9
490.211	1	20
490.381	1	4
490.551	1	-5
490.721	1	-4
490.892	1	-1
491.062	1	12
491.232	1	2
491.402	1	-9
491.573	1	6
491.743	1	-6
491.913	1	2
492.084	1	7
492.254	1	2
492.424	1	3
492.594	1	5
492.765	1	13
492.935	1	-9
493.105	1	15
493.275	1	11
493.446	1	0
493.616	1	12
493.786	1	6
493.956	1	6
494.127	1	-5
494.297	1	5
494.467	1	2
494.637	1	4
494.808	1	3
494.978	1	11
495.148	1	11
495.318	1	10
495.489	1	5
495.659	1	17
495.829	1	0
495.999	1	0
496.170	1	-2
496.340	1	4
496.510	1	5
496.680	1	-1
496.851	1	7
497.021	1	9
497.191	1	7
497.361	1	4
497.532	1	8
497.702	1	-1
497.872	1	6
498.042	1	4
498.213	1	14
498.383	1	3
498.553	1	13
498.723	1	4
498.894	1	3
499.064	1	13
499.234	1	1
499.404	1	5
499.574	1	0
499.745	1	4
499.915	1	1
500.085	1	-1
500.255	1	8
500.426	1	6
500.596	1	-2
500.766	1	7
500.936	1	0
501.106	1	-6
501.277	1	3
501.447	1	0
501.617	1	10
501.787	1	-2
501.958	1	10
502.128	1	5
502.298	1	7
502.468	1	9
502.638	1	6
502.809	1	13
502.979	1	1
503.149	1	11
503.319	1	9
503.489	1	8
503.660	1	-4
503.830	1	11
504.000	1	-4
504.170	1	9
504.340	1	10
504.511	1	11
504.681	1	0
504.851	1	-4
505.021	1	6
505.192	1	16
505.362	1	13
505.532	1	9
505.702	1	6
505.872	1	-3
506.043	1	13
506.213	1	4
506.383	1	7
506.553	1	12
506.723	1	11
506.893	1	3
507.064	1	-8
507.234	1	14
507.404	1	2
507.574	1	13
507.744	1	-9
507.915	1	3
508.085	1	11
508.255	1	9
508.425	1	19
508.595	1	12
508.766	1	2
508.936	1	1
509.106	1	-2
509.276	1	12
509.446	1	4
509.616	1	5
509.787	1	2
509.957	1	3
510.127	1	9
510.297	1	-8
510.467	1	8
510.638	1	3
510.808	1	9
510.978	1	-5
511.148	1	22
511.318	1	11
511.488	1	8
511.659	1	8
511.829	1	4
511.999	1	13
512.169	1	2
512.339	1	6
512.509	1	4
512.680	1	11
512.850	1	9
513.020	1	10
513.190	1	0
513.360	1	11
513.530	1	0
513.700	1	5
513.871	1	11
514.041	1	13
514.211	1	-4
514.381	1	8
514.551	1	9
514.721	1	8
514.892	1	10
515.062	1	6
515.232	1	6
515.402	1	4
515.572	1	-1
515.742	1	13
515.912	1	16
516.083	1	7
516.253	1	-1
516.423	1	17
516.593	1	13
516.763	1	7
516.933	1	7
517.104	1	15
517.274	1	7
517.444	1	12
517.614	1	5
517.784	1	10
517.954	1	1
518.124	1	15
518.294	1	9
518.465	1	8
518.635	1	1
518.805	1	5
518.975	1	15
519.145	1	17
519.315	1	13
519.485	1	4
519.656	1	20
519.826	1	7
519.996	1	20
520.166	1	11
520.336	1	7
520.506	1	4
520.676	1	3
520.846	1	3
521.017	1	1
521.187	1	13
521.357	1	6
521.527	1	5
521.697	1	8
521.867	1	9
522.037	1	-4
522.207	1	4
522.377	1	13
522.548	1	3
522.718	1	8
522.888	1	0
523.058	1	32
523.228	1	18
523.398	1	12
523.568	1	0
523.738	1	13
523.909	1	16
524.079	1	8
524.249	1	9
524.419	1	13
524.589	1	17
524.759	1	10
524.929	1	9
525.099	1	6
525.269	1	17
525.439	1	4
525.610	1	6
525.780	1	12
525.950	1	2
526.120	1	3
526.290	1	2
526.460	1	6
526.630	1	17
526.800	1	9
526.970	1	5
527.140	1	5
527.311	1	17
527.481	1	15
527.651	1	26
527.821	1	3
527.991	1	11
528.161	1	8
528.331	1	13
528.501	1	6
528.671	1	15
528.841	1	7
529.011	1	7
529.181	1	11
529.352	1	18
529.522	1	8
529.692	1	17
529.862	1	4
530.032	1	3
530.202	1	10
530.372	1	2
530.542	1	20
530.712	1	21
530.882	1	14
531.052	1	19
531.222	1	3
531.392	1	7
531.563	1	13
531.733	1	26
531.903	1	23
532.073	1	16
532.243	1	10
532.413	1	6
532.583	1	8
532.753	1	6
532.923	1	10
533.093	1	17
533.263	1	7
533.433	1	5
533.603	1	12
533.773	1	12
533.943	1	8
534.113	1	11
534.284	1	12
534.454	1	11
534.624	1	12
534.794	1	8
534.964	1	3
535.134	1	11
535.304	1	22
535.474	1	11
535.644	1	18
535.814	1	14
535.984	1	2
536.154	1	13
536.324	1	13
536.494	1	15
536.664	1	18
536.834	1	16
537.004	1	29
537.174	1	19
537.344	1	19
537.514	1	12
537.685	1	18
537.855	1	17
538.025	1	14
538.195	1	13
538.365	1	17
538.535	1	22
538.705	1	-1
538.875	1	11
539.045	1	23
539.215	1	1
539.385	1	11
539.555	1	-1
539.725	1	9
539.895	1	15
540.065	1	13
540.235	1	1
540.405	1	9
540.575	1	14
540.745	1	17
540.915	1	16
541.085	1	6
541.255	1	4
541.425	1	13
541.595	1	10
541.765	1	11
541.935	1	20
542.105	1	9
542.275	1	1
542.445	1	18
542.615	1	11
542.785	1	11
542.955	1	16
543.125	1	11
543.295	1	17
543.465	1	22
543.635	1	7
543.805	1	12
543.975	1	19
544.145	1	14
544.315	1	5
544.485	1	8
544.655	1	12
544.825	1	18
544.995	1	16
545.165	1	10
545.335	1	5
545.505	1	3
545.675	1	6
545.845	1	12
546.015	1	11
546.185	1	6
546.355	1	14
546.525	1	9
546.695	1	2
546.865	1	5
547.035	1	14
547.205	1	2
547.375	1	17
547.545	1	5
547.715	1	5
547.885	1	7
548.055	1	5
548.225	1	1
548.395	1	13
548.565	1	13
548.735	1	16
548.905	1	1
549.075	1	7
549.245	1	8
549.415	1	8
549.585	1	-1
549.755	1	8
549.925	1	11
550.095	1	15
550.265	1	2
550.435	1	9
550.605	1	7
550.775	1	-1
550.945	1	13
551.115	1	0
551.285	1	17
551.455	1	10
551.625	1	-3
551.795	1	5
551.965	1	4
552.135	1	7
552.305	1	11
552.475	1	5
552.645	1	8
552.815	1	16
552.985	1	10
553.155	1	9
553.325	1	12
553.495	1	-1
553.665	1	3
553.835	1	10
554.004	1	14
554.174	1	7
554.344	1	-2
554.514	1	12
554.684	1	15
554.854	1	7
555.024	1	11
555.194	1	22
555.364	1	8
555.534	1	1
555.704	1	10
555.874	1	5
556.044	1	-2
556.214	1	6
556.384	1	13
556.554	1	3
556.724	1	-2
556.894	1	19
557.064	1	5
557.234	1	10
557.404	1	-6
557.573	1	16
557.743	1	0
557.913	1	10
558.083	1	-1
558.253	1	5
558.423	1	-5
558.593	1	6
558.763	1	4
558.933	1	12
559.103	1	2
559.273	1	-1
559.443	1	-9
559.613	1	9
559.783	1	10
559.953	1	6
560.122	1	-4
560.292	1	13
560.462	1	9
560.632	1	2
560.802	1	5
560.972	1	21
561.142	1	13
561.312	1	9
561.482	1	0
561.652	1	0
561.822	1	5
561.992	1	15
562.162	1	6
562.331	1	0
562.501	1	3
562.671	1	10
562.841	1	5
563.011	1	13
563.181	1	1
563.351	1	0
563.521	1	7
563.691	1	4
563.861	1	14
564.031	1	1
564.201	1	5
564.370	1	6
564.540	1	22
564.710	1	-6
564.880	1	4
565.050	1	5
565.220	1	8
565.390	1	-4
565.560	1	7
565.730	1	1
565.900	1	-4
566.069	1	9
566.239	1	3
566.409	1	7
566.579	1	4
566.749	1	9
566.919	1	9
567.089	1	8
567.259	1	10
567.429	1	4
567.599	1	6
567.768	1	9
567.938	1	12
568.108	1	3
568.278	1	0
568.448	1	-1
568.618	1	11
568.788	1	-2
568.958	1	4
569.128	1	9
569.297	1	0
569.467	1	3
569.637	1	-2
569.807	1	2
569.977	1	5
570.147	1	4
570.317	1	20
570.487	1	4
570.656	1	12
570.826	1	9
570.996	1	2
571.166	1	-5
571.336	1	3
571.506	1	4
571.676	1	10
571.846	1	12
572.015	1	-5
572.185	1	6
572.355	1	18
572.525	1	4
572.695	1	4
572.865	1	7
573.035	1	11
573.205	1	12
573.374	1	4
573.544	1	0
573.714	1	5
573.884	1	7
574.054	1	9
574.224	1	5
574.394	1	3
574.563	1	9
574.733	1	-2
574.903	1	4
575.073	1	5
575.243	1	-7
575.413	1	7
575.583	1	13
575.752	1	-2
575.922	1	8
576.092	1	13
576.262	1	4
576.432	1	-2
576.602	1	7
576.772	1	7
576.941	1	3
577.111	1	0
577.281	1	3
577.451	1	0
577.621	1	4
577.791	1	5
577.960	1	9
578.130	1	2
578.300	1	-6
578.470	1	2
578.640	1	5
578.810	1	0
578.979	1	5
579.149	1	4
579.319	1	8
579.489	1	-2
579.659	1	15
579.829	1	5
579.998	1	9
580.168	1	7
580.338	1	-8
580.508	1	-1
580.678	1	5
580.848	1	9
581.017	1	7
581.187	1	2
581.357	1	1
581.527	1	14
581.697	1	-8
581.867	1	1
582.036	1	11
582.206	1	-3
582.376	1	5
582.546	1	0
582.716	1	6
582.885	1	9
583.055	1	4
583.225	1	9
583.395	1	4
583.565	1	8
583.735	1	-4
583.904	1	2
584.074	1	8
584.244	1	-1
584.414	1	2
584.584	1	4
584.753	1	4
584.923	1	-7
585.093	1	10
585.263	1	10
585.433	1	-2
585.602	1	0
585.772	1	2
585.942	1	10
586.112	1	3
586.282	1	1
586.451	1	5
586.621	1	8
586.791	1	9
586.961	1	2
587.131	1	5
587.300	1	-5
587.470	1	7
587.640	1	0
587.810	1	2
587.980	1	7
588.149	1	2
588.319	1	9
588.489	1	9
588.659	1	5
588.829	1	3
588.998	1	-3
589.168	1	8
589.338	1	3
589.508	1	6
589.677	1	5
589.847	1	13
590.017	1	-10
590.187	1	6
590.357	1	-1
590.526	1	4
590.696	1	5
590.866	1	5
591.036	1	5
591.205	1	9
591.375	1	-3
591.545	1	-4
591.715	1	-6
591.885	1	6
592.054	1	-5
592.224	1	1
592.394	1	1
592.564	1	-8
592.733	1	-4
592.903	1	5
593.073	1	4
593.243	1	-1
593.412	1	3
593.582	1	13
593.752	1	-10
593.922	1	-4
594.091	1	3
594.261	1	4
594.431	1	2
594.601	1	-12
594.771	1	9
594.940	1	-1
595.110	1	2
595.280	1	2
595.450	1	0
595.619	1	4
595.789	1	7
595.959	1	9
596.129	1	-12
596.298	1	4
596.468	1	2
596.638	1	-2
596.808	1	1
596.977	1	-4
597.147	1	10
597.317	1	-4
597.487	1	5
597.656	1	3
597.826	1	3
597.996	1	2
598.166	1	4
598.335	1	-7
598.505	1	2
598.675	1	4
598.844	1	-5
599.014	1	-4
599.184	1	-3
599.354	1	-2
599.523	1	3
599.693	1	12
599.863	1	12
600.033	1	1
600.202	1	-1
600.372	1	1
600.542	1	2
600.712	1	9
600.881	1	0
601.051	1	2
601.221	1	9
601.390	1	-4
601.560	1	-4
601.730	1	0
601.900	1	4
602.069	1	4
602.239	1	-4
602.409	1	0
602.578	1	0
602.748	1	5
602.918	1	-2
603.088	1	11
603.257	1	1
603.427	1	2
603.597	1	20
603.767	1	-3
603.936	1	5
604.106	1	6
604.276	1	-7
604.445	1	10
604.615	1	-8
604.785	1	6
604.954	1	8
605.124	1	-3
605.294	1	6
605.464	1	-2
605.633	1	8
605.803	1	9
605.973	1	-1
606.142	1	6
606.312	1	-1
606.482	1	-7
606.652	1	-4
606.821	1	6
606.991	1	-3
607.161	1	5
607.330	1	11
607.500	1	3
607.670	1	6
607.839	1	4
608.009	1	-4
608.179	1	2
608.348	1	-1
608.518	1	-1
608.688	1	7
608.858	1	5
609.027	1	7
609.197	1	-2
609.367	1	-3
609.536	1	0
609.706	1	9
609.876	1	1
610.045	1	0
610.215	1	0
610.385	1	-5
610.554	1	0
610.724	1	-2
610.894	1	12
611.063	1	11
611.233	1	-3
611.403	1	-1
611.572	1	-3
611.742	1	1
611.912	1	2
612.081	1	-12
612.251	1	6
612.421	1	16
612.590	1	1
612.760	1	8
612.930	1	1
613.099	1	-12
613.269	1	-2
613.439	1	-4
613.608	1	7
613.778	1	5
613.948	1	12
614.117	1	13
614.287	1	-9
614.457	1	11
614.626	1	4
614.796	1	3
614.966	1	4
615.135	1	-9
615.305	1	6
615.475	1	5
615.644	1	2
615.814	1	2
615.984	1	15
616.153	1	9
616.323	1	0
616.493	1	4
616.662	1	3
616.832	1	2
617.002	1	-2
617.171	1	-6
617.341	1	11
617.511	1	4
617.680	1	7
617.850	1	1
618.019	1	3
618.189	1	-3
618.359	1	-1
618.528	1	-2
618.698	1	-4
618.868	1	20
619.037	1	12
619.207	1	0
619.377	1	-6
619.546	1	0
619.716	1	-1
619.885	1	-2
620.055	1	8
620.225	1	3
620.394	1	-5
620.564	1	-3
620.734	1	8
620.903	1	8
621.073	1	-7
621.242	1	-7
621.412	1	1
621.582	1	-2
621.751	1	9
621.921	1	5
622.091	1	1
622.260	1	-10
622.430	1	4
622.599	1	11
622.769	1	8
622.939	1	-7
623.108	1	0
623.278	1	-1
623.448	1	-7
623.617	1	4
623.787	1	0
623.956	1	7
624.126	1	-3
624.296	1	11
624.465	1	10
624.635	1	9
624.804	1	-5
624.974	1	5
625.144	1	2
625.313	1	8
625.483	1	7
625.652	1	5
625.822	1	1
625.992	1	-4
626.161	1	8
626.331	1	5
626.501	1	8
626.670	1	2
626.840	1	7
627.009	1	-8
627.179	1	-1
627.348	1	0
627.518	1	2
627.688	1	-1
627.857	1	6
628.027	1	-2
628.196	1	10
628.366	1	5
628.536	1	9
628.705	1	-7
628.875	1	11
629.044	1	-1
629.214	1	1
629.384	1	-8
629.553	1	0
629.723	1	-2
629.892	1	-8
630.062	1	-3
630.232	1	2
630.401	1	2
630.571	1	-4
630.740	1	11
630.910	1	-5
631.079	1	12
631.249	1	-6
631.419	1	5
631.588	1	-4
631.758	1	8
631.927	1	0
632.097	1	8
632.266	1	-1
632.436	1	2
632.606	1	5
632.775	1	-4
632.945	1	2
633.114	1	7
633.284	1	-9
633.453	1	-9
633.623	1	0
633.793	1	15
633.962	1	3
634.132	1	3
634.301	1	-8
634.471	1	-5
634.640	1	6
634.810	1	5
634.979	1	9
635.149	1	-5
635.319	1	4
635.488	1	1
635.658	1	5
635.827	1	2
635.997	1	6
636.166	1	2
636.336	1	8
636.505	1	-4
636.675	1	-3
636.845	1	4
637.014	1	0
637.184	1	7
637.353	1	6
637.523	1	-2
637.692	1	-4
637.862	1	-11
638.031	1	12
638.201	1	-6
638.370	1	9
638.540	1	-5
638.710	1	5
638.879	1	-3
639.049	1	3
639.218	1	2
639.388	1	6
639.557	1	7
639.727	1	7
639.896	1	8
640.066	1	3
640.235	1	-4
640.405	1	1
640.574	1	-7
640.744	1	-5
640.914	1	-2
641.083	1	-7
641.253	1	-12
641.422	1	-4
641.592	1	-14
641.761	1	-1
641.931	1	12
642.100	1	-5
642.270	1	-1
642.439	1	1
642.609	1	3
642.778	1	1
642.948	1	0
643.117	1	0
643.287	1	6
643.456	1	12
643.626	1	6
643.795	1	5
643.965	1	-6
644.134	1	8
644.304	1	-1
644.473	1	16
644.643	1	5
644.812	1	7
644.982	1	12
645.151	1	-6
645.321	1	9
645.490	1	7
645.660	1	-13
645.829	1	-1
645.999	1	-5
646.168	1	-6
646.338	1	11
646.507	1	4
646.677	1	-3
646.846	1	20
647.016	1	-4
647.185	1	-8
647.355	1	-10
647.524	1	10
647.694	1	-8
647.863	1	-8
648.033	1	-14
648.202	1	10
648.372	1	4
648.541	1	-4
648.711	1	4
648.880	1	7
649.050	1	0
649.219	1	-2
649.389	1	4
649.558	1	-9
649.728	1	3
649.897	1	5
650.067	1	-1
650.236	1	7
650.406	1	8
650.575	1	-2
650.745	1	-3
650.914	1	5
651.084	1	1
651.253	1	-2
651.423	1	1
651.592	1	-4
651.762	1	13
651.931	1	0
652.101	1	0
652.270	1	6
652.440	1	6
652.609	1	11
652.778	1	-10
652.948	1	-3
653.117	1	-2
653.287	1	1
653.456	1	-2
653.626	1	8
653.795	1	1
653.965	1	11
654.134	1	7
654.304	1	16
654.473	1	5
654.643	1	7
654.812	1	-2
654.982	1	-18
655.151	1	4
655.320	1	5
655.490	1	11
655.659	1	-1
655.829	1	1
655.998	1	9
656.168	1	-7
656.337	1	-10
656.507	1	15
656.676	1	-2
656.846	1	-14
657.015	1	2
657.184	1	3
657.354	1	-5
657.523	1	2
657.693	1	3
657.862	1	-4
658.032	1	6
658.201	1	-4
658.371	1	-9
658.540	1	2
658.709	1	-3
658.879	1	-4
659.048	1	6
659.218	1	-11
659.387	1	-2
659.557	1	-6
659.726	1	-6
659.895	1	-4
660.065	1	3
660.234	1	7
660.404	1	11
660.573	1	-8
660.743	1	3
660.912	1	-8
661.081	1	-2
661.251	1	6
661.420	1	-4
661.590	1	2
661.759	1	7
661.929	1	7
662.098	1	-13
662.267	1	15
662.437	1	9
662.606	1	5
662.776	1	0
662.945	1	-3
663.115	1	1
663.284	1	5
663.453	1	3
663.623	1	-3
663.792	1	6
663.962	1	-5
664.131	1	-9
664.300	1	6
664.470	1	-4
664.639	1	1
664.809	1	0
664.978	1	-3
665.148	1	-6
665.317	1	2
665.486	1	-1
665.656	1	-8
665.825	1	7
665.995	1	7
666.164	1	-2
666.333	1	10
666.503	1	2
666.672	1	-15
666.842	1	-9
667.011	1	11
667.180	1	-3
667.350	1	9
667.519	1	-1
667.689	1	-3
667.858	1	1
668.027	1	-4
668.197	1	6
668.366	1	-6
668.536	1	2
668.705	1	-3
668.874	1	-5
669.044	1	-8
669.213	1	13
669.382	1	-2
669.552	1	-5
669.721	1	-2
669.891	1	3
670.060	1	6
670.229	1	3
670.399	1	4
670.568	1	6
670.738	1	-8
670.907	1	-14
671.076	1	13
671.246	1	3
671.415	1	1
671.584	1	2
671.754	1	-5
671.923	1	-6
672.093	1	-2
672.262	1	3
672.431	1	5
672.601	1	-4
672.770	1	1
672.939	1	-8
673.109	1	-3
673.278	1	1
673.448	1	5
673.617	1	9
673.786	1	-1
