325.333	1	0
325.504	1	4
325.675	1	-7
325.846	1	1
326.017	1	2
326.188	1	12
326.359	1	-3
326.531	1	-9
326.702	1	-5
326.873	1	-5
327.044	1	-7
327.215	1	-5
327.386	1	0
327.557	1	-1
327.728	1	2
327.899	1	-7
328.070	1	12
328.241	1	-10
328.412	1	4
328.583	1	1
328.754	1	1
328.926	1	0
329.097	1	-4
329.268	1	-3
329.439	1	-7
329.610	1	-2
329.781	1	-9
329.952	1	10
330.123	1	4
330.294	1	14
330.465	1	-4
330.636	1	4
330.807	1	4
330.978	1	-4
331.149	1	11
331.320	1	-2
331.492	1	-7
331.663	1	-7
331.834	1	9
332.005	1	-1
332.176	1	-5
332.347	1	3
332.518	1	7
332.689	1	0
332.860	1	3
333.031	1	-7
333.202	1	-4
333.373	1	-1
333.544	1	-3
333.715	1	-2
333.886	1	-8
334.057	1	-17
334.228	1	-5
334.399	1	-6
334.570	1	-2
334.741	1	-3
334.912	1	-10
335.084	1	-5
335.255	1	-1
335.426	1	-4
335.597	1	-13
335.768	1	5
335.939	1	-4
336.110	1	-3
336.281	1	-9
336.452	1	7
336.623	1	5
336.794	1	-8
336.965	1	-7
337.136	1	0
337.307	1	13
337.478	1	12
337.649	1	2
337.820	1	12
337.991	1	3
338.162	1	4
338.333	1	-3
338.504	1	-1
338.675	1	0
338.846	1	0
339.017	1	-4
339.188	1	0
339.359	1	2
339.530	1	2
339.701	1	1
339.872	1	-6
340.043	1	-5
340.214	1	-13
340.385	1	-4
340.556	1	4
340.727	1	-10
340.898	1	-3
341.069	1	2
341.240	1	-4
341.411	1	-1
341.582	1	12
341.753	1	-10
341.924	1	-4
342.095	1	-4
342.266	1	-4
342.437	1	-2
342.608	1	-5
342.779	1	-7
342.950	1	3
343.121	1	11
343.292	1	-4
343.463	1	0
343.634	1	-10
343.805	1	1
343.976	1	0
344.147	1	1
344.318	1	-4
344.489	1	8
344.660	1	12
344.831	1	-15
345.002	1	-2
345.173	1	-9
345.344	1	-10
345.515	1	-5
345.686	1	0
345.857	1	-2
346.028	1	-3
346.199	1	-3
346.370	1	0
346.541	1	-10
346.712	1	0
346.883	1	-4
347.054	1	-1
347.225	1	-5
347.396	1	-1
347.567	1	-3
347.738	1	10
347.909	1	-4
348.080	1	-7
348.251	1	4
348.422	1	-3
348.593	1	-2
348.764	1	-2
348.935	1	-1
349.106	1	4
349.277	1	-8
349.448	1	-14
349.619	1	-1
349.790	1	0
349.961	1	5
350.132	1	-10
350.303	1	-7
350.474	1	7
350.645	1	-2
350.816	1	-1
350.987	1	-7
351.157	1	8
351.328	1	-5
351.499	1	3
351.670	1	3
351.841	1	-4
352.012	1	-11
352.183	1	-1
352.354	1	-3
352.525	1	2
352.696	1	-6
352.867	1	-18
353.038	1	11
353.209	1	4
353.380	1	2
353.551	1	5
353.722	1	-1
353.893	1	-1
354.064	1	-1
354.235	1	-4
354.406	1	-5
354.576	1	1
354.747	1	-9
354.918	1	2
355.089	1	1
355.260	1	-12
355.431	1	1
355.602	1	8
355.773	1	-3
355.944	1	-2
356.115	1	-14
356.286	1	0
356.457	1	3
356.628	1	-4
356.799	1	1
356.970	1	-10
357.141	1	1
357.311	1	8
357.482	1	0
357.653	1	0
357.824	1	1
357.995	1	7
358.166	1	3
358.337	1	-1
358.508	1	-4
358.679	1	7
358.850	1	3
359.021	1	-7
359.192	1	3
359.363	1	-3
359.533	1	-1
359.704	1	5
359.875	1	-5
360.046	1	4
360.217	1	4
360.388	1	-2
360.559	1	-1
360.730	1	-1
360.901	1	4
361.072	1	5
361.243	1	9
361.414	1	5
361.584	1	5
361.755	1	6
361.926	1	18
362.097	1	-2
362.268	1	4
362.439	1	-3
362.610	1	0
362.781	1	2
362.952	1	12
363.123	1	6
363.293	1	0
363.464	1	9
363.635	1	0
363.806	1	-4
363.977	1	5
364.148	1	1
364.319	1	2
364.490	1	-5
364.661	1	-1
364.832	1	-1
365.002	1	5
365.173	1	10
365.344	1	2
365.515	1	6
365.686	1	4
365.857	1	3
366.028	1	4
366.199	1	10
366.370	1	3
366.540	1	6
366.711	1	12
366.882	1	-1
367.053	1	18
367.224	1	7
367.395	1	9
367.566	1	2
367.737	1	-9
367.908	1	11
368.078	1	8
368.249	1	2
368.420	1	-2
368.591	1	19
368.762	1	-10
368.933	1	10
369.104	1	6
369.274	1	-2
369.445	1	5
369.616	1	-1
369.787	1	11
369.958	1	-4
370.129	1	13
370.300	1	-2
370.471	1	13
370.641	1	1
370.812	1	4
370.983	1	10
371.154	1	-6
371.325	1	2
371.496	1	-8
371.667	1	3
371.837	1	-6
372.008	1	5
372.179	1	6
372.350	1	3
372.521	1	-1
372.692	1	-3
372.863	1	1
373.033	1	5
373.204	1	0
373.375	1	-1
373.546	1	-2
373.717	1	9
373.888	1	-2
374.059	1	-3
374.229	1	-10
374.400	1	-1
374.571	1	-3
374.742	1	14
374.913	1	-4
375.084	1	0
375.254	1	-2
375.425	1	5
375.596	1	-2
375.767	1	3
375.938	1	7
376.109	1	-8
376.279	1	-3
376.450	1	-3
376.621	1	8
376.792	1	-5
376.963	1	6
377.134	1	-6
377.304	1	9
377.475	1	1
377.646	1	7
377.817	1	7
377.988	1	8
378.159	1	10
378.329	1	0
378.500	1	-5
378.671	1	0
378.842	1	-6
379.013	1	-6
379.184	1	6
379.354	1	-1
379.525	1	8
379.696	1	-2
379.867	1	-1
380.038	1	0
380.209	1	12
380.379	1	-11
380.550	1	7
380.721	1	8
380.892	1	5
381.063	1	7
381.233	1	12
381.404	1	3
381.575	1	-1
381.746	1	3
381.917	1	4
382.087	1	11
382.258	1	15
382.429	1	0
382.600	1	2
382.771	1	2
382.941	1	5
383.112	1	5
383.283	1	11
383.454	1	6
383.625	1	6
383.795	1	18
383.966	1	4
384.137	1	-3
384.308	1	12
384.479	1	19
384.649	1	5
384.820	1	-2
384.991	1	12
385.162	1	10
385.333	1	7
385.503	1	3
385.674	1	4
385.845	1	10
386.016	1	9
386.187	1	17
386.357	1	14
386.528	1	17
386.699	1	27
386.870	1	32
387.041	1	1
387.211	1	10
387.382	1	2
387.553	1	11
387.724	1	-4
387.894	1	17
388.065	1	14
388.236	1	16
388.407	1	13
388.578	1	13
388.748	1	13
388.919	1	8
389.090	1	18
389.261	1	-4
389.431	1	7
389.602	1	5
389.773	1	7
389.944	1	8
390.114	1	18
390.285	1	-1
390.456	1	7
390.627	1	-7
390.798	1	14
390.968	1	1
391.139	1	-1
391.310	1	8
391.481	1	11
391.651	1	9
391.822	1	20
391.993	1	17
392.164	1	2
392.334	1	17
392.505	1	9
392.676	1	11
392.847	1	20
393.017	1	-1
393.188	1	13
393.359	1	19
393.530	1	16
393.700	1	19
393.871	1	1
394.042	1	9
394.213	1	17
394.383	1	11
394.554	1	13
394.725	1	10
394.896	1	1
395.066	1	5
395.237	1	20
395.408	1	12
395.579	1	11
395.749	1	19
395.920	1	5
396.091	1	14
396.262	1	14
396.432	1	5
396.603	1	11
396.774	1	3
396.945	1	18
397.115	1	9
397.286	1	22
397.457	1	3
397.627	1	17
397.798	1	9
397.969	1	-1
398.140	1	10
398.310	1	17
398.481	1	6
398.652	1	12
398.823	1	21
398.993	1	4
399.164	1	17
399.335	1	3
399.505	1	17
399.676	1	11
399.847	1	6
400.018	1	11
400.188	1	21
400.359	1	2
400.530	1	5
400.700	1	4
400.871	1	0
401.042	1	8
401.213	1	2
401.383	1	14
401.554	1	14
401.725	1	10
401.895	1	10
402.066	1	11
402.237	1	0
402.408	1	10
402.578	1	0
402.749	1	2
402.920	1	-4
403.090	1	9
403.261	1	14
403.432	1	5
403.603	1	11
403.773	1	7
403.944	1	10
404.115	1	1
404.285	1	-1
404.456	1	6
404.627	1	14
404.797	1	23
404.968	1	5
405.139	1	-1
405.310	1	9
405.480	1	12
405.651	1	11
405.822	1	14
405.992	1	7
406.163	1	9
406.334	1	13
406.504	1	2
406.675	1	16
406.846	1	0
407.016	1	0
407.187	1	4
407.358	1	-3
407.528	1	3
407.699	1	10
407.870	1	13
408.041	1	4
408.211	1	8
408.382	1	14
408.553	1	14
408.723	1	6
408.894	1	-8
409.065	1	11
409.235	1	7
409.406	1	8
409.577	1	7
409.747	1	5
409.918	1	11
410.089	1	7
410.259	1	-5
410.430	1	8
410.601	1	-4
410.771	1	11
410.942	1	10
411.113	1	4
411.283	1	0
411.454	1	8
411.625	1	9
411.795	1	10
411.966	1	0
412.137	1	5
412.307	1	9
412.478	1	7
412.649	1	7
412.819	1	1
412.990	1	10
413.161	1	7
413.331	1	-5
413.502	1	10
413.672	1	2
413.843	1	5
414.014	1	10
414.184	1	-8
414.355	1	-5
414.526	1	6
414.696	1	8
414.867	1	2
415.038	1	-1
415.208	1	4
415.379	1	7
415.550	1	5
415.720	1	-2
415.891	1	11
416.062	1	-4
416.232	1	0
416.403	1	2
416.573	1	-1
416.744	1	12
416.915	1	5
417.085	1	7
417.256	1	-3
417.427	1	3
417.597	1	-10
417.768	1	2
417.939	1	3
418.109	1	13
418.280	1	3
418.450	1	4
418.621	1	-5
418.792	1	-1
418.962	1	-2
419.133	1	0
419.304	1	10
419.474	1	3
419.645	1	17
419.815	1	-3
419.986	1	9
420.157	1	2
420.327	1	14
420.498	1	4
420.669	1	11
420.839	1	7
421.010	1	12
421.180	1	3
421.351	1	12
421.522	1	13
421.692	1	4
421.863	1	-4
422.033	1	-4
422.204	1	-9
422.375	1	-8
422.545	1	2
422.716	1	3
422.886	1	14
423.057	1	7
423.228	1	-16
423.398	1	3
423.569	1	-7
423.740	1	-5
423.910	1	-1
424.081	1	-1
424.251	1	-3
424.422	1	5
424.593	1	0
424.763	1	5
424.934	1	-1
425.104	1	-2
425.275	1	-4
425.445	1	-3
425.616	1	5
425.787	1	-11
425.957	1	12
426.128	1	1
426.298	1	-5
426.469	1	5
426.640	1	-2
426.810	1	10
426.981	1	-9
427.151	1	9
427.322	1	5
427.493	1	3
427.663	1	3
427.834	1	-4
428.004	1	12
428.175	1	6
428.345	1	10
428.516	1	-2
428.687	1	-2
428.857	1	0
429.028	1	-1
429.198	1	-5
429.369	1	-3
429.540	1	9
429.710	1	-2
429.881	1	11
430.051	1	10
430.222	1	10
430.392	1	5
430.563	1	8
430.734	1	-2
430.904	1	-5
431.075	1	8
431.245	1	-2
431.416	1	-3
431.586	1	1
431.757	1	7
431.927	1	12
432.098	1	-4
432.269	1	8
432.439	1	-5
432.610	1	-1
432.780	1	4
432.951	1	2
433.121	1	-3
433.292	1	-1
433.462	1	7
433.633	1	-4
433.804	1	-6
433.974	1	-7
434.145	1	6
434.315	1	4
434.486	1	11
434.656	1	1
434.827	1	-2
434.997	1	2
435.168	1	-4
435.339	1	4
435.509	1	11
435.680	1	-1
435.850	1	3
436.021	1	5
436.191	1	-8
436.362	1	2
436.532	1	7
436.703	1	2
436.873	1	-1
437.044	1	1
437.214	1	0
437.385	1	-2
437.556	1	0
437.726	1	1
437.897	1	8
438.067	1	2
438.238	1	-10
438.408	1	2
438.579	1	2
438.749	1	5
438.920	1	5
439.090	1	14
439.261	1	-6
439.431	1	0
439.602	1	11
439.772	1	4
439.943	1	2
440.113	1	-1
440.284	1	9
440.455	1	-5
440.625	1	4
440.796	1	2
440.966	1	18
441.137	1	-12
441.307	1	5
441.478	1	0
441.648	1	-5
441.819	1	0
441.989	1	1
442.160	1	10
442.330	1	3
442.501	1	-17
442.671	1	2
442.842	1	9
443.012	1	2
443.183	1	4
443.353	1	12
443.524	1	-1
443.694	1	0
443.865	1	5
444.035	1	3
444.206	1	-1
444.376	1	3
444.547	1	-3
444.717	1	17
444.888	1	-9
445.058	1	5
445.229	1	-3
445.399	1	10
445.570	1	2
445.740	1	5
445.911	1	14
446.081	1	6
446.252	1	-11
446.422	1	0
446.593	1	-4
446.763	1	11
446.934	1	10
447.104	1	-5
447.275	1	-5
447.445	1	-5
447.616	1	-3
447.786	1	-1
447.957	1	9
448.127	1	2
448.298	1	9
448.468	1	-2
448.639	1	-2
448.809	1	2
448.979	1	10
449.150	1	1
449.320	1	10
449.491	1	-8
449.661	1	5
449.832	1	-6
450.002	1	-2
450.173	1	-6
450.343	1	0
450.514	1	-2
450.684	1	2
450.855	1	4
451.025	1	6
451.196	1	1
451.366	1	-4
451.537	1	-9
451.707	1	1
451.878	1	-4
452.048	1	-4
452.218	1	7
452.389	1	-6
452.559	1	3
452.730	1	5
452.900	1	2
453.071	1	-1
453.241	1	-3
453.412	1	-6
453.582	1	4
453.753	1	-7
453.923	1	-7
454.093	1	3
454.264	1	-14
454.434	1	-6
454.605	1	-5
454.775	1	8
454.946	1	0
455.116	1	-5
455.287	1	9
455.457	1	4
455.628	1	-7
455.798	1	-3
455.968	1	3
456.139	1	10
456.309	1	-9
456.480	1	0
456.650	1	-4
456.821	1	-2
456.991	1	10
457.161	1	5
457.332	1	-2
457.502	1	7
457.673	1	-15
457.843	1	6
458.014	1	-1
458.184	1	8
458.355	1	7
458.525	1	3
458.695	1	2
458.866	1	-3
459.036	1	0
459.207	1	3
459.377	1	5
459.548	1	-3
459.718	1	-10
459.888	1	11
460.059	1	-1
460.229	1	9
460.400	1	5
460.570	1	-4
460.740	1	-5
460.911	1	12
461.081	1	-16
461.252	1	-3
461.422	1	2
461.593	1	-7
461.763	1	3
461.933	1	-2
462.104	1	6
462.274	1	8
462.445	1	-4
462.615	1	2
462.785	1	-7
462.956	1	0
463.126	1	-7
463.297	1	0
463.467	1	-2
463.638	1	2
463.808	1	5
463.978	1	11
464.149	1	-1
464.319	1	1
464.490	1	-4
464.660	1	6
464.830	1	-3
465.001	1	7
465.171	1	9
465.342	1	3
465.512	1	-3
465.682	1	0
465.853	1	1
466.023	1	-8
466.194	1	1
466.364	1	-1
466.534	1	-1
466.705	1	9
466.875	1	0
467.045	1	2
467.216	1	-14
467.386	1	10
467.557	1	5
467.727	1	-3
467.897	1	5
468.068	1	6
468.238	1	-5
468.409	1	0
468.579	1	12
468.749	1	2
468.920	1	2
469.090	1	7
469.260	1	10
469.431	1	-10
469.601	1	-4
469.772	1	-14
469.942	1	3
470.112	1	-3
470.283	1	15
470.453	1	0
470.623	1	7
470.794	1	-3
470.964	1	-11
471.135	1	-7
471.305	1	6
471.475	1	-5
471.646	1	0
471.816	1	-1
471.986	1	4
472.157	1	-4
472.327	1	0
472.497	1	-9
472.668	1	-7
472.838	1	6
473.009	1	2
473.179	1	7
473.349	1	-1
473.520	1	10
473.690	1	10
473.860	1	1
474.031	1	2
474.201	1	2
474.371	1	4
474.542	1	-3
474.712	1	10
474.882	1	-5
475.053	1	-5
475.223	1	-3
475.394	1	13
475.564	1	15
475.734	1	-9
475.905	1	-9
476.075	1	2
476.245	1	-5
476.416	1	-9
476.586	1	-4
476.756	1	9
476.927	1	2
477.097	1	-1
477.267	1	-2
477.438	1	-4
477.608	1	6
477.778	1	5
477.949	1	3
478.119	1	2
478.289	1	3
478.460	1	-8
478.630	1	-2
478.800	1	0
478.971	1	0
479.141	1	6
479.311	1	7
479.482	1	-5
479.652	1	4
479.822	1	-3
479.993	1	8
480.163	1	-6
480.333	1	-4
480.504	1	-9
480.674	1	2
480.844	1	10
481.015	1	-3
481.185	1	5
481.355	1	9
481.525	1	-4
481.696	1	-2
481.866	1	-5
482.036	1	-5
482.207	1	1
482.377	1	-2
482.547	1	2
482.718	1	7
482.888	1	4
483.058	1	0
483.229	1	3
483.399	1	-5
483.569	1	2
483.740	1	-8
483.910	1	-3
484.080	1	-12
484.250	1	2
484.421	1	-3
484.591	1	4
484.761	1	-11
484.932	1	9
485.102	1	-2
485.272	1	-1
485.443	1	9
485.613	1	-7
485.783	1	-1
485.953	1	-3
486.124	1	2
486.294	1	2
486.464	1	1
486.635	1	12
486.805	1	21
486.975	1	-11
487.146	1	3
487.316	1	11
487.486	1	-3
487.656	1	-17
487.827	1	1
487.997	1	8
488.167	1	7
488.338	1	22
488.508	1	3
488.678	1	-3
488.848	1	-6
489.019	1	-4
489.189	1	-10
489.359	1	5
489.529	1	-6
489.700	1	11
489.870	1	-6
490.040	1	4
490.211	1	4
490.381	1	0
490.551	1	-1
490.721	1	2
490.892	1	3
491.062	1	6
491.232	1	1
491.402	1	-5
491.573	1	3
491.743	1	-9
491.913	1	4
492.084	1	1
492.254	1	-1
492.424	1	-2
492.594	1	6
492.765	1	3
492.935	1	-4
493.105	1	13
493.275	1	3
493.446	1	3
493.616	1	-5
493.786	1	9
493.956	1	0
494.127	1	-3
494.297	1	-5
494.467	1	11
494.637	1	-1
494.808	1	3
494.978	1	2
495.148	1	5
495.318	1	12
495.489	1	3
495.659	1	4
495.829	1	4
495.999	1	2
496.170	1	-6
496.340	1	6
496.510	1	9
496.680	1	4
496.851	1	9
497.021	1	1
497.191	1	1
497.361	1	8
497.532	1	2
497.702	1	4
497.872	1	-3
498.042	1	3
498.213	1	-2
498.383	1	-7
498.553	1	13
498.723	1	-3
498.894	1	12
499.064	1	7
499.234	1	0
499.404	1	11
499.574	1	0
499.745	1	-3
499.915	1	-2
500.085	1	1
500.255	1	8
500.426	1	-1
500.596	1	-1
500.766	1	2
500.936	1	-1
501.106	1	1
501.277	1	-3
501.447	1	-5
501.617	1	0
501.787	1	-4
501.958	1	1
502.128	1	2
502.298	1	5
502.468	1	10
502.638	1	6
502.809	1	7
502.979	1	0
503.149	1	1
503.319	1	6
503.489	1	12
503.660	1	-3
503.830	1	-2
504.000	1	-7
504.170	1	10
504.340	1	8
504.511	1	9
504.681	1	5
504.851	1	-2
505.021	1	2
505.192	1	14
505.362	1	-4
505.532	1	2
505.702	1	1
505.872	1	-13
506.043	1	1
506.213	1	5
506.383	1	-1
506.553	1	11
506.723	1	2
506.893	1	7
507.064	1	-8
507.234	1	6
507.404	1	-5
507.574	1	3
507.744	1	-13
507.915	1	12
508.085	1	14
508.255	1	15
508.425	1	20
508.595	1	-2
508.766	1	-2
508.936	1	5
509.106	1	-7
509.276	1	9
509.446	1	-1
509.616	1	0
509.787	1	1
509.957	1	8
510.127	1	11
510.297	1	0
510.467	1	-5
510.638	1	9
510.808	1	-9
510.978	1	-4
511.148	1	12
511.318	1	-1
511.488	1	12
511.659	1	-1
511.829	1	6
511.999	1	11
512.169	1	6
512.339	1	2
512.509	1	8
512.680	1	0
512.850	1	8
513.020	1	5
513.190	1	3
513.360	1	3
513.530	1	3
513.700	1	4
513.871	1	7
514.041	1	4
514.211	1	-4
514.381	1	4
514.551	1	9
514.721	1	10
514.892	1	6
515.062	1	2
515.232	1	-1
515.402	1	1
515.572	1	-4
515.742	1	0
515.912	1	4
516.083	1	0
516.253	1	-1
516.423	1	10
516.593	1	5
516.763	1	1
516.933	1	-2
517.104	1	11
517.274	1	4
517.444	1	1
517.614	1	1
517.784	1	-3
517.954	1	8
518.124	1	3
518.294	1	4
518.465	1	-6
518.635	1	5
518.805	1	9
518.975	1	7
519.145	1	-3
519.315	1	4
519.485	1	-6
519.656	1	4
519.826	1	1
519.996	1	16
520.166	1	0
520.336	1	7
520.506	1	13
520.676	1	5
520.846	1	-2
521.017	1	-4
521.187	1	-1
521.357	1	-3
521.527	1	2
521.697	1	9
521.867	1	6
522.037	1	0
522.207	1	10
522.377	1	5
522.548	1	-3
522.718	1	-1
522.888	1	2
523.058	1	17
523.228	1	17
523.398	1	14
523.568	1	3
523.738	1	4
523.909	1	13
524.079	1	6
524.249	1	1
524.419	1	0
524.589	1	5
524.759	1	6
524.929	1	7
525.099	1	-1
525.269	1	6
525.439	1	-3
525.610	1	7
525.780	1	14
525.950	1	3
526.120	1	-2
526.290	1	-6
526.460	1	9
526.630	1	8
526.800	1	-2
526.970	1	1
527.140	1	-3
527.311	1	11
527.481	1	12
527.651	1	18
527.821	1	-8
527.991	1	6
528.161	1	-1
528.331	1	0
528.501	1	-2
528.671	1	12
528.841	1	10
529.011	1	4
529.181	1	2
529.352	1	6
529.522	1	3
529.692	1	5
529.862	1	3
530.032	1	4
530.202	1	3
530.372	1	-2
530.542	1	12
530.712	1	18
530.882	1	1
531.052	1	10
531.222	1	-7
531.392	1	3
531.563	1	4
531.733	1	5
531.903	1	14
532.073	1	2
532.243	1	2
532.413	1	6
532.583	1	1
532.753	1	4
532.923	1	-2
533.093	1	8
533.263	1	1
533.433	1	9
533.603	1	11
533.773	1	8
533.943	1	-3
534.113	1	-1
534.284	1	-1
534.454	1	4
534.624	1	2
534.794	1	3
534.964	1	2
535.134	1	-4
535.304	1	20
535.474	1	4
535.644	1	15
535.814	1	3
535.984	1	5
536.154	1	2
536.324	1	10
536.494	1	7
536.664	1	10
536.834	1	7
537.004	1	15
537.174	1	8
537.344	1	7
537.514	1	11
537.685	1	9
537.855	1	7
538.025	1	1
538.195	1	15
538.365	1	13
538.535	1	10
538.705	1	-7
538.875	1	3
539.045	1	7
539.215	1	-5
539.385	1	11
539.555	1	-10
539.725	1	10
539.895	1	8
540.065	1	-1
540.235	1	-10
540.405	1	5
540.575	1	12
540.745	1	-3
540.915	1	14
541.085	1	-5
541.255	1	3
541.425	1	0
541.595	1	4
541.765	1	7
541.935	1	9
542.105	1	0
542.275	1	0
542.445	1	5
542.615	1	6
542.785	1	1
542.955	1	4
543.125	1	1
543.295	1	5
543.465	1	17
543.635	1	3
543.805	1	6
543.975	1	12
544.145	1	9
544.315	1	-3
544.485	1	9
544.655	1	4
544.825	1	11
544.995	1	0
545.165	1	9
545.335	1	13
545.505	1	2
545.675	1	1
545.845	1	10
546.015	1	-1
546.185	1	0
546.355	1	9
546.525	1	5
546.695	1	-4
546.865	1	-3
547.035	1	13
547.205	1	-2
547.375	1	10
547.545	1	0
547.715	1	6
547.885	1	6
548.055	1	0
548.225	1	-3
548.395	1	9
548.565	1	7
548.735	1	14
548.905	1	-4
549.075	1	2
549.245	1	1
549.415	1	-5
549.585	1	4
549.755	1	-4
549.925	1	10
550.095	1	2
550.265	1	7
550.435	1	5
550.605	1	1
550.775	1	-9
550.945	1	12
551.115	1	-2
551.285	1	11
551.455	1	4
551.625	1	-2
551.795	1	-8
551.965	1	7
552.135	1	7
552.305	1	-3
552.475	1	-1
552.645	1	12
552.815	1	2
552.985	1	12
553.155	1	8
553.325	1	15
553.495	1	-2
553.665	1	3
553.835	1	9
554.004	1	9
554.174	1	-1
554.344	1	-1
554.514	1	10
554.684	1	8
554.854	1	11
555.024	1	-3
555.194	1	14
555.364	1	5
555.534	1	-4
555.704	1	4
555.874	1	-12
556.044	1	5
556.214	1	4
556.384	1	11
556.554	1	0
556.724	1	-2
556.894	1	12
557.064	1	2
557.234	1	1
557.404	1	-3
557.573	1	8
557.743	1	0
557.913	1	-2
558.083	1	-5
558.253	1	-5
558.423	1	-6
558.593	1	3
558.763	1	2
558.933	1	8
559.103	1	7
559.273	1	6
559.443	1	1
559.613	1	12
559.783	1	3
559.953	1	-3
560.122	1	-4
560.292	1	2
560.462	1	5
560.632	1	8
560.802	1	8
560.972	1	12
561.142	1	2
561.312	1	14
561.482	1	5
561.652	1	9
561.822	1	-6
561.992	1	-1
562.162	1	1
562.331	1	9
562.501	1	3
562.671	1	10
562.841	1	-4
563.011	1	8
563.181	1	6
563.351	1	1
563.521	1	4
563.691	1	-1
563.861	1	13
564.031	1	11
564.201	1	8
564.370	1	1
564.540	1	7
564.710	1	-5
564.880	1	5
565.050	1	0
565.220	1	0
565.390	1	-3
565.560	1	6
565.730	1	-2
565.900	1	-3
566.069	1	1
566.239	1	-6
566.409	1	11
566.579	1	3
566.749	1	5
566.919	1	-2
567.089	1	2
567.259	1	12
567.429	1	1
567.599	1	5
567.768	1	4
567.938	1	4
568.108	1	-5
568.278	1	-8
568.448	1	-3
568.618	1	2
568.788	1	2
568.958	1	9
569.128	1	8
569.297	1	4
569.467	1	6
569.637	1	5
569.807	1	6
569.977	1	1
570.147	1	0
570.317	1	20
570.487	1	0
570.656	1	0
570.826	1	6
570.996	1	-1
571.166	1	1
571.336	1	8
571.506	1	-2
571.676	1	16
571.846	1	9
572.015	1	-4
572.185	1	-6
572.355	1	10
572.525	1	1
572.695	1	2
572.865	1	3
573.035	1	1
573.205	1	18
573.374	1	4
573.544	1	-3
573.714	1	9
573.884	1	0
574.054	1	7
574.224	1	-2
574.394	1	0
574.563	1	2
574.733	1	-1
574.903	1	5
575.073	1	1
575.243	1	-10
575.413	1	0
575.583	1	12
575.752	1	0
575.922	1	-4
576.092	1	10
576.262	1	-1
576.432	1	-16
576.602	1	5
576.772	1	10
576.941	1	0
577.111	1	5
577.281	1	1
577.451	1	9
577.621	1	-3
577.791	1	5
577.960	1	-5
578.130	1	-5
578.300	1	2
578.470	1	3
578.640	1	-5
578.810	1	3
578.979	1	1
579.149	1	1
579.319	1	9
579.489	1	-1
579.659	1	4
579.829	1	6
579.998	1	2
580.168	1	6
580.338	1	-5
580.508	1	-4
580.678	1	-4
580.848	1	2
581.017	1	3
581.187	1	-2
581.357	1	2
581.527	1	9
581.697	1	-6
581.867	1	-9
582.036	1	5
582.206	1	-3
582.376	1	6
582.546	1	-2
582.716	1	3
582.885	1	0
583.055	1	-3
583.225	1	4
583.395	1	3
583.565	1	1
583.735	1	3
583.904	1	3
584.074	1	3
584.244	1	6
584.414	1	-4
584.584	1	9
584.753	1	-1
584.923	1	-2
585.093	1	7
585.263	1	1
585.433	1	3
585.602	1	0
585.772	1	-1
585.942	1	7
586.112	1	7
586.282	1	-1
586.451	1	10
586.621	1	-2
586.791	1	3
586.961	1	0
587.131	1	3
587.300	1	-1
587.470	1	-1
587.640	1	-4
587.810	1	2
587.980	1	6
588.149	1	-3
588.319	1	2
588.489	1	2
588.659	1	-7
588.829	1	8
588.998	1	-4
589.168	1	10
589.338	1	6
589.508	1	3
589.677	1	1
589.847	1	4
590.017	1	-11
590.187	1	-6
590.357	1	2
590.526	1	-2
590.696	1	1
590.866	1	6
591.036	1	5
591.205	1	1
591.375	1	-7
591.545	1	-5
591.715	1	-9
591.885	1	13
592.054	1	6
592.224	1	11
592.394	1	3
592.564	1	-7
592.733	1	3
592.903	1	9
593.073	1	5
593.243	1	-7
593.412	1	4
593.582	1	9
593.752	1	-4
593.922	1	3
594.091	1	5
594.261	1	14
594.431	1	-2
594.601	1	-8
594.771	1	3
594.940	1	4
595.110	1	3
595.280	1	5
595.450	1	-1
595.619	1	0
595.789	1	10
595.959	1	12
596.129	1	-1
596.298	1	4
596.468	1	-3
596.638	1	1
596.808	1	11
596.977	1	-5
597.147	1	10
597.317	1	3
597.487	1	2
597.656	1	-5
597.826	1	-1
597.996	1	2
598.166	1	-3
598.335	1	3
598.505	1	-1
598.675	1	3
598.844	1	-5
599.014	1	-6
599.184	1	3
599.354	1	-8
599.523	1	-2
599.693	1	11
599.863	1	6
600.033	1	3
600.202	1	-3
600.372	1	-1
600.542	1	-2
600.712	1	4
600.881	1	1
601.051	1	5
601.221	1	3
601.390	1	-8
601.560	1	7
601.730	1	2
601.900	1	6
602.069	1	1
602.239	1	-4
602.409	1	1
602.578	1	-4
602.748	1	-3
602.918	1	-7
603.088	1	-3
603.257	1	10
603.427	1	0
603.597	1	15
603.767	1	-3
603.936	1	2
604.106	1	0
604.276	1	-5
604.445	1	11
604.615	1	-7
604.785	1	9
604.954	1	3
605.124	1	-9
605.294	1	2
605.464	1	-5
605.633	1	-2
605.803	1	9
605.973	1	3
606.142	1	-5
606.312	1	-2
606.482	1	1
606.652	1	-11
606.821	1	5
606.991	1	2
607.161	1	-8
607.330	1	7
607.500	1	-3
607.670	1	-1
607.839	1	4
608.009	1	-4
608.179	1	-1
608.348	1	-3
608.518	1	0
608.688	1	1
608.858	1	2
609.027	1	5
609.197	1	-2
609.367	1	-2
609.536	1	-2
609.706	1	0
609.876	1	-8
610.045	1	-1
610.215	1	6
610.385	1	-4
610.554	1	0
610.724	1	-4
610.894	1	5
611.063	1	6
611.233	1	-4
611.403	1	1
611.572	1	9
611.742	1	-2
611.912	1	-3
612.081	1	3
612.251	1	6
612.421	1	13
612.590	1	-2
612.760	1	7
612.930	1	8
613.099	1	-4
613.269	1	-6
613.439	1	1
613.608	1	7
613.778	1	-5
613.948	1	3
614.117	1	7
614.287	1	-5
614.457	1	-3
614.626	1	4
614.796	1	14
614.966	1	-1
615.135	1	2
615.305	1	-6
615.475	1	3
615.644	1	-5
615.814	1	-6
615.984	1	15
616.153	1	-6
616.323	1	0
616.493	1	3
616.662	1	-5
616.832	1	-2
617.002	1	0
617.171	1	-10
617.341	1	11
617.511	1	2
617.680	1	0
617.850	1	8
618.019	1	2
618.189	1	-3
618.359	1	6
618.528	1	0
618.698	1	-1
618.868	1	5
619.037	1	11
619.207	1	-5
619.377	1	-10
619.546	1	-7
619.716	1	-5
619.885	1	-4
620.055	1	5
620.225	1	-4
620.394	1	-6
620.564	1	-2
620.734	1	-1
620.903	1	8
621.073	1	-2
621.242	1	1
621.412	1	12
621.582	1	-4
621.751	1	4
621.921	1	5
622.091	1	-5
622.260	1	-9
622.430	1	7
622.599	1	5
622.769	1	-9
622.939	1	-4
623.108	1	1
623.278	1	-3
623.448	1	-5
623.617	1	6
623.787	1	2
623.956	1	3
624.126	1	3
624.296	1	8
624.465	1	2
624.635	1	3
624.804	1	-7
624.974	1	-1
625.144	1	-1
625.313	1	8
625.483	1	6
625.652	1	8
625.822	1	8
625.992	1	-10
626.161	1	-5
626.331	1	2
626.501	1	4
626.670	1	6
626.840	1	6
627.009	1	-4
627.179	1	-5
627.348	1	1
627.518	1	0
627.688	1	-1
627.857	1	5
628.027	1	12
628.196	1	7
628.366	1	6
628.536	1	3
628.705	1	1
628.875	1	4
629.044	1	8
629.214	1	1
629.384	1	-11
629.553	1	5
629.723	1	0
629.892	1	6
630.062	1	2
630.232	1	7
630.401	1	3
630.571	1	-4
630.740	1	5
630.910	1	-1
631.079	1	10
631.249	1	-4
631.419	1	8
631.588	1	0
631.758	1	8
631.927	1	-13
632.097	1	5
632.266	1	-2
632.436	1	-6
632.606	1	1
632.775	1	-3
632.945	1	1
633.114	1	11
633.284	1	3
633.453	1	-8
633.623	1	-5
633.793	1	-1
633.962	1	2
634.132	1	2
634.301	1	0
634.471	1	-2
634.640	1	19
634.810	1	1
634.979	1	8
635.149	1	0
635.319	1	2
635.488	1	2
635.658	1	-11
635.827	1	-3
635.997	1	-8
636.166	1	-2
636.336	1	8
636.505	1	-4
636.675	1	5
636.845	1	3
637.014	1	1
637.184	1	-9
637.353	1	3
637.523	1	-8
637.692	1	-3
637.862	1	-12
638.031	1	7
638.201	1	9
638.370	1	6
638.540	1	5
638.710	1	1
638.879	1	3
639.049	1	8
639.218	1	-4
639.388	1	2
639.557	1	6
639.727	1	1
639.896	1	4
640.066	1	8
640.235	1	3
640.405	1	2
640.574	1	1
640.744	1	7
640.914	1	-3
641.083	1	-4
641.253	1	-5
641.422	1	-6
641.592	1	-9
641.761	1	6
641.931	1	15
642.100	1	-4
642.270	1	1
642.439	1	-6
642.609	1	8
642.778	1	-7
642.948	1	-4
643.117	1	-2
643.287	1	6
643.456	1	6
643.626	1	4
643.795	1	2
643.965	1	0
644.134	1	0
644.304	1	-3
644.473	1	9
644.643	1	6
644.812	1	3
644.982	1	2
645.151	1	2
645.321	1	6
645.490	1	6
645.660	1	-9
645.829	1	-8
645.999	1	-2
646.168	1	-3
646.338	1	10
646.507	1	0
646.677	1	7
646.846	1	7
647.016	1	10
647.185	1	-4
647.355	1	-1
647.524	1	-1
647.694	1	-6
647.863	1	-8
648.033	1	-13
648.202	1	7
648.372	1	2
648.541	1	1
648.711	1	4
648.880	1	3
649.050	1	-2
649.219	1	2
649.389	1	-3
649.558	1	-1
649.728	1	0
649.897	1	-3
650.067	1	2
650.236	1	-3
650.406	1	1
650.575	1	-7
650.745	1	-12
650.914	1	-4
651.084	1	-10
651.253	1	0
651.423	1	8
651.592	1	-8
651.762	1	4
651.931	1	-2
652.101	1	-2
652.270	1	2
652.440	1	0
652.609	1	3
652.778	1	-6
652.948	1	-5
653.117	1	-3
653.287	1	10
653.456	1	-3
653.626	1	4
653.795	1	1
653.965	1	10
654.134	1	4
654.304	1	3
654.473	1	-8
654.643	1	5
654.812	1	4
654.982	1	-11
655.151	1	-17
655.320	1	-1
655.490	1	6
655.659	1	0
655.829	1	-6
655.998	1	12
656.168	1	2
656.337	1	-8
656.507	1	15
656.676	1	-7
656.846	1	-8
657.015	1	-1
657.184	1	1
657.354	1	-4
657.523	1	-3
657.693	1	-1
657.862	1	-3
658.032	1	10
658.201	1	6
658.371	1	-14
658.540	1	1
658.709	1	-10
658.879	1	2
659.048	1	9
659.218	1	0
659.387	1	-13
659.557	1	-5
659.726	1	-1
659.895	1	-4
660.065	1	1
660.234	1	2
660.404	1	7
660.573	1	-6
660.743	1	-6
660.912	1	1
661.081	1	3
661.251	1	-1
661.420	1	-2
661.590	1	0
661.759	1	0
661.929	1	3
662.098	1	-9
662.267	1	9
662.437	1	2
662.606	1	3
662.776	1	-1
662.945	1	4
663.115	1	-2
663.284	1	-2
663.453	1	-6
663.623	1	3
663.792	1	-2
663.962	1	-5
664.131	1	-10
664.300	1	-3
664.470	1	-3
664.639	1	-3
664.809	1	0
664.978	1	4
665.148	1	0
665.317	1	0
665.486	1	-3
665.656	1	-7
665.825	1	-1
665.995	1	9
666.164	1	1
666.333	1	12
666.503	1	-8
666.672	1	-14
666.842	1	-12
667.011	1	1
667.180	1	-4
667.350	1	10
667.519	1	-7
667.689	1	-1
667.858	1	5
668.027	1	-5
668.197	1	1
668.366	1	1
668.536	1	1
668.705	1	2
668.874	1	-6
669.044	1	-4
669.213	1	-1
669.382	1	-2
669.552	1	4
669.721	1	5
669.891	1	12
670.060	1	2
670.229	1	-5
670.399	1	7
670.568	1	10
670.738	1	-1
670.907	1	-6
671.076	1	4
671.246	1	10
671.415	1	1
671.584	1	-7
671.754	1	-16
671.923	1	0
672.093	1	3
672.262	1	0
672.431	1	-1
672.601	1	-7
672.770	1	-5
672.939	1	-5
673.109	1	1
673.278	1	-1
673.448	1	3
673.617	1	0
673.786	1	0
