325.333	1	-1
325.504	1	13
325.675	1	2
325.846	1	-10
326.017	1	0
326.188	1	1
326.359	1	10
326.531	1	-4
326.702	1	7
326.873	1	3
327.044	1	2
327.215	1	-2
327.386	1	-5
327.557	1	0
327.728	1	3
327.899	1	-8
328.070	1	5
328.241	1	-1
328.412	1	3
328.583	1	-6
328.754	1	0
328.926	1	7
329.097	1	5
329.268	1	3
329.439	1	9
329.610	1	0
329.781	1	-9
329.952	1	11
330.123	1	1
330.294	1	10
330.465	1	5
330.636	1	10
330.807	1	6
330.978	1	-9
331.149	1	0
331.320	1	-2
331.492	1	-6
331.663	1	-1
331.834	1	6
332.005	1	12
332.176	1	-8
332.347	1	11
332.518	1	4
332.689	1	7
332.860	1	-5
333.031	1	0
333.202	1	3
333.373	1	-5
333.544	1	1
333.715	1	-1
333.886	1	2
334.057	1	-5
334.228	1	-2
334.399	1	4
334.570	1	-3
334.741	1	3
334.912	1	-7
335.084	1	-4
335.255	1	-3
335.426	1	0
335.597	1	-1
335.768	1	5
335.939	1	1
336.110	1	1
336.281	1	-8
336.452	1	3
336.623	1	6
336.794	1	-9
336.965	1	-4
337.136	1	-4
337.307	1	7
337.478	1	1
337.649	1	6
337.820	1	17
337.991	1	9
338.162	1	8
338.333	1	4
338.504	1	-8
338.675	1	3
338.846	1	-3
339.017	1	-1
339.188	1	14
339.359	1	-3
339.530	1	9
339.701	1	2
339.872	1	-1
340.043	1	-4
340.214	1	-6
340.385	1	-2
340.556	1	1
340.727	1	1
340.898	1	-1
341.069	1	4
341.240	1	-2
341.411	1	2
341.582	1	-5
341.753	1	-1
341.924	1	-9
342.095	1	8
342.266	1	-7
342.437	1	6
342.608	1	-3
342.779	1	0
342.950	1	-4
343.121	1	5
343.292	1	-2
343.463	1	-7
343.634	1	3
343.805	1	7
343.976	1	12
344.147	1	-2
344.318	1	2
344.489	1	-5
344.660	1	13
344.831	1	-3
345.002	1	0
345.173	1	-6
345.344	1	-2
345.515	1	8
345.686	1	3
345.857	1	-10
346.028	1	-11
346.199	1	-1
346.370	1	-5
346.541	1	-6
346.712	1	0
346.883	1	-2
347.054	1	-1
347.225	1	-3
347.396	1	1
347.567	1	3
347.738	1	15
347.909	1	5
348.080	1	-14
348.251	1	1
348.422	1	6
348.593	1	-9
348.764	1	-1
348.935	1	13
349.106	1	-1
349.277	1	-9
349.448	1	-7
349.619	1	2
349.790	1	1
349.961	1	9
350.132	1	-5
350.303	1	-4
350.474	1	5
350.645	1	1
350.816	1	-8
350.987	1	-3
351.157	1	10
351.328	1	-6
351.499	1	-9
351.670	1	5
351.841	1	4
352.012	1	-7
352.183	1	1
352.354	1	9
352.525	1	2
352.696	1	-10
352.867	1	1
353.038	1	14
353.209	1	4
353.380	1	9
353.551	1	3
353.722	1	5
353.893	1	-1
354.064	1	9
354.235	1	5
354.406	1	-7
354.576	1	9
354.747	1	-6
354.918	1	-10
355.089	1	1
355.260	1	2
355.431	1	7
355.602	1	4
355.773	1	2
355.944	1	3
356.115	1	-10
356.286	1	-3
356.457	1	-2
356.628	1	8
356.799	1	-9
356.970	1	-9
357.141	1	-5
357.311	1	-1
357.482	1	-7
357.653	1	0
357.824	1	3
357.995	1	1
358.166	1	-6
358.337	1	0
358.508	1	7
358.679	1	5
358.850	1	-5
359.021	1	-12
359.192	1	5
359.363	1	-2
359.533	1	-3
359.704	1	4
359.875	1	5
360.046	1	5
360.217	1	10
360.388	1	1
360.559	1	2
360.730	1	-9
360.901	1	10
361.072	1	-4
361.243	1	1
361.414	1	9
361.584	1	8
361.755	1	15
361.926	1	8
362.097	1	-8
362.268	1	1
362.439	1	3
362.610	1	-9
362.781	1	4
362.952	1	8
363.123	1	-5
363.293	1	-1
363.464	1	12
363.635	1	-5
363.806	1	5
363.977	1	2
364.148	1	-2
364.319	1	1
364.490	1	1
364.661	1	0
364.832	1	-9
365.002	1	5
365.173	1	-2
365.344	1	-8
365.515	1	-2
365.686	1	5
365.857	1	-5
366.028	1	5
366.199	1	-5
366.370	1	7
366.540	1	0
366.711	1	-1
366.882	1	4
367.053	1	12
367.224	1	1
367.395	1	-2
367.566	1	1
367.737	1	-8
367.908	1	-1
368.078	1	3
368.249	1	-2
368.420	1	-6
368.591	1	20
368.762	1	-1
368.933	1	2
369.104	1	7
369.274	1	1
369.445	1	-11
369.616	1	-3
369.787	1	5
369.958	1	7
370.129	1	3
370.300	1	-6
370.471	1	5
370.641	1	-4
370.812	1	9
370.983	1	6
371.154	1	-4
371.325	1	-8
371.496	1	-6
371.667	1	8
371.837	1	-19
372.008	1	-1
372.179	1	1
372.350	1	-4
372.521	1	-6
372.692	1	4
372.863	1	-1
373.033	1	6
373.204	1	7
373.375	1	3
373.546	1	-5
373.717	1	3
373.888	1	-7
374.059	1	-5
374.229	1	-13
374.400	1	-2
374.571	1	-4
374.742	1	9
374.913	1	1
375.084	1	-5
375.254	1	-3
375.425	1	-2
375.596	1	2
375.767	1	-4
375.938	1	2
376.109	1	-17
376.279	1	-6
376.450	1	7
376.621	1	10
376.792	1	1
376.963	1	5
377.134	1	-5
377.304	1	4
377.475	1	3
377.646	1	4
377.817	1	6
377.988	1	-6
378.159	1	6
378.329	1	3
378.500	1	1
378.671	1	-3
378.842	1	-5
379.013	1	-3
379.184	1	-1
379.354	1	0
379.525	1	6
379.696	1	-14
379.867	1	12
380.038	1	1
380.209	1	0
380.379	1	-6
380.550	1	2
380.721	1	3
380.892	1	0
381.063	1	-6
381.233	1	6
381.404	1	9
381.575	1	-7
381.746	1	8
381.917	1	-20
382.087	1	1
382.258	1	8
382.429	1	0
382.600	1	0
382.771	1	-1
382.941	1	1
383.112	1	2
383.283	1	3
383.454	1	-12
383.625	1	-7
383.795	1	9
383.966	1	0
384.137	1	1
384.308	1	3
384.479	1	9
384.649	1	0
384.820	1	-13
384.991	1	-2
385.162	1	-7
385.333	1	1
385.503	1	0
385.674	1	-3
385.845	1	5
386.016	1	0
386.187	1	16
386.357	1	-3
386.528	1	11
386.699	1	1
386.870	1	5
387.041	1	2
387.211	1	-4
387.382	1	5
387.553	1	3
387.724	1	-9
387.894	1	5
388.065	1	-2
388.236	1	6
388.407	1	3
388.578	1	-2
388.748	1	-2
388.919	1	-2
389.090	1	9
389.261	1	-13
389.431	1	5
389.602	1	-3
389.773	1	5
389.944	1	1
390.114	1	1
390.285	1	-5
390.456	1	-1
390.627	1	-16
390.798	1	8
390.968	1	-6
391.139	1	-2
391.310	1	0
391.481	1	-1
391.651	1	-2
391.822	1	11
391.993	1	4
392.164	1	-8
392.334	1	6
392.505	1	2
392.676	1	7
392.847	1	4
393.017	1	-8
393.188	1	1
393.359	1	6
393.530	1	3
393.700	1	-3
393.871	1	1
394.042	1	5
394.213	1	3
394.383	1	-5
394.554	1	7
394.725	1	-4
394.896	1	-12
395.066	1	10
395.237	1	8
395.408	1	-6
395.579	1	6
395.749	1	4
395.920	1	-3
396.091	1	9
396.262	1	-1
396.432	1	-8
396.603	1	4
396.774	1	-1
396.945	1	4
397.115	1	5
397.286	1	7
397.457	1	-2
397.627	1	-1
397.798	1	-8
397.969	1	-3
398.140	1	-4
398.310	1	10
398.481	1	-3
398.652	1	3
398.823	1	18
398.993	1	-9
399.164	1	13
399.335	1	-9
399.505	1	-8
399.676	1	4
399.847	1	-6
400.018	1	5
400.188	1	2
400.359	1	1
400.530	1	0
400.700	1	3
400.871	1	-13
401.042	1	-3
401.213	1	-5
401.383	1	-3
401.554	1	4
401.725	1	2
401.895	1	10
402.066	1	-3
402.237	1	0
402.408	1	-3
402.578	1	-4
402.749	1	-4
402.920	1	-15
403.090	1	-4
403.261	1	6
403.432	1	-1
403.603	1	9
403.773	1	3
403.944	1	5
404.115	1	-7
404.285	1	-5
404.456	1	-3
404.627	1	-2
404.797	1	18
404.968	1	1
405.139	1	-3
405.310	1	-1
405.480	1	12
405.651	1	-1
405.822	1	8
405.992	1	-11
406.163	1	9
406.334	1	3
406.504	1	-6
406.675	1	9
406.846	1	-3
407.016	1	-2
407.187	1	-1
407.358	1	2
407.528	1	7
407.699	1	3
407.870	1	5
408.041	1	-2
408.211	1	1
408.382	1	2
408.553	1	7
408.723	1	-3
408.894	1	-7
409.065	1	14
409.235	1	5
409.406	1	10
409.577	1	-10
409.747	1	-9
409.918	1	2
410.089	1	-10
410.259	1	-6
410.430	1	7
410.601	1	1
410.771	1	10
410.942	1	8
411.113	1	0
411.283	1	-5
411.454	1	0
411.625	1	3
411.795	1	7
411.966	1	-12
412.137	1	0
412.307	1	-7
412.478	1	9
412.649	1	6
412.819	1	0
412.990	1	5
413.161	1	-3
413.331	1	-8
413.502	1	13
413.672	1	10
413.843	1	5
414.014	1	9
414.184	1	-5
414.355	1	4
414.526	1	2
414.696	1	-4
414.867	1	14
415.038	1	3
415.208	1	-3
415.379	1	-1
415.550	1	7
415.720	1	5
415.891	1	6
416.062	1	2
416.232	1	-2
416.403	1	2
416.573	1	5
416.744	1	4
416.915	1	5
417.085	1	-5
417.256	1	-3
417.427	1	5
417.597	1	-10
417.768	1	0
417.939	1	3
418.109	1	9
418.280	1	-1
418.450	1	-3
418.621	1	1
418.792	1	1
418.962	1	-8
419.133	1	5
419.304	1	1
419.474	1	2
419.645	1	14
419.815	1	-10
419.986	1	0
420.157	1	-1
420.327	1	7
420.498	1	3
420.669	1	0
420.839	1	1
421.010	1	10
421.180	1	3
421.351	1	-1
421.522	1	4
421.692	1	-5
421.863	1	-1
422.033	1	-3
422.204	1	-12
422.375	1	2
422.545	1	8
422.716	1	5
422.886	1	13
423.057	1	-11
423.228	1	0
423.398	1	-3
423.569	1	-1
423.740	1	-7
423.910	1	0
424.081	1	8
424.251	1	-1
424.422	1	0
424.593	1	2
424.763	1	1
424.934	1	-6
425.104	1	15
425.275	1	-9
425.445	1	-7
425.616	1	10
425.787	1	-9
425.957	1	16
426.128	1	2
426.298	1	-1
426.469	1	3
426.640	1	2
426.810	1	2
426.981	1	-8
427.151	1	4
427.322	1	1
427.493	1	8
427.663	1	1
427.834	1	2
428.004	1	-6
428.175	1	10
428.345	1	2
428.516	1	-1
428.687	1	0
428.857	1	0
429.028	1	-4
429.198	1	-5
429.369	1	1
429.540	1	7
429.710	1	-6
429.881	1	21
430.051	1	5
430.222	1	4
430.392	1	3
430.563	1	7
430.734	1	9
430.904	1	-8
431.075	1	4
431.245	1	1
431.416	1	1
431.586	1	3
431.757	1	7
431.927	1	5
432.098	1	3
432.269	1	-1
432.439	1	-7
432.610	1	-2
432.780	1	-6
432.951	1	0
433.121	1	2
433.292	1	-3
433.462	1	7
433.633	1	3
433.804	1	-4
433.974	1	-8
434.145	1	-6
434.315	1	-2
434.486	1	10
434.656	1	-3
434.827	1	0
434.997	1	11
435.168	1	0
435.339	1	11
435.509	1	13
435.680	1	2
435.850	1	-1
436.021	1	2
436.191	1	-10
436.362	1	-2
436.532	1	9
436.703	1	-3
436.873	1	-1
437.044	1	8
437.214	1	4
437.385	1	0
437.556	1	-3
437.726	1	-1
437.897	1	-8
438.067	1	7
438.238	1	-10
438.408	1	3
438.579	1	7
438.749	1	8
438.920	1	2
439.090	1	9
439.261	1	9
439.431	1	-1
439.602	1	-4
439.772	1	5
439.943	1	5
440.113	1	-4
440.284	1	2
440.455	1	2
440.625	1	4
440.796	1	1
440.966	1	1
441.137	1	-5
441.307	1	0
441.478	1	-1
441.648	1	-11
441.819	1	6
441.989	1	2
442.160	1	1
442.330	1	14
442.501	1	-10
442.671	1	4
442.842	1	2
443.012	1	6
443.183	1	-8
443.353	1	1
443.524	1	1
443.694	1	3
443.865	1	7
444.035	1	-4
444.206	1	7
444.376	1	5
444.547	1	-5
444.717	1	9
444.888	1	-7
445.058	1	8
445.229	1	-1
445.399	1	5
445.570	1	4
445.740	1	4
445.911	1	13
446.081	1	9
446.252	1	-6
446.422	1	-6
446.593	1	-12
446.763	1	5
446.934	1	-1
447.104	1	-7
447.275	1	8
447.445	1	3
447.616	1	-2
447.786	1	-8
447.957	1	10
448.127	1	11
448.298	1	-2
448.468	1	2
448.639	1	5
448.809	1	1
448.979	1	0
449.150	1	3
449.320	1	-1
449.491	1	-3
449.661	1	5
449.832	1	2
450.002	1	-2
450.173	1	1
450.343	1	4
450.514	1	4
450.684	1	-9
450.855	1	0
451.025	1	-3
451.196	1	5
451.366	1	2
451.537	1	10
451.707	1	6
451.878	1	1
452.048	1	3
452.218	1	-9
452.389	1	-11
452.559	1	-8
452.730	1	0
452.900	1	-1
453.071	1	4
453.241	1	-2
453.412	1	4
453.582	1	8
453.753	1	-11
453.923	1	3
454.093	1	7
454.264	1	-4
454.434	1	4
454.605	1	4
454.775	1	4
454.946	1	5
455.116	1	-1
455.287	1	13
455.457	1	-7
455.628	1	5
455.798	1	-11
455.968	1	17
456.139	1	-2
456.309	1	-7
456.480	1	-2
456.650	1	-5
456.821	1	5
456.991	1	0
457.161	1	6
457.332	1	-3
457.502	1	-2
457.673	1	-3
457.843	1	1
458.014	1	9
458.184	1	-2
458.355	1	15
458.525	1	3
458.695	1	2
458.866	1	-1
459.036	1	9
459.207	1	1
459.377	1	1
459.548	1	4
459.718	1	2
459.888	1	13
460.059	1	3
460.229	1	11
460.400	1	7
460.570	1	-6
460.740	1	-4
460.911	1	9
461.081	1	1
461.252	1	3
461.422	1	2
461.593	1	1
461.763	1	6
461.933	1	-8
462.104	1	7
462.274	1	9
462.445	1	-1
462.615	1	-9
462.785	1	-3
462.956	1	3
463.126	1	4
463.297	1	-3
463.467	1	-1
463.638	1	6
463.808	1	11
463.978	1	11
464.149	1	-2
464.319	1	1
464.490	1	-6
464.660	1	-3
464.830	1	1
465.001	1	6
465.171	1	-1
465.342	1	7
465.512	1	8
465.682	1	-1
465.853	1	3
466.023	1	0
466.194	1	3
466.364	1	4
466.534	1	5
466.705	1	2
466.875	1	2
467.045	1	-2
467.216	1	-3
467.386	1	5
467.557	1	4
467.727	1	1
467.897	1	3
468.068	1	9
468.238	1	-2
468.409	1	1
468.579	1	10
468.749	1	-2
468.920	1	-1
469.090	1	-3
469.260	1	5
469.431	1	7
469.601	1	0
469.772	1	-12
469.942	1	1
470.112	1	13
470.283	1	6
470.453	1	2
470.623	1	4
470.794	1	5
470.964	1	-7
471.135	1	-8
471.305	1	1
471.475	1	0
471.646	1	5
471.816	1	-2
471.986	1	-5
472.157	1	4
472.327	1	1
472.497	1	6
472.668	1	-3
472.838	1	10
473.009	1	-1
473.179	1	4
473.349	1	3
473.520	1	-1
473.690	1	2
473.860	1	8
474.031	1	-3
474.201	1	-8
474.371	1	10
474.542	1	-7
474.712	1	5
474.882	1	2
475.053	1	-19
475.223	1	1
475.394	1	-1
475.564	1	8
475.734	1	-4
475.905	1	-5
476.075	1	-4
476.245	1	-5
476.416	1	-6
476.586	1	1
476.756	1	-5
476.927	1	9
477.097	1	0
477.267	1	-4
477.438	1	-1
477.608	1	4
477.778	1	3
477.949	1	1
478.119	1	3
478.289	1	-3
478.460	1	-3
478.630	1	-4
478.800	1	2
478.971	1	-2
479.141	1	7
479.311	1	-11
479.482	1	-9
479.652	1	5
479.822	1	-7
479.993	1	11
480.163	1	-13
480.333	1	-6
480.504	1	-3
480.674	1	4
480.844	1	9
481.015	1	-1
481.185	1	10
481.355	1	3
481.525	1	0
481.696	1	7
481.866	1	1
482.036	1	-2
482.207	1	10
482.377	1	-5
482.547	1	0
482.718	1	13
482.888	1	-11
483.058	1	4
483.229	1	10
483.399	1	1
483.569	1	14
483.740	1	-14
483.910	1	10
484.080	1	-2
484.250	1	-1
484.421	1	0
484.591	1	4
484.761	1	-4
484.932	1	-3
485.102	1	10
485.272	1	12
485.443	1	8
485.613	1	-10
485.783	1	2
485.953	1	-2
486.124	1	11
486.294	1	-1
486.464	1	-5
486.635	1	10
486.805	1	9
486.975	1	-15
487.146	1	4
487.316	1	3
487.486	1	8
487.656	1	-13
487.827	1	9
487.997	1	-2
488.167	1	5
488.338	1	10
488.508	1	7
488.678	1	7
488.848	1	-2
489.019	1	-4
489.189	1	-11
489.359	1	8
489.529	1	-4
489.700	1	5
489.870	1	-2
490.040	1	3
490.211	1	14
490.381	1	-7
490.551	1	-8
490.721	1	5
490.892	1	16
491.062	1	-2
491.232	1	4
491.402	1	0
491.573	1	-10
491.743	1	-12
491.913	1	-1
492.084	1	2
492.254	1	1
492.424	1	0
492.594	1	9
492.765	1	12
492.935	1	0
493.105	1	8
493.275	1	1
493.446	1	-9
493.616	1	4
493.786	1	7
493.956	1	0
494.127	1	6
494.297	1	-1
494.467	1	6
494.637	1	3
494.808	1	12
494.978	1	-1
495.148	1	4
495.318	1	10
495.489	1	5
495.659	1	3
495.829	1	6
495.999	1	2
496.170	1	-3
496.340	1	10
496.510	1	5
496.680	1	-4
496.851	1	3
497.021	1	-2
497.191	1	0
497.361	1	3
497.532	1	-2
497.702	1	2
497.872	1	2
498.042	1	1
498.213	1	7
498.383	1	6
498.553	1	7
498.723	1	-1
498.894	1	8
499.064	1	15
499.234	1	8
499.404	1	-8
499.574	1	-7
499.745	1	-3
499.915	1	-2
500.085	1	-6
500.255	1	4
500.426	1	-9
500.596	1	-9
500.766	1	7
500.936	1	-3
501.106	1	-5
501.277	1	4
501.447	1	0
501.617	1	6
501.787	1	-1
501.958	1	-5
502.128	1	-9
502.298	1	3
502.468	1	5
502.638	1	2
502.809	1	-1
502.979	1	2
503.149	1	5
503.319	1	2
503.489	1	6
503.660	1	-7
503.830	1	0
504.000	1	-5
504.170	1	5
504.340	1	-2
504.511	1	13
504.681	1	-3
504.851	1	-16
505.021	1	0
505.192	1	6
505.362	1	-1
505.532	1	8
505.702	1	5
505.872	1	-8
506.043	1	3
506.213	1	4
506.383	1	-3
506.553	1	4
506.723	1	5
506.893	1	2
507.064	1	-3
507.234	1	2
507.404	1	2
507.574	1	-6
507.744	1	-6
507.915	1	1
508.085	1	6
508.255	1	13
508.425	1	4
508.595	1	-10
508.766	1	-2
508.936	1	3
509.106	1	-9
509.276	1	6
509.446	1	-3
509.616	1	7
509.787	1	-7
509.957	1	-11
510.127	1	2
510.297	1	-9
510.467	1	-5
510.638	1	-11
510.808	1	-8
510.978	1	-18
511.148	1	8
511.318	1	1
511.488	1	1
511.659	1	5
511.829	1	-1
511.999	1	13
512.169	1	1
512.339	1	2
512.509	1	1
512.680	1	8
512.850	1	-4
513.020	1	3
513.190	1	-6
513.360	1	10
513.530	1	-1
513.700	1	11
513.871	1	6
514.041	1	-2
514.211	1	-6
514.381	1	4
514.551	1	0
514.721	1	4
514.892	1	-2
515.062	1	4
515.232	1	0
515.402	1	9
515.572	1	-9
515.742	1	10
515.912	1	6
516.083	1	4
516.253	1	-5
516.423	1	9
516.593	1	-5
516.763	1	-5
516.933	1	1
517.104	1	4
517.274	1	-3
517.444	1	10
517.614	1	3
517.784	1	-9
517.954	1	-8
518.124	1	11
518.294	1	11
518.465	1	6
518.635	1	-2
518.805	1	-4
518.975	1	3
519.145	1	10
519.315	1	-7
519.485	1	-9
519.656	1	3
519.826	1	8
519.996	1	7
520.166	1	7
520.336	1	5
520.506	1	3
520.676	1	-6
520.846	1	-6
521.017	1	-13
521.187	1	6
521.357	1	-8
521.527	1	-10
521.697	1	3
521.867	1	7
522.037	1	-2
522.207	1	-1
522.377	1	7
522.548	1	-5
522.718	1	-2
522.888	1	-4
523.058	1	14
523.228	1	13
523.398	1	0
523.568	1	-6
523.738	1	0
523.909	1	13
524.079	1	3
524.249	1	5
524.419	1	-8
524.589	1	4
524.759	1	-3
524.929	1	7
525.099	1	0
525.269	1	6
525.439	1	-2
525.610	1	-2
525.780	1	15
525.950	1	-11
526.120	1	-8
526.290	1	-4
526.460	1	11
526.630	1	0
526.800	1	2
526.970	1	-8
527.140	1	-2
527.311	1	-1
527.481	1	4
527.651	1	10
527.821	1	-7
527.991	1	12
528.161	1	1
528.331	1	3
528.501	1	-15
528.671	1	4
528.841	1	2
529.011	1	1
529.181	1	-4
529.352	1	3
529.522	1	-9
529.692	1	-4
529.862	1	-3
530.032	1	-9
530.202	1	-1
530.372	1	-1
530.542	1	2
530.712	1	15
530.882	1	0
531.052	1	2
531.222	1	-9
531.392	1	-2
531.563	1	-1
531.733	1	7
531.903	1	4
532.073	1	7
532.243	1	-2
532.413	1	7
532.583	1	2
532.753	1	-6
532.923	1	-6
533.093	1	8
533.263	1	-2
533.433	1	9
533.603	1	7
533.773	1	3
533.943	1	-1
534.113	1	-2
534.284	1	1
534.454	1	3
534.624	1	2
534.794	1	1
534.964	1	-8
535.134	1	-8
535.304	1	14
535.474	1	0
535.644	1	12
535.814	1	1
535.984	1	-5
536.154	1	-3
536.324	1	-2
536.494	1	7
536.664	1	5
536.834	1	10
537.004	1	23
537.174	1	2
537.344	1	4
537.514	1	-6
537.685	1	3
537.855	1	2
538.025	1	1
538.195	1	2
538.365	1	2
538.535	1	14
538.705	1	-6
538.875	1	7
539.045	1	5
539.215	1	-4
539.385	1	-3
539.555	1	-6
539.725	1	5
539.895	1	-6
540.065	1	-4
540.235	1	-6
540.405	1	2
540.575	1	8
540.745	1	-4
540.915	1	6
541.085	1	-8
541.255	1	-2
541.425	1	-8
541.595	1	5
541.765	1	-9
541.935	1	-6
542.105	1	5
542.275	1	-8
542.445	1	9
542.615	1	3
542.785	1	-5
542.955	1	7
543.125	1	-2
543.295	1	-1
543.465	1	10
543.635	1	4
543.805	1	6
543.975	1	-2
544.145	1	-5
544.315	1	-8
544.485	1	9
544.655	1	3
544.825	1	4
544.995	1	-6
545.165	1	-1
545.335	1	-3
545.505	1	-3
545.675	1	7
545.845	1	3
546.015	1	3
546.185	1	-9
546.355	1	8
546.525	1	7
546.695	1	-14
546.865	1	3
547.035	1	4
547.205	1	-6
547.375	1	13
547.545	1	7
547.715	1	0
547.885	1	-15
548.055	1	0
548.225	1	-4
548.395	1	2
548.565	1	8
548.735	1	4
548.905	1	-7
549.075	1	-6
549.245	1	9
549.415	1	0
549.585	1	-4
549.755	1	-8
549.925	1	9
550.095	1	1
550.265	1	-2
550.435	1	17
550.605	1	2
550.775	1	-2
550.945	1	6
551.115	1	-3
551.285	1	5
551.455	1	0
551.625	1	-7
551.795	1	5
551.965	1	-6
552.135	1	0
552.305	1	0
552.475	1	-5
552.645	1	9
552.815	1	3
552.985	1	6
553.155	1	1
553.325	1	19
553.495	1	-14
553.665	1	7
553.835	1	-2
554.004	1	3
554.174	1	-6
554.344	1	-7
554.514	1	5
554.684	1	7
554.854	1	0
555.024	1	3
555.194	1	12
555.364	1	8
555.534	1	-4
555.704	1	3
555.874	1	-13
556.044	1	6
556.214	1	0
556.384	1	-3
556.554	1	0
556.724	1	-5
556.894	1	9
557.064	1	-1
557.234	1	-5
557.404	1	-5
557.573	1	3
557.743	1	4
557.913	1	-3
558.083	1	-5
558.253	1	5
558.423	1	-1
558.593	1	-1
558.763	1	-11
558.933	1	-2
559.103	1	-1
559.273	1	-5
559.443	1	-2
559.613	1	6
559.783	1	6
559.953	1	-2
560.122	1	-10
560.292	1	6
560.462	1	1
560.632	1	-3
560.802	1	-6
560.972	1	13
561.142	1	6
561.312	1	-6
561.482	1	11
561.652	1	5
561.822	1	-3
561.992	1	5
562.162	1	0
562.331	1	3
562.501	1	5
562.671	1	1
562.841	1	-7
563.011	1	3
563.181	1	6
563.351	1	-7
563.521	1	8
563.691	1	2
563.861	1	6
564.031	1	4
564.201	1	-6
564.370	1	8
564.540	1	7
564.710	1	-11
564.880	1	-3
565.050	1	4
565.220	1	-4
565.390	1	-2
565.560	1	9
565.730	1	2
565.900	1	-5
566.069	1	4
566.239	1	-4
566.409	1	1
566.579	1	8
566.749	1	10
566.919	1	6
567.089	1	7
567.259	1	9
567.429	1	3
567.599	1	-8
567.768	1	-1
567.938	1	0
568.108	1	-12
568.278	1	-6
568.448	1	-2
568.618	1	-3
568.788	1	-10
568.958	1	3
569.128	1	-4
569.297	1	2
569.467	1	-4
569.637	1	-3
569.807	1	-3
569.977	1	2
570.147	1	-4
570.317	1	10
570.487	1	1
570.656	1	3
570.826	1	-1
570.996	1	-3
571.166	1	-2
571.336	1	-6
571.506	1	0
571.676	1	6
571.846	1	6
572.015	1	-4
572.185	1	2
572.355	1	18
572.525	1	-4
572.695	1	8
572.865	1	-4
573.035	1	0
573.205	1	5
573.374	1	1
573.544	1	-1
573.714	1	3
573.884	1	-8
574.054	1	2
574.224	1	-7
574.394	1	-6
574.563	1	3
574.733	1	-4
574.903	1	4
575.073	1	4
575.243	1	-12
575.413	1	-5
575.583	1	1
575.752	1	3
575.922	1	2
576.092	1	5
576.262	1	-4
576.432	1	-5
576.602	1	-3
576.772	1	-1
576.941	1	-5
577.111	1	11
577.281	1	6
577.451	1	3
577.621	1	-8
577.791	1	4
577.960	1	-10
578.130	1	-4
578.300	1	-10
578.470	1	-8
578.640	1	-5
578.810	1	1
578.979	1	7
579.149	1	0
579.319	1	1
579.489	1	4
579.659	1	11
579.829	1	6
579.998	1	-8
580.168	1	-5
580.338	1	-18
580.508	1	-8
580.678	1	-6
580.848	1	1
581.017	1	4
581.187	1	11
581.357	1	-1
581.527	1	7
581.697	1	-16
581.867	1	-3
582.036	1	2
582.206	1	-7
582.376	1	6
582.546	1	7
582.716	1	6
582.885	1	-5
583.055	1	2
583.225	1	2
583.395	1	-6
583.565	1	5
583.735	1	-5
583.904	1	8
584.074	1	-4
584.244	1	-1
584.414	1	-6
584.584	1	6
584.753	1	-5
584.923	1	-13
585.093	1	7
585.263	1	9
585.433	1	-4
585.602	1	3
585.772	1	-1
585.942	1	4
586.112	1	4
586.282	1	-1
586.451	1	-1
586.621	1	-7
586.791	1	0
586.961	1	7
587.131	1	-1
587.300	1	-8
587.470	1	-3
587.640	1	-3
587.810	1	0
587.980	1	-4
588.149	1	7
588.319	1	8
588.489	1	-5
588.659	1	-7
588.829	1	6
588.998	1	-9
589.168	1	6
589.338	1	2
589.508	1	6
589.677	1	12
589.847	1	2
590.017	1	-11
590.187	1	1
590.357	1	4
590.526	1	9
590.696	1	0
590.866	1	-2
591.036	1	8
591.205	1	4
591.375	1	-6
591.545	1	-7
591.715	1	-4
591.885	1	-2
592.054	1	-2
592.224	1	1
592.394	1	-4
592.564	1	-10
592.733	1	0
592.903	1	-2
593.073	1	3
593.243	1	2
593.412	1	-2
593.582	1	9
593.752	1	5
593.922	1	-8
594.091	1	-2
594.261	1	6
594.431	1	6
594.601	1	-8
594.771	1	1
594.940	1	-10
595.110	1	6
595.280	1	0
595.450	1	1
595.619	1	1
595.789	1	9
595.959	1	-3
596.129	1	-5
596.298	1	0
596.468	1	0
596.638	1	-1
596.808	1	5
596.977	1	-3
597.147	1	4
597.317	1	5
597.487	1	1
597.656	1	-2
597.826	1	0
597.996	1	8
598.166	1	3
598.335	1	6
598.505	1	-8
598.675	1	2
598.844	1	2
599.014	1	-3
599.184	1	-10
599.354	1	-9
599.523	1	1
599.693	1	5
599.863	1	4
600.033	1	-2
600.202	1	2
600.372	1	0
600.542	1	6
600.712	1	1
600.881	1	-2
601.051	1	7
601.221	1	3
601.390	1	-9
601.560	1	3
601.730	1	-7
601.900	1	4
602.069	1	-8
602.239	1	-4
602.409	1	-2
602.578	1	3
602.748	1	-4
602.918	1	-6
603.088	1	9
603.257	1	3
603.427	1	2
603.597	1	14
603.767	1	-8
603.936	1	12
604.106	1	7
604.276	1	0
604.445	1	2
604.615	1	5
604.785	1	7
604.954	1	5
605.124	1	-2
605.294	1	5
605.464	1	-9
605.633	1	8
605.803	1	1
605.973	1	-1
606.142	1	-3
606.312	1	-7
606.482	1	-7
606.652	1	-5
606.821	1	6
606.991	1	3
607.161	1	5
607.330	1	-1
607.500	1	7
607.670	1	-4
607.839	1	7
608.009	1	-13
608.179	1	0
608.348	1	7
608.518	1	7
608.688	1	6
608.858	1	3
609.027	1	0
609.197	1	-12
609.367	1	-10
609.536	1	1
609.706	1	0
609.876	1	-6
610.045	1	0
610.215	1	-4
610.385	1	1
610.554	1	0
610.724	1	5
610.894	1	2
611.063	1	-1
611.233	1	-3
611.403	1	7
611.572	1	1
611.742	1	-5
611.912	1	-1
612.081	1	-3
612.251	1	5
612.421	1	14
612.590	1	1
612.760	1	-2
612.930	1	-2
613.099	1	-7
613.269	1	-7
613.439	1	1
613.608	1	10
613.778	1	-4
613.948	1	15
614.117	1	14
614.287	1	-2
614.457	1	3
614.626	1	-4
614.796	1	7
614.966	1	3
615.135	1	-5
615.305	1	-1
615.475	1	1
615.644	1	-4
615.814	1	7
615.984	1	12
616.153	1	7
616.323	1	2
616.493	1	4
616.662	1	-5
616.832	1	-6
617.002	1	-3
617.171	1	-9
617.341	1	8
617.511	1	6
617.680	1	-1
617.850	1	5
618.019	1	-1
618.189	1	-4
618.359	1	-3
618.528	1	-3
618.698	1	5
618.868	1	3
619.037	1	5
619.207	1	-4
619.377	1	-7
619.546	1	0
619.716	1	-8
619.885	1	5
620.055	1	3
620.225	1	6
620.394	1	-4
620.564	1	0
620.734	1	2
620.903	1	10
621.073	1	-6
621.242	1	-1
621.412	1	7
621.582	1	11
621.751	1	-6
621.921	1	0
622.091	1	-9
622.260	1	-1
622.430	1	0
622.599	1	12
622.769	1	-9
622.939	1	8
623.108	1	1
623.278	1	2
623.448	1	-5
623.617	1	1
623.787	1	-4
623.956	1	-3
624.126	1	-6
624.296	1	-3
624.465	1	2
624.635	1	-7
624.804	1	-2
624.974	1	0
625.144	1	-3
625.313	1	0
625.483	1	4
625.652	1	3
625.822	1	-1
625.992	1	-1
626.161	1	-2
626.331	1	3
626.501	1	5
626.670	1	5
626.840	1	15
627.009	1	-12
627.179	1	-2
627.348	1	1
627.518	1	-2
627.688	1	-7
627.857	1	12
628.027	1	0
628.196	1	7
628.366	1	9
628.536	1	-1
628.705	1	-7
628.875	1	-2
629.044	1	11
629.214	1	3
629.384	1	-17
629.553	1	4
629.723	1	8
629.892	1	0
630.062	1	6
630.232	1	5
630.401	1	7
630.571	1	-1
630.740	1	8
630.910	1	2
631.079	1	13
631.249	1	-3
631.419	1	-2
631.588	1	-8
631.758	1	7
631.927	1	-6
632.097	1	3
632.266	1	-12
632.436	1	-1
632.606	1	7
632.775	1	-2
632.945	1	-1
633.114	1	6
633.284	1	2
633.453	1	1
633.623	1	9
633.793	1	-8
633.962	1	4
634.132	1	8
634.301	1	-3
634.471	1	-15
634.640	1	-3
634.810	1	-1
634.979	1	7
635.149	1	1
635.319	1	-1
635.488	1	5
635.658	1	-8
635.827	1	4
635.997	1	-2
636.166	1	8
636.336	1	6
636.505	1	1
636.675	1	-4
636.845	1	8
637.014	1	1
637.184	1	2
637.353	1	6
637.523	1	-3
637.692	1	6
637.862	1	-15
638.031	1	15
638.201	1	7
638.370	1	2
638.540	1	1
638.710	1	1
638.879	1	-4
639.049	1	-3
639.218	1	-6
639.388	1	4
639.557	1	7
639.727	1	3
639.896	1	6
640.066	1	4
640.235	1	5
640.405	1	-6
640.574	1	1
640.744	1	0
640.914	1	-2
641.083	1	-5
641.253	1	1
641.422	1	-2
641.592	1	-7
641.761	1	6
641.931	1	5
642.100	1	-11
642.270	1	-6
642.439	1	5
642.609	1	6
642.778	1	-2
642.948	1	15
643.117	1	-2
643.287	1	11
643.456	1	5
643.626	1	3
643.795	1	0
643.965	1	-5
644.134	1	1
644.304	1	-2
644.473	1	3
644.643	1	2
644.812	1	13
644.982	1	-6
645.151	1	-3
645.321	1	5
645.490	1	6
645.660	1	-7
645.829	1	-2
645.999	1	-3
646.168	1	-2
646.338	1	8
646.507	1	7
646.677	1	-5
646.846	1	9
647.016	1	-4
647.185	1	-1
647.355	1	-11
647.524	1	6
647.694	1	3
647.863	1	-9
648.033	1	-11
648.202	1	14
648.372	1	3
648.541	1	7
648.711	1	6
648.880	1	6
649.050	1	-3
649.219	1	6
649.389	1	0
649.558	1	-2
649.728	1	-6
649.897	1	4
650.067	1	-8
650.236	1	3
650.406	1	3
650.575	1	-3
650.745	1	-5
650.914	1	0
651.084	1	-8
651.253	1	-5
651.423	1	9
651.592	1	2
651.762	1	2
651.931	1	5
652.101	1	5
652.270	1	2
652.440	1	5
652.609	1	11
652.778	1	-2
652.948	1	-3
653.117	1	-6
653.287	1	10
653.456	1	2
653.626	1	1
653.795	1	8
653.965	1	11
654.134	1	8
654.304	1	0
654.473	1	9
654.643	1	8
654.812	1	-1
654.982	1	-14
655.151	1	-8
655.320	1	-6
655.490	1	7
655.659	1	-5
655.829	1	-2
655.998	1	9
656.168	1	-1
656.337	1	-3
656.507	1	6
656.676	1	-12
656.846	1	-10
657.015	1	-6
657.184	1	-1
657.354	1	-3
657.523	1	-8
657.693	1	1
657.862	1	5
658.032	1	10
658.201	1	-3
658.371	1	-10
658.540	1	-5
658.709	1	2
658.879	1	1
659.048	1	-1
659.218	1	2
659.387	1	3
659.557	1	-9
659.726	1	-5
659.895	1	7
660.065	1	4
660.234	1	8
660.404	1	-4
660.573	1	-5
660.743	1	4
660.912	1	-9
661.081	1	-2
661.251	1	1
661.420	1	1
661.590	1	7
661.759	1	2
661.929	1	-3
662.098	1	-14
662.267	1	9
662.437	1	3
662.606	1	5
662.776	1	-3
662.945	1	-1
663.115	1	-15
663.284	1	1
663.453	1	10
663.623	1	0
663.792	1	0
663.962	1	6
664.131	1	-3
664.300	1	10
664.470	1	-3
664.639	1	1
664.809	1	1
664.978	1	4
665.148	1	-9
665.317	1	-12
665.486	1	-1
665.656	1	-4
665.825	1	0
665.995	1	3
666.164	1	4
666.333	1	5
666.503	1	-7
666.672	1	-11
666.842	1	5
667.011	1	3
667.180	1	-9
667.350	1	5
667.519	1	1
667.689	1	-7
667.858	1	7
668.027	1	-6
668.197	1	3
668.366	1	-7
668.536	1	-7
668.705	1	-1
668.874	1	0
669.044	1	-7
669.213	1	0
669.382	1	-9
669.552	1	15
669.721	1	-3
669.891	1	-5
670.060	1	5
670.229	1	-1
670.399	1	3
670.568	1	-1
670.738	1	-10
670.907	1	-11
671.076	1	4
671.246	1	-1
671.415	1	7
671.584	1	-3
671.754	1	-3
671.923	1	1
672.093	1	3
672.262	1	6
672.431	1	-5
672.601	1	-5
672.770	1	-5
672.939	1	-11
673.109	1	0
673.278	1	6
673.448	1	-6
673.617	1	4
673.786	1	-5
