325.333	1	-5
325.504	1	1
325.675	1	0
325.846	1	-15
326.017	1	-2
326.188	1	5
326.359	1	3
326.531	1	-10
326.702	1	7
326.873	1	-2
327.044	1	-4
327.215	1	-7
327.386	1	-6
327.557	1	-2
327.728	1	-3
327.899	1	0
328.070	1	1
328.241	1	-6
328.412	1	9
328.583	1	-2
328.754	1	-2
328.926	1	-4
329.097	1	1
329.268	1	-1
329.439	1	3
329.610	1	1
329.781	1	-5
329.952	1	11
330.123	1	-4
330.294	1	14
330.465	1	-4
330.636	1	9
330.807	1	-3
330.978	1	-2
331.149	1	-2
331.320	1	6
331.492	1	-4
331.663	1	-11
331.834	1	8
332.005	1	3
332.176	1	-2
332.347	1	3
332.518	1	10
332.689	1	1
332.860	1	-1
333.031	1	-6
333.202	1	-7
333.373	1	-5
333.544	1	0
333.715	1	-3
333.886	1	5
334.057	1	-16
334.228	1	-5
334.399	1	2
334.570	1	2
334.741	1	-6
334.912	1	-7
335.084	1	-6
335.255	1	-1
335.426	1	-3
335.597	1	-12
335.768	1	-4
335.939	1	6
336.110	1	-3
336.281	1	-12
336.452	1	-2
336.623	1	0
336.794	1	-12
336.965	1	-6
337.136	1	-1
337.307	1	13
337.478	1	6
337.649	1	8
337.820	1	13
337.991	1	1
338.162	1	1
338.333	1	5
338.504	1	-1
338.675	1	1
338.846	1	-2
339.017	1	-4
339.188	1	3
339.359	1	1
339.530	1	3
339.701	1	5
339.872	1	5
340.043	1	2
340.214	1	3
340.385	1	-5
340.556	1	-4
340.727	1	-2
340.898	1	-9
341.069	1	-4
341.240	1	0
341.411	1	-3
341.582	1	-5
341.753	1	0
341.924	1	-11
342.095	1	7
342.266	1	1
342.437	1	-5
342.608	1	-8
342.779	1	-3
342.950	1	-6
343.121	1	15
343.292	1	-6
343.463	1	-2
343.634	1	-5
343.805	1	8
343.976	1	0
344.147	1	0
344.318	1	2
344.489	1	-9
344.660	1	12
344.831	1	-7
345.002	1	0
345.173	1	-1
345.344	1	0
345.515	1	-10
345.686	1	-9
345.857	1	-7
346.028	1	-13
346.199	1	-3
346.370	1	0
346.541	1	-2
346.712	1	-5
346.883	1	-13
347.054	1	0
347.225	1	-6
347.396	1	-1
347.567	1	-5
347.738	1	2
347.909	1	2
348.080	1	-14
348.251	1	11
348.422	1	5
348.593	1	-11
348.764	1	-7
348.935	1	7
349.106	1	8
349.277	1	-14
349.448	1	2
349.619	1	-1
349.790	1	-14
349.961	1	-4
350.132	1	-10
350.303	1	-14
350.474	1	4
350.645	1	-5
350.816	1	-7
350.987	1	-6
351.157	1	4
351.328	1	-2
351.499	1	-6
351.670	1	10
351.841	1	1
352.012	1	-15
352.183	1	-3
352.354	1	5
352.525	1	-3
352.696	1	-11
352.867	1	-3
353.038	1	6
353.209	1	4
353.380	1	1
353.551	1	-1
353.722	1	1
353.893	1	-6
354.064	1	9
354.235	1	-5
354.406	1	-15
354.576	1	4
354.747	1	-11
354.918	1	-7
355.089	1	-2
355.260	1	-7
355.431	1	11
355.602	1	11
355.773	1	-5
355.944	1	-8
356.115	1	-10
356.286	1	3
356.457	1	-11
356.628	1	6
356.799	1	-2
356.970	1	-5
357.141	1	-1
357.311	1	-2
357.482	1	0
357.653	1	-4
357.824	1	-3
357.995	1	-2
358.166	1	-1
358.337	1	5
358.508	1	6
358.679	1	11
358.850	1	-2
359.021	1	-6
359.192	1	7
359.363	1	10
359.533	1	-5
359.704	1	-4
359.875	1	-6
360.046	1	-2
360.217	1	8
360.388	1	3
360.559	1	0
360.730	1	-5
360.901	1	-1
361.072	1	-1
361.243	1	3
361.414	1	2
361.584	1	4
361.755	1	4
361.926	1	12
362.097	1	6
362.268	1	9
362.439	1	5
362.610	1	-6
362.781	1	-7
362.952	1	1
363.123	1	5
363.293	1	5
363.464	1	12
363.635	1	6
363.806	1	1
363.977	1	9
364.148	1	-1
364.319	1	-2
364.490	1	7
364.661	1	-3
364.832	1	0
365.002	1	7
365.173	1	10
365.344	1	5
365.515	1	-9
365.686	1	2
365.857	1	3
366.028	1	1
366.199	1	2
366.370	1	0
366.540	1	8
366.711	1	11
366.882	1	10
367.053	1	24
367.224	1	13
367.395	1	1
367.566	1	4
367.737	1	-13
367.908	1	4
368.078	1	9
368.249	1	-1
368.420	1	7
368.591	1	17
368.762	1	-3
368.933	1	9
369.104	1	5
369.274	1	-3
369.445	1	-6
369.616	1	-13
369.787	1	0
369.958	1	6
370.129	1	9
370.300	1	-1
370.471	1	11
370.641	1	-3
370.812	1	-2
370.983	1	9
371.154	1	-7
371.325	1	2
371.496	1	-3
371.667	1	-8
371.837	1	-11
372.008	1	4
372.179	1	3
372.350	1	-4
372.521	1	-4
372.692	1	-3
372.863	1	-1
373.033	1	3
373.204	1	5
373.375	1	0
373.546	1	-4
373.717	1	3
373.888	1	1
374.059	1	6
374.229	1	-10
374.400	1	-4
374.571	1	14
374.742	1	11
374.913	1	-5
375.084	1	-7
375.254	1	7
375.425	1	-10
375.596	1	-9
375.767	1	2
375.938	1	-5
376.109	1	1
376.279	1	-4
376.450	1	-4
376.621	1	12
376.792	1	4
376.963	1	5
377.134	1	-9
377.304	1	-11
377.475	1	6
377.646	1	-9
377.817	1	3
377.988	1	0
378.159	1	0
378.329	1	2
378.500	1	-14
378.671	1	0
378.842	1	-10
379.013	1	-10
379.184	1	13
379.354	1	-4
379.525	1	18
379.696	1	-4
379.867	1	3
380.038	1	2
380.209	1	1
380.379	1	-4
380.550	1	-3
380.721	1	10
380.892	1	4
381.063	1	2
381.233	1	-5
381.404	1	4
381.575	1	-4
381.746	1	-2
381.917	1	-6
382.087	1	0
382.258	1	7
382.429	1	1
382.600	1	2
382.771	1	-5
382.941	1	9
383.112	1	7
383.283	1	0
383.454	1	0
383.625	1	-5
383.795	1	-2
383.966	1	4
384.137	1	5
384.308	1	7
384.479	1	9
384.649	1	2
384.820	1	-5
384.991	1	7
385.162	1	13
385.333	1	14
385.503	1	-2
385.674	1	-3
385.845	1	-1
386.016	1	8
386.187	1	10
386.357	1	9
386.528	1	16
386.699	1	17
386.870	1	10
387.041	1	0
387.211	1	2
387.382	1	10
387.553	1	5
387.724	1	-1
387.894	1	6
388.065	1	-2
388.236	1	16
388.407	1	11
388.578	1	7
388.748	1	13
388.919	1	0
389.090	1	20
389.261	1	-15
389.431	1	15
389.602	1	10
389.773	1	5
389.944	1	8
390.114	1	6
390.285	1	3
390.456	1	2
390.627	1	-2
390.798	1	7
390.968	1	3
391.139	1	0
391.310	1	6
391.481	1	8
391.651	1	4
391.822	1	18
391.993	1	1
392.164	1	-5
392.334	1	4
392.505	1	7
392.676	1	3
392.847	1	7
393.017	1	-9
393.188	1	8
393.359	1	6
393.530	1	10
393.700	1	11
393.871	1	2
394.042	1	6
394.213	1	9
394.383	1	9
394.554	1	12
394.725	1	3
394.896	1	8
395.066	1	11
395.237	1	12
395.408	1	4
395.579	1	12
395.749	1	11
395.920	1	10
396.091	1	6
396.262	1	3
396.432	1	-4
396.603	1	7
396.774	1	5
396.945	1	14
397.115	1	16
397.286	1	14
397.457	1	4
397.627	1	11
397.798	1	-1
397.969	1	9
398.140	1	10
398.310	1	16
398.481	1	2
398.652	1	7
398.823	1	18
398.993	1	-2
399.164	1	13
399.335	1	11
399.505	1	2
399.676	1	15
399.847	1	10
400.018	1	19
400.188	1	19
400.359	1	6
400.530	1	10
400.700	1	13
400.871	1	-7
401.042	1	-2
401.213	1	2
401.383	1	16
401.554	1	5
401.725	1	-2
401.895	1	7
402.066	1	9
402.237	1	-2
402.408	1	1
402.578	1	4
402.749	1	-2
402.920	1	-6
403.090	1	-5
403.261	1	8
403.432	1	0
403.603	1	7
403.773	1	11
403.944	1	11
404.115	1	-10
404.285	1	-4
404.456	1	1
404.627	1	8
404.797	1	14
404.968	1	9
405.139	1	1
405.310	1	4
405.480	1	5
405.651	1	10
405.822	1	6
405.992	1	1
406.163	1	4
406.334	1	5
406.504	1	7
406.675	1	17
406.846	1	2
407.016	1	5
407.187	1	0
407.358	1	-7
407.528	1	3
407.699	1	4
407.870	1	6
408.041	1	-5
408.211	1	-5
408.382	1	3
408.553	1	8
408.723	1	8
408.894	1	-7
409.065	1	6
409.235	1	1
409.406	1	7
409.577	1	4
409.747	1	9
409.918	1	9
410.089	1	6
410.259	1	-1
410.430	1	10
410.601	1	3
410.771	1	2
410.942	1	8
411.113	1	1
411.283	1	-5
411.454	1	-5
411.625	1	-1
411.795	1	14
411.966	1	-8
412.137	1	5
412.307	1	1
412.478	1	18
412.649	1	1
412.819	1	1
412.990	1	10
413.161	1	5
413.331	1	-13
413.502	1	8
413.672	1	6
413.843	1	0
414.014	1	-1
414.184	1	-6
414.355	1	-3
414.526	1	-5
414.696	1	3
414.867	1	9
415.038	1	2
415.208	1	-11
415.379	1	10
415.550	1	2
415.720	1	3
415.891	1	11
416.062	1	-8
416.232	1	3
416.403	1	8
416.573	1	4
416.744	1	4
416.915	1	-6
417.085	1	7
417.256	1	-4
417.427	1	-3
417.597	1	-9
417.768	1	-2
417.939	1	-2
418.109	1	3
418.280	1	-2
418.450	1	-7
418.621	1	2
418.792	1	4
418.962	1	-1
419.133	1	4
419.304	1	-8
419.474	1	0
419.645	1	11
419.815	1	-12
419.986	1	4
420.157	1	7
420.327	1	5
420.498	1	5
420.669	1	8
420.839	1	5
421.010	1	6
421.180	1	3
421.351	1	1
421.522	1	0
421.692	1	0
421.863	1	5
422.033	1	-5
422.204	1	-7
422.375	1	-6
422.545	1	8
422.716	1	0
422.886	1	0
423.057	1	-7
423.228	1	-1
423.398	1	5
423.569	1	4
423.740	1	-6
423.910	1	-7
424.081	1	1
424.251	1	-8
424.422	1	6
424.593	1	4
424.763	1	-4
424.934	1	2
425.104	1	6
425.275	1	-12
425.445	1	-1
425.616	1	13
425.787	1	-4
425.957	1	17
426.128	1	-4
426.298	1	-2
426.469	1	-3
426.640	1	-8
426.810	1	5
426.981	1	-5
427.151	1	4
427.322	1	5
427.493	1	8
427.663	1	-4
427.834	1	-6
428.004	1	1
428.175	1	-10
428.345	1	15
428.516	1	4
428.687	1	7
428.857	1	-5
429.028	1	4
429.198	1	0
429.369	1	11
429.540	1	1
429.710	1	-1
429.881	1	10
430.051	1	-3
430.222	1	1
430.392	1	-3
430.563	1	6
430.734	1	-4
430.904	1	1
431.075	1	11
431.245	1	11
431.416	1	-3
431.586	1	1
431.757	1	8
431.927	1	9
432.098	1	-11
432.269	1	-4
432.439	1	-3
432.610	1	-3
432.780	1	-2
432.951	1	2
433.121	1	6
433.292	1	-1
433.462	1	1
433.633	1	-3
433.804	1	-11
433.974	1	-12
434.145	1	0
434.315	1	-7
434.486	1	5
434.656	1	8
434.827	1	-8
434.997	1	5
435.168	1	-2
435.339	1	2
435.509	1	12
435.680	1	-2
435.850	1	-3
436.021	1	4
436.191	1	-3
436.362	1	-8
436.532	1	-1
436.703	1	6
436.873	1	-7
437.044	1	5
437.214	1	1
437.385	1	4
437.556	1	-4
437.726	1	-5
437.897	1	-7
438.067	1	-1
438.238	1	-8
438.408	1	1
438.579	1	8
438.749	1	5
438.920	1	5
439.090	1	7
439.261	1	-5
439.431	1	-1
439.602	1	-3
439.772	1	3
439.943	1	-3
440.113	1	-3
440.284	1	7
440.455	1	-6
440.625	1	2
440.796	1	4
440.966	1	9
441.137	1	-10
441.307	1	1
441.478	1	1
441.648	1	-10
441.819	1	4
441.989	1	-2
442.160	1	7
442.330	1	9
442.501	1	-12
442.671	1	6
442.842	1	0
443.012	1	2
443.183	1	-2
443.353	1	5
443.524	1	4
443.694	1	7
443.865	1	3
444.035	1	4
444.206	1	1
444.376	1	3
444.547	1	-10
444.717	1	8
444.888	1	-2
445.058	1	-5
445.229	1	6
445.399	1	5
445.570	1	-3
445.740	1	4
445.911	1	23
446.081	1	-3
446.252	1	-8
446.422	1	-4
446.593	1	-2
446.763	1	10
446.934	1	1
447.104	1	-12
447.275	1	-7
447.445	1	4
447.616	1	-14
447.786	1	4
447.957	1	-2
448.127	1	3
448.298	1	-7
448.468	1	3
448.639	1	1
448.809	1	-6
448.979	1	1
449.150	1	0
449.320	1	-3
449.491	1	-3
449.661	1	1
449.832	1	-3
450.002	1	-3
450.173	1	-1
450.343	1	-3
450.514	1	0
450.684	1	1
450.855	1	-2
451.025	1	6
451.196	1	-13
451.366	1	5
451.537	1	-2
451.707	1	10
451.878	1	-6
452.048	1	-7
452.218	1	-7
452.389	1	2
452.559	1	-11
452.730	1	3
452.900	1	1
453.071	1	10
453.241	1	0
453.412	1	-10
453.582	1	6
453.753	1	0
453.923	1	7
454.093	1	7
454.264	1	-5
454.434	1	13
454.605	1	3
454.775	1	13
454.946	1	-4
455.116	1	-6
455.287	1	4
455.457	1	3
455.628	1	-4
455.798	1	-3
455.968	1	-2
456.139	1	6
456.309	1	-9
456.480	1	-5
456.650	1	-7
456.821	1	-6
456.991	1	4
457.161	1	-4
457.332	1	-3
457.502	1	2
457.673	1	-12
457.843	1	2
458.014	1	-3
458.184	1	6
458.355	1	9
458.525	1	4
458.695	1	-2
458.866	1	-3
459.036	1	8
459.207	1	5
459.377	1	-6
459.548	1	-2
459.718	1	-11
459.888	1	8
460.059	1	-3
460.229	1	1
460.400	1	8
460.570	1	-3
460.740	1	-14
460.911	1	9
461.081	1	-8
461.252	1	-14
461.422	1	6
461.593	1	1
461.763	1	3
461.933	1	-2
462.104	1	-9
462.274	1	-2
462.445	1	-8
462.615	1	-12
462.785	1	-10
462.956	1	0
463.126	1	-2
463.297	1	-7
463.467	1	-3
463.638	1	-3
463.808	1	-3
463.978	1	2
464.149	1	2
464.319	1	-6
464.490	1	-3
464.660	1	5
464.830	1	-8
465.001	1	7
465.171	1	1
465.342	1	7
465.512	1	0
465.682	1	-2
465.853	1	-1
466.023	1	5
466.194	1	-2
466.364	1	9
466.534	1	-1
466.705	1	3
466.875	1	14
467.045	1	3
467.216	1	3
467.386	1	-2
467.557	1	5
467.727	1	0
467.897	1	6
468.068	1	2
468.238	1	-8
468.409	1	10
468.579	1	3
468.749	1	0
468.920	1	1
469.090	1	7
469.260	1	3
469.431	1	3
469.601	1	4
469.772	1	-12
469.942	1	8
470.112	1	-2
470.283	1	11
470.453	1	12
470.623	1	0
470.794	1	3
470.964	1	-13
471.135	1	-8
471.305	1	-4
471.475	1	-7
471.646	1	6
471.816	1	-1
471.986	1	0
472.157	1	8
472.327	1	4
472.497	1	0
472.668	1	-4
472.838	1	2
473.009	1	3
473.179	1	0
473.349	1	-12
473.520	1	3
473.690	1	13
473.860	1	3
474.031	1	2
474.201	1	-6
474.371	1	11
474.542	1	5
474.712	1	0
474.882	1	-3
475.053	1	-4
475.223	1	0
475.394	1	6
475.564	1	3
475.734	1	3
475.905	1	6
476.075	1	-2
476.245	1	-1
476.416	1	-4
476.586	1	-11
476.756	1	6
476.927	1	12
477.097	1	-10
477.267	1	-11
477.438	1	2
477.608	1	4
477.778	1	8
477.949	1	3
478.119	1	0
478.289	1	-4
478.460	1	-6
478.630	1	-7
478.800	1	-7
478.971	1	3
479.141	1	8
479.311	1	2
479.482	1	-8
479.652	1	4
479.822	1	1
479.993	1	3
480.163	1	-14
480.333	1	-1
480.504	1	2
480.674	1	1
480.844	1	4
481.015	1	-9
481.185	1	9
481.355	1	5
481.525	1	-6
481.696	1	-5
481.866	1	0
482.036	1	-10
482.207	1	1
482.377	1	-7
482.547	1	2
482.718	1	-1
482.888	1	-9
483.058	1	-2
483.229	1	9
483.399	1	3
483.569	1	4
483.740	1	-10
483.910	1	4
484.080	1	-8
484.250	1	-2
484.421	1	-9
484.591	1	3
484.761	1	-9
484.932	1	4
485.102	1	6
485.272	1	12
485.443	1	10
485.613	1	-8
485.783	1	8
485.953	1	2
486.124	1	-5
486.294	1	-1
486.464	1	-3
486.635	1	6
486.805	1	9
486.975	1	-14
487.146	1	-2
487.316	1	10
487.486	1	-6
487.656	1	-9
487.827	1	0
487.997	1	3
488.167	1	5
488.338	1	17
488.508	1	1
488.678	1	1
488.848	1	-4
489.019	1	2
489.189	1	-2
489.359	1	-2
489.529	1	0
489.700	1	2
489.870	1	-4
490.040	1	-7
490.211	1	8
490.381	1	-11
490.551	1	-7
490.721	1	4
490.892	1	-3
491.062	1	9
491.232	1	4
491.402	1	-4
491.573	1	3
491.743	1	-7
491.913	1	2
492.084	1	8
492.254	1	-7
492.424	1	6
492.594	1	3
492.765	1	6
492.935	1	-5
493.105	1	9
493.275	1	8
493.446	1	-11
493.616	1	8
493.786	1	5
493.956	1	0
494.127	1	-3
494.297	1	-3
494.467	1	8
494.637	1	-9
494.808	1	0
494.978	1	1
495.148	1	13
495.318	1	2
495.489	1	1
495.659	1	8
495.829	1	-3
495.999	1	10
496.170	1	3
496.340	1	-6
496.510	1	-2
496.680	1	1
496.851	1	6
497.021	1	-6
497.191	1	-9
497.361	1	14
497.532	1	-6
497.702	1	-4
497.872	1	4
498.042	1	4
498.213	1	8
498.383	1	0
498.553	1	5
498.723	1	-1
498.894	1	-3
499.064	1	10
499.234	1	0
499.404	1	-1
499.574	1	-1
499.745	1	0
499.915	1	9
500.085	1	-11
500.255	1	11
500.426	1	-8
500.596	1	-2
500.766	1	1
500.936	1	-9
501.106	1	2
501.277	1	2
501.447	1	3
501.617	1	9
501.787	1	-3
501.958	1	-5
502.128	1	-6
502.298	1	4
502.468	1	13
502.638	1	-2
502.809	1	6
502.979	1	-3
503.149	1	4
503.319	1	0
503.489	1	-8
503.660	1	-12
503.830	1	-12
504.000	1	-5
504.170	1	4
504.340	1	3
504.511	1	3
504.681	1	-2
504.851	1	-3
505.021	1	5
505.192	1	4
505.362	1	10
505.532	1	2
505.702	1	5
505.872	1	-1
506.043	1	0
506.213	1	-3
506.383	1	-1
506.553	1	21
506.723	1	1
506.893	1	5
507.064	1	-8
507.234	1	1
507.404	1	-1
507.574	1	0
507.744	1	-16
507.915	1	7
508.085	1	15
508.255	1	7
508.425	1	10
508.595	1	-3
508.766	1	0
508.936	1	4
509.106	1	-7
509.276	1	3
509.446	1	3
509.616	1	7
509.787	1	-2
509.957	1	-3
510.127	1	2
510.297	1	0
510.467	1	7
510.638	1	-12
510.808	1	0
510.978	1	-13
511.148	1	9
511.318	1	-4
511.488	1	6
511.659	1	8
511.829	1	9
511.999	1	13
512.169	1	5
512.339	1	7
512.509	1	5
512.680	1	11
512.850	1	-5
513.020	1	6
513.190	1	-1
513.360	1	10
513.530	1	-1
513.700	1	3
513.871	1	8
514.041	1	-3
514.211	1	-6
514.381	1	-5
514.551	1	0
514.721	1	0
514.892	1	3
515.062	1	6
515.232	1	-2
515.402	1	-5
515.572	1	-2
515.742	1	8
515.912	1	6
516.083	1	-9
516.253	1	4
516.423	1	8
516.593	1	-6
516.763	1	5
516.933	1	5
517.104	1	7
517.274	1	0
517.444	1	13
517.614	1	-1
517.784	1	-9
517.954	1	-2
518.124	1	9
518.294	1	4
518.465	1	-4
518.635	1	1
518.805	1	2
518.975	1	-1
519.145	1	4
519.315	1	4
519.485	1	-2
519.656	1	1
519.826	1	2
519.996	1	2
520.166	1	7
520.336	1	-5
520.506	1	9
520.676	1	-1
520.846	1	-2
521.017	1	-5
521.187	1	-2
521.357	1	7
521.527	1	4
521.697	1	13
521.867	1	1
522.037	1	-1
522.207	1	5
522.377	1	7
522.548	1	-2
522.718	1	1
522.888	1	-7
523.058	1	22
523.228	1	7
523.398	1	16
523.568	1	-10
523.738	1	5
523.909	1	9
524.079	1	-4
524.249	1	8
524.419	1	6
524.589	1	10
524.759	1	-1
524.929	1	6
525.099	1	-7
525.269	1	8
525.439	1	12
525.610	1	2
525.780	1	14
525.950	1	-5
526.120	1	-5
526.290	1	-9
526.460	1	7
526.630	1	12
526.800	1	3
526.970	1	-4
527.140	1	-8
527.311	1	6
527.481	1	11
527.651	1	1
527.821	1	2
527.991	1	7
528.161	1	-4
528.331	1	4
528.501	1	-4
528.671	1	7
528.841	1	5
529.011	1	-1
529.181	1	7
529.352	1	2
529.522	1	11
529.692	1	7
529.862	1	2
530.032	1	-6
530.202	1	-3
530.372	1	-2
530.542	1	3
530.712	1	18
530.882	1	-7
531.052	1	3
531.222	1	-14
531.392	1	9
531.563	1	5
531.733	1	-4
531.903	1	4
532.073	1	8
532.243	1	1
532.413	1	5
532.583	1	-5
532.753	1	13
532.923	1	5
533.093	1	9
533.263	1	7
533.433	1	4
533.603	1	1
533.773	1	1
533.943	1	1
534.113	1	2
534.284	1	-1
534.454	1	3
534.624	1	4
534.794	1	3
534.964	1	-9
535.134	1	-5
535.304	1	9
535.474	1	0
535.644	1	8
535.814	1	-1
535.984	1	-3
536.154	1	5
536.324	1	2
536.494	1	13
536.664	1	11
536.834	1	7
537.004	1	11
537.174	1	7
537.344	1	6
537.514	1	3
537.685	1	-3
537.855	1	4
538.025	1	9
538.195	1	6
538.365	1	3
538.535	1	1
538.705	1	5
538.875	1	8
539.045	1	-1
539.215	1	-9
539.385	1	1
539.555	1	-4
539.725	1	12
539.895	1	10
540.065	1	5
540.235	1	-16
540.405	1	0
540.575	1	4
540.745	1	-1
540.915	1	12
541.085	1	-5
541.255	1	-8
541.425	1	-4
541.595	1	-2
541.765	1	-3
541.935	1	6
542.105	1	1
542.275	1	7
542.445	1	12
542.615	1	6
542.785	1	-5
542.955	1	7
543.125	1	1
543.295	1	3
543.465	1	8
543.635	1	0
543.805	1	15
543.975	1	8
544.145	1	-4
544.315	1	-16
544.485	1	2
544.655	1	-2
544.825	1	9
544.995	1	1
545.165	1	0
545.335	1	0
545.505	1	-7
545.675	1	5
545.845	1	-5
546.015	1	-6
546.185	1	-5
546.355	1	5
546.525	1	-3
546.695	1	-5
546.865	1	10
547.035	1	3
547.205	1	-10
547.375	1	13
547.545	1	10
547.715	1	-2
547.885	1	0
548.055	1	10
548.225	1	-2
548.395	1	7
548.565	1	2
548.735	1	13
548.905	1	-1
549.075	1	-3
549.245	1	3
549.415	1	3
549.585	1	-5
549.755	1	-1
549.925	1	9
550.095	1	10
550.265	1	-12
550.435	1	12
550.605	1	6
550.775	1	-7
550.945	1	15
551.115	1	-5
551.285	1	1
551.455	1	0
551.625	1	2
551.795	1	4
551.965	1	-1
552.135	1	1
552.305	1	1
552.475	1	-1
552.645	1	5
552.815	1	3
552.985	1	5
553.155	1	10
553.325	1	2
553.495	1	-5
553.665	1	-4
553.835	1	-3
554.004	1	6
554.174	1	1
554.344	1	1
554.514	1	1
554.684	1	0
554.854	1	2
555.024	1	4
555.194	1	8
555.364	1	3
555.534	1	-12
555.704	1	-4
555.874	1	-10
556.044	1	16
556.214	1	7
556.384	1	15
556.554	1	-5
556.724	1	-4
556.894	1	9
557.064	1	0
557.234	1	-6
557.404	1	-11
557.573	1	9
557.743	1	0
557.913	1	-2
558.083	1	-9
558.253	1	-1
558.423	1	-3
558.593	1	5
558.763	1	0
558.933	1	5
559.103	1	12
559.273	1	-2
559.443	1	8
559.613	1	8
559.783	1	2
559.953	1	1
560.122	1	-9
560.292	1	6
560.462	1	2
560.632	1	0
560.802	1	3
560.972	1	11
561.142	1	8
561.312	1	6
561.482	1	-1
561.652	1	5
561.822	1	-2
561.992	1	10
562.162	1	-3
562.331	1	6
562.501	1	0
562.671	1	10
562.841	1	-11
563.011	1	2
563.181	1	11
563.351	1	-6
563.521	1	5
563.691	1	4
563.861	1	4
564.031	1	-1
564.201	1	11
564.370	1	6
564.540	1	3
564.710	1	-3
564.880	1	-2
565.050	1	-1
565.220	1	0
565.390	1	-10
565.560	1	16
565.730	1	-3
565.900	1	0
566.069	1	1
566.239	1	0
566.409	1	-6
566.579	1	9
566.749	1	8
566.919	1	10
567.089	1	4
567.259	1	9
567.429	1	10
567.599	1	-8
567.768	1	-3
567.938	1	-6
568.108	1	-3
568.278	1	-8
568.448	1	0
568.618	1	9
568.788	1	-6
568.958	1	1
569.128	1	0
569.297	1	1
569.467	1	5
569.637	1	0
569.807	1	2
569.977	1	7
570.147	1	-4
570.317	1	16
570.487	1	8
570.656	1	-3
570.826	1	-7
570.996	1	-8
571.166	1	-1
571.336	1	-1
571.506	1	-5
571.676	1	3
571.846	1	0
572.015	1	0
572.185	1	-4
572.355	1	2
572.525	1	-5
572.695	1	8
572.865	1	-1
573.035	1	-3
573.205	1	5
573.374	1	6
573.544	1	1
573.714	1	-1
573.884	1	-4
574.054	1	2
574.224	1	-4
574.394	1	6
574.563	1	5
574.733	1	4
574.903	1	0
575.073	1	10
575.243	1	-6
575.413	1	2
575.583	1	5
575.752	1	0
575.922	1	-1
576.092	1	11
576.262	1	-3
576.432	1	-14
576.602	1	1
576.772	1	3
576.941	1	0
577.111	1	4
577.281	1	1
577.451	1	13
577.621	1	1
577.791	1	1
577.960	1	0
578.130	1	-4
578.300	1	1
578.470	1	2
578.640	1	-3
578.810	1	2
578.979	1	-2
579.149	1	-3
579.319	1	9
579.489	1	1
579.659	1	3
579.829	1	5
579.998	1	1
580.168	1	8
580.338	1	-16
580.508	1	2
580.678	1	-3
580.848	1	0
581.017	1	-2
581.187	1	11
581.357	1	5
581.527	1	8
581.697	1	-12
581.867	1	1
582.036	1	7
582.206	1	-10
582.376	1	5
582.546	1	5
582.716	1	4
582.885	1	-1
583.055	1	-8
583.225	1	0
583.395	1	1
583.565	1	-1
583.735	1	2
583.904	1	-1
584.074	1	-2
584.244	1	-1
584.414	1	-3
584.584	1	7
584.753	1	-1
584.923	1	0
585.093	1	6
585.263	1	8
585.433	1	-6
585.602	1	0
585.772	1	-1
585.942	1	-1
586.112	1	8
586.282	1	6
586.451	1	7
586.621	1	9
586.791	1	8
586.961	1	1
587.131	1	-6
587.300	1	-15
587.470	1	8
587.640	1	-5
587.810	1	-1
587.980	1	-2
588.149	1	9
588.319	1	4
588.489	1	11
588.659	1	-11
588.829	1	11
588.998	1	-6
589.168	1	12
589.338	1	0
589.508	1	-3
589.677	1	8
589.847	1	2
590.017	1	-15
590.187	1	-3
590.357	1	1
590.526	1	-5
590.696	1	0
590.866	1	4
591.036	1	-5
591.205	1	2
591.375	1	-10
591.545	1	-2
591.715	1	-1
591.885	1	2
592.054	1	-1
592.224	1	2
592.394	1	6
592.564	1	-10
592.733	1	2
592.903	1	-7
593.073	1	9
593.243	1	0
593.412	1	-3
593.582	1	8
593.752	1	0
593.922	1	-5
594.091	1	4
594.261	1	5
594.431	1	0
594.601	1	-12
594.771	1	4
594.940	1	-6
595.110	1	4
595.280	1	-1
595.450	1	3
595.619	1	-2
595.789	1	5
595.959	1	-1
596.129	1	-2
596.298	1	7
596.468	1	-1
596.638	1	-9
596.808	1	1
596.977	1	-1
597.147	1	-5
597.317	1	-4
597.487	1	-5
597.656	1	-1
597.826	1	4
597.996	1	-4
598.166	1	5
598.335	1	5
598.505	1	-6
598.675	1	-5
598.844	1	-5
599.014	1	0
599.184	1	-9
599.354	1	-7
599.523	1	1
599.693	1	11
599.863	1	3
600.033	1	-2
600.202	1	0
600.372	1	-2
600.542	1	-8
600.712	1	6
600.881	1	-4
601.051	1	9
601.221	1	0
601.390	1	-3
601.560	1	-7
601.730	1	-7
601.900	1	-5
602.069	1	-8
602.239	1	-11
602.409	1	-5
602.578	1	-2
602.748	1	-20
602.918	1	-3
603.088	1	2
603.257	1	5
603.427	1	-2
603.597	1	16
603.767	1	-9
603.936	1	7
604.106	1	0
604.276	1	3
604.445	1	11
604.615	1	0
604.785	1	10
604.954	1	8
605.124	1	-9
605.294	1	-3
605.464	1	-7
605.633	1	6
605.803	1	0
605.973	1	-8
606.142	1	6
606.312	1	-3
606.482	1	-9
606.652	1	-2
606.821	1	8
606.991	1	-8
607.161	1	4
607.330	1	5
607.500	1	2
607.670	1	-5
607.839	1	5
608.009	1	-11
608.179	1	1
608.348	1	-3
608.518	1	4
608.688	1	2
608.858	1	14
609.027	1	2
609.197	1	-4
609.367	1	-10
609.536	1	-6
609.706	1	-1
609.876	1	-5
610.045	1	-2
610.215	1	-3
610.385	1	-17
610.554	1	-7
610.724	1	2
610.894	1	5
611.063	1	10
611.233	1	-13
611.403	1	5
611.572	1	-5
611.742	1	-3
611.912	1	-3
612.081	1	-6
612.251	1	0
612.421	1	5
612.590	1	5
612.760	1	5
612.930	1	0
613.099	1	-7
613.269	1	-1
613.439	1	-3
613.608	1	3
613.778	1	-4
613.948	1	4
614.117	1	9
614.287	1	-12
614.457	1	2
614.626	1	7
614.796	1	7
614.966	1	6
615.135	1	-5
615.305	1	0
615.475	1	-1
615.644	1	-13
615.814	1	-3
615.984	1	8
616.153	1	4
616.323	1	-7
616.493	1	4
616.662	1	4
616.832	1	-5
617.002	1	-5
617.171	1	-8
617.341	1	4
617.511	1	-4
617.680	1	2
617.850	1	6
618.019	1	1
618.189	1	-5
618.359	1	9
618.528	1	-11
618.698	1	-9
618.868	1	7
619.037	1	2
619.207	1	-10
619.377	1	-12
619.546	1	3
619.716	1	-3
619.885	1	-5
620.055	1	0
620.225	1	8
620.394	1	-4
620.564	1	-7
620.734	1	-5
620.903	1	2
621.073	1	-6
621.242	1	-4
621.412	1	2
621.582	1	5
621.751	1	-4
621.921	1	9
622.091	1	-9
622.260	1	-4
622.430	1	0
622.599	1	5
622.769	1	2
622.939	1	-6
623.108	1	-1
623.278	1	3
623.448	1	-5
623.617	1	5
623.787	1	-6
623.956	1	2
624.126	1	-4
624.296	1	-10
624.465	1	-1
624.635	1	3
624.804	1	-6
624.974	1	-5
625.144	1	6
625.313	1	1
625.483	1	1
625.652	1	7
625.822	1	2
625.992	1	1
626.161	1	8
626.331	1	6
626.501	1	0
626.670	1	6
626.840	1	1
627.009	1	-4
627.179	1	-5
627.348	1	-8
627.518	1	2
627.688	1	3
627.857	1	13
628.027	1	0
628.196	1	5
628.366	1	5
628.536	1	1
628.705	1	2
628.875	1	-7
629.044	1	12
629.214	1	-2
629.384	1	-15
629.553	1	1
629.723	1	3
629.892	1	-4
630.062	1	3
630.232	1	9
630.401	1	-5
630.571	1	1
630.740	1	9
630.910	1	-8
631.079	1	7
631.249	1	-8
631.419	1	-10
631.588	1	-7
631.758	1	-1
631.927	1	-18
632.097	1	4
632.266	1	-14
632.436	1	-4
632.606	1	4
632.775	1	-4
632.945	1	6
633.114	1	0
633.284	1	-7
633.453	1	3
633.623	1	-4
633.793	1	9
633.962	1	9
634.132	1	0
634.301	1	-6
634.471	1	-11
634.640	1	-1
634.810	1	5
634.979	1	3
635.149	1	-7
635.319	1	3
635.488	1	-5
635.658	1	-13
635.827	1	-1
635.997	1	5
636.166	1	-6
636.336	1	8
636.505	1	2
636.675	1	-7
636.845	1	3
637.014	1	1
637.184	1	-7
637.353	1	10
637.523	1	-9
637.692	1	-6
637.862	1	-7
638.031	1	5
638.201	1	3
638.370	1	3
638.540	1	-2
638.710	1	-10
638.879	1	3
639.049	1	10
639.218	1	-7
639.388	1	8
639.557	1	12
639.727	1	-1
639.896	1	-7
640.066	1	-6
640.235	1	1
640.405	1	6
640.574	1	-6
640.744	1	6
640.914	1	-2
641.083	1	-12
641.253	1	-8
641.422	1	-5
641.592	1	-14
641.761	1	-2
641.931	1	2
642.100	1	0
642.270	1	-1
642.439	1	5
642.609	1	5
642.778	1	-1
642.948	1	1
643.117	1	-3
643.287	1	7
643.456	1	8
643.626	1	8
643.795	1	3
643.965	1	-9
644.134	1	-6
644.304	1	-4
644.473	1	2
644.643	1	4
644.812	1	14
644.982	1	5
645.151	1	-5
645.321	1	-1
645.490	1	5
645.660	1	-7
645.829	1	-8
645.999	1	-2
646.168	1	-1
646.338	1	6
646.507	1	-5
646.677	1	3
646.846	1	1
647.016	1	-1
647.185	1	0
647.355	1	-12
647.524	1	6
647.694	1	-6
647.863	1	-6
648.033	1	-10
648.202	1	9
648.372	1	4
648.541	1	-4
648.711	1	3
648.880	1	-3
649.050	1	-5
649.219	1	2
649.389	1	1
649.558	1	2
649.728	1	1
649.897	1	0
650.067	1	-8
650.236	1	10
650.406	1	1
650.575	1	-13
650.745	1	-4
650.914	1	-9
651.084	1	-9
651.253	1	3
651.423	1	-5
651.592	1	-4
651.762	1	5
651.931	1	1
652.101	1	-1
652.270	1	-4
652.440	1	1
652.609	1	0
652.778	1	-6
652.948	1	8
653.117	1	6
653.287	1	10
653.456	1	2
653.626	1	3
653.795	1	7
653.965	1	8
654.134	1	1
654.304	1	4
654.473	1	-6
654.643	1	8
654.812	1	-7
654.982	1	-11
655.151	1	-4
655.320	1	-4
655.490	1	3
655.659	1	0
655.829	1	-1
655.998	1	4
656.168	1	-4
656.337	1	-7
656.507	1	11
656.676	1	-8
656.846	1	-8
657.015	1	-1
657.184	1	1
657.354	1	-4
657.523	1	-10
657.693	1	3
657.862	1	-5
658.032	1	9
658.201	1	4
658.371	1	-10
658.540	1	-3
658.709	1	-11
658.879	1	-4
659.048	1	1
659.218	1	-4
659.387	1	-5
659.557	1	2
659.726	1	-10
659.895	1	0
660.065	1	0
660.234	1	2
660.404	1	0
660.573	1	-3
660.743	1	-2
660.912	1	-11
661.081	1	-10
661.251	1	1
661.420	1	-4
661.590	1	-1
661.759	1	5
661.929	1	4
662.098	1	-8
662.267	1	3
662.437	1	-1
662.606	1	1
662.776	1	-3
662.945	1	1
663.115	1	-6
663.284	1	-7
663.453	1	0
663.623	1	3
663.792	1	-6
663.962	1	1
664.131	1	-10
664.300	1	7
664.470	1	-2
664.639	1	-14
664.809	1	-6
664.978	1	-6
665.148	1	-3
665.317	1	-6
665.486	1	-8
665.656	1	-9
665.825	1	7
665.995	1	-3
666.164	1	1
666.333	1	12
666.503	1	2
666.672	1	-13
666.842	1	-8
667.011	1	1
667.180	1	-3
667.350	1	3
667.519	1	-4
667.689	1	-2
667.858	1	1
668.027	1	-2
668.197	1	9
668.366	1	-13
668.536	1	1
668.705	1	4
668.874	1	-4
669.044	1	-8
669.213	1	7
669.382	1	-11
669.552	1	5
669.721	1	-1
669.891	1	-6
670.060	1	-3
670.229	1	-2
670.399	1	7
670.568	1	4
670.738	1	-6
670.907	1	-9
671.076	1	6
671.246	1	-6
671.415	1	0
671.584	1	0
671.754	1	-11
671.923	1	-13
672.093	1	-2
672.262	1	8
672.431	1	-7
672.601	1	-4
672.770	1	-2
672.939	1	-23
673.109	1	-6
673.278	1	-9
673.448	1	1
673.617	1	-5
673.786	1	-5
