325.333	1	3
325.504	1	6
325.675	1	1
325.846	1	2
326.017	1	-1
326.188	1	10
326.359	1	9
326.531	1	0
326.702	1	4
326.873	1	1
327.044	1	-3
327.215	1	0
327.386	1	-1
327.557	1	5
327.728	1	10
327.899	1	-1
328.070	1	14
328.241	1	6
328.412	1	4
328.583	1	-5
328.754	1	-1
328.926	1	1
329.097	1	15
329.268	1	-4
329.439	1	-1
329.610	1	2
329.781	1	1
329.952	1	19
330.123	1	2
330.294	1	14
330.465	1	-2
330.636	1	8
330.807	1	6
330.978	1	1
331.149	1	-5
331.320	1	8
331.492	1	-6
331.663	1	-11
331.834	1	14
332.005	1	5
332.176	1	5
332.347	1	13
332.518	1	9
332.689	1	10
332.860	1	5
333.031	1	0
333.202	1	4
333.373	1	-1
333.544	1	1
333.715	1	0
333.886	1	0
334.057	1	-2
334.228	1	0
334.399	1	-3
334.570	1	13
334.741	1	1
334.912	1	2
335.084	1	-1
335.255	1	6
335.426	1	-7
335.597	1	-2
335.768	1	6
335.939	1	-3
336.110	1	-10
336.281	1	-7
336.452	1	-3
336.623	1	3
336.794	1	-1
336.965	1	4
337.136	1	2
337.307	1	10
337.478	1	3
337.649	1	5
337.820	1	10
337.991	1	4
338.162	1	-4
338.333	1	5
338.504	1	-4
338.675	1	8
338.846	1	-1
339.017	1	2
339.188	1	4
339.359	1	2
339.530	1	11
339.701	1	-2
339.872	1	6
340.043	1	8
340.214	1	4
340.385	1	6
340.556	1	4
340.727	1	9
340.898	1	2
341.069	1	8
341.240	1	4
341.411	1	11
341.582	1	4
341.753	1	5
341.924	1	0
342.095	1	-2
342.266	1	3
342.437	1	9
342.608	1	6
342.779	1	-2
342.950	1	4
343.121	1	10
343.292	1	0
343.463	1	-4
343.634	1	-8
343.805	1	8
343.976	1	-1
344.147	1	6
344.318	1	8
344.489	1	-6
344.660	1	13
344.831	1	-6
345.002	1	9
345.173	1	1
345.344	1	-5
345.515	1	-4
345.686	1	4
345.857	1	-4
346.028	1	4
346.199	1	2
346.370	1	10
346.541	1	2
346.712	1	5
346.883	1	1
347.054	1	4
347.225	1	-7
347.396	1	4
347.567	1	12
347.738	1	12
347.909	1	6
348.080	1	5
348.251	1	12
348.422	1	12
348.593	1	-3
348.764	1	-1
348.935	1	20
349.106	1	7
349.277	1	-8
349.448	1	8
349.619	1	5
349.790	1	7
349.961	1	13
350.132	1	6
350.303	1	-10
350.474	1	9
350.645	1	2
350.816	1	7
350.987	1	6
351.157	1	14
351.328	1	4
351.499	1	3
351.670	1	16
351.841	1	5
352.012	1	1
352.183	1	7
352.354	1	6
352.525	1	10
352.696	1	11
352.867	1	6
353.038	1	16
353.209	1	12
353.380	1	9
353.551	1	22
353.722	1	9
353.893	1	0
354.064	1	10
354.235	1	11
354.406	1	-2
354.576	1	16
354.747	1	1
354.918	1	-4
355.089	1	16
355.260	1	6
355.431	1	20
355.602	1	16
355.773	1	11
355.944	1	14
356.115	1	4
356.286	1	18
356.457	1	13
356.628	1	10
356.799	1	22
356.970	1	5
357.141	1	5
357.311	1	19
357.482	1	15
357.653	1	12
357.824	1	8
357.995	1	23
358.166	1	18
358.337	1	18
358.508	1	20
358.679	1	28
358.850	1	25
359.021	1	17
359.192	1	24
359.363	1	25
359.533	1	21
359.704	1	25
359.875	1	29
360.046	1	21
360.217	1	29
360.388	1	36
360.559	1	24
360.730	1	23
360.901	1	40
361.072	1	33
361.243	1	39
361.414	1	32
361.584	1	51
361.755	1	51
361.926	1	47
362.097	1	43
362.268	1	49
362.439	1	52
362.610	1	47
362.781	1	53
362.952	1	70
363.123	1	54
363.293	1	58
363.464	1	72
363.635	1	71
363.806	1	80
363.977	1	80
364.148	1	73
364.319	1	82
364.490	1	78
364.661	1	74
364.832	1	89
365.002	1	97
365.173	1	98
365.344	1	82
365.515	1	98
365.686	1	98
365.857	1	99
366.028	1	95
366.199	1	108
366.370	1	105
366.540	1	103
366.711	1	112
366.882	1	105
367.053	1	96
367.224	1	103
367.395	1	89
367.566	1	111
367.737	1	78
367.908	1	94
368.078	1	101
368.249	1	77
368.420	1	82
368.591	1	98
368.762	1	87
368.933	1	83
369.104	1	82
369.274	1	79
369.445	1	73
369.616	1	68
369.787	1	79
369.958	1	71
370.129	1	69
370.300	1	58
370.471	1	73
370.641	1	71
370.812	1	61
370.983	1	61
371.154	1	61
371.325	1	62
371.496	1	47
371.667	1	58
371.837	1	53
372.008	1	50
372.179	1	61
372.350	1	53
372.521	1	54
372.692	1	45
372.863	1	50
373.033	1	56
373.204	1	55
373.375	1	43
373.546	1	45
373.717	1	45
373.888	1	34
374.059	1	46
374.229	1	42
374.400	1	40
374.571	1	38
374.742	1	46
374.913	1	43
375.084	1	32
375.254	1	36
375.425	1	42
375.596	1	26
375.767	1	36
375.938	1	41
376.109	1	31
376.279	1	32
376.450	1	32
376.621	1	44
376.792	1	33
376.963	1	45
377.134	1	28
377.304	1	37
377.475	1	45
377.646	1	40
377.817	1	40
377.988	1	30
378.159	1	41
378.329	1	37
378.500	1	29
378.671	1	24
378.842	1	40
379.013	1	28
379.184	1	34
379.354	1	34
379.525	1	44
379.696	1	33
379.867	1	41
380.038	1	41
380.209	1	52
380.379	1	31
380.550	1	45
380.721	1	47
380.892	1	42
381.063	1	53
381.233	1	55
381.404	1	56
381.575	1	51
381.746	1	71
381.917	1	58
382.087	1	58
382.258	1	76
382.429	1	68
382.600	1	73
382.771	1	76
382.941	1	82
383.112	1	81
383.283	1	90
383.454	1	83
383.625	1	86
383.795	1	107
383.966	1	98
384.137	1	100
384.308	1	120
384.479	1	119
384.649	1	121
384.820	1	123
384.991	1	136
385.162	1	120
385.333	1	138
385.503	1	130
385.674	1	127
385.845	1	140
386.016	1	133
386.187	1	144
386.357	1	135
386.528	1	164
386.699	1	152
386.870	1	143
387.041	1	130
387.211	1	146
387.382	1	130
387.553	1	135
387.724	1	135
387.894	1	142
388.065	1	137
388.236	1	138
388.407	1	130
388.578	1	133
388.748	1	130
388.919	1	126
389.090	1	141
389.261	1	113
389.431	1	136
389.602	1	129
389.773	1	122
389.944	1	121
390.114	1	126
390.285	1	124
390.456	1	121
390.627	1	109
390.798	1	134
390.968	1	122
391.139	1	117
391.310	1	124
391.481	1	123
391.651	1	127
391.822	1	124
391.993	1	119
392.164	1	100
392.334	1	118
392.505	1	113
392.676	1	112
392.847	1	108
393.017	1	104
393.188	1	118
393.359	1	114
393.530	1	100
393.700	1	116
393.871	1	101
394.042	1	121
394.213	1	118
394.383	1	100
394.554	1	116
394.725	1	99
394.896	1	103
395.066	1	120
395.237	1	127
395.408	1	135
395.579	1	129
395.749	1	128
395.920	1	121
396.091	1	120
396.262	1	111
396.432	1	108
396.603	1	130
396.774	1	138
396.945	1	123
397.115	1	135
397.286	1	136
397.457	1	123
397.627	1	117
397.798	1	124
397.969	1	118
398.140	1	127
398.310	1	130
398.481	1	114
398.652	1	131
398.823	1	137
398.993	1	108
399.164	1	116
399.335	1	112
399.505	1	114
399.676	1	108
399.847	1	97
400.018	1	112
400.188	1	106
400.359	1	106
400.530	1	103
400.700	1	93
400.871	1	83
401.042	1	88
401.213	1	94
401.383	1	88
401.554	1	84
401.725	1	95
401.895	1	96
402.066	1	87
402.237	1	90
402.408	1	89
402.578	1	94
402.749	1	79
402.920	1	77
403.090	1	95
403.261	1	84
403.432	1	84
403.603	1	79
403.773	1	90
403.944	1	92
404.115	1	76
404.285	1	77
404.456	1	86
404.627	1	86
404.797	1	99
404.968	1	77
405.139	1	77
405.310	1	94
405.480	1	81
405.651	1	81
405.822	1	91
405.992	1	88
406.163	1	96
406.334	1	82
406.504	1	73
406.675	1	96
406.846	1	84
407.016	1	70
407.187	1	72
407.358	1	82
407.528	1	81
407.699	1	77
407.870	1	84
408.041	1	77
408.211	1	80
408.382	1	90
408.553	1	78
408.723	1	77
408.894	1	73
409.065	1	79
409.235	1	75
409.406	1	72
409.577	1	74
409.747	1	67
409.918	1	81
410.089	1	71
410.259	1	55
410.430	1	79
410.601	1	65
410.771	1	77
410.942	1	71
411.113	1	74
411.283	1	67
411.454	1	60
411.625	1	52
411.795	1	71
411.966	1	62
412.137	1	69
412.307	1	65
412.478	1	74
412.649	1	51
412.819	1	67
412.990	1	70
413.161	1	69
413.331	1	48
413.502	1	69
413.672	1	62
413.843	1	56
414.014	1	60
414.184	1	48
414.355	1	47
414.526	1	42
414.696	1	41
414.867	1	55
415.038	1	48
415.208	1	49
415.379	1	52
415.550	1	51
415.720	1	43
415.891	1	50
416.062	1	45
416.232	1	42
416.403	1	56
416.573	1	50
416.744	1	50
416.915	1	40
417.085	1	54
417.256	1	40
417.427	1	55
417.597	1	32
417.768	1	42
417.939	1	38
418.109	1	56
418.280	1	47
418.450	1	48
418.621	1	54
418.792	1	48
418.962	1	47
419.133	1	46
419.304	1	38
419.474	1	46
419.645	1	51
419.815	1	43
419.986	1	50
420.157	1	55
420.327	1	47
420.498	1	45
420.669	1	44
420.839	1	42
421.010	1	38
421.180	1	37
421.351	1	51
421.522	1	47
421.692	1	43
421.863	1	35
422.033	1	27
422.204	1	16
422.375	1	27
422.545	1	37
422.716	1	29
422.886	1	39
423.057	1	33
423.228	1	33
423.398	1	37
423.569	1	23
423.740	1	19
423.910	1	26
424.081	1	31
424.251	1	25
424.422	1	43
424.593	1	46
424.763	1	15
424.934	1	30
425.104	1	36
425.275	1	10
425.445	1	22
425.616	1	35
425.787	1	17
425.957	1	37
426.128	1	26
426.298	1	33
426.469	1	28
426.640	1	31
426.810	1	35
426.981	1	25
427.151	1	25
427.322	1	26
427.493	1	32
427.663	1	22
427.834	1	22
428.004	1	46
428.175	1	22
428.345	1	34
428.516	1	27
428.687	1	17
428.857	1	27
429.028	1	12
429.198	1	16
429.369	1	27
429.540	1	29
429.710	1	22
429.881	1	27
430.051	1	26
430.222	1	14
430.392	1	23
430.563	1	33
430.734	1	17
430.904	1	20
431.075	1	42
431.245	1	22
431.416	1	33
431.586	1	27
431.757	1	20
431.927	1	28
432.098	1	15
432.269	1	21
432.439	1	6
432.610	1	4
432.780	1	14
432.951	1	28
433.121	1	23
433.292	1	23
433.462	1	20
433.633	1	16
433.804	1	12
433.974	1	5
434.145	1	20
434.315	1	21
434.486	1	16
434.656	1	17
434.827	1	28
434.997	1	25
435.168	1	7
435.339	1	27
435.509	1	22
435.680	1	9
435.850	1	20
436.021	1	19
436.191	1	10
436.362	1	18
436.532	1	26
436.703	1	18
436.873	1	6
437.044	1	26
437.214	1	13
437.385	1	7
437.556	1	13
437.726	1	14
437.897	1	14
438.067	1	19
438.238	1	0
438.408	1	18
438.579	1	19
438.749	1	19
438.920	1	7
439.090	1	21
439.261	1	17
439.431	1	12
439.602	1	9
439.772	1	20
439.943	1	17
440.113	1	10
440.284	1	23
440.455	1	1
440.625	1	18
440.796	1	22
440.966	1	10
441.137	1	-1
441.307	1	5
441.478	1	9
441.648	1	2
441.819	1	21
441.989	1	10
442.160	1	14
442.330	1	15
442.501	1	6
442.671	1	2
442.842	1	13
443.012	1	13
443.183	1	9
443.353	1	19
443.524	1	9
443.694	1	27
443.865	1	19
444.035	1	8
444.206	1	16
444.376	1	17
444.547	1	-1
444.717	1	22
444.888	1	5
445.058	1	12
445.229	1	7
445.399	1	7
445.570	1	13
445.740	1	13
445.911	1	22
446.081	1	11
446.252	1	0
446.422	1	15
446.593	1	3
446.763	1	13
446.934	1	21
447.104	1	7
447.275	1	4
447.445	1	11
447.616	1	11
447.786	1	14
447.957	1	21
448.127	1	11
448.298	1	15
448.468	1	6
448.639	1	11
448.809	1	2
448.979	1	14
449.150	1	10
449.320	1	10
449.491	1	14
449.661	1	12
449.832	1	7
450.002	1	7
450.173	1	7
450.343	1	5
450.514	1	2
450.684	1	1
450.855	1	13
451.025	1	15
451.196	1	3
451.366	1	7
451.537	1	5
451.707	1	9
451.878	1	9
452.048	1	1
452.218	1	4
452.389	1	1
452.559	1	-1
452.730	1	4
452.900	1	15
453.071	1	17
453.241	1	0
453.412	1	6
453.582	1	21
453.753	1	3
453.923	1	7
454.093	1	4
454.264	1	-4
454.434	1	7
454.605	1	11
454.775	1	14
454.946	1	11
455.116	1	11
455.287	1	19
455.457	1	4
455.628	1	7
455.798	1	-1
455.968	1	12
456.139	1	5
456.309	1	7
456.480	1	1
456.650	1	7
456.821	1	10
456.991	1	8
457.161	1	13
457.332	1	11
457.502	1	10
457.673	1	2
457.843	1	15
458.014	1	12
458.184	1	8
458.355	1	12
458.525	1	6
458.695	1	6
458.866	1	3
459.036	1	14
459.207	1	9
459.377	1	12
459.548	1	6
459.718	1	-11
459.888	1	9
460.059	1	5
460.229	1	8
460.400	1	10
460.570	1	-1
460.740	1	-3
460.911	1	10
461.081	1	1
461.252	1	9
461.422	1	11
461.593	1	8
461.763	1	3
461.933	1	2
462.104	1	4
462.274	1	14
462.445	1	4
462.615	1	-2
462.785	1	6
462.956	1	4
463.126	1	-5
463.297	1	7
463.467	1	10
463.638	1	7
463.808	1	6
463.978	1	1
464.149	1	-4
464.319	1	7
464.490	1	1
464.660	1	5
464.830	1	11
465.001	1	6
465.171	1	8
465.342	1	1
465.512	1	12
465.682	1	8
465.853	1	13
466.023	1	12
466.194	1	12
466.364	1	3
466.534	1	9
466.705	1	5
466.875	1	11
467.045	1	1
467.216	1	-1
467.386	1	3
467.557	1	17
467.727	1	4
467.897	1	14
468.068	1	16
468.238	1	8
468.409	1	7
468.579	1	9
468.749	1	9
468.920	1	5
469.090	1	14
469.260	1	13
469.431	1	5
469.601	1	9
469.772	1	-4
469.942	1	11
470.112	1	3
470.283	1	11
470.453	1	10
470.623	1	12
470.794	1	12
470.964	1	1
471.135	1	-3
471.305	1	7
471.475	1	-3
471.646	1	5
471.816	1	-1
471.986	1	-3
472.157	1	12
472.327	1	2
472.497	1	-3
472.668	1	-2
472.838	1	9
473.009	1	9
473.179	1	7
473.349	1	17
473.520	1	16
473.690	1	10
473.860	1	11
474.031	1	3
474.201	1	0
474.371	1	6
474.542	1	2
474.712	1	10
474.882	1	4
475.053	1	-7
475.223	1	5
475.394	1	20
475.564	1	11
475.734	1	8
475.905	1	8
476.075	1	14
476.245	1	0
476.416	1	5
476.586	1	-3
476.756	1	9
476.927	1	8
477.097	1	6
477.267	1	-3
477.438	1	4
477.608	1	9
477.778	1	15
477.949	1	8
478.119	1	-2
478.289	1	6
478.460	1	2
478.630	1	-8
478.800	1	2
478.971	1	13
479.141	1	9
479.311	1	14
479.482	1	-5
479.652	1	9
479.822	1	16
479.993	1	12
480.163	1	3
480.333	1	0
480.504	1	-3
480.674	1	5
480.844	1	5
481.015	1	-3
481.185	1	15
481.355	1	20
481.525	1	3
481.696	1	8
481.866	1	9
482.036	1	5
482.207	1	14
482.377	1	7
482.547	1	-2
482.718	1	15
482.888	1	-3
483.058	1	0
483.229	1	8
483.399	1	20
483.569	1	19
483.740	1	3
483.910	1	4
484.080	1	3
484.250	1	8
484.421	1	5
484.591	1	15
484.761	1	5
484.932	1	20
485.102	1	12
485.272	1	20
485.443	1	18
485.613	1	-2
485.783	1	19
485.953	1	12
486.124	1	16
486.294	1	8
486.464	1	0
486.635	1	11
486.805	1	17
486.975	1	-4
487.146	1	8
487.316	1	18
487.486	1	12
487.656	1	12
487.827	1	14
487.997	1	11
488.167	1	11
488.338	1	24
488.508	1	11
488.678	1	8
488.848	1	9
489.019	1	24
489.189	1	10
489.359	1	13
489.529	1	12
489.700	1	14
489.870	1	4
490.040	1	24
490.211	1	35
490.381	1	3
490.551	1	11
490.721	1	23
490.892	1	30
491.062	1	18
491.232	1	18
491.402	1	6
491.573	1	21
491.743	1	10
491.913	1	20
492.084	1	20
492.254	1	16
492.424	1	6
492.594	1	23
492.765	1	23
492.935	1	11
493.105	1	23
493.275	1	19
493.446	1	17
493.616	1	22
493.786	1	25
493.956	1	25
494.127	1	11
494.297	1	21
494.467	1	20
494.637	1	17
494.808	1	20
494.978	1	12
495.148	1	24
495.318	1	26
495.489	1	22
495.659	1	22
495.829	1	27
495.999	1	25
496.170	1	15
496.340	1	21
496.510	1	24
496.680	1	23
496.851	1	30
497.021	1	22
497.191	1	19
497.361	1	21
497.532	1	26
497.702	1	18
497.872	1	26
498.042	1	27
498.213	1	24
498.383	1	18
498.553	1	27
498.723	1	27
498.894	1	25
499.064	1	25
499.234	1	18
499.404	1	22
499.574	1	19
499.745	1	31
499.915	1	36
500.085	1	23
500.255	1	42
500.426	1	29
500.596	1	31
500.766	1	29
500.936	1	37
501.106	1	29
501.277	1	23
501.447	1	36
501.617	1	39
501.787	1	22
501.958	1	34
502.128	1	34
502.298	1	34
502.468	1	43
502.638	1	40
502.809	1	36
502.979	1	37
503.149	1	40
503.319	1	40
503.489	1	41
503.660	1	37
503.830	1	37
504.000	1	30
504.170	1	52
504.340	1	43
504.511	1	45
504.681	1	39
504.851	1	48
505.021	1	41
505.192	1	45
505.362	1	44
505.532	1	41
505.702	1	43
505.872	1	36
506.043	1	50
506.213	1	57
506.383	1	47
506.553	1	50
506.723	1	50
506.893	1	55
507.064	1	45
507.234	1	59
507.404	1	49
507.574	1	56
507.744	1	44
507.915	1	58
508.085	1	64
508.255	1	54
508.425	1	57
508.595	1	46
508.766	1	49
508.936	1	53
509.106	1	52
509.276	1	55
509.446	1	59
509.616	1	64
509.787	1	53
509.957	1	58
510.127	1	68
510.297	1	52
510.467	1	49
510.638	1	63
510.808	1	49
510.978	1	50
511.148	1	65
511.318	1	56
511.488	1	66
511.659	1	57
511.829	1	71
511.999	1	64
512.169	1	59
512.339	1	53
512.509	1	68
512.680	1	60
512.850	1	70
513.020	1	59
513.190	1	67
513.360	1	75
513.530	1	58
513.700	1	71
513.871	1	65
514.041	1	59
514.211	1	59
514.381	1	61
514.551	1	72
514.721	1	79
514.892	1	67
515.062	1	62
515.232	1	74
515.402	1	68
515.572	1	67
515.742	1	71
515.912	1	63
516.083	1	68
516.253	1	71
516.423	1	85
516.593	1	62
516.763	1	78
516.933	1	65
517.104	1	86
517.274	1	73
517.444	1	77
517.614	1	72
517.784	1	61
517.954	1	60
518.124	1	75
518.294	1	78
518.465	1	75
518.635	1	72
518.805	1	82
518.975	1	87
519.145	1	78
519.315	1	82
519.485	1	68
519.656	1	71
519.826	1	75
519.996	1	78
520.166	1	75
520.336	1	78
520.506	1	75
520.676	1	67
520.846	1	76
521.017	1	69
521.187	1	79
521.357	1	74
521.527	1	86
521.697	1	77
521.867	1	88
522.037	1	68
522.207	1	74
522.377	1	69
522.548	1	70
522.718	1	74
522.888	1	67
523.058	1	84
523.228	1	100
523.398	1	76
523.568	1	73
523.738	1	73
523.909	1	80
524.079	1	77
524.249	1	77
524.419	1	87
524.589	1	83
524.759	1	81
524.929	1	77
525.099	1	68
525.269	1	88
525.439	1	69
525.610	1	91
525.780	1	89
525.950	1	71
526.120	1	74
526.290	1	78
526.460	1	87
526.630	1	90
526.800	1	78
526.970	1	83
527.140	1	71
527.311	1	78
527.481	1	89
527.651	1	94
527.821	1	76
527.991	1	83
528.161	1	89
528.331	1	88
528.501	1	85
528.671	1	92
528.841	1	87
529.011	1	79
529.181	1	88
529.352	1	90
529.522	1	84
529.692	1	88
529.862	1	84
530.032	1	83
530.202	1	71
530.372	1	82
530.542	1	90
530.712	1	106
530.882	1	85
531.052	1	95
531.222	1	79
531.392	1	83
531.563	1	93
531.733	1	95
531.903	1	80
532.073	1	89
532.243	1	81
532.413	1	90
532.583	1	102
532.753	1	87
532.923	1	94
533.093	1	90
533.263	1	94
533.433	1	90
533.603	1	97
533.773	1	86
533.943	1	76
534.113	1	84
534.284	1	84
534.454	1	83
534.624	1	83
534.794	1	94
534.964	1	78
535.134	1	88
535.304	1	100
535.474	1	84
535.644	1	96
535.814	1	84
535.984	1	91
536.154	1	91
536.324	1	88
536.494	1	96
536.664	1	100
536.834	1	82
537.004	1	93
537.174	1	87
537.344	1	80
537.514	1	91
537.685	1	80
537.855	1	85
538.025	1	79
538.195	1	87
538.365	1	82
538.535	1	102
538.705	1	76
538.875	1	82
539.045	1	84
539.215	1	68
539.385	1	77
539.555	1	77
539.725	1	94
539.895	1	84
540.065	1	78
540.235	1	70
540.405	1	94
540.575	1	88
540.745	1	78
540.915	1	84
541.085	1	73
541.255	1	69
541.425	1	80
541.595	1	85
541.765	1	73
541.935	1	82
542.105	1	94
542.275	1	73
542.445	1	82
542.615	1	66
542.785	1	75
542.955	1	87
543.125	1	73
543.295	1	75
543.465	1	81
543.635	1	83
543.805	1	81
543.975	1	70
544.145	1	80
544.315	1	66
544.485	1	76
544.655	1	65
544.825	1	85
544.995	1	81
545.165	1	69
545.335	1	80
545.505	1	77
545.675	1	77
545.845	1	67
546.015	1	78
546.185	1	70
546.355	1	90
546.525	1	84
546.695	1	71
546.865	1	71
547.035	1	78
547.205	1	73
547.375	1	74
547.545	1	81
547.715	1	67
547.885	1	73
548.055	1	69
548.225	1	69
548.395	1	74
548.565	1	82
548.735	1	78
548.905	1	69
549.075	1	68
549.245	1	82
549.415	1	73
549.585	1	78
549.755	1	69
549.925	1	67
550.095	1	74
550.265	1	69
550.435	1	88
550.605	1	64
550.775	1	61
550.945	1	75
551.115	1	63
551.285	1	78
551.455	1	77
551.625	1	67
551.795	1	72
551.965	1	75
552.135	1	71
552.305	1	72
552.475	1	68
552.645	1	75
552.815	1	62
552.985	1	69
553.155	1	68
553.325	1	75
553.495	1	73
553.665	1	65
553.835	1	68
554.004	1	58
554.174	1	61
554.344	1	61
554.514	1	70
554.684	1	65
554.854	1	66
555.024	1	56
555.194	1	70
555.364	1	63
555.534	1	66
555.704	1	68
555.874	1	53
556.044	1	71
556.214	1	54
556.384	1	63
556.554	1	53
556.724	1	47
556.894	1	60
557.064	1	53
557.234	1	55
557.404	1	58
557.573	1	63
557.743	1	67
557.913	1	56
558.083	1	54
558.253	1	57
558.423	1	46
558.593	1	48
558.763	1	50
558.933	1	53
559.103	1	55
559.273	1	49
559.443	1	61
559.613	1	51
559.783	1	50
559.953	1	52
560.122	1	37
560.292	1	53
560.462	1	52
560.632	1	46
560.802	1	50
560.972	1	58
561.142	1	54
561.312	1	59
561.482	1	43
561.652	1	50
561.822	1	48
561.992	1	54
562.162	1	45
562.331	1	56
562.501	1	40
562.671	1	41
562.841	1	46
563.011	1	52
563.181	1	50
563.351	1	41
563.521	1	59
563.691	1	49
563.861	1	52
564.031	1	44
564.201	1	51
564.370	1	52
564.540	1	48
564.710	1	41
564.880	1	45
565.050	1	45
565.220	1	46
565.390	1	32
565.560	1	54
565.730	1	46
565.900	1	38
566.069	1	48
566.239	1	41
566.409	1	44
566.579	1	37
566.749	1	43
566.919	1	45
567.089	1	42
567.259	1	56
567.429	1	39
567.599	1	38
567.768	1	42
567.938	1	51
568.108	1	44
568.278	1	31
568.448	1	31
568.618	1	47
568.788	1	43
568.958	1	42
569.128	1	51
569.297	1	45
569.467	1	44
569.637	1	36
569.807	1	41
569.977	1	48
570.147	1	35
570.317	1	60
570.487	1	42
570.656	1	37
570.826	1	42
570.996	1	26
571.166	1	35
571.336	1	36
571.506	1	36
571.676	1	52
571.846	1	48
572.015	1	29
572.185	1	31
572.355	1	45
572.525	1	33
572.695	1	48
572.865	1	46
573.035	1	33
573.205	1	43
573.374	1	26
573.544	1	44
573.714	1	45
573.884	1	24
574.054	1	39
574.224	1	34
574.394	1	24
574.563	1	39
574.733	1	38
574.903	1	21
575.073	1	38
575.243	1	23
575.413	1	29
575.583	1	28
575.752	1	34
575.922	1	27
576.092	1	34
576.262	1	22
576.432	1	20
576.602	1	24
576.772	1	29
576.941	1	39
577.111	1	23
577.281	1	22
577.451	1	35
577.621	1	22
577.791	1	24
577.960	1	29
578.130	1	20
578.300	1	15
578.470	1	30
578.640	1	20
578.810	1	32
578.979	1	33
579.149	1	26
579.319	1	43
579.489	1	37
579.659	1	22
579.829	1	38
579.998	1	32
580.168	1	24
580.338	1	11
580.508	1	25
580.678	1	22
580.848	1	34
581.017	1	28
581.187	1	21
581.357	1	32
581.527	1	30
581.697	1	16
581.867	1	22
582.036	1	26
582.206	1	22
582.376	1	27
582.546	1	23
582.716	1	38
582.885	1	22
583.055	1	26
583.225	1	25
583.395	1	28
583.565	1	34
583.735	1	21
583.904	1	29
584.074	1	31
584.244	1	20
584.414	1	27
584.584	1	34
584.753	1	21
584.923	1	23
585.093	1	38
585.263	1	22
585.433	1	16
585.602	1	27
585.772	1	19
585.942	1	23
586.112	1	23
586.282	1	12
586.451	1	24
586.621	1	14
586.791	1	26
586.961	1	16
587.131	1	17
587.300	1	17
587.470	1	25
587.640	1	9
587.810	1	19
587.980	1	24
588.149	1	21
588.319	1	24
588.489	1	22
588.659	1	18
588.829	1	22
588.998	1	9
589.168	1	25
589.338	1	11
589.508	1	23
589.677	1	17
589.847	1	23
590.017	1	11
590.187	1	12
590.357	1	6
590.526	1	18
590.696	1	13
590.866	1	20
591.036	1	23
591.205	1	23
591.375	1	12
591.545	1	19
591.715	1	7
591.885	1	19
592.054	1	15
592.224	1	24
592.394	1	17
592.564	1	9
592.733	1	16
592.903	1	20
593.073	1	23
593.243	1	7
593.412	1	14
593.582	1	22
593.752	1	10
593.922	1	13
594.091	1	18
594.261	1	18
594.431	1	11
594.601	1	5
594.771	1	31
594.940	1	11
595.110	1	16
595.280	1	8
595.450	1	25
595.619	1	19
595.789	1	24
595.959	1	17
596.129	1	11
596.298	1	27
596.468	1	25
596.638	1	18
596.808	1	16
596.977	1	13
597.147	1	24
597.317	1	17
597.487	1	19
597.656	1	11
597.826	1	16
597.996	1	12
598.166	1	12
598.335	1	18
598.505	1	10
598.675	1	11
598.844	1	7
599.014	1	9
599.184	1	1
599.354	1	1
599.523	1	18
599.693	1	24
599.863	1	16
600.033	1	15
600.202	1	14
600.372	1	14
600.542	1	21
600.712	1	20
600.881	1	16
601.051	1	18
601.221	1	12
601.390	1	10
601.560	1	8
601.730	1	13
601.900	1	12
602.069	1	10
602.239	1	4
602.409	1	6
602.578	1	14
602.748	1	10
602.918	1	-4
603.088	1	16
603.257	1	14
603.427	1	18
603.597	1	22
603.767	1	4
603.936	1	13
604.106	1	15
604.276	1	13
604.445	1	22
604.615	1	15
604.785	1	16
604.954	1	16
605.124	1	5
605.294	1	6
605.464	1	11
605.633	1	22
605.803	1	16
605.973	1	2
606.142	1	19
606.312	1	8
606.482	1	11
606.652	1	9
606.821	1	18
606.991	1	13
607.161	1	12
607.330	1	19
607.500	1	15
607.670	1	8
607.839	1	21
608.009	1	-1
608.179	1	13
608.348	1	13
608.518	1	15
608.688	1	15
608.858	1	23
609.027	1	18
609.197	1	9
609.367	1	5
609.536	1	16
609.706	1	7
609.876	1	11
610.045	1	6
610.215	1	12
610.385	1	6
610.554	1	13
610.724	1	15
610.894	1	22
611.063	1	18
611.233	1	10
611.403	1	8
611.572	1	12
611.742	1	7
611.912	1	7
612.081	1	11
612.251	1	16
612.421	1	16
612.590	1	8
612.760	1	12
612.930	1	9
613.099	1	-2
613.269	1	10
613.439	1	7
613.608	1	20
613.778	1	18
613.948	1	22
614.117	1	15
614.287	1	2
614.457	1	12
614.626	1	4
614.796	1	17
614.966	1	2
615.135	1	9
615.305	1	9
615.475	1	12
615.644	1	10
615.814	1	10
615.984	1	13
616.153	1	4
616.323	1	13
616.493	1	4
616.662	1	3
616.832	1	18
617.002	1	18
617.171	1	13
617.341	1	8
617.511	1	4
617.680	1	14
617.850	1	15
618.019	1	10
618.189	1	8
618.359	1	17
618.528	1	-2
618.698	1	5
618.868	1	17
619.037	1	14
619.207	1	-1
619.377	1	0
619.546	1	12
619.716	1	0
619.885	1	4
620.055	1	12
620.225	1	14
620.394	1	7
620.564	1	7
620.734	1	6
620.903	1	16
621.073	1	-12
621.242	1	-5
621.412	1	18
621.582	1	8
621.751	1	2
621.921	1	9
622.091	1	1
622.260	1	0
622.430	1	9
622.599	1	21
622.769	1	9
622.939	1	11
623.108	1	12
623.278	1	13
623.448	1	10
623.617	1	20
623.787	1	9
623.956	1	12
624.126	1	3
624.296	1	5
624.465	1	23
624.635	1	15
624.804	1	1
624.974	1	-4
625.144	1	8
625.313	1	10
625.483	1	11
625.652	1	22
625.822	1	6
625.992	1	11
626.161	1	3
626.331	1	11
626.501	1	16
626.670	1	19
626.840	1	16
627.009	1	0
627.179	1	20
627.348	1	14
627.518	1	7
627.688	1	4
627.857	1	15
628.027	1	9
628.196	1	6
628.366	1	12
628.536	1	13
628.705	1	10
628.875	1	8
629.044	1	13
629.214	1	14
629.384	1	-1
629.553	1	11
629.723	1	22
629.892	1	14
630.062	1	17
630.232	1	21
630.401	1	10
630.571	1	4
630.740	1	9
630.910	1	7
631.079	1	25
631.249	1	7
631.419	1	17
631.588	1	1
631.758	1	15
631.927	1	8
632.097	1	18
632.266	1	-13
632.436	1	2
632.606	1	14
632.775	1	6
632.945	1	14
633.114	1	11
633.284	1	3
633.453	1	4
633.623	1	5
633.793	1	9
633.962	1	13
634.132	1	11
634.301	1	2
634.471	1	2
634.640	1	6
634.810	1	11
634.979	1	9
635.149	1	10
635.319	1	13
635.488	1	8
635.658	1	1
635.827	1	5
635.997	1	12
636.166	1	2
636.336	1	17
636.505	1	-1
636.675	1	5
636.845	1	12
637.014	1	3
637.184	1	5
637.353	1	10
637.523	1	16
637.692	1	8
637.862	1	-7
638.031	1	12
638.201	1	14
638.370	1	9
638.540	1	19
638.710	1	5
638.879	1	11
639.049	1	4
639.218	1	12
639.388	1	20
639.557	1	16
639.727	1	14
639.896	1	3
640.066	1	8
640.235	1	19
640.405	1	10
640.574	1	3
640.744	1	5
640.914	1	0
641.083	1	3
641.253	1	8
641.422	1	1
641.592	1	1
641.761	1	0
641.931	1	12
642.100	1	2
642.270	1	13
642.439	1	11
642.609	1	6
642.778	1	14
642.948	1	-2
643.117	1	6
643.287	1	6
643.456	1	18
643.626	1	7
643.795	1	12
643.965	1	0
644.134	1	11
644.304	1	5
644.473	1	10
644.643	1	6
644.812	1	12
644.982	1	17
645.151	1	4
645.321	1	15
645.490	1	13
645.660	1	-2
645.829	1	0
645.999	1	7
646.168	1	5
646.338	1	14
646.507	1	-3
646.677	1	13
646.846	1	17
647.016	1	10
647.185	1	8
647.355	1	9
647.524	1	5
647.694	1	4
647.863	1	0
648.033	1	1
648.202	1	6
648.372	1	18
648.541	1	9
648.711	1	13
648.880	1	6
649.050	1	6
649.219	1	10
649.389	1	-1
649.558	1	0
649.728	1	11
649.897	1	12
650.067	1	8
650.236	1	11
650.406	1	12
650.575	1	-3
650.745	1	2
650.914	1	3
651.084	1	-2
651.253	1	9
651.423	1	9
651.592	1	4
651.762	1	16
651.931	1	8
652.101	1	2
652.270	1	9
652.440	1	9
652.609	1	14
652.778	1	0
652.948	1	9
653.117	1	4
653.287	1	22
653.456	1	6
653.626	1	5
653.795	1	3
653.965	1	14
654.134	1	20
654.304	1	4
654.473	1	5
654.643	1	16
654.812	1	6
654.982	1	-7
655.151	1	-4
655.320	1	0
655.490	1	18
655.659	1	8
655.829	1	2
655.998	1	7
656.168	1	13
656.337	1	-1
656.507	1	16
656.676	1	3
656.846	1	-5
657.015	1	3
657.184	1	9
657.354	1	2
657.523	1	2
657.693	1	14
657.862	1	4
658.032	1	19
658.201	1	1
658.371	1	-2
658.540	1	-3
658.709	1	-1
658.879	1	2
659.048	1	11
659.218	1	6
659.387	1	2
659.557	1	12
659.726	1	0
659.895	1	5
660.065	1	3
660.234	1	6
660.404	1	13
660.573	1	-1
660.743	1	-6
660.912	1	0
661.081	1	-1
661.251	1	7
661.420	1	5
661.590	1	10
661.759	1	15
661.929	1	1
662.098	1	-12
662.267	1	11
662.437	1	5
662.606	1	17
662.776	1	8
662.945	1	4
663.115	1	-4
663.284	1	11
663.453	1	2
663.623	1	9
663.792	1	3
663.962	1	3
664.131	1	-5
664.300	1	12
664.470	1	5
664.639	1	8
664.809	1	2
664.978	1	8
665.148	1	7
665.317	1	0
665.486	1	4
665.656	1	-3
665.825	1	3
665.995	1	16
666.164	1	14
666.333	1	19
666.503	1	4
666.672	1	-13
666.842	1	4
667.011	1	7
667.180	1	3
667.350	1	16
667.519	1	5
667.689	1	-5
667.858	1	13
668.027	1	8
668.197	1	13
668.366	1	9
668.536	1	9
668.705	1	-2
668.874	1	4
669.044	1	-3
669.213	1	12
669.382	1	1
669.552	1	14
669.721	1	-1
669.891	1	16
670.060	1	10
670.229	1	2
670.399	1	14
670.568	1	9
670.738	1	2
670.907	1	5
671.076	1	12
671.246	1	0
671.415	1	3
671.584	1	3
671.754	1	-1
671.923	1	-1
672.093	1	13
672.262	1	10
672.431	1	7
672.601	1	-1
672.770	1	14
672.939	1	-5
673.109	1	0
673.278	1	7
673.448	1	6
673.617	1	17
673.786	1	-1
