325.333	1	-4
325.504	1	3
325.675	1	-3
325.846	1	1
326.017	1	-1
326.188	1	5
326.359	1	3
326.531	1	-6
326.702	1	6
326.873	1	-6
327.044	1	-7
327.215	1	-4
327.386	1	-1
327.557	1	-9
327.728	1	-4
327.899	1	-9
328.070	1	1
328.241	1	0
328.412	1	10
328.583	1	-3
328.754	1	-3
328.926	1	-11
329.097	1	2
329.268	1	-7
329.439	1	-2
329.610	1	-11
329.781	1	-10
329.952	1	9
330.123	1	-6
330.294	1	4
330.465	1	-5
330.636	1	-5
330.807	1	-1
330.978	1	2
331.149	1	2
331.320	1	1
331.492	1	-6
331.663	1	-1
331.834	1	10
332.005	1	4
332.176	1	-9
332.347	1	-2
332.518	1	1
332.689	1	-6
332.860	1	-3
333.031	1	-6
333.202	1	-1
333.373	1	1
333.544	1	-5
333.715	1	-9
333.886	1	1
334.057	1	-11
334.228	1	-16
334.399	1	5
334.570	1	1
334.741	1	-6
334.912	1	-5
335.084	1	-7
335.255	1	0
335.426	1	-2
335.597	1	-7
335.768	1	-2
335.939	1	-9
336.110	1	-5
336.281	1	-5
336.452	1	-6
336.623	1	2
336.794	1	-7
336.965	1	-3
337.136	1	-2
337.307	1	7
337.478	1	11
337.649	1	0
337.820	1	11
337.991	1	1
338.162	1	-7
338.333	1	-5
338.504	1	3
338.675	1	3
338.846	1	8
339.017	1	-5
339.188	1	1
339.359	1	-8
339.530	1	4
339.701	1	4
339.872	1	-6
340.043	1	-3
340.214	1	-5
340.385	1	-6
340.556	1	5
340.727	1	-1
340.898	1	-10
341.069	1	2
341.240	1	3
341.411	1	5
341.582	1	-9
341.753	1	-8
341.924	1	1
342.095	1	-1
342.266	1	-15
342.437	1	6
342.608	1	-4
342.779	1	-7
342.950	1	-8
343.121	1	5
343.292	1	5
343.463	1	-11
343.634	1	0
343.805	1	2
343.976	1	4
344.147	1	-5
344.318	1	5
344.489	1	-8
344.660	1	8
344.831	1	-3
345.002	1	3
345.173	1	-12
345.344	1	-12
345.515	1	-8
345.686	1	-2
345.857	1	-6
346.028	1	-11
346.199	1	3
346.370	1	3
346.541	1	-7
346.712	1	2
346.883	1	-3
347.054	1	-3
347.225	1	-6
347.396	1	0
347.567	1	-3
347.738	1	7
347.909	1	0
348.080	1	-7
348.251	1	-4
348.422	1	-1
348.593	1	2
348.764	1	-8
348.935	1	9
349.106	1	-4
349.277	1	-10
349.448	1	-9
349.619	1	-1
349.790	1	6
349.961	1	4
350.132	1	-5
350.303	1	-4
350.474	1	1
350.645	1	-4
350.816	1	-13
350.987	1	-6
351.157	1	5
351.328	1	-5
351.499	1	-6
351.670	1	5
351.841	1	2
352.012	1	-13
352.183	1	-7
352.354	1	3
352.525	1	7
352.696	1	-11
352.867	1	0
353.038	1	19
353.209	1	-2
353.380	1	1
353.551	1	2
353.722	1	-9
353.893	1	-1
354.064	1	-7
354.235	1	-9
354.406	1	-5
354.576	1	10
354.747	1	-2
354.918	1	-14
355.089	1	-5
355.260	1	1
355.431	1	3
355.602	1	2
355.773	1	-4
355.944	1	-4
356.115	1	-10
356.286	1	5
356.457	1	-5
356.628	1	5
356.799	1	-10
356.970	1	-2
357.141	1	-10
357.311	1	-2
357.482	1	-4
357.653	1	-5
357.824	1	-2
357.995	1	2
358.166	1	-7
358.337	1	1
358.508	1	5
358.679	1	4
358.850	1	-9
359.021	1	-7
359.192	1	1
359.363	1	-4
359.533	1	-8
359.704	1	-10
359.875	1	-4
360.046	1	-9
360.217	1	9
360.388	1	5
360.559	1	-10
360.730	1	-3
360.901	1	15
361.072	1	-10
361.243	1	1
361.414	1	9
361.584	1	4
361.755	1	11
361.926	1	18
362.097	1	-2
362.268	1	15
362.439	1	3
362.610	1	0
362.781	1	0
362.952	1	4
363.123	1	10
363.293	1	2
363.464	1	11
363.635	1	-2
363.806	1	6
363.977	1	4
364.148	1	0
364.319	1	-1
364.490	1	1
364.661	1	3
364.832	1	-7
365.002	1	-2
365.173	1	6
365.344	1	-1
365.515	1	-5
365.686	1	4
365.857	1	6
366.028	1	5
366.199	1	1
366.370	1	0
366.540	1	13
366.711	1	7
366.882	1	6
367.053	1	0
367.224	1	10
367.395	1	3
367.566	1	3
367.737	1	-8
367.908	1	0
368.078	1	9
368.249	1	0
368.420	1	4
368.591	1	13
368.762	1	-3
368.933	1	2
369.104	1	6
369.274	1	1
369.445	1	-8
369.616	1	-2
369.787	1	3
369.958	1	-5
370.129	1	13
370.300	1	-3
370.471	1	13
370.641	1	1
370.812	1	4
370.983	1	10
371.154	1	4
371.325	1	4
371.496	1	-4
371.667	1	-3
371.837	1	-7
372.008	1	-4
372.179	1	1
372.350	1	-11
372.521	1	1
372.692	1	2
372.863	1	-1
373.033	1	2
373.204	1	3
373.375	1	6
373.546	1	-6
373.717	1	-1
373.888	1	-9
374.059	1	2
374.229	1	-11
374.400	1	1
374.571	1	1
374.742	1	18
374.913	1	-6
375.084	1	-1
375.254	1	0
375.425	1	-9
375.596	1	-14
375.767	1	3
375.938	1	3
376.109	1	-8
376.279	1	-4
376.450	1	-6
376.621	1	9
376.792	1	1
376.963	1	-1
377.134	1	-8
377.304	1	7
377.475	1	4
377.646	1	2
377.817	1	3
377.988	1	-5
378.159	1	4
378.329	1	-4
378.500	1	-11
378.671	1	-5
378.842	1	-10
379.013	1	-1
379.184	1	11
379.354	1	10
379.525	1	8
379.696	1	-8
379.867	1	3
380.038	1	4
380.209	1	7
380.379	1	-5
380.550	1	0
380.721	1	11
380.892	1	3
381.063	1	-1
381.233	1	7
381.404	1	5
381.575	1	-12
381.746	1	7
381.917	1	-7
382.087	1	1
382.258	1	12
382.429	1	8
382.600	1	1
382.771	1	0
382.941	1	-3
383.112	1	-3
383.283	1	6
383.454	1	5
383.625	1	-2
383.795	1	11
383.966	1	-2
384.137	1	-5
384.308	1	17
384.479	1	11
384.649	1	14
384.820	1	1
384.991	1	5
385.162	1	7
385.333	1	16
385.503	1	2
385.674	1	6
385.845	1	7
386.016	1	20
386.187	1	11
386.357	1	4
386.528	1	14
386.699	1	21
386.870	1	10
387.041	1	-1
387.211	1	7
387.382	1	-3
387.553	1	11
387.724	1	5
387.894	1	19
388.065	1	-2
388.236	1	18
388.407	1	10
388.578	1	10
388.748	1	18
388.919	1	6
389.090	1	10
389.261	1	-7
389.431	1	11
389.602	1	7
389.773	1	5
389.944	1	-3
390.114	1	8
390.285	1	0
390.456	1	9
390.627	1	5
390.798	1	12
390.968	1	4
391.139	1	1
391.310	1	4
391.481	1	-3
391.651	1	10
391.822	1	5
391.993	1	4
392.164	1	1
392.334	1	17
392.505	1	6
392.676	1	6
392.847	1	13
393.017	1	-4
393.188	1	-2
393.359	1	5
393.530	1	-1
393.700	1	15
393.871	1	-3
394.042	1	16
394.213	1	8
394.383	1	5
394.554	1	3
394.725	1	4
394.896	1	-3
395.066	1	9
395.237	1	15
395.408	1	13
395.579	1	10
395.749	1	7
395.920	1	9
396.091	1	14
396.262	1	3
396.432	1	1
396.603	1	14
396.774	1	-3
396.945	1	7
397.115	1	6
397.286	1	14
397.457	1	-2
397.627	1	6
397.798	1	4
397.969	1	4
398.140	1	7
398.310	1	23
398.481	1	-8
398.652	1	12
398.823	1	20
398.993	1	-8
399.164	1	9
399.335	1	1
399.505	1	12
399.676	1	17
399.847	1	-2
400.018	1	17
400.188	1	13
400.359	1	5
400.530	1	15
400.700	1	6
400.871	1	-8
401.042	1	-5
401.213	1	-2
401.383	1	8
401.554	1	12
401.725	1	0
401.895	1	8
402.066	1	2
402.237	1	5
402.408	1	9
402.578	1	0
402.749	1	-4
402.920	1	-10
403.090	1	2
403.261	1	12
403.432	1	5
403.603	1	9
403.773	1	2
403.944	1	4
404.115	1	-11
404.285	1	6
404.456	1	2
404.627	1	9
404.797	1	19
404.968	1	0
405.139	1	4
405.310	1	4
405.480	1	12
405.651	1	8
405.822	1	15
405.992	1	2
406.163	1	14
406.334	1	16
406.504	1	8
406.675	1	11
406.846	1	1
407.016	1	-4
407.187	1	6
407.358	1	-1
407.528	1	2
407.699	1	8
407.870	1	14
408.041	1	5
408.211	1	1
408.382	1	8
408.553	1	13
408.723	1	2
408.894	1	-2
409.065	1	20
409.235	1	0
409.406	1	7
409.577	1	6
409.747	1	2
409.918	1	5
410.089	1	11
410.259	1	-2
410.430	1	20
410.601	1	-3
410.771	1	3
410.942	1	5
411.113	1	2
411.283	1	5
411.454	1	-5
411.625	1	-3
411.795	1	12
411.966	1	4
412.137	1	8
412.307	1	0
412.478	1	9
412.649	1	3
412.819	1	7
412.990	1	14
413.161	1	10
413.331	1	-3
413.502	1	12
413.672	1	-4
413.843	1	-1
414.014	1	-1
414.184	1	2
414.355	1	-4
414.526	1	-1
414.696	1	-3
414.867	1	9
415.038	1	3
415.208	1	-2
415.379	1	4
415.550	1	7
415.720	1	5
415.891	1	8
416.062	1	-7
416.232	1	3
416.403	1	2
416.573	1	8
416.744	1	2
416.915	1	-1
417.085	1	-9
417.256	1	-5
417.427	1	-9
417.597	1	-17
417.768	1	2
417.939	1	4
418.109	1	-1
418.280	1	-2
418.450	1	0
418.621	1	-6
418.792	1	6
418.962	1	4
419.133	1	8
419.304	1	4
419.474	1	-5
419.645	1	11
419.815	1	3
419.986	1	11
420.157	1	6
420.327	1	5
420.498	1	8
420.669	1	5
420.839	1	-2
421.010	1	6
421.180	1	4
421.351	1	7
421.522	1	8
421.692	1	7
421.863	1	0
422.033	1	11
422.204	1	-11
422.375	1	0
422.545	1	8
422.716	1	3
422.886	1	-2
423.057	1	-3
423.228	1	-13
423.398	1	-8
423.569	1	8
423.740	1	-10
423.910	1	-4
424.081	1	-1
424.251	1	-4
424.422	1	0
424.593	1	6
424.763	1	-4
424.934	1	-2
425.104	1	8
425.275	1	-15
425.445	1	1
425.616	1	2
425.787	1	-14
425.957	1	14
426.128	1	-2
426.298	1	-10
426.469	1	0
426.640	1	-5
426.810	1	4
426.981	1	-6
427.151	1	9
427.322	1	-4
427.493	1	-3
427.663	1	-5
427.834	1	-8
428.004	1	2
428.175	1	2
428.345	1	12
428.516	1	15
428.687	1	8
428.857	1	6
429.028	1	-3
429.198	1	-9
429.369	1	-2
429.540	1	9
429.710	1	-14
429.881	1	0
430.051	1	10
430.222	1	-3
430.392	1	3
430.563	1	8
430.734	1	-1
430.904	1	-8
431.075	1	0
431.245	1	10
431.416	1	-6
431.586	1	-1
431.757	1	1
431.927	1	2
432.098	1	-2
432.269	1	-3
432.439	1	-10
432.610	1	-10
432.780	1	-3
432.951	1	5
433.121	1	-6
433.292	1	8
433.462	1	7
433.633	1	-12
433.804	1	0
433.974	1	-8
434.145	1	1
434.315	1	4
434.486	1	8
434.656	1	-1
434.827	1	-1
434.997	1	1
435.168	1	-6
435.339	1	6
435.509	1	12
435.680	1	-12
435.850	1	-3
436.021	1	4
436.191	1	-14
436.362	1	5
436.532	1	1
436.703	1	5
436.873	1	-4
437.044	1	3
437.214	1	7
437.385	1	4
437.556	1	9
437.726	1	-8
437.897	1	-4
438.067	1	-4
438.238	1	-7
438.408	1	1
438.579	1	8
438.749	1	3
438.920	1	6
439.090	1	15
439.261	1	-2
439.431	1	-1
439.602	1	-2
439.772	1	2
439.943	1	-1
440.113	1	2
440.284	1	8
440.455	1	-3
440.625	1	-4
440.796	1	10
440.966	1	8
441.137	1	-11
441.307	1	0
441.478	1	3
441.648	1	-8
441.819	1	1
441.989	1	0
442.160	1	1
442.330	1	0
442.501	1	-9
442.671	1	0
442.842	1	1
443.012	1	2
443.183	1	0
443.353	1	6
443.524	1	0
443.694	1	-1
443.865	1	-4
444.035	1	-2
444.206	1	8
444.376	1	-3
444.547	1	3
444.717	1	14
444.888	1	-6
445.058	1	7
445.229	1	-5
445.399	1	3
445.570	1	6
445.740	1	-3
445.911	1	6
446.081	1	0
446.252	1	-11
446.422	1	1
446.593	1	0
446.763	1	8
446.934	1	12
447.104	1	-9
447.275	1	-2
447.445	1	-7
447.616	1	4
447.786	1	3
447.957	1	7
448.127	1	0
448.298	1	3
448.468	1	6
448.639	1	-7
448.809	1	-1
448.979	1	0
449.150	1	6
449.320	1	0
449.491	1	2
449.661	1	-1
449.832	1	-2
450.002	1	-5
450.173	1	1
450.343	1	-5
450.514	1	-3
450.684	1	-3
450.855	1	-2
451.025	1	-1
451.196	1	-1
451.366	1	2
451.537	1	-4
451.707	1	9
451.878	1	1
452.048	1	-6
452.218	1	-9
452.389	1	-5
452.559	1	1
452.730	1	-6
452.900	1	-1
453.071	1	9
453.241	1	-5
453.412	1	-9
453.582	1	9
453.753	1	-8
453.923	1	-4
454.093	1	1
454.264	1	-6
454.434	1	-2
454.605	1	-2
454.775	1	7
454.946	1	8
455.116	1	-4
455.287	1	4
455.457	1	-7
455.628	1	-4
455.798	1	-8
455.968	1	6
456.139	1	-1
456.309	1	-5
456.480	1	-9
456.650	1	-4
456.821	1	2
456.991	1	-2
457.161	1	3
457.332	1	4
457.502	1	-3
457.673	1	-7
457.843	1	-2
458.014	1	6
458.184	1	9
458.355	1	7
458.525	1	9
458.695	1	1
458.866	1	-3
459.036	1	6
459.207	1	1
459.377	1	-15
459.548	1	-8
459.718	1	-11
459.888	1	4
460.059	1	7
460.229	1	0
460.400	1	4
460.570	1	-2
460.740	1	-6
460.911	1	10
461.081	1	-9
461.252	1	-5
461.422	1	-5
461.593	1	0
461.763	1	4
461.933	1	-8
462.104	1	1
462.274	1	6
462.445	1	-11
462.615	1	-10
462.785	1	-10
462.956	1	-1
463.126	1	-11
463.297	1	-5
463.467	1	3
463.638	1	4
463.808	1	10
463.978	1	1
464.149	1	-7
464.319	1	0
464.490	1	-8
464.660	1	1
464.830	1	-7
465.001	1	-3
465.171	1	7
465.342	1	8
465.512	1	8
465.682	1	-9
465.853	1	0
466.023	1	-3
466.194	1	-4
466.364	1	7
466.534	1	2
466.705	1	-1
466.875	1	5
467.045	1	5
467.216	1	-14
467.386	1	-2
467.557	1	2
467.727	1	0
467.897	1	4
468.068	1	11
468.238	1	-8
468.409	1	2
468.579	1	3
468.749	1	-4
468.920	1	-3
469.090	1	-3
469.260	1	9
469.431	1	0
469.601	1	3
469.772	1	-8
469.942	1	3
470.112	1	0
470.283	1	9
470.453	1	-2
470.623	1	7
470.794	1	-1
470.964	1	-1
471.135	1	-9
471.305	1	-3
471.475	1	-5
471.646	1	5
471.816	1	-2
471.986	1	4
472.157	1	-6
472.327	1	-4
472.497	1	-1
472.668	1	2
472.838	1	9
473.009	1	7
473.179	1	-1
473.349	1	1
473.520	1	0
473.690	1	8
473.860	1	-1
474.031	1	7
474.201	1	-4
474.371	1	6
474.542	1	-1
474.712	1	-1
474.882	1	-3
475.053	1	-10
475.223	1	3
475.394	1	2
475.564	1	16
475.734	1	-3
475.905	1	5
476.075	1	5
476.245	1	-1
476.416	1	-2
476.586	1	0
476.756	1	0
476.927	1	-1
477.097	1	-3
477.267	1	-5
477.438	1	-8
477.608	1	3
477.778	1	13
477.949	1	2
478.119	1	7
478.289	1	-10
478.460	1	-5
478.630	1	-2
478.800	1	-5
478.971	1	1
479.141	1	11
479.311	1	-3
479.482	1	-6
479.652	1	0
479.822	1	-10
479.993	1	1
480.163	1	-8
480.333	1	-5
480.504	1	0
480.674	1	10
480.844	1	9
481.015	1	-1
481.185	1	9
481.355	1	10
481.525	1	-3
481.696	1	-2
481.866	1	-1
482.036	1	-6
482.207	1	-3
482.377	1	-1
482.547	1	0
482.718	1	5
482.888	1	-3
483.058	1	-6
483.229	1	5
483.399	1	0
483.569	1	4
483.740	1	-10
483.910	1	2
484.080	1	-6
484.250	1	3
484.421	1	4
484.591	1	16
484.761	1	-1
484.932	1	7
485.102	1	-1
485.272	1	8
485.443	1	4
485.613	1	-6
485.783	1	10
485.953	1	-2
486.124	1	4
486.294	1	6
486.464	1	-6
486.635	1	19
486.805	1	12
486.975	1	-13
487.146	1	-1
487.316	1	4
487.486	1	-1
487.656	1	-9
487.827	1	0
487.997	1	-1
488.167	1	6
488.338	1	13
488.508	1	-1
488.678	1	-2
488.848	1	-2
489.019	1	-9
489.189	1	2
489.359	1	1
489.529	1	6
489.700	1	-8
489.870	1	-10
490.040	1	4
490.211	1	5
490.381	1	-6
490.551	1	-1
490.721	1	5
490.892	1	4
491.062	1	6
491.232	1	3
491.402	1	-4
491.573	1	5
491.743	1	-15
491.913	1	-3
492.084	1	2
492.254	1	2
492.424	1	-2
492.594	1	10
492.765	1	3
492.935	1	-3
493.105	1	10
493.275	1	8
493.446	1	-9
493.616	1	10
493.786	1	-2
493.956	1	2
494.127	1	-6
494.297	1	7
494.467	1	3
494.637	1	5
494.808	1	-3
494.978	1	3
495.148	1	9
495.318	1	15
495.489	1	-2
495.659	1	7
495.829	1	6
495.999	1	1
496.170	1	-7
496.340	1	-2
496.510	1	-6
496.680	1	7
496.851	1	5
497.021	1	-3
497.191	1	-6
497.361	1	2
497.532	1	10
497.702	1	-15
497.872	1	-2
498.042	1	1
498.213	1	12
498.383	1	-6
498.553	1	7
498.723	1	1
498.894	1	3
499.064	1	15
499.234	1	-1
499.404	1	8
499.574	1	4
499.745	1	6
499.915	1	-7
500.085	1	-10
500.255	1	9
500.426	1	2
500.596	1	-13
500.766	1	5
500.936	1	-9
501.106	1	1
501.277	1	-2
501.447	1	1
501.617	1	-3
501.787	1	-1
501.958	1	-10
502.128	1	-6
502.298	1	6
502.468	1	4
502.638	1	-1
502.809	1	0
502.979	1	0
503.149	1	-3
503.319	1	-7
503.489	1	9
503.660	1	-7
503.830	1	14
504.000	1	-7
504.170	1	6
504.340	1	7
504.511	1	12
504.681	1	-1
504.851	1	1
505.021	1	0
505.192	1	9
505.362	1	10
505.532	1	9
505.702	1	-1
505.872	1	-6
506.043	1	1
506.213	1	6
506.383	1	-3
506.553	1	4
506.723	1	2
506.893	1	15
507.064	1	-4
507.234	1	9
507.404	1	-3
507.574	1	-1
507.744	1	-8
507.915	1	3
508.085	1	13
508.255	1	-3
508.425	1	5
508.595	1	-4
508.766	1	-3
508.936	1	1
509.106	1	-8
509.276	1	4
509.446	1	-8
509.616	1	1
509.787	1	-5
509.957	1	3
510.127	1	12
510.297	1	-5
510.467	1	0
510.638	1	-2
510.808	1	2
510.978	1	-11
511.148	1	2
511.318	1	-1
511.488	1	16
511.659	1	0
511.829	1	8
511.999	1	5
512.169	1	7
512.339	1	0
512.509	1	-4
512.680	1	2
512.850	1	4
513.020	1	8
513.190	1	-5
513.360	1	4
513.530	1	-7
513.700	1	10
513.871	1	3
514.041	1	5
514.211	1	-5
514.381	1	0
514.551	1	2
514.721	1	-4
514.892	1	14
515.062	1	7
515.232	1	3
515.402	1	4
515.572	1	6
515.742	1	10
515.912	1	-1
516.083	1	2
516.253	1	6
516.423	1	11
516.593	1	-6
516.763	1	-6
516.933	1	5
517.104	1	5
517.274	1	-1
517.444	1	10
517.614	1	2
517.784	1	-6
517.954	1	-11
518.124	1	11
518.294	1	9
518.465	1	3
518.635	1	-5
518.805	1	6
518.975	1	10
519.145	1	15
519.315	1	2
519.485	1	-1
519.656	1	5
519.826	1	-4
519.996	1	15
520.166	1	6
520.336	1	2
520.506	1	12
520.676	1	0
520.846	1	-2
521.017	1	-3
521.187	1	7
521.357	1	-10
521.527	1	-6
521.697	1	2
521.867	1	6
522.037	1	-4
522.207	1	1
522.377	1	0
522.548	1	3
522.718	1	-1
522.888	1	3
523.058	1	11
523.228	1	9
523.398	1	6
523.568	1	4
523.738	1	0
523.909	1	11
524.079	1	8
524.249	1	16
524.419	1	-5
524.589	1	8
524.759	1	4
524.929	1	-8
525.099	1	-1
525.269	1	3
525.439	1	1
525.610	1	5
525.780	1	15
525.950	1	7
526.120	1	-1
526.290	1	-13
526.460	1	5
526.630	1	6
526.800	1	4
526.970	1	1
527.140	1	1
527.311	1	3
527.481	1	10
527.651	1	10
527.821	1	6
527.991	1	-4
528.161	1	0
528.331	1	6
528.501	1	-4
528.671	1	3
528.841	1	11
529.011	1	2
529.181	1	0
529.352	1	4
529.522	1	0
529.692	1	11
529.862	1	3
530.032	1	-3
530.202	1	3
530.372	1	-4
530.542	1	5
530.712	1	19
530.882	1	4
531.052	1	3
531.222	1	-4
531.392	1	-1
531.563	1	9
531.733	1	4
531.903	1	7
532.073	1	4
532.243	1	-1
532.413	1	2
532.583	1	-7
532.753	1	5
532.923	1	-3
533.093	1	4
533.263	1	1
533.433	1	9
533.603	1	6
533.773	1	3
533.943	1	-1
534.113	1	1
534.284	1	7
534.454	1	0
534.624	1	-10
534.794	1	1
534.964	1	3
535.134	1	-10
535.304	1	7
535.474	1	1
535.644	1	8
535.814	1	11
535.984	1	0
536.154	1	6
536.324	1	3
536.494	1	11
536.664	1	2
536.834	1	2
537.004	1	12
537.174	1	9
537.344	1	3
537.514	1	6
537.685	1	4
537.855	1	7
538.025	1	7
538.195	1	14
538.365	1	9
538.535	1	10
538.705	1	2
538.875	1	0
539.045	1	-2
539.215	1	-9
539.385	1	-2
539.555	1	-6
539.725	1	12
539.895	1	15
540.065	1	6
540.235	1	-1
540.405	1	8
540.575	1	-3
540.745	1	-2
540.915	1	4
541.085	1	-4
541.255	1	-6
541.425	1	4
541.595	1	7
541.765	1	6
541.935	1	6
542.105	1	8
542.275	1	3
542.445	1	5
542.615	1	-1
542.785	1	-7
542.955	1	9
543.125	1	8
543.295	1	3
543.465	1	9
543.635	1	6
543.805	1	6
543.975	1	12
544.145	1	8
544.315	1	-5
544.485	1	-2
544.655	1	0
544.825	1	13
544.995	1	3
545.165	1	4
545.335	1	5
545.505	1	-5
545.675	1	-2
545.845	1	5
546.015	1	7
546.185	1	0
546.355	1	5
546.525	1	2
546.695	1	-6
546.865	1	-5
547.035	1	5
547.205	1	0
547.375	1	11
547.545	1	0
547.715	1	1
547.885	1	1
548.055	1	4
548.225	1	-4
548.395	1	2
548.565	1	10
548.735	1	11
548.905	1	-12
549.075	1	3
549.245	1	7
549.415	1	-6
549.585	1	-5
549.755	1	-3
549.925	1	7
550.095	1	4
550.265	1	-12
550.435	1	15
550.605	1	-1
550.775	1	-8
550.945	1	12
551.115	1	-6
551.285	1	5
551.455	1	0
551.625	1	0
551.795	1	1
551.965	1	-1
552.135	1	0
552.305	1	9
552.475	1	2
552.645	1	7
552.815	1	-5
552.985	1	7
553.155	1	1
553.325	1	5
553.495	1	2
553.665	1	8
553.835	1	4
554.004	1	6
554.174	1	7
554.344	1	-1
554.514	1	2
554.684	1	5
554.854	1	8
555.024	1	5
555.194	1	12
555.364	1	3
555.534	1	-7
555.704	1	4
555.874	1	4
556.044	1	7
556.214	1	5
556.384	1	2
556.554	1	4
556.724	1	-9
556.894	1	12
557.064	1	2
557.234	1	0
557.404	1	-2
557.573	1	8
557.743	1	6
557.913	1	7
558.083	1	-9
558.253	1	1
558.423	1	-12
558.593	1	2
558.763	1	0
558.933	1	7
559.103	1	-3
559.273	1	-8
559.443	1	2
559.613	1	7
559.783	1	-3
559.953	1	5
560.122	1	-7
560.292	1	1
560.462	1	4
560.632	1	5
560.802	1	7
560.972	1	8
561.142	1	9
561.312	1	2
561.482	1	0
561.652	1	6
561.822	1	1
561.992	1	8
562.162	1	-2
562.331	1	-1
562.501	1	4
562.671	1	-2
562.841	1	1
563.011	1	1
563.181	1	15
563.351	1	1
563.521	1	3
563.691	1	1
563.861	1	1
564.031	1	-1
564.201	1	-6
564.370	1	0
564.540	1	14
564.710	1	-6
564.880	1	-2
565.050	1	9
565.220	1	0
565.390	1	-8
565.560	1	-1
565.730	1	1
565.900	1	0
566.069	1	1
566.239	1	1
566.409	1	-3
566.579	1	-4
566.749	1	1
566.919	1	10
567.089	1	4
567.259	1	20
567.429	1	-2
567.599	1	-2
567.768	1	4
567.938	1	2
568.108	1	1
568.278	1	-5
568.448	1	-3
568.618	1	-2
568.788	1	-4
568.958	1	7
569.128	1	4
569.297	1	1
569.467	1	-2
569.637	1	6
569.807	1	-1
569.977	1	-4
570.147	1	-2
570.317	1	22
570.487	1	-2
570.656	1	1
570.826	1	1
570.996	1	-11
571.166	1	-7
571.336	1	-1
571.506	1	4
571.676	1	11
571.846	1	2
572.015	1	-1
572.185	1	-4
572.355	1	9
572.525	1	1
572.695	1	9
572.865	1	5
573.035	1	-9
573.205	1	10
573.374	1	0
573.544	1	1
573.714	1	6
573.884	1	-5
574.054	1	3
574.224	1	6
574.394	1	-1
574.563	1	0
574.733	1	-3
574.903	1	6
575.073	1	1
575.243	1	-7
575.413	1	3
575.583	1	7
575.752	1	-8
575.922	1	6
576.092	1	8
576.262	1	1
576.432	1	-14
576.602	1	1
576.772	1	4
576.941	1	2
577.111	1	7
577.281	1	-4
577.451	1	3
577.621	1	-2
577.791	1	-1
577.960	1	-10
578.130	1	3
578.300	1	-7
578.470	1	0
578.640	1	2
578.810	1	0
578.979	1	1
579.149	1	0
579.319	1	9
579.489	1	-5
579.659	1	7
579.829	1	-2
579.998	1	-10
580.168	1	0
580.338	1	-14
580.508	1	-1
580.678	1	1
580.848	1	0
581.017	1	-5
581.187	1	5
581.357	1	-5
581.527	1	0
581.697	1	-13
581.867	1	-2
582.036	1	-1
582.206	1	-1
582.376	1	1
582.546	1	2
582.716	1	1
582.885	1	7
583.055	1	6
583.225	1	-3
583.395	1	4
583.565	1	8
583.735	1	-4
583.904	1	0
584.074	1	-4
584.244	1	-7
584.414	1	-2
584.584	1	10
584.753	1	9
584.923	1	0
585.093	1	3
585.263	1	-2
585.433	1	1
585.602	1	0
585.772	1	-8
585.942	1	1
586.112	1	-2
586.282	1	-3
586.451	1	13
586.621	1	-4
586.791	1	2
586.961	1	-4
587.131	1	1
587.300	1	-9
587.470	1	1
587.640	1	-7
587.810	1	-9
587.980	1	-1
588.149	1	1
588.319	1	0
588.489	1	-3
588.659	1	-5
588.829	1	0
588.998	1	-4
589.168	1	7
589.338	1	10
589.508	1	1
589.677	1	4
589.847	1	-7
590.017	1	-4
590.187	1	-1
590.357	1	-6
590.526	1	7
590.696	1	3
590.866	1	10
591.036	1	14
591.205	1	8
591.375	1	-14
591.545	1	-1
591.715	1	-6
591.885	1	4
592.054	1	-10
592.224	1	9
592.394	1	6
592.564	1	-13
592.733	1	-3
592.903	1	-4
593.073	1	1
593.243	1	-12
593.412	1	-8
593.582	1	9
593.752	1	-5
593.922	1	-7
594.091	1	8
594.261	1	6
594.431	1	2
594.601	1	-8
594.771	1	0
594.940	1	-11
595.110	1	-1
595.280	1	-2
595.450	1	-3
595.619	1	5
595.789	1	6
595.959	1	-1
596.129	1	-6
596.298	1	-6
596.468	1	3
596.638	1	5
596.808	1	2
596.977	1	-4
597.147	1	6
597.317	1	8
597.487	1	1
597.656	1	-1
597.826	1	-3
597.996	1	1
598.166	1	0
598.335	1	1
598.505	1	6
598.675	1	3
598.844	1	-6
599.014	1	1
599.184	1	-7
599.354	1	-12
599.523	1	-2
599.693	1	4
599.863	1	10
600.033	1	2
600.202	1	0
600.372	1	1
600.542	1	2
600.712	1	8
600.881	1	11
601.051	1	5
601.221	1	-10
601.390	1	-9
601.560	1	2
601.730	1	-3
601.900	1	5
602.069	1	-5
602.239	1	6
602.409	1	0
602.578	1	-4
602.748	1	-9
602.918	1	-6
603.088	1	-1
603.257	1	10
603.427	1	-6
603.597	1	7
603.767	1	-4
603.936	1	3
604.106	1	-4
604.276	1	-10
604.445	1	8
604.615	1	-8
604.785	1	4
604.954	1	5
605.124	1	-6
605.294	1	4
605.464	1	1
605.633	1	10
605.803	1	0
605.973	1	-7
606.142	1	2
606.312	1	-4
606.482	1	-9
606.652	1	-8
606.821	1	7
606.991	1	-1
607.161	1	5
607.330	1	7
607.500	1	5
607.670	1	-10
607.839	1	4
608.009	1	-9
608.179	1	3
608.348	1	1
608.518	1	6
608.688	1	-4
608.858	1	0
609.027	1	2
609.197	1	-6
609.367	1	-1
609.536	1	-9
609.706	1	4
609.876	1	-3
610.045	1	-7
610.215	1	-10
610.385	1	-3
610.554	1	-7
610.724	1	-1
610.894	1	5
611.063	1	-2
611.233	1	-2
611.403	1	6
611.572	1	3
611.742	1	-10
611.912	1	-8
612.081	1	-12
612.251	1	2
612.421	1	14
612.590	1	-4
612.760	1	3
612.930	1	2
613.099	1	-6
613.269	1	3
613.439	1	3
613.608	1	8
613.778	1	5
613.948	1	10
614.117	1	3
614.287	1	-7
614.457	1	-2
614.626	1	-2
614.796	1	8
614.966	1	8
615.135	1	-1
615.305	1	2
615.475	1	0
615.644	1	2
615.814	1	-6
615.984	1	8
616.153	1	3
616.323	1	3
616.493	1	-2
616.662	1	6
616.832	1	-6
617.002	1	-2
617.171	1	-5
617.341	1	3
617.511	1	-7
617.680	1	6
617.850	1	-5
618.019	1	-4
618.189	1	-10
618.359	1	-1
618.528	1	-13
618.698	1	-7
618.868	1	6
619.037	1	1
619.207	1	-12
619.377	1	-6
619.546	1	0
619.716	1	-9
619.885	1	4
620.055	1	7
620.225	1	6
620.394	1	-6
620.564	1	-8
620.734	1	-7
620.903	1	10
621.073	1	-7
621.242	1	-16
621.412	1	0
621.582	1	-4
621.751	1	-12
621.921	1	2
622.091	1	-7
622.260	1	-7
622.430	1	6
622.599	1	11
622.769	1	7
622.939	1	-5
623.108	1	0
623.278	1	2
623.448	1	-18
623.617	1	2
623.787	1	-2
623.956	1	2
624.126	1	-8
624.296	1	1
624.465	1	1
624.635	1	5
624.804	1	-6
624.974	1	-7
625.144	1	2
625.313	1	-7
625.483	1	2
625.652	1	0
625.822	1	1
625.992	1	-1
626.161	1	4
626.331	1	15
626.501	1	5
626.670	1	3
626.840	1	10
627.009	1	-3
627.179	1	-6
627.348	1	-8
627.518	1	-3
627.688	1	-2
627.857	1	-1
628.027	1	1
628.196	1	7
628.366	1	14
628.536	1	-3
628.705	1	-1
628.875	1	-3
629.044	1	-3
629.214	1	2
629.384	1	-15
629.553	1	1
629.723	1	7
629.892	1	-4
630.062	1	5
630.232	1	10
630.401	1	-2
630.571	1	10
630.740	1	3
630.910	1	2
631.079	1	15
631.249	1	-4
631.419	1	0
631.588	1	-6
631.758	1	1
631.927	1	-5
632.097	1	10
632.266	1	-6
632.436	1	-8
632.606	1	2
632.775	1	-2
632.945	1	0
633.114	1	3
633.284	1	3
633.453	1	3
633.623	1	-7
633.793	1	-4
633.962	1	-3
634.132	1	4
634.301	1	-11
634.471	1	-12
634.640	1	0
634.810	1	-4
634.979	1	3
635.149	1	1
635.319	1	-2
635.488	1	4
635.658	1	0
635.827	1	-4
635.997	1	3
636.166	1	-3
636.336	1	6
636.505	1	6
636.675	1	2
636.845	1	6
637.014	1	-6
637.184	1	-8
637.353	1	6
637.523	1	-14
637.692	1	5
637.862	1	-9
638.031	1	5
638.201	1	3
638.370	1	6
638.540	1	-6
638.710	1	4
638.879	1	-4
639.049	1	2
639.218	1	-3
639.388	1	5
639.557	1	7
639.727	1	-3
639.896	1	-5
640.066	1	-3
640.235	1	6
640.405	1	0
640.574	1	-1
640.744	1	7
640.914	1	-2
641.083	1	1
641.253	1	1
641.422	1	-5
641.592	1	-10
641.761	1	-5
641.931	1	3
642.100	1	-4
642.270	1	-2
642.439	1	-8
642.609	1	-4
642.778	1	-4
642.948	1	-3
643.117	1	1
643.287	1	6
643.456	1	4
643.626	1	4
643.795	1	-5
643.965	1	-11
644.134	1	10
644.304	1	-7
644.473	1	7
644.643	1	-1
644.812	1	11
644.982	1	1
645.151	1	1
645.321	1	2
645.490	1	-4
645.660	1	-1
645.829	1	-17
645.999	1	-2
646.168	1	-5
646.338	1	15
646.507	1	-3
646.677	1	1
646.846	1	13
647.016	1	-2
647.185	1	1
647.355	1	-4
647.524	1	6
647.694	1	-9
647.863	1	-2
648.033	1	-12
648.202	1	7
648.372	1	13
648.541	1	4
648.711	1	-3
648.880	1	-6
649.050	1	-9
649.219	1	0
649.389	1	2
649.558	1	-10
649.728	1	3
649.897	1	9
650.067	1	-1
650.236	1	9
650.406	1	-5
650.575	1	-2
650.745	1	-7
650.914	1	-2
651.084	1	-2
651.253	1	1
651.423	1	-3
651.592	1	-2
651.762	1	6
651.931	1	-1
652.101	1	2
652.270	1	3
652.440	1	-1
652.609	1	1
652.778	1	-6
652.948	1	0
653.117	1	1
653.287	1	12
653.456	1	-1
653.626	1	-1
653.795	1	8
653.965	1	4
654.134	1	-1
654.304	1	-6
654.473	1	-4
654.643	1	7
654.812	1	-1
654.982	1	-11
655.151	1	-11
655.320	1	-7
655.490	1	4
655.659	1	-4
655.829	1	3
655.998	1	4
656.168	1	-3
656.337	1	-15
656.507	1	15
656.676	1	-3
656.846	1	-10
657.015	1	-1
657.184	1	1
657.354	1	1
657.523	1	-5
657.693	1	5
657.862	1	-2
658.032	1	8
658.201	1	-7
658.371	1	-7
658.540	1	7
658.709	1	-12
658.879	1	-3
659.048	1	-3
659.218	1	3
659.387	1	-1
659.557	1	1
659.726	1	2
659.895	1	-4
660.065	1	-1
660.234	1	-1
660.404	1	14
660.573	1	-16
660.743	1	-4
660.912	1	-4
661.081	1	7
661.251	1	-4
661.420	1	-5
661.590	1	0
661.759	1	4
661.929	1	0
662.098	1	-16
662.267	1	6
662.437	1	5
662.606	1	1
662.776	1	-2
662.945	1	2
663.115	1	-8
663.284	1	-4
663.453	1	-3
663.623	1	7
663.792	1	6
663.962	1	-12
664.131	1	-7
664.300	1	3
664.470	1	3
664.639	1	-1
664.809	1	2
664.978	1	4
665.148	1	3
665.317	1	-2
665.486	1	-1
665.656	1	-8
665.825	1	10
665.995	1	7
666.164	1	-10
666.333	1	10
666.503	1	-6
666.672	1	-12
666.842	1	0
667.011	1	2
667.180	1	2
667.350	1	9
667.519	1	-8
667.689	1	-6
667.858	1	6
668.027	1	-5
668.197	1	10
668.366	1	0
668.536	1	-3
668.705	1	-5
668.874	1	-1
669.044	1	0
669.213	1	-2
669.382	1	-8
669.552	1	-8
669.721	1	-12
669.891	1	6
670.060	1	3
670.229	1	-6
670.399	1	6
670.568	1	8
670.738	1	-10
670.907	1	-11
671.076	1	-1
671.246	1	-3
671.415	1	-2
671.584	1	-2
671.754	1	-7
671.923	1	1
672.093	1	9
672.262	1	12
672.431	1	-4
672.601	1	-9
672.770	1	-4
672.939	1	-7
673.109	1	-11
673.278	1	-2
673.448	1	-4
673.617	1	1
673.786	1	-5
