325.333	1	-18
325.504	1	4
325.675	1	-2
325.846	1	-13
326.017	1	-6
326.188	1	7
326.359	1	-2
326.531	1	-8
326.702	1	-7
326.873	1	12
327.044	1	-8
327.215	1	-1
327.386	1	6
327.557	1	-1
327.728	1	-2
327.899	1	-3
328.070	1	-4
328.241	1	-8
328.412	1	6
328.583	1	-4
328.754	1	-4
328.926	1	-6
329.097	1	4
329.268	1	1
329.439	1	-5
329.610	1	-14
329.781	1	-2
329.952	1	12
330.123	1	1
330.294	1	12
330.465	1	-2
330.636	1	5
330.807	1	4
330.978	1	-3
331.149	1	0
331.320	1	-2
331.492	1	-10
331.663	1	-5
331.834	1	11
332.005	1	10
332.176	1	-4
332.347	1	3
332.518	1	5
332.689	1	6
332.860	1	-2
333.031	1	-4
333.202	1	-4
333.373	1	2
333.544	1	4
333.715	1	3
333.886	1	-3
334.057	1	-10
334.228	1	-5
334.399	1	1
334.570	1	3
334.741	1	-3
334.912	1	-4
335.084	1	-8
335.255	1	-4
335.426	1	-5
335.597	1	-4
335.768	1	5
335.939	1	5
336.110	1	-9
336.281	1	-11
336.452	1	1
336.623	1	8
336.794	1	-12
336.965	1	-4
337.136	1	-4
337.307	1	12
337.478	1	8
337.649	1	7
337.820	1	9
337.991	1	8
338.162	1	1
338.333	1	-2
338.504	1	-1
338.675	1	4
338.846	1	4
339.017	1	4
339.188	1	0
339.359	1	0
339.530	1	0
339.701	1	-1
339.872	1	3
340.043	1	-7
340.214	1	-12
340.385	1	-1
340.556	1	2
340.727	1	0
340.898	1	-4
341.069	1	11
341.240	1	2
341.411	1	5
341.582	1	-6
341.753	1	-5
341.924	1	-12
342.095	1	1
342.266	1	-1
342.437	1	0
342.608	1	-1
342.779	1	-7
342.950	1	-2
343.121	1	9
343.292	1	5
343.463	1	-9
343.634	1	-11
343.805	1	1
343.976	1	3
344.147	1	-6
344.318	1	2
344.489	1	-2
344.660	1	7
344.831	1	-2
345.002	1	4
345.173	1	1
345.344	1	-6
345.515	1	-3
345.686	1	-2
345.857	1	0
346.028	1	-4
346.199	1	6
346.370	1	-2
346.541	1	-11
346.712	1	-5
346.883	1	1
347.054	1	-1
347.225	1	-9
347.396	1	7
347.567	1	0
347.738	1	7
347.909	1	0
348.080	1	-9
348.251	1	-4
348.422	1	-3
348.593	1	0
348.764	1	-1
348.935	1	1
349.106	1	2
349.277	1	-6
349.448	1	-3
349.619	1	6
349.790	1	0
349.961	1	0
350.132	1	-4
350.303	1	-3
350.474	1	0
350.645	1	4
350.816	1	-8
350.987	1	1
351.157	1	1
351.328	1	-3
351.499	1	4
351.670	1	-2
351.841	1	-6
352.012	1	-16
352.183	1	-10
352.354	1	-3
352.525	1	-4
352.696	1	-6
352.867	1	-5
353.038	1	15
353.209	1	-1
353.380	1	6
353.551	1	-7
353.722	1	4
353.893	1	-2
354.064	1	-3
354.235	1	-4
354.406	1	-6
354.576	1	-3
354.747	1	-7
354.918	1	-13
355.089	1	-6
355.260	1	0
355.431	1	-4
355.602	1	-1
355.773	1	-3
355.944	1	1
356.115	1	-9
356.286	1	-1
356.457	1	-5
356.628	1	0
356.799	1	5
356.970	1	-1
357.141	1	-10
357.311	1	3
357.482	1	-3
357.653	1	-9
357.824	1	-9
357.995	1	5
358.166	1	2
358.337	1	-5
358.508	1	2
358.679	1	7
358.850	1	3
359.021	1	-6
359.192	1	1
359.363	1	-3
359.533	1	-3
359.704	1	-3
359.875	1	-9
360.046	1	6
360.217	1	9
360.388	1	5
360.559	1	1
360.730	1	-10
360.901	1	7
361.072	1	-1
361.243	1	7
361.414	1	5
361.584	1	4
361.755	1	7
361.926	1	10
362.097	1	1
362.268	1	4
362.439	1	9
362.610	1	-11
362.781	1	10
362.952	1	3
363.123	1	11
363.293	1	-11
363.464	1	6
363.635	1	0
363.806	1	0
363.977	1	8
364.148	1	-3
364.319	1	-2
364.490	1	-6
364.661	1	6
364.832	1	7
365.002	1	-1
365.173	1	1
365.344	1	-2
365.515	1	-8
365.686	1	5
365.857	1	17
366.028	1	-2
366.199	1	3
366.370	1	4
366.540	1	4
366.711	1	8
366.882	1	1
367.053	1	8
367.224	1	3
367.395	1	6
367.566	1	4
367.737	1	-3
367.908	1	2
368.078	1	10
368.249	1	3
368.420	1	-1
368.591	1	11
368.762	1	-2
368.933	1	6
369.104	1	3
369.274	1	-1
369.445	1	-3
369.616	1	-1
369.787	1	8
369.958	1	1
370.129	1	8
370.300	1	-2
370.471	1	8
370.641	1	-3
370.812	1	7
370.983	1	12
371.154	1	0
371.325	1	2
371.496	1	-7
371.667	1	-2
371.837	1	0
372.008	1	-2
372.179	1	7
372.350	1	-7
372.521	1	-6
372.692	1	6
372.863	1	3
373.033	1	2
373.204	1	4
373.375	1	-3
373.546	1	-1
373.717	1	7
373.888	1	-6
374.059	1	0
374.229	1	-7
374.400	1	-2
374.571	1	2
374.742	1	2
374.913	1	-5
375.084	1	-10
375.254	1	2
375.425	1	1
375.596	1	-12
375.767	1	7
375.938	1	4
376.109	1	0
376.279	1	-1
376.450	1	1
376.621	1	1
376.792	1	-5
376.963	1	6
377.134	1	-11
377.304	1	7
377.475	1	1
377.646	1	0
377.817	1	3
377.988	1	5
378.159	1	5
378.329	1	2
378.500	1	-14
378.671	1	-4
378.842	1	-9
379.013	1	-4
379.184	1	3
379.354	1	-4
379.525	1	4
379.696	1	-12
379.867	1	2
380.038	1	6
380.209	1	7
380.379	1	-2
380.550	1	1
380.721	1	5
380.892	1	3
381.063	1	4
381.233	1	7
381.404	1	1
381.575	1	1
381.746	1	3
381.917	1	-6
382.087	1	2
382.258	1	9
382.429	1	3
382.600	1	2
382.771	1	5
382.941	1	9
383.112	1	1
383.283	1	8
383.454	1	-5
383.625	1	-4
383.795	1	4
383.966	1	1
384.137	1	4
384.308	1	7
384.479	1	12
384.649	1	5
384.820	1	6
384.991	1	7
385.162	1	2
385.333	1	5
385.503	1	2
385.674	1	-2
385.845	1	19
386.016	1	8
386.187	1	13
386.357	1	1
386.528	1	9
386.699	1	16
386.870	1	14
387.041	1	-3
387.211	1	8
387.382	1	2
387.553	1	0
387.724	1	-4
387.894	1	11
388.065	1	11
388.236	1	12
388.407	1	8
388.578	1	14
388.748	1	13
388.919	1	1
389.090	1	8
389.261	1	-13
389.431	1	8
389.602	1	13
389.773	1	13
389.944	1	17
390.114	1	9
390.285	1	2
390.456	1	6
390.627	1	5
390.798	1	2
390.968	1	0
391.139	1	3
391.310	1	11
391.481	1	7
391.651	1	11
391.822	1	8
391.993	1	17
392.164	1	4
392.334	1	13
392.505	1	1
392.676	1	2
392.847	1	9
393.017	1	0
393.188	1	10
393.359	1	10
393.530	1	5
393.700	1	8
393.871	1	2
394.042	1	-1
394.213	1	5
394.383	1	-1
394.554	1	4
394.725	1	4
394.896	1	-2
395.066	1	15
395.237	1	16
395.408	1	6
395.579	1	8
395.749	1	5
395.920	1	13
396.091	1	3
396.262	1	4
396.432	1	-4
396.603	1	8
396.774	1	0
396.945	1	9
397.115	1	5
397.286	1	19
397.457	1	5
397.627	1	5
397.798	1	-3
397.969	1	-4
398.140	1	1
398.310	1	20
398.481	1	-2
398.652	1	16
398.823	1	17
398.993	1	7
399.164	1	18
399.335	1	-4
399.505	1	6
399.676	1	17
399.847	1	1
400.018	1	13
400.188	1	14
400.359	1	3
400.530	1	14
400.700	1	5
400.871	1	-5
401.042	1	6
401.213	1	1
401.383	1	15
401.554	1	4
401.725	1	11
401.895	1	9
402.066	1	6
402.237	1	9
402.408	1	9
402.578	1	6
402.749	1	2
402.920	1	-7
403.090	1	3
403.261	1	13
403.432	1	3
403.603	1	3
403.773	1	10
403.944	1	7
404.115	1	-4
404.285	1	-6
404.456	1	12
404.627	1	-1
404.797	1	18
404.968	1	2
405.139	1	1
405.310	1	-3
405.480	1	18
405.651	1	6
405.822	1	10
405.992	1	-2
406.163	1	11
406.334	1	5
406.504	1	-1
406.675	1	16
406.846	1	5
407.016	1	9
407.187	1	4
407.358	1	0
407.528	1	-2
407.699	1	10
407.870	1	15
408.041	1	-8
408.211	1	2
408.382	1	9
408.553	1	10
408.723	1	7
408.894	1	-10
409.065	1	6
409.235	1	-3
409.406	1	13
409.577	1	-4
409.747	1	0
409.918	1	-1
410.089	1	-2
410.259	1	-6
410.430	1	13
410.601	1	-2
410.771	1	2
410.942	1	9
411.113	1	-4
411.283	1	-4
411.454	1	-5
411.625	1	2
411.795	1	7
411.966	1	-4
412.137	1	3
412.307	1	-2
412.478	1	10
412.649	1	-4
412.819	1	11
412.990	1	16
413.161	1	-5
413.331	1	-2
413.502	1	11
413.672	1	-2
413.843	1	4
414.014	1	3
414.184	1	3
414.355	1	-4
414.526	1	-1
414.696	1	-1
414.867	1	11
415.038	1	-5
415.208	1	-7
415.379	1	7
415.550	1	10
415.720	1	5
415.891	1	8
416.062	1	-4
416.232	1	5
416.403	1	1
416.573	1	3
416.744	1	10
416.915	1	-1
417.085	1	-7
417.256	1	6
417.427	1	-2
417.597	1	-10
417.768	1	-5
417.939	1	1
418.109	1	7
418.280	1	6
418.450	1	-2
418.621	1	-2
418.792	1	-3
418.962	1	-6
419.133	1	8
419.304	1	4
419.474	1	-3
419.645	1	8
419.815	1	-4
419.986	1	11
420.157	1	12
420.327	1	10
420.498	1	6
420.669	1	-4
420.839	1	11
421.010	1	5
421.180	1	-5
421.351	1	4
421.522	1	3
421.692	1	-5
421.863	1	3
422.033	1	-3
422.204	1	-11
422.375	1	2
422.545	1	10
422.716	1	-3
422.886	1	4
423.057	1	2
423.228	1	-6
423.398	1	2
423.569	1	-2
423.740	1	-2
423.910	1	-8
424.081	1	5
424.251	1	1
424.422	1	3
424.593	1	7
424.763	1	6
424.934	1	-2
425.104	1	12
425.275	1	-7
425.445	1	-6
425.616	1	-4
425.787	1	-5
425.957	1	14
426.128	1	0
426.298	1	7
426.469	1	2
426.640	1	-1
426.810	1	9
426.981	1	-8
427.151	1	-6
427.322	1	5
427.493	1	1
427.663	1	3
427.834	1	-7
428.004	1	5
428.175	1	5
428.345	1	9
428.516	1	3
428.687	1	-4
428.857	1	1
429.028	1	-9
429.198	1	-9
429.369	1	1
429.540	1	9
429.710	1	-4
429.881	1	17
430.051	1	13
430.222	1	-6
430.392	1	-3
430.563	1	2
430.734	1	5
430.904	1	-1
431.075	1	7
431.245	1	4
431.416	1	5
431.586	1	0
431.757	1	2
431.927	1	2
432.098	1	-5
432.269	1	1
432.439	1	-2
432.610	1	-7
432.780	1	-1
432.951	1	4
433.121	1	12
433.292	1	-1
433.462	1	-1
433.633	1	-9
433.804	1	-6
433.974	1	-6
434.145	1	-6
434.315	1	1
434.486	1	3
434.656	1	-5
434.827	1	-5
434.997	1	10
435.168	1	-7
435.339	1	11
435.509	1	1
435.680	1	-7
435.850	1	-3
436.021	1	12
436.191	1	-12
436.362	1	2
436.532	1	1
436.703	1	1
436.873	1	-7
437.044	1	6
437.214	1	-4
437.385	1	-2
437.556	1	-5
437.726	1	4
437.897	1	-2
438.067	1	2
438.238	1	-7
438.408	1	7
438.579	1	1
438.749	1	5
438.920	1	-1
439.090	1	9
439.261	1	4
439.431	1	-3
439.602	1	0
439.772	1	6
439.943	1	-2
440.113	1	2
440.284	1	4
440.455	1	-2
440.625	1	2
440.796	1	9
440.966	1	-2
441.137	1	-12
441.307	1	1
441.478	1	2
441.648	1	-5
441.819	1	-4
441.989	1	6
442.160	1	4
442.330	1	0
442.501	1	-9
442.671	1	11
442.842	1	-2
443.012	1	7
443.183	1	-13
443.353	1	2
443.524	1	-6
443.694	1	9
443.865	1	1
444.035	1	-1
444.206	1	-9
444.376	1	0
444.547	1	1
444.717	1	12
444.888	1	-4
445.058	1	-2
445.229	1	-10
445.399	1	9
445.570	1	0
445.740	1	8
445.911	1	13
446.081	1	-2
446.252	1	-13
446.422	1	2
446.593	1	-6
446.763	1	4
446.934	1	12
447.104	1	-15
447.275	1	-3
447.445	1	-11
447.616	1	-6
447.786	1	1
447.957	1	3
448.127	1	14
448.298	1	6
448.468	1	11
448.639	1	-7
448.809	1	-3
448.979	1	-3
449.150	1	-4
449.320	1	7
449.491	1	-2
449.661	1	6
449.832	1	-2
450.002	1	-3
450.173	1	4
450.343	1	-3
450.514	1	-6
450.684	1	-9
450.855	1	0
451.025	1	-9
451.196	1	-6
451.366	1	0
451.537	1	-8
451.707	1	-3
451.878	1	0
452.048	1	-1
452.218	1	-2
452.389	1	-6
452.559	1	6
452.730	1	4
452.900	1	-7
453.071	1	-2
453.241	1	-10
453.412	1	-5
453.582	1	12
453.753	1	-10
453.923	1	-2
454.093	1	2
454.264	1	-7
454.434	1	4
454.605	1	0
454.775	1	5
454.946	1	11
455.116	1	4
455.287	1	9
455.457	1	-3
455.628	1	-8
455.798	1	-3
455.968	1	4
456.139	1	-4
456.309	1	-12
456.480	1	-8
456.650	1	-2
456.821	1	3
456.991	1	12
457.161	1	11
457.332	1	1
457.502	1	-2
457.673	1	-3
457.843	1	7
458.014	1	-4
458.184	1	-1
458.355	1	3
458.525	1	-3
458.695	1	-4
458.866	1	3
459.036	1	15
459.207	1	0
459.377	1	-5
459.548	1	-13
459.718	1	-10
459.888	1	8
460.059	1	5
460.229	1	12
460.400	1	4
460.570	1	-8
460.740	1	-10
460.911	1	9
461.081	1	-2
461.252	1	-7
461.422	1	2
461.593	1	-6
461.763	1	-3
461.933	1	-5
462.104	1	-4
462.274	1	4
462.445	1	-4
462.615	1	-6
462.785	1	-6
462.956	1	-9
463.126	1	-10
463.297	1	-1
463.467	1	4
463.638	1	2
463.808	1	6
463.978	1	-4
464.149	1	-2
464.319	1	-5
464.490	1	-2
464.660	1	5
464.830	1	1
465.001	1	3
465.171	1	0
465.342	1	-3
465.512	1	-2
465.682	1	-2
465.853	1	-6
466.023	1	-4
466.194	1	2
466.364	1	-4
466.534	1	2
466.705	1	2
466.875	1	4
467.045	1	6
467.216	1	-5
467.386	1	-8
467.557	1	8
467.727	1	5
467.897	1	8
468.068	1	4
468.238	1	-5
468.409	1	12
468.579	1	5
468.749	1	-7
468.920	1	0
469.090	1	5
469.260	1	-7
469.431	1	-3
469.601	1	-3
469.772	1	-8
469.942	1	5
470.112	1	-5
470.283	1	10
470.453	1	-2
470.623	1	-5
470.794	1	6
470.964	1	-4
471.135	1	-12
471.305	1	-4
471.475	1	-5
471.646	1	5
471.816	1	-4
471.986	1	-4
472.157	1	9
472.327	1	1
472.497	1	-9
472.668	1	-6
472.838	1	10
473.009	1	2
473.179	1	8
473.349	1	6
473.520	1	1
473.690	1	10
473.860	1	-3
474.031	1	2
474.201	1	-5
474.371	1	12
474.542	1	5
474.712	1	1
474.882	1	1
475.053	1	-11
475.223	1	3
475.394	1	-3
475.564	1	10
475.734	1	-2
475.905	1	0
476.075	1	0
476.245	1	-5
476.416	1	4
476.586	1	7
476.756	1	4
476.927	1	8
477.097	1	-6
477.267	1	-7
477.438	1	-2
477.608	1	-4
477.778	1	9
477.949	1	5
478.119	1	-4
478.289	1	1
478.460	1	-4
478.630	1	-1
478.800	1	1
478.971	1	4
479.141	1	-3
479.311	1	0
479.482	1	-14
479.652	1	4
479.822	1	-3
479.993	1	2
480.163	1	-10
480.333	1	0
480.504	1	3
480.674	1	0
480.844	1	-2
481.015	1	-6
481.185	1	-3
481.355	1	6
481.525	1	1
481.696	1	-1
481.866	1	0
482.036	1	-3
482.207	1	-3
482.377	1	0
482.547	1	3
482.718	1	-5
482.888	1	-6
483.058	1	4
483.229	1	3
483.399	1	-4
483.569	1	8
483.740	1	-13
483.910	1	-2
484.080	1	-9
484.250	1	5
484.421	1	-2
484.591	1	13
484.761	1	-5
484.932	1	7
485.102	1	9
485.272	1	9
485.443	1	13
485.613	1	-17
485.783	1	12
485.953	1	-3
486.124	1	1
486.294	1	0
486.464	1	-10
486.635	1	10
486.805	1	16
486.975	1	-10
487.146	1	1
487.316	1	3
487.486	1	-3
487.656	1	-6
487.827	1	-1
487.997	1	9
488.167	1	2
488.338	1	5
488.508	1	11
488.678	1	-2
488.848	1	0
489.019	1	-1
489.189	1	1
489.359	1	-6
489.529	1	2
489.700	1	7
489.870	1	-14
490.040	1	-6
490.211	1	10
490.381	1	-2
490.551	1	-2
490.721	1	7
490.892	1	13
491.062	1	8
491.232	1	3
491.402	1	-10
491.573	1	5
491.743	1	-17
491.913	1	0
492.084	1	-1
492.254	1	0
492.424	1	4
492.594	1	-5
492.765	1	13
492.935	1	-9
493.105	1	7
493.275	1	4
493.446	1	4
493.616	1	0
493.786	1	3
493.956	1	3
494.127	1	-1
494.297	1	-1
494.467	1	6
494.637	1	1
494.808	1	3
494.978	1	-4
495.148	1	8
495.318	1	14
495.489	1	-7
495.659	1	4
495.829	1	6
495.999	1	2
496.170	1	-8
496.340	1	4
496.510	1	2
496.680	1	5
496.851	1	7
497.021	1	3
497.191	1	-4
497.361	1	1
497.532	1	4
497.702	1	-1
497.872	1	-1
498.042	1	5
498.213	1	11
498.383	1	-8
498.553	1	-1
498.723	1	3
498.894	1	0
499.064	1	13
499.234	1	-2
499.404	1	8
499.574	1	-11
499.745	1	-2
499.915	1	4
500.085	1	-4
500.255	1	7
500.426	1	-4
500.596	1	-5
500.766	1	7
500.936	1	-2
501.106	1	7
501.277	1	-1
501.447	1	-2
501.617	1	6
501.787	1	-3
501.958	1	-2
502.128	1	-3
502.298	1	2
502.468	1	3
502.638	1	5
502.809	1	0
502.979	1	-9
503.149	1	0
503.319	1	2
503.489	1	5
503.660	1	12
503.830	1	3
504.000	1	0
504.170	1	-4
504.340	1	1
504.511	1	8
504.681	1	-10
504.851	1	-9
505.021	1	13
505.192	1	7
505.362	1	-2
505.532	1	5
505.702	1	9
505.872	1	-8
506.043	1	8
506.213	1	3
506.383	1	-5
506.553	1	2
506.723	1	4
506.893	1	7
507.064	1	-6
507.234	1	10
507.404	1	-1
507.574	1	-1
507.744	1	-5
507.915	1	3
508.085	1	4
508.255	1	2
508.425	1	7
508.595	1	-4
508.766	1	5
508.936	1	4
509.106	1	-13
509.276	1	2
509.446	1	0
509.616	1	6
509.787	1	-2
509.957	1	4
510.127	1	11
510.297	1	-1
510.467	1	6
510.638	1	0
510.808	1	1
510.978	1	-8
511.148	1	12
511.318	1	0
511.488	1	7
511.659	1	3
511.829	1	4
511.999	1	16
512.169	1	4
512.339	1	-2
512.509	1	-2
512.680	1	9
512.850	1	0
513.020	1	-4
513.190	1	0
513.360	1	-1
513.530	1	-10
513.700	1	5
513.871	1	6
514.041	1	3
514.211	1	-2
514.381	1	2
514.551	1	1
514.721	1	6
514.892	1	-1
515.062	1	5
515.232	1	-1
515.402	1	-2
515.572	1	-5
515.742	1	-1
515.912	1	10
516.083	1	0
516.253	1	-5
516.423	1	6
516.593	1	3
516.763	1	-4
516.933	1	15
517.104	1	6
517.274	1	10
517.444	1	8
517.614	1	2
517.784	1	1
517.954	1	-10
518.124	1	7
518.294	1	9
518.465	1	5
518.635	1	-4
518.805	1	6
518.975	1	5
519.145	1	11
519.315	1	-2
519.485	1	-4
519.656	1	-7
519.826	1	9
519.996	1	12
520.166	1	-1
520.336	1	-4
520.506	1	7
520.676	1	3
520.846	1	-3
521.017	1	-5
521.187	1	4
521.357	1	2
521.527	1	-2
521.697	1	11
521.867	1	4
522.037	1	2
522.207	1	-1
522.377	1	8
522.548	1	0
522.718	1	6
522.888	1	-7
523.058	1	18
523.228	1	10
523.398	1	8
523.568	1	-4
523.738	1	6
523.909	1	11
524.079	1	10
524.249	1	11
524.419	1	4
524.589	1	9
524.759	1	-4
524.929	1	2
525.099	1	2
525.269	1	5
525.439	1	-1
525.610	1	4
525.780	1	11
525.950	1	-7
526.120	1	0
526.290	1	1
526.460	1	6
526.630	1	8
526.800	1	1
526.970	1	3
527.140	1	-8
527.311	1	4
527.481	1	12
527.651	1	12
527.821	1	2
527.991	1	0
528.161	1	-1
528.331	1	5
528.501	1	-8
528.671	1	10
528.841	1	-5
529.011	1	6
529.181	1	4
529.352	1	7
529.522	1	3
529.692	1	6
529.862	1	-3
530.032	1	4
530.202	1	10
530.372	1	-8
530.542	1	7
530.712	1	16
530.882	1	-1
531.052	1	1
531.222	1	-3
531.392	1	4
531.563	1	8
531.733	1	3
531.903	1	6
532.073	1	-1
532.243	1	-5
532.413	1	1
532.583	1	7
532.753	1	0
532.923	1	2
533.093	1	1
533.263	1	4
533.433	1	3
533.603	1	-2
533.773	1	4
533.943	1	-2
534.113	1	3
534.284	1	10
534.454	1	6
534.624	1	7
534.794	1	-2
534.964	1	-8
535.134	1	-5
535.304	1	8
535.474	1	6
535.644	1	5
535.814	1	11
535.984	1	-7
536.154	1	3
536.324	1	7
536.494	1	9
536.664	1	2
536.834	1	5
537.004	1	25
537.174	1	10
537.344	1	7
537.514	1	14
537.685	1	-1
537.855	1	-2
538.025	1	0
538.195	1	3
538.365	1	-2
538.535	1	7
538.705	1	-2
538.875	1	4
539.045	1	8
539.215	1	-6
539.385	1	5
539.555	1	2
539.725	1	-1
539.895	1	5
540.065	1	4
540.235	1	0
540.405	1	-1
540.575	1	11
540.745	1	-3
540.915	1	10
541.085	1	-1
541.255	1	1
541.425	1	-5
541.595	1	-5
541.765	1	-6
541.935	1	6
542.105	1	-2
542.275	1	2
542.445	1	4
542.615	1	-1
542.785	1	5
542.955	1	6
543.125	1	0
543.295	1	-2
543.465	1	10
543.635	1	-2
543.805	1	11
543.975	1	-4
544.145	1	12
544.315	1	-3
544.485	1	2
544.655	1	11
544.825	1	17
544.995	1	10
545.165	1	7
545.335	1	4
545.505	1	1
545.675	1	6
545.845	1	-1
546.015	1	5
546.185	1	4
546.355	1	4
546.525	1	8
546.695	1	-7
546.865	1	-7
547.035	1	11
547.205	1	3
547.375	1	17
547.545	1	0
547.715	1	3
547.885	1	3
548.055	1	2
548.225	1	-3
548.395	1	-2
548.565	1	3
548.735	1	8
548.905	1	2
549.075	1	3
549.245	1	5
549.415	1	3
549.585	1	6
549.755	1	0
549.925	1	5
550.095	1	3
550.265	1	-4
550.435	1	12
550.605	1	2
550.775	1	1
550.945	1	11
551.115	1	2
551.285	1	10
551.455	1	-1
551.625	1	-8
551.795	1	5
551.965	1	1
552.135	1	-3
552.305	1	5
552.475	1	5
552.645	1	11
552.815	1	0
552.985	1	4
553.155	1	6
553.325	1	3
553.495	1	2
553.665	1	5
553.835	1	-3
554.004	1	-1
554.174	1	0
554.344	1	-2
554.514	1	6
554.684	1	0
554.854	1	0
555.024	1	1
555.194	1	6
555.364	1	13
555.534	1	-1
555.704	1	0
555.874	1	-5
556.044	1	3
556.214	1	-5
556.384	1	10
556.554	1	-3
556.724	1	-6
556.894	1	4
557.064	1	1
557.234	1	1
557.404	1	-2
557.573	1	0
557.743	1	7
557.913	1	2
558.083	1	-3
558.253	1	-2
558.423	1	0
558.593	1	-1
558.763	1	-5
558.933	1	1
559.103	1	-2
559.273	1	8
559.443	1	7
559.613	1	6
559.783	1	6
559.953	1	3
560.122	1	-8
560.292	1	5
560.462	1	2
560.632	1	4
560.802	1	0
560.972	1	19
561.142	1	10
561.312	1	9
561.482	1	11
561.652	1	13
561.822	1	2
561.992	1	-1
562.162	1	-1
562.331	1	1
562.501	1	2
562.671	1	-7
562.841	1	7
563.011	1	6
563.181	1	-2
563.351	1	-5
563.521	1	3
563.691	1	0
563.861	1	2
564.031	1	1
564.201	1	11
564.370	1	11
564.540	1	10
564.710	1	-9
564.880	1	6
565.050	1	0
565.220	1	-1
565.390	1	-6
565.560	1	8
565.730	1	5
565.900	1	-5
566.069	1	8
566.239	1	-5
566.409	1	2
566.579	1	9
566.749	1	11
566.919	1	-4
567.089	1	2
567.259	1	11
567.429	1	3
567.599	1	-5
567.768	1	4
567.938	1	4
568.108	1	7
568.278	1	-9
568.448	1	0
568.618	1	4
568.788	1	-6
568.958	1	-2
569.128	1	7
569.297	1	0
569.467	1	-5
569.637	1	-4
569.807	1	2
569.977	1	-6
570.147	1	-9
570.317	1	16
570.487	1	4
570.656	1	0
570.826	1	4
570.996	1	-4
571.166	1	-7
571.336	1	-1
571.506	1	6
571.676	1	9
571.846	1	12
572.015	1	-10
572.185	1	-11
572.355	1	15
572.525	1	-12
572.695	1	5
572.865	1	6
573.035	1	1
573.205	1	18
573.374	1	-4
573.544	1	3
573.714	1	-2
573.884	1	4
574.054	1	0
574.224	1	1
574.394	1	0
574.563	1	12
574.733	1	1
574.903	1	0
575.073	1	-2
575.243	1	-9
575.413	1	10
575.583	1	8
575.752	1	1
575.922	1	-8
576.092	1	5
576.262	1	1
576.432	1	-7
576.602	1	7
576.772	1	6
576.941	1	-2
577.111	1	1
577.281	1	3
577.451	1	4
577.621	1	-3
577.791	1	0
577.960	1	-1
578.130	1	-3
578.300	1	-2
578.470	1	2
578.640	1	-2
578.810	1	8
578.979	1	-2
579.149	1	-2
579.319	1	3
579.489	1	-2
579.659	1	8
579.829	1	5
579.998	1	-4
580.168	1	11
580.338	1	-15
580.508	1	4
580.678	1	0
580.848	1	8
581.017	1	1
581.187	1	-5
581.357	1	1
581.527	1	12
581.697	1	-18
581.867	1	-7
582.036	1	8
582.206	1	-5
582.376	1	1
582.546	1	3
582.716	1	3
582.885	1	2
583.055	1	6
583.225	1	6
583.395	1	9
583.565	1	8
583.735	1	2
583.904	1	0
584.074	1	-1
584.244	1	3
584.414	1	-3
584.584	1	6
584.753	1	1
584.923	1	2
585.093	1	6
585.263	1	-6
585.433	1	2
585.602	1	-9
585.772	1	2
585.942	1	0
586.112	1	11
586.282	1	0
586.451	1	4
586.621	1	1
586.791	1	4
586.961	1	-3
587.131	1	-5
587.300	1	3
587.470	1	4
587.640	1	-7
587.810	1	-1
587.980	1	5
588.149	1	-4
588.319	1	2
588.489	1	-2
588.659	1	-4
588.829	1	4
588.998	1	-8
589.168	1	8
589.338	1	4
589.508	1	8
589.677	1	6
589.847	1	13
590.017	1	-11
590.187	1	-1
590.357	1	-3
590.526	1	2
590.696	1	0
590.866	1	5
591.036	1	4
591.205	1	0
591.375	1	-15
591.545	1	-4
591.715	1	-3
591.885	1	8
592.054	1	-2
592.224	1	3
592.394	1	-1
592.564	1	-8
592.733	1	2
592.903	1	7
593.073	1	4
593.243	1	-3
593.412	1	2
593.582	1	8
593.752	1	-3
593.922	1	-6
594.091	1	8
594.261	1	-1
594.431	1	-3
594.601	1	-10
594.771	1	-2
594.940	1	0
595.110	1	-3
595.280	1	-1
595.450	1	5
595.619	1	-6
595.789	1	10
595.959	1	-5
596.129	1	-5
596.298	1	9
596.468	1	1
596.638	1	5
596.808	1	8
596.977	1	1
597.147	1	6
597.317	1	2
597.487	1	-6
597.656	1	-6
597.826	1	4
597.996	1	3
598.166	1	-10
598.335	1	0
598.505	1	6
598.675	1	-3
598.844	1	-4
599.014	1	-4
599.184	1	-7
599.354	1	-12
599.523	1	-1
599.693	1	12
599.863	1	11
600.033	1	-1
600.202	1	9
600.372	1	-3
600.542	1	-2
600.712	1	4
600.881	1	8
601.051	1	0
601.221	1	-1
601.390	1	-14
601.560	1	-7
601.730	1	10
601.900	1	0
602.069	1	-5
602.239	1	0
602.409	1	-9
602.578	1	-7
602.748	1	-6
602.918	1	2
603.088	1	2
603.257	1	10
603.427	1	-2
603.597	1	16
603.767	1	-4
603.936	1	7
604.106	1	-8
604.276	1	-6
604.445	1	5
604.615	1	-8
604.785	1	1
604.954	1	5
605.124	1	-15
605.294	1	4
605.464	1	-10
605.633	1	0
605.803	1	3
605.973	1	-4
606.142	1	0
606.312	1	-5
606.482	1	0
606.652	1	-8
606.821	1	1
606.991	1	-2
607.161	1	5
607.330	1	13
607.500	1	-2
607.670	1	-1
607.839	1	-3
608.009	1	-9
608.179	1	10
608.348	1	-3
608.518	1	5
608.688	1	-2
608.858	1	11
609.027	1	5
609.197	1	-7
609.367	1	-13
609.536	1	0
609.706	1	-3
609.876	1	2
610.045	1	0
610.215	1	-3
610.385	1	-3
610.554	1	1
610.724	1	5
610.894	1	-1
611.063	1	11
611.233	1	-4
611.403	1	-3
611.572	1	-3
611.742	1	-1
611.912	1	-5
612.081	1	-14
612.251	1	14
612.421	1	13
612.590	1	-8
612.760	1	6
612.930	1	-3
613.099	1	-14
613.269	1	3
613.439	1	-6
613.608	1	8
613.778	1	0
613.948	1	9
614.117	1	2
614.287	1	-8
614.457	1	4
614.626	1	-5
614.796	1	9
614.966	1	-2
615.135	1	-7
615.305	1	1
615.475	1	1
615.644	1	-2
615.814	1	-1
615.984	1	8
616.153	1	9
616.323	1	7
616.493	1	-1
616.662	1	-1
616.832	1	-14
617.002	1	-3
617.171	1	-5
617.341	1	4
617.511	1	2
617.680	1	4
617.850	1	0
618.019	1	1
618.189	1	-9
618.359	1	4
618.528	1	-2
618.698	1	-5
618.868	1	2
619.037	1	10
619.207	1	-3
619.377	1	-10
619.546	1	0
619.716	1	-11
619.885	1	2
620.055	1	-2
620.225	1	9
620.394	1	-7
620.564	1	-11
620.734	1	2
620.903	1	5
621.073	1	-6
621.242	1	-15
621.412	1	6
621.582	1	0
621.751	1	-8
621.921	1	0
622.091	1	-3
622.260	1	-8
622.430	1	3
622.599	1	3
622.769	1	5
622.939	1	0
623.108	1	-6
623.278	1	1
623.448	1	-5
623.617	1	4
623.787	1	-1
623.956	1	1
624.126	1	2
624.296	1	-6
624.465	1	2
624.635	1	5
624.804	1	0
624.974	1	-1
625.144	1	-2
625.313	1	-7
625.483	1	-7
625.652	1	-1
625.822	1	5
625.992	1	-6
626.161	1	0
626.331	1	5
626.501	1	5
626.670	1	8
626.840	1	8
627.009	1	-6
627.179	1	-4
627.348	1	-7
627.518	1	0
627.688	1	-5
627.857	1	1
628.027	1	-3
628.196	1	8
628.366	1	8
628.536	1	0
628.705	1	-2
628.875	1	-2
629.044	1	6
629.214	1	-2
629.384	1	-18
629.553	1	-5
629.723	1	7
629.892	1	-6
630.062	1	-2
630.232	1	9
630.401	1	4
630.571	1	-1
630.740	1	8
630.910	1	1
631.079	1	-1
631.249	1	-4
631.419	1	5
631.588	1	-3
631.758	1	7
631.927	1	-2
632.097	1	2
632.266	1	-11
632.436	1	-6
632.606	1	16
632.775	1	-14
632.945	1	1
633.114	1	7
633.284	1	2
633.453	1	-9
633.623	1	-5
633.793	1	-9
633.962	1	2
634.132	1	6
634.301	1	-1
634.471	1	-19
634.640	1	-3
634.810	1	-6
634.979	1	3
635.149	1	3
635.319	1	8
635.488	1	2
635.658	1	-4
635.827	1	3
635.997	1	-1
636.166	1	1
636.336	1	13
636.505	1	5
636.675	1	-4
636.845	1	5
637.014	1	2
637.184	1	0
637.353	1	6
637.523	1	-9
637.692	1	-3
637.862	1	-20
638.031	1	2
638.201	1	4
638.370	1	-6
638.540	1	0
638.710	1	-1
638.879	1	-7
639.049	1	0
639.218	1	-3
639.388	1	12
639.557	1	1
639.727	1	-5
639.896	1	3
640.066	1	8
640.235	1	-1
640.405	1	0
640.574	1	-2
640.744	1	2
640.914	1	0
641.083	1	-2
641.253	1	-1
641.422	1	-6
641.592	1	-3
641.761	1	-6
641.931	1	10
642.100	1	-13
642.270	1	-11
642.439	1	-1
642.609	1	-2
642.778	1	-4
642.948	1	7
643.117	1	-2
643.287	1	4
643.456	1	-7
643.626	1	4
643.795	1	-6
643.965	1	-5
644.134	1	1
644.304	1	-5
644.473	1	7
644.643	1	10
644.812	1	7
644.982	1	5
645.151	1	-1
645.321	1	7
645.490	1	2
645.660	1	-1
645.829	1	-1
645.999	1	-3
646.168	1	1
646.338	1	5
646.507	1	6
646.677	1	-2
646.846	1	14
647.016	1	-10
647.185	1	-6
647.355	1	-2
647.524	1	-1
647.694	1	-15
647.863	1	-8
648.033	1	-5
648.202	1	6
648.372	1	6
648.541	1	-1
648.711	1	3
648.880	1	-6
649.050	1	-2
649.219	1	-3
649.389	1	-6
649.558	1	-2
649.728	1	-1
649.897	1	7
650.067	1	-4
650.236	1	5
650.406	1	4
650.575	1	0
650.745	1	-4
650.914	1	-5
651.084	1	-7
651.253	1	2
651.423	1	0
651.592	1	2
651.762	1	12
651.931	1	-3
652.101	1	2
652.270	1	1
652.440	1	-7
652.609	1	1
652.778	1	-3
652.948	1	-12
653.117	1	-6
653.287	1	11
653.456	1	0
653.626	1	3
653.795	1	3
653.965	1	5
654.134	1	6
654.304	1	1
654.473	1	2
654.643	1	8
654.812	1	-3
654.982	1	-9
655.151	1	-1
655.320	1	-2
655.490	1	8
655.659	1	-1
655.829	1	-2
655.998	1	-4
656.168	1	2
656.337	1	-12
656.507	1	5
656.676	1	-10
656.846	1	-16
657.015	1	-7
657.184	1	-1
657.354	1	-2
657.523	1	-8
657.693	1	-3
657.862	1	6
658.032	1	10
658.201	1	-15
658.371	1	-7
658.540	1	2
658.709	1	-7
658.879	1	-5
659.048	1	0
659.218	1	-5
659.387	1	-14
659.557	1	-8
659.726	1	-3
659.895	1	-3
660.065	1	1
660.234	1	1
660.404	1	11
660.573	1	-2
660.743	1	-2
660.912	1	-5
661.081	1	1
661.251	1	3
661.420	1	-4
661.590	1	-1
661.759	1	9
661.929	1	1
662.098	1	-15
662.267	1	7
662.437	1	-4
662.606	1	2
662.776	1	1
662.945	1	-10
663.115	1	-11
663.284	1	1
663.453	1	-2
663.623	1	-8
663.792	1	-4
663.962	1	1
664.131	1	-11
664.300	1	2
664.470	1	-8
664.639	1	-3
664.809	1	-1
664.978	1	-3
665.148	1	1
665.317	1	0
665.486	1	3
665.656	1	-5
665.825	1	-2
665.995	1	6
666.164	1	-1
666.333	1	6
666.503	1	-6
666.672	1	-10
666.842	1	0
667.011	1	0
667.180	1	0
667.350	1	3
667.519	1	-7
667.689	1	-3
667.858	1	9
668.027	1	-12
668.197	1	8
668.366	1	-10
668.536	1	-2
668.705	1	-1
668.874	1	0
669.044	1	-3
669.213	1	4
669.382	1	-7
669.552	1	4
669.721	1	-11
669.891	1	-3
670.060	1	5
670.229	1	-6
670.399	1	5
670.568	1	11
670.738	1	-7
670.907	1	-2
671.076	1	15
671.246	1	4
671.415	1	-7
671.584	1	-1
671.754	1	-3
671.923	1	-7
672.093	1	-2
672.262	1	10
672.431	1	0
672.601	1	-7
672.770	1	6
672.939	1	-8
673.109	1	-1
673.278	1	-6
673.448	1	-3
673.617	1	4
673.786	1	-9
