325.333	1	-1
325.504	1	4
325.675	1	1
325.846	1	-7
326.017	1	-4
326.188	1	4
326.359	1	-9
326.531	1	-6
326.702	1	4
326.873	1	5
327.044	1	-3
327.215	1	-5
327.386	1	-3
327.557	1	-5
327.728	1	2
327.899	1	-13
328.070	1	3
328.241	1	-6
328.412	1	7
328.583	1	-4
328.754	1	-7
328.926	1	8
329.097	1	2
329.268	1	3
329.439	1	0
329.610	1	-5
329.781	1	-12
329.952	1	11
330.123	1	-4
330.294	1	9
330.465	1	0
330.636	1	14
330.807	1	4
330.978	1	-1
331.149	1	0
331.320	1	-3
331.492	1	-2
331.663	1	-6
331.834	1	7
332.005	1	3
332.176	1	-10
332.347	1	-3
332.518	1	7
332.689	1	7
332.860	1	-5
333.031	1	-10
333.202	1	-7
333.373	1	7
333.544	1	4
333.715	1	-2
333.886	1	-4
334.057	1	-11
334.228	1	6
334.399	1	9
334.570	1	2
334.741	1	-12
334.912	1	-11
335.084	1	-11
335.255	1	-1
335.426	1	5
335.597	1	-7
335.768	1	4
335.939	1	4
336.110	1	3
336.281	1	-16
336.452	1	-6
336.623	1	5
336.794	1	-12
336.965	1	-2
337.136	1	0
337.307	1	10
337.478	1	12
337.649	1	3
337.820	1	13
337.991	1	9
338.162	1	-1
338.333	1	-5
338.504	1	4
338.675	1	13
338.846	1	2
339.017	1	-3
339.188	1	3
339.359	1	1
339.530	1	2
339.701	1	4
339.872	1	4
340.043	1	-1
340.214	1	6
340.385	1	3
340.556	1	0
340.727	1	2
340.898	1	-8
341.069	1	1
341.240	1	-4
341.411	1	2
341.582	1	1
341.753	1	-5
341.924	1	-7
342.095	1	-7
342.266	1	-12
342.437	1	-1
342.608	1	-9
342.779	1	-14
342.950	1	6
343.121	1	4
343.292	1	-3
343.463	1	-3
343.634	1	5
343.805	1	5
343.976	1	7
344.147	1	-3
344.318	1	3
344.489	1	-9
344.660	1	7
344.831	1	1
345.002	1	-8
345.173	1	-6
345.344	1	-6
345.515	1	-11
345.686	1	8
345.857	1	-1
346.028	1	-6
346.199	1	-9
346.370	1	-3
346.541	1	0
346.712	1	-4
346.883	1	7
347.054	1	-2
347.225	1	-2
347.396	1	1
347.567	1	6
347.738	1	0
347.909	1	6
348.080	1	-12
348.251	1	-1
348.422	1	-9
348.593	1	0
348.764	1	-1
348.935	1	1
349.106	1	0
349.277	1	-7
349.448	1	-4
349.619	1	10
349.790	1	-5
349.961	1	4
350.132	1	-6
350.303	1	-16
350.474	1	2
350.645	1	-3
350.816	1	-10
350.987	1	-8
351.157	1	6
351.328	1	-9
351.499	1	6
351.670	1	11
351.841	1	0
352.012	1	-16
352.183	1	-4
352.354	1	3
352.525	1	-4
352.696	1	-1
352.867	1	2
353.038	1	7
353.209	1	5
353.380	1	-5
353.551	1	3
353.722	1	5
353.893	1	-5
354.064	1	4
354.235	1	-1
354.406	1	-6
354.576	1	0
354.747	1	-4
354.918	1	-13
355.089	1	0
355.260	1	2
355.431	1	6
355.602	1	0
355.773	1	-4
355.944	1	-3
356.115	1	-5
356.286	1	7
356.457	1	-15
356.628	1	-3
356.799	1	-3
356.970	1	-9
357.141	1	-6
357.311	1	1
357.482	1	-9
357.653	1	9
357.824	1	-7
357.995	1	0
358.166	1	1
358.337	1	2
358.508	1	0
358.679	1	4
358.850	1	-4
359.021	1	-7
359.192	1	1
359.363	1	12
359.533	1	-1
359.704	1	2
359.875	1	0
360.046	1	0
360.217	1	13
360.388	1	3
360.559	1	5
360.730	1	0
360.901	1	1
361.072	1	0
361.243	1	-1
361.414	1	12
361.584	1	-7
361.755	1	14
361.926	1	13
362.097	1	4
362.268	1	1
362.439	1	2
362.610	1	0
362.781	1	3
362.952	1	5
363.123	1	4
363.293	1	-2
363.464	1	13
363.635	1	-4
363.806	1	9
363.977	1	0
364.148	1	5
364.319	1	0
364.490	1	-2
364.661	1	0
364.832	1	10
365.002	1	10
365.173	1	8
365.344	1	5
365.515	1	5
365.686	1	3
365.857	1	1
366.028	1	8
366.199	1	3
366.370	1	4
366.540	1	12
366.711	1	10
366.882	1	12
367.053	1	3
367.224	1	6
367.395	1	4
367.566	1	14
367.737	1	-7
367.908	1	3
368.078	1	7
368.249	1	7
368.420	1	2
368.591	1	20
368.762	1	-2
368.933	1	11
369.104	1	8
369.274	1	4
369.445	1	-6
369.616	1	0
369.787	1	10
369.958	1	8
370.129	1	5
370.300	1	2
370.471	1	12
370.641	1	6
370.812	1	8
370.983	1	3
371.154	1	-5
371.325	1	3
371.496	1	1
371.667	1	-3
371.837	1	-1
372.008	1	0
372.179	1	9
372.350	1	3
372.521	1	6
372.692	1	0
372.863	1	4
373.033	1	8
373.204	1	2
373.375	1	-1
373.546	1	6
373.717	1	5
373.888	1	-6
374.059	1	-5
374.229	1	-10
374.400	1	7
374.571	1	-5
374.742	1	15
374.913	1	-5
375.084	1	-5
375.254	1	0
375.425	1	1
375.596	1	-5
375.767	1	3
375.938	1	-2
376.109	1	-3
376.279	1	-5
376.450	1	-6
376.621	1	8
376.792	1	-2
376.963	1	-3
377.134	1	-3
377.304	1	2
377.475	1	-1
377.646	1	-1
377.817	1	4
377.988	1	2
378.159	1	1
378.329	1	-4
378.500	1	-3
378.671	1	-2
378.842	1	-5
379.013	1	-1
379.184	1	1
379.354	1	-1
379.525	1	1
379.696	1	-10
379.867	1	12
380.038	1	6
380.209	1	9
380.379	1	-2
380.550	1	4
380.721	1	14
380.892	1	-1
381.063	1	1
381.233	1	9
381.404	1	1
381.575	1	-3
381.746	1	12
381.917	1	-8
382.087	1	3
382.258	1	20
382.429	1	2
382.600	1	3
382.771	1	10
382.941	1	5
383.112	1	7
383.283	1	9
383.454	1	3
383.625	1	9
383.795	1	9
383.966	1	-1
384.137	1	7
384.308	1	14
384.479	1	13
384.649	1	12
384.820	1	3
384.991	1	14
385.162	1	12
385.333	1	19
385.503	1	3
385.674	1	13
385.845	1	9
386.016	1	15
386.187	1	28
386.357	1	11
386.528	1	19
386.699	1	15
386.870	1	27
387.041	1	9
387.211	1	4
387.382	1	14
387.553	1	22
387.724	1	16
387.894	1	18
388.065	1	11
388.236	1	21
388.407	1	12
388.578	1	11
388.748	1	15
388.919	1	11
389.090	1	16
389.261	1	-8
389.431	1	20
389.602	1	12
389.773	1	-1
389.944	1	16
390.114	1	14
390.285	1	9
390.456	1	11
390.627	1	2
390.798	1	18
390.968	1	2
391.139	1	5
391.310	1	16
391.481	1	16
391.651	1	17
391.822	1	26
391.993	1	13
392.164	1	4
392.334	1	5
392.505	1	9
392.676	1	13
392.847	1	16
393.017	1	-2
393.188	1	14
393.359	1	19
393.530	1	13
393.700	1	23
393.871	1	0
394.042	1	9
394.213	1	11
394.383	1	14
394.554	1	15
394.725	1	0
394.896	1	3
395.066	1	21
395.237	1	17
395.408	1	13
395.579	1	14
395.749	1	16
395.920	1	13
396.091	1	20
396.262	1	12
396.432	1	2
396.603	1	10
396.774	1	16
396.945	1	14
397.115	1	19
397.286	1	33
397.457	1	4
397.627	1	13
397.798	1	8
397.969	1	14
398.140	1	17
398.310	1	17
398.481	1	12
398.652	1	14
398.823	1	23
398.993	1	7
399.164	1	19
399.335	1	4
399.505	1	8
399.676	1	9
399.847	1	9
400.018	1	17
400.188	1	21
400.359	1	12
400.530	1	22
400.700	1	8
400.871	1	2
401.042	1	3
401.213	1	3
401.383	1	11
401.554	1	15
401.725	1	6
401.895	1	14
402.066	1	13
402.237	1	9
402.408	1	11
402.578	1	10
402.749	1	0
402.920	1	0
403.090	1	12
403.261	1	6
403.432	1	13
403.603	1	9
403.773	1	17
403.944	1	11
404.115	1	2
404.285	1	3
404.456	1	12
404.627	1	10
404.797	1	29
404.968	1	2
405.139	1	13
405.310	1	8
405.480	1	8
405.651	1	9
405.822	1	8
405.992	1	10
406.163	1	18
406.334	1	6
406.504	1	9
406.675	1	17
406.846	1	2
407.016	1	6
407.187	1	8
407.358	1	6
407.528	1	9
407.699	1	10
407.870	1	9
408.041	1	3
408.211	1	6
408.382	1	15
408.553	1	11
408.723	1	-2
408.894	1	-3
409.065	1	14
409.235	1	0
409.406	1	12
409.577	1	5
409.747	1	2
409.918	1	7
410.089	1	4
410.259	1	4
410.430	1	-2
410.601	1	0
410.771	1	5
410.942	1	13
411.113	1	9
411.283	1	8
411.454	1	4
411.625	1	4
411.795	1	10
411.966	1	2
412.137	1	5
412.307	1	4
412.478	1	16
412.649	1	8
412.819	1	9
412.990	1	21
413.161	1	7
413.331	1	-1
413.502	1	20
413.672	1	3
413.843	1	1
414.014	1	12
414.184	1	7
414.355	1	-6
414.526	1	-5
414.696	1	6
414.867	1	16
415.038	1	10
415.208	1	0
415.379	1	3
415.550	1	1
415.720	1	5
415.891	1	13
416.062	1	7
416.232	1	6
416.403	1	2
416.573	1	-8
416.744	1	6
416.915	1	7
417.085	1	-6
417.256	1	-1
417.427	1	6
417.597	1	-1
417.768	1	4
417.939	1	-2
418.109	1	5
418.280	1	-1
418.450	1	-7
418.621	1	-4
418.792	1	-1
418.962	1	1
419.133	1	1
419.304	1	8
419.474	1	1
419.645	1	21
419.815	1	0
419.986	1	11
420.157	1	8
420.327	1	5
420.498	1	3
420.669	1	-3
420.839	1	-1
421.010	1	5
421.180	1	-2
421.351	1	4
421.522	1	6
421.692	1	8
421.863	1	0
422.033	1	-10
422.204	1	-10
422.375	1	0
422.545	1	7
422.716	1	10
422.886	1	10
423.057	1	0
423.228	1	-3
423.398	1	6
423.569	1	1
423.740	1	-1
423.910	1	-13
424.081	1	9
424.251	1	-5
424.422	1	8
424.593	1	11
424.763	1	7
424.934	1	6
425.104	1	10
425.275	1	-8
425.445	1	2
425.616	1	17
425.787	1	-12
425.957	1	8
426.128	1	7
426.298	1	3
426.469	1	6
426.640	1	2
426.810	1	9
426.981	1	-5
427.151	1	2
427.322	1	5
427.493	1	0
427.663	1	5
427.834	1	-1
428.004	1	4
428.175	1	2
428.345	1	9
428.516	1	4
428.687	1	0
428.857	1	-3
429.028	1	-2
429.198	1	-5
429.369	1	11
429.540	1	6
429.710	1	-5
429.881	1	9
430.051	1	7
430.222	1	0
430.392	1	3
430.563	1	2
430.734	1	0
430.904	1	-5
431.075	1	-1
431.245	1	10
431.416	1	11
431.586	1	-4
431.757	1	4
431.927	1	0
432.098	1	-7
432.269	1	-10
432.439	1	0
432.610	1	-1
432.780	1	-3
432.951	1	-4
433.121	1	6
433.292	1	3
433.462	1	-2
433.633	1	0
433.804	1	-8
433.974	1	-7
434.145	1	3
434.315	1	1
434.486	1	-1
434.656	1	4
434.827	1	1
434.997	1	8
435.168	1	1
435.339	1	1
435.509	1	5
435.680	1	-14
435.850	1	4
436.021	1	1
436.191	1	5
436.362	1	-5
436.532	1	5
436.703	1	16
436.873	1	-3
437.044	1	8
437.214	1	-1
437.385	1	6
437.556	1	-8
437.726	1	0
437.897	1	-2
438.067	1	0
438.238	1	-5
438.408	1	0
438.579	1	6
438.749	1	6
438.920	1	-1
439.090	1	8
439.261	1	8
439.431	1	-2
439.602	1	-2
439.772	1	-3
439.943	1	-4
440.113	1	1
440.284	1	4
440.455	1	-7
440.625	1	2
440.796	1	10
440.966	1	13
441.137	1	-10
441.307	1	1
441.478	1	3
441.648	1	-9
441.819	1	2
441.989	1	-3
442.160	1	13
442.330	1	3
442.501	1	-3
442.671	1	0
442.842	1	5
443.012	1	-6
443.183	1	2
443.353	1	-3
443.524	1	-2
443.694	1	10
443.865	1	-5
444.035	1	6
444.206	1	6
444.376	1	3
444.547	1	-5
444.717	1	12
444.888	1	-2
445.058	1	1
445.229	1	-1
445.399	1	5
445.570	1	3
445.740	1	-4
445.911	1	10
446.081	1	6
446.252	1	-2
446.422	1	4
446.593	1	5
446.763	1	11
446.934	1	2
447.104	1	-4
447.275	1	0
447.445	1	1
447.616	1	-8
447.786	1	0
447.957	1	5
448.127	1	-1
448.298	1	0
448.468	1	-4
448.639	1	2
448.809	1	-1
448.979	1	8
449.150	1	-4
449.320	1	0
449.491	1	0
449.661	1	5
449.832	1	1
450.002	1	-7
450.173	1	-4
450.343	1	2
450.514	1	-6
450.684	1	7
450.855	1	9
451.025	1	-2
451.196	1	-8
451.366	1	4
451.537	1	4
451.707	1	-4
451.878	1	-4
452.048	1	-4
452.218	1	-3
452.389	1	-3
452.559	1	3
452.730	1	6
452.900	1	-6
453.071	1	1
453.241	1	-6
453.412	1	-9
453.582	1	4
453.753	1	0
453.923	1	-6
454.093	1	8
454.264	1	-7
454.434	1	5
454.605	1	-6
454.775	1	3
454.946	1	-3
455.116	1	-2
455.287	1	5
455.457	1	-8
455.628	1	3
455.798	1	7
455.968	1	6
456.139	1	6
456.309	1	1
456.480	1	-4
456.650	1	-9
456.821	1	8
456.991	1	13
457.161	1	3
457.332	1	8
457.502	1	-8
457.673	1	2
457.843	1	4
458.014	1	-1
458.184	1	7
458.355	1	3
458.525	1	-1
458.695	1	0
458.866	1	-6
459.036	1	7
459.207	1	1
459.377	1	-6
459.548	1	-9
459.718	1	5
459.888	1	-10
460.059	1	9
460.229	1	11
460.400	1	7
460.570	1	-7
460.740	1	-6
460.911	1	15
461.081	1	1
461.252	1	-1
461.422	1	8
461.593	1	0
461.763	1	-4
461.933	1	-1
462.104	1	-1
462.274	1	-5
462.445	1	-5
462.615	1	-1
462.785	1	-1
462.956	1	1
463.126	1	-1
463.297	1	-5
463.467	1	2
463.638	1	0
463.808	1	4
463.978	1	6
464.149	1	-1
464.319	1	0
464.490	1	2
464.660	1	5
464.830	1	0
465.001	1	6
465.171	1	4
465.342	1	-2
465.512	1	6
465.682	1	4
465.853	1	-5
466.023	1	0
466.194	1	6
466.364	1	8
466.534	1	4
466.705	1	2
466.875	1	5
467.045	1	9
467.216	1	1
467.386	1	-3
467.557	1	4
467.727	1	-2
467.897	1	9
468.068	1	5
468.238	1	-6
468.409	1	3
468.579	1	7
468.749	1	5
468.920	1	-6
469.090	1	4
469.260	1	5
469.431	1	-1
469.601	1	12
469.772	1	-16
469.942	1	3
470.112	1	0
470.283	1	6
470.453	1	-1
470.623	1	-1
470.794	1	1
470.964	1	-11
471.135	1	-7
471.305	1	-4
471.475	1	-5
471.646	1	9
471.816	1	2
471.986	1	2
472.157	1	9
472.327	1	6
472.497	1	-5
472.668	1	0
472.838	1	0
473.009	1	5
473.179	1	-10
473.349	1	0
473.520	1	2
473.690	1	10
473.860	1	7
474.031	1	3
474.201	1	-9
474.371	1	-2
474.542	1	-8
474.712	1	9
474.882	1	-6
475.053	1	-21
475.223	1	-2
475.394	1	6
475.564	1	15
475.734	1	8
475.905	1	-5
476.075	1	1
476.245	1	-13
476.416	1	0
476.586	1	-1
476.756	1	-1
476.927	1	11
477.097	1	0
477.267	1	3
477.438	1	-2
477.608	1	1
477.778	1	12
477.949	1	-2
478.119	1	0
478.289	1	9
478.460	1	-10
478.630	1	-2
478.800	1	-6
478.971	1	2
479.141	1	6
479.311	1	3
479.482	1	-3
479.652	1	8
479.822	1	-3
479.993	1	-6
480.163	1	-8
480.333	1	3
480.504	1	-3
480.674	1	9
480.844	1	8
481.015	1	3
481.185	1	14
481.355	1	7
481.525	1	-9
481.696	1	3
481.866	1	-7
482.036	1	-6
482.207	1	2
482.377	1	3
482.547	1	-3
482.718	1	8
482.888	1	-8
483.058	1	-8
483.229	1	5
483.399	1	1
483.569	1	0
483.740	1	-14
483.910	1	2
484.080	1	-7
484.250	1	3
484.421	1	-1
484.591	1	0
484.761	1	-16
484.932	1	7
485.102	1	-4
485.272	1	3
485.443	1	12
485.613	1	-13
485.783	1	6
485.953	1	4
486.124	1	13
486.294	1	4
486.464	1	-6
486.635	1	13
486.805	1	12
486.975	1	-13
487.146	1	2
487.316	1	7
487.486	1	3
487.656	1	-4
487.827	1	1
487.997	1	8
488.167	1	3
488.338	1	12
488.508	1	-2
488.678	1	1
488.848	1	2
489.019	1	-4
489.189	1	1
489.359	1	8
489.529	1	-2
489.700	1	2
489.870	1	-8
490.040	1	1
490.211	1	4
490.381	1	-8
490.551	1	-6
490.721	1	-4
490.892	1	-2
491.062	1	12
491.232	1	4
491.402	1	-4
491.573	1	4
491.743	1	-2
491.913	1	9
492.084	1	8
492.254	1	-4
492.424	1	-8
492.594	1	1
492.765	1	11
492.935	1	-8
493.105	1	9
493.275	1	3
493.446	1	2
493.616	1	2
493.786	1	4
493.956	1	1
494.127	1	-4
494.297	1	4
494.467	1	6
494.637	1	0
494.808	1	-2
494.978	1	-1
495.148	1	10
495.318	1	15
495.489	1	4
495.659	1	6
495.829	1	3
495.999	1	5
496.170	1	2
496.340	1	1
496.510	1	-2
496.680	1	-1
496.851	1	10
497.021	1	2
497.191	1	4
497.361	1	4
497.532	1	2
497.702	1	-8
497.872	1	5
498.042	1	8
498.213	1	7
498.383	1	2
498.553	1	7
498.723	1	5
498.894	1	2
499.064	1	12
499.234	1	3
499.404	1	8
499.574	1	-8
499.745	1	3
499.915	1	4
500.085	1	-7
500.255	1	3
500.426	1	-2
500.596	1	3
500.766	1	12
500.936	1	-2
501.106	1	5
501.277	1	3
501.447	1	8
501.617	1	5
501.787	1	-2
501.958	1	-1
502.128	1	-3
502.298	1	6
502.468	1	11
502.638	1	8
502.809	1	9
502.979	1	3
503.149	1	8
503.319	1	0
503.489	1	5
503.660	1	1
503.830	1	-1
504.000	1	0
504.170	1	6
504.340	1	10
504.511	1	6
504.681	1	2
504.851	1	2
505.021	1	-1
505.192	1	15
505.362	1	6
505.532	1	-6
505.702	1	4
505.872	1	-7
506.043	1	1
506.213	1	13
506.383	1	5
506.553	1	10
506.723	1	0
506.893	1	3
507.064	1	-10
507.234	1	17
507.404	1	4
507.574	1	4
507.744	1	-4
507.915	1	5
508.085	1	3
508.255	1	3
508.425	1	9
508.595	1	4
508.766	1	-4
508.936	1	3
509.106	1	-7
509.276	1	10
509.446	1	2
509.616	1	11
509.787	1	1
509.957	1	-5
510.127	1	3
510.297	1	0
510.467	1	9
510.638	1	-1
510.808	1	1
510.978	1	-12
511.148	1	17
511.318	1	6
511.488	1	10
511.659	1	1
511.829	1	1
511.999	1	12
512.169	1	3
512.339	1	2
512.509	1	7
512.680	1	2
512.850	1	-1
513.020	1	1
513.190	1	-6
513.360	1	7
513.530	1	-1
513.700	1	6
513.871	1	11
514.041	1	4
514.211	1	-8
514.381	1	11
514.551	1	-2
514.721	1	8
514.892	1	3
515.062	1	17
515.232	1	8
515.402	1	-3
515.572	1	2
515.742	1	5
515.912	1	8
516.083	1	1
516.253	1	11
516.423	1	9
516.593	1	7
516.763	1	4
516.933	1	0
517.104	1	10
517.274	1	2
517.444	1	8
517.614	1	-1
517.784	1	1
517.954	1	3
518.124	1	7
518.294	1	15
518.465	1	11
518.635	1	3
518.805	1	4
518.975	1	8
519.145	1	8
519.315	1	0
519.485	1	2
519.656	1	3
519.826	1	2
519.996	1	15
520.166	1	17
520.336	1	9
520.506	1	8
520.676	1	1
520.846	1	3
521.017	1	-2
521.187	1	7
521.357	1	-3
521.527	1	2
521.697	1	6
521.867	1	12
522.037	1	-1
522.207	1	13
522.377	1	16
522.548	1	11
522.718	1	-2
522.888	1	-6
523.058	1	17
523.228	1	17
523.398	1	10
523.568	1	-5
523.738	1	7
523.909	1	17
524.079	1	12
524.249	1	10
524.419	1	2
524.589	1	4
524.759	1	5
524.929	1	13
525.099	1	5
525.269	1	11
525.439	1	-5
525.610	1	5
525.780	1	12
525.950	1	7
526.120	1	4
526.290	1	-4
526.460	1	12
526.630	1	2
526.800	1	9
526.970	1	-1
527.140	1	4
527.311	1	6
527.481	1	9
527.651	1	12
527.821	1	7
527.991	1	3
528.161	1	2
528.331	1	7
528.501	1	-1
528.671	1	6
528.841	1	17
529.011	1	2
529.181	1	0
529.352	1	6
529.522	1	9
529.692	1	9
529.862	1	7
530.032	1	0
530.202	1	11
530.372	1	5
530.542	1	11
530.712	1	23
530.882	1	7
531.052	1	9
531.222	1	0
531.392	1	-4
531.563	1	16
531.733	1	6
531.903	1	16
532.073	1	3
532.243	1	0
532.413	1	5
532.583	1	1
532.753	1	9
532.923	1	-1
533.093	1	7
533.263	1	0
533.433	1	13
533.603	1	6
533.773	1	5
533.943	1	2
534.113	1	7
534.284	1	5
534.454	1	8
534.624	1	6
534.794	1	1
534.964	1	-3
535.134	1	3
535.304	1	22
535.474	1	2
535.644	1	1
535.814	1	13
535.984	1	3
536.154	1	7
536.324	1	11
536.494	1	1
536.664	1	14
536.834	1	7
537.004	1	10
537.174	1	8
537.344	1	15
537.514	1	14
537.685	1	8
537.855	1	11
538.025	1	0
538.195	1	17
538.365	1	7
538.535	1	15
538.705	1	-4
538.875	1	5
539.045	1	1
539.215	1	-4
539.385	1	3
539.555	1	8
539.725	1	8
539.895	1	12
540.065	1	-10
540.235	1	6
540.405	1	7
540.575	1	1
540.745	1	3
540.915	1	11
541.085	1	1
541.255	1	-3
541.425	1	-5
541.595	1	-2
541.765	1	3
541.935	1	10
542.105	1	10
542.275	1	-3
542.445	1	16
542.615	1	3
542.785	1	8
542.955	1	7
543.125	1	7
543.295	1	9
543.465	1	16
543.635	1	6
543.805	1	12
543.975	1	5
544.145	1	2
544.315	1	4
544.485	1	7
544.655	1	4
544.825	1	9
544.995	1	7
545.165	1	9
545.335	1	6
545.505	1	3
545.675	1	11
545.845	1	3
546.015	1	6
546.185	1	-1
546.355	1	1
546.525	1	12
546.695	1	-2
546.865	1	-4
547.035	1	11
547.205	1	7
547.375	1	16
547.545	1	7
547.715	1	0
547.885	1	14
548.055	1	4
548.225	1	6
548.395	1	4
548.565	1	11
548.735	1	10
548.905	1	1
549.075	1	-2
549.245	1	11
549.415	1	-4
549.585	1	16
549.755	1	-1
549.925	1	12
550.095	1	0
550.265	1	-6
550.435	1	9
550.605	1	2
550.775	1	3
550.945	1	12
551.115	1	-5
551.285	1	8
551.455	1	9
551.625	1	1
551.795	1	2
551.965	1	3
552.135	1	2
552.305	1	4
552.475	1	4
552.645	1	19
552.815	1	2
552.985	1	3
553.155	1	7
553.325	1	16
553.495	1	1
553.665	1	0
553.835	1	4
554.004	1	5
554.174	1	-2
554.344	1	-1
554.514	1	10
554.684	1	14
554.854	1	5
555.024	1	4
555.194	1	11
555.364	1	9
555.534	1	11
555.704	1	4
555.874	1	3
556.044	1	11
556.214	1	-1
556.384	1	4
556.554	1	4
556.724	1	0
556.894	1	10
557.064	1	7
557.234	1	-2
557.404	1	0
557.573	1	5
557.743	1	5
557.913	1	10
558.083	1	-8
558.253	1	2
558.423	1	-17
558.593	1	-1
558.763	1	-4
558.933	1	12
559.103	1	5
559.273	1	-2
559.443	1	-7
559.613	1	10
559.783	1	1
559.953	1	-6
560.122	1	-3
560.292	1	10
560.462	1	5
560.632	1	3
560.802	1	3
560.972	1	13
561.142	1	10
561.312	1	10
561.482	1	3
561.652	1	2
561.822	1	4
561.992	1	8
562.162	1	3
562.331	1	8
562.501	1	3
562.671	1	6
562.841	1	-1
563.011	1	3
563.181	1	7
563.351	1	3
563.521	1	11
563.691	1	2
563.861	1	8
564.031	1	-2
564.201	1	5
564.370	1	8
564.540	1	14
564.710	1	-8
564.880	1	-2
565.050	1	15
565.220	1	-3
565.390	1	-5
565.560	1	12
565.730	1	0
565.900	1	2
566.069	1	16
566.239	1	1
566.409	1	1
566.579	1	5
566.749	1	10
566.919	1	15
567.089	1	-6
567.259	1	10
567.429	1	3
567.599	1	-3
567.768	1	7
567.938	1	8
568.108	1	-4
568.278	1	-8
568.448	1	1
568.618	1	5
568.788	1	-7
568.958	1	3
569.128	1	4
569.297	1	4
569.467	1	8
569.637	1	5
569.807	1	8
569.977	1	10
570.147	1	0
570.317	1	17
570.487	1	1
570.656	1	5
570.826	1	5
570.996	1	1
571.166	1	-6
571.336	1	3
571.506	1	3
571.676	1	11
571.846	1	8
572.015	1	-7
572.185	1	5
572.355	1	14
572.525	1	2
572.695	1	0
572.865	1	8
573.035	1	6
573.205	1	11
573.374	1	1
573.544	1	-3
573.714	1	11
573.884	1	-2
574.054	1	-1
574.224	1	-1
574.394	1	1
574.563	1	4
574.733	1	8
574.903	1	9
575.073	1	-2
575.243	1	-7
575.413	1	5
575.583	1	9
575.752	1	7
575.922	1	0
576.092	1	0
576.262	1	2
576.432	1	-5
576.602	1	7
576.772	1	4
576.941	1	-3
577.111	1	8
577.281	1	-4
577.451	1	-6
577.621	1	5
577.791	1	6
577.960	1	2
578.130	1	-4
578.300	1	0
578.470	1	7
578.640	1	-5
578.810	1	10
578.979	1	4
579.149	1	2
579.319	1	-3
579.489	1	6
579.659	1	9
579.829	1	16
579.998	1	-1
580.168	1	2
580.338	1	-22
580.508	1	-3
580.678	1	-1
580.848	1	2
581.017	1	3
581.187	1	3
581.357	1	-7
581.527	1	8
581.697	1	-3
581.867	1	-2
582.036	1	4
582.206	1	-12
582.376	1	-4
582.546	1	4
582.716	1	15
582.885	1	-7
583.055	1	6
583.225	1	1
583.395	1	3
583.565	1	5
583.735	1	-2
583.904	1	10
584.074	1	-7
584.244	1	-2
584.414	1	-4
584.584	1	14
584.753	1	4
584.923	1	0
585.093	1	3
585.263	1	5
585.433	1	6
585.602	1	4
585.772	1	-1
585.942	1	2
586.112	1	1
586.282	1	2
586.451	1	7
586.621	1	2
586.791	1	1
586.961	1	4
587.131	1	-1
587.300	1	-6
587.470	1	4
587.640	1	-6
587.810	1	1
587.980	1	2
588.149	1	9
588.319	1	-3
588.489	1	5
588.659	1	-8
588.829	1	-1
588.998	1	-10
589.168	1	6
589.338	1	5
589.508	1	-3
589.677	1	10
589.847	1	0
590.017	1	-4
590.187	1	-1
590.357	1	0
590.526	1	1
590.696	1	-4
590.866	1	2
591.036	1	14
591.205	1	9
591.375	1	-1
591.545	1	-8
591.715	1	-10
591.885	1	6
592.054	1	-2
592.224	1	12
592.394	1	17
592.564	1	1
592.733	1	1
592.903	1	6
593.073	1	3
593.243	1	-3
593.412	1	3
593.582	1	17
593.752	1	3
593.922	1	-4
594.091	1	2
594.261	1	10
594.431	1	1
594.601	1	-9
594.771	1	-1
594.940	1	4
595.110	1	6
595.280	1	1
595.450	1	6
595.619	1	-2
595.789	1	0
595.959	1	-1
596.129	1	-5
596.298	1	0
596.468	1	1
596.638	1	4
596.808	1	4
596.977	1	-7
597.147	1	1
597.317	1	4
597.487	1	-3
597.656	1	7
597.826	1	1
597.996	1	2
598.166	1	5
598.335	1	-1
598.505	1	-3
598.675	1	4
598.844	1	-2
599.014	1	1
599.184	1	-6
599.354	1	-7
599.523	1	-10
599.693	1	13
599.863	1	6
600.033	1	-1
600.202	1	3
600.372	1	-3
600.542	1	-1
600.712	1	5
600.881	1	0
601.051	1	20
601.221	1	0
601.390	1	-4
601.560	1	-1
601.730	1	0
601.900	1	-1
602.069	1	-6
602.239	1	-1
602.409	1	6
602.578	1	-5
602.748	1	-3
602.918	1	2
603.088	1	10
603.257	1	3
603.427	1	-4
603.597	1	21
603.767	1	-4
603.936	1	11
604.106	1	-1
604.276	1	-3
604.445	1	7
604.615	1	-1
604.785	1	9
604.954	1	0
605.124	1	-3
605.294	1	3
605.464	1	2
605.633	1	11
605.803	1	0
605.973	1	0
606.142	1	-4
606.312	1	-6
606.482	1	-3
606.652	1	-16
606.821	1	9
606.991	1	3
607.161	1	-1
607.330	1	12
607.500	1	10
607.670	1	3
607.839	1	-5
608.009	1	-6
608.179	1	-2
608.348	1	5
608.518	1	2
608.688	1	3
608.858	1	12
609.027	1	6
609.197	1	-3
609.367	1	-11
609.536	1	3
609.706	1	-2
609.876	1	-6
610.045	1	1
610.215	1	-6
610.385	1	3
610.554	1	0
610.724	1	2
610.894	1	4
611.063	1	15
611.233	1	-6
611.403	1	1
611.572	1	4
611.742	1	-7
611.912	1	1
612.081	1	-2
612.251	1	3
612.421	1	13
612.590	1	-4
612.760	1	8
612.930	1	1
613.099	1	-7
613.269	1	0
613.439	1	1
613.608	1	4
613.778	1	5
613.948	1	11
614.117	1	21
614.287	1	-12
614.457	1	0
614.626	1	5
614.796	1	4
614.966	1	1
615.135	1	-4
615.305	1	-2
615.475	1	8
615.644	1	-7
615.814	1	5
615.984	1	7
616.153	1	3
616.323	1	-3
616.493	1	3
616.662	1	1
616.832	1	-1
617.002	1	-8
617.171	1	-2
617.341	1	4
617.511	1	-8
617.680	1	1
617.850	1	0
618.019	1	-2
618.189	1	2
618.359	1	10
618.528	1	-5
618.698	1	-3
618.868	1	3
619.037	1	9
619.207	1	-6
619.377	1	-3
619.546	1	2
619.716	1	-6
619.885	1	-7
620.055	1	4
620.225	1	4
620.394	1	-11
620.564	1	5
620.734	1	4
620.903	1	6
621.073	1	-4
621.242	1	-8
621.412	1	14
621.582	1	-4
621.751	1	-9
621.921	1	2
622.091	1	-11
622.260	1	-9
622.430	1	17
622.599	1	11
622.769	1	0
622.939	1	1
623.108	1	3
623.278	1	-6
623.448	1	-8
623.617	1	6
623.787	1	-11
623.956	1	4
624.126	1	6
624.296	1	4
624.465	1	5
624.635	1	6
624.804	1	-3
624.974	1	-7
625.144	1	-4
625.313	1	0
625.483	1	7
625.652	1	5
625.822	1	10
625.992	1	-9
626.161	1	-1
626.331	1	8
626.501	1	3
626.670	1	8
626.840	1	9
627.009	1	-13
627.179	1	-1
627.348	1	-3
627.518	1	11
627.688	1	6
627.857	1	14
628.027	1	0
628.196	1	4
628.366	1	14
628.536	1	2
628.705	1	-8
628.875	1	-1
629.044	1	8
629.214	1	6
629.384	1	-8
629.553	1	6
629.723	1	-3
629.892	1	0
630.062	1	2
630.232	1	19
630.401	1	1
630.571	1	-8
630.740	1	4
630.910	1	-3
631.079	1	9
631.249	1	3
631.419	1	-1
631.588	1	-1
631.758	1	3
631.927	1	1
632.097	1	8
632.266	1	-10
632.436	1	-11
632.606	1	6
632.775	1	-1
632.945	1	-3
633.114	1	9
633.284	1	-13
633.453	1	-1
633.623	1	-2
633.793	1	-8
633.962	1	10
634.132	1	4
634.301	1	-3
634.471	1	-6
634.640	1	5
634.810	1	-4
634.979	1	3
635.149	1	1
635.319	1	0
635.488	1	12
635.658	1	-3
635.827	1	2
635.997	1	-3
636.166	1	8
636.336	1	11
636.505	1	3
636.675	1	-1
636.845	1	5
637.014	1	4
637.184	1	-4
637.353	1	4
637.523	1	4
637.692	1	-1
637.862	1	-2
638.031	1	11
638.201	1	8
638.370	1	-4
638.540	1	-7
638.710	1	0
638.879	1	0
639.049	1	0
639.218	1	-3
639.388	1	14
639.557	1	2
639.727	1	0
639.896	1	8
640.066	1	9
640.235	1	5
640.405	1	-4
640.574	1	-3
640.744	1	-8
640.914	1	6
641.083	1	-1
641.253	1	-8
641.422	1	-14
641.592	1	0
641.761	1	1
641.931	1	7
642.100	1	-10
642.270	1	-2
642.439	1	4
642.609	1	-2
642.778	1	3
642.948	1	1
643.117	1	3
643.287	1	10
643.456	1	7
643.626	1	6
643.795	1	0
643.965	1	-7
644.134	1	0
644.304	1	2
644.473	1	-5
644.643	1	4
644.812	1	8
644.982	1	7
645.151	1	-2
645.321	1	10
645.490	1	-2
645.660	1	-9
645.829	1	0
645.999	1	-1
646.168	1	-8
646.338	1	2
646.507	1	7
646.677	1	-2
646.846	1	8
647.016	1	-1
647.185	1	3
647.355	1	-5
647.524	1	0
647.694	1	4
647.863	1	-8
648.033	1	-4
648.202	1	6
648.372	1	10
648.541	1	-5
648.711	1	6
648.880	1	6
649.050	1	6
649.219	1	-1
649.389	1	1
649.558	1	-5
649.728	1	8
649.897	1	-10
650.067	1	1
650.236	1	8
650.406	1	3
650.575	1	0
650.745	1	-11
650.914	1	-3
651.084	1	-7
651.253	1	5
651.423	1	3
651.592	1	-4
651.762	1	14
651.931	1	-3
652.101	1	7
652.270	1	8
652.440	1	-3
652.609	1	-1
652.778	1	-9
652.948	1	0
653.117	1	-6
653.287	1	15
653.456	1	2
653.626	1	4
653.795	1	6
653.965	1	16
654.134	1	12
654.304	1	11
654.473	1	-3
654.643	1	26
654.812	1	-5
654.982	1	-13
655.151	1	-6
655.320	1	-5
655.490	1	16
655.659	1	-2
655.829	1	-6
655.998	1	10
656.168	1	0
656.337	1	-10
656.507	1	2
656.676	1	-4
656.846	1	-12
657.015	1	-7
657.184	1	7
657.354	1	1
657.523	1	-9
657.693	1	5
657.862	1	10
658.032	1	8
658.201	1	-4
658.371	1	-17
658.540	1	0
658.709	1	-9
658.879	1	-16
659.048	1	12
659.218	1	2
659.387	1	-5
659.557	1	0
659.726	1	-6
659.895	1	1
660.065	1	0
660.234	1	-2
660.404	1	4
660.573	1	-10
660.743	1	-12
660.912	1	-7
661.081	1	7
661.251	1	4
661.420	1	-14
661.590	1	9
661.759	1	0
661.929	1	0
662.098	1	-18
662.267	1	-2
662.437	1	9
662.606	1	-1
662.776	1	13
662.945	1	1
663.115	1	-12
663.284	1	1
663.453	1	7
663.623	1	-2
663.792	1	1
663.962	1	-12
664.131	1	-1
664.300	1	7
664.470	1	3
664.639	1	7
664.809	1	5
664.978	1	-8
665.148	1	7
665.317	1	-4
665.486	1	-1
665.656	1	-14
665.825	1	5
665.995	1	7
666.164	1	-4
666.333	1	12
666.503	1	1
666.672	1	-9
666.842	1	-9
667.011	1	11
667.180	1	3
667.350	1	-2
667.519	1	0
667.689	1	-1
667.858	1	-2
668.027	1	-3
668.197	1	8
668.366	1	1
668.536	1	-2
668.705	1	-3
668.874	1	5
669.044	1	2
669.213	1	14
669.382	1	-4
669.552	1	8
669.721	1	-11
669.891	1	9
670.060	1	10
670.229	1	0
670.399	1	8
670.568	1	0
670.738	1	-4
670.907	1	-9
671.076	1	2
671.246	1	-8
671.415	1	3
671.584	1	-1
671.754	1	-3
671.923	1	-2
672.093	1	10
672.262	1	1
672.431	1	-10
672.601	1	2
672.770	1	6
672.939	1	-9
673.109	1	-5
673.278	1	2
673.448	1	-1
673.617	1	6
673.786	1	-8
