325.333	1	2
325.504	1	7
325.675	1	-5
325.846	1	-3
326.017	1	-2
326.188	1	10
326.359	1	-3
326.531	1	-6
326.702	1	0
326.873	1	6
327.044	1	4
327.215	1	-5
327.386	1	-6
327.557	1	-4
327.728	1	1
327.899	1	-9
328.070	1	5
328.241	1	8
328.412	1	8
328.583	1	-7
328.754	1	-3
328.926	1	-2
329.097	1	1
329.268	1	-2
329.439	1	-1
329.610	1	0
329.781	1	-1
329.952	1	8
330.123	1	5
330.294	1	11
330.465	1	-3
330.636	1	4
330.807	1	6
330.978	1	0
331.149	1	4
331.320	1	5
331.492	1	-3
331.663	1	-3
331.834	1	5
332.005	1	3
332.176	1	2
332.347	1	0
332.518	1	-1
332.689	1	8
332.860	1	-2
333.031	1	7
333.202	1	2
333.373	1	3
333.544	1	-8
333.715	1	-8
333.886	1	-1
334.057	1	-12
334.228	1	-7
334.399	1	1
334.570	1	4
334.741	1	-7
334.912	1	-14
335.084	1	-5
335.255	1	-1
335.426	1	-3
335.597	1	-6
335.768	1	4
335.939	1	0
336.110	1	-6
336.281	1	-9
336.452	1	0
336.623	1	7
336.794	1	-2
336.965	1	-1
337.136	1	-4
337.307	1	7
337.478	1	6
337.649	1	0
337.820	1	12
337.991	1	3
338.162	1	1
338.333	1	3
338.504	1	2
338.675	1	2
338.846	1	-4
339.017	1	-5
339.188	1	-5
339.359	1	2
339.530	1	-2
339.701	1	-7
339.872	1	-3
340.043	1	6
340.214	1	2
340.385	1	-3
340.556	1	-2
340.727	1	2
340.898	1	-3
341.069	1	-1
341.240	1	2
341.411	1	6
341.582	1	3
341.753	1	-1
341.924	1	1
342.095	1	0
342.266	1	-9
342.437	1	7
342.608	1	-5
342.779	1	-10
342.950	1	0
343.121	1	14
343.292	1	-3
343.463	1	-5
343.634	1	-7
343.805	1	10
343.976	1	4
344.147	1	2
344.318	1	3
344.489	1	-9
344.660	1	8
344.831	1	-5
345.002	1	8
345.173	1	-2
345.344	1	1
345.515	1	-4
345.686	1	7
345.857	1	-4
346.028	1	-4
346.199	1	-4
346.370	1	-4
346.541	1	-6
346.712	1	7
346.883	1	-15
347.054	1	1
347.225	1	-14
347.396	1	1
347.567	1	-3
347.738	1	3
347.909	1	7
348.080	1	-8
348.251	1	2
348.422	1	-2
348.593	1	0
348.764	1	0
348.935	1	13
349.106	1	-1
349.277	1	-8
349.448	1	-5
349.619	1	3
349.790	1	-4
349.961	1	6
350.132	1	-9
350.303	1	-4
350.474	1	-5
350.645	1	6
350.816	1	-9
350.987	1	-10
351.157	1	13
351.328	1	-9
351.499	1	-2
351.670	1	2
351.841	1	-4
352.012	1	-13
352.183	1	-13
352.354	1	-4
352.525	1	3
352.696	1	-3
352.867	1	0
353.038	1	19
353.209	1	3
353.380	1	4
353.551	1	1
353.722	1	6
353.893	1	8
354.064	1	3
354.235	1	8
354.406	1	-10
354.576	1	2
354.747	1	-3
354.918	1	-9
355.089	1	-2
355.260	1	-8
355.431	1	7
355.602	1	6
355.773	1	-5
355.944	1	5
356.115	1	-6
356.286	1	4
356.457	1	-7
356.628	1	0
356.799	1	0
356.970	1	-2
357.141	1	-5
357.311	1	0
357.482	1	-1
357.653	1	0
357.824	1	1
357.995	1	4
358.166	1	-7
358.337	1	-1
358.508	1	-4
358.679	1	11
358.850	1	10
359.021	1	-11
359.192	1	10
359.363	1	0
359.533	1	-3
359.704	1	-7
359.875	1	0
360.046	1	5
360.217	1	5
360.388	1	4
360.559	1	-1
360.730	1	-4
360.901	1	3
361.072	1	11
361.243	1	6
361.414	1	11
361.584	1	7
361.755	1	7
361.926	1	8
362.097	1	1
362.268	1	5
362.439	1	3
362.610	1	-6
362.781	1	8
362.952	1	3
363.123	1	7
363.293	1	1
363.464	1	13
363.635	1	4
363.806	1	8
363.977	1	1
364.148	1	6
364.319	1	6
364.490	1	8
364.661	1	7
364.832	1	3
365.002	1	10
365.173	1	11
365.344	1	6
365.515	1	4
365.686	1	4
365.857	1	14
366.028	1	3
366.199	1	9
366.370	1	8
366.540	1	10
366.711	1	19
366.882	1	0
367.053	1	18
367.224	1	15
367.395	1	15
367.566	1	6
367.737	1	-2
367.908	1	21
368.078	1	11
368.249	1	8
368.420	1	-1
368.591	1	20
368.762	1	0
368.933	1	18
369.104	1	6
369.274	1	15
369.445	1	1
369.616	1	4
369.787	1	8
369.958	1	-4
370.129	1	10
370.300	1	-2
370.471	1	11
370.641	1	7
370.812	1	8
370.983	1	3
371.154	1	-3
371.325	1	15
371.496	1	1
371.667	1	2
371.837	1	-2
372.008	1	5
372.179	1	9
372.350	1	6
372.521	1	-3
372.692	1	2
372.863	1	1
373.033	1	1
373.204	1	6
373.375	1	11
373.546	1	-3
373.717	1	6
373.888	1	-2
374.059	1	5
374.229	1	0
374.400	1	1
374.571	1	1
374.742	1	1
374.913	1	8
375.084	1	-5
375.254	1	2
375.425	1	7
375.596	1	2
375.767	1	1
375.938	1	-1
376.109	1	-13
376.279	1	1
376.450	1	-2
376.621	1	12
376.792	1	-4
376.963	1	8
377.134	1	-8
377.304	1	1
377.475	1	6
377.646	1	6
377.817	1	15
377.988	1	-1
378.159	1	10
378.329	1	4
378.500	1	-6
378.671	1	0
378.842	1	-1
379.013	1	-1
379.184	1	7
379.354	1	0
379.525	1	4
379.696	1	-3
379.867	1	14
380.038	1	8
380.209	1	6
380.379	1	-3
380.550	1	14
380.721	1	16
380.892	1	1
381.063	1	2
381.233	1	8
381.404	1	12
381.575	1	-5
381.746	1	17
381.917	1	5
382.087	1	5
382.258	1	14
382.429	1	8
382.600	1	8
382.771	1	10
382.941	1	13
383.112	1	9
383.283	1	4
383.454	1	14
383.625	1	7
383.795	1	16
383.966	1	11
384.137	1	13
384.308	1	18
384.479	1	12
384.649	1	22
384.820	1	1
384.991	1	14
385.162	1	15
385.333	1	27
385.503	1	13
385.674	1	18
385.845	1	15
386.016	1	20
386.187	1	23
386.357	1	10
386.528	1	27
386.699	1	34
386.870	1	41
387.041	1	21
387.211	1	10
387.382	1	22
387.553	1	34
387.724	1	7
387.894	1	32
388.065	1	32
388.236	1	25
388.407	1	16
388.578	1	30
388.748	1	18
388.919	1	19
389.090	1	26
389.261	1	0
389.431	1	22
389.602	1	24
389.773	1	23
389.944	1	14
390.114	1	23
390.285	1	10
390.456	1	22
390.627	1	8
390.798	1	18
390.968	1	19
391.139	1	-1
391.310	1	13
391.481	1	8
391.651	1	16
391.822	1	11
391.993	1	14
392.164	1	12
392.334	1	26
392.505	1	11
392.676	1	13
392.847	1	19
393.017	1	7
393.188	1	22
393.359	1	14
393.530	1	17
393.700	1	14
393.871	1	3
394.042	1	21
394.213	1	16
394.383	1	14
394.554	1	19
394.725	1	11
394.896	1	10
395.066	1	19
395.237	1	25
395.408	1	16
395.579	1	23
395.749	1	18
395.920	1	25
396.091	1	14
396.262	1	12
396.432	1	-2
396.603	1	13
396.774	1	3
396.945	1	21
397.115	1	18
397.286	1	27
397.457	1	23
397.627	1	22
397.798	1	3
397.969	1	16
398.140	1	6
398.310	1	21
398.481	1	9
398.652	1	26
398.823	1	32
398.993	1	12
399.164	1	23
399.335	1	12
399.505	1	14
399.676	1	19
399.847	1	11
400.018	1	16
400.188	1	18
400.359	1	10
400.530	1	21
400.700	1	20
400.871	1	3
401.042	1	18
401.213	1	14
401.383	1	18
401.554	1	13
401.725	1	6
401.895	1	21
402.066	1	16
402.237	1	12
402.408	1	11
402.578	1	20
402.749	1	-3
402.920	1	4
403.090	1	2
403.261	1	5
403.432	1	6
403.603	1	7
403.773	1	19
403.944	1	11
404.115	1	10
404.285	1	11
404.456	1	16
404.627	1	16
404.797	1	27
404.968	1	8
405.139	1	3
405.310	1	16
405.480	1	22
405.651	1	11
405.822	1	11
405.992	1	14
406.163	1	18
406.334	1	19
406.504	1	10
406.675	1	19
406.846	1	12
407.016	1	6
407.187	1	6
407.358	1	9
407.528	1	12
407.699	1	14
407.870	1	19
408.041	1	12
408.211	1	13
408.382	1	15
408.553	1	20
408.723	1	9
408.894	1	-5
409.065	1	19
409.235	1	7
409.406	1	11
409.577	1	16
409.747	1	8
409.918	1	11
410.089	1	23
410.259	1	4
410.430	1	14
410.601	1	12
410.771	1	11
410.942	1	7
411.113	1	12
411.283	1	6
411.454	1	-5
411.625	1	8
411.795	1	21
411.966	1	11
412.137	1	5
412.307	1	7
412.478	1	10
412.649	1	4
412.819	1	15
412.990	1	13
413.161	1	5
413.331	1	1
413.502	1	20
413.672	1	13
413.843	1	9
414.014	1	12
414.184	1	5
414.355	1	-5
414.526	1	4
414.696	1	-1
414.867	1	14
415.038	1	14
415.208	1	1
415.379	1	12
415.550	1	9
415.720	1	8
415.891	1	15
416.062	1	9
416.232	1	1
416.403	1	2
416.573	1	12
416.744	1	8
416.915	1	4
417.085	1	9
417.256	1	-3
417.427	1	14
417.597	1	-6
417.768	1	3
417.939	1	5
418.109	1	13
418.280	1	4
418.450	1	8
418.621	1	20
418.792	1	11
418.962	1	3
419.133	1	0
419.304	1	14
419.474	1	-2
419.645	1	10
419.815	1	5
419.986	1	8
420.157	1	5
420.327	1	4
420.498	1	1
420.669	1	8
420.839	1	1
421.010	1	13
421.180	1	13
421.351	1	-3
421.522	1	11
421.692	1	7
421.863	1	1
422.033	1	3
422.204	1	-6
422.375	1	4
422.545	1	11
422.716	1	4
422.886	1	6
423.057	1	9
423.228	1	-3
423.398	1	8
423.569	1	1
423.740	1	9
423.910	1	2
424.081	1	2
424.251	1	3
424.422	1	-2
424.593	1	5
424.763	1	1
424.934	1	6
425.104	1	9
425.275	1	-5
425.445	1	6
425.616	1	4
425.787	1	-1
425.957	1	15
426.128	1	6
426.298	1	0
426.469	1	3
426.640	1	2
426.810	1	6
426.981	1	-7
427.151	1	5
427.322	1	10
427.493	1	12
427.663	1	4
427.834	1	-2
428.004	1	8
428.175	1	3
428.345	1	13
428.516	1	4
428.687	1	3
428.857	1	-3
429.028	1	5
429.198	1	-11
429.369	1	10
429.540	1	10
429.710	1	-1
429.881	1	11
430.051	1	6
430.222	1	-5
430.392	1	4
430.563	1	16
430.734	1	2
430.904	1	0
431.075	1	0
431.245	1	7
431.416	1	2
431.586	1	3
431.757	1	8
431.927	1	4
432.098	1	5
432.269	1	-1
432.439	1	-4
432.610	1	-5
432.780	1	-6
432.951	1	0
433.121	1	10
433.292	1	6
433.462	1	5
433.633	1	-6
433.804	1	3
433.974	1	-7
434.145	1	11
434.315	1	0
434.486	1	3
434.656	1	-7
434.827	1	-3
434.997	1	7
435.168	1	-2
435.339	1	7
435.509	1	8
435.680	1	3
435.850	1	8
436.021	1	-2
436.191	1	-12
436.362	1	-1
436.532	1	3
436.703	1	7
436.873	1	3
437.044	1	2
437.214	1	2
437.385	1	4
437.556	1	-9
437.726	1	-7
437.897	1	6
438.067	1	-5
438.238	1	-6
438.408	1	0
438.579	1	7
438.749	1	1
438.920	1	10
439.090	1	15
439.261	1	-3
439.431	1	-7
439.602	1	2
439.772	1	2
439.943	1	6
440.113	1	-1
440.284	1	10
440.455	1	-1
440.625	1	8
440.796	1	12
440.966	1	4
441.137	1	-6
441.307	1	5
441.478	1	3
441.648	1	-7
441.819	1	1
441.989	1	1
442.160	1	3
442.330	1	4
442.501	1	-10
442.671	1	5
442.842	1	-4
443.012	1	7
443.183	1	-4
443.353	1	0
443.524	1	9
443.694	1	7
443.865	1	-6
444.035	1	3
444.206	1	6
444.376	1	1
444.547	1	0
444.717	1	10
444.888	1	4
445.058	1	4
445.229	1	2
445.399	1	4
445.570	1	3
445.740	1	1
445.911	1	7
446.081	1	2
446.252	1	-11
446.422	1	4
446.593	1	-2
446.763	1	12
446.934	1	12
447.104	1	-1
447.275	1	0
447.445	1	-4
447.616	1	2
447.786	1	-4
447.957	1	0
448.127	1	6
448.298	1	1
448.468	1	13
448.639	1	5
448.809	1	0
448.979	1	-1
449.150	1	0
449.320	1	11
449.491	1	-4
449.661	1	7
449.832	1	-1
450.002	1	-1
450.173	1	-3
450.343	1	1
450.514	1	-1
450.684	1	1
450.855	1	2
451.025	1	2
451.196	1	0
451.366	1	7
451.537	1	-1
451.707	1	2
451.878	1	-2
452.048	1	-3
452.218	1	3
452.389	1	2
452.559	1	4
452.730	1	2
452.900	1	3
453.071	1	-2
453.241	1	-10
453.412	1	-8
453.582	1	10
453.753	1	-10
453.923	1	8
454.093	1	10
454.264	1	-3
454.434	1	6
454.605	1	0
454.775	1	5
454.946	1	2
455.116	1	3
455.287	1	11
455.457	1	1
455.628	1	0
455.798	1	-8
455.968	1	8
456.139	1	0
456.309	1	-5
456.480	1	-7
456.650	1	0
456.821	1	8
456.991	1	5
457.161	1	5
457.332	1	1
457.502	1	5
457.673	1	-8
457.843	1	4
458.014	1	1
458.184	1	9
458.355	1	9
458.525	1	-1
458.695	1	2
458.866	1	-6
459.036	1	3
459.207	1	2
459.377	1	5
459.548	1	-6
459.718	1	-13
459.888	1	5
460.059	1	9
460.229	1	-1
460.400	1	9
460.570	1	0
460.740	1	-8
460.911	1	13
461.081	1	-1
461.252	1	3
461.422	1	9
461.593	1	3
461.763	1	5
461.933	1	-5
462.104	1	-8
462.274	1	-4
462.445	1	-1
462.615	1	-2
462.785	1	-2
462.956	1	1
463.126	1	-1
463.297	1	2
463.467	1	2
463.638	1	7
463.808	1	-7
463.978	1	2
464.149	1	-5
464.319	1	-4
464.490	1	-1
464.660	1	-1
464.830	1	1
465.001	1	4
465.171	1	12
465.342	1	5
465.512	1	-2
465.682	1	0
465.853	1	-2
466.023	1	-1
466.194	1	1
466.364	1	15
466.534	1	13
466.705	1	6
466.875	1	-1
467.045	1	7
467.216	1	-5
467.386	1	-1
467.557	1	4
467.727	1	8
467.897	1	11
468.068	1	4
468.238	1	-2
468.409	1	-1
468.579	1	5
468.749	1	2
468.920	1	-3
469.090	1	10
469.260	1	-1
469.431	1	-4
469.601	1	1
469.772	1	-18
469.942	1	5
470.112	1	4
470.283	1	14
470.453	1	-1
470.623	1	-3
470.794	1	3
470.964	1	-3
471.135	1	-8
471.305	1	-4
471.475	1	-3
471.646	1	4
471.816	1	-1
471.986	1	3
472.157	1	0
472.327	1	-8
472.497	1	-1
472.668	1	4
472.838	1	-3
473.009	1	5
473.179	1	11
473.349	1	5
473.520	1	0
473.690	1	0
473.860	1	7
474.031	1	7
474.201	1	-1
474.371	1	3
474.542	1	1
474.712	1	5
474.882	1	-3
475.053	1	-9
475.223	1	-8
475.394	1	-1
475.564	1	24
475.734	1	4
475.905	1	1
476.075	1	-2
476.245	1	2
476.416	1	-1
476.586	1	-8
476.756	1	-2
476.927	1	9
477.097	1	-5
477.267	1	-5
477.438	1	0
477.608	1	8
477.778	1	11
477.949	1	2
478.119	1	5
478.289	1	-1
478.460	1	-2
478.630	1	-4
478.800	1	-6
478.971	1	9
479.141	1	9
479.311	1	0
479.482	1	-8
479.652	1	-3
479.822	1	3
479.993	1	2
480.163	1	-6
480.333	1	-4
480.504	1	-8
480.674	1	-2
480.844	1	5
481.015	1	-4
481.185	1	-2
481.355	1	15
481.525	1	5
481.696	1	-5
481.866	1	-3
482.036	1	-11
482.207	1	6
482.377	1	-1
482.547	1	-3
482.718	1	7
482.888	1	-1
483.058	1	2
483.229	1	10
483.399	1	6
483.569	1	5
483.740	1	-11
483.910	1	7
484.080	1	0
484.250	1	5
484.421	1	-1
484.591	1	18
484.761	1	-9
484.932	1	6
485.102	1	1
485.272	1	18
485.443	1	14
485.613	1	-14
485.783	1	8
485.953	1	0
486.124	1	6
486.294	1	4
486.464	1	-6
486.635	1	4
486.805	1	12
486.975	1	-14
487.146	1	-2
487.316	1	13
487.486	1	-1
487.656	1	-4
487.827	1	9
487.997	1	10
488.167	1	4
488.338	1	14
488.508	1	-2
488.678	1	12
488.848	1	-4
489.019	1	-4
489.189	1	-5
489.359	1	5
489.529	1	7
489.700	1	5
489.870	1	-5
490.040	1	8
490.211	1	7
490.381	1	1
490.551	1	2
490.721	1	5
490.892	1	-1
491.062	1	12
491.232	1	-4
491.402	1	-10
491.573	1	15
491.743	1	-8
491.913	1	6
492.084	1	3
492.254	1	2
492.424	1	0
492.594	1	3
492.765	1	-2
492.935	1	2
493.105	1	7
493.275	1	8
493.446	1	-1
493.616	1	7
493.786	1	0
493.956	1	1
494.127	1	6
494.297	1	6
494.467	1	12
494.637	1	5
494.808	1	-1
494.978	1	-5
495.148	1	8
495.318	1	0
495.489	1	2
495.659	1	4
495.829	1	14
495.999	1	7
496.170	1	3
496.340	1	16
496.510	1	2
496.680	1	1
496.851	1	-2
497.021	1	3
497.191	1	1
497.361	1	2
497.532	1	8
497.702	1	-8
497.872	1	8
498.042	1	3
498.213	1	10
498.383	1	-1
498.553	1	7
498.723	1	-1
498.894	1	1
499.064	1	10
499.234	1	1
499.404	1	9
499.574	1	-5
499.745	1	4
499.915	1	-3
500.085	1	-4
500.255	1	14
500.426	1	-11
500.596	1	-3
500.766	1	12
500.936	1	-3
501.106	1	-6
501.277	1	6
501.447	1	4
501.617	1	9
501.787	1	-2
501.958	1	6
502.128	1	3
502.298	1	10
502.468	1	6
502.638	1	6
502.809	1	6
502.979	1	0
503.149	1	10
503.319	1	3
503.489	1	8
503.660	1	-1
503.830	1	8
504.000	1	10
504.170	1	2
504.340	1	3
504.511	1	12
504.681	1	0
504.851	1	1
505.021	1	8
505.192	1	6
505.362	1	12
505.532	1	8
505.702	1	-2
505.872	1	-8
506.043	1	7
506.213	1	0
506.383	1	9
506.553	1	12
506.723	1	6
506.893	1	2
507.064	1	-2
507.234	1	7
507.404	1	-1
507.574	1	4
507.744	1	-7
507.915	1	11
508.085	1	13
508.255	1	7
508.425	1	10
508.595	1	-2
508.766	1	-6
508.936	1	4
509.106	1	6
509.276	1	1
509.446	1	2
509.616	1	3
509.787	1	1
509.957	1	7
510.127	1	14
510.297	1	-2
510.467	1	2
510.638	1	2
510.808	1	-2
510.978	1	-8
511.148	1	10
511.318	1	2
511.488	1	14
511.659	1	11
511.829	1	1
511.999	1	19
512.169	1	6
512.339	1	11
512.509	1	6
512.680	1	10
512.850	1	6
513.020	1	10
513.190	1	-1
513.360	1	2
513.530	1	-4
513.700	1	10
513.871	1	17
514.041	1	4
514.211	1	-5
514.381	1	7
514.551	1	6
514.721	1	10
514.892	1	3
515.062	1	21
515.232	1	7
515.402	1	4
515.572	1	7
515.742	1	8
515.912	1	10
516.083	1	0
516.253	1	6
516.423	1	19
516.593	1	0
516.763	1	16
516.933	1	14
517.104	1	6
517.274	1	8
517.444	1	11
517.614	1	-7
517.784	1	4
517.954	1	2
518.124	1	12
518.294	1	9
518.465	1	7
518.635	1	15
518.805	1	10
518.975	1	17
519.145	1	14
519.315	1	5
519.485	1	-10
519.656	1	8
519.826	1	4
519.996	1	16
520.166	1	10
520.336	1	7
520.506	1	5
520.676	1	-3
520.846	1	3
521.017	1	-3
521.187	1	9
521.357	1	1
521.527	1	8
521.697	1	11
521.867	1	13
522.037	1	3
522.207	1	-1
522.377	1	15
522.548	1	-2
522.718	1	2
522.888	1	0
523.058	1	24
523.228	1	15
523.398	1	4
523.568	1	2
523.738	1	17
523.909	1	18
524.079	1	15
524.249	1	6
524.419	1	4
524.589	1	17
524.759	1	5
524.929	1	15
525.099	1	4
525.269	1	21
525.439	1	-1
525.610	1	2
525.780	1	15
525.950	1	-1
526.120	1	0
526.290	1	13
526.460	1	12
526.630	1	18
526.800	1	13
526.970	1	1
527.140	1	-2
527.311	1	16
527.481	1	14
527.651	1	14
527.821	1	20
527.991	1	9
528.161	1	3
528.331	1	24
528.501	1	-5
528.671	1	7
528.841	1	6
529.011	1	6
529.181	1	13
529.352	1	6
529.522	1	13
529.692	1	17
529.862	1	9
530.032	1	4
530.202	1	9
530.372	1	3
530.542	1	7
530.712	1	16
530.882	1	0
531.052	1	13
531.222	1	-4
531.392	1	21
531.563	1	6
531.733	1	8
531.903	1	6
532.073	1	11
532.243	1	8
532.413	1	17
532.583	1	7
532.753	1	8
532.923	1	12
533.093	1	10
533.263	1	4
533.433	1	11
533.603	1	10
533.773	1	10
533.943	1	10
534.113	1	3
534.284	1	5
534.454	1	7
534.624	1	9
534.794	1	12
534.964	1	3
535.134	1	8
535.304	1	20
535.474	1	6
535.644	1	19
535.814	1	11
535.984	1	4
536.154	1	2
536.324	1	-2
536.494	1	15
536.664	1	3
536.834	1	7
537.004	1	23
537.174	1	11
537.344	1	7
537.514	1	10
537.685	1	4
537.855	1	14
538.025	1	7
538.195	1	15
538.365	1	8
538.535	1	13
538.705	1	5
538.875	1	16
539.045	1	8
539.215	1	3
539.385	1	8
539.555	1	3
539.725	1	17
539.895	1	13
540.065	1	-1
540.235	1	-3
540.405	1	6
540.575	1	10
540.745	1	12
540.915	1	16
541.085	1	0
541.255	1	8
541.425	1	7
541.595	1	3
541.765	1	4
541.935	1	10
542.105	1	11
542.275	1	8
542.445	1	15
542.615	1	9
542.785	1	7
542.955	1	13
543.125	1	-1
543.295	1	9
543.465	1	12
543.635	1	9
543.805	1	13
543.975	1	10
544.145	1	6
544.315	1	0
544.485	1	4
544.655	1	9
544.825	1	14
544.995	1	8
545.165	1	10
545.335	1	-1
545.505	1	-4
545.675	1	1
545.845	1	3
546.015	1	9
546.185	1	2
546.355	1	10
546.525	1	8
546.695	1	0
546.865	1	-3
547.035	1	6
547.205	1	7
547.375	1	7
547.545	1	7
547.715	1	3
547.885	1	4
548.055	1	13
548.225	1	6
548.395	1	17
548.565	1	5
548.735	1	6
548.905	1	4
549.075	1	2
549.245	1	9
549.415	1	5
549.585	1	9
549.755	1	7
549.925	1	7
550.095	1	12
550.265	1	-2
550.435	1	18
550.605	1	5
550.775	1	9
550.945	1	20
551.115	1	-5
551.285	1	12
551.455	1	11
551.625	1	6
551.795	1	4
551.965	1	4
552.135	1	-3
552.305	1	10
552.475	1	3
552.645	1	8
552.815	1	12
552.985	1	7
553.155	1	16
553.325	1	7
553.495	1	7
553.665	1	2
553.835	1	8
554.004	1	5
554.174	1	8
554.344	1	-8
554.514	1	11
554.684	1	12
554.854	1	-5
555.024	1	0
555.194	1	17
555.364	1	5
555.534	1	7
555.704	1	12
555.874	1	-4
556.044	1	14
556.214	1	8
556.384	1	12
556.554	1	1
556.724	1	-4
556.894	1	13
557.064	1	5
557.234	1	8
557.404	1	-2
557.573	1	10
557.743	1	8
557.913	1	6
558.083	1	1
558.253	1	10
558.423	1	-2
558.593	1	1
558.763	1	6
558.933	1	9
559.103	1	9
559.273	1	2
559.443	1	5
559.613	1	8
559.783	1	6
559.953	1	-3
560.122	1	-3
560.292	1	9
560.462	1	1
560.632	1	4
560.802	1	7
560.972	1	10
561.142	1	5
561.312	1	1
561.482	1	7
561.652	1	9
561.822	1	5
561.992	1	10
562.162	1	12
562.331	1	9
562.501	1	4
562.671	1	-4
562.841	1	-7
563.011	1	9
563.181	1	3
563.351	1	-3
563.521	1	10
563.691	1	5
563.861	1	18
564.031	1	6
564.201	1	12
564.370	1	11
564.540	1	20
564.710	1	-6
564.880	1	6
565.050	1	4
565.220	1	-3
565.390	1	-8
565.560	1	10
565.730	1	6
565.900	1	6
566.069	1	15
566.239	1	-3
566.409	1	-5
566.579	1	10
566.749	1	6
566.919	1	11
567.089	1	5
567.259	1	19
567.429	1	5
567.599	1	5
567.768	1	9
567.938	1	8
568.108	1	6
568.278	1	0
568.448	1	-3
568.618	1	1
568.788	1	1
568.958	1	15
569.128	1	3
569.297	1	6
569.467	1	2
569.637	1	9
569.807	1	1
569.977	1	0
570.147	1	-2
570.317	1	27
570.487	1	1
570.656	1	8
570.826	1	14
570.996	1	3
571.166	1	0
571.336	1	1
571.506	1	-7
571.676	1	10
571.846	1	8
572.015	1	-3
572.185	1	6
572.355	1	20
572.525	1	1
572.695	1	6
572.865	1	8
573.035	1	-2
573.205	1	14
573.374	1	-3
573.544	1	8
573.714	1	14
573.884	1	3
574.054	1	1
574.224	1	5
574.394	1	4
574.563	1	3
574.733	1	-3
574.903	1	0
575.073	1	-2
575.243	1	-8
575.413	1	3
575.583	1	11
575.752	1	0
575.922	1	4
576.092	1	10
576.262	1	5
576.432	1	-3
576.602	1	4
576.772	1	2
576.941	1	7
577.111	1	-9
577.281	1	10
577.451	1	4
577.621	1	-9
577.791	1	11
577.960	1	-1
578.130	1	-4
578.300	1	2
578.470	1	0
578.640	1	-7
578.810	1	12
578.979	1	0
579.149	1	-4
579.319	1	8
579.489	1	7
579.659	1	8
579.829	1	7
579.998	1	-4
580.168	1	6
580.338	1	-11
580.508	1	-3
580.678	1	4
580.848	1	6
581.017	1	0
581.187	1	4
581.357	1	5
581.527	1	1
581.697	1	-13
581.867	1	-4
582.036	1	11
582.206	1	-4
582.376	1	12
582.546	1	11
582.716	1	15
582.885	1	4
583.055	1	-2
583.225	1	4
583.395	1	8
583.565	1	9
583.735	1	-4
583.904	1	5
584.074	1	-1
584.244	1	1
584.414	1	4
584.584	1	11
584.753	1	1
584.923	1	-1
585.093	1	7
585.263	1	4
585.433	1	1
585.602	1	-1
585.772	1	-1
585.942	1	5
586.112	1	15
586.282	1	3
586.451	1	5
586.621	1	0
586.791	1	7
586.961	1	0
587.131	1	-3
587.300	1	-1
587.470	1	2
587.640	1	-5
587.810	1	-3
587.980	1	4
588.149	1	1
588.319	1	10
588.489	1	3
588.659	1	3
588.829	1	11
588.998	1	1
589.168	1	5
589.338	1	5
589.508	1	2
589.677	1	5
589.847	1	-1
590.017	1	-7
590.187	1	-1
590.357	1	3
590.526	1	5
590.696	1	6
590.866	1	5
591.036	1	3
591.205	1	-2
591.375	1	-10
591.545	1	-5
591.715	1	-3
591.885	1	4
592.054	1	-1
592.224	1	-1
592.394	1	6
592.564	1	-5
592.733	1	-1
592.903	1	-6
593.073	1	3
593.243	1	-1
593.412	1	-8
593.582	1	7
593.752	1	1
593.922	1	-2
594.091	1	5
594.261	1	4
594.431	1	1
594.601	1	-8
594.771	1	8
594.940	1	1
595.110	1	3
595.280	1	-1
595.450	1	-1
595.619	1	9
595.789	1	3
595.959	1	3
596.129	1	-4
596.298	1	13
596.468	1	6
596.638	1	2
596.808	1	6
596.977	1	4
597.147	1	4
597.317	1	7
597.487	1	-5
597.656	1	3
597.826	1	-4
597.996	1	-3
598.166	1	-3
598.335	1	1
598.505	1	-3
598.675	1	6
598.844	1	-2
599.014	1	-1
599.184	1	5
599.354	1	-16
599.523	1	-1
599.693	1	4
599.863	1	7
600.033	1	-6
600.202	1	5
600.372	1	3
600.542	1	5
600.712	1	0
600.881	1	5
601.051	1	6
601.221	1	3
601.390	1	-13
601.560	1	1
601.730	1	7
601.900	1	-5
602.069	1	-7
602.239	1	-1
602.409	1	1
602.578	1	1
602.748	1	-5
602.918	1	-14
603.088	1	6
603.257	1	1
603.427	1	1
603.597	1	24
603.767	1	4
603.936	1	2
604.106	1	-2
604.276	1	2
604.445	1	8
604.615	1	-9
604.785	1	5
604.954	1	7
605.124	1	-13
605.294	1	4
605.464	1	5
605.633	1	9
605.803	1	3
605.973	1	1
606.142	1	2
606.312	1	0
606.482	1	-5
606.652	1	-7
606.821	1	9
606.991	1	4
607.161	1	2
607.330	1	9
607.500	1	4
607.670	1	-4
607.839	1	1
608.009	1	-5
608.179	1	7
608.348	1	2
608.518	1	5
608.688	1	5
608.858	1	8
609.027	1	-8
609.197	1	-7
609.367	1	0
609.536	1	2
609.706	1	2
609.876	1	2
610.045	1	1
610.215	1	0
610.385	1	-5
610.554	1	-5
610.724	1	6
610.894	1	13
611.063	1	10
611.233	1	-2
611.403	1	6
611.572	1	-1
611.742	1	-8
611.912	1	4
612.081	1	2
612.251	1	5
612.421	1	12
612.590	1	0
612.760	1	4
612.930	1	7
613.099	1	-8
613.269	1	3
613.439	1	-1
613.608	1	3
613.778	1	1
613.948	1	9
614.117	1	12
614.287	1	2
614.457	1	12
614.626	1	11
614.796	1	10
614.966	1	2
615.135	1	5
615.305	1	1
615.475	1	-1
615.644	1	-9
615.814	1	4
615.984	1	10
616.153	1	1
616.323	1	2
616.493	1	10
616.662	1	-3
616.832	1	-5
617.002	1	-1
617.171	1	-10
617.341	1	7
617.511	1	-5
617.680	1	1
617.850	1	5
618.019	1	12
618.189	1	-2
618.359	1	6
618.528	1	-5
618.698	1	-1
618.868	1	5
619.037	1	1
619.207	1	1
619.377	1	-14
619.546	1	3
619.716	1	-6
619.885	1	7
620.055	1	8
620.225	1	8
620.394	1	2
620.564	1	-6
620.734	1	4
620.903	1	5
621.073	1	-7
621.242	1	-2
621.412	1	8
621.582	1	1
621.751	1	3
621.921	1	2
622.091	1	-7
622.260	1	-1
622.430	1	-3
622.599	1	9
622.769	1	-4
622.939	1	4
623.108	1	4
623.278	1	5
623.448	1	4
623.617	1	10
623.787	1	9
623.956	1	10
624.126	1	-8
624.296	1	-6
624.465	1	1
624.635	1	-5
624.804	1	-3
624.974	1	-15
625.144	1	3
625.313	1	7
625.483	1	0
625.652	1	9
625.822	1	6
625.992	1	-10
626.161	1	0
626.331	1	2
626.501	1	5
626.670	1	7
626.840	1	4
627.009	1	-10
627.179	1	-3
627.348	1	6
627.518	1	4
627.688	1	4
627.857	1	4
628.027	1	2
628.196	1	7
628.366	1	6
628.536	1	0
628.705	1	3
628.875	1	3
629.044	1	1
629.214	1	2
629.384	1	-2
629.553	1	6
629.723	1	2
629.892	1	0
630.062	1	5
630.232	1	10
630.401	1	1
630.571	1	3
630.740	1	6
630.910	1	-3
631.079	1	0
631.249	1	-8
631.419	1	-5
631.588	1	-6
631.758	1	4
631.927	1	-3
632.097	1	0
632.266	1	-5
632.436	1	1
632.606	1	3
632.775	1	2
632.945	1	4
633.114	1	6
633.284	1	1
633.453	1	-2
633.623	1	5
633.793	1	0
633.962	1	5
634.132	1	4
634.301	1	-6
634.471	1	-4
634.640	1	6
634.810	1	-1
634.979	1	0
635.149	1	0
635.319	1	8
635.488	1	5
635.658	1	0
635.827	1	-1
635.997	1	2
636.166	1	8
636.336	1	4
636.505	1	-4
636.675	1	-6
636.845	1	1
637.014	1	8
637.184	1	-5
637.353	1	2
637.523	1	-7
637.692	1	0
637.862	1	-5
638.031	1	14
638.201	1	5
638.370	1	7
638.540	1	1
638.710	1	1
638.879	1	6
639.049	1	8
639.218	1	5
639.388	1	4
639.557	1	0
639.727	1	1
639.896	1	7
640.066	1	-3
640.235	1	0
640.405	1	5
640.574	1	-4
640.744	1	-2
640.914	1	-3
641.083	1	-3
641.253	1	3
641.422	1	1
641.592	1	-9
641.761	1	-1
641.931	1	7
642.100	1	2
642.270	1	4
642.439	1	3
642.609	1	5
642.778	1	-7
642.948	1	9
643.117	1	-8
643.287	1	13
643.456	1	5
643.626	1	-4
643.795	1	-1
643.965	1	4
644.134	1	1
644.304	1	6
644.473	1	8
644.643	1	0
644.812	1	2
644.982	1	12
645.151	1	-6
645.321	1	-2
645.490	1	12
645.660	1	-4
645.829	1	3
645.999	1	-2
646.168	1	0
646.338	1	6
646.507	1	2
646.677	1	-1
646.846	1	11
647.016	1	-3
647.185	1	-4
647.355	1	-2
647.524	1	8
647.694	1	-13
647.863	1	-13
648.033	1	-11
648.202	1	9
648.372	1	-6
648.541	1	6
648.711	1	6
648.880	1	5
649.050	1	4
649.219	1	2
649.389	1	-1
649.558	1	-3
649.728	1	-1
649.897	1	8
650.067	1	5
650.236	1	7
650.406	1	4
650.575	1	-3
650.745	1	-4
650.914	1	-2
651.084	1	-2
651.253	1	-8
651.423	1	12
651.592	1	-1
651.762	1	6
651.931	1	7
652.101	1	1
652.270	1	0
652.440	1	7
652.609	1	3
652.778	1	-5
652.948	1	2
653.117	1	-8
653.287	1	11
653.456	1	-5
653.626	1	6
653.795	1	10
653.965	1	11
654.134	1	8
654.304	1	0
654.473	1	-5
654.643	1	12
654.812	1	7
654.982	1	-13
655.151	1	-6
655.320	1	-6
655.490	1	7
655.659	1	-2
655.829	1	3
655.998	1	6
656.168	1	2
656.337	1	-7
656.507	1	6
656.676	1	-9
656.846	1	-4
657.015	1	-2
657.184	1	7
657.354	1	14
657.523	1	-2
657.693	1	-5
657.862	1	6
658.032	1	11
658.201	1	-5
658.371	1	-3
658.540	1	-2
658.709	1	-8
658.879	1	1
659.048	1	1
659.218	1	-3
659.387	1	1
659.557	1	8
659.726	1	-3
659.895	1	1
660.065	1	4
660.234	1	3
660.404	1	9
660.573	1	-6
660.743	1	-3
660.912	1	4
661.081	1	1
661.251	1	4
661.420	1	-11
661.590	1	2
661.759	1	6
661.929	1	1
662.098	1	-17
662.267	1	15
662.437	1	3
662.606	1	5
662.776	1	2
662.945	1	8
663.115	1	-10
663.284	1	-4
663.453	1	0
663.623	1	0
663.792	1	0
663.962	1	-8
664.131	1	2
664.300	1	0
664.470	1	-4
664.639	1	-6
664.809	1	6
664.978	1	3
665.148	1	-12
665.317	1	2
665.486	1	-2
665.656	1	-5
665.825	1	8
665.995	1	15
666.164	1	3
666.333	1	-1
666.503	1	1
666.672	1	-4
666.842	1	0
667.011	1	2
667.180	1	1
667.350	1	15
667.519	1	-6
667.689	1	-3
667.858	1	3
668.027	1	-5
668.197	1	0
668.366	1	-4
668.536	1	-4
668.705	1	-5
668.874	1	0
669.044	1	0
669.213	1	3
669.382	1	-7
669.552	1	0
669.721	1	-8
669.891	1	1
670.060	1	2
670.229	1	-3
670.399	1	6
670.568	1	4
670.738	1	-8
670.907	1	2
671.076	1	5
671.246	1	8
671.415	1	-7
671.584	1	10
671.754	1	-9
671.923	1	-4
672.093	1	-5
672.262	1	11
672.431	1	-4
672.601	1	4
672.770	1	-2
672.939	1	-9
673.109	1	-1
673.278	1	3
673.448	1	-1
673.617	1	0
673.786	1	-2
