325.333	1	-1
325.504	1	6
325.675	1	2
325.846	1	-3
326.017	1	2
326.188	1	14
326.359	1	9
326.531	1	-6
326.702	1	-5
326.873	1	-6
327.044	1	-1
327.215	1	-4
327.386	1	0
327.557	1	1
327.728	1	-6
327.899	1	-2
328.070	1	3
328.241	1	-3
328.412	1	6
328.583	1	-10
328.754	1	-17
328.926	1	3
329.097	1	0
329.268	1	2
329.439	1	5
329.610	1	3
329.781	1	-4
329.952	1	10
330.123	1	0
330.294	1	8
330.465	1	-6
330.636	1	13
330.807	1	-3
330.978	1	-2
331.149	1	5
331.320	1	5
331.492	1	5
331.663	1	-13
331.834	1	8
332.005	1	8
332.176	1	-1
332.347	1	-3
332.518	1	2
332.689	1	7
332.860	1	3
333.031	1	-3
333.202	1	-5
333.373	1	-4
333.544	1	-2
333.715	1	-7
333.886	1	13
334.057	1	-6
334.228	1	-8
334.399	1	6
334.570	1	-6
334.741	1	-10
334.912	1	-2
335.084	1	3
335.255	1	6
335.426	1	-11
335.597	1	-9
335.768	1	8
335.939	1	-3
336.110	1	-4
336.281	1	-10
336.452	1	3
336.623	1	7
336.794	1	-6
336.965	1	0
337.136	1	-3
337.307	1	3
337.478	1	4
337.649	1	1
337.820	1	14
337.991	1	7
338.162	1	0
338.333	1	-5
338.504	1	-1
338.675	1	3
338.846	1	3
339.017	1	-10
339.188	1	-1
339.359	1	5
339.530	1	4
339.701	1	1
339.872	1	8
340.043	1	-1
340.214	1	-2
340.385	1	2
340.556	1	12
340.727	1	4
340.898	1	4
341.069	1	5
341.240	1	7
341.411	1	-3
341.582	1	-6
341.753	1	-1
341.924	1	-9
342.095	1	5
342.266	1	3
342.437	1	7
342.608	1	-2
342.779	1	5
342.950	1	10
343.121	1	3
343.292	1	-10
343.463	1	-2
343.634	1	-10
343.805	1	14
343.976	1	4
344.147	1	-5
344.318	1	9
344.489	1	-13
344.660	1	16
344.831	1	0
345.002	1	3
345.173	1	1
345.344	1	-4
345.515	1	2
345.686	1	4
345.857	1	-7
346.028	1	-7
346.199	1	-10
346.370	1	2
346.541	1	-2
346.712	1	-2
346.883	1	-2
347.054	1	4
347.225	1	5
347.396	1	8
347.567	1	8
347.738	1	3
347.909	1	2
348.080	1	-5
348.251	1	3
348.422	1	1
348.593	1	-1
348.764	1	0
348.935	1	15
349.106	1	14
349.277	1	1
349.448	1	1
349.619	1	-1
349.790	1	3
349.961	1	-3
350.132	1	-4
350.303	1	-7
350.474	1	-3
350.645	1	-2
350.816	1	-2
350.987	1	-3
351.157	1	3
351.328	1	-5
351.499	1	4
351.670	1	4
351.841	1	7
352.012	1	-14
352.183	1	2
352.354	1	2
352.525	1	-5
352.696	1	6
352.867	1	6
353.038	1	13
353.209	1	3
353.380	1	-5
353.551	1	6
353.722	1	9
353.893	1	-14
354.064	1	3
354.235	1	-1
354.406	1	-8
354.576	1	4
354.747	1	-6
354.918	1	-2
355.089	1	-2
355.260	1	1
355.431	1	-2
355.602	1	3
355.773	1	-4
355.944	1	3
356.115	1	-8
356.286	1	2
356.457	1	-9
356.628	1	2
356.799	1	2
356.970	1	-13
357.141	1	-7
357.311	1	3
357.482	1	2
357.653	1	5
357.824	1	-5
357.995	1	6
358.166	1	5
358.337	1	4
358.508	1	6
358.679	1	9
358.850	1	2
359.021	1	-4
359.192	1	5
359.363	1	7
359.533	1	0
359.704	1	-2
359.875	1	1
360.046	1	-1
360.217	1	9
360.388	1	2
360.559	1	3
360.730	1	2
360.901	1	9
361.072	1	-1
361.243	1	5
361.414	1	12
361.584	1	12
361.755	1	9
361.926	1	6
362.097	1	2
362.268	1	10
362.439	1	8
362.610	1	0
362.781	1	6
362.952	1	-1
363.123	1	7
363.293	1	4
363.464	1	11
363.635	1	5
363.806	1	8
363.977	1	20
364.148	1	15
364.319	1	6
364.490	1	-7
364.661	1	8
364.832	1	2
365.002	1	16
365.173	1	10
365.344	1	11
365.515	1	10
365.686	1	14
365.857	1	9
366.028	1	10
366.199	1	5
366.370	1	8
366.540	1	11
366.711	1	9
366.882	1	17
367.053	1	13
367.224	1	8
367.395	1	7
367.566	1	14
367.737	1	10
367.908	1	16
368.078	1	8
368.249	1	8
368.420	1	5
368.591	1	18
368.762	1	0
368.933	1	11
369.104	1	7
369.274	1	-2
369.445	1	8
369.616	1	-5
369.787	1	13
369.958	1	1
370.129	1	11
370.300	1	0
370.471	1	4
370.641	1	4
370.812	1	3
370.983	1	10
371.154	1	4
371.325	1	9
371.496	1	-3
371.667	1	3
371.837	1	-2
372.008	1	9
372.179	1	13
372.350	1	2
372.521	1	-2
372.692	1	8
372.863	1	8
373.033	1	8
373.204	1	1
373.375	1	3
373.546	1	3
373.717	1	5
373.888	1	-2
374.059	1	12
374.229	1	-12
374.400	1	1
374.571	1	-3
374.742	1	4
374.913	1	-8
375.084	1	2
375.254	1	6
375.425	1	1
375.596	1	-12
375.767	1	9
375.938	1	5
376.109	1	-5
376.279	1	-6
376.450	1	0
376.621	1	12
376.792	1	2
376.963	1	7
377.134	1	-3
377.304	1	16
377.475	1	6
377.646	1	5
377.817	1	10
377.988	1	4
378.159	1	15
378.329	1	7
378.500	1	0
378.671	1	-4
378.842	1	-2
379.013	1	-2
379.184	1	6
379.354	1	8
379.525	1	11
379.696	1	-7
379.867	1	4
380.038	1	16
380.209	1	7
380.379	1	-1
380.550	1	7
380.721	1	10
380.892	1	2
381.063	1	8
381.233	1	12
381.404	1	-1
381.575	1	-8
381.746	1	12
381.917	1	-2
382.087	1	10
382.258	1	17
382.429	1	8
382.600	1	12
382.771	1	5
382.941	1	24
383.112	1	6
383.283	1	13
383.454	1	17
383.625	1	11
383.795	1	12
383.966	1	9
384.137	1	13
384.308	1	13
384.479	1	27
384.649	1	15
384.820	1	13
384.991	1	13
385.162	1	17
385.333	1	23
385.503	1	10
385.674	1	7
385.845	1	18
386.016	1	14
386.187	1	24
386.357	1	19
386.528	1	23
386.699	1	34
386.870	1	28
387.041	1	19
387.211	1	12
387.382	1	11
387.553	1	28
387.724	1	17
387.894	1	23
388.065	1	10
388.236	1	20
388.407	1	18
388.578	1	23
388.748	1	22
388.919	1	17
389.090	1	26
389.261	1	-3
389.431	1	23
389.602	1	28
389.773	1	18
389.944	1	21
390.114	1	15
390.285	1	16
390.456	1	14
390.627	1	-4
390.798	1	21
390.968	1	4
391.139	1	17
391.310	1	11
391.481	1	12
391.651	1	25
391.822	1	25
391.993	1	24
392.164	1	12
392.334	1	21
392.505	1	19
392.676	1	21
392.847	1	13
393.017	1	4
393.188	1	17
393.359	1	18
393.530	1	9
393.700	1	14
393.871	1	9
394.042	1	16
394.213	1	19
394.383	1	16
394.554	1	14
394.725	1	12
394.896	1	7
395.066	1	15
395.237	1	18
395.408	1	13
395.579	1	29
395.749	1	22
395.920	1	18
396.091	1	13
396.262	1	12
396.432	1	4
396.603	1	12
396.774	1	3
396.945	1	19
397.115	1	18
397.286	1	22
397.457	1	18
397.627	1	21
397.798	1	22
397.969	1	10
398.140	1	10
398.310	1	31
398.481	1	8
398.652	1	19
398.823	1	27
398.993	1	13
399.164	1	31
399.335	1	16
399.505	1	22
399.676	1	25
399.847	1	5
400.018	1	13
400.188	1	27
400.359	1	6
400.530	1	21
400.700	1	9
400.871	1	5
401.042	1	13
401.213	1	15
401.383	1	25
401.554	1	11
401.725	1	9
401.895	1	16
402.066	1	14
402.237	1	18
402.408	1	6
402.578	1	18
402.749	1	9
402.920	1	6
403.090	1	2
403.261	1	18
403.432	1	15
403.603	1	16
403.773	1	18
403.944	1	13
404.115	1	-4
404.285	1	5
404.456	1	12
404.627	1	8
404.797	1	28
404.968	1	10
405.139	1	16
405.310	1	19
405.480	1	3
405.651	1	13
405.822	1	9
405.992	1	7
406.163	1	25
406.334	1	10
406.504	1	14
406.675	1	26
406.846	1	16
407.016	1	12
407.187	1	8
407.358	1	7
407.528	1	10
407.699	1	11
407.870	1	9
408.041	1	7
408.211	1	8
408.382	1	19
408.553	1	15
408.723	1	4
408.894	1	13
409.065	1	8
409.235	1	3
409.406	1	7
409.577	1	15
409.747	1	-2
409.918	1	10
410.089	1	11
410.259	1	8
410.430	1	16
410.601	1	-8
410.771	1	10
410.942	1	11
411.113	1	8
411.283	1	0
411.454	1	4
411.625	1	7
411.795	1	9
411.966	1	3
412.137	1	5
412.307	1	6
412.478	1	20
412.649	1	11
412.819	1	12
412.990	1	15
413.161	1	13
413.331	1	0
413.502	1	19
413.672	1	10
413.843	1	-5
414.014	1	1
414.184	1	4
414.355	1	1
414.526	1	9
414.696	1	8
414.867	1	15
415.038	1	6
415.208	1	-1
415.379	1	15
415.550	1	8
415.720	1	0
415.891	1	9
416.062	1	8
416.232	1	1
416.403	1	2
416.573	1	-2
416.744	1	4
416.915	1	-2
417.085	1	7
417.256	1	8
417.427	1	15
417.597	1	-4
417.768	1	-7
417.939	1	9
418.109	1	9
418.280	1	8
418.450	1	-1
418.621	1	8
418.792	1	1
418.962	1	10
419.133	1	7
419.304	1	4
419.474	1	-1
419.645	1	14
419.815	1	0
419.986	1	12
420.157	1	6
420.327	1	14
420.498	1	1
420.669	1	18
420.839	1	7
421.010	1	14
421.180	1	3
421.351	1	7
421.522	1	4
421.692	1	-2
421.863	1	-5
422.033	1	5
422.204	1	0
422.375	1	-5
422.545	1	7
422.716	1	4
422.886	1	8
423.057	1	5
423.228	1	-1
423.398	1	7
423.569	1	-3
423.740	1	3
423.910	1	-3
424.081	1	11
424.251	1	-6
424.422	1	7
424.593	1	1
424.763	1	6
424.934	1	2
425.104	1	15
425.275	1	-11
425.445	1	-6
425.616	1	-4
425.787	1	-10
425.957	1	19
426.128	1	9
426.298	1	0
426.469	1	5
426.640	1	-2
426.810	1	9
426.981	1	2
427.151	1	6
427.322	1	0
427.493	1	6
427.663	1	1
427.834	1	2
428.004	1	11
428.175	1	0
428.345	1	15
428.516	1	6
428.687	1	7
428.857	1	-3
429.028	1	-6
429.198	1	-6
429.369	1	7
429.540	1	3
429.710	1	-1
429.881	1	18
430.051	1	16
430.222	1	2
430.392	1	1
430.563	1	12
430.734	1	-3
430.904	1	6
431.075	1	6
431.245	1	11
431.416	1	3
431.586	1	7
431.757	1	3
431.927	1	2
432.098	1	-7
432.269	1	1
432.439	1	0
432.610	1	-2
432.780	1	-2
432.951	1	5
433.121	1	10
433.292	1	-2
433.462	1	9
433.633	1	1
433.804	1	-9
433.974	1	-6
434.145	1	6
434.315	1	5
434.486	1	4
434.656	1	8
434.827	1	0
434.997	1	8
435.168	1	3
435.339	1	11
435.509	1	1
435.680	1	-4
435.850	1	0
436.021	1	11
436.191	1	-7
436.362	1	2
436.532	1	11
436.703	1	12
436.873	1	4
437.044	1	2
437.214	1	-4
437.385	1	-2
437.556	1	0
437.726	1	0
437.897	1	-2
438.067	1	0
438.238	1	-9
438.408	1	5
438.579	1	13
438.749	1	5
438.920	1	-1
439.090	1	3
439.261	1	-1
439.431	1	-6
439.602	1	-1
439.772	1	8
439.943	1	3
440.113	1	6
440.284	1	4
440.455	1	-1
440.625	1	-4
440.796	1	2
440.966	1	-2
441.137	1	-11
441.307	1	0
441.478	1	2
441.648	1	-5
441.819	1	5
441.989	1	2
442.160	1	7
442.330	1	8
442.501	1	-16
442.671	1	6
442.842	1	4
443.012	1	4
443.183	1	1
443.353	1	0
443.524	1	-1
443.694	1	3
443.865	1	0
444.035	1	-9
444.206	1	4
444.376	1	-6
444.547	1	-4
444.717	1	8
444.888	1	-16
445.058	1	11
445.229	1	6
445.399	1	8
445.570	1	3
445.740	1	7
445.911	1	6
446.081	1	0
446.252	1	-3
446.422	1	6
446.593	1	2
446.763	1	15
446.934	1	9
447.104	1	-9
447.275	1	-3
447.445	1	-1
447.616	1	5
447.786	1	7
447.957	1	-4
448.127	1	-3
448.298	1	-3
448.468	1	10
448.639	1	-5
448.809	1	-4
448.979	1	4
449.150	1	-6
449.320	1	13
449.491	1	5
449.661	1	3
449.832	1	3
450.002	1	-4
450.173	1	-7
450.343	1	2
450.514	1	5
450.684	1	-6
450.855	1	6
451.025	1	0
451.196	1	3
451.366	1	-6
451.537	1	4
451.707	1	11
451.878	1	-10
452.048	1	-2
452.218	1	1
452.389	1	0
452.559	1	-1
452.730	1	5
452.900	1	8
453.071	1	2
453.241	1	-7
453.412	1	-1
453.582	1	12
453.753	1	-7
453.923	1	-1
454.093	1	7
454.264	1	-2
454.434	1	4
454.605	1	12
454.775	1	12
454.946	1	3
455.116	1	-10
455.287	1	16
455.457	1	-3
455.628	1	-3
455.798	1	-9
455.968	1	14
456.139	1	8
456.309	1	-2
456.480	1	3
456.650	1	3
456.821	1	-7
456.991	1	0
457.161	1	3
457.332	1	0
457.502	1	3
457.673	1	-3
457.843	1	5
458.014	1	2
458.184	1	1
458.355	1	6
458.525	1	-6
458.695	1	0
458.866	1	-5
459.036	1	2
459.207	1	3
459.377	1	3
459.548	1	4
459.718	1	-3
459.888	1	20
460.059	1	7
460.229	1	5
460.400	1	12
460.570	1	-4
460.740	1	-8
460.911	1	8
461.081	1	-2
461.252	1	-1
461.422	1	7
461.593	1	4
461.763	1	2
461.933	1	-4
462.104	1	3
462.274	1	5
462.445	1	-3
462.615	1	-5
462.785	1	3
462.956	1	0
463.126	1	-8
463.297	1	-1
463.467	1	-4
463.638	1	-1
463.808	1	4
463.978	1	-3
464.149	1	-12
464.319	1	3
464.490	1	-7
464.660	1	1
464.830	1	2
465.001	1	3
465.171	1	5
465.342	1	4
465.512	1	9
465.682	1	-1
465.853	1	-3
466.023	1	-2
466.194	1	3
466.364	1	6
466.534	1	-3
466.705	1	8
466.875	1	4
467.045	1	1
467.216	1	-5
467.386	1	-3
467.557	1	4
467.727	1	-7
467.897	1	7
468.068	1	8
468.238	1	-4
468.409	1	8
468.579	1	8
468.749	1	4
468.920	1	2
469.090	1	1
469.260	1	3
469.431	1	3
469.601	1	-11
469.772	1	-10
469.942	1	5
470.112	1	2
470.283	1	11
470.453	1	1
470.623	1	-5
470.794	1	-5
470.964	1	-5
471.135	1	-7
471.305	1	1
471.475	1	-1
471.646	1	7
471.816	1	-9
471.986	1	4
472.157	1	6
472.327	1	-3
472.497	1	3
472.668	1	-6
472.838	1	6
473.009	1	7
473.179	1	3
473.349	1	0
473.520	1	10
473.690	1	16
473.860	1	12
474.031	1	1
474.201	1	-2
474.371	1	-6
474.542	1	-2
474.712	1	2
474.882	1	5
475.053	1	-2
475.223	1	-6
475.394	1	5
475.564	1	13
475.734	1	-6
475.905	1	1
476.075	1	-1
476.245	1	-2
476.416	1	-7
476.586	1	6
476.756	1	4
476.927	1	7
477.097	1	1
477.267	1	-5
477.438	1	0
477.608	1	4
477.778	1	8
477.949	1	-1
478.119	1	4
478.289	1	-3
478.460	1	-1
478.630	1	1
478.800	1	-4
478.971	1	0
479.141	1	2
479.311	1	5
479.482	1	7
479.652	1	3
479.822	1	-3
479.993	1	6
480.163	1	-4
480.333	1	-6
480.504	1	-4
480.674	1	3
480.844	1	-1
481.015	1	-9
481.185	1	13
481.355	1	4
481.525	1	-2
481.696	1	3
481.866	1	1
482.036	1	-2
482.207	1	11
482.377	1	5
482.547	1	7
482.718	1	5
482.888	1	-10
483.058	1	-5
483.229	1	4
483.399	1	0
483.569	1	10
483.740	1	-11
483.910	1	3
484.080	1	-8
484.250	1	7
484.421	1	1
484.591	1	11
484.761	1	-4
484.932	1	5
485.102	1	5
485.272	1	10
485.443	1	9
485.613	1	-15
485.783	1	9
485.953	1	3
486.124	1	1
486.294	1	12
486.464	1	-3
486.635	1	7
486.805	1	9
486.975	1	-15
487.146	1	9
487.316	1	8
487.486	1	5
487.656	1	-4
487.827	1	8
487.997	1	6
488.167	1	8
488.338	1	15
488.508	1	6
488.678	1	8
488.848	1	2
489.019	1	-4
489.189	1	-1
489.359	1	2
489.529	1	2
489.700	1	4
489.870	1	-1
490.040	1	-3
490.211	1	11
490.381	1	4
490.551	1	0
490.721	1	10
490.892	1	6
491.062	1	9
491.232	1	0
491.402	1	-7
491.573	1	2
491.743	1	-5
491.913	1	4
492.084	1	8
492.254	1	1
492.424	1	2
492.594	1	2
492.765	1	6
492.935	1	-4
493.105	1	8
493.275	1	9
493.446	1	-1
493.616	1	8
493.786	1	4
493.956	1	10
494.127	1	-9
494.297	1	8
494.467	1	2
494.637	1	-9
494.808	1	6
494.978	1	-5
495.148	1	6
495.318	1	8
495.489	1	1
495.659	1	5
495.829	1	7
495.999	1	8
496.170	1	3
496.340	1	7
496.510	1	1
496.680	1	12
496.851	1	6
497.021	1	4
497.191	1	3
497.361	1	0
497.532	1	15
497.702	1	65
497.872	1	174
498.042	1	371
498.213	1	63
498.383	1	-1
498.553	1	21
498.723	1	5
498.894	1	8
499.064	1	19
499.234	1	6
499.404	1	9
499.574	1	-7
499.745	1	5
499.915	1	6
500.085	1	0
500.255	1	9
500.426	1	4
500.596	1	3
500.766	1	4
500.936	1	-5
501.106	1	-5
501.277	1	5
501.447	1	2
501.617	1	4
501.787	1	0
501.958	1	-5
502.128	1	3
502.298	1	14
502.468	1	10
502.638	1	1
502.809	1	7
502.979	1	4
503.149	1	4
503.319	1	4
503.489	1	8
503.660	1	0
503.830	1	4
504.000	1	-1
504.170	1	7
504.340	1	6
504.511	1	9
504.681	1	6
504.851	1	7
505.021	1	-3
505.192	1	15
505.362	1	14
505.532	1	2
505.702	1	5
505.872	1	-4
506.043	1	0
506.213	1	5
506.383	1	-1
506.553	1	21
506.723	1	7
506.893	1	6
507.064	1	-2
507.234	1	8
507.404	1	-2
507.574	1	-8
507.744	1	0
507.915	1	10
508.085	1	3
508.255	1	8
508.425	1	23
508.595	1	4
508.766	1	15
508.936	1	4
509.106	1	-3
509.276	1	9
509.446	1	0
509.616	1	7
509.787	1	1
509.957	1	7
510.127	1	10
510.297	1	-1
510.467	1	6
510.638	1	0
510.808	1	8
510.978	1	-1
511.148	1	21
511.318	1	-3
511.488	1	8
511.659	1	6
511.829	1	8
511.999	1	19
512.169	1	9
512.339	1	8
512.509	1	13
512.680	1	11
512.850	1	1
513.020	1	1
513.190	1	7
513.360	1	11
513.530	1	1
513.700	1	12
513.871	1	10
514.041	1	0
514.211	1	1
514.381	1	5
514.551	1	2
514.721	1	10
514.892	1	6
515.062	1	19
515.232	1	6
515.402	1	6
515.572	1	-6
515.742	1	12
515.912	1	4
516.083	1	6
516.253	1	7
516.423	1	12
516.593	1	-2
516.763	1	10
516.933	1	6
517.104	1	13
517.274	1	4
517.444	1	13
517.614	1	9
517.784	1	-1
517.954	1	-1
518.124	1	12
518.294	1	14
518.465	1	7
518.635	1	-2
518.805	1	13
518.975	1	17
519.145	1	7
519.315	1	-2
519.485	1	-2
519.656	1	9
519.826	1	4
519.996	1	18
520.166	1	9
520.336	1	8
520.506	1	17
520.676	1	11
520.846	1	2
521.017	1	2
521.187	1	7
521.357	1	2
521.527	1	8
521.697	1	16
521.867	1	9
522.037	1	8
522.207	1	2
522.377	1	15
522.548	1	0
522.718	1	1
522.888	1	2
523.058	1	24
523.228	1	24
523.398	1	5
523.568	1	-2
523.738	1	-3
523.909	1	14
524.079	1	13
524.249	1	3
524.419	1	4
524.589	1	5
524.759	1	5
524.929	1	9
525.099	1	4
525.269	1	8
525.439	1	9
525.610	1	3
525.780	1	12
525.950	1	-6
526.120	1	2
526.290	1	2
526.460	1	6
526.630	1	9
526.800	1	5
526.970	1	6
527.140	1	-2
527.311	1	19
527.481	1	18
527.651	1	19
527.821	1	7
527.991	1	7
528.161	1	7
528.331	1	4
528.501	1	2
528.671	1	15
528.841	1	11
529.011	1	-1
529.181	1	9
529.352	1	10
529.522	1	6
529.692	1	17
529.862	1	11
530.032	1	-1
530.202	1	4
530.372	1	0
530.542	1	19
530.712	1	17
530.882	1	5
531.052	1	6
531.222	1	-2
531.392	1	11
531.563	1	2
531.733	1	13
531.903	1	10
532.073	1	9
532.243	1	-3
532.413	1	17
532.583	1	3
532.753	1	14
532.923	1	10
533.093	1	15
533.263	1	9
533.433	1	10
533.603	1	2
533.773	1	6
533.943	1	9
534.113	1	9
534.284	1	12
534.454	1	8
534.624	1	21
534.794	1	-3
534.964	1	-1
535.134	1	-5
535.304	1	10
535.474	1	5
535.644	1	14
535.814	1	12
535.984	1	0
536.154	1	9
536.324	1	9
536.494	1	15
536.664	1	19
536.834	1	12
537.004	1	13
537.174	1	13
537.344	1	13
537.514	1	16
537.685	1	4
537.855	1	10
538.025	1	18
538.195	1	12
538.365	1	10
538.535	1	13
538.705	1	5
538.875	1	13
539.045	1	16
539.215	1	-1
539.385	1	6
539.555	1	11
539.725	1	10
539.895	1	7
540.065	1	6
540.235	1	1
540.405	1	12
540.575	1	8
540.745	1	9
540.915	1	12
541.085	1	4
541.255	1	2
541.425	1	2
541.595	1	14
541.765	1	-4
541.935	1	13
542.105	1	18
542.275	1	8
542.445	1	13
542.615	1	10
542.785	1	4
542.955	1	9
543.125	1	0
543.295	1	14
543.465	1	15
543.635	1	3
543.805	1	12
543.975	1	12
544.145	1	2
544.315	1	6
544.485	1	1
544.655	1	14
544.825	1	9
544.995	1	7
545.165	1	17
545.335	1	15
545.505	1	3
545.675	1	7
545.845	1	1
546.015	1	8
546.185	1	4
546.355	1	14
546.525	1	13
546.695	1	-3
546.865	1	4
547.035	1	8
547.205	1	-2
547.375	1	4
547.545	1	18
547.715	1	9
547.885	1	10
548.055	1	9
548.225	1	0
548.395	1	9
548.565	1	12
548.735	1	17
548.905	1	-6
549.075	1	-1
549.245	1	9
549.415	1	7
549.585	1	3
549.755	1	4
549.925	1	18
550.095	1	12
550.265	1	1
550.435	1	18
550.605	1	9
550.775	1	-2
550.945	1	18
551.115	1	1
551.285	1	9
551.455	1	11
551.625	1	7
551.795	1	4
551.965	1	5
552.135	1	5
552.305	1	-2
552.475	1	-3
552.645	1	14
552.815	1	17
552.985	1	11
553.155	1	5
553.325	1	17
553.495	1	9
553.665	1	11
553.835	1	9
554.004	1	8
554.174	1	9
554.344	1	3
554.514	1	9
554.684	1	5
554.854	1	6
555.024	1	4
555.194	1	12
555.364	1	9
555.534	1	5
555.704	1	5
555.874	1	2
556.044	1	8
556.214	1	3
556.384	1	3
556.554	1	5
556.724	1	-5
556.894	1	20
557.064	1	5
557.234	1	6
557.404	1	10
557.573	1	7
557.743	1	9
557.913	1	9
558.083	1	-4
558.253	1	-2
558.423	1	0
558.593	1	4
558.763	1	4
558.933	1	6
559.103	1	-2
559.273	1	2
559.443	1	11
559.613	1	3
559.783	1	10
559.953	1	0
560.122	1	-2
560.292	1	8
560.462	1	3
560.632	1	8
560.802	1	12
560.972	1	7
561.142	1	10
561.312	1	-1
561.482	1	17
561.652	1	9
561.822	1	10
561.992	1	9
562.162	1	3
562.331	1	8
562.501	1	1
562.671	1	8
562.841	1	-5
563.011	1	1
563.181	1	6
563.351	1	3
563.521	1	-1
563.691	1	9
563.861	1	10
564.031	1	6
564.201	1	10
564.370	1	10
564.540	1	20
564.710	1	-2
564.880	1	0
565.050	1	-6
565.220	1	3
565.390	1	2
565.560	1	8
565.730	1	10
565.900	1	1
566.069	1	16
566.239	1	1
566.409	1	6
566.579	1	4
566.749	1	8
566.919	1	7
567.089	1	5
567.259	1	14
567.429	1	11
567.599	1	3
567.768	1	8
567.938	1	2
568.108	1	4
568.278	1	-1
568.448	1	-1
568.618	1	1
568.788	1	0
568.958	1	9
569.128	1	4
569.297	1	9
569.467	1	9
569.637	1	-2
569.807	1	-7
569.977	1	10
570.147	1	3
570.317	1	20
570.487	1	-3
570.656	1	0
570.826	1	11
570.996	1	-1
571.166	1	4
571.336	1	-2
571.506	1	7
571.676	1	4
571.846	1	8
572.015	1	-7
572.185	1	1
572.355	1	23
572.525	1	1
572.695	1	14
572.865	1	10
573.035	1	9
573.205	1	14
573.374	1	1
573.544	1	-5
573.714	1	17
573.884	1	3
574.054	1	-2
574.224	1	5
574.394	1	-9
574.563	1	8
574.733	1	4
574.903	1	-3
575.073	1	7
575.243	1	-5
575.413	1	-2
575.583	1	13
575.752	1	3
575.922	1	8
576.092	1	12
576.262	1	2
576.432	1	-3
576.602	1	2
576.772	1	-3
576.941	1	-2
577.111	1	12
577.281	1	-1
577.451	1	9
577.621	1	7
577.791	1	3
577.960	1	-10
578.130	1	-4
578.300	1	8
578.470	1	5
578.640	1	5
578.810	1	1
578.979	1	5
579.149	1	-4
579.319	1	10
579.489	1	-7
579.659	1	13
579.829	1	3
579.998	1	0
580.168	1	2
580.338	1	-6
580.508	1	1
580.678	1	-1
580.848	1	0
581.017	1	-3
581.187	1	1
581.357	1	-1
581.527	1	3
581.697	1	-12
581.867	1	9
582.036	1	8
582.206	1	-11
582.376	1	1
582.546	1	4
582.716	1	5
582.885	1	0
583.055	1	-4
583.225	1	2
583.395	1	0
583.565	1	11
583.735	1	3
583.904	1	3
584.074	1	3
584.244	1	0
584.414	1	0
584.584	1	5
584.753	1	-2
584.923	1	2
585.093	1	10
585.263	1	1
585.433	1	3
585.602	1	0
585.772	1	3
585.942	1	9
586.112	1	9
586.282	1	5
586.451	1	-3
586.621	1	6
586.791	1	2
586.961	1	-7
587.131	1	2
587.300	1	1
587.470	1	1
587.640	1	-1
587.810	1	9
587.980	1	1
588.149	1	7
588.319	1	-7
588.489	1	12
588.659	1	1
588.829	1	0
588.998	1	-7
589.168	1	6
589.338	1	-1
589.508	1	5
589.677	1	11
589.847	1	5
590.017	1	-1
590.187	1	-5
590.357	1	-5
590.526	1	-4
590.696	1	-8
590.866	1	9
591.036	1	15
591.205	1	3
591.375	1	-12
591.545	1	-4
591.715	1	-5
591.885	1	20
592.054	1	2
592.224	1	5
592.394	1	0
592.564	1	-4
592.733	1	-4
592.903	1	4
593.073	1	5
593.243	1	-2
593.412	1	2
593.582	1	17
593.752	1	2
593.922	1	-2
594.091	1	12
594.261	1	2
594.431	1	2
594.601	1	-1
594.771	1	10
594.940	1	-8
595.110	1	-1
595.280	1	-1
595.450	1	-1
595.619	1	4
595.789	1	10
595.959	1	0
596.129	1	1
596.298	1	14
596.468	1	4
596.638	1	4
596.808	1	10
596.977	1	-2
597.147	1	-3
597.317	1	2
597.487	1	1
597.656	1	3
597.826	1	7
597.996	1	-2
598.166	1	3
598.335	1	-4
598.505	1	-4
598.675	1	9
598.844	1	-2
599.014	1	-4
599.184	1	-9
599.354	1	-6
599.523	1	12
599.693	1	11
599.863	1	6
600.033	1	4
600.202	1	2
600.372	1	-2
600.542	1	-1
600.712	1	2
600.881	1	5
601.051	1	14
601.221	1	2
601.390	1	-12
601.560	1	4
601.730	1	3
601.900	1	0
602.069	1	-5
602.239	1	-14
602.409	1	-6
602.578	1	11
602.748	1	-8
602.918	1	-2
603.088	1	4
603.257	1	5
603.427	1	9
603.597	1	17
603.767	1	-10
603.936	1	6
604.106	1	-4
604.276	1	-1
604.445	1	5
604.615	1	0
604.785	1	8
604.954	1	2
605.124	1	-8
605.294	1	-1
605.464	1	1
605.633	1	8
605.803	1	5
605.973	1	-4
606.142	1	1
606.312	1	1
606.482	1	-1
606.652	1	2
606.821	1	11
606.991	1	-2
607.161	1	-2
607.330	1	-3
607.500	1	4
607.670	1	-5
607.839	1	-5
608.009	1	-11
608.179	1	12
608.348	1	2
608.518	1	5
608.688	1	4
608.858	1	2
609.027	1	-2
609.197	1	-8
609.367	1	-4
609.536	1	0
609.706	1	5
609.876	1	0
610.045	1	4
610.215	1	-2
610.385	1	-3
610.554	1	2
610.724	1	5
610.894	1	11
611.063	1	5
611.233	1	-15
611.403	1	2
611.572	1	5
611.742	1	-3
611.912	1	2
612.081	1	-5
612.251	1	7
612.421	1	10
612.590	1	6
612.760	1	-5
612.930	1	7
613.099	1	-19
613.269	1	4
613.439	1	-5
613.608	1	6
613.778	1	2
613.948	1	14
614.117	1	2
614.287	1	-3
614.457	1	2
614.626	1	5
614.796	1	12
614.966	1	2
615.135	1	-8
615.305	1	0
615.475	1	1
615.644	1	-4
615.814	1	3
615.984	1	8
616.153	1	6
616.323	1	8
616.493	1	2
616.662	1	4
616.832	1	-6
617.002	1	1
617.171	1	-5
617.341	1	2
617.511	1	8
617.680	1	4
617.850	1	2
618.019	1	-1
618.189	1	0
618.359	1	-1
618.528	1	0
618.698	1	-5
618.868	1	9
619.037	1	13
619.207	1	-6
619.377	1	-2
619.546	1	5
619.716	1	-6
619.885	1	0
620.055	1	2
620.225	1	-3
620.394	1	-3
620.564	1	1
620.734	1	6
620.903	1	16
621.073	1	-3
621.242	1	-9
621.412	1	3
621.582	1	-1
621.751	1	3
621.921	1	3
622.091	1	-2
622.260	1	-1
622.430	1	5
622.599	1	4
622.769	1	-2
622.939	1	-3
623.108	1	1
623.278	1	-2
623.448	1	5
623.617	1	8
623.787	1	-6
623.956	1	3
624.126	1	5
624.296	1	-11
624.465	1	5
624.635	1	2
624.804	1	-6
624.974	1	0
625.144	1	4
625.313	1	6
625.483	1	15
625.652	1	15
625.822	1	3
625.992	1	-5
626.161	1	11
626.331	1	10
626.501	1	1
626.670	1	-3
626.840	1	3
627.009	1	-15
627.179	1	-2
627.348	1	1
627.518	1	1
627.688	1	4
627.857	1	4
628.027	1	12
628.196	1	2
628.366	1	5
628.536	1	-7
628.705	1	-2
628.875	1	14
629.044	1	8
629.214	1	1
629.384	1	-5
629.553	1	1
629.723	1	11
629.892	1	0
630.062	1	1
630.232	1	10
630.401	1	4
630.571	1	1
630.740	1	4
630.910	1	-3
631.079	1	11
631.249	1	-2
631.419	1	5
631.588	1	-4
631.758	1	6
631.927	1	-3
632.097	1	4
632.266	1	-13
632.436	1	-1
632.606	1	16
632.775	1	-2
632.945	1	1
633.114	1	6
633.284	1	-6
633.453	1	2
633.623	1	1
633.793	1	-3
633.962	1	8
634.132	1	4
634.301	1	2
634.471	1	-7
634.640	1	0
634.810	1	0
634.979	1	2
635.149	1	2
635.319	1	5
635.488	1	11
635.658	1	-4
635.827	1	1
635.997	1	3
636.166	1	-2
636.336	1	10
636.505	1	-1
636.675	1	0
636.845	1	9
637.014	1	-3
637.184	1	4
637.353	1	6
637.523	1	-2
637.692	1	-3
637.862	1	-8
638.031	1	4
638.201	1	4
638.370	1	0
638.540	1	-6
638.710	1	-3
638.879	1	0
639.049	1	1
639.218	1	0
639.388	1	6
639.557	1	6
639.727	1	1
639.896	1	9
640.066	1	3
640.235	1	0
640.405	1	0
640.574	1	-6
640.744	1	-2
640.914	1	-6
641.083	1	3
641.253	1	-2
641.422	1	-12
641.592	1	-9
641.761	1	6
641.931	1	5
642.100	1	2
642.270	1	-7
642.439	1	3
642.609	1	2
642.778	1	-3
642.948	1	-3
643.117	1	-1
643.287	1	0
643.456	1	12
643.626	1	1
643.795	1	8
643.965	1	1
644.134	1	-1
644.304	1	-5
644.473	1	-3
644.643	1	4
644.812	1	15
644.982	1	2
645.151	1	-3
645.321	1	13
645.490	1	-1
645.660	1	-5
645.829	1	-6
645.999	1	-4
646.168	1	4
646.338	1	4
646.507	1	0
646.677	1	4
646.846	1	5
647.016	1	-4
647.185	1	-6
647.355	1	-4
647.524	1	3
647.694	1	-10
647.863	1	-11
648.033	1	-9
648.202	1	7
648.372	1	4
648.541	1	-6
648.711	1	3
648.880	1	6
649.050	1	-6
649.219	1	4
649.389	1	-5
649.558	1	-10
649.728	1	0
649.897	1	-3
650.067	1	-8
650.236	1	16
650.406	1	8
650.575	1	-1
650.745	1	-6
650.914	1	5
651.084	1	-8
651.253	1	2
651.423	1	2
651.592	1	-2
651.762	1	10
651.931	1	6
652.101	1	0
652.270	1	-2
652.440	1	5
652.609	1	5
652.778	1	-15
652.948	1	1
653.117	1	3
653.287	1	1
653.456	1	0
653.626	1	11
653.795	1	1
653.965	1	3
654.134	1	2
654.304	1	10
654.473	1	-2
654.643	1	12
654.812	1	-7
654.982	1	-9
655.151	1	-3
655.320	1	-2
655.490	1	11
655.659	1	1
655.829	1	7
655.998	1	6
656.168	1	6
656.337	1	-8
656.507	1	10
656.676	1	-11
656.846	1	-11
657.015	1	0
657.184	1	1
657.354	1	4
657.523	1	0
657.693	1	1
657.862	1	5
658.032	1	3
658.201	1	1
658.371	1	-8
658.540	1	-8
658.709	1	-2
658.879	1	4
659.048	1	4
659.218	1	-1
659.387	1	-5
659.557	1	6
659.726	1	-4
659.895	1	6
660.065	1	6
660.234	1	-3
660.404	1	5
660.573	1	-8
660.743	1	-3
660.912	1	-5
661.081	1	4
661.251	1	2
661.420	1	-1
661.590	1	5
661.759	1	9
661.929	1	6
662.098	1	-22
662.267	1	10
662.437	1	4
662.606	1	-5
662.776	1	11
662.945	1	1
663.115	1	-5
663.284	1	-1
663.453	1	5
663.623	1	0
663.792	1	-2
663.962	1	-10
664.131	1	-3
664.300	1	5
664.470	1	-6
664.639	1	-2
664.809	1	1
664.978	1	-4
665.148	1	-1
665.317	1	-8
665.486	1	1
665.656	1	3
665.825	1	4
665.995	1	9
666.164	1	5
666.333	1	2
666.503	1	-11
666.672	1	-7
666.842	1	-3
667.011	1	2
667.180	1	-4
667.350	1	8
667.519	1	-2
667.689	1	9
667.858	1	0
668.027	1	-5
668.197	1	-4
668.366	1	2
668.536	1	-1
668.705	1	0
668.874	1	-10
669.044	1	-2
669.213	1	3
669.382	1	1
669.552	1	8
669.721	1	-8
669.891	1	1
670.060	1	-3
670.229	1	5
670.399	1	-5
670.568	1	-1
670.738	1	-3
670.907	1	-9
671.076	1	7
671.246	1	2
671.415	1	-2
671.584	1	5
671.754	1	-10
671.923	1	-5
672.093	1	1
672.262	1	0
672.431	1	-1
672.601	1	-2
672.770	1	4
672.939	1	1
673.109	1	-1
673.278	1	3
673.448	1	-5
673.617	1	4
673.786	1	2
