325.333	1	0
325.504	1	3
325.675	1	-1
325.846	1	-8
326.017	1	-6
326.188	1	3
326.359	1	10
326.531	1	-5
326.702	1	1
326.873	1	8
327.044	1	0
327.215	1	-7
327.386	1	-9
327.557	1	4
327.728	1	-6
327.899	1	-1
328.070	1	7
328.241	1	-2
328.412	1	4
328.583	1	-11
328.754	1	-7
328.926	1	0
329.097	1	0
329.268	1	-3
329.439	1	-9
329.610	1	-4
329.781	1	2
329.952	1	8
330.123	1	-2
330.294	1	6
330.465	1	6
330.636	1	1
330.807	1	-2
330.978	1	-9
331.149	1	8
331.320	1	-3
331.492	1	-3
331.663	1	-8
331.834	1	12
332.005	1	5
332.176	1	-4
332.347	1	2
332.518	1	8
332.689	1	-1
332.860	1	-8
333.031	1	-1
333.202	1	-9
333.373	1	-7
333.544	1	-4
333.715	1	-1
333.886	1	1
334.057	1	-11
334.228	1	1
334.399	1	4
334.570	1	-4
334.741	1	-12
334.912	1	-5
335.084	1	-6
335.255	1	4
335.426	1	-5
335.597	1	-1
335.768	1	9
335.939	1	-6
336.110	1	-3
336.281	1	-14
336.452	1	-3
336.623	1	8
336.794	1	0
336.965	1	1
337.136	1	-3
337.307	1	5
337.478	1	7
337.649	1	5
337.820	1	18
337.991	1	2
338.162	1	1
338.333	1	-3
338.504	1	3
338.675	1	6
338.846	1	5
339.017	1	3
339.188	1	2
339.359	1	3
339.530	1	1
339.701	1	0
339.872	1	6
340.043	1	-5
340.214	1	-4
340.385	1	2
340.556	1	2
340.727	1	-2
340.898	1	-10
341.069	1	-5
341.240	1	5
341.411	1	0
341.582	1	-7
341.753	1	-1
341.924	1	-4
342.095	1	5
342.266	1	-5
342.437	1	3
342.608	1	-7
342.779	1	-2
342.950	1	4
343.121	1	9
343.292	1	-2
343.463	1	-5
343.634	1	2
343.805	1	8
343.976	1	-1
344.147	1	-9
344.318	1	3
344.489	1	-5
344.660	1	9
344.831	1	-5
345.002	1	0
345.173	1	9
345.344	1	-8
345.515	1	-5
345.686	1	-2
345.857	1	-11
346.028	1	1
346.199	1	2
346.370	1	0
346.541	1	-1
346.712	1	10
346.883	1	-1
347.054	1	0
347.225	1	-7
347.396	1	0
347.567	1	1
347.738	1	13
347.909	1	2
348.080	1	1
348.251	1	7
348.422	1	10
348.593	1	-3
348.764	1	-14
348.935	1	4
349.106	1	0
349.277	1	-4
349.448	1	0
349.619	1	-2
349.790	1	5
349.961	1	-1
350.132	1	1
350.303	1	-6
350.474	1	2
350.645	1	-3
350.816	1	-10
350.987	1	-2
351.157	1	6
351.328	1	-6
351.499	1	2
351.670	1	13
351.841	1	8
352.012	1	-17
352.183	1	-6
352.354	1	0
352.525	1	-3
352.696	1	-4
352.867	1	-4
353.038	1	3
353.209	1	12
353.380	1	-3
353.551	1	-8
353.722	1	0
353.893	1	-1
354.064	1	5
354.235	1	-2
354.406	1	-1
354.576	1	6
354.747	1	-1
354.918	1	5
355.089	1	-5
355.260	1	-9
355.431	1	3
355.602	1	-3
355.773	1	-6
355.944	1	10
356.115	1	-9
356.286	1	-1
356.457	1	-5
356.628	1	6
356.799	1	3
356.970	1	-5
357.141	1	-7
357.311	1	4
357.482	1	-2
357.653	1	-2
357.824	1	2
357.995	1	6
358.166	1	2
358.337	1	1
358.508	1	-8
358.679	1	8
358.850	1	-7
359.021	1	-16
359.192	1	3
359.363	1	0
359.533	1	-7
359.704	1	2
359.875	1	-1
360.046	1	-7
360.217	1	17
360.388	1	3
360.559	1	-2
360.730	1	-5
360.901	1	8
361.072	1	-6
361.243	1	11
361.414	1	8
361.584	1	10
361.755	1	4
361.926	1	3
362.097	1	-6
362.268	1	6
362.439	1	-6
362.610	1	-9
362.781	1	2
362.952	1	10
363.123	1	5
363.293	1	-5
363.464	1	17
363.635	1	1
363.806	1	11
363.977	1	13
364.148	1	11
364.319	1	-5
364.490	1	-6
364.661	1	9
364.832	1	-1
365.002	1	7
365.173	1	5
365.344	1	7
365.515	1	7
365.686	1	6
365.857	1	6
366.028	1	0
366.199	1	12
366.370	1	12
366.540	1	21
366.711	1	8
366.882	1	5
367.053	1	0
367.224	1	4
367.395	1	11
367.566	1	5
367.737	1	5
367.908	1	6
368.078	1	12
368.249	1	0
368.420	1	1
368.591	1	16
368.762	1	1
368.933	1	9
369.104	1	8
369.274	1	0
369.445	1	-1
369.616	1	-1
369.787	1	2
369.958	1	9
370.129	1	6
370.300	1	-3
370.471	1	4
370.641	1	1
370.812	1	-1
370.983	1	14
371.154	1	6
371.325	1	4
371.496	1	-3
371.667	1	0
371.837	1	-10
372.008	1	4
372.179	1	-1
372.350	1	1
372.521	1	-4
372.692	1	2
372.863	1	-1
373.033	1	8
373.204	1	8
373.375	1	2
373.546	1	-2
373.717	1	2
373.888	1	-5
374.059	1	3
374.229	1	-4
374.400	1	0
374.571	1	-2
374.742	1	12
374.913	1	2
375.084	1	-9
375.254	1	-7
375.425	1	2
375.596	1	3
375.767	1	2
375.938	1	12
376.109	1	-6
376.279	1	-6
376.450	1	-3
376.621	1	14
376.792	1	3
376.963	1	9
377.134	1	4
377.304	1	8
377.475	1	2
377.646	1	2
377.817	1	5
377.988	1	8
378.159	1	4
378.329	1	4
378.500	1	-11
378.671	1	-1
378.842	1	-9
379.013	1	-7
379.184	1	4
379.354	1	6
379.525	1	-8
379.696	1	-3
379.867	1	12
380.038	1	4
380.209	1	14
380.379	1	0
380.550	1	9
380.721	1	9
380.892	1	-2
381.063	1	0
381.233	1	16
381.404	1	6
381.575	1	10
381.746	1	7
381.917	1	0
382.087	1	-4
382.258	1	13
382.429	1	-7
382.600	1	4
382.771	1	3
382.941	1	5
383.112	1	0
383.283	1	7
383.454	1	6
383.625	1	8
383.795	1	21
383.966	1	6
384.137	1	11
384.308	1	12
384.479	1	11
384.649	1	10
384.820	1	-4
384.991	1	14
385.162	1	11
385.333	1	8
385.503	1	8
385.674	1	14
385.845	1	8
386.016	1	2
386.187	1	22
386.357	1	2
386.528	1	21
386.699	1	15
386.870	1	19
387.041	1	14
387.211	1	11
387.382	1	4
387.553	1	13
387.724	1	9
387.894	1	13
388.065	1	9
388.236	1	21
388.407	1	19
388.578	1	16
388.748	1	11
388.919	1	6
389.090	1	22
389.261	1	1
389.431	1	15
389.602	1	15
389.773	1	13
389.944	1	2
390.114	1	11
390.285	1	2
390.456	1	8
390.627	1	5
390.798	1	8
390.968	1	2
391.139	1	6
391.310	1	5
391.481	1	2
391.651	1	18
391.822	1	16
391.993	1	7
392.164	1	14
392.334	1	14
392.505	1	19
392.676	1	11
392.847	1	9
393.017	1	-8
393.188	1	8
393.359	1	10
393.530	1	5
393.700	1	15
393.871	1	5
394.042	1	15
394.213	1	21
394.383	1	10
394.554	1	13
394.725	1	0
394.896	1	5
395.066	1	17
395.237	1	22
395.408	1	22
395.579	1	15
395.749	1	10
395.920	1	17
396.091	1	11
396.262	1	17
396.432	1	1
396.603	1	4
396.774	1	7
396.945	1	12
397.115	1	20
397.286	1	16
397.457	1	7
397.627	1	9
397.798	1	-4
397.969	1	6
398.140	1	12
398.310	1	16
398.481	1	8
398.652	1	13
398.823	1	21
398.993	1	1
399.164	1	17
399.335	1	5
399.505	1	12
399.676	1	16
399.847	1	13
400.018	1	15
400.188	1	6
400.359	1	12
400.530	1	6
400.700	1	10
400.871	1	-12
401.042	1	9
401.213	1	2
401.383	1	17
401.554	1	7
401.725	1	7
401.895	1	20
402.066	1	10
402.237	1	3
402.408	1	1
402.578	1	8
402.749	1	-5
402.920	1	0
403.090	1	11
403.261	1	7
403.432	1	-3
403.603	1	-7
403.773	1	15
403.944	1	6
404.115	1	-3
404.285	1	-2
404.456	1	11
404.627	1	14
404.797	1	23
404.968	1	9
405.139	1	2
405.310	1	8
405.480	1	11
405.651	1	13
405.822	1	13
405.992	1	6
406.163	1	16
406.334	1	8
406.504	1	-2
406.675	1	18
406.846	1	3
407.016	1	3
407.187	1	0
407.358	1	-1
407.528	1	5
407.699	1	7
407.870	1	7
408.041	1	10
408.211	1	2
408.382	1	12
408.553	1	18
408.723	1	2
408.894	1	-4
409.065	1	22
409.235	1	0
409.406	1	2
409.577	1	9
409.747	1	-2
409.918	1	6
410.089	1	2
410.259	1	-1
410.430	1	18
410.601	1	0
410.771	1	7
410.942	1	1
411.113	1	4
411.283	1	0
411.454	1	6
411.625	1	8
411.795	1	13
411.966	1	-3
412.137	1	2
412.307	1	5
412.478	1	22
412.649	1	8
412.819	1	10
412.990	1	19
413.161	1	-5
413.331	1	-13
413.502	1	6
413.672	1	7
413.843	1	14
414.014	1	8
414.184	1	-2
414.355	1	0
414.526	1	2
414.696	1	-7
414.867	1	13
415.038	1	-4
415.208	1	5
415.379	1	14
415.550	1	11
415.720	1	0
415.891	1	7
416.062	1	-2
416.232	1	11
416.403	1	8
416.573	1	0
416.744	1	1
416.915	1	-4
417.085	1	0
417.256	1	-5
417.427	1	3
417.597	1	-1
417.768	1	8
417.939	1	2
418.109	1	8
418.280	1	-3
418.450	1	-1
418.621	1	7
418.792	1	5
418.962	1	6
419.133	1	2
419.304	1	6
419.474	1	-8
419.645	1	6
419.815	1	-2
419.986	1	3
420.157	1	2
420.327	1	9
420.498	1	18
420.669	1	14
420.839	1	4
421.010	1	3
421.180	1	5
421.351	1	1
421.522	1	3
421.692	1	7
421.863	1	5
422.033	1	-6
422.204	1	-8
422.375	1	5
422.545	1	17
422.716	1	-3
422.886	1	8
423.057	1	-3
423.228	1	-8
423.398	1	9
423.569	1	8
423.740	1	0
423.910	1	-13
424.081	1	6
424.251	1	5
424.422	1	8
424.593	1	7
424.763	1	5
424.934	1	-5
425.104	1	9
425.275	1	-5
425.445	1	-5
425.616	1	2
425.787	1	-15
425.957	1	11
426.128	1	-2
426.298	1	2
426.469	1	3
426.640	1	3
426.810	1	15
426.981	1	-10
427.151	1	0
427.322	1	-1
427.493	1	2
427.663	1	5
427.834	1	2
428.004	1	9
428.175	1	4
428.345	1	13
428.516	1	1
428.687	1	8
428.857	1	3
429.028	1	-6
429.198	1	-7
429.369	1	6
429.540	1	8
429.710	1	1
429.881	1	6
430.051	1	7
430.222	1	4
430.392	1	-3
430.563	1	10
430.734	1	-3
430.904	1	-3
431.075	1	2
431.245	1	11
431.416	1	-13
431.586	1	7
431.757	1	3
431.927	1	5
432.098	1	-1
432.269	1	4
432.439	1	-3
432.610	1	-8
432.780	1	-5
432.951	1	-5
433.121	1	11
433.292	1	0
433.462	1	-1
433.633	1	-12
433.804	1	-2
433.974	1	-1
434.145	1	7
434.315	1	2
434.486	1	3
434.656	1	-8
434.827	1	0
434.997	1	19
435.168	1	4
435.339	1	4
435.509	1	3
435.680	1	2
435.850	1	4
436.021	1	2
436.191	1	0
436.362	1	-8
436.532	1	0
436.703	1	7
436.873	1	0
437.044	1	13
437.214	1	-2
437.385	1	-3
437.556	1	6
437.726	1	-4
437.897	1	6
438.067	1	-8
438.238	1	-8
438.408	1	-4
438.579	1	15
438.749	1	3
438.920	1	-1
439.090	1	2
439.261	1	0
439.431	1	-2
439.602	1	5
439.772	1	4
439.943	1	-4
440.113	1	-6
440.284	1	8
440.455	1	0
440.625	1	1
440.796	1	5
440.966	1	7
441.137	1	-5
441.307	1	3
441.478	1	5
441.648	1	-12
441.819	1	10
441.989	1	-3
442.160	1	-3
442.330	1	6
442.501	1	-4
442.671	1	-3
442.842	1	-1
443.012	1	4
443.183	1	-5
443.353	1	8
443.524	1	-1
443.694	1	4
443.865	1	-1
444.035	1	0
444.206	1	2
444.376	1	4
444.547	1	5
444.717	1	12
444.888	1	-5
445.058	1	0
445.229	1	3
445.399	1	12
445.570	1	8
445.740	1	5
445.911	1	13
446.081	1	2
446.252	1	-7
446.422	1	-4
446.593	1	0
446.763	1	11
446.934	1	-2
447.104	1	-1
447.275	1	1
447.445	1	1
447.616	1	-5
447.786	1	4
447.957	1	0
448.127	1	-1
448.298	1	6
448.468	1	-1
448.639	1	1
448.809	1	4
448.979	1	-2
449.150	1	1
449.320	1	4
449.491	1	-12
449.661	1	4
449.832	1	-12
450.002	1	0
450.173	1	-4
450.343	1	4
450.514	1	2
450.684	1	-10
450.855	1	2
451.025	1	-4
451.196	1	2
451.366	1	13
451.537	1	4
451.707	1	0
451.878	1	0
452.048	1	-6
452.218	1	-4
452.389	1	-11
452.559	1	-3
452.730	1	5
452.900	1	0
453.071	1	2
453.241	1	-5
453.412	1	-4
453.582	1	3
453.753	1	-2
453.923	1	8
454.093	1	-5
454.264	1	-1
454.434	1	2
454.605	1	-1
454.775	1	7
454.946	1	0
455.116	1	0
455.287	1	-3
455.457	1	-4
455.628	1	-13
455.798	1	-4
455.968	1	5
456.139	1	4
456.309	1	-2
456.480	1	-7
456.650	1	-4
456.821	1	1
456.991	1	12
457.161	1	3
457.332	1	0
457.502	1	1
457.673	1	-4
457.843	1	4
458.014	1	6
458.184	1	7
458.355	1	3
458.525	1	-2
458.695	1	-1
458.866	1	-5
459.036	1	11
459.207	1	-7
459.377	1	0
459.548	1	-2
459.718	1	-6
459.888	1	1
460.059	1	1
460.229	1	9
460.400	1	2
460.570	1	-10
460.740	1	-10
460.911	1	8
461.081	1	-5
461.252	1	-5
461.422	1	4
461.593	1	3
461.763	1	0
461.933	1	-5
462.104	1	-5
462.274	1	7
462.445	1	-6
462.615	1	-6
462.785	1	-7
462.956	1	3
463.126	1	1
463.297	1	1
463.467	1	9
463.638	1	10
463.808	1	15
463.978	1	-3
464.149	1	-3
464.319	1	-8
464.490	1	-9
464.660	1	3
464.830	1	2
465.001	1	0
465.171	1	11
465.342	1	4
465.512	1	5
465.682	1	2
465.853	1	4
466.023	1	-10
466.194	1	-2
466.364	1	1
466.534	1	0
466.705	1	11
466.875	1	9
467.045	1	8
467.216	1	-6
467.386	1	6
467.557	1	1
467.727	1	-10
467.897	1	6
468.068	1	7
468.238	1	-6
468.409	1	-2
468.579	1	-1
468.749	1	4
468.920	1	-2
469.090	1	3
469.260	1	7
469.431	1	1
469.601	1	5
469.772	1	-14
469.942	1	0
470.112	1	6
470.283	1	12
470.453	1	0
470.623	1	-1
470.794	1	-4
470.964	1	-3
471.135	1	-11
471.305	1	-6
471.475	1	-5
471.646	1	9
471.816	1	8
471.986	1	4
472.157	1	6
472.327	1	-11
472.497	1	-1
472.668	1	1
472.838	1	3
473.009	1	5
473.179	1	3
473.349	1	11
473.520	1	-4
473.690	1	2
473.860	1	-9
474.031	1	4
474.201	1	-4
474.371	1	0
474.542	1	-5
474.712	1	8
474.882	1	-9
475.053	1	-10
475.223	1	1
475.394	1	3
475.564	1	11
475.734	1	-8
475.905	1	2
476.075	1	0
476.245	1	-1
476.416	1	-4
476.586	1	3
476.756	1	-2
476.927	1	5
477.097	1	-1
477.267	1	-3
477.438	1	-6
477.608	1	7
477.778	1	2
477.949	1	-3
478.119	1	2
478.289	1	-6
478.460	1	-8
478.630	1	-1
478.800	1	-10
478.971	1	3
479.141	1	9
479.311	1	4
479.482	1	-2
479.652	1	1
479.822	1	-12
479.993	1	9
480.163	1	-5
480.333	1	-6
480.504	1	-1
480.674	1	-1
480.844	1	11
481.015	1	-1
481.185	1	9
481.355	1	7
481.525	1	2
481.696	1	10
481.866	1	6
482.036	1	-11
482.207	1	1
482.377	1	5
482.547	1	-4
482.718	1	5
482.888	1	-10
483.058	1	-3
483.229	1	4
483.399	1	-3
483.569	1	8
483.740	1	-18
483.910	1	7
484.080	1	-3
484.250	1	7
484.421	1	-2
484.591	1	4
484.761	1	-13
484.932	1	2
485.102	1	6
485.272	1	0
485.443	1	9
485.613	1	-14
485.783	1	2
485.953	1	3
486.124	1	7
486.294	1	-2
486.464	1	-2
486.635	1	1
486.805	1	9
486.975	1	-16
487.146	1	-4
487.316	1	11
487.486	1	-1
487.656	1	-8
487.827	1	8
487.997	1	10
488.167	1	4
488.338	1	19
488.508	1	5
488.678	1	3
488.848	1	-2
489.019	1	-3
489.189	1	-4
489.359	1	-2
489.529	1	-3
489.700	1	-2
489.870	1	2
490.040	1	9
490.211	1	8
490.381	1	-11
490.551	1	-6
490.721	1	8
490.892	1	4
491.062	1	16
491.232	1	10
491.402	1	-12
491.573	1	9
491.743	1	-10
491.913	1	2
492.084	1	2
492.254	1	4
492.424	1	1
492.594	1	2
492.765	1	7
492.935	1	-8
493.105	1	5
493.275	1	8
493.446	1	-6
493.616	1	-2
493.786	1	0
493.956	1	4
494.127	1	-1
494.297	1	6
494.467	1	7
494.637	1	1
494.808	1	2
494.978	1	6
495.148	1	14
495.318	1	10
495.489	1	-1
495.659	1	6
495.829	1	7
495.999	1	9
496.170	1	-11
496.340	1	-1
496.510	1	2
496.680	1	5
496.851	1	3
497.021	1	0
497.191	1	-1
497.361	1	2
497.532	1	1
497.702	1	-8
497.872	1	-4
498.042	1	10
498.213	1	3
498.383	1	-6
498.553	1	7
498.723	1	3
498.894	1	0
499.064	1	19
499.234	1	-8
499.404	1	4
499.574	1	-8
499.745	1	4
499.915	1	2
500.085	1	-1
500.255	1	14
500.426	1	-4
500.596	1	1
500.766	1	12
500.936	1	0
501.106	1	4
501.277	1	-2
501.447	1	1
501.617	1	-4
501.787	1	-8
501.958	1	-1
502.128	1	-5
502.298	1	0
502.468	1	5
502.638	1	13
502.809	1	11
502.979	1	-3
503.149	1	9
503.319	1	4
503.489	1	3
503.660	1	-5
503.830	1	-3
504.000	1	3
504.170	1	4
504.340	1	4
504.511	1	7
504.681	1	0
504.851	1	-8
505.021	1	4
505.192	1	4
505.362	1	-2
505.532	1	4
505.702	1	4
505.872	1	-16
506.043	1	5
506.213	1	4
506.383	1	3
506.553	1	1
506.723	1	2
506.893	1	5
507.064	1	-11
507.234	1	10
507.404	1	4
507.574	1	2
507.744	1	-11
507.915	1	5
508.085	1	9
508.255	1	11
508.425	1	13
508.595	1	3
508.766	1	-5
508.936	1	2
509.106	1	3
509.276	1	6
509.446	1	4
509.616	1	7
509.787	1	-1
509.957	1	-3
510.127	1	9
510.297	1	-9
510.467	1	-1
510.638	1	-3
510.808	1	1
510.978	1	-10
511.148	1	14
511.318	1	3
511.488	1	12
511.659	1	7
511.829	1	-4
511.999	1	13
512.169	1	7
512.339	1	12
512.509	1	-9
512.680	1	8
512.850	1	-1
513.020	1	3
513.190	1	-3
513.360	1	6
513.530	1	-5
513.700	1	7
513.871	1	12
514.041	1	8
514.211	1	-9
514.381	1	6
514.551	1	-1
514.721	1	5
514.892	1	2
515.062	1	6
515.232	1	11
515.402	1	5
515.572	1	-7
515.742	1	4
515.912	1	10
516.083	1	0
516.253	1	-7
516.423	1	13
516.593	1	2
516.763	1	4
516.933	1	1
517.104	1	10
517.274	1	1
517.444	1	6
517.614	1	-2
517.784	1	1
517.954	1	-3
518.124	1	14
518.294	1	2
518.465	1	5
518.635	1	2
518.805	1	9
518.975	1	5
519.145	1	6
519.315	1	4
519.485	1	7
519.656	1	8
519.826	1	8
519.996	1	7
520.166	1	0
520.336	1	8
520.506	1	15
520.676	1	3
520.846	1	-3
521.017	1	-12
521.187	1	7
521.357	1	2
521.527	1	5
521.697	1	7
521.867	1	2
522.037	1	-5
522.207	1	2
522.377	1	7
522.548	1	3
522.718	1	-6
522.888	1	4
523.058	1	20
523.228	1	15
523.398	1	2
523.568	1	-6
523.738	1	3
523.909	1	9
524.079	1	4
524.249	1	3
524.419	1	1
524.589	1	11
524.759	1	12
524.929	1	0
525.099	1	7
525.269	1	12
525.439	1	0
525.610	1	6
525.780	1	13
525.950	1	-3
526.120	1	-5
526.290	1	-11
526.460	1	22
526.630	1	7
526.800	1	2
526.970	1	-6
527.140	1	0
527.311	1	12
527.481	1	13
527.651	1	11
527.821	1	1
527.991	1	14
528.161	1	-2
528.331	1	10
528.501	1	-5
528.671	1	2
528.841	1	2
529.011	1	1
529.181	1	3
529.352	1	15
529.522	1	7
529.692	1	8
529.862	1	-1
530.032	1	1
530.202	1	5
530.372	1	4
530.542	1	14
530.712	1	16
530.882	1	1
531.052	1	7
531.222	1	1
531.392	1	9
531.563	1	1
531.733	1	11
531.903	1	10
532.073	1	12
532.243	1	2
532.413	1	6
532.583	1	4
532.753	1	10
532.923	1	7
533.093	1	11
533.263	1	6
533.433	1	3
533.603	1	2
533.773	1	1
533.943	1	4
534.113	1	9
534.284	1	1
534.454	1	14
534.624	1	11
534.794	1	4
534.964	1	5
535.134	1	-1
535.304	1	11
535.474	1	14
535.644	1	5
535.814	1	10
535.984	1	-1
536.154	1	5
536.324	1	11
536.494	1	11
536.664	1	12
536.834	1	-3
537.004	1	18
537.174	1	13
537.344	1	5
537.514	1	3
537.685	1	-1
537.855	1	9
538.025	1	4
538.195	1	18
538.365	1	18
538.535	1	9
538.705	1	-1
538.875	1	7
539.045	1	1
539.215	1	-18
539.385	1	5
539.555	1	4
539.725	1	0
539.895	1	6
540.065	1	7
540.235	1	-5
540.405	1	6
540.575	1	2
540.745	1	1
540.915	1	12
541.085	1	2
541.255	1	-3
541.425	1	9
541.595	1	8
541.765	1	6
541.935	1	12
542.105	1	-1
542.275	1	-2
542.445	1	10
542.615	1	7
542.785	1	0
542.955	1	11
543.125	1	9
543.295	1	8
543.465	1	15
543.635	1	7
543.805	1	9
543.975	1	3
544.145	1	3
544.315	1	-1
544.485	1	6
544.655	1	6
544.825	1	8
544.995	1	7
545.165	1	3
545.335	1	3
545.505	1	3
545.675	1	1
545.845	1	2
546.015	1	9
546.185	1	-8
546.355	1	9
546.525	1	12
546.695	1	4
546.865	1	-6
547.035	1	5
547.205	1	-1
547.375	1	5
547.545	1	10
547.715	1	2
547.885	1	4
548.055	1	8
548.225	1	2
548.395	1	3
548.565	1	1
548.735	1	14
548.905	1	-2
549.075	1	-10
549.245	1	9
549.415	1	4
549.585	1	3
549.755	1	0
549.925	1	13
550.095	1	9
550.265	1	0
550.435	1	10
550.605	1	4
550.775	1	-2
550.945	1	5
551.115	1	-2
551.285	1	2
551.455	1	10
551.625	1	1
551.795	1	7
551.965	1	6
552.135	1	5
552.305	1	6
552.475	1	-3
552.645	1	3
552.815	1	5
552.985	1	10
553.155	1	13
553.325	1	18
553.495	1	-4
553.665	1	10
553.835	1	-3
554.004	1	-1
554.174	1	1
554.344	1	1
554.514	1	6
554.684	1	8
554.854	1	15
555.024	1	14
555.194	1	5
555.364	1	13
555.534	1	-7
555.704	1	5
555.874	1	-8
556.044	1	6
556.214	1	-3
556.384	1	9
556.554	1	-9
556.724	1	-8
556.894	1	14
557.064	1	-4
557.234	1	2
557.404	1	-1
557.573	1	1
557.743	1	4
557.913	1	-1
558.083	1	-13
558.253	1	-8
558.423	1	-5
558.593	1	2
558.763	1	-2
558.933	1	9
559.103	1	-5
559.273	1	0
559.443	1	7
559.613	1	14
559.783	1	7
559.953	1	-3
560.122	1	-3
560.292	1	10
560.462	1	-1
560.632	1	9
560.802	1	11
560.972	1	21
561.142	1	2
561.312	1	-1
561.482	1	5
561.652	1	7
561.822	1	3
561.992	1	6
562.162	1	5
562.331	1	-5
562.501	1	9
562.671	1	4
562.841	1	-16
563.011	1	-2
563.181	1	-1
563.351	1	-3
563.521	1	9
563.691	1	0
563.861	1	9
564.031	1	4
564.201	1	3
564.370	1	4
564.540	1	10
564.710	1	-8
564.880	1	7
565.050	1	-1
565.220	1	4
565.390	1	-7
565.560	1	8
565.730	1	-3
565.900	1	1
566.069	1	15
566.239	1	2
566.409	1	-1
566.579	1	7
566.749	1	10
566.919	1	7
567.089	1	7
567.259	1	13
567.429	1	6
567.599	1	-7
567.768	1	4
567.938	1	7
568.108	1	2
568.278	1	-6
568.448	1	-7
568.618	1	6
568.788	1	-3
568.958	1	6
569.128	1	3
569.297	1	7
569.467	1	3
569.637	1	-2
569.807	1	-2
569.977	1	0
570.147	1	6
570.317	1	14
570.487	1	9
570.656	1	1
570.826	1	2
570.996	1	-3
571.166	1	-4
571.336	1	-1
571.506	1	-9
571.676	1	11
571.846	1	5
572.015	1	-9
572.185	1	-3
572.355	1	15
572.525	1	2
572.695	1	7
572.865	1	4
573.035	1	4
573.205	1	11
573.374	1	3
573.544	1	-1
573.714	1	9
573.884	1	-9
574.054	1	0
574.224	1	-4
574.394	1	-2
574.563	1	8
574.733	1	3
574.903	1	11
575.073	1	1
575.243	1	-10
575.413	1	4
575.583	1	8
575.752	1	0
575.922	1	2
576.092	1	7
576.262	1	2
576.432	1	2
576.602	1	-1
576.772	1	0
576.941	1	-3
577.111	1	12
577.281	1	4
577.451	1	-2
577.621	1	-4
577.791	1	5
577.960	1	-3
578.130	1	-4
578.300	1	-1
578.470	1	-1
578.640	1	-1
578.810	1	-3
578.979	1	-6
579.149	1	1
579.319	1	4
579.489	1	4
579.659	1	4
579.829	1	10
579.998	1	-4
580.168	1	7
580.338	1	-5
580.508	1	0
580.678	1	-5
580.848	1	5
581.017	1	4
581.187	1	5
581.357	1	3
581.527	1	0
581.697	1	-12
581.867	1	6
582.036	1	3
582.206	1	-2
582.376	1	8
582.546	1	7
582.716	1	13
582.885	1	-2
583.055	1	-4
583.225	1	-6
583.395	1	6
583.565	1	19
583.735	1	0
583.904	1	3
584.074	1	2
584.244	1	8
584.414	1	0
584.584	1	13
584.753	1	4
584.923	1	0
585.093	1	6
585.263	1	-6
585.433	1	-5
585.602	1	2
585.772	1	-3
585.942	1	8
586.112	1	7
586.282	1	-3
586.451	1	10
586.621	1	1
586.791	1	10
586.961	1	1
587.131	1	-8
587.300	1	2
587.470	1	5
587.640	1	-3
587.810	1	0
587.980	1	4
588.149	1	15
588.319	1	8
588.489	1	2
588.659	1	6
588.829	1	9
588.998	1	-4
589.168	1	5
589.338	1	6
589.508	1	12
589.677	1	5
589.847	1	2
590.017	1	-1
590.187	1	-1
590.357	1	0
590.526	1	-4
590.696	1	0
590.866	1	2
591.036	1	1
591.205	1	2
591.375	1	-2
591.545	1	-4
591.715	1	-2
591.885	1	5
592.054	1	-2
592.224	1	8
592.394	1	3
592.564	1	-5
592.733	1	-3
592.903	1	7
593.073	1	6
593.243	1	-3
593.412	1	-1
593.582	1	13
593.752	1	-7
593.922	1	-9
594.091	1	5
594.261	1	-2
594.431	1	1
594.601	1	-16
594.771	1	6
594.940	1	1
595.110	1	0
595.280	1	-1
595.450	1	4
595.619	1	3
595.789	1	4
595.959	1	0
596.129	1	3
596.298	1	1
596.468	1	11
596.638	1	4
596.808	1	5
596.977	1	-6
597.147	1	3
597.317	1	0
597.487	1	7
597.656	1	3
597.826	1	8
597.996	1	1
598.166	1	-5
598.335	1	2
598.505	1	7
598.675	1	6
598.844	1	-4
599.014	1	-7
599.184	1	0
599.354	1	-6
599.523	1	1
599.693	1	9
599.863	1	10
600.033	1	-9
600.202	1	-2
600.372	1	-4
600.542	1	-3
600.712	1	9
600.881	1	3
601.051	1	9
601.221	1	2
601.390	1	-4
601.560	1	2
601.730	1	3
601.900	1	-9
602.069	1	-15
602.239	1	-9
602.409	1	-10
602.578	1	-1
602.748	1	-2
602.918	1	-1
603.088	1	5
603.257	1	7
603.427	1	-1
603.597	1	17
603.767	1	-10
603.936	1	3
604.106	1	3
604.276	1	0
604.445	1	7
604.615	1	3
604.785	1	5
604.954	1	10
605.124	1	-4
605.294	1	6
605.464	1	-5
605.633	1	0
605.803	1	2
605.973	1	-3
606.142	1	-3
606.312	1	4
606.482	1	-2
606.652	1	-2
606.821	1	6
606.991	1	1
607.161	1	4
607.330	1	5
607.500	1	13
607.670	1	-3
607.839	1	0
608.009	1	-10
608.179	1	2
608.348	1	-4
608.518	1	5
608.688	1	4
608.858	1	0
609.027	1	0
609.197	1	-10
609.367	1	-3
609.536	1	-2
609.706	1	3
609.876	1	4
610.045	1	3
610.215	1	-1
610.385	1	9
610.554	1	1
610.724	1	0
610.894	1	-6
611.063	1	8
611.233	1	1
611.403	1	-6
611.572	1	2
611.742	1	-3
611.912	1	-4
612.081	1	3
612.251	1	3
612.421	1	11
612.590	1	-2
612.760	1	-1
612.930	1	-6
613.099	1	-13
613.269	1	0
613.439	1	-3
613.608	1	1
613.778	1	8
613.948	1	13
614.117	1	4
614.287	1	-10
614.457	1	4
614.626	1	3
614.796	1	4
614.966	1	2
615.135	1	-2
615.305	1	2
615.475	1	11
615.644	1	-13
615.814	1	0
615.984	1	9
616.153	1	8
616.323	1	6
616.493	1	0
616.662	1	1
616.832	1	4
617.002	1	2
617.171	1	-6
617.341	1	-2
617.511	1	-2
617.680	1	4
617.850	1	-6
618.019	1	0
618.189	1	-7
618.359	1	-4
618.528	1	-6
618.698	1	4
618.868	1	3
619.037	1	16
619.207	1	-9
619.377	1	-5
619.546	1	0
619.716	1	-5
619.885	1	2
620.055	1	0
620.225	1	8
620.394	1	-4
620.564	1	-14
620.734	1	5
620.903	1	5
621.073	1	-9
621.242	1	-13
621.412	1	3
621.582	1	0
621.751	1	-1
621.921	1	2
622.091	1	-8
622.260	1	-4
622.430	1	-7
622.599	1	11
622.769	1	-1
622.939	1	2
623.108	1	-9
623.278	1	7
623.448	1	-4
623.617	1	-2
623.787	1	-3
623.956	1	11
624.126	1	1
624.296	1	3
624.465	1	0
624.635	1	7
624.804	1	-10
624.974	1	-4
625.144	1	2
625.313	1	4
625.483	1	0
625.652	1	10
625.822	1	8
625.992	1	-5
626.161	1	5
626.331	1	11
626.501	1	5
626.670	1	0
626.840	1	6
627.009	1	-6
627.179	1	-4
627.348	1	-6
627.518	1	8
627.688	1	0
627.857	1	11
628.027	1	8
628.196	1	7
628.366	1	6
628.536	1	-5
628.705	1	3
628.875	1	-2
629.044	1	4
629.214	1	4
629.384	1	-7
629.553	1	2
629.723	1	2
629.892	1	0
630.062	1	3
630.232	1	7
630.401	1	-3
630.571	1	-4
630.740	1	-2
630.910	1	1
631.079	1	13
631.249	1	-11
631.419	1	-3
631.588	1	-2
631.758	1	11
631.927	1	-4
632.097	1	4
632.266	1	-13
632.436	1	-8
632.606	1	8
632.775	1	-3
632.945	1	10
633.114	1	6
633.284	1	-11
633.453	1	-7
633.623	1	-2
633.793	1	-7
633.962	1	-4
634.132	1	6
634.301	1	-3
634.471	1	-10
634.640	1	7
634.810	1	-1
634.979	1	9
635.149	1	-9
635.319	1	9
635.488	1	-6
635.658	1	-4
635.827	1	1
635.997	1	1
636.166	1	5
636.336	1	10
636.505	1	2
636.675	1	-9
636.845	1	14
637.014	1	-3
637.184	1	-6
637.353	1	-2
637.523	1	2
637.692	1	-1
637.862	1	-7
638.031	1	14
638.201	1	15
638.370	1	3
638.540	1	7
638.710	1	6
638.879	1	1
639.049	1	2
639.218	1	0
639.388	1	4
639.557	1	8
639.727	1	-6
639.896	1	-1
640.066	1	4
640.235	1	1
640.405	1	6
640.574	1	-3
640.744	1	4
640.914	1	-3
641.083	1	-2
641.253	1	0
641.422	1	-8
641.592	1	-7
641.761	1	3
641.931	1	1
642.100	1	-12
642.270	1	1
642.439	1	-1
642.609	1	2
642.778	1	4
642.948	1	-3
643.117	1	-7
643.287	1	3
643.456	1	4
643.626	1	11
643.795	1	4
643.965	1	-5
644.134	1	7
644.304	1	-6
644.473	1	4
644.643	1	5
644.812	1	13
644.982	1	10
645.151	1	1
645.321	1	6
645.490	1	2
645.660	1	-6
645.829	1	1
645.999	1	0
646.168	1	-3
646.338	1	9
646.507	1	-6
646.677	1	6
646.846	1	7
647.016	1	-2
647.185	1	0
647.355	1	-7
647.524	1	0
647.694	1	-8
647.863	1	-24
648.033	1	-13
648.202	1	10
648.372	1	6
648.541	1	4
648.711	1	7
648.880	1	-1
649.050	1	-5
649.219	1	2
649.389	1	4
649.558	1	-8
649.728	1	1
649.897	1	-8
650.067	1	-5
650.236	1	8
650.406	1	-7
650.575	1	3
650.745	1	1
650.914	1	-5
651.084	1	-7
651.253	1	0
651.423	1	6
651.592	1	-5
651.762	1	4
651.931	1	-2
652.101	1	5
652.270	1	-1
652.440	1	11
652.609	1	5
652.778	1	2
652.948	1	-2
653.117	1	-3
653.287	1	7
653.456	1	1
653.626	1	9
653.795	1	3
653.965	1	13
654.134	1	4
654.304	1	12
654.473	1	1
654.643	1	7
654.812	1	-6
654.982	1	-11
655.151	1	-13
655.320	1	-1
655.490	1	12
655.659	1	0
655.829	1	-4
655.998	1	7
656.168	1	-1
656.337	1	-10
656.507	1	4
656.676	1	-1
656.846	1	-14
657.015	1	-3
657.184	1	8
657.354	1	1
657.523	1	-4
657.693	1	7
657.862	1	3
658.032	1	8
658.201	1	0
658.371	1	-9
658.540	1	2
658.709	1	-8
658.879	1	3
659.048	1	4
659.218	1	1
659.387	1	-6
659.557	1	1
659.726	1	-3
659.895	1	1
660.065	1	2
660.234	1	5
660.404	1	-2
660.573	1	-3
660.743	1	5
660.912	1	-3
661.081	1	1
661.251	1	1
661.420	1	5
661.590	1	3
661.759	1	9
661.929	1	0
662.098	1	-9
662.267	1	7
662.437	1	4
662.606	1	-2
662.776	1	9
662.945	1	-2
663.115	1	-11
663.284	1	-3
663.453	1	4
663.623	1	1
663.792	1	8
663.962	1	-5
664.131	1	1
664.300	1	3
664.470	1	2
664.639	1	-3
664.809	1	6
664.978	1	-2
665.148	1	0
665.317	1	5
665.486	1	-1
665.656	1	-2
665.825	1	2
665.995	1	10
666.164	1	-3
666.333	1	14
666.503	1	-2
666.672	1	-16
666.842	1	-10
667.011	1	0
667.180	1	4
667.350	1	-3
667.519	1	-2
667.689	1	4
667.858	1	3
668.027	1	-5
668.197	1	-5
668.366	1	0
668.536	1	2
668.705	1	-4
668.874	1	-5
669.044	1	-4
669.213	1	-5
669.382	1	0
669.552	1	7
669.721	1	-11
669.891	1	-2
670.060	1	7
670.229	1	0
670.399	1	10
670.568	1	-3
670.738	1	-1
670.907	1	-3
671.076	1	3
671.246	1	-3
671.415	1	3
671.584	1	-1
671.754	1	-8
671.923	1	2
672.093	1	10
672.262	1	-1
672.431	1	6
672.601	1	-15
672.770	1	4
672.939	1	-14
673.109	1	-2
673.278	1	-4
673.448	1	3
673.617	1	14
673.786	1	-6
