325.333	1	-7
325.504	1	6
325.675	1	-1
325.846	1	3
326.017	1	1
326.188	1	13
326.359	1	3
326.531	1	-4
326.702	1	0
326.873	1	8
327.044	1	-2
327.215	1	-10
327.386	1	2
327.557	1	2
327.728	1	8
327.899	1	-3
328.070	1	3
328.241	1	-2
328.412	1	5
328.583	1	-4
328.754	1	6
328.926	1	6
329.097	1	8
329.268	1	3
329.439	1	0
329.610	1	1
329.781	1	-8
329.952	1	7
330.123	1	2
330.294	1	9
330.465	1	3
330.636	1	2
330.807	1	12
330.978	1	-3
331.149	1	2
331.320	1	2
331.492	1	-4
331.663	1	-4
331.834	1	2
332.005	1	2
332.176	1	2
332.347	1	10
332.518	1	11
332.689	1	9
332.860	1	-4
333.031	1	5
333.202	1	-1
333.373	1	4
333.544	1	-11
333.715	1	1
333.886	1	-3
334.057	1	-5
334.228	1	2
334.399	1	6
334.570	1	-4
334.741	1	-5
334.912	1	-10
335.084	1	2
335.255	1	8
335.426	1	-4
335.597	1	-2
335.768	1	0
335.939	1	0
336.110	1	0
336.281	1	-2
336.452	1	-1
336.623	1	12
336.794	1	-5
336.965	1	4
337.136	1	-1
337.307	1	7
337.478	1	0
337.649	1	7
337.820	1	12
337.991	1	7
338.162	1	-1
338.333	1	5
338.504	1	-1
338.675	1	1
338.846	1	4
339.017	1	-1
339.188	1	5
339.359	1	-3
339.530	1	0
339.701	1	3
339.872	1	1
340.043	1	1
340.214	1	6
340.385	1	1
340.556	1	5
340.727	1	2
340.898	1	-5
341.069	1	0
341.240	1	-1
341.411	1	11
341.582	1	8
341.753	1	1
341.924	1	-3
342.095	1	4
342.266	1	-1
342.437	1	10
342.608	1	-5
342.779	1	1
342.950	1	4
343.121	1	16
343.292	1	4
343.463	1	0
343.634	1	-2
343.805	1	7
343.976	1	4
344.147	1	1
344.318	1	3
344.489	1	-7
344.660	1	15
344.831	1	-4
345.002	1	-4
345.173	1	0
345.344	1	-7
345.515	1	-1
345.686	1	-4
345.857	1	-4
346.028	1	0
346.199	1	-4
346.370	1	5
346.541	1	-1
346.712	1	2
346.883	1	6
347.054	1	2
347.225	1	2
347.396	1	2
347.567	1	4
347.738	1	9
347.909	1	1
348.080	1	-5
348.251	1	8
348.422	1	2
348.593	1	-1
348.764	1	-8
348.935	1	12
349.106	1	4
349.277	1	-12
349.448	1	-7
349.619	1	-1
349.790	1	-1
349.961	1	5
350.132	1	0
350.303	1	-5
350.474	1	11
350.645	1	0
350.816	1	-9
350.987	1	-1
351.157	1	-3
351.328	1	1
351.499	1	0
351.670	1	11
351.841	1	-4
352.012	1	-13
352.183	1	0
352.354	1	-3
352.525	1	2
352.696	1	-8
352.867	1	-7
353.038	1	10
353.209	1	15
353.380	1	5
353.551	1	2
353.722	1	0
353.893	1	3
354.064	1	5
354.235	1	4
354.406	1	-7
354.576	1	6
354.747	1	-7
354.918	1	-1
355.089	1	4
355.260	1	-2
355.431	1	8
355.602	1	6
355.773	1	-1
355.944	1	-4
356.115	1	-4
356.286	1	2
356.457	1	-6
356.628	1	0
356.799	1	10
356.970	1	7
357.141	1	0
357.311	1	-10
357.482	1	-2
357.653	1	3
357.824	1	-2
357.995	1	6
358.166	1	3
358.337	1	13
358.508	1	5
358.679	1	18
358.850	1	8
359.021	1	-6
359.192	1	11
359.363	1	5
359.533	1	1
359.704	1	-3
359.875	1	5
360.046	1	4
360.217	1	14
360.388	1	4
360.559	1	17
360.730	1	11
360.901	1	5
361.072	1	3
361.243	1	5
361.414	1	3
361.584	1	7
361.755	1	17
361.926	1	25
362.097	1	3
362.268	1	8
362.439	1	8
362.610	1	4
362.781	1	15
362.952	1	13
363.123	1	13
363.293	1	3
363.464	1	24
363.635	1	8
363.806	1	13
363.977	1	17
364.148	1	6
364.319	1	7
364.490	1	10
364.661	1	9
364.832	1	15
365.002	1	16
365.173	1	12
365.344	1	13
365.515	1	17
365.686	1	10
365.857	1	21
366.028	1	16
366.199	1	18
366.370	1	16
366.540	1	20
366.711	1	28
366.882	1	18
367.053	1	27
367.224	1	18
367.395	1	17
367.566	1	22
367.737	1	4
367.908	1	15
368.078	1	15
368.249	1	18
368.420	1	13
368.591	1	27
368.762	1	8
368.933	1	13
369.104	1	21
369.274	1	13
369.445	1	10
369.616	1	1
369.787	1	14
369.958	1	15
370.129	1	15
370.300	1	-3
370.471	1	17
370.641	1	11
370.812	1	12
370.983	1	16
371.154	1	7
371.325	1	8
371.496	1	10
371.667	1	6
371.837	1	-1
372.008	1	9
372.179	1	9
372.350	1	6
372.521	1	5
372.692	1	3
372.863	1	12
373.033	1	8
373.204	1	11
373.375	1	2
373.546	1	12
373.717	1	11
373.888	1	0
374.059	1	14
374.229	1	1
374.400	1	17
374.571	1	8
374.742	1	13
374.913	1	-3
375.084	1	3
375.254	1	6
375.425	1	6
375.596	1	4
375.767	1	5
375.938	1	13
376.109	1	0
376.279	1	-6
376.450	1	2
376.621	1	16
376.792	1	2
376.963	1	4
377.134	1	5
377.304	1	14
377.475	1	15
377.646	1	9
377.817	1	15
377.988	1	3
378.159	1	7
378.329	1	8
378.500	1	-8
378.671	1	8
378.842	1	-1
379.013	1	7
379.184	1	6
379.354	1	6
379.525	1	13
379.696	1	-1
379.867	1	0
380.038	1	12
380.209	1	18
380.379	1	10
380.550	1	5
380.721	1	20
380.892	1	11
381.063	1	13
381.233	1	10
381.404	1	3
381.575	1	7
381.746	1	22
381.917	1	3
382.087	1	21
382.258	1	20
382.429	1	9
382.600	1	10
382.771	1	10
382.941	1	14
383.112	1	13
383.283	1	13
383.454	1	17
383.625	1	27
383.795	1	21
383.966	1	9
384.137	1	29
384.308	1	23
384.479	1	39
384.649	1	30
384.820	1	8
384.991	1	36
385.162	1	31
385.333	1	38
385.503	1	21
385.674	1	32
385.845	1	32
386.016	1	28
386.187	1	36
386.357	1	35
386.528	1	39
386.699	1	48
386.870	1	42
387.041	1	26
387.211	1	39
387.382	1	26
387.553	1	33
387.724	1	31
387.894	1	47
388.065	1	30
388.236	1	37
388.407	1	39
388.578	1	43
388.748	1	41
388.919	1	33
389.090	1	42
389.261	1	13
389.431	1	33
389.602	1	31
389.773	1	31
389.944	1	34
390.114	1	40
390.285	1	27
390.456	1	28
390.627	1	14
390.798	1	36
390.968	1	31
391.139	1	9
391.310	1	34
391.481	1	36
391.651	1	27
391.822	1	40
391.993	1	33
392.164	1	19
392.334	1	34
392.505	1	28
392.676	1	11
392.847	1	25
393.017	1	15
393.188	1	20
393.359	1	30
393.530	1	14
393.700	1	27
393.871	1	17
394.042	1	29
394.213	1	32
394.383	1	21
394.554	1	25
394.725	1	24
394.896	1	26
395.066	1	33
395.237	1	29
395.408	1	32
395.579	1	38
395.749	1	25
395.920	1	32
396.091	1	40
396.262	1	27
396.432	1	20
396.603	1	28
396.774	1	17
396.945	1	44
397.115	1	37
397.286	1	34
397.457	1	25
397.627	1	30
397.798	1	26
397.969	1	29
398.140	1	26
398.310	1	30
398.481	1	31
398.652	1	37
398.823	1	45
398.993	1	26
399.164	1	38
399.335	1	24
399.505	1	29
399.676	1	27
399.847	1	25
400.018	1	24
400.188	1	28
400.359	1	19
400.530	1	25
400.700	1	25
400.871	1	17
401.042	1	19
401.213	1	20
401.383	1	28
401.554	1	22
401.725	1	19
401.895	1	25
402.066	1	21
402.237	1	24
402.408	1	24
402.578	1	17
402.749	1	14
402.920	1	8
403.090	1	22
403.261	1	20
403.432	1	10
403.603	1	19
403.773	1	26
403.944	1	29
404.115	1	9
404.285	1	7
404.456	1	14
404.627	1	17
404.797	1	38
404.968	1	19
405.139	1	18
405.310	1	13
405.480	1	22
405.651	1	12
405.822	1	26
405.992	1	19
406.163	1	25
406.334	1	16
406.504	1	15
406.675	1	23
406.846	1	14
407.016	1	14
407.187	1	19
407.358	1	17
407.528	1	15
407.699	1	20
407.870	1	20
408.041	1	20
408.211	1	17
408.382	1	21
408.553	1	25
408.723	1	12
408.894	1	9
409.065	1	17
409.235	1	19
409.406	1	19
409.577	1	20
409.747	1	21
409.918	1	19
410.089	1	19
410.259	1	11
410.430	1	21
410.601	1	16
410.771	1	20
410.942	1	23
411.113	1	18
411.283	1	8
411.454	1	16
411.625	1	11
411.795	1	19
411.966	1	3
412.137	1	13
412.307	1	15
412.478	1	20
412.649	1	15
412.819	1	17
412.990	1	20
413.161	1	13
413.331	1	7
413.502	1	20
413.672	1	18
413.843	1	17
414.014	1	14
414.184	1	6
414.355	1	2
414.526	1	13
414.696	1	7
414.867	1	20
415.038	1	8
415.208	1	8
415.379	1	24
415.550	1	15
415.720	1	4
415.891	1	6
416.062	1	15
416.232	1	9
416.403	1	17
416.573	1	10
416.744	1	17
416.915	1	15
417.085	1	10
417.256	1	12
417.427	1	9
417.597	1	8
417.768	1	1
417.939	1	9
418.109	1	9
418.280	1	18
418.450	1	4
418.621	1	11
418.792	1	12
418.962	1	5
419.133	1	10
419.304	1	20
419.474	1	8
419.645	1	10
419.815	1	5
419.986	1	10
420.157	1	11
420.327	1	17
420.498	1	8
420.669	1	7
420.839	1	13
421.010	1	19
421.180	1	5
421.351	1	5
421.522	1	15
421.692	1	10
421.863	1	2
422.033	1	-1
422.204	1	-1
422.375	1	-4
422.545	1	10
422.716	1	2
422.886	1	11
423.057	1	6
423.228	1	6
423.398	1	8
423.569	1	10
423.740	1	4
423.910	1	-5
424.081	1	7
424.251	1	6
424.422	1	17
424.593	1	7
424.763	1	8
424.934	1	11
425.104	1	7
425.275	1	-2
425.445	1	2
425.616	1	7
425.787	1	-2
425.957	1	16
426.128	1	-1
426.298	1	3
426.469	1	10
426.640	1	5
426.810	1	7
426.981	1	-4
427.151	1	2
427.322	1	12
427.493	1	9
427.663	1	12
427.834	1	-9
428.004	1	9
428.175	1	7
428.345	1	24
428.516	1	8
428.687	1	7
428.857	1	3
429.028	1	5
429.198	1	-8
429.369	1	0
429.540	1	11
429.710	1	7
429.881	1	14
430.051	1	14
430.222	1	-1
430.392	1	2
430.563	1	12
430.734	1	12
430.904	1	-5
431.075	1	2
431.245	1	11
431.416	1	-2
431.586	1	7
431.757	1	4
431.927	1	1
432.098	1	1
432.269	1	4
432.439	1	-5
432.610	1	5
432.780	1	4
432.951	1	4
433.121	1	8
433.292	1	-2
433.462	1	8
433.633	1	7
433.804	1	3
433.974	1	-12
434.145	1	-2
434.315	1	1
434.486	1	12
434.656	1	7
434.827	1	0
434.997	1	13
435.168	1	1
435.339	1	7
435.509	1	12
435.680	1	-4
435.850	1	11
436.021	1	6
436.191	1	1
436.362	1	11
436.532	1	15
436.703	1	11
436.873	1	4
437.044	1	1
437.214	1	2
437.385	1	-8
437.556	1	6
437.726	1	2
437.897	1	3
438.067	1	7
438.238	1	0
438.408	1	7
438.579	1	6
438.749	1	10
438.920	1	5
439.090	1	12
439.261	1	5
439.431	1	-10
439.602	1	1
439.772	1	9
439.943	1	5
440.113	1	1
440.284	1	14
440.455	1	1
440.625	1	7
440.796	1	1
440.966	1	14
441.137	1	1
441.307	1	4
441.478	1	9
441.648	1	-11
441.819	1	7
441.989	1	2
442.160	1	-3
442.330	1	4
442.501	1	-8
442.671	1	6
442.842	1	2
443.012	1	-3
443.183	1	6
443.353	1	7
443.524	1	1
443.694	1	8
443.865	1	4
444.035	1	-1
444.206	1	-3
444.376	1	4
444.547	1	7
444.717	1	18
444.888	1	-6
445.058	1	3
445.229	1	-6
445.399	1	5
445.570	1	9
445.740	1	7
445.911	1	15
446.081	1	-1
446.252	1	-1
446.422	1	6
446.593	1	5
446.763	1	2
446.934	1	5
447.104	1	0
447.275	1	-2
447.445	1	1
447.616	1	1
447.786	1	2
447.957	1	3
448.127	1	-6
448.298	1	0
448.468	1	11
448.639	1	5
448.809	1	2
448.979	1	8
449.150	1	9
449.320	1	-1
449.491	1	3
449.661	1	5
449.832	1	4
450.002	1	2
450.173	1	1
450.343	1	2
450.514	1	2
450.684	1	-5
450.855	1	9
451.025	1	-1
451.196	1	6
451.366	1	5
451.537	1	0
451.707	1	5
451.878	1	-2
452.048	1	-2
452.218	1	2
452.389	1	3
452.559	1	3
452.730	1	5
452.900	1	9
453.071	1	8
453.241	1	1
453.412	1	-6
453.582	1	3
453.753	1	-6
453.923	1	1
454.093	1	12
454.264	1	-4
454.434	1	10
454.605	1	5
454.775	1	8
454.946	1	7
455.116	1	5
455.287	1	20
455.457	1	-1
455.628	1	0
455.798	1	-5
455.968	1	1
456.139	1	7
456.309	1	-8
456.480	1	0
456.650	1	1
456.821	1	6
456.991	1	12
457.161	1	2
457.332	1	0
457.502	1	8
457.673	1	-2
457.843	1	9
458.014	1	1
458.184	1	4
458.355	1	10
458.525	1	0
458.695	1	3
458.866	1	3
459.036	1	12
459.207	1	4
459.377	1	-4
459.548	1	0
459.718	1	1
459.888	1	12
460.059	1	10
460.229	1	1
460.400	1	1
460.570	1	-5
460.740	1	-8
460.911	1	16
461.081	1	4
461.252	1	-3
461.422	1	-3
461.593	1	-2
461.763	1	11
461.933	1	-10
462.104	1	2
462.274	1	-5
462.445	1	-1
462.615	1	-1
462.785	1	5
462.956	1	-4
463.126	1	-6
463.297	1	-4
463.467	1	7
463.638	1	-2
463.808	1	10
463.978	1	7
464.149	1	-8
464.319	1	1
464.490	1	6
464.660	1	1
464.830	1	1
465.001	1	4
465.171	1	5
465.342	1	12
465.512	1	9
465.682	1	6
465.853	1	2
466.023	1	1
466.194	1	5
466.364	1	5
466.534	1	0
466.705	1	16
466.875	1	9
467.045	1	1
467.216	1	-1
467.386	1	0
467.557	1	10
467.727	1	6
467.897	1	3
468.068	1	7
468.238	1	-6
468.409	1	7
468.579	1	11
468.749	1	2
468.920	1	-3
469.090	1	9
469.260	1	7
469.431	1	13
469.601	1	4
469.772	1	-15
469.942	1	8
470.112	1	6
470.283	1	11
470.453	1	5
470.623	1	-4
470.794	1	0
470.964	1	-4
471.135	1	-3
471.305	1	8
471.475	1	-1
471.646	1	2
471.816	1	-2
471.986	1	3
472.157	1	1
472.327	1	1
472.497	1	0
472.668	1	-1
472.838	1	11
473.009	1	4
473.179	1	2
473.349	1	2
473.520	1	0
473.690	1	8
473.860	1	5
474.031	1	7
474.201	1	-5
474.371	1	12
474.542	1	-3
474.712	1	6
474.882	1	-8
475.053	1	-8
475.223	1	6
475.394	1	5
475.564	1	16
475.734	1	1
475.905	1	-7
476.075	1	2
476.245	1	8
476.416	1	-13
476.586	1	-5
476.756	1	-2
476.927	1	10
477.097	1	-4
477.267	1	-3
477.438	1	1
477.608	1	11
477.778	1	5
477.949	1	10
478.119	1	6
478.289	1	3
478.460	1	2
478.630	1	-4
478.800	1	6
478.971	1	0
479.141	1	1
479.311	1	1
479.482	1	1
479.652	1	2
479.822	1	4
479.993	1	0
480.163	1	1
480.333	1	-1
480.504	1	1
480.674	1	-1
480.844	1	11
481.015	1	0
481.185	1	0
481.355	1	15
481.525	1	3
481.696	1	10
481.866	1	1
482.036	1	-1
482.207	1	6
482.377	1	2
482.547	1	-1
482.718	1	14
482.888	1	-7
483.058	1	4
483.229	1	7
483.399	1	7
483.569	1	12
483.740	1	-3
483.910	1	3
484.080	1	-15
484.250	1	11
484.421	1	-1
484.591	1	11
484.761	1	-7
484.932	1	10
485.102	1	2
485.272	1	7
485.443	1	12
485.613	1	-3
485.783	1	14
485.953	1	-2
486.124	1	8
486.294	1	10
486.464	1	-3
486.635	1	8
486.805	1	13
486.975	1	-13
487.146	1	8
487.316	1	11
487.486	1	6
487.656	1	-11
487.827	1	3
487.997	1	7
488.167	1	-2
488.338	1	18
488.508	1	10
488.678	1	3
488.848	1	8
489.019	1	-5
489.189	1	-1
489.359	1	4
489.529	1	1
489.700	1	6
489.870	1	3
490.040	1	9
490.211	1	10
490.381	1	-2
490.551	1	-1
490.721	1	3
490.892	1	8
491.062	1	11
491.232	1	15
491.402	1	0
491.573	1	8
491.743	1	-6
491.913	1	8
492.084	1	6
492.254	1	2
492.424	1	4
492.594	1	5
492.765	1	9
492.935	1	1
493.105	1	17
493.275	1	13
493.446	1	1
493.616	1	3
493.786	1	6
493.956	1	4
494.127	1	5
494.297	1	3
494.467	1	5
494.637	1	4
494.808	1	10
494.978	1	3
495.148	1	11
495.318	1	20
495.489	1	8
495.659	1	9
495.829	1	1
495.999	1	11
496.170	1	0
496.340	1	5
496.510	1	12
496.680	1	3
496.851	1	7
497.021	1	7
497.191	1	5
497.361	1	10
497.532	1	3
497.702	1	-7
497.872	1	4
498.042	1	18
498.213	1	10
498.383	1	1
498.553	1	6
498.723	1	5
498.894	1	11
499.064	1	16
499.234	1	1
499.404	1	10
499.574	1	3
499.745	1	10
499.915	1	7
500.085	1	8
500.255	1	9
500.426	1	13
500.596	1	-5
500.766	1	9
500.936	1	1
501.106	1	-2
501.277	1	0
501.447	1	5
501.617	1	12
501.787	1	3
501.958	1	6
502.128	1	2
502.298	1	10
502.468	1	18
502.638	1	-1
502.809	1	12
502.979	1	5
503.149	1	0
503.319	1	4
503.489	1	9
503.660	1	8
503.830	1	4
504.000	1	7
504.170	1	6
504.340	1	10
504.511	1	9
504.681	1	-3
504.851	1	3
505.021	1	8
505.192	1	18
505.362	1	6
505.532	1	0
505.702	1	7
505.872	1	-4
506.043	1	7
506.213	1	7
506.383	1	14
506.553	1	15
506.723	1	11
506.893	1	13
507.064	1	0
507.234	1	7
507.404	1	1
507.574	1	12
507.744	1	-4
507.915	1	8
508.085	1	14
508.255	1	9
508.425	1	25
508.595	1	8
508.766	1	8
508.936	1	12
509.106	1	-4
509.276	1	4
509.446	1	5
509.616	1	5
509.787	1	4
509.957	1	8
510.127	1	21
510.297	1	4
510.467	1	13
510.638	1	5
510.808	1	12
510.978	1	-4
511.148	1	11
511.318	1	17
511.488	1	23
511.659	1	10
511.829	1	4
511.999	1	15
512.169	1	8
512.339	1	13
512.509	1	10
512.680	1	6
512.850	1	8
513.020	1	12
513.190	1	9
513.360	1	16
513.530	1	3
513.700	1	23
513.871	1	17
514.041	1	8
514.211	1	6
514.381	1	10
514.551	1	8
514.721	1	23
514.892	1	12
515.062	1	17
515.232	1	13
515.402	1	6
515.572	1	6
515.742	1	12
515.912	1	11
516.083	1	13
516.253	1	11
516.423	1	28
516.593	1	11
516.763	1	4
516.933	1	17
517.104	1	18
517.274	1	12
517.444	1	11
517.614	1	8
517.784	1	10
517.954	1	2
518.124	1	18
518.294	1	23
518.465	1	18
518.635	1	11
518.805	1	23
518.975	1	14
519.145	1	14
519.315	1	5
519.485	1	11
519.656	1	6
519.826	1	17
519.996	1	20
520.166	1	16
520.336	1	13
520.506	1	18
520.676	1	15
520.846	1	11
521.017	1	8
521.187	1	11
521.357	1	5
521.527	1	8
521.697	1	15
521.867	1	20
522.037	1	11
522.207	1	9
522.377	1	17
522.548	1	5
522.718	1	15
522.888	1	14
523.058	1	34
523.228	1	20
523.398	1	20
523.568	1	6
523.738	1	13
523.909	1	20
524.079	1	14
524.249	1	20
524.419	1	16
524.589	1	18
524.759	1	6
524.929	1	20
525.099	1	15
525.269	1	20
525.439	1	13
525.610	1	12
525.780	1	14
525.950	1	-5
526.120	1	9
526.290	1	8
526.460	1	15
526.630	1	15
526.800	1	21
526.970	1	4
527.140	1	4
527.311	1	20
527.481	1	24
527.651	1	21
527.821	1	22
527.991	1	13
528.161	1	16
528.331	1	19
528.501	1	7
528.671	1	11
528.841	1	14
529.011	1	5
529.181	1	13
529.352	1	26
529.522	1	18
529.692	1	20
529.862	1	15
530.032	1	13
530.202	1	18
530.372	1	14
530.542	1	11
530.712	1	29
530.882	1	9
531.052	1	15
531.222	1	5
531.392	1	16
531.563	1	12
531.733	1	16
531.903	1	18
532.073	1	19
532.243	1	15
532.413	1	22
532.583	1	18
532.753	1	17
532.923	1	15
533.093	1	21
533.263	1	15
533.433	1	15
533.603	1	16
533.773	1	14
533.943	1	13
534.113	1	19
534.284	1	17
534.454	1	17
534.624	1	11
534.794	1	18
534.964	1	6
535.134	1	22
535.304	1	22
535.474	1	19
535.644	1	22
535.814	1	20
535.984	1	10
536.154	1	4
536.324	1	9
536.494	1	24
536.664	1	11
536.834	1	17
537.004	1	23
537.174	1	26
537.344	1	16
537.514	1	20
537.685	1	14
537.855	1	14
538.025	1	19
538.195	1	24
538.365	1	15
538.535	1	25
538.705	1	12
538.875	1	13
539.045	1	20
539.215	1	9
539.385	1	6
539.555	1	6
539.725	1	21
539.895	1	12
540.065	1	12
540.235	1	9
540.405	1	16
540.575	1	9
540.745	1	14
540.915	1	22
541.085	1	8
541.255	1	4
541.425	1	13
541.595	1	10
541.765	1	2
541.935	1	27
542.105	1	15
542.275	1	12
542.445	1	17
542.615	1	15
542.785	1	13
542.955	1	20
543.125	1	14
543.295	1	11
543.465	1	24
543.635	1	16
543.805	1	20
543.975	1	14
544.145	1	17
544.315	1	16
544.485	1	13
544.655	1	11
544.825	1	14
544.995	1	17
545.165	1	9
545.335	1	10
545.505	1	9
545.675	1	12
545.845	1	5
546.015	1	17
546.185	1	8
546.355	1	24
546.525	1	15
546.695	1	11
546.865	1	11
547.035	1	12
547.205	1	15
547.375	1	11
547.545	1	19
547.715	1	11
547.885	1	14
548.055	1	10
548.225	1	11
548.395	1	19
548.565	1	19
548.735	1	26
548.905	1	10
549.075	1	4
549.245	1	17
549.415	1	16
549.585	1	2
549.755	1	8
549.925	1	27
550.095	1	13
550.265	1	20
550.435	1	22
550.605	1	6
550.775	1	4
550.945	1	13
551.115	1	1
551.285	1	14
551.455	1	12
551.625	1	4
551.795	1	13
551.965	1	6
552.135	1	9
552.305	1	12
552.475	1	4
552.645	1	9
552.815	1	8
552.985	1	9
553.155	1	16
553.325	1	19
553.495	1	12
553.665	1	16
553.835	1	7
554.004	1	17
554.174	1	7
554.344	1	5
554.514	1	20
554.684	1	8
554.854	1	18
555.024	1	10
555.194	1	24
555.364	1	16
555.534	1	11
555.704	1	10
555.874	1	11
556.044	1	11
556.214	1	12
556.384	1	9
556.554	1	3
556.724	1	10
556.894	1	18
557.064	1	9
557.234	1	9
557.404	1	1
557.573	1	12
557.743	1	10
557.913	1	11
558.083	1	4
558.253	1	11
558.423	1	-3
558.593	1	8
558.763	1	12
558.933	1	12
559.103	1	13
559.273	1	7
559.443	1	4
559.613	1	14
559.783	1	8
559.953	1	18
560.122	1	6
560.292	1	12
560.462	1	8
560.632	1	12
560.802	1	6
560.972	1	16
561.142	1	13
561.312	1	12
561.482	1	16
561.652	1	14
561.822	1	7
561.992	1	12
562.162	1	1
562.331	1	10
562.501	1	9
562.671	1	10
562.841	1	-2
563.011	1	2
563.181	1	10
563.351	1	6
563.521	1	12
563.691	1	7
563.861	1	3
564.031	1	15
564.201	1	13
564.370	1	17
564.540	1	26
564.710	1	2
564.880	1	15
565.050	1	8
565.220	1	10
565.390	1	-2
565.560	1	12
565.730	1	3
565.900	1	12
566.069	1	12
566.239	1	8
566.409	1	3
566.579	1	6
566.749	1	6
566.919	1	16
567.089	1	15
567.259	1	21
567.429	1	10
567.599	1	3
567.768	1	12
567.938	1	3
568.108	1	6
568.278	1	-1
568.448	1	5
568.618	1	9
568.788	1	4
568.958	1	8
569.128	1	-1
569.297	1	10
569.467	1	2
569.637	1	5
569.807	1	4
569.977	1	14
570.147	1	9
570.317	1	19
570.487	1	8
570.656	1	12
570.826	1	13
570.996	1	7
571.166	1	1
571.336	1	6
571.506	1	-4
571.676	1	8
571.846	1	13
572.015	1	1
572.185	1	8
572.355	1	24
572.525	1	5
572.695	1	15
572.865	1	2
573.035	1	8
573.205	1	11
573.374	1	2
573.544	1	3
573.714	1	19
573.884	1	-3
574.054	1	13
574.224	1	8
574.394	1	3
574.563	1	5
574.733	1	1
574.903	1	12
575.073	1	9
575.243	1	-7
575.413	1	6
575.583	1	17
575.752	1	9
575.922	1	8
576.092	1	17
576.262	1	7
576.432	1	-6
576.602	1	8
576.772	1	10
576.941	1	10
577.111	1	18
577.281	1	6
577.451	1	-1
577.621	1	12
577.791	1	8
577.960	1	-2
578.130	1	-1
578.300	1	-1
578.470	1	8
578.640	1	-2
578.810	1	9
578.979	1	8
579.149	1	7
579.319	1	8
579.489	1	5
579.659	1	2
579.829	1	4
579.998	1	5
580.168	1	13
580.338	1	-14
580.508	1	5
580.678	1	4
580.848	1	10
581.017	1	2
581.187	1	7
581.357	1	-2
581.527	1	12
581.697	1	-4
581.867	1	6
582.036	1	15
582.206	1	-1
582.376	1	4
582.546	1	11
582.716	1	8
582.885	1	11
583.055	1	5
583.225	1	11
583.395	1	7
583.565	1	15
583.735	1	1
583.904	1	-7
584.074	1	3
584.244	1	9
584.414	1	4
584.584	1	20
584.753	1	-1
584.923	1	0
585.093	1	18
585.263	1	6
585.433	1	1
585.602	1	4
585.772	1	5
585.942	1	9
586.112	1	6
586.282	1	10
586.451	1	6
586.621	1	6
586.791	1	-1
586.961	1	6
587.131	1	-7
587.300	1	-6
587.470	1	2
587.640	1	4
587.810	1	12
587.980	1	8
588.149	1	9
588.319	1	7
588.489	1	3
588.659	1	0
588.829	1	11
588.998	1	-2
589.168	1	9
589.338	1	8
589.508	1	8
589.677	1	1
589.847	1	2
590.017	1	2
590.187	1	0
590.357	1	3
590.526	1	5
590.696	1	1
590.866	1	2
591.036	1	8
591.205	1	13
591.375	1	-3
591.545	1	-6
591.715	1	1
591.885	1	16
592.054	1	8
592.224	1	7
592.394	1	6
592.564	1	-14
592.733	1	6
592.903	1	7
593.073	1	10
593.243	1	1
593.412	1	4
593.582	1	17
593.752	1	-1
593.922	1	4
594.091	1	4
594.261	1	8
594.431	1	3
594.601	1	-9
594.771	1	14
594.940	1	3
595.110	1	8
595.280	1	0
595.450	1	7
595.619	1	2
595.789	1	19
595.959	1	7
596.129	1	2
596.298	1	8
596.468	1	8
596.638	1	6
596.808	1	17
596.977	1	-8
597.147	1	13
597.317	1	3
597.487	1	2
597.656	1	12
597.826	1	7
597.996	1	5
598.166	1	-4
598.335	1	4
598.505	1	-4
598.675	1	-4
598.844	1	3
599.014	1	-7
599.184	1	-4
599.354	1	-6
599.523	1	9
599.693	1	11
599.863	1	9
600.033	1	-4
600.202	1	1
600.372	1	4
600.542	1	0
600.712	1	10
600.881	1	6
601.051	1	5
601.221	1	-5
601.390	1	-7
601.560	1	5
601.730	1	3
601.900	1	6
602.069	1	-1
602.239	1	-6
602.409	1	1
602.578	1	8
602.748	1	3
602.918	1	-1
603.088	1	10
603.257	1	8
603.427	1	1
603.597	1	23
603.767	1	-4
603.936	1	4
604.106	1	2
604.276	1	6
604.445	1	3
604.615	1	7
604.785	1	3
604.954	1	10
605.124	1	-9
605.294	1	12
605.464	1	0
605.633	1	8
605.803	1	6
605.973	1	8
606.142	1	5
606.312	1	1
606.482	1	3
606.652	1	-4
606.821	1	4
606.991	1	2
607.161	1	11
607.330	1	8
607.500	1	-3
607.670	1	5
607.839	1	3
608.009	1	-15
608.179	1	5
608.348	1	6
608.518	1	-3
608.688	1	5
608.858	1	9
609.027	1	9
609.197	1	-10
609.367	1	-6
609.536	1	-1
609.706	1	5
609.876	1	-8
610.045	1	3
610.215	1	-1
610.385	1	-1
610.554	1	-4
610.724	1	8
610.894	1	12
611.063	1	7
611.233	1	-7
611.403	1	-4
611.572	1	3
611.742	1	-4
611.912	1	-3
612.081	1	-14
612.251	1	9
612.421	1	14
612.590	1	2
612.760	1	-1
612.930	1	1
613.099	1	-7
613.269	1	4
613.439	1	1
613.608	1	11
613.778	1	6
613.948	1	13
614.117	1	13
614.287	1	2
614.457	1	12
614.626	1	-1
614.796	1	7
614.966	1	-9
615.135	1	2
615.305	1	11
615.475	1	7
615.644	1	0
615.814	1	12
615.984	1	12
616.153	1	10
616.323	1	1
616.493	1	-2
616.662	1	4
616.832	1	1
617.002	1	-3
617.171	1	-1
617.341	1	3
617.511	1	8
617.680	1	6
617.850	1	0
618.019	1	1
618.189	1	0
618.359	1	9
618.528	1	-10
618.698	1	1
618.868	1	8
619.037	1	20
619.207	1	-5
619.377	1	-11
619.546	1	14
619.716	1	-3
619.885	1	0
620.055	1	13
620.225	1	13
620.394	1	2
620.564	1	-1
620.734	1	8
620.903	1	-1
621.073	1	-1
621.242	1	-2
621.412	1	2
621.582	1	4
621.751	1	0
621.921	1	9
622.091	1	-4
622.260	1	-6
622.430	1	6
622.599	1	13
622.769	1	2
622.939	1	3
623.108	1	8
623.278	1	1
623.448	1	-3
623.617	1	11
623.787	1	1
623.956	1	-2
624.126	1	2
624.296	1	-1
624.465	1	6
624.635	1	4
624.804	1	-16
624.974	1	-4
625.144	1	4
625.313	1	2
625.483	1	10
625.652	1	1
625.822	1	3
625.992	1	-2
626.161	1	4
626.331	1	12
626.501	1	9
626.670	1	13
626.840	1	4
627.009	1	-4
627.179	1	3
627.348	1	5
627.518	1	2
627.688	1	-4
627.857	1	2
628.027	1	5
628.196	1	8
628.366	1	2
628.536	1	5
628.705	1	3
628.875	1	5
629.044	1	3
629.214	1	2
629.384	1	-4
629.553	1	2
629.723	1	6
629.892	1	-1
630.062	1	11
630.232	1	16
630.401	1	1
630.571	1	3
630.740	1	9
630.910	1	3
631.079	1	10
631.249	1	-4
631.419	1	2
631.588	1	-1
631.758	1	0
631.927	1	2
632.097	1	0
632.266	1	-4
632.436	1	-1
632.606	1	1
632.775	1	7
632.945	1	-3
633.114	1	15
633.284	1	-5
633.453	1	-5
633.623	1	-4
633.793	1	7
633.962	1	8
634.132	1	6
634.301	1	3
634.471	1	-8
634.640	1	6
634.810	1	0
634.979	1	9
635.149	1	0
635.319	1	7
635.488	1	3
635.658	1	-4
635.827	1	10
635.997	1	-8
636.166	1	-2
636.336	1	9
636.505	1	-3
636.675	1	1
636.845	1	12
637.014	1	6
637.184	1	2
637.353	1	9
637.523	1	-5
637.692	1	-3
637.862	1	-4
638.031	1	5
638.201	1	9
638.370	1	3
638.540	1	0
638.710	1	4
638.879	1	0
639.049	1	11
639.218	1	5
639.388	1	5
639.557	1	10
639.727	1	-4
639.896	1	1
640.066	1	-3
640.235	1	14
640.405	1	1
640.574	1	0
640.744	1	-4
640.914	1	2
641.083	1	3
641.253	1	10
641.422	1	-1
641.592	1	-3
641.761	1	-3
641.931	1	11
642.100	1	-9
642.270	1	2
642.439	1	0
642.609	1	-1
642.778	1	0
642.948	1	5
643.117	1	1
643.287	1	4
643.456	1	7
643.626	1	8
643.795	1	-2
643.965	1	5
644.134	1	0
644.304	1	-3
644.473	1	7
644.643	1	5
644.812	1	13
644.982	1	3
645.151	1	-2
645.321	1	2
645.490	1	3
645.660	1	0
645.829	1	-9
645.999	1	-5
646.168	1	-2
646.338	1	8
646.507	1	7
646.677	1	-1
646.846	1	18
647.016	1	-2
647.185	1	4
647.355	1	0
647.524	1	3
647.694	1	-11
647.863	1	-3
648.033	1	-8
648.202	1	5
648.372	1	0
648.541	1	-1
648.711	1	4
648.880	1	6
649.050	1	-1
649.219	1	5
649.389	1	5
649.558	1	-6
649.728	1	1
649.897	1	-9
650.067	1	-5
650.236	1	5
650.406	1	4
650.575	1	6
650.745	1	-11
650.914	1	4
651.084	1	-9
651.253	1	-4
651.423	1	4
651.592	1	-1
651.762	1	2
651.931	1	7
652.101	1	5
652.270	1	10
652.440	1	0
652.609	1	5
652.778	1	6
652.948	1	3
653.117	1	5
653.287	1	6
653.456	1	4
653.626	1	9
653.795	1	11
653.965	1	13
654.134	1	13
654.304	1	7
654.473	1	8
654.643	1	9
654.812	1	3
654.982	1	-9
655.151	1	-1
655.320	1	6
655.490	1	11
655.659	1	-4
655.829	1	8
655.998	1	6
656.168	1	3
656.337	1	7
656.507	1	12
656.676	1	-11
656.846	1	-8
657.015	1	0
657.184	1	6
657.354	1	0
657.523	1	-2
657.693	1	-1
657.862	1	9
658.032	1	16
658.201	1	1
658.371	1	-9
658.540	1	5
658.709	1	-8
658.879	1	-5
659.048	1	0
659.218	1	5
659.387	1	-7
659.557	1	-7
659.726	1	-5
659.895	1	3
660.065	1	2
660.234	1	5
660.404	1	5
660.573	1	-4
660.743	1	-6
660.912	1	1
661.081	1	6
661.251	1	0
661.420	1	3
661.590	1	6
661.759	1	-1
661.929	1	9
662.098	1	-14
662.267	1	11
662.437	1	3
662.606	1	5
662.776	1	0
662.945	1	3
663.115	1	1
663.284	1	3
663.453	1	2
663.623	1	1
663.792	1	-1
663.962	1	-8
664.131	1	-5
664.300	1	12
664.470	1	0
664.639	1	2
664.809	1	9
664.978	1	-3
665.148	1	2
665.317	1	-6
665.486	1	-3
665.656	1	-3
665.825	1	5
665.995	1	8
666.164	1	11
666.333	1	8
666.503	1	-5
666.672	1	-12
666.842	1	5
667.011	1	9
667.180	1	4
667.350	1	10
667.519	1	1
667.689	1	-2
667.858	1	1
668.027	1	-9
668.197	1	9
668.366	1	-6
668.536	1	3
668.705	1	-3
668.874	1	-3
669.044	1	-14
669.213	1	9
669.382	1	2
669.552	1	6
669.721	1	-10
669.891	1	-3
670.060	1	12
670.229	1	9
670.399	1	4
670.568	1	4
670.738	1	-8
670.907	1	-12
671.076	1	11
671.246	1	6
671.415	1	-5
671.584	1	-3
671.754	1	-9
671.923	1	-6
672.093	1	14
672.262	1	11
672.431	1	-6
672.601	1	-4
672.770	1	5
672.939	1	-2
673.109	1	4
673.278	1	5
673.448	1	-7
673.617	1	1
673.786	1	3
