325.333	1	9
325.504	1	10
325.675	1	3
325.846	1	-3
326.017	1	3
326.188	1	16
326.359	1	4
326.531	1	-7
326.702	1	4
326.873	1	-2
327.044	1	-2
327.215	1	-7
327.386	1	7
327.557	1	8
327.728	1	4
327.899	1	-7
328.070	1	1
328.241	1	-9
328.412	1	8
328.583	1	-12
328.754	1	0
328.926	1	7
329.097	1	2
329.268	1	7
329.439	1	10
329.610	1	-2
329.781	1	-12
329.952	1	6
330.123	1	4
330.294	1	7
330.465	1	-2
330.636	1	11
330.807	1	9
330.978	1	-8
331.149	1	8
331.320	1	1
331.492	1	6
331.663	1	-6
331.834	1	10
332.005	1	8
332.176	1	1
332.347	1	2
332.518	1	6
332.689	1	4
332.860	1	0
333.031	1	0
333.202	1	4
333.373	1	-9
333.544	1	-3
333.715	1	-1
333.886	1	0
334.057	1	-6
334.228	1	2
334.399	1	9
334.570	1	-6
334.741	1	-7
334.912	1	-9
335.084	1	1
335.255	1	4
335.426	1	-3
335.597	1	-8
335.768	1	12
335.939	1	7
336.110	1	-1
336.281	1	-2
336.452	1	-3
336.623	1	10
336.794	1	-11
336.965	1	-1
337.136	1	3
337.307	1	12
337.478	1	12
337.649	1	7
337.820	1	10
337.991	1	2
338.162	1	1
338.333	1	2
338.504	1	13
338.675	1	-3
338.846	1	0
339.017	1	-5
339.188	1	3
339.359	1	4
339.530	1	-1
339.701	1	-8
339.872	1	1
340.043	1	1
340.214	1	2
340.385	1	-7
340.556	1	5
340.727	1	6
340.898	1	-2
341.069	1	7
341.240	1	2
341.411	1	3
341.582	1	-12
341.753	1	6
341.924	1	-6
342.095	1	-1
342.266	1	0
342.437	1	5
342.608	1	6
342.779	1	-2
342.950	1	0
343.121	1	11
343.292	1	7
343.463	1	-6
343.634	1	-7
343.805	1	4
343.976	1	1
344.147	1	5
344.318	1	12
344.489	1	-14
344.660	1	10
344.831	1	1
345.002	1	3
345.173	1	-3
345.344	1	-10
345.515	1	1
345.686	1	-2
345.857	1	-6
346.028	1	-15
346.199	1	1
346.370	1	2
346.541	1	-3
346.712	1	4
346.883	1	-2
347.054	1	0
347.225	1	-8
347.396	1	10
347.567	1	5
347.738	1	5
347.909	1	1
348.080	1	-12
348.251	1	-1
348.422	1	1
348.593	1	-8
348.764	1	-3
348.935	1	9
349.106	1	-3
349.277	1	-2
349.448	1	-5
349.619	1	5
349.790	1	-5
349.961	1	5
350.132	1	0
350.303	1	-9
350.474	1	6
350.645	1	1
350.816	1	-1
350.987	1	-7
351.157	1	11
351.328	1	-3
351.499	1	0
351.670	1	12
351.841	1	3
352.012	1	-9
352.183	1	-8
352.354	1	4
352.525	1	12
352.696	1	-8
352.867	1	1
353.038	1	17
353.209	1	6
353.380	1	1
353.551	1	0
353.722	1	-2
353.893	1	7
354.064	1	4
354.235	1	5
354.406	1	-5
354.576	1	11
354.747	1	5
354.918	1	-2
355.089	1	0
355.260	1	6
355.431	1	8
355.602	1	4
355.773	1	1
355.944	1	4
356.115	1	-4
356.286	1	1
356.457	1	-2
356.628	1	8
356.799	1	5
356.970	1	-7
357.141	1	-2
357.311	1	5
357.482	1	6
357.653	1	-2
357.824	1	0
357.995	1	4
358.166	1	1
358.337	1	4
358.508	1	5
358.679	1	10
358.850	1	3
359.021	1	-7
359.192	1	5
359.363	1	3
359.533	1	-5
359.704	1	2
359.875	1	3
360.046	1	7
360.217	1	14
360.388	1	5
360.559	1	3
360.730	1	7
360.901	1	7
361.072	1	-6
361.243	1	1
361.414	1	7
361.584	1	9
361.755	1	15
361.926	1	12
362.097	1	-4
362.268	1	13
362.439	1	3
362.610	1	-5
362.781	1	0
362.952	1	-1
363.123	1	13
363.293	1	8
363.464	1	18
363.635	1	13
363.806	1	5
363.977	1	19
364.148	1	16
364.319	1	8
364.490	1	-3
364.661	1	13
364.832	1	12
365.002	1	9
365.173	1	12
365.344	1	10
365.515	1	9
365.686	1	9
365.857	1	18
366.028	1	7
366.199	1	15
366.370	1	19
366.540	1	20
366.711	1	21
366.882	1	14
367.053	1	21
367.224	1	15
367.395	1	14
367.566	1	21
367.737	1	4
367.908	1	3
368.078	1	11
368.249	1	9
368.420	1	6
368.591	1	21
368.762	1	-4
368.933	1	15
369.104	1	-3
369.274	1	5
369.445	1	2
369.616	1	4
369.787	1	15
369.958	1	5
370.129	1	14
370.300	1	-13
370.471	1	21
370.641	1	13
370.812	1	5
370.983	1	6
371.154	1	-3
371.325	1	1
371.496	1	5
371.667	1	6
371.837	1	1
372.008	1	8
372.179	1	13
372.350	1	5
372.521	1	6
372.692	1	2
372.863	1	14
373.033	1	7
373.204	1	11
373.375	1	10
373.546	1	6
373.717	1	6
373.888	1	5
374.059	1	4
374.229	1	1
374.400	1	4
374.571	1	7
374.742	1	9
374.913	1	11
375.084	1	-2
375.254	1	10
375.425	1	1
375.596	1	-8
375.767	1	10
375.938	1	7
376.109	1	0
376.279	1	-1
376.450	1	9
376.621	1	14
376.792	1	3
376.963	1	-4
377.134	1	-7
377.304	1	18
377.475	1	3
377.646	1	2
377.817	1	15
377.988	1	8
378.159	1	19
378.329	1	7
378.500	1	-1
378.671	1	-2
378.842	1	-3
379.013	1	0
379.184	1	12
379.354	1	0
379.525	1	5
379.696	1	2
379.867	1	6
380.038	1	14
380.209	1	11
380.379	1	4
380.550	1	3
380.721	1	17
380.892	1	11
381.063	1	10
381.233	1	18
381.404	1	5
381.575	1	8
381.746	1	16
381.917	1	2
382.087	1	9
382.258	1	13
382.429	1	9
382.600	1	8
382.771	1	12
382.941	1	17
383.112	1	9
383.283	1	15
383.454	1	10
383.625	1	8
383.795	1	13
383.966	1	29
384.137	1	4
384.308	1	22
384.479	1	41
384.649	1	20
384.820	1	17
384.991	1	24
385.162	1	16
385.333	1	26
385.503	1	12
385.674	1	21
385.845	1	31
386.016	1	21
386.187	1	30
386.357	1	29
386.528	1	35
386.699	1	27
386.870	1	39
387.041	1	34
387.211	1	23
387.382	1	15
387.553	1	27
387.724	1	20
387.894	1	31
388.065	1	15
388.236	1	24
388.407	1	16
388.578	1	22
388.748	1	22
388.919	1	30
389.090	1	26
389.261	1	10
389.431	1	30
389.602	1	32
389.773	1	15
389.944	1	25
390.114	1	26
390.285	1	20
390.456	1	17
390.627	1	12
390.798	1	26
390.968	1	10
391.139	1	17
391.310	1	27
391.481	1	21
391.651	1	26
391.822	1	26
391.993	1	24
392.164	1	13
392.334	1	18
392.505	1	28
392.676	1	22
392.847	1	23
393.017	1	23
393.188	1	17
393.359	1	20
393.530	1	27
393.700	1	29
393.871	1	17
394.042	1	19
394.213	1	18
394.383	1	22
394.554	1	23
394.725	1	12
394.896	1	14
395.066	1	27
395.237	1	25
395.408	1	30
395.579	1	28
395.749	1	32
395.920	1	26
396.091	1	16
396.262	1	23
396.432	1	9
396.603	1	13
396.774	1	10
396.945	1	26
397.115	1	23
397.286	1	35
397.457	1	20
397.627	1	27
397.798	1	17
397.969	1	24
398.140	1	20
398.310	1	26
398.481	1	6
398.652	1	25
398.823	1	35
398.993	1	28
399.164	1	25
399.335	1	16
399.505	1	28
399.676	1	18
399.847	1	9
400.018	1	21
400.188	1	27
400.359	1	7
400.530	1	25
400.700	1	14
400.871	1	6
401.042	1	12
401.213	1	17
401.383	1	28
401.554	1	25
401.725	1	15
401.895	1	22
402.066	1	17
402.237	1	15
402.408	1	13
402.578	1	13
402.749	1	12
402.920	1	12
403.090	1	19
403.261	1	16
403.432	1	13
403.603	1	10
403.773	1	11
403.944	1	25
404.115	1	8
404.285	1	9
404.456	1	19
404.627	1	18
404.797	1	37
404.968	1	12
405.139	1	17
405.310	1	14
405.480	1	21
405.651	1	15
405.822	1	17
405.992	1	16
406.163	1	30
406.334	1	22
406.504	1	11
406.675	1	14
406.846	1	10
407.016	1	2
407.187	1	15
407.358	1	10
407.528	1	18
407.699	1	12
407.870	1	23
408.041	1	17
408.211	1	13
408.382	1	13
408.553	1	25
408.723	1	9
408.894	1	3
409.065	1	24
409.235	1	7
409.406	1	19
409.577	1	9
409.747	1	6
409.918	1	16
410.089	1	10
410.259	1	9
410.430	1	30
410.601	1	-2
410.771	1	10
410.942	1	10
411.113	1	16
411.283	1	5
411.454	1	7
411.625	1	5
411.795	1	17
411.966	1	-2
412.137	1	14
412.307	1	5
412.478	1	10
412.649	1	12
412.819	1	14
412.990	1	20
413.161	1	13
413.331	1	-3
413.502	1	15
413.672	1	8
413.843	1	6
414.014	1	5
414.184	1	4
414.355	1	2
414.526	1	13
414.696	1	-1
414.867	1	17
415.038	1	12
415.208	1	4
415.379	1	11
415.550	1	15
415.720	1	11
415.891	1	16
416.062	1	7
416.232	1	10
416.403	1	12
416.573	1	11
416.744	1	9
416.915	1	14
417.085	1	7
417.256	1	10
417.427	1	7
417.597	1	-5
417.768	1	4
417.939	1	6
418.109	1	9
418.280	1	7
418.450	1	-1
418.621	1	16
418.792	1	8
418.962	1	1
419.133	1	9
419.304	1	3
419.474	1	6
419.645	1	6
419.815	1	7
419.986	1	13
420.157	1	8
420.327	1	13
420.498	1	10
420.669	1	10
420.839	1	8
421.010	1	19
421.180	1	-2
421.351	1	10
421.522	1	13
421.692	1	12
421.863	1	-6
422.033	1	9
422.204	1	-4
422.375	1	12
422.545	1	21
422.716	1	8
422.886	1	7
423.057	1	-4
423.228	1	-6
423.398	1	12
423.569	1	2
423.740	1	-6
423.910	1	-3
424.081	1	9
424.251	1	7
424.422	1	13
424.593	1	14
424.763	1	6
424.934	1	9
425.104	1	15
425.275	1	1
425.445	1	0
425.616	1	14
425.787	1	-1
425.957	1	10
426.128	1	-1
426.298	1	7
426.469	1	0
426.640	1	-4
426.810	1	9
426.981	1	-3
427.151	1	2
427.322	1	4
427.493	1	6
427.663	1	9
427.834	1	-4
428.004	1	10
428.175	1	-1
428.345	1	7
428.516	1	7
428.687	1	-4
428.857	1	6
429.028	1	-1
429.198	1	0
429.369	1	3
429.540	1	13
429.710	1	3
429.881	1	19
430.051	1	7
430.222	1	1
430.392	1	-1
430.563	1	13
430.734	1	-1
430.904	1	6
431.075	1	12
431.245	1	11
431.416	1	7
431.586	1	-3
431.757	1	13
431.927	1	10
432.098	1	-3
432.269	1	4
432.439	1	-10
432.610	1	2
432.780	1	2
432.951	1	12
433.121	1	8
433.292	1	1
433.462	1	2
433.633	1	3
433.804	1	-6
433.974	1	-5
434.145	1	5
434.315	1	11
434.486	1	7
434.656	1	0
434.827	1	-1
434.997	1	3
435.168	1	-1
435.339	1	18
435.509	1	7
435.680	1	-4
435.850	1	4
436.021	1	7
436.191	1	1
436.362	1	1
436.532	1	7
436.703	1	9
436.873	1	4
437.044	1	3
437.214	1	4
437.385	1	6
437.556	1	7
437.726	1	-7
437.897	1	1
438.067	1	2
438.238	1	-13
438.408	1	18
438.579	1	10
438.749	1	2
438.920	1	4
439.090	1	13
439.261	1	-1
439.431	1	0
439.602	1	1
439.772	1	14
439.943	1	3
440.113	1	1
440.284	1	10
440.455	1	-6
440.625	1	7
440.796	1	1
440.966	1	6
441.137	1	-7
441.307	1	10
441.478	1	2
441.648	1	-3
441.819	1	-1
441.989	1	5
442.160	1	9
442.330	1	9
442.501	1	-10
442.671	1	5
442.842	1	10
443.012	1	1
443.183	1	-1
443.353	1	3
443.524	1	2
443.694	1	4
443.865	1	4
444.035	1	-1
444.206	1	8
444.376	1	5
444.547	1	5
444.717	1	9
444.888	1	-1
445.058	1	-2
445.229	1	4
445.399	1	4
445.570	1	0
445.740	1	5
445.911	1	12
446.081	1	-1
446.252	1	-12
446.422	1	1
446.593	1	-1
446.763	1	-2
446.934	1	12
447.104	1	-2
447.275	1	-11
447.445	1	-2
447.616	1	-4
447.786	1	1
447.957	1	2
448.127	1	8
448.298	1	5
448.468	1	12
448.639	1	6
448.809	1	-1
448.979	1	9
449.150	1	11
449.320	1	2
449.491	1	-1
449.661	1	4
449.832	1	10
450.002	1	5
450.173	1	-1
450.343	1	5
450.514	1	3
450.684	1	-4
450.855	1	10
451.025	1	5
451.196	1	-2
451.366	1	5
451.537	1	-2
451.707	1	6
451.878	1	-5
452.048	1	5
452.218	1	-5
452.389	1	-5
452.559	1	-4
452.730	1	-1
452.900	1	4
453.071	1	5
453.241	1	-7
453.412	1	-9
453.582	1	4
453.753	1	-3
453.923	1	-6
454.093	1	3
454.264	1	-7
454.434	1	5
454.605	1	-2
454.775	1	11
454.946	1	1
455.116	1	-3
455.287	1	9
455.457	1	2
455.628	1	6
455.798	1	-4
455.968	1	11
456.139	1	-2
456.309	1	-6
456.480	1	-2
456.650	1	-5
456.821	1	6
456.991	1	6
457.161	1	3
457.332	1	3
457.502	1	2
457.673	1	4
457.843	1	8
458.014	1	-5
458.184	1	9
458.355	1	9
458.525	1	-4
458.695	1	-1
458.866	1	-1
459.036	1	-2
459.207	1	8
459.377	1	-12
459.548	1	-6
459.718	1	-10
459.888	1	11
460.059	1	6
460.229	1	15
460.400	1	19
460.570	1	-3
460.740	1	-7
460.911	1	14
461.081	1	-4
461.252	1	1
461.422	1	0
461.593	1	1
461.763	1	5
461.933	1	-8
462.104	1	-1
462.274	1	4
462.445	1	-3
462.615	1	-5
462.785	1	-9
462.956	1	-7
463.126	1	-6
463.297	1	-2
463.467	1	3
463.638	1	7
463.808	1	6
463.978	1	4
464.149	1	6
464.319	1	1
464.490	1	-4
464.660	1	6
464.830	1	-2
465.001	1	1
465.171	1	8
465.342	1	7
465.512	1	6
465.682	1	2
465.853	1	-3
466.023	1	-1
466.194	1	-2
466.364	1	10
466.534	1	-2
466.705	1	11
466.875	1	6
467.045	1	4
467.216	1	-8
467.386	1	-4
467.557	1	10
467.727	1	10
467.897	1	16
468.068	1	-5
468.238	1	-6
468.409	1	5
468.579	1	4
468.749	1	2
468.920	1	-6
469.090	1	10
469.260	1	1
469.431	1	-1
469.601	1	11
469.772	1	-4
469.942	1	4
470.112	1	1
470.283	1	12
470.453	1	4
470.623	1	1
470.794	1	4
470.964	1	-8
471.135	1	-14
471.305	1	-6
471.475	1	-1
471.646	1	8
471.816	1	0
471.986	1	6
472.157	1	-2
472.327	1	6
472.497	1	4
472.668	1	-11
472.838	1	8
473.009	1	6
473.179	1	3
473.349	1	-3
473.520	1	10
473.690	1	12
473.860	1	7
474.031	1	-7
474.201	1	2
474.371	1	3
474.542	1	-12
474.712	1	5
474.882	1	5
475.053	1	-1
475.223	1	-3
475.394	1	10
475.564	1	12
475.734	1	-1
475.905	1	0
476.075	1	0
476.245	1	-1
476.416	1	2
476.586	1	-5
476.756	1	5
476.927	1	13
477.097	1	7
477.267	1	-9
477.438	1	2
477.608	1	6
477.778	1	1
477.949	1	0
478.119	1	5
478.289	1	1
478.460	1	2
478.630	1	-5
478.800	1	-1
478.971	1	11
479.141	1	13
479.311	1	-8
479.482	1	-14
479.652	1	1
479.822	1	-1
479.993	1	4
480.163	1	-5
480.333	1	0
480.504	1	3
480.674	1	4
480.844	1	7
481.015	1	-1
481.185	1	11
481.355	1	7
481.525	1	4
481.696	1	4
481.866	1	2
482.036	1	-4
482.207	1	5
482.377	1	2
482.547	1	-2
482.718	1	4
482.888	1	-5
483.058	1	-7
483.229	1	7
483.399	1	8
483.569	1	-1
483.740	1	-10
483.910	1	7
484.080	1	-9
484.250	1	6
484.421	1	-8
484.591	1	9
484.761	1	-4
484.932	1	3
485.102	1	4
485.272	1	5
485.443	1	19
485.613	1	-9
485.783	1	12
485.953	1	-7
486.124	1	8
486.294	1	3
486.464	1	3
486.635	1	7
486.805	1	9
486.975	1	-10
487.146	1	4
487.316	1	15
487.486	1	1
487.656	1	-9
487.827	1	5
487.997	1	12
488.167	1	5
488.338	1	19
488.508	1	14
488.678	1	3
488.848	1	-1
489.019	1	-3
489.189	1	6
489.359	1	6
489.529	1	2
489.700	1	10
489.870	1	-7
490.040	1	1
490.211	1	12
490.381	1	-6
490.551	1	-3
490.721	1	7
490.892	1	4
491.062	1	13
491.232	1	6
491.402	1	-8
491.573	1	2
491.743	1	-5
491.913	1	9
492.084	1	9
492.254	1	-5
492.424	1	1
492.594	1	2
492.765	1	12
492.935	1	-1
493.105	1	16
493.275	1	11
493.446	1	-1
493.616	1	0
493.786	1	7
493.956	1	2
494.127	1	-3
494.297	1	7
494.467	1	-1
494.637	1	0
494.808	1	3
494.978	1	11
495.148	1	13
495.318	1	20
495.489	1	-3
495.659	1	13
495.829	1	6
495.999	1	2
496.170	1	-3
496.340	1	0
496.510	1	5
496.680	1	4
496.851	1	11
497.021	1	6
497.191	1	2
497.361	1	10
497.532	1	8
497.702	1	-5
497.872	1	3
498.042	1	7
498.213	1	5
498.383	1	2
498.553	1	11
498.723	1	3
498.894	1	-3
499.064	1	10
499.234	1	2
499.404	1	8
499.574	1	-4
499.745	1	2
499.915	1	7
500.085	1	2
500.255	1	8
500.426	1	3
500.596	1	-1
500.766	1	5
500.936	1	-3
501.106	1	4
501.277	1	10
501.447	1	6
501.617	1	5
501.787	1	2
501.958	1	1
502.128	1	5
502.298	1	12
502.468	1	14
502.638	1	3
502.809	1	6
502.979	1	-1
503.149	1	8
503.319	1	14
503.489	1	7
503.660	1	1
503.830	1	-1
504.000	1	-4
504.170	1	10
504.340	1	8
504.511	1	2
504.681	1	5
504.851	1	7
505.021	1	6
505.192	1	8
505.362	1	8
505.532	1	8
505.702	1	4
505.872	1	-5
506.043	1	5
506.213	1	16
506.383	1	-2
506.553	1	11
506.723	1	5
506.893	1	5
507.064	1	0
507.234	1	9
507.404	1	3
507.574	1	-1
507.744	1	-1
507.915	1	17
508.085	1	14
508.255	1	11
508.425	1	15
508.595	1	2
508.766	1	-5
508.936	1	6
509.106	1	11
509.276	1	13
509.446	1	-6
509.616	1	13
509.787	1	6
509.957	1	12
510.127	1	7
510.297	1	10
510.467	1	9
510.638	1	-2
510.808	1	6
510.978	1	-8
511.148	1	14
511.318	1	8
511.488	1	10
511.659	1	10
511.829	1	5
511.999	1	29
512.169	1	11
512.339	1	3
512.509	1	7
512.680	1	3
512.850	1	7
513.020	1	13
513.190	1	6
513.360	1	8
513.530	1	1
513.700	1	3
513.871	1	13
514.041	1	11
514.211	1	1
514.381	1	14
514.551	1	19
514.721	1	11
514.892	1	11
515.062	1	11
515.232	1	10
515.402	1	6
515.572	1	5
515.742	1	14
515.912	1	15
516.083	1	6
516.253	1	11
516.423	1	16
516.593	1	1
516.763	1	10
516.933	1	11
517.104	1	11
517.274	1	14
517.444	1	11
517.614	1	3
517.784	1	3
517.954	1	13
518.124	1	18
518.294	1	11
518.465	1	14
518.635	1	6
518.805	1	11
518.975	1	17
519.145	1	13
519.315	1	7
519.485	1	9
519.656	1	11
519.826	1	18
519.996	1	12
520.166	1	11
520.336	1	2
520.506	1	17
520.676	1	12
520.846	1	-1
521.017	1	-4
521.187	1	7
521.357	1	8
521.527	1	8
521.697	1	16
521.867	1	15
522.037	1	5
522.207	1	11
522.377	1	18
522.548	1	6
522.718	1	1
522.888	1	5
523.058	1	33
523.228	1	29
523.398	1	7
523.568	1	2
523.738	1	0
523.909	1	12
524.079	1	7
524.249	1	12
524.419	1	16
524.589	1	17
524.759	1	8
524.929	1	9
525.099	1	11
525.269	1	18
525.439	1	-2
525.610	1	11
525.780	1	17
525.950	1	0
526.120	1	3
526.290	1	-2
526.460	1	10
526.630	1	9
526.800	1	6
526.970	1	-2
527.140	1	3
527.311	1	13
527.481	1	19
527.651	1	21
527.821	1	3
527.991	1	9
528.161	1	8
528.331	1	13
528.501	1	-3
528.671	1	16
528.841	1	4
529.011	1	9
529.181	1	9
529.352	1	11
529.522	1	2
529.692	1	15
529.862	1	12
530.032	1	3
530.202	1	10
530.372	1	9
530.542	1	20
530.712	1	26
530.882	1	18
531.052	1	16
531.222	1	2
531.392	1	10
531.563	1	9
531.733	1	9
531.903	1	14
532.073	1	17
532.243	1	13
532.413	1	15
532.583	1	3
532.753	1	11
532.923	1	-2
533.093	1	20
533.263	1	6
533.433	1	1
533.603	1	15
533.773	1	9
533.943	1	14
534.113	1	11
534.284	1	11
534.454	1	18
534.624	1	18
534.794	1	9
534.964	1	1
535.134	1	8
535.304	1	15
535.474	1	8
535.644	1	22
535.814	1	23
535.984	1	1
536.154	1	1
536.324	1	10
536.494	1	13
536.664	1	11
536.834	1	19
537.004	1	23
537.174	1	21
537.344	1	7
537.514	1	8
537.685	1	9
537.855	1	15
538.025	1	12
538.195	1	13
538.365	1	18
538.535	1	12
538.705	1	3
538.875	1	8
539.045	1	18
539.215	1	-1
539.385	1	11
539.555	1	6
539.725	1	9
539.895	1	13
540.065	1	4
540.235	1	8
540.405	1	12
540.575	1	16
540.745	1	7
540.915	1	9
541.085	1	1
541.255	1	-1
541.425	1	4
541.595	1	5
541.765	1	13
541.935	1	10
542.105	1	20
542.275	1	12
542.445	1	23
542.615	1	7
542.785	1	11
542.955	1	8
543.125	1	10
543.295	1	14
543.465	1	19
543.635	1	11
543.805	1	14
543.975	1	8
544.145	1	3
544.315	1	13
544.485	1	12
544.655	1	5
544.825	1	14
544.995	1	6
545.165	1	22
545.335	1	3
545.505	1	12
545.675	1	19
545.845	1	10
546.015	1	6
546.185	1	5
546.355	1	22
546.525	1	8
546.695	1	-1
546.865	1	-1
547.035	1	18
547.205	1	9
547.375	1	15
547.545	1	18
547.715	1	9
547.885	1	7
548.055	1	10
548.225	1	0
548.395	1	7
548.565	1	14
548.735	1	13
548.905	1	0
549.075	1	5
549.245	1	17
549.415	1	4
549.585	1	7
549.755	1	2
549.925	1	17
550.095	1	14
550.265	1	10
550.435	1	20
550.605	1	4
550.775	1	5
550.945	1	20
551.115	1	2
551.285	1	15
551.455	1	4
551.625	1	9
551.795	1	13
551.965	1	15
552.135	1	8
552.305	1	14
552.475	1	-2
552.645	1	17
552.815	1	8
552.985	1	10
553.155	1	4
553.325	1	12
553.495	1	12
553.665	1	14
553.835	1	14
554.004	1	14
554.174	1	5
554.344	1	-6
554.514	1	2
554.684	1	9
554.854	1	12
555.024	1	10
555.194	1	13
555.364	1	11
555.534	1	2
555.704	1	19
555.874	1	3
556.044	1	4
556.214	1	6
556.384	1	4
556.554	1	-4
556.724	1	0
556.894	1	19
557.064	1	9
557.234	1	3
557.404	1	5
557.573	1	12
557.743	1	14
557.913	1	1
558.083	1	2
558.253	1	10
558.423	1	0
558.593	1	16
558.763	1	-6
558.933	1	8
559.103	1	7
559.273	1	13
559.443	1	6
559.613	1	14
559.783	1	10
559.953	1	8
560.122	1	-4
560.292	1	11
560.462	1	7
560.632	1	4
560.802	1	16
560.972	1	11
561.142	1	9
561.312	1	4
561.482	1	14
561.652	1	2
561.822	1	9
561.992	1	16
562.162	1	1
562.331	1	1
562.501	1	0
562.671	1	1
562.841	1	4
563.011	1	7
563.181	1	7
563.351	1	1
563.521	1	8
563.691	1	13
563.861	1	10
564.031	1	7
564.201	1	3
564.370	1	19
564.540	1	17
564.710	1	-3
564.880	1	6
565.050	1	6
565.220	1	6
565.390	1	0
565.560	1	11
565.730	1	5
565.900	1	2
566.069	1	12
566.239	1	-1
566.409	1	2
566.579	1	14
566.749	1	13
566.919	1	10
567.089	1	14
567.259	1	18
567.429	1	10
567.599	1	4
567.768	1	14
567.938	1	11
568.108	1	-5
568.278	1	0
568.448	1	4
568.618	1	9
568.788	1	4
568.958	1	15
569.128	1	4
569.297	1	4
569.467	1	3
569.637	1	8
569.807	1	12
569.977	1	6
570.147	1	10
570.317	1	14
570.487	1	4
570.656	1	-1
570.826	1	12
570.996	1	-10
571.166	1	-2
571.336	1	0
571.506	1	5
571.676	1	8
571.846	1	13
572.015	1	1
572.185	1	7
572.355	1	18
572.525	1	1
572.695	1	11
572.865	1	15
573.035	1	6
573.205	1	13
573.374	1	10
573.544	1	7
573.714	1	14
573.884	1	-4
574.054	1	8
574.224	1	0
574.394	1	0
574.563	1	10
574.733	1	1
574.903	1	3
575.073	1	0
575.243	1	-5
575.413	1	0
575.583	1	9
575.752	1	3
575.922	1	10
576.092	1	9
576.262	1	6
576.432	1	2
576.602	1	7
576.772	1	4
576.941	1	1
577.111	1	8
577.281	1	-6
577.451	1	0
577.621	1	7
577.791	1	8
577.960	1	-1
578.130	1	5
578.300	1	8
578.470	1	2
578.640	1	0
578.810	1	7
578.979	1	4
579.149	1	7
579.319	1	14
579.489	1	5
579.659	1	9
579.829	1	5
579.998	1	1
580.168	1	2
580.338	1	-8
580.508	1	6
580.678	1	2
580.848	1	5
581.017	1	8
581.187	1	11
581.357	1	4
581.527	1	10
581.697	1	-8
581.867	1	5
582.036	1	8
582.206	1	-3
582.376	1	0
582.546	1	4
582.716	1	7
582.885	1	7
583.055	1	3
583.225	1	8
583.395	1	7
583.565	1	14
583.735	1	-4
583.904	1	3
584.074	1	1
584.244	1	3
584.414	1	1
584.584	1	12
584.753	1	-2
584.923	1	4
585.093	1	6
585.263	1	13
585.433	1	-5
585.602	1	3
585.772	1	-1
585.942	1	5
586.112	1	8
586.282	1	9
586.451	1	11
586.621	1	2
586.791	1	4
586.961	1	5
587.131	1	-3
587.300	1	2
587.470	1	1
587.640	1	-10
587.810	1	4
587.980	1	10
588.149	1	-1
588.319	1	8
588.489	1	5
588.659	1	8
588.829	1	2
588.998	1	-4
589.168	1	3
589.338	1	13
589.508	1	11
589.677	1	3
589.847	1	8
590.017	1	6
590.187	1	2
590.357	1	-3
590.526	1	2
590.696	1	8
590.866	1	2
591.036	1	13
591.205	1	0
591.375	1	-3
591.545	1	-1
591.715	1	-3
591.885	1	9
592.054	1	4
592.224	1	5
592.394	1	4
592.564	1	-12
592.733	1	0
592.903	1	8
593.073	1	10
593.243	1	-1
593.412	1	2
593.582	1	0
593.752	1	0
593.922	1	-4
594.091	1	9
594.261	1	6
594.431	1	-3
594.601	1	-12
594.771	1	16
594.940	1	5
595.110	1	1
595.280	1	-5
595.450	1	6
595.619	1	-3
595.789	1	14
595.959	1	3
596.129	1	5
596.298	1	4
596.468	1	8
596.638	1	-2
596.808	1	11
596.977	1	-5
597.147	1	6
597.317	1	10
597.487	1	4
597.656	1	2
597.826	1	-3
597.996	1	6
598.166	1	-3
598.335	1	3
598.505	1	-2
598.675	1	8
598.844	1	-2
599.014	1	0
599.184	1	0
599.354	1	-9
599.523	1	-8
599.693	1	6
599.863	1	5
600.033	1	0
600.202	1	-2
600.372	1	-4
600.542	1	-3
600.712	1	-4
600.881	1	-2
601.051	1	11
601.221	1	-6
601.390	1	-7
601.560	1	1
601.730	1	-2
601.900	1	8
602.069	1	-3
602.239	1	0
602.409	1	-5
602.578	1	8
602.748	1	-6
602.918	1	-1
603.088	1	6
603.257	1	3
603.427	1	-3
603.597	1	20
603.767	1	-4
603.936	1	9
604.106	1	9
604.276	1	2
604.445	1	9
604.615	1	-6
604.785	1	6
604.954	1	4
605.124	1	-5
605.294	1	4
605.464	1	-5
605.633	1	10
605.803	1	10
605.973	1	2
606.142	1	8
606.312	1	0
606.482	1	-7
606.652	1	-5
606.821	1	3
606.991	1	-5
607.161	1	0
607.330	1	8
607.500	1	10
607.670	1	-3
607.839	1	5
608.009	1	-6
608.179	1	6
608.348	1	4
608.518	1	0
608.688	1	2
608.858	1	-4
609.027	1	9
609.197	1	-6
609.367	1	-2
609.536	1	-1
609.706	1	0
609.876	1	6
610.045	1	7
610.215	1	5
610.385	1	4
610.554	1	-3
610.724	1	4
610.894	1	5
611.063	1	12
611.233	1	-5
611.403	1	7
611.572	1	3
611.742	1	-12
611.912	1	4
612.081	1	-1
612.251	1	4
612.421	1	13
612.590	1	-3
612.760	1	9
612.930	1	-3
613.099	1	-9
613.269	1	-1
613.439	1	-11
613.608	1	-1
613.778	1	4
613.948	1	2
614.117	1	7
614.287	1	-4
614.457	1	10
614.626	1	12
614.796	1	10
614.966	1	3
615.135	1	-1
615.305	1	12
615.475	1	9
615.644	1	1
615.814	1	8
615.984	1	18
616.153	1	12
616.323	1	-1
616.493	1	6
616.662	1	3
616.832	1	-5
617.002	1	-1
617.171	1	-1
617.341	1	9
617.511	1	-3
617.680	1	1
617.850	1	-1
618.019	1	-3
618.189	1	-6
618.359	1	1
618.528	1	-15
618.698	1	3
618.868	1	14
619.037	1	6
619.207	1	-5
619.377	1	-7
619.546	1	4
619.716	1	-9
619.885	1	-1
620.055	1	8
620.225	1	8
620.394	1	-2
620.564	1	-3
620.734	1	-4
620.903	1	16
621.073	1	-9
621.242	1	-5
621.412	1	6
621.582	1	-4
621.751	1	-3
621.921	1	7
622.091	1	-8
622.260	1	1
622.430	1	4
622.599	1	17
622.769	1	-5
622.939	1	1
623.108	1	0
623.278	1	-8
623.448	1	-3
623.617	1	8
623.787	1	-1
623.956	1	4
624.126	1	9
624.296	1	4
624.465	1	3
624.635	1	1
624.804	1	-3
624.974	1	4
625.144	1	7
625.313	1	7
625.483	1	6
625.652	1	6
625.822	1	11
625.992	1	5
626.161	1	10
626.331	1	6
626.501	1	5
626.670	1	8
626.840	1	12
627.009	1	-9
627.179	1	0
627.348	1	-1
627.518	1	9
627.688	1	0
627.857	1	6
628.027	1	-6
628.196	1	9
628.366	1	7
628.536	1	-2
628.705	1	1
628.875	1	5
629.044	1	6
629.214	1	-1
629.384	1	1
629.553	1	-1
629.723	1	11
629.892	1	0
630.062	1	3
630.232	1	9
630.401	1	-10
630.571	1	2
630.740	1	15
630.910	1	-3
631.079	1	9
631.249	1	-7
631.419	1	10
631.588	1	-3
631.758	1	1
631.927	1	4
632.097	1	10
632.266	1	-2
632.436	1	-5
632.606	1	7
632.775	1	-2
632.945	1	-8
633.114	1	14
633.284	1	-14
633.453	1	5
633.623	1	2
633.793	1	-7
633.962	1	8
634.132	1	5
634.301	1	-8
634.471	1	-13
634.640	1	13
634.810	1	-3
634.979	1	5
635.149	1	-2
635.319	1	4
635.488	1	7
635.658	1	3
635.827	1	2
635.997	1	8
636.166	1	-3
636.336	1	6
636.505	1	2
636.675	1	1
636.845	1	9
637.014	1	-4
637.184	1	-8
637.353	1	-1
637.523	1	1
637.692	1	3
637.862	1	-12
638.031	1	8
638.201	1	9
638.370	1	3
638.540	1	5
638.710	1	-11
638.879	1	-6
639.049	1	-1
639.218	1	-5
639.388	1	-1
639.557	1	5
639.727	1	-1
639.896	1	2
640.066	1	11
640.235	1	5
640.405	1	0
640.574	1	-3
640.744	1	1
640.914	1	-2
641.083	1	-2
641.253	1	-9
641.422	1	-4
641.592	1	-3
641.761	1	-1
641.931	1	10
642.100	1	-9
642.270	1	-1
642.439	1	1
642.609	1	-8
642.778	1	-4
642.948	1	6
643.117	1	-5
643.287	1	12
643.456	1	15
643.626	1	9
643.795	1	-5
643.965	1	-5
644.134	1	1
644.304	1	-2
644.473	1	9
644.643	1	9
644.812	1	16
644.982	1	6
645.151	1	-5
645.321	1	6
645.490	1	7
645.660	1	-1
645.829	1	-5
645.999	1	-2
646.168	1	-11
646.338	1	13
646.507	1	1
646.677	1	2
646.846	1	13
647.016	1	2
647.185	1	-2
647.355	1	-3
647.524	1	0
647.694	1	-9
647.863	1	-13
648.033	1	-3
648.202	1	7
648.372	1	-4
648.541	1	0
648.711	1	8
648.880	1	-4
649.050	1	4
649.219	1	7
649.389	1	0
649.558	1	-3
649.728	1	3
649.897	1	9
650.067	1	-2
650.236	1	12
650.406	1	0
650.575	1	6
650.745	1	-10
650.914	1	0
651.084	1	-11
651.253	1	2
651.423	1	12
651.592	1	-3
651.762	1	9
651.931	1	3
652.101	1	-2
652.270	1	6
652.440	1	3
652.609	1	6
652.778	1	0
652.948	1	-5
653.117	1	5
653.287	1	13
653.456	1	1
653.626	1	9
653.795	1	8
653.965	1	10
654.134	1	6
654.304	1	-1
654.473	1	3
654.643	1	5
654.812	1	10
654.982	1	-11
655.151	1	-8
655.320	1	-5
655.490	1	0
655.659	1	5
655.829	1	4
655.998	1	0
656.168	1	5
656.337	1	-4
656.507	1	5
656.676	1	-5
656.846	1	-5
657.015	1	-5
657.184	1	3
657.354	1	7
657.523	1	-7
657.693	1	13
657.862	1	1
658.032	1	11
658.201	1	-2
658.371	1	0
658.540	1	5
658.709	1	-7
658.879	1	3
659.048	1	8
659.218	1	-5
659.387	1	-1
659.557	1	-1
659.726	1	1
659.895	1	-7
660.065	1	0
660.234	1	2
660.404	1	-4
660.573	1	-6
660.743	1	-3
660.912	1	-2
661.081	1	11
661.251	1	14
661.420	1	8
661.590	1	-3
661.759	1	3
661.929	1	-5
662.098	1	-16
662.267	1	6
662.437	1	-8
662.606	1	12
662.776	1	5
662.945	1	-3
663.115	1	-6
663.284	1	6
663.453	1	-2
663.623	1	13
663.792	1	-5
663.962	1	5
664.131	1	-5
664.300	1	-5
664.470	1	-4
664.639	1	-3
664.809	1	5
664.978	1	9
665.148	1	1
665.317	1	-13
665.486	1	-7
665.656	1	1
665.825	1	4
665.995	1	9
666.164	1	4
666.333	1	8
666.503	1	-7
666.672	1	-13
666.842	1	2
667.011	1	9
667.180	1	1
667.350	1	9
667.519	1	-4
667.689	1	-8
667.858	1	8
668.027	1	1
668.197	1	0
668.366	1	3
668.536	1	2
668.705	1	3
668.874	1	3
669.044	1	-3
669.213	1	1
669.382	1	0
669.552	1	11
669.721	1	-9
669.891	1	0
670.060	1	10
670.229	1	7
670.399	1	15
670.568	1	11
670.738	1	-3
670.907	1	2
671.076	1	7
671.246	1	-1
671.415	1	-1
671.584	1	2
671.754	1	-11
671.923	1	-5
672.093	1	4
672.262	1	10
672.431	1	0
672.601	1	-6
672.770	1	1
672.939	1	-2
673.109	1	-2
673.278	1	5
673.448	1	-1
673.617	1	5
673.786	1	2
