325.333	1	3
325.504	1	7
325.675	1	-2
325.846	1	-13
326.017	1	-5
326.188	1	7
326.359	1	1
326.531	1	-5
326.702	1	2
326.873	1	15
327.044	1	-6
327.215	1	-10
327.386	1	-6
327.557	1	-3
327.728	1	1
327.899	1	-7
328.070	1	13
328.241	1	-3
328.412	1	2
328.583	1	-8
328.754	1	-2
328.926	1	5
329.097	1	-1
329.268	1	-4
329.439	1	0
329.610	1	-5
329.781	1	1
329.952	1	14
330.123	1	8
330.294	1	1
330.465	1	-5
330.636	1	-1
330.807	1	13
330.978	1	-5
331.149	1	2
331.320	1	4
331.492	1	-6
331.663	1	-8
331.834	1	8
332.005	1	3
332.176	1	-4
332.347	1	1
332.518	1	8
332.689	1	6
332.860	1	0
333.031	1	-8
333.202	1	-2
333.373	1	-4
333.544	1	-10
333.715	1	-6
333.886	1	-1
334.057	1	-12
334.228	1	-2
334.399	1	7
334.570	1	4
334.741	1	-6
334.912	1	1
335.084	1	-7
335.255	1	-4
335.426	1	-8
335.597	1	-6
335.768	1	-5
335.939	1	1
336.110	1	-4
336.281	1	-12
336.452	1	2
336.623	1	4
336.794	1	0
336.965	1	-1
337.136	1	-7
337.307	1	5
337.478	1	8
337.649	1	11
337.820	1	3
337.991	1	12
338.162	1	-1
338.333	1	3
338.504	1	-4
338.675	1	2
338.846	1	-3
339.017	1	-3
339.188	1	-3
339.359	1	-1
339.530	1	7
339.701	1	3
339.872	1	2
340.043	1	-3
340.214	1	-1
340.385	1	1
340.556	1	11
340.727	1	0
340.898	1	-3
341.069	1	-5
341.240	1	3
341.411	1	4
341.582	1	-5
341.753	1	3
341.924	1	-7
342.095	1	4
342.266	1	-7
342.437	1	2
342.608	1	-3
342.779	1	2
342.950	1	6
343.121	1	4
343.292	1	0
343.463	1	-7
343.634	1	3
343.805	1	8
343.976	1	8
344.147	1	-3
344.318	1	5
344.489	1	-3
344.660	1	10
344.831	1	1
345.002	1	-3
345.173	1	-8
345.344	1	-8
345.515	1	1
345.686	1	-3
345.857	1	-6
346.028	1	-3
346.199	1	-18
346.370	1	6
346.541	1	-13
346.712	1	-1
346.883	1	-3
347.054	1	-2
347.225	1	-6
347.396	1	1
347.567	1	7
347.738	1	3
347.909	1	7
348.080	1	-7
348.251	1	1
348.422	1	0
348.593	1	-7
348.764	1	-5
348.935	1	8
349.106	1	10
349.277	1	-9
349.448	1	-6
349.619	1	-7
349.790	1	2
349.961	1	-1
350.132	1	-6
350.303	1	-8
350.474	1	-2
350.645	1	3
350.816	1	-5
350.987	1	-1
351.157	1	9
351.328	1	2
351.499	1	2
351.670	1	5
351.841	1	2
352.012	1	-12
352.183	1	4
352.354	1	6
352.525	1	1
352.696	1	1
352.867	1	8
353.038	1	17
353.209	1	-3
353.380	1	0
353.551	1	5
353.722	1	-1
353.893	1	4
354.064	1	11
354.235	1	7
354.406	1	-7
354.576	1	1
354.747	1	-6
354.918	1	-11
355.089	1	-5
355.260	1	4
355.431	1	8
355.602	1	7
355.773	1	6
355.944	1	5
356.115	1	8
356.286	1	2
356.457	1	-7
356.628	1	-1
356.799	1	3
356.970	1	-1
357.141	1	-6
357.311	1	-1
357.482	1	0
357.653	1	1
357.824	1	-3
357.995	1	4
358.166	1	-1
358.337	1	2
358.508	1	-4
358.679	1	9
358.850	1	5
359.021	1	-4
359.192	1	9
359.363	1	5
359.533	1	-3
359.704	1	-1
359.875	1	-3
360.046	1	8
360.217	1	0
360.388	1	11
360.559	1	4
360.730	1	4
360.901	1	8
361.072	1	-8
361.243	1	3
361.414	1	16
361.584	1	-2
361.755	1	10
361.926	1	12
362.097	1	1
362.268	1	10
362.439	1	6
362.610	1	0
362.781	1	3
362.952	1	7
363.123	1	12
363.293	1	-1
363.464	1	14
363.635	1	8
363.806	1	1
363.977	1	13
364.148	1	12
364.319	1	5
364.490	1	-6
364.661	1	6
364.832	1	5
365.002	1	14
365.173	1	6
365.344	1	9
365.515	1	-5
365.686	1	9
365.857	1	3
366.028	1	11
366.199	1	4
366.370	1	10
366.540	1	14
366.711	1	18
366.882	1	15
367.053	1	17
367.224	1	13
367.395	1	16
367.566	1	10
367.737	1	-3
367.908	1	12
368.078	1	8
368.249	1	8
368.420	1	3
368.591	1	18
368.762	1	7
368.933	1	16
369.104	1	3
369.274	1	2
369.445	1	1
369.616	1	0
369.787	1	9
369.958	1	2
370.129	1	17
370.300	1	-1
370.471	1	12
370.641	1	0
370.812	1	13
370.983	1	6
371.154	1	-4
371.325	1	5
371.496	1	1
371.667	1	4
371.837	1	-6
372.008	1	9
372.179	1	4
372.350	1	-3
372.521	1	8
372.692	1	12
372.863	1	3
373.033	1	0
373.204	1	12
373.375	1	-4
373.546	1	3
373.717	1	8
373.888	1	-2
374.059	1	8
374.229	1	-9
374.400	1	0
374.571	1	12
374.742	1	11
374.913	1	4
375.084	1	-5
375.254	1	8
375.425	1	-1
375.596	1	-2
375.767	1	6
375.938	1	-3
376.109	1	-8
376.279	1	4
376.450	1	7
376.621	1	14
376.792	1	5
376.963	1	5
377.134	1	-8
377.304	1	1
377.475	1	2
377.646	1	7
377.817	1	12
377.988	1	2
378.159	1	4
378.329	1	10
378.500	1	-2
378.671	1	-1
378.842	1	1
379.013	1	-5
379.184	1	7
379.354	1	5
379.525	1	6
379.696	1	-5
379.867	1	13
380.038	1	13
380.209	1	7
380.379	1	-6
380.550	1	5
380.721	1	14
380.892	1	5
381.063	1	1
381.233	1	4
381.404	1	9
381.575	1	0
381.746	1	7
381.917	1	0
382.087	1	6
382.258	1	9
382.429	1	5
382.600	1	13
382.771	1	4
382.941	1	10
383.112	1	3
383.283	1	7
383.454	1	7
383.625	1	5
383.795	1	17
383.966	1	12
384.137	1	-1
384.308	1	18
384.479	1	21
384.649	1	9
384.820	1	15
384.991	1	23
385.162	1	14
385.333	1	21
385.503	1	11
385.674	1	14
385.845	1	21
386.016	1	15
386.187	1	23
386.357	1	17
386.528	1	28
386.699	1	25
386.870	1	21
387.041	1	8
387.211	1	22
387.382	1	15
387.553	1	20
387.724	1	14
387.894	1	26
388.065	1	16
388.236	1	24
388.407	1	19
388.578	1	14
388.748	1	25
388.919	1	18
389.090	1	22
389.261	1	-8
389.431	1	27
389.602	1	16
389.773	1	17
389.944	1	16
390.114	1	15
390.285	1	11
390.456	1	24
390.627	1	8
390.798	1	21
390.968	1	14
391.139	1	5
391.310	1	33
391.481	1	8
391.651	1	15
391.822	1	29
391.993	1	13
392.164	1	9
392.334	1	22
392.505	1	9
392.676	1	23
392.847	1	26
393.017	1	5
393.188	1	15
393.359	1	18
393.530	1	15
393.700	1	18
393.871	1	12
394.042	1	17
394.213	1	15
394.383	1	19
394.554	1	23
394.725	1	17
394.896	1	9
395.066	1	19
395.237	1	13
395.408	1	19
395.579	1	16
395.749	1	13
395.920	1	16
396.091	1	18
396.262	1	19
396.432	1	9
396.603	1	13
396.774	1	4
396.945	1	14
397.115	1	16
397.286	1	25
397.457	1	16
397.627	1	12
397.798	1	6
397.969	1	9
398.140	1	18
398.310	1	20
398.481	1	2
398.652	1	27
398.823	1	29
398.993	1	14
399.164	1	22
399.335	1	15
399.505	1	14
399.676	1	22
399.847	1	11
400.018	1	22
400.188	1	21
400.359	1	19
400.530	1	13
400.700	1	12
400.871	1	1
401.042	1	11
401.213	1	12
401.383	1	14
401.554	1	16
401.725	1	6
401.895	1	15
402.066	1	17
402.237	1	12
402.408	1	8
402.578	1	9
402.749	1	4
402.920	1	1
403.090	1	13
403.261	1	15
403.432	1	10
403.603	1	19
403.773	1	14
403.944	1	16
404.115	1	-2
404.285	1	-1
404.456	1	11
404.627	1	18
404.797	1	30
404.968	1	4
405.139	1	6
405.310	1	9
405.480	1	15
405.651	1	11
405.822	1	13
405.992	1	8
406.163	1	18
406.334	1	10
406.504	1	3
406.675	1	19
406.846	1	8
407.016	1	20
407.187	1	2
407.358	1	9
407.528	1	14
407.699	1	12
407.870	1	20
408.041	1	9
408.211	1	9
408.382	1	16
408.553	1	13
408.723	1	1
408.894	1	2
409.065	1	19
409.235	1	4
409.406	1	9
409.577	1	12
409.747	1	1
409.918	1	14
410.089	1	8
410.259	1	3
410.430	1	17
410.601	1	8
410.771	1	11
410.942	1	17
411.113	1	7
411.283	1	13
411.454	1	3
411.625	1	0
411.795	1	12
411.966	1	3
412.137	1	12
412.307	1	9
412.478	1	19
412.649	1	8
412.819	1	12
412.990	1	12
413.161	1	9
413.331	1	0
413.502	1	20
413.672	1	10
413.843	1	6
414.014	1	15
414.184	1	-9
414.355	1	-1
414.526	1	4
414.696	1	3
414.867	1	18
415.038	1	-1
415.208	1	-3
415.379	1	12
415.550	1	8
415.720	1	9
415.891	1	11
416.062	1	5
416.232	1	10
416.403	1	7
416.573	1	8
416.744	1	14
416.915	1	6
417.085	1	8
417.256	1	-7
417.427	1	9
417.597	1	-3
417.768	1	-8
417.939	1	5
418.109	1	-1
418.280	1	5
418.450	1	0
418.621	1	-1
418.792	1	2
418.962	1	8
419.133	1	4
419.304	1	9
419.474	1	6
419.645	1	16
419.815	1	-2
419.986	1	5
420.157	1	13
420.327	1	11
420.498	1	9
420.669	1	4
420.839	1	-5
421.010	1	12
421.180	1	12
421.351	1	8
421.522	1	8
421.692	1	5
421.863	1	1
422.033	1	10
422.204	1	-7
422.375	1	2
422.545	1	11
422.716	1	5
422.886	1	7
423.057	1	6
423.228	1	-5
423.398	1	9
423.569	1	2
423.740	1	-4
423.910	1	-8
424.081	1	12
424.251	1	6
424.422	1	15
424.593	1	9
424.763	1	5
424.934	1	1
425.104	1	12
425.275	1	1
425.445	1	1
425.616	1	6
425.787	1	-2
425.957	1	15
426.128	1	4
426.298	1	-6
426.469	1	3
426.640	1	-1
426.810	1	1
426.981	1	-1
427.151	1	6
427.322	1	7
427.493	1	1
427.663	1	9
427.834	1	-1
428.004	1	-2
428.175	1	-1
428.345	1	11
428.516	1	1
428.687	1	9
428.857	1	0
429.028	1	10
429.198	1	-6
429.369	1	1
429.540	1	14
429.710	1	3
429.881	1	11
430.051	1	7
430.222	1	5
430.392	1	6
430.563	1	11
430.734	1	-4
430.904	1	-4
431.075	1	13
431.245	1	1
431.416	1	8
431.586	1	-4
431.757	1	5
431.927	1	8
432.098	1	3
432.269	1	-5
432.439	1	-1
432.610	1	-6
432.780	1	-5
432.951	1	2
433.121	1	6
433.292	1	6
433.462	1	11
433.633	1	0
433.804	1	-9
433.974	1	-7
434.145	1	1
434.315	1	5
434.486	1	10
434.656	1	-1
434.827	1	0
434.997	1	11
435.168	1	0
435.339	1	4
435.509	1	13
435.680	1	-8
435.850	1	2
436.021	1	6
436.191	1	-5
436.362	1	3
436.532	1	6
436.703	1	11
436.873	1	-4
437.044	1	6
437.214	1	1
437.385	1	-1
437.556	1	3
437.726	1	-1
437.897	1	12
438.067	1	2
438.238	1	-4
438.408	1	-2
438.579	1	9
438.749	1	-7
438.920	1	-3
439.090	1	13
439.261	1	6
439.431	1	-2
439.602	1	7
439.772	1	8
439.943	1	-3
440.113	1	4
440.284	1	7
440.455	1	-4
440.625	1	3
440.796	1	5
440.966	1	6
441.137	1	-12
441.307	1	-5
441.478	1	2
441.648	1	2
441.819	1	4
441.989	1	3
442.160	1	1
442.330	1	12
442.501	1	-8
442.671	1	6
442.842	1	14
443.012	1	6
443.183	1	-2
443.353	1	5
443.524	1	-1
443.694	1	4
443.865	1	0
444.035	1	-1
444.206	1	11
444.376	1	-5
444.547	1	-2
444.717	1	19
444.888	1	5
445.058	1	3
445.229	1	-1
445.399	1	-1
445.570	1	14
445.740	1	8
445.911	1	7
446.081	1	6
446.252	1	-4
446.422	1	3
446.593	1	-6
446.763	1	3
446.934	1	4
447.104	1	-11
447.275	1	-4
447.445	1	-2
447.616	1	-2
447.786	1	-1
447.957	1	8
448.127	1	7
448.298	1	15
448.468	1	2
448.639	1	-1
448.809	1	0
448.979	1	11
449.150	1	2
449.320	1	8
449.491	1	-5
449.661	1	1
449.832	1	-8
450.002	1	3
450.173	1	-4
450.343	1	-8
450.514	1	2
450.684	1	1
450.855	1	0
451.025	1	0
451.196	1	-3
451.366	1	5
451.537	1	4
451.707	1	0
451.878	1	-2
452.048	1	-6
452.218	1	1
452.389	1	2
452.559	1	-2
452.730	1	3
452.900	1	-1
453.071	1	3
453.241	1	-5
453.412	1	-6
453.582	1	7
453.753	1	-2
453.923	1	1
454.093	1	4
454.264	1	-3
454.434	1	3
454.605	1	0
454.775	1	9
454.946	1	1
455.116	1	3
455.287	1	10
455.457	1	-3
455.628	1	-6
455.798	1	-11
455.968	1	4
456.139	1	5
456.309	1	-6
456.480	1	2
456.650	1	5
456.821	1	6
456.991	1	6
457.161	1	0
457.332	1	3
457.502	1	3
457.673	1	7
457.843	1	4
458.014	1	-2
458.184	1	-4
458.355	1	16
458.525	1	2
458.695	1	5
458.866	1	-1
459.036	1	3
459.207	1	0
459.377	1	0
459.548	1	-4
459.718	1	1
459.888	1	7
460.059	1	6
460.229	1	6
460.400	1	16
460.570	1	-2
460.740	1	-7
460.911	1	6
461.081	1	-4
461.252	1	-1
461.422	1	0
461.593	1	1
461.763	1	4
461.933	1	-3
462.104	1	5
462.274	1	-3
462.445	1	2
462.615	1	-8
462.785	1	-10
462.956	1	0
463.126	1	-2
463.297	1	2
463.467	1	7
463.638	1	5
463.808	1	6
463.978	1	-1
464.149	1	-15
464.319	1	-6
464.490	1	3
464.660	1	5
464.830	1	3
465.001	1	6
465.171	1	8
465.342	1	5
465.512	1	-2
465.682	1	3
465.853	1	2
466.023	1	-1
466.194	1	3
466.364	1	8
466.534	1	3
466.705	1	10
466.875	1	0
467.045	1	3
467.216	1	-8
467.386	1	-5
467.557	1	6
467.727	1	-8
467.897	1	7
468.068	1	5
468.238	1	-3
468.409	1	3
468.579	1	18
468.749	1	2
468.920	1	3
469.090	1	7
469.260	1	7
469.431	1	6
469.601	1	-2
469.772	1	-10
469.942	1	6
470.112	1	3
470.283	1	20
470.453	1	1
470.623	1	0
470.794	1	-2
470.964	1	5
471.135	1	-6
471.305	1	-13
471.475	1	0
471.646	1	7
471.816	1	3
471.986	1	7
472.157	1	-3
472.327	1	-2
472.497	1	1
472.668	1	-7
472.838	1	-4
473.009	1	-1
473.179	1	9
473.349	1	3
473.520	1	1
473.690	1	10
473.860	1	1
474.031	1	2
474.201	1	3
474.371	1	6
474.542	1	-2
474.712	1	5
474.882	1	-2
475.053	1	-9
475.223	1	11
475.394	1	11
475.564	1	9
475.734	1	1
475.905	1	3
476.075	1	9
476.245	1	0
476.416	1	-4
476.586	1	-6
476.756	1	4
476.927	1	11
477.097	1	-4
477.267	1	-2
477.438	1	-3
477.608	1	8
477.778	1	4
477.949	1	9
478.119	1	4
478.289	1	1
478.460	1	-3
478.630	1	1
478.800	1	-7
478.971	1	6
479.141	1	8
479.311	1	0
479.482	1	-6
479.652	1	7
479.822	1	-2
479.993	1	-1
480.163	1	-9
480.333	1	3
480.504	1	10
480.674	1	4
480.844	1	4
481.015	1	-11
481.185	1	11
481.355	1	4
481.525	1	-13
481.696	1	1
481.866	1	-1
482.036	1	-9
482.207	1	8
482.377	1	6
482.547	1	-4
482.718	1	19
482.888	1	5
483.058	1	2
483.229	1	5
483.399	1	5
483.569	1	8
483.740	1	-8
483.910	1	10
484.080	1	-5
484.250	1	-3
484.421	1	-4
484.591	1	3
484.761	1	2
484.932	1	11
485.102	1	4
485.272	1	10
485.443	1	6
485.613	1	-14
485.783	1	5
485.953	1	2
486.124	1	13
486.294	1	8
486.464	1	-10
486.635	1	10
486.805	1	9
486.975	1	-14
487.146	1	8
487.316	1	2
487.486	1	0
487.656	1	-16
487.827	1	5
487.997	1	5
488.167	1	-4
488.338	1	10
488.508	1	2
488.678	1	1
488.848	1	-3
489.019	1	3
489.189	1	-3
489.359	1	-2
489.529	1	-1
489.700	1	5
489.870	1	-3
490.040	1	2
490.211	1	16
490.381	1	-5
490.551	1	-6
490.721	1	1
490.892	1	10
491.062	1	2
491.232	1	4
491.402	1	2
491.573	1	-7
491.743	1	-9
491.913	1	12
492.084	1	7
492.254	1	-1
492.424	1	0
492.594	1	-1
492.765	1	7
492.935	1	1
493.105	1	13
493.275	1	2
493.446	1	4
493.616	1	2
493.786	1	4
493.956	1	4
494.127	1	-7
494.297	1	7
494.467	1	5
494.637	1	7
494.808	1	9
494.978	1	16
495.148	1	1
495.318	1	20
495.489	1	10
495.659	1	10
495.829	1	0
495.999	1	1
496.170	1	4
496.340	1	3
496.510	1	2
496.680	1	2
496.851	1	5
497.021	1	3
497.191	1	8
497.361	1	6
497.532	1	7
497.702	1	2
497.872	1	9
498.042	1	0
498.213	1	16
498.383	1	-4
498.553	1	7
498.723	1	0
498.894	1	-4
499.064	1	6
499.234	1	-1
499.404	1	5
499.574	1	2
499.745	1	-3
499.915	1	-1
500.085	1	-3
500.255	1	2
500.426	1	6
500.596	1	-6
500.766	1	4
500.936	1	-4
501.106	1	2
501.277	1	10
501.447	1	-1
501.617	1	9
501.787	1	10
501.958	1	0
502.128	1	1
502.298	1	14
502.468	1	8
502.638	1	2
502.809	1	13
502.979	1	-3
503.149	1	9
503.319	1	4
503.489	1	3
503.660	1	-3
503.830	1	-1
504.000	1	0
504.170	1	9
504.340	1	8
504.511	1	12
504.681	1	3
504.851	1	1
505.021	1	0
505.192	1	10
505.362	1	10
505.532	1	8
505.702	1	-2
505.872	1	-7
506.043	1	13
506.213	1	0
506.383	1	-1
506.553	1	9
506.723	1	8
506.893	1	9
507.064	1	0
507.234	1	3
507.404	1	-4
507.574	1	3
507.744	1	-10
507.915	1	12
508.085	1	4
508.255	1	7
508.425	1	11
508.595	1	11
508.766	1	2
508.936	1	-1
509.106	1	-3
509.276	1	-2
509.446	1	0
509.616	1	13
509.787	1	6
509.957	1	3
510.127	1	0
510.297	1	9
510.467	1	-1
510.638	1	-7
510.808	1	2
510.978	1	-6
511.148	1	14
511.318	1	6
511.488	1	4
511.659	1	8
511.829	1	-3
511.999	1	19
512.169	1	8
512.339	1	3
512.509	1	0
512.680	1	8
512.850	1	5
513.020	1	4
513.190	1	-1
513.360	1	5
513.530	1	-1
513.700	1	12
513.871	1	11
514.041	1	8
514.211	1	-3
514.381	1	12
514.551	1	8
514.721	1	7
514.892	1	10
515.062	1	14
515.232	1	9
515.402	1	5
515.572	1	-4
515.742	1	6
515.912	1	11
516.083	1	11
516.253	1	3
516.423	1	9
516.593	1	4
516.763	1	4
516.933	1	6
517.104	1	7
517.274	1	12
517.444	1	14
517.614	1	3
517.784	1	-2
517.954	1	-4
518.124	1	15
518.294	1	12
518.465	1	14
518.635	1	0
518.805	1	12
518.975	1	0
519.145	1	11
519.315	1	3
519.485	1	4
519.656	1	3
519.826	1	19
519.996	1	9
520.166	1	9
520.336	1	4
520.506	1	14
520.676	1	-4
520.846	1	0
521.017	1	-5
521.187	1	4
521.357	1	10
521.527	1	16
521.697	1	5
521.867	1	11
522.037	1	2
522.207	1	1
522.377	1	16
522.548	1	6
522.718	1	2
522.888	1	12
523.058	1	19
523.228	1	24
523.398	1	6
523.568	1	3
523.738	1	-2
523.909	1	22
524.079	1	7
524.249	1	2
524.419	1	13
524.589	1	9
524.759	1	7
524.929	1	11
525.099	1	1
525.269	1	15
525.439	1	-1
525.610	1	7
525.780	1	9
525.950	1	2
526.120	1	6
526.290	1	-2
526.460	1	9
526.630	1	5
526.800	1	7
526.970	1	-13
527.140	1	4
527.311	1	14
527.481	1	14
527.651	1	-1
527.821	1	13
527.991	1	8
528.161	1	6
528.331	1	7
528.501	1	-2
528.671	1	13
528.841	1	10
529.011	1	8
529.181	1	12
529.352	1	10
529.522	1	8
529.692	1	9
529.862	1	12
530.032	1	12
530.202	1	6
530.372	1	10
530.542	1	5
530.712	1	23
530.882	1	8
531.052	1	7
531.222	1	-10
531.392	1	5
531.563	1	12
531.733	1	7
531.903	1	18
532.073	1	6
532.243	1	6
532.413	1	11
532.583	1	3
532.753	1	6
532.923	1	4
533.093	1	10
533.263	1	9
533.433	1	6
533.603	1	8
533.773	1	5
533.943	1	4
534.113	1	7
534.284	1	11
534.454	1	7
534.624	1	9
534.794	1	11
534.964	1	4
535.134	1	8
535.304	1	26
535.474	1	8
535.644	1	14
535.814	1	6
535.984	1	1
536.154	1	11
536.324	1	10
536.494	1	21
536.664	1	11
536.834	1	2
537.004	1	26
537.174	1	7
537.344	1	15
537.514	1	19
537.685	1	12
537.855	1	21
538.025	1	3
538.195	1	21
538.365	1	10
538.535	1	16
538.705	1	0
538.875	1	10
539.045	1	13
539.215	1	6
539.385	1	5
539.555	1	-7
539.725	1	8
539.895	1	9
540.065	1	7
540.235	1	2
540.405	1	5
540.575	1	10
540.745	1	6
540.915	1	13
541.085	1	1
541.255	1	6
541.425	1	15
541.595	1	12
541.765	1	8
541.935	1	4
542.105	1	8
542.275	1	-4
542.445	1	16
542.615	1	0
542.785	1	9
542.955	1	-1
543.125	1	4
543.295	1	14
543.465	1	23
543.635	1	6
543.805	1	7
543.975	1	15
544.145	1	7
544.315	1	8
544.485	1	9
544.655	1	11
544.825	1	9
544.995	1	12
545.165	1	9
545.335	1	7
545.505	1	7
545.675	1	9
545.845	1	2
546.015	1	9
546.185	1	6
546.355	1	4
546.525	1	13
546.695	1	10
546.865	1	6
547.035	1	7
547.205	1	9
547.375	1	13
547.545	1	13
547.715	1	8
547.885	1	1
548.055	1	0
548.225	1	5
548.395	1	19
548.565	1	9
548.735	1	9
548.905	1	2
549.075	1	5
549.245	1	8
549.415	1	14
549.585	1	10
549.755	1	2
549.925	1	8
550.095	1	3
550.265	1	3
550.435	1	13
550.605	1	4
550.775	1	4
550.945	1	11
551.115	1	6
551.285	1	5
551.455	1	12
551.625	1	8
551.795	1	-5
551.965	1	2
552.135	1	1
552.305	1	14
552.475	1	1
552.645	1	4
552.815	1	2
552.985	1	10
553.155	1	12
553.325	1	13
553.495	1	6
553.665	1	8
553.835	1	1
554.004	1	10
554.174	1	3
554.344	1	1
554.514	1	9
554.684	1	10
554.854	1	6
555.024	1	6
555.194	1	17
555.364	1	24
555.534	1	8
555.704	1	2
555.874	1	-3
556.044	1	5
556.214	1	11
556.384	1	12
556.554	1	-1
556.724	1	-11
556.894	1	15
557.064	1	6
557.234	1	9
557.404	1	-3
557.573	1	8
557.743	1	5
557.913	1	4
558.083	1	-1
558.253	1	2
558.423	1	3
558.593	1	7
558.763	1	0
558.933	1	6
559.103	1	2
559.273	1	1
559.443	1	16
559.613	1	4
559.783	1	3
559.953	1	3
560.122	1	-7
560.292	1	14
560.462	1	5
560.632	1	6
560.802	1	5
560.972	1	17
561.142	1	10
561.312	1	8
561.482	1	7
561.652	1	11
561.822	1	10
561.992	1	12
562.162	1	5
562.331	1	8
562.501	1	1
562.671	1	1
562.841	1	-9
563.011	1	9
563.181	1	10
563.351	1	7
563.521	1	1
563.691	1	10
563.861	1	0
564.031	1	4
564.201	1	8
564.370	1	3
564.540	1	14
564.710	1	0
564.880	1	3
565.050	1	14
565.220	1	5
565.390	1	-4
565.560	1	11
565.730	1	9
565.900	1	-1
566.069	1	8
566.239	1	-2
566.409	1	7
566.579	1	4
566.749	1	8
566.919	1	12
567.089	1	9
567.259	1	10
567.429	1	5
567.599	1	3
567.768	1	15
567.938	1	6
568.108	1	7
568.278	1	-6
568.448	1	2
568.618	1	-3
568.788	1	-5
568.958	1	0
569.128	1	10
569.297	1	5
569.467	1	5
569.637	1	-1
569.807	1	-5
569.977	1	9
570.147	1	2
570.317	1	25
570.487	1	14
570.656	1	1
570.826	1	5
570.996	1	5
571.166	1	-2
571.336	1	1
571.506	1	0
571.676	1	13
571.846	1	12
572.015	1	1
572.185	1	-13
572.355	1	23
572.525	1	5
572.695	1	7
572.865	1	5
573.035	1	4
573.205	1	11
573.374	1	6
573.544	1	-1
573.714	1	11
573.884	1	2
574.054	1	1
574.224	1	2
574.394	1	8
574.563	1	1
574.733	1	4
574.903	1	0
575.073	1	7
575.243	1	-3
575.413	1	11
575.583	1	8
575.752	1	1
575.922	1	4
576.092	1	2
576.262	1	1
576.432	1	-5
576.602	1	10
576.772	1	4
576.941	1	4
577.111	1	4
577.281	1	-2
577.451	1	-6
577.621	1	0
577.791	1	7
577.960	1	5
578.130	1	-4
578.300	1	3
578.470	1	3
578.640	1	-5
578.810	1	6
578.979	1	3
579.149	1	5
579.319	1	5
579.489	1	4
579.659	1	8
579.829	1	12
579.998	1	4
580.168	1	9
580.338	1	-14
580.508	1	5
580.678	1	-2
580.848	1	3
581.017	1	-3
581.187	1	3
581.357	1	3
581.527	1	13
581.697	1	-8
581.867	1	3
582.036	1	9
582.206	1	-7
582.376	1	5
582.546	1	2
582.716	1	5
582.885	1	5
583.055	1	-2
583.225	1	-1
583.395	1	5
583.565	1	8
583.735	1	2
583.904	1	4
584.074	1	-1
584.244	1	4
584.414	1	-6
584.584	1	14
584.753	1	-1
584.923	1	2
585.093	1	0
585.263	1	3
585.433	1	5
585.602	1	-1
585.772	1	13
585.942	1	3
586.112	1	6
586.282	1	-4
586.451	1	8
586.621	1	-1
586.791	1	-5
586.961	1	3
587.131	1	7
587.300	1	-2
587.470	1	-3
587.640	1	-14
587.810	1	2
587.980	1	8
588.149	1	3
588.319	1	3
588.489	1	4
588.659	1	-1
588.829	1	10
588.998	1	-6
589.168	1	10
589.338	1	-6
589.508	1	13
589.677	1	7
589.847	1	9
590.017	1	-13
590.187	1	2
590.357	1	-2
590.526	1	-6
590.696	1	1
590.866	1	0
591.036	1	6
591.205	1	9
591.375	1	-5
591.545	1	-5
591.715	1	-3
591.885	1	6
592.054	1	-2
592.224	1	5
592.394	1	4
592.564	1	-4
592.733	1	-1
592.903	1	8
593.073	1	6
593.243	1	5
593.412	1	2
593.582	1	13
593.752	1	0
593.922	1	1
594.091	1	0
594.261	1	5
594.431	1	1
594.601	1	-4
594.771	1	7
594.940	1	2
595.110	1	5
595.280	1	2
595.450	1	10
595.619	1	2
595.789	1	9
595.959	1	4
596.129	1	2
596.298	1	4
596.468	1	4
596.638	1	5
596.808	1	12
596.977	1	-4
597.147	1	15
597.317	1	5
597.487	1	9
597.656	1	4
597.826	1	-1
597.996	1	5
598.166	1	-3
598.335	1	5
598.505	1	1
598.675	1	-4
598.844	1	3
599.014	1	0
599.184	1	-6
599.354	1	-8
599.523	1	-2
599.693	1	9
599.863	1	8
600.033	1	3
600.202	1	-3
600.372	1	-1
600.542	1	4
600.712	1	4
600.881	1	16
601.051	1	5
601.221	1	3
601.390	1	-7
601.560	1	0
601.730	1	-2
601.900	1	6
602.069	1	-7
602.239	1	-9
602.409	1	0
602.578	1	9
602.748	1	1
602.918	1	3
603.088	1	7
603.257	1	3
603.427	1	-3
603.597	1	11
603.767	1	-9
603.936	1	13
604.106	1	10
604.276	1	0
604.445	1	1
604.615	1	-5
604.785	1	10
604.954	1	-6
605.124	1	-5
605.294	1	9
605.464	1	-1
605.633	1	8
605.803	1	8
605.973	1	0
606.142	1	3
606.312	1	-4
606.482	1	3
606.652	1	-8
606.821	1	8
606.991	1	-3
607.161	1	5
607.330	1	11
607.500	1	4
607.670	1	0
607.839	1	-1
608.009	1	-3
608.179	1	0
608.348	1	6
608.518	1	1
608.688	1	10
608.858	1	12
609.027	1	6
609.197	1	-2
609.367	1	-2
609.536	1	-3
609.706	1	1
609.876	1	3
610.045	1	-1
610.215	1	-6
610.385	1	-1
610.554	1	1
610.724	1	7
610.894	1	1
611.063	1	9
611.233	1	-10
611.403	1	10
611.572	1	9
611.742	1	-3
611.912	1	-1
612.081	1	-6
612.251	1	4
612.421	1	8
612.590	1	1
612.760	1	9
612.930	1	1
613.099	1	-15
613.269	1	2
613.439	1	3
613.608	1	-2
613.778	1	-4
613.948	1	11
614.117	1	13
614.287	1	-9
614.457	1	-3
614.626	1	8
614.796	1	0
614.966	1	-2
615.135	1	-4
615.305	1	0
615.475	1	4
615.644	1	-4
615.814	1	5
615.984	1	6
616.153	1	8
616.323	1	-6
616.493	1	7
616.662	1	3
616.832	1	-6
617.002	1	2
617.171	1	-3
617.341	1	0
617.511	1	4
617.680	1	-2
617.850	1	10
618.019	1	-1
618.189	1	-3
618.359	1	2
618.528	1	1
618.698	1	0
618.868	1	6
619.037	1	4
619.207	1	-4
619.377	1	-12
619.546	1	3
619.716	1	-9
619.885	1	0
620.055	1	10
620.225	1	7
620.394	1	2
620.564	1	-2
620.734	1	8
620.903	1	3
621.073	1	-12
621.242	1	-5
621.412	1	2
621.582	1	-1
621.751	1	5
621.921	1	2
622.091	1	4
622.260	1	-3
622.430	1	8
622.599	1	9
622.769	1	-5
622.939	1	1
623.108	1	3
623.278	1	-2
623.448	1	-7
623.617	1	13
623.787	1	1
623.956	1	12
624.126	1	-4
624.296	1	-2
624.465	1	-6
624.635	1	0
624.804	1	-6
624.974	1	-7
625.144	1	2
625.313	1	0
625.483	1	4
625.652	1	13
625.822	1	10
625.992	1	-11
626.161	1	0
626.331	1	8
626.501	1	-6
626.670	1	5
626.840	1	4
627.009	1	0
627.179	1	-5
627.348	1	-2
627.518	1	-3
627.688	1	0
627.857	1	11
628.027	1	-8
628.196	1	3
628.366	1	10
628.536	1	-3
628.705	1	8
628.875	1	-1
629.044	1	3
629.214	1	0
629.384	1	-3
629.553	1	3
629.723	1	1
629.892	1	-3
630.062	1	1
630.232	1	11
630.401	1	-2
630.571	1	-2
630.740	1	-1
630.910	1	1
631.079	1	14
631.249	1	-9
631.419	1	-3
631.588	1	-4
631.758	1	1
631.927	1	-6
632.097	1	7
632.266	1	-9
632.436	1	0
632.606	1	-3
632.775	1	-2
632.945	1	5
633.114	1	10
633.284	1	-5
633.453	1	-5
633.623	1	3
633.793	1	-2
633.962	1	4
634.132	1	1
634.301	1	-1
634.471	1	-6
634.640	1	1
634.810	1	4
634.979	1	-1
635.149	1	1
635.319	1	-1
635.488	1	3
635.658	1	-6
635.827	1	8
635.997	1	-5
636.166	1	7
636.336	1	2
636.505	1	-5
636.675	1	-4
636.845	1	-1
637.014	1	-8
637.184	1	6
637.353	1	2
637.523	1	0
637.692	1	5
637.862	1	-13
638.031	1	3
638.201	1	6
638.370	1	3
638.540	1	-4
638.710	1	4
638.879	1	-3
639.049	1	1
639.218	1	0
639.388	1	5
639.557	1	2
639.727	1	-2
639.896	1	-5
640.066	1	3
640.235	1	6
640.405	1	1
640.574	1	-2
640.744	1	0
640.914	1	-1
641.083	1	-1
641.253	1	-5
641.422	1	-7
641.592	1	-6
641.761	1	0
641.931	1	14
642.100	1	-2
642.270	1	0
642.439	1	-2
642.609	1	0
642.778	1	-4
642.948	1	-1
643.117	1	-6
643.287	1	4
643.456	1	12
643.626	1	4
643.795	1	2
643.965	1	6
644.134	1	-2
644.304	1	2
644.473	1	6
644.643	1	3
644.812	1	11
644.982	1	4
645.151	1	2
645.321	1	6
645.490	1	7
645.660	1	-5
645.829	1	-7
645.999	1	-7
646.168	1	-3
646.338	1	4
646.507	1	8
646.677	1	11
646.846	1	13
647.016	1	-4
647.185	1	1
647.355	1	-2
647.524	1	8
647.694	1	-6
647.863	1	-7
648.033	1	-7
648.202	1	4
648.372	1	7
648.541	1	1
648.711	1	7
648.880	1	-1
649.050	1	3
649.219	1	8
649.389	1	4
649.558	1	-3
649.728	1	0
649.897	1	-1
650.067	1	-1
650.236	1	9
650.406	1	4
650.575	1	10
650.745	1	-3
650.914	1	-7
651.084	1	-7
651.253	1	1
651.423	1	1
651.592	1	2
651.762	1	-1
651.931	1	5
652.101	1	-1
652.270	1	6
652.440	1	4
652.609	1	0
652.778	1	-8
652.948	1	-1
653.117	1	5
653.287	1	7
653.456	1	-2
653.626	1	9
653.795	1	1
653.965	1	9
654.134	1	1
654.304	1	3
654.473	1	-2
654.643	1	15
654.812	1	9
654.982	1	-14
655.151	1	-11
655.320	1	-6
655.490	1	13
655.659	1	-3
655.829	1	-4
655.998	1	7
656.168	1	6
656.337	1	-2
656.507	1	4
656.676	1	-3
656.846	1	-9
657.015	1	4
657.184	1	6
657.354	1	-3
657.523	1	2
657.693	1	-2
657.862	1	3
658.032	1	12
658.201	1	-4
658.371	1	-14
658.540	1	3
658.709	1	-6
658.879	1	-7
659.048	1	12
659.218	1	-1
659.387	1	-6
659.557	1	-5
659.726	1	-1
659.895	1	0
660.065	1	4
660.234	1	6
660.404	1	-1
660.573	1	-2
660.743	1	-5
660.912	1	-4
661.081	1	3
661.251	1	8
661.420	1	1
661.590	1	4
661.759	1	6
661.929	1	3
662.098	1	-10
662.267	1	11
662.437	1	-1
662.606	1	6
662.776	1	3
662.945	1	9
663.115	1	-9
663.284	1	-1
663.453	1	3
663.623	1	-6
663.792	1	2
663.962	1	-9
664.131	1	2
664.300	1	8
664.470	1	-4
664.639	1	-4
664.809	1	2
664.978	1	4
665.148	1	2
665.317	1	-6
665.486	1	-3
665.656	1	-5
665.825	1	8
665.995	1	4
666.164	1	-7
666.333	1	5
666.503	1	2
666.672	1	-13
666.842	1	4
667.011	1	0
667.180	1	5
667.350	1	3
667.519	1	-4
667.689	1	-6
667.858	1	4
668.027	1	-3
668.197	1	10
668.366	1	2
668.536	1	-5
668.705	1	-7
668.874	1	-8
669.044	1	-13
669.213	1	0
669.382	1	-2
669.552	1	13
669.721	1	0
669.891	1	-1
670.060	1	-4
670.229	1	-2
670.399	1	9
670.568	1	2
670.738	1	-3
670.907	1	-8
671.076	1	8
671.246	1	2
671.415	1	4
671.584	1	-3
671.754	1	-10
671.923	1	2
672.093	1	6
672.262	1	-5
672.431	1	-2
672.601	1	-7
672.770	1	1
672.939	1	-2
673.109	1	-2
673.278	1	2
673.448	1	4
673.617	1	-1
673.786	1	-10
