325.333	1	-3
325.504	1	11
325.675	1	-3
325.846	1	-10
326.017	1	-2
326.188	1	2
326.359	1	4
326.531	1	0
326.702	1	15
326.873	1	-1
327.044	1	-11
327.215	1	4
327.386	1	-12
327.557	1	0
327.728	1	-5
327.899	1	-1
328.070	1	1
328.241	1	-5
328.412	1	5
328.583	1	-7
328.754	1	-1
328.926	1	8
329.097	1	4
329.268	1	1
329.439	1	-2
329.610	1	-2
329.781	1	-8
329.952	1	16
330.123	1	5
330.294	1	10
330.465	1	-4
330.636	1	5
330.807	1	-1
330.978	1	-2
331.149	1	1
331.320	1	-1
331.492	1	1
331.663	1	-3
331.834	1	4
332.005	1	3
332.176	1	5
332.347	1	0
332.518	1	7
332.689	1	4
332.860	1	2
333.031	1	-5
333.202	1	0
333.373	1	2
333.544	1	-1
333.715	1	5
333.886	1	-2
334.057	1	-12
334.228	1	-2
334.399	1	-2
334.570	1	2
334.741	1	-11
334.912	1	-3
335.084	1	-3
335.255	1	7
335.426	1	3
335.597	1	-5
335.768	1	3
335.939	1	-1
336.110	1	-7
336.281	1	-9
336.452	1	-4
336.623	1	-2
336.794	1	3
336.965	1	-1
337.136	1	-9
337.307	1	-2
337.478	1	2
337.649	1	10
337.820	1	7
337.991	1	-1
338.162	1	2
338.333	1	12
338.504	1	-6
338.675	1	6
338.846	1	0
339.017	1	5
339.188	1	-6
339.359	1	-3
339.530	1	4
339.701	1	-8
339.872	1	0
340.043	1	-4
340.214	1	-14
340.385	1	-1
340.556	1	11
340.727	1	2
340.898	1	-4
341.069	1	3
341.240	1	-3
341.411	1	6
341.582	1	-3
341.753	1	9
341.924	1	-7
342.095	1	-7
342.266	1	-12
342.437	1	4
342.608	1	0
342.779	1	-7
342.950	1	-2
343.121	1	4
343.292	1	-1
343.463	1	-5
343.634	1	3
343.805	1	6
343.976	1	0
344.147	1	-2
344.318	1	5
344.489	1	-2
344.660	1	1
344.831	1	-4
345.002	1	0
345.173	1	-6
345.344	1	3
345.515	1	-4
345.686	1	9
345.857	1	-8
346.028	1	-1
346.199	1	-3
346.370	1	-6
346.541	1	-12
346.712	1	-3
346.883	1	-3
347.054	1	4
347.225	1	-9
347.396	1	8
347.567	1	3
347.738	1	6
347.909	1	1
348.080	1	-8
348.251	1	-5
348.422	1	2
348.593	1	-2
348.764	1	-8
348.935	1	8
349.106	1	-3
349.277	1	-12
349.448	1	4
349.619	1	5
349.790	1	-3
349.961	1	4
350.132	1	-8
350.303	1	-8
350.474	1	-2
350.645	1	-4
350.816	1	3
350.987	1	-2
351.157	1	2
351.328	1	1
351.499	1	5
351.670	1	5
351.841	1	-7
352.012	1	-12
352.183	1	-3
352.354	1	-6
352.525	1	-1
352.696	1	-10
352.867	1	10
353.038	1	21
353.209	1	-3
353.380	1	7
353.551	1	2
353.722	1	-6
353.893	1	-7
354.064	1	1
354.235	1	-4
354.406	1	0
354.576	1	-1
354.747	1	-14
354.918	1	-5
355.089	1	-2
355.260	1	1
355.431	1	8
355.602	1	5
355.773	1	-5
355.944	1	3
356.115	1	-12
356.286	1	8
356.457	1	-3
356.628	1	2
356.799	1	0
356.970	1	-4
357.141	1	-3
357.311	1	3
357.482	1	-6
357.653	1	-9
357.824	1	2
357.995	1	4
358.166	1	-2
358.337	1	5
358.508	1	1
358.679	1	8
358.850	1	-3
359.021	1	-9
359.192	1	0
359.363	1	8
359.533	1	-1
359.704	1	1
359.875	1	-7
360.046	1	1
360.217	1	4
360.388	1	-2
360.559	1	1
360.730	1	-9
360.901	1	0
361.072	1	3
361.243	1	6
361.414	1	2
361.584	1	7
361.755	1	4
361.926	1	4
362.097	1	-3
362.268	1	6
362.439	1	4
362.610	1	4
362.781	1	4
362.952	1	8
363.123	1	7
363.293	1	-6
363.464	1	3
363.635	1	1
363.806	1	9
363.977	1	5
364.148	1	2
364.319	1	-1
364.490	1	0
364.661	1	3
364.832	1	6
365.002	1	4
365.173	1	2
365.344	1	-8
365.515	1	4
365.686	1	3
365.857	1	3
366.028	1	3
366.199	1	3
366.370	1	13
366.540	1	14
366.711	1	11
366.882	1	7
367.053	1	3
367.224	1	12
367.395	1	11
367.566	1	11
367.737	1	-2
367.908	1	4
368.078	1	12
368.249	1	5
368.420	1	3
368.591	1	20
368.762	1	2
368.933	1	7
369.104	1	7
369.274	1	8
369.445	1	1
369.616	1	-3
369.787	1	4
369.958	1	7
370.129	1	6
370.300	1	-9
370.471	1	4
370.641	1	5
370.812	1	11
370.983	1	6
371.154	1	3
371.325	1	7
371.496	1	-1
371.667	1	-4
371.837	1	-5
372.008	1	6
372.179	1	7
372.350	1	-3
372.521	1	2
372.692	1	2
372.863	1	4
373.033	1	12
373.204	1	-4
373.375	1	-1
373.546	1	-9
373.717	1	5
373.888	1	-3
374.059	1	7
374.229	1	-9
374.400	1	3
374.571	1	-9
374.742	1	7
374.913	1	-8
375.084	1	-5
375.254	1	1
375.425	1	-1
375.596	1	-4
375.767	1	3
375.938	1	2
376.109	1	-4
376.279	1	2
376.450	1	10
376.621	1	9
376.792	1	3
376.963	1	2
377.134	1	-4
377.304	1	7
377.475	1	8
377.646	1	4
377.817	1	4
377.988	1	-5
378.159	1	0
378.329	1	5
378.500	1	-1
378.671	1	0
378.842	1	-9
379.013	1	-8
379.184	1	5
379.354	1	6
379.525	1	2
379.696	1	2
379.867	1	2
380.038	1	11
380.209	1	14
380.379	1	-6
380.550	1	-1
380.721	1	8
380.892	1	-1
381.063	1	2
381.233	1	4
381.404	1	4
381.575	1	-6
381.746	1	10
381.917	1	-10
382.087	1	12
382.258	1	11
382.429	1	7
382.600	1	4
382.771	1	0
382.941	1	7
383.112	1	0
383.283	1	7
383.454	1	6
383.625	1	4
383.795	1	10
383.966	1	5
384.137	1	7
384.308	1	15
384.479	1	16
384.649	1	11
384.820	1	-8
384.991	1	4
385.162	1	16
385.333	1	22
385.503	1	1
385.674	1	6
385.845	1	13
386.016	1	17
386.187	1	13
386.357	1	3
386.528	1	10
386.699	1	21
386.870	1	22
387.041	1	-3
387.211	1	8
387.382	1	12
387.553	1	18
387.724	1	9
387.894	1	18
388.065	1	18
388.236	1	19
388.407	1	16
388.578	1	7
388.748	1	22
388.919	1	6
389.090	1	18
389.261	1	-4
389.431	1	16
389.602	1	16
389.773	1	7
389.944	1	10
390.114	1	7
390.285	1	9
390.456	1	14
390.627	1	-11
390.798	1	21
390.968	1	5
391.139	1	6
391.310	1	14
391.481	1	9
391.651	1	18
391.822	1	22
391.993	1	11
392.164	1	10
392.334	1	9
392.505	1	2
392.676	1	5
392.847	1	13
393.017	1	6
393.188	1	4
393.359	1	7
393.530	1	7
393.700	1	17
393.871	1	-1
394.042	1	23
394.213	1	17
394.383	1	14
394.554	1	7
394.725	1	11
394.896	1	-1
395.066	1	15
395.237	1	18
395.408	1	19
395.579	1	16
395.749	1	21
395.920	1	15
396.091	1	12
396.262	1	16
396.432	1	0
396.603	1	14
396.774	1	0
396.945	1	9
397.115	1	15
397.286	1	19
397.457	1	12
397.627	1	10
397.798	1	-1
397.969	1	9
398.140	1	11
398.310	1	13
398.481	1	5
398.652	1	22
398.823	1	20
398.993	1	15
399.164	1	21
399.335	1	-2
399.505	1	8
399.676	1	17
399.847	1	8
400.018	1	11
400.188	1	11
400.359	1	14
400.530	1	14
400.700	1	2
400.871	1	-3
401.042	1	9
401.213	1	0
401.383	1	21
401.554	1	8
401.725	1	6
401.895	1	21
402.066	1	7
402.237	1	11
402.408	1	9
402.578	1	8
402.749	1	7
402.920	1	-5
403.090	1	4
403.261	1	4
403.432	1	3
403.603	1	15
403.773	1	8
403.944	1	10
404.115	1	-1
404.285	1	10
404.456	1	8
404.627	1	15
404.797	1	18
404.968	1	1
405.139	1	7
405.310	1	4
405.480	1	20
405.651	1	1
405.822	1	8
405.992	1	1
406.163	1	11
406.334	1	5
406.504	1	3
406.675	1	21
406.846	1	1
407.016	1	5
407.187	1	6
407.358	1	6
407.528	1	5
407.699	1	13
407.870	1	12
408.041	1	6
408.211	1	0
408.382	1	14
408.553	1	7
408.723	1	6
408.894	1	-6
409.065	1	17
409.235	1	0
409.406	1	8
409.577	1	-1
409.747	1	3
409.918	1	10
410.089	1	6
410.259	1	-3
410.430	1	15
410.601	1	-2
410.771	1	11
410.942	1	6
411.113	1	6
411.283	1	0
411.454	1	2
411.625	1	3
411.795	1	7
411.966	1	-8
412.137	1	3
412.307	1	-2
412.478	1	17
412.649	1	-1
412.819	1	15
412.990	1	13
413.161	1	7
413.331	1	-6
413.502	1	18
413.672	1	4
413.843	1	1
414.014	1	3
414.184	1	1
414.355	1	4
414.526	1	-7
414.696	1	7
414.867	1	11
415.038	1	3
415.208	1	3
415.379	1	15
415.550	1	1
415.720	1	5
415.891	1	9
416.062	1	5
416.232	1	0
416.403	1	11
416.573	1	9
416.744	1	10
416.915	1	-5
417.085	1	4
417.256	1	4
417.427	1	3
417.597	1	-3
417.768	1	4
417.939	1	0
418.109	1	0
418.280	1	-3
418.450	1	-1
418.621	1	6
418.792	1	5
418.962	1	6
419.133	1	7
419.304	1	6
419.474	1	-12
419.645	1	11
419.815	1	3
419.986	1	4
420.157	1	7
420.327	1	12
420.498	1	7
420.669	1	11
420.839	1	8
421.010	1	8
421.180	1	-6
421.351	1	9
421.522	1	3
421.692	1	-1
421.863	1	4
422.033	1	-1
422.204	1	-4
422.375	1	6
422.545	1	7
422.716	1	6
422.886	1	2
423.057	1	5
423.228	1	-3
423.398	1	4
423.569	1	-1
423.740	1	-1
423.910	1	-7
424.081	1	1
424.251	1	1
424.422	1	9
424.593	1	4
424.763	1	1
424.934	1	-1
425.104	1	11
425.275	1	-9
425.445	1	9
425.616	1	-3
425.787	1	-11
425.957	1	13
426.128	1	-4
426.298	1	1
426.469	1	1
426.640	1	0
426.810	1	13
426.981	1	-3
427.151	1	3
427.322	1	-7
427.493	1	2
427.663	1	4
427.834	1	-6
428.004	1	8
428.175	1	-6
428.345	1	10
428.516	1	5
428.687	1	3
428.857	1	-2
429.028	1	-6
429.198	1	-3
429.369	1	4
429.540	1	4
429.710	1	-2
429.881	1	7
430.051	1	10
430.222	1	-4
430.392	1	-7
430.563	1	15
430.734	1	5
430.904	1	-4
431.075	1	8
431.245	1	8
431.416	1	-4
431.586	1	-3
431.757	1	8
431.927	1	5
432.098	1	2
432.269	1	3
432.439	1	-3
432.610	1	-6
432.780	1	-1
432.951	1	3
433.121	1	8
433.292	1	-3
433.462	1	8
433.633	1	-2
433.804	1	2
433.974	1	0
434.145	1	4
434.315	1	0
434.486	1	6
434.656	1	0
434.827	1	-7
434.997	1	7
435.168	1	-6
435.339	1	4
435.509	1	2
435.680	1	-2
435.850	1	4
436.021	1	7
436.191	1	9
436.362	1	1
436.532	1	2
436.703	1	6
436.873	1	3
437.044	1	4
437.214	1	7
437.385	1	8
437.556	1	-5
437.726	1	-4
437.897	1	1
438.067	1	3
438.238	1	-5
438.408	1	0
438.579	1	-1
438.749	1	9
438.920	1	0
439.090	1	5
439.261	1	5
439.431	1	0
439.602	1	-2
439.772	1	5
439.943	1	3
440.113	1	2
440.284	1	14
440.455	1	-12
440.625	1	-1
440.796	1	2
440.966	1	6
441.137	1	-9
441.307	1	2
441.478	1	0
441.648	1	-9
441.819	1	1
441.989	1	0
442.160	1	5
442.330	1	3
442.501	1	-16
442.671	1	1
442.842	1	7
443.012	1	4
443.183	1	-6
443.353	1	4
443.524	1	5
443.694	1	6
443.865	1	3
444.035	1	3
444.206	1	2
444.376	1	8
444.547	1	-3
444.717	1	12
444.888	1	-5
445.058	1	0
445.229	1	2
445.399	1	7
445.570	1	2
445.740	1	6
445.911	1	12
446.081	1	2
446.252	1	-12
446.422	1	5
446.593	1	-4
446.763	1	-1
446.934	1	11
447.104	1	-5
447.275	1	-17
447.445	1	1
447.616	1	-5
447.786	1	3
447.957	1	3
448.127	1	6
448.298	1	1
448.468	1	9
448.639	1	-6
448.809	1	3
448.979	1	2
449.150	1	-6
449.320	1	-5
449.491	1	0
449.661	1	2
449.832	1	6
450.002	1	-4
450.173	1	0
450.343	1	-7
450.514	1	5
450.684	1	-5
450.855	1	-8
451.025	1	6
451.196	1	-6
451.366	1	-2
451.537	1	-6
451.707	1	3
451.878	1	8
452.048	1	8
452.218	1	1
452.389	1	-5
452.559	1	-5
452.730	1	1
452.900	1	2
453.071	1	5
453.241	1	0
453.412	1	-1
453.582	1	5
453.753	1	-6
453.923	1	-8
454.093	1	3
454.264	1	-8
454.434	1	-3
454.605	1	7
454.775	1	3
454.946	1	3
455.116	1	4
455.287	1	1
455.457	1	-8
455.628	1	-5
455.798	1	-6
455.968	1	1
456.139	1	13
456.309	1	-2
456.480	1	2
456.650	1	-2
456.821	1	6
456.991	1	6
457.161	1	-2
457.332	1	3
457.502	1	5
457.673	1	-8
457.843	1	1
458.014	1	1
458.184	1	6
458.355	1	5
458.525	1	4
458.695	1	4
458.866	1	0
459.036	1	6
459.207	1	-1
459.377	1	-5
459.548	1	5
459.718	1	-8
459.888	1	10
460.059	1	1
460.229	1	5
460.400	1	-1
460.570	1	-9
460.740	1	-15
460.911	1	1
461.081	1	-2
461.252	1	1
461.422	1	6
461.593	1	3
461.763	1	3
461.933	1	-7
462.104	1	3
462.274	1	-3
462.445	1	-10
462.615	1	-6
462.785	1	-4
462.956	1	1
463.126	1	-6
463.297	1	1
463.467	1	-1
463.638	1	-1
463.808	1	7
463.978	1	3
464.149	1	-12
464.319	1	-5
464.490	1	-2
464.660	1	9
464.830	1	3
465.001	1	9
465.171	1	-1
465.342	1	7
465.512	1	6
465.682	1	-2
465.853	1	2
466.023	1	1
466.194	1	-2
466.364	1	5
466.534	1	-4
466.705	1	4
466.875	1	2
467.045	1	2
467.216	1	-7
467.386	1	-2
467.557	1	5
467.727	1	8
467.897	1	6
468.068	1	1
468.238	1	-5
468.409	1	-5
468.579	1	13
468.749	1	0
468.920	1	-8
469.090	1	11
469.260	1	4
469.431	1	4
469.601	1	-4
469.772	1	-12
469.942	1	6
470.112	1	-2
470.283	1	9
470.453	1	-2
470.623	1	-1
470.794	1	4
470.964	1	0
471.135	1	-11
471.305	1	-2
471.475	1	4
471.646	1	5
471.816	1	2
471.986	1	2
472.157	1	13
472.327	1	2
472.497	1	-1
472.668	1	-11
472.838	1	4
473.009	1	3
473.179	1	3
473.349	1	2
473.520	1	1
473.690	1	0
473.860	1	7
474.031	1	15
474.201	1	1
474.371	1	-1
474.542	1	1
474.712	1	5
474.882	1	-4
475.053	1	-9
475.223	1	-4
475.394	1	9
475.564	1	12
475.734	1	-1
475.905	1	-5
476.075	1	3
476.245	1	-3
476.416	1	-9
476.586	1	2
476.756	1	-4
476.927	1	4
477.097	1	-5
477.267	1	-7
477.438	1	-3
477.608	1	10
477.778	1	4
477.949	1	2
478.119	1	0
478.289	1	0
478.460	1	0
478.630	1	-4
478.800	1	-11
478.971	1	2
479.141	1	6
479.311	1	3
479.482	1	-4
479.652	1	6
479.822	1	1
479.993	1	3
480.163	1	-11
480.333	1	-8
480.504	1	-2
480.674	1	9
480.844	1	-2
481.015	1	3
481.185	1	12
481.355	1	3
481.525	1	-7
481.696	1	4
481.866	1	4
482.036	1	-11
482.207	1	2
482.377	1	3
482.547	1	-5
482.718	1	14
482.888	1	-13
483.058	1	-5
483.229	1	6
483.399	1	-3
483.569	1	8
483.740	1	-20
483.910	1	7
484.080	1	-8
484.250	1	7
484.421	1	5
484.591	1	13
484.761	1	-5
484.932	1	3
485.102	1	4
485.272	1	7
485.443	1	6
485.613	1	-6
485.783	1	5
485.953	1	2
486.124	1	3
486.294	1	7
486.464	1	-14
486.635	1	21
486.805	1	6
486.975	1	-18
487.146	1	6
487.316	1	9
487.486	1	-3
487.656	1	-8
487.827	1	5
487.997	1	10
488.167	1	2
488.338	1	11
488.508	1	7
488.678	1	13
488.848	1	0
489.019	1	0
489.189	1	-5
489.359	1	0
489.529	1	1
489.700	1	2
489.870	1	-1
490.040	1	3
490.211	1	20
490.381	1	-11
490.551	1	-5
490.721	1	-6
490.892	1	6
491.062	1	9
491.232	1	-4
491.402	1	-14
491.573	1	7
491.743	1	-18
491.913	1	-1
492.084	1	7
492.254	1	0
492.424	1	-5
492.594	1	-3
492.765	1	8
492.935	1	-9
493.105	1	10
493.275	1	3
493.446	1	-8
493.616	1	7
493.786	1	7
493.956	1	5
494.127	1	7
494.297	1	8
494.467	1	7
494.637	1	6
494.808	1	-1
494.978	1	5
495.148	1	2
495.318	1	7
495.489	1	3
495.659	1	-1
495.829	1	4
495.999	1	12
496.170	1	-7
496.340	1	10
496.510	1	-1
496.680	1	2
496.851	1	8
497.021	1	-1
497.191	1	0
497.361	1	1
497.532	1	8
497.702	1	0
497.872	1	5
498.042	1	11
498.213	1	8
498.383	1	-7
498.553	1	3
498.723	1	3
498.894	1	4
499.064	1	10
499.234	1	-3
499.404	1	9
499.574	1	8
499.745	1	-1
499.915	1	-3
500.085	1	-5
500.255	1	17
500.426	1	3
500.596	1	-5
500.766	1	6
500.936	1	6
501.106	1	5
501.277	1	-9
501.447	1	-5
501.617	1	8
501.787	1	-6
501.958	1	-2
502.128	1	-5
502.298	1	6
502.468	1	6
502.638	1	8
502.809	1	11
502.979	1	4
503.149	1	6
503.319	1	11
503.489	1	5
503.660	1	-7
503.830	1	-2
504.000	1	-6
504.170	1	6
504.340	1	16
504.511	1	5
504.681	1	2
504.851	1	0
505.021	1	4
505.192	1	13
505.362	1	4
505.532	1	0
505.702	1	2
505.872	1	-8
506.043	1	2
506.213	1	2
506.383	1	0
506.553	1	19
506.723	1	6
506.893	1	4
507.064	1	-8
507.234	1	9
507.404	1	-1
507.574	1	3
507.744	1	-7
507.915	1	12
508.085	1	8
508.255	1	0
508.425	1	7
508.595	1	8
508.766	1	3
508.936	1	-3
509.106	1	1
509.276	1	3
509.446	1	-1
509.616	1	7
509.787	1	2
509.957	1	10
510.127	1	6
510.297	1	0
510.467	1	-7
510.638	1	3
510.808	1	3
510.978	1	-14
511.148	1	15
511.318	1	-1
511.488	1	7
511.659	1	8
511.829	1	-2
511.999	1	12
512.169	1	-4
512.339	1	-4
512.509	1	11
512.680	1	0
512.850	1	-3
513.020	1	7
513.190	1	6
513.360	1	11
513.530	1	4
513.700	1	2
513.871	1	5
514.041	1	1
514.211	1	-5
514.381	1	7
514.551	1	-3
514.721	1	0
514.892	1	-2
515.062	1	9
515.232	1	5
515.402	1	16
515.572	1	-4
515.742	1	13
515.912	1	11
516.083	1	1
516.253	1	-4
516.423	1	11
516.593	1	2
516.763	1	1
516.933	1	8
517.104	1	1
517.274	1	6
517.444	1	12
517.614	1	5
517.784	1	5
517.954	1	-4
518.124	1	9
518.294	1	2
518.465	1	3
518.635	1	7
518.805	1	3
518.975	1	6
519.145	1	5
519.315	1	5
519.485	1	-1
519.656	1	5
519.826	1	2
519.996	1	11
520.166	1	13
520.336	1	-2
520.506	1	5
520.676	1	-1
520.846	1	4
521.017	1	7
521.187	1	10
521.357	1	0
521.527	1	5
521.697	1	5
521.867	1	10
522.037	1	0
522.207	1	0
522.377	1	8
522.548	1	-3
522.718	1	-3
522.888	1	6
523.058	1	24
523.228	1	13
523.398	1	10
523.568	1	-4
523.738	1	-1
523.909	1	5
524.079	1	7
524.249	1	0
524.419	1	6
524.589	1	15
524.759	1	7
524.929	1	9
525.099	1	1
525.269	1	17
525.439	1	-9
525.610	1	7
525.780	1	8
525.950	1	-6
526.120	1	-2
526.290	1	-5
526.460	1	11
526.630	1	7
526.800	1	11
526.970	1	0
527.140	1	8
527.311	1	11
527.481	1	6
527.651	1	13
527.821	1	-2
527.991	1	11
528.161	1	9
528.331	1	2
528.501	1	-8
528.671	1	4
528.841	1	12
529.011	1	1
529.181	1	5
529.352	1	9
529.522	1	7
529.692	1	10
529.862	1	-1
530.032	1	3
530.202	1	6
530.372	1	1
530.542	1	4
530.712	1	17
530.882	1	8
531.052	1	23
531.222	1	-13
531.392	1	0
531.563	1	7
531.733	1	15
531.903	1	6
532.073	1	7
532.243	1	3
532.413	1	-3
532.583	1	6
532.753	1	6
532.923	1	-6
533.093	1	10
533.263	1	3
533.433	1	9
533.603	1	5
533.773	1	10
533.943	1	0
534.113	1	-18
534.284	1	7
534.454	1	8
534.624	1	9
534.794	1	0
534.964	1	2
535.134	1	4
535.304	1	22
535.474	1	8
535.644	1	3
535.814	1	9
535.984	1	7
536.154	1	-4
536.324	1	5
536.494	1	17
536.664	1	17
536.834	1	13
537.004	1	13
537.174	1	11
537.344	1	3
537.514	1	9
537.685	1	4
537.855	1	5
538.025	1	6
538.195	1	12
538.365	1	9
538.535	1	16
538.705	1	5
538.875	1	2
539.045	1	2
539.215	1	-3
539.385	1	7
539.555	1	0
539.725	1	16
539.895	1	1
540.065	1	-3
540.235	1	1
540.405	1	4
540.575	1	9
540.745	1	4
540.915	1	6
541.085	1	-2
541.255	1	-2
541.425	1	-1
541.595	1	8
541.765	1	0
541.935	1	6
542.105	1	6
542.275	1	1
542.445	1	5
542.615	1	2
542.785	1	4
542.955	1	16
543.125	1	-1
543.295	1	11
543.465	1	12
543.635	1	-1
543.805	1	9
543.975	1	10
544.145	1	-2
544.315	1	4
544.485	1	10
544.655	1	10
544.825	1	3
544.995	1	6
545.165	1	-1
545.335	1	10
545.505	1	-1
545.675	1	10
545.845	1	4
546.015	1	6
546.185	1	4
546.355	1	14
546.525	1	8
546.695	1	-8
546.865	1	0
547.035	1	3
547.205	1	6
547.375	1	10
547.545	1	4
547.715	1	5
547.885	1	8
548.055	1	14
548.225	1	-1
548.395	1	10
548.565	1	10
548.735	1	13
548.905	1	2
549.075	1	-7
549.245	1	-7
549.415	1	5
549.585	1	11
549.755	1	-7
549.925	1	2
550.095	1	7
550.265	1	2
550.435	1	12
550.605	1	-9
550.775	1	2
550.945	1	7
551.115	1	0
551.285	1	5
551.455	1	6
551.625	1	-4
551.795	1	2
551.965	1	5
552.135	1	3
552.305	1	4
552.475	1	-2
552.645	1	7
552.815	1	5
552.985	1	4
553.155	1	9
553.325	1	12
553.495	1	-11
553.665	1	1
553.835	1	3
554.004	1	2
554.174	1	-1
554.344	1	3
554.514	1	5
554.684	1	7
554.854	1	7
555.024	1	5
555.194	1	9
555.364	1	7
555.534	1	7
555.704	1	7
555.874	1	-2
556.044	1	-1
556.214	1	0
556.384	1	9
556.554	1	7
556.724	1	-9
556.894	1	7
557.064	1	-5
557.234	1	1
557.404	1	3
557.573	1	-6
557.743	1	6
557.913	1	-6
558.083	1	-10
558.253	1	3
558.423	1	-2
558.593	1	7
558.763	1	4
558.933	1	15
559.103	1	-1
559.273	1	3
559.443	1	4
559.613	1	6
559.783	1	6
559.953	1	8
560.122	1	-1
560.292	1	8
560.462	1	-3
560.632	1	-5
560.802	1	-2
560.972	1	17
561.142	1	3
561.312	1	8
561.482	1	3
561.652	1	10
561.822	1	8
561.992	1	12
562.162	1	9
562.331	1	-1
562.501	1	6
562.671	1	6
562.841	1	-3
563.011	1	4
563.181	1	8
563.351	1	-1
563.521	1	7
563.691	1	-1
563.861	1	6
564.031	1	-2
564.201	1	9
564.370	1	6
564.540	1	12
564.710	1	-8
564.880	1	3
565.050	1	1
565.220	1	4
565.390	1	-9
565.560	1	15
565.730	1	2
565.900	1	-1
566.069	1	6
566.239	1	-7
566.409	1	6
566.579	1	1
566.749	1	14
566.919	1	2
567.089	1	12
567.259	1	7
567.429	1	5
567.599	1	0
567.768	1	9
567.938	1	1
568.108	1	2
568.278	1	-7
568.448	1	1
568.618	1	2
568.788	1	-1
568.958	1	5
569.128	1	7
569.297	1	11
569.467	1	1
569.637	1	5
569.807	1	-3
569.977	1	10
570.147	1	8
570.317	1	23
570.487	1	5
570.656	1	1
570.826	1	3
570.996	1	-3
571.166	1	-5
571.336	1	2
571.506	1	-2
571.676	1	5
571.846	1	8
572.015	1	-1
572.185	1	-7
572.355	1	12
572.525	1	-5
572.695	1	5
572.865	1	0
573.035	1	8
573.205	1	1
573.374	1	7
573.544	1	-4
573.714	1	9
573.884	1	2
574.054	1	7
574.224	1	4
574.394	1	-1
574.563	1	12
574.733	1	-3
574.903	1	5
575.073	1	0
575.243	1	-5
575.413	1	2
575.583	1	11
575.752	1	4
575.922	1	3
576.092	1	17
576.262	1	5
576.432	1	-8
576.602	1	-1
576.772	1	1
576.941	1	3
577.111	1	10
577.281	1	2
577.451	1	-1
577.621	1	-1
577.791	1	4
577.960	1	3
578.130	1	-4
578.300	1	-2
578.470	1	-2
578.640	1	1
578.810	1	8
578.979	1	-1
579.149	1	-5
579.319	1	4
579.489	1	6
579.659	1	-7
579.829	1	11
579.998	1	-2
580.168	1	-5
580.338	1	-11
580.508	1	-2
580.678	1	-2
580.848	1	5
581.017	1	2
581.187	1	5
581.357	1	4
581.527	1	-1
581.697	1	-1
581.867	1	-1
582.036	1	7
582.206	1	-4
582.376	1	0
582.546	1	9
582.716	1	8
582.885	1	6
583.055	1	-7
583.225	1	5
583.395	1	9
583.565	1	10
583.735	1	-2
583.904	1	-6
584.074	1	1
584.244	1	-2
584.414	1	-1
584.584	1	12
584.753	1	-3
584.923	1	-1
585.093	1	6
585.263	1	5
585.433	1	2
585.602	1	4
585.772	1	2
585.942	1	2
586.112	1	-8
586.282	1	3
586.451	1	6
586.621	1	1
586.791	1	0
586.961	1	4
587.131	1	2
587.300	1	-2
587.470	1	-2
587.640	1	-6
587.810	1	2
587.980	1	7
588.149	1	4
588.319	1	-8
588.489	1	4
588.659	1	5
588.829	1	1
588.998	1	-6
589.168	1	8
589.338	1	-2
589.508	1	11
589.677	1	9
589.847	1	1
590.017	1	-9
590.187	1	3
590.357	1	7
590.526	1	8
590.696	1	-2
590.866	1	6
591.036	1	2
591.205	1	0
591.375	1	-10
591.545	1	-4
591.715	1	-3
591.885	1	14
592.054	1	1
592.224	1	8
592.394	1	6
592.564	1	-16
592.733	1	-1
592.903	1	1
593.073	1	-1
593.243	1	-8
593.412	1	2
593.582	1	11
593.752	1	-2
593.922	1	-8
594.091	1	-7
594.261	1	3
594.431	1	0
594.601	1	0
594.771	1	2
594.940	1	2
595.110	1	-4
595.280	1	2
595.450	1	4
595.619	1	3
595.789	1	6
595.959	1	5
596.129	1	1
596.298	1	7
596.468	1	1
596.638	1	3
596.808	1	8
596.977	1	0
597.147	1	-3
597.317	1	1
597.487	1	4
597.656	1	-4
597.826	1	4
597.996	1	4
598.166	1	1
598.335	1	8
598.505	1	3
598.675	1	-6
598.844	1	-7
599.014	1	-1
599.184	1	7
599.354	1	-9
599.523	1	3
599.693	1	6
599.863	1	9
600.033	1	1
600.202	1	-5
600.372	1	1
600.542	1	0
600.712	1	3
600.881	1	1
601.051	1	-1
601.221	1	1
601.390	1	-7
601.560	1	2
601.730	1	8
601.900	1	3
602.069	1	8
602.239	1	-13
602.409	1	-5
602.578	1	1
602.748	1	-11
602.918	1	-3
603.088	1	3
603.257	1	-1
603.427	1	0
603.597	1	20
603.767	1	-7
603.936	1	9
604.106	1	0
604.276	1	6
604.445	1	4
604.615	1	-2
604.785	1	6
604.954	1	8
605.124	1	-8
605.294	1	4
605.464	1	-7
605.633	1	8
605.803	1	4
605.973	1	-10
606.142	1	3
606.312	1	-8
606.482	1	-2
606.652	1	0
606.821	1	-6
606.991	1	-2
607.161	1	0
607.330	1	7
607.500	1	11
607.670	1	-8
607.839	1	4
608.009	1	-12
608.179	1	1
608.348	1	-6
608.518	1	12
608.688	1	5
608.858	1	5
609.027	1	2
609.197	1	-14
609.367	1	-8
609.536	1	2
609.706	1	5
609.876	1	2
610.045	1	-5
610.215	1	-5
610.385	1	6
610.554	1	-4
610.724	1	2
610.894	1	-4
611.063	1	12
611.233	1	-2
611.403	1	-4
611.572	1	1
611.742	1	-5
611.912	1	0
612.081	1	-2
612.251	1	3
612.421	1	4
612.590	1	-7
612.760	1	0
612.930	1	5
613.099	1	-16
613.269	1	-5
613.439	1	-5
613.608	1	8
613.778	1	9
613.948	1	11
614.117	1	6
614.287	1	-4
614.457	1	2
614.626	1	9
614.796	1	14
614.966	1	2
615.135	1	-7
615.305	1	-5
615.475	1	7
615.644	1	-8
615.814	1	10
615.984	1	6
616.153	1	11
616.323	1	-5
616.493	1	10
616.662	1	1
616.832	1	-6
617.002	1	-2
617.171	1	-5
617.341	1	-3
617.511	1	-1
617.680	1	15
617.850	1	4
618.019	1	5
618.189	1	0
618.359	1	4
618.528	1	-10
618.698	1	-6
618.868	1	4
619.037	1	13
619.207	1	-18
619.377	1	-2
619.546	1	3
619.716	1	-8
619.885	1	1
620.055	1	6
620.225	1	4
620.394	1	5
620.564	1	0
620.734	1	6
620.903	1	3
621.073	1	-8
621.242	1	-7
621.412	1	5
621.582	1	3
621.751	1	2
621.921	1	4
622.091	1	-3
622.260	1	-5
622.430	1	7
622.599	1	8
622.769	1	-7
622.939	1	-4
623.108	1	3
623.278	1	-1
623.448	1	-1
623.617	1	10
623.787	1	-2
623.956	1	2
624.126	1	-1
624.296	1	-1
624.465	1	5
624.635	1	4
624.804	1	-5
624.974	1	-7
625.144	1	2
625.313	1	3
625.483	1	3
625.652	1	4
625.822	1	1
625.992	1	-3
626.161	1	-1
626.331	1	10
626.501	1	6
626.670	1	-1
626.840	1	-2
627.009	1	-4
627.179	1	-1
627.348	1	-6
627.518	1	1
627.688	1	6
627.857	1	9
628.027	1	1
628.196	1	11
628.366	1	12
628.536	1	2
628.705	1	4
628.875	1	8
629.044	1	4
629.214	1	7
629.384	1	-7
629.553	1	0
629.723	1	2
629.892	1	0
630.062	1	5
630.232	1	7
630.401	1	-3
630.571	1	5
630.740	1	11
630.910	1	-4
631.079	1	12
631.249	1	-1
631.419	1	11
631.588	1	0
631.758	1	5
631.927	1	2
632.097	1	6
632.266	1	-5
632.436	1	-5
632.606	1	6
632.775	1	-1
632.945	1	-3
633.114	1	6
633.284	1	-5
633.453	1	2
633.623	1	-6
633.793	1	4
633.962	1	5
634.132	1	0
634.301	1	-7
634.471	1	-3
634.640	1	-3
634.810	1	-2
634.979	1	5
635.149	1	-6
635.319	1	2
635.488	1	-4
635.658	1	-5
635.827	1	-3
635.997	1	-3
636.166	1	-2
636.336	1	22
636.505	1	7
636.675	1	3
636.845	1	6
637.014	1	-8
637.184	1	-2
637.353	1	8
637.523	1	-2
637.692	1	4
637.862	1	-12
638.031	1	14
638.201	1	-1
638.370	1	2
638.540	1	0
638.710	1	1
638.879	1	3
639.049	1	-1
639.218	1	8
639.388	1	8
639.557	1	-1
639.727	1	-4
639.896	1	0
640.066	1	0
640.235	1	9
640.405	1	-4
640.574	1	0
640.744	1	-6
640.914	1	-1
641.083	1	-3
641.253	1	-7
641.422	1	2
641.592	1	-3
641.761	1	6
641.931	1	8
642.100	1	-6
642.270	1	-2
642.439	1	1
642.609	1	-1
642.778	1	-4
642.948	1	-4
643.117	1	3
643.287	1	-2
643.456	1	8
643.626	1	7
643.795	1	-4
643.965	1	-3
644.134	1	-4
644.304	1	-6
644.473	1	6
644.643	1	-10
644.812	1	10
644.982	1	13
645.151	1	4
645.321	1	7
645.490	1	6
645.660	1	-6
645.829	1	-10
645.999	1	0
646.168	1	0
646.338	1	10
646.507	1	-1
646.677	1	6
646.846	1	10
647.016	1	-9
647.185	1	-2
647.355	1	-1
647.524	1	-3
647.694	1	-12
647.863	1	-12
648.033	1	-16
648.202	1	0
648.372	1	15
648.541	1	-2
648.711	1	3
648.880	1	-3
649.050	1	2
649.219	1	2
649.389	1	6
649.558	1	-9
649.728	1	4
649.897	1	-4
650.067	1	1
650.236	1	6
650.406	1	4
650.575	1	-2
650.745	1	3
650.914	1	-1
651.084	1	-9
651.253	1	3
651.423	1	-1
651.592	1	-9
651.762	1	7
651.931	1	10
652.101	1	1
652.270	1	7
652.440	1	3
652.609	1	4
652.778	1	3
652.948	1	6
653.117	1	-7
653.287	1	5
653.456	1	2
653.626	1	9
653.795	1	6
653.965	1	3
654.134	1	12
654.304	1	5
654.473	1	3
654.643	1	8
654.812	1	-2
654.982	1	-12
655.151	1	-5
655.320	1	-6
655.490	1	5
655.659	1	3
655.829	1	1
655.998	1	12
656.168	1	0
656.337	1	-3
656.507	1	5
656.676	1	-4
656.846	1	-11
657.015	1	-11
657.184	1	7
657.354	1	5
657.523	1	-3
657.693	1	3
657.862	1	3
658.032	1	7
658.201	1	-1
658.371	1	-13
658.540	1	-3
658.709	1	-9
658.879	1	-2
659.048	1	2
659.218	1	-4
659.387	1	-3
659.557	1	1
659.726	1	-7
659.895	1	-7
660.065	1	7
660.234	1	2
660.404	1	3
660.573	1	-9
660.743	1	0
660.912	1	2
661.081	1	3
661.251	1	3
661.420	1	3
661.590	1	-2
661.759	1	3
661.929	1	8
662.098	1	-12
662.267	1	12
662.437	1	1
662.606	1	-1
662.776	1	5
662.945	1	-5
663.115	1	-3
663.284	1	3
663.453	1	-2
663.623	1	0
663.792	1	-2
663.962	1	-3
664.131	1	-12
664.300	1	2
664.470	1	-1
664.639	1	-2
664.809	1	-1
664.978	1	3
665.148	1	-1
665.317	1	-5
665.486	1	-6
665.656	1	0
665.825	1	6
665.995	1	0
666.164	1	-2
666.333	1	10
666.503	1	-7
666.672	1	-15
666.842	1	-7
667.011	1	1
667.180	1	-3
667.350	1	11
667.519	1	-5
667.689	1	-4
667.858	1	13
668.027	1	-12
668.197	1	1
668.366	1	-6
668.536	1	0
668.705	1	3
668.874	1	-4
669.044	1	2
669.213	1	0
669.382	1	-12
669.552	1	0
669.721	1	-7
669.891	1	0
670.060	1	3
670.229	1	1
670.399	1	2
670.568	1	4
670.738	1	-4
670.907	1	-7
671.076	1	10
671.246	1	7
671.415	1	-6
671.584	1	-4
671.754	1	-10
671.923	1	-13
672.093	1	-2
672.262	1	-2
672.431	1	3
672.601	1	-9
672.770	1	0
672.939	1	-6
673.109	1	-3
673.278	1	0
673.448	1	4
673.617	1	-2
673.786	1	4
