325.333	1	-1
325.504	1	3
325.675	1	-2
325.846	1	1
326.017	1	-1
326.188	1	3
326.359	1	1
326.531	1	-4
326.702	1	4
326.873	1	0
327.044	1	0
327.215	1	2
327.386	1	4
327.557	1	-4
327.728	1	-9
327.899	1	-5
328.070	1	5
328.241	1	1
328.412	1	8
328.583	1	-1
328.754	1	-3
328.926	1	-2
329.097	1	2
329.268	1	0
329.439	1	-2
329.610	1	-1
329.781	1	0
329.952	1	4
330.123	1	-1
330.294	1	5
330.465	1	5
330.636	1	9
330.807	1	5
330.978	1	-6
331.149	1	4
331.320	1	5
331.492	1	-14
331.663	1	-5
331.834	1	8
332.005	1	4
332.176	1	5
332.347	1	9
332.518	1	8
332.689	1	3
332.860	1	-2
333.031	1	1
333.202	1	-5
333.373	1	-2
333.544	1	-2
333.715	1	-3
333.886	1	-2
334.057	1	-11
334.228	1	-7
334.399	1	0
334.570	1	0
334.741	1	-3
334.912	1	-10
335.084	1	-3
335.255	1	3
335.426	1	-2
335.597	1	-5
335.768	1	1
335.939	1	0
336.110	1	-8
336.281	1	-6
336.452	1	1
336.623	1	8
336.794	1	-10
336.965	1	0
337.136	1	-3
337.307	1	8
337.478	1	3
337.649	1	-1
337.820	1	16
337.991	1	1
338.162	1	5
338.333	1	2
338.504	1	-2
338.675	1	2
338.846	1	3
339.017	1	8
339.188	1	-1
339.359	1	-4
339.530	1	-3
339.701	1	1
339.872	1	4
340.043	1	-9
340.214	1	-9
340.385	1	-1
340.556	1	7
340.727	1	0
340.898	1	1
341.069	1	0
341.240	1	9
341.411	1	4
341.582	1	-7
341.753	1	2
341.924	1	-8
342.095	1	7
342.266	1	-4
342.437	1	8
342.608	1	-4
342.779	1	-2
342.950	1	1
343.121	1	11
343.292	1	-4
343.463	1	3
343.634	1	-7
343.805	1	9
343.976	1	6
344.147	1	-3
344.318	1	6
344.489	1	-11
344.660	1	13
344.831	1	-2
345.002	1	12
345.173	1	-6
345.344	1	-5
345.515	1	-5
345.686	1	6
345.857	1	5
346.028	1	-1
346.199	1	-7
346.370	1	-11
346.541	1	0
346.712	1	4
346.883	1	-3
347.054	1	3
347.225	1	0
347.396	1	-4
347.567	1	4
347.738	1	13
347.909	1	-1
348.080	1	-3
348.251	1	1
348.422	1	1
348.593	1	-2
348.764	1	6
348.935	1	2
349.106	1	-1
349.277	1	-5
349.448	1	4
349.619	1	3
349.790	1	3
349.961	1	-2
350.132	1	-7
350.303	1	-5
350.474	1	2
350.645	1	12
350.816	1	-7
350.987	1	2
351.157	1	7
351.328	1	6
351.499	1	3
351.670	1	13
351.841	1	4
352.012	1	-6
352.183	1	-3
352.354	1	15
352.525	1	3
352.696	1	-6
352.867	1	-3
353.038	1	19
353.209	1	1
353.380	1	4
353.551	1	7
353.722	1	-7
353.893	1	6
354.064	1	7
354.235	1	0
354.406	1	-2
354.576	1	1
354.747	1	-2
354.918	1	-3
355.089	1	-1
355.260	1	4
355.431	1	6
355.602	1	10
355.773	1	7
355.944	1	9
356.115	1	-4
356.286	1	-2
356.457	1	0
356.628	1	13
356.799	1	9
356.970	1	-2
357.141	1	-5
357.311	1	9
357.482	1	-3
357.653	1	1
357.824	1	-6
357.995	1	6
358.166	1	8
358.337	1	14
358.508	1	11
358.679	1	10
358.850	1	2
359.021	1	-5
359.192	1	3
359.363	1	1
359.533	1	7
359.704	1	2
359.875	1	1
360.046	1	8
360.217	1	20
360.388	1	13
360.559	1	16
360.730	1	-1
360.901	1	7
361.072	1	2
361.243	1	12
361.414	1	13
361.584	1	12
361.755	1	10
361.926	1	16
362.097	1	2
362.268	1	8
362.439	1	4
362.610	1	4
362.781	1	12
362.952	1	13
363.123	1	12
363.293	1	4
363.464	1	18
363.635	1	6
363.806	1	15
363.977	1	14
364.148	1	9
364.319	1	22
364.490	1	2
364.661	1	20
364.832	1	12
365.002	1	23
365.173	1	20
365.344	1	7
365.515	1	13
365.686	1	20
365.857	1	18
366.028	1	18
366.199	1	21
366.370	1	17
366.540	1	18
366.711	1	25
366.882	1	23
367.053	1	18
367.224	1	15
367.395	1	21
367.566	1	24
367.737	1	10
367.908	1	14
368.078	1	25
368.249	1	17
368.420	1	16
368.591	1	34
368.762	1	11
368.933	1	19
369.104	1	9
369.274	1	11
369.445	1	9
369.616	1	1
369.787	1	7
369.958	1	12
370.129	1	20
370.300	1	1
370.471	1	19
370.641	1	15
370.812	1	3
370.983	1	12
371.154	1	1
371.325	1	4
371.496	1	6
371.667	1	18
371.837	1	-1
372.008	1	8
372.179	1	7
372.350	1	5
372.521	1	10
372.692	1	7
372.863	1	19
373.033	1	11
373.204	1	7
373.375	1	4
373.546	1	6
373.717	1	11
373.888	1	7
374.059	1	8
374.229	1	3
374.400	1	9
374.571	1	5
374.742	1	9
374.913	1	1
375.084	1	6
375.254	1	14
375.425	1	6
375.596	1	-12
375.767	1	13
375.938	1	11
376.109	1	1
376.279	1	3
376.450	1	-3
376.621	1	17
376.792	1	-1
376.963	1	14
377.134	1	0
377.304	1	3
377.475	1	5
377.646	1	7
377.817	1	14
377.988	1	8
378.159	1	14
378.329	1	5
378.500	1	1
378.671	1	-3
378.842	1	3
379.013	1	2
379.184	1	8
379.354	1	1
379.525	1	12
379.696	1	-6
379.867	1	12
380.038	1	12
380.209	1	14
380.379	1	4
380.550	1	11
380.721	1	16
380.892	1	12
381.063	1	8
381.233	1	14
381.404	1	15
381.575	1	6
381.746	1	17
381.917	1	0
382.087	1	11
382.258	1	18
382.429	1	11
382.600	1	15
382.771	1	8
382.941	1	16
383.112	1	18
383.283	1	14
383.454	1	20
383.625	1	20
383.795	1	28
383.966	1	11
384.137	1	24
384.308	1	25
384.479	1	40
384.649	1	19
384.820	1	21
384.991	1	39
385.162	1	33
385.333	1	48
385.503	1	38
385.674	1	28
385.845	1	27
386.016	1	30
386.187	1	43
386.357	1	37
386.528	1	45
386.699	1	41
386.870	1	45
387.041	1	32
387.211	1	34
387.382	1	40
387.553	1	39
387.724	1	32
387.894	1	36
388.065	1	33
388.236	1	34
388.407	1	40
388.578	1	32
388.748	1	47
388.919	1	33
389.090	1	44
389.261	1	21
389.431	1	37
389.602	1	38
389.773	1	24
389.944	1	39
390.114	1	36
390.285	1	28
390.456	1	26
390.627	1	23
390.798	1	38
390.968	1	22
391.139	1	29
391.310	1	29
391.481	1	23
391.651	1	35
391.822	1	34
391.993	1	28
392.164	1	31
392.334	1	32
392.505	1	28
392.676	1	33
392.847	1	30
393.017	1	20
393.188	1	34
393.359	1	22
393.530	1	27
393.700	1	34
393.871	1	28
394.042	1	29
394.213	1	32
394.383	1	40
394.554	1	28
394.725	1	31
394.896	1	12
395.066	1	25
395.237	1	45
395.408	1	26
395.579	1	31
395.749	1	35
395.920	1	34
396.091	1	28
396.262	1	40
396.432	1	24
396.603	1	19
396.774	1	30
396.945	1	38
397.115	1	29
397.286	1	47
397.457	1	33
397.627	1	32
397.798	1	28
397.969	1	34
398.140	1	29
398.310	1	41
398.481	1	25
398.652	1	40
398.823	1	41
398.993	1	29
399.164	1	39
399.335	1	38
399.505	1	37
399.676	1	39
399.847	1	26
400.018	1	27
400.188	1	39
400.359	1	31
400.530	1	24
400.700	1	27
400.871	1	28
401.042	1	22
401.213	1	17
401.383	1	41
401.554	1	25
401.725	1	29
401.895	1	30
402.066	1	23
402.237	1	36
402.408	1	16
402.578	1	19
402.749	1	21
402.920	1	18
403.090	1	16
403.261	1	12
403.432	1	22
403.603	1	23
403.773	1	26
403.944	1	22
404.115	1	16
404.285	1	14
404.456	1	26
404.627	1	20
404.797	1	38
404.968	1	23
405.139	1	18
405.310	1	15
405.480	1	33
405.651	1	21
405.822	1	25
405.992	1	19
406.163	1	24
406.334	1	17
406.504	1	17
406.675	1	27
406.846	1	22
407.016	1	14
407.187	1	19
407.358	1	13
407.528	1	22
407.699	1	25
407.870	1	26
408.041	1	14
408.211	1	16
408.382	1	25
408.553	1	23
408.723	1	18
408.894	1	8
409.065	1	18
409.235	1	10
409.406	1	20
409.577	1	22
409.747	1	21
409.918	1	13
410.089	1	25
410.259	1	8
410.430	1	27
410.601	1	14
410.771	1	11
410.942	1	27
411.113	1	18
411.283	1	11
411.454	1	11
411.625	1	12
411.795	1	24
411.966	1	10
412.137	1	17
412.307	1	11
412.478	1	20
412.649	1	16
412.819	1	12
412.990	1	21
413.161	1	13
413.331	1	12
413.502	1	24
413.672	1	15
413.843	1	10
414.014	1	15
414.184	1	11
414.355	1	8
414.526	1	15
414.696	1	10
414.867	1	19
415.038	1	7
415.208	1	5
415.379	1	22
415.550	1	13
415.720	1	8
415.891	1	20
416.062	1	18
416.232	1	10
416.403	1	11
416.573	1	16
416.744	1	8
416.915	1	13
417.085	1	13
417.256	1	14
417.427	1	13
417.597	1	-1
417.768	1	10
417.939	1	19
418.109	1	15
418.280	1	15
418.450	1	12
418.621	1	3
418.792	1	10
418.962	1	5
419.133	1	15
419.304	1	13
419.474	1	12
419.645	1	19
419.815	1	-2
419.986	1	10
420.157	1	15
420.327	1	9
420.498	1	7
420.669	1	9
420.839	1	3
421.010	1	17
421.180	1	9
421.351	1	9
421.522	1	11
421.692	1	18
421.863	1	10
422.033	1	6
422.204	1	5
422.375	1	3
422.545	1	16
422.716	1	0
422.886	1	11
423.057	1	2
423.228	1	-1
423.398	1	14
423.569	1	9
423.740	1	1
423.910	1	-3
424.081	1	11
424.251	1	7
424.422	1	12
424.593	1	10
424.763	1	6
424.934	1	11
425.104	1	14
425.275	1	-3
425.445	1	1
425.616	1	11
425.787	1	6
425.957	1	23
426.128	1	3
426.298	1	8
426.469	1	-1
426.640	1	9
426.810	1	12
426.981	1	3
427.151	1	5
427.322	1	5
427.493	1	4
427.663	1	-2
427.834	1	4
428.004	1	8
428.175	1	11
428.345	1	6
428.516	1	6
428.687	1	2
428.857	1	5
429.028	1	10
429.198	1	-6
429.369	1	8
429.540	1	11
429.710	1	10
429.881	1	18
430.051	1	17
430.222	1	-1
430.392	1	5
430.563	1	9
430.734	1	5
430.904	1	13
431.075	1	14
431.245	1	14
431.416	1	-2
431.586	1	9
431.757	1	7
431.927	1	5
432.098	1	-3
432.269	1	6
432.439	1	-3
432.610	1	-3
432.780	1	-1
432.951	1	7
433.121	1	16
433.292	1	14
433.462	1	10
433.633	1	-1
433.804	1	0
433.974	1	1
434.145	1	3
434.315	1	5
434.486	1	5
434.656	1	-1
434.827	1	0
434.997	1	6
435.168	1	6
435.339	1	10
435.509	1	14
435.680	1	-1
435.850	1	0
436.021	1	12
436.191	1	-4
436.362	1	5
436.532	1	3
436.703	1	9
436.873	1	1
437.044	1	4
437.214	1	4
437.385	1	6
437.556	1	2
437.726	1	4
437.897	1	3
438.067	1	1
438.238	1	0
438.408	1	0
438.579	1	13
438.749	1	6
438.920	1	3
439.090	1	6
439.261	1	4
439.431	1	5
439.602	1	8
439.772	1	5
439.943	1	3
440.113	1	14
440.284	1	16
440.455	1	-4
440.625	1	2
440.796	1	6
440.966	1	6
441.137	1	-2
441.307	1	3
441.478	1	11
441.648	1	-6
441.819	1	10
441.989	1	1
442.160	1	3
442.330	1	4
442.501	1	-16
442.671	1	-2
442.842	1	5
443.012	1	2
443.183	1	-1
443.353	1	7
443.524	1	3
443.694	1	10
443.865	1	9
444.035	1	-2
444.206	1	7
444.376	1	-2
444.547	1	2
444.717	1	15
444.888	1	-8
445.058	1	3
445.229	1	9
445.399	1	11
445.570	1	15
445.740	1	3
445.911	1	17
446.081	1	6
446.252	1	4
446.422	1	1
446.593	1	-4
446.763	1	9
446.934	1	14
447.104	1	-8
447.275	1	-2
447.445	1	3
447.616	1	5
447.786	1	2
447.957	1	10
448.127	1	7
448.298	1	1
448.468	1	10
448.639	1	2
448.809	1	1
448.979	1	3
449.150	1	-3
449.320	1	7
449.491	1	4
449.661	1	-2
449.832	1	1
450.002	1	-4
450.173	1	2
450.343	1	5
450.514	1	1
450.684	1	1
450.855	1	-1
451.025	1	6
451.196	1	-3
451.366	1	-3
451.537	1	2
451.707	1	12
451.878	1	-6
452.048	1	-3
452.218	1	4
452.389	1	-4
452.559	1	4
452.730	1	-9
452.900	1	6
453.071	1	6
453.241	1	-3
453.412	1	-12
453.582	1	9
453.753	1	2
453.923	1	7
454.093	1	7
454.264	1	-4
454.434	1	8
454.605	1	6
454.775	1	10
454.946	1	10
455.116	1	-5
455.287	1	8
455.457	1	-1
455.628	1	-3
455.798	1	-7
455.968	1	14
456.139	1	8
456.309	1	-8
456.480	1	-3
456.650	1	-4
456.821	1	3
456.991	1	5
457.161	1	13
457.332	1	2
457.502	1	0
457.673	1	-2
457.843	1	0
458.014	1	4
458.184	1	4
458.355	1	2
458.525	1	2
458.695	1	0
458.866	1	8
459.036	1	5
459.207	1	-3
459.377	1	-8
459.548	1	-2
459.718	1	-1
459.888	1	8
460.059	1	11
460.229	1	13
460.400	1	2
460.570	1	1
460.740	1	1
460.911	1	11
461.081	1	-2
461.252	1	-7
461.422	1	7
461.593	1	6
461.763	1	6
461.933	1	-4
462.104	1	4
462.274	1	10
462.445	1	-14
462.615	1	-6
462.785	1	-8
462.956	1	7
463.126	1	-10
463.297	1	7
463.467	1	0
463.638	1	3
463.808	1	9
463.978	1	0
464.149	1	-2
464.319	1	10
464.490	1	-4
464.660	1	2
464.830	1	1
465.001	1	13
465.171	1	4
465.342	1	12
465.512	1	2
465.682	1	6
465.853	1	-9
466.023	1	5
466.194	1	3
466.364	1	5
466.534	1	1
466.705	1	7
466.875	1	14
467.045	1	7
467.216	1	-4
467.386	1	-6
467.557	1	3
467.727	1	-4
467.897	1	10
468.068	1	15
468.238	1	0
468.409	1	-1
468.579	1	16
468.749	1	9
468.920	1	0
469.090	1	12
469.260	1	3
469.431	1	0
469.601	1	8
469.772	1	-15
469.942	1	9
470.112	1	0
470.283	1	12
470.453	1	2
470.623	1	7
470.794	1	6
470.964	1	9
471.135	1	-5
471.305	1	-3
471.475	1	6
471.646	1	10
471.816	1	0
471.986	1	4
472.157	1	2
472.327	1	-1
472.497	1	-5
472.668	1	1
472.838	1	6
473.009	1	6
473.179	1	3
473.349	1	2
473.520	1	3
473.690	1	9
473.860	1	1
474.031	1	5
474.201	1	1
474.371	1	5
474.542	1	-12
474.712	1	-6
474.882	1	8
475.053	1	-11
475.223	1	-3
475.394	1	5
475.564	1	18
475.734	1	-9
475.905	1	10
476.075	1	15
476.245	1	1
476.416	1	-3
476.586	1	8
476.756	1	1
476.927	1	13
477.097	1	-1
477.267	1	-6
477.438	1	1
477.608	1	0
477.778	1	8
477.949	1	7
478.119	1	5
478.289	1	0
478.460	1	1
478.630	1	-3
478.800	1	-3
478.971	1	2
479.141	1	11
479.311	1	0
479.482	1	-1
479.652	1	10
479.822	1	-7
479.993	1	4
480.163	1	-5
480.333	1	-4
480.504	1	-4
480.674	1	7
480.844	1	9
481.015	1	1
481.185	1	7
481.355	1	14
481.525	1	5
481.696	1	11
481.866	1	1
482.036	1	-6
482.207	1	13
482.377	1	-4
482.547	1	1
482.718	1	0
482.888	1	-5
483.058	1	-2
483.229	1	3
483.399	1	4
483.569	1	5
483.740	1	-21
483.910	1	5
484.080	1	-3
484.250	1	-1
484.421	1	-2
484.591	1	12
484.761	1	-3
484.932	1	14
485.102	1	0
485.272	1	9
485.443	1	7
485.613	1	-14
485.783	1	11
485.953	1	0
486.124	1	11
486.294	1	6
486.464	1	5
486.635	1	15
486.805	1	17
486.975	1	-10
487.146	1	7
487.316	1	13
487.486	1	10
487.656	1	-1
487.827	1	11
487.997	1	1
488.167	1	5
488.338	1	18
488.508	1	6
488.678	1	2
488.848	1	4
489.019	1	-3
489.189	1	6
489.359	1	4
489.529	1	7
489.700	1	5
489.870	1	-2
490.040	1	5
490.211	1	13
490.381	1	1
490.551	1	-4
490.721	1	8
490.892	1	13
491.062	1	9
491.232	1	3
491.402	1	-5
491.573	1	2
491.743	1	-4
491.913	1	4
492.084	1	6
492.254	1	7
492.424	1	3
492.594	1	8
492.765	1	13
492.935	1	3
493.105	1	5
493.275	1	9
493.446	1	-6
493.616	1	-4
493.786	1	5
493.956	1	2
494.127	1	-7
494.297	1	4
494.467	1	6
494.637	1	3
494.808	1	6
494.978	1	1
495.148	1	13
495.318	1	12
495.489	1	10
495.659	1	5
495.829	1	12
495.999	1	5
496.170	1	-2
496.340	1	3
496.510	1	0
496.680	1	1
496.851	1	5
497.021	1	-3
497.191	1	6
497.361	1	12
497.532	1	-1
497.702	1	-1
497.872	1	12
498.042	1	8
498.213	1	10
498.383	1	-2
498.553	1	17
498.723	1	3
498.894	1	2
499.064	1	20
499.234	1	-1
499.404	1	1
499.574	1	9
499.745	1	9
499.915	1	6
500.085	1	3
500.255	1	6
500.426	1	9
500.596	1	9
500.766	1	16
500.936	1	-5
501.106	1	7
501.277	1	2
501.447	1	6
501.617	1	5
501.787	1	5
501.958	1	-6
502.128	1	0
502.298	1	19
502.468	1	9
502.638	1	4
502.809	1	11
502.979	1	6
503.149	1	13
503.319	1	15
503.489	1	10
503.660	1	1
503.830	1	4
504.000	1	-7
504.170	1	9
504.340	1	12
504.511	1	17
504.681	1	13
504.851	1	2
505.021	1	6
505.192	1	25
505.362	1	15
505.532	1	5
505.702	1	7
505.872	1	3
506.043	1	10
506.213	1	16
506.383	1	12
506.553	1	13
506.723	1	14
506.893	1	11
507.064	1	11
507.234	1	16
507.404	1	-4
507.574	1	5
507.744	1	-6
507.915	1	12
508.085	1	16
508.255	1	19
508.425	1	13
508.595	1	14
508.766	1	13
508.936	1	9
509.106	1	5
509.276	1	20
509.446	1	11
509.616	1	-3
509.787	1	6
509.957	1	13
510.127	1	13
510.297	1	12
510.467	1	16
510.638	1	3
510.808	1	10
510.978	1	0
511.148	1	14
511.318	1	8
511.488	1	9
511.659	1	24
511.829	1	11
511.999	1	22
512.169	1	14
512.339	1	17
512.509	1	22
512.680	1	21
512.850	1	8
513.020	1	12
513.190	1	4
513.360	1	15
513.530	1	1
513.700	1	17
513.871	1	17
514.041	1	12
514.211	1	7
514.381	1	6
514.551	1	15
514.721	1	14
514.892	1	21
515.062	1	14
515.232	1	13
515.402	1	14
515.572	1	2
515.742	1	16
515.912	1	26
516.083	1	9
516.253	1	13
516.423	1	19
516.593	1	14
516.763	1	11
516.933	1	13
517.104	1	13
517.274	1	19
517.444	1	13
517.614	1	5
517.784	1	15
517.954	1	11
518.124	1	20
518.294	1	23
518.465	1	15
518.635	1	17
518.805	1	16
518.975	1	14
519.145	1	17
519.315	1	11
519.485	1	9
519.656	1	21
519.826	1	27
519.996	1	23
520.166	1	10
520.336	1	11
520.506	1	21
520.676	1	11
520.846	1	21
521.017	1	4
521.187	1	19
521.357	1	7
521.527	1	21
521.697	1	14
521.867	1	14
522.037	1	10
522.207	1	9
522.377	1	15
522.548	1	12
522.718	1	7
522.888	1	9
523.058	1	28
523.228	1	27
523.398	1	18
523.568	1	12
523.738	1	10
523.909	1	29
524.079	1	15
524.249	1	11
524.419	1	8
524.589	1	21
524.759	1	17
524.929	1	21
525.099	1	18
525.269	1	22
525.439	1	15
525.610	1	9
525.780	1	25
525.950	1	3
526.120	1	12
526.290	1	8
526.460	1	19
526.630	1	9
526.800	1	19
526.970	1	11
527.140	1	12
527.311	1	21
527.481	1	26
527.651	1	31
527.821	1	18
527.991	1	12
528.161	1	12
528.331	1	16
528.501	1	10
528.671	1	22
528.841	1	22
529.011	1	15
529.181	1	18
529.352	1	21
529.522	1	16
529.692	1	14
529.862	1	11
530.032	1	10
530.202	1	21
530.372	1	9
530.542	1	25
530.712	1	21
530.882	1	18
531.052	1	22
531.222	1	10
531.392	1	22
531.563	1	25
531.733	1	11
531.903	1	20
532.073	1	19
532.243	1	8
532.413	1	25
532.583	1	12
532.753	1	13
532.923	1	8
533.093	1	14
533.263	1	9
533.433	1	12
533.603	1	20
533.773	1	16
533.943	1	10
534.113	1	19
534.284	1	13
534.454	1	12
534.624	1	14
534.794	1	27
534.964	1	11
535.134	1	13
535.304	1	31
535.474	1	15
535.644	1	18
535.814	1	25
535.984	1	21
536.154	1	14
536.324	1	14
536.494	1	22
536.664	1	16
536.834	1	11
537.004	1	25
537.174	1	25
537.344	1	17
537.514	1	11
537.685	1	3
537.855	1	28
538.025	1	21
538.195	1	29
538.365	1	19
538.535	1	27
538.705	1	9
538.875	1	20
539.045	1	18
539.215	1	5
539.385	1	14
539.555	1	10
539.725	1	20
539.895	1	25
540.065	1	15
540.235	1	10
540.405	1	12
540.575	1	20
540.745	1	19
540.915	1	20
541.085	1	9
541.255	1	0
541.425	1	13
541.595	1	21
541.765	1	15
541.935	1	27
542.105	1	10
542.275	1	17
542.445	1	22
542.615	1	10
542.785	1	16
542.955	1	17
543.125	1	10
543.295	1	14
543.465	1	29
543.635	1	14
543.805	1	22
543.975	1	15
544.145	1	14
544.315	1	12
544.485	1	12
544.655	1	21
544.825	1	22
544.995	1	22
545.165	1	26
545.335	1	15
545.505	1	15
545.675	1	8
545.845	1	4
546.015	1	11
546.185	1	1
546.355	1	20
546.525	1	22
546.695	1	4
546.865	1	12
547.035	1	14
547.205	1	10
547.375	1	17
547.545	1	25
547.715	1	15
547.885	1	8
548.055	1	13
548.225	1	2
548.395	1	18
548.565	1	11
548.735	1	29
548.905	1	5
549.075	1	3
549.245	1	8
549.415	1	9
549.585	1	7
549.755	1	9
549.925	1	18
550.095	1	21
550.265	1	9
550.435	1	19
550.605	1	13
550.775	1	7
550.945	1	8
551.115	1	7
551.285	1	15
551.455	1	14
551.625	1	7
551.795	1	2
551.965	1	17
552.135	1	17
552.305	1	12
552.475	1	9
552.645	1	11
552.815	1	17
552.985	1	18
553.155	1	8
553.325	1	16
553.495	1	6
553.665	1	11
553.835	1	14
554.004	1	11
554.174	1	7
554.344	1	9
554.514	1	10
554.684	1	22
554.854	1	16
555.024	1	5
555.194	1	25
555.364	1	15
555.534	1	10
555.704	1	11
555.874	1	0
556.044	1	11
556.214	1	15
556.384	1	23
556.554	1	11
556.724	1	6
556.894	1	19
557.064	1	12
557.234	1	8
557.404	1	3
557.573	1	18
557.743	1	11
557.913	1	11
558.083	1	2
558.253	1	11
558.423	1	-1
558.593	1	9
558.763	1	11
558.933	1	10
559.103	1	7
559.273	1	-1
559.443	1	7
559.613	1	24
559.783	1	16
559.953	1	5
560.122	1	-4
560.292	1	7
560.462	1	11
560.632	1	17
560.802	1	15
560.972	1	22
561.142	1	14
561.312	1	12
561.482	1	6
561.652	1	15
561.822	1	7
561.992	1	17
562.162	1	15
562.331	1	4
562.501	1	2
562.671	1	12
562.841	1	1
563.011	1	13
563.181	1	10
563.351	1	18
563.521	1	13
563.691	1	4
563.861	1	19
564.031	1	15
564.201	1	17
564.370	1	16
564.540	1	18
564.710	1	1
564.880	1	15
565.050	1	6
565.220	1	12
565.390	1	2
565.560	1	14
565.730	1	11
565.900	1	8
566.069	1	22
566.239	1	-11
566.409	1	11
566.579	1	6
566.749	1	9
566.919	1	12
567.089	1	15
567.259	1	14
567.429	1	9
567.599	1	7
567.768	1	15
567.938	1	3
568.108	1	13
568.278	1	3
568.448	1	-2
568.618	1	4
568.788	1	9
568.958	1	2
569.128	1	10
569.297	1	18
569.467	1	12
569.637	1	4
569.807	1	11
569.977	1	0
570.147	1	10
570.317	1	23
570.487	1	16
570.656	1	1
570.826	1	10
570.996	1	2
571.166	1	5
571.336	1	4
571.506	1	14
571.676	1	9
571.846	1	15
572.015	1	-2
572.185	1	8
572.355	1	22
572.525	1	6
572.695	1	17
572.865	1	7
573.035	1	13
573.205	1	24
573.374	1	4
573.544	1	2
573.714	1	18
573.884	1	9
574.054	1	7
574.224	1	5
574.394	1	9
574.563	1	10
574.733	1	0
574.903	1	14
575.073	1	15
575.243	1	6
575.413	1	10
575.583	1	10
575.752	1	10
575.922	1	5
576.092	1	15
576.262	1	3
576.432	1	-6
576.602	1	8
576.772	1	5
576.941	1	1
577.111	1	3
577.281	1	-4
577.451	1	4
577.621	1	5
577.791	1	16
577.960	1	3
578.130	1	-2
578.300	1	4
578.470	1	-5
578.640	1	2
578.810	1	8
578.979	1	6
579.149	1	10
579.319	1	5
579.489	1	2
579.659	1	7
579.829	1	11
579.998	1	11
580.168	1	12
580.338	1	-7
580.508	1	13
580.678	1	-3
580.848	1	6
581.017	1	14
581.187	1	8
581.357	1	8
581.527	1	8
581.697	1	-1
581.867	1	0
582.036	1	6
582.206	1	0
582.376	1	18
582.546	1	3
582.716	1	16
582.885	1	9
583.055	1	2
583.225	1	12
583.395	1	6
583.565	1	13
583.735	1	2
583.904	1	5
584.074	1	5
584.244	1	7
584.414	1	-2
584.584	1	11
584.753	1	5
584.923	1	2
585.093	1	4
585.263	1	5
585.433	1	6
585.602	1	4
585.772	1	4
585.942	1	14
586.112	1	1
586.282	1	3
586.451	1	0
586.621	1	8
586.791	1	7
586.961	1	7
587.131	1	4
587.300	1	-1
587.470	1	4
587.640	1	3
587.810	1	4
587.980	1	7
588.149	1	6
588.319	1	10
588.489	1	8
588.659	1	9
588.829	1	9
588.998	1	-3
589.168	1	8
589.338	1	0
589.508	1	11
589.677	1	4
589.847	1	6
590.017	1	-13
590.187	1	9
590.357	1	8
590.526	1	2
590.696	1	7
590.866	1	0
591.036	1	12
591.205	1	9
591.375	1	0
591.545	1	0
591.715	1	-5
591.885	1	3
592.054	1	5
592.224	1	8
592.394	1	14
592.564	1	-4
592.733	1	-3
592.903	1	-4
593.073	1	1
593.243	1	-4
593.412	1	3
593.582	1	15
593.752	1	3
593.922	1	-4
594.091	1	10
594.261	1	6
594.431	1	8
594.601	1	-11
594.771	1	7
594.940	1	0
595.110	1	6
595.280	1	6
595.450	1	13
595.619	1	14
595.789	1	9
595.959	1	6
596.129	1	3
596.298	1	12
596.468	1	5
596.638	1	4
596.808	1	4
596.977	1	9
597.147	1	9
597.317	1	10
597.487	1	-4
597.656	1	8
597.826	1	0
597.996	1	10
598.166	1	-4
598.335	1	11
598.505	1	0
598.675	1	9
598.844	1	-4
599.014	1	3
599.184	1	0
599.354	1	-4
599.523	1	1
599.693	1	8
599.863	1	15
600.033	1	-2
600.202	1	1
600.372	1	-2
600.542	1	-1
600.712	1	3
600.881	1	8
601.051	1	16
601.221	1	-1
601.390	1	0
601.560	1	10
601.730	1	9
601.900	1	3
602.069	1	-10
602.239	1	-3
602.409	1	3
602.578	1	0
602.748	1	-3
602.918	1	-3
603.088	1	8
603.257	1	10
603.427	1	2
603.597	1	14
603.767	1	-5
603.936	1	13
604.106	1	7
604.276	1	-2
604.445	1	2
604.615	1	-1
604.785	1	3
604.954	1	5
605.124	1	-6
605.294	1	11
605.464	1	2
605.633	1	6
605.803	1	2
605.973	1	0
606.142	1	3
606.312	1	-2
606.482	1	3
606.652	1	-4
606.821	1	13
606.991	1	0
607.161	1	4
607.330	1	11
607.500	1	4
607.670	1	1
607.839	1	10
608.009	1	-1
608.179	1	-2
608.348	1	6
608.518	1	6
608.688	1	5
608.858	1	6
609.027	1	5
609.197	1	-4
609.367	1	1
609.536	1	4
609.706	1	2
609.876	1	-2
610.045	1	10
610.215	1	0
610.385	1	10
610.554	1	-2
610.724	1	-4
610.894	1	7
611.063	1	7
611.233	1	-6
611.403	1	5
611.572	1	8
611.742	1	2
611.912	1	7
612.081	1	8
612.251	1	8
612.421	1	10
612.590	1	2
612.760	1	-4
612.930	1	3
613.099	1	-6
613.269	1	-6
613.439	1	1
613.608	1	15
613.778	1	-4
613.948	1	11
614.117	1	13
614.287	1	-1
614.457	1	3
614.626	1	-1
614.796	1	18
614.966	1	2
615.135	1	6
615.305	1	-4
615.475	1	9
615.644	1	-10
615.814	1	12
615.984	1	8
616.153	1	12
616.323	1	-3
616.493	1	12
616.662	1	-5
616.832	1	1
617.002	1	0
617.171	1	0
617.341	1	14
617.511	1	-8
617.680	1	9
617.850	1	2
618.019	1	1
618.189	1	3
618.359	1	6
618.528	1	-3
618.698	1	-3
618.868	1	2
619.037	1	6
619.207	1	-6
619.377	1	-4
619.546	1	6
619.716	1	-4
619.885	1	2
620.055	1	4
620.225	1	7
620.394	1	5
620.564	1	6
620.734	1	9
620.903	1	-2
621.073	1	0
621.242	1	-5
621.412	1	-3
621.582	1	4
621.751	1	0
621.921	1	0
622.091	1	-7
622.260	1	0
622.430	1	13
622.599	1	4
622.769	1	8
622.939	1	0
623.108	1	0
623.278	1	-5
623.448	1	-6
623.617	1	13
623.787	1	-10
623.956	1	3
624.126	1	3
624.296	1	8
624.465	1	10
624.635	1	6
624.804	1	-3
624.974	1	4
625.144	1	2
625.313	1	5
625.483	1	9
625.652	1	7
625.822	1	0
625.992	1	-5
626.161	1	0
626.331	1	8
626.501	1	5
626.670	1	11
626.840	1	12
627.009	1	-7
627.179	1	-5
627.348	1	-2
627.518	1	4
627.688	1	10
627.857	1	11
628.027	1	2
628.196	1	-4
628.366	1	8
628.536	1	5
628.705	1	1
628.875	1	10
629.044	1	1
629.214	1	1
629.384	1	-14
629.553	1	4
629.723	1	10
629.892	1	0
630.062	1	2
630.232	1	11
630.401	1	1
630.571	1	5
630.740	1	4
630.910	1	3
631.079	1	7
631.249	1	2
631.419	1	-2
631.588	1	0
631.758	1	10
631.927	1	2
632.097	1	3
632.266	1	-6
632.436	1	-8
632.606	1	0
632.775	1	-2
632.945	1	-2
633.114	1	12
633.284	1	3
633.453	1	2
633.623	1	-4
633.793	1	5
633.962	1	11
634.132	1	5
634.301	1	3
634.471	1	-8
634.640	1	4
634.810	1	0
634.979	1	6
635.149	1	1
635.319	1	14
635.488	1	10
635.658	1	-4
635.827	1	7
635.997	1	-3
636.166	1	-3
636.336	1	11
636.505	1	6
636.675	1	6
636.845	1	13
637.014	1	4
637.184	1	4
637.353	1	2
637.523	1	-5
637.692	1	-5
637.862	1	-10
638.031	1	14
638.201	1	8
638.370	1	9
638.540	1	6
638.710	1	5
638.879	1	8
639.049	1	9
639.218	1	10
639.388	1	0
639.557	1	0
639.727	1	3
639.896	1	5
640.066	1	1
640.235	1	9
640.405	1	0
640.574	1	-5
640.744	1	3
640.914	1	7
641.083	1	-1
641.253	1	-5
641.422	1	0
641.592	1	-1
641.761	1	-3
641.931	1	12
642.100	1	-2
642.270	1	17
642.439	1	7
642.609	1	-1
642.778	1	3
642.948	1	4
643.117	1	-3
643.287	1	5
643.456	1	11
643.626	1	10
643.795	1	9
643.965	1	-4
644.134	1	8
644.304	1	3
644.473	1	16
644.643	1	2
644.812	1	8
644.982	1	13
645.151	1	10
645.321	1	12
645.490	1	3
645.660	1	-2
645.829	1	-1
645.999	1	-2
646.168	1	-4
646.338	1	12
646.507	1	5
646.677	1	1
646.846	1	6
647.016	1	12
647.185	1	6
647.355	1	1
647.524	1	9
647.694	1	-5
647.863	1	-12
648.033	1	-11
648.202	1	5
648.372	1	7
648.541	1	4
648.711	1	8
648.880	1	1
649.050	1	-4
649.219	1	7
649.389	1	5
649.558	1	-8
649.728	1	2
649.897	1	4
650.067	1	-4
650.236	1	14
650.406	1	9
650.575	1	6
650.745	1	-3
650.914	1	-3
651.084	1	-10
651.253	1	-3
651.423	1	9
651.592	1	5
651.762	1	11
651.931	1	5
652.101	1	1
652.270	1	9
652.440	1	10
652.609	1	18
652.778	1	-9
652.948	1	-1
653.117	1	-2
653.287	1	10
653.456	1	0
653.626	1	4
653.795	1	8
653.965	1	10
654.134	1	11
654.304	1	2
654.473	1	10
654.643	1	17
654.812	1	6
654.982	1	-9
655.151	1	-6
655.320	1	3
655.490	1	17
655.659	1	2
655.829	1	-4
655.998	1	4
656.168	1	12
656.337	1	-1
656.507	1	8
656.676	1	2
656.846	1	-6
657.015	1	0
657.184	1	-4
657.354	1	1
657.523	1	-1
657.693	1	1
657.862	1	3
658.032	1	9
658.201	1	3
658.371	1	-15
658.540	1	-3
658.709	1	-5
658.879	1	2
659.048	1	4
659.218	1	2
659.387	1	-10
659.557	1	1
659.726	1	1
659.895	1	1
660.065	1	7
660.234	1	7
660.404	1	3
660.573	1	-11
660.743	1	2
660.912	1	-2
661.081	1	-3
661.251	1	2
661.420	1	-2
661.590	1	8
661.759	1	7
661.929	1	0
662.098	1	-14
662.267	1	10
662.437	1	6
662.606	1	3
662.776	1	11
662.945	1	4
663.115	1	-4
663.284	1	-10
663.453	1	1
663.623	1	1
663.792	1	-3
663.962	1	1
664.131	1	-7
664.300	1	-4
664.470	1	-13
664.639	1	2
664.809	1	4
664.978	1	-4
665.148	1	2
665.317	1	2
665.486	1	-1
665.656	1	7
665.825	1	4
665.995	1	5
666.164	1	3
666.333	1	9
666.503	1	-1
666.672	1	-7
666.842	1	1
667.011	1	11
667.180	1	-2
667.350	1	6
667.519	1	0
667.689	1	-2
667.858	1	5
668.027	1	-1
668.197	1	7
668.366	1	-7
668.536	1	0
668.705	1	0
668.874	1	-5
669.044	1	-3
669.213	1	-1
669.382	1	-4
669.552	1	16
669.721	1	7
669.891	1	3
670.060	1	5
670.229	1	5
670.399	1	15
670.568	1	2
670.738	1	-9
670.907	1	-9
671.076	1	18
671.246	1	6
671.415	1	11
671.584	1	2
671.754	1	-6
671.923	1	-10
672.093	1	-1
672.262	1	6
672.431	1	-5
672.601	1	2
672.770	1	3
672.939	1	-16
673.109	1	-3
673.278	1	8
673.448	1	6
673.617	1	8
673.786	1	0
