325.333	1	2
325.504	1	2
325.675	1	-3
325.846	1	6
326.017	1	-4
326.188	1	5
326.359	1	3
326.531	1	-7
326.702	1	4
326.873	1	0
327.044	1	-5
327.215	1	-1
327.386	1	-2
327.557	1	1
327.728	1	-2
327.899	1	1
328.070	1	1
328.241	1	-2
328.412	1	5
328.583	1	-5
328.754	1	3
328.926	1	-2
329.097	1	4
329.268	1	2
329.439	1	2
329.610	1	-3
329.781	1	-8
329.952	1	12
330.123	1	1
330.294	1	3
330.465	1	-4
330.636	1	7
330.807	1	5
330.978	1	-3
331.149	1	0
331.320	1	8
331.492	1	1
331.663	1	-9
331.834	1	4
332.005	1	6
332.176	1	2
332.347	1	2
332.518	1	16
332.689	1	4
332.860	1	-3
333.031	1	-1
333.202	1	-3
333.373	1	-6
333.544	1	1
333.715	1	2
333.886	1	-2
334.057	1	-4
334.228	1	-11
334.399	1	-2
334.570	1	0
334.741	1	-11
334.912	1	-5
335.084	1	1
335.255	1	0
335.426	1	2
335.597	1	-6
335.768	1	-7
335.939	1	3
336.110	1	-2
336.281	1	-11
336.452	1	-5
336.623	1	15
336.794	1	-5
336.965	1	1
337.136	1	-5
337.307	1	3
337.478	1	8
337.649	1	-2
337.820	1	13
337.991	1	0
338.162	1	-5
338.333	1	0
338.504	1	-1
338.675	1	1
338.846	1	-5
339.017	1	8
339.188	1	5
339.359	1	-4
339.530	1	0
339.701	1	6
339.872	1	10
340.043	1	0
340.214	1	-4
340.385	1	2
340.556	1	6
340.727	1	-2
340.898	1	4
341.069	1	-3
341.240	1	1
341.411	1	2
341.582	1	3
341.753	1	-1
341.924	1	-4
342.095	1	5
342.266	1	-4
342.437	1	4
342.608	1	-8
342.779	1	-3
342.950	1	-3
343.121	1	9
343.292	1	3
343.463	1	1
343.634	1	-2
343.805	1	6
343.976	1	2
344.147	1	1
344.318	1	3
344.489	1	-11
344.660	1	11
344.831	1	-7
345.002	1	6
345.173	1	0
345.344	1	0
345.515	1	-3
345.686	1	4
345.857	1	-3
346.028	1	3
346.199	1	-6
346.370	1	0
346.541	1	-10
346.712	1	4
346.883	1	-7
347.054	1	-3
347.225	1	-2
347.396	1	3
347.567	1	-7
347.738	1	9
347.909	1	5
348.080	1	-12
348.251	1	1
348.422	1	2
348.593	1	-10
348.764	1	-2
348.935	1	8
349.106	1	-1
349.277	1	-2
349.448	1	-9
349.619	1	5
349.790	1	-8
349.961	1	2
350.132	1	1
350.303	1	-12
350.474	1	1
350.645	1	4
350.816	1	-3
350.987	1	-9
351.157	1	4
351.328	1	-2
351.499	1	-8
351.670	1	14
351.841	1	-2
352.012	1	-12
352.183	1	3
352.354	1	7
352.525	1	7
352.696	1	-11
352.867	1	1
353.038	1	8
353.209	1	0
353.380	1	0
353.551	1	7
353.722	1	9
353.893	1	-5
354.064	1	11
354.235	1	1
354.406	1	-13
354.576	1	5
354.747	1	-3
354.918	1	-10
355.089	1	-3
355.260	1	8
355.431	1	10
355.602	1	8
355.773	1	3
355.944	1	4
356.115	1	-7
356.286	1	0
356.457	1	4
356.628	1	7
356.799	1	1
356.970	1	-1
357.141	1	-4
357.311	1	4
357.482	1	-2
357.653	1	4
357.824	1	-1
357.995	1	-1
358.166	1	-1
358.337	1	8
358.508	1	3
358.679	1	11
358.850	1	-1
359.021	1	-2
359.192	1	7
359.363	1	5
359.533	1	1
359.704	1	3
359.875	1	0
360.046	1	-4
360.217	1	5
360.388	1	-3
360.559	1	12
360.730	1	-1
360.901	1	11
361.072	1	9
361.243	1	10
361.414	1	11
361.584	1	19
361.755	1	12
361.926	1	12
362.097	1	-1
362.268	1	17
362.439	1	7
362.610	1	4
362.781	1	6
362.952	1	9
363.123	1	18
363.293	1	4
363.464	1	17
363.635	1	12
363.806	1	1
363.977	1	12
364.148	1	4
364.319	1	14
364.490	1	6
364.661	1	18
364.832	1	14
365.002	1	18
365.173	1	14
365.344	1	4
365.515	1	8
365.686	1	18
365.857	1	10
366.028	1	6
366.199	1	12
366.370	1	17
366.540	1	22
366.711	1	27
366.882	1	11
367.053	1	20
367.224	1	27
367.395	1	9
367.566	1	16
367.737	1	-8
367.908	1	12
368.078	1	18
368.249	1	17
368.420	1	15
368.591	1	28
368.762	1	-3
368.933	1	12
369.104	1	12
369.274	1	10
369.445	1	6
369.616	1	6
369.787	1	14
369.958	1	10
370.129	1	14
370.300	1	5
370.471	1	12
370.641	1	6
370.812	1	11
370.983	1	13
371.154	1	5
371.325	1	10
371.496	1	5
371.667	1	6
371.837	1	-5
372.008	1	2
372.179	1	5
372.350	1	2
372.521	1	4
372.692	1	2
372.863	1	6
373.033	1	11
373.204	1	7
373.375	1	7
373.546	1	9
373.717	1	12
373.888	1	2
374.059	1	1
374.229	1	-11
374.400	1	2
374.571	1	5
374.742	1	19
374.913	1	0
375.084	1	3
375.254	1	0
375.425	1	9
375.596	1	-1
375.767	1	5
375.938	1	1
376.109	1	3
376.279	1	-6
376.450	1	5
376.621	1	18
376.792	1	8
376.963	1	13
377.134	1	-4
377.304	1	7
377.475	1	6
377.646	1	10
377.817	1	9
377.988	1	4
378.159	1	9
378.329	1	8
378.500	1	1
378.671	1	0
378.842	1	-6
379.013	1	-2
379.184	1	6
379.354	1	10
379.525	1	14
379.696	1	-1
379.867	1	6
380.038	1	14
380.209	1	8
380.379	1	-7
380.550	1	1
380.721	1	12
380.892	1	-4
381.063	1	7
381.233	1	10
381.404	1	13
381.575	1	6
381.746	1	15
381.917	1	2
382.087	1	2
382.258	1	12
382.429	1	6
382.600	1	7
382.771	1	12
382.941	1	10
383.112	1	10
383.283	1	16
383.454	1	22
383.625	1	20
383.795	1	18
383.966	1	19
384.137	1	14
384.308	1	13
384.479	1	19
384.649	1	22
384.820	1	10
384.991	1	32
385.162	1	26
385.333	1	35
385.503	1	27
385.674	1	17
385.845	1	31
386.016	1	32
386.187	1	31
386.357	1	23
386.528	1	32
386.699	1	38
386.870	1	33
387.041	1	24
387.211	1	37
387.382	1	22
387.553	1	34
387.724	1	17
387.894	1	25
388.065	1	38
388.236	1	33
388.407	1	30
388.578	1	29
388.748	1	23
388.919	1	29
389.090	1	36
389.261	1	6
389.431	1	35
389.602	1	37
389.773	1	25
389.944	1	29
390.114	1	20
390.285	1	20
390.456	1	33
390.627	1	16
390.798	1	27
390.968	1	20
391.139	1	15
391.310	1	19
391.481	1	16
391.651	1	23
391.822	1	26
391.993	1	29
392.164	1	14
392.334	1	19
392.505	1	18
392.676	1	18
392.847	1	17
393.017	1	15
393.188	1	24
393.359	1	32
393.530	1	27
393.700	1	23
393.871	1	13
394.042	1	19
394.213	1	18
394.383	1	14
394.554	1	20
394.725	1	21
394.896	1	14
395.066	1	29
395.237	1	28
395.408	1	21
395.579	1	28
395.749	1	26
395.920	1	11
396.091	1	15
396.262	1	15
396.432	1	10
396.603	1	24
396.774	1	15
396.945	1	33
397.115	1	33
397.286	1	39
397.457	1	25
397.627	1	23
397.798	1	18
397.969	1	8
398.140	1	21
398.310	1	26
398.481	1	13
398.652	1	28
398.823	1	40
398.993	1	22
399.164	1	35
399.335	1	25
399.505	1	16
399.676	1	21
399.847	1	16
400.018	1	23
400.188	1	29
400.359	1	17
400.530	1	18
400.700	1	18
400.871	1	10
401.042	1	30
401.213	1	21
401.383	1	26
401.554	1	19
401.725	1	14
401.895	1	13
402.066	1	19
402.237	1	13
402.408	1	17
402.578	1	11
402.749	1	13
402.920	1	9
403.090	1	13
403.261	1	11
403.432	1	6
403.603	1	16
403.773	1	23
403.944	1	22
404.115	1	14
404.285	1	9
404.456	1	21
404.627	1	19
404.797	1	30
404.968	1	13
405.139	1	17
405.310	1	12
405.480	1	30
405.651	1	22
405.822	1	22
405.992	1	15
406.163	1	26
406.334	1	21
406.504	1	16
406.675	1	22
406.846	1	13
407.016	1	11
407.187	1	6
407.358	1	11
407.528	1	17
407.699	1	21
407.870	1	14
408.041	1	17
408.211	1	12
408.382	1	14
408.553	1	18
408.723	1	9
408.894	1	10
409.065	1	26
409.235	1	8
409.406	1	21
409.577	1	21
409.747	1	14
409.918	1	9
410.089	1	11
410.259	1	0
410.430	1	19
410.601	1	1
410.771	1	15
410.942	1	10
411.113	1	24
411.283	1	7
411.454	1	6
411.625	1	9
411.795	1	28
411.966	1	8
412.137	1	17
412.307	1	9
412.478	1	22
412.649	1	15
412.819	1	18
412.990	1	27
413.161	1	6
413.331	1	9
413.502	1	23
413.672	1	7
413.843	1	6
414.014	1	9
414.184	1	4
414.355	1	4
414.526	1	8
414.696	1	7
414.867	1	20
415.038	1	6
415.208	1	2
415.379	1	17
415.550	1	8
415.720	1	11
415.891	1	11
416.062	1	14
416.232	1	3
416.403	1	19
416.573	1	9
416.744	1	9
416.915	1	11
417.085	1	6
417.256	1	2
417.427	1	3
417.597	1	-2
417.768	1	1
417.939	1	5
418.109	1	10
418.280	1	18
418.450	1	3
418.621	1	6
418.792	1	1
418.962	1	12
419.133	1	9
419.304	1	11
419.474	1	3
419.645	1	17
419.815	1	2
419.986	1	11
420.157	1	12
420.327	1	9
420.498	1	5
420.669	1	21
420.839	1	4
421.010	1	18
421.180	1	11
421.351	1	7
421.522	1	9
421.692	1	10
421.863	1	3
422.033	1	8
422.204	1	4
422.375	1	-2
422.545	1	11
422.716	1	19
422.886	1	6
423.057	1	7
423.228	1	0
423.398	1	12
423.569	1	-1
423.740	1	0
423.910	1	-2
424.081	1	9
424.251	1	5
424.422	1	12
424.593	1	15
424.763	1	5
424.934	1	-2
425.104	1	9
425.275	1	4
425.445	1	-1
425.616	1	8
425.787	1	-8
425.957	1	15
426.128	1	4
426.298	1	4
426.469	1	-1
426.640	1	1
426.810	1	8
426.981	1	-1
427.151	1	5
427.322	1	12
427.493	1	9
427.663	1	8
427.834	1	-1
428.004	1	17
428.175	1	-4
428.345	1	19
428.516	1	13
428.687	1	8
428.857	1	3
429.028	1	5
429.198	1	1
429.369	1	7
429.540	1	4
429.710	1	1
429.881	1	13
430.051	1	11
430.222	1	1
430.392	1	7
430.563	1	15
430.734	1	3
430.904	1	-3
431.075	1	10
431.245	1	12
431.416	1	-1
431.586	1	5
431.757	1	3
431.927	1	18
432.098	1	-1
432.269	1	4
432.439	1	-3
432.610	1	-4
432.780	1	3
432.951	1	-4
433.121	1	11
433.292	1	2
433.462	1	7
433.633	1	0
433.804	1	-6
433.974	1	0
434.145	1	2
434.315	1	9
434.486	1	10
434.656	1	3
434.827	1	4
434.997	1	3
435.168	1	1
435.339	1	10
435.509	1	8
435.680	1	-2
435.850	1	9
436.021	1	8
436.191	1	5
436.362	1	-1
436.532	1	8
436.703	1	15
436.873	1	0
437.044	1	12
437.214	1	-2
437.385	1	3
437.556	1	-5
437.726	1	11
437.897	1	4
438.067	1	7
438.238	1	-3
438.408	1	-2
438.579	1	11
438.749	1	0
438.920	1	1
439.090	1	9
439.261	1	7
439.431	1	4
439.602	1	16
439.772	1	11
439.943	1	2
440.113	1	2
440.284	1	12
440.455	1	1
440.625	1	3
440.796	1	8
440.966	1	9
441.137	1	-4
441.307	1	8
441.478	1	-1
441.648	1	-9
441.819	1	0
441.989	1	3
442.160	1	7
442.330	1	2
442.501	1	-10
442.671	1	1
442.842	1	13
443.012	1	6
443.183	1	-7
443.353	1	8
443.524	1	2
443.694	1	9
443.865	1	6
444.035	1	7
444.206	1	6
444.376	1	0
444.547	1	-3
444.717	1	22
444.888	1	-5
445.058	1	8
445.229	1	1
445.399	1	8
445.570	1	7
445.740	1	2
445.911	1	17
446.081	1	12
446.252	1	1
446.422	1	3
446.593	1	-1
446.763	1	10
446.934	1	7
447.104	1	-3
447.275	1	3
447.445	1	8
447.616	1	-3
447.786	1	3
447.957	1	6
448.127	1	9
448.298	1	-4
448.468	1	10
448.639	1	9
448.809	1	-5
448.979	1	3
449.150	1	-1
449.320	1	6
449.491	1	-2
449.661	1	7
449.832	1	4
450.002	1	0
450.173	1	-4
450.343	1	1
450.514	1	3
450.684	1	4
450.855	1	5
451.025	1	-4
451.196	1	3
451.366	1	5
451.537	1	2
451.707	1	9
451.878	1	-2
452.048	1	2
452.218	1	-2
452.389	1	-7
452.559	1	2
452.730	1	-2
452.900	1	2
453.071	1	5
453.241	1	0
453.412	1	-9
453.582	1	12
453.753	1	3
453.923	1	-2
454.093	1	2
454.264	1	-8
454.434	1	2
454.605	1	5
454.775	1	8
454.946	1	7
455.116	1	-1
455.287	1	14
455.457	1	-7
455.628	1	0
455.798	1	-3
455.968	1	10
456.139	1	2
456.309	1	-14
456.480	1	-10
456.650	1	-1
456.821	1	8
456.991	1	6
457.161	1	-2
457.332	1	2
457.502	1	5
457.673	1	-7
457.843	1	7
458.014	1	1
458.184	1	5
458.355	1	10
458.525	1	3
458.695	1	7
458.866	1	7
459.036	1	5
459.207	1	2
459.377	1	-1
459.548	1	-5
459.718	1	-2
459.888	1	11
460.059	1	1
460.229	1	9
460.400	1	4
460.570	1	-4
460.740	1	2
460.911	1	6
461.081	1	-8
461.252	1	-1
461.422	1	-3
461.593	1	-4
461.763	1	3
461.933	1	-9
462.104	1	6
462.274	1	2
462.445	1	-6
462.615	1	-8
462.785	1	-5
462.956	1	-2
463.126	1	-3
463.297	1	-1
463.467	1	1
463.638	1	3
463.808	1	12
463.978	1	6
464.149	1	2
464.319	1	-9
464.490	1	3
464.660	1	3
464.830	1	1
465.001	1	4
465.171	1	-1
465.342	1	8
465.512	1	-2
465.682	1	-1
465.853	1	1
466.023	1	-5
466.194	1	-2
466.364	1	2
466.534	1	-5
466.705	1	8
466.875	1	1
467.045	1	2
467.216	1	-4
467.386	1	-3
467.557	1	1
467.727	1	-1
467.897	1	3
468.068	1	6
468.238	1	-9
468.409	1	3
468.579	1	7
468.749	1	-3
468.920	1	2
469.090	1	10
469.260	1	7
469.431	1	2
469.601	1	10
469.772	1	-10
469.942	1	1
470.112	1	-2
470.283	1	13
470.453	1	2
470.623	1	-2
470.794	1	-3
470.964	1	-7
471.135	1	-7
471.305	1	-11
471.475	1	-6
471.646	1	6
471.816	1	-6
471.986	1	13
472.157	1	3
472.327	1	-5
472.497	1	-2
472.668	1	0
472.838	1	9
473.009	1	3
473.179	1	8
473.349	1	5
473.520	1	2
473.690	1	12
473.860	1	0
474.031	1	4
474.201	1	-9
474.371	1	6
474.542	1	-3
474.712	1	0
474.882	1	-1
475.053	1	-2
475.223	1	5
475.394	1	6
475.564	1	4
475.734	1	6
475.905	1	4
476.075	1	0
476.245	1	-4
476.416	1	-7
476.586	1	-1
476.756	1	0
476.927	1	6
477.097	1	1
477.267	1	-2
477.438	1	0
477.608	1	6
477.778	1	10
477.949	1	5
478.119	1	3
478.289	1	2
478.460	1	1
478.630	1	3
478.800	1	-1
478.971	1	-2
479.141	1	10
479.311	1	5
479.482	1	-13
479.652	1	5
479.822	1	-8
479.993	1	3
480.163	1	-10
480.333	1	-4
480.504	1	7
480.674	1	8
480.844	1	6
481.015	1	-8
481.185	1	11
481.355	1	9
481.525	1	8
481.696	1	3
481.866	1	4
482.036	1	-8
482.207	1	10
482.377	1	5
482.547	1	-1
482.718	1	15
482.888	1	-5
483.058	1	-6
483.229	1	1
483.399	1	2
483.569	1	9
483.740	1	-5
483.910	1	12
484.080	1	-1
484.250	1	1
484.421	1	0
484.591	1	19
484.761	1	2
484.932	1	7
485.102	1	4
485.272	1	8
485.443	1	13
485.613	1	-6
485.783	1	3
485.953	1	7
486.124	1	2
486.294	1	-1
486.464	1	-12
486.635	1	11
486.805	1	6
486.975	1	-10
487.146	1	6
487.316	1	9
487.486	1	8
487.656	1	0
487.827	1	7
487.997	1	1
488.167	1	0
488.338	1	19
488.508	1	5
488.678	1	1
488.848	1	2
489.019	1	8
489.189	1	-5
489.359	1	2
489.529	1	2
489.700	1	9
489.870	1	-1
490.040	1	-4
490.211	1	4
490.381	1	-4
490.551	1	2
490.721	1	3
490.892	1	7
491.062	1	15
491.232	1	3
491.402	1	1
491.573	1	-1
491.743	1	-13
491.913	1	-2
492.084	1	2
492.254	1	0
492.424	1	2
492.594	1	5
492.765	1	12
492.935	1	6
493.105	1	16
493.275	1	9
493.446	1	4
493.616	1	-2
493.786	1	1
493.956	1	2
494.127	1	-5
494.297	1	6
494.467	1	10
494.637	1	8
494.808	1	14
494.978	1	2
495.148	1	10
495.318	1	6
495.489	1	4
495.659	1	7
495.829	1	10
495.999	1	5
496.170	1	3
496.340	1	17
496.510	1	2
496.680	1	2
496.851	1	12
497.021	1	2
497.191	1	11
497.361	1	6
497.532	1	1
497.702	1	9
497.872	1	-4
498.042	1	4
498.213	1	17
498.383	1	-3
498.553	1	5
498.723	1	1
498.894	1	2
499.064	1	8
499.234	1	-4
499.404	1	11
499.574	1	5
499.745	1	4
499.915	1	9
500.085	1	0
500.255	1	13
500.426	1	3
500.596	1	0
500.766	1	5
500.936	1	5
501.106	1	3
501.277	1	9
501.447	1	4
501.617	1	5
501.787	1	-5
501.958	1	5
502.128	1	2
502.298	1	15
502.468	1	15
502.638	1	18
502.809	1	7
502.979	1	8
503.149	1	7
503.319	1	4
503.489	1	16
503.660	1	-1
503.830	1	8
504.000	1	-2
504.170	1	8
504.340	1	7
504.511	1	15
504.681	1	12
504.851	1	6
505.021	1	4
505.192	1	7
505.362	1	20
505.532	1	10
505.702	1	4
505.872	1	-1
506.043	1	11
506.213	1	12
506.383	1	-1
506.553	1	17
506.723	1	15
506.893	1	5
507.064	1	2
507.234	1	21
507.404	1	2
507.574	1	4
507.744	1	5
507.915	1	8
508.085	1	20
508.255	1	9
508.425	1	23
508.595	1	-1
508.766	1	2
508.936	1	5
509.106	1	0
509.276	1	13
509.446	1	6
509.616	1	8
509.787	1	-1
509.957	1	14
510.127	1	15
510.297	1	2
510.467	1	4
510.638	1	-6
510.808	1	-3
510.978	1	2
511.148	1	19
511.318	1	10
511.488	1	17
511.659	1	7
511.829	1	12
511.999	1	18
512.169	1	14
512.339	1	4
512.509	1	9
512.680	1	10
512.850	1	6
513.020	1	11
513.190	1	9
513.360	1	16
513.530	1	5
513.700	1	17
513.871	1	13
514.041	1	-1
514.211	1	-1
514.381	1	9
514.551	1	12
514.721	1	20
514.892	1	8
515.062	1	11
515.232	1	2
515.402	1	13
515.572	1	4
515.742	1	19
515.912	1	16
516.083	1	4
516.253	1	8
516.423	1	14
516.593	1	5
516.763	1	8
516.933	1	17
517.104	1	23
517.274	1	9
517.444	1	12
517.614	1	-2
517.784	1	0
517.954	1	6
518.124	1	19
518.294	1	9
518.465	1	15
518.635	1	4
518.805	1	5
518.975	1	21
519.145	1	16
519.315	1	-1
519.485	1	0
519.656	1	8
519.826	1	16
519.996	1	21
520.166	1	10
520.336	1	10
520.506	1	11
520.676	1	3
520.846	1	-3
521.017	1	9
521.187	1	9
521.357	1	6
521.527	1	6
521.697	1	18
521.867	1	6
522.037	1	6
522.207	1	6
522.377	1	14
522.548	1	6
522.718	1	11
522.888	1	12
523.058	1	30
523.228	1	34
523.398	1	20
523.568	1	5
523.738	1	9
523.909	1	9
524.079	1	13
524.249	1	10
524.419	1	15
524.589	1	13
524.759	1	11
524.929	1	9
525.099	1	13
525.269	1	20
525.439	1	8
525.610	1	4
525.780	1	9
525.950	1	10
526.120	1	7
526.290	1	7
526.460	1	13
526.630	1	15
526.800	1	15
526.970	1	5
527.140	1	9
527.311	1	21
527.481	1	25
527.651	1	24
527.821	1	14
527.991	1	7
528.161	1	8
528.331	1	14
528.501	1	2
528.671	1	9
528.841	1	16
529.011	1	5
529.181	1	9
529.352	1	17
529.522	1	3
529.692	1	22
529.862	1	10
530.032	1	6
530.202	1	12
530.372	1	3
530.542	1	3
530.712	1	16
530.882	1	12
531.052	1	15
531.222	1	1
531.392	1	14
531.563	1	20
531.733	1	20
531.903	1	25
532.073	1	20
532.243	1	7
532.413	1	11
532.583	1	5
532.753	1	5
532.923	1	5
533.093	1	11
533.263	1	19
533.433	1	19
533.603	1	14
533.773	1	16
533.943	1	14
534.113	1	17
534.284	1	18
534.454	1	12
534.624	1	17
534.794	1	10
534.964	1	9
535.134	1	8
535.304	1	16
535.474	1	9
535.644	1	12
535.814	1	13
535.984	1	1
536.154	1	19
536.324	1	23
536.494	1	16
536.664	1	1
536.834	1	11
537.004	1	17
537.174	1	26
537.344	1	10
537.514	1	22
537.685	1	9
537.855	1	10
538.025	1	5
538.195	1	16
538.365	1	8
538.535	1	26
538.705	1	7
538.875	1	17
539.045	1	11
539.215	1	5
539.385	1	10
539.555	1	0
539.725	1	25
539.895	1	11
540.065	1	10
540.235	1	4
540.405	1	16
540.575	1	14
540.745	1	14
540.915	1	9
541.085	1	2
541.255	1	1
541.425	1	4
541.595	1	16
541.765	1	7
541.935	1	9
542.105	1	11
542.275	1	3
542.445	1	20
542.615	1	8
542.785	1	11
542.955	1	15
543.125	1	6
543.295	1	14
543.465	1	23
543.635	1	5
543.805	1	18
543.975	1	8
544.145	1	10
544.315	1	14
544.485	1	11
544.655	1	8
544.825	1	23
544.995	1	12
545.165	1	11
545.335	1	14
545.505	1	5
545.675	1	9
545.845	1	6
546.015	1	13
546.185	1	-4
546.355	1	17
546.525	1	19
546.695	1	1
546.865	1	14
547.035	1	21
547.205	1	3
547.375	1	12
547.545	1	18
547.715	1	9
547.885	1	12
548.055	1	11
548.225	1	8
548.395	1	20
548.565	1	8
548.735	1	25
548.905	1	2
549.075	1	7
549.245	1	11
549.415	1	12
549.585	1	1
549.755	1	5
549.925	1	18
550.095	1	16
550.265	1	6
550.435	1	21
550.605	1	6
550.775	1	4
550.945	1	15
551.115	1	10
551.285	1	14
551.455	1	11
551.625	1	4
551.795	1	12
551.965	1	4
552.135	1	7
552.305	1	13
552.475	1	4
552.645	1	16
552.815	1	5
552.985	1	15
553.155	1	16
553.325	1	22
553.495	1	9
553.665	1	11
553.835	1	14
554.004	1	8
554.174	1	5
554.344	1	1
554.514	1	19
554.684	1	10
554.854	1	15
555.024	1	3
555.194	1	11
555.364	1	17
555.534	1	3
555.704	1	19
555.874	1	0
556.044	1	10
556.214	1	4
556.384	1	18
556.554	1	-1
556.724	1	4
556.894	1	19
557.064	1	2
557.234	1	6
557.404	1	-7
557.573	1	11
557.743	1	10
557.913	1	10
558.083	1	4
558.253	1	2
558.423	1	-7
558.593	1	19
558.763	1	3
558.933	1	11
559.103	1	13
559.273	1	5
559.443	1	8
559.613	1	12
559.783	1	14
559.953	1	8
560.122	1	-5
560.292	1	4
560.462	1	4
560.632	1	7
560.802	1	12
560.972	1	15
561.142	1	11
561.312	1	15
561.482	1	9
561.652	1	0
561.822	1	7
561.992	1	11
562.162	1	14
562.331	1	13
562.501	1	3
562.671	1	8
562.841	1	0
563.011	1	13
563.181	1	13
563.351	1	-1
563.521	1	11
563.691	1	14
563.861	1	7
564.031	1	8
564.201	1	5
564.370	1	18
564.540	1	23
564.710	1	0
564.880	1	4
565.050	1	15
565.220	1	8
565.390	1	6
565.560	1	8
565.730	1	2
565.900	1	9
566.069	1	20
566.239	1	-2
566.409	1	1
566.579	1	11
566.749	1	9
566.919	1	25
567.089	1	8
567.259	1	19
567.429	1	7
567.599	1	-7
567.768	1	11
567.938	1	5
568.108	1	-9
568.278	1	-1
568.448	1	-3
568.618	1	12
568.788	1	0
568.958	1	15
569.128	1	3
569.297	1	7
569.467	1	13
569.637	1	10
569.807	1	5
569.977	1	14
570.147	1	0
570.317	1	21
570.487	1	7
570.656	1	7
570.826	1	8
570.996	1	4
571.166	1	3
571.336	1	1
571.506	1	3
571.676	1	5
571.846	1	12
572.015	1	2
572.185	1	4
572.355	1	17
572.525	1	2
572.695	1	13
572.865	1	4
573.035	1	10
573.205	1	12
573.374	1	2
573.544	1	-6
573.714	1	9
573.884	1	10
574.054	1	4
574.224	1	3
574.394	1	6
574.563	1	12
574.733	1	2
574.903	1	7
575.073	1	-6
575.243	1	0
575.413	1	6
575.583	1	15
575.752	1	10
575.922	1	10
576.092	1	9
576.262	1	1
576.432	1	-3
576.602	1	3
576.772	1	6
576.941	1	1
577.111	1	7
577.281	1	8
577.451	1	-2
577.621	1	4
577.791	1	7
577.960	1	2
578.130	1	2
578.300	1	2
578.470	1	1
578.640	1	-3
578.810	1	8
578.979	1	3
579.149	1	7
579.319	1	13
579.489	1	5
579.659	1	6
579.829	1	6
579.998	1	-5
580.168	1	11
580.338	1	-6
580.508	1	3
580.678	1	4
580.848	1	10
581.017	1	5
581.187	1	3
581.357	1	-5
581.527	1	22
581.697	1	-4
581.867	1	1
582.036	1	10
582.206	1	-2
582.376	1	11
582.546	1	-1
582.716	1	13
582.885	1	0
583.055	1	2
583.225	1	12
583.395	1	7
583.565	1	15
583.735	1	3
583.904	1	5
584.074	1	-7
584.244	1	7
584.414	1	8
584.584	1	18
584.753	1	-4
584.923	1	1
585.093	1	5
585.263	1	1
585.433	1	0
585.602	1	10
585.772	1	0
585.942	1	6
586.112	1	4
586.282	1	3
586.451	1	9
586.621	1	9
586.791	1	4
586.961	1	10
587.131	1	0
587.300	1	-3
587.470	1	-2
587.640	1	1
587.810	1	4
587.980	1	8
588.149	1	-2
588.319	1	2
588.489	1	1
588.659	1	1
588.829	1	14
588.998	1	4
589.168	1	10
589.338	1	11
589.508	1	6
589.677	1	8
589.847	1	4
590.017	1	-8
590.187	1	-2
590.357	1	6
590.526	1	4
590.696	1	5
590.866	1	3
591.036	1	5
591.205	1	4
591.375	1	-4
591.545	1	-2
591.715	1	-1
591.885	1	10
592.054	1	5
592.224	1	7
592.394	1	8
592.564	1	-9
592.733	1	-6
592.903	1	0
593.073	1	18
593.243	1	5
593.412	1	2
593.582	1	12
593.752	1	-4
593.922	1	0
594.091	1	5
594.261	1	4
594.431	1	4
594.601	1	-3
594.771	1	7
594.940	1	2
595.110	1	3
595.280	1	-1
595.450	1	4
595.619	1	6
595.789	1	8
595.959	1	0
596.129	1	-5
596.298	1	7
596.468	1	12
596.638	1	5
596.808	1	6
596.977	1	-4
597.147	1	18
597.317	1	5
597.487	1	4
597.656	1	7
597.826	1	-9
597.996	1	15
598.166	1	3
598.335	1	-4
598.505	1	9
598.675	1	6
598.844	1	3
599.014	1	-5
599.184	1	1
599.354	1	-2
599.523	1	5
599.693	1	13
599.863	1	12
600.033	1	-2
600.202	1	4
600.372	1	-3
600.542	1	3
600.712	1	2
600.881	1	4
601.051	1	15
601.221	1	0
601.390	1	-4
601.560	1	7
601.730	1	7
601.900	1	0
602.069	1	-2
602.239	1	-1
602.409	1	-8
602.578	1	5
602.748	1	0
602.918	1	-5
603.088	1	16
603.257	1	-4
603.427	1	3
603.597	1	14
603.767	1	-2
603.936	1	4
604.106	1	3
604.276	1	-1
604.445	1	15
604.615	1	6
604.785	1	10
604.954	1	3
605.124	1	-13
605.294	1	6
605.464	1	-5
605.633	1	12
605.803	1	2
605.973	1	-9
606.142	1	0
606.312	1	-3
606.482	1	0
606.652	1	-5
606.821	1	11
606.991	1	0
607.161	1	6
607.330	1	11
607.500	1	4
607.670	1	4
607.839	1	8
608.009	1	-9
608.179	1	-3
608.348	1	-11
608.518	1	3
608.688	1	0
608.858	1	-2
609.027	1	2
609.197	1	0
609.367	1	-1
609.536	1	-1
609.706	1	5
609.876	1	7
610.045	1	-5
610.215	1	3
610.385	1	3
610.554	1	-3
610.724	1	-1
610.894	1	8
611.063	1	12
611.233	1	-1
611.403	1	4
611.572	1	6
611.742	1	2
611.912	1	-7
612.081	1	7
612.251	1	-5
612.421	1	5
612.590	1	4
612.760	1	3
612.930	1	4
613.099	1	-5
613.269	1	7
613.439	1	-2
613.608	1	2
613.778	1	5
613.948	1	9
614.117	1	4
614.287	1	0
614.457	1	4
614.626	1	13
614.796	1	13
614.966	1	11
615.135	1	-1
615.305	1	-2
615.475	1	7
615.644	1	-7
615.814	1	1
615.984	1	19
616.153	1	6
616.323	1	5
616.493	1	-1
616.662	1	0
616.832	1	4
617.002	1	-2
617.171	1	-4
617.341	1	11
617.511	1	-4
617.680	1	8
617.850	1	1
618.019	1	3
618.189	1	-7
618.359	1	2
618.528	1	-4
618.698	1	0
618.868	1	4
619.037	1	11
619.207	1	-9
619.377	1	-13
619.546	1	-4
619.716	1	-2
619.885	1	6
620.055	1	5
620.225	1	8
620.394	1	2
620.564	1	-5
620.734	1	-3
620.903	1	9
621.073	1	-2
621.242	1	3
621.412	1	15
621.582	1	-4
621.751	1	-2
621.921	1	9
622.091	1	-6
622.260	1	-6
622.430	1	-6
622.599	1	15
622.769	1	0
622.939	1	3
623.108	1	-2
623.278	1	6
623.448	1	-9
623.617	1	3
623.787	1	3
623.956	1	-1
624.126	1	6
624.296	1	-2
624.465	1	20
624.635	1	11
624.804	1	-6
624.974	1	0
625.144	1	2
625.313	1	4
625.483	1	8
625.652	1	6
625.822	1	6
625.992	1	-5
626.161	1	2
626.331	1	-1
626.501	1	8
626.670	1	5
626.840	1	11
627.009	1	-1
627.179	1	2
627.348	1	1
627.518	1	6
627.688	1	-6
627.857	1	7
628.027	1	-1
628.196	1	11
628.366	1	7
628.536	1	-1
628.705	1	4
628.875	1	2
629.044	1	10
629.214	1	4
629.384	1	-7
629.553	1	7
629.723	1	1
629.892	1	11
630.062	1	2
630.232	1	20
630.401	1	-4
630.571	1	-2
630.740	1	-1
630.910	1	4
631.079	1	14
631.249	1	-3
631.419	1	8
631.588	1	1
631.758	1	10
631.927	1	-2
632.097	1	6
632.266	1	-3
632.436	1	2
632.606	1	-1
632.775	1	-7
632.945	1	-6
633.114	1	7
633.284	1	-10
633.453	1	1
633.623	1	0
633.793	1	2
633.962	1	7
634.132	1	4
634.301	1	0
634.471	1	-6
634.640	1	4
634.810	1	2
634.979	1	18
635.149	1	-4
635.319	1	2
635.488	1	9
635.658	1	-9
635.827	1	-4
635.997	1	4
636.166	1	-2
636.336	1	3
636.505	1	3
636.675	1	-2
636.845	1	10
637.014	1	-8
637.184	1	-7
637.353	1	8
637.523	1	-2
637.692	1	4
637.862	1	-16
638.031	1	8
638.201	1	-1
638.370	1	2
638.540	1	10
638.710	1	-1
638.879	1	-1
639.049	1	6
639.218	1	14
639.388	1	6
639.557	1	16
639.727	1	-6
639.896	1	8
640.066	1	-8
640.235	1	3
640.405	1	-2
640.574	1	0
640.744	1	4
640.914	1	6
641.083	1	-3
641.253	1	0
641.422	1	-10
641.592	1	-5
641.761	1	5
641.931	1	4
642.100	1	2
642.270	1	0
642.439	1	14
642.609	1	11
642.778	1	8
642.948	1	7
643.117	1	2
643.287	1	-3
643.456	1	9
643.626	1	4
643.795	1	5
643.965	1	-4
644.134	1	2
644.304	1	-7
644.473	1	13
644.643	1	4
644.812	1	-5
644.982	1	9
645.151	1	0
645.321	1	9
645.490	1	-3
645.660	1	5
645.829	1	0
645.999	1	-9
646.168	1	0
646.338	1	4
646.507	1	7
646.677	1	7
646.846	1	10
647.016	1	5
647.185	1	-1
647.355	1	4
647.524	1	0
647.694	1	3
647.863	1	-10
648.033	1	-10
648.202	1	-1
648.372	1	5
648.541	1	-1
648.711	1	8
648.880	1	0
649.050	1	-2
649.219	1	2
649.389	1	3
649.558	1	1
649.728	1	5
649.897	1	2
650.067	1	1
650.236	1	5
650.406	1	3
650.575	1	-3
650.745	1	-2
650.914	1	-2
651.084	1	7
651.253	1	1
651.423	1	4
651.592	1	0
651.762	1	11
651.931	1	0
652.101	1	11
652.270	1	0
652.440	1	4
652.609	1	-2
652.778	1	-1
652.948	1	-2
653.117	1	4
653.287	1	11
653.456	1	5
653.626	1	1
653.795	1	1
653.965	1	1
654.134	1	-1
654.304	1	7
654.473	1	13
654.643	1	11
654.812	1	10
654.982	1	-10
655.151	1	-1
655.320	1	-5
655.490	1	5
655.659	1	3
655.829	1	4
655.998	1	16
656.168	1	0
656.337	1	1
656.507	1	16
656.676	1	3
656.846	1	-8
657.015	1	4
657.184	1	-1
657.354	1	5
657.523	1	-2
657.693	1	3
657.862	1	3
658.032	1	14
658.201	1	0
658.371	1	-8
658.540	1	1
658.709	1	-7
658.879	1	-1
659.048	1	2
659.218	1	0
659.387	1	-2
659.557	1	1
659.726	1	3
659.895	1	4
660.065	1	7
660.234	1	14
660.404	1	8
660.573	1	-6
660.743	1	-6
660.912	1	-9
661.081	1	-2
661.251	1	-2
661.420	1	-7
661.590	1	-3
661.759	1	-1
661.929	1	4
662.098	1	-21
662.267	1	6
662.437	1	-3
662.606	1	5
662.776	1	0
662.945	1	-2
663.115	1	-6
663.284	1	5
663.453	1	3
663.623	1	0
663.792	1	4
663.962	1	-1
664.131	1	-15
664.300	1	1
664.470	1	2
664.639	1	-6
664.809	1	13
664.978	1	2
665.148	1	-9
665.317	1	-4
665.486	1	4
665.656	1	-4
665.825	1	7
665.995	1	7
666.164	1	5
666.333	1	14
666.503	1	-4
666.672	1	-2
666.842	1	8
667.011	1	13
667.180	1	3
667.350	1	9
667.519	1	-6
667.689	1	-5
667.858	1	11
668.027	1	-4
668.197	1	6
668.366	1	0
668.536	1	3
668.705	1	-7
668.874	1	3
669.044	1	-8
669.213	1	6
669.382	1	-12
669.552	1	1
669.721	1	-3
669.891	1	7
670.060	1	-5
670.229	1	-6
670.399	1	10
670.568	1	4
670.738	1	-9
670.907	1	-8
671.076	1	9
671.246	1	3
671.415	1	4
671.584	1	-1
671.754	1	-10
671.923	1	-12
672.093	1	5
672.262	1	8
672.431	1	6
672.601	1	-2
672.770	1	0
672.939	1	-11
673.109	1	1
673.278	1	5
673.448	1	-4
673.617	1	12
673.786	1	-2
