325.333	1	-5
325.504	1	2
325.675	1	7
325.846	1	-7
326.017	1	11
326.188	1	12
326.359	1	5
326.531	1	-5
326.702	1	3
326.873	1	6
327.044	1	-8
327.215	1	-1
327.386	1	3
327.557	1	5
327.728	1	0
327.899	1	-8
328.070	1	5
328.241	1	-1
328.412	1	12
328.583	1	-10
328.754	1	-1
328.926	1	6
329.097	1	1
329.268	1	1
329.439	1	1
329.610	1	4
329.781	1	0
329.952	1	13
330.123	1	0
330.294	1	12
330.465	1	0
330.636	1	5
330.807	1	-3
330.978	1	-1
331.149	1	10
331.320	1	1
331.492	1	0
331.663	1	-15
331.834	1	14
332.005	1	4
332.176	1	2
332.347	1	5
332.518	1	10
332.689	1	6
332.860	1	0
333.031	1	5
333.202	1	4
333.373	1	3
333.544	1	-3
333.715	1	5
333.886	1	-1
334.057	1	-7
334.228	1	-6
334.399	1	9
334.570	1	3
334.741	1	-1
334.912	1	0
335.084	1	-5
335.255	1	4
335.426	1	-7
335.597	1	-1
335.768	1	8
335.939	1	-5
336.110	1	2
336.281	1	6
336.452	1	-2
336.623	1	13
336.794	1	-2
336.965	1	1
337.136	1	-3
337.307	1	7
337.478	1	12
337.649	1	-2
337.820	1	8
337.991	1	9
338.162	1	3
338.333	1	1
338.504	1	2
338.675	1	9
338.846	1	0
339.017	1	8
339.188	1	-2
339.359	1	1
339.530	1	2
339.701	1	-1
339.872	1	5
340.043	1	-3
340.214	1	8
340.385	1	10
340.556	1	1
340.727	1	-6
340.898	1	-5
341.069	1	0
341.240	1	-4
341.411	1	2
341.582	1	-1
341.753	1	0
341.924	1	0
342.095	1	6
342.266	1	-4
342.437	1	3
342.608	1	-3
342.779	1	-2
342.950	1	1
343.121	1	11
343.292	1	0
343.463	1	-8
343.634	1	-7
343.805	1	17
343.976	1	1
344.147	1	4
344.318	1	-1
344.489	1	-5
344.660	1	18
344.831	1	-5
345.002	1	2
345.173	1	-6
345.344	1	-1
345.515	1	-8
345.686	1	3
345.857	1	-1
346.028	1	-3
346.199	1	0
346.370	1	4
346.541	1	-4
346.712	1	3
346.883	1	-2
347.054	1	8
347.225	1	0
347.396	1	1
347.567	1	6
347.738	1	10
347.909	1	9
348.080	1	-7
348.251	1	0
348.422	1	-5
348.593	1	6
348.764	1	1
348.935	1	10
349.106	1	10
349.277	1	-7
349.448	1	4
349.619	1	-7
349.790	1	1
349.961	1	-2
350.132	1	2
350.303	1	-2
350.474	1	-1
350.645	1	7
350.816	1	5
350.987	1	2
351.157	1	6
351.328	1	-4
351.499	1	2
351.670	1	12
351.841	1	5
352.012	1	-6
352.183	1	-3
352.354	1	-2
352.525	1	1
352.696	1	-4
352.867	1	-1
353.038	1	14
353.209	1	6
353.380	1	5
353.551	1	3
353.722	1	-1
353.893	1	-2
354.064	1	6
354.235	1	4
354.406	1	-5
354.576	1	1
354.747	1	-10
354.918	1	-10
355.089	1	-4
355.260	1	-6
355.431	1	9
355.602	1	15
355.773	1	-6
355.944	1	7
356.115	1	-8
356.286	1	13
356.457	1	-6
356.628	1	-1
356.799	1	1
356.970	1	-2
357.141	1	-1
357.311	1	3
357.482	1	0
357.653	1	1
357.824	1	4
357.995	1	1
358.166	1	-6
358.337	1	5
358.508	1	6
358.679	1	11
358.850	1	-7
359.021	1	-3
359.192	1	4
359.363	1	8
359.533	1	3
359.704	1	-3
359.875	1	-1
360.046	1	8
360.217	1	5
360.388	1	8
360.559	1	16
360.730	1	-6
360.901	1	5
361.072	1	2
361.243	1	-4
361.414	1	11
361.584	1	0
361.755	1	9
361.926	1	10
362.097	1	-4
362.268	1	7
362.439	1	0
362.610	1	-7
362.781	1	-6
362.952	1	4
363.123	1	7
363.293	1	0
363.464	1	12
363.635	1	1
363.806	1	-4
363.977	1	4
364.148	1	3
364.319	1	-2
364.490	1	-8
364.661	1	2
364.832	1	-2
365.002	1	-1
365.173	1	3
365.344	1	-3
365.515	1	-7
365.686	1	5
365.857	1	11
366.028	1	-5
366.199	1	0
366.370	1	1
366.540	1	13
366.711	1	5
366.882	1	4
367.053	1	3
367.224	1	2
367.395	1	7
367.566	1	-1
367.737	1	-6
367.908	1	2
368.078	1	4
368.249	1	0
368.420	1	-3
368.591	1	19
368.762	1	-2
368.933	1	8
369.104	1	5
369.274	1	-1
369.445	1	-3
369.616	1	-10
369.787	1	2
369.958	1	9
370.129	1	2
370.300	1	3
370.471	1	14
370.641	1	4
370.812	1	-2
370.983	1	-1
371.154	1	-1
371.325	1	-1
371.496	1	-4
371.667	1	-1
371.837	1	-10
372.008	1	3
372.179	1	4
372.350	1	2
372.521	1	1
372.692	1	1
372.863	1	-1
373.033	1	1
373.204	1	1
373.375	1	-1
373.546	1	0
373.717	1	5
373.888	1	3
374.059	1	4
374.229	1	-16
374.400	1	-5
374.571	1	0
374.742	1	6
374.913	1	-16
375.084	1	-8
375.254	1	-1
375.425	1	-1
375.596	1	-5
375.767	1	9
375.938	1	1
376.109	1	-3
376.279	1	-5
376.450	1	-6
376.621	1	12
376.792	1	-2
376.963	1	3
377.134	1	-5
377.304	1	11
377.475	1	11
377.646	1	2
377.817	1	2
377.988	1	6
378.159	1	5
378.329	1	1
378.500	1	-12
378.671	1	-6
378.842	1	-6
379.013	1	5
379.184	1	11
379.354	1	-1
379.525	1	-5
379.696	1	1
379.867	1	11
380.038	1	7
380.209	1	5
380.379	1	-7
380.550	1	-4
380.721	1	16
380.892	1	0
381.063	1	2
381.233	1	5
381.404	1	1
381.575	1	0
381.746	1	6
381.917	1	-4
382.087	1	-7
382.258	1	13
382.429	1	3
382.600	1	-1
382.771	1	0
382.941	1	-3
383.112	1	6
383.283	1	0
383.454	1	3
383.625	1	0
383.795	1	3
383.966	1	-2
384.137	1	6
384.308	1	3
384.479	1	9
384.649	1	-3
384.820	1	-1
384.991	1	1
385.162	1	4
385.333	1	-3
385.503	1	4
385.674	1	3
385.845	1	5
386.016	1	-4
386.187	1	13
386.357	1	1
386.528	1	12
386.699	1	3
386.870	1	6
387.041	1	-7
387.211	1	-9
387.382	1	5
387.553	1	10
387.724	1	-4
387.894	1	0
388.065	1	4
388.236	1	10
388.407	1	0
388.578	1	-2
388.748	1	11
388.919	1	5
389.090	1	2
389.261	1	-14
389.431	1	9
389.602	1	6
389.773	1	4
389.944	1	11
390.114	1	10
390.285	1	-3
390.456	1	-4
390.627	1	-9
390.798	1	2
390.968	1	-5
391.139	1	-14
391.310	1	9
391.481	1	-4
391.651	1	-1
391.822	1	12
391.993	1	6
392.164	1	-14
392.334	1	8
392.505	1	0
392.676	1	-5
392.847	1	3
393.017	1	-3
393.188	1	3
393.359	1	5
393.530	1	-1
393.700	1	8
393.871	1	-5
394.042	1	5
394.213	1	0
394.383	1	5
394.554	1	-3
394.725	1	-2
394.896	1	-9
395.066	1	0
395.237	1	5
395.408	1	4
395.579	1	5
395.749	1	17
395.920	1	7
396.091	1	5
396.262	1	6
396.432	1	-9
396.603	1	-1
396.774	1	-3
396.945	1	11
397.115	1	1
397.286	1	14
397.457	1	-2
397.627	1	-4
397.798	1	3
397.969	1	-6
398.140	1	7
398.310	1	-3
398.481	1	-3
398.652	1	13
398.823	1	16
398.993	1	2
399.164	1	9
399.335	1	-2
399.505	1	-4
399.676	1	0
399.847	1	6
400.018	1	-3
400.188	1	4
400.359	1	7
400.530	1	6
400.700	1	2
400.871	1	-16
401.042	1	-3
401.213	1	-5
401.383	1	2
401.554	1	6
401.725	1	-2
401.895	1	5
402.066	1	0
402.237	1	9
402.408	1	-1
402.578	1	11
402.749	1	-1
402.920	1	-9
403.090	1	-5
403.261	1	4
403.432	1	5
403.603	1	-1
403.773	1	-1
403.944	1	4
404.115	1	1
404.285	1	-2
404.456	1	-2
404.627	1	7
404.797	1	14
404.968	1	-3
405.139	1	2
405.310	1	5
405.480	1	6
405.651	1	0
405.822	1	6
405.992	1	5
406.163	1	8
406.334	1	3
406.504	1	-4
406.675	1	9
406.846	1	1
407.016	1	0
407.187	1	-1
407.358	1	-2
407.528	1	6
407.699	1	6
407.870	1	8
408.041	1	-8
408.211	1	4
408.382	1	5
408.553	1	3
408.723	1	-6
408.894	1	-11
409.065	1	10
409.235	1	2
409.406	1	9
409.577	1	3
409.747	1	-1
409.918	1	-2
410.089	1	4
410.259	1	-5
410.430	1	8
410.601	1	0
410.771	1	2
410.942	1	3
411.113	1	-4
411.283	1	7
411.454	1	-1
411.625	1	-4
411.795	1	5
411.966	1	-6
412.137	1	3
412.307	1	1
412.478	1	7
412.649	1	-6
412.819	1	3
412.990	1	12
413.161	1	-2
413.331	1	-5
413.502	1	3
413.672	1	9
413.843	1	2
414.014	1	-4
414.184	1	-5
414.355	1	-4
414.526	1	-1
414.696	1	-5
414.867	1	11
415.038	1	-1
415.208	1	2
415.379	1	8
415.550	1	5
415.720	1	4
415.891	1	4
416.062	1	0
416.232	1	6
416.403	1	3
416.573	1	-4
416.744	1	3
416.915	1	3
417.085	1	-3
417.256	1	2
417.427	1	4
417.597	1	-10
417.768	1	-3
417.939	1	-2
418.109	1	6
418.280	1	2
418.450	1	2
418.621	1	3
418.792	1	-2
418.962	1	-5
419.133	1	-2
419.304	1	3
419.474	1	0
419.645	1	10
419.815	1	-3
419.986	1	1
420.157	1	0
420.327	1	13
420.498	1	10
420.669	1	-4
420.839	1	11
421.010	1	7
421.180	1	12
421.351	1	5
421.522	1	5
421.692	1	3
421.863	1	-6
422.033	1	-2
422.204	1	-8
422.375	1	-4
422.545	1	14
422.716	1	3
422.886	1	1
423.057	1	2
423.228	1	-5
423.398	1	8
423.569	1	8
423.740	1	-9
423.910	1	-2
424.081	1	1
424.251	1	6
424.422	1	9
424.593	1	7
424.763	1	-4
424.934	1	-3
425.104	1	5
425.275	1	-7
425.445	1	3
425.616	1	0
425.787	1	-11
425.957	1	13
426.128	1	3
426.298	1	7
426.469	1	2
426.640	1	-2
426.810	1	9
426.981	1	-4
427.151	1	9
427.322	1	2
427.493	1	2
427.663	1	-11
427.834	1	-11
428.004	1	7
428.175	1	3
428.345	1	10
428.516	1	3
428.687	1	2
428.857	1	5
429.028	1	-6
429.198	1	-10
429.369	1	3
429.540	1	5
429.710	1	1
429.881	1	13
430.051	1	9
430.222	1	5
430.392	1	4
430.563	1	7
430.734	1	-4
430.904	1	-4
431.075	1	7
431.245	1	-1
431.416	1	2
431.586	1	3
431.757	1	-5
431.927	1	5
432.098	1	-5
432.269	1	-3
432.439	1	1
432.610	1	0
432.780	1	-5
432.951	1	-6
433.121	1	2
433.292	1	4
433.462	1	-3
433.633	1	-7
433.804	1	-8
433.974	1	-7
434.145	1	2
434.315	1	6
434.486	1	3
434.656	1	-5
434.827	1	-7
434.997	1	5
435.168	1	-3
435.339	1	-4
435.509	1	4
435.680	1	-12
435.850	1	6
436.021	1	9
436.191	1	-7
436.362	1	3
436.532	1	4
436.703	1	19
436.873	1	1
437.044	1	1
437.214	1	-1
437.385	1	-4
437.556	1	2
437.726	1	-3
437.897	1	-1
438.067	1	9
438.238	1	2
438.408	1	3
438.579	1	2
438.749	1	-6
438.920	1	6
439.090	1	13
439.261	1	0
439.431	1	-8
439.602	1	6
439.772	1	9
439.943	1	1
440.113	1	8
440.284	1	16
440.455	1	-4
440.625	1	-4
440.796	1	6
440.966	1	5
441.137	1	-6
441.307	1	0
441.478	1	12
441.648	1	-10
441.819	1	0
441.989	1	-6
442.160	1	1
442.330	1	7
442.501	1	-14
442.671	1	-3
442.842	1	3
443.012	1	4
443.183	1	-5
443.353	1	1
443.524	1	5
443.694	1	9
443.865	1	4
444.035	1	-6
444.206	1	8
444.376	1	-4
444.547	1	-3
444.717	1	13
444.888	1	0
445.058	1	1
445.229	1	-6
445.399	1	9
445.570	1	3
445.740	1	-7
445.911	1	12
446.081	1	-1
446.252	1	-2
446.422	1	0
446.593	1	6
446.763	1	9
446.934	1	12
447.104	1	-10
447.275	1	-4
447.445	1	-5
447.616	1	-12
447.786	1	2
447.957	1	9
448.127	1	-1
448.298	1	8
448.468	1	11
448.639	1	7
448.809	1	-1
448.979	1	-5
449.150	1	3
449.320	1	-7
449.491	1	-2
449.661	1	-5
449.832	1	-1
450.002	1	-2
450.173	1	3
450.343	1	4
450.514	1	6
450.684	1	-10
450.855	1	-1
451.025	1	5
451.196	1	-2
451.366	1	8
451.537	1	-7
451.707	1	4
451.878	1	-2
452.048	1	-1
452.218	1	3
452.389	1	1
452.559	1	-8
452.730	1	-5
452.900	1	1
453.071	1	1
453.241	1	-3
453.412	1	-1
453.582	1	9
453.753	1	-2
453.923	1	4
454.093	1	3
454.264	1	-3
454.434	1	3
454.605	1	6
454.775	1	3
454.946	1	5
455.116	1	-5
455.287	1	9
455.457	1	-9
455.628	1	1
455.798	1	-11
455.968	1	4
456.139	1	2
456.309	1	-7
456.480	1	-1
456.650	1	4
456.821	1	1
456.991	1	2
457.161	1	3
457.332	1	3
457.502	1	9
457.673	1	-6
457.843	1	8
458.014	1	0
458.184	1	6
458.355	1	-2
458.525	1	-2
458.695	1	0
458.866	1	-5
459.036	1	14
459.207	1	3
459.377	1	-3
459.548	1	-5
459.718	1	-3
459.888	1	3
460.059	1	7
460.229	1	1
460.400	1	11
460.570	1	-2
460.740	1	-2
460.911	1	9
461.081	1	3
461.252	1	-4
461.422	1	4
461.593	1	7
461.763	1	6
461.933	1	-6
462.104	1	-4
462.274	1	10
462.445	1	-4
462.615	1	-7
462.785	1	6
462.956	1	-2
463.126	1	-4
463.297	1	-8
463.467	1	2
463.638	1	4
463.808	1	3
463.978	1	6
464.149	1	-6
464.319	1	-1
464.490	1	-1
464.660	1	1
464.830	1	5
465.001	1	7
465.171	1	11
465.342	1	2
465.512	1	2
465.682	1	-4
465.853	1	4
466.023	1	7
466.194	1	6
466.364	1	12
466.534	1	-3
466.705	1	5
466.875	1	11
467.045	1	14
467.216	1	-5
467.386	1	-3
467.557	1	8
467.727	1	2
467.897	1	5
468.068	1	9
468.238	1	-7
468.409	1	3
468.579	1	9
468.749	1	2
468.920	1	-3
469.090	1	9
469.260	1	10
469.431	1	7
469.601	1	7
469.772	1	-7
469.942	1	7
470.112	1	7
470.283	1	7
470.453	1	3
470.623	1	7
470.794	1	5
470.964	1	-6
471.135	1	-15
471.305	1	-3
471.475	1	-3
471.646	1	10
471.816	1	2
471.986	1	8
472.157	1	2
472.327	1	-2
472.497	1	1
472.668	1	-1
472.838	1	5
473.009	1	-1
473.179	1	2
473.349	1	9
473.520	1	7
473.690	1	4
473.860	1	5
474.031	1	5
474.201	1	-8
474.371	1	5
474.542	1	-9
474.712	1	5
474.882	1	1
475.053	1	-11
475.223	1	8
475.394	1	9
475.564	1	20
475.734	1	0
475.905	1	3
476.075	1	-2
476.245	1	-9
476.416	1	-2
476.586	1	-5
476.756	1	-1
476.927	1	9
477.097	1	0
477.267	1	-6
477.438	1	6
477.608	1	11
477.778	1	11
477.949	1	9
478.119	1	6
478.289	1	1
478.460	1	-3
478.630	1	-5
478.800	1	-4
478.971	1	12
479.141	1	9
479.311	1	5
479.482	1	0
479.652	1	3
479.822	1	-15
479.993	1	0
480.163	1	-5
480.333	1	-1
480.504	1	4
480.674	1	1
480.844	1	1
481.015	1	-6
481.185	1	5
481.355	1	8
481.525	1	5
481.696	1	-3
481.866	1	4
482.036	1	-8
482.207	1	2
482.377	1	8
482.547	1	9
482.718	1	8
482.888	1	-8
483.058	1	5
483.229	1	2
483.399	1	1
483.569	1	9
483.740	1	-9
483.910	1	7
484.080	1	3
484.250	1	2
484.421	1	-4
484.591	1	7
484.761	1	1
484.932	1	8
485.102	1	5
485.272	1	12
485.443	1	1
485.613	1	0
485.783	1	5
485.953	1	-5
486.124	1	8
486.294	1	4
486.464	1	2
486.635	1	3
486.805	1	24
486.975	1	-1
487.146	1	-2
487.316	1	-2
487.486	1	9
487.656	1	-8
487.827	1	-1
487.997	1	12
488.167	1	6
488.338	1	15
488.508	1	4
488.678	1	9
488.848	1	-4
489.019	1	-7
489.189	1	-7
489.359	1	10
489.529	1	-7
489.700	1	9
489.870	1	-6
490.040	1	-4
490.211	1	8
490.381	1	-4
490.551	1	1
490.721	1	2
490.892	1	1
491.062	1	18
491.232	1	-1
491.402	1	-7
491.573	1	0
491.743	1	-17
491.913	1	9
492.084	1	4
492.254	1	5
492.424	1	2
492.594	1	1
492.765	1	10
492.935	1	1
493.105	1	22
493.275	1	14
493.446	1	-7
493.616	1	5
493.786	1	10
493.956	1	-3
494.127	1	-4
494.297	1	11
494.467	1	3
494.637	1	1
494.808	1	-1
494.978	1	4
495.148	1	-1
495.318	1	8
495.489	1	2
495.659	1	9
495.829	1	8
495.999	1	3
496.170	1	-4
496.340	1	4
496.510	1	5
496.680	1	4
496.851	1	5
497.021	1	5
497.191	1	5
497.361	1	1
497.532	1	2
497.702	1	-7
497.872	1	4
498.042	1	3
498.213	1	11
498.383	1	-6
498.553	1	10
498.723	1	4
498.894	1	0
499.064	1	14
499.234	1	-5
499.404	1	1
499.574	1	-4
499.745	1	6
499.915	1	-1
500.085	1	-8
500.255	1	9
500.426	1	7
500.596	1	-3
500.766	1	3
500.936	1	-8
501.106	1	4
501.277	1	3
501.447	1	-6
501.617	1	3
501.787	1	-5
501.958	1	-7
502.128	1	4
502.298	1	13
502.468	1	11
502.638	1	2
502.809	1	7
502.979	1	3
503.149	1	0
503.319	1	6
503.489	1	2
503.660	1	6
503.830	1	0
504.000	1	-2
504.170	1	7
504.340	1	5
504.511	1	7
504.681	1	-3
504.851	1	-5
505.021	1	4
505.192	1	10
505.362	1	0
505.532	1	-5
505.702	1	12
505.872	1	-5
506.043	1	8
506.213	1	7
506.383	1	-1
506.553	1	9
506.723	1	9
506.893	1	4
507.064	1	-9
507.234	1	1
507.404	1	-18
507.574	1	2
507.744	1	0
507.915	1	3
508.085	1	5
508.255	1	4
508.425	1	6
508.595	1	2
508.766	1	-3
508.936	1	5
509.106	1	-4
509.276	1	4
509.446	1	-7
509.616	1	11
509.787	1	-1
509.957	1	10
510.127	1	6
510.297	1	-6
510.467	1	-6
510.638	1	-9
510.808	1	-2
510.978	1	-9
511.148	1	14
511.318	1	0
511.488	1	10
511.659	1	5
511.829	1	3
511.999	1	10
512.169	1	-2
512.339	1	-4
512.509	1	9
512.680	1	8
512.850	1	4
513.020	1	6
513.190	1	-2
513.360	1	5
513.530	1	0
513.700	1	-3
513.871	1	3
514.041	1	-5
514.211	1	-9
514.381	1	9
514.551	1	4
514.721	1	10
514.892	1	2
515.062	1	9
515.232	1	3
515.402	1	2
515.572	1	-4
515.742	1	1
515.912	1	1
516.083	1	1
516.253	1	4
516.423	1	10
516.593	1	3
516.763	1	2
516.933	1	-4
517.104	1	3
517.274	1	-2
517.444	1	-2
517.614	1	0
517.784	1	4
517.954	1	-7
518.124	1	8
518.294	1	1
518.465	1	1
518.635	1	0
518.805	1	7
518.975	1	-2
519.145	1	0
519.315	1	-1
519.485	1	-10
519.656	1	-2
519.826	1	4
519.996	1	7
520.166	1	9
520.336	1	2
520.506	1	0
520.676	1	-1
520.846	1	-7
521.017	1	-11
521.187	1	-8
521.357	1	4
521.527	1	0
521.697	1	1
521.867	1	6
522.037	1	-4
522.207	1	-1
522.377	1	-5
522.548	1	-5
522.718	1	0
522.888	1	3
523.058	1	19
523.228	1	14
523.398	1	-1
523.568	1	-8
523.738	1	9
523.909	1	10
524.079	1	1
524.249	1	2
524.419	1	3
524.589	1	-2
524.759	1	-8
524.929	1	6
525.099	1	3
525.269	1	8
525.439	1	-9
525.610	1	6
525.780	1	8
525.950	1	-15
526.120	1	-8
526.290	1	0
526.460	1	2
526.630	1	4
526.800	1	0
526.970	1	6
527.140	1	-4
527.311	1	-3
527.481	1	0
527.651	1	13
527.821	1	-4
527.991	1	4
528.161	1	-1
528.331	1	8
528.501	1	-19
528.671	1	-2
528.841	1	-1
529.011	1	-3
529.181	1	5
529.352	1	-1
529.522	1	-1
529.692	1	11
529.862	1	1
530.032	1	6
530.202	1	6
530.372	1	-4
530.542	1	2
530.712	1	15
530.882	1	-3
531.052	1	5
531.222	1	-9
531.392	1	-2
531.563	1	5
531.733	1	11
531.903	1	0
532.073	1	3
532.243	1	-2
532.413	1	0
532.583	1	-6
532.753	1	7
532.923	1	9
533.093	1	12
533.263	1	-3
533.433	1	2
533.603	1	-3
533.773	1	-1
533.943	1	4
534.113	1	-2
534.284	1	-6
534.454	1	5
534.624	1	5
534.794	1	-2
534.964	1	-11
535.134	1	-3
535.304	1	14
535.474	1	0
535.644	1	6
535.814	1	4
535.984	1	4
536.154	1	-6
536.324	1	3
536.494	1	9
536.664	1	13
536.834	1	2
537.004	1	8
537.174	1	-2
537.344	1	2
537.514	1	4
537.685	1	-4
537.855	1	-2
538.025	1	7
538.195	1	4
538.365	1	5
538.535	1	12
538.705	1	-4
538.875	1	8
539.045	1	8
539.215	1	-6
539.385	1	-3
539.555	1	-4
539.725	1	15
539.895	1	3
540.065	1	-4
540.235	1	-12
540.405	1	7
540.575	1	6
540.745	1	-1
540.915	1	4
541.085	1	-2
541.255	1	-1
541.425	1	-1
541.595	1	1
541.765	1	3
541.935	1	12
542.105	1	10
542.275	1	-4
542.445	1	5
542.615	1	3
542.785	1	5
542.955	1	-1
543.125	1	5
543.295	1	8
543.465	1	13
543.635	1	-5
543.805	1	7
543.975	1	4
544.145	1	2
544.315	1	-6
544.485	1	0
544.655	1	4
544.825	1	19
544.995	1	11
545.165	1	-9
545.335	1	-2
545.505	1	-4
545.675	1	11
545.845	1	-2
546.015	1	5
546.185	1	-7
546.355	1	6
546.525	1	4
546.695	1	-5
546.865	1	-13
547.035	1	12
547.205	1	-7
547.375	1	4
547.545	1	9
547.715	1	1
547.885	1	-8
548.055	1	4
548.225	1	-7
548.395	1	2
548.565	1	2
548.735	1	5
548.905	1	-3
549.075	1	4
549.245	1	-2
549.415	1	-6
549.585	1	5
549.755	1	-2
549.925	1	9
550.095	1	4
550.265	1	-8
550.435	1	6
550.605	1	1
550.775	1	-2
550.945	1	9
551.115	1	-4
551.285	1	1
551.455	1	-4
551.625	1	0
551.795	1	-1
551.965	1	-11
552.135	1	-7
552.305	1	-5
552.475	1	-7
552.645	1	3
552.815	1	-8
552.985	1	1
553.155	1	10
553.325	1	8
553.495	1	-5
553.665	1	4
553.835	1	-2
554.004	1	1
554.174	1	0
554.344	1	1
554.514	1	5
554.684	1	4
554.854	1	5
555.024	1	0
555.194	1	10
555.364	1	6
555.534	1	7
555.704	1	3
555.874	1	-2
556.044	1	6
556.214	1	0
556.384	1	5
556.554	1	-6
556.724	1	-8
556.894	1	9
557.064	1	-1
557.234	1	-7
557.404	1	-11
557.573	1	3
557.743	1	0
557.913	1	-6
558.083	1	-6
558.253	1	6
558.423	1	-10
558.593	1	-9
558.763	1	0
558.933	1	10
559.103	1	0
559.273	1	-2
559.443	1	1
559.613	1	8
559.783	1	-2
559.953	1	-3
560.122	1	-5
560.292	1	3
560.462	1	-1
560.632	1	-3
560.802	1	10
560.972	1	10
561.142	1	8
561.312	1	0
561.482	1	-5
561.652	1	0
561.822	1	4
561.992	1	1
562.162	1	3
562.331	1	8
562.501	1	-2
562.671	1	3
562.841	1	-6
563.011	1	3
563.181	1	-1
563.351	1	1
563.521	1	5
563.691	1	-1
563.861	1	6
564.031	1	6
564.201	1	3
564.370	1	4
564.540	1	7
564.710	1	-8
564.880	1	-4
565.050	1	3
565.220	1	-4
565.390	1	-12
565.560	1	15
565.730	1	-2
565.900	1	-4
566.069	1	0
566.239	1	3
566.409	1	10
566.579	1	-3
566.749	1	5
566.919	1	8
567.089	1	1
567.259	1	8
567.429	1	6
567.599	1	-4
567.768	1	3
567.938	1	0
568.108	1	-3
568.278	1	-12
568.448	1	-5
568.618	1	-1
568.788	1	-1
568.958	1	6
569.128	1	9
569.297	1	3
569.467	1	-5
569.637	1	-9
569.807	1	-3
569.977	1	6
570.147	1	3
570.317	1	15
570.487	1	3
570.656	1	0
570.826	1	5
570.996	1	-4
571.166	1	-1
571.336	1	-4
571.506	1	5
571.676	1	7
571.846	1	8
572.015	1	-5
572.185	1	1
572.355	1	23
572.525	1	6
572.695	1	3
572.865	1	1
573.035	1	2
573.205	1	12
573.374	1	2
573.544	1	0
573.714	1	9
573.884	1	-5
574.054	1	0
574.224	1	3
574.394	1	-5
574.563	1	0
574.733	1	-1
574.903	1	1
575.073	1	-1
575.243	1	-8
575.413	1	-4
575.583	1	13
575.752	1	1
575.922	1	3
576.092	1	5
576.262	1	6
576.432	1	-1
576.602	1	6
576.772	1	3
576.941	1	0
577.111	1	-2
577.281	1	-9
577.451	1	-10
577.621	1	1
577.791	1	10
577.960	1	-1
578.130	1	-4
578.300	1	-5
578.470	1	5
578.640	1	-10
578.810	1	9
578.979	1	3
579.149	1	-2
579.319	1	8
579.489	1	6
579.659	1	11
579.829	1	4
579.998	1	2
580.168	1	1
580.338	1	-8
580.508	1	-1
580.678	1	6
580.848	1	-2
581.017	1	-1
581.187	1	5
581.357	1	-5
581.527	1	9
581.697	1	-11
581.867	1	3
582.036	1	8
582.206	1	-5
582.376	1	8
582.546	1	1
582.716	1	7
582.885	1	2
583.055	1	-13
583.225	1	-2
583.395	1	-3
583.565	1	11
583.735	1	-1
583.904	1	0
584.074	1	3
584.244	1	-3
584.414	1	-3
584.584	1	13
584.753	1	8
584.923	1	10
585.093	1	8
585.263	1	3
585.433	1	0
585.602	1	3
585.772	1	-1
585.942	1	5
586.112	1	3
586.282	1	0
586.451	1	8
586.621	1	6
586.791	1	-2
586.961	1	-1
587.131	1	1
587.300	1	6
587.470	1	-1
587.640	1	-6
587.810	1	6
587.980	1	3
588.149	1	3
588.319	1	2
588.489	1	9
588.659	1	-6
588.829	1	5
588.998	1	-3
589.168	1	0
589.338	1	-1
589.508	1	6
589.677	1	-9
589.847	1	9
590.017	1	-21
590.187	1	3
590.357	1	-13
590.526	1	0
590.696	1	1
590.866	1	4
591.036	1	4
591.205	1	2
591.375	1	-6
591.545	1	-6
591.715	1	-14
591.885	1	5
592.054	1	7
592.224	1	8
592.394	1	8
592.564	1	-8
592.733	1	2
592.903	1	-5
593.073	1	6
593.243	1	5
593.412	1	-2
593.582	1	10
593.752	1	-5
593.922	1	0
594.091	1	2
594.261	1	7
594.431	1	-6
594.601	1	-12
594.771	1	5
594.940	1	-12
595.110	1	6
595.280	1	0
595.450	1	3
595.619	1	3
595.789	1	11
595.959	1	11
596.129	1	2
596.298	1	5
596.468	1	-4
596.638	1	4
596.808	1	12
596.977	1	0
597.147	1	2
597.317	1	-1
597.487	1	-5
597.656	1	4
597.826	1	2
597.996	1	7
598.166	1	-7
598.335	1	2
598.505	1	2
598.675	1	-1
598.844	1	-5
599.014	1	-2
599.184	1	3
599.354	1	-6
599.523	1	1
599.693	1	9
599.863	1	7
600.033	1	-4
600.202	1	-6
600.372	1	0
600.542	1	-3
600.712	1	9
600.881	1	-2
601.051	1	9
601.221	1	-1
601.390	1	-5
601.560	1	-3
601.730	1	5
601.900	1	-2
602.069	1	-3
602.239	1	-6
602.409	1	3
602.578	1	5
602.748	1	3
602.918	1	-3
603.088	1	0
603.257	1	4
603.427	1	1
603.597	1	16
603.767	1	-4
603.936	1	7
604.106	1	3
604.276	1	-2
604.445	1	11
604.615	1	-2
604.785	1	6
604.954	1	9
605.124	1	-11
605.294	1	-3
605.464	1	-3
605.633	1	17
605.803	1	-6
605.973	1	8
606.142	1	6
606.312	1	-3
606.482	1	1
606.652	1	-4
606.821	1	8
606.991	1	1
607.161	1	-6
607.330	1	2
607.500	1	2
607.670	1	-4
607.839	1	0
608.009	1	-3
608.179	1	11
608.348	1	5
608.518	1	7
608.688	1	0
608.858	1	2
609.027	1	3
609.197	1	-8
609.367	1	-6
609.536	1	1
609.706	1	-4
609.876	1	-2
610.045	1	6
610.215	1	5
610.385	1	3
610.554	1	-4
610.724	1	2
610.894	1	7
611.063	1	12
611.233	1	-3
611.403	1	2
611.572	1	0
611.742	1	-9
611.912	1	-3
612.081	1	1
612.251	1	7
612.421	1	11
612.590	1	6
612.760	1	7
612.930	1	0
613.099	1	-13
613.269	1	-7
613.439	1	6
613.608	1	12
613.778	1	-3
613.948	1	7
614.117	1	9
614.287	1	1
614.457	1	0
614.626	1	1
614.796	1	1
614.966	1	3
615.135	1	-2
615.305	1	-1
615.475	1	13
615.644	1	-3
615.814	1	9
615.984	1	13
616.153	1	3
616.323	1	-4
616.493	1	-5
616.662	1	-5
616.832	1	1
617.002	1	-6
617.171	1	-7
617.341	1	5
617.511	1	-3
617.680	1	5
617.850	1	5
618.019	1	3
618.189	1	-7
618.359	1	6
618.528	1	-7
618.698	1	7
618.868	1	-4
619.037	1	9
619.207	1	-3
619.377	1	-11
619.546	1	3
619.716	1	-9
619.885	1	4
620.055	1	12
620.225	1	6
620.394	1	-7
620.564	1	-3
620.734	1	6
620.903	1	7
621.073	1	-2
621.242	1	-1
621.412	1	11
621.582	1	9
621.751	1	1
621.921	1	6
622.091	1	-1
622.260	1	-1
622.430	1	1
622.599	1	10
622.769	1	-1
622.939	1	7
623.108	1	-1
623.278	1	-6
623.448	1	-9
623.617	1	15
623.787	1	1
623.956	1	10
624.126	1	0
624.296	1	-2
624.465	1	-4
624.635	1	0
624.804	1	-2
624.974	1	-6
625.144	1	12
625.313	1	1
625.483	1	1
625.652	1	3
625.822	1	3
625.992	1	-8
626.161	1	2
626.331	1	1
626.501	1	3
626.670	1	5
626.840	1	7
627.009	1	-4
627.179	1	-2
627.348	1	11
627.518	1	-2
627.688	1	-1
627.857	1	10
628.027	1	-1
628.196	1	6
628.366	1	8
628.536	1	7
628.705	1	6
628.875	1	6
629.044	1	4
629.214	1	3
629.384	1	-18
629.553	1	4
629.723	1	13
629.892	1	10
630.062	1	8
630.232	1	7
630.401	1	-2
630.571	1	-6
630.740	1	4
630.910	1	-6
631.079	1	4
631.249	1	-3
631.419	1	5
631.588	1	-3
631.758	1	2
631.927	1	-3
632.097	1	11
632.266	1	-5
632.436	1	0
632.606	1	1
632.775	1	-11
632.945	1	-1
633.114	1	11
633.284	1	-7
633.453	1	-3
633.623	1	-5
633.793	1	9
633.962	1	-2
634.132	1	6
634.301	1	-3
634.471	1	-6
634.640	1	0
634.810	1	5
634.979	1	6
635.149	1	10
635.319	1	-1
635.488	1	5
635.658	1	-6
635.827	1	0
635.997	1	0
636.166	1	10
636.336	1	5
636.505	1	2
636.675	1	-5
636.845	1	5
637.014	1	-4
637.184	1	-4
637.353	1	7
637.523	1	2
637.692	1	3
637.862	1	-13
638.031	1	14
638.201	1	13
638.370	1	-2
638.540	1	3
638.710	1	0
638.879	1	0
639.049	1	8
639.218	1	5
639.388	1	5
639.557	1	11
639.727	1	4
639.896	1	-2
640.066	1	-1
640.235	1	0
640.405	1	5
640.574	1	2
640.744	1	0
640.914	1	3
641.083	1	2
641.253	1	4
641.422	1	3
641.592	1	1
641.761	1	2
641.931	1	5
642.100	1	-12
642.270	1	2
642.439	1	1
642.609	1	7
642.778	1	5
642.948	1	4
643.117	1	-4
643.287	1	5
643.456	1	1
643.626	1	9
643.795	1	0
643.965	1	-3
644.134	1	0
644.304	1	1
644.473	1	8
644.643	1	9
644.812	1	4
644.982	1	12
645.151	1	-8
645.321	1	12
645.490	1	3
645.660	1	-14
645.829	1	-5
645.999	1	-4
646.168	1	1
646.338	1	8
646.507	1	1
646.677	1	-4
646.846	1	16
647.016	1	-2
647.185	1	-4
647.355	1	0
647.524	1	0
647.694	1	-12
647.863	1	-5
648.033	1	-5
648.202	1	0
648.372	1	8
648.541	1	3
648.711	1	12
648.880	1	4
649.050	1	-1
649.219	1	0
649.389	1	5
649.558	1	-1
649.728	1	7
649.897	1	-7
650.067	1	2
650.236	1	13
650.406	1	3
650.575	1	8
650.745	1	-5
650.914	1	2
651.084	1	-11
651.253	1	5
651.423	1	6
651.592	1	-12
651.762	1	1
651.931	1	0
652.101	1	-1
652.270	1	1
652.440	1	12
652.609	1	9
652.778	1	-4
652.948	1	-4
653.117	1	-3
653.287	1	5
653.456	1	-2
653.626	1	4
653.795	1	3
653.965	1	15
654.134	1	9
654.304	1	12
654.473	1	7
654.643	1	13
654.812	1	-5
654.982	1	-16
655.151	1	2
655.320	1	-4
655.490	1	7
655.659	1	5
655.829	1	0
655.998	1	10
656.168	1	8
656.337	1	-4
656.507	1	10
656.676	1	-5
656.846	1	-4
657.015	1	2
657.184	1	6
657.354	1	2
657.523	1	0
657.693	1	-3
657.862	1	-11
658.032	1	7
658.201	1	5
658.371	1	-17
658.540	1	6
658.709	1	-6
658.879	1	4
659.048	1	5
659.218	1	-3
659.387	1	-4
659.557	1	-1
659.726	1	-4
659.895	1	0
660.065	1	0
660.234	1	-2
660.404	1	9
660.573	1	-7
660.743	1	-2
660.912	1	4
661.081	1	4
661.251	1	2
661.420	1	1
661.590	1	7
661.759	1	6
661.929	1	1
662.098	1	-2
662.267	1	10
662.437	1	6
662.606	1	-1
662.776	1	9
662.945	1	2
663.115	1	-2
663.284	1	1
663.453	1	2
663.623	1	0
663.792	1	0
663.962	1	-3
664.131	1	2
664.300	1	6
664.470	1	4
664.639	1	-2
664.809	1	4
664.978	1	-1
665.148	1	-1
665.317	1	-4
665.486	1	1
665.656	1	-6
665.825	1	7
665.995	1	7
666.164	1	9
666.333	1	9
666.503	1	-3
666.672	1	-12
666.842	1	2
667.011	1	7
667.180	1	0
667.350	1	3
667.519	1	3
667.689	1	9
667.858	1	14
668.027	1	-9
668.197	1	2
668.366	1	0
668.536	1	-2
668.705	1	-3
668.874	1	2
669.044	1	-3
669.213	1	1
669.382	1	-3
669.552	1	18
669.721	1	-6
669.891	1	6
670.060	1	-4
670.229	1	-1
670.399	1	-6
670.568	1	5
670.738	1	-10
670.907	1	-5
671.076	1	6
671.246	1	-2
671.415	1	5
671.584	1	-2
671.754	1	-18
671.923	1	-4
672.093	1	-5
672.262	1	4
672.431	1	-10
672.601	1	-2
672.770	1	5
672.939	1	-5
673.109	1	5
673.278	1	7
673.448	1	0
673.617	1	12
673.786	1	0
