325.333	1	-13
325.504	1	3
325.675	1	-8
325.846	1	-4
326.017	1	-2
326.188	1	3
326.359	1	15
326.531	1	-6
326.702	1	5
326.873	1	-6
327.044	1	-5
327.215	1	-4
327.386	1	-2
327.557	1	-1
327.728	1	-8
327.899	1	-7
328.070	1	0
328.241	1	1
328.412	1	10
328.583	1	0
328.754	1	-12
328.926	1	5
329.097	1	4
329.268	1	-2
329.439	1	2
329.610	1	-6
329.781	1	-5
329.952	1	11
330.123	1	-1
330.294	1	3
330.465	1	3
330.636	1	7
330.807	1	10
330.978	1	-7
331.149	1	6
331.320	1	-10
331.492	1	-6
331.663	1	-7
331.834	1	10
332.005	1	8
332.176	1	4
332.347	1	4
332.518	1	1
332.689	1	4
332.860	1	-9
333.031	1	8
333.202	1	-4
333.373	1	-8
333.544	1	-5
333.715	1	5
333.886	1	4
334.057	1	-9
334.228	1	-5
334.399	1	6
334.570	1	-1
334.741	1	-2
334.912	1	3
335.084	1	-15
335.255	1	0
335.426	1	0
335.597	1	-13
335.768	1	8
335.939	1	-2
336.110	1	-5
336.281	1	-12
336.452	1	4
336.623	1	10
336.794	1	-8
336.965	1	4
337.136	1	-5
337.307	1	3
337.478	1	9
337.649	1	8
337.820	1	12
337.991	1	7
338.162	1	7
338.333	1	1
338.504	1	-7
338.675	1	4
338.846	1	5
339.017	1	-5
339.188	1	5
339.359	1	-4
339.530	1	-2
339.701	1	-5
339.872	1	7
340.043	1	-5
340.214	1	1
340.385	1	-4
340.556	1	8
340.727	1	-1
340.898	1	10
341.069	1	-5
341.240	1	2
341.411	1	7
341.582	1	-11
341.753	1	-7
341.924	1	-3
342.095	1	5
342.266	1	-8
342.437	1	3
342.608	1	0
342.779	1	-1
342.950	1	3
343.121	1	4
343.292	1	6
343.463	1	3
343.634	1	-6
343.805	1	7
343.976	1	-1
344.147	1	0
344.318	1	-2
344.489	1	-3
344.660	1	15
344.831	1	-1
345.002	1	-3
345.173	1	-8
345.344	1	-4
345.515	1	6
345.686	1	3
345.857	1	-10
346.028	1	-7
346.199	1	-2
346.370	1	-2
346.541	1	7
346.712	1	-5
346.883	1	-2
347.054	1	2
347.225	1	-13
347.396	1	-6
347.567	1	-4
347.738	1	-1
347.909	1	1
348.080	1	6
348.251	1	-1
348.422	1	0
348.593	1	-10
348.764	1	7
348.935	1	12
349.106	1	-1
349.277	1	-8
349.448	1	-1
349.619	1	-5
349.790	1	-2
349.961	1	6
350.132	1	-1
350.303	1	-5
350.474	1	-7
350.645	1	1
350.816	1	-9
350.987	1	-6
351.157	1	8
351.328	1	-1
351.499	1	11
351.670	1	0
351.841	1	5
352.012	1	-11
352.183	1	-2
352.354	1	-4
352.525	1	6
352.696	1	-7
352.867	1	-5
353.038	1	10
353.209	1	5
353.380	1	6
353.551	1	-3
353.722	1	0
353.893	1	6
354.064	1	-3
354.235	1	1
354.406	1	-5
354.576	1	1
354.747	1	1
354.918	1	-9
355.089	1	-1
355.260	1	4
355.431	1	7
355.602	1	11
355.773	1	-6
355.944	1	4
356.115	1	-6
356.286	1	15
356.457	1	-5
356.628	1	2
356.799	1	3
356.970	1	0
357.141	1	-2
357.311	1	-3
357.482	1	5
357.653	1	0
357.824	1	-1
357.995	1	-1
358.166	1	4
358.337	1	5
358.508	1	-6
358.679	1	10
358.850	1	-4
359.021	1	-7
359.192	1	6
359.363	1	8
359.533	1	1
359.704	1	2
359.875	1	-6
360.046	1	-2
360.217	1	20
360.388	1	2
360.559	1	8
360.730	1	-2
360.901	1	6
361.072	1	-5
361.243	1	5
361.414	1	12
361.584	1	6
361.755	1	17
361.926	1	16
362.097	1	4
362.268	1	8
362.439	1	-1
362.610	1	2
362.781	1	7
362.952	1	12
363.123	1	6
363.293	1	-1
363.464	1	7
363.635	1	7
363.806	1	6
363.977	1	11
364.148	1	7
364.319	1	3
364.490	1	-3
364.661	1	11
364.832	1	-1
365.002	1	15
365.173	1	15
365.344	1	2
365.515	1	8
365.686	1	3
365.857	1	19
366.028	1	-3
366.199	1	12
366.370	1	11
366.540	1	8
366.711	1	14
366.882	1	3
367.053	1	16
367.224	1	6
367.395	1	14
367.566	1	11
367.737	1	7
367.908	1	-4
368.078	1	17
368.249	1	7
368.420	1	11
368.591	1	26
368.762	1	0
368.933	1	8
369.104	1	13
369.274	1	12
369.445	1	-4
369.616	1	-2
369.787	1	-1
369.958	1	8
370.129	1	7
370.300	1	-4
370.471	1	10
370.641	1	2
370.812	1	7
370.983	1	7
371.154	1	8
371.325	1	5
371.496	1	1
371.667	1	1
371.837	1	-3
372.008	1	4
372.179	1	3
372.350	1	1
372.521	1	7
372.692	1	4
372.863	1	0
373.033	1	7
373.204	1	12
373.375	1	4
373.546	1	4
373.717	1	7
373.888	1	6
374.059	1	3
374.229	1	0
374.400	1	4
374.571	1	6
374.742	1	1
374.913	1	3
375.084	1	0
375.254	1	11
375.425	1	6
375.596	1	-4
375.767	1	3
375.938	1	5
376.109	1	-7
376.279	1	2
376.450	1	3
376.621	1	11
376.792	1	0
376.963	1	11
377.134	1	-3
377.304	1	8
377.475	1	6
377.646	1	3
377.817	1	6
377.988	1	4
378.159	1	0
378.329	1	-1
378.500	1	-2
378.671	1	2
378.842	1	-4
379.013	1	0
379.184	1	10
379.354	1	2
379.525	1	12
379.696	1	-2
379.867	1	3
380.038	1	0
380.209	1	5
380.379	1	2
380.550	1	9
380.721	1	10
380.892	1	1
381.063	1	3
381.233	1	14
381.404	1	5
381.575	1	-10
381.746	1	10
381.917	1	0
382.087	1	-7
382.258	1	15
382.429	1	6
382.600	1	17
382.771	1	9
382.941	1	15
383.112	1	10
383.283	1	6
383.454	1	7
383.625	1	-3
383.795	1	28
383.966	1	10
384.137	1	13
384.308	1	16
384.479	1	22
384.649	1	22
384.820	1	5
384.991	1	12
385.162	1	10
385.333	1	23
385.503	1	14
385.674	1	15
385.845	1	18
386.016	1	12
386.187	1	24
386.357	1	16
386.528	1	25
386.699	1	22
386.870	1	28
387.041	1	13
387.211	1	20
387.382	1	22
387.553	1	21
387.724	1	16
387.894	1	22
388.065	1	11
388.236	1	21
388.407	1	19
388.578	1	14
388.748	1	20
388.919	1	8
389.090	1	33
389.261	1	-3
389.431	1	22
389.602	1	15
389.773	1	13
389.944	1	6
390.114	1	21
390.285	1	15
390.456	1	16
390.627	1	14
390.798	1	16
390.968	1	7
391.139	1	14
391.310	1	6
391.481	1	20
391.651	1	13
391.822	1	22
391.993	1	19
392.164	1	7
392.334	1	17
392.505	1	12
392.676	1	10
392.847	1	19
393.017	1	9
393.188	1	15
393.359	1	21
393.530	1	19
393.700	1	23
393.871	1	5
394.042	1	21
394.213	1	18
394.383	1	11
394.554	1	18
394.725	1	8
394.896	1	9
395.066	1	21
395.237	1	25
395.408	1	21
395.579	1	23
395.749	1	18
395.920	1	11
396.091	1	12
396.262	1	23
396.432	1	11
396.603	1	17
396.774	1	12
396.945	1	15
397.115	1	24
397.286	1	24
397.457	1	12
397.627	1	16
397.798	1	7
397.969	1	15
398.140	1	16
398.310	1	23
398.481	1	13
398.652	1	20
398.823	1	27
398.993	1	11
399.164	1	22
399.335	1	11
399.505	1	26
399.676	1	24
399.847	1	16
400.018	1	13
400.188	1	20
400.359	1	20
400.530	1	15
400.700	1	13
400.871	1	1
401.042	1	14
401.213	1	4
401.383	1	27
401.554	1	18
401.725	1	21
401.895	1	14
402.066	1	18
402.237	1	13
402.408	1	19
402.578	1	16
402.749	1	2
402.920	1	7
403.090	1	10
403.261	1	12
403.432	1	10
403.603	1	21
403.773	1	8
403.944	1	12
404.115	1	-8
404.285	1	11
404.456	1	11
404.627	1	16
404.797	1	29
404.968	1	11
405.139	1	7
405.310	1	13
405.480	1	20
405.651	1	10
405.822	1	10
405.992	1	1
406.163	1	19
406.334	1	14
406.504	1	8
406.675	1	16
406.846	1	5
407.016	1	2
407.187	1	5
407.358	1	1
407.528	1	11
407.699	1	14
407.870	1	19
408.041	1	11
408.211	1	8
408.382	1	16
408.553	1	14
408.723	1	5
408.894	1	2
409.065	1	13
409.235	1	-3
409.406	1	8
409.577	1	12
409.747	1	7
409.918	1	15
410.089	1	13
410.259	1	7
410.430	1	9
410.601	1	-1
410.771	1	10
410.942	1	17
411.113	1	6
411.283	1	-2
411.454	1	3
411.625	1	0
411.795	1	15
411.966	1	2
412.137	1	9
412.307	1	1
412.478	1	17
412.649	1	6
412.819	1	10
412.990	1	15
413.161	1	9
413.331	1	-4
413.502	1	14
413.672	1	9
413.843	1	7
414.014	1	5
414.184	1	-3
414.355	1	3
414.526	1	6
414.696	1	-2
414.867	1	17
415.038	1	4
415.208	1	2
415.379	1	11
415.550	1	11
415.720	1	6
415.891	1	11
416.062	1	9
416.232	1	-3
416.403	1	9
416.573	1	4
416.744	1	4
416.915	1	2
417.085	1	4
417.256	1	3
417.427	1	3
417.597	1	-2
417.768	1	10
417.939	1	2
418.109	1	13
418.280	1	3
418.450	1	-1
418.621	1	9
418.792	1	4
418.962	1	4
419.133	1	4
419.304	1	9
419.474	1	12
419.645	1	12
419.815	1	0
419.986	1	6
420.157	1	4
420.327	1	9
420.498	1	9
420.669	1	6
420.839	1	2
421.010	1	2
421.180	1	7
421.351	1	4
421.522	1	9
421.692	1	2
421.863	1	-1
422.033	1	8
422.204	1	-8
422.375	1	-3
422.545	1	2
422.716	1	1
422.886	1	14
423.057	1	5
423.228	1	-2
423.398	1	4
423.569	1	1
423.740	1	2
423.910	1	-12
424.081	1	2
424.251	1	0
424.422	1	5
424.593	1	17
424.763	1	10
424.934	1	4
425.104	1	10
425.275	1	-2
425.445	1	2
425.616	1	10
425.787	1	2
425.957	1	8
426.128	1	4
426.298	1	0
426.469	1	6
426.640	1	3
426.810	1	5
426.981	1	-10
427.151	1	5
427.322	1	1
427.493	1	9
427.663	1	-2
427.834	1	1
428.004	1	2
428.175	1	17
428.345	1	13
428.516	1	1
428.687	1	-3
428.857	1	-6
429.028	1	0
429.198	1	-7
429.369	1	2
429.540	1	13
429.710	1	2
429.881	1	13
430.051	1	10
430.222	1	1
430.392	1	2
430.563	1	10
430.734	1	-4
430.904	1	-1
431.075	1	8
431.245	1	16
431.416	1	4
431.586	1	3
431.757	1	-1
431.927	1	5
432.098	1	1
432.269	1	8
432.439	1	-8
432.610	1	-3
432.780	1	-1
432.951	1	5
433.121	1	8
433.292	1	6
433.462	1	12
433.633	1	-1
433.804	1	-9
433.974	1	-4
434.145	1	1
434.315	1	4
434.486	1	4
434.656	1	3
434.827	1	3
434.997	1	14
435.168	1	-3
435.339	1	4
435.509	1	5
435.680	1	-10
435.850	1	-7
436.021	1	8
436.191	1	3
436.362	1	-7
436.532	1	10
436.703	1	14
436.873	1	3
437.044	1	6
437.214	1	1
437.385	1	6
437.556	1	2
437.726	1	-1
437.897	1	3
438.067	1	0
438.238	1	-11
438.408	1	-1
438.579	1	4
438.749	1	6
438.920	1	2
439.090	1	20
439.261	1	-5
439.431	1	-3
439.602	1	-1
439.772	1	-2
439.943	1	2
440.113	1	3
440.284	1	7
440.455	1	-2
440.625	1	4
440.796	1	-1
440.966	1	9
441.137	1	-5
441.307	1	-14
441.478	1	-5
441.648	1	3
441.819	1	0
441.989	1	1
442.160	1	-2
442.330	1	9
442.501	1	-14
442.671	1	-8
442.842	1	13
443.012	1	9
443.183	1	-1
443.353	1	10
443.524	1	8
443.694	1	3
443.865	1	-1
444.035	1	2
444.206	1	1
444.376	1	6
444.547	1	-8
444.717	1	17
444.888	1	-10
445.058	1	1
445.229	1	5
445.399	1	11
445.570	1	10
445.740	1	2
445.911	1	12
446.081	1	8
446.252	1	-5
446.422	1	6
446.593	1	-2
446.763	1	5
446.934	1	6
447.104	1	-5
447.275	1	-3
447.445	1	-5
447.616	1	-2
447.786	1	4
447.957	1	4
448.127	1	6
448.298	1	7
448.468	1	12
448.639	1	10
448.809	1	-1
448.979	1	-1
449.150	1	4
449.320	1	8
449.491	1	-8
449.661	1	2
449.832	1	-7
450.002	1	-5
450.173	1	3
450.343	1	-6
450.514	1	5
450.684	1	-2
450.855	1	-1
451.025	1	2
451.196	1	0
451.366	1	10
451.537	1	-1
451.707	1	-1
451.878	1	-4
452.048	1	-1
452.218	1	2
452.389	1	-5
452.559	1	-6
452.730	1	5
452.900	1	4
453.071	1	5
453.241	1	-3
453.412	1	-2
453.582	1	10
453.753	1	-12
453.923	1	12
454.093	1	-2
454.264	1	-1
454.434	1	1
454.605	1	-6
454.775	1	2
454.946	1	5
455.116	1	-7
455.287	1	8
455.457	1	-3
455.628	1	-9
455.798	1	-7
455.968	1	3
456.139	1	1
456.309	1	2
456.480	1	0
456.650	1	1
456.821	1	-3
456.991	1	2
457.161	1	0
457.332	1	-3
457.502	1	16
457.673	1	4
457.843	1	6
458.014	1	-6
458.184	1	0
458.355	1	12
458.525	1	1
458.695	1	3
458.866	1	-3
459.036	1	5
459.207	1	4
459.377	1	0
459.548	1	-7
459.718	1	-1
459.888	1	7
460.059	1	-3
460.229	1	11
460.400	1	7
460.570	1	-3
460.740	1	-9
460.911	1	17
461.081	1	-13
461.252	1	3
461.422	1	3
461.593	1	0
461.763	1	9
461.933	1	-6
462.104	1	8
462.274	1	-6
462.445	1	-15
462.615	1	-9
462.785	1	-7
462.956	1	-9
463.126	1	-5
463.297	1	3
463.467	1	8
463.638	1	10
463.808	1	3
463.978	1	9
464.149	1	-9
464.319	1	-4
464.490	1	-4
464.660	1	-1
464.830	1	2
465.001	1	5
465.171	1	0
465.342	1	2
465.512	1	8
465.682	1	1
465.853	1	2
466.023	1	-1
466.194	1	5
466.364	1	4
466.534	1	-2
466.705	1	5
466.875	1	1
467.045	1	4
467.216	1	-6
467.386	1	7
467.557	1	-6
467.727	1	3
467.897	1	7
468.068	1	16
468.238	1	-11
468.409	1	-5
468.579	1	6
468.749	1	-3
468.920	1	1
469.090	1	9
469.260	1	9
469.431	1	2
469.601	1	5
469.772	1	-12
469.942	1	4
470.112	1	7
470.283	1	11
470.453	1	6
470.623	1	-8
470.794	1	0
470.964	1	-5
471.135	1	-10
471.305	1	-2
471.475	1	-7
471.646	1	0
471.816	1	10
471.986	1	-5
472.157	1	3
472.327	1	2
472.497	1	-2
472.668	1	-3
472.838	1	2
473.009	1	-3
473.179	1	7
473.349	1	0
473.520	1	2
473.690	1	8
473.860	1	8
474.031	1	5
474.201	1	-4
474.371	1	12
474.542	1	0
474.712	1	15
474.882	1	-5
475.053	1	-8
475.223	1	7
475.394	1	0
475.564	1	12
475.734	1	7
475.905	1	6
476.075	1	12
476.245	1	-2
476.416	1	-14
476.586	1	0
476.756	1	6
476.927	1	8
477.097	1	-1
477.267	1	-8
477.438	1	13
477.608	1	6
477.778	1	16
477.949	1	3
478.119	1	6
478.289	1	0
478.460	1	-3
478.630	1	-5
478.800	1	-3
478.971	1	5
479.141	1	2
479.311	1	3
479.482	1	-10
479.652	1	6
479.822	1	-3
479.993	1	0
480.163	1	-11
480.333	1	-5
480.504	1	-2
480.674	1	7
480.844	1	9
481.015	1	-12
481.185	1	11
481.355	1	14
481.525	1	1
481.696	1	1
481.866	1	3
482.036	1	-8
482.207	1	11
482.377	1	-9
482.547	1	-3
482.718	1	18
482.888	1	-9
483.058	1	1
483.229	1	1
483.399	1	9
483.569	1	6
483.740	1	-9
483.910	1	1
484.080	1	-4
484.250	1	9
484.421	1	7
484.591	1	9
484.761	1	-6
484.932	1	6
485.102	1	3
485.272	1	4
485.443	1	12
485.613	1	-14
485.783	1	13
485.953	1	4
486.124	1	11
486.294	1	0
486.464	1	1
486.635	1	4
486.805	1	13
486.975	1	-18
487.146	1	-3
487.316	1	12
487.486	1	-3
487.656	1	1
487.827	1	1
487.997	1	6
488.167	1	2
488.338	1	12
488.508	1	3
488.678	1	3
488.848	1	1
489.019	1	-7
489.189	1	-5
489.359	1	-2
489.529	1	-3
489.700	1	4
489.870	1	2
490.040	1	-2
490.211	1	8
490.381	1	3
490.551	1	5
490.721	1	10
490.892	1	-4
491.062	1	7
491.232	1	7
491.402	1	-1
491.573	1	-1
491.743	1	-17
491.913	1	100
492.084	1	35
492.254	1	-1
492.424	1	6
492.594	1	11
492.765	1	12
492.935	1	-2
493.105	1	7
493.275	1	9
493.446	1	-6
493.616	1	6
493.786	1	12
493.956	1	-1
494.127	1	-2
494.297	1	6
494.467	1	6
494.637	1	3
494.808	1	5
494.978	1	6
495.148	1	3
495.318	1	8
495.489	1	5
495.659	1	13
495.829	1	0
495.999	1	0
496.170	1	-2
496.340	1	5
496.510	1	11
496.680	1	3
496.851	1	18
497.021	1	4
497.191	1	-3
497.361	1	10
497.532	1	0
497.702	1	3
497.872	1	2
498.042	1	4
498.213	1	10
498.383	1	4
498.553	1	2
498.723	1	5
498.894	1	-6
499.064	1	18
499.234	1	6
499.404	1	-1
499.574	1	-3
499.745	1	3
499.915	1	1
500.085	1	3
500.255	1	17
500.426	1	0
500.596	1	5
500.766	1	4
500.936	1	5
501.106	1	11
501.277	1	6
501.447	1	5
501.617	1	12
501.787	1	0
501.958	1	8
502.128	1	-1
502.298	1	5
502.468	1	2
502.638	1	9
502.809	1	5
502.979	1	5
503.149	1	10
503.319	1	-1
503.489	1	2
503.660	1	-3
503.830	1	12
504.000	1	3
504.170	1	8
504.340	1	3
504.511	1	19
504.681	1	3
504.851	1	4
505.021	1	6
505.192	1	13
505.362	1	5
505.532	1	6
505.702	1	2
505.872	1	-3
506.043	1	6
506.213	1	13
506.383	1	1
506.553	1	24
506.723	1	2
506.893	1	-2
507.064	1	1
507.234	1	11
507.404	1	8
507.574	1	4
507.744	1	-10
507.915	1	13
508.085	1	11
508.255	1	2
508.425	1	6
508.595	1	8
508.766	1	0
508.936	1	10
509.106	1	-7
509.276	1	5
509.446	1	-7
509.616	1	8
509.787	1	2
509.957	1	9
510.127	1	14
510.297	1	5
510.467	1	3
510.638	1	-1
510.808	1	1
510.978	1	-9
511.148	1	21
511.318	1	7
511.488	1	15
511.659	1	1
511.829	1	12
511.999	1	16
512.169	1	1
512.339	1	7
512.509	1	18
512.680	1	13
512.850	1	-4
513.020	1	6
513.190	1	0
513.360	1	10
513.530	1	-8
513.700	1	4
513.871	1	16
514.041	1	5
514.211	1	-2
514.381	1	5
514.551	1	4
514.721	1	9
514.892	1	7
515.062	1	16
515.232	1	7
515.402	1	-1
515.572	1	-4
515.742	1	15
515.912	1	8
516.083	1	3
516.253	1	7
516.423	1	24
516.593	1	3
516.763	1	1
516.933	1	11
517.104	1	6
517.274	1	5
517.444	1	2
517.614	1	1
517.784	1	4
517.954	1	4
518.124	1	18
518.294	1	12
518.465	1	6
518.635	1	3
518.805	1	1
518.975	1	12
519.145	1	11
519.315	1	12
519.485	1	6
519.656	1	5
519.826	1	15
519.996	1	18
520.166	1	12
520.336	1	5
520.506	1	19
520.676	1	0
520.846	1	7
521.017	1	-1
521.187	1	8
521.357	1	-1
521.527	1	8
521.697	1	10
521.867	1	11
522.037	1	12
522.207	1	-4
522.377	1	9
522.548	1	-1
522.718	1	2
522.888	1	0
523.058	1	32
523.228	1	20
523.398	1	11
523.568	1	-2
523.738	1	5
523.909	1	14
524.079	1	6
524.249	1	8
524.419	1	8
524.589	1	15
524.759	1	13
524.929	1	4
525.099	1	1
525.269	1	16
525.439	1	6
525.610	1	4
525.780	1	13
525.950	1	6
526.120	1	-1
526.290	1	-1
526.460	1	12
526.630	1	10
526.800	1	11
526.970	1	3
527.140	1	-4
527.311	1	18
527.481	1	14
527.651	1	11
527.821	1	0
527.991	1	5
528.161	1	16
528.331	1	9
528.501	1	-3
528.671	1	6
528.841	1	14
529.011	1	13
529.181	1	14
529.352	1	9
529.522	1	6
529.692	1	16
529.862	1	9
530.032	1	0
530.202	1	15
530.372	1	9
530.542	1	11
530.712	1	20
530.882	1	2
531.052	1	7
531.222	1	-1
531.392	1	2
531.563	1	7
531.733	1	14
531.903	1	21
532.073	1	3
532.243	1	2
532.413	1	14
532.583	1	1
532.753	1	8
532.923	1	0
533.093	1	16
533.263	1	10
533.433	1	11
533.603	1	14
533.773	1	2
533.943	1	4
534.113	1	10
534.284	1	5
534.454	1	8
534.624	1	10
534.794	1	11
534.964	1	8
535.134	1	5
535.304	1	18
535.474	1	8
535.644	1	-1
535.814	1	10
535.984	1	7
536.154	1	0
536.324	1	17
536.494	1	7
536.664	1	10
536.834	1	12
537.004	1	20
537.174	1	17
537.344	1	2
537.514	1	27
537.685	1	6
537.855	1	17
538.025	1	1
538.195	1	13
538.365	1	7
538.535	1	24
538.705	1	2
538.875	1	12
539.045	1	16
539.215	1	-7
539.385	1	8
539.555	1	1
539.725	1	5
539.895	1	9
540.065	1	9
540.235	1	7
540.405	1	7
540.575	1	11
540.745	1	4
540.915	1	11
541.085	1	4
541.255	1	0
541.425	1	6
541.595	1	4
541.765	1	7
541.935	1	20
542.105	1	15
542.275	1	3
542.445	1	17
542.615	1	10
542.785	1	3
542.955	1	17
543.125	1	1
543.295	1	13
543.465	1	16
543.635	1	2
543.805	1	6
543.975	1	12
544.145	1	0
544.315	1	6
544.485	1	-3
544.655	1	6
544.825	1	10
544.995	1	13
545.165	1	11
545.335	1	11
545.505	1	13
545.675	1	10
545.845	1	5
546.015	1	10
546.185	1	5
546.355	1	7
546.525	1	17
546.695	1	9
546.865	1	10
547.035	1	7
547.205	1	0
547.375	1	16
547.545	1	6
547.715	1	9
547.885	1	8
548.055	1	16
548.225	1	2
548.395	1	3
548.565	1	13
548.735	1	17
548.905	1	8
549.075	1	-9
549.245	1	7
549.415	1	8
549.585	1	3
549.755	1	9
549.925	1	4
550.095	1	11
550.265	1	3
550.435	1	9
550.605	1	10
550.775	1	8
550.945	1	9
551.115	1	-5
551.285	1	8
551.455	1	8
551.625	1	8
551.795	1	6
551.965	1	-1
552.135	1	12
552.305	1	10
552.475	1	3
552.645	1	14
552.815	1	14
552.985	1	8
553.155	1	8
553.325	1	20
553.495	1	6
553.665	1	11
553.835	1	9
554.004	1	9
554.174	1	4
554.344	1	-4
554.514	1	7
554.684	1	1
554.854	1	12
555.024	1	12
555.194	1	14
555.364	1	6
555.534	1	12
555.704	1	13
555.874	1	-1
556.044	1	7
556.214	1	5
556.384	1	12
556.554	1	2
556.724	1	-3
556.894	1	8
557.064	1	7
557.234	1	13
557.404	1	4
557.573	1	1
557.743	1	12
557.913	1	3
558.083	1	-6
558.253	1	6
558.423	1	-8
558.593	1	-2
558.763	1	13
558.933	1	9
559.103	1	4
559.273	1	4
559.443	1	4
559.613	1	2
559.783	1	9
559.953	1	0
560.122	1	5
560.292	1	2
560.462	1	9
560.632	1	9
560.802	1	10
560.972	1	17
561.142	1	11
561.312	1	-3
561.482	1	4
561.652	1	13
561.822	1	9
561.992	1	11
562.162	1	6
562.331	1	0
562.501	1	2
562.671	1	11
562.841	1	2
563.011	1	8
563.181	1	-1
563.351	1	-4
563.521	1	14
563.691	1	1
563.861	1	13
564.031	1	-1
564.201	1	9
564.370	1	6
564.540	1	20
564.710	1	4
564.880	1	6
565.050	1	4
565.220	1	0
565.390	1	-4
565.560	1	5
565.730	1	-1
565.900	1	-1
566.069	1	13
566.239	1	1
566.409	1	15
566.579	1	-1
566.749	1	15
566.919	1	5
567.089	1	9
567.259	1	-4
567.429	1	3
567.599	1	2
567.768	1	4
567.938	1	3
568.108	1	-3
568.278	1	-3
568.448	1	-3
568.618	1	8
568.788	1	-2
568.958	1	-3
569.128	1	8
569.297	1	3
569.467	1	2
569.637	1	6
569.807	1	-2
569.977	1	2
570.147	1	12
570.317	1	13
570.487	1	11
570.656	1	-2
570.826	1	14
570.996	1	-1
571.166	1	-9
571.336	1	5
571.506	1	-2
571.676	1	12
571.846	1	12
572.015	1	-11
572.185	1	-5
572.355	1	16
572.525	1	3
572.695	1	6
572.865	1	6
573.035	1	12
573.205	1	17
573.374	1	7
573.544	1	3
573.714	1	11
573.884	1	3
574.054	1	4
574.224	1	-8
574.394	1	2
574.563	1	6
574.733	1	2
574.903	1	3
575.073	1	2
575.243	1	-9
575.413	1	5
575.583	1	4
575.752	1	-1
575.922	1	-2
576.092	1	12
576.262	1	4
576.432	1	-7
576.602	1	6
576.772	1	6
576.941	1	9
577.111	1	5
577.281	1	6
577.451	1	3
577.621	1	-4
577.791	1	7
577.960	1	-3
578.130	1	1
578.300	1	3
578.470	1	-3
578.640	1	3
578.810	1	12
578.979	1	11
579.149	1	-1
579.319	1	5
579.489	1	4
579.659	1	2
579.829	1	9
579.998	1	-2
580.168	1	8
580.338	1	-14
580.508	1	-3
580.678	1	0
580.848	1	6
581.017	1	5
581.187	1	7
581.357	1	-4
581.527	1	6
581.697	1	-11
581.867	1	-1
582.036	1	9
582.206	1	7
582.376	1	9
582.546	1	1
582.716	1	5
582.885	1	4
583.055	1	2
583.225	1	0
583.395	1	4
583.565	1	14
583.735	1	2
583.904	1	5
584.074	1	9
584.244	1	14
584.414	1	4
584.584	1	9
584.753	1	1
584.923	1	6
585.093	1	12
585.263	1	-4
585.433	1	-2
585.602	1	-3
585.772	1	-1
585.942	1	1
586.112	1	13
586.282	1	-2
586.451	1	1
586.621	1	-1
586.791	1	12
586.961	1	5
587.131	1	-5
587.300	1	-10
587.470	1	7
587.640	1	0
587.810	1	-3
587.980	1	5
588.149	1	-3
588.319	1	8
588.489	1	14
588.659	1	-9
588.829	1	10
588.998	1	1
589.168	1	1
589.338	1	-1
589.508	1	1
589.677	1	-3
589.847	1	11
590.017	1	-7
590.187	1	-4
590.357	1	-5
590.526	1	3
590.696	1	12
590.866	1	-2
591.036	1	8
591.205	1	-2
591.375	1	1
591.545	1	-13
591.715	1	-5
591.885	1	7
592.054	1	-1
592.224	1	8
592.394	1	8
592.564	1	-12
592.733	1	3
592.903	1	0
593.073	1	13
593.243	1	-9
593.412	1	-2
593.582	1	8
593.752	1	-7
593.922	1	2
594.091	1	9
594.261	1	6
594.431	1	-3
594.601	1	-4
594.771	1	14
594.940	1	0
595.110	1	0
595.280	1	-3
595.450	1	5
595.619	1	8
595.789	1	3
595.959	1	4
596.129	1	2
596.298	1	16
596.468	1	-4
596.638	1	5
596.808	1	7
596.977	1	-7
597.147	1	9
597.317	1	10
597.487	1	-4
597.656	1	4
597.826	1	-4
597.996	1	13
598.166	1	-6
598.335	1	1
598.505	1	2
598.675	1	0
598.844	1	-8
599.014	1	2
599.184	1	4
599.354	1	-6
599.523	1	-2
599.693	1	2
599.863	1	7
600.033	1	1
600.202	1	1
600.372	1	0
600.542	1	1
600.712	1	9
600.881	1	9
601.051	1	10
601.221	1	10
601.390	1	-10
601.560	1	-2
601.730	1	5
601.900	1	5
602.069	1	0
602.239	1	-7
602.409	1	1
602.578	1	5
602.748	1	4
602.918	1	-10
603.088	1	12
603.257	1	-1
603.427	1	3
603.597	1	10
603.767	1	-5
603.936	1	0
604.106	1	7
604.276	1	1
604.445	1	5
604.615	1	0
604.785	1	6
604.954	1	6
605.124	1	-5
605.294	1	2
605.464	1	-4
605.633	1	5
605.803	1	4
605.973	1	-3
606.142	1	4
606.312	1	-3
606.482	1	-4
606.652	1	-14
606.821	1	7
606.991	1	-2
607.161	1	3
607.330	1	11
607.500	1	7
607.670	1	-1
607.839	1	1
608.009	1	-11
608.179	1	10
608.348	1	-3
608.518	1	3
608.688	1	2
608.858	1	10
609.027	1	8
609.197	1	-5
609.367	1	-2
609.536	1	8
609.706	1	1
609.876	1	-3
610.045	1	9
610.215	1	-7
610.385	1	-5
610.554	1	3
610.724	1	11
610.894	1	12
611.063	1	10
611.233	1	-8
611.403	1	8
611.572	1	0
611.742	1	5
611.912	1	-8
612.081	1	-7
612.251	1	2
612.421	1	10
612.590	1	1
612.760	1	5
612.930	1	7
613.099	1	-3
613.269	1	5
613.439	1	-1
613.608	1	5
613.778	1	-3
613.948	1	7
614.117	1	10
614.287	1	-4
614.457	1	2
614.626	1	1
614.796	1	5
614.966	1	1
615.135	1	0
615.305	1	1
615.475	1	16
615.644	1	-8
615.814	1	5
615.984	1	1
616.153	1	6
616.323	1	-5
616.493	1	0
616.662	1	2
616.832	1	-5
617.002	1	2
617.171	1	-3
617.341	1	5
617.511	1	2
617.680	1	-1
617.850	1	-2
618.019	1	-2
618.189	1	0
618.359	1	-1
618.528	1	-6
618.698	1	-1
618.868	1	10
619.037	1	4
619.207	1	12
619.377	1	-4
619.546	1	13
619.716	1	-9
619.885	1	4
620.055	1	7
620.225	1	10
620.394	1	-8
620.564	1	1
620.734	1	-1
620.903	1	5
621.073	1	-4
621.242	1	-6
621.412	1	0
621.582	1	1
621.751	1	-2
621.921	1	-6
622.091	1	-1
622.260	1	0
622.430	1	-3
622.599	1	14
622.769	1	-2
622.939	1	0
623.108	1	8
623.278	1	6
623.448	1	-8
623.617	1	-1
623.787	1	1
623.956	1	12
624.126	1	-4
624.296	1	1
624.465	1	7
624.635	1	4
624.804	1	-6
624.974	1	2
625.144	1	10
625.313	1	4
625.483	1	3
625.652	1	7
625.822	1	4
625.992	1	-11
626.161	1	5
626.331	1	9
626.501	1	4
626.670	1	7
626.840	1	8
627.009	1	-7
627.179	1	-1
627.348	1	-3
627.518	1	5
627.688	1	3
627.857	1	14
628.027	1	4
628.196	1	10
628.366	1	16
628.536	1	-2
628.705	1	2
628.875	1	1
629.044	1	5
629.214	1	-2
629.384	1	-10
629.553	1	-5
629.723	1	15
629.892	1	-1
630.062	1	4
630.232	1	13
630.401	1	-1
630.571	1	-6
630.740	1	11
630.910	1	-4
631.079	1	9
631.249	1	-3
631.419	1	7
631.588	1	-5
631.758	1	8
631.927	1	-1
632.097	1	8
632.266	1	-11
632.436	1	-5
632.606	1	-2
632.775	1	-6
632.945	1	3
633.114	1	2
633.284	1	0
633.453	1	-4
633.623	1	-4
633.793	1	8
633.962	1	7
634.132	1	9
634.301	1	-3
634.471	1	-9
634.640	1	0
634.810	1	3
634.979	1	7
635.149	1	3
635.319	1	5
635.488	1	0
635.658	1	-6
635.827	1	-4
635.997	1	5
636.166	1	1
636.336	1	-1
636.505	1	-1
636.675	1	1
636.845	1	10
637.014	1	-9
637.184	1	5
637.353	1	13
637.523	1	-7
637.692	1	7
637.862	1	-10
638.031	1	19
638.201	1	4
638.370	1	2
638.540	1	-1
638.710	1	9
638.879	1	-1
639.049	1	10
639.218	1	-1
639.388	1	1
639.557	1	4
639.727	1	1
639.896	1	-5
640.066	1	7
640.235	1	11
640.405	1	-7
640.574	1	-1
640.744	1	0
640.914	1	-7
641.083	1	-2
641.253	1	1
641.422	1	-9
641.592	1	4
641.761	1	3
641.931	1	3
642.100	1	-5
642.270	1	6
642.439	1	-6
642.609	1	1
642.778	1	-3
642.948	1	3
643.117	1	0
643.287	1	10
643.456	1	5
643.626	1	7
643.795	1	-5
643.965	1	-2
644.134	1	-4
644.304	1	-8
644.473	1	14
644.643	1	2
644.812	1	8
644.982	1	5
645.151	1	-8
645.321	1	12
645.490	1	8
645.660	1	-10
645.829	1	-7
645.999	1	0
646.168	1	-6
646.338	1	6
646.507	1	2
646.677	1	-5
646.846	1	10
647.016	1	4
647.185	1	-3
647.355	1	-2
647.524	1	15
647.694	1	0
647.863	1	-7
648.033	1	-15
648.202	1	7
648.372	1	1
648.541	1	-9
648.711	1	4
648.880	1	-1
649.050	1	1
649.219	1	3
649.389	1	5
649.558	1	3
649.728	1	2
649.897	1	-10
650.067	1	-4
650.236	1	6
650.406	1	3
650.575	1	8
650.745	1	-8
650.914	1	0
651.084	1	-4
651.253	1	-1
651.423	1	1
651.592	1	6
651.762	1	9
651.931	1	5
652.101	1	1
652.270	1	2
652.440	1	8
652.609	1	6
652.778	1	-4
652.948	1	9
653.117	1	-2
653.287	1	7
653.456	1	-3
653.626	1	1
653.795	1	1
653.965	1	10
654.134	1	6
654.304	1	8
654.473	1	5
654.643	1	20
654.812	1	1
654.982	1	-11
655.151	1	-2
655.320	1	-2
655.490	1	4
655.659	1	2
655.829	1	-1
655.998	1	6
656.168	1	-2
656.337	1	-7
656.507	1	8
656.676	1	0
656.846	1	-2
657.015	1	5
657.184	1	0
657.354	1	0
657.523	1	-9
657.693	1	-5
657.862	1	5
658.032	1	3
658.201	1	6
658.371	1	-4
658.540	1	-1
658.709	1	-5
658.879	1	-1
659.048	1	11
659.218	1	-1
659.387	1	-2
659.557	1	1
659.726	1	-2
659.895	1	4
660.065	1	6
660.234	1	3
660.404	1	5
660.573	1	-9
660.743	1	-2
660.912	1	-2
661.081	1	4
661.251	1	11
661.420	1	-9
661.590	1	3
661.759	1	2
661.929	1	6
662.098	1	-15
662.267	1	17
662.437	1	5
662.606	1	5
662.776	1	2
662.945	1	6
663.115	1	-7
663.284	1	-8
663.453	1	-4
663.623	1	1
663.792	1	1
663.962	1	-5
664.131	1	-6
664.300	1	1
664.470	1	-1
664.639	1	-3
664.809	1	0
664.978	1	-7
665.148	1	-4
665.317	1	0
665.486	1	0
665.656	1	0
665.825	1	7
665.995	1	4
666.164	1	-8
666.333	1	9
666.503	1	2
666.672	1	-16
666.842	1	2
667.011	1	5
667.180	1	4
667.350	1	-1
667.519	1	7
667.689	1	-1
667.858	1	-5
668.027	1	-10
668.197	1	-4
668.366	1	4
668.536	1	-2
668.705	1	2
668.874	1	-5
669.044	1	-2
669.213	1	2
669.382	1	-7
669.552	1	11
669.721	1	-3
669.891	1	5
670.060	1	3
670.229	1	2
670.399	1	8
670.568	1	-3
670.738	1	-9
670.907	1	-5
671.076	1	9
671.246	1	8
671.415	1	0
671.584	1	6
671.754	1	-1
671.923	1	-4
672.093	1	-5
672.262	1	6
672.431	1	0
672.601	1	-4
672.770	1	2
672.939	1	-1
673.109	1	3
673.278	1	6
673.448	1	1
673.617	1	2
673.786	1	-7
