325.333	1	2
325.504	1	8
325.675	1	-1
325.846	1	0
326.017	1	-6
326.188	1	5
326.359	1	5
326.531	1	1
326.702	1	1
326.873	1	-2
327.044	1	-5
327.215	1	-7
327.386	1	-5
327.557	1	3
327.728	1	-9
327.899	1	-8
328.070	1	4
328.241	1	5
328.412	1	5
328.583	1	-9
328.754	1	-9
328.926	1	2
329.097	1	9
329.268	1	-7
329.439	1	5
329.610	1	-8
329.781	1	1
329.952	1	5
330.123	1	6
330.294	1	7
330.465	1	0
330.636	1	10
330.807	1	-3
330.978	1	-7
331.149	1	2
331.320	1	9
331.492	1	-5
331.663	1	-10
331.834	1	12
332.005	1	8
332.176	1	-6
332.347	1	0
332.518	1	4
332.689	1	2
332.860	1	-5
333.031	1	0
333.202	1	2
333.373	1	7
333.544	1	-1
333.715	1	8
333.886	1	-10
334.057	1	-1
334.228	1	-9
334.399	1	1
334.570	1	-7
334.741	1	-5
334.912	1	-3
335.084	1	-4
335.255	1	1
335.426	1	3
335.597	1	1
335.768	1	3
335.939	1	-5
336.110	1	-8
336.281	1	-11
336.452	1	-2
336.623	1	-2
336.794	1	-12
336.965	1	0
337.136	1	-5
337.307	1	12
337.478	1	0
337.649	1	8
337.820	1	10
337.991	1	10
338.162	1	-6
338.333	1	-5
338.504	1	-8
338.675	1	-3
338.846	1	5
339.017	1	2
339.188	1	4
339.359	1	-5
339.530	1	8
339.701	1	-6
339.872	1	-1
340.043	1	-3
340.214	1	-8
340.385	1	2
340.556	1	-2
340.727	1	-1
340.898	1	1
341.069	1	1
341.240	1	-5
341.411	1	12
341.582	1	1
341.753	1	-4
341.924	1	-5
342.095	1	10
342.266	1	-3
342.437	1	2
342.608	1	-3
342.779	1	0
342.950	1	-5
343.121	1	3
343.292	1	-2
343.463	1	-6
343.634	1	-5
343.805	1	8
343.976	1	7
344.147	1	2
344.318	1	7
344.489	1	-14
344.660	1	10
344.831	1	-13
345.002	1	-2
345.173	1	-2
345.344	1	-5
345.515	1	-3
345.686	1	0
345.857	1	-12
346.028	1	-5
346.199	1	1
346.370	1	2
346.541	1	-10
346.712	1	-9
346.883	1	7
347.054	1	-5
347.225	1	-5
347.396	1	3
347.567	1	1
347.738	1	2
347.909	1	-2
348.080	1	0
348.251	1	9
348.422	1	-5
348.593	1	-1
348.764	1	-4
348.935	1	-6
349.106	1	2
349.277	1	-2
349.448	1	-8
349.619	1	-16
349.790	1	-1
349.961	1	4
350.132	1	2
350.303	1	-9
350.474	1	0
350.645	1	-2
350.816	1	-8
350.987	1	-4
351.157	1	8
351.328	1	-1
351.499	1	6
351.670	1	7
351.841	1	2
352.012	1	-12
352.183	1	-4
352.354	1	-2
352.525	1	3
352.696	1	-9
352.867	1	1
353.038	1	16
353.209	1	7
353.380	1	-3
353.551	1	1
353.722	1	3
353.893	1	-10
354.064	1	7
354.235	1	-2
354.406	1	-8
354.576	1	0
354.747	1	0
354.918	1	-10
355.089	1	-2
355.260	1	1
355.431	1	6
355.602	1	3
355.773	1	-1
355.944	1	1
356.115	1	-3
356.286	1	5
356.457	1	2
356.628	1	-3
356.799	1	-7
356.970	1	-5
357.141	1	-2
357.311	1	1
357.482	1	-5
357.653	1	-2
357.824	1	1
357.995	1	1
358.166	1	3
358.337	1	0
358.508	1	2
358.679	1	11
358.850	1	-3
359.021	1	1
359.192	1	-6
359.363	1	2
359.533	1	-2
359.704	1	2
359.875	1	-2
360.046	1	-6
360.217	1	7
360.388	1	1
360.559	1	2
360.730	1	-1
360.901	1	1
361.072	1	-5
361.243	1	4
361.414	1	11
361.584	1	4
361.755	1	12
361.926	1	12
362.097	1	1
362.268	1	6
362.439	1	-6
362.610	1	-8
362.781	1	-8
362.952	1	13
363.123	1	13
363.293	1	-2
363.464	1	9
363.635	1	0
363.806	1	12
363.977	1	3
364.148	1	0
364.319	1	5
364.490	1	1
364.661	1	1
364.832	1	-6
365.002	1	6
365.173	1	5
365.344	1	8
365.515	1	7
365.686	1	2
365.857	1	4
366.028	1	-2
366.199	1	4
366.370	1	6
366.540	1	3
366.711	1	13
366.882	1	2
367.053	1	12
367.224	1	14
367.395	1	3
367.566	1	9
367.737	1	1
367.908	1	4
368.078	1	7
368.249	1	4
368.420	1	3
368.591	1	24
368.762	1	-9
368.933	1	9
369.104	1	2
369.274	1	0
369.445	1	1
369.616	1	2
369.787	1	1
369.958	1	10
370.129	1	7
370.300	1	-9
370.471	1	14
370.641	1	1
370.812	1	2
370.983	1	5
371.154	1	-3
371.325	1	1
371.496	1	-6
371.667	1	7
371.837	1	-10
372.008	1	8
372.179	1	9
372.350	1	0
372.521	1	1
372.692	1	-1
372.863	1	3
373.033	1	-6
373.204	1	9
373.375	1	1
373.546	1	1
373.717	1	4
373.888	1	7
374.059	1	10
374.229	1	-4
374.400	1	-1
374.571	1	3
374.742	1	-3
374.913	1	-5
375.084	1	-5
375.254	1	9
375.425	1	3
375.596	1	-5
375.767	1	4
375.938	1	14
376.109	1	-3
376.279	1	-4
376.450	1	3
376.621	1	14
376.792	1	-3
376.963	1	11
377.134	1	-4
377.304	1	5
377.475	1	8
377.646	1	-4
377.817	1	13
377.988	1	-1
378.159	1	2
378.329	1	-5
378.500	1	-7
378.671	1	-2
378.842	1	-9
379.013	1	-3
379.184	1	4
379.354	1	3
379.525	1	1
379.696	1	-3
379.867	1	8
380.038	1	11
380.209	1	4
380.379	1	0
380.550	1	-1
380.721	1	10
380.892	1	0
381.063	1	3
381.233	1	3
381.404	1	6
381.575	1	-2
381.746	1	12
381.917	1	-1
382.087	1	3
382.258	1	8
382.429	1	10
382.600	1	4
382.771	1	5
382.941	1	11
383.112	1	2
383.283	1	2
383.454	1	-3
383.625	1	3
383.795	1	18
383.966	1	2
384.137	1	9
384.308	1	10
384.479	1	21
384.649	1	5
384.820	1	-7
384.991	1	17
385.162	1	2
385.333	1	19
385.503	1	14
385.674	1	9
385.845	1	16
386.016	1	6
386.187	1	21
386.357	1	7
386.528	1	15
386.699	1	30
386.870	1	19
387.041	1	8
387.211	1	8
387.382	1	9
387.553	1	16
387.724	1	7
387.894	1	14
388.065	1	17
388.236	1	24
388.407	1	12
388.578	1	10
388.748	1	18
388.919	1	10
389.090	1	17
389.261	1	-5
389.431	1	9
389.602	1	17
389.773	1	11
389.944	1	1
390.114	1	12
390.285	1	19
390.456	1	12
390.627	1	1
390.798	1	14
390.968	1	-1
391.139	1	3
391.310	1	14
391.481	1	12
391.651	1	14
391.822	1	16
391.993	1	18
392.164	1	5
392.334	1	13
392.505	1	4
392.676	1	12
392.847	1	5
393.017	1	8
393.188	1	4
393.359	1	20
393.530	1	12
393.700	1	18
393.871	1	5
394.042	1	7
394.213	1	8
394.383	1	1
394.554	1	10
394.725	1	9
394.896	1	9
395.066	1	13
395.237	1	16
395.408	1	9
395.579	1	22
395.749	1	13
395.920	1	10
396.091	1	10
396.262	1	13
396.432	1	2
396.603	1	15
396.774	1	3
396.945	1	9
397.115	1	22
397.286	1	25
397.457	1	8
397.627	1	8
397.798	1	0
397.969	1	5
398.140	1	6
398.310	1	15
398.481	1	-3
398.652	1	17
398.823	1	13
398.993	1	11
399.164	1	15
399.335	1	12
399.505	1	11
399.676	1	24
399.847	1	7
400.018	1	10
400.188	1	17
400.359	1	8
400.530	1	21
400.700	1	14
400.871	1	1
401.042	1	6
401.213	1	13
401.383	1	8
401.554	1	14
401.725	1	4
401.895	1	8
402.066	1	7
402.237	1	7
402.408	1	2
402.578	1	5
402.749	1	4
402.920	1	0
403.090	1	14
403.261	1	12
403.432	1	1
403.603	1	7
403.773	1	0
403.944	1	11
404.115	1	3
404.285	1	7
404.456	1	0
404.627	1	12
404.797	1	14
404.968	1	15
405.139	1	3
405.310	1	5
405.480	1	15
405.651	1	2
405.822	1	11
405.992	1	3
406.163	1	18
406.334	1	5
406.504	1	4
406.675	1	15
406.846	1	1
407.016	1	2
407.187	1	9
407.358	1	3
407.528	1	15
407.699	1	8
407.870	1	13
408.041	1	10
408.211	1	4
408.382	1	8
408.553	1	13
408.723	1	-1
408.894	1	-1
409.065	1	12
409.235	1	-3
409.406	1	15
409.577	1	14
409.747	1	6
409.918	1	8
410.089	1	2
410.259	1	4
410.430	1	20
410.601	1	4
410.771	1	3
410.942	1	10
411.113	1	6
411.283	1	8
411.454	1	-4
411.625	1	-2
411.795	1	3
411.966	1	-6
412.137	1	7
412.307	1	3
412.478	1	12
412.649	1	9
412.819	1	6
412.990	1	11
413.161	1	5
413.331	1	-3
413.502	1	16
413.672	1	-2
413.843	1	0
414.014	1	2
414.184	1	5
414.355	1	-3
414.526	1	5
414.696	1	-4
414.867	1	9
415.038	1	0
415.208	1	-2
415.379	1	14
415.550	1	16
415.720	1	0
415.891	1	5
416.062	1	7
416.232	1	11
416.403	1	0
416.573	1	3
416.744	1	4
416.915	1	5
417.085	1	6
417.256	1	1
417.427	1	6
417.597	1	-8
417.768	1	5
417.939	1	-3
418.109	1	10
418.280	1	-3
418.450	1	10
418.621	1	7
418.792	1	7
418.962	1	7
419.133	1	-5
419.304	1	13
419.474	1	-5
419.645	1	22
419.815	1	-5
419.986	1	14
420.157	1	-5
420.327	1	13
420.498	1	7
420.669	1	6
420.839	1	1
421.010	1	12
421.180	1	-7
421.351	1	1
421.522	1	1
421.692	1	0
421.863	1	-6
422.033	1	-2
422.204	1	-9
422.375	1	0
422.545	1	12
422.716	1	-4
422.886	1	8
423.057	1	-6
423.228	1	-14
423.398	1	2
423.569	1	4
423.740	1	-3
423.910	1	-4
424.081	1	6
424.251	1	0
424.422	1	13
424.593	1	5
424.763	1	-1
424.934	1	2
425.104	1	7
425.275	1	-4
425.445	1	-4
425.616	1	9
425.787	1	-10
425.957	1	11
426.128	1	2
426.298	1	8
426.469	1	1
426.640	1	2
426.810	1	8
426.981	1	-2
427.151	1	1
427.322	1	6
427.493	1	11
427.663	1	3
427.834	1	1
428.004	1	14
428.175	1	3
428.345	1	13
428.516	1	14
428.687	1	1
428.857	1	-7
429.028	1	3
429.198	1	-5
429.369	1	8
429.540	1	12
429.710	1	-6
429.881	1	1
430.051	1	11
430.222	1	-1
430.392	1	1
430.563	1	9
430.734	1	3
430.904	1	-3
431.075	1	12
431.245	1	-1
431.416	1	0
431.586	1	6
431.757	1	2
431.927	1	1
432.098	1	-3
432.269	1	2
432.439	1	-2
432.610	1	4
432.780	1	-3
432.951	1	5
433.121	1	8
433.292	1	6
433.462	1	-2
433.633	1	5
433.804	1	-6
433.974	1	-11
434.145	1	-6
434.315	1	3
434.486	1	-1
434.656	1	-7
434.827	1	-4
434.997	1	4
435.168	1	-4
435.339	1	12
435.509	1	5
435.680	1	-4
435.850	1	3
436.021	1	2
436.191	1	-3
436.362	1	2
436.532	1	5
436.703	1	5
436.873	1	2
437.044	1	0
437.214	1	-1
437.385	1	3
437.556	1	-9
437.726	1	-5
437.897	1	0
438.067	1	-2
438.238	1	3
438.408	1	3
438.579	1	9
438.749	1	10
438.920	1	0
439.090	1	2
439.261	1	5
439.431	1	-2
439.602	1	0
439.772	1	7
439.943	1	1
440.113	1	6
440.284	1	8
440.455	1	4
440.625	1	5
440.796	1	4
440.966	1	7
441.137	1	-9
441.307	1	-4
441.478	1	5
441.648	1	-10
441.819	1	6
441.989	1	2
442.160	1	7
442.330	1	8
442.501	1	-9
442.671	1	9
442.842	1	4
443.012	1	4
443.183	1	-7
443.353	1	1
443.524	1	3
443.694	1	11
443.865	1	0
444.035	1	2
444.206	1	9
444.376	1	9
444.547	1	-1
444.717	1	11
444.888	1	-10
445.058	1	3
445.229	1	-4
445.399	1	10
445.570	1	5
445.740	1	2
445.911	1	6
446.081	1	7
446.252	1	-9
446.422	1	2
446.593	1	3
446.763	1	11
446.934	1	-1
447.104	1	-7
447.275	1	-14
447.445	1	-7
447.616	1	5
447.786	1	-3
447.957	1	5
448.127	1	0
448.298	1	10
448.468	1	8
448.639	1	9
448.809	1	3
448.979	1	6
449.150	1	-3
449.320	1	0
449.491	1	-10
449.661	1	-2
449.832	1	-3
450.002	1	-4
450.173	1	-3
450.343	1	-4
450.514	1	2
450.684	1	2
450.855	1	0
451.025	1	3
451.196	1	7
451.366	1	10
451.537	1	-3
451.707	1	7
451.878	1	-3
452.048	1	2
452.218	1	0
452.389	1	-6
452.559	1	-6
452.730	1	2
452.900	1	-2
453.071	1	5
453.241	1	-6
453.412	1	-6
453.582	1	9
453.753	1	-5
453.923	1	7
454.093	1	4
454.264	1	-7
454.434	1	4
454.605	1	3
454.775	1	6
454.946	1	5
455.116	1	-6
455.287	1	8
455.457	1	-5
455.628	1	6
455.798	1	-6
455.968	1	10
456.139	1	4
456.309	1	-4
456.480	1	-3
456.650	1	-4
456.821	1	6
456.991	1	-1
457.161	1	9
457.332	1	-3
457.502	1	-3
457.673	1	-4
457.843	1	16
458.014	1	0
458.184	1	8
458.355	1	5
458.525	1	-4
458.695	1	0
458.866	1	-10
459.036	1	-2
459.207	1	10
459.377	1	1
459.548	1	-2
459.718	1	-5
459.888	1	0
460.059	1	4
460.229	1	10
460.400	1	2
460.570	1	-3
460.740	1	-2
460.911	1	6
461.081	1	2
461.252	1	-2
461.422	1	-5
461.593	1	-5
461.763	1	-2
461.933	1	-5
462.104	1	-3
462.274	1	3
462.445	1	-9
462.615	1	6
462.785	1	-4
462.956	1	-1
463.126	1	-9
463.297	1	3
463.467	1	13
463.638	1	10
463.808	1	0
463.978	1	0
464.149	1	-4
464.319	1	2
464.490	1	8
464.660	1	0
464.830	1	-9
465.001	1	11
465.171	1	2
465.342	1	-1
465.512	1	3
465.682	1	0
465.853	1	0
466.023	1	-4
466.194	1	9
466.364	1	2
466.534	1	4
466.705	1	6
466.875	1	9
467.045	1	5
467.216	1	-4
467.386	1	6
467.557	1	2
467.727	1	5
467.897	1	3
468.068	1	16
468.238	1	-8
468.409	1	6
468.579	1	3
468.749	1	5
468.920	1	-2
469.090	1	4
469.260	1	9
469.431	1	2
469.601	1	1
469.772	1	-6
469.942	1	-1
470.112	1	-1
470.283	1	16
470.453	1	-3
470.623	1	2
470.794	1	4
470.964	1	-7
471.135	1	-10
471.305	1	3
471.475	1	3
471.646	1	11
471.816	1	-4
471.986	1	1
472.157	1	1
472.327	1	2
472.497	1	-1
472.668	1	2
472.838	1	12
473.009	1	4
473.179	1	9
473.349	1	0
473.520	1	7
473.690	1	6
473.860	1	-3
474.031	1	0
474.201	1	-8
474.371	1	3
474.542	1	-1
474.712	1	3
474.882	1	2
475.053	1	-2
475.223	1	6
475.394	1	8
475.564	1	12
475.734	1	-2
475.905	1	3
476.075	1	1
476.245	1	1
476.416	1	-8
476.586	1	2
476.756	1	4
476.927	1	7
477.097	1	-8
477.267	1	-7
477.438	1	-5
477.608	1	0
477.778	1	10
477.949	1	6
478.119	1	1
478.289	1	-1
478.460	1	-6
478.630	1	-4
478.800	1	-1
478.971	1	7
479.141	1	4
479.311	1	-5
479.482	1	-9
479.652	1	-2
479.822	1	-3
479.993	1	11
480.163	1	-9
480.333	1	-4
480.504	1	-2
480.674	1	-2
480.844	1	6
481.015	1	-6
481.185	1	5
481.355	1	6
481.525	1	3
481.696	1	0
481.866	1	4
482.036	1	-6
482.207	1	8
482.377	1	3
482.547	1	-2
482.718	1	12
482.888	1	-8
483.058	1	-10
483.229	1	4
483.399	1	3
483.569	1	6
483.740	1	-12
483.910	1	7
484.080	1	-5
484.250	1	9
484.421	1	4
484.591	1	10
484.761	1	-1
484.932	1	1
485.102	1	3
485.272	1	11
485.443	1	18
485.613	1	-13
485.783	1	11
485.953	1	-5
486.124	1	7
486.294	1	8
486.464	1	0
486.635	1	12
486.805	1	4
486.975	1	-12
487.146	1	0
487.316	1	9
487.486	1	-2
487.656	1	-4
487.827	1	11
487.997	1	5
488.167	1	0
488.338	1	19
488.508	1	5
488.678	1	4
488.848	1	-2
489.019	1	2
489.189	1	0
489.359	1	-2
489.529	1	0
489.700	1	-6
489.870	1	-3
490.040	1	-3
490.211	1	11
490.381	1	-3
490.551	1	-3
490.721	1	8
490.892	1	9
491.062	1	11
491.232	1	4
491.402	1	-6
491.573	1	1
491.743	1	-16
491.913	1	1
492.084	1	3
492.254	1	-3
492.424	1	0
492.594	1	-1
492.765	1	9
492.935	1	-1
493.105	1	10
493.275	1	-1
493.446	1	-4
493.616	1	-1
493.786	1	0
493.956	1	9
494.127	1	1
494.297	1	2
494.467	1	3
494.637	1	-5
494.808	1	10
494.978	1	15
495.148	1	11
495.318	1	11
495.489	1	12
495.659	1	-1
495.829	1	5
495.999	1	-1
496.170	1	-7
496.340	1	-5
496.510	1	-4
496.680	1	7
496.851	1	8
497.021	1	-6
497.191	1	3
497.361	1	-3
497.532	1	-7
497.702	1	-7
497.872	1	6
498.042	1	9
498.213	1	9
498.383	1	-9
498.553	1	0
498.723	1	3
498.894	1	-7
499.064	1	5
499.234	1	-2
499.404	1	4
499.574	1	-1
499.745	1	6
499.915	1	7
500.085	1	0
500.255	1	-2
500.426	1	-1
500.596	1	-1
500.766	1	3
500.936	1	-4
501.106	1	2
501.277	1	1
501.447	1	4
501.617	1	11
501.787	1	-7
501.958	1	-2
502.128	1	-1
502.298	1	4
502.468	1	14
502.638	1	3
502.809	1	1
502.979	1	-3
503.149	1	2
503.319	1	6
503.489	1	3
503.660	1	-8
503.830	1	5
504.000	1	6
504.170	1	1
504.340	1	-1
504.511	1	0
504.681	1	3
504.851	1	-1
505.021	1	-5
505.192	1	4
505.362	1	8
505.532	1	-6
505.702	1	4
505.872	1	0
506.043	1	5
506.213	1	-2
506.383	1	4
506.553	1	13
506.723	1	-4
506.893	1	1
507.064	1	-7
507.234	1	7
507.404	1	-2
507.574	1	-3
507.744	1	-8
507.915	1	10
508.085	1	17
508.255	1	6
508.425	1	9
508.595	1	5
508.766	1	2
508.936	1	-6
509.106	1	2
509.276	1	3
509.446	1	3
509.616	1	4
509.787	1	5
509.957	1	5
510.127	1	7
510.297	1	-9
510.467	1	-4
510.638	1	1
510.808	1	2
510.978	1	0
511.148	1	8
511.318	1	6
511.488	1	-3
511.659	1	14
511.829	1	-1
511.999	1	10
512.169	1	5
512.339	1	6
512.509	1	11
512.680	1	6
512.850	1	-4
513.020	1	1
513.190	1	3
513.360	1	8
513.530	1	0
513.700	1	8
513.871	1	2
514.041	1	1
514.211	1	-2
514.381	1	11
514.551	1	1
514.721	1	7
514.892	1	-2
515.062	1	5
515.232	1	4
515.402	1	7
515.572	1	0
515.742	1	11
515.912	1	12
516.083	1	-4
516.253	1	2
516.423	1	13
516.593	1	1
516.763	1	7
516.933	1	3
517.104	1	14
517.274	1	3
517.444	1	8
517.614	1	2
517.784	1	-2
517.954	1	-2
518.124	1	11
518.294	1	-2
518.465	1	7
518.635	1	-1
518.805	1	1
518.975	1	3
519.145	1	12
519.315	1	10
519.485	1	-4
519.656	1	2
519.826	1	0
519.996	1	14
520.166	1	5
520.336	1	6
520.506	1	7
520.676	1	4
520.846	1	-4
521.017	1	-7
521.187	1	-1
521.357	1	0
521.527	1	2
521.697	1	13
521.867	1	10
522.037	1	-3
522.207	1	1
522.377	1	5
522.548	1	-3
522.718	1	12
522.888	1	2
523.058	1	28
523.228	1	9
523.398	1	10
523.568	1	-3
523.738	1	3
523.909	1	9
524.079	1	6
524.249	1	6
524.419	1	-1
524.589	1	17
524.759	1	4
524.929	1	3
525.099	1	-2
525.269	1	17
525.439	1	-6
525.610	1	7
525.780	1	5
525.950	1	3
526.120	1	-1
526.290	1	2
526.460	1	1
526.630	1	8
526.800	1	9
526.970	1	-2
527.140	1	-7
527.311	1	0
527.481	1	13
527.651	1	9
527.821	1	8
527.991	1	8
528.161	1	6
528.331	1	12
528.501	1	-4
528.671	1	11
528.841	1	6
529.011	1	9
529.181	1	0
529.352	1	6
529.522	1	-4
529.692	1	6
529.862	1	7
530.032	1	1
530.202	1	0
530.372	1	-1
530.542	1	14
530.712	1	21
530.882	1	-2
531.052	1	14
531.222	1	-9
531.392	1	9
531.563	1	11
531.733	1	20
531.903	1	7
532.073	1	11
532.243	1	6
532.413	1	15
532.583	1	-1
532.753	1	3
532.923	1	3
533.093	1	14
533.263	1	1
533.433	1	8
533.603	1	8
533.773	1	4
533.943	1	-1
534.113	1	10
534.284	1	3
534.454	1	12
534.624	1	8
534.794	1	3
534.964	1	-5
535.134	1	5
535.304	1	10
535.474	1	-1
535.644	1	3
535.814	1	11
535.984	1	1
536.154	1	10
536.324	1	-2
536.494	1	9
536.664	1	5
536.834	1	6
537.004	1	15
537.174	1	10
537.344	1	10
537.514	1	8
537.685	1	0
537.855	1	11
538.025	1	10
538.195	1	8
538.365	1	16
538.535	1	7
538.705	1	-4
538.875	1	2
539.045	1	8
539.215	1	-7
539.385	1	5
539.555	1	3
539.725	1	1
539.895	1	-5
540.065	1	1
540.235	1	1
540.405	1	1
540.575	1	12
540.745	1	11
540.915	1	3
541.085	1	-4
541.255	1	-5
541.425	1	-5
541.595	1	-1
541.765	1	9
541.935	1	10
542.105	1	11
542.275	1	1
542.445	1	14
542.615	1	0
542.785	1	0
542.955	1	7
543.125	1	-1
543.295	1	4
543.465	1	15
543.635	1	5
543.805	1	14
543.975	1	12
544.145	1	7
544.315	1	-2
544.485	1	5
544.655	1	2
544.825	1	8
544.995	1	8
545.165	1	3
545.335	1	11
545.505	1	2
545.675	1	6
545.845	1	-2
546.015	1	1
546.185	1	-3
546.355	1	10
546.525	1	16
546.695	1	-3
546.865	1	-6
547.035	1	9
547.205	1	3
547.375	1	6
547.545	1	0
547.715	1	1
547.885	1	-3
548.055	1	6
548.225	1	-4
548.395	1	8
548.565	1	8
548.735	1	11
548.905	1	-6
549.075	1	2
549.245	1	5
549.415	1	1
549.585	1	1
549.755	1	-1
549.925	1	4
550.095	1	9
550.265	1	-7
550.435	1	13
550.605	1	5
550.775	1	-2
550.945	1	14
551.115	1	4
551.285	1	4
551.455	1	3
551.625	1	-2
551.795	1	8
551.965	1	1
552.135	1	4
552.305	1	5
552.475	1	-3
552.645	1	13
552.815	1	9
552.985	1	12
553.155	1	6
553.325	1	19
553.495	1	-2
553.665	1	10
553.835	1	0
554.004	1	3
554.174	1	3
554.344	1	-8
554.514	1	4
554.684	1	8
554.854	1	3
555.024	1	7
555.194	1	9
555.364	1	8
555.534	1	3
555.704	1	-4
555.874	1	2
556.044	1	5
556.214	1	-1
556.384	1	10
556.554	1	0
556.724	1	-2
556.894	1	16
557.064	1	5
557.234	1	3
557.404	1	-7
557.573	1	17
557.743	1	4
557.913	1	4
558.083	1	-8
558.253	1	-1
558.423	1	-8
558.593	1	2
558.763	1	3
558.933	1	6
559.103	1	2
559.273	1	-2
559.443	1	8
559.613	1	-1
559.783	1	3
559.953	1	7
560.122	1	-9
560.292	1	4
560.462	1	-3
560.632	1	4
560.802	1	-2
560.972	1	15
561.142	1	7
561.312	1	11
561.482	1	2
561.652	1	6
561.822	1	11
561.992	1	5
562.162	1	-4
562.331	1	-3
562.501	1	-6
562.671	1	4
562.841	1	3
563.011	1	4
563.181	1	7
563.351	1	-4
563.521	1	7
563.691	1	0
563.861	1	8
564.031	1	4
564.201	1	1
564.370	1	7
564.540	1	10
564.710	1	-11
564.880	1	15
565.050	1	8
565.220	1	8
565.390	1	1
565.560	1	7
565.730	1	-4
565.900	1	6
566.069	1	12
566.239	1	-6
566.409	1	-6
566.579	1	1
566.749	1	21
566.919	1	8
567.089	1	4
567.259	1	6
567.429	1	-2
567.599	1	1
567.768	1	6
567.938	1	-8
568.108	1	3
568.278	1	-10
568.448	1	5
568.618	1	4
568.788	1	-7
568.958	1	6
569.128	1	0
569.297	1	12
569.467	1	-3
569.637	1	-7
569.807	1	-5
569.977	1	10
570.147	1	-3
570.317	1	22
570.487	1	2
570.656	1	6
570.826	1	8
570.996	1	-2
571.166	1	-2
571.336	1	5
571.506	1	-2
571.676	1	8
571.846	1	11
572.015	1	-1
572.185	1	-3
572.355	1	17
572.525	1	-1
572.695	1	6
572.865	1	1
573.035	1	4
573.205	1	10
573.374	1	3
573.544	1	0
573.714	1	8
573.884	1	2
574.054	1	-2
574.224	1	2
574.394	1	0
574.563	1	2
574.733	1	-5
574.903	1	2
575.073	1	-1
575.243	1	-3
575.413	1	1
575.583	1	10
575.752	1	-4
575.922	1	9
576.092	1	9
576.262	1	2
576.432	1	-9
576.602	1	-1
576.772	1	5
576.941	1	3
577.111	1	10
577.281	1	-2
577.451	1	2
577.621	1	-1
577.791	1	6
577.960	1	-6
578.130	1	-2
578.300	1	1
578.470	1	-3
578.640	1	2
578.810	1	2
578.979	1	9
579.149	1	2
579.319	1	15
579.489	1	-7
579.659	1	7
579.829	1	8
579.998	1	-3
580.168	1	7
580.338	1	-11
580.508	1	-2
580.678	1	-1
580.848	1	6
581.017	1	7
581.187	1	9
581.357	1	0
581.527	1	3
581.697	1	-9
581.867	1	-2
582.036	1	9
582.206	1	-7
582.376	1	-1
582.546	1	6
582.716	1	10
582.885	1	5
583.055	1	-5
583.225	1	8
583.395	1	0
583.565	1	22
583.735	1	-2
583.904	1	7
584.074	1	-1
584.244	1	8
584.414	1	1
584.584	1	6
584.753	1	-3
584.923	1	2
585.093	1	15
585.263	1	3
585.433	1	4
585.602	1	-2
585.772	1	1
585.942	1	3
586.112	1	0
586.282	1	6
586.451	1	10
586.621	1	1
586.791	1	7
586.961	1	8
587.131	1	-13
587.300	1	2
587.470	1	5
587.640	1	-15
587.810	1	-8
587.980	1	1
588.149	1	2
588.319	1	1
588.489	1	5
588.659	1	1
588.829	1	3
588.998	1	-1
589.168	1	12
589.338	1	3
589.508	1	8
589.677	1	-4
589.847	1	7
590.017	1	-10
590.187	1	4
590.357	1	-3
590.526	1	3
590.696	1	2
590.866	1	0
591.036	1	5
591.205	1	8
591.375	1	-10
591.545	1	-8
591.715	1	-6
591.885	1	4
592.054	1	-1
592.224	1	7
592.394	1	-6
592.564	1	-8
592.733	1	-4
592.903	1	6
593.073	1	6
593.243	1	-6
593.412	1	-1
593.582	1	10
593.752	1	-9
593.922	1	-9
594.091	1	6
594.261	1	-3
594.431	1	-4
594.601	1	-7
594.771	1	9
594.940	1	-4
595.110	1	4
595.280	1	6
595.450	1	2
595.619	1	-7
595.789	1	8
595.959	1	0
596.129	1	-5
596.298	1	10
596.468	1	3
596.638	1	7
596.808	1	13
596.977	1	2
597.147	1	1
597.317	1	0
597.487	1	4
597.656	1	-1
597.826	1	2
597.996	1	7
598.166	1	5
598.335	1	7
598.505	1	1
598.675	1	3
598.844	1	1
599.014	1	-9
599.184	1	-5
599.354	1	-8
599.523	1	2
599.693	1	13
599.863	1	8
600.033	1	5
600.202	1	-1
600.372	1	-2
600.542	1	0
600.712	1	5
600.881	1	3
601.051	1	0
601.221	1	0
601.390	1	-7
601.560	1	-3
601.730	1	-3
601.900	1	-2
602.069	1	1
602.239	1	-5
602.409	1	0
602.578	1	5
602.748	1	-4
602.918	1	-3
603.088	1	4
603.257	1	0
603.427	1	1
603.597	1	17
603.767	1	0
603.936	1	1
604.106	1	-3
604.276	1	0
604.445	1	4
604.615	1	0
604.785	1	7
604.954	1	8
605.124	1	-10
605.294	1	1
605.464	1	-1
605.633	1	12
605.803	1	1
605.973	1	0
606.142	1	-1
606.312	1	5
606.482	1	-4
606.652	1	-8
606.821	1	5
606.991	1	-5
607.161	1	3
607.330	1	7
607.500	1	8
607.670	1	-5
607.839	1	9
608.009	1	-10
608.179	1	4
608.348	1	-7
608.518	1	5
608.688	1	9
608.858	1	0
609.027	1	2
609.197	1	-1
609.367	1	-2
609.536	1	3
609.706	1	3
609.876	1	-8
610.045	1	0
610.215	1	-8
610.385	1	-1
610.554	1	-1
610.724	1	-7
610.894	1	6
611.063	1	10
611.233	1	-6
611.403	1	-3
611.572	1	1
611.742	1	-7
611.912	1	-7
612.081	1	-3
612.251	1	10
612.421	1	0
612.590	1	-6
612.760	1	6
612.930	1	1
613.099	1	-13
613.269	1	1
613.439	1	-3
613.608	1	14
613.778	1	-5
613.948	1	4
614.117	1	5
614.287	1	-9
614.457	1	9
614.626	1	8
614.796	1	4
614.966	1	-2
615.135	1	-9
615.305	1	-2
615.475	1	3
615.644	1	1
615.814	1	1
615.984	1	15
616.153	1	-2
616.323	1	-1
616.493	1	5
616.662	1	3
616.832	1	-6
617.002	1	-3
617.171	1	-14
617.341	1	0
617.511	1	-3
617.680	1	6
617.850	1	5
618.019	1	11
618.189	1	-4
618.359	1	8
618.528	1	-14
618.698	1	-6
618.868	1	9
619.037	1	9
619.207	1	-3
619.377	1	-13
619.546	1	2
619.716	1	-7
619.885	1	2
620.055	1	1
620.225	1	4
620.394	1	-14
620.564	1	5
620.734	1	1
620.903	1	0
621.073	1	-7
621.242	1	-5
621.412	1	6
621.582	1	2
621.751	1	-3
621.921	1	6
622.091	1	2
622.260	1	-9
622.430	1	3
622.599	1	8
622.769	1	-5
622.939	1	2
623.108	1	-8
623.278	1	-5
623.448	1	-2
623.617	1	1
623.787	1	-6
623.956	1	5
624.126	1	9
624.296	1	-3
624.465	1	7
624.635	1	-1
624.804	1	-12
624.974	1	-1
625.144	1	5
625.313	1	0
625.483	1	0
625.652	1	8
625.822	1	1
625.992	1	1
626.161	1	0
626.331	1	-3
626.501	1	-7
626.670	1	13
626.840	1	2
627.009	1	-5
627.179	1	1
627.348	1	-5
627.518	1	-1
627.688	1	1
627.857	1	15
628.027	1	4
628.196	1	10
628.366	1	12
628.536	1	0
628.705	1	-7
628.875	1	6
629.044	1	3
629.214	1	-2
629.384	1	-11
629.553	1	8
629.723	1	6
629.892	1	-5
630.062	1	-4
630.232	1	11
630.401	1	6
630.571	1	-6
630.740	1	3
630.910	1	5
631.079	1	8
631.249	1	-13
631.419	1	0
631.588	1	-10
631.758	1	2
631.927	1	0
632.097	1	2
632.266	1	-3
632.436	1	-4
632.606	1	6
632.775	1	-3
632.945	1	6
633.114	1	-2
633.284	1	-4
633.453	1	-2
633.623	1	-1
633.793	1	3
633.962	1	-3
634.132	1	0
634.301	1	1
634.471	1	-5
634.640	1	0
634.810	1	-4
634.979	1	6
635.149	1	6
635.319	1	-4
635.488	1	-1
635.658	1	-6
635.827	1	-10
635.997	1	3
636.166	1	6
636.336	1	10
636.505	1	-4
636.675	1	-4
636.845	1	11
637.014	1	2
637.184	1	-7
637.353	1	-1
637.523	1	-11
637.692	1	-2
637.862	1	-12
638.031	1	12
638.201	1	10
638.370	1	3
638.540	1	2
638.710	1	4
638.879	1	2
639.049	1	1
639.218	1	-10
639.388	1	1
639.557	1	0
639.727	1	0
639.896	1	6
640.066	1	-7
640.235	1	3
640.405	1	1
640.574	1	4
640.744	1	-1
640.914	1	-8
641.083	1	-8
641.253	1	-3
641.422	1	-4
641.592	1	-5
641.761	1	4
641.931	1	14
642.100	1	-3
642.270	1	-7
642.439	1	6
642.609	1	-6
642.778	1	5
642.948	1	5
643.117	1	1
643.287	1	10
643.456	1	6
643.626	1	7
643.795	1	1
643.965	1	-2
644.134	1	3
644.304	1	-2
644.473	1	17
644.643	1	0
644.812	1	9
644.982	1	5
645.151	1	0
645.321	1	6
645.490	1	3
645.660	1	3
645.829	1	-5
645.999	1	-6
646.168	1	0
646.338	1	4
646.507	1	15
646.677	1	3
646.846	1	16
647.016	1	5
647.185	1	2
647.355	1	1
647.524	1	5
647.694	1	-2
647.863	1	-13
648.033	1	-13
648.202	1	5
648.372	1	1
648.541	1	2
648.711	1	-7
648.880	1	-4
649.050	1	-6
649.219	1	-8
649.389	1	-7
649.558	1	-7
649.728	1	3
649.897	1	1
650.067	1	1
650.236	1	8
650.406	1	1
650.575	1	5
650.745	1	-10
650.914	1	0
651.084	1	-1
651.253	1	1
651.423	1	4
651.592	1	-4
651.762	1	11
651.931	1	7
652.101	1	3
652.270	1	4
652.440	1	4
652.609	1	1
652.778	1	-6
652.948	1	-10
653.117	1	0
653.287	1	6
653.456	1	-6
653.626	1	13
653.795	1	11
653.965	1	7
654.134	1	0
654.304	1	-2
654.473	1	13
654.643	1	6
654.812	1	-8
654.982	1	-10
655.151	1	-9
655.320	1	-4
655.490	1	9
655.659	1	0
655.829	1	-3
655.998	1	8
656.168	1	-4
656.337	1	-1
656.507	1	9
656.676	1	-5
656.846	1	-11
657.015	1	-2
657.184	1	9
657.354	1	4
657.523	1	-4
657.693	1	1
657.862	1	-4
658.032	1	4
658.201	1	1
658.371	1	-14
658.540	1	2
658.709	1	-1
658.879	1	-8
659.048	1	9
659.218	1	5
659.387	1	3
659.557	1	1
659.726	1	-6
659.895	1	2
660.065	1	0
660.234	1	3
660.404	1	7
660.573	1	1
660.743	1	-1
660.912	1	-2
661.081	1	-5
661.251	1	6
661.420	1	4
661.590	1	-1
661.759	1	9
661.929	1	-2
662.098	1	-5
662.267	1	14
662.437	1	8
662.606	1	-2
662.776	1	1
662.945	1	-1
663.115	1	-12
663.284	1	-5
663.453	1	0
663.623	1	4
663.792	1	0
663.962	1	4
664.131	1	-8
664.300	1	2
664.470	1	-7
664.639	1	0
664.809	1	-3
664.978	1	0
665.148	1	0
665.317	1	-4
665.486	1	0
665.656	1	-2
665.825	1	4
665.995	1	11
666.164	1	6
666.333	1	11
666.503	1	3
666.672	1	-5
666.842	1	2
667.011	1	4
667.180	1	4
667.350	1	8
667.519	1	-1
667.689	1	0
667.858	1	1
668.027	1	-6
668.197	1	-2
668.366	1	-2
668.536	1	2
668.705	1	-11
668.874	1	-2
669.044	1	-3
669.213	1	1
669.382	1	-3
669.552	1	6
669.721	1	-4
669.891	1	1
670.060	1	-4
670.229	1	-3
670.399	1	7
670.568	1	12
670.738	1	-9
670.907	1	-14
671.076	1	5
671.246	1	-2
671.415	1	0
671.584	1	-7
671.754	1	-11
671.923	1	-9
672.093	1	-4
672.262	1	9
672.431	1	-7
672.601	1	-5
672.770	1	-2
672.939	1	-8
673.109	1	-3
673.278	1	-3
673.448	1	3
673.617	1	13
673.786	1	-8
