325.333	1	3
325.504	1	6
325.675	1	-4
325.846	1	-12
326.017	1	-5
326.188	1	16
326.359	1	2
326.531	1	-7
326.702	1	-2
326.873	1	3
327.044	1	-1
327.215	1	-1
327.386	1	-6
327.557	1	-1
327.728	1	-3
327.899	1	-12
328.070	1	3
328.241	1	-6
328.412	1	9
328.583	1	-12
328.754	1	-3
328.926	1	-3
329.097	1	8
329.268	1	-4
329.439	1	4
329.610	1	-3
329.781	1	6
329.952	1	10
330.123	1	-3
330.294	1	4
330.465	1	1
330.636	1	3
330.807	1	6
330.978	1	-5
331.149	1	5
331.320	1	7
331.492	1	-4
331.663	1	-10
331.834	1	3
332.005	1	3
332.176	1	4
332.347	1	8
332.518	1	5
332.689	1	-2
332.860	1	-4
333.031	1	0
333.202	1	4
333.373	1	-1
333.544	1	3
333.715	1	-4
333.886	1	-2
334.057	1	-7
334.228	1	6
334.399	1	3
334.570	1	-5
334.741	1	-10
334.912	1	-9
335.084	1	-1
335.255	1	-9
335.426	1	-1
335.597	1	-5
335.768	1	5
335.939	1	-1
336.110	1	-1
336.281	1	-11
336.452	1	2
336.623	1	7
336.794	1	-8
336.965	1	1
337.136	1	-7
337.307	1	6
337.478	1	5
337.649	1	2
337.820	1	5
337.991	1	6
338.162	1	3
338.333	1	5
338.504	1	2
338.675	1	2
338.846	1	4
339.017	1	-5
339.188	1	-1
339.359	1	6
339.530	1	2
339.701	1	3
339.872	1	-8
340.043	1	3
340.214	1	-2
340.385	1	-1
340.556	1	-1
340.727	1	-2
340.898	1	2
341.069	1	0
341.240	1	-3
341.411	1	7
341.582	1	-6
341.753	1	0
341.924	1	-10
342.095	1	-5
342.266	1	5
342.437	1	-4
342.608	1	1
342.779	1	-9
342.950	1	-5
343.121	1	7
343.292	1	-4
343.463	1	-6
343.634	1	-7
343.805	1	10
343.976	1	5
344.147	1	3
344.318	1	6
344.489	1	-10
344.660	1	16
344.831	1	-6
345.002	1	-2
345.173	1	-10
345.344	1	-13
345.515	1	4
345.686	1	0
345.857	1	-8
346.028	1	-9
346.199	1	-2
346.370	1	-5
346.541	1	-7
346.712	1	4
346.883	1	-10
347.054	1	4
347.225	1	-5
347.396	1	-9
347.567	1	-4
347.738	1	3
347.909	1	1
348.080	1	-4
348.251	1	4
348.422	1	-6
348.593	1	-5
348.764	1	0
348.935	1	6
349.106	1	1
349.277	1	-12
349.448	1	-4
349.619	1	4
349.790	1	-1
349.961	1	10
350.132	1	3
350.303	1	-15
350.474	1	-4
350.645	1	2
350.816	1	-4
350.987	1	-2
351.157	1	4
351.328	1	-3
351.499	1	1
351.670	1	9
351.841	1	-2
352.012	1	-8
352.183	1	-4
352.354	1	0
352.525	1	0
352.696	1	-8
352.867	1	-1
353.038	1	15
353.209	1	0
353.380	1	-2
353.551	1	1
353.722	1	4
353.893	1	3
354.064	1	1
354.235	1	-6
354.406	1	-3
354.576	1	6
354.747	1	-6
354.918	1	-6
355.089	1	4
355.260	1	-1
355.431	1	2
355.602	1	0
355.773	1	-6
355.944	1	-4
356.115	1	-8
356.286	1	6
356.457	1	-3
356.628	1	-6
356.799	1	-1
356.970	1	-8
357.141	1	-12
357.311	1	-1
357.482	1	-5
357.653	1	-1
357.824	1	4
357.995	1	4
358.166	1	2
358.337	1	13
358.508	1	1
358.679	1	4
358.850	1	-6
359.021	1	-9
359.192	1	1
359.363	1	-6
359.533	1	-2
359.704	1	6
359.875	1	2
360.046	1	6
360.217	1	13
360.388	1	1
360.559	1	11
360.730	1	-11
360.901	1	6
361.072	1	-9
361.243	1	3
361.414	1	10
361.584	1	0
361.755	1	3
361.926	1	4
362.097	1	1
362.268	1	14
362.439	1	-3
362.610	1	-9
362.781	1	0
362.952	1	5
363.123	1	-8
363.293	1	-6
363.464	1	17
363.635	1	0
363.806	1	9
363.977	1	4
364.148	1	-7
364.319	1	5
364.490	1	3
364.661	1	6
364.832	1	0
365.002	1	3
365.173	1	1
365.344	1	3
365.515	1	-6
365.686	1	4
365.857	1	2
366.028	1	4
366.199	1	13
366.370	1	9
366.540	1	6
366.711	1	16
366.882	1	1
367.053	1	7
367.224	1	4
367.395	1	7
367.566	1	8
367.737	1	-5
367.908	1	-4
368.078	1	14
368.249	1	4
368.420	1	3
368.591	1	12
368.762	1	-10
368.933	1	11
369.104	1	6
369.274	1	-6
369.445	1	2
369.616	1	0
369.787	1	3
369.958	1	-3
370.129	1	8
370.300	1	-8
370.471	1	12
370.641	1	2
370.812	1	9
370.983	1	5
371.154	1	-2
371.325	1	2
371.496	1	-8
371.667	1	1
371.837	1	-9
372.008	1	3
372.179	1	-6
372.350	1	-1
372.521	1	-1
372.692	1	0
372.863	1	3
373.033	1	9
373.204	1	6
373.375	1	3
373.546	1	-4
373.717	1	-3
373.888	1	-9
374.059	1	-6
374.229	1	-13
374.400	1	5
374.571	1	-1
374.742	1	-1
374.913	1	-3
375.084	1	-7
375.254	1	-5
375.425	1	-2
375.596	1	-12
375.767	1	-6
375.938	1	3
376.109	1	-4
376.279	1	-13
376.450	1	3
376.621	1	5
376.792	1	-1
376.963	1	2
377.134	1	-6
377.304	1	11
377.475	1	-2
377.646	1	1
377.817	1	15
377.988	1	-11
378.159	1	-3
378.329	1	5
378.500	1	-16
378.671	1	-3
378.842	1	-1
379.013	1	3
379.184	1	9
379.354	1	2
379.525	1	2
379.696	1	0
379.867	1	-1
380.038	1	12
380.209	1	7
380.379	1	-19
380.550	1	1
380.721	1	10
380.892	1	1
381.063	1	10
381.233	1	1
381.404	1	6
381.575	1	-6
381.746	1	12
381.917	1	-4
382.087	1	-1
382.258	1	8
382.429	1	4
382.600	1	8
382.771	1	0
382.941	1	3
383.112	1	5
383.283	1	-4
383.454	1	6
383.625	1	3
383.795	1	7
383.966	1	0
384.137	1	-7
384.308	1	8
384.479	1	10
384.649	1	11
384.820	1	0
384.991	1	13
385.162	1	7
385.333	1	13
385.503	1	11
385.674	1	9
385.845	1	4
386.016	1	11
386.187	1	16
386.357	1	7
386.528	1	16
386.699	1	18
386.870	1	16
387.041	1	6
387.211	1	9
387.382	1	9
387.553	1	11
387.724	1	-1
387.894	1	12
388.065	1	16
388.236	1	22
388.407	1	10
388.578	1	10
388.748	1	11
388.919	1	12
389.090	1	11
389.261	1	-9
389.431	1	13
389.602	1	14
389.773	1	2
389.944	1	4
390.114	1	9
390.285	1	7
390.456	1	9
390.627	1	-1
390.798	1	7
390.968	1	4
391.139	1	-7
391.310	1	14
391.481	1	0
391.651	1	13
391.822	1	9
391.993	1	15
392.164	1	0
392.334	1	9
392.505	1	-3
392.676	1	11
392.847	1	8
393.017	1	-2
393.188	1	6
393.359	1	4
393.530	1	9
393.700	1	9
393.871	1	-2
394.042	1	3
394.213	1	10
394.383	1	11
394.554	1	-1
394.725	1	-5
394.896	1	-3
395.066	1	16
395.237	1	13
395.408	1	8
395.579	1	11
395.749	1	17
395.920	1	7
396.091	1	5
396.262	1	9
396.432	1	-7
396.603	1	10
396.774	1	1
396.945	1	13
397.115	1	6
397.286	1	13
397.457	1	4
397.627	1	14
397.798	1	-2
397.969	1	8
398.140	1	5
398.310	1	21
398.481	1	-9
398.652	1	11
398.823	1	17
398.993	1	11
399.164	1	20
399.335	1	1
399.505	1	8
399.676	1	10
399.847	1	2
400.018	1	8
400.188	1	20
400.359	1	8
400.530	1	12
400.700	1	8
400.871	1	1
401.042	1	5
401.213	1	10
401.383	1	13
401.554	1	2
401.725	1	12
401.895	1	11
402.066	1	12
402.237	1	10
402.408	1	4
402.578	1	2
402.749	1	-2
402.920	1	-3
403.090	1	11
403.261	1	3
403.432	1	8
403.603	1	9
403.773	1	15
403.944	1	4
404.115	1	-12
404.285	1	-2
404.456	1	5
404.627	1	7
404.797	1	17
404.968	1	1
405.139	1	1
405.310	1	0
405.480	1	17
405.651	1	5
405.822	1	14
405.992	1	1
406.163	1	10
406.334	1	13
406.504	1	-2
406.675	1	14
406.846	1	4
407.016	1	6
407.187	1	10
407.358	1	3
407.528	1	10
407.699	1	14
407.870	1	5
408.041	1	-2
408.211	1	1
408.382	1	10
408.553	1	6
408.723	1	-2
408.894	1	-3
409.065	1	10
409.235	1	-1
409.406	1	5
409.577	1	6
409.747	1	-1
409.918	1	2
410.089	1	4
410.259	1	3
410.430	1	6
410.601	1	-1
410.771	1	2
410.942	1	5
411.113	1	2
411.283	1	-3
411.454	1	-4
411.625	1	-5
411.795	1	7
411.966	1	-7
412.137	1	5
412.307	1	0
412.478	1	16
412.649	1	6
412.819	1	5
412.990	1	14
413.161	1	-2
413.331	1	-8
413.502	1	16
413.672	1	14
413.843	1	3
414.014	1	0
414.184	1	-5
414.355	1	-7
414.526	1	7
414.696	1	-8
414.867	1	12
415.038	1	1
415.208	1	-2
415.379	1	9
415.550	1	-1
415.720	1	5
415.891	1	13
416.062	1	4
416.232	1	0
416.403	1	13
416.573	1	9
416.744	1	8
416.915	1	-5
417.085	1	-2
417.256	1	0
417.427	1	5
417.597	1	-11
417.768	1	4
417.939	1	-3
418.109	1	8
418.280	1	-1
418.450	1	0
418.621	1	5
418.792	1	3
418.962	1	0
419.133	1	6
419.304	1	11
419.474	1	-4
419.645	1	16
419.815	1	-7
419.986	1	8
420.157	1	12
420.327	1	7
420.498	1	5
420.669	1	1
420.839	1	0
421.010	1	7
421.180	1	6
421.351	1	6
421.522	1	6
421.692	1	7
421.863	1	-3
422.033	1	-3
422.204	1	-10
422.375	1	-5
422.545	1	7
422.716	1	2
422.886	1	4
423.057	1	-6
423.228	1	-7
423.398	1	5
423.569	1	6
423.740	1	-1
423.910	1	-5
424.081	1	2
424.251	1	1
424.422	1	5
424.593	1	4
424.763	1	-2
424.934	1	0
425.104	1	19
425.275	1	-12
425.445	1	2
425.616	1	6
425.787	1	-14
425.957	1	10
426.128	1	-9
426.298	1	-1
426.469	1	3
426.640	1	-7
426.810	1	1
426.981	1	-5
427.151	1	-2
427.322	1	4
427.493	1	-4
427.663	1	0
427.834	1	-11
428.004	1	3
428.175	1	1
428.345	1	9
428.516	1	-2
428.687	1	1
428.857	1	0
429.028	1	2
429.198	1	-4
429.369	1	7
429.540	1	4
429.710	1	-6
429.881	1	4
430.051	1	8
430.222	1	1
430.392	1	-4
430.563	1	2
430.734	1	1
430.904	1	6
431.075	1	1
431.245	1	7
431.416	1	-4
431.586	1	-5
431.757	1	6
431.927	1	-10
432.098	1	1
432.269	1	1
432.439	1	-6
432.610	1	-7
432.780	1	-13
432.951	1	1
433.121	1	3
433.292	1	13
433.462	1	0
433.633	1	-12
433.804	1	-8
433.974	1	-5
434.145	1	-1
434.315	1	5
434.486	1	8
434.656	1	-4
434.827	1	-5
434.997	1	13
435.168	1	3
435.339	1	13
435.509	1	8
435.680	1	1
435.850	1	0
436.021	1	9
436.191	1	-1
436.362	1	0
436.532	1	0
436.703	1	9
436.873	1	-4
437.044	1	4
437.214	1	0
437.385	1	1
437.556	1	-3
437.726	1	-7
437.897	1	-1
438.067	1	1
438.238	1	-13
438.408	1	-4
438.579	1	1
438.749	1	2
438.920	1	3
439.090	1	9
439.261	1	6
439.431	1	-4
439.602	1	-5
439.772	1	2
439.943	1	-1
440.113	1	0
440.284	1	0
440.455	1	1
440.625	1	-2
440.796	1	1
440.966	1	3
441.137	1	-16
441.307	1	-4
441.478	1	7
441.648	1	-6
441.819	1	-1
441.989	1	4
442.160	1	6
442.330	1	13
442.501	1	-14
442.671	1	1
442.842	1	-2
443.012	1	1
443.183	1	-5
443.353	1	4
443.524	1	-3
443.694	1	2
443.865	1	8
444.035	1	-2
444.206	1	14
444.376	1	-6
444.547	1	-3
444.717	1	10
444.888	1	-5
445.058	1	6
445.229	1	0
445.399	1	6
445.570	1	-5
445.740	1	3
445.911	1	8
446.081	1	12
446.252	1	-9
446.422	1	-3
446.593	1	-5
446.763	1	8
446.934	1	5
447.104	1	-5
447.275	1	-3
447.445	1	1
447.616	1	-1
447.786	1	-4
447.957	1	-2
448.127	1	5
448.298	1	2
448.468	1	7
448.639	1	-5
448.809	1	1
448.979	1	-3
449.150	1	-5
449.320	1	6
449.491	1	-3
449.661	1	-3
449.832	1	-3
450.002	1	-4
450.173	1	-6
450.343	1	-2
450.514	1	3
450.684	1	-3
450.855	1	2
451.025	1	2
451.196	1	-2
451.366	1	-5
451.537	1	0
451.707	1	2
451.878	1	-8
452.048	1	-8
452.218	1	4
452.389	1	-4
452.559	1	1
452.730	1	5
452.900	1	-2
453.071	1	4
453.241	1	-8
453.412	1	-1
453.582	1	3
453.753	1	4
453.923	1	0
454.093	1	12
454.264	1	-7
454.434	1	-2
454.605	1	-3
454.775	1	11
454.946	1	2
455.116	1	-3
455.287	1	7
455.457	1	-1
455.628	1	-8
455.798	1	-6
455.968	1	7
456.139	1	-10
456.309	1	-3
456.480	1	2
456.650	1	-6
456.821	1	3
456.991	1	12
457.161	1	-1
457.332	1	6
457.502	1	10
457.673	1	-6
457.843	1	6
458.014	1	-1
458.184	1	4
458.355	1	4
458.525	1	1
458.695	1	-1
458.866	1	-3
459.036	1	7
459.207	1	-2
459.377	1	-3
459.548	1	-6
459.718	1	-8
459.888	1	6
460.059	1	5
460.229	1	6
460.400	1	6
460.570	1	-8
460.740	1	3
460.911	1	14
461.081	1	2
461.252	1	-6
461.422	1	1
461.593	1	6
461.763	1	5
461.933	1	-5
462.104	1	-1
462.274	1	4
462.445	1	-9
462.615	1	-9
462.785	1	-9
462.956	1	-4
463.126	1	-1
463.297	1	-10
463.467	1	0
463.638	1	2
463.808	1	3
463.978	1	-4
464.149	1	-1
464.319	1	7
464.490	1	-1
464.660	1	5
464.830	1	4
465.001	1	1
465.171	1	-3
465.342	1	-5
465.512	1	4
465.682	1	1
465.853	1	-5
466.023	1	7
466.194	1	-4
466.364	1	4
466.534	1	-3
466.705	1	-3
466.875	1	10
467.045	1	5
467.216	1	-17
467.386	1	-5
467.557	1	2
467.727	1	-5
467.897	1	9
468.068	1	5
468.238	1	0
468.409	1	0
468.579	1	1
468.749	1	9
468.920	1	5
469.090	1	-3
469.260	1	0
469.431	1	9
469.601	1	-2
469.772	1	-13
469.942	1	0
470.112	1	-8
470.283	1	6
470.453	1	7
470.623	1	-4
470.794	1	1
470.964	1	-9
471.135	1	-4
471.305	1	0
471.475	1	-3
471.646	1	7
471.816	1	-6
471.986	1	3
472.157	1	7
472.327	1	2
472.497	1	-1
472.668	1	-9
472.838	1	6
473.009	1	6
473.179	1	4
473.349	1	3
473.520	1	1
473.690	1	13
473.860	1	1
474.031	1	5
474.201	1	-8
474.371	1	7
474.542	1	1
474.712	1	9
474.882	1	-4
475.053	1	0
475.223	1	-4
475.394	1	8
475.564	1	12
475.734	1	1
475.905	1	-1
476.075	1	8
476.245	1	-3
476.416	1	1
476.586	1	-3
476.756	1	-5
476.927	1	14
477.097	1	-5
477.267	1	-3
477.438	1	-2
477.608	1	12
477.778	1	3
477.949	1	2
478.119	1	-2
478.289	1	3
478.460	1	1
478.630	1	0
478.800	1	-9
478.971	1	4
479.141	1	9
479.311	1	-3
479.482	1	2
479.652	1	-1
479.822	1	-15
479.993	1	7
480.163	1	-11
480.333	1	-6
480.504	1	-1
480.674	1	7
480.844	1	7
481.015	1	2
481.185	1	4
481.355	1	12
481.525	1	-6
481.696	1	2
481.866	1	0
482.036	1	-10
482.207	1	3
482.377	1	-5
482.547	1	2
482.718	1	0
482.888	1	-6
483.058	1	0
483.229	1	-5
483.399	1	-1
483.569	1	8
483.740	1	-18
483.910	1	3
484.080	1	-4
484.250	1	-4
484.421	1	3
484.591	1	10
484.761	1	-7
484.932	1	11
485.102	1	1
485.272	1	14
485.443	1	11
485.613	1	-15
485.783	1	13
485.953	1	4
486.124	1	-2
486.294	1	4
486.464	1	-5
486.635	1	9
486.805	1	8
486.975	1	-18
487.146	1	0
487.316	1	3
487.486	1	2
487.656	1	-10
487.827	1	7
487.997	1	-1
488.167	1	5
488.338	1	20
488.508	1	7
488.678	1	-3
488.848	1	-3
489.019	1	-1
489.189	1	-12
489.359	1	-6
489.529	1	-1
489.700	1	-6
489.870	1	-3
490.040	1	-4
490.211	1	4
490.381	1	-8
490.551	1	4
490.721	1	3
490.892	1	5
491.062	1	10
491.232	1	-2
491.402	1	-8
491.573	1	6
491.743	1	-8
491.913	1	6
492.084	1	7
492.254	1	-9
492.424	1	0
492.594	1	-3
492.765	1	11
492.935	1	-6
493.105	1	15
493.275	1	4
493.446	1	-4
493.616	1	1
493.786	1	0
493.956	1	3
494.127	1	1
494.297	1	9
494.467	1	-1
494.637	1	1
494.808	1	5
494.978	1	4
495.148	1	7
495.318	1	10
495.489	1	4
495.659	1	8
495.829	1	1
495.999	1	4
496.170	1	-10
496.340	1	-1
496.510	1	7
496.680	1	-4
496.851	1	14
497.021	1	-3
497.191	1	-2
497.361	1	3
497.532	1	6
497.702	1	-7
497.872	1	-6
498.042	1	0
498.213	1	11
498.383	1	-2
498.553	1	6
498.723	1	9
498.894	1	-7
499.064	1	8
499.234	1	-5
499.404	1	0
499.574	1	-2
499.745	1	6
499.915	1	6
500.085	1	-3
500.255	1	1
500.426	1	1
500.596	1	-1
500.766	1	7
500.936	1	-9
501.106	1	-3
501.277	1	-1
501.447	1	0
501.617	1	4
501.787	1	-5
501.958	1	-5
502.128	1	4
502.298	1	8
502.468	1	14
502.638	1	5
502.809	1	11
502.979	1	2
503.149	1	6
503.319	1	11
503.489	1	6
503.660	1	-6
503.830	1	8
504.000	1	-17
504.170	1	13
504.340	1	-5
504.511	1	4
504.681	1	-3
504.851	1	-2
505.021	1	3
505.192	1	1
505.362	1	8
505.532	1	-1
505.702	1	3
505.872	1	2
506.043	1	6
506.213	1	9
506.383	1	-6
506.553	1	12
506.723	1	6
506.893	1	-7
507.064	1	-7
507.234	1	8
507.404	1	0
507.574	1	-3
507.744	1	-10
507.915	1	12
508.085	1	8
508.255	1	6
508.425	1	12
508.595	1	1
508.766	1	-11
508.936	1	8
509.106	1	-5
509.276	1	4
509.446	1	-5
509.616	1	-1
509.787	1	-3
509.957	1	0
510.127	1	6
510.297	1	2
510.467	1	-2
510.638	1	-2
510.808	1	-3
510.978	1	-7
511.148	1	12
511.318	1	4
511.488	1	10
511.659	1	4
511.829	1	4
511.999	1	19
512.169	1	1
512.339	1	6
512.509	1	13
512.680	1	6
512.850	1	-6
513.020	1	-2
513.190	1	2
513.360	1	8
513.530	1	-8
513.700	1	-2
513.871	1	2
514.041	1	-2
514.211	1	-9
514.381	1	-4
514.551	1	0
514.721	1	5
514.892	1	4
515.062	1	7
515.232	1	7
515.402	1	-1
515.572	1	1
515.742	1	5
515.912	1	10
516.083	1	-2
516.253	1	5
516.423	1	17
516.593	1	-3
516.763	1	0
516.933	1	3
517.104	1	5
517.274	1	2
517.444	1	0
517.614	1	-1
517.784	1	0
517.954	1	5
518.124	1	11
518.294	1	6
518.465	1	4
518.635	1	2
518.805	1	1
518.975	1	5
519.145	1	6
519.315	1	-4
519.485	1	-7
519.656	1	6
519.826	1	1
519.996	1	8
520.166	1	3
520.336	1	0
520.506	1	14
520.676	1	11
520.846	1	2
521.017	1	-8
521.187	1	-1
521.357	1	-6
521.527	1	0
521.697	1	8
521.867	1	12
522.037	1	-1
522.207	1	3
522.377	1	3
522.548	1	-9
522.718	1	4
522.888	1	0
523.058	1	21
523.228	1	7
523.398	1	8
523.568	1	2
523.738	1	1
523.909	1	7
524.079	1	2
524.249	1	5
524.419	1	4
524.589	1	4
524.759	1	-1
524.929	1	6
525.099	1	-3
525.269	1	4
525.439	1	-4
525.610	1	11
525.780	1	16
525.950	1	-2
526.120	1	-2
526.290	1	-8
526.460	1	5
526.630	1	3
526.800	1	5
526.970	1	10
527.140	1	-1
527.311	1	4
527.481	1	12
527.651	1	17
527.821	1	3
527.991	1	6
528.161	1	8
528.331	1	9
528.501	1	-5
528.671	1	4
528.841	1	13
529.011	1	2
529.181	1	1
529.352	1	11
529.522	1	13
529.692	1	6
529.862	1	3
530.032	1	-1
530.202	1	-3
530.372	1	0
530.542	1	3
530.712	1	18
530.882	1	3
531.052	1	1
531.222	1	2
531.392	1	-3
531.563	1	9
531.733	1	-3
531.903	1	10
532.073	1	5
532.243	1	5
532.413	1	22
532.583	1	8
532.753	1	1
532.923	1	4
533.093	1	6
533.263	1	-2
533.433	1	11
533.603	1	4
533.773	1	-10
533.943	1	7
534.113	1	4
534.284	1	8
534.454	1	5
534.624	1	14
534.794	1	-2
534.964	1	-5
535.134	1	-1
535.304	1	10
535.474	1	4
535.644	1	3
535.814	1	6
535.984	1	-4
536.154	1	-4
536.324	1	2
536.494	1	4
536.664	1	11
536.834	1	12
537.004	1	14
537.174	1	8
537.344	1	8
537.514	1	6
537.685	1	5
537.855	1	9
538.025	1	-1
538.195	1	1
538.365	1	9
538.535	1	13
538.705	1	-4
538.875	1	3
539.045	1	5
539.215	1	-3
539.385	1	10
539.555	1	-1
539.725	1	3
539.895	1	5
540.065	1	-9
540.235	1	-2
540.405	1	-2
540.575	1	3
540.745	1	-3
540.915	1	13
541.085	1	0
541.255	1	-3
541.425	1	6
541.595	1	1
541.765	1	2
541.935	1	6
542.105	1	3
542.275	1	-3
542.445	1	11
542.615	1	11
542.785	1	6
542.955	1	6
543.125	1	-7
543.295	1	8
543.465	1	12
543.635	1	2
543.805	1	1
543.975	1	-1
544.145	1	8
544.315	1	3
544.485	1	5
544.655	1	3
544.825	1	8
544.995	1	6
545.165	1	1
545.335	1	3
545.505	1	2
545.675	1	0
545.845	1	3
546.015	1	-3
546.185	1	0
546.355	1	6
546.525	1	5
546.695	1	-3
546.865	1	-5
547.035	1	10
547.205	1	3
547.375	1	7
547.545	1	9
547.715	1	-2
547.885	1	-6
548.055	1	5
548.225	1	2
548.395	1	5
548.565	1	4
548.735	1	6
548.905	1	1
549.075	1	1
549.245	1	8
549.415	1	2
549.585	1	4
549.755	1	-7
549.925	1	14
550.095	1	14
550.265	1	-1
550.435	1	8
550.605	1	-1
550.775	1	2
550.945	1	6
551.115	1	-6
551.285	1	7
551.455	1	7
551.625	1	-2
551.795	1	-2
551.965	1	10
552.135	1	-1
552.305	1	1
552.475	1	1
552.645	1	6
552.815	1	5
552.985	1	7
553.155	1	5
553.325	1	8
553.495	1	0
553.665	1	3
553.835	1	-1
554.004	1	5
554.174	1	0
554.344	1	0
554.514	1	12
554.684	1	10
554.854	1	8
555.024	1	0
555.194	1	4
555.364	1	0
555.534	1	10
555.704	1	14
555.874	1	-2
556.044	1	12
556.214	1	5
556.384	1	14
556.554	1	-4
556.724	1	-3
556.894	1	7
557.064	1	6
557.234	1	4
557.404	1	-4
557.573	1	5
557.743	1	0
557.913	1	6
558.083	1	-7
558.253	1	8
558.423	1	-7
558.593	1	4
558.763	1	-7
558.933	1	6
559.103	1	1
559.273	1	4
559.443	1	7
559.613	1	1
559.783	1	5
559.953	1	-6
560.122	1	-2
560.292	1	2
560.462	1	14
560.632	1	6
560.802	1	2
560.972	1	8
561.142	1	11
561.312	1	7
561.482	1	10
561.652	1	3
561.822	1	9
561.992	1	15
562.162	1	5
562.331	1	0
562.501	1	-8
562.671	1	1
562.841	1	-9
563.011	1	4
563.181	1	3
563.351	1	5
563.521	1	4
563.691	1	2
563.861	1	8
564.031	1	3
564.201	1	5
564.370	1	8
564.540	1	9
564.710	1	-5
564.880	1	4
565.050	1	0
565.220	1	-1
565.390	1	-14
565.560	1	8
565.730	1	7
565.900	1	2
566.069	1	14
566.239	1	-3
566.409	1	8
566.579	1	5
566.749	1	8
566.919	1	10
567.089	1	4
567.259	1	4
567.429	1	9
567.599	1	9
567.768	1	6
567.938	1	5
568.108	1	-8
568.278	1	-10
568.448	1	0
568.618	1	1
568.788	1	-12
568.958	1	6
569.128	1	-5
569.297	1	1
569.467	1	8
569.637	1	1
569.807	1	2
569.977	1	-5
570.147	1	-5
570.317	1	11
570.487	1	6
570.656	1	-8
570.826	1	5
570.996	1	-9
571.166	1	-11
571.336	1	7
571.506	1	3
571.676	1	9
571.846	1	8
572.015	1	-9
572.185	1	-8
572.355	1	12
572.525	1	2
572.695	1	7
572.865	1	6
573.035	1	-3
573.205	1	12
573.374	1	7
573.544	1	5
573.714	1	14
573.884	1	-4
574.054	1	10
574.224	1	-8
574.394	1	-3
574.563	1	0
574.733	1	-4
574.903	1	0
575.073	1	10
575.243	1	-11
575.413	1	12
575.583	1	6
575.752	1	1
575.922	1	1
576.092	1	14
576.262	1	-2
576.432	1	-1
576.602	1	1
576.772	1	0
576.941	1	4
577.111	1	4
577.281	1	-3
577.451	1	2
577.621	1	4
577.791	1	4
577.960	1	-8
578.130	1	-4
578.300	1	-1
578.470	1	5
578.640	1	-3
578.810	1	4
578.979	1	2
579.149	1	2
579.319	1	8
579.489	1	-3
579.659	1	5
579.829	1	2
579.998	1	-5
580.168	1	8
580.338	1	-5
580.508	1	-2
580.678	1	-6
580.848	1	0
581.017	1	9
581.187	1	0
581.357	1	5
581.527	1	7
581.697	1	-4
581.867	1	-7
582.036	1	2
582.206	1	-7
582.376	1	2
582.546	1	2
582.716	1	4
582.885	1	8
583.055	1	0
583.225	1	4
583.395	1	1
583.565	1	11
583.735	1	-9
583.904	1	-2
584.074	1	-4
584.244	1	-4
584.414	1	-1
584.584	1	11
584.753	1	1
584.923	1	6
585.093	1	1
585.263	1	4
585.433	1	-2
585.602	1	4
585.772	1	2
585.942	1	11
586.112	1	1
586.282	1	-2
586.451	1	6
586.621	1	1
586.791	1	2
586.961	1	-6
587.131	1	-9
587.300	1	-2
587.470	1	-6
587.640	1	-5
587.810	1	7
587.980	1	9
588.149	1	5
588.319	1	6
588.489	1	-3
588.659	1	-1
588.829	1	3
588.998	1	-2
589.168	1	11
589.338	1	12
589.508	1	-1
589.677	1	6
589.847	1	-2
590.017	1	-6
590.187	1	2
590.357	1	-8
590.526	1	-2
590.696	1	-1
590.866	1	-5
591.036	1	11
591.205	1	5
591.375	1	-10
591.545	1	-9
591.715	1	-6
591.885	1	12
592.054	1	6
592.224	1	10
592.394	1	-2
592.564	1	-8
592.733	1	-2
592.903	1	-9
593.073	1	7
593.243	1	-9
593.412	1	-1
593.582	1	1
593.752	1	-13
593.922	1	-5
594.091	1	2
594.261	1	8
594.431	1	-4
594.601	1	-8
594.771	1	10
594.940	1	-6
595.110	1	2
595.280	1	4
595.450	1	1
595.619	1	-2
595.789	1	5
595.959	1	1
596.129	1	0
596.298	1	9
596.468	1	3
596.638	1	1
596.808	1	8
596.977	1	-4
597.147	1	8
597.317	1	5
597.487	1	-1
597.656	1	-1
597.826	1	5
597.996	1	3
598.166	1	3
598.335	1	5
598.505	1	-3
598.675	1	7
598.844	1	0
599.014	1	1
599.184	1	-7
599.354	1	-7
599.523	1	-5
599.693	1	8
599.863	1	9
600.033	1	-3
600.202	1	-6
600.372	1	-5
600.542	1	-3
600.712	1	2
600.881	1	7
601.051	1	8
601.221	1	-7
601.390	1	-8
601.560	1	5
601.730	1	-6
601.900	1	-1
602.069	1	-10
602.239	1	-9
602.409	1	-4
602.578	1	-1
602.748	1	-4
602.918	1	-10
603.088	1	-8
603.257	1	0
603.427	1	2
603.597	1	13
603.767	1	2
603.936	1	7
604.106	1	-3
604.276	1	3
604.445	1	10
604.615	1	-3
604.785	1	12
604.954	1	2
605.124	1	-13
605.294	1	-2
605.464	1	-2
605.633	1	0
605.803	1	1
605.973	1	-4
606.142	1	1
606.312	1	-6
606.482	1	-5
606.652	1	-9
606.821	1	2
606.991	1	-4
607.161	1	3
607.330	1	8
607.500	1	7
607.670	1	-3
607.839	1	-1
608.009	1	-10
608.179	1	0
608.348	1	1
608.518	1	5
608.688	1	5
608.858	1	11
609.027	1	1
609.197	1	-12
609.367	1	-13
609.536	1	-1
609.706	1	-4
609.876	1	-3
610.045	1	-2
610.215	1	-2
610.385	1	8
610.554	1	1
610.724	1	-3
610.894	1	0
611.063	1	9
611.233	1	-1
611.403	1	3
611.572	1	-8
611.742	1	-10
611.912	1	0
612.081	1	-9
612.251	1	-2
612.421	1	3
612.590	1	-6
612.760	1	-2
612.930	1	2
613.099	1	-9
613.269	1	6
613.439	1	0
613.608	1	-2
613.778	1	1
613.948	1	-3
614.117	1	12
614.287	1	1
614.457	1	5
614.626	1	2
614.796	1	6
614.966	1	8
615.135	1	-10
615.305	1	-7
615.475	1	9
615.644	1	-11
615.814	1	5
615.984	1	14
616.153	1	-5
616.323	1	-4
616.493	1	1
616.662	1	0
616.832	1	6
617.002	1	-2
617.171	1	-7
617.341	1	3
617.511	1	-3
617.680	1	1
617.850	1	2
618.019	1	5
618.189	1	-13
618.359	1	4
618.528	1	-3
618.698	1	-8
618.868	1	7
619.037	1	6
619.207	1	-9
619.377	1	-14
619.546	1	3
619.716	1	-2
619.885	1	3
620.055	1	-1
620.225	1	4
620.394	1	-8
620.564	1	-10
620.734	1	6
620.903	1	6
621.073	1	-2
621.242	1	-8
621.412	1	5
621.582	1	1
621.751	1	4
621.921	1	4
622.091	1	-4
622.260	1	2
622.430	1	2
622.599	1	12
622.769	1	-3
622.939	1	-2
623.108	1	1
623.278	1	2
623.448	1	-4
623.617	1	4
623.787	1	-1
623.956	1	4
624.126	1	1
624.296	1	-2
624.465	1	7
624.635	1	1
624.804	1	-7
624.974	1	0
625.144	1	9
625.313	1	7
625.483	1	-3
625.652	1	6
625.822	1	8
625.992	1	-10
626.161	1	-7
626.331	1	7
626.501	1	2
626.670	1	0
626.840	1	6
627.009	1	-9
627.179	1	7
627.348	1	-7
627.518	1	1
627.688	1	-2
627.857	1	2
628.027	1	3
628.196	1	5
628.366	1	6
628.536	1	1
628.705	1	-1
628.875	1	1
629.044	1	2
629.214	1	0
629.384	1	-4
629.553	1	-4
629.723	1	8
629.892	1	1
630.062	1	-3
630.232	1	7
630.401	1	-1
630.571	1	3
630.740	1	1
630.910	1	-1
631.079	1	4
631.249	1	3
631.419	1	3
631.588	1	-5
631.758	1	5
631.927	1	-1
632.097	1	6
632.266	1	-6
632.436	1	-2
632.606	1	5
632.775	1	3
632.945	1	-3
633.114	1	9
633.284	1	-7
633.453	1	-2
633.623	1	-8
633.793	1	-4
633.962	1	2
634.132	1	5
634.301	1	-4
634.471	1	-5
634.640	1	1
634.810	1	-1
634.979	1	-2
635.149	1	5
635.319	1	-5
635.488	1	2
635.658	1	-2
635.827	1	-4
635.997	1	-1
636.166	1	-1
636.336	1	6
636.505	1	-5
636.675	1	-5
636.845	1	7
637.014	1	-8
637.184	1	1
637.353	1	4
637.523	1	-7
637.692	1	-10
637.862	1	-8
638.031	1	15
638.201	1	10
638.370	1	3
638.540	1	-1
638.710	1	5
638.879	1	2
639.049	1	6
639.218	1	1
639.388	1	4
639.557	1	7
639.727	1	-5
639.896	1	7
640.066	1	0
640.235	1	1
640.405	1	-1
640.574	1	-1
640.744	1	2
640.914	1	2
641.083	1	-2
641.253	1	0
641.422	1	-8
641.592	1	-12
641.761	1	-1
641.931	1	12
642.100	1	-4
642.270	1	4
642.439	1	3
642.609	1	10
642.778	1	1
642.948	1	-3
643.117	1	-2
643.287	1	-4
643.456	1	6
643.626	1	11
643.795	1	-3
643.965	1	-1
644.134	1	-2
644.304	1	-3
644.473	1	8
644.643	1	8
644.812	1	7
644.982	1	7
645.151	1	-1
645.321	1	4
645.490	1	-4
645.660	1	-10
645.829	1	-7
645.999	1	-6
646.168	1	0
646.338	1	12
646.507	1	4
646.677	1	1
646.846	1	7
647.016	1	-2
647.185	1	-7
647.355	1	-4
647.524	1	3
647.694	1	-12
647.863	1	-5
648.033	1	-14
648.202	1	-1
648.372	1	6
648.541	1	-12
648.711	1	0
648.880	1	-2
649.050	1	-6
649.219	1	-1
649.389	1	-2
649.558	1	-16
649.728	1	8
649.897	1	1
650.067	1	-7
650.236	1	6
650.406	1	-1
650.575	1	-3
650.745	1	-1
650.914	1	-8
651.084	1	-2
651.253	1	1
651.423	1	9
651.592	1	-5
651.762	1	7
651.931	1	-1
652.101	1	-1
652.270	1	9
652.440	1	10
652.609	1	6
652.778	1	-5
652.948	1	-11
653.117	1	-8
653.287	1	8
653.456	1	-5
653.626	1	0
653.795	1	9
653.965	1	5
654.134	1	3
654.304	1	10
654.473	1	6
654.643	1	10
654.812	1	-5
654.982	1	-7
655.151	1	-1
655.320	1	-6
655.490	1	-2
655.659	1	-3
655.829	1	0
655.998	1	6
656.168	1	-3
656.337	1	0
656.507	1	14
656.676	1	-11
656.846	1	-14
657.015	1	3
657.184	1	-1
657.354	1	-2
657.523	1	-6
657.693	1	-1
657.862	1	2
658.032	1	12
658.201	1	-3
658.371	1	-11
658.540	1	-4
658.709	1	-3
658.879	1	0
659.048	1	3
659.218	1	-5
659.387	1	-5
659.557	1	6
659.726	1	4
659.895	1	-2
660.065	1	8
660.234	1	0
660.404	1	7
660.573	1	-9
660.743	1	0
660.912	1	-5
661.081	1	0
661.251	1	8
661.420	1	9
661.590	1	2
661.759	1	8
661.929	1	3
662.098	1	-10
662.267	1	2
662.437	1	2
662.606	1	3
662.776	1	2
662.945	1	2
663.115	1	-9
663.284	1	-2
663.453	1	-5
663.623	1	-4
663.792	1	1
663.962	1	-5
664.131	1	-5
664.300	1	4
664.470	1	-9
664.639	1	-7
664.809	1	-1
664.978	1	-3
665.148	1	-5
665.317	1	-5
665.486	1	-9
665.656	1	-11
665.825	1	1
665.995	1	3
666.164	1	2
666.333	1	4
666.503	1	-3
666.672	1	-15
666.842	1	-6
667.011	1	9
667.180	1	-3
667.350	1	2
667.519	1	-6
667.689	1	-2
667.858	1	-1
668.027	1	-12
668.197	1	5
668.366	1	-7
668.536	1	0
668.705	1	12
668.874	1	-2
669.044	1	3
669.213	1	1
669.382	1	-5
669.552	1	3
669.721	1	-8
669.891	1	-7
670.060	1	9
670.229	1	2
670.399	1	4
670.568	1	1
670.738	1	-4
670.907	1	-14
671.076	1	5
671.246	1	10
671.415	1	-8
671.584	1	-1
671.754	1	-15
671.923	1	-8
672.093	1	0
672.262	1	12
672.431	1	-5
672.601	1	-3
672.770	1	-4
672.939	1	-8
673.109	1	-1
673.278	1	-6
673.448	1	7
673.617	1	7
673.786	1	-9
