325.333	1	1
325.504	1	7
325.675	1	3
325.846	1	2
326.017	1	3
326.188	1	9
326.359	1	7
326.531	1	-9
326.702	1	2
326.873	1	2
327.044	1	4
327.215	1	2
327.386	1	-3
327.557	1	-2
327.728	1	-4
327.899	1	2
328.070	1	3
328.241	1	-3
328.412	1	8
328.583	1	-1
328.754	1	-4
328.926	1	1
329.097	1	15
329.268	1	-1
329.439	1	4
329.610	1	-2
329.781	1	-5
329.952	1	8
330.123	1	6
330.294	1	12
330.465	1	2
330.636	1	-2
330.807	1	5
330.978	1	8
331.149	1	7
331.320	1	8
331.492	1	0
331.663	1	-11
331.834	1	9
332.005	1	7
332.176	1	-2
332.347	1	12
332.518	1	7
332.689	1	6
332.860	1	-2
333.031	1	-4
333.202	1	-3
333.373	1	6
333.544	1	4
333.715	1	7
333.886	1	1
334.057	1	-12
334.228	1	-1
334.399	1	11
334.570	1	-3
334.741	1	1
334.912	1	0
335.084	1	-10
335.255	1	7
335.426	1	-9
335.597	1	4
335.768	1	9
335.939	1	-1
336.110	1	-12
336.281	1	-3
336.452	1	-5
336.623	1	4
336.794	1	-7
336.965	1	-6
337.136	1	0
337.307	1	13
337.478	1	2
337.649	1	5
337.820	1	17
337.991	1	4
338.162	1	-8
338.333	1	6
338.504	1	3
338.675	1	3
338.846	1	-1
339.017	1	0
339.188	1	-1
339.359	1	-1
339.530	1	1
339.701	1	0
339.872	1	6
340.043	1	-1
340.214	1	0
340.385	1	1
340.556	1	2
340.727	1	6
340.898	1	-4
341.069	1	-7
341.240	1	1
341.411	1	-2
341.582	1	-1
341.753	1	6
341.924	1	-6
342.095	1	-2
342.266	1	-6
342.437	1	8
342.608	1	6
342.779	1	-5
342.950	1	-1
343.121	1	7
343.292	1	-1
343.463	1	3
343.634	1	-3
343.805	1	6
343.976	1	7
344.147	1	4
344.318	1	10
344.489	1	-8
344.660	1	10
344.831	1	-4
345.002	1	0
345.173	1	-7
345.344	1	-3
345.515	1	0
345.686	1	-2
345.857	1	10
346.028	1	-4
346.199	1	-4
346.370	1	-3
346.541	1	-3
346.712	1	5
346.883	1	0
347.054	1	3
347.225	1	-9
347.396	1	-1
347.567	1	-2
347.738	1	8
347.909	1	5
348.080	1	-5
348.251	1	13
348.422	1	-5
348.593	1	-5
348.764	1	-3
348.935	1	10
349.106	1	-1
349.277	1	-8
349.448	1	3
349.619	1	3
349.790	1	2
349.961	1	10
350.132	1	-3
350.303	1	-7
350.474	1	7
350.645	1	4
350.816	1	-5
350.987	1	-2
351.157	1	1
351.328	1	-4
351.499	1	2
351.670	1	9
351.841	1	4
352.012	1	-15
352.183	1	6
352.354	1	4
352.525	1	0
352.696	1	-7
352.867	1	-9
353.038	1	19
353.209	1	3
353.380	1	7
353.551	1	-1
353.722	1	2
353.893	1	6
354.064	1	1
354.235	1	2
354.406	1	-2
354.576	1	3
354.747	1	-8
354.918	1	-9
355.089	1	-2
355.260	1	1
355.431	1	9
355.602	1	8
355.773	1	-11
355.944	1	-3
356.115	1	-5
356.286	1	3
356.457	1	-1
356.628	1	-2
356.799	1	2
356.970	1	-8
357.141	1	4
357.311	1	-7
357.482	1	-4
357.653	1	-2
357.824	1	-9
357.995	1	1
358.166	1	5
358.337	1	4
358.508	1	-3
358.679	1	15
358.850	1	-6
359.021	1	-14
359.192	1	9
359.363	1	-6
359.533	1	-3
359.704	1	-4
359.875	1	-6
360.046	1	3
360.217	1	9
360.388	1	5
360.559	1	6
360.730	1	5
360.901	1	9
361.072	1	-5
361.243	1	7
361.414	1	15
361.584	1	13
361.755	1	8
361.926	1	4
362.097	1	5
362.268	1	8
362.439	1	4
362.610	1	-6
362.781	1	1
362.952	1	7
363.123	1	6
363.293	1	-12
363.464	1	7
363.635	1	6
363.806	1	-5
363.977	1	5
364.148	1	-4
364.319	1	4
364.490	1	-7
364.661	1	11
364.832	1	1
365.002	1	8
365.173	1	-3
365.344	1	0
365.515	1	1
365.686	1	-4
365.857	1	1
366.028	1	-5
366.199	1	11
366.370	1	5
366.540	1	5
366.711	1	6
366.882	1	4
367.053	1	6
367.224	1	10
367.395	1	-3
367.566	1	-2
367.737	1	-10
367.908	1	2
368.078	1	7
368.249	1	4
368.420	1	-2
368.591	1	11
368.762	1	-11
368.933	1	1
369.104	1	8
369.274	1	-5
369.445	1	-8
369.616	1	-3
369.787	1	-3
369.958	1	-1
370.129	1	7
370.300	1	-1
370.471	1	11
370.641	1	0
370.812	1	4
370.983	1	-2
371.154	1	-5
371.325	1	-7
371.496	1	-4
371.667	1	-2
371.837	1	-10
372.008	1	0
372.179	1	-2
372.350	1	-7
372.521	1	-3
372.692	1	-6
372.863	1	4
373.033	1	-6
373.204	1	-6
373.375	1	1
373.546	1	-5
373.717	1	-7
373.888	1	0
374.059	1	11
374.229	1	-7
374.400	1	1
374.571	1	2
374.742	1	7
374.913	1	-6
375.084	1	-1
375.254	1	2
375.425	1	-3
375.596	1	-14
375.767	1	10
375.938	1	-3
376.109	1	-13
376.279	1	-6
376.450	1	-6
376.621	1	14
376.792	1	0
376.963	1	4
377.134	1	1
377.304	1	-2
377.475	1	-1
377.646	1	-2
377.817	1	4
377.988	1	-1
378.159	1	6
378.329	1	11
378.500	1	-8
378.671	1	-4
378.842	1	-10
379.013	1	6
379.184	1	6
379.354	1	5
379.525	1	8
379.696	1	-5
379.867	1	6
380.038	1	2
380.209	1	8
380.379	1	-15
380.550	1	2
380.721	1	10
380.892	1	-6
381.063	1	-8
381.233	1	7
381.404	1	2
381.575	1	-4
381.746	1	7
381.917	1	-9
382.087	1	3
382.258	1	11
382.429	1	10
382.600	1	-1
382.771	1	-6
382.941	1	6
383.112	1	7
383.283	1	-3
383.454	1	-6
383.625	1	-8
383.795	1	0
383.966	1	-7
384.137	1	-4
384.308	1	2
384.479	1	17
384.649	1	0
384.820	1	-8
384.991	1	7
385.162	1	-2
385.333	1	13
385.503	1	-3
385.674	1	-7
385.845	1	2
386.016	1	5
386.187	1	12
386.357	1	-7
386.528	1	0
386.699	1	8
386.870	1	9
387.041	1	-8
387.211	1	1
387.382	1	-1
387.553	1	5
387.724	1	-2
387.894	1	4
388.065	1	6
388.236	1	-2
388.407	1	0
388.578	1	-3
388.748	1	3
388.919	1	0
389.090	1	5
389.261	1	-16
389.431	1	1
389.602	1	9
389.773	1	0
389.944	1	6
390.114	1	5
390.285	1	-2
390.456	1	-4
390.627	1	3
390.798	1	7
390.968	1	-1
391.139	1	-10
391.310	1	9
391.481	1	4
391.651	1	8
391.822	1	8
391.993	1	4
392.164	1	-3
392.334	1	12
392.505	1	-9
392.676	1	-7
392.847	1	-4
393.017	1	-13
393.188	1	9
393.359	1	9
393.530	1	-8
393.700	1	7
393.871	1	-9
394.042	1	6
394.213	1	6
394.383	1	-6
394.554	1	1
394.725	1	0
394.896	1	-3
395.066	1	7
395.237	1	0
395.408	1	-1
395.579	1	8
395.749	1	12
395.920	1	1
396.091	1	3
396.262	1	-4
396.432	1	-14
396.603	1	4
396.774	1	-4
396.945	1	-7
397.115	1	13
397.286	1	11
397.457	1	0
397.627	1	1
397.798	1	-8
397.969	1	-1
398.140	1	-1
398.310	1	7
398.481	1	-5
398.652	1	5
398.823	1	15
398.993	1	-2
399.164	1	7
399.335	1	0
399.505	1	0
399.676	1	16
399.847	1	0
400.018	1	6
400.188	1	2
400.359	1	1
400.530	1	11
400.700	1	15
400.871	1	-10
401.042	1	-2
401.213	1	-10
401.383	1	10
401.554	1	3
401.725	1	-2
401.895	1	5
402.066	1	12
402.237	1	11
402.408	1	0
402.578	1	3
402.749	1	-3
402.920	1	-11
403.090	1	4
403.261	1	5
403.432	1	7
403.603	1	0
403.773	1	0
403.944	1	3
404.115	1	-5
404.285	1	-8
404.456	1	-1
404.627	1	2
404.797	1	12
404.968	1	1
405.139	1	-13
405.310	1	2
405.480	1	9
405.651	1	4
405.822	1	3
405.992	1	-6
406.163	1	6
406.334	1	0
406.504	1	-2
406.675	1	8
406.846	1	2
407.016	1	-2
407.187	1	6
407.358	1	-3
407.528	1	17
407.699	1	1
407.870	1	-1
408.041	1	2
408.211	1	-9
408.382	1	-3
408.553	1	4
408.723	1	4
408.894	1	-7
409.065	1	0
409.235	1	1
409.406	1	7
409.577	1	2
409.747	1	6
409.918	1	0
410.089	1	0
410.259	1	-6
410.430	1	8
410.601	1	-4
410.771	1	0
410.942	1	14
411.113	1	0
411.283	1	-3
411.454	1	-10
411.625	1	-9
411.795	1	6
411.966	1	-2
412.137	1	7
412.307	1	-2
412.478	1	3
412.649	1	-5
412.819	1	7
412.990	1	4
413.161	1	5
413.331	1	-9
413.502	1	9
413.672	1	2
413.843	1	-3
414.014	1	3
414.184	1	-8
414.355	1	-2
414.526	1	-5
414.696	1	0
414.867	1	8
415.038	1	1
415.208	1	-4
415.379	1	9
415.550	1	3
415.720	1	-3
415.891	1	8
416.062	1	1
416.232	1	1
416.403	1	7
416.573	1	4
416.744	1	4
416.915	1	-3
417.085	1	6
417.256	1	2
417.427	1	10
417.597	1	-11
417.768	1	-1
417.939	1	-3
418.109	1	2
418.280	1	1
418.450	1	-1
418.621	1	2
418.792	1	-8
418.962	1	-3
419.133	1	-5
419.304	1	0
419.474	1	1
419.645	1	13
419.815	1	-3
419.986	1	5
420.157	1	-1
420.327	1	10
420.498	1	5
420.669	1	-4
420.839	1	0
421.010	1	4
421.180	1	3
421.351	1	10
421.522	1	8
421.692	1	0
421.863	1	-9
422.033	1	-9
422.204	1	-11
422.375	1	-4
422.545	1	8
422.716	1	0
422.886	1	2
423.057	1	3
423.228	1	-1
423.398	1	0
423.569	1	1
423.740	1	0
423.910	1	-8
424.081	1	2
424.251	1	-5
424.422	1	0
424.593	1	0
424.763	1	4
424.934	1	-4
425.104	1	7
425.275	1	-7
425.445	1	-4
425.616	1	8
425.787	1	-14
425.957	1	13
426.128	1	-1
426.298	1	2
426.469	1	0
426.640	1	-6
426.810	1	3
426.981	1	-10
427.151	1	18
427.322	1	0
427.493	1	3
427.663	1	0
427.834	1	-7
428.004	1	8
428.175	1	-7
428.345	1	5
428.516	1	4
428.687	1	3
428.857	1	-2
429.028	1	-4
429.198	1	-3
429.369	1	4
429.540	1	13
429.710	1	-4
429.881	1	6
430.051	1	13
430.222	1	1
430.392	1	-2
430.563	1	3
430.734	1	-3
430.904	1	-3
431.075	1	2
431.245	1	11
431.416	1	3
431.586	1	2
431.757	1	2
431.927	1	1
432.098	1	3
432.269	1	-6
432.439	1	-5
432.610	1	-5
432.780	1	-1
432.951	1	0
433.121	1	11
433.292	1	-1
433.462	1	1
433.633	1	-11
433.804	1	-5
433.974	1	-7
434.145	1	-1
434.315	1	7
434.486	1	4
434.656	1	1
434.827	1	-1
434.997	1	9
435.168	1	0
435.339	1	6
435.509	1	5
435.680	1	-1
435.850	1	1
436.021	1	10
436.191	1	0
436.362	1	4
436.532	1	5
436.703	1	9
436.873	1	-8
437.044	1	-1
437.214	1	-4
437.385	1	2
437.556	1	-1
437.726	1	-3
437.897	1	-8
438.067	1	0
438.238	1	-9
438.408	1	-2
438.579	1	6
438.749	1	11
438.920	1	-9
439.090	1	18
439.261	1	-5
439.431	1	-4
439.602	1	4
439.772	1	3
439.943	1	8
440.113	1	-2
440.284	1	3
440.455	1	-6
440.625	1	5
440.796	1	10
440.966	1	8
441.137	1	-12
441.307	1	2
441.478	1	-7
441.648	1	-12
441.819	1	3
441.989	1	-3
442.160	1	6
442.330	1	6
442.501	1	-11
442.671	1	-8
442.842	1	-1
443.012	1	-1
443.183	1	-5
443.353	1	5
443.524	1	6
443.694	1	12
443.865	1	3
444.035	1	-4
444.206	1	0
444.376	1	8
444.547	1	-6
444.717	1	2
444.888	1	-5
445.058	1	-1
445.229	1	0
445.399	1	3
445.570	1	9
445.740	1	5
445.911	1	13
446.081	1	13
446.252	1	-10
446.422	1	-5
446.593	1	2
446.763	1	7
446.934	1	6
447.104	1	0
447.275	1	0
447.445	1	-2
447.616	1	-5
447.786	1	-5
447.957	1	6
448.127	1	0
448.298	1	-2
448.468	1	4
448.639	1	2
448.809	1	-2
448.979	1	5
449.150	1	2
449.320	1	4
449.491	1	-2
449.661	1	2
449.832	1	-5
450.002	1	0
450.173	1	-7
450.343	1	1
450.514	1	-1
450.684	1	-3
450.855	1	8
451.025	1	-3
451.196	1	-5
451.366	1	10
451.537	1	-7
451.707	1	10
451.878	1	3
452.048	1	-4
452.218	1	1
452.389	1	0
452.559	1	3
452.730	1	0
452.900	1	2
453.071	1	-7
453.241	1	-9
453.412	1	-6
453.582	1	-4
453.753	1	5
453.923	1	3
454.093	1	4
454.264	1	-10
454.434	1	10
454.605	1	4
454.775	1	8
454.946	1	-2
455.116	1	-1
455.287	1	8
455.457	1	-1
455.628	1	1
455.798	1	0
455.968	1	4
456.139	1	2
456.309	1	3
456.480	1	6
456.650	1	-7
456.821	1	-8
456.991	1	13
457.161	1	-2
457.332	1	3
457.502	1	1
457.673	1	-4
457.843	1	5
458.014	1	-1
458.184	1	13
458.355	1	1
458.525	1	2
458.695	1	1
458.866	1	-11
459.036	1	11
459.207	1	3
459.377	1	-3
459.548	1	-1
459.718	1	-13
459.888	1	8
460.059	1	6
460.229	1	7
460.400	1	4
460.570	1	-1
460.740	1	-5
460.911	1	12
461.081	1	-7
461.252	1	-1
461.422	1	5
461.593	1	8
461.763	1	-1
461.933	1	-9
462.104	1	1
462.274	1	8
462.445	1	0
462.615	1	-4
462.785	1	-7
462.956	1	-3
463.126	1	2
463.297	1	2
463.467	1	3
463.638	1	2
463.808	1	3
463.978	1	4
464.149	1	-6
464.319	1	0
464.490	1	3
464.660	1	1
464.830	1	5
465.001	1	4
465.171	1	6
465.342	1	2
465.512	1	2
465.682	1	-5
465.853	1	-1
466.023	1	7
466.194	1	-5
466.364	1	6
466.534	1	-9
466.705	1	4
466.875	1	11
467.045	1	-4
467.216	1	-9
467.386	1	-4
467.557	1	11
467.727	1	1
467.897	1	10
468.068	1	7
468.238	1	-6
468.409	1	2
468.579	1	7
468.749	1	7
468.920	1	1
469.090	1	11
469.260	1	2
469.431	1	-1
469.601	1	3
469.772	1	-8
469.942	1	5
470.112	1	5
470.283	1	16
470.453	1	10
470.623	1	-2
470.794	1	-2
470.964	1	-6
471.135	1	-1
471.305	1	-9
471.475	1	-8
471.646	1	-1
471.816	1	5
471.986	1	4
472.157	1	8
472.327	1	10
472.497	1	1
472.668	1	-8
472.838	1	5
473.009	1	5
473.179	1	-4
473.349	1	4
473.520	1	-8
473.690	1	11
473.860	1	-1
474.031	1	2
474.201	1	3
474.371	1	15
474.542	1	0
474.712	1	-1
474.882	1	-2
475.053	1	-4
475.223	1	2
475.394	1	0
475.564	1	18
475.734	1	0
475.905	1	-3
476.075	1	1
476.245	1	0
476.416	1	1
476.586	1	1
476.756	1	-1
476.927	1	16
477.097	1	-11
477.267	1	-4
477.438	1	3
477.608	1	7
477.778	1	15
477.949	1	10
478.119	1	4
478.289	1	-4
478.460	1	-1
478.630	1	-2
478.800	1	-4
478.971	1	4
479.141	1	19
479.311	1	1
479.482	1	-6
479.652	1	2
479.822	1	2
479.993	1	5
480.163	1	-13
480.333	1	-3
480.504	1	7
480.674	1	7
480.844	1	7
481.015	1	-1
481.185	1	1
481.355	1	7
481.525	1	-1
481.696	1	0
481.866	1	-2
482.036	1	-6
482.207	1	6
482.377	1	-3
482.547	1	-4
482.718	1	8
482.888	1	-2
483.058	1	-7
483.229	1	7
483.399	1	-3
483.569	1	-9
483.740	1	-9
483.910	1	1
484.080	1	-7
484.250	1	-1
484.421	1	2
484.591	1	13
484.761	1	0
484.932	1	5
485.102	1	2
485.272	1	2
485.443	1	11
485.613	1	-11
485.783	1	11
485.953	1	-7
486.124	1	3
486.294	1	2
486.464	1	-7
486.635	1	14
486.805	1	16
486.975	1	-9
487.146	1	2
487.316	1	3
487.486	1	5
487.656	1	3
487.827	1	9
487.997	1	10
488.167	1	6
488.338	1	20
488.508	1	8
488.678	1	2
488.848	1	-2
489.019	1	-4
489.189	1	-7
489.359	1	1
489.529	1	0
489.700	1	4
489.870	1	-8
490.040	1	3
490.211	1	11
490.381	1	3
490.551	1	-8
490.721	1	3
490.892	1	6
491.062	1	3
491.232	1	1
491.402	1	-9
491.573	1	-3
491.743	1	-10
491.913	1	-2
492.084	1	-6
492.254	1	4
492.424	1	3
492.594	1	8
492.765	1	6
492.935	1	1
493.105	1	10
493.275	1	3
493.446	1	2
493.616	1	-1
493.786	1	1
493.956	1	-2
494.127	1	3
494.297	1	4
494.467	1	13
494.637	1	0
494.808	1	9
494.978	1	-4
495.148	1	19
495.318	1	9
495.489	1	-2
495.659	1	13
495.829	1	4
495.999	1	2
496.170	1	-12
496.340	1	0
496.510	1	7
496.680	1	2
496.851	1	-2
497.021	1	6
497.191	1	3
497.361	1	2
497.532	1	5
497.702	1	-1
497.872	1	1
498.042	1	-4
498.213	1	15
498.383	1	-3
498.553	1	0
498.723	1	-1
498.894	1	7
499.064	1	8
499.234	1	-1
499.404	1	2
499.574	1	-2
499.745	1	4
499.915	1	4
500.085	1	3
500.255	1	5
500.426	1	-2
500.596	1	1
500.766	1	10
500.936	1	2
501.106	1	4
501.277	1	2
501.447	1	3
501.617	1	1
501.787	1	-9
501.958	1	-4
502.128	1	1
502.298	1	3
502.468	1	9
502.638	1	-3
502.809	1	4
502.979	1	-1
503.149	1	5
503.319	1	8
503.489	1	-2
503.660	1	-8
503.830	1	3
504.000	1	-3
504.170	1	-1
504.340	1	2
504.511	1	1
504.681	1	6
504.851	1	-2
505.021	1	-1
505.192	1	12
505.362	1	-2
505.532	1	-2
505.702	1	-1
505.872	1	-13
506.043	1	-4
506.213	1	5
506.383	1	2
506.553	1	11
506.723	1	1
506.893	1	0
507.064	1	-3
507.234	1	1
507.404	1	1
507.574	1	2
507.744	1	-17
507.915	1	1
508.085	1	11
508.255	1	5
508.425	1	3
508.595	1	3
508.766	1	-10
508.936	1	-5
509.106	1	-5
509.276	1	1
509.446	1	-3
509.616	1	-5
509.787	1	1
509.957	1	-2
510.127	1	-5
510.297	1	-7
510.467	1	3
510.638	1	-2
510.808	1	0
510.978	1	-20
511.148	1	8
511.318	1	0
511.488	1	12
511.659	1	7
511.829	1	-9
511.999	1	10
512.169	1	2
512.339	1	-12
512.509	1	3
512.680	1	11
512.850	1	6
513.020	1	0
513.190	1	-6
513.360	1	0
513.530	1	-7
513.700	1	4
513.871	1	1
514.041	1	-5
514.211	1	2
514.381	1	-6
514.551	1	4
514.721	1	4
514.892	1	-1
515.062	1	-6
515.232	1	-3
515.402	1	1
515.572	1	-11
515.742	1	10
515.912	1	4
516.083	1	0
516.253	1	0
516.423	1	16
516.593	1	-5
516.763	1	1
516.933	1	6
517.104	1	9
517.274	1	1
517.444	1	2
517.614	1	4
517.784	1	-8
517.954	1	-2
518.124	1	6
518.294	1	4
518.465	1	2
518.635	1	2
518.805	1	3
518.975	1	6
519.145	1	2
519.315	1	5
519.485	1	-9
519.656	1	6
519.826	1	13
519.996	1	16
520.166	1	6
520.336	1	2
520.506	1	3
520.676	1	-11
520.846	1	-8
521.017	1	-8
521.187	1	-2
521.357	1	-6
521.527	1	7
521.697	1	6
521.867	1	2
522.037	1	7
522.207	1	-3
522.377	1	6
522.548	1	-9
522.718	1	1
522.888	1	-5
523.058	1	10
523.228	1	12
523.398	1	2
523.568	1	-11
523.738	1	-3
523.909	1	13
524.079	1	-5
524.249	1	6
524.419	1	-5
524.589	1	12
524.759	1	1
524.929	1	-5
525.099	1	-7
525.269	1	3
525.439	1	-7
525.610	1	-6
525.780	1	11
525.950	1	-8
526.120	1	-9
526.290	1	1
526.460	1	4
526.630	1	12
526.800	1	3
526.970	1	-2
527.140	1	-5
527.311	1	-1
527.481	1	6
527.651	1	9
527.821	1	-2
527.991	1	-2
528.161	1	3
528.331	1	7
528.501	1	-9
528.671	1	-3
528.841	1	2
529.011	1	-3
529.181	1	2
529.352	1	3
529.522	1	0
529.692	1	-1
529.862	1	7
530.032	1	-3
530.202	1	-1
530.372	1	-9
530.542	1	6
530.712	1	17
530.882	1	-14
531.052	1	3
531.222	1	-23
531.392	1	-1
531.563	1	1
531.733	1	3
531.903	1	8
532.073	1	8
532.243	1	3
532.413	1	7
532.583	1	-8
532.753	1	5
532.923	1	-4
533.093	1	1
533.263	1	-2
533.433	1	7
533.603	1	7
533.773	1	-8
533.943	1	3
534.113	1	6
534.284	1	-1
534.454	1	2
534.624	1	-2
534.794	1	-3
534.964	1	-4
535.134	1	-8
535.304	1	13
535.474	1	7
535.644	1	4
535.814	1	8
535.984	1	-10
536.154	1	3
536.324	1	4
536.494	1	5
536.664	1	6
536.834	1	-2
537.004	1	17
537.174	1	7
537.344	1	1
537.514	1	-4
537.685	1	0
537.855	1	2
538.025	1	4
538.195	1	5
538.365	1	13
538.535	1	8
538.705	1	2
538.875	1	-1
539.045	1	9
539.215	1	-10
539.385	1	-3
539.555	1	-11
539.725	1	5
539.895	1	-3
540.065	1	-1
540.235	1	-3
540.405	1	0
540.575	1	10
540.745	1	-3
540.915	1	5
541.085	1	-9
541.255	1	-4
541.425	1	-2
541.595	1	3
541.765	1	1
541.935	1	11
542.105	1	6
542.275	1	-4
542.445	1	4
542.615	1	-1
542.785	1	-1
542.955	1	-5
543.125	1	-1
543.295	1	9
543.465	1	11
543.635	1	4
543.805	1	3
543.975	1	0
544.145	1	5
544.315	1	0
544.485	1	4
544.655	1	1
544.825	1	6
544.995	1	4
545.165	1	6
545.335	1	6
545.505	1	2
545.675	1	2
545.845	1	-3
546.015	1	2
546.185	1	-8
546.355	1	11
546.525	1	3
546.695	1	2
546.865	1	-6
547.035	1	8
547.205	1	-2
547.375	1	3
547.545	1	8
547.715	1	-2
547.885	1	-1
548.055	1	1
548.225	1	-5
548.395	1	-4
548.565	1	-4
548.735	1	13
548.905	1	-5
549.075	1	-7
549.245	1	0
549.415	1	6
549.585	1	-5
549.755	1	-6
549.925	1	9
550.095	1	4
550.265	1	-4
550.435	1	10
550.605	1	3
550.775	1	3
550.945	1	4
551.115	1	-11
551.285	1	7
551.455	1	5
551.625	1	-8
551.795	1	-1
551.965	1	8
552.135	1	-6
552.305	1	3
552.475	1	-3
552.645	1	5
552.815	1	-3
552.985	1	8
553.155	1	-8
553.325	1	11
553.495	1	0
553.665	1	5
553.835	1	-2
554.004	1	1
554.174	1	-4
554.344	1	-10
554.514	1	4
554.684	1	-1
554.854	1	-6
555.024	1	-5
555.194	1	12
555.364	1	7
555.534	1	-8
555.704	1	4
555.874	1	-8
556.044	1	-3
556.214	1	-13
556.384	1	3
556.554	1	-9
556.724	1	-7
556.894	1	5
557.064	1	-6
557.234	1	-2
557.404	1	-5
557.573	1	0
557.743	1	2
557.913	1	3
558.083	1	-9
558.253	1	-1
558.423	1	-6
558.593	1	-4
558.763	1	-3
558.933	1	2
559.103	1	-2
559.273	1	-5
559.443	1	0
559.613	1	6
559.783	1	7
559.953	1	-1
560.122	1	-2
560.292	1	1
560.462	1	-2
560.632	1	-4
560.802	1	2
560.972	1	13
561.142	1	2
561.312	1	7
561.482	1	5
561.652	1	6
561.822	1	10
561.992	1	6
562.162	1	-6
562.331	1	-5
562.501	1	13
562.671	1	4
562.841	1	1
563.011	1	2
563.181	1	5
563.351	1	3
563.521	1	7
563.691	1	-4
563.861	1	-1
564.031	1	7
564.201	1	4
564.370	1	5
564.540	1	9
564.710	1	-10
564.880	1	0
565.050	1	-3
565.220	1	-3
565.390	1	-9
565.560	1	6
565.730	1	2
565.900	1	6
566.069	1	9
566.239	1	-2
566.409	1	-1
566.579	1	0
566.749	1	5
566.919	1	7
567.089	1	2
567.259	1	10
567.429	1	0
567.599	1	-8
567.768	1	9
567.938	1	-2
568.108	1	-1
568.278	1	-5
568.448	1	-3
568.618	1	1
568.788	1	-1
568.958	1	5
569.128	1	3
569.297	1	1
569.467	1	1
569.637	1	4
569.807	1	0
569.977	1	3
570.147	1	-1
570.317	1	14
570.487	1	5
570.656	1	0
570.826	1	9
570.996	1	-11
571.166	1	-4
571.336	1	3
571.506	1	0
571.676	1	4
571.846	1	6
572.015	1	-1
572.185	1	-3
572.355	1	16
572.525	1	1
572.695	1	8
572.865	1	-3
573.035	1	-3
573.205	1	14
573.374	1	0
573.544	1	-5
573.714	1	14
573.884	1	3
574.054	1	11
574.224	1	6
574.394	1	0
574.563	1	1
574.733	1	1
574.903	1	-2
575.073	1	4
575.243	1	-5
575.413	1	4
575.583	1	12
575.752	1	-6
575.922	1	9
576.092	1	9
576.262	1	-8
576.432	1	-11
576.602	1	0
576.772	1	-4
576.941	1	-1
577.111	1	2
577.281	1	-2
577.451	1	2
577.621	1	4
577.791	1	4
577.960	1	3
578.130	1	-5
578.300	1	-4
578.470	1	3
578.640	1	-3
578.810	1	3
578.979	1	0
579.149	1	0
579.319	1	5
579.489	1	-6
579.659	1	2
579.829	1	9
579.998	1	-14
580.168	1	4
580.338	1	-12
580.508	1	4
580.678	1	-7
580.848	1	6
581.017	1	4
581.187	1	9
581.357	1	-4
581.527	1	6
581.697	1	-15
581.867	1	-4
582.036	1	4
582.206	1	-12
582.376	1	6
582.546	1	0
582.716	1	-1
582.885	1	0
583.055	1	4
583.225	1	7
583.395	1	2
583.565	1	10
583.735	1	-3
583.904	1	0
584.074	1	-9
584.244	1	-4
584.414	1	4
584.584	1	12
584.753	1	-6
584.923	1	0
585.093	1	9
585.263	1	0
585.433	1	3
585.602	1	-3
585.772	1	-3
585.942	1	8
586.112	1	8
586.282	1	2
586.451	1	2
586.621	1	3
586.791	1	0
586.961	1	-2
587.131	1	-9
587.300	1	-10
587.470	1	4
587.640	1	-10
587.810	1	-3
587.980	1	7
588.149	1	-1
588.319	1	5
588.489	1	1
588.659	1	3
588.829	1	4
588.998	1	0
589.168	1	2
589.338	1	12
589.508	1	4
589.677	1	7
589.847	1	7
590.017	1	-7
590.187	1	-3
590.357	1	-1
590.526	1	5
590.696	1	-3
590.866	1	0
591.036	1	-1
591.205	1	9
591.375	1	-11
591.545	1	-8
591.715	1	-5
591.885	1	7
592.054	1	6
592.224	1	-1
592.394	1	3
592.564	1	0
592.733	1	-6
592.903	1	6
593.073	1	9
593.243	1	-2
593.412	1	1
593.582	1	11
593.752	1	-5
593.922	1	-1
594.091	1	5
594.261	1	7
594.431	1	-2
594.601	1	-10
594.771	1	-1
594.940	1	-3
595.110	1	2
595.280	1	-4
595.450	1	2
595.619	1	5
595.789	1	17
595.959	1	3
596.129	1	-1
596.298	1	9
596.468	1	-3
596.638	1	4
596.808	1	3
596.977	1	-2
597.147	1	9
597.317	1	3
597.487	1	3
597.656	1	7
597.826	1	-3
597.996	1	4
598.166	1	0
598.335	1	0
598.505	1	-4
598.675	1	0
598.844	1	0
599.014	1	3
599.184	1	-7
599.354	1	-10
599.523	1	2
599.693	1	6
599.863	1	9
600.033	1	0
600.202	1	2
600.372	1	-6
600.542	1	-8
600.712	1	-5
600.881	1	-6
601.051	1	1
601.221	1	2
601.390	1	-7
601.560	1	-2
601.730	1	-11
601.900	1	0
602.069	1	-2
602.239	1	-8
602.409	1	-9
602.578	1	-8
602.748	1	-4
602.918	1	-1
603.088	1	3
603.257	1	8
603.427	1	-1
603.597	1	16
603.767	1	-8
603.936	1	1
604.106	1	2
604.276	1	0
604.445	1	6
604.615	1	2
604.785	1	4
604.954	1	7
605.124	1	-14
605.294	1	0
605.464	1	-1
605.633	1	6
605.803	1	2
605.973	1	2
606.142	1	0
606.312	1	-7
606.482	1	-2
606.652	1	-7
606.821	1	2
606.991	1	-3
607.161	1	-3
607.330	1	10
607.500	1	7
607.670	1	4
607.839	1	7
608.009	1	-6
608.179	1	3
608.348	1	8
608.518	1	1
608.688	1	7
608.858	1	-3
609.027	1	3
609.197	1	-8
609.367	1	-1
609.536	1	1
609.706	1	0
609.876	1	11
610.045	1	-2
610.215	1	4
610.385	1	-1
610.554	1	-2
610.724	1	0
610.894	1	5
611.063	1	8
611.233	1	-8
611.403	1	6
611.572	1	1
611.742	1	-5
611.912	1	-8
612.081	1	-6
612.251	1	9
612.421	1	7
612.590	1	-1
612.760	1	-5
612.930	1	5
613.099	1	-7
613.269	1	0
613.439	1	-7
613.608	1	4
613.778	1	-4
613.948	1	9
614.117	1	6
614.287	1	-14
614.457	1	9
614.626	1	3
614.796	1	2
614.966	1	5
615.135	1	0
615.305	1	-8
615.475	1	13
615.644	1	-4
615.814	1	-5
615.984	1	8
616.153	1	5
616.323	1	-1
616.493	1	6
616.662	1	-4
616.832	1	1
617.002	1	-3
617.171	1	-9
617.341	1	3
617.511	1	2
617.680	1	1
617.850	1	-1
618.019	1	1
618.189	1	-9
618.359	1	3
618.528	1	-7
618.698	1	-5
618.868	1	11
619.037	1	3
619.207	1	-7
619.377	1	-14
619.546	1	-6
619.716	1	-6
619.885	1	6
620.055	1	9
620.225	1	11
620.394	1	-5
620.564	1	-4
620.734	1	0
620.903	1	16
621.073	1	-2
621.242	1	-7
621.412	1	-2
621.582	1	3
621.751	1	4
621.921	1	-2
622.091	1	-9
622.260	1	0
622.430	1	4
622.599	1	12
622.769	1	2
622.939	1	1
623.108	1	-3
623.278	1	3
623.448	1	-13
623.617	1	6
623.787	1	-2
623.956	1	-4
624.126	1	-2
624.296	1	6
624.465	1	3
624.635	1	10
624.804	1	-7
624.974	1	-3
625.144	1	-4
625.313	1	0
625.483	1	8
625.652	1	6
625.822	1	7
625.992	1	-10
626.161	1	13
626.331	1	4
626.501	1	3
626.670	1	-1
626.840	1	6
627.009	1	-4
627.179	1	5
627.348	1	-9
627.518	1	4
627.688	1	0
627.857	1	16
628.027	1	3
628.196	1	7
628.366	1	6
628.536	1	-4
628.705	1	-9
628.875	1	0
629.044	1	3
629.214	1	4
629.384	1	-7
629.553	1	5
629.723	1	4
629.892	1	1
630.062	1	3
630.232	1	7
630.401	1	2
630.571	1	-1
630.740	1	6
630.910	1	4
631.079	1	8
631.249	1	-11
631.419	1	10
631.588	1	-4
631.758	1	1
631.927	1	-6
632.097	1	16
632.266	1	-10
632.436	1	-11
632.606	1	0
632.775	1	-3
632.945	1	-3
633.114	1	5
633.284	1	-5
633.453	1	-4
633.623	1	-4
633.793	1	8
633.962	1	5
634.132	1	0
634.301	1	-8
634.471	1	-6
634.640	1	4
634.810	1	5
634.979	1	7
635.149	1	1
635.319	1	-7
635.488	1	-7
635.658	1	-9
635.827	1	-4
635.997	1	5
636.166	1	1
636.336	1	2
636.505	1	-4
636.675	1	-7
636.845	1	4
637.014	1	9
637.184	1	-2
637.353	1	9
637.523	1	-10
637.692	1	7
637.862	1	-9
638.031	1	8
638.201	1	2
638.370	1	-2
638.540	1	6
638.710	1	1
638.879	1	-6
639.049	1	12
639.218	1	4
639.388	1	-1
639.557	1	5
639.727	1	8
639.896	1	1
640.066	1	3
640.235	1	1
640.405	1	6
640.574	1	-4
640.744	1	-2
640.914	1	-8
641.083	1	4
641.253	1	5
641.422	1	-9
641.592	1	-2
641.761	1	4
641.931	1	3
642.100	1	-6
642.270	1	0
642.439	1	-1
642.609	1	7
642.778	1	8
642.948	1	1
643.117	1	4
643.287	1	-4
643.456	1	14
643.626	1	6
643.795	1	3
643.965	1	-7
644.134	1	-2
644.304	1	-6
644.473	1	0
644.643	1	9
644.812	1	11
644.982	1	8
645.151	1	-6
645.321	1	12
645.490	1	9
645.660	1	-19
645.829	1	-5
645.999	1	-7
646.168	1	0
646.338	1	13
646.507	1	9
646.677	1	0
646.846	1	16
647.016	1	2
647.185	1	-5
647.355	1	2
647.524	1	5
647.694	1	0
647.863	1	-10
648.033	1	-8
648.202	1	6
648.372	1	5
648.541	1	0
648.711	1	5
648.880	1	2
649.050	1	-6
649.219	1	4
649.389	1	5
649.558	1	-8
649.728	1	5
649.897	1	-4
650.067	1	2
650.236	1	5
650.406	1	11
650.575	1	-4
650.745	1	-3
650.914	1	-5
651.084	1	-8
651.253	1	7
651.423	1	0
651.592	1	4
651.762	1	6
651.931	1	4
652.101	1	-2
652.270	1	4
652.440	1	-2
652.609	1	3
652.778	1	2
652.948	1	-1
653.117	1	1
653.287	1	8
653.456	1	7
653.626	1	4
653.795	1	13
653.965	1	3
654.134	1	13
654.304	1	-5
654.473	1	7
654.643	1	13
654.812	1	-3
654.982	1	-9
655.151	1	-11
655.320	1	1
655.490	1	12
655.659	1	-5
655.829	1	-7
655.998	1	3
656.168	1	2
656.337	1	-4
656.507	1	10
656.676	1	-9
656.846	1	-12
657.015	1	0
657.184	1	10
657.354	1	5
657.523	1	-4
657.693	1	-7
657.862	1	-6
658.032	1	10
658.201	1	-1
658.371	1	-6
658.540	1	-3
658.709	1	-7
658.879	1	0
659.048	1	7
659.218	1	4
659.387	1	0
659.557	1	8
659.726	1	4
659.895	1	2
660.065	1	6
660.234	1	1
660.404	1	2
660.573	1	-2
660.743	1	2
660.912	1	0
661.081	1	10
661.251	1	2
661.420	1	5
661.590	1	-1
661.759	1	4
661.929	1	1
662.098	1	-13
662.267	1	8
662.437	1	0
662.606	1	3
662.776	1	5
662.945	1	3
663.115	1	-4
663.284	1	6
663.453	1	6
663.623	1	-1
663.792	1	-2
663.962	1	2
664.131	1	-6
664.300	1	6
664.470	1	-8
664.639	1	3
664.809	1	-1
664.978	1	0
665.148	1	-5
665.317	1	-4
665.486	1	-11
665.656	1	-9
665.825	1	6
665.995	1	8
666.164	1	1
666.333	1	12
666.503	1	1
666.672	1	-19
666.842	1	-2
667.011	1	4
667.180	1	-1
667.350	1	4
667.519	1	1
667.689	1	-2
667.858	1	12
668.027	1	-4
668.197	1	9
668.366	1	-8
668.536	1	-4
668.705	1	7
668.874	1	0
669.044	1	-5
669.213	1	9
669.382	1	-5
669.552	1	16
669.721	1	-10
669.891	1	0
670.060	1	2
670.229	1	4
670.399	1	6
670.568	1	16
670.738	1	-6
670.907	1	-2
671.076	1	3
671.246	1	3
671.415	1	9
671.584	1	-2
671.754	1	-6
671.923	1	-12
672.093	1	5
672.262	1	2
672.431	1	-1
672.601	1	-5
672.770	1	-3
672.939	1	-6
673.109	1	1
673.278	1	3
673.448	1	-3
673.617	1	2
673.786	1	-1
