325.333	1	-1
325.504	1	10
325.675	1	5
325.846	1	1
326.017	1	1
326.188	1	10
326.359	1	4
326.531	1	-1
326.702	1	3
326.873	1	1
327.044	1	7
327.215	1	0
327.386	1	2
327.557	1	4
327.728	1	-7
327.899	1	1
328.070	1	1
328.241	1	-7
328.412	1	1
328.583	1	-8
328.754	1	-8
328.926	1	8
329.097	1	10
329.268	1	3
329.439	1	-2
329.610	1	-4
329.781	1	-13
329.952	1	14
330.123	1	4
330.294	1	10
330.465	1	-2
330.636	1	1
330.807	1	10
330.978	1	3
331.149	1	8
331.320	1	2
331.492	1	-12
331.663	1	-9
331.834	1	9
332.005	1	9
332.176	1	5
332.347	1	3
332.518	1	4
332.689	1	3
332.860	1	3
333.031	1	1
333.202	1	0
333.373	1	-3
333.544	1	-7
333.715	1	6
333.886	1	7
334.057	1	-2
334.228	1	-4
334.399	1	3
334.570	1	1
334.741	1	-7
334.912	1	-8
335.084	1	4
335.255	1	5
335.426	1	-1
335.597	1	4
335.768	1	-4
335.939	1	2
336.110	1	-10
336.281	1	-2
336.452	1	-1
336.623	1	7
336.794	1	-5
336.965	1	3
337.136	1	-2
337.307	1	7
337.478	1	7
337.649	1	0
337.820	1	20
337.991	1	8
338.162	1	9
338.333	1	-2
338.504	1	1
338.675	1	12
338.846	1	4
339.017	1	-12
339.188	1	11
339.359	1	10
339.530	1	7
339.701	1	-5
339.872	1	-7
340.043	1	7
340.214	1	1
340.385	1	2
340.556	1	2
340.727	1	-7
340.898	1	0
341.069	1	3
341.240	1	7
341.411	1	5
341.582	1	-3
341.753	1	0
341.924	1	-8
342.095	1	14
342.266	1	0
342.437	1	4
342.608	1	1
342.779	1	-5
342.950	1	-2
343.121	1	13
343.292	1	0
343.463	1	-3
343.634	1	-7
343.805	1	4
343.976	1	14
344.147	1	-1
344.318	1	8
344.489	1	-10
344.660	1	19
344.831	1	1
345.002	1	1
345.173	1	0
345.344	1	-4
345.515	1	6
345.686	1	-8
345.857	1	-1
346.028	1	-15
346.199	1	-2
346.370	1	-1
346.541	1	-3
346.712	1	1
346.883	1	-3
347.054	1	-1
347.225	1	2
347.396	1	7
347.567	1	0
347.738	1	5
347.909	1	2
348.080	1	2
348.251	1	5
348.422	1	7
348.593	1	1
348.764	1	7
348.935	1	8
349.106	1	11
349.277	1	-11
349.448	1	0
349.619	1	0
349.790	1	8
349.961	1	-1
350.132	1	4
350.303	1	3
350.474	1	8
350.645	1	0
350.816	1	2
350.987	1	8
351.157	1	9
351.328	1	1
351.499	1	6
351.670	1	11
351.841	1	2
352.012	1	-3
352.183	1	5
352.354	1	9
352.525	1	5
352.696	1	-1
352.867	1	1
353.038	1	15
353.209	1	8
353.380	1	0
353.551	1	0
353.722	1	11
353.893	1	9
354.064	1	5
354.235	1	0
354.406	1	-8
354.576	1	3
354.747	1	-1
354.918	1	-10
355.089	1	-2
355.260	1	9
355.431	1	10
355.602	1	13
355.773	1	-8
355.944	1	5
356.115	1	2
356.286	1	0
356.457	1	3
356.628	1	12
356.799	1	10
356.970	1	0
357.141	1	-3
357.311	1	-2
357.482	1	12
357.653	1	7
357.824	1	6
357.995	1	2
358.166	1	5
358.337	1	14
358.508	1	10
358.679	1	22
358.850	1	13
359.021	1	-6
359.192	1	14
359.363	1	4
359.533	1	5
359.704	1	3
359.875	1	10
360.046	1	8
360.217	1	19
360.388	1	18
360.559	1	14
360.730	1	16
360.901	1	21
361.072	1	7
361.243	1	14
361.414	1	21
361.584	1	15
361.755	1	19
361.926	1	25
362.097	1	9
362.268	1	20
362.439	1	12
362.610	1	9
362.781	1	17
362.952	1	21
363.123	1	21
363.293	1	7
363.464	1	24
363.635	1	18
363.806	1	22
363.977	1	27
364.148	1	23
364.319	1	19
364.490	1	11
364.661	1	34
364.832	1	25
365.002	1	32
365.173	1	34
365.344	1	16
365.515	1	41
365.686	1	37
365.857	1	35
366.028	1	35
366.199	1	40
366.370	1	38
366.540	1	31
366.711	1	36
366.882	1	39
367.053	1	24
367.224	1	37
367.395	1	32
367.566	1	25
367.737	1	23
367.908	1	34
368.078	1	32
368.249	1	29
368.420	1	34
368.591	1	34
368.762	1	23
368.933	1	24
369.104	1	32
369.274	1	19
369.445	1	24
369.616	1	29
369.787	1	25
369.958	1	10
370.129	1	30
370.300	1	16
370.471	1	26
370.641	1	14
370.812	1	24
370.983	1	21
371.154	1	18
371.325	1	14
371.496	1	12
371.667	1	16
371.837	1	10
372.008	1	19
372.179	1	30
372.350	1	14
372.521	1	12
372.692	1	17
372.863	1	20
373.033	1	22
373.204	1	14
373.375	1	18
373.546	1	15
373.717	1	13
373.888	1	8
374.059	1	15
374.229	1	5
374.400	1	16
374.571	1	0
374.742	1	24
374.913	1	4
375.084	1	10
375.254	1	20
375.425	1	18
375.596	1	-4
375.767	1	17
375.938	1	21
376.109	1	9
376.279	1	1
376.450	1	13
376.621	1	25
376.792	1	7
376.963	1	13
377.134	1	5
377.304	1	14
377.475	1	14
377.646	1	10
377.817	1	20
377.988	1	-5
378.159	1	18
378.329	1	13
378.500	1	6
378.671	1	-1
378.842	1	7
379.013	1	10
379.184	1	9
379.354	1	8
379.525	1	21
379.696	1	2
379.867	1	10
380.038	1	13
380.209	1	25
380.379	1	8
380.550	1	16
380.721	1	14
380.892	1	21
381.063	1	17
381.233	1	23
381.404	1	18
381.575	1	11
381.746	1	29
381.917	1	9
382.087	1	17
382.258	1	29
382.429	1	29
382.600	1	30
382.771	1	33
382.941	1	25
383.112	1	42
383.283	1	34
383.454	1	39
383.625	1	30
383.795	1	47
383.966	1	41
384.137	1	43
384.308	1	44
384.479	1	55
384.649	1	38
384.820	1	48
384.991	1	46
385.162	1	48
385.333	1	52
385.503	1	46
385.674	1	64
385.845	1	55
386.016	1	63
386.187	1	58
386.357	1	57
386.528	1	63
386.699	1	65
386.870	1	71
387.041	1	63
387.211	1	52
387.382	1	50
387.553	1	59
387.724	1	48
387.894	1	56
388.065	1	55
388.236	1	63
388.407	1	56
388.578	1	48
388.748	1	44
388.919	1	57
389.090	1	72
389.261	1	39
389.431	1	55
389.602	1	55
389.773	1	44
389.944	1	47
390.114	1	54
390.285	1	46
390.456	1	50
390.627	1	43
390.798	1	56
390.968	1	46
391.139	1	39
391.310	1	48
391.481	1	56
391.651	1	56
391.822	1	55
391.993	1	43
392.164	1	41
392.334	1	46
392.505	1	38
392.676	1	45
392.847	1	49
393.017	1	44
393.188	1	42
393.359	1	58
393.530	1	48
393.700	1	49
393.871	1	34
394.042	1	51
394.213	1	42
394.383	1	46
394.554	1	47
394.725	1	47
394.896	1	45
395.066	1	62
395.237	1	51
395.408	1	55
395.579	1	49
395.749	1	48
395.920	1	46
396.091	1	46
396.262	1	49
396.432	1	44
396.603	1	60
396.774	1	46
396.945	1	58
397.115	1	63
397.286	1	65
397.457	1	48
397.627	1	54
397.798	1	41
397.969	1	47
398.140	1	51
398.310	1	64
398.481	1	41
398.652	1	59
398.823	1	52
398.993	1	45
399.164	1	54
399.335	1	48
399.505	1	46
399.676	1	50
399.847	1	49
400.018	1	51
400.188	1	50
400.359	1	41
400.530	1	44
400.700	1	35
400.871	1	37
401.042	1	45
401.213	1	32
401.383	1	48
401.554	1	44
401.725	1	37
401.895	1	40
402.066	1	39
402.237	1	40
402.408	1	33
402.578	1	37
402.749	1	37
402.920	1	33
403.090	1	35
403.261	1	45
403.432	1	24
403.603	1	42
403.773	1	38
403.944	1	40
404.115	1	27
404.285	1	36
404.456	1	38
404.627	1	34
404.797	1	53
404.968	1	36
405.139	1	37
405.310	1	40
405.480	1	38
405.651	1	31
405.822	1	43
405.992	1	32
406.163	1	46
406.334	1	34
406.504	1	36
406.675	1	43
406.846	1	36
407.016	1	35
407.187	1	40
407.358	1	30
407.528	1	37
407.699	1	46
407.870	1	40
408.041	1	30
408.211	1	36
408.382	1	37
408.553	1	35
408.723	1	34
408.894	1	26
409.065	1	34
409.235	1	27
409.406	1	40
409.577	1	36
409.747	1	31
409.918	1	29
410.089	1	34
410.259	1	29
410.430	1	35
410.601	1	27
410.771	1	28
410.942	1	32
411.113	1	34
411.283	1	17
411.454	1	21
411.625	1	29
411.795	1	29
411.966	1	12
412.137	1	36
412.307	1	25
412.478	1	35
412.649	1	23
412.819	1	29
412.990	1	26
413.161	1	18
413.331	1	10
413.502	1	33
413.672	1	22
413.843	1	19
414.014	1	15
414.184	1	18
414.355	1	4
414.526	1	16
414.696	1	20
414.867	1	19
415.038	1	18
415.208	1	16
415.379	1	33
415.550	1	20
415.720	1	20
415.891	1	38
416.062	1	21
416.232	1	18
416.403	1	33
416.573	1	27
416.744	1	16
416.915	1	28
417.085	1	13
417.256	1	20
417.427	1	24
417.597	1	4
417.768	1	7
417.939	1	7
418.109	1	20
418.280	1	19
418.450	1	19
418.621	1	21
418.792	1	18
418.962	1	15
419.133	1	28
419.304	1	14
419.474	1	21
419.645	1	18
419.815	1	14
419.986	1	25
420.157	1	20
420.327	1	14
420.498	1	23
420.669	1	18
420.839	1	21
421.010	1	20
421.180	1	9
421.351	1	16
421.522	1	27
421.692	1	18
421.863	1	18
422.033	1	6
422.204	1	12
422.375	1	8
422.545	1	18
422.716	1	20
422.886	1	19
423.057	1	9
423.228	1	2
423.398	1	20
423.569	1	14
423.740	1	-1
423.910	1	13
424.081	1	21
424.251	1	16
424.422	1	11
424.593	1	17
424.763	1	6
424.934	1	4
425.104	1	15
425.275	1	9
425.445	1	9
425.616	1	14
425.787	1	4
425.957	1	29
426.128	1	1
426.298	1	3
426.469	1	13
426.640	1	0
426.810	1	21
426.981	1	13
427.151	1	18
427.322	1	1
427.493	1	14
427.663	1	8
427.834	1	8
428.004	1	12
428.175	1	7
428.345	1	15
428.516	1	10
428.687	1	12
428.857	1	12
429.028	1	14
429.198	1	6
429.369	1	14
429.540	1	19
429.710	1	5
429.881	1	12
430.051	1	15
430.222	1	5
430.392	1	12
430.563	1	21
430.734	1	11
430.904	1	11
431.075	1	15
431.245	1	15
431.416	1	3
431.586	1	4
431.757	1	15
431.927	1	13
432.098	1	4
432.269	1	8
432.439	1	-1
432.610	1	-5
432.780	1	0
432.951	1	2
433.121	1	2
433.292	1	7
433.462	1	8
433.633	1	6
433.804	1	4
433.974	1	-3
434.145	1	8
434.315	1	8
434.486	1	15
434.656	1	12
434.827	1	9
434.997	1	3
435.168	1	6
435.339	1	1
435.509	1	9
435.680	1	-2
435.850	1	10
436.021	1	17
436.191	1	6
436.362	1	3
436.532	1	7
436.703	1	10
436.873	1	-4
437.044	1	11
437.214	1	4
437.385	1	12
437.556	1	3
437.726	1	8
437.897	1	9
438.067	1	9
438.238	1	-4
438.408	1	9
438.579	1	12
438.749	1	6
438.920	1	-4
439.090	1	6
439.261	1	8
439.431	1	3
439.602	1	10
439.772	1	8
439.943	1	7
440.113	1	7
440.284	1	6
440.455	1	7
440.625	1	3
440.796	1	12
440.966	1	12
441.137	1	-4
441.307	1	3
441.478	1	10
441.648	1	-3
441.819	1	12
441.989	1	3
442.160	1	4
442.330	1	15
442.501	1	-6
442.671	1	7
442.842	1	6
443.012	1	-2
443.183	1	8
443.353	1	12
443.524	1	11
443.694	1	4
443.865	1	7
444.035	1	0
444.206	1	14
444.376	1	11
444.547	1	1
444.717	1	13
444.888	1	1
445.058	1	4
445.229	1	6
445.399	1	16
445.570	1	7
445.740	1	10
445.911	1	16
446.081	1	7
446.252	1	-10
446.422	1	10
446.593	1	4
446.763	1	11
446.934	1	14
447.104	1	-4
447.275	1	1
447.445	1	-2
447.616	1	2
447.786	1	5
447.957	1	6
448.127	1	1
448.298	1	8
448.468	1	8
448.639	1	3
448.809	1	4
448.979	1	10
449.150	1	8
449.320	1	3
449.491	1	6
449.661	1	9
449.832	1	7
450.002	1	0
450.173	1	-1
450.343	1	1
450.514	1	2
450.684	1	-2
450.855	1	9
451.025	1	2
451.196	1	-1
451.366	1	2
451.537	1	6
451.707	1	12
451.878	1	-1
452.048	1	2
452.218	1	-1
452.389	1	7
452.559	1	0
452.730	1	4
452.900	1	-3
453.071	1	3
453.241	1	-4
453.412	1	-1
453.582	1	14
453.753	1	-7
453.923	1	0
454.093	1	8
454.264	1	1
454.434	1	10
454.605	1	7
454.775	1	7
454.946	1	3
455.116	1	12
455.287	1	13
455.457	1	2
455.628	1	-7
455.798	1	-11
455.968	1	13
456.139	1	9
456.309	1	-7
456.480	1	-2
456.650	1	7
456.821	1	5
456.991	1	12
457.161	1	3
457.332	1	0
457.502	1	5
457.673	1	-4
457.843	1	5
458.014	1	-6
458.184	1	7
458.355	1	14
458.525	1	-2
458.695	1	9
458.866	1	1
459.036	1	6
459.207	1	0
459.377	1	3
459.548	1	10
459.718	1	-3
459.888	1	10
460.059	1	10
460.229	1	5
460.400	1	1
460.570	1	-9
460.740	1	-5
460.911	1	19
461.081	1	-1
461.252	1	5
461.422	1	12
461.593	1	-3
461.763	1	3
461.933	1	-7
462.104	1	3
462.274	1	8
462.445	1	-4
462.615	1	-5
462.785	1	2
462.956	1	6
463.126	1	-8
463.297	1	-8
463.467	1	4
463.638	1	6
463.808	1	5
463.978	1	12
464.149	1	-4
464.319	1	3
464.490	1	-11
464.660	1	8
464.830	1	15
465.001	1	6
465.171	1	7
465.342	1	4
465.512	1	9
465.682	1	-7
465.853	1	-1
466.023	1	4
466.194	1	3
466.364	1	9
466.534	1	8
466.705	1	8
466.875	1	3
467.045	1	1
467.216	1	-2
467.386	1	2
467.557	1	1
467.727	1	5
467.897	1	9
468.068	1	13
468.238	1	-3
468.409	1	9
468.579	1	13
468.749	1	7
468.920	1	3
469.090	1	11
469.260	1	14
469.431	1	14
469.601	1	6
469.772	1	-9
469.942	1	3
470.112	1	8
470.283	1	15
470.453	1	8
470.623	1	0
470.794	1	5
470.964	1	-3
471.135	1	1
471.305	1	5
471.475	1	0
471.646	1	14
471.816	1	5
471.986	1	5
472.157	1	8
472.327	1	8
472.497	1	-3
472.668	1	2
472.838	1	5
473.009	1	8
473.179	1	3
473.349	1	7
473.520	1	9
473.690	1	12
473.860	1	-5
474.031	1	-3
474.201	1	2
474.371	1	-7
474.542	1	-3
474.712	1	5
474.882	1	0
475.053	1	-2
475.223	1	3
475.394	1	9
475.564	1	17
475.734	1	-2
475.905	1	6
476.075	1	2
476.245	1	-1
476.416	1	3
476.586	1	-5
476.756	1	7
476.927	1	-1
477.097	1	-4
477.267	1	-4
477.438	1	-2
477.608	1	2
477.778	1	8
477.949	1	8
478.119	1	5
478.289	1	11
478.460	1	5
478.630	1	1
478.800	1	1
478.971	1	13
479.141	1	5
479.311	1	4
479.482	1	-6
479.652	1	6
479.822	1	-7
479.993	1	-6
480.163	1	-7
480.333	1	-4
480.504	1	0
480.674	1	10
480.844	1	14
481.015	1	-3
481.185	1	4
481.355	1	4
481.525	1	11
481.696	1	11
481.866	1	-1
482.036	1	-3
482.207	1	11
482.377	1	5
482.547	1	5
482.718	1	12
482.888	1	-3
483.058	1	-10
483.229	1	0
483.399	1	1
483.569	1	7
483.740	1	1
483.910	1	14
484.080	1	-5
484.250	1	7
484.421	1	7
484.591	1	11
484.761	1	-5
484.932	1	6
485.102	1	6
485.272	1	10
485.443	1	8
485.613	1	-10
485.783	1	18
485.953	1	3
486.124	1	5
486.294	1	18
486.464	1	2
486.635	1	11
486.805	1	14
486.975	1	0
487.146	1	7
487.316	1	13
487.486	1	1
487.656	1	-10
487.827	1	6
487.997	1	7
488.167	1	0
488.338	1	22
488.508	1	14
488.678	1	13
488.848	1	5
489.019	1	0
489.189	1	-3
489.359	1	6
489.529	1	11
489.700	1	9
489.870	1	2
490.040	1	7
490.211	1	21
490.381	1	4
490.551	1	0
490.721	1	13
490.892	1	3
491.062	1	4
491.232	1	-1
491.402	1	6
491.573	1	16
491.743	1	-13
491.913	1	10
492.084	1	11
492.254	1	5
492.424	1	8
492.594	1	3
492.765	1	7
492.935	1	-5
493.105	1	12
493.275	1	4
493.446	1	-5
493.616	1	5
493.786	1	12
493.956	1	16
494.127	1	7
494.297	1	8
494.467	1	12
494.637	1	2
494.808	1	19
494.978	1	4
495.148	1	16
495.318	1	15
495.489	1	11
495.659	1	10
495.829	1	8
495.999	1	13
496.170	1	2
496.340	1	2
496.510	1	1
496.680	1	5
496.851	1	10
497.021	1	7
497.191	1	2
497.361	1	15
497.532	1	16
497.702	1	5
497.872	1	7
498.042	1	12
498.213	1	8
498.383	1	6
498.553	1	9
498.723	1	6
498.894	1	3
499.064	1	22
499.234	1	15
499.404	1	12
499.574	1	15
499.745	1	9
499.915	1	17
500.085	1	3
500.255	1	14
500.426	1	9
500.596	1	13
500.766	1	14
500.936	1	14
501.106	1	6
501.277	1	6
501.447	1	13
501.617	1	5
501.787	1	2
501.958	1	7
502.128	1	17
502.298	1	14
502.468	1	15
502.638	1	22
502.809	1	17
502.979	1	15
503.149	1	9
503.319	1	13
503.489	1	17
503.660	1	4
503.830	1	20
504.000	1	10
504.170	1	9
504.340	1	9
504.511	1	23
504.681	1	8
504.851	1	11
505.021	1	11
505.192	1	17
505.362	1	23
505.532	1	19
505.702	1	16
505.872	1	14
506.043	1	17
506.213	1	24
506.383	1	18
506.553	1	20
506.723	1	15
506.893	1	17
507.064	1	14
507.234	1	21
507.404	1	12
507.574	1	20
507.744	1	5
507.915	1	27
508.085	1	27
508.255	1	20
508.425	1	25
508.595	1	10
508.766	1	15
508.936	1	14
509.106	1	16
509.276	1	25
509.446	1	14
509.616	1	22
509.787	1	10
509.957	1	16
510.127	1	26
510.297	1	11
510.467	1	13
510.638	1	7
510.808	1	20
510.978	1	-2
511.148	1	42
511.318	1	14
511.488	1	25
511.659	1	36
511.829	1	19
511.999	1	24
512.169	1	24
512.339	1	17
512.509	1	16
512.680	1	24
512.850	1	23
513.020	1	25
513.190	1	16
513.360	1	28
513.530	1	15
513.700	1	27
513.871	1	25
514.041	1	18
514.211	1	12
514.381	1	17
514.551	1	20
514.721	1	14
514.892	1	26
515.062	1	18
515.232	1	26
515.402	1	11
515.572	1	21
515.742	1	19
515.912	1	32
516.083	1	23
516.253	1	21
516.423	1	25
516.593	1	15
516.763	1	17
516.933	1	24
517.104	1	23
517.274	1	26
517.444	1	26
517.614	1	17
517.784	1	15
517.954	1	13
518.124	1	35
518.294	1	34
518.465	1	28
518.635	1	14
518.805	1	32
518.975	1	31
519.145	1	35
519.315	1	30
519.485	1	6
519.656	1	39
519.826	1	21
519.996	1	25
520.166	1	35
520.336	1	11
520.506	1	34
520.676	1	32
520.846	1	25
521.017	1	13
521.187	1	16
521.357	1	25
521.527	1	24
521.697	1	23
521.867	1	32
522.037	1	21
522.207	1	13
522.377	1	28
522.548	1	9
522.718	1	22
522.888	1	11
523.058	1	42
523.228	1	30
523.398	1	28
523.568	1	8
523.738	1	18
523.909	1	29
524.079	1	29
524.249	1	26
524.419	1	27
524.589	1	31
524.759	1	24
524.929	1	19
525.099	1	32
525.269	1	31
525.439	1	20
525.610	1	36
525.780	1	40
525.950	1	18
526.120	1	26
526.290	1	22
526.460	1	26
526.630	1	31
526.800	1	18
526.970	1	19
527.140	1	28
527.311	1	22
527.481	1	33
527.651	1	44
527.821	1	21
527.991	1	28
528.161	1	30
528.331	1	35
528.501	1	19
528.671	1	31
528.841	1	40
529.011	1	18
529.181	1	33
529.352	1	36
529.522	1	24
529.692	1	41
529.862	1	35
530.032	1	23
530.202	1	37
530.372	1	29
530.542	1	24
530.712	1	47
530.882	1	22
531.052	1	42
531.222	1	22
531.392	1	24
531.563	1	38
531.733	1	39
531.903	1	30
532.073	1	39
532.243	1	29
532.413	1	33
532.583	1	28
532.753	1	37
532.923	1	34
533.093	1	40
533.263	1	37
533.433	1	38
533.603	1	40
533.773	1	30
533.943	1	31
534.113	1	39
534.284	1	44
534.454	1	34
534.624	1	38
534.794	1	31
534.964	1	27
535.134	1	40
535.304	1	45
535.474	1	35
535.644	1	40
535.814	1	32
535.984	1	21
536.154	1	26
536.324	1	42
536.494	1	35
536.664	1	50
536.834	1	38
537.004	1	45
537.174	1	35
537.344	1	36
537.514	1	35
537.685	1	28
537.855	1	30
538.025	1	27
538.195	1	37
538.365	1	32
538.535	1	41
538.705	1	25
538.875	1	25
539.045	1	34
539.215	1	20
539.385	1	27
539.555	1	25
539.725	1	36
539.895	1	32
540.065	1	29
540.235	1	24
540.405	1	31
540.575	1	32
540.745	1	32
540.915	1	34
541.085	1	15
541.255	1	21
541.425	1	25
541.595	1	26
541.765	1	23
541.935	1	54
542.105	1	20
542.275	1	13
542.445	1	34
542.615	1	24
542.785	1	31
542.955	1	33
543.125	1	24
543.295	1	33
543.465	1	36
543.635	1	28
543.805	1	35
543.975	1	25
544.145	1	14
544.315	1	24
544.485	1	17
544.655	1	24
544.825	1	32
544.995	1	28
545.165	1	29
545.335	1	21
545.505	1	14
545.675	1	33
545.845	1	12
546.015	1	21
546.185	1	27
546.355	1	32
546.525	1	19
546.695	1	17
546.865	1	20
547.035	1	26
547.205	1	18
547.375	1	33
547.545	1	34
547.715	1	18
547.885	1	38
548.055	1	34
548.225	1	8
548.395	1	29
548.565	1	27
548.735	1	31
548.905	1	18
549.075	1	27
549.245	1	22
549.415	1	30
549.585	1	33
549.755	1	30
549.925	1	25
550.095	1	33
550.265	1	15
550.435	1	27
550.605	1	32
550.775	1	17
550.945	1	34
551.115	1	11
551.285	1	25
551.455	1	28
551.625	1	16
551.795	1	17
551.965	1	17
552.135	1	27
552.305	1	20
552.475	1	26
552.645	1	35
552.815	1	24
552.985	1	29
553.155	1	32
553.325	1	36
553.495	1	16
553.665	1	28
553.835	1	29
554.004	1	17
554.174	1	9
554.344	1	22
554.514	1	27
554.684	1	23
554.854	1	17
555.024	1	13
555.194	1	40
555.364	1	22
555.534	1	20
555.704	1	28
555.874	1	9
556.044	1	23
556.214	1	16
556.384	1	22
556.554	1	20
556.724	1	28
556.894	1	24
557.064	1	19
557.234	1	20
557.404	1	17
557.573	1	20
557.743	1	23
557.913	1	22
558.083	1	12
558.253	1	19
558.423	1	8
558.593	1	16
558.763	1	19
558.933	1	20
559.103	1	11
559.273	1	15
559.443	1	15
559.613	1	18
559.783	1	22
559.953	1	18
560.122	1	7
560.292	1	24
560.462	1	16
560.632	1	8
560.802	1	15
560.972	1	20
561.142	1	20
561.312	1	21
561.482	1	18
561.652	1	29
561.822	1	19
561.992	1	18
562.162	1	13
562.331	1	13
562.501	1	14
562.671	1	17
562.841	1	15
563.011	1	25
563.181	1	29
563.351	1	12
563.521	1	24
563.691	1	11
563.861	1	23
564.031	1	18
564.201	1	17
564.370	1	20
564.540	1	29
564.710	1	11
564.880	1	17
565.050	1	18
565.220	1	13
565.390	1	7
565.560	1	24
565.730	1	14
565.900	1	17
566.069	1	13
566.239	1	10
566.409	1	16
566.579	1	17
566.749	1	14
566.919	1	20
567.089	1	15
567.259	1	19
567.429	1	9
567.599	1	11
567.768	1	24
567.938	1	11
568.108	1	8
568.278	1	2
568.448	1	-1
568.618	1	7
568.788	1	9
568.958	1	21
569.128	1	16
569.297	1	16
569.467	1	17
569.637	1	20
569.807	1	11
569.977	1	17
570.147	1	4
570.317	1	26
570.487	1	20
570.656	1	9
570.826	1	10
570.996	1	5
571.166	1	2
571.336	1	8
571.506	1	13
571.676	1	23
571.846	1	17
572.015	1	9
572.185	1	14
572.355	1	29
572.525	1	14
572.695	1	13
572.865	1	5
573.035	1	13
573.205	1	21
573.374	1	16
573.544	1	17
573.714	1	11
573.884	1	14
574.054	1	11
574.224	1	12
574.394	1	5
574.563	1	17
574.733	1	6
574.903	1	8
575.073	1	14
575.243	1	-2
575.413	1	13
575.583	1	15
575.752	1	9
575.922	1	18
576.092	1	15
576.262	1	7
576.432	1	-1
576.602	1	18
576.772	1	16
576.941	1	6
577.111	1	13
577.281	1	5
577.451	1	9
577.621	1	5
577.791	1	6
577.960	1	6
578.130	1	0
578.300	1	2
578.470	1	12
578.640	1	8
578.810	1	9
578.979	1	14
579.149	1	13
579.319	1	15
579.489	1	17
579.659	1	19
579.829	1	13
579.998	1	5
580.168	1	12
580.338	1	-3
580.508	1	12
580.678	1	5
580.848	1	15
581.017	1	10
581.187	1	17
581.357	1	9
581.527	1	9
581.697	1	-1
581.867	1	11
582.036	1	9
582.206	1	0
582.376	1	16
582.546	1	13
582.716	1	17
582.885	1	18
583.055	1	9
583.225	1	13
583.395	1	4
583.565	1	18
583.735	1	-5
583.904	1	10
584.074	1	8
584.244	1	12
584.414	1	11
584.584	1	13
584.753	1	11
584.923	1	13
585.093	1	8
585.263	1	14
585.433	1	7
585.602	1	8
585.772	1	2
585.942	1	12
586.112	1	10
586.282	1	12
586.451	1	4
586.621	1	18
586.791	1	5
586.961	1	4
587.131	1	-1
587.300	1	3
587.470	1	11
587.640	1	0
587.810	1	8
587.980	1	6
588.149	1	22
588.319	1	9
588.489	1	12
588.659	1	-2
588.829	1	9
588.998	1	0
589.168	1	7
589.338	1	10
589.508	1	5
589.677	1	11
589.847	1	7
590.017	1	-5
590.187	1	10
590.357	1	5
590.526	1	4
590.696	1	13
590.866	1	12
591.036	1	9
591.205	1	9
591.375	1	-4
591.545	1	3
591.715	1	6
591.885	1	16
592.054	1	9
592.224	1	18
592.394	1	6
592.564	1	-6
592.733	1	2
592.903	1	2
593.073	1	5
593.243	1	15
593.412	1	2
593.582	1	14
593.752	1	8
593.922	1	-4
594.091	1	14
594.261	1	10
594.431	1	9
594.601	1	3
594.771	1	16
594.940	1	1
595.110	1	3
595.280	1	8
595.450	1	8
595.619	1	14
595.789	1	12
595.959	1	9
596.129	1	6
596.298	1	13
596.468	1	12
596.638	1	15
596.808	1	10
596.977	1	2
597.147	1	11
597.317	1	17
597.487	1	0
597.656	1	7
597.826	1	15
597.996	1	13
598.166	1	7
598.335	1	4
598.505	1	4
598.675	1	19
598.844	1	4
599.014	1	0
599.184	1	-3
599.354	1	-5
599.523	1	6
599.693	1	16
599.863	1	15
600.033	1	6
600.202	1	-1
600.372	1	-5
600.542	1	18
600.712	1	3
600.881	1	-1
601.051	1	7
601.221	1	6
601.390	1	6
601.560	1	2
601.730	1	2
601.900	1	14
602.069	1	2
602.239	1	0
602.409	1	2
602.578	1	-4
602.748	1	-1
602.918	1	-3
603.088	1	2
603.257	1	11
603.427	1	3
603.597	1	24
603.767	1	-1
603.936	1	6
604.106	1	10
604.276	1	3
604.445	1	15
604.615	1	1
604.785	1	17
604.954	1	5
605.124	1	-9
605.294	1	16
605.464	1	5
605.633	1	16
605.803	1	8
605.973	1	6
606.142	1	4
606.312	1	4
606.482	1	-3
606.652	1	-1
606.821	1	10
606.991	1	5
607.161	1	6
607.330	1	7
607.500	1	7
607.670	1	-7
607.839	1	7
608.009	1	-6
608.179	1	6
608.348	1	9
608.518	1	9
608.688	1	13
608.858	1	8
609.027	1	7
609.197	1	-2
609.367	1	6
609.536	1	-7
609.706	1	9
609.876	1	6
610.045	1	2
610.215	1	0
610.385	1	-3
610.554	1	-1
610.724	1	0
610.894	1	10
611.063	1	14
611.233	1	4
611.403	1	12
611.572	1	11
611.742	1	5
611.912	1	1
612.081	1	0
612.251	1	12
612.421	1	7
612.590	1	2
612.760	1	7
612.930	1	11
613.099	1	-11
613.269	1	-2
613.439	1	-1
613.608	1	7
613.778	1	10
613.948	1	13
614.117	1	13
614.287	1	6
614.457	1	4
614.626	1	5
614.796	1	6
614.966	1	8
615.135	1	-4
615.305	1	1
615.475	1	7
615.644	1	4
615.814	1	11
615.984	1	13
616.153	1	4
616.323	1	3
616.493	1	10
616.662	1	6
616.832	1	7
617.002	1	2
617.171	1	0
617.341	1	10
617.511	1	-3
617.680	1	5
617.850	1	2
618.019	1	14
618.189	1	0
618.359	1	6
618.528	1	7
618.698	1	-8
618.868	1	16
619.037	1	12
619.207	1	-6
619.377	1	-4
619.546	1	11
619.716	1	4
619.885	1	-3
620.055	1	13
620.225	1	6
620.394	1	3
620.564	1	-4
620.734	1	10
620.903	1	7
621.073	1	-2
621.242	1	3
621.412	1	9
621.582	1	10
621.751	1	1
621.921	1	12
622.091	1	-5
622.260	1	9
622.430	1	10
622.599	1	11
622.769	1	7
622.939	1	-1
623.108	1	9
623.278	1	3
623.448	1	4
623.617	1	12
623.787	1	7
623.956	1	7
624.126	1	8
624.296	1	2
624.465	1	7
624.635	1	2
624.804	1	2
624.974	1	-2
625.144	1	5
625.313	1	2
625.483	1	9
625.652	1	5
625.822	1	9
625.992	1	-1
626.161	1	5
626.331	1	8
626.501	1	6
626.670	1	8
626.840	1	8
627.009	1	-2
627.179	1	5
627.348	1	3
627.518	1	8
627.688	1	-2
627.857	1	13
628.027	1	4
628.196	1	8
628.366	1	7
628.536	1	3
628.705	1	4
628.875	1	6
629.044	1	9
629.214	1	6
629.384	1	-7
629.553	1	6
629.723	1	10
629.892	1	3
630.062	1	-1
630.232	1	9
630.401	1	1
630.571	1	13
630.740	1	3
630.910	1	2
631.079	1	17
631.249	1	-11
631.419	1	4
631.588	1	-6
631.758	1	4
631.927	1	-4
632.097	1	7
632.266	1	-3
632.436	1	2
632.606	1	2
632.775	1	-1
632.945	1	4
633.114	1	24
633.284	1	-7
633.453	1	2
633.623	1	6
633.793	1	12
633.962	1	7
634.132	1	6
634.301	1	-2
634.471	1	-5
634.640	1	7
634.810	1	-3
634.979	1	12
635.149	1	3
635.319	1	3
635.488	1	4
635.658	1	1
635.827	1	2
635.997	1	3
636.166	1	5
636.336	1	7
636.505	1	14
636.675	1	-4
636.845	1	10
637.014	1	4
637.184	1	2
637.353	1	14
637.523	1	-3
637.692	1	-2
637.862	1	-8
638.031	1	14
638.201	1	14
638.370	1	11
638.540	1	11
638.710	1	7
638.879	1	8
639.049	1	7
639.218	1	10
639.388	1	12
639.557	1	6
639.727	1	2
639.896	1	-11
640.066	1	9
640.235	1	7
640.405	1	2
640.574	1	2
640.744	1	-3
640.914	1	3
641.083	1	2
641.253	1	-1
641.422	1	-6
641.592	1	-6
641.761	1	-2
641.931	1	19
642.100	1	-5
642.270	1	3
642.439	1	-1
642.609	1	4
642.778	1	0
642.948	1	3
643.117	1	3
643.287	1	2
643.456	1	6
643.626	1	13
643.795	1	8
643.965	1	-2
644.134	1	1
644.304	1	3
644.473	1	16
644.643	1	2
644.812	1	6
644.982	1	10
645.151	1	1
645.321	1	8
645.490	1	8
645.660	1	3
645.829	1	-6
645.999	1	-9
646.168	1	1
646.338	1	11
646.507	1	5
646.677	1	6
646.846	1	14
647.016	1	1
647.185	1	3
647.355	1	1
647.524	1	5
647.694	1	-2
647.863	1	-8
648.033	1	-7
648.202	1	8
648.372	1	11
648.541	1	-1
648.711	1	7
648.880	1	-2
649.050	1	12
649.219	1	4
649.389	1	1
649.558	1	-13
649.728	1	0
649.897	1	-4
650.067	1	-6
650.236	1	15
650.406	1	9
650.575	1	-4
650.745	1	-8
650.914	1	5
651.084	1	-12
651.253	1	1
651.423	1	8
651.592	1	0
651.762	1	15
651.931	1	2
652.101	1	5
652.270	1	1
652.440	1	13
652.609	1	14
652.778	1	4
652.948	1	-4
653.117	1	4
653.287	1	7
653.456	1	-3
653.626	1	6
653.795	1	7
653.965	1	15
654.134	1	11
654.304	1	5
654.473	1	5
654.643	1	14
654.812	1	4
654.982	1	-6
655.151	1	-7
655.320	1	-2
655.490	1	16
655.659	1	1
655.829	1	10
655.998	1	4
656.168	1	-2
656.337	1	-5
656.507	1	13
656.676	1	-3
656.846	1	-13
657.015	1	-2
657.184	1	7
657.354	1	4
657.523	1	6
657.693	1	12
657.862	1	0
658.032	1	9
658.201	1	-3
658.371	1	-4
658.540	1	-4
658.709	1	-6
658.879	1	6
659.048	1	3
659.218	1	10
659.387	1	2
659.557	1	-2
659.726	1	2
659.895	1	0
660.065	1	5
660.234	1	-1
660.404	1	7
660.573	1	-4
660.743	1	7
660.912	1	-10
661.081	1	0
661.251	1	8
661.420	1	0
661.590	1	9
661.759	1	0
661.929	1	1
662.098	1	-14
662.267	1	9
662.437	1	4
662.606	1	14
662.776	1	4
662.945	1	5
663.115	1	2
663.284	1	6
663.453	1	5
663.623	1	6
663.792	1	-2
663.962	1	-6
664.131	1	0
664.300	1	6
664.470	1	-1
664.639	1	-6
664.809	1	3
664.978	1	-3
665.148	1	-3
665.317	1	-1
665.486	1	6
665.656	1	4
665.825	1	1
665.995	1	0
666.164	1	0
666.333	1	1
666.503	1	-1
666.672	1	-4
666.842	1	-2
667.011	1	15
667.180	1	4
667.350	1	9
667.519	1	-6
667.689	1	3
667.858	1	8
668.027	1	-4
668.197	1	7
668.366	1	1
668.536	1	0
668.705	1	1
668.874	1	1
669.044	1	5
669.213	1	3
669.382	1	-5
669.552	1	8
669.721	1	5
669.891	1	10
670.060	1	14
670.229	1	-5
670.399	1	9
670.568	1	6
670.738	1	-5
670.907	1	-8
671.076	1	10
671.246	1	3
671.415	1	6
671.584	1	2
671.754	1	-5
671.923	1	-2
672.093	1	-3
672.262	1	1
672.431	1	-1
672.601	1	2
672.770	1	11
672.939	1	-12
673.109	1	5
673.278	1	8
673.448	1	-2
673.617	1	16
673.786	1	-4
