325.333	1	6
325.504	1	16
325.675	1	-1
325.846	1	-12
326.017	1	-9
326.188	1	8
326.359	1	8
326.531	1	-3
326.702	1	4
326.873	1	6
327.044	1	-3
327.215	1	-4
327.386	1	-4
327.557	1	5
327.728	1	-3
327.899	1	-3
328.070	1	4
328.241	1	-6
328.412	1	5
328.583	1	-5
328.754	1	1
328.926	1	4
329.097	1	6
329.268	1	-3
329.439	1	-10
329.610	1	-3
329.781	1	-4
329.952	1	9
330.123	1	0
330.294	1	6
330.465	1	7
330.636	1	6
330.807	1	4
330.978	1	-5
331.149	1	5
331.320	1	-1
331.492	1	0
331.663	1	-11
331.834	1	7
332.005	1	6
332.176	1	-6
332.347	1	0
332.518	1	7
332.689	1	-1
332.860	1	-4
333.031	1	6
333.202	1	-4
333.373	1	-1
333.544	1	-7
333.715	1	7
333.886	1	-8
334.057	1	-5
334.228	1	-8
334.399	1	1
334.570	1	-6
334.741	1	-4
334.912	1	-6
335.084	1	-8
335.255	1	0
335.426	1	-6
335.597	1	-5
335.768	1	1
335.939	1	3
336.110	1	-5
336.281	1	-14
336.452	1	1
336.623	1	9
336.794	1	-6
336.965	1	4
337.136	1	1
337.307	1	7
337.478	1	6
337.649	1	2
337.820	1	16
337.991	1	-1
338.162	1	8
338.333	1	-3
338.504	1	-8
338.675	1	8
338.846	1	4
339.017	1	-9
339.188	1	6
339.359	1	8
339.530	1	4
339.701	1	0
339.872	1	7
340.043	1	-2
340.214	1	2
340.385	1	2
340.556	1	2
340.727	1	2
340.898	1	-2
341.069	1	2
341.240	1	-4
341.411	1	10
341.582	1	1
341.753	1	1
341.924	1	-10
342.095	1	2
342.266	1	-5
342.437	1	2
342.608	1	1
342.779	1	-1
342.950	1	-5
343.121	1	12
343.292	1	-3
343.463	1	-2
343.634	1	-2
343.805	1	7
343.976	1	10
344.147	1	-5
344.318	1	6
344.489	1	-13
344.660	1	10
344.831	1	-9
345.002	1	4
345.173	1	-4
345.344	1	1
345.515	1	-7
345.686	1	4
345.857	1	-3
346.028	1	-10
346.199	1	-8
346.370	1	5
346.541	1	-14
346.712	1	-1
346.883	1	0
347.054	1	-4
347.225	1	-3
347.396	1	6
347.567	1	3
347.738	1	8
347.909	1	4
348.080	1	-8
348.251	1	-2
348.422	1	-8
348.593	1	1
348.764	1	-13
348.935	1	5
349.106	1	10
349.277	1	-5
349.448	1	2
349.619	1	4
349.790	1	-4
349.961	1	-3
350.132	1	-7
350.303	1	-9
350.474	1	-1
350.645	1	-7
350.816	1	-15
350.987	1	-7
351.157	1	7
351.328	1	-8
351.499	1	0
351.670	1	7
351.841	1	-3
352.012	1	-13
352.183	1	4
352.354	1	2
352.525	1	4
352.696	1	-5
352.867	1	0
353.038	1	11
353.209	1	4
353.380	1	1
353.551	1	1
353.722	1	-3
353.893	1	-7
354.064	1	2
354.235	1	1
354.406	1	-8
354.576	1	-3
354.747	1	-3
354.918	1	-7
355.089	1	-2
355.260	1	2
355.431	1	6
355.602	1	8
355.773	1	4
355.944	1	6
356.115	1	-1
356.286	1	0
356.457	1	-6
356.628	1	-2
356.799	1	-1
356.970	1	-5
357.141	1	-4
357.311	1	-5
357.482	1	-9
357.653	1	4
357.824	1	-7
357.995	1	2
358.166	1	3
358.337	1	0
358.508	1	14
358.679	1	10
358.850	1	-2
359.021	1	1
359.192	1	3
359.363	1	5
359.533	1	-1
359.704	1	5
359.875	1	-3
360.046	1	1
360.217	1	5
360.388	1	7
360.559	1	-7
360.730	1	3
360.901	1	1
361.072	1	-13
361.243	1	9
361.414	1	11
361.584	1	0
361.755	1	6
361.926	1	16
362.097	1	2
362.268	1	9
362.439	1	-2
362.610	1	-1
362.781	1	0
362.952	1	12
363.123	1	10
363.293	1	-3
363.464	1	10
363.635	1	9
363.806	1	11
363.977	1	8
364.148	1	1
364.319	1	1
364.490	1	-4
364.661	1	7
364.832	1	8
365.002	1	7
365.173	1	14
365.344	1	-2
365.515	1	10
365.686	1	10
365.857	1	11
366.028	1	1
366.199	1	2
366.370	1	8
366.540	1	4
366.711	1	9
366.882	1	5
367.053	1	14
367.224	1	9
367.395	1	12
367.566	1	10
367.737	1	-4
367.908	1	9
368.078	1	12
368.249	1	2
368.420	1	1
368.591	1	26
368.762	1	-5
368.933	1	12
369.104	1	6
369.274	1	0
369.445	1	-5
369.616	1	-6
369.787	1	8
369.958	1	4
370.129	1	0
370.300	1	-5
370.471	1	12
370.641	1	0
370.812	1	11
370.983	1	2
371.154	1	1
371.325	1	2
371.496	1	-6
371.667	1	3
371.837	1	-8
372.008	1	-1
372.179	1	-3
372.350	1	-1
372.521	1	-3
372.692	1	4
372.863	1	9
373.033	1	0
373.204	1	6
373.375	1	-5
373.546	1	6
373.717	1	-7
373.888	1	-9
374.059	1	3
374.229	1	-4
374.400	1	1
374.571	1	3
374.742	1	4
374.913	1	1
375.084	1	-2
375.254	1	9
375.425	1	-6
375.596	1	-7
375.767	1	2
375.938	1	8
376.109	1	-7
376.279	1	-5
376.450	1	3
376.621	1	25
376.792	1	-2
376.963	1	8
377.134	1	-1
377.304	1	9
377.475	1	3
377.646	1	3
377.817	1	9
377.988	1	-1
378.159	1	2
378.329	1	4
378.500	1	-9
378.671	1	-8
378.842	1	-6
379.013	1	-2
379.184	1	7
379.354	1	3
379.525	1	-1
379.696	1	-4
379.867	1	13
380.038	1	6
380.209	1	9
380.379	1	-9
380.550	1	3
380.721	1	11
380.892	1	4
381.063	1	-1
381.233	1	14
381.404	1	8
381.575	1	4
381.746	1	-2
381.917	1	-11
382.087	1	3
382.258	1	16
382.429	1	9
382.600	1	5
382.771	1	3
382.941	1	-2
383.112	1	5
383.283	1	6
383.454	1	3
383.625	1	1
383.795	1	13
383.966	1	7
384.137	1	12
384.308	1	9
384.479	1	9
384.649	1	4
384.820	1	5
384.991	1	10
385.162	1	14
385.333	1	20
385.503	1	8
385.674	1	6
385.845	1	14
386.016	1	8
386.187	1	23
386.357	1	18
386.528	1	14
386.699	1	18
386.870	1	38
387.041	1	5
387.211	1	12
387.382	1	4
387.553	1	7
387.724	1	2
387.894	1	18
388.065	1	14
388.236	1	13
388.407	1	17
388.578	1	18
388.748	1	25
388.919	1	12
389.090	1	21
389.261	1	-11
389.431	1	16
389.602	1	23
389.773	1	15
389.944	1	16
390.114	1	15
390.285	1	8
390.456	1	20
390.627	1	5
390.798	1	27
390.968	1	7
391.139	1	-2
391.310	1	12
391.481	1	14
391.651	1	13
391.822	1	13
391.993	1	20
392.164	1	11
392.334	1	9
392.505	1	10
392.676	1	10
392.847	1	6
393.017	1	5
393.188	1	11
393.359	1	11
393.530	1	20
393.700	1	19
393.871	1	7
394.042	1	18
394.213	1	14
394.383	1	16
394.554	1	13
394.725	1	12
394.896	1	8
395.066	1	18
395.237	1	26
395.408	1	11
395.579	1	19
395.749	1	17
395.920	1	11
396.091	1	11
396.262	1	20
396.432	1	5
396.603	1	14
396.774	1	1
396.945	1	17
397.115	1	27
397.286	1	21
397.457	1	14
397.627	1	22
397.798	1	3
397.969	1	18
398.140	1	2
398.310	1	8
398.481	1	4
398.652	1	14
398.823	1	20
398.993	1	4
399.164	1	18
399.335	1	8
399.505	1	13
399.676	1	9
399.847	1	9
400.018	1	7
400.188	1	22
400.359	1	7
400.530	1	19
400.700	1	15
400.871	1	2
401.042	1	7
401.213	1	7
401.383	1	5
401.554	1	8
401.725	1	12
401.895	1	13
402.066	1	13
402.237	1	16
402.408	1	5
402.578	1	8
402.749	1	3
402.920	1	2
403.090	1	6
403.261	1	8
403.432	1	8
403.603	1	7
403.773	1	4
403.944	1	13
404.115	1	-2
404.285	1	7
404.456	1	6
404.627	1	12
404.797	1	26
404.968	1	13
405.139	1	9
405.310	1	0
405.480	1	11
405.651	1	9
405.822	1	13
405.992	1	-1
406.163	1	18
406.334	1	15
406.504	1	10
406.675	1	11
406.846	1	2
407.016	1	5
407.187	1	2
407.358	1	1
407.528	1	3
407.699	1	9
407.870	1	7
408.041	1	8
408.211	1	-1
408.382	1	8
408.553	1	8
408.723	1	3
408.894	1	5
409.065	1	6
409.235	1	4
409.406	1	16
409.577	1	16
409.747	1	2
409.918	1	10
410.089	1	14
410.259	1	-1
410.430	1	14
410.601	1	-4
410.771	1	8
410.942	1	11
411.113	1	5
411.283	1	2
411.454	1	-2
411.625	1	3
411.795	1	6
411.966	1	-9
412.137	1	4
412.307	1	-2
412.478	1	18
412.649	1	9
412.819	1	8
412.990	1	12
413.161	1	13
413.331	1	-5
413.502	1	6
413.672	1	6
413.843	1	6
414.014	1	10
414.184	1	1
414.355	1	-2
414.526	1	4
414.696	1	-2
414.867	1	12
415.038	1	1
415.208	1	7
415.379	1	5
415.550	1	9
415.720	1	6
415.891	1	15
416.062	1	2
416.232	1	13
416.403	1	4
416.573	1	3
416.744	1	9
416.915	1	2
417.085	1	1
417.256	1	4
417.427	1	-5
417.597	1	-13
417.768	1	3
417.939	1	-1
418.109	1	18
418.280	1	3
418.450	1	-2
418.621	1	7
418.792	1	1
418.962	1	6
419.133	1	7
419.304	1	4
419.474	1	-10
419.645	1	13
419.815	1	-1
419.986	1	9
420.157	1	8
420.327	1	5
420.498	1	0
420.669	1	15
420.839	1	-1
421.010	1	10
421.180	1	0
421.351	1	6
421.522	1	10
421.692	1	12
421.863	1	-5
422.033	1	2
422.204	1	-4
422.375	1	-7
422.545	1	14
422.716	1	4
422.886	1	10
423.057	1	-6
423.228	1	-9
423.398	1	8
423.569	1	5
423.740	1	-11
423.910	1	-3
424.081	1	11
424.251	1	-10
424.422	1	9
424.593	1	7
424.763	1	-2
424.934	1	4
425.104	1	3
425.275	1	-3
425.445	1	2
425.616	1	9
425.787	1	-5
425.957	1	18
426.128	1	0
426.298	1	0
426.469	1	5
426.640	1	0
426.810	1	2
426.981	1	-3
427.151	1	12
427.322	1	-3
427.493	1	6
427.663	1	-1
427.834	1	-5
428.004	1	13
428.175	1	3
428.345	1	10
428.516	1	5
428.687	1	0
428.857	1	-2
429.028	1	2
429.198	1	-5
429.369	1	5
429.540	1	13
429.710	1	-6
429.881	1	15
430.051	1	4
430.222	1	-3
430.392	1	4
430.563	1	9
430.734	1	5
430.904	1	-6
431.075	1	8
431.245	1	8
431.416	1	2
431.586	1	-7
431.757	1	1
431.927	1	3
432.098	1	-8
432.269	1	3
432.439	1	-3
432.610	1	1
432.780	1	3
432.951	1	6
433.121	1	8
433.292	1	3
433.462	1	-3
433.633	1	5
433.804	1	-7
433.974	1	-5
434.145	1	0
434.315	1	3
434.486	1	10
434.656	1	10
434.827	1	-1
434.997	1	11
435.168	1	-2
435.339	1	1
435.509	1	-1
435.680	1	-8
435.850	1	2
436.021	1	1
436.191	1	0
436.362	1	3
436.532	1	9
436.703	1	7
436.873	1	8
437.044	1	2
437.214	1	-3
437.385	1	0
437.556	1	-5
437.726	1	-1
437.897	1	4
438.067	1	5
438.238	1	-9
438.408	1	2
438.579	1	7
438.749	1	-1
438.920	1	-2
439.090	1	3
439.261	1	1
439.431	1	-4
439.602	1	1
439.772	1	3
439.943	1	-1
440.113	1	-2
440.284	1	10
440.455	1	2
440.625	1	1
440.796	1	7
440.966	1	6
441.137	1	-2
441.307	1	-4
441.478	1	7
441.648	1	-4
441.819	1	0
441.989	1	2
442.160	1	2
442.330	1	-1
442.501	1	-11
442.671	1	-1
442.842	1	1
443.012	1	1
443.183	1	4
443.353	1	2
443.524	1	13
443.694	1	1
443.865	1	-6
444.035	1	0
444.206	1	9
444.376	1	7
444.547	1	2
444.717	1	12
444.888	1	-6
445.058	1	6
445.229	1	6
445.399	1	8
445.570	1	3
445.740	1	0
445.911	1	8
446.081	1	6
446.252	1	-4
446.422	1	-1
446.593	1	0
446.763	1	11
446.934	1	6
447.104	1	-7
447.275	1	-6
447.445	1	-2
447.616	1	2
447.786	1	7
447.957	1	0
448.127	1	-4
448.298	1	7
448.468	1	6
448.639	1	-6
448.809	1	-6
448.979	1	0
449.150	1	-1
449.320	1	1
449.491	1	2
449.661	1	5
449.832	1	2
450.002	1	-7
450.173	1	-13
450.343	1	9
450.514	1	4
450.684	1	0
450.855	1	-1
451.025	1	5
451.196	1	-5
451.366	1	5
451.537	1	-12
451.707	1	6
451.878	1	-1
452.048	1	0
452.218	1	-1
452.389	1	-5
452.559	1	0
452.730	1	7
452.900	1	1
453.071	1	-3
453.241	1	-3
453.412	1	-9
453.582	1	-1
453.753	1	-5
453.923	1	-9
454.093	1	8
454.264	1	-2
454.434	1	9
454.605	1	2
454.775	1	11
454.946	1	4
455.116	1	-4
455.287	1	12
455.457	1	-2
455.628	1	-1
455.798	1	-4
455.968	1	4
456.139	1	4
456.309	1	5
456.480	1	-6
456.650	1	0
456.821	1	-1
456.991	1	5
457.161	1	7
457.332	1	1
457.502	1	-4
457.673	1	-8
457.843	1	3
458.014	1	-1
458.184	1	9
458.355	1	-8
458.525	1	0
458.695	1	0
458.866	1	-4
459.036	1	10
459.207	1	-12
459.377	1	-5
459.548	1	-3
459.718	1	-7
459.888	1	19
460.059	1	-2
460.229	1	4
460.400	1	8
460.570	1	-10
460.740	1	4
460.911	1	6
461.081	1	-15
461.252	1	-6
461.422	1	-9
461.593	1	-5
461.763	1	1
461.933	1	-12
462.104	1	-6
462.274	1	8
462.445	1	-5
462.615	1	-7
462.785	1	-2
462.956	1	7
463.126	1	-5
463.297	1	0
463.467	1	-2
463.638	1	-2
463.808	1	2
463.978	1	7
464.149	1	-7
464.319	1	4
464.490	1	-1
464.660	1	3
464.830	1	1
465.001	1	-1
465.171	1	4
465.342	1	6
465.512	1	1
465.682	1	1
465.853	1	-4
466.023	1	1
466.194	1	0
466.364	1	4
466.534	1	-4
466.705	1	-1
466.875	1	9
467.045	1	4
467.216	1	-3
467.386	1	-9
467.557	1	5
467.727	1	0
467.897	1	14
468.068	1	7
468.238	1	-3
468.409	1	2
468.579	1	7
468.749	1	0
468.920	1	2
469.090	1	5
469.260	1	8
469.431	1	1
469.601	1	0
469.772	1	-10
469.942	1	3
470.112	1	-1
470.283	1	8
470.453	1	5
470.623	1	5
470.794	1	2
470.964	1	-5
471.135	1	-6
471.305	1	-7
471.475	1	-5
471.646	1	3
471.816	1	4
471.986	1	3
472.157	1	4
472.327	1	-3
472.497	1	0
472.668	1	-5
472.838	1	15
473.009	1	3
473.179	1	-4
473.349	1	0
473.520	1	1
473.690	1	13
473.860	1	2
474.031	1	7
474.201	1	-4
474.371	1	8
474.542	1	-6
474.712	1	11
474.882	1	-3
475.053	1	-4
475.223	1	5
475.394	1	1
475.564	1	13
475.734	1	0
475.905	1	3
476.075	1	6
476.245	1	-13
476.416	1	3
476.586	1	-14
476.756	1	6
476.927	1	12
477.097	1	-8
477.267	1	-5
477.438	1	6
477.608	1	-3
477.778	1	4
477.949	1	2
478.119	1	3
478.289	1	-5
478.460	1	-8
478.630	1	-5
478.800	1	-1
478.971	1	-5
479.141	1	0
479.311	1	3
479.482	1	-3
479.652	1	4
479.822	1	-4
479.993	1	-4
480.163	1	-11
480.333	1	1
480.504	1	-9
480.674	1	7
480.844	1	1
481.015	1	-3
481.185	1	11
481.355	1	14
481.525	1	3
481.696	1	-4
481.866	1	4
482.036	1	-3
482.207	1	1
482.377	1	0
482.547	1	-5
482.718	1	6
482.888	1	-2
483.058	1	-4
483.229	1	4
483.399	1	-5
483.569	1	10
483.740	1	-4
483.910	1	5
484.080	1	7
484.250	1	0
484.421	1	0
484.591	1	-1
484.761	1	2
484.932	1	3
485.102	1	-3
485.272	1	3
485.443	1	12
485.613	1	-5
485.783	1	7
485.953	1	-2
486.124	1	2
486.294	1	12
486.464	1	-8
486.635	1	9
486.805	1	13
486.975	1	-9
487.146	1	-3
487.316	1	8
487.486	1	5
487.656	1	-3
487.827	1	3
487.997	1	3
488.167	1	6
488.338	1	17
488.508	1	3
488.678	1	2
488.848	1	0
489.019	1	2
489.189	1	-7
489.359	1	0
489.529	1	0
489.700	1	4
489.870	1	0
490.040	1	0
490.211	1	12
490.381	1	-1
490.551	1	-6
490.721	1	7
490.892	1	0
491.062	1	14
491.232	1	8
491.402	1	-5
491.573	1	1
491.743	1	-15
491.913	1	1
492.084	1	11
492.254	1	1
492.424	1	2
492.594	1	-2
492.765	1	8
492.935	1	0
493.105	1	9
493.275	1	15
493.446	1	6
493.616	1	6
493.786	1	2
493.956	1	-1
494.127	1	-8
494.297	1	1
494.467	1	2
494.637	1	-1
494.808	1	10
494.978	1	-2
495.148	1	10
495.318	1	15
495.489	1	5
495.659	1	5
495.829	1	1
495.999	1	-7
496.170	1	-3
496.340	1	5
496.510	1	-1
496.680	1	6
496.851	1	-1
497.021	1	4
497.191	1	0
497.361	1	0
497.532	1	-2
497.702	1	-7
497.872	1	-3
498.042	1	10
498.213	1	11
498.383	1	3
498.553	1	0
498.723	1	9
498.894	1	1
499.064	1	7
499.234	1	-8
499.404	1	0
499.574	1	-11
499.745	1	-2
499.915	1	2
500.085	1	-3
500.255	1	0
500.426	1	-2
500.596	1	0
500.766	1	11
500.936	1	-1
501.106	1	-3
501.277	1	8
501.447	1	2
501.617	1	8
501.787	1	-12
501.958	1	2
502.128	1	-3
502.298	1	4
502.468	1	19
502.638	1	17
502.809	1	10
502.979	1	-9
503.149	1	3
503.319	1	10
503.489	1	-6
503.660	1	-1
503.830	1	1
504.000	1	1
504.170	1	10
504.340	1	5
504.511	1	6
504.681	1	2
504.851	1	0
505.021	1	1
505.192	1	13
505.362	1	1
505.532	1	8
505.702	1	-4
505.872	1	-4
506.043	1	3
506.213	1	11
506.383	1	5
506.553	1	7
506.723	1	3
506.893	1	1
507.064	1	3
507.234	1	5
507.404	1	5
507.574	1	1
507.744	1	-6
507.915	1	7
508.085	1	11
508.255	1	19
508.425	1	6
508.595	1	4
508.766	1	-1
508.936	1	7
509.106	1	-3
509.276	1	5
509.446	1	-7
509.616	1	6
509.787	1	-1
509.957	1	5
510.127	1	10
510.297	1	-2
510.467	1	4
510.638	1	-5
510.808	1	-6
510.978	1	-13
511.148	1	11
511.318	1	6
511.488	1	11
511.659	1	2
511.829	1	-4
511.999	1	13
512.169	1	5
512.339	1	10
512.509	1	3
512.680	1	14
512.850	1	6
513.020	1	3
513.190	1	-13
513.360	1	8
513.530	1	-2
513.700	1	8
513.871	1	6
514.041	1	1
514.211	1	2
514.381	1	11
514.551	1	3
514.721	1	11
514.892	1	-1
515.062	1	7
515.232	1	12
515.402	1	1
515.572	1	-11
515.742	1	7
515.912	1	15
516.083	1	6
516.253	1	7
516.423	1	9
516.593	1	-7
516.763	1	2
516.933	1	2
517.104	1	5
517.274	1	4
517.444	1	10
517.614	1	-3
517.784	1	5
517.954	1	2
518.124	1	4
518.294	1	6
518.465	1	4
518.635	1	11
518.805	1	3
518.975	1	-2
519.145	1	17
519.315	1	1
519.485	1	-8
519.656	1	6
519.826	1	3
519.996	1	17
520.166	1	3
520.336	1	7
520.506	1	6
520.676	1	5
520.846	1	1
521.017	1	0
521.187	1	16
521.357	1	5
521.527	1	2
521.697	1	6
521.867	1	4
522.037	1	-1
522.207	1	-8
522.377	1	14
522.548	1	0
522.718	1	-2
522.888	1	1
523.058	1	15
523.228	1	10
523.398	1	3
523.568	1	7
523.738	1	7
523.909	1	22
524.079	1	5
524.249	1	3
524.419	1	1
524.589	1	9
524.759	1	5
524.929	1	3
525.099	1	12
525.269	1	12
525.439	1	2
525.610	1	6
525.780	1	8
525.950	1	-4
526.120	1	1
526.290	1	2
526.460	1	4
526.630	1	5
526.800	1	-3
526.970	1	3
527.140	1	-5
527.311	1	19
527.481	1	12
527.651	1	16
527.821	1	0
527.991	1	10
528.161	1	-2
528.331	1	8
528.501	1	-3
528.671	1	8
528.841	1	4
529.011	1	3
529.181	1	1
529.352	1	8
529.522	1	3
529.692	1	10
529.862	1	4
530.032	1	1
530.202	1	5
530.372	1	3
530.542	1	9
530.712	1	16
530.882	1	-6
531.052	1	15
531.222	1	0
531.392	1	14
531.563	1	1
531.733	1	13
531.903	1	15
532.073	1	3
532.243	1	1
532.413	1	10
532.583	1	9
532.753	1	1
532.923	1	1
533.093	1	10
533.263	1	6
533.433	1	11
533.603	1	6
533.773	1	-6
533.943	1	0
534.113	1	3
534.284	1	7
534.454	1	3
534.624	1	7
534.794	1	12
534.964	1	-4
535.134	1	2
535.304	1	4
535.474	1	3
535.644	1	6
535.814	1	7
535.984	1	10
536.154	1	4
536.324	1	6
536.494	1	10
536.664	1	16
536.834	1	5
537.004	1	10
537.174	1	8
537.344	1	4
537.514	1	12
537.685	1	6
537.855	1	6
538.025	1	7
538.195	1	14
538.365	1	13
538.535	1	16
538.705	1	6
538.875	1	-2
539.045	1	13
539.215	1	-2
539.385	1	3
539.555	1	-9
539.725	1	6
539.895	1	11
540.065	1	5
540.235	1	-9
540.405	1	11
540.575	1	10
540.745	1	6
540.915	1	9
541.085	1	-6
541.255	1	-4
541.425	1	6
541.595	1	2
541.765	1	-1
541.935	1	6
542.105	1	11
542.275	1	12
542.445	1	15
542.615	1	5
542.785	1	3
542.955	1	3
543.125	1	0
543.295	1	4
543.465	1	22
543.635	1	5
543.805	1	12
543.975	1	11
544.145	1	11
544.315	1	4
544.485	1	4
544.655	1	-1
544.825	1	8
544.995	1	8
545.165	1	5
545.335	1	0
545.505	1	5
545.675	1	6
545.845	1	-3
546.015	1	10
546.185	1	0
546.355	1	14
546.525	1	6
546.695	1	7
546.865	1	2
547.035	1	10
547.205	1	2
547.375	1	6
547.545	1	10
547.715	1	8
547.885	1	6
548.055	1	7
548.225	1	-6
548.395	1	9
548.565	1	9
548.735	1	7
548.905	1	-2
549.075	1	-2
549.245	1	9
549.415	1	6
549.585	1	6
549.755	1	0
549.925	1	11
550.095	1	11
550.265	1	-6
550.435	1	14
550.605	1	5
550.775	1	-7
550.945	1	13
551.115	1	-12
551.285	1	10
551.455	1	-2
551.625	1	-3
551.795	1	8
551.965	1	4
552.135	1	1
552.305	1	4
552.475	1	3
552.645	1	5
552.815	1	5
552.985	1	7
553.155	1	8
553.325	1	12
553.495	1	8
553.665	1	4
553.835	1	9
554.004	1	0
554.174	1	-4
554.344	1	-3
554.514	1	12
554.684	1	8
554.854	1	8
555.024	1	-2
555.194	1	9
555.364	1	4
555.534	1	10
555.704	1	6
555.874	1	-3
556.044	1	3
556.214	1	14
556.384	1	7
556.554	1	-2
556.724	1	5
556.894	1	18
557.064	1	4
557.234	1	7
557.404	1	-2
557.573	1	-6
557.743	1	8
557.913	1	11
558.083	1	-6
558.253	1	3
558.423	1	-3
558.593	1	0
558.763	1	-1
558.933	1	4
559.103	1	7
559.273	1	4
559.443	1	8
559.613	1	7
559.783	1	12
559.953	1	0
560.122	1	-10
560.292	1	8
560.462	1	9
560.632	1	7
560.802	1	-6
560.972	1	14
561.142	1	10
561.312	1	-2
561.482	1	8
561.652	1	15
561.822	1	6
561.992	1	15
562.162	1	10
562.331	1	0
562.501	1	-6
562.671	1	0
562.841	1	-11
563.011	1	16
563.181	1	14
563.351	1	-6
563.521	1	11
563.691	1	-3
563.861	1	7
564.031	1	-4
564.201	1	9
564.370	1	7
564.540	1	4
564.710	1	-9
564.880	1	3
565.050	1	9
565.220	1	6
565.390	1	-11
565.560	1	6
565.730	1	3
565.900	1	-3
566.069	1	11
566.239	1	2
566.409	1	7
566.579	1	12
566.749	1	15
566.919	1	-2
567.089	1	6
567.259	1	12
567.429	1	4
567.599	1	4
567.768	1	9
567.938	1	9
568.108	1	3
568.278	1	-7
568.448	1	-12
568.618	1	4
568.788	1	3
568.958	1	18
569.128	1	5
569.297	1	5
569.467	1	4
569.637	1	7
569.807	1	2
569.977	1	-2
570.147	1	2
570.317	1	13
570.487	1	1
570.656	1	-1
570.826	1	11
570.996	1	-4
571.166	1	6
571.336	1	2
571.506	1	3
571.676	1	1
571.846	1	5
572.015	1	-9
572.185	1	-8
572.355	1	18
572.525	1	1
572.695	1	9
572.865	1	5
573.035	1	-6
573.205	1	17
573.374	1	8
573.544	1	-5
573.714	1	8
573.884	1	2
574.054	1	4
574.224	1	5
574.394	1	-1
574.563	1	14
574.733	1	3
574.903	1	8
575.073	1	0
575.243	1	-10
575.413	1	-2
575.583	1	9
575.752	1	0
575.922	1	-3
576.092	1	3
576.262	1	4
576.432	1	-10
576.602	1	-6
576.772	1	15
576.941	1	2
577.111	1	-3
577.281	1	0
577.451	1	6
577.621	1	2
577.791	1	13
577.960	1	-3
578.130	1	-2
578.300	1	-2
578.470	1	1
578.640	1	1
578.810	1	12
578.979	1	5
579.149	1	3
579.319	1	8
579.489	1	-5
579.659	1	-1
579.829	1	6
579.998	1	1
580.168	1	8
580.338	1	-16
580.508	1	-1
580.678	1	-3
580.848	1	6
581.017	1	3
581.187	1	9
581.357	1	1
581.527	1	6
581.697	1	-14
581.867	1	9
582.036	1	7
582.206	1	-2
582.376	1	4
582.546	1	5
582.716	1	15
582.885	1	4
583.055	1	-5
583.225	1	-1
583.395	1	7
583.565	1	16
583.735	1	5
583.904	1	12
584.074	1	-5
584.244	1	0
584.414	1	-5
584.584	1	7
584.753	1	1
584.923	1	1
585.093	1	5
585.263	1	7
585.433	1	3
585.602	1	-3
585.772	1	6
585.942	1	-1
586.112	1	8
586.282	1	-2
586.451	1	10
586.621	1	12
586.791	1	8
586.961	1	4
587.131	1	-1
587.300	1	-1
587.470	1	9
587.640	1	-8
587.810	1	2
587.980	1	1
588.149	1	3
588.319	1	-3
588.489	1	9
588.659	1	-7
588.829	1	0
588.998	1	-6
589.168	1	11
589.338	1	-1
589.508	1	3
589.677	1	1
589.847	1	6
590.017	1	-2
590.187	1	-9
590.357	1	-5
590.526	1	3
590.696	1	-4
590.866	1	2
591.036	1	5
591.205	1	8
591.375	1	0
591.545	1	-10
591.715	1	-12
591.885	1	5
592.054	1	13
592.224	1	2
592.394	1	0
592.564	1	0
592.733	1	0
592.903	1	2
593.073	1	3
593.243	1	3
593.412	1	-4
593.582	1	8
593.752	1	-6
593.922	1	-5
594.091	1	7
594.261	1	7
594.431	1	-2
594.601	1	-13
594.771	1	11
594.940	1	3
595.110	1	-1
595.280	1	0
595.450	1	5
595.619	1	2
595.789	1	8
595.959	1	-2
596.129	1	-2
596.298	1	5
596.468	1	1
596.638	1	-1
596.808	1	3
596.977	1	0
597.147	1	10
597.317	1	7
597.487	1	10
597.656	1	0
597.826	1	-6
597.996	1	5
598.166	1	1
598.335	1	-1
598.505	1	-4
598.675	1	6
598.844	1	9
599.014	1	2
599.184	1	2
599.354	1	-15
599.523	1	-7
599.693	1	13
599.863	1	12
600.033	1	0
600.202	1	1
600.372	1	4
600.542	1	0
600.712	1	3
600.881	1	-2
601.051	1	11
601.221	1	1
601.390	1	-1
601.560	1	4
601.730	1	5
601.900	1	2
602.069	1	-8
602.239	1	-9
602.409	1	2
602.578	1	8
602.748	1	-6
602.918	1	-5
603.088	1	-5
603.257	1	6
603.427	1	-9
603.597	1	9
603.767	1	-5
603.936	1	5
604.106	1	3
604.276	1	5
604.445	1	5
604.615	1	2
604.785	1	9
604.954	1	-5
605.124	1	0
605.294	1	3
605.464	1	-5
605.633	1	1
605.803	1	-2
605.973	1	2
606.142	1	-11
606.312	1	-1
606.482	1	1
606.652	1	-10
606.821	1	4
606.991	1	-3
607.161	1	11
607.330	1	8
607.500	1	9
607.670	1	0
607.839	1	3
608.009	1	-4
608.179	1	5
608.348	1	-1
608.518	1	0
608.688	1	5
608.858	1	-4
609.027	1	12
609.197	1	-4
609.367	1	-2
609.536	1	-6
609.706	1	-3
609.876	1	2
610.045	1	-3
610.215	1	-5
610.385	1	-1
610.554	1	-3
610.724	1	7
610.894	1	10
611.063	1	7
611.233	1	-4
611.403	1	2
611.572	1	0
611.742	1	-5
611.912	1	4
612.081	1	-1
612.251	1	-2
612.421	1	13
612.590	1	-3
612.760	1	0
612.930	1	-6
613.099	1	0
613.269	1	3
613.439	1	1
613.608	1	2
613.778	1	-6
613.948	1	6
614.117	1	13
614.287	1	-7
614.457	1	5
614.626	1	2
614.796	1	6
614.966	1	3
615.135	1	-3
615.305	1	-3
615.475	1	5
615.644	1	0
615.814	1	-4
615.984	1	13
616.153	1	8
616.323	1	-9
616.493	1	0
616.662	1	3
616.832	1	-6
617.002	1	-3
617.171	1	-7
617.341	1	2
617.511	1	8
617.680	1	-1
617.850	1	5
618.019	1	2
618.189	1	7
618.359	1	7
618.528	1	-4
618.698	1	-9
618.868	1	5
619.037	1	15
619.207	1	-11
619.377	1	-13
619.546	1	-1
619.716	1	-13
619.885	1	4
620.055	1	-3
620.225	1	8
620.394	1	-4
620.564	1	-9
620.734	1	-4
620.903	1	1
621.073	1	-8
621.242	1	-12
621.412	1	2
621.582	1	-1
621.751	1	-12
621.921	1	2
622.091	1	-7
622.260	1	-9
622.430	1	2
622.599	1	20
622.769	1	0
622.939	1	1
623.108	1	-2
623.278	1	4
623.448	1	-7
623.617	1	4
623.787	1	1
623.956	1	9
624.126	1	1
624.296	1	-1
624.465	1	10
624.635	1	-4
624.804	1	-11
624.974	1	-2
625.144	1	2
625.313	1	5
625.483	1	7
625.652	1	5
625.822	1	13
625.992	1	-9
626.161	1	8
626.331	1	2
626.501	1	1
626.670	1	3
626.840	1	-2
627.009	1	-3
627.179	1	-5
627.348	1	2
627.518	1	17
627.688	1	4
627.857	1	0
628.027	1	6
628.196	1	1
628.366	1	-4
628.536	1	-8
628.705	1	-2
628.875	1	5
629.044	1	2
629.214	1	5
629.384	1	-7
629.553	1	-1
629.723	1	-1
629.892	1	2
630.062	1	5
630.232	1	10
630.401	1	0
630.571	1	0
630.740	1	9
630.910	1	-3
631.079	1	14
631.249	1	-6
631.419	1	4
631.588	1	-2
631.758	1	0
631.927	1	-6
632.097	1	9
632.266	1	-2
632.436	1	-3
632.606	1	-4
632.775	1	-2
632.945	1	-3
633.114	1	-2
633.284	1	0
633.453	1	-5
633.623	1	2
633.793	1	-1
633.962	1	10
634.132	1	3
634.301	1	1
634.471	1	-7
634.640	1	9
634.810	1	-6
634.979	1	4
635.149	1	-2
635.319	1	-6
635.488	1	2
635.658	1	-1
635.827	1	-3
635.997	1	1
636.166	1	-1
636.336	1	11
636.505	1	6
636.675	1	-2
636.845	1	3
637.014	1	-6
637.184	1	0
637.353	1	10
637.523	1	-7
637.692	1	0
637.862	1	-14
638.031	1	13
638.201	1	11
638.370	1	-7
638.540	1	-2
638.710	1	-2
638.879	1	-1
639.049	1	14
639.218	1	-4
639.388	1	2
639.557	1	2
639.727	1	-3
639.896	1	2
640.066	1	5
640.235	1	-1
640.405	1	-7
640.574	1	1
640.744	1	-7
640.914	1	-7
641.083	1	-6
641.253	1	-1
641.422	1	-5
641.592	1	-2
641.761	1	1
641.931	1	9
642.100	1	-8
642.270	1	-5
642.439	1	0
642.609	1	12
642.778	1	0
642.948	1	4
643.117	1	-7
643.287	1	13
643.456	1	7
643.626	1	13
643.795	1	-4
643.965	1	5
644.134	1	-8
644.304	1	-7
644.473	1	7
644.643	1	3
644.812	1	3
644.982	1	8
645.151	1	-5
645.321	1	12
645.490	1	4
645.660	1	5
645.829	1	-2
645.999	1	-2
646.168	1	-3
646.338	1	5
646.507	1	-7
646.677	1	2
646.846	1	11
647.016	1	-4
647.185	1	-1
647.355	1	1
647.524	1	10
647.694	1	-4
647.863	1	-8
648.033	1	-11
648.202	1	0
648.372	1	12
648.541	1	7
648.711	1	4
648.880	1	-9
649.050	1	-1
649.219	1	2
649.389	1	1
649.558	1	-4
649.728	1	2
649.897	1	3
650.067	1	2
650.236	1	12
650.406	1	0
650.575	1	-4
650.745	1	-6
650.914	1	0
651.084	1	-14
651.253	1	0
651.423	1	5
651.592	1	-7
651.762	1	9
651.931	1	1
652.101	1	-6
652.270	1	-3
652.440	1	5
652.609	1	-1
652.778	1	-8
652.948	1	5
653.117	1	-5
653.287	1	16
653.456	1	1
653.626	1	6
653.795	1	6
653.965	1	7
654.134	1	10
654.304	1	1
654.473	1	5
654.643	1	14
654.812	1	0
654.982	1	-8
655.151	1	-10
655.320	1	-12
655.490	1	11
655.659	1	0
655.829	1	-10
655.998	1	6
656.168	1	-1
656.337	1	-11
656.507	1	3
656.676	1	-11
656.846	1	-11
657.015	1	1
657.184	1	4
657.354	1	7
657.523	1	-11
657.693	1	4
657.862	1	-6
658.032	1	3
658.201	1	1
658.371	1	-14
658.540	1	0
658.709	1	-8
658.879	1	-5
659.048	1	4
659.218	1	9
659.387	1	-13
659.557	1	0
659.726	1	-5
659.895	1	1
660.065	1	4
660.234	1	4
660.404	1	2
660.573	1	-2
660.743	1	-8
660.912	1	-4
661.081	1	3
661.251	1	3
661.420	1	2
661.590	1	-2
661.759	1	6
661.929	1	1
662.098	1	-12
662.267	1	8
662.437	1	-3
662.606	1	0
662.776	1	11
662.945	1	1
663.115	1	-2
663.284	1	-8
663.453	1	3
663.623	1	5
663.792	1	5
663.962	1	1
664.131	1	-6
664.300	1	4
664.470	1	-4
664.639	1	-3
664.809	1	2
664.978	1	-4
665.148	1	-3
665.317	1	-1
665.486	1	3
665.656	1	0
665.825	1	2
665.995	1	14
666.164	1	-3
666.333	1	2
666.503	1	10
666.672	1	-15
666.842	1	-11
667.011	1	2
667.180	1	-2
667.350	1	11
667.519	1	-9
667.689	1	-7
667.858	1	2
668.027	1	-12
668.197	1	3
668.366	1	4
668.536	1	-6
668.705	1	3
668.874	1	-7
669.044	1	-2
669.213	1	5
669.382	1	-12
669.552	1	10
669.721	1	-13
669.891	1	-3
670.060	1	-2
670.229	1	-3
670.399	1	8
670.568	1	0
670.738	1	2
670.907	1	-6
671.076	1	9
671.246	1	0
671.415	1	-5
671.584	1	-6
671.754	1	-13
671.923	1	-8
672.093	1	0
672.262	1	8
672.431	1	-1
672.601	1	-7
672.770	1	-4
672.939	1	-6
673.109	1	-3
673.278	1	-2
673.448	1	-1
673.617	1	4
673.786	1	-5
