325.333	1	1
325.504	1	1
325.675	1	-4
325.846	1	-6
326.017	1	3
326.188	1	7
326.359	1	9
326.531	1	-10
326.702	1	0
326.873	1	1
327.044	1	4
327.215	1	0
327.386	1	8
327.557	1	11
327.728	1	2
327.899	1	-3
328.070	1	3
328.241	1	-3
328.412	1	5
328.583	1	-9
328.754	1	-4
328.926	1	8
329.097	1	8
329.268	1	-1
329.439	1	-5
329.610	1	-4
329.781	1	-15
329.952	1	10
330.123	1	0
330.294	1	11
330.465	1	3
330.636	1	2
330.807	1	-2
330.978	1	-18
331.149	1	2
331.320	1	7
331.492	1	3
331.663	1	-7
331.834	1	8
332.005	1	10
332.176	1	2
332.347	1	-6
332.518	1	6
332.689	1	9
332.860	1	-5
333.031	1	-2
333.202	1	4
333.373	1	-3
333.544	1	-6
333.715	1	-4
333.886	1	0
334.057	1	-16
334.228	1	0
334.399	1	3
334.570	1	-5
334.741	1	-6
334.912	1	-5
335.084	1	-4
335.255	1	-4
335.426	1	1
335.597	1	-8
335.768	1	4
335.939	1	-1
336.110	1	-5
336.281	1	-12
336.452	1	4
336.623	1	2
336.794	1	-5
336.965	1	-4
337.136	1	0
337.307	1	0
337.478	1	1
337.649	1	-5
337.820	1	17
337.991	1	10
338.162	1	-2
338.333	1	7
338.504	1	-1
338.675	1	7
338.846	1	-7
339.017	1	2
339.188	1	11
339.359	1	-7
339.530	1	12
339.701	1	3
339.872	1	-7
340.043	1	6
340.214	1	-5
340.385	1	-2
340.556	1	2
340.727	1	-1
340.898	1	1
341.069	1	3
341.240	1	4
341.411	1	5
341.582	1	-4
341.753	1	-5
341.924	1	-7
342.095	1	-9
342.266	1	-4
342.437	1	10
342.608	1	-2
342.779	1	1
342.950	1	4
343.121	1	4
343.292	1	5
343.463	1	-5
343.634	1	1
343.805	1	3
343.976	1	2
344.147	1	-2
344.318	1	7
344.489	1	-6
344.660	1	11
344.831	1	-4
345.002	1	0
345.173	1	7
345.344	1	0
345.515	1	4
345.686	1	0
345.857	1	-4
346.028	1	-6
346.199	1	-4
346.370	1	0
346.541	1	-7
346.712	1	5
346.883	1	2
347.054	1	4
347.225	1	-4
347.396	1	5
347.567	1	6
347.738	1	10
347.909	1	1
348.080	1	0
348.251	1	11
348.422	1	3
348.593	1	-1
348.764	1	0
348.935	1	7
349.106	1	5
349.277	1	-9
349.448	1	-4
349.619	1	-8
349.790	1	5
349.961	1	8
350.132	1	-2
350.303	1	-4
350.474	1	4
350.645	1	-4
350.816	1	-11
350.987	1	-7
351.157	1	2
351.328	1	-4
351.499	1	-2
351.670	1	7
351.841	1	8
352.012	1	-8
352.183	1	-6
352.354	1	7
352.525	1	4
352.696	1	-2
352.867	1	-4
353.038	1	2
353.209	1	8
353.380	1	-4
353.551	1	1
353.722	1	1
353.893	1	1
354.064	1	0
354.235	1	0
354.406	1	-8
354.576	1	4
354.747	1	-5
354.918	1	-5
355.089	1	0
355.260	1	2
355.431	1	2
355.602	1	-3
355.773	1	-13
355.944	1	2
356.115	1	-8
356.286	1	2
356.457	1	-2
356.628	1	1
356.799	1	-5
356.970	1	-6
357.141	1	-5
357.311	1	-1
357.482	1	5
357.653	1	3
357.824	1	3
357.995	1	9
358.166	1	0
358.337	1	2
358.508	1	1
358.679	1	8
358.850	1	0
359.021	1	-11
359.192	1	4
359.363	1	11
359.533	1	-3
359.704	1	-1
359.875	1	-3
360.046	1	-1
360.217	1	5
360.388	1	18
360.559	1	5
360.730	1	-2
360.901	1	3
361.072	1	1
361.243	1	10
361.414	1	14
361.584	1	16
361.755	1	8
361.926	1	14
362.097	1	-4
362.268	1	9
362.439	1	15
362.610	1	2
362.781	1	9
362.952	1	13
363.123	1	15
363.293	1	1
363.464	1	15
363.635	1	8
363.806	1	10
363.977	1	9
364.148	1	7
364.319	1	7
364.490	1	1
364.661	1	4
364.832	1	5
365.002	1	12
365.173	1	11
365.344	1	4
365.515	1	10
365.686	1	6
365.857	1	6
366.028	1	4
366.199	1	6
366.370	1	13
366.540	1	18
366.711	1	16
366.882	1	7
367.053	1	14
367.224	1	11
367.395	1	16
367.566	1	15
367.737	1	3
367.908	1	6
368.078	1	13
368.249	1	11
368.420	1	10
368.591	1	28
368.762	1	-2
368.933	1	14
369.104	1	13
369.274	1	12
369.445	1	7
369.616	1	4
369.787	1	7
369.958	1	3
370.129	1	8
370.300	1	-4
370.471	1	10
370.641	1	2
370.812	1	6
370.983	1	6
371.154	1	6
371.325	1	10
371.496	1	-4
371.667	1	-1
371.837	1	-11
372.008	1	2
372.179	1	6
372.350	1	4
372.521	1	-2
372.692	1	-1
372.863	1	4
373.033	1	2
373.204	1	9
373.375	1	5
373.546	1	-3
373.717	1	8
373.888	1	-1
374.059	1	4
374.229	1	-4
374.400	1	3
374.571	1	13
374.742	1	20
374.913	1	3
375.084	1	-1
375.254	1	6
375.425	1	-3
375.596	1	-7
375.767	1	0
375.938	1	9
376.109	1	-7
376.279	1	2
376.450	1	9
376.621	1	16
376.792	1	-1
376.963	1	1
377.134	1	-4
377.304	1	6
377.475	1	8
377.646	1	0
377.817	1	9
377.988	1	1
378.159	1	6
378.329	1	5
378.500	1	-3
378.671	1	-7
378.842	1	-7
379.013	1	1
379.184	1	12
379.354	1	3
379.525	1	14
379.696	1	-2
379.867	1	5
380.038	1	15
380.209	1	10
380.379	1	-2
380.550	1	-2
380.721	1	6
380.892	1	7
381.063	1	2
381.233	1	10
381.404	1	11
381.575	1	-1
381.746	1	7
381.917	1	-2
382.087	1	7
382.258	1	15
382.429	1	9
382.600	1	12
382.771	1	7
382.941	1	19
383.112	1	14
383.283	1	19
383.454	1	14
383.625	1	8
383.795	1	16
383.966	1	14
384.137	1	12
384.308	1	21
384.479	1	23
384.649	1	24
384.820	1	12
384.991	1	18
385.162	1	26
385.333	1	19
385.503	1	13
385.674	1	10
385.845	1	24
386.016	1	17
386.187	1	33
386.357	1	15
386.528	1	29
386.699	1	38
386.870	1	32
387.041	1	12
387.211	1	23
387.382	1	11
387.553	1	19
387.724	1	14
387.894	1	23
388.065	1	29
388.236	1	28
388.407	1	20
388.578	1	14
388.748	1	22
388.919	1	22
389.090	1	23
389.261	1	-5
389.431	1	16
389.602	1	19
389.773	1	12
389.944	1	22
390.114	1	18
390.285	1	10
390.456	1	16
390.627	1	12
390.798	1	27
390.968	1	16
391.139	1	5
391.310	1	20
391.481	1	14
391.651	1	21
391.822	1	22
391.993	1	20
392.164	1	9
392.334	1	19
392.505	1	14
392.676	1	15
392.847	1	12
393.017	1	4
393.188	1	10
393.359	1	21
393.530	1	18
393.700	1	23
393.871	1	12
394.042	1	22
394.213	1	13
394.383	1	24
394.554	1	24
394.725	1	20
394.896	1	1
395.066	1	17
395.237	1	25
395.408	1	12
395.579	1	22
395.749	1	25
395.920	1	19
396.091	1	22
396.262	1	16
396.432	1	10
396.603	1	22
396.774	1	13
396.945	1	16
397.115	1	18
397.286	1	26
397.457	1	19
397.627	1	29
397.798	1	18
397.969	1	15
398.140	1	21
398.310	1	18
398.481	1	19
398.652	1	23
398.823	1	28
398.993	1	12
399.164	1	35
399.335	1	15
399.505	1	22
399.676	1	23
399.847	1	15
400.018	1	15
400.188	1	21
400.359	1	19
400.530	1	14
400.700	1	17
400.871	1	5
401.042	1	6
401.213	1	14
401.383	1	25
401.554	1	20
401.725	1	15
401.895	1	17
402.066	1	16
402.237	1	13
402.408	1	14
402.578	1	12
402.749	1	0
402.920	1	5
403.090	1	6
403.261	1	20
403.432	1	10
403.603	1	18
403.773	1	14
403.944	1	10
404.115	1	-4
404.285	1	5
404.456	1	12
404.627	1	23
404.797	1	31
404.968	1	7
405.139	1	8
405.310	1	4
405.480	1	18
405.651	1	11
405.822	1	23
405.992	1	11
406.163	1	17
406.334	1	13
406.504	1	15
406.675	1	22
406.846	1	13
407.016	1	8
407.187	1	-1
407.358	1	20
407.528	1	1
407.699	1	19
407.870	1	12
408.041	1	9
408.211	1	7
408.382	1	24
408.553	1	15
408.723	1	6
408.894	1	4
409.065	1	22
409.235	1	8
409.406	1	11
409.577	1	12
409.747	1	9
409.918	1	15
410.089	1	11
410.259	1	1
410.430	1	20
410.601	1	0
410.771	1	13
410.942	1	14
411.113	1	8
411.283	1	11
411.454	1	-3
411.625	1	7
411.795	1	15
411.966	1	10
412.137	1	5
412.307	1	8
412.478	1	25
412.649	1	4
412.819	1	7
412.990	1	15
413.161	1	8
413.331	1	2
413.502	1	23
413.672	1	3
413.843	1	6
414.014	1	8
414.184	1	7
414.355	1	-1
414.526	1	2
414.696	1	5
414.867	1	15
415.038	1	9
415.208	1	5
415.379	1	11
415.550	1	5
415.720	1	9
415.891	1	13
416.062	1	7
416.232	1	9
416.403	1	3
416.573	1	6
416.744	1	6
416.915	1	1
417.085	1	0
417.256	1	5
417.427	1	5
417.597	1	-6
417.768	1	3
417.939	1	6
418.109	1	8
418.280	1	4
418.450	1	-6
418.621	1	11
418.792	1	-1
418.962	1	7
419.133	1	2
419.304	1	11
419.474	1	3
419.645	1	24
419.815	1	6
419.986	1	16
420.157	1	5
420.327	1	15
420.498	1	5
420.669	1	11
420.839	1	10
421.010	1	10
421.180	1	3
421.351	1	6
421.522	1	12
421.692	1	6
421.863	1	-4
422.033	1	-1
422.204	1	-7
422.375	1	-1
422.545	1	9
422.716	1	4
422.886	1	9
423.057	1	-7
423.228	1	7
423.398	1	11
423.569	1	4
423.740	1	-9
423.910	1	-6
424.081	1	7
424.251	1	1
424.422	1	6
424.593	1	14
424.763	1	1
424.934	1	17
425.104	1	5
425.275	1	3
425.445	1	1
425.616	1	10
425.787	1	0
425.957	1	19
426.128	1	7
426.298	1	3
426.469	1	7
426.640	1	-5
426.810	1	3
426.981	1	-8
427.151	1	13
427.322	1	6
427.493	1	2
427.663	1	-4
427.834	1	-2
428.004	1	6
428.175	1	-2
428.345	1	14
428.516	1	5
428.687	1	8
428.857	1	0
429.028	1	-4
429.198	1	-12
429.369	1	0
429.540	1	12
429.710	1	7
429.881	1	14
430.051	1	4
430.222	1	-3
430.392	1	6
430.563	1	10
430.734	1	2
430.904	1	-1
431.075	1	5
431.245	1	10
431.416	1	1
431.586	1	2
431.757	1	12
431.927	1	9
432.098	1	0
432.269	1	-3
432.439	1	0
432.610	1	-8
432.780	1	-5
432.951	1	0
433.121	1	8
433.292	1	-2
433.462	1	9
433.633	1	4
433.804	1	-11
433.974	1	-9
434.145	1	8
434.315	1	-1
434.486	1	2
434.656	1	9
434.827	1	1
434.997	1	7
435.168	1	-2
435.339	1	10
435.509	1	11
435.680	1	-8
435.850	1	5
436.021	1	7
436.191	1	-6
436.362	1	3
436.532	1	11
436.703	1	8
436.873	1	-8
437.044	1	8
437.214	1	5
437.385	1	-2
437.556	1	-5
437.726	1	8
437.897	1	8
438.067	1	4
438.238	1	-9
438.408	1	5
438.579	1	10
438.749	1	12
438.920	1	1
439.090	1	10
439.261	1	4
439.431	1	-2
439.602	1	4
439.772	1	4
439.943	1	1
440.113	1	6
440.284	1	12
440.455	1	-12
440.625	1	-7
440.796	1	3
440.966	1	1
441.137	1	-7
441.307	1	2
441.478	1	5
441.648	1	-2
441.819	1	5
441.989	1	-2
442.160	1	7
442.330	1	13
442.501	1	-14
442.671	1	4
442.842	1	9
443.012	1	15
443.183	1	-3
443.353	1	14
443.524	1	9
443.694	1	9
443.865	1	4
444.035	1	-2
444.206	1	8
444.376	1	-6
444.547	1	2
444.717	1	13
444.888	1	-3
445.058	1	3
445.229	1	0
445.399	1	3
445.570	1	10
445.740	1	4
445.911	1	18
446.081	1	2
446.252	1	-2
446.422	1	3
446.593	1	-6
446.763	1	11
446.934	1	6
447.104	1	-6
447.275	1	-5
447.445	1	-2
447.616	1	-2
447.786	1	5
447.957	1	0
448.127	1	1
448.298	1	7
448.468	1	10
448.639	1	9
448.809	1	-5
448.979	1	7
449.150	1	0
449.320	1	1
449.491	1	6
449.661	1	4
449.832	1	-1
450.002	1	-5
450.173	1	11
450.343	1	4
450.514	1	9
450.684	1	-5
450.855	1	3
451.025	1	2
451.196	1	-1
451.366	1	9
451.537	1	-3
451.707	1	1
451.878	1	-3
452.048	1	4
452.218	1	2
452.389	1	-5
452.559	1	4
452.730	1	-2
452.900	1	7
453.071	1	4
453.241	1	-1
453.412	1	-11
453.582	1	9
453.753	1	-2
453.923	1	1
454.093	1	1
454.264	1	0
454.434	1	12
454.605	1	3
454.775	1	13
454.946	1	-3
455.116	1	1
455.287	1	11
455.457	1	-8
455.628	1	-5
455.798	1	-7
455.968	1	10
456.139	1	7
456.309	1	-7
456.480	1	-5
456.650	1	-2
456.821	1	3
456.991	1	2
457.161	1	4
457.332	1	2
457.502	1	1
457.673	1	-1
457.843	1	5
458.014	1	4
458.184	1	1
458.355	1	11
458.525	1	5
458.695	1	3
458.866	1	-1
459.036	1	3
459.207	1	0
459.377	1	-5
459.548	1	-1
459.718	1	-8
459.888	1	12
460.059	1	-10
460.229	1	2
460.400	1	1
460.570	1	-2
460.740	1	-12
460.911	1	8
461.081	1	-3
461.252	1	3
461.422	1	11
461.593	1	-2
461.763	1	6
461.933	1	-11
462.104	1	4
462.274	1	2
462.445	1	-4
462.615	1	-12
462.785	1	-2
462.956	1	-4
463.126	1	-7
463.297	1	1
463.467	1	1
463.638	1	6
463.808	1	-1
463.978	1	-3
464.149	1	0
464.319	1	-6
464.490	1	1
464.660	1	-4
464.830	1	2
465.001	1	3
465.171	1	2
465.342	1	10
465.512	1	7
465.682	1	-1
465.853	1	1
466.023	1	-1
466.194	1	5
466.364	1	15
466.534	1	-2
466.705	1	6
466.875	1	2
467.045	1	4
467.216	1	-10
467.386	1	6
467.557	1	6
467.727	1	-4
467.897	1	11
468.068	1	14
468.238	1	1
468.409	1	5
468.579	1	8
468.749	1	-2
468.920	1	-6
469.090	1	7
469.260	1	6
469.431	1	-2
469.601	1	1
469.772	1	-8
469.942	1	5
470.112	1	10
470.283	1	7
470.453	1	10
470.623	1	-2
470.794	1	8
470.964	1	-7
471.135	1	-4
471.305	1	-4
471.475	1	4
471.646	1	7
471.816	1	9
471.986	1	-2
472.157	1	9
472.327	1	-2
472.497	1	-7
472.668	1	-1
472.838	1	2
473.009	1	2
473.179	1	3
473.349	1	3
473.520	1	11
473.690	1	7
473.860	1	6
474.031	1	-4
474.201	1	-2
474.371	1	-1
474.542	1	-8
474.712	1	-1
474.882	1	2
475.053	1	-7
475.223	1	8
475.394	1	10
475.564	1	12
475.734	1	5
475.905	1	2
476.075	1	-4
476.245	1	6
476.416	1	-7
476.586	1	-6
476.756	1	0
476.927	1	10
477.097	1	-7
477.267	1	-3
477.438	1	-5
477.608	1	7
477.778	1	8
477.949	1	8
478.119	1	2
478.289	1	2
478.460	1	-7
478.630	1	0
478.800	1	-10
478.971	1	6
479.141	1	6
479.311	1	5
479.482	1	-7
479.652	1	11
479.822	1	2
479.993	1	0
480.163	1	-12
480.333	1	-4
480.504	1	-5
480.674	1	3
480.844	1	14
481.015	1	-2
481.185	1	10
481.355	1	4
481.525	1	-1
481.696	1	7
481.866	1	2
482.036	1	-3
482.207	1	-1
482.377	1	4
482.547	1	-1
482.718	1	13
482.888	1	-1
483.058	1	-2
483.229	1	0
483.399	1	0
483.569	1	8
483.740	1	-17
483.910	1	6
484.080	1	-7
484.250	1	-1
484.421	1	0
484.591	1	3
484.761	1	-2
484.932	1	3
485.102	1	4
485.272	1	5
485.443	1	7
485.613	1	-13
485.783	1	10
485.953	1	4
486.124	1	9
486.294	1	4
486.464	1	-5
486.635	1	4
486.805	1	15
486.975	1	-11
487.146	1	4
487.316	1	11
487.486	1	-1
487.656	1	-4
487.827	1	12
487.997	1	6
488.167	1	8
488.338	1	18
488.508	1	10
488.678	1	6
488.848	1	2
489.019	1	-1
489.189	1	-1
489.359	1	9
489.529	1	1
489.700	1	-6
489.870	1	-3
490.040	1	1
490.211	1	12
490.381	1	-2
490.551	1	2
490.721	1	15
490.892	1	4
491.062	1	16
491.232	1	7
491.402	1	-8
491.573	1	6
491.743	1	-12
491.913	1	2
492.084	1	6
492.254	1	2
492.424	1	5
492.594	1	-1
492.765	1	12
492.935	1	-13
493.105	1	12
493.275	1	5
493.446	1	2
493.616	1	-2
493.786	1	8
493.956	1	-1
494.127	1	3
494.297	1	1
494.467	1	5
494.637	1	3
494.808	1	7
494.978	1	7
495.148	1	4
495.318	1	8
495.489	1	5
495.659	1	13
495.829	1	2
495.999	1	4
496.170	1	-4
496.340	1	-4
496.510	1	5
496.680	1	10
496.851	1	12
497.021	1	0
497.191	1	3
497.361	1	6
497.532	1	-4
497.702	1	-4
497.872	1	-1
498.042	1	3
498.213	1	16
498.383	1	4
498.553	1	5
498.723	1	2
498.894	1	9
499.064	1	15
499.234	1	6
499.404	1	3
499.574	1	-3
499.745	1	2
499.915	1	4
500.085	1	-6
500.255	1	6
500.426	1	-2
500.596	1	2
500.766	1	7
500.936	1	5
501.106	1	3
501.277	1	5
501.447	1	-5
501.617	1	14
501.787	1	2
501.958	1	3
502.128	1	1
502.298	1	12
502.468	1	4
502.638	1	7
502.809	1	5
502.979	1	8
503.149	1	6
503.319	1	8
503.489	1	8
503.660	1	3
503.830	1	-3
504.000	1	-3
504.170	1	3
504.340	1	5
504.511	1	18
504.681	1	6
504.851	1	2
505.021	1	5
505.192	1	8
505.362	1	13
505.532	1	3
505.702	1	10
505.872	1	-12
506.043	1	13
506.213	1	4
506.383	1	2
506.553	1	9
506.723	1	5
506.893	1	7
507.064	1	-7
507.234	1	10
507.404	1	3
507.574	1	9
507.744	1	-5
507.915	1	12
508.085	1	11
508.255	1	11
508.425	1	16
508.595	1	13
508.766	1	-6
508.936	1	3
509.106	1	3
509.276	1	0
509.446	1	4
509.616	1	7
509.787	1	3
509.957	1	4
510.127	1	13
510.297	1	-2
510.467	1	5
510.638	1	-3
510.808	1	-3
510.978	1	-2
511.148	1	11
511.318	1	8
511.488	1	10
511.659	1	8
511.829	1	3
511.999	1	21
512.169	1	6
512.339	1	9
512.509	1	8
512.680	1	11
512.850	1	2
513.020	1	7
513.190	1	8
513.360	1	5
513.530	1	4
513.700	1	6
513.871	1	15
514.041	1	4
514.211	1	0
514.381	1	8
514.551	1	0
514.721	1	17
514.892	1	6
515.062	1	4
515.232	1	11
515.402	1	9
515.572	1	6
515.742	1	8
515.912	1	3
516.083	1	14
516.253	1	6
516.423	1	28
516.593	1	-5
516.763	1	8
516.933	1	11
517.104	1	17
517.274	1	15
517.444	1	7
517.614	1	4
517.784	1	8
517.954	1	2
518.124	1	13
518.294	1	12
518.465	1	7
518.635	1	11
518.805	1	12
518.975	1	6
519.145	1	10
519.315	1	4
519.485	1	7
519.656	1	13
519.826	1	21
519.996	1	12
520.166	1	11
520.336	1	-1
520.506	1	9
520.676	1	11
520.846	1	5
521.017	1	1
521.187	1	10
521.357	1	6
521.527	1	14
521.697	1	11
521.867	1	13
522.037	1	8
522.207	1	4
522.377	1	16
522.548	1	-4
522.718	1	5
522.888	1	8
523.058	1	25
523.228	1	19
523.398	1	13
523.568	1	5
523.738	1	7
523.909	1	14
524.079	1	9
524.249	1	17
524.419	1	7
524.589	1	9
524.759	1	12
524.929	1	15
525.099	1	2
525.269	1	18
525.439	1	2
525.610	1	4
525.780	1	26
525.950	1	5
526.120	1	-1
526.290	1	1
526.460	1	8
526.630	1	16
526.800	1	12
526.970	1	2
527.140	1	2
527.311	1	7
527.481	1	18
527.651	1	22
527.821	1	13
527.991	1	7
528.161	1	10
528.331	1	16
528.501	1	1
528.671	1	6
528.841	1	18
529.011	1	8
529.181	1	15
529.352	1	7
529.522	1	6
529.692	1	15
529.862	1	11
530.032	1	6
530.202	1	7
530.372	1	1
530.542	1	15
530.712	1	14
530.882	1	-2
531.052	1	17
531.222	1	-3
531.392	1	13
531.563	1	10
531.733	1	9
531.903	1	16
532.073	1	11
532.243	1	13
532.413	1	6
532.583	1	7
532.753	1	12
532.923	1	11
533.093	1	12
533.263	1	13
533.433	1	7
533.603	1	5
533.773	1	12
533.943	1	12
534.113	1	14
534.284	1	11
534.454	1	17
534.624	1	19
534.794	1	11
534.964	1	-8
535.134	1	-1
535.304	1	15
535.474	1	21
535.644	1	7
535.814	1	8
535.984	1	4
536.154	1	5
536.324	1	13
536.494	1	17
536.664	1	8
536.834	1	12
537.004	1	26
537.174	1	16
537.344	1	17
537.514	1	10
537.685	1	11
537.855	1	7
538.025	1	8
538.195	1	23
538.365	1	18
538.535	1	17
538.705	1	6
538.875	1	13
539.045	1	4
539.215	1	-2
539.385	1	9
539.555	1	6
539.725	1	9
539.895	1	8
540.065	1	8
540.235	1	5
540.405	1	14
540.575	1	15
540.745	1	7
540.915	1	10
541.085	1	7
541.255	1	-1
541.425	1	6
541.595	1	13
541.765	1	4
541.935	1	16
542.105	1	15
542.275	1	-3
542.445	1	8
542.615	1	9
542.785	1	11
542.955	1	4
543.125	1	0
543.295	1	8
543.465	1	22
543.635	1	6
543.805	1	7
543.975	1	13
544.145	1	0
544.315	1	1
544.485	1	3
544.655	1	13
544.825	1	17
544.995	1	-2
545.165	1	15
545.335	1	5
545.505	1	9
545.675	1	5
545.845	1	4
546.015	1	5
546.185	1	2
546.355	1	23
546.525	1	9
546.695	1	3
546.865	1	-5
547.035	1	20
547.205	1	-1
547.375	1	13
547.545	1	9
547.715	1	8
547.885	1	-1
548.055	1	12
548.225	1	1
548.395	1	13
548.565	1	8
548.735	1	14
548.905	1	-6
549.075	1	9
549.245	1	7
549.415	1	16
549.585	1	3
549.755	1	2
549.925	1	20
550.095	1	16
550.265	1	4
550.435	1	10
550.605	1	20
550.775	1	7
550.945	1	11
551.115	1	7
551.285	1	12
551.455	1	10
551.625	1	4
551.795	1	9
551.965	1	7
552.135	1	1
552.305	1	11
552.475	1	6
552.645	1	15
552.815	1	1
552.985	1	5
553.155	1	10
553.325	1	16
553.495	1	12
553.665	1	10
553.835	1	14
554.004	1	12
554.174	1	-4
554.344	1	3
554.514	1	13
554.684	1	6
554.854	1	11
555.024	1	1
555.194	1	18
555.364	1	18
555.534	1	3
555.704	1	3
555.874	1	-10
556.044	1	5
556.214	1	11
556.384	1	17
556.554	1	5
556.724	1	-4
556.894	1	25
557.064	1	4
557.234	1	0
557.404	1	-5
557.573	1	9
557.743	1	-1
557.913	1	4
558.083	1	-6
558.253	1	9
558.423	1	-3
558.593	1	3
558.763	1	9
558.933	1	3
559.103	1	9
559.273	1	1
559.443	1	9
559.613	1	9
559.783	1	10
559.953	1	11
560.122	1	-5
560.292	1	5
560.462	1	3
560.632	1	7
560.802	1	2
560.972	1	12
561.142	1	16
561.312	1	9
561.482	1	6
561.652	1	5
561.822	1	3
561.992	1	12
562.162	1	4
562.331	1	-2
562.501	1	11
562.671	1	-2
562.841	1	4
563.011	1	9
563.181	1	10
563.351	1	0
563.521	1	8
563.691	1	6
563.861	1	10
564.031	1	17
564.201	1	7
564.370	1	5
564.540	1	16
564.710	1	-5
564.880	1	13
565.050	1	9
565.220	1	7
565.390	1	-9
565.560	1	15
565.730	1	-3
565.900	1	8
566.069	1	12
566.239	1	6
566.409	1	6
566.579	1	8
566.749	1	10
566.919	1	15
567.089	1	7
567.259	1	15
567.429	1	5
567.599	1	3
567.768	1	11
567.938	1	10
568.108	1	0
568.278	1	-10
568.448	1	-2
568.618	1	6
568.788	1	-3
568.958	1	11
569.128	1	9
569.297	1	10
569.467	1	-2
569.637	1	2
569.807	1	2
569.977	1	21
570.147	1	5
570.317	1	15
570.487	1	-7
570.656	1	3
570.826	1	13
570.996	1	-3
571.166	1	5
571.336	1	3
571.506	1	-6
571.676	1	13
571.846	1	7
572.015	1	-14
572.185	1	-5
572.355	1	16
572.525	1	0
572.695	1	12
572.865	1	7
573.035	1	16
573.205	1	16
573.374	1	3
573.544	1	0
573.714	1	9
573.884	1	5
574.054	1	4
574.224	1	2
574.394	1	-4
574.563	1	11
574.733	1	16
574.903	1	9
575.073	1	2
575.243	1	-6
575.413	1	5
575.583	1	12
575.752	1	-2
575.922	1	8
576.092	1	11
576.262	1	5
576.432	1	0
576.602	1	-1
576.772	1	9
576.941	1	10
577.111	1	12
577.281	1	12
577.451	1	4
577.621	1	1
577.791	1	14
577.960	1	-11
578.130	1	-10
578.300	1	3
578.470	1	5
578.640	1	-4
578.810	1	7
578.979	1	4
579.149	1	0
579.319	1	5
579.489	1	-5
579.659	1	10
579.829	1	15
579.998	1	-5
580.168	1	5
580.338	1	-10
580.508	1	9
580.678	1	-1
580.848	1	5
581.017	1	0
581.187	1	2
581.357	1	3
581.527	1	7
581.697	1	-9
581.867	1	-1
582.036	1	9
582.206	1	3
582.376	1	7
582.546	1	6
582.716	1	13
582.885	1	8
583.055	1	-1
583.225	1	5
583.395	1	12
583.565	1	12
583.735	1	1
583.904	1	-1
584.074	1	0
584.244	1	1
584.414	1	5
584.584	1	2
584.753	1	5
584.923	1	-3
585.093	1	7
585.263	1	0
585.433	1	3
585.602	1	0
585.772	1	-2
585.942	1	8
586.112	1	12
586.282	1	3
586.451	1	4
586.621	1	-1
586.791	1	2
586.961	1	6
587.131	1	-3
587.300	1	2
587.470	1	10
587.640	1	0
587.810	1	-2
587.980	1	-4
588.149	1	4
588.319	1	3
588.489	1	6
588.659	1	-4
588.829	1	9
588.998	1	-6
589.168	1	7
589.338	1	5
589.508	1	7
589.677	1	5
589.847	1	-3
590.017	1	-8
590.187	1	0
590.357	1	-11
590.526	1	7
590.696	1	4
590.866	1	-1
591.036	1	6
591.205	1	8
591.375	1	-8
591.545	1	4
591.715	1	-5
591.885	1	2
592.054	1	4
592.224	1	17
592.394	1	0
592.564	1	-9
592.733	1	-5
592.903	1	0
593.073	1	5
593.243	1	-1
593.412	1	-3
593.582	1	10
593.752	1	-1
593.922	1	4
594.091	1	11
594.261	1	10
594.431	1	-4
594.601	1	-7
594.771	1	12
594.940	1	10
595.110	1	5
595.280	1	3
595.450	1	9
595.619	1	9
595.789	1	7
595.959	1	-4
596.129	1	-6
596.298	1	12
596.468	1	-2
596.638	1	8
596.808	1	6
596.977	1	7
597.147	1	5
597.317	1	3
597.487	1	6
597.656	1	2
597.826	1	4
597.996	1	5
598.166	1	7
598.335	1	6
598.505	1	-5
598.675	1	-7
598.844	1	-4
599.014	1	5
599.184	1	-11
599.354	1	-3
599.523	1	-5
599.693	1	6
599.863	1	4
600.033	1	4
600.202	1	2
600.372	1	5
600.542	1	2
600.712	1	5
600.881	1	3
601.051	1	5
601.221	1	-1
601.390	1	-14
601.560	1	9
601.730	1	-4
601.900	1	-1
602.069	1	4
602.239	1	-3
602.409	1	-5
602.578	1	3
602.748	1	-5
602.918	1	-2
603.088	1	5
603.257	1	9
603.427	1	4
603.597	1	17
603.767	1	-3
603.936	1	13
604.106	1	1
604.276	1	6
604.445	1	-1
604.615	1	-3
604.785	1	-1
604.954	1	2
605.124	1	-9
605.294	1	-1
605.464	1	-4
605.633	1	9
605.803	1	8
605.973	1	-5
606.142	1	3
606.312	1	-2
606.482	1	-2
606.652	1	1
606.821	1	11
606.991	1	-1
607.161	1	3
607.330	1	9
607.500	1	7
607.670	1	-5
607.839	1	-3
608.009	1	-10
608.179	1	2
608.348	1	1
608.518	1	6
608.688	1	8
608.858	1	12
609.027	1	6
609.197	1	-1
609.367	1	-7
609.536	1	0
609.706	1	-4
609.876	1	-3
610.045	1	-5
610.215	1	-2
610.385	1	0
610.554	1	-7
610.724	1	7
610.894	1	8
611.063	1	15
611.233	1	2
611.403	1	-8
611.572	1	2
611.742	1	-1
611.912	1	-6
612.081	1	-2
612.251	1	12
612.421	1	18
612.590	1	-2
612.760	1	-4
612.930	1	-1
613.099	1	-4
613.269	1	-5
613.439	1	-2
613.608	1	11
613.778	1	3
613.948	1	9
614.117	1	6
614.287	1	-5
614.457	1	9
614.626	1	5
614.796	1	6
614.966	1	11
615.135	1	-8
615.305	1	1
615.475	1	11
615.644	1	-3
615.814	1	2
615.984	1	5
616.153	1	5
616.323	1	-1
616.493	1	2
616.662	1	2
616.832	1	-1
617.002	1	-9
617.171	1	-2
617.341	1	5
617.511	1	-3
617.680	1	4
617.850	1	-3
618.019	1	-1
618.189	1	-4
618.359	1	2
618.528	1	5
618.698	1	0
618.868	1	-1
619.037	1	6
619.207	1	-10
619.377	1	-12
619.546	1	3
619.716	1	-7
619.885	1	5
620.055	1	3
620.225	1	12
620.394	1	-7
620.564	1	-7
620.734	1	-1
620.903	1	6
621.073	1	-4
621.242	1	5
621.412	1	4
621.582	1	2
621.751	1	0
621.921	1	-5
622.091	1	-10
622.260	1	-5
622.430	1	0
622.599	1	14
622.769	1	3
622.939	1	15
623.108	1	0
623.278	1	2
623.448	1	-2
623.617	1	11
623.787	1	-5
623.956	1	7
624.126	1	6
624.296	1	-1
624.465	1	9
624.635	1	7
624.804	1	-8
624.974	1	-13
625.144	1	0
625.313	1	-2
625.483	1	-4
625.652	1	0
625.822	1	-1
625.992	1	-1
626.161	1	8
626.331	1	0
626.501	1	6
626.670	1	9
626.840	1	6
627.009	1	-11
627.179	1	4
627.348	1	-4
627.518	1	12
627.688	1	-2
627.857	1	15
628.027	1	0
628.196	1	9
628.366	1	9
628.536	1	4
628.705	1	3
628.875	1	0
629.044	1	-3
629.214	1	0
629.384	1	-6
629.553	1	5
629.723	1	7
629.892	1	9
630.062	1	1
630.232	1	9
630.401	1	1
630.571	1	6
630.740	1	-4
630.910	1	2
631.079	1	7
631.249	1	2
631.419	1	9
631.588	1	1
631.758	1	3
631.927	1	6
632.097	1	8
632.266	1	-7
632.436	1	-1
632.606	1	8
632.775	1	-4
632.945	1	-2
633.114	1	9
633.284	1	-14
633.453	1	-8
633.623	1	2
633.793	1	-1
633.962	1	7
634.132	1	11
634.301	1	-3
634.471	1	1
634.640	1	2
634.810	1	8
634.979	1	9
635.149	1	0
635.319	1	-1
635.488	1	-3
635.658	1	-7
635.827	1	1
635.997	1	0
636.166	1	6
636.336	1	10
636.505	1	-8
636.675	1	-2
636.845	1	4
637.014	1	-8
637.184	1	-3
637.353	1	-3
637.523	1	0
637.692	1	1
637.862	1	-5
638.031	1	13
638.201	1	20
638.370	1	11
638.540	1	5
638.710	1	5
638.879	1	-6
639.049	1	7
639.218	1	0
639.388	1	1
639.557	1	2
639.727	1	2
639.896	1	-4
640.066	1	11
640.235	1	-3
640.405	1	-5
640.574	1	0
640.744	1	-2
640.914	1	-8
641.083	1	-2
641.253	1	0
641.422	1	-9
641.592	1	-6
641.761	1	4
641.931	1	2
642.100	1	4
642.270	1	-4
642.439	1	-1
642.609	1	-8
642.778	1	-3
642.948	1	-1
643.117	1	-8
643.287	1	8
643.456	1	5
643.626	1	1
643.795	1	-1
643.965	1	-4
644.134	1	-5
644.304	1	-3
644.473	1	8
644.643	1	3
644.812	1	-1
644.982	1	14
645.151	1	5
645.321	1	15
645.490	1	5
645.660	1	-2
645.829	1	-8
645.999	1	0
646.168	1	-1
646.338	1	9
646.507	1	2
646.677	1	7
646.846	1	9
647.016	1	0
647.185	1	-3
647.355	1	-6
647.524	1	4
647.694	1	-6
647.863	1	-10
648.033	1	-10
648.202	1	9
648.372	1	5
648.541	1	6
648.711	1	4
648.880	1	0
649.050	1	2
649.219	1	2
649.389	1	-6
649.558	1	-5
649.728	1	3
649.897	1	0
650.067	1	-8
650.236	1	5
650.406	1	7
650.575	1	0
650.745	1	-6
650.914	1	-3
651.084	1	-4
651.253	1	2
651.423	1	1
651.592	1	-4
651.762	1	9
651.931	1	5
652.101	1	0
652.270	1	5
652.440	1	-2
652.609	1	10
652.778	1	-4
652.948	1	-5
653.117	1	0
653.287	1	7
653.456	1	1
653.626	1	2
653.795	1	-3
653.965	1	9
654.134	1	7
654.304	1	-1
654.473	1	8
654.643	1	14
654.812	1	5
654.982	1	-5
655.151	1	-1
655.320	1	2
655.490	1	9
655.659	1	4
655.829	1	1
655.998	1	4
656.168	1	0
656.337	1	-2
656.507	1	18
656.676	1	-8
656.846	1	-11
657.015	1	0
657.184	1	-4
657.354	1	-6
657.523	1	7
657.693	1	1
657.862	1	2
658.032	1	6
658.201	1	1
658.371	1	-2
658.540	1	4
658.709	1	-8
658.879	1	4
659.048	1	-4
659.218	1	-4
659.387	1	-6
659.557	1	-5
659.726	1	-2
659.895	1	-2
660.065	1	1
660.234	1	4
660.404	1	11
660.573	1	-7
660.743	1	-3
660.912	1	-1
661.081	1	-1
661.251	1	13
661.420	1	-10
661.590	1	3
661.759	1	3
661.929	1	-2
662.098	1	-11
662.267	1	11
662.437	1	-2
662.606	1	0
662.776	1	2
662.945	1	-9
663.115	1	2
663.284	1	-4
663.453	1	-7
663.623	1	1
663.792	1	8
663.962	1	-4
664.131	1	-6
664.300	1	-1
664.470	1	6
664.639	1	7
664.809	1	3
664.978	1	4
665.148	1	1
665.317	1	-3
665.486	1	1
665.656	1	-8
665.825	1	4
665.995	1	5
666.164	1	-3
666.333	1	14
666.503	1	-1
666.672	1	-9
666.842	1	-8
667.011	1	8
667.180	1	7
667.350	1	10
667.519	1	-3
667.689	1	-2
667.858	1	3
668.027	1	-4
668.197	1	5
668.366	1	-2
668.536	1	3
668.705	1	1
668.874	1	-1
669.044	1	-8
669.213	1	8
669.382	1	-10
669.552	1	5
669.721	1	-3
669.891	1	9
670.060	1	5
670.229	1	-1
670.399	1	4
670.568	1	6
670.738	1	-4
670.907	1	-13
671.076	1	11
671.246	1	2
671.415	1	-10
671.584	1	-6
671.754	1	-6
671.923	1	-4
672.093	1	0
672.262	1	6
672.431	1	3
672.601	1	-3
672.770	1	6
672.939	1	-13
673.109	1	5
673.278	1	7
673.448	1	0
673.617	1	7
673.786	1	-1
