325.333	1	3
325.504	1	9
325.675	1	-1
325.846	1	-5
326.017	1	-6
326.188	1	1
326.359	1	6
326.531	1	-16
326.702	1	8
326.873	1	4
327.044	1	-2
327.215	1	-3
327.386	1	-7
327.557	1	-1
327.728	1	-5
327.899	1	-9
328.070	1	1
328.241	1	6
328.412	1	5
328.583	1	-10
328.754	1	-4
328.926	1	-2
329.097	1	-1
329.268	1	-7
329.439	1	1
329.610	1	-8
329.781	1	-3
329.952	1	15
330.123	1	5
330.294	1	22
330.465	1	-5
330.636	1	1
330.807	1	5
330.978	1	-3
331.149	1	1
331.320	1	-2
331.492	1	-13
331.663	1	-7
331.834	1	2
332.005	1	10
332.176	1	-3
332.347	1	6
332.518	1	9
332.689	1	6
332.860	1	-5
333.031	1	4
333.202	1	-3
333.373	1	-7
333.544	1	-5
333.715	1	0
333.886	1	-3
334.057	1	-5
334.228	1	-6
334.399	1	2
334.570	1	0
334.741	1	-9
334.912	1	-6
335.084	1	-6
335.255	1	2
335.426	1	-2
335.597	1	-8
335.768	1	5
335.939	1	-1
336.110	1	3
336.281	1	-7
336.452	1	-4
336.623	1	7
336.794	1	-6
336.965	1	-5
337.136	1	-4
337.307	1	5
337.478	1	7
337.649	1	0
337.820	1	6
337.991	1	0
338.162	1	3
338.333	1	5
338.504	1	-2
338.675	1	-2
338.846	1	5
339.017	1	-8
339.188	1	1
339.359	1	1
339.530	1	-4
339.701	1	-3
339.872	1	-6
340.043	1	-1
340.214	1	-5
340.385	1	2
340.556	1	2
340.727	1	-3
340.898	1	-8
341.069	1	0
341.240	1	3
341.411	1	-1
341.582	1	-2
341.753	1	3
341.924	1	0
342.095	1	4
342.266	1	-5
342.437	1	7
342.608	1	-5
342.779	1	-8
342.950	1	-1
343.121	1	11
343.292	1	-15
343.463	1	3
343.634	1	-4
343.805	1	6
343.976	1	8
344.147	1	7
344.318	1	4
344.489	1	-9
344.660	1	10
344.831	1	-7
345.002	1	-4
345.173	1	-9
345.344	1	-3
345.515	1	-4
345.686	1	8
345.857	1	-9
346.028	1	2
346.199	1	-8
346.370	1	-3
346.541	1	-6
346.712	1	5
346.883	1	-2
347.054	1	-2
347.225	1	-2
347.396	1	4
347.567	1	7
347.738	1	5
347.909	1	5
348.080	1	-8
348.251	1	1
348.422	1	-4
348.593	1	-4
348.764	1	-2
348.935	1	3
349.106	1	2
349.277	1	-2
349.448	1	1
349.619	1	0
349.790	1	4
349.961	1	-8
350.132	1	0
350.303	1	-7
350.474	1	3
350.645	1	-1
350.816	1	-6
350.987	1	-10
351.157	1	14
351.328	1	-2
351.499	1	-6
351.670	1	0
351.841	1	7
352.012	1	-10
352.183	1	0
352.354	1	-4
352.525	1	-1
352.696	1	1
352.867	1	-3
353.038	1	12
353.209	1	9
353.380	1	2
353.551	1	8
353.722	1	-7
353.893	1	1
354.064	1	5
354.235	1	-1
354.406	1	-8
354.576	1	6
354.747	1	-11
354.918	1	-7
355.089	1	1
355.260	1	-6
355.431	1	6
355.602	1	3
355.773	1	-5
355.944	1	4
356.115	1	-4
356.286	1	11
356.457	1	-5
356.628	1	-5
356.799	1	-8
356.970	1	-6
357.141	1	-12
357.311	1	-5
357.482	1	3
357.653	1	-2
357.824	1	-3
357.995	1	3
358.166	1	4
358.337	1	7
358.508	1	13
358.679	1	2
358.850	1	-7
359.021	1	-12
359.192	1	0
359.363	1	0
359.533	1	-9
359.704	1	4
359.875	1	2
360.046	1	-3
360.217	1	12
360.388	1	10
360.559	1	2
360.730	1	2
360.901	1	3
361.072	1	-9
361.243	1	6
361.414	1	10
361.584	1	6
361.755	1	6
361.926	1	7
362.097	1	-3
362.268	1	3
362.439	1	0
362.610	1	0
362.781	1	-1
362.952	1	3
363.123	1	2
363.293	1	-6
363.464	1	15
363.635	1	6
363.806	1	6
363.977	1	11
364.148	1	0
364.319	1	3
364.490	1	-6
364.661	1	3
364.832	1	-1
365.002	1	10
365.173	1	2
365.344	1	5
365.515	1	-4
365.686	1	5
365.857	1	7
366.028	1	-3
366.199	1	2
366.370	1	5
366.540	1	-3
366.711	1	13
366.882	1	2
367.053	1	7
367.224	1	4
367.395	1	2
367.566	1	2
367.737	1	2
367.908	1	5
368.078	1	14
368.249	1	2
368.420	1	-4
368.591	1	14
368.762	1	-5
368.933	1	10
369.104	1	5
369.274	1	6
369.445	1	0
369.616	1	0
369.787	1	12
369.958	1	-1
370.129	1	5
370.300	1	-7
370.471	1	14
370.641	1	0
370.812	1	2
370.983	1	1
371.154	1	-5
371.325	1	3
371.496	1	-8
371.667	1	-11
371.837	1	-10
372.008	1	4
372.179	1	5
372.350	1	-1
372.521	1	0
372.692	1	-6
372.863	1	-6
373.033	1	-3
373.204	1	-4
373.375	1	-10
373.546	1	-2
373.717	1	-1
373.888	1	-12
374.059	1	11
374.229	1	-3
374.400	1	-2
374.571	1	-2
374.742	1	2
374.913	1	1
375.084	1	0
375.254	1	-5
375.425	1	-2
375.596	1	-11
375.767	1	5
375.938	1	6
376.109	1	0
376.279	1	-1
376.450	1	6
376.621	1	7
376.792	1	-7
376.963	1	-2
377.134	1	-3
377.304	1	-1
377.475	1	-3
377.646	1	1
377.817	1	15
377.988	1	-3
378.159	1	4
378.329	1	-1
378.500	1	-2
378.671	1	-2
378.842	1	-2
379.013	1	6
379.184	1	4
379.354	1	6
379.525	1	2
379.696	1	-4
379.867	1	-2
380.038	1	6
380.209	1	8
380.379	1	-13
380.550	1	-5
380.721	1	8
380.892	1	-4
381.063	1	1
381.233	1	6
381.404	1	10
381.575	1	-5
381.746	1	4
381.917	1	-5
382.087	1	2
382.258	1	15
382.429	1	6
382.600	1	7
382.771	1	2
382.941	1	2
383.112	1	9
383.283	1	-2
383.454	1	-5
383.625	1	-3
383.795	1	12
383.966	1	8
384.137	1	2
384.308	1	12
384.479	1	13
384.649	1	1
384.820	1	-6
384.991	1	5
385.162	1	8
385.333	1	18
385.503	1	6
385.674	1	2
385.845	1	20
386.016	1	-1
386.187	1	10
386.357	1	7
386.528	1	18
386.699	1	10
386.870	1	10
387.041	1	-2
387.211	1	-2
387.382	1	11
387.553	1	14
387.724	1	2
387.894	1	14
388.065	1	9
388.236	1	11
388.407	1	11
388.578	1	0
388.748	1	15
388.919	1	1
389.090	1	11
389.261	1	-8
389.431	1	16
389.602	1	17
389.773	1	0
389.944	1	8
390.114	1	15
390.285	1	4
390.456	1	8
390.627	1	-3
390.798	1	2
390.968	1	7
391.139	1	-3
391.310	1	10
391.481	1	9
391.651	1	10
391.822	1	4
391.993	1	9
392.164	1	11
392.334	1	15
392.505	1	8
392.676	1	0
392.847	1	5
393.017	1	0
393.188	1	2
393.359	1	10
393.530	1	4
393.700	1	18
393.871	1	1
394.042	1	8
394.213	1	19
394.383	1	6
394.554	1	5
394.725	1	5
394.896	1	-1
395.066	1	9
395.237	1	15
395.408	1	5
395.579	1	19
395.749	1	11
395.920	1	8
396.091	1	3
396.262	1	11
396.432	1	-5
396.603	1	12
396.774	1	3
396.945	1	4
397.115	1	18
397.286	1	16
397.457	1	7
397.627	1	7
397.798	1	6
397.969	1	7
398.140	1	5
398.310	1	12
398.481	1	3
398.652	1	10
398.823	1	14
398.993	1	-2
399.164	1	24
399.335	1	-11
399.505	1	2
399.676	1	16
399.847	1	1
400.018	1	16
400.188	1	6
400.359	1	10
400.530	1	11
400.700	1	5
400.871	1	2
401.042	1	5
401.213	1	6
401.383	1	4
401.554	1	8
401.725	1	2
401.895	1	8
402.066	1	3
402.237	1	10
402.408	1	-1
402.578	1	3
402.749	1	-4
402.920	1	-2
403.090	1	12
403.261	1	-1
403.432	1	9
403.603	1	15
403.773	1	8
403.944	1	0
404.115	1	-9
404.285	1	-3
404.456	1	8
404.627	1	10
404.797	1	24
404.968	1	-3
405.139	1	-5
405.310	1	-2
405.480	1	5
405.651	1	8
405.822	1	9
405.992	1	1
406.163	1	10
406.334	1	15
406.504	1	-2
406.675	1	17
406.846	1	4
407.016	1	1
407.187	1	-4
407.358	1	1
407.528	1	3
407.699	1	10
407.870	1	12
408.041	1	4
408.211	1	4
408.382	1	14
408.553	1	6
408.723	1	5
408.894	1	-5
409.065	1	6
409.235	1	-4
409.406	1	-3
409.577	1	15
409.747	1	1
409.918	1	1
410.089	1	9
410.259	1	-6
410.430	1	14
410.601	1	-4
410.771	1	6
410.942	1	11
411.113	1	9
411.283	1	-1
411.454	1	-8
411.625	1	-8
411.795	1	13
411.966	1	2
412.137	1	-3
412.307	1	1
412.478	1	13
412.649	1	4
412.819	1	1
412.990	1	10
413.161	1	2
413.331	1	-8
413.502	1	10
413.672	1	12
413.843	1	1
414.014	1	4
414.184	1	-3
414.355	1	0
414.526	1	2
414.696	1	-7
414.867	1	19
415.038	1	12
415.208	1	5
415.379	1	5
415.550	1	4
415.720	1	-6
415.891	1	12
416.062	1	0
416.232	1	10
416.403	1	4
416.573	1	-6
416.744	1	10
416.915	1	8
417.085	1	-2
417.256	1	2
417.427	1	7
417.597	1	-11
417.768	1	-3
417.939	1	-1
418.109	1	8
418.280	1	11
418.450	1	-1
418.621	1	-3
418.792	1	8
418.962	1	-2
419.133	1	4
419.304	1	2
419.474	1	7
419.645	1	14
419.815	1	-3
419.986	1	2
420.157	1	10
420.327	1	14
420.498	1	6
420.669	1	8
420.839	1	2
421.010	1	-1
421.180	1	5
421.351	1	7
421.522	1	0
421.692	1	7
421.863	1	1
422.033	1	-3
422.204	1	-15
422.375	1	-3
422.545	1	4
422.716	1	-11
422.886	1	2
423.057	1	-1
423.228	1	-11
423.398	1	1
423.569	1	6
423.740	1	3
423.910	1	-7
424.081	1	5
424.251	1	-10
424.422	1	5
424.593	1	6
424.763	1	-4
424.934	1	5
425.104	1	-1
425.275	1	-8
425.445	1	-4
425.616	1	10
425.787	1	-6
425.957	1	16
426.128	1	-6
426.298	1	-1
426.469	1	-6
426.640	1	-3
426.810	1	7
426.981	1	-8
427.151	1	0
427.322	1	-3
427.493	1	3
427.663	1	10
427.834	1	2
428.004	1	7
428.175	1	-2
428.345	1	8
428.516	1	-4
428.687	1	-2
428.857	1	3
429.028	1	-1
429.198	1	-5
429.369	1	10
429.540	1	12
429.710	1	-3
429.881	1	14
430.051	1	2
430.222	1	-13
430.392	1	9
430.563	1	13
430.734	1	-3
430.904	1	-6
431.075	1	4
431.245	1	15
431.416	1	3
431.586	1	2
431.757	1	1
431.927	1	10
432.098	1	-6
432.269	1	3
432.439	1	-15
432.610	1	-5
432.780	1	3
432.951	1	-1
433.121	1	5
433.292	1	11
433.462	1	6
433.633	1	-5
433.804	1	-5
433.974	1	-9
434.145	1	-6
434.315	1	9
434.486	1	0
434.656	1	-5
434.827	1	2
434.997	1	5
435.168	1	-16
435.339	1	3
435.509	1	10
435.680	1	-5
435.850	1	-10
436.021	1	5
436.191	1	-4
436.362	1	-10
436.532	1	9
436.703	1	4
436.873	1	-1
437.044	1	9
437.214	1	-6
437.385	1	2
437.556	1	3
437.726	1	-3
437.897	1	-6
438.067	1	-1
438.238	1	-3
438.408	1	-4
438.579	1	4
438.749	1	6
438.920	1	-4
439.090	1	7
439.261	1	-3
439.431	1	-5
439.602	1	4
439.772	1	7
439.943	1	5
440.113	1	1
440.284	1	5
440.455	1	-3
440.625	1	11
440.796	1	1
440.966	1	0
441.137	1	-11
441.307	1	-4
441.478	1	-3
441.648	1	4
441.819	1	4
441.989	1	-5
442.160	1	0
442.330	1	-1
442.501	1	-13
442.671	1	1
442.842	1	0
443.012	1	2
443.183	1	-4
443.353	1	5
443.524	1	-1
443.694	1	-2
443.865	1	5
444.035	1	3
444.206	1	3
444.376	1	6
444.547	1	-4
444.717	1	21
444.888	1	-16
445.058	1	2
445.229	1	-6
445.399	1	7
445.570	1	1
445.740	1	1
445.911	1	3
446.081	1	12
446.252	1	-3
446.422	1	-7
446.593	1	-5
446.763	1	5
446.934	1	14
447.104	1	0
447.275	1	-5
447.445	1	1
447.616	1	-2
447.786	1	0
447.957	1	2
448.127	1	-1
448.298	1	3
448.468	1	6
448.639	1	5
448.809	1	3
448.979	1	2
449.150	1	-6
449.320	1	-1
449.491	1	3
449.661	1	-5
449.832	1	5
450.002	1	1
450.173	1	-3
450.343	1	1
450.514	1	-2
450.684	1	-1
450.855	1	-3
451.025	1	0
451.196	1	-5
451.366	1	-3
451.537	1	-5
451.707	1	3
451.878	1	-9
452.048	1	2
452.218	1	3
452.389	1	-5
452.559	1	-4
452.730	1	2
452.900	1	2
453.071	1	-8
453.241	1	-2
453.412	1	-10
453.582	1	12
453.753	1	-8
453.923	1	0
454.093	1	-1
454.264	1	-8
454.434	1	8
454.605	1	5
454.775	1	9
454.946	1	2
455.116	1	-2
455.287	1	8
455.457	1	-4
455.628	1	-6
455.798	1	-10
455.968	1	7
456.139	1	1
456.309	1	-3
456.480	1	-3
456.650	1	5
456.821	1	-5
456.991	1	11
457.161	1	-7
457.332	1	-7
457.502	1	3
457.673	1	0
457.843	1	5
458.014	1	-1
458.184	1	8
458.355	1	3
458.525	1	4
458.695	1	3
458.866	1	2
459.036	1	6
459.207	1	0
459.377	1	-5
459.548	1	-2
459.718	1	-13
459.888	1	15
460.059	1	0
460.229	1	7
460.400	1	0
460.570	1	-11
460.740	1	1
460.911	1	13
461.081	1	-10
461.252	1	-5
461.422	1	7
461.593	1	-8
461.763	1	2
461.933	1	-10
462.104	1	7
462.274	1	2
462.445	1	1
462.615	1	-18
462.785	1	-11
462.956	1	-11
463.126	1	-5
463.297	1	0
463.467	1	4
463.638	1	-2
463.808	1	-1
463.978	1	11
464.149	1	-4
464.319	1	-2
464.490	1	-4
464.660	1	-4
464.830	1	-1
465.001	1	5
465.171	1	2
465.342	1	6
465.512	1	1
465.682	1	0
465.853	1	1
466.023	1	-4
466.194	1	8
466.364	1	6
466.534	1	-2
466.705	1	-4
466.875	1	10
467.045	1	-5
467.216	1	-11
467.386	1	-7
467.557	1	0
467.727	1	0
467.897	1	0
468.068	1	5
468.238	1	2
468.409	1	7
468.579	1	0
468.749	1	3
468.920	1	-11
469.090	1	10
469.260	1	4
469.431	1	-4
469.601	1	-2
469.772	1	-10
469.942	1	7
470.112	1	-8
470.283	1	16
470.453	1	-5
470.623	1	0
470.794	1	2
470.964	1	-9
471.135	1	-2
471.305	1	-3
471.475	1	-9
471.646	1	2
471.816	1	5
471.986	1	-4
472.157	1	3
472.327	1	0
472.497	1	-6
472.668	1	-6
472.838	1	4
473.009	1	0
473.179	1	3
473.349	1	5
473.520	1	5
473.690	1	11
473.860	1	-2
474.031	1	4
474.201	1	-8
474.371	1	5
474.542	1	-1
474.712	1	1
474.882	1	2
475.053	1	-10
475.223	1	2
475.394	1	12
475.564	1	13
475.734	1	2
475.905	1	0
476.075	1	6
476.245	1	4
476.416	1	-4
476.586	1	-7
476.756	1	-9
476.927	1	-1
477.097	1	-3
477.267	1	-2
477.438	1	-10
477.608	1	7
477.778	1	0
477.949	1	-10
478.119	1	6
478.289	1	-4
478.460	1	-4
478.630	1	-4
478.800	1	-3
478.971	1	2
479.141	1	-5
479.311	1	4
479.482	1	-3
479.652	1	2
479.822	1	0
479.993	1	-1
480.163	1	-16
480.333	1	-7
480.504	1	3
480.674	1	12
480.844	1	3
481.015	1	-8
481.185	1	0
481.355	1	9
481.525	1	2
481.696	1	-5
481.866	1	-1
482.036	1	-3
482.207	1	7
482.377	1	-13
482.547	1	10
482.718	1	11
482.888	1	-6
483.058	1	0
483.229	1	9
483.399	1	-1
483.569	1	9
483.740	1	-10
483.910	1	3
484.080	1	-8
484.250	1	8
484.421	1	-7
484.591	1	15
484.761	1	-10
484.932	1	-4
485.102	1	3
485.272	1	-8
485.443	1	11
485.613	1	-16
485.783	1	8
485.953	1	0
486.124	1	-8
486.294	1	6
486.464	1	-2
486.635	1	1
486.805	1	6
486.975	1	-14
487.146	1	-6
487.316	1	-1
487.486	1	4
487.656	1	-3
487.827	1	-3
487.997	1	7
488.167	1	13
488.338	1	16
488.508	1	5
488.678	1	0
488.848	1	-4
489.019	1	2
489.189	1	-4
489.359	1	-1
489.529	1	4
489.700	1	-2
489.870	1	-5
490.040	1	-1
490.211	1	11
490.381	1	-2
490.551	1	3
490.721	1	2
490.892	1	6
491.062	1	13
491.232	1	-1
491.402	1	-7
491.573	1	4
491.743	1	-11
491.913	1	-5
492.084	1	1
492.254	1	4
492.424	1	-1
492.594	1	3
492.765	1	5
492.935	1	-4
493.105	1	10
493.275	1	4
493.446	1	-1
493.616	1	3
493.786	1	4
493.956	1	-3
494.127	1	-5
494.297	1	-10
494.467	1	0
494.637	1	-3
494.808	1	5
494.978	1	-1
495.148	1	8
495.318	1	10
495.489	1	-4
495.659	1	6
495.829	1	1
495.999	1	10
496.170	1	0
496.340	1	-1
496.510	1	4
496.680	1	-2
496.851	1	5
497.021	1	3
497.191	1	6
497.361	1	-3
497.532	1	-5
497.702	1	-5
497.872	1	-4
498.042	1	0
498.213	1	19
498.383	1	-7
498.553	1	4
498.723	1	4
498.894	1	6
499.064	1	5
499.234	1	-9
499.404	1	-2
499.574	1	-11
499.745	1	0
499.915	1	2
500.085	1	-10
500.255	1	6
500.426	1	0
500.596	1	-7
500.766	1	10
500.936	1	1
501.106	1	-5
501.277	1	-2
501.447	1	-4
501.617	1	6
501.787	1	2
501.958	1	-10
502.128	1	-2
502.298	1	11
502.468	1	4
502.638	1	-2
502.809	1	4
502.979	1	-7
503.149	1	-1
503.319	1	1
503.489	1	0
503.660	1	-2
503.830	1	6
504.000	1	-4
504.170	1	3
504.340	1	0
504.511	1	8
504.681	1	3
504.851	1	2
505.021	1	2
505.192	1	8
505.362	1	7
505.532	1	0
505.702	1	-1
505.872	1	-10
506.043	1	3
506.213	1	-1
506.383	1	0
506.553	1	5
506.723	1	13
506.893	1	8
507.064	1	-9
507.234	1	10
507.404	1	-4
507.574	1	-1
507.744	1	-13
507.915	1	5
508.085	1	12
508.255	1	5
508.425	1	11
508.595	1	4
508.766	1	9
508.936	1	-3
509.106	1	-1
509.276	1	3
509.446	1	-7
509.616	1	6
509.787	1	-9
509.957	1	1
510.127	1	7
510.297	1	-4
510.467	1	4
510.638	1	5
510.808	1	2
510.978	1	-13
511.148	1	10
511.318	1	4
511.488	1	0
511.659	1	1
511.829	1	2
511.999	1	11
512.169	1	8
512.339	1	-1
512.509	1	6
512.680	1	4
512.850	1	1
513.020	1	-3
513.190	1	-5
513.360	1	2
513.530	1	-4
513.700	1	6
513.871	1	20
514.041	1	-1
514.211	1	-6
514.381	1	7
514.551	1	4
514.721	1	6
514.892	1	4
515.062	1	-1
515.232	1	8
515.402	1	6
515.572	1	-2
515.742	1	3
515.912	1	2
516.083	1	7
516.253	1	6
516.423	1	13
516.593	1	1
516.763	1	-1
516.933	1	0
517.104	1	2
517.274	1	-1
517.444	1	5
517.614	1	5
517.784	1	-9
517.954	1	0
518.124	1	10
518.294	1	3
518.465	1	10
518.635	1	-2
518.805	1	6
518.975	1	12
519.145	1	14
519.315	1	-6
519.485	1	-5
519.656	1	-4
519.826	1	1
519.996	1	9
520.166	1	-3
520.336	1	0
520.506	1	8
520.676	1	-11
520.846	1	-2
521.017	1	-5
521.187	1	-5
521.357	1	2
521.527	1	4
521.697	1	1
521.867	1	9
522.037	1	9
522.207	1	4
522.377	1	7
522.548	1	0
522.718	1	-10
522.888	1	-3
523.058	1	13
523.228	1	8
523.398	1	7
523.568	1	-3
523.738	1	-2
523.909	1	13
524.079	1	0
524.249	1	2
524.419	1	5
524.589	1	7
524.759	1	4
524.929	1	8
525.099	1	3
525.269	1	10
525.439	1	1
525.610	1	-1
525.780	1	13
525.950	1	-9
526.120	1	-4
526.290	1	0
526.460	1	7
526.630	1	-4
526.800	1	3
526.970	1	-6
527.140	1	-10
527.311	1	12
527.481	1	8
527.651	1	13
527.821	1	2
527.991	1	0
528.161	1	6
528.331	1	4
528.501	1	-3
528.671	1	10
528.841	1	12
529.011	1	0
529.181	1	-2
529.352	1	5
529.522	1	-1
529.692	1	10
529.862	1	5
530.032	1	-2
530.202	1	9
530.372	1	1
530.542	1	9
530.712	1	19
530.882	1	6
531.052	1	6
531.222	1	-2
531.392	1	4
531.563	1	7
531.733	1	2
531.903	1	10
532.073	1	5
532.243	1	3
532.413	1	10
532.583	1	6
532.753	1	5
532.923	1	1
533.093	1	8
533.263	1	4
533.433	1	2
533.603	1	5
533.773	1	2
533.943	1	6
534.113	1	-3
534.284	1	5
534.454	1	6
534.624	1	15
534.794	1	1
534.964	1	-2
535.134	1	-1
535.304	1	7
535.474	1	8
535.644	1	4
535.814	1	10
535.984	1	-9
536.154	1	5
536.324	1	-1
536.494	1	14
536.664	1	7
536.834	1	11
537.004	1	11
537.174	1	7
537.344	1	1
537.514	1	9
537.685	1	-1
537.855	1	6
538.025	1	6
538.195	1	4
538.365	1	3
538.535	1	9
538.705	1	1
538.875	1	6
539.045	1	7
539.215	1	-7
539.385	1	5
539.555	1	-5
539.725	1	14
539.895	1	8
540.065	1	14
540.235	1	-6
540.405	1	4
540.575	1	9
540.745	1	4
540.915	1	7
541.085	1	-8
541.255	1	1
541.425	1	1
541.595	1	6
541.765	1	-2
541.935	1	6
542.105	1	10
542.275	1	0
542.445	1	12
542.615	1	0
542.785	1	-2
542.955	1	1
543.125	1	2
543.295	1	10
543.465	1	11
543.635	1	13
543.805	1	12
543.975	1	5
544.145	1	3
544.315	1	-2
544.485	1	2
544.655	1	4
544.825	1	9
544.995	1	3
545.165	1	0
545.335	1	0
545.505	1	0
545.675	1	8
545.845	1	4
546.015	1	6
546.185	1	-3
546.355	1	7
546.525	1	5
546.695	1	-4
546.865	1	-3
547.035	1	11
547.205	1	3
547.375	1	6
547.545	1	6
547.715	1	0
547.885	1	-5
548.055	1	3
548.225	1	2
548.395	1	2
548.565	1	1
548.735	1	7
548.905	1	-4
549.075	1	-1
549.245	1	5
549.415	1	2
549.585	1	-4
549.755	1	-8
549.925	1	16
550.095	1	6
550.265	1	1
550.435	1	7
550.605	1	2
550.775	1	-6
550.945	1	3
551.115	1	3
551.285	1	6
551.455	1	14
551.625	1	-8
551.795	1	2
551.965	1	-1
552.135	1	-4
552.305	1	-1
552.475	1	-4
552.645	1	10
552.815	1	1
552.985	1	1
553.155	1	11
553.325	1	14
553.495	1	-6
553.665	1	3
553.835	1	-4
554.004	1	7
554.174	1	2
554.344	1	1
554.514	1	-2
554.684	1	6
554.854	1	2
555.024	1	-2
555.194	1	13
555.364	1	10
555.534	1	9
555.704	1	5
555.874	1	-16
556.044	1	-2
556.214	1	5
556.384	1	3
556.554	1	-5
556.724	1	-3
556.894	1	12
557.064	1	-2
557.234	1	3
557.404	1	-1
557.573	1	7
557.743	1	6
557.913	1	-2
558.083	1	-3
558.253	1	-4
558.423	1	2
558.593	1	-2
558.763	1	5
558.933	1	7
559.103	1	1
559.273	1	-1
559.443	1	5
559.613	1	4
559.783	1	8
559.953	1	2
560.122	1	-8
560.292	1	0
560.462	1	-2
560.632	1	11
560.802	1	10
560.972	1	9
561.142	1	7
561.312	1	1
561.482	1	7
561.652	1	14
561.822	1	7
561.992	1	5
562.162	1	-6
562.331	1	-4
562.501	1	0
562.671	1	3
562.841	1	-8
563.011	1	4
563.181	1	13
563.351	1	-7
563.521	1	2
563.691	1	-2
563.861	1	2
564.031	1	2
564.201	1	6
564.370	1	9
564.540	1	16
564.710	1	-6
564.880	1	5
565.050	1	4
565.220	1	0
565.390	1	-6
565.560	1	12
565.730	1	-2
565.900	1	0
566.069	1	10
566.239	1	2
566.409	1	8
566.579	1	2
566.749	1	1
566.919	1	10
567.089	1	1
567.259	1	19
567.429	1	1
567.599	1	-1
567.768	1	6
567.938	1	-1
568.108	1	-6
568.278	1	-4
568.448	1	-11
568.618	1	3
568.788	1	-5
568.958	1	-6
569.128	1	-2
569.297	1	12
569.467	1	2
569.637	1	10
569.807	1	-4
569.977	1	2
570.147	1	-3
570.317	1	14
570.487	1	3
570.656	1	-1
570.826	1	4
570.996	1	-3
571.166	1	-2
571.336	1	6
571.506	1	-1
571.676	1	10
571.846	1	11
572.015	1	-13
572.185	1	-11
572.355	1	12
572.525	1	6
572.695	1	8
572.865	1	3
573.035	1	6
573.205	1	14
573.374	1	0
573.544	1	-2
573.714	1	13
573.884	1	8
574.054	1	1
574.224	1	-2
574.394	1	-7
574.563	1	3
574.733	1	0
574.903	1	5
575.073	1	-2
575.243	1	-2
575.413	1	-7
575.583	1	0
575.752	1	-6
575.922	1	-2
576.092	1	14
576.262	1	-12
576.432	1	1
576.602	1	0
576.772	1	9
576.941	1	-1
577.111	1	1
577.281	1	-1
577.451	1	1
577.621	1	-3
577.791	1	-3
577.960	1	2
578.130	1	2
578.300	1	4
578.470	1	-1
578.640	1	-4
578.810	1	-2
578.979	1	-2
579.149	1	-7
579.319	1	4
579.489	1	-4
579.659	1	10
579.829	1	7
579.998	1	1
580.168	1	1
580.338	1	-16
580.508	1	2
580.678	1	-11
580.848	1	9
581.017	1	1
581.187	1	5
581.357	1	-1
581.527	1	2
581.697	1	-11
581.867	1	-3
582.036	1	-4
582.206	1	0
582.376	1	4
582.546	1	-1
582.716	1	3
582.885	1	-2
583.055	1	-3
583.225	1	-6
583.395	1	-2
583.565	1	5
583.735	1	-7
583.904	1	5
584.074	1	-4
584.244	1	3
584.414	1	1
584.584	1	9
584.753	1	-7
584.923	1	-6
585.093	1	5
585.263	1	4
585.433	1	-1
585.602	1	3
585.772	1	-3
585.942	1	5
586.112	1	1
586.282	1	-1
586.451	1	3
586.621	1	6
586.791	1	0
586.961	1	2
587.131	1	-6
587.300	1	-6
587.470	1	-1
587.640	1	4
587.810	1	2
587.980	1	-1
588.149	1	5
588.319	1	6
588.489	1	1
588.659	1	-7
588.829	1	6
588.998	1	-8
589.168	1	6
589.338	1	0
589.508	1	4
589.677	1	2
589.847	1	0
590.017	1	-12
590.187	1	8
590.357	1	-4
590.526	1	1
590.696	1	1
590.866	1	5
591.036	1	10
591.205	1	10
591.375	1	-6
591.545	1	-8
591.715	1	-7
591.885	1	5
592.054	1	8
592.224	1	-4
592.394	1	-1
592.564	1	-6
592.733	1	-2
592.903	1	6
593.073	1	-3
593.243	1	-4
593.412	1	-1
593.582	1	10
593.752	1	-1
593.922	1	-2
594.091	1	10
594.261	1	5
594.431	1	0
594.601	1	-14
594.771	1	4
594.940	1	0
595.110	1	-11
595.280	1	-4
595.450	1	-1
595.619	1	-4
595.789	1	0
595.959	1	3
596.129	1	-3
596.298	1	11
596.468	1	-9
596.638	1	0
596.808	1	3
596.977	1	-3
597.147	1	1
597.317	1	9
597.487	1	1
597.656	1	4
597.826	1	-5
597.996	1	0
598.166	1	-9
598.335	1	-5
598.505	1	2
598.675	1	3
598.844	1	2
599.014	1	-2
599.184	1	-3
599.354	1	-4
599.523	1	-6
599.693	1	13
599.863	1	10
600.033	1	-3
600.202	1	-2
600.372	1	4
600.542	1	-3
600.712	1	4
600.881	1	3
601.051	1	2
601.221	1	3
601.390	1	1
601.560	1	-1
601.730	1	4
601.900	1	-1
602.069	1	-10
602.239	1	-10
602.409	1	-2
602.578	1	-7
602.748	1	-2
602.918	1	1
603.088	1	4
603.257	1	-2
603.427	1	3
603.597	1	13
603.767	1	-8
603.936	1	-1
604.106	1	-1
604.276	1	-3
604.445	1	5
604.615	1	-9
604.785	1	1
604.954	1	6
605.124	1	-12
605.294	1	9
605.464	1	-10
605.633	1	7
605.803	1	-1
605.973	1	-6
606.142	1	-1
606.312	1	5
606.482	1	-4
606.652	1	-4
606.821	1	0
606.991	1	1
607.161	1	-1
607.330	1	9
607.500	1	4
607.670	1	-6
607.839	1	0
608.009	1	-11
608.179	1	7
608.348	1	-1
608.518	1	0
608.688	1	2
608.858	1	2
609.027	1	-4
609.197	1	-7
609.367	1	-4
609.536	1	3
609.706	1	-5
609.876	1	-3
610.045	1	4
610.215	1	-11
610.385	1	-2
610.554	1	0
610.724	1	1
610.894	1	1
611.063	1	6
611.233	1	-4
611.403	1	11
611.572	1	5
611.742	1	-5
611.912	1	1
612.081	1	-11
612.251	1	10
612.421	1	8
612.590	1	-4
612.760	1	-4
612.930	1	1
613.099	1	-15
613.269	1	-8
613.439	1	-2
613.608	1	4
613.778	1	-3
613.948	1	16
614.117	1	15
614.287	1	-6
614.457	1	0
614.626	1	-5
614.796	1	7
614.966	1	5
615.135	1	-5
615.305	1	3
615.475	1	7
615.644	1	-5
615.814	1	-3
615.984	1	5
616.153	1	1
616.323	1	-7
616.493	1	1
616.662	1	1
616.832	1	7
617.002	1	-3
617.171	1	0
617.341	1	-1
617.511	1	4
617.680	1	0
617.850	1	-1
618.019	1	1
618.189	1	-7
618.359	1	10
618.528	1	-7
618.698	1	2
618.868	1	6
619.037	1	7
619.207	1	-13
619.377	1	-14
619.546	1	-2
619.716	1	-2
619.885	1	1
620.055	1	3
620.225	1	9
620.394	1	3
620.564	1	-3
620.734	1	3
620.903	1	11
621.073	1	-7
621.242	1	-13
621.412	1	0
621.582	1	2
621.751	1	-6
621.921	1	-13
622.091	1	-5
622.260	1	-11
622.430	1	12
622.599	1	1
622.769	1	-7
622.939	1	-6
623.108	1	0
623.278	1	-1
623.448	1	-8
623.617	1	6
623.787	1	-2
623.956	1	3
624.126	1	5
624.296	1	-5
624.465	1	8
624.635	1	2
624.804	1	-7
624.974	1	-12
625.144	1	1
625.313	1	1
625.483	1	0
625.652	1	6
625.822	1	0
625.992	1	-3
626.161	1	5
626.331	1	7
626.501	1	3
626.670	1	-1
626.840	1	17
627.009	1	-5
627.179	1	-4
627.348	1	-8
627.518	1	7
627.688	1	-2
627.857	1	10
628.027	1	-3
628.196	1	3
628.366	1	7
628.536	1	0
628.705	1	2
628.875	1	1
629.044	1	1
629.214	1	2
629.384	1	-12
629.553	1	12
629.723	1	4
629.892	1	6
630.062	1	1
630.232	1	12
630.401	1	0
630.571	1	0
630.740	1	3
630.910	1	-4
631.079	1	16
631.249	1	-4
631.419	1	6
631.588	1	-13
631.758	1	4
631.927	1	-13
632.097	1	4
632.266	1	-7
632.436	1	-12
632.606	1	14
632.775	1	1
632.945	1	3
633.114	1	10
633.284	1	-9
633.453	1	-6
633.623	1	-1
633.793	1	0
633.962	1	10
634.132	1	2
634.301	1	1
634.471	1	-5
634.640	1	6
634.810	1	-1
634.979	1	-5
635.149	1	-6
635.319	1	2
635.488	1	3
635.658	1	-16
635.827	1	-3
635.997	1	-4
636.166	1	4
636.336	1	17
636.505	1	1
636.675	1	7
636.845	1	0
637.014	1	-10
637.184	1	-11
637.353	1	1
637.523	1	-4
637.692	1	-3
637.862	1	-2
638.031	1	8
638.201	1	13
638.370	1	-8
638.540	1	2
638.710	1	-2
638.879	1	-4
639.049	1	6
639.218	1	1
639.388	1	4
639.557	1	1
639.727	1	0
639.896	1	1
640.066	1	9
640.235	1	2
640.405	1	-6
640.574	1	-3
640.744	1	2
640.914	1	-8
641.083	1	-4
641.253	1	-4
641.422	1	-11
641.592	1	-5
641.761	1	-2
641.931	1	3
642.100	1	-7
642.270	1	-4
642.439	1	-4
642.609	1	1
642.778	1	5
642.948	1	-8
643.117	1	-4
643.287	1	0
643.456	1	17
643.626	1	8
643.795	1	5
643.965	1	0
644.134	1	-1
644.304	1	-4
644.473	1	6
644.643	1	2
644.812	1	7
644.982	1	3
645.151	1	0
645.321	1	7
645.490	1	-1
645.660	1	0
645.829	1	-4
645.999	1	-10
646.168	1	-5
646.338	1	9
646.507	1	-3
646.677	1	2
646.846	1	9
647.016	1	0
647.185	1	-5
647.355	1	2
647.524	1	4
647.694	1	-5
647.863	1	-12
648.033	1	-2
648.202	1	1
648.372	1	3
648.541	1	-12
648.711	1	1
648.880	1	0
649.050	1	-6
649.219	1	5
649.389	1	8
649.558	1	-3
649.728	1	5
649.897	1	-2
650.067	1	-4
650.236	1	5
650.406	1	4
650.575	1	4
650.745	1	-8
650.914	1	-2
651.084	1	-7
651.253	1	4
651.423	1	10
651.592	1	-14
651.762	1	11
651.931	1	-5
652.101	1	-1
652.270	1	4
652.440	1	7
652.609	1	17
652.778	1	-7
652.948	1	2
653.117	1	-3
653.287	1	5
653.456	1	4
653.626	1	7
653.795	1	1
653.965	1	14
654.134	1	6
654.304	1	4
654.473	1	8
654.643	1	13
654.812	1	8
654.982	1	-14
655.151	1	-10
655.320	1	-5
655.490	1	4
655.659	1	-11
655.829	1	4
655.998	1	-2
656.168	1	2
656.337	1	-8
656.507	1	2
656.676	1	-8
656.846	1	-14
657.015	1	-7
657.184	1	-1
657.354	1	1
657.523	1	-3
657.693	1	6
657.862	1	0
658.032	1	5
658.201	1	-9
658.371	1	-2
658.540	1	0
658.709	1	-20
658.879	1	4
659.048	1	7
659.218	1	-3
659.387	1	-2
659.557	1	1
659.726	1	1
659.895	1	-2
660.065	1	0
660.234	1	5
660.404	1	5
660.573	1	-12
660.743	1	-9
660.912	1	-1
661.081	1	-5
661.251	1	10
661.420	1	-4
661.590	1	-1
661.759	1	4
661.929	1	-3
662.098	1	-3
662.267	1	2
662.437	1	-8
662.606	1	2
662.776	1	7
662.945	1	-3
663.115	1	-7
663.284	1	7
663.453	1	8
663.623	1	1
663.792	1	0
663.962	1	-4
664.131	1	-13
664.300	1	2
664.470	1	3
664.639	1	-12
664.809	1	-4
664.978	1	-4
665.148	1	-2
665.317	1	-1
665.486	1	0
665.656	1	-1
665.825	1	3
665.995	1	4
666.164	1	4
666.333	1	10
666.503	1	-4
666.672	1	-16
666.842	1	-6
667.011	1	9
667.180	1	-7
667.350	1	-2
667.519	1	-8
667.689	1	3
667.858	1	-1
668.027	1	-4
668.197	1	5
668.366	1	-10
668.536	1	-3
668.705	1	6
668.874	1	0
669.044	1	-4
669.213	1	-5
669.382	1	-1
669.552	1	4
669.721	1	-10
669.891	1	-5
670.060	1	3
670.229	1	2
670.399	1	3
670.568	1	5
670.738	1	-9
670.907	1	-7
671.076	1	6
671.246	1	8
671.415	1	-4
671.584	1	-2
671.754	1	-6
671.923	1	-2
672.093	1	1
672.262	1	5
672.431	1	-3
672.601	1	-10
672.770	1	-1
672.939	1	-1
673.109	1	3
673.278	1	0
673.448	1	-4
673.617	1	2
673.786	1	4
