325.333	1	-6
325.504	1	7
325.675	1	2
325.846	1	-8
326.017	1	-6
326.188	1	3
326.359	1	-4
326.531	1	-12
326.702	1	8
326.873	1	-6
327.044	1	-1
327.215	1	-6
327.386	1	1
327.557	1	-4
327.728	1	-8
327.899	1	-10
328.070	1	6
328.241	1	3
328.412	1	11
328.583	1	0
328.754	1	-6
328.926	1	2
329.097	1	2
329.268	1	5
329.439	1	-1
329.610	1	-3
329.781	1	-17
329.952	1	9
330.123	1	-4
330.294	1	14
330.465	1	-5
330.636	1	6
330.807	1	-12
330.978	1	-4
331.149	1	3
331.320	1	-2
331.492	1	-2
331.663	1	-7
331.834	1	14
332.005	1	3
332.176	1	2
332.347	1	-6
332.518	1	2
332.689	1	-10
332.860	1	-8
333.031	1	2
333.202	1	-3
333.373	1	-1
333.544	1	-3
333.715	1	1
333.886	1	-13
334.057	1	-17
334.228	1	-10
334.399	1	3
334.570	1	-3
334.741	1	-13
334.912	1	-10
335.084	1	-9
335.255	1	2
335.426	1	-10
335.597	1	-12
335.768	1	9
335.939	1	-4
336.110	1	-9
336.281	1	-9
336.452	1	2
336.623	1	8
336.794	1	-7
336.965	1	-7
337.136	1	-3
337.307	1	8
337.478	1	-2
337.649	1	8
337.820	1	4
337.991	1	8
338.162	1	0
338.333	1	-6
338.504	1	4
338.675	1	-5
338.846	1	0
339.017	1	4
339.188	1	-2
339.359	1	-1
339.530	1	-7
339.701	1	-1
339.872	1	0
340.043	1	-1
340.214	1	-4
340.385	1	-4
340.556	1	2
340.727	1	-8
340.898	1	-3
341.069	1	2
341.240	1	-7
341.411	1	2
341.582	1	1
341.753	1	4
341.924	1	-8
342.095	1	3
342.266	1	-2
342.437	1	-7
342.608	1	-4
342.779	1	-5
342.950	1	0
343.121	1	1
343.292	1	3
343.463	1	0
343.634	1	-10
343.805	1	4
343.976	1	1
344.147	1	-3
344.318	1	5
344.489	1	-7
344.660	1	13
344.831	1	-1
345.002	1	6
345.173	1	-8
345.344	1	-11
345.515	1	-2
345.686	1	6
345.857	1	-1
346.028	1	-8
346.199	1	-4
346.370	1	-4
346.541	1	-6
346.712	1	-1
346.883	1	-7
347.054	1	-2
347.225	1	-2
347.396	1	1
347.567	1	-3
347.738	1	6
347.909	1	1
348.080	1	-9
348.251	1	-8
348.422	1	1
348.593	1	-1
348.764	1	-4
348.935	1	0
349.106	1	9
349.277	1	-6
349.448	1	-2
349.619	1	-1
349.790	1	1
349.961	1	1
350.132	1	-15
350.303	1	-11
350.474	1	3
350.645	1	-7
350.816	1	-6
350.987	1	-7
351.157	1	7
351.328	1	-4
351.499	1	-2
351.670	1	7
351.841	1	-6
352.012	1	-16
352.183	1	-5
352.354	1	7
352.525	1	-5
352.696	1	-11
352.867	1	-3
353.038	1	10
353.209	1	0
353.380	1	0
353.551	1	8
353.722	1	4
353.893	1	-1
354.064	1	-3
354.235	1	1
354.406	1	-6
354.576	1	4
354.747	1	-12
354.918	1	-5
355.089	1	5
355.260	1	-1
355.431	1	7
355.602	1	5
355.773	1	-4
355.944	1	-7
356.115	1	0
356.286	1	-2
356.457	1	-8
356.628	1	-3
356.799	1	4
356.970	1	-5
357.141	1	-10
357.311	1	-10
357.482	1	-6
357.653	1	1
357.824	1	-9
357.995	1	2
358.166	1	-1
358.337	1	4
358.508	1	4
358.679	1	7
358.850	1	1
359.021	1	-6
359.192	1	7
359.363	1	-8
359.533	1	0
359.704	1	-4
359.875	1	3
360.046	1	2
360.217	1	9
360.388	1	-2
360.559	1	4
360.730	1	-2
360.901	1	-2
361.072	1	0
361.243	1	0
361.414	1	3
361.584	1	5
361.755	1	7
361.926	1	15
362.097	1	6
362.268	1	0
362.439	1	3
362.610	1	-1
362.781	1	0
362.952	1	0
363.123	1	-1
363.293	1	5
363.464	1	7
363.635	1	-5
363.806	1	-1
363.977	1	6
364.148	1	-3
364.319	1	2
364.490	1	-5
364.661	1	3
364.832	1	4
365.002	1	-1
365.173	1	5
365.344	1	-1
365.515	1	-2
365.686	1	1
365.857	1	6
366.028	1	5
366.199	1	1
366.370	1	3
366.540	1	-3
366.711	1	14
366.882	1	-9
367.053	1	8
367.224	1	15
367.395	1	0
367.566	1	7
367.737	1	-14
367.908	1	-2
368.078	1	5
368.249	1	1
368.420	1	0
368.591	1	15
368.762	1	4
368.933	1	15
369.104	1	12
369.274	1	-12
369.445	1	-8
369.616	1	-10
369.787	1	-6
369.958	1	-2
370.129	1	4
370.300	1	-10
370.471	1	14
370.641	1	4
370.812	1	11
370.983	1	-4
371.154	1	4
371.325	1	-6
371.496	1	-1
371.667	1	4
371.837	1	-7
372.008	1	-6
372.179	1	5
372.350	1	2
372.521	1	-11
372.692	1	-7
372.863	1	-1
373.033	1	1
373.204	1	1
373.375	1	0
373.546	1	6
373.717	1	5
373.888	1	5
374.059	1	1
374.229	1	-13
374.400	1	3
374.571	1	-3
374.742	1	2
374.913	1	-6
375.084	1	3
375.254	1	-6
375.425	1	3
375.596	1	-12
375.767	1	3
375.938	1	0
376.109	1	-7
376.279	1	2
376.450	1	13
376.621	1	5
376.792	1	-5
376.963	1	13
377.134	1	-5
377.304	1	4
377.475	1	4
377.646	1	-4
377.817	1	12
377.988	1	0
378.159	1	-3
378.329	1	0
378.500	1	-17
378.671	1	-12
378.842	1	-5
379.013	1	-5
379.184	1	-4
379.354	1	-9
379.525	1	7
379.696	1	-7
379.867	1	1
380.038	1	9
380.209	1	0
380.379	1	-8
380.550	1	-2
380.721	1	5
380.892	1	-3
381.063	1	-1
381.233	1	8
381.404	1	6
381.575	1	-5
381.746	1	7
381.917	1	-10
382.087	1	4
382.258	1	9
382.429	1	-4
382.600	1	3
382.771	1	1
382.941	1	10
383.112	1	4
383.283	1	5
383.454	1	4
383.625	1	-2
383.795	1	4
383.966	1	-2
384.137	1	2
384.308	1	15
384.479	1	10
384.649	1	-3
384.820	1	1
384.991	1	9
385.162	1	1
385.333	1	9
385.503	1	8
385.674	1	6
385.845	1	12
386.016	1	2
386.187	1	14
386.357	1	11
386.528	1	11
386.699	1	14
386.870	1	22
387.041	1	0
387.211	1	-2
387.382	1	9
387.553	1	2
387.724	1	4
387.894	1	18
388.065	1	8
388.236	1	3
388.407	1	13
388.578	1	13
388.748	1	10
388.919	1	4
389.090	1	22
389.261	1	-9
389.431	1	3
389.602	1	4
389.773	1	8
389.944	1	7
390.114	1	7
390.285	1	4
390.456	1	11
390.627	1	-9
390.798	1	7
390.968	1	0
391.139	1	-3
391.310	1	1
391.481	1	4
391.651	1	13
391.822	1	4
391.993	1	10
392.164	1	5
392.334	1	7
392.505	1	3
392.676	1	5
392.847	1	7
393.017	1	-10
393.188	1	7
393.359	1	9
393.530	1	11
393.700	1	8
393.871	1	1
394.042	1	5
394.213	1	9
394.383	1	9
394.554	1	10
394.725	1	-7
394.896	1	-3
395.066	1	11
395.237	1	16
395.408	1	8
395.579	1	17
395.749	1	11
395.920	1	17
396.091	1	3
396.262	1	8
396.432	1	-2
396.603	1	5
396.774	1	0
396.945	1	4
397.115	1	14
397.286	1	15
397.457	1	6
397.627	1	14
397.798	1	6
397.969	1	-6
398.140	1	2
398.310	1	17
398.481	1	-1
398.652	1	11
398.823	1	19
398.993	1	1
399.164	1	11
399.335	1	6
399.505	1	13
399.676	1	5
399.847	1	3
400.018	1	9
400.188	1	9
400.359	1	-1
400.530	1	9
400.700	1	1
400.871	1	1
401.042	1	5
401.213	1	5
401.383	1	13
401.554	1	9
401.725	1	4
401.895	1	5
402.066	1	1
402.237	1	6
402.408	1	15
402.578	1	10
402.749	1	1
402.920	1	-6
403.090	1	4
403.261	1	6
403.432	1	4
403.603	1	8
403.773	1	10
403.944	1	24
404.115	1	2
404.285	1	6
404.456	1	2
404.627	1	12
404.797	1	18
404.968	1	0
405.139	1	5
405.310	1	-7
405.480	1	4
405.651	1	3
405.822	1	12
405.992	1	10
406.163	1	14
406.334	1	8
406.504	1	2
406.675	1	9
406.846	1	-3
407.016	1	4
407.187	1	0
407.358	1	4
407.528	1	9
407.699	1	12
407.870	1	9
408.041	1	-7
408.211	1	3
408.382	1	8
408.553	1	6
408.723	1	12
408.894	1	-7
409.065	1	10
409.235	1	-2
409.406	1	10
409.577	1	2
409.747	1	1
409.918	1	8
410.089	1	2
410.259	1	-5
410.430	1	14
410.601	1	-4
410.771	1	-1
410.942	1	3
411.113	1	-2
411.283	1	2
411.454	1	-3
411.625	1	5
411.795	1	9
411.966	1	-1
412.137	1	0
412.307	1	-1
412.478	1	7
412.649	1	4
412.819	1	2
412.990	1	8
413.161	1	9
413.331	1	-9
413.502	1	6
413.672	1	-3
413.843	1	7
414.014	1	6
414.184	1	2
414.355	1	-5
414.526	1	-2
414.696	1	-3
414.867	1	14
415.038	1	-2
415.208	1	-4
415.379	1	3
415.550	1	0
415.720	1	-8
415.891	1	6
416.062	1	6
416.232	1	-4
416.403	1	9
416.573	1	4
416.744	1	9
416.915	1	-2
417.085	1	5
417.256	1	4
417.427	1	5
417.597	1	-14
417.768	1	-3
417.939	1	1
418.109	1	9
418.280	1	4
418.450	1	-1
418.621	1	8
418.792	1	-6
418.962	1	1
419.133	1	-6
419.304	1	-8
419.474	1	-7
419.645	1	11
419.815	1	-4
419.986	1	11
420.157	1	4
420.327	1	6
420.498	1	5
420.669	1	0
420.839	1	2
421.010	1	6
421.180	1	11
421.351	1	6
421.522	1	6
421.692	1	9
421.863	1	-10
422.033	1	-7
422.204	1	-9
422.375	1	-11
422.545	1	15
422.716	1	2
422.886	1	2
423.057	1	-5
423.228	1	-4
423.398	1	5
423.569	1	5
423.740	1	-2
423.910	1	-5
424.081	1	8
424.251	1	-1
424.422	1	5
424.593	1	5
424.763	1	6
424.934	1	-3
425.104	1	6
425.275	1	-7
425.445	1	-6
425.616	1	14
425.787	1	-3
425.957	1	12
426.128	1	-14
426.298	1	1
426.469	1	1
426.640	1	1
426.810	1	12
426.981	1	-3
427.151	1	4
427.322	1	-6
427.493	1	2
427.663	1	-5
427.834	1	-5
428.004	1	12
428.175	1	-4
428.345	1	17
428.516	1	-2
428.687	1	1
428.857	1	-9
429.028	1	3
429.198	1	-11
429.369	1	1
429.540	1	5
429.710	1	-8
429.881	1	5
430.051	1	3
430.222	1	2
430.392	1	-5
430.563	1	6
430.734	1	2
430.904	1	0
431.075	1	7
431.245	1	6
431.416	1	-4
431.586	1	7
431.757	1	7
431.927	1	-8
432.098	1	-1
432.269	1	0
432.439	1	-2
432.610	1	0
432.780	1	2
432.951	1	7
433.121	1	4
433.292	1	7
433.462	1	-8
433.633	1	-3
433.804	1	-10
433.974	1	-7
434.145	1	-4
434.315	1	1
434.486	1	11
434.656	1	2
434.827	1	3
434.997	1	6
435.168	1	6
435.339	1	1
435.509	1	4
435.680	1	-11
435.850	1	1
436.021	1	3
436.191	1	-7
436.362	1	6
436.532	1	5
436.703	1	6
436.873	1	-3
437.044	1	7
437.214	1	-7
437.385	1	2
437.556	1	8
437.726	1	-4
437.897	1	4
438.067	1	-4
438.238	1	-15
438.408	1	0
438.579	1	-5
438.749	1	0
438.920	1	-2
439.090	1	18
439.261	1	4
439.431	1	3
439.602	1	2
439.772	1	0
439.943	1	-4
440.113	1	-5
440.284	1	3
440.455	1	-11
440.625	1	7
440.796	1	-2
440.966	1	4
441.137	1	1
441.307	1	-4
441.478	1	2
441.648	1	-7
441.819	1	8
441.989	1	-3
442.160	1	3
442.330	1	-2
442.501	1	-12
442.671	1	8
442.842	1	-1
443.012	1	0
443.183	1	-1
443.353	1	4
443.524	1	0
443.694	1	7
443.865	1	-2
444.035	1	-7
444.206	1	5
444.376	1	4
444.547	1	-4
444.717	1	11
444.888	1	-2
445.058	1	2
445.229	1	-2
445.399	1	0
445.570	1	7
445.740	1	4
445.911	1	-1
446.081	1	1
446.252	1	-5
446.422	1	-5
446.593	1	4
446.763	1	4
446.934	1	8
447.104	1	-3
447.275	1	-3
447.445	1	-3
447.616	1	-1
447.786	1	-6
447.957	1	5
448.127	1	0
448.298	1	6
448.468	1	-3
448.639	1	6
448.809	1	0
448.979	1	3
449.150	1	5
449.320	1	0
449.491	1	0
449.661	1	1
449.832	1	5
450.002	1	-2
450.173	1	-5
450.343	1	-6
450.514	1	6
450.684	1	1
450.855	1	5
451.025	1	-3
451.196	1	-8
451.366	1	5
451.537	1	-4
451.707	1	0
451.878	1	-7
452.048	1	1
452.218	1	-3
452.389	1	-10
452.559	1	-6
452.730	1	-4
452.900	1	-9
453.071	1	0
453.241	1	-8
453.412	1	-7
453.582	1	11
453.753	1	0
453.923	1	6
454.093	1	4
454.264	1	-6
454.434	1	13
454.605	1	-2
454.775	1	5
454.946	1	4
455.116	1	-10
455.287	1	9
455.457	1	-9
455.628	1	-1
455.798	1	-15
455.968	1	-2
456.139	1	6
456.309	1	-2
456.480	1	-6
456.650	1	-1
456.821	1	-3
456.991	1	11
457.161	1	1
457.332	1	0
457.502	1	3
457.673	1	-10
457.843	1	2
458.014	1	-8
458.184	1	3
458.355	1	1
458.525	1	3
458.695	1	-1
458.866	1	-6
459.036	1	6
459.207	1	1
459.377	1	3
459.548	1	-3
459.718	1	-12
459.888	1	9
460.059	1	4
460.229	1	-2
460.400	1	8
460.570	1	-7
460.740	1	3
460.911	1	17
461.081	1	-3
461.252	1	-3
461.422	1	1
461.593	1	-3
461.763	1	5
461.933	1	-10
462.104	1	-1
462.274	1	-4
462.445	1	-4
462.615	1	0
462.785	1	-12
462.956	1	-13
463.126	1	-4
463.297	1	-1
463.467	1	-7
463.638	1	4
463.808	1	11
463.978	1	-2
464.149	1	-8
464.319	1	-4
464.490	1	-7
464.660	1	-5
464.830	1	-3
465.001	1	-2
465.171	1	3
465.342	1	6
465.512	1	6
465.682	1	-1
465.853	1	-4
466.023	1	-2
466.194	1	-4
466.364	1	4
466.534	1	1
466.705	1	-2
466.875	1	16
467.045	1	5
467.216	1	-15
467.386	1	1
467.557	1	7
467.727	1	-2
467.897	1	1
468.068	1	3
468.238	1	-7
468.409	1	6
468.579	1	13
468.749	1	-1
468.920	1	-2
469.090	1	15
469.260	1	4
469.431	1	0
469.601	1	5
469.772	1	-16
469.942	1	4
470.112	1	-3
470.283	1	11
470.453	1	5
470.623	1	4
470.794	1	1
470.964	1	-6
471.135	1	-7
471.305	1	7
471.475	1	-7
471.646	1	3
471.816	1	-7
471.986	1	-11
472.157	1	-3
472.327	1	-9
472.497	1	3
472.668	1	-8
472.838	1	5
473.009	1	6
473.179	1	-3
473.349	1	11
473.520	1	9
473.690	1	9
473.860	1	4
474.031	1	-7
474.201	1	-4
474.371	1	9
474.542	1	-3
474.712	1	-3
474.882	1	7
475.053	1	-7
475.223	1	-1
475.394	1	-3
475.564	1	14
475.734	1	-7
475.905	1	-1
476.075	1	0
476.245	1	-1
476.416	1	-3
476.586	1	1
476.756	1	2
476.927	1	3
477.097	1	6
477.267	1	-3
477.438	1	-10
477.608	1	5
477.778	1	9
477.949	1	5
478.119	1	4
478.289	1	-6
478.460	1	-6
478.630	1	-8
478.800	1	-6
478.971	1	7
479.141	1	-9
479.311	1	6
479.482	1	-8
479.652	1	1
479.822	1	-2
479.993	1	12
480.163	1	-3
480.333	1	0
480.504	1	0
480.674	1	-4
480.844	1	5
481.015	1	-1
481.185	1	10
481.355	1	8
481.525	1	-10
481.696	1	-3
481.866	1	-6
482.036	1	-5
482.207	1	9
482.377	1	-5
482.547	1	1
482.718	1	-1
482.888	1	-8
483.058	1	-4
483.229	1	6
483.399	1	2
483.569	1	-2
483.740	1	-6
483.910	1	0
484.080	1	-8
484.250	1	-5
484.421	1	3
484.591	1	8
484.761	1	-6
484.932	1	12
485.102	1	-5
485.272	1	9
485.443	1	2
485.613	1	-14
485.783	1	-1
485.953	1	-10
486.124	1	8
486.294	1	11
486.464	1	-6
486.635	1	1
486.805	1	13
486.975	1	-9
487.146	1	5
487.316	1	7
487.486	1	3
487.656	1	-10
487.827	1	-1
487.997	1	3
488.167	1	2
488.338	1	2
488.508	1	5
488.678	1	14
488.848	1	-7
489.019	1	2
489.189	1	1
489.359	1	-9
489.529	1	6
489.700	1	4
489.870	1	-10
490.040	1	-4
490.211	1	11
490.381	1	-2
490.551	1	0
490.721	1	6
490.892	1	5
491.062	1	4
491.232	1	-5
491.402	1	-5
491.573	1	8
491.743	1	-7
491.913	1	6
492.084	1	-2
492.254	1	1
492.424	1	2
492.594	1	5
492.765	1	7
492.935	1	-6
493.105	1	18
493.275	1	11
493.446	1	-3
493.616	1	2
493.786	1	-1
493.956	1	0
494.127	1	-4
494.297	1	1
494.467	1	3
494.637	1	1
494.808	1	3
494.978	1	3
495.148	1	6
495.318	1	8
495.489	1	1
495.659	1	0
495.829	1	-1
495.999	1	2
496.170	1	-7
496.340	1	5
496.510	1	-3
496.680	1	8
496.851	1	15
497.021	1	0
497.191	1	0
497.361	1	-7
497.532	1	-6
497.702	1	-5
497.872	1	-4
498.042	1	3
498.213	1	16
498.383	1	-5
498.553	1	5
498.723	1	6
498.894	1	-6
499.064	1	13
499.234	1	2
499.404	1	2
499.574	1	-6
499.745	1	1
499.915	1	7
500.085	1	-10
500.255	1	9
500.426	1	-1
500.596	1	-5
500.766	1	3
500.936	1	-1
501.106	1	-1
501.277	1	-3
501.447	1	1
501.617	1	-2
501.787	1	-8
501.958	1	2
502.128	1	-9
502.298	1	5
502.468	1	6
502.638	1	4
502.809	1	9
502.979	1	-3
503.149	1	3
503.319	1	-1
503.489	1	4
503.660	1	0
503.830	1	1
504.000	1	-12
504.170	1	0
504.340	1	-2
504.511	1	13
504.681	1	-6
504.851	1	-7
505.021	1	0
505.192	1	10
505.362	1	4
505.532	1	2
505.702	1	1
505.872	1	-12
506.043	1	1
506.213	1	13
506.383	1	3
506.553	1	6
506.723	1	-4
506.893	1	6
507.064	1	0
507.234	1	-3
507.404	1	-2
507.574	1	-7
507.744	1	-8
507.915	1	-5
508.085	1	4
508.255	1	11
508.425	1	8
508.595	1	7
508.766	1	1
508.936	1	-3
509.106	1	-8
509.276	1	2
509.446	1	-5
509.616	1	6
509.787	1	-5
509.957	1	-1
510.127	1	11
510.297	1	1
510.467	1	2
510.638	1	2
510.808	1	-1
510.978	1	-16
511.148	1	4
511.318	1	3
511.488	1	5
511.659	1	-3
511.829	1	0
511.999	1	12
512.169	1	7
512.339	1	9
512.509	1	6
512.680	1	1
512.850	1	4
513.020	1	-3
513.190	1	5
513.360	1	3
513.530	1	-3
513.700	1	6
513.871	1	8
514.041	1	-2
514.211	1	-5
514.381	1	6
514.551	1	5
514.721	1	-3
514.892	1	4
515.062	1	5
515.232	1	6
515.402	1	-4
515.572	1	3
515.742	1	6
515.912	1	9
516.083	1	-1
516.253	1	0
516.423	1	13
516.593	1	-4
516.763	1	10
516.933	1	4
517.104	1	2
517.274	1	-3
517.444	1	1
517.614	1	0
517.784	1	-9
517.954	1	-5
518.124	1	14
518.294	1	7
518.465	1	5
518.635	1	1
518.805	1	7
518.975	1	6
519.145	1	-1
519.315	1	2
519.485	1	1
519.656	1	-2
519.826	1	4
519.996	1	11
520.166	1	10
520.336	1	5
520.506	1	7
520.676	1	-13
520.846	1	-12
521.017	1	-5
521.187	1	3
521.357	1	-4
521.527	1	3
521.697	1	4
521.867	1	2
522.037	1	-1
522.207	1	0
522.377	1	10
522.548	1	-7
522.718	1	-3
522.888	1	-3
523.058	1	16
523.228	1	11
523.398	1	7
523.568	1	3
523.738	1	3
523.909	1	7
524.079	1	-6
524.249	1	13
524.419	1	4
524.589	1	14
524.759	1	2
524.929	1	13
525.099	1	4
525.269	1	11
525.439	1	-5
525.610	1	4
525.780	1	5
525.950	1	-3
526.120	1	-1
526.290	1	-6
526.460	1	15
526.630	1	15
526.800	1	6
526.970	1	-6
527.140	1	5
527.311	1	4
527.481	1	12
527.651	1	11
527.821	1	3
527.991	1	0
528.161	1	-6
528.331	1	10
528.501	1	-2
528.671	1	4
528.841	1	7
529.011	1	-4
529.181	1	7
529.352	1	-4
529.522	1	12
529.692	1	10
529.862	1	6
530.032	1	1
530.202	1	10
530.372	1	2
530.542	1	2
530.712	1	13
530.882	1	-7
531.052	1	7
531.222	1	-11
531.392	1	5
531.563	1	9
531.733	1	8
531.903	1	11
532.073	1	6
532.243	1	10
532.413	1	7
532.583	1	6
532.753	1	-6
532.923	1	-3
533.093	1	9
533.263	1	-1
533.433	1	4
533.603	1	4
533.773	1	-1
533.943	1	4
534.113	1	2
534.284	1	4
534.454	1	6
534.624	1	6
534.794	1	-5
534.964	1	-5
535.134	1	-12
535.304	1	17
535.474	1	2
535.644	1	13
535.814	1	5
535.984	1	-1
536.154	1	-2
536.324	1	2
536.494	1	11
536.664	1	2
536.834	1	9
537.004	1	17
537.174	1	16
537.344	1	4
537.514	1	1
537.685	1	4
537.855	1	6
538.025	1	9
538.195	1	5
538.365	1	5
538.535	1	21
538.705	1	0
538.875	1	2
539.045	1	6
539.215	1	-9
539.385	1	6
539.555	1	5
539.725	1	11
539.895	1	11
540.065	1	-3
540.235	1	-1
540.405	1	3
540.575	1	-1
540.745	1	-5
540.915	1	10
541.085	1	9
541.255	1	-6
541.425	1	5
541.595	1	-3
541.765	1	4
541.935	1	3
542.105	1	8
542.275	1	-1
542.445	1	9
542.615	1	-3
542.785	1	-6
542.955	1	1
543.125	1	-4
543.295	1	-4
543.465	1	15
543.635	1	2
543.805	1	-3
543.975	1	8
544.145	1	-4
544.315	1	-2
544.485	1	7
544.655	1	10
544.825	1	6
544.995	1	3
545.165	1	1
545.335	1	-4
545.505	1	7
545.675	1	7
545.845	1	-4
546.015	1	0
546.185	1	5
546.355	1	11
546.525	1	18
546.695	1	-1
546.865	1	1
547.035	1	14
547.205	1	2
547.375	1	12
547.545	1	6
547.715	1	8
547.885	1	10
548.055	1	13
548.225	1	-1
548.395	1	8
548.565	1	-2
548.735	1	6
548.905	1	-11
549.075	1	4
549.245	1	3
549.415	1	-1
549.585	1	0
549.755	1	2
549.925	1	6
550.095	1	0
550.265	1	-5
550.435	1	2
550.605	1	11
550.775	1	-6
550.945	1	9
551.115	1	2
551.285	1	11
551.455	1	3
551.625	1	2
551.795	1	-11
551.965	1	-4
552.135	1	1
552.305	1	-2
552.475	1	-12
552.645	1	2
552.815	1	2
552.985	1	-2
553.155	1	11
553.325	1	14
553.495	1	-2
553.665	1	3
553.835	1	3
554.004	1	0
554.174	1	1
554.344	1	-12
554.514	1	10
554.684	1	7
554.854	1	1
555.024	1	8
555.194	1	19
555.364	1	7
555.534	1	4
555.704	1	1
555.874	1	-5
556.044	1	6
556.214	1	-2
556.384	1	5
556.554	1	1
556.724	1	-7
556.894	1	14
557.064	1	4
557.234	1	0
557.404	1	-8
557.573	1	2
557.743	1	2
557.913	1	11
558.083	1	-7
558.253	1	2
558.423	1	-12
558.593	1	2
558.763	1	0
558.933	1	3
559.103	1	-6
559.273	1	3
559.443	1	2
559.613	1	8
559.783	1	10
559.953	1	1
560.122	1	0
560.292	1	6
560.462	1	3
560.632	1	2
560.802	1	0
560.972	1	3
561.142	1	9
561.312	1	1
561.482	1	1
561.652	1	1
561.822	1	0
561.992	1	13
562.162	1	4
562.331	1	7
562.501	1	-5
562.671	1	-4
562.841	1	0
563.011	1	6
563.181	1	5
563.351	1	-8
563.521	1	-1
563.691	1	2
563.861	1	6
564.031	1	4
564.201	1	0
564.370	1	5
564.540	1	10
564.710	1	-5
564.880	1	-3
565.050	1	-1
565.220	1	1
565.390	1	-7
565.560	1	6
565.730	1	-5
565.900	1	8
566.069	1	13
566.239	1	-3
566.409	1	6
566.579	1	7
566.749	1	11
566.919	1	2
567.089	1	1
567.259	1	6
567.429	1	7
567.599	1	-4
567.768	1	5
567.938	1	4
568.108	1	0
568.278	1	-9
568.448	1	-4
568.618	1	-2
568.788	1	-3
568.958	1	5
569.128	1	5
569.297	1	-2
569.467	1	2
569.637	1	7
569.807	1	-2
569.977	1	2
570.147	1	1
570.317	1	17
570.487	1	13
570.656	1	-4
570.826	1	8
570.996	1	-7
571.166	1	-9
571.336	1	7
571.506	1	7
571.676	1	9
571.846	1	9
572.015	1	1
572.185	1	-10
572.355	1	6
572.525	1	-6
572.695	1	8
572.865	1	3
573.035	1	3
573.205	1	1
573.374	1	4
573.544	1	7
573.714	1	2
573.884	1	-1
574.054	1	-1
574.224	1	-8
574.394	1	-5
574.563	1	0
574.733	1	2
574.903	1	5
575.073	1	0
575.243	1	-13
575.413	1	5
575.583	1	10
575.752	1	-7
575.922	1	2
576.092	1	2
576.262	1	-6
576.432	1	-12
576.602	1	-3
576.772	1	8
576.941	1	10
577.111	1	10
577.281	1	-2
577.451	1	-5
577.621	1	-2
577.791	1	4
577.960	1	-6
578.130	1	-9
578.300	1	0
578.470	1	3
578.640	1	-3
578.810	1	1
578.979	1	0
579.149	1	-8
579.319	1	11
579.489	1	3
579.659	1	-1
579.829	1	-1
579.998	1	-4
580.168	1	-8
580.338	1	-11
580.508	1	3
580.678	1	-5
580.848	1	-3
581.017	1	-4
581.187	1	1
581.357	1	-5
581.527	1	2
581.697	1	-6
581.867	1	-5
582.036	1	9
582.206	1	-6
582.376	1	7
582.546	1	2
582.716	1	2
582.885	1	6
583.055	1	0
583.225	1	1
583.395	1	5
583.565	1	10
583.735	1	-7
583.904	1	-2
584.074	1	-5
584.244	1	-2
584.414	1	-9
584.584	1	8
584.753	1	-2
584.923	1	-2
585.093	1	8
585.263	1	-3
585.433	1	-4
585.602	1	-1
585.772	1	-4
585.942	1	1
586.112	1	8
586.282	1	0
586.451	1	5
586.621	1	0
586.791	1	1
586.961	1	-14
587.131	1	-6
587.300	1	-11
587.470	1	7
587.640	1	-6
587.810	1	2
587.980	1	-1
588.149	1	6
588.319	1	12
588.489	1	6
588.659	1	-5
588.829	1	2
588.998	1	-13
589.168	1	-4
589.338	1	9
589.508	1	10
589.677	1	-5
589.847	1	0
590.017	1	-6
590.187	1	-4
590.357	1	-6
590.526	1	-1
590.696	1	4
590.866	1	6
591.036	1	6
591.205	1	9
591.375	1	-12
591.545	1	-3
591.715	1	-5
591.885	1	11
592.054	1	-6
592.224	1	7
592.394	1	-1
592.564	1	-13
592.733	1	-1
592.903	1	6
593.073	1	1
593.243	1	-2
593.412	1	-3
593.582	1	8
593.752	1	-6
593.922	1	-5
594.091	1	-1
594.261	1	6
594.431	1	-2
594.601	1	-14
594.771	1	9
594.940	1	1
595.110	1	2
595.280	1	-4
595.450	1	-7
595.619	1	8
595.789	1	0
595.959	1	3
596.129	1	-2
596.298	1	3
596.468	1	-3
596.638	1	5
596.808	1	12
596.977	1	-8
597.147	1	6
597.317	1	6
597.487	1	-4
597.656	1	-2
597.826	1	-1
597.996	1	13
598.166	1	1
598.335	1	-7
598.505	1	-8
598.675	1	-1
598.844	1	-4
599.014	1	2
599.184	1	-1
599.354	1	-5
599.523	1	-8
599.693	1	1
599.863	1	6
600.033	1	-2
600.202	1	-5
600.372	1	-8
600.542	1	-4
600.712	1	0
600.881	1	2
601.051	1	10
601.221	1	0
601.390	1	-4
601.560	1	0
601.730	1	1
601.900	1	-7
602.069	1	-8
602.239	1	-4
602.409	1	-2
602.578	1	2
602.748	1	-7
602.918	1	-2
603.088	1	6
603.257	1	6
603.427	1	-5
603.597	1	12
603.767	1	-6
603.936	1	1
604.106	1	9
604.276	1	5
604.445	1	6
604.615	1	-1
604.785	1	-2
604.954	1	5
605.124	1	-5
605.294	1	-7
605.464	1	4
605.633	1	0
605.803	1	-4
605.973	1	-2
606.142	1	-6
606.312	1	-2
606.482	1	-2
606.652	1	-12
606.821	1	0
606.991	1	1
607.161	1	1
607.330	1	-1
607.500	1	5
607.670	1	-7
607.839	1	3
608.009	1	-3
608.179	1	-1
608.348	1	5
608.518	1	-3
608.688	1	-4
608.858	1	2
609.027	1	0
609.197	1	-1
609.367	1	-7
609.536	1	2
609.706	1	2
609.876	1	-3
610.045	1	-4
610.215	1	-7
610.385	1	-1
610.554	1	-5
610.724	1	-3
610.894	1	17
611.063	1	9
611.233	1	-4
611.403	1	7
611.572	1	6
611.742	1	-1
611.912	1	0
612.081	1	-6
612.251	1	-10
612.421	1	8
612.590	1	-4
612.760	1	2
612.930	1	6
613.099	1	-12
613.269	1	4
613.439	1	2
613.608	1	2
613.778	1	-2
613.948	1	20
614.117	1	12
614.287	1	-6
614.457	1	5
614.626	1	9
614.796	1	4
614.966	1	-9
615.135	1	-1
615.305	1	-4
615.475	1	4
615.644	1	-13
615.814	1	1
615.984	1	14
616.153	1	4
616.323	1	0
616.493	1	2
616.662	1	0
616.832	1	1
617.002	1	-4
617.171	1	-9
617.341	1	2
617.511	1	0
617.680	1	-3
617.850	1	6
618.019	1	-5
618.189	1	-6
618.359	1	3
618.528	1	-8
618.698	1	-7
618.868	1	4
619.037	1	7
619.207	1	-13
619.377	1	-2
619.546	1	7
619.716	1	-14
619.885	1	3
620.055	1	-4
620.225	1	2
620.394	1	-4
620.564	1	-2
620.734	1	9
620.903	1	9
621.073	1	-13
621.242	1	-10
621.412	1	4
621.582	1	4
621.751	1	1
621.921	1	2
622.091	1	-9
622.260	1	-7
622.430	1	0
622.599	1	2
622.769	1	-3
622.939	1	-3
623.108	1	-7
623.278	1	-3
623.448	1	-4
623.617	1	11
623.787	1	2
623.956	1	1
624.126	1	-5
624.296	1	1
624.465	1	10
624.635	1	-3
624.804	1	-9
624.974	1	-7
625.144	1	-1
625.313	1	7
625.483	1	4
625.652	1	9
625.822	1	2
625.992	1	-4
626.161	1	-7
626.331	1	1
626.501	1	-1
626.670	1	-3
626.840	1	3
627.009	1	-16
627.179	1	-6
627.348	1	5
627.518	1	-1
627.688	1	-1
627.857	1	11
628.027	1	6
628.196	1	13
628.366	1	-1
628.536	1	1
628.705	1	0
628.875	1	-2
629.044	1	1
629.214	1	0
629.384	1	-15
629.553	1	8
629.723	1	6
629.892	1	-1
630.062	1	7
630.232	1	5
630.401	1	-1
630.571	1	3
630.740	1	10
630.910	1	-5
631.079	1	9
631.249	1	-8
631.419	1	-3
631.588	1	-12
631.758	1	4
631.927	1	-1
632.097	1	10
632.266	1	-4
632.436	1	-6
632.606	1	-2
632.775	1	-2
632.945	1	0
633.114	1	10
633.284	1	-6
633.453	1	0
633.623	1	-4
633.793	1	-6
633.962	1	1
634.132	1	3
634.301	1	-15
634.471	1	-10
634.640	1	-1
634.810	1	2
634.979	1	8
635.149	1	-8
635.319	1	3
635.488	1	2
635.658	1	-12
635.827	1	-7
635.997	1	2
636.166	1	-5
636.336	1	8
636.505	1	-6
636.675	1	-11
636.845	1	7
637.014	1	-11
637.184	1	-1
637.353	1	-2
637.523	1	-2
637.692	1	-3
637.862	1	-11
638.031	1	1
638.201	1	9
638.370	1	1
638.540	1	2
638.710	1	-6
638.879	1	-7
639.049	1	1
639.218	1	-6
639.388	1	1
639.557	1	-2
639.727	1	-7
639.896	1	-8
640.066	1	2
640.235	1	0
640.405	1	-1
640.574	1	-4
640.744	1	-6
640.914	1	-5
641.083	1	0
641.253	1	-4
641.422	1	-1
641.592	1	-3
641.761	1	-2
641.931	1	13
642.100	1	-5
642.270	1	-1
642.439	1	-9
642.609	1	3
642.778	1	-2
642.948	1	-2
643.117	1	-1
643.287	1	5
643.456	1	5
643.626	1	-3
643.795	1	-6
643.965	1	-5
644.134	1	-2
644.304	1	-11
644.473	1	5
644.643	1	-3
644.812	1	-1
644.982	1	11
645.151	1	-6
645.321	1	11
645.490	1	3
645.660	1	-13
645.829	1	-10
645.999	1	-2
646.168	1	-1
646.338	1	9
646.507	1	-4
646.677	1	8
646.846	1	7
647.016	1	-7
647.185	1	-1
647.355	1	-4
647.524	1	3
647.694	1	-9
647.863	1	-5
648.033	1	-7
648.202	1	4
648.372	1	3
648.541	1	-5
648.711	1	5
648.880	1	-4
649.050	1	-9
649.219	1	0
649.389	1	-2
649.558	1	-9
649.728	1	0
649.897	1	4
650.067	1	0
650.236	1	2
650.406	1	3
650.575	1	1
650.745	1	-9
650.914	1	5
651.084	1	-10
651.253	1	1
651.423	1	-7
651.592	1	4
651.762	1	5
651.931	1	-4
652.101	1	-4
652.270	1	-1
652.440	1	7
652.609	1	-3
652.778	1	-1
652.948	1	-8
653.117	1	-2
653.287	1	10
653.456	1	-5
653.626	1	4
653.795	1	-3
653.965	1	-2
654.134	1	12
654.304	1	0
654.473	1	-6
654.643	1	7
654.812	1	5
654.982	1	-14
655.151	1	-7
655.320	1	-4
655.490	1	6
655.659	1	0
655.829	1	-4
655.998	1	6
656.168	1	-4
656.337	1	-5
656.507	1	1
656.676	1	-6
656.846	1	-13
657.015	1	-3
657.184	1	7
657.354	1	-1
657.523	1	0
657.693	1	1
657.862	1	8
658.032	1	8
658.201	1	0
658.371	1	-11
658.540	1	-9
658.709	1	-6
658.879	1	-7
659.048	1	0
659.218	1	-1
659.387	1	-10
659.557	1	-8
659.726	1	-3
659.895	1	-9
660.065	1	-4
660.234	1	1
660.404	1	4
660.573	1	-9
660.743	1	1
660.912	1	-2
661.081	1	0
661.251	1	11
661.420	1	5
661.590	1	-3
661.759	1	0
661.929	1	-4
662.098	1	-13
662.267	1	-4
662.437	1	2
662.606	1	0
662.776	1	8
662.945	1	-3
663.115	1	-7
663.284	1	-3
663.453	1	1
663.623	1	-3
663.792	1	2
663.962	1	2
664.131	1	-10
664.300	1	-1
664.470	1	-5
664.639	1	-6
664.809	1	8
664.978	1	2
665.148	1	-9
665.317	1	-9
665.486	1	-4
665.656	1	-10
665.825	1	11
665.995	1	7
666.164	1	6
666.333	1	12
666.503	1	-4
666.672	1	-18
666.842	1	-6
667.011	1	2
667.180	1	-6
667.350	1	4
667.519	1	-3
667.689	1	-6
667.858	1	7
668.027	1	-2
668.197	1	9
668.366	1	-2
668.536	1	-6
668.705	1	7
668.874	1	-5
669.044	1	-13
669.213	1	-3
669.382	1	-4
669.552	1	-1
669.721	1	-10
669.891	1	3
670.060	1	6
670.229	1	3
670.399	1	0
670.568	1	5
670.738	1	-10
670.907	1	-8
671.076	1	8
671.246	1	0
671.415	1	-10
671.584	1	-5
671.754	1	-6
671.923	1	-5
672.093	1	6
672.262	1	-1
672.431	1	6
672.601	1	-13
672.770	1	0
672.939	1	-11
673.109	1	-7
673.278	1	-2
673.448	1	-3
673.617	1	5
673.786	1	-12
