325.333	1	-3
325.504	1	6
325.675	1	0
325.846	1	-1
326.017	1	-4
326.188	1	9
326.359	1	0
326.531	1	-7
326.702	1	7
326.873	1	12
327.044	1	1
327.215	1	1
327.386	1	-1
327.557	1	-4
327.728	1	-5
327.899	1	-7
328.070	1	8
328.241	1	6
328.412	1	4
328.583	1	1
328.754	1	11
328.926	1	4
329.097	1	0
329.268	1	2
329.439	1	0
329.610	1	-4
329.781	1	-3
329.952	1	9
330.123	1	11
330.294	1	12
330.465	1	0
330.636	1	1
330.807	1	10
330.978	1	4
331.149	1	9
331.320	1	6
331.492	1	-1
331.663	1	-13
331.834	1	9
332.005	1	0
332.176	1	4
332.347	1	-1
332.518	1	3
332.689	1	5
332.860	1	-3
333.031	1	7
333.202	1	6
333.373	1	1
333.544	1	-6
333.715	1	7
333.886	1	7
334.057	1	-8
334.228	1	-5
334.399	1	-1
334.570	1	-4
334.741	1	1
334.912	1	6
335.084	1	4
335.255	1	-4
335.426	1	0
335.597	1	-5
335.768	1	7
335.939	1	-7
336.110	1	-5
336.281	1	-10
336.452	1	6
336.623	1	3
336.794	1	3
336.965	1	-13
337.136	1	-3
337.307	1	6
337.478	1	6
337.649	1	1
337.820	1	13
337.991	1	12
338.162	1	1
338.333	1	-6
338.504	1	10
338.675	1	12
338.846	1	0
339.017	1	6
339.188	1	2
339.359	1	2
339.530	1	5
339.701	1	-4
339.872	1	2
340.043	1	6
340.214	1	-1
340.385	1	-5
340.556	1	2
340.727	1	-7
340.898	1	-2
341.069	1	6
341.240	1	7
341.411	1	18
341.582	1	3
341.753	1	2
341.924	1	-2
342.095	1	4
342.266	1	2
342.437	1	1
342.608	1	3
342.779	1	0
342.950	1	6
343.121	1	7
343.292	1	-5
343.463	1	-2
343.634	1	1
343.805	1	16
343.976	1	8
344.147	1	6
344.318	1	6
344.489	1	-8
344.660	1	14
344.831	1	-2
345.002	1	-1
345.173	1	-1
345.344	1	-1
345.515	1	3
345.686	1	2
345.857	1	-1
346.028	1	-4
346.199	1	-5
346.370	1	2
346.541	1	2
346.712	1	1
346.883	1	-1
347.054	1	5
347.225	1	-7
347.396	1	5
347.567	1	0
347.738	1	16
347.909	1	6
348.080	1	-3
348.251	1	-8
348.422	1	13
348.593	1	-1
348.764	1	-2
348.935	1	3
349.106	1	5
349.277	1	-1
349.448	1	4
349.619	1	8
349.790	1	1
349.961	1	1
350.132	1	2
350.303	1	2
350.474	1	6
350.645	1	-1
350.816	1	-7
350.987	1	-6
351.157	1	8
351.328	1	-2
351.499	1	5
351.670	1	6
351.841	1	11
352.012	1	-3
352.183	1	3
352.354	1	4
352.525	1	11
352.696	1	-1
352.867	1	5
353.038	1	14
353.209	1	7
353.380	1	1
353.551	1	4
353.722	1	2
353.893	1	-1
354.064	1	8
354.235	1	7
354.406	1	0
354.576	1	6
354.747	1	1
354.918	1	-1
355.089	1	8
355.260	1	5
355.431	1	9
355.602	1	9
355.773	1	-2
355.944	1	-2
356.115	1	0
356.286	1	6
356.457	1	-1
356.628	1	0
356.799	1	12
356.970	1	-2
357.141	1	3
357.311	1	-4
357.482	1	-4
357.653	1	5
357.824	1	7
357.995	1	13
358.166	1	9
358.337	1	7
358.508	1	-4
358.679	1	7
358.850	1	9
359.021	1	8
359.192	1	15
359.363	1	8
359.533	1	4
359.704	1	-1
359.875	1	8
360.046	1	11
360.217	1	18
360.388	1	7
360.559	1	9
360.730	1	12
360.901	1	11
361.072	1	10
361.243	1	9
361.414	1	26
361.584	1	14
361.755	1	14
361.926	1	17
362.097	1	9
362.268	1	15
362.439	1	17
362.610	1	2
362.781	1	14
362.952	1	17
363.123	1	27
363.293	1	18
363.464	1	28
363.635	1	16
363.806	1	18
363.977	1	24
364.148	1	17
364.319	1	14
364.490	1	11
364.661	1	28
364.832	1	24
365.002	1	22
365.173	1	19
365.344	1	27
365.515	1	29
365.686	1	26
365.857	1	37
366.028	1	25
366.199	1	21
366.370	1	29
366.540	1	27
366.711	1	31
366.882	1	27
367.053	1	28
367.224	1	27
367.395	1	23
367.566	1	22
367.737	1	15
367.908	1	27
368.078	1	26
368.249	1	18
368.420	1	7
368.591	1	38
368.762	1	16
368.933	1	29
369.104	1	30
369.274	1	19
369.445	1	11
369.616	1	15
369.787	1	21
369.958	1	23
370.129	1	20
370.300	1	15
370.471	1	15
370.641	1	11
370.812	1	14
370.983	1	14
371.154	1	19
371.325	1	26
371.496	1	4
371.667	1	10
371.837	1	-2
372.008	1	13
372.179	1	13
372.350	1	6
372.521	1	9
372.692	1	11
372.863	1	12
373.033	1	15
373.204	1	24
373.375	1	-1
373.546	1	11
373.717	1	18
373.888	1	10
374.059	1	22
374.229	1	9
374.400	1	7
374.571	1	14
374.742	1	15
374.913	1	11
375.084	1	6
375.254	1	11
375.425	1	0
375.596	1	-7
375.767	1	8
375.938	1	10
376.109	1	0
376.279	1	0
376.450	1	16
376.621	1	13
376.792	1	-3
376.963	1	15
377.134	1	5
377.304	1	11
377.475	1	8
377.646	1	2
377.817	1	4
377.988	1	11
378.159	1	17
378.329	1	16
378.500	1	-3
378.671	1	5
378.842	1	4
379.013	1	13
379.184	1	6
379.354	1	15
379.525	1	15
379.696	1	7
379.867	1	16
380.038	1	12
380.209	1	18
380.379	1	-1
380.550	1	15
380.721	1	21
380.892	1	10
381.063	1	9
381.233	1	27
381.404	1	9
381.575	1	11
381.746	1	19
381.917	1	17
382.087	1	20
382.258	1	23
382.429	1	24
382.600	1	22
382.771	1	16
382.941	1	27
383.112	1	28
383.283	1	23
383.454	1	17
383.625	1	30
383.795	1	38
383.966	1	26
384.137	1	35
384.308	1	44
384.479	1	49
384.649	1	43
384.820	1	32
384.991	1	41
385.162	1	45
385.333	1	49
385.503	1	45
385.674	1	48
385.845	1	43
386.016	1	48
386.187	1	52
386.357	1	40
386.528	1	54
386.699	1	65
386.870	1	65
387.041	1	42
387.211	1	39
387.382	1	45
387.553	1	52
387.724	1	42
387.894	1	48
388.065	1	45
388.236	1	57
388.407	1	54
388.578	1	44
388.748	1	55
388.919	1	42
389.090	1	55
389.261	1	29
389.431	1	45
389.602	1	42
389.773	1	33
389.944	1	44
390.114	1	47
390.285	1	31
390.456	1	43
390.627	1	31
390.798	1	48
390.968	1	38
391.139	1	29
391.310	1	38
391.481	1	41
391.651	1	48
391.822	1	51
391.993	1	39
392.164	1	42
392.334	1	50
392.505	1	32
392.676	1	38
392.847	1	37
393.017	1	26
393.188	1	33
393.359	1	50
393.530	1	40
393.700	1	53
393.871	1	32
394.042	1	45
394.213	1	48
394.383	1	30
394.554	1	36
394.725	1	35
394.896	1	36
395.066	1	40
395.237	1	45
395.408	1	42
395.579	1	44
395.749	1	42
395.920	1	43
396.091	1	41
396.262	1	35
396.432	1	33
396.603	1	43
396.774	1	42
396.945	1	44
397.115	1	42
397.286	1	63
397.457	1	46
397.627	1	44
397.798	1	40
397.969	1	46
398.140	1	55
398.310	1	50
398.481	1	25
398.652	1	52
398.823	1	52
398.993	1	37
399.164	1	49
399.335	1	32
399.505	1	37
399.676	1	45
399.847	1	29
400.018	1	46
400.188	1	45
400.359	1	46
400.530	1	36
400.700	1	35
400.871	1	25
401.042	1	38
401.213	1	37
401.383	1	35
401.554	1	39
401.725	1	35
401.895	1	48
402.066	1	36
402.237	1	41
402.408	1	23
402.578	1	35
402.749	1	31
402.920	1	22
403.090	1	29
403.261	1	23
403.432	1	33
403.603	1	32
403.773	1	25
403.944	1	35
404.115	1	26
404.285	1	22
404.456	1	32
404.627	1	35
404.797	1	37
404.968	1	39
405.139	1	31
405.310	1	25
405.480	1	38
405.651	1	36
405.822	1	28
405.992	1	32
406.163	1	34
406.334	1	29
406.504	1	30
406.675	1	27
406.846	1	21
407.016	1	30
407.187	1	26
407.358	1	16
407.528	1	32
407.699	1	36
407.870	1	26
408.041	1	29
408.211	1	33
408.382	1	29
408.553	1	35
408.723	1	25
408.894	1	13
409.065	1	34
409.235	1	13
409.406	1	40
409.577	1	20
409.747	1	24
409.918	1	35
410.089	1	22
410.259	1	10
410.430	1	27
410.601	1	11
410.771	1	22
410.942	1	25
411.113	1	28
411.283	1	20
411.454	1	17
411.625	1	30
411.795	1	28
411.966	1	11
412.137	1	19
412.307	1	19
412.478	1	24
412.649	1	27
412.819	1	21
412.990	1	24
413.161	1	33
413.331	1	17
413.502	1	27
413.672	1	31
413.843	1	20
414.014	1	22
414.184	1	21
414.355	1	16
414.526	1	16
414.696	1	8
414.867	1	26
415.038	1	15
415.208	1	15
415.379	1	29
415.550	1	7
415.720	1	17
415.891	1	20
416.062	1	24
416.232	1	14
416.403	1	23
416.573	1	18
416.744	1	15
416.915	1	18
417.085	1	16
417.256	1	18
417.427	1	17
417.597	1	8
417.768	1	10
417.939	1	28
418.109	1	27
418.280	1	9
418.450	1	10
418.621	1	10
418.792	1	15
418.962	1	10
419.133	1	4
419.304	1	15
419.474	1	1
419.645	1	21
419.815	1	11
419.986	1	23
420.157	1	21
420.327	1	17
420.498	1	14
420.669	1	9
420.839	1	16
421.010	1	12
421.180	1	10
421.351	1	12
421.522	1	17
421.692	1	13
421.863	1	5
422.033	1	5
422.204	1	-1
422.375	1	10
422.545	1	24
422.716	1	14
422.886	1	17
423.057	1	8
423.228	1	6
423.398	1	8
423.569	1	10
423.740	1	2
423.910	1	5
424.081	1	13
424.251	1	0
424.422	1	18
424.593	1	13
424.763	1	13
424.934	1	9
425.104	1	14
425.275	1	4
425.445	1	-2
425.616	1	13
425.787	1	-9
425.957	1	22
426.128	1	11
426.298	1	8
426.469	1	0
426.640	1	7
426.810	1	16
426.981	1	-4
427.151	1	11
427.322	1	7
427.493	1	9
427.663	1	6
427.834	1	3
428.004	1	12
428.175	1	10
428.345	1	24
428.516	1	7
428.687	1	4
428.857	1	8
429.028	1	4
429.198	1	6
429.369	1	10
429.540	1	26
429.710	1	5
429.881	1	19
430.051	1	16
430.222	1	9
430.392	1	5
430.563	1	15
430.734	1	3
430.904	1	3
431.075	1	7
431.245	1	6
431.416	1	12
431.586	1	2
431.757	1	11
431.927	1	4
432.098	1	17
432.269	1	8
432.439	1	0
432.610	1	6
432.780	1	10
432.951	1	9
433.121	1	5
433.292	1	11
433.462	1	5
433.633	1	7
433.804	1	3
433.974	1	7
434.145	1	1
434.315	1	4
434.486	1	14
434.656	1	12
434.827	1	10
434.997	1	20
435.168	1	4
435.339	1	18
435.509	1	14
435.680	1	-7
435.850	1	15
436.021	1	9
436.191	1	-2
436.362	1	14
436.532	1	9
436.703	1	8
436.873	1	-3
437.044	1	15
437.214	1	-1
437.385	1	9
437.556	1	-5
437.726	1	3
437.897	1	9
438.067	1	9
438.238	1	-8
438.408	1	11
438.579	1	12
438.749	1	16
438.920	1	5
439.090	1	13
439.261	1	10
439.431	1	2
439.602	1	13
439.772	1	6
439.943	1	-5
440.113	1	2
440.284	1	22
440.455	1	-6
440.625	1	3
440.796	1	17
440.966	1	12
441.137	1	-1
441.307	1	2
441.478	1	8
441.648	1	-2
441.819	1	4
441.989	1	1
442.160	1	10
442.330	1	1
442.501	1	-12
442.671	1	3
442.842	1	8
443.012	1	5
443.183	1	3
443.353	1	2
443.524	1	13
443.694	1	8
443.865	1	8
444.035	1	2
444.206	1	1
444.376	1	1
444.547	1	-1
444.717	1	4
444.888	1	-7
445.058	1	7
445.229	1	-7
445.399	1	10
445.570	1	3
445.740	1	-2
445.911	1	12
446.081	1	7
446.252	1	-8
446.422	1	0
446.593	1	-2
446.763	1	9
446.934	1	16
447.104	1	-4
447.275	1	-3
447.445	1	4
447.616	1	4
447.786	1	6
447.957	1	2
448.127	1	7
448.298	1	3
448.468	1	13
448.639	1	4
448.809	1	-6
448.979	1	8
449.150	1	5
449.320	1	-1
449.491	1	0
449.661	1	1
449.832	1	0
450.002	1	5
450.173	1	-2
450.343	1	0
450.514	1	3
450.684	1	1
450.855	1	3
451.025	1	-2
451.196	1	1
451.366	1	7
451.537	1	0
451.707	1	6
451.878	1	4
452.048	1	0
452.218	1	1
452.389	1	2
452.559	1	0
452.730	1	7
452.900	1	1
453.071	1	-4
453.241	1	-1
453.412	1	4
453.582	1	3
453.753	1	-5
453.923	1	-1
454.093	1	10
454.264	1	0
454.434	1	4
454.605	1	7
454.775	1	10
454.946	1	7
455.116	1	1
455.287	1	12
455.457	1	-8
455.628	1	-2
455.798	1	-4
455.968	1	-2
456.139	1	2
456.309	1	2
456.480	1	-4
456.650	1	2
456.821	1	11
456.991	1	8
457.161	1	-1
457.332	1	-4
457.502	1	-1
457.673	1	-9
457.843	1	6
458.014	1	1
458.184	1	1
458.355	1	7
458.525	1	1
458.695	1	6
458.866	1	-13
459.036	1	11
459.207	1	4
459.377	1	4
459.548	1	-6
459.718	1	-7
459.888	1	13
460.059	1	12
460.229	1	13
460.400	1	10
460.570	1	1
460.740	1	1
460.911	1	10
461.081	1	-4
461.252	1	-1
461.422	1	1
461.593	1	-2
461.763	1	3
461.933	1	0
462.104	1	5
462.274	1	0
462.445	1	-10
462.615	1	3
462.785	1	-11
462.956	1	-3
463.126	1	-3
463.297	1	2
463.467	1	7
463.638	1	0
463.808	1	-1
463.978	1	5
464.149	1	11
464.319	1	0
464.490	1	5
464.660	1	4
464.830	1	7
465.001	1	4
465.171	1	5
465.342	1	11
465.512	1	8
465.682	1	-1
465.853	1	2
466.023	1	5
466.194	1	-1
466.364	1	3
466.534	1	10
466.705	1	11
466.875	1	2
467.045	1	4
467.216	1	-10
467.386	1	8
467.557	1	15
467.727	1	-7
467.897	1	7
468.068	1	5
468.238	1	-10
468.409	1	7
468.579	1	7
468.749	1	-5
468.920	1	2
469.090	1	9
469.260	1	-5
469.431	1	4
469.601	1	11
469.772	1	-14
469.942	1	8
470.112	1	3
470.283	1	14
470.453	1	5
470.623	1	4
470.794	1	6
470.964	1	-2
471.135	1	-8
471.305	1	-10
471.475	1	-6
471.646	1	13
471.816	1	2
471.986	1	3
472.157	1	10
472.327	1	9
472.497	1	-1
472.668	1	1
472.838	1	5
473.009	1	9
473.179	1	-1
473.349	1	13
473.520	1	7
473.690	1	15
473.860	1	5
474.031	1	6
474.201	1	-6
474.371	1	6
474.542	1	-8
474.712	1	6
474.882	1	-5
475.053	1	-3
475.223	1	4
475.394	1	13
475.564	1	16
475.734	1	1
475.905	1	2
476.075	1	0
476.245	1	1
476.416	1	-4
476.586	1	1
476.756	1	3
476.927	1	14
477.097	1	-10
477.267	1	-8
477.438	1	-4
477.608	1	3
477.778	1	12
477.949	1	2
478.119	1	9
478.289	1	-4
478.460	1	0
478.630	1	4
478.800	1	-2
478.971	1	2
479.141	1	7
479.311	1	6
479.482	1	-1
479.652	1	6
479.822	1	4
479.993	1	2
480.163	1	-4
480.333	1	1
480.504	1	0
480.674	1	9
480.844	1	10
481.015	1	7
481.185	1	8
481.355	1	13
481.525	1	8
481.696	1	5
481.866	1	2
482.036	1	-6
482.207	1	6
482.377	1	-1
482.547	1	-4
482.718	1	6
482.888	1	-2
483.058	1	9
483.229	1	6
483.399	1	2
483.569	1	2
483.740	1	-7
483.910	1	3
484.080	1	-1
484.250	1	3
484.421	1	-1
484.591	1	13
484.761	1	-4
484.932	1	16
485.102	1	7
485.272	1	8
485.443	1	8
485.613	1	-2
485.783	1	14
485.953	1	6
486.124	1	8
486.294	1	2
486.464	1	1
486.635	1	19
486.805	1	22
486.975	1	-12
487.146	1	5
487.316	1	4
487.486	1	-1
487.656	1	-4
487.827	1	8
487.997	1	6
488.167	1	4
488.338	1	18
488.508	1	14
488.678	1	8
488.848	1	4
489.019	1	4
489.189	1	-1
489.359	1	-2
489.529	1	2
489.700	1	9
489.870	1	3
490.040	1	7
490.211	1	16
490.381	1	-1
490.551	1	0
490.721	1	2
490.892	1	7
491.062	1	12
491.232	1	13
491.402	1	-3
491.573	1	12
491.743	1	-4
491.913	1	1
492.084	1	10
492.254	1	5
492.424	1	3
492.594	1	14
492.765	1	9
492.935	1	2
493.105	1	15
493.275	1	10
493.446	1	3
493.616	1	11
493.786	1	14
493.956	1	7
494.127	1	3
494.297	1	14
494.467	1	6
494.637	1	8
494.808	1	18
494.978	1	5
495.148	1	17
495.318	1	8
495.489	1	3
495.659	1	9
495.829	1	10
495.999	1	5
496.170	1	4
496.340	1	11
496.510	1	7
496.680	1	6
496.851	1	15
497.021	1	12
497.191	1	17
497.361	1	3
497.532	1	1
497.702	1	0
497.872	1	8
498.042	1	8
498.213	1	12
498.383	1	2
498.553	1	12
498.723	1	14
498.894	1	1
499.064	1	23
499.234	1	7
499.404	1	5
499.574	1	-2
499.745	1	13
499.915	1	12
500.085	1	4
500.255	1	3
500.426	1	9
500.596	1	8
500.766	1	13
500.936	1	3
501.106	1	9
501.277	1	6
501.447	1	6
501.617	1	13
501.787	1	9
501.958	1	10
502.128	1	4
502.298	1	17
502.468	1	20
502.638	1	16
502.809	1	10
502.979	1	4
503.149	1	19
503.319	1	7
503.489	1	9
503.660	1	8
503.830	1	22
504.000	1	6
504.170	1	14
504.340	1	15
504.511	1	10
504.681	1	14
504.851	1	9
505.021	1	9
505.192	1	24
505.362	1	24
505.532	1	13
505.702	1	14
505.872	1	-5
506.043	1	14
506.213	1	13
506.383	1	9
506.553	1	25
506.723	1	27
506.893	1	15
507.064	1	7
507.234	1	16
507.404	1	12
507.574	1	13
507.744	1	10
507.915	1	17
508.085	1	23
508.255	1	14
508.425	1	23
508.595	1	19
508.766	1	10
508.936	1	9
509.106	1	2
509.276	1	13
509.446	1	16
509.616	1	9
509.787	1	14
509.957	1	16
510.127	1	26
510.297	1	9
510.467	1	17
510.638	1	-1
510.808	1	15
510.978	1	-4
511.148	1	17
511.318	1	13
511.488	1	29
511.659	1	9
511.829	1	20
511.999	1	22
512.169	1	20
512.339	1	12
512.509	1	8
512.680	1	16
512.850	1	25
513.020	1	18
513.190	1	18
513.360	1	22
513.530	1	11
513.700	1	23
513.871	1	18
514.041	1	19
514.211	1	6
514.381	1	16
514.551	1	16
514.721	1	24
514.892	1	20
515.062	1	14
515.232	1	19
515.402	1	14
515.572	1	3
515.742	1	23
515.912	1	26
516.083	1	20
516.253	1	21
516.423	1	23
516.593	1	6
516.763	1	14
516.933	1	24
517.104	1	22
517.274	1	12
517.444	1	20
517.614	1	11
517.784	1	9
517.954	1	17
518.124	1	22
518.294	1	26
518.465	1	18
518.635	1	13
518.805	1	15
518.975	1	24
519.145	1	28
519.315	1	24
519.485	1	15
519.656	1	20
519.826	1	15
519.996	1	22
520.166	1	23
520.336	1	26
520.506	1	19
520.676	1	19
520.846	1	18
521.017	1	11
521.187	1	19
521.357	1	13
521.527	1	21
521.697	1	23
521.867	1	22
522.037	1	23
522.207	1	11
522.377	1	26
522.548	1	10
522.718	1	17
522.888	1	16
523.058	1	40
523.228	1	36
523.398	1	24
523.568	1	14
523.738	1	21
523.909	1	27
524.079	1	26
524.249	1	21
524.419	1	22
524.589	1	22
524.759	1	14
524.929	1	23
525.099	1	18
525.269	1	30
525.439	1	9
525.610	1	30
525.780	1	25
525.950	1	19
526.120	1	27
526.290	1	20
526.460	1	10
526.630	1	25
526.800	1	26
526.970	1	19
527.140	1	19
527.311	1	23
527.481	1	28
527.651	1	30
527.821	1	11
527.991	1	35
528.161	1	33
528.331	1	29
528.501	1	24
528.671	1	17
528.841	1	13
529.011	1	28
529.181	1	32
529.352	1	22
529.522	1	27
529.692	1	40
529.862	1	27
530.032	1	20
530.202	1	30
530.372	1	10
530.542	1	30
530.712	1	38
530.882	1	28
531.052	1	24
531.222	1	15
531.392	1	26
531.563	1	26
531.733	1	25
531.903	1	23
532.073	1	21
532.243	1	16
532.413	1	31
532.583	1	21
532.753	1	33
532.923	1	19
533.093	1	24
533.263	1	25
533.433	1	24
533.603	1	21
533.773	1	19
533.943	1	13
534.113	1	22
534.284	1	25
534.454	1	28
534.624	1	23
534.794	1	29
534.964	1	10
535.134	1	18
535.304	1	34
535.474	1	28
535.644	1	22
535.814	1	24
535.984	1	30
536.154	1	23
536.324	1	26
536.494	1	29
536.664	1	25
536.834	1	23
537.004	1	35
537.174	1	30
537.344	1	25
537.514	1	28
537.685	1	26
537.855	1	36
538.025	1	20
538.195	1	21
538.365	1	27
538.535	1	27
538.705	1	21
538.875	1	24
539.045	1	28
539.215	1	3
539.385	1	16
539.555	1	19
539.725	1	26
539.895	1	26
540.065	1	17
540.235	1	8
540.405	1	17
540.575	1	24
540.745	1	28
540.915	1	27
541.085	1	18
541.255	1	19
541.425	1	15
541.595	1	20
541.765	1	21
541.935	1	32
542.105	1	23
542.275	1	18
542.445	1	23
542.615	1	24
542.785	1	12
542.955	1	16
543.125	1	21
543.295	1	27
543.465	1	30
543.635	1	23
543.805	1	20
543.975	1	19
544.145	1	24
544.315	1	19
544.485	1	22
544.655	1	21
544.825	1	26
544.995	1	23
545.165	1	17
545.335	1	19
545.505	1	21
545.675	1	17
545.845	1	16
546.015	1	15
546.185	1	17
546.355	1	27
546.525	1	32
546.695	1	9
546.865	1	13
547.035	1	25
547.205	1	18
547.375	1	28
547.545	1	28
547.715	1	25
547.885	1	14
548.055	1	20
548.225	1	21
548.395	1	18
548.565	1	22
548.735	1	27
548.905	1	9
549.075	1	18
549.245	1	17
549.415	1	20
549.585	1	12
549.755	1	14
549.925	1	22
550.095	1	17
550.265	1	9
550.435	1	28
550.605	1	26
550.775	1	18
550.945	1	21
551.115	1	12
551.285	1	22
551.455	1	26
551.625	1	10
551.795	1	26
551.965	1	9
552.135	1	19
552.305	1	13
552.475	1	15
552.645	1	20
552.815	1	21
552.985	1	17
553.155	1	25
553.325	1	30
553.495	1	25
553.665	1	17
553.835	1	7
554.004	1	16
554.174	1	23
554.344	1	14
554.514	1	14
554.684	1	17
554.854	1	14
555.024	1	3
555.194	1	22
555.364	1	20
555.534	1	12
555.704	1	30
555.874	1	10
556.044	1	22
556.214	1	26
556.384	1	19
556.554	1	12
556.724	1	3
556.894	1	31
557.064	1	23
557.234	1	16
557.404	1	0
557.573	1	18
557.743	1	19
557.913	1	10
558.083	1	-3
558.253	1	18
558.423	1	5
558.593	1	13
558.763	1	12
558.933	1	23
559.103	1	17
559.273	1	21
559.443	1	15
559.613	1	13
559.783	1	12
559.953	1	14
560.122	1	5
560.292	1	21
560.462	1	13
560.632	1	19
560.802	1	11
560.972	1	23
561.142	1	16
561.312	1	18
561.482	1	19
561.652	1	22
561.822	1	14
561.992	1	15
562.162	1	17
562.331	1	6
562.501	1	11
562.671	1	15
562.841	1	4
563.011	1	11
563.181	1	23
563.351	1	7
563.521	1	16
563.691	1	18
563.861	1	15
564.031	1	23
564.201	1	14
564.370	1	16
564.540	1	28
564.710	1	9
564.880	1	10
565.050	1	9
565.220	1	12
565.390	1	1
565.560	1	18
565.730	1	8
565.900	1	16
566.069	1	18
566.239	1	5
566.409	1	5
566.579	1	10
566.749	1	26
566.919	1	21
567.089	1	12
567.259	1	21
567.429	1	11
567.599	1	10
567.768	1	22
567.938	1	12
568.108	1	4
568.278	1	2
568.448	1	10
568.618	1	11
568.788	1	1
568.958	1	12
569.128	1	11
569.297	1	12
569.467	1	16
569.637	1	11
569.807	1	20
569.977	1	17
570.147	1	7
570.317	1	19
570.487	1	11
570.656	1	10
570.826	1	23
570.996	1	4
571.166	1	4
571.336	1	18
571.506	1	6
571.676	1	19
571.846	1	14
572.015	1	8
572.185	1	8
572.355	1	27
572.525	1	11
572.695	1	18
572.865	1	21
573.035	1	8
573.205	1	16
573.374	1	16
573.544	1	7
573.714	1	11
573.884	1	7
574.054	1	5
574.224	1	-5
574.394	1	11
574.563	1	14
574.733	1	11
574.903	1	13
575.073	1	4
575.243	1	2
575.413	1	11
575.583	1	15
575.752	1	10
575.922	1	16
576.092	1	16
576.262	1	8
576.432	1	3
576.602	1	13
576.772	1	5
576.941	1	10
577.111	1	16
577.281	1	7
577.451	1	5
577.621	1	16
577.791	1	11
577.960	1	14
578.130	1	8
578.300	1	7
578.470	1	13
578.640	1	12
578.810	1	10
578.979	1	11
579.149	1	14
579.319	1	21
579.489	1	8
579.659	1	9
579.829	1	9
579.998	1	9
580.168	1	14
580.338	1	-3
580.508	1	8
580.678	1	10
580.848	1	10
581.017	1	9
581.187	1	8
581.357	1	13
581.527	1	8
581.697	1	-12
581.867	1	2
582.036	1	13
582.206	1	0
582.376	1	14
582.546	1	13
582.716	1	17
582.885	1	9
583.055	1	-1
583.225	1	9
583.395	1	8
583.565	1	26
583.735	1	2
583.904	1	9
584.074	1	4
584.244	1	3
584.414	1	2
584.584	1	9
584.753	1	6
584.923	1	4
585.093	1	8
585.263	1	11
585.433	1	13
585.602	1	6
585.772	1	-3
585.942	1	18
586.112	1	11
586.282	1	11
586.451	1	8
586.621	1	11
586.791	1	2
586.961	1	9
587.131	1	-6
587.300	1	10
587.470	1	4
587.640	1	4
587.810	1	5
587.980	1	9
588.149	1	6
588.319	1	6
588.489	1	12
588.659	1	3
588.829	1	12
588.998	1	4
589.168	1	5
589.338	1	11
589.508	1	12
589.677	1	7
589.847	1	11
590.017	1	-4
590.187	1	8
590.357	1	0
590.526	1	2
590.696	1	7
590.866	1	5
591.036	1	13
591.205	1	18
591.375	1	-5
591.545	1	5
591.715	1	-2
591.885	1	6
592.054	1	0
592.224	1	13
592.394	1	9
592.564	1	3
592.733	1	-5
592.903	1	11
593.073	1	-3
593.243	1	8
593.412	1	7
593.582	1	9
593.752	1	10
593.922	1	5
594.091	1	3
594.261	1	15
594.431	1	6
594.601	1	-5
594.771	1	8
594.940	1	8
595.110	1	9
595.280	1	9
595.450	1	6
595.619	1	10
595.789	1	7
595.959	1	-2
596.129	1	0
596.298	1	14
596.468	1	13
596.638	1	12
596.808	1	14
596.977	1	-2
597.147	1	10
597.317	1	7
597.487	1	8
597.656	1	8
597.826	1	1
597.996	1	11
598.166	1	3
598.335	1	9
598.505	1	5
598.675	1	9
598.844	1	5
599.014	1	0
599.184	1	3
599.354	1	-4
599.523	1	1
599.693	1	15
599.863	1	15
600.033	1	-2
600.202	1	5
600.372	1	0
600.542	1	3
600.712	1	12
600.881	1	-2
601.051	1	17
601.221	1	6
601.390	1	-1
601.560	1	4
601.730	1	9
601.900	1	4
602.069	1	2
602.239	1	-3
602.409	1	1
602.578	1	-2
602.748	1	2
602.918	1	-8
603.088	1	7
603.257	1	1
603.427	1	12
603.597	1	21
603.767	1	0
603.936	1	15
604.106	1	8
604.276	1	3
604.445	1	8
604.615	1	5
604.785	1	6
604.954	1	3
605.124	1	-7
605.294	1	6
605.464	1	0
605.633	1	11
605.803	1	8
605.973	1	6
606.142	1	0
606.312	1	5
606.482	1	2
606.652	1	-2
606.821	1	4
606.991	1	-1
607.161	1	5
607.330	1	5
607.500	1	2
607.670	1	2
607.839	1	9
608.009	1	-1
608.179	1	10
608.348	1	1
608.518	1	2
608.688	1	8
608.858	1	18
609.027	1	1
609.197	1	-1
609.367	1	-4
609.536	1	-5
609.706	1	4
609.876	1	8
610.045	1	8
610.215	1	3
610.385	1	10
610.554	1	-8
610.724	1	1
610.894	1	11
611.063	1	20
611.233	1	2
611.403	1	9
611.572	1	8
611.742	1	0
611.912	1	5
612.081	1	0
612.251	1	5
612.421	1	12
612.590	1	2
612.760	1	3
612.930	1	3
613.099	1	-7
613.269	1	3
613.439	1	1
613.608	1	13
613.778	1	5
613.948	1	4
614.117	1	9
614.287	1	-2
614.457	1	12
614.626	1	3
614.796	1	15
614.966	1	5
615.135	1	-1
615.305	1	-5
615.475	1	11
615.644	1	-2
615.814	1	8
615.984	1	16
616.153	1	11
616.323	1	7
616.493	1	10
616.662	1	5
616.832	1	2
617.002	1	9
617.171	1	-5
617.341	1	5
617.511	1	1
617.680	1	6
617.850	1	4
618.019	1	3
618.189	1	4
618.359	1	10
618.528	1	5
618.698	1	-2
618.868	1	7
619.037	1	7
619.207	1	1
619.377	1	-3
619.546	1	2
619.716	1	0
619.885	1	-1
620.055	1	6
620.225	1	10
620.394	1	-2
620.564	1	-2
620.734	1	5
620.903	1	5
621.073	1	-2
621.242	1	1
621.412	1	14
621.582	1	3
621.751	1	4
621.921	1	0
622.091	1	-4
622.260	1	-6
622.430	1	6
622.599	1	18
622.769	1	4
622.939	1	-4
623.108	1	-1
623.278	1	10
623.448	1	5
623.617	1	13
623.787	1	3
623.956	1	5
624.126	1	8
624.296	1	1
624.465	1	11
624.635	1	0
624.804	1	-12
624.974	1	1
625.144	1	8
625.313	1	5
625.483	1	-2
625.652	1	15
625.822	1	6
625.992	1	-6
626.161	1	2
626.331	1	13
626.501	1	14
626.670	1	-1
626.840	1	10
627.009	1	-5
627.179	1	6
627.348	1	-2
627.518	1	2
627.688	1	-4
627.857	1	8
628.027	1	11
628.196	1	7
628.366	1	11
628.536	1	-5
628.705	1	13
628.875	1	8
629.044	1	7
629.214	1	9
629.384	1	-11
629.553	1	14
629.723	1	11
629.892	1	0
630.062	1	1
630.232	1	14
630.401	1	5
630.571	1	-4
630.740	1	12
630.910	1	7
631.079	1	17
631.249	1	1
631.419	1	5
631.588	1	-10
631.758	1	9
631.927	1	4
632.097	1	8
632.266	1	-2
632.436	1	-3
632.606	1	4
632.775	1	8
632.945	1	1
633.114	1	19
633.284	1	1
633.453	1	10
633.623	1	3
633.793	1	3
633.962	1	6
634.132	1	11
634.301	1	-5
634.471	1	-9
634.640	1	8
634.810	1	4
634.979	1	8
635.149	1	5
635.319	1	8
635.488	1	7
635.658	1	1
635.827	1	-3
635.997	1	5
636.166	1	-5
636.336	1	8
636.505	1	11
636.675	1	4
636.845	1	14
637.014	1	-6
637.184	1	-3
637.353	1	6
637.523	1	1
637.692	1	3
637.862	1	-3
638.031	1	14
638.201	1	5
638.370	1	1
638.540	1	2
638.710	1	-4
638.879	1	6
639.049	1	9
639.218	1	3
639.388	1	8
639.557	1	10
639.727	1	0
639.896	1	4
640.066	1	5
640.235	1	4
640.405	1	1
640.574	1	-2
640.744	1	-1
640.914	1	3
641.083	1	-6
641.253	1	-4
641.422	1	10
641.592	1	2
641.761	1	-6
641.931	1	16
642.100	1	0
642.270	1	-3
642.439	1	5
642.609	1	1
642.778	1	1
642.948	1	1
643.117	1	-1
643.287	1	4
643.456	1	10
643.626	1	11
643.795	1	12
643.965	1	1
644.134	1	7
644.304	1	-4
644.473	1	12
644.643	1	6
644.812	1	9
644.982	1	10
645.151	1	11
645.321	1	12
645.490	1	6
645.660	1	-1
645.829	1	-8
645.999	1	-2
646.168	1	-5
646.338	1	14
646.507	1	7
646.677	1	6
646.846	1	11
647.016	1	5
647.185	1	-3
647.355	1	6
647.524	1	0
647.694	1	2
647.863	1	0
648.033	1	-8
648.202	1	-2
648.372	1	3
648.541	1	0
648.711	1	9
648.880	1	3
649.050	1	-3
649.219	1	9
649.389	1	7
649.558	1	-1
649.728	1	-1
649.897	1	11
650.067	1	-1
650.236	1	13
650.406	1	6
650.575	1	5
650.745	1	1
650.914	1	1
651.084	1	0
651.253	1	2
651.423	1	11
651.592	1	-4
651.762	1	8
651.931	1	5
652.101	1	5
652.270	1	10
652.440	1	1
652.609	1	9
652.778	1	-8
652.948	1	-1
653.117	1	-5
653.287	1	-1
653.456	1	4
653.626	1	16
653.795	1	5
653.965	1	10
654.134	1	13
654.304	1	10
654.473	1	16
654.643	1	11
654.812	1	-1
654.982	1	-8
655.151	1	-5
655.320	1	-3
655.490	1	10
655.659	1	4
655.829	1	1
655.998	1	3
656.168	1	3
656.337	1	-5
656.507	1	15
656.676	1	-8
656.846	1	1
657.015	1	2
657.184	1	10
657.354	1	5
657.523	1	0
657.693	1	6
657.862	1	1
658.032	1	11
658.201	1	1
658.371	1	-12
658.540	1	0
658.709	1	-8
658.879	1	14
659.048	1	10
659.218	1	-3
659.387	1	2
659.557	1	3
659.726	1	2
659.895	1	2
660.065	1	4
660.234	1	-1
660.404	1	2
660.573	1	-1
660.743	1	-7
660.912	1	-4
661.081	1	2
661.251	1	2
661.420	1	-1
661.590	1	6
661.759	1	8
661.929	1	9
662.098	1	-8
662.267	1	4
662.437	1	0
662.606	1	9
662.776	1	3
662.945	1	4
663.115	1	1
663.284	1	-3
663.453	1	-2
663.623	1	-2
663.792	1	3
663.962	1	4
664.131	1	2
664.300	1	3
664.470	1	4
664.639	1	-1
664.809	1	2
664.978	1	-4
665.148	1	-3
665.317	1	10
665.486	1	0
665.656	1	-2
665.825	1	11
665.995	1	-1
666.164	1	3
666.333	1	7
666.503	1	-9
666.672	1	-8
666.842	1	-5
667.011	1	11
667.180	1	3
667.350	1	15
667.519	1	5
667.689	1	4
667.858	1	10
668.027	1	-6
668.197	1	6
668.366	1	8
668.536	1	0
668.705	1	0
668.874	1	-7
669.044	1	-2
669.213	1	2
669.382	1	-3
669.552	1	5
669.721	1	0
669.891	1	6
670.060	1	4
670.229	1	4
670.399	1	2
670.568	1	11
670.738	1	-7
670.907	1	0
671.076	1	9
671.246	1	6
671.415	1	-3
671.584	1	5
671.754	1	-8
671.923	1	-1
672.093	1	3
672.262	1	12
672.431	1	8
672.601	1	4
672.770	1	1
672.939	1	-8
673.109	1	-2
673.278	1	3
673.448	1	4
673.617	1	8
673.786	1	5
