325.333	1	7
325.504	1	7
325.675	1	1
325.846	1	-10
326.017	1	8
326.188	1	16
326.359	1	1
326.531	1	1
326.702	1	2
326.873	1	7
327.044	1	7
327.215	1	-1
327.386	1	-7
327.557	1	1
327.728	1	1
327.899	1	-1
328.070	1	8
328.241	1	5
328.412	1	13
328.583	1	1
328.754	1	-10
328.926	1	6
329.097	1	0
329.268	1	0
329.439	1	-6
329.610	1	-4
329.781	1	1
329.952	1	21
330.123	1	6
330.294	1	9
330.465	1	1
330.636	1	3
330.807	1	8
330.978	1	-6
331.149	1	2
331.320	1	-1
331.492	1	6
331.663	1	-8
331.834	1	10
332.005	1	11
332.176	1	5
332.347	1	13
332.518	1	4
332.689	1	1
332.860	1	-1
333.031	1	3
333.202	1	2
333.373	1	-2
333.544	1	-6
333.715	1	0
333.886	1	1
334.057	1	-5
334.228	1	-5
334.399	1	7
334.570	1	3
334.741	1	-3
334.912	1	-9
335.084	1	0
335.255	1	7
335.426	1	0
335.597	1	-3
335.768	1	6
335.939	1	-6
336.110	1	3
336.281	1	-12
336.452	1	7
336.623	1	11
336.794	1	-6
336.965	1	6
337.136	1	0
337.307	1	10
337.478	1	2
337.649	1	9
337.820	1	20
337.991	1	12
338.162	1	5
338.333	1	0
338.504	1	-4
338.675	1	4
338.846	1	4
339.017	1	2
339.188	1	8
339.359	1	1
339.530	1	1
339.701	1	7
339.872	1	10
340.043	1	5
340.214	1	1
340.385	1	0
340.556	1	6
340.727	1	4
340.898	1	10
341.069	1	9
341.240	1	8
341.411	1	11
341.582	1	-4
341.753	1	3
341.924	1	3
342.095	1	9
342.266	1	-4
342.437	1	6
342.608	1	2
342.779	1	0
342.950	1	6
343.121	1	15
343.292	1	-1
343.463	1	2
343.634	1	-4
343.805	1	12
343.976	1	7
344.147	1	-3
344.318	1	6
344.489	1	-14
344.660	1	13
344.831	1	4
345.002	1	-4
345.173	1	4
345.344	1	-7
345.515	1	0
345.686	1	1
345.857	1	2
346.028	1	-2
346.199	1	-3
346.370	1	-3
346.541	1	0
346.712	1	9
346.883	1	12
347.054	1	4
347.225	1	2
347.396	1	13
347.567	1	0
347.738	1	7
347.909	1	8
348.080	1	9
348.251	1	9
348.422	1	10
348.593	1	7
348.764	1	4
348.935	1	11
349.106	1	6
349.277	1	0
349.448	1	2
349.619	1	5
349.790	1	-1
349.961	1	3
350.132	1	4
350.303	1	1
350.474	1	7
350.645	1	3
350.816	1	0
350.987	1	-4
351.157	1	17
351.328	1	4
351.499	1	13
351.670	1	5
351.841	1	-1
352.012	1	-9
352.183	1	12
352.354	1	1
352.525	1	10
352.696	1	-4
352.867	1	15
353.038	1	17
353.209	1	3
353.380	1	5
353.551	1	11
353.722	1	7
353.893	1	3
354.064	1	6
354.235	1	9
354.406	1	-11
354.576	1	7
354.747	1	0
354.918	1	-6
355.089	1	4
355.260	1	2
355.431	1	17
355.602	1	21
355.773	1	-8
355.944	1	11
356.115	1	5
356.286	1	8
356.457	1	11
356.628	1	12
356.799	1	14
356.970	1	10
357.141	1	10
357.311	1	22
357.482	1	15
357.653	1	15
357.824	1	13
357.995	1	14
358.166	1	13
358.337	1	21
358.508	1	30
358.679	1	24
358.850	1	17
359.021	1	12
359.192	1	21
359.363	1	25
359.533	1	17
359.704	1	17
359.875	1	17
360.046	1	25
360.217	1	30
360.388	1	28
360.559	1	24
360.730	1	24
360.901	1	30
361.072	1	23
361.243	1	25
361.414	1	38
361.584	1	38
361.755	1	36
361.926	1	45
362.097	1	31
362.268	1	48
362.439	1	41
362.610	1	35
362.781	1	39
362.952	1	55
363.123	1	57
363.293	1	52
363.464	1	48
363.635	1	60
363.806	1	55
363.977	1	61
364.148	1	57
364.319	1	62
364.490	1	64
364.661	1	70
364.832	1	66
365.002	1	81
365.173	1	83
365.344	1	77
365.515	1	68
365.686	1	86
365.857	1	80
366.028	1	74
366.199	1	83
366.370	1	85
366.540	1	90
366.711	1	81
366.882	1	76
367.053	1	94
367.224	1	72
367.395	1	75
367.566	1	93
367.737	1	70
367.908	1	67
368.078	1	80
368.249	1	69
368.420	1	67
368.591	1	84
368.762	1	65
368.933	1	74
369.104	1	71
369.274	1	56
369.445	1	59
369.616	1	59
369.787	1	49
369.958	1	52
370.129	1	72
370.300	1	55
370.471	1	60
370.641	1	55
370.812	1	55
370.983	1	55
371.154	1	51
371.325	1	46
371.496	1	44
371.667	1	44
371.837	1	40
372.008	1	38
372.179	1	44
372.350	1	33
372.521	1	43
372.692	1	41
372.863	1	45
373.033	1	45
373.204	1	41
373.375	1	40
373.546	1	48
373.717	1	41
373.888	1	39
374.059	1	49
374.229	1	26
374.400	1	30
374.571	1	37
374.742	1	43
374.913	1	26
375.084	1	32
375.254	1	35
375.425	1	30
375.596	1	29
375.767	1	34
375.938	1	43
376.109	1	34
376.279	1	21
376.450	1	29
376.621	1	42
376.792	1	19
376.963	1	40
377.134	1	21
377.304	1	28
377.475	1	30
377.646	1	32
377.817	1	30
377.988	1	23
378.159	1	38
378.329	1	23
378.500	1	16
378.671	1	22
378.842	1	25
379.013	1	30
379.184	1	26
379.354	1	37
379.525	1	38
379.696	1	19
379.867	1	29
380.038	1	34
380.209	1	34
380.379	1	22
380.550	1	42
380.721	1	49
380.892	1	39
381.063	1	36
381.233	1	43
381.404	1	40
381.575	1	41
381.746	1	55
381.917	1	51
382.087	1	64
382.258	1	64
382.429	1	60
382.600	1	64
382.771	1	57
382.941	1	62
383.112	1	71
383.283	1	61
383.454	1	77
383.625	1	85
383.795	1	86
383.966	1	88
384.137	1	90
384.308	1	90
384.479	1	101
384.649	1	86
384.820	1	81
384.991	1	109
385.162	1	114
385.333	1	121
385.503	1	115
385.674	1	104
385.845	1	122
386.016	1	114
386.187	1	123
386.357	1	116
386.528	1	127
386.699	1	130
386.870	1	129
387.041	1	118
387.211	1	125
387.382	1	121
387.553	1	124
387.724	1	109
387.894	1	124
388.065	1	117
388.236	1	124
388.407	1	115
388.578	1	107
388.748	1	115
388.919	1	109
389.090	1	117
389.261	1	91
389.431	1	108
389.602	1	116
389.773	1	109
389.944	1	115
390.114	1	111
390.285	1	107
390.456	1	113
390.627	1	90
390.798	1	100
390.968	1	91
391.139	1	100
391.310	1	118
391.481	1	99
391.651	1	94
391.822	1	109
391.993	1	118
392.164	1	90
392.334	1	94
392.505	1	81
392.676	1	91
392.847	1	99
393.017	1	88
393.188	1	84
393.359	1	99
393.530	1	108
393.700	1	93
393.871	1	94
394.042	1	101
394.213	1	91
394.383	1	89
394.554	1	110
394.725	1	88
394.896	1	87
395.066	1	103
395.237	1	103
395.408	1	103
395.579	1	105
395.749	1	106
395.920	1	115
396.091	1	110
396.262	1	99
396.432	1	89
396.603	1	116
396.774	1	98
396.945	1	104
397.115	1	120
397.286	1	117
397.457	1	104
397.627	1	100
397.798	1	81
397.969	1	101
398.140	1	116
398.310	1	104
398.481	1	96
398.652	1	108
398.823	1	114
398.993	1	109
399.164	1	112
399.335	1	86
399.505	1	100
399.676	1	102
399.847	1	98
400.018	1	98
400.188	1	105
400.359	1	97
400.530	1	89
400.700	1	78
400.871	1	77
401.042	1	81
401.213	1	76
401.383	1	90
401.554	1	90
401.725	1	83
401.895	1	88
402.066	1	83
402.237	1	73
402.408	1	68
402.578	1	72
402.749	1	77
402.920	1	58
403.090	1	71
403.261	1	85
403.432	1	77
403.603	1	70
403.773	1	71
403.944	1	83
404.115	1	66
404.285	1	69
404.456	1	76
404.627	1	81
404.797	1	84
404.968	1	64
405.139	1	69
405.310	1	64
405.480	1	78
405.651	1	64
405.822	1	77
405.992	1	74
406.163	1	83
406.334	1	73
406.504	1	64
406.675	1	84
406.846	1	62
407.016	1	71
407.187	1	63
407.358	1	62
407.528	1	70
407.699	1	83
407.870	1	71
408.041	1	68
408.211	1	67
408.382	1	63
408.553	1	74
408.723	1	70
408.894	1	56
409.065	1	68
409.235	1	60
409.406	1	68
409.577	1	66
409.747	1	59
409.918	1	58
410.089	1	64
410.259	1	55
410.430	1	75
410.601	1	45
410.771	1	63
410.942	1	58
411.113	1	47
411.283	1	60
411.454	1	49
411.625	1	63
411.795	1	65
411.966	1	49
412.137	1	55
412.307	1	40
412.478	1	60
412.649	1	44
412.819	1	53
412.990	1	51
413.161	1	58
413.331	1	45
413.502	1	62
413.672	1	45
413.843	1	47
414.014	1	51
414.184	1	41
414.355	1	36
414.526	1	43
414.696	1	42
414.867	1	47
415.038	1	42
415.208	1	38
415.379	1	54
415.550	1	41
415.720	1	46
415.891	1	57
416.062	1	43
416.232	1	50
416.403	1	45
416.573	1	47
416.744	1	54
416.915	1	41
417.085	1	38
417.256	1	45
417.427	1	35
417.597	1	29
417.768	1	33
417.939	1	41
418.109	1	46
418.280	1	47
418.450	1	37
418.621	1	41
418.792	1	41
418.962	1	35
419.133	1	45
419.304	1	47
419.474	1	29
419.645	1	46
419.815	1	31
419.986	1	49
420.157	1	45
420.327	1	46
420.498	1	44
420.669	1	28
420.839	1	34
421.010	1	42
421.180	1	29
421.351	1	44
421.522	1	31
421.692	1	45
421.863	1	27
422.033	1	7
422.204	1	13
422.375	1	35
422.545	1	26
422.716	1	20
422.886	1	28
423.057	1	31
423.228	1	19
423.398	1	33
423.569	1	31
423.740	1	17
423.910	1	22
424.081	1	30
424.251	1	20
424.422	1	30
424.593	1	31
424.763	1	23
424.934	1	28
425.104	1	26
425.275	1	16
425.445	1	29
425.616	1	25
425.787	1	13
425.957	1	48
426.128	1	19
426.298	1	18
426.469	1	34
426.640	1	18
426.810	1	29
426.981	1	20
427.151	1	23
427.322	1	22
427.493	1	20
427.663	1	20
427.834	1	18
428.004	1	30
428.175	1	22
428.345	1	28
428.516	1	23
428.687	1	21
428.857	1	17
429.028	1	13
429.198	1	12
429.369	1	24
429.540	1	30
429.710	1	11
429.881	1	22
430.051	1	25
430.222	1	16
430.392	1	15
430.563	1	23
430.734	1	12
430.904	1	25
431.075	1	24
431.245	1	28
431.416	1	23
431.586	1	18
431.757	1	20
431.927	1	23
432.098	1	13
432.269	1	7
432.439	1	5
432.610	1	9
432.780	1	10
432.951	1	13
433.121	1	21
433.292	1	18
433.462	1	24
433.633	1	7
433.804	1	5
433.974	1	8
434.145	1	14
434.315	1	18
434.486	1	16
434.656	1	6
434.827	1	10
434.997	1	19
435.168	1	21
435.339	1	26
435.509	1	22
435.680	1	3
435.850	1	16
436.021	1	22
436.191	1	6
436.362	1	15
436.532	1	23
436.703	1	16
436.873	1	8
437.044	1	24
437.214	1	5
437.385	1	9
437.556	1	1
437.726	1	6
437.897	1	14
438.067	1	15
438.238	1	5
438.408	1	14
438.579	1	21
438.749	1	19
438.920	1	4
439.090	1	28
439.261	1	11
439.431	1	13
439.602	1	13
439.772	1	21
439.943	1	14
440.113	1	5
440.284	1	18
440.455	1	8
440.625	1	5
440.796	1	14
440.966	1	14
441.137	1	7
441.307	1	10
441.478	1	10
441.648	1	-1
441.819	1	8
441.989	1	16
442.160	1	13
442.330	1	16
442.501	1	-3
442.671	1	11
442.842	1	11
443.012	1	8
443.183	1	5
443.353	1	6
443.524	1	5
443.694	1	20
443.865	1	11
444.035	1	3
444.206	1	19
444.376	1	6
444.547	1	7
444.717	1	23
444.888	1	11
445.058	1	5
445.229	1	2
445.399	1	16
445.570	1	21
445.740	1	21
445.911	1	18
446.081	1	11
446.252	1	-5
446.422	1	1
446.593	1	6
446.763	1	13
446.934	1	13
447.104	1	0
447.275	1	7
447.445	1	7
447.616	1	2
447.786	1	11
447.957	1	14
448.127	1	12
448.298	1	8
448.468	1	12
448.639	1	4
448.809	1	6
448.979	1	16
449.150	1	14
449.320	1	19
449.491	1	14
449.661	1	10
449.832	1	7
450.002	1	2
450.173	1	5
450.343	1	7
450.514	1	8
450.684	1	1
450.855	1	12
451.025	1	2
451.196	1	1
451.366	1	14
451.537	1	4
451.707	1	12
451.878	1	15
452.048	1	0
452.218	1	14
452.389	1	0
452.559	1	3
452.730	1	7
452.900	1	6
453.071	1	6
453.241	1	4
453.412	1	0
453.582	1	17
453.753	1	-1
453.923	1	-3
454.093	1	6
454.264	1	-6
454.434	1	8
454.605	1	9
454.775	1	7
454.946	1	13
455.116	1	1
455.287	1	10
455.457	1	-2
455.628	1	1
455.798	1	-5
455.968	1	18
456.139	1	9
456.309	1	0
456.480	1	3
456.650	1	9
456.821	1	13
456.991	1	13
457.161	1	11
457.332	1	9
457.502	1	12
457.673	1	2
457.843	1	8
458.014	1	1
458.184	1	10
458.355	1	12
458.525	1	10
458.695	1	6
458.866	1	5
459.036	1	8
459.207	1	15
459.377	1	1
459.548	1	-1
459.718	1	-3
459.888	1	5
460.059	1	8
460.229	1	7
460.400	1	17
460.570	1	3
460.740	1	3
460.911	1	18
461.081	1	2
461.252	1	-3
461.422	1	9
461.593	1	4
461.763	1	18
461.933	1	-5
462.104	1	2
462.274	1	8
462.445	1	-3
462.615	1	-3
462.785	1	1
462.956	1	-2
463.126	1	4
463.297	1	3
463.467	1	3
463.638	1	5
463.808	1	12
463.978	1	4
464.149	1	0
464.319	1	13
464.490	1	5
464.660	1	3
464.830	1	5
465.001	1	18
465.171	1	13
465.342	1	6
465.512	1	9
465.682	1	-2
465.853	1	3
466.023	1	3
466.194	1	2
466.364	1	12
466.534	1	10
466.705	1	10
466.875	1	4
467.045	1	17
467.216	1	1
467.386	1	7
467.557	1	9
467.727	1	-1
467.897	1	14
468.068	1	9
468.238	1	-1
468.409	1	8
468.579	1	15
468.749	1	6
468.920	1	6
469.090	1	7
469.260	1	5
469.431	1	-2
469.601	1	6
469.772	1	0
469.942	1	-1
470.112	1	4
470.283	1	20
470.453	1	0
470.623	1	2
470.794	1	6
470.964	1	5
471.135	1	-4
471.305	1	-3
471.475	1	-1
471.646	1	14
471.816	1	3
471.986	1	6
472.157	1	7
472.327	1	5
472.497	1	0
472.668	1	2
472.838	1	6
473.009	1	4
473.179	1	2
473.349	1	13
473.520	1	8
473.690	1	6
473.860	1	9
474.031	1	7
474.201	1	1
474.371	1	9
474.542	1	1
474.712	1	6
474.882	1	10
475.053	1	-2
475.223	1	11
475.394	1	10
475.564	1	9
475.734	1	0
475.905	1	10
476.075	1	16
476.245	1	-7
476.416	1	3
476.586	1	5
476.756	1	7
476.927	1	13
477.097	1	6
477.267	1	9
477.438	1	8
477.608	1	6
477.778	1	14
477.949	1	-3
478.119	1	7
478.289	1	1
478.460	1	-1
478.630	1	13
478.800	1	-2
478.971	1	13
479.141	1	18
479.311	1	11
479.482	1	-4
479.652	1	15
479.822	1	-5
479.993	1	8
480.163	1	-1
480.333	1	8
480.504	1	8
480.674	1	12
480.844	1	5
481.015	1	1
481.185	1	9
481.355	1	10
481.525	1	2
481.696	1	5
481.866	1	7
482.036	1	5
482.207	1	10
482.377	1	3
482.547	1	5
482.718	1	6
482.888	1	-1
483.058	1	2
483.229	1	13
483.399	1	14
483.569	1	14
483.740	1	-9
483.910	1	18
484.080	1	0
484.250	1	15
484.421	1	4
484.591	1	20
484.761	1	8
484.932	1	14
485.102	1	13
485.272	1	17
485.443	1	12
485.613	1	-7
485.783	1	15
485.953	1	11
486.124	1	5
486.294	1	15
486.464	1	13
486.635	1	21
486.805	1	18
486.975	1	0
487.146	1	10
487.316	1	10
487.486	1	10
487.656	1	5
487.827	1	14
487.997	1	17
488.167	1	17
488.338	1	21
488.508	1	16
488.678	1	22
488.848	1	7
489.019	1	4
489.189	1	3
489.359	1	4
489.529	1	18
489.700	1	15
489.870	1	15
490.040	1	11
490.211	1	21
490.381	1	6
490.551	1	7
490.721	1	18
490.892	1	14
491.062	1	19
491.232	1	12
491.402	1	5
491.573	1	16
491.743	1	10
491.913	1	16
492.084	1	27
492.254	1	18
492.424	1	15
492.594	1	11
492.765	1	10
492.935	1	11
493.105	1	20
493.275	1	27
493.446	1	11
493.616	1	17
493.786	1	15
493.956	1	16
494.127	1	23
494.297	1	12
494.467	1	18
494.637	1	16
494.808	1	24
494.978	1	15
495.148	1	14
495.318	1	18
495.489	1	26
495.659	1	23
495.829	1	16
495.999	1	23
496.170	1	11
496.340	1	17
496.510	1	27
496.680	1	29
496.851	1	21
497.021	1	23
497.191	1	15
497.361	1	15
497.532	1	13
497.702	1	15
497.872	1	15
498.042	1	29
498.213	1	29
498.383	1	15
498.553	1	23
498.723	1	24
498.894	1	26
499.064	1	30
499.234	1	5
499.404	1	20
499.574	1	14
499.745	1	28
499.915	1	26
500.085	1	20
500.255	1	30
500.426	1	22
500.596	1	15
500.766	1	23
500.936	1	21
501.106	1	16
501.277	1	16
501.447	1	25
501.617	1	34
501.787	1	20
501.958	1	17
502.128	1	25
502.298	1	35
502.468	1	43
502.638	1	32
502.809	1	34
502.979	1	32
503.149	1	37
503.319	1	39
503.489	1	37
503.660	1	27
503.830	1	35
504.000	1	20
504.170	1	43
504.340	1	35
504.511	1	40
504.681	1	38
504.851	1	41
505.021	1	37
505.192	1	43
505.362	1	40
505.532	1	41
505.702	1	40
505.872	1	32
506.043	1	41
506.213	1	45
506.383	1	42
506.553	1	41
506.723	1	43
506.893	1	47
507.064	1	52
507.234	1	43
507.404	1	38
507.574	1	42
507.744	1	29
507.915	1	50
508.085	1	50
508.255	1	43
508.425	1	52
508.595	1	36
508.766	1	29
508.936	1	49
509.106	1	32
509.276	1	47
509.446	1	43
509.616	1	47
509.787	1	38
509.957	1	40
510.127	1	48
510.297	1	37
510.467	1	48
510.638	1	45
510.808	1	43
510.978	1	31
511.148	1	59
511.318	1	56
511.488	1	46
511.659	1	43
511.829	1	46
511.999	1	58
512.169	1	52
512.339	1	45
512.509	1	53
512.680	1	50
512.850	1	44
513.020	1	51
513.190	1	55
513.360	1	57
513.530	1	40
513.700	1	56
513.871	1	60
514.041	1	53
514.211	1	46
514.381	1	51
514.551	1	62
514.721	1	52
514.892	1	63
515.062	1	64
515.232	1	68
515.402	1	59
515.572	1	57
515.742	1	70
515.912	1	70
516.083	1	54
516.253	1	60
516.423	1	68
516.593	1	47
516.763	1	65
516.933	1	59
517.104	1	67
517.274	1	63
517.444	1	62
517.614	1	55
517.784	1	55
517.954	1	48
518.124	1	63
518.294	1	72
518.465	1	64
518.635	1	51
518.805	1	61
518.975	1	66
519.145	1	74
519.315	1	54
519.485	1	52
519.656	1	61
519.826	1	70
519.996	1	66
520.166	1	72
520.336	1	67
520.506	1	64
520.676	1	62
520.846	1	53
521.017	1	51
521.187	1	58
521.357	1	62
521.527	1	58
521.697	1	62
521.867	1	76
522.037	1	53
522.207	1	63
522.377	1	72
522.548	1	50
522.718	1	64
522.888	1	65
523.058	1	63
523.228	1	71
523.398	1	67
523.568	1	69
523.738	1	66
523.909	1	70
524.079	1	68
524.249	1	67
524.419	1	61
524.589	1	67
524.759	1	62
524.929	1	70
525.099	1	66
525.269	1	62
525.439	1	73
525.610	1	71
525.780	1	72
525.950	1	56
526.120	1	57
526.290	1	56
526.460	1	73
526.630	1	72
526.800	1	72
526.970	1	68
527.140	1	64
527.311	1	66
527.481	1	78
527.651	1	80
527.821	1	63
527.991	1	60
528.161	1	70
528.331	1	74
528.501	1	58
528.671	1	73
528.841	1	82
529.011	1	74
529.181	1	76
529.352	1	74
529.522	1	71
529.692	1	69
529.862	1	74
530.032	1	64
530.202	1	79
530.372	1	66
530.542	1	89
530.712	1	81
530.882	1	72
531.052	1	85
531.222	1	73
531.392	1	64
531.563	1	68
531.733	1	69
531.903	1	87
532.073	1	72
532.243	1	82
532.413	1	75
532.583	1	77
532.753	1	67
532.923	1	72
533.093	1	78
533.263	1	67
533.433	1	82
533.603	1	77
533.773	1	76
533.943	1	60
534.113	1	83
534.284	1	85
534.454	1	87
534.624	1	74
534.794	1	73
534.964	1	63
535.134	1	68
535.304	1	83
535.474	1	71
535.644	1	72
535.814	1	73
535.984	1	77
536.154	1	75
536.324	1	65
536.494	1	79
536.664	1	74
536.834	1	74
537.004	1	80
537.174	1	75
537.344	1	79
537.514	1	71
537.685	1	67
537.855	1	70
538.025	1	69
538.195	1	78
538.365	1	75
538.535	1	71
538.705	1	64
538.875	1	70
539.045	1	77
539.215	1	64
539.385	1	67
539.555	1	65
539.725	1	71
539.895	1	73
540.065	1	71
540.235	1	55
540.405	1	68
540.575	1	68
540.745	1	68
540.915	1	70
541.085	1	65
541.255	1	62
541.425	1	57
541.595	1	61
541.765	1	57
541.935	1	72
542.105	1	70
542.275	1	60
542.445	1	72
542.615	1	58
542.785	1	69
542.955	1	62
543.125	1	58
543.295	1	66
543.465	1	74
543.635	1	65
543.805	1	70
543.975	1	59
544.145	1	68
544.315	1	63
544.485	1	58
544.655	1	65
544.825	1	66
544.995	1	66
545.165	1	64
545.335	1	62
545.505	1	51
545.675	1	72
545.845	1	55
546.015	1	67
546.185	1	55
546.355	1	61
546.525	1	64
546.695	1	56
546.865	1	57
547.035	1	69
547.205	1	50
547.375	1	60
547.545	1	61
547.715	1	51
547.885	1	58
548.055	1	65
548.225	1	59
548.395	1	73
548.565	1	63
548.735	1	79
548.905	1	55
549.075	1	48
549.245	1	58
549.415	1	71
549.585	1	54
549.755	1	53
549.925	1	67
550.095	1	60
550.265	1	53
550.435	1	70
550.605	1	67
550.775	1	42
550.945	1	72
551.115	1	48
551.285	1	75
551.455	1	60
551.625	1	49
551.795	1	49
551.965	1	57
552.135	1	60
552.305	1	63
552.475	1	62
552.645	1	67
552.815	1	60
552.985	1	58
553.155	1	62
553.325	1	56
553.495	1	46
553.665	1	64
553.835	1	52
554.004	1	60
554.174	1	44
554.344	1	48
554.514	1	60
554.684	1	61
554.854	1	48
555.024	1	40
555.194	1	50
555.364	1	62
555.534	1	57
555.704	1	53
555.874	1	42
556.044	1	52
556.214	1	46
556.384	1	56
556.554	1	44
556.724	1	41
556.894	1	65
557.064	1	51
557.234	1	60
557.404	1	54
557.573	1	51
557.743	1	49
557.913	1	42
558.083	1	45
558.253	1	41
558.423	1	40
558.593	1	51
558.763	1	42
558.933	1	45
559.103	1	40
559.273	1	38
559.443	1	49
559.613	1	43
559.783	1	51
559.953	1	36
560.122	1	38
560.292	1	43
560.462	1	51
560.632	1	47
560.802	1	44
560.972	1	53
561.142	1	51
561.312	1	37
561.482	1	32
561.652	1	38
561.822	1	37
561.992	1	47
562.162	1	42
562.331	1	45
562.501	1	36
562.671	1	46
562.841	1	35
563.011	1	50
563.181	1	45
563.351	1	33
563.521	1	35
563.691	1	34
563.861	1	41
564.031	1	48
564.201	1	41
564.370	1	48
564.540	1	48
564.710	1	30
564.880	1	34
565.050	1	47
565.220	1	42
565.390	1	32
565.560	1	45
565.730	1	31
565.900	1	34
566.069	1	41
566.239	1	34
566.409	1	37
566.579	1	41
566.749	1	41
566.919	1	41
567.089	1	37
567.259	1	41
567.429	1	41
567.599	1	32
567.768	1	40
567.938	1	30
568.108	1	31
568.278	1	30
568.448	1	35
568.618	1	38
568.788	1	23
568.958	1	35
569.128	1	36
569.297	1	40
569.467	1	35
569.637	1	32
569.807	1	36
569.977	1	40
570.147	1	39
570.317	1	44
570.487	1	41
570.656	1	31
570.826	1	47
570.996	1	27
571.166	1	24
571.336	1	29
571.506	1	23
571.676	1	40
571.846	1	38
572.015	1	27
572.185	1	28
572.355	1	47
572.525	1	26
572.695	1	34
572.865	1	30
573.035	1	32
573.205	1	37
573.374	1	17
573.544	1	38
573.714	1	30
573.884	1	28
574.054	1	39
574.224	1	20
574.394	1	27
574.563	1	33
574.733	1	27
574.903	1	30
575.073	1	31
575.243	1	14
575.413	1	32
575.583	1	39
575.752	1	27
575.922	1	38
576.092	1	33
576.262	1	33
576.432	1	23
576.602	1	18
576.772	1	28
576.941	1	22
577.111	1	24
577.281	1	20
577.451	1	23
577.621	1	32
577.791	1	24
577.960	1	10
578.130	1	23
578.300	1	17
578.470	1	19
578.640	1	7
578.810	1	32
578.979	1	21
579.149	1	23
579.319	1	35
579.489	1	15
579.659	1	20
579.829	1	25
579.998	1	27
580.168	1	26
580.338	1	5
580.508	1	23
580.678	1	24
580.848	1	27
581.017	1	16
581.187	1	28
581.357	1	18
581.527	1	18
581.697	1	5
581.867	1	17
582.036	1	30
582.206	1	9
582.376	1	25
582.546	1	29
582.716	1	32
582.885	1	26
583.055	1	15
583.225	1	23
583.395	1	21
583.565	1	31
583.735	1	19
583.904	1	18
584.074	1	15
584.244	1	30
584.414	1	21
584.584	1	29
584.753	1	25
584.923	1	14
585.093	1	14
585.263	1	14
585.433	1	21
585.602	1	19
585.772	1	17
585.942	1	24
586.112	1	26
586.282	1	22
586.451	1	27
586.621	1	18
586.791	1	14
586.961	1	12
587.131	1	8
587.300	1	15
587.470	1	21
587.640	1	15
587.810	1	18
587.980	1	17
588.149	1	24
588.319	1	16
588.489	1	23
588.659	1	17
588.829	1	23
588.998	1	5
589.168	1	19
589.338	1	26
589.508	1	18
589.677	1	28
589.847	1	17
590.017	1	2
590.187	1	10
590.357	1	9
590.526	1	17
590.696	1	13
590.866	1	18
591.036	1	23
591.205	1	26
591.375	1	8
591.545	1	12
591.715	1	5
591.885	1	17
592.054	1	14
592.224	1	17
592.394	1	20
592.564	1	10
592.733	1	13
592.903	1	14
593.073	1	32
593.243	1	6
593.412	1	13
593.582	1	16
593.752	1	7
593.922	1	13
594.091	1	12
594.261	1	17
594.431	1	9
594.601	1	4
594.771	1	24
594.940	1	2
595.110	1	17
595.280	1	7
595.450	1	27
595.619	1	15
595.789	1	14
595.959	1	16
596.129	1	13
596.298	1	15
596.468	1	10
596.638	1	11
596.808	1	9
596.977	1	8
597.147	1	17
597.317	1	11
597.487	1	18
597.656	1	14
597.826	1	8
597.996	1	14
598.166	1	6
598.335	1	14
598.505	1	-1
598.675	1	10
598.844	1	8
599.014	1	6
599.184	1	9
599.354	1	4
599.523	1	3
599.693	1	18
599.863	1	21
600.033	1	12
600.202	1	12
600.372	1	16
600.542	1	11
600.712	1	24
600.881	1	20
601.051	1	30
601.221	1	11
601.390	1	3
601.560	1	3
601.730	1	11
601.900	1	5
602.069	1	4
602.239	1	10
602.409	1	17
602.578	1	13
602.748	1	9
602.918	1	6
603.088	1	19
603.257	1	11
603.427	1	-2
603.597	1	24
603.767	1	1
603.936	1	17
604.106	1	7
604.276	1	9
604.445	1	13
604.615	1	6
604.785	1	13
604.954	1	12
605.124	1	2
605.294	1	9
605.464	1	7
605.633	1	11
605.803	1	19
605.973	1	9
606.142	1	6
606.312	1	10
606.482	1	8
606.652	1	1
606.821	1	18
606.991	1	3
607.161	1	11
607.330	1	18
607.500	1	18
607.670	1	10
607.839	1	3
608.009	1	5
608.179	1	19
608.348	1	10
608.518	1	11
608.688	1	11
608.858	1	5
609.027	1	20
609.197	1	2
609.367	1	4
609.536	1	7
609.706	1	13
609.876	1	11
610.045	1	14
610.215	1	3
610.385	1	7
610.554	1	9
610.724	1	12
610.894	1	15
611.063	1	22
611.233	1	6
611.403	1	13
611.572	1	13
611.742	1	1
611.912	1	10
612.081	1	-6
612.251	1	14
612.421	1	26
612.590	1	15
612.760	1	6
612.930	1	7
613.099	1	2
613.269	1	16
613.439	1	2
613.608	1	17
613.778	1	8
613.948	1	14
614.117	1	9
614.287	1	5
614.457	1	17
614.626	1	14
614.796	1	17
614.966	1	12
615.135	1	0
615.305	1	9
615.475	1	8
615.644	1	11
615.814	1	17
615.984	1	15
616.153	1	11
616.323	1	4
616.493	1	4
616.662	1	2
616.832	1	12
617.002	1	3
617.171	1	4
617.341	1	7
617.511	1	14
617.680	1	15
617.850	1	2
618.019	1	8
618.189	1	5
618.359	1	12
618.528	1	1
618.698	1	9
618.868	1	9
619.037	1	21
619.207	1	4
619.377	1	-5
619.546	1	16
619.716	1	-1
619.885	1	3
620.055	1	15
620.225	1	13
620.394	1	6
620.564	1	-1
620.734	1	15
620.903	1	9
621.073	1	5
621.242	1	4
621.412	1	9
621.582	1	6
621.751	1	2
621.921	1	16
622.091	1	7
622.260	1	3
622.430	1	13
622.599	1	17
622.769	1	9
622.939	1	-3
623.108	1	4
623.278	1	-1
623.448	1	2
623.617	1	14
623.787	1	15
623.956	1	14
624.126	1	9
624.296	1	11
624.465	1	6
624.635	1	6
624.804	1	1
624.974	1	1
625.144	1	4
625.313	1	6
625.483	1	17
625.652	1	16
625.822	1	10
625.992	1	4
626.161	1	4
626.331	1	18
626.501	1	11
626.670	1	19
626.840	1	5
627.009	1	-2
627.179	1	13
627.348	1	1
627.518	1	13
627.688	1	0
627.857	1	20
628.027	1	1
628.196	1	14
628.366	1	13
628.536	1	4
628.705	1	-1
628.875	1	12
629.044	1	15
629.214	1	9
629.384	1	-1
629.553	1	12
629.723	1	6
629.892	1	5
630.062	1	8
630.232	1	14
630.401	1	10
630.571	1	5
630.740	1	17
630.910	1	5
631.079	1	21
631.249	1	7
631.419	1	8
631.588	1	-2
631.758	1	4
631.927	1	8
632.097	1	11
632.266	1	0
632.436	1	-3
632.606	1	17
632.775	1	3
632.945	1	4
633.114	1	16
633.284	1	-3
633.453	1	6
633.623	1	3
633.793	1	7
633.962	1	12
634.132	1	13
634.301	1	5
634.471	1	-2
634.640	1	3
634.810	1	7
634.979	1	13
635.149	1	4
635.319	1	9
635.488	1	3
635.658	1	-6
635.827	1	7
635.997	1	2
636.166	1	15
636.336	1	12
636.505	1	3
636.675	1	3
636.845	1	13
637.014	1	1
637.184	1	-6
637.353	1	0
637.523	1	10
637.692	1	6
637.862	1	-2
638.031	1	21
638.201	1	11
638.370	1	3
638.540	1	1
638.710	1	4
638.879	1	10
639.049	1	11
639.218	1	6
639.388	1	5
639.557	1	15
639.727	1	12
639.896	1	2
640.066	1	15
640.235	1	16
640.405	1	2
640.574	1	8
640.744	1	3
640.914	1	4
641.083	1	-1
641.253	1	1
641.422	1	-2
641.592	1	-3
641.761	1	5
641.931	1	13
642.100	1	5
642.270	1	5
642.439	1	7
642.609	1	-3
642.778	1	10
642.948	1	6
643.117	1	3
643.287	1	14
643.456	1	16
643.626	1	15
643.795	1	7
643.965	1	9
644.134	1	4
644.304	1	3
644.473	1	1
644.643	1	0
644.812	1	15
644.982	1	14
645.151	1	7
645.321	1	11
645.490	1	13
645.660	1	-4
645.829	1	3
645.999	1	-5
646.168	1	10
646.338	1	9
646.507	1	8
646.677	1	7
646.846	1	21
647.016	1	5
647.185	1	12
647.355	1	2
647.524	1	11
647.694	1	4
647.863	1	-4
648.033	1	-3
648.202	1	5
648.372	1	10
648.541	1	7
648.711	1	13
648.880	1	5
649.050	1	7
649.219	1	7
649.389	1	9
649.558	1	7
649.728	1	10
649.897	1	6
650.067	1	10
650.236	1	8
650.406	1	-1
650.575	1	-1
650.745	1	1
650.914	1	-9
651.084	1	-2
651.253	1	5
651.423	1	9
651.592	1	4
651.762	1	4
651.931	1	9
652.101	1	2
652.270	1	7
652.440	1	12
652.609	1	8
652.778	1	6
652.948	1	4
653.117	1	2
653.287	1	6
653.456	1	14
653.626	1	9
653.795	1	6
653.965	1	16
654.134	1	10
654.304	1	9
654.473	1	2
654.643	1	23
654.812	1	5
654.982	1	3
655.151	1	-5
655.320	1	1
655.490	1	15
655.659	1	7
655.829	1	-2
655.998	1	7
656.168	1	4
656.337	1	3
656.507	1	17
656.676	1	2
656.846	1	-3
657.015	1	10
657.184	1	4
657.354	1	11
657.523	1	5
657.693	1	-2
657.862	1	3
658.032	1	16
658.201	1	-3
658.371	1	-6
658.540	1	3
658.709	1	7
658.879	1	1
659.048	1	7
659.218	1	5
659.387	1	5
659.557	1	3
659.726	1	4
659.895	1	7
660.065	1	3
660.234	1	12
660.404	1	6
660.573	1	-5
660.743	1	1
660.912	1	-3
661.081	1	7
661.251	1	11
661.420	1	-1
661.590	1	6
661.759	1	3
661.929	1	7
662.098	1	1
662.267	1	16
662.437	1	8
662.606	1	4
662.776	1	6
662.945	1	9
663.115	1	1
663.284	1	1
663.453	1	8
663.623	1	10
663.792	1	4
663.962	1	3
664.131	1	0
664.300	1	3
664.470	1	0
664.639	1	2
664.809	1	16
664.978	1	4
665.148	1	1
665.317	1	7
665.486	1	5
665.656	1	9
665.825	1	13
665.995	1	9
666.164	1	12
666.333	1	17
666.503	1	5
666.672	1	-2
666.842	1	0
667.011	1	13
667.180	1	1
667.350	1	7
667.519	1	4
667.689	1	2
667.858	1	10
668.027	1	10
668.197	1	15
668.366	1	4
668.536	1	7
668.705	1	3
668.874	1	5
669.044	1	3
669.213	1	14
669.382	1	-1
669.552	1	15
669.721	1	0
669.891	1	11
670.060	1	8
670.229	1	4
670.399	1	10
670.568	1	8
670.738	1	-2
670.907	1	0
671.076	1	11
671.246	1	7
671.415	1	2
671.584	1	-2
671.754	1	2
671.923	1	-7
672.093	1	12
672.262	1	0
672.431	1	7
672.601	1	6
672.770	1	3
672.939	1	-6
673.109	1	6
673.278	1	17
673.448	1	14
673.617	1	2
673.786	1	7
