325.333	1	-2
325.504	1	2
325.675	1	0
325.846	1	-12
326.017	1	-4
326.188	1	13
326.359	1	5
326.531	1	-10
326.702	1	0
326.873	1	-5
327.044	1	-1
327.215	1	-8
327.386	1	-6
327.557	1	-6
327.728	1	2
327.899	1	2
328.070	1	7
328.241	1	-4
328.412	1	6
328.583	1	-5
328.754	1	-7
328.926	1	-4
329.097	1	3
329.268	1	-3
329.439	1	-3
329.610	1	-10
329.781	1	0
329.952	1	13
330.123	1	4
330.294	1	-2
330.465	1	3
330.636	1	-2
330.807	1	3
330.978	1	0
331.149	1	7
331.320	1	6
331.492	1	-8
331.663	1	-8
331.834	1	4
332.005	1	5
332.176	1	-7
332.347	1	-1
332.518	1	2
332.689	1	6
332.860	1	-6
333.031	1	-2
333.202	1	-4
333.373	1	-1
333.544	1	0
333.715	1	3
333.886	1	-5
334.057	1	-15
334.228	1	-7
334.399	1	4
334.570	1	-13
334.741	1	-9
334.912	1	-7
335.084	1	-15
335.255	1	-6
335.426	1	-2
335.597	1	-10
335.768	1	9
335.939	1	-3
336.110	1	-8
336.281	1	-5
336.452	1	-7
336.623	1	5
336.794	1	-7
336.965	1	1
337.136	1	-6
337.307	1	10
337.478	1	2
337.649	1	3
337.820	1	-4
337.991	1	10
338.162	1	2
338.333	1	-5
338.504	1	-3
338.675	1	6
338.846	1	5
339.017	1	-5
339.188	1	3
339.359	1	-5
339.530	1	4
339.701	1	0
339.872	1	2
340.043	1	-5
340.214	1	-14
340.385	1	10
340.556	1	-3
340.727	1	-2
340.898	1	-4
341.069	1	-9
341.240	1	5
341.411	1	-2
341.582	1	-8
341.753	1	4
341.924	1	-13
342.095	1	1
342.266	1	3
342.437	1	4
342.608	1	-5
342.779	1	-10
342.950	1	3
343.121	1	6
343.292	1	-2
343.463	1	-3
343.634	1	-5
343.805	1	8
343.976	1	10
344.147	1	3
344.318	1	6
344.489	1	-16
344.660	1	5
344.831	1	-1
345.002	1	-2
345.173	1	-3
345.344	1	-4
345.515	1	-8
345.686	1	0
345.857	1	-1
346.028	1	-6
346.199	1	4
346.370	1	-8
346.541	1	-2
346.712	1	1
346.883	1	-5
347.054	1	-1
347.225	1	-8
347.396	1	-2
347.567	1	-6
347.738	1	3
347.909	1	-3
348.080	1	-7
348.251	1	5
348.422	1	-1
348.593	1	-2
348.764	1	0
348.935	1	17
349.106	1	11
349.277	1	-7
349.448	1	-5
349.619	1	-1
349.790	1	3
349.961	1	10
350.132	1	-3
350.303	1	-10
350.474	1	1
350.645	1	-3
350.816	1	0
350.987	1	-2
351.157	1	9
351.328	1	-1
351.499	1	-2
351.670	1	5
351.841	1	0
352.012	1	-11
352.183	1	-3
352.354	1	2
352.525	1	11
352.696	1	-14
352.867	1	-4
353.038	1	6
353.209	1	-1
353.380	1	-2
353.551	1	-1
353.722	1	6
353.893	1	2
354.064	1	16
354.235	1	0
354.406	1	-12
354.576	1	2
354.747	1	-4
354.918	1	-3
355.089	1	-4
355.260	1	2
355.431	1	6
355.602	1	4
355.773	1	-15
355.944	1	4
356.115	1	-1
356.286	1	0
356.457	1	-13
356.628	1	2
356.799	1	3
356.970	1	-8
357.141	1	-8
357.311	1	3
357.482	1	4
357.653	1	-3
357.824	1	-2
357.995	1	5
358.166	1	5
358.337	1	4
358.508	1	-4
358.679	1	14
358.850	1	-7
359.021	1	-11
359.192	1	1
359.363	1	-4
359.533	1	-7
359.704	1	5
359.875	1	0
360.046	1	-5
360.217	1	3
360.388	1	4
360.559	1	-2
360.730	1	-1
360.901	1	1
361.072	1	-11
361.243	1	2
361.414	1	7
361.584	1	5
361.755	1	6
361.926	1	8
362.097	1	-6
362.268	1	6
362.439	1	1
362.610	1	-6
362.781	1	6
362.952	1	12
363.123	1	6
363.293	1	1
363.464	1	13
363.635	1	6
363.806	1	4
363.977	1	9
364.148	1	2
364.319	1	1
364.490	1	-5
364.661	1	4
364.832	1	-11
365.002	1	10
365.173	1	-1
365.344	1	-3
365.515	1	5
365.686	1	3
365.857	1	3
366.028	1	-1
366.199	1	-11
366.370	1	4
366.540	1	9
366.711	1	7
366.882	1	2
367.053	1	13
367.224	1	6
367.395	1	3
367.566	1	4
367.737	1	-2
367.908	1	6
368.078	1	10
368.249	1	-6
368.420	1	-1
368.591	1	19
368.762	1	-12
368.933	1	20
369.104	1	14
369.274	1	2
369.445	1	3
369.616	1	-4
369.787	1	6
369.958	1	3
370.129	1	11
370.300	1	5
370.471	1	5
370.641	1	-2
370.812	1	-7
370.983	1	3
371.154	1	6
371.325	1	-9
371.496	1	-1
371.667	1	-7
371.837	1	-7
372.008	1	1
372.179	1	0
372.350	1	4
372.521	1	-7
372.692	1	-2
372.863	1	2
373.033	1	4
373.204	1	8
373.375	1	-4
373.546	1	1
373.717	1	2
373.888	1	-10
374.059	1	2
374.229	1	-6
374.400	1	-9
374.571	1	8
374.742	1	9
374.913	1	-7
375.084	1	-9
375.254	1	2
375.425	1	1
375.596	1	-6
375.767	1	-2
375.938	1	0
376.109	1	-10
376.279	1	-7
376.450	1	0
376.621	1	14
376.792	1	-4
376.963	1	1
377.134	1	-10
377.304	1	0
377.475	1	7
377.646	1	3
377.817	1	2
377.988	1	1
378.159	1	4
378.329	1	-7
378.500	1	-12
378.671	1	1
378.842	1	-12
379.013	1	-2
379.184	1	3
379.354	1	-5
379.525	1	11
379.696	1	-6
379.867	1	6
380.038	1	3
380.209	1	5
380.379	1	-13
380.550	1	0
380.721	1	16
380.892	1	-7
381.063	1	8
381.233	1	8
381.404	1	2
381.575	1	16
381.746	1	-1
381.917	1	-2
382.087	1	0
382.258	1	9
382.429	1	1
382.600	1	1
382.771	1	2
382.941	1	0
383.112	1	1
383.283	1	4
383.454	1	6
383.625	1	4
383.795	1	5
383.966	1	1
384.137	1	7
384.308	1	9
384.479	1	22
384.649	1	9
384.820	1	3
384.991	1	10
385.162	1	15
385.333	1	9
385.503	1	6
385.674	1	-1
385.845	1	11
386.016	1	5
386.187	1	12
386.357	1	5
386.528	1	16
386.699	1	12
386.870	1	12
387.041	1	5
387.211	1	7
387.382	1	2
387.553	1	10
387.724	1	2
387.894	1	12
388.065	1	13
388.236	1	18
388.407	1	5
388.578	1	7
388.748	1	14
388.919	1	7
389.090	1	12
389.261	1	-9
389.431	1	8
389.602	1	10
389.773	1	10
389.944	1	9
390.114	1	9
390.285	1	4
390.456	1	10
390.627	1	-5
390.798	1	15
390.968	1	-1
391.139	1	-7
391.310	1	12
391.481	1	7
391.651	1	8
391.822	1	14
391.993	1	9
392.164	1	13
392.334	1	5
392.505	1	3
392.676	1	12
392.847	1	9
393.017	1	-6
393.188	1	7
393.359	1	17
393.530	1	1
393.700	1	18
393.871	1	6
394.042	1	14
394.213	1	10
394.383	1	10
394.554	1	10
394.725	1	3
394.896	1	-6
395.066	1	6
395.237	1	18
395.408	1	19
395.579	1	10
395.749	1	13
395.920	1	13
396.091	1	11
396.262	1	8
396.432	1	2
396.603	1	2
396.774	1	-4
396.945	1	7
397.115	1	13
397.286	1	23
397.457	1	0
397.627	1	-1
397.798	1	-1
397.969	1	4
398.140	1	6
398.310	1	15
398.481	1	-4
398.652	1	13
398.823	1	21
398.993	1	3
399.164	1	16
399.335	1	6
399.505	1	7
399.676	1	10
399.847	1	2
400.018	1	15
400.188	1	9
400.359	1	5
400.530	1	1
400.700	1	8
400.871	1	-4
401.042	1	10
401.213	1	4
401.383	1	11
401.554	1	6
401.725	1	8
401.895	1	15
402.066	1	1
402.237	1	12
402.408	1	8
402.578	1	13
402.749	1	-6
402.920	1	-9
403.090	1	10
403.261	1	5
403.432	1	2
403.603	1	1
403.773	1	6
403.944	1	-1
404.115	1	0
404.285	1	-4
404.456	1	3
404.627	1	-1
404.797	1	14
404.968	1	4
405.139	1	-2
405.310	1	5
405.480	1	11
405.651	1	2
405.822	1	16
405.992	1	0
406.163	1	9
406.334	1	8
406.504	1	10
406.675	1	15
406.846	1	5
407.016	1	-2
407.187	1	-1
407.358	1	3
407.528	1	8
407.699	1	21
407.870	1	2
408.041	1	-8
408.211	1	-9
408.382	1	12
408.553	1	11
408.723	1	9
408.894	1	-7
409.065	1	19
409.235	1	-5
409.406	1	7
409.577	1	4
409.747	1	1
409.918	1	-2
410.089	1	3
410.259	1	1
410.430	1	13
410.601	1	-2
410.771	1	-3
410.942	1	4
411.113	1	12
411.283	1	5
411.454	1	3
411.625	1	11
411.795	1	7
411.966	1	-9
412.137	1	2
412.307	1	-3
412.478	1	14
412.649	1	2
412.819	1	15
412.990	1	10
413.161	1	4
413.331	1	-2
413.502	1	6
413.672	1	5
413.843	1	-3
414.014	1	11
414.184	1	-4
414.355	1	-2
414.526	1	-3
414.696	1	-2
414.867	1	3
415.038	1	4
415.208	1	3
415.379	1	15
415.550	1	5
415.720	1	6
415.891	1	3
416.062	1	4
416.232	1	7
416.403	1	10
416.573	1	-1
416.744	1	-4
416.915	1	3
417.085	1	-9
417.256	1	3
417.427	1	1
417.597	1	-3
417.768	1	3
417.939	1	-1
418.109	1	12
418.280	1	-2
418.450	1	-1
418.621	1	-8
418.792	1	1
418.962	1	-4
419.133	1	-1
419.304	1	-3
419.474	1	2
419.645	1	14
419.815	1	-12
419.986	1	9
420.157	1	8
420.327	1	0
420.498	1	6
420.669	1	10
420.839	1	1
421.010	1	0
421.180	1	7
421.351	1	4
421.522	1	9
421.692	1	-3
421.863	1	6
422.033	1	1
422.204	1	-20
422.375	1	-1
422.545	1	13
422.716	1	-7
422.886	1	2
423.057	1	-8
423.228	1	-6
423.398	1	3
423.569	1	-3
423.740	1	-12
423.910	1	-1
424.081	1	0
424.251	1	-6
424.422	1	7
424.593	1	10
424.763	1	9
424.934	1	3
425.104	1	8
425.275	1	-7
425.445	1	-13
425.616	1	1
425.787	1	-3
425.957	1	18
426.128	1	4
426.298	1	1
426.469	1	3
426.640	1	2
426.810	1	8
426.981	1	-6
427.151	1	6
427.322	1	-1
427.493	1	2
427.663	1	2
427.834	1	-7
428.004	1	9
428.175	1	-4
428.345	1	5
428.516	1	2
428.687	1	0
428.857	1	-9
429.028	1	-1
429.198	1	-6
429.369	1	9
429.540	1	3
429.710	1	-4
429.881	1	10
430.051	1	10
430.222	1	0
430.392	1	-1
430.563	1	4
430.734	1	7
430.904	1	-5
431.075	1	5
431.245	1	2
431.416	1	6
431.586	1	-1
431.757	1	-1
431.927	1	-1
432.098	1	3
432.269	1	0
432.439	1	-7
432.610	1	-3
432.780	1	-1
432.951	1	-4
433.121	1	3
433.292	1	3
433.462	1	3
433.633	1	1
433.804	1	-2
433.974	1	-4
434.145	1	-1
434.315	1	-1
434.486	1	7
434.656	1	1
434.827	1	-3
434.997	1	6
435.168	1	-5
435.339	1	7
435.509	1	1
435.680	1	3
435.850	1	2
436.021	1	4
436.191	1	-1
436.362	1	2
436.532	1	4
436.703	1	6
436.873	1	-3
437.044	1	9
437.214	1	0
437.385	1	11
437.556	1	-4
437.726	1	1
437.897	1	0
438.067	1	-1
438.238	1	-9
438.408	1	1
438.579	1	5
438.749	1	3
438.920	1	8
439.090	1	10
439.261	1	1
439.431	1	-11
439.602	1	-1
439.772	1	1
439.943	1	0
440.113	1	2
440.284	1	8
440.455	1	0
440.625	1	-2
440.796	1	14
440.966	1	9
441.137	1	-17
441.307	1	-1
441.478	1	5
441.648	1	-8
441.819	1	1
441.989	1	-1
442.160	1	2
442.330	1	5
442.501	1	-12
442.671	1	-4
442.842	1	7
443.012	1	0
443.183	1	-8
443.353	1	7
443.524	1	-2
443.694	1	-3
443.865	1	-1
444.035	1	6
444.206	1	6
444.376	1	6
444.547	1	-5
444.717	1	10
444.888	1	-7
445.058	1	9
445.229	1	0
445.399	1	6
445.570	1	4
445.740	1	5
445.911	1	0
446.081	1	4
446.252	1	-14
446.422	1	0
446.593	1	-10
446.763	1	8
446.934	1	3
447.104	1	-10
447.275	1	-7
447.445	1	1
447.616	1	-5
447.786	1	5
447.957	1	-6
448.127	1	9
448.298	1	5
448.468	1	-1
448.639	1	3
448.809	1	4
448.979	1	2
449.150	1	-2
449.320	1	7
449.491	1	-2
449.661	1	7
449.832	1	-7
450.002	1	-4
450.173	1	0
450.343	1	-7
450.514	1	-3
450.684	1	3
450.855	1	5
451.025	1	1
451.196	1	-9
451.366	1	5
451.537	1	1
451.707	1	10
451.878	1	-2
452.048	1	-5
452.218	1	-6
452.389	1	-1
452.559	1	-7
452.730	1	-1
452.900	1	13
453.071	1	-2
453.241	1	-4
453.412	1	-1
453.582	1	3
453.753	1	-1
453.923	1	-2
454.093	1	-2
454.264	1	-11
454.434	1	10
454.605	1	-2
454.775	1	-3
454.946	1	5
455.116	1	-6
455.287	1	6
455.457	1	-5
455.628	1	-1
455.798	1	-8
455.968	1	10
456.139	1	-1
456.309	1	-12
456.480	1	-8
456.650	1	5
456.821	1	2
456.991	1	8
457.161	1	5
457.332	1	0
457.502	1	4
457.673	1	-4
457.843	1	3
458.014	1	-2
458.184	1	1
458.355	1	4
458.525	1	2
458.695	1	5
458.866	1	-4
459.036	1	6
459.207	1	1
459.377	1	-8
459.548	1	-9
459.718	1	-13
459.888	1	5
460.059	1	2
460.229	1	6
460.400	1	0
460.570	1	5
460.740	1	-7
460.911	1	7
461.081	1	-2
461.252	1	1
461.422	1	1
461.593	1	-1
461.763	1	0
461.933	1	-10
462.104	1	4
462.274	1	2
462.445	1	-4
462.615	1	-10
462.785	1	-2
462.956	1	-7
463.126	1	-18
463.297	1	-1
463.467	1	2
463.638	1	1
463.808	1	-1
463.978	1	4
464.149	1	2
464.319	1	-5
464.490	1	0
464.660	1	1
464.830	1	2
465.001	1	-4
465.171	1	4
465.342	1	-7
465.512	1	3
465.682	1	-2
465.853	1	0
466.023	1	6
466.194	1	8
466.364	1	10
466.534	1	-2
466.705	1	2
466.875	1	3
467.045	1	4
467.216	1	-8
467.386	1	-2
467.557	1	10
467.727	1	-8
467.897	1	5
468.068	1	5
468.238	1	-12
468.409	1	-3
468.579	1	1
468.749	1	-4
468.920	1	-4
469.090	1	2
469.260	1	2
469.431	1	5
469.601	1	4
469.772	1	-10
469.942	1	-2
470.112	1	-1
470.283	1	7
470.453	1	1
470.623	1	-4
470.794	1	-3
470.964	1	-11
471.135	1	2
471.305	1	-2
471.475	1	-9
471.646	1	7
471.816	1	1
471.986	1	-1
472.157	1	8
472.327	1	-3
472.497	1	-3
472.668	1	-4
472.838	1	5
473.009	1	9
473.179	1	2
473.349	1	-2
473.520	1	-1
473.690	1	6
473.860	1	1
474.031	1	-7
474.201	1	-8
474.371	1	14
474.542	1	-6
474.712	1	0
474.882	1	-9
475.053	1	-11
475.223	1	-3
475.394	1	1
475.564	1	14
475.734	1	-2
475.905	1	2
476.075	1	4
476.245	1	-1
476.416	1	-3
476.586	1	-3
476.756	1	2
476.927	1	13
477.097	1	-4
477.267	1	3
477.438	1	-3
477.608	1	17
477.778	1	5
477.949	1	8
478.119	1	5
478.289	1	-4
478.460	1	-2
478.630	1	1
478.800	1	-6
478.971	1	4
479.141	1	10
479.311	1	2
479.482	1	0
479.652	1	4
479.822	1	2
479.993	1	0
480.163	1	-12
480.333	1	-2
480.504	1	0
480.674	1	3
480.844	1	10
481.015	1	-4
481.185	1	2
481.355	1	-1
481.525	1	0
481.696	1	7
481.866	1	-3
482.036	1	-4
482.207	1	6
482.377	1	-5
482.547	1	-4
482.718	1	11
482.888	1	-10
483.058	1	0
483.229	1	9
483.399	1	-5
483.569	1	0
483.740	1	-18
483.910	1	-2
484.080	1	-2
484.250	1	5
484.421	1	-2
484.591	1	7
484.761	1	-2
484.932	1	5
485.102	1	3
485.272	1	0
485.443	1	11
485.613	1	-6
485.783	1	13
485.953	1	1
486.124	1	3
486.294	1	4
486.464	1	-8
486.635	1	6
486.805	1	18
486.975	1	-14
487.146	1	-2
487.316	1	8
487.486	1	-3
487.656	1	-12
487.827	1	2
487.997	1	11
488.167	1	0
488.338	1	17
488.508	1	-5
488.678	1	4
488.848	1	-9
489.019	1	0
489.189	1	-4
489.359	1	-6
489.529	1	1
489.700	1	-1
489.870	1	-9
490.040	1	-2
490.211	1	11
490.381	1	2
490.551	1	-5
490.721	1	4
490.892	1	7
491.062	1	14
491.232	1	8
491.402	1	-4
491.573	1	-1
491.743	1	-4
491.913	1	1
492.084	1	9
492.254	1	6
492.424	1	2
492.594	1	-1
492.765	1	9
492.935	1	1
493.105	1	19
493.275	1	6
493.446	1	2
493.616	1	0
493.786	1	4
493.956	1	-5
494.127	1	-4
494.297	1	8
494.467	1	-8
494.637	1	10
494.808	1	5
494.978	1	6
495.148	1	2
495.318	1	9
495.489	1	7
495.659	1	0
495.829	1	11
495.999	1	-5
496.170	1	1
496.340	1	-6
496.510	1	-4
496.680	1	0
496.851	1	8
497.021	1	-2
497.191	1	-5
497.361	1	-2
497.532	1	4
497.702	1	2
497.872	1	0
498.042	1	1
498.213	1	4
498.383	1	-5
498.553	1	3
498.723	1	3
498.894	1	5
499.064	1	9
499.234	1	-3
499.404	1	-4
499.574	1	-2
499.745	1	6
499.915	1	0
500.085	1	-6
500.255	1	9
500.426	1	1
500.596	1	-9
500.766	1	-1
500.936	1	-8
501.106	1	3
501.277	1	-8
501.447	1	7
501.617	1	3
501.787	1	1
501.958	1	-8
502.128	1	3
502.298	1	12
502.468	1	2
502.638	1	3
502.809	1	2
502.979	1	-7
503.149	1	4
503.319	1	3
503.489	1	5
503.660	1	11
503.830	1	0
504.000	1	-8
504.170	1	5
504.340	1	1
504.511	1	10
504.681	1	-6
504.851	1	-2
505.021	1	2
505.192	1	13
505.362	1	1
505.532	1	2
505.702	1	0
505.872	1	-3
506.043	1	-4
506.213	1	4
506.383	1	-7
506.553	1	9
506.723	1	8
506.893	1	4
507.064	1	-3
507.234	1	5
507.404	1	0
507.574	1	3
507.744	1	-9
507.915	1	5
508.085	1	5
508.255	1	3
508.425	1	8
508.595	1	7
508.766	1	-7
508.936	1	5
509.106	1	-10
509.276	1	5
509.446	1	-9
509.616	1	-4
509.787	1	1
509.957	1	5
510.127	1	0
510.297	1	0
510.467	1	-2
510.638	1	1
510.808	1	6
510.978	1	-5
511.148	1	12
511.318	1	0
511.488	1	6
511.659	1	4
511.829	1	0
511.999	1	4
512.169	1	5
512.339	1	2
512.509	1	-4
512.680	1	9
512.850	1	13
513.020	1	4
513.190	1	0
513.360	1	6
513.530	1	1
513.700	1	-3
513.871	1	6
514.041	1	0
514.211	1	-12
514.381	1	7
514.551	1	8
514.721	1	8
514.892	1	10
515.062	1	1
515.232	1	10
515.402	1	8
515.572	1	-1
515.742	1	7
515.912	1	6
516.083	1	1
516.253	1	7
516.423	1	12
516.593	1	-6
516.763	1	1
516.933	1	0
517.104	1	8
517.274	1	7
517.444	1	7
517.614	1	2
517.784	1	-10
517.954	1	4
518.124	1	13
518.294	1	1
518.465	1	8
518.635	1	7
518.805	1	7
518.975	1	1
519.145	1	9
519.315	1	0
519.485	1	-11
519.656	1	5
519.826	1	4
519.996	1	3
520.166	1	5
520.336	1	3
520.506	1	8
520.676	1	2
520.846	1	3
521.017	1	-2
521.187	1	-6
521.357	1	-9
521.527	1	1
521.697	1	3
521.867	1	5
522.037	1	2
522.207	1	0
522.377	1	15
522.548	1	2
522.718	1	-10
522.888	1	-1
523.058	1	18
523.228	1	7
523.398	1	5
523.568	1	0
523.738	1	0
523.909	1	10
524.079	1	5
524.249	1	12
524.419	1	0
524.589	1	8
524.759	1	5
524.929	1	1
525.099	1	-5
525.269	1	12
525.439	1	0
525.610	1	3
525.780	1	8
525.950	1	-2
526.120	1	-12
526.290	1	-2
526.460	1	4
526.630	1	4
526.800	1	13
526.970	1	5
527.140	1	-4
527.311	1	7
527.481	1	16
527.651	1	10
527.821	1	-3
527.991	1	-4
528.161	1	-5
528.331	1	3
528.501	1	-1
528.671	1	-1
528.841	1	11
529.011	1	4
529.181	1	4
529.352	1	8
529.522	1	5
529.692	1	6
529.862	1	2
530.032	1	7
530.202	1	17
530.372	1	7
530.542	1	-2
530.712	1	22
530.882	1	-4
531.052	1	6
531.222	1	2
531.392	1	-3
531.563	1	5
531.733	1	6
531.903	1	12
532.073	1	9
532.243	1	3
532.413	1	11
532.583	1	4
532.753	1	-5
532.923	1	0
533.093	1	-7
533.263	1	4
533.433	1	6
533.603	1	8
533.773	1	1
533.943	1	11
534.113	1	2
534.284	1	3
534.454	1	8
534.624	1	6
534.794	1	-3
534.964	1	-4
535.134	1	-8
535.304	1	15
535.474	1	1
535.644	1	13
535.814	1	6
535.984	1	5
536.154	1	1
536.324	1	8
536.494	1	13
536.664	1	9
536.834	1	2
537.004	1	15
537.174	1	14
537.344	1	17
537.514	1	4
537.685	1	7
537.855	1	2
538.025	1	2
538.195	1	6
538.365	1	12
538.535	1	11
538.705	1	-2
538.875	1	5
539.045	1	6
539.215	1	-12
539.385	1	-2
539.555	1	-4
539.725	1	3
539.895	1	8
540.065	1	2
540.235	1	-6
540.405	1	2
540.575	1	5
540.745	1	-1
540.915	1	17
541.085	1	-4
541.255	1	0
541.425	1	2
541.595	1	6
541.765	1	-2
541.935	1	19
542.105	1	3
542.275	1	4
542.445	1	10
542.615	1	4
542.785	1	5
542.955	1	6
543.125	1	6
543.295	1	6
543.465	1	8
543.635	1	4
543.805	1	17
543.975	1	11
544.145	1	-1
544.315	1	1
544.485	1	-1
544.655	1	-6
544.825	1	9
544.995	1	1
545.165	1	4
545.335	1	6
545.505	1	-5
545.675	1	4
545.845	1	-4
546.015	1	3
546.185	1	0
546.355	1	9
546.525	1	11
546.695	1	-7
546.865	1	-3
547.035	1	7
547.205	1	1
547.375	1	4
547.545	1	-4
547.715	1	2
547.885	1	2
548.055	1	-2
548.225	1	-2
548.395	1	5
548.565	1	14
548.735	1	7
548.905	1	-9
549.075	1	-2
549.245	1	10
549.415	1	-3
549.585	1	-1
549.755	1	-5
549.925	1	12
550.095	1	5
550.265	1	-1
550.435	1	7
550.605	1	-5
550.775	1	-8
550.945	1	11
551.115	1	-3
551.285	1	9
551.455	1	7
551.625	1	-7
551.795	1	-1
551.965	1	3
552.135	1	1
552.305	1	9
552.475	1	-2
552.645	1	5
552.815	1	7
552.985	1	0
553.155	1	9
553.325	1	19
553.495	1	10
553.665	1	5
553.835	1	-1
554.004	1	11
554.174	1	-8
554.344	1	-6
554.514	1	-3
554.684	1	-6
554.854	1	7
555.024	1	2
555.194	1	15
555.364	1	0
555.534	1	-8
555.704	1	3
555.874	1	-5
556.044	1	4
556.214	1	4
556.384	1	8
556.554	1	-3
556.724	1	-1
556.894	1	10
557.064	1	5
557.234	1	2
557.404	1	-4
557.573	1	11
557.743	1	3
557.913	1	0
558.083	1	-8
558.253	1	3
558.423	1	-2
558.593	1	4
558.763	1	-3
558.933	1	8
559.103	1	1
559.273	1	3
559.443	1	-2
559.613	1	1
559.783	1	6
559.953	1	4
560.122	1	-8
560.292	1	6
560.462	1	6
560.632	1	7
560.802	1	-2
560.972	1	16
561.142	1	11
561.312	1	7
561.482	1	8
561.652	1	-4
561.822	1	-1
561.992	1	9
562.162	1	5
562.331	1	4
562.501	1	1
562.671	1	3
562.841	1	-11
563.011	1	3
563.181	1	2
563.351	1	-5
563.521	1	13
563.691	1	6
563.861	1	-1
564.031	1	-1
564.201	1	9
564.370	1	3
564.540	1	15
564.710	1	-1
564.880	1	0
565.050	1	4
565.220	1	-5
565.390	1	-9
565.560	1	4
565.730	1	-8
565.900	1	5
566.069	1	8
566.239	1	-5
566.409	1	-4
566.579	1	4
566.749	1	5
566.919	1	12
567.089	1	6
567.259	1	9
567.429	1	2
567.599	1	-1
567.768	1	8
567.938	1	5
568.108	1	-3
568.278	1	-1
568.448	1	-6
568.618	1	4
568.788	1	-12
568.958	1	-1
569.128	1	0
569.297	1	4
569.467	1	-4
569.637	1	-2
569.807	1	-1
569.977	1	0
570.147	1	1
570.317	1	21
570.487	1	11
570.656	1	2
570.826	1	1
570.996	1	-6
571.166	1	-6
571.336	1	-4
571.506	1	6
571.676	1	14
571.846	1	8
572.015	1	-6
572.185	1	-7
572.355	1	19
572.525	1	-6
572.695	1	8
572.865	1	10
573.035	1	-4
573.205	1	9
573.374	1	6
573.544	1	0
573.714	1	6
573.884	1	-4
574.054	1	3
574.224	1	3
574.394	1	-4
574.563	1	4
574.733	1	0
574.903	1	-2
575.073	1	3
575.243	1	-8
575.413	1	0
575.583	1	5
575.752	1	4
575.922	1	9
576.092	1	5
576.262	1	-2
576.432	1	-16
576.602	1	5
576.772	1	-2
576.941	1	2
577.111	1	7
577.281	1	-2
577.451	1	2
577.621	1	-9
577.791	1	0
577.960	1	-10
578.130	1	-9
578.300	1	-1
578.470	1	-6
578.640	1	-12
578.810	1	5
578.979	1	-3
579.149	1	3
579.319	1	-3
579.489	1	3
579.659	1	4
579.829	1	5
579.998	1	-9
580.168	1	5
580.338	1	-15
580.508	1	1
580.678	1	-2
580.848	1	2
581.017	1	-11
581.187	1	1
581.357	1	2
581.527	1	6
581.697	1	-14
581.867	1	-13
582.036	1	12
582.206	1	-2
582.376	1	6
582.546	1	-3
582.716	1	11
582.885	1	-1
583.055	1	2
583.225	1	8
583.395	1	0
583.565	1	7
583.735	1	0
583.904	1	1
584.074	1	1
584.244	1	-1
584.414	1	3
584.584	1	6
584.753	1	-1
584.923	1	-3
585.093	1	-1
585.263	1	2
585.433	1	0
585.602	1	2
585.772	1	2
585.942	1	6
586.112	1	11
586.282	1	-1
586.451	1	-6
586.621	1	2
586.791	1	4
586.961	1	2
587.131	1	2
587.300	1	-5
587.470	1	5
587.640	1	-7
587.810	1	0
587.980	1	-4
588.149	1	-3
588.319	1	4
588.489	1	-2
588.659	1	-5
588.829	1	0
588.998	1	-4
589.168	1	8
589.338	1	8
589.508	1	-3
589.677	1	4
589.847	1	6
590.017	1	-6
590.187	1	-3
590.357	1	-1
590.526	1	9
590.696	1	0
590.866	1	1
591.036	1	5
591.205	1	3
591.375	1	-11
591.545	1	-13
591.715	1	-3
591.885	1	6
592.054	1	3
592.224	1	-1
592.394	1	-2
592.564	1	-7
592.733	1	-5
592.903	1	-3
593.073	1	-7
593.243	1	-1
593.412	1	2
593.582	1	9
593.752	1	-6
593.922	1	-3
594.091	1	1
594.261	1	5
594.431	1	-1
594.601	1	-18
594.771	1	4
594.940	1	-6
595.110	1	2
595.280	1	1
595.450	1	14
595.619	1	4
595.789	1	6
595.959	1	5
596.129	1	-6
596.298	1	-5
596.468	1	6
596.638	1	3
596.808	1	2
596.977	1	0
597.147	1	1
597.317	1	6
597.487	1	-1
597.656	1	6
597.826	1	2
597.996	1	1
598.166	1	-3
598.335	1	1
598.505	1	-9
598.675	1	8
598.844	1	9
599.014	1	-3
599.184	1	-8
599.354	1	-11
599.523	1	1
599.693	1	-2
599.863	1	10
600.033	1	-13
600.202	1	-5
600.372	1	0
600.542	1	-2
600.712	1	-4
600.881	1	10
601.051	1	9
601.221	1	1
601.390	1	-8
601.560	1	-8
601.730	1	8
601.900	1	5
602.069	1	-1
602.239	1	-10
602.409	1	-1
602.578	1	2
602.748	1	-8
602.918	1	-14
603.088	1	0
603.257	1	3
603.427	1	4
603.597	1	12
603.767	1	-11
603.936	1	14
604.106	1	9
604.276	1	-9
604.445	1	7
604.615	1	-1
604.785	1	8
604.954	1	8
605.124	1	-6
605.294	1	-3
605.464	1	-4
605.633	1	5
605.803	1	-2
605.973	1	-5
606.142	1	1
606.312	1	-4
606.482	1	-4
606.652	1	1
606.821	1	6
606.991	1	3
607.161	1	-2
607.330	1	5
607.500	1	1
607.670	1	-3
607.839	1	3
608.009	1	-11
608.179	1	1
608.348	1	-5
608.518	1	9
608.688	1	1
608.858	1	9
609.027	1	-4
609.197	1	-4
609.367	1	-5
609.536	1	-5
609.706	1	-4
609.876	1	4
610.045	1	3
610.215	1	3
610.385	1	3
610.554	1	-9
610.724	1	5
610.894	1	4
611.063	1	9
611.233	1	-6
611.403	1	-3
611.572	1	3
611.742	1	-7
611.912	1	3
612.081	1	-5
612.251	1	2
612.421	1	15
612.590	1	-2
612.760	1	2
612.930	1	-2
613.099	1	-7
613.269	1	-4
613.439	1	-3
613.608	1	7
613.778	1	9
613.948	1	10
614.117	1	6
614.287	1	0
614.457	1	7
614.626	1	5
614.796	1	10
614.966	1	2
615.135	1	-3
615.305	1	-1
615.475	1	8
615.644	1	-8
615.814	1	3
615.984	1	3
616.153	1	6
616.323	1	0
616.493	1	-2
616.662	1	2
616.832	1	0
617.002	1	0
617.171	1	-3
617.341	1	0
617.511	1	-3
617.680	1	-1
617.850	1	3
618.019	1	1
618.189	1	-5
618.359	1	9
618.528	1	-8
618.698	1	-1
618.868	1	-5
619.037	1	8
619.207	1	-9
619.377	1	-13
619.546	1	5
619.716	1	-6
619.885	1	4
620.055	1	-4
620.225	1	8
620.394	1	-3
620.564	1	-7
620.734	1	2
620.903	1	8
621.073	1	-10
621.242	1	-5
621.412	1	-2
621.582	1	1
621.751	1	-2
621.921	1	-1
622.091	1	-8
622.260	1	-9
622.430	1	9
622.599	1	13
622.769	1	-9
622.939	1	5
623.108	1	10
623.278	1	5
623.448	1	-8
623.617	1	4
623.787	1	0
623.956	1	8
624.126	1	0
624.296	1	1
624.465	1	1
624.635	1	1
624.804	1	-10
624.974	1	-8
625.144	1	1
625.313	1	-2
625.483	1	4
625.652	1	10
625.822	1	4
625.992	1	-4
626.161	1	6
626.331	1	11
626.501	1	-5
626.670	1	-1
626.840	1	8
627.009	1	-2
627.179	1	0
627.348	1	-4
627.518	1	-5
627.688	1	-2
627.857	1	8
628.027	1	3
628.196	1	13
628.366	1	4
628.536	1	1
628.705	1	3
628.875	1	9
629.044	1	8
629.214	1	-3
629.384	1	-9
629.553	1	4
629.723	1	-7
629.892	1	4
630.062	1	3
630.232	1	7
630.401	1	-2
630.571	1	0
630.740	1	15
630.910	1	-2
631.079	1	15
631.249	1	-13
631.419	1	2
631.588	1	-7
631.758	1	5
631.927	1	2
632.097	1	10
632.266	1	-8
632.436	1	-3
632.606	1	5
632.775	1	0
632.945	1	-3
633.114	1	12
633.284	1	-10
633.453	1	-9
633.623	1	1
633.793	1	-3
633.962	1	6
634.132	1	6
634.301	1	4
634.471	1	-15
634.640	1	-5
634.810	1	-3
634.979	1	8
635.149	1	-11
635.319	1	1
635.488	1	5
635.658	1	-9
635.827	1	7
635.997	1	-2
636.166	1	-10
636.336	1	9
636.505	1	3
636.675	1	-10
636.845	1	4
637.014	1	-11
637.184	1	-3
637.353	1	14
637.523	1	1
637.692	1	11
637.862	1	-14
638.031	1	9
638.201	1	7
638.370	1	1
638.540	1	-5
638.710	1	3
638.879	1	0
639.049	1	-1
639.218	1	6
639.388	1	-1
639.557	1	2
639.727	1	2
639.896	1	-1
640.066	1	11
640.235	1	2
640.405	1	-2
640.574	1	-3
640.744	1	-6
640.914	1	5
641.083	1	-2
641.253	1	-10
641.422	1	2
641.592	1	-4
641.761	1	-6
641.931	1	3
642.100	1	-11
642.270	1	-8
642.439	1	-7
642.609	1	-6
642.778	1	-4
642.948	1	-2
643.117	1	-1
643.287	1	3
643.456	1	9
643.626	1	9
643.795	1	8
643.965	1	1
644.134	1	9
644.304	1	-6
644.473	1	5
644.643	1	-1
644.812	1	18
644.982	1	9
645.151	1	1
645.321	1	6
645.490	1	-4
645.660	1	-2
645.829	1	-8
645.999	1	-1
646.168	1	-1
646.338	1	10
646.507	1	5
646.677	1	2
646.846	1	5
647.016	1	-8
647.185	1	-2
647.355	1	-11
647.524	1	-2
647.694	1	-3
647.863	1	-7
648.033	1	-5
648.202	1	13
648.372	1	9
648.541	1	-3
648.711	1	-4
648.880	1	-6
649.050	1	-2
649.219	1	-1
649.389	1	-2
649.558	1	-8
649.728	1	10
649.897	1	1
650.067	1	-1
650.236	1	1
650.406	1	10
650.575	1	1
650.745	1	-12
650.914	1	-8
651.084	1	-10
651.253	1	-2
651.423	1	4
651.592	1	4
651.762	1	2
651.931	1	-3
652.101	1	1
652.270	1	1
652.440	1	-4
652.609	1	12
652.778	1	1
652.948	1	-5
653.117	1	-2
653.287	1	12
653.456	1	0
653.626	1	4
653.795	1	4
653.965	1	13
654.134	1	7
654.304	1	-5
654.473	1	9
654.643	1	8
654.812	1	-1
654.982	1	-15
655.151	1	-7
655.320	1	-4
655.490	1	0
655.659	1	1
655.829	1	-5
655.998	1	4
656.168	1	-3
656.337	1	-7
656.507	1	6
656.676	1	-4
656.846	1	-8
657.015	1	1
657.184	1	3
657.354	1	2
657.523	1	-3
657.693	1	2
657.862	1	2
658.032	1	2
658.201	1	-4
658.371	1	-5
658.540	1	-5
658.709	1	-3
658.879	1	-1
659.048	1	9
659.218	1	-5
659.387	1	-7
659.557	1	-1
659.726	1	-4
659.895	1	-7
660.065	1	-2
660.234	1	5
660.404	1	0
660.573	1	-4
660.743	1	-1
660.912	1	-6
661.081	1	-8
661.251	1	8
661.420	1	2
661.590	1	-2
661.759	1	-6
661.929	1	4
662.098	1	-15
662.267	1	-2
662.437	1	-2
662.606	1	9
662.776	1	-4
662.945	1	-1
663.115	1	-7
663.284	1	-4
663.453	1	1
663.623	1	-2
663.792	1	4
663.962	1	-3
664.131	1	-9
664.300	1	7
664.470	1	-4
664.639	1	-8
664.809	1	-3
664.978	1	-3
665.148	1	-4
665.317	1	-7
665.486	1	-9
665.656	1	-8
665.825	1	8
665.995	1	6
666.164	1	2
666.333	1	4
666.503	1	1
666.672	1	-11
666.842	1	-7
667.011	1	1
667.180	1	1
667.350	1	4
667.519	1	5
667.689	1	-4
667.858	1	11
668.027	1	-5
668.197	1	3
668.366	1	-9
668.536	1	-1
668.705	1	-1
668.874	1	1
669.044	1	-2
669.213	1	3
669.382	1	-2
669.552	1	2
669.721	1	-8
669.891	1	4
670.060	1	-3
670.229	1	-5
670.399	1	8
670.568	1	0
670.738	1	-12
670.907	1	-4
671.076	1	-1
671.246	1	0
671.415	1	-3
671.584	1	-3
671.754	1	-14
671.923	1	-3
672.093	1	-3
672.262	1	-5
672.431	1	1
672.601	1	-4
672.770	1	10
672.939	1	-10
673.109	1	0
673.278	1	-7
673.448	1	4
673.617	1	2
673.786	1	-4
