325.333	1	-9
325.504	1	2
325.675	1	10
325.846	1	-8
326.017	1	-6
326.188	1	17
326.359	1	2
326.531	1	-5
326.702	1	-1
326.873	1	-5
327.044	1	-2
327.215	1	-6
327.386	1	-6
327.557	1	2
327.728	1	3
327.899	1	-2
328.070	1	5
328.241	1	-3
328.412	1	5
328.583	1	-5
328.754	1	-6
328.926	1	7
329.097	1	10
329.268	1	-3
329.439	1	-6
329.610	1	5
329.781	1	-8
329.952	1	5
330.123	1	-9
330.294	1	14
330.465	1	-2
330.636	1	3
330.807	1	11
330.978	1	2
331.149	1	3
331.320	1	3
331.492	1	-3
331.663	1	-15
331.834	1	6
332.005	1	2
332.176	1	0
332.347	1	7
332.518	1	8
332.689	1	0
332.860	1	-1
333.031	1	-3
333.202	1	1
333.373	1	-9
333.544	1	0
333.715	1	0
333.886	1	-2
334.057	1	-8
334.228	1	6
334.399	1	11
334.570	1	-7
334.741	1	-12
334.912	1	-8
335.084	1	-4
335.255	1	1
335.426	1	-5
335.597	1	-6
335.768	1	5
335.939	1	9
336.110	1	-7
336.281	1	-15
336.452	1	6
336.623	1	2
336.794	1	-15
336.965	1	-5
337.136	1	-8
337.307	1	4
337.478	1	18
337.649	1	7
337.820	1	7
337.991	1	3
338.162	1	2
338.333	1	2
338.504	1	1
338.675	1	-7
338.846	1	-9
339.017	1	-8
339.188	1	2
339.359	1	-3
339.530	1	5
339.701	1	-1
339.872	1	1
340.043	1	-4
340.214	1	2
340.385	1	-10
340.556	1	5
340.727	1	1
340.898	1	0
341.069	1	3
341.240	1	4
341.411	1	-2
341.582	1	0
341.753	1	4
341.924	1	-11
342.095	1	-5
342.266	1	-2
342.437	1	-4
342.608	1	1
342.779	1	-11
342.950	1	-3
343.121	1	12
343.292	1	3
343.463	1	-4
343.634	1	-2
343.805	1	6
343.976	1	3
344.147	1	-14
344.318	1	11
344.489	1	-9
344.660	1	3
344.831	1	-6
345.002	1	7
345.173	1	-5
345.344	1	-6
345.515	1	-5
345.686	1	0
345.857	1	2
346.028	1	1
346.199	1	2
346.370	1	-2
346.541	1	-3
346.712	1	3
346.883	1	-6
347.054	1	8
347.225	1	-3
347.396	1	-8
347.567	1	-1
347.738	1	1
347.909	1	-5
348.080	1	-1
348.251	1	6
348.422	1	1
348.593	1	-6
348.764	1	-4
348.935	1	0
349.106	1	3
349.277	1	-5
349.448	1	-7
349.619	1	1
349.790	1	1
349.961	1	3
350.132	1	-3
350.303	1	-4
350.474	1	5
350.645	1	6
350.816	1	-13
350.987	1	-9
351.157	1	-1
351.328	1	2
351.499	1	-1
351.670	1	2
351.841	1	0
352.012	1	-9
352.183	1	-2
352.354	1	8
352.525	1	6
352.696	1	-3
352.867	1	-5
353.038	1	13
353.209	1	9
353.380	1	9
353.551	1	0
353.722	1	-2
353.893	1	-3
354.064	1	5
354.235	1	7
354.406	1	-5
354.576	1	3
354.747	1	2
354.918	1	-8
355.089	1	-3
355.260	1	-3
355.431	1	2
355.602	1	-1
355.773	1	-6
355.944	1	6
356.115	1	-6
356.286	1	3
356.457	1	-6
356.628	1	4
356.799	1	3
356.970	1	-1
357.141	1	-5
357.311	1	-3
357.482	1	-4
357.653	1	0
357.824	1	7
357.995	1	2
358.166	1	7
358.337	1	3
358.508	1	5
358.679	1	11
358.850	1	1
359.021	1	-11
359.192	1	-1
359.363	1	3
359.533	1	1
359.704	1	3
359.875	1	-1
360.046	1	-5
360.217	1	6
360.388	1	8
360.559	1	4
360.730	1	9
360.901	1	6
361.072	1	-1
361.243	1	5
361.414	1	11
361.584	1	11
361.755	1	5
361.926	1	15
362.097	1	0
362.268	1	5
362.439	1	2
362.610	1	-3
362.781	1	-7
362.952	1	8
363.123	1	6
363.293	1	3
363.464	1	16
363.635	1	7
363.806	1	10
363.977	1	8
364.148	1	0
364.319	1	4
364.490	1	-2
364.661	1	7
364.832	1	4
365.002	1	12
365.173	1	11
365.344	1	3
365.515	1	9
365.686	1	6
365.857	1	3
366.028	1	2
366.199	1	10
366.370	1	10
366.540	1	11
366.711	1	7
366.882	1	7
367.053	1	15
367.224	1	12
367.395	1	10
367.566	1	12
367.737	1	-5
367.908	1	7
368.078	1	14
368.249	1	1
368.420	1	5
368.591	1	10
368.762	1	12
368.933	1	17
369.104	1	3
369.274	1	11
369.445	1	2
369.616	1	-4
369.787	1	6
369.958	1	9
370.129	1	3
370.300	1	-7
370.471	1	13
370.641	1	10
370.812	1	-1
370.983	1	2
371.154	1	6
371.325	1	-2
371.496	1	-5
371.667	1	2
371.837	1	-5
372.008	1	-1
372.179	1	3
372.350	1	-1
372.521	1	0
372.692	1	9
372.863	1	-4
373.033	1	3
373.204	1	5
373.375	1	-7
373.546	1	5
373.717	1	13
373.888	1	-5
374.059	1	2
374.229	1	-8
374.400	1	5
374.571	1	3
374.742	1	8
374.913	1	8
375.084	1	5
375.254	1	4
375.425	1	5
375.596	1	-11
375.767	1	5
375.938	1	7
376.109	1	-1
376.279	1	-7
376.450	1	-3
376.621	1	10
376.792	1	0
376.963	1	1
377.134	1	-9
377.304	1	8
377.475	1	7
377.646	1	11
377.817	1	11
377.988	1	1
378.159	1	8
378.329	1	7
378.500	1	-7
378.671	1	1
378.842	1	-5
379.013	1	2
379.184	1	3
379.354	1	-11
379.525	1	12
379.696	1	5
379.867	1	17
380.038	1	2
380.209	1	7
380.379	1	0
380.550	1	2
380.721	1	-3
380.892	1	2
381.063	1	-1
381.233	1	14
381.404	1	5
381.575	1	2
381.746	1	13
381.917	1	-3
382.087	1	9
382.258	1	9
382.429	1	12
382.600	1	4
382.771	1	-1
382.941	1	3
383.112	1	8
383.283	1	12
383.454	1	13
383.625	1	3
383.795	1	17
383.966	1	8
384.137	1	2
384.308	1	13
384.479	1	14
384.649	1	11
384.820	1	6
384.991	1	10
385.162	1	11
385.333	1	20
385.503	1	10
385.674	1	20
385.845	1	13
386.016	1	13
386.187	1	20
386.357	1	20
386.528	1	21
386.699	1	31
386.870	1	27
387.041	1	9
387.211	1	18
387.382	1	18
387.553	1	21
387.724	1	13
387.894	1	15
388.065	1	25
388.236	1	22
388.407	1	17
388.578	1	13
388.748	1	28
388.919	1	7
389.090	1	16
389.261	1	1
389.431	1	15
389.602	1	13
389.773	1	12
389.944	1	11
390.114	1	11
390.285	1	6
390.456	1	9
390.627	1	3
390.798	1	12
390.968	1	13
391.139	1	-1
391.310	1	21
391.481	1	7
391.651	1	20
391.822	1	16
391.993	1	18
392.164	1	10
392.334	1	23
392.505	1	11
392.676	1	10
392.847	1	15
393.017	1	5
393.188	1	13
393.359	1	17
393.530	1	11
393.700	1	19
393.871	1	11
394.042	1	18
394.213	1	8
394.383	1	14
394.554	1	27
394.725	1	11
394.896	1	-2
395.066	1	17
395.237	1	19
395.408	1	6
395.579	1	20
395.749	1	13
395.920	1	24
396.091	1	11
396.262	1	17
396.432	1	4
396.603	1	10
396.774	1	10
396.945	1	18
397.115	1	19
397.286	1	22
397.457	1	21
397.627	1	23
397.798	1	10
397.969	1	5
398.140	1	8
398.310	1	24
398.481	1	8
398.652	1	11
398.823	1	22
398.993	1	10
399.164	1	23
399.335	1	14
399.505	1	14
399.676	1	23
399.847	1	9
400.018	1	12
400.188	1	18
400.359	1	4
400.530	1	10
400.700	1	12
400.871	1	0
401.042	1	14
401.213	1	8
401.383	1	12
401.554	1	12
401.725	1	9
401.895	1	10
402.066	1	15
402.237	1	16
402.408	1	7
402.578	1	13
402.749	1	2
402.920	1	9
403.090	1	12
403.261	1	11
403.432	1	11
403.603	1	14
403.773	1	10
403.944	1	18
404.115	1	-4
404.285	1	2
404.456	1	15
404.627	1	20
404.797	1	18
404.968	1	3
405.139	1	15
405.310	1	10
405.480	1	17
405.651	1	7
405.822	1	12
405.992	1	-1
406.163	1	7
406.334	1	4
406.504	1	12
406.675	1	19
406.846	1	7
407.016	1	4
407.187	1	2
407.358	1	7
407.528	1	7
407.699	1	20
407.870	1	6
408.041	1	13
408.211	1	5
408.382	1	14
408.553	1	14
408.723	1	7
408.894	1	1
409.065	1	21
409.235	1	-2
409.406	1	12
409.577	1	10
409.747	1	4
409.918	1	5
410.089	1	10
410.259	1	6
410.430	1	13
410.601	1	-2
410.771	1	12
410.942	1	7
411.113	1	8
411.283	1	6
411.454	1	7
411.625	1	1
411.795	1	6
411.966	1	4
412.137	1	5
412.307	1	13
412.478	1	5
412.649	1	8
412.819	1	18
412.990	1	9
413.161	1	2
413.331	1	-1
413.502	1	13
413.672	1	7
413.843	1	0
414.014	1	7
414.184	1	0
414.355	1	-5
414.526	1	1
414.696	1	6
414.867	1	11
415.038	1	-3
415.208	1	1
415.379	1	2
415.550	1	6
415.720	1	5
415.891	1	14
416.062	1	5
416.232	1	8
416.403	1	14
416.573	1	13
416.744	1	14
416.915	1	11
417.085	1	0
417.256	1	-6
417.427	1	4
417.597	1	-4
417.768	1	0
417.939	1	5
418.109	1	14
418.280	1	2
418.450	1	2
418.621	1	8
418.792	1	-2
418.962	1	3
419.133	1	-8
419.304	1	-4
419.474	1	-1
419.645	1	13
419.815	1	-1
419.986	1	8
420.157	1	12
420.327	1	10
420.498	1	1
420.669	1	1
420.839	1	5
421.010	1	8
421.180	1	-8
421.351	1	4
421.522	1	13
421.692	1	5
421.863	1	-1
422.033	1	-2
422.204	1	-6
422.375	1	-1
422.545	1	12
422.716	1	-3
422.886	1	5
423.057	1	3
423.228	1	3
423.398	1	6
423.569	1	5
423.740	1	-7
423.910	1	-8
424.081	1	2
424.251	1	-2
424.422	1	9
424.593	1	8
424.763	1	12
424.934	1	9
425.104	1	6
425.275	1	-6
425.445	1	-2
425.616	1	13
425.787	1	-4
425.957	1	11
426.128	1	-7
426.298	1	3
426.469	1	6
426.640	1	0
426.810	1	14
426.981	1	-3
427.151	1	3
427.322	1	2
427.493	1	8
427.663	1	13
427.834	1	-8
428.004	1	10
428.175	1	10
428.345	1	10
428.516	1	3
428.687	1	-4
428.857	1	-1
429.028	1	-5
429.198	1	-9
429.369	1	11
429.540	1	12
429.710	1	-1
429.881	1	8
430.051	1	7
430.222	1	0
430.392	1	6
430.563	1	3
430.734	1	3
430.904	1	-2
431.075	1	1
431.245	1	4
431.416	1	1
431.586	1	-8
431.757	1	0
431.927	1	7
432.098	1	-4
432.269	1	-1
432.439	1	-4
432.610	1	-7
432.780	1	2
432.951	1	4
433.121	1	10
433.292	1	3
433.462	1	5
433.633	1	-2
433.804	1	2
433.974	1	3
434.145	1	4
434.315	1	3
434.486	1	1
434.656	1	-1
434.827	1	-2
434.997	1	8
435.168	1	2
435.339	1	10
435.509	1	2
435.680	1	-7
435.850	1	6
436.021	1	2
436.191	1	-3
436.362	1	6
436.532	1	11
436.703	1	9
436.873	1	-2
437.044	1	5
437.214	1	1
437.385	1	0
437.556	1	-1
437.726	1	5
437.897	1	4
438.067	1	0
438.238	1	-10
438.408	1	9
438.579	1	5
438.749	1	7
438.920	1	2
439.090	1	10
439.261	1	-4
439.431	1	-1
439.602	1	6
439.772	1	7
439.943	1	4
440.113	1	-2
440.284	1	13
440.455	1	3
440.625	1	-4
440.796	1	8
440.966	1	1
441.137	1	-13
441.307	1	2
441.478	1	4
441.648	1	-7
441.819	1	-1
441.989	1	9
442.160	1	-3
442.330	1	7
442.501	1	-5
442.671	1	-2
442.842	1	1
443.012	1	2
443.183	1	-4
443.353	1	4
443.524	1	4
443.694	1	7
443.865	1	-2
444.035	1	3
444.206	1	16
444.376	1	7
444.547	1	-1
444.717	1	9
444.888	1	0
445.058	1	7
445.229	1	-2
445.399	1	6
445.570	1	1
445.740	1	7
445.911	1	4
446.081	1	3
446.252	1	1
446.422	1	0
446.593	1	1
446.763	1	11
446.934	1	5
447.104	1	-11
447.275	1	-2
447.445	1	2
447.616	1	2
447.786	1	3
447.957	1	-2
448.127	1	6
448.298	1	0
448.468	1	10
448.639	1	0
448.809	1	3
448.979	1	4
449.150	1	-4
449.320	1	-7
449.491	1	1
449.661	1	6
449.832	1	1
450.002	1	-3
450.173	1	-4
450.343	1	-6
450.514	1	1
450.684	1	4
450.855	1	6
451.025	1	2
451.196	1	-7
451.366	1	3
451.537	1	-8
451.707	1	9
451.878	1	-1
452.048	1	-14
452.218	1	3
452.389	1	4
452.559	1	-2
452.730	1	3
452.900	1	-1
453.071	1	8
453.241	1	-10
453.412	1	1
453.582	1	5
453.753	1	-8
453.923	1	3
454.093	1	3
454.264	1	-3
454.434	1	0
454.605	1	1
454.775	1	17
454.946	1	10
455.116	1	-9
455.287	1	6
455.457	1	-13
455.628	1	-5
455.798	1	-3
455.968	1	7
456.139	1	4
456.309	1	1
456.480	1	-1
456.650	1	4
456.821	1	2
456.991	1	2
457.161	1	3
457.332	1	8
457.502	1	11
457.673	1	-9
457.843	1	2
458.014	1	2
458.184	1	-5
458.355	1	5
458.525	1	-4
458.695	1	-2
458.866	1	0
459.036	1	1
459.207	1	9
459.377	1	-6
459.548	1	-11
459.718	1	-8
459.888	1	10
460.059	1	-6
460.229	1	11
460.400	1	-2
460.570	1	3
460.740	1	-10
460.911	1	7
461.081	1	-7
461.252	1	-5
461.422	1	9
461.593	1	5
461.763	1	4
461.933	1	-5
462.104	1	-6
462.274	1	2
462.445	1	-3
462.615	1	-6
462.785	1	-3
462.956	1	-5
463.126	1	-6
463.297	1	-3
463.467	1	-3
463.638	1	7
463.808	1	3
463.978	1	2
464.149	1	-12
464.319	1	-5
464.490	1	2
464.660	1	8
464.830	1	6
465.001	1	2
465.171	1	5
465.342	1	8
465.512	1	1
465.682	1	1
465.853	1	-3
466.023	1	-5
466.194	1	2
466.364	1	10
466.534	1	-7
466.705	1	9
466.875	1	-1
467.045	1	-6
467.216	1	-2
467.386	1	-3
467.557	1	5
467.727	1	-6
467.897	1	13
468.068	1	3
468.238	1	-5
468.409	1	8
468.579	1	10
468.749	1	-4
468.920	1	4
469.090	1	-1
469.260	1	7
469.431	1	2
469.601	1	-3
469.772	1	-11
469.942	1	-1
470.112	1	5
470.283	1	8
470.453	1	-1
470.623	1	-3
470.794	1	11
470.964	1	-2
471.135	1	-12
471.305	1	3
471.475	1	-4
471.646	1	6
471.816	1	-3
471.986	1	14
472.157	1	-5
472.327	1	1
472.497	1	-6
472.668	1	-5
472.838	1	5
473.009	1	-1
473.179	1	7
473.349	1	12
473.520	1	2
473.690	1	9
473.860	1	-2
474.031	1	2
474.201	1	-10
474.371	1	11
474.542	1	-4
474.712	1	-3
474.882	1	-5
475.053	1	-12
475.223	1	-4
475.394	1	7
475.564	1	4
475.734	1	-6
475.905	1	-1
476.075	1	-4
476.245	1	-5
476.416	1	-6
476.586	1	-7
476.756	1	7
476.927	1	8
477.097	1	0
477.267	1	-4
477.438	1	-3
477.608	1	0
477.778	1	5
477.949	1	10
478.119	1	-3
478.289	1	0
478.460	1	2
478.630	1	-6
478.800	1	-7
478.971	1	10
479.141	1	6
479.311	1	-4
479.482	1	-11
479.652	1	12
479.822	1	-1
479.993	1	2
480.163	1	-11
480.333	1	2
480.504	1	9
480.674	1	3
480.844	1	12
481.015	1	-2
481.185	1	5
481.355	1	-2
481.525	1	-7
481.696	1	13
481.866	1	-3
482.036	1	-13
482.207	1	5
482.377	1	2
482.547	1	-9
482.718	1	4
482.888	1	-1
483.058	1	5
483.229	1	6
483.399	1	-1
483.569	1	4
483.740	1	-14
483.910	1	11
484.080	1	-3
484.250	1	4
484.421	1	-3
484.591	1	12
484.761	1	-2
484.932	1	17
485.102	1	-7
485.272	1	1
485.443	1	8
485.613	1	-12
485.783	1	7
485.953	1	0
486.124	1	12
486.294	1	4
486.464	1	-5
486.635	1	13
486.805	1	12
486.975	1	-13
487.146	1	5
487.316	1	6
487.486	1	4
487.656	1	-4
487.827	1	4
487.997	1	4
488.167	1	4
488.338	1	24
488.508	1	9
488.678	1	7
488.848	1	-6
489.019	1	0
489.189	1	-8
489.359	1	3
489.529	1	-3
489.700	1	-3
489.870	1	-13
490.040	1	7
490.211	1	8
490.381	1	-1
490.551	1	-5
490.721	1	8
490.892	1	4
491.062	1	6
491.232	1	0
491.402	1	2
491.573	1	5
491.743	1	-1
491.913	1	5
492.084	1	-1
492.254	1	8
492.424	1	3
492.594	1	-5
492.765	1	6
492.935	1	-6
493.105	1	5
493.275	1	3
493.446	1	5
493.616	1	-4
493.786	1	1
493.956	1	-6
494.127	1	0
494.297	1	4
494.467	1	8
494.637	1	0
494.808	1	11
494.978	1	1
495.148	1	-5
495.318	1	8
495.489	1	4
495.659	1	4
495.829	1	6
495.999	1	1
496.170	1	-2
496.340	1	8
496.510	1	2
496.680	1	5
496.851	1	6
497.021	1	0
497.191	1	-9
497.361	1	3
497.532	1	9
497.702	1	2
497.872	1	9
498.042	1	8
498.213	1	-6
498.383	1	-2
498.553	1	13
498.723	1	6
498.894	1	-6
499.064	1	13
499.234	1	5
499.404	1	6
499.574	1	-6
499.745	1	5
499.915	1	3
500.085	1	-5
500.255	1	4
500.426	1	10
500.596	1	10
500.766	1	9
500.936	1	-10
501.106	1	-2
501.277	1	7
501.447	1	0
501.617	1	12
501.787	1	-2
501.958	1	0
502.128	1	-6
502.298	1	11
502.468	1	14
502.638	1	1
502.809	1	9
502.979	1	-1
503.149	1	11
503.319	1	7
503.489	1	8
503.660	1	2
503.830	1	8
504.000	1	-2
504.170	1	6
504.340	1	5
504.511	1	7
504.681	1	-1
504.851	1	1
505.021	1	-1
505.192	1	13
505.362	1	14
505.532	1	0
505.702	1	5
505.872	1	-11
506.043	1	4
506.213	1	9
506.383	1	6
506.553	1	11
506.723	1	3
506.893	1	6
507.064	1	-1
507.234	1	8
507.404	1	1
507.574	1	-3
507.744	1	-4
507.915	1	4
508.085	1	13
508.255	1	16
508.425	1	10
508.595	1	7
508.766	1	12
508.936	1	-4
509.106	1	-3
509.276	1	8
509.446	1	2
509.616	1	7
509.787	1	1
509.957	1	4
510.127	1	8
510.297	1	1
510.467	1	0
510.638	1	5
510.808	1	3
510.978	1	-4
511.148	1	12
511.318	1	7
511.488	1	6
511.659	1	9
511.829	1	0
511.999	1	17
512.169	1	4
512.339	1	4
512.509	1	0
512.680	1	10
512.850	1	4
513.020	1	12
513.190	1	-1
513.360	1	10
513.530	1	10
513.700	1	11
513.871	1	13
514.041	1	-7
514.211	1	5
514.381	1	11
514.551	1	7
514.721	1	10
514.892	1	7
515.062	1	4
515.232	1	6
515.402	1	5
515.572	1	-2
515.742	1	13
515.912	1	13
516.083	1	9
516.253	1	9
516.423	1	21
516.593	1	6
516.763	1	3
516.933	1	2
517.104	1	8
517.274	1	0
517.444	1	13
517.614	1	4
517.784	1	-4
517.954	1	-5
518.124	1	7
518.294	1	2
518.465	1	4
518.635	1	7
518.805	1	1
518.975	1	13
519.145	1	7
519.315	1	-2
519.485	1	-2
519.656	1	-2
519.826	1	13
519.996	1	21
520.166	1	11
520.336	1	10
520.506	1	15
520.676	1	5
520.846	1	0
521.017	1	-8
521.187	1	10
521.357	1	1
521.527	1	9
521.697	1	14
521.867	1	14
522.037	1	4
522.207	1	8
522.377	1	7
522.548	1	-1
522.718	1	-1
522.888	1	-4
523.058	1	18
523.228	1	11
523.398	1	8
523.568	1	-2
523.738	1	-6
523.909	1	17
524.079	1	13
524.249	1	5
524.419	1	4
524.589	1	9
524.759	1	5
524.929	1	12
525.099	1	4
525.269	1	8
525.439	1	-1
525.610	1	4
525.780	1	4
525.950	1	-2
526.120	1	3
526.290	1	9
526.460	1	16
526.630	1	12
526.800	1	-3
526.970	1	2
527.140	1	-3
527.311	1	12
527.481	1	17
527.651	1	16
527.821	1	3
527.991	1	11
528.161	1	7
528.331	1	7
528.501	1	0
528.671	1	8
528.841	1	4
529.011	1	3
529.181	1	9
529.352	1	10
529.522	1	5
529.692	1	15
529.862	1	5
530.032	1	3
530.202	1	5
530.372	1	5
530.542	1	10
530.712	1	23
530.882	1	3
531.052	1	12
531.222	1	-2
531.392	1	3
531.563	1	7
531.733	1	7
531.903	1	10
532.073	1	10
532.243	1	4
532.413	1	11
532.583	1	10
532.753	1	2
532.923	1	-1
533.093	1	17
533.263	1	8
533.433	1	16
533.603	1	3
533.773	1	5
533.943	1	10
534.113	1	-8
534.284	1	7
534.454	1	11
534.624	1	14
534.794	1	10
534.964	1	-7
535.134	1	6
535.304	1	12
535.474	1	3
535.644	1	13
535.814	1	7
535.984	1	3
536.154	1	6
536.324	1	1
536.494	1	11
536.664	1	8
536.834	1	8
537.004	1	18
537.174	1	10
537.344	1	11
537.514	1	8
537.685	1	7
537.855	1	18
538.025	1	11
538.195	1	12
538.365	1	13
538.535	1	22
538.705	1	8
538.875	1	5
539.045	1	18
539.215	1	-7
539.385	1	7
539.555	1	8
539.725	1	12
539.895	1	-2
540.065	1	6
540.235	1	1
540.405	1	11
540.575	1	3
540.745	1	2
540.915	1	11
541.085	1	7
541.255	1	-3
541.425	1	6
541.595	1	10
541.765	1	2
541.935	1	16
542.105	1	6
542.275	1	6
542.445	1	5
542.615	1	-5
542.785	1	5
542.955	1	12
543.125	1	6
543.295	1	-1
543.465	1	16
543.635	1	8
543.805	1	15
543.975	1	-1
544.145	1	8
544.315	1	5
544.485	1	8
544.655	1	11
544.825	1	13
544.995	1	5
545.165	1	1
545.335	1	7
545.505	1	6
545.675	1	14
545.845	1	9
546.015	1	-2
546.185	1	-3
546.355	1	15
546.525	1	14
546.695	1	-1
546.865	1	-6
547.035	1	10
547.205	1	2
547.375	1	14
547.545	1	11
547.715	1	4
547.885	1	4
548.055	1	9
548.225	1	-6
548.395	1	9
548.565	1	8
548.735	1	13
548.905	1	-14
549.075	1	-5
549.245	1	5
549.415	1	7
549.585	1	2
549.755	1	8
549.925	1	9
550.095	1	15
550.265	1	2
550.435	1	12
550.605	1	-4
550.775	1	-4
550.945	1	9
551.115	1	-4
551.285	1	3
551.455	1	7
551.625	1	-10
551.795	1	7
551.965	1	5
552.135	1	1
552.305	1	9
552.475	1	1
552.645	1	4
552.815	1	2
552.985	1	10
553.155	1	14
553.325	1	3
553.495	1	3
553.665	1	12
553.835	1	-9
554.004	1	8
554.174	1	4
554.344	1	-1
554.514	1	11
554.684	1	8
554.854	1	20
555.024	1	1
555.194	1	22
555.364	1	16
555.534	1	5
555.704	1	6
555.874	1	6
556.044	1	5
556.214	1	11
556.384	1	18
556.554	1	-4
556.724	1	-5
556.894	1	18
557.064	1	0
557.234	1	7
557.404	1	1
557.573	1	10
557.743	1	7
557.913	1	1
558.083	1	1
558.253	1	0
558.423	1	-2
558.593	1	-4
558.763	1	0
558.933	1	9
559.103	1	10
559.273	1	-1
559.443	1	2
559.613	1	0
559.783	1	12
559.953	1	8
560.122	1	-6
560.292	1	-3
560.462	1	3
560.632	1	8
560.802	1	6
560.972	1	15
561.142	1	7
561.312	1	14
561.482	1	4
561.652	1	4
561.822	1	5
561.992	1	15
562.162	1	6
562.331	1	5
562.501	1	0
562.671	1	7
562.841	1	4
563.011	1	11
563.181	1	17
563.351	1	-3
563.521	1	4
563.691	1	-2
563.861	1	9
564.031	1	5
564.201	1	7
564.370	1	5
564.540	1	18
564.710	1	0
564.880	1	2
565.050	1	8
565.220	1	-4
565.390	1	3
565.560	1	5
565.730	1	-4
565.900	1	0
566.069	1	14
566.239	1	-1
566.409	1	8
566.579	1	0
566.749	1	5
566.919	1	16
567.089	1	5
567.259	1	8
567.429	1	1
567.599	1	8
567.768	1	6
567.938	1	12
568.108	1	2
568.278	1	-5
568.448	1	0
568.618	1	1
568.788	1	-1
568.958	1	2
569.128	1	3
569.297	1	10
569.467	1	14
569.637	1	10
569.807	1	6
569.977	1	8
570.147	1	1
570.317	1	20
570.487	1	9
570.656	1	1
570.826	1	5
570.996	1	-2
571.166	1	-6
571.336	1	9
571.506	1	0
571.676	1	11
571.846	1	5
572.015	1	-1
572.185	1	1
572.355	1	21
572.525	1	5
572.695	1	13
572.865	1	2
573.035	1	0
573.205	1	12
573.374	1	4
573.544	1	1
573.714	1	8
573.884	1	0
574.054	1	8
574.224	1	4
574.394	1	4
574.563	1	7
574.733	1	2
574.903	1	7
575.073	1	1
575.243	1	-6
575.413	1	2
575.583	1	6
575.752	1	1
575.922	1	7
576.092	1	10
576.262	1	5
576.432	1	-3
576.602	1	-4
576.772	1	2
576.941	1	4
577.111	1	2
577.281	1	-1
577.451	1	-4
577.621	1	-4
577.791	1	1
577.960	1	-8
578.130	1	5
578.300	1	4
578.470	1	8
578.640	1	-3
578.810	1	10
578.979	1	9
579.149	1	-1
579.319	1	8
579.489	1	1
579.659	1	10
579.829	1	3
579.998	1	-2
580.168	1	4
580.338	1	-9
580.508	1	1
580.678	1	1
580.848	1	10
581.017	1	3
581.187	1	3
581.357	1	5
581.527	1	3
581.697	1	-6
581.867	1	-11
582.036	1	9
582.206	1	-11
582.376	1	5
582.546	1	2
582.716	1	-11
582.885	1	6
583.055	1	5
583.225	1	0
583.395	1	2
583.565	1	14
583.735	1	1
583.904	1	7
584.074	1	-4
584.244	1	0
584.414	1	2
584.584	1	11
584.753	1	5
584.923	1	1
585.093	1	1
585.263	1	5
585.433	1	0
585.602	1	2
585.772	1	-3
585.942	1	10
586.112	1	6
586.282	1	10
586.451	1	-1
586.621	1	1
586.791	1	5
586.961	1	-2
587.131	1	-3
587.300	1	-4
587.470	1	8
587.640	1	0
587.810	1	3
587.980	1	2
588.149	1	5
588.319	1	-2
588.489	1	2
588.659	1	1
588.829	1	9
588.998	1	-6
589.168	1	10
589.338	1	6
589.508	1	4
589.677	1	4
589.847	1	6
590.017	1	-10
590.187	1	-6
590.357	1	-1
590.526	1	10
590.696	1	2
590.866	1	0
591.036	1	5
591.205	1	2
591.375	1	-7
591.545	1	-6
591.715	1	-9
591.885	1	3
592.054	1	6
592.224	1	6
592.394	1	4
592.564	1	-1
592.733	1	1
592.903	1	-1
593.073	1	11
593.243	1	-9
593.412	1	5
593.582	1	11
593.752	1	1
593.922	1	-4
594.091	1	8
594.261	1	2
594.431	1	0
594.601	1	-9
594.771	1	8
594.940	1	0
595.110	1	9
595.280	1	1
595.450	1	1
595.619	1	1
595.789	1	6
595.959	1	-1
596.129	1	-2
596.298	1	-1
596.468	1	3
596.638	1	4
596.808	1	8
596.977	1	4
597.147	1	-1
597.317	1	11
597.487	1	6
597.656	1	-8
597.826	1	-5
597.996	1	1
598.166	1	0
598.335	1	2
598.505	1	3
598.675	1	4
598.844	1	-1
599.014	1	-9
599.184	1	2
599.354	1	-5
599.523	1	-3
599.693	1	12
599.863	1	10
600.033	1	-5
600.202	1	-2
600.372	1	1
600.542	1	-1
600.712	1	-1
600.881	1	2
601.051	1	9
601.221	1	-6
601.390	1	-11
601.560	1	1
601.730	1	1
601.900	1	4
602.069	1	-5
602.239	1	-7
602.409	1	-6
602.578	1	6
602.748	1	-5
602.918	1	0
603.088	1	7
603.257	1	11
603.427	1	3
603.597	1	17
603.767	1	-5
603.936	1	6
604.106	1	7
604.276	1	2
604.445	1	4
604.615	1	-2
604.785	1	5
604.954	1	6
605.124	1	-7
605.294	1	12
605.464	1	-4
605.633	1	11
605.803	1	-5
605.973	1	2
606.142	1	-5
606.312	1	-9
606.482	1	5
606.652	1	-12
606.821	1	6
606.991	1	1
607.161	1	2
607.330	1	11
607.500	1	10
607.670	1	3
607.839	1	13
608.009	1	-6
608.179	1	8
608.348	1	0
608.518	1	4
608.688	1	0
608.858	1	4
609.027	1	7
609.197	1	4
609.367	1	1
609.536	1	-6
609.706	1	-5
609.876	1	0
610.045	1	-4
610.215	1	-5
610.385	1	-6
610.554	1	1
610.724	1	2
610.894	1	6
611.063	1	11
611.233	1	-8
611.403	1	-3
611.572	1	10
611.742	1	-6
611.912	1	-6
612.081	1	-5
612.251	1	0
612.421	1	16
612.590	1	1
612.760	1	2
612.930	1	5
613.099	1	-3
613.269	1	-5
613.439	1	-5
613.608	1	-2
613.778	1	2
613.948	1	8
614.117	1	12
614.287	1	-7
614.457	1	6
614.626	1	5
614.796	1	11
614.966	1	4
615.135	1	-9
615.305	1	6
615.475	1	5
615.644	1	0
615.814	1	2
615.984	1	16
616.153	1	1
616.323	1	3
616.493	1	11
616.662	1	-7
616.832	1	-1
617.002	1	-3
617.171	1	-5
617.341	1	5
617.511	1	-4
617.680	1	-2
617.850	1	9
618.019	1	2
618.189	1	-6
618.359	1	0
618.528	1	-4
618.698	1	2
618.868	1	10
619.037	1	-2
619.207	1	0
619.377	1	-12
619.546	1	6
619.716	1	1
619.885	1	8
620.055	1	11
620.225	1	4
620.394	1	-5
620.564	1	-5
620.734	1	3
620.903	1	-2
621.073	1	-1
621.242	1	-5
621.412	1	-1
621.582	1	6
621.751	1	0
621.921	1	4
622.091	1	-4
622.260	1	1
622.430	1	3
622.599	1	12
622.769	1	1
622.939	1	3
623.108	1	3
623.278	1	-3
623.448	1	-7
623.617	1	12
623.787	1	3
623.956	1	6
624.126	1	-4
624.296	1	0
624.465	1	6
624.635	1	-2
624.804	1	-6
624.974	1	-4
625.144	1	-4
625.313	1	1
625.483	1	5
625.652	1	4
625.822	1	7
625.992	1	-3
626.161	1	8
626.331	1	-2
626.501	1	9
626.670	1	5
626.840	1	12
627.009	1	-7
627.179	1	1
627.348	1	-8
627.518	1	0
627.688	1	13
627.857	1	13
628.027	1	11
628.196	1	9
628.366	1	7
628.536	1	-2
628.705	1	2
628.875	1	6
629.044	1	8
629.214	1	-2
629.384	1	-16
629.553	1	2
629.723	1	3
629.892	1	6
630.062	1	1
630.232	1	15
630.401	1	-3
630.571	1	0
630.740	1	8
630.910	1	8
631.079	1	10
631.249	1	-6
631.419	1	10
631.588	1	-8
631.758	1	7
631.927	1	3
632.097	1	4
632.266	1	-2
632.436	1	-5
632.606	1	1
632.775	1	0
632.945	1	-5
633.114	1	6
633.284	1	-7
633.453	1	-10
633.623	1	8
633.793	1	7
633.962	1	8
634.132	1	4
634.301	1	3
634.471	1	-10
634.640	1	6
634.810	1	-5
634.979	1	13
635.149	1	-1
635.319	1	0
635.488	1	2
635.658	1	2
635.827	1	-2
635.997	1	0
636.166	1	0
636.336	1	11
636.505	1	4
636.675	1	5
636.845	1	5
637.014	1	-3
637.184	1	-2
637.353	1	5
637.523	1	-2
637.692	1	-4
637.862	1	-14
638.031	1	9
638.201	1	3
638.370	1	1
638.540	1	5
638.710	1	-1
638.879	1	2
639.049	1	-1
639.218	1	5
639.388	1	4
639.557	1	2
639.727	1	2
639.896	1	4
640.066	1	3
640.235	1	8
640.405	1	-1
640.574	1	1
640.744	1	5
640.914	1	3
641.083	1	1
641.253	1	5
641.422	1	3
641.592	1	-13
641.761	1	5
641.931	1	6
642.100	1	-5
642.270	1	10
642.439	1	3
642.609	1	0
642.778	1	-6
642.948	1	4
643.117	1	1
643.287	1	4
643.456	1	11
643.626	1	2
643.795	1	6
643.965	1	-7
644.134	1	4
644.304	1	-4
644.473	1	3
644.643	1	-3
644.812	1	9
644.982	1	3
645.151	1	-6
645.321	1	9
645.490	1	0
645.660	1	-4
645.829	1	-1
645.999	1	-1
646.168	1	9
646.338	1	8
646.507	1	3
646.677	1	-5
646.846	1	2
647.016	1	-3
647.185	1	-1
647.355	1	-2
647.524	1	8
647.694	1	-5
647.863	1	0
648.033	1	-7
648.202	1	2
648.372	1	5
648.541	1	-2
648.711	1	8
648.880	1	-2
649.050	1	3
649.219	1	6
649.389	1	-1
649.558	1	-4
649.728	1	3
649.897	1	-3
650.067	1	-8
650.236	1	9
650.406	1	7
650.575	1	-3
650.745	1	-9
650.914	1	4
651.084	1	-7
651.253	1	3
651.423	1	7
651.592	1	-3
651.762	1	12
651.931	1	1
652.101	1	1
652.270	1	-2
652.440	1	2
652.609	1	6
652.778	1	-5
652.948	1	3
653.117	1	9
653.287	1	11
653.456	1	-2
653.626	1	7
653.795	1	1
653.965	1	9
654.134	1	3
654.304	1	8
654.473	1	12
654.643	1	14
654.812	1	4
654.982	1	-11
655.151	1	-9
655.320	1	-10
655.490	1	1
655.659	1	6
655.829	1	-3
655.998	1	2
656.168	1	-1
656.337	1	0
656.507	1	4
656.676	1	-7
656.846	1	-5
657.015	1	-6
657.184	1	4
657.354	1	4
657.523	1	-4
657.693	1	-1
657.862	1	2
658.032	1	16
658.201	1	0
658.371	1	-7
658.540	1	0
658.709	1	2
658.879	1	-7
659.048	1	0
659.218	1	-7
659.387	1	-5
659.557	1	-5
659.726	1	5
659.895	1	6
660.065	1	3
660.234	1	3
660.404	1	3
660.573	1	-9
660.743	1	-4
660.912	1	6
661.081	1	2
661.251	1	5
661.420	1	3
661.590	1	2
661.759	1	4
661.929	1	4
662.098	1	-13
662.267	1	13
662.437	1	0
662.606	1	10
662.776	1	9
662.945	1	0
663.115	1	-3
663.284	1	-1
663.453	1	3
663.623	1	-3
663.792	1	0
663.962	1	-7
664.131	1	-7
664.300	1	5
664.470	1	-7
664.639	1	0
664.809	1	6
664.978	1	-1
665.148	1	-1
665.317	1	-4
665.486	1	1
665.656	1	1
665.825	1	2
665.995	1	-1
666.164	1	3
666.333	1	9
666.503	1	-2
666.672	1	-7
666.842	1	-5
667.011	1	8
667.180	1	-4
667.350	1	10
667.519	1	4
667.689	1	2
667.858	1	4
668.027	1	-3
668.197	1	4
668.366	1	-6
668.536	1	-2
668.705	1	-2
668.874	1	-6
669.044	1	-3
669.213	1	6
669.382	1	-3
669.552	1	1
669.721	1	-5
669.891	1	0
670.060	1	3
670.229	1	-3
670.399	1	9
670.568	1	5
670.738	1	-7
670.907	1	-7
671.076	1	13
671.246	1	-5
671.415	1	1
671.584	1	1
671.754	1	-12
671.923	1	1
672.093	1	8
672.262	1	-2
672.431	1	9
672.601	1	2
672.770	1	10
672.939	1	0
673.109	1	2
673.278	1	5
673.448	1	2
673.617	1	4
673.786	1	-10
