325.333	1	1
325.504	1	0
325.675	1	4
325.846	1	2
326.017	1	-7
326.188	1	8
326.359	1	4
326.531	1	1
326.702	1	-1
326.873	1	7
327.044	1	2
327.215	1	1
327.386	1	-2
327.557	1	-5
327.728	1	4
327.899	1	-1
328.070	1	5
328.241	1	2
328.412	1	8
328.583	1	-11
328.754	1	5
328.926	1	6
329.097	1	13
329.268	1	-4
329.439	1	-6
329.610	1	7
329.781	1	-1
329.952	1	10
330.123	1	3
330.294	1	7
330.465	1	-2
330.636	1	7
330.807	1	4
330.978	1	9
331.149	1	6
331.320	1	2
331.492	1	0
331.663	1	-5
331.834	1	11
332.005	1	-4
332.176	1	2
332.347	1	7
332.518	1	7
332.689	1	7
332.860	1	-1
333.031	1	9
333.202	1	-5
333.373	1	-11
333.544	1	-3
333.715	1	10
333.886	1	0
334.057	1	-7
334.228	1	3
334.399	1	4
334.570	1	0
334.741	1	-14
334.912	1	1
335.084	1	1
335.255	1	-2
335.426	1	-1
335.597	1	3
335.768	1	8
335.939	1	1
336.110	1	-4
336.281	1	-4
336.452	1	2
336.623	1	1
336.794	1	-9
336.965	1	3
337.136	1	1
337.307	1	5
337.478	1	11
337.649	1	3
337.820	1	17
337.991	1	2
338.162	1	-1
338.333	1	2
338.504	1	-3
338.675	1	6
338.846	1	-6
339.017	1	4
339.188	1	-1
339.359	1	-1
339.530	1	8
339.701	1	2
339.872	1	-2
340.043	1	-2
340.214	1	3
340.385	1	3
340.556	1	-1
340.727	1	1
340.898	1	4
341.069	1	11
341.240	1	6
341.411	1	7
341.582	1	-1
341.753	1	3
341.924	1	4
342.095	1	2
342.266	1	-9
342.437	1	4
342.608	1	2
342.779	1	1
342.950	1	3
343.121	1	9
343.292	1	-1
343.463	1	-5
343.634	1	-4
343.805	1	6
343.976	1	8
344.147	1	4
344.318	1	7
344.489	1	-4
344.660	1	12
344.831	1	-5
345.002	1	1
345.173	1	6
345.344	1	0
345.515	1	2
345.686	1	7
345.857	1	-8
346.028	1	-6
346.199	1	-4
346.370	1	-1
346.541	1	-6
346.712	1	6
346.883	1	2
347.054	1	4
347.225	1	-3
347.396	1	0
347.567	1	-1
347.738	1	13
347.909	1	10
348.080	1	-3
348.251	1	6
348.422	1	13
348.593	1	2
348.764	1	-2
348.935	1	11
349.106	1	8
349.277	1	-3
349.448	1	-2
349.619	1	7
349.790	1	5
349.961	1	10
350.132	1	3
350.303	1	2
350.474	1	9
350.645	1	2
350.816	1	-1
350.987	1	2
351.157	1	9
351.328	1	1
351.499	1	6
351.670	1	12
351.841	1	10
352.012	1	-6
352.183	1	2
352.354	1	6
352.525	1	8
352.696	1	4
352.867	1	2
353.038	1	12
353.209	1	-2
353.380	1	2
353.551	1	19
353.722	1	-7
353.893	1	10
354.064	1	17
354.235	1	13
354.406	1	-2
354.576	1	18
354.747	1	4
354.918	1	-7
355.089	1	2
355.260	1	9
355.431	1	12
355.602	1	11
355.773	1	8
355.944	1	13
356.115	1	-3
356.286	1	3
356.457	1	-2
356.628	1	13
356.799	1	7
356.970	1	3
357.141	1	7
357.311	1	-3
357.482	1	7
357.653	1	5
357.824	1	19
357.995	1	9
358.166	1	13
358.337	1	9
358.508	1	8
358.679	1	20
358.850	1	8
359.021	1	6
359.192	1	13
359.363	1	24
359.533	1	5
359.704	1	15
359.875	1	17
360.046	1	15
360.217	1	21
360.388	1	24
360.559	1	17
360.730	1	12
360.901	1	15
361.072	1	21
361.243	1	21
361.414	1	23
361.584	1	24
361.755	1	32
361.926	1	23
362.097	1	18
362.268	1	21
362.439	1	26
362.610	1	15
362.781	1	20
362.952	1	29
363.123	1	28
363.293	1	27
363.464	1	42
363.635	1	29
363.806	1	42
363.977	1	48
364.148	1	41
364.319	1	41
364.490	1	41
364.661	1	34
364.832	1	30
365.002	1	58
365.173	1	54
365.344	1	55
365.515	1	59
365.686	1	51
365.857	1	51
366.028	1	59
366.199	1	49
366.370	1	65
366.540	1	56
366.711	1	58
366.882	1	53
367.053	1	52
367.224	1	53
367.395	1	54
367.566	1	54
367.737	1	36
367.908	1	46
368.078	1	54
368.249	1	48
368.420	1	43
368.591	1	51
368.762	1	42
368.933	1	43
369.104	1	50
369.274	1	39
369.445	1	40
369.616	1	38
369.787	1	49
369.958	1	24
370.129	1	36
370.300	1	22
370.471	1	36
370.641	1	36
370.812	1	40
370.983	1	44
371.154	1	33
371.325	1	34
371.496	1	18
371.667	1	41
371.837	1	25
372.008	1	23
372.179	1	26
372.350	1	33
372.521	1	21
372.692	1	17
372.863	1	34
373.033	1	23
373.204	1	31
373.375	1	25
373.546	1	20
373.717	1	27
373.888	1	15
374.059	1	22
374.229	1	11
374.400	1	21
374.571	1	30
374.742	1	24
374.913	1	12
375.084	1	19
375.254	1	18
375.425	1	20
375.596	1	9
375.767	1	27
375.938	1	17
376.109	1	9
376.279	1	1
376.450	1	19
376.621	1	23
376.792	1	5
376.963	1	13
377.134	1	15
377.304	1	19
377.475	1	22
377.646	1	16
377.817	1	31
377.988	1	11
378.159	1	22
378.329	1	17
378.500	1	12
378.671	1	11
378.842	1	8
379.013	1	19
379.184	1	23
379.354	1	16
379.525	1	14
379.696	1	17
379.867	1	15
380.038	1	25
380.209	1	21
380.379	1	15
380.550	1	20
380.721	1	31
380.892	1	23
381.063	1	16
381.233	1	28
381.404	1	23
381.575	1	23
381.746	1	24
381.917	1	27
382.087	1	37
382.258	1	41
382.429	1	40
382.600	1	44
382.771	1	40
382.941	1	52
383.112	1	37
383.283	1	44
383.454	1	46
383.625	1	56
383.795	1	66
383.966	1	71
384.137	1	60
384.308	1	72
384.479	1	71
384.649	1	63
384.820	1	69
384.991	1	74
385.162	1	69
385.333	1	79
385.503	1	76
385.674	1	80
385.845	1	82
386.016	1	91
386.187	1	85
386.357	1	68
386.528	1	84
386.699	1	93
386.870	1	92
387.041	1	81
387.211	1	81
387.382	1	78
387.553	1	85
387.724	1	80
387.894	1	94
388.065	1	73
388.236	1	85
388.407	1	77
388.578	1	76
388.748	1	83
388.919	1	70
389.090	1	77
389.261	1	62
389.431	1	82
389.602	1	83
389.773	1	72
389.944	1	66
390.114	1	78
390.285	1	64
390.456	1	75
390.627	1	71
390.798	1	75
390.968	1	57
391.139	1	52
391.310	1	68
391.481	1	58
391.651	1	78
391.822	1	73
391.993	1	77
392.164	1	70
392.334	1	76
392.505	1	58
392.676	1	61
392.847	1	64
393.017	1	62
393.188	1	67
393.359	1	77
393.530	1	66
393.700	1	70
393.871	1	59
394.042	1	50
394.213	1	74
394.383	1	66
394.554	1	72
394.725	1	68
394.896	1	61
395.066	1	72
395.237	1	76
395.408	1	71
395.579	1	69
395.749	1	79
395.920	1	69
396.091	1	82
396.262	1	66
396.432	1	63
396.603	1	69
396.774	1	70
396.945	1	81
397.115	1	85
397.286	1	86
397.457	1	73
397.627	1	69
397.798	1	62
397.969	1	69
398.140	1	74
398.310	1	83
398.481	1	74
398.652	1	80
398.823	1	80
398.993	1	68
399.164	1	82
399.335	1	67
399.505	1	71
399.676	1	68
399.847	1	73
400.018	1	74
400.188	1	83
400.359	1	60
400.530	1	65
400.700	1	61
400.871	1	49
401.042	1	61
401.213	1	56
401.383	1	57
401.554	1	60
401.725	1	48
401.895	1	70
402.066	1	52
402.237	1	59
402.408	1	56
402.578	1	50
402.749	1	54
402.920	1	45
403.090	1	46
403.261	1	58
403.432	1	46
403.603	1	51
403.773	1	57
403.944	1	64
404.115	1	41
404.285	1	47
404.456	1	39
404.627	1	48
404.797	1	62
404.968	1	45
405.139	1	55
405.310	1	55
405.480	1	53
405.651	1	53
405.822	1	53
405.992	1	51
406.163	1	45
406.334	1	39
406.504	1	45
406.675	1	58
406.846	1	34
407.016	1	47
407.187	1	39
407.358	1	48
407.528	1	56
407.699	1	48
407.870	1	57
408.041	1	43
408.211	1	44
408.382	1	45
408.553	1	47
408.723	1	43
408.894	1	42
409.065	1	48
409.235	1	45
409.406	1	46
409.577	1	49
409.747	1	40
409.918	1	42
410.089	1	48
410.259	1	38
410.430	1	46
410.601	1	40
410.771	1	52
410.942	1	48
411.113	1	53
411.283	1	36
411.454	1	39
411.625	1	37
411.795	1	55
411.966	1	30
412.137	1	27
412.307	1	38
412.478	1	39
412.649	1	43
412.819	1	37
412.990	1	47
413.161	1	38
413.331	1	23
413.502	1	36
413.672	1	40
413.843	1	37
414.014	1	24
414.184	1	27
414.355	1	26
414.526	1	28
414.696	1	25
414.867	1	37
415.038	1	31
415.208	1	27
415.379	1	35
415.550	1	31
415.720	1	40
415.891	1	42
416.062	1	36
416.232	1	21
416.403	1	35
416.573	1	33
416.744	1	25
416.915	1	27
417.085	1	26
417.256	1	30
417.427	1	19
417.597	1	28
417.768	1	32
417.939	1	24
418.109	1	36
418.280	1	27
418.450	1	20
418.621	1	31
418.792	1	28
418.962	1	17
419.133	1	34
419.304	1	28
419.474	1	27
419.645	1	41
419.815	1	17
419.986	1	27
420.157	1	25
420.327	1	30
420.498	1	31
420.669	1	34
420.839	1	25
421.010	1	39
421.180	1	29
421.351	1	23
421.522	1	29
421.692	1	30
421.863	1	16
422.033	1	7
422.204	1	18
422.375	1	22
422.545	1	23
422.716	1	15
422.886	1	15
423.057	1	20
423.228	1	8
423.398	1	20
423.569	1	19
423.740	1	7
423.910	1	8
424.081	1	17
424.251	1	11
424.422	1	24
424.593	1	28
424.763	1	19
424.934	1	9
425.104	1	19
425.275	1	12
425.445	1	12
425.616	1	19
425.787	1	3
425.957	1	28
426.128	1	16
426.298	1	21
426.469	1	17
426.640	1	10
426.810	1	17
426.981	1	10
427.151	1	15
427.322	1	16
427.493	1	26
427.663	1	17
427.834	1	12
428.004	1	19
428.175	1	19
428.345	1	20
428.516	1	15
428.687	1	7
428.857	1	16
429.028	1	16
429.198	1	9
429.369	1	17
429.540	1	23
429.710	1	15
429.881	1	21
430.051	1	19
430.222	1	10
430.392	1	13
430.563	1	30
430.734	1	18
430.904	1	9
431.075	1	18
431.245	1	16
431.416	1	14
431.586	1	15
431.757	1	13
431.927	1	21
432.098	1	4
432.269	1	8
432.439	1	5
432.610	1	11
432.780	1	7
432.951	1	0
433.121	1	18
433.292	1	9
433.462	1	11
433.633	1	5
433.804	1	6
433.974	1	-4
434.145	1	11
434.315	1	9
434.486	1	15
434.656	1	12
434.827	1	8
434.997	1	11
435.168	1	10
435.339	1	17
435.509	1	20
435.680	1	5
435.850	1	18
436.021	1	13
436.191	1	-1
436.362	1	10
436.532	1	11
436.703	1	15
436.873	1	5
437.044	1	6
437.214	1	3
437.385	1	15
437.556	1	10
437.726	1	14
437.897	1	8
438.067	1	13
438.238	1	0
438.408	1	3
438.579	1	19
438.749	1	13
438.920	1	9
439.090	1	20
439.261	1	9
439.431	1	8
439.602	1	9
439.772	1	14
439.943	1	7
440.113	1	2
440.284	1	10
440.455	1	7
440.625	1	9
440.796	1	12
440.966	1	13
441.137	1	5
441.307	1	13
441.478	1	12
441.648	1	6
441.819	1	9
441.989	1	-3
442.160	1	10
442.330	1	19
442.501	1	-1
442.671	1	5
442.842	1	13
443.012	1	10
443.183	1	3
443.353	1	13
443.524	1	5
443.694	1	12
443.865	1	5
444.035	1	6
444.206	1	4
444.376	1	14
444.547	1	-1
444.717	1	18
444.888	1	-6
445.058	1	10
445.229	1	5
445.399	1	13
445.570	1	14
445.740	1	15
445.911	1	19
446.081	1	3
446.252	1	-5
446.422	1	0
446.593	1	10
446.763	1	16
446.934	1	13
447.104	1	-10
447.275	1	-1
447.445	1	7
447.616	1	5
447.786	1	3
447.957	1	9
448.127	1	4
448.298	1	5
448.468	1	5
448.639	1	7
448.809	1	3
448.979	1	7
449.150	1	5
449.320	1	3
449.491	1	-4
449.661	1	3
449.832	1	9
450.002	1	2
450.173	1	2
450.343	1	2
450.514	1	12
450.684	1	-1
450.855	1	9
451.025	1	3
451.196	1	14
451.366	1	7
451.537	1	-3
451.707	1	0
451.878	1	6
452.048	1	1
452.218	1	9
452.389	1	-6
452.559	1	4
452.730	1	7
452.900	1	17
453.071	1	11
453.241	1	3
453.412	1	-2
453.582	1	11
453.753	1	3
453.923	1	4
454.093	1	8
454.264	1	-5
454.434	1	8
454.605	1	1
454.775	1	10
454.946	1	12
455.116	1	8
455.287	1	6
455.457	1	3
455.628	1	2
455.798	1	-1
455.968	1	7
456.139	1	0
456.309	1	4
456.480	1	-1
456.650	1	7
456.821	1	11
456.991	1	7
457.161	1	7
457.332	1	8
457.502	1	6
457.673	1	-2
457.843	1	8
458.014	1	7
458.184	1	13
458.355	1	12
458.525	1	8
458.695	1	2
458.866	1	-1
459.036	1	6
459.207	1	7
459.377	1	3
459.548	1	4
459.718	1	-4
459.888	1	19
460.059	1	7
460.229	1	10
460.400	1	7
460.570	1	1
460.740	1	-1
460.911	1	18
461.081	1	4
461.252	1	3
461.422	1	6
461.593	1	2
461.763	1	11
461.933	1	-1
462.104	1	0
462.274	1	2
462.445	1	-3
462.615	1	-7
462.785	1	2
462.956	1	-2
463.126	1	-1
463.297	1	2
463.467	1	10
463.638	1	16
463.808	1	4
463.978	1	0
464.149	1	1
464.319	1	1
464.490	1	5
464.660	1	12
464.830	1	2
465.001	1	10
465.171	1	7
465.342	1	10
465.512	1	11
465.682	1	-1
465.853	1	-1
466.023	1	-2
466.194	1	-3
466.364	1	11
466.534	1	0
466.705	1	12
466.875	1	8
467.045	1	9
467.216	1	3
467.386	1	4
467.557	1	6
467.727	1	2
467.897	1	14
468.068	1	9
468.238	1	-4
468.409	1	13
468.579	1	16
468.749	1	9
468.920	1	-1
469.090	1	9
469.260	1	10
469.431	1	10
469.601	1	1
469.772	1	-9
469.942	1	-1
470.112	1	8
470.283	1	15
470.453	1	7
470.623	1	14
470.794	1	2
470.964	1	-2
471.135	1	-6
471.305	1	-4
471.475	1	3
471.646	1	3
471.816	1	6
471.986	1	0
472.157	1	11
472.327	1	4
472.497	1	8
472.668	1	1
472.838	1	11
473.009	1	1
473.179	1	17
473.349	1	11
473.520	1	10
473.690	1	10
473.860	1	7
474.031	1	7
474.201	1	-3
474.371	1	5
474.542	1	8
474.712	1	5
474.882	1	1
475.053	1	-6
475.223	1	9
475.394	1	10
475.564	1	17
475.734	1	6
475.905	1	7
476.075	1	7
476.245	1	-3
476.416	1	-4
476.586	1	8
476.756	1	3
476.927	1	13
477.097	1	3
477.267	1	5
477.438	1	-5
477.608	1	15
477.778	1	12
477.949	1	11
478.119	1	5
478.289	1	3
478.460	1	-3
478.630	1	3
478.800	1	-4
478.971	1	8
479.141	1	15
479.311	1	3
479.482	1	-5
479.652	1	11
479.822	1	0
479.993	1	-3
480.163	1	1
480.333	1	3
480.504	1	6
480.674	1	9
480.844	1	13
481.015	1	-2
481.185	1	11
481.355	1	11
481.525	1	6
481.696	1	7
481.866	1	7
482.036	1	2
482.207	1	14
482.377	1	2
482.547	1	1
482.718	1	15
482.888	1	-11
483.058	1	-2
483.229	1	8
483.399	1	8
483.569	1	18
483.740	1	-1
483.910	1	10
484.080	1	7
484.250	1	2
484.421	1	0
484.591	1	10
484.761	1	-9
484.932	1	11
485.102	1	7
485.272	1	17
485.443	1	11
485.613	1	-3
485.783	1	13
485.953	1	-11
486.124	1	8
486.294	1	6
486.464	1	-2
486.635	1	13
486.805	1	24
486.975	1	-6
487.146	1	9
487.316	1	14
487.486	1	9
487.656	1	0
487.827	1	11
487.997	1	13
488.167	1	6
488.338	1	14
488.508	1	13
488.678	1	3
488.848	1	11
489.019	1	5
489.189	1	6
489.359	1	14
489.529	1	3
489.700	1	15
489.870	1	8
490.040	1	7
490.211	1	21
490.381	1	1
490.551	1	-2
490.721	1	11
490.892	1	11
491.062	1	22
491.232	1	12
491.402	1	-10
491.573	1	9
491.743	1	-3
491.913	1	12
492.084	1	13
492.254	1	3
492.424	1	12
492.594	1	10
492.765	1	14
492.935	1	8
493.105	1	11
493.275	1	7
493.446	1	6
493.616	1	18
493.786	1	13
493.956	1	8
494.127	1	15
494.297	1	17
494.467	1	10
494.637	1	7
494.808	1	15
494.978	1	12
495.148	1	18
495.318	1	18
495.489	1	6
495.659	1	6
495.829	1	7
495.999	1	16
496.170	1	-1
496.340	1	10
496.510	1	17
496.680	1	20
496.851	1	12
497.021	1	10
497.191	1	5
497.361	1	7
497.532	1	6
497.702	1	7
497.872	1	4
498.042	1	14
498.213	1	19
498.383	1	11
498.553	1	20
498.723	1	22
498.894	1	15
499.064	1	24
499.234	1	11
499.404	1	15
499.574	1	15
499.745	1	16
499.915	1	20
500.085	1	8
500.255	1	15
500.426	1	1
500.596	1	5
500.766	1	21
500.936	1	13
501.106	1	16
501.277	1	17
501.447	1	18
501.617	1	23
501.787	1	14
501.958	1	10
502.128	1	18
502.298	1	24
502.468	1	27
502.638	1	24
502.809	1	17
502.979	1	9
503.149	1	19
503.319	1	35
503.489	1	27
503.660	1	14
503.830	1	28
504.000	1	18
504.170	1	19
504.340	1	21
504.511	1	26
504.681	1	24
504.851	1	16
505.021	1	23
505.192	1	23
505.362	1	23
505.532	1	18
505.702	1	17
505.872	1	20
506.043	1	19
506.213	1	27
506.383	1	31
506.553	1	28
506.723	1	28
506.893	1	30
507.064	1	12
507.234	1	25
507.404	1	25
507.574	1	17
507.744	1	21
507.915	1	26
508.085	1	39
508.255	1	37
508.425	1	40
508.595	1	40
508.766	1	24
508.936	1	29
509.106	1	15
509.276	1	19
509.446	1	30
509.616	1	34
509.787	1	23
509.957	1	30
510.127	1	39
510.297	1	19
510.467	1	31
510.638	1	30
510.808	1	11
510.978	1	22
511.148	1	41
511.318	1	32
511.488	1	40
511.659	1	33
511.829	1	40
511.999	1	44
512.169	1	34
512.339	1	32
512.509	1	37
512.680	1	31
512.850	1	29
513.020	1	36
513.190	1	31
513.360	1	44
513.530	1	28
513.700	1	39
513.871	1	46
514.041	1	18
514.211	1	20
514.381	1	33
514.551	1	32
514.721	1	32
514.892	1	43
515.062	1	39
515.232	1	39
515.402	1	30
515.572	1	33
515.742	1	39
515.912	1	37
516.083	1	35
516.253	1	32
516.423	1	45
516.593	1	34
516.763	1	48
516.933	1	27
517.104	1	40
517.274	1	48
517.444	1	37
517.614	1	43
517.784	1	37
517.954	1	30
518.124	1	52
518.294	1	41
518.465	1	37
518.635	1	40
518.805	1	45
518.975	1	55
519.145	1	47
519.315	1	47
519.485	1	33
519.656	1	34
519.826	1	44
519.996	1	53
520.166	1	44
520.336	1	42
520.506	1	51
520.676	1	32
520.846	1	39
521.017	1	30
521.187	1	44
521.357	1	35
521.527	1	44
521.697	1	44
521.867	1	38
522.037	1	35
522.207	1	35
522.377	1	49
522.548	1	33
522.718	1	27
522.888	1	46
523.058	1	52
523.228	1	59
523.398	1	37
523.568	1	40
523.738	1	43
523.909	1	55
524.079	1	46
524.249	1	45
524.419	1	44
524.589	1	44
524.759	1	34
524.929	1	52
525.099	1	42
525.269	1	44
525.439	1	37
525.610	1	42
525.780	1	53
525.950	1	34
526.120	1	38
526.290	1	35
526.460	1	48
526.630	1	48
526.800	1	50
526.970	1	40
527.140	1	38
527.311	1	47
527.481	1	52
527.651	1	56
527.821	1	34
527.991	1	52
528.161	1	45
528.331	1	32
528.501	1	29
528.671	1	47
528.841	1	43
529.011	1	34
529.181	1	46
529.352	1	53
529.522	1	54
529.692	1	54
529.862	1	40
530.032	1	46
530.202	1	44
530.372	1	38
530.542	1	48
530.712	1	40
530.882	1	47
531.052	1	60
531.222	1	39
531.392	1	41
531.563	1	42
531.733	1	44
531.903	1	52
532.073	1	43
532.243	1	51
532.413	1	51
532.583	1	40
532.753	1	47
532.923	1	42
533.093	1	50
533.263	1	49
533.433	1	53
533.603	1	45
533.773	1	46
533.943	1	41
534.113	1	52
534.284	1	48
534.454	1	45
534.624	1	64
534.794	1	54
534.964	1	37
535.134	1	43
535.304	1	55
535.474	1	53
535.644	1	51
535.814	1	47
535.984	1	47
536.154	1	44
536.324	1	43
536.494	1	54
536.664	1	57
536.834	1	48
537.004	1	61
537.174	1	53
537.344	1	46
537.514	1	48
537.685	1	36
537.855	1	40
538.025	1	49
538.195	1	52
538.365	1	49
538.535	1	55
538.705	1	41
538.875	1	36
539.045	1	50
539.215	1	39
539.385	1	36
539.555	1	35
539.725	1	41
539.895	1	48
540.065	1	33
540.235	1	31
540.405	1	46
540.575	1	47
540.745	1	42
540.915	1	48
541.085	1	40
541.255	1	40
541.425	1	45
541.595	1	47
541.765	1	46
541.935	1	40
542.105	1	41
542.275	1	29
542.445	1	51
542.615	1	43
542.785	1	40
542.955	1	41
543.125	1	36
543.295	1	51
543.465	1	45
543.635	1	44
543.805	1	46
543.975	1	48
544.145	1	39
544.315	1	33
544.485	1	43
544.655	1	40
544.825	1	44
544.995	1	37
545.165	1	37
545.335	1	32
545.505	1	38
545.675	1	40
545.845	1	33
546.015	1	41
546.185	1	34
546.355	1	51
546.525	1	52
546.695	1	36
546.865	1	37
547.035	1	48
547.205	1	34
547.375	1	44
547.545	1	36
547.715	1	36
547.885	1	38
548.055	1	42
548.225	1	34
548.395	1	35
548.565	1	46
548.735	1	38
548.905	1	45
549.075	1	32
549.245	1	43
549.415	1	33
549.585	1	34
549.755	1	28
549.925	1	49
550.095	1	47
550.265	1	47
550.435	1	49
550.605	1	40
550.775	1	34
550.945	1	37
551.115	1	21
551.285	1	32
551.455	1	35
551.625	1	28
551.795	1	34
551.965	1	42
552.135	1	37
552.305	1	34
552.475	1	33
552.645	1	40
552.815	1	39
552.985	1	43
553.155	1	29
553.325	1	44
553.495	1	31
553.665	1	31
553.835	1	45
554.004	1	44
554.174	1	40
554.344	1	28
554.514	1	38
554.684	1	44
554.854	1	37
555.024	1	33
555.194	1	40
555.364	1	37
555.534	1	30
555.704	1	45
555.874	1	34
556.044	1	39
556.214	1	24
556.384	1	39
556.554	1	35
556.724	1	23
556.894	1	40
557.064	1	14
557.234	1	37
557.404	1	31
557.573	1	42
557.743	1	45
557.913	1	28
558.083	1	15
558.253	1	27
558.423	1	19
558.593	1	25
558.763	1	32
558.933	1	26
559.103	1	29
559.273	1	30
559.443	1	29
559.613	1	33
559.783	1	33
559.953	1	16
560.122	1	26
560.292	1	30
560.462	1	20
560.632	1	27
560.802	1	28
560.972	1	29
561.142	1	28
561.312	1	26
561.482	1	31
561.652	1	26
561.822	1	16
561.992	1	33
562.162	1	17
562.331	1	26
562.501	1	12
562.671	1	26
562.841	1	9
563.011	1	28
563.181	1	31
563.351	1	24
563.521	1	15
563.691	1	23
563.861	1	37
564.031	1	15
564.201	1	31
564.370	1	25
564.540	1	38
564.710	1	19
564.880	1	27
565.050	1	22
565.220	1	23
565.390	1	17
565.560	1	25
565.730	1	18
565.900	1	17
566.069	1	24
566.239	1	13
566.409	1	21
566.579	1	17
566.749	1	39
566.919	1	30
567.089	1	23
567.259	1	39
567.429	1	24
567.599	1	26
567.768	1	30
567.938	1	21
568.108	1	22
568.278	1	13
568.448	1	9
568.618	1	25
568.788	1	15
568.958	1	20
569.128	1	18
569.297	1	24
569.467	1	17
569.637	1	28
569.807	1	18
569.977	1	18
570.147	1	13
570.317	1	35
570.487	1	26
570.656	1	16
570.826	1	18
570.996	1	17
571.166	1	18
571.336	1	14
571.506	1	14
571.676	1	22
571.846	1	19
572.015	1	9
572.185	1	11
572.355	1	29
572.525	1	16
572.695	1	17
572.865	1	23
573.035	1	17
573.205	1	27
573.374	1	15
573.544	1	19
573.714	1	20
573.884	1	12
574.054	1	24
574.224	1	20
574.394	1	7
574.563	1	16
574.733	1	12
574.903	1	5
575.073	1	7
575.243	1	13
575.413	1	17
575.583	1	14
575.752	1	10
575.922	1	22
576.092	1	23
576.262	1	11
576.432	1	0
576.602	1	16
576.772	1	15
576.941	1	19
577.111	1	16
577.281	1	14
577.451	1	18
577.621	1	17
577.791	1	20
577.960	1	4
578.130	1	5
578.300	1	12
578.470	1	14
578.640	1	1
578.810	1	19
578.979	1	16
579.149	1	13
579.319	1	16
579.489	1	15
579.659	1	17
579.829	1	10
579.998	1	10
580.168	1	18
580.338	1	0
580.508	1	9
580.678	1	4
580.848	1	10
581.017	1	11
581.187	1	20
581.357	1	15
581.527	1	20
581.697	1	2
581.867	1	15
582.036	1	16
582.206	1	9
582.376	1	9
582.546	1	17
582.716	1	15
582.885	1	9
583.055	1	13
583.225	1	17
583.395	1	15
583.565	1	27
583.735	1	15
583.904	1	21
584.074	1	6
584.244	1	12
584.414	1	12
584.584	1	21
584.753	1	16
584.923	1	5
585.093	1	10
585.263	1	14
585.433	1	11
585.602	1	17
585.772	1	13
585.942	1	23
586.112	1	15
586.282	1	13
586.451	1	12
586.621	1	3
586.791	1	19
586.961	1	14
587.131	1	1
587.300	1	3
587.470	1	14
587.640	1	10
587.810	1	1
587.980	1	13
588.149	1	10
588.319	1	17
588.489	1	16
588.659	1	9
588.829	1	10
588.998	1	11
589.168	1	25
589.338	1	13
589.508	1	19
589.677	1	10
589.847	1	12
590.017	1	9
590.187	1	12
590.357	1	14
590.526	1	15
590.696	1	12
590.866	1	9
591.036	1	18
591.205	1	12
591.375	1	1
591.545	1	2
591.715	1	6
591.885	1	17
592.054	1	6
592.224	1	23
592.394	1	18
592.564	1	-7
592.733	1	4
592.903	1	8
593.073	1	8
593.243	1	10
593.412	1	16
593.582	1	19
593.752	1	4
593.922	1	10
594.091	1	8
594.261	1	15
594.431	1	6
594.601	1	11
594.771	1	16
594.940	1	9
595.110	1	9
595.280	1	5
595.450	1	15
595.619	1	5
595.789	1	25
595.959	1	14
596.129	1	9
596.298	1	9
596.468	1	12
596.638	1	7
596.808	1	9
596.977	1	15
597.147	1	13
597.317	1	5
597.487	1	11
597.656	1	7
597.826	1	6
597.996	1	9
598.166	1	11
598.335	1	8
598.505	1	8
598.675	1	9
598.844	1	7
599.014	1	5
599.184	1	4
599.354	1	-3
599.523	1	10
599.693	1	14
599.863	1	15
600.033	1	5
600.202	1	5
600.372	1	5
600.542	1	3
600.712	1	3
600.881	1	14
601.051	1	20
601.221	1	2
601.390	1	2
601.560	1	10
601.730	1	8
601.900	1	7
602.069	1	-2
602.239	1	1
602.409	1	7
602.578	1	6
602.748	1	-4
602.918	1	5
603.088	1	16
603.257	1	14
603.427	1	8
603.597	1	16
603.767	1	1
603.936	1	9
604.106	1	7
604.276	1	11
604.445	1	14
604.615	1	3
604.785	1	19
604.954	1	10
605.124	1	-2
605.294	1	1
605.464	1	1
605.633	1	11
605.803	1	17
605.973	1	5
606.142	1	10
606.312	1	2
606.482	1	9
606.652	1	-2
606.821	1	13
606.991	1	8
607.161	1	10
607.330	1	17
607.500	1	13
607.670	1	10
607.839	1	6
608.009	1	-2
608.179	1	11
608.348	1	6
608.518	1	2
608.688	1	5
608.858	1	4
609.027	1	14
609.197	1	-2
609.367	1	-1
609.536	1	6
609.706	1	3
609.876	1	8
610.045	1	-1
610.215	1	9
610.385	1	5
610.554	1	1
610.724	1	17
610.894	1	10
611.063	1	13
611.233	1	8
611.403	1	10
611.572	1	6
611.742	1	1
611.912	1	4
612.081	1	2
612.251	1	15
612.421	1	22
612.590	1	6
612.760	1	11
612.930	1	2
613.099	1	3
613.269	1	1
613.439	1	12
613.608	1	11
613.778	1	7
613.948	1	7
614.117	1	11
614.287	1	2
614.457	1	10
614.626	1	0
614.796	1	13
614.966	1	10
615.135	1	2
615.305	1	3
615.475	1	11
615.644	1	0
615.814	1	1
615.984	1	21
616.153	1	17
616.323	1	12
616.493	1	9
616.662	1	4
616.832	1	7
617.002	1	-2
617.171	1	0
617.341	1	11
617.511	1	6
617.680	1	11
617.850	1	10
618.019	1	5
618.189	1	4
618.359	1	4
618.528	1	-2
618.698	1	4
618.868	1	9
619.037	1	14
619.207	1	1
619.377	1	-9
619.546	1	18
619.716	1	1
619.885	1	9
620.055	1	10
620.225	1	10
620.394	1	9
620.564	1	5
620.734	1	16
620.903	1	22
621.073	1	0
621.242	1	-1
621.412	1	8
621.582	1	1
621.751	1	12
621.921	1	8
622.091	1	4
622.260	1	1
622.430	1	13
622.599	1	13
622.769	1	3
622.939	1	7
623.108	1	2
623.278	1	6
623.448	1	4
623.617	1	2
623.787	1	3
623.956	1	10
624.126	1	7
624.296	1	-1
624.465	1	9
624.635	1	7
624.804	1	1
624.974	1	1
625.144	1	10
625.313	1	9
625.483	1	6
625.652	1	9
625.822	1	5
625.992	1	3
626.161	1	5
626.331	1	10
626.501	1	10
626.670	1	10
626.840	1	10
627.009	1	2
627.179	1	0
627.348	1	-2
627.518	1	6
627.688	1	5
627.857	1	17
628.027	1	5
628.196	1	15
628.366	1	16
628.536	1	11
628.705	1	3
628.875	1	3
629.044	1	8
629.214	1	-1
629.384	1	-6
629.553	1	9
629.723	1	13
629.892	1	2
630.062	1	14
630.232	1	10
630.401	1	6
630.571	1	4
630.740	1	8
630.910	1	3
631.079	1	7
631.249	1	3
631.419	1	0
631.588	1	8
631.758	1	3
631.927	1	5
632.097	1	4
632.266	1	-3
632.436	1	4
632.606	1	16
632.775	1	2
632.945	1	13
633.114	1	5
633.284	1	5
633.453	1	-1
633.623	1	12
633.793	1	4
633.962	1	10
634.132	1	10
634.301	1	-4
634.471	1	-4
634.640	1	8
634.810	1	13
634.979	1	14
635.149	1	12
635.319	1	6
635.488	1	5
635.658	1	-8
635.827	1	-1
635.997	1	4
636.166	1	15
636.336	1	19
636.505	1	8
636.675	1	-2
636.845	1	13
637.014	1	6
637.184	1	2
637.353	1	11
637.523	1	3
637.692	1	6
637.862	1	-7
638.031	1	21
638.201	1	9
638.370	1	11
638.540	1	2
638.710	1	-1
638.879	1	-3
639.049	1	-1
639.218	1	2
639.388	1	9
639.557	1	6
639.727	1	-1
639.896	1	3
640.066	1	1
640.235	1	12
640.405	1	-2
640.574	1	3
640.744	1	-4
640.914	1	4
641.083	1	1
641.253	1	6
641.422	1	-4
641.592	1	0
641.761	1	7
641.931	1	7
642.100	1	7
642.270	1	6
642.439	1	6
642.609	1	1
642.778	1	1
642.948	1	3
643.117	1	5
643.287	1	10
643.456	1	12
643.626	1	15
643.795	1	7
643.965	1	3
644.134	1	5
644.304	1	-2
644.473	1	3
644.643	1	-1
644.812	1	16
644.982	1	6
645.151	1	6
645.321	1	10
645.490	1	8
645.660	1	0
645.829	1	-7
645.999	1	-1
646.168	1	6
646.338	1	8
646.507	1	4
646.677	1	8
646.846	1	11
647.016	1	1
647.185	1	8
647.355	1	5
647.524	1	10
647.694	1	-7
647.863	1	-2
648.033	1	-9
648.202	1	6
648.372	1	10
648.541	1	8
648.711	1	-4
648.880	1	-2
649.050	1	1
649.219	1	0
649.389	1	11
649.558	1	-4
649.728	1	8
649.897	1	4
650.067	1	0
650.236	1	16
650.406	1	6
650.575	1	-4
650.745	1	-4
650.914	1	2
651.084	1	-6
651.253	1	2
651.423	1	4
651.592	1	12
651.762	1	18
651.931	1	8
652.101	1	10
652.270	1	3
652.440	1	9
652.609	1	11
652.778	1	0
652.948	1	-1
653.117	1	1
653.287	1	13
653.456	1	3
653.626	1	8
653.795	1	11
653.965	1	5
654.134	1	5
654.304	1	-5
654.473	1	2
654.643	1	15
654.812	1	-1
654.982	1	-7
655.151	1	3
655.320	1	2
655.490	1	15
655.659	1	18
655.829	1	1
655.998	1	8
656.168	1	3
656.337	1	-2
656.507	1	14
656.676	1	-3
656.846	1	-7
657.015	1	7
657.184	1	11
657.354	1	7
657.523	1	-3
657.693	1	10
657.862	1	3
658.032	1	5
658.201	1	0
658.371	1	-2
658.540	1	8
658.709	1	-3
658.879	1	-3
659.048	1	4
659.218	1	1
659.387	1	-3
659.557	1	5
659.726	1	3
659.895	1	3
660.065	1	7
660.234	1	4
660.404	1	12
660.573	1	-7
660.743	1	6
660.912	1	-7
661.081	1	3
661.251	1	9
661.420	1	-6
661.590	1	6
661.759	1	11
661.929	1	-4
662.098	1	-3
662.267	1	13
662.437	1	5
662.606	1	5
662.776	1	1
662.945	1	12
663.115	1	-7
663.284	1	1
663.453	1	-2
663.623	1	3
663.792	1	3
663.962	1	2
664.131	1	-7
664.300	1	9
664.470	1	6
664.639	1	3
664.809	1	12
664.978	1	-4
665.148	1	9
665.317	1	-1
665.486	1	2
665.656	1	1
665.825	1	9
665.995	1	6
666.164	1	10
666.333	1	10
666.503	1	8
666.672	1	-6
666.842	1	3
667.011	1	4
667.180	1	1
667.350	1	16
667.519	1	7
667.689	1	2
667.858	1	5
668.027	1	-2
668.197	1	4
668.366	1	-1
668.536	1	-3
668.705	1	0
668.874	1	7
669.044	1	3
669.213	1	-4
669.382	1	0
669.552	1	10
669.721	1	-10
669.891	1	6
670.060	1	3
670.229	1	7
670.399	1	10
670.568	1	14
670.738	1	3
670.907	1	-1
671.076	1	10
671.246	1	2
671.415	1	3
671.584	1	-3
671.754	1	-1
671.923	1	-3
672.093	1	9
672.262	1	13
672.431	1	-3
672.601	1	-3
672.770	1	5
672.939	1	-5
673.109	1	0
673.278	1	2
673.448	1	2
673.617	1	7
673.786	1	3
