325.333	1	-3
325.504	1	8
325.675	1	-6
325.846	1	-6
326.017	1	3
326.188	1	7
326.359	1	11
326.531	1	-5
326.702	1	0
326.873	1	9
327.044	1	0
327.215	1	1
327.386	1	5
327.557	1	4
327.728	1	-4
327.899	1	-10
328.070	1	4
328.241	1	3
328.412	1	13
328.583	1	-8
328.754	1	-2
328.926	1	2
329.097	1	7
329.268	1	-3
329.439	1	2
329.610	1	1
329.781	1	-3
329.952	1	18
330.123	1	3
330.294	1	12
330.465	1	-6
330.636	1	7
330.807	1	1
330.978	1	0
331.149	1	5
331.320	1	1
331.492	1	-6
331.663	1	-7
331.834	1	11
332.005	1	7
332.176	1	8
332.347	1	3
332.518	1	6
332.689	1	9
332.860	1	-7
333.031	1	3
333.202	1	-4
333.373	1	4
333.544	1	6
333.715	1	5
333.886	1	1
334.057	1	-11
334.228	1	-6
334.399	1	5
334.570	1	5
334.741	1	0
334.912	1	0
335.084	1	0
335.255	1	1
335.426	1	-4
335.597	1	6
335.768	1	10
335.939	1	0
336.110	1	-1
336.281	1	-2
336.452	1	1
336.623	1	5
336.794	1	-3
336.965	1	-3
337.136	1	1
337.307	1	7
337.478	1	10
337.649	1	5
337.820	1	19
337.991	1	8
338.162	1	-5
338.333	1	-3
338.504	1	1
338.675	1	7
338.846	1	1
339.017	1	0
339.188	1	5
339.359	1	5
339.530	1	5
339.701	1	2
339.872	1	5
340.043	1	-4
340.214	1	-1
340.385	1	-3
340.556	1	13
340.727	1	-3
340.898	1	1
341.069	1	0
341.240	1	10
341.411	1	4
341.582	1	6
341.753	1	4
341.924	1	3
342.095	1	3
342.266	1	4
342.437	1	15
342.608	1	-8
342.779	1	-6
342.950	1	8
343.121	1	5
343.292	1	2
343.463	1	3
343.634	1	3
343.805	1	8
343.976	1	6
344.147	1	-5
344.318	1	4
344.489	1	-9
344.660	1	13
344.831	1	3
345.002	1	-3
345.173	1	5
345.344	1	-9
345.515	1	13
345.686	1	6
345.857	1	5
346.028	1	5
346.199	1	0
346.370	1	4
346.541	1	-4
346.712	1	10
346.883	1	-9
347.054	1	11
347.225	1	3
347.396	1	5
347.567	1	1
347.738	1	9
347.909	1	-3
348.080	1	-1
348.251	1	3
348.422	1	0
348.593	1	0
348.764	1	-1
348.935	1	11
349.106	1	10
349.277	1	-6
349.448	1	5
349.619	1	12
349.790	1	-2
349.961	1	8
350.132	1	1
350.303	1	4
350.474	1	11
350.645	1	5
350.816	1	-1
350.987	1	-4
351.157	1	12
351.328	1	6
351.499	1	6
351.670	1	9
351.841	1	4
352.012	1	-5
352.183	1	-3
352.354	1	4
352.525	1	5
352.696	1	0
352.867	1	5
353.038	1	15
353.209	1	6
353.380	1	6
353.551	1	13
353.722	1	9
353.893	1	8
354.064	1	5
354.235	1	-1
354.406	1	2
354.576	1	5
354.747	1	0
354.918	1	0
355.089	1	3
355.260	1	9
355.431	1	21
355.602	1	6
355.773	1	0
355.944	1	3
356.115	1	-2
356.286	1	6
356.457	1	4
356.628	1	12
356.799	1	11
356.970	1	7
357.141	1	-3
357.311	1	2
357.482	1	6
357.653	1	-4
357.824	1	-1
357.995	1	7
358.166	1	14
358.337	1	6
358.508	1	16
358.679	1	19
358.850	1	5
359.021	1	-1
359.192	1	8
359.363	1	9
359.533	1	10
359.704	1	17
359.875	1	10
360.046	1	9
360.217	1	22
360.388	1	19
360.559	1	12
360.730	1	19
360.901	1	17
361.072	1	16
361.243	1	15
361.414	1	27
361.584	1	18
361.755	1	24
361.926	1	29
362.097	1	17
362.268	1	20
362.439	1	17
362.610	1	13
362.781	1	23
362.952	1	24
363.123	1	33
363.293	1	21
363.464	1	27
363.635	1	38
363.806	1	31
363.977	1	31
364.148	1	43
364.319	1	35
364.490	1	29
364.661	1	43
364.832	1	30
365.002	1	46
365.173	1	34
365.344	1	47
365.515	1	46
365.686	1	54
365.857	1	50
366.028	1	42
366.199	1	37
366.370	1	51
366.540	1	49
366.711	1	47
366.882	1	40
367.053	1	55
367.224	1	42
367.395	1	50
367.566	1	51
367.737	1	41
367.908	1	35
368.078	1	40
368.249	1	36
368.420	1	37
368.591	1	55
368.762	1	31
368.933	1	45
369.104	1	42
369.274	1	33
369.445	1	31
369.616	1	25
369.787	1	40
369.958	1	41
370.129	1	37
370.300	1	31
370.471	1	39
370.641	1	36
370.812	1	26
370.983	1	34
371.154	1	30
371.325	1	31
371.496	1	25
371.667	1	34
371.837	1	12
372.008	1	28
372.179	1	31
372.350	1	14
372.521	1	21
372.692	1	23
372.863	1	26
373.033	1	25
373.204	1	28
373.375	1	19
373.546	1	16
373.717	1	24
373.888	1	14
374.059	1	21
374.229	1	6
374.400	1	16
374.571	1	21
374.742	1	32
374.913	1	20
375.084	1	8
375.254	1	22
375.425	1	13
375.596	1	14
375.767	1	28
375.938	1	15
376.109	1	13
376.279	1	9
376.450	1	10
376.621	1	27
376.792	1	16
376.963	1	17
377.134	1	17
377.304	1	23
377.475	1	29
377.646	1	15
377.817	1	21
377.988	1	12
378.159	1	17
378.329	1	15
378.500	1	3
378.671	1	13
378.842	1	11
379.013	1	7
379.184	1	10
379.354	1	15
379.525	1	19
379.696	1	7
379.867	1	14
380.038	1	23
380.209	1	27
380.379	1	14
380.550	1	18
380.721	1	25
380.892	1	25
381.063	1	23
381.233	1	32
381.404	1	20
381.575	1	22
381.746	1	30
381.917	1	22
382.087	1	25
382.258	1	40
382.429	1	47
382.600	1	35
382.771	1	41
382.941	1	47
383.112	1	44
383.283	1	51
383.454	1	39
383.625	1	46
383.795	1	56
383.966	1	51
384.137	1	48
384.308	1	55
384.479	1	65
384.649	1	54
384.820	1	53
384.991	1	69
385.162	1	67
385.333	1	77
385.503	1	78
385.674	1	55
385.845	1	67
386.016	1	71
386.187	1	78
386.357	1	63
386.528	1	87
386.699	1	70
386.870	1	82
387.041	1	53
387.211	1	71
387.382	1	64
387.553	1	74
387.724	1	71
387.894	1	69
388.065	1	79
388.236	1	78
388.407	1	69
388.578	1	71
388.748	1	81
388.919	1	59
389.090	1	66
389.261	1	45
389.431	1	72
389.602	1	67
389.773	1	57
389.944	1	57
390.114	1	71
390.285	1	61
390.456	1	59
390.627	1	59
390.798	1	68
390.968	1	49
391.139	1	49
391.310	1	63
391.481	1	65
391.651	1	56
391.822	1	72
391.993	1	57
392.164	1	48
392.334	1	57
392.505	1	55
392.676	1	58
392.847	1	66
393.017	1	49
393.188	1	46
393.359	1	65
393.530	1	61
393.700	1	67
393.871	1	48
394.042	1	63
394.213	1	63
394.383	1	57
394.554	1	56
394.725	1	62
394.896	1	57
395.066	1	60
395.237	1	62
395.408	1	64
395.579	1	60
395.749	1	69
395.920	1	66
396.091	1	61
396.262	1	76
396.432	1	55
396.603	1	56
396.774	1	45
396.945	1	72
397.115	1	63
397.286	1	73
397.457	1	67
397.627	1	57
397.798	1	59
397.969	1	62
398.140	1	62
398.310	1	67
398.481	1	63
398.652	1	65
398.823	1	88
398.993	1	56
399.164	1	65
399.335	1	57
399.505	1	57
399.676	1	67
399.847	1	56
400.018	1	59
400.188	1	64
400.359	1	54
400.530	1	55
400.700	1	44
400.871	1	38
401.042	1	52
401.213	1	48
401.383	1	52
401.554	1	55
401.725	1	51
401.895	1	55
402.066	1	51
402.237	1	51
402.408	1	52
402.578	1	45
402.749	1	40
402.920	1	31
403.090	1	47
403.261	1	48
403.432	1	41
403.603	1	41
403.773	1	48
403.944	1	48
404.115	1	39
404.285	1	47
404.456	1	42
404.627	1	52
404.797	1	57
404.968	1	46
405.139	1	44
405.310	1	36
405.480	1	50
405.651	1	53
405.822	1	44
405.992	1	53
406.163	1	54
406.334	1	43
406.504	1	40
406.675	1	54
406.846	1	40
407.016	1	35
407.187	1	26
407.358	1	44
407.528	1	46
407.699	1	43
407.870	1	52
408.041	1	34
408.211	1	41
408.382	1	43
408.553	1	48
408.723	1	39
408.894	1	40
409.065	1	48
409.235	1	35
409.406	1	40
409.577	1	39
409.747	1	37
409.918	1	40
410.089	1	41
410.259	1	22
410.430	1	46
410.601	1	19
410.771	1	42
410.942	1	41
411.113	1	26
411.283	1	31
411.454	1	31
411.625	1	25
411.795	1	51
411.966	1	30
412.137	1	42
412.307	1	41
412.478	1	33
412.649	1	33
412.819	1	31
412.990	1	31
413.161	1	34
413.331	1	27
413.502	1	36
413.672	1	35
413.843	1	22
414.014	1	25
414.184	1	24
414.355	1	21
414.526	1	17
414.696	1	19
414.867	1	25
415.038	1	17
415.208	1	19
415.379	1	32
415.550	1	22
415.720	1	25
415.891	1	27
416.062	1	29
416.232	1	18
416.403	1	23
416.573	1	30
416.744	1	21
416.915	1	30
417.085	1	24
417.256	1	24
417.427	1	27
417.597	1	7
417.768	1	19
417.939	1	20
418.109	1	20
418.280	1	18
418.450	1	21
418.621	1	20
418.792	1	12
418.962	1	31
419.133	1	22
419.304	1	19
419.474	1	25
419.645	1	32
419.815	1	15
419.986	1	28
420.157	1	24
420.327	1	25
420.498	1	18
420.669	1	27
420.839	1	19
421.010	1	23
421.180	1	20
421.351	1	23
421.522	1	20
421.692	1	24
421.863	1	18
422.033	1	21
422.204	1	10
422.375	1	16
422.545	1	17
422.716	1	10
422.886	1	24
423.057	1	11
423.228	1	13
423.398	1	22
423.569	1	17
423.740	1	13
423.910	1	11
424.081	1	16
424.251	1	10
424.422	1	22
424.593	1	16
424.763	1	17
424.934	1	10
425.104	1	11
425.275	1	9
425.445	1	10
425.616	1	19
425.787	1	9
425.957	1	19
426.128	1	11
426.298	1	12
426.469	1	12
426.640	1	16
426.810	1	11
426.981	1	-6
427.151	1	14
427.322	1	14
427.493	1	11
427.663	1	11
427.834	1	12
428.004	1	17
428.175	1	9
428.345	1	21
428.516	1	15
428.687	1	5
428.857	1	9
429.028	1	15
429.198	1	0
429.369	1	20
429.540	1	28
429.710	1	13
429.881	1	20
430.051	1	15
430.222	1	9
430.392	1	7
430.563	1	17
430.734	1	2
430.904	1	12
431.075	1	22
431.245	1	18
431.416	1	10
431.586	1	6
431.757	1	18
431.927	1	3
432.098	1	14
432.269	1	2
432.439	1	5
432.610	1	-5
432.780	1	8
432.951	1	6
433.121	1	20
433.292	1	9
433.462	1	15
433.633	1	7
433.804	1	0
433.974	1	-1
434.145	1	4
434.315	1	5
434.486	1	13
434.656	1	10
434.827	1	4
434.997	1	7
435.168	1	11
435.339	1	19
435.509	1	19
435.680	1	-1
435.850	1	1
436.021	1	12
436.191	1	4
436.362	1	9
436.532	1	14
436.703	1	10
436.873	1	5
437.044	1	10
437.214	1	16
437.385	1	18
437.556	1	3
437.726	1	3
437.897	1	4
438.067	1	9
438.238	1	-1
438.408	1	7
438.579	1	22
438.749	1	14
438.920	1	7
439.090	1	16
439.261	1	11
439.431	1	-1
439.602	1	10
439.772	1	3
439.943	1	12
440.113	1	10
440.284	1	16
440.455	1	-1
440.625	1	11
440.796	1	14
440.966	1	7
441.137	1	-1
441.307	1	3
441.478	1	17
441.648	1	-7
441.819	1	10
441.989	1	7
442.160	1	12
442.330	1	11
442.501	1	-3
442.671	1	7
442.842	1	18
443.012	1	4
443.183	1	8
443.353	1	11
443.524	1	4
443.694	1	5
443.865	1	3
444.035	1	-1
444.206	1	9
444.376	1	12
444.547	1	4
444.717	1	24
444.888	1	-5
445.058	1	10
445.229	1	7
445.399	1	16
445.570	1	8
445.740	1	8
445.911	1	16
446.081	1	2
446.252	1	-2
446.422	1	4
446.593	1	11
446.763	1	10
446.934	1	7
447.104	1	-1
447.275	1	7
447.445	1	-1
447.616	1	7
447.786	1	3
447.957	1	10
448.127	1	11
448.298	1	9
448.468	1	12
448.639	1	5
448.809	1	-3
448.979	1	4
449.150	1	4
449.320	1	13
449.491	1	5
449.661	1	9
449.832	1	-3
450.002	1	4
450.173	1	1
450.343	1	8
450.514	1	3
450.684	1	1
450.855	1	9
451.025	1	3
451.196	1	1
451.366	1	4
451.537	1	1
451.707	1	12
451.878	1	4
452.048	1	5
452.218	1	9
452.389	1	2
452.559	1	-3
452.730	1	5
452.900	1	7
453.071	1	6
453.241	1	-8
453.412	1	8
453.582	1	15
453.753	1	-5
453.923	1	11
454.093	1	13
454.264	1	-8
454.434	1	2
454.605	1	3
454.775	1	14
454.946	1	6
455.116	1	3
455.287	1	20
455.457	1	1
455.628	1	6
455.798	1	-1
455.968	1	16
456.139	1	2
456.309	1	-2
456.480	1	-3
456.650	1	5
456.821	1	5
456.991	1	15
457.161	1	11
457.332	1	-1
457.502	1	9
457.673	1	2
457.843	1	6
458.014	1	4
458.184	1	5
458.355	1	16
458.525	1	2
458.695	1	7
458.866	1	8
459.036	1	3
459.207	1	-2
459.377	1	7
459.548	1	12
459.718	1	-1
459.888	1	11
460.059	1	6
460.229	1	4
460.400	1	9
460.570	1	-8
460.740	1	3
460.911	1	14
461.081	1	8
461.252	1	3
461.422	1	7
461.593	1	3
461.763	1	12
461.933	1	-1
462.104	1	10
462.274	1	2
462.445	1	-9
462.615	1	-6
462.785	1	4
462.956	1	9
463.126	1	-8
463.297	1	3
463.467	1	3
463.638	1	5
463.808	1	6
463.978	1	5
464.149	1	5
464.319	1	-3
464.490	1	3
464.660	1	-2
464.830	1	9
465.001	1	13
465.171	1	10
465.342	1	7
465.512	1	3
465.682	1	5
465.853	1	5
466.023	1	1
466.194	1	8
466.364	1	14
466.534	1	6
466.705	1	4
466.875	1	6
467.045	1	2
467.216	1	-6
467.386	1	6
467.557	1	12
467.727	1	7
467.897	1	11
468.068	1	12
468.238	1	2
468.409	1	1
468.579	1	7
468.749	1	1
468.920	1	9
469.090	1	10
469.260	1	12
469.431	1	3
469.601	1	5
469.772	1	-1
469.942	1	18
470.112	1	-5
470.283	1	7
470.453	1	3
470.623	1	3
470.794	1	6
470.964	1	-5
471.135	1	-6
471.305	1	-2
471.475	1	0
471.646	1	10
471.816	1	6
471.986	1	1
472.157	1	10
472.327	1	3
472.497	1	1
472.668	1	-5
472.838	1	13
473.009	1	9
473.179	1	3
473.349	1	8
473.520	1	10
473.690	1	14
473.860	1	9
474.031	1	3
474.201	1	-2
474.371	1	8
474.542	1	7
474.712	1	2
474.882	1	1
475.053	1	-3
475.223	1	6
475.394	1	10
475.564	1	14
475.734	1	5
475.905	1	12
476.075	1	6
476.245	1	5
476.416	1	2
476.586	1	2
476.756	1	6
476.927	1	11
477.097	1	4
477.267	1	-3
477.438	1	-2
477.608	1	18
477.778	1	6
477.949	1	3
478.119	1	8
478.289	1	5
478.460	1	12
478.630	1	3
478.800	1	-1
478.971	1	-2
479.141	1	13
479.311	1	5
479.482	1	-9
479.652	1	4
479.822	1	0
479.993	1	11
480.163	1	-5
480.333	1	8
480.504	1	9
480.674	1	13
480.844	1	-1
481.015	1	-10
481.185	1	12
481.355	1	11
481.525	1	6
481.696	1	5
481.866	1	2
482.036	1	8
482.207	1	10
482.377	1	4
482.547	1	3
482.718	1	10
482.888	1	4
483.058	1	-3
483.229	1	6
483.399	1	0
483.569	1	16
483.740	1	-9
483.910	1	6
484.080	1	-4
484.250	1	13
484.421	1	1
484.591	1	8
484.761	1	0
484.932	1	6
485.102	1	1
485.272	1	18
485.443	1	10
485.613	1	0
485.783	1	17
485.953	1	5
486.124	1	17
486.294	1	7
486.464	1	1
486.635	1	17
486.805	1	15
486.975	1	-2
487.146	1	6
487.316	1	4
487.486	1	1
487.656	1	-1
487.827	1	13
487.997	1	17
488.167	1	9
488.338	1	26
488.508	1	5
488.678	1	5
488.848	1	5
489.019	1	3
489.189	1	9
489.359	1	7
489.529	1	4
489.700	1	12
489.870	1	0
490.040	1	10
490.211	1	10
490.381	1	3
490.551	1	-2
490.721	1	11
490.892	1	13
491.062	1	13
491.232	1	11
491.402	1	-5
491.573	1	12
491.743	1	-5
491.913	1	2
492.084	1	10
492.254	1	13
492.424	1	9
492.594	1	11
492.765	1	13
492.935	1	-1
493.105	1	17
493.275	1	17
493.446	1	9
493.616	1	6
493.786	1	9
493.956	1	11
494.127	1	9
494.297	1	12
494.467	1	6
494.637	1	6
494.808	1	13
494.978	1	15
495.148	1	17
495.318	1	27
495.489	1	14
495.659	1	13
495.829	1	16
495.999	1	6
496.170	1	4
496.340	1	8
496.510	1	12
496.680	1	8
496.851	1	19
497.021	1	6
497.191	1	10
497.361	1	12
497.532	1	17
497.702	1	7
497.872	1	16
498.042	1	12
498.213	1	13
498.383	1	7
498.553	1	11
498.723	1	11
498.894	1	13
499.064	1	25
499.234	1	11
499.404	1	18
499.574	1	11
499.745	1	12
499.915	1	15
500.085	1	5
500.255	1	17
500.426	1	15
500.596	1	8
500.766	1	18
500.936	1	17
501.106	1	7
501.277	1	14
501.447	1	14
501.617	1	12
501.787	1	15
501.958	1	15
502.128	1	8
502.298	1	21
502.468	1	18
502.638	1	25
502.809	1	20
502.979	1	3
503.149	1	15
503.319	1	21
503.489	1	22
503.660	1	16
503.830	1	20
504.000	1	20
504.170	1	17
504.340	1	24
504.511	1	26
504.681	1	18
504.851	1	17
505.021	1	14
505.192	1	25
505.362	1	26
505.532	1	19
505.702	1	21
505.872	1	2
506.043	1	31
506.213	1	25
506.383	1	16
506.553	1	26
506.723	1	24
506.893	1	27
507.064	1	18
507.234	1	27
507.404	1	22
507.574	1	22
507.744	1	19
507.915	1	20
508.085	1	27
508.255	1	24
508.425	1	27
508.595	1	32
508.766	1	21
508.936	1	22
509.106	1	16
509.276	1	26
509.446	1	14
509.616	1	26
509.787	1	20
509.957	1	32
510.127	1	27
510.297	1	16
510.467	1	31
510.638	1	21
510.808	1	18
510.978	1	6
511.148	1	28
511.318	1	23
511.488	1	25
511.659	1	16
511.829	1	16
511.999	1	31
512.169	1	21
512.339	1	27
512.509	1	28
512.680	1	26
512.850	1	22
513.020	1	23
513.190	1	17
513.360	1	33
513.530	1	24
513.700	1	36
513.871	1	38
514.041	1	34
514.211	1	23
514.381	1	37
514.551	1	31
514.721	1	27
514.892	1	34
515.062	1	32
515.232	1	37
515.402	1	41
515.572	1	25
515.742	1	37
515.912	1	33
516.083	1	28
516.253	1	34
516.423	1	46
516.593	1	27
516.763	1	36
516.933	1	37
517.104	1	42
517.274	1	38
517.444	1	39
517.614	1	31
517.784	1	27
517.954	1	42
518.124	1	46
518.294	1	42
518.465	1	40
518.635	1	38
518.805	1	30
518.975	1	45
519.145	1	45
519.315	1	35
519.485	1	31
519.656	1	36
519.826	1	42
519.996	1	38
520.166	1	34
520.336	1	45
520.506	1	47
520.676	1	28
520.846	1	32
521.017	1	21
521.187	1	35
521.357	1	30
521.527	1	37
521.697	1	36
521.867	1	40
522.037	1	38
522.207	1	37
522.377	1	32
522.548	1	34
522.718	1	28
522.888	1	34
523.058	1	46
523.228	1	52
523.398	1	41
523.568	1	30
523.738	1	44
523.909	1	41
524.079	1	37
524.249	1	42
524.419	1	36
524.589	1	46
524.759	1	41
524.929	1	44
525.099	1	40
525.269	1	40
525.439	1	24
525.610	1	39
525.780	1	46
525.950	1	30
526.120	1	28
526.290	1	41
526.460	1	46
526.630	1	42
526.800	1	40
526.970	1	26
527.140	1	32
527.311	1	39
527.481	1	46
527.651	1	47
527.821	1	40
527.991	1	42
528.161	1	32
528.331	1	43
528.501	1	31
528.671	1	41
528.841	1	39
529.011	1	42
529.181	1	36
529.352	1	45
529.522	1	45
529.692	1	48
529.862	1	40
530.032	1	44
530.202	1	36
530.372	1	32
530.542	1	38
530.712	1	47
530.882	1	46
531.052	1	46
531.222	1	43
531.392	1	48
531.563	1	45
531.733	1	51
531.903	1	45
532.073	1	39
532.243	1	50
532.413	1	51
532.583	1	32
532.753	1	40
532.923	1	37
533.093	1	54
533.263	1	43
533.433	1	51
533.603	1	34
533.773	1	51
533.943	1	40
534.113	1	37
534.284	1	45
534.454	1	43
534.624	1	46
534.794	1	44
534.964	1	33
535.134	1	37
535.304	1	49
535.474	1	34
535.644	1	41
535.814	1	53
535.984	1	38
536.154	1	36
536.324	1	41
536.494	1	50
536.664	1	49
536.834	1	38
537.004	1	52
537.174	1	39
537.344	1	42
537.514	1	46
537.685	1	40
537.855	1	46
538.025	1	43
538.195	1	53
538.365	1	41
538.535	1	51
538.705	1	30
538.875	1	38
539.045	1	44
539.215	1	31
539.385	1	43
539.555	1	37
539.725	1	36
539.895	1	41
540.065	1	36
540.235	1	26
540.405	1	50
540.575	1	47
540.745	1	29
540.915	1	46
541.085	1	35
541.255	1	29
541.425	1	29
541.595	1	30
541.765	1	31
541.935	1	53
542.105	1	49
542.275	1	38
542.445	1	38
542.615	1	33
542.785	1	37
542.955	1	36
543.125	1	43
543.295	1	44
543.465	1	52
543.635	1	36
543.805	1	39
543.975	1	37
544.145	1	37
544.315	1	31
544.485	1	32
544.655	1	31
544.825	1	30
544.995	1	30
545.165	1	42
545.335	1	23
545.505	1	35
545.675	1	37
545.845	1	26
546.015	1	47
546.185	1	33
546.355	1	34
546.525	1	50
546.695	1	32
546.865	1	24
547.035	1	46
547.205	1	28
547.375	1	37
547.545	1	41
547.715	1	37
547.885	1	39
548.055	1	40
548.225	1	34
548.395	1	39
548.565	1	43
548.735	1	36
548.905	1	32
549.075	1	37
549.245	1	45
549.415	1	35
549.585	1	30
549.755	1	30
549.925	1	36
550.095	1	38
550.265	1	36
550.435	1	37
550.605	1	33
550.775	1	29
550.945	1	44
551.115	1	26
551.285	1	48
551.455	1	28
551.625	1	35
551.795	1	37
551.965	1	27
552.135	1	33
552.305	1	35
552.475	1	25
552.645	1	39
552.815	1	29
552.985	1	40
553.155	1	35
553.325	1	47
553.495	1	29
553.665	1	27
553.835	1	39
554.004	1	38
554.174	1	23
554.344	1	31
554.514	1	33
554.684	1	29
554.854	1	39
555.024	1	38
555.194	1	36
555.364	1	37
555.534	1	35
555.704	1	43
555.874	1	23
556.044	1	31
556.214	1	30
556.384	1	38
556.554	1	33
556.724	1	22
556.894	1	34
557.064	1	26
557.234	1	36
557.404	1	19
557.573	1	27
557.743	1	24
557.913	1	23
558.083	1	13
558.253	1	31
558.423	1	15
558.593	1	23
558.763	1	23
558.933	1	20
559.103	1	22
559.273	1	27
559.443	1	29
559.613	1	30
559.783	1	29
559.953	1	12
560.122	1	14
560.292	1	23
560.462	1	29
560.632	1	22
560.802	1	21
560.972	1	39
561.142	1	30
561.312	1	16
561.482	1	39
561.652	1	28
561.822	1	21
561.992	1	29
562.162	1	18
562.331	1	25
562.501	1	18
562.671	1	17
562.841	1	17
563.011	1	22
563.181	1	30
563.351	1	22
563.521	1	26
563.691	1	15
563.861	1	28
564.031	1	21
564.201	1	19
564.370	1	30
564.540	1	34
564.710	1	24
564.880	1	18
565.050	1	21
565.220	1	21
565.390	1	13
565.560	1	27
565.730	1	11
565.900	1	24
566.069	1	27
566.239	1	14
566.409	1	19
566.579	1	16
566.749	1	21
566.919	1	20
567.089	1	23
567.259	1	30
567.429	1	17
567.599	1	16
567.768	1	26
567.938	1	17
568.108	1	11
568.278	1	10
568.448	1	8
568.618	1	19
568.788	1	7
568.958	1	21
569.128	1	20
569.297	1	23
569.467	1	23
569.637	1	16
569.807	1	15
569.977	1	19
570.147	1	26
570.317	1	26
570.487	1	28
570.656	1	13
570.826	1	15
570.996	1	19
571.166	1	13
571.336	1	8
571.506	1	14
571.676	1	25
571.846	1	26
572.015	1	10
572.185	1	11
572.355	1	27
572.525	1	7
572.695	1	22
572.865	1	22
573.035	1	18
573.205	1	22
573.374	1	17
573.544	1	19
573.714	1	29
573.884	1	8
574.054	1	18
574.224	1	13
574.394	1	12
574.563	1	12
574.733	1	15
574.903	1	20
575.073	1	13
575.243	1	5
575.413	1	10
575.583	1	20
575.752	1	16
575.922	1	12
576.092	1	20
576.262	1	13
576.432	1	3
576.602	1	27
576.772	1	18
576.941	1	13
577.111	1	17
577.281	1	12
577.451	1	11
577.621	1	11
577.791	1	14
577.960	1	9
578.130	1	4
578.300	1	3
578.470	1	24
578.640	1	10
578.810	1	16
578.979	1	14
579.149	1	16
579.319	1	15
579.489	1	10
579.659	1	19
579.829	1	10
579.998	1	8
580.168	1	16
580.338	1	6
580.508	1	8
580.678	1	13
580.848	1	15
581.017	1	17
581.187	1	6
581.357	1	2
581.527	1	14
581.697	1	1
581.867	1	4
582.036	1	19
582.206	1	-2
582.376	1	11
582.546	1	17
582.716	1	16
582.885	1	17
583.055	1	6
583.225	1	0
583.395	1	18
583.565	1	25
583.735	1	16
583.904	1	4
584.074	1	4
584.244	1	5
584.414	1	13
584.584	1	17
584.753	1	8
584.923	1	13
585.093	1	18
585.263	1	10
585.433	1	11
585.602	1	17
585.772	1	13
585.942	1	19
586.112	1	7
586.282	1	15
586.451	1	13
586.621	1	3
586.791	1	7
586.961	1	10
587.131	1	2
587.300	1	18
587.470	1	8
587.640	1	4
587.810	1	3
587.980	1	4
588.149	1	13
588.319	1	3
588.489	1	16
588.659	1	1
588.829	1	12
588.998	1	12
589.168	1	16
589.338	1	13
589.508	1	13
589.677	1	15
589.847	1	11
590.017	1	2
590.187	1	7
590.357	1	-1
590.526	1	9
590.696	1	12
590.866	1	12
591.036	1	17
591.205	1	12
591.375	1	-1
591.545	1	3
591.715	1	4
591.885	1	10
592.054	1	14
592.224	1	10
592.394	1	12
592.564	1	4
592.733	1	-2
592.903	1	16
593.073	1	14
593.243	1	5
593.412	1	4
593.582	1	12
593.752	1	6
593.922	1	-3
594.091	1	14
594.261	1	14
594.431	1	12
594.601	1	2
594.771	1	17
594.940	1	14
595.110	1	10
595.280	1	6
595.450	1	14
595.619	1	13
595.789	1	17
595.959	1	0
596.129	1	15
596.298	1	10
596.468	1	4
596.638	1	2
596.808	1	23
596.977	1	7
597.147	1	16
597.317	1	14
597.487	1	13
597.656	1	4
597.826	1	9
597.996	1	13
598.166	1	6
598.335	1	6
598.505	1	7
598.675	1	8
598.844	1	8
599.014	1	3
599.184	1	7
599.354	1	1
599.523	1	9
599.693	1	16
599.863	1	4
600.033	1	1
600.202	1	13
600.372	1	7
600.542	1	14
600.712	1	15
600.881	1	11
601.051	1	2
601.221	1	0
601.390	1	-4
601.560	1	10
601.730	1	8
601.900	1	14
602.069	1	-5
602.239	1	0
602.409	1	6
602.578	1	14
602.748	1	-5
602.918	1	-2
603.088	1	13
603.257	1	9
603.427	1	6
603.597	1	20
603.767	1	0
603.936	1	20
604.106	1	9
604.276	1	4
604.445	1	9
604.615	1	5
604.785	1	17
604.954	1	9
605.124	1	-7
605.294	1	17
605.464	1	13
605.633	1	18
605.803	1	6
605.973	1	-1
606.142	1	3
606.312	1	6
606.482	1	3
606.652	1	5
606.821	1	8
606.991	1	2
607.161	1	12
607.330	1	13
607.500	1	3
607.670	1	-4
607.839	1	7
608.009	1	-7
608.179	1	10
608.348	1	8
608.518	1	7
608.688	1	13
608.858	1	12
609.027	1	12
609.197	1	0
609.367	1	-1
609.536	1	6
609.706	1	11
609.876	1	8
610.045	1	11
610.215	1	2
610.385	1	8
610.554	1	-6
610.724	1	15
610.894	1	11
611.063	1	21
611.233	1	7
611.403	1	5
611.572	1	12
611.742	1	3
611.912	1	0
612.081	1	14
612.251	1	5
612.421	1	17
612.590	1	2
612.760	1	1
612.930	1	16
613.099	1	-9
613.269	1	14
613.439	1	2
613.608	1	7
613.778	1	5
613.948	1	13
614.117	1	15
614.287	1	9
614.457	1	10
614.626	1	3
614.796	1	6
614.966	1	9
615.135	1	2
615.305	1	1
615.475	1	6
615.644	1	1
615.814	1	10
615.984	1	11
616.153	1	16
616.323	1	2
616.493	1	13
616.662	1	4
616.832	1	9
617.002	1	-2
617.171	1	-2
617.341	1	0
617.511	1	4
617.680	1	6
617.850	1	14
618.019	1	5
618.189	1	1
618.359	1	17
618.528	1	-6
618.698	1	7
618.868	1	15
619.037	1	17
619.207	1	-5
619.377	1	-10
619.546	1	6
619.716	1	-3
619.885	1	11
620.055	1	12
620.225	1	7
620.394	1	-3
620.564	1	-3
620.734	1	9
620.903	1	12
621.073	1	-6
621.242	1	-11
621.412	1	14
621.582	1	2
621.751	1	13
621.921	1	7
622.091	1	4
622.260	1	-7
622.430	1	13
622.599	1	9
622.769	1	10
622.939	1	2
623.108	1	7
623.278	1	9
623.448	1	-8
623.617	1	12
623.787	1	1
623.956	1	3
624.126	1	4
624.296	1	0
624.465	1	12
624.635	1	2
624.804	1	-3
624.974	1	7
625.144	1	14
625.313	1	8
625.483	1	7
625.652	1	6
625.822	1	5
625.992	1	-1
626.161	1	4
626.331	1	13
626.501	1	13
626.670	1	12
626.840	1	13
627.009	1	5
627.179	1	2
627.348	1	6
627.518	1	6
627.688	1	-1
627.857	1	13
628.027	1	0
628.196	1	13
628.366	1	12
628.536	1	2
628.705	1	4
628.875	1	5
629.044	1	8
629.214	1	0
629.384	1	3
629.553	1	6
629.723	1	15
629.892	1	8
630.062	1	7
630.232	1	22
630.401	1	6
630.571	1	8
630.740	1	13
630.910	1	2
631.079	1	11
631.249	1	-6
631.419	1	8
631.588	1	2
631.758	1	12
631.927	1	-1
632.097	1	14
632.266	1	-4
632.436	1	3
632.606	1	14
632.775	1	2
632.945	1	1
633.114	1	12
633.284	1	0
633.453	1	0
633.623	1	0
633.793	1	7
633.962	1	7
634.132	1	7
634.301	1	2
634.471	1	-9
634.640	1	11
634.810	1	4
634.979	1	9
635.149	1	5
635.319	1	10
635.488	1	3
635.658	1	8
635.827	1	0
635.997	1	7
636.166	1	6
636.336	1	9
636.505	1	8
636.675	1	1
636.845	1	15
637.014	1	7
637.184	1	5
637.353	1	7
637.523	1	2
637.692	1	-7
637.862	1	-10
638.031	1	16
638.201	1	8
638.370	1	10
638.540	1	9
638.710	1	4
638.879	1	-6
639.049	1	4
639.218	1	-2
639.388	1	3
639.557	1	7
639.727	1	8
639.896	1	11
640.066	1	7
640.235	1	1
640.405	1	1
640.574	1	6
640.744	1	9
640.914	1	2
641.083	1	1
641.253	1	4
641.422	1	-4
641.592	1	0
641.761	1	12
641.931	1	20
642.100	1	-9
642.270	1	0
642.439	1	3
642.609	1	8
642.778	1	8
642.948	1	6
643.117	1	0
643.287	1	16
643.456	1	16
643.626	1	4
643.795	1	6
643.965	1	-1
644.134	1	11
644.304	1	-12
644.473	1	10
644.643	1	4
644.812	1	12
644.982	1	20
645.151	1	3
645.321	1	14
645.490	1	16
645.660	1	2
645.829	1	-1
645.999	1	1
646.168	1	-1
646.338	1	13
646.507	1	2
646.677	1	1
646.846	1	12
647.016	1	6
647.185	1	1
647.355	1	-1
647.524	1	4
647.694	1	-4
647.863	1	-2
648.033	1	-4
648.202	1	5
648.372	1	8
648.541	1	-5
648.711	1	6
648.880	1	2
649.050	1	-4
649.219	1	3
649.389	1	0
649.558	1	-1
649.728	1	9
649.897	1	5
650.067	1	6
650.236	1	5
650.406	1	15
650.575	1	1
650.745	1	-5
650.914	1	-2
651.084	1	-2
651.253	1	4
651.423	1	7
651.592	1	-3
651.762	1	4
651.931	1	11
652.101	1	6
652.270	1	3
652.440	1	7
652.609	1	13
652.778	1	1
652.948	1	4
653.117	1	4
653.287	1	18
653.456	1	3
653.626	1	6
653.795	1	14
653.965	1	7
654.134	1	5
654.304	1	9
654.473	1	10
654.643	1	13
654.812	1	3
654.982	1	-2
655.151	1	-3
655.320	1	1
655.490	1	7
655.659	1	9
655.829	1	3
655.998	1	10
656.168	1	2
656.337	1	-9
656.507	1	10
656.676	1	-4
656.846	1	0
657.015	1	-2
657.184	1	8
657.354	1	5
657.523	1	0
657.693	1	9
657.862	1	4
658.032	1	15
658.201	1	0
658.371	1	-4
658.540	1	2
658.709	1	2
658.879	1	3
659.048	1	-1
659.218	1	0
659.387	1	-1
659.557	1	9
659.726	1	2
659.895	1	8
660.065	1	8
660.234	1	-3
660.404	1	9
660.573	1	-7
660.743	1	-4
660.912	1	4
661.081	1	6
661.251	1	8
661.420	1	5
661.590	1	7
661.759	1	9
661.929	1	9
662.098	1	-9
662.267	1	21
662.437	1	7
662.606	1	13
662.776	1	4
662.945	1	9
663.115	1	-8
663.284	1	6
663.453	1	7
663.623	1	1
663.792	1	1
663.962	1	-11
664.131	1	-10
664.300	1	6
664.470	1	-3
664.639	1	5
664.809	1	7
664.978	1	1
665.148	1	-8
665.317	1	-2
665.486	1	4
665.656	1	-1
665.825	1	11
665.995	1	16
666.164	1	3
666.333	1	11
666.503	1	3
666.672	1	-2
666.842	1	-3
667.011	1	8
667.180	1	4
667.350	1	8
667.519	1	3
667.689	1	2
667.858	1	12
668.027	1	-4
668.197	1	-4
668.366	1	4
668.536	1	3
668.705	1	-4
668.874	1	-5
669.044	1	3
669.213	1	-5
669.382	1	3
669.552	1	9
669.721	1	-6
669.891	1	2
670.060	1	11
670.229	1	8
670.399	1	8
670.568	1	11
670.738	1	-2
670.907	1	-2
671.076	1	18
671.246	1	4
671.415	1	3
671.584	1	1
671.754	1	-7
671.923	1	-14
672.093	1	9
672.262	1	7
672.431	1	1
672.601	1	-9
672.770	1	-1
672.939	1	-4
673.109	1	-11
673.278	1	7
673.448	1	2
673.617	1	15
673.786	1	3
