325.333	1	-7
325.504	1	2
325.675	1	-3
325.846	1	-5
326.017	1	0
326.188	1	5
326.359	1	5
326.531	1	-6
326.702	1	-2
326.873	1	0
327.044	1	-8
327.215	1	-6
327.386	1	-2
327.557	1	0
327.728	1	-2
327.899	1	-8
328.070	1	0
328.241	1	-4
328.412	1	13
328.583	1	-6
328.754	1	-4
328.926	1	0
329.097	1	6
329.268	1	-4
329.439	1	-3
329.610	1	-6
329.781	1	2
329.952	1	7
330.123	1	3
330.294	1	3
330.465	1	0
330.636	1	-8
330.807	1	-3
330.978	1	-8
331.149	1	0
331.320	1	3
331.492	1	-6
331.663	1	-8
331.834	1	8
332.005	1	3
332.176	1	-5
332.347	1	7
332.518	1	6
332.689	1	-6
332.860	1	0
333.031	1	-2
333.202	1	-3
333.373	1	-10
333.544	1	-6
333.715	1	-4
333.886	1	-5
334.057	1	-11
334.228	1	6
334.399	1	-3
334.570	1	0
334.741	1	-19
334.912	1	4
335.084	1	-7
335.255	1	-2
335.426	1	-13
335.597	1	-11
335.768	1	7
335.939	1	-2
336.110	1	-6
336.281	1	-7
336.452	1	0
336.623	1	10
336.794	1	-13
336.965	1	-5
337.136	1	-5
337.307	1	1
337.478	1	9
337.649	1	5
337.820	1	1
337.991	1	2
338.162	1	-7
338.333	1	1
338.504	1	-5
338.675	1	-4
338.846	1	-3
339.017	1	-4
339.188	1	-1
339.359	1	-5
339.530	1	5
339.701	1	-3
339.872	1	4
340.043	1	-8
340.214	1	-3
340.385	1	-3
340.556	1	0
340.727	1	-3
340.898	1	-4
341.069	1	0
341.240	1	7
341.411	1	3
341.582	1	-3
341.753	1	-2
341.924	1	-1
342.095	1	0
342.266	1	-1
342.437	1	8
342.608	1	-6
342.779	1	-7
342.950	1	7
343.121	1	1
343.292	1	-4
343.463	1	-13
343.634	1	-7
343.805	1	7
343.976	1	-1
344.147	1	-2
344.318	1	5
344.489	1	-9
344.660	1	8
344.831	1	9
345.002	1	-2
345.173	1	-1
345.344	1	-5
345.515	1	-8
345.686	1	-7
345.857	1	1
346.028	1	2
346.199	1	-12
346.370	1	0
346.541	1	4
346.712	1	1
346.883	1	0
347.054	1	-2
347.225	1	-7
347.396	1	2
347.567	1	3
347.738	1	10
347.909	1	-6
348.080	1	-5
348.251	1	4
348.422	1	0
348.593	1	-3
348.764	1	-8
348.935	1	1
349.106	1	8
349.277	1	-14
349.448	1	-9
349.619	1	4
349.790	1	4
349.961	1	3
350.132	1	6
350.303	1	-4
350.474	1	-6
350.645	1	-5
350.816	1	-13
350.987	1	-4
351.157	1	2
351.328	1	-7
351.499	1	3
351.670	1	13
351.841	1	-1
352.012	1	-10
352.183	1	-8
352.354	1	-2
352.525	1	1
352.696	1	-3
352.867	1	6
353.038	1	15
353.209	1	11
353.380	1	-6
353.551	1	-1
353.722	1	-4
353.893	1	-1
354.064	1	7
354.235	1	-8
354.406	1	-7
354.576	1	12
354.747	1	-6
354.918	1	-12
355.089	1	-4
355.260	1	-1
355.431	1	1
355.602	1	7
355.773	1	-3
355.944	1	-5
356.115	1	-7
356.286	1	4
356.457	1	-3
356.628	1	-3
356.799	1	-1
356.970	1	-3
357.141	1	-8
357.311	1	-6
357.482	1	0
357.653	1	-1
357.824	1	-6
357.995	1	3
358.166	1	-11
358.337	1	-4
358.508	1	3
358.679	1	10
358.850	1	-4
359.021	1	-7
359.192	1	-2
359.363	1	8
359.533	1	-7
359.704	1	-9
359.875	1	-4
360.046	1	-3
360.217	1	9
360.388	1	8
360.559	1	-1
360.730	1	-2
360.901	1	5
361.072	1	-2
361.243	1	-2
361.414	1	8
361.584	1	7
361.755	1	2
361.926	1	4
362.097	1	-1
362.268	1	1
362.439	1	5
362.610	1	-14
362.781	1	-5
362.952	1	-2
363.123	1	2
363.293	1	6
363.464	1	13
363.635	1	4
363.806	1	7
363.977	1	-1
364.148	1	-1
364.319	1	5
364.490	1	-10
364.661	1	5
364.832	1	-3
365.002	1	15
365.173	1	6
365.344	1	3
365.515	1	-2
365.686	1	3
365.857	1	5
366.028	1	-3
366.199	1	-4
366.370	1	5
366.540	1	8
366.711	1	6
366.882	1	5
367.053	1	11
367.224	1	11
367.395	1	11
367.566	1	3
367.737	1	-2
367.908	1	3
368.078	1	6
368.249	1	6
368.420	1	2
368.591	1	20
368.762	1	-3
368.933	1	4
369.104	1	-4
369.274	1	1
369.445	1	5
369.616	1	-10
369.787	1	2
369.958	1	-4
370.129	1	-2
370.300	1	0
370.471	1	13
370.641	1	5
370.812	1	6
370.983	1	-1
371.154	1	-7
371.325	1	7
371.496	1	-6
371.667	1	-6
371.837	1	-13
372.008	1	-2
372.179	1	-8
372.350	1	2
372.521	1	-7
372.692	1	-5
372.863	1	2
373.033	1	-3
373.204	1	9
373.375	1	-6
373.546	1	-6
373.717	1	0
373.888	1	-6
374.059	1	-6
374.229	1	-16
374.400	1	3
374.571	1	4
374.742	1	0
374.913	1	-2
375.084	1	-3
375.254	1	-8
375.425	1	-1
375.596	1	-14
375.767	1	-3
375.938	1	7
376.109	1	-7
376.279	1	-13
376.450	1	-4
376.621	1	10
376.792	1	-1
376.963	1	-1
377.134	1	-6
377.304	1	4
377.475	1	0
377.646	1	5
377.817	1	3
377.988	1	-4
378.159	1	0
378.329	1	1
378.500	1	-17
378.671	1	-2
378.842	1	-2
379.013	1	1
379.184	1	2
379.354	1	2
379.525	1	-1
379.696	1	-3
379.867	1	0
380.038	1	3
380.209	1	6
380.379	1	-15
380.550	1	-7
380.721	1	7
380.892	1	-8
381.063	1	3
381.233	1	4
381.404	1	3
381.575	1	-7
381.746	1	8
381.917	1	-9
382.087	1	-2
382.258	1	8
382.429	1	5
382.600	1	2
382.771	1	2
382.941	1	0
383.112	1	6
383.283	1	1
383.454	1	3
383.625	1	-4
383.795	1	13
383.966	1	1
384.137	1	3
384.308	1	6
384.479	1	17
384.649	1	0
384.820	1	-2
384.991	1	6
385.162	1	8
385.333	1	15
385.503	1	7
385.674	1	9
385.845	1	7
386.016	1	-2
386.187	1	15
386.357	1	3
386.528	1	16
386.699	1	24
386.870	1	18
387.041	1	-4
387.211	1	10
387.382	1	-1
387.553	1	6
387.724	1	-1
387.894	1	10
388.065	1	15
388.236	1	11
388.407	1	4
388.578	1	16
388.748	1	13
388.919	1	-2
389.090	1	5
389.261	1	-9
389.431	1	20
389.602	1	6
389.773	1	3
389.944	1	7
390.114	1	11
390.285	1	4
390.456	1	-4
390.627	1	-4
390.798	1	14
390.968	1	-2
391.139	1	-5
391.310	1	8
391.481	1	3
391.651	1	9
391.822	1	9
391.993	1	11
392.164	1	8
392.334	1	10
392.505	1	10
392.676	1	6
392.847	1	5
393.017	1	-3
393.188	1	-5
393.359	1	6
393.530	1	4
393.700	1	8
393.871	1	-6
394.042	1	15
394.213	1	11
394.383	1	11
394.554	1	11
394.725	1	11
394.896	1	-4
395.066	1	15
395.237	1	14
395.408	1	-1
395.579	1	14
395.749	1	22
395.920	1	17
396.091	1	0
396.262	1	4
396.432	1	3
396.603	1	10
396.774	1	-3
396.945	1	10
397.115	1	12
397.286	1	10
397.457	1	10
397.627	1	4
397.798	1	6
397.969	1	1
398.140	1	1
398.310	1	8
398.481	1	2
398.652	1	11
398.823	1	25
398.993	1	7
399.164	1	14
399.335	1	11
399.505	1	8
399.676	1	16
399.847	1	4
400.018	1	11
400.188	1	7
400.359	1	14
400.530	1	-3
400.700	1	2
400.871	1	0
401.042	1	4
401.213	1	3
401.383	1	8
401.554	1	9
401.725	1	6
401.895	1	6
402.066	1	9
402.237	1	7
402.408	1	4
402.578	1	2
402.749	1	-3
402.920	1	-12
403.090	1	5
403.261	1	10
403.432	1	9
403.603	1	6
403.773	1	9
403.944	1	5
404.115	1	-6
404.285	1	-1
404.456	1	11
404.627	1	10
404.797	1	27
404.968	1	-5
405.139	1	0
405.310	1	1
405.480	1	8
405.651	1	8
405.822	1	9
405.992	1	3
406.163	1	6
406.334	1	1
406.504	1	7
406.675	1	15
406.846	1	1
407.016	1	10
407.187	1	4
407.358	1	-3
407.528	1	6
407.699	1	9
407.870	1	10
408.041	1	1
408.211	1	-10
408.382	1	10
408.553	1	6
408.723	1	5
408.894	1	-8
409.065	1	21
409.235	1	-3
409.406	1	5
409.577	1	16
409.747	1	10
409.918	1	5
410.089	1	4
410.259	1	-2
410.430	1	16
410.601	1	2
410.771	1	12
410.942	1	7
411.113	1	-3
411.283	1	-7
411.454	1	-3
411.625	1	2
411.795	1	4
411.966	1	-5
412.137	1	1
412.307	1	1
412.478	1	8
412.649	1	-4
412.819	1	6
412.990	1	8
413.161	1	5
413.331	1	-4
413.502	1	15
413.672	1	2
413.843	1	1
414.014	1	5
414.184	1	-6
414.355	1	0
414.526	1	0
414.696	1	-2
414.867	1	7
415.038	1	6
415.208	1	2
415.379	1	12
415.550	1	4
415.720	1	6
415.891	1	4
416.062	1	0
416.232	1	3
416.403	1	10
416.573	1	10
416.744	1	2
416.915	1	-4
417.085	1	4
417.256	1	4
417.427	1	-2
417.597	1	-13
417.768	1	1
417.939	1	-2
418.109	1	10
418.280	1	-1
418.450	1	-6
418.621	1	7
418.792	1	1
418.962	1	1
419.133	1	8
419.304	1	2
419.474	1	-9
419.645	1	6
419.815	1	1
419.986	1	2
420.157	1	2
420.327	1	13
420.498	1	9
420.669	1	7
420.839	1	0
421.010	1	0
421.180	1	-1
421.351	1	13
421.522	1	4
421.692	1	5
421.863	1	-6
422.033	1	-1
422.204	1	-7
422.375	1	-7
422.545	1	0
422.716	1	-6
422.886	1	1
423.057	1	-5
423.228	1	-14
423.398	1	4
423.569	1	2
423.740	1	-5
423.910	1	2
424.081	1	1
424.251	1	-4
424.422	1	6
424.593	1	9
424.763	1	2
424.934	1	6
425.104	1	6
425.275	1	-9
425.445	1	-3
425.616	1	3
425.787	1	-8
425.957	1	9
426.128	1	-7
426.298	1	3
426.469	1	3
426.640	1	-3
426.810	1	2
426.981	1	-9
427.151	1	1
427.322	1	-3
427.493	1	3
427.663	1	4
427.834	1	-2
428.004	1	8
428.175	1	-6
428.345	1	8
428.516	1	-3
428.687	1	-3
428.857	1	1
429.028	1	-3
429.198	1	-9
429.369	1	2
429.540	1	13
429.710	1	-13
429.881	1	15
430.051	1	10
430.222	1	2
430.392	1	-5
430.563	1	12
430.734	1	8
430.904	1	2
431.075	1	10
431.245	1	11
431.416	1	7
431.586	1	-1
431.757	1	-1
431.927	1	2
432.098	1	4
432.269	1	4
432.439	1	-9
432.610	1	-1
432.780	1	-1
432.951	1	4
433.121	1	10
433.292	1	-12
433.462	1	-4
433.633	1	-5
433.804	1	-8
433.974	1	-12
434.145	1	-7
434.315	1	12
434.486	1	7
434.656	1	-8
434.827	1	-2
434.997	1	0
435.168	1	-2
435.339	1	8
435.509	1	5
435.680	1	-9
435.850	1	9
436.021	1	3
436.191	1	2
436.362	1	-2
436.532	1	4
436.703	1	3
436.873	1	-1
437.044	1	7
437.214	1	-4
437.385	1	-6
437.556	1	-3
437.726	1	-4
437.897	1	-3
438.067	1	13
438.238	1	-2
438.408	1	5
438.579	1	7
438.749	1	-2
438.920	1	-5
439.090	1	5
439.261	1	-2
439.431	1	2
439.602	1	-4
439.772	1	8
439.943	1	-2
440.113	1	-2
440.284	1	-1
440.455	1	-8
440.625	1	4
440.796	1	-8
440.966	1	9
441.137	1	-10
441.307	1	-1
441.478	1	-3
441.648	1	-1
441.819	1	9
441.989	1	-11
442.160	1	5
442.330	1	-1
442.501	1	-12
442.671	1	-5
442.842	1	3
443.012	1	-7
443.183	1	-3
443.353	1	7
443.524	1	9
443.694	1	8
443.865	1	-9
444.035	1	-10
444.206	1	-5
444.376	1	-2
444.547	1	-3
444.717	1	10
444.888	1	-7
445.058	1	1
445.229	1	1
445.399	1	1
445.570	1	9
445.740	1	-3
445.911	1	9
446.081	1	9
446.252	1	-12
446.422	1	1
446.593	1	0
446.763	1	2
446.934	1	9
447.104	1	-1
447.275	1	-7
447.445	1	-6
447.616	1	-2
447.786	1	2
447.957	1	-7
448.127	1	7
448.298	1	0
448.468	1	-2
448.639	1	6
448.809	1	-4
448.979	1	0
449.150	1	0
449.320	1	4
449.491	1	-3
449.661	1	2
449.832	1	-9
450.002	1	-1
450.173	1	-5
450.343	1	-1
450.514	1	4
450.684	1	2
450.855	1	1
451.025	1	1
451.196	1	-3
451.366	1	1
451.537	1	-7
451.707	1	8
451.878	1	-11
452.048	1	-4
452.218	1	-2
452.389	1	-8
452.559	1	-4
452.730	1	2
452.900	1	-11
453.071	1	5
453.241	1	-1
453.412	1	-7
453.582	1	3
453.753	1	0
453.923	1	3
454.093	1	0
454.264	1	-2
454.434	1	2
454.605	1	5
454.775	1	7
454.946	1	3
455.116	1	3
455.287	1	5
455.457	1	-10
455.628	1	-1
455.798	1	-8
455.968	1	3
456.139	1	2
456.309	1	-3
456.480	1	-6
456.650	1	-2
456.821	1	5
456.991	1	12
457.161	1	1
457.332	1	-4
457.502	1	7
457.673	1	0
457.843	1	3
458.014	1	0
458.184	1	0
458.355	1	9
458.525	1	-3
458.695	1	13
458.866	1	-14
459.036	1	8
459.207	1	2
459.377	1	-4
459.548	1	-6
459.718	1	-9
459.888	1	0
460.059	1	7
460.229	1	10
460.400	1	4
460.570	1	-5
460.740	1	-2
460.911	1	10
461.081	1	-9
461.252	1	-10
461.422	1	7
461.593	1	-1
461.763	1	1
461.933	1	-3
462.104	1	-3
462.274	1	2
462.445	1	-3
462.615	1	-9
462.785	1	-7
462.956	1	-8
463.126	1	3
463.297	1	5
463.467	1	-4
463.638	1	1
463.808	1	6
463.978	1	-1
464.149	1	-10
464.319	1	1
464.490	1	-7
464.660	1	-1
464.830	1	-1
465.001	1	0
465.171	1	7
465.342	1	-1
465.512	1	3
465.682	1	-1
465.853	1	0
466.023	1	1
466.194	1	1
466.364	1	6
466.534	1	-4
466.705	1	11
466.875	1	0
467.045	1	8
467.216	1	-9
467.386	1	-6
467.557	1	7
467.727	1	2
467.897	1	1
468.068	1	7
468.238	1	3
468.409	1	6
468.579	1	12
468.749	1	1
468.920	1	-7
469.090	1	6
469.260	1	3
469.431	1	5
469.601	1	3
469.772	1	-18
469.942	1	-2
470.112	1	7
470.283	1	6
470.453	1	-1
470.623	1	2
470.794	1	8
470.964	1	-6
471.135	1	-11
471.305	1	1
471.475	1	-1
471.646	1	-2
471.816	1	-4
471.986	1	-1
472.157	1	2
472.327	1	2
472.497	1	-4
472.668	1	-1
472.838	1	7
473.009	1	6
473.179	1	-6
473.349	1	5
473.520	1	0
473.690	1	1
473.860	1	0
474.031	1	-5
474.201	1	-6
474.371	1	-1
474.542	1	-9
474.712	1	4
474.882	1	-3
475.053	1	-17
475.223	1	-4
475.394	1	-1
475.564	1	11
475.734	1	-6
475.905	1	0
476.075	1	-2
476.245	1	-1
476.416	1	-1
476.586	1	-2
476.756	1	-1
476.927	1	2
477.097	1	-2
477.267	1	-11
477.438	1	0
477.608	1	3
477.778	1	4
477.949	1	4
478.119	1	6
478.289	1	0
478.460	1	-6
478.630	1	-11
478.800	1	-6
478.971	1	6
479.141	1	-1
479.311	1	1
479.482	1	-12
479.652	1	-4
479.822	1	-5
479.993	1	4
480.163	1	-11
480.333	1	-8
480.504	1	-6
480.674	1	6
480.844	1	-2
481.015	1	-8
481.185	1	7
481.355	1	4
481.525	1	1
481.696	1	6
481.866	1	-3
482.036	1	-8
482.207	1	1
482.377	1	-1
482.547	1	0
482.718	1	-2
482.888	1	0
483.058	1	-1
483.229	1	1
483.399	1	1
483.569	1	3
483.740	1	-8
483.910	1	3
484.080	1	-7
484.250	1	1
484.421	1	2
484.591	1	6
484.761	1	-5
484.932	1	1
485.102	1	7
485.272	1	2
485.443	1	11
485.613	1	-17
485.783	1	4
485.953	1	-3
486.124	1	2
486.294	1	0
486.464	1	-6
486.635	1	11
486.805	1	9
486.975	1	-14
487.146	1	-4
487.316	1	13
487.486	1	1
487.656	1	-10
487.827	1	6
487.997	1	6
488.167	1	5
488.338	1	13
488.508	1	2
488.678	1	0
488.848	1	-10
489.019	1	0
489.189	1	2
489.359	1	-3
489.529	1	7
489.700	1	-1
489.870	1	-4
490.040	1	-4
490.211	1	8
490.381	1	-7
490.551	1	-4
490.721	1	3
490.892	1	0
491.062	1	2
491.232	1	-6
491.402	1	2
491.573	1	4
491.743	1	-14
491.913	1	0
492.084	1	-1
492.254	1	5
492.424	1	2
492.594	1	-2
492.765	1	3
492.935	1	-3
493.105	1	10
493.275	1	5
493.446	1	-3
493.616	1	11
493.786	1	2
493.956	1	4
494.127	1	-3
494.297	1	-2
494.467	1	4
494.637	1	-7
494.808	1	6
494.978	1	-4
495.148	1	10
495.318	1	16
495.489	1	-2
495.659	1	6
495.829	1	3
495.999	1	-3
496.170	1	-8
496.340	1	1
496.510	1	-7
496.680	1	1
496.851	1	4
497.021	1	2
497.191	1	-5
497.361	1	-2
497.532	1	6
497.702	1	-4
497.872	1	6
498.042	1	-4
498.213	1	13
498.383	1	-8
498.553	1	2
498.723	1	-2
498.894	1	-3
499.064	1	9
499.234	1	-6
499.404	1	2
499.574	1	0
499.745	1	4
499.915	1	2
500.085	1	-9
500.255	1	9
500.426	1	-8
500.596	1	3
500.766	1	4
500.936	1	-3
501.106	1	-2
501.277	1	0
501.447	1	1
501.617	1	3
501.787	1	5
501.958	1	-11
502.128	1	-5
502.298	1	8
502.468	1	20
502.638	1	9
502.809	1	-2
502.979	1	-7
503.149	1	-2
503.319	1	0
503.489	1	9
503.660	1	6
503.830	1	-1
504.000	1	-7
504.170	1	1
504.340	1	0
504.511	1	7
504.681	1	2
504.851	1	-3
505.021	1	-4
505.192	1	10
505.362	1	7
505.532	1	4
505.702	1	1
505.872	1	-7
506.043	1	5
506.213	1	4
506.383	1	-7
506.553	1	9
506.723	1	3
506.893	1	-1
507.064	1	0
507.234	1	1
507.404	1	4
507.574	1	0
507.744	1	-9
507.915	1	2
508.085	1	8
508.255	1	-3
508.425	1	5
508.595	1	2
508.766	1	-4
508.936	1	8
509.106	1	-4
509.276	1	2
509.446	1	-5
509.616	1	2
509.787	1	0
509.957	1	-1
510.127	1	10
510.297	1	1
510.467	1	-1
510.638	1	-10
510.808	1	-5
510.978	1	-3
511.148	1	8
511.318	1	4
511.488	1	13
511.659	1	1
511.829	1	4
511.999	1	8
512.169	1	6
512.339	1	-1
512.509	1	4
512.680	1	10
512.850	1	0
513.020	1	-3
513.190	1	-4
513.360	1	6
513.530	1	4
513.700	1	-1
513.871	1	15
514.041	1	-4
514.211	1	-6
514.381	1	5
514.551	1	5
514.721	1	10
514.892	1	0
515.062	1	7
515.232	1	4
515.402	1	5
515.572	1	-7
515.742	1	7
515.912	1	5
516.083	1	-9
516.253	1	4
516.423	1	20
516.593	1	-6
516.763	1	8
516.933	1	2
517.104	1	5
517.274	1	7
517.444	1	5
517.614	1	0
517.784	1	-2
517.954	1	-4
518.124	1	19
518.294	1	6
518.465	1	10
518.635	1	-4
518.805	1	0
518.975	1	1
519.145	1	4
519.315	1	7
519.485	1	-3
519.656	1	4
519.826	1	6
519.996	1	2
520.166	1	8
520.336	1	10
520.506	1	9
520.676	1	-1
520.846	1	-13
521.017	1	-5
521.187	1	-4
521.357	1	-11
521.527	1	-5
521.697	1	11
521.867	1	1
522.037	1	1
522.207	1	-1
522.377	1	8
522.548	1	-7
522.718	1	-5
522.888	1	-3
523.058	1	19
523.228	1	16
523.398	1	7
523.568	1	0
523.738	1	4
523.909	1	12
524.079	1	8
524.249	1	7
524.419	1	2
524.589	1	8
524.759	1	5
524.929	1	5
525.099	1	-2
525.269	1	7
525.439	1	-1
525.610	1	-2
525.780	1	5
525.950	1	-10
526.120	1	-1
526.290	1	4
526.460	1	0
526.630	1	5
526.800	1	6
526.970	1	-3
527.140	1	3
527.311	1	7
527.481	1	10
527.651	1	10
527.821	1	1
527.991	1	3
528.161	1	-2
528.331	1	2
528.501	1	-5
528.671	1	5
528.841	1	6
529.011	1	-1
529.181	1	6
529.352	1	7
529.522	1	-3
529.692	1	10
529.862	1	1
530.032	1	4
530.202	1	4
530.372	1	3
530.542	1	9
530.712	1	17
530.882	1	1
531.052	1	4
531.222	1	-5
531.392	1	8
531.563	1	4
531.733	1	7
531.903	1	5
532.073	1	0
532.243	1	-1
532.413	1	3
532.583	1	-2
532.753	1	-3
532.923	1	5
533.093	1	8
533.263	1	11
533.433	1	5
533.603	1	5
533.773	1	-5
533.943	1	-1
534.113	1	11
534.284	1	7
534.454	1	11
534.624	1	3
534.794	1	0
534.964	1	-4
535.134	1	-1
535.304	1	3
535.474	1	-2
535.644	1	0
535.814	1	5
535.984	1	-1
536.154	1	2
536.324	1	5
536.494	1	9
536.664	1	10
536.834	1	15
537.004	1	10
537.174	1	15
537.344	1	7
537.514	1	7
537.685	1	8
537.855	1	0
538.025	1	5
538.195	1	9
538.365	1	14
538.535	1	15
538.705	1	-4
538.875	1	5
539.045	1	10
539.215	1	-5
539.385	1	-11
539.555	1	1
539.725	1	9
539.895	1	6
540.065	1	5
540.235	1	-7
540.405	1	-1
540.575	1	0
540.745	1	4
540.915	1	8
541.085	1	-1
541.255	1	-3
541.425	1	5
541.595	1	-4
541.765	1	2
541.935	1	15
542.105	1	7
542.275	1	1
542.445	1	5
542.615	1	-1
542.785	1	5
542.955	1	2
543.125	1	1
543.295	1	3
543.465	1	12
543.635	1	8
543.805	1	14
543.975	1	12
544.145	1	-2
544.315	1	-7
544.485	1	2
544.655	1	5
544.825	1	8
544.995	1	-1
545.165	1	11
545.335	1	2
545.505	1	2
545.675	1	1
545.845	1	-2
546.015	1	-1
546.185	1	-11
546.355	1	13
546.525	1	3
546.695	1	-11
546.865	1	-10
547.035	1	5
547.205	1	0
547.375	1	8
547.545	1	4
547.715	1	6
547.885	1	6
548.055	1	3
548.225	1	-1
548.395	1	5
548.565	1	-3
548.735	1	11
548.905	1	-7
549.075	1	-9
549.245	1	2
549.415	1	-3
549.585	1	-5
549.755	1	-6
549.925	1	-2
550.095	1	5
550.265	1	-6
550.435	1	12
550.605	1	0
550.775	1	-4
550.945	1	5
551.115	1	0
551.285	1	-2
551.455	1	3
551.625	1	-12
551.795	1	3
551.965	1	7
552.135	1	-5
552.305	1	10
552.475	1	-3
552.645	1	6
552.815	1	0
552.985	1	4
553.155	1	3
553.325	1	3
553.495	1	0
553.665	1	2
553.835	1	1
554.004	1	-3
554.174	1	4
554.344	1	-10
554.514	1	5
554.684	1	6
554.854	1	2
555.024	1	-8
555.194	1	7
555.364	1	15
555.534	1	-5
555.704	1	1
555.874	1	-14
556.044	1	12
556.214	1	7
556.384	1	2
556.554	1	-9
556.724	1	-4
556.894	1	12
557.064	1	-5
557.234	1	-1
557.404	1	-1
557.573	1	9
557.743	1	12
557.913	1	0
558.083	1	-9
558.253	1	-12
558.423	1	-2
558.593	1	-5
558.763	1	-9
558.933	1	3
559.103	1	5
559.273	1	-5
559.443	1	9
559.613	1	2
559.783	1	2
559.953	1	-10
560.122	1	-4
560.292	1	4
560.462	1	-7
560.632	1	4
560.802	1	8
560.972	1	14
561.142	1	6
561.312	1	5
561.482	1	-1
561.652	1	5
561.822	1	8
561.992	1	8
562.162	1	3
562.331	1	-8
562.501	1	-1
562.671	1	1
562.841	1	-1
563.011	1	-8
563.181	1	6
563.351	1	-3
563.521	1	2
563.691	1	-6
563.861	1	2
564.031	1	-1
564.201	1	-1
564.370	1	8
564.540	1	9
564.710	1	-5
564.880	1	-2
565.050	1	-1
565.220	1	-4
565.390	1	-9
565.560	1	7
565.730	1	2
565.900	1	6
566.069	1	7
566.239	1	5
566.409	1	0
566.579	1	7
566.749	1	7
566.919	1	8
567.089	1	-3
567.259	1	9
567.429	1	1
567.599	1	-5
567.768	1	6
567.938	1	-3
568.108	1	-3
568.278	1	-9
568.448	1	-9
568.618	1	0
568.788	1	-6
568.958	1	-2
569.128	1	9
569.297	1	5
569.467	1	0
569.637	1	6
569.807	1	-2
569.977	1	7
570.147	1	-6
570.317	1	15
570.487	1	3
570.656	1	-8
570.826	1	4
570.996	1	-4
571.166	1	-7
571.336	1	6
571.506	1	4
571.676	1	7
571.846	1	5
572.015	1	-8
572.185	1	-9
572.355	1	5
572.525	1	-9
572.695	1	6
572.865	1	11
573.035	1	5
573.205	1	15
573.374	1	-1
573.544	1	8
573.714	1	10
573.884	1	0
574.054	1	-2
574.224	1	-3
574.394	1	-6
574.563	1	9
574.733	1	1
574.903	1	-1
575.073	1	-5
575.243	1	-13
575.413	1	8
575.583	1	8
575.752	1	-3
575.922	1	-5
576.092	1	8
576.262	1	2
576.432	1	-10
576.602	1	-2
576.772	1	-1
576.941	1	2
577.111	1	8
577.281	1	-1
577.451	1	4
577.621	1	5
577.791	1	-6
577.960	1	-11
578.130	1	-8
578.300	1	-3
578.470	1	-2
578.640	1	-4
578.810	1	0
578.979	1	-4
579.149	1	-9
579.319	1	3
579.489	1	2
579.659	1	4
579.829	1	8
579.998	1	-2
580.168	1	6
580.338	1	-12
580.508	1	0
580.678	1	-1
580.848	1	2
581.017	1	-12
581.187	1	6
581.357	1	-11
581.527	1	10
581.697	1	-5
581.867	1	-2
582.036	1	9
582.206	1	1
582.376	1	7
582.546	1	-5
582.716	1	2
582.885	1	5
583.055	1	-6
583.225	1	2
583.395	1	-7
583.565	1	15
583.735	1	0
583.904	1	0
584.074	1	-3
584.244	1	-9
584.414	1	-3
584.584	1	6
584.753	1	0
584.923	1	-7
585.093	1	4
585.263	1	-3
585.433	1	-7
585.602	1	3
585.772	1	-10
585.942	1	-4
586.112	1	2
586.282	1	-4
586.451	1	2
586.621	1	-1
586.791	1	-7
586.961	1	2
587.131	1	-14
587.300	1	-2
587.470	1	12
587.640	1	-3
587.810	1	-3
587.980	1	-3
588.149	1	0
588.319	1	7
588.489	1	3
588.659	1	-1
588.829	1	-2
588.998	1	4
589.168	1	8
589.338	1	-6
589.508	1	3
589.677	1	-3
589.847	1	0
590.017	1	-5
590.187	1	-15
590.357	1	-2
590.526	1	-8
590.696	1	-8
590.866	1	-6
591.036	1	7
591.205	1	-1
591.375	1	-5
591.545	1	-6
591.715	1	-6
591.885	1	-2
592.054	1	-2
592.224	1	3
592.394	1	-2
592.564	1	-6
592.733	1	2
592.903	1	-5
593.073	1	4
593.243	1	-7
593.412	1	-9
593.582	1	7
593.752	1	-1
593.922	1	-10
594.091	1	6
594.261	1	-1
594.431	1	-8
594.601	1	-12
594.771	1	4
594.940	1	-3
595.110	1	10
595.280	1	1
595.450	1	4
595.619	1	0
595.789	1	3
595.959	1	8
596.129	1	-1
596.298	1	5
596.468	1	-4
596.638	1	-2
596.808	1	-3
596.977	1	-4
597.147	1	3
597.317	1	1
597.487	1	-2
597.656	1	1
597.826	1	-4
597.996	1	0
598.166	1	0
598.335	1	9
598.505	1	-4
598.675	1	3
598.844	1	3
599.014	1	-3
599.184	1	-1
599.354	1	-7
599.523	1	-10
599.693	1	12
599.863	1	2
600.033	1	-1
600.202	1	5
600.372	1	-1
600.542	1	-5
600.712	1	0
600.881	1	4
601.051	1	11
601.221	1	6
601.390	1	-6
601.560	1	1
601.730	1	-10
601.900	1	0
602.069	1	-5
602.239	1	-6
602.409	1	-4
602.578	1	6
602.748	1	-6
602.918	1	-2
603.088	1	0
603.257	1	8
603.427	1	-5
603.597	1	3
603.767	1	-12
603.936	1	1
604.106	1	6
604.276	1	1
604.445	1	9
604.615	1	2
604.785	1	7
604.954	1	-4
605.124	1	-6
605.294	1	-2
605.464	1	0
605.633	1	2
605.803	1	-6
605.973	1	-10
606.142	1	3
606.312	1	-1
606.482	1	-10
606.652	1	-8
606.821	1	-2
606.991	1	-1
607.161	1	-8
607.330	1	3
607.500	1	17
607.670	1	-7
607.839	1	1
608.009	1	-13
608.179	1	-2
608.348	1	-6
608.518	1	3
608.688	1	-3
608.858	1	3
609.027	1	-2
609.197	1	-7
609.367	1	-8
609.536	1	-6
609.706	1	-1
609.876	1	4
610.045	1	-9
610.215	1	-5
610.385	1	7
610.554	1	-5
610.724	1	1
610.894	1	-1
611.063	1	6
611.233	1	-5
611.403	1	-9
611.572	1	-2
611.742	1	-1
611.912	1	4
612.081	1	-4
612.251	1	0
612.421	1	12
612.590	1	-1
612.760	1	4
612.930	1	-2
613.099	1	-2
613.269	1	-3
613.439	1	4
613.608	1	2
613.778	1	4
613.948	1	4
614.117	1	15
614.287	1	-7
614.457	1	-2
614.626	1	-9
614.796	1	8
614.966	1	0
615.135	1	1
615.305	1	-1
615.475	1	5
615.644	1	-6
615.814	1	5
615.984	1	11
616.153	1	5
616.323	1	0
616.493	1	-2
616.662	1	-5
616.832	1	-7
617.002	1	2
617.171	1	-5
617.341	1	0
617.511	1	-1
617.680	1	1
617.850	1	4
618.019	1	5
618.189	1	-4
618.359	1	1
618.528	1	-4
618.698	1	-8
618.868	1	-1
619.037	1	5
619.207	1	-6
619.377	1	-15
619.546	1	2
619.716	1	-15
619.885	1	1
620.055	1	1
620.225	1	3
620.394	1	-2
620.564	1	0
620.734	1	3
620.903	1	6
621.073	1	-2
621.242	1	-6
621.412	1	0
621.582	1	-11
621.751	1	3
621.921	1	-3
622.091	1	-8
622.260	1	-12
622.430	1	-9
622.599	1	16
622.769	1	4
622.939	1	-6
623.108	1	-3
623.278	1	3
623.448	1	-2
623.617	1	9
623.787	1	0
623.956	1	0
624.126	1	-2
624.296	1	-8
624.465	1	4
624.635	1	-6
624.804	1	-14
624.974	1	1
625.144	1	-2
625.313	1	1
625.483	1	0
625.652	1	-5
625.822	1	2
625.992	1	-7
626.161	1	-6
626.331	1	7
626.501	1	1
626.670	1	-2
626.840	1	8
627.009	1	-8
627.179	1	-8
627.348	1	-2
627.518	1	-6
627.688	1	5
627.857	1	10
628.027	1	-5
628.196	1	6
628.366	1	8
628.536	1	-2
628.705	1	-2
628.875	1	8
629.044	1	6
629.214	1	3
629.384	1	-9
629.553	1	-5
629.723	1	4
629.892	1	-5
630.062	1	0
630.232	1	7
630.401	1	-2
630.571	1	-7
630.740	1	4
630.910	1	3
631.079	1	4
631.249	1	-4
631.419	1	-1
631.588	1	-2
631.758	1	-2
631.927	1	3
632.097	1	3
632.266	1	-14
632.436	1	-10
632.606	1	-8
632.775	1	0
632.945	1	-3
633.114	1	5
633.284	1	-12
633.453	1	-4
633.623	1	2
633.793	1	-2
633.962	1	6
634.132	1	-3
634.301	1	-2
634.471	1	-12
634.640	1	-5
634.810	1	0
634.979	1	6
635.149	1	-8
635.319	1	1
635.488	1	3
635.658	1	-2
635.827	1	2
635.997	1	1
636.166	1	1
636.336	1	5
636.505	1	4
636.675	1	-8
636.845	1	7
637.014	1	-1
637.184	1	-10
637.353	1	11
637.523	1	-5
637.692	1	2
637.862	1	-11
638.031	1	10
638.201	1	0
638.370	1	5
638.540	1	3
638.710	1	-4
638.879	1	-5
639.049	1	4
639.218	1	-5
639.388	1	7
639.557	1	0
639.727	1	-8
639.896	1	4
640.066	1	3
640.235	1	1
640.405	1	1
640.574	1	0
640.744	1	7
640.914	1	2
641.083	1	-1
641.253	1	-5
641.422	1	-9
641.592	1	-5
641.761	1	2
641.931	1	2
642.100	1	-8
642.270	1	2
642.439	1	0
642.609	1	6
642.778	1	-2
642.948	1	-2
643.117	1	-9
643.287	1	4
643.456	1	10
643.626	1	-3
643.795	1	-2
643.965	1	-9
644.134	1	0
644.304	1	-3
644.473	1	3
644.643	1	2
644.812	1	5
644.982	1	2
645.151	1	5
645.321	1	9
645.490	1	1
645.660	1	-4
645.829	1	-8
645.999	1	1
646.168	1	-8
646.338	1	6
646.507	1	0
646.677	1	2
646.846	1	12
647.016	1	1
647.185	1	-5
647.355	1	-5
647.524	1	4
647.694	1	-8
647.863	1	-7
648.033	1	-10
648.202	1	5
648.372	1	2
648.541	1	6
648.711	1	-2
648.880	1	4
649.050	1	0
649.219	1	-3
649.389	1	-12
649.558	1	-12
649.728	1	2
649.897	1	-3
650.067	1	-3
650.236	1	14
650.406	1	6
650.575	1	-3
650.745	1	-10
650.914	1	-8
651.084	1	0
651.253	1	-6
651.423	1	2
651.592	1	4
651.762	1	5
651.931	1	2
652.101	1	-3
652.270	1	0
652.440	1	1
652.609	1	2
652.778	1	0
652.948	1	-3
653.117	1	1
653.287	1	8
653.456	1	4
653.626	1	1
653.795	1	-5
653.965	1	9
654.134	1	1
654.304	1	-1
654.473	1	2
654.643	1	18
654.812	1	-7
654.982	1	-9
655.151	1	-12
655.320	1	-5
655.490	1	11
655.659	1	-1
655.829	1	-5
655.998	1	4
656.168	1	-1
656.337	1	-9
656.507	1	7
656.676	1	-3
656.846	1	1
657.015	1	-4
657.184	1	6
657.354	1	-9
657.523	1	-10
657.693	1	1
657.862	1	-1
658.032	1	7
658.201	1	-2
658.371	1	-7
658.540	1	-10
658.709	1	-5
658.879	1	-1
659.048	1	-2
659.218	1	-5
659.387	1	-6
659.557	1	-4
659.726	1	0
659.895	1	-7
660.065	1	-1
660.234	1	2
660.404	1	-1
660.573	1	-6
660.743	1	-2
660.912	1	-2
661.081	1	4
661.251	1	3
661.420	1	-4
661.590	1	-2
661.759	1	10
661.929	1	1
662.098	1	-6
662.267	1	7
662.437	1	3
662.606	1	-1
662.776	1	-2
662.945	1	-2
663.115	1	-3
663.284	1	-14
663.453	1	0
663.623	1	-2
663.792	1	-4
663.962	1	0
664.131	1	-6
664.300	1	-6
664.470	1	-2
664.639	1	-8
664.809	1	3
664.978	1	-1
665.148	1	-12
665.317	1	-4
665.486	1	1
665.656	1	-4
665.825	1	1
665.995	1	-4
666.164	1	6
666.333	1	7
666.503	1	-10
666.672	1	-9
666.842	1	-2
667.011	1	6
667.180	1	4
667.350	1	5
667.519	1	-6
667.689	1	-4
667.858	1	2
668.027	1	-10
668.197	1	0
668.366	1	-2
668.536	1	-2
668.705	1	-3
668.874	1	-4
669.044	1	-6
669.213	1	8
669.382	1	-9
669.552	1	8
669.721	1	-11
669.891	1	3
670.060	1	4
670.229	1	1
670.399	1	14
670.568	1	4
670.738	1	-16
670.907	1	-11
671.076	1	4
671.246	1	2
671.415	1	2
671.584	1	-12
671.754	1	-7
671.923	1	-4
672.093	1	-3
672.262	1	8
672.431	1	-3
672.601	1	-7
672.770	1	4
672.939	1	-12
673.109	1	1
673.278	1	3
673.448	1	-8
673.617	1	8
673.786	1	-3
