325.333	1	0
325.504	1	10
325.675	1	-3
325.846	1	0
326.017	1	-2
326.188	1	10
326.359	1	3
326.531	1	3
326.702	1	-5
326.873	1	-1
327.044	1	-1
327.215	1	-6
327.386	1	-2
327.557	1	-3
327.728	1	-7
327.899	1	-9
328.070	1	5
328.241	1	3
328.412	1	12
328.583	1	-4
328.754	1	-11
328.926	1	5
329.097	1	-3
329.268	1	-6
329.439	1	-3
329.610	1	-1
329.781	1	-4
329.952	1	11
330.123	1	1
330.294	1	3
330.465	1	8
330.636	1	6
330.807	1	9
330.978	1	-5
331.149	1	0
331.320	1	3
331.492	1	-4
331.663	1	-1
331.834	1	2
332.005	1	0
332.176	1	-10
332.347	1	10
332.518	1	10
332.689	1	7
332.860	1	-4
333.031	1	12
333.202	1	1
333.373	1	-1
333.544	1	7
333.715	1	0
333.886	1	-3
334.057	1	-11
334.228	1	2
334.399	1	7
334.570	1	-6
334.741	1	-6
334.912	1	-1
335.084	1	-6
335.255	1	-3
335.426	1	0
335.597	1	-2
335.768	1	9
335.939	1	2
336.110	1	0
336.281	1	-9
336.452	1	-7
336.623	1	4
336.794	1	-10
336.965	1	4
337.136	1	-7
337.307	1	13
337.478	1	0
337.649	1	3
337.820	1	10
337.991	1	9
338.162	1	9
338.333	1	-2
338.504	1	-3
338.675	1	7
338.846	1	2
339.017	1	-11
339.188	1	-5
339.359	1	1
339.530	1	-6
339.701	1	1
339.872	1	2
340.043	1	5
340.214	1	5
340.385	1	-4
340.556	1	-2
340.727	1	-8
340.898	1	2
341.069	1	-3
341.240	1	3
341.411	1	13
341.582	1	0
341.753	1	3
341.924	1	-8
342.095	1	-3
342.266	1	-3
342.437	1	3
342.608	1	-8
342.779	1	4
342.950	1	7
343.121	1	7
343.292	1	-6
343.463	1	-8
343.634	1	-11
343.805	1	5
343.976	1	0
344.147	1	-9
344.318	1	-2
344.489	1	4
344.660	1	6
344.831	1	-6
345.002	1	3
345.173	1	-7
345.344	1	1
345.515	1	-2
345.686	1	-8
345.857	1	1
346.028	1	-9
346.199	1	-9
346.370	1	-1
346.541	1	-6
346.712	1	0
346.883	1	-9
347.054	1	-3
347.225	1	1
347.396	1	5
347.567	1	-11
347.738	1	1
347.909	1	7
348.080	1	-10
348.251	1	9
348.422	1	2
348.593	1	-9
348.764	1	-4
348.935	1	3
349.106	1	2
349.277	1	-7
349.448	1	-4
349.619	1	0
349.790	1	-7
349.961	1	7
350.132	1	-1
350.303	1	-13
350.474	1	-2
350.645	1	-1
350.816	1	-5
350.987	1	-7
351.157	1	6
351.328	1	0
351.499	1	2
351.670	1	12
351.841	1	-4
352.012	1	-10
352.183	1	1
352.354	1	-2
352.525	1	-3
352.696	1	-1
352.867	1	4
353.038	1	14
353.209	1	6
353.380	1	7
353.551	1	11
353.722	1	0
353.893	1	-5
354.064	1	5
354.235	1	-10
354.406	1	-4
354.576	1	8
354.747	1	-2
354.918	1	-18
355.089	1	-1
355.260	1	4
355.431	1	7
355.602	1	13
355.773	1	-1
355.944	1	1
356.115	1	-21
356.286	1	3
356.457	1	-2
356.628	1	0
356.799	1	1
356.970	1	-5
357.141	1	-5
357.311	1	1
357.482	1	2
357.653	1	3
357.824	1	2
357.995	1	-4
358.166	1	3
358.337	1	6
358.508	1	-6
358.679	1	10
358.850	1	2
359.021	1	-9
359.192	1	9
359.363	1	2
359.533	1	3
359.704	1	-2
359.875	1	8
360.046	1	-2
360.217	1	12
360.388	1	11
360.559	1	1
360.730	1	-7
360.901	1	11
361.072	1	-7
361.243	1	0
361.414	1	9
361.584	1	2
361.755	1	8
361.926	1	9
362.097	1	2
362.268	1	8
362.439	1	9
362.610	1	0
362.781	1	12
362.952	1	2
363.123	1	13
363.293	1	0
363.464	1	10
363.635	1	3
363.806	1	9
363.977	1	14
364.148	1	5
364.319	1	8
364.490	1	-1
364.661	1	8
364.832	1	9
365.002	1	17
365.173	1	5
365.344	1	9
365.515	1	7
365.686	1	-1
365.857	1	7
366.028	1	8
366.199	1	9
366.370	1	15
366.540	1	5
366.711	1	8
366.882	1	19
367.053	1	19
367.224	1	-1
367.395	1	8
367.566	1	15
367.737	1	-3
367.908	1	12
368.078	1	20
368.249	1	12
368.420	1	11
368.591	1	17
368.762	1	3
368.933	1	17
369.104	1	10
369.274	1	9
369.445	1	6
369.616	1	-5
369.787	1	11
369.958	1	6
370.129	1	11
370.300	1	-13
370.471	1	6
370.641	1	9
370.812	1	-2
370.983	1	5
371.154	1	-7
371.325	1	11
371.496	1	12
371.667	1	3
371.837	1	-8
372.008	1	-4
372.179	1	1
372.350	1	-3
372.521	1	8
372.692	1	0
372.863	1	8
373.033	1	10
373.204	1	4
373.375	1	4
373.546	1	7
373.717	1	8
373.888	1	-4
374.059	1	6
374.229	1	-6
374.400	1	10
374.571	1	4
374.742	1	7
374.913	1	-5
375.084	1	-2
375.254	1	6
375.425	1	-7
375.596	1	-9
375.767	1	7
375.938	1	-3
376.109	1	-5
376.279	1	1
376.450	1	-2
376.621	1	13
376.792	1	3
376.963	1	5
377.134	1	-3
377.304	1	9
377.475	1	5
377.646	1	3
377.817	1	14
377.988	1	5
378.159	1	0
378.329	1	-1
378.500	1	-11
378.671	1	-3
378.842	1	-2
379.013	1	-3
379.184	1	8
379.354	1	5
379.525	1	8
379.696	1	-4
379.867	1	7
380.038	1	10
380.209	1	8
380.379	1	-4
380.550	1	6
380.721	1	3
380.892	1	4
381.063	1	9
381.233	1	10
381.404	1	7
381.575	1	-1
381.746	1	19
381.917	1	-5
382.087	1	11
382.258	1	19
382.429	1	10
382.600	1	2
382.771	1	6
382.941	1	17
383.112	1	16
383.283	1	5
383.454	1	9
383.625	1	4
383.795	1	9
383.966	1	16
384.137	1	9
384.308	1	24
384.479	1	22
384.649	1	13
384.820	1	7
384.991	1	18
385.162	1	21
385.333	1	32
385.503	1	18
385.674	1	18
385.845	1	11
386.016	1	7
386.187	1	22
386.357	1	20
386.528	1	22
386.699	1	26
386.870	1	28
387.041	1	4
387.211	1	20
387.382	1	11
387.553	1	23
387.724	1	19
387.894	1	30
388.065	1	26
388.236	1	26
388.407	1	22
388.578	1	14
388.748	1	23
388.919	1	23
389.090	1	27
389.261	1	1
389.431	1	19
389.602	1	22
389.773	1	20
389.944	1	14
390.114	1	22
390.285	1	15
390.456	1	19
390.627	1	13
390.798	1	33
390.968	1	14
391.139	1	16
391.310	1	20
391.481	1	6
391.651	1	16
391.822	1	31
391.993	1	23
392.164	1	15
392.334	1	12
392.505	1	1
392.676	1	19
392.847	1	11
393.017	1	7
393.188	1	13
393.359	1	19
393.530	1	14
393.700	1	17
393.871	1	6
394.042	1	27
394.213	1	14
394.383	1	19
394.554	1	22
394.725	1	15
394.896	1	7
395.066	1	13
395.237	1	29
395.408	1	19
395.579	1	16
395.749	1	20
395.920	1	22
396.091	1	17
396.262	1	15
396.432	1	13
396.603	1	12
396.774	1	16
396.945	1	21
397.115	1	28
397.286	1	30
397.457	1	9
397.627	1	24
397.798	1	23
397.969	1	3
398.140	1	20
398.310	1	24
398.481	1	15
398.652	1	27
398.823	1	33
398.993	1	20
399.164	1	30
399.335	1	14
399.505	1	24
399.676	1	23
399.847	1	16
400.018	1	23
400.188	1	34
400.359	1	9
400.530	1	15
400.700	1	18
400.871	1	8
401.042	1	16
401.213	1	6
401.383	1	23
401.554	1	12
401.725	1	9
401.895	1	13
402.066	1	21
402.237	1	13
402.408	1	14
402.578	1	7
402.749	1	8
402.920	1	9
403.090	1	21
403.261	1	19
403.432	1	3
403.603	1	21
403.773	1	15
403.944	1	20
404.115	1	-4
404.285	1	8
404.456	1	12
404.627	1	22
404.797	1	30
404.968	1	5
405.139	1	11
405.310	1	10
405.480	1	22
405.651	1	20
405.822	1	11
405.992	1	11
406.163	1	13
406.334	1	15
406.504	1	11
406.675	1	23
406.846	1	14
407.016	1	16
407.187	1	10
407.358	1	1
407.528	1	15
407.699	1	18
407.870	1	8
408.041	1	8
408.211	1	15
408.382	1	17
408.553	1	13
408.723	1	10
408.894	1	9
409.065	1	14
409.235	1	6
409.406	1	18
409.577	1	10
409.747	1	5
409.918	1	12
410.089	1	12
410.259	1	4
410.430	1	22
410.601	1	-3
410.771	1	12
410.942	1	14
411.113	1	6
411.283	1	7
411.454	1	-2
411.625	1	7
411.795	1	19
411.966	1	7
412.137	1	8
412.307	1	6
412.478	1	18
412.649	1	-4
412.819	1	17
412.990	1	12
413.161	1	5
413.331	1	-3
413.502	1	23
413.672	1	7
413.843	1	4
414.014	1	2
414.184	1	-5
414.355	1	3
414.526	1	14
414.696	1	-3
414.867	1	5
415.038	1	-4
415.208	1	3
415.379	1	10
415.550	1	11
415.720	1	3
415.891	1	14
416.062	1	8
416.232	1	7
416.403	1	12
416.573	1	0
416.744	1	11
416.915	1	8
417.085	1	12
417.256	1	3
417.427	1	10
417.597	1	0
417.768	1	8
417.939	1	1
418.109	1	17
418.280	1	5
418.450	1	12
418.621	1	0
418.792	1	3
418.962	1	3
419.133	1	5
419.304	1	20
419.474	1	8
419.645	1	14
419.815	1	-4
419.986	1	11
420.157	1	19
420.327	1	10
420.498	1	5
420.669	1	11
420.839	1	12
421.010	1	14
421.180	1	3
421.351	1	13
421.522	1	2
421.692	1	0
421.863	1	-5
422.033	1	4
422.204	1	-1
422.375	1	3
422.545	1	10
422.716	1	7
422.886	1	15
423.057	1	5
423.228	1	-6
423.398	1	7
423.569	1	-2
423.740	1	0
423.910	1	-6
424.081	1	9
424.251	1	-5
424.422	1	6
424.593	1	8
424.763	1	8
424.934	1	2
425.104	1	11
425.275	1	-3
425.445	1	-3
425.616	1	5
425.787	1	-2
425.957	1	18
426.128	1	1
426.298	1	-4
426.469	1	6
426.640	1	0
426.810	1	11
426.981	1	-6
427.151	1	0
427.322	1	-1
427.493	1	12
427.663	1	-6
427.834	1	3
428.004	1	6
428.175	1	5
428.345	1	15
428.516	1	6
428.687	1	7
428.857	1	0
429.028	1	0
429.198	1	-2
429.369	1	4
429.540	1	7
429.710	1	-5
429.881	1	5
430.051	1	16
430.222	1	2
430.392	1	3
430.563	1	3
430.734	1	8
430.904	1	-2
431.075	1	3
431.245	1	7
431.416	1	5
431.586	1	5
431.757	1	6
431.927	1	2
432.098	1	2
432.269	1	-1
432.439	1	-9
432.610	1	-13
432.780	1	-2
432.951	1	8
433.121	1	2
433.292	1	3
433.462	1	-4
433.633	1	-1
433.804	1	2
433.974	1	-5
434.145	1	0
434.315	1	2
434.486	1	8
434.656	1	3
434.827	1	-11
434.997	1	3
435.168	1	2
435.339	1	2
435.509	1	11
435.680	1	-15
435.850	1	4
436.021	1	9
436.191	1	-5
436.362	1	0
436.532	1	4
436.703	1	9
436.873	1	-2
437.044	1	11
437.214	1	-6
437.385	1	2
437.556	1	-2
437.726	1	-10
437.897	1	3
438.067	1	-3
438.238	1	-5
438.408	1	-1
438.579	1	18
438.749	1	3
438.920	1	5
439.090	1	8
439.261	1	6
439.431	1	-3
439.602	1	7
439.772	1	15
439.943	1	3
440.113	1	5
440.284	1	5
440.455	1	-3
440.625	1	11
440.796	1	7
440.966	1	4
441.137	1	-7
441.307	1	-11
441.478	1	5
441.648	1	-13
441.819	1	-8
441.989	1	2
442.160	1	0
442.330	1	1
442.501	1	-13
442.671	1	6
442.842	1	9
443.012	1	-6
443.183	1	2
443.353	1	3
443.524	1	0
443.694	1	14
443.865	1	8
444.035	1	3
444.206	1	12
444.376	1	-2
444.547	1	-4
444.717	1	7
444.888	1	-10
445.058	1	4
445.229	1	0
445.399	1	10
445.570	1	-1
445.740	1	3
445.911	1	17
446.081	1	7
446.252	1	3
446.422	1	4
446.593	1	6
446.763	1	7
446.934	1	4
447.104	1	-11
447.275	1	-4
447.445	1	-2
447.616	1	-7
447.786	1	-3
447.957	1	-4
448.127	1	2
448.298	1	9
448.468	1	-1
448.639	1	1
448.809	1	2
448.979	1	11
449.150	1	-4
449.320	1	4
449.491	1	-2
449.661	1	-4
449.832	1	4
450.002	1	-3
450.173	1	6
450.343	1	1
450.514	1	5
450.684	1	2
450.855	1	7
451.025	1	-2
451.196	1	-3
451.366	1	3
451.537	1	-8
451.707	1	3
451.878	1	-8
452.048	1	-9
452.218	1	8
452.389	1	1
452.559	1	-4
452.730	1	0
452.900	1	11
453.071	1	1
453.241	1	-3
453.412	1	-17
453.582	1	8
453.753	1	-8
453.923	1	-9
454.093	1	-2
454.264	1	-7
454.434	1	7
454.605	1	9
454.775	1	15
454.946	1	3
455.116	1	-8
455.287	1	1
455.457	1	-3
455.628	1	-3
455.798	1	-7
455.968	1	10
456.139	1	-1
456.309	1	-2
456.480	1	2
456.650	1	11
456.821	1	4
456.991	1	5
457.161	1	1
457.332	1	4
457.502	1	10
457.673	1	-3
457.843	1	10
458.014	1	-6
458.184	1	5
458.355	1	4
458.525	1	0
458.695	1	8
458.866	1	-1
459.036	1	0
459.207	1	6
459.377	1	-3
459.548	1	-5
459.718	1	-6
459.888	1	10
460.059	1	5
460.229	1	3
460.400	1	2
460.570	1	-9
460.740	1	-8
460.911	1	17
461.081	1	5
461.252	1	4
461.422	1	5
461.593	1	2
461.763	1	-1
461.933	1	-10
462.104	1	0
462.274	1	4
462.445	1	-2
462.615	1	-5
462.785	1	-5
462.956	1	-6
463.126	1	0
463.297	1	-3
463.467	1	0
463.638	1	6
463.808	1	6
463.978	1	-3
464.149	1	3
464.319	1	5
464.490	1	2
464.660	1	-1
464.830	1	4
465.001	1	6
465.171	1	9
465.342	1	0
465.512	1	-1
465.682	1	-4
465.853	1	-2
466.023	1	-8
466.194	1	2
466.364	1	-1
466.534	1	3
466.705	1	-5
466.875	1	1
467.045	1	-1
467.216	1	-7
467.386	1	9
467.557	1	3
467.727	1	1
467.897	1	11
468.068	1	6
468.238	1	1
468.409	1	2
468.579	1	5
468.749	1	3
468.920	1	3
469.090	1	7
469.260	1	-3
469.431	1	5
469.601	1	0
469.772	1	-13
469.942	1	2
470.112	1	0
470.283	1	17
470.453	1	3
470.623	1	5
470.794	1	9
470.964	1	-2
471.135	1	-7
471.305	1	-4
471.475	1	5
471.646	1	-3
471.816	1	7
471.986	1	-1
472.157	1	9
472.327	1	-7
472.497	1	3
472.668	1	-7
472.838	1	7
473.009	1	5
473.179	1	13
473.349	1	9
473.520	1	-4
473.690	1	0
473.860	1	2
474.031	1	8
474.201	1	-10
474.371	1	-1
474.542	1	-2
474.712	1	-3
474.882	1	-4
475.053	1	-3
475.223	1	0
475.394	1	5
475.564	1	18
475.734	1	-4
475.905	1	0
476.075	1	-1
476.245	1	-2
476.416	1	-7
476.586	1	4
476.756	1	5
476.927	1	16
477.097	1	1
477.267	1	-10
477.438	1	-3
477.608	1	10
477.778	1	0
477.949	1	3
478.119	1	4
478.289	1	1
478.460	1	-3
478.630	1	-2
478.800	1	-5
478.971	1	2
479.141	1	4
479.311	1	0
479.482	1	-7
479.652	1	2
479.822	1	0
479.993	1	5
480.163	1	-14
480.333	1	-7
480.504	1	-5
480.674	1	5
480.844	1	-1
481.015	1	2
481.185	1	6
481.355	1	3
481.525	1	-5
481.696	1	10
481.866	1	3
482.036	1	-7
482.207	1	4
482.377	1	1
482.547	1	1
482.718	1	1
482.888	1	-6
483.058	1	-7
483.229	1	-5
483.399	1	4
483.569	1	3
483.740	1	-13
483.910	1	-1
484.080	1	-7
484.250	1	5
484.421	1	2
484.591	1	13
484.761	1	-5
484.932	1	1
485.102	1	2
485.272	1	10
485.443	1	5
485.613	1	-2
485.783	1	14
485.953	1	9
486.124	1	5
486.294	1	11
486.464	1	-6
486.635	1	12
486.805	1	7
486.975	1	-13
487.146	1	-1
487.316	1	9
487.486	1	5
487.656	1	-14
487.827	1	6
487.997	1	0
488.167	1	2
488.338	1	17
488.508	1	11
488.678	1	-1
488.848	1	-5
489.019	1	5
489.189	1	0
489.359	1	2
489.529	1	-4
489.700	1	0
489.870	1	-8
490.040	1	7
490.211	1	13
490.381	1	-7
490.551	1	0
490.721	1	5
490.892	1	3
491.062	1	8
491.232	1	13
491.402	1	-3
491.573	1	3
491.743	1	-9
491.913	1	4
492.084	1	-8
492.254	1	0
492.424	1	7
492.594	1	5
492.765	1	7
492.935	1	-7
493.105	1	16
493.275	1	8
493.446	1	7
493.616	1	5
493.786	1	0
493.956	1	3
494.127	1	-2
494.297	1	8
494.467	1	-7
494.637	1	11
494.808	1	7
494.978	1	-4
495.148	1	8
495.318	1	12
495.489	1	1
495.659	1	2
495.829	1	0
495.999	1	2
496.170	1	1
496.340	1	7
496.510	1	2
496.680	1	4
496.851	1	8
497.021	1	6
497.191	1	1
497.361	1	-3
497.532	1	1
497.702	1	4
497.872	1	5
498.042	1	3
498.213	1	10
498.383	1	-5
498.553	1	0
498.723	1	2
498.894	1	-1
499.064	1	14
499.234	1	1
499.404	1	7
499.574	1	3
499.745	1	3
499.915	1	11
500.085	1	-5
500.255	1	17
500.426	1	2
500.596	1	-8
500.766	1	2
500.936	1	-4
501.106	1	-2
501.277	1	8
501.447	1	3
501.617	1	10
501.787	1	-11
501.958	1	-2
502.128	1	2
502.298	1	4
502.468	1	17
502.638	1	10
502.809	1	11
502.979	1	-4
503.149	1	4
503.319	1	8
503.489	1	7
503.660	1	6
503.830	1	4
504.000	1	7
504.170	1	10
504.340	1	10
504.511	1	12
504.681	1	1
504.851	1	8
505.021	1	5
505.192	1	12
505.362	1	-2
505.532	1	6
505.702	1	7
505.872	1	-3
506.043	1	4
506.213	1	9
506.383	1	15
506.553	1	8
506.723	1	10
506.893	1	8
507.064	1	-8
507.234	1	3
507.404	1	5
507.574	1	3
507.744	1	2
507.915	1	11
508.085	1	6
508.255	1	4
508.425	1	10
508.595	1	7
508.766	1	4
508.936	1	4
509.106	1	-3
509.276	1	8
509.446	1	2
509.616	1	3
509.787	1	-3
509.957	1	2
510.127	1	8
510.297	1	2
510.467	1	5
510.638	1	2
510.808	1	-3
510.978	1	-5
511.148	1	16
511.318	1	15
511.488	1	11
511.659	1	10
511.829	1	5
511.999	1	22
512.169	1	6
512.339	1	6
512.509	1	16
512.680	1	5
512.850	1	7
513.020	1	12
513.190	1	-2
513.360	1	9
513.530	1	-7
513.700	1	14
513.871	1	15
514.041	1	6
514.211	1	-1
514.381	1	15
514.551	1	9
514.721	1	15
514.892	1	7
515.062	1	4
515.232	1	8
515.402	1	7
515.572	1	-5
515.742	1	17
515.912	1	9
516.083	1	8
516.253	1	5
516.423	1	9
516.593	1	4
516.763	1	6
516.933	1	8
517.104	1	9
517.274	1	13
517.444	1	14
517.614	1	7
517.784	1	-1
517.954	1	-2
518.124	1	12
518.294	1	10
518.465	1	13
518.635	1	5
518.805	1	5
518.975	1	7
519.145	1	15
519.315	1	7
519.485	1	-7
519.656	1	9
519.826	1	10
519.996	1	13
520.166	1	11
520.336	1	10
520.506	1	6
520.676	1	-3
520.846	1	2
521.017	1	-5
521.187	1	6
521.357	1	3
521.527	1	3
521.697	1	13
521.867	1	13
522.037	1	8
522.207	1	-1
522.377	1	17
522.548	1	-3
522.718	1	3
522.888	1	1
523.058	1	29
523.228	1	27
523.398	1	10
523.568	1	3
523.738	1	11
523.909	1	16
524.079	1	9
524.249	1	13
524.419	1	5
524.589	1	6
524.759	1	8
524.929	1	12
525.099	1	6
525.269	1	23
525.439	1	7
525.610	1	3
525.780	1	13
525.950	1	-6
526.120	1	-1
526.290	1	-1
526.460	1	9
526.630	1	10
526.800	1	11
526.970	1	3
527.140	1	-1
527.311	1	9
527.481	1	9
527.651	1	19
527.821	1	-1
527.991	1	13
528.161	1	4
528.331	1	12
528.501	1	-6
528.671	1	14
528.841	1	15
529.011	1	15
529.181	1	12
529.352	1	13
529.522	1	9
529.692	1	1
529.862	1	13
530.032	1	6
530.202	1	9
530.372	1	10
530.542	1	9
530.712	1	25
530.882	1	12
531.052	1	16
531.222	1	8
531.392	1	2
531.563	1	14
531.733	1	16
531.903	1	11
532.073	1	6
532.243	1	8
532.413	1	12
532.583	1	5
532.753	1	8
532.923	1	3
533.093	1	14
533.263	1	8
533.433	1	18
533.603	1	4
533.773	1	8
533.943	1	14
534.113	1	9
534.284	1	16
534.454	1	16
534.624	1	6
534.794	1	7
534.964	1	8
535.134	1	3
535.304	1	15
535.474	1	9
535.644	1	15
535.814	1	21
535.984	1	4
536.154	1	3
536.324	1	20
536.494	1	21
536.664	1	7
536.834	1	7
537.004	1	21
537.174	1	16
537.344	1	15
537.514	1	16
537.685	1	8
537.855	1	12
538.025	1	8
538.195	1	10
538.365	1	10
538.535	1	10
538.705	1	13
538.875	1	14
539.045	1	6
539.215	1	0
539.385	1	10
539.555	1	2
539.725	1	11
539.895	1	7
540.065	1	-4
540.235	1	5
540.405	1	10
540.575	1	16
540.745	1	11
540.915	1	5
541.085	1	4
541.255	1	-6
541.425	1	9
541.595	1	-1
541.765	1	13
541.935	1	17
542.105	1	15
542.275	1	5
542.445	1	22
542.615	1	13
542.785	1	3
542.955	1	15
543.125	1	7
543.295	1	11
543.465	1	21
543.635	1	10
543.805	1	19
543.975	1	14
544.145	1	5
544.315	1	9
544.485	1	12
544.655	1	8
544.825	1	25
544.995	1	11
545.165	1	8
545.335	1	5
545.505	1	4
545.675	1	4
545.845	1	7
546.015	1	5
546.185	1	6
546.355	1	14
546.525	1	10
546.695	1	-1
546.865	1	3
547.035	1	15
547.205	1	6
547.375	1	12
547.545	1	2
547.715	1	2
547.885	1	3
548.055	1	7
548.225	1	5
548.395	1	9
548.565	1	10
548.735	1	11
548.905	1	4
549.075	1	4
549.245	1	12
549.415	1	7
549.585	1	0
549.755	1	-3
549.925	1	16
550.095	1	11
550.265	1	1
550.435	1	15
550.605	1	1
550.775	1	9
550.945	1	10
551.115	1	1
551.285	1	9
551.455	1	13
551.625	1	5
551.795	1	2
551.965	1	13
552.135	1	-7
552.305	1	5
552.475	1	9
552.645	1	3
552.815	1	10
552.985	1	15
553.155	1	5
553.325	1	15
553.495	1	7
553.665	1	12
553.835	1	1
554.004	1	8
554.174	1	1
554.344	1	6
554.514	1	7
554.684	1	15
554.854	1	8
555.024	1	9
555.194	1	23
555.364	1	16
555.534	1	10
555.704	1	6
555.874	1	2
556.044	1	4
556.214	1	11
556.384	1	13
556.554	1	1
556.724	1	-1
556.894	1	14
557.064	1	2
557.234	1	9
557.404	1	3
557.573	1	3
557.743	1	7
557.913	1	3
558.083	1	0
558.253	1	12
558.423	1	-7
558.593	1	1
558.763	1	7
558.933	1	6
559.103	1	6
559.273	1	0
559.443	1	9
559.613	1	3
559.783	1	2
559.953	1	1
560.122	1	-1
560.292	1	7
560.462	1	9
560.632	1	6
560.802	1	9
560.972	1	8
561.142	1	18
561.312	1	3
561.482	1	13
561.652	1	9
561.822	1	1
561.992	1	8
562.162	1	6
562.331	1	8
562.501	1	-4
562.671	1	6
562.841	1	10
563.011	1	13
563.181	1	13
563.351	1	4
563.521	1	9
563.691	1	-3
563.861	1	4
564.031	1	5
564.201	1	7
564.370	1	11
564.540	1	4
564.710	1	-1
564.880	1	8
565.050	1	17
565.220	1	9
565.390	1	-3
565.560	1	16
565.730	1	3
565.900	1	5
566.069	1	12
566.239	1	2
566.409	1	-2
566.579	1	-3
566.749	1	7
566.919	1	15
567.089	1	0
567.259	1	15
567.429	1	11
567.599	1	7
567.768	1	8
567.938	1	9
568.108	1	3
568.278	1	-6
568.448	1	-3
568.618	1	12
568.788	1	1
568.958	1	3
569.128	1	-3
569.297	1	6
569.467	1	6
569.637	1	-1
569.807	1	11
569.977	1	9
570.147	1	8
570.317	1	15
570.487	1	11
570.656	1	3
570.826	1	3
570.996	1	5
571.166	1	2
571.336	1	14
571.506	1	7
571.676	1	14
571.846	1	3
572.015	1	-4
572.185	1	-3
572.355	1	24
572.525	1	9
572.695	1	4
572.865	1	4
573.035	1	-2
573.205	1	6
573.374	1	3
573.544	1	2
573.714	1	13
573.884	1	-1
574.054	1	2
574.224	1	1
574.394	1	-3
574.563	1	0
574.733	1	1
574.903	1	4
575.073	1	1
575.243	1	0
575.413	1	1
575.583	1	10
575.752	1	-1
575.922	1	7
576.092	1	10
576.262	1	4
576.432	1	-8
576.602	1	-4
576.772	1	1
576.941	1	7
577.111	1	-10
577.281	1	2
577.451	1	-2
577.621	1	2
577.791	1	9
577.960	1	-3
578.130	1	-2
578.300	1	1
578.470	1	3
578.640	1	-2
578.810	1	5
578.979	1	13
579.149	1	5
579.319	1	0
579.489	1	-1
579.659	1	7
579.829	1	-2
579.998	1	2
580.168	1	7
580.338	1	-19
580.508	1	2
580.678	1	-1
580.848	1	7
581.017	1	2
581.187	1	5
581.357	1	5
581.527	1	10
581.697	1	-8
581.867	1	3
582.036	1	12
582.206	1	-5
582.376	1	2
582.546	1	-1
582.716	1	6
582.885	1	5
583.055	1	-1
583.225	1	4
583.395	1	7
583.565	1	19
583.735	1	0
583.904	1	1
584.074	1	-7
584.244	1	8
584.414	1	6
584.584	1	10
584.753	1	-5
584.923	1	-10
585.093	1	4
585.263	1	8
585.433	1	5
585.602	1	1
585.772	1	6
585.942	1	4
586.112	1	11
586.282	1	1
586.451	1	3
586.621	1	7
586.791	1	10
586.961	1	-4
587.131	1	-5
587.300	1	2
587.470	1	9
587.640	1	-4
587.810	1	-1
587.980	1	3
588.149	1	3
588.319	1	4
588.489	1	6
588.659	1	6
588.829	1	6
588.998	1	-1
589.168	1	4
589.338	1	6
589.508	1	8
589.677	1	9
589.847	1	-3
590.017	1	-3
590.187	1	7
590.357	1	-7
590.526	1	8
590.696	1	-1
590.866	1	7
591.036	1	3
591.205	1	4
591.375	1	-13
591.545	1	0
591.715	1	-2
591.885	1	5
592.054	1	6
592.224	1	6
592.394	1	14
592.564	1	2
592.733	1	4
592.903	1	3
593.073	1	-7
593.243	1	-2
593.412	1	-4
593.582	1	17
593.752	1	-9
593.922	1	9
594.091	1	2
594.261	1	-1
594.431	1	3
594.601	1	-8
594.771	1	8
594.940	1	-2
595.110	1	8
595.280	1	-3
595.450	1	3
595.619	1	7
595.789	1	5
595.959	1	10
596.129	1	-6
596.298	1	13
596.468	1	-4
596.638	1	4
596.808	1	-4
596.977	1	-5
597.147	1	6
597.317	1	7
597.487	1	5
597.656	1	1
597.826	1	4
597.996	1	6
598.166	1	3
598.335	1	8
598.505	1	-3
598.675	1	3
598.844	1	-7
599.014	1	-5
599.184	1	-1
599.354	1	-4
599.523	1	-1
599.693	1	11
599.863	1	11
600.033	1	-4
600.202	1	-4
600.372	1	3
600.542	1	3
600.712	1	5
600.881	1	8
601.051	1	6
601.221	1	4
601.390	1	-14
601.560	1	0
601.730	1	0
601.900	1	-2
602.069	1	0
602.239	1	-3
602.409	1	1
602.578	1	3
602.748	1	-8
602.918	1	-3
603.088	1	8
603.257	1	5
603.427	1	4
603.597	1	14
603.767	1	2
603.936	1	8
604.106	1	1
604.276	1	-1
604.445	1	3
604.615	1	2
604.785	1	7
604.954	1	6
605.124	1	-3
605.294	1	7
605.464	1	-8
605.633	1	2
605.803	1	20
605.973	1	-12
606.142	1	0
606.312	1	-6
606.482	1	-2
606.652	1	-5
606.821	1	4
606.991	1	-3
607.161	1	13
607.330	1	5
607.500	1	4
607.670	1	2
607.839	1	8
608.009	1	-4
608.179	1	6
608.348	1	1
608.518	1	5
608.688	1	3
608.858	1	7
609.027	1	-2
609.197	1	-9
609.367	1	-3
609.536	1	4
609.706	1	-1
609.876	1	4
610.045	1	7
610.215	1	-5
610.385	1	0
610.554	1	4
610.724	1	10
610.894	1	2
611.063	1	6
611.233	1	-8
611.403	1	10
611.572	1	8
611.742	1	-6
611.912	1	-2
612.081	1	-4
612.251	1	5
612.421	1	15
612.590	1	-4
612.760	1	4
612.930	1	12
613.099	1	-4
613.269	1	-1
613.439	1	7
613.608	1	11
613.778	1	-1
613.948	1	4
614.117	1	10
614.287	1	-9
614.457	1	4
614.626	1	-7
614.796	1	2
614.966	1	-1
615.135	1	4
615.305	1	-6
615.475	1	3
615.644	1	-6
615.814	1	4
615.984	1	14
616.153	1	9
616.323	1	9
616.493	1	2
616.662	1	1
616.832	1	-2
617.002	1	1
617.171	1	-6
617.341	1	1
617.511	1	6
617.680	1	2
617.850	1	11
618.019	1	-7
618.189	1	4
618.359	1	1
618.528	1	-3
618.698	1	-2
618.868	1	8
619.037	1	4
619.207	1	-5
619.377	1	-11
619.546	1	10
619.716	1	-9
619.885	1	-2
620.055	1	11
620.225	1	6
620.394	1	-7
620.564	1	0
620.734	1	3
620.903	1	6
621.073	1	-2
621.242	1	-1
621.412	1	8
621.582	1	0
621.751	1	0
621.921	1	0
622.091	1	1
622.260	1	-5
622.430	1	0
622.599	1	13
622.769	1	1
622.939	1	0
623.108	1	5
623.278	1	5
623.448	1	-5
623.617	1	9
623.787	1	4
623.956	1	-1
624.126	1	3
624.296	1	-4
624.465	1	12
624.635	1	6
624.804	1	-2
624.974	1	1
625.144	1	-1
625.313	1	2
625.483	1	13
625.652	1	7
625.822	1	0
625.992	1	-7
626.161	1	-2
626.331	1	7
626.501	1	0
626.670	1	6
626.840	1	15
627.009	1	-1
627.179	1	-4
627.348	1	-3
627.518	1	2
627.688	1	-2
627.857	1	14
628.027	1	1
628.196	1	8
628.366	1	8
628.536	1	5
628.705	1	-5
628.875	1	5
629.044	1	5
629.214	1	-2
629.384	1	-6
629.553	1	6
629.723	1	10
629.892	1	6
630.062	1	2
630.232	1	13
630.401	1	-6
630.571	1	-3
630.740	1	6
630.910	1	-3
631.079	1	17
631.249	1	-7
631.419	1	6
631.588	1	-7
631.758	1	14
631.927	1	-6
632.097	1	11
632.266	1	-4
632.436	1	4
632.606	1	1
632.775	1	-9
632.945	1	-6
633.114	1	9
633.284	1	-13
633.453	1	-2
633.623	1	-2
633.793	1	-7
633.962	1	6
634.132	1	6
634.301	1	2
634.471	1	-7
634.640	1	4
634.810	1	6
634.979	1	7
635.149	1	8
635.319	1	2
635.488	1	10
635.658	1	-6
635.827	1	-1
635.997	1	0
636.166	1	1
636.336	1	11
636.505	1	2
636.675	1	-7
636.845	1	0
637.014	1	-5
637.184	1	-1
637.353	1	6
637.523	1	4
637.692	1	2
637.862	1	-7
638.031	1	12
638.201	1	-1
638.370	1	1
638.540	1	1
638.710	1	6
638.879	1	-1
639.049	1	2
639.218	1	2
639.388	1	13
639.557	1	1
639.727	1	3
639.896	1	3
640.066	1	5
640.235	1	1
640.405	1	2
640.574	1	-7
640.744	1	7
640.914	1	-2
641.083	1	-7
641.253	1	-4
641.422	1	-5
641.592	1	-6
641.761	1	4
641.931	1	10
642.100	1	3
642.270	1	-3
642.439	1	8
642.609	1	0
642.778	1	4
642.948	1	1
643.117	1	2
643.287	1	-1
643.456	1	10
643.626	1	9
643.795	1	11
643.965	1	-13
644.134	1	8
644.304	1	-2
644.473	1	-1
644.643	1	0
644.812	1	2
644.982	1	3
645.151	1	-7
645.321	1	8
645.490	1	0
645.660	1	-5
645.829	1	-2
645.999	1	0
646.168	1	-8
646.338	1	10
646.507	1	-10
646.677	1	-1
646.846	1	8
647.016	1	1
647.185	1	7
647.355	1	9
647.524	1	1
647.694	1	-5
647.863	1	-11
648.033	1	-4
648.202	1	2
648.372	1	2
648.541	1	-6
648.711	1	8
648.880	1	7
649.050	1	-2
649.219	1	-1
649.389	1	7
649.558	1	-8
649.728	1	4
649.897	1	-4
650.067	1	0
650.236	1	5
650.406	1	7
650.575	1	2
650.745	1	-3
650.914	1	9
651.084	1	1
651.253	1	-1
651.423	1	3
651.592	1	-6
651.762	1	4
651.931	1	2
652.101	1	7
652.270	1	6
652.440	1	7
652.609	1	7
652.778	1	-1
652.948	1	5
653.117	1	-7
653.287	1	10
653.456	1	-4
653.626	1	3
653.795	1	5
653.965	1	10
654.134	1	5
654.304	1	3
654.473	1	6
654.643	1	11
654.812	1	6
654.982	1	-11
655.151	1	-10
655.320	1	-8
655.490	1	-4
655.659	1	-8
655.829	1	-4
655.998	1	4
656.168	1	-2
656.337	1	0
656.507	1	12
656.676	1	-2
656.846	1	-9
657.015	1	0
657.184	1	-3
657.354	1	-3
657.523	1	-8
657.693	1	4
657.862	1	4
658.032	1	2
658.201	1	1
658.371	1	-10
658.540	1	5
658.709	1	-11
658.879	1	-1
659.048	1	5
659.218	1	2
659.387	1	-1
659.557	1	3
659.726	1	-11
659.895	1	-1
660.065	1	-7
660.234	1	3
660.404	1	4
660.573	1	-5
660.743	1	-2
660.912	1	-6
661.081	1	2
661.251	1	6
661.420	1	-5
661.590	1	-6
661.759	1	9
661.929	1	1
662.098	1	-15
662.267	1	15
662.437	1	5
662.606	1	5
662.776	1	6
662.945	1	0
663.115	1	-9
663.284	1	-1
663.453	1	1
663.623	1	2
663.792	1	-2
663.962	1	1
664.131	1	-1
664.300	1	10
664.470	1	1
664.639	1	-2
664.809	1	0
664.978	1	6
665.148	1	-3
665.317	1	-5
665.486	1	0
665.656	1	2
665.825	1	10
665.995	1	5
666.164	1	0
666.333	1	17
666.503	1	0
666.672	1	-6
666.842	1	-3
667.011	1	2
667.180	1	2
667.350	1	12
667.519	1	-3
667.689	1	2
667.858	1	4
668.027	1	-10
668.197	1	2
668.366	1	1
668.536	1	-1
668.705	1	5
668.874	1	-4
669.044	1	-4
669.213	1	4
669.382	1	-3
669.552	1	4
669.721	1	-5
669.891	1	1
670.060	1	7
670.229	1	3
670.399	1	5
670.568	1	-6
670.738	1	-10
670.907	1	-3
671.076	1	8
671.246	1	4
671.415	1	3
671.584	1	-1
671.754	1	-12
671.923	1	2
672.093	1	10
672.262	1	2
672.431	1	-1
672.601	1	-5
672.770	1	6
672.939	1	-12
673.109	1	-1
673.278	1	6
673.448	1	6
673.617	1	5
673.786	1	0
