325.333	1	-2
325.504	1	8
325.675	1	-6
325.846	1	-2
326.017	1	0
326.188	1	1
326.359	1	11
326.531	1	-5
326.702	1	10
326.873	1	5
327.044	1	0
327.215	1	6
327.386	1	-7
327.557	1	10
327.728	1	-8
327.899	1	-5
328.070	1	-2
328.241	1	6
328.412	1	4
328.583	1	-9
328.754	1	-4
328.926	1	2
329.097	1	11
329.268	1	2
329.439	1	0
329.610	1	-13
329.781	1	-1
329.952	1	10
330.123	1	-1
330.294	1	4
330.465	1	-2
330.636	1	11
330.807	1	2
330.978	1	-8
331.149	1	-1
331.320	1	-3
331.492	1	-5
331.663	1	-16
331.834	1	15
332.005	1	6
332.176	1	-2
332.347	1	4
332.518	1	12
332.689	1	-5
332.860	1	-7
333.031	1	-4
333.202	1	-7
333.373	1	2
333.544	1	-5
333.715	1	11
333.886	1	-3
334.057	1	-1
334.228	1	-5
334.399	1	4
334.570	1	-8
334.741	1	-8
334.912	1	-8
335.084	1	-1
335.255	1	0
335.426	1	-6
335.597	1	-1
335.768	1	5
335.939	1	2
336.110	1	-1
336.281	1	-9
336.452	1	0
336.623	1	9
336.794	1	-8
336.965	1	3
337.136	1	-6
337.307	1	14
337.478	1	6
337.649	1	2
337.820	1	13
337.991	1	2
338.162	1	-2
338.333	1	3
338.504	1	-1
338.675	1	-3
338.846	1	2
339.017	1	-2
339.188	1	0
339.359	1	0
339.530	1	6
339.701	1	1
339.872	1	1
340.043	1	1
340.214	1	2
340.385	1	-4
340.556	1	0
340.727	1	7
340.898	1	0
341.069	1	4
341.240	1	7
341.411	1	9
341.582	1	-5
341.753	1	-1
341.924	1	1
342.095	1	7
342.266	1	-3
342.437	1	-3
342.608	1	7
342.779	1	-1
342.950	1	7
343.121	1	4
343.292	1	2
343.463	1	-4
343.634	1	2
343.805	1	8
343.976	1	9
344.147	1	-7
344.318	1	4
344.489	1	-4
344.660	1	4
344.831	1	-10
345.002	1	-3
345.173	1	-9
345.344	1	-5
345.515	1	9
345.686	1	5
345.857	1	-4
346.028	1	-9
346.199	1	-8
346.370	1	-3
346.541	1	-2
346.712	1	3
346.883	1	-1
347.054	1	-9
347.225	1	-2
347.396	1	8
347.567	1	-3
347.738	1	4
347.909	1	-4
348.080	1	-6
348.251	1	-2
348.422	1	0
348.593	1	1
348.764	1	2
348.935	1	8
349.106	1	6
349.277	1	-12
349.448	1	-6
349.619	1	-10
349.790	1	-6
349.961	1	2
350.132	1	3
350.303	1	-7
350.474	1	0
350.645	1	4
350.816	1	5
350.987	1	-4
351.157	1	-1
351.328	1	-10
351.499	1	-2
351.670	1	-4
351.841	1	-2
352.012	1	-6
352.183	1	4
352.354	1	4
352.525	1	7
352.696	1	1
352.867	1	-8
353.038	1	7
353.209	1	5
353.380	1	10
353.551	1	-4
353.722	1	4
353.893	1	2
354.064	1	3
354.235	1	-2
354.406	1	-4
354.576	1	5
354.747	1	-4
354.918	1	-13
355.089	1	0
355.260	1	1
355.431	1	5
355.602	1	5
355.773	1	0
355.944	1	-2
356.115	1	-2
356.286	1	-3
356.457	1	5
356.628	1	2
356.799	1	3
356.970	1	6
357.141	1	2
357.311	1	3
357.482	1	-5
357.653	1	-8
357.824	1	-5
357.995	1	12
358.166	1	7
358.337	1	4
358.508	1	0
358.679	1	15
358.850	1	2
359.021	1	-3
359.192	1	10
359.363	1	3
359.533	1	-9
359.704	1	4
359.875	1	2
360.046	1	4
360.217	1	11
360.388	1	16
360.559	1	14
360.730	1	4
360.901	1	5
361.072	1	1
361.243	1	11
361.414	1	10
361.584	1	11
361.755	1	11
361.926	1	18
362.097	1	7
362.268	1	11
362.439	1	4
362.610	1	0
362.781	1	4
362.952	1	11
363.123	1	11
363.293	1	8
363.464	1	18
363.635	1	13
363.806	1	15
363.977	1	10
364.148	1	11
364.319	1	12
364.490	1	5
364.661	1	20
364.832	1	17
365.002	1	10
365.173	1	10
365.344	1	5
365.515	1	12
365.686	1	14
365.857	1	17
366.028	1	20
366.199	1	12
366.370	1	21
366.540	1	20
366.711	1	18
366.882	1	15
367.053	1	23
367.224	1	28
367.395	1	19
367.566	1	7
367.737	1	7
367.908	1	13
368.078	1	15
368.249	1	13
368.420	1	15
368.591	1	24
368.762	1	10
368.933	1	17
369.104	1	15
369.274	1	15
369.445	1	4
369.616	1	8
369.787	1	16
369.958	1	11
370.129	1	21
370.300	1	4
370.471	1	8
370.641	1	5
370.812	1	16
370.983	1	10
371.154	1	11
371.325	1	11
371.496	1	3
371.667	1	4
371.837	1	-3
372.008	1	-4
372.179	1	9
372.350	1	10
372.521	1	3
372.692	1	4
372.863	1	1
373.033	1	9
373.204	1	3
373.375	1	10
373.546	1	1
373.717	1	9
373.888	1	3
374.059	1	5
374.229	1	4
374.400	1	6
374.571	1	2
374.742	1	14
374.913	1	6
375.084	1	-1
375.254	1	7
375.425	1	5
375.596	1	3
375.767	1	2
375.938	1	10
376.109	1	11
376.279	1	-3
376.450	1	-1
376.621	1	17
376.792	1	3
376.963	1	15
377.134	1	2
377.304	1	11
377.475	1	13
377.646	1	9
377.817	1	14
377.988	1	4
378.159	1	13
378.329	1	7
378.500	1	-3
378.671	1	-3
378.842	1	5
379.013	1	-6
379.184	1	1
379.354	1	3
379.525	1	12
379.696	1	-5
379.867	1	8
380.038	1	2
380.209	1	11
380.379	1	5
380.550	1	5
380.721	1	17
380.892	1	4
381.063	1	14
381.233	1	17
381.404	1	7
381.575	1	9
381.746	1	13
381.917	1	1
382.087	1	12
382.258	1	26
382.429	1	16
382.600	1	21
382.771	1	11
382.941	1	23
383.112	1	8
383.283	1	21
383.454	1	15
383.625	1	14
383.795	1	20
383.966	1	16
384.137	1	20
384.308	1	23
384.479	1	28
384.649	1	23
384.820	1	9
384.991	1	29
385.162	1	20
385.333	1	30
385.503	1	35
385.674	1	26
385.845	1	31
386.016	1	34
386.187	1	36
386.357	1	39
386.528	1	42
386.699	1	38
386.870	1	40
387.041	1	26
387.211	1	37
387.382	1	19
387.553	1	32
387.724	1	26
387.894	1	33
388.065	1	31
388.236	1	31
388.407	1	36
388.578	1	39
388.748	1	36
388.919	1	29
389.090	1	30
389.261	1	12
389.431	1	26
389.602	1	31
389.773	1	33
389.944	1	24
390.114	1	33
390.285	1	23
390.456	1	23
390.627	1	24
390.798	1	23
390.968	1	17
391.139	1	20
391.310	1	20
391.481	1	22
391.651	1	35
391.822	1	33
391.993	1	21
392.164	1	24
392.334	1	23
392.505	1	19
392.676	1	27
392.847	1	28
393.017	1	17
393.188	1	21
393.359	1	34
393.530	1	28
393.700	1	24
393.871	1	22
394.042	1	21
394.213	1	21
394.383	1	26
394.554	1	27
394.725	1	18
394.896	1	17
395.066	1	28
395.237	1	27
395.408	1	23
395.579	1	18
395.749	1	23
395.920	1	28
396.091	1	30
396.262	1	28
396.432	1	7
396.603	1	40
396.774	1	10
396.945	1	34
397.115	1	39
397.286	1	35
397.457	1	26
397.627	1	28
397.798	1	10
397.969	1	21
398.140	1	32
398.310	1	32
398.481	1	24
398.652	1	32
398.823	1	34
398.993	1	21
399.164	1	34
399.335	1	20
399.505	1	21
399.676	1	33
399.847	1	24
400.018	1	16
400.188	1	26
400.359	1	21
400.530	1	21
400.700	1	19
400.871	1	14
401.042	1	24
401.213	1	9
401.383	1	20
401.554	1	28
401.725	1	29
401.895	1	23
402.066	1	22
402.237	1	26
402.408	1	16
402.578	1	18
402.749	1	7
402.920	1	9
403.090	1	17
403.261	1	13
403.432	1	16
403.603	1	19
403.773	1	22
403.944	1	24
404.115	1	11
404.285	1	11
404.456	1	16
404.627	1	21
404.797	1	31
404.968	1	14
405.139	1	18
405.310	1	13
405.480	1	28
405.651	1	13
405.822	1	20
405.992	1	15
406.163	1	16
406.334	1	9
406.504	1	22
406.675	1	29
406.846	1	20
407.016	1	26
407.187	1	12
407.358	1	13
407.528	1	24
407.699	1	19
407.870	1	15
408.041	1	7
408.211	1	7
408.382	1	19
408.553	1	26
408.723	1	18
408.894	1	14
409.065	1	23
409.235	1	14
409.406	1	16
409.577	1	31
409.747	1	8
409.918	1	14
410.089	1	25
410.259	1	-1
410.430	1	34
410.601	1	4
410.771	1	18
410.942	1	12
411.113	1	9
411.283	1	13
411.454	1	4
411.625	1	12
411.795	1	25
411.966	1	5
412.137	1	10
412.307	1	14
412.478	1	26
412.649	1	9
412.819	1	18
412.990	1	21
413.161	1	10
413.331	1	-3
413.502	1	16
413.672	1	10
413.843	1	16
414.014	1	7
414.184	1	-3
414.355	1	7
414.526	1	10
414.696	1	6
414.867	1	19
415.038	1	8
415.208	1	-5
415.379	1	19
415.550	1	13
415.720	1	12
415.891	1	21
416.062	1	5
416.232	1	12
416.403	1	13
416.573	1	16
416.744	1	8
416.915	1	12
417.085	1	9
417.256	1	10
417.427	1	8
417.597	1	-2
417.768	1	6
417.939	1	6
418.109	1	15
418.280	1	11
418.450	1	4
418.621	1	9
418.792	1	10
418.962	1	5
419.133	1	10
419.304	1	-1
419.474	1	8
419.645	1	13
419.815	1	6
419.986	1	7
420.157	1	9
420.327	1	12
420.498	1	7
420.669	1	16
420.839	1	4
421.010	1	18
421.180	1	13
421.351	1	17
421.522	1	16
421.692	1	12
421.863	1	3
422.033	1	2
422.204	1	-14
422.375	1	2
422.545	1	23
422.716	1	2
422.886	1	10
423.057	1	12
423.228	1	-1
423.398	1	3
423.569	1	-1
423.740	1	0
423.910	1	-3
424.081	1	6
424.251	1	5
424.422	1	19
424.593	1	12
424.763	1	7
424.934	1	6
425.104	1	12
425.275	1	-5
425.445	1	-5
425.616	1	6
425.787	1	-3
425.957	1	20
426.128	1	0
426.298	1	7
426.469	1	5
426.640	1	8
426.810	1	9
426.981	1	-4
427.151	1	6
427.322	1	8
427.493	1	2
427.663	1	3
427.834	1	4
428.004	1	12
428.175	1	6
428.345	1	7
428.516	1	2
428.687	1	0
428.857	1	5
429.028	1	-1
429.198	1	-4
429.369	1	7
429.540	1	10
429.710	1	4
429.881	1	21
430.051	1	8
430.222	1	-2
430.392	1	4
430.563	1	17
430.734	1	10
430.904	1	-3
431.075	1	14
431.245	1	5
431.416	1	4
431.586	1	6
431.757	1	10
431.927	1	6
432.098	1	-2
432.269	1	-5
432.439	1	-3
432.610	1	8
432.780	1	6
432.951	1	8
433.121	1	9
433.292	1	3
433.462	1	3
433.633	1	-1
433.804	1	8
433.974	1	-5
434.145	1	9
434.315	1	13
434.486	1	2
434.656	1	0
434.827	1	-2
434.997	1	9
435.168	1	10
435.339	1	10
435.509	1	14
435.680	1	-7
435.850	1	4
436.021	1	4
436.191	1	-1
436.362	1	2
436.532	1	4
436.703	1	13
436.873	1	4
437.044	1	6
437.214	1	-2
437.385	1	6
437.556	1	-7
437.726	1	1
437.897	1	2
438.067	1	8
438.238	1	-9
438.408	1	6
438.579	1	6
438.749	1	8
438.920	1	4
439.090	1	13
439.261	1	4
439.431	1	-8
439.602	1	-3
439.772	1	6
439.943	1	0
440.113	1	1
440.284	1	8
440.455	1	-4
440.625	1	4
440.796	1	13
440.966	1	13
441.137	1	-2
441.307	1	-3
441.478	1	3
441.648	1	-4
441.819	1	10
441.989	1	-2
442.160	1	8
442.330	1	11
442.501	1	-9
442.671	1	7
442.842	1	12
443.012	1	-2
443.183	1	-8
443.353	1	4
443.524	1	3
443.694	1	4
443.865	1	9
444.035	1	0
444.206	1	6
444.376	1	0
444.547	1	-6
444.717	1	16
444.888	1	-5
445.058	1	3
445.229	1	2
445.399	1	5
445.570	1	1
445.740	1	6
445.911	1	12
446.081	1	16
446.252	1	-19
446.422	1	8
446.593	1	3
446.763	1	13
446.934	1	0
447.104	1	-4
447.275	1	4
447.445	1	-3
447.616	1	3
447.786	1	4
447.957	1	-1
448.127	1	6
448.298	1	-10
448.468	1	5
448.639	1	-5
448.809	1	2
448.979	1	8
449.150	1	8
449.320	1	-2
449.491	1	5
449.661	1	4
449.832	1	1
450.002	1	-2
450.173	1	0
450.343	1	6
450.514	1	3
450.684	1	-1
450.855	1	16
451.025	1	-3
451.196	1	3
451.366	1	3
451.537	1	-3
451.707	1	6
451.878	1	5
452.048	1	8
452.218	1	-3
452.389	1	-4
452.559	1	8
452.730	1	-4
452.900	1	4
453.071	1	-7
453.241	1	-7
453.412	1	-3
453.582	1	5
453.753	1	1
453.923	1	3
454.093	1	13
454.264	1	-5
454.434	1	7
454.605	1	3
454.775	1	11
454.946	1	3
455.116	1	4
455.287	1	4
455.457	1	-3
455.628	1	-4
455.798	1	1
455.968	1	8
456.139	1	-5
456.309	1	-8
456.480	1	-3
456.650	1	7
456.821	1	8
456.991	1	2
457.161	1	-1
457.332	1	6
457.502	1	9
457.673	1	-5
457.843	1	8
458.014	1	5
458.184	1	12
458.355	1	6
458.525	1	3
458.695	1	-1
458.866	1	-5
459.036	1	7
459.207	1	-2
459.377	1	6
459.548	1	1
459.718	1	1
459.888	1	8
460.059	1	3
460.229	1	5
460.400	1	7
460.570	1	4
460.740	1	-3
460.911	1	12
461.081	1	-3
461.252	1	4
461.422	1	6
461.593	1	-3
461.763	1	6
461.933	1	-9
462.104	1	9
462.274	1	2
462.445	1	-8
462.615	1	0
462.785	1	-4
462.956	1	1
463.126	1	-5
463.297	1	8
463.467	1	8
463.638	1	14
463.808	1	2
463.978	1	0
464.149	1	-2
464.319	1	-9
464.490	1	-6
464.660	1	2
464.830	1	2
465.001	1	9
465.171	1	2
465.342	1	0
465.512	1	6
465.682	1	0
465.853	1	-1
466.023	1	3
466.194	1	8
466.364	1	9
466.534	1	0
466.705	1	7
466.875	1	12
467.045	1	5
467.216	1	-3
467.386	1	5
467.557	1	-1
467.727	1	-6
467.897	1	10
468.068	1	1
468.238	1	-10
468.409	1	5
468.579	1	5
468.749	1	3
468.920	1	1
469.090	1	12
469.260	1	-2
469.431	1	9
469.601	1	9
469.772	1	-11
469.942	1	4
470.112	1	7
470.283	1	5
470.453	1	2
470.623	1	2
470.794	1	-3
470.964	1	-5
471.135	1	-9
471.305	1	2
471.475	1	3
471.646	1	8
471.816	1	0
471.986	1	9
472.157	1	-1
472.327	1	1
472.497	1	-1
472.668	1	-4
472.838	1	4
473.009	1	-2
473.179	1	5
473.349	1	3
473.520	1	6
473.690	1	14
473.860	1	5
474.031	1	3
474.201	1	-5
474.371	1	12
474.542	1	-3
474.712	1	4
474.882	1	-4
475.053	1	1
475.223	1	-4
475.394	1	7
475.564	1	11
475.734	1	0
475.905	1	4
476.075	1	6
476.245	1	-4
476.416	1	-6
476.586	1	0
476.756	1	0
476.927	1	7
477.097	1	-1
477.267	1	-1
477.438	1	-3
477.608	1	1
477.778	1	3
477.949	1	12
478.119	1	6
478.289	1	3
478.460	1	-1
478.630	1	-1
478.800	1	0
478.971	1	9
479.141	1	8
479.311	1	0
479.482	1	-6
479.652	1	1
479.822	1	1
479.993	1	10
480.163	1	-7
480.333	1	-4
480.504	1	-3
480.674	1	6
480.844	1	-3
481.015	1	-3
481.185	1	5
481.355	1	10
481.525	1	-2
481.696	1	1
481.866	1	4
482.036	1	-8
482.207	1	15
482.377	1	0
482.547	1	-3
482.718	1	6
482.888	1	-3
483.058	1	8
483.229	1	2
483.399	1	1
483.569	1	6
483.740	1	-11
483.910	1	2
484.080	1	-6
484.250	1	11
484.421	1	1
484.591	1	-1
484.761	1	0
484.932	1	5
485.102	1	-5
485.272	1	13
485.443	1	16
485.613	1	-13
485.783	1	7
485.953	1	-3
486.124	1	7
486.294	1	7
486.464	1	1
486.635	1	15
486.805	1	19
486.975	1	-9
487.146	1	1
487.316	1	0
487.486	1	10
487.656	1	-3
487.827	1	7
487.997	1	1
488.167	1	8
488.338	1	26
488.508	1	7
488.678	1	5
488.848	1	-1
489.019	1	5
489.189	1	-3
489.359	1	4
489.529	1	-2
489.700	1	7
489.870	1	-3
490.040	1	6
490.211	1	18
490.381	1	4
490.551	1	1
490.721	1	-2
490.892	1	9
491.062	1	16
491.232	1	-1
491.402	1	2
491.573	1	7
491.743	1	-21
491.913	1	6
492.084	1	7
492.254	1	6
492.424	1	4
492.594	1	-5
492.765	1	15
492.935	1	5
493.105	1	3
493.275	1	8
493.446	1	2
493.616	1	5
493.786	1	2
493.956	1	-5
494.127	1	5
494.297	1	0
494.467	1	1
494.637	1	3
494.808	1	8
494.978	1	7
495.148	1	5
495.318	1	16
495.489	1	1
495.659	1	14
495.829	1	6
495.999	1	11
496.170	1	-6
496.340	1	9
496.510	1	1
496.680	1	10
496.851	1	10
497.021	1	3
497.191	1	-2
497.361	1	-9
497.532	1	-1
497.702	1	-4
497.872	1	5
498.042	1	5
498.213	1	14
498.383	1	7
498.553	1	16
498.723	1	0
498.894	1	9
499.064	1	21
499.234	1	-3
499.404	1	6
499.574	1	-8
499.745	1	6
499.915	1	7
500.085	1	0
500.255	1	8
500.426	1	12
500.596	1	0
500.766	1	10
500.936	1	-9
501.106	1	11
501.277	1	8
501.447	1	-4
501.617	1	8
501.787	1	1
501.958	1	-4
502.128	1	6
502.298	1	13
502.468	1	13
502.638	1	9
502.809	1	3
502.979	1	2
503.149	1	14
503.319	1	4
503.489	1	10
503.660	1	17
503.830	1	10
504.000	1	1
504.170	1	14
504.340	1	1
504.511	1	11
504.681	1	2
504.851	1	6
505.021	1	12
505.192	1	12
505.362	1	15
505.532	1	10
505.702	1	14
505.872	1	1
506.043	1	10
506.213	1	9
506.383	1	5
506.553	1	13
506.723	1	4
506.893	1	5
507.064	1	2
507.234	1	15
507.404	1	1
507.574	1	20
507.744	1	-1
507.915	1	9
508.085	1	22
508.255	1	6
508.425	1	15
508.595	1	2
508.766	1	5
508.936	1	1
509.106	1	0
509.276	1	16
509.446	1	-1
509.616	1	7
509.787	1	6
509.957	1	12
510.127	1	8
510.297	1	5
510.467	1	7
510.638	1	0
510.808	1	4
510.978	1	-7
511.148	1	19
511.318	1	9
511.488	1	16
511.659	1	15
511.829	1	11
511.999	1	17
512.169	1	6
512.339	1	10
512.509	1	9
512.680	1	12
512.850	1	11
513.020	1	7
513.190	1	3
513.360	1	16
513.530	1	10
513.700	1	22
513.871	1	12
514.041	1	5
514.211	1	8
514.381	1	7
514.551	1	10
514.721	1	8
514.892	1	12
515.062	1	7
515.232	1	7
515.402	1	4
515.572	1	10
515.742	1	13
515.912	1	16
516.083	1	11
516.253	1	4
516.423	1	18
516.593	1	10
516.763	1	11
516.933	1	12
517.104	1	15
517.274	1	11
517.444	1	8
517.614	1	7
517.784	1	5
517.954	1	4
518.124	1	18
518.294	1	10
518.465	1	16
518.635	1	11
518.805	1	14
518.975	1	20
519.145	1	10
519.315	1	11
519.485	1	3
519.656	1	15
519.826	1	12
519.996	1	20
520.166	1	14
520.336	1	13
520.506	1	11
520.676	1	6
520.846	1	14
521.017	1	8
521.187	1	7
521.357	1	6
521.527	1	21
521.697	1	9
521.867	1	5
522.037	1	13
522.207	1	11
522.377	1	21
522.548	1	6
522.718	1	13
522.888	1	9
523.058	1	32
523.228	1	18
523.398	1	14
523.568	1	11
523.738	1	11
523.909	1	27
524.079	1	21
524.249	1	14
524.419	1	21
524.589	1	23
524.759	1	2
524.929	1	19
525.099	1	11
525.269	1	18
525.439	1	14
525.610	1	17
525.780	1	22
525.950	1	12
526.120	1	12
526.290	1	11
526.460	1	13
526.630	1	14
526.800	1	12
526.970	1	5
527.140	1	6
527.311	1	10
527.481	1	19
527.651	1	27
527.821	1	13
527.991	1	17
528.161	1	10
528.331	1	11
528.501	1	10
528.671	1	10
528.841	1	10
529.011	1	8
529.181	1	10
529.352	1	12
529.522	1	14
529.692	1	24
529.862	1	16
530.032	1	14
530.202	1	15
530.372	1	11
530.542	1	20
530.712	1	21
530.882	1	5
531.052	1	22
531.222	1	7
531.392	1	9
531.563	1	15
531.733	1	17
531.903	1	30
532.073	1	17
532.243	1	17
532.413	1	13
532.583	1	11
532.753	1	24
532.923	1	14
533.093	1	21
533.263	1	7
533.433	1	12
533.603	1	8
533.773	1	13
533.943	1	18
534.113	1	14
534.284	1	12
534.454	1	20
534.624	1	19
534.794	1	4
534.964	1	6
535.134	1	4
535.304	1	20
535.474	1	7
535.644	1	20
535.814	1	19
535.984	1	18
536.154	1	11
536.324	1	14
536.494	1	13
536.664	1	13
536.834	1	11
537.004	1	27
537.174	1	5
537.344	1	13
537.514	1	20
537.685	1	20
537.855	1	16
538.025	1	18
538.195	1	26
538.365	1	26
538.535	1	20
538.705	1	12
538.875	1	18
539.045	1	22
539.215	1	5
539.385	1	15
539.555	1	4
539.725	1	13
539.895	1	21
540.065	1	14
540.235	1	0
540.405	1	8
540.575	1	19
540.745	1	7
540.915	1	21
541.085	1	4
541.255	1	9
541.425	1	15
541.595	1	11
541.765	1	11
541.935	1	21
542.105	1	9
542.275	1	7
542.445	1	10
542.615	1	13
542.785	1	10
542.955	1	14
543.125	1	10
543.295	1	16
543.465	1	11
543.635	1	15
543.805	1	16
543.975	1	20
544.145	1	15
544.315	1	9
544.485	1	12
544.655	1	15
544.825	1	24
544.995	1	10
545.165	1	12
545.335	1	14
545.505	1	9
545.675	1	2
545.845	1	8
546.015	1	9
546.185	1	12
546.355	1	25
546.525	1	15
546.695	1	8
546.865	1	11
547.035	1	18
547.205	1	5
547.375	1	10
547.545	1	13
547.715	1	15
547.885	1	9
548.055	1	5
548.225	1	6
548.395	1	9
548.565	1	11
548.735	1	16
548.905	1	8
549.075	1	3
549.245	1	16
549.415	1	6
549.585	1	9
549.755	1	10
549.925	1	13
550.095	1	15
550.265	1	7
550.435	1	23
550.605	1	2
550.775	1	0
550.945	1	23
551.115	1	4
551.285	1	15
551.455	1	10
551.625	1	-1
551.795	1	18
551.965	1	9
552.135	1	12
552.305	1	14
552.475	1	3
552.645	1	18
552.815	1	15
552.985	1	10
553.155	1	22
553.325	1	20
553.495	1	0
553.665	1	18
553.835	1	10
554.004	1	1
554.174	1	9
554.344	1	10
554.514	1	19
554.684	1	2
554.854	1	6
555.024	1	9
555.194	1	19
555.364	1	11
555.534	1	11
555.704	1	7
555.874	1	8
556.044	1	15
556.214	1	8
556.384	1	12
556.554	1	10
556.724	1	7
556.894	1	20
557.064	1	9
557.234	1	13
557.404	1	11
557.573	1	16
557.743	1	17
557.913	1	9
558.083	1	-3
558.253	1	14
558.423	1	-4
558.593	1	2
558.763	1	7
558.933	1	19
559.103	1	12
559.273	1	7
559.443	1	12
559.613	1	6
559.783	1	7
559.953	1	-5
560.122	1	0
560.292	1	6
560.462	1	7
560.632	1	9
560.802	1	7
560.972	1	23
561.142	1	15
561.312	1	3
561.482	1	18
561.652	1	3
561.822	1	7
561.992	1	19
562.162	1	8
562.331	1	8
562.501	1	6
562.671	1	11
562.841	1	3
563.011	1	2
563.181	1	5
563.351	1	5
563.521	1	12
563.691	1	9
563.861	1	15
564.031	1	13
564.201	1	9
564.370	1	21
564.540	1	13
564.710	1	3
564.880	1	3
565.050	1	8
565.220	1	6
565.390	1	-3
565.560	1	16
565.730	1	8
565.900	1	11
566.069	1	11
566.239	1	3
566.409	1	13
566.579	1	6
566.749	1	10
566.919	1	11
567.089	1	6
567.259	1	15
567.429	1	16
567.599	1	5
567.768	1	9
567.938	1	14
568.108	1	0
568.278	1	-3
568.448	1	8
568.618	1	10
568.788	1	-9
568.958	1	9
569.128	1	12
569.297	1	21
569.467	1	9
569.637	1	5
569.807	1	8
569.977	1	5
570.147	1	6
570.317	1	26
570.487	1	14
570.656	1	17
570.826	1	15
570.996	1	0
571.166	1	8
571.336	1	3
571.506	1	6
571.676	1	14
571.846	1	12
572.015	1	1
572.185	1	7
572.355	1	17
572.525	1	3
572.695	1	9
572.865	1	7
573.035	1	-2
573.205	1	7
573.374	1	0
573.544	1	2
573.714	1	18
573.884	1	3
574.054	1	13
574.224	1	3
574.394	1	6
574.563	1	-2
574.733	1	2
574.903	1	1
575.073	1	2
575.243	1	-5
575.413	1	3
575.583	1	12
575.752	1	4
575.922	1	16
576.092	1	14
576.262	1	6
576.432	1	-3
576.602	1	8
576.772	1	11
576.941	1	3
577.111	1	5
577.281	1	4
577.451	1	6
577.621	1	0
577.791	1	7
577.960	1	4
578.130	1	5
578.300	1	0
578.470	1	6
578.640	1	6
578.810	1	9
578.979	1	2
579.149	1	6
579.319	1	6
579.489	1	5
579.659	1	14
579.829	1	11
579.998	1	1
580.168	1	6
580.338	1	-14
580.508	1	11
580.678	1	-2
580.848	1	7
581.017	1	6
581.187	1	7
581.357	1	-2
581.527	1	7
581.697	1	0
581.867	1	-4
582.036	1	8
582.206	1	-3
582.376	1	8
582.546	1	3
582.716	1	11
582.885	1	2
583.055	1	2
583.225	1	4
583.395	1	7
583.565	1	15
583.735	1	-2
583.904	1	0
584.074	1	6
584.244	1	4
584.414	1	-1
584.584	1	15
584.753	1	-1
584.923	1	-3
585.093	1	11
585.263	1	11
585.433	1	9
585.602	1	10
585.772	1	6
585.942	1	9
586.112	1	5
586.282	1	8
586.451	1	9
586.621	1	3
586.791	1	7
586.961	1	12
587.131	1	5
587.300	1	-4
587.470	1	7
587.640	1	-1
587.810	1	11
587.980	1	5
588.149	1	6
588.319	1	3
588.489	1	10
588.659	1	-3
588.829	1	8
588.998	1	-3
589.168	1	15
589.338	1	6
589.508	1	11
589.677	1	9
589.847	1	2
590.017	1	-3
590.187	1	10
590.357	1	8
590.526	1	8
590.696	1	3
590.866	1	0
591.036	1	13
591.205	1	11
591.375	1	-5
591.545	1	-2
591.715	1	-5
591.885	1	9
592.054	1	11
592.224	1	3
592.394	1	8
592.564	1	-5
592.733	1	6
592.903	1	-4
593.073	1	6
593.243	1	-5
593.412	1	-1
593.582	1	15
593.752	1	2
593.922	1	-3
594.091	1	6
594.261	1	13
594.431	1	0
594.601	1	-16
594.771	1	4
594.940	1	8
595.110	1	3
595.280	1	7
595.450	1	10
595.619	1	4
595.789	1	10
595.959	1	-1
596.129	1	1
596.298	1	13
596.468	1	8
596.638	1	11
596.808	1	8
596.977	1	3
597.147	1	6
597.317	1	1
597.487	1	4
597.656	1	3
597.826	1	2
597.996	1	7
598.166	1	3
598.335	1	4
598.505	1	8
598.675	1	8
598.844	1	-2
599.014	1	0
599.184	1	-5
599.354	1	-2
599.523	1	-1
599.693	1	10
599.863	1	6
600.033	1	2
600.202	1	8
600.372	1	4
600.542	1	3
600.712	1	9
600.881	1	6
601.051	1	9
601.221	1	-4
601.390	1	-5
601.560	1	2
601.730	1	3
601.900	1	-8
602.069	1	-5
602.239	1	1
602.409	1	3
602.578	1	6
602.748	1	-6
602.918	1	3
603.088	1	10
603.257	1	8
603.427	1	-2
603.597	1	18
603.767	1	2
603.936	1	13
604.106	1	10
604.276	1	4
604.445	1	3
604.615	1	2
604.785	1	2
604.954	1	10
605.124	1	-1
605.294	1	10
605.464	1	2
605.633	1	13
605.803	1	3
605.973	1	3
606.142	1	-2
606.312	1	1
606.482	1	9
606.652	1	-10
606.821	1	2
606.991	1	2
607.161	1	13
607.330	1	4
607.500	1	1
607.670	1	3
607.839	1	6
608.009	1	-8
608.179	1	10
608.348	1	9
608.518	1	-1
608.688	1	14
608.858	1	4
609.027	1	7
609.197	1	-13
609.367	1	-10
609.536	1	-2
609.706	1	-6
609.876	1	-2
610.045	1	8
610.215	1	-1
610.385	1	1
610.554	1	-4
610.724	1	6
610.894	1	1
611.063	1	11
611.233	1	-5
611.403	1	6
611.572	1	0
611.742	1	1
611.912	1	-2
612.081	1	-5
612.251	1	0
612.421	1	19
612.590	1	-2
612.760	1	-4
612.930	1	-5
613.099	1	-9
613.269	1	-5
613.439	1	-2
613.608	1	2
613.778	1	9
613.948	1	10
614.117	1	17
614.287	1	-2
614.457	1	12
614.626	1	3
614.796	1	6
614.966	1	4
615.135	1	0
615.305	1	3
615.475	1	4
615.644	1	0
615.814	1	5
615.984	1	2
616.153	1	6
616.323	1	4
616.493	1	0
616.662	1	2
616.832	1	-3
617.002	1	-5
617.171	1	-4
617.341	1	9
617.511	1	0
617.680	1	-4
617.850	1	13
618.019	1	-3
618.189	1	-6
618.359	1	-1
618.528	1	-2
618.698	1	5
618.868	1	14
619.037	1	11
619.207	1	-2
619.377	1	-1
619.546	1	1
619.716	1	-1
619.885	1	-3
620.055	1	2
620.225	1	-1
620.394	1	5
620.564	1	2
620.734	1	3
620.903	1	4
621.073	1	1
621.242	1	-4
621.412	1	8
621.582	1	-3
621.751	1	3
621.921	1	0
622.091	1	0
622.260	1	1
622.430	1	6
622.599	1	12
622.769	1	-4
622.939	1	2
623.108	1	4
623.278	1	11
623.448	1	3
623.617	1	10
623.787	1	3
623.956	1	-5
624.126	1	5
624.296	1	-2
624.465	1	4
624.635	1	4
624.804	1	0
624.974	1	9
625.144	1	5
625.313	1	2
625.483	1	7
625.652	1	11
625.822	1	7
625.992	1	-9
626.161	1	-1
626.331	1	5
626.501	1	6
626.670	1	-1
626.840	1	7
627.009	1	-1
627.179	1	-1
627.348	1	-4
627.518	1	7
627.688	1	5
627.857	1	-2
628.027	1	6
628.196	1	9
628.366	1	3
628.536	1	-3
628.705	1	-3
628.875	1	3
629.044	1	6
629.214	1	6
629.384	1	4
629.553	1	3
629.723	1	8
629.892	1	3
630.062	1	-1
630.232	1	6
630.401	1	-4
630.571	1	3
630.740	1	6
630.910	1	-3
631.079	1	11
631.249	1	-2
631.419	1	-3
631.588	1	-8
631.758	1	9
631.927	1	6
632.097	1	8
632.266	1	-7
632.436	1	-5
632.606	1	10
632.775	1	-6
632.945	1	3
633.114	1	12
633.284	1	10
633.453	1	-4
633.623	1	11
633.793	1	2
633.962	1	12
634.132	1	2
634.301	1	1
634.471	1	-8
634.640	1	3
634.810	1	2
634.979	1	13
635.149	1	3
635.319	1	5
635.488	1	-4
635.658	1	-4
635.827	1	1
635.997	1	-2
636.166	1	3
636.336	1	12
636.505	1	6
636.675	1	2
636.845	1	9
637.014	1	-2
637.184	1	2
637.353	1	3
637.523	1	0
637.692	1	-1
637.862	1	-9
638.031	1	6
638.201	1	5
638.370	1	2
638.540	1	18
638.710	1	2
638.879	1	-5
639.049	1	6
639.218	1	-1
639.388	1	11
639.557	1	7
639.727	1	1
639.896	1	0
640.066	1	0
640.235	1	6
640.405	1	-5
640.574	1	-7
640.744	1	0
640.914	1	-7
641.083	1	-4
641.253	1	2
641.422	1	-4
641.592	1	-9
641.761	1	6
641.931	1	-2
642.100	1	4
642.270	1	-2
642.439	1	7
642.609	1	6
642.778	1	6
642.948	1	8
643.117	1	5
643.287	1	0
643.456	1	9
643.626	1	10
643.795	1	-5
643.965	1	0
644.134	1	4
644.304	1	-2
644.473	1	13
644.643	1	-7
644.812	1	5
644.982	1	5
645.151	1	1
645.321	1	11
645.490	1	4
645.660	1	0
645.829	1	-12
645.999	1	0
646.168	1	3
646.338	1	12
646.507	1	1
646.677	1	11
646.846	1	11
647.016	1	-2
647.185	1	-9
647.355	1	-4
647.524	1	4
647.694	1	-1
647.863	1	-3
648.033	1	-8
648.202	1	7
648.372	1	5
648.541	1	0
648.711	1	7
648.880	1	1
649.050	1	-6
649.219	1	3
649.389	1	6
649.558	1	-2
649.728	1	3
649.897	1	2
650.067	1	-9
650.236	1	14
650.406	1	-1
650.575	1	6
650.745	1	-10
650.914	1	-6
651.084	1	-12
651.253	1	-5
651.423	1	9
651.592	1	3
651.762	1	7
651.931	1	8
652.101	1	4
652.270	1	2
652.440	1	-1
652.609	1	4
652.778	1	-1
652.948	1	0
653.117	1	-6
653.287	1	4
653.456	1	2
653.626	1	-2
653.795	1	3
653.965	1	11
654.134	1	5
654.304	1	2
654.473	1	8
654.643	1	12
654.812	1	-5
654.982	1	-11
655.151	1	-13
655.320	1	1
655.490	1	12
655.659	1	-8
655.829	1	7
655.998	1	6
656.168	1	5
656.337	1	0
656.507	1	15
656.676	1	-5
656.846	1	-3
657.015	1	6
657.184	1	7
657.354	1	6
657.523	1	-5
657.693	1	10
657.862	1	0
658.032	1	6
658.201	1	-5
658.371	1	-10
658.540	1	5
658.709	1	-7
658.879	1	-5
659.048	1	8
659.218	1	2
659.387	1	1
659.557	1	5
659.726	1	5
659.895	1	-3
660.065	1	-1
660.234	1	1
660.404	1	14
660.573	1	-10
660.743	1	0
660.912	1	3
661.081	1	4
661.251	1	-4
661.420	1	3
661.590	1	1
661.759	1	7
661.929	1	-3
662.098	1	-6
662.267	1	9
662.437	1	4
662.606	1	5
662.776	1	2
662.945	1	3
663.115	1	-9
663.284	1	-1
663.453	1	-1
663.623	1	1
663.792	1	-1
663.962	1	-1
664.131	1	-8
664.300	1	8
664.470	1	3
664.639	1	2
664.809	1	-1
664.978	1	-5
665.148	1	-4
665.317	1	-5
665.486	1	-2
665.656	1	5
665.825	1	4
665.995	1	3
666.164	1	4
666.333	1	11
666.503	1	9
666.672	1	-2
666.842	1	-1
667.011	1	-3
667.180	1	-1
667.350	1	5
667.519	1	3
667.689	1	-7
667.858	1	-3
668.027	1	0
668.197	1	2
668.366	1	-2
668.536	1	10
668.705	1	-1
668.874	1	-2
669.044	1	-7
669.213	1	3
669.382	1	-2
669.552	1	10
669.721	1	-11
669.891	1	0
670.060	1	2
670.229	1	-4
670.399	1	14
670.568	1	11
670.738	1	-11
670.907	1	-16
671.076	1	1
671.246	1	4
671.415	1	-1
671.584	1	1
671.754	1	-16
671.923	1	-6
672.093	1	10
672.262	1	1
672.431	1	-1
672.601	1	-5
672.770	1	10
672.939	1	-8
673.109	1	-1
673.278	1	3
673.448	1	8
673.617	1	8
673.786	1	-3
