340.368	1	1
340.539	1	-3
340.710	1	-3
340.881	1	2
341.052	1	0
341.223	1	7
341.394	1	-1
341.565	1	-4
341.737	1	7
341.908	1	2
342.079	1	-5
342.250	1	2
342.421	1	2
342.592	1	-9
342.763	1	-1
342.934	1	1
343.105	1	1
343.276	1	-3
343.447	1	2
343.618	1	4
343.789	1	-7
343.960	1	-7
344.131	1	1
344.302	1	-5
344.473	1	6
344.644	1	-4
344.815	1	-2
344.986	1	9
345.157	1	4
345.328	1	-4
345.499	1	4
345.670	1	8
345.841	1	-5
346.012	1	12
346.183	1	6
346.354	1	-10
346.526	1	4
346.697	1	-4
346.868	1	2
347.039	1	-3
347.210	1	-2
347.381	1	3
347.552	1	11
347.723	1	4
347.894	1	1
348.065	1	2
348.236	1	5
348.407	1	-11
348.578	1	-6
348.749	1	3
348.920	1	11
349.091	1	6
349.262	1	0
349.433	1	1
349.604	1	7
349.775	1	12
349.946	1	9
350.117	1	12
350.288	1	-1
350.459	1	5
350.630	1	-6
350.801	1	5
350.972	1	-4
351.143	1	-9
351.314	1	-2
351.485	1	-2
351.656	1	5
351.827	1	-6
351.998	1	-2
352.169	1	2
352.340	1	-3
352.511	1	4
352.682	1	-4
352.853	1	-13
353.024	1	-13
353.195	1	2
353.366	1	9
353.537	1	0
353.708	1	1
353.879	1	-2
354.050	1	9
354.221	1	-6
354.392	1	8
354.563	1	8
354.734	1	2
354.905	1	-2
355.076	1	0
355.247	1	-3
355.418	1	-4
355.589	1	3
355.760	1	12
355.931	1	4
356.102	1	-2
356.273	1	-4
356.444	1	2
356.615	1	6
356.785	1	10
356.956	1	-2
357.127	1	3
357.298	1	1
357.469	1	5
357.640	1	3
357.811	1	9
357.982	1	-5
358.153	1	-1
358.324	1	0
358.495	1	11
358.666	1	0
358.837	1	0
359.008	1	-9
359.179	1	0
359.350	1	-6
359.521	1	-4
359.692	1	6
359.863	1	-10
360.034	1	-4
360.205	1	0
360.376	1	4
360.547	1	5
360.718	1	-2
360.889	1	10
361.060	1	6
361.231	1	-1
361.401	1	9
361.572	1	-7
361.743	1	10
361.914	1	-1
362.085	1	-2
362.256	1	9
362.427	1	0
362.598	1	5
362.769	1	8
362.940	1	0
363.111	1	2
363.282	1	2
363.453	1	5
363.624	1	0
363.795	1	-2
363.966	1	8
364.137	1	-5
364.308	1	-3
364.478	1	6
364.649	1	4
364.820	1	0
364.991	1	4
365.162	1	-4
365.333	1	13
365.504	1	0
365.675	1	9
365.846	1	4
366.017	1	3
366.188	1	-3
366.359	1	11
366.530	1	11
366.701	1	-2
366.871	1	8
367.042	1	3
367.213	1	2
367.384	1	6
367.555	1	2
367.726	1	6
367.897	1	6
368.068	1	6
368.239	1	7
368.410	1	-4
368.581	1	9
368.752	1	-10
368.923	1	-4
369.093	1	7
369.264	1	2
369.435	1	-2
369.606	1	0
369.777	1	-2
369.948	1	4
370.119	1	1
370.290	1	2
370.461	1	5
370.632	1	4
370.803	1	5
370.973	1	25
371.144	1	9
371.315	1	2
371.486	1	11
371.657	1	7
371.828	1	6
371.999	1	-1
372.170	1	10
372.341	1	11
372.512	1	-1
372.682	1	-3
372.853	1	6
373.024	1	6
373.195	1	-10
373.366	1	11
373.537	1	5
373.708	1	2
373.879	1	7
374.050	1	9
374.220	1	-5
374.391	1	0
374.562	1	0
374.733	1	12
374.904	1	0
375.075	1	7
375.246	1	2
375.417	1	5
375.588	1	11
375.758	1	2
375.929	1	10
376.100	1	3
376.271	1	5
376.442	1	1
376.613	1	3
376.784	1	9
376.955	1	-5
377.125	1	8
377.296	1	11
377.467	1	-8
377.638	1	2
377.809	1	6
377.980	1	11
378.151	1	-3
378.321	1	4
378.492	1	5
378.663	1	-1
378.834	1	2
379.005	1	9
379.176	1	3
379.347	1	6
379.518	1	-12
379.688	1	-2
379.859	1	-5
380.030	1	-8
380.201	1	-7
380.372	1	-2
380.543	1	7
380.714	1	11
380.884	1	-5
381.055	1	6
381.226	1	10
381.397	1	-2
381.568	1	-1
381.739	1	10
381.910	1	7
382.080	1	-14
382.251	1	-4
382.422	1	11
382.593	1	-5
382.764	1	9
382.935	1	7
383.105	1	3
383.276	1	-1
383.447	1	10
383.618	1	8
383.789	1	4
383.960	1	1
384.130	1	1
384.301	1	7
384.472	1	3
384.643	1	3
384.814	1	8
384.985	1	4
385.156	1	10
385.326	1	6
385.497	1	6
385.668	1	3
385.839	1	11
386.010	1	1
386.180	1	11
386.351	1	-3
386.522	1	6
386.693	1	-1
386.864	1	0
387.035	1	-1
387.205	1	-1
387.376	1	10
387.547	1	3
387.718	1	15
387.889	1	14
388.060	1	-11
388.230	1	5
388.401	1	13
388.572	1	5
388.743	1	9
388.914	1	13
389.084	1	12
389.255	1	9
389.426	1	9
389.597	1	-6
389.768	1	3
389.939	1	3
390.109	1	4
390.280	1	22
390.451	1	19
390.622	1	7
390.793	1	9
390.963	1	4
391.134	1	3
391.305	1	9
391.476	1	12
391.647	1	8
391.817	1	-4
391.988	1	9
392.159	1	20
392.330	1	8
392.501	1	11
392.671	1	9
392.842	1	20
393.013	1	22
393.184	1	10
393.355	1	10
393.525	1	7
393.696	1	15
393.867	1	1
394.038	1	2
394.208	1	17
394.379	1	-10
394.550	1	13
394.721	1	5
394.892	1	2
395.062	1	2
395.233	1	6
395.404	1	9
395.575	1	-3
395.746	1	-7
395.916	1	4
396.087	1	1
396.258	1	-2
396.429	1	2
396.599	1	17
396.770	1	5
396.941	1	17
397.112	1	-5
397.283	1	10
397.453	1	-6
397.624	1	-1
397.795	1	5
397.966	1	17
398.136	1	6
398.307	1	5
398.478	1	5
398.649	1	5
398.819	1	8
398.990	1	7
399.161	1	7
399.332	1	12
399.503	1	1
399.673	1	4
399.844	1	1
400.015	1	18
400.186	1	9
400.356	1	-5
400.527	1	0
400.698	1	12
400.869	1	10
401.039	1	0
401.210	1	-2
401.381	1	1
401.552	1	5
401.722	1	9
401.893	1	1
402.064	1	3
402.235	1	4
402.405	1	1
402.576	1	10
402.747	1	2
402.918	1	3
403.088	1	0
403.259	1	0
403.430	1	-5
403.601	1	0
403.771	1	3
403.942	1	-3
404.113	1	21
404.284	1	1
404.454	1	14
404.625	1	10
404.796	1	7
404.967	1	4
405.137	1	7
405.308	1	0
405.479	1	8
405.649	1	4
405.820	1	-9
405.991	1	12
406.162	1	-4
406.332	1	-2
406.503	1	1
406.674	1	-5
406.845	1	7
407.015	1	-3
407.186	1	16
407.357	1	-3
407.527	1	-3
407.698	1	-11
407.869	1	0
408.040	1	0
408.210	1	2
408.381	1	5
408.552	1	9
408.722	1	0
408.893	1	5
409.064	1	1
409.235	1	4
409.405	1	2
409.576	1	6
409.747	1	-4
409.917	1	4
410.088	1	10
410.259	1	7
410.430	1	12
410.600	1	-3
410.771	1	9
410.942	1	13
411.112	1	6
411.283	1	-9
411.454	1	6
411.625	1	13
411.795	1	2
411.966	1	6
412.137	1	12
412.307	1	5
412.478	1	2
412.649	1	5
412.819	1	1
412.990	1	0
413.161	1	0
413.332	1	1
413.502	1	-5
413.673	1	6
413.844	1	1
414.014	1	0
414.185	1	0
414.356	1	-4
414.526	1	2
414.697	1	10
414.868	1	13
415.038	1	-3
415.209	1	2
415.380	1	0
415.550	1	-5
415.721	1	1
415.892	1	13
416.063	1	16
416.233	1	-5
416.404	1	4
416.575	1	-6
416.745	1	-5
416.916	1	1
417.087	1	-1
417.257	1	9
417.428	1	-4
417.599	1	5
417.769	1	4
417.940	1	-2
418.111	1	9
418.281	1	-3
418.452	1	9
418.623	1	0
418.793	1	5
418.964	1	1
419.135	1	11
419.305	1	4
419.476	1	2
419.647	1	13
419.817	1	-3
419.988	1	-1
420.159	1	-3
420.329	1	-5
420.500	1	4
420.671	1	11
420.841	1	14
421.012	1	8
421.183	1	9
421.353	1	3
421.524	1	8
421.695	1	4
421.865	1	2
422.036	1	0
422.206	1	5
422.377	1	8
422.548	1	15
422.718	1	2
422.889	1	1
423.060	1	0
423.230	1	12
423.401	1	-8
423.572	1	3
423.742	1	4
423.913	1	11
424.084	1	4
424.254	1	2
424.425	1	-1
424.595	1	4
424.766	1	11
424.937	1	-12
425.107	1	1
425.278	1	-8
425.449	1	8
425.619	1	-3
425.790	1	0
425.961	1	5
426.131	1	7
426.302	1	-1
426.472	1	2
426.643	1	4
426.814	1	16
426.984	1	4
427.155	1	1
427.326	1	5
427.496	1	-5
427.667	1	14
427.837	1	6
428.008	1	6
428.179	1	-4
428.349	1	-2
428.520	1	-8
428.691	1	5
428.861	1	-5
429.032	1	-7
429.202	1	16
429.373	1	-10
429.544	1	1
429.714	1	8
429.885	1	0
430.055	1	-3
430.226	1	1
430.397	1	10
430.567	1	9
430.738	1	-2
430.909	1	-6
431.079	1	10
431.250	1	-11
431.420	1	7
431.591	1	4
431.762	1	6
431.932	1	8
432.103	1	3
432.273	1	3
432.444	1	11
432.615	1	4
432.785	1	-2
432.956	1	5
433.126	1	1
433.297	1	2
433.468	1	-3
433.638	1	-2
433.809	1	2
433.979	1	-1
434.150	1	-6
434.320	1	-3
434.491	1	2
434.662	1	-12
434.832	1	-5
435.003	1	10
435.173	1	1
435.344	1	-4
435.515	1	3
435.685	1	6
435.856	1	1
436.026	1	5
436.197	1	-6
436.368	1	5
436.538	1	4
436.709	1	-8
436.879	1	6
437.050	1	2
437.220	1	12
437.391	1	-3
437.562	1	8
437.732	1	-5
437.903	1	-9
438.073	1	7
438.244	1	1
438.414	1	4
438.585	1	-2
438.756	1	-5
438.926	1	2
439.097	1	5
439.267	1	6
439.438	1	7
439.608	1	3
439.779	1	-10
439.949	1	-10
440.120	1	7
440.291	1	-3
440.461	1	-7
440.632	1	6
440.802	1	14
440.973	1	7
441.143	1	5
441.314	1	7
441.485	1	2
441.655	1	8
441.826	1	-10
441.996	1	9
442.167	1	-4
442.337	1	-4
442.508	1	0
442.678	1	-6
442.849	1	8
443.019	1	-2
443.190	1	-7
443.361	1	8
443.531	1	-9
443.702	1	1
443.872	1	7
444.043	1	0
444.213	1	-4
444.384	1	7
444.554	1	0
444.725	1	-2
444.895	1	1
445.066	1	-4
445.237	1	-13
445.407	1	-5
445.578	1	9
445.748	1	4
445.919	1	-4
446.089	1	15
446.260	1	11
446.430	1	3
446.601	1	-4
446.771	1	-7
446.942	1	16
447.112	1	-3
447.283	1	5
447.453	1	1
447.624	1	6
447.794	1	3
447.965	1	1
448.135	1	1
448.306	1	6
448.477	1	-6
448.647	1	5
448.818	1	8
448.988	1	-9
449.159	1	-3
449.329	1	-2
449.500	1	15
449.670	1	2
449.841	1	3
450.011	1	3
450.182	1	-6
450.352	1	9
450.523	1	-2
450.693	1	9
450.864	1	-3
451.034	1	13
451.205	1	5
451.375	1	8
451.546	1	7
451.716	1	9
451.887	1	0
452.057	1	6
452.228	1	4
452.398	1	-2
452.569	1	-3
452.739	1	1
452.910	1	0
453.080	1	9
453.251	1	6
453.421	1	2
453.592	1	2
453.762	1	3
453.933	1	11
454.103	1	1
454.274	1	-1
454.444	1	4
454.615	1	3
454.785	1	2
454.956	1	0
455.126	1	6
455.297	1	3
455.467	1	4
455.638	1	2
455.808	1	4
455.979	1	0
456.149	1	-10
456.320	1	3
456.490	1	7
456.661	1	4
456.831	1	7
457.001	1	2
457.172	1	-1
457.342	1	7
457.513	1	9
457.683	1	5
457.854	1	1
458.024	1	4
458.195	1	1
458.365	1	0
458.536	1	6
458.706	1	2
458.877	1	-3
459.047	1	2
459.218	1	6
459.388	1	9
459.559	1	9
459.729	1	1
459.899	1	11
460.070	1	6
460.240	1	4
460.411	1	0
460.581	1	4
460.752	1	6
460.922	1	8
461.093	1	12
461.263	1	5
461.434	1	4
461.604	1	-2
461.775	1	1
461.945	1	11
462.115	1	-3
462.286	1	13
462.456	1	-9
462.627	1	0
462.797	1	-1
462.968	1	-5
463.138	1	5
463.309	1	4
463.479	1	9
463.649	1	-8
463.820	1	4
463.990	1	3
464.161	1	7
464.331	1	-2
464.502	1	10
464.672	1	-6
464.843	1	2
465.013	1	-4
465.183	1	0
465.354	1	-5
465.524	1	8
465.695	1	16
465.865	1	-1
466.036	1	3
466.206	1	1
466.376	1	2
466.547	1	8
466.717	1	1
466.888	1	0
467.058	1	16
467.229	1	11
467.399	1	3
467.569	1	2
467.740	1	1
467.910	1	-1
468.081	1	1
468.251	1	3
468.422	1	1
468.592	1	5
468.762	1	-6
468.933	1	4
469.103	1	-7
469.274	1	9
469.444	1	-2
469.614	1	-3
469.785	1	5
469.955	1	3
470.126	1	8
470.296	1	3
470.467	1	0
470.637	1	5
470.807	1	-1
470.978	1	4
471.148	1	-5
471.319	1	8
471.489	1	-1
471.659	1	-2
471.830	1	12
472.000	1	4
472.171	1	5
472.341	1	8
472.511	1	9
472.682	1	6
472.852	1	8
473.023	1	-12
473.193	1	-4
473.363	1	2
473.534	1	4
473.704	1	6
473.875	1	2
474.045	1	-8
474.215	1	-5
474.386	1	11
474.556	1	-10
474.727	1	2
474.897	1	-2
475.067	1	-2
475.238	1	1
475.408	1	7
475.578	1	9
475.749	1	-7
475.919	1	2
476.090	1	-6
476.260	1	-3
476.430	1	-2
476.601	1	-1
476.771	1	0
476.942	1	-3
477.112	1	5
477.282	1	-8
477.453	1	8
477.623	1	8
477.793	1	4
477.964	1	9
478.134	1	11
478.305	1	5
478.475	1	-2
478.645	1	1
478.816	1	3
478.986	1	-4
479.156	1	5
479.327	1	0
479.497	1	-8
479.667	1	-1
479.838	1	2
480.008	1	2
480.179	1	6
480.349	1	9
480.519	1	5
480.690	1	9
480.860	1	0
481.030	1	-7
481.201	1	-2
481.371	1	6
481.541	1	7
481.712	1	-2
481.882	1	5
482.053	1	12
482.223	1	-3
482.393	1	-4
482.564	1	4
482.734	1	8
482.904	1	8
483.075	1	4
483.245	1	2
483.415	1	1
483.586	1	-8
483.756	1	5
483.926	1	3
484.097	1	-3
484.267	1	6
484.437	1	-3
484.608	1	3
484.778	1	11
484.948	1	-5
485.119	1	11
485.289	1	10
485.459	1	-2
485.630	1	-8
485.800	1	-4
485.970	1	4
486.141	1	-4
486.311	1	-2
486.481	1	0
486.652	1	16
486.822	1	4
486.992	1	-3
487.163	1	-9
487.333	1	4
487.503	1	3
487.674	1	7
487.844	1	12
488.014	1	0
488.185	1	3
488.355	1	-7
488.525	1	2
488.696	1	-7
488.866	1	1
489.036	1	2
489.207	1	14
489.377	1	3
489.547	1	-7
489.718	1	-3
489.888	1	2
490.058	1	2
490.228	1	-14
490.399	1	4
490.569	1	9
490.739	1	-4
490.910	1	-9
491.080	1	-4
491.250	1	-5
491.421	1	-6
491.591	1	-10
491.761	1	4
491.932	1	10
492.102	1	-8
492.272	1	6
492.442	1	-4
492.613	1	11
492.783	1	-12
492.953	1	5
493.124	1	1
493.294	1	4
493.464	1	-2
493.635	1	-7
493.805	1	9
493.975	1	1
494.145	1	7
494.316	1	4
494.486	1	15
494.656	1	3
494.827	1	-4
494.997	1	3
495.167	1	16
495.337	1	1
495.508	1	3
495.678	1	4
495.848	1	3
496.019	1	-1
496.189	1	-4
496.359	1	9
496.529	1	1
496.700	1	-4
496.870	1	-2
497.040	1	-1
497.211	1	14
497.381	1	-17
497.551	1	9
497.721	1	-2
497.892	1	6
498.062	1	-2
498.232	1	3
498.403	1	5
498.573	1	-5
498.743	1	8
498.913	1	-5
499.084	1	-13
499.254	1	10
499.424	1	5
499.594	1	1
499.765	1	-2
499.935	1	-2
500.105	1	-1
500.275	1	5
500.446	1	7
500.616	1	3
500.786	1	3
500.956	1	12
501.127	1	15
501.297	1	3
501.467	1	3
501.638	1	4
501.808	1	-10
501.978	1	9
502.148	1	7
502.319	1	-4
502.489	1	14
502.659	1	-2
502.829	1	4
503.000	1	7
503.170	1	0
503.340	1	5
503.510	1	5
503.681	1	-1
503.851	1	-9
504.021	1	16
504.191	1	-2
504.362	1	16
504.532	1	-5
504.702	1	4
504.872	1	-3
505.042	1	0
505.213	1	0
505.383	1	1
505.553	1	4
505.723	1	7
505.894	1	5
506.064	1	1
506.234	1	13
506.404	1	-3
506.575	1	-5
506.745	1	1
506.915	1	4
507.085	1	-10
507.256	1	3
507.426	1	3
507.596	1	0
507.766	1	1
507.936	1	5
508.107	1	6
508.277	1	0
508.447	1	10
508.617	1	19
508.788	1	9
508.958	1	15
509.128	1	-1
509.298	1	15
509.468	1	3
509.639	1	5
509.809	1	11
509.979	1	-7
510.149	1	2
510.319	1	4
510.490	1	19
510.660	1	6
510.830	1	6
511.000	1	2
511.171	1	18
511.341	1	4
511.511	1	4
511.681	1	3
511.851	1	-7
512.022	1	-2
512.192	1	11
512.362	1	0
512.532	1	2
512.702	1	-3
512.873	1	6
513.043	1	-1
513.213	1	-4
513.383	1	-9
513.553	1	-3
513.724	1	13
513.894	1	-3
514.064	1	2
514.234	1	12
514.404	1	7
514.575	1	1
514.745	1	3
514.915	1	6
515.085	1	0
515.255	1	-6
515.425	1	-10
515.596	1	7
515.766	1	-2
515.936	1	4
516.106	1	0
516.276	1	4
516.447	1	3
516.617	1	6
516.787	1	-13
516.957	1	6
517.127	1	1
517.297	1	6
517.468	1	-2
517.638	1	3
517.808	1	3
517.978	1	-4
518.148	1	6
518.319	1	-1
518.489	1	1
518.659	1	2
518.829	1	-1
518.999	1	9
519.169	1	17
519.340	1	-1
519.510	1	2
519.680	1	4
519.850	1	-8
520.020	1	-10
520.190	1	6
520.361	1	-9
520.531	1	8
520.701	1	3
520.871	1	-3
521.041	1	12
521.211	1	5
521.382	1	3
521.552	1	4
521.722	1	-2
521.892	1	-10
522.062	1	8
522.232	1	-3
522.402	1	-12
522.573	1	7
522.743	1	15
522.913	1	11
523.083	1	-4
523.253	1	4
523.423	1	-1
523.593	1	-10
523.764	1	8
523.934	1	3
524.104	1	2
524.274	1	-2
524.444	1	-4
524.614	1	7
524.784	1	3
524.955	1	3
525.125	1	4
525.295	1	-5
525.465	1	2
525.635	1	7
525.805	1	7
525.975	1	-1
526.146	1	5
526.316	1	5
526.486	1	9
526.656	1	13
526.826	1	4
526.996	1	18
527.166	1	-4
527.337	1	-6
527.507	1	-8
527.677	1	16
527.847	1	-5
528.017	1	-3
528.187	1	11
528.357	1	12
528.527	1	8
528.698	1	-6
528.868	1	4
529.038	1	4
529.208	1	-1
529.378	1	5
529.548	1	3
529.718	1	-3
529.888	1	5
530.058	1	4
530.229	1	3
530.399	1	9
530.569	1	4
530.739	1	-5
530.909	1	8
531.079	1	-1
531.249	1	3
531.419	1	12
531.589	1	-2
531.760	1	3
531.930	1	9
532.100	1	4
532.270	1	8
532.440	1	2
532.610	1	-8
532.780	1	-4
532.950	1	6
533.120	1	-1
533.290	1	-3
533.461	1	18
533.631	1	4
533.801	1	1
533.971	1	6
534.141	1	8
534.311	1	4
534.481	1	2
534.651	1	0
534.821	1	9
534.991	1	9
535.162	1	-5
535.332	1	7
535.502	1	13
535.672	1	-2
535.842	1	8
536.012	1	10
536.182	1	4
536.352	1	1
536.522	1	2
536.692	1	5
536.862	1	4
537.032	1	6
537.203	1	15
537.373	1	-12
537.543	1	5
537.713	1	11
537.883	1	12
538.053	1	11
538.223	1	4
538.393	1	8
538.563	1	2
538.733	1	-3
538.903	1	-3
539.073	1	5
539.243	1	0
539.413	1	2
539.584	1	3
539.754	1	0
539.924	1	4
540.094	1	8
540.264	1	11
540.434	1	8
540.604	1	7
540.774	1	-6
540.944	1	0
541.114	1	-6
541.284	1	-3
541.454	1	8
541.624	1	8
541.794	1	-6
541.964	1	7
542.134	1	11
542.305	1	-3
542.475	1	-3
542.645	1	7
542.815	1	12
542.985	1	-8
543.155	1	-5
543.325	1	-1
543.495	1	0
543.665	1	12
543.835	1	1
544.005	1	3
544.175	1	-1
544.345	1	1
544.515	1	4
544.685	1	8
544.855	1	8
545.025	1	-6
545.195	1	2
545.365	1	6
545.535	1	3
545.705	1	3
545.875	1	1
546.045	1	9
546.216	1	9
546.386	1	9
546.556	1	1
546.726	1	-1
546.896	1	7
547.066	1	-8
547.236	1	-6
547.406	1	12
547.576	1	-1
547.746	1	19
547.916	1	7
548.086	1	4
548.256	1	3
548.426	1	2
548.596	1	3
548.766	1	10
548.936	1	-6
549.106	1	2
549.276	1	2
549.446	1	-10
549.616	1	6
549.786	1	3
549.956	1	3
550.126	1	-1
550.296	1	7
550.466	1	0
550.636	1	6
550.806	1	7
550.976	1	-1
551.146	1	-4
551.316	1	10
551.486	1	7
551.656	1	-3
551.826	1	7
551.996	1	5
552.166	1	-8
552.336	1	5
552.506	1	-1
552.676	1	2
552.846	1	7
553.016	1	8
553.186	1	5
553.356	1	1
553.526	1	1
553.696	1	10
553.866	1	2
554.036	1	6
554.206	1	-1
554.376	1	-3
554.546	1	-7
554.716	1	-2
554.886	1	0
555.056	1	-6
555.226	1	-10
555.396	1	-2
555.566	1	-4
555.736	1	-3
555.906	1	3
556.076	1	2
556.246	1	6
556.416	1	2
556.586	1	6
556.756	1	9
556.926	1	4
557.096	1	1
557.266	1	2
557.436	1	9
557.606	1	-2
557.776	1	3
557.946	1	10
558.116	1	5
558.286	1	8
558.456	1	-1
558.626	1	10
558.796	1	-1
558.966	1	2
559.136	1	-2
559.306	1	-8
559.476	1	6
559.646	1	-1
559.816	1	7
559.986	1	1
560.155	1	7
560.325	1	-8
560.495	1	3
560.665	1	3
560.835	1	4
561.005	1	6
561.175	1	-2
561.345	1	7
561.515	1	-4
561.685	1	-1
561.855	1	10
562.025	1	2
562.195	1	7
562.365	1	6
562.535	1	-11
562.705	1	0
562.875	1	1
563.045	1	14
563.215	1	4
563.385	1	4
563.555	1	17
563.725	1	4
563.895	1	0
564.064	1	7
564.234	1	-2
564.404	1	-2
564.574	1	-7
564.744	1	1
564.914	1	-13
565.084	1	-5
565.254	1	2
565.424	1	0
565.594	1	-1
565.764	1	7
565.934	1	7
566.104	1	-2
566.274	1	6
566.444	1	6
566.614	1	1
566.783	1	2
566.953	1	-1
567.123	1	25
567.293	1	3
567.463	1	-5
567.633	1	0
567.803	1	3
567.973	1	-7
568.143	1	-4
568.313	1	-1
568.483	1	-2
568.653	1	-4
568.823	1	8
568.993	1	2
569.162	1	9
569.332	1	-6
569.502	1	-4
569.672	1	1
569.842	1	-4
570.012	1	2
570.182	1	0
570.352	1	4
570.522	1	2
570.692	1	7
570.862	1	3
571.031	1	2
571.201	1	7
571.371	1	-5
571.541	1	1
571.711	1	11
571.881	1	7
572.051	1	9
572.221	1	-3
572.391	1	7
572.561	1	-7
572.731	1	-6
572.900	1	5
573.070	1	9
573.240	1	-1
573.410	1	3
573.580	1	4
573.750	1	16
573.920	1	-2
574.090	1	8
574.260	1	-1
574.430	1	-1
574.599	1	-4
574.769	1	5
574.939	1	0
575.109	1	12
575.279	1	1
575.449	1	8
575.619	1	2
575.789	1	7
575.959	1	-7
576.128	1	3
576.298	1	-1
576.468	1	-5
576.638	1	2
576.808	1	-7
576.978	1	4
577.148	1	6
577.318	1	10
577.487	1	1
577.657	1	-7
577.827	1	9
577.997	1	-6
578.167	1	4
578.337	1	5
578.507	1	-5
578.677	1	-3
578.846	1	-6
579.016	1	5
579.186	1	-5
579.356	1	2
579.526	1	3
579.696	1	4
579.866	1	6
580.036	1	-3
580.205	1	1
580.375	1	6
580.545	1	2
580.715	1	8
580.885	1	-2
581.055	1	2
581.225	1	1
581.394	1	-3
581.564	1	8
581.734	1	-2
581.904	1	5
582.074	1	5
582.244	1	7
582.414	1	4
582.583	1	-12
582.753	1	1
582.923	1	7
583.093	1	-2
583.263	1	6
583.433	1	5
583.603	1	6
583.772	1	-4
583.942	1	8
584.112	1	9
584.282	1	3
584.452	1	-1
584.622	1	1
584.791	1	-5
584.961	1	6
585.131	1	-3
585.301	1	7
585.471	1	10
585.641	1	8
585.811	1	-4
585.980	1	-1
586.150	1	4
586.320	1	-10
586.490	1	-4
586.660	1	0
586.830	1	-10
586.999	1	2
587.169	1	-1
587.339	1	0
587.509	1	-5
587.679	1	5
587.849	1	9
588.018	1	2
588.188	1	-4
588.358	1	6
588.528	1	-2
588.698	1	-2
588.867	1	7
589.037	1	1
589.207	1	-2
589.377	1	4
589.547	1	-8
589.717	1	11
589.886	1	-5
590.056	1	-1
590.226	1	12
590.396	1	10
590.566	1	-7
590.735	1	13
590.905	1	7
591.075	1	-7
591.245	1	-5
591.415	1	0
591.585	1	-2
591.754	1	5
591.924	1	8
592.094	1	6
592.264	1	2
592.434	1	0
592.603	1	-2
592.773	1	-2
592.943	1	-5
593.113	1	-3
593.283	1	1
593.452	1	-10
593.622	1	4
593.792	1	0
593.962	1	10
594.132	1	-6
594.301	1	14
594.471	1	2
594.641	1	-11
594.811	1	-2
594.981	1	-1
595.150	1	0
595.320	1	3
595.490	1	-10
595.660	1	2
595.829	1	2
595.999	1	-1
596.169	1	-3
596.339	1	9
596.509	1	8
596.678	1	3
596.848	1	6
597.018	1	1
597.188	1	7
597.358	1	1
597.527	1	-3
597.697	1	-3
597.867	1	1
598.037	1	2
598.206	1	-3
598.376	1	6
598.546	1	-1
598.716	1	-2
598.885	1	4
599.055	1	11
599.225	1	-3
599.395	1	5
599.565	1	3
599.734	1	3
599.904	1	-6
600.074	1	1
600.244	1	3
600.413	1	3
600.583	1	1
600.753	1	7
600.923	1	16
601.092	1	-10
601.262	1	-1
601.432	1	-5
601.602	1	1
601.771	1	11
601.941	1	8
602.111	1	1
602.281	1	-6
602.451	1	5
602.620	1	1
602.790	1	-5
602.960	1	-7
603.130	1	8
603.299	1	3
603.469	1	-3
603.639	1	13
603.809	1	-1
603.978	1	-3
604.148	1	0
604.318	1	4
604.487	1	-1
604.657	1	-6
604.827	1	0
604.997	1	2
605.166	1	-5
605.336	1	-4
605.506	1	7
605.676	1	-5
605.845	1	3
606.015	1	-4
606.185	1	-9
606.355	1	7
606.524	1	0
606.694	1	18
606.864	1	0
607.034	1	-2
607.203	1	16
607.373	1	8
607.543	1	-3
607.712	1	15
607.882	1	-5
608.052	1	9
608.222	1	1
608.391	1	4
608.561	1	3
608.731	1	-8
608.901	1	4
609.070	1	-2
609.240	1	0
609.410	1	8
609.579	1	-1
609.749	1	-5
609.919	1	0
610.089	1	-4
610.258	1	9
610.428	1	1
610.598	1	13
610.767	1	1
610.937	1	-5
611.107	1	8
611.277	1	-3
611.446	1	0
611.616	1	6
611.786	1	14
611.955	1	9
612.125	1	5
612.295	1	1
612.465	1	-4
612.634	1	6
612.804	1	-3
612.974	1	9
613.143	1	-9
613.313	1	6
613.483	1	8
613.652	1	-7
613.822	1	4
613.992	1	12
614.162	1	5
614.331	1	-3
614.501	1	1
614.671	1	3
614.840	1	-5
615.010	1	-8
615.180	1	-2
615.349	1	-5
615.519	1	8
615.689	1	1
615.858	1	4
616.028	1	5
616.198	1	13
616.368	1	-5
616.537	1	-6
616.707	1	-3
616.877	1	-1
617.046	1	-1
617.216	1	-2
617.386	1	-4
617.555	1	-8
617.725	1	8
617.895	1	1
618.064	1	0
618.234	1	4
618.404	1	7
618.573	1	-7
618.743	1	9
618.913	1	-4
619.082	1	2
619.252	1	7
619.422	1	2
619.591	1	-5
619.761	1	3
619.931	1	8
620.100	1	3
620.270	1	5
620.440	1	7
620.609	1	0
620.779	1	-9
620.949	1	8
621.118	1	-5
621.288	1	5
621.458	1	11
621.627	1	-7
621.797	1	8
621.967	1	-4
622.136	1	5
622.306	1	8
622.476	1	3
622.645	1	7
622.815	1	0
622.985	1	1
623.154	1	5
623.324	1	5
623.494	1	-1
623.663	1	1
623.833	1	2
624.002	1	7
624.172	1	16
624.342	1	-11
624.511	1	-5
624.681	1	-3
624.851	1	-6
625.020	1	2
625.190	1	8
625.360	1	-4
625.529	1	3
625.699	1	-4
625.869	1	7
626.038	1	1
626.208	1	3
626.377	1	17
626.547	1	3
626.717	1	-4
626.886	1	-5
627.056	1	-5
627.226	1	2
627.395	1	3
627.565	1	19
627.735	1	3
627.904	1	-11
628.074	1	9
628.243	1	-7
628.413	1	4
628.583	1	-2
628.752	1	6
628.922	1	0
629.091	1	9
629.261	1	0
629.431	1	-8
629.600	1	3
629.770	1	-1
629.940	1	0
630.109	1	3
630.279	1	-4
630.448	1	0
630.618	1	-1
630.788	1	1
630.957	1	-6
631.127	1	12
631.297	1	-5
631.466	1	5
631.636	1	1
631.805	1	-3
631.975	1	3
632.145	1	-4
632.314	1	7
632.484	1	6
632.653	1	-11
632.823	1	4
632.993	1	9
633.162	1	-1
633.332	1	2
633.501	1	6
633.671	1	0
633.841	1	1
634.010	1	1
634.180	1	6
634.349	1	6
634.519	1	17
634.689	1	11
634.858	1	11
635.028	1	2
635.197	1	-3
635.367	1	6
635.537	1	-5
635.706	1	-7
635.876	1	2
636.045	1	0
636.215	1	-3
636.384	1	14
636.554	1	11
636.724	1	3
636.893	1	-5
637.063	1	12
637.232	1	5
637.402	1	5
637.572	1	2
637.741	1	23
637.911	1	1
638.080	1	5
638.250	1	1
638.419	1	12
638.589	1	6
638.759	1	5
638.928	1	-2
639.098	1	-3
639.267	1	10
639.437	1	-9
639.606	1	13
639.776	1	-8
639.946	1	2
640.115	1	11
640.285	1	3
640.454	1	4
640.624	1	5
640.793	1	5
640.963	1	4
641.132	1	5
641.302	1	-6
641.472	1	4
641.641	1	-4
641.811	1	1
641.980	1	2
642.150	1	-6
642.319	1	-1
642.489	1	-2
642.659	1	-12
642.828	1	-4
642.998	1	0
643.167	1	12
643.337	1	12
643.506	1	-9
643.676	1	4
643.845	1	5
644.015	1	-3
644.184	1	3
644.354	1	-5
644.524	1	-8
644.693	1	1
644.863	1	-7
645.032	1	1
645.202	1	7
645.371	1	-1
645.541	1	-6
645.710	1	-4
645.880	1	1
646.049	1	16
646.219	1	3
646.388	1	-3
646.558	1	0
646.728	1	7
646.897	1	-2
647.067	1	-5
647.236	1	-2
647.406	1	2
647.575	1	6
647.745	1	-3
647.914	1	-7
648.084	1	3
648.253	1	8
648.423	1	-8
648.592	1	9
648.762	1	-2
648.931	1	4
649.101	1	2
649.270	1	5
649.440	1	8
649.610	1	15
649.779	1	-4
649.949	1	4
650.118	1	-2
650.288	1	6
650.457	1	1
650.627	1	2
650.796	1	3
650.966	1	-5
651.135	1	11
651.305	1	-4
651.474	1	0
651.644	1	2
651.813	1	9
651.983	1	0
652.152	1	0
652.322	1	10
652.491	1	-4
652.661	1	8
652.830	1	11
653.000	1	-6
653.169	1	5
653.339	1	5
653.508	1	-4
653.678	1	3
653.847	1	2
654.017	1	-3
654.186	1	4
654.356	1	5
654.525	1	-1
654.695	1	4
654.864	1	4
655.034	1	2
655.203	1	7
655.373	1	-3
655.542	1	12
655.712	1	-6
655.881	1	7
656.051	1	-1
656.220	1	1
656.390	1	2
656.559	1	-10
656.729	1	7
656.898	1	5
657.068	1	-7
657.237	1	10
657.406	1	8
657.576	1	0
657.745	1	-2
657.915	1	6
658.084	1	-2
658.254	1	13
658.423	1	-4
658.593	1	-13
658.762	1	-2
658.932	1	-9
659.101	1	-3
659.271	1	7
659.440	1	6
659.610	1	-6
659.779	1	-2
659.949	1	-9
660.118	1	6
660.288	1	0
660.457	1	6
660.626	1	3
660.796	1	2
660.965	1	-2
661.135	1	-1
661.304	1	4
661.474	1	6
661.643	1	-7
661.813	1	-1
661.982	1	-3
662.152	1	-4
662.321	1	1
662.491	1	1
662.660	1	7
662.829	1	-2
662.999	1	0
663.168	1	-1
663.338	1	1
663.507	1	-4
663.677	1	-6
663.846	1	9
664.016	1	2
664.185	1	-2
664.354	1	16
664.524	1	-3
664.693	1	0
664.863	1	-7
665.032	1	2
665.202	1	-12
665.371	1	5
665.541	1	3
665.710	1	2
665.879	1	7
666.049	1	-4
666.218	1	-2
666.388	1	4
666.557	1	-4
666.727	1	-9
666.896	1	1
667.065	1	5
667.235	1	-1
667.404	1	-7
667.574	1	-5
667.743	1	-3
667.913	1	1
668.082	1	-2
668.251	1	0
668.421	1	-3
668.590	1	-6
668.760	1	2
668.929	1	3
669.099	1	0
669.268	1	-4
669.437	1	8
669.607	1	0
669.776	1	2
669.946	1	2
670.115	1	3
670.285	1	7
670.454	1	0
670.623	1	0
670.793	1	2
670.962	1	-2
671.132	1	-4
671.301	1	0
671.470	1	-2
671.640	1	-21
671.809	1	-4
671.979	1	4
672.148	1	11
672.317	1	2
672.487	1	-3
672.656	1	-4
672.826	1	-6
672.995	1	-4
673.164	1	2
673.334	1	5
673.503	1	7
673.673	1	21
673.842	1	1
674.011	1	3
674.181	1	-9
674.350	1	-6
674.520	1	-6
674.689	1	-4
674.858	1	-5
675.028	1	7
675.197	1	1
675.367	1	1
675.536	1	4
675.705	1	-1
675.875	1	4
676.044	1	-3
676.214	1	-3
676.383	1	2
676.552	1	-4
676.722	1	-7
676.891	1	-13
677.060	1	2
677.230	1	12
677.399	1	3
677.569	1	-9
677.738	1	2
677.907	1	-6
678.077	1	0
678.246	1	-4
678.416	1	1
678.585	1	6
678.754	1	1
678.924	1	-10
679.093	1	-4
679.262	1	6
679.432	1	-6
679.601	1	1
679.771	1	-7
679.940	1	-5
680.109	1	3
680.279	1	2
680.448	1	-6
680.617	1	-1
680.787	1	7
680.956	1	-9
681.125	1	0
681.295	1	10
681.464	1	-10
681.634	1	4
681.803	1	0
681.972	1	-11
682.142	1	12
682.311	1	3
682.480	1	-4
682.650	1	3
682.819	1	-1
682.988	1	-9
683.158	1	-6
683.327	1	7
683.496	1	0
683.666	1	2
683.835	1	1
684.004	1	4
684.174	1	-3
684.343	1	-3
684.512	1	1
684.682	1	2
684.851	1	-8
685.021	1	10
685.190	1	3
685.359	1	-5
685.529	1	6
685.698	1	3
685.867	1	-4
686.037	1	-2
686.206	1	7
686.375	1	3
686.545	1	5
686.714	1	2
686.883	1	-5
687.053	1	6
687.222	1	3
687.391	1	-6
687.561	1	-3
687.730	1	4
687.899	1	2
688.069	1	4
688.238	1	1
688.407	1	3
688.577	1	4
688.746	1	4
