340.368	1	0
340.539	1	9
340.710	1	2
340.881	1	11
341.052	1	3
341.223	1	1
341.394	1	-6
341.565	1	0
341.737	1	15
341.908	1	8
342.079	1	0
342.250	1	11
342.421	1	2
342.592	1	0
342.763	1	0
342.934	1	2
343.105	1	15
343.276	1	-6
343.447	1	12
343.618	1	7
343.789	1	2
343.960	1	-2
344.131	1	0
344.302	1	-3
344.473	1	5
344.644	1	1
344.815	1	7
344.986	1	-2
345.157	1	13
345.328	1	-2
345.499	1	6
345.670	1	13
345.841	1	11
346.012	1	8
346.183	1	4
346.354	1	-5
346.526	1	23
346.697	1	0
346.868	1	10
347.039	1	-2
347.210	1	5
347.381	1	17
347.552	1	8
347.723	1	7
347.894	1	11
348.065	1	2
348.236	1	8
348.407	1	2
348.578	1	9
348.749	1	11
348.920	1	16
349.091	1	11
349.262	1	8
349.433	1	0
349.604	1	16
349.775	1	10
349.946	1	11
350.117	1	14
350.288	1	10
350.459	1	12
350.630	1	-3
350.801	1	9
350.972	1	6
351.143	1	3
351.314	1	6
351.485	1	6
351.656	1	7
351.827	1	3
351.998	1	1
352.169	1	14
352.340	1	10
352.511	1	12
352.682	1	5
352.853	1	-6
353.024	1	0
353.195	1	12
353.366	1	17
353.537	1	6
353.708	1	18
353.879	1	16
354.050	1	9
354.221	1	0
354.392	1	17
354.563	1	17
354.734	1	0
354.905	1	18
355.076	1	8
355.247	1	3
355.418	1	1
355.589	1	17
355.760	1	13
355.931	1	23
356.102	1	14
356.273	1	10
356.444	1	11
356.615	1	15
356.785	1	26
356.956	1	21
357.127	1	18
357.298	1	16
357.469	1	10
357.640	1	27
357.811	1	23
357.982	1	11
358.153	1	27
358.324	1	18
358.495	1	35
358.666	1	18
358.837	1	24
359.008	1	23
359.179	1	30
359.350	1	26
359.521	1	17
359.692	1	29
359.863	1	21
360.034	1	28
360.205	1	28
360.376	1	25
360.547	1	40
360.718	1	28
360.889	1	31
361.060	1	54
361.231	1	49
361.401	1	45
361.572	1	45
361.743	1	61
361.914	1	59
362.085	1	55
362.256	1	73
362.427	1	54
362.598	1	77
362.769	1	79
362.940	1	80
363.111	1	85
363.282	1	92
363.453	1	95
363.624	1	100
363.795	1	126
363.966	1	117
364.137	1	108
364.308	1	116
364.478	1	136
364.649	1	147
364.820	1	129
364.991	1	150
365.162	1	174
365.333	1	156
365.504	1	156
365.675	1	183
365.846	1	175
366.017	1	197
366.188	1	194
366.359	1	195
366.530	1	209
366.701	1	197
366.871	1	222
367.042	1	218
367.213	1	212
367.384	1	211
367.555	1	194
367.726	1	213
367.897	1	194
368.068	1	192
368.239	1	201
368.410	1	199
368.581	1	180
368.752	1	179
368.923	1	173
369.093	1	165
369.264	1	154
369.435	1	162
369.606	1	163
369.777	1	144
369.948	1	136
370.119	1	150
370.290	1	132
370.461	1	126
370.632	1	132
370.803	1	134
370.973	1	127
371.144	1	133
371.315	1	127
371.486	1	112
371.657	1	113
371.828	1	114
371.999	1	101
372.170	1	111
372.341	1	100
372.512	1	99
372.682	1	83
372.853	1	91
373.024	1	102
373.195	1	87
373.366	1	87
373.537	1	94
373.708	1	78
373.879	1	86
374.050	1	84
374.220	1	79
374.391	1	82
374.562	1	75
374.733	1	83
374.904	1	79
375.075	1	80
375.246	1	67
375.417	1	74
375.588	1	77
375.758	1	72
375.929	1	69
376.100	1	75
376.271	1	66
376.442	1	62
376.613	1	62
376.784	1	60
376.955	1	49
377.125	1	60
377.296	1	66
377.467	1	59
377.638	1	56
377.809	1	57
377.980	1	60
378.151	1	59
378.321	1	50
378.492	1	49
378.663	1	45
378.834	1	56
379.005	1	52
379.176	1	54
379.347	1	53
379.518	1	46
379.688	1	56
379.859	1	57
380.030	1	40
380.201	1	52
380.372	1	64
380.543	1	55
380.714	1	67
380.884	1	57
381.055	1	68
381.226	1	69
381.397	1	66
381.568	1	73
381.739	1	89
381.910	1	79
382.080	1	71
382.251	1	88
382.422	1	102
382.593	1	106
382.764	1	100
382.935	1	111
383.105	1	111
383.276	1	117
383.447	1	138
383.618	1	140
383.789	1	132
383.960	1	152
384.130	1	143
384.301	1	157
384.472	1	176
384.643	1	195
384.814	1	194
384.985	1	190
385.156	1	201
385.326	1	215
385.497	1	225
385.668	1	225
385.839	1	224
386.010	1	238
386.180	1	238
386.351	1	240
386.522	1	260
386.693	1	244
386.864	1	269
387.035	1	245
387.205	1	244
387.376	1	272
387.547	1	252
387.718	1	255
387.889	1	257
388.060	1	243
388.230	1	259
388.401	1	261
388.572	1	247
388.743	1	260
388.914	1	251
389.084	1	262
389.255	1	249
389.426	1	242
389.597	1	242
389.768	1	237
389.939	1	246
390.109	1	235
390.280	1	253
390.451	1	229
390.622	1	230
390.793	1	249
390.963	1	230
391.134	1	210
391.305	1	222
391.476	1	232
391.647	1	229
391.817	1	216
391.988	1	210
392.159	1	217
392.330	1	210
392.501	1	219
392.671	1	205
392.842	1	204
393.013	1	220
393.184	1	207
393.355	1	210
393.525	1	196
393.696	1	194
393.867	1	191
394.038	1	194
394.208	1	199
394.379	1	199
394.550	1	198
394.721	1	200
394.892	1	211
395.062	1	194
395.233	1	223
395.404	1	212
395.575	1	208
395.746	1	203
395.916	1	213
396.087	1	212
396.258	1	214
396.429	1	216
396.599	1	228
396.770	1	229
396.941	1	247
397.112	1	230
397.283	1	238
397.453	1	227
397.624	1	235
397.795	1	240
397.966	1	238
398.136	1	236
398.307	1	212
398.478	1	236
398.649	1	246
398.819	1	229
398.990	1	237
399.161	1	221
399.332	1	216
399.503	1	225
399.673	1	212
399.844	1	222
400.015	1	192
400.186	1	219
400.356	1	201
400.527	1	195
400.698	1	200
400.869	1	210
401.039	1	187
401.210	1	192
401.381	1	184
401.552	1	194
401.722	1	181
401.893	1	167
402.064	1	177
402.235	1	186
402.405	1	158
402.576	1	172
402.747	1	166
402.918	1	164
403.088	1	159
403.259	1	151
403.430	1	148
403.601	1	157
403.771	1	153
403.942	1	165
404.113	1	165
404.284	1	149
404.454	1	146
404.625	1	146
404.796	1	139
404.967	1	157
405.137	1	152
405.308	1	138
405.479	1	153
405.649	1	142
405.820	1	144
405.991	1	159
406.162	1	134
406.332	1	143
406.503	1	146
406.674	1	140
406.845	1	140
407.015	1	136
407.186	1	142
407.357	1	133
407.527	1	131
407.698	1	139
407.869	1	125
408.040	1	133
408.210	1	134
408.381	1	124
408.552	1	138
408.722	1	135
408.893	1	128
409.064	1	127
409.235	1	119
409.405	1	121
409.576	1	121
409.747	1	127
409.917	1	131
410.088	1	131
410.259	1	119
410.430	1	128
410.600	1	124
410.771	1	122
410.942	1	115
411.112	1	122
411.283	1	108
411.454	1	142
411.625	1	124
411.795	1	123
411.966	1	119
412.137	1	113
412.307	1	115
412.478	1	115
412.649	1	111
412.819	1	106
412.990	1	109
413.161	1	93
413.332	1	110
413.502	1	97
413.673	1	95
413.844	1	111
414.014	1	92
414.185	1	96
414.356	1	88
414.526	1	99
414.697	1	90
414.868	1	89
415.038	1	96
415.209	1	78
415.380	1	93
415.550	1	83
415.721	1	86
415.892	1	84
416.063	1	90
416.233	1	83
416.404	1	88
416.575	1	74
416.745	1	83
416.916	1	82
417.087	1	79
417.257	1	94
417.428	1	80
417.599	1	100
417.769	1	85
417.940	1	70
418.111	1	76
418.281	1	89
418.452	1	82
418.623	1	83
418.793	1	82
418.964	1	84
419.135	1	90
419.305	1	80
419.476	1	93
419.647	1	82
419.817	1	82
419.988	1	68
420.159	1	71
420.329	1	86
420.500	1	85
420.671	1	76
420.841	1	88
421.012	1	75
421.183	1	71
421.353	1	70
421.524	1	67
421.695	1	78
421.865	1	73
422.036	1	66
422.206	1	67
422.377	1	63
422.548	1	70
422.718	1	70
422.889	1	61
423.060	1	52
423.230	1	68
423.401	1	71
423.572	1	60
423.742	1	55
423.913	1	60
424.084	1	55
424.254	1	57
424.425	1	55
424.595	1	49
424.766	1	57
424.937	1	49
425.107	1	59
425.278	1	47
425.449	1	58
425.619	1	52
425.790	1	59
425.961	1	61
426.131	1	61
426.302	1	54
426.472	1	44
426.643	1	52
426.814	1	69
426.984	1	49
427.155	1	47
427.326	1	61
427.496	1	60
427.667	1	61
427.837	1	52
428.008	1	54
428.179	1	44
428.349	1	46
428.520	1	54
428.691	1	59
428.861	1	54
429.032	1	45
429.202	1	55
429.373	1	41
429.544	1	49
429.714	1	52
429.885	1	36
430.055	1	40
430.226	1	45
430.397	1	54
430.567	1	62
430.738	1	39
430.909	1	45
431.079	1	44
431.250	1	40
431.420	1	54
431.591	1	52
431.762	1	54
431.932	1	51
432.103	1	49
432.273	1	36
432.444	1	50
432.615	1	40
432.785	1	43
432.956	1	39
433.126	1	41
433.297	1	52
433.468	1	39
433.638	1	51
433.809	1	47
433.979	1	37
434.150	1	34
434.320	1	36
434.491	1	40
434.662	1	34
434.832	1	38
435.003	1	49
435.173	1	43
435.344	1	44
435.515	1	39
435.685	1	46
435.856	1	43
436.026	1	34
436.197	1	35
436.368	1	36
436.538	1	34
436.709	1	30
436.879	1	42
437.050	1	31
437.220	1	37
437.391	1	32
437.562	1	41
437.732	1	36
437.903	1	29
438.073	1	53
438.244	1	37
438.414	1	32
438.585	1	43
438.756	1	44
438.926	1	31
439.097	1	42
439.267	1	31
439.438	1	38
439.608	1	34
439.779	1	30
439.949	1	17
440.120	1	31
440.291	1	23
440.461	1	18
440.632	1	29
440.802	1	31
440.973	1	28
441.143	1	30
441.314	1	28
441.485	1	18
441.655	1	38
441.826	1	25
441.996	1	26
442.167	1	22
442.337	1	27
442.508	1	26
442.678	1	20
442.849	1	32
443.019	1	27
443.190	1	24
443.361	1	33
443.531	1	22
443.702	1	30
443.872	1	26
444.043	1	30
444.213	1	16
444.384	1	27
444.554	1	22
444.725	1	16
444.895	1	26
445.066	1	14
445.237	1	12
445.407	1	25
445.578	1	35
445.748	1	12
445.919	1	27
446.089	1	42
446.260	1	20
446.430	1	12
446.601	1	14
446.771	1	25
446.942	1	31
447.112	1	17
447.283	1	26
447.453	1	10
447.624	1	24
447.794	1	21
447.965	1	26
448.135	1	27
448.306	1	25
448.477	1	20
448.647	1	32
448.818	1	24
448.988	1	11
449.159	1	14
449.329	1	21
449.500	1	24
449.670	1	32
449.841	1	19
450.011	1	13
450.182	1	16
450.352	1	36
450.523	1	16
450.693	1	26
450.864	1	16
451.034	1	25
451.205	1	19
451.375	1	21
451.546	1	23
451.716	1	18
451.887	1	19
452.057	1	32
452.228	1	16
452.398	1	25
452.569	1	17
452.739	1	24
452.910	1	13
453.080	1	31
453.251	1	13
453.421	1	14
453.592	1	13
453.762	1	34
453.933	1	23
454.103	1	23
454.274	1	14
454.444	1	35
454.615	1	32
454.785	1	11
454.956	1	18
455.126	1	17
455.297	1	13
455.467	1	29
455.638	1	13
455.808	1	20
455.979	1	30
456.149	1	18
456.320	1	11
456.490	1	20
456.661	1	17
456.831	1	27
457.001	1	19
457.172	1	18
457.342	1	30
457.513	1	27
457.683	1	17
457.854	1	10
458.024	1	11
458.195	1	15
458.365	1	17
458.536	1	18
458.706	1	21
458.877	1	8
459.047	1	15
459.218	1	19
459.388	1	20
459.559	1	19
459.729	1	14
459.899	1	23
460.070	1	21
460.240	1	14
460.411	1	17
460.581	1	26
460.752	1	21
460.922	1	12
461.093	1	23
461.263	1	25
461.434	1	25
461.604	1	12
461.775	1	14
461.945	1	29
462.115	1	4
462.286	1	24
462.456	1	11
462.627	1	14
462.797	1	8
462.968	1	8
463.138	1	30
463.309	1	8
463.479	1	23
463.649	1	13
463.820	1	18
463.990	1	16
464.161	1	24
464.331	1	27
464.502	1	16
464.672	1	13
464.843	1	20
465.013	1	6
465.183	1	19
465.354	1	20
465.524	1	28
465.695	1	23
465.865	1	9
466.036	1	25
466.206	1	12
466.376	1	13
466.547	1	20
466.717	1	9
466.888	1	10
467.058	1	30
467.229	1	17
467.399	1	12
467.569	1	15
467.740	1	14
467.910	1	14
468.081	1	19
468.251	1	14
468.422	1	21
468.592	1	18
468.762	1	12
468.933	1	29
469.103	1	10
469.274	1	20
469.444	1	19
469.614	1	8
469.785	1	15
469.955	1	21
470.126	1	21
470.296	1	12
470.467	1	2
470.637	1	31
470.807	1	5
470.978	1	19
471.148	1	17
471.319	1	33
471.489	1	15
471.659	1	14
471.830	1	36
472.000	1	17
472.171	1	18
472.341	1	15
472.511	1	24
472.682	1	19
472.852	1	13
473.023	1	10
473.193	1	9
473.363	1	26
473.534	1	8
473.704	1	13
473.875	1	19
474.045	1	15
474.215	1	15
474.386	1	20
474.556	1	8
474.727	1	17
474.897	1	12
475.067	1	18
475.238	1	16
475.408	1	9
475.578	1	21
475.749	1	14
475.919	1	19
476.090	1	21
476.260	1	23
476.430	1	22
476.601	1	14
476.771	1	22
476.942	1	19
477.112	1	14
477.282	1	12
477.453	1	20
477.623	1	27
477.793	1	33
477.964	1	18
478.134	1	21
478.305	1	15
478.475	1	16
478.645	1	12
478.816	1	9
478.986	1	17
479.156	1	16
479.327	1	6
479.497	1	21
479.667	1	12
479.838	1	25
480.008	1	30
480.179	1	17
480.349	1	9
480.519	1	17
480.690	1	15
480.860	1	18
481.030	1	17
481.201	1	15
481.371	1	12
481.541	1	18
481.712	1	19
481.882	1	26
482.053	1	24
482.223	1	10
482.393	1	13
482.564	1	7
482.734	1	19
482.904	1	16
483.075	1	25
483.245	1	17
483.415	1	21
483.586	1	24
483.756	1	22
483.926	1	20
484.097	1	8
484.267	1	18
484.437	1	7
484.608	1	22
484.778	1	23
484.948	1	10
485.119	1	24
485.289	1	27
485.459	1	23
485.630	1	22
485.800	1	12
485.970	1	21
486.141	1	16
486.311	1	17
486.481	1	21
486.652	1	25
486.822	1	26
486.992	1	26
487.163	1	16
487.333	1	21
487.503	1	14
487.674	1	27
487.844	1	26
488.014	1	27
488.185	1	16
488.355	1	15
488.525	1	21
488.696	1	16
488.866	1	27
489.036	1	37
489.207	1	32
489.377	1	24
489.547	1	34
489.718	1	14
489.888	1	25
490.058	1	24
490.228	1	22
490.399	1	38
490.569	1	34
490.739	1	32
490.910	1	25
491.080	1	29
491.250	1	28
491.421	1	32
491.591	1	23
491.761	1	33
491.932	1	27
492.102	1	26
492.272	1	24
492.442	1	33
492.613	1	33
492.783	1	25
492.953	1	33
493.124	1	22
493.294	1	30
493.464	1	25
493.635	1	26
493.805	1	29
493.975	1	37
494.145	1	30
494.316	1	41
494.486	1	39
494.656	1	28
494.827	1	37
494.997	1	35
495.167	1	31
495.337	1	44
495.508	1	30
495.678	1	40
495.848	1	44
496.019	1	37
496.189	1	35
496.359	1	39
496.529	1	37
496.700	1	31
496.870	1	42
497.040	1	36
497.211	1	43
497.381	1	27
497.551	1	52
497.721	1	45
497.892	1	48
498.062	1	42
498.232	1	39
498.403	1	47
498.573	1	30
498.743	1	43
498.913	1	44
499.084	1	38
499.254	1	42
499.424	1	51
499.594	1	51
499.765	1	50
499.935	1	43
500.105	1	54
500.275	1	45
500.446	1	51
500.616	1	48
500.786	1	51
500.956	1	53
501.127	1	60
501.297	1	61
501.467	1	53
501.638	1	50
501.808	1	41
501.978	1	63
502.148	1	57
502.319	1	52
502.489	1	57
502.659	1	58
502.829	1	52
503.000	1	73
503.170	1	63
503.340	1	54
503.510	1	61
503.681	1	55
503.851	1	49
504.021	1	70
504.191	1	58
504.362	1	72
504.532	1	66
504.702	1	62
504.872	1	47
505.042	1	74
505.213	1	65
505.383	1	65
505.553	1	62
505.723	1	63
505.894	1	74
506.064	1	71
506.234	1	75
506.404	1	63
506.575	1	65
506.745	1	59
506.915	1	69
507.085	1	72
507.256	1	67
507.426	1	71
507.596	1	70
507.766	1	69
507.936	1	74
508.107	1	75
508.277	1	67
508.447	1	81
508.617	1	84
508.788	1	71
508.958	1	84
509.128	1	77
509.298	1	86
509.468	1	82
509.639	1	85
509.809	1	80
509.979	1	75
510.149	1	70
510.319	1	82
510.490	1	82
510.660	1	85
510.830	1	89
511.000	1	81
511.171	1	85
511.341	1	79
511.511	1	74
511.681	1	78
511.851	1	76
512.022	1	84
512.192	1	91
512.362	1	85
512.532	1	80
512.702	1	80
512.873	1	96
513.043	1	95
513.213	1	91
513.383	1	78
513.553	1	85
513.724	1	88
513.894	1	96
514.064	1	85
514.234	1	98
514.404	1	93
514.575	1	89
514.745	1	89
514.915	1	91
515.085	1	84
515.255	1	71
515.425	1	85
515.596	1	81
515.766	1	83
515.936	1	100
516.106	1	97
516.276	1	95
516.447	1	95
516.617	1	98
516.787	1	98
516.957	1	98
517.127	1	108
517.297	1	95
517.468	1	104
517.638	1	100
517.808	1	95
517.978	1	103
518.148	1	108
518.319	1	90
518.489	1	106
518.659	1	108
518.829	1	103
518.999	1	111
519.169	1	124
519.340	1	97
519.510	1	114
519.680	1	100
519.850	1	103
520.020	1	106
520.190	1	111
520.361	1	98
520.531	1	121
520.701	1	120
520.871	1	113
521.041	1	116
521.211	1	114
521.382	1	96
521.552	1	113
521.722	1	99
521.892	1	114
522.062	1	109
522.232	1	114
522.402	1	108
522.573	1	113
522.743	1	117
522.913	1	122
523.083	1	102
523.253	1	109
523.423	1	105
523.593	1	102
523.764	1	125
523.934	1	121
524.104	1	121
524.274	1	106
524.444	1	109
524.614	1	112
524.784	1	120
524.955	1	114
525.125	1	113
525.295	1	111
525.465	1	119
525.635	1	122
525.805	1	119
525.975	1	114
526.146	1	112
526.316	1	101
526.486	1	116
526.656	1	127
526.826	1	117
526.996	1	137
527.166	1	112
527.337	1	118
527.507	1	108
527.677	1	129
527.847	1	117
528.017	1	108
528.187	1	120
528.357	1	124
528.527	1	123
528.698	1	120
528.868	1	122
529.038	1	123
529.208	1	114
529.378	1	120
529.548	1	135
529.718	1	124
529.888	1	121
530.058	1	123
530.229	1	129
530.399	1	129
530.569	1	133
530.739	1	129
530.909	1	127
531.079	1	133
531.249	1	124
531.419	1	126
531.589	1	120
531.760	1	135
531.930	1	127
532.100	1	123
532.270	1	130
532.440	1	113
532.610	1	126
532.780	1	119
532.950	1	128
533.120	1	126
533.290	1	131
533.461	1	133
533.631	1	125
533.801	1	119
533.971	1	132
534.141	1	135
534.311	1	135
534.481	1	116
534.651	1	128
534.821	1	128
534.991	1	133
535.162	1	113
535.332	1	122
535.502	1	120
535.672	1	109
535.842	1	133
536.012	1	126
536.182	1	131
536.352	1	122
536.522	1	122
536.692	1	124
536.862	1	125
537.032	1	126
537.203	1	123
537.373	1	113
537.543	1	114
537.713	1	130
537.883	1	133
538.053	1	130
538.223	1	117
538.393	1	121
538.563	1	115
538.733	1	109
538.903	1	112
539.073	1	106
539.243	1	120
539.413	1	109
539.584	1	109
539.754	1	117
539.924	1	113
540.094	1	118
540.264	1	112
540.434	1	115
540.604	1	112
540.774	1	116
540.944	1	110
541.114	1	102
541.284	1	104
541.454	1	116
541.624	1	106
541.794	1	111
541.964	1	116
542.134	1	118
542.305	1	103
542.475	1	110
542.645	1	113
542.815	1	122
542.985	1	108
543.155	1	112
543.325	1	100
543.495	1	105
543.665	1	113
543.835	1	111
544.005	1	103
544.175	1	116
544.345	1	93
544.515	1	106
544.685	1	113
544.855	1	109
545.025	1	100
545.195	1	97
545.365	1	110
545.535	1	119
545.705	1	114
545.875	1	102
546.045	1	101
546.216	1	116
546.386	1	110
546.556	1	99
546.726	1	113
546.896	1	94
547.066	1	93
547.236	1	97
547.406	1	103
547.576	1	105
547.746	1	113
547.916	1	103
548.086	1	107
548.256	1	103
548.426	1	102
548.596	1	97
548.766	1	103
548.936	1	90
549.106	1	120
549.276	1	101
549.446	1	102
549.616	1	114
549.786	1	94
549.956	1	104
550.126	1	100
550.296	1	103
550.466	1	83
550.636	1	104
550.806	1	102
550.976	1	96
551.146	1	81
551.316	1	99
551.486	1	84
551.656	1	100
551.826	1	104
551.996	1	112
552.166	1	104
552.336	1	108
552.506	1	103
552.676	1	97
552.846	1	112
553.016	1	97
553.186	1	104
553.356	1	89
553.526	1	109
553.696	1	106
553.866	1	88
554.036	1	89
554.206	1	90
554.376	1	83
554.546	1	80
554.716	1	90
554.886	1	96
555.056	1	79
555.226	1	78
555.396	1	88
555.566	1	88
555.736	1	81
555.906	1	92
556.076	1	89
556.246	1	88
556.416	1	84
556.586	1	94
556.756	1	98
556.926	1	89
557.096	1	68
557.266	1	95
557.436	1	88
557.606	1	81
557.776	1	94
557.946	1	93
558.116	1	90
558.286	1	93
558.456	1	79
558.626	1	90
558.796	1	82
558.966	1	86
559.136	1	77
559.306	1	86
559.476	1	79
559.646	1	78
559.816	1	86
559.986	1	77
560.155	1	82
560.325	1	65
560.495	1	80
560.665	1	82
560.835	1	85
561.005	1	63
561.175	1	72
561.345	1	70
561.515	1	65
561.685	1	74
561.855	1	77
562.025	1	68
562.195	1	74
562.365	1	74
562.535	1	80
562.705	1	83
562.875	1	74
563.045	1	78
563.215	1	75
563.385	1	67
563.555	1	80
563.725	1	59
563.895	1	68
564.064	1	78
564.234	1	71
564.404	1	67
564.574	1	75
564.744	1	72
564.914	1	58
565.084	1	67
565.254	1	71
565.424	1	70
565.594	1	59
565.764	1	67
565.934	1	66
566.104	1	61
566.274	1	64
566.444	1	72
566.614	1	65
566.783	1	66
566.953	1	74
567.123	1	83
567.293	1	63
567.463	1	71
567.633	1	64
567.803	1	56
567.973	1	63
568.143	1	57
568.313	1	50
568.483	1	54
568.653	1	53
568.823	1	79
568.993	1	57
569.162	1	54
569.332	1	55
569.502	1	59
569.672	1	51
569.842	1	57
570.012	1	76
570.182	1	56
570.352	1	60
570.522	1	63
570.692	1	56
570.862	1	59
571.031	1	55
571.201	1	61
571.371	1	53
571.541	1	54
571.711	1	56
571.881	1	59
572.051	1	59
572.221	1	69
572.391	1	62
572.561	1	44
572.731	1	56
572.900	1	55
573.070	1	59
573.240	1	55
573.410	1	49
573.580	1	55
573.750	1	60
573.920	1	48
574.090	1	60
574.260	1	45
574.430	1	44
574.599	1	53
574.769	1	50
574.939	1	58
575.109	1	47
575.279	1	54
575.449	1	51
575.619	1	60
575.789	1	59
575.959	1	41
576.128	1	55
576.298	1	54
576.468	1	40
576.638	1	51
576.808	1	53
576.978	1	53
577.148	1	51
577.318	1	55
577.487	1	50
577.657	1	25
577.827	1	57
577.997	1	43
578.167	1	46
578.337	1	46
578.507	1	43
578.677	1	37
578.846	1	43
579.016	1	62
579.186	1	47
579.356	1	40
579.526	1	50
579.696	1	46
579.866	1	46
580.036	1	40
580.205	1	39
580.375	1	46
580.545	1	45
580.715	1	62
580.885	1	38
581.055	1	44
581.225	1	31
581.394	1	36
581.564	1	38
581.734	1	50
581.904	1	39
582.074	1	45
582.244	1	48
582.414	1	43
582.583	1	35
582.753	1	44
582.923	1	38
583.093	1	40
583.263	1	45
583.433	1	35
583.603	1	54
583.772	1	44
583.942	1	50
584.112	1	52
584.282	1	48
584.452	1	41
584.622	1	50
584.791	1	41
584.961	1	40
585.131	1	33
585.301	1	46
585.471	1	36
585.641	1	44
585.811	1	36
585.980	1	28
586.150	1	37
586.320	1	29
586.490	1	37
586.660	1	44
586.830	1	43
586.999	1	33
587.169	1	30
587.339	1	44
587.509	1	36
587.679	1	31
587.849	1	50
588.018	1	42
588.188	1	28
588.358	1	42
588.528	1	38
588.698	1	18
588.867	1	41
589.037	1	47
589.207	1	26
589.377	1	35
589.547	1	31
589.717	1	35
589.886	1	29
590.056	1	34
590.226	1	37
590.396	1	34
590.566	1	42
590.735	1	52
590.905	1	41
591.075	1	27
591.245	1	25
591.415	1	27
591.585	1	24
591.754	1	35
591.924	1	19
592.094	1	28
592.264	1	24
592.434	1	36
592.603	1	26
592.773	1	23
592.943	1	34
593.113	1	19
593.283	1	36
593.452	1	23
593.622	1	26
593.792	1	26
593.962	1	39
594.132	1	27
594.301	1	41
594.471	1	45
594.641	1	12
594.811	1	24
594.981	1	28
595.150	1	9
595.320	1	27
595.490	1	24
595.660	1	14
595.829	1	18
595.999	1	24
596.169	1	28
596.339	1	29
596.509	1	26
596.678	1	26
596.848	1	33
597.018	1	37
597.188	1	23
597.358	1	17
597.527	1	26
597.697	1	16
597.867	1	31
598.037	1	24
598.206	1	17
598.376	1	27
598.546	1	16
598.716	1	23
598.885	1	23
599.055	1	14
599.225	1	25
599.395	1	30
599.565	1	27
599.734	1	16
599.904	1	14
600.074	1	23
600.244	1	24
600.413	1	30
600.583	1	20
600.753	1	25
600.923	1	27
601.092	1	12
601.262	1	20
601.432	1	14
601.602	1	27
601.771	1	26
601.941	1	23
602.111	1	27
602.281	1	19
602.451	1	20
602.620	1	25
602.790	1	20
602.960	1	21
603.130	1	24
603.299	1	28
603.469	1	16
603.639	1	30
603.809	1	22
603.978	1	27
604.148	1	27
604.318	1	25
604.487	1	25
604.657	1	18
604.827	1	8
604.997	1	22
605.166	1	14
605.336	1	14
605.506	1	20
605.676	1	24
605.845	1	18
606.015	1	19
606.185	1	16
606.355	1	27
606.524	1	17
606.694	1	23
606.864	1	22
607.034	1	18
607.203	1	28
607.373	1	20
607.543	1	16
607.712	1	30
607.882	1	17
608.052	1	28
608.222	1	26
608.391	1	9
608.561	1	20
608.731	1	12
608.901	1	26
609.070	1	21
609.240	1	22
609.410	1	15
609.579	1	27
609.749	1	19
609.919	1	3
610.089	1	11
610.258	1	29
610.428	1	12
610.598	1	15
610.767	1	26
610.937	1	11
611.107	1	30
611.277	1	21
611.446	1	13
611.616	1	5
611.786	1	32
611.955	1	23
612.125	1	25
612.295	1	19
612.465	1	23
612.634	1	24
612.804	1	28
612.974	1	26
613.143	1	17
613.313	1	24
613.483	1	22
613.652	1	17
613.822	1	17
613.992	1	22
614.162	1	23
614.331	1	20
614.501	1	21
614.671	1	17
614.840	1	26
615.010	1	20
615.180	1	18
615.349	1	24
615.519	1	22
615.689	1	14
615.858	1	28
616.028	1	14
616.198	1	24
616.368	1	13
616.537	1	9
616.707	1	27
616.877	1	18
617.046	1	25
617.216	1	19
617.386	1	11
617.555	1	11
617.725	1	22
617.895	1	10
618.064	1	18
618.234	1	12
618.404	1	23
618.573	1	9
618.743	1	22
618.913	1	1
619.082	1	22
619.252	1	23
619.422	1	16
619.591	1	13
619.761	1	20
619.931	1	16
620.100	1	5
620.270	1	10
620.440	1	19
620.609	1	28
620.779	1	9
620.949	1	19
621.118	1	18
621.288	1	20
621.458	1	21
621.627	1	8
621.797	1	11
621.967	1	13
622.136	1	21
622.306	1	19
622.476	1	26
622.645	1	21
622.815	1	18
622.985	1	18
623.154	1	15
623.324	1	26
623.494	1	17
623.663	1	6
623.833	1	16
624.002	1	12
624.172	1	24
624.342	1	4
624.511	1	15
624.681	1	7
624.851	1	4
625.020	1	8
625.190	1	8
625.360	1	12
625.529	1	14
625.699	1	7
625.869	1	27
626.038	1	26
626.208	1	6
626.377	1	31
626.547	1	25
626.717	1	14
626.886	1	14
627.056	1	15
627.226	1	17
627.395	1	13
627.565	1	18
627.735	1	20
627.904	1	15
628.074	1	20
628.243	1	12
628.413	1	18
628.583	1	15
628.752	1	19
628.922	1	17
629.091	1	16
629.261	1	21
629.431	1	-2
629.600	1	21
629.770	1	19
629.940	1	18
630.109	1	18
630.279	1	3
630.448	1	7
630.618	1	12
630.788	1	20
630.957	1	14
631.127	1	17
631.297	1	13
631.466	1	21
631.636	1	17
631.805	1	17
631.975	1	8
632.145	1	4
632.314	1	16
632.484	1	7
632.653	1	5
632.823	1	23
632.993	1	16
633.162	1	14
633.332	1	22
633.501	1	15
633.671	1	17
633.841	1	16
634.010	1	11
634.180	1	11
634.349	1	14
634.519	1	15
634.689	1	18
634.858	1	19
635.028	1	6
635.197	1	13
635.367	1	9
635.537	1	12
635.706	1	8
635.876	1	9
636.045	1	12
636.215	1	7
636.384	1	23
636.554	1	19
636.724	1	17
636.893	1	14
637.063	1	16
637.232	1	12
637.402	1	16
637.572	1	12
637.741	1	22
637.911	1	12
638.080	1	9
638.250	1	8
638.419	1	20
638.589	1	22
638.759	1	19
638.928	1	-1
639.098	1	4
639.267	1	12
639.437	1	5
639.606	1	15
639.776	1	12
639.946	1	16
640.115	1	17
640.285	1	7
640.454	1	24
640.624	1	22
640.793	1	16
640.963	1	5
641.132	1	21
641.302	1	8
641.472	1	3
641.641	1	4
641.811	1	12
641.980	1	5
642.150	1	5
642.319	1	12
642.489	1	12
642.659	1	1
642.828	1	9
642.998	1	1
643.167	1	14
643.337	1	10
643.506	1	3
643.676	1	7
643.845	1	15
644.015	1	17
644.184	1	17
644.354	1	7
644.524	1	2
644.693	1	15
644.863	1	2
645.032	1	9
645.202	1	16
645.371	1	4
645.541	1	6
645.710	1	15
645.880	1	16
646.049	1	25
646.219	1	11
646.388	1	8
646.558	1	12
646.728	1	14
646.897	1	10
647.067	1	13
647.236	1	19
647.406	1	0
647.575	1	11
647.745	1	9
647.914	1	2
648.084	1	0
648.253	1	14
648.423	1	2
648.592	1	6
648.762	1	9
648.931	1	22
649.101	1	8
649.270	1	19
649.440	1	23
649.610	1	18
649.779	1	2
649.949	1	8
650.118	1	-2
650.288	1	8
650.457	1	6
650.627	1	8
650.796	1	11
650.966	1	6
651.135	1	13
651.305	1	3
651.474	1	15
651.644	1	6
651.813	1	17
651.983	1	19
652.152	1	10
652.322	1	19
652.491	1	17
652.661	1	12
652.830	1	9
653.000	1	6
653.169	1	8
653.339	1	22
653.508	1	2
653.678	1	12
653.847	1	17
654.017	1	7
654.186	1	11
654.356	1	13
654.525	1	8
654.695	1	4
654.864	1	16
655.034	1	9
655.203	1	13
655.373	1	3
655.542	1	7
655.712	1	6
655.881	1	9
656.051	1	12
656.220	1	18
656.390	1	4
656.559	1	2
656.729	1	11
656.898	1	10
657.068	1	16
657.237	1	16
657.406	1	15
657.576	1	13
657.745	1	4
657.915	1	13
658.084	1	13
658.254	1	10
658.423	1	-7
658.593	1	3
658.762	1	-2
658.932	1	13
659.101	1	15
659.271	1	9
659.440	1	12
659.610	1	13
659.779	1	0
659.949	1	4
660.118	1	10
660.288	1	12
660.457	1	15
660.626	1	11
660.796	1	-1
660.965	1	10
661.135	1	5
661.304	1	4
661.474	1	2
661.643	1	9
661.813	1	0
661.982	1	15
662.152	1	13
662.321	1	9
662.491	1	2
662.660	1	4
662.829	1	7
662.999	1	15
663.168	1	5
663.338	1	11
663.507	1	8
663.677	1	4
663.846	1	14
664.016	1	3
664.185	1	9
664.354	1	11
664.524	1	1
664.693	1	5
664.863	1	13
665.032	1	14
665.202	1	-5
665.371	1	7
665.541	1	5
665.710	1	-1
665.879	1	9
666.049	1	15
666.218	1	0
666.388	1	1
666.557	1	7
666.727	1	-7
666.896	1	4
667.065	1	17
667.235	1	12
667.404	1	6
667.574	1	12
667.743	1	4
667.913	1	3
668.082	1	2
668.251	1	10
668.421	1	14
668.590	1	7
668.760	1	11
668.929	1	22
669.099	1	3
669.268	1	9
669.437	1	20
669.607	1	-8
669.776	1	4
669.946	1	5
670.115	1	6
670.285	1	10
670.454	1	6
670.623	1	16
670.793	1	10
670.962	1	6
671.132	1	4
671.301	1	16
671.470	1	4
671.640	1	-10
671.809	1	6
671.979	1	20
672.148	1	24
672.317	1	4
672.487	1	9
672.656	1	16
672.826	1	-13
672.995	1	0
673.164	1	13
673.334	1	8
673.503	1	13
673.673	1	25
673.842	1	17
674.011	1	14
674.181	1	1
674.350	1	6
674.520	1	9
674.689	1	0
674.858	1	13
675.028	1	9
675.197	1	13
675.367	1	14
675.536	1	11
675.705	1	8
675.875	1	17
676.044	1	-1
676.214	1	5
676.383	1	3
676.552	1	1
676.722	1	7
676.891	1	5
677.060	1	10
677.230	1	18
677.399	1	9
677.569	1	3
677.738	1	6
677.907	1	7
678.077	1	11
678.246	1	10
678.416	1	9
678.585	1	16
678.754	1	12
678.924	1	0
679.093	1	5
679.262	1	4
679.432	1	6
679.601	1	-4
679.771	1	6
679.940	1	5
680.109	1	15
680.279	1	5
680.448	1	14
680.617	1	1
680.787	1	3
680.956	1	4
681.125	1	10
681.295	1	13
681.464	1	9
681.634	1	13
681.803	1	-6
681.972	1	3
682.142	1	14
682.311	1	12
682.480	1	4
682.650	1	4
682.819	1	9
682.988	1	14
683.158	1	13
683.327	1	8
683.496	1	10
683.666	1	6
683.835	1	21
684.004	1	11
684.174	1	9
684.343	1	4
684.512	1	9
684.682	1	14
684.851	1	5
685.021	1	15
685.190	1	12
685.359	1	2
685.529	1	13
685.698	1	14
685.867	1	13
686.037	1	5
686.206	1	4
686.375	1	13
686.545	1	23
686.714	1	15
686.883	1	6
687.053	1	21
687.222	1	4
687.391	1	9
687.561	1	13
687.730	1	8
687.899	1	10
688.069	1	5
688.238	1	6
688.407	1	16
688.577	1	3
688.746	1	15
