340.368	1	-1
340.539	1	-1
340.710	1	1
340.881	1	1
341.052	1	3
341.223	1	9
341.394	1	-5
341.565	1	-7
341.737	1	5
341.908	1	6
342.079	1	-1
342.250	1	-4
342.421	1	-5
342.592	1	-10
342.763	1	-4
342.934	1	-1
343.105	1	9
343.276	1	-12
343.447	1	-3
343.618	1	2
343.789	1	-4
343.960	1	-3
344.131	1	-3
344.302	1	7
344.473	1	-3
344.644	1	1
344.815	1	4
344.986	1	-5
345.157	1	-5
345.328	1	1
345.499	1	3
345.670	1	-1
345.841	1	3
346.012	1	0
346.183	1	-7
346.354	1	-9
346.526	1	2
346.697	1	-5
346.868	1	-3
347.039	1	1
347.210	1	-10
347.381	1	-5
347.552	1	-1
347.723	1	-2
347.894	1	2
348.065	1	8
348.236	1	-5
348.407	1	-4
348.578	1	1
348.749	1	-4
348.920	1	9
349.091	1	3
349.262	1	-2
349.433	1	-4
349.604	1	7
349.775	1	9
349.946	1	8
350.117	1	9
350.288	1	5
350.459	1	2
350.630	1	-7
350.801	1	-2
350.972	1	1
351.143	1	-8
351.314	1	-7
351.485	1	-4
351.656	1	4
351.827	1	-7
351.998	1	-5
352.169	1	4
352.340	1	-2
352.511	1	-9
352.682	1	-7
352.853	1	-4
353.024	1	-3
353.195	1	-5
353.366	1	9
353.537	1	-3
353.708	1	-8
353.879	1	1
354.050	1	-1
354.221	1	-13
354.392	1	0
354.563	1	6
354.734	1	-2
354.905	1	-6
355.076	1	-1
355.247	1	-5
355.418	1	-8
355.589	1	0
355.760	1	3
355.931	1	-4
356.102	1	2
356.273	1	0
356.444	1	-1
356.615	1	-3
356.785	1	-2
356.956	1	-1
357.127	1	-1
357.298	1	0
357.469	1	0
357.640	1	1
357.811	1	8
357.982	1	-9
358.153	1	-2
358.324	1	8
358.495	1	12
358.666	1	-3
358.837	1	-1
359.008	1	-3
359.179	1	-8
359.350	1	-9
359.521	1	-5
359.692	1	6
359.863	1	-7
360.034	1	-7
360.205	1	-2
360.376	1	-7
360.547	1	-2
360.718	1	-6
360.889	1	4
361.060	1	7
361.231	1	-1
361.401	1	4
361.572	1	-6
361.743	1	-7
361.914	1	-2
362.085	1	-8
362.256	1	-3
362.427	1	-10
362.598	1	0
362.769	1	3
362.940	1	0
363.111	1	3
363.282	1	6
363.453	1	-1
363.624	1	-10
363.795	1	1
363.966	1	-3
364.137	1	-8
364.308	1	-2
364.478	1	0
364.649	1	-5
364.820	1	-4
364.991	1	1
365.162	1	-12
365.333	1	-1
365.504	1	-8
365.675	1	-4
365.846	1	-4
366.017	1	-1
366.188	1	-6
366.359	1	-4
366.530	1	1
366.701	1	-4
366.871	1	6
367.042	1	7
367.213	1	8
367.384	1	-1
367.555	1	-6
367.726	1	6
367.897	1	1
368.068	1	-7
368.239	1	2
368.410	1	-6
368.581	1	3
368.752	1	-12
368.923	1	-10
369.093	1	0
369.264	1	-2
369.435	1	1
369.606	1	2
369.777	1	-11
369.948	1	8
370.119	1	-3
370.290	1	-8
370.461	1	-3
370.632	1	8
370.803	1	-2
370.973	1	12
371.144	1	2
371.315	1	-1
371.486	1	7
371.657	1	1
371.828	1	0
371.999	1	-5
372.170	1	12
372.341	1	7
372.512	1	-11
372.682	1	7
372.853	1	1
373.024	1	-3
373.195	1	-13
373.366	1	-1
373.537	1	-1
373.708	1	-4
373.879	1	2
374.050	1	6
374.220	1	-3
374.391	1	4
374.562	1	0
374.733	1	12
374.904	1	3
375.075	1	5
375.246	1	1
375.417	1	-6
375.588	1	-11
375.758	1	0
375.929	1	8
376.100	1	3
376.271	1	-6
376.442	1	-7
376.613	1	-9
376.784	1	-2
376.955	1	1
377.125	1	1
377.296	1	-5
377.467	1	-8
377.638	1	-3
377.809	1	6
377.980	1	3
378.151	1	-1
378.321	1	7
378.492	1	-7
378.663	1	-10
378.834	1	4
379.005	1	1
379.176	1	-3
379.347	1	8
379.518	1	-12
379.688	1	-4
379.859	1	-1
380.030	1	-2
380.201	1	-12
380.372	1	-5
380.543	1	-1
380.714	1	9
380.884	1	-2
381.055	1	3
381.226	1	-3
381.397	1	2
381.568	1	-5
381.739	1	12
381.910	1	-3
382.080	1	-18
382.251	1	2
382.422	1	7
382.593	1	-11
382.764	1	-7
382.935	1	8
383.105	1	5
383.276	1	-10
383.447	1	8
383.618	1	1
383.789	1	-6
383.960	1	-10
384.130	1	-12
384.301	1	-1
384.472	1	-8
384.643	1	1
384.814	1	-5
384.985	1	-2
385.156	1	10
385.326	1	-2
385.497	1	-3
385.668	1	2
385.839	1	-2
386.010	1	-5
386.180	1	2
386.351	1	-6
386.522	1	-2
386.693	1	-1
386.864	1	-4
387.035	1	-3
387.205	1	-19
387.376	1	-1
387.547	1	-10
387.718	1	12
387.889	1	2
388.060	1	-6
388.230	1	-6
388.401	1	0
388.572	1	1
388.743	1	-2
388.914	1	10
389.084	1	0
389.255	1	-6
389.426	1	6
389.597	1	-8
389.768	1	2
389.939	1	12
390.109	1	1
390.280	1	16
390.451	1	10
390.622	1	-7
390.793	1	1
390.963	1	-1
391.134	1	2
391.305	1	-3
391.476	1	5
391.647	1	9
391.817	1	-8
391.988	1	-12
392.159	1	-1
392.330	1	6
392.501	1	3
392.671	1	1
392.842	1	9
393.013	1	6
393.184	1	1
393.355	1	6
393.525	1	-3
393.696	1	4
393.867	1	-8
394.038	1	-6
394.208	1	2
394.379	1	-17
394.550	1	-3
394.721	1	12
394.892	1	9
395.062	1	-11
395.233	1	0
395.404	1	7
395.575	1	-7
395.746	1	-8
395.916	1	-6
396.087	1	3
396.258	1	-10
396.429	1	0
396.599	1	5
396.770	1	3
396.941	1	12
397.112	1	-7
397.283	1	-5
397.453	1	-4
397.624	1	3
397.795	1	6
397.966	1	6
398.136	1	-1
398.307	1	5
398.478	1	-1
398.649	1	1
398.819	1	8
398.990	1	2
399.161	1	2
399.332	1	4
399.503	1	-8
399.673	1	2
399.844	1	-4
400.015	1	6
400.186	1	4
400.356	1	-4
400.527	1	-1
400.698	1	-1
400.869	1	2
401.039	1	-4
401.210	1	-12
401.381	1	1
401.552	1	15
401.722	1	6
401.893	1	6
402.064	1	-3
402.235	1	4
402.405	1	-1
402.576	1	6
402.747	1	-5
402.918	1	-5
403.088	1	-15
403.259	1	-11
403.430	1	-5
403.601	1	-9
403.771	1	5
403.942	1	0
404.113	1	9
404.284	1	-2
404.454	1	5
404.625	1	9
404.796	1	-8
404.967	1	-9
405.137	1	-6
405.308	1	-2
405.479	1	2
405.649	1	-4
405.820	1	2
405.991	1	9
406.162	1	-10
406.332	1	-6
406.503	1	-8
406.674	1	-1
406.845	1	8
407.015	1	-9
407.186	1	3
407.357	1	1
407.527	1	-5
407.698	1	-6
407.869	1	-13
408.040	1	-11
408.210	1	-2
408.381	1	6
408.552	1	2
408.722	1	-6
408.893	1	-7
409.064	1	0
409.235	1	1
409.405	1	5
409.576	1	-4
409.747	1	-1
409.917	1	0
410.088	1	1
410.259	1	-1
410.430	1	-6
410.600	1	-3
410.771	1	6
410.942	1	-2
411.112	1	-2
411.283	1	-5
411.454	1	5
411.625	1	-3
411.795	1	3
411.966	1	0
412.137	1	3
412.307	1	-7
412.478	1	2
412.649	1	-1
412.819	1	-8
412.990	1	-1
413.161	1	-6
413.332	1	0
413.502	1	-6
413.673	1	4
413.844	1	-5
414.014	1	-6
414.185	1	-3
414.356	1	-10
414.526	1	-7
414.697	1	7
414.868	1	5
415.038	1	-5
415.209	1	-2
415.380	1	3
415.550	1	-9
415.721	1	-10
415.892	1	-6
416.063	1	8
416.233	1	-3
416.404	1	2
416.575	1	-6
416.745	1	-6
416.916	1	4
417.087	1	-5
417.257	1	1
417.428	1	-13
417.599	1	-1
417.769	1	-3
417.940	1	-1
418.111	1	-6
418.281	1	0
418.452	1	6
418.623	1	-2
418.793	1	3
418.964	1	-1
419.135	1	3
419.305	1	-3
419.476	1	-5
419.647	1	-4
419.817	1	0
419.988	1	-7
420.159	1	-10
420.329	1	7
420.500	1	-2
420.671	1	-5
420.841	1	6
421.012	1	2
421.183	1	-1
421.353	1	2
421.524	1	-1
421.695	1	2
421.865	1	-8
422.036	1	-8
422.206	1	6
422.377	1	1
422.548	1	7
422.718	1	-1
422.889	1	-1
423.060	1	-4
423.230	1	7
423.401	1	0
423.572	1	-3
423.742	1	0
423.913	1	1
424.084	1	3
424.254	1	-2
424.425	1	-3
424.595	1	-14
424.766	1	3
424.937	1	-7
425.107	1	3
425.278	1	-6
425.449	1	-1
425.619	1	-2
425.790	1	-1
425.961	1	3
426.131	1	-6
426.302	1	-7
426.472	1	-3
426.643	1	1
426.814	1	3
426.984	1	7
427.155	1	-11
427.326	1	4
427.496	1	5
427.667	1	4
427.837	1	-13
428.008	1	4
428.179	1	0
428.349	1	-6
428.520	1	-6
428.691	1	-2
428.861	1	-7
429.032	1	-5
429.202	1	0
429.373	1	-13
429.544	1	-1
429.714	1	-1
429.885	1	-3
430.055	1	-3
430.226	1	1
430.397	1	-8
430.567	1	11
430.738	1	0
430.909	1	-10
431.079	1	-1
431.250	1	-11
431.420	1	3
431.591	1	-2
431.762	1	2
431.932	1	4
432.103	1	-2
432.273	1	-6
432.444	1	1
432.615	1	5
432.785	1	-2
432.956	1	-10
433.126	1	2
433.297	1	1
433.468	1	5
433.638	1	-2
433.809	1	-6
433.979	1	2
434.150	1	-11
434.320	1	-1
434.491	1	13
434.662	1	-5
434.832	1	-5
435.003	1	0
435.173	1	-5
435.344	1	-4
435.515	1	-8
435.685	1	6
435.856	1	-2
436.026	1	7
436.197	1	0
436.368	1	-1
436.538	1	2
436.709	1	-1
436.879	1	-1
437.050	1	7
437.220	1	4
437.391	1	4
437.562	1	9
437.732	1	-2
437.903	1	7
438.073	1	10
438.244	1	-3
438.414	1	6
438.585	1	-2
438.756	1	10
438.926	1	3
439.097	1	3
439.267	1	15
439.438	1	10
439.608	1	1
439.779	1	1
439.949	1	0
440.120	1	-7
440.291	1	-2
440.461	1	-8
440.632	1	0
440.802	1	0
440.973	1	7
441.143	1	2
441.314	1	5
441.485	1	2
441.655	1	10
441.826	1	-8
441.996	1	-4
442.167	1	-3
442.337	1	-9
442.508	1	6
442.678	1	-11
442.849	1	2
443.019	1	3
443.190	1	-11
443.361	1	1
443.531	1	-7
443.702	1	-4
443.872	1	-3
444.043	1	-3
444.213	1	-5
444.384	1	-1
444.554	1	-4
444.725	1	-1
444.895	1	-6
445.066	1	-10
445.237	1	-6
445.407	1	-7
445.578	1	14
445.748	1	-1
445.919	1	-2
446.089	1	6
446.260	1	10
446.430	1	-8
446.601	1	-10
446.771	1	0
446.942	1	-8
447.112	1	3
447.283	1	2
447.453	1	-5
447.624	1	3
447.794	1	-8
447.965	1	-17
448.135	1	3
448.306	1	-4
448.477	1	-8
448.647	1	12
448.818	1	8
448.988	1	-13
449.159	1	-6
449.329	1	4
449.500	1	8
449.670	1	2
449.841	1	2
450.011	1	-3
450.182	1	-10
450.352	1	7
450.523	1	-2
450.693	1	0
450.864	1	2
451.034	1	6
451.205	1	-1
451.375	1	13
451.546	1	-5
451.716	1	4
451.887	1	-1
452.057	1	7
452.228	1	-11
452.398	1	7
452.569	1	2
452.739	1	2
452.910	1	-5
453.080	1	19
453.251	1	5
453.421	1	-9
453.592	1	-8
453.762	1	8
453.933	1	8
454.103	1	-4
454.274	1	-1
454.444	1	6
454.615	1	8
454.785	1	-1
454.956	1	-1
455.126	1	0
455.297	1	-4
455.467	1	-2
455.638	1	0
455.808	1	-3
455.979	1	3
456.149	1	-1
456.320	1	-5
456.490	1	2
456.661	1	-1
456.831	1	0
457.001	1	5
457.172	1	-2
457.342	1	1
457.513	1	8
457.683	1	2
457.854	1	-3
458.024	1	-1
458.195	1	-6
458.365	1	4
458.536	1	-1
458.706	1	10
458.877	1	5
459.047	1	-8
459.218	1	1
459.388	1	1
459.559	1	-2
459.729	1	5
459.899	1	7
460.070	1	5
460.240	1	5
460.411	1	-3
460.581	1	1
460.752	1	6
460.922	1	-2
461.093	1	2
461.263	1	5
461.434	1	8
461.604	1	-2
461.775	1	0
461.945	1	6
462.115	1	-19
462.286	1	7
462.456	1	-3
462.627	1	-5
462.797	1	-3
462.968	1	0
463.138	1	10
463.309	1	1
463.479	1	8
463.649	1	4
463.820	1	1
463.990	1	1
464.161	1	9
464.331	1	-2
464.502	1	11
464.672	1	5
464.843	1	12
465.013	1	-7
465.183	1	-2
465.354	1	5
465.524	1	4
465.695	1	0
465.865	1	5
466.036	1	5
466.206	1	1
466.376	1	1
466.547	1	14
466.717	1	-3
466.888	1	-2
467.058	1	6
467.229	1	4
467.399	1	-9
467.569	1	0
467.740	1	2
467.910	1	1
468.081	1	-1
468.251	1	0
468.422	1	-7
468.592	1	8
468.762	1	-11
468.933	1	7
469.103	1	-10
469.274	1	-10
469.444	1	1
469.614	1	-3
469.785	1	7
469.955	1	-5
470.126	1	10
470.296	1	2
470.467	1	-8
470.637	1	7
470.807	1	-12
470.978	1	-2
471.148	1	-14
471.319	1	0
471.489	1	-4
471.659	1	10
471.830	1	8
472.000	1	2
472.171	1	-1
472.341	1	-6
472.511	1	9
472.682	1	3
472.852	1	-9
473.023	1	-1
473.193	1	-18
473.363	1	-4
473.534	1	-1
473.704	1	18
473.875	1	3
474.045	1	-2
474.215	1	1
474.386	1	14
474.556	1	-6
474.727	1	-4
474.897	1	3
475.067	1	2
475.238	1	-4
475.408	1	3
475.578	1	-7
475.749	1	-8
475.919	1	-6
476.090	1	-8
476.260	1	-7
476.430	1	0
476.601	1	-8
476.771	1	9
476.942	1	-3
477.112	1	5
477.282	1	-5
477.453	1	-2
477.623	1	8
477.793	1	9
477.964	1	8
478.134	1	-1
478.305	1	0
478.475	1	-1
478.645	1	-8
478.816	1	-5
478.986	1	3
479.156	1	0
479.327	1	-4
479.497	1	-1
479.667	1	0
479.838	1	-2
480.008	1	0
480.179	1	2
480.349	1	0
480.519	1	2
480.690	1	0
480.860	1	-7
481.030	1	-2
481.201	1	-2
481.371	1	10
481.541	1	9
481.712	1	5
481.882	1	-9
482.053	1	8
482.223	1	-6
482.393	1	-16
482.564	1	-2
482.734	1	1
482.904	1	10
483.075	1	4
483.245	1	2
483.415	1	3
483.586	1	-8
483.756	1	4
483.926	1	1
484.097	1	-10
484.267	1	0
484.437	1	-9
484.608	1	-2
484.778	1	1
484.948	1	-3
485.119	1	-3
485.289	1	4
485.459	1	11
485.630	1	-8
485.800	1	-2
485.970	1	3
486.141	1	-7
486.311	1	1
486.481	1	2
486.652	1	-5
486.822	1	2
486.992	1	-2
487.163	1	-3
487.333	1	-1
487.503	1	-14
487.674	1	0
487.844	1	7
488.014	1	1
488.185	1	-8
488.355	1	-10
488.525	1	-4
488.696	1	-13
488.866	1	3
489.036	1	0
489.207	1	8
489.377	1	-7
489.547	1	2
489.718	1	-14
489.888	1	-1
490.058	1	3
490.228	1	-10
490.399	1	-4
490.569	1	0
490.739	1	6
490.910	1	-5
491.080	1	3
491.250	1	0
491.421	1	3
491.591	1	-1
491.761	1	-6
491.932	1	9
492.102	1	-8
492.272	1	-1
492.442	1	-1
492.613	1	0
492.783	1	-8
492.953	1	2
493.124	1	-6
493.294	1	-3
493.464	1	0
493.635	1	-8
493.805	1	10
493.975	1	1
494.145	1	-4
494.316	1	-1
494.486	1	8
494.656	1	1
494.827	1	-5
494.997	1	-3
495.167	1	2
495.337	1	-4
495.508	1	-10
495.678	1	2
495.848	1	10
496.019	1	-9
496.189	1	-6
496.359	1	0
496.529	1	-2
496.700	1	-6
496.870	1	-5
497.040	1	-3
497.211	1	4
497.381	1	-14
497.551	1	8
497.721	1	-7
497.892	1	8
498.062	1	5
498.232	1	4
498.403	1	3
498.573	1	-3
498.743	1	2
498.913	1	3
499.084	1	-14
499.254	1	-3
499.424	1	4
499.594	1	-8
499.765	1	2
499.935	1	-8
500.105	1	2
500.275	1	1
500.446	1	8
500.616	1	-1
500.786	1	-3
500.956	1	3
501.127	1	10
501.297	1	-2
501.467	1	10
501.638	1	9
501.808	1	-13
501.978	1	0
502.148	1	-3
502.319	1	7
502.489	1	0
502.659	1	-5
502.829	1	0
503.000	1	-1
503.170	1	-2
503.340	1	-2
503.510	1	-3
503.681	1	1
503.851	1	-7
504.021	1	13
504.191	1	-1
504.362	1	15
504.532	1	-10
504.702	1	-1
504.872	1	-7
505.042	1	-1
505.213	1	2
505.383	1	-7
505.553	1	-1
505.723	1	-5
505.894	1	10
506.064	1	5
506.234	1	7
506.404	1	-1
506.575	1	0
506.745	1	-15
506.915	1	3
507.085	1	-5
507.256	1	-12
507.426	1	4
507.596	1	8
507.766	1	-3
507.936	1	4
508.107	1	0
508.277	1	-10
508.447	1	-1
508.617	1	8
508.788	1	2
508.958	1	5
509.128	1	2
509.298	1	13
509.468	1	8
509.639	1	6
509.809	1	5
509.979	1	-3
510.149	1	-4
510.319	1	-3
510.490	1	9
510.660	1	9
510.830	1	-10
511.000	1	12
511.171	1	3
511.341	1	-5
511.511	1	-3
511.681	1	-4
511.851	1	-17
512.022	1	-10
512.192	1	10
512.362	1	1
512.532	1	-7
512.702	1	-3
512.873	1	12
513.043	1	-3
513.213	1	-1
513.383	1	-7
513.553	1	-11
513.724	1	-2
513.894	1	-7
514.064	1	-1
514.234	1	5
514.404	1	1
514.575	1	12
514.745	1	-2
514.915	1	-1
515.085	1	-8
515.255	1	-13
515.425	1	-6
515.596	1	-5
515.766	1	-6
515.936	1	-1
516.106	1	-1
516.276	1	4
516.447	1	-2
516.617	1	2
516.787	1	-6
516.957	1	-6
517.127	1	7
517.297	1	3
517.468	1	-4
517.638	1	1
517.808	1	2
517.978	1	-9
518.148	1	-7
518.319	1	0
518.489	1	6
518.659	1	7
518.829	1	-6
518.999	1	-2
519.169	1	4
519.340	1	6
519.510	1	-4
519.680	1	-6
519.850	1	-12
520.020	1	-3
520.190	1	-3
520.361	1	-3
520.531	1	11
520.701	1	-4
520.871	1	-6
521.041	1	2
521.211	1	3
521.382	1	-14
521.552	1	3
521.722	1	1
521.892	1	-2
522.062	1	-11
522.232	1	-9
522.402	1	-14
522.573	1	0
522.743	1	8
522.913	1	-5
523.083	1	-3
523.253	1	2
523.423	1	-6
523.593	1	-14
523.764	1	8
523.934	1	0
524.104	1	-11
524.274	1	-3
524.444	1	1
524.614	1	-2
524.784	1	6
524.955	1	-1
525.125	1	10
525.295	1	-18
525.465	1	1
525.635	1	10
525.805	1	-8
525.975	1	-9
526.146	1	-1
526.316	1	4
526.486	1	2
526.656	1	7
526.826	1	-3
526.996	1	9
527.166	1	-1
527.337	1	-5
527.507	1	-16
527.677	1	2
527.847	1	-15
528.017	1	-11
528.187	1	0
528.357	1	8
528.527	1	-2
528.698	1	1
528.868	1	-6
529.038	1	7
529.208	1	-4
529.378	1	-6
529.548	1	2
529.718	1	-4
529.888	1	5
530.058	1	-4
530.229	1	0
530.399	1	8
530.569	1	0
530.739	1	-4
530.909	1	3
531.079	1	2
531.249	1	-10
531.419	1	3
531.589	1	-9
531.760	1	8
531.930	1	-6
532.100	1	-7
532.270	1	11
532.440	1	-10
532.610	1	4
532.780	1	-7
532.950	1	0
533.120	1	-1
533.290	1	-3
533.461	1	11
533.631	1	-1
533.801	1	0
533.971	1	6
534.141	1	-1
534.311	1	-8
534.481	1	2
534.651	1	2
534.821	1	4
534.991	1	7
535.162	1	-6
535.332	1	5
535.502	1	0
535.672	1	-12
535.842	1	2
536.012	1	-2
536.182	1	-7
536.352	1	0
536.522	1	1
536.692	1	-4
536.862	1	-5
537.032	1	-1
537.203	1	2
537.373	1	-3
537.543	1	2
537.713	1	9
537.883	1	-1
538.053	1	2
538.223	1	2
538.393	1	5
538.563	1	0
538.733	1	-5
538.903	1	-8
539.073	1	-7
539.243	1	-6
539.413	1	2
539.584	1	-5
539.754	1	-10
539.924	1	3
540.094	1	2
540.264	1	1
540.434	1	-8
540.604	1	-1
540.774	1	-8
540.944	1	-12
541.114	1	-2
541.284	1	1
541.454	1	-7
541.624	1	0
541.794	1	-3
541.964	1	2
542.134	1	3
542.305	1	-13
542.475	1	-10
542.645	1	5
542.815	1	5
542.985	1	7
543.155	1	3
543.325	1	-12
543.495	1	-7
543.665	1	9
543.835	1	-3
544.005	1	-7
544.175	1	0
544.345	1	-11
544.515	1	0
544.685	1	3
544.855	1	5
545.025	1	-1
545.195	1	-1
545.365	1	2
545.535	1	3
545.705	1	-5
545.875	1	-12
546.045	1	4
546.216	1	7
546.386	1	0
546.556	1	-4
546.726	1	-1
546.896	1	-4
547.066	1	-4
547.236	1	-13
547.406	1	8
547.576	1	-6
547.746	1	-1
547.916	1	6
548.086	1	-2
548.256	1	11
548.426	1	-2
548.596	1	-1
548.766	1	-7
548.936	1	-10
549.106	1	3
549.276	1	13
549.446	1	-2
549.616	1	-5
549.786	1	-6
549.956	1	4
550.126	1	-3
550.296	1	1
550.466	1	-6
550.636	1	2
550.806	1	-4
550.976	1	-2
551.146	1	-6
551.316	1	0
551.486	1	-2
551.656	1	-14
551.826	1	0
551.996	1	7
552.166	1	7
552.336	1	-5
552.506	1	-6
552.676	1	-5
552.846	1	-1
553.016	1	-7
553.186	1	-6
553.356	1	-8
553.526	1	-1
553.696	1	9
553.866	1	2
554.036	1	0
554.206	1	2
554.376	1	-6
554.546	1	-12
554.716	1	-5
554.886	1	-4
555.056	1	-10
555.226	1	-8
555.396	1	-4
555.566	1	-2
555.736	1	-5
555.906	1	1
556.076	1	-4
556.246	1	4
556.416	1	-3
556.586	1	4
556.756	1	10
556.926	1	-5
557.096	1	-5
557.266	1	9
557.436	1	-4
557.606	1	-16
557.776	1	9
557.946	1	5
558.116	1	3
558.286	1	5
558.456	1	-7
558.626	1	-3
558.796	1	4
558.966	1	-2
559.136	1	0
559.306	1	-18
559.476	1	-9
559.646	1	-5
559.816	1	4
559.986	1	-7
560.155	1	-7
560.325	1	-2
560.495	1	-2
560.665	1	9
560.835	1	2
561.005	1	5
561.175	1	-9
561.345	1	2
561.515	1	4
561.685	1	0
561.855	1	5
562.025	1	-8
562.195	1	3
562.365	1	5
562.535	1	-5
562.705	1	8
562.875	1	-2
563.045	1	3
563.215	1	3
563.385	1	-8
563.555	1	3
563.725	1	-10
563.895	1	-1
564.064	1	8
564.234	1	-1
564.404	1	-3
564.574	1	1
564.744	1	2
564.914	1	-10
565.084	1	-8
565.254	1	-1
565.424	1	3
565.594	1	-9
565.764	1	-1
565.934	1	6
566.104	1	-7
566.274	1	5
566.444	1	10
566.614	1	-10
566.783	1	2
566.953	1	-3
567.123	1	4
567.293	1	-3
567.463	1	-10
567.633	1	-2
567.803	1	-3
567.973	1	-6
568.143	1	-6
568.313	1	0
568.483	1	-10
568.653	1	-10
568.823	1	7
568.993	1	-7
569.162	1	-5
569.332	1	-8
569.502	1	6
569.672	1	4
569.842	1	-5
570.012	1	8
570.182	1	-8
570.352	1	7
570.522	1	8
570.692	1	-4
570.862	1	7
571.031	1	-6
571.201	1	-8
571.371	1	-10
571.541	1	-7
571.711	1	2
571.881	1	7
572.051	1	2
572.221	1	1
572.391	1	-2
572.561	1	-9
572.731	1	0
572.900	1	2
573.070	1	2
573.240	1	-12
573.410	1	-6
573.580	1	3
573.750	1	10
573.920	1	-1
574.090	1	-2
574.260	1	-5
574.430	1	-12
574.599	1	-7
574.769	1	-1
574.939	1	-4
575.109	1	-7
575.279	1	-1
575.449	1	1
575.619	1	9
575.789	1	7
575.959	1	-9
576.128	1	1
576.298	1	-7
576.468	1	-1
576.638	1	-2
576.808	1	-12
576.978	1	-11
577.148	1	1
577.318	1	2
577.487	1	-2
577.657	1	-10
577.827	1	8
577.997	1	-1
578.167	1	2
578.337	1	-8
578.507	1	-9
578.677	1	-5
578.846	1	-4
579.016	1	17
579.186	1	1
579.356	1	-8
579.526	1	-8
579.696	1	8
579.866	1	1
580.036	1	-1
580.205	1	0
580.375	1	-2
580.545	1	-4
580.715	1	7
580.885	1	0
581.055	1	13
581.225	1	-18
581.394	1	-10
581.564	1	0
581.734	1	2
581.904	1	-3
582.074	1	-5
582.244	1	1
582.414	1	4
582.583	1	-13
582.753	1	5
582.923	1	1
583.093	1	-14
583.263	1	2
583.433	1	-9
583.603	1	1
583.772	1	0
583.942	1	4
584.112	1	1
584.282	1	6
584.452	1	-1
584.622	1	0
584.791	1	-4
584.961	1	-2
585.131	1	-2
585.301	1	3
585.471	1	0
585.641	1	2
585.811	1	-9
585.980	1	-4
586.150	1	4
586.320	1	1
586.490	1	-5
586.660	1	5
586.830	1	-11
586.999	1	-6
587.169	1	-2
587.339	1	1
587.509	1	4
587.679	1	-8
587.849	1	-2
588.018	1	4
588.188	1	2
588.358	1	0
588.528	1	3
588.698	1	4
588.867	1	1
589.037	1	-1
589.207	1	-16
589.377	1	1
589.547	1	-12
589.717	1	0
589.886	1	-8
590.056	1	-4
590.226	1	1
590.396	1	-7
590.566	1	-5
590.735	1	10
590.905	1	0
591.075	1	-17
591.245	1	-3
591.415	1	-2
591.585	1	-4
591.754	1	-10
591.924	1	-8
592.094	1	-4
592.264	1	5
592.434	1	-4
592.603	1	-2
592.773	1	3
592.943	1	-7
593.113	1	-12
593.283	1	11
593.452	1	-18
593.622	1	-7
593.792	1	-3
593.962	1	1
594.132	1	-4
594.301	1	11
594.471	1	5
594.641	1	-1
594.811	1	-5
594.981	1	-1
595.150	1	-3
595.320	1	-1
595.490	1	-13
595.660	1	-5
595.829	1	-3
595.999	1	6
596.169	1	-6
596.339	1	5
596.509	1	1
596.678	1	-4
596.848	1	3
597.018	1	5
597.188	1	1
597.358	1	5
597.527	1	-8
597.697	1	-4
597.867	1	0
598.037	1	0
598.206	1	-16
598.376	1	2
598.546	1	-2
598.716	1	-8
598.885	1	-6
599.055	1	-3
599.225	1	-1
599.395	1	4
599.565	1	4
599.734	1	-1
599.904	1	-10
600.074	1	1
600.244	1	7
600.413	1	-2
600.583	1	-11
600.753	1	6
600.923	1	10
601.092	1	-13
601.262	1	4
601.432	1	-10
601.602	1	0
601.771	1	6
601.941	1	-2
602.111	1	-9
602.281	1	-3
602.451	1	-2
602.620	1	-3
602.790	1	-3
602.960	1	-8
603.130	1	-2
603.299	1	0
603.469	1	-1
603.639	1	5
603.809	1	4
603.978	1	-8
604.148	1	1
604.318	1	0
604.487	1	-12
604.657	1	5
604.827	1	-8
604.997	1	1
605.166	1	-6
605.336	1	2
605.506	1	15
605.676	1	-8
605.845	1	-3
606.015	1	4
606.185	1	-3
606.355	1	1
606.524	1	-6
606.694	1	6
606.864	1	-4
607.034	1	-4
607.203	1	13
607.373	1	2
607.543	1	-3
607.712	1	8
607.882	1	-3
608.052	1	-4
608.222	1	-9
608.391	1	5
608.561	1	5
608.731	1	0
608.901	1	0
609.070	1	-10
609.240	1	7
609.410	1	0
609.579	1	2
609.749	1	0
609.919	1	-15
610.089	1	-10
610.258	1	9
610.428	1	-2
610.598	1	2
610.767	1	9
610.937	1	0
611.107	1	1
611.277	1	3
611.446	1	-1
611.616	1	-18
611.786	1	-1
611.955	1	6
612.125	1	0
612.295	1	-4
612.465	1	-1
612.634	1	4
612.804	1	9
612.974	1	-3
613.143	1	0
613.313	1	6
613.483	1	1
613.652	1	-5
613.822	1	6
613.992	1	-5
614.162	1	0
614.331	1	4
614.501	1	1
614.671	1	3
614.840	1	6
615.010	1	-2
615.180	1	0
615.349	1	-1
615.519	1	5
615.689	1	1
615.858	1	-1
616.028	1	-6
616.198	1	13
616.368	1	-4
616.537	1	-2
616.707	1	-1
616.877	1	-2
617.046	1	2
617.216	1	0
617.386	1	-5
617.555	1	-7
617.725	1	-2
617.895	1	-6
618.064	1	3
618.234	1	-2
618.404	1	6
618.573	1	4
618.743	1	-9
618.913	1	-2
619.082	1	-2
619.252	1	-3
619.422	1	-3
619.591	1	-2
619.761	1	-1
619.931	1	-7
620.100	1	-3
620.270	1	-5
620.440	1	3
620.609	1	-2
620.779	1	-12
620.949	1	2
621.118	1	-10
621.288	1	6
621.458	1	13
621.627	1	-5
621.797	1	-3
621.967	1	-8
622.136	1	-6
622.306	1	-1
622.476	1	-2
622.645	1	6
622.815	1	0
622.985	1	5
623.154	1	6
623.324	1	9
623.494	1	8
623.663	1	-1
623.833	1	2
624.002	1	-6
624.172	1	7
624.342	1	-6
624.511	1	-2
624.681	1	-3
624.851	1	-7
625.020	1	-1
625.190	1	8
625.360	1	-4
625.529	1	2
625.699	1	-6
625.869	1	11
626.038	1	-1
626.208	1	-7
626.377	1	10
626.547	1	-1
626.717	1	-5
626.886	1	2
627.056	1	-1
627.226	1	1
627.395	1	8
627.565	1	9
627.735	1	1
627.904	1	0
628.074	1	5
628.243	1	-7
628.413	1	-5
628.583	1	-2
628.752	1	6
628.922	1	-5
629.091	1	8
629.261	1	6
629.431	1	-16
629.600	1	-3
629.770	1	1
629.940	1	6
630.109	1	0
630.279	1	-4
630.448	1	-6
630.618	1	-1
630.788	1	2
630.957	1	-13
631.127	1	9
631.297	1	-3
631.466	1	-5
631.636	1	-8
631.805	1	9
631.975	1	6
632.145	1	-9
632.314	1	12
632.484	1	7
632.653	1	-6
632.823	1	11
632.993	1	4
633.162	1	-4
633.332	1	8
633.501	1	-3
633.671	1	-6
633.841	1	2
634.010	1	-6
634.180	1	1
634.349	1	-5
634.519	1	-4
634.689	1	5
634.858	1	2
635.028	1	8
635.197	1	-7
635.367	1	2
635.537	1	-2
635.706	1	-7
635.876	1	-3
636.045	1	0
636.215	1	-9
636.384	1	2
636.554	1	3
636.724	1	-3
636.893	1	-10
637.063	1	-2
637.232	1	-6
637.402	1	-3
637.572	1	-6
637.741	1	7
637.911	1	-2
638.080	1	-7
638.250	1	5
638.419	1	8
638.589	1	7
638.759	1	2
638.928	1	-2
639.098	1	-11
639.267	1	0
639.437	1	-8
639.606	1	12
639.776	1	-11
639.946	1	0
640.115	1	-2
640.285	1	5
640.454	1	9
640.624	1	3
640.793	1	0
640.963	1	-15
641.132	1	4
641.302	1	-8
641.472	1	4
641.641	1	7
641.811	1	-6
641.980	1	-3
642.150	1	-8
642.319	1	-1
642.489	1	-4
642.659	1	-7
642.828	1	-6
642.998	1	-9
643.167	1	-1
643.337	1	4
643.506	1	-7
643.676	1	2
643.845	1	-4
644.015	1	-3
644.184	1	3
644.354	1	-5
644.524	1	-7
644.693	1	-1
644.863	1	-9
645.032	1	-5
645.202	1	-2
645.371	1	0
645.541	1	-19
645.710	1	3
645.880	1	-8
646.049	1	4
646.219	1	4
646.388	1	4
646.558	1	-3
646.728	1	2
646.897	1	-3
647.067	1	-3
647.236	1	-4
647.406	1	-9
647.575	1	3
647.745	1	1
647.914	1	-7
648.084	1	-7
648.253	1	-7
648.423	1	-5
648.592	1	-5
648.762	1	0
648.931	1	6
649.101	1	-4
649.270	1	2
649.440	1	10
649.610	1	6
649.779	1	-1
649.949	1	-3
650.118	1	-8
650.288	1	-1
650.457	1	-3
650.627	1	-11
650.796	1	-3
650.966	1	-12
651.135	1	5
651.305	1	-8
651.474	1	7
651.644	1	-8
651.813	1	7
651.983	1	-5
652.152	1	-11
652.322	1	17
652.491	1	-1
652.661	1	0
652.830	1	5
653.000	1	-7
653.169	1	-1
653.339	1	-4
653.508	1	-1
653.678	1	0
653.847	1	1
654.017	1	-4
654.186	1	-3
654.356	1	2
654.525	1	4
654.695	1	4
654.864	1	9
655.034	1	-5
655.203	1	3
655.373	1	-3
655.542	1	-3
655.712	1	-10
655.881	1	3
656.051	1	2
656.220	1	4
656.390	1	-4
656.559	1	-5
656.729	1	1
656.898	1	-1
657.068	1	-12
657.237	1	7
657.406	1	2
657.576	1	2
657.745	1	-6
657.915	1	0
658.084	1	6
658.254	1	-5
658.423	1	-10
658.593	1	-10
658.762	1	-6
658.932	1	-6
659.101	1	-9
659.271	1	-2
659.440	1	3
659.610	1	3
659.779	1	-5
659.949	1	-5
660.118	1	5
660.288	1	1
660.457	1	-6
660.626	1	-9
660.796	1	0
660.965	1	6
661.135	1	1
661.304	1	5
661.474	1	5
661.643	1	-18
661.813	1	-1
661.982	1	6
662.152	1	-2
662.321	1	0
662.491	1	0
662.660	1	-1
662.829	1	0
662.999	1	-5
663.168	1	-1
663.338	1	-4
663.507	1	0
663.677	1	-18
663.846	1	0
664.016	1	-9
664.185	1	-14
664.354	1	6
664.524	1	-7
664.693	1	4
664.863	1	1
665.032	1	11
665.202	1	-2
665.371	1	-11
665.541	1	-12
665.710	1	-6
665.879	1	2
666.049	1	2
666.218	1	-8
666.388	1	-5
666.557	1	10
666.727	1	-20
666.896	1	-2
667.065	1	4
667.235	1	-9
667.404	1	-16
667.574	1	1
667.743	1	-7
667.913	1	4
668.082	1	-5
668.251	1	1
668.421	1	-1
668.590	1	-4
668.760	1	-9
668.929	1	-1
669.099	1	-8
669.268	1	2
669.437	1	3
669.607	1	-3
669.776	1	-3
669.946	1	4
670.115	1	-1
670.285	1	-3
670.454	1	-2
670.623	1	0
670.793	1	-10
670.962	1	-4
671.132	1	2
671.301	1	-11
671.470	1	-2
671.640	1	-17
671.809	1	-4
671.979	1	11
672.148	1	-1
672.317	1	-2
672.487	1	-14
672.656	1	-2
672.826	1	-14
672.995	1	3
673.164	1	3
673.334	1	6
673.503	1	-2
673.673	1	11
673.842	1	1
674.011	1	4
674.181	1	-10
674.350	1	-13
674.520	1	-7
674.689	1	-4
674.858	1	0
675.028	1	-2
675.197	1	4
675.367	1	-4
675.536	1	6
675.705	1	-7
675.875	1	6
676.044	1	-8
676.214	1	-8
676.383	1	-4
676.552	1	-11
676.722	1	0
676.891	1	-13
677.060	1	2
677.230	1	2
677.399	1	2
677.569	1	-9
677.738	1	-8
677.907	1	-18
678.077	1	5
678.246	1	-10
678.416	1	1
678.585	1	11
678.754	1	-4
678.924	1	-14
679.093	1	2
679.262	1	-3
679.432	1	-13
679.601	1	-16
679.771	1	-4
679.940	1	-2
680.109	1	-1
680.279	1	-5
680.448	1	2
680.617	1	-13
680.787	1	-2
680.956	1	-9
681.125	1	7
681.295	1	-4
681.464	1	-7
681.634	1	0
681.803	1	-17
681.972	1	-5
682.142	1	15
682.311	1	-2
682.480	1	1
682.650	1	-17
682.819	1	-1
682.988	1	-5
683.158	1	-3
683.327	1	1
683.496	1	-1
683.666	1	2
683.835	1	5
684.004	1	6
684.174	1	-7
684.343	1	-10
684.512	1	-2
684.682	1	-2
684.851	1	-8
685.021	1	4
685.190	1	2
685.359	1	-6
685.529	1	-2
685.698	1	-3
685.867	1	-3
686.037	1	3
686.206	1	1
686.375	1	9
686.545	1	2
686.714	1	-16
686.883	1	-15
687.053	1	-3
687.222	1	-1
687.391	1	1
687.561	1	-6
687.730	1	-2
687.899	1	-2
688.069	1	-3
688.238	1	1
688.407	1	-2
688.577	1	-11
688.746	1	-1
