340.368	1	6
340.539	1	7
340.710	1	2
340.881	1	15
341.052	1	1
341.223	1	7
341.394	1	-2
341.565	1	-7
341.737	1	10
341.908	1	0
342.079	1	10
342.250	1	13
342.421	1	10
342.592	1	-2
342.763	1	0
342.934	1	12
343.105	1	14
343.276	1	-3
343.447	1	2
343.618	1	0
343.789	1	-10
343.960	1	2
344.131	1	8
344.302	1	8
344.473	1	5
344.644	1	-3
344.815	1	9
344.986	1	5
345.157	1	10
345.328	1	1
345.499	1	4
345.670	1	9
345.841	1	7
346.012	1	10
346.183	1	4
346.354	1	8
346.526	1	9
346.697	1	3
346.868	1	-1
347.039	1	3
347.210	1	10
347.381	1	6
347.552	1	-1
347.723	1	-4
347.894	1	4
348.065	1	14
348.236	1	14
348.407	1	3
348.578	1	11
348.749	1	3
348.920	1	19
349.091	1	8
349.262	1	1
349.433	1	-6
349.604	1	9
349.775	1	18
349.946	1	6
350.117	1	9
350.288	1	0
350.459	1	20
350.630	1	4
350.801	1	10
350.972	1	5
351.143	1	-2
351.314	1	-1
351.485	1	-5
351.656	1	11
351.827	1	10
351.998	1	8
352.169	1	9
352.340	1	14
352.511	1	7
352.682	1	5
352.853	1	7
353.024	1	1
353.195	1	-2
353.366	1	5
353.537	1	7
353.708	1	20
353.879	1	9
354.050	1	10
354.221	1	4
354.392	1	11
354.563	1	14
354.734	1	11
354.905	1	16
355.076	1	18
355.247	1	-7
355.418	1	7
355.589	1	11
355.760	1	11
355.931	1	13
356.102	1	-1
356.273	1	15
356.444	1	10
356.615	1	9
356.785	1	15
356.956	1	5
357.127	1	12
357.298	1	16
357.469	1	11
357.640	1	17
357.811	1	11
357.982	1	11
358.153	1	9
358.324	1	8
358.495	1	16
358.666	1	10
358.837	1	14
359.008	1	15
359.179	1	12
359.350	1	16
359.521	1	16
359.692	1	24
359.863	1	3
360.034	1	13
360.205	1	18
360.376	1	13
360.547	1	16
360.718	1	10
360.889	1	23
361.060	1	27
361.231	1	28
361.401	1	25
361.572	1	12
361.743	1	11
361.914	1	12
362.085	1	16
362.256	1	24
362.427	1	24
362.598	1	25
362.769	1	37
362.940	1	30
363.111	1	32
363.282	1	28
363.453	1	32
363.624	1	33
363.795	1	40
363.966	1	39
364.137	1	45
364.308	1	39
364.478	1	48
364.649	1	45
364.820	1	44
364.991	1	53
365.162	1	38
365.333	1	51
365.504	1	47
365.675	1	47
365.846	1	46
366.017	1	56
366.188	1	46
366.359	1	58
366.530	1	65
366.701	1	49
366.871	1	69
367.042	1	61
367.213	1	57
367.384	1	62
367.555	1	56
367.726	1	70
367.897	1	63
368.068	1	57
368.239	1	60
368.410	1	43
368.581	1	58
368.752	1	47
368.923	1	44
369.093	1	49
369.264	1	39
369.435	1	55
369.606	1	52
369.777	1	46
369.948	1	58
370.119	1	53
370.290	1	49
370.461	1	46
370.632	1	43
370.803	1	45
370.973	1	40
371.144	1	44
371.315	1	49
371.486	1	42
371.657	1	27
371.828	1	37
371.999	1	40
372.170	1	35
372.341	1	41
372.512	1	38
372.682	1	23
372.853	1	41
373.024	1	32
373.195	1	19
373.366	1	32
373.537	1	35
373.708	1	34
373.879	1	38
374.050	1	43
374.220	1	41
374.391	1	26
374.562	1	32
374.733	1	38
374.904	1	27
375.075	1	26
375.246	1	31
375.417	1	14
375.588	1	27
375.758	1	25
375.929	1	22
376.100	1	39
376.271	1	18
376.442	1	21
376.613	1	14
376.784	1	30
376.955	1	9
377.125	1	21
377.296	1	26
377.467	1	17
377.638	1	20
377.809	1	26
377.980	1	27
378.151	1	15
378.321	1	19
378.492	1	15
378.663	1	16
378.834	1	27
379.005	1	21
379.176	1	22
379.347	1	24
379.518	1	4
379.688	1	15
379.859	1	22
380.030	1	18
380.201	1	10
380.372	1	19
380.543	1	22
380.714	1	20
380.884	1	20
381.055	1	29
381.226	1	23
381.397	1	18
381.568	1	18
381.739	1	28
381.910	1	29
382.080	1	16
382.251	1	24
382.422	1	32
382.593	1	28
382.764	1	27
382.935	1	35
383.105	1	32
383.276	1	28
383.447	1	48
383.618	1	41
383.789	1	40
383.960	1	36
384.130	1	41
384.301	1	45
384.472	1	52
384.643	1	48
384.814	1	59
384.985	1	49
385.156	1	64
385.326	1	53
385.497	1	63
385.668	1	56
385.839	1	64
386.010	1	61
386.180	1	62
386.351	1	57
386.522	1	64
386.693	1	62
386.864	1	58
387.035	1	62
387.205	1	62
387.376	1	77
387.547	1	70
387.718	1	78
387.889	1	74
388.060	1	59
388.230	1	63
388.401	1	73
388.572	1	60
388.743	1	67
388.914	1	62
389.084	1	68
389.255	1	79
389.426	1	61
389.597	1	45
389.768	1	62
389.939	1	67
390.109	1	57
390.280	1	70
390.451	1	59
390.622	1	57
390.793	1	49
390.963	1	63
391.134	1	45
391.305	1	57
391.476	1	70
391.647	1	58
391.817	1	46
391.988	1	56
392.159	1	59
392.330	1	67
392.501	1	52
392.671	1	55
392.842	1	55
393.013	1	68
393.184	1	62
393.355	1	68
393.525	1	55
393.696	1	49
393.867	1	50
394.038	1	39
394.208	1	57
394.379	1	47
394.550	1	61
394.721	1	56
394.892	1	64
395.062	1	51
395.233	1	59
395.404	1	54
395.575	1	58
395.746	1	41
395.916	1	54
396.087	1	54
396.258	1	52
396.429	1	64
396.599	1	60
396.770	1	63
396.941	1	74
397.112	1	58
397.283	1	66
397.453	1	43
397.624	1	56
397.795	1	55
397.966	1	75
398.136	1	56
398.307	1	58
398.478	1	51
398.649	1	60
398.819	1	61
398.990	1	67
399.161	1	57
399.332	1	61
399.503	1	49
399.673	1	51
399.844	1	60
400.015	1	62
400.186	1	60
400.356	1	46
400.527	1	58
400.698	1	51
400.869	1	55
401.039	1	48
401.210	1	42
401.381	1	51
401.552	1	64
401.722	1	62
401.893	1	51
402.064	1	45
402.235	1	53
402.405	1	43
402.576	1	51
402.747	1	43
402.918	1	33
403.088	1	34
403.259	1	39
403.430	1	40
403.601	1	26
403.771	1	46
403.942	1	42
404.113	1	50
404.284	1	43
404.454	1	52
404.625	1	42
404.796	1	41
404.967	1	40
405.137	1	46
405.308	1	44
405.479	1	44
405.649	1	41
405.820	1	39
405.991	1	37
406.162	1	36
406.332	1	30
406.503	1	25
406.674	1	44
406.845	1	42
407.015	1	14
407.186	1	46
407.357	1	37
407.527	1	35
407.698	1	36
407.869	1	35
408.040	1	27
408.210	1	31
408.381	1	31
408.552	1	44
408.722	1	37
408.893	1	30
409.064	1	38
409.235	1	27
409.405	1	33
409.576	1	34
409.747	1	27
409.917	1	31
410.088	1	45
410.259	1	15
410.430	1	32
410.600	1	40
410.771	1	39
410.942	1	40
411.112	1	35
411.283	1	40
411.454	1	41
411.625	1	23
411.795	1	33
411.966	1	28
412.137	1	41
412.307	1	29
412.478	1	31
412.649	1	34
412.819	1	20
412.990	1	34
413.161	1	35
413.332	1	33
413.502	1	40
413.673	1	29
413.844	1	35
414.014	1	31
414.185	1	22
414.356	1	23
414.526	1	36
414.697	1	31
414.868	1	26
415.038	1	32
415.209	1	25
415.380	1	28
415.550	1	25
415.721	1	15
415.892	1	20
416.063	1	28
416.233	1	25
416.404	1	27
416.575	1	25
416.745	1	12
416.916	1	14
417.087	1	7
417.257	1	25
417.428	1	28
417.599	1	29
417.769	1	30
417.940	1	21
418.111	1	22
418.281	1	26
418.452	1	12
418.623	1	15
418.793	1	30
418.964	1	20
419.135	1	24
419.305	1	30
419.476	1	26
419.647	1	34
419.817	1	23
419.988	1	17
420.159	1	10
420.329	1	30
420.500	1	26
420.671	1	37
420.841	1	26
421.012	1	26
421.183	1	34
421.353	1	31
421.524	1	20
421.695	1	22
421.865	1	18
422.036	1	20
422.206	1	17
422.377	1	21
422.548	1	16
422.718	1	18
422.889	1	28
423.060	1	23
423.230	1	27
423.401	1	15
423.572	1	29
423.742	1	32
423.913	1	21
424.084	1	17
424.254	1	18
424.425	1	17
424.595	1	10
424.766	1	24
424.937	1	23
425.107	1	30
425.278	1	7
425.449	1	24
425.619	1	21
425.790	1	13
425.961	1	16
426.131	1	22
426.302	1	16
426.472	1	10
426.643	1	17
426.814	1	27
426.984	1	15
427.155	1	14
427.326	1	17
427.496	1	24
427.667	1	22
427.837	1	18
428.008	1	15
428.179	1	7
428.349	1	6
428.520	1	16
428.691	1	19
428.861	1	17
429.032	1	12
429.202	1	23
429.373	1	7
429.544	1	17
429.714	1	24
429.885	1	16
430.055	1	22
430.226	1	12
430.397	1	24
430.567	1	31
430.738	1	18
430.909	1	4
431.079	1	22
431.250	1	3
431.420	1	13
431.591	1	18
431.762	1	18
431.932	1	18
432.103	1	14
432.273	1	17
432.444	1	22
432.615	1	20
432.785	1	10
432.956	1	19
433.126	1	8
433.297	1	15
433.468	1	16
433.638	1	5
433.809	1	15
433.979	1	15
434.150	1	11
434.320	1	18
434.491	1	12
434.662	1	6
434.832	1	12
435.003	1	15
435.173	1	8
435.344	1	14
435.515	1	14
435.685	1	14
435.856	1	12
436.026	1	19
436.197	1	11
436.368	1	17
436.538	1	22
436.709	1	3
436.879	1	10
437.050	1	9
437.220	1	26
437.391	1	9
437.562	1	23
437.732	1	12
437.903	1	22
438.073	1	14
438.244	1	6
438.414	1	17
438.585	1	16
438.756	1	6
438.926	1	13
439.097	1	12
439.267	1	24
439.438	1	18
439.608	1	12
439.779	1	10
439.949	1	5
440.120	1	13
440.291	1	9
440.461	1	11
440.632	1	18
440.802	1	20
440.973	1	15
441.143	1	20
441.314	1	11
441.485	1	9
441.655	1	16
441.826	1	-1
441.996	1	14
442.167	1	5
442.337	1	9
442.508	1	9
442.678	1	10
442.849	1	19
443.019	1	14
443.190	1	11
443.361	1	22
443.531	1	10
443.702	1	8
443.872	1	9
444.043	1	20
444.213	1	6
444.384	1	8
444.554	1	10
444.725	1	17
444.895	1	8
445.066	1	0
445.237	1	3
445.407	1	16
445.578	1	16
445.748	1	10
445.919	1	11
446.089	1	18
446.260	1	6
446.430	1	4
446.601	1	11
446.771	1	17
446.942	1	13
447.112	1	9
447.283	1	11
447.453	1	-1
447.624	1	10
447.794	1	2
447.965	1	2
448.135	1	15
448.306	1	11
448.477	1	4
448.647	1	21
448.818	1	21
448.988	1	1
449.159	1	2
449.329	1	8
449.500	1	16
449.670	1	9
449.841	1	9
450.011	1	18
450.182	1	5
450.352	1	12
450.523	1	4
450.693	1	13
450.864	1	9
451.034	1	19
451.205	1	16
451.375	1	19
451.546	1	16
451.716	1	13
451.887	1	8
452.057	1	19
452.228	1	0
452.398	1	15
452.569	1	12
452.739	1	13
452.910	1	2
453.080	1	26
453.251	1	7
453.421	1	13
453.592	1	1
453.762	1	24
453.933	1	20
454.103	1	11
454.274	1	5
454.444	1	14
454.615	1	17
454.785	1	-1
454.956	1	11
455.126	1	12
455.297	1	12
455.467	1	11
455.638	1	6
455.808	1	8
455.979	1	18
456.149	1	0
456.320	1	4
456.490	1	10
456.661	1	-4
456.831	1	17
457.001	1	11
457.172	1	1
457.342	1	4
457.513	1	11
457.683	1	14
457.854	1	4
458.024	1	7
458.195	1	0
458.365	1	16
458.536	1	21
458.706	1	0
458.877	1	0
459.047	1	13
459.218	1	6
459.388	1	8
459.559	1	10
459.729	1	13
459.899	1	18
460.070	1	7
460.240	1	7
460.411	1	8
460.581	1	8
460.752	1	13
460.922	1	17
461.093	1	10
461.263	1	7
461.434	1	18
461.604	1	11
461.775	1	12
461.945	1	16
462.115	1	1
462.286	1	22
462.456	1	-4
462.627	1	11
462.797	1	6
462.968	1	-9
463.138	1	19
463.309	1	7
463.479	1	16
463.649	1	9
463.820	1	8
463.990	1	11
464.161	1	14
464.331	1	8
464.502	1	10
464.672	1	6
464.843	1	13
465.013	1	2
465.183	1	9
465.354	1	8
465.524	1	15
465.695	1	18
465.865	1	-1
466.036	1	11
466.206	1	0
466.376	1	5
466.547	1	9
466.717	1	8
466.888	1	9
467.058	1	13
467.229	1	11
467.399	1	11
467.569	1	9
467.740	1	8
467.910	1	8
468.081	1	6
468.251	1	9
468.422	1	13
468.592	1	13
468.762	1	5
468.933	1	11
469.103	1	6
469.274	1	8
469.444	1	3
469.614	1	10
469.785	1	10
469.955	1	9
470.126	1	11
470.296	1	13
470.467	1	-1
470.637	1	18
470.807	1	6
470.978	1	2
471.148	1	-3
471.319	1	11
471.489	1	12
471.659	1	10
471.830	1	23
472.000	1	20
472.171	1	7
472.341	1	10
472.511	1	6
472.682	1	13
472.852	1	8
473.023	1	-3
473.193	1	0
473.363	1	11
473.534	1	6
473.704	1	8
473.875	1	15
474.045	1	-6
474.215	1	9
474.386	1	16
474.556	1	-1
474.727	1	7
474.897	1	6
475.067	1	7
475.238	1	23
475.408	1	13
475.578	1	4
475.749	1	2
475.919	1	12
476.090	1	0
476.260	1	11
476.430	1	14
476.601	1	8
476.771	1	2
476.942	1	11
477.112	1	10
477.282	1	-8
477.453	1	5
477.623	1	10
477.793	1	15
477.964	1	25
478.134	1	8
478.305	1	11
478.475	1	8
478.645	1	15
478.816	1	-2
478.986	1	5
479.156	1	2
479.327	1	7
479.497	1	10
479.667	1	7
479.838	1	13
480.008	1	18
480.179	1	15
480.349	1	12
480.519	1	1
480.690	1	9
480.860	1	7
481.030	1	12
481.201	1	10
481.371	1	9
481.541	1	3
481.712	1	12
481.882	1	5
482.053	1	12
482.223	1	1
482.393	1	-5
482.564	1	-3
482.734	1	12
482.904	1	19
483.075	1	20
483.245	1	11
483.415	1	10
483.586	1	3
483.756	1	27
483.926	1	10
484.097	1	4
484.267	1	7
484.437	1	-3
484.608	1	11
484.778	1	8
484.948	1	0
485.119	1	14
485.289	1	16
485.459	1	14
485.630	1	12
485.800	1	4
485.970	1	12
486.141	1	-4
486.311	1	11
486.481	1	12
486.652	1	21
486.822	1	8
486.992	1	11
487.163	1	-3
487.333	1	14
487.503	1	-4
487.674	1	21
487.844	1	11
488.014	1	10
488.185	1	4
488.355	1	8
488.525	1	10
488.696	1	3
488.866	1	12
489.036	1	8
489.207	1	20
489.377	1	21
489.547	1	11
489.718	1	3
489.888	1	15
490.058	1	11
490.228	1	4
490.399	1	17
490.569	1	18
490.739	1	13
490.910	1	3
491.080	1	5
491.250	1	8
491.421	1	16
491.591	1	10
491.761	1	10
491.932	1	28
492.102	1	3
492.272	1	16
492.442	1	13
492.613	1	17
492.783	1	3
492.953	1	18
493.124	1	6
493.294	1	18
493.464	1	9
493.635	1	10
493.805	1	19
493.975	1	15
494.145	1	23
494.316	1	23
494.486	1	16
494.656	1	14
494.827	1	9
494.997	1	13
495.167	1	17
495.337	1	23
495.508	1	10
495.678	1	19
495.848	1	23
496.019	1	1
496.189	1	18
496.359	1	19
496.529	1	9
496.700	1	13
496.870	1	15
497.040	1	7
497.211	1	19
497.381	1	-9
497.551	1	28
497.721	1	15
497.892	1	20
498.062	1	24
498.232	1	15
498.403	1	16
498.573	1	11
498.743	1	21
498.913	1	23
499.084	1	4
499.254	1	21
499.424	1	24
499.594	1	24
499.765	1	14
499.935	1	15
500.105	1	21
500.275	1	17
500.446	1	17
500.616	1	18
500.786	1	17
500.956	1	22
501.127	1	32
501.297	1	24
501.467	1	23
501.638	1	19
501.808	1	16
501.978	1	26
502.148	1	25
502.319	1	18
502.489	1	32
502.659	1	19
502.829	1	19
503.000	1	16
503.170	1	28
503.340	1	21
503.510	1	28
503.681	1	30
503.851	1	2
504.021	1	35
504.191	1	22
504.362	1	27
504.532	1	12
504.702	1	32
504.872	1	20
505.042	1	24
505.213	1	11
505.383	1	25
505.553	1	29
505.723	1	18
505.894	1	26
506.064	1	28
506.234	1	20
506.404	1	23
506.575	1	27
506.745	1	30
506.915	1	18
507.085	1	24
507.256	1	25
507.426	1	30
507.596	1	28
507.766	1	21
507.936	1	32
508.107	1	32
508.277	1	25
508.447	1	34
508.617	1	32
508.788	1	30
508.958	1	34
509.128	1	26
509.298	1	38
509.468	1	38
509.639	1	26
509.809	1	31
509.979	1	34
510.149	1	35
510.319	1	24
510.490	1	48
510.660	1	32
510.830	1	25
511.000	1	40
511.171	1	37
511.341	1	25
511.511	1	30
511.681	1	28
511.851	1	25
512.022	1	17
512.192	1	37
512.362	1	35
512.532	1	30
512.702	1	21
512.873	1	46
513.043	1	43
513.213	1	35
513.383	1	40
513.553	1	27
513.724	1	38
513.894	1	31
514.064	1	39
514.234	1	36
514.404	1	31
514.575	1	39
514.745	1	34
514.915	1	38
515.085	1	43
515.255	1	23
515.425	1	28
515.596	1	33
515.766	1	32
515.936	1	33
516.106	1	31
516.276	1	36
516.447	1	36
516.617	1	38
516.787	1	32
516.957	1	28
517.127	1	43
517.297	1	38
517.468	1	29
517.638	1	47
517.808	1	46
517.978	1	34
518.148	1	51
518.319	1	43
518.489	1	37
518.659	1	47
518.829	1	32
518.999	1	40
519.169	1	45
519.340	1	51
519.510	1	44
519.680	1	31
519.850	1	37
520.020	1	39
520.190	1	44
520.361	1	37
520.531	1	45
520.701	1	37
520.871	1	28
521.041	1	50
521.211	1	48
521.382	1	45
521.552	1	45
521.722	1	54
521.892	1	42
522.062	1	45
522.232	1	36
522.402	1	33
522.573	1	36
522.743	1	49
522.913	1	38
523.083	1	41
523.253	1	38
523.423	1	43
523.593	1	42
523.764	1	55
523.934	1	44
524.104	1	45
524.274	1	37
524.444	1	39
524.614	1	46
524.784	1	46
524.955	1	45
525.125	1	41
525.295	1	34
525.465	1	47
525.635	1	66
525.805	1	43
525.975	1	34
526.146	1	31
526.316	1	37
526.486	1	50
526.656	1	58
526.826	1	52
526.996	1	45
527.166	1	48
527.337	1	41
527.507	1	36
527.677	1	54
527.847	1	37
528.017	1	42
528.187	1	35
528.357	1	54
528.527	1	52
528.698	1	40
528.868	1	43
529.038	1	52
529.208	1	45
529.378	1	43
529.548	1	49
529.718	1	50
529.888	1	51
530.058	1	45
530.229	1	48
530.399	1	50
530.569	1	49
530.739	1	49
530.909	1	55
531.079	1	51
531.249	1	46
531.419	1	57
531.589	1	45
531.760	1	50
531.930	1	45
532.100	1	59
532.270	1	54
532.440	1	41
532.610	1	52
532.780	1	43
532.950	1	48
533.120	1	38
533.290	1	47
533.461	1	65
533.631	1	45
533.801	1	49
533.971	1	43
534.141	1	58
534.311	1	50
534.481	1	48
534.651	1	44
534.821	1	53
534.991	1	40
535.162	1	46
535.332	1	43
535.502	1	44
535.672	1	45
535.842	1	48
536.012	1	49
536.182	1	46
536.352	1	44
536.522	1	48
536.692	1	44
536.862	1	48
537.032	1	43
537.203	1	49
537.373	1	31
537.543	1	47
537.713	1	53
537.883	1	58
538.053	1	44
538.223	1	50
538.393	1	50
538.563	1	47
538.733	1	41
538.903	1	44
539.073	1	53
539.243	1	47
539.413	1	48
539.584	1	40
539.754	1	37
539.924	1	47
540.094	1	37
540.264	1	48
540.434	1	43
540.604	1	53
540.774	1	41
540.944	1	27
541.114	1	33
541.284	1	35
541.454	1	44
541.624	1	42
541.794	1	43
541.964	1	45
542.134	1	53
542.305	1	33
542.475	1	45
542.645	1	45
542.815	1	55
542.985	1	34
543.155	1	38
543.325	1	37
543.495	1	36
543.665	1	48
543.835	1	34
544.005	1	43
544.175	1	40
544.345	1	36
544.515	1	41
544.685	1	38
544.855	1	46
545.025	1	40
545.195	1	43
545.365	1	46
545.535	1	45
545.705	1	42
545.875	1	34
546.045	1	51
546.216	1	50
546.386	1	41
546.556	1	41
546.726	1	37
546.896	1	32
547.066	1	33
547.236	1	36
547.406	1	51
547.576	1	41
547.746	1	52
547.916	1	43
548.086	1	45
548.256	1	42
548.426	1	34
548.596	1	39
548.766	1	37
548.936	1	37
549.106	1	44
549.276	1	49
549.446	1	38
549.616	1	43
549.786	1	31
549.956	1	41
550.126	1	33
550.296	1	34
550.466	1	41
550.636	1	38
550.806	1	41
550.976	1	46
551.146	1	33
551.316	1	43
551.486	1	37
551.656	1	29
551.826	1	37
551.996	1	41
552.166	1	41
552.336	1	42
552.506	1	42
552.676	1	38
552.846	1	41
553.016	1	41
553.186	1	36
553.356	1	29
553.526	1	36
553.696	1	36
553.866	1	41
554.036	1	34
554.206	1	28
554.376	1	27
554.546	1	23
554.716	1	35
554.886	1	32
555.056	1	26
555.226	1	35
555.396	1	32
555.566	1	26
555.736	1	32
555.906	1	36
556.076	1	22
556.246	1	38
556.416	1	44
556.586	1	40
556.756	1	40
556.926	1	51
557.096	1	33
557.266	1	45
557.436	1	45
557.606	1	20
557.776	1	36
557.946	1	50
558.116	1	28
558.286	1	52
558.456	1	30
558.626	1	38
558.796	1	35
558.966	1	35
559.136	1	34
559.306	1	29
559.476	1	25
559.646	1	17
559.816	1	45
559.986	1	23
560.155	1	28
560.325	1	28
560.495	1	18
560.665	1	31
560.835	1	35
561.005	1	22
561.175	1	25
561.345	1	21
561.515	1	22
561.685	1	29
561.855	1	31
562.025	1	14
562.195	1	30
562.365	1	30
562.535	1	29
562.705	1	34
562.875	1	26
563.045	1	28
563.215	1	18
563.385	1	16
563.555	1	26
563.725	1	28
563.895	1	22
564.064	1	27
564.234	1	18
564.404	1	22
564.574	1	24
564.744	1	29
564.914	1	24
565.084	1	18
565.254	1	21
565.424	1	25
565.594	1	16
565.764	1	25
565.934	1	24
566.104	1	18
566.274	1	22
566.444	1	26
566.614	1	22
566.783	1	22
566.953	1	19
567.123	1	30
567.293	1	15
567.463	1	23
567.633	1	22
567.803	1	15
567.973	1	20
568.143	1	14
568.313	1	11
568.483	1	20
568.653	1	8
568.823	1	24
568.993	1	17
569.162	1	24
569.332	1	13
569.502	1	30
569.672	1	22
569.842	1	20
570.012	1	14
570.182	1	15
570.352	1	33
570.522	1	21
570.692	1	22
570.862	1	19
571.031	1	20
571.201	1	28
571.371	1	18
571.541	1	14
571.711	1	23
571.881	1	24
572.051	1	20
572.221	1	25
572.391	1	22
572.561	1	13
572.731	1	22
572.900	1	36
573.070	1	23
573.240	1	14
573.410	1	21
573.580	1	24
573.750	1	26
573.920	1	17
574.090	1	16
574.260	1	16
574.430	1	15
574.599	1	15
574.769	1	19
574.939	1	16
575.109	1	20
575.279	1	18
575.449	1	20
575.619	1	22
575.789	1	26
575.959	1	14
576.128	1	19
576.298	1	18
576.468	1	13
576.638	1	15
576.808	1	15
576.978	1	16
577.148	1	22
577.318	1	21
577.487	1	11
577.657	1	4
577.827	1	24
577.997	1	15
578.167	1	13
578.337	1	9
578.507	1	11
578.677	1	10
578.846	1	11
579.016	1	33
579.186	1	6
579.356	1	13
579.526	1	16
579.696	1	18
579.866	1	15
580.036	1	22
580.205	1	15
580.375	1	12
580.545	1	14
580.715	1	23
580.885	1	10
581.055	1	15
581.225	1	7
581.394	1	14
581.564	1	16
581.734	1	21
581.904	1	10
582.074	1	25
582.244	1	13
582.414	1	13
582.583	1	5
582.753	1	24
582.923	1	10
583.093	1	8
583.263	1	22
583.433	1	4
583.603	1	14
583.772	1	14
583.942	1	15
584.112	1	24
584.282	1	25
584.452	1	19
584.622	1	12
584.791	1	18
584.961	1	23
585.131	1	4
585.301	1	21
585.471	1	15
585.641	1	12
585.811	1	12
585.980	1	4
586.150	1	15
586.320	1	-1
586.490	1	9
586.660	1	18
586.830	1	12
586.999	1	11
587.169	1	8
587.339	1	17
587.509	1	11
587.679	1	15
587.849	1	22
588.018	1	11
588.188	1	2
588.358	1	12
588.528	1	17
588.698	1	11
588.867	1	14
589.037	1	19
589.207	1	5
589.377	1	20
589.547	1	2
589.717	1	17
589.886	1	4
590.056	1	15
590.226	1	9
590.396	1	15
590.566	1	14
590.735	1	22
590.905	1	10
591.075	1	2
591.245	1	11
591.415	1	10
591.585	1	-2
591.754	1	6
591.924	1	6
592.094	1	21
592.264	1	14
592.434	1	12
592.603	1	1
592.773	1	7
592.943	1	11
593.113	1	11
593.283	1	20
593.452	1	-6
593.622	1	3
593.792	1	6
593.962	1	10
594.132	1	9
594.301	1	22
594.471	1	15
594.641	1	10
594.811	1	12
594.981	1	13
595.150	1	5
595.320	1	13
595.490	1	-1
595.660	1	14
595.829	1	0
595.999	1	19
596.169	1	13
596.339	1	14
596.509	1	11
596.678	1	10
596.848	1	17
597.018	1	9
597.188	1	4
597.358	1	8
597.527	1	4
597.697	1	4
597.867	1	16
598.037	1	7
598.206	1	-1
598.376	1	9
598.546	1	7
598.716	1	-1
598.885	1	9
599.055	1	12
599.225	1	4
599.395	1	1
599.565	1	9
599.734	1	5
599.904	1	7
600.074	1	6
600.244	1	15
600.413	1	12
600.583	1	2
600.753	1	16
600.923	1	19
601.092	1	-1
601.262	1	18
601.432	1	6
601.602	1	15
601.771	1	17
601.941	1	11
602.111	1	-5
602.281	1	12
602.451	1	10
602.620	1	12
602.790	1	8
602.960	1	0
603.130	1	1
603.299	1	14
603.469	1	7
603.639	1	13
603.809	1	14
603.978	1	2
604.148	1	14
604.318	1	6
604.487	1	12
604.657	1	14
604.827	1	9
604.997	1	4
605.166	1	9
605.336	1	4
605.506	1	15
605.676	1	4
605.845	1	4
606.015	1	5
606.185	1	8
606.355	1	14
606.524	1	14
606.694	1	12
606.864	1	10
607.034	1	1
607.203	1	16
607.373	1	0
607.543	1	5
607.712	1	19
607.882	1	-5
608.052	1	11
608.222	1	9
608.391	1	4
608.561	1	12
608.731	1	7
608.901	1	4
609.070	1	5
609.240	1	15
609.410	1	10
609.579	1	5
609.749	1	10
609.919	1	4
610.089	1	5
610.258	1	9
610.428	1	4
610.598	1	17
610.767	1	17
610.937	1	7
611.107	1	12
611.277	1	16
611.446	1	3
611.616	1	0
611.786	1	22
611.955	1	20
612.125	1	18
612.295	1	9
612.465	1	2
612.634	1	8
612.804	1	13
612.974	1	15
613.143	1	9
613.313	1	11
613.483	1	7
613.652	1	8
613.822	1	5
613.992	1	13
614.162	1	5
614.331	1	15
614.501	1	7
614.671	1	10
614.840	1	10
615.010	1	17
615.180	1	3
615.349	1	11
615.519	1	10
615.689	1	14
615.858	1	11
616.028	1	3
616.198	1	15
616.368	1	1
616.537	1	4
616.707	1	3
616.877	1	8
617.046	1	9
617.216	1	10
617.386	1	6
617.555	1	1
617.725	1	14
617.895	1	6
618.064	1	4
618.234	1	-2
618.404	1	6
618.573	1	17
618.743	1	5
618.913	1	9
619.082	1	8
619.252	1	5
619.422	1	12
619.591	1	5
619.761	1	12
619.931	1	12
620.100	1	8
620.270	1	0
620.440	1	8
620.609	1	7
620.779	1	2
620.949	1	9
621.118	1	7
621.288	1	15
621.458	1	8
621.627	1	-6
621.797	1	10
621.967	1	3
622.136	1	15
622.306	1	15
622.476	1	5
622.645	1	14
622.815	1	12
622.985	1	11
623.154	1	12
623.324	1	9
623.494	1	11
623.663	1	5
623.833	1	4
624.002	1	3
624.172	1	16
624.342	1	3
624.511	1	13
624.681	1	1
624.851	1	5
625.020	1	5
625.190	1	5
625.360	1	4
625.529	1	19
625.699	1	7
625.869	1	16
626.038	1	1
626.208	1	7
626.377	1	11
626.547	1	10
626.717	1	5
626.886	1	-2
627.056	1	5
627.226	1	7
627.395	1	14
627.565	1	14
627.735	1	11
627.904	1	11
628.074	1	14
628.243	1	4
628.413	1	11
628.583	1	8
628.752	1	12
628.922	1	-1
629.091	1	12
629.261	1	11
629.431	1	-13
629.600	1	13
629.770	1	9
629.940	1	11
630.109	1	4
630.279	1	-1
630.448	1	-1
630.618	1	-1
630.788	1	-1
630.957	1	3
631.127	1	8
631.297	1	7
631.466	1	9
631.636	1	8
631.805	1	11
631.975	1	14
632.145	1	-9
632.314	1	17
632.484	1	0
632.653	1	9
632.823	1	15
632.993	1	12
633.162	1	4
633.332	1	16
633.501	1	-1
633.671	1	1
633.841	1	8
634.010	1	8
634.180	1	5
634.349	1	20
634.519	1	11
634.689	1	16
634.858	1	4
635.028	1	15
635.197	1	3
635.367	1	-2
635.537	1	-1
635.706	1	-4
635.876	1	1
636.045	1	10
636.215	1	10
636.384	1	16
636.554	1	14
636.724	1	5
636.893	1	7
637.063	1	19
637.232	1	11
637.402	1	11
637.572	1	2
637.741	1	14
637.911	1	4
638.080	1	8
638.250	1	12
638.419	1	10
638.589	1	23
638.759	1	9
638.928	1	-16
639.098	1	1
639.267	1	10
639.437	1	-2
639.606	1	16
639.776	1	7
639.946	1	9
640.115	1	0
640.285	1	8
640.454	1	19
640.624	1	16
640.793	1	10
640.963	1	-2
641.132	1	12
641.302	1	9
641.472	1	-3
641.641	1	8
641.811	1	10
641.980	1	5
642.150	1	7
642.319	1	15
642.489	1	1
642.659	1	-10
642.828	1	-2
642.998	1	6
643.167	1	13
643.337	1	9
643.506	1	-3
643.676	1	8
643.845	1	9
644.015	1	11
644.184	1	15
644.354	1	-1
644.524	1	-3
644.693	1	15
644.863	1	-6
645.032	1	13
645.202	1	7
645.371	1	3
645.541	1	-2
645.710	1	8
645.880	1	4
646.049	1	16
646.219	1	4
646.388	1	2
646.558	1	-2
646.728	1	6
646.897	1	3
647.067	1	3
647.236	1	10
647.406	1	5
647.575	1	9
647.745	1	6
647.914	1	-5
648.084	1	4
648.253	1	11
648.423	1	-9
648.592	1	15
648.762	1	-1
648.931	1	5
649.101	1	0
649.270	1	18
649.440	1	7
649.610	1	12
649.779	1	6
649.949	1	11
650.118	1	6
650.288	1	1
650.457	1	12
650.627	1	7
650.796	1	6
650.966	1	-1
651.135	1	14
651.305	1	2
651.474	1	12
651.644	1	1
651.813	1	15
651.983	1	4
652.152	1	-3
652.322	1	15
652.491	1	15
652.661	1	7
652.830	1	10
653.000	1	4
653.169	1	9
653.339	1	12
653.508	1	6
653.678	1	11
653.847	1	3
654.017	1	9
654.186	1	1
654.356	1	14
654.525	1	7
654.695	1	5
654.864	1	3
655.034	1	8
655.203	1	10
655.373	1	2
655.542	1	4
655.712	1	5
655.881	1	14
656.051	1	13
656.220	1	9
656.390	1	3
656.559	1	-3
656.729	1	10
656.898	1	4
657.068	1	4
657.237	1	3
657.406	1	6
657.576	1	4
657.745	1	1
657.915	1	18
658.084	1	8
658.254	1	10
658.423	1	-5
658.593	1	4
658.762	1	4
658.932	1	10
659.101	1	-4
659.271	1	12
659.440	1	6
659.610	1	2
659.779	1	1
659.949	1	3
660.118	1	10
660.288	1	2
660.457	1	-2
660.626	1	4
660.796	1	-3
660.965	1	5
661.135	1	0
661.304	1	-1
661.474	1	2
661.643	1	9
661.813	1	6
661.982	1	4
662.152	1	-1
662.321	1	9
662.491	1	14
662.660	1	6
662.829	1	-7
662.999	1	7
663.168	1	0
663.338	1	3
663.507	1	7
663.677	1	-2
663.846	1	13
664.016	1	6
664.185	1	5
664.354	1	10
664.524	1	-4
664.693	1	5
664.863	1	9
665.032	1	6
665.202	1	2
665.371	1	-1
665.541	1	3
665.710	1	-5
665.879	1	4
666.049	1	11
666.218	1	-7
666.388	1	-2
666.557	1	14
666.727	1	-16
666.896	1	3
667.065	1	11
667.235	1	4
667.404	1	-3
667.574	1	3
667.743	1	0
667.913	1	6
668.082	1	-2
668.251	1	4
668.421	1	10
668.590	1	9
668.760	1	6
668.929	1	8
669.099	1	-2
669.268	1	9
669.437	1	10
669.607	1	-4
669.776	1	4
669.946	1	9
670.115	1	2
670.285	1	2
670.454	1	10
670.623	1	9
670.793	1	1
670.962	1	8
671.132	1	16
671.301	1	1
671.470	1	-8
671.640	1	-4
671.809	1	-5
671.979	1	12
672.148	1	9
672.317	1	1
672.487	1	7
672.656	1	14
672.826	1	-5
672.995	1	2
673.164	1	14
673.334	1	12
673.503	1	4
673.673	1	21
673.842	1	18
674.011	1	11
674.181	1	-1
674.350	1	-7
674.520	1	2
674.689	1	11
674.858	1	5
675.028	1	6
675.197	1	1
675.367	1	12
675.536	1	11
675.705	1	9
675.875	1	9
676.044	1	7
676.214	1	4
676.383	1	4
676.552	1	3
676.722	1	9
676.891	1	-6
677.060	1	1
677.230	1	17
677.399	1	3
677.569	1	2
677.738	1	-1
677.907	1	-1
678.077	1	14
678.246	1	-2
678.416	1	10
678.585	1	1
678.754	1	-1
678.924	1	-2
679.093	1	10
679.262	1	2
679.432	1	1
679.601	1	-2
679.771	1	3
679.940	1	3
680.109	1	8
680.279	1	-1
680.448	1	0
680.617	1	10
680.787	1	6
680.956	1	5
681.125	1	10
681.295	1	9
681.464	1	7
681.634	1	6
681.803	1	-5
681.972	1	-6
682.142	1	17
682.311	1	3
682.480	1	11
682.650	1	-4
682.819	1	4
682.988	1	0
683.158	1	8
683.327	1	8
683.496	1	0
683.666	1	12
683.835	1	4
684.004	1	10
684.174	1	6
684.343	1	4
684.512	1	7
684.682	1	8
684.851	1	5
685.021	1	10
685.190	1	7
685.359	1	-6
685.529	1	4
685.698	1	4
685.867	1	8
686.037	1	9
686.206	1	4
686.375	1	8
686.545	1	15
686.714	1	9
686.883	1	1
687.053	1	9
687.222	1	2
687.391	1	8
687.561	1	9
687.730	1	6
687.899	1	8
688.069	1	-3
688.238	1	12
688.407	1	2
688.577	1	-6
688.746	1	11
