340.368	1	1
340.539	1	7
340.710	1	-8
340.881	1	10
341.052	1	4
341.223	1	2
341.394	1	-1
341.565	1	-12
341.737	1	12
341.908	1	7
342.079	1	-9
342.250	1	-3
342.421	1	-3
342.592	1	-7
342.763	1	-4
342.934	1	0
343.105	1	11
343.276	1	-3
343.447	1	6
343.618	1	6
343.789	1	1
343.960	1	-7
344.131	1	-6
344.302	1	-4
344.473	1	4
344.644	1	0
344.815	1	8
344.986	1	2
345.157	1	8
345.328	1	2
345.499	1	1
345.670	1	2
345.841	1	-8
346.012	1	9
346.183	1	2
346.354	1	3
346.526	1	2
346.697	1	3
346.868	1	-2
347.039	1	3
347.210	1	3
347.381	1	-4
347.552	1	4
347.723	1	3
347.894	1	3
348.065	1	-5
348.236	1	4
348.407	1	-4
348.578	1	4
348.749	1	4
348.920	1	8
349.091	1	7
349.262	1	-7
349.433	1	-10
349.604	1	15
349.775	1	3
349.946	1	1
350.117	1	4
350.288	1	-2
350.459	1	4
350.630	1	-8
350.801	1	-4
350.972	1	5
351.143	1	-6
351.314	1	-4
351.485	1	-5
351.656	1	0
351.827	1	-1
351.998	1	-7
352.169	1	11
352.340	1	3
352.511	1	4
352.682	1	-7
352.853	1	-9
353.024	1	-7
353.195	1	-2
353.366	1	3
353.537	1	-2
353.708	1	9
353.879	1	14
354.050	1	3
354.221	1	-6
354.392	1	4
354.563	1	9
354.734	1	5
354.905	1	2
355.076	1	4
355.247	1	-11
355.418	1	1
355.589	1	6
355.760	1	-1
355.931	1	-1
356.102	1	4
356.273	1	-1
356.444	1	2
356.615	1	-1
356.785	1	6
356.956	1	-6
357.127	1	1
357.298	1	5
357.469	1	-2
357.640	1	9
357.811	1	12
357.982	1	-7
358.153	1	4
358.324	1	0
358.495	1	11
358.666	1	-5
358.837	1	-4
359.008	1	0
359.179	1	0
359.350	1	-6
359.521	1	12
359.692	1	7
359.863	1	-2
360.034	1	3
360.205	1	-3
360.376	1	0
360.547	1	-4
360.718	1	-6
360.889	1	7
361.060	1	7
361.231	1	1
361.401	1	7
361.572	1	6
361.743	1	-1
361.914	1	4
362.085	1	4
362.256	1	11
362.427	1	-4
362.598	1	2
362.769	1	9
362.940	1	-7
363.111	1	15
363.282	1	11
363.453	1	7
363.624	1	1
363.795	1	5
363.966	1	3
364.137	1	-4
364.308	1	-5
364.478	1	11
364.649	1	3
364.820	1	0
364.991	1	9
365.162	1	-3
365.333	1	4
365.504	1	-7
365.675	1	-3
365.846	1	-10
366.017	1	-2
366.188	1	-5
366.359	1	10
366.530	1	9
366.701	1	-11
366.871	1	7
367.042	1	13
367.213	1	12
367.384	1	6
367.555	1	7
367.726	1	7
367.897	1	-6
368.068	1	2
368.239	1	2
368.410	1	-8
368.581	1	5
368.752	1	-8
368.923	1	-15
369.093	1	0
369.264	1	-6
369.435	1	-6
369.606	1	-4
369.777	1	-1
369.948	1	9
370.119	1	-3
370.290	1	-3
370.461	1	-3
370.632	1	3
370.803	1	-4
370.973	1	13
371.144	1	7
371.315	1	-9
371.486	1	-1
371.657	1	9
371.828	1	5
371.999	1	-6
372.170	1	9
372.341	1	9
372.512	1	5
372.682	1	7
372.853	1	-4
373.024	1	0
373.195	1	-6
373.366	1	1
373.537	1	0
373.708	1	5
373.879	1	7
374.050	1	3
374.220	1	6
374.391	1	-4
374.562	1	-1
374.733	1	12
374.904	1	-6
375.075	1	9
375.246	1	8
375.417	1	4
375.588	1	1
375.758	1	-9
375.929	1	-2
376.100	1	3
376.271	1	3
376.442	1	2
376.613	1	-3
376.784	1	11
376.955	1	-5
377.125	1	-8
377.296	1	6
377.467	1	-8
377.638	1	5
377.809	1	9
377.980	1	-2
378.151	1	4
378.321	1	-2
378.492	1	-4
378.663	1	-6
378.834	1	3
379.005	1	7
379.176	1	-3
379.347	1	6
379.518	1	-8
379.688	1	-6
379.859	1	-2
380.030	1	-4
380.201	1	-8
380.372	1	6
380.543	1	5
380.714	1	5
380.884	1	-1
381.055	1	-4
381.226	1	11
381.397	1	-2
381.568	1	-3
381.739	1	8
381.910	1	1
382.080	1	-17
382.251	1	6
382.422	1	6
382.593	1	-6
382.764	1	4
382.935	1	5
383.105	1	1
383.276	1	-2
383.447	1	3
383.618	1	15
383.789	1	-6
383.960	1	-5
384.130	1	-10
384.301	1	0
384.472	1	-5
384.643	1	5
384.814	1	4
384.985	1	-4
385.156	1	11
385.326	1	12
385.497	1	4
385.668	1	2
385.839	1	7
386.010	1	7
386.180	1	5
386.351	1	-4
386.522	1	5
386.693	1	-5
386.864	1	4
387.035	1	2
387.205	1	-6
387.376	1	12
387.547	1	0
387.718	1	9
387.889	1	10
388.060	1	-4
388.230	1	-3
388.401	1	10
388.572	1	0
388.743	1	0
388.914	1	10
389.084	1	0
389.255	1	7
389.426	1	5
389.597	1	-14
389.768	1	8
389.939	1	9
390.109	1	0
390.280	1	4
390.451	1	10
390.622	1	-6
390.793	1	9
390.963	1	-3
391.134	1	1
391.305	1	7
391.476	1	16
391.647	1	8
391.817	1	-8
391.988	1	-8
392.159	1	5
392.330	1	9
392.501	1	3
392.671	1	4
392.842	1	11
393.013	1	13
393.184	1	3
393.355	1	13
393.525	1	4
393.696	1	-8
393.867	1	0
394.038	1	-11
394.208	1	6
394.379	1	-6
394.550	1	12
394.721	1	9
394.892	1	9
395.062	1	-3
395.233	1	9
395.404	1	6
395.575	1	2
395.746	1	7
395.916	1	7
396.087	1	-1
396.258	1	-2
396.429	1	3
396.599	1	1
396.770	1	9
396.941	1	5
397.112	1	-5
397.283	1	2
397.453	1	2
397.624	1	1
397.795	1	6
397.966	1	7
398.136	1	10
398.307	1	8
398.478	1	-7
398.649	1	6
398.819	1	10
398.990	1	3
399.161	1	-1
399.332	1	10
399.503	1	-1
399.673	1	0
399.844	1	-1
400.015	1	3
400.186	1	7
400.356	1	-4
400.527	1	1
400.698	1	0
400.869	1	1
401.039	1	-11
401.210	1	7
401.381	1	8
401.552	1	16
401.722	1	8
401.893	1	3
402.064	1	-3
402.235	1	16
402.405	1	6
402.576	1	6
402.747	1	7
402.918	1	-8
403.088	1	-11
403.259	1	-16
403.430	1	-9
403.601	1	-2
403.771	1	3
403.942	1	5
404.113	1	19
404.284	1	5
404.454	1	10
404.625	1	5
404.796	1	-2
404.967	1	6
405.137	1	3
405.308	1	0
405.479	1	0
405.649	1	-3
405.820	1	-3
405.991	1	8
406.162	1	-4
406.332	1	3
406.503	1	5
406.674	1	-4
406.845	1	-1
407.015	1	-2
407.186	1	13
407.357	1	1
407.527	1	1
407.698	1	-3
407.869	1	1
408.040	1	-1
408.210	1	-4
408.381	1	-2
408.552	1	6
408.722	1	-4
408.893	1	-3
409.064	1	4
409.235	1	-1
409.405	1	1
409.576	1	-1
409.747	1	8
409.917	1	3
410.088	1	5
410.259	1	9
410.430	1	16
410.600	1	-8
410.771	1	3
410.942	1	-6
411.112	1	3
411.283	1	-10
411.454	1	7
411.625	1	-7
411.795	1	9
411.966	1	3
412.137	1	12
412.307	1	1
412.478	1	8
412.649	1	3
412.819	1	-5
412.990	1	1
413.161	1	-1
413.332	1	-7
413.502	1	1
413.673	1	11
413.844	1	4
414.014	1	-6
414.185	1	7
414.356	1	-8
414.526	1	-12
414.697	1	6
414.868	1	10
415.038	1	0
415.209	1	-7
415.380	1	1
415.550	1	0
415.721	1	-3
415.892	1	-2
416.063	1	14
416.233	1	-12
416.404	1	1
416.575	1	-9
416.745	1	-8
416.916	1	-8
417.087	1	-10
417.257	1	7
417.428	1	-1
417.599	1	7
417.769	1	2
417.940	1	-8
418.111	1	-6
418.281	1	-2
418.452	1	4
418.623	1	1
418.793	1	9
418.964	1	0
419.135	1	5
419.305	1	-2
419.476	1	0
419.647	1	8
419.817	1	7
419.988	1	-7
420.159	1	-8
420.329	1	10
420.500	1	1
420.671	1	4
420.841	1	2
421.012	1	-10
421.183	1	3
421.353	1	11
421.524	1	4
421.695	1	7
421.865	1	5
422.036	1	1
422.206	1	3
422.377	1	2
422.548	1	-1
422.718	1	0
422.889	1	-6
423.060	1	-7
423.230	1	5
423.401	1	0
423.572	1	1
423.742	1	2
423.913	1	4
424.084	1	0
424.254	1	6
424.425	1	-2
424.595	1	-11
424.766	1	3
424.937	1	-4
425.107	1	4
425.278	1	-9
425.449	1	4
425.619	1	1
425.790	1	-8
425.961	1	2
426.131	1	7
426.302	1	-6
426.472	1	-4
426.643	1	5
426.814	1	7
426.984	1	4
427.155	1	3
427.326	1	-4
427.496	1	10
427.667	1	10
427.837	1	-2
428.008	1	-3
428.179	1	-4
428.349	1	-12
428.520	1	-6
428.691	1	0
428.861	1	-1
429.032	1	-8
429.202	1	-7
429.373	1	-10
429.544	1	-3
429.714	1	9
429.885	1	-3
430.055	1	-3
430.226	1	0
430.397	1	-6
430.567	1	11
430.738	1	4
430.909	1	-15
431.079	1	7
431.250	1	-6
431.420	1	7
431.591	1	7
431.762	1	5
431.932	1	7
432.103	1	-2
432.273	1	-7
432.444	1	8
432.615	1	0
432.785	1	-5
432.956	1	4
433.126	1	7
433.297	1	4
433.468	1	7
433.638	1	-1
433.809	1	3
433.979	1	-4
434.150	1	-3
434.320	1	1
434.491	1	-3
434.662	1	-16
434.832	1	-9
435.003	1	2
435.173	1	0
435.344	1	5
435.515	1	1
435.685	1	11
435.856	1	-6
436.026	1	0
436.197	1	-3
436.368	1	-1
436.538	1	13
436.709	1	-11
436.879	1	2
437.050	1	-1
437.220	1	11
437.391	1	9
437.562	1	10
437.732	1	-2
437.903	1	-3
438.073	1	6
438.244	1	-14
438.414	1	1
438.585	1	0
438.756	1	-4
438.926	1	0
439.097	1	-1
439.267	1	6
439.438	1	-1
439.608	1	11
439.779	1	-16
439.949	1	3
440.120	1	6
440.291	1	-3
440.461	1	-8
440.632	1	7
440.802	1	13
440.973	1	-9
441.143	1	4
441.314	1	3
441.485	1	0
441.655	1	16
441.826	1	-18
441.996	1	0
442.167	1	6
442.337	1	-2
442.508	1	-6
442.678	1	4
442.849	1	10
443.019	1	3
443.190	1	-4
443.361	1	16
443.531	1	-2
443.702	1	-3
443.872	1	-2
444.043	1	-3
444.213	1	-9
444.384	1	0
444.554	1	0
444.725	1	2
444.895	1	-2
445.066	1	1
445.237	1	-6
445.407	1	-5
445.578	1	11
445.748	1	-6
445.919	1	-3
446.089	1	13
446.260	1	13
446.430	1	-14
446.601	1	-8
446.771	1	-3
446.942	1	6
447.112	1	4
447.283	1	0
447.453	1	-9
447.624	1	0
447.794	1	-11
447.965	1	-12
448.135	1	7
448.306	1	3
448.477	1	-8
448.647	1	10
448.818	1	4
448.988	1	-13
449.159	1	-15
449.329	1	6
449.500	1	7
449.670	1	6
449.841	1	3
450.011	1	-1
450.182	1	-14
450.352	1	13
450.523	1	3
450.693	1	-3
450.864	1	-12
451.034	1	-1
451.205	1	6
451.375	1	-1
451.546	1	4
451.716	1	10
451.887	1	-5
452.057	1	9
452.228	1	-3
452.398	1	1
452.569	1	0
452.739	1	1
452.910	1	-5
453.080	1	8
453.251	1	2
453.421	1	-3
453.592	1	-7
453.762	1	7
453.933	1	7
454.103	1	5
454.274	1	1
454.444	1	13
454.615	1	4
454.785	1	-6
454.956	1	-3
455.126	1	-2
455.297	1	5
455.467	1	12
455.638	1	-1
455.808	1	1
455.979	1	6
456.149	1	-8
456.320	1	-3
456.490	1	-9
456.661	1	-12
456.831	1	8
457.001	1	2
457.172	1	2
457.342	1	5
457.513	1	13
457.683	1	7
457.854	1	-6
458.024	1	0
458.195	1	-6
458.365	1	-6
458.536	1	-3
458.706	1	1
458.877	1	1
459.047	1	-9
459.218	1	4
459.388	1	1
459.559	1	1
459.729	1	-5
459.899	1	4
460.070	1	5
460.240	1	4
460.411	1	1
460.581	1	3
460.752	1	2
460.922	1	-1
461.093	1	2
461.263	1	9
461.434	1	9
461.604	1	0
461.775	1	8
461.945	1	5
462.115	1	-11
462.286	1	3
462.456	1	-9
462.627	1	-3
462.797	1	4
462.968	1	-11
463.138	1	7
463.309	1	-5
463.479	1	6
463.649	1	-1
463.820	1	-2
463.990	1	3
464.161	1	-1
464.331	1	-1
464.502	1	2
464.672	1	3
464.843	1	0
465.013	1	-15
465.183	1	7
465.354	1	2
465.524	1	9
465.695	1	7
465.865	1	-6
466.036	1	-7
466.206	1	-8
466.376	1	-1
466.547	1	13
466.717	1	-8
466.888	1	0
467.058	1	12
467.229	1	2
467.399	1	4
467.569	1	-1
467.740	1	-4
467.910	1	4
468.081	1	-3
468.251	1	-8
468.422	1	4
468.592	1	4
468.762	1	-1
468.933	1	-2
469.103	1	-6
469.274	1	3
469.444	1	-13
469.614	1	-9
469.785	1	4
469.955	1	-4
470.126	1	10
470.296	1	-3
470.467	1	-3
470.637	1	10
470.807	1	3
470.978	1	-6
471.148	1	-2
471.319	1	4
471.489	1	5
471.659	1	14
471.830	1	7
472.000	1	1
472.171	1	-4
472.341	1	-3
472.511	1	6
472.682	1	8
472.852	1	-6
473.023	1	-5
473.193	1	-1
473.363	1	-8
473.534	1	-4
473.704	1	11
473.875	1	1
474.045	1	-9
474.215	1	-6
474.386	1	2
474.556	1	-8
474.727	1	0
474.897	1	2
475.067	1	-5
475.238	1	3
475.408	1	-1
475.578	1	1
475.749	1	-3
475.919	1	-4
476.090	1	-3
476.260	1	12
476.430	1	1
476.601	1	-5
476.771	1	2
476.942	1	-5
477.112	1	-2
477.282	1	-6
477.453	1	3
477.623	1	-5
477.793	1	11
477.964	1	16
478.134	1	1
478.305	1	-3
478.475	1	2
478.645	1	-2
478.816	1	-7
478.986	1	0
479.156	1	2
479.327	1	-4
479.497	1	-5
479.667	1	4
479.838	1	1
480.008	1	5
480.179	1	3
480.349	1	2
480.519	1	-12
480.690	1	-10
480.860	1	0
481.030	1	-11
481.201	1	3
481.371	1	-1
481.541	1	-10
481.712	1	7
481.882	1	-1
482.053	1	9
482.223	1	-4
482.393	1	-7
482.564	1	-12
482.734	1	1
482.904	1	14
483.075	1	4
483.245	1	-8
483.415	1	7
483.586	1	-8
483.756	1	1
483.926	1	6
484.097	1	-5
484.267	1	-6
484.437	1	-14
484.608	1	-5
484.778	1	-3
484.948	1	4
485.119	1	-5
485.289	1	6
485.459	1	6
485.630	1	3
485.800	1	-8
485.970	1	4
486.141	1	-5
486.311	1	0
486.481	1	0
486.652	1	6
486.822	1	-8
486.992	1	-1
487.163	1	-13
487.333	1	9
487.503	1	-13
487.674	1	-4
487.844	1	6
488.014	1	-7
488.185	1	-5
488.355	1	-8
488.525	1	-6
488.696	1	-1
488.866	1	11
489.036	1	3
489.207	1	9
489.377	1	1
489.547	1	-14
489.718	1	-3
489.888	1	-5
490.058	1	-3
490.228	1	-10
490.399	1	3
490.569	1	9
490.739	1	6
490.910	1	-11
491.080	1	1
491.250	1	-1
491.421	1	1
491.591	1	-9
491.761	1	-4
491.932	1	-1
492.102	1	-4
492.272	1	9
492.442	1	7
492.613	1	3
492.783	1	-4
492.953	1	4
493.124	1	-9
493.294	1	4
493.464	1	-4
493.635	1	-8
493.805	1	4
493.975	1	-2
494.145	1	5
494.316	1	7
494.486	1	1
494.656	1	3
494.827	1	-9
494.997	1	-10
495.167	1	-3
495.337	1	-5
495.508	1	-8
495.678	1	10
495.848	1	4
496.019	1	-4
496.189	1	3
496.359	1	4
496.529	1	-13
496.700	1	7
496.870	1	-2
497.040	1	0
497.211	1	0
497.381	1	-17
497.551	1	5
497.721	1	2
497.892	1	10
498.062	1	-5
498.232	1	0
498.403	1	3
498.573	1	-2
498.743	1	-5
498.913	1	0
499.084	1	-9
499.254	1	4
499.424	1	10
499.594	1	3
499.765	1	7
499.935	1	-10
500.105	1	4
500.275	1	6
500.446	1	7
500.616	1	-1
500.786	1	1
500.956	1	0
501.127	1	3
501.297	1	5
501.467	1	-1
501.638	1	2
501.808	1	-9
501.978	1	4
502.148	1	7
502.319	1	9
502.489	1	4
502.659	1	-2
502.829	1	6
503.000	1	4
503.170	1	-1
503.340	1	4
503.510	1	0
503.681	1	1
503.851	1	-15
504.021	1	15
504.191	1	-1
504.362	1	14
504.532	1	-11
504.702	1	12
504.872	1	-8
505.042	1	2
505.213	1	-6
505.383	1	5
505.553	1	1
505.723	1	4
505.894	1	5
506.064	1	3
506.234	1	7
506.404	1	-8
506.575	1	-9
506.745	1	-9
506.915	1	2
507.085	1	5
507.256	1	-7
507.426	1	5
507.596	1	3
507.766	1	3
507.936	1	1
508.107	1	-13
508.277	1	-6
508.447	1	-6
508.617	1	15
508.788	1	2
508.958	1	11
509.128	1	4
509.298	1	19
509.468	1	5
509.639	1	6
509.809	1	-1
509.979	1	1
510.149	1	1
510.319	1	3
510.490	1	12
510.660	1	11
510.830	1	1
511.000	1	3
511.171	1	9
511.341	1	4
511.511	1	3
511.681	1	-5
511.851	1	-4
512.022	1	-1
512.192	1	1
512.362	1	1
512.532	1	2
512.702	1	-16
512.873	1	15
513.043	1	-3
513.213	1	2
513.383	1	-4
513.553	1	-10
513.724	1	15
513.894	1	4
514.064	1	4
514.234	1	-2
514.404	1	2
514.575	1	5
514.745	1	-2
514.915	1	1
515.085	1	-1
515.255	1	-9
515.425	1	6
515.596	1	-8
515.766	1	-2
515.936	1	2
516.106	1	-3
516.276	1	9
516.447	1	-2
516.617	1	1
516.787	1	-7
516.957	1	3
517.127	1	5
517.297	1	4
517.468	1	-10
517.638	1	6
517.808	1	0
517.978	1	0
518.148	1	7
518.319	1	-8
518.489	1	6
518.659	1	-2
518.829	1	-3
518.999	1	-4
519.169	1	8
519.340	1	9
519.510	1	-2
519.680	1	-2
519.850	1	-4
520.020	1	-6
520.190	1	1
520.361	1	-1
520.531	1	3
520.701	1	2
520.871	1	-1
521.041	1	0
521.211	1	5
521.382	1	8
521.552	1	0
521.722	1	-1
521.892	1	-2
522.062	1	2
522.232	1	-9
522.402	1	-11
522.573	1	0
522.743	1	5
522.913	1	1
523.083	1	-5
523.253	1	-5
523.423	1	-4
523.593	1	-12
523.764	1	13
523.934	1	5
524.104	1	-5
524.274	1	-4
524.444	1	3
524.614	1	-1
524.784	1	-5
524.955	1	0
525.125	1	2
525.295	1	-4
525.465	1	5
525.635	1	8
525.805	1	-6
525.975	1	-8
526.146	1	2
526.316	1	-3
526.486	1	-1
526.656	1	18
526.826	1	1
526.996	1	10
527.166	1	6
527.337	1	-2
527.507	1	-12
527.677	1	16
527.847	1	-6
528.017	1	-3
528.187	1	2
528.357	1	4
528.527	1	3
528.698	1	0
528.868	1	-8
529.038	1	11
529.208	1	-1
529.378	1	-2
529.548	1	2
529.718	1	8
529.888	1	-6
530.058	1	-2
530.229	1	2
530.399	1	8
530.569	1	4
530.739	1	-9
530.909	1	6
531.079	1	7
531.249	1	-2
531.419	1	2
531.589	1	-1
531.760	1	11
531.930	1	-5
532.100	1	10
532.270	1	10
532.440	1	-7
532.610	1	5
532.780	1	5
532.950	1	5
533.120	1	-1
533.290	1	-2
533.461	1	22
533.631	1	-9
533.801	1	1
533.971	1	1
534.141	1	11
534.311	1	-1
534.481	1	0
534.651	1	0
534.821	1	8
534.991	1	-1
535.162	1	3
535.332	1	2
535.502	1	0
535.672	1	-2
535.842	1	-4
536.012	1	8
536.182	1	5
536.352	1	2
536.522	1	7
536.692	1	2
536.862	1	2
537.032	1	8
537.203	1	3
537.373	1	-9
537.543	1	8
537.713	1	13
537.883	1	7
538.053	1	11
538.223	1	5
538.393	1	5
538.563	1	2
538.733	1	-17
538.903	1	-7
539.073	1	2
539.243	1	-9
539.413	1	-5
539.584	1	11
539.754	1	-5
539.924	1	1
540.094	1	1
540.264	1	1
540.434	1	-7
540.604	1	6
540.774	1	2
540.944	1	-1
541.114	1	2
541.284	1	1
541.454	1	1
541.624	1	-1
541.794	1	5
541.964	1	3
542.134	1	10
542.305	1	-8
542.475	1	4
542.645	1	3
542.815	1	2
542.985	1	-5
543.155	1	6
543.325	1	1
543.495	1	-1
543.665	1	8
543.835	1	1
544.005	1	-1
544.175	1	-4
544.345	1	-7
544.515	1	0
544.685	1	4
544.855	1	5
545.025	1	-1
545.195	1	3
545.365	1	6
545.535	1	-3
545.705	1	4
545.875	1	-6
546.045	1	12
546.216	1	8
546.386	1	-2
546.556	1	-10
546.726	1	7
546.896	1	3
547.066	1	-5
547.236	1	-6
547.406	1	12
547.576	1	7
547.746	1	4
547.916	1	8
548.086	1	1
548.256	1	-2
548.426	1	1
548.596	1	-2
548.766	1	7
548.936	1	-6
549.106	1	1
549.276	1	8
549.446	1	-4
549.616	1	5
549.786	1	7
549.956	1	7
550.126	1	-3
550.296	1	2
550.466	1	-1
550.636	1	-1
550.806	1	-4
550.976	1	-2
551.146	1	-3
551.316	1	-2
551.486	1	0
551.656	1	0
551.826	1	2
551.996	1	8
552.166	1	5
552.336	1	10
552.506	1	-4
552.676	1	0
552.846	1	-4
553.016	1	2
553.186	1	2
553.356	1	-6
553.526	1	-4
553.696	1	10
553.866	1	-3
554.036	1	-1
554.206	1	-1
554.376	1	-3
554.546	1	-9
554.716	1	5
554.886	1	6
555.056	1	-6
555.226	1	-8
555.396	1	2
555.566	1	-1
555.736	1	0
555.906	1	1
556.076	1	-4
556.246	1	-1
556.416	1	5
556.586	1	10
556.756	1	0
556.926	1	2
557.096	1	2
557.266	1	4
557.436	1	5
557.606	1	-5
557.776	1	1
557.946	1	8
558.116	1	2
558.286	1	5
558.456	1	-9
558.626	1	-1
558.796	1	4
558.966	1	0
559.136	1	7
559.306	1	-6
559.476	1	-5
559.646	1	-4
559.816	1	9
559.986	1	-6
560.155	1	-4
560.325	1	-10
560.495	1	-4
560.665	1	5
560.835	1	-7
561.005	1	2
561.175	1	-2
561.345	1	-4
561.515	1	-8
561.685	1	-4
561.855	1	16
562.025	1	-6
562.195	1	3
562.365	1	-7
562.535	1	-2
562.705	1	6
562.875	1	-1
563.045	1	8
563.215	1	-3
563.385	1	-3
563.555	1	15
563.725	1	5
563.895	1	4
564.064	1	2
564.234	1	4
564.404	1	-3
564.574	1	1
564.744	1	0
564.914	1	-13
565.084	1	-3
565.254	1	5
565.424	1	-5
565.594	1	0
565.764	1	2
565.934	1	-4
566.104	1	6
566.274	1	6
566.444	1	7
566.614	1	-4
566.783	1	-1
566.953	1	13
567.123	1	14
567.293	1	4
567.463	1	-2
567.633	1	-1
567.803	1	-5
567.973	1	-5
568.143	1	-2
568.313	1	-13
568.483	1	-7
568.653	1	-4
568.823	1	1
568.993	1	-19
569.162	1	3
569.332	1	-4
569.502	1	0
569.672	1	3
569.842	1	1
570.012	1	5
570.182	1	-4
570.352	1	8
570.522	1	9
570.692	1	-3
570.862	1	6
571.031	1	-5
571.201	1	6
571.371	1	7
571.541	1	-5
571.711	1	7
571.881	1	8
572.051	1	8
572.221	1	-1
572.391	1	-1
572.561	1	-5
572.731	1	-6
572.900	1	8
573.070	1	2
573.240	1	-9
573.410	1	3
573.580	1	2
573.750	1	5
573.920	1	-2
574.090	1	-2
574.260	1	5
574.430	1	-6
574.599	1	-5
574.769	1	4
574.939	1	-5
575.109	1	1
575.279	1	1
575.449	1	4
575.619	1	8
575.789	1	7
575.959	1	-10
576.128	1	7
576.298	1	-9
576.468	1	-5
576.638	1	8
576.808	1	1
576.978	1	7
577.148	1	4
577.318	1	7
577.487	1	1
577.657	1	-17
577.827	1	9
577.997	1	-16
578.167	1	9
578.337	1	2
578.507	1	-13
578.677	1	0
578.846	1	0
579.016	1	13
579.186	1	-3
579.356	1	0
579.526	1	2
579.696	1	5
579.866	1	11
580.036	1	-8
580.205	1	0
580.375	1	-9
580.545	1	-4
580.715	1	13
580.885	1	-5
581.055	1	7
581.225	1	-14
581.394	1	-9
581.564	1	4
581.734	1	7
581.904	1	-3
582.074	1	-5
582.244	1	5
582.414	1	5
582.583	1	-10
582.753	1	15
582.923	1	6
583.093	1	-6
583.263	1	3
583.433	1	-9
583.603	1	5
583.772	1	-1
583.942	1	6
584.112	1	8
584.282	1	1
584.452	1	1
584.622	1	1
584.791	1	-6
584.961	1	6
585.131	1	-3
585.301	1	5
585.471	1	1
585.641	1	4
585.811	1	-6
585.980	1	-8
586.150	1	3
586.320	1	-7
586.490	1	4
586.660	1	11
586.830	1	-6
586.999	1	2
587.169	1	-2
587.339	1	-1
587.509	1	5
587.679	1	1
587.849	1	8
588.018	1	6
588.188	1	0
588.358	1	5
588.528	1	3
588.698	1	0
588.867	1	9
589.037	1	-6
589.207	1	-7
589.377	1	11
589.547	1	-6
589.717	1	6
589.886	1	-7
590.056	1	3
590.226	1	-2
590.396	1	-4
590.566	1	3
590.735	1	11
590.905	1	2
591.075	1	-4
591.245	1	1
591.415	1	-2
591.585	1	-5
591.754	1	4
591.924	1	-2
592.094	1	2
592.264	1	-8
592.434	1	-8
592.603	1	-2
592.773	1	2
592.943	1	-2
593.113	1	-8
593.283	1	-2
593.452	1	0
593.622	1	-3
593.792	1	2
593.962	1	2
594.132	1	-6
594.301	1	9
594.471	1	-1
594.641	1	-6
594.811	1	-3
594.981	1	-16
595.150	1	-11
595.320	1	9
595.490	1	0
595.660	1	-8
595.829	1	1
595.999	1	3
596.169	1	5
596.339	1	-10
596.509	1	0
596.678	1	2
596.848	1	6
597.018	1	-4
597.188	1	-2
597.358	1	-5
597.527	1	-2
597.697	1	-3
597.867	1	0
598.037	1	1
598.206	1	-1
598.376	1	5
598.546	1	-7
598.716	1	-12
598.885	1	-11
599.055	1	-1
599.225	1	1
599.395	1	3
599.565	1	2
599.734	1	-2
599.904	1	-3
600.074	1	-7
600.244	1	0
600.413	1	-1
600.583	1	2
600.753	1	6
600.923	1	-1
601.092	1	-9
601.262	1	0
601.432	1	-1
601.602	1	10
601.771	1	6
601.941	1	3
602.111	1	-11
602.281	1	-10
602.451	1	6
602.620	1	5
602.790	1	-2
602.960	1	-9
603.130	1	4
603.299	1	-5
603.469	1	-4
603.639	1	1
603.809	1	1
603.978	1	-2
604.148	1	6
604.318	1	1
604.487	1	0
604.657	1	5
604.827	1	-12
604.997	1	-5
605.166	1	0
605.336	1	0
605.506	1	11
605.676	1	-7
605.845	1	1
606.015	1	-1
606.185	1	-4
606.355	1	4
606.524	1	-5
606.694	1	-1
606.864	1	-4
607.034	1	-3
607.203	1	4
607.373	1	3
607.543	1	1
607.712	1	5
607.882	1	1
608.052	1	-5
608.222	1	4
608.391	1	-3
608.561	1	0
608.731	1	-4
608.901	1	4
609.070	1	4
609.240	1	2
609.410	1	-2
609.579	1	3
609.749	1	5
609.919	1	-9
610.089	1	-11
610.258	1	19
610.428	1	-5
610.598	1	7
610.767	1	3
610.937	1	1
611.107	1	11
611.277	1	5
611.446	1	1
611.616	1	-15
611.786	1	11
611.955	1	20
612.125	1	2
612.295	1	2
612.465	1	-5
612.634	1	-3
612.804	1	12
612.974	1	-7
613.143	1	3
613.313	1	-1
613.483	1	10
613.652	1	-6
613.822	1	0
613.992	1	11
614.162	1	1
614.331	1	5
614.501	1	-2
614.671	1	-8
614.840	1	8
615.010	1	0
615.180	1	9
615.349	1	6
615.519	1	3
615.689	1	5
615.858	1	6
616.028	1	4
616.198	1	10
616.368	1	-2
616.537	1	-1
616.707	1	-3
616.877	1	4
617.046	1	7
617.216	1	-2
617.386	1	-4
617.555	1	-6
617.725	1	9
617.895	1	-7
618.064	1	7
618.234	1	0
618.404	1	11
618.573	1	-4
618.743	1	0
618.913	1	-2
619.082	1	5
619.252	1	1
619.422	1	-5
619.591	1	6
619.761	1	-1
619.931	1	3
620.100	1	1
620.270	1	-2
620.440	1	-2
620.609	1	-2
620.779	1	2
620.949	1	0
621.118	1	-1
621.288	1	9
621.458	1	2
621.627	1	-4
621.797	1	2
621.967	1	-8
622.136	1	4
622.306	1	11
622.476	1	-3
622.645	1	0
622.815	1	3
622.985	1	-5
623.154	1	-1
623.324	1	3
623.494	1	5
623.663	1	6
623.833	1	-3
624.002	1	-1
624.172	1	3
624.342	1	-8
624.511	1	-8
624.681	1	0
624.851	1	-7
625.020	1	-7
625.190	1	3
625.360	1	-7
625.529	1	2
625.699	1	-3
625.869	1	-2
626.038	1	8
626.208	1	-9
626.377	1	11
626.547	1	-10
626.717	1	-10
626.886	1	-4
627.056	1	-3
627.226	1	1
627.395	1	-4
627.565	1	7
627.735	1	1
627.904	1	-7
628.074	1	4
628.243	1	-9
628.413	1	-7
628.583	1	-4
628.752	1	12
628.922	1	-3
629.091	1	5
629.261	1	5
629.431	1	-11
629.600	1	4
629.770	1	-4
629.940	1	1
630.109	1	0
630.279	1	-1
630.448	1	1
630.618	1	5
630.788	1	5
630.957	1	-3
631.127	1	8
631.297	1	-8
631.466	1	2
631.636	1	-5
631.805	1	1
631.975	1	-3
632.145	1	-6
632.314	1	8
632.484	1	-12
632.653	1	-9
632.823	1	14
632.993	1	-2
633.162	1	-1
633.332	1	8
633.501	1	-2
633.671	1	-2
633.841	1	-3
634.010	1	-3
634.180	1	2
634.349	1	-4
634.519	1	5
634.689	1	8
634.858	1	1
635.028	1	-2
635.197	1	1
635.367	1	-8
635.537	1	-2
635.706	1	-2
635.876	1	-5
636.045	1	3
636.215	1	-5
636.384	1	6
636.554	1	15
636.724	1	6
636.893	1	-4
637.063	1	3
637.232	1	-6
637.402	1	9
637.572	1	-7
637.741	1	6
637.911	1	5
638.080	1	5
638.250	1	-1
638.419	1	5
638.589	1	23
638.759	1	-2
638.928	1	-6
639.098	1	-3
639.267	1	-3
639.437	1	-16
639.606	1	15
639.776	1	2
639.946	1	-5
640.115	1	3
640.285	1	2
640.454	1	8
640.624	1	3
640.793	1	3
640.963	1	-7
641.132	1	1
641.302	1	6
641.472	1	-8
641.641	1	-14
641.811	1	2
641.980	1	1
642.150	1	-1
642.319	1	0
642.489	1	-4
642.659	1	-16
642.828	1	6
642.998	1	-17
643.167	1	9
643.337	1	8
643.506	1	-5
643.676	1	1
643.845	1	-2
644.015	1	5
644.184	1	5
644.354	1	-3
644.524	1	-11
644.693	1	2
644.863	1	-13
645.032	1	1
645.202	1	6
645.371	1	-7
645.541	1	-15
645.710	1	3
645.880	1	-2
646.049	1	4
646.219	1	2
646.388	1	-8
646.558	1	5
646.728	1	-2
646.897	1	2
647.067	1	0
647.236	1	-1
647.406	1	-7
647.575	1	0
647.745	1	3
647.914	1	-9
648.084	1	4
648.253	1	5
648.423	1	-6
648.592	1	-7
648.762	1	7
648.931	1	10
649.101	1	2
649.270	1	7
649.440	1	6
649.610	1	14
649.779	1	-8
649.949	1	-4
650.118	1	-12
650.288	1	0
650.457	1	-5
650.627	1	-1
650.796	1	1
650.966	1	-17
651.135	1	5
651.305	1	-1
651.474	1	1
651.644	1	-7
651.813	1	6
651.983	1	4
652.152	1	-4
652.322	1	4
652.491	1	3
652.661	1	1
652.830	1	5
653.000	1	2
653.169	1	-2
653.339	1	1
653.508	1	-4
653.678	1	4
653.847	1	0
654.017	1	-7
654.186	1	4
654.356	1	6
654.525	1	7
654.695	1	3
654.864	1	4
655.034	1	-2
655.203	1	-3
655.373	1	-2
655.542	1	-2
655.712	1	-9
655.881	1	12
656.051	1	9
656.220	1	5
656.390	1	-4
656.559	1	-8
656.729	1	1
656.898	1	-4
657.068	1	0
657.237	1	6
657.406	1	11
657.576	1	0
657.745	1	3
657.915	1	3
658.084	1	8
658.254	1	6
658.423	1	-8
658.593	1	-4
658.762	1	-5
658.932	1	-2
659.101	1	-3
659.271	1	-4
659.440	1	17
659.610	1	5
659.779	1	3
659.949	1	-5
660.118	1	-4
660.288	1	4
660.457	1	-7
660.626	1	-6
660.796	1	-3
660.965	1	-3
661.135	1	10
661.304	1	3
661.474	1	4
661.643	1	-4
661.813	1	1
661.982	1	3
662.152	1	-2
662.321	1	-1
662.491	1	0
662.660	1	4
662.829	1	-7
662.999	1	1
663.168	1	0
663.338	1	-5
663.507	1	-5
663.677	1	-12
663.846	1	-1
664.016	1	0
664.185	1	-5
664.354	1	4
664.524	1	-6
664.693	1	3
664.863	1	-1
665.032	1	7
665.202	1	-4
665.371	1	6
665.541	1	-5
665.710	1	-1
665.879	1	-1
666.049	1	1
666.218	1	-8
666.388	1	-10
666.557	1	-1
666.727	1	-20
666.896	1	-5
667.065	1	5
667.235	1	-3
667.404	1	-11
667.574	1	4
667.743	1	-2
667.913	1	1
668.082	1	-6
668.251	1	1
668.421	1	0
668.590	1	-10
668.760	1	-5
668.929	1	3
669.099	1	0
669.268	1	-2
669.437	1	6
669.607	1	-4
669.776	1	11
669.946	1	6
670.115	1	5
670.285	1	9
670.454	1	-8
670.623	1	7
670.793	1	-1
670.962	1	-4
671.132	1	2
671.301	1	-3
671.470	1	2
671.640	1	-17
671.809	1	-5
671.979	1	11
672.148	1	-1
672.317	1	-7
672.487	1	-8
672.656	1	-1
672.826	1	-12
672.995	1	3
673.164	1	3
673.334	1	-7
673.503	1	2
673.673	1	6
673.842	1	8
674.011	1	7
674.181	1	-7
674.350	1	-3
674.520	1	3
674.689	1	5
674.858	1	-2
675.028	1	5
675.197	1	-2
675.367	1	-1
675.536	1	5
675.705	1	-15
675.875	1	6
676.044	1	0
676.214	1	-5
676.383	1	5
676.552	1	-5
676.722	1	-3
676.891	1	-4
677.060	1	3
677.230	1	6
677.399	1	-1
677.569	1	-3
677.738	1	1
677.907	1	-9
678.077	1	11
678.246	1	-2
678.416	1	-6
678.585	1	1
678.754	1	2
678.924	1	-6
679.093	1	6
679.262	1	-3
679.432	1	-9
679.601	1	-14
679.771	1	-11
679.940	1	-4
680.109	1	7
680.279	1	-10
680.448	1	-3
680.617	1	-10
680.787	1	-1
680.956	1	-4
681.125	1	5
681.295	1	0
681.464	1	-4
681.634	1	3
681.803	1	-16
681.972	1	-5
682.142	1	-1
682.311	1	0
682.480	1	2
682.650	1	0
682.819	1	-2
682.988	1	-7
683.158	1	0
683.327	1	-4
683.496	1	-2
683.666	1	2
683.835	1	-7
684.004	1	-2
684.174	1	0
684.343	1	-2
684.512	1	4
684.682	1	5
684.851	1	0
685.021	1	1
685.190	1	7
685.359	1	-7
685.529	1	-1
685.698	1	-7
685.867	1	1
686.037	1	2
686.206	1	-4
686.375	1	2
686.545	1	2
686.714	1	2
686.883	1	-8
687.053	1	5
687.222	1	-4
687.391	1	-10
687.561	1	-2
687.730	1	-6
687.899	1	-2
688.069	1	-9
688.238	1	-2
688.407	1	8
688.577	1	-3
688.746	1	0
