340.368	1	6
340.539	1	17
340.710	1	-6
340.881	1	9
341.052	1	7
341.223	1	16
341.394	1	-7
341.565	1	1
341.737	1	11
341.908	1	8
342.079	1	7
342.250	1	3
342.421	1	-4
342.592	1	-4
342.763	1	5
342.934	1	4
343.105	1	17
343.276	1	-6
343.447	1	5
343.618	1	13
343.789	1	-3
343.960	1	-1
344.131	1	6
344.302	1	5
344.473	1	8
344.644	1	6
344.815	1	7
344.986	1	7
345.157	1	3
345.328	1	-3
345.499	1	6
345.670	1	6
345.841	1	8
346.012	1	11
346.183	1	12
346.354	1	6
346.526	1	5
346.697	1	2
346.868	1	1
347.039	1	6
347.210	1	7
347.381	1	7
347.552	1	8
347.723	1	6
347.894	1	3
348.065	1	2
348.236	1	10
348.407	1	4
348.578	1	8
348.749	1	5
348.920	1	9
349.091	1	0
349.262	1	1
349.433	1	5
349.604	1	10
349.775	1	11
349.946	1	12
350.117	1	12
350.288	1	0
350.459	1	0
350.630	1	-2
350.801	1	13
350.972	1	-3
351.143	1	0
351.314	1	10
351.485	1	6
351.656	1	-1
351.827	1	-3
351.998	1	5
352.169	1	21
352.340	1	8
352.511	1	4
352.682	1	2
352.853	1	-8
353.024	1	0
353.195	1	6
353.366	1	2
353.537	1	0
353.708	1	8
353.879	1	11
354.050	1	10
354.221	1	0
354.392	1	17
354.563	1	16
354.734	1	13
354.905	1	17
355.076	1	9
355.247	1	-1
355.418	1	4
355.589	1	7
355.760	1	8
355.931	1	9
356.102	1	3
356.273	1	13
356.444	1	6
356.615	1	14
356.785	1	22
356.956	1	11
357.127	1	6
357.298	1	12
357.469	1	4
357.640	1	13
357.811	1	26
357.982	1	0
358.153	1	8
358.324	1	10
358.495	1	13
358.666	1	11
358.837	1	15
359.008	1	13
359.179	1	23
359.350	1	12
359.521	1	15
359.692	1	18
359.863	1	10
360.034	1	10
360.205	1	13
360.376	1	23
360.547	1	26
360.718	1	17
360.889	1	32
361.060	1	35
361.231	1	23
361.401	1	29
361.572	1	23
361.743	1	25
361.914	1	27
362.085	1	23
362.256	1	37
362.427	1	31
362.598	1	41
362.769	1	33
362.940	1	50
363.111	1	44
363.282	1	41
363.453	1	46
363.624	1	53
363.795	1	50
363.966	1	49
364.137	1	49
364.308	1	48
364.478	1	52
364.649	1	53
364.820	1	60
364.991	1	68
365.162	1	59
365.333	1	70
365.504	1	69
365.675	1	68
365.846	1	69
366.017	1	79
366.188	1	71
366.359	1	78
366.530	1	76
366.701	1	83
366.871	1	91
367.042	1	88
367.213	1	88
367.384	1	89
367.555	1	78
367.726	1	83
367.897	1	88
368.068	1	75
368.239	1	86
368.410	1	77
368.581	1	70
368.752	1	73
368.923	1	63
369.093	1	73
369.264	1	66
369.435	1	62
369.606	1	79
369.777	1	68
369.948	1	64
370.119	1	63
370.290	1	59
370.461	1	67
370.632	1	55
370.803	1	43
370.973	1	73
371.144	1	57
371.315	1	53
371.486	1	62
371.657	1	69
371.828	1	58
371.999	1	46
372.170	1	51
372.341	1	42
372.512	1	36
372.682	1	33
372.853	1	51
373.024	1	39
373.195	1	36
373.366	1	38
373.537	1	47
373.708	1	43
373.879	1	53
374.050	1	39
374.220	1	43
374.391	1	49
374.562	1	41
374.733	1	52
374.904	1	42
375.075	1	48
375.246	1	35
375.417	1	37
375.588	1	40
375.758	1	33
375.929	1	31
376.100	1	47
376.271	1	33
376.442	1	19
376.613	1	37
376.784	1	36
376.955	1	19
377.125	1	30
377.296	1	40
377.467	1	19
377.638	1	30
377.809	1	43
377.980	1	35
378.151	1	23
378.321	1	29
378.492	1	29
378.663	1	12
378.834	1	27
379.005	1	22
379.176	1	31
379.347	1	34
379.518	1	23
379.688	1	20
379.859	1	22
380.030	1	28
380.201	1	12
380.372	1	25
380.543	1	32
380.714	1	33
380.884	1	24
381.055	1	34
381.226	1	40
381.397	1	29
381.568	1	42
381.739	1	42
381.910	1	50
382.080	1	26
382.251	1	44
382.422	1	65
382.593	1	33
382.764	1	45
382.935	1	50
383.105	1	49
383.276	1	45
383.447	1	65
383.618	1	65
383.789	1	65
383.960	1	59
384.130	1	56
384.301	1	57
384.472	1	51
384.643	1	81
384.814	1	77
384.985	1	78
385.156	1	85
385.326	1	82
385.497	1	84
385.668	1	77
385.839	1	81
386.010	1	99
386.180	1	80
386.351	1	93
386.522	1	94
386.693	1	82
386.864	1	96
387.035	1	83
387.205	1	92
387.376	1	93
387.547	1	89
387.718	1	98
387.889	1	100
388.060	1	89
388.230	1	89
388.401	1	104
388.572	1	97
388.743	1	99
388.914	1	92
389.084	1	96
389.255	1	98
389.426	1	98
389.597	1	72
389.768	1	94
389.939	1	88
390.109	1	82
390.280	1	84
390.451	1	97
390.622	1	85
390.793	1	83
390.963	1	90
391.134	1	74
391.305	1	74
391.476	1	93
391.647	1	94
391.817	1	80
391.988	1	70
392.159	1	87
392.330	1	79
392.501	1	72
392.671	1	82
392.842	1	82
393.013	1	86
393.184	1	75
393.355	1	93
393.525	1	77
393.696	1	82
393.867	1	74
394.038	1	65
394.208	1	73
394.379	1	67
394.550	1	77
394.721	1	78
394.892	1	85
395.062	1	68
395.233	1	78
395.404	1	80
395.575	1	71
395.746	1	67
395.916	1	73
396.087	1	80
396.258	1	75
396.429	1	71
396.599	1	93
396.770	1	83
396.941	1	91
397.112	1	77
397.283	1	90
397.453	1	71
397.624	1	97
397.795	1	74
397.966	1	92
398.136	1	75
398.307	1	79
398.478	1	73
398.649	1	95
398.819	1	92
398.990	1	83
399.161	1	82
399.332	1	89
399.503	1	90
399.673	1	79
399.844	1	80
400.015	1	72
400.186	1	87
400.356	1	70
400.527	1	83
400.698	1	79
400.869	1	77
401.039	1	76
401.210	1	69
401.381	1	63
401.552	1	73
401.722	1	71
401.893	1	64
402.064	1	53
402.235	1	73
402.405	1	50
402.576	1	66
402.747	1	63
402.918	1	51
403.088	1	62
403.259	1	47
403.430	1	52
403.601	1	53
403.771	1	59
403.942	1	55
404.113	1	72
404.284	1	58
404.454	1	68
404.625	1	57
404.796	1	63
404.967	1	49
405.137	1	65
405.308	1	56
405.479	1	66
405.649	1	64
405.820	1	56
405.991	1	72
406.162	1	56
406.332	1	65
406.503	1	49
406.674	1	56
406.845	1	54
407.015	1	46
407.186	1	51
407.357	1	63
407.527	1	53
407.698	1	54
407.869	1	51
408.040	1	46
408.210	1	53
408.381	1	53
408.552	1	55
408.722	1	55
408.893	1	51
409.064	1	54
409.235	1	43
409.405	1	61
409.576	1	50
409.747	1	49
409.917	1	49
410.088	1	47
410.259	1	53
410.430	1	59
410.600	1	56
410.771	1	56
410.942	1	51
411.112	1	54
411.283	1	41
411.454	1	59
411.625	1	42
411.795	1	55
411.966	1	46
412.137	1	53
412.307	1	36
412.478	1	45
412.649	1	45
412.819	1	46
412.990	1	49
413.161	1	39
413.332	1	33
413.502	1	31
413.673	1	44
413.844	1	43
414.014	1	38
414.185	1	48
414.356	1	40
414.526	1	43
414.697	1	54
414.868	1	40
415.038	1	38
415.209	1	30
415.380	1	47
415.550	1	33
415.721	1	23
415.892	1	42
416.063	1	47
416.233	1	25
416.404	1	45
416.575	1	42
416.745	1	18
416.916	1	30
417.087	1	38
417.257	1	34
417.428	1	34
417.599	1	42
417.769	1	42
417.940	1	35
418.111	1	34
418.281	1	30
418.452	1	31
418.623	1	32
418.793	1	29
418.964	1	39
419.135	1	46
419.305	1	25
419.476	1	37
419.647	1	42
419.817	1	32
419.988	1	29
420.159	1	26
420.329	1	35
420.500	1	28
420.671	1	37
420.841	1	33
421.012	1	51
421.183	1	43
421.353	1	30
421.524	1	39
421.695	1	34
421.865	1	29
422.036	1	33
422.206	1	31
422.377	1	21
422.548	1	34
422.718	1	43
422.889	1	35
423.060	1	32
423.230	1	39
423.401	1	25
423.572	1	30
423.742	1	32
423.913	1	31
424.084	1	33
424.254	1	17
424.425	1	29
424.595	1	19
424.766	1	26
424.937	1	20
425.107	1	31
425.278	1	18
425.449	1	23
425.619	1	21
425.790	1	19
425.961	1	23
426.131	1	25
426.302	1	15
426.472	1	23
426.643	1	28
426.814	1	30
426.984	1	24
427.155	1	15
427.326	1	31
427.496	1	32
427.667	1	36
427.837	1	11
428.008	1	21
428.179	1	4
428.349	1	10
428.520	1	17
428.691	1	28
428.861	1	17
429.032	1	24
429.202	1	25
429.373	1	15
429.544	1	24
429.714	1	27
429.885	1	12
430.055	1	24
430.226	1	23
430.397	1	13
430.567	1	32
430.738	1	16
430.909	1	14
431.079	1	19
431.250	1	21
431.420	1	16
431.591	1	15
431.762	1	22
431.932	1	29
432.103	1	21
432.273	1	6
432.444	1	27
432.615	1	22
432.785	1	24
432.956	1	14
433.126	1	19
433.297	1	22
433.468	1	12
433.638	1	14
433.809	1	26
433.979	1	12
434.150	1	8
434.320	1	20
434.491	1	18
434.662	1	9
434.832	1	23
435.003	1	20
435.173	1	20
435.344	1	22
435.515	1	15
435.685	1	25
435.856	1	3
436.026	1	18
436.197	1	17
436.368	1	21
436.538	1	7
436.709	1	10
436.879	1	17
437.050	1	21
437.220	1	26
437.391	1	19
437.562	1	15
437.732	1	15
437.903	1	21
438.073	1	20
438.244	1	6
438.414	1	22
438.585	1	15
438.756	1	23
438.926	1	12
439.097	1	19
439.267	1	18
439.438	1	20
439.608	1	8
439.779	1	11
439.949	1	5
440.120	1	17
440.291	1	6
440.461	1	7
440.632	1	18
440.802	1	18
440.973	1	18
441.143	1	18
441.314	1	9
441.485	1	16
441.655	1	24
441.826	1	8
441.996	1	16
442.167	1	14
442.337	1	9
442.508	1	8
442.678	1	3
442.849	1	23
443.019	1	14
443.190	1	4
443.361	1	20
443.531	1	14
443.702	1	11
443.872	1	16
444.043	1	15
444.213	1	6
444.384	1	18
444.554	1	15
444.725	1	11
444.895	1	12
445.066	1	0
445.237	1	10
445.407	1	17
445.578	1	9
445.748	1	3
445.919	1	17
446.089	1	29
446.260	1	12
446.430	1	4
446.601	1	9
446.771	1	16
446.942	1	13
447.112	1	4
447.283	1	4
447.453	1	5
447.624	1	23
447.794	1	9
447.965	1	7
448.135	1	17
448.306	1	13
448.477	1	8
448.647	1	28
448.818	1	17
448.988	1	-6
449.159	1	4
449.329	1	9
449.500	1	26
449.670	1	19
449.841	1	18
450.011	1	16
450.182	1	1
450.352	1	18
450.523	1	3
450.693	1	18
450.864	1	18
451.034	1	9
451.205	1	13
451.375	1	23
451.546	1	14
451.716	1	18
451.887	1	6
452.057	1	13
452.228	1	2
452.398	1	22
452.569	1	10
452.739	1	14
452.910	1	5
453.080	1	20
453.251	1	9
453.421	1	9
453.592	1	4
453.762	1	13
453.933	1	15
454.103	1	11
454.274	1	11
454.444	1	29
454.615	1	16
454.785	1	7
454.956	1	7
455.126	1	10
455.297	1	6
455.467	1	17
455.638	1	14
455.808	1	11
455.979	1	12
456.149	1	4
456.320	1	10
456.490	1	13
456.661	1	6
456.831	1	18
457.001	1	10
457.172	1	5
457.342	1	11
457.513	1	13
457.683	1	13
457.854	1	12
458.024	1	16
458.195	1	14
458.365	1	14
458.536	1	7
458.706	1	17
458.877	1	14
459.047	1	7
459.218	1	14
459.388	1	9
459.559	1	10
459.729	1	9
459.899	1	10
460.070	1	18
460.240	1	9
460.411	1	18
460.581	1	14
460.752	1	11
460.922	1	16
461.093	1	12
461.263	1	9
461.434	1	22
461.604	1	5
461.775	1	11
461.945	1	14
462.115	1	0
462.286	1	22
462.456	1	4
462.627	1	5
462.797	1	8
462.968	1	7
463.138	1	15
463.309	1	10
463.479	1	16
463.649	1	9
463.820	1	10
463.990	1	11
464.161	1	18
464.331	1	11
464.502	1	19
464.672	1	1
464.843	1	19
465.013	1	-4
465.183	1	21
465.354	1	15
465.524	1	19
465.695	1	14
465.865	1	2
466.036	1	12
466.206	1	6
466.376	1	3
466.547	1	15
466.717	1	3
466.888	1	5
467.058	1	13
467.229	1	8
467.399	1	10
467.569	1	12
467.740	1	12
467.910	1	6
468.081	1	15
468.251	1	3
468.422	1	11
468.592	1	17
468.762	1	4
468.933	1	14
469.103	1	3
469.274	1	10
469.444	1	6
469.614	1	-2
469.785	1	17
469.955	1	6
470.126	1	11
470.296	1	1
470.467	1	4
470.637	1	19
470.807	1	16
470.978	1	9
471.148	1	8
471.319	1	13
471.489	1	15
471.659	1	19
471.830	1	20
472.000	1	7
472.171	1	10
472.341	1	4
472.511	1	21
472.682	1	15
472.852	1	7
473.023	1	8
473.193	1	-3
473.363	1	11
473.534	1	12
473.704	1	24
473.875	1	12
474.045	1	2
474.215	1	3
474.386	1	22
474.556	1	2
474.727	1	10
474.897	1	3
475.067	1	7
475.238	1	15
475.408	1	17
475.578	1	17
475.749	1	1
475.919	1	15
476.090	1	7
476.260	1	3
476.430	1	10
476.601	1	7
476.771	1	15
476.942	1	8
477.112	1	14
477.282	1	4
477.453	1	10
477.623	1	14
477.793	1	11
477.964	1	17
478.134	1	11
478.305	1	9
478.475	1	13
478.645	1	8
478.816	1	0
478.986	1	8
479.156	1	15
479.327	1	4
479.497	1	3
479.667	1	18
479.838	1	21
480.008	1	14
480.179	1	10
480.349	1	12
480.519	1	12
480.690	1	13
480.860	1	9
481.030	1	9
481.201	1	12
481.371	1	6
481.541	1	12
481.712	1	17
481.882	1	12
482.053	1	17
482.223	1	2
482.393	1	-3
482.564	1	-3
482.734	1	8
482.904	1	11
483.075	1	23
483.245	1	7
483.415	1	21
483.586	1	13
483.756	1	12
483.926	1	15
484.097	1	7
484.267	1	9
484.437	1	-2
484.608	1	10
484.778	1	15
484.948	1	7
485.119	1	13
485.289	1	5
485.459	1	14
485.630	1	8
485.800	1	1
485.970	1	15
486.141	1	1
486.311	1	13
486.481	1	18
486.652	1	10
486.822	1	15
486.992	1	6
487.163	1	11
487.333	1	11
487.503	1	2
487.674	1	11
487.844	1	12
488.014	1	14
488.185	1	4
488.355	1	6
488.525	1	8
488.696	1	6
488.866	1	17
489.036	1	16
489.207	1	18
489.377	1	13
489.547	1	9
489.718	1	11
489.888	1	16
490.058	1	12
490.228	1	10
490.399	1	25
490.569	1	23
490.739	1	10
490.910	1	20
491.080	1	16
491.250	1	20
491.421	1	14
491.591	1	10
491.761	1	16
491.932	1	20
492.102	1	11
492.272	1	21
492.442	1	16
492.613	1	15
492.783	1	9
492.953	1	25
493.124	1	17
493.294	1	21
493.464	1	15
493.635	1	15
493.805	1	25
493.975	1	15
494.145	1	19
494.316	1	21
494.486	1	13
494.656	1	20
494.827	1	7
494.997	1	8
495.167	1	22
495.337	1	20
495.508	1	15
495.678	1	28
495.848	1	26
496.019	1	12
496.189	1	14
496.359	1	23
496.529	1	10
496.700	1	16
496.870	1	20
497.040	1	19
497.211	1	15
497.381	1	-2
497.551	1	24
497.721	1	14
497.892	1	26
498.062	1	23
498.232	1	20
498.403	1	23
498.573	1	22
498.743	1	19
498.913	1	21
499.084	1	15
499.254	1	13
499.424	1	31
499.594	1	19
499.765	1	19
499.935	1	24
500.105	1	32
500.275	1	25
500.446	1	19
500.616	1	26
500.786	1	28
500.956	1	29
501.127	1	33
501.297	1	29
501.467	1	23
501.638	1	26
501.808	1	6
501.978	1	32
502.148	1	25
502.319	1	19
502.489	1	30
502.659	1	23
502.829	1	28
503.000	1	32
503.170	1	27
503.340	1	13
503.510	1	24
503.681	1	32
503.851	1	3
504.021	1	32
504.191	1	28
504.362	1	43
504.532	1	27
504.702	1	34
504.872	1	32
505.042	1	37
505.213	1	33
505.383	1	33
505.553	1	47
505.723	1	35
505.894	1	37
506.064	1	32
506.234	1	34
506.404	1	31
506.575	1	35
506.745	1	39
506.915	1	30
507.085	1	35
507.256	1	36
507.426	1	35
507.596	1	42
507.766	1	40
507.936	1	28
508.107	1	34
508.277	1	44
508.447	1	41
508.617	1	56
508.788	1	38
508.958	1	50
509.128	1	38
509.298	1	55
509.468	1	47
509.639	1	40
509.809	1	50
509.979	1	42
510.149	1	37
510.319	1	37
510.490	1	42
510.660	1	64
510.830	1	33
511.000	1	48
511.171	1	48
511.341	1	40
511.511	1	47
511.681	1	38
511.851	1	34
512.022	1	38
512.192	1	52
512.362	1	42
512.532	1	50
512.702	1	34
512.873	1	45
513.043	1	44
513.213	1	43
513.383	1	30
513.553	1	36
513.724	1	56
513.894	1	49
514.064	1	56
514.234	1	50
514.404	1	56
514.575	1	50
514.745	1	43
514.915	1	51
515.085	1	40
515.255	1	34
515.425	1	41
515.596	1	45
515.766	1	44
515.936	1	55
516.106	1	50
516.276	1	58
516.447	1	44
516.617	1	44
516.787	1	42
516.957	1	45
517.127	1	56
517.297	1	55
517.468	1	45
517.638	1	64
517.808	1	54
517.978	1	39
518.148	1	48
518.319	1	60
518.489	1	67
518.659	1	50
518.829	1	53
518.999	1	53
519.169	1	67
519.340	1	52
519.510	1	50
519.680	1	48
519.850	1	49
520.020	1	43
520.190	1	52
520.361	1	44
520.531	1	61
520.701	1	57
520.871	1	48
521.041	1	49
521.211	1	61
521.382	1	54
521.552	1	57
521.722	1	65
521.892	1	53
522.062	1	57
522.232	1	50
522.402	1	46
522.573	1	56
522.743	1	67
522.913	1	54
523.083	1	55
523.253	1	47
523.423	1	53
523.593	1	44
523.764	1	52
523.934	1	68
524.104	1	59
524.274	1	44
524.444	1	59
524.614	1	47
524.784	1	64
524.955	1	52
525.125	1	57
525.295	1	51
525.465	1	60
525.635	1	68
525.805	1	56
525.975	1	54
526.146	1	53
526.316	1	50
526.486	1	63
526.656	1	71
526.826	1	70
526.996	1	57
527.166	1	56
527.337	1	64
527.507	1	46
527.677	1	66
527.847	1	55
528.017	1	67
528.187	1	73
528.357	1	64
528.527	1	56
528.698	1	53
528.868	1	58
529.038	1	61
529.208	1	52
529.378	1	69
529.548	1	65
529.718	1	68
529.888	1	64
530.058	1	68
530.229	1	70
530.399	1	73
530.569	1	69
530.739	1	64
530.909	1	62
531.079	1	56
531.249	1	63
531.419	1	74
531.589	1	63
531.760	1	67
531.930	1	64
532.100	1	68
532.270	1	65
532.440	1	64
532.610	1	59
532.780	1	52
532.950	1	64
533.120	1	51
533.290	1	61
533.461	1	72
533.631	1	56
533.801	1	69
533.971	1	61
534.141	1	65
534.311	1	60
534.481	1	61
534.651	1	63
534.821	1	68
534.991	1	55
535.162	1	81
535.332	1	60
535.502	1	70
535.672	1	48
535.842	1	60
536.012	1	66
536.182	1	51
536.352	1	55
536.522	1	57
536.692	1	62
536.862	1	67
537.032	1	71
537.203	1	61
537.373	1	61
537.543	1	63
537.713	1	63
537.883	1	75
538.053	1	69
538.223	1	64
538.393	1	59
538.563	1	56
538.733	1	50
538.903	1	60
539.073	1	59
539.243	1	61
539.413	1	53
539.584	1	56
539.754	1	47
539.924	1	51
540.094	1	51
540.264	1	55
540.434	1	51
540.604	1	66
540.774	1	57
540.944	1	51
541.114	1	40
541.284	1	54
541.454	1	55
541.624	1	63
541.794	1	53
541.964	1	61
542.134	1	59
542.305	1	44
542.475	1	46
542.645	1	50
542.815	1	64
542.985	1	42
543.155	1	52
543.325	1	57
543.495	1	50
543.665	1	62
543.835	1	55
544.005	1	51
544.175	1	54
544.345	1	48
544.515	1	56
544.685	1	64
544.855	1	52
545.025	1	41
545.195	1	42
545.365	1	40
545.535	1	51
545.705	1	46
545.875	1	43
546.045	1	53
546.216	1	59
546.386	1	54
546.556	1	45
546.726	1	56
546.896	1	65
547.066	1	41
547.236	1	37
547.406	1	59
547.576	1	55
547.746	1	60
547.916	1	52
548.086	1	51
548.256	1	50
548.426	1	46
548.596	1	52
548.766	1	56
548.936	1	52
549.106	1	53
549.276	1	54
549.446	1	56
549.616	1	56
549.786	1	55
549.956	1	46
550.126	1	59
550.296	1	65
550.466	1	46
550.636	1	50
550.806	1	49
550.976	1	42
551.146	1	42
551.316	1	55
551.486	1	50
551.656	1	37
551.826	1	59
551.996	1	53
552.166	1	44
552.336	1	57
552.506	1	36
552.676	1	44
552.846	1	56
553.016	1	53
553.186	1	50
553.356	1	46
553.526	1	45
553.696	1	65
553.866	1	48
554.036	1	44
554.206	1	54
554.376	1	46
554.546	1	35
554.716	1	48
554.886	1	54
555.056	1	42
555.226	1	39
555.396	1	41
555.566	1	46
555.736	1	38
555.906	1	45
556.076	1	38
556.246	1	54
556.416	1	55
556.586	1	56
556.756	1	48
556.926	1	46
557.096	1	37
557.266	1	42
557.436	1	51
557.606	1	30
557.776	1	41
557.946	1	46
558.116	1	43
558.286	1	34
558.456	1	40
558.626	1	54
558.796	1	40
558.966	1	39
559.136	1	43
559.306	1	39
559.476	1	37
559.646	1	29
559.816	1	39
559.986	1	38
560.155	1	36
560.325	1	33
560.495	1	36
560.665	1	41
560.835	1	45
561.005	1	44
561.175	1	32
561.345	1	37
561.515	1	33
561.685	1	41
561.855	1	49
562.025	1	25
562.195	1	39
562.365	1	38
562.535	1	30
562.705	1	41
562.875	1	40
563.045	1	26
563.215	1	39
563.385	1	34
563.555	1	41
563.725	1	34
563.895	1	31
564.064	1	38
564.234	1	39
564.404	1	37
564.574	1	16
564.744	1	39
564.914	1	23
565.084	1	23
565.254	1	36
565.424	1	35
565.594	1	28
565.764	1	38
565.934	1	37
566.104	1	33
566.274	1	33
566.444	1	47
566.614	1	33
566.783	1	26
566.953	1	38
567.123	1	50
567.293	1	23
567.463	1	31
567.633	1	27
567.803	1	10
567.973	1	17
568.143	1	23
568.313	1	23
568.483	1	18
568.653	1	26
568.823	1	32
568.993	1	15
569.162	1	22
569.332	1	15
569.502	1	27
569.672	1	30
569.842	1	21
570.012	1	32
570.182	1	22
570.352	1	35
570.522	1	27
570.692	1	34
570.862	1	29
571.031	1	24
571.201	1	21
571.371	1	28
571.541	1	22
571.711	1	33
571.881	1	25
572.051	1	32
572.221	1	25
572.391	1	35
572.561	1	13
572.731	1	24
572.900	1	41
573.070	1	32
573.240	1	20
573.410	1	21
573.580	1	30
573.750	1	22
573.920	1	22
574.090	1	32
574.260	1	20
574.430	1	21
574.599	1	21
574.769	1	13
574.939	1	26
575.109	1	33
575.279	1	25
575.449	1	28
575.619	1	35
575.789	1	31
575.959	1	15
576.128	1	15
576.298	1	24
576.468	1	20
576.638	1	27
576.808	1	14
576.978	1	21
577.148	1	27
577.318	1	30
577.487	1	20
577.657	1	17
577.827	1	36
577.997	1	28
578.167	1	41
578.337	1	16
578.507	1	28
578.677	1	22
578.846	1	14
579.016	1	24
579.186	1	15
579.356	1	20
579.526	1	18
579.696	1	26
579.866	1	20
580.036	1	17
580.205	1	17
580.375	1	17
580.545	1	12
580.715	1	25
580.885	1	19
581.055	1	18
581.225	1	7
581.394	1	12
581.564	1	14
581.734	1	25
581.904	1	19
582.074	1	16
582.244	1	22
582.414	1	19
582.583	1	16
582.753	1	23
582.923	1	27
583.093	1	14
583.263	1	21
583.433	1	13
583.603	1	29
583.772	1	21
583.942	1	28
584.112	1	20
584.282	1	20
584.452	1	19
584.622	1	22
584.791	1	20
584.961	1	17
585.131	1	13
585.301	1	26
585.471	1	15
585.641	1	25
585.811	1	19
585.980	1	5
586.150	1	20
586.320	1	11
586.490	1	12
586.660	1	14
586.830	1	23
586.999	1	19
587.169	1	9
587.339	1	22
587.509	1	23
587.679	1	28
587.849	1	19
588.018	1	17
588.188	1	13
588.358	1	24
588.528	1	9
588.698	1	6
588.867	1	17
589.037	1	16
589.207	1	5
589.377	1	21
589.547	1	5
589.717	1	19
589.886	1	7
590.056	1	22
590.226	1	24
590.396	1	23
590.566	1	8
590.735	1	29
590.905	1	10
591.075	1	10
591.245	1	9
591.415	1	13
591.585	1	17
591.754	1	27
591.924	1	12
592.094	1	18
592.264	1	12
592.434	1	18
592.603	1	2
592.773	1	13
592.943	1	7
593.113	1	10
593.283	1	21
593.452	1	7
593.622	1	18
593.792	1	14
593.962	1	20
594.132	1	7
594.301	1	13
594.471	1	16
594.641	1	5
594.811	1	10
594.981	1	16
595.150	1	14
595.320	1	19
595.490	1	8
595.660	1	-2
595.829	1	15
595.999	1	18
596.169	1	16
596.339	1	16
596.509	1	13
596.678	1	7
596.848	1	10
597.018	1	22
597.188	1	14
597.358	1	16
597.527	1	5
597.697	1	8
597.867	1	16
598.037	1	6
598.206	1	1
598.376	1	12
598.546	1	5
598.716	1	6
598.885	1	3
599.055	1	8
599.225	1	12
599.395	1	23
599.565	1	12
599.734	1	12
599.904	1	14
600.074	1	8
600.244	1	9
600.413	1	10
600.583	1	4
600.753	1	16
600.923	1	23
601.092	1	4
601.262	1	20
601.432	1	16
601.602	1	13
601.771	1	21
601.941	1	6
602.111	1	10
602.281	1	11
602.451	1	13
602.620	1	15
602.790	1	13
602.960	1	3
603.130	1	19
603.299	1	15
603.469	1	11
603.639	1	14
603.809	1	17
603.978	1	7
604.148	1	10
604.318	1	19
604.487	1	24
604.657	1	16
604.827	1	3
604.997	1	16
605.166	1	-4
605.336	1	2
605.506	1	15
605.676	1	3
605.845	1	14
606.015	1	22
606.185	1	14
606.355	1	18
606.524	1	3
606.694	1	20
606.864	1	13
607.034	1	13
607.203	1	6
607.373	1	20
607.543	1	2
607.712	1	19
607.882	1	8
608.052	1	9
608.222	1	16
608.391	1	7
608.561	1	23
608.731	1	6
608.901	1	12
609.070	1	5
609.240	1	14
609.410	1	14
609.579	1	19
609.749	1	8
609.919	1	3
610.089	1	0
610.258	1	21
610.428	1	6
610.598	1	13
610.767	1	9
610.937	1	12
611.107	1	23
611.277	1	11
611.446	1	6
611.616	1	-1
611.786	1	20
611.955	1	19
612.125	1	8
612.295	1	12
612.465	1	6
612.634	1	12
612.804	1	14
612.974	1	13
613.143	1	6
613.313	1	11
613.483	1	12
613.652	1	12
613.822	1	7
613.992	1	9
614.162	1	18
614.331	1	7
614.501	1	11
614.671	1	15
614.840	1	14
615.010	1	14
615.180	1	9
615.349	1	11
615.519	1	16
615.689	1	11
615.858	1	15
616.028	1	12
616.198	1	25
616.368	1	4
616.537	1	9
616.707	1	1
616.877	1	6
617.046	1	9
617.216	1	6
617.386	1	4
617.555	1	2
617.725	1	5
617.895	1	8
618.064	1	7
618.234	1	6
618.404	1	18
618.573	1	9
618.743	1	7
618.913	1	11
619.082	1	8
619.252	1	18
619.422	1	3
619.591	1	6
619.761	1	8
619.931	1	16
620.100	1	7
620.270	1	14
620.440	1	8
620.609	1	16
620.779	1	2
620.949	1	6
621.118	1	3
621.288	1	15
621.458	1	12
621.627	1	3
621.797	1	11
621.967	1	9
622.136	1	15
622.306	1	13
622.476	1	14
622.645	1	22
622.815	1	10
622.985	1	10
623.154	1	6
623.324	1	18
623.494	1	14
623.663	1	-1
623.833	1	6
624.002	1	8
624.172	1	18
624.342	1	7
624.511	1	8
624.681	1	-4
624.851	1	1
625.020	1	3
625.190	1	17
625.360	1	0
625.529	1	16
625.699	1	4
625.869	1	16
626.038	1	10
626.208	1	7
626.377	1	15
626.547	1	11
626.717	1	2
626.886	1	8
627.056	1	9
627.226	1	10
627.395	1	11
627.565	1	20
627.735	1	17
627.904	1	2
628.074	1	9
628.243	1	-4
628.413	1	2
628.583	1	7
628.752	1	14
628.922	1	7
629.091	1	8
629.261	1	15
629.431	1	-6
629.600	1	8
629.770	1	6
629.940	1	7
630.109	1	13
630.279	1	5
630.448	1	-1
630.618	1	0
630.788	1	8
630.957	1	8
631.127	1	19
631.297	1	5
631.466	1	5
631.636	1	-3
631.805	1	11
631.975	1	1
632.145	1	7
632.314	1	26
632.484	1	5
632.653	1	7
632.823	1	18
632.993	1	4
633.162	1	12
633.332	1	9
633.501	1	4
633.671	1	6
633.841	1	14
634.010	1	9
634.180	1	24
634.349	1	10
634.519	1	19
634.689	1	26
634.858	1	7
635.028	1	12
635.197	1	-4
635.367	1	11
635.537	1	15
635.706	1	3
635.876	1	5
636.045	1	-1
636.215	1	9
636.384	1	6
636.554	1	15
636.724	1	11
636.893	1	2
637.063	1	2
637.232	1	9
637.402	1	13
637.572	1	-3
637.741	1	14
637.911	1	-2
638.080	1	9
638.250	1	14
638.419	1	10
638.589	1	18
638.759	1	16
638.928	1	-5
639.098	1	10
639.267	1	-1
639.437	1	-2
639.606	1	19
639.776	1	4
639.946	1	4
640.115	1	5
640.285	1	13
640.454	1	19
640.624	1	4
640.793	1	11
640.963	1	10
641.132	1	8
641.302	1	3
641.472	1	-2
641.641	1	9
641.811	1	15
641.980	1	5
642.150	1	6
642.319	1	4
642.489	1	5
642.659	1	-3
642.828	1	10
642.998	1	2
643.167	1	18
643.337	1	20
643.506	1	3
643.676	1	11
643.845	1	1
644.015	1	9
644.184	1	15
644.354	1	2
644.524	1	2
644.693	1	14
644.863	1	7
645.032	1	2
645.202	1	15
645.371	1	7
645.541	1	4
645.710	1	2
645.880	1	5
646.049	1	9
646.219	1	7
646.388	1	0
646.558	1	13
646.728	1	11
646.897	1	5
647.067	1	3
647.236	1	12
647.406	1	7
647.575	1	12
647.745	1	9
647.914	1	5
648.084	1	16
648.253	1	16
648.423	1	1
648.592	1	6
648.762	1	5
648.931	1	8
649.101	1	5
649.270	1	13
649.440	1	17
649.610	1	11
649.779	1	2
649.949	1	11
650.118	1	6
650.288	1	0
650.457	1	6
650.627	1	5
650.796	1	9
650.966	1	0
651.135	1	15
651.305	1	9
651.474	1	10
651.644	1	0
651.813	1	16
651.983	1	15
652.152	1	0
652.322	1	10
652.491	1	10
652.661	1	1
652.830	1	15
653.000	1	1
653.169	1	9
653.339	1	10
653.508	1	1
653.678	1	13
653.847	1	11
654.017	1	3
654.186	1	7
654.356	1	9
654.525	1	7
654.695	1	8
654.864	1	16
655.034	1	8
655.203	1	4
655.373	1	14
655.542	1	12
655.712	1	3
655.881	1	3
656.051	1	16
656.220	1	13
656.390	1	1
656.559	1	0
656.729	1	5
656.898	1	3
657.068	1	-2
657.237	1	15
657.406	1	-4
657.576	1	-3
657.745	1	4
657.915	1	4
658.084	1	12
658.254	1	3
658.423	1	-5
658.593	1	3
658.762	1	-2
658.932	1	9
659.101	1	2
659.271	1	7
659.440	1	13
659.610	1	6
659.779	1	-6
659.949	1	0
660.118	1	9
660.288	1	7
660.457	1	7
660.626	1	-2
660.796	1	-5
660.965	1	7
661.135	1	16
661.304	1	10
661.474	1	-1
661.643	1	4
661.813	1	1
661.982	1	2
662.152	1	2
662.321	1	6
662.491	1	10
662.660	1	7
662.829	1	2
662.999	1	7
663.168	1	-2
663.338	1	9
663.507	1	4
663.677	1	2
663.846	1	5
664.016	1	5
664.185	1	2
664.354	1	8
664.524	1	2
664.693	1	10
664.863	1	4
665.032	1	10
665.202	1	-9
665.371	1	9
665.541	1	5
665.710	1	0
665.879	1	13
666.049	1	4
666.218	1	-4
666.388	1	3
666.557	1	15
666.727	1	-15
666.896	1	1
667.065	1	6
667.235	1	1
667.404	1	-4
667.574	1	6
667.743	1	2
667.913	1	17
668.082	1	0
668.251	1	7
668.421	1	4
668.590	1	6
668.760	1	10
668.929	1	10
669.099	1	1
669.268	1	6
669.437	1	1
669.607	1	-3
669.776	1	1
669.946	1	10
670.115	1	2
670.285	1	10
670.454	1	8
670.623	1	13
670.793	1	8
670.962	1	3
671.132	1	10
671.301	1	3
671.470	1	0
671.640	1	-3
671.809	1	7
671.979	1	19
672.148	1	14
672.317	1	7
672.487	1	-1
672.656	1	10
672.826	1	-8
672.995	1	5
673.164	1	15
673.334	1	15
673.503	1	9
673.673	1	19
673.842	1	7
674.011	1	10
674.181	1	4
674.350	1	4
674.520	1	4
674.689	1	1
674.858	1	5
675.028	1	10
675.197	1	0
675.367	1	4
675.536	1	16
675.705	1	-2
675.875	1	6
676.044	1	6
676.214	1	2
676.383	1	2
676.552	1	4
676.722	1	9
676.891	1	-6
677.060	1	4
677.230	1	20
677.399	1	4
677.569	1	4
677.738	1	-2
677.907	1	-7
678.077	1	-2
678.246	1	-1
678.416	1	7
678.585	1	10
678.754	1	3
678.924	1	1
679.093	1	5
679.262	1	4
679.432	1	2
679.601	1	2
679.771	1	5
679.940	1	7
680.109	1	9
680.279	1	0
680.448	1	6
680.617	1	5
680.787	1	9
680.956	1	-1
681.125	1	10
681.295	1	4
681.464	1	1
681.634	1	13
681.803	1	-8
681.972	1	0
682.142	1	21
682.311	1	11
682.480	1	7
682.650	1	-2
682.819	1	0
682.988	1	-2
683.158	1	5
683.327	1	13
683.496	1	3
683.666	1	14
683.835	1	4
684.004	1	11
684.174	1	7
684.343	1	9
684.512	1	6
684.682	1	10
684.851	1	1
685.021	1	10
685.190	1	7
685.359	1	2
685.529	1	9
685.698	1	4
685.867	1	8
686.037	1	8
686.206	1	15
686.375	1	8
686.545	1	9
686.714	1	1
686.883	1	3
687.053	1	17
687.222	1	10
687.391	1	-3
687.561	1	9
687.730	1	3
687.899	1	1
688.069	1	10
688.238	1	9
688.407	1	18
688.577	1	-1
688.746	1	7
