340.368	1	4
340.539	1	4
340.710	1	8
340.881	1	2
341.052	1	-2
341.223	1	17
341.394	1	0
341.565	1	-7
341.737	1	7
341.908	1	-7
342.079	1	-1
342.250	1	1
342.421	1	-7
342.592	1	-12
342.763	1	0
342.934	1	8
343.105	1	11
343.276	1	-4
343.447	1	5
343.618	1	-6
343.789	1	0
343.960	1	-1
344.131	1	-9
344.302	1	-4
344.473	1	2
344.644	1	3
344.815	1	11
344.986	1	1
345.157	1	5
345.328	1	-9
345.499	1	10
345.670	1	5
345.841	1	4
346.012	1	3
346.183	1	-8
346.354	1	5
346.526	1	4
346.697	1	-4
346.868	1	2
347.039	1	1
347.210	1	-2
347.381	1	1
347.552	1	5
347.723	1	8
347.894	1	-1
348.065	1	-1
348.236	1	7
348.407	1	1
348.578	1	-3
348.749	1	1
348.920	1	4
349.091	1	2
349.262	1	5
349.433	1	0
349.604	1	12
349.775	1	3
349.946	1	5
350.117	1	4
350.288	1	-4
350.459	1	8
350.630	1	-7
350.801	1	2
350.972	1	-3
351.143	1	-5
351.314	1	-1
351.485	1	0
351.656	1	-3
351.827	1	-6
351.998	1	-7
352.169	1	6
352.340	1	-8
352.511	1	-4
352.682	1	-8
352.853	1	-6
353.024	1	-6
353.195	1	-5
353.366	1	8
353.537	1	-2
353.708	1	0
353.879	1	1
354.050	1	7
354.221	1	-11
354.392	1	8
354.563	1	11
354.734	1	-5
354.905	1	-1
355.076	1	4
355.247	1	-7
355.418	1	-9
355.589	1	1
355.760	1	13
355.931	1	-7
356.102	1	-7
356.273	1	3
356.444	1	8
356.615	1	3
356.785	1	10
356.956	1	-9
357.127	1	4
357.298	1	2
357.469	1	-4
357.640	1	7
357.811	1	14
357.982	1	-5
358.153	1	0
358.324	1	0
358.495	1	11
358.666	1	-1
358.837	1	8
359.008	1	-1
359.179	1	-2
359.350	1	2
359.521	1	-10
359.692	1	7
359.863	1	-3
360.034	1	-1
360.205	1	-7
360.376	1	4
360.547	1	2
360.718	1	-3
360.889	1	-1
361.060	1	12
361.231	1	-5
361.401	1	-4
361.572	1	-5
361.743	1	4
361.914	1	0
362.085	1	0
362.256	1	9
362.427	1	-1
362.598	1	1
362.769	1	9
362.940	1	1
363.111	1	2
363.282	1	1
363.453	1	-6
363.624	1	-3
363.795	1	-2
363.966	1	0
364.137	1	1
364.308	1	-2
364.478	1	2
364.649	1	-1
364.820	1	5
364.991	1	-10
365.162	1	-14
365.333	1	5
365.504	1	-1
365.675	1	-3
365.846	1	6
366.017	1	9
366.188	1	-7
366.359	1	-5
366.530	1	4
366.701	1	-10
366.871	1	6
367.042	1	10
367.213	1	6
367.384	1	1
367.555	1	-6
367.726	1	10
367.897	1	-6
368.068	1	-3
368.239	1	11
368.410	1	-10
368.581	1	11
368.752	1	-5
368.923	1	-10
369.093	1	11
369.264	1	5
369.435	1	-9
369.606	1	-1
369.777	1	-5
369.948	1	5
370.119	1	2
370.290	1	1
370.461	1	4
370.632	1	6
370.803	1	2
370.973	1	8
371.144	1	7
371.315	1	-4
371.486	1	12
371.657	1	10
371.828	1	4
371.999	1	2
372.170	1	7
372.341	1	5
372.512	1	-4
372.682	1	-2
372.853	1	13
373.024	1	-2
373.195	1	-5
373.366	1	2
373.537	1	-3
373.708	1	0
373.879	1	4
374.050	1	-1
374.220	1	5
374.391	1	7
374.562	1	3
374.733	1	13
374.904	1	2
375.075	1	3
375.246	1	-1
375.417	1	-1
375.588	1	2
375.758	1	-1
375.929	1	3
376.100	1	13
376.271	1	-1
376.442	1	2
376.613	1	-1
376.784	1	3
376.955	1	-3
377.125	1	-7
377.296	1	3
377.467	1	9
377.638	1	2
377.809	1	12
377.980	1	1
378.151	1	-1
378.321	1	11
378.492	1	6
378.663	1	-3
378.834	1	4
379.005	1	9
379.176	1	3
379.347	1	9
379.518	1	-11
379.688	1	-2
379.859	1	-10
380.030	1	-5
380.201	1	-6
380.372	1	5
380.543	1	3
380.714	1	1
380.884	1	2
381.055	1	-4
381.226	1	-1
381.397	1	-3
381.568	1	-7
381.739	1	4
381.910	1	7
382.080	1	-12
382.251	1	-1
382.422	1	2
382.593	1	-5
382.764	1	-1
382.935	1	5
383.105	1	-5
383.276	1	9
383.447	1	7
383.618	1	8
383.789	1	4
383.960	1	-8
384.130	1	-7
384.301	1	-1
384.472	1	-4
384.643	1	8
384.814	1	0
384.985	1	-1
385.156	1	6
385.326	1	5
385.497	1	2
385.668	1	-8
385.839	1	7
386.010	1	3
386.180	1	1
386.351	1	-5
386.522	1	1
386.693	1	1
386.864	1	-2
387.035	1	1
387.205	1	1
387.376	1	6
387.547	1	-13
387.718	1	4
387.889	1	8
388.060	1	-10
388.230	1	-1
388.401	1	1
388.572	1	2
388.743	1	12
388.914	1	7
389.084	1	5
389.255	1	5
389.426	1	0
389.597	1	-8
389.768	1	0
389.939	1	5
390.109	1	5
390.280	1	7
390.451	1	11
390.622	1	3
390.793	1	8
390.963	1	1
391.134	1	-2
391.305	1	13
391.476	1	5
391.647	1	1
391.817	1	2
391.988	1	-8
392.159	1	4
392.330	1	7
392.501	1	6
392.671	1	4
392.842	1	13
393.013	1	6
393.184	1	4
393.355	1	10
393.525	1	2
393.696	1	2
393.867	1	-5
394.038	1	-8
394.208	1	3
394.379	1	-8
394.550	1	7
394.721	1	3
394.892	1	2
395.062	1	-10
395.233	1	5
395.404	1	2
395.575	1	-9
395.746	1	3
395.916	1	-8
396.087	1	-9
396.258	1	-1
396.429	1	0
396.599	1	2
396.770	1	2
396.941	1	7
397.112	1	-11
397.283	1	6
397.453	1	-7
397.624	1	4
397.795	1	7
397.966	1	9
398.136	1	0
398.307	1	-4
398.478	1	-6
398.649	1	2
398.819	1	-1
398.990	1	-3
399.161	1	3
399.332	1	9
399.503	1	-4
399.673	1	-5
399.844	1	-4
400.015	1	1
400.186	1	7
400.356	1	3
400.527	1	-4
400.698	1	-1
400.869	1	8
401.039	1	-3
401.210	1	-12
401.381	1	1
401.552	1	13
401.722	1	3
401.893	1	0
402.064	1	-1
402.235	1	18
402.405	1	-6
402.576	1	10
402.747	1	4
402.918	1	-4
403.088	1	-7
403.259	1	-10
403.430	1	4
403.601	1	-15
403.771	1	4
403.942	1	7
404.113	1	11
404.284	1	0
404.454	1	6
404.625	1	9
404.796	1	5
404.967	1	-1
405.137	1	7
405.308	1	-1
405.479	1	0
405.649	1	0
405.820	1	3
405.991	1	7
406.162	1	-3
406.332	1	-7
406.503	1	5
406.674	1	4
406.845	1	11
407.015	1	-5
407.186	1	15
407.357	1	6
407.527	1	-2
407.698	1	-5
407.869	1	-4
408.040	1	-6
408.210	1	0
408.381	1	-4
408.552	1	-6
408.722	1	-1
408.893	1	-2
409.064	1	-3
409.235	1	4
409.405	1	-1
409.576	1	-5
409.747	1	-1
409.917	1	0
410.088	1	-1
410.259	1	3
410.430	1	1
410.600	1	-1
410.771	1	10
410.942	1	4
411.112	1	3
411.283	1	-3
411.454	1	4
411.625	1	-9
411.795	1	11
411.966	1	0
412.137	1	4
412.307	1	-9
412.478	1	7
412.649	1	2
412.819	1	-6
412.990	1	5
413.161	1	-6
413.332	1	-6
413.502	1	-5
413.673	1	2
413.844	1	0
414.014	1	-1
414.185	1	3
414.356	1	-5
414.526	1	4
414.697	1	3
414.868	1	15
415.038	1	1
415.209	1	-3
415.380	1	-6
415.550	1	2
415.721	1	0
415.892	1	-5
416.063	1	12
416.233	1	-3
416.404	1	11
416.575	1	-5
416.745	1	-4
416.916	1	-7
417.087	1	-4
417.257	1	1
417.428	1	-18
417.599	1	-4
417.769	1	6
417.940	1	-4
418.111	1	-1
418.281	1	6
418.452	1	0
418.623	1	-9
418.793	1	9
418.964	1	8
419.135	1	1
419.305	1	1
419.476	1	6
419.647	1	4
419.817	1	6
419.988	1	-6
420.159	1	-6
420.329	1	1
420.500	1	0
420.671	1	7
420.841	1	5
421.012	1	7
421.183	1	4
421.353	1	4
421.524	1	1
421.695	1	6
421.865	1	-3
422.036	1	-2
422.206	1	2
422.377	1	4
422.548	1	7
422.718	1	5
422.889	1	-1
423.060	1	-7
423.230	1	0
423.401	1	4
423.572	1	6
423.742	1	-4
423.913	1	2
424.084	1	-6
424.254	1	-5
424.425	1	-7
424.595	1	1
424.766	1	2
424.937	1	-6
425.107	1	4
425.278	1	-5
425.449	1	-6
425.619	1	5
425.790	1	-1
425.961	1	3
426.131	1	2
426.302	1	-7
426.472	1	0
426.643	1	6
426.814	1	5
426.984	1	7
427.155	1	2
427.326	1	3
427.496	1	6
427.667	1	12
427.837	1	-7
428.008	1	2
428.179	1	-5
428.349	1	0
428.520	1	-1
428.691	1	6
428.861	1	-1
429.032	1	-3
429.202	1	3
429.373	1	-15
429.544	1	1
429.714	1	2
429.885	1	-1
430.055	1	1
430.226	1	-4
430.397	1	-2
430.567	1	8
430.738	1	-1
430.909	1	-8
431.079	1	5
431.250	1	-9
431.420	1	-2
431.591	1	4
431.762	1	-2
431.932	1	0
432.103	1	6
432.273	1	-6
432.444	1	2
432.615	1	2
432.785	1	1
432.956	1	-8
433.126	1	-8
433.297	1	6
433.468	1	3
433.638	1	-2
433.809	1	1
433.979	1	4
434.150	1	-8
434.320	1	-5
434.491	1	-2
434.662	1	-4
434.832	1	-14
435.003	1	1
435.173	1	-4
435.344	1	0
435.515	1	-10
435.685	1	7
435.856	1	-8
436.026	1	4
436.197	1	6
436.368	1	2
436.538	1	2
436.709	1	-5
436.879	1	2
437.050	1	0
437.220	1	9
437.391	1	-1
437.562	1	5
437.732	1	0
437.903	1	-3
438.073	1	11
438.244	1	-10
438.414	1	-2
438.585	1	0
438.756	1	-1
438.926	1	0
439.097	1	5
439.267	1	6
439.438	1	7
439.608	1	-1
439.779	1	-4
439.949	1	-10
440.120	1	2
440.291	1	-14
440.461	1	6
440.632	1	4
440.802	1	-5
440.973	1	12
441.143	1	7
441.314	1	1
441.485	1	-3
441.655	1	7
441.826	1	-12
441.996	1	-6
442.167	1	7
442.337	1	-12
442.508	1	2
442.678	1	-10
442.849	1	6
443.019	1	3
443.190	1	-15
443.361	1	12
443.531	1	-9
443.702	1	-4
443.872	1	4
444.043	1	0
444.213	1	-12
444.384	1	8
444.554	1	-6
444.725	1	4
444.895	1	4
445.066	1	-8
445.237	1	0
445.407	1	-3
445.578	1	6
445.748	1	-4
445.919	1	6
446.089	1	15
446.260	1	-6
446.430	1	-12
446.601	1	-6
446.771	1	-2
446.942	1	-3
447.112	1	-4
447.283	1	0
447.453	1	-5
447.624	1	0
447.794	1	2
447.965	1	-7
448.135	1	0
448.306	1	-1
448.477	1	-6
448.647	1	13
448.818	1	5
448.988	1	-8
449.159	1	4
449.329	1	0
449.500	1	9
449.670	1	9
449.841	1	5
450.011	1	5
450.182	1	-10
450.352	1	4
450.523	1	-6
450.693	1	-6
450.864	1	0
451.034	1	6
451.205	1	-2
451.375	1	7
451.546	1	6
451.716	1	5
451.887	1	1
452.057	1	10
452.228	1	-4
452.398	1	-1
452.569	1	3
452.739	1	0
452.910	1	-3
453.080	1	7
453.251	1	-5
453.421	1	0
453.592	1	-8
453.762	1	8
453.933	1	2
454.103	1	7
454.274	1	-3
454.444	1	9
454.615	1	8
454.785	1	-2
454.956	1	-5
455.126	1	-5
455.297	1	-1
455.467	1	7
455.638	1	-4
455.808	1	-1
455.979	1	4
456.149	1	-4
456.320	1	1
456.490	1	2
456.661	1	-10
456.831	1	12
457.001	1	6
457.172	1	-3
457.342	1	5
457.513	1	3
457.683	1	8
457.854	1	-10
458.024	1	0
458.195	1	0
458.365	1	6
458.536	1	-3
458.706	1	4
458.877	1	-7
459.047	1	-3
459.218	1	9
459.388	1	-1
459.559	1	0
459.729	1	5
459.899	1	10
460.070	1	7
460.240	1	-3
460.411	1	11
460.581	1	7
460.752	1	0
460.922	1	4
461.093	1	15
461.263	1	5
461.434	1	8
461.604	1	4
461.775	1	-3
461.945	1	9
462.115	1	-6
462.286	1	13
462.456	1	-4
462.627	1	2
462.797	1	-4
462.968	1	2
463.138	1	2
463.309	1	-3
463.479	1	6
463.649	1	1
463.820	1	5
463.990	1	1
464.161	1	3
464.331	1	-1
464.502	1	-5
464.672	1	5
464.843	1	-3
465.013	1	-6
465.183	1	4
465.354	1	5
465.524	1	8
465.695	1	11
465.865	1	-4
466.036	1	2
466.206	1	-5
466.376	1	-9
466.547	1	1
466.717	1	-3
466.888	1	1
467.058	1	11
467.229	1	14
467.399	1	-2
467.569	1	-4
467.740	1	-6
467.910	1	-4
468.081	1	8
468.251	1	-8
468.422	1	-3
468.592	1	7
468.762	1	-13
468.933	1	4
469.103	1	-7
469.274	1	5
469.444	1	-6
469.614	1	-1
469.785	1	16
469.955	1	-2
470.126	1	1
470.296	1	2
470.467	1	-9
470.637	1	13
470.807	1	-1
470.978	1	4
471.148	1	2
471.319	1	4
471.489	1	3
471.659	1	4
471.830	1	8
472.000	1	5
472.171	1	-4
472.341	1	1
472.511	1	3
472.682	1	3
472.852	1	-11
473.023	1	-2
473.193	1	-11
473.363	1	4
473.534	1	2
473.704	1	7
473.875	1	2
474.045	1	-1
474.215	1	1
474.386	1	8
474.556	1	-11
474.727	1	-3
474.897	1	-11
475.067	1	-5
475.238	1	2
475.408	1	1
475.578	1	1
475.749	1	0
475.919	1	7
476.090	1	-4
476.260	1	1
476.430	1	5
476.601	1	-5
476.771	1	11
476.942	1	2
477.112	1	0
477.282	1	-12
477.453	1	10
477.623	1	2
477.793	1	3
477.964	1	16
478.134	1	7
478.305	1	5
478.475	1	3
478.645	1	-9
478.816	1	0
478.986	1	-3
479.156	1	-4
479.327	1	-11
479.497	1	1
479.667	1	-2
479.838	1	-7
480.008	1	10
480.179	1	-3
480.349	1	1
480.519	1	-1
480.690	1	-2
480.860	1	-3
481.030	1	-12
481.201	1	-7
481.371	1	-5
481.541	1	9
481.712	1	9
481.882	1	-3
482.053	1	12
482.223	1	-5
482.393	1	-10
482.564	1	-1
482.734	1	1
482.904	1	7
483.075	1	2
483.245	1	2
483.415	1	-2
483.586	1	2
483.756	1	0
483.926	1	3
484.097	1	-10
484.267	1	-5
484.437	1	-9
484.608	1	7
484.778	1	5
484.948	1	-4
485.119	1	4
485.289	1	5
485.459	1	1
485.630	1	-10
485.800	1	-5
485.970	1	1
486.141	1	-7
486.311	1	-2
486.481	1	-2
486.652	1	-3
486.822	1	5
486.992	1	-3
487.163	1	-7
487.333	1	7
487.503	1	-18
487.674	1	1
487.844	1	6
488.014	1	7
488.185	1	-17
488.355	1	-1
488.525	1	-1
488.696	1	-6
488.866	1	3
489.036	1	4
489.207	1	19
489.377	1	4
489.547	1	-6
489.718	1	-7
489.888	1	6
490.058	1	-5
490.228	1	-7
490.399	1	11
490.569	1	6
490.739	1	-7
490.910	1	-3
491.080	1	1
491.250	1	-3
491.421	1	-10
491.591	1	0
491.761	1	-3
491.932	1	4
492.102	1	1
492.272	1	3
492.442	1	0
492.613	1	2
492.783	1	-12
492.953	1	7
493.124	1	-11
493.294	1	4
493.464	1	-3
493.635	1	-8
493.805	1	4
493.975	1	2
494.145	1	1
494.316	1	4
494.486	1	9
494.656	1	0
494.827	1	-4
494.997	1	-4
495.167	1	-2
495.337	1	-4
495.508	1	-9
495.678	1	8
495.848	1	12
496.019	1	3
496.189	1	-2
496.359	1	7
496.529	1	-2
496.700	1	2
496.870	1	-3
497.040	1	-3
497.211	1	15
497.381	1	-11
497.551	1	9
497.721	1	0
497.892	1	9
498.062	1	-6
498.232	1	1
498.403	1	4
498.573	1	-6
498.743	1	-1
498.913	1	-4
499.084	1	-7
499.254	1	-4
499.424	1	11
499.594	1	1
499.765	1	-1
499.935	1	-12
500.105	1	-1
500.275	1	3
500.446	1	-2
500.616	1	3
500.786	1	2
500.956	1	4
501.127	1	9
501.297	1	-1
501.467	1	5
501.638	1	-1
501.808	1	-17
501.978	1	5
502.148	1	8
502.319	1	4
502.489	1	10
502.659	1	3
502.829	1	-3
503.000	1	4
503.170	1	2
503.340	1	-1
503.510	1	-2
503.681	1	1
503.851	1	-3
504.021	1	7
504.191	1	5
504.362	1	12
504.532	1	-8
504.702	1	1
504.872	1	-3
505.042	1	5
505.213	1	4
505.383	1	5
505.553	1	7
505.723	1	2
505.894	1	11
506.064	1	7
506.234	1	2
506.404	1	-1
506.575	1	-3
506.745	1	-3
506.915	1	1
507.085	1	-11
507.256	1	-11
507.426	1	8
507.596	1	5
507.766	1	1
507.936	1	3
508.107	1	3
508.277	1	-6
508.447	1	4
508.617	1	13
508.788	1	5
508.958	1	13
509.128	1	1
509.298	1	14
509.468	1	11
509.639	1	8
509.809	1	6
509.979	1	-7
510.149	1	6
510.319	1	-7
510.490	1	8
510.660	1	14
510.830	1	0
511.000	1	-9
511.171	1	11
511.341	1	2
511.511	1	-5
511.681	1	4
511.851	1	-4
512.022	1	-14
512.192	1	7
512.362	1	4
512.532	1	-10
512.702	1	-7
512.873	1	4
513.043	1	1
513.213	1	0
513.383	1	-5
513.553	1	-8
513.724	1	10
513.894	1	-3
514.064	1	-2
514.234	1	3
514.404	1	-1
514.575	1	-6
514.745	1	0
514.915	1	1
515.085	1	-2
515.255	1	-4
515.425	1	2
515.596	1	-8
515.766	1	-2
515.936	1	-5
516.106	1	-1
516.276	1	5
516.447	1	5
516.617	1	4
516.787	1	-11
516.957	1	-2
517.127	1	9
517.297	1	3
517.468	1	-5
517.638	1	5
517.808	1	11
517.978	1	0
518.148	1	-7
518.319	1	0
518.489	1	2
518.659	1	12
518.829	1	-8
518.999	1	0
519.169	1	4
519.340	1	-9
519.510	1	-10
519.680	1	-11
519.850	1	-1
520.020	1	0
520.190	1	1
520.361	1	-3
520.531	1	1
520.701	1	-2
520.871	1	-4
521.041	1	0
521.211	1	2
521.382	1	-3
521.552	1	6
521.722	1	5
521.892	1	-10
522.062	1	2
522.232	1	-8
522.402	1	-10
522.573	1	6
522.743	1	5
522.913	1	9
523.083	1	9
523.253	1	0
523.423	1	-2
523.593	1	-15
523.764	1	8
523.934	1	8
524.104	1	-8
524.274	1	3
524.444	1	5
524.614	1	-3
524.784	1	2
524.955	1	2
525.125	1	3
525.295	1	-10
525.465	1	-4
525.635	1	5
525.805	1	-4
525.975	1	-3
526.146	1	1
526.316	1	5
526.486	1	0
526.656	1	17
526.826	1	1
526.996	1	3
527.166	1	-8
527.337	1	3
527.507	1	-6
527.677	1	13
527.847	1	-13
528.017	1	-6
528.187	1	-1
528.357	1	10
528.527	1	9
528.698	1	-3
528.868	1	1
529.038	1	7
529.208	1	0
529.378	1	-1
529.548	1	2
529.718	1	1
529.888	1	7
530.058	1	-2
530.229	1	6
530.399	1	13
530.569	1	9
530.739	1	-2
530.909	1	2
531.079	1	4
531.249	1	2
531.419	1	7
531.589	1	-9
531.760	1	9
531.930	1	-9
532.100	1	9
532.270	1	9
532.440	1	-5
532.610	1	7
532.780	1	1
532.950	1	2
533.120	1	-5
533.290	1	5
533.461	1	9
533.631	1	5
533.801	1	3
533.971	1	-1
534.141	1	1
534.311	1	3
534.481	1	2
534.651	1	-1
534.821	1	9
534.991	1	-1
535.162	1	3
535.332	1	7
535.502	1	2
535.672	1	-7
535.842	1	-8
536.012	1	-3
536.182	1	-4
536.352	1	3
536.522	1	4
536.692	1	3
536.862	1	4
537.032	1	-4
537.203	1	6
537.373	1	-16
537.543	1	-1
537.713	1	18
537.883	1	5
538.053	1	1
538.223	1	4
538.393	1	-2
538.563	1	3
538.733	1	-7
538.903	1	6
539.073	1	-1
539.243	1	-6
539.413	1	-5
539.584	1	-1
539.754	1	-3
539.924	1	0
540.094	1	2
540.264	1	5
540.434	1	-6
540.604	1	-6
540.774	1	4
540.944	1	-5
541.114	1	-2
541.284	1	0
541.454	1	6
541.624	1	-4
541.794	1	2
541.964	1	1
542.134	1	0
542.305	1	-4
542.475	1	-12
542.645	1	0
542.815	1	6
542.985	1	-10
543.155	1	6
543.325	1	-4
543.495	1	-4
543.665	1	11
543.835	1	-6
544.005	1	-1
544.175	1	8
544.345	1	-7
544.515	1	-4
544.685	1	3
544.855	1	4
545.025	1	-12
545.195	1	3
545.365	1	-3
545.535	1	4
545.705	1	7
545.875	1	-1
546.045	1	7
546.216	1	10
546.386	1	3
546.556	1	-8
546.726	1	2
546.896	1	-5
547.066	1	-8
547.236	1	-6
547.406	1	15
547.576	1	-3
547.746	1	6
547.916	1	13
548.086	1	-2
548.256	1	-2
548.426	1	0
548.596	1	7
548.766	1	3
548.936	1	-8
549.106	1	5
549.276	1	8
549.446	1	-8
549.616	1	-1
549.786	1	2
549.956	1	1
550.126	1	5
550.296	1	5
550.466	1	-4
550.636	1	0
550.806	1	7
550.976	1	-1
551.146	1	-6
551.316	1	11
551.486	1	-2
551.656	1	-10
551.826	1	2
551.996	1	-2
552.166	1	-5
552.336	1	-2
552.506	1	-6
552.676	1	-7
552.846	1	5
553.016	1	0
553.186	1	3
553.356	1	-13
553.526	1	-4
553.696	1	5
553.866	1	6
554.036	1	-2
554.206	1	2
554.376	1	-1
554.546	1	-17
554.716	1	3
554.886	1	6
555.056	1	-5
555.226	1	-9
555.396	1	-3
555.566	1	5
555.736	1	0
555.906	1	-2
556.076	1	6
556.246	1	0
556.416	1	2
556.586	1	9
556.756	1	12
556.926	1	4
557.096	1	-4
557.266	1	5
557.436	1	8
557.606	1	-5
557.776	1	9
557.946	1	2
558.116	1	10
558.286	1	5
558.456	1	-5
558.626	1	9
558.796	1	0
558.966	1	-7
559.136	1	5
559.306	1	3
559.476	1	-4
559.646	1	-4
559.816	1	1
559.986	1	4
560.155	1	5
560.325	1	-8
560.495	1	-9
560.665	1	7
560.835	1	3
561.005	1	2
561.175	1	-4
561.345	1	6
561.515	1	-15
561.685	1	-5
561.855	1	2
562.025	1	-10
562.195	1	3
562.365	1	4
562.535	1	11
562.705	1	13
562.875	1	1
563.045	1	5
563.215	1	-8
563.385	1	-5
563.555	1	13
563.725	1	2
563.895	1	-5
564.064	1	15
564.234	1	12
564.404	1	-2
564.574	1	-2
564.744	1	-3
564.914	1	-18
565.084	1	-17
565.254	1	3
565.424	1	-1
565.594	1	-2
565.764	1	1
565.934	1	2
566.104	1	-6
566.274	1	3
566.444	1	5
566.614	1	0
566.783	1	7
566.953	1	-5
567.123	1	4
567.293	1	-3
567.463	1	5
567.633	1	-2
567.803	1	-11
567.973	1	-5
568.143	1	-9
568.313	1	1
568.483	1	-2
568.653	1	-5
568.823	1	12
568.993	1	-12
569.162	1	19
569.332	1	-6
569.502	1	-13
569.672	1	0
569.842	1	8
570.012	1	0
570.182	1	1
570.352	1	9
570.522	1	3
570.692	1	5
570.862	1	5
571.031	1	-7
571.201	1	10
571.371	1	3
571.541	1	-8
571.711	1	5
571.881	1	7
572.051	1	-5
572.221	1	-3
572.391	1	9
572.561	1	-6
572.731	1	-9
572.900	1	8
573.070	1	-1
573.240	1	3
573.410	1	-5
573.580	1	2
573.750	1	8
573.920	1	-6
574.090	1	6
574.260	1	4
574.430	1	2
574.599	1	-3
574.769	1	-5
574.939	1	5
575.109	1	-3
575.279	1	-1
575.449	1	1
575.619	1	0
575.789	1	4
575.959	1	-5
576.128	1	6
576.298	1	-5
576.468	1	-12
576.638	1	4
576.808	1	0
576.978	1	-1
577.148	1	6
577.318	1	4
577.487	1	-5
577.657	1	-12
577.827	1	-3
577.997	1	-13
578.167	1	0
578.337	1	2
578.507	1	-2
578.677	1	-2
578.846	1	1
579.016	1	9
579.186	1	0
579.356	1	0
579.526	1	0
579.696	1	-3
579.866	1	8
580.036	1	-3
580.205	1	2
580.375	1	2
580.545	1	-2
580.715	1	0
580.885	1	2
581.055	1	-2
581.225	1	-11
581.394	1	-3
581.564	1	-1
581.734	1	-6
581.904	1	0
582.074	1	-9
582.244	1	3
582.414	1	1
582.583	1	-10
582.753	1	2
582.923	1	-2
583.093	1	-8
583.263	1	-2
583.433	1	-15
583.603	1	-4
583.772	1	2
583.942	1	-2
584.112	1	0
584.282	1	9
584.452	1	-7
584.622	1	2
584.791	1	2
584.961	1	-1
585.131	1	-12
585.301	1	8
585.471	1	5
585.641	1	2
585.811	1	-7
585.980	1	-14
586.150	1	-3
586.320	1	-5
586.490	1	-7
586.660	1	7
586.830	1	-5
586.999	1	1
587.169	1	11
587.339	1	8
587.509	1	4
587.679	1	6
587.849	1	11
588.018	1	2
588.188	1	-2
588.358	1	6
588.528	1	1
588.698	1	-12
588.867	1	3
589.037	1	4
589.207	1	-13
589.377	1	4
589.547	1	5
589.717	1	3
589.886	1	-14
590.056	1	2
590.226	1	4
590.396	1	-3
590.566	1	-5
590.735	1	18
590.905	1	5
591.075	1	-11
591.245	1	0
591.415	1	4
591.585	1	0
591.754	1	1
591.924	1	-3
592.094	1	5
592.264	1	-2
592.434	1	1
592.603	1	-6
592.773	1	0
592.943	1	-14
593.113	1	-10
593.283	1	13
593.452	1	-10
593.622	1	3
593.792	1	2
593.962	1	0
594.132	1	0
594.301	1	11
594.471	1	10
594.641	1	-5
594.811	1	-2
594.981	1	2
595.150	1	-7
595.320	1	9
595.490	1	-5
595.660	1	1
595.829	1	-3
595.999	1	7
596.169	1	6
596.339	1	1
596.509	1	0
596.678	1	3
596.848	1	12
597.018	1	-1
597.188	1	7
597.358	1	9
597.527	1	-7
597.697	1	-1
597.867	1	2
598.037	1	2
598.206	1	-1
598.376	1	0
598.546	1	0
598.716	1	-7
598.885	1	0
599.055	1	-2
599.225	1	-3
599.395	1	14
599.565	1	3
599.734	1	6
599.904	1	-3
600.074	1	1
600.244	1	3
600.413	1	3
600.583	1	-7
600.753	1	1
600.923	1	10
601.092	1	-6
601.262	1	-1
601.432	1	-9
601.602	1	-1
601.771	1	1
601.941	1	0
602.111	1	-5
602.281	1	-1
602.451	1	7
602.620	1	1
602.790	1	7
602.960	1	-8
603.130	1	-1
603.299	1	8
603.469	1	-6
603.639	1	7
603.809	1	4
603.978	1	-6
604.148	1	6
604.318	1	-3
604.487	1	-5
604.657	1	6
604.827	1	-7
604.997	1	-6
605.166	1	-4
605.336	1	-5
605.506	1	8
605.676	1	-15
605.845	1	-3
606.015	1	4
606.185	1	-4
606.355	1	14
606.524	1	-12
606.694	1	3
606.864	1	-1
607.034	1	-4
607.203	1	12
607.373	1	-1
607.543	1	-1
607.712	1	4
607.882	1	-12
608.052	1	3
608.222	1	-1
608.391	1	-4
608.561	1	8
608.731	1	-11
608.901	1	5
609.070	1	2
609.240	1	6
609.410	1	4
609.579	1	7
609.749	1	4
609.919	1	2
610.089	1	-8
610.258	1	3
610.428	1	-3
610.598	1	2
610.767	1	-3
610.937	1	-5
611.107	1	7
611.277	1	0
611.446	1	2
611.616	1	-10
611.786	1	7
611.955	1	3
612.125	1	-5
612.295	1	-7
612.465	1	-4
612.634	1	3
612.804	1	8
612.974	1	10
613.143	1	-5
613.313	1	4
613.483	1	7
613.652	1	-7
613.822	1	6
613.992	1	5
614.162	1	1
614.331	1	1
614.501	1	4
614.671	1	-1
614.840	1	-4
615.010	1	5
615.180	1	-5
615.349	1	3
615.519	1	0
615.689	1	5
615.858	1	-4
616.028	1	2
616.198	1	3
616.368	1	-1
616.537	1	-5
616.707	1	1
616.877	1	6
617.046	1	1
617.216	1	-4
617.386	1	-5
617.555	1	-11
617.725	1	4
617.895	1	-3
618.064	1	8
618.234	1	-8
618.404	1	4
618.573	1	1
618.743	1	-1
618.913	1	2
619.082	1	5
619.252	1	-1
619.422	1	-3
619.591	1	8
619.761	1	5
619.931	1	9
620.100	1	-4
620.270	1	-2
620.440	1	2
620.609	1	2
620.779	1	-4
620.949	1	-1
621.118	1	13
621.288	1	1
621.458	1	5
621.627	1	-10
621.797	1	1
621.967	1	-12
622.136	1	7
622.306	1	5
622.476	1	2
622.645	1	2
622.815	1	-1
622.985	1	8
623.154	1	1
623.324	1	5
623.494	1	2
623.663	1	-5
623.833	1	-9
624.002	1	-1
624.172	1	6
624.342	1	-7
624.511	1	-7
624.681	1	-10
624.851	1	-9
625.020	1	1
625.190	1	2
625.360	1	-9
625.529	1	0
625.699	1	-11
625.869	1	10
626.038	1	4
626.208	1	2
626.377	1	19
626.547	1	0
626.717	1	-1
626.886	1	1
627.056	1	-4
627.226	1	7
627.395	1	12
627.565	1	5
627.735	1	11
627.904	1	-1
628.074	1	8
628.243	1	-13
628.413	1	3
628.583	1	0
628.752	1	10
628.922	1	-4
629.091	1	0
629.261	1	5
629.431	1	-14
629.600	1	6
629.770	1	-1
629.940	1	2
630.109	1	-3
630.279	1	-12
630.448	1	-9
630.618	1	0
630.788	1	7
630.957	1	0
631.127	1	3
631.297	1	-1
631.466	1	4
631.636	1	-2
631.805	1	-13
631.975	1	-3
632.145	1	-14
632.314	1	8
632.484	1	1
632.653	1	0
632.823	1	10
632.993	1	6
633.162	1	0
633.332	1	12
633.501	1	-1
633.671	1	-12
633.841	1	7
634.010	1	4
634.180	1	14
634.349	1	3
634.519	1	-1
634.689	1	9
634.858	1	1
635.028	1	7
635.197	1	-4
635.367	1	-8
635.537	1	3
635.706	1	-8
635.876	1	-5
636.045	1	0
636.215	1	6
636.384	1	12
636.554	1	8
636.724	1	-1
636.893	1	-2
637.063	1	7
637.232	1	1
637.402	1	-2
637.572	1	2
637.741	1	25
637.911	1	0
638.080	1	1
638.250	1	5
638.419	1	7
638.589	1	7
638.759	1	8
638.928	1	-5
639.098	1	4
639.267	1	-4
639.437	1	-3
639.606	1	7
639.776	1	-2
639.946	1	6
640.115	1	-3
640.285	1	4
640.454	1	5
640.624	1	-4
640.793	1	8
640.963	1	-1
641.132	1	11
641.302	1	3
641.472	1	-12
641.641	1	-3
641.811	1	3
641.980	1	0
642.150	1	5
642.319	1	-11
642.489	1	1
642.659	1	-2
642.828	1	1
642.998	1	-1
643.167	1	6
643.337	1	-1
643.506	1	-7
643.676	1	-3
643.845	1	1
644.015	1	-3
644.184	1	9
644.354	1	-11
644.524	1	-7
644.693	1	0
644.863	1	-4
645.032	1	6
645.202	1	5
645.371	1	1
645.541	1	-8
645.710	1	-2
645.880	1	3
646.049	1	4
646.219	1	-4
646.388	1	0
646.558	1	-3
646.728	1	7
646.897	1	1
647.067	1	-7
647.236	1	8
647.406	1	-8
647.575	1	5
647.745	1	0
647.914	1	-8
648.084	1	8
648.253	1	1
648.423	1	-4
648.592	1	-3
648.762	1	-7
648.931	1	2
649.101	1	-7
649.270	1	10
649.440	1	2
649.610	1	9
649.779	1	3
649.949	1	-5
650.118	1	-6
650.288	1	0
650.457	1	0
650.627	1	4
650.796	1	1
650.966	1	-3
651.135	1	10
651.305	1	-5
651.474	1	3
651.644	1	-2
651.813	1	-2
651.983	1	-1
652.152	1	-3
652.322	1	2
652.491	1	-6
652.661	1	4
652.830	1	11
653.000	1	-6
653.169	1	9
653.339	1	14
653.508	1	-2
653.678	1	0
653.847	1	-1
654.017	1	-1
654.186	1	1
654.356	1	6
654.525	1	-7
654.695	1	0
654.864	1	-3
655.034	1	-1
655.203	1	2
655.373	1	-5
655.542	1	-2
655.712	1	-14
655.881	1	3
656.051	1	9
656.220	1	7
656.390	1	1
656.559	1	-1
656.729	1	-1
656.898	1	6
657.068	1	-3
657.237	1	-1
657.406	1	3
657.576	1	-6
657.745	1	-1
657.915	1	8
658.084	1	6
658.254	1	0
658.423	1	-6
658.593	1	-14
658.762	1	-3
658.932	1	-3
659.101	1	-13
659.271	1	8
659.440	1	8
659.610	1	0
659.779	1	-2
659.949	1	-6
660.118	1	7
660.288	1	-2
660.457	1	-9
660.626	1	5
660.796	1	-2
660.965	1	-2
661.135	1	5
661.304	1	4
661.474	1	-1
661.643	1	-2
661.813	1	8
661.982	1	2
662.152	1	-2
662.321	1	2
662.491	1	-8
662.660	1	-3
662.829	1	-7
662.999	1	3
663.168	1	3
663.338	1	-6
663.507	1	-2
663.677	1	-6
663.846	1	-3
664.016	1	1
664.185	1	4
664.354	1	7
664.524	1	-10
664.693	1	2
664.863	1	5
665.032	1	5
665.202	1	-12
665.371	1	7
665.541	1	-1
665.710	1	-8
665.879	1	-5
666.049	1	-1
666.218	1	-8
666.388	1	-7
666.557	1	1
666.727	1	-12
666.896	1	-5
667.065	1	0
667.235	1	1
667.404	1	-3
667.574	1	10
667.743	1	-6
667.913	1	3
668.082	1	8
668.251	1	-1
668.421	1	-1
668.590	1	-9
668.760	1	-4
668.929	1	6
669.099	1	-4
669.268	1	4
669.437	1	4
669.607	1	-6
669.776	1	5
669.946	1	4
670.115	1	-2
670.285	1	4
670.454	1	1
670.623	1	4
670.793	1	1
670.962	1	-1
671.132	1	-2
671.301	1	3
671.470	1	-3
671.640	1	-10
671.809	1	0
671.979	1	13
672.148	1	7
672.317	1	-1
672.487	1	-2
672.656	1	7
672.826	1	-11
672.995	1	8
673.164	1	10
673.334	1	10
673.503	1	1
673.673	1	16
673.842	1	5
674.011	1	4
674.181	1	-9
674.350	1	-2
674.520	1	-8
674.689	1	-5
674.858	1	-2
675.028	1	2
675.197	1	-8
675.367	1	-2
675.536	1	11
675.705	1	-2
675.875	1	-3
676.044	1	0
676.214	1	3
676.383	1	3
676.552	1	-10
676.722	1	-6
676.891	1	-9
677.060	1	1
677.230	1	13
677.399	1	0
677.569	1	5
677.738	1	-6
677.907	1	-16
678.077	1	8
678.246	1	-7
678.416	1	-11
678.585	1	9
678.754	1	-4
678.924	1	-6
679.093	1	4
679.262	1	3
679.432	1	-10
679.601	1	-6
679.771	1	0
679.940	1	3
680.109	1	0
680.279	1	-2
680.448	1	5
680.617	1	-4
680.787	1	-4
680.956	1	1
681.125	1	8
681.295	1	6
681.464	1	5
681.634	1	5
681.803	1	-16
681.972	1	-10
682.142	1	5
682.311	1	2
682.480	1	-2
682.650	1	-3
682.819	1	8
682.988	1	-4
683.158	1	-4
683.327	1	2
683.496	1	-4
683.666	1	3
683.835	1	-1
684.004	1	-4
684.174	1	0
684.343	1	-5
684.512	1	-7
684.682	1	5
684.851	1	5
685.021	1	2
685.190	1	11
685.359	1	-3
685.529	1	3
685.698	1	1
685.867	1	-2
686.037	1	6
686.206	1	-2
686.375	1	3
686.545	1	6
686.714	1	1
686.883	1	2
687.053	1	2
687.222	1	-9
687.391	1	-6
687.561	1	-2
687.730	1	-8
687.899	1	-4
688.069	1	-1
688.238	1	2
688.407	1	3
688.577	1	-2
688.746	1	8
