340.368	1	9
340.539	1	8
340.710	1	-11
340.881	1	4
341.052	1	1
341.223	1	7
341.394	1	-7
341.565	1	-6
341.737	1	5
341.908	1	4
342.079	1	-9
342.250	1	-8
342.421	1	-4
342.592	1	-11
342.763	1	-4
342.934	1	3
343.105	1	15
343.276	1	-2
343.447	1	5
343.618	1	1
343.789	1	-6
343.960	1	-5
344.131	1	-5
344.302	1	2
344.473	1	-6
344.644	1	-6
344.815	1	7
344.986	1	8
345.157	1	9
345.328	1	-8
345.499	1	-2
345.670	1	7
345.841	1	-5
346.012	1	12
346.183	1	0
346.354	1	-3
346.526	1	15
346.697	1	1
346.868	1	4
347.039	1	-6
347.210	1	-2
347.381	1	2
347.552	1	0
347.723	1	7
347.894	1	-3
348.065	1	-3
348.236	1	-3
348.407	1	-5
348.578	1	2
348.749	1	2
348.920	1	2
349.091	1	2
349.262	1	-5
349.433	1	0
349.604	1	13
349.775	1	10
349.946	1	3
350.117	1	4
350.288	1	1
350.459	1	1
350.630	1	-8
350.801	1	9
350.972	1	-10
351.143	1	-3
351.314	1	-9
351.485	1	-6
351.656	1	-3
351.827	1	-2
351.998	1	-3
352.169	1	4
352.340	1	-5
352.511	1	-4
352.682	1	-4
352.853	1	-7
353.024	1	-4
353.195	1	0
353.366	1	8
353.537	1	1
353.708	1	5
353.879	1	3
354.050	1	1
354.221	1	-8
354.392	1	5
354.563	1	6
354.734	1	-2
354.905	1	10
355.076	1	0
355.247	1	-8
355.418	1	-2
355.589	1	-6
355.760	1	10
355.931	1	2
356.102	1	-5
356.273	1	3
356.444	1	-1
356.615	1	4
356.785	1	13
356.956	1	-12
357.127	1	10
357.298	1	1
357.469	1	-6
357.640	1	7
357.811	1	11
357.982	1	-12
358.153	1	3
358.324	1	-5
358.495	1	7
358.666	1	-1
358.837	1	2
359.008	1	-6
359.179	1	0
359.350	1	4
359.521	1	-1
359.692	1	1
359.863	1	-1
360.034	1	-6
360.205	1	-12
360.376	1	2
360.547	1	-1
360.718	1	-6
360.889	1	-4
361.060	1	2
361.231	1	-6
361.401	1	5
361.572	1	-10
361.743	1	1
361.914	1	0
362.085	1	-3
362.256	1	2
362.427	1	-3
362.598	1	-1
362.769	1	-3
362.940	1	5
363.111	1	7
363.282	1	1
363.453	1	-4
363.624	1	-1
363.795	1	1
363.966	1	-4
364.137	1	-7
364.308	1	5
364.478	1	4
364.649	1	1
364.820	1	8
364.991	1	5
365.162	1	-5
365.333	1	1
365.504	1	-13
365.675	1	2
365.846	1	-7
366.017	1	12
366.188	1	-8
366.359	1	10
366.530	1	3
366.701	1	-5
366.871	1	10
367.042	1	8
367.213	1	3
367.384	1	15
367.555	1	7
367.726	1	9
367.897	1	-2
368.068	1	-15
368.239	1	9
368.410	1	-2
368.581	1	-3
368.752	1	-7
368.923	1	-9
369.093	1	6
369.264	1	-3
369.435	1	-6
369.606	1	-1
369.777	1	-2
369.948	1	4
370.119	1	-2
370.290	1	-3
370.461	1	9
370.632	1	-7
370.803	1	-4
370.973	1	15
371.144	1	-8
371.315	1	-9
371.486	1	12
371.657	1	1
371.828	1	2
371.999	1	-6
372.170	1	5
372.341	1	-4
372.512	1	-6
372.682	1	-7
372.853	1	3
373.024	1	4
373.195	1	-11
373.366	1	-3
373.537	1	5
373.708	1	-2
373.879	1	11
374.050	1	11
374.220	1	-10
374.391	1	4
374.562	1	6
374.733	1	10
374.904	1	6
375.075	1	9
375.246	1	-5
375.417	1	-5
375.588	1	7
375.758	1	-1
375.929	1	7
376.100	1	0
376.271	1	4
376.442	1	0
376.613	1	1
376.784	1	-5
376.955	1	-7
377.125	1	-2
377.296	1	0
377.467	1	-3
377.638	1	-3
377.809	1	2
377.980	1	-3
378.151	1	-7
378.321	1	8
378.492	1	5
378.663	1	0
378.834	1	1
379.005	1	11
379.176	1	-4
379.347	1	1
379.518	1	-10
379.688	1	-9
379.859	1	-8
380.030	1	-9
380.201	1	-11
380.372	1	2
380.543	1	4
380.714	1	-4
380.884	1	0
381.055	1	9
381.226	1	3
381.397	1	3
381.568	1	-3
381.739	1	15
381.910	1	-1
382.080	1	-8
382.251	1	2
382.422	1	9
382.593	1	-8
382.764	1	-3
382.935	1	5
383.105	1	4
383.276	1	-7
383.447	1	4
383.618	1	18
383.789	1	1
383.960	1	-9
384.130	1	-5
384.301	1	-2
384.472	1	-11
384.643	1	7
384.814	1	-2
384.985	1	-4
385.156	1	13
385.326	1	2
385.497	1	8
385.668	1	1
385.839	1	9
386.010	1	7
386.180	1	1
386.351	1	-1
386.522	1	9
386.693	1	-2
386.864	1	-5
387.035	1	-9
387.205	1	-6
387.376	1	6
387.547	1	5
387.718	1	14
387.889	1	8
388.060	1	-4
388.230	1	-4
388.401	1	3
388.572	1	1
388.743	1	0
388.914	1	11
389.084	1	3
389.255	1	2
389.426	1	4
389.597	1	-5
389.768	1	9
389.939	1	3
390.109	1	2
390.280	1	14
390.451	1	14
390.622	1	-4
390.793	1	5
390.963	1	5
391.134	1	2
391.305	1	6
391.476	1	14
391.647	1	4
391.817	1	-3
391.988	1	-4
392.159	1	13
392.330	1	3
392.501	1	5
392.671	1	8
392.842	1	6
393.013	1	19
393.184	1	12
393.355	1	6
393.525	1	11
393.696	1	3
393.867	1	-1
394.038	1	1
394.208	1	7
394.379	1	-12
394.550	1	9
394.721	1	-4
394.892	1	-2
395.062	1	-8
395.233	1	4
395.404	1	10
395.575	1	-10
395.746	1	-2
395.916	1	3
396.087	1	1
396.258	1	-6
396.429	1	8
396.599	1	3
396.770	1	1
396.941	1	12
397.112	1	-4
397.283	1	-3
397.453	1	-3
397.624	1	-5
397.795	1	8
397.966	1	6
398.136	1	0
398.307	1	10
398.478	1	7
398.649	1	5
398.819	1	9
398.990	1	8
399.161	1	8
399.332	1	5
399.503	1	-2
399.673	1	-4
399.844	1	-3
400.015	1	2
400.186	1	8
400.356	1	-6
400.527	1	-1
400.698	1	6
400.869	1	7
401.039	1	-7
401.210	1	-3
401.381	1	5
401.552	1	14
401.722	1	6
401.893	1	0
402.064	1	4
402.235	1	1
402.405	1	0
402.576	1	11
402.747	1	8
402.918	1	-1
403.088	1	-6
403.259	1	-10
403.430	1	-5
403.601	1	-3
403.771	1	10
403.942	1	2
404.113	1	8
404.284	1	-5
404.454	1	-1
404.625	1	3
404.796	1	-5
404.967	1	-3
405.137	1	1
405.308	1	-8
405.479	1	2
405.649	1	-4
405.820	1	-8
405.991	1	4
406.162	1	1
406.332	1	-1
406.503	1	-10
406.674	1	0
406.845	1	3
407.015	1	-9
407.186	1	6
407.357	1	4
407.527	1	-4
407.698	1	-7
407.869	1	-6
408.040	1	-13
408.210	1	-5
408.381	1	-1
408.552	1	3
408.722	1	-5
408.893	1	4
409.064	1	-5
409.235	1	-8
409.405	1	-1
409.576	1	-1
409.747	1	5
409.917	1	-1
410.088	1	2
410.259	1	5
410.430	1	-2
410.600	1	-3
410.771	1	0
410.942	1	4
411.112	1	5
411.283	1	-6
411.454	1	18
411.625	1	0
411.795	1	9
411.966	1	6
412.137	1	8
412.307	1	2
412.478	1	4
412.649	1	0
412.819	1	-5
412.990	1	9
413.161	1	-3
413.332	1	-9
413.502	1	-1
413.673	1	2
413.844	1	1
414.014	1	-1
414.185	1	-2
414.356	1	3
414.526	1	5
414.697	1	5
414.868	1	13
415.038	1	-2
415.209	1	1
415.380	1	4
415.550	1	-2
415.721	1	4
415.892	1	3
416.063	1	8
416.233	1	2
416.404	1	1
416.575	1	-6
416.745	1	-8
416.916	1	-9
417.087	1	-10
417.257	1	2
417.428	1	-4
417.599	1	-1
417.769	1	3
417.940	1	-5
418.111	1	-6
418.281	1	-5
418.452	1	1
418.623	1	-4
418.793	1	9
418.964	1	2
419.135	1	9
419.305	1	-3
419.476	1	5
419.647	1	-2
419.817	1	0
419.988	1	-8
420.159	1	-9
420.329	1	2
420.500	1	7
420.671	1	4
420.841	1	7
421.012	1	10
421.183	1	2
421.353	1	18
421.524	1	-1
421.695	1	-7
421.865	1	-5
422.036	1	-3
422.206	1	-11
422.377	1	-1
422.548	1	-7
422.718	1	1
422.889	1	2
423.060	1	-2
423.230	1	7
423.401	1	-5
423.572	1	4
423.742	1	-7
423.913	1	7
424.084	1	3
424.254	1	-6
424.425	1	7
424.595	1	-9
424.766	1	3
424.937	1	-1
425.107	1	-6
425.278	1	-16
425.449	1	-7
425.619	1	-6
425.790	1	-7
425.961	1	-7
426.131	1	1
426.302	1	-8
426.472	1	4
426.643	1	-1
426.814	1	5
426.984	1	6
427.155	1	-2
427.326	1	3
427.496	1	14
427.667	1	-2
427.837	1	0
428.008	1	2
428.179	1	-10
428.349	1	0
428.520	1	-10
428.691	1	-1
428.861	1	4
429.032	1	-3
429.202	1	5
429.373	1	-8
429.544	1	-3
429.714	1	7
429.885	1	0
430.055	1	1
430.226	1	-4
430.397	1	4
430.567	1	13
430.738	1	1
430.909	1	-4
431.079	1	7
431.250	1	-8
431.420	1	3
431.591	1	3
431.762	1	6
431.932	1	9
432.103	1	4
432.273	1	-4
432.444	1	1
432.615	1	-1
432.785	1	3
432.956	1	-3
433.126	1	3
433.297	1	11
433.468	1	-4
433.638	1	-11
433.809	1	3
433.979	1	-2
434.150	1	-8
434.320	1	2
434.491	1	-2
434.662	1	-15
434.832	1	0
435.003	1	1
435.173	1	0
435.344	1	-1
435.515	1	-2
435.685	1	1
435.856	1	-8
436.026	1	2
436.197	1	-4
436.368	1	0
436.538	1	0
436.709	1	-8
436.879	1	6
437.050	1	-1
437.220	1	2
437.391	1	-2
437.562	1	12
437.732	1	-6
437.903	1	1
438.073	1	13
438.244	1	-2
438.414	1	4
438.585	1	-2
438.756	1	3
438.926	1	0
439.097	1	5
439.267	1	1
439.438	1	4
439.608	1	3
439.779	1	3
439.949	1	-3
440.120	1	0
440.291	1	-9
440.461	1	-4
440.632	1	5
440.802	1	-2
440.973	1	10
441.143	1	6
441.314	1	5
441.485	1	0
441.655	1	18
441.826	1	-7
441.996	1	-1
442.167	1	-2
442.337	1	-5
442.508	1	0
442.678	1	-1
442.849	1	5
443.019	1	4
443.190	1	-7
443.361	1	0
443.531	1	4
443.702	1	-2
443.872	1	1
444.043	1	1
444.213	1	-2
444.384	1	-5
444.554	1	-3
444.725	1	3
444.895	1	-7
445.066	1	-12
445.237	1	2
445.407	1	-9
445.578	1	10
445.748	1	-1
445.919	1	-1
446.089	1	8
446.260	1	7
446.430	1	-13
446.601	1	-6
446.771	1	-12
446.942	1	3
447.112	1	3
447.283	1	-5
447.453	1	-6
447.624	1	1
447.794	1	-2
447.965	1	-10
448.135	1	4
448.306	1	2
448.477	1	-13
448.647	1	8
448.818	1	9
448.988	1	-15
449.159	1	-4
449.329	1	4
449.500	1	2
449.670	1	8
449.841	1	1
450.011	1	-6
450.182	1	-1
450.352	1	9
450.523	1	-4
450.693	1	6
450.864	1	-8
451.034	1	1
451.205	1	5
451.375	1	6
451.546	1	8
451.716	1	7
451.887	1	0
452.057	1	8
452.228	1	-6
452.398	1	3
452.569	1	-1
452.739	1	1
452.910	1	-1
453.080	1	14
453.251	1	0
453.421	1	-5
453.592	1	1
453.762	1	5
453.933	1	9
454.103	1	0
454.274	1	-4
454.444	1	5
454.615	1	-4
454.785	1	-6
454.956	1	-1
455.126	1	3
455.297	1	1
455.467	1	4
455.638	1	0
455.808	1	4
455.979	1	1
456.149	1	1
456.320	1	1
456.490	1	2
456.661	1	-6
456.831	1	14
457.001	1	9
457.172	1	-1
457.342	1	15
457.513	1	6
457.683	1	1
457.854	1	-2
458.024	1	-8
458.195	1	-6
458.365	1	7
458.536	1	-3
458.706	1	-4
458.877	1	-9
459.047	1	1
459.218	1	0
459.388	1	2
459.559	1	2
459.729	1	4
459.899	1	5
460.070	1	1
460.240	1	3
460.411	1	5
460.581	1	4
460.752	1	6
460.922	1	-6
461.093	1	-2
461.263	1	11
461.434	1	9
461.604	1	3
461.775	1	4
461.945	1	10
462.115	1	-9
462.286	1	12
462.456	1	-2
462.627	1	2
462.797	1	-2
462.968	1	-4
463.138	1	6
463.309	1	7
463.479	1	5
463.649	1	-1
463.820	1	-8
463.990	1	0
464.161	1	4
464.331	1	3
464.502	1	6
464.672	1	-1
464.843	1	5
465.013	1	-2
465.183	1	1
465.354	1	-4
465.524	1	9
465.695	1	5
465.865	1	-3
466.036	1	0
466.206	1	-6
466.376	1	-10
466.547	1	0
466.717	1	-8
466.888	1	4
467.058	1	10
467.229	1	5
467.399	1	1
467.569	1	8
467.740	1	-6
467.910	1	-5
468.081	1	3
468.251	1	-7
468.422	1	0
468.592	1	6
468.762	1	-11
468.933	1	4
469.103	1	-2
469.274	1	1
469.444	1	-1
469.614	1	-12
469.785	1	3
469.955	1	-9
470.126	1	1
470.296	1	-1
470.467	1	-8
470.637	1	16
470.807	1	-2
470.978	1	-1
471.148	1	6
471.319	1	6
471.489	1	-8
471.659	1	9
471.830	1	4
472.000	1	7
472.171	1	11
472.341	1	-6
472.511	1	14
472.682	1	10
472.852	1	1
473.023	1	-2
473.193	1	-3
473.363	1	0
473.534	1	0
473.704	1	10
473.875	1	3
474.045	1	-2
474.215	1	-2
474.386	1	-2
474.556	1	-9
474.727	1	7
474.897	1	10
475.067	1	-6
475.238	1	-3
475.408	1	4
475.578	1	2
475.749	1	-10
475.919	1	10
476.090	1	-8
476.260	1	-9
476.430	1	0
476.601	1	-3
476.771	1	2
476.942	1	-7
477.112	1	1
477.282	1	-19
477.453	1	7
477.623	1	-5
477.793	1	5
477.964	1	0
478.134	1	2
478.305	1	-6
478.475	1	-4
478.645	1	-7
478.816	1	-7
478.986	1	0
479.156	1	5
479.327	1	-9
479.497	1	-4
479.667	1	10
479.838	1	-1
480.008	1	7
480.179	1	-5
480.349	1	-1
480.519	1	2
480.690	1	1
480.860	1	-5
481.030	1	-4
481.201	1	6
481.371	1	1
481.541	1	5
481.712	1	3
481.882	1	-10
482.053	1	6
482.223	1	-6
482.393	1	-19
482.564	1	-10
482.734	1	-1
482.904	1	-1
483.075	1	6
483.245	1	4
483.415	1	-4
483.586	1	-10
483.756	1	13
483.926	1	7
484.097	1	-5
484.267	1	-1
484.437	1	-11
484.608	1	-1
484.778	1	-1
484.948	1	-2
485.119	1	6
485.289	1	2
485.459	1	9
485.630	1	-6
485.800	1	-7
485.970	1	8
486.141	1	-11
486.311	1	-4
486.481	1	9
486.652	1	8
486.822	1	2
486.992	1	4
487.163	1	-2
487.333	1	2
487.503	1	-6
487.674	1	5
487.844	1	3
488.014	1	-2
488.185	1	-8
488.355	1	-3
488.525	1	-7
488.696	1	-9
488.866	1	5
489.036	1	6
489.207	1	7
489.377	1	2
489.547	1	-3
489.718	1	-9
489.888	1	2
490.058	1	-5
490.228	1	-9
490.399	1	1
490.569	1	8
490.739	1	8
490.910	1	-1
491.080	1	0
491.250	1	-6
491.421	1	-3
491.591	1	-8
491.761	1	3
491.932	1	3
492.102	1	0
492.272	1	18
492.442	1	6
492.613	1	2
492.783	1	-15
492.953	1	2
493.124	1	-9
493.294	1	3
493.464	1	-4
493.635	1	-3
493.805	1	12
493.975	1	-1
494.145	1	3
494.316	1	8
494.486	1	3
494.656	1	-5
494.827	1	-1
494.997	1	-16
495.167	1	3
495.337	1	6
495.508	1	1
495.678	1	1
495.848	1	11
496.019	1	-2
496.189	1	3
496.359	1	2
496.529	1	-4
496.700	1	0
496.870	1	-8
497.040	1	1
497.211	1	6
497.381	1	-11
497.551	1	11
497.721	1	3
497.892	1	14
498.062	1	-7
498.232	1	3
498.403	1	8
498.573	1	-6
498.743	1	5
498.913	1	5
499.084	1	-10
499.254	1	1
499.424	1	11
499.594	1	0
499.765	1	-3
499.935	1	-9
500.105	1	-1
500.275	1	3
500.446	1	7
500.616	1	-2
500.786	1	5
500.956	1	2
501.127	1	3
501.297	1	2
501.467	1	0
501.638	1	3
501.808	1	-12
501.978	1	6
502.148	1	0
502.319	1	-4
502.489	1	6
502.659	1	3
502.829	1	-7
503.000	1	12
503.170	1	5
503.340	1	-6
503.510	1	-3
503.681	1	2
503.851	1	-13
504.021	1	21
504.191	1	10
504.362	1	14
504.532	1	-13
504.702	1	3
504.872	1	-6
505.042	1	2
505.213	1	-5
505.383	1	-1
505.553	1	0
505.723	1	2
505.894	1	3
506.064	1	7
506.234	1	5
506.404	1	-5
506.575	1	0
506.745	1	-4
506.915	1	1
507.085	1	-2
507.256	1	-3
507.426	1	18
507.596	1	3
507.766	1	0
507.936	1	3
508.107	1	-7
508.277	1	-4
508.447	1	-6
508.617	1	4
508.788	1	-11
508.958	1	5
509.128	1	1
509.298	1	5
509.468	1	3
509.639	1	7
509.809	1	12
509.979	1	-4
510.149	1	0
510.319	1	-6
510.490	1	1
510.660	1	10
510.830	1	4
511.000	1	4
511.171	1	14
511.341	1	-6
511.511	1	-1
511.681	1	5
511.851	1	-7
512.022	1	-8
512.192	1	2
512.362	1	-6
512.532	1	-1
512.702	1	-4
512.873	1	13
513.043	1	0
513.213	1	1
513.383	1	-5
513.553	1	-9
513.724	1	12
513.894	1	6
514.064	1	-6
514.234	1	4
514.404	1	1
514.575	1	6
514.745	1	-6
514.915	1	2
515.085	1	0
515.255	1	-14
515.425	1	-13
515.596	1	-4
515.766	1	-5
515.936	1	0
516.106	1	4
516.276	1	12
516.447	1	0
516.617	1	-6
516.787	1	-3
516.957	1	-4
517.127	1	3
517.297	1	3
517.468	1	-3
517.638	1	13
517.808	1	-1
517.978	1	-3
518.148	1	-3
518.319	1	-2
518.489	1	-1
518.659	1	2
518.829	1	-15
518.999	1	7
519.169	1	10
519.340	1	2
519.510	1	-1
519.680	1	-8
519.850	1	-12
520.020	1	-6
520.190	1	-3
520.361	1	-1
520.531	1	-1
520.701	1	1
520.871	1	-11
521.041	1	-1
521.211	1	-6
521.382	1	-5
521.552	1	2
521.722	1	7
521.892	1	-7
522.062	1	-5
522.232	1	-1
522.402	1	-4
522.573	1	-2
522.743	1	11
522.913	1	2
523.083	1	-4
523.253	1	1
523.423	1	-8
523.593	1	-13
523.764	1	9
523.934	1	7
524.104	1	-6
524.274	1	-5
524.444	1	8
524.614	1	-1
524.784	1	7
524.955	1	-9
525.125	1	-3
525.295	1	-5
525.465	1	0
525.635	1	10
525.805	1	-5
525.975	1	-6
526.146	1	-2
526.316	1	0
526.486	1	-6
526.656	1	10
526.826	1	8
526.996	1	6
527.166	1	1
527.337	1	-1
527.507	1	-10
527.677	1	2
527.847	1	-14
528.017	1	-6
528.187	1	3
528.357	1	7
528.527	1	2
528.698	1	-4
528.868	1	-2
529.038	1	-1
529.208	1	0
529.378	1	7
529.548	1	-1
529.718	1	2
529.888	1	-4
530.058	1	-3
530.229	1	-2
530.399	1	12
530.569	1	8
530.739	1	-2
530.909	1	7
531.079	1	4
531.249	1	3
531.419	1	2
531.589	1	-13
531.760	1	10
531.930	1	0
532.100	1	2
532.270	1	7
532.440	1	-6
532.610	1	0
532.780	1	-1
532.950	1	10
533.120	1	4
533.290	1	-3
533.461	1	17
533.631	1	-3
533.801	1	-2
533.971	1	13
534.141	1	10
534.311	1	0
534.481	1	-9
534.651	1	4
534.821	1	6
534.991	1	-8
535.162	1	4
535.332	1	4
535.502	1	2
535.672	1	0
535.842	1	3
536.012	1	11
536.182	1	-2
536.352	1	9
536.522	1	12
536.692	1	1
536.862	1	-8
537.032	1	0
537.203	1	3
537.373	1	-10
537.543	1	3
537.713	1	7
537.883	1	3
538.053	1	2
538.223	1	3
538.393	1	-5
538.563	1	2
538.733	1	-10
538.903	1	2
539.073	1	6
539.243	1	1
539.413	1	-4
539.584	1	8
539.754	1	-1
539.924	1	-4
540.094	1	0
540.264	1	7
540.434	1	-6
540.604	1	6
540.774	1	-2
540.944	1	-9
541.114	1	-2
541.284	1	-6
541.454	1	5
541.624	1	-1
541.794	1	-6
541.964	1	1
542.134	1	1
542.305	1	-5
542.475	1	-1
542.645	1	1
542.815	1	10
542.985	1	2
543.155	1	-2
543.325	1	0
543.495	1	2
543.665	1	12
543.835	1	2
544.005	1	-2
544.175	1	-4
544.345	1	-3
544.515	1	1
544.685	1	-1
544.855	1	7
545.025	1	-5
545.195	1	-2
545.365	1	6
545.535	1	4
545.705	1	2
545.875	1	-2
546.045	1	3
546.216	1	2
546.386	1	5
546.556	1	-12
546.726	1	0
546.896	1	1
547.066	1	-1
547.236	1	-8
547.406	1	6
547.576	1	8
547.746	1	6
547.916	1	6
548.086	1	1
548.256	1	2
548.426	1	2
548.596	1	0
548.766	1	7
548.936	1	-1
549.106	1	-2
549.276	1	10
549.446	1	-4
549.616	1	6
549.786	1	0
549.956	1	-1
550.126	1	-3
550.296	1	1
550.466	1	-2
550.636	1	-1
550.806	1	4
550.976	1	1
551.146	1	-8
551.316	1	0
551.486	1	12
551.656	1	-6
551.826	1	5
551.996	1	5
552.166	1	0
552.336	1	2
552.506	1	-11
552.676	1	-4
552.846	1	3
553.016	1	4
553.186	1	8
553.356	1	-8
553.526	1	5
553.696	1	6
553.866	1	-2
554.036	1	-1
554.206	1	-2
554.376	1	-1
554.546	1	-4
554.716	1	-3
554.886	1	8
555.056	1	-9
555.226	1	-12
555.396	1	-5
555.566	1	6
555.736	1	4
555.906	1	-5
556.076	1	4
556.246	1	-3
556.416	1	-1
556.586	1	6
556.756	1	5
556.926	1	3
557.096	1	-10
557.266	1	10
557.436	1	8
557.606	1	-9
557.776	1	2
557.946	1	3
558.116	1	7
558.286	1	6
558.456	1	-6
558.626	1	10
558.796	1	3
558.966	1	-3
559.136	1	6
559.306	1	-6
559.476	1	-7
559.646	1	-3
559.816	1	0
559.986	1	-10
560.155	1	-7
560.325	1	-12
560.495	1	-2
560.665	1	-2
560.835	1	3
561.005	1	3
561.175	1	0
561.345	1	3
561.515	1	-5
561.685	1	-1
561.855	1	8
562.025	1	-9
562.195	1	10
562.365	1	-8
562.535	1	8
562.705	1	5
562.875	1	-5
563.045	1	8
563.215	1	1
563.385	1	-9
563.555	1	3
563.725	1	5
563.895	1	-8
564.064	1	12
564.234	1	-2
564.404	1	-3
564.574	1	5
564.744	1	4
564.914	1	-12
565.084	1	-4
565.254	1	-11
565.424	1	-6
565.594	1	-5
565.764	1	12
565.934	1	6
566.104	1	4
566.274	1	3
566.444	1	6
566.614	1	-4
566.783	1	7
566.953	1	-2
567.123	1	10
567.293	1	-4
567.463	1	-8
567.633	1	-5
567.803	1	-4
567.973	1	-1
568.143	1	-11
568.313	1	-3
568.483	1	-11
568.653	1	-7
568.823	1	7
568.993	1	-6
569.162	1	8
569.332	1	-3
569.502	1	0
569.672	1	4
569.842	1	-1
570.012	1	-1
570.182	1	-4
570.352	1	11
570.522	1	8
570.692	1	1
570.862	1	3
571.031	1	1
571.201	1	5
571.371	1	-1
571.541	1	-2
571.711	1	14
571.881	1	9
572.051	1	2
572.221	1	-1
572.391	1	5
572.561	1	-2
572.731	1	0
572.900	1	21
573.070	1	0
573.240	1	2
573.410	1	-3
573.580	1	1
573.750	1	9
573.920	1	-13
574.090	1	-6
574.260	1	2
574.430	1	2
574.599	1	0
574.769	1	7
574.939	1	-3
575.109	1	-7
575.279	1	-3
575.449	1	3
575.619	1	7
575.789	1	5
575.959	1	-9
576.128	1	0
576.298	1	-10
576.468	1	-5
576.638	1	-8
576.808	1	2
576.978	1	0
577.148	1	3
577.318	1	9
577.487	1	8
577.657	1	-10
577.827	1	12
577.997	1	-5
578.167	1	-2
578.337	1	-5
578.507	1	-6
578.677	1	1
578.846	1	5
579.016	1	10
579.186	1	9
579.356	1	10
579.526	1	-7
579.696	1	14
579.866	1	6
580.036	1	-10
580.205	1	1
580.375	1	2
580.545	1	-4
580.715	1	9
580.885	1	-1
581.055	1	6
581.225	1	-7
581.394	1	-7
581.564	1	0
581.734	1	-2
581.904	1	-1
582.074	1	2
582.244	1	5
582.414	1	3
582.583	1	-6
582.753	1	5
582.923	1	8
583.093	1	-11
583.263	1	6
583.433	1	-2
583.603	1	-3
583.772	1	0
583.942	1	1
584.112	1	8
584.282	1	7
584.452	1	-4
584.622	1	4
584.791	1	-5
584.961	1	6
585.131	1	4
585.301	1	4
585.471	1	1
585.641	1	3
585.811	1	1
585.980	1	-11
586.150	1	1
586.320	1	-11
586.490	1	-4
586.660	1	4
586.830	1	-6
586.999	1	6
587.169	1	-2
587.339	1	0
587.509	1	9
587.679	1	-2
587.849	1	8
588.018	1	0
588.188	1	-6
588.358	1	14
588.528	1	1
588.698	1	6
588.867	1	3
589.037	1	4
589.207	1	-15
589.377	1	1
589.547	1	-2
589.717	1	0
589.886	1	-2
590.056	1	-1
590.226	1	8
590.396	1	9
590.566	1	-4
590.735	1	21
590.905	1	5
591.075	1	-12
591.245	1	0
591.415	1	3
591.585	1	1
591.754	1	1
591.924	1	-4
592.094	1	6
592.264	1	-2
592.434	1	2
592.603	1	-4
592.773	1	-10
592.943	1	-11
593.113	1	-14
593.283	1	5
593.452	1	-16
593.622	1	1
593.792	1	-11
593.962	1	-1
594.132	1	-7
594.301	1	8
594.471	1	8
594.641	1	-5
594.811	1	3
594.981	1	-1
595.150	1	-4
595.320	1	11
595.490	1	-11
595.660	1	-1
595.829	1	0
595.999	1	7
596.169	1	3
596.339	1	4
596.509	1	5
596.678	1	-7
596.848	1	-5
597.018	1	12
597.188	1	-1
597.358	1	7
597.527	1	-4
597.697	1	-4
597.867	1	-2
598.037	1	3
598.206	1	-9
598.376	1	2
598.546	1	-5
598.716	1	-7
598.885	1	-3
599.055	1	3
599.225	1	-5
599.395	1	9
599.565	1	3
599.734	1	2
599.904	1	-1
600.074	1	2
600.244	1	-1
600.413	1	0
600.583	1	-16
600.753	1	1
600.923	1	7
601.092	1	-9
601.262	1	5
601.432	1	-2
601.602	1	13
601.771	1	6
601.941	1	-6
602.111	1	-12
602.281	1	-9
602.451	1	1
602.620	1	2
602.790	1	4
602.960	1	-3
603.130	1	1
603.299	1	6
603.469	1	-14
603.639	1	13
603.809	1	8
603.978	1	-3
604.148	1	0
604.318	1	6
604.487	1	3
604.657	1	6
604.827	1	-7
604.997	1	-5
605.166	1	-10
605.336	1	0
605.506	1	9
605.676	1	-10
605.845	1	-7
606.015	1	6
606.185	1	-3
606.355	1	-1
606.524	1	-3
606.694	1	9
606.864	1	0
607.034	1	-10
607.203	1	9
607.373	1	-2
607.543	1	-10
607.712	1	4
607.882	1	-2
608.052	1	2
608.222	1	5
608.391	1	4
608.561	1	7
608.731	1	-4
608.901	1	7
609.070	1	-1
609.240	1	-3
609.410	1	4
609.579	1	0
609.749	1	3
609.919	1	-2
610.089	1	-13
610.258	1	3
610.428	1	5
610.598	1	3
610.767	1	3
610.937	1	2
611.107	1	0
611.277	1	5
611.446	1	-1
611.616	1	-2
611.786	1	7
611.955	1	6
612.125	1	3
612.295	1	-7
612.465	1	-14
612.634	1	10
612.804	1	8
612.974	1	5
613.143	1	-6
613.313	1	-3
613.483	1	-5
613.652	1	-12
613.822	1	4
613.992	1	12
614.162	1	2
614.331	1	-9
614.501	1	2
614.671	1	5
614.840	1	4
615.010	1	-1
615.180	1	-1
615.349	1	0
615.519	1	10
615.689	1	2
615.858	1	3
616.028	1	1
616.198	1	8
616.368	1	0
616.537	1	-1
616.707	1	0
616.877	1	8
617.046	1	3
617.216	1	0
617.386	1	2
617.555	1	-11
617.725	1	11
617.895	1	-12
618.064	1	0
618.234	1	5
618.404	1	1
618.573	1	-6
618.743	1	2
618.913	1	-6
619.082	1	-2
619.252	1	3
619.422	1	0
619.591	1	-3
619.761	1	7
619.931	1	3
620.100	1	4
620.270	1	4
620.440	1	-3
620.609	1	8
620.779	1	-5
620.949	1	0
621.118	1	-4
621.288	1	6
621.458	1	12
621.627	1	-9
621.797	1	6
621.967	1	1
622.136	1	1
622.306	1	4
622.476	1	0
622.645	1	9
622.815	1	-6
622.985	1	1
623.154	1	2
623.324	1	5
623.494	1	-3
623.663	1	-1
623.833	1	-2
624.002	1	4
624.172	1	10
624.342	1	-10
624.511	1	1
624.681	1	-16
624.851	1	-10
625.020	1	5
625.190	1	-6
625.360	1	-11
625.529	1	14
625.699	1	1
625.869	1	16
626.038	1	-3
626.208	1	3
626.377	1	16
626.547	1	-3
626.717	1	-5
626.886	1	-3
627.056	1	-11
627.226	1	3
627.395	1	12
627.565	1	6
627.735	1	6
627.904	1	-7
628.074	1	4
628.243	1	-3
628.413	1	-3
628.583	1	-1
628.752	1	12
628.922	1	-7
629.091	1	2
629.261	1	3
629.431	1	-12
629.600	1	5
629.770	1	4
629.940	1	0
630.109	1	-7
630.279	1	-7
630.448	1	-13
630.618	1	-6
630.788	1	1
630.957	1	-8
631.127	1	9
631.297	1	-12
631.466	1	8
631.636	1	-2
631.805	1	-2
631.975	1	13
632.145	1	-18
632.314	1	6
632.484	1	0
632.653	1	-14
632.823	1	7
632.993	1	5
633.162	1	-7
633.332	1	3
633.501	1	-6
633.671	1	7
633.841	1	0
634.010	1	10
634.180	1	2
634.349	1	1
634.519	1	9
634.689	1	8
634.858	1	9
635.028	1	-1
635.197	1	-5
635.367	1	5
635.537	1	-6
635.706	1	-8
635.876	1	-4
636.045	1	-2
636.215	1	6
636.384	1	11
636.554	1	4
636.724	1	-1
636.893	1	-7
637.063	1	9
637.232	1	-3
637.402	1	18
637.572	1	-3
637.741	1	10
637.911	1	5
638.080	1	-2
638.250	1	-1
638.419	1	-1
638.589	1	5
638.759	1	-6
638.928	1	-14
639.098	1	1
639.267	1	-2
639.437	1	-8
639.606	1	11
639.776	1	0
639.946	1	-4
640.115	1	1
640.285	1	4
640.454	1	12
640.624	1	-3
640.793	1	-2
640.963	1	-5
641.132	1	3
641.302	1	10
641.472	1	-10
641.641	1	-14
641.811	1	2
641.980	1	4
642.150	1	1
642.319	1	0
642.489	1	-8
642.659	1	-8
642.828	1	3
642.998	1	-7
643.167	1	3
643.337	1	6
643.506	1	-8
643.676	1	-6
643.845	1	8
644.015	1	1
644.184	1	-3
644.354	1	-3
644.524	1	-12
644.693	1	-1
644.863	1	-12
645.032	1	3
645.202	1	-1
645.371	1	-5
645.541	1	-12
645.710	1	0
645.880	1	-5
646.049	1	3
646.219	1	4
646.388	1	-7
646.558	1	0
646.728	1	8
646.897	1	0
647.067	1	-1
647.236	1	3
647.406	1	-2
647.575	1	-5
647.745	1	5
647.914	1	-2
648.084	1	-6
648.253	1	5
648.423	1	3
648.592	1	-2
648.762	1	1
648.931	1	3
649.101	1	-2
649.270	1	7
649.440	1	8
649.610	1	6
649.779	1	-8
649.949	1	-2
650.118	1	-12
650.288	1	-3
650.457	1	2
650.627	1	-8
650.796	1	1
650.966	1	-5
651.135	1	8
651.305	1	-5
651.474	1	-3
651.644	1	-1
651.813	1	6
651.983	1	1
652.152	1	5
652.322	1	6
652.491	1	-3
652.661	1	0
652.830	1	8
653.000	1	-1
653.169	1	-1
653.339	1	9
653.508	1	4
653.678	1	3
653.847	1	9
654.017	1	-7
654.186	1	2
654.356	1	4
654.525	1	2
654.695	1	2
654.864	1	12
655.034	1	4
655.203	1	3
655.373	1	0
655.542	1	4
655.712	1	-14
655.881	1	14
656.051	1	6
656.220	1	2
656.390	1	-5
656.559	1	-14
656.729	1	6
656.898	1	12
657.068	1	0
657.237	1	8
657.406	1	7
657.576	1	-1
657.745	1	-9
657.915	1	6
658.084	1	8
658.254	1	-3
658.423	1	2
658.593	1	1
658.762	1	-6
658.932	1	-3
659.101	1	-8
659.271	1	1
659.440	1	18
659.610	1	7
659.779	1	-1
659.949	1	-5
660.118	1	0
660.288	1	0
660.457	1	-7
660.626	1	-3
660.796	1	-3
660.965	1	-2
661.135	1	-7
661.304	1	9
661.474	1	3
661.643	1	-9
661.813	1	-2
661.982	1	1
662.152	1	3
662.321	1	5
662.491	1	-1
662.660	1	2
662.829	1	-4
662.999	1	-6
663.168	1	-12
663.338	1	-9
663.507	1	6
663.677	1	-18
663.846	1	3
664.016	1	-9
664.185	1	-3
664.354	1	1
664.524	1	-9
664.693	1	2
664.863	1	-4
665.032	1	6
665.202	1	-14
665.371	1	-3
665.541	1	3
665.710	1	-1
665.879	1	3
666.049	1	8
666.218	1	-8
666.388	1	1
666.557	1	14
666.727	1	-21
666.896	1	-3
667.065	1	8
667.235	1	-3
667.404	1	-12
667.574	1	-1
667.743	1	-6
667.913	1	5
668.082	1	-3
668.251	1	2
668.421	1	5
668.590	1	-5
668.760	1	-1
668.929	1	4
669.099	1	-5
669.268	1	0
669.437	1	1
669.607	1	-11
669.776	1	-3
669.946	1	9
670.115	1	5
670.285	1	4
670.454	1	7
670.623	1	-1
670.793	1	-5
670.962	1	0
671.132	1	1
671.301	1	4
671.470	1	-6
671.640	1	-23
671.809	1	-11
671.979	1	14
672.148	1	-1
672.317	1	0
672.487	1	-7
672.656	1	5
672.826	1	-16
672.995	1	-5
673.164	1	12
673.334	1	10
673.503	1	0
673.673	1	11
673.842	1	0
674.011	1	2
674.181	1	-3
674.350	1	-4
674.520	1	-1
674.689	1	1
674.858	1	-3
675.028	1	-3
675.197	1	-11
675.367	1	3
675.536	1	6
675.705	1	-10
675.875	1	1
676.044	1	-7
676.214	1	0
676.383	1	-14
676.552	1	-4
676.722	1	-2
676.891	1	-6
677.060	1	10
677.230	1	11
677.399	1	-3
677.569	1	-6
677.738	1	-6
677.907	1	-6
678.077	1	3
678.246	1	-10
678.416	1	-1
678.585	1	2
678.754	1	-5
678.924	1	-14
679.093	1	8
679.262	1	-1
679.432	1	-5
679.601	1	-2
679.771	1	-5
679.940	1	-4
680.109	1	4
680.279	1	-15
680.448	1	2
680.617	1	-10
680.787	1	4
680.956	1	-5
681.125	1	15
681.295	1	9
681.464	1	-2
681.634	1	-1
681.803	1	-11
681.972	1	-10
682.142	1	9
682.311	1	-2
682.480	1	3
682.650	1	-4
682.819	1	12
682.988	1	-2
683.158	1	1
683.327	1	3
683.496	1	-5
683.666	1	6
683.835	1	1
684.004	1	1
684.174	1	5
684.343	1	-1
684.512	1	-6
684.682	1	3
684.851	1	1
685.021	1	-1
685.190	1	0
685.359	1	-9
685.529	1	2
685.698	1	5
685.867	1	-12
686.037	1	-4
686.206	1	4
686.375	1	2
686.545	1	-2
686.714	1	9
686.883	1	-2
687.053	1	4
687.222	1	-1
687.391	1	-3
687.561	1	-1
687.730	1	-3
687.899	1	-10
688.069	1	-10
688.238	1	-4
688.407	1	4
688.577	1	-5
688.746	1	4
