340.368	1	1
340.539	1	17
340.710	1	-8
340.881	1	2
341.052	1	-2
341.223	1	12
341.394	1	0
341.565	1	-8
341.737	1	18
341.908	1	10
342.079	1	-3
342.250	1	5
342.421	1	1
342.592	1	0
342.763	1	0
342.934	1	8
343.105	1	18
343.276	1	-4
343.447	1	8
343.618	1	5
343.789	1	-2
343.960	1	2
344.131	1	2
344.302	1	9
344.473	1	5
344.644	1	-5
344.815	1	4
344.986	1	10
345.157	1	13
345.328	1	9
345.499	1	9
345.670	1	3
345.841	1	6
346.012	1	10
346.183	1	2
346.354	1	8
346.526	1	9
346.697	1	7
346.868	1	3
347.039	1	1
347.210	1	7
347.381	1	7
347.552	1	8
347.723	1	0
347.894	1	5
348.065	1	0
348.236	1	9
348.407	1	-4
348.578	1	7
348.749	1	6
348.920	1	10
349.091	1	2
349.262	1	3
349.433	1	-3
349.604	1	15
349.775	1	8
349.946	1	6
350.117	1	7
350.288	1	5
350.459	1	2
350.630	1	0
350.801	1	10
350.972	1	2
351.143	1	-6
351.314	1	2
351.485	1	-5
351.656	1	3
351.827	1	1
351.998	1	-3
352.169	1	13
352.340	1	-1
352.511	1	7
352.682	1	2
352.853	1	2
353.024	1	-2
353.195	1	-7
353.366	1	6
353.537	1	5
353.708	1	6
353.879	1	6
354.050	1	10
354.221	1	-1
354.392	1	13
354.563	1	12
354.734	1	1
354.905	1	10
355.076	1	6
355.247	1	0
355.418	1	-1
355.589	1	6
355.760	1	9
355.931	1	4
356.102	1	-3
356.273	1	10
356.444	1	4
356.615	1	11
356.785	1	15
356.956	1	-2
357.127	1	3
357.298	1	5
357.469	1	5
357.640	1	9
357.811	1	16
357.982	1	-9
358.153	1	8
358.324	1	-1
358.495	1	9
358.666	1	5
358.837	1	12
359.008	1	6
359.179	1	8
359.350	1	9
359.521	1	4
359.692	1	10
359.863	1	-4
360.034	1	1
360.205	1	2
360.376	1	16
360.547	1	2
360.718	1	10
360.889	1	7
361.060	1	18
361.231	1	8
361.401	1	17
361.572	1	-2
361.743	1	10
361.914	1	1
362.085	1	6
362.256	1	1
362.427	1	-3
362.598	1	14
362.769	1	8
362.940	1	14
363.111	1	12
363.282	1	12
363.453	1	7
363.624	1	18
363.795	1	18
363.966	1	7
364.137	1	8
364.308	1	1
364.478	1	13
364.649	1	9
364.820	1	16
364.991	1	16
365.162	1	11
365.333	1	27
365.504	1	5
365.675	1	13
365.846	1	8
366.017	1	12
366.188	1	5
366.359	1	16
366.530	1	21
366.701	1	5
366.871	1	23
367.042	1	23
367.213	1	19
367.384	1	19
367.555	1	13
367.726	1	25
367.897	1	14
368.068	1	7
368.239	1	30
368.410	1	12
368.581	1	19
368.752	1	6
368.923	1	7
369.093	1	8
369.264	1	8
369.435	1	17
369.606	1	9
369.777	1	18
369.948	1	20
370.119	1	19
370.290	1	16
370.461	1	19
370.632	1	7
370.803	1	10
370.973	1	18
371.144	1	16
371.315	1	7
371.486	1	23
371.657	1	14
371.828	1	10
371.999	1	-3
372.170	1	22
372.341	1	11
372.512	1	5
372.682	1	-4
372.853	1	12
373.024	1	13
373.195	1	-1
373.366	1	10
373.537	1	14
373.708	1	4
373.879	1	12
374.050	1	19
374.220	1	18
374.391	1	6
374.562	1	7
374.733	1	23
374.904	1	13
375.075	1	15
375.246	1	4
375.417	1	11
375.588	1	9
375.758	1	-1
375.929	1	7
376.100	1	14
376.271	1	17
376.442	1	8
376.613	1	8
376.784	1	15
376.955	1	2
377.125	1	12
377.296	1	7
377.467	1	-5
377.638	1	8
377.809	1	15
377.980	1	12
378.151	1	5
378.321	1	6
378.492	1	5
378.663	1	6
378.834	1	12
379.005	1	13
379.176	1	5
379.347	1	9
379.518	1	-7
379.688	1	1
379.859	1	4
380.030	1	1
380.201	1	-1
380.372	1	6
380.543	1	13
380.714	1	3
380.884	1	7
381.055	1	4
381.226	1	10
381.397	1	5
381.568	1	13
381.739	1	21
381.910	1	14
382.080	1	2
382.251	1	3
382.422	1	23
382.593	1	7
382.764	1	8
382.935	1	15
383.105	1	10
383.276	1	15
383.447	1	15
383.618	1	15
383.789	1	13
383.960	1	13
384.130	1	2
384.301	1	19
384.472	1	8
384.643	1	17
384.814	1	18
384.985	1	18
385.156	1	23
385.326	1	16
385.497	1	22
385.668	1	9
385.839	1	16
386.010	1	25
386.180	1	21
386.351	1	15
386.522	1	29
386.693	1	13
386.864	1	15
387.035	1	22
387.205	1	14
387.376	1	18
387.547	1	13
387.718	1	27
387.889	1	12
388.060	1	12
388.230	1	11
388.401	1	19
388.572	1	20
388.743	1	19
388.914	1	26
389.084	1	25
389.255	1	19
389.426	1	20
389.597	1	22
389.768	1	14
389.939	1	17
390.109	1	19
390.280	1	24
390.451	1	24
390.622	1	15
390.793	1	33
390.963	1	20
391.134	1	20
391.305	1	22
391.476	1	19
391.647	1	21
391.817	1	7
391.988	1	16
392.159	1	24
392.330	1	18
392.501	1	17
392.671	1	27
392.842	1	22
393.013	1	27
393.184	1	25
393.355	1	17
393.525	1	19
393.696	1	11
393.867	1	10
394.038	1	14
394.208	1	21
394.379	1	8
394.550	1	20
394.721	1	8
394.892	1	16
395.062	1	14
395.233	1	19
395.404	1	18
395.575	1	10
395.746	1	13
395.916	1	18
396.087	1	13
396.258	1	16
396.429	1	24
396.599	1	15
396.770	1	18
396.941	1	35
397.112	1	7
397.283	1	14
397.453	1	12
397.624	1	18
397.795	1	20
397.966	1	25
398.136	1	10
398.307	1	22
398.478	1	14
398.649	1	15
398.819	1	24
398.990	1	29
399.161	1	15
399.332	1	25
399.503	1	19
399.673	1	20
399.844	1	18
400.015	1	17
400.186	1	20
400.356	1	12
400.527	1	19
400.698	1	15
400.869	1	26
401.039	1	13
401.210	1	5
401.381	1	18
401.552	1	24
401.722	1	21
401.893	1	16
402.064	1	15
402.235	1	19
402.405	1	11
402.576	1	16
402.747	1	10
402.918	1	0
403.088	1	8
403.259	1	-4
403.430	1	7
403.601	1	7
403.771	1	17
403.942	1	22
404.113	1	26
404.284	1	18
404.454	1	21
404.625	1	14
404.796	1	16
404.967	1	14
405.137	1	12
405.308	1	18
405.479	1	16
405.649	1	12
405.820	1	18
405.991	1	23
406.162	1	13
406.332	1	9
406.503	1	15
406.674	1	13
406.845	1	11
407.015	1	2
407.186	1	25
407.357	1	15
407.527	1	6
407.698	1	-2
407.869	1	14
408.040	1	5
408.210	1	2
408.381	1	16
408.552	1	16
408.722	1	16
408.893	1	22
409.064	1	15
409.235	1	11
409.405	1	16
409.576	1	16
409.747	1	3
409.917	1	9
410.088	1	18
410.259	1	15
410.430	1	12
410.600	1	15
410.771	1	15
410.942	1	14
411.112	1	18
411.283	1	3
411.454	1	19
411.625	1	10
411.795	1	12
411.966	1	18
412.137	1	24
412.307	1	10
412.478	1	15
412.649	1	8
412.819	1	13
412.990	1	16
413.161	1	1
413.332	1	11
413.502	1	6
413.673	1	12
413.844	1	16
414.014	1	3
414.185	1	9
414.356	1	0
414.526	1	10
414.697	1	26
414.868	1	14
415.038	1	13
415.209	1	16
415.380	1	12
415.550	1	7
415.721	1	15
415.892	1	3
416.063	1	27
416.233	1	10
416.404	1	8
416.575	1	15
416.745	1	2
416.916	1	4
417.087	1	3
417.257	1	13
417.428	1	7
417.599	1	15
417.769	1	10
417.940	1	5
418.111	1	13
418.281	1	23
418.452	1	7
418.623	1	13
418.793	1	13
418.964	1	22
419.135	1	11
419.305	1	12
419.476	1	11
419.647	1	14
419.817	1	7
419.988	1	11
420.159	1	2
420.329	1	12
420.500	1	13
420.671	1	6
420.841	1	18
421.012	1	13
421.183	1	11
421.353	1	15
421.524	1	4
421.695	1	12
421.865	1	9
422.036	1	11
422.206	1	1
422.377	1	19
422.548	1	12
422.718	1	12
422.889	1	13
423.060	1	12
423.230	1	20
423.401	1	13
423.572	1	9
423.742	1	12
423.913	1	8
424.084	1	15
424.254	1	4
424.425	1	2
424.595	1	4
424.766	1	12
424.937	1	5
425.107	1	14
425.278	1	-3
425.449	1	13
425.619	1	7
425.790	1	5
425.961	1	10
426.131	1	5
426.302	1	5
426.472	1	8
426.643	1	19
426.814	1	15
426.984	1	13
427.155	1	6
427.326	1	10
427.496	1	19
427.667	1	13
427.837	1	13
428.008	1	12
428.179	1	10
428.349	1	4
428.520	1	7
428.691	1	12
428.861	1	6
429.032	1	3
429.202	1	11
429.373	1	-4
429.544	1	3
429.714	1	10
429.885	1	-1
430.055	1	12
430.226	1	1
430.397	1	9
430.567	1	14
430.738	1	10
430.909	1	2
431.079	1	12
431.250	1	4
431.420	1	17
431.591	1	9
431.762	1	17
431.932	1	11
432.103	1	8
432.273	1	4
432.444	1	12
432.615	1	5
432.785	1	8
432.956	1	6
433.126	1	13
433.297	1	19
433.468	1	11
433.638	1	2
433.809	1	12
433.979	1	12
434.150	1	-1
434.320	1	1
434.491	1	9
434.662	1	9
434.832	1	4
435.003	1	10
435.173	1	13
435.344	1	9
435.515	1	1
435.685	1	8
435.856	1	9
436.026	1	10
436.197	1	7
436.368	1	-4
436.538	1	4
436.709	1	-2
436.879	1	8
437.050	1	15
437.220	1	15
437.391	1	6
437.562	1	26
437.732	1	10
437.903	1	3
438.073	1	11
438.244	1	5
438.414	1	1
438.585	1	8
438.756	1	11
438.926	1	8
439.097	1	11
439.267	1	17
439.438	1	16
439.608	1	5
439.779	1	5
439.949	1	0
440.120	1	12
440.291	1	-2
440.461	1	-2
440.632	1	1
440.802	1	8
440.973	1	8
441.143	1	5
441.314	1	18
441.485	1	9
441.655	1	10
441.826	1	-7
441.996	1	8
442.167	1	-2
442.337	1	-2
442.508	1	6
442.678	1	6
442.849	1	20
443.019	1	10
443.190	1	-8
443.361	1	8
443.531	1	4
443.702	1	-5
443.872	1	10
444.043	1	7
444.213	1	-1
444.384	1	12
444.554	1	3
444.725	1	7
444.895	1	11
445.066	1	1
445.237	1	0
445.407	1	4
445.578	1	11
445.748	1	3
445.919	1	7
446.089	1	25
446.260	1	9
446.430	1	1
446.601	1	-1
446.771	1	2
446.942	1	8
447.112	1	5
447.283	1	4
447.453	1	8
447.624	1	17
447.794	1	5
447.965	1	2
448.135	1	0
448.306	1	10
448.477	1	5
448.647	1	15
448.818	1	20
448.988	1	-7
449.159	1	0
449.329	1	1
449.500	1	10
449.670	1	12
449.841	1	6
450.011	1	3
450.182	1	4
450.352	1	21
450.523	1	6
450.693	1	8
450.864	1	2
451.034	1	7
451.205	1	12
451.375	1	7
451.546	1	8
451.716	1	19
451.887	1	3
452.057	1	15
452.228	1	-1
452.398	1	11
452.569	1	9
452.739	1	6
452.910	1	3
453.080	1	21
453.251	1	2
453.421	1	6
453.592	1	-5
453.762	1	10
453.933	1	7
454.103	1	8
454.274	1	3
454.444	1	17
454.615	1	7
454.785	1	16
454.956	1	-1
455.126	1	3
455.297	1	14
455.467	1	5
455.638	1	18
455.808	1	0
455.979	1	13
456.149	1	1
456.320	1	1
456.490	1	5
456.661	1	2
456.831	1	15
457.001	1	10
457.172	1	4
457.342	1	9
457.513	1	7
457.683	1	0
457.854	1	7
458.024	1	2
458.195	1	-5
458.365	1	4
458.536	1	16
458.706	1	1
458.877	1	6
459.047	1	-1
459.218	1	2
459.388	1	4
459.559	1	6
459.729	1	3
459.899	1	12
460.070	1	4
460.240	1	6
460.411	1	14
460.581	1	6
460.752	1	12
460.922	1	16
461.093	1	1
461.263	1	6
461.434	1	2
461.604	1	-1
461.775	1	11
461.945	1	11
462.115	1	-2
462.286	1	3
462.456	1	-7
462.627	1	5
462.797	1	-3
462.968	1	-2
463.138	1	8
463.309	1	6
463.479	1	10
463.649	1	9
463.820	1	4
463.990	1	14
464.161	1	10
464.331	1	9
464.502	1	1
464.672	1	8
464.843	1	7
465.013	1	-10
465.183	1	9
465.354	1	4
465.524	1	14
465.695	1	9
465.865	1	3
466.036	1	15
466.206	1	7
466.376	1	7
466.547	1	8
466.717	1	-5
466.888	1	3
467.058	1	9
467.229	1	-1
467.399	1	11
467.569	1	5
467.740	1	5
467.910	1	-2
468.081	1	11
468.251	1	2
468.422	1	7
468.592	1	10
468.762	1	-6
468.933	1	10
469.103	1	5
469.274	1	12
469.444	1	5
469.614	1	7
469.785	1	7
469.955	1	1
470.126	1	6
470.296	1	4
470.467	1	-4
470.637	1	20
470.807	1	7
470.978	1	-4
471.148	1	9
471.319	1	3
471.489	1	0
471.659	1	8
471.830	1	16
472.000	1	11
472.171	1	-2
472.341	1	3
472.511	1	15
472.682	1	1
472.852	1	-3
473.023	1	-5
473.193	1	-7
473.363	1	8
473.534	1	-1
473.704	1	10
473.875	1	6
474.045	1	-8
474.215	1	12
474.386	1	17
474.556	1	-4
474.727	1	2
474.897	1	6
475.067	1	9
475.238	1	3
475.408	1	0
475.578	1	8
475.749	1	0
475.919	1	4
476.090	1	3
476.260	1	3
476.430	1	2
476.601	1	6
476.771	1	12
476.942	1	-1
477.112	1	3
477.282	1	-8
477.453	1	0
477.623	1	7
477.793	1	15
477.964	1	8
478.134	1	15
478.305	1	2
478.475	1	9
478.645	1	-2
478.816	1	5
478.986	1	7
479.156	1	10
479.327	1	-3
479.497	1	-1
479.667	1	10
479.838	1	20
480.008	1	3
480.179	1	0
480.349	1	1
480.519	1	7
480.690	1	1
480.860	1	1
481.030	1	-5
481.201	1	1
481.371	1	12
481.541	1	-4
481.712	1	15
481.882	1	1
482.053	1	17
482.223	1	-1
482.393	1	3
482.564	1	-2
482.734	1	8
482.904	1	1
483.075	1	11
483.245	1	1
483.415	1	12
483.586	1	-3
483.756	1	16
483.926	1	15
484.097	1	-2
484.267	1	-5
484.437	1	-4
484.608	1	8
484.778	1	0
484.948	1	7
485.119	1	7
485.289	1	15
485.459	1	11
485.630	1	8
485.800	1	8
485.970	1	6
486.141	1	-10
486.311	1	4
486.481	1	10
486.652	1	18
486.822	1	3
486.992	1	7
487.163	1	-1
487.333	1	1
487.503	1	-5
487.674	1	14
487.844	1	6
488.014	1	10
488.185	1	-2
488.355	1	-2
488.525	1	-3
488.696	1	-2
488.866	1	16
489.036	1	7
489.207	1	17
489.377	1	15
489.547	1	5
489.718	1	9
489.888	1	-2
490.058	1	5
490.228	1	0
490.399	1	10
490.569	1	13
490.739	1	10
490.910	1	-2
491.080	1	-2
491.250	1	2
491.421	1	11
491.591	1	-1
491.761	1	18
491.932	1	2
492.102	1	-4
492.272	1	9
492.442	1	14
492.613	1	4
492.783	1	-7
492.953	1	1
493.124	1	2
493.294	1	8
493.464	1	-1
493.635	1	7
493.805	1	12
493.975	1	4
494.145	1	9
494.316	1	24
494.486	1	15
494.656	1	5
494.827	1	2
494.997	1	4
495.167	1	8
495.337	1	12
495.508	1	6
495.678	1	13
495.848	1	3
496.019	1	2
496.189	1	9
496.359	1	6
496.529	1	2
496.700	1	7
496.870	1	-2
497.040	1	4
497.211	1	17
497.381	1	-18
497.551	1	22
497.721	1	-1
497.892	1	10
498.062	1	-1
498.232	1	13
498.403	1	20
498.573	1	-2
498.743	1	11
498.913	1	2
499.084	1	-3
499.254	1	11
499.424	1	18
499.594	1	6
499.765	1	10
499.935	1	-9
500.105	1	14
500.275	1	10
500.446	1	6
500.616	1	1
500.786	1	7
500.956	1	8
501.127	1	7
501.297	1	7
501.467	1	1
501.638	1	6
501.808	1	-1
501.978	1	9
502.148	1	12
502.319	1	6
502.489	1	11
502.659	1	4
502.829	1	8
503.000	1	9
503.170	1	2
503.340	1	7
503.510	1	5
503.681	1	-4
503.851	1	4
504.021	1	32
504.191	1	14
504.362	1	11
504.532	1	5
504.702	1	15
504.872	1	8
505.042	1	9
505.213	1	12
505.383	1	3
505.553	1	8
505.723	1	8
505.894	1	19
506.064	1	11
506.234	1	15
506.404	1	2
506.575	1	5
506.745	1	5
506.915	1	12
507.085	1	-1
507.256	1	0
507.426	1	12
507.596	1	12
507.766	1	9
507.936	1	8
508.107	1	8
508.277	1	4
508.447	1	11
508.617	1	12
508.788	1	1
508.958	1	18
509.128	1	4
509.298	1	20
509.468	1	7
509.639	1	18
509.809	1	16
509.979	1	14
510.149	1	3
510.319	1	-1
510.490	1	18
510.660	1	10
510.830	1	1
511.000	1	6
511.171	1	21
511.341	1	10
511.511	1	8
511.681	1	5
511.851	1	1
512.022	1	4
512.192	1	6
512.362	1	10
512.532	1	8
512.702	1	7
512.873	1	8
513.043	1	14
513.213	1	10
513.383	1	4
513.553	1	-1
513.724	1	27
513.894	1	6
514.064	1	11
514.234	1	12
514.404	1	14
514.575	1	11
514.745	1	9
514.915	1	13
515.085	1	8
515.255	1	-1
515.425	1	9
515.596	1	13
515.766	1	14
515.936	1	16
516.106	1	11
516.276	1	17
516.447	1	14
516.617	1	4
516.787	1	10
516.957	1	8
517.127	1	9
517.297	1	2
517.468	1	16
517.638	1	16
517.808	1	11
517.978	1	5
518.148	1	6
518.319	1	6
518.489	1	10
518.659	1	17
518.829	1	4
518.999	1	15
519.169	1	16
519.340	1	12
519.510	1	7
519.680	1	5
519.850	1	1
520.020	1	9
520.190	1	13
520.361	1	10
520.531	1	11
520.701	1	16
520.871	1	4
521.041	1	13
521.211	1	8
521.382	1	17
521.552	1	11
521.722	1	8
521.892	1	5
522.062	1	7
522.232	1	6
522.402	1	5
522.573	1	9
522.743	1	18
522.913	1	13
523.083	1	2
523.253	1	8
523.423	1	8
523.593	1	0
523.764	1	17
523.934	1	11
524.104	1	9
524.274	1	11
524.444	1	14
524.614	1	9
524.784	1	23
524.955	1	-2
525.125	1	16
525.295	1	12
525.465	1	9
525.635	1	17
525.805	1	9
525.975	1	1
526.146	1	4
526.316	1	8
526.486	1	13
526.656	1	32
526.826	1	7
526.996	1	24
527.166	1	18
527.337	1	7
527.507	1	4
527.677	1	27
527.847	1	0
528.017	1	5
528.187	1	13
528.357	1	19
528.527	1	12
528.698	1	2
528.868	1	5
529.038	1	13
529.208	1	7
529.378	1	23
529.548	1	15
529.718	1	22
529.888	1	13
530.058	1	13
530.229	1	17
530.399	1	18
530.569	1	10
530.739	1	3
530.909	1	18
531.079	1	25
531.249	1	0
531.419	1	20
531.589	1	2
531.760	1	18
531.930	1	9
532.100	1	17
532.270	1	23
532.440	1	10
532.610	1	9
532.780	1	9
532.950	1	20
533.120	1	16
533.290	1	7
533.461	1	23
533.631	1	16
533.801	1	18
533.971	1	12
534.141	1	13
534.311	1	17
534.481	1	12
534.651	1	10
534.821	1	17
534.991	1	5
535.162	1	9
535.332	1	18
535.502	1	16
535.672	1	10
535.842	1	11
536.012	1	17
536.182	1	13
536.352	1	13
536.522	1	21
536.692	1	7
536.862	1	24
537.032	1	8
537.203	1	21
537.373	1	4
537.543	1	20
537.713	1	26
537.883	1	22
538.053	1	17
538.223	1	16
538.393	1	22
538.563	1	18
538.733	1	10
538.903	1	14
539.073	1	22
539.243	1	6
539.413	1	9
539.584	1	16
539.754	1	9
539.924	1	17
540.094	1	12
540.264	1	15
540.434	1	12
540.604	1	17
540.774	1	11
540.944	1	11
541.114	1	4
541.284	1	4
541.454	1	11
541.624	1	7
541.794	1	8
541.964	1	2
542.134	1	24
542.305	1	7
542.475	1	6
542.645	1	7
542.815	1	16
542.985	1	12
543.155	1	8
543.325	1	5
543.495	1	6
543.665	1	18
543.835	1	9
544.005	1	12
544.175	1	10
544.345	1	9
544.515	1	2
544.685	1	18
544.855	1	19
545.025	1	10
545.195	1	21
545.365	1	10
545.535	1	16
545.705	1	14
545.875	1	15
546.045	1	17
546.216	1	19
546.386	1	3
546.556	1	12
546.726	1	4
546.896	1	5
547.066	1	3
547.236	1	10
547.406	1	16
547.576	1	20
547.746	1	25
547.916	1	11
548.086	1	12
548.256	1	16
548.426	1	8
548.596	1	19
548.766	1	17
548.936	1	2
549.106	1	21
549.276	1	20
549.446	1	8
549.616	1	15
549.786	1	16
549.956	1	15
550.126	1	11
550.296	1	7
550.466	1	8
550.636	1	10
550.806	1	13
550.976	1	13
551.146	1	5
551.316	1	12
551.486	1	17
551.656	1	-2
551.826	1	15
551.996	1	13
552.166	1	11
552.336	1	11
552.506	1	13
552.676	1	2
552.846	1	14
553.016	1	13
553.186	1	13
553.356	1	7
553.526	1	8
553.696	1	22
553.866	1	19
554.036	1	20
554.206	1	9
554.376	1	5
554.546	1	9
554.716	1	5
554.886	1	14
555.056	1	3
555.226	1	10
555.396	1	9
555.566	1	21
555.736	1	4
555.906	1	9
556.076	1	18
556.246	1	12
556.416	1	12
556.586	1	15
556.756	1	11
556.926	1	12
557.096	1	3
557.266	1	15
557.436	1	17
557.606	1	4
557.776	1	12
557.946	1	21
558.116	1	7
558.286	1	18
558.456	1	0
558.626	1	17
558.796	1	-6
558.966	1	5
559.136	1	8
559.306	1	7
559.476	1	17
559.646	1	10
559.816	1	6
559.986	1	-5
560.155	1	5
560.325	1	2
560.495	1	12
560.665	1	13
560.835	1	16
561.005	1	7
561.175	1	9
561.345	1	2
561.515	1	5
561.685	1	11
561.855	1	14
562.025	1	5
562.195	1	10
562.365	1	7
562.535	1	8
562.705	1	13
562.875	1	7
563.045	1	13
563.215	1	3
563.385	1	2
563.555	1	15
563.725	1	5
563.895	1	3
564.064	1	22
564.234	1	14
564.404	1	7
564.574	1	-1
564.744	1	17
564.914	1	-6
565.084	1	11
565.254	1	3
565.424	1	14
565.594	1	5
565.764	1	16
565.934	1	8
566.104	1	3
566.274	1	7
566.444	1	8
566.614	1	7
566.783	1	3
566.953	1	4
567.123	1	19
567.293	1	5
567.463	1	8
567.633	1	3
567.803	1	2
567.973	1	6
568.143	1	4
568.313	1	5
568.483	1	-2
568.653	1	-2
568.823	1	14
568.993	1	6
569.162	1	9
569.332	1	-5
569.502	1	11
569.672	1	21
569.842	1	1
570.012	1	3
570.182	1	1
570.352	1	12
570.522	1	16
570.692	1	12
570.862	1	13
571.031	1	0
571.201	1	12
571.371	1	4
571.541	1	5
571.711	1	8
571.881	1	4
572.051	1	7
572.221	1	14
572.391	1	12
572.561	1	2
572.731	1	7
572.900	1	16
573.070	1	9
573.240	1	0
573.410	1	7
573.580	1	12
573.750	1	10
573.920	1	4
574.090	1	11
574.260	1	13
574.430	1	7
574.599	1	5
574.769	1	3
574.939	1	8
575.109	1	9
575.279	1	12
575.449	1	12
575.619	1	15
575.789	1	19
575.959	1	-1
576.128	1	-3
576.298	1	1
576.468	1	7
576.638	1	8
576.808	1	3
576.978	1	15
577.148	1	13
577.318	1	8
577.487	1	11
577.657	1	-6
577.827	1	12
577.997	1	-7
578.167	1	14
578.337	1	2
578.507	1	1
578.677	1	3
578.846	1	6
579.016	1	21
579.186	1	11
579.356	1	6
579.526	1	4
579.696	1	5
579.866	1	7
580.036	1	2
580.205	1	6
580.375	1	10
580.545	1	1
580.715	1	12
580.885	1	9
581.055	1	12
581.225	1	-3
581.394	1	6
581.564	1	3
581.734	1	10
581.904	1	8
582.074	1	0
582.244	1	6
582.414	1	7
582.583	1	-3
582.753	1	13
582.923	1	2
583.093	1	5
583.263	1	14
583.433	1	5
583.603	1	8
583.772	1	9
583.942	1	15
584.112	1	8
584.282	1	1
584.452	1	3
584.622	1	5
584.791	1	13
584.961	1	15
585.131	1	4
585.301	1	6
585.471	1	1
585.641	1	14
585.811	1	9
585.980	1	-8
586.150	1	5
586.320	1	-5
586.490	1	1
586.660	1	7
586.830	1	1
586.999	1	-3
587.169	1	13
587.339	1	7
587.509	1	8
587.679	1	9
587.849	1	15
588.018	1	4
588.188	1	0
588.358	1	9
588.528	1	4
588.698	1	4
588.867	1	10
589.037	1	9
589.207	1	-4
589.377	1	12
589.547	1	9
589.717	1	7
589.886	1	2
590.056	1	2
590.226	1	7
590.396	1	2
590.566	1	5
590.735	1	14
590.905	1	6
591.075	1	-9
591.245	1	7
591.415	1	7
591.585	1	-2
591.754	1	13
591.924	1	5
592.094	1	16
592.264	1	6
592.434	1	6
592.603	1	-2
592.773	1	-4
592.943	1	8
593.113	1	-8
593.283	1	8
593.452	1	-7
593.622	1	4
593.792	1	6
593.962	1	9
594.132	1	2
594.301	1	18
594.471	1	7
594.641	1	7
594.811	1	9
594.981	1	2
595.150	1	4
595.320	1	16
595.490	1	2
595.660	1	-1
595.829	1	6
595.999	1	5
596.169	1	8
596.339	1	8
596.509	1	9
596.678	1	5
596.848	1	4
597.018	1	11
597.188	1	13
597.358	1	5
597.527	1	-3
597.697	1	-3
597.867	1	8
598.037	1	0
598.206	1	-3
598.376	1	13
598.546	1	0
598.716	1	-3
598.885	1	2
599.055	1	5
599.225	1	8
599.395	1	10
599.565	1	9
599.734	1	2
599.904	1	6
600.074	1	-5
600.244	1	13
600.413	1	4
600.583	1	-3
600.753	1	-1
600.923	1	18
601.092	1	-3
601.262	1	7
601.432	1	5
601.602	1	6
601.771	1	8
601.941	1	5
602.111	1	0
602.281	1	13
602.451	1	2
602.620	1	9
602.790	1	12
602.960	1	5
603.130	1	3
603.299	1	10
603.469	1	-7
603.639	1	6
603.809	1	14
603.978	1	3
604.148	1	10
604.318	1	1
604.487	1	8
604.657	1	6
604.827	1	-6
604.997	1	4
605.166	1	0
605.336	1	11
605.506	1	-1
605.676	1	-3
605.845	1	4
606.015	1	12
606.185	1	3
606.355	1	7
606.524	1	0
606.694	1	12
606.864	1	5
607.034	1	7
607.203	1	19
607.373	1	10
607.543	1	-2
607.712	1	4
607.882	1	13
608.052	1	0
608.222	1	-3
608.391	1	9
608.561	1	6
608.731	1	-5
608.901	1	4
609.070	1	3
609.240	1	10
609.410	1	6
609.579	1	10
609.749	1	5
609.919	1	-1
610.089	1	2
610.258	1	8
610.428	1	7
610.598	1	5
610.767	1	-4
610.937	1	11
611.107	1	11
611.277	1	11
611.446	1	-2
611.616	1	-2
611.786	1	12
611.955	1	10
612.125	1	6
612.295	1	0
612.465	1	-2
612.634	1	2
612.804	1	7
612.974	1	11
613.143	1	8
613.313	1	3
613.483	1	11
613.652	1	-3
613.822	1	10
613.992	1	9
614.162	1	-2
614.331	1	12
614.501	1	5
614.671	1	3
614.840	1	5
615.010	1	5
615.180	1	5
615.349	1	7
615.519	1	6
615.689	1	6
615.858	1	5
616.028	1	5
616.198	1	5
616.368	1	-4
616.537	1	-3
616.707	1	5
616.877	1	5
617.046	1	16
617.216	1	3
617.386	1	9
617.555	1	-3
617.725	1	11
617.895	1	-4
618.064	1	11
618.234	1	5
618.404	1	6
618.573	1	3
618.743	1	0
618.913	1	2
619.082	1	3
619.252	1	2
619.422	1	4
619.591	1	10
619.761	1	5
619.931	1	8
620.100	1	6
620.270	1	-4
620.440	1	4
620.609	1	3
620.779	1	1
620.949	1	2
621.118	1	7
621.288	1	15
621.458	1	15
621.627	1	1
621.797	1	7
621.967	1	1
622.136	1	10
622.306	1	11
622.476	1	8
622.645	1	15
622.815	1	2
622.985	1	5
623.154	1	1
623.324	1	15
623.494	1	9
623.663	1	-5
623.833	1	10
624.002	1	7
624.172	1	7
624.342	1	0
624.511	1	8
624.681	1	-4
624.851	1	-3
625.020	1	7
625.190	1	0
625.360	1	-2
625.529	1	10
625.699	1	-2
625.869	1	8
626.038	1	1
626.208	1	5
626.377	1	19
626.547	1	6
626.717	1	0
626.886	1	2
627.056	1	4
627.226	1	6
627.395	1	12
627.565	1	5
627.735	1	5
627.904	1	10
628.074	1	4
628.243	1	3
628.413	1	3
628.583	1	1
628.752	1	12
628.922	1	-2
629.091	1	14
629.261	1	13
629.431	1	-9
629.600	1	15
629.770	1	1
629.940	1	7
630.109	1	0
630.279	1	-7
630.448	1	9
630.618	1	2
630.788	1	2
630.957	1	-10
631.127	1	12
631.297	1	-10
631.466	1	0
631.636	1	9
631.805	1	-2
631.975	1	5
632.145	1	-5
632.314	1	17
632.484	1	5
632.653	1	3
632.823	1	10
632.993	1	7
633.162	1	9
633.332	1	10
633.501	1	1
633.671	1	9
633.841	1	8
634.010	1	12
634.180	1	6
634.349	1	21
634.519	1	12
634.689	1	11
634.858	1	11
635.028	1	16
635.197	1	-1
635.367	1	8
635.537	1	-4
635.706	1	1
635.876	1	5
636.045	1	-1
636.215	1	1
636.384	1	16
636.554	1	10
636.724	1	13
636.893	1	0
637.063	1	14
637.232	1	4
637.402	1	6
637.572	1	9
637.741	1	7
637.911	1	-8
638.080	1	-5
638.250	1	14
638.419	1	9
638.589	1	12
638.759	1	5
638.928	1	-3
639.098	1	2
639.267	1	3
639.437	1	2
639.606	1	21
639.776	1	7
639.946	1	-1
640.115	1	2
640.285	1	8
640.454	1	18
640.624	1	6
640.793	1	-4
640.963	1	-3
641.132	1	21
641.302	1	0
641.472	1	-1
641.641	1	-6
641.811	1	1
641.980	1	7
642.150	1	-2
642.319	1	9
642.489	1	-5
642.659	1	-7
642.828	1	4
642.998	1	-2
643.167	1	8
643.337	1	9
643.506	1	-6
643.676	1	5
643.845	1	11
644.015	1	5
644.184	1	12
644.354	1	10
644.524	1	-5
644.693	1	5
644.863	1	1
645.032	1	4
645.202	1	7
645.371	1	1
645.541	1	-2
645.710	1	-4
645.880	1	3
646.049	1	9
646.219	1	13
646.388	1	4
646.558	1	8
646.728	1	5
646.897	1	1
647.067	1	0
647.236	1	14
647.406	1	5
647.575	1	7
647.745	1	5
647.914	1	-7
648.084	1	0
648.253	1	11
648.423	1	-2
648.592	1	-5
648.762	1	7
648.931	1	14
649.101	1	6
649.270	1	16
649.440	1	17
649.610	1	21
649.779	1	4
649.949	1	-3
650.118	1	-8
650.288	1	-6
650.457	1	-1
650.627	1	1
650.796	1	7
650.966	1	-3
651.135	1	19
651.305	1	-5
651.474	1	3
651.644	1	2
651.813	1	8
651.983	1	10
652.152	1	-2
652.322	1	14
652.491	1	6
652.661	1	3
652.830	1	13
653.000	1	-4
653.169	1	11
653.339	1	-1
653.508	1	6
653.678	1	-3
653.847	1	10
654.017	1	8
654.186	1	-4
654.356	1	8
654.525	1	6
654.695	1	4
654.864	1	9
655.034	1	0
655.203	1	12
655.373	1	1
655.542	1	4
655.712	1	5
655.881	1	15
656.051	1	10
656.220	1	4
656.390	1	-7
656.559	1	-6
656.729	1	0
656.898	1	13
657.068	1	-1
657.237	1	8
657.406	1	3
657.576	1	3
657.745	1	-5
657.915	1	9
658.084	1	16
658.254	1	10
658.423	1	-3
658.593	1	2
658.762	1	-1
658.932	1	9
659.101	1	1
659.271	1	2
659.440	1	20
659.610	1	3
659.779	1	-4
659.949	1	5
660.118	1	7
660.288	1	-9
660.457	1	2
660.626	1	4
660.796	1	-6
660.965	1	0
661.135	1	12
661.304	1	6
661.474	1	2
661.643	1	8
661.813	1	0
661.982	1	3
662.152	1	2
662.321	1	2
662.491	1	7
662.660	1	9
662.829	1	-13
662.999	1	1
663.168	1	-1
663.338	1	-6
663.507	1	0
663.677	1	-2
663.846	1	15
664.016	1	-1
664.185	1	2
664.354	1	5
664.524	1	-17
664.693	1	10
664.863	1	4
665.032	1	7
665.202	1	-10
665.371	1	10
665.541	1	3
665.710	1	-8
665.879	1	2
666.049	1	-2
666.218	1	-10
666.388	1	-6
666.557	1	6
666.727	1	-13
666.896	1	4
667.065	1	11
667.235	1	10
667.404	1	3
667.574	1	10
667.743	1	9
667.913	1	5
668.082	1	12
668.251	1	2
668.421	1	4
668.590	1	-1
668.760	1	7
668.929	1	8
669.099	1	-2
669.268	1	-2
669.437	1	9
669.607	1	-1
669.776	1	5
669.946	1	10
670.115	1	-5
670.285	1	-3
670.454	1	8
670.623	1	10
670.793	1	-2
670.962	1	-1
671.132	1	12
671.301	1	-4
671.470	1	5
671.640	1	-14
671.809	1	4
671.979	1	21
672.148	1	6
672.317	1	1
672.487	1	-1
672.656	1	0
672.826	1	-9
672.995	1	2
673.164	1	8
673.334	1	12
673.503	1	-2
673.673	1	15
673.842	1	9
674.011	1	10
674.181	1	-1
674.350	1	5
674.520	1	5
674.689	1	-6
674.858	1	2
675.028	1	6
675.197	1	-3
675.367	1	1
675.536	1	15
675.705	1	-9
675.875	1	1
676.044	1	2
676.214	1	4
676.383	1	0
676.552	1	-4
676.722	1	0
676.891	1	-9
677.060	1	11
677.230	1	5
677.399	1	1
677.569	1	-2
677.738	1	2
677.907	1	-6
678.077	1	8
678.246	1	0
678.416	1	4
678.585	1	10
678.754	1	8
678.924	1	2
679.093	1	3
679.262	1	6
679.432	1	1
679.601	1	-10
679.771	1	-1
679.940	1	4
680.109	1	9
680.279	1	0
680.448	1	6
680.617	1	8
680.787	1	2
680.956	1	3
681.125	1	9
681.295	1	3
681.464	1	-2
681.634	1	9
681.803	1	-2
681.972	1	-11
682.142	1	13
682.311	1	3
682.480	1	0
682.650	1	-3
682.819	1	10
682.988	1	3
683.158	1	1
683.327	1	-3
683.496	1	4
683.666	1	2
683.835	1	5
684.004	1	0
684.174	1	8
684.343	1	4
684.512	1	-2
684.682	1	10
684.851	1	7
685.021	1	4
685.190	1	11
685.359	1	-5
685.529	1	0
685.698	1	9
685.867	1	3
686.037	1	-3
686.206	1	8
686.375	1	6
686.545	1	14
686.714	1	4
686.883	1	4
687.053	1	-1
687.222	1	-4
687.391	1	-1
687.561	1	7
687.730	1	0
687.899	1	1
688.069	1	-3
688.238	1	-2
688.407	1	11
688.577	1	-8
688.746	1	7
