340.368	1	1
340.539	1	-6
340.710	1	1
340.881	1	7
341.052	1	4
341.223	1	8
341.394	1	-4
341.565	1	-8
341.737	1	17
341.908	1	4
342.079	1	-9
342.250	1	-3
342.421	1	-7
342.592	1	-5
342.763	1	-6
342.934	1	4
343.105	1	14
343.276	1	-5
343.447	1	10
343.618	1	-2
343.789	1	-3
343.960	1	-10
344.131	1	-4
344.302	1	-1
344.473	1	-3
344.644	1	2
344.815	1	8
344.986	1	7
345.157	1	5
345.328	1	-4
345.499	1	5
345.670	1	4
345.841	1	-2
346.012	1	10
346.183	1	11
346.354	1	0
346.526	1	10
346.697	1	1
346.868	1	2
347.039	1	-3
347.210	1	-7
347.381	1	0
347.552	1	10
347.723	1	4
347.894	1	14
348.065	1	-3
348.236	1	9
348.407	1	0
348.578	1	-3
348.749	1	5
348.920	1	-5
349.091	1	-9
349.262	1	-3
349.433	1	1
349.604	1	12
349.775	1	6
349.946	1	18
350.117	1	12
350.288	1	2
350.459	1	4
350.630	1	-13
350.801	1	2
350.972	1	-1
351.143	1	-6
351.314	1	-5
351.485	1	-6
351.656	1	-2
351.827	1	0
351.998	1	-7
352.169	1	14
352.340	1	-4
352.511	1	-6
352.682	1	-7
352.853	1	-11
353.024	1	-3
353.195	1	-7
353.366	1	3
353.537	1	9
353.708	1	9
353.879	1	12
354.050	1	6
354.221	1	-9
354.392	1	0
354.563	1	3
354.734	1	0
354.905	1	2
355.076	1	-1
355.247	1	-7
355.418	1	-7
355.589	1	3
355.760	1	10
355.931	1	5
356.102	1	-2
356.273	1	-2
356.444	1	6
356.615	1	3
356.785	1	9
356.956	1	-4
357.127	1	3
357.298	1	-5
357.469	1	3
357.640	1	15
357.811	1	10
357.982	1	-8
358.153	1	2
358.324	1	-6
358.495	1	1
358.666	1	-8
358.837	1	3
359.008	1	-2
359.179	1	-2
359.350	1	0
359.521	1	-1
359.692	1	1
359.863	1	-5
360.034	1	-7
360.205	1	-10
360.376	1	0
360.547	1	-7
360.718	1	-3
360.889	1	-1
361.060	1	8
361.231	1	1
361.401	1	12
361.572	1	0
361.743	1	0
361.914	1	-3
362.085	1	7
362.256	1	1
362.427	1	-2
362.598	1	-1
362.769	1	4
362.940	1	3
363.111	1	8
363.282	1	-2
363.453	1	6
363.624	1	7
363.795	1	1
363.966	1	1
364.137	1	1
364.308	1	-4
364.478	1	-5
364.649	1	-2
364.820	1	4
364.991	1	7
365.162	1	-9
365.333	1	6
365.504	1	3
365.675	1	2
365.846	1	-10
366.017	1	12
366.188	1	-4
366.359	1	3
366.530	1	-1
366.701	1	-5
366.871	1	8
367.042	1	3
367.213	1	5
367.384	1	7
367.555	1	-1
367.726	1	16
367.897	1	1
368.068	1	4
368.239	1	8
368.410	1	3
368.581	1	0
368.752	1	-2
368.923	1	-9
369.093	1	-7
369.264	1	-1
369.435	1	-1
369.606	1	4
369.777	1	-6
369.948	1	10
370.119	1	5
370.290	1	0
370.461	1	-2
370.632	1	2
370.803	1	-2
370.973	1	9
371.144	1	7
371.315	1	-2
371.486	1	11
371.657	1	13
371.828	1	4
371.999	1	4
372.170	1	5
372.341	1	5
372.512	1	1
372.682	1	-2
372.853	1	-5
373.024	1	-1
373.195	1	2
373.366	1	-5
373.537	1	-2
373.708	1	3
373.879	1	7
374.050	1	5
374.220	1	-1
374.391	1	-5
374.562	1	-1
374.733	1	10
374.904	1	3
375.075	1	4
375.246	1	-2
375.417	1	2
375.588	1	-4
375.758	1	2
375.929	1	-2
376.100	1	8
376.271	1	-5
376.442	1	-6
376.613	1	0
376.784	1	8
376.955	1	-5
377.125	1	0
377.296	1	3
377.467	1	-8
377.638	1	-4
377.809	1	7
377.980	1	10
378.151	1	0
378.321	1	-5
378.492	1	4
378.663	1	-8
378.834	1	3
379.005	1	9
379.176	1	-4
379.347	1	1
379.518	1	-5
379.688	1	-6
379.859	1	1
380.030	1	-2
380.201	1	-4
380.372	1	5
380.543	1	1
380.714	1	5
380.884	1	-10
381.055	1	-7
381.226	1	2
381.397	1	1
381.568	1	-4
381.739	1	13
381.910	1	5
382.080	1	-16
382.251	1	8
382.422	1	11
382.593	1	-4
382.764	1	7
382.935	1	-3
383.105	1	7
383.276	1	-1
383.447	1	15
383.618	1	4
383.789	1	8
383.960	1	-1
384.130	1	-10
384.301	1	-2
384.472	1	-10
384.643	1	-1
384.814	1	2
384.985	1	-5
385.156	1	8
385.326	1	2
385.497	1	12
385.668	1	-2
385.839	1	7
386.010	1	11
386.180	1	1
386.351	1	0
386.522	1	12
386.693	1	-5
386.864	1	0
387.035	1	-9
387.205	1	-1
387.376	1	11
387.547	1	2
387.718	1	11
387.889	1	11
388.060	1	3
388.230	1	5
388.401	1	15
388.572	1	-5
388.743	1	3
388.914	1	7
389.084	1	10
389.255	1	6
389.426	1	0
389.597	1	-5
389.768	1	4
389.939	1	-3
390.109	1	-1
390.280	1	13
390.451	1	10
390.622	1	-1
390.793	1	1
390.963	1	4
391.134	1	6
391.305	1	7
391.476	1	11
391.647	1	9
391.817	1	-4
391.988	1	-11
392.159	1	4
392.330	1	2
392.501	1	9
392.671	1	4
392.842	1	9
393.013	1	12
393.184	1	3
393.355	1	19
393.525	1	4
393.696	1	-4
393.867	1	7
394.038	1	-9
394.208	1	10
394.379	1	-5
394.550	1	8
394.721	1	7
394.892	1	16
395.062	1	-11
395.233	1	8
395.404	1	3
395.575	1	-3
395.746	1	-5
395.916	1	0
396.087	1	2
396.258	1	-1
396.429	1	7
396.599	1	4
396.770	1	6
396.941	1	15
397.112	1	-1
397.283	1	0
397.453	1	-2
397.624	1	9
397.795	1	5
397.966	1	5
398.136	1	10
398.307	1	1
398.478	1	0
398.649	1	1
398.819	1	10
398.990	1	11
399.161	1	3
399.332	1	15
399.503	1	-4
399.673	1	6
399.844	1	2
400.015	1	6
400.186	1	10
400.356	1	-3
400.527	1	6
400.698	1	-5
400.869	1	0
401.039	1	-5
401.210	1	5
401.381	1	10
401.552	1	12
401.722	1	4
401.893	1	13
402.064	1	1
402.235	1	8
402.405	1	1
402.576	1	13
402.747	1	2
402.918	1	-9
403.088	1	-7
403.259	1	-7
403.430	1	1
403.601	1	-8
403.771	1	11
403.942	1	8
404.113	1	14
404.284	1	1
404.454	1	6
404.625	1	0
404.796	1	11
404.967	1	9
405.137	1	4
405.308	1	3
405.479	1	3
405.649	1	-9
405.820	1	3
405.991	1	12
406.162	1	-1
406.332	1	-9
406.503	1	-5
406.674	1	2
406.845	1	3
407.015	1	-12
407.186	1	3
407.357	1	-4
407.527	1	5
407.698	1	-7
407.869	1	-3
408.040	1	-2
408.210	1	-3
408.381	1	3
408.552	1	3
408.722	1	-7
408.893	1	-3
409.064	1	-5
409.235	1	-2
409.405	1	-3
409.576	1	2
409.747	1	-5
409.917	1	6
410.088	1	4
410.259	1	-2
410.430	1	4
410.600	1	-1
410.771	1	5
410.942	1	2
411.112	1	1
411.283	1	-1
411.454	1	4
411.625	1	3
411.795	1	5
411.966	1	6
412.137	1	9
412.307	1	9
412.478	1	-6
412.649	1	1
412.819	1	-6
412.990	1	-3
413.161	1	-7
413.332	1	0
413.502	1	0
413.673	1	0
413.844	1	-2
414.014	1	1
414.185	1	4
414.356	1	-18
414.526	1	9
414.697	1	11
414.868	1	11
415.038	1	-1
415.209	1	5
415.380	1	-3
415.550	1	-10
415.721	1	4
415.892	1	-6
416.063	1	8
416.233	1	7
416.404	1	8
416.575	1	1
416.745	1	2
416.916	1	-3
417.087	1	-1
417.257	1	4
417.428	1	-11
417.599	1	-1
417.769	1	-2
417.940	1	-2
418.111	1	-2
418.281	1	5
418.452	1	6
418.623	1	0
418.793	1	9
418.964	1	-4
419.135	1	12
419.305	1	0
419.476	1	5
419.647	1	10
419.817	1	4
419.988	1	-9
420.159	1	-11
420.329	1	9
420.500	1	6
420.671	1	0
420.841	1	0
421.012	1	6
421.183	1	-5
421.353	1	5
421.524	1	-2
421.695	1	-3
421.865	1	-6
422.036	1	-1
422.206	1	2
422.377	1	10
422.548	1	2
422.718	1	-5
422.889	1	4
423.060	1	-7
423.230	1	9
423.401	1	0
423.572	1	1
423.742	1	-1
423.913	1	3
424.084	1	2
424.254	1	-5
424.425	1	-4
424.595	1	-7
424.766	1	3
424.937	1	-7
425.107	1	4
425.278	1	-12
425.449	1	6
425.619	1	0
425.790	1	6
425.961	1	2
426.131	1	5
426.302	1	1
426.472	1	4
426.643	1	2
426.814	1	5
426.984	1	9
427.155	1	3
427.326	1	0
427.496	1	7
427.667	1	9
427.837	1	-11
428.008	1	-2
428.179	1	0
428.349	1	-3
428.520	1	-9
428.691	1	-2
428.861	1	1
429.032	1	1
429.202	1	9
429.373	1	-4
429.544	1	3
429.714	1	9
429.885	1	-2
430.055	1	-7
430.226	1	-9
430.397	1	0
430.567	1	6
430.738	1	2
430.909	1	-1
431.079	1	1
431.250	1	-5
431.420	1	3
431.591	1	8
431.762	1	-6
431.932	1	10
432.103	1	5
432.273	1	-2
432.444	1	-2
432.615	1	2
432.785	1	0
432.956	1	0
433.126	1	1
433.297	1	7
433.468	1	9
433.638	1	-9
433.809	1	5
433.979	1	-3
434.150	1	0
434.320	1	6
434.491	1	6
434.662	1	-11
434.832	1	0
435.003	1	5
435.173	1	-2
435.344	1	4
435.515	1	-8
435.685	1	4
435.856	1	-2
436.026	1	9
436.197	1	0
436.368	1	0
436.538	1	-5
436.709	1	-11
436.879	1	3
437.050	1	14
437.220	1	10
437.391	1	2
437.562	1	10
437.732	1	1
437.903	1	6
438.073	1	10
438.244	1	-8
438.414	1	-2
438.585	1	9
438.756	1	3
438.926	1	2
439.097	1	0
439.267	1	3
439.438	1	15
439.608	1	-1
439.779	1	-3
439.949	1	-4
440.120	1	4
440.291	1	-15
440.461	1	-11
440.632	1	4
440.802	1	8
440.973	1	4
441.143	1	3
441.314	1	2
441.485	1	-9
441.655	1	10
441.826	1	-19
441.996	1	2
442.167	1	-4
442.337	1	-6
442.508	1	10
442.678	1	1
442.849	1	-3
443.019	1	-2
443.190	1	-9
443.361	1	-3
443.531	1	-7
443.702	1	3
443.872	1	3
444.043	1	-1
444.213	1	1
444.384	1	8
444.554	1	3
444.725	1	7
444.895	1	0
445.066	1	-4
445.237	1	-3
445.407	1	-5
445.578	1	2
445.748	1	4
445.919	1	-5
446.089	1	16
446.260	1	1
446.430	1	-3
446.601	1	0
446.771	1	-8
446.942	1	-2
447.112	1	-3
447.283	1	-2
447.453	1	-4
447.624	1	3
447.794	1	-8
447.965	1	-6
448.135	1	6
448.306	1	-4
448.477	1	-6
448.647	1	13
448.818	1	12
448.988	1	-17
449.159	1	-9
449.329	1	1
449.500	1	10
449.670	1	6
449.841	1	-2
450.011	1	4
450.182	1	-5
450.352	1	10
450.523	1	-1
450.693	1	7
450.864	1	-6
451.034	1	-2
451.205	1	-3
451.375	1	6
451.546	1	3
451.716	1	11
451.887	1	-3
452.057	1	7
452.228	1	-10
452.398	1	-5
452.569	1	1
452.739	1	1
452.910	1	-2
453.080	1	14
453.251	1	4
453.421	1	-1
453.592	1	3
453.762	1	1
453.933	1	2
454.103	1	4
454.274	1	-6
454.444	1	6
454.615	1	11
454.785	1	-6
454.956	1	-8
455.126	1	4
455.297	1	2
455.467	1	0
455.638	1	4
455.808	1	-3
455.979	1	4
456.149	1	5
456.320	1	-2
456.490	1	-3
456.661	1	-5
456.831	1	6
457.001	1	0
457.172	1	1
457.342	1	6
457.513	1	8
457.683	1	3
457.854	1	5
458.024	1	6
458.195	1	-1
458.365	1	-4
458.536	1	1
458.706	1	3
458.877	1	-1
459.047	1	-7
459.218	1	11
459.388	1	-3
459.559	1	-1
459.729	1	2
459.899	1	9
460.070	1	8
460.240	1	0
460.411	1	10
460.581	1	10
460.752	1	-4
460.922	1	-3
461.093	1	4
461.263	1	10
461.434	1	12
461.604	1	0
461.775	1	9
461.945	1	9
462.115	1	-5
462.286	1	8
462.456	1	-4
462.627	1	2
462.797	1	-2
462.968	1	-10
463.138	1	15
463.309	1	-3
463.479	1	3
463.649	1	-3
463.820	1	-8
463.990	1	-2
464.161	1	-1
464.331	1	6
464.502	1	10
464.672	1	0
464.843	1	-6
465.013	1	-7
465.183	1	-2
465.354	1	5
465.524	1	3
465.695	1	6
465.865	1	7
466.036	1	8
466.206	1	3
466.376	1	3
466.547	1	9
466.717	1	-3
466.888	1	-4
467.058	1	17
467.229	1	5
467.399	1	3
467.569	1	0
467.740	1	4
467.910	1	-7
468.081	1	4
468.251	1	4
468.422	1	-3
468.592	1	7
468.762	1	-13
468.933	1	7
469.103	1	-15
469.274	1	-3
469.444	1	2
469.614	1	-6
469.785	1	4
469.955	1	9
470.126	1	0
470.296	1	-5
470.467	1	-2
470.637	1	10
470.807	1	4
470.978	1	4
471.148	1	-1
471.319	1	7
471.489	1	-5
471.659	1	12
471.830	1	13
472.000	1	-4
472.171	1	2
472.341	1	-2
472.511	1	12
472.682	1	1
472.852	1	0
473.023	1	-14
473.193	1	-6
473.363	1	1
473.534	1	-2
473.704	1	8
473.875	1	7
474.045	1	-9
474.215	1	-1
474.386	1	7
474.556	1	-10
474.727	1	5
474.897	1	0
475.067	1	4
475.238	1	-5
475.408	1	-9
475.578	1	5
475.749	1	-15
475.919	1	3
476.090	1	3
476.260	1	1
476.430	1	1
476.601	1	3
476.771	1	1
476.942	1	-8
477.112	1	-3
477.282	1	-14
477.453	1	-2
477.623	1	1
477.793	1	8
477.964	1	6
478.134	1	3
478.305	1	5
478.475	1	1
478.645	1	-6
478.816	1	-3
478.986	1	6
479.156	1	4
479.327	1	-9
479.497	1	-1
479.667	1	0
479.838	1	0
480.008	1	3
480.179	1	-2
480.349	1	-4
480.519	1	-6
480.690	1	-3
480.860	1	-2
481.030	1	2
481.201	1	0
481.371	1	-2
481.541	1	10
481.712	1	5
481.882	1	-5
482.053	1	2
482.223	1	-10
482.393	1	-11
482.564	1	-10
482.734	1	9
482.904	1	3
483.075	1	13
483.245	1	2
483.415	1	3
483.586	1	-2
483.756	1	5
483.926	1	1
484.097	1	3
484.267	1	-1
484.437	1	-10
484.608	1	10
484.778	1	3
484.948	1	-3
485.119	1	5
485.289	1	11
485.459	1	12
485.630	1	-13
485.800	1	-10
485.970	1	-8
486.141	1	-4
486.311	1	4
486.481	1	-5
486.652	1	5
486.822	1	8
486.992	1	0
487.163	1	-13
487.333	1	-1
487.503	1	-7
487.674	1	-3
487.844	1	4
488.014	1	-1
488.185	1	-7
488.355	1	-3
488.525	1	-10
488.696	1	-12
488.866	1	3
489.036	1	-1
489.207	1	10
489.377	1	-7
489.547	1	-2
489.718	1	-4
489.888	1	1
490.058	1	7
490.228	1	-12
490.399	1	21
490.569	1	1
490.739	1	0
490.910	1	-1
491.080	1	1
491.250	1	5
491.421	1	5
491.591	1	2
491.761	1	3
491.932	1	1
492.102	1	-1
492.272	1	8
492.442	1	11
492.613	1	18
492.783	1	3
492.953	1	9
493.124	1	-1
493.294	1	12
493.464	1	-5
493.635	1	-2
493.805	1	11
493.975	1	-1
494.145	1	5
494.316	1	8
494.486	1	3
494.656	1	4
494.827	1	-2
494.997	1	3
495.167	1	2
495.337	1	4
495.508	1	1
495.678	1	14
495.848	1	6
496.019	1	-4
496.189	1	1
496.359	1	0
496.529	1	-11
496.700	1	5
496.870	1	-3
497.040	1	0
497.211	1	9
497.381	1	-17
497.551	1	6
497.721	1	-3
497.892	1	13
498.062	1	5
498.232	1	-1
498.403	1	-1
498.573	1	-2
498.743	1	1
498.913	1	5
499.084	1	-4
499.254	1	1
499.424	1	16
499.594	1	0
499.765	1	6
499.935	1	-8
500.105	1	-1
500.275	1	8
500.446	1	6
500.616	1	4
500.786	1	7
500.956	1	-8
501.127	1	18
501.297	1	6
501.467	1	0
501.638	1	6
501.808	1	-5
501.978	1	1
502.148	1	4
502.319	1	6
502.489	1	2
502.659	1	2
502.829	1	-7
503.000	1	0
503.170	1	-2
503.340	1	-8
503.510	1	-8
503.681	1	-1
503.851	1	-9
504.021	1	18
504.191	1	2
504.362	1	6
504.532	1	-5
504.702	1	1
504.872	1	4
505.042	1	8
505.213	1	-12
505.383	1	1
505.553	1	3
505.723	1	5
505.894	1	11
506.064	1	3
506.234	1	5
506.404	1	-1
506.575	1	-9
506.745	1	1
506.915	1	-1
507.085	1	-4
507.256	1	5
507.426	1	2
507.596	1	0
507.766	1	0
507.936	1	6
508.107	1	-2
508.277	1	-7
508.447	1	-3
508.617	1	8
508.788	1	3
508.958	1	10
509.128	1	7
509.298	1	21
509.468	1	13
509.639	1	6
509.809	1	8
509.979	1	-3
510.149	1	-13
510.319	1	-1
510.490	1	2
510.660	1	-3
510.830	1	6
511.000	1	1
511.171	1	14
511.341	1	-2
511.511	1	-8
511.681	1	6
511.851	1	2
512.022	1	-6
512.192	1	5
512.362	1	-8
512.532	1	-9
512.702	1	-11
512.873	1	12
513.043	1	1
513.213	1	-6
513.383	1	-5
513.553	1	-13
513.724	1	11
513.894	1	-2
514.064	1	3
514.234	1	0
514.404	1	-7
514.575	1	7
514.745	1	-4
514.915	1	8
515.085	1	5
515.255	1	-2
515.425	1	-1
515.596	1	-7
515.766	1	4
515.936	1	3
516.106	1	-5
516.276	1	7
516.447	1	8
516.617	1	-6
516.787	1	-7
516.957	1	4
517.127	1	-1
517.297	1	3
517.468	1	5
517.638	1	5
517.808	1	4
517.978	1	-4
518.148	1	-1
518.319	1	-4
518.489	1	7
518.659	1	-9
518.829	1	-11
518.999	1	5
519.169	1	13
519.340	1	-4
519.510	1	0
519.680	1	-8
519.850	1	0
520.020	1	-3
520.190	1	-6
520.361	1	0
520.531	1	3
520.701	1	7
520.871	1	-11
521.041	1	-6
521.211	1	4
521.382	1	7
521.552	1	-6
521.722	1	8
521.892	1	-11
522.062	1	3
522.232	1	-10
522.402	1	-15
522.573	1	7
522.743	1	2
522.913	1	2
523.083	1	7
523.253	1	3
523.423	1	-7
523.593	1	-2
523.764	1	11
523.934	1	0
524.104	1	7
524.274	1	0
524.444	1	5
524.614	1	-4
524.784	1	2
524.955	1	4
525.125	1	-4
525.295	1	-9
525.465	1	1
525.635	1	21
525.805	1	3
525.975	1	-3
526.146	1	-4
526.316	1	-6
526.486	1	3
526.656	1	15
526.826	1	5
526.996	1	17
527.166	1	-3
527.337	1	1
527.507	1	-11
527.677	1	17
527.847	1	-5
528.017	1	-10
528.187	1	6
528.357	1	10
528.527	1	2
528.698	1	-2
528.868	1	3
529.038	1	11
529.208	1	-5
529.378	1	6
529.548	1	8
529.718	1	1
529.888	1	1
530.058	1	2
530.229	1	3
530.399	1	0
530.569	1	12
530.739	1	-1
530.909	1	11
531.079	1	7
531.249	1	-4
531.419	1	10
531.589	1	-3
531.760	1	1
531.930	1	4
532.100	1	8
532.270	1	4
532.440	1	3
532.610	1	5
532.780	1	-5
532.950	1	6
533.120	1	-1
533.290	1	-2
533.461	1	22
533.631	1	1
533.801	1	1
533.971	1	3
534.141	1	7
534.311	1	-1
534.481	1	0
534.651	1	9
534.821	1	3
534.991	1	-9
535.162	1	1
535.332	1	1
535.502	1	7
535.672	1	-13
535.842	1	7
536.012	1	5
536.182	1	2
536.352	1	-3
536.522	1	2
536.692	1	-1
536.862	1	-4
537.032	1	7
537.203	1	2
537.373	1	-2
537.543	1	2
537.713	1	14
537.883	1	5
538.053	1	1
538.223	1	3
538.393	1	4
538.563	1	7
538.733	1	-5
538.903	1	-6
539.073	1	4
539.243	1	3
539.413	1	0
539.584	1	5
539.754	1	2
539.924	1	6
540.094	1	-1
540.264	1	4
540.434	1	-1
540.604	1	9
540.774	1	-2
540.944	1	1
541.114	1	-12
541.284	1	-4
541.454	1	4
541.624	1	2
541.794	1	-5
541.964	1	3
542.134	1	14
542.305	1	-13
542.475	1	5
542.645	1	-3
542.815	1	1
542.985	1	1
543.155	1	-1
543.325	1	-11
543.495	1	-6
543.665	1	7
543.835	1	1
544.005	1	2
544.175	1	-7
544.345	1	-6
544.515	1	1
544.685	1	2
544.855	1	6
545.025	1	-4
545.195	1	-1
545.365	1	7
545.535	1	0
545.705	1	4
545.875	1	-2
546.045	1	1
546.216	1	0
546.386	1	3
546.556	1	-14
546.726	1	-3
546.896	1	6
547.066	1	-4
547.236	1	-6
547.406	1	8
547.576	1	4
547.746	1	0
547.916	1	4
548.086	1	10
548.256	1	5
548.426	1	-7
548.596	1	4
548.766	1	-3
548.936	1	-5
549.106	1	6
549.276	1	10
549.446	1	0
549.616	1	3
549.786	1	-5
549.956	1	10
550.126	1	-4
550.296	1	1
550.466	1	0
550.636	1	4
550.806	1	1
550.976	1	-4
551.146	1	4
551.316	1	-6
551.486	1	0
551.656	1	-2
551.826	1	4
551.996	1	1
552.166	1	3
552.336	1	-1
552.506	1	-1
552.676	1	-10
552.846	1	7
553.016	1	0
553.186	1	-6
553.356	1	-2
553.526	1	0
553.696	1	13
553.866	1	15
554.036	1	4
554.206	1	-4
554.376	1	-9
554.546	1	-12
554.716	1	-1
554.886	1	-3
555.056	1	-12
555.226	1	-4
555.396	1	2
555.566	1	1
555.736	1	-1
555.906	1	6
556.076	1	2
556.246	1	3
556.416	1	1
556.586	1	4
556.756	1	11
556.926	1	4
557.096	1	-5
557.266	1	13
557.436	1	17
557.606	1	-3
557.776	1	11
557.946	1	13
558.116	1	6
558.286	1	3
558.456	1	-4
558.626	1	10
558.796	1	-9
558.966	1	4
559.136	1	-1
559.306	1	-4
559.476	1	-5
559.646	1	-12
559.816	1	3
559.986	1	-3
560.155	1	1
560.325	1	-17
560.495	1	5
560.665	1	8
560.835	1	-7
561.005	1	9
561.175	1	-3
561.345	1	-10
561.515	1	-7
561.685	1	1
561.855	1	12
562.025	1	-7
562.195	1	-2
562.365	1	-2
562.535	1	6
562.705	1	6
562.875	1	0
563.045	1	3
563.215	1	-7
563.385	1	5
563.555	1	5
563.725	1	-2
563.895	1	-3
564.064	1	6
564.234	1	-1
564.404	1	-8
564.574	1	-1
564.744	1	-2
564.914	1	-12
565.084	1	-10
565.254	1	1
565.424	1	-5
565.594	1	-3
565.764	1	8
565.934	1	2
566.104	1	4
566.274	1	9
566.444	1	7
566.614	1	5
566.783	1	2
566.953	1	-2
567.123	1	14
567.293	1	-11
567.463	1	-6
567.633	1	0
567.803	1	-1
567.973	1	-4
568.143	1	-7
568.313	1	-5
568.483	1	-11
568.653	1	-5
568.823	1	4
568.993	1	-5
569.162	1	7
569.332	1	-9
569.502	1	6
569.672	1	9
569.842	1	-3
570.012	1	4
570.182	1	-7
570.352	1	10
570.522	1	3
570.692	1	-1
570.862	1	4
571.031	1	-6
571.201	1	11
571.371	1	-2
571.541	1	-2
571.711	1	0
571.881	1	-3
572.051	1	-3
572.221	1	2
572.391	1	-1
572.561	1	-7
572.731	1	1
572.900	1	10
573.070	1	9
573.240	1	2
573.410	1	-2
573.580	1	2
573.750	1	7
573.920	1	-4
574.090	1	2
574.260	1	4
574.430	1	-9
574.599	1	-9
574.769	1	-3
574.939	1	6
575.109	1	-3
575.279	1	5
575.449	1	-3
575.619	1	4
575.789	1	5
575.959	1	-16
576.128	1	2
576.298	1	-7
576.468	1	4
576.638	1	-3
576.808	1	-10
576.978	1	0
577.148	1	1
577.318	1	1
577.487	1	2
577.657	1	-14
577.827	1	10
577.997	1	-4
578.167	1	-2
578.337	1	-2
578.507	1	0
578.677	1	-3
578.846	1	-10
579.016	1	11
579.186	1	2
579.356	1	1
579.526	1	-6
579.696	1	3
579.866	1	10
580.036	1	-2
580.205	1	4
580.375	1	-3
580.545	1	4
580.715	1	6
580.885	1	0
581.055	1	7
581.225	1	-7
581.394	1	-8
581.564	1	1
581.734	1	2
581.904	1	2
582.074	1	-6
582.244	1	1
582.414	1	9
582.583	1	-10
582.753	1	1
582.923	1	5
583.093	1	-4
583.263	1	5
583.433	1	-2
583.603	1	6
583.772	1	2
583.942	1	11
584.112	1	-5
584.282	1	12
584.452	1	0
584.622	1	0
584.791	1	0
584.961	1	-3
585.131	1	-3
585.301	1	0
585.471	1	-1
585.641	1	11
585.811	1	-4
585.980	1	-16
586.150	1	3
586.320	1	-14
586.490	1	3
586.660	1	0
586.830	1	-7
586.999	1	2
587.169	1	2
587.339	1	-3
587.509	1	5
587.679	1	-3
587.849	1	10
588.018	1	8
588.188	1	-2
588.358	1	-1
588.528	1	5
588.698	1	-6
588.867	1	10
589.037	1	0
589.207	1	-10
589.377	1	11
589.547	1	-1
589.717	1	4
589.886	1	-6
590.056	1	1
590.226	1	5
590.396	1	1
590.566	1	2
590.735	1	19
590.905	1	-6
591.075	1	-7
591.245	1	-1
591.415	1	-9
591.585	1	0
591.754	1	4
591.924	1	-5
592.094	1	7
592.264	1	2
592.434	1	-6
592.603	1	5
592.773	1	-3
592.943	1	-11
593.113	1	-16
593.283	1	7
593.452	1	-11
593.622	1	-8
593.792	1	-1
593.962	1	11
594.132	1	2
594.301	1	8
594.471	1	5
594.641	1	-2
594.811	1	-7
594.981	1	-5
595.150	1	-5
595.320	1	4
595.490	1	-9
595.660	1	-5
595.829	1	-1
595.999	1	4
596.169	1	0
596.339	1	9
596.509	1	11
596.678	1	0
596.848	1	7
597.018	1	-2
597.188	1	5
597.358	1	15
597.527	1	0
597.697	1	-12
597.867	1	-1
598.037	1	7
598.206	1	-10
598.376	1	5
598.546	1	-4
598.716	1	-11
598.885	1	-9
599.055	1	-1
599.225	1	2
599.395	1	2
599.565	1	-1
599.734	1	1
599.904	1	-5
600.074	1	-6
600.244	1	7
600.413	1	4
600.583	1	-9
600.753	1	7
600.923	1	12
601.092	1	-13
601.262	1	7
601.432	1	-2
601.602	1	1
601.771	1	9
601.941	1	-1
602.111	1	1
602.281	1	-5
602.451	1	-6
602.620	1	4
602.790	1	8
602.960	1	-6
603.130	1	3
603.299	1	2
603.469	1	-1
603.639	1	3
603.809	1	12
603.978	1	-6
604.148	1	4
604.318	1	2
604.487	1	1
604.657	1	7
604.827	1	-15
604.997	1	-10
605.166	1	4
605.336	1	-7
605.506	1	-1
605.676	1	-11
605.845	1	2
606.015	1	-1
606.185	1	-7
606.355	1	9
606.524	1	-6
606.694	1	14
606.864	1	-7
607.034	1	-14
607.203	1	15
607.373	1	-5
607.543	1	-4
607.712	1	5
607.882	1	-10
608.052	1	3
608.222	1	0
608.391	1	-4
608.561	1	0
608.731	1	-7
608.901	1	9
609.070	1	6
609.240	1	-3
609.410	1	-3
609.579	1	6
609.749	1	4
609.919	1	-11
610.089	1	-4
610.258	1	10
610.428	1	-7
610.598	1	3
610.767	1	2
610.937	1	4
611.107	1	10
611.277	1	11
611.446	1	4
611.616	1	0
611.786	1	6
611.955	1	3
612.125	1	5
612.295	1	1
612.465	1	-7
612.634	1	0
612.804	1	1
612.974	1	9
613.143	1	2
613.313	1	-2
613.483	1	1
613.652	1	0
613.822	1	-2
613.992	1	1
614.162	1	1
614.331	1	-10
614.501	1	1
614.671	1	-2
614.840	1	5
615.010	1	1
615.180	1	0
615.349	1	6
615.519	1	1
615.689	1	5
615.858	1	5
616.028	1	-1
616.198	1	3
616.368	1	-8
616.537	1	-7
616.707	1	-1
616.877	1	-3
617.046	1	8
617.216	1	5
617.386	1	1
617.555	1	-2
617.725	1	12
617.895	1	-11
618.064	1	9
618.234	1	-2
618.404	1	15
618.573	1	3
618.743	1	2
618.913	1	-3
619.082	1	-4
619.252	1	-1
619.422	1	4
619.591	1	-1
619.761	1	-3
619.931	1	-1
620.100	1	3
620.270	1	4
620.440	1	-6
620.609	1	1
620.779	1	-5
620.949	1	-6
621.118	1	-4
621.288	1	2
621.458	1	1
621.627	1	-5
621.797	1	5
621.967	1	-7
622.136	1	13
622.306	1	8
622.476	1	3
622.645	1	2
622.815	1	-7
622.985	1	0
623.154	1	7
623.324	1	11
623.494	1	6
623.663	1	0
623.833	1	7
624.002	1	-3
624.172	1	13
624.342	1	-11
624.511	1	-3
624.681	1	-5
624.851	1	-14
625.020	1	8
625.190	1	-5
625.360	1	-6
625.529	1	-2
625.699	1	0
625.869	1	4
626.038	1	-3
626.208	1	-4
626.377	1	8
626.547	1	1
626.717	1	-14
626.886	1	1
627.056	1	-5
627.226	1	0
627.395	1	12
627.565	1	15
627.735	1	9
627.904	1	1
628.074	1	9
628.243	1	-2
628.413	1	1
628.583	1	-1
628.752	1	8
628.922	1	0
629.091	1	3
629.261	1	2
629.431	1	-7
629.600	1	5
629.770	1	-1
629.940	1	-1
630.109	1	1
630.279	1	-6
630.448	1	-4
630.618	1	3
630.788	1	0
630.957	1	2
631.127	1	9
631.297	1	-3
631.466	1	-1
631.636	1	-5
631.805	1	2
631.975	1	5
632.145	1	-15
632.314	1	7
632.484	1	1
632.653	1	-9
632.823	1	12
632.993	1	6
633.162	1	-4
633.332	1	4
633.501	1	-4
633.671	1	-1
633.841	1	-3
634.010	1	-2
634.180	1	-5
634.349	1	3
634.519	1	-8
634.689	1	0
634.858	1	6
635.028	1	8
635.197	1	-5
635.367	1	-6
635.537	1	3
635.706	1	-6
635.876	1	-11
636.045	1	-3
636.215	1	8
636.384	1	0
636.554	1	6
636.724	1	-4
636.893	1	-1
637.063	1	1
637.232	1	-4
637.402	1	10
637.572	1	0
637.741	1	9
637.911	1	-4
638.080	1	8
638.250	1	3
638.419	1	1
638.589	1	18
638.759	1	4
638.928	1	-5
639.098	1	-9
639.267	1	0
639.437	1	-1
639.606	1	9
639.776	1	1
639.946	1	2
640.115	1	0
640.285	1	9
640.454	1	5
640.624	1	3
640.793	1	-3
640.963	1	-9
641.132	1	8
641.302	1	-5
641.472	1	-4
641.641	1	-5
641.811	1	-4
641.980	1	12
642.150	1	-1
642.319	1	1
642.489	1	-5
642.659	1	-11
642.828	1	-5
642.998	1	-8
643.167	1	5
643.337	1	4
643.506	1	-6
643.676	1	3
643.845	1	-1
644.015	1	-3
644.184	1	12
644.354	1	2
644.524	1	-7
644.693	1	1
644.863	1	-11
645.032	1	0
645.202	1	-2
645.371	1	2
645.541	1	-12
645.710	1	-7
645.880	1	-1
646.049	1	6
646.219	1	1
646.388	1	-4
646.558	1	-7
646.728	1	1
646.897	1	2
647.067	1	-3
647.236	1	-6
647.406	1	5
647.575	1	-1
647.745	1	-5
647.914	1	-6
648.084	1	-2
648.253	1	-3
648.423	1	1
648.592	1	-7
648.762	1	1
648.931	1	3
649.101	1	5
649.270	1	8
649.440	1	-1
649.610	1	13
649.779	1	-8
649.949	1	-2
650.118	1	-4
650.288	1	-1
650.457	1	-2
650.627	1	1
650.796	1	4
650.966	1	-8
651.135	1	12
651.305	1	-6
651.474	1	-5
651.644	1	-3
651.813	1	4
651.983	1	-2
652.152	1	-6
652.322	1	10
652.491	1	-1
652.661	1	-5
652.830	1	10
653.000	1	4
653.169	1	6
653.339	1	2
653.508	1	-4
653.678	1	-1
653.847	1	0
654.017	1	0
654.186	1	-9
654.356	1	3
654.525	1	-1
654.695	1	0
654.864	1	7
655.034	1	-2
655.203	1	-1
655.373	1	2
655.542	1	0
655.712	1	-8
655.881	1	10
656.051	1	7
656.220	1	4
656.390	1	-7
656.559	1	-1
656.729	1	6
656.898	1	-1
657.068	1	-7
657.237	1	3
657.406	1	-6
657.576	1	-2
657.745	1	-8
657.915	1	15
658.084	1	9
658.254	1	7
658.423	1	-8
658.593	1	0
658.762	1	-3
658.932	1	-5
659.101	1	0
659.271	1	3
659.440	1	3
659.610	1	3
659.779	1	-3
659.949	1	-4
660.118	1	9
660.288	1	-2
660.457	1	-1
660.626	1	-3
660.796	1	-10
660.965	1	2
661.135	1	-5
661.304	1	2
661.474	1	8
661.643	1	0
661.813	1	0
661.982	1	3
662.152	1	0
662.321	1	-1
662.491	1	11
662.660	1	1
662.829	1	-4
662.999	1	-4
663.168	1	-7
663.338	1	-7
663.507	1	2
663.677	1	-10
663.846	1	9
664.016	1	-3
664.185	1	-9
664.354	1	8
664.524	1	-10
664.693	1	3
664.863	1	-1
665.032	1	2
665.202	1	-5
665.371	1	4
665.541	1	-8
665.710	1	-2
665.879	1	-4
666.049	1	-4
666.218	1	-5
666.388	1	-10
666.557	1	2
666.727	1	-15
666.896	1	-4
667.065	1	5
667.235	1	-12
667.404	1	-5
667.574	1	5
667.743	1	-4
667.913	1	7
668.082	1	-3
668.251	1	2
668.421	1	-1
668.590	1	3
668.760	1	12
668.929	1	1
669.099	1	-9
669.268	1	6
669.437	1	7
669.607	1	-9
669.776	1	3
669.946	1	10
670.115	1	-2
670.285	1	5
670.454	1	2
670.623	1	5
670.793	1	2
670.962	1	-11
671.132	1	8
671.301	1	-7
671.470	1	-6
671.640	1	-11
671.809	1	-5
671.979	1	14
672.148	1	3
672.317	1	-14
672.487	1	-10
672.656	1	11
672.826	1	-15
672.995	1	6
673.164	1	9
673.334	1	-2
673.503	1	-2
673.673	1	15
673.842	1	-1
674.011	1	5
674.181	1	-4
674.350	1	-4
674.520	1	-8
674.689	1	3
674.858	1	-1
675.028	1	-3
675.197	1	-1
675.367	1	-1
675.536	1	8
675.705	1	1
675.875	1	9
676.044	1	-12
676.214	1	12
676.383	1	4
676.552	1	-3
676.722	1	-1
676.891	1	-17
677.060	1	7
677.230	1	1
677.399	1	-3
677.569	1	-6
677.738	1	-2
677.907	1	-9
678.077	1	-2
678.246	1	-6
678.416	1	-5
678.585	1	4
678.754	1	-4
678.924	1	-1
679.093	1	2
679.262	1	6
679.432	1	-5
679.601	1	-11
679.771	1	1
679.940	1	1
680.109	1	2
680.279	1	-7
680.448	1	4
680.617	1	-8
680.787	1	-3
680.956	1	2
681.125	1	6
681.295	1	-1
681.464	1	-4
681.634	1	18
681.803	1	-9
681.972	1	-4
682.142	1	9
682.311	1	1
682.480	1	3
682.650	1	-11
682.819	1	-6
682.988	1	-1
683.158	1	0
683.327	1	-5
683.496	1	-2
683.666	1	4
683.835	1	-3
684.004	1	0
684.174	1	-4
684.343	1	2
684.512	1	2
684.682	1	2
684.851	1	-3
685.021	1	8
685.190	1	8
685.359	1	-2
685.529	1	-3
685.698	1	0
685.867	1	-5
686.037	1	-7
686.206	1	-1
686.375	1	0
686.545	1	7
686.714	1	-1
686.883	1	-4
687.053	1	0
687.222	1	-7
687.391	1	-4
687.561	1	-3
687.730	1	2
687.899	1	-1
688.069	1	-4
688.238	1	2
688.407	1	9
688.577	1	-3
688.746	1	1
