340.368	1	-1
340.539	1	2
340.710	1	-9
340.881	1	1
341.052	1	1
341.223	1	15
341.394	1	-7
341.565	1	0
341.737	1	10
341.908	1	6
342.079	1	-10
342.250	1	3
342.421	1	1
342.592	1	-3
342.763	1	-5
342.934	1	10
343.105	1	4
343.276	1	1
343.447	1	0
343.618	1	8
343.789	1	-4
343.960	1	0
344.131	1	0
344.302	1	3
344.473	1	-2
344.644	1	-5
344.815	1	2
344.986	1	7
345.157	1	7
345.328	1	2
345.499	1	3
345.670	1	1
345.841	1	4
346.012	1	15
346.183	1	2
346.354	1	-1
346.526	1	2
346.697	1	-5
346.868	1	7
347.039	1	4
347.210	1	-8
347.381	1	2
347.552	1	4
347.723	1	4
347.894	1	4
348.065	1	2
348.236	1	3
348.407	1	-5
348.578	1	13
348.749	1	12
348.920	1	3
349.091	1	7
349.262	1	3
349.433	1	-12
349.604	1	10
349.775	1	8
349.946	1	6
350.117	1	10
350.288	1	-2
350.459	1	7
350.630	1	-4
350.801	1	-7
350.972	1	0
351.143	1	-1
351.314	1	-9
351.485	1	-3
351.656	1	10
351.827	1	2
351.998	1	7
352.169	1	9
352.340	1	4
352.511	1	-4
352.682	1	-3
352.853	1	-3
353.024	1	-7
353.195	1	0
353.366	1	7
353.537	1	-5
353.708	1	0
353.879	1	7
354.050	1	6
354.221	1	-2
354.392	1	9
354.563	1	19
354.734	1	1
354.905	1	9
355.076	1	9
355.247	1	-11
355.418	1	-2
355.589	1	2
355.760	1	0
355.931	1	7
356.102	1	2
356.273	1	1
356.444	1	1
356.615	1	4
356.785	1	19
356.956	1	-3
357.127	1	5
357.298	1	-1
357.469	1	-3
357.640	1	6
357.811	1	10
357.982	1	-13
358.153	1	3
358.324	1	1
358.495	1	6
358.666	1	0
358.837	1	0
359.008	1	0
359.179	1	2
359.350	1	-3
359.521	1	-2
359.692	1	5
359.863	1	-10
360.034	1	-4
360.205	1	5
360.376	1	4
360.547	1	1
360.718	1	-1
360.889	1	6
361.060	1	2
361.231	1	4
361.401	1	8
361.572	1	-7
361.743	1	4
361.914	1	4
362.085	1	-4
362.256	1	9
362.427	1	-12
362.598	1	-1
362.769	1	13
362.940	1	-1
363.111	1	10
363.282	1	3
363.453	1	1
363.624	1	5
363.795	1	10
363.966	1	-9
364.137	1	0
364.308	1	-8
364.478	1	2
364.649	1	5
364.820	1	0
364.991	1	14
365.162	1	-2
365.333	1	12
365.504	1	-3
365.675	1	0
365.846	1	4
366.017	1	5
366.188	1	-3
366.359	1	3
366.530	1	12
366.701	1	9
366.871	1	17
367.042	1	8
367.213	1	-5
367.384	1	9
367.555	1	4
367.726	1	9
367.897	1	9
368.068	1	-2
368.239	1	10
368.410	1	-2
368.581	1	4
368.752	1	-10
368.923	1	-10
369.093	1	5
369.264	1	8
369.435	1	0
369.606	1	6
369.777	1	4
369.948	1	4
370.119	1	7
370.290	1	-1
370.461	1	5
370.632	1	-5
370.803	1	-4
370.973	1	11
371.144	1	4
371.315	1	0
371.486	1	16
371.657	1	0
371.828	1	8
371.999	1	9
372.170	1	9
372.341	1	3
372.512	1	0
372.682	1	4
372.853	1	-4
373.024	1	2
373.195	1	-3
373.366	1	1
373.537	1	-1
373.708	1	-1
373.879	1	16
374.050	1	8
374.220	1	2
374.391	1	5
374.562	1	-1
374.733	1	18
374.904	1	6
375.075	1	8
375.246	1	4
375.417	1	7
375.588	1	0
375.758	1	2
375.929	1	8
376.100	1	6
376.271	1	-5
376.442	1	-6
376.613	1	0
376.784	1	7
376.955	1	-6
377.125	1	5
377.296	1	10
377.467	1	-3
377.638	1	-7
377.809	1	14
377.980	1	1
378.151	1	-4
378.321	1	1
378.492	1	0
378.663	1	-5
378.834	1	9
379.005	1	6
379.176	1	3
379.347	1	6
379.518	1	-19
379.688	1	3
379.859	1	3
380.030	1	-5
380.201	1	-7
380.372	1	3
380.543	1	2
380.714	1	13
380.884	1	2
381.055	1	9
381.226	1	0
381.397	1	2
381.568	1	-3
381.739	1	-1
381.910	1	0
382.080	1	-10
382.251	1	9
382.422	1	12
382.593	1	0
382.764	1	-2
382.935	1	16
383.105	1	5
383.276	1	-8
383.447	1	6
383.618	1	15
383.789	1	8
383.960	1	-2
384.130	1	-2
384.301	1	-6
384.472	1	-8
384.643	1	4
384.814	1	7
384.985	1	5
385.156	1	16
385.326	1	5
385.497	1	17
385.668	1	-3
385.839	1	22
386.010	1	10
386.180	1	5
386.351	1	-4
386.522	1	12
386.693	1	0
386.864	1	7
387.035	1	-3
387.205	1	8
387.376	1	9
387.547	1	-3
387.718	1	10
387.889	1	12
388.060	1	6
388.230	1	-2
388.401	1	7
388.572	1	-1
388.743	1	3
388.914	1	10
389.084	1	6
389.255	1	10
389.426	1	12
389.597	1	4
389.768	1	-3
389.939	1	8
390.109	1	-1
390.280	1	12
390.451	1	12
390.622	1	11
390.793	1	8
390.963	1	6
391.134	1	2
391.305	1	15
391.476	1	5
391.647	1	1
391.817	1	5
391.988	1	-2
392.159	1	1
392.330	1	9
392.501	1	12
392.671	1	9
392.842	1	16
393.013	1	6
393.184	1	16
393.355	1	9
393.525	1	5
393.696	1	1
393.867	1	5
394.038	1	1
394.208	1	15
394.379	1	0
394.550	1	9
394.721	1	6
394.892	1	11
395.062	1	-1
395.233	1	12
395.404	1	4
395.575	1	-8
395.746	1	-1
395.916	1	4
396.087	1	4
396.258	1	-1
396.429	1	7
396.599	1	6
396.770	1	6
396.941	1	7
397.112	1	6
397.283	1	9
397.453	1	-7
397.624	1	0
397.795	1	7
397.966	1	9
398.136	1	5
398.307	1	3
398.478	1	3
398.649	1	14
398.819	1	7
398.990	1	7
399.161	1	11
399.332	1	11
399.503	1	-1
399.673	1	0
399.844	1	7
400.015	1	9
400.186	1	5
400.356	1	5
400.527	1	11
400.698	1	3
400.869	1	12
401.039	1	-3
401.210	1	-11
401.381	1	11
401.552	1	2
401.722	1	8
401.893	1	3
402.064	1	9
402.235	1	13
402.405	1	2
402.576	1	10
402.747	1	-2
402.918	1	-4
403.088	1	-2
403.259	1	-8
403.430	1	5
403.601	1	-2
403.771	1	2
403.942	1	2
404.113	1	9
404.284	1	0
404.454	1	16
404.625	1	3
404.796	1	13
404.967	1	3
405.137	1	15
405.308	1	-11
405.479	1	11
405.649	1	-4
405.820	1	2
405.991	1	9
406.162	1	-3
406.332	1	3
406.503	1	2
406.674	1	6
406.845	1	3
407.015	1	-5
407.186	1	8
407.357	1	1
407.527	1	0
407.698	1	-13
407.869	1	-2
408.040	1	2
408.210	1	2
408.381	1	12
408.552	1	5
408.722	1	-8
408.893	1	4
409.064	1	7
409.235	1	-1
409.405	1	-1
409.576	1	11
409.747	1	-2
409.917	1	4
410.088	1	5
410.259	1	9
410.430	1	12
410.600	1	6
410.771	1	2
410.942	1	7
411.112	1	7
411.283	1	-8
411.454	1	7
411.625	1	8
411.795	1	3
411.966	1	4
412.137	1	11
412.307	1	-3
412.478	1	8
412.649	1	8
412.819	1	1
412.990	1	3
413.161	1	-4
413.332	1	3
413.502	1	-3
413.673	1	2
413.844	1	5
414.014	1	-9
414.185	1	6
414.356	1	-8
414.526	1	1
414.697	1	3
414.868	1	6
415.038	1	2
415.209	1	5
415.380	1	-4
415.550	1	-4
415.721	1	8
415.892	1	2
416.063	1	15
416.233	1	0
416.404	1	12
416.575	1	2
416.745	1	-13
416.916	1	-1
417.087	1	-3
417.257	1	7
417.428	1	1
417.599	1	-6
417.769	1	8
417.940	1	5
418.111	1	2
418.281	1	6
418.452	1	-7
418.623	1	4
418.793	1	3
418.964	1	2
419.135	1	1
419.305	1	-9
419.476	1	10
419.647	1	10
419.817	1	2
419.988	1	4
420.159	1	-1
420.329	1	-9
420.500	1	-4
420.671	1	2
420.841	1	2
421.012	1	15
421.183	1	0
421.353	1	7
421.524	1	1
421.695	1	-1
421.865	1	7
422.036	1	-2
422.206	1	-4
422.377	1	6
422.548	1	4
422.718	1	-3
422.889	1	5
423.060	1	0
423.230	1	7
423.401	1	4
423.572	1	0
423.742	1	3
423.913	1	9
424.084	1	1
424.254	1	1
424.425	1	7
424.595	1	-7
424.766	1	5
424.937	1	-8
425.107	1	-1
425.278	1	2
425.449	1	2
425.619	1	2
425.790	1	4
425.961	1	-3
426.131	1	4
426.302	1	1
426.472	1	-10
426.643	1	2
426.814	1	12
426.984	1	4
427.155	1	5
427.326	1	9
427.496	1	7
427.667	1	4
427.837	1	-1
428.008	1	7
428.179	1	-13
428.349	1	-1
428.520	1	-8
428.691	1	7
428.861	1	-1
429.032	1	-9
429.202	1	14
429.373	1	-15
429.544	1	8
429.714	1	9
429.885	1	2
430.055	1	3
430.226	1	-7
430.397	1	11
430.567	1	11
430.738	1	-7
430.909	1	-4
431.079	1	8
431.250	1	-5
431.420	1	-1
431.591	1	2
431.762	1	8
431.932	1	8
432.103	1	1
432.273	1	3
432.444	1	2
432.615	1	-5
432.785	1	-3
432.956	1	-4
433.126	1	6
433.297	1	7
433.468	1	-3
433.638	1	1
433.809	1	0
433.979	1	0
434.150	1	-1
434.320	1	-3
434.491	1	-6
434.662	1	-7
434.832	1	-2
435.003	1	0
435.173	1	-2
435.344	1	6
435.515	1	-13
435.685	1	1
435.856	1	2
436.026	1	-3
436.197	1	-2
436.368	1	-1
436.538	1	4
436.709	1	-11
436.879	1	-2
437.050	1	5
437.220	1	6
437.391	1	4
437.562	1	8
437.732	1	0
437.903	1	7
438.073	1	7
438.244	1	-9
438.414	1	4
438.585	1	4
438.756	1	6
438.926	1	1
439.097	1	10
439.267	1	5
439.438	1	-2
439.608	1	-2
439.779	1	-5
439.949	1	-6
440.120	1	-4
440.291	1	-12
440.461	1	4
440.632	1	1
440.802	1	9
440.973	1	10
441.143	1	7
441.314	1	4
441.485	1	7
441.655	1	11
441.826	1	0
441.996	1	1
442.167	1	-1
442.337	1	6
442.508	1	5
442.678	1	-2
442.849	1	6
443.019	1	4
443.190	1	-6
443.361	1	8
443.531	1	5
443.702	1	8
443.872	1	4
444.043	1	3
444.213	1	1
444.384	1	0
444.554	1	5
444.725	1	10
444.895	1	-5
445.066	1	-10
445.237	1	-4
445.407	1	-1
445.578	1	8
445.748	1	-10
445.919	1	-3
446.089	1	7
446.260	1	10
446.430	1	-14
446.601	1	4
446.771	1	8
446.942	1	2
447.112	1	0
447.283	1	0
447.453	1	-3
447.624	1	0
447.794	1	-5
447.965	1	-2
448.135	1	5
448.306	1	8
448.477	1	-5
448.647	1	20
448.818	1	7
448.988	1	-17
449.159	1	0
449.329	1	2
449.500	1	10
449.670	1	10
449.841	1	3
450.011	1	-5
450.182	1	-6
450.352	1	12
450.523	1	0
450.693	1	9
450.864	1	1
451.034	1	8
451.205	1	2
451.375	1	0
451.546	1	3
451.716	1	8
451.887	1	3
452.057	1	4
452.228	1	3
452.398	1	1
452.569	1	-6
452.739	1	-6
452.910	1	-3
453.080	1	13
453.251	1	2
453.421	1	2
453.592	1	-8
453.762	1	7
453.933	1	6
454.103	1	2
454.274	1	-4
454.444	1	6
454.615	1	13
454.785	1	-4
454.956	1	0
455.126	1	6
455.297	1	9
455.467	1	-7
455.638	1	-1
455.808	1	-3
455.979	1	8
456.149	1	-5
456.320	1	1
456.490	1	-1
456.661	1	-3
456.831	1	22
457.001	1	-2
457.172	1	-8
457.342	1	4
457.513	1	9
457.683	1	4
457.854	1	-2
458.024	1	3
458.195	1	-8
458.365	1	1
458.536	1	7
458.706	1	4
458.877	1	-11
459.047	1	-3
459.218	1	6
459.388	1	1
459.559	1	3
459.729	1	4
459.899	1	9
460.070	1	12
460.240	1	1
460.411	1	1
460.581	1	14
460.752	1	6
460.922	1	0
461.093	1	2
461.263	1	2
461.434	1	3
461.604	1	9
461.775	1	4
461.945	1	9
462.115	1	-9
462.286	1	12
462.456	1	1
462.627	1	-3
462.797	1	-5
462.968	1	-6
463.138	1	10
463.309	1	-8
463.479	1	16
463.649	1	7
463.820	1	2
463.990	1	9
464.161	1	1
464.331	1	10
464.502	1	3
464.672	1	-5
464.843	1	0
465.013	1	-9
465.183	1	2
465.354	1	8
465.524	1	14
465.695	1	10
465.865	1	2
466.036	1	4
466.206	1	-1
466.376	1	1
466.547	1	-1
466.717	1	-12
466.888	1	-1
467.058	1	4
467.229	1	6
467.399	1	4
467.569	1	3
467.740	1	4
467.910	1	-5
468.081	1	-2
468.251	1	-5
468.422	1	2
468.592	1	1
468.762	1	-7
468.933	1	13
469.103	1	-4
469.274	1	-7
469.444	1	-7
469.614	1	2
469.785	1	-1
469.955	1	1
470.126	1	1
470.296	1	0
470.467	1	-14
470.637	1	13
470.807	1	12
470.978	1	1
471.148	1	-7
471.319	1	4
471.489	1	-8
471.659	1	-2
471.830	1	8
472.000	1	9
472.171	1	-2
472.341	1	1
472.511	1	8
472.682	1	-1
472.852	1	-7
473.023	1	-10
473.193	1	-4
473.363	1	-3
473.534	1	5
473.704	1	11
473.875	1	7
474.045	1	-7
474.215	1	-4
474.386	1	8
474.556	1	-9
474.727	1	-6
474.897	1	-5
475.067	1	-1
475.238	1	-6
475.408	1	1
475.578	1	1
475.749	1	-8
475.919	1	0
476.090	1	-2
476.260	1	-1
476.430	1	-5
476.601	1	0
476.771	1	2
476.942	1	2
477.112	1	4
477.282	1	-9
477.453	1	4
477.623	1	15
477.793	1	5
477.964	1	17
478.134	1	-4
478.305	1	6
478.475	1	1
478.645	1	-7
478.816	1	-2
478.986	1	6
479.156	1	5
479.327	1	-2
479.497	1	3
479.667	1	4
479.838	1	1
480.008	1	11
480.179	1	8
480.349	1	4
480.519	1	2
480.690	1	2
480.860	1	-4
481.030	1	-2
481.201	1	5
481.371	1	5
481.541	1	8
481.712	1	2
481.882	1	-1
482.053	1	11
482.223	1	-5
482.393	1	1
482.564	1	-7
482.734	1	0
482.904	1	6
483.075	1	12
483.245	1	11
483.415	1	4
483.586	1	5
483.756	1	5
483.926	1	-12
484.097	1	-3
484.267	1	-5
484.437	1	-16
484.608	1	5
484.778	1	-6
484.948	1	-3
485.119	1	5
485.289	1	7
485.459	1	17
485.630	1	-7
485.800	1	5
485.970	1	2
486.141	1	-15
486.311	1	-7
486.481	1	8
486.652	1	2
486.822	1	-1
486.992	1	-4
487.163	1	-2
487.333	1	1
487.503	1	-9
487.674	1	7
487.844	1	8
488.014	1	-3
488.185	1	-1
488.355	1	-3
488.525	1	-1
488.696	1	-7
488.866	1	7
489.036	1	-4
489.207	1	11
489.377	1	0
489.547	1	-2
489.718	1	-1
489.888	1	-1
490.058	1	-5
490.228	1	-7
490.399	1	3
490.569	1	2
490.739	1	1
490.910	1	-4
491.080	1	0
491.250	1	2
491.421	1	-5
491.591	1	-5
491.761	1	4
491.932	1	-7
492.102	1	1
492.272	1	13
492.442	1	8
492.613	1	7
492.783	1	-4
492.953	1	0
493.124	1	-6
493.294	1	10
493.464	1	-5
493.635	1	-6
493.805	1	10
493.975	1	6
494.145	1	5
494.316	1	-1
494.486	1	5
494.656	1	1
494.827	1	-6
494.997	1	-1
495.167	1	2
495.337	1	6
495.508	1	-1
495.678	1	5
495.848	1	11
496.019	1	0
496.189	1	-2
496.359	1	2
496.529	1	-5
496.700	1	1
496.870	1	-2
497.040	1	-2
497.211	1	11
497.381	1	-15
497.551	1	11
497.721	1	3
497.892	1	11
498.062	1	1
498.232	1	1
498.403	1	4
498.573	1	-9
498.743	1	8
498.913	1	0
499.084	1	-8
499.254	1	1
499.424	1	8
499.594	1	6
499.765	1	-7
499.935	1	0
500.105	1	3
500.275	1	13
500.446	1	8
500.616	1	3
500.786	1	8
500.956	1	7
501.127	1	12
501.297	1	-1
501.467	1	15
501.638	1	2
501.808	1	-9
501.978	1	6
502.148	1	3
502.319	1	0
502.489	1	3
502.659	1	-3
502.829	1	-1
503.000	1	13
503.170	1	1
503.340	1	-9
503.510	1	1
503.681	1	-2
503.851	1	-3
504.021	1	16
504.191	1	4
504.362	1	15
504.532	1	-4
504.702	1	9
504.872	1	-9
505.042	1	8
505.213	1	7
505.383	1	-7
505.553	1	6
505.723	1	-2
505.894	1	5
506.064	1	7
506.234	1	12
506.404	1	2
506.575	1	2
506.745	1	6
506.915	1	3
507.085	1	0
507.256	1	-6
507.426	1	11
507.596	1	9
507.766	1	-4
507.936	1	-3
508.107	1	8
508.277	1	-1
508.447	1	5
508.617	1	2
508.788	1	4
508.958	1	7
509.128	1	5
509.298	1	22
509.468	1	8
509.639	1	5
509.809	1	8
509.979	1	4
510.149	1	-1
510.319	1	7
510.490	1	9
510.660	1	7
510.830	1	-5
511.000	1	12
511.171	1	6
511.341	1	-12
511.511	1	4
511.681	1	-1
511.851	1	0
512.022	1	-7
512.192	1	6
512.362	1	-2
512.532	1	-3
512.702	1	2
512.873	1	14
513.043	1	9
513.213	1	-7
513.383	1	-3
513.553	1	-8
513.724	1	10
513.894	1	-2
514.064	1	4
514.234	1	8
514.404	1	6
514.575	1	9
514.745	1	3
514.915	1	2
515.085	1	-3
515.255	1	-1
515.425	1	-9
515.596	1	-5
515.766	1	10
515.936	1	6
516.106	1	2
516.276	1	13
516.447	1	-7
516.617	1	6
516.787	1	-7
516.957	1	3
517.127	1	5
517.297	1	8
517.468	1	-2
517.638	1	11
517.808	1	-2
517.978	1	1
518.148	1	1
518.319	1	-1
518.489	1	-2
518.659	1	6
518.829	1	-12
518.999	1	-4
519.169	1	6
519.340	1	11
519.510	1	0
519.680	1	-10
519.850	1	-7
520.020	1	0
520.190	1	2
520.361	1	-9
520.531	1	13
520.701	1	5
520.871	1	-12
521.041	1	12
521.211	1	7
521.382	1	2
521.552	1	5
521.722	1	12
521.892	1	-12
522.062	1	4
522.232	1	-3
522.402	1	-7
522.573	1	2
522.743	1	10
522.913	1	13
523.083	1	6
523.253	1	-2
523.423	1	-1
523.593	1	-12
523.764	1	14
523.934	1	10
524.104	1	-8
524.274	1	-8
524.444	1	5
524.614	1	-2
524.784	1	-1
524.955	1	11
525.125	1	3
525.295	1	-4
525.465	1	3
525.635	1	6
525.805	1	1
525.975	1	-8
526.146	1	2
526.316	1	5
526.486	1	2
526.656	1	22
526.826	1	15
526.996	1	10
527.166	1	0
527.337	1	-1
527.507	1	-6
527.677	1	11
527.847	1	-10
528.017	1	5
528.187	1	1
528.357	1	0
528.527	1	4
528.698	1	-8
528.868	1	-4
529.038	1	6
529.208	1	-3
529.378	1	-6
529.548	1	9
529.718	1	4
529.888	1	5
530.058	1	3
530.229	1	11
530.399	1	12
530.569	1	9
530.739	1	2
530.909	1	8
531.079	1	3
531.249	1	4
531.419	1	7
531.589	1	-13
531.760	1	15
531.930	1	-1
532.100	1	2
532.270	1	6
532.440	1	0
532.610	1	9
532.780	1	-6
532.950	1	2
533.120	1	-5
533.290	1	-8
533.461	1	3
533.631	1	2
533.801	1	7
533.971	1	3
534.141	1	13
534.311	1	-3
534.481	1	8
534.651	1	6
534.821	1	2
534.991	1	-2
535.162	1	9
535.332	1	1
535.502	1	16
535.672	1	-5
535.842	1	0
536.012	1	10
536.182	1	13
536.352	1	3
536.522	1	6
536.692	1	2
536.862	1	7
537.032	1	3
537.203	1	10
537.373	1	3
537.543	1	9
537.713	1	7
537.883	1	8
538.053	1	13
538.223	1	3
538.393	1	5
538.563	1	5
538.733	1	2
538.903	1	2
539.073	1	4
539.243	1	2
539.413	1	0
539.584	1	6
539.754	1	-3
539.924	1	1
540.094	1	3
540.264	1	8
540.434	1	-8
540.604	1	5
540.774	1	-1
540.944	1	1
541.114	1	-1
541.284	1	-4
541.454	1	8
541.624	1	6
541.794	1	-2
541.964	1	1
542.134	1	10
542.305	1	-5
542.475	1	-5
542.645	1	-8
542.815	1	11
542.985	1	-3
543.155	1	13
543.325	1	-3
543.495	1	-1
543.665	1	18
543.835	1	-6
544.005	1	3
544.175	1	7
544.345	1	-3
544.515	1	3
544.685	1	9
544.855	1	15
545.025	1	-2
545.195	1	-1
545.365	1	6
545.535	1	4
545.705	1	3
545.875	1	-11
546.045	1	7
546.216	1	6
546.386	1	12
546.556	1	-11
546.726	1	-6
546.896	1	1
547.066	1	-8
547.236	1	-6
547.406	1	12
547.576	1	2
547.746	1	8
547.916	1	3
548.086	1	-1
548.256	1	5
548.426	1	-7
548.596	1	11
548.766	1	6
548.936	1	-2
549.106	1	5
549.276	1	16
549.446	1	1
549.616	1	5
549.786	1	3
549.956	1	9
550.126	1	-11
550.296	1	14
550.466	1	-4
550.636	1	8
550.806	1	9
550.976	1	4
551.146	1	1
551.316	1	6
551.486	1	7
551.656	1	-8
551.826	1	-2
551.996	1	6
552.166	1	4
552.336	1	5
552.506	1	-3
552.676	1	-1
552.846	1	10
553.016	1	3
553.186	1	9
553.356	1	-2
553.526	1	1
553.696	1	15
553.866	1	6
554.036	1	8
554.206	1	6
554.376	1	-3
554.546	1	-5
554.716	1	4
554.886	1	2
555.056	1	-7
555.226	1	-11
555.396	1	-1
555.566	1	1
555.736	1	4
555.906	1	9
556.076	1	5
556.246	1	0
556.416	1	5
556.586	1	9
556.756	1	2
556.926	1	-2
557.096	1	4
557.266	1	2
557.436	1	3
557.606	1	0
557.776	1	-1
557.946	1	6
558.116	1	9
558.286	1	-3
558.456	1	-4
558.626	1	2
558.796	1	-1
558.966	1	3
559.136	1	7
559.306	1	-8
559.476	1	5
559.646	1	-4
559.816	1	1
559.986	1	-9
560.155	1	1
560.325	1	-9
560.495	1	3
560.665	1	9
560.835	1	-9
561.005	1	9
561.175	1	3
561.345	1	1
561.515	1	2
561.685	1	-5
561.855	1	12
562.025	1	-8
562.195	1	2
562.365	1	4
562.535	1	13
562.705	1	6
562.875	1	1
563.045	1	10
563.215	1	-3
563.385	1	0
563.555	1	7
563.725	1	4
563.895	1	0
564.064	1	9
564.234	1	0
564.404	1	1
564.574	1	-7
564.744	1	3
564.914	1	-3
565.084	1	-4
565.254	1	-2
565.424	1	4
565.594	1	1
565.764	1	14
565.934	1	7
566.104	1	7
566.274	1	-9
566.444	1	6
566.614	1	-2
566.783	1	6
566.953	1	-1
567.123	1	8
567.293	1	7
567.463	1	-6
567.633	1	-2
567.803	1	-4
567.973	1	3
568.143	1	-4
568.313	1	0
568.483	1	-9
568.653	1	1
568.823	1	7
568.993	1	-8
569.162	1	6
569.332	1	-6
569.502	1	3
569.672	1	-6
569.842	1	-6
570.012	1	6
570.182	1	-6
570.352	1	5
570.522	1	1
570.692	1	0
570.862	1	3
571.031	1	-3
571.201	1	5
571.371	1	-12
571.541	1	-8
571.711	1	9
571.881	1	7
572.051	1	-2
572.221	1	0
572.391	1	11
572.561	1	-6
572.731	1	7
572.900	1	9
573.070	1	-2
573.240	1	-5
573.410	1	-2
573.580	1	3
573.750	1	5
573.920	1	2
574.090	1	4
574.260	1	2
574.430	1	-10
574.599	1	3
574.769	1	-5
574.939	1	6
575.109	1	1
575.279	1	1
575.449	1	7
575.619	1	5
575.789	1	12
575.959	1	-8
576.128	1	6
576.298	1	-14
576.468	1	-12
576.638	1	1
576.808	1	-4
576.978	1	5
577.148	1	5
577.318	1	10
577.487	1	0
577.657	1	-9
577.827	1	11
577.997	1	-6
578.167	1	4
578.337	1	-3
578.507	1	-8
578.677	1	-6
578.846	1	4
579.016	1	15
579.186	1	5
579.356	1	0
579.526	1	0
579.696	1	8
579.866	1	-2
580.036	1	2
580.205	1	2
580.375	1	-1
580.545	1	3
580.715	1	6
580.885	1	-3
581.055	1	4
581.225	1	-10
581.394	1	2
581.564	1	-12
581.734	1	6
581.904	1	-3
582.074	1	1
582.244	1	2
582.414	1	-4
582.583	1	-7
582.753	1	5
582.923	1	2
583.093	1	-3
583.263	1	8
583.433	1	-4
583.603	1	4
583.772	1	5
583.942	1	13
584.112	1	-1
584.282	1	7
584.452	1	-3
584.622	1	3
584.791	1	6
584.961	1	-2
585.131	1	-7
585.301	1	12
585.471	1	1
585.641	1	1
585.811	1	2
585.980	1	-5
586.150	1	-6
586.320	1	-2
586.490	1	-7
586.660	1	9
586.830	1	-3
586.999	1	-3
587.169	1	-2
587.339	1	-4
587.509	1	2
587.679	1	6
587.849	1	14
588.018	1	-3
588.188	1	4
588.358	1	0
588.528	1	5
588.698	1	3
588.867	1	7
589.037	1	6
589.207	1	-13
589.377	1	3
589.547	1	-6
589.717	1	1
589.886	1	-3
590.056	1	-3
590.226	1	-2
590.396	1	7
590.566	1	5
590.735	1	15
590.905	1	3
591.075	1	-7
591.245	1	8
591.415	1	-4
591.585	1	-3
591.754	1	-1
591.924	1	-6
592.094	1	-7
592.264	1	1
592.434	1	4
592.603	1	3
592.773	1	4
592.943	1	-2
593.113	1	-5
593.283	1	9
593.452	1	-10
593.622	1	0
593.792	1	4
593.962	1	8
594.132	1	-7
594.301	1	18
594.471	1	0
594.641	1	-6
594.811	1	1
594.981	1	1
595.150	1	-9
595.320	1	6
595.490	1	-7
595.660	1	4
595.829	1	-3
595.999	1	-10
596.169	1	4
596.339	1	3
596.509	1	8
596.678	1	0
596.848	1	-6
597.018	1	3
597.188	1	6
597.358	1	9
597.527	1	-10
597.697	1	-1
597.867	1	3
598.037	1	4
598.206	1	-5
598.376	1	10
598.546	1	1
598.716	1	-8
598.885	1	3
599.055	1	0
599.225	1	-1
599.395	1	11
599.565	1	12
599.734	1	1
599.904	1	1
600.074	1	-3
600.244	1	11
600.413	1	0
600.583	1	-2
600.753	1	0
600.923	1	6
601.092	1	-7
601.262	1	7
601.432	1	4
601.602	1	8
601.771	1	7
601.941	1	-1
602.111	1	1
602.281	1	-4
602.451	1	4
602.620	1	7
602.790	1	9
602.960	1	-1
603.130	1	-2
603.299	1	4
603.469	1	7
603.639	1	12
603.809	1	3
603.978	1	3
604.148	1	0
604.318	1	2
604.487	1	5
604.657	1	8
604.827	1	-15
604.997	1	10
605.166	1	-6
605.336	1	-2
605.506	1	3
605.676	1	3
605.845	1	2
606.015	1	0
606.185	1	1
606.355	1	9
606.524	1	-5
606.694	1	11
606.864	1	0
607.034	1	-8
607.203	1	13
607.373	1	4
607.543	1	-8
607.712	1	13
607.882	1	0
608.052	1	5
608.222	1	1
608.391	1	1
608.561	1	5
608.731	1	-12
608.901	1	2
609.070	1	-13
609.240	1	6
609.410	1	1
609.579	1	5
609.749	1	4
609.919	1	-8
610.089	1	-5
610.258	1	10
610.428	1	2
610.598	1	2
610.767	1	-1
610.937	1	1
611.107	1	10
611.277	1	10
611.446	1	4
611.616	1	0
611.786	1	4
611.955	1	0
612.125	1	1
612.295	1	-2
612.465	1	-2
612.634	1	-4
612.804	1	17
612.974	1	8
613.143	1	3
613.313	1	10
613.483	1	4
613.652	1	-6
613.822	1	5
613.992	1	2
614.162	1	-3
614.331	1	12
614.501	1	5
614.671	1	5
614.840	1	9
615.010	1	-1
615.180	1	3
615.349	1	-1
615.519	1	-2
615.689	1	0
615.858	1	5
616.028	1	3
616.198	1	2
616.368	1	1
616.537	1	-3
616.707	1	-7
616.877	1	5
617.046	1	-2
617.216	1	3
617.386	1	-1
617.555	1	-2
617.725	1	6
617.895	1	-4
618.064	1	5
618.234	1	4
618.404	1	6
618.573	1	-1
618.743	1	-1
618.913	1	-1
619.082	1	8
619.252	1	-6
619.422	1	1
619.591	1	6
619.761	1	1
619.931	1	7
620.100	1	3
620.270	1	-4
620.440	1	3
620.609	1	-4
620.779	1	-10
620.949	1	2
621.118	1	-4
621.288	1	11
621.458	1	12
621.627	1	-2
621.797	1	1
621.967	1	-8
622.136	1	2
622.306	1	-3
622.476	1	3
622.645	1	2
622.815	1	-9
622.985	1	-4
623.154	1	-1
623.324	1	13
623.494	1	4
623.663	1	-4
623.833	1	1
624.002	1	2
624.172	1	9
624.342	1	-8
624.511	1	-3
624.681	1	-4
624.851	1	-3
625.020	1	-3
625.190	1	6
625.360	1	1
625.529	1	5
625.699	1	-1
625.869	1	7
626.038	1	0
626.208	1	-1
626.377	1	18
626.547	1	-3
626.717	1	-2
626.886	1	-1
627.056	1	-4
627.226	1	14
627.395	1	3
627.565	1	2
627.735	1	7
627.904	1	6
628.074	1	11
628.243	1	7
628.413	1	2
628.583	1	0
628.752	1	3
628.922	1	1
629.091	1	4
629.261	1	9
629.431	1	-1
629.600	1	-2
629.770	1	6
629.940	1	12
630.109	1	3
630.279	1	-17
630.448	1	-2
630.618	1	0
630.788	1	5
630.957	1	0
631.127	1	6
631.297	1	-5
631.466	1	2
631.636	1	6
631.805	1	4
631.975	1	6
632.145	1	-1
632.314	1	11
632.484	1	-1
632.653	1	-8
632.823	1	8
632.993	1	9
633.162	1	-5
633.332	1	3
633.501	1	-1
633.671	1	4
633.841	1	3
634.010	1	-3
634.180	1	4
634.349	1	12
634.519	1	-5
634.689	1	14
634.858	1	4
635.028	1	1
635.197	1	-12
635.367	1	-11
635.537	1	-3
635.706	1	-5
635.876	1	-5
636.045	1	1
636.215	1	-3
636.384	1	10
636.554	1	8
636.724	1	6
636.893	1	0
637.063	1	5
637.232	1	4
637.402	1	6
637.572	1	9
637.741	1	11
637.911	1	3
638.080	1	-4
638.250	1	9
638.419	1	-1
638.589	1	13
638.759	1	-8
638.928	1	-7
639.098	1	9
639.267	1	-2
639.437	1	-5
639.606	1	22
639.776	1	4
639.946	1	7
640.115	1	-3
640.285	1	2
640.454	1	20
640.624	1	4
640.793	1	3
640.963	1	0
641.132	1	8
641.302	1	-3
641.472	1	-8
641.641	1	-4
641.811	1	-10
641.980	1	-6
642.150	1	-2
642.319	1	2
642.489	1	2
642.659	1	-2
642.828	1	7
642.998	1	-5
643.167	1	11
643.337	1	-3
643.506	1	0
643.676	1	-6
643.845	1	-3
644.015	1	3
644.184	1	7
644.354	1	2
644.524	1	5
644.693	1	7
644.863	1	-11
645.032	1	0
645.202	1	3
645.371	1	-7
645.541	1	-4
645.710	1	-1
645.880	1	0
646.049	1	13
646.219	1	6
646.388	1	-9
646.558	1	6
646.728	1	2
646.897	1	-3
647.067	1	13
647.236	1	0
647.406	1	-11
647.575	1	5
647.745	1	1
647.914	1	-9
648.084	1	6
648.253	1	5
648.423	1	-1
648.592	1	8
648.762	1	2
648.931	1	3
649.101	1	0
649.270	1	11
649.440	1	3
649.610	1	6
649.779	1	5
649.949	1	3
650.118	1	-8
650.288	1	1
650.457	1	7
650.627	1	1
650.796	1	3
650.966	1	-11
651.135	1	12
651.305	1	-4
651.474	1	-4
651.644	1	0
651.813	1	6
651.983	1	1
652.152	1	-1
652.322	1	3
652.491	1	1
652.661	1	11
652.830	1	4
653.000	1	-2
653.169	1	6
653.339	1	8
653.508	1	-7
653.678	1	6
653.847	1	4
654.017	1	0
654.186	1	2
654.356	1	8
654.525	1	8
654.695	1	8
654.864	1	11
655.034	1	0
655.203	1	4
655.373	1	2
655.542	1	7
655.712	1	0
655.881	1	7
656.051	1	12
656.220	1	4
656.390	1	2
656.559	1	-1
656.729	1	-4
656.898	1	0
657.068	1	-11
657.237	1	2
657.406	1	5
657.576	1	-4
657.745	1	-6
657.915	1	15
658.084	1	2
658.254	1	4
658.423	1	-4
658.593	1	-9
658.762	1	-4
658.932	1	4
659.101	1	0
659.271	1	15
659.440	1	8
659.610	1	2
659.779	1	-2
659.949	1	-11
660.118	1	3
660.288	1	4
660.457	1	-8
660.626	1	-10
660.796	1	-2
660.965	1	6
661.135	1	5
661.304	1	11
661.474	1	8
661.643	1	0
661.813	1	3
661.982	1	-3
662.152	1	1
662.321	1	6
662.491	1	8
662.660	1	-2
662.829	1	4
662.999	1	1
663.168	1	-2
663.338	1	0
663.507	1	-12
663.677	1	-5
663.846	1	5
664.016	1	-4
664.185	1	-4
664.354	1	7
664.524	1	-11
664.693	1	5
664.863	1	-3
665.032	1	-2
665.202	1	-2
665.371	1	-1
665.541	1	-3
665.710	1	-1
665.879	1	0
666.049	1	0
666.218	1	2
666.388	1	-8
666.557	1	0
666.727	1	-20
666.896	1	-4
667.065	1	4
667.235	1	3
667.404	1	-4
667.574	1	6
667.743	1	-2
667.913	1	2
668.082	1	3
668.251	1	-6
668.421	1	-6
668.590	1	-3
668.760	1	0
668.929	1	6
669.099	1	-9
669.268	1	-2
669.437	1	2
669.607	1	-6
669.776	1	6
669.946	1	13
670.115	1	6
670.285	1	7
670.454	1	1
670.623	1	1
670.793	1	5
670.962	1	-3
671.132	1	9
671.301	1	-5
671.470	1	-1
671.640	1	-10
671.809	1	-6
671.979	1	9
672.148	1	2
672.317	1	-9
672.487	1	-2
672.656	1	-4
672.826	1	-9
672.995	1	12
673.164	1	1
673.334	1	11
673.503	1	2
673.673	1	13
673.842	1	-2
674.011	1	4
674.181	1	-4
674.350	1	-9
674.520	1	-6
674.689	1	2
674.858	1	2
675.028	1	-1
675.197	1	5
675.367	1	3
675.536	1	4
675.705	1	-10
675.875	1	4
676.044	1	-4
676.214	1	-1
676.383	1	-2
676.552	1	-3
676.722	1	-1
676.891	1	-16
677.060	1	4
677.230	1	7
677.399	1	0
677.569	1	-4
677.738	1	-7
677.907	1	-9
678.077	1	0
678.246	1	-2
678.416	1	5
678.585	1	8
678.754	1	-7
678.924	1	-2
679.093	1	4
679.262	1	-3
679.432	1	-3
679.601	1	-7
679.771	1	-2
679.940	1	-1
680.109	1	7
680.279	1	-12
680.448	1	-1
680.617	1	-10
680.787	1	-1
680.956	1	2
681.125	1	0
681.295	1	1
681.464	1	-2
681.634	1	3
681.803	1	-14
681.972	1	-3
682.142	1	10
682.311	1	1
682.480	1	1
682.650	1	-3
682.819	1	-5
682.988	1	-4
683.158	1	-2
683.327	1	5
683.496	1	-11
683.666	1	-2
683.835	1	6
684.004	1	6
684.174	1	7
684.343	1	0
684.512	1	4
684.682	1	7
684.851	1	0
685.021	1	5
685.190	1	9
685.359	1	-3
685.529	1	5
685.698	1	6
685.867	1	5
686.037	1	7
686.206	1	1
686.375	1	3
686.545	1	14
686.714	1	-2
686.883	1	-7
687.053	1	1
687.222	1	-9
687.391	1	-10
687.561	1	5
687.730	1	-1
687.899	1	-12
688.069	1	-4
688.238	1	4
688.407	1	7
688.577	1	-2
688.746	1	8
