340.368	1	2
340.539	1	8
340.710	1	-2
340.881	1	9
341.052	1	2
341.223	1	1
341.394	1	1
341.565	1	-9
341.737	1	5
341.908	1	6
342.079	1	-1
342.250	1	-1
342.421	1	2
342.592	1	-9
342.763	1	-1
342.934	1	0
343.105	1	11
343.276	1	-7
343.447	1	10
343.618	1	4
343.789	1	-4
343.960	1	-2
344.131	1	-2
344.302	1	2
344.473	1	-2
344.644	1	-1
344.815	1	3
344.986	1	5
345.157	1	7
345.328	1	0
345.499	1	10
345.670	1	6
345.841	1	0
346.012	1	13
346.183	1	-2
346.354	1	1
346.526	1	3
346.697	1	5
346.868	1	5
347.039	1	1
347.210	1	-2
347.381	1	-3
347.552	1	1
347.723	1	3
347.894	1	-3
348.065	1	7
348.236	1	2
348.407	1	-5
348.578	1	4
348.749	1	5
348.920	1	3
349.091	1	4
349.262	1	-5
349.433	1	-9
349.604	1	8
349.775	1	3
349.946	1	7
350.117	1	6
350.288	1	6
350.459	1	7
350.630	1	-2
350.801	1	5
350.972	1	-3
351.143	1	-11
351.314	1	-4
351.485	1	-2
351.656	1	4
351.827	1	0
351.998	1	-9
352.169	1	10
352.340	1	5
352.511	1	-1
352.682	1	-5
352.853	1	-6
353.024	1	-4
353.195	1	1
353.366	1	6
353.537	1	1
353.708	1	1
353.879	1	9
354.050	1	1
354.221	1	-3
354.392	1	7
354.563	1	4
354.734	1	7
354.905	1	5
355.076	1	-5
355.247	1	-6
355.418	1	4
355.589	1	-1
355.760	1	2
355.931	1	4
356.102	1	-2
356.273	1	1
356.444	1	5
356.615	1	2
356.785	1	11
356.956	1	-2
357.127	1	-9
357.298	1	0
357.469	1	-2
357.640	1	6
357.811	1	11
357.982	1	-7
358.153	1	-6
358.324	1	-1
358.495	1	18
358.666	1	1
358.837	1	6
359.008	1	0
359.179	1	1
359.350	1	-1
359.521	1	5
359.692	1	-1
359.863	1	-3
360.034	1	-3
360.205	1	3
360.376	1	6
360.547	1	5
360.718	1	-2
360.889	1	0
361.060	1	10
361.231	1	6
361.401	1	9
361.572	1	1
361.743	1	-5
361.914	1	-4
362.085	1	1
362.256	1	10
362.427	1	3
362.598	1	5
362.769	1	5
362.940	1	6
363.111	1	13
363.282	1	3
363.453	1	5
363.624	1	-3
363.795	1	6
363.966	1	2
364.137	1	1
364.308	1	-2
364.478	1	4
364.649	1	-4
364.820	1	3
364.991	1	12
365.162	1	3
365.333	1	6
365.504	1	-6
365.675	1	1
365.846	1	-4
366.017	1	7
366.188	1	4
366.359	1	-7
366.530	1	13
366.701	1	-7
366.871	1	14
367.042	1	17
367.213	1	2
367.384	1	12
367.555	1	3
367.726	1	19
367.897	1	5
368.068	1	0
368.239	1	11
368.410	1	1
368.581	1	6
368.752	1	-1
368.923	1	-8
369.093	1	3
369.264	1	-1
369.435	1	3
369.606	1	11
369.777	1	-1
369.948	1	9
370.119	1	7
370.290	1	9
370.461	1	-3
370.632	1	1
370.803	1	-1
370.973	1	18
371.144	1	-3
371.315	1	2
371.486	1	9
371.657	1	1
371.828	1	5
371.999	1	4
372.170	1	9
372.341	1	4
372.512	1	5
372.682	1	2
372.853	1	6
373.024	1	2
373.195	1	-2
373.366	1	-4
373.537	1	6
373.708	1	3
373.879	1	1
374.050	1	9
374.220	1	2
374.391	1	5
374.562	1	-1
374.733	1	14
374.904	1	8
375.075	1	12
375.246	1	10
375.417	1	10
375.588	1	-7
375.758	1	0
375.929	1	-1
376.100	1	9
376.271	1	-4
376.442	1	2
376.613	1	12
376.784	1	1
376.955	1	1
377.125	1	2
377.296	1	7
377.467	1	0
377.638	1	8
377.809	1	8
377.980	1	8
378.151	1	-3
378.321	1	-5
378.492	1	1
378.663	1	-2
378.834	1	10
379.005	1	0
379.176	1	10
379.347	1	10
379.518	1	-10
379.688	1	1
379.859	1	3
380.030	1	-10
380.201	1	-6
380.372	1	10
380.543	1	3
380.714	1	10
380.884	1	-3
381.055	1	3
381.226	1	4
381.397	1	-3
381.568	1	11
381.739	1	5
381.910	1	12
382.080	1	-13
382.251	1	14
382.422	1	13
382.593	1	-3
382.764	1	3
382.935	1	6
383.105	1	-4
383.276	1	0
383.447	1	13
383.618	1	0
383.789	1	3
383.960	1	3
384.130	1	1
384.301	1	6
384.472	1	-7
384.643	1	9
384.814	1	4
384.985	1	3
385.156	1	5
385.326	1	14
385.497	1	8
385.668	1	-1
385.839	1	12
386.010	1	4
386.180	1	11
386.351	1	0
386.522	1	6
386.693	1	12
386.864	1	1
387.035	1	8
387.205	1	-1
387.376	1	7
387.547	1	-9
387.718	1	14
387.889	1	16
388.060	1	9
388.230	1	0
388.401	1	7
388.572	1	1
388.743	1	10
388.914	1	10
389.084	1	18
389.255	1	8
389.426	1	9
389.597	1	-2
389.768	1	14
389.939	1	13
390.109	1	0
390.280	1	8
390.451	1	16
390.622	1	4
390.793	1	17
390.963	1	13
391.134	1	1
391.305	1	11
391.476	1	7
391.647	1	-1
391.817	1	-3
391.988	1	7
392.159	1	17
392.330	1	0
392.501	1	2
392.671	1	7
392.842	1	12
393.013	1	8
393.184	1	12
393.355	1	10
393.525	1	8
393.696	1	1
393.867	1	-12
394.038	1	-10
394.208	1	11
394.379	1	-11
394.550	1	2
394.721	1	3
394.892	1	12
395.062	1	-2
395.233	1	15
395.404	1	9
395.575	1	4
395.746	1	3
395.916	1	9
396.087	1	3
396.258	1	1
396.429	1	3
396.599	1	6
396.770	1	7
396.941	1	9
397.112	1	5
397.283	1	10
397.453	1	-8
397.624	1	13
397.795	1	2
397.966	1	8
398.136	1	13
398.307	1	11
398.478	1	2
398.649	1	11
398.819	1	10
398.990	1	14
399.161	1	8
399.332	1	13
399.503	1	7
399.673	1	3
399.844	1	-2
400.015	1	7
400.186	1	12
400.356	1	-7
400.527	1	1
400.698	1	8
400.869	1	13
401.039	1	-6
401.210	1	4
401.381	1	2
401.552	1	13
401.722	1	10
401.893	1	8
402.064	1	5
402.235	1	8
402.405	1	3
402.576	1	10
402.747	1	5
402.918	1	-5
403.088	1	3
403.259	1	-9
403.430	1	4
403.601	1	-4
403.771	1	5
403.942	1	7
404.113	1	9
404.284	1	3
404.454	1	7
404.625	1	7
404.796	1	5
404.967	1	5
405.137	1	12
405.308	1	4
405.479	1	8
405.649	1	-1
405.820	1	-3
405.991	1	8
406.162	1	-1
406.332	1	-3
406.503	1	5
406.674	1	5
406.845	1	9
407.015	1	-5
407.186	1	14
407.357	1	5
407.527	1	-4
407.698	1	5
407.869	1	-3
408.040	1	-6
408.210	1	1
408.381	1	0
408.552	1	9
408.722	1	2
408.893	1	4
409.064	1	3
409.235	1	6
409.405	1	0
409.576	1	13
409.747	1	1
409.917	1	-3
410.088	1	8
410.259	1	7
410.430	1	15
410.600	1	2
410.771	1	2
410.942	1	8
411.112	1	11
411.283	1	-5
411.454	1	13
411.625	1	-2
411.795	1	12
411.966	1	9
412.137	1	9
412.307	1	1
412.478	1	6
412.649	1	12
412.819	1	1
412.990	1	7
413.161	1	-3
413.332	1	2
413.502	1	2
413.673	1	2
413.844	1	-4
414.014	1	-3
414.185	1	7
414.356	1	-5
414.526	1	-1
414.697	1	6
414.868	1	10
415.038	1	0
415.209	1	5
415.380	1	0
415.550	1	-4
415.721	1	2
415.892	1	1
416.063	1	15
416.233	1	6
416.404	1	8
416.575	1	-2
416.745	1	2
416.916	1	6
417.087	1	-2
417.257	1	-1
417.428	1	-3
417.599	1	7
417.769	1	3
417.940	1	2
418.111	1	8
418.281	1	2
418.452	1	-1
418.623	1	-1
418.793	1	7
418.964	1	13
419.135	1	1
419.305	1	2
419.476	1	-5
419.647	1	3
419.817	1	5
419.988	1	-6
420.159	1	-5
420.329	1	4
420.500	1	8
420.671	1	-1
420.841	1	9
421.012	1	11
421.183	1	0
421.353	1	6
421.524	1	4
421.695	1	2
421.865	1	-5
422.036	1	4
422.206	1	0
422.377	1	0
422.548	1	-2
422.718	1	0
422.889	1	7
423.060	1	1
423.230	1	6
423.401	1	5
423.572	1	15
423.742	1	-2
423.913	1	10
424.084	1	0
424.254	1	3
424.425	1	-2
424.595	1	-1
424.766	1	8
424.937	1	-6
425.107	1	7
425.278	1	-4
425.449	1	-3
425.619	1	0
425.790	1	2
425.961	1	1
426.131	1	5
426.302	1	-6
426.472	1	-10
426.643	1	5
426.814	1	12
426.984	1	2
427.155	1	5
427.326	1	-2
427.496	1	2
427.667	1	10
427.837	1	-3
428.008	1	3
428.179	1	-7
428.349	1	-6
428.520	1	2
428.691	1	-1
428.861	1	-1
429.032	1	3
429.202	1	5
429.373	1	-8
429.544	1	1
429.714	1	5
429.885	1	4
430.055	1	5
430.226	1	-2
430.397	1	6
430.567	1	15
430.738	1	2
430.909	1	-5
431.079	1	7
431.250	1	-6
431.420	1	8
431.591	1	3
431.762	1	9
431.932	1	5
432.103	1	13
432.273	1	-7
432.444	1	9
432.615	1	2
432.785	1	-8
432.956	1	-5
433.126	1	4
433.297	1	5
433.468	1	-1
433.638	1	6
433.809	1	-2
433.979	1	-6
434.150	1	-5
434.320	1	3
434.491	1	0
434.662	1	5
434.832	1	0
435.003	1	2
435.173	1	1
435.344	1	-4
435.515	1	4
435.685	1	13
435.856	1	-5
436.026	1	1
436.197	1	-1
436.368	1	3
436.538	1	5
436.709	1	0
436.879	1	-7
437.050	1	6
437.220	1	6
437.391	1	2
437.562	1	18
437.732	1	2
437.903	1	2
438.073	1	13
438.244	1	2
438.414	1	6
438.585	1	-2
438.756	1	-3
438.926	1	-3
439.097	1	3
439.267	1	6
439.438	1	8
439.608	1	8
439.779	1	-3
439.949	1	4
440.120	1	-1
440.291	1	-8
440.461	1	0
440.632	1	-2
440.802	1	4
440.973	1	10
441.143	1	17
441.314	1	7
441.485	1	3
441.655	1	13
441.826	1	-5
441.996	1	2
442.167	1	1
442.337	1	-5
442.508	1	-1
442.678	1	-6
442.849	1	10
443.019	1	1
443.190	1	-8
443.361	1	6
443.531	1	-1
443.702	1	-2
443.872	1	-7
444.043	1	9
444.213	1	-10
444.384	1	9
444.554	1	-2
444.725	1	-7
444.895	1	2
445.066	1	-5
445.237	1	-4
445.407	1	-2
445.578	1	15
445.748	1	-5
445.919	1	0
446.089	1	16
446.260	1	4
446.430	1	-4
446.601	1	-8
446.771	1	0
446.942	1	-4
447.112	1	-3
447.283	1	-4
447.453	1	-1
447.624	1	3
447.794	1	-1
447.965	1	-2
448.135	1	1
448.306	1	2
448.477	1	-4
448.647	1	11
448.818	1	11
448.988	1	-5
449.159	1	1
449.329	1	1
449.500	1	12
449.670	1	11
449.841	1	-1
450.011	1	5
450.182	1	-5
450.352	1	1
450.523	1	2
450.693	1	0
450.864	1	2
451.034	1	6
451.205	1	1
451.375	1	14
451.546	1	3
451.716	1	7
451.887	1	-3
452.057	1	-4
452.228	1	5
452.398	1	2
452.569	1	-4
452.739	1	0
452.910	1	-1
453.080	1	8
453.251	1	-5
453.421	1	-8
453.592	1	0
453.762	1	8
453.933	1	9
454.103	1	3
454.274	1	-2
454.444	1	13
454.615	1	0
454.785	1	-6
454.956	1	2
455.126	1	-7
455.297	1	-3
455.467	1	13
455.638	1	4
455.808	1	-1
455.979	1	-1
456.149	1	6
456.320	1	-7
456.490	1	-6
456.661	1	-3
456.831	1	14
457.001	1	-5
457.172	1	-3
457.342	1	2
457.513	1	7
457.683	1	3
457.854	1	-3
458.024	1	-6
458.195	1	1
458.365	1	5
458.536	1	11
458.706	1	-3
458.877	1	-4
459.047	1	-11
459.218	1	6
459.388	1	6
459.559	1	1
459.729	1	2
459.899	1	15
460.070	1	11
460.240	1	7
460.411	1	7
460.581	1	3
460.752	1	7
460.922	1	-2
461.093	1	0
461.263	1	0
461.434	1	6
461.604	1	3
461.775	1	7
461.945	1	4
462.115	1	-13
462.286	1	13
462.456	1	-4
462.627	1	3
462.797	1	-2
462.968	1	-7
463.138	1	13
463.309	1	7
463.479	1	20
463.649	1	5
463.820	1	1
463.990	1	-1
464.161	1	7
464.331	1	-1
464.502	1	1
464.672	1	-2
464.843	1	10
465.013	1	-9
465.183	1	8
465.354	1	-5
465.524	1	7
465.695	1	14
465.865	1	4
466.036	1	5
466.206	1	3
466.376	1	1
466.547	1	4
466.717	1	-5
466.888	1	-2
467.058	1	13
467.229	1	4
467.399	1	10
467.569	1	12
467.740	1	-6
467.910	1	-6
468.081	1	5
468.251	1	-4
468.422	1	4
468.592	1	14
468.762	1	-7
468.933	1	2
469.103	1	-3
469.274	1	-4
469.444	1	3
469.614	1	-5
469.785	1	2
469.955	1	2
470.126	1	3
470.296	1	5
470.467	1	1
470.637	1	11
470.807	1	7
470.978	1	6
471.148	1	-3
471.319	1	4
471.489	1	-4
471.659	1	-1
471.830	1	15
472.000	1	9
472.171	1	8
472.341	1	5
472.511	1	10
472.682	1	1
472.852	1	5
473.023	1	-2
473.193	1	-11
473.363	1	5
473.534	1	4
473.704	1	12
473.875	1	8
474.045	1	-4
474.215	1	4
474.386	1	17
474.556	1	4
474.727	1	-6
474.897	1	0
475.067	1	9
475.238	1	-5
475.408	1	-2
475.578	1	5
475.749	1	-7
475.919	1	5
476.090	1	-7
476.260	1	5
476.430	1	0
476.601	1	-12
476.771	1	2
476.942	1	7
477.112	1	0
477.282	1	-8
477.453	1	5
477.623	1	4
477.793	1	8
477.964	1	9
478.134	1	5
478.305	1	7
478.475	1	3
478.645	1	-3
478.816	1	2
478.986	1	-1
479.156	1	11
479.327	1	-4
479.497	1	-4
479.667	1	-6
479.838	1	10
480.008	1	4
480.179	1	0
480.349	1	1
480.519	1	1
480.690	1	-5
480.860	1	8
481.030	1	-4
481.201	1	2
481.371	1	6
481.541	1	-4
481.712	1	0
481.882	1	-2
482.053	1	8
482.223	1	-6
482.393	1	-9
482.564	1	-5
482.734	1	3
482.904	1	7
483.075	1	9
483.245	1	-7
483.415	1	4
483.586	1	3
483.756	1	10
483.926	1	5
484.097	1	-6
484.267	1	0
484.437	1	-9
484.608	1	-2
484.778	1	3
484.948	1	-11
485.119	1	7
485.289	1	7
485.459	1	8
485.630	1	-1
485.800	1	3
485.970	1	1
486.141	1	-8
486.311	1	-8
486.481	1	-4
486.652	1	0
486.822	1	-7
486.992	1	-2
487.163	1	-6
487.333	1	3
487.503	1	-10
487.674	1	5
487.844	1	-1
488.014	1	2
488.185	1	-10
488.355	1	-7
488.525	1	-5
488.696	1	-7
488.866	1	5
489.036	1	0
489.207	1	2
489.377	1	1
489.547	1	-3
489.718	1	-4
489.888	1	-4
490.058	1	-5
490.228	1	-7
490.399	1	5
490.569	1	1
490.739	1	0
490.910	1	-2
491.080	1	5
491.250	1	-2
491.421	1	2
491.591	1	-8
491.761	1	9
491.932	1	7
492.102	1	-7
492.272	1	7
492.442	1	2
492.613	1	1
492.783	1	-5
492.953	1	7
493.124	1	-1
493.294	1	11
493.464	1	-1
493.635	1	0
493.805	1	15
493.975	1	3
494.145	1	6
494.316	1	3
494.486	1	10
494.656	1	9
494.827	1	-1
494.997	1	2
495.167	1	-4
495.337	1	7
495.508	1	-5
495.678	1	14
495.848	1	17
496.019	1	5
496.189	1	-2
496.359	1	3
496.529	1	-6
496.700	1	-5
496.870	1	3
497.040	1	5
497.211	1	11
497.381	1	-20
497.551	1	13
497.721	1	-2
497.892	1	3
498.062	1	3
498.232	1	-7
498.403	1	3
498.573	1	5
498.743	1	8
498.913	1	1
499.084	1	-5
499.254	1	7
499.424	1	11
499.594	1	-1
499.765	1	-6
499.935	1	-1
500.105	1	3
500.275	1	6
500.446	1	9
500.616	1	2
500.786	1	4
500.956	1	6
501.127	1	15
501.297	1	-1
501.467	1	2
501.638	1	4
501.808	1	-8
501.978	1	5
502.148	1	4
502.319	1	4
502.489	1	1
502.659	1	12
502.829	1	3
503.000	1	10
503.170	1	8
503.340	1	-2
503.510	1	2
503.681	1	5
503.851	1	-5
504.021	1	21
504.191	1	5
504.362	1	9
504.532	1	-8
504.702	1	2
504.872	1	2
505.042	1	-2
505.213	1	1
505.383	1	5
505.553	1	3
505.723	1	4
505.894	1	9
506.064	1	6
506.234	1	4
506.404	1	-3
506.575	1	-4
506.745	1	2
506.915	1	7
507.085	1	-4
507.256	1	-1
507.426	1	11
507.596	1	5
507.766	1	6
507.936	1	12
508.107	1	-6
508.277	1	-2
508.447	1	1
508.617	1	10
508.788	1	1
508.958	1	4
509.128	1	3
509.298	1	20
509.468	1	9
509.639	1	9
509.809	1	6
509.979	1	-1
510.149	1	1
510.319	1	-4
510.490	1	12
510.660	1	8
510.830	1	-8
511.000	1	8
511.171	1	14
511.341	1	-1
511.511	1	0
511.681	1	2
511.851	1	1
512.022	1	-4
512.192	1	4
512.362	1	3
512.532	1	-2
512.702	1	-1
512.873	1	16
513.043	1	7
513.213	1	3
513.383	1	-9
513.553	1	-9
513.724	1	7
513.894	1	-1
514.064	1	6
514.234	1	-2
514.404	1	-3
514.575	1	15
514.745	1	2
514.915	1	10
515.085	1	3
515.255	1	-2
515.425	1	0
515.596	1	-5
515.766	1	3
515.936	1	1
516.106	1	-5
516.276	1	12
516.447	1	6
516.617	1	1
516.787	1	-3
516.957	1	0
517.127	1	11
517.297	1	7
517.468	1	3
517.638	1	6
517.808	1	1
517.978	1	-5
518.148	1	4
518.319	1	5
518.489	1	5
518.659	1	3
518.829	1	-6
518.999	1	4
519.169	1	13
519.340	1	1
519.510	1	-1
519.680	1	0
519.850	1	1
520.020	1	-1
520.190	1	7
520.361	1	-5
520.531	1	12
520.701	1	7
520.871	1	-7
521.041	1	3
521.211	1	11
521.382	1	-1
521.552	1	9
521.722	1	-2
521.892	1	-13
522.062	1	-3
522.232	1	-8
522.402	1	-6
522.573	1	-1
522.743	1	10
522.913	1	5
523.083	1	-2
523.253	1	7
523.423	1	2
523.593	1	-18
523.764	1	10
523.934	1	2
524.104	1	-3
524.274	1	-5
524.444	1	1
524.614	1	-4
524.784	1	8
524.955	1	6
525.125	1	3
525.295	1	0
525.465	1	2
525.635	1	7
525.805	1	3
525.975	1	1
526.146	1	-2
526.316	1	-1
526.486	1	11
526.656	1	19
526.826	1	13
526.996	1	6
527.166	1	-1
527.337	1	12
527.507	1	-12
527.677	1	12
527.847	1	0
528.017	1	1
528.187	1	-2
528.357	1	4
528.527	1	0
528.698	1	9
528.868	1	-1
529.038	1	7
529.208	1	-7
529.378	1	9
529.548	1	10
529.718	1	0
529.888	1	9
530.058	1	-1
530.229	1	2
530.399	1	11
530.569	1	1
530.739	1	7
530.909	1	6
531.079	1	10
531.249	1	-1
531.419	1	7
531.589	1	-2
531.760	1	9
531.930	1	1
532.100	1	9
532.270	1	8
532.440	1	-1
532.610	1	4
532.780	1	4
532.950	1	10
533.120	1	3
533.290	1	2
533.461	1	12
533.631	1	5
533.801	1	7
533.971	1	6
534.141	1	15
534.311	1	10
534.481	1	0
534.651	1	10
534.821	1	8
534.991	1	2
535.162	1	4
535.332	1	8
535.502	1	3
535.672	1	2
535.842	1	3
536.012	1	2
536.182	1	2
536.352	1	7
536.522	1	4
536.692	1	6
536.862	1	3
537.032	1	2
537.203	1	12
537.373	1	-3
537.543	1	0
537.713	1	14
537.883	1	10
538.053	1	8
538.223	1	5
538.393	1	4
538.563	1	6
538.733	1	-7
538.903	1	2
539.073	1	7
539.243	1	2
539.413	1	3
539.584	1	-4
539.754	1	-1
539.924	1	7
540.094	1	4
540.264	1	11
540.434	1	2
540.604	1	7
540.774	1	-1
540.944	1	-3
541.114	1	-4
541.284	1	9
541.454	1	6
541.624	1	13
541.794	1	3
541.964	1	16
542.134	1	6
542.305	1	3
542.475	1	-2
542.645	1	5
542.815	1	10
542.985	1	3
543.155	1	-2
543.325	1	-3
543.495	1	1
543.665	1	11
543.835	1	-1
544.005	1	5
544.175	1	7
544.345	1	-2
544.515	1	6
544.685	1	7
544.855	1	10
545.025	1	-2
545.195	1	3
545.365	1	4
545.535	1	1
545.705	1	2
545.875	1	-1
546.045	1	11
546.216	1	15
546.386	1	8
546.556	1	-2
546.726	1	2
546.896	1	-1
547.066	1	-9
547.236	1	-4
547.406	1	1
547.576	1	4
547.746	1	9
547.916	1	6
548.086	1	10
548.256	1	13
548.426	1	6
548.596	1	6
548.766	1	6
548.936	1	-2
549.106	1	3
549.276	1	5
549.446	1	10
549.616	1	2
549.786	1	7
549.956	1	6
550.126	1	0
550.296	1	5
550.466	1	4
550.636	1	9
550.806	1	11
550.976	1	-1
551.146	1	2
551.316	1	2
551.486	1	4
551.656	1	-15
551.826	1	9
551.996	1	14
552.166	1	3
552.336	1	7
552.506	1	0
552.676	1	2
552.846	1	4
553.016	1	-2
553.186	1	-1
553.356	1	-4
553.526	1	-9
553.696	1	11
553.866	1	9
554.036	1	3
554.206	1	7
554.376	1	-5
554.546	1	-1
554.716	1	-2
554.886	1	-5
555.056	1	-2
555.226	1	-13
555.396	1	7
555.566	1	8
555.736	1	3
555.906	1	4
556.076	1	5
556.246	1	8
556.416	1	9
556.586	1	11
556.756	1	3
556.926	1	2
557.096	1	6
557.266	1	4
557.436	1	7
557.606	1	-2
557.776	1	1
557.946	1	3
558.116	1	6
558.286	1	5
558.456	1	3
558.626	1	12
558.796	1	8
558.966	1	5
559.136	1	-1
559.306	1	3
559.476	1	0
559.646	1	-1
559.816	1	3
559.986	1	0
560.155	1	-1
560.325	1	-12
560.495	1	10
560.665	1	8
560.835	1	5
561.005	1	0
561.175	1	-4
561.345	1	6
561.515	1	-8
561.685	1	6
561.855	1	15
562.025	1	-5
562.195	1	0
562.365	1	6
562.535	1	8
562.705	1	8
562.875	1	3
563.045	1	10
563.215	1	4
563.385	1	-1
563.555	1	13
563.725	1	2
563.895	1	4
564.064	1	13
564.234	1	5
564.404	1	-5
564.574	1	3
564.744	1	7
564.914	1	-11
565.084	1	-4
565.254	1	-2
565.424	1	-4
565.594	1	-5
565.764	1	9
565.934	1	0
566.104	1	-5
566.274	1	15
566.444	1	13
566.614	1	0
566.783	1	-3
566.953	1	4
567.123	1	9
567.293	1	4
567.463	1	3
567.633	1	-3
567.803	1	-10
567.973	1	-6
568.143	1	-12
568.313	1	0
568.483	1	0
568.653	1	-1
568.823	1	11
568.993	1	-4
569.162	1	7
569.332	1	-6
569.502	1	-4
569.672	1	12
569.842	1	-2
570.012	1	-2
570.182	1	-7
570.352	1	9
570.522	1	8
570.692	1	2
570.862	1	5
571.031	1	7
571.201	1	9
571.371	1	-3
571.541	1	-11
571.711	1	5
571.881	1	5
572.051	1	-3
572.221	1	5
572.391	1	5
572.561	1	-3
572.731	1	-3
572.900	1	9
573.070	1	8
573.240	1	-7
573.410	1	-8
573.580	1	-3
573.750	1	9
573.920	1	1
574.090	1	0
574.260	1	-4
574.430	1	-7
574.599	1	0
574.769	1	0
574.939	1	-4
575.109	1	1
575.279	1	8
575.449	1	4
575.619	1	10
575.789	1	12
575.959	1	2
576.128	1	-5
576.298	1	1
576.468	1	2
576.638	1	-2
576.808	1	-3
576.978	1	-2
577.148	1	7
577.318	1	5
577.487	1	6
577.657	1	-8
577.827	1	0
577.997	1	7
578.167	1	7
578.337	1	3
578.507	1	4
578.677	1	-2
578.846	1	1
579.016	1	20
579.186	1	-4
579.356	1	0
579.526	1	0
579.696	1	-1
579.866	1	10
580.036	1	-6
580.205	1	-3
580.375	1	-5
580.545	1	-2
580.715	1	9
580.885	1	0
581.055	1	0
581.225	1	-6
581.394	1	-7
581.564	1	4
581.734	1	7
581.904	1	0
582.074	1	-2
582.244	1	4
582.414	1	-4
582.583	1	-6
582.753	1	1
582.923	1	0
583.093	1	-5
583.263	1	-2
583.433	1	0
583.603	1	8
583.772	1	2
583.942	1	3
584.112	1	-3
584.282	1	5
584.452	1	0
584.622	1	9
584.791	1	-3
584.961	1	9
585.131	1	-3
585.301	1	7
585.471	1	0
585.641	1	10
585.811	1	-7
585.980	1	0
586.150	1	4
586.320	1	-10
586.490	1	-5
586.660	1	2
586.830	1	-11
586.999	1	2
587.169	1	-1
587.339	1	10
587.509	1	4
587.679	1	0
587.849	1	11
588.018	1	6
588.188	1	-6
588.358	1	1
588.528	1	5
588.698	1	2
588.867	1	0
589.037	1	12
589.207	1	-7
589.377	1	3
589.547	1	-1
589.717	1	-4
589.886	1	0
590.056	1	3
590.226	1	3
590.396	1	7
590.566	1	2
590.735	1	9
590.905	1	-4
591.075	1	-16
591.245	1	2
591.415	1	-5
591.585	1	4
591.754	1	14
591.924	1	-3
592.094	1	6
592.264	1	-1
592.434	1	1
592.603	1	-4
592.773	1	-10
592.943	1	5
593.113	1	-8
593.283	1	-1
593.452	1	-6
593.622	1	-3
593.792	1	1
593.962	1	5
594.132	1	-5
594.301	1	4
594.471	1	0
594.641	1	-13
594.811	1	-3
594.981	1	-1
595.150	1	7
595.320	1	15
595.490	1	-10
595.660	1	4
595.829	1	0
595.999	1	2
596.169	1	-1
596.339	1	1
596.509	1	-1
596.678	1	6
596.848	1	9
597.018	1	7
597.188	1	7
597.358	1	-6
597.527	1	-8
597.697	1	-2
597.867	1	1
598.037	1	-9
598.206	1	2
598.376	1	1
598.546	1	-5
598.716	1	-9
598.885	1	-9
599.055	1	8
599.225	1	0
599.395	1	1
599.565	1	3
599.734	1	-2
599.904	1	-2
600.074	1	1
600.244	1	0
600.413	1	4
600.583	1	-3
600.753	1	4
600.923	1	11
601.092	1	-14
601.262	1	4
601.432	1	-4
601.602	1	4
601.771	1	2
601.941	1	-5
602.111	1	-1
602.281	1	8
602.451	1	1
602.620	1	6
602.790	1	2
602.960	1	-5
603.130	1	7
603.299	1	11
603.469	1	-1
603.639	1	12
603.809	1	6
603.978	1	1
604.148	1	-3
604.318	1	2
604.487	1	14
604.657	1	4
604.827	1	-17
604.997	1	1
605.166	1	-3
605.336	1	-3
605.506	1	10
605.676	1	2
605.845	1	-4
606.015	1	6
606.185	1	1
606.355	1	12
606.524	1	-5
606.694	1	11
606.864	1	-3
607.034	1	-2
607.203	1	12
607.373	1	-2
607.543	1	-9
607.712	1	17
607.882	1	4
608.052	1	4
608.222	1	2
608.391	1	1
608.561	1	3
608.731	1	-3
608.901	1	2
609.070	1	9
609.240	1	-3
609.410	1	5
609.579	1	8
609.749	1	1
609.919	1	-6
610.089	1	-7
610.258	1	3
610.428	1	-5
610.598	1	-2
610.767	1	1
610.937	1	3
611.107	1	5
611.277	1	1
611.446	1	-6
611.616	1	-4
611.786	1	16
611.955	1	1
612.125	1	3
612.295	1	-2
612.465	1	-5
612.634	1	0
612.804	1	10
612.974	1	0
613.143	1	1
613.313	1	4
613.483	1	5
613.652	1	-9
613.822	1	8
613.992	1	-3
614.162	1	-4
614.331	1	10
614.501	1	1
614.671	1	7
614.840	1	2
615.010	1	3
615.180	1	-6
615.349	1	-12
615.519	1	12
615.689	1	-2
615.858	1	5
616.028	1	2
616.198	1	6
616.368	1	-6
616.537	1	-4
616.707	1	-3
616.877	1	-2
617.046	1	-2
617.216	1	0
617.386	1	0
617.555	1	-12
617.725	1	0
617.895	1	-3
618.064	1	2
618.234	1	3
618.404	1	12
618.573	1	0
618.743	1	-2
618.913	1	-2
619.082	1	-1
619.252	1	-2
619.422	1	-1
619.591	1	2
619.761	1	0
619.931	1	1
620.100	1	5
620.270	1	-2
620.440	1	2
620.609	1	4
620.779	1	4
620.949	1	4
621.118	1	0
621.288	1	5
621.458	1	4
621.627	1	-4
621.797	1	7
621.967	1	-6
622.136	1	5
622.306	1	5
622.476	1	5
622.645	1	8
622.815	1	3
622.985	1	9
623.154	1	4
623.324	1	4
623.494	1	2
623.663	1	4
623.833	1	-7
624.002	1	-14
624.172	1	8
624.342	1	-8
624.511	1	5
624.681	1	-3
624.851	1	-11
625.020	1	-1
625.190	1	3
625.360	1	-4
625.529	1	3
625.699	1	0
625.869	1	12
626.038	1	-2
626.208	1	-2
626.377	1	7
626.547	1	0
626.717	1	0
626.886	1	1
627.056	1	-3
627.226	1	13
627.395	1	5
627.565	1	11
627.735	1	-2
627.904	1	4
628.074	1	11
628.243	1	-6
628.413	1	-2
628.583	1	9
628.752	1	9
628.922	1	1
629.091	1	10
629.261	1	15
629.431	1	-9
629.600	1	3
629.770	1	9
629.940	1	0
630.109	1	-2
630.279	1	0
630.448	1	-4
630.618	1	6
630.788	1	4
630.957	1	0
631.127	1	6
631.297	1	-9
631.466	1	7
631.636	1	-4
631.805	1	4
631.975	1	-5
632.145	1	-10
632.314	1	11
632.484	1	-5
632.653	1	-3
632.823	1	16
632.993	1	4
633.162	1	2
633.332	1	7
633.501	1	2
633.671	1	6
633.841	1	6
634.010	1	9
634.180	1	7
634.349	1	-3
634.519	1	9
634.689	1	6
634.858	1	8
635.028	1	1
635.197	1	-2
635.367	1	-1
635.537	1	-5
635.706	1	1
635.876	1	4
636.045	1	0
636.215	1	6
636.384	1	6
636.554	1	3
636.724	1	3
636.893	1	0
637.063	1	2
637.232	1	10
637.402	1	12
637.572	1	4
637.741	1	14
637.911	1	-4
638.080	1	0
638.250	1	-6
638.419	1	8
638.589	1	7
638.759	1	0
638.928	1	0
639.098	1	3
639.267	1	0
639.437	1	-9
639.606	1	12
639.776	1	4
639.946	1	9
640.115	1	-2
640.285	1	3
640.454	1	6
640.624	1	5
640.793	1	12
640.963	1	-3
641.132	1	0
641.302	1	3
641.472	1	-1
641.641	1	-1
641.811	1	8
641.980	1	-12
642.150	1	3
642.319	1	-3
642.489	1	-5
642.659	1	-2
642.828	1	4
642.998	1	-9
643.167	1	12
643.337	1	5
643.506	1	-2
643.676	1	-2
643.845	1	4
644.015	1	5
644.184	1	0
644.354	1	3
644.524	1	2
644.693	1	11
644.863	1	-4
645.032	1	-6
645.202	1	2
645.371	1	1
645.541	1	-13
645.710	1	-2
645.880	1	9
646.049	1	12
646.219	1	1
646.388	1	-7
646.558	1	2
646.728	1	7
646.897	1	-4
647.067	1	9
647.236	1	1
647.406	1	-2
647.575	1	7
647.745	1	2
647.914	1	3
648.084	1	5
648.253	1	2
648.423	1	-1
648.592	1	-5
648.762	1	2
648.931	1	8
649.101	1	2
649.270	1	16
649.440	1	1
649.610	1	16
649.779	1	-3
649.949	1	7
650.118	1	-5
650.288	1	-8
650.457	1	6
650.627	1	10
650.796	1	1
650.966	1	-2
651.135	1	8
651.305	1	7
651.474	1	6
651.644	1	2
651.813	1	6
651.983	1	7
652.152	1	-1
652.322	1	4
652.491	1	8
652.661	1	7
652.830	1	8
653.000	1	4
653.169	1	1
653.339	1	6
653.508	1	0
653.678	1	-1
653.847	1	4
654.017	1	1
654.186	1	-9
654.356	1	14
654.525	1	5
654.695	1	5
654.864	1	-1
655.034	1	5
655.203	1	5
655.373	1	3
655.542	1	2
655.712	1	-1
655.881	1	6
656.051	1	8
656.220	1	2
656.390	1	8
656.559	1	-5
656.729	1	7
656.898	1	0
657.068	1	-5
657.237	1	5
657.406	1	5
657.576	1	-6
657.745	1	3
657.915	1	11
658.084	1	11
658.254	1	4
658.423	1	-9
658.593	1	4
658.762	1	3
658.932	1	-4
659.101	1	-7
659.271	1	-1
659.440	1	9
659.610	1	1
659.779	1	-8
659.949	1	-3
660.118	1	0
660.288	1	7
660.457	1	-7
660.626	1	1
660.796	1	-3
660.965	1	-8
661.135	1	1
661.304	1	0
661.474	1	4
661.643	1	-1
661.813	1	1
661.982	1	0
662.152	1	-2
662.321	1	-2
662.491	1	-6
662.660	1	0
662.829	1	-6
662.999	1	5
663.168	1	-6
663.338	1	-7
663.507	1	0
663.677	1	-7
663.846	1	11
664.016	1	-4
664.185	1	3
664.354	1	8
664.524	1	-8
664.693	1	0
664.863	1	7
665.032	1	1
665.202	1	-7
665.371	1	9
665.541	1	-1
665.710	1	-9
665.879	1	7
666.049	1	7
666.218	1	-7
666.388	1	-2
666.557	1	9
666.727	1	-15
666.896	1	-1
667.065	1	8
667.235	1	4
667.404	1	-2
667.574	1	-1
667.743	1	2
667.913	1	1
668.082	1	-5
668.251	1	2
668.421	1	5
668.590	1	-3
668.760	1	6
668.929	1	0
669.099	1	-5
669.268	1	1
669.437	1	6
669.607	1	-14
669.776	1	-2
669.946	1	5
670.115	1	7
670.285	1	4
670.454	1	2
670.623	1	6
670.793	1	4
670.962	1	-5
671.132	1	4
671.301	1	4
671.470	1	-9
671.640	1	-16
671.809	1	-1
671.979	1	16
672.148	1	3
672.317	1	2
672.487	1	-7
672.656	1	6
672.826	1	-6
672.995	1	-5
673.164	1	10
673.334	1	3
673.503	1	13
673.673	1	17
673.842	1	3
674.011	1	0
674.181	1	-15
674.350	1	0
674.520	1	-3
674.689	1	2
674.858	1	3
675.028	1	-10
675.197	1	2
675.367	1	6
675.536	1	14
675.705	1	-2
675.875	1	15
676.044	1	-14
676.214	1	-3
676.383	1	-7
676.552	1	-2
676.722	1	3
676.891	1	-6
677.060	1	8
677.230	1	11
677.399	1	-1
677.569	1	0
677.738	1	-7
677.907	1	-14
678.077	1	2
678.246	1	-2
678.416	1	1
678.585	1	6
678.754	1	-2
678.924	1	-16
679.093	1	4
679.262	1	4
679.432	1	-4
679.601	1	-1
679.771	1	7
679.940	1	-6
680.109	1	8
680.279	1	-11
680.448	1	0
680.617	1	-2
680.787	1	1
680.956	1	-3
681.125	1	3
681.295	1	5
681.464	1	-6
681.634	1	7
681.803	1	-11
681.972	1	-5
682.142	1	7
682.311	1	5
682.480	1	-2
682.650	1	-3
682.819	1	-3
682.988	1	-6
683.158	1	0
683.327	1	5
683.496	1	-10
683.666	1	-1
683.835	1	8
684.004	1	-1
684.174	1	1
684.343	1	4
684.512	1	3
684.682	1	2
684.851	1	0
685.021	1	12
685.190	1	13
685.359	1	-3
685.529	1	4
685.698	1	3
685.867	1	-1
686.037	1	4
686.206	1	3
686.375	1	6
686.545	1	10
686.714	1	-4
686.883	1	0
687.053	1	8
687.222	1	-7
687.391	1	-8
687.561	1	8
687.730	1	-1
687.899	1	5
688.069	1	-1
688.238	1	5
688.407	1	8
688.577	1	7
688.746	1	6
