340.368	1	5
340.539	1	4
340.710	1	5
340.881	1	-4
341.052	1	9
341.223	1	21
341.394	1	-4
341.565	1	-16
341.737	1	8
341.908	1	9
342.079	1	-11
342.250	1	8
342.421	1	-8
342.592	1	-4
342.763	1	-1
342.934	1	2
343.105	1	11
343.276	1	0
343.447	1	-2
343.618	1	3
343.789	1	-1
343.960	1	-16
344.131	1	-5
344.302	1	-3
344.473	1	-4
344.644	1	0
344.815	1	8
344.986	1	4
345.157	1	-6
345.328	1	0
345.499	1	8
345.670	1	3
345.841	1	-2
346.012	1	1
346.183	1	1
346.354	1	2
346.526	1	5
346.697	1	-2
346.868	1	1
347.039	1	-2
347.210	1	-4
347.381	1	5
347.552	1	1
347.723	1	8
347.894	1	-3
348.065	1	5
348.236	1	1
348.407	1	-12
348.578	1	4
348.749	1	1
348.920	1	1
349.091	1	2
349.262	1	-6
349.433	1	-4
349.604	1	12
349.775	1	-2
349.946	1	15
350.117	1	13
350.288	1	-3
350.459	1	4
350.630	1	-12
350.801	1	-3
350.972	1	1
351.143	1	-5
351.314	1	-8
351.485	1	-1
351.656	1	7
351.827	1	-3
351.998	1	-2
352.169	1	6
352.340	1	7
352.511	1	-11
352.682	1	-10
352.853	1	-7
353.024	1	2
353.195	1	-2
353.366	1	5
353.537	1	3
353.708	1	6
353.879	1	10
354.050	1	-2
354.221	1	-3
354.392	1	0
354.563	1	5
354.734	1	1
354.905	1	0
355.076	1	1
355.247	1	-5
355.418	1	-5
355.589	1	4
355.760	1	3
355.931	1	-4
356.102	1	0
356.273	1	-4
356.444	1	-3
356.615	1	9
356.785	1	1
356.956	1	4
357.127	1	0
357.298	1	2
357.469	1	-2
357.640	1	8
357.811	1	16
357.982	1	-15
358.153	1	9
358.324	1	-5
358.495	1	12
358.666	1	0
358.837	1	-3
359.008	1	6
359.179	1	6
359.350	1	1
359.521	1	-3
359.692	1	-1
359.863	1	-3
360.034	1	4
360.205	1	-5
360.376	1	3
360.547	1	-4
360.718	1	-1
360.889	1	0
361.060	1	4
361.231	1	0
361.401	1	-10
361.572	1	0
361.743	1	-3
361.914	1	3
362.085	1	-2
362.256	1	5
362.427	1	-8
362.598	1	-2
362.769	1	-3
362.940	1	-5
363.111	1	5
363.282	1	0
363.453	1	1
363.624	1	-2
363.795	1	6
363.966	1	-4
364.137	1	0
364.308	1	-9
364.478	1	4
364.649	1	0
364.820	1	2
364.991	1	6
365.162	1	-1
365.333	1	14
365.504	1	-5
365.675	1	5
365.846	1	-1
366.017	1	8
366.188	1	-8
366.359	1	4
366.530	1	6
366.701	1	-3
366.871	1	8
367.042	1	6
367.213	1	-1
367.384	1	2
367.555	1	-3
367.726	1	7
367.897	1	-3
368.068	1	-9
368.239	1	2
368.410	1	-6
368.581	1	-8
368.752	1	-12
368.923	1	-8
369.093	1	0
369.264	1	7
369.435	1	2
369.606	1	-1
369.777	1	1
369.948	1	-1
370.119	1	5
370.290	1	-6
370.461	1	0
370.632	1	-2
370.803	1	-7
370.973	1	7
371.144	1	8
371.315	1	2
371.486	1	9
371.657	1	9
371.828	1	-1
371.999	1	1
372.170	1	11
372.341	1	9
372.512	1	-5
372.682	1	-6
372.853	1	8
373.024	1	-2
373.195	1	-9
373.366	1	1
373.537	1	-1
373.708	1	-7
373.879	1	10
374.050	1	3
374.220	1	1
374.391	1	4
374.562	1	0
374.733	1	7
374.904	1	4
375.075	1	-3
375.246	1	-6
375.417	1	5
375.588	1	-4
375.758	1	-3
375.929	1	4
376.100	1	9
376.271	1	0
376.442	1	-3
376.613	1	-5
376.784	1	1
376.955	1	-6
377.125	1	-10
377.296	1	2
377.467	1	-1
377.638	1	-1
377.809	1	5
377.980	1	4
378.151	1	-11
378.321	1	-2
378.492	1	-1
378.663	1	-4
378.834	1	5
379.005	1	-2
379.176	1	-3
379.347	1	4
379.518	1	-10
379.688	1	-4
379.859	1	-5
380.030	1	-7
380.201	1	-6
380.372	1	-2
380.543	1	8
380.714	1	7
380.884	1	-3
381.055	1	4
381.226	1	-2
381.397	1	-6
381.568	1	4
381.739	1	3
381.910	1	-2
382.080	1	-13
382.251	1	-1
382.422	1	13
382.593	1	2
382.764	1	-5
382.935	1	-1
383.105	1	-1
383.276	1	-8
383.447	1	10
383.618	1	6
383.789	1	-4
383.960	1	-2
384.130	1	-5
384.301	1	-4
384.472	1	-13
384.643	1	9
384.814	1	5
384.985	1	0
385.156	1	6
385.326	1	11
385.497	1	3
385.668	1	1
385.839	1	8
386.010	1	5
386.180	1	5
386.351	1	4
386.522	1	9
386.693	1	-11
386.864	1	-2
387.035	1	-8
387.205	1	3
387.376	1	12
387.547	1	-4
387.718	1	6
387.889	1	12
388.060	1	-5
388.230	1	0
388.401	1	11
388.572	1	4
388.743	1	6
388.914	1	8
389.084	1	10
389.255	1	0
389.426	1	6
389.597	1	0
389.768	1	-3
389.939	1	11
390.109	1	3
390.280	1	12
390.451	1	17
390.622	1	0
390.793	1	0
390.963	1	4
391.134	1	3
391.305	1	16
391.476	1	4
391.647	1	5
391.817	1	-3
391.988	1	0
392.159	1	9
392.330	1	5
392.501	1	12
392.671	1	7
392.842	1	4
393.013	1	6
393.184	1	5
393.355	1	4
393.525	1	6
393.696	1	-3
393.867	1	1
394.038	1	-2
394.208	1	7
394.379	1	-1
394.550	1	4
394.721	1	3
394.892	1	12
395.062	1	-8
395.233	1	8
395.404	1	-2
395.575	1	-3
395.746	1	-8
395.916	1	-5
396.087	1	7
396.258	1	-4
396.429	1	-2
396.599	1	2
396.770	1	6
396.941	1	13
397.112	1	-10
397.283	1	8
397.453	1	-1
397.624	1	2
397.795	1	6
397.966	1	10
398.136	1	-2
398.307	1	-3
398.478	1	-6
398.649	1	3
398.819	1	7
398.990	1	5
399.161	1	0
399.332	1	12
399.503	1	10
399.673	1	7
399.844	1	0
400.015	1	-2
400.186	1	3
400.356	1	-7
400.527	1	-3
400.698	1	3
400.869	1	6
401.039	1	-7
401.210	1	-1
401.381	1	5
401.552	1	10
401.722	1	6
401.893	1	2
402.064	1	-4
402.235	1	3
402.405	1	-6
402.576	1	15
402.747	1	-3
402.918	1	-3
403.088	1	-5
403.259	1	-12
403.430	1	-5
403.601	1	-11
403.771	1	6
403.942	1	6
404.113	1	10
404.284	1	-2
404.454	1	9
404.625	1	-4
404.796	1	-5
404.967	1	11
405.137	1	10
405.308	1	-3
405.479	1	2
405.649	1	1
405.820	1	10
405.991	1	1
406.162	1	-8
406.332	1	-4
406.503	1	-6
406.674	1	4
406.845	1	-3
407.015	1	-3
407.186	1	14
407.357	1	6
407.527	1	0
407.698	1	-10
407.869	1	-7
408.040	1	-4
408.210	1	-9
408.381	1	3
408.552	1	12
408.722	1	-3
408.893	1	-5
409.064	1	5
409.235	1	-11
409.405	1	3
409.576	1	9
409.747	1	1
409.917	1	-3
410.088	1	-3
410.259	1	7
410.430	1	14
410.600	1	1
410.771	1	3
410.942	1	-2
411.112	1	10
411.283	1	-17
411.454	1	5
411.625	1	6
411.795	1	4
411.966	1	2
412.137	1	4
412.307	1	8
412.478	1	-2
412.649	1	6
412.819	1	4
412.990	1	2
413.161	1	-1
413.332	1	0
413.502	1	0
413.673	1	7
413.844	1	-2
414.014	1	-1
414.185	1	14
414.356	1	-9
414.526	1	1
414.697	1	3
414.868	1	-1
415.038	1	-10
415.209	1	2
415.380	1	-3
415.550	1	-3
415.721	1	4
415.892	1	-9
416.063	1	16
416.233	1	3
416.404	1	-4
416.575	1	0
416.745	1	3
416.916	1	-2
417.087	1	2
417.257	1	3
417.428	1	-3
417.599	1	9
417.769	1	3
417.940	1	3
418.111	1	0
418.281	1	-4
418.452	1	-1
418.623	1	-9
418.793	1	3
418.964	1	4
419.135	1	10
419.305	1	1
419.476	1	3
419.647	1	2
419.817	1	6
419.988	1	4
420.159	1	-6
420.329	1	6
420.500	1	4
420.671	1	2
420.841	1	3
421.012	1	7
421.183	1	4
421.353	1	13
421.524	1	-5
421.695	1	8
421.865	1	1
422.036	1	1
422.206	1	-3
422.377	1	-3
422.548	1	3
422.718	1	1
422.889	1	3
423.060	1	3
423.230	1	10
423.401	1	-11
423.572	1	1
423.742	1	1
423.913	1	12
424.084	1	1
424.254	1	5
424.425	1	8
424.595	1	-11
424.766	1	-3
424.937	1	-1
425.107	1	2
425.278	1	-4
425.449	1	0
425.619	1	8
425.790	1	3
425.961	1	4
426.131	1	6
426.302	1	-2
426.472	1	-9
426.643	1	4
426.814	1	7
426.984	1	-1
427.155	1	-10
427.326	1	-1
427.496	1	3
427.667	1	4
427.837	1	-2
428.008	1	2
428.179	1	-9
428.349	1	-2
428.520	1	-4
428.691	1	2
428.861	1	-1
429.032	1	-16
429.202	1	7
429.373	1	-9
429.544	1	-4
429.714	1	7
429.885	1	2
430.055	1	-6
430.226	1	1
430.397	1	0
430.567	1	2
430.738	1	-2
430.909	1	-5
431.079	1	8
431.250	1	-5
431.420	1	6
431.591	1	1
431.762	1	-2
431.932	1	-1
432.103	1	6
432.273	1	-4
432.444	1	5
432.615	1	4
432.785	1	0
432.956	1	-4
433.126	1	4
433.297	1	1
433.468	1	0
433.638	1	-2
433.809	1	4
433.979	1	2
434.150	1	-13
434.320	1	-5
434.491	1	-7
434.662	1	-2
434.832	1	-7
435.003	1	3
435.173	1	4
435.344	1	2
435.515	1	3
435.685	1	6
435.856	1	-11
436.026	1	1
436.197	1	-8
436.368	1	-2
436.538	1	15
436.709	1	-3
436.879	1	-2
437.050	1	6
437.220	1	8
437.391	1	-1
437.562	1	6
437.732	1	-1
437.903	1	-3
438.073	1	1
438.244	1	-7
438.414	1	0
438.585	1	2
438.756	1	2
438.926	1	-1
439.097	1	-2
439.267	1	5
439.438	1	1
439.608	1	0
439.779	1	-3
439.949	1	-3
440.120	1	-6
440.291	1	-13
440.461	1	-19
440.632	1	4
440.802	1	1
440.973	1	-1
441.143	1	4
441.314	1	4
441.485	1	-6
441.655	1	10
441.826	1	-8
441.996	1	0
442.167	1	-4
442.337	1	2
442.508	1	0
442.678	1	-1
442.849	1	11
443.019	1	-8
443.190	1	-6
443.361	1	3
443.531	1	0
443.702	1	1
443.872	1	-2
444.043	1	6
444.213	1	-12
444.384	1	-2
444.554	1	-6
444.725	1	6
444.895	1	3
445.066	1	-8
445.237	1	-9
445.407	1	0
445.578	1	6
445.748	1	-3
445.919	1	3
446.089	1	0
446.260	1	2
446.430	1	-12
446.601	1	-4
446.771	1	2
446.942	1	-1
447.112	1	-3
447.283	1	5
447.453	1	-6
447.624	1	3
447.794	1	-6
447.965	1	-14
448.135	1	-1
448.306	1	-3
448.477	1	-10
448.647	1	11
448.818	1	8
448.988	1	-16
449.159	1	-3
449.329	1	-7
449.500	1	10
449.670	1	3
449.841	1	-5
450.011	1	-3
450.182	1	-13
450.352	1	0
450.523	1	-1
450.693	1	3
450.864	1	-3
451.034	1	3
451.205	1	-6
451.375	1	3
451.546	1	-3
451.716	1	-3
451.887	1	-7
452.057	1	2
452.228	1	-3
452.398	1	2
452.569	1	-5
452.739	1	-6
452.910	1	-4
453.080	1	11
453.251	1	-2
453.421	1	-3
453.592	1	-9
453.762	1	2
453.933	1	13
454.103	1	5
454.274	1	-7
454.444	1	12
454.615	1	-2
454.785	1	-3
454.956	1	-8
455.126	1	-6
455.297	1	-4
455.467	1	6
455.638	1	3
455.808	1	6
455.979	1	5
456.149	1	-5
456.320	1	-11
456.490	1	-5
456.661	1	-6
456.831	1	18
457.001	1	-1
457.172	1	5
457.342	1	-1
457.513	1	5
457.683	1	6
457.854	1	-2
458.024	1	-6
458.195	1	2
458.365	1	-3
458.536	1	7
458.706	1	7
458.877	1	5
459.047	1	-7
459.218	1	8
459.388	1	5
459.559	1	-5
459.729	1	-1
459.899	1	8
460.070	1	8
460.240	1	1
460.411	1	1
460.581	1	12
460.752	1	1
460.922	1	1
461.093	1	-1
461.263	1	-5
461.434	1	11
461.604	1	-3
461.775	1	-3
461.945	1	13
462.115	1	-7
462.286	1	16
462.456	1	-6
462.627	1	2
462.797	1	-3
462.968	1	-15
463.138	1	11
463.309	1	4
463.479	1	18
463.649	1	3
463.820	1	7
463.990	1	1
464.161	1	1
464.331	1	2
464.502	1	10
464.672	1	-5
464.843	1	3
465.013	1	-1
465.183	1	2
465.354	1	-1
465.524	1	2
465.695	1	-1
465.865	1	0
466.036	1	7
466.206	1	-6
466.376	1	-2
466.547	1	5
466.717	1	3
466.888	1	-3
467.058	1	6
467.229	1	1
467.399	1	0
467.569	1	4
467.740	1	-4
467.910	1	-4
468.081	1	2
468.251	1	-4
468.422	1	-5
468.592	1	3
468.762	1	-8
468.933	1	7
469.103	1	-8
469.274	1	-4
469.444	1	5
469.614	1	1
469.785	1	10
469.955	1	4
470.126	1	7
470.296	1	3
470.467	1	0
470.637	1	7
470.807	1	-8
470.978	1	4
471.148	1	-2
471.319	1	0
471.489	1	0
471.659	1	5
471.830	1	8
472.000	1	6
472.171	1	0
472.341	1	-4
472.511	1	7
472.682	1	-4
472.852	1	-5
473.023	1	0
473.193	1	-1
473.363	1	-13
473.534	1	1
473.704	1	4
473.875	1	8
474.045	1	-10
474.215	1	-12
474.386	1	8
474.556	1	-6
474.727	1	5
474.897	1	-10
475.067	1	7
475.238	1	-6
475.408	1	4
475.578	1	-3
475.749	1	-10
475.919	1	1
476.090	1	-1
476.260	1	1
476.430	1	2
476.601	1	1
476.771	1	5
476.942	1	-2
477.112	1	4
477.282	1	-7
477.453	1	-2
477.623	1	12
477.793	1	7
477.964	1	3
478.134	1	9
478.305	1	-6
478.475	1	-9
478.645	1	-1
478.816	1	3
478.986	1	-8
479.156	1	4
479.327	1	-5
479.497	1	-2
479.667	1	11
479.838	1	3
480.008	1	1
480.179	1	-1
480.349	1	-15
480.519	1	5
480.690	1	1
480.860	1	-5
481.030	1	-5
481.201	1	5
481.371	1	-1
481.541	1	8
481.712	1	10
481.882	1	-9
482.053	1	5
482.223	1	-8
482.393	1	-4
482.564	1	-9
482.734	1	-1
482.904	1	6
483.075	1	4
483.245	1	-1
483.415	1	8
483.586	1	0
483.756	1	-1
483.926	1	6
484.097	1	-9
484.267	1	-3
484.437	1	-17
484.608	1	-2
484.778	1	3
484.948	1	-5
485.119	1	0
485.289	1	16
485.459	1	6
485.630	1	-5
485.800	1	-5
485.970	1	7
486.141	1	-9
486.311	1	2
486.481	1	2
486.652	1	10
486.822	1	13
486.992	1	-16
487.163	1	0
487.333	1	5
487.503	1	-7
487.674	1	-6
487.844	1	7
488.014	1	4
488.185	1	-3
488.355	1	-6
488.525	1	5
488.696	1	-8
488.866	1	0
489.036	1	8
489.207	1	8
489.377	1	1
489.547	1	-1
489.718	1	-9
489.888	1	0
490.058	1	2
490.228	1	-11
490.399	1	6
490.569	1	13
490.739	1	8
490.910	1	-13
491.080	1	-1
491.250	1	6
491.421	1	0
491.591	1	-11
491.761	1	6
491.932	1	4
492.102	1	-6
492.272	1	6
492.442	1	5
492.613	1	9
492.783	1	-9
492.953	1	1
493.124	1	3
493.294	1	8
493.464	1	-4
493.635	1	2
493.805	1	9
493.975	1	3
494.145	1	5
494.316	1	-3
494.486	1	2
494.656	1	5
494.827	1	-5
494.997	1	-7
495.167	1	5
495.337	1	8
495.508	1	-4
495.678	1	10
495.848	1	2
496.019	1	-3
496.189	1	7
496.359	1	-1
496.529	1	-6
496.700	1	-1
496.870	1	4
497.040	1	-3
497.211	1	7
497.381	1	-10
497.551	1	16
497.721	1	-4
497.892	1	2
498.062	1	3
498.232	1	-4
498.403	1	5
498.573	1	-3
498.743	1	0
498.913	1	9
499.084	1	-8
499.254	1	-3
499.424	1	11
499.594	1	9
499.765	1	-7
499.935	1	-11
500.105	1	-4
500.275	1	12
500.446	1	11
500.616	1	1
500.786	1	5
500.956	1	5
501.127	1	5
501.297	1	4
501.467	1	9
501.638	1	3
501.808	1	-15
501.978	1	4
502.148	1	10
502.319	1	2
502.489	1	9
502.659	1	4
502.829	1	-1
503.000	1	3
503.170	1	-1
503.340	1	-3
503.510	1	0
503.681	1	1
503.851	1	-14
504.021	1	15
504.191	1	-1
504.362	1	13
504.532	1	-15
504.702	1	-1
504.872	1	-3
505.042	1	5
505.213	1	4
505.383	1	4
505.553	1	6
505.723	1	6
505.894	1	0
506.064	1	1
506.234	1	3
506.404	1	-2
506.575	1	-3
506.745	1	-6
506.915	1	-4
507.085	1	-3
507.256	1	-4
507.426	1	3
507.596	1	5
507.766	1	-1
507.936	1	2
508.107	1	-2
508.277	1	-2
508.447	1	4
508.617	1	2
508.788	1	-4
508.958	1	7
509.128	1	7
509.298	1	9
509.468	1	4
509.639	1	5
509.809	1	0
509.979	1	-3
510.149	1	-3
510.319	1	-3
510.490	1	1
510.660	1	6
510.830	1	-5
511.000	1	10
511.171	1	11
511.341	1	-10
511.511	1	-4
511.681	1	5
511.851	1	-6
512.022	1	-6
512.192	1	3
512.362	1	-1
512.532	1	-3
512.702	1	-7
512.873	1	9
513.043	1	5
513.213	1	-5
513.383	1	-10
513.553	1	-9
513.724	1	5
513.894	1	-5
514.064	1	1
514.234	1	3
514.404	1	1
514.575	1	1
514.745	1	-9
514.915	1	13
515.085	1	4
515.255	1	-5
515.425	1	0
515.596	1	0
515.766	1	-7
515.936	1	2
516.106	1	-7
516.276	1	5
516.447	1	-2
516.617	1	-1
516.787	1	-9
516.957	1	0
517.127	1	0
517.297	1	2
517.468	1	7
517.638	1	5
517.808	1	-1
517.978	1	-2
518.148	1	2
518.319	1	3
518.489	1	2
518.659	1	6
518.829	1	-6
518.999	1	-12
519.169	1	4
519.340	1	0
519.510	1	-1
519.680	1	-7
519.850	1	-3
520.020	1	-8
520.190	1	2
520.361	1	4
520.531	1	6
520.701	1	9
520.871	1	-4
521.041	1	7
521.211	1	6
521.382	1	0
521.552	1	8
521.722	1	9
521.892	1	-7
522.062	1	-1
522.232	1	-4
522.402	1	-1
522.573	1	1
522.743	1	4
522.913	1	2
523.083	1	-7
523.253	1	-1
523.423	1	0
523.593	1	-8
523.764	1	8
523.934	1	7
524.104	1	-6
524.274	1	3
524.444	1	-1
524.614	1	1
524.784	1	11
524.955	1	-4
525.125	1	8
525.295	1	-6
525.465	1	-1
525.635	1	10
525.805	1	4
525.975	1	-12
526.146	1	-2
526.316	1	-9
526.486	1	5
526.656	1	16
526.826	1	10
526.996	1	12
527.166	1	3
527.337	1	-8
527.507	1	-10
527.677	1	13
527.847	1	-3
528.017	1	-10
528.187	1	-3
528.357	1	4
528.527	1	4
528.698	1	-17
528.868	1	-6
529.038	1	4
529.208	1	-15
529.378	1	3
529.548	1	-2
529.718	1	-3
529.888	1	9
530.058	1	-5
530.229	1	2
530.399	1	7
530.569	1	7
530.739	1	-6
530.909	1	-2
531.079	1	10
531.249	1	0
531.419	1	7
531.589	1	-6
531.760	1	10
531.930	1	-1
532.100	1	17
532.270	1	15
532.440	1	-2
532.610	1	6
532.780	1	-9
532.950	1	5
533.120	1	-16
533.290	1	-2
533.461	1	10
533.631	1	7
533.801	1	2
533.971	1	0
534.141	1	13
534.311	1	-2
534.481	1	-2
534.651	1	8
534.821	1	1
534.991	1	-1
535.162	1	0
535.332	1	-5
535.502	1	1
535.672	1	-9
535.842	1	-3
536.012	1	8
536.182	1	-5
536.352	1	-1
536.522	1	3
536.692	1	0
536.862	1	5
537.032	1	-3
537.203	1	-5
537.373	1	3
537.543	1	5
537.713	1	10
537.883	1	1
538.053	1	13
538.223	1	2
538.393	1	0
538.563	1	1
538.733	1	-4
538.903	1	-2
539.073	1	-3
539.243	1	1
539.413	1	-5
539.584	1	-2
539.754	1	-2
539.924	1	2
540.094	1	0
540.264	1	7
540.434	1	-8
540.604	1	5
540.774	1	7
540.944	1	0
541.114	1	-10
541.284	1	-5
541.454	1	10
541.624	1	4
541.794	1	8
541.964	1	2
542.134	1	0
542.305	1	-14
542.475	1	-14
542.645	1	-5
542.815	1	9
542.985	1	-2
543.155	1	-4
543.325	1	4
543.495	1	-3
543.665	1	7
543.835	1	3
544.005	1	-1
544.175	1	-1
544.345	1	-7
544.515	1	-2
544.685	1	2
544.855	1	9
545.025	1	1
545.195	1	-9
545.365	1	13
545.535	1	1
545.705	1	6
545.875	1	-2
546.045	1	13
546.216	1	4
546.386	1	-4
546.556	1	2
546.726	1	-5
546.896	1	1
547.066	1	-2
547.236	1	-13
547.406	1	4
547.576	1	4
547.746	1	8
547.916	1	2
548.086	1	7
548.256	1	3
548.426	1	-5
548.596	1	5
548.766	1	6
548.936	1	-13
549.106	1	3
549.276	1	4
549.446	1	1
549.616	1	8
549.786	1	0
549.956	1	12
550.126	1	-5
550.296	1	5
550.466	1	1
550.636	1	9
550.806	1	4
550.976	1	-1
551.146	1	-2
551.316	1	-6
551.486	1	1
551.656	1	-3
551.826	1	5
551.996	1	6
552.166	1	3
552.336	1	3
552.506	1	5
552.676	1	-3
552.846	1	6
553.016	1	0
553.186	1	-3
553.356	1	-2
553.526	1	5
553.696	1	11
553.866	1	-7
554.036	1	-5
554.206	1	4
554.376	1	-9
554.546	1	-7
554.716	1	-9
554.886	1	7
555.056	1	1
555.226	1	-12
555.396	1	0
555.566	1	6
555.736	1	2
555.906	1	-2
556.076	1	5
556.246	1	-5
556.416	1	7
556.586	1	13
556.756	1	1
556.926	1	-2
557.096	1	-1
557.266	1	6
557.436	1	8
557.606	1	-12
557.776	1	-3
557.946	1	-4
558.116	1	11
558.286	1	3
558.456	1	-5
558.626	1	6
558.796	1	-14
558.966	1	-5
559.136	1	2
559.306	1	-3
559.476	1	-5
559.646	1	-7
559.816	1	0
559.986	1	-9
560.155	1	4
560.325	1	-9
560.495	1	1
560.665	1	13
560.835	1	2
561.005	1	1
561.175	1	0
561.345	1	-2
561.515	1	-9
561.685	1	0
561.855	1	8
562.025	1	-5
562.195	1	0
562.365	1	-4
562.535	1	-2
562.705	1	9
562.875	1	-2
563.045	1	1
563.215	1	0
563.385	1	-1
563.555	1	7
563.725	1	-3
563.895	1	1
564.064	1	10
564.234	1	8
564.404	1	0
564.574	1	0
564.744	1	6
564.914	1	-11
565.084	1	-1
565.254	1	4
565.424	1	0
565.594	1	-5
565.764	1	10
565.934	1	2
566.104	1	5
566.274	1	9
566.444	1	7
566.614	1	-1
566.783	1	1
566.953	1	9
567.123	1	14
567.293	1	3
567.463	1	0
567.633	1	0
567.803	1	1
567.973	1	-8
568.143	1	-1
568.313	1	-9
568.483	1	-2
568.653	1	-2
568.823	1	3
568.993	1	0
569.162	1	-1
569.332	1	-10
569.502	1	1
569.672	1	-3
569.842	1	-3
570.012	1	-2
570.182	1	-12
570.352	1	4
570.522	1	-5
570.692	1	2
570.862	1	11
571.031	1	-1
571.201	1	-2
571.371	1	-1
571.541	1	-10
571.711	1	3
571.881	1	6
572.051	1	6
572.221	1	4
572.391	1	10
572.561	1	3
572.731	1	1
572.900	1	9
573.070	1	10
573.240	1	-6
573.410	1	-8
573.580	1	10
573.750	1	3
573.920	1	-4
574.090	1	0
574.260	1	-1
574.430	1	-4
574.599	1	-5
574.769	1	2
574.939	1	5
575.109	1	3
575.279	1	2
575.449	1	1
575.619	1	13
575.789	1	-1
575.959	1	-6
576.128	1	3
576.298	1	-4
576.468	1	-11
576.638	1	-6
576.808	1	-2
576.978	1	7
577.148	1	6
577.318	1	10
577.487	1	3
577.657	1	-9
577.827	1	7
577.997	1	-10
578.167	1	8
578.337	1	4
578.507	1	-7
578.677	1	3
578.846	1	-7
579.016	1	10
579.186	1	4
579.356	1	-9
579.526	1	-1
579.696	1	-3
579.866	1	6
580.036	1	6
580.205	1	5
580.375	1	-8
580.545	1	11
580.715	1	10
580.885	1	0
581.055	1	3
581.225	1	-1
581.394	1	-23
581.564	1	-2
581.734	1	7
581.904	1	3
582.074	1	-9
582.244	1	6
582.414	1	11
582.583	1	-4
582.753	1	2
582.923	1	4
583.093	1	4
583.263	1	-3
583.433	1	-3
583.603	1	0
583.772	1	-1
583.942	1	11
584.112	1	-2
584.282	1	9
584.452	1	0
584.622	1	-2
584.791	1	5
584.961	1	-8
585.131	1	-2
585.301	1	10
585.471	1	-1
585.641	1	11
585.811	1	-1
585.980	1	-9
586.150	1	-4
586.320	1	-3
586.490	1	-6
586.660	1	3
586.830	1	-5
586.999	1	0
587.169	1	5
587.339	1	2
587.509	1	-11
587.679	1	-3
587.849	1	9
588.018	1	4
588.188	1	1
588.358	1	6
588.528	1	5
588.698	1	-4
588.867	1	6
589.037	1	1
589.207	1	-16
589.377	1	7
589.547	1	0
589.717	1	1
589.886	1	0
590.056	1	3
590.226	1	2
590.396	1	-4
590.566	1	1
590.735	1	6
590.905	1	12
591.075	1	-18
591.245	1	-4
591.415	1	2
591.585	1	-4
591.754	1	-2
591.924	1	1
592.094	1	-1
592.264	1	-1
592.434	1	6
592.603	1	-6
592.773	1	-4
592.943	1	-1
593.113	1	-12
593.283	1	8
593.452	1	-18
593.622	1	-3
593.792	1	-1
593.962	1	5
594.132	1	-10
594.301	1	-3
594.471	1	-2
594.641	1	0
594.811	1	-5
594.981	1	-2
595.150	1	-7
595.320	1	10
595.490	1	-15
595.660	1	-14
595.829	1	0
595.999	1	4
596.169	1	0
596.339	1	-2
596.509	1	8
596.678	1	-8
596.848	1	3
597.018	1	-3
597.188	1	-2
597.358	1	1
597.527	1	-8
597.697	1	-6
597.867	1	2
598.037	1	-3
598.206	1	-3
598.376	1	4
598.546	1	4
598.716	1	-9
598.885	1	-8
599.055	1	0
599.225	1	2
599.395	1	4
599.565	1	5
599.734	1	-12
599.904	1	-11
600.074	1	-4
600.244	1	7
600.413	1	0
600.583	1	-9
600.753	1	-2
600.923	1	9
601.092	1	-15
601.262	1	2
601.432	1	-5
601.602	1	10
601.771	1	9
601.941	1	0
602.111	1	-8
602.281	1	4
602.451	1	2
602.620	1	5
602.790	1	1
602.960	1	-1
603.130	1	10
603.299	1	2
603.469	1	-1
603.639	1	5
603.809	1	4
603.978	1	-8
604.148	1	0
604.318	1	11
604.487	1	-2
604.657	1	-3
604.827	1	-21
604.997	1	6
605.166	1	-4
605.336	1	2
605.506	1	2
605.676	1	-9
605.845	1	-2
606.015	1	0
606.185	1	2
606.355	1	6
606.524	1	-2
606.694	1	4
606.864	1	-6
607.034	1	7
607.203	1	17
607.373	1	-2
607.543	1	-15
607.712	1	1
607.882	1	-11
608.052	1	1
608.222	1	-5
608.391	1	7
608.561	1	4
608.731	1	-15
608.901	1	1
609.070	1	3
609.240	1	-1
609.410	1	4
609.579	1	4
609.749	1	0
609.919	1	-1
610.089	1	-3
610.258	1	3
610.428	1	-4
610.598	1	1
610.767	1	-1
610.937	1	-4
611.107	1	8
611.277	1	-2
611.446	1	0
611.616	1	-7
611.786	1	3
611.955	1	9
612.125	1	7
612.295	1	-2
612.465	1	-3
612.634	1	0
612.804	1	7
612.974	1	12
613.143	1	7
613.313	1	3
613.483	1	5
613.652	1	-9
613.822	1	0
613.992	1	1
614.162	1	2
614.331	1	4
614.501	1	4
614.671	1	1
614.840	1	4
615.010	1	-2
615.180	1	-1
615.349	1	-2
615.519	1	2
615.689	1	0
615.858	1	3
616.028	1	-3
616.198	1	2
616.368	1	-7
616.537	1	-14
616.707	1	-1
616.877	1	-1
617.046	1	0
617.216	1	-2
617.386	1	-3
617.555	1	-14
617.725	1	-5
617.895	1	-7
618.064	1	3
618.234	1	-5
618.404	1	4
618.573	1	-8
618.743	1	3
618.913	1	-6
619.082	1	-3
619.252	1	6
619.422	1	1
619.591	1	-7
619.761	1	5
619.931	1	7
620.100	1	1
620.270	1	1
620.440	1	1
620.609	1	2
620.779	1	-3
620.949	1	-2
621.118	1	6
621.288	1	6
621.458	1	3
621.627	1	-3
621.797	1	-1
621.967	1	-12
622.136	1	13
622.306	1	14
622.476	1	-5
622.645	1	9
622.815	1	4
622.985	1	9
623.154	1	9
623.324	1	7
623.494	1	2
623.663	1	-4
623.833	1	-4
624.002	1	-10
624.172	1	7
624.342	1	-3
624.511	1	3
624.681	1	-3
624.851	1	-6
625.020	1	2
625.190	1	4
625.360	1	-9
625.529	1	1
625.699	1	4
625.869	1	5
626.038	1	6
626.208	1	-5
626.377	1	19
626.547	1	9
626.717	1	-7
626.886	1	-6
627.056	1	-8
627.226	1	-11
627.395	1	-3
627.565	1	6
627.735	1	2
627.904	1	4
628.074	1	-3
628.243	1	-9
628.413	1	-2
628.583	1	-1
628.752	1	14
628.922	1	1
629.091	1	-3
629.261	1	8
629.431	1	-10
629.600	1	-10
629.770	1	11
629.940	1	5
630.109	1	-4
630.279	1	-9
630.448	1	-5
630.618	1	0
630.788	1	3
630.957	1	-14
631.127	1	6
631.297	1	8
631.466	1	5
631.636	1	1
631.805	1	4
631.975	1	12
632.145	1	-16
632.314	1	2
632.484	1	-6
632.653	1	-13
632.823	1	13
632.993	1	5
633.162	1	8
633.332	1	5
633.501	1	-11
633.671	1	-6
633.841	1	5
634.010	1	5
634.180	1	5
634.349	1	3
634.519	1	5
634.689	1	12
634.858	1	6
635.028	1	3
635.197	1	1
635.367	1	-6
635.537	1	-2
635.706	1	-6
635.876	1	-6
636.045	1	-4
636.215	1	-11
636.384	1	5
636.554	1	9
636.724	1	-2
636.893	1	0
637.063	1	8
637.232	1	-3
637.402	1	7
637.572	1	-11
637.741	1	6
637.911	1	-1
638.080	1	0
638.250	1	1
638.419	1	3
638.589	1	9
638.759	1	0
638.928	1	0
639.098	1	-16
639.267	1	4
639.437	1	-9
639.606	1	9
639.776	1	7
639.946	1	4
640.115	1	-2
640.285	1	1
640.454	1	8
640.624	1	-3
640.793	1	9
640.963	1	-9
641.132	1	3
641.302	1	-2
641.472	1	-8
641.641	1	-3
641.811	1	9
641.980	1	-8
642.150	1	-2
642.319	1	-11
642.489	1	2
642.659	1	-9
642.828	1	-6
642.998	1	-4
643.167	1	-1
643.337	1	3
643.506	1	3
643.676	1	-7
643.845	1	-3
644.015	1	6
644.184	1	9
644.354	1	-2
644.524	1	-3
644.693	1	11
644.863	1	-17
645.032	1	1
645.202	1	-9
645.371	1	-4
645.541	1	-3
645.710	1	-3
645.880	1	-1
646.049	1	5
646.219	1	7
646.388	1	-2
646.558	1	-10
646.728	1	7
646.897	1	-9
647.067	1	1
647.236	1	4
647.406	1	-5
647.575	1	-1
647.745	1	0
647.914	1	-6
648.084	1	-2
648.253	1	-4
648.423	1	-15
648.592	1	5
648.762	1	6
648.931	1	3
649.101	1	-1
649.270	1	8
649.440	1	6
649.610	1	7
649.779	1	0
649.949	1	-5
650.118	1	-4
650.288	1	-2
650.457	1	-1
650.627	1	10
650.796	1	-1
650.966	1	-3
651.135	1	8
651.305	1	-9
651.474	1	-2
651.644	1	-11
651.813	1	0
651.983	1	6
652.152	1	-5
652.322	1	9
652.491	1	7
652.661	1	7
652.830	1	5
653.000	1	-1
653.169	1	2
653.339	1	-2
653.508	1	3
653.678	1	-7
653.847	1	6
654.017	1	1
654.186	1	1
654.356	1	11
654.525	1	-4
654.695	1	8
654.864	1	7
655.034	1	-7
655.203	1	3
655.373	1	-7
655.542	1	-5
655.712	1	-12
655.881	1	6
656.051	1	13
656.220	1	-3
656.390	1	-7
656.559	1	5
656.729	1	4
656.898	1	2
657.068	1	-8
657.237	1	-2
657.406	1	2
657.576	1	-5
657.745	1	-13
657.915	1	9
658.084	1	1
658.254	1	3
658.423	1	-8
658.593	1	-1
658.762	1	-6
658.932	1	-4
659.101	1	4
659.271	1	5
659.440	1	4
659.610	1	-4
659.779	1	-3
659.949	1	-7
660.118	1	11
660.288	1	-9
660.457	1	-4
660.626	1	-5
660.796	1	-3
660.965	1	1
661.135	1	1
661.304	1	-1
661.474	1	-7
661.643	1	-5
661.813	1	-4
661.982	1	4
662.152	1	0
662.321	1	-1
662.491	1	-3
662.660	1	6
662.829	1	-5
662.999	1	-4
663.168	1	-5
663.338	1	-4
663.507	1	-7
663.677	1	-11
663.846	1	0
664.016	1	2
664.185	1	-11
664.354	1	1
664.524	1	-4
664.693	1	8
664.863	1	-8
665.032	1	7
665.202	1	-10
665.371	1	0
665.541	1	-1
665.710	1	-5
665.879	1	-4
666.049	1	-4
666.218	1	-12
666.388	1	-13
666.557	1	8
666.727	1	-16
666.896	1	-10
667.065	1	12
667.235	1	-3
667.404	1	-7
667.574	1	2
667.743	1	0
667.913	1	-7
668.082	1	0
668.251	1	8
668.421	1	-3
668.590	1	-3
668.760	1	3
668.929	1	3
669.099	1	-5
669.268	1	0
669.437	1	2
669.607	1	-13
669.776	1	1
669.946	1	13
670.115	1	-1
670.285	1	-2
670.454	1	-3
670.623	1	2
670.793	1	3
670.962	1	1
671.132	1	3
671.301	1	0
671.470	1	6
671.640	1	-16
671.809	1	-2
671.979	1	9
672.148	1	10
672.317	1	-2
672.487	1	-14
672.656	1	3
672.826	1	-21
672.995	1	1
673.164	1	1
673.334	1	7
673.503	1	-2
673.673	1	17
673.842	1	6
674.011	1	10
674.181	1	-4
674.350	1	0
674.520	1	-10
674.689	1	7
674.858	1	4
675.028	1	3
675.197	1	-4
675.367	1	2
675.536	1	-1
675.705	1	-11
675.875	1	3
676.044	1	-2
676.214	1	-2
676.383	1	-3
676.552	1	-3
676.722	1	-2
676.891	1	-10
677.060	1	4
677.230	1	15
677.399	1	-6
677.569	1	5
677.738	1	-3
677.907	1	-9
678.077	1	3
678.246	1	-2
678.416	1	-1
678.585	1	0
678.754	1	0
678.924	1	-5
679.093	1	5
679.262	1	3
679.432	1	4
679.601	1	-7
679.771	1	0
679.940	1	-6
680.109	1	1
680.279	1	-1
680.448	1	-3
680.617	1	-7
680.787	1	5
680.956	1	-4
681.125	1	0
681.295	1	3
681.464	1	-8
681.634	1	-1
681.803	1	-9
681.972	1	-11
682.142	1	13
682.311	1	2
682.480	1	1
682.650	1	-2
682.819	1	11
682.988	1	-10
683.158	1	-2
683.327	1	1
683.496	1	-7
683.666	1	-4
683.835	1	-4
684.004	1	0
684.174	1	-1
684.343	1	4
684.512	1	0
684.682	1	8
684.851	1	-3
685.021	1	-1
685.190	1	16
685.359	1	-7
685.529	1	2
685.698	1	4
685.867	1	6
686.037	1	1
686.206	1	6
686.375	1	2
686.545	1	6
686.714	1	2
686.883	1	-11
687.053	1	0
687.222	1	-1
687.391	1	-9
687.561	1	-2
687.730	1	0
687.899	1	-2
688.069	1	1
688.238	1	3
688.407	1	-3
688.577	1	-4
688.746	1	10
