340.368	1	0
340.539	1	-3
340.710	1	-7
340.881	1	-4
341.052	1	-1
341.223	1	14
341.394	1	-4
341.565	1	1
341.737	1	4
341.908	1	5
342.079	1	3
342.250	1	-2
342.421	1	-6
342.592	1	-10
342.763	1	1
342.934	1	4
343.105	1	19
343.276	1	-3
343.447	1	0
343.618	1	-8
343.789	1	-11
343.960	1	-4
344.131	1	-2
344.302	1	-6
344.473	1	3
344.644	1	-11
344.815	1	2
344.986	1	5
345.157	1	13
345.328	1	2
345.499	1	3
345.670	1	11
345.841	1	2
346.012	1	15
346.183	1	-3
346.354	1	3
346.526	1	4
346.697	1	-3
346.868	1	2
347.039	1	6
347.210	1	1
347.381	1	3
347.552	1	4
347.723	1	6
347.894	1	0
348.065	1	0
348.236	1	0
348.407	1	-6
348.578	1	12
348.749	1	8
348.920	1	4
349.091	1	3
349.262	1	-4
349.433	1	-15
349.604	1	6
349.775	1	10
349.946	1	3
350.117	1	7
350.288	1	-3
350.459	1	3
350.630	1	-7
350.801	1	7
350.972	1	5
351.143	1	1
351.314	1	0
351.485	1	-7
351.656	1	7
351.827	1	-7
351.998	1	-1
352.169	1	8
352.340	1	-2
352.511	1	-5
352.682	1	0
352.853	1	-4
353.024	1	-13
353.195	1	-3
353.366	1	-1
353.537	1	1
353.708	1	15
353.879	1	4
354.050	1	7
354.221	1	-12
354.392	1	-2
354.563	1	15
354.734	1	-7
354.905	1	3
355.076	1	-2
355.247	1	-11
355.418	1	0
355.589	1	-2
355.760	1	0
355.931	1	7
356.102	1	-6
356.273	1	3
356.444	1	4
356.615	1	1
356.785	1	14
356.956	1	-5
357.127	1	-1
357.298	1	11
357.469	1	6
357.640	1	6
357.811	1	10
357.982	1	-9
358.153	1	-5
358.324	1	-2
358.495	1	5
358.666	1	-2
358.837	1	-1
359.008	1	-1
359.179	1	-5
359.350	1	6
359.521	1	1
359.692	1	9
359.863	1	-10
360.034	1	-10
360.205	1	-1
360.376	1	2
360.547	1	-3
360.718	1	-1
360.889	1	-1
361.060	1	12
361.231	1	7
361.401	1	10
361.572	1	-3
361.743	1	0
361.914	1	-8
362.085	1	-15
362.256	1	10
362.427	1	-1
362.598	1	7
362.769	1	15
362.940	1	2
363.111	1	7
363.282	1	1
363.453	1	7
363.624	1	-10
363.795	1	-3
363.966	1	3
364.137	1	-10
364.308	1	-2
364.478	1	11
364.649	1	-3
364.820	1	6
364.991	1	8
365.162	1	-5
365.333	1	15
365.504	1	-10
365.675	1	3
365.846	1	0
366.017	1	5
366.188	1	-1
366.359	1	11
366.530	1	7
366.701	1	-10
366.871	1	7
367.042	1	16
367.213	1	3
367.384	1	5
367.555	1	4
367.726	1	5
367.897	1	4
368.068	1	0
368.239	1	12
368.410	1	1
368.581	1	2
368.752	1	4
368.923	1	-9
369.093	1	3
369.264	1	-2
369.435	1	-2
369.606	1	6
369.777	1	-3
369.948	1	1
370.119	1	11
370.290	1	-10
370.461	1	1
370.632	1	1
370.803	1	-1
370.973	1	10
371.144	1	4
371.315	1	2
371.486	1	12
371.657	1	-2
371.828	1	8
371.999	1	-5
372.170	1	8
372.341	1	4
372.512	1	3
372.682	1	2
372.853	1	-1
373.024	1	3
373.195	1	-5
373.366	1	2
373.537	1	4
373.708	1	5
373.879	1	7
374.050	1	2
374.220	1	-4
374.391	1	-7
374.562	1	4
374.733	1	17
374.904	1	-4
375.075	1	7
375.246	1	0
375.417	1	1
375.588	1	1
375.758	1	-2
375.929	1	0
376.100	1	4
376.271	1	-7
376.442	1	6
376.613	1	10
376.784	1	1
376.955	1	-2
377.125	1	10
377.296	1	0
377.467	1	-4
377.638	1	10
377.809	1	10
377.980	1	2
378.151	1	-9
378.321	1	8
378.492	1	-3
378.663	1	-11
378.834	1	-2
379.005	1	5
379.176	1	-4
379.347	1	3
379.518	1	-7
379.688	1	-6
379.859	1	-14
380.030	1	0
380.201	1	-6
380.372	1	2
380.543	1	4
380.714	1	3
380.884	1	3
381.055	1	2
381.226	1	0
381.397	1	-8
381.568	1	7
381.739	1	6
381.910	1	6
382.080	1	-19
382.251	1	-1
382.422	1	12
382.593	1	2
382.764	1	-4
382.935	1	5
383.105	1	4
383.276	1	-8
383.447	1	3
383.618	1	12
383.789	1	3
383.960	1	7
384.130	1	-5
384.301	1	0
384.472	1	-1
384.643	1	15
384.814	1	-7
384.985	1	6
385.156	1	21
385.326	1	0
385.497	1	-1
385.668	1	0
385.839	1	3
386.010	1	7
386.180	1	11
386.351	1	-6
386.522	1	16
386.693	1	0
386.864	1	0
387.035	1	-8
387.205	1	-2
387.376	1	5
387.547	1	1
387.718	1	15
387.889	1	9
388.060	1	-3
388.230	1	3
388.401	1	5
388.572	1	2
388.743	1	5
388.914	1	7
389.084	1	15
389.255	1	6
389.426	1	-2
389.597	1	4
389.768	1	8
389.939	1	11
390.109	1	5
390.280	1	0
390.451	1	18
390.622	1	3
390.793	1	9
390.963	1	4
391.134	1	6
391.305	1	7
391.476	1	0
391.647	1	11
391.817	1	-7
391.988	1	-4
392.159	1	5
392.330	1	1
392.501	1	7
392.671	1	8
392.842	1	10
393.013	1	8
393.184	1	19
393.355	1	15
393.525	1	12
393.696	1	-7
393.867	1	3
394.038	1	-7
394.208	1	1
394.379	1	-1
394.550	1	4
394.721	1	5
394.892	1	14
395.062	1	-3
395.233	1	5
395.404	1	8
395.575	1	6
395.746	1	-3
395.916	1	-1
396.087	1	-3
396.258	1	2
396.429	1	7
396.599	1	6
396.770	1	11
396.941	1	8
397.112	1	8
397.283	1	0
397.453	1	-3
397.624	1	1
397.795	1	-2
397.966	1	4
398.136	1	1
398.307	1	3
398.478	1	-3
398.649	1	6
398.819	1	16
398.990	1	3
399.161	1	4
399.332	1	3
399.503	1	5
399.673	1	11
399.844	1	2
400.015	1	5
400.186	1	10
400.356	1	-3
400.527	1	4
400.698	1	5
400.869	1	11
401.039	1	-1
401.210	1	-4
401.381	1	6
401.552	1	15
401.722	1	14
401.893	1	9
402.064	1	5
402.235	1	9
402.405	1	-6
402.576	1	16
402.747	1	4
402.918	1	0
403.088	1	-6
403.259	1	-12
403.430	1	4
403.601	1	-3
403.771	1	-1
403.942	1	7
404.113	1	3
404.284	1	0
404.454	1	16
404.625	1	-1
404.796	1	5
404.967	1	-2
405.137	1	2
405.308	1	0
405.479	1	-2
405.649	1	-1
405.820	1	7
405.991	1	5
406.162	1	-2
406.332	1	-4
406.503	1	0
406.674	1	-1
406.845	1	5
407.015	1	-2
407.186	1	20
407.357	1	4
407.527	1	1
407.698	1	-3
407.869	1	-1
408.040	1	-1
408.210	1	-3
408.381	1	-3
408.552	1	19
408.722	1	6
408.893	1	-1
409.064	1	4
409.235	1	3
409.405	1	2
409.576	1	-3
409.747	1	-1
409.917	1	8
410.088	1	1
410.259	1	2
410.430	1	3
410.600	1	-2
410.771	1	10
410.942	1	3
411.112	1	0
411.283	1	-4
411.454	1	14
411.625	1	0
411.795	1	8
411.966	1	4
412.137	1	3
412.307	1	4
412.478	1	14
412.649	1	6
412.819	1	-4
412.990	1	-2
413.161	1	1
413.332	1	-4
413.502	1	2
413.673	1	5
413.844	1	1
414.014	1	0
414.185	1	0
414.356	1	-3
414.526	1	3
414.697	1	4
414.868	1	6
415.038	1	-6
415.209	1	-3
415.380	1	-1
415.550	1	-6
415.721	1	2
415.892	1	-3
416.063	1	8
416.233	1	2
416.404	1	-4
416.575	1	-7
416.745	1	-9
416.916	1	1
417.087	1	2
417.257	1	4
417.428	1	-2
417.599	1	7
417.769	1	3
417.940	1	5
418.111	1	-1
418.281	1	4
418.452	1	-12
418.623	1	-10
418.793	1	2
418.964	1	9
419.135	1	2
419.305	1	-1
419.476	1	11
419.647	1	8
419.817	1	-6
419.988	1	2
420.159	1	0
420.329	1	-5
420.500	1	1
420.671	1	8
420.841	1	5
421.012	1	11
421.183	1	7
421.353	1	14
421.524	1	2
421.695	1	2
421.865	1	4
422.036	1	0
422.206	1	0
422.377	1	-3
422.548	1	0
422.718	1	3
422.889	1	5
423.060	1	-1
423.230	1	6
423.401	1	6
423.572	1	4
423.742	1	-8
423.913	1	2
424.084	1	0
424.254	1	5
424.425	1	0
424.595	1	-10
424.766	1	3
424.937	1	-9
425.107	1	3
425.278	1	-7
425.449	1	0
425.619	1	6
425.790	1	-4
425.961	1	7
426.131	1	-3
426.302	1	0
426.472	1	-8
426.643	1	-5
426.814	1	13
426.984	1	-5
427.155	1	-1
427.326	1	9
427.496	1	10
427.667	1	14
427.837	1	-13
428.008	1	-1
428.179	1	0
428.349	1	-8
428.520	1	-8
428.691	1	0
428.861	1	7
429.032	1	-6
429.202	1	5
429.373	1	-7
429.544	1	-4
429.714	1	8
429.885	1	-3
430.055	1	-1
430.226	1	0
430.397	1	-6
430.567	1	6
430.738	1	4
430.909	1	-14
431.079	1	7
431.250	1	-9
431.420	1	2
431.591	1	4
431.762	1	-3
431.932	1	-8
432.103	1	3
432.273	1	-3
432.444	1	1
432.615	1	4
432.785	1	-9
432.956	1	-1
433.126	1	3
433.297	1	13
433.468	1	5
433.638	1	-7
433.809	1	3
433.979	1	4
434.150	1	-13
434.320	1	2
434.491	1	2
434.662	1	0
434.832	1	-3
435.003	1	5
435.173	1	1
435.344	1	9
435.515	1	-11
435.685	1	13
435.856	1	4
436.026	1	10
436.197	1	1
436.368	1	-4
436.538	1	4
436.709	1	-5
436.879	1	3
437.050	1	4
437.220	1	9
437.391	1	7
437.562	1	9
437.732	1	9
437.903	1	3
438.073	1	17
438.244	1	-17
438.414	1	12
438.585	1	5
438.756	1	0
438.926	1	7
439.097	1	10
439.267	1	1
439.438	1	2
439.608	1	1
439.779	1	3
439.949	1	-2
440.120	1	-3
440.291	1	-10
440.461	1	-8
440.632	1	7
440.802	1	6
440.973	1	4
441.143	1	5
441.314	1	15
441.485	1	-4
441.655	1	12
441.826	1	-11
441.996	1	-2
442.167	1	-1
442.337	1	-1
442.508	1	1
442.678	1	-17
442.849	1	2
443.019	1	10
443.190	1	-4
443.361	1	9
443.531	1	2
443.702	1	-6
443.872	1	6
444.043	1	5
444.213	1	-5
444.384	1	7
444.554	1	3
444.725	1	4
444.895	1	-2
445.066	1	-15
445.237	1	-4
445.407	1	-5
445.578	1	12
445.748	1	-6
445.919	1	-3
446.089	1	16
446.260	1	5
446.430	1	-9
446.601	1	7
446.771	1	2
446.942	1	6
447.112	1	7
447.283	1	-8
447.453	1	-1
447.624	1	10
447.794	1	-8
447.965	1	-6
448.135	1	6
448.306	1	0
448.477	1	-6
448.647	1	6
448.818	1	12
448.988	1	-17
449.159	1	-4
449.329	1	-2
449.500	1	10
449.670	1	11
449.841	1	-1
450.011	1	-3
450.182	1	-4
450.352	1	6
450.523	1	-5
450.693	1	1
450.864	1	2
451.034	1	1
451.205	1	1
451.375	1	4
451.546	1	-2
451.716	1	5
451.887	1	-2
452.057	1	5
452.228	1	-11
452.398	1	13
452.569	1	-1
452.739	1	1
452.910	1	5
453.080	1	13
453.251	1	6
453.421	1	-3
453.592	1	-6
453.762	1	-1
453.933	1	4
454.103	1	4
454.274	1	-1
454.444	1	11
454.615	1	16
454.785	1	-8
454.956	1	12
455.126	1	0
455.297	1	6
455.467	1	-4
455.638	1	6
455.808	1	5
455.979	1	5
456.149	1	1
456.320	1	-9
456.490	1	-1
456.661	1	-6
456.831	1	3
457.001	1	3
457.172	1	1
457.342	1	4
457.513	1	11
457.683	1	4
457.854	1	-1
458.024	1	2
458.195	1	-12
458.365	1	-4
458.536	1	4
458.706	1	5
458.877	1	-1
459.047	1	-7
459.218	1	10
459.388	1	0
459.559	1	7
459.729	1	3
459.899	1	9
460.070	1	6
460.240	1	-1
460.411	1	-1
460.581	1	1
460.752	1	7
460.922	1	1
461.093	1	8
461.263	1	4
461.434	1	14
461.604	1	3
461.775	1	-2
461.945	1	4
462.115	1	-2
462.286	1	5
462.456	1	-2
462.627	1	-4
462.797	1	-8
462.968	1	-3
463.138	1	3
463.309	1	4
463.479	1	15
463.649	1	0
463.820	1	0
463.990	1	11
464.161	1	5
464.331	1	-3
464.502	1	5
464.672	1	2
464.843	1	0
465.013	1	-7
465.183	1	0
465.354	1	7
465.524	1	8
465.695	1	10
465.865	1	-6
466.036	1	1
466.206	1	4
466.376	1	4
466.547	1	3
466.717	1	-3
466.888	1	3
467.058	1	2
467.229	1	5
467.399	1	2
467.569	1	11
467.740	1	-3
467.910	1	-5
468.081	1	4
468.251	1	1
468.422	1	-2
468.592	1	14
468.762	1	-8
468.933	1	-2
469.103	1	-7
469.274	1	5
469.444	1	2
469.614	1	-8
469.785	1	7
469.955	1	5
470.126	1	1
470.296	1	1
470.467	1	2
470.637	1	8
470.807	1	3
470.978	1	3
471.148	1	1
471.319	1	5
471.489	1	4
471.659	1	11
471.830	1	9
472.000	1	4
472.171	1	12
472.341	1	-6
472.511	1	1
472.682	1	3
472.852	1	0
473.023	1	-6
473.193	1	-6
473.363	1	-1
473.534	1	5
473.704	1	6
473.875	1	5
474.045	1	-2
474.215	1	-2
474.386	1	13
474.556	1	-2
474.727	1	3
474.897	1	-5
475.067	1	2
475.238	1	2
475.408	1	2
475.578	1	-7
475.749	1	-7
475.919	1	14
476.090	1	5
476.260	1	3
476.430	1	1
476.601	1	-1
476.771	1	8
476.942	1	-5
477.112	1	0
477.282	1	-9
477.453	1	4
477.623	1	4
477.793	1	1
477.964	1	11
478.134	1	-2
478.305	1	0
478.475	1	-3
478.645	1	-1
478.816	1	-1
478.986	1	-6
479.156	1	7
479.327	1	-2
479.497	1	-4
479.667	1	-4
479.838	1	2
480.008	1	6
480.179	1	-3
480.349	1	1
480.519	1	1
480.690	1	2
480.860	1	1
481.030	1	5
481.201	1	-4
481.371	1	-9
481.541	1	0
481.712	1	1
481.882	1	-6
482.053	1	13
482.223	1	-2
482.393	1	-11
482.564	1	-13
482.734	1	4
482.904	1	9
483.075	1	-6
483.245	1	3
483.415	1	0
483.586	1	-1
483.756	1	12
483.926	1	2
484.097	1	1
484.267	1	-2
484.437	1	-16
484.608	1	-3
484.778	1	4
484.948	1	5
485.119	1	-4
485.289	1	10
485.459	1	5
485.630	1	4
485.800	1	-7
485.970	1	-4
486.141	1	-1
486.311	1	0
486.481	1	-1
486.652	1	3
486.822	1	-2
486.992	1	-2
487.163	1	-4
487.333	1	5
487.503	1	-13
487.674	1	6
487.844	1	8
488.014	1	7
488.185	1	-11
488.355	1	-1
488.525	1	2
488.696	1	-13
488.866	1	5
489.036	1	-1
489.207	1	3
489.377	1	2
489.547	1	-2
489.718	1	-3
489.888	1	0
490.058	1	1
490.228	1	-4
490.399	1	9
490.569	1	10
490.739	1	10
490.910	1	2
491.080	1	1
491.250	1	-1
491.421	1	2
491.591	1	-6
491.761	1	-1
491.932	1	1
492.102	1	6
492.272	1	1
492.442	1	6
492.613	1	9
492.783	1	-7
492.953	1	3
493.124	1	-1
493.294	1	11
493.464	1	-6
493.635	1	-2
493.805	1	18
493.975	1	3
494.145	1	8
494.316	1	7
494.486	1	6
494.656	1	1
494.827	1	-12
494.997	1	3
495.167	1	-2
495.337	1	5
495.508	1	-9
495.678	1	14
495.848	1	10
496.019	1	-3
496.189	1	0
496.359	1	-5
496.529	1	-4
496.700	1	-9
496.870	1	-3
497.040	1	6
497.211	1	7
497.381	1	-22
497.551	1	15
497.721	1	-8
497.892	1	7
498.062	1	-2
498.232	1	8
498.403	1	8
498.573	1	-13
498.743	1	8
498.913	1	2
499.084	1	-7
499.254	1	5
499.424	1	6
499.594	1	5
499.765	1	5
499.935	1	-15
500.105	1	1
500.275	1	6
500.446	1	9
500.616	1	-6
500.786	1	3
500.956	1	6
501.127	1	9
501.297	1	-1
501.467	1	-1
501.638	1	1
501.808	1	-9
501.978	1	5
502.148	1	-1
502.319	1	6
502.489	1	11
502.659	1	-5
502.829	1	4
503.000	1	15
503.170	1	9
503.340	1	0
503.510	1	-3
503.681	1	3
503.851	1	-14
504.021	1	11
504.191	1	5
504.362	1	4
504.532	1	-11
504.702	1	7
504.872	1	-9
505.042	1	2
505.213	1	-2
505.383	1	-3
505.553	1	2
505.723	1	6
505.894	1	6
506.064	1	3
506.234	1	2
506.404	1	-11
506.575	1	9
506.745	1	1
506.915	1	1
507.085	1	-6
507.256	1	-3
507.426	1	-2
507.596	1	8
507.766	1	7
507.936	1	6
508.107	1	13
508.277	1	-4
508.447	1	3
508.617	1	2
508.788	1	-5
508.958	1	20
509.128	1	-2
509.298	1	12
509.468	1	2
509.639	1	2
509.809	1	15
509.979	1	-4
510.149	1	6
510.319	1	-2
510.490	1	12
510.660	1	6
510.830	1	5
511.000	1	-4
511.171	1	5
511.341	1	-4
511.511	1	-5
511.681	1	-5
511.851	1	-8
512.022	1	-10
512.192	1	-4
512.362	1	-2
512.532	1	-2
512.702	1	-11
512.873	1	-5
513.043	1	8
513.213	1	5
513.383	1	-8
513.553	1	-4
513.724	1	16
513.894	1	-3
514.064	1	0
514.234	1	2
514.404	1	7
514.575	1	6
514.745	1	-8
514.915	1	3
515.085	1	2
515.255	1	-4
515.425	1	-3
515.596	1	0
515.766	1	3
515.936	1	6
516.106	1	-3
516.276	1	0
516.447	1	0
516.617	1	-1
516.787	1	0
516.957	1	-8
517.127	1	-6
517.297	1	-2
517.468	1	0
517.638	1	5
517.808	1	0
517.978	1	-5
518.148	1	12
518.319	1	-5
518.489	1	3
518.659	1	-7
518.829	1	-2
518.999	1	1
519.169	1	2
519.340	1	2
519.510	1	4
519.680	1	-3
519.850	1	-3
520.020	1	-1
520.190	1	16
520.361	1	-6
520.531	1	10
520.701	1	1
520.871	1	-1
521.041	1	3
521.211	1	1
521.382	1	3
521.552	1	3
521.722	1	-1
521.892	1	-3
522.062	1	3
522.232	1	4
522.402	1	-6
522.573	1	3
522.743	1	4
522.913	1	6
523.083	1	0
523.253	1	0
523.423	1	0
523.593	1	-7
523.764	1	8
523.934	1	5
524.104	1	-2
524.274	1	1
524.444	1	7
524.614	1	7
524.784	1	-1
524.955	1	-3
525.125	1	-5
525.295	1	-4
525.465	1	1
525.635	1	11
525.805	1	4
525.975	1	-3
526.146	1	7
526.316	1	-9
526.486	1	7
526.656	1	17
526.826	1	6
526.996	1	10
527.166	1	9
527.337	1	4
527.507	1	-2
527.677	1	7
527.847	1	-6
528.017	1	-14
528.187	1	-5
528.357	1	5
528.527	1	2
528.698	1	-1
528.868	1	-8
529.038	1	2
529.208	1	5
529.378	1	-2
529.548	1	2
529.718	1	9
529.888	1	2
530.058	1	-2
530.229	1	8
530.399	1	8
530.569	1	7
530.739	1	1
530.909	1	1
531.079	1	10
531.249	1	-2
531.419	1	6
531.589	1	-11
531.760	1	6
531.930	1	1
532.100	1	1
532.270	1	11
532.440	1	-3
532.610	1	6
532.780	1	2
532.950	1	-2
533.120	1	-6
533.290	1	-2
533.461	1	9
533.631	1	3
533.801	1	0
533.971	1	5
534.141	1	3
534.311	1	0
534.481	1	7
534.651	1	7
534.821	1	-2
534.991	1	4
535.162	1	10
535.332	1	7
535.502	1	13
535.672	1	-6
535.842	1	4
536.012	1	13
536.182	1	0
536.352	1	1
536.522	1	9
536.692	1	1
536.862	1	-1
537.032	1	1
537.203	1	16
537.373	1	0
537.543	1	4
537.713	1	18
537.883	1	8
538.053	1	12
538.223	1	6
538.393	1	4
538.563	1	8
538.733	1	0
538.903	1	-8
539.073	1	2
539.243	1	-2
539.413	1	-2
539.584	1	11
539.754	1	-15
539.924	1	7
540.094	1	5
540.264	1	3
540.434	1	3
540.604	1	13
540.774	1	-3
540.944	1	-7
541.114	1	-5
541.284	1	1
541.454	1	-2
541.624	1	8
541.794	1	1
541.964	1	6
542.134	1	7
542.305	1	-5
542.475	1	-11
542.645	1	7
542.815	1	9
542.985	1	-4
543.155	1	-9
543.325	1	-4
543.495	1	-2
543.665	1	6
543.835	1	-1
544.005	1	1
544.175	1	8
544.345	1	-5
544.515	1	2
544.685	1	4
544.855	1	11
545.025	1	-1
545.195	1	-8
545.365	1	-1
545.535	1	-2
545.705	1	-2
545.875	1	-1
546.045	1	23
546.216	1	16
546.386	1	4
546.556	1	-12
546.726	1	6
546.896	1	-4
547.066	1	-5
547.236	1	-14
547.406	1	5
547.576	1	9
547.746	1	7
547.916	1	4
548.086	1	9
548.256	1	0
548.426	1	-11
548.596	1	4
548.766	1	2
548.936	1	-6
549.106	1	1
549.276	1	5
549.446	1	2
549.616	1	8
549.786	1	5
549.956	1	3
550.126	1	-2
550.296	1	2
550.466	1	-6
550.636	1	-10
550.806	1	13
550.976	1	0
551.146	1	-6
551.316	1	-1
551.486	1	-6
551.656	1	-4
551.826	1	13
551.996	1	6
552.166	1	0
552.336	1	1
552.506	1	7
552.676	1	5
552.846	1	-1
553.016	1	-1
553.186	1	0
553.356	1	-7
553.526	1	-7
553.696	1	6
553.866	1	1
554.036	1	1
554.206	1	2
554.376	1	2
554.546	1	-7
554.716	1	-3
554.886	1	2
555.056	1	0
555.226	1	-8
555.396	1	-4
555.566	1	10
555.736	1	1
555.906	1	-5
556.076	1	3
556.246	1	11
556.416	1	1
556.586	1	11
556.756	1	-3
556.926	1	6
557.096	1	-4
557.266	1	8
557.436	1	6
557.606	1	-13
557.776	1	0
557.946	1	11
558.116	1	4
558.286	1	-2
558.456	1	-1
558.626	1	-3
558.796	1	-5
558.966	1	-1
559.136	1	6
559.306	1	-4
559.476	1	-10
559.646	1	3
559.816	1	-5
559.986	1	-2
560.155	1	0
560.325	1	-15
560.495	1	7
560.665	1	-2
560.835	1	-1
561.005	1	1
561.175	1	-1
561.345	1	1
561.515	1	-5
561.685	1	-12
561.855	1	7
562.025	1	-6
562.195	1	5
562.365	1	0
562.535	1	6
562.705	1	8
562.875	1	2
563.045	1	8
563.215	1	5
563.385	1	0
563.555	1	9
563.725	1	-2
563.895	1	-9
564.064	1	7
564.234	1	2
564.404	1	4
564.574	1	-8
564.744	1	11
564.914	1	-13
565.084	1	-8
565.254	1	6
565.424	1	-3
565.594	1	1
565.764	1	13
565.934	1	-1
566.104	1	2
566.274	1	10
566.444	1	3
566.614	1	2
566.783	1	11
566.953	1	7
567.123	1	13
567.293	1	4
567.463	1	4
567.633	1	-8
567.803	1	-2
567.973	1	0
568.143	1	-5
568.313	1	-1
568.483	1	-11
568.653	1	-1
568.823	1	3
568.993	1	-5
569.162	1	7
569.332	1	-3
569.502	1	1
569.672	1	6
569.842	1	-2
570.012	1	4
570.182	1	-3
570.352	1	2
570.522	1	9
570.692	1	5
570.862	1	9
571.031	1	2
571.201	1	8
571.371	1	4
571.541	1	-2
571.711	1	6
571.881	1	7
572.051	1	-1
572.221	1	9
572.391	1	7
572.561	1	-8
572.731	1	-1
572.900	1	20
573.070	1	8
573.240	1	0
573.410	1	-6
573.580	1	0
573.750	1	18
573.920	1	-4
574.090	1	-4
574.260	1	-1
574.430	1	-7
574.599	1	2
574.769	1	4
574.939	1	-1
575.109	1	7
575.279	1	1
575.449	1	-2
575.619	1	4
575.789	1	10
575.959	1	-11
576.128	1	6
576.298	1	-9
576.468	1	-12
576.638	1	0
576.808	1	-12
576.978	1	0
577.148	1	5
577.318	1	3
577.487	1	4
577.657	1	-13
577.827	1	4
577.997	1	3
578.167	1	7
578.337	1	-5
578.507	1	3
578.677	1	2
578.846	1	-7
579.016	1	11
579.186	1	-1
579.356	1	0
579.526	1	-5
579.696	1	5
579.866	1	3
580.036	1	-1
580.205	1	5
580.375	1	-8
580.545	1	5
580.715	1	3
580.885	1	-2
581.055	1	10
581.225	1	-9
581.394	1	-7
581.564	1	-3
581.734	1	3
581.904	1	-1
582.074	1	-2
582.244	1	3
582.414	1	5
582.583	1	-11
582.753	1	4
582.923	1	6
583.093	1	-3
583.263	1	-4
583.433	1	4
583.603	1	-3
583.772	1	4
583.942	1	10
584.112	1	10
584.282	1	4
584.452	1	-8
584.622	1	6
584.791	1	1
584.961	1	0
585.131	1	-12
585.301	1	12
585.471	1	1
585.641	1	7
585.811	1	-2
585.980	1	-9
586.150	1	8
586.320	1	-5
586.490	1	-4
586.660	1	7
586.830	1	-5
586.999	1	1
587.169	1	-3
587.339	1	4
587.509	1	1
587.679	1	-1
587.849	1	12
588.018	1	-1
588.188	1	-1
588.358	1	5
588.528	1	-3
588.698	1	-1
588.867	1	8
589.037	1	-1
589.207	1	1
589.377	1	-2
589.547	1	0
589.717	1	2
589.886	1	-4
590.056	1	5
590.226	1	4
590.396	1	7
590.566	1	-1
590.735	1	19
590.905	1	6
591.075	1	-10
591.245	1	4
591.415	1	3
591.585	1	-8
591.754	1	8
591.924	1	2
592.094	1	9
592.264	1	-5
592.434	1	2
592.603	1	6
592.773	1	-9
592.943	1	-8
593.113	1	-10
593.283	1	2
593.452	1	-14
593.622	1	-2
593.792	1	3
593.962	1	2
594.132	1	0
594.301	1	2
594.471	1	7
594.641	1	-11
594.811	1	-1
594.981	1	3
595.150	1	2
595.320	1	0
595.490	1	-9
595.660	1	0
595.829	1	6
595.999	1	2
596.169	1	5
596.339	1	1
596.509	1	-4
596.678	1	4
596.848	1	9
597.018	1	-3
597.188	1	5
597.358	1	17
597.527	1	-9
597.697	1	-15
597.867	1	1
598.037	1	-10
598.206	1	-7
598.376	1	6
598.546	1	-4
598.716	1	-7
598.885	1	-5
599.055	1	-2
599.225	1	1
599.395	1	9
599.565	1	2
599.734	1	6
599.904	1	7
600.074	1	-7
600.244	1	9
600.413	1	-3
600.583	1	-5
600.753	1	4
600.923	1	13
601.092	1	-9
601.262	1	11
601.432	1	1
601.602	1	1
601.771	1	13
601.941	1	1
602.111	1	-9
602.281	1	-5
602.451	1	0
602.620	1	2
602.790	1	5
602.960	1	1
603.130	1	5
603.299	1	6
603.469	1	-5
603.639	1	8
603.809	1	15
603.978	1	-4
604.148	1	3
604.318	1	4
604.487	1	-7
604.657	1	5
604.827	1	-12
604.997	1	-2
605.166	1	5
605.336	1	-1
605.506	1	1
605.676	1	1
605.845	1	7
606.015	1	5
606.185	1	4
606.355	1	11
606.524	1	-8
606.694	1	11
606.864	1	2
607.034	1	-7
607.203	1	17
607.373	1	-1
607.543	1	-2
607.712	1	8
607.882	1	-6
608.052	1	4
608.222	1	-6
608.391	1	-5
608.561	1	3
608.731	1	-4
608.901	1	3
609.070	1	-7
609.240	1	8
609.410	1	-2
609.579	1	0
609.749	1	5
609.919	1	-7
610.089	1	-2
610.258	1	10
610.428	1	-10
610.598	1	0
610.767	1	9
610.937	1	1
611.107	1	9
611.277	1	-4
611.446	1	8
611.616	1	-10
611.786	1	1
611.955	1	5
612.125	1	-2
612.295	1	1
612.465	1	-4
612.634	1	0
612.804	1	9
612.974	1	10
613.143	1	3
613.313	1	5
613.483	1	10
613.652	1	-1
613.822	1	8
613.992	1	5
614.162	1	-1
614.331	1	13
614.501	1	8
614.671	1	5
614.840	1	1
615.010	1	1
615.180	1	1
615.349	1	2
615.519	1	4
615.689	1	9
615.858	1	12
616.028	1	-7
616.198	1	7
616.368	1	-3
616.537	1	-4
616.707	1	-4
616.877	1	1
617.046	1	-2
617.216	1	1
617.386	1	3
617.555	1	-3
617.725	1	10
617.895	1	-6
618.064	1	-1
618.234	1	3
618.404	1	-2
618.573	1	-6
618.743	1	5
618.913	1	2
619.082	1	0
619.252	1	3
619.422	1	-7
619.591	1	0
619.761	1	3
619.931	1	2
620.100	1	2
620.270	1	2
620.440	1	9
620.609	1	7
620.779	1	0
620.949	1	-3
621.118	1	-1
621.288	1	1
621.458	1	7
621.627	1	-6
621.797	1	0
621.967	1	-1
622.136	1	3
622.306	1	1
622.476	1	2
622.645	1	7
622.815	1	-1
622.985	1	-2
623.154	1	7
623.324	1	11
623.494	1	8
623.663	1	-4
623.833	1	2
624.002	1	-6
624.172	1	6
624.342	1	-8
624.511	1	-1
624.681	1	-6
624.851	1	-10
625.020	1	-5
625.190	1	-2
625.360	1	-1
625.529	1	6
625.699	1	-10
625.869	1	4
626.038	1	1
626.208	1	-3
626.377	1	13
626.547	1	2
626.717	1	-7
626.886	1	-8
627.056	1	-11
627.226	1	-5
627.395	1	9
627.565	1	7
627.735	1	-4
627.904	1	6
628.074	1	-3
628.243	1	-16
628.413	1	-1
628.583	1	9
628.752	1	9
628.922	1	-1
629.091	1	13
629.261	1	13
629.431	1	-17
629.600	1	-6
629.770	1	5
629.940	1	1
630.109	1	-7
630.279	1	-5
630.448	1	-4
630.618	1	-4
630.788	1	0
630.957	1	-5
631.127	1	6
631.297	1	-3
631.466	1	-1
631.636	1	0
631.805	1	-6
631.975	1	1
632.145	1	-12
632.314	1	10
632.484	1	-1
632.653	1	-3
632.823	1	11
632.993	1	6
633.162	1	-1
633.332	1	9
633.501	1	2
633.671	1	-8
633.841	1	-2
634.010	1	4
634.180	1	-4
634.349	1	-5
634.519	1	2
634.689	1	7
634.858	1	1
635.028	1	-10
635.197	1	-5
635.367	1	1
635.537	1	-6
635.706	1	-10
635.876	1	0
636.045	1	5
636.215	1	-6
636.384	1	11
636.554	1	8
636.724	1	5
636.893	1	6
637.063	1	-5
637.232	1	0
637.402	1	4
637.572	1	-2
637.741	1	-1
637.911	1	3
638.080	1	2
638.250	1	3
638.419	1	11
638.589	1	13
638.759	1	-3
638.928	1	-8
639.098	1	-4
639.267	1	1
639.437	1	-15
639.606	1	15
639.776	1	-2
639.946	1	8
640.115	1	2
640.285	1	-2
640.454	1	14
640.624	1	6
640.793	1	1
640.963	1	-8
641.132	1	9
641.302	1	-2
641.472	1	-2
641.641	1	-1
641.811	1	1
641.980	1	-6
642.150	1	4
642.319	1	3
642.489	1	-2
642.659	1	-2
642.828	1	2
642.998	1	-8
643.167	1	3
643.337	1	2
643.506	1	-16
643.676	1	-4
643.845	1	-2
644.015	1	-3
644.184	1	1
644.354	1	3
644.524	1	-10
644.693	1	2
644.863	1	-9
645.032	1	-9
645.202	1	-6
645.371	1	-9
645.541	1	-11
645.710	1	4
645.880	1	-3
646.049	1	6
646.219	1	-3
646.388	1	4
646.558	1	-1
646.728	1	1
646.897	1	-5
647.067	1	5
647.236	1	2
647.406	1	-9
647.575	1	2
647.745	1	-2
647.914	1	3
648.084	1	3
648.253	1	9
648.423	1	-2
648.592	1	8
648.762	1	3
648.931	1	2
649.101	1	3
649.270	1	18
649.440	1	11
649.610	1	14
649.779	1	1
649.949	1	3
650.118	1	-9
650.288	1	2
650.457	1	-2
650.627	1	3
650.796	1	-4
650.966	1	1
651.135	1	8
651.305	1	-5
651.474	1	4
651.644	1	2
651.813	1	5
651.983	1	2
652.152	1	-4
652.322	1	0
652.491	1	-3
652.661	1	-4
652.830	1	5
653.000	1	-5
653.169	1	3
653.339	1	-1
653.508	1	-4
653.678	1	-3
653.847	1	7
654.017	1	-5
654.186	1	-9
654.356	1	9
654.525	1	-7
654.695	1	4
654.864	1	5
655.034	1	-1
655.203	1	10
655.373	1	-3
655.542	1	-2
655.712	1	-4
655.881	1	5
656.051	1	7
656.220	1	-1
656.390	1	11
656.559	1	-5
656.729	1	0
656.898	1	6
657.068	1	-12
657.237	1	6
657.406	1	3
657.576	1	-9
657.745	1	-5
657.915	1	6
658.084	1	-1
658.254	1	1
658.423	1	-5
658.593	1	-1
658.762	1	-2
658.932	1	1
659.101	1	-3
659.271	1	3
659.440	1	7
659.610	1	-7
659.779	1	3
659.949	1	-13
660.118	1	3
660.288	1	-7
660.457	1	-5
660.626	1	0
660.796	1	3
660.965	1	-7
661.135	1	1
661.304	1	8
661.474	1	-1
661.643	1	-1
661.813	1	0
661.982	1	0
662.152	1	14
662.321	1	9
662.491	1	-3
662.660	1	-3
662.829	1	0
662.999	1	2
663.168	1	0
663.338	1	3
663.507	1	5
663.677	1	-8
663.846	1	13
664.016	1	-4
664.185	1	1
664.354	1	4
664.524	1	-13
664.693	1	6
664.863	1	-4
665.032	1	2
665.202	1	-7
665.371	1	2
665.541	1	-6
665.710	1	-10
665.879	1	-1
666.049	1	7
666.218	1	-6
666.388	1	-9
666.557	1	3
666.727	1	-23
666.896	1	-3
667.065	1	11
667.235	1	4
667.404	1	0
667.574	1	4
667.743	1	2
667.913	1	6
668.082	1	-8
668.251	1	6
668.421	1	-8
668.590	1	-2
668.760	1	-5
668.929	1	7
669.099	1	-3
669.268	1	-4
669.437	1	2
669.607	1	-3
669.776	1	7
669.946	1	10
670.115	1	-5
670.285	1	3
670.454	1	-1
670.623	1	-5
670.793	1	-7
670.962	1	1
671.132	1	3
671.301	1	1
671.470	1	3
671.640	1	-17
671.809	1	2
671.979	1	11
672.148	1	1
672.317	1	-8
672.487	1	-9
672.656	1	8
672.826	1	-14
672.995	1	5
673.164	1	9
673.334	1	8
673.503	1	0
673.673	1	11
673.842	1	9
674.011	1	6
674.181	1	-5
674.350	1	-5
674.520	1	0
674.689	1	2
674.858	1	-2
675.028	1	4
675.197	1	0
675.367	1	-7
675.536	1	6
675.705	1	-3
675.875	1	8
676.044	1	0
676.214	1	-1
676.383	1	5
676.552	1	4
676.722	1	-4
676.891	1	-13
677.060	1	10
677.230	1	6
677.399	1	-3
677.569	1	-4
677.738	1	-5
677.907	1	-14
678.077	1	-1
678.246	1	-7
678.416	1	1
678.585	1	3
678.754	1	-6
678.924	1	-14
679.093	1	9
679.262	1	-5
679.432	1	-4
679.601	1	-7
679.771	1	-4
679.940	1	-2
680.109	1	3
680.279	1	-8
680.448	1	3
680.617	1	-8
680.787	1	-4
680.956	1	9
681.125	1	5
681.295	1	-1
681.464	1	-5
681.634	1	-7
681.803	1	-7
681.972	1	-11
682.142	1	13
682.311	1	1
682.480	1	-3
682.650	1	-8
682.819	1	2
682.988	1	3
683.158	1	2
683.327	1	1
683.496	1	0
683.666	1	0
683.835	1	3
684.004	1	2
684.174	1	-4
684.343	1	-8
684.512	1	-3
684.682	1	1
684.851	1	-6
685.021	1	5
685.190	1	3
685.359	1	-8
685.529	1	-4
685.698	1	-4
685.867	1	-2
686.037	1	0
686.206	1	13
686.375	1	2
686.545	1	3
686.714	1	4
686.883	1	-12
687.053	1	-5
687.222	1	-2
687.391	1	-1
687.561	1	-2
687.730	1	-5
687.899	1	1
688.069	1	-11
688.238	1	0
688.407	1	0
688.577	1	-14
688.746	1	2
