340.368	1	0
340.539	1	2
340.710	1	-5
340.881	1	4
341.052	1	8
341.223	1	5
341.394	1	-6
341.565	1	-12
341.737	1	1
341.908	1	7
342.079	1	-4
342.250	1	-3
342.421	1	-3
342.592	1	1
342.763	1	-1
342.934	1	3
343.105	1	13
343.276	1	-9
343.447	1	5
343.618	1	0
343.789	1	0
343.960	1	-1
344.131	1	3
344.302	1	-7
344.473	1	4
344.644	1	-2
344.815	1	-6
344.986	1	9
345.157	1	6
345.328	1	0
345.499	1	5
345.670	1	2
345.841	1	4
346.012	1	9
346.183	1	-1
346.354	1	1
346.526	1	3
346.697	1	-4
346.868	1	1
347.039	1	-3
347.210	1	7
347.381	1	4
347.552	1	9
347.723	1	3
347.894	1	-8
348.065	1	-1
348.236	1	3
348.407	1	-7
348.578	1	1
348.749	1	6
348.920	1	3
349.091	1	8
349.262	1	-2
349.433	1	-14
349.604	1	3
349.775	1	5
349.946	1	8
350.117	1	10
350.288	1	3
350.459	1	4
350.630	1	-8
350.801	1	11
350.972	1	3
351.143	1	-2
351.314	1	-3
351.485	1	-4
351.656	1	-2
351.827	1	-6
351.998	1	2
352.169	1	2
352.340	1	-4
352.511	1	4
352.682	1	3
352.853	1	-8
353.024	1	-1
353.195	1	1
353.366	1	-8
353.537	1	-6
353.708	1	3
353.879	1	1
354.050	1	4
354.221	1	-12
354.392	1	4
354.563	1	8
354.734	1	-7
354.905	1	0
355.076	1	-5
355.247	1	-8
355.418	1	-8
355.589	1	-3
355.760	1	-3
355.931	1	-1
356.102	1	-4
356.273	1	3
356.444	1	9
356.615	1	2
356.785	1	6
356.956	1	1
357.127	1	0
357.298	1	2
357.469	1	-4
357.640	1	6
357.811	1	7
357.982	1	-2
358.153	1	4
358.324	1	-8
358.495	1	1
358.666	1	-4
358.837	1	2
359.008	1	0
359.179	1	1
359.350	1	9
359.521	1	7
359.692	1	5
359.863	1	-6
360.034	1	-6
360.205	1	-5
360.376	1	5
360.547	1	3
360.718	1	-1
360.889	1	-5
361.060	1	12
361.231	1	3
361.401	1	1
361.572	1	-1
361.743	1	2
361.914	1	-8
362.085	1	-2
362.256	1	3
362.427	1	0
362.598	1	0
362.769	1	0
362.940	1	2
363.111	1	3
363.282	1	-2
363.453	1	5
363.624	1	-9
363.795	1	12
363.966	1	7
364.137	1	-6
364.308	1	-8
364.478	1	14
364.649	1	-3
364.820	1	-1
364.991	1	-1
365.162	1	-7
365.333	1	10
365.504	1	2
365.675	1	-7
365.846	1	3
366.017	1	6
366.188	1	-14
366.359	1	1
366.530	1	-2
366.701	1	-3
366.871	1	15
367.042	1	4
367.213	1	4
367.384	1	19
367.555	1	-2
367.726	1	10
367.897	1	-6
368.068	1	-2
368.239	1	4
368.410	1	-5
368.581	1	3
368.752	1	-7
368.923	1	-7
369.093	1	7
369.264	1	-2
369.435	1	-4
369.606	1	0
369.777	1	-3
369.948	1	-3
370.119	1	4
370.290	1	-3
370.461	1	7
370.632	1	7
370.803	1	-4
370.973	1	11
371.144	1	8
371.315	1	-4
371.486	1	12
371.657	1	9
371.828	1	0
371.999	1	5
372.170	1	4
372.341	1	7
372.512	1	-1
372.682	1	-8
372.853	1	0
373.024	1	2
373.195	1	-6
373.366	1	-9
373.537	1	4
373.708	1	10
373.879	1	15
374.050	1	8
374.220	1	-3
374.391	1	1
374.562	1	-5
374.733	1	12
374.904	1	2
375.075	1	12
375.246	1	-5
375.417	1	-5
375.588	1	-1
375.758	1	-4
375.929	1	6
376.100	1	2
376.271	1	-8
376.442	1	3
376.613	1	1
376.784	1	3
376.955	1	-2
377.125	1	2
377.296	1	-2
377.467	1	-3
377.638	1	-2
377.809	1	5
377.980	1	9
378.151	1	-7
378.321	1	7
378.492	1	4
378.663	1	-14
378.834	1	3
379.005	1	8
379.176	1	-2
379.347	1	-3
379.518	1	-7
379.688	1	-10
379.859	1	-8
380.030	1	5
380.201	1	-6
380.372	1	-5
380.543	1	8
380.714	1	7
380.884	1	-5
381.055	1	1
381.226	1	1
381.397	1	-8
381.568	1	-7
381.739	1	13
381.910	1	-2
382.080	1	-13
382.251	1	6
382.422	1	5
382.593	1	-6
382.764	1	0
382.935	1	5
383.105	1	4
383.276	1	-1
383.447	1	8
383.618	1	7
383.789	1	4
383.960	1	-7
384.130	1	-5
384.301	1	-2
384.472	1	-11
384.643	1	20
384.814	1	0
384.985	1	7
385.156	1	4
385.326	1	3
385.497	1	7
385.668	1	-4
385.839	1	2
386.010	1	9
386.180	1	1
386.351	1	-8
386.522	1	10
386.693	1	-1
386.864	1	-6
387.035	1	-9
387.205	1	-16
387.376	1	8
387.547	1	-2
387.718	1	10
387.889	1	10
388.060	1	-1
388.230	1	7
388.401	1	12
388.572	1	2
388.743	1	2
388.914	1	14
389.084	1	5
389.255	1	0
389.426	1	11
389.597	1	-6
389.768	1	-3
389.939	1	5
390.109	1	-1
390.280	1	5
390.451	1	13
390.622	1	1
390.793	1	2
390.963	1	8
391.134	1	7
391.305	1	-3
391.476	1	5
391.647	1	9
391.817	1	1
391.988	1	-18
392.159	1	3
392.330	1	2
392.501	1	4
392.671	1	2
392.842	1	12
393.013	1	12
393.184	1	-2
393.355	1	5
393.525	1	3
393.696	1	-4
393.867	1	-4
394.038	1	-12
394.208	1	16
394.379	1	-10
394.550	1	2
394.721	1	4
394.892	1	4
395.062	1	-9
395.233	1	10
395.404	1	3
395.575	1	-1
395.746	1	0
395.916	1	-6
396.087	1	1
396.258	1	-5
396.429	1	8
396.599	1	3
396.770	1	1
396.941	1	8
397.112	1	7
397.283	1	0
397.453	1	-9
397.624	1	2
397.795	1	3
397.966	1	7
398.136	1	8
398.307	1	-1
398.478	1	2
398.649	1	5
398.819	1	4
398.990	1	2
399.161	1	7
399.332	1	10
399.503	1	0
399.673	1	5
399.844	1	5
400.015	1	10
400.186	1	16
400.356	1	-3
400.527	1	-1
400.698	1	3
400.869	1	3
401.039	1	-9
401.210	1	-1
401.381	1	-1
401.552	1	11
401.722	1	5
401.893	1	1
402.064	1	-1
402.235	1	6
402.405	1	-4
402.576	1	9
402.747	1	4
402.918	1	-7
403.088	1	2
403.259	1	-5
403.430	1	-10
403.601	1	-7
403.771	1	8
403.942	1	5
404.113	1	13
404.284	1	-7
404.454	1	10
404.625	1	4
404.796	1	3
404.967	1	7
405.137	1	9
405.308	1	-3
405.479	1	2
405.649	1	1
405.820	1	-3
405.991	1	2
406.162	1	0
406.332	1	-2
406.503	1	-1
406.674	1	3
406.845	1	8
407.015	1	-4
407.186	1	13
407.357	1	-1
407.527	1	-1
407.698	1	-7
407.869	1	-1
408.040	1	-10
408.210	1	-6
408.381	1	2
408.552	1	-3
408.722	1	-8
408.893	1	3
409.064	1	0
409.235	1	5
409.405	1	6
409.576	1	-5
409.747	1	-1
409.917	1	5
410.088	1	2
410.259	1	-2
410.430	1	-2
410.600	1	5
410.771	1	-1
410.942	1	-1
411.112	1	10
411.283	1	-9
411.454	1	9
411.625	1	0
411.795	1	0
411.966	1	6
412.137	1	3
412.307	1	2
412.478	1	2
412.649	1	1
412.819	1	-2
412.990	1	3
413.161	1	0
413.332	1	-4
413.502	1	-10
413.673	1	8
413.844	1	-11
414.014	1	0
414.185	1	9
414.356	1	-10
414.526	1	6
414.697	1	9
414.868	1	6
415.038	1	-1
415.209	1	-8
415.380	1	-6
415.550	1	2
415.721	1	5
415.892	1	-8
416.063	1	10
416.233	1	1
416.404	1	5
416.575	1	-1
416.745	1	-1
416.916	1	2
417.087	1	-3
417.257	1	10
417.428	1	-4
417.599	1	-7
417.769	1	4
417.940	1	-4
418.111	1	3
418.281	1	0
418.452	1	-7
418.623	1	0
418.793	1	3
418.964	1	2
419.135	1	5
419.305	1	6
419.476	1	6
419.647	1	5
419.817	1	-1
419.988	1	-7
420.159	1	-15
420.329	1	3
420.500	1	3
420.671	1	2
420.841	1	1
421.012	1	12
421.183	1	-3
421.353	1	1
421.524	1	0
421.695	1	5
421.865	1	0
422.036	1	-6
422.206	1	-1
422.377	1	-1
422.548	1	-3
422.718	1	-1
422.889	1	2
423.060	1	-3
423.230	1	12
423.401	1	1
423.572	1	-1
423.742	1	3
423.913	1	3
424.084	1	-8
424.254	1	-2
424.425	1	3
424.595	1	-6
424.766	1	11
424.937	1	-11
425.107	1	2
425.278	1	-2
425.449	1	7
425.619	1	4
425.790	1	3
425.961	1	7
426.131	1	0
426.302	1	0
426.472	1	-4
426.643	1	-5
426.814	1	5
426.984	1	-6
427.155	1	-5
427.326	1	3
427.496	1	2
427.667	1	5
427.837	1	-4
428.008	1	9
428.179	1	-5
428.349	1	2
428.520	1	-9
428.691	1	4
428.861	1	-3
429.032	1	-9
429.202	1	-1
429.373	1	-19
429.544	1	-4
429.714	1	-1
429.885	1	-6
430.055	1	-2
430.226	1	-8
430.397	1	-4
430.567	1	5
430.738	1	0
430.909	1	0
431.079	1	5
431.250	1	-9
431.420	1	-1
431.591	1	-1
431.762	1	2
431.932	1	5
432.103	1	3
432.273	1	-4
432.444	1	8
432.615	1	7
432.785	1	0
432.956	1	-5
433.126	1	6
433.297	1	12
433.468	1	1
433.638	1	-3
433.809	1	12
433.979	1	4
434.150	1	-7
434.320	1	1
434.491	1	-1
434.662	1	-7
434.832	1	-7
435.003	1	7
435.173	1	4
435.344	1	4
435.515	1	4
435.685	1	6
435.856	1	-3
436.026	1	4
436.197	1	-3
436.368	1	-5
436.538	1	10
436.709	1	-12
436.879	1	-2
437.050	1	1
437.220	1	11
437.391	1	3
437.562	1	9
437.732	1	8
437.903	1	3
438.073	1	6
438.244	1	-10
438.414	1	0
438.585	1	-4
438.756	1	5
438.926	1	-4
439.097	1	10
439.267	1	5
439.438	1	10
439.608	1	-7
439.779	1	-3
439.949	1	-2
440.120	1	-1
440.291	1	-7
440.461	1	-3
440.632	1	3
440.802	1	0
440.973	1	7
441.143	1	8
441.314	1	10
441.485	1	-2
441.655	1	2
441.826	1	-8
441.996	1	2
442.167	1	-2
442.337	1	-5
442.508	1	4
442.678	1	-4
442.849	1	7
443.019	1	1
443.190	1	-3
443.361	1	1
443.531	1	-1
443.702	1	-5
443.872	1	-7
444.043	1	-8
444.213	1	-10
444.384	1	9
444.554	1	-7
444.725	1	-2
444.895	1	-1
445.066	1	-13
445.237	1	-8
445.407	1	0
445.578	1	5
445.748	1	-12
445.919	1	5
446.089	1	12
446.260	1	1
446.430	1	-11
446.601	1	-2
446.771	1	2
446.942	1	1
447.112	1	1
447.283	1	8
447.453	1	-15
447.624	1	10
447.794	1	-4
447.965	1	-13
448.135	1	-2
448.306	1	-1
448.477	1	-6
448.647	1	12
448.818	1	3
448.988	1	-8
449.159	1	-2
449.329	1	1
449.500	1	12
449.670	1	6
449.841	1	0
450.011	1	0
450.182	1	-11
450.352	1	10
450.523	1	-5
450.693	1	8
450.864	1	5
451.034	1	1
451.205	1	-4
451.375	1	4
451.546	1	2
451.716	1	5
451.887	1	-8
452.057	1	4
452.228	1	-1
452.398	1	14
452.569	1	-4
452.739	1	5
452.910	1	3
453.080	1	6
453.251	1	0
453.421	1	-2
453.592	1	-2
453.762	1	-7
453.933	1	2
454.103	1	-1
454.274	1	-7
454.444	1	10
454.615	1	12
454.785	1	-13
454.956	1	3
455.126	1	1
455.297	1	1
455.467	1	2
455.638	1	-1
455.808	1	-11
455.979	1	11
456.149	1	-6
456.320	1	-2
456.490	1	0
456.661	1	-1
456.831	1	6
457.001	1	1
457.172	1	-3
457.342	1	7
457.513	1	10
457.683	1	-7
457.854	1	3
458.024	1	2
458.195	1	0
458.365	1	5
458.536	1	9
458.706	1	7
458.877	1	-5
459.047	1	-1
459.218	1	2
459.388	1	-2
459.559	1	3
459.729	1	-6
459.899	1	2
460.070	1	13
460.240	1	-3
460.411	1	6
460.581	1	3
460.752	1	5
460.922	1	-6
461.093	1	-2
461.263	1	7
461.434	1	10
461.604	1	-8
461.775	1	3
461.945	1	10
462.115	1	-8
462.286	1	-3
462.456	1	-8
462.627	1	-2
462.797	1	6
462.968	1	0
463.138	1	11
463.309	1	0
463.479	1	7
463.649	1	3
463.820	1	-8
463.990	1	-2
464.161	1	8
464.331	1	0
464.502	1	-3
464.672	1	-4
464.843	1	3
465.013	1	-10
465.183	1	-4
465.354	1	0
465.524	1	9
465.695	1	8
465.865	1	-4
466.036	1	1
466.206	1	1
466.376	1	-10
466.547	1	-1
466.717	1	-6
466.888	1	2
467.058	1	11
467.229	1	-2
467.399	1	3
467.569	1	1
467.740	1	-5
467.910	1	-12
468.081	1	2
468.251	1	-9
468.422	1	3
468.592	1	1
468.762	1	1
468.933	1	3
469.103	1	-4
469.274	1	-6
469.444	1	-3
469.614	1	-4
469.785	1	3
469.955	1	1
470.126	1	5
470.296	1	-7
470.467	1	-15
470.637	1	11
470.807	1	5
470.978	1	-1
471.148	1	-9
471.319	1	12
471.489	1	-1
471.659	1	4
471.830	1	8
472.000	1	1
472.171	1	-5
472.341	1	1
472.511	1	2
472.682	1	-3
472.852	1	-8
473.023	1	-9
473.193	1	-6
473.363	1	-6
473.534	1	-7
473.704	1	5
473.875	1	3
474.045	1	-5
474.215	1	-5
474.386	1	9
474.556	1	-7
474.727	1	1
474.897	1	0
475.067	1	-4
475.238	1	-3
475.408	1	-1
475.578	1	7
475.749	1	-5
475.919	1	-1
476.090	1	-2
476.260	1	-4
476.430	1	2
476.601	1	-3
476.771	1	-7
476.942	1	-7
477.112	1	2
477.282	1	-13
477.453	1	-1
477.623	1	-1
477.793	1	8
477.964	1	11
478.134	1	11
478.305	1	5
478.475	1	-2
478.645	1	-6
478.816	1	-5
478.986	1	-9
479.156	1	-3
479.327	1	-2
479.497	1	-3
479.667	1	5
479.838	1	6
480.008	1	5
480.179	1	2
480.349	1	9
480.519	1	-1
480.690	1	-1
480.860	1	-2
481.030	1	-11
481.201	1	-2
481.371	1	-3
481.541	1	2
481.712	1	7
481.882	1	-2
482.053	1	3
482.223	1	-9
482.393	1	-18
482.564	1	-18
482.734	1	-3
482.904	1	-3
483.075	1	3
483.245	1	-2
483.415	1	11
483.586	1	0
483.756	1	9
483.926	1	8
484.097	1	-13
484.267	1	5
484.437	1	-11
484.608	1	-2
484.778	1	-2
484.948	1	-7
485.119	1	8
485.289	1	10
485.459	1	6
485.630	1	-11
485.800	1	-2
485.970	1	6
486.141	1	-15
486.311	1	7
486.481	1	0
486.652	1	1
486.822	1	5
486.992	1	4
487.163	1	-3
487.333	1	8
487.503	1	-18
487.674	1	2
487.844	1	1
488.014	1	5
488.185	1	1
488.355	1	-12
488.525	1	-2
488.696	1	-4
488.866	1	10
489.036	1	-5
489.207	1	-2
489.377	1	2
489.547	1	-5
489.718	1	-10
489.888	1	1
490.058	1	-4
490.228	1	1
490.399	1	10
490.569	1	6
490.739	1	7
490.910	1	-7
491.080	1	-3
491.250	1	-1
491.421	1	-7
491.591	1	-6
491.761	1	-3
491.932	1	3
492.102	1	-5
492.272	1	7
492.442	1	-1
492.613	1	1
492.783	1	-5
492.953	1	8
493.124	1	-6
493.294	1	8
493.464	1	-9
493.635	1	-7
493.805	1	13
493.975	1	0
494.145	1	-1
494.316	1	8
494.486	1	1
494.656	1	1
494.827	1	1
494.997	1	1
495.167	1	-2
495.337	1	11
495.508	1	-8
495.678	1	6
495.848	1	7
496.019	1	-15
496.189	1	-1
496.359	1	-9
496.529	1	3
496.700	1	4
496.870	1	3
497.040	1	2
497.211	1	14
497.381	1	-18
497.551	1	6
497.721	1	-2
497.892	1	7
498.062	1	1
498.232	1	-10
498.403	1	12
498.573	1	-6
498.743	1	6
498.913	1	0
499.084	1	-7
499.254	1	4
499.424	1	11
499.594	1	5
499.765	1	-2
499.935	1	-5
500.105	1	8
500.275	1	-1
500.446	1	8
500.616	1	2
500.786	1	8
500.956	1	2
501.127	1	18
501.297	1	6
501.467	1	-12
501.638	1	5
501.808	1	-8
501.978	1	2
502.148	1	-7
502.319	1	3
502.489	1	0
502.659	1	-7
502.829	1	0
503.000	1	8
503.170	1	-1
503.340	1	-13
503.510	1	-4
503.681	1	5
503.851	1	-16
504.021	1	6
504.191	1	7
504.362	1	12
504.532	1	-11
504.702	1	13
504.872	1	1
505.042	1	2
505.213	1	-8
505.383	1	2
505.553	1	5
505.723	1	10
505.894	1	6
506.064	1	7
506.234	1	10
506.404	1	1
506.575	1	1
506.745	1	-4
506.915	1	-3
507.085	1	-3
507.256	1	-13
507.426	1	3
507.596	1	0
507.766	1	1
507.936	1	-3
508.107	1	9
508.277	1	-3
508.447	1	2
508.617	1	5
508.788	1	0
508.958	1	15
509.128	1	-13
509.298	1	11
509.468	1	6
509.639	1	13
509.809	1	0
509.979	1	7
510.149	1	0
510.319	1	-9
510.490	1	-1
510.660	1	2
510.830	1	3
511.000	1	4
511.171	1	12
511.341	1	-12
511.511	1	-2
511.681	1	2
511.851	1	-3
512.022	1	-2
512.192	1	6
512.362	1	8
512.532	1	-2
512.702	1	-9
512.873	1	6
513.043	1	-5
513.213	1	3
513.383	1	1
513.553	1	-8
513.724	1	7
513.894	1	-2
514.064	1	0
514.234	1	-4
514.404	1	2
514.575	1	5
514.745	1	3
514.915	1	6
515.085	1	-2
515.255	1	-3
515.425	1	-9
515.596	1	-8
515.766	1	7
515.936	1	3
516.106	1	-6
516.276	1	1
516.447	1	3
516.617	1	8
516.787	1	-9
516.957	1	9
517.127	1	1
517.297	1	4
517.468	1	-9
517.638	1	0
517.808	1	-1
517.978	1	-3
518.148	1	2
518.319	1	-10
518.489	1	6
518.659	1	4
518.829	1	-8
518.999	1	-5
519.169	1	12
519.340	1	-7
519.510	1	-5
519.680	1	-2
519.850	1	-9
520.020	1	-1
520.190	1	-3
520.361	1	-4
520.531	1	2
520.701	1	-1
520.871	1	-4
521.041	1	-3
521.211	1	-9
521.382	1	7
521.552	1	7
521.722	1	5
521.892	1	-1
522.062	1	-3
522.232	1	-4
522.402	1	-1
522.573	1	-7
522.743	1	4
522.913	1	1
523.083	1	-6
523.253	1	-2
523.423	1	1
523.593	1	-22
523.764	1	8
523.934	1	2
524.104	1	0
524.274	1	-3
524.444	1	1
524.614	1	5
524.784	1	5
524.955	1	3
525.125	1	7
525.295	1	-4
525.465	1	1
525.635	1	5
525.805	1	0
525.975	1	-4
526.146	1	-10
526.316	1	4
526.486	1	-4
526.656	1	15
526.826	1	-2
526.996	1	10
527.166	1	5
527.337	1	-3
527.507	1	-5
527.677	1	14
527.847	1	-3
528.017	1	-8
528.187	1	3
528.357	1	5
528.527	1	2
528.698	1	-3
528.868	1	-8
529.038	1	2
529.208	1	-1
529.378	1	-1
529.548	1	0
529.718	1	10
529.888	1	9
530.058	1	-3
530.229	1	2
530.399	1	9
530.569	1	2
530.739	1	-12
530.909	1	0
531.079	1	9
531.249	1	-4
531.419	1	10
531.589	1	-10
531.760	1	2
531.930	1	-4
532.100	1	0
532.270	1	12
532.440	1	3
532.610	1	-3
532.780	1	-8
532.950	1	8
533.120	1	-5
533.290	1	-1
533.461	1	6
533.631	1	0
533.801	1	7
533.971	1	-5
534.141	1	3
534.311	1	-2
534.481	1	4
534.651	1	9
534.821	1	3
534.991	1	-4
535.162	1	5
535.332	1	-7
535.502	1	6
535.672	1	-7
535.842	1	-2
536.012	1	11
536.182	1	-3
536.352	1	2
536.522	1	14
536.692	1	1
536.862	1	4
537.032	1	4
537.203	1	12
537.373	1	-5
537.543	1	-1
537.713	1	10
537.883	1	4
538.053	1	8
538.223	1	-3
538.393	1	1
538.563	1	4
538.733	1	-2
538.903	1	-5
539.073	1	1
539.243	1	-3
539.413	1	-1
539.584	1	-8
539.754	1	-16
539.924	1	9
540.094	1	6
540.264	1	2
540.434	1	0
540.604	1	3
540.774	1	-5
540.944	1	0
541.114	1	-10
541.284	1	0
541.454	1	3
541.624	1	0
541.794	1	-2
541.964	1	-6
542.134	1	-1
542.305	1	-4
542.475	1	0
542.645	1	5
542.815	1	10
542.985	1	-1
543.155	1	-4
543.325	1	-5
543.495	1	-5
543.665	1	7
543.835	1	-4
544.005	1	-2
544.175	1	-6
544.345	1	1
544.515	1	-1
544.685	1	4
544.855	1	1
545.025	1	-8
545.195	1	-3
545.365	1	8
545.535	1	-2
545.705	1	5
545.875	1	-13
546.045	1	-2
546.216	1	2
546.386	1	-5
546.556	1	-5
546.726	1	0
546.896	1	6
547.066	1	-13
547.236	1	-1
547.406	1	-1
547.576	1	-4
547.746	1	3
547.916	1	0
548.086	1	1
548.256	1	1
548.426	1	-2
548.596	1	10
548.766	1	5
548.936	1	1
549.106	1	-1
549.276	1	-1
549.446	1	-1
549.616	1	5
549.786	1	4
549.956	1	3
550.126	1	-8
550.296	1	6
550.466	1	-14
550.636	1	-3
550.806	1	6
550.976	1	-6
551.146	1	-4
551.316	1	2
551.486	1	10
551.656	1	-11
551.826	1	8
551.996	1	-1
552.166	1	-6
552.336	1	2
552.506	1	-7
552.676	1	2
552.846	1	-2
553.016	1	5
553.186	1	-2
553.356	1	-3
553.526	1	-5
553.696	1	15
553.866	1	-5
554.036	1	-1
554.206	1	6
554.376	1	-4
554.546	1	-4
554.716	1	-3
554.886	1	0
555.056	1	-7
555.226	1	-11
555.396	1	6
555.566	1	5
555.736	1	-1
555.906	1	0
556.076	1	7
556.246	1	-4
556.416	1	3
556.586	1	7
556.756	1	5
556.926	1	4
557.096	1	-9
557.266	1	14
557.436	1	13
557.606	1	-7
557.776	1	5
557.946	1	8
558.116	1	12
558.286	1	-2
558.456	1	1
558.626	1	-3
558.796	1	-6
558.966	1	-5
559.136	1	5
559.306	1	-7
559.476	1	-2
559.646	1	-8
559.816	1	3
559.986	1	-1
560.155	1	4
560.325	1	-13
560.495	1	2
560.665	1	1
560.835	1	4
561.005	1	-1
561.175	1	4
561.345	1	0
561.515	1	-7
561.685	1	-7
561.855	1	3
562.025	1	-7
562.195	1	1
562.365	1	12
562.535	1	2
562.705	1	0
562.875	1	-5
563.045	1	11
563.215	1	-2
563.385	1	-11
563.555	1	5
563.725	1	-4
563.895	1	0
564.064	1	-1
564.234	1	3
564.404	1	2
564.574	1	-6
564.744	1	0
564.914	1	-3
565.084	1	-6
565.254	1	8
565.424	1	-3
565.594	1	-11
565.764	1	5
565.934	1	2
566.104	1	-2
566.274	1	1
566.444	1	5
566.614	1	-2
566.783	1	5
566.953	1	-1
567.123	1	11
567.293	1	3
567.463	1	1
567.633	1	-5
567.803	1	-1
567.973	1	3
568.143	1	-8
568.313	1	-8
568.483	1	-3
568.653	1	-6
568.823	1	7
568.993	1	4
569.162	1	9
569.332	1	-8
569.502	1	-2
569.672	1	2
569.842	1	-1
570.012	1	9
570.182	1	1
570.352	1	7
570.522	1	4
570.692	1	2
570.862	1	2
571.031	1	0
571.201	1	-2
571.371	1	-13
571.541	1	-2
571.711	1	-3
571.881	1	2
572.051	1	-4
572.221	1	-4
572.391	1	10
572.561	1	-6
572.731	1	-3
572.900	1	5
573.070	1	-8
573.240	1	-11
573.410	1	-2
573.580	1	-7
573.750	1	11
573.920	1	-6
574.090	1	-1
574.260	1	5
574.430	1	4
574.599	1	2
574.769	1	3
574.939	1	2
575.109	1	-3
575.279	1	2
575.449	1	1
575.619	1	1
575.789	1	9
575.959	1	-12
576.128	1	-1
576.298	1	-1
576.468	1	1
576.638	1	-4
576.808	1	0
576.978	1	-2
577.148	1	5
577.318	1	6
577.487	1	3
577.657	1	-24
577.827	1	13
577.997	1	-9
578.167	1	2
578.337	1	1
578.507	1	-4
578.677	1	-6
578.846	1	2
579.016	1	8
579.186	1	0
579.356	1	-2
579.526	1	2
579.696	1	-4
579.866	1	8
580.036	1	-2
580.205	1	0
580.375	1	8
580.545	1	6
580.715	1	3
580.885	1	-2
581.055	1	4
581.225	1	-11
581.394	1	-3
581.564	1	5
581.734	1	5
581.904	1	-6
582.074	1	-2
582.244	1	-8
582.414	1	0
582.583	1	-6
582.753	1	10
582.923	1	-3
583.093	1	-4
583.263	1	0
583.433	1	-10
583.603	1	-7
583.772	1	1
583.942	1	6
584.112	1	5
584.282	1	2
584.452	1	0
584.622	1	3
584.791	1	-1
584.961	1	2
585.131	1	-11
585.301	1	2
585.471	1	-4
585.641	1	11
585.811	1	-7
585.980	1	-13
586.150	1	1
586.320	1	-6
586.490	1	-5
586.660	1	0
586.830	1	-5
586.999	1	-3
587.169	1	1
587.339	1	-9
587.509	1	0
587.679	1	3
587.849	1	12
588.018	1	-1
588.188	1	10
588.358	1	2
588.528	1	2
588.698	1	4
588.867	1	-1
589.037	1	-2
589.207	1	-10
589.377	1	1
589.547	1	-4
589.717	1	-1
589.886	1	-4
590.056	1	0
590.226	1	8
590.396	1	4
590.566	1	-6
590.735	1	4
590.905	1	6
591.075	1	-8
591.245	1	3
591.415	1	0
591.585	1	-5
591.754	1	2
591.924	1	1
592.094	1	-3
592.264	1	-6
592.434	1	-1
592.603	1	-3
592.773	1	-1
592.943	1	-2
593.113	1	-1
593.283	1	10
593.452	1	-4
593.622	1	-2
593.792	1	8
593.962	1	18
594.132	1	-8
594.301	1	16
594.471	1	5
594.641	1	3
594.811	1	-2
594.981	1	-4
595.150	1	-12
595.320	1	0
595.490	1	-6
595.660	1	0
595.829	1	13
595.999	1	-13
596.169	1	-8
596.339	1	4
596.509	1	-1
596.678	1	-11
596.848	1	-3
597.018	1	-7
597.188	1	15
597.358	1	1
597.527	1	-4
597.697	1	1
597.867	1	-6
598.037	1	12
598.206	1	-3
598.376	1	2
598.546	1	-6
598.716	1	-9
598.885	1	-4
599.055	1	-2
599.225	1	4
599.395	1	2
599.565	1	4
599.734	1	1
599.904	1	-9
600.074	1	-7
600.244	1	3
600.413	1	-6
600.583	1	-4
600.753	1	2
600.923	1	10
601.092	1	-2
601.262	1	8
601.432	1	-1
601.602	1	-1
601.771	1	4
601.941	1	-3
602.111	1	-7
602.281	1	-6
602.451	1	-5
602.620	1	4
602.790	1	0
602.960	1	3
603.130	1	-4
603.299	1	6
603.469	1	-8
603.639	1	2
603.809	1	5
603.978	1	0
604.148	1	1
604.318	1	-2
604.487	1	0
604.657	1	2
604.827	1	-12
604.997	1	2
605.166	1	-6
605.336	1	-5
605.506	1	10
605.676	1	-5
605.845	1	0
606.015	1	1
606.185	1	-6
606.355	1	0
606.524	1	-6
606.694	1	-3
606.864	1	0
607.034	1	-1
607.203	1	8
607.373	1	6
607.543	1	-17
607.712	1	-1
607.882	1	0
608.052	1	-1
608.222	1	4
608.391	1	3
608.561	1	-1
608.731	1	-1
608.901	1	7
609.070	1	3
609.240	1	-5
609.410	1	-1
609.579	1	2
609.749	1	-8
609.919	1	-4
610.089	1	-10
610.258	1	12
610.428	1	4
610.598	1	3
610.767	1	-4
610.937	1	1
611.107	1	-1
611.277	1	0
611.446	1	6
611.616	1	-9
611.786	1	1
611.955	1	6
612.125	1	-1
612.295	1	5
612.465	1	-11
612.634	1	-1
612.804	1	8
612.974	1	4
613.143	1	-8
613.313	1	-1
613.483	1	2
613.652	1	-3
613.822	1	9
613.992	1	4
614.162	1	0
614.331	1	-1
614.501	1	0
614.671	1	-3
614.840	1	8
615.010	1	-3
615.180	1	6
615.349	1	-2
615.519	1	6
615.689	1	-1
615.858	1	3
616.028	1	-6
616.198	1	7
616.368	1	-7
616.537	1	-5
616.707	1	-12
616.877	1	4
617.046	1	2
617.216	1	0
617.386	1	1
617.555	1	-8
617.725	1	3
617.895	1	-4
618.064	1	1
618.234	1	-5
618.404	1	5
618.573	1	7
618.743	1	-8
618.913	1	1
619.082	1	2
619.252	1	-2
619.422	1	2
619.591	1	-6
619.761	1	4
619.931	1	3
620.100	1	5
620.270	1	-2
620.440	1	6
620.609	1	-3
620.779	1	3
620.949	1	-8
621.118	1	-3
621.288	1	2
621.458	1	7
621.627	1	-8
621.797	1	-2
621.967	1	-6
622.136	1	-1
622.306	1	5
622.476	1	-4
622.645	1	5
622.815	1	-8
622.985	1	-2
623.154	1	2
623.324	1	7
623.494	1	4
623.663	1	3
623.833	1	-1
624.002	1	-7
624.172	1	8
624.342	1	-9
624.511	1	0
624.681	1	-2
624.851	1	-11
625.020	1	-6
625.190	1	0
625.360	1	-7
625.529	1	2
625.699	1	-9
625.869	1	5
626.038	1	-2
626.208	1	3
626.377	1	19
626.547	1	6
626.717	1	5
626.886	1	-3
627.056	1	3
627.226	1	0
627.395	1	9
627.565	1	5
627.735	1	3
627.904	1	5
628.074	1	7
628.243	1	-10
628.413	1	6
628.583	1	1
628.752	1	6
628.922	1	-3
629.091	1	10
629.261	1	-1
629.431	1	-13
629.600	1	8
629.770	1	1
629.940	1	3
630.109	1	3
630.279	1	-13
630.448	1	-4
630.618	1	-3
630.788	1	6
630.957	1	-3
631.127	1	7
631.297	1	-7
631.466	1	8
631.636	1	-10
631.805	1	1
631.975	1	2
632.145	1	-11
632.314	1	7
632.484	1	-3
632.653	1	-5
632.823	1	6
632.993	1	1
633.162	1	11
633.332	1	3
633.501	1	-6
633.671	1	8
633.841	1	0
634.010	1	6
634.180	1	-4
634.349	1	12
634.519	1	-4
634.689	1	11
634.858	1	7
635.028	1	-6
635.197	1	-11
635.367	1	-1
635.537	1	-3
635.706	1	-10
635.876	1	0
636.045	1	1
636.215	1	-2
636.384	1	10
636.554	1	10
636.724	1	2
636.893	1	-5
637.063	1	12
637.232	1	0
637.402	1	10
637.572	1	-10
637.741	1	6
637.911	1	8
638.080	1	7
638.250	1	0
638.419	1	2
638.589	1	5
638.759	1	4
638.928	1	-5
639.098	1	-3
639.267	1	-1
639.437	1	-3
639.606	1	11
639.776	1	-8
639.946	1	-5
640.115	1	-3
640.285	1	-17
640.454	1	6
640.624	1	0
640.793	1	9
640.963	1	-2
641.132	1	3
641.302	1	-2
641.472	1	-4
641.641	1	-12
641.811	1	-3
641.980	1	1
642.150	1	-3
642.319	1	-2
642.489	1	0
642.659	1	-7
642.828	1	5
642.998	1	5
643.167	1	7
643.337	1	1
643.506	1	-8
643.676	1	0
643.845	1	6
644.015	1	4
644.184	1	-4
644.354	1	-1
644.524	1	-3
644.693	1	7
644.863	1	-15
645.032	1	0
645.202	1	-4
645.371	1	1
645.541	1	-8
645.710	1	3
645.880	1	4
646.049	1	0
646.219	1	9
646.388	1	4
646.558	1	-3
646.728	1	-4
646.897	1	-1
647.067	1	3
647.236	1	-1
647.406	1	-3
647.575	1	11
647.745	1	-5
647.914	1	-7
648.084	1	-2
648.253	1	0
648.423	1	-10
648.592	1	-8
648.762	1	4
648.931	1	8
649.101	1	-1
649.270	1	9
649.440	1	5
649.610	1	6
649.779	1	-10
649.949	1	-2
650.118	1	-12
650.288	1	2
650.457	1	1
650.627	1	2
650.796	1	2
650.966	1	0
651.135	1	4
651.305	1	-3
651.474	1	2
651.644	1	1
651.813	1	1
651.983	1	8
652.152	1	0
652.322	1	-1
652.491	1	4
652.661	1	5
652.830	1	3
653.000	1	-5
653.169	1	6
653.339	1	5
653.508	1	-7
653.678	1	0
653.847	1	-7
654.017	1	0
654.186	1	-1
654.356	1	8
654.525	1	3
654.695	1	-2
654.864	1	3
655.034	1	0
655.203	1	-1
655.373	1	-9
655.542	1	-6
655.712	1	-4
655.881	1	3
656.051	1	2
656.220	1	-8
656.390	1	-11
656.559	1	-2
656.729	1	5
656.898	1	5
657.068	1	1
657.237	1	7
657.406	1	7
657.576	1	-7
657.745	1	-10
657.915	1	14
658.084	1	6
658.254	1	4
658.423	1	-5
658.593	1	2
658.762	1	-7
658.932	1	1
659.101	1	-5
659.271	1	3
659.440	1	17
659.610	1	4
659.779	1	-3
659.949	1	-7
660.118	1	10
660.288	1	-3
660.457	1	-15
660.626	1	-4
660.796	1	-4
660.965	1	5
661.135	1	0
661.304	1	-4
661.474	1	-2
661.643	1	-2
661.813	1	-12
661.982	1	4
662.152	1	-4
662.321	1	2
662.491	1	-8
662.660	1	-1
662.829	1	-3
662.999	1	-8
663.168	1	-2
663.338	1	-13
663.507	1	-5
663.677	1	-3
663.846	1	5
664.016	1	-2
664.185	1	1
664.354	1	2
664.524	1	-10
664.693	1	0
664.863	1	-4
665.032	1	6
665.202	1	-13
665.371	1	1
665.541	1	-4
665.710	1	-3
665.879	1	-2
666.049	1	0
666.218	1	1
666.388	1	-9
666.557	1	1
666.727	1	-15
666.896	1	-1
667.065	1	9
667.235	1	-4
667.404	1	-5
667.574	1	5
667.743	1	-5
667.913	1	7
668.082	1	-5
668.251	1	-7
668.421	1	7
668.590	1	-11
668.760	1	-3
668.929	1	4
669.099	1	-12
669.268	1	-5
669.437	1	-4
669.607	1	-2
669.776	1	-2
669.946	1	8
670.115	1	5
670.285	1	7
670.454	1	-2
670.623	1	3
670.793	1	-2
670.962	1	-6
671.132	1	-5
671.301	1	-8
671.470	1	-1
671.640	1	-12
671.809	1	-7
671.979	1	12
672.148	1	5
672.317	1	-1
672.487	1	-9
672.656	1	-3
672.826	1	-13
672.995	1	0
673.164	1	8
673.334	1	-4
673.503	1	-3
673.673	1	15
673.842	1	3
674.011	1	5
674.181	1	-8
674.350	1	-1
674.520	1	6
674.689	1	-5
674.858	1	5
675.028	1	5
675.197	1	-4
675.367	1	8
675.536	1	11
675.705	1	-8
675.875	1	-3
676.044	1	-4
676.214	1	-2
676.383	1	-2
676.552	1	-13
676.722	1	2
676.891	1	-13
677.060	1	3
677.230	1	17
677.399	1	4
677.569	1	-4
677.738	1	-2
677.907	1	-7
678.077	1	0
678.246	1	-7
678.416	1	-1
678.585	1	3
678.754	1	-6
678.924	1	-2
679.093	1	-4
679.262	1	2
679.432	1	-4
679.601	1	-6
679.771	1	0
679.940	1	-12
680.109	1	5
680.279	1	-6
680.448	1	-1
680.617	1	-4
680.787	1	2
680.956	1	-1
681.125	1	8
681.295	1	4
681.464	1	-10
681.634	1	-1
681.803	1	-15
681.972	1	-13
682.142	1	7
682.311	1	-4
682.480	1	1
682.650	1	-4
682.819	1	2
682.988	1	0
683.158	1	-1
683.327	1	-1
683.496	1	-6
683.666	1	5
683.835	1	4
684.004	1	-6
684.174	1	4
684.343	1	5
684.512	1	-3
684.682	1	14
684.851	1	-8
685.021	1	3
685.190	1	1
685.359	1	-8
685.529	1	-5
685.698	1	-2
685.867	1	-1
686.037	1	3
686.206	1	7
686.375	1	-1
686.545	1	14
686.714	1	-4
686.883	1	-7
687.053	1	-5
687.222	1	-10
687.391	1	-2
687.561	1	1
687.730	1	5
687.899	1	2
688.069	1	0
688.238	1	-2
688.407	1	15
688.577	1	3
688.746	1	8
