340.368	1	-4
340.539	1	-1
340.710	1	-4
340.881	1	15
341.052	1	-6
341.223	1	6
341.394	1	0
341.565	1	-5
341.737	1	5
341.908	1	5
342.079	1	-7
342.250	1	5
342.421	1	-3
342.592	1	-4
342.763	1	6
342.934	1	2
343.105	1	10
343.276	1	-12
343.447	1	-3
343.618	1	2
343.789	1	-2
343.960	1	-6
344.131	1	5
344.302	1	6
344.473	1	10
344.644	1	-4
344.815	1	4
344.986	1	-2
345.157	1	1
345.328	1	4
345.499	1	-4
345.670	1	8
345.841	1	3
346.012	1	3
346.183	1	7
346.354	1	1
346.526	1	-1
346.697	1	-1
346.868	1	7
347.039	1	3
347.210	1	-5
347.381	1	4
347.552	1	3
347.723	1	-6
347.894	1	4
348.065	1	-1
348.236	1	-2
348.407	1	-7
348.578	1	0
348.749	1	6
348.920	1	7
349.091	1	0
349.262	1	2
349.433	1	2
349.604	1	10
349.775	1	11
349.946	1	5
350.117	1	6
350.288	1	-7
350.459	1	2
350.630	1	-4
350.801	1	6
350.972	1	8
351.143	1	-4
351.314	1	4
351.485	1	-4
351.656	1	4
351.827	1	-3
351.998	1	-3
352.169	1	6
352.340	1	1
352.511	1	4
352.682	1	-5
352.853	1	-5
353.024	1	-4
353.195	1	-2
353.366	1	2
353.537	1	1
353.708	1	8
353.879	1	-1
354.050	1	6
354.221	1	-5
354.392	1	14
354.563	1	17
354.734	1	10
354.905	1	7
355.076	1	-6
355.247	1	-10
355.418	1	7
355.589	1	3
355.760	1	1
355.931	1	6
356.102	1	-1
356.273	1	1
356.444	1	4
356.615	1	11
356.785	1	15
356.956	1	-3
357.127	1	5
357.298	1	5
357.469	1	0
357.640	1	13
357.811	1	13
357.982	1	0
358.153	1	3
358.324	1	6
358.495	1	11
358.666	1	1
358.837	1	4
359.008	1	2
359.179	1	2
359.350	1	-2
359.521	1	10
359.692	1	4
359.863	1	-6
360.034	1	-7
360.205	1	-6
360.376	1	13
360.547	1	2
360.718	1	0
360.889	1	8
361.060	1	15
361.231	1	1
361.401	1	13
361.572	1	3
361.743	1	3
361.914	1	-8
362.085	1	-8
362.256	1	9
362.427	1	-5
362.598	1	-5
362.769	1	7
362.940	1	-1
363.111	1	7
363.282	1	1
363.453	1	8
363.624	1	0
363.795	1	-8
363.966	1	1
364.137	1	-5
364.308	1	-7
364.478	1	3
364.649	1	3
364.820	1	9
364.991	1	5
365.162	1	-3
365.333	1	6
365.504	1	1
365.675	1	2
365.846	1	-1
366.017	1	4
366.188	1	-6
366.359	1	2
366.530	1	4
366.701	1	-11
366.871	1	9
367.042	1	11
367.213	1	-1
367.384	1	13
367.555	1	-3
367.726	1	11
367.897	1	6
368.068	1	-11
368.239	1	19
368.410	1	-3
368.581	1	2
368.752	1	-2
368.923	1	-14
369.093	1	-3
369.264	1	0
369.435	1	-5
369.606	1	7
369.777	1	3
369.948	1	8
370.119	1	-5
370.290	1	-6
370.461	1	-8
370.632	1	3
370.803	1	3
370.973	1	11
371.144	1	1
371.315	1	-2
371.486	1	7
371.657	1	1
371.828	1	-4
371.999	1	1
372.170	1	1
372.341	1	4
372.512	1	3
372.682	1	-2
372.853	1	5
373.024	1	1
373.195	1	-6
373.366	1	7
373.537	1	-1
373.708	1	2
373.879	1	5
374.050	1	6
374.220	1	11
374.391	1	9
374.562	1	5
374.733	1	8
374.904	1	11
375.075	1	7
375.246	1	3
375.417	1	-1
375.588	1	3
375.758	1	-5
375.929	1	2
376.100	1	9
376.271	1	5
376.442	1	-5
376.613	1	9
376.784	1	2
376.955	1	-8
377.125	1	-5
377.296	1	4
377.467	1	-4
377.638	1	-3
377.809	1	8
377.980	1	8
378.151	1	-2
378.321	1	11
378.492	1	8
378.663	1	-3
378.834	1	4
379.005	1	6
379.176	1	6
379.347	1	7
379.518	1	-17
379.688	1	2
379.859	1	-3
380.030	1	-4
380.201	1	-1
380.372	1	4
380.543	1	3
380.714	1	10
380.884	1	0
381.055	1	8
381.226	1	0
381.397	1	-3
381.568	1	-2
381.739	1	11
381.910	1	6
382.080	1	-9
382.251	1	-3
382.422	1	9
382.593	1	4
382.764	1	-1
382.935	1	4
383.105	1	5
383.276	1	6
383.447	1	15
383.618	1	9
383.789	1	-1
383.960	1	-1
384.130	1	0
384.301	1	-3
384.472	1	-14
384.643	1	8
384.814	1	6
384.985	1	0
385.156	1	9
385.326	1	6
385.497	1	2
385.668	1	1
385.839	1	1
386.010	1	-5
386.180	1	4
386.351	1	-8
386.522	1	11
386.693	1	1
386.864	1	-4
387.035	1	-2
387.205	1	-3
387.376	1	7
387.547	1	-2
387.718	1	17
387.889	1	9
388.060	1	-2
388.230	1	1
388.401	1	18
388.572	1	-4
388.743	1	4
388.914	1	11
389.084	1	1
389.255	1	4
389.426	1	4
389.597	1	-6
389.768	1	5
389.939	1	-3
390.109	1	0
390.280	1	7
390.451	1	5
390.622	1	1
390.793	1	10
390.963	1	8
391.134	1	4
391.305	1	8
391.476	1	7
391.647	1	2
391.817	1	1
391.988	1	0
392.159	1	16
392.330	1	-3
392.501	1	7
392.671	1	5
392.842	1	10
393.013	1	7
393.184	1	5
393.355	1	14
393.525	1	7
393.696	1	2
393.867	1	-2
394.038	1	-4
394.208	1	0
394.379	1	-1
394.550	1	3
394.721	1	11
394.892	1	7
395.062	1	-11
395.233	1	11
395.404	1	6
395.575	1	-7
395.746	1	0
395.916	1	0
396.087	1	-4
396.258	1	1
396.429	1	4
396.599	1	2
396.770	1	4
396.941	1	15
397.112	1	-1
397.283	1	6
397.453	1	-5
397.624	1	2
397.795	1	3
397.966	1	10
398.136	1	11
398.307	1	0
398.478	1	0
398.649	1	15
398.819	1	10
398.990	1	3
399.161	1	3
399.332	1	5
399.503	1	-2
399.673	1	0
399.844	1	0
400.015	1	2
400.186	1	5
400.356	1	-1
400.527	1	3
400.698	1	3
400.869	1	12
401.039	1	-3
401.210	1	2
401.381	1	3
401.552	1	11
401.722	1	7
401.893	1	-6
402.064	1	10
402.235	1	14
402.405	1	-1
402.576	1	5
402.747	1	-7
402.918	1	-3
403.088	1	-5
403.259	1	-8
403.430	1	-1
403.601	1	-8
403.771	1	6
403.942	1	1
404.113	1	2
404.284	1	-4
404.454	1	15
404.625	1	3
404.796	1	5
404.967	1	7
405.137	1	4
405.308	1	-1
405.479	1	9
405.649	1	7
405.820	1	1
405.991	1	11
406.162	1	-10
406.332	1	7
406.503	1	-6
406.674	1	2
406.845	1	3
407.015	1	-4
407.186	1	11
407.357	1	3
407.527	1	-5
407.698	1	0
407.869	1	1
408.040	1	-7
408.210	1	-7
408.381	1	7
408.552	1	3
408.722	1	-2
408.893	1	2
409.064	1	-4
409.235	1	3
409.405	1	2
409.576	1	-5
409.747	1	-1
409.917	1	14
410.088	1	6
410.259	1	5
410.430	1	11
410.600	1	0
410.771	1	11
410.942	1	4
411.112	1	5
411.283	1	-11
411.454	1	16
411.625	1	7
411.795	1	8
411.966	1	-1
412.137	1	13
412.307	1	2
412.478	1	15
412.649	1	10
412.819	1	-3
412.990	1	5
413.161	1	-1
413.332	1	5
413.502	1	-5
413.673	1	7
413.844	1	4
414.014	1	3
414.185	1	13
414.356	1	-14
414.526	1	5
414.697	1	8
414.868	1	4
415.038	1	-5
415.209	1	1
415.380	1	2
415.550	1	-11
415.721	1	2
415.892	1	3
416.063	1	8
416.233	1	-1
416.404	1	6
416.575	1	-1
416.745	1	-9
416.916	1	-4
417.087	1	0
417.257	1	8
417.428	1	-11
417.599	1	3
417.769	1	5
417.940	1	-6
418.111	1	-6
418.281	1	4
418.452	1	4
418.623	1	-1
418.793	1	14
418.964	1	3
419.135	1	12
419.305	1	0
419.476	1	2
419.647	1	8
419.817	1	8
419.988	1	6
420.159	1	-12
420.329	1	4
420.500	1	-1
420.671	1	14
420.841	1	10
421.012	1	2
421.183	1	-3
421.353	1	6
421.524	1	0
421.695	1	8
421.865	1	-3
422.036	1	3
422.206	1	-3
422.377	1	3
422.548	1	-1
422.718	1	-1
422.889	1	9
423.060	1	-2
423.230	1	7
423.401	1	8
423.572	1	-6
423.742	1	10
423.913	1	9
424.084	1	7
424.254	1	0
424.425	1	6
424.595	1	0
424.766	1	10
424.937	1	-2
425.107	1	1
425.278	1	-12
425.449	1	1
425.619	1	-7
425.790	1	-3
425.961	1	4
426.131	1	1
426.302	1	-2
426.472	1	3
426.643	1	2
426.814	1	13
426.984	1	3
427.155	1	1
427.326	1	6
427.496	1	9
427.667	1	5
427.837	1	3
428.008	1	1
428.179	1	-9
428.349	1	-8
428.520	1	-3
428.691	1	0
428.861	1	-3
429.032	1	3
429.202	1	4
429.373	1	-16
429.544	1	5
429.714	1	9
429.885	1	0
430.055	1	-1
430.226	1	-3
430.397	1	-3
430.567	1	6
430.738	1	-2
430.909	1	2
431.079	1	3
431.250	1	-8
431.420	1	7
431.591	1	-1
431.762	1	8
431.932	1	8
432.103	1	7
432.273	1	0
432.444	1	12
432.615	1	8
432.785	1	7
432.956	1	5
433.126	1	9
433.297	1	3
433.468	1	-6
433.638	1	1
433.809	1	-2
433.979	1	-3
434.150	1	2
434.320	1	-3
434.491	1	8
434.662	1	-5
434.832	1	0
435.003	1	1
435.173	1	0
435.344	1	4
435.515	1	-4
435.685	1	11
435.856	1	3
436.026	1	-1
436.197	1	1
436.368	1	1
436.538	1	6
436.709	1	-6
436.879	1	14
437.050	1	3
437.220	1	1
437.391	1	-2
437.562	1	5
437.732	1	-3
437.903	1	6
438.073	1	8
438.244	1	-7
438.414	1	4
438.585	1	-1
438.756	1	3
438.926	1	1
439.097	1	9
439.267	1	6
439.438	1	7
439.608	1	4
439.779	1	-3
439.949	1	-9
440.120	1	8
440.291	1	-10
440.461	1	-4
440.632	1	3
440.802	1	4
440.973	1	-2
441.143	1	10
441.314	1	0
441.485	1	-2
441.655	1	13
441.826	1	-9
441.996	1	2
442.167	1	4
442.337	1	-6
442.508	1	4
442.678	1	-1
442.849	1	5
443.019	1	6
443.190	1	-5
443.361	1	4
443.531	1	7
443.702	1	-2
443.872	1	8
444.043	1	2
444.213	1	-8
444.384	1	10
444.554	1	-11
444.725	1	2
444.895	1	1
445.066	1	-10
445.237	1	-4
445.407	1	1
445.578	1	4
445.748	1	2
445.919	1	4
446.089	1	10
446.260	1	5
446.430	1	-6
446.601	1	-4
446.771	1	-6
446.942	1	4
447.112	1	-3
447.283	1	-1
447.453	1	8
447.624	1	10
447.794	1	-8
447.965	1	-8
448.135	1	2
448.306	1	6
448.477	1	-9
448.647	1	11
448.818	1	3
448.988	1	-13
449.159	1	-3
449.329	1	-1
449.500	1	16
449.670	1	12
449.841	1	5
450.011	1	3
450.182	1	0
450.352	1	12
450.523	1	2
450.693	1	2
450.864	1	5
451.034	1	6
451.205	1	8
451.375	1	10
451.546	1	6
451.716	1	11
451.887	1	0
452.057	1	9
452.228	1	-3
452.398	1	0
452.569	1	2
452.739	1	-1
452.910	1	-2
453.080	1	8
453.251	1	-5
453.421	1	6
453.592	1	-5
453.762	1	6
453.933	1	5
454.103	1	-3
454.274	1	-6
454.444	1	5
454.615	1	9
454.785	1	-6
454.956	1	-5
455.126	1	10
455.297	1	5
455.467	1	4
455.638	1	0
455.808	1	11
455.979	1	0
456.149	1	1
456.320	1	3
456.490	1	5
456.661	1	1
456.831	1	12
457.001	1	2
457.172	1	8
457.342	1	5
457.513	1	4
457.683	1	8
457.854	1	-4
458.024	1	-7
458.195	1	-7
458.365	1	-3
458.536	1	-3
458.706	1	0
458.877	1	-1
459.047	1	1
459.218	1	5
459.388	1	-2
459.559	1	0
459.729	1	8
459.899	1	5
460.070	1	11
460.240	1	3
460.411	1	13
460.581	1	14
460.752	1	8
460.922	1	3
461.093	1	0
461.263	1	11
461.434	1	9
461.604	1	-3
461.775	1	2
461.945	1	15
462.115	1	-13
462.286	1	2
462.456	1	-4
462.627	1	7
462.797	1	-7
462.968	1	-12
463.138	1	13
463.309	1	-2
463.479	1	11
463.649	1	2
463.820	1	5
463.990	1	9
464.161	1	10
464.331	1	-2
464.502	1	8
464.672	1	-2
464.843	1	2
465.013	1	1
465.183	1	-3
465.354	1	3
465.524	1	7
465.695	1	6
465.865	1	-12
466.036	1	3
466.206	1	-1
466.376	1	-3
466.547	1	-1
466.717	1	-8
466.888	1	-6
467.058	1	6
467.229	1	8
467.399	1	5
467.569	1	-2
467.740	1	-1
467.910	1	0
468.081	1	4
468.251	1	-9
468.422	1	9
468.592	1	13
468.762	1	-4
468.933	1	8
469.103	1	-4
469.274	1	0
469.444	1	4
469.614	1	2
469.785	1	2
469.955	1	3
470.126	1	10
470.296	1	9
470.467	1	0
470.637	1	15
470.807	1	5
470.978	1	3
471.148	1	0
471.319	1	17
471.489	1	2
471.659	1	10
471.830	1	12
472.000	1	5
472.171	1	4
472.341	1	1
472.511	1	0
472.682	1	-1
472.852	1	-5
473.023	1	-2
473.193	1	-5
473.363	1	2
473.534	1	1
473.704	1	11
473.875	1	3
474.045	1	8
474.215	1	-4
474.386	1	9
474.556	1	-6
474.727	1	1
474.897	1	6
475.067	1	5
475.238	1	-5
475.408	1	0
475.578	1	-1
475.749	1	-5
475.919	1	3
476.090	1	-6
476.260	1	1
476.430	1	8
476.601	1	4
476.771	1	3
476.942	1	5
477.112	1	5
477.282	1	-13
477.453	1	-2
477.623	1	8
477.793	1	5
477.964	1	9
478.134	1	6
478.305	1	5
478.475	1	0
478.645	1	1
478.816	1	2
478.986	1	-5
479.156	1	1
479.327	1	-10
479.497	1	-1
479.667	1	3
479.838	1	10
480.008	1	7
480.179	1	10
480.349	1	-6
480.519	1	2
480.690	1	1
480.860	1	-1
481.030	1	0
481.201	1	3
481.371	1	1
481.541	1	2
481.712	1	7
481.882	1	1
482.053	1	5
482.223	1	-2
482.393	1	-1
482.564	1	-8
482.734	1	5
482.904	1	3
483.075	1	5
483.245	1	1
483.415	1	2
483.586	1	1
483.756	1	16
483.926	1	4
484.097	1	6
484.267	1	-4
484.437	1	-13
484.608	1	0
484.778	1	17
484.948	1	-4
485.119	1	9
485.289	1	-1
485.459	1	1
485.630	1	0
485.800	1	4
485.970	1	0
486.141	1	-3
486.311	1	0
486.481	1	4
486.652	1	15
486.822	1	4
486.992	1	7
487.163	1	-4
487.333	1	4
487.503	1	-11
487.674	1	5
487.844	1	4
488.014	1	0
488.185	1	2
488.355	1	-3
488.525	1	4
488.696	1	-12
488.866	1	15
489.036	1	10
489.207	1	9
489.377	1	-1
489.547	1	-1
489.718	1	6
489.888	1	12
490.058	1	0
490.228	1	-2
490.399	1	4
490.569	1	6
490.739	1	12
490.910	1	-4
491.080	1	-1
491.250	1	4
491.421	1	-4
491.591	1	-9
491.761	1	5
491.932	1	0
492.102	1	3
492.272	1	11
492.442	1	-2
492.613	1	8
492.783	1	0
492.953	1	9
493.124	1	7
493.294	1	10
493.464	1	-3
493.635	1	-5
493.805	1	9
493.975	1	4
494.145	1	-3
494.316	1	8
494.486	1	0
494.656	1	1
494.827	1	1
494.997	1	-3
495.167	1	-7
495.337	1	4
495.508	1	0
495.678	1	10
495.848	1	7
496.019	1	-7
496.189	1	3
496.359	1	-2
496.529	1	1
496.700	1	14
496.870	1	-2
497.040	1	-3
497.211	1	1
497.381	1	-20
497.551	1	16
497.721	1	-1
497.892	1	-3
498.062	1	2
498.232	1	5
498.403	1	8
498.573	1	-10
498.743	1	5
498.913	1	0
499.084	1	-10
499.254	1	-3
499.424	1	13
499.594	1	7
499.765	1	1
499.935	1	-6
500.105	1	2
500.275	1	15
500.446	1	8
500.616	1	1
500.786	1	18
500.956	1	-1
501.127	1	15
501.297	1	0
501.467	1	5
501.638	1	1
501.808	1	-7
501.978	1	6
502.148	1	-3
502.319	1	-7
502.489	1	8
502.659	1	6
502.829	1	1
503.000	1	10
503.170	1	5
503.340	1	-6
503.510	1	2
503.681	1	9
503.851	1	-9
504.021	1	25
504.191	1	3
504.362	1	0
504.532	1	-10
504.702	1	5
504.872	1	-4
505.042	1	0
505.213	1	-1
505.383	1	1
505.553	1	6
505.723	1	-1
505.894	1	16
506.064	1	9
506.234	1	7
506.404	1	-3
506.575	1	5
506.745	1	-4
506.915	1	2
507.085	1	-1
507.256	1	-10
507.426	1	7
507.596	1	3
507.766	1	4
507.936	1	11
508.107	1	-1
508.277	1	4
508.447	1	5
508.617	1	6
508.788	1	-2
508.958	1	11
509.128	1	5
509.298	1	11
509.468	1	9
509.639	1	4
509.809	1	1
509.979	1	7
510.149	1	-5
510.319	1	-4
510.490	1	9
510.660	1	11
510.830	1	3
511.000	1	11
511.171	1	12
511.341	1	-2
511.511	1	-2
511.681	1	4
511.851	1	-2
512.022	1	-3
512.192	1	10
512.362	1	6
512.532	1	-5
512.702	1	-6
512.873	1	15
513.043	1	3
513.213	1	-4
513.383	1	-8
513.553	1	-2
513.724	1	-3
513.894	1	-4
514.064	1	10
514.234	1	7
514.404	1	3
514.575	1	3
514.745	1	2
514.915	1	9
515.085	1	5
515.255	1	3
515.425	1	-5
515.596	1	-5
515.766	1	5
515.936	1	-2
516.106	1	1
516.276	1	13
516.447	1	-3
516.617	1	4
516.787	1	-13
516.957	1	3
517.127	1	-1
517.297	1	6
517.468	1	6
517.638	1	4
517.808	1	1
517.978	1	-3
518.148	1	-1
518.319	1	-1
518.489	1	-4
518.659	1	-4
518.829	1	-4
518.999	1	-2
519.169	1	8
519.340	1	-1
519.510	1	-10
519.680	1	-5
519.850	1	-12
520.020	1	1
520.190	1	3
520.361	1	-4
520.531	1	8
520.701	1	10
520.871	1	2
521.041	1	7
521.211	1	-1
521.382	1	-2
521.552	1	3
521.722	1	4
521.892	1	-4
522.062	1	-4
522.232	1	-5
522.402	1	-5
522.573	1	3
522.743	1	7
522.913	1	0
523.083	1	-2
523.253	1	4
523.423	1	-4
523.593	1	-16
523.764	1	14
523.934	1	6
524.104	1	-11
524.274	1	-9
524.444	1	10
524.614	1	2
524.784	1	0
524.955	1	-6
525.125	1	10
525.295	1	-5
525.465	1	-2
525.635	1	16
525.805	1	-1
525.975	1	-8
526.146	1	5
526.316	1	-5
526.486	1	-5
526.656	1	17
526.826	1	1
526.996	1	22
527.166	1	13
527.337	1	-4
527.507	1	-7
527.677	1	12
527.847	1	-2
528.017	1	-6
528.187	1	8
528.357	1	5
528.527	1	7
528.698	1	-1
528.868	1	-10
529.038	1	7
529.208	1	0
529.378	1	2
529.548	1	-2
529.718	1	0
529.888	1	1
530.058	1	6
530.229	1	2
530.399	1	9
530.569	1	13
530.739	1	-14
530.909	1	10
531.079	1	1
531.249	1	7
531.419	1	3
531.589	1	-8
531.760	1	10
531.930	1	-4
532.100	1	3
532.270	1	13
532.440	1	-13
532.610	1	7
532.780	1	0
532.950	1	8
533.120	1	-2
533.290	1	5
533.461	1	11
533.631	1	-2
533.801	1	-2
533.971	1	9
534.141	1	6
534.311	1	9
534.481	1	3
534.651	1	0
534.821	1	7
534.991	1	8
535.162	1	-7
535.332	1	7
535.502	1	3
535.672	1	-4
535.842	1	-2
536.012	1	0
536.182	1	5
536.352	1	2
536.522	1	8
536.692	1	4
536.862	1	11
537.032	1	3
537.203	1	5
537.373	1	-4
537.543	1	8
537.713	1	8
537.883	1	12
538.053	1	12
538.223	1	7
538.393	1	10
538.563	1	4
538.733	1	-9
538.903	1	2
539.073	1	-5
539.243	1	-3
539.413	1	1
539.584	1	6
539.754	1	-3
539.924	1	1
540.094	1	6
540.264	1	6
540.434	1	1
540.604	1	3
540.774	1	3
540.944	1	3
541.114	1	-4
541.284	1	2
541.454	1	11
541.624	1	11
541.794	1	0
541.964	1	3
542.134	1	11
542.305	1	-4
542.475	1	-1
542.645	1	-6
542.815	1	15
542.985	1	0
543.155	1	1
543.325	1	-4
543.495	1	-4
543.665	1	8
543.835	1	-5
544.005	1	2
544.175	1	1
544.345	1	-7
544.515	1	2
544.685	1	6
544.855	1	8
545.025	1	5
545.195	1	4
545.365	1	8
545.535	1	5
545.705	1	2
545.875	1	-2
546.045	1	11
546.216	1	3
546.386	1	4
546.556	1	3
546.726	1	-6
546.896	1	5
547.066	1	-8
547.236	1	-6
547.406	1	7
547.576	1	7
547.746	1	12
547.916	1	2
548.086	1	11
548.256	1	-2
548.426	1	-7
548.596	1	8
548.766	1	8
548.936	1	-11
549.106	1	-1
549.276	1	4
549.446	1	5
549.616	1	7
549.786	1	0
549.956	1	9
550.126	1	1
550.296	1	2
550.466	1	-5
550.636	1	2
550.806	1	11
550.976	1	1
551.146	1	-5
551.316	1	6
551.486	1	2
551.656	1	-5
551.826	1	6
551.996	1	10
552.166	1	-5
552.336	1	7
552.506	1	-4
552.676	1	-6
552.846	1	10
553.016	1	2
553.186	1	0
553.356	1	2
553.526	1	-1
553.696	1	16
553.866	1	2
554.036	1	13
554.206	1	8
554.376	1	-3
554.546	1	-4
554.716	1	1
554.886	1	7
555.056	1	-1
555.226	1	-2
555.396	1	6
555.566	1	1
555.736	1	2
555.906	1	0
556.076	1	5
556.246	1	-1
556.416	1	4
556.586	1	12
556.756	1	2
556.926	1	8
557.096	1	-2
557.266	1	4
557.436	1	3
557.606	1	-6
557.776	1	5
557.946	1	8
558.116	1	12
558.286	1	6
558.456	1	1
558.626	1	10
558.796	1	-4
558.966	1	9
559.136	1	8
559.306	1	-2
559.476	1	-5
559.646	1	2
559.816	1	9
559.986	1	-5
560.155	1	1
560.325	1	-4
560.495	1	-4
560.665	1	10
560.835	1	11
561.005	1	2
561.175	1	-3
561.345	1	1
561.515	1	-12
561.685	1	-9
561.855	1	11
562.025	1	-3
562.195	1	4
562.365	1	5
562.535	1	2
562.705	1	10
562.875	1	7
563.045	1	8
563.215	1	8
563.385	1	-3
563.555	1	10
563.725	1	6
563.895	1	5
564.064	1	12
564.234	1	2
564.404	1	-2
564.574	1	4
564.744	1	7
564.914	1	-10
565.084	1	-4
565.254	1	4
565.424	1	6
565.594	1	-1
565.764	1	3
565.934	1	-1
566.104	1	-2
566.274	1	2
566.444	1	14
566.614	1	-1
566.783	1	2
566.953	1	6
567.123	1	6
567.293	1	12
567.463	1	4
567.633	1	4
567.803	1	-9
567.973	1	-1
568.143	1	-12
568.313	1	-8
568.483	1	3
568.653	1	-3
568.823	1	1
568.993	1	-4
569.162	1	3
569.332	1	-3
569.502	1	-8
569.672	1	-2
569.842	1	0
570.012	1	1
570.182	1	-5
570.352	1	7
570.522	1	2
570.692	1	2
570.862	1	5
571.031	1	0
571.201	1	-8
571.371	1	1
571.541	1	-6
571.711	1	1
571.881	1	8
572.051	1	3
572.221	1	-1
572.391	1	13
572.561	1	-5
572.731	1	-3
572.900	1	15
573.070	1	8
573.240	1	-4
573.410	1	0
573.580	1	2
573.750	1	7
573.920	1	-7
574.090	1	-3
574.260	1	7
574.430	1	-1
574.599	1	7
574.769	1	2
574.939	1	10
575.109	1	-1
575.279	1	8
575.449	1	9
575.619	1	0
575.789	1	9
575.959	1	-9
576.128	1	0
576.298	1	-3
576.468	1	0
576.638	1	0
576.808	1	-1
576.978	1	-4
577.148	1	6
577.318	1	5
577.487	1	2
577.657	1	-8
577.827	1	6
577.997	1	-6
578.167	1	13
578.337	1	1
578.507	1	-8
578.677	1	2
578.846	1	-2
579.016	1	16
579.186	1	7
579.356	1	0
579.526	1	0
579.696	1	0
579.866	1	5
580.036	1	-2
580.205	1	0
580.375	1	5
580.545	1	5
580.715	1	11
580.885	1	-4
581.055	1	4
581.225	1	-4
581.394	1	-3
581.564	1	-3
581.734	1	14
581.904	1	8
582.074	1	-6
582.244	1	6
582.414	1	-5
582.583	1	-2
582.753	1	5
582.923	1	4
583.093	1	-2
583.263	1	5
583.433	1	-4
583.603	1	11
583.772	1	1
583.942	1	8
584.112	1	4
584.282	1	1
584.452	1	6
584.622	1	2
584.791	1	-2
584.961	1	6
585.131	1	-11
585.301	1	8
585.471	1	4
585.641	1	8
585.811	1	6
585.980	1	-7
586.150	1	5
586.320	1	-3
586.490	1	-3
586.660	1	8
586.830	1	-2
586.999	1	0
587.169	1	7
587.339	1	-1
587.509	1	-5
587.679	1	1
587.849	1	6
588.018	1	6
588.188	1	0
588.358	1	2
588.528	1	7
588.698	1	-2
588.867	1	-2
589.037	1	-1
589.207	1	-2
589.377	1	9
589.547	1	-1
589.717	1	6
589.886	1	-4
590.056	1	-1
590.226	1	1
590.396	1	12
590.566	1	1
590.735	1	14
590.905	1	14
591.075	1	-5
591.245	1	-4
591.415	1	-5
591.585	1	0
591.754	1	1
591.924	1	1
592.094	1	9
592.264	1	0
592.434	1	7
592.603	1	-5
592.773	1	4
592.943	1	2
593.113	1	-15
593.283	1	7
593.452	1	-12
593.622	1	1
593.792	1	2
593.962	1	9
594.132	1	1
594.301	1	8
594.471	1	0
594.641	1	-2
594.811	1	0
594.981	1	-10
595.150	1	9
595.320	1	2
595.490	1	-5
595.660	1	7
595.829	1	-1
595.999	1	12
596.169	1	5
596.339	1	1
596.509	1	5
596.678	1	-4
596.848	1	0
597.018	1	15
597.188	1	1
597.358	1	10
597.527	1	2
597.697	1	-11
597.867	1	3
598.037	1	10
598.206	1	-8
598.376	1	10
598.546	1	-8
598.716	1	-10
598.885	1	1
599.055	1	8
599.225	1	-8
599.395	1	13
599.565	1	7
599.734	1	4
599.904	1	-4
600.074	1	0
600.244	1	2
600.413	1	-6
600.583	1	3
600.753	1	1
600.923	1	19
601.092	1	-3
601.262	1	4
601.432	1	6
601.602	1	12
601.771	1	3
601.941	1	-2
602.111	1	-9
602.281	1	-5
602.451	1	3
602.620	1	4
602.790	1	-2
602.960	1	-5
603.130	1	7
603.299	1	-2
603.469	1	-4
603.639	1	6
603.809	1	6
603.978	1	6
604.148	1	0
604.318	1	4
604.487	1	10
604.657	1	-1
604.827	1	-13
604.997	1	0
605.166	1	-3
605.336	1	-6
605.506	1	7
605.676	1	0
605.845	1	5
606.015	1	9
606.185	1	9
606.355	1	7
606.524	1	0
606.694	1	9
606.864	1	-9
607.034	1	-3
607.203	1	-1
607.373	1	-2
607.543	1	-2
607.712	1	17
607.882	1	-10
608.052	1	2
608.222	1	3
608.391	1	-1
608.561	1	3
608.731	1	-5
608.901	1	5
609.070	1	-1
609.240	1	-3
609.410	1	7
609.579	1	4
609.749	1	10
609.919	1	-2
610.089	1	0
610.258	1	7
610.428	1	-7
610.598	1	3
610.767	1	2
610.937	1	-2
611.107	1	6
611.277	1	5
611.446	1	-7
611.616	1	-11
611.786	1	11
611.955	1	6
612.125	1	5
612.295	1	2
612.465	1	-4
612.634	1	-3
612.804	1	8
612.974	1	13
613.143	1	-2
613.313	1	6
613.483	1	10
613.652	1	1
613.822	1	4
613.992	1	5
614.162	1	-1
614.331	1	5
614.501	1	10
614.671	1	-2
614.840	1	4
615.010	1	9
615.180	1	6
615.349	1	11
615.519	1	5
615.689	1	-4
615.858	1	6
616.028	1	0
616.198	1	7
616.368	1	5
616.537	1	-6
616.707	1	-12
616.877	1	4
617.046	1	4
617.216	1	4
617.386	1	-3
617.555	1	-4
617.725	1	10
617.895	1	-4
618.064	1	7
618.234	1	-3
618.404	1	11
618.573	1	-2
618.743	1	-6
618.913	1	-2
619.082	1	3
619.252	1	-1
619.422	1	-2
619.591	1	11
619.761	1	0
619.931	1	0
620.100	1	6
620.270	1	1
620.440	1	0
620.609	1	7
620.779	1	1
620.949	1	2
621.118	1	-3
621.288	1	8
621.458	1	16
621.627	1	-11
621.797	1	6
621.967	1	-8
622.136	1	9
622.306	1	-2
622.476	1	-4
622.645	1	-2
622.815	1	-5
622.985	1	8
623.154	1	8
623.324	1	8
623.494	1	3
623.663	1	7
623.833	1	-3
624.002	1	5
624.172	1	3
624.342	1	-3
624.511	1	2
624.681	1	-8
624.851	1	-1
625.020	1	11
625.190	1	2
625.360	1	-4
625.529	1	7
625.699	1	-1
625.869	1	12
626.038	1	9
626.208	1	9
626.377	1	8
626.547	1	11
626.717	1	-3
626.886	1	-2
627.056	1	0
627.226	1	-7
627.395	1	0
627.565	1	12
627.735	1	0
627.904	1	3
628.074	1	15
628.243	1	-7
628.413	1	4
628.583	1	4
628.752	1	4
628.922	1	2
629.091	1	1
629.261	1	4
629.431	1	-10
629.600	1	8
629.770	1	2
629.940	1	11
630.109	1	9
630.279	1	-8
630.448	1	-2
630.618	1	1
630.788	1	-1
630.957	1	-1
631.127	1	12
631.297	1	-1
631.466	1	8
631.636	1	1
631.805	1	1
631.975	1	8
632.145	1	-9
632.314	1	8
632.484	1	1
632.653	1	-3
632.823	1	11
632.993	1	0
633.162	1	5
633.332	1	2
633.501	1	3
633.671	1	3
633.841	1	4
634.010	1	5
634.180	1	9
634.349	1	6
634.519	1	-1
634.689	1	6
634.858	1	7
635.028	1	7
635.197	1	-7
635.367	1	3
635.537	1	-3
635.706	1	0
635.876	1	5
636.045	1	6
636.215	1	3
636.384	1	5
636.554	1	17
636.724	1	16
636.893	1	-3
637.063	1	3
637.232	1	-4
637.402	1	2
637.572	1	-8
637.741	1	11
637.911	1	2
638.080	1	2
638.250	1	3
638.419	1	11
638.589	1	15
638.759	1	4
638.928	1	-1
639.098	1	2
639.267	1	1
639.437	1	-11
639.606	1	7
639.776	1	-5
639.946	1	5
640.115	1	2
640.285	1	7
640.454	1	14
640.624	1	8
640.793	1	6
640.963	1	-1
641.132	1	16
641.302	1	4
641.472	1	-8
641.641	1	-3
641.811	1	8
641.980	1	-6
642.150	1	7
642.319	1	-2
642.489	1	-6
642.659	1	0
642.828	1	11
642.998	1	-5
643.167	1	12
643.337	1	-6
643.506	1	-9
643.676	1	-8
643.845	1	4
644.015	1	0
644.184	1	9
644.354	1	0
644.524	1	-6
644.693	1	5
644.863	1	-3
645.032	1	-3
645.202	1	2
645.371	1	-1
645.541	1	-3
645.710	1	9
645.880	1	9
646.049	1	19
646.219	1	7
646.388	1	-5
646.558	1	2
646.728	1	1
646.897	1	0
647.067	1	5
647.236	1	-1
647.406	1	3
647.575	1	4
647.745	1	-3
647.914	1	0
648.084	1	-6
648.253	1	-1
648.423	1	-6
648.592	1	0
648.762	1	2
648.931	1	4
649.101	1	-4
649.270	1	15
649.440	1	3
649.610	1	11
649.779	1	3
649.949	1	-4
650.118	1	-4
650.288	1	-2
650.457	1	-6
650.627	1	6
650.796	1	5
650.966	1	-4
651.135	1	11
651.305	1	0
651.474	1	3
651.644	1	2
651.813	1	14
651.983	1	-4
652.152	1	3
652.322	1	10
652.491	1	2
652.661	1	5
652.830	1	9
653.000	1	2
653.169	1	7
653.339	1	6
653.508	1	-1
653.678	1	-1
653.847	1	-4
654.017	1	1
654.186	1	1
654.356	1	12
654.525	1	-1
654.695	1	11
654.864	1	6
655.034	1	2
655.203	1	-5
655.373	1	4
655.542	1	12
655.712	1	-1
655.881	1	6
656.051	1	13
656.220	1	8
656.390	1	2
656.559	1	-6
656.729	1	7
656.898	1	5
657.068	1	-3
657.237	1	4
657.406	1	13
657.576	1	-6
657.745	1	-2
657.915	1	15
658.084	1	8
658.254	1	2
658.423	1	-8
658.593	1	0
658.762	1	-6
658.932	1	3
659.101	1	7
659.271	1	6
659.440	1	15
659.610	1	3
659.779	1	-3
659.949	1	-11
660.118	1	13
660.288	1	-5
660.457	1	4
660.626	1	-6
660.796	1	-3
660.965	1	2
661.135	1	12
661.304	1	-1
661.474	1	5
661.643	1	0
661.813	1	3
661.982	1	0
662.152	1	6
662.321	1	6
662.491	1	-5
662.660	1	-4
662.829	1	-5
662.999	1	7
663.168	1	-5
663.338	1	-4
663.507	1	-1
663.677	1	-15
663.846	1	2
664.016	1	-1
664.185	1	-7
664.354	1	5
664.524	1	-16
664.693	1	3
664.863	1	-1
665.032	1	3
665.202	1	-5
665.371	1	7
665.541	1	-5
665.710	1	-4
665.879	1	3
666.049	1	2
666.218	1	-11
666.388	1	3
666.557	1	8
666.727	1	-17
666.896	1	-1
667.065	1	13
667.235	1	-5
667.404	1	2
667.574	1	0
667.743	1	5
667.913	1	2
668.082	1	-6
668.251	1	3
668.421	1	4
668.590	1	0
668.760	1	-2
668.929	1	9
669.099	1	-1
669.268	1	-3
669.437	1	6
669.607	1	-6
669.776	1	-2
669.946	1	9
670.115	1	0
670.285	1	5
670.454	1	5
670.623	1	3
670.793	1	3
670.962	1	-2
671.132	1	1
671.301	1	-7
671.470	1	0
671.640	1	-12
671.809	1	-6
671.979	1	18
672.148	1	15
672.317	1	1
672.487	1	-1
672.656	1	8
672.826	1	-12
672.995	1	6
673.164	1	9
673.334	1	0
673.503	1	-4
673.673	1	15
673.842	1	5
674.011	1	1
674.181	1	3
674.350	1	-2
674.520	1	1
674.689	1	7
674.858	1	-4
675.028	1	9
675.197	1	-12
675.367	1	7
675.536	1	5
675.705	1	0
675.875	1	8
676.044	1	-4
676.214	1	2
676.383	1	2
676.552	1	-4
676.722	1	7
676.891	1	-9
677.060	1	6
677.230	1	2
677.399	1	-1
677.569	1	-8
677.738	1	1
677.907	1	-10
678.077	1	2
678.246	1	-5
678.416	1	-3
678.585	1	4
678.754	1	-3
678.924	1	-4
679.093	1	8
679.262	1	-9
679.432	1	-13
679.601	1	-9
679.771	1	-2
679.940	1	0
680.109	1	7
680.279	1	-9
680.448	1	12
680.617	1	-11
680.787	1	3
680.956	1	-6
681.125	1	8
681.295	1	8
681.464	1	-6
681.634	1	9
681.803	1	0
681.972	1	-6
682.142	1	14
682.311	1	0
682.480	1	12
682.650	1	-5
682.819	1	-3
682.988	1	1
683.158	1	4
683.327	1	9
683.496	1	-12
683.666	1	11
683.835	1	7
684.004	1	3
684.174	1	-3
684.343	1	5
684.512	1	1
684.682	1	2
684.851	1	0
685.021	1	10
685.190	1	12
685.359	1	-5
685.529	1	-1
685.698	1	9
685.867	1	-4
686.037	1	-1
686.206	1	1
686.375	1	-5
686.545	1	4
686.714	1	-5
686.883	1	-10
687.053	1	11
687.222	1	-5
687.391	1	-6
687.561	1	3
687.730	1	-5
687.899	1	-6
688.069	1	3
688.238	1	-4
688.407	1	-2
688.577	1	-4
688.746	1	10
