340.368	1	-1
340.539	1	0
340.710	1	-7
340.881	1	5
341.052	1	9
341.223	1	9
341.394	1	-4
341.565	1	-3
341.737	1	0
341.908	1	2
342.079	1	-2
342.250	1	2
342.421	1	-2
342.592	1	-9
342.763	1	3
342.934	1	6
343.105	1	17
343.276	1	-5
343.447	1	5
343.618	1	3
343.789	1	4
343.960	1	-6
344.131	1	-9
344.302	1	-1
344.473	1	-3
344.644	1	-4
344.815	1	2
344.986	1	14
345.157	1	15
345.328	1	-3
345.499	1	6
345.670	1	5
345.841	1	3
346.012	1	13
346.183	1	-1
346.354	1	1
346.526	1	9
346.697	1	-2
346.868	1	2
347.039	1	-3
347.210	1	9
347.381	1	8
347.552	1	2
347.723	1	-5
347.894	1	-2
348.065	1	9
348.236	1	7
348.407	1	-2
348.578	1	3
348.749	1	3
348.920	1	10
349.091	1	0
349.262	1	1
349.433	1	-3
349.604	1	4
349.775	1	11
349.946	1	18
350.117	1	9
350.288	1	0
350.459	1	6
350.630	1	-7
350.801	1	-2
350.972	1	-5
351.143	1	-5
351.314	1	-2
351.485	1	-3
351.656	1	4
351.827	1	-6
351.998	1	6
352.169	1	9
352.340	1	-1
352.511	1	1
352.682	1	-2
352.853	1	-11
353.024	1	-7
353.195	1	-6
353.366	1	10
353.537	1	-3
353.708	1	0
353.879	1	3
354.050	1	1
354.221	1	-4
354.392	1	3
354.563	1	10
354.734	1	8
354.905	1	2
355.076	1	3
355.247	1	3
355.418	1	-12
355.589	1	-6
355.760	1	5
355.931	1	1
356.102	1	-5
356.273	1	10
356.444	1	8
356.615	1	4
356.785	1	6
356.956	1	-2
357.127	1	5
357.298	1	-3
357.469	1	-3
357.640	1	10
357.811	1	15
357.982	1	-4
358.153	1	-1
358.324	1	9
358.495	1	6
358.666	1	-1
358.837	1	5
359.008	1	-5
359.179	1	7
359.350	1	-2
359.521	1	1
359.692	1	9
359.863	1	-7
360.034	1	-5
360.205	1	1
360.376	1	3
360.547	1	-3
360.718	1	2
360.889	1	3
361.060	1	6
361.231	1	5
361.401	1	13
361.572	1	4
361.743	1	-3
361.914	1	-7
362.085	1	3
362.256	1	14
362.427	1	-1
362.598	1	8
362.769	1	16
362.940	1	3
363.111	1	3
363.282	1	7
363.453	1	13
363.624	1	0
363.795	1	11
363.966	1	4
364.137	1	-4
364.308	1	-6
364.478	1	4
364.649	1	9
364.820	1	5
364.991	1	6
365.162	1	-3
365.333	1	10
365.504	1	3
365.675	1	0
365.846	1	5
366.017	1	15
366.188	1	1
366.359	1	3
366.530	1	13
366.701	1	3
366.871	1	12
367.042	1	13
367.213	1	7
367.384	1	10
367.555	1	-2
367.726	1	16
367.897	1	4
368.068	1	-3
368.239	1	5
368.410	1	8
368.581	1	12
368.752	1	-4
368.923	1	-8
369.093	1	9
369.264	1	2
369.435	1	6
369.606	1	-5
369.777	1	2
369.948	1	3
370.119	1	14
370.290	1	5
370.461	1	3
370.632	1	2
370.803	1	-6
370.973	1	16
371.144	1	10
371.315	1	-2
371.486	1	7
371.657	1	7
371.828	1	6
371.999	1	2
372.170	1	7
372.341	1	9
372.512	1	1
372.682	1	-3
372.853	1	4
373.024	1	6
373.195	1	-3
373.366	1	5
373.537	1	4
373.708	1	1
373.879	1	22
374.050	1	11
374.220	1	7
374.391	1	2
374.562	1	-3
374.733	1	16
374.904	1	13
375.075	1	4
375.246	1	2
375.417	1	3
375.588	1	6
375.758	1	0
375.929	1	2
376.100	1	13
376.271	1	5
376.442	1	-3
376.613	1	1
376.784	1	6
376.955	1	-4
377.125	1	0
377.296	1	10
377.467	1	2
377.638	1	0
377.809	1	8
377.980	1	8
378.151	1	-2
378.321	1	2
378.492	1	10
378.663	1	0
378.834	1	5
379.005	1	7
379.176	1	0
379.347	1	8
379.518	1	-17
379.688	1	-7
379.859	1	-3
380.030	1	-2
380.201	1	-14
380.372	1	-1
380.543	1	7
380.714	1	2
380.884	1	1
381.055	1	10
381.226	1	-2
381.397	1	0
381.568	1	0
381.739	1	14
381.910	1	-1
382.080	1	0
382.251	1	7
382.422	1	18
382.593	1	-4
382.764	1	6
382.935	1	11
383.105	1	0
383.276	1	-3
383.447	1	7
383.618	1	6
383.789	1	5
383.960	1	-2
384.130	1	1
384.301	1	15
384.472	1	1
384.643	1	15
384.814	1	4
384.985	1	4
385.156	1	16
385.326	1	3
385.497	1	2
385.668	1	3
385.839	1	6
386.010	1	5
386.180	1	12
386.351	1	-1
386.522	1	11
386.693	1	2
386.864	1	8
387.035	1	8
387.205	1	9
387.376	1	14
387.547	1	1
387.718	1	15
387.889	1	10
388.060	1	-3
388.230	1	6
388.401	1	16
388.572	1	4
388.743	1	4
388.914	1	17
389.084	1	10
389.255	1	21
389.426	1	11
389.597	1	4
389.768	1	6
389.939	1	7
390.109	1	9
390.280	1	11
390.451	1	14
390.622	1	2
390.793	1	7
390.963	1	3
391.134	1	12
391.305	1	10
391.476	1	13
391.647	1	5
391.817	1	0
391.988	1	-2
392.159	1	13
392.330	1	4
392.501	1	17
392.671	1	13
392.842	1	14
393.013	1	11
393.184	1	9
393.355	1	14
393.525	1	19
393.696	1	7
393.867	1	3
394.038	1	-4
394.208	1	17
394.379	1	2
394.550	1	10
394.721	1	-4
394.892	1	7
395.062	1	-5
395.233	1	12
395.404	1	8
395.575	1	-3
395.746	1	1
395.916	1	6
396.087	1	6
396.258	1	5
396.429	1	6
396.599	1	4
396.770	1	4
396.941	1	27
397.112	1	0
397.283	1	2
397.453	1	-9
397.624	1	7
397.795	1	5
397.966	1	12
398.136	1	16
398.307	1	6
398.478	1	1
398.649	1	8
398.819	1	9
398.990	1	9
399.161	1	11
399.332	1	9
399.503	1	8
399.673	1	7
399.844	1	8
400.015	1	12
400.186	1	8
400.356	1	1
400.527	1	13
400.698	1	9
400.869	1	21
401.039	1	2
401.210	1	-4
401.381	1	4
401.552	1	21
401.722	1	18
401.893	1	11
402.064	1	5
402.235	1	15
402.405	1	8
402.576	1	15
402.747	1	-7
402.918	1	-12
403.088	1	-10
403.259	1	-1
403.430	1	-3
403.601	1	0
403.771	1	0
403.942	1	8
404.113	1	15
404.284	1	5
404.454	1	11
404.625	1	1
404.796	1	0
404.967	1	12
405.137	1	4
405.308	1	8
405.479	1	10
405.649	1	4
405.820	1	-5
405.991	1	7
406.162	1	2
406.332	1	-10
406.503	1	-2
406.674	1	3
406.845	1	10
407.015	1	-2
407.186	1	16
407.357	1	8
407.527	1	3
407.698	1	-4
407.869	1	-4
408.040	1	-4
408.210	1	-6
408.381	1	-6
408.552	1	7
408.722	1	-1
408.893	1	1
409.064	1	7
409.235	1	2
409.405	1	-3
409.576	1	6
409.747	1	-3
409.917	1	1
410.088	1	12
410.259	1	9
410.430	1	3
410.600	1	2
410.771	1	11
410.942	1	-6
411.112	1	2
411.283	1	-5
411.454	1	12
411.625	1	5
411.795	1	8
411.966	1	3
412.137	1	10
412.307	1	5
412.478	1	12
412.649	1	2
412.819	1	-6
412.990	1	2
413.161	1	8
413.332	1	-5
413.502	1	5
413.673	1	5
413.844	1	6
414.014	1	-11
414.185	1	9
414.356	1	-9
414.526	1	6
414.697	1	2
414.868	1	15
415.038	1	7
415.209	1	8
415.380	1	0
415.550	1	-10
415.721	1	3
415.892	1	8
416.063	1	5
416.233	1	4
416.404	1	7
416.575	1	-10
416.745	1	-7
416.916	1	4
417.087	1	1
417.257	1	4
417.428	1	-4
417.599	1	2
417.769	1	-5
417.940	1	-6
418.111	1	2
418.281	1	-1
418.452	1	3
418.623	1	11
418.793	1	3
418.964	1	10
419.135	1	13
419.305	1	-2
419.476	1	4
419.647	1	2
419.817	1	-1
419.988	1	4
420.159	1	-1
420.329	1	11
420.500	1	3
420.671	1	6
420.841	1	3
421.012	1	5
421.183	1	3
421.353	1	8
421.524	1	9
421.695	1	12
421.865	1	1
422.036	1	-6
422.206	1	-1
422.377	1	2
422.548	1	8
422.718	1	-3
422.889	1	-5
423.060	1	-1
423.230	1	8
423.401	1	5
423.572	1	6
423.742	1	11
423.913	1	2
424.084	1	1
424.254	1	5
424.425	1	-2
424.595	1	-7
424.766	1	7
424.937	1	0
425.107	1	1
425.278	1	2
425.449	1	2
425.619	1	1
425.790	1	-2
425.961	1	-4
426.131	1	11
426.302	1	-9
426.472	1	2
426.643	1	7
426.814	1	5
426.984	1	5
427.155	1	3
427.326	1	7
427.496	1	19
427.667	1	13
427.837	1	-3
428.008	1	5
428.179	1	-8
428.349	1	-7
428.520	1	0
428.691	1	-5
428.861	1	-2
429.032	1	-7
429.202	1	12
429.373	1	-4
429.544	1	8
429.714	1	11
429.885	1	-3
430.055	1	5
430.226	1	2
430.397	1	-6
430.567	1	14
430.738	1	4
430.909	1	-13
431.079	1	10
431.250	1	0
431.420	1	4
431.591	1	1
431.762	1	4
431.932	1	3
432.103	1	0
432.273	1	4
432.444	1	9
432.615	1	-1
432.785	1	-1
432.956	1	-6
433.126	1	-4
433.297	1	11
433.468	1	6
433.638	1	10
433.809	1	6
433.979	1	9
434.150	1	-3
434.320	1	-1
434.491	1	9
434.662	1	-3
434.832	1	-3
435.003	1	5
435.173	1	0
435.344	1	10
435.515	1	0
435.685	1	6
435.856	1	1
436.026	1	7
436.197	1	-10
436.368	1	-2
436.538	1	7
436.709	1	-5
436.879	1	-4
437.050	1	7
437.220	1	14
437.391	1	0
437.562	1	4
437.732	1	-3
437.903	1	3
438.073	1	11
438.244	1	-7
438.414	1	6
438.585	1	2
438.756	1	7
438.926	1	3
439.097	1	8
439.267	1	4
439.438	1	1
439.608	1	7
439.779	1	-2
439.949	1	3
440.120	1	-1
440.291	1	1
440.461	1	-4
440.632	1	0
440.802	1	9
440.973	1	11
441.143	1	8
441.314	1	1
441.485	1	-2
441.655	1	12
441.826	1	-2
441.996	1	8
442.167	1	-5
442.337	1	-2
442.508	1	4
442.678	1	-5
442.849	1	17
443.019	1	5
443.190	1	-12
443.361	1	6
443.531	1	-1
443.702	1	-2
443.872	1	-2
444.043	1	-1
444.213	1	-6
444.384	1	6
444.554	1	-3
444.725	1	8
444.895	1	1
445.066	1	-6
445.237	1	-12
445.407	1	-8
445.578	1	12
445.748	1	-8
445.919	1	-2
446.089	1	14
446.260	1	1
446.430	1	-7
446.601	1	-6
446.771	1	2
446.942	1	8
447.112	1	-3
447.283	1	0
447.453	1	-3
447.624	1	11
447.794	1	2
447.965	1	-6
448.135	1	-3
448.306	1	4
448.477	1	-8
448.647	1	8
448.818	1	11
448.988	1	-10
449.159	1	-10
449.329	1	3
449.500	1	19
449.670	1	7
449.841	1	5
450.011	1	5
450.182	1	-2
450.352	1	5
450.523	1	4
450.693	1	7
450.864	1	-5
451.034	1	5
451.205	1	8
451.375	1	11
451.546	1	0
451.716	1	13
451.887	1	-8
452.057	1	6
452.228	1	0
452.398	1	0
452.569	1	1
452.739	1	2
452.910	1	0
453.080	1	15
453.251	1	0
453.421	1	4
453.592	1	-7
453.762	1	1
453.933	1	9
454.103	1	5
454.274	1	-5
454.444	1	14
454.615	1	6
454.785	1	-7
454.956	1	2
455.126	1	-5
455.297	1	1
455.467	1	9
455.638	1	8
455.808	1	-5
455.979	1	11
456.149	1	-2
456.320	1	-1
456.490	1	-1
456.661	1	-3
456.831	1	3
457.001	1	6
457.172	1	-8
457.342	1	14
457.513	1	8
457.683	1	-3
457.854	1	8
458.024	1	4
458.195	1	2
458.365	1	6
458.536	1	2
458.706	1	-1
458.877	1	3
459.047	1	0
459.218	1	15
459.388	1	8
459.559	1	8
459.729	1	9
459.899	1	11
460.070	1	7
460.240	1	10
460.411	1	6
460.581	1	1
460.752	1	-3
460.922	1	2
461.093	1	4
461.263	1	9
461.434	1	13
461.604	1	-6
461.775	1	1
461.945	1	0
462.115	1	-8
462.286	1	7
462.456	1	0
462.627	1	-5
462.797	1	-9
462.968	1	-5
463.138	1	0
463.309	1	-5
463.479	1	9
463.649	1	0
463.820	1	6
463.990	1	0
464.161	1	6
464.331	1	5
464.502	1	5
464.672	1	5
464.843	1	4
465.013	1	-7
465.183	1	0
465.354	1	5
465.524	1	4
465.695	1	7
465.865	1	3
466.036	1	4
466.206	1	-2
466.376	1	-4
466.547	1	7
466.717	1	-3
466.888	1	-3
467.058	1	9
467.229	1	9
467.399	1	3
467.569	1	7
467.740	1	7
467.910	1	-5
468.081	1	6
468.251	1	-9
468.422	1	2
468.592	1	11
468.762	1	-7
468.933	1	6
469.103	1	-1
469.274	1	-3
469.444	1	2
469.614	1	-3
469.785	1	14
469.955	1	1
470.126	1	11
470.296	1	-1
470.467	1	-6
470.637	1	16
470.807	1	-7
470.978	1	1
471.148	1	-7
471.319	1	4
471.489	1	2
471.659	1	1
471.830	1	6
472.000	1	0
472.171	1	3
472.341	1	0
472.511	1	6
472.682	1	6
472.852	1	-5
473.023	1	-5
473.193	1	-4
473.363	1	0
473.534	1	1
473.704	1	9
473.875	1	5
474.045	1	-1
474.215	1	1
474.386	1	4
474.556	1	-10
474.727	1	1
474.897	1	1
475.067	1	7
475.238	1	-2
475.408	1	1
475.578	1	5
475.749	1	-9
475.919	1	4
476.090	1	-4
476.260	1	-9
476.430	1	-2
476.601	1	0
476.771	1	4
476.942	1	2
477.112	1	-4
477.282	1	-11
477.453	1	4
477.623	1	0
477.793	1	3
477.964	1	6
478.134	1	3
478.305	1	1
478.475	1	-3
478.645	1	-5
478.816	1	-6
478.986	1	-1
479.156	1	0
479.327	1	-2
479.497	1	-6
479.667	1	7
479.838	1	4
480.008	1	11
480.179	1	-1
480.349	1	1
480.519	1	2
480.690	1	0
480.860	1	-2
481.030	1	-9
481.201	1	-7
481.371	1	-1
481.541	1	-1
481.712	1	13
481.882	1	-2
482.053	1	5
482.223	1	4
482.393	1	-13
482.564	1	-2
482.734	1	2
482.904	1	0
483.075	1	10
483.245	1	-5
483.415	1	11
483.586	1	0
483.756	1	17
483.926	1	12
484.097	1	-6
484.267	1	3
484.437	1	-6
484.608	1	-5
484.778	1	2
484.948	1	-3
485.119	1	7
485.289	1	2
485.459	1	8
485.630	1	-6
485.800	1	0
485.970	1	1
486.141	1	-10
486.311	1	6
486.481	1	2
486.652	1	12
486.822	1	9
486.992	1	-6
487.163	1	-9
487.333	1	7
487.503	1	-9
487.674	1	0
487.844	1	7
488.014	1	2
488.185	1	-5
488.355	1	-5
488.525	1	-12
488.696	1	-4
488.866	1	1
489.036	1	5
489.207	1	5
489.377	1	12
489.547	1	4
489.718	1	-6
489.888	1	0
490.058	1	1
490.228	1	-2
490.399	1	3
490.569	1	6
490.739	1	8
490.910	1	-2
491.080	1	-3
491.250	1	3
491.421	1	9
491.591	1	-2
491.761	1	6
491.932	1	9
492.102	1	-7
492.272	1	2
492.442	1	10
492.613	1	9
492.783	1	-4
492.953	1	2
493.124	1	4
493.294	1	16
493.464	1	-7
493.635	1	-6
493.805	1	17
493.975	1	1
494.145	1	-1
494.316	1	9
494.486	1	13
494.656	1	-1
494.827	1	-4
494.997	1	-10
495.167	1	8
495.337	1	-2
495.508	1	-5
495.678	1	13
495.848	1	3
496.019	1	-4
496.189	1	7
496.359	1	9
496.529	1	2
496.700	1	8
496.870	1	3
497.040	1	0
497.211	1	10
497.381	1	-21
497.551	1	11
497.721	1	3
497.892	1	17
498.062	1	-4
498.232	1	4
498.403	1	5
498.573	1	2
498.743	1	7
498.913	1	3
499.084	1	-7
499.254	1	0
499.424	1	11
499.594	1	-2
499.765	1	-3
499.935	1	-1
500.105	1	3
500.275	1	7
500.446	1	7
500.616	1	-2
500.786	1	6
500.956	1	4
501.127	1	12
501.297	1	8
501.467	1	8
501.638	1	4
501.808	1	-6
501.978	1	10
502.148	1	11
502.319	1	-6
502.489	1	16
502.659	1	-7
502.829	1	10
503.000	1	10
503.170	1	4
503.340	1	3
503.510	1	1
503.681	1	3
503.851	1	-7
504.021	1	24
504.191	1	2
504.362	1	20
504.532	1	-7
504.702	1	8
504.872	1	0
505.042	1	11
505.213	1	-3
505.383	1	2
505.553	1	12
505.723	1	-1
505.894	1	8
506.064	1	3
506.234	1	13
506.404	1	1
506.575	1	4
506.745	1	1
506.915	1	-1
507.085	1	2
507.256	1	0
507.426	1	3
507.596	1	-1
507.766	1	6
507.936	1	-4
508.107	1	-4
508.277	1	3
508.447	1	-3
508.617	1	5
508.788	1	7
508.958	1	11
509.128	1	0
509.298	1	18
509.468	1	10
509.639	1	16
509.809	1	9
509.979	1	8
510.149	1	8
510.319	1	3
510.490	1	4
510.660	1	14
510.830	1	0
511.000	1	5
511.171	1	13
511.341	1	3
511.511	1	-10
511.681	1	5
511.851	1	-3
512.022	1	1
512.192	1	-2
512.362	1	2
512.532	1	-3
512.702	1	-10
512.873	1	14
513.043	1	1
513.213	1	1
513.383	1	-3
513.553	1	-2
513.724	1	11
513.894	1	-3
514.064	1	7
514.234	1	11
514.404	1	11
514.575	1	12
514.745	1	-10
514.915	1	10
515.085	1	-5
515.255	1	2
515.425	1	5
515.596	1	-8
515.766	1	8
515.936	1	3
516.106	1	-6
516.276	1	14
516.447	1	9
516.617	1	5
516.787	1	2
516.957	1	1
517.127	1	0
517.297	1	0
517.468	1	10
517.638	1	0
517.808	1	-5
517.978	1	-2
518.148	1	4
518.319	1	5
518.489	1	-6
518.659	1	3
518.829	1	1
518.999	1	0
519.169	1	7
519.340	1	4
519.510	1	9
519.680	1	-7
519.850	1	1
520.020	1	-1
520.190	1	3
520.361	1	-5
520.531	1	6
520.701	1	3
520.871	1	-2
521.041	1	12
521.211	1	2
521.382	1	5
521.552	1	1
521.722	1	14
521.892	1	-9
522.062	1	0
522.232	1	-8
522.402	1	-13
522.573	1	14
522.743	1	15
522.913	1	0
523.083	1	-1
523.253	1	3
523.423	1	-1
523.593	1	-3
523.764	1	12
523.934	1	5
524.104	1	2
524.274	1	2
524.444	1	10
524.614	1	6
524.784	1	0
524.955	1	0
525.125	1	16
525.295	1	-9
525.465	1	2
525.635	1	7
525.805	1	3
525.975	1	4
526.146	1	0
526.316	1	0
526.486	1	0
526.656	1	13
526.826	1	15
526.996	1	6
527.166	1	-1
527.337	1	4
527.507	1	-7
527.677	1	17
527.847	1	-5
528.017	1	-2
528.187	1	3
528.357	1	9
528.527	1	10
528.698	1	-7
528.868	1	-5
529.038	1	8
529.208	1	-4
529.378	1	5
529.548	1	7
529.718	1	5
529.888	1	16
530.058	1	3
530.229	1	14
530.399	1	10
530.569	1	11
530.739	1	-1
530.909	1	5
531.079	1	8
531.249	1	9
531.419	1	15
531.589	1	-1
531.760	1	2
531.930	1	-2
532.100	1	13
532.270	1	11
532.440	1	6
532.610	1	0
532.780	1	7
532.950	1	6
533.120	1	-5
533.290	1	4
533.461	1	13
533.631	1	-2
533.801	1	-1
533.971	1	1
534.141	1	15
534.311	1	7
534.481	1	6
534.651	1	20
534.821	1	1
534.991	1	5
535.162	1	4
535.332	1	5
535.502	1	5
535.672	1	-2
535.842	1	7
536.012	1	11
536.182	1	8
536.352	1	-2
536.522	1	10
536.692	1	-2
536.862	1	8
537.032	1	8
537.203	1	7
537.373	1	-4
537.543	1	-3
537.713	1	16
537.883	1	17
538.053	1	9
538.223	1	10
538.393	1	14
538.563	1	2
538.733	1	4
538.903	1	5
539.073	1	7
539.243	1	9
539.413	1	-2
539.584	1	5
539.754	1	4
539.924	1	1
540.094	1	13
540.264	1	3
540.434	1	-5
540.604	1	4
540.774	1	1
540.944	1	-3
541.114	1	-3
541.284	1	3
541.454	1	-3
541.624	1	9
541.794	1	0
541.964	1	6
542.134	1	4
542.305	1	-3
542.475	1	0
542.645	1	-3
542.815	1	10
542.985	1	-7
543.155	1	2
543.325	1	8
543.495	1	6
543.665	1	23
543.835	1	-6
544.005	1	5
544.175	1	0
544.345	1	-9
544.515	1	4
544.685	1	9
544.855	1	3
545.025	1	-6
545.195	1	4
545.365	1	7
545.535	1	2
545.705	1	12
545.875	1	-4
546.045	1	13
546.216	1	7
546.386	1	-7
546.556	1	-5
546.726	1	-6
546.896	1	5
547.066	1	-20
547.236	1	-11
547.406	1	21
547.576	1	5
547.746	1	16
547.916	1	3
548.086	1	7
548.256	1	14
548.426	1	-4
548.596	1	2
548.766	1	11
548.936	1	5
549.106	1	9
549.276	1	10
549.446	1	4
549.616	1	7
549.786	1	5
549.956	1	1
550.126	1	2
550.296	1	6
550.466	1	-6
550.636	1	2
550.806	1	13
550.976	1	-2
551.146	1	-13
551.316	1	1
551.486	1	7
551.656	1	-1
551.826	1	7
551.996	1	6
552.166	1	5
552.336	1	12
552.506	1	4
552.676	1	4
552.846	1	11
553.016	1	0
553.186	1	4
553.356	1	-2
553.526	1	-4
553.696	1	1
553.866	1	13
554.036	1	-3
554.206	1	8
554.376	1	-4
554.546	1	-8
554.716	1	4
554.886	1	8
555.056	1	-6
555.226	1	-13
555.396	1	4
555.566	1	6
555.736	1	7
555.906	1	6
556.076	1	6
556.246	1	0
556.416	1	-4
556.586	1	9
556.756	1	17
556.926	1	0
557.096	1	4
557.266	1	11
557.436	1	15
557.606	1	-14
557.776	1	0
557.946	1	12
558.116	1	13
558.286	1	2
558.456	1	-4
558.626	1	8
558.796	1	5
558.966	1	0
559.136	1	6
559.306	1	6
559.476	1	-5
559.646	1	-4
559.816	1	2
559.986	1	2
560.155	1	-2
560.325	1	-14
560.495	1	8
560.665	1	5
560.835	1	4
561.005	1	-1
561.175	1	-1
561.345	1	-9
561.515	1	-4
561.685	1	-10
561.855	1	13
562.025	1	7
562.195	1	0
562.365	1	8
562.535	1	-2
562.705	1	7
562.875	1	4
563.045	1	5
563.215	1	5
563.385	1	-3
563.555	1	8
563.725	1	-1
563.895	1	8
564.064	1	4
564.234	1	-9
564.404	1	0
564.574	1	1
564.744	1	-1
564.914	1	-10
565.084	1	-7
565.254	1	5
565.424	1	3
565.594	1	-2
565.764	1	13
565.934	1	7
566.104	1	1
566.274	1	5
566.444	1	8
566.614	1	4
566.783	1	2
566.953	1	3
567.123	1	17
567.293	1	5
567.463	1	1
567.633	1	2
567.803	1	-4
567.973	1	-4
568.143	1	-7
568.313	1	-2
568.483	1	-6
568.653	1	-4
568.823	1	6
568.993	1	-6
569.162	1	8
569.332	1	-3
569.502	1	4
569.672	1	-2
569.842	1	3
570.012	1	4
570.182	1	-8
570.352	1	-3
570.522	1	16
570.692	1	4
570.862	1	5
571.031	1	4
571.201	1	4
571.371	1	2
571.541	1	-5
571.711	1	8
571.881	1	3
572.051	1	7
572.221	1	10
572.391	1	8
572.561	1	-5
572.731	1	1
572.900	1	11
573.070	1	6
573.240	1	6
573.410	1	9
573.580	1	1
573.750	1	-6
573.920	1	-4
574.090	1	5
574.260	1	-3
574.430	1	-2
574.599	1	6
574.769	1	-4
574.939	1	7
575.109	1	-1
575.279	1	-2
575.449	1	-5
575.619	1	9
575.789	1	11
575.959	1	-2
576.128	1	2
576.298	1	-3
576.468	1	-2
576.638	1	3
576.808	1	-2
576.978	1	10
577.148	1	4
577.318	1	5
577.487	1	4
577.657	1	-9
577.827	1	7
577.997	1	0
578.167	1	11
578.337	1	1
578.507	1	-9
578.677	1	-6
578.846	1	5
579.016	1	18
579.186	1	-10
579.356	1	-5
579.526	1	2
579.696	1	18
579.866	1	2
580.036	1	0
580.205	1	-2
580.375	1	-5
580.545	1	1
580.715	1	13
580.885	1	-1
581.055	1	12
581.225	1	-9
581.394	1	-5
581.564	1	1
581.734	1	3
581.904	1	-5
582.074	1	-5
582.244	1	1
582.414	1	-6
582.583	1	-5
582.753	1	7
582.923	1	-5
583.093	1	-1
583.263	1	11
583.433	1	-6
583.603	1	12
583.772	1	-1
583.942	1	4
584.112	1	0
584.282	1	9
584.452	1	1
584.622	1	6
584.791	1	9
584.961	1	4
585.131	1	-7
585.301	1	9
585.471	1	6
585.641	1	5
585.811	1	-8
585.980	1	-12
586.150	1	0
586.320	1	-7
586.490	1	-4
586.660	1	3
586.830	1	-15
586.999	1	1
587.169	1	-4
587.339	1	6
587.509	1	10
587.679	1	-2
587.849	1	5
588.018	1	3
588.188	1	-4
588.358	1	5
588.528	1	6
588.698	1	-4
588.867	1	4
589.037	1	3
589.207	1	-11
589.377	1	3
589.547	1	-10
589.717	1	4
589.886	1	-9
590.056	1	7
590.226	1	9
590.396	1	4
590.566	1	4
590.735	1	19
590.905	1	8
591.075	1	-6
591.245	1	-11
591.415	1	8
591.585	1	-1
591.754	1	1
591.924	1	-1
592.094	1	7
592.264	1	-9
592.434	1	8
592.603	1	-2
592.773	1	-1
592.943	1	-3
593.113	1	-7
593.283	1	8
593.452	1	-9
593.622	1	0
593.792	1	7
593.962	1	12
594.132	1	1
594.301	1	14
594.471	1	13
594.641	1	-7
594.811	1	-4
594.981	1	-4
595.150	1	2
595.320	1	8
595.490	1	-8
595.660	1	-5
595.829	1	8
595.999	1	2
596.169	1	1
596.339	1	14
596.509	1	6
596.678	1	4
596.848	1	13
597.018	1	3
597.188	1	10
597.358	1	1
597.527	1	-5
597.697	1	-2
597.867	1	1
598.037	1	5
598.206	1	-2
598.376	1	3
598.546	1	-1
598.716	1	-4
598.885	1	1
599.055	1	6
599.225	1	1
599.395	1	8
599.565	1	0
599.734	1	-3
599.904	1	-11
600.074	1	-6
600.244	1	11
600.413	1	-1
600.583	1	-7
600.753	1	7
600.923	1	10
601.092	1	-16
601.262	1	4
601.432	1	1
601.602	1	6
601.771	1	2
601.941	1	1
602.111	1	-15
602.281	1	-4
602.451	1	1
602.620	1	4
602.790	1	3
602.960	1	-13
603.130	1	2
603.299	1	6
603.469	1	3
603.639	1	-6
603.809	1	10
603.978	1	0
604.148	1	1
604.318	1	11
604.487	1	1
604.657	1	-4
604.827	1	-7
604.997	1	-7
605.166	1	-3
605.336	1	-5
605.506	1	5
605.676	1	-5
605.845	1	-2
606.015	1	9
606.185	1	-1
606.355	1	9
606.524	1	2
606.694	1	15
606.864	1	-3
607.034	1	-5
607.203	1	7
607.373	1	2
607.543	1	-8
607.712	1	6
607.882	1	2
608.052	1	-3
608.222	1	-1
608.391	1	-3
608.561	1	7
608.731	1	-9
608.901	1	13
609.070	1	7
609.240	1	0
609.410	1	1
609.579	1	3
609.749	1	5
609.919	1	-6
610.089	1	-10
610.258	1	9
610.428	1	-2
610.598	1	3
610.767	1	1
610.937	1	-2
611.107	1	14
611.277	1	-4
611.446	1	2
611.616	1	-7
611.786	1	8
611.955	1	11
612.125	1	3
612.295	1	1
612.465	1	-4
612.634	1	-3
612.804	1	3
612.974	1	12
613.143	1	0
613.313	1	-1
613.483	1	8
613.652	1	-4
613.822	1	-1
613.992	1	4
614.162	1	7
614.331	1	-2
614.501	1	-5
614.671	1	3
614.840	1	2
615.010	1	3
615.180	1	-6
615.349	1	3
615.519	1	-2
615.689	1	0
615.858	1	3
616.028	1	-4
616.198	1	10
616.368	1	-4
616.537	1	-3
616.707	1	-3
616.877	1	-4
617.046	1	16
617.216	1	-2
617.386	1	-3
617.555	1	-2
617.725	1	5
617.895	1	-4
618.064	1	10
618.234	1	-3
618.404	1	17
618.573	1	-4
618.743	1	1
618.913	1	0
619.082	1	-6
619.252	1	8
619.422	1	7
619.591	1	3
619.761	1	5
619.931	1	15
620.100	1	3
620.270	1	-2
620.440	1	6
620.609	1	-1
620.779	1	-8
620.949	1	2
621.118	1	-5
621.288	1	2
621.458	1	14
621.627	1	-2
621.797	1	2
621.967	1	-1
622.136	1	4
622.306	1	9
622.476	1	7
622.645	1	7
622.815	1	8
622.985	1	1
623.154	1	-4
623.324	1	0
623.494	1	3
623.663	1	2
623.833	1	-8
624.002	1	0
624.172	1	11
624.342	1	-4
624.511	1	-4
624.681	1	-4
624.851	1	-3
625.020	1	1
625.190	1	4
625.360	1	-4
625.529	1	9
625.699	1	2
625.869	1	4
626.038	1	-1
626.208	1	-2
626.377	1	5
626.547	1	0
626.717	1	0
626.886	1	-4
627.056	1	-3
627.226	1	7
627.395	1	-2
627.565	1	7
627.735	1	11
627.904	1	-2
628.074	1	0
628.243	1	-10
628.413	1	-4
628.583	1	0
628.752	1	3
628.922	1	10
629.091	1	-5
629.261	1	8
629.431	1	-8
629.600	1	7
629.770	1	2
629.940	1	7
630.109	1	-1
630.279	1	-3
630.448	1	-3
630.618	1	1
630.788	1	12
630.957	1	-2
631.127	1	17
631.297	1	2
631.466	1	10
631.636	1	2
631.805	1	1
631.975	1	1
632.145	1	-9
632.314	1	7
632.484	1	-3
632.653	1	-2
632.823	1	8
632.993	1	4
633.162	1	1
633.332	1	9
633.501	1	6
633.671	1	0
633.841	1	0
634.010	1	1
634.180	1	4
634.349	1	-3
634.519	1	5
634.689	1	9
634.858	1	13
635.028	1	8
635.197	1	-2
635.367	1	-1
635.537	1	-3
635.706	1	4
635.876	1	-1
636.045	1	1
636.215	1	11
636.384	1	10
636.554	1	5
636.724	1	3
636.893	1	-3
637.063	1	0
637.232	1	0
637.402	1	5
637.572	1	-9
637.741	1	0
637.911	1	-3
638.080	1	3
638.250	1	3
638.419	1	8
638.589	1	18
638.759	1	4
638.928	1	3
639.098	1	3
639.267	1	6
639.437	1	-5
639.606	1	7
639.776	1	-10
639.946	1	1
640.115	1	1
640.285	1	5
640.454	1	16
640.624	1	6
640.793	1	15
640.963	1	-5
641.132	1	12
641.302	1	1
641.472	1	-7
641.641	1	6
641.811	1	1
641.980	1	0
642.150	1	4
642.319	1	0
642.489	1	-4
642.659	1	-4
642.828	1	4
642.998	1	-13
643.167	1	6
643.337	1	2
643.506	1	-4
643.676	1	1
643.845	1	0
644.015	1	2
644.184	1	11
644.354	1	2
644.524	1	-6
644.693	1	-2
644.863	1	-1
645.032	1	-4
645.202	1	4
645.371	1	5
645.541	1	-9
645.710	1	-1
645.880	1	9
646.049	1	10
646.219	1	3
646.388	1	-5
646.558	1	0
646.728	1	11
646.897	1	-5
647.067	1	2
647.236	1	4
647.406	1	-8
647.575	1	3
647.745	1	14
647.914	1	-3
648.084	1	2
648.253	1	6
648.423	1	-6
648.592	1	11
648.762	1	-2
648.931	1	10
649.101	1	0
649.270	1	10
649.440	1	8
649.610	1	3
649.779	1	1
649.949	1	-7
650.118	1	1
650.288	1	5
650.457	1	3
650.627	1	-2
650.796	1	-4
650.966	1	2
651.135	1	5
651.305	1	-6
651.474	1	6
651.644	1	-7
651.813	1	2
651.983	1	4
652.152	1	-4
652.322	1	5
652.491	1	3
652.661	1	-2
652.830	1	5
653.000	1	5
653.169	1	5
653.339	1	13
653.508	1	2
653.678	1	2
653.847	1	-2
654.017	1	0
654.186	1	3
654.356	1	7
654.525	1	5
654.695	1	1
654.864	1	3
655.034	1	4
655.203	1	8
655.373	1	-1
655.542	1	13
655.712	1	-5
655.881	1	5
656.051	1	12
656.220	1	-1
656.390	1	6
656.559	1	-3
656.729	1	-2
656.898	1	4
657.068	1	4
657.237	1	6
657.406	1	3
657.576	1	-7
657.745	1	5
657.915	1	3
658.084	1	13
658.254	1	7
658.423	1	-9
658.593	1	5
658.762	1	1
658.932	1	1
659.101	1	-1
659.271	1	1
659.440	1	9
659.610	1	5
659.779	1	-10
659.949	1	-8
660.118	1	2
660.288	1	-3
660.457	1	-9
660.626	1	-2
660.796	1	-1
660.965	1	3
661.135	1	8
661.304	1	0
661.474	1	10
661.643	1	2
661.813	1	5
661.982	1	-5
662.152	1	3
662.321	1	6
662.491	1	5
662.660	1	4
662.829	1	-7
662.999	1	2
663.168	1	-4
663.338	1	-4
663.507	1	6
663.677	1	-15
663.846	1	5
664.016	1	3
664.185	1	7
664.354	1	9
664.524	1	-1
664.693	1	8
664.863	1	10
665.032	1	3
665.202	1	-11
665.371	1	0
665.541	1	-3
665.710	1	-7
665.879	1	-5
666.049	1	2
666.218	1	-12
666.388	1	-8
666.557	1	9
666.727	1	-11
666.896	1	-6
667.065	1	11
667.235	1	6
667.404	1	-8
667.574	1	11
667.743	1	-4
667.913	1	1
668.082	1	-5
668.251	1	1
668.421	1	8
668.590	1	-3
668.760	1	-12
668.929	1	2
669.099	1	-2
669.268	1	10
669.437	1	4
669.607	1	-6
669.776	1	-3
669.946	1	0
670.115	1	9
670.285	1	4
670.454	1	5
670.623	1	-7
670.793	1	-9
670.962	1	4
671.132	1	7
671.301	1	0
671.470	1	2
671.640	1	-7
671.809	1	-6
671.979	1	14
672.148	1	8
672.317	1	4
672.487	1	1
672.656	1	4
672.826	1	-7
672.995	1	0
673.164	1	4
673.334	1	10
673.503	1	-7
673.673	1	16
673.842	1	-2
674.011	1	6
674.181	1	-7
674.350	1	-5
674.520	1	-8
674.689	1	-2
674.858	1	-2
675.028	1	6
675.197	1	1
675.367	1	9
675.536	1	8
675.705	1	-4
675.875	1	3
676.044	1	-5
676.214	1	1
676.383	1	0
676.552	1	-3
676.722	1	-7
676.891	1	-8
677.060	1	5
677.230	1	10
677.399	1	0
677.569	1	-2
677.738	1	-5
677.907	1	-9
678.077	1	3
678.246	1	-8
678.416	1	3
678.585	1	4
678.754	1	-13
678.924	1	1
679.093	1	-5
679.262	1	2
679.432	1	1
679.601	1	-7
679.771	1	1
679.940	1	-1
680.109	1	11
680.279	1	-10
680.448	1	-2
680.617	1	-8
680.787	1	-4
680.956	1	0
681.125	1	1
681.295	1	5
681.464	1	6
681.634	1	1
681.803	1	-11
681.972	1	-7
682.142	1	8
682.311	1	2
682.480	1	-3
682.650	1	-4
682.819	1	6
682.988	1	1
683.158	1	-6
683.327	1	-3
683.496	1	7
683.666	1	8
683.835	1	-2
684.004	1	2
684.174	1	3
684.343	1	-2
684.512	1	3
684.682	1	5
684.851	1	2
685.021	1	7
685.190	1	3
685.359	1	-2
685.529	1	7
685.698	1	0
685.867	1	1
686.037	1	10
686.206	1	6
686.375	1	7
686.545	1	3
686.714	1	-6
686.883	1	-6
687.053	1	-2
687.222	1	-7
687.391	1	-7
687.561	1	2
687.730	1	-6
687.899	1	4
688.069	1	-1
688.238	1	2
688.407	1	4
688.577	1	-3
688.746	1	-11
