340.368	1	0
340.539	1	3
340.710	1	-8
340.881	1	-5
341.052	1	-2
341.223	1	9
341.394	1	-12
341.565	1	3
341.737	1	15
341.908	1	4
342.079	1	-3
342.250	1	-11
342.421	1	-2
342.592	1	-5
342.763	1	-9
342.934	1	2
343.105	1	12
343.276	1	-9
343.447	1	2
343.618	1	1
343.789	1	2
343.960	1	-5
344.131	1	-2
344.302	1	0
344.473	1	10
344.644	1	-1
344.815	1	5
344.986	1	8
345.157	1	9
345.328	1	-4
345.499	1	-3
345.670	1	1
345.841	1	3
346.012	1	13
346.183	1	-2
346.354	1	4
346.526	1	5
346.697	1	-3
346.868	1	-7
347.039	1	-7
347.210	1	1
347.381	1	-3
347.552	1	1
347.723	1	3
347.894	1	-4
348.065	1	6
348.236	1	2
348.407	1	1
348.578	1	-1
348.749	1	0
348.920	1	8
349.091	1	0
349.262	1	7
349.433	1	-9
349.604	1	6
349.775	1	9
349.946	1	10
350.117	1	7
350.288	1	-4
350.459	1	8
350.630	1	6
350.801	1	-6
350.972	1	-2
351.143	1	-9
351.314	1	-6
351.485	1	3
351.656	1	7
351.827	1	-10
351.998	1	-2
352.169	1	10
352.340	1	-1
352.511	1	4
352.682	1	-5
352.853	1	-5
353.024	1	-4
353.195	1	-1
353.366	1	7
353.537	1	0
353.708	1	5
353.879	1	3
354.050	1	7
354.221	1	-6
354.392	1	-3
354.563	1	11
354.734	1	2
354.905	1	-6
355.076	1	0
355.247	1	-6
355.418	1	-3
355.589	1	3
355.760	1	0
355.931	1	8
356.102	1	-6
356.273	1	3
356.444	1	0
356.615	1	-4
356.785	1	9
356.956	1	0
357.127	1	-3
357.298	1	3
357.469	1	-2
357.640	1	6
357.811	1	19
357.982	1	-7
358.153	1	-9
358.324	1	0
358.495	1	11
358.666	1	1
358.837	1	0
359.008	1	2
359.179	1	6
359.350	1	-7
359.521	1	7
359.692	1	8
359.863	1	-12
360.034	1	-7
360.205	1	-5
360.376	1	7
360.547	1	2
360.718	1	-14
360.889	1	5
361.060	1	14
361.231	1	7
361.401	1	12
361.572	1	-4
361.743	1	-1
361.914	1	-6
362.085	1	-8
362.256	1	6
362.427	1	-4
362.598	1	0
362.769	1	3
362.940	1	-5
363.111	1	7
363.282	1	3
363.453	1	-2
363.624	1	3
363.795	1	9
363.966	1	-3
364.137	1	-3
364.308	1	-4
364.478	1	7
364.649	1	3
364.820	1	-2
364.991	1	1
365.162	1	-5
365.333	1	-1
365.504	1	3
365.675	1	7
365.846	1	-3
366.017	1	1
366.188	1	-5
366.359	1	2
366.530	1	-1
366.701	1	-10
366.871	1	13
367.042	1	4
367.213	1	0
367.384	1	9
367.555	1	7
367.726	1	3
367.897	1	-2
368.068	1	-8
368.239	1	7
368.410	1	-7
368.581	1	4
368.752	1	-9
368.923	1	-11
369.093	1	0
369.264	1	-3
369.435	1	-3
369.606	1	-3
369.777	1	-1
369.948	1	8
370.119	1	0
370.290	1	0
370.461	1	6
370.632	1	-1
370.803	1	-7
370.973	1	6
371.144	1	12
371.315	1	4
371.486	1	4
371.657	1	0
371.828	1	-3
371.999	1	1
372.170	1	6
372.341	1	11
372.512	1	1
372.682	1	-7
372.853	1	-4
373.024	1	-3
373.195	1	-7
373.366	1	0
373.537	1	7
373.708	1	-3
373.879	1	3
374.050	1	0
374.220	1	0
374.391	1	-2
374.562	1	2
374.733	1	0
374.904	1	6
375.075	1	6
375.246	1	3
375.417	1	6
375.588	1	-2
375.758	1	4
375.929	1	2
376.100	1	19
376.271	1	-12
376.442	1	1
376.613	1	-4
376.784	1	0
376.955	1	5
377.125	1	-1
377.296	1	4
377.467	1	-5
377.638	1	-3
377.809	1	10
377.980	1	1
378.151	1	-8
378.321	1	7
378.492	1	0
378.663	1	-4
378.834	1	0
379.005	1	7
379.176	1	-1
379.347	1	5
379.518	1	-16
379.688	1	-5
379.859	1	-1
380.030	1	-2
380.201	1	-7
380.372	1	-3
380.543	1	4
380.714	1	6
380.884	1	-2
381.055	1	6
381.226	1	4
381.397	1	-5
381.568	1	7
381.739	1	13
381.910	1	3
382.080	1	-18
382.251	1	7
382.422	1	10
382.593	1	-11
382.764	1	1
382.935	1	-1
383.105	1	-3
383.276	1	-3
383.447	1	3
383.618	1	5
383.789	1	-2
383.960	1	1
384.130	1	-5
384.301	1	7
384.472	1	-4
384.643	1	5
384.814	1	2
384.985	1	-7
385.156	1	13
385.326	1	-3
385.497	1	14
385.668	1	1
385.839	1	3
386.010	1	5
386.180	1	0
386.351	1	-11
386.522	1	9
386.693	1	-2
386.864	1	-5
387.035	1	-5
387.205	1	-6
387.376	1	-1
387.547	1	0
387.718	1	11
387.889	1	11
388.060	1	0
388.230	1	1
388.401	1	18
388.572	1	3
388.743	1	8
388.914	1	8
389.084	1	2
389.255	1	-1
389.426	1	10
389.597	1	-10
389.768	1	-4
389.939	1	7
390.109	1	-2
390.280	1	9
390.451	1	12
390.622	1	-11
390.793	1	7
390.963	1	4
391.134	1	5
391.305	1	4
391.476	1	0
391.647	1	2
391.817	1	-10
391.988	1	-4
392.159	1	12
392.330	1	10
392.501	1	13
392.671	1	2
392.842	1	10
393.013	1	8
393.184	1	10
393.355	1	17
393.525	1	7
393.696	1	3
393.867	1	-1
394.038	1	-12
394.208	1	4
394.379	1	-3
394.550	1	3
394.721	1	0
394.892	1	8
395.062	1	-10
395.233	1	11
395.404	1	8
395.575	1	-10
395.746	1	-3
395.916	1	-2
396.087	1	-1
396.258	1	2
396.429	1	6
396.599	1	-4
396.770	1	11
396.941	1	12
397.112	1	-3
397.283	1	3
397.453	1	-5
397.624	1	2
397.795	1	5
397.966	1	3
398.136	1	11
398.307	1	-3
398.478	1	2
398.649	1	2
398.819	1	9
398.990	1	6
399.161	1	-2
399.332	1	4
399.503	1	5
399.673	1	-7
399.844	1	0
400.015	1	7
400.186	1	7
400.356	1	-8
400.527	1	2
400.698	1	-6
400.869	1	8
401.039	1	6
401.210	1	-6
401.381	1	7
401.552	1	10
401.722	1	-2
401.893	1	5
402.064	1	12
402.235	1	7
402.405	1	-3
402.576	1	7
402.747	1	-2
402.918	1	-8
403.088	1	-2
403.259	1	-5
403.430	1	-5
403.601	1	1
403.771	1	4
403.942	1	10
404.113	1	4
404.284	1	0
404.454	1	7
404.625	1	6
404.796	1	1
404.967	1	0
405.137	1	9
405.308	1	1
405.479	1	5
405.649	1	1
405.820	1	7
405.991	1	9
406.162	1	-12
406.332	1	-9
406.503	1	-6
406.674	1	2
406.845	1	-1
407.015	1	-4
407.186	1	4
407.357	1	-6
407.527	1	2
407.698	1	-5
407.869	1	-1
408.040	1	-5
408.210	1	5
408.381	1	8
408.552	1	7
408.722	1	-1
408.893	1	-2
409.064	1	4
409.235	1	0
409.405	1	-4
409.576	1	-3
409.747	1	-3
409.917	1	-2
410.088	1	-2
410.259	1	7
410.430	1	7
410.600	1	-2
410.771	1	0
410.942	1	1
411.112	1	2
411.283	1	-16
411.454	1	6
411.625	1	4
411.795	1	4
411.966	1	4
412.137	1	9
412.307	1	6
412.478	1	3
412.649	1	9
412.819	1	-7
412.990	1	1
413.161	1	-4
413.332	1	-3
413.502	1	-12
413.673	1	11
413.844	1	5
414.014	1	1
414.185	1	5
414.356	1	-4
414.526	1	3
414.697	1	5
414.868	1	12
415.038	1	-2
415.209	1	-1
415.380	1	7
415.550	1	-13
415.721	1	12
415.892	1	-1
416.063	1	8
416.233	1	4
416.404	1	6
416.575	1	-9
416.745	1	-15
416.916	1	0
417.087	1	1
417.257	1	5
417.428	1	-13
417.599	1	-4
417.769	1	9
417.940	1	8
418.111	1	2
418.281	1	0
418.452	1	1
418.623	1	2
418.793	1	-3
418.964	1	-2
419.135	1	-1
419.305	1	-2
419.476	1	-2
419.647	1	-4
419.817	1	-4
419.988	1	-4
420.159	1	-7
420.329	1	5
420.500	1	1
420.671	1	1
420.841	1	11
421.012	1	14
421.183	1	3
421.353	1	1
421.524	1	1
421.695	1	8
421.865	1	-1
422.036	1	-2
422.206	1	-3
422.377	1	-3
422.548	1	-1
422.718	1	-6
422.889	1	7
423.060	1	5
423.230	1	6
423.401	1	6
423.572	1	1
423.742	1	-3
423.913	1	13
424.084	1	3
424.254	1	5
424.425	1	-10
424.595	1	-2
424.766	1	-1
424.937	1	-12
425.107	1	-3
425.278	1	-8
425.449	1	0
425.619	1	-2
425.790	1	-2
425.961	1	-1
426.131	1	-1
426.302	1	-5
426.472	1	0
426.643	1	-1
426.814	1	9
426.984	1	-1
427.155	1	1
427.326	1	9
427.496	1	7
427.667	1	4
427.837	1	-4
428.008	1	-1
428.179	1	-10
428.349	1	1
428.520	1	-8
428.691	1	-2
428.861	1	-1
429.032	1	-8
429.202	1	5
429.373	1	-9
429.544	1	-3
429.714	1	9
429.885	1	-1
430.055	1	0
430.226	1	1
430.397	1	6
430.567	1	7
430.738	1	2
430.909	1	-12
431.079	1	7
431.250	1	2
431.420	1	0
431.591	1	1
431.762	1	6
431.932	1	1
432.103	1	0
432.273	1	-3
432.444	1	-1
432.615	1	5
432.785	1	-2
432.956	1	3
433.126	1	7
433.297	1	2
433.468	1	4
433.638	1	4
433.809	1	6
433.979	1	9
434.150	1	-8
434.320	1	-1
434.491	1	-2
434.662	1	-8
434.832	1	-2
435.003	1	7
435.173	1	2
435.344	1	1
435.515	1	-1
435.685	1	10
435.856	1	-1
436.026	1	-7
436.197	1	-3
436.368	1	-11
436.538	1	3
436.709	1	-10
436.879	1	-2
437.050	1	2
437.220	1	2
437.391	1	5
437.562	1	15
437.732	1	1
437.903	1	2
438.073	1	6
438.244	1	-7
438.414	1	-1
438.585	1	-3
438.756	1	4
438.926	1	-2
439.097	1	7
439.267	1	10
439.438	1	7
439.608	1	4
439.779	1	2
439.949	1	-6
440.120	1	9
440.291	1	-7
440.461	1	-8
440.632	1	9
440.802	1	7
440.973	1	14
441.143	1	5
441.314	1	0
441.485	1	-6
441.655	1	13
441.826	1	-10
441.996	1	10
442.167	1	0
442.337	1	-4
442.508	1	-1
442.678	1	2
442.849	1	1
443.019	1	-2
443.190	1	-4
443.361	1	2
443.531	1	0
443.702	1	-4
443.872	1	-3
444.043	1	9
444.213	1	-5
444.384	1	0
444.554	1	2
444.725	1	0
444.895	1	-8
445.066	1	-11
445.237	1	-11
445.407	1	-6
445.578	1	0
445.748	1	-4
445.919	1	1
446.089	1	7
446.260	1	0
446.430	1	-2
446.601	1	-8
446.771	1	-2
446.942	1	1
447.112	1	-4
447.283	1	-4
447.453	1	-6
447.624	1	4
447.794	1	-4
447.965	1	-3
448.135	1	-9
448.306	1	8
448.477	1	0
448.647	1	6
448.818	1	4
448.988	1	-16
449.159	1	-7
449.329	1	8
449.500	1	18
449.670	1	2
449.841	1	0
450.011	1	7
450.182	1	-10
450.352	1	5
450.523	1	-5
450.693	1	-3
450.864	1	-10
451.034	1	2
451.205	1	7
451.375	1	14
451.546	1	-4
451.716	1	3
451.887	1	-8
452.057	1	10
452.228	1	3
452.398	1	-3
452.569	1	8
452.739	1	3
452.910	1	-8
453.080	1	16
453.251	1	11
453.421	1	-5
453.592	1	-7
453.762	1	4
453.933	1	2
454.103	1	-2
454.274	1	2
454.444	1	10
454.615	1	14
454.785	1	-10
454.956	1	6
455.126	1	-3
455.297	1	1
455.467	1	5
455.638	1	-1
455.808	1	5
455.979	1	7
456.149	1	0
456.320	1	-5
456.490	1	6
456.661	1	4
456.831	1	10
457.001	1	-2
457.172	1	-4
457.342	1	-2
457.513	1	4
457.683	1	5
457.854	1	4
458.024	1	2
458.195	1	-4
458.365	1	-7
458.536	1	16
458.706	1	4
458.877	1	-5
459.047	1	-9
459.218	1	2
459.388	1	2
459.559	1	2
459.729	1	0
459.899	1	7
460.070	1	0
460.240	1	-5
460.411	1	6
460.581	1	6
460.752	1	4
460.922	1	3
461.093	1	1
461.263	1	0
461.434	1	10
461.604	1	1
461.775	1	8
461.945	1	5
462.115	1	-4
462.286	1	6
462.456	1	0
462.627	1	7
462.797	1	-2
462.968	1	-5
463.138	1	7
463.309	1	-6
463.479	1	7
463.649	1	4
463.820	1	0
463.990	1	1
464.161	1	11
464.331	1	-2
464.502	1	3
464.672	1	-3
464.843	1	-1
465.013	1	-15
465.183	1	0
465.354	1	3
465.524	1	0
465.695	1	3
465.865	1	-2
466.036	1	3
466.206	1	-3
466.376	1	-10
466.547	1	-8
466.717	1	-4
466.888	1	4
467.058	1	10
467.229	1	9
467.399	1	1
467.569	1	8
467.740	1	-8
467.910	1	-10
468.081	1	3
468.251	1	-2
468.422	1	5
468.592	1	8
468.762	1	-8
468.933	1	9
469.103	1	1
469.274	1	-1
469.444	1	2
469.614	1	-4
469.785	1	1
469.955	1	-6
470.126	1	1
470.296	1	-3
470.467	1	12
470.637	1	6
470.807	1	0
470.978	1	-6
471.148	1	-5
471.319	1	-1
471.489	1	-2
471.659	1	4
471.830	1	22
472.000	1	1
472.171	1	-3
472.341	1	6
472.511	1	0
472.682	1	3
472.852	1	2
473.023	1	-10
473.193	1	-14
473.363	1	-1
473.534	1	-4
473.704	1	11
473.875	1	8
474.045	1	-4
474.215	1	-11
474.386	1	9
474.556	1	2
474.727	1	-1
474.897	1	2
475.067	1	8
475.238	1	-8
475.408	1	-10
475.578	1	-1
475.749	1	-5
475.919	1	5
476.090	1	-7
476.260	1	-2
476.430	1	7
476.601	1	-6
476.771	1	4
476.942	1	-1
477.112	1	0
477.282	1	-4
477.453	1	-3
477.623	1	0
477.793	1	5
477.964	1	7
478.134	1	1
478.305	1	-2
478.475	1	-5
478.645	1	-3
478.816	1	0
478.986	1	3
479.156	1	8
479.327	1	0
479.497	1	3
479.667	1	5
479.838	1	1
480.008	1	7
480.179	1	8
480.349	1	-2
480.519	1	3
480.690	1	4
480.860	1	-3
481.030	1	3
481.201	1	-6
481.371	1	8
481.541	1	5
481.712	1	6
481.882	1	-8
482.053	1	3
482.223	1	-9
482.393	1	-13
482.564	1	-15
482.734	1	1
482.904	1	3
483.075	1	1
483.245	1	-4
483.415	1	4
483.586	1	-8
483.756	1	1
483.926	1	7
484.097	1	1
484.267	1	4
484.437	1	-11
484.608	1	-2
484.778	1	5
484.948	1	-18
485.119	1	6
485.289	1	6
485.459	1	1
485.630	1	-8
485.800	1	-8
485.970	1	-4
486.141	1	-11
486.311	1	0
486.481	1	5
486.652	1	4
486.822	1	-4
486.992	1	6
487.163	1	-7
487.333	1	0
487.503	1	-16
487.674	1	4
487.844	1	-4
488.014	1	1
488.185	1	-6
488.355	1	-4
488.525	1	-5
488.696	1	-6
488.866	1	9
489.036	1	-6
489.207	1	5
489.377	1	6
489.547	1	-2
489.718	1	-7
489.888	1	4
490.058	1	-4
490.228	1	-8
490.399	1	0
490.569	1	9
490.739	1	3
490.910	1	-6
491.080	1	-3
491.250	1	-1
491.421	1	0
491.591	1	-14
491.761	1	0
491.932	1	9
492.102	1	0
492.272	1	5
492.442	1	6
492.613	1	13
492.783	1	-13
492.953	1	9
493.124	1	1
493.294	1	6
493.464	1	0
493.635	1	-9
493.805	1	6
493.975	1	2
494.145	1	1
494.316	1	7
494.486	1	4
494.656	1	-6
494.827	1	-5
494.997	1	-6
495.167	1	11
495.337	1	5
495.508	1	-2
495.678	1	7
495.848	1	-1
496.019	1	-7
496.189	1	-7
496.359	1	-4
496.529	1	-9
496.700	1	6
496.870	1	5
497.040	1	5
497.211	1	4
497.381	1	-13
497.551	1	13
497.721	1	0
497.892	1	7
498.062	1	-6
498.232	1	2
498.403	1	7
498.573	1	-5
498.743	1	8
498.913	1	3
499.084	1	-6
499.254	1	1
499.424	1	7
499.594	1	-7
499.765	1	-2
499.935	1	-11
500.105	1	9
500.275	1	2
500.446	1	14
500.616	1	3
500.786	1	9
500.956	1	-5
501.127	1	14
501.297	1	-4
501.467	1	-4
501.638	1	1
501.808	1	-7
501.978	1	3
502.148	1	-4
502.319	1	7
502.489	1	3
502.659	1	0
502.829	1	-4
503.000	1	5
503.170	1	7
503.340	1	-5
503.510	1	-8
503.681	1	1
503.851	1	-19
504.021	1	10
504.191	1	1
504.362	1	9
504.532	1	-5
504.702	1	1
504.872	1	-5
505.042	1	3
505.213	1	-3
505.383	1	-3
505.553	1	2
505.723	1	-4
505.894	1	5
506.064	1	3
506.234	1	2
506.404	1	-11
506.575	1	4
506.745	1	-6
506.915	1	8
507.085	1	-10
507.256	1	-5
507.426	1	8
507.596	1	4
507.766	1	-3
507.936	1	-1
508.107	1	8
508.277	1	-3
508.447	1	2
508.617	1	6
508.788	1	-4
508.958	1	15
509.128	1	2
509.298	1	9
509.468	1	6
509.639	1	12
509.809	1	8
509.979	1	6
510.149	1	7
510.319	1	-5
510.490	1	6
510.660	1	1
510.830	1	-5
511.000	1	-5
511.171	1	11
511.341	1	-6
511.511	1	1
511.681	1	5
511.851	1	-13
512.022	1	3
512.192	1	4
512.362	1	-4
512.532	1	-8
512.702	1	-5
512.873	1	4
513.043	1	-6
513.213	1	-1
513.383	1	-6
513.553	1	-4
513.724	1	2
513.894	1	-8
514.064	1	11
514.234	1	2
514.404	1	-4
514.575	1	11
514.745	1	1
514.915	1	6
515.085	1	4
515.255	1	-7
515.425	1	-9
515.596	1	-7
515.766	1	-4
515.936	1	3
516.106	1	-10
516.276	1	9
516.447	1	8
516.617	1	1
516.787	1	-7
516.957	1	-3
517.127	1	5
517.297	1	4
517.468	1	1
517.638	1	10
517.808	1	4
517.978	1	-12
518.148	1	-6
518.319	1	3
518.489	1	1
518.659	1	4
518.829	1	-11
518.999	1	-8
519.169	1	7
519.340	1	0
519.510	1	2
519.680	1	-2
519.850	1	-2
520.020	1	-5
520.190	1	4
520.361	1	-7
520.531	1	0
520.701	1	-3
520.871	1	-9
521.041	1	3
521.211	1	3
521.382	1	3
521.552	1	10
521.722	1	11
521.892	1	-6
522.062	1	-3
522.232	1	-1
522.402	1	-1
522.573	1	-3
522.743	1	6
522.913	1	2
523.083	1	3
523.253	1	-3
523.423	1	-5
523.593	1	-14
523.764	1	12
523.934	1	4
524.104	1	-4
524.274	1	-5
524.444	1	-2
524.614	1	2
524.784	1	2
524.955	1	-11
525.125	1	11
525.295	1	-7
525.465	1	2
525.635	1	0
525.805	1	-1
525.975	1	-9
526.146	1	1
526.316	1	-11
526.486	1	-10
526.656	1	27
526.826	1	8
526.996	1	10
527.166	1	7
527.337	1	-1
527.507	1	-9
527.677	1	15
527.847	1	-4
528.017	1	-9
528.187	1	3
528.357	1	4
528.527	1	9
528.698	1	4
528.868	1	-10
529.038	1	-1
529.208	1	-3
529.378	1	0
529.548	1	7
529.718	1	-2
529.888	1	-2
530.058	1	-2
530.229	1	5
530.399	1	9
530.569	1	3
530.739	1	-3
530.909	1	4
531.079	1	1
531.249	1	3
531.419	1	10
531.589	1	-3
531.760	1	6
531.930	1	1
532.100	1	0
532.270	1	15
532.440	1	-2
532.610	1	-5
532.780	1	-5
532.950	1	9
533.120	1	3
533.290	1	-3
533.461	1	8
533.631	1	-1
533.801	1	6
533.971	1	1
534.141	1	5
534.311	1	0
534.481	1	0
534.651	1	3
534.821	1	10
534.991	1	0
535.162	1	8
535.332	1	-3
535.502	1	-3
535.672	1	-8
535.842	1	-4
536.012	1	14
536.182	1	-3
536.352	1	4
536.522	1	4
536.692	1	3
536.862	1	5
537.032	1	-4
537.203	1	13
537.373	1	-7
537.543	1	0
537.713	1	11
537.883	1	2
538.053	1	5
538.223	1	11
538.393	1	0
538.563	1	0
538.733	1	-5
538.903	1	1
539.073	1	0
539.243	1	-4
539.413	1	-5
539.584	1	1
539.754	1	1
539.924	1	-1
540.094	1	-10
540.264	1	9
540.434	1	-7
540.604	1	5
540.774	1	-2
540.944	1	-10
541.114	1	-4
541.284	1	-6
541.454	1	1
541.624	1	-1
541.794	1	-2
541.964	1	9
542.134	1	9
542.305	1	-1
542.475	1	0
542.645	1	2
542.815	1	0
542.985	1	-1
543.155	1	4
543.325	1	-1
543.495	1	-3
543.665	1	13
543.835	1	-2
544.005	1	2
544.175	1	1
544.345	1	-12
544.515	1	-2
544.685	1	-4
544.855	1	3
545.025	1	-2
545.195	1	0
545.365	1	-1
545.535	1	4
545.705	1	0
545.875	1	2
546.045	1	7
546.216	1	8
546.386	1	-2
546.556	1	-15
546.726	1	3
546.896	1	-9
547.066	1	-6
547.236	1	-8
547.406	1	7
547.576	1	9
547.746	1	2
547.916	1	5
548.086	1	3
548.256	1	-1
548.426	1	-4
548.596	1	3
548.766	1	13
548.936	1	-13
549.106	1	1
549.276	1	0
549.446	1	-7
549.616	1	7
549.786	1	6
549.956	1	6
550.126	1	-1
550.296	1	4
550.466	1	-2
550.636	1	-1
550.806	1	8
550.976	1	2
551.146	1	-5
551.316	1	-6
551.486	1	2
551.656	1	-11
551.826	1	3
551.996	1	2
552.166	1	-1
552.336	1	-3
552.506	1	-5
552.676	1	-6
552.846	1	0
553.016	1	-10
553.186	1	5
553.356	1	3
553.526	1	-1
553.696	1	14
553.866	1	8
554.036	1	3
554.206	1	-9
554.376	1	2
554.546	1	-4
554.716	1	-5
554.886	1	6
555.056	1	-8
555.226	1	-1
555.396	1	-4
555.566	1	2
555.736	1	-4
555.906	1	-5
556.076	1	3
556.246	1	3
556.416	1	-2
556.586	1	12
556.756	1	3
556.926	1	6
557.096	1	-4
557.266	1	4
557.436	1	6
557.606	1	-8
557.776	1	-4
557.946	1	10
558.116	1	5
558.286	1	3
558.456	1	-7
558.626	1	-2
558.796	1	-2
558.966	1	-1
559.136	1	4
559.306	1	-11
559.476	1	-2
559.646	1	-6
559.816	1	4
559.986	1	-1
560.155	1	3
560.325	1	-3
560.495	1	4
560.665	1	-2
560.835	1	-4
561.005	1	3
561.175	1	0
561.345	1	1
561.515	1	-4
561.685	1	-2
561.855	1	9
562.025	1	0
562.195	1	1
562.365	1	5
562.535	1	4
562.705	1	6
562.875	1	3
563.045	1	17
563.215	1	-4
563.385	1	-8
563.555	1	11
563.725	1	7
563.895	1	-12
564.064	1	17
564.234	1	-8
564.404	1	-1
564.574	1	-8
564.744	1	-1
564.914	1	-11
565.084	1	0
565.254	1	7
565.424	1	2
565.594	1	-9
565.764	1	5
565.934	1	-5
566.104	1	-8
566.274	1	5
566.444	1	5
566.614	1	-4
566.783	1	8
566.953	1	-3
567.123	1	18
567.293	1	0
567.463	1	-6
567.633	1	0
567.803	1	1
567.973	1	-1
568.143	1	-4
568.313	1	-1
568.483	1	-6
568.653	1	0
568.823	1	10
568.993	1	-10
569.162	1	7
569.332	1	-5
569.502	1	-1
569.672	1	-2
569.842	1	-2
570.012	1	-9
570.182	1	0
570.352	1	7
570.522	1	0
570.692	1	-1
570.862	1	6
571.031	1	3
571.201	1	6
571.371	1	6
571.541	1	0
571.711	1	10
571.881	1	0
572.051	1	0
572.221	1	0
572.391	1	-1
572.561	1	-4
572.731	1	2
572.900	1	11
573.070	1	6
573.240	1	-3
573.410	1	2
573.580	1	4
573.750	1	6
573.920	1	-3
574.090	1	8
574.260	1	-4
574.430	1	-4
574.599	1	2
574.769	1	-7
574.939	1	4
575.109	1	-3
575.279	1	8
575.449	1	0
575.619	1	2
575.789	1	8
575.959	1	-9
576.128	1	-9
576.298	1	-13
576.468	1	-7
576.638	1	-8
576.808	1	-5
576.978	1	-4
577.148	1	3
577.318	1	-3
577.487	1	0
577.657	1	-12
577.827	1	-1
577.997	1	-4
578.167	1	2
578.337	1	0
578.507	1	-3
578.677	1	-8
578.846	1	4
579.016	1	8
579.186	1	-4
579.356	1	-5
579.526	1	-6
579.696	1	-4
579.866	1	4
580.036	1	0
580.205	1	-10
580.375	1	7
580.545	1	-1
580.715	1	10
580.885	1	-4
581.055	1	0
581.225	1	-7
581.394	1	-4
581.564	1	-3
581.734	1	2
581.904	1	-6
582.074	1	-9
582.244	1	11
582.414	1	3
582.583	1	-12
582.753	1	5
582.923	1	5
583.093	1	2
583.263	1	5
583.433	1	-8
583.603	1	4
583.772	1	3
583.942	1	2
584.112	1	9
584.282	1	8
584.452	1	-2
584.622	1	2
584.791	1	-1
584.961	1	0
585.131	1	-13
585.301	1	-1
585.471	1	-3
585.641	1	0
585.811	1	-14
585.980	1	-7
586.150	1	-5
586.320	1	-3
586.490	1	-7
586.660	1	1
586.830	1	-3
586.999	1	-6
587.169	1	2
587.339	1	9
587.509	1	5
587.679	1	3
587.849	1	6
588.018	1	-2
588.188	1	1
588.358	1	7
588.528	1	-3
588.698	1	-6
588.867	1	-5
589.037	1	3
589.207	1	-1
589.377	1	3
589.547	1	-6
589.717	1	6
589.886	1	-10
590.056	1	-4
590.226	1	5
590.396	1	7
590.566	1	2
590.735	1	14
590.905	1	7
591.075	1	-9
591.245	1	-4
591.415	1	0
591.585	1	-4
591.754	1	3
591.924	1	0
592.094	1	-2
592.264	1	-7
592.434	1	-1
592.603	1	-6
592.773	1	7
592.943	1	-4
593.113	1	-8
593.283	1	11
593.452	1	-17
593.622	1	-3
593.792	1	1
593.962	1	7
594.132	1	-4
594.301	1	13
594.471	1	2
594.641	1	-14
594.811	1	-1
594.981	1	-8
595.150	1	-2
595.320	1	8
595.490	1	-8
595.660	1	-13
595.829	1	0
595.999	1	-3
596.169	1	2
596.339	1	-3
596.509	1	4
596.678	1	-6
596.848	1	7
597.018	1	3
597.188	1	6
597.358	1	10
597.527	1	-12
597.697	1	-9
597.867	1	2
598.037	1	8
598.206	1	-9
598.376	1	0
598.546	1	5
598.716	1	-14
598.885	1	-9
599.055	1	1
599.225	1	-8
599.395	1	-6
599.565	1	1
599.734	1	2
599.904	1	3
600.074	1	-5
600.244	1	9
600.413	1	1
600.583	1	-8
600.753	1	4
600.923	1	19
601.092	1	-14
601.262	1	5
601.432	1	-8
601.602	1	2
601.771	1	14
601.941	1	-9
602.111	1	-14
602.281	1	-4
602.451	1	0
602.620	1	2
602.790	1	-3
602.960	1	-11
603.130	1	0
603.299	1	1
603.469	1	0
603.639	1	7
603.809	1	5
603.978	1	0
604.148	1	4
604.318	1	5
604.487	1	-5
604.657	1	1
604.827	1	-8
604.997	1	-3
605.166	1	-7
605.336	1	2
605.506	1	-1
605.676	1	-4
605.845	1	1
606.015	1	1
606.185	1	6
606.355	1	-1
606.524	1	-8
606.694	1	10
606.864	1	-4
607.034	1	-6
607.203	1	10
607.373	1	-2
607.543	1	-2
607.712	1	8
607.882	1	-9
608.052	1	5
608.222	1	-1
608.391	1	-3
608.561	1	-1
608.731	1	-6
608.901	1	0
609.070	1	-6
609.240	1	-4
609.410	1	0
609.579	1	3
609.749	1	-2
609.919	1	-7
610.089	1	-10
610.258	1	6
610.428	1	-2
610.598	1	-5
610.767	1	-1
610.937	1	-3
611.107	1	11
611.277	1	11
611.446	1	-2
611.616	1	-14
611.786	1	5
611.955	1	3
612.125	1	0
612.295	1	2
612.465	1	-8
612.634	1	-6
612.804	1	12
612.974	1	4
613.143	1	-2
613.313	1	2
613.483	1	3
613.652	1	-7
613.822	1	-7
613.992	1	-3
614.162	1	-6
614.331	1	2
614.501	1	3
614.671	1	-7
614.840	1	2
615.010	1	-1
615.180	1	-6
615.349	1	-3
615.519	1	0
615.689	1	0
615.858	1	3
616.028	1	-2
616.198	1	6
616.368	1	-3
616.537	1	-1
616.707	1	-8
616.877	1	-1
617.046	1	-6
617.216	1	-1
617.386	1	-3
617.555	1	-8
617.725	1	2
617.895	1	-5
618.064	1	4
618.234	1	0
618.404	1	9
618.573	1	11
618.743	1	-14
618.913	1	-1
619.082	1	-4
619.252	1	5
619.422	1	4
619.591	1	1
619.761	1	5
619.931	1	9
620.100	1	-1
620.270	1	4
620.440	1	-8
620.609	1	-4
620.779	1	-8
620.949	1	0
621.118	1	0
621.288	1	-1
621.458	1	11
621.627	1	2
621.797	1	3
621.967	1	-3
622.136	1	9
622.306	1	2
622.476	1	4
622.645	1	5
622.815	1	-9
622.985	1	1
623.154	1	0
623.324	1	5
623.494	1	-7
623.663	1	-5
623.833	1	-2
624.002	1	-5
624.172	1	9
624.342	1	-2
624.511	1	-3
624.681	1	-8
624.851	1	-9
625.020	1	4
625.190	1	4
625.360	1	-5
625.529	1	8
625.699	1	1
625.869	1	2
626.038	1	0
626.208	1	4
626.377	1	11
626.547	1	-6
626.717	1	-2
626.886	1	-5
627.056	1	-5
627.226	1	3
627.395	1	1
627.565	1	8
627.735	1	7
627.904	1	9
628.074	1	1
628.243	1	-8
628.413	1	-3
628.583	1	4
628.752	1	9
628.922	1	-1
629.091	1	1
629.261	1	11
629.431	1	-19
629.600	1	-2
629.770	1	8
629.940	1	-1
630.109	1	2
630.279	1	-6
630.448	1	-8
630.618	1	3
630.788	1	1
630.957	1	-1
631.127	1	2
631.297	1	-16
631.466	1	10
631.636	1	0
631.805	1	-1
631.975	1	3
632.145	1	-10
632.314	1	10
632.484	1	-11
632.653	1	-14
632.823	1	12
632.993	1	-1
633.162	1	-1
633.332	1	10
633.501	1	2
633.671	1	-6
633.841	1	3
634.010	1	-3
634.180	1	3
634.349	1	2
634.519	1	-4
634.689	1	3
634.858	1	3
635.028	1	-2
635.197	1	-4
635.367	1	3
635.537	1	-5
635.706	1	-8
635.876	1	0
636.045	1	-5
636.215	1	-4
636.384	1	4
636.554	1	12
636.724	1	10
636.893	1	4
637.063	1	6
637.232	1	-2
637.402	1	13
637.572	1	-2
637.741	1	4
637.911	1	2
638.080	1	3
638.250	1	1
638.419	1	4
638.589	1	7
638.759	1	-1
638.928	1	-4
639.098	1	0
639.267	1	-2
639.437	1	-7
639.606	1	10
639.776	1	-4
639.946	1	0
640.115	1	-3
640.285	1	0
640.454	1	10
640.624	1	0
640.793	1	11
640.963	1	-8
641.132	1	5
641.302	1	-1
641.472	1	-2
641.641	1	-11
641.811	1	-7
641.980	1	-2
642.150	1	2
642.319	1	-8
642.489	1	-8
642.659	1	-2
642.828	1	2
642.998	1	-2
643.167	1	12
643.337	1	12
643.506	1	1
643.676	1	-1
643.845	1	3
644.015	1	4
644.184	1	0
644.354	1	6
644.524	1	-1
644.693	1	-2
644.863	1	-7
645.032	1	6
645.202	1	11
645.371	1	-10
645.541	1	-12
645.710	1	1
645.880	1	0
646.049	1	-2
646.219	1	0
646.388	1	-3
646.558	1	-1
646.728	1	2
646.897	1	-2
647.067	1	-3
647.236	1	1
647.406	1	-3
647.575	1	-1
647.745	1	3
647.914	1	-7
648.084	1	-1
648.253	1	-1
648.423	1	-5
648.592	1	1
648.762	1	5
648.931	1	11
649.101	1	6
649.270	1	8
649.440	1	18
649.610	1	12
649.779	1	-8
649.949	1	-3
650.118	1	-6
650.288	1	-6
650.457	1	-6
650.627	1	6
650.796	1	5
650.966	1	-6
651.135	1	6
651.305	1	-9
651.474	1	0
651.644	1	-2
651.813	1	14
651.983	1	0
652.152	1	-3
652.322	1	9
652.491	1	-4
652.661	1	-3
652.830	1	3
653.000	1	3
653.169	1	-6
653.339	1	-4
653.508	1	-3
653.678	1	0
653.847	1	0
654.017	1	-1
654.186	1	3
654.356	1	-11
654.525	1	2
654.695	1	7
654.864	1	-5
655.034	1	2
655.203	1	6
655.373	1	3
655.542	1	8
655.712	1	-8
655.881	1	1
656.051	1	4
656.220	1	3
656.390	1	1
656.559	1	-5
656.729	1	-4
656.898	1	11
657.068	1	-5
657.237	1	1
657.406	1	-2
657.576	1	-10
657.745	1	-5
657.915	1	6
658.084	1	6
658.254	1	10
658.423	1	1
658.593	1	-10
658.762	1	-8
658.932	1	6
659.101	1	-4
659.271	1	2
659.440	1	9
659.610	1	1
659.779	1	-6
659.949	1	-15
660.118	1	0
660.288	1	-3
660.457	1	-5
660.626	1	-9
660.796	1	-1
660.965	1	-4
661.135	1	2
661.304	1	4
661.474	1	0
661.643	1	-8
661.813	1	1
661.982	1	-1
662.152	1	2
662.321	1	-10
662.491	1	-1
662.660	1	4
662.829	1	-5
662.999	1	-10
663.168	1	-8
663.338	1	-11
663.507	1	-2
663.677	1	-10
663.846	1	1
664.016	1	-5
664.185	1	3
664.354	1	4
664.524	1	-13
664.693	1	0
664.863	1	-1
665.032	1	6
665.202	1	-4
665.371	1	-1
665.541	1	-7
665.710	1	7
665.879	1	5
666.049	1	-2
666.218	1	-9
666.388	1	-7
666.557	1	9
666.727	1	-13
666.896	1	2
667.065	1	6
667.235	1	5
667.404	1	-7
667.574	1	5
667.743	1	-6
667.913	1	2
668.082	1	-1
668.251	1	3
668.421	1	-4
668.590	1	4
668.760	1	-2
668.929	1	-6
669.099	1	0
669.268	1	-3
669.437	1	1
669.607	1	-7
669.776	1	-6
669.946	1	12
670.115	1	-5
670.285	1	8
670.454	1	9
670.623	1	0
670.793	1	-6
670.962	1	-1
671.132	1	3
671.301	1	-18
671.470	1	-10
671.640	1	-16
671.809	1	4
671.979	1	7
672.148	1	6
672.317	1	-3
672.487	1	-8
672.656	1	7
672.826	1	-13
672.995	1	-1
673.164	1	11
673.334	1	0
673.503	1	-1
673.673	1	16
673.842	1	3
674.011	1	10
674.181	1	-13
674.350	1	2
674.520	1	2
674.689	1	3
674.858	1	-5
675.028	1	0
675.197	1	4
675.367	1	-7
675.536	1	7
675.705	1	-3
675.875	1	5
676.044	1	-4
676.214	1	3
676.383	1	-5
676.552	1	-9
676.722	1	0
676.891	1	-28
677.060	1	-5
677.230	1	10
677.399	1	-4
677.569	1	-7
677.738	1	-7
677.907	1	-11
678.077	1	-1
678.246	1	-10
678.416	1	-4
678.585	1	-1
678.754	1	-4
678.924	1	-1
679.093	1	-1
679.262	1	6
679.432	1	3
679.601	1	-7
679.771	1	2
679.940	1	-5
680.109	1	3
680.279	1	-4
680.448	1	4
680.617	1	-16
680.787	1	2
680.956	1	-2
681.125	1	5
681.295	1	3
681.464	1	-4
681.634	1	8
681.803	1	-7
681.972	1	-6
682.142	1	10
682.311	1	1
682.480	1	-1
682.650	1	-5
682.819	1	-7
682.988	1	-1
683.158	1	4
683.327	1	4
683.496	1	-6
683.666	1	7
683.835	1	6
684.004	1	-3
684.174	1	1
684.343	1	1
684.512	1	0
684.682	1	2
684.851	1	2
685.021	1	5
685.190	1	3
685.359	1	-3
685.529	1	-3
685.698	1	2
685.867	1	-2
686.037	1	0
686.206	1	-7
686.375	1	8
686.545	1	4
686.714	1	3
686.883	1	-2
687.053	1	4
687.222	1	-3
687.391	1	-7
687.561	1	-14
687.730	1	-6
687.899	1	-5
688.069	1	-7
688.238	1	2
688.407	1	5
688.577	1	-8
688.746	1	4
