340.368	1	0
340.539	1	-4
340.710	1	-5
340.881	1	4
341.052	1	9
341.223	1	5
341.394	1	-1
341.565	1	-8
341.737	1	9
341.908	1	-5
342.079	1	-9
342.250	1	0
342.421	1	-9
342.592	1	-12
342.763	1	5
342.934	1	4
343.105	1	10
343.276	1	2
343.447	1	1
343.618	1	-2
343.789	1	2
343.960	1	-5
344.131	1	-4
344.302	1	-3
344.473	1	6
344.644	1	-6
344.815	1	3
344.986	1	16
345.157	1	8
345.328	1	-3
345.499	1	5
345.670	1	2
345.841	1	4
346.012	1	7
346.183	1	2
346.354	1	-1
346.526	1	4
346.697	1	-2
346.868	1	8
347.039	1	4
347.210	1	1
347.381	1	1
347.552	1	0
347.723	1	2
347.894	1	3
348.065	1	-4
348.236	1	5
348.407	1	5
348.578	1	3
348.749	1	2
348.920	1	8
349.091	1	8
349.262	1	0
349.433	1	-5
349.604	1	12
349.775	1	10
349.946	1	12
350.117	1	8
350.288	1	-2
350.459	1	1
350.630	1	-9
350.801	1	2
350.972	1	3
351.143	1	-2
351.314	1	-1
351.485	1	-1
351.656	1	-2
351.827	1	-3
351.998	1	-7
352.169	1	13
352.340	1	-2
352.511	1	-4
352.682	1	-2
352.853	1	1
353.024	1	-6
353.195	1	-2
353.366	1	5
353.537	1	5
353.708	1	7
353.879	1	15
354.050	1	0
354.221	1	-6
354.392	1	2
354.563	1	13
354.734	1	0
354.905	1	-2
355.076	1	5
355.247	1	-3
355.418	1	-1
355.589	1	1
355.760	1	5
355.931	1	-1
356.102	1	1
356.273	1	4
356.444	1	-2
356.615	1	2
356.785	1	14
356.956	1	-3
357.127	1	-5
357.298	1	-1
357.469	1	-10
357.640	1	8
357.811	1	22
357.982	1	-9
358.153	1	5
358.324	1	3
358.495	1	7
358.666	1	6
358.837	1	-6
359.008	1	-7
359.179	1	-1
359.350	1	1
359.521	1	1
359.692	1	1
359.863	1	-3
360.034	1	-4
360.205	1	-8
360.376	1	1
360.547	1	-8
360.718	1	-8
360.889	1	3
361.060	1	8
361.231	1	-6
361.401	1	9
361.572	1	-1
361.743	1	2
361.914	1	-5
362.085	1	0
362.256	1	13
362.427	1	-12
362.598	1	3
362.769	1	8
362.940	1	8
363.111	1	4
363.282	1	-1
363.453	1	1
363.624	1	-2
363.795	1	2
363.966	1	2
364.137	1	-10
364.308	1	-8
364.478	1	-3
364.649	1	6
364.820	1	2
364.991	1	12
365.162	1	2
365.333	1	16
365.504	1	-8
365.675	1	-3
365.846	1	-7
366.017	1	-7
366.188	1	-15
366.359	1	-6
366.530	1	10
366.701	1	-4
366.871	1	15
367.042	1	9
367.213	1	6
367.384	1	2
367.555	1	6
367.726	1	6
367.897	1	3
368.068	1	-1
368.239	1	4
368.410	1	-7
368.581	1	3
368.752	1	-10
368.923	1	-14
369.093	1	-2
369.264	1	3
369.435	1	-3
369.606	1	-5
369.777	1	-1
369.948	1	0
370.119	1	8
370.290	1	-2
370.461	1	5
370.632	1	8
370.803	1	-4
370.973	1	9
371.144	1	3
371.315	1	-6
371.486	1	7
371.657	1	5
371.828	1	11
371.999	1	-6
372.170	1	6
372.341	1	5
372.512	1	-13
372.682	1	-10
372.853	1	-5
373.024	1	-5
373.195	1	-10
373.366	1	-2
373.537	1	9
373.708	1	1
373.879	1	-3
374.050	1	8
374.220	1	5
374.391	1	-2
374.562	1	6
374.733	1	15
374.904	1	-1
375.075	1	6
375.246	1	1
375.417	1	7
375.588	1	-3
375.758	1	4
375.929	1	5
376.100	1	6
376.271	1	-9
376.442	1	-9
376.613	1	5
376.784	1	2
376.955	1	-10
377.125	1	-2
377.296	1	4
377.467	1	1
377.638	1	5
377.809	1	6
377.980	1	7
378.151	1	-4
378.321	1	-1
378.492	1	8
378.663	1	-11
378.834	1	1
379.005	1	10
379.176	1	2
379.347	1	-5
379.518	1	-17
379.688	1	-6
379.859	1	-8
380.030	1	-8
380.201	1	-13
380.372	1	1
380.543	1	-5
380.714	1	8
380.884	1	-7
381.055	1	12
381.226	1	3
381.397	1	-9
381.568	1	-1
381.739	1	4
381.910	1	-2
382.080	1	-20
382.251	1	7
382.422	1	17
382.593	1	-4
382.764	1	0
382.935	1	10
383.105	1	3
383.276	1	-1
383.447	1	3
383.618	1	10
383.789	1	5
383.960	1	2
384.130	1	-8
384.301	1	-2
384.472	1	-3
384.643	1	4
384.814	1	6
384.985	1	5
385.156	1	-1
385.326	1	-2
385.497	1	17
385.668	1	3
385.839	1	7
386.010	1	12
386.180	1	8
386.351	1	-1
386.522	1	4
386.693	1	-2
386.864	1	3
387.035	1	-5
387.205	1	-3
387.376	1	6
387.547	1	-5
387.718	1	11
387.889	1	4
388.060	1	-4
388.230	1	-4
388.401	1	3
388.572	1	-3
388.743	1	-11
388.914	1	5
389.084	1	9
389.255	1	7
389.426	1	6
389.597	1	-3
389.768	1	2
389.939	1	12
390.109	1	-7
390.280	1	10
390.451	1	14
390.622	1	-6
390.793	1	9
390.963	1	8
391.134	1	11
391.305	1	12
391.476	1	8
391.647	1	4
391.817	1	4
391.988	1	-3
392.159	1	2
392.330	1	6
392.501	1	14
392.671	1	3
392.842	1	13
393.013	1	11
393.184	1	7
393.355	1	12
393.525	1	5
393.696	1	-3
393.867	1	2
394.038	1	-6
394.208	1	4
394.379	1	1
394.550	1	8
394.721	1	-2
394.892	1	14
395.062	1	0
395.233	1	9
395.404	1	6
395.575	1	-5
395.746	1	2
395.916	1	-5
396.087	1	-8
396.258	1	1
396.429	1	1
396.599	1	2
396.770	1	12
396.941	1	0
397.112	1	4
397.283	1	1
397.453	1	-7
397.624	1	10
397.795	1	6
397.966	1	5
398.136	1	3
398.307	1	5
398.478	1	5
398.649	1	1
398.819	1	6
398.990	1	-2
399.161	1	4
399.332	1	8
399.503	1	-1
399.673	1	-3
399.844	1	1
400.015	1	3
400.186	1	7
400.356	1	9
400.527	1	6
400.698	1	-2
400.869	1	8
401.039	1	0
401.210	1	-4
401.381	1	5
401.552	1	14
401.722	1	10
401.893	1	3
402.064	1	-3
402.235	1	13
402.405	1	-2
402.576	1	10
402.747	1	-3
402.918	1	-1
403.088	1	-5
403.259	1	-4
403.430	1	-9
403.601	1	-6
403.771	1	2
403.942	1	4
404.113	1	17
404.284	1	-5
404.454	1	6
404.625	1	11
404.796	1	-5
404.967	1	2
405.137	1	5
405.308	1	-3
405.479	1	10
405.649	1	7
405.820	1	-3
405.991	1	11
406.162	1	-9
406.332	1	-7
406.503	1	-6
406.674	1	5
406.845	1	8
407.015	1	-3
407.186	1	12
407.357	1	6
407.527	1	-1
407.698	1	-5
407.869	1	4
408.040	1	-12
408.210	1	4
408.381	1	-3
408.552	1	4
408.722	1	-6
408.893	1	2
409.064	1	0
409.235	1	7
409.405	1	8
409.576	1	-2
409.747	1	-2
409.917	1	-3
410.088	1	-3
410.259	1	10
410.430	1	13
410.600	1	0
410.771	1	-1
410.942	1	7
411.112	1	6
411.283	1	-4
411.454	1	15
411.625	1	-1
411.795	1	4
411.966	1	-3
412.137	1	-1
412.307	1	3
412.478	1	2
412.649	1	4
412.819	1	-1
412.990	1	11
413.161	1	-5
413.332	1	1
413.502	1	4
413.673	1	-2
413.844	1	-9
414.014	1	-9
414.185	1	12
414.356	1	-2
414.526	1	4
414.697	1	2
414.868	1	7
415.038	1	6
415.209	1	-6
415.380	1	-9
415.550	1	-5
415.721	1	1
415.892	1	-2
416.063	1	20
416.233	1	-6
416.404	1	6
416.575	1	-2
416.745	1	-3
416.916	1	-5
417.087	1	-10
417.257	1	5
417.428	1	-4
417.599	1	6
417.769	1	9
417.940	1	-3
418.111	1	3
418.281	1	5
418.452	1	-7
418.623	1	-2
418.793	1	1
418.964	1	2
419.135	1	8
419.305	1	1
419.476	1	2
419.647	1	6
419.817	1	6
419.988	1	3
420.159	1	-5
420.329	1	3
420.500	1	-2
420.671	1	1
420.841	1	-2
421.012	1	4
421.183	1	3
421.353	1	20
421.524	1	10
421.695	1	2
421.865	1	-1
422.036	1	-3
422.206	1	5
422.377	1	7
422.548	1	-4
422.718	1	-3
422.889	1	5
423.060	1	-4
423.230	1	6
423.401	1	12
423.572	1	2
423.742	1	-6
423.913	1	9
424.084	1	0
424.254	1	5
424.425	1	-4
424.595	1	-10
424.766	1	-4
424.937	1	-8
425.107	1	-3
425.278	1	-5
425.449	1	7
425.619	1	2
425.790	1	-3
425.961	1	-2
426.131	1	5
426.302	1	-5
426.472	1	-4
426.643	1	2
426.814	1	14
426.984	1	-6
427.155	1	5
427.326	1	14
427.496	1	12
427.667	1	7
427.837	1	-1
428.008	1	2
428.179	1	-8
428.349	1	-13
428.520	1	-11
428.691	1	-1
428.861	1	0
429.032	1	-2
429.202	1	0
429.373	1	-7
429.544	1	5
429.714	1	2
429.885	1	1
430.055	1	3
430.226	1	-7
430.397	1	4
430.567	1	15
430.738	1	-2
430.909	1	-8
431.079	1	1
431.250	1	-14
431.420	1	0
431.591	1	-5
431.762	1	4
431.932	1	7
432.103	1	6
432.273	1	3
432.444	1	1
432.615	1	4
432.785	1	7
432.956	1	-8
433.126	1	2
433.297	1	11
433.468	1	8
433.638	1	0
433.809	1	8
433.979	1	-3
434.150	1	7
434.320	1	-4
434.491	1	7
434.662	1	-3
434.832	1	-5
435.003	1	7
435.173	1	-2
435.344	1	6
435.515	1	-2
435.685	1	9
435.856	1	2
436.026	1	3
436.197	1	1
436.368	1	1
436.538	1	10
436.709	1	-13
436.879	1	0
437.050	1	6
437.220	1	12
437.391	1	5
437.562	1	5
437.732	1	-4
437.903	1	-4
438.073	1	7
438.244	1	-9
438.414	1	0
438.585	1	2
438.756	1	4
438.926	1	8
439.097	1	5
439.267	1	4
439.438	1	9
439.608	1	-1
439.779	1	-10
439.949	1	4
440.120	1	-1
440.291	1	-1
440.461	1	-9
440.632	1	4
440.802	1	11
440.973	1	-2
441.143	1	6
441.314	1	2
441.485	1	-6
441.655	1	9
441.826	1	-6
441.996	1	9
442.167	1	-12
442.337	1	-2
442.508	1	6
442.678	1	2
442.849	1	14
443.019	1	4
443.190	1	-4
443.361	1	7
443.531	1	-1
443.702	1	-3
443.872	1	-10
444.043	1	-4
444.213	1	-11
444.384	1	11
444.554	1	-3
444.725	1	-1
444.895	1	-3
445.066	1	-4
445.237	1	3
445.407	1	-1
445.578	1	7
445.748	1	-1
445.919	1	-10
446.089	1	6
446.260	1	3
446.430	1	-16
446.601	1	-7
446.771	1	-2
446.942	1	2
447.112	1	-4
447.283	1	-10
447.453	1	-9
447.624	1	-3
447.794	1	-4
447.965	1	-15
448.135	1	-3
448.306	1	-3
448.477	1	4
448.647	1	13
448.818	1	10
448.988	1	-12
449.159	1	-8
449.329	1	4
449.500	1	10
449.670	1	6
449.841	1	-4
450.011	1	-6
450.182	1	-7
450.352	1	10
450.523	1	-6
450.693	1	1
450.864	1	1
451.034	1	1
451.205	1	2
451.375	1	0
451.546	1	3
451.716	1	10
451.887	1	-7
452.057	1	10
452.228	1	-7
452.398	1	4
452.569	1	-3
452.739	1	-8
452.910	1	2
453.080	1	8
453.251	1	-2
453.421	1	-5
453.592	1	-6
453.762	1	4
453.933	1	6
454.103	1	0
454.274	1	0
454.444	1	2
454.615	1	4
454.785	1	-3
454.956	1	-2
455.126	1	-3
455.297	1	3
455.467	1	-1
455.638	1	3
455.808	1	7
455.979	1	5
456.149	1	-1
456.320	1	-4
456.490	1	-2
456.661	1	1
456.831	1	9
457.001	1	-1
457.172	1	5
457.342	1	2
457.513	1	9
457.683	1	8
457.854	1	-3
458.024	1	10
458.195	1	-1
458.365	1	5
458.536	1	-6
458.706	1	3
458.877	1	-1
459.047	1	4
459.218	1	12
459.388	1	-1
459.559	1	8
459.729	1	5
459.899	1	1
460.070	1	-1
460.240	1	10
460.411	1	3
460.581	1	-1
460.752	1	0
460.922	1	2
461.093	1	15
461.263	1	6
461.434	1	11
461.604	1	2
461.775	1	3
461.945	1	10
462.115	1	-6
462.286	1	3
462.456	1	-4
462.627	1	3
462.797	1	-2
462.968	1	-4
463.138	1	5
463.309	1	2
463.479	1	7
463.649	1	3
463.820	1	2
463.990	1	-4
464.161	1	11
464.331	1	6
464.502	1	11
464.672	1	-2
464.843	1	11
465.013	1	-5
465.183	1	-2
465.354	1	1
465.524	1	12
465.695	1	1
465.865	1	6
466.036	1	7
466.206	1	-3
466.376	1	-4
466.547	1	2
466.717	1	-2
466.888	1	-5
467.058	1	7
467.229	1	5
467.399	1	7
467.569	1	-3
467.740	1	-7
467.910	1	-2
468.081	1	0
468.251	1	-6
468.422	1	14
468.592	1	14
468.762	1	-15
468.933	1	4
469.103	1	-7
469.274	1	3
469.444	1	-3
469.614	1	-8
469.785	1	13
469.955	1	-3
470.126	1	5
470.296	1	-1
470.467	1	-2
470.637	1	18
470.807	1	-4
470.978	1	8
471.148	1	-10
471.319	1	1
471.489	1	4
471.659	1	-2
471.830	1	11
472.000	1	12
472.171	1	11
472.341	1	3
472.511	1	0
472.682	1	6
472.852	1	-5
473.023	1	-9
473.193	1	7
473.363	1	5
473.534	1	-3
473.704	1	9
473.875	1	9
474.045	1	-8
474.215	1	-5
474.386	1	0
474.556	1	-7
474.727	1	0
474.897	1	3
475.067	1	4
475.238	1	3
475.408	1	6
475.578	1	11
475.749	1	-4
475.919	1	1
476.090	1	-1
476.260	1	1
476.430	1	0
476.601	1	-3
476.771	1	10
476.942	1	-3
477.112	1	11
477.282	1	-8
477.453	1	-9
477.623	1	1
477.793	1	10
477.964	1	2
478.134	1	-1
478.305	1	10
478.475	1	-9
478.645	1	-5
478.816	1	2
478.986	1	0
479.156	1	3
479.327	1	4
479.497	1	1
479.667	1	-1
479.838	1	4
480.008	1	8
480.179	1	-5
480.349	1	9
480.519	1	-2
480.690	1	-10
480.860	1	1
481.030	1	-8
481.201	1	2
481.371	1	8
481.541	1	4
481.712	1	3
481.882	1	2
482.053	1	1
482.223	1	-11
482.393	1	-8
482.564	1	-5
482.734	1	3
482.904	1	3
483.075	1	9
483.245	1	-5
483.415	1	-7
483.586	1	-5
483.756	1	7
483.926	1	4
484.097	1	-7
484.267	1	1
484.437	1	-9
484.608	1	2
484.778	1	-1
484.948	1	-8
485.119	1	16
485.289	1	3
485.459	1	1
485.630	1	-5
485.800	1	-7
485.970	1	5
486.141	1	-9
486.311	1	-2
486.481	1	5
486.652	1	8
486.822	1	10
486.992	1	3
487.163	1	-12
487.333	1	0
487.503	1	-5
487.674	1	4
487.844	1	5
488.014	1	-1
488.185	1	-10
488.355	1	-5
488.525	1	-4
488.696	1	-7
488.866	1	0
489.036	1	4
489.207	1	16
489.377	1	2
489.547	1	-3
489.718	1	-12
489.888	1	-12
490.058	1	3
490.228	1	-8
490.399	1	3
490.569	1	8
490.739	1	-1
490.910	1	1
491.080	1	2
491.250	1	4
491.421	1	-2
491.591	1	-6
491.761	1	3
491.932	1	2
492.102	1	-3
492.272	1	7
492.442	1	1
492.613	1	-3
492.783	1	-1
492.953	1	6
493.124	1	-6
493.294	1	11
493.464	1	-1
493.635	1	-9
493.805	1	5
493.975	1	6
494.145	1	9
494.316	1	6
494.486	1	5
494.656	1	-1
494.827	1	2
494.997	1	-9
495.167	1	2
495.337	1	-3
495.508	1	-7
495.678	1	6
495.848	1	8
496.019	1	-2
496.189	1	1
496.359	1	-3
496.529	1	5
496.700	1	4
496.870	1	0
497.040	1	-14
497.211	1	7
497.381	1	-11
497.551	1	14
497.721	1	-4
497.892	1	8
498.062	1	-5
498.232	1	2
498.403	1	9
498.573	1	-1
498.743	1	0
498.913	1	1
499.084	1	-15
499.254	1	-4
499.424	1	9
499.594	1	2
499.765	1	10
499.935	1	-12
500.105	1	8
500.275	1	5
500.446	1	-1
500.616	1	-2
500.786	1	3
500.956	1	2
501.127	1	17
501.297	1	2
501.467	1	0
501.638	1	8
501.808	1	-18
501.978	1	-3
502.148	1	8
502.319	1	-3
502.489	1	5
502.659	1	3
502.829	1	7
503.000	1	14
503.170	1	6
503.340	1	-7
503.510	1	4
503.681	1	-6
503.851	1	-15
504.021	1	17
504.191	1	-4
504.362	1	13
504.532	1	-5
504.702	1	5
504.872	1	-3
505.042	1	9
505.213	1	-1
505.383	1	-1
505.553	1	1
505.723	1	0
505.894	1	5
506.064	1	6
506.234	1	9
506.404	1	0
506.575	1	-5
506.745	1	-3
506.915	1	0
507.085	1	-2
507.256	1	-8
507.426	1	2
507.596	1	7
507.766	1	4
507.936	1	-2
508.107	1	4
508.277	1	-3
508.447	1	7
508.617	1	3
508.788	1	0
508.958	1	9
509.128	1	-2
509.298	1	2
509.468	1	9
509.639	1	8
509.809	1	5
509.979	1	-1
510.149	1	1
510.319	1	-2
510.490	1	6
510.660	1	10
510.830	1	2
511.000	1	5
511.171	1	10
511.341	1	-2
511.511	1	-13
511.681	1	7
511.851	1	-5
512.022	1	-3
512.192	1	10
512.362	1	13
512.532	1	1
512.702	1	-8
512.873	1	6
513.043	1	6
513.213	1	2
513.383	1	-1
513.553	1	-2
513.724	1	9
513.894	1	-1
514.064	1	2
514.234	1	7
514.404	1	2
514.575	1	2
514.745	1	2
514.915	1	11
515.085	1	2
515.255	1	-9
515.425	1	-7
515.596	1	-4
515.766	1	-1
515.936	1	1
516.106	1	-6
516.276	1	11
516.447	1	1
516.617	1	-12
516.787	1	1
516.957	1	-2
517.127	1	1
517.297	1	3
517.468	1	-1
517.638	1	10
517.808	1	8
517.978	1	-8
518.148	1	9
518.319	1	-4
518.489	1	2
518.659	1	3
518.829	1	-16
518.999	1	-12
519.169	1	5
519.340	1	-7
519.510	1	-3
519.680	1	0
519.850	1	-4
520.020	1	-3
520.190	1	6
520.361	1	-8
520.531	1	6
520.701	1	-4
520.871	1	1
521.041	1	6
521.211	1	0
521.382	1	-1
521.552	1	5
521.722	1	-5
521.892	1	-13
522.062	1	6
522.232	1	0
522.402	1	-13
522.573	1	4
522.743	1	9
522.913	1	3
523.083	1	7
523.253	1	2
523.423	1	-1
523.593	1	-3
523.764	1	3
523.934	1	2
524.104	1	-3
524.274	1	-6
524.444	1	3
524.614	1	-4
524.784	1	1
524.955	1	-4
525.125	1	0
525.295	1	-15
525.465	1	-1
525.635	1	4
525.805	1	-5
525.975	1	-12
526.146	1	-4
526.316	1	-5
526.486	1	2
526.656	1	12
526.826	1	4
526.996	1	9
527.166	1	-2
527.337	1	-3
527.507	1	-10
527.677	1	9
527.847	1	-7
528.017	1	-3
528.187	1	1
528.357	1	0
528.527	1	5
528.698	1	-2
528.868	1	1
529.038	1	4
529.208	1	3
529.378	1	9
529.548	1	-2
529.718	1	0
529.888	1	5
530.058	1	-1
530.229	1	8
530.399	1	2
530.569	1	6
530.739	1	-1
530.909	1	-4
531.079	1	10
531.249	1	-1
531.419	1	6
531.589	1	-6
531.760	1	10
531.930	1	-4
532.100	1	5
532.270	1	9
532.440	1	-7
532.610	1	-1
532.780	1	-8
532.950	1	2
533.120	1	-7
533.290	1	-2
533.461	1	9
533.631	1	1
533.801	1	3
533.971	1	-4
534.141	1	15
534.311	1	-1
534.481	1	1
534.651	1	3
534.821	1	2
534.991	1	9
535.162	1	4
535.332	1	-5
535.502	1	7
535.672	1	-11
535.842	1	3
536.012	1	0
536.182	1	3
536.352	1	8
536.522	1	1
536.692	1	-1
536.862	1	-1
537.032	1	1
537.203	1	8
537.373	1	5
537.543	1	5
537.713	1	10
537.883	1	-1
538.053	1	13
538.223	1	-3
538.393	1	5
538.563	1	5
538.733	1	-6
538.903	1	-9
539.073	1	4
539.243	1	2
539.413	1	0
539.584	1	2
539.754	1	-1
539.924	1	-1
540.094	1	-1
540.264	1	8
540.434	1	-4
540.604	1	13
540.774	1	-3
540.944	1	-1
541.114	1	-6
541.284	1	2
541.454	1	11
541.624	1	7
541.794	1	4
541.964	1	0
542.134	1	5
542.305	1	-5
542.475	1	0
542.645	1	5
542.815	1	11
542.985	1	1
543.155	1	-3
543.325	1	-5
543.495	1	4
543.665	1	6
543.835	1	-2
544.005	1	4
544.175	1	-8
544.345	1	3
544.515	1	2
544.685	1	6
544.855	1	4
545.025	1	1
545.195	1	-3
545.365	1	-1
545.535	1	-3
545.705	1	9
545.875	1	-5
546.045	1	15
546.216	1	11
546.386	1	2
546.556	1	-13
546.726	1	1
546.896	1	-3
547.066	1	-10
547.236	1	2
547.406	1	12
547.576	1	2
547.746	1	8
547.916	1	5
548.086	1	9
548.256	1	-1
548.426	1	-1
548.596	1	5
548.766	1	7
548.936	1	-4
549.106	1	11
549.276	1	11
549.446	1	0
549.616	1	-1
549.786	1	3
549.956	1	9
550.126	1	-3
550.296	1	6
550.466	1	-3
550.636	1	8
550.806	1	16
550.976	1	4
551.146	1	-3
551.316	1	-1
551.486	1	3
551.656	1	-3
551.826	1	4
551.996	1	0
552.166	1	-1
552.336	1	-3
552.506	1	-2
552.676	1	0
552.846	1	10
553.016	1	2
553.186	1	5
553.356	1	-6
553.526	1	-1
553.696	1	7
553.866	1	3
554.036	1	4
554.206	1	-5
554.376	1	-10
554.546	1	-2
554.716	1	-1
554.886	1	-4
555.056	1	-7
555.226	1	-6
555.396	1	3
555.566	1	0
555.736	1	3
555.906	1	7
556.076	1	-4
556.246	1	3
556.416	1	2
556.586	1	10
556.756	1	-2
556.926	1	9
557.096	1	-7
557.266	1	15
557.436	1	10
557.606	1	-7
557.776	1	4
557.946	1	6
558.116	1	10
558.286	1	1
558.456	1	-10
558.626	1	8
558.796	1	-3
558.966	1	3
559.136	1	5
559.306	1	-1
559.476	1	0
559.646	1	-4
559.816	1	4
559.986	1	-7
560.155	1	-4
560.325	1	-5
560.495	1	1
560.665	1	6
560.835	1	-2
561.005	1	-2
561.175	1	2
561.345	1	-3
561.515	1	-9
561.685	1	-3
561.855	1	5
562.025	1	-6
562.195	1	2
562.365	1	6
562.535	1	7
562.705	1	9
562.875	1	2
563.045	1	3
563.215	1	0
563.385	1	3
563.555	1	6
563.725	1	-2
563.895	1	-4
564.064	1	24
564.234	1	3
564.404	1	-2
564.574	1	2
564.744	1	7
564.914	1	-14
565.084	1	-11
565.254	1	3
565.424	1	3
565.594	1	1
565.764	1	13
565.934	1	8
566.104	1	3
566.274	1	3
566.444	1	2
566.614	1	-1
566.783	1	-1
566.953	1	-5
567.123	1	15
567.293	1	3
567.463	1	-2
567.633	1	-4
567.803	1	-4
567.973	1	-3
568.143	1	-11
568.313	1	-2
568.483	1	-17
568.653	1	-4
568.823	1	6
568.993	1	0
569.162	1	3
569.332	1	-6
569.502	1	-2
569.672	1	-3
569.842	1	-8
570.012	1	10
570.182	1	-8
570.352	1	6
570.522	1	9
570.692	1	-1
570.862	1	11
571.031	1	-2
571.201	1	6
571.371	1	-4
571.541	1	-5
571.711	1	5
571.881	1	7
572.051	1	11
572.221	1	3
572.391	1	5
572.561	1	-8
572.731	1	-3
572.900	1	13
573.070	1	-3
573.240	1	-1
573.410	1	-2
573.580	1	10
573.750	1	13
573.920	1	-1
574.090	1	1
574.260	1	3
574.430	1	-10
574.599	1	3
574.769	1	8
574.939	1	0
575.109	1	7
575.279	1	3
575.449	1	14
575.619	1	-4
575.789	1	5
575.959	1	-8
576.128	1	10
576.298	1	-10
576.468	1	4
576.638	1	4
576.808	1	0
576.978	1	-3
577.148	1	7
577.318	1	11
577.487	1	-8
577.657	1	-17
577.827	1	4
577.997	1	-4
578.167	1	7
578.337	1	-1
578.507	1	-3
578.677	1	2
578.846	1	1
579.016	1	9
579.186	1	-5
579.356	1	-8
579.526	1	-4
579.696	1	12
579.866	1	-9
580.036	1	-3
580.205	1	-4
580.375	1	5
580.545	1	-4
580.715	1	-3
580.885	1	0
581.055	1	4
581.225	1	-9
581.394	1	-10
581.564	1	-5
581.734	1	2
581.904	1	1
582.074	1	-4
582.244	1	1
582.414	1	3
582.583	1	-8
582.753	1	1
582.923	1	-2
583.093	1	0
583.263	1	3
583.433	1	-11
583.603	1	2
583.772	1	-4
583.942	1	9
584.112	1	-6
584.282	1	4
584.452	1	4
584.622	1	0
584.791	1	-1
584.961	1	2
585.131	1	-11
585.301	1	6
585.471	1	0
585.641	1	3
585.811	1	-2
585.980	1	-5
586.150	1	-6
586.320	1	5
586.490	1	-12
586.660	1	-1
586.830	1	-2
586.999	1	-4
587.169	1	-1
587.339	1	3
587.509	1	-2
587.679	1	-4
587.849	1	1
588.018	1	6
588.188	1	-6
588.358	1	3
588.528	1	6
588.698	1	-10
588.867	1	1
589.037	1	3
589.207	1	-11
589.377	1	4
589.547	1	-9
589.717	1	2
589.886	1	-6
590.056	1	-1
590.226	1	6
590.396	1	2
590.566	1	-2
590.735	1	18
590.905	1	0
591.075	1	-7
591.245	1	-1
591.415	1	-4
591.585	1	-3
591.754	1	7
591.924	1	-2
592.094	1	-3
592.264	1	-1
592.434	1	4
592.603	1	-4
592.773	1	-9
592.943	1	-3
593.113	1	-14
593.283	1	9
593.452	1	-20
593.622	1	2
593.792	1	2
593.962	1	9
594.132	1	-10
594.301	1	8
594.471	1	0
594.641	1	-1
594.811	1	0
594.981	1	5
595.150	1	1
595.320	1	3
595.490	1	-7
595.660	1	5
595.829	1	5
595.999	1	-7
596.169	1	-5
596.339	1	-1
596.509	1	1
596.678	1	3
596.848	1	16
597.018	1	12
597.188	1	10
597.358	1	8
597.527	1	-5
597.697	1	-14
597.867	1	8
598.037	1	-4
598.206	1	-10
598.376	1	5
598.546	1	-1
598.716	1	-4
598.885	1	2
599.055	1	8
599.225	1	4
599.395	1	8
599.565	1	2
599.734	1	2
599.904	1	-3
600.074	1	-5
600.244	1	7
600.413	1	-8
600.583	1	-5
600.753	1	9
600.923	1	1
601.092	1	-11
601.262	1	3
601.432	1	4
601.602	1	0
601.771	1	3
601.941	1	-1
602.111	1	-7
602.281	1	-5
602.451	1	-8
602.620	1	7
602.790	1	-2
602.960	1	-2
603.130	1	8
603.299	1	5
603.469	1	-3
603.639	1	7
603.809	1	3
603.978	1	-8
604.148	1	8
604.318	1	4
604.487	1	4
604.657	1	6
604.827	1	-4
604.997	1	0
605.166	1	-2
605.336	1	-7
605.506	1	8
605.676	1	-7
605.845	1	0
606.015	1	8
606.185	1	-7
606.355	1	-1
606.524	1	-2
606.694	1	14
606.864	1	-2
607.034	1	-7
607.203	1	11
607.373	1	-8
607.543	1	-3
607.712	1	17
607.882	1	-3
608.052	1	10
608.222	1	3
608.391	1	9
608.561	1	9
608.731	1	-14
608.901	1	6
609.070	1	3
609.240	1	0
609.410	1	2
609.579	1	3
609.749	1	2
609.919	1	-3
610.089	1	-12
610.258	1	11
610.428	1	-2
610.598	1	-3
610.767	1	5
610.937	1	3
611.107	1	14
611.277	1	6
611.446	1	-5
611.616	1	-10
611.786	1	6
611.955	1	3
612.125	1	0
612.295	1	-2
612.465	1	1
612.634	1	-2
612.804	1	8
612.974	1	3
613.143	1	-4
613.313	1	-1
613.483	1	0
613.652	1	-7
613.822	1	3
613.992	1	1
614.162	1	4
614.331	1	1
614.501	1	2
614.671	1	-4
614.840	1	0
615.010	1	-3
615.180	1	14
615.349	1	0
615.519	1	-1
615.689	1	0
615.858	1	4
616.028	1	-2
616.198	1	8
616.368	1	5
616.537	1	-2
616.707	1	7
616.877	1	4
617.046	1	-3
617.216	1	-4
617.386	1	1
617.555	1	-11
617.725	1	5
617.895	1	-7
618.064	1	9
618.234	1	2
618.404	1	2
618.573	1	-1
618.743	1	0
618.913	1	-3
619.082	1	0
619.252	1	-4
619.422	1	0
619.591	1	1
619.761	1	1
619.931	1	2
620.100	1	-3
620.270	1	-9
620.440	1	6
620.609	1	2
620.779	1	3
620.949	1	-3
621.118	1	3
621.288	1	11
621.458	1	1
621.627	1	-6
621.797	1	2
621.967	1	-13
622.136	1	4
622.306	1	7
622.476	1	-4
622.645	1	2
622.815	1	1
622.985	1	13
623.154	1	2
623.324	1	4
623.494	1	8
623.663	1	4
623.833	1	-5
624.002	1	-10
624.172	1	12
624.342	1	-4
624.511	1	5
624.681	1	-7
624.851	1	-1
625.020	1	6
625.190	1	4
625.360	1	-6
625.529	1	7
625.699	1	3
625.869	1	-1
626.038	1	0
626.208	1	-3
626.377	1	15
626.547	1	-1
626.717	1	-6
626.886	1	3
627.056	1	-3
627.226	1	2
627.395	1	11
627.565	1	11
627.735	1	1
627.904	1	-1
628.074	1	9
628.243	1	-12
628.413	1	-8
628.583	1	-2
628.752	1	7
628.922	1	-3
629.091	1	3
629.261	1	9
629.431	1	-9
629.600	1	5
629.770	1	1
629.940	1	7
630.109	1	2
630.279	1	-3
630.448	1	3
630.618	1	5
630.788	1	0
630.957	1	-1
631.127	1	13
631.297	1	-11
631.466	1	7
631.636	1	-6
631.805	1	9
631.975	1	2
632.145	1	-3
632.314	1	10
632.484	1	3
632.653	1	-6
632.823	1	16
632.993	1	9
633.162	1	-2
633.332	1	11
633.501	1	1
633.671	1	-3
633.841	1	0
634.010	1	5
634.180	1	-8
634.349	1	0
634.519	1	5
634.689	1	10
634.858	1	2
635.028	1	5
635.197	1	6
635.367	1	-6
635.537	1	0
635.706	1	-3
635.876	1	-11
636.045	1	3
636.215	1	-5
636.384	1	5
636.554	1	7
636.724	1	4
636.893	1	-4
637.063	1	1
637.232	1	-1
637.402	1	5
637.572	1	3
637.741	1	2
637.911	1	-2
638.080	1	-6
638.250	1	4
638.419	1	13
638.589	1	12
638.759	1	6
638.928	1	-8
639.098	1	8
639.267	1	3
639.437	1	-11
639.606	1	11
639.776	1	-2
639.946	1	-4
640.115	1	-5
640.285	1	2
640.454	1	17
640.624	1	0
640.793	1	4
640.963	1	-16
641.132	1	9
641.302	1	-6
641.472	1	-2
641.641	1	-5
641.811	1	-1
641.980	1	-3
642.150	1	2
642.319	1	-4
642.489	1	1
642.659	1	-1
642.828	1	-1
642.998	1	-4
643.167	1	7
643.337	1	5
643.506	1	-2
643.676	1	-6
643.845	1	1
644.015	1	-4
644.184	1	4
644.354	1	1
644.524	1	-7
644.693	1	2
644.863	1	-8
645.032	1	4
645.202	1	2
645.371	1	-5
645.541	1	-9
645.710	1	1
645.880	1	9
646.049	1	4
646.219	1	4
646.388	1	-8
646.558	1	0
646.728	1	10
646.897	1	-3
647.067	1	-2
647.236	1	-2
647.406	1	-9
647.575	1	-1
647.745	1	7
647.914	1	-2
648.084	1	5
648.253	1	8
648.423	1	2
648.592	1	-2
648.762	1	4
648.931	1	1
649.101	1	0
649.270	1	10
649.440	1	3
649.610	1	4
649.779	1	6
649.949	1	2
650.118	1	-5
650.288	1	-11
650.457	1	2
650.627	1	9
650.796	1	-7
650.966	1	6
651.135	1	6
651.305	1	-5
651.474	1	6
651.644	1	-2
651.813	1	1
651.983	1	-1
652.152	1	-5
652.322	1	12
652.491	1	7
652.661	1	4
652.830	1	8
653.000	1	10
653.169	1	12
653.339	1	1
653.508	1	0
653.678	1	-9
653.847	1	0
654.017	1	2
654.186	1	0
654.356	1	7
654.525	1	1
654.695	1	-8
654.864	1	8
655.034	1	1
655.203	1	9
655.373	1	3
655.542	1	0
655.712	1	-13
655.881	1	13
656.051	1	1
656.220	1	4
656.390	1	6
656.559	1	-3
656.729	1	10
656.898	1	1
657.068	1	-7
657.237	1	-1
657.406	1	5
657.576	1	-6
657.745	1	-2
657.915	1	9
658.084	1	8
658.254	1	6
658.423	1	5
658.593	1	-7
658.762	1	-6
658.932	1	-1
659.101	1	-11
659.271	1	-3
659.440	1	10
659.610	1	9
659.779	1	-3
659.949	1	2
660.118	1	8
660.288	1	-8
660.457	1	3
660.626	1	-1
660.796	1	-3
660.965	1	-4
661.135	1	2
661.304	1	6
661.474	1	1
661.643	1	-4
661.813	1	7
661.982	1	2
662.152	1	0
662.321	1	-6
662.491	1	0
662.660	1	-1
662.829	1	-3
662.999	1	2
663.168	1	0
663.338	1	1
663.507	1	8
663.677	1	-5
663.846	1	1
664.016	1	-7
664.185	1	-2
664.354	1	10
664.524	1	-8
664.693	1	-1
664.863	1	-1
665.032	1	-1
665.202	1	-11
665.371	1	-3
665.541	1	-6
665.710	1	-5
665.879	1	-3
666.049	1	-6
666.218	1	-3
666.388	1	-4
666.557	1	3
666.727	1	-14
666.896	1	1
667.065	1	6
667.235	1	4
667.404	1	-13
667.574	1	-3
667.743	1	4
667.913	1	6
668.082	1	-2
668.251	1	-8
668.421	1	6
668.590	1	-6
668.760	1	-4
668.929	1	11
669.099	1	-8
669.268	1	-4
669.437	1	4
669.607	1	-5
669.776	1	-3
669.946	1	6
670.115	1	-3
670.285	1	2
670.454	1	-6
670.623	1	-4
670.793	1	0
670.962	1	-4
671.132	1	2
671.301	1	-3
671.470	1	-2
671.640	1	-12
671.809	1	-11
671.979	1	12
672.148	1	7
672.317	1	-13
672.487	1	-4
672.656	1	5
672.826	1	-14
672.995	1	-3
673.164	1	14
673.334	1	9
673.503	1	4
673.673	1	19
673.842	1	4
674.011	1	5
674.181	1	-3
674.350	1	-2
674.520	1	-5
674.689	1	4
674.858	1	-3
675.028	1	-6
675.197	1	-3
675.367	1	10
675.536	1	9
675.705	1	-8
675.875	1	0
676.044	1	1
676.214	1	-2
676.383	1	1
676.552	1	0
676.722	1	-7
676.891	1	-13
677.060	1	9
677.230	1	7
677.399	1	6
677.569	1	1
677.738	1	-6
677.907	1	-3
678.077	1	3
678.246	1	-13
678.416	1	0
678.585	1	-5
678.754	1	9
678.924	1	-10
679.093	1	-1
679.262	1	8
679.432	1	-9
679.601	1	-14
679.771	1	1
679.940	1	-6
680.109	1	5
680.279	1	-4
680.448	1	0
680.617	1	-4
680.787	1	11
680.956	1	1
681.125	1	13
681.295	1	4
681.464	1	-6
681.634	1	2
681.803	1	-4
681.972	1	-12
682.142	1	11
682.311	1	1
682.480	1	-2
682.650	1	-9
682.819	1	-7
682.988	1	-2
683.158	1	-1
683.327	1	7
683.496	1	-4
683.666	1	5
683.835	1	2
684.004	1	-2
684.174	1	6
684.343	1	2
684.512	1	-4
684.682	1	8
684.851	1	2
685.021	1	8
685.190	1	8
685.359	1	-4
685.529	1	-4
685.698	1	9
685.867	1	2
686.037	1	1
686.206	1	1
686.375	1	2
686.545	1	0
686.714	1	-1
686.883	1	-2
687.053	1	7
687.222	1	-13
687.391	1	-3
687.561	1	3
687.730	1	-10
687.899	1	-4
688.069	1	1
688.238	1	3
688.407	1	12
688.577	1	2
688.746	1	11
