340.368	1	1
340.539	1	5
340.710	1	-8
340.881	1	-5
341.052	1	7
341.223	1	15
341.394	1	4
341.565	1	-5
341.737	1	9
341.908	1	8
342.079	1	-2
342.250	1	-7
342.421	1	-1
342.592	1	-10
342.763	1	-2
342.934	1	6
343.105	1	11
343.276	1	1
343.447	1	3
343.618	1	1
343.789	1	5
343.960	1	1
344.131	1	4
344.302	1	-4
344.473	1	8
344.644	1	-5
344.815	1	4
344.986	1	8
345.157	1	7
345.328	1	3
345.499	1	2
345.670	1	8
345.841	1	4
346.012	1	10
346.183	1	2
346.354	1	6
346.526	1	12
346.697	1	3
346.868	1	4
347.039	1	-1
347.210	1	-6
347.381	1	8
347.552	1	7
347.723	1	-5
347.894	1	-2
348.065	1	-3
348.236	1	4
348.407	1	6
348.578	1	3
348.749	1	11
348.920	1	12
349.091	1	5
349.262	1	-1
349.433	1	-6
349.604	1	20
349.775	1	0
349.946	1	12
350.117	1	6
350.288	1	3
350.459	1	11
350.630	1	-2
350.801	1	9
350.972	1	-5
351.143	1	-7
351.314	1	-16
351.485	1	-4
351.656	1	9
351.827	1	-6
351.998	1	-1
352.169	1	10
352.340	1	0
352.511	1	1
352.682	1	-1
352.853	1	-5
353.024	1	-1
353.195	1	6
353.366	1	8
353.537	1	3
353.708	1	13
353.879	1	7
354.050	1	6
354.221	1	1
354.392	1	5
354.563	1	12
354.734	1	-1
354.905	1	4
355.076	1	2
355.247	1	-3
355.418	1	0
355.589	1	11
355.760	1	5
355.931	1	10
356.102	1	5
356.273	1	10
356.444	1	10
356.615	1	3
356.785	1	18
356.956	1	-2
357.127	1	10
357.298	1	2
357.469	1	6
357.640	1	12
357.811	1	17
357.982	1	-5
358.153	1	11
358.324	1	11
358.495	1	3
358.666	1	1
358.837	1	3
359.008	1	-1
359.179	1	5
359.350	1	11
359.521	1	-1
359.692	1	12
359.863	1	-6
360.034	1	-16
360.205	1	9
360.376	1	11
360.547	1	4
360.718	1	-5
360.889	1	11
361.060	1	19
361.231	1	1
361.401	1	18
361.572	1	-1
361.743	1	-4
361.914	1	0
362.085	1	3
362.256	1	16
362.427	1	9
362.598	1	12
362.769	1	12
362.940	1	6
363.111	1	10
363.282	1	19
363.453	1	0
363.624	1	7
363.795	1	5
363.966	1	11
364.137	1	4
364.308	1	9
364.478	1	9
364.649	1	8
364.820	1	10
364.991	1	15
365.162	1	4
365.333	1	19
365.504	1	10
365.675	1	1
365.846	1	9
366.017	1	9
366.188	1	10
366.359	1	17
366.530	1	13
366.701	1	1
366.871	1	29
367.042	1	23
367.213	1	10
367.384	1	23
367.555	1	1
367.726	1	19
367.897	1	11
368.068	1	16
368.239	1	21
368.410	1	5
368.581	1	8
368.752	1	1
368.923	1	0
369.093	1	-1
369.264	1	12
369.435	1	5
369.606	1	7
369.777	1	10
369.948	1	21
370.119	1	11
370.290	1	6
370.461	1	9
370.632	1	11
370.803	1	7
370.973	1	19
371.144	1	7
371.315	1	1
371.486	1	12
371.657	1	8
371.828	1	8
371.999	1	6
372.170	1	21
372.341	1	6
372.512	1	8
372.682	1	6
372.853	1	8
373.024	1	5
373.195	1	1
373.366	1	11
373.537	1	4
373.708	1	6
373.879	1	14
374.050	1	13
374.220	1	10
374.391	1	19
374.562	1	3
374.733	1	27
374.904	1	6
375.075	1	15
375.246	1	-2
375.417	1	8
375.588	1	11
375.758	1	-1
375.929	1	11
376.100	1	20
376.271	1	10
376.442	1	5
376.613	1	7
376.784	1	4
376.955	1	5
377.125	1	10
377.296	1	14
377.467	1	4
377.638	1	11
377.809	1	11
377.980	1	7
378.151	1	-1
378.321	1	11
378.492	1	6
378.663	1	8
378.834	1	7
379.005	1	13
379.176	1	9
379.347	1	6
379.518	1	-10
379.688	1	3
379.859	1	7
380.030	1	-7
380.201	1	-5
380.372	1	4
380.543	1	8
380.714	1	5
380.884	1	7
381.055	1	6
381.226	1	13
381.397	1	-3
381.568	1	6
381.739	1	13
381.910	1	4
382.080	1	-7
382.251	1	12
382.422	1	24
382.593	1	6
382.764	1	6
382.935	1	10
383.105	1	1
383.276	1	-1
383.447	1	22
383.618	1	15
383.789	1	19
383.960	1	19
384.130	1	9
384.301	1	11
384.472	1	6
384.643	1	12
384.814	1	19
384.985	1	11
385.156	1	19
385.326	1	13
385.497	1	13
385.668	1	11
385.839	1	16
386.010	1	15
386.180	1	14
386.351	1	9
386.522	1	19
386.693	1	12
386.864	1	5
387.035	1	14
387.205	1	17
387.376	1	23
387.547	1	17
387.718	1	20
387.889	1	19
388.060	1	6
388.230	1	13
388.401	1	33
388.572	1	16
388.743	1	15
388.914	1	18
389.084	1	19
389.255	1	17
389.426	1	16
389.597	1	14
389.768	1	15
389.939	1	15
390.109	1	8
390.280	1	30
390.451	1	31
390.622	1	8
390.793	1	6
390.963	1	22
391.134	1	16
391.305	1	24
391.476	1	24
391.647	1	18
391.817	1	13
391.988	1	20
392.159	1	18
392.330	1	6
392.501	1	10
392.671	1	15
392.842	1	16
393.013	1	17
393.184	1	17
393.355	1	27
393.525	1	18
393.696	1	10
393.867	1	14
394.038	1	-1
394.208	1	15
394.379	1	9
394.550	1	12
394.721	1	20
394.892	1	16
395.062	1	9
395.233	1	16
395.404	1	20
395.575	1	8
395.746	1	2
395.916	1	14
396.087	1	6
396.258	1	11
396.429	1	10
396.599	1	15
396.770	1	26
396.941	1	29
397.112	1	10
397.283	1	14
397.453	1	3
397.624	1	14
397.795	1	13
397.966	1	10
398.136	1	18
398.307	1	16
398.478	1	10
398.649	1	11
398.819	1	18
398.990	1	13
399.161	1	14
399.332	1	18
399.503	1	20
399.673	1	8
399.844	1	5
400.015	1	15
400.186	1	22
400.356	1	9
400.527	1	17
400.698	1	13
400.869	1	20
401.039	1	8
401.210	1	8
401.381	1	18
401.552	1	18
401.722	1	17
401.893	1	11
402.064	1	21
402.235	1	14
402.405	1	10
402.576	1	20
402.747	1	12
402.918	1	7
403.088	1	6
403.259	1	8
403.430	1	7
403.601	1	2
403.771	1	5
403.942	1	10
404.113	1	27
404.284	1	11
404.454	1	20
404.625	1	19
404.796	1	13
404.967	1	12
405.137	1	11
405.308	1	10
405.479	1	12
405.649	1	8
405.820	1	11
405.991	1	13
406.162	1	9
406.332	1	4
406.503	1	7
406.674	1	14
406.845	1	7
407.015	1	3
407.186	1	18
407.357	1	13
407.527	1	12
407.698	1	2
407.869	1	3
408.040	1	5
408.210	1	14
408.381	1	8
408.552	1	5
408.722	1	1
408.893	1	16
409.064	1	12
409.235	1	5
409.405	1	20
409.576	1	10
409.747	1	-1
409.917	1	8
410.088	1	16
410.259	1	13
410.430	1	16
410.600	1	9
410.771	1	11
410.942	1	10
411.112	1	14
411.283	1	2
411.454	1	25
411.625	1	12
411.795	1	17
411.966	1	11
412.137	1	11
412.307	1	2
412.478	1	21
412.649	1	11
412.819	1	3
412.990	1	8
413.161	1	3
413.332	1	11
413.502	1	8
413.673	1	6
413.844	1	5
414.014	1	4
414.185	1	20
414.356	1	-1
414.526	1	7
414.697	1	25
414.868	1	20
415.038	1	13
415.209	1	0
415.380	1	5
415.550	1	0
415.721	1	11
415.892	1	7
416.063	1	20
416.233	1	11
416.404	1	12
416.575	1	9
416.745	1	1
416.916	1	0
417.087	1	14
417.257	1	12
417.428	1	-1
417.599	1	9
417.769	1	4
417.940	1	-1
418.111	1	10
418.281	1	9
418.452	1	5
418.623	1	2
418.793	1	17
418.964	1	6
419.135	1	16
419.305	1	9
419.476	1	5
419.647	1	6
419.817	1	16
419.988	1	7
420.159	1	3
420.329	1	13
420.500	1	14
420.671	1	12
420.841	1	13
421.012	1	13
421.183	1	20
421.353	1	13
421.524	1	1
421.695	1	15
421.865	1	5
422.036	1	-3
422.206	1	5
422.377	1	10
422.548	1	3
422.718	1	0
422.889	1	15
423.060	1	6
423.230	1	21
423.401	1	8
423.572	1	7
423.742	1	11
423.913	1	11
424.084	1	2
424.254	1	-1
424.425	1	9
424.595	1	-4
424.766	1	8
424.937	1	4
425.107	1	10
425.278	1	-2
425.449	1	9
425.619	1	1
425.790	1	6
425.961	1	5
426.131	1	8
426.302	1	0
426.472	1	10
426.643	1	10
426.814	1	7
426.984	1	5
427.155	1	14
427.326	1	8
427.496	1	15
427.667	1	1
427.837	1	9
428.008	1	7
428.179	1	1
428.349	1	4
428.520	1	5
428.691	1	5
428.861	1	13
429.032	1	4
429.202	1	11
429.373	1	-3
429.544	1	14
429.714	1	12
429.885	1	7
430.055	1	2
430.226	1	-3
430.397	1	4
430.567	1	15
430.738	1	5
430.909	1	1
431.079	1	14
431.250	1	-8
431.420	1	10
431.591	1	11
431.762	1	20
431.932	1	8
432.103	1	9
432.273	1	4
432.444	1	23
432.615	1	5
432.785	1	-2
432.956	1	6
433.126	1	13
433.297	1	10
433.468	1	8
433.638	1	2
433.809	1	7
433.979	1	1
434.150	1	1
434.320	1	1
434.491	1	7
434.662	1	6
434.832	1	9
435.003	1	4
435.173	1	5
435.344	1	13
435.515	1	11
435.685	1	7
435.856	1	0
436.026	1	9
436.197	1	8
436.368	1	-5
436.538	1	8
436.709	1	4
436.879	1	3
437.050	1	10
437.220	1	7
437.391	1	10
437.562	1	12
437.732	1	9
437.903	1	4
438.073	1	16
438.244	1	1
438.414	1	4
438.585	1	8
438.756	1	10
438.926	1	8
439.097	1	8
439.267	1	9
439.438	1	16
439.608	1	12
439.779	1	-1
439.949	1	7
440.120	1	-2
440.291	1	-4
440.461	1	-1
440.632	1	4
440.802	1	9
440.973	1	10
441.143	1	15
441.314	1	15
441.485	1	6
441.655	1	13
441.826	1	-3
441.996	1	0
442.167	1	7
442.337	1	-3
442.508	1	3
442.678	1	-11
442.849	1	8
443.019	1	8
443.190	1	-6
443.361	1	10
443.531	1	4
443.702	1	11
443.872	1	-2
444.043	1	8
444.213	1	7
444.384	1	9
444.554	1	7
444.725	1	10
444.895	1	5
445.066	1	-3
445.237	1	-6
445.407	1	3
445.578	1	16
445.748	1	-9
445.919	1	5
446.089	1	19
446.260	1	10
446.430	1	5
446.601	1	-3
446.771	1	2
446.942	1	3
447.112	1	-2
447.283	1	1
447.453	1	-3
447.624	1	12
447.794	1	-4
447.965	1	-1
448.135	1	2
448.306	1	14
448.477	1	-1
448.647	1	4
448.818	1	6
448.988	1	-10
449.159	1	6
449.329	1	8
449.500	1	20
449.670	1	16
449.841	1	8
450.011	1	6
450.182	1	0
450.352	1	6
450.523	1	0
450.693	1	9
450.864	1	17
451.034	1	13
451.205	1	13
451.375	1	5
451.546	1	12
451.716	1	21
451.887	1	-3
452.057	1	20
452.228	1	2
452.398	1	2
452.569	1	-2
452.739	1	3
452.910	1	0
453.080	1	19
453.251	1	1
453.421	1	7
453.592	1	6
453.762	1	14
453.933	1	10
454.103	1	8
454.274	1	-2
454.444	1	8
454.615	1	12
454.785	1	-7
454.956	1	1
455.126	1	5
455.297	1	9
455.467	1	7
455.638	1	-2
455.808	1	5
455.979	1	8
456.149	1	-5
456.320	1	4
456.490	1	4
456.661	1	2
456.831	1	16
457.001	1	6
457.172	1	3
457.342	1	9
457.513	1	11
457.683	1	12
457.854	1	6
458.024	1	4
458.195	1	2
458.365	1	7
458.536	1	11
458.706	1	3
458.877	1	7
459.047	1	-9
459.218	1	8
459.388	1	5
459.559	1	1
459.729	1	8
459.899	1	15
460.070	1	10
460.240	1	9
460.411	1	13
460.581	1	11
460.752	1	5
460.922	1	3
461.093	1	4
461.263	1	0
461.434	1	9
461.604	1	5
461.775	1	3
461.945	1	7
462.115	1	-2
462.286	1	11
462.456	1	-7
462.627	1	7
462.797	1	4
462.968	1	-4
463.138	1	15
463.309	1	3
463.479	1	3
463.649	1	-2
463.820	1	7
463.990	1	1
464.161	1	10
464.331	1	7
464.502	1	9
464.672	1	7
464.843	1	5
465.013	1	-1
465.183	1	4
465.354	1	9
465.524	1	9
465.695	1	9
465.865	1	1
466.036	1	2
466.206	1	4
466.376	1	0
466.547	1	10
466.717	1	-3
466.888	1	-1
467.058	1	16
467.229	1	7
467.399	1	11
467.569	1	7
467.740	1	11
467.910	1	-1
468.081	1	4
468.251	1	3
468.422	1	9
468.592	1	5
468.762	1	-2
468.933	1	6
469.103	1	-15
469.274	1	2
469.444	1	-5
469.614	1	1
469.785	1	6
469.955	1	6
470.126	1	11
470.296	1	14
470.467	1	-7
470.637	1	27
470.807	1	4
470.978	1	-5
471.148	1	-9
471.319	1	8
471.489	1	3
471.659	1	2
471.830	1	19
472.000	1	9
472.171	1	4
472.341	1	4
472.511	1	6
472.682	1	7
472.852	1	4
473.023	1	-11
473.193	1	-4
473.363	1	2
473.534	1	2
473.704	1	13
473.875	1	10
474.045	1	0
474.215	1	-1
474.386	1	18
474.556	1	-1
474.727	1	1
474.897	1	11
475.067	1	12
475.238	1	-3
475.408	1	8
475.578	1	9
475.749	1	-10
475.919	1	11
476.090	1	0
476.260	1	6
476.430	1	1
476.601	1	2
476.771	1	6
476.942	1	-3
477.112	1	7
477.282	1	-8
477.453	1	6
477.623	1	10
477.793	1	14
477.964	1	17
478.134	1	16
478.305	1	-3
478.475	1	-5
478.645	1	-4
478.816	1	2
478.986	1	1
479.156	1	1
479.327	1	-5
479.497	1	-1
479.667	1	-3
479.838	1	3
480.008	1	5
480.179	1	6
480.349	1	0
480.519	1	-3
480.690	1	9
480.860	1	-2
481.030	1	-5
481.201	1	5
481.371	1	-1
481.541	1	4
481.712	1	10
481.882	1	-3
482.053	1	10
482.223	1	1
482.393	1	-12
482.564	1	-1
482.734	1	7
482.904	1	5
483.075	1	3
483.245	1	-1
483.415	1	11
483.586	1	0
483.756	1	12
483.926	1	14
484.097	1	-3
484.267	1	4
484.437	1	-7
484.608	1	2
484.778	1	6
484.948	1	3
485.119	1	12
485.289	1	10
485.459	1	12
485.630	1	2
485.800	1	1
485.970	1	-1
486.141	1	-8
486.311	1	3
486.481	1	5
486.652	1	0
486.822	1	9
486.992	1	0
487.163	1	-1
487.333	1	7
487.503	1	-1
487.674	1	9
487.844	1	4
488.014	1	-2
488.185	1	-10
488.355	1	9
488.525	1	0
488.696	1	-9
488.866	1	9
489.036	1	8
489.207	1	4
489.377	1	12
489.547	1	5
489.718	1	-5
489.888	1	4
490.058	1	2
490.228	1	0
490.399	1	12
490.569	1	10
490.739	1	12
490.910	1	-7
491.080	1	9
491.250	1	8
491.421	1	7
491.591	1	1
491.761	1	3
491.932	1	14
492.102	1	-2
492.272	1	11
492.442	1	4
492.613	1	11
492.783	1	-5
492.953	1	14
493.124	1	4
493.294	1	12
493.464	1	-2
493.635	1	-5
493.805	1	22
493.975	1	2
494.145	1	3
494.316	1	6
494.486	1	14
494.656	1	-2
494.827	1	0
494.997	1	7
495.167	1	7
495.337	1	8
495.508	1	-1
495.678	1	23
495.848	1	10
496.019	1	7
496.189	1	5
496.359	1	10
496.529	1	1
496.700	1	8
496.870	1	2
497.040	1	6
497.211	1	10
497.381	1	-13
497.551	1	18
497.721	1	11
497.892	1	11
498.062	1	-2
498.232	1	14
498.403	1	13
498.573	1	-7
498.743	1	16
498.913	1	13
499.084	1	-6
499.254	1	4
499.424	1	21
499.594	1	8
499.765	1	5
499.935	1	0
500.105	1	2
500.275	1	23
500.446	1	11
500.616	1	6
500.786	1	11
500.956	1	6
501.127	1	14
501.297	1	13
501.467	1	1
501.638	1	6
501.808	1	-7
501.978	1	-3
502.148	1	11
502.319	1	6
502.489	1	17
502.659	1	-7
502.829	1	7
503.000	1	15
503.170	1	9
503.340	1	2
503.510	1	-1
503.681	1	10
503.851	1	-3
504.021	1	20
504.191	1	5
504.362	1	7
504.532	1	5
504.702	1	11
504.872	1	4
505.042	1	19
505.213	1	10
505.383	1	7
505.553	1	6
505.723	1	10
505.894	1	10
506.064	1	4
506.234	1	13
506.404	1	10
506.575	1	8
506.745	1	3
506.915	1	-1
507.085	1	2
507.256	1	7
507.426	1	11
507.596	1	8
507.766	1	9
507.936	1	5
508.107	1	16
508.277	1	8
508.447	1	17
508.617	1	10
508.788	1	9
508.958	1	12
509.128	1	8
509.298	1	18
509.468	1	13
509.639	1	14
509.809	1	19
509.979	1	3
510.149	1	4
510.319	1	9
510.490	1	12
510.660	1	8
510.830	1	0
511.000	1	13
511.171	1	21
511.341	1	11
511.511	1	8
511.681	1	10
511.851	1	2
512.022	1	3
512.192	1	16
512.362	1	4
512.532	1	2
512.702	1	-7
512.873	1	18
513.043	1	9
513.213	1	4
513.383	1	7
513.553	1	2
513.724	1	30
513.894	1	8
514.064	1	16
514.234	1	5
514.404	1	10
514.575	1	6
514.745	1	6
514.915	1	12
515.085	1	17
515.255	1	0
515.425	1	2
515.596	1	-4
515.766	1	6
515.936	1	9
516.106	1	4
516.276	1	17
516.447	1	3
516.617	1	10
516.787	1	2
516.957	1	10
517.127	1	7
517.297	1	5
517.468	1	2
517.638	1	14
517.808	1	11
517.978	1	8
518.148	1	21
518.319	1	2
518.489	1	7
518.659	1	13
518.829	1	5
518.999	1	10
519.169	1	5
519.340	1	6
519.510	1	4
519.680	1	8
519.850	1	2
520.020	1	9
520.190	1	-6
520.361	1	-2
520.531	1	12
520.701	1	15
520.871	1	-1
521.041	1	16
521.211	1	5
521.382	1	5
521.552	1	7
521.722	1	12
521.892	1	3
522.062	1	4
522.232	1	-1
522.402	1	2
522.573	1	14
522.743	1	14
522.913	1	9
523.083	1	11
523.253	1	9
523.423	1	1
523.593	1	-1
523.764	1	17
523.934	1	11
524.104	1	11
524.274	1	4
524.444	1	16
524.614	1	12
524.784	1	4
524.955	1	8
525.125	1	4
525.295	1	6
525.465	1	8
525.635	1	20
525.805	1	3
525.975	1	4
526.146	1	13
526.316	1	7
526.486	1	14
526.656	1	20
526.826	1	22
526.996	1	17
527.166	1	2
527.337	1	13
527.507	1	-2
527.677	1	27
527.847	1	-3
528.017	1	4
528.187	1	15
528.357	1	23
528.527	1	10
528.698	1	3
528.868	1	9
529.038	1	11
529.208	1	5
529.378	1	11
529.548	1	11
529.718	1	-2
529.888	1	7
530.058	1	16
530.229	1	18
530.399	1	26
530.569	1	8
530.739	1	3
530.909	1	14
531.079	1	15
531.249	1	8
531.419	1	20
531.589	1	4
531.760	1	12
531.930	1	11
532.100	1	18
532.270	1	15
532.440	1	-1
532.610	1	16
532.780	1	16
532.950	1	16
533.120	1	15
533.290	1	12
533.461	1	19
533.631	1	8
533.801	1	2
533.971	1	9
534.141	1	10
534.311	1	13
534.481	1	3
534.651	1	12
534.821	1	13
534.991	1	19
535.162	1	11
535.332	1	20
535.502	1	14
535.672	1	0
535.842	1	12
536.012	1	19
536.182	1	2
536.352	1	8
536.522	1	20
536.692	1	22
536.862	1	23
537.032	1	12
537.203	1	11
537.373	1	7
537.543	1	8
537.713	1	20
537.883	1	10
538.053	1	25
538.223	1	19
538.393	1	14
538.563	1	10
538.733	1	0
538.903	1	10
539.073	1	13
539.243	1	9
539.413	1	6
539.584	1	9
539.754	1	1
539.924	1	8
540.094	1	-2
540.264	1	20
540.434	1	8
540.604	1	11
540.774	1	12
540.944	1	4
541.114	1	-3
541.284	1	3
541.454	1	15
541.624	1	9
541.794	1	8
541.964	1	9
542.134	1	15
542.305	1	-3
542.475	1	6
542.645	1	9
542.815	1	6
542.985	1	3
543.155	1	12
543.325	1	6
543.495	1	6
543.665	1	11
543.835	1	1
544.005	1	4
544.175	1	6
544.345	1	13
544.515	1	9
544.685	1	11
544.855	1	13
545.025	1	-1
545.195	1	14
545.365	1	10
545.535	1	13
545.705	1	8
545.875	1	-1
546.045	1	19
546.216	1	24
546.386	1	9
546.556	1	6
546.726	1	10
546.896	1	8
547.066	1	-10
547.236	1	-4
547.406	1	12
547.576	1	5
547.746	1	24
547.916	1	13
548.086	1	16
548.256	1	12
548.426	1	3
548.596	1	6
548.766	1	10
548.936	1	0
549.106	1	15
549.276	1	12
549.446	1	7
549.616	1	17
549.786	1	11
549.956	1	21
550.126	1	6
550.296	1	17
550.466	1	8
550.636	1	1
550.806	1	10
550.976	1	9
551.146	1	6
551.316	1	-1
551.486	1	12
551.656	1	5
551.826	1	18
551.996	1	14
552.166	1	0
552.336	1	10
552.506	1	3
552.676	1	16
552.846	1	6
553.016	1	-1
553.186	1	12
553.356	1	13
553.526	1	-2
553.696	1	18
553.866	1	12
554.036	1	11
554.206	1	5
554.376	1	7
554.546	1	4
554.716	1	1
554.886	1	13
555.056	1	2
555.226	1	3
555.396	1	3
555.566	1	8
555.736	1	9
555.906	1	15
556.076	1	6
556.246	1	10
556.416	1	15
556.586	1	12
556.756	1	10
556.926	1	10
557.096	1	4
557.266	1	16
557.436	1	22
557.606	1	0
557.776	1	-2
557.946	1	13
558.116	1	7
558.286	1	11
558.456	1	5
558.626	1	12
558.796	1	-3
558.966	1	8
559.136	1	6
559.306	1	7
559.476	1	3
559.646	1	7
559.816	1	12
559.986	1	-4
560.155	1	3
560.325	1	6
560.495	1	8
560.665	1	11
560.835	1	6
561.005	1	6
561.175	1	2
561.345	1	2
561.515	1	5
561.685	1	8
561.855	1	18
562.025	1	5
562.195	1	2
562.365	1	9
562.535	1	11
562.705	1	15
562.875	1	11
563.045	1	15
563.215	1	13
563.385	1	1
563.555	1	19
563.725	1	11
563.895	1	7
564.064	1	9
564.234	1	5
564.404	1	8
564.574	1	8
564.744	1	9
564.914	1	-10
565.084	1	1
565.254	1	3
565.424	1	0
565.594	1	8
565.764	1	11
565.934	1	4
566.104	1	-3
566.274	1	13
566.444	1	7
566.614	1	6
566.783	1	4
566.953	1	11
567.123	1	19
567.293	1	6
567.463	1	12
567.633	1	3
567.803	1	3
567.973	1	-5
568.143	1	-3
568.313	1	5
568.483	1	-4
568.653	1	1
568.823	1	13
568.993	1	-2
569.162	1	10
569.332	1	-1
569.502	1	13
569.672	1	10
569.842	1	1
570.012	1	3
570.182	1	4
570.352	1	16
570.522	1	11
570.692	1	13
570.862	1	13
571.031	1	-1
571.201	1	6
571.371	1	6
571.541	1	-5
571.711	1	14
571.881	1	6
572.051	1	10
572.221	1	10
572.391	1	10
572.561	1	-4
572.731	1	-5
572.900	1	12
573.070	1	12
573.240	1	8
573.410	1	10
573.580	1	7
573.750	1	2
573.920	1	4
574.090	1	7
574.260	1	-3
574.430	1	8
574.599	1	-5
574.769	1	2
574.939	1	2
575.109	1	4
575.279	1	13
575.449	1	3
575.619	1	5
575.789	1	19
575.959	1	-2
576.128	1	6
576.298	1	2
576.468	1	-3
576.638	1	-1
576.808	1	2
576.978	1	2
577.148	1	8
577.318	1	18
577.487	1	4
577.657	1	-3
577.827	1	11
577.997	1	7
578.167	1	9
578.337	1	0
578.507	1	2
578.677	1	5
578.846	1	1
579.016	1	18
579.186	1	3
579.356	1	2
579.526	1	5
579.696	1	8
579.866	1	5
580.036	1	-5
580.205	1	11
580.375	1	2
580.545	1	5
580.715	1	6
580.885	1	3
581.055	1	10
581.225	1	2
581.394	1	8
581.564	1	-1
581.734	1	12
581.904	1	1
582.074	1	-3
582.244	1	5
582.414	1	7
582.583	1	-3
582.753	1	8
582.923	1	5
583.093	1	5
583.263	1	9
583.433	1	-2
583.603	1	11
583.772	1	3
583.942	1	13
584.112	1	5
584.282	1	9
584.452	1	11
584.622	1	12
584.791	1	8
584.961	1	5
585.131	1	-1
585.301	1	11
585.471	1	10
585.641	1	8
585.811	1	0
585.980	1	-6
586.150	1	6
586.320	1	-7
586.490	1	3
586.660	1	10
586.830	1	0
586.999	1	2
587.169	1	1
587.339	1	3
587.509	1	10
587.679	1	9
587.849	1	9
588.018	1	5
588.188	1	1
588.358	1	3
588.528	1	11
588.698	1	-3
588.867	1	3
589.037	1	11
589.207	1	-10
589.377	1	7
589.547	1	6
589.717	1	8
589.886	1	3
590.056	1	4
590.226	1	10
590.396	1	9
590.566	1	5
590.735	1	22
590.905	1	7
591.075	1	-5
591.245	1	1
591.415	1	10
591.585	1	-4
591.754	1	12
591.924	1	6
592.094	1	-1
592.264	1	-4
592.434	1	-3
592.603	1	8
592.773	1	-6
592.943	1	5
593.113	1	4
593.283	1	10
593.452	1	-7
593.622	1	-2
593.792	1	12
593.962	1	12
594.132	1	-3
594.301	1	13
594.471	1	2
594.641	1	-5
594.811	1	6
594.981	1	3
595.150	1	0
595.320	1	6
595.490	1	-2
595.660	1	-1
595.829	1	-5
595.999	1	-2
596.169	1	5
596.339	1	6
596.509	1	5
596.678	1	5
596.848	1	10
597.018	1	14
597.188	1	13
597.358	1	1
597.527	1	1
597.697	1	-7
597.867	1	-6
598.037	1	2
598.206	1	3
598.376	1	12
598.546	1	-1
598.716	1	-11
598.885	1	0
599.055	1	9
599.225	1	-4
599.395	1	4
599.565	1	5
599.734	1	4
599.904	1	-2
600.074	1	2
600.244	1	4
600.413	1	7
600.583	1	3
600.753	1	7
600.923	1	19
601.092	1	-15
601.262	1	8
601.432	1	-1
601.602	1	15
601.771	1	9
601.941	1	9
602.111	1	-5
602.281	1	7
602.451	1	-3
602.620	1	6
602.790	1	-1
602.960	1	-7
603.130	1	8
603.299	1	9
603.469	1	-5
603.639	1	13
603.809	1	6
603.978	1	0
604.148	1	10
604.318	1	4
604.487	1	6
604.657	1	-2
604.827	1	3
604.997	1	9
605.166	1	-2
605.336	1	2
605.506	1	7
605.676	1	-3
605.845	1	-2
606.015	1	9
606.185	1	2
606.355	1	3
606.524	1	1
606.694	1	12
606.864	1	-5
607.034	1	-3
607.203	1	12
607.373	1	-1
607.543	1	-4
607.712	1	12
607.882	1	-7
608.052	1	6
608.222	1	6
608.391	1	4
608.561	1	10
608.731	1	-10
608.901	1	12
609.070	1	19
609.240	1	1
609.410	1	6
609.579	1	4
609.749	1	0
609.919	1	-1
610.089	1	1
610.258	1	16
610.428	1	-6
610.598	1	1
610.767	1	-7
610.937	1	1
611.107	1	13
611.277	1	3
611.446	1	7
611.616	1	-5
611.786	1	-1
611.955	1	11
612.125	1	4
612.295	1	1
612.465	1	0
612.634	1	6
612.804	1	12
612.974	1	14
613.143	1	-1
613.313	1	12
613.483	1	12
613.652	1	-4
613.822	1	5
613.992	1	5
614.162	1	3
614.331	1	2
614.501	1	7
614.671	1	7
614.840	1	0
615.010	1	11
615.180	1	7
615.349	1	6
615.519	1	7
615.689	1	11
615.858	1	6
616.028	1	-7
616.198	1	21
616.368	1	4
616.537	1	-6
616.707	1	0
616.877	1	13
617.046	1	3
617.216	1	4
617.386	1	-5
617.555	1	-5
617.725	1	6
617.895	1	-11
618.064	1	4
618.234	1	4
618.404	1	19
618.573	1	7
618.743	1	5
618.913	1	3
619.082	1	7
619.252	1	4
619.422	1	-1
619.591	1	8
619.761	1	4
619.931	1	7
620.100	1	4
620.270	1	-1
620.440	1	5
620.609	1	7
620.779	1	5
620.949	1	6
621.118	1	-1
621.288	1	4
621.458	1	11
621.627	1	-5
621.797	1	5
621.967	1	-2
622.136	1	1
622.306	1	4
622.476	1	4
622.645	1	18
622.815	1	3
622.985	1	13
623.154	1	5
623.324	1	15
623.494	1	3
623.663	1	4
623.833	1	5
624.002	1	-2
624.172	1	15
624.342	1	-1
624.511	1	-3
624.681	1	-3
624.851	1	1
625.020	1	-1
625.190	1	9
625.360	1	-6
625.529	1	9
625.699	1	0
625.869	1	5
626.038	1	4
626.208	1	1
626.377	1	22
626.547	1	3
626.717	1	-3
626.886	1	-5
627.056	1	-1
627.226	1	9
627.395	1	5
627.565	1	8
627.735	1	-1
627.904	1	6
628.074	1	9
628.243	1	-1
628.413	1	3
628.583	1	6
628.752	1	18
628.922	1	4
629.091	1	14
629.261	1	3
629.431	1	-1
629.600	1	8
629.770	1	6
629.940	1	-4
630.109	1	3
630.279	1	-3
630.448	1	-4
630.618	1	6
630.788	1	9
630.957	1	1
631.127	1	13
631.297	1	-6
631.466	1	11
631.636	1	-4
631.805	1	-1
631.975	1	4
632.145	1	3
632.314	1	1
632.484	1	5
632.653	1	-2
632.823	1	16
632.993	1	1
633.162	1	9
633.332	1	7
633.501	1	-2
633.671	1	1
633.841	1	4
634.010	1	3
634.180	1	8
634.349	1	15
634.519	1	9
634.689	1	10
634.858	1	6
635.028	1	10
635.197	1	6
635.367	1	-8
635.537	1	5
635.706	1	0
635.876	1	1
636.045	1	10
636.215	1	6
636.384	1	14
636.554	1	16
636.724	1	3
636.893	1	3
637.063	1	8
637.232	1	-2
637.402	1	7
637.572	1	3
637.741	1	9
637.911	1	9
638.080	1	7
638.250	1	4
638.419	1	13
638.589	1	9
638.759	1	13
638.928	1	0
639.098	1	-6
639.267	1	-1
639.437	1	2
639.606	1	16
639.776	1	5
639.946	1	4
640.115	1	3
640.285	1	0
640.454	1	8
640.624	1	16
640.793	1	11
640.963	1	-8
641.132	1	10
641.302	1	2
641.472	1	-5
641.641	1	3
641.811	1	8
641.980	1	-3
642.150	1	6
642.319	1	-4
642.489	1	1
642.659	1	-4
642.828	1	4
642.998	1	-1
643.167	1	14
643.337	1	13
643.506	1	-2
643.676	1	10
643.845	1	8
644.015	1	8
644.184	1	10
644.354	1	-6
644.524	1	1
644.693	1	10
644.863	1	-5
645.032	1	12
645.202	1	10
645.371	1	4
645.541	1	-4
645.710	1	2
645.880	1	6
646.049	1	17
646.219	1	8
646.388	1	-1
646.558	1	10
646.728	1	5
646.897	1	-5
647.067	1	-4
647.236	1	14
647.406	1	3
647.575	1	7
647.745	1	5
647.914	1	1
648.084	1	6
648.253	1	7
648.423	1	-3
648.592	1	12
648.762	1	3
648.931	1	7
649.101	1	3
649.270	1	24
649.440	1	14
649.610	1	13
649.779	1	-3
649.949	1	0
650.118	1	-4
650.288	1	3
650.457	1	1
650.627	1	10
650.796	1	-2
650.966	1	-3
651.135	1	10
651.305	1	0
651.474	1	-2
651.644	1	2
651.813	1	11
651.983	1	-3
652.152	1	6
652.322	1	5
652.491	1	8
652.661	1	7
652.830	1	6
653.000	1	1
653.169	1	4
653.339	1	18
653.508	1	3
653.678	1	5
653.847	1	4
654.017	1	2
654.186	1	5
654.356	1	11
654.525	1	11
654.695	1	6
654.864	1	8
655.034	1	11
655.203	1	11
655.373	1	0
655.542	1	7
655.712	1	5
655.881	1	16
656.051	1	2
656.220	1	11
656.390	1	0
656.559	1	-7
656.729	1	8
656.898	1	3
657.068	1	-8
657.237	1	6
657.406	1	2
657.576	1	0
657.745	1	2
657.915	1	2
658.084	1	10
658.254	1	4
658.423	1	-9
658.593	1	-4
658.762	1	1
658.932	1	8
659.101	1	-4
659.271	1	8
659.440	1	9
659.610	1	-4
659.779	1	2
659.949	1	-3
660.118	1	5
660.288	1	-2
660.457	1	1
660.626	1	-5
660.796	1	5
660.965	1	6
661.135	1	2
661.304	1	2
661.474	1	-1
661.643	1	-1
661.813	1	1
661.982	1	4
662.152	1	4
662.321	1	4
662.491	1	9
662.660	1	2
662.829	1	5
662.999	1	-2
663.168	1	1
663.338	1	-4
663.507	1	4
663.677	1	-6
663.846	1	4
664.016	1	1
664.185	1	-1
664.354	1	10
664.524	1	-8
664.693	1	5
664.863	1	3
665.032	1	7
665.202	1	-4
665.371	1	17
665.541	1	1
665.710	1	1
665.879	1	0
666.049	1	3
666.218	1	-12
666.388	1	-4
666.557	1	11
666.727	1	-12
666.896	1	-1
667.065	1	3
667.235	1	11
667.404	1	-9
667.574	1	4
667.743	1	0
667.913	1	2
668.082	1	1
668.251	1	6
668.421	1	-1
668.590	1	-1
668.760	1	-2
668.929	1	9
669.099	1	-1
669.268	1	-2
669.437	1	10
669.607	1	-1
669.776	1	-1
669.946	1	9
670.115	1	3
670.285	1	10
670.454	1	7
670.623	1	6
670.793	1	-3
670.962	1	5
671.132	1	6
671.301	1	-3
671.470	1	1
671.640	1	-8
671.809	1	-11
671.979	1	13
672.148	1	6
672.317	1	-3
672.487	1	7
672.656	1	2
672.826	1	-4
672.995	1	7
673.164	1	8
673.334	1	6
673.503	1	7
673.673	1	6
673.842	1	5
674.011	1	4
674.181	1	-12
674.350	1	1
674.520	1	-10
674.689	1	-8
674.858	1	8
675.028	1	9
675.197	1	0
675.367	1	8
675.536	1	15
675.705	1	-1
675.875	1	1
676.044	1	-8
676.214	1	0
676.383	1	2
676.552	1	-2
676.722	1	-3
676.891	1	-5
677.060	1	2
677.230	1	9
677.399	1	4
677.569	1	-6
677.738	1	-13
677.907	1	-6
678.077	1	9
678.246	1	-7
678.416	1	7
678.585	1	7
678.754	1	0
678.924	1	-7
679.093	1	-1
679.262	1	9
679.432	1	-1
679.601	1	-8
679.771	1	-6
679.940	1	6
680.109	1	11
680.279	1	-4
680.448	1	-3
680.617	1	-1
680.787	1	9
680.956	1	1
681.125	1	4
681.295	1	8
681.464	1	2
681.634	1	4
681.803	1	0
681.972	1	0
682.142	1	9
682.311	1	4
682.480	1	-4
682.650	1	-1
682.819	1	-1
682.988	1	-1
683.158	1	2
683.327	1	7
683.496	1	3
683.666	1	2
683.835	1	9
684.004	1	1
684.174	1	6
684.343	1	-1
684.512	1	-8
684.682	1	14
684.851	1	12
685.021	1	6
685.190	1	5
685.359	1	-2
685.529	1	-1
685.698	1	3
685.867	1	7
686.037	1	0
686.206	1	8
686.375	1	0
686.545	1	7
686.714	1	3
686.883	1	5
687.053	1	8
687.222	1	0
687.391	1	-1
687.561	1	9
687.730	1	4
687.899	1	-3
688.069	1	-1
688.238	1	6
688.407	1	13
688.577	1	4
688.746	1	3
