340.368	1	12
340.539	1	2
340.710	1	2
340.881	1	8
341.052	1	6
341.223	1	13
341.394	1	5
341.565	1	1
341.737	1	6
341.908	1	3
342.079	1	8
342.250	1	3
342.421	1	-1
342.592	1	-1
342.763	1	6
342.934	1	3
343.105	1	14
343.276	1	0
343.447	1	9
343.618	1	3
343.789	1	-1
343.960	1	7
344.131	1	-8
344.302	1	1
344.473	1	3
344.644	1	0
344.815	1	5
344.986	1	9
345.157	1	4
345.328	1	-5
345.499	1	14
345.670	1	6
345.841	1	8
346.012	1	13
346.183	1	0
346.354	1	7
346.526	1	1
346.697	1	3
346.868	1	8
347.039	1	1
347.210	1	-4
347.381	1	7
347.552	1	7
347.723	1	9
347.894	1	3
348.065	1	14
348.236	1	10
348.407	1	-2
348.578	1	6
348.749	1	1
348.920	1	5
349.091	1	6
349.262	1	3
349.433	1	-2
349.604	1	15
349.775	1	4
349.946	1	15
350.117	1	17
350.288	1	9
350.459	1	8
350.630	1	-8
350.801	1	12
350.972	1	1
351.143	1	-4
351.314	1	-1
351.485	1	7
351.656	1	10
351.827	1	6
351.998	1	-1
352.169	1	18
352.340	1	4
352.511	1	9
352.682	1	-3
352.853	1	-4
353.024	1	2
353.195	1	7
353.366	1	6
353.537	1	-2
353.708	1	12
353.879	1	13
354.050	1	10
354.221	1	-5
354.392	1	15
354.563	1	5
354.734	1	10
354.905	1	7
355.076	1	7
355.247	1	-3
355.418	1	6
355.589	1	6
355.760	1	8
355.931	1	4
356.102	1	5
356.273	1	9
356.444	1	1
356.615	1	4
356.785	1	18
356.956	1	0
357.127	1	12
357.298	1	10
357.469	1	8
357.640	1	9
357.811	1	13
357.982	1	-7
358.153	1	4
358.324	1	2
358.495	1	12
358.666	1	12
358.837	1	4
359.008	1	14
359.179	1	10
359.350	1	5
359.521	1	5
359.692	1	1
359.863	1	2
360.034	1	-2
360.205	1	3
360.376	1	14
360.547	1	10
360.718	1	11
360.889	1	13
361.060	1	13
361.231	1	3
361.401	1	13
361.572	1	4
361.743	1	9
361.914	1	-3
362.085	1	3
362.256	1	14
362.427	1	9
362.598	1	15
362.769	1	15
362.940	1	9
363.111	1	7
363.282	1	2
363.453	1	4
363.624	1	3
363.795	1	15
363.966	1	14
364.137	1	9
364.308	1	2
364.478	1	22
364.649	1	1
364.820	1	14
364.991	1	18
365.162	1	9
365.333	1	32
365.504	1	11
365.675	1	12
365.846	1	11
366.017	1	23
366.188	1	13
366.359	1	17
366.530	1	23
366.701	1	13
366.871	1	21
367.042	1	24
367.213	1	18
367.384	1	19
367.555	1	12
367.726	1	17
367.897	1	11
368.068	1	6
368.239	1	26
368.410	1	8
368.581	1	15
368.752	1	9
368.923	1	11
369.093	1	18
369.264	1	18
369.435	1	13
369.606	1	15
369.777	1	9
369.948	1	14
370.119	1	17
370.290	1	5
370.461	1	13
370.632	1	19
370.803	1	7
370.973	1	28
371.144	1	16
371.315	1	11
371.486	1	17
371.657	1	12
371.828	1	8
371.999	1	11
372.170	1	14
372.341	1	19
372.512	1	4
372.682	1	8
372.853	1	6
373.024	1	12
373.195	1	7
373.366	1	13
373.537	1	8
373.708	1	5
373.879	1	14
374.050	1	15
374.220	1	15
374.391	1	15
374.562	1	12
374.733	1	15
374.904	1	8
375.075	1	12
375.246	1	7
375.417	1	14
375.588	1	10
375.758	1	6
375.929	1	22
376.100	1	21
376.271	1	3
376.442	1	3
376.613	1	3
376.784	1	11
376.955	1	1
377.125	1	17
377.296	1	4
377.467	1	1
377.638	1	4
377.809	1	15
377.980	1	6
378.151	1	2
378.321	1	9
378.492	1	4
378.663	1	10
378.834	1	7
379.005	1	12
379.176	1	0
379.347	1	10
379.518	1	1
379.688	1	-3
379.859	1	-2
380.030	1	4
380.201	1	-4
380.372	1	11
380.543	1	6
380.714	1	17
380.884	1	6
381.055	1	11
381.226	1	4
381.397	1	7
381.568	1	3
381.739	1	10
381.910	1	4
382.080	1	0
382.251	1	14
382.422	1	19
382.593	1	9
382.764	1	5
382.935	1	19
383.105	1	6
383.276	1	3
383.447	1	19
383.618	1	19
383.789	1	14
383.960	1	11
384.130	1	7
384.301	1	8
384.472	1	9
384.643	1	13
384.814	1	9
384.985	1	20
385.156	1	22
385.326	1	22
385.497	1	22
385.668	1	15
385.839	1	17
386.010	1	15
386.180	1	26
386.351	1	8
386.522	1	23
386.693	1	21
386.864	1	17
387.035	1	16
387.205	1	19
387.376	1	23
387.547	1	16
387.718	1	27
387.889	1	27
388.060	1	4
388.230	1	10
388.401	1	30
388.572	1	21
388.743	1	15
388.914	1	35
389.084	1	19
389.255	1	20
389.426	1	17
389.597	1	11
389.768	1	16
389.939	1	24
390.109	1	15
390.280	1	22
390.451	1	24
390.622	1	16
390.793	1	21
390.963	1	24
391.134	1	18
391.305	1	24
391.476	1	17
391.647	1	21
391.817	1	19
391.988	1	14
392.159	1	27
392.330	1	24
392.501	1	16
392.671	1	17
392.842	1	31
393.013	1	25
393.184	1	21
393.355	1	17
393.525	1	28
393.696	1	13
393.867	1	10
394.038	1	2
394.208	1	25
394.379	1	18
394.550	1	18
394.721	1	23
394.892	1	24
395.062	1	-1
395.233	1	22
395.404	1	20
395.575	1	17
395.746	1	8
395.916	1	20
396.087	1	18
396.258	1	20
396.429	1	17
396.599	1	31
396.770	1	18
396.941	1	33
397.112	1	20
397.283	1	18
397.453	1	13
397.624	1	16
397.795	1	25
397.966	1	20
398.136	1	16
398.307	1	18
398.478	1	13
398.649	1	17
398.819	1	26
398.990	1	24
399.161	1	21
399.332	1	23
399.503	1	15
399.673	1	14
399.844	1	22
400.015	1	24
400.186	1	26
400.356	1	2
400.527	1	13
400.698	1	23
400.869	1	32
401.039	1	10
401.210	1	-1
401.381	1	11
401.552	1	32
401.722	1	22
401.893	1	13
402.064	1	12
402.235	1	26
402.405	1	7
402.576	1	26
402.747	1	25
402.918	1	11
403.088	1	8
403.259	1	1
403.430	1	2
403.601	1	10
403.771	1	23
403.942	1	17
404.113	1	28
404.284	1	17
404.454	1	16
404.625	1	31
404.796	1	17
404.967	1	5
405.137	1	19
405.308	1	12
405.479	1	23
405.649	1	13
405.820	1	8
405.991	1	20
406.162	1	11
406.332	1	21
406.503	1	18
406.674	1	14
406.845	1	21
407.015	1	6
407.186	1	25
407.357	1	15
407.527	1	6
407.698	1	10
407.869	1	8
408.040	1	11
408.210	1	13
408.381	1	13
408.552	1	8
408.722	1	9
408.893	1	13
409.064	1	14
409.235	1	7
409.405	1	22
409.576	1	14
409.747	1	0
409.917	1	11
410.088	1	18
410.259	1	11
410.430	1	21
410.600	1	13
410.771	1	13
410.942	1	4
411.112	1	13
411.283	1	6
411.454	1	18
411.625	1	13
411.795	1	19
411.966	1	19
412.137	1	18
412.307	1	2
412.478	1	19
412.649	1	13
412.819	1	15
412.990	1	12
413.161	1	3
413.332	1	11
413.502	1	8
413.673	1	23
413.844	1	4
414.014	1	5
414.185	1	12
414.356	1	5
414.526	1	20
414.697	1	16
414.868	1	22
415.038	1	5
415.209	1	13
415.380	1	10
415.550	1	4
415.721	1	5
415.892	1	9
416.063	1	19
416.233	1	10
416.404	1	14
416.575	1	8
416.745	1	8
416.916	1	14
417.087	1	3
417.257	1	15
417.428	1	9
417.599	1	16
417.769	1	5
417.940	1	11
418.111	1	7
418.281	1	16
418.452	1	7
418.623	1	6
418.793	1	16
418.964	1	7
419.135	1	15
419.305	1	9
419.476	1	8
419.647	1	14
419.817	1	6
419.988	1	10
420.159	1	0
420.329	1	11
420.500	1	11
420.671	1	1
420.841	1	14
421.012	1	14
421.183	1	5
421.353	1	18
421.524	1	6
421.695	1	14
421.865	1	6
422.036	1	12
422.206	1	7
422.377	1	13
422.548	1	9
422.718	1	9
422.889	1	10
423.060	1	9
423.230	1	11
423.401	1	12
423.572	1	11
423.742	1	6
423.913	1	9
424.084	1	8
424.254	1	20
424.425	1	9
424.595	1	0
424.766	1	16
424.937	1	4
425.107	1	16
425.278	1	-2
425.449	1	17
425.619	1	-1
425.790	1	15
425.961	1	12
426.131	1	9
426.302	1	5
426.472	1	4
426.643	1	8
426.814	1	17
426.984	1	11
427.155	1	3
427.326	1	12
427.496	1	15
427.667	1	12
427.837	1	-1
428.008	1	10
428.179	1	2
428.349	1	5
428.520	1	6
428.691	1	10
428.861	1	3
429.032	1	-1
429.202	1	14
429.373	1	1
429.544	1	5
429.714	1	8
429.885	1	7
430.055	1	10
430.226	1	14
430.397	1	11
430.567	1	17
430.738	1	19
430.909	1	3
431.079	1	20
431.250	1	-5
431.420	1	13
431.591	1	9
431.762	1	11
431.932	1	6
432.103	1	11
432.273	1	0
432.444	1	12
432.615	1	13
432.785	1	15
432.956	1	7
433.126	1	17
433.297	1	10
433.468	1	9
433.638	1	8
433.809	1	10
433.979	1	8
434.150	1	5
434.320	1	8
434.491	1	6
434.662	1	3
434.832	1	3
435.003	1	20
435.173	1	5
435.344	1	13
435.515	1	8
435.685	1	5
435.856	1	3
436.026	1	7
436.197	1	5
436.368	1	8
436.538	1	12
436.709	1	-3
436.879	1	9
437.050	1	12
437.220	1	8
437.391	1	9
437.562	1	23
437.732	1	10
437.903	1	11
438.073	1	8
438.244	1	7
438.414	1	7
438.585	1	10
438.756	1	14
438.926	1	10
439.097	1	10
439.267	1	14
439.438	1	0
439.608	1	9
439.779	1	3
439.949	1	4
440.120	1	7
440.291	1	6
440.461	1	3
440.632	1	13
440.802	1	11
440.973	1	7
441.143	1	15
441.314	1	6
441.485	1	-5
441.655	1	21
441.826	1	6
441.996	1	-2
442.167	1	10
442.337	1	10
442.508	1	0
442.678	1	-1
442.849	1	4
443.019	1	10
443.190	1	-7
443.361	1	10
443.531	1	6
443.702	1	11
443.872	1	5
444.043	1	6
444.213	1	4
444.384	1	10
444.554	1	2
444.725	1	5
444.895	1	3
445.066	1	5
445.237	1	3
445.407	1	14
445.578	1	15
445.748	1	2
445.919	1	0
446.089	1	13
446.260	1	9
446.430	1	4
446.601	1	1
446.771	1	1
446.942	1	15
447.112	1	5
447.283	1	5
447.453	1	-7
447.624	1	24
447.794	1	0
447.965	1	-4
448.135	1	6
448.306	1	14
448.477	1	3
448.647	1	11
448.818	1	10
448.988	1	-9
449.159	1	9
449.329	1	7
449.500	1	20
449.670	1	19
449.841	1	7
450.011	1	-5
450.182	1	6
450.352	1	18
450.523	1	-3
450.693	1	11
450.864	1	-1
451.034	1	7
451.205	1	11
451.375	1	8
451.546	1	-4
451.716	1	12
451.887	1	1
452.057	1	16
452.228	1	5
452.398	1	13
452.569	1	7
452.739	1	3
452.910	1	-2
453.080	1	16
453.251	1	0
453.421	1	-1
453.592	1	3
453.762	1	7
453.933	1	8
454.103	1	4
454.274	1	12
454.444	1	10
454.615	1	12
454.785	1	-5
454.956	1	15
455.126	1	6
455.297	1	2
455.467	1	9
455.638	1	8
455.808	1	1
455.979	1	15
456.149	1	-2
456.320	1	1
456.490	1	7
456.661	1	10
456.831	1	15
457.001	1	10
457.172	1	4
457.342	1	9
457.513	1	8
457.683	1	3
457.854	1	-1
458.024	1	7
458.195	1	-3
458.365	1	2
458.536	1	13
458.706	1	3
458.877	1	5
459.047	1	-1
459.218	1	13
459.388	1	0
459.559	1	12
459.729	1	5
459.899	1	15
460.070	1	9
460.240	1	17
460.411	1	10
460.581	1	11
460.752	1	10
460.922	1	-1
461.093	1	8
461.263	1	10
461.434	1	14
461.604	1	6
461.775	1	14
461.945	1	11
462.115	1	-7
462.286	1	13
462.456	1	0
462.627	1	-5
462.797	1	5
462.968	1	0
463.138	1	11
463.309	1	8
463.479	1	13
463.649	1	9
463.820	1	-2
463.990	1	13
464.161	1	9
464.331	1	1
464.502	1	7
464.672	1	5
464.843	1	5
465.013	1	-2
465.183	1	3
465.354	1	10
465.524	1	12
465.695	1	3
465.865	1	0
466.036	1	5
466.206	1	0
466.376	1	1
466.547	1	14
466.717	1	9
466.888	1	-3
467.058	1	10
467.229	1	11
467.399	1	-2
467.569	1	7
467.740	1	0
467.910	1	-2
468.081	1	2
468.251	1	-1
468.422	1	11
468.592	1	8
468.762	1	2
468.933	1	8
469.103	1	3
469.274	1	3
469.444	1	8
469.614	1	-7
469.785	1	8
469.955	1	11
470.126	1	4
470.296	1	9
470.467	1	7
470.637	1	14
470.807	1	-8
470.978	1	2
471.148	1	2
471.319	1	0
471.489	1	3
471.659	1	15
471.830	1	12
472.000	1	6
472.171	1	7
472.341	1	8
472.511	1	20
472.682	1	11
472.852	1	-5
473.023	1	-2
473.193	1	-2
473.363	1	2
473.534	1	3
473.704	1	10
473.875	1	9
474.045	1	-4
474.215	1	5
474.386	1	12
474.556	1	-4
474.727	1	7
474.897	1	15
475.067	1	18
475.238	1	2
475.408	1	4
475.578	1	4
475.749	1	1
475.919	1	11
476.090	1	2
476.260	1	-4
476.430	1	7
476.601	1	9
476.771	1	8
476.942	1	2
477.112	1	6
477.282	1	-6
477.453	1	5
477.623	1	2
477.793	1	9
477.964	1	10
478.134	1	1
478.305	1	2
478.475	1	1
478.645	1	-11
478.816	1	1
478.986	1	14
479.156	1	9
479.327	1	-3
479.497	1	4
479.667	1	7
479.838	1	6
480.008	1	6
480.179	1	10
480.349	1	3
480.519	1	-2
480.690	1	12
480.860	1	4
481.030	1	4
481.201	1	3
481.371	1	3
481.541	1	7
481.712	1	9
481.882	1	-1
482.053	1	15
482.223	1	-7
482.393	1	-6
482.564	1	-10
482.734	1	3
482.904	1	4
483.075	1	4
483.245	1	2
483.415	1	13
483.586	1	-2
483.756	1	10
483.926	1	8
484.097	1	1
484.267	1	4
484.437	1	-4
484.608	1	7
484.778	1	8
484.948	1	6
485.119	1	11
485.289	1	9
485.459	1	10
485.630	1	-4
485.800	1	4
485.970	1	6
486.141	1	-5
486.311	1	7
486.481	1	8
486.652	1	11
486.822	1	10
486.992	1	1
487.163	1	3
487.333	1	3
487.503	1	-4
487.674	1	10
487.844	1	5
488.014	1	11
488.185	1	-1
488.355	1	0
488.525	1	-2
488.696	1	-4
488.866	1	5
489.036	1	3
489.207	1	11
489.377	1	7
489.547	1	-1
489.718	1	4
489.888	1	3
490.058	1	11
490.228	1	5
490.399	1	16
490.569	1	3
490.739	1	8
490.910	1	7
491.080	1	6
491.250	1	7
491.421	1	0
491.591	1	1
491.761	1	7
491.932	1	6
492.102	1	4
492.272	1	16
492.442	1	3
492.613	1	7
492.783	1	3
492.953	1	8
493.124	1	7
493.294	1	7
493.464	1	-7
493.635	1	3
493.805	1	13
493.975	1	4
494.145	1	11
494.316	1	13
494.486	1	20
494.656	1	2
494.827	1	5
494.997	1	2
495.167	1	13
495.337	1	13
495.508	1	6
495.678	1	9
495.848	1	20
496.019	1	1
496.189	1	12
496.359	1	15
496.529	1	6
496.700	1	6
496.870	1	0
497.040	1	5
497.211	1	12
497.381	1	-12
497.551	1	9
497.721	1	9
497.892	1	7
498.062	1	-5
498.232	1	11
498.403	1	10
498.573	1	7
498.743	1	8
498.913	1	13
499.084	1	-7
499.254	1	1
499.424	1	23
499.594	1	6
499.765	1	-1
499.935	1	4
500.105	1	16
500.275	1	14
500.446	1	18
500.616	1	12
500.786	1	7
500.956	1	8
501.127	1	18
501.297	1	16
501.467	1	6
501.638	1	13
501.808	1	-3
501.978	1	9
502.148	1	14
502.319	1	6
502.489	1	9
502.659	1	11
502.829	1	5
503.000	1	22
503.170	1	1
503.340	1	9
503.510	1	10
503.681	1	10
503.851	1	-7
504.021	1	31
504.191	1	11
504.362	1	15
504.532	1	-6
504.702	1	12
504.872	1	-7
505.042	1	19
505.213	1	2
505.383	1	8
505.553	1	11
505.723	1	13
505.894	1	7
506.064	1	18
506.234	1	21
506.404	1	4
506.575	1	-1
506.745	1	-2
506.915	1	10
507.085	1	3
507.256	1	2
507.426	1	15
507.596	1	20
507.766	1	12
507.936	1	12
508.107	1	12
508.277	1	1
508.447	1	9
508.617	1	16
508.788	1	14
508.958	1	12
509.128	1	18
509.298	1	12
509.468	1	11
509.639	1	14
509.809	1	12
509.979	1	3
510.149	1	6
510.319	1	4
510.490	1	15
510.660	1	16
510.830	1	14
511.000	1	23
511.171	1	23
511.341	1	-1
511.511	1	9
511.681	1	9
511.851	1	2
512.022	1	13
512.192	1	13
512.362	1	5
512.532	1	-1
512.702	1	6
512.873	1	14
513.043	1	14
513.213	1	0
513.383	1	5
513.553	1	3
513.724	1	13
513.894	1	17
514.064	1	19
514.234	1	17
514.404	1	6
514.575	1	21
514.745	1	5
514.915	1	18
515.085	1	9
515.255	1	6
515.425	1	5
515.596	1	10
515.766	1	14
515.936	1	18
516.106	1	13
516.276	1	9
516.447	1	13
516.617	1	5
516.787	1	-3
516.957	1	17
517.127	1	15
517.297	1	18
517.468	1	16
517.638	1	13
517.808	1	17
517.978	1	11
518.148	1	8
518.319	1	8
518.489	1	18
518.659	1	8
518.829	1	11
518.999	1	10
519.169	1	18
519.340	1	16
519.510	1	5
519.680	1	2
519.850	1	7
520.020	1	4
520.190	1	11
520.361	1	10
520.531	1	15
520.701	1	25
520.871	1	13
521.041	1	7
521.211	1	21
521.382	1	16
521.552	1	15
521.722	1	5
521.892	1	7
522.062	1	15
522.232	1	8
522.402	1	-1
522.573	1	16
522.743	1	21
522.913	1	8
523.083	1	12
523.253	1	16
523.423	1	13
523.593	1	1
523.764	1	21
523.934	1	13
524.104	1	15
524.274	1	2
524.444	1	20
524.614	1	15
524.784	1	16
524.955	1	14
525.125	1	19
525.295	1	13
525.465	1	16
525.635	1	19
525.805	1	10
525.975	1	8
526.146	1	14
526.316	1	6
526.486	1	11
526.656	1	27
526.826	1	8
526.996	1	26
527.166	1	16
527.337	1	14
527.507	1	0
527.677	1	19
527.847	1	6
528.017	1	1
528.187	1	9
528.357	1	18
528.527	1	21
528.698	1	6
528.868	1	9
529.038	1	10
529.208	1	10
529.378	1	15
529.548	1	11
529.718	1	17
529.888	1	15
530.058	1	16
530.229	1	5
530.399	1	20
530.569	1	15
530.739	1	16
530.909	1	7
531.079	1	14
531.249	1	13
531.419	1	26
531.589	1	-1
531.760	1	17
531.930	1	14
532.100	1	15
532.270	1	23
532.440	1	7
532.610	1	21
532.780	1	12
532.950	1	14
533.120	1	2
533.290	1	15
533.461	1	23
533.631	1	9
533.801	1	19
533.971	1	14
534.141	1	20
534.311	1	7
534.481	1	8
534.651	1	14
534.821	1	20
534.991	1	8
535.162	1	14
535.332	1	10
535.502	1	26
535.672	1	8
535.842	1	19
536.012	1	19
536.182	1	9
536.352	1	13
536.522	1	15
536.692	1	12
536.862	1	15
537.032	1	18
537.203	1	19
537.373	1	13
537.543	1	14
537.713	1	17
537.883	1	18
538.053	1	12
538.223	1	20
538.393	1	23
538.563	1	9
538.733	1	7
538.903	1	14
539.073	1	19
539.243	1	15
539.413	1	21
539.584	1	15
539.754	1	6
539.924	1	11
540.094	1	16
540.264	1	14
540.434	1	0
540.604	1	16
540.774	1	14
540.944	1	7
541.114	1	0
541.284	1	22
541.454	1	11
541.624	1	12
541.794	1	2
541.964	1	20
542.134	1	14
542.305	1	6
542.475	1	18
542.645	1	2
542.815	1	12
542.985	1	12
543.155	1	15
543.325	1	10
543.495	1	9
543.665	1	13
543.835	1	11
544.005	1	16
544.175	1	12
544.345	1	3
544.515	1	16
544.685	1	10
544.855	1	18
545.025	1	9
545.195	1	16
545.365	1	17
545.535	1	10
545.705	1	6
545.875	1	2
546.045	1	23
546.216	1	14
546.386	1	13
546.556	1	0
546.726	1	12
546.896	1	13
547.066	1	11
547.236	1	8
547.406	1	15
547.576	1	16
547.746	1	14
547.916	1	20
548.086	1	19
548.256	1	9
548.426	1	5
548.596	1	16
548.766	1	13
548.936	1	13
549.106	1	16
549.276	1	16
549.446	1	14
549.616	1	23
549.786	1	15
549.956	1	17
550.126	1	13
550.296	1	6
550.466	1	9
550.636	1	16
550.806	1	17
550.976	1	14
551.146	1	11
551.316	1	12
551.486	1	10
551.656	1	12
551.826	1	20
551.996	1	18
552.166	1	4
552.336	1	18
552.506	1	4
552.676	1	5
552.846	1	12
553.016	1	16
553.186	1	13
553.356	1	8
553.526	1	18
553.696	1	22
553.866	1	19
554.036	1	9
554.206	1	5
554.376	1	2
554.546	1	5
554.716	1	3
554.886	1	9
555.056	1	1
555.226	1	4
555.396	1	5
555.566	1	25
555.736	1	12
555.906	1	20
556.076	1	14
556.246	1	5
556.416	1	14
556.586	1	14
556.756	1	20
556.926	1	14
557.096	1	10
557.266	1	13
557.436	1	16
557.606	1	6
557.776	1	10
557.946	1	17
558.116	1	8
558.286	1	11
558.456	1	1
558.626	1	8
558.796	1	2
558.966	1	8
559.136	1	8
559.306	1	11
559.476	1	7
559.646	1	8
559.816	1	8
559.986	1	4
560.155	1	8
560.325	1	8
560.495	1	5
560.665	1	15
560.835	1	20
561.005	1	19
561.175	1	-6
561.345	1	11
561.515	1	1
561.685	1	0
561.855	1	16
562.025	1	8
562.195	1	12
562.365	1	9
562.535	1	6
562.705	1	18
562.875	1	4
563.045	1	17
563.215	1	9
563.385	1	-1
563.555	1	9
563.725	1	9
563.895	1	4
564.064	1	33
564.234	1	18
564.404	1	10
564.574	1	4
564.744	1	10
564.914	1	0
565.084	1	-3
565.254	1	11
565.424	1	7
565.594	1	7
565.764	1	15
565.934	1	4
566.104	1	13
566.274	1	9
566.444	1	16
566.614	1	0
566.783	1	10
566.953	1	13
567.123	1	18
567.293	1	12
567.463	1	5
567.633	1	10
567.803	1	2
567.973	1	3
568.143	1	-3
568.313	1	4
568.483	1	0
568.653	1	8
568.823	1	13
568.993	1	7
569.162	1	12
569.332	1	16
569.502	1	3
569.672	1	-3
569.842	1	3
570.012	1	13
570.182	1	0
570.352	1	13
570.522	1	11
570.692	1	11
570.862	1	2
571.031	1	3
571.201	1	7
571.371	1	9
571.541	1	1
571.711	1	18
571.881	1	11
572.051	1	14
572.221	1	17
572.391	1	11
572.561	1	3
572.731	1	-2
572.900	1	18
573.070	1	12
573.240	1	-2
573.410	1	18
573.580	1	12
573.750	1	13
573.920	1	2
574.090	1	10
574.260	1	12
574.430	1	-6
574.599	1	1
574.769	1	4
574.939	1	3
575.109	1	10
575.279	1	14
575.449	1	10
575.619	1	10
575.789	1	14
575.959	1	3
576.128	1	5
576.298	1	0
576.468	1	-3
576.638	1	8
576.808	1	-3
576.978	1	10
577.148	1	12
577.318	1	10
577.487	1	15
577.657	1	-5
577.827	1	17
577.997	1	4
578.167	1	10
578.337	1	3
578.507	1	2
578.677	1	-2
578.846	1	7
579.016	1	16
579.186	1	5
579.356	1	11
579.526	1	2
579.696	1	7
579.866	1	19
580.036	1	-4
580.205	1	16
580.375	1	3
580.545	1	1
580.715	1	8
580.885	1	-3
581.055	1	9
581.225	1	-4
581.394	1	3
581.564	1	9
581.734	1	11
581.904	1	7
582.074	1	2
582.244	1	8
582.414	1	9
582.583	1	6
582.753	1	4
582.923	1	9
583.093	1	-2
583.263	1	-3
583.433	1	6
583.603	1	16
583.772	1	2
583.942	1	0
584.112	1	17
584.282	1	14
584.452	1	-1
584.622	1	13
584.791	1	5
584.961	1	5
585.131	1	4
585.301	1	15
585.471	1	7
585.641	1	13
585.811	1	-1
585.980	1	-4
586.150	1	5
586.320	1	1
586.490	1	6
586.660	1	18
586.830	1	-3
586.999	1	8
587.169	1	0
587.339	1	3
587.509	1	6
587.679	1	4
587.849	1	5
588.018	1	2
588.188	1	9
588.358	1	8
588.528	1	2
588.698	1	3
588.867	1	14
589.037	1	8
589.207	1	2
589.377	1	9
589.547	1	5
589.717	1	5
589.886	1	2
590.056	1	6
590.226	1	6
590.396	1	1
590.566	1	5
590.735	1	20
590.905	1	0
591.075	1	2
591.245	1	-5
591.415	1	-1
591.585	1	-2
591.754	1	8
591.924	1	1
592.094	1	10
592.264	1	4
592.434	1	7
592.603	1	-7
592.773	1	-3
592.943	1	10
593.113	1	-4
593.283	1	8
593.452	1	-10
593.622	1	2
593.792	1	4
593.962	1	8
594.132	1	0
594.301	1	22
594.471	1	6
594.641	1	1
594.811	1	6
594.981	1	2
595.150	1	8
595.320	1	8
595.490	1	4
595.660	1	-6
595.829	1	2
595.999	1	10
596.169	1	0
596.339	1	9
596.509	1	6
596.678	1	4
596.848	1	7
597.018	1	6
597.188	1	11
597.358	1	10
597.527	1	0
597.697	1	-2
597.867	1	12
598.037	1	7
598.206	1	-2
598.376	1	11
598.546	1	2
598.716	1	0
598.885	1	-2
599.055	1	11
599.225	1	3
599.395	1	5
599.565	1	2
599.734	1	7
599.904	1	0
600.074	1	0
600.244	1	12
600.413	1	11
600.583	1	7
600.753	1	11
600.923	1	19
601.092	1	-7
601.262	1	6
601.432	1	-1
601.602	1	16
601.771	1	11
601.941	1	11
602.111	1	1
602.281	1	0
602.451	1	-2
602.620	1	9
602.790	1	9
602.960	1	3
603.130	1	15
603.299	1	2
603.469	1	5
603.639	1	11
603.809	1	14
603.978	1	0
604.148	1	8
604.318	1	10
604.487	1	3
604.657	1	12
604.827	1	0
604.997	1	1
605.166	1	11
605.336	1	0
605.506	1	12
605.676	1	-6
605.845	1	0
606.015	1	-4
606.185	1	0
606.355	1	14
606.524	1	-3
606.694	1	17
606.864	1	4
607.034	1	-10
607.203	1	12
607.373	1	7
607.543	1	6
607.712	1	20
607.882	1	-8
608.052	1	6
608.222	1	5
608.391	1	2
608.561	1	9
608.731	1	-3
608.901	1	12
609.070	1	6
609.240	1	7
609.410	1	0
609.579	1	18
609.749	1	7
609.919	1	-5
610.089	1	-4
610.258	1	21
610.428	1	-5
610.598	1	6
610.767	1	7
610.937	1	-1
611.107	1	17
611.277	1	5
611.446	1	-1
611.616	1	0
611.786	1	20
611.955	1	6
612.125	1	3
612.295	1	-6
612.465	1	-13
612.634	1	12
612.804	1	18
612.974	1	8
613.143	1	6
613.313	1	12
613.483	1	9
613.652	1	-4
613.822	1	3
613.992	1	9
614.162	1	8
614.331	1	12
614.501	1	6
614.671	1	4
614.840	1	12
615.010	1	0
615.180	1	9
615.349	1	8
615.519	1	9
615.689	1	6
615.858	1	10
616.028	1	7
616.198	1	8
616.368	1	7
616.537	1	0
616.707	1	7
616.877	1	0
617.046	1	8
617.216	1	10
617.386	1	-2
617.555	1	5
617.725	1	0
617.895	1	3
618.064	1	4
618.234	1	3
618.404	1	6
618.573	1	9
618.743	1	15
618.913	1	-4
619.082	1	17
619.252	1	7
619.422	1	-1
619.591	1	0
619.761	1	5
619.931	1	4
620.100	1	8
620.270	1	5
620.440	1	14
620.609	1	8
620.779	1	-2
620.949	1	9
621.118	1	5
621.288	1	11
621.458	1	11
621.627	1	4
621.797	1	10
621.967	1	0
622.136	1	13
622.306	1	7
622.476	1	3
622.645	1	3
622.815	1	6
622.985	1	5
623.154	1	3
623.324	1	9
623.494	1	14
623.663	1	-4
623.833	1	6
624.002	1	0
624.172	1	12
624.342	1	-9
624.511	1	5
624.681	1	-1
624.851	1	-8
625.020	1	9
625.190	1	-2
625.360	1	-5
625.529	1	14
625.699	1	-4
625.869	1	5
626.038	1	5
626.208	1	-9
626.377	1	22
626.547	1	7
626.717	1	0
626.886	1	-3
627.056	1	-2
627.226	1	0
627.395	1	12
627.565	1	7
627.735	1	8
627.904	1	4
628.074	1	15
628.243	1	-2
628.413	1	-1
628.583	1	8
628.752	1	11
628.922	1	3
629.091	1	2
629.261	1	12
629.431	1	-3
629.600	1	9
629.770	1	1
629.940	1	0
630.109	1	2
630.279	1	-1
630.448	1	1
630.618	1	6
630.788	1	7
630.957	1	-4
631.127	1	16
631.297	1	-2
631.466	1	7
631.636	1	-3
631.805	1	11
631.975	1	7
632.145	1	-12
632.314	1	9
632.484	1	10
632.653	1	-4
632.823	1	3
632.993	1	14
633.162	1	5
633.332	1	9
633.501	1	10
633.671	1	4
633.841	1	5
634.010	1	3
634.180	1	1
634.349	1	10
634.519	1	4
634.689	1	10
634.858	1	11
635.028	1	5
635.197	1	0
635.367	1	4
635.537	1	11
635.706	1	-7
635.876	1	3
636.045	1	7
636.215	1	-1
636.384	1	12
636.554	1	18
636.724	1	3
636.893	1	-3
637.063	1	4
637.232	1	3
637.402	1	7
637.572	1	0
637.741	1	19
637.911	1	7
638.080	1	2
638.250	1	16
638.419	1	11
638.589	1	16
638.759	1	10
638.928	1	-1
639.098	1	8
639.267	1	6
639.437	1	-5
639.606	1	12
639.776	1	3
639.946	1	9
640.115	1	6
640.285	1	8
640.454	1	20
640.624	1	13
640.793	1	13
640.963	1	3
641.132	1	14
641.302	1	5
641.472	1	-5
641.641	1	1
641.811	1	3
641.980	1	-5
642.150	1	13
642.319	1	6
642.489	1	-2
642.659	1	-8
642.828	1	9
642.998	1	-2
643.167	1	5
643.337	1	7
643.506	1	-3
643.676	1	0
643.845	1	-3
644.015	1	2
644.184	1	5
644.354	1	5
644.524	1	7
644.693	1	8
644.863	1	-2
645.032	1	0
645.202	1	4
645.371	1	-2
645.541	1	-2
645.710	1	-2
645.880	1	3
646.049	1	10
646.219	1	9
646.388	1	8
646.558	1	-2
646.728	1	9
646.897	1	8
647.067	1	1
647.236	1	12
647.406	1	-7
647.575	1	0
647.745	1	11
647.914	1	0
648.084	1	2
648.253	1	2
648.423	1	-4
648.592	1	1
648.762	1	1
648.931	1	11
649.101	1	2
649.270	1	13
649.440	1	4
649.610	1	12
649.779	1	-2
649.949	1	-2
650.118	1	5
650.288	1	-7
650.457	1	-3
650.627	1	-1
650.796	1	3
650.966	1	-1
651.135	1	2
651.305	1	1
651.474	1	4
651.644	1	-2
651.813	1	4
651.983	1	0
652.152	1	0
652.322	1	5
652.491	1	4
652.661	1	9
652.830	1	-2
653.000	1	6
653.169	1	2
653.339	1	12
653.508	1	-3
653.678	1	-1
653.847	1	3
654.017	1	5
654.186	1	2
654.356	1	8
654.525	1	3
654.695	1	14
654.864	1	13
655.034	1	1
655.203	1	11
655.373	1	6
655.542	1	-6
655.712	1	1
655.881	1	7
656.051	1	4
656.220	1	9
656.390	1	-3
656.559	1	0
656.729	1	2
656.898	1	10
657.068	1	6
657.237	1	7
657.406	1	11
657.576	1	-5
657.745	1	9
657.915	1	10
658.084	1	5
658.254	1	8
658.423	1	0
658.593	1	2
658.762	1	-7
658.932	1	-1
659.101	1	2
659.271	1	6
659.440	1	15
659.610	1	7
659.779	1	4
659.949	1	-6
660.118	1	3
660.288	1	6
660.457	1	0
660.626	1	3
660.796	1	10
660.965	1	6
661.135	1	5
661.304	1	0
661.474	1	3
661.643	1	8
661.813	1	3
661.982	1	4
662.152	1	-6
662.321	1	7
662.491	1	1
662.660	1	8
662.829	1	-1
662.999	1	-7
663.168	1	-4
663.338	1	-2
663.507	1	-5
663.677	1	-12
663.846	1	16
664.016	1	1
664.185	1	0
664.354	1	4
664.524	1	-2
664.693	1	0
664.863	1	3
665.032	1	12
665.202	1	-3
665.371	1	17
665.541	1	5
665.710	1	5
665.879	1	5
666.049	1	1
666.218	1	-2
666.388	1	1
666.557	1	3
666.727	1	-8
666.896	1	2
667.065	1	10
667.235	1	2
667.404	1	-1
667.574	1	13
667.743	1	1
667.913	1	8
668.082	1	3
668.251	1	4
668.421	1	-1
668.590	1	4
668.760	1	9
668.929	1	0
669.099	1	1
669.268	1	16
669.437	1	12
669.607	1	-4
669.776	1	-1
669.946	1	9
670.115	1	2
670.285	1	1
670.454	1	10
670.623	1	-1
670.793	1	-11
670.962	1	2
671.132	1	14
671.301	1	3
671.470	1	-4
671.640	1	-10
671.809	1	2
671.979	1	11
672.148	1	6
672.317	1	10
672.487	1	-6
672.656	1	7
672.826	1	-11
672.995	1	1
673.164	1	9
673.334	1	3
673.503	1	0
673.673	1	12
673.842	1	1
674.011	1	9
674.181	1	-2
674.350	1	1
674.520	1	-2
674.689	1	0
674.858	1	3
675.028	1	8
675.197	1	3
675.367	1	4
675.536	1	11
675.705	1	-4
675.875	1	-3
676.044	1	2
676.214	1	3
676.383	1	-3
676.552	1	1
676.722	1	11
676.891	1	-9
677.060	1	2
677.230	1	15
677.399	1	5
677.569	1	-6
677.738	1	0
677.907	1	-9
678.077	1	12
678.246	1	-4
678.416	1	3
678.585	1	15
678.754	1	8
678.924	1	11
679.093	1	2
679.262	1	6
679.432	1	-11
679.601	1	-10
679.771	1	3
679.940	1	7
680.109	1	8
680.279	1	-8
680.448	1	4
680.617	1	0
680.787	1	11
680.956	1	-2
681.125	1	10
681.295	1	8
681.464	1	-3
681.634	1	10
681.803	1	0
681.972	1	-10
682.142	1	19
682.311	1	-6
682.480	1	-6
682.650	1	-3
682.819	1	1
682.988	1	-2
683.158	1	-3
683.327	1	10
683.496	1	-5
683.666	1	4
683.835	1	7
684.004	1	5
684.174	1	5
684.343	1	-1
684.512	1	-1
684.682	1	8
684.851	1	12
685.021	1	9
685.190	1	13
685.359	1	-4
685.529	1	1
685.698	1	-10
685.867	1	1
686.037	1	2
686.206	1	5
686.375	1	9
686.545	1	5
686.714	1	10
686.883	1	-3
687.053	1	8
687.222	1	-1
687.391	1	14
687.561	1	5
687.730	1	1
687.899	1	5
688.069	1	-7
688.238	1	8
688.407	1	16
688.577	1	-3
688.746	1	3
