340.368	1	8
340.539	1	-5
340.710	1	2
340.881	1	3
341.052	1	3
341.223	1	10
341.394	1	-6
341.565	1	-3
341.737	1	6
341.908	1	1
342.079	1	1
342.250	1	7
342.421	1	4
342.592	1	-8
342.763	1	5
342.934	1	17
343.105	1	14
343.276	1	-4
343.447	1	10
343.618	1	1
343.789	1	1
343.960	1	-4
344.131	1	3
344.302	1	-4
344.473	1	11
344.644	1	0
344.815	1	6
344.986	1	-1
345.157	1	10
345.328	1	0
345.499	1	6
345.670	1	17
345.841	1	1
346.012	1	13
346.183	1	0
346.354	1	4
346.526	1	10
346.697	1	-4
346.868	1	6
347.039	1	-2
347.210	1	4
347.381	1	6
347.552	1	7
347.723	1	12
347.894	1	-3
348.065	1	8
348.236	1	7
348.407	1	1
348.578	1	6
348.749	1	5
348.920	1	11
349.091	1	0
349.262	1	-5
349.433	1	2
349.604	1	9
349.775	1	5
349.946	1	6
350.117	1	8
350.288	1	11
350.459	1	15
350.630	1	-4
350.801	1	8
350.972	1	-4
351.143	1	-2
351.314	1	1
351.485	1	-1
351.656	1	-2
351.827	1	3
351.998	1	5
352.169	1	12
352.340	1	-1
352.511	1	2
352.682	1	2
352.853	1	2
353.024	1	3
353.195	1	7
353.366	1	3
353.537	1	3
353.708	1	7
353.879	1	13
354.050	1	12
354.221	1	3
354.392	1	13
354.563	1	14
354.734	1	4
354.905	1	15
355.076	1	8
355.247	1	1
355.418	1	5
355.589	1	7
355.760	1	13
355.931	1	9
356.102	1	0
356.273	1	0
356.444	1	14
356.615	1	6
356.785	1	11
356.956	1	12
357.127	1	11
357.298	1	6
357.469	1	-1
357.640	1	2
357.811	1	11
357.982	1	-1
358.153	1	-1
358.324	1	-4
358.495	1	10
358.666	1	2
358.837	1	4
359.008	1	4
359.179	1	11
359.350	1	-1
359.521	1	6
359.692	1	12
359.863	1	1
360.034	1	0
360.205	1	8
360.376	1	14
360.547	1	10
360.718	1	-2
360.889	1	17
361.060	1	10
361.231	1	9
361.401	1	21
361.572	1	6
361.743	1	17
361.914	1	5
362.085	1	11
362.256	1	6
362.427	1	3
362.598	1	8
362.769	1	11
362.940	1	5
363.111	1	23
363.282	1	10
363.453	1	9
363.624	1	10
363.795	1	15
363.966	1	12
364.137	1	7
364.308	1	1
364.478	1	10
364.649	1	9
364.820	1	13
364.991	1	19
365.162	1	7
365.333	1	19
365.504	1	7
365.675	1	17
365.846	1	7
366.017	1	23
366.188	1	10
366.359	1	11
366.530	1	23
366.701	1	-1
366.871	1	27
367.042	1	24
367.213	1	16
367.384	1	23
367.555	1	14
367.726	1	30
367.897	1	16
368.068	1	6
368.239	1	17
368.410	1	12
368.581	1	19
368.752	1	6
368.923	1	2
369.093	1	19
369.264	1	14
369.435	1	10
369.606	1	16
369.777	1	17
369.948	1	16
370.119	1	19
370.290	1	6
370.461	1	18
370.632	1	5
370.803	1	5
370.973	1	25
371.144	1	13
371.315	1	8
371.486	1	12
371.657	1	6
371.828	1	17
371.999	1	19
372.170	1	19
372.341	1	13
372.512	1	4
372.682	1	-1
372.853	1	12
373.024	1	14
373.195	1	6
373.366	1	14
373.537	1	3
373.708	1	12
373.879	1	16
374.050	1	20
374.220	1	18
374.391	1	15
374.562	1	12
374.733	1	24
374.904	1	10
375.075	1	13
375.246	1	13
375.417	1	1
375.588	1	8
375.758	1	2
375.929	1	16
376.100	1	14
376.271	1	4
376.442	1	10
376.613	1	8
376.784	1	9
376.955	1	0
377.125	1	12
377.296	1	7
377.467	1	10
377.638	1	4
377.809	1	17
377.980	1	10
378.151	1	10
378.321	1	10
378.492	1	11
378.663	1	0
378.834	1	12
379.005	1	10
379.176	1	4
379.347	1	11
379.518	1	3
379.688	1	5
379.859	1	-3
380.030	1	4
380.201	1	1
380.372	1	2
380.543	1	8
380.714	1	12
380.884	1	3
381.055	1	10
381.226	1	2
381.397	1	3
381.568	1	7
381.739	1	16
381.910	1	2
382.080	1	3
382.251	1	15
382.422	1	20
382.593	1	12
382.764	1	17
382.935	1	16
383.105	1	6
383.276	1	9
383.447	1	14
383.618	1	12
383.789	1	18
383.960	1	6
384.130	1	4
384.301	1	10
384.472	1	4
384.643	1	19
384.814	1	15
384.985	1	19
385.156	1	26
385.326	1	23
385.497	1	24
385.668	1	15
385.839	1	28
386.010	1	20
386.180	1	15
386.351	1	17
386.522	1	19
386.693	1	23
386.864	1	19
387.035	1	20
387.205	1	5
387.376	1	34
387.547	1	16
387.718	1	38
387.889	1	29
388.060	1	8
388.230	1	15
388.401	1	39
388.572	1	14
388.743	1	24
388.914	1	23
389.084	1	21
389.255	1	21
389.426	1	19
389.597	1	6
389.768	1	22
389.939	1	24
390.109	1	13
390.280	1	29
390.451	1	30
390.622	1	11
390.793	1	14
390.963	1	8
391.134	1	12
391.305	1	26
391.476	1	20
391.647	1	22
391.817	1	19
391.988	1	12
392.159	1	24
392.330	1	25
392.501	1	24
392.671	1	26
392.842	1	24
393.013	1	26
393.184	1	19
393.355	1	22
393.525	1	21
393.696	1	25
393.867	1	7
394.038	1	10
394.208	1	23
394.379	1	4
394.550	1	22
394.721	1	16
394.892	1	31
395.062	1	4
395.233	1	18
395.404	1	16
395.575	1	15
395.746	1	0
395.916	1	12
396.087	1	17
396.258	1	10
396.429	1	19
396.599	1	16
396.770	1	16
396.941	1	28
397.112	1	14
397.283	1	18
397.453	1	11
397.624	1	15
397.795	1	14
397.966	1	21
398.136	1	16
398.307	1	23
398.478	1	18
398.649	1	23
398.819	1	16
398.990	1	22
399.161	1	19
399.332	1	25
399.503	1	22
399.673	1	28
399.844	1	21
400.015	1	18
400.186	1	16
400.356	1	16
400.527	1	16
400.698	1	17
400.869	1	26
401.039	1	15
401.210	1	13
401.381	1	20
401.552	1	26
401.722	1	14
401.893	1	17
402.064	1	15
402.235	1	29
402.405	1	11
402.576	1	14
402.747	1	10
402.918	1	9
403.088	1	15
403.259	1	9
403.430	1	6
403.601	1	6
403.771	1	17
403.942	1	17
404.113	1	20
404.284	1	12
404.454	1	20
404.625	1	16
404.796	1	12
404.967	1	9
405.137	1	23
405.308	1	9
405.479	1	11
405.649	1	11
405.820	1	10
405.991	1	19
406.162	1	8
406.332	1	3
406.503	1	11
406.674	1	10
406.845	1	16
407.015	1	5
407.186	1	21
407.357	1	23
407.527	1	9
407.698	1	10
407.869	1	15
408.040	1	6
408.210	1	14
408.381	1	12
408.552	1	21
408.722	1	13
408.893	1	17
409.064	1	19
409.235	1	5
409.405	1	15
409.576	1	12
409.747	1	7
409.917	1	16
410.088	1	17
410.259	1	7
410.430	1	15
410.600	1	15
410.771	1	14
410.942	1	22
411.112	1	15
411.283	1	8
411.454	1	12
411.625	1	13
411.795	1	11
411.966	1	14
412.137	1	22
412.307	1	15
412.478	1	15
412.649	1	14
412.819	1	2
412.990	1	15
413.161	1	7
413.332	1	13
413.502	1	15
413.673	1	20
413.844	1	11
414.014	1	13
414.185	1	14
414.356	1	3
414.526	1	17
414.697	1	17
414.868	1	19
415.038	1	7
415.209	1	3
415.380	1	6
415.550	1	6
415.721	1	18
415.892	1	0
416.063	1	14
416.233	1	9
416.404	1	9
416.575	1	7
416.745	1	9
416.916	1	2
417.087	1	7
417.257	1	13
417.428	1	10
417.599	1	15
417.769	1	15
417.940	1	6
418.111	1	15
418.281	1	4
418.452	1	12
418.623	1	4
418.793	1	8
418.964	1	12
419.135	1	17
419.305	1	6
419.476	1	4
419.647	1	10
419.817	1	16
419.988	1	6
420.159	1	-3
420.329	1	9
420.500	1	15
420.671	1	11
420.841	1	23
421.012	1	11
421.183	1	18
421.353	1	18
421.524	1	12
421.695	1	5
421.865	1	13
422.036	1	-3
422.206	1	5
422.377	1	17
422.548	1	4
422.718	1	6
422.889	1	16
423.060	1	4
423.230	1	10
423.401	1	10
423.572	1	5
423.742	1	14
423.913	1	18
424.084	1	21
424.254	1	5
424.425	1	10
424.595	1	5
424.766	1	13
424.937	1	3
425.107	1	15
425.278	1	0
425.449	1	2
425.619	1	5
425.790	1	6
425.961	1	11
426.131	1	13
426.302	1	2
426.472	1	8
426.643	1	6
426.814	1	19
426.984	1	9
427.155	1	14
427.326	1	10
427.496	1	16
427.667	1	7
427.837	1	8
428.008	1	17
428.179	1	1
428.349	1	2
428.520	1	0
428.691	1	18
428.861	1	7
429.032	1	3
429.202	1	14
429.373	1	-1
429.544	1	9
429.714	1	16
429.885	1	16
430.055	1	9
430.226	1	4
430.397	1	5
430.567	1	12
430.738	1	-3
430.909	1	-5
431.079	1	12
431.250	1	4
431.420	1	16
431.591	1	12
431.762	1	7
431.932	1	7
432.103	1	8
432.273	1	1
432.444	1	13
432.615	1	6
432.785	1	5
432.956	1	4
433.126	1	10
433.297	1	16
433.468	1	13
433.638	1	4
433.809	1	10
433.979	1	4
434.150	1	11
434.320	1	6
434.491	1	8
434.662	1	6
434.832	1	0
435.003	1	8
435.173	1	8
435.344	1	15
435.515	1	6
435.685	1	9
435.856	1	1
436.026	1	5
436.197	1	5
436.368	1	1
436.538	1	14
436.709	1	2
436.879	1	3
437.050	1	8
437.220	1	12
437.391	1	16
437.562	1	20
437.732	1	1
437.903	1	5
438.073	1	16
438.244	1	-3
438.414	1	10
438.585	1	14
438.756	1	11
438.926	1	4
439.097	1	11
439.267	1	10
439.438	1	7
439.608	1	9
439.779	1	6
439.949	1	-7
440.120	1	6
440.291	1	5
440.461	1	-1
440.632	1	14
440.802	1	13
440.973	1	8
441.143	1	11
441.314	1	12
441.485	1	1
441.655	1	23
441.826	1	4
441.996	1	1
442.167	1	7
442.337	1	3
442.508	1	11
442.678	1	-14
442.849	1	9
443.019	1	7
443.190	1	-3
443.361	1	13
443.531	1	6
443.702	1	6
443.872	1	1
444.043	1	7
444.213	1	3
444.384	1	13
444.554	1	4
444.725	1	3
444.895	1	0
445.066	1	-5
445.237	1	1
445.407	1	6
445.578	1	17
445.748	1	-1
445.919	1	5
446.089	1	15
446.260	1	17
446.430	1	-5
446.601	1	2
446.771	1	-2
446.942	1	1
447.112	1	7
447.283	1	0
447.453	1	4
447.624	1	7
447.794	1	5
447.965	1	0
448.135	1	6
448.306	1	6
448.477	1	5
448.647	1	22
448.818	1	17
448.988	1	-5
449.159	1	-1
449.329	1	4
449.500	1	20
449.670	1	4
449.841	1	2
450.011	1	10
450.182	1	9
450.352	1	12
450.523	1	4
450.693	1	5
450.864	1	6
451.034	1	8
451.205	1	4
451.375	1	12
451.546	1	3
451.716	1	18
451.887	1	0
452.057	1	15
452.228	1	-3
452.398	1	9
452.569	1	5
452.739	1	6
452.910	1	3
453.080	1	20
453.251	1	3
453.421	1	2
453.592	1	5
453.762	1	11
453.933	1	16
454.103	1	5
454.274	1	6
454.444	1	17
454.615	1	6
454.785	1	1
454.956	1	4
455.126	1	1
455.297	1	14
455.467	1	8
455.638	1	1
455.808	1	5
455.979	1	7
456.149	1	-2
456.320	1	2
456.490	1	10
456.661	1	8
456.831	1	25
457.001	1	5
457.172	1	4
457.342	1	12
457.513	1	9
457.683	1	4
457.854	1	3
458.024	1	8
458.195	1	1
458.365	1	6
458.536	1	4
458.706	1	2
458.877	1	13
459.047	1	-6
459.218	1	4
459.388	1	10
459.559	1	9
459.729	1	8
459.899	1	17
460.070	1	9
460.240	1	7
460.411	1	7
460.581	1	13
460.752	1	0
460.922	1	-2
461.093	1	9
461.263	1	8
461.434	1	6
461.604	1	2
461.775	1	13
461.945	1	7
462.115	1	4
462.286	1	18
462.456	1	-13
462.627	1	4
462.797	1	-1
462.968	1	1
463.138	1	15
463.309	1	10
463.479	1	20
463.649	1	11
463.820	1	3
463.990	1	5
464.161	1	9
464.331	1	7
464.502	1	1
464.672	1	-4
464.843	1	5
465.013	1	0
465.183	1	4
465.354	1	8
465.524	1	7
465.695	1	20
465.865	1	-3
466.036	1	4
466.206	1	6
466.376	1	-6
466.547	1	9
466.717	1	-6
466.888	1	5
467.058	1	14
467.229	1	10
467.399	1	8
467.569	1	7
467.740	1	5
467.910	1	-1
468.081	1	6
468.251	1	1
468.422	1	3
468.592	1	11
468.762	1	2
468.933	1	5
469.103	1	4
469.274	1	4
469.444	1	-3
469.614	1	-2
469.785	1	8
469.955	1	4
470.126	1	8
470.296	1	6
470.467	1	-3
470.637	1	11
470.807	1	12
470.978	1	-5
471.148	1	-2
471.319	1	11
471.489	1	1
471.659	1	16
471.830	1	15
472.000	1	9
472.171	1	4
472.341	1	14
472.511	1	24
472.682	1	8
472.852	1	7
473.023	1	0
473.193	1	3
473.363	1	0
473.534	1	0
473.704	1	10
473.875	1	0
474.045	1	-3
474.215	1	3
474.386	1	9
474.556	1	5
474.727	1	3
474.897	1	11
475.067	1	1
475.238	1	-1
475.408	1	13
475.578	1	3
475.749	1	-7
475.919	1	4
476.090	1	4
476.260	1	2
476.430	1	3
476.601	1	0
476.771	1	13
476.942	1	0
477.112	1	3
477.282	1	-5
477.453	1	0
477.623	1	2
477.793	1	10
477.964	1	3
478.134	1	11
478.305	1	11
478.475	1	-2
478.645	1	-2
478.816	1	-2
478.986	1	5
479.156	1	8
479.327	1	11
479.497	1	9
479.667	1	6
479.838	1	4
480.008	1	8
480.179	1	3
480.349	1	9
480.519	1	12
480.690	1	2
480.860	1	-4
481.030	1	-2
481.201	1	6
481.371	1	5
481.541	1	6
481.712	1	1
481.882	1	10
482.053	1	7
482.223	1	-3
482.393	1	-9
482.564	1	-11
482.734	1	14
482.904	1	-1
483.075	1	14
483.245	1	2
483.415	1	7
483.586	1	-11
483.756	1	4
483.926	1	15
484.097	1	-1
484.267	1	-2
484.437	1	-4
484.608	1	16
484.778	1	-1
484.948	1	-4
485.119	1	12
485.289	1	8
485.459	1	8
485.630	1	-3
485.800	1	1
485.970	1	9
486.141	1	-8
486.311	1	4
486.481	1	4
486.652	1	14
486.822	1	3
486.992	1	7
487.163	1	-1
487.333	1	5
487.503	1	1
487.674	1	1
487.844	1	9
488.014	1	5
488.185	1	1
488.355	1	-6
488.525	1	1
488.696	1	-5
488.866	1	10
489.036	1	7
489.207	1	20
489.377	1	11
489.547	1	0
489.718	1	-1
489.888	1	9
490.058	1	5
490.228	1	-3
490.399	1	11
490.569	1	11
490.739	1	17
490.910	1	0
491.080	1	9
491.250	1	0
491.421	1	-1
491.591	1	-6
491.761	1	1
491.932	1	9
492.102	1	3
492.272	1	10
492.442	1	7
492.613	1	0
492.783	1	-2
492.953	1	7
493.124	1	-2
493.294	1	17
493.464	1	5
493.635	1	1
493.805	1	17
493.975	1	12
494.145	1	4
494.316	1	11
494.486	1	8
494.656	1	10
494.827	1	-2
494.997	1	3
495.167	1	4
495.337	1	12
495.508	1	-2
495.678	1	15
495.848	1	10
496.019	1	7
496.189	1	-2
496.359	1	8
496.529	1	-7
496.700	1	5
496.870	1	8
497.040	1	-2
497.211	1	16
497.381	1	-7
497.551	1	13
497.721	1	-2
497.892	1	16
498.062	1	0
498.232	1	-1
498.403	1	6
498.573	1	-2
498.743	1	13
498.913	1	6
499.084	1	0
499.254	1	8
499.424	1	21
499.594	1	4
499.765	1	5
499.935	1	-5
500.105	1	8
500.275	1	14
500.446	1	16
500.616	1	9
500.786	1	5
500.956	1	8
501.127	1	16
501.297	1	12
501.467	1	5
501.638	1	15
501.808	1	-2
501.978	1	18
502.148	1	7
502.319	1	10
502.489	1	8
502.659	1	4
502.829	1	12
503.000	1	10
503.170	1	6
503.340	1	4
503.510	1	12
503.681	1	2
503.851	1	-8
504.021	1	22
504.191	1	16
504.362	1	18
504.532	1	0
504.702	1	7
504.872	1	6
505.042	1	11
505.213	1	7
505.383	1	10
505.553	1	7
505.723	1	10
505.894	1	7
506.064	1	21
506.234	1	14
506.404	1	19
506.575	1	7
506.745	1	2
506.915	1	9
507.085	1	-3
507.256	1	5
507.426	1	13
507.596	1	10
507.766	1	7
507.936	1	12
508.107	1	11
508.277	1	9
508.447	1	14
508.617	1	10
508.788	1	11
508.958	1	19
509.128	1	13
509.298	1	14
509.468	1	19
509.639	1	10
509.809	1	15
509.979	1	5
510.149	1	7
510.319	1	2
510.490	1	19
510.660	1	20
510.830	1	11
511.000	1	15
511.171	1	11
511.341	1	5
511.511	1	10
511.681	1	9
511.851	1	0
512.022	1	10
512.192	1	17
512.362	1	11
512.532	1	4
512.702	1	6
512.873	1	17
513.043	1	6
513.213	1	5
513.383	1	1
513.553	1	-1
513.724	1	23
513.894	1	7
514.064	1	16
514.234	1	14
514.404	1	14
514.575	1	22
514.745	1	11
514.915	1	5
515.085	1	12
515.255	1	6
515.425	1	2
515.596	1	7
515.766	1	14
515.936	1	17
516.106	1	16
516.276	1	19
516.447	1	6
516.617	1	15
516.787	1	11
516.957	1	20
517.127	1	10
517.297	1	9
517.468	1	10
517.638	1	12
517.808	1	9
517.978	1	3
518.148	1	11
518.319	1	13
518.489	1	10
518.659	1	19
518.829	1	1
518.999	1	10
519.169	1	20
519.340	1	9
519.510	1	6
519.680	1	7
519.850	1	5
520.020	1	10
520.190	1	14
520.361	1	3
520.531	1	10
520.701	1	16
520.871	1	2
521.041	1	11
521.211	1	13
521.382	1	11
521.552	1	20
521.722	1	20
521.892	1	-1
522.062	1	16
522.232	1	7
522.402	1	4
522.573	1	11
522.743	1	21
522.913	1	11
523.083	1	6
523.253	1	6
523.423	1	5
523.593	1	3
523.764	1	20
523.934	1	16
524.104	1	3
524.274	1	4
524.444	1	11
524.614	1	15
524.784	1	15
524.955	1	14
525.125	1	8
525.295	1	5
525.465	1	12
525.635	1	22
525.805	1	14
525.975	1	10
526.146	1	14
526.316	1	8
526.486	1	12
526.656	1	27
526.826	1	21
526.996	1	23
527.166	1	18
527.337	1	19
527.507	1	15
527.677	1	28
527.847	1	8
528.017	1	10
528.187	1	13
528.357	1	14
528.527	1	20
528.698	1	-1
528.868	1	14
529.038	1	20
529.208	1	12
529.378	1	8
529.548	1	6
529.718	1	12
529.888	1	23
530.058	1	12
530.229	1	14
530.399	1	20
530.569	1	23
530.739	1	12
530.909	1	14
531.079	1	16
531.249	1	10
531.419	1	17
531.589	1	4
531.760	1	22
531.930	1	22
532.100	1	16
532.270	1	24
532.440	1	10
532.610	1	20
532.780	1	9
532.950	1	9
533.120	1	8
533.290	1	1
533.461	1	27
533.631	1	4
533.801	1	8
533.971	1	15
534.141	1	16
534.311	1	14
534.481	1	14
534.651	1	21
534.821	1	16
534.991	1	11
535.162	1	16
535.332	1	14
535.502	1	13
535.672	1	8
535.842	1	16
536.012	1	15
536.182	1	7
536.352	1	14
536.522	1	22
536.692	1	6
536.862	1	18
537.032	1	18
537.203	1	15
537.373	1	4
537.543	1	11
537.713	1	23
537.883	1	22
538.053	1	20
538.223	1	21
538.393	1	17
538.563	1	11
538.733	1	13
538.903	1	15
539.073	1	10
539.243	1	19
539.413	1	10
539.584	1	18
539.754	1	7
539.924	1	3
540.094	1	9
540.264	1	11
540.434	1	5
540.604	1	21
540.774	1	15
540.944	1	17
541.114	1	4
541.284	1	7
541.454	1	8
541.624	1	9
541.794	1	11
541.964	1	10
542.134	1	17
542.305	1	8
542.475	1	9
542.645	1	7
542.815	1	11
542.985	1	4
543.155	1	11
543.325	1	12
543.495	1	5
543.665	1	13
543.835	1	10
544.005	1	13
544.175	1	19
544.345	1	5
544.515	1	6
544.685	1	23
544.855	1	18
545.025	1	8
545.195	1	22
545.365	1	13
545.535	1	15
545.705	1	14
545.875	1	10
546.045	1	15
546.216	1	22
546.386	1	7
546.556	1	7
546.726	1	16
546.896	1	13
547.066	1	-1
547.236	1	1
547.406	1	17
547.576	1	6
547.746	1	18
547.916	1	20
548.086	1	10
548.256	1	6
548.426	1	8
548.596	1	15
548.766	1	10
548.936	1	8
549.106	1	16
549.276	1	19
549.446	1	8
549.616	1	17
549.786	1	10
549.956	1	16
550.126	1	10
550.296	1	10
550.466	1	3
550.636	1	10
550.806	1	22
550.976	1	7
551.146	1	7
551.316	1	3
551.486	1	5
551.656	1	-2
551.826	1	18
551.996	1	16
552.166	1	11
552.336	1	12
552.506	1	3
552.676	1	5
552.846	1	11
553.016	1	5
553.186	1	8
553.356	1	5
553.526	1	5
553.696	1	14
553.866	1	19
554.036	1	15
554.206	1	12
554.376	1	5
554.546	1	5
554.716	1	8
554.886	1	19
555.056	1	-2
555.226	1	4
555.396	1	6
555.566	1	16
555.736	1	11
555.906	1	17
556.076	1	11
556.246	1	16
556.416	1	11
556.586	1	19
556.756	1	24
556.926	1	10
557.096	1	10
557.266	1	18
557.436	1	13
557.606	1	4
557.776	1	9
557.946	1	17
558.116	1	15
558.286	1	17
558.456	1	7
558.626	1	7
558.796	1	6
558.966	1	4
559.136	1	15
559.306	1	3
559.476	1	4
559.646	1	5
559.816	1	15
559.986	1	5
560.155	1	8
560.325	1	3
560.495	1	12
560.665	1	8
560.835	1	13
561.005	1	10
561.175	1	-3
561.345	1	4
561.515	1	-2
561.685	1	5
561.855	1	12
562.025	1	8
562.195	1	11
562.365	1	9
562.535	1	10
562.705	1	14
562.875	1	11
563.045	1	17
563.215	1	11
563.385	1	1
563.555	1	18
563.725	1	13
563.895	1	12
564.064	1	20
564.234	1	1
564.404	1	6
564.574	1	1
564.744	1	6
564.914	1	-9
565.084	1	2
565.254	1	13
565.424	1	10
565.594	1	-2
565.764	1	4
565.934	1	4
566.104	1	6
566.274	1	11
566.444	1	17
566.614	1	-2
566.783	1	13
566.953	1	6
567.123	1	24
567.293	1	8
567.463	1	17
567.633	1	12
567.803	1	2
567.973	1	8
568.143	1	-3
568.313	1	-3
568.483	1	4
568.653	1	4
568.823	1	17
568.993	1	8
569.162	1	16
569.332	1	5
569.502	1	6
569.672	1	11
569.842	1	5
570.012	1	7
570.182	1	1
570.352	1	13
570.522	1	12
570.692	1	12
570.862	1	4
571.031	1	9
571.201	1	5
571.371	1	-6
571.541	1	0
571.711	1	24
571.881	1	8
572.051	1	4
572.221	1	6
572.391	1	9
572.561	1	-7
572.731	1	7
572.900	1	23
573.070	1	5
573.240	1	1
573.410	1	5
573.580	1	13
573.750	1	14
573.920	1	1
574.090	1	15
574.260	1	8
574.430	1	4
574.599	1	0
574.769	1	-3
574.939	1	15
575.109	1	4
575.279	1	0
575.449	1	4
575.619	1	8
575.789	1	17
575.959	1	2
576.128	1	11
576.298	1	-1
576.468	1	4
576.638	1	2
576.808	1	-1
576.978	1	10
577.148	1	18
577.318	1	10
577.487	1	4
577.657	1	-16
577.827	1	15
577.997	1	1
578.167	1	9
578.337	1	3
578.507	1	-2
578.677	1	9
578.846	1	7
579.016	1	21
579.186	1	12
579.356	1	-2
579.526	1	1
579.696	1	4
579.866	1	7
580.036	1	-1
580.205	1	4
580.375	1	6
580.545	1	1
580.715	1	14
580.885	1	3
581.055	1	12
581.225	1	-11
581.394	1	7
581.564	1	2
581.734	1	11
581.904	1	5
582.074	1	4
582.244	1	7
582.414	1	3
582.583	1	-2
582.753	1	3
582.923	1	8
583.093	1	4
583.263	1	3
583.433	1	3
583.603	1	9
583.772	1	-1
583.942	1	12
584.112	1	8
584.282	1	14
584.452	1	4
584.622	1	6
584.791	1	0
584.961	1	5
585.131	1	-2
585.301	1	6
585.471	1	4
585.641	1	6
585.811	1	-5
585.980	1	1
586.150	1	12
586.320	1	-4
586.490	1	2
586.660	1	16
586.830	1	1
586.999	1	8
587.169	1	3
587.339	1	0
587.509	1	7
587.679	1	13
587.849	1	10
588.018	1	3
588.188	1	3
588.358	1	7
588.528	1	16
588.698	1	5
588.867	1	3
589.037	1	12
589.207	1	-7
589.377	1	9
589.547	1	3
589.717	1	5
589.886	1	3
590.056	1	10
590.226	1	15
590.396	1	2
590.566	1	1
590.735	1	20
590.905	1	7
591.075	1	-4
591.245	1	0
591.415	1	7
591.585	1	1
591.754	1	3
591.924	1	-3
592.094	1	15
592.264	1	11
592.434	1	2
592.603	1	5
592.773	1	-1
592.943	1	-1
593.113	1	-6
593.283	1	10
593.452	1	-7
593.622	1	6
593.792	1	8
593.962	1	14
594.132	1	8
594.301	1	15
594.471	1	8
594.641	1	0
594.811	1	1
594.981	1	1
595.150	1	-4
595.320	1	8
595.490	1	-8
595.660	1	0
595.829	1	7
595.999	1	1
596.169	1	5
596.339	1	13
596.509	1	9
596.678	1	3
596.848	1	6
597.018	1	6
597.188	1	7
597.358	1	-3
597.527	1	4
597.697	1	1
597.867	1	5
598.037	1	1
598.206	1	3
598.376	1	19
598.546	1	5
598.716	1	-12
598.885	1	2
599.055	1	6
599.225	1	-1
599.395	1	13
599.565	1	8
599.734	1	0
599.904	1	-7
600.074	1	1
600.244	1	15
600.413	1	7
600.583	1	1
600.753	1	11
600.923	1	17
601.092	1	-8
601.262	1	11
601.432	1	7
601.602	1	13
601.771	1	8
601.941	1	7
602.111	1	-13
602.281	1	7
602.451	1	-1
602.620	1	7
602.790	1	4
602.960	1	-3
603.130	1	4
603.299	1	0
603.469	1	6
603.639	1	14
603.809	1	7
603.978	1	4
604.148	1	11
604.318	1	12
604.487	1	10
604.657	1	6
604.827	1	-2
604.997	1	-5
605.166	1	2
605.336	1	4
605.506	1	14
605.676	1	-8
605.845	1	3
606.015	1	9
606.185	1	-1
606.355	1	12
606.524	1	-3
606.694	1	11
606.864	1	8
607.034	1	-10
607.203	1	12
607.373	1	4
607.543	1	-1
607.712	1	13
607.882	1	-2
608.052	1	8
608.222	1	2
608.391	1	5
608.561	1	13
608.731	1	-2
608.901	1	1
609.070	1	-5
609.240	1	6
609.410	1	3
609.579	1	9
609.749	1	9
609.919	1	4
610.089	1	3
610.258	1	10
610.428	1	3
610.598	1	1
610.767	1	-1
610.937	1	0
611.107	1	6
611.277	1	10
611.446	1	7
611.616	1	-9
611.786	1	10
611.955	1	6
612.125	1	6
612.295	1	9
612.465	1	0
612.634	1	7
612.804	1	6
612.974	1	9
613.143	1	1
613.313	1	7
613.483	1	12
613.652	1	2
613.822	1	4
613.992	1	13
614.162	1	2
614.331	1	4
614.501	1	6
614.671	1	3
614.840	1	16
615.010	1	8
615.180	1	0
615.349	1	6
615.519	1	5
615.689	1	1
615.858	1	7
616.028	1	-7
616.198	1	7
616.368	1	5
616.537	1	-1
616.707	1	6
616.877	1	9
617.046	1	6
617.216	1	-4
617.386	1	4
617.555	1	-1
617.725	1	0
617.895	1	8
618.064	1	9
618.234	1	7
618.404	1	10
618.573	1	7
618.743	1	3
618.913	1	-1
619.082	1	0
619.252	1	5
619.422	1	4
619.591	1	5
619.761	1	16
619.931	1	10
620.100	1	12
620.270	1	-5
620.440	1	7
620.609	1	11
620.779	1	-7
620.949	1	10
621.118	1	0
621.288	1	7
621.458	1	13
621.627	1	2
621.797	1	4
621.967	1	-4
622.136	1	3
622.306	1	11
622.476	1	3
622.645	1	4
622.815	1	9
622.985	1	3
623.154	1	2
623.324	1	17
623.494	1	14
623.663	1	11
623.833	1	3
624.002	1	2
624.172	1	17
624.342	1	0
624.511	1	1
624.681	1	-11
624.851	1	-5
625.020	1	-2
625.190	1	3
625.360	1	4
625.529	1	11
625.699	1	4
625.869	1	10
626.038	1	5
626.208	1	-2
626.377	1	22
626.547	1	10
626.717	1	8
626.886	1	-8
627.056	1	6
627.226	1	10
627.395	1	3
627.565	1	13
627.735	1	9
627.904	1	2
628.074	1	7
628.243	1	-7
628.413	1	-3
628.583	1	-1
628.752	1	11
628.922	1	-4
629.091	1	7
629.261	1	11
629.431	1	-14
629.600	1	2
629.770	1	10
629.940	1	-5
630.109	1	-1
630.279	1	-4
630.448	1	6
630.618	1	3
630.788	1	6
630.957	1	2
631.127	1	18
631.297	1	-1
631.466	1	15
631.636	1	5
631.805	1	6
631.975	1	11
632.145	1	-5
632.314	1	22
632.484	1	-2
632.653	1	0
632.823	1	7
632.993	1	9
633.162	1	0
633.332	1	8
633.501	1	9
633.671	1	4
633.841	1	13
634.010	1	2
634.180	1	12
634.349	1	8
634.519	1	6
634.689	1	15
634.858	1	9
635.028	1	-2
635.197	1	0
635.367	1	-5
635.537	1	-5
635.706	1	-6
635.876	1	0
636.045	1	4
636.215	1	6
636.384	1	11
636.554	1	12
636.724	1	3
636.893	1	7
637.063	1	11
637.232	1	1
637.402	1	12
637.572	1	-1
637.741	1	18
637.911	1	9
638.080	1	9
638.250	1	2
638.419	1	11
638.589	1	21
638.759	1	1
638.928	1	3
639.098	1	-3
639.267	1	5
639.437	1	4
639.606	1	12
639.776	1	4
639.946	1	9
640.115	1	-2
640.285	1	1
640.454	1	16
640.624	1	12
640.793	1	10
640.963	1	0
641.132	1	9
641.302	1	10
641.472	1	2
641.641	1	3
641.811	1	5
641.980	1	4
642.150	1	-1
642.319	1	3
642.489	1	0
642.659	1	-2
642.828	1	12
642.998	1	4
643.167	1	19
643.337	1	9
643.506	1	6
643.676	1	-1
643.845	1	-3
644.015	1	7
644.184	1	13
644.354	1	3
644.524	1	-2
644.693	1	7
644.863	1	2
645.032	1	9
645.202	1	6
645.371	1	5
645.541	1	-9
645.710	1	5
645.880	1	-2
646.049	1	9
646.219	1	6
646.388	1	5
646.558	1	6
646.728	1	7
646.897	1	-2
647.067	1	3
647.236	1	4
647.406	1	-1
647.575	1	7
647.745	1	4
647.914	1	3
648.084	1	5
648.253	1	14
648.423	1	1
648.592	1	4
648.762	1	9
648.931	1	9
649.101	1	4
649.270	1	6
649.440	1	16
649.610	1	19
649.779	1	-3
649.949	1	2
650.118	1	1
650.288	1	-3
650.457	1	0
650.627	1	6
650.796	1	-1
650.966	1	5
651.135	1	7
651.305	1	-10
651.474	1	0
651.644	1	1
651.813	1	10
651.983	1	5
652.152	1	12
652.322	1	11
652.491	1	13
652.661	1	6
652.830	1	1
653.000	1	5
653.169	1	2
653.339	1	4
653.508	1	4
653.678	1	4
653.847	1	7
654.017	1	3
654.186	1	2
654.356	1	13
654.525	1	12
654.695	1	10
654.864	1	11
655.034	1	-1
655.203	1	11
655.373	1	-1
655.542	1	-1
655.712	1	-7
655.881	1	4
656.051	1	13
656.220	1	10
656.390	1	3
656.559	1	-6
656.729	1	4
656.898	1	9
657.068	1	-3
657.237	1	1
657.406	1	8
657.576	1	0
657.745	1	-5
657.915	1	8
658.084	1	10
658.254	1	5
658.423	1	3
658.593	1	-5
658.762	1	2
658.932	1	10
659.101	1	-2
659.271	1	4
659.440	1	19
659.610	1	-1
659.779	1	12
659.949	1	-5
660.118	1	6
660.288	1	4
660.457	1	-11
660.626	1	9
660.796	1	-1
660.965	1	-3
661.135	1	-1
661.304	1	7
661.474	1	7
661.643	1	7
661.813	1	8
661.982	1	0
662.152	1	2
662.321	1	2
662.491	1	2
662.660	1	10
662.829	1	-5
662.999	1	6
663.168	1	2
663.338	1	2
663.507	1	9
663.677	1	-7
663.846	1	10
664.016	1	1
664.185	1	3
664.354	1	7
664.524	1	-6
664.693	1	2
664.863	1	15
665.032	1	7
665.202	1	-4
665.371	1	-3
665.541	1	6
665.710	1	1
665.879	1	-1
666.049	1	-4
666.218	1	-5
666.388	1	-5
666.557	1	-3
666.727	1	-10
666.896	1	-4
667.065	1	11
667.235	1	2
667.404	1	-5
667.574	1	5
667.743	1	-7
667.913	1	8
668.082	1	3
668.251	1	2
668.421	1	-3
668.590	1	5
668.760	1	5
668.929	1	2
669.099	1	0
669.268	1	5
669.437	1	13
669.607	1	-2
669.776	1	-1
669.946	1	16
670.115	1	5
670.285	1	13
670.454	1	-1
670.623	1	11
670.793	1	1
670.962	1	0
671.132	1	5
671.301	1	1
671.470	1	9
671.640	1	-14
671.809	1	-4
671.979	1	20
672.148	1	2
672.317	1	-3
672.487	1	3
672.656	1	1
672.826	1	-15
672.995	1	9
673.164	1	4
673.334	1	6
673.503	1	0
673.673	1	13
673.842	1	6
674.011	1	3
674.181	1	-3
674.350	1	5
674.520	1	1
674.689	1	-1
674.858	1	4
675.028	1	6
675.197	1	-3
675.367	1	11
675.536	1	13
675.705	1	-7
675.875	1	3
676.044	1	6
676.214	1	1
676.383	1	-5
676.552	1	2
676.722	1	-2
676.891	1	-6
677.060	1	5
677.230	1	7
677.399	1	-6
677.569	1	-3
677.738	1	-5
677.907	1	-9
678.077	1	6
678.246	1	-2
678.416	1	4
678.585	1	13
678.754	1	-1
678.924	1	-1
679.093	1	6
679.262	1	0
679.432	1	-8
679.601	1	-3
679.771	1	-7
679.940	1	2
680.109	1	10
680.279	1	-7
680.448	1	16
680.617	1	2
680.787	1	6
680.956	1	-2
681.125	1	14
681.295	1	6
681.464	1	0
681.634	1	10
681.803	1	-16
681.972	1	-3
682.142	1	18
682.311	1	11
682.480	1	5
682.650	1	4
682.819	1	-3
682.988	1	3
683.158	1	1
683.327	1	2
683.496	1	4
683.666	1	6
683.835	1	5
684.004	1	7
684.174	1	10
684.343	1	1
684.512	1	0
684.682	1	13
684.851	1	5
685.021	1	2
685.190	1	9
685.359	1	1
685.529	1	6
685.698	1	5
685.867	1	5
686.037	1	3
686.206	1	3
686.375	1	1
686.545	1	17
686.714	1	-6
686.883	1	-6
687.053	1	-7
687.222	1	3
687.391	1	-2
687.561	1	4
687.730	1	-1
687.899	1	10
688.069	1	-2
688.238	1	5
688.407	1	17
688.577	1	-3
688.746	1	9
