340.368	1	-3
340.539	1	-5
340.710	1	-9
340.881	1	9
341.052	1	-4
341.223	1	17
341.394	1	4
341.565	1	0
341.737	1	6
341.908	1	5
342.079	1	3
342.250	1	6
342.421	1	0
342.592	1	-10
342.763	1	3
342.934	1	-1
343.105	1	12
343.276	1	-2
343.447	1	8
343.618	1	5
343.789	1	2
343.960	1	-1
344.131	1	2
344.302	1	8
344.473	1	5
344.644	1	-2
344.815	1	-6
344.986	1	7
345.157	1	15
345.328	1	0
345.499	1	2
345.670	1	10
345.841	1	-6
346.012	1	11
346.183	1	1
346.354	1	-1
346.526	1	4
346.697	1	-2
346.868	1	9
347.039	1	6
347.210	1	-4
347.381	1	6
347.552	1	-1
347.723	1	4
347.894	1	6
348.065	1	-2
348.236	1	3
348.407	1	7
348.578	1	9
348.749	1	6
348.920	1	15
349.091	1	8
349.262	1	-6
349.433	1	1
349.604	1	10
349.775	1	5
349.946	1	11
350.117	1	16
350.288	1	1
350.459	1	8
350.630	1	-4
350.801	1	3
350.972	1	2
351.143	1	3
351.314	1	-4
351.485	1	-5
351.656	1	6
351.827	1	2
351.998	1	-4
352.169	1	9
352.340	1	1
352.511	1	1
352.682	1	6
352.853	1	-3
353.024	1	3
353.195	1	-7
353.366	1	5
353.537	1	3
353.708	1	8
353.879	1	3
354.050	1	7
354.221	1	-7
354.392	1	10
354.563	1	17
354.734	1	2
354.905	1	2
355.076	1	-1
355.247	1	-8
355.418	1	-5
355.589	1	-1
355.760	1	-4
355.931	1	8
356.102	1	2
356.273	1	7
356.444	1	6
356.615	1	5
356.785	1	14
356.956	1	-3
357.127	1	8
357.298	1	14
357.469	1	-2
357.640	1	9
357.811	1	16
357.982	1	-14
358.153	1	6
358.324	1	5
358.495	1	3
358.666	1	2
358.837	1	1
359.008	1	7
359.179	1	8
359.350	1	-3
359.521	1	6
359.692	1	14
359.863	1	-1
360.034	1	-5
360.205	1	0
360.376	1	4
360.547	1	4
360.718	1	-3
360.889	1	12
361.060	1	19
361.231	1	0
361.401	1	8
361.572	1	14
361.743	1	-1
361.914	1	0
362.085	1	2
362.256	1	4
362.427	1	8
362.598	1	2
362.769	1	11
362.940	1	6
363.111	1	18
363.282	1	7
363.453	1	4
363.624	1	-3
363.795	1	9
363.966	1	13
364.137	1	3
364.308	1	5
364.478	1	13
364.649	1	1
364.820	1	15
364.991	1	10
365.162	1	1
365.333	1	12
365.504	1	1
365.675	1	4
365.846	1	1
366.017	1	7
366.188	1	-5
366.359	1	11
366.530	1	18
366.701	1	-4
366.871	1	16
367.042	1	12
367.213	1	12
367.384	1	13
367.555	1	6
367.726	1	19
367.897	1	19
368.068	1	13
368.239	1	14
368.410	1	16
368.581	1	9
368.752	1	1
368.923	1	1
369.093	1	9
369.264	1	10
369.435	1	5
369.606	1	8
369.777	1	9
369.948	1	12
370.119	1	14
370.290	1	-3
370.461	1	13
370.632	1	11
370.803	1	-6
370.973	1	16
371.144	1	16
371.315	1	2
371.486	1	18
371.657	1	15
371.828	1	15
371.999	1	7
372.170	1	9
372.341	1	15
372.512	1	-7
372.682	1	-1
372.853	1	9
373.024	1	6
373.195	1	-3
373.366	1	6
373.537	1	8
373.708	1	6
373.879	1	13
374.050	1	6
374.220	1	4
374.391	1	1
374.562	1	3
374.733	1	17
374.904	1	19
375.075	1	18
375.246	1	-3
375.417	1	6
375.588	1	8
375.758	1	1
375.929	1	8
376.100	1	9
376.271	1	1
376.442	1	5
376.613	1	10
376.784	1	13
376.955	1	4
377.125	1	5
377.296	1	10
377.467	1	10
377.638	1	-8
377.809	1	11
377.980	1	8
378.151	1	-2
378.321	1	6
378.492	1	6
378.663	1	-5
378.834	1	7
379.005	1	16
379.176	1	2
379.347	1	4
379.518	1	-9
379.688	1	10
379.859	1	7
380.030	1	8
380.201	1	-13
380.372	1	8
380.543	1	9
380.714	1	8
380.884	1	1
381.055	1	5
381.226	1	-1
381.397	1	-3
381.568	1	1
381.739	1	16
381.910	1	17
382.080	1	-2
382.251	1	10
382.422	1	12
382.593	1	10
382.764	1	4
382.935	1	11
383.105	1	12
383.276	1	1
383.447	1	22
383.618	1	17
383.789	1	11
383.960	1	9
384.130	1	-3
384.301	1	7
384.472	1	-3
384.643	1	12
384.814	1	13
384.985	1	14
385.156	1	23
385.326	1	21
385.497	1	16
385.668	1	9
385.839	1	16
386.010	1	16
386.180	1	19
386.351	1	-1
386.522	1	16
386.693	1	17
386.864	1	5
387.035	1	6
387.205	1	8
387.376	1	22
387.547	1	5
387.718	1	14
387.889	1	21
388.060	1	6
388.230	1	-2
388.401	1	23
388.572	1	23
388.743	1	8
388.914	1	21
389.084	1	14
389.255	1	16
389.426	1	20
389.597	1	10
389.768	1	4
389.939	1	15
390.109	1	8
390.280	1	27
390.451	1	19
390.622	1	0
390.793	1	8
390.963	1	19
391.134	1	17
391.305	1	18
391.476	1	8
391.647	1	10
391.817	1	10
391.988	1	9
392.159	1	14
392.330	1	13
392.501	1	13
392.671	1	4
392.842	1	2
393.013	1	17
393.184	1	11
393.355	1	21
393.525	1	14
393.696	1	10
393.867	1	11
394.038	1	-3
394.208	1	12
394.379	1	3
394.550	1	7
394.721	1	12
394.892	1	11
395.062	1	0
395.233	1	15
395.404	1	21
395.575	1	5
395.746	1	2
395.916	1	15
396.087	1	8
396.258	1	0
396.429	1	10
396.599	1	26
396.770	1	16
396.941	1	29
397.112	1	9
397.283	1	10
397.453	1	-1
397.624	1	12
397.795	1	22
397.966	1	18
398.136	1	8
398.307	1	9
398.478	1	12
398.649	1	19
398.819	1	15
398.990	1	12
399.161	1	15
399.332	1	19
399.503	1	16
399.673	1	12
399.844	1	13
400.015	1	8
400.186	1	15
400.356	1	5
400.527	1	13
400.698	1	1
400.869	1	22
401.039	1	-2
401.210	1	4
401.381	1	22
401.552	1	17
401.722	1	22
401.893	1	14
402.064	1	12
402.235	1	18
402.405	1	4
402.576	1	17
402.747	1	10
402.918	1	3
403.088	1	8
403.259	1	7
403.430	1	7
403.601	1	6
403.771	1	15
403.942	1	17
404.113	1	16
404.284	1	6
404.454	1	15
404.625	1	8
404.796	1	10
404.967	1	9
405.137	1	11
405.308	1	7
405.479	1	15
405.649	1	12
405.820	1	12
405.991	1	16
406.162	1	7
406.332	1	3
406.503	1	6
406.674	1	7
406.845	1	7
407.015	1	1
407.186	1	25
407.357	1	9
407.527	1	1
407.698	1	0
407.869	1	5
408.040	1	6
408.210	1	6
408.381	1	5
408.552	1	14
408.722	1	4
408.893	1	8
409.064	1	9
409.235	1	4
409.405	1	6
409.576	1	17
409.747	1	0
409.917	1	17
410.088	1	8
410.259	1	10
410.430	1	6
410.600	1	11
410.771	1	11
410.942	1	20
411.112	1	16
411.283	1	-2
411.454	1	18
411.625	1	7
411.795	1	15
411.966	1	7
412.137	1	14
412.307	1	8
412.478	1	11
412.649	1	13
412.819	1	7
412.990	1	16
413.161	1	0
413.332	1	5
413.502	1	-2
413.673	1	17
413.844	1	0
414.014	1	1
414.185	1	7
414.356	1	-4
414.526	1	13
414.697	1	10
414.868	1	19
415.038	1	3
415.209	1	-5
415.380	1	5
415.550	1	2
415.721	1	10
415.892	1	-7
416.063	1	23
416.233	1	9
416.404	1	7
416.575	1	4
416.745	1	2
416.916	1	7
417.087	1	2
417.257	1	2
417.428	1	10
417.599	1	15
417.769	1	17
417.940	1	-6
418.111	1	14
418.281	1	8
418.452	1	3
418.623	1	1
418.793	1	17
418.964	1	12
419.135	1	13
419.305	1	5
419.476	1	8
419.647	1	2
419.817	1	10
419.988	1	6
420.159	1	-2
420.329	1	-1
420.500	1	9
420.671	1	6
420.841	1	9
421.012	1	4
421.183	1	0
421.353	1	9
421.524	1	3
421.695	1	7
421.865	1	-1
422.036	1	9
422.206	1	1
422.377	1	5
422.548	1	17
422.718	1	6
422.889	1	9
423.060	1	2
423.230	1	10
423.401	1	3
423.572	1	12
423.742	1	10
423.913	1	20
424.084	1	4
424.254	1	5
424.425	1	10
424.595	1	3
424.766	1	14
424.937	1	-3
425.107	1	8
425.278	1	1
425.449	1	9
425.619	1	9
425.790	1	-4
425.961	1	5
426.131	1	3
426.302	1	-1
426.472	1	-6
426.643	1	2
426.814	1	15
426.984	1	5
427.155	1	4
427.326	1	1
427.496	1	20
427.667	1	13
427.837	1	1
428.008	1	7
428.179	1	-4
428.349	1	-2
428.520	1	-1
428.691	1	3
428.861	1	-1
429.032	1	4
429.202	1	20
429.373	1	-7
429.544	1	10
429.714	1	4
429.885	1	5
430.055	1	7
430.226	1	-8
430.397	1	4
430.567	1	20
430.738	1	1
430.909	1	-5
431.079	1	6
431.250	1	2
431.420	1	13
431.591	1	12
431.762	1	1
431.932	1	12
432.103	1	5
432.273	1	6
432.444	1	10
432.615	1	4
432.785	1	6
432.956	1	0
433.126	1	9
433.297	1	16
433.468	1	8
433.638	1	5
433.809	1	13
433.979	1	0
434.150	1	4
434.320	1	5
434.491	1	5
434.662	1	-2
434.832	1	0
435.003	1	14
435.173	1	8
435.344	1	8
435.515	1	7
435.685	1	7
435.856	1	-1
436.026	1	1
436.197	1	2
436.368	1	1
436.538	1	6
436.709	1	-1
436.879	1	1
437.050	1	12
437.220	1	11
437.391	1	6
437.562	1	18
437.732	1	13
437.903	1	-1
438.073	1	3
438.244	1	-7
438.414	1	-5
438.585	1	2
438.756	1	14
438.926	1	11
439.097	1	11
439.267	1	8
439.438	1	15
439.608	1	5
439.779	1	-5
439.949	1	4
440.120	1	4
440.291	1	-4
440.461	1	-1
440.632	1	5
440.802	1	17
440.973	1	6
441.143	1	14
441.314	1	15
441.485	1	5
441.655	1	16
441.826	1	-9
441.996	1	0
442.167	1	-2
442.337	1	-6
442.508	1	-3
442.678	1	-8
442.849	1	12
443.019	1	6
443.190	1	2
443.361	1	13
443.531	1	4
443.702	1	-4
443.872	1	-1
444.043	1	5
444.213	1	-3
444.384	1	10
444.554	1	17
444.725	1	8
444.895	1	-3
445.066	1	-1
445.237	1	0
445.407	1	1
445.578	1	7
445.748	1	-5
445.919	1	4
446.089	1	19
446.260	1	6
446.430	1	-4
446.601	1	-3
446.771	1	-3
446.942	1	2
447.112	1	-1
447.283	1	-7
447.453	1	3
447.624	1	7
447.794	1	1
447.965	1	-11
448.135	1	9
448.306	1	-3
448.477	1	-8
448.647	1	19
448.818	1	10
448.988	1	-8
449.159	1	4
449.329	1	9
449.500	1	17
449.670	1	17
449.841	1	2
450.011	1	4
450.182	1	-4
450.352	1	7
450.523	1	0
450.693	1	8
450.864	1	7
451.034	1	9
451.205	1	9
451.375	1	16
451.546	1	6
451.716	1	10
451.887	1	-2
452.057	1	9
452.228	1	-3
452.398	1	-2
452.569	1	-2
452.739	1	12
452.910	1	-1
453.080	1	21
453.251	1	5
453.421	1	4
453.592	1	5
453.762	1	16
453.933	1	10
454.103	1	2
454.274	1	-2
454.444	1	12
454.615	1	16
454.785	1	-4
454.956	1	-3
455.126	1	-3
455.297	1	9
455.467	1	12
455.638	1	-6
455.808	1	5
455.979	1	10
456.149	1	-6
456.320	1	1
456.490	1	5
456.661	1	-3
456.831	1	17
457.001	1	1
457.172	1	-3
457.342	1	9
457.513	1	9
457.683	1	10
457.854	1	4
458.024	1	7
458.195	1	2
458.365	1	4
458.536	1	4
458.706	1	8
458.877	1	7
459.047	1	-10
459.218	1	6
459.388	1	-1
459.559	1	3
459.729	1	9
459.899	1	6
460.070	1	20
460.240	1	1
460.411	1	15
460.581	1	5
460.752	1	0
460.922	1	-1
461.093	1	12
461.263	1	8
461.434	1	4
461.604	1	-1
461.775	1	10
461.945	1	6
462.115	1	-14
462.286	1	12
462.456	1	-7
462.627	1	0
462.797	1	-4
462.968	1	-6
463.138	1	7
463.309	1	1
463.479	1	5
463.649	1	1
463.820	1	6
463.990	1	0
464.161	1	7
464.331	1	7
464.502	1	5
464.672	1	5
464.843	1	11
465.013	1	-3
465.183	1	7
465.354	1	2
465.524	1	14
465.695	1	11
465.865	1	-2
466.036	1	6
466.206	1	9
466.376	1	-2
466.547	1	12
466.717	1	0
466.888	1	9
467.058	1	9
467.229	1	15
467.399	1	0
467.569	1	-3
467.740	1	-1
467.910	1	-2
468.081	1	6
468.251	1	-7
468.422	1	14
468.592	1	9
468.762	1	2
468.933	1	1
469.103	1	-2
469.274	1	4
469.444	1	-5
469.614	1	-11
469.785	1	10
469.955	1	-1
470.126	1	5
470.296	1	9
470.467	1	0
470.637	1	21
470.807	1	-5
470.978	1	2
471.148	1	-4
471.319	1	6
471.489	1	8
471.659	1	11
471.830	1	13
472.000	1	12
472.171	1	9
472.341	1	5
472.511	1	14
472.682	1	0
472.852	1	-3
473.023	1	-2
473.193	1	-5
473.363	1	5
473.534	1	6
473.704	1	3
473.875	1	12
474.045	1	-3
474.215	1	0
474.386	1	12
474.556	1	-8
474.727	1	0
474.897	1	2
475.067	1	8
475.238	1	-5
475.408	1	-7
475.578	1	7
475.749	1	-7
475.919	1	4
476.090	1	8
476.260	1	-4
476.430	1	13
476.601	1	1
476.771	1	-4
476.942	1	-1
477.112	1	5
477.282	1	-4
477.453	1	4
477.623	1	7
477.793	1	15
477.964	1	15
478.134	1	7
478.305	1	2
478.475	1	-5
478.645	1	-5
478.816	1	-6
478.986	1	3
479.156	1	5
479.327	1	-6
479.497	1	3
479.667	1	0
479.838	1	-1
480.008	1	6
480.179	1	4
480.349	1	1
480.519	1	-1
480.690	1	7
480.860	1	7
481.030	1	-5
481.201	1	4
481.371	1	14
481.541	1	5
481.712	1	-3
481.882	1	2
482.053	1	10
482.223	1	-4
482.393	1	-4
482.564	1	-4
482.734	1	5
482.904	1	4
483.075	1	1
483.245	1	6
483.415	1	0
483.586	1	-4
483.756	1	12
483.926	1	6
484.097	1	-4
484.267	1	4
484.437	1	-4
484.608	1	9
484.778	1	5
484.948	1	-3
485.119	1	3
485.289	1	8
485.459	1	11
485.630	1	-8
485.800	1	-2
485.970	1	6
486.141	1	-2
486.311	1	2
486.481	1	7
486.652	1	3
486.822	1	6
486.992	1	4
487.163	1	-10
487.333	1	4
487.503	1	-10
487.674	1	2
487.844	1	2
488.014	1	5
488.185	1	4
488.355	1	-8
488.525	1	-3
488.696	1	-5
488.866	1	11
489.036	1	-3
489.207	1	14
489.377	1	2
489.547	1	-2
489.718	1	2
489.888	1	-5
490.058	1	7
490.228	1	-9
490.399	1	8
490.569	1	7
490.739	1	10
490.910	1	3
491.080	1	9
491.250	1	10
491.421	1	6
491.591	1	-1
491.761	1	10
491.932	1	9
492.102	1	-1
492.272	1	14
492.442	1	2
492.613	1	4
492.783	1	-6
492.953	1	10
493.124	1	12
493.294	1	6
493.464	1	-4
493.635	1	-5
493.805	1	11
493.975	1	-3
494.145	1	12
494.316	1	17
494.486	1	14
494.656	1	7
494.827	1	2
494.997	1	0
495.167	1	6
495.337	1	5
495.508	1	3
495.678	1	17
495.848	1	18
496.019	1	-2
496.189	1	17
496.359	1	10
496.529	1	2
496.700	1	3
496.870	1	1
497.040	1	4
497.211	1	15
497.381	1	-19
497.551	1	17
497.721	1	1
497.892	1	11
498.062	1	7
498.232	1	11
498.403	1	13
498.573	1	3
498.743	1	7
498.913	1	7
499.084	1	-6
499.254	1	3
499.424	1	12
499.594	1	4
499.765	1	9
499.935	1	3
500.105	1	8
500.275	1	17
500.446	1	9
500.616	1	1
500.786	1	2
500.956	1	2
501.127	1	13
501.297	1	2
501.467	1	4
501.638	1	4
501.808	1	-2
501.978	1	9
502.148	1	10
502.319	1	6
502.489	1	6
502.659	1	8
502.829	1	6
503.000	1	19
503.170	1	3
503.340	1	9
503.510	1	8
503.681	1	12
503.851	1	-10
504.021	1	20
504.191	1	8
504.362	1	11
504.532	1	8
504.702	1	6
504.872	1	6
505.042	1	7
505.213	1	11
505.383	1	14
505.553	1	15
505.723	1	7
505.894	1	13
506.064	1	4
506.234	1	11
506.404	1	1
506.575	1	0
506.745	1	3
506.915	1	6
507.085	1	4
507.256	1	-1
507.426	1	9
507.596	1	4
507.766	1	7
507.936	1	4
508.107	1	9
508.277	1	7
508.447	1	7
508.617	1	4
508.788	1	1
508.958	1	19
509.128	1	8
509.298	1	20
509.468	1	7
509.639	1	17
509.809	1	8
509.979	1	0
510.149	1	2
510.319	1	3
510.490	1	14
510.660	1	16
510.830	1	-1
511.000	1	6
511.171	1	13
511.341	1	-10
511.511	1	10
511.681	1	4
511.851	1	-5
512.022	1	5
512.192	1	8
512.362	1	14
512.532	1	0
512.702	1	-2
512.873	1	12
513.043	1	10
513.213	1	3
513.383	1	3
513.553	1	-5
513.724	1	18
513.894	1	3
514.064	1	9
514.234	1	9
514.404	1	6
514.575	1	10
514.745	1	-2
514.915	1	12
515.085	1	10
515.255	1	1
515.425	1	4
515.596	1	5
515.766	1	10
515.936	1	8
516.106	1	4
516.276	1	7
516.447	1	10
516.617	1	7
516.787	1	3
516.957	1	7
517.127	1	8
517.297	1	5
517.468	1	3
517.638	1	9
517.808	1	8
517.978	1	-2
518.148	1	12
518.319	1	5
518.489	1	17
518.659	1	13
518.829	1	5
518.999	1	2
519.169	1	12
519.340	1	3
519.510	1	4
519.680	1	8
519.850	1	2
520.020	1	2
520.190	1	12
520.361	1	5
520.531	1	14
520.701	1	9
520.871	1	1
521.041	1	14
521.211	1	7
521.382	1	2
521.552	1	10
521.722	1	17
521.892	1	-1
522.062	1	1
522.232	1	-11
522.402	1	-4
522.573	1	2
522.743	1	7
522.913	1	24
523.083	1	9
523.253	1	10
523.423	1	13
523.593	1	-3
523.764	1	16
523.934	1	12
524.104	1	0
524.274	1	-1
524.444	1	4
524.614	1	5
524.784	1	10
524.955	1	13
525.125	1	14
525.295	1	6
525.465	1	6
525.635	1	15
525.805	1	-2
525.975	1	1
526.146	1	2
526.316	1	0
526.486	1	12
526.656	1	22
526.826	1	14
526.996	1	21
527.166	1	14
527.337	1	6
527.507	1	-3
527.677	1	19
527.847	1	-2
528.017	1	-1
528.187	1	9
528.357	1	18
528.527	1	13
528.698	1	-2
528.868	1	7
529.038	1	4
529.208	1	5
529.378	1	8
529.548	1	1
529.718	1	4
529.888	1	6
530.058	1	8
530.229	1	11
530.399	1	6
530.569	1	11
530.739	1	2
530.909	1	14
531.079	1	18
531.249	1	12
531.419	1	13
531.589	1	-8
531.760	1	13
531.930	1	8
532.100	1	19
532.270	1	20
532.440	1	7
532.610	1	12
532.780	1	5
532.950	1	11
533.120	1	4
533.290	1	5
533.461	1	16
533.631	1	2
533.801	1	15
533.971	1	10
534.141	1	15
534.311	1	9
534.481	1	12
534.651	1	13
534.821	1	17
534.991	1	8
535.162	1	14
535.332	1	9
535.502	1	9
535.672	1	-2
535.842	1	7
536.012	1	19
536.182	1	7
536.352	1	9
536.522	1	13
536.692	1	7
536.862	1	12
537.032	1	7
537.203	1	11
537.373	1	-8
537.543	1	3
537.713	1	18
537.883	1	8
538.053	1	19
538.223	1	7
538.393	1	17
538.563	1	15
538.733	1	4
538.903	1	10
539.073	1	4
539.243	1	11
539.413	1	2
539.584	1	16
539.754	1	-3
539.924	1	13
540.094	1	11
540.264	1	11
540.434	1	10
540.604	1	22
540.774	1	3
540.944	1	-1
541.114	1	1
541.284	1	1
541.454	1	17
541.624	1	2
541.794	1	8
541.964	1	12
542.134	1	14
542.305	1	-1
542.475	1	0
542.645	1	4
542.815	1	14
542.985	1	0
543.155	1	11
543.325	1	1
543.495	1	17
543.665	1	7
543.835	1	5
544.005	1	9
544.175	1	11
544.345	1	-3
544.515	1	-2
544.685	1	11
544.855	1	12
545.025	1	1
545.195	1	6
545.365	1	10
545.535	1	6
545.705	1	12
545.875	1	-8
546.045	1	8
546.216	1	16
546.386	1	-6
546.556	1	10
546.726	1	6
546.896	1	15
547.066	1	-5
547.236	1	5
547.406	1	18
547.576	1	8
547.746	1	13
547.916	1	13
548.086	1	2
548.256	1	11
548.426	1	-2
548.596	1	11
548.766	1	9
548.936	1	5
549.106	1	10
549.276	1	9
549.446	1	5
549.616	1	9
549.786	1	14
549.956	1	19
550.126	1	9
550.296	1	9
550.466	1	3
550.636	1	11
550.806	1	15
550.976	1	6
551.146	1	3
551.316	1	-2
551.486	1	7
551.656	1	2
551.826	1	14
551.996	1	11
552.166	1	11
552.336	1	8
552.506	1	7
552.676	1	3
552.846	1	6
553.016	1	4
553.186	1	5
553.356	1	6
553.526	1	10
553.696	1	19
553.866	1	7
554.036	1	-7
554.206	1	14
554.376	1	0
554.546	1	-5
554.716	1	0
554.886	1	8
555.056	1	-3
555.226	1	-1
555.396	1	2
555.566	1	15
555.736	1	11
555.906	1	10
556.076	1	13
556.246	1	7
556.416	1	9
556.586	1	8
556.756	1	11
556.926	1	8
557.096	1	13
557.266	1	7
557.436	1	20
557.606	1	-11
557.776	1	9
557.946	1	15
558.116	1	11
558.286	1	19
558.456	1	4
558.626	1	10
558.796	1	5
558.966	1	2
559.136	1	6
559.306	1	-3
559.476	1	1
559.646	1	4
559.816	1	8
559.986	1	-1
560.155	1	5
560.325	1	-3
560.495	1	4
560.665	1	8
560.835	1	-5
561.005	1	5
561.175	1	10
561.345	1	3
561.515	1	3
561.685	1	0
561.855	1	24
562.025	1	-5
562.195	1	4
562.365	1	5
562.535	1	7
562.705	1	13
562.875	1	-1
563.045	1	15
563.215	1	12
563.385	1	-6
563.555	1	13
563.725	1	0
563.895	1	-1
564.064	1	9
564.234	1	8
564.404	1	2
564.574	1	5
564.744	1	14
564.914	1	-5
565.084	1	1
565.254	1	4
565.424	1	11
565.594	1	-3
565.764	1	6
565.934	1	19
566.104	1	-2
566.274	1	7
566.444	1	11
566.614	1	2
566.783	1	9
566.953	1	2
567.123	1	24
567.293	1	7
567.463	1	2
567.633	1	1
567.803	1	-6
567.973	1	-4
568.143	1	5
568.313	1	-5
568.483	1	-5
568.653	1	6
568.823	1	11
568.993	1	18
569.162	1	3
569.332	1	-3
569.502	1	4
569.672	1	0
569.842	1	4
570.012	1	9
570.182	1	-6
570.352	1	12
570.522	1	15
570.692	1	4
570.862	1	8
571.031	1	7
571.201	1	12
571.371	1	-6
571.541	1	-4
571.711	1	12
571.881	1	5
572.051	1	4
572.221	1	2
572.391	1	10
572.561	1	-4
572.731	1	-6
572.900	1	13
573.070	1	5
573.240	1	7
573.410	1	7
573.580	1	7
573.750	1	3
573.920	1	1
574.090	1	5
574.260	1	6
574.430	1	3
574.599	1	1
574.769	1	2
574.939	1	0
575.109	1	10
575.279	1	10
575.449	1	5
575.619	1	6
575.789	1	3
575.959	1	1
576.128	1	1
576.298	1	0
576.468	1	-8
576.638	1	7
576.808	1	9
576.978	1	6
577.148	1	11
577.318	1	5
577.487	1	9
577.657	1	-4
577.827	1	11
577.997	1	-7
578.167	1	9
578.337	1	-4
578.507	1	-1
578.677	1	5
578.846	1	-5
579.016	1	18
579.186	1	6
579.356	1	1
579.526	1	3
579.696	1	5
579.866	1	15
580.036	1	-4
580.205	1	5
580.375	1	2
580.545	1	-2
580.715	1	15
580.885	1	8
581.055	1	13
581.225	1	-7
581.394	1	-2
581.564	1	-6
581.734	1	10
581.904	1	-9
582.074	1	2
582.244	1	8
582.414	1	-1
582.583	1	-4
582.753	1	11
582.923	1	-1
583.093	1	-3
583.263	1	5
583.433	1	-12
583.603	1	6
583.772	1	3
583.942	1	5
584.112	1	4
584.282	1	7
584.452	1	-1
584.622	1	9
584.791	1	3
584.961	1	8
585.131	1	-4
585.301	1	12
585.471	1	-5
585.641	1	12
585.811	1	6
585.980	1	-11
586.150	1	-8
586.320	1	1
586.490	1	-14
586.660	1	13
586.830	1	-2
586.999	1	-1
587.169	1	6
587.339	1	7
587.509	1	-4
587.679	1	8
587.849	1	12
588.018	1	1
588.188	1	4
588.358	1	3
588.528	1	12
588.698	1	-3
588.867	1	6
589.037	1	6
589.207	1	-10
589.377	1	5
589.547	1	5
589.717	1	6
589.886	1	-8
590.056	1	3
590.226	1	6
590.396	1	5
590.566	1	1
590.735	1	15
590.905	1	10
591.075	1	-5
591.245	1	3
591.415	1	2
591.585	1	-10
591.754	1	14
591.924	1	8
592.094	1	10
592.264	1	4
592.434	1	5
592.603	1	0
592.773	1	-2
592.943	1	3
593.113	1	-10
593.283	1	8
593.452	1	-7
593.622	1	-7
593.792	1	5
593.962	1	14
594.132	1	-2
594.301	1	17
594.471	1	9
594.641	1	0
594.811	1	1
594.981	1	7
595.150	1	-5
595.320	1	18
595.490	1	-3
595.660	1	2
595.829	1	10
595.999	1	4
596.169	1	6
596.339	1	7
596.509	1	5
596.678	1	3
596.848	1	14
597.018	1	1
597.188	1	11
597.358	1	-3
597.527	1	-5
597.697	1	-2
597.867	1	8
598.037	1	7
598.206	1	0
598.376	1	3
598.546	1	4
598.716	1	-3
598.885	1	-12
599.055	1	-3
599.225	1	2
599.395	1	6
599.565	1	4
599.734	1	-4
599.904	1	-6
600.074	1	-3
600.244	1	10
600.413	1	4
600.583	1	-3
600.753	1	9
600.923	1	12
601.092	1	-2
601.262	1	3
601.432	1	-1
601.602	1	6
601.771	1	14
601.941	1	0
602.111	1	-7
602.281	1	5
602.451	1	17
602.620	1	6
602.790	1	8
602.960	1	-3
603.130	1	12
603.299	1	6
603.469	1	-2
603.639	1	0
603.809	1	9
603.978	1	8
604.148	1	6
604.318	1	4
604.487	1	4
604.657	1	5
604.827	1	3
604.997	1	6
605.166	1	6
605.336	1	-2
605.506	1	14
605.676	1	-2
605.845	1	8
606.015	1	7
606.185	1	12
606.355	1	0
606.524	1	9
606.694	1	12
606.864	1	-3
607.034	1	-3
607.203	1	15
607.373	1	2
607.543	1	-4
607.712	1	10
607.882	1	1
608.052	1	5
608.222	1	3
608.391	1	3
608.561	1	12
608.731	1	-15
608.901	1	3
609.070	1	4
609.240	1	4
609.410	1	2
609.579	1	-2
609.749	1	-1
609.919	1	-12
610.089	1	-1
610.258	1	16
610.428	1	-2
610.598	1	0
610.767	1	1
610.937	1	3
611.107	1	6
611.277	1	1
611.446	1	-6
611.616	1	-6
611.786	1	15
611.955	1	7
612.125	1	3
612.295	1	9
612.465	1	-1
612.634	1	-1
612.804	1	5
612.974	1	8
613.143	1	5
613.313	1	5
613.483	1	2
613.652	1	-3
613.822	1	0
613.992	1	5
614.162	1	2
614.331	1	4
614.501	1	2
614.671	1	4
614.840	1	6
615.010	1	4
615.180	1	9
615.349	1	6
615.519	1	13
615.689	1	6
615.858	1	9
616.028	1	-1
616.198	1	11
616.368	1	5
616.537	1	-10
616.707	1	4
616.877	1	3
617.046	1	5
617.216	1	-4
617.386	1	0
617.555	1	-2
617.725	1	5
617.895	1	-6
618.064	1	13
618.234	1	-2
618.404	1	-1
618.573	1	6
618.743	1	11
618.913	1	-5
619.082	1	3
619.252	1	2
619.422	1	-2
619.591	1	2
619.761	1	-1
619.931	1	8
620.100	1	16
620.270	1	0
620.440	1	-1
620.609	1	4
620.779	1	0
620.949	1	2
621.118	1	1
621.288	1	6
621.458	1	14
621.627	1	-5
621.797	1	9
621.967	1	11
622.136	1	-2
622.306	1	5
622.476	1	5
622.645	1	3
622.815	1	1
622.985	1	4
623.154	1	1
623.324	1	15
623.494	1	1
623.663	1	7
623.833	1	9
624.002	1	-10
624.172	1	12
624.342	1	-1
624.511	1	11
624.681	1	2
624.851	1	-10
625.020	1	7
625.190	1	6
625.360	1	-4
625.529	1	10
625.699	1	5
625.869	1	6
626.038	1	11
626.208	1	-4
626.377	1	19
626.547	1	-8
626.717	1	-4
626.886	1	-7
627.056	1	-2
627.226	1	9
627.395	1	2
627.565	1	5
627.735	1	8
627.904	1	6
628.074	1	7
628.243	1	-1
628.413	1	7
628.583	1	1
628.752	1	15
628.922	1	2
629.091	1	13
629.261	1	6
629.431	1	-4
629.600	1	2
629.770	1	0
629.940	1	7
630.109	1	-1
630.279	1	-2
630.448	1	1
630.618	1	2
630.788	1	2
630.957	1	-15
631.127	1	14
631.297	1	-8
631.466	1	10
631.636	1	-4
631.805	1	-15
631.975	1	10
632.145	1	-12
632.314	1	12
632.484	1	-4
632.653	1	-12
632.823	1	9
632.993	1	6
633.162	1	-3
633.332	1	0
633.501	1	4
633.671	1	7
633.841	1	6
634.010	1	-6
634.180	1	1
634.349	1	6
634.519	1	1
634.689	1	2
634.858	1	15
635.028	1	4
635.197	1	-6
635.367	1	3
635.537	1	9
635.706	1	-2
635.876	1	9
636.045	1	4
636.215	1	4
636.384	1	3
636.554	1	12
636.724	1	10
636.893	1	4
637.063	1	4
637.232	1	-2
637.402	1	3
637.572	1	-4
637.741	1	7
637.911	1	7
638.080	1	2
638.250	1	1
638.419	1	5
638.589	1	15
638.759	1	4
638.928	1	-9
639.098	1	-1
639.267	1	-3
639.437	1	-5
639.606	1	7
639.776	1	-1
639.946	1	5
640.115	1	-9
640.285	1	6
640.454	1	14
640.624	1	4
640.793	1	2
640.963	1	-1
641.132	1	6
641.302	1	6
641.472	1	0
641.641	1	-2
641.811	1	7
641.980	1	7
642.150	1	-1
642.319	1	6
642.489	1	9
642.659	1	3
642.828	1	0
642.998	1	-1
643.167	1	15
643.337	1	1
643.506	1	1
643.676	1	1
643.845	1	2
644.015	1	4
644.184	1	11
644.354	1	2
644.524	1	4
644.693	1	9
644.863	1	1
645.032	1	-1
645.202	1	9
645.371	1	0
645.541	1	-8
645.710	1	1
645.880	1	-3
646.049	1	10
646.219	1	9
646.388	1	-6
646.558	1	-3
646.728	1	5
646.897	1	-2
647.067	1	1
647.236	1	1
647.406	1	3
647.575	1	-5
647.745	1	-4
647.914	1	2
648.084	1	5
648.253	1	7
648.423	1	-4
648.592	1	2
648.762	1	4
648.931	1	7
649.101	1	5
649.270	1	4
649.440	1	4
649.610	1	7
649.779	1	4
649.949	1	4
650.118	1	-5
650.288	1	6
650.457	1	0
650.627	1	6
650.796	1	3
650.966	1	0
651.135	1	9
651.305	1	0
651.474	1	8
651.644	1	2
651.813	1	6
651.983	1	13
652.152	1	3
652.322	1	8
652.491	1	1
652.661	1	1
652.830	1	7
653.000	1	5
653.169	1	-1
653.339	1	4
653.508	1	-2
653.678	1	4
653.847	1	4
654.017	1	4
654.186	1	5
654.356	1	8
654.525	1	1
654.695	1	6
654.864	1	8
655.034	1	-5
655.203	1	14
655.373	1	-3
655.542	1	-1
655.712	1	5
655.881	1	2
656.051	1	-1
656.220	1	7
656.390	1	4
656.559	1	-4
656.729	1	14
656.898	1	13
657.068	1	8
657.237	1	5
657.406	1	1
657.576	1	-4
657.745	1	2
657.915	1	5
658.084	1	7
658.254	1	9
658.423	1	-2
658.593	1	-5
658.762	1	-1
658.932	1	-3
659.101	1	2
659.271	1	7
659.440	1	10
659.610	1	11
659.779	1	1
659.949	1	1
660.118	1	12
660.288	1	1
660.457	1	-1
660.626	1	-3
660.796	1	0
660.965	1	6
661.135	1	2
661.304	1	2
661.474	1	2
661.643	1	0
661.813	1	-3
661.982	1	7
662.152	1	1
662.321	1	7
662.491	1	2
662.660	1	4
662.829	1	-1
662.999	1	5
663.168	1	-2
663.338	1	-1
663.507	1	6
663.677	1	-6
663.846	1	4
664.016	1	-3
664.185	1	7
664.354	1	8
664.524	1	-5
664.693	1	-5
664.863	1	5
665.032	1	7
665.202	1	-7
665.371	1	2
665.541	1	8
665.710	1	-2
665.879	1	0
666.049	1	4
666.218	1	-11
666.388	1	-7
666.557	1	6
666.727	1	-14
666.896	1	-10
667.065	1	17
667.235	1	6
667.404	1	-7
667.574	1	8
667.743	1	0
667.913	1	3
668.082	1	4
668.251	1	7
668.421	1	8
668.590	1	1
668.760	1	-1
668.929	1	2
669.099	1	4
669.268	1	-2
669.437	1	9
669.607	1	-3
669.776	1	7
669.946	1	12
670.115	1	3
670.285	1	3
670.454	1	8
670.623	1	-2
670.793	1	-6
670.962	1	-2
671.132	1	8
671.301	1	-2
671.470	1	4
671.640	1	-14
671.809	1	-3
671.979	1	12
672.148	1	4
672.317	1	-10
672.487	1	1
672.656	1	7
672.826	1	-15
672.995	1	6
673.164	1	13
673.334	1	4
673.503	1	-4
673.673	1	19
673.842	1	1
674.011	1	8
674.181	1	-2
674.350	1	0
674.520	1	-1
674.689	1	-1
674.858	1	7
675.028	1	9
675.197	1	-11
675.367	1	3
675.536	1	9
675.705	1	2
675.875	1	3
676.044	1	0
676.214	1	3
676.383	1	-2
676.552	1	0
676.722	1	3
676.891	1	-15
677.060	1	16
677.230	1	15
677.399	1	-4
677.569	1	1
677.738	1	0
677.907	1	-4
678.077	1	10
678.246	1	-4
678.416	1	2
678.585	1	0
678.754	1	-10
678.924	1	-3
679.093	1	4
679.262	1	-2
679.432	1	-3
679.601	1	-1
679.771	1	11
679.940	1	7
680.109	1	10
680.279	1	-4
680.448	1	3
680.617	1	-5
680.787	1	4
680.956	1	1
681.125	1	1
681.295	1	9
681.464	1	-1
681.634	1	9
681.803	1	-5
681.972	1	-21
682.142	1	14
682.311	1	-3
682.480	1	4
682.650	1	-1
682.819	1	4
682.988	1	0
683.158	1	5
683.327	1	4
683.496	1	2
683.666	1	5
683.835	1	10
684.004	1	3
684.174	1	3
684.343	1	1
684.512	1	-9
684.682	1	9
684.851	1	-1
685.021	1	7
685.190	1	17
685.359	1	-9
685.529	1	12
685.698	1	0
685.867	1	0
686.037	1	10
686.206	1	8
686.375	1	2
686.545	1	5
686.714	1	-3
686.883	1	-1
687.053	1	4
687.222	1	-5
687.391	1	8
687.561	1	1
687.730	1	0
687.899	1	-8
688.069	1	-11
688.238	1	3
688.407	1	5
688.577	1	0
688.746	1	9
