340.368	1	0
340.539	1	6
340.710	1	-5
340.881	1	-1
341.052	1	2
341.223	1	7
341.394	1	-8
341.565	1	-3
341.737	1	7
341.908	1	8
342.079	1	-7
342.250	1	0
342.421	1	1
342.592	1	-6
342.763	1	0
342.934	1	-2
343.105	1	5
343.276	1	-4
343.447	1	2
343.618	1	1
343.789	1	-7
343.960	1	-3
344.131	1	-6
344.302	1	0
344.473	1	1
344.644	1	6
344.815	1	7
344.986	1	9
345.157	1	5
345.328	1	-3
345.499	1	1
345.670	1	14
345.841	1	7
346.012	1	9
346.183	1	-4
346.354	1	-2
346.526	1	5
346.697	1	7
346.868	1	0
347.039	1	3
347.210	1	3
347.381	1	-2
347.552	1	-3
347.723	1	3
347.894	1	3
348.065	1	-2
348.236	1	5
348.407	1	1
348.578	1	5
348.749	1	5
348.920	1	12
349.091	1	7
349.262	1	-7
349.433	1	-6
349.604	1	13
349.775	1	3
349.946	1	1
350.117	1	8
350.288	1	-3
350.459	1	11
350.630	1	-9
350.801	1	-1
350.972	1	1
351.143	1	-14
351.314	1	-2
351.485	1	10
351.656	1	2
351.827	1	-3
351.998	1	-1
352.169	1	12
352.340	1	1
352.511	1	1
352.682	1	-4
352.853	1	-4
353.024	1	-7
353.195	1	-3
353.366	1	6
353.537	1	-8
353.708	1	1
353.879	1	4
354.050	1	7
354.221	1	-4
354.392	1	1
354.563	1	10
354.734	1	-1
354.905	1	4
355.076	1	6
355.247	1	-4
355.418	1	2
355.589	1	1
355.760	1	-2
355.931	1	0
356.102	1	-9
356.273	1	-8
356.444	1	5
356.615	1	9
356.785	1	7
356.956	1	0
357.127	1	6
357.298	1	8
357.469	1	-2
357.640	1	9
357.811	1	6
357.982	1	-7
358.153	1	-1
358.324	1	0
358.495	1	16
358.666	1	-2
358.837	1	-2
359.008	1	3
359.179	1	-1
359.350	1	0
359.521	1	-4
359.692	1	-1
359.863	1	-6
360.034	1	-3
360.205	1	5
360.376	1	7
360.547	1	3
360.718	1	-2
360.889	1	-2
361.060	1	8
361.231	1	6
361.401	1	2
361.572	1	5
361.743	1	2
361.914	1	4
362.085	1	3
362.256	1	10
362.427	1	-2
362.598	1	-2
362.769	1	4
362.940	1	-2
363.111	1	6
363.282	1	1
363.453	1	-2
363.624	1	0
363.795	1	6
363.966	1	15
364.137	1	-3
364.308	1	4
364.478	1	8
364.649	1	8
364.820	1	6
364.991	1	10
365.162	1	7
365.333	1	14
365.504	1	0
365.675	1	5
365.846	1	-8
366.017	1	5
366.188	1	0
366.359	1	2
366.530	1	8
366.701	1	-1
366.871	1	24
367.042	1	9
367.213	1	17
367.384	1	8
367.555	1	6
367.726	1	6
367.897	1	5
368.068	1	7
368.239	1	12
368.410	1	9
368.581	1	8
368.752	1	-9
368.923	1	-8
369.093	1	3
369.264	1	0
369.435	1	6
369.606	1	7
369.777	1	7
369.948	1	9
370.119	1	7
370.290	1	-1
370.461	1	-5
370.632	1	8
370.803	1	1
370.973	1	11
371.144	1	8
371.315	1	-2
371.486	1	10
371.657	1	6
371.828	1	-2
371.999	1	7
372.170	1	10
372.341	1	4
372.512	1	2
372.682	1	1
372.853	1	2
373.024	1	-5
373.195	1	-6
373.366	1	3
373.537	1	9
373.708	1	5
373.879	1	18
374.050	1	12
374.220	1	0
374.391	1	-4
374.562	1	-3
374.733	1	6
374.904	1	6
375.075	1	7
375.246	1	-1
375.417	1	1
375.588	1	10
375.758	1	1
375.929	1	13
376.100	1	11
376.271	1	-4
376.442	1	1
376.613	1	5
376.784	1	-1
376.955	1	4
377.125	1	10
377.296	1	6
377.467	1	0
377.638	1	5
377.809	1	4
377.980	1	8
378.151	1	-5
378.321	1	7
378.492	1	8
378.663	1	-6
378.834	1	0
379.005	1	8
379.176	1	1
379.347	1	4
379.518	1	1
379.688	1	-7
379.859	1	3
380.030	1	1
380.201	1	-5
380.372	1	-4
380.543	1	4
380.714	1	3
380.884	1	4
381.055	1	-2
381.226	1	7
381.397	1	-4
381.568	1	2
381.739	1	13
381.910	1	5
382.080	1	-13
382.251	1	8
382.422	1	12
382.593	1	12
382.764	1	6
382.935	1	5
383.105	1	3
383.276	1	10
383.447	1	8
383.618	1	12
383.789	1	1
383.960	1	-1
384.130	1	1
384.301	1	4
384.472	1	0
384.643	1	14
384.814	1	4
384.985	1	10
385.156	1	19
385.326	1	20
385.497	1	9
385.668	1	6
385.839	1	10
386.010	1	6
386.180	1	10
386.351	1	-1
386.522	1	14
386.693	1	3
386.864	1	-6
387.035	1	2
387.205	1	6
387.376	1	6
387.547	1	9
387.718	1	17
387.889	1	14
388.060	1	-1
388.230	1	11
388.401	1	11
388.572	1	15
388.743	1	5
388.914	1	10
389.084	1	12
389.255	1	12
389.426	1	12
389.597	1	1
389.768	1	3
389.939	1	14
390.109	1	7
390.280	1	10
390.451	1	16
390.622	1	1
390.793	1	7
390.963	1	9
391.134	1	15
391.305	1	4
391.476	1	13
391.647	1	8
391.817	1	5
391.988	1	-2
392.159	1	6
392.330	1	2
392.501	1	8
392.671	1	7
392.842	1	13
393.013	1	14
393.184	1	14
393.355	1	16
393.525	1	8
393.696	1	8
393.867	1	6
394.038	1	6
394.208	1	10
394.379	1	0
394.550	1	3
394.721	1	9
394.892	1	9
395.062	1	-7
395.233	1	9
395.404	1	15
395.575	1	14
395.746	1	-2
395.916	1	7
396.087	1	4
396.258	1	-2
396.429	1	17
396.599	1	5
396.770	1	17
396.941	1	17
397.112	1	6
397.283	1	10
397.453	1	-5
397.624	1	7
397.795	1	9
397.966	1	9
398.136	1	10
398.307	1	2
398.478	1	15
398.649	1	8
398.819	1	10
398.990	1	9
399.161	1	11
399.332	1	17
399.503	1	5
399.673	1	17
399.844	1	2
400.015	1	14
400.186	1	16
400.356	1	2
400.527	1	4
400.698	1	6
400.869	1	16
401.039	1	-3
401.210	1	3
401.381	1	9
401.552	1	19
401.722	1	14
401.893	1	3
402.064	1	6
402.235	1	16
402.405	1	6
402.576	1	12
402.747	1	5
402.918	1	-1
403.088	1	-3
403.259	1	0
403.430	1	3
403.601	1	-2
403.771	1	8
403.942	1	12
404.113	1	10
404.284	1	5
404.454	1	9
404.625	1	1
404.796	1	5
404.967	1	13
405.137	1	13
405.308	1	0
405.479	1	0
405.649	1	6
405.820	1	1
405.991	1	8
406.162	1	-4
406.332	1	-6
406.503	1	5
406.674	1	0
406.845	1	2
407.015	1	-3
407.186	1	10
407.357	1	3
407.527	1	6
407.698	1	-13
407.869	1	2
408.040	1	6
408.210	1	11
408.381	1	4
408.552	1	5
408.722	1	2
408.893	1	8
409.064	1	3
409.235	1	5
409.405	1	7
409.576	1	5
409.747	1	-5
409.917	1	10
410.088	1	10
410.259	1	7
410.430	1	5
410.600	1	2
410.771	1	7
410.942	1	-3
411.112	1	13
411.283	1	1
411.454	1	7
411.625	1	2
411.795	1	6
411.966	1	3
412.137	1	19
412.307	1	8
412.478	1	12
412.649	1	5
412.819	1	-5
412.990	1	11
413.161	1	12
413.332	1	0
413.502	1	-3
413.673	1	11
413.844	1	-2
414.014	1	-1
414.185	1	10
414.356	1	-8
414.526	1	11
414.697	1	6
414.868	1	16
415.038	1	2
415.209	1	-9
415.380	1	5
415.550	1	1
415.721	1	9
415.892	1	0
416.063	1	16
416.233	1	-2
416.404	1	10
416.575	1	2
416.745	1	-7
416.916	1	0
417.087	1	-1
417.257	1	11
417.428	1	6
417.599	1	13
417.769	1	10
417.940	1	-1
418.111	1	8
418.281	1	-2
418.452	1	5
418.623	1	5
418.793	1	7
418.964	1	5
419.135	1	6
419.305	1	9
419.476	1	5
419.647	1	7
419.817	1	0
419.988	1	5
420.159	1	-2
420.329	1	5
420.500	1	5
420.671	1	4
420.841	1	12
421.012	1	11
421.183	1	15
421.353	1	6
421.524	1	1
421.695	1	8
421.865	1	3
422.036	1	0
422.206	1	9
422.377	1	6
422.548	1	3
422.718	1	8
422.889	1	10
423.060	1	7
423.230	1	9
423.401	1	5
423.572	1	3
423.742	1	10
423.913	1	9
424.084	1	9
424.254	1	2
424.425	1	3
424.595	1	-1
424.766	1	10
424.937	1	1
425.107	1	2
425.278	1	-6
425.449	1	8
425.619	1	3
425.790	1	4
425.961	1	-4
426.131	1	-1
426.302	1	-7
426.472	1	0
426.643	1	4
426.814	1	6
426.984	1	10
427.155	1	-5
427.326	1	3
427.496	1	11
427.667	1	9
427.837	1	-6
428.008	1	3
428.179	1	6
428.349	1	-7
428.520	1	1
428.691	1	1
428.861	1	8
429.032	1	8
429.202	1	13
429.373	1	-3
429.544	1	5
429.714	1	11
429.885	1	4
430.055	1	12
430.226	1	0
430.397	1	-1
430.567	1	-2
430.738	1	7
430.909	1	-11
431.079	1	12
431.250	1	-5
431.420	1	7
431.591	1	-1
431.762	1	13
431.932	1	13
432.103	1	-1
432.273	1	5
432.444	1	6
432.615	1	0
432.785	1	-5
432.956	1	7
433.126	1	-5
433.297	1	9
433.468	1	-2
433.638	1	-11
433.809	1	8
433.979	1	0
434.150	1	-7
434.320	1	5
434.491	1	6
434.662	1	3
434.832	1	4
435.003	1	12
435.173	1	-3
435.344	1	-7
435.515	1	1
435.685	1	10
435.856	1	1
436.026	1	1
436.197	1	1
436.368	1	-5
436.538	1	10
436.709	1	-4
436.879	1	-4
437.050	1	11
437.220	1	6
437.391	1	10
437.562	1	8
437.732	1	-8
437.903	1	-3
438.073	1	6
438.244	1	-3
438.414	1	7
438.585	1	3
438.756	1	8
438.926	1	6
439.097	1	5
439.267	1	11
439.438	1	15
439.608	1	5
439.779	1	3
439.949	1	-4
440.120	1	1
440.291	1	-10
440.461	1	-12
440.632	1	11
440.802	1	0
440.973	1	6
441.143	1	8
441.314	1	3
441.485	1	0
441.655	1	13
441.826	1	-4
441.996	1	0
442.167	1	2
442.337	1	0
442.508	1	3
442.678	1	3
442.849	1	5
443.019	1	13
443.190	1	-5
443.361	1	13
443.531	1	0
443.702	1	2
443.872	1	-5
444.043	1	11
444.213	1	-10
444.384	1	2
444.554	1	1
444.725	1	-4
444.895	1	-6
445.066	1	-4
445.237	1	1
445.407	1	-3
445.578	1	1
445.748	1	2
445.919	1	-8
446.089	1	16
446.260	1	8
446.430	1	-3
446.601	1	-1
446.771	1	1
446.942	1	5
447.112	1	-1
447.283	1	-6
447.453	1	-3
447.624	1	6
447.794	1	0
447.965	1	2
448.135	1	2
448.306	1	5
448.477	1	-9
448.647	1	11
448.818	1	10
448.988	1	-12
449.159	1	-5
449.329	1	1
449.500	1	14
449.670	1	2
449.841	1	0
450.011	1	7
450.182	1	-6
450.352	1	7
450.523	1	-8
450.693	1	6
450.864	1	9
451.034	1	5
451.205	1	15
451.375	1	5
451.546	1	7
451.716	1	-1
451.887	1	5
452.057	1	11
452.228	1	-3
452.398	1	-3
452.569	1	4
452.739	1	3
452.910	1	-4
453.080	1	6
453.251	1	-1
453.421	1	3
453.592	1	0
453.762	1	7
453.933	1	4
454.103	1	9
454.274	1	4
454.444	1	14
454.615	1	10
454.785	1	0
454.956	1	3
455.126	1	4
455.297	1	1
455.467	1	4
455.638	1	13
455.808	1	-1
455.979	1	-1
456.149	1	-3
456.320	1	0
456.490	1	-1
456.661	1	-5
456.831	1	12
457.001	1	-1
457.172	1	0
457.342	1	4
457.513	1	13
457.683	1	3
457.854	1	4
458.024	1	1
458.195	1	-6
458.365	1	-2
458.536	1	3
458.706	1	2
458.877	1	4
459.047	1	7
459.218	1	-2
459.388	1	9
459.559	1	1
459.729	1	10
459.899	1	12
460.070	1	0
460.240	1	6
460.411	1	12
460.581	1	4
460.752	1	5
460.922	1	2
461.093	1	6
461.263	1	6
461.434	1	2
461.604	1	4
461.775	1	17
461.945	1	8
462.115	1	-3
462.286	1	13
462.456	1	2
462.627	1	5
462.797	1	2
462.968	1	-10
463.138	1	8
463.309	1	1
463.479	1	6
463.649	1	-3
463.820	1	7
463.990	1	1
464.161	1	10
464.331	1	-1
464.502	1	2
464.672	1	3
464.843	1	5
465.013	1	-4
465.183	1	-2
465.354	1	8
465.524	1	11
465.695	1	5
465.865	1	-4
466.036	1	5
466.206	1	3
466.376	1	-2
466.547	1	5
466.717	1	-10
466.888	1	-3
467.058	1	6
467.229	1	5
467.399	1	5
467.569	1	2
467.740	1	-6
467.910	1	6
468.081	1	8
468.251	1	-2
468.422	1	6
468.592	1	9
468.762	1	-12
468.933	1	1
469.103	1	-2
469.274	1	0
469.444	1	-4
469.614	1	-3
469.785	1	10
469.955	1	-2
470.126	1	9
470.296	1	9
470.467	1	-5
470.637	1	12
470.807	1	0
470.978	1	-7
471.148	1	7
471.319	1	-1
471.489	1	5
471.659	1	11
471.830	1	15
472.000	1	3
472.171	1	9
472.341	1	1
472.511	1	8
472.682	1	5
472.852	1	-4
473.023	1	-6
473.193	1	-6
473.363	1	1
473.534	1	-9
473.704	1	2
473.875	1	10
474.045	1	-2
474.215	1	-3
474.386	1	13
474.556	1	-9
474.727	1	1
474.897	1	9
475.067	1	4
475.238	1	-2
475.408	1	-4
475.578	1	10
475.749	1	-9
475.919	1	3
476.090	1	0
476.260	1	-4
476.430	1	-2
476.601	1	0
476.771	1	2
476.942	1	4
477.112	1	10
477.282	1	-14
477.453	1	3
477.623	1	7
477.793	1	11
477.964	1	7
478.134	1	2
478.305	1	-6
478.475	1	-1
478.645	1	-4
478.816	1	-4
478.986	1	-1
479.156	1	2
479.327	1	-4
479.497	1	3
479.667	1	5
479.838	1	4
480.008	1	11
480.179	1	14
480.349	1	0
480.519	1	-3
480.690	1	0
480.860	1	-5
481.030	1	3
481.201	1	-5
481.371	1	2
481.541	1	2
481.712	1	11
481.882	1	0
482.053	1	2
482.223	1	-11
482.393	1	-3
482.564	1	-11
482.734	1	7
482.904	1	10
483.075	1	11
483.245	1	5
483.415	1	6
483.586	1	-7
483.756	1	13
483.926	1	9
484.097	1	-4
484.267	1	1
484.437	1	-7
484.608	1	6
484.778	1	3
484.948	1	-4
485.119	1	9
485.289	1	12
485.459	1	1
485.630	1	2
485.800	1	5
485.970	1	2
486.141	1	-5
486.311	1	-3
486.481	1	7
486.652	1	10
486.822	1	5
486.992	1	-6
487.163	1	-2
487.333	1	0
487.503	1	-11
487.674	1	-2
487.844	1	-4
488.014	1	-2
488.185	1	-2
488.355	1	1
488.525	1	1
488.696	1	-5
488.866	1	8
489.036	1	4
489.207	1	15
489.377	1	13
489.547	1	1
489.718	1	-9
489.888	1	4
490.058	1	4
490.228	1	-3
490.399	1	8
490.569	1	10
490.739	1	9
490.910	1	-2
491.080	1	4
491.250	1	1
491.421	1	7
491.591	1	0
491.761	1	-13
491.932	1	9
492.102	1	6
492.272	1	17
492.442	1	-3
492.613	1	10
492.783	1	-2
492.953	1	2
493.124	1	-7
493.294	1	5
493.464	1	0
493.635	1	-2
493.805	1	15
493.975	1	2
494.145	1	5
494.316	1	1
494.486	1	4
494.656	1	12
494.827	1	-5
494.997	1	-1
495.167	1	-1
495.337	1	1
495.508	1	4
495.678	1	16
495.848	1	14
496.019	1	-5
496.189	1	-7
496.359	1	2
496.529	1	-5
496.700	1	3
496.870	1	-3
497.040	1	2
497.211	1	16
497.381	1	-10
497.551	1	13
497.721	1	-6
497.892	1	7
498.062	1	6
498.232	1	7
498.403	1	11
498.573	1	-2
498.743	1	5
498.913	1	1
499.084	1	1
499.254	1	5
499.424	1	13
499.594	1	3
499.765	1	6
499.935	1	-14
500.105	1	10
500.275	1	8
500.446	1	10
500.616	1	11
500.786	1	10
500.956	1	4
501.127	1	13
501.297	1	7
501.467	1	9
501.638	1	8
501.808	1	2
501.978	1	6
502.148	1	7
502.319	1	3
502.489	1	12
502.659	1	-1
502.829	1	8
503.000	1	6
503.170	1	4
503.340	1	1
503.510	1	2
503.681	1	11
503.851	1	-9
504.021	1	20
504.191	1	8
504.362	1	11
504.532	1	-3
504.702	1	8
504.872	1	-3
505.042	1	8
505.213	1	0
505.383	1	4
505.553	1	-3
505.723	1	17
505.894	1	9
506.064	1	14
506.234	1	6
506.404	1	3
506.575	1	0
506.745	1	9
506.915	1	6
507.085	1	2
507.256	1	-3
507.426	1	5
507.596	1	2
507.766	1	5
507.936	1	6
508.107	1	9
508.277	1	-3
508.447	1	6
508.617	1	5
508.788	1	3
508.958	1	9
509.128	1	1
509.298	1	20
509.468	1	11
509.639	1	11
509.809	1	12
509.979	1	3
510.149	1	-3
510.319	1	3
510.490	1	17
510.660	1	8
510.830	1	-4
511.000	1	14
511.171	1	11
511.341	1	-5
511.511	1	0
511.681	1	7
511.851	1	-1
512.022	1	3
512.192	1	13
512.362	1	9
512.532	1	-4
512.702	1	-12
512.873	1	18
513.043	1	3
513.213	1	-3
513.383	1	-3
513.553	1	-1
513.724	1	13
513.894	1	4
514.064	1	1
514.234	1	13
514.404	1	5
514.575	1	7
514.745	1	2
514.915	1	14
515.085	1	5
515.255	1	-1
515.425	1	-3
515.596	1	0
515.766	1	3
515.936	1	7
516.106	1	-9
516.276	1	16
516.447	1	6
516.617	1	4
516.787	1	-1
516.957	1	7
517.127	1	7
517.297	1	6
517.468	1	-6
517.638	1	17
517.808	1	-4
517.978	1	2
518.148	1	3
518.319	1	0
518.489	1	-1
518.659	1	7
518.829	1	4
518.999	1	0
519.169	1	6
519.340	1	6
519.510	1	6
519.680	1	0
519.850	1	-1
520.020	1	-1
520.190	1	11
520.361	1	0
520.531	1	7
520.701	1	8
520.871	1	0
521.041	1	-4
521.211	1	7
521.382	1	-1
521.552	1	11
521.722	1	14
521.892	1	-7
522.062	1	3
522.232	1	-9
522.402	1	-5
522.573	1	7
522.743	1	15
522.913	1	2
523.083	1	3
523.253	1	10
523.423	1	-3
523.593	1	-3
523.764	1	8
523.934	1	3
524.104	1	-4
524.274	1	4
524.444	1	5
524.614	1	1
524.784	1	4
524.955	1	5
525.125	1	10
525.295	1	8
525.465	1	8
525.635	1	9
525.805	1	-1
525.975	1	-1
526.146	1	7
526.316	1	0
526.486	1	15
526.656	1	16
526.826	1	11
526.996	1	13
527.166	1	12
527.337	1	6
527.507	1	-3
527.677	1	17
527.847	1	-3
528.017	1	2
528.187	1	6
528.357	1	16
528.527	1	12
528.698	1	-4
528.868	1	-1
529.038	1	5
529.208	1	0
529.378	1	9
529.548	1	10
529.718	1	7
529.888	1	13
530.058	1	9
530.229	1	9
530.399	1	10
530.569	1	15
530.739	1	-1
530.909	1	4
531.079	1	11
531.249	1	4
531.419	1	17
531.589	1	-4
531.760	1	6
531.930	1	10
532.100	1	14
532.270	1	12
532.440	1	-12
532.610	1	1
532.780	1	10
532.950	1	11
533.120	1	0
533.290	1	10
533.461	1	12
533.631	1	8
533.801	1	-6
533.971	1	9
534.141	1	15
534.311	1	9
534.481	1	3
534.651	1	5
534.821	1	13
534.991	1	6
535.162	1	6
535.332	1	8
535.502	1	13
535.672	1	5
535.842	1	1
536.012	1	12
536.182	1	4
536.352	1	-3
536.522	1	9
536.692	1	11
536.862	1	5
537.032	1	5
537.203	1	9
537.373	1	2
537.543	1	4
537.713	1	10
537.883	1	9
538.053	1	16
538.223	1	8
538.393	1	12
538.563	1	10
538.733	1	5
538.903	1	-2
539.073	1	10
539.243	1	0
539.413	1	-11
539.584	1	8
539.754	1	7
539.924	1	10
540.094	1	4
540.264	1	12
540.434	1	6
540.604	1	9
540.774	1	3
540.944	1	-3
541.114	1	-2
541.284	1	-2
541.454	1	-1
541.624	1	6
541.794	1	-5
541.964	1	13
542.134	1	16
542.305	1	-5
542.475	1	-14
542.645	1	-1
542.815	1	9
542.985	1	-1
543.155	1	11
543.325	1	5
543.495	1	2
543.665	1	8
543.835	1	7
544.005	1	3
544.175	1	-4
544.345	1	-8
544.515	1	6
544.685	1	9
544.855	1	11
545.025	1	5
545.195	1	7
545.365	1	5
545.535	1	5
545.705	1	0
545.875	1	-1
546.045	1	15
546.216	1	9
546.386	1	8
546.556	1	-3
546.726	1	8
546.896	1	2
547.066	1	-1
547.236	1	-3
547.406	1	7
547.576	1	2
547.746	1	9
547.916	1	-5
548.086	1	-1
548.256	1	6
548.426	1	-4
548.596	1	10
548.766	1	8
548.936	1	2
549.106	1	6
549.276	1	4
549.446	1	2
549.616	1	14
549.786	1	9
549.956	1	14
550.126	1	0
550.296	1	10
550.466	1	3
550.636	1	9
550.806	1	6
550.976	1	5
551.146	1	-6
551.316	1	2
551.486	1	6
551.656	1	-2
551.826	1	4
551.996	1	2
552.166	1	7
552.336	1	5
552.506	1	1
552.676	1	0
552.846	1	11
553.016	1	7
553.186	1	5
553.356	1	3
553.526	1	-9
553.696	1	12
553.866	1	7
554.036	1	10
554.206	1	6
554.376	1	1
554.546	1	-10
554.716	1	1
554.886	1	9
555.056	1	-1
555.226	1	-5
555.396	1	0
555.566	1	12
555.736	1	2
555.906	1	10
556.076	1	5
556.246	1	3
556.416	1	8
556.586	1	17
556.756	1	6
556.926	1	6
557.096	1	-3
557.266	1	18
557.436	1	12
557.606	1	-12
557.776	1	-1
557.946	1	6
558.116	1	14
558.286	1	8
558.456	1	0
558.626	1	11
558.796	1	6
558.966	1	1
559.136	1	3
559.306	1	6
559.476	1	0
559.646	1	4
559.816	1	6
559.986	1	5
560.155	1	2
560.325	1	-5
560.495	1	10
560.665	1	16
560.835	1	-1
561.005	1	5
561.175	1	0
561.345	1	-5
561.515	1	-10
561.685	1	3
561.855	1	3
562.025	1	-8
562.195	1	3
562.365	1	2
562.535	1	6
562.705	1	9
562.875	1	0
563.045	1	4
563.215	1	1
563.385	1	-2
563.555	1	18
563.725	1	0
563.895	1	-1
564.064	1	-1
564.234	1	-5
564.404	1	4
564.574	1	-6
564.744	1	4
564.914	1	-6
565.084	1	-13
565.254	1	1
565.424	1	11
565.594	1	6
565.764	1	6
565.934	1	4
566.104	1	6
566.274	1	0
566.444	1	5
566.614	1	3
566.783	1	2
566.953	1	0
567.123	1	18
567.293	1	1
567.463	1	0
567.633	1	1
567.803	1	-4
567.973	1	-4
568.143	1	-8
568.313	1	1
568.483	1	-6
568.653	1	0
568.823	1	14
568.993	1	-8
569.162	1	0
569.332	1	-8
569.502	1	-1
569.672	1	-3
569.842	1	6
570.012	1	5
570.182	1	-3
570.352	1	0
570.522	1	11
570.692	1	9
570.862	1	9
571.031	1	-3
571.201	1	7
571.371	1	2
571.541	1	-2
571.711	1	10
571.881	1	8
572.051	1	5
572.221	1	12
572.391	1	8
572.561	1	0
572.731	1	2
572.900	1	8
573.070	1	9
573.240	1	0
573.410	1	-6
573.580	1	5
573.750	1	-1
573.920	1	3
574.090	1	7
574.260	1	4
574.430	1	0
574.599	1	2
574.769	1	4
574.939	1	-5
575.109	1	3
575.279	1	10
575.449	1	2
575.619	1	4
575.789	1	21
575.959	1	-11
576.128	1	9
576.298	1	-10
576.468	1	-10
576.638	1	9
576.808	1	-5
576.978	1	-3
577.148	1	6
577.318	1	13
577.487	1	5
577.657	1	-8
577.827	1	0
577.997	1	-1
578.167	1	11
578.337	1	-3
578.507	1	5
578.677	1	-12
578.846	1	5
579.016	1	10
579.186	1	10
579.356	1	0
579.526	1	1
579.696	1	2
579.866	1	6
580.036	1	-2
580.205	1	7
580.375	1	6
580.545	1	3
580.715	1	13
580.885	1	9
581.055	1	13
581.225	1	-4
581.394	1	1
581.564	1	4
581.734	1	6
581.904	1	2
582.074	1	0
582.244	1	11
582.414	1	5
582.583	1	-1
582.753	1	-1
582.923	1	-1
583.093	1	1
583.263	1	7
583.433	1	-2
583.603	1	15
583.772	1	8
583.942	1	13
584.112	1	6
584.282	1	6
584.452	1	-3
584.622	1	-2
584.791	1	0
584.961	1	6
585.131	1	0
585.301	1	8
585.471	1	-1
585.641	1	10
585.811	1	5
585.980	1	-6
586.150	1	8
586.320	1	-9
586.490	1	-7
586.660	1	2
586.830	1	-9
586.999	1	1
587.169	1	-4
587.339	1	8
587.509	1	15
587.679	1	-1
587.849	1	21
588.018	1	3
588.188	1	1
588.358	1	0
588.528	1	4
588.698	1	4
588.867	1	10
589.037	1	4
589.207	1	-11
589.377	1	8
589.547	1	-3
589.717	1	7
589.886	1	-2
590.056	1	9
590.226	1	5
590.396	1	-2
590.566	1	-2
590.735	1	11
590.905	1	9
591.075	1	-6
591.245	1	5
591.415	1	7
591.585	1	-2
591.754	1	8
591.924	1	-2
592.094	1	12
592.264	1	0
592.434	1	-2
592.603	1	-3
592.773	1	4
592.943	1	-5
593.113	1	-11
593.283	1	9
593.452	1	-6
593.622	1	-2
593.792	1	-1
593.962	1	8
594.132	1	1
594.301	1	9
594.471	1	2
594.641	1	-2
594.811	1	-3
594.981	1	-5
595.150	1	3
595.320	1	8
595.490	1	1
595.660	1	2
595.829	1	5
595.999	1	5
596.169	1	2
596.339	1	-5
596.509	1	6
596.678	1	-1
596.848	1	15
597.018	1	2
597.188	1	0
597.358	1	6
597.527	1	-2
597.697	1	-6
597.867	1	3
598.037	1	5
598.206	1	-6
598.376	1	14
598.546	1	0
598.716	1	-8
598.885	1	3
599.055	1	8
599.225	1	5
599.395	1	7
599.565	1	-3
599.734	1	-1
599.904	1	-6
600.074	1	3
600.244	1	4
600.413	1	6
600.583	1	3
600.753	1	0
600.923	1	13
601.092	1	-2
601.262	1	6
601.432	1	1
601.602	1	3
601.771	1	12
601.941	1	4
602.111	1	-1
602.281	1	11
602.451	1	5
602.620	1	4
602.790	1	0
602.960	1	-3
603.130	1	-7
603.299	1	0
603.469	1	-5
603.639	1	5
603.809	1	-3
603.978	1	0
604.148	1	5
604.318	1	6
604.487	1	0
604.657	1	2
604.827	1	-11
604.997	1	5
605.166	1	-8
605.336	1	-2
605.506	1	2
605.676	1	-7
605.845	1	-1
606.015	1	8
606.185	1	9
606.355	1	10
606.524	1	5
606.694	1	18
606.864	1	-2
607.034	1	2
607.203	1	16
607.373	1	-8
607.543	1	-1
607.712	1	10
607.882	1	-2
608.052	1	6
608.222	1	10
608.391	1	2
608.561	1	7
608.731	1	-9
608.901	1	8
609.070	1	3
609.240	1	-2
609.410	1	2
609.579	1	12
609.749	1	3
609.919	1	-4
610.089	1	-3
610.258	1	4
610.428	1	3
610.598	1	5
610.767	1	2
610.937	1	7
611.107	1	11
611.277	1	13
611.446	1	-1
611.616	1	-4
611.786	1	2
611.955	1	7
612.125	1	4
612.295	1	-4
612.465	1	-1
612.634	1	-6
612.804	1	11
612.974	1	7
613.143	1	3
613.313	1	6
613.483	1	5
613.652	1	-6
613.822	1	7
613.992	1	0
614.162	1	-3
614.331	1	13
614.501	1	-3
614.671	1	6
614.840	1	9
615.010	1	2
615.180	1	9
615.349	1	3
615.519	1	11
615.689	1	8
615.858	1	11
616.028	1	-9
616.198	1	12
616.368	1	-4
616.537	1	-7
616.707	1	0
616.877	1	4
617.046	1	-3
617.216	1	4
617.386	1	2
617.555	1	-5
617.725	1	9
617.895	1	-4
618.064	1	-3
618.234	1	5
618.404	1	10
618.573	1	5
618.743	1	2
618.913	1	0
619.082	1	3
619.252	1	8
619.422	1	3
619.591	1	3
619.761	1	9
619.931	1	8
620.100	1	11
620.270	1	-1
620.440	1	5
620.609	1	3
620.779	1	-4
620.949	1	8
621.118	1	4
621.288	1	0
621.458	1	11
621.627	1	2
621.797	1	7
621.967	1	-1
622.136	1	3
622.306	1	11
622.476	1	0
622.645	1	1
622.815	1	6
622.985	1	13
623.154	1	9
623.324	1	8
623.494	1	7
623.663	1	6
623.833	1	-5
624.002	1	-5
624.172	1	15
624.342	1	-6
624.511	1	-5
624.681	1	-2
624.851	1	-2
625.020	1	0
625.190	1	1
625.360	1	-5
625.529	1	0
625.699	1	-5
625.869	1	9
626.038	1	-2
626.208	1	7
626.377	1	11
626.547	1	0
626.717	1	0
626.886	1	-2
627.056	1	2
627.226	1	6
627.395	1	4
627.565	1	8
627.735	1	0
627.904	1	3
628.074	1	11
628.243	1	-5
628.413	1	6
628.583	1	8
628.752	1	10
628.922	1	-5
629.091	1	5
629.261	1	6
629.431	1	-14
629.600	1	1
629.770	1	9
629.940	1	8
630.109	1	-1
630.279	1	0
630.448	1	1
630.618	1	3
630.788	1	4
630.957	1	-5
631.127	1	8
631.297	1	0
631.466	1	6
631.636	1	-6
631.805	1	-4
631.975	1	21
632.145	1	-3
632.314	1	7
632.484	1	-3
632.653	1	-10
632.823	1	6
632.993	1	-3
633.162	1	0
633.332	1	11
633.501	1	0
633.671	1	3
633.841	1	5
634.010	1	0
634.180	1	2
634.349	1	12
634.519	1	2
634.689	1	8
634.858	1	10
635.028	1	-2
635.197	1	1
635.367	1	-2
635.537	1	1
635.706	1	-9
635.876	1	-7
636.045	1	9
636.215	1	1
636.384	1	6
636.554	1	8
636.724	1	13
636.893	1	7
637.063	1	0
637.232	1	8
637.402	1	14
637.572	1	-3
637.741	1	9
637.911	1	-5
638.080	1	-8
638.250	1	17
638.419	1	2
638.589	1	13
638.759	1	-3
638.928	1	-3
639.098	1	9
639.267	1	4
639.437	1	-8
639.606	1	10
639.776	1	-9
639.946	1	10
640.115	1	-8
640.285	1	3
640.454	1	15
640.624	1	5
640.793	1	10
640.963	1	-5
641.132	1	6
641.302	1	5
641.472	1	0
641.641	1	1
641.811	1	4
641.980	1	5
642.150	1	3
642.319	1	-1
642.489	1	-2
642.659	1	-5
642.828	1	8
642.998	1	-15
643.167	1	10
643.337	1	1
643.506	1	-4
643.676	1	5
643.845	1	3
644.015	1	11
644.184	1	8
644.354	1	0
644.524	1	-3
644.693	1	9
644.863	1	-6
645.032	1	-2
645.202	1	4
645.371	1	-14
645.541	1	-6
645.710	1	7
645.880	1	1
646.049	1	8
646.219	1	-2
646.388	1	-2
646.558	1	-4
646.728	1	0
646.897	1	2
647.067	1	2
647.236	1	3
647.406	1	-4
647.575	1	10
647.745	1	2
647.914	1	1
648.084	1	3
648.253	1	6
648.423	1	-3
648.592	1	1
648.762	1	8
648.931	1	1
649.101	1	0
649.270	1	10
649.440	1	8
649.610	1	5
649.779	1	6
649.949	1	2
650.118	1	2
650.288	1	-6
650.457	1	-6
650.627	1	3
650.796	1	1
650.966	1	3
651.135	1	4
651.305	1	1
651.474	1	7
651.644	1	-7
651.813	1	7
651.983	1	1
652.152	1	2
652.322	1	6
652.491	1	-1
652.661	1	0
652.830	1	6
653.000	1	-6
653.169	1	3
653.339	1	9
653.508	1	-2
653.678	1	3
653.847	1	1
654.017	1	3
654.186	1	-8
654.356	1	1
654.525	1	5
654.695	1	-5
654.864	1	10
655.034	1	4
655.203	1	5
655.373	1	-1
655.542	1	2
655.712	1	2
655.881	1	2
656.051	1	1
656.220	1	7
656.390	1	0
656.559	1	-5
656.729	1	8
656.898	1	-1
657.068	1	-6
657.237	1	7
657.406	1	4
657.576	1	-10
657.745	1	0
657.915	1	3
658.084	1	9
658.254	1	14
658.423	1	-7
658.593	1	-1
658.762	1	-1
658.932	1	-5
659.101	1	13
659.271	1	3
659.440	1	5
659.610	1	5
659.779	1	-8
659.949	1	-9
660.118	1	5
660.288	1	3
660.457	1	-2
660.626	1	-8
660.796	1	0
660.965	1	4
661.135	1	-3
661.304	1	9
661.474	1	6
661.643	1	-1
661.813	1	2
661.982	1	0
662.152	1	1
662.321	1	-1
662.491	1	-4
662.660	1	1
662.829	1	-3
662.999	1	3
663.168	1	-4
663.338	1	-1
663.507	1	2
663.677	1	-8
663.846	1	10
664.016	1	3
664.185	1	0
664.354	1	4
664.524	1	-10
664.693	1	9
664.863	1	3
665.032	1	5
665.202	1	2
665.371	1	10
665.541	1	2
665.710	1	-4
665.879	1	-1
666.049	1	6
666.218	1	-3
666.388	1	-1
666.557	1	7
666.727	1	-12
666.896	1	-5
667.065	1	5
667.235	1	4
667.404	1	-11
667.574	1	0
667.743	1	-6
667.913	1	0
668.082	1	-6
668.251	1	4
668.421	1	0
668.590	1	2
668.760	1	0
668.929	1	3
669.099	1	-2
669.268	1	-6
669.437	1	-3
669.607	1	-3
669.776	1	3
669.946	1	9
670.115	1	4
670.285	1	-1
670.454	1	10
670.623	1	9
670.793	1	-1
670.962	1	-5
671.132	1	6
671.301	1	-3
671.470	1	4
671.640	1	-6
671.809	1	0
671.979	1	13
672.148	1	11
672.317	1	7
672.487	1	-7
672.656	1	7
672.826	1	-11
672.995	1	-2
673.164	1	10
673.334	1	12
673.503	1	4
673.673	1	14
673.842	1	0
674.011	1	9
674.181	1	-6
674.350	1	-9
674.520	1	-5
674.689	1	-11
674.858	1	7
675.028	1	0
675.197	1	0
675.367	1	2
675.536	1	9
675.705	1	-5
675.875	1	5
676.044	1	8
676.214	1	-2
676.383	1	3
676.552	1	1
676.722	1	-3
676.891	1	-6
677.060	1	2
677.230	1	7
677.399	1	1
677.569	1	-6
677.738	1	-9
677.907	1	-3
678.077	1	0
678.246	1	-9
678.416	1	4
678.585	1	4
678.754	1	-5
678.924	1	-4
679.093	1	7
679.262	1	-7
679.432	1	-2
679.601	1	-3
679.771	1	-1
679.940	1	2
680.109	1	6
680.279	1	-13
680.448	1	6
680.617	1	-4
680.787	1	5
680.956	1	7
681.125	1	4
681.295	1	11
681.464	1	1
681.634	1	-1
681.803	1	-9
681.972	1	-12
682.142	1	15
682.311	1	-4
682.480	1	-3
682.650	1	-3
682.819	1	9
682.988	1	-7
683.158	1	0
683.327	1	6
683.496	1	-2
683.666	1	-2
683.835	1	9
684.004	1	5
684.174	1	-8
684.343	1	-1
684.512	1	0
684.682	1	10
684.851	1	4
685.021	1	6
685.190	1	9
685.359	1	-10
685.529	1	-6
685.698	1	4
685.867	1	7
686.037	1	-1
686.206	1	5
686.375	1	0
686.545	1	7
686.714	1	4
686.883	1	-11
687.053	1	7
687.222	1	-5
687.391	1	-7
687.561	1	6
687.730	1	-5
687.899	1	-1
688.069	1	-5
688.238	1	0
688.407	1	6
688.577	1	4
688.746	1	-5
