340.368	1	-4
340.539	1	8
340.710	1	-4
340.881	1	11
341.052	1	8
341.223	1	4
341.394	1	-9
341.565	1	-11
341.737	1	4
341.908	1	0
342.079	1	-4
342.250	1	6
342.421	1	-1
342.592	1	-10
342.763	1	-3
342.934	1	0
343.105	1	7
343.276	1	4
343.447	1	2
343.618	1	0
343.789	1	-7
343.960	1	-6
344.131	1	-4
344.302	1	-7
344.473	1	-3
344.644	1	-4
344.815	1	0
344.986	1	6
345.157	1	-1
345.328	1	-8
345.499	1	4
345.670	1	0
345.841	1	-5
346.012	1	1
346.183	1	-8
346.354	1	-5
346.526	1	8
346.697	1	2
346.868	1	4
347.039	1	1
347.210	1	-2
347.381	1	-2
347.552	1	-2
347.723	1	6
347.894	1	-6
348.065	1	0
348.236	1	8
348.407	1	0
348.578	1	2
348.749	1	6
348.920	1	12
349.091	1	-1
349.262	1	-5
349.433	1	-4
349.604	1	12
349.775	1	-5
349.946	1	7
350.117	1	21
350.288	1	2
350.459	1	-1
350.630	1	-2
350.801	1	9
350.972	1	-3
351.143	1	-11
351.314	1	-5
351.485	1	0
351.656	1	1
351.827	1	4
351.998	1	-1
352.169	1	16
352.340	1	2
352.511	1	-6
352.682	1	0
352.853	1	-7
353.024	1	-12
353.195	1	-6
353.366	1	0
353.537	1	3
353.708	1	5
353.879	1	7
354.050	1	14
354.221	1	5
354.392	1	2
354.563	1	6
354.734	1	-10
354.905	1	4
355.076	1	2
355.247	1	-4
355.418	1	-2
355.589	1	4
355.760	1	-3
355.931	1	-8
356.102	1	3
356.273	1	-3
356.444	1	1
356.615	1	-3
356.785	1	13
356.956	1	-8
357.127	1	9
357.298	1	6
357.469	1	-4
357.640	1	14
357.811	1	10
357.982	1	-13
358.153	1	4
358.324	1	-2
358.495	1	12
358.666	1	-3
358.837	1	-1
359.008	1	-1
359.179	1	-2
359.350	1	-2
359.521	1	-8
359.692	1	-2
359.863	1	-9
360.034	1	-1
360.205	1	-3
360.376	1	-6
360.547	1	-3
360.718	1	-2
360.889	1	0
361.060	1	-4
361.231	1	7
361.401	1	7
361.572	1	-6
361.743	1	0
361.914	1	-1
362.085	1	-2
362.256	1	3
362.427	1	-10
362.598	1	7
362.769	1	0
362.940	1	-5
363.111	1	10
363.282	1	0
363.453	1	7
363.624	1	4
363.795	1	5
363.966	1	1
364.137	1	-10
364.308	1	0
364.478	1	1
364.649	1	-6
364.820	1	-2
364.991	1	3
365.162	1	-7
365.333	1	8
365.504	1	-8
365.675	1	-3
365.846	1	4
366.017	1	-4
366.188	1	-9
366.359	1	0
366.530	1	0
366.701	1	-14
366.871	1	7
367.042	1	8
367.213	1	-3
367.384	1	-2
367.555	1	-1
367.726	1	2
367.897	1	-6
368.068	1	-1
368.239	1	7
368.410	1	-3
368.581	1	-4
368.752	1	-9
368.923	1	-13
369.093	1	-7
369.264	1	-5
369.435	1	2
369.606	1	-7
369.777	1	-3
369.948	1	5
370.119	1	2
370.290	1	-7
370.461	1	6
370.632	1	-4
370.803	1	-11
370.973	1	6
371.144	1	16
371.315	1	-3
371.486	1	8
371.657	1	10
371.828	1	1
371.999	1	0
372.170	1	2
372.341	1	3
372.512	1	-6
372.682	1	-4
372.853	1	3
373.024	1	5
373.195	1	-5
373.366	1	-9
373.537	1	10
373.708	1	1
373.879	1	4
374.050	1	-1
374.220	1	6
374.391	1	-1
374.562	1	-1
374.733	1	17
374.904	1	6
375.075	1	11
375.246	1	-1
375.417	1	8
375.588	1	3
375.758	1	-16
375.929	1	6
376.100	1	8
376.271	1	3
376.442	1	-3
376.613	1	6
376.784	1	1
376.955	1	-6
377.125	1	7
377.296	1	-5
377.467	1	-4
377.638	1	-4
377.809	1	12
377.980	1	6
378.151	1	-7
378.321	1	-5
378.492	1	-2
378.663	1	-6
378.834	1	2
379.005	1	8
379.176	1	-10
379.347	1	3
379.518	1	-9
379.688	1	3
379.859	1	-4
380.030	1	-1
380.201	1	-8
380.372	1	-7
380.543	1	1
380.714	1	5
380.884	1	-3
381.055	1	1
381.226	1	9
381.397	1	-8
381.568	1	-5
381.739	1	13
381.910	1	-4
382.080	1	-17
382.251	1	-1
382.422	1	11
382.593	1	-1
382.764	1	-3
382.935	1	4
383.105	1	1
383.276	1	-3
383.447	1	8
383.618	1	3
383.789	1	-1
383.960	1	-2
384.130	1	0
384.301	1	-1
384.472	1	-4
384.643	1	-1
384.814	1	5
384.985	1	0
385.156	1	6
385.326	1	9
385.497	1	3
385.668	1	1
385.839	1	5
386.010	1	0
386.180	1	10
386.351	1	-6
386.522	1	-2
386.693	1	-2
386.864	1	3
387.035	1	-3
387.205	1	-8
387.376	1	4
387.547	1	-9
387.718	1	11
387.889	1	5
388.060	1	-13
388.230	1	4
388.401	1	6
388.572	1	1
388.743	1	-8
388.914	1	8
389.084	1	9
389.255	1	8
389.426	1	8
389.597	1	-5
389.768	1	0
389.939	1	11
390.109	1	-3
390.280	1	2
390.451	1	17
390.622	1	-2
390.793	1	11
390.963	1	8
391.134	1	1
391.305	1	12
391.476	1	9
391.647	1	1
391.817	1	-6
391.988	1	-3
392.159	1	3
392.330	1	1
392.501	1	6
392.671	1	8
392.842	1	5
393.013	1	6
393.184	1	11
393.355	1	14
393.525	1	9
393.696	1	-2
393.867	1	-3
394.038	1	2
394.208	1	6
394.379	1	-2
394.550	1	-3
394.721	1	-3
394.892	1	8
395.062	1	-8
395.233	1	3
395.404	1	6
395.575	1	-5
395.746	1	-5
395.916	1	5
396.087	1	-4
396.258	1	1
396.429	1	1
396.599	1	3
396.770	1	-2
396.941	1	19
397.112	1	4
397.283	1	1
397.453	1	-9
397.624	1	-2
397.795	1	3
397.966	1	7
398.136	1	3
398.307	1	-7
398.478	1	-1
398.649	1	4
398.819	1	3
398.990	1	0
399.161	1	5
399.332	1	3
399.503	1	1
399.673	1	-1
399.844	1	5
400.015	1	3
400.186	1	8
400.356	1	-4
400.527	1	-1
400.698	1	4
400.869	1	-3
401.039	1	1
401.210	1	5
401.381	1	5
401.552	1	12
401.722	1	7
401.893	1	11
402.064	1	7
402.235	1	13
402.405	1	7
402.576	1	18
402.747	1	0
402.918	1	-8
403.088	1	-7
403.259	1	-10
403.430	1	-4
403.601	1	-7
403.771	1	-4
403.942	1	2
404.113	1	7
404.284	1	3
404.454	1	8
404.625	1	2
404.796	1	-6
404.967	1	-3
405.137	1	-3
405.308	1	-3
405.479	1	4
405.649	1	2
405.820	1	1
405.991	1	5
406.162	1	-2
406.332	1	-4
406.503	1	0
406.674	1	5
406.845	1	4
407.015	1	-2
407.186	1	8
407.357	1	1
407.527	1	5
407.698	1	-12
407.869	1	-4
408.040	1	0
408.210	1	0
408.381	1	-2
408.552	1	-5
408.722	1	-1
408.893	1	-3
409.064	1	1
409.235	1	-3
409.405	1	3
409.576	1	3
409.747	1	-5
409.917	1	2
410.088	1	3
410.259	1	1
410.430	1	8
410.600	1	11
410.771	1	8
410.942	1	0
411.112	1	8
411.283	1	-10
411.454	1	2
411.625	1	1
411.795	1	1
411.966	1	-6
412.137	1	18
412.307	1	-13
412.478	1	-1
412.649	1	6
412.819	1	-7
412.990	1	3
413.161	1	-4
413.332	1	-5
413.502	1	1
413.673	1	7
413.844	1	4
414.014	1	-11
414.185	1	10
414.356	1	-6
414.526	1	-2
414.697	1	11
414.868	1	0
415.038	1	2
415.209	1	-5
415.380	1	-3
415.550	1	-7
415.721	1	7
415.892	1	-5
416.063	1	5
416.233	1	-6
416.404	1	-4
416.575	1	3
416.745	1	-8
416.916	1	-2
417.087	1	1
417.257	1	4
417.428	1	-4
417.599	1	5
417.769	1	0
417.940	1	-8
418.111	1	-7
418.281	1	0
418.452	1	-7
418.623	1	-1
418.793	1	3
418.964	1	6
419.135	1	6
419.305	1	-10
419.476	1	-4
419.647	1	3
419.817	1	7
419.988	1	-8
420.159	1	-7
420.329	1	1
420.500	1	7
420.671	1	3
420.841	1	11
421.012	1	8
421.183	1	8
421.353	1	4
421.524	1	7
421.695	1	-6
421.865	1	-2
422.036	1	0
422.206	1	-1
422.377	1	5
422.548	1	0
422.718	1	-3
422.889	1	7
423.060	1	-6
423.230	1	1
423.401	1	5
423.572	1	-2
423.742	1	-5
423.913	1	12
424.084	1	4
424.254	1	-4
424.425	1	-7
424.595	1	-16
424.766	1	-3
424.937	1	-2
425.107	1	-6
425.278	1	-10
425.449	1	2
425.619	1	-5
425.790	1	-1
425.961	1	-4
426.131	1	-7
426.302	1	-3
426.472	1	-7
426.643	1	-1
426.814	1	1
426.984	1	-3
427.155	1	-3
427.326	1	6
427.496	1	4
427.667	1	1
427.837	1	-1
428.008	1	3
428.179	1	-9
428.349	1	-10
428.520	1	-4
428.691	1	0
428.861	1	-11
429.032	1	-11
429.202	1	6
429.373	1	-9
429.544	1	3
429.714	1	-1
429.885	1	1
430.055	1	1
430.226	1	-3
430.397	1	8
430.567	1	4
430.738	1	-5
430.909	1	-7
431.079	1	4
431.250	1	-9
431.420	1	-8
431.591	1	1
431.762	1	-2
431.932	1	-3
432.103	1	-4
432.273	1	-4
432.444	1	6
432.615	1	5
432.785	1	-1
432.956	1	0
433.126	1	8
433.297	1	0
433.468	1	4
433.638	1	-9
433.809	1	4
433.979	1	-4
434.150	1	-10
434.320	1	-12
434.491	1	-1
434.662	1	-4
434.832	1	-1
435.003	1	13
435.173	1	-11
435.344	1	-2
435.515	1	-2
435.685	1	9
435.856	1	-2
436.026	1	1
436.197	1	-3
436.368	1	6
436.538	1	4
436.709	1	-5
436.879	1	-5
437.050	1	-4
437.220	1	9
437.391	1	-2
437.562	1	5
437.732	1	5
437.903	1	-6
438.073	1	1
438.244	1	-1
438.414	1	4
438.585	1	3
438.756	1	11
438.926	1	3
439.097	1	11
439.267	1	5
439.438	1	4
439.608	1	2
439.779	1	-12
439.949	1	3
440.120	1	3
440.291	1	-4
440.461	1	-3
440.632	1	1
440.802	1	9
440.973	1	2
441.143	1	7
441.314	1	5
441.485	1	-8
441.655	1	10
441.826	1	-4
441.996	1	2
442.167	1	-4
442.337	1	-9
442.508	1	2
442.678	1	-8
442.849	1	6
443.019	1	4
443.190	1	-5
443.361	1	4
443.531	1	-9
443.702	1	-4
443.872	1	3
444.043	1	-1
444.213	1	-9
444.384	1	6
444.554	1	-4
444.725	1	0
444.895	1	5
445.066	1	-13
445.237	1	0
445.407	1	-7
445.578	1	4
445.748	1	-11
445.919	1	-4
446.089	1	9
446.260	1	-4
446.430	1	-5
446.601	1	-2
446.771	1	-2
446.942	1	14
447.112	1	3
447.283	1	-2
447.453	1	-8
447.624	1	5
447.794	1	-3
447.965	1	-15
448.135	1	1
448.306	1	4
448.477	1	0
448.647	1	11
448.818	1	-1
448.988	1	-7
449.159	1	-9
449.329	1	-5
449.500	1	13
449.670	1	1
449.841	1	-4
450.011	1	0
450.182	1	-7
450.352	1	-2
450.523	1	0
450.693	1	-7
450.864	1	-4
451.034	1	7
451.205	1	-1
451.375	1	0
451.546	1	-1
451.716	1	4
451.887	1	-7
452.057	1	10
452.228	1	-9
452.398	1	-6
452.569	1	2
452.739	1	-7
452.910	1	-2
453.080	1	17
453.251	1	0
453.421	1	3
453.592	1	8
453.762	1	-3
453.933	1	12
454.103	1	3
454.274	1	2
454.444	1	9
454.615	1	4
454.785	1	-1
454.956	1	-7
455.126	1	-7
455.297	1	-3
455.467	1	3
455.638	1	3
455.808	1	1
455.979	1	3
456.149	1	3
456.320	1	-2
456.490	1	0
456.661	1	-7
456.831	1	8
457.001	1	-5
457.172	1	2
457.342	1	3
457.513	1	7
457.683	1	7
457.854	1	-9
458.024	1	-7
458.195	1	0
458.365	1	-3
458.536	1	2
458.706	1	0
458.877	1	-2
459.047	1	0
459.218	1	-1
459.388	1	0
459.559	1	7
459.729	1	-3
459.899	1	12
460.070	1	-1
460.240	1	6
460.411	1	7
460.581	1	-6
460.752	1	5
460.922	1	0
461.093	1	4
461.263	1	-7
461.434	1	3
461.604	1	-1
461.775	1	-1
461.945	1	6
462.115	1	-12
462.286	1	10
462.456	1	-1
462.627	1	2
462.797	1	-6
462.968	1	1
463.138	1	11
463.309	1	-4
463.479	1	7
463.649	1	1
463.820	1	1
463.990	1	-1
464.161	1	-3
464.331	1	0
464.502	1	4
464.672	1	-3
464.843	1	5
465.013	1	-11
465.183	1	5
465.354	1	5
465.524	1	-2
465.695	1	3
465.865	1	1
466.036	1	9
466.206	1	-7
466.376	1	-4
466.547	1	-5
466.717	1	-10
466.888	1	-12
467.058	1	9
467.229	1	8
467.399	1	0
467.569	1	-4
467.740	1	-8
467.910	1	-2
468.081	1	10
468.251	1	-3
468.422	1	2
468.592	1	9
468.762	1	-15
468.933	1	7
469.103	1	-3
469.274	1	-1
469.444	1	-6
469.614	1	2
469.785	1	-1
469.955	1	-10
470.126	1	9
470.296	1	3
470.467	1	-3
470.637	1	10
470.807	1	-1
470.978	1	0
471.148	1	-4
471.319	1	9
471.489	1	-8
471.659	1	0
471.830	1	16
472.000	1	7
472.171	1	0
472.341	1	5
472.511	1	1
472.682	1	0
472.852	1	-1
473.023	1	-4
473.193	1	-3
473.363	1	-1
473.534	1	3
473.704	1	8
473.875	1	3
474.045	1	-9
474.215	1	-7
474.386	1	6
474.556	1	-12
474.727	1	5
474.897	1	-10
475.067	1	-3
475.238	1	-1
475.408	1	-2
475.578	1	3
475.749	1	-3
475.919	1	-2
476.090	1	-7
476.260	1	-4
476.430	1	3
476.601	1	1
476.771	1	0
476.942	1	-3
477.112	1	3
477.282	1	-14
477.453	1	2
477.623	1	4
477.793	1	1
477.964	1	8
478.134	1	5
478.305	1	1
478.475	1	4
478.645	1	2
478.816	1	-6
478.986	1	-8
479.156	1	2
479.327	1	-7
479.497	1	-10
479.667	1	-2
479.838	1	-2
480.008	1	7
480.179	1	-5
480.349	1	-3
480.519	1	-2
480.690	1	-2
480.860	1	-3
481.030	1	-3
481.201	1	1
481.371	1	-1
481.541	1	-6
481.712	1	4
481.882	1	-6
482.053	1	6
482.223	1	-13
482.393	1	-10
482.564	1	-2
482.734	1	5
482.904	1	7
483.075	1	5
483.245	1	-9
483.415	1	7
483.586	1	-4
483.756	1	10
483.926	1	10
484.097	1	-6
484.267	1	1
484.437	1	-18
484.608	1	-6
484.778	1	2
484.948	1	-7
485.119	1	8
485.289	1	3
485.459	1	-1
485.630	1	-2
485.800	1	-8
485.970	1	5
486.141	1	-8
486.311	1	2
486.481	1	-4
486.652	1	-4
486.822	1	2
486.992	1	2
487.163	1	-13
487.333	1	-3
487.503	1	-13
487.674	1	-3
487.844	1	6
488.014	1	-5
488.185	1	-15
488.355	1	-2
488.525	1	-7
488.696	1	-5
488.866	1	15
489.036	1	4
489.207	1	14
489.377	1	10
489.547	1	-5
489.718	1	-1
489.888	1	0
490.058	1	-1
490.228	1	-5
490.399	1	2
490.569	1	8
490.739	1	10
490.910	1	-4
491.080	1	-2
491.250	1	-1
491.421	1	-9
491.591	1	-5
491.761	1	0
491.932	1	3
492.102	1	-6
492.272	1	12
492.442	1	-1
492.613	1	1
492.783	1	-10
492.953	1	6
493.124	1	-8
493.294	1	8
493.464	1	0
493.635	1	-9
493.805	1	9
493.975	1	-6
494.145	1	3
494.316	1	8
494.486	1	4
494.656	1	-1
494.827	1	4
494.997	1	-2
495.167	1	1
495.337	1	-2
495.508	1	-5
495.678	1	3
495.848	1	7
496.019	1	-10
496.189	1	-5
496.359	1	3
496.529	1	-7
496.700	1	-1
496.870	1	0
497.040	1	2
497.211	1	9
497.381	1	-15
497.551	1	7
497.721	1	-10
497.892	1	2
498.062	1	-10
498.232	1	6
498.403	1	1
498.573	1	-4
498.743	1	6
498.913	1	7
499.084	1	-4
499.254	1	-3
499.424	1	2
499.594	1	3
499.765	1	-10
499.935	1	-10
500.105	1	5
500.275	1	9
500.446	1	6
500.616	1	-6
500.786	1	2
500.956	1	4
501.127	1	12
501.297	1	-3
501.467	1	2
501.638	1	5
501.808	1	-10
501.978	1	5
502.148	1	3
502.319	1	-8
502.489	1	9
502.659	1	-9
502.829	1	5
503.000	1	9
503.170	1	-1
503.340	1	-7
503.510	1	9
503.681	1	1
503.851	1	-22
504.021	1	17
504.191	1	8
504.362	1	13
504.532	1	-6
504.702	1	9
504.872	1	-5
505.042	1	9
505.213	1	-2
505.383	1	3
505.553	1	6
505.723	1	1
505.894	1	-1
506.064	1	8
506.234	1	10
506.404	1	-2
506.575	1	-2
506.745	1	-9
506.915	1	-8
507.085	1	-13
507.256	1	-8
507.426	1	6
507.596	1	13
507.766	1	-3
507.936	1	7
508.107	1	-3
508.277	1	-5
508.447	1	-3
508.617	1	7
508.788	1	-7
508.958	1	15
509.128	1	2
509.298	1	14
509.468	1	-1
509.639	1	8
509.809	1	12
509.979	1	2
510.149	1	0
510.319	1	3
510.490	1	14
510.660	1	4
510.830	1	1
511.000	1	6
511.171	1	8
511.341	1	-9
511.511	1	-2
511.681	1	-4
511.851	1	-6
512.022	1	-4
512.192	1	9
512.362	1	-2
512.532	1	1
512.702	1	-13
512.873	1	2
513.043	1	-1
513.213	1	-9
513.383	1	-11
513.553	1	-9
513.724	1	3
513.894	1	-5
514.064	1	-3
514.234	1	1
514.404	1	2
514.575	1	5
514.745	1	-8
514.915	1	11
515.085	1	-6
515.255	1	-6
515.425	1	0
515.596	1	-8
515.766	1	-8
515.936	1	2
516.106	1	-3
516.276	1	7
516.447	1	-1
516.617	1	-1
516.787	1	-6
516.957	1	0
517.127	1	-4
517.297	1	8
517.468	1	7
517.638	1	5
517.808	1	2
517.978	1	-12
518.148	1	1
518.319	1	-4
518.489	1	-1
518.659	1	8
518.829	1	-4
518.999	1	-2
519.169	1	6
519.340	1	0
519.510	1	-5
519.680	1	-3
519.850	1	-8
520.020	1	-12
520.190	1	6
520.361	1	-10
520.531	1	9
520.701	1	6
520.871	1	-10
521.041	1	3
521.211	1	7
521.382	1	-8
521.552	1	7
521.722	1	2
521.892	1	-6
522.062	1	-2
522.232	1	-7
522.402	1	-14
522.573	1	11
522.743	1	-2
522.913	1	4
523.083	1	0
523.253	1	-1
523.423	1	-1
523.593	1	-13
523.764	1	11
523.934	1	7
524.104	1	-2
524.274	1	-1
524.444	1	6
524.614	1	5
524.784	1	10
524.955	1	-5
525.125	1	-1
525.295	1	-4
525.465	1	3
525.635	1	6
525.805	1	0
525.975	1	-5
526.146	1	-2
526.316	1	-2
526.486	1	3
526.656	1	11
526.826	1	0
526.996	1	12
527.166	1	2
527.337	1	2
527.507	1	-11
527.677	1	13
527.847	1	-7
528.017	1	-3
528.187	1	6
528.357	1	-1
528.527	1	0
528.698	1	-5
528.868	1	-3
529.038	1	7
529.208	1	-12
529.378	1	-1
529.548	1	1
529.718	1	11
529.888	1	10
530.058	1	1
530.229	1	2
530.399	1	5
530.569	1	11
530.739	1	-3
530.909	1	8
531.079	1	7
531.249	1	-5
531.419	1	3
531.589	1	-3
531.760	1	4
531.930	1	-12
532.100	1	6
532.270	1	7
532.440	1	-3
532.610	1	-3
532.780	1	-4
532.950	1	1
533.120	1	-6
533.290	1	-1
533.461	1	5
533.631	1	2
533.801	1	-1
533.971	1	-1
534.141	1	10
534.311	1	3
534.481	1	-2
534.651	1	8
534.821	1	9
534.991	1	4
535.162	1	0
535.332	1	7
535.502	1	6
535.672	1	-11
535.842	1	-3
536.012	1	10
536.182	1	-1
536.352	1	-2
536.522	1	11
536.692	1	0
536.862	1	8
537.032	1	-3
537.203	1	-4
537.373	1	-9
537.543	1	1
537.713	1	13
537.883	1	-3
538.053	1	1
538.223	1	14
538.393	1	9
538.563	1	2
538.733	1	-7
538.903	1	-2
539.073	1	5
539.243	1	-7
539.413	1	-8
539.584	1	-3
539.754	1	-6
539.924	1	-1
540.094	1	2
540.264	1	4
540.434	1	-3
540.604	1	2
540.774	1	8
540.944	1	-1
541.114	1	-13
541.284	1	-1
541.454	1	6
541.624	1	-2
541.794	1	5
541.964	1	5
542.134	1	13
542.305	1	-15
542.475	1	-2
542.645	1	-3
542.815	1	2
542.985	1	5
543.155	1	-5
543.325	1	-6
543.495	1	-8
543.665	1	12
543.835	1	-9
544.005	1	5
544.175	1	-1
544.345	1	-6
544.515	1	0
544.685	1	2
544.855	1	3
545.025	1	3
545.195	1	-1
545.365	1	2
545.535	1	-1
545.705	1	8
545.875	1	-6
546.045	1	4
546.216	1	12
546.386	1	0
546.556	1	-3
546.726	1	4
546.896	1	1
547.066	1	-3
547.236	1	-8
547.406	1	13
547.576	1	7
547.746	1	-2
547.916	1	4
548.086	1	15
548.256	1	-1
548.426	1	-6
548.596	1	2
548.766	1	5
548.936	1	-6
549.106	1	-2
549.276	1	12
549.446	1	-1
549.616	1	9
549.786	1	-1
549.956	1	6
550.126	1	1
550.296	1	11
550.466	1	-3
550.636	1	8
550.806	1	-2
550.976	1	9
551.146	1	-7
551.316	1	-6
551.486	1	7
551.656	1	3
551.826	1	4
551.996	1	-1
552.166	1	1
552.336	1	1
552.506	1	-9
552.676	1	-1
552.846	1	2
553.016	1	8
553.186	1	1
553.356	1	-14
553.526	1	5
553.696	1	16
553.866	1	-7
554.036	1	-2
554.206	1	6
554.376	1	-3
554.546	1	-7
554.716	1	2
554.886	1	7
555.056	1	-5
555.226	1	-10
555.396	1	-8
555.566	1	5
555.736	1	-4
555.906	1	5
556.076	1	6
556.246	1	-3
556.416	1	6
556.586	1	7
556.756	1	3
556.926	1	4
557.096	1	-11
557.266	1	3
557.436	1	11
557.606	1	-12
557.776	1	2
557.946	1	9
558.116	1	6
558.286	1	-3
558.456	1	-2
558.626	1	12
558.796	1	0
558.966	1	4
559.136	1	-6
559.306	1	2
559.476	1	2
559.646	1	-3
559.816	1	5
559.986	1	-5
560.155	1	-3
560.325	1	-8
560.495	1	-4
560.665	1	7
560.835	1	-1
561.005	1	-1
561.175	1	-3
561.345	1	-6
561.515	1	-3
561.685	1	-9
561.855	1	9
562.025	1	-6
562.195	1	-1
562.365	1	3
562.535	1	-4
562.705	1	6
562.875	1	-1
563.045	1	9
563.215	1	-6
563.385	1	-7
563.555	1	11
563.725	1	-4
563.895	1	-5
564.064	1	12
564.234	1	5
564.404	1	-8
564.574	1	-1
564.744	1	-2
564.914	1	-17
565.084	1	2
565.254	1	-1
565.424	1	0
565.594	1	-4
565.764	1	9
565.934	1	-1
566.104	1	6
566.274	1	16
566.444	1	0
566.614	1	-5
566.783	1	-7
566.953	1	4
567.123	1	12
567.293	1	-1
567.463	1	1
567.633	1	2
567.803	1	-10
567.973	1	-8
568.143	1	-9
568.313	1	-2
568.483	1	-1
568.653	1	-10
568.823	1	6
568.993	1	-4
569.162	1	1
569.332	1	-8
569.502	1	1
569.672	1	-3
569.842	1	-4
570.012	1	5
570.182	1	-10
570.352	1	-3
570.522	1	8
570.692	1	7
570.862	1	-1
571.031	1	0
571.201	1	4
571.371	1	-9
571.541	1	-4
571.711	1	-2
571.881	1	4
572.051	1	-1
572.221	1	4
572.391	1	3
572.561	1	-3
572.731	1	5
572.900	1	8
573.070	1	1
573.240	1	-6
573.410	1	-2
573.580	1	-4
573.750	1	5
573.920	1	6
574.090	1	9
574.260	1	-7
574.430	1	-7
574.599	1	1
574.769	1	6
574.939	1	-1
575.109	1	0
575.279	1	6
575.449	1	-8
575.619	1	0
575.789	1	9
575.959	1	-6
576.128	1	-2
576.298	1	-4
576.468	1	-13
576.638	1	3
576.808	1	-6
576.978	1	-2
577.148	1	8
577.318	1	10
577.487	1	1
577.657	1	-11
577.827	1	9
577.997	1	-9
578.167	1	12
578.337	1	-1
578.507	1	-11
578.677	1	-1
578.846	1	-4
579.016	1	14
579.186	1	0
579.356	1	2
579.526	1	-4
579.696	1	-1
579.866	1	5
580.036	1	-5
580.205	1	-1
580.375	1	-1
580.545	1	-6
580.715	1	8
580.885	1	1
581.055	1	5
581.225	1	-6
581.394	1	0
581.564	1	-4
581.734	1	3
581.904	1	-14
582.074	1	-5
582.244	1	4
582.414	1	6
582.583	1	-12
582.753	1	6
582.923	1	1
583.093	1	-5
583.263	1	0
583.433	1	-2
583.603	1	5
583.772	1	-1
583.942	1	5
584.112	1	0
584.282	1	4
584.452	1	0
584.622	1	5
584.791	1	-3
584.961	1	-1
585.131	1	-4
585.301	1	5
585.471	1	-8
585.641	1	10
585.811	1	-3
585.980	1	-8
586.150	1	-3
586.320	1	-8
586.490	1	-2
586.660	1	3
586.830	1	-6
586.999	1	1
587.169	1	-5
587.339	1	1
587.509	1	3
587.679	1	-1
587.849	1	8
588.018	1	3
588.188	1	-2
588.358	1	9
588.528	1	6
588.698	1	-6
588.867	1	4
589.037	1	7
589.207	1	-8
589.377	1	1
589.547	1	-5
589.717	1	6
589.886	1	-7
590.056	1	0
590.226	1	-7
590.396	1	-1
590.566	1	0
590.735	1	6
590.905	1	-5
591.075	1	-10
591.245	1	7
591.415	1	-6
591.585	1	-1
591.754	1	5
591.924	1	0
592.094	1	2
592.264	1	2
592.434	1	-2
592.603	1	-3
592.773	1	2
592.943	1	-4
593.113	1	-13
593.283	1	-3
593.452	1	-10
593.622	1	4
593.792	1	0
593.962	1	1
594.132	1	8
594.301	1	5
594.471	1	6
594.641	1	-7
594.811	1	-8
594.981	1	5
595.150	1	-3
595.320	1	5
595.490	1	2
595.660	1	-5
595.829	1	-4
595.999	1	3
596.169	1	-5
596.339	1	5
596.509	1	2
596.678	1	-1
596.848	1	14
597.018	1	3
597.188	1	2
597.358	1	-4
597.527	1	-14
597.697	1	-1
597.867	1	0
598.037	1	2
598.206	1	-10
598.376	1	5
598.546	1	-5
598.716	1	-5
598.885	1	-7
599.055	1	-1
599.225	1	-1
599.395	1	2
599.565	1	4
599.734	1	-8
599.904	1	-1
600.074	1	0
600.244	1	1
600.413	1	5
600.583	1	-4
600.753	1	-1
600.923	1	9
601.092	1	-9
601.262	1	4
601.432	1	4
601.602	1	13
601.771	1	0
601.941	1	-1
602.111	1	-5
602.281	1	3
602.451	1	-5
602.620	1	1
602.790	1	-4
602.960	1	-2
603.130	1	16
603.299	1	-5
603.469	1	7
603.639	1	3
603.809	1	3
603.978	1	-9
604.148	1	1
604.318	1	-1
604.487	1	-7
604.657	1	-4
604.827	1	-11
604.997	1	1
605.166	1	-7
605.336	1	-3
605.506	1	5
605.676	1	-8
605.845	1	-3
606.015	1	8
606.185	1	1
606.355	1	8
606.524	1	-8
606.694	1	13
606.864	1	0
607.034	1	-7
607.203	1	6
607.373	1	1
607.543	1	-16
607.712	1	10
607.882	1	-5
608.052	1	2
608.222	1	0
608.391	1	-4
608.561	1	5
608.731	1	-5
608.901	1	3
609.070	1	-4
609.240	1	15
609.410	1	-3
609.579	1	-1
609.749	1	-6
609.919	1	-6
610.089	1	-9
610.258	1	8
610.428	1	-4
610.598	1	1
610.767	1	-5
610.937	1	7
611.107	1	6
611.277	1	0
611.446	1	-4
611.616	1	-11
611.786	1	12
611.955	1	-1
612.125	1	6
612.295	1	-2
612.465	1	-9
612.634	1	-1
612.804	1	15
612.974	1	-1
613.143	1	0
613.313	1	1
613.483	1	7
613.652	1	-14
613.822	1	4
613.992	1	2
614.162	1	-4
614.331	1	-4
614.501	1	-3
614.671	1	1
614.840	1	8
615.010	1	7
615.180	1	-4
615.349	1	-3
615.519	1	7
615.689	1	-5
615.858	1	4
616.028	1	-7
616.198	1	10
616.368	1	-2
616.537	1	-6
616.707	1	2
616.877	1	-3
617.046	1	-4
617.216	1	-8
617.386	1	-6
617.555	1	-13
617.725	1	-4
617.895	1	-4
618.064	1	4
618.234	1	6
618.404	1	2
618.573	1	7
618.743	1	2
618.913	1	-2
619.082	1	-6
619.252	1	6
619.422	1	-11
619.591	1	-1
619.761	1	4
619.931	1	1
620.100	1	-5
620.270	1	-3
620.440	1	-1
620.609	1	-5
620.779	1	-10
620.949	1	2
621.118	1	-3
621.288	1	6
621.458	1	6
621.627	1	-2
621.797	1	15
621.967	1	-1
622.136	1	4
622.306	1	-7
622.476	1	0
622.645	1	0
622.815	1	-2
622.985	1	6
623.154	1	-2
623.324	1	7
623.494	1	4
623.663	1	-7
623.833	1	-6
624.002	1	-2
624.172	1	6
624.342	1	-8
624.511	1	11
624.681	1	-8
624.851	1	-8
625.020	1	3
625.190	1	-4
625.360	1	-4
625.529	1	8
625.699	1	-3
625.869	1	6
626.038	1	0
626.208	1	0
626.377	1	15
626.547	1	-1
626.717	1	-8
626.886	1	-1
627.056	1	-3
627.226	1	0
627.395	1	-3
627.565	1	13
627.735	1	7
627.904	1	5
628.074	1	14
628.243	1	-5
628.413	1	5
628.583	1	-7
628.752	1	8
628.922	1	-12
629.091	1	8
629.261	1	-7
629.431	1	-16
629.600	1	4
629.770	1	4
629.940	1	-4
630.109	1	-4
630.279	1	3
630.448	1	-9
630.618	1	-2
630.788	1	8
630.957	1	-11
631.127	1	8
631.297	1	-8
631.466	1	2
631.636	1	-3
631.805	1	-4
631.975	1	6
632.145	1	-14
632.314	1	4
632.484	1	4
632.653	1	-14
632.823	1	0
632.993	1	6
633.162	1	-8
633.332	1	3
633.501	1	-3
633.671	1	2
633.841	1	-8
634.010	1	-2
634.180	1	4
634.349	1	4
634.519	1	2
634.689	1	3
634.858	1	-3
635.028	1	-3
635.197	1	-3
635.367	1	-10
635.537	1	0
635.706	1	3
635.876	1	-5
636.045	1	3
636.215	1	-3
636.384	1	11
636.554	1	11
636.724	1	5
636.893	1	0
637.063	1	7
637.232	1	4
637.402	1	2
637.572	1	-5
637.741	1	2
637.911	1	-3
638.080	1	-5
638.250	1	3
638.419	1	-2
638.589	1	7
638.759	1	2
638.928	1	-13
639.098	1	-12
639.267	1	-1
639.437	1	-5
639.606	1	6
639.776	1	-2
639.946	1	-1
640.115	1	-2
640.285	1	-4
640.454	1	9
640.624	1	11
640.793	1	2
640.963	1	0
641.132	1	3
641.302	1	1
641.472	1	-3
641.641	1	1
641.811	1	-5
641.980	1	2
642.150	1	13
642.319	1	-3
642.489	1	-2
642.659	1	-15
642.828	1	-9
642.998	1	-10
643.167	1	8
643.337	1	8
643.506	1	-5
643.676	1	-8
643.845	1	-5
644.015	1	-8
644.184	1	1
644.354	1	-6
644.524	1	-13
644.693	1	1
644.863	1	-2
645.032	1	3
645.202	1	-5
645.371	1	-1
645.541	1	-6
645.710	1	0
645.880	1	-4
646.049	1	13
646.219	1	-3
646.388	1	-3
646.558	1	-2
646.728	1	8
646.897	1	-9
647.067	1	1
647.236	1	4
647.406	1	-3
647.575	1	-2
647.745	1	9
647.914	1	-6
648.084	1	4
648.253	1	9
648.423	1	-2
648.592	1	8
648.762	1	-5
648.931	1	-2
649.101	1	-6
649.270	1	10
649.440	1	11
649.610	1	4
649.779	1	-3
649.949	1	8
650.118	1	-7
650.288	1	-8
650.457	1	-6
650.627	1	-7
650.796	1	6
650.966	1	6
651.135	1	3
651.305	1	-1
651.474	1	13
651.644	1	1
651.813	1	0
651.983	1	-1
652.152	1	-4
652.322	1	0
652.491	1	3
652.661	1	2
652.830	1	5
653.000	1	-2
653.169	1	-1
653.339	1	-3
653.508	1	-6
653.678	1	1
653.847	1	4
654.017	1	7
654.186	1	2
654.356	1	8
654.525	1	-3
654.695	1	4
654.864	1	3
655.034	1	-13
655.203	1	4
655.373	1	-6
655.542	1	-4
655.712	1	-4
655.881	1	4
656.051	1	13
656.220	1	3
656.390	1	3
656.559	1	1
656.729	1	-2
656.898	1	3
657.068	1	3
657.237	1	17
657.406	1	5
657.576	1	-8
657.745	1	-9
657.915	1	16
658.084	1	5
658.254	1	2
658.423	1	-1
658.593	1	-16
658.762	1	-15
658.932	1	4
659.101	1	-10
659.271	1	2
659.440	1	18
659.610	1	2
659.779	1	-9
659.949	1	-4
660.118	1	4
660.288	1	0
660.457	1	-6
660.626	1	-5
660.796	1	3
660.965	1	-1
661.135	1	0
661.304	1	-4
661.474	1	1
661.643	1	-1
661.813	1	5
661.982	1	-6
662.152	1	-5
662.321	1	-4
662.491	1	-7
662.660	1	3
662.829	1	-5
662.999	1	-6
663.168	1	-3
663.338	1	-4
663.507	1	5
663.677	1	-6
663.846	1	0
664.016	1	4
664.185	1	-8
664.354	1	-1
664.524	1	-6
664.693	1	3
664.863	1	-3
665.032	1	0
665.202	1	-3
665.371	1	2
665.541	1	-5
665.710	1	5
665.879	1	5
666.049	1	1
666.218	1	-13
666.388	1	-1
666.557	1	-5
666.727	1	-11
666.896	1	-15
667.065	1	5
667.235	1	-2
667.404	1	-7
667.574	1	9
667.743	1	-3
667.913	1	3
668.082	1	-5
668.251	1	-2
668.421	1	3
668.590	1	-12
668.760	1	7
668.929	1	9
669.099	1	-6
669.268	1	-1
669.437	1	6
669.607	1	-16
669.776	1	6
669.946	1	2
670.115	1	0
670.285	1	1
670.454	1	0
670.623	1	-1
670.793	1	-4
670.962	1	-7
671.132	1	-2
671.301	1	-3
671.470	1	-1
671.640	1	-12
671.809	1	-6
671.979	1	16
672.148	1	4
672.317	1	-11
672.487	1	-3
672.656	1	1
672.826	1	-12
672.995	1	-2
673.164	1	7
673.334	1	-1
673.503	1	-7
673.673	1	14
673.842	1	1
674.011	1	7
674.181	1	-10
674.350	1	-2
674.520	1	-1
674.689	1	-3
674.858	1	-10
675.028	1	0
675.197	1	-15
675.367	1	10
675.536	1	2
675.705	1	-8
675.875	1	-2
676.044	1	-9
676.214	1	-1
676.383	1	-7
676.552	1	-5
676.722	1	-5
676.891	1	-3
677.060	1	2
677.230	1	13
677.399	1	-1
677.569	1	-9
677.738	1	-1
677.907	1	-14
678.077	1	3
678.246	1	-10
678.416	1	3
678.585	1	4
678.754	1	3
678.924	1	0
679.093	1	0
679.262	1	-10
679.432	1	-14
679.601	1	-3
679.771	1	1
679.940	1	-7
680.109	1	3
680.279	1	-6
680.448	1	4
680.617	1	-12
680.787	1	-6
680.956	1	6
681.125	1	-6
681.295	1	-4
681.464	1	-4
681.634	1	7
681.803	1	-4
681.972	1	-7
682.142	1	11
682.311	1	0
682.480	1	-10
682.650	1	-6
682.819	1	3
682.988	1	-6
683.158	1	3
683.327	1	10
683.496	1	-7
683.666	1	5
683.835	1	5
684.004	1	7
684.174	1	-2
684.343	1	0
684.512	1	0
684.682	1	4
684.851	1	3
685.021	1	-3
685.190	1	5
685.359	1	-5
685.529	1	-1
685.698	1	-3
685.867	1	-12
686.037	1	1
686.206	1	2
686.375	1	3
686.545	1	6
686.714	1	-1
686.883	1	-7
687.053	1	2
687.222	1	-10
687.391	1	-1
687.561	1	2
687.730	1	-11
687.899	1	-3
688.069	1	-5
688.238	1	-9
688.407	1	7
688.577	1	-2
688.746	1	3
