340.368	1	3
340.539	1	2
340.710	1	-2
340.881	1	-1
341.052	1	5
341.223	1	9
341.394	1	-7
341.565	1	-4
341.737	1	6
341.908	1	0
342.079	1	-3
342.250	1	6
342.421	1	-8
342.592	1	-4
342.763	1	-6
342.934	1	8
343.105	1	13
343.276	1	-4
343.447	1	6
343.618	1	4
343.789	1	-5
343.960	1	-10
344.131	1	-3
344.302	1	-2
344.473	1	-4
344.644	1	-1
344.815	1	2
344.986	1	6
345.157	1	6
345.328	1	0
345.499	1	7
345.670	1	0
345.841	1	-4
346.012	1	-1
346.183	1	1
346.354	1	2
346.526	1	8
346.697	1	-4
346.868	1	2
347.039	1	0
347.210	1	5
347.381	1	3
347.552	1	2
347.723	1	6
347.894	1	-1
348.065	1	0
348.236	1	3
348.407	1	-2
348.578	1	3
348.749	1	1
348.920	1	9
349.091	1	1
349.262	1	3
349.433	1	-4
349.604	1	12
349.775	1	5
349.946	1	9
350.117	1	4
350.288	1	9
350.459	1	9
350.630	1	-6
350.801	1	9
350.972	1	1
351.143	1	2
351.314	1	-9
351.485	1	-3
351.656	1	4
351.827	1	-1
351.998	1	6
352.169	1	8
352.340	1	5
352.511	1	-4
352.682	1	-2
352.853	1	-2
353.024	1	-15
353.195	1	0
353.366	1	5
353.537	1	2
353.708	1	2
353.879	1	5
354.050	1	2
354.221	1	0
354.392	1	20
354.563	1	10
354.734	1	1
354.905	1	3
355.076	1	3
355.247	1	-5
355.418	1	-1
355.589	1	-1
355.760	1	4
355.931	1	8
356.102	1	-2
356.273	1	2
356.444	1	-2
356.615	1	13
356.785	1	13
356.956	1	-1
357.127	1	1
357.298	1	3
357.469	1	2
357.640	1	5
357.811	1	19
357.982	1	-10
358.153	1	0
358.324	1	-3
358.495	1	9
358.666	1	-3
358.837	1	6
359.008	1	-1
359.179	1	7
359.350	1	-2
359.521	1	-3
359.692	1	2
359.863	1	-9
360.034	1	-6
360.205	1	3
360.376	1	8
360.547	1	1
360.718	1	5
360.889	1	5
361.060	1	1
361.231	1	-1
361.401	1	6
361.572	1	-1
361.743	1	2
361.914	1	4
362.085	1	-3
362.256	1	12
362.427	1	3
362.598	1	9
362.769	1	3
362.940	1	7
363.111	1	13
363.282	1	-2
363.453	1	2
363.624	1	10
363.795	1	3
363.966	1	7
364.137	1	1
364.308	1	-5
364.478	1	6
364.649	1	0
364.820	1	-1
364.991	1	9
365.162	1	-4
365.333	1	5
365.504	1	-2
365.675	1	7
365.846	1	-2
366.017	1	10
366.188	1	-3
366.359	1	3
366.530	1	10
366.701	1	-6
366.871	1	14
367.042	1	3
367.213	1	9
367.384	1	11
367.555	1	-2
367.726	1	10
367.897	1	3
368.068	1	2
368.239	1	18
368.410	1	5
368.581	1	8
368.752	1	-9
368.923	1	-14
369.093	1	6
369.264	1	-2
369.435	1	4
369.606	1	7
369.777	1	-6
369.948	1	0
370.119	1	2
370.290	1	-3
370.461	1	-3
370.632	1	-10
370.803	1	0
370.973	1	16
371.144	1	7
371.315	1	-6
371.486	1	12
371.657	1	13
371.828	1	-3
371.999	1	4
372.170	1	11
372.341	1	4
372.512	1	9
372.682	1	7
372.853	1	6
373.024	1	-7
373.195	1	-5
373.366	1	1
373.537	1	-3
373.708	1	3
373.879	1	13
374.050	1	2
374.220	1	5
374.391	1	7
374.562	1	0
374.733	1	5
374.904	1	8
375.075	1	17
375.246	1	0
375.417	1	-5
375.588	1	4
375.758	1	-7
375.929	1	10
376.100	1	15
376.271	1	-5
376.442	1	0
376.613	1	1
376.784	1	2
376.955	1	9
377.125	1	-1
377.296	1	4
377.467	1	-4
377.638	1	4
377.809	1	2
377.980	1	5
378.151	1	-2
378.321	1	5
378.492	1	3
378.663	1	-4
378.834	1	2
379.005	1	11
379.176	1	-7
379.347	1	3
379.518	1	-11
379.688	1	-6
379.859	1	-5
380.030	1	-4
380.201	1	-13
380.372	1	3
380.543	1	10
380.714	1	4
380.884	1	2
381.055	1	9
381.226	1	-3
381.397	1	1
381.568	1	-4
381.739	1	3
381.910	1	4
382.080	1	-14
382.251	1	-4
382.422	1	13
382.593	1	-2
382.764	1	0
382.935	1	8
383.105	1	5
383.276	1	7
383.447	1	5
383.618	1	17
383.789	1	1
383.960	1	-3
384.130	1	-5
384.301	1	12
384.472	1	-8
384.643	1	10
384.814	1	5
384.985	1	-3
385.156	1	10
385.326	1	5
385.497	1	10
385.668	1	11
385.839	1	11
386.010	1	7
386.180	1	7
386.351	1	-2
386.522	1	4
386.693	1	-2
386.864	1	0
387.035	1	0
387.205	1	-2
387.376	1	9
387.547	1	-4
387.718	1	9
387.889	1	11
388.060	1	3
388.230	1	2
388.401	1	12
388.572	1	5
388.743	1	6
388.914	1	4
389.084	1	8
389.255	1	10
389.426	1	2
389.597	1	-6
389.768	1	0
389.939	1	13
390.109	1	-6
390.280	1	18
390.451	1	13
390.622	1	-1
390.793	1	4
390.963	1	11
391.134	1	7
391.305	1	17
391.476	1	10
391.647	1	5
391.817	1	-4
391.988	1	2
392.159	1	4
392.330	1	4
392.501	1	-2
392.671	1	6
392.842	1	7
393.013	1	7
393.184	1	20
393.355	1	11
393.525	1	9
393.696	1	0
393.867	1	5
394.038	1	0
394.208	1	11
394.379	1	-11
394.550	1	4
394.721	1	8
394.892	1	14
395.062	1	0
395.233	1	13
395.404	1	1
395.575	1	-6
395.746	1	-2
395.916	1	7
396.087	1	7
396.258	1	-3
396.429	1	10
396.599	1	-1
396.770	1	16
396.941	1	16
397.112	1	1
397.283	1	4
397.453	1	-5
397.624	1	11
397.795	1	9
397.966	1	4
398.136	1	6
398.307	1	12
398.478	1	-11
398.649	1	8
398.819	1	9
398.990	1	3
399.161	1	6
399.332	1	7
399.503	1	1
399.673	1	2
399.844	1	7
400.015	1	0
400.186	1	11
400.356	1	-7
400.527	1	-1
400.698	1	-5
400.869	1	11
401.039	1	8
401.210	1	-4
401.381	1	13
401.552	1	18
401.722	1	20
401.893	1	4
402.064	1	8
402.235	1	7
402.405	1	8
402.576	1	5
402.747	1	-5
402.918	1	-8
403.088	1	-3
403.259	1	-8
403.430	1	0
403.601	1	2
403.771	1	6
403.942	1	9
404.113	1	17
404.284	1	7
404.454	1	13
404.625	1	5
404.796	1	-7
404.967	1	5
405.137	1	4
405.308	1	2
405.479	1	12
405.649	1	0
405.820	1	9
405.991	1	5
406.162	1	-1
406.332	1	0
406.503	1	-2
406.674	1	6
406.845	1	3
407.015	1	1
407.186	1	10
407.357	1	0
407.527	1	2
407.698	1	-7
407.869	1	-2
408.040	1	-3
408.210	1	-2
408.381	1	3
408.552	1	4
408.722	1	-1
408.893	1	-5
409.064	1	6
409.235	1	1
409.405	1	-3
409.576	1	8
409.747	1	3
409.917	1	3
410.088	1	10
410.259	1	6
410.430	1	4
410.600	1	-7
410.771	1	3
410.942	1	4
411.112	1	13
411.283	1	-8
411.454	1	11
411.625	1	-2
411.795	1	3
411.966	1	3
412.137	1	8
412.307	1	-8
412.478	1	16
412.649	1	3
412.819	1	0
412.990	1	8
413.161	1	5
413.332	1	2
413.502	1	3
413.673	1	9
413.844	1	-8
414.014	1	0
414.185	1	9
414.356	1	-5
414.526	1	0
414.697	1	13
414.868	1	16
415.038	1	0
415.209	1	2
415.380	1	-2
415.550	1	6
415.721	1	5
415.892	1	-5
416.063	1	8
416.233	1	10
416.404	1	7
416.575	1	2
416.745	1	1
416.916	1	4
417.087	1	-5
417.257	1	7
417.428	1	-11
417.599	1	2
417.769	1	3
417.940	1	-2
418.111	1	-5
418.281	1	-2
418.452	1	0
418.623	1	-3
418.793	1	-2
418.964	1	2
419.135	1	10
419.305	1	6
419.476	1	-1
419.647	1	10
419.817	1	10
419.988	1	-6
420.159	1	-7
420.329	1	1
420.500	1	8
420.671	1	3
420.841	1	2
421.012	1	12
421.183	1	2
421.353	1	7
421.524	1	7
421.695	1	-4
421.865	1	1
422.036	1	-2
422.206	1	0
422.377	1	11
422.548	1	7
422.718	1	6
422.889	1	8
423.060	1	0
423.230	1	6
423.401	1	8
423.572	1	-2
423.742	1	-3
423.913	1	6
424.084	1	6
424.254	1	0
424.425	1	-4
424.595	1	-9
424.766	1	8
424.937	1	-3
425.107	1	4
425.278	1	-10
425.449	1	5
425.619	1	-3
425.790	1	0
425.961	1	9
426.131	1	1
426.302	1	-2
426.472	1	-13
426.643	1	3
426.814	1	14
426.984	1	3
427.155	1	-2
427.326	1	0
427.496	1	0
427.667	1	8
427.837	1	-2
428.008	1	2
428.179	1	-5
428.349	1	-3
428.520	1	-3
428.691	1	11
428.861	1	7
429.032	1	2
429.202	1	16
429.373	1	-11
429.544	1	7
429.714	1	3
429.885	1	2
430.055	1	4
430.226	1	-3
430.397	1	6
430.567	1	17
430.738	1	5
430.909	1	-7
431.079	1	5
431.250	1	-3
431.420	1	14
431.591	1	2
431.762	1	0
431.932	1	11
432.103	1	1
432.273	1	0
432.444	1	5
432.615	1	5
432.785	1	0
432.956	1	-10
433.126	1	0
433.297	1	8
433.468	1	3
433.638	1	-3
433.809	1	12
433.979	1	1
434.150	1	-10
434.320	1	-5
434.491	1	6
434.662	1	-5
434.832	1	-6
435.003	1	1
435.173	1	6
435.344	1	1
435.515	1	-5
435.685	1	10
435.856	1	2
436.026	1	-4
436.197	1	-1
436.368	1	1
436.538	1	11
436.709	1	-3
436.879	1	0
437.050	1	2
437.220	1	6
437.391	1	0
437.562	1	8
437.732	1	-2
437.903	1	-7
438.073	1	11
438.244	1	-3
438.414	1	5
438.585	1	1
438.756	1	5
438.926	1	-2
439.097	1	14
439.267	1	13
439.438	1	10
439.608	1	-4
439.779	1	-1
439.949	1	0
440.120	1	1
440.291	1	-3
440.461	1	-5
440.632	1	2
440.802	1	-1
440.973	1	-1
441.143	1	9
441.314	1	0
441.485	1	-3
441.655	1	17
441.826	1	-4
441.996	1	-2
442.167	1	1
442.337	1	-3
442.508	1	-2
442.678	1	-3
442.849	1	1
443.019	1	8
443.190	1	-1
443.361	1	6
443.531	1	2
443.702	1	-1
443.872	1	-5
444.043	1	5
444.213	1	2
444.384	1	7
444.554	1	-1
444.725	1	11
444.895	1	-4
445.066	1	-2
445.237	1	-5
445.407	1	-8
445.578	1	6
445.748	1	-2
445.919	1	7
446.089	1	5
446.260	1	7
446.430	1	-8
446.601	1	-5
446.771	1	-1
446.942	1	1
447.112	1	-2
447.283	1	1
447.453	1	-9
447.624	1	8
447.794	1	-2
447.965	1	-7
448.135	1	2
448.306	1	-3
448.477	1	-4
448.647	1	2
448.818	1	6
448.988	1	-4
449.159	1	-9
449.329	1	0
449.500	1	9
449.670	1	8
449.841	1	0
450.011	1	7
450.182	1	0
450.352	1	7
450.523	1	0
450.693	1	6
450.864	1	8
451.034	1	3
451.205	1	9
451.375	1	14
451.546	1	0
451.716	1	6
451.887	1	-4
452.057	1	11
452.228	1	-8
452.398	1	7
452.569	1	4
452.739	1	-5
452.910	1	-6
453.080	1	15
453.251	1	-3
453.421	1	-1
453.592	1	-6
453.762	1	7
453.933	1	6
454.103	1	8
454.274	1	11
454.444	1	5
454.615	1	3
454.785	1	-4
454.956	1	1
455.126	1	-1
455.297	1	1
455.467	1	12
455.638	1	2
455.808	1	2
455.979	1	2
456.149	1	-11
456.320	1	5
456.490	1	4
456.661	1	-2
456.831	1	8
457.001	1	2
457.172	1	8
457.342	1	6
457.513	1	2
457.683	1	3
457.854	1	4
458.024	1	5
458.195	1	0
458.365	1	4
458.536	1	0
458.706	1	-1
458.877	1	1
459.047	1	-8
459.218	1	1
459.388	1	0
459.559	1	4
459.729	1	4
459.899	1	10
460.070	1	0
460.240	1	-4
460.411	1	12
460.581	1	4
460.752	1	3
460.922	1	5
461.093	1	-2
461.263	1	5
461.434	1	7
461.604	1	5
461.775	1	4
461.945	1	7
462.115	1	-9
462.286	1	10
462.456	1	-5
462.627	1	-2
462.797	1	1
462.968	1	-7
463.138	1	2
463.309	1	-2
463.479	1	12
463.649	1	6
463.820	1	8
463.990	1	9
464.161	1	5
464.331	1	-2
464.502	1	4
464.672	1	-3
464.843	1	1
465.013	1	-6
465.183	1	0
465.354	1	8
465.524	1	10
465.695	1	1
465.865	1	-1
466.036	1	9
466.206	1	1
466.376	1	-3
466.547	1	1
466.717	1	-4
466.888	1	-6
467.058	1	6
467.229	1	11
467.399	1	2
467.569	1	6
467.740	1	-4
467.910	1	2
468.081	1	-1
468.251	1	-5
468.422	1	1
468.592	1	6
468.762	1	-1
468.933	1	11
469.103	1	-6
469.274	1	-1
469.444	1	0
469.614	1	-7
469.785	1	8
469.955	1	3
470.126	1	8
470.296	1	4
470.467	1	0
470.637	1	6
470.807	1	6
470.978	1	-2
471.148	1	-9
471.319	1	1
471.489	1	3
471.659	1	9
471.830	1	17
472.000	1	-2
472.171	1	3
472.341	1	5
472.511	1	13
472.682	1	6
472.852	1	-3
473.023	1	3
473.193	1	-5
473.363	1	6
473.534	1	-7
473.704	1	-7
473.875	1	6
474.045	1	-12
474.215	1	2
474.386	1	15
474.556	1	-2
474.727	1	5
474.897	1	2
475.067	1	5
475.238	1	-2
475.408	1	2
475.578	1	11
475.749	1	-8
475.919	1	3
476.090	1	3
476.260	1	3
476.430	1	0
476.601	1	1
476.771	1	-2
476.942	1	-4
477.112	1	1
477.282	1	-6
477.453	1	3
477.623	1	3
477.793	1	11
477.964	1	11
478.134	1	6
478.305	1	8
478.475	1	2
478.645	1	-8
478.816	1	-2
478.986	1	6
479.156	1	1
479.327	1	8
479.497	1	-1
479.667	1	0
479.838	1	12
480.008	1	-7
480.179	1	4
480.349	1	-4
480.519	1	-1
480.690	1	1
480.860	1	0
481.030	1	-9
481.201	1	7
481.371	1	3
481.541	1	-4
481.712	1	11
481.882	1	-6
482.053	1	14
482.223	1	-7
482.393	1	-5
482.564	1	-3
482.734	1	3
482.904	1	4
483.075	1	2
483.245	1	-5
483.415	1	2
483.586	1	-7
483.756	1	19
483.926	1	16
484.097	1	-5
484.267	1	2
484.437	1	-5
484.608	1	-8
484.778	1	2
484.948	1	-1
485.119	1	6
485.289	1	2
485.459	1	4
485.630	1	1
485.800	1	-2
485.970	1	-2
486.141	1	-10
486.311	1	8
486.481	1	2
486.652	1	6
486.822	1	2
486.992	1	-11
487.163	1	3
487.333	1	1
487.503	1	-9
487.674	1	4
487.844	1	3
488.014	1	-3
488.185	1	0
488.355	1	2
488.525	1	-3
488.696	1	-1
488.866	1	15
489.036	1	-5
489.207	1	7
489.377	1	-2
489.547	1	-3
489.718	1	-4
489.888	1	2
490.058	1	2
490.228	1	-7
490.399	1	12
490.569	1	8
490.739	1	4
490.910	1	7
491.080	1	4
491.250	1	1
491.421	1	-7
491.591	1	-9
491.761	1	0
491.932	1	-1
492.102	1	-6
492.272	1	15
492.442	1	4
492.613	1	3
492.783	1	-13
492.953	1	4
493.124	1	-13
493.294	1	12
493.464	1	-7
493.635	1	-1
493.805	1	6
493.975	1	0
494.145	1	7
494.316	1	5
494.486	1	-2
494.656	1	1
494.827	1	-4
494.997	1	-4
495.167	1	5
495.337	1	2
495.508	1	-5
495.678	1	11
495.848	1	5
496.019	1	-2
496.189	1	6
496.359	1	4
496.529	1	-5
496.700	1	-2
496.870	1	0
497.040	1	-2
497.211	1	8
497.381	1	-11
497.551	1	6
497.721	1	-5
497.892	1	11
498.062	1	-4
498.232	1	4
498.403	1	-2
498.573	1	-9
498.743	1	4
498.913	1	3
499.084	1	-13
499.254	1	4
499.424	1	3
499.594	1	-1
499.765	1	2
499.935	1	-6
500.105	1	13
500.275	1	12
500.446	1	9
500.616	1	3
500.786	1	3
500.956	1	12
501.127	1	13
501.297	1	0
501.467	1	2
501.638	1	10
501.808	1	-6
501.978	1	8
502.148	1	4
502.319	1	-4
502.489	1	1
502.659	1	4
502.829	1	-9
503.000	1	7
503.170	1	1
503.340	1	-3
503.510	1	-8
503.681	1	-2
503.851	1	-12
504.021	1	15
504.191	1	0
504.362	1	3
504.532	1	-12
504.702	1	5
504.872	1	-1
505.042	1	2
505.213	1	3
505.383	1	-2
505.553	1	1
505.723	1	6
505.894	1	6
506.064	1	4
506.234	1	4
506.404	1	-4
506.575	1	1
506.745	1	2
506.915	1	7
507.085	1	-7
507.256	1	-2
507.426	1	1
507.596	1	6
507.766	1	10
507.936	1	-2
508.107	1	4
508.277	1	-1
508.447	1	1
508.617	1	8
508.788	1	2
508.958	1	6
509.128	1	4
509.298	1	12
509.468	1	1
509.639	1	1
509.809	1	3
509.979	1	6
510.149	1	-6
510.319	1	-1
510.490	1	7
510.660	1	13
510.830	1	3
511.000	1	-2
511.171	1	9
511.341	1	-7
511.511	1	-3
511.681	1	2
511.851	1	-5
512.022	1	2
512.192	1	8
512.362	1	4
512.532	1	-1
512.702	1	-4
512.873	1	9
513.043	1	2
513.213	1	-5
513.383	1	-10
513.553	1	1
513.724	1	6
513.894	1	2
514.064	1	-2
514.234	1	3
514.404	1	0
514.575	1	2
514.745	1	-3
514.915	1	6
515.085	1	6
515.255	1	0
515.425	1	-2
515.596	1	1
515.766	1	2
515.936	1	8
516.106	1	-2
516.276	1	0
516.447	1	4
516.617	1	13
516.787	1	1
516.957	1	2
517.127	1	0
517.297	1	9
517.468	1	2
517.638	1	0
517.808	1	-3
517.978	1	-3
518.148	1	-1
518.319	1	-1
518.489	1	7
518.659	1	11
518.829	1	-2
518.999	1	3
519.169	1	6
519.340	1	-1
519.510	1	5
519.680	1	-10
519.850	1	-11
520.020	1	2
520.190	1	-2
520.361	1	-5
520.531	1	5
520.701	1	2
520.871	1	-16
521.041	1	3
521.211	1	5
521.382	1	3
521.552	1	2
521.722	1	10
521.892	1	-9
522.062	1	-7
522.232	1	-5
522.402	1	-7
522.573	1	0
522.743	1	16
522.913	1	11
523.083	1	-6
523.253	1	-3
523.423	1	-6
523.593	1	-16
523.764	1	3
523.934	1	-3
524.104	1	-5
524.274	1	-7
524.444	1	7
524.614	1	1
524.784	1	-2
524.955	1	4
525.125	1	3
525.295	1	-2
525.465	1	1
525.635	1	7
525.805	1	8
525.975	1	1
526.146	1	1
526.316	1	0
526.486	1	2
526.656	1	19
526.826	1	8
526.996	1	17
527.166	1	6
527.337	1	-4
527.507	1	-4
527.677	1	20
527.847	1	-2
528.017	1	-8
528.187	1	4
528.357	1	9
528.527	1	6
528.698	1	-2
528.868	1	-10
529.038	1	8
529.208	1	7
529.378	1	2
529.548	1	-1
529.718	1	7
529.888	1	3
530.058	1	6
530.229	1	3
530.399	1	16
530.569	1	1
530.739	1	-5
530.909	1	5
531.079	1	8
531.249	1	-7
531.419	1	9
531.589	1	0
531.760	1	3
531.930	1	-5
532.100	1	4
532.270	1	9
532.440	1	3
532.610	1	0
532.780	1	2
532.950	1	6
533.120	1	-1
533.290	1	-1
533.461	1	14
533.631	1	-3
533.801	1	-2
533.971	1	1
534.141	1	13
534.311	1	-3
534.481	1	-2
534.651	1	8
534.821	1	-4
534.991	1	6
535.162	1	10
535.332	1	7
535.502	1	10
535.672	1	-9
535.842	1	4
536.012	1	2
536.182	1	7
536.352	1	7
536.522	1	4
536.692	1	3
536.862	1	6
537.032	1	-1
537.203	1	5
537.373	1	-1
537.543	1	2
537.713	1	6
537.883	1	9
538.053	1	0
538.223	1	10
538.393	1	11
538.563	1	5
538.733	1	3
538.903	1	3
539.073	1	0
539.243	1	-6
539.413	1	6
539.584	1	0
539.754	1	-1
539.924	1	-1
540.094	1	2
540.264	1	14
540.434	1	-2
540.604	1	1
540.774	1	6
540.944	1	1
541.114	1	-7
541.284	1	-7
541.454	1	15
541.624	1	-1
541.794	1	1
541.964	1	1
542.134	1	9
542.305	1	-7
542.475	1	4
542.645	1	3
542.815	1	1
542.985	1	-3
543.155	1	-1
543.325	1	2
543.495	1	1
543.665	1	8
543.835	1	-4
544.005	1	4
544.175	1	-4
544.345	1	6
544.515	1	-2
544.685	1	8
544.855	1	8
545.025	1	3
545.195	1	-4
545.365	1	7
545.535	1	10
545.705	1	4
545.875	1	-7
546.045	1	8
546.216	1	6
546.386	1	1
546.556	1	2
546.726	1	-2
546.896	1	0
547.066	1	-3
547.236	1	-7
547.406	1	1
547.576	1	9
547.746	1	17
547.916	1	7
548.086	1	6
548.256	1	3
548.426	1	2
548.596	1	11
548.766	1	8
548.936	1	-4
549.106	1	7
549.276	1	-1
549.446	1	13
549.616	1	10
549.786	1	8
549.956	1	11
550.126	1	-4
550.296	1	3
550.466	1	-3
550.636	1	3
550.806	1	-1
550.976	1	9
551.146	1	-5
551.316	1	-3
551.486	1	1
551.656	1	-19
551.826	1	7
551.996	1	1
552.166	1	-4
552.336	1	8
552.506	1	-7
552.676	1	0
552.846	1	-2
553.016	1	-9
553.186	1	3
553.356	1	-7
553.526	1	-1
553.696	1	11
553.866	1	-2
554.036	1	7
554.206	1	0
554.376	1	-6
554.546	1	-2
554.716	1	-2
554.886	1	-6
555.056	1	3
555.226	1	-2
555.396	1	4
555.566	1	1
555.736	1	2
555.906	1	7
556.076	1	2
556.246	1	-4
556.416	1	-7
556.586	1	2
556.756	1	0
556.926	1	8
557.096	1	-2
557.266	1	6
557.436	1	3
557.606	1	-1
557.776	1	3
557.946	1	13
558.116	1	3
558.286	1	9
558.456	1	-10
558.626	1	1
558.796	1	1
558.966	1	-4
559.136	1	5
559.306	1	4
559.476	1	-10
559.646	1	-3
559.816	1	4
559.986	1	-10
560.155	1	-7
560.325	1	-5
560.495	1	0
560.665	1	4
560.835	1	6
561.005	1	0
561.175	1	-1
561.345	1	-3
561.515	1	-3
561.685	1	-7
561.855	1	9
562.025	1	4
562.195	1	10
562.365	1	2
562.535	1	2
562.705	1	16
562.875	1	-4
563.045	1	3
563.215	1	0
563.385	1	-4
563.555	1	9
563.725	1	-4
563.895	1	-6
564.064	1	18
564.234	1	-1
564.404	1	0
564.574	1	-9
564.744	1	-2
564.914	1	-10
565.084	1	-4
565.254	1	6
565.424	1	5
565.594	1	-2
565.764	1	6
565.934	1	6
566.104	1	-10
566.274	1	2
566.444	1	7
566.614	1	1
566.783	1	0
566.953	1	4
567.123	1	19
567.293	1	0
567.463	1	-3
567.633	1	1
567.803	1	-7
567.973	1	-5
568.143	1	-2
568.313	1	-5
568.483	1	-13
568.653	1	-7
568.823	1	6
568.993	1	1
569.162	1	1
569.332	1	-11
569.502	1	0
569.672	1	0
569.842	1	-7
570.012	1	-2
570.182	1	1
570.352	1	3
570.522	1	-3
570.692	1	2
570.862	1	4
571.031	1	0
571.201	1	1
571.371	1	-8
571.541	1	-2
571.711	1	-1
571.881	1	8
572.051	1	8
572.221	1	8
572.391	1	7
572.561	1	-4
572.731	1	0
572.900	1	12
573.070	1	5
573.240	1	1
573.410	1	7
573.580	1	12
573.750	1	3
573.920	1	-3
574.090	1	10
574.260	1	-6
574.430	1	-6
574.599	1	11
574.769	1	-2
574.939	1	2
575.109	1	0
575.279	1	6
575.449	1	-1
575.619	1	1
575.789	1	10
575.959	1	-17
576.128	1	0
576.298	1	-1
576.468	1	-3
576.638	1	0
576.808	1	-4
576.978	1	4
577.148	1	5
577.318	1	8
577.487	1	1
577.657	1	-16
577.827	1	11
577.997	1	-9
578.167	1	2
578.337	1	2
578.507	1	0
578.677	1	-5
578.846	1	-3
579.016	1	20
579.186	1	9
579.356	1	-8
579.526	1	-3
579.696	1	9
579.866	1	0
580.036	1	3
580.205	1	5
580.375	1	0
580.545	1	0
580.715	1	3
580.885	1	1
581.055	1	-1
581.225	1	-1
581.394	1	-10
581.564	1	-9
581.734	1	4
581.904	1	8
582.074	1	-2
582.244	1	-1
582.414	1	0
582.583	1	-2
582.753	1	6
582.923	1	5
583.093	1	-6
583.263	1	10
583.433	1	-10
583.603	1	3
583.772	1	-1
583.942	1	10
584.112	1	3
584.282	1	5
584.452	1	0
584.622	1	1
584.791	1	0
584.961	1	8
585.131	1	-7
585.301	1	6
585.471	1	-1
585.641	1	4
585.811	1	-3
585.980	1	-5
586.150	1	1
586.320	1	-11
586.490	1	-4
586.660	1	2
586.830	1	-6
586.999	1	0
587.169	1	7
587.339	1	8
587.509	1	-4
587.679	1	3
587.849	1	17
588.018	1	1
588.188	1	2
588.358	1	-1
588.528	1	1
588.698	1	0
588.867	1	5
589.037	1	9
589.207	1	-5
589.377	1	12
589.547	1	-8
589.717	1	6
589.886	1	-8
590.056	1	-4
590.226	1	1
590.396	1	1
590.566	1	-2
590.735	1	8
590.905	1	4
591.075	1	-7
591.245	1	-2
591.415	1	-3
591.585	1	2
591.754	1	4
591.924	1	-3
592.094	1	4
592.264	1	1
592.434	1	-5
592.603	1	-3
592.773	1	1
592.943	1	1
593.113	1	-14
593.283	1	9
593.452	1	-8
593.622	1	0
593.792	1	1
593.962	1	2
594.132	1	-6
594.301	1	8
594.471	1	6
594.641	1	-9
594.811	1	-5
594.981	1	1
595.150	1	-1
595.320	1	1
595.490	1	0
595.660	1	-5
595.829	1	4
595.999	1	-3
596.169	1	-5
596.339	1	2
596.509	1	8
596.678	1	-5
596.848	1	14
597.018	1	7
597.188	1	5
597.358	1	8
597.527	1	-11
597.697	1	-17
597.867	1	10
598.037	1	1
598.206	1	6
598.376	1	7
598.546	1	-4
598.716	1	-4
598.885	1	0
599.055	1	5
599.225	1	7
599.395	1	8
599.565	1	5
599.734	1	-1
599.904	1	3
600.074	1	-3
600.244	1	4
600.413	1	-5
600.583	1	-8
600.753	1	7
600.923	1	20
601.092	1	-5
601.262	1	4
601.432	1	-8
601.602	1	0
601.771	1	3
601.941	1	10
602.111	1	-5
602.281	1	-14
602.451	1	6
602.620	1	2
602.790	1	1
602.960	1	-1
603.130	1	-3
603.299	1	3
603.469	1	2
603.639	1	10
603.809	1	18
603.978	1	4
604.148	1	2
604.318	1	0
604.487	1	-1
604.657	1	3
604.827	1	-8
604.997	1	-3
605.166	1	2
605.336	1	1
605.506	1	12
605.676	1	-6
605.845	1	-3
606.015	1	0
606.185	1	-3
606.355	1	2
606.524	1	-6
606.694	1	13
606.864	1	4
607.034	1	-4
607.203	1	-2
607.373	1	5
607.543	1	-3
607.712	1	18
607.882	1	2
608.052	1	1
608.222	1	3
608.391	1	0
608.561	1	1
608.731	1	-16
608.901	1	0
609.070	1	1
609.240	1	0
609.410	1	1
609.579	1	5
609.749	1	1
609.919	1	-5
610.089	1	0
610.258	1	3
610.428	1	-1
610.598	1	7
610.767	1	1
610.937	1	-7
611.107	1	3
611.277	1	1
611.446	1	3
611.616	1	-5
611.786	1	2
611.955	1	4
612.125	1	4
612.295	1	2
612.465	1	-5
612.634	1	7
612.804	1	18
612.974	1	3
613.143	1	3
613.313	1	3
613.483	1	11
613.652	1	6
613.822	1	6
613.992	1	-1
614.162	1	3
614.331	1	6
614.501	1	-1
614.671	1	7
614.840	1	0
615.010	1	5
615.180	1	10
615.349	1	4
615.519	1	16
615.689	1	-1
615.858	1	4
616.028	1	5
616.198	1	4
616.368	1	-2
616.537	1	-1
616.707	1	2
616.877	1	-2
617.046	1	13
617.216	1	-3
617.386	1	-1
617.555	1	5
617.725	1	10
617.895	1	-6
618.064	1	6
618.234	1	-2
618.404	1	-2
618.573	1	3
618.743	1	-9
618.913	1	5
619.082	1	4
619.252	1	-4
619.422	1	3
619.591	1	-8
619.761	1	2
619.931	1	5
620.100	1	0
620.270	1	-9
620.440	1	0
620.609	1	1
620.779	1	-3
620.949	1	0
621.118	1	-7
621.288	1	-3
621.458	1	4
621.627	1	-9
621.797	1	0
621.967	1	-2
622.136	1	4
622.306	1	7
622.476	1	6
622.645	1	2
622.815	1	4
622.985	1	3
623.154	1	-4
623.324	1	13
623.494	1	6
623.663	1	1
623.833	1	-4
624.002	1	2
624.172	1	16
624.342	1	-2
624.511	1	9
624.681	1	-4
624.851	1	-3
625.020	1	7
625.190	1	5
625.360	1	-8
625.529	1	3
625.699	1	-2
625.869	1	-2
626.038	1	-2
626.208	1	-12
626.377	1	18
626.547	1	4
626.717	1	-2
626.886	1	-1
627.056	1	-4
627.226	1	11
627.395	1	6
627.565	1	7
627.735	1	8
627.904	1	7
628.074	1	6
628.243	1	-9
628.413	1	4
628.583	1	2
628.752	1	15
628.922	1	6
629.091	1	10
629.261	1	7
629.431	1	-14
629.600	1	12
629.770	1	3
629.940	1	-3
630.109	1	-5
630.279	1	-2
630.448	1	0
630.618	1	3
630.788	1	2
630.957	1	-1
631.127	1	10
631.297	1	-1
631.466	1	1
631.636	1	-4
631.805	1	5
631.975	1	-6
632.145	1	-9
632.314	1	3
632.484	1	0
632.653	1	-3
632.823	1	7
632.993	1	3
633.162	1	0
633.332	1	-3
633.501	1	1
633.671	1	-2
633.841	1	7
634.010	1	12
634.180	1	6
634.349	1	-3
634.519	1	-5
634.689	1	1
634.858	1	-1
635.028	1	4
635.197	1	-6
635.367	1	-2
635.537	1	10
635.706	1	2
635.876	1	0
636.045	1	3
636.215	1	1
636.384	1	10
636.554	1	10
636.724	1	11
636.893	1	-1
637.063	1	8
637.232	1	-2
637.402	1	4
637.572	1	-1
637.741	1	6
637.911	1	0
638.080	1	4
638.250	1	2
638.419	1	9
638.589	1	13
638.759	1	2
638.928	1	-1
639.098	1	2
639.267	1	0
639.437	1	-8
639.606	1	17
639.776	1	0
639.946	1	4
640.115	1	6
640.285	1	4
640.454	1	16
640.624	1	8
640.793	1	8
640.963	1	4
641.132	1	10
641.302	1	9
641.472	1	-2
641.641	1	-6
641.811	1	0
641.980	1	0
642.150	1	-4
642.319	1	-2
642.489	1	9
642.659	1	-5
642.828	1	3
642.998	1	-5
643.167	1	13
643.337	1	8
643.506	1	-4
643.676	1	6
643.845	1	-5
644.015	1	7
644.184	1	10
644.354	1	-5
644.524	1	-7
644.693	1	10
644.863	1	-8
645.032	1	4
645.202	1	3
645.371	1	2
645.541	1	-8
645.710	1	6
645.880	1	1
646.049	1	11
646.219	1	3
646.388	1	-4
646.558	1	9
646.728	1	9
646.897	1	-3
647.067	1	5
647.236	1	1
647.406	1	-7
647.575	1	-2
647.745	1	7
647.914	1	2
648.084	1	1
648.253	1	6
648.423	1	-3
648.592	1	1
648.762	1	6
648.931	1	-4
649.101	1	8
649.270	1	10
649.440	1	-1
649.610	1	12
649.779	1	-1
649.949	1	-1
650.118	1	-14
650.288	1	3
650.457	1	0
650.627	1	5
650.796	1	-1
650.966	1	-1
651.135	1	12
651.305	1	-4
651.474	1	1
651.644	1	0
651.813	1	5
651.983	1	0
652.152	1	0
652.322	1	11
652.491	1	6
652.661	1	4
652.830	1	0
653.000	1	-8
653.169	1	5
653.339	1	7
653.508	1	3
653.678	1	6
653.847	1	-7
654.017	1	-2
654.186	1	0
654.356	1	2
654.525	1	-9
654.695	1	8
654.864	1	11
655.034	1	4
655.203	1	8
655.373	1	2
655.542	1	2
655.712	1	-3
655.881	1	10
656.051	1	14
656.220	1	11
656.390	1	-3
656.559	1	6
656.729	1	7
656.898	1	10
657.068	1	-4
657.237	1	1
657.406	1	4
657.576	1	-8
657.745	1	1
657.915	1	6
658.084	1	6
658.254	1	10
658.423	1	-18
658.593	1	-9
658.762	1	-6
658.932	1	7
659.101	1	3
659.271	1	3
659.440	1	13
659.610	1	4
659.779	1	-11
659.949	1	-2
660.118	1	9
660.288	1	0
660.457	1	1
660.626	1	0
660.796	1	0
660.965	1	-1
661.135	1	11
661.304	1	3
661.474	1	1
661.643	1	-3
661.813	1	6
661.982	1	-8
662.152	1	-2
662.321	1	11
662.491	1	0
662.660	1	3
662.829	1	-4
662.999	1	2
663.168	1	0
663.338	1	-14
663.507	1	4
663.677	1	-8
663.846	1	9
664.016	1	-2
664.185	1	-1
664.354	1	15
664.524	1	-6
664.693	1	3
664.863	1	10
665.032	1	3
665.202	1	-5
665.371	1	2
665.541	1	-5
665.710	1	-1
665.879	1	0
666.049	1	-2
666.218	1	1
666.388	1	-8
666.557	1	2
666.727	1	-9
666.896	1	2
667.065	1	-5
667.235	1	5
667.404	1	-2
667.574	1	7
667.743	1	3
667.913	1	-2
668.082	1	-1
668.251	1	4
668.421	1	-4
668.590	1	-2
668.760	1	7
668.929	1	5
669.099	1	-10
669.268	1	-1
669.437	1	7
669.607	1	-6
669.776	1	1
669.946	1	6
670.115	1	4
670.285	1	10
670.454	1	1
670.623	1	5
670.793	1	-1
670.962	1	2
671.132	1	11
671.301	1	-5
671.470	1	-3
671.640	1	-13
671.809	1	1
671.979	1	13
672.148	1	-3
672.317	1	-8
672.487	1	1
672.656	1	-1
672.826	1	-14
672.995	1	-1
673.164	1	4
673.334	1	6
673.503	1	1
673.673	1	12
673.842	1	5
674.011	1	11
674.181	1	-10
674.350	1	-1
674.520	1	-3
674.689	1	-7
674.858	1	0
675.028	1	-8
675.197	1	1
675.367	1	3
675.536	1	12
675.705	1	-2
675.875	1	1
676.044	1	-9
676.214	1	7
676.383	1	0
676.552	1	-7
676.722	1	-2
676.891	1	-9
677.060	1	2
677.230	1	12
677.399	1	2
677.569	1	-5
677.738	1	-2
677.907	1	-8
678.077	1	0
678.246	1	-4
678.416	1	-10
678.585	1	9
678.754	1	3
678.924	1	9
679.093	1	7
679.262	1	2
679.432	1	-10
679.601	1	-5
679.771	1	2
679.940	1	-7
680.109	1	12
680.279	1	-5
680.448	1	-1
680.617	1	-4
680.787	1	0
680.956	1	2
681.125	1	6
681.295	1	3
681.464	1	2
681.634	1	8
681.803	1	-3
681.972	1	-5
682.142	1	15
682.311	1	-4
682.480	1	-3
682.650	1	-2
682.819	1	0
682.988	1	-2
683.158	1	-1
683.327	1	4
683.496	1	-12
683.666	1	2
683.835	1	10
684.004	1	4
684.174	1	-2
684.343	1	-3
684.512	1	7
684.682	1	0
684.851	1	-1
685.021	1	10
685.190	1	3
685.359	1	-7
685.529	1	3
685.698	1	4
685.867	1	-1
686.037	1	4
686.206	1	-1
686.375	1	5
686.545	1	10
686.714	1	-4
686.883	1	-12
687.053	1	6
687.222	1	-7
687.391	1	-6
687.561	1	3
687.730	1	0
687.899	1	5
688.069	1	4
688.238	1	5
688.407	1	6
688.577	1	-5
688.746	1	6
