340.368	1	1
340.539	1	13
340.710	1	-9
340.881	1	-3
341.052	1	10
341.223	1	9
341.394	1	0
341.565	1	4
341.737	1	7
341.908	1	9
342.079	1	-2
342.250	1	0
342.421	1	5
342.592	1	-3
342.763	1	2
342.934	1	2
343.105	1	15
343.276	1	2
343.447	1	7
343.618	1	4
343.789	1	3
343.960	1	-5
344.131	1	-6
344.302	1	3
344.473	1	4
344.644	1	0
344.815	1	8
344.986	1	14
345.157	1	7
345.328	1	4
345.499	1	2
345.670	1	3
345.841	1	5
346.012	1	9
346.183	1	-3
346.354	1	-7
346.526	1	7
346.697	1	5
346.868	1	2
347.039	1	6
347.210	1	6
347.381	1	2
347.552	1	0
347.723	1	3
347.894	1	7
348.065	1	4
348.236	1	11
348.407	1	0
348.578	1	5
348.749	1	7
348.920	1	8
349.091	1	13
349.262	1	7
349.433	1	0
349.604	1	3
349.775	1	12
349.946	1	8
350.117	1	15
350.288	1	5
350.459	1	0
350.630	1	-3
350.801	1	3
350.972	1	3
351.143	1	-1
351.314	1	6
351.485	1	-6
351.656	1	9
351.827	1	2
351.998	1	-7
352.169	1	12
352.340	1	-1
352.511	1	1
352.682	1	4
352.853	1	-5
353.024	1	-3
353.195	1	0
353.366	1	11
353.537	1	2
353.708	1	7
353.879	1	21
354.050	1	7
354.221	1	-2
354.392	1	6
354.563	1	16
354.734	1	-4
354.905	1	12
355.076	1	14
355.247	1	-4
355.418	1	-10
355.589	1	3
355.760	1	7
355.931	1	5
356.102	1	0
356.273	1	6
356.444	1	3
356.615	1	5
356.785	1	18
356.956	1	7
357.127	1	2
357.298	1	6
357.469	1	3
357.640	1	10
357.811	1	13
357.982	1	0
358.153	1	11
358.324	1	2
358.495	1	13
358.666	1	9
358.837	1	2
359.008	1	6
359.179	1	8
359.350	1	5
359.521	1	2
359.692	1	12
359.863	1	-2
360.034	1	1
360.205	1	5
360.376	1	12
360.547	1	12
360.718	1	0
360.889	1	6
361.060	1	13
361.231	1	12
361.401	1	19
361.572	1	6
361.743	1	9
361.914	1	6
362.085	1	3
362.256	1	6
362.427	1	5
362.598	1	3
362.769	1	15
362.940	1	9
363.111	1	26
363.282	1	7
363.453	1	20
363.624	1	7
363.795	1	13
363.966	1	16
364.137	1	1
364.308	1	2
364.478	1	16
364.649	1	10
364.820	1	13
364.991	1	12
365.162	1	10
365.333	1	16
365.504	1	1
365.675	1	11
365.846	1	17
366.017	1	15
366.188	1	6
366.359	1	16
366.530	1	12
366.701	1	12
366.871	1	27
367.042	1	27
367.213	1	15
367.384	1	24
367.555	1	17
367.726	1	20
367.897	1	15
368.068	1	3
368.239	1	25
368.410	1	11
368.581	1	22
368.752	1	-3
368.923	1	7
369.093	1	16
369.264	1	22
369.435	1	17
369.606	1	14
369.777	1	14
369.948	1	19
370.119	1	16
370.290	1	13
370.461	1	11
370.632	1	24
370.803	1	5
370.973	1	20
371.144	1	21
371.315	1	12
371.486	1	15
371.657	1	15
371.828	1	13
371.999	1	13
372.170	1	16
372.341	1	14
372.512	1	11
372.682	1	13
372.853	1	15
373.024	1	0
373.195	1	7
373.366	1	4
373.537	1	6
373.708	1	4
373.879	1	16
374.050	1	17
374.220	1	8
374.391	1	8
374.562	1	8
374.733	1	20
374.904	1	8
375.075	1	15
375.246	1	14
375.417	1	23
375.588	1	9
375.758	1	-1
375.929	1	8
376.100	1	10
376.271	1	13
376.442	1	2
376.613	1	15
376.784	1	6
376.955	1	7
377.125	1	10
377.296	1	13
377.467	1	-6
377.638	1	16
377.809	1	18
377.980	1	5
378.151	1	4
378.321	1	17
378.492	1	13
378.663	1	3
378.834	1	8
379.005	1	13
379.176	1	9
379.347	1	14
379.518	1	-1
379.688	1	4
379.859	1	-8
380.030	1	7
380.201	1	-4
380.372	1	5
380.543	1	12
380.714	1	10
380.884	1	9
381.055	1	12
381.226	1	6
381.397	1	7
381.568	1	10
381.739	1	16
381.910	1	15
382.080	1	-5
382.251	1	10
382.422	1	22
382.593	1	11
382.764	1	10
382.935	1	15
383.105	1	10
383.276	1	8
383.447	1	26
383.618	1	19
383.789	1	7
383.960	1	13
384.130	1	3
384.301	1	10
384.472	1	4
384.643	1	19
384.814	1	26
384.985	1	13
385.156	1	26
385.326	1	16
385.497	1	24
385.668	1	17
385.839	1	14
386.010	1	28
386.180	1	14
386.351	1	12
386.522	1	21
386.693	1	20
386.864	1	23
387.035	1	21
387.205	1	23
387.376	1	22
387.547	1	17
387.718	1	33
387.889	1	25
388.060	1	8
388.230	1	24
388.401	1	30
388.572	1	20
388.743	1	24
388.914	1	28
389.084	1	34
389.255	1	23
389.426	1	20
389.597	1	10
389.768	1	20
389.939	1	14
390.109	1	14
390.280	1	23
390.451	1	23
390.622	1	13
390.793	1	20
390.963	1	25
391.134	1	22
391.305	1	24
391.476	1	30
391.647	1	18
391.817	1	10
391.988	1	5
392.159	1	23
392.330	1	17
392.501	1	17
392.671	1	24
392.842	1	22
393.013	1	17
393.184	1	28
393.355	1	24
393.525	1	28
393.696	1	17
393.867	1	14
394.038	1	2
394.208	1	26
394.379	1	7
394.550	1	15
394.721	1	17
394.892	1	31
395.062	1	-2
395.233	1	20
395.404	1	20
395.575	1	10
395.746	1	13
395.916	1	6
396.087	1	14
396.258	1	10
396.429	1	17
396.599	1	22
396.770	1	19
396.941	1	27
397.112	1	20
397.283	1	18
397.453	1	16
397.624	1	18
397.795	1	20
397.966	1	15
398.136	1	25
398.307	1	29
398.478	1	18
398.649	1	22
398.819	1	26
398.990	1	25
399.161	1	24
399.332	1	31
399.503	1	19
399.673	1	14
399.844	1	17
400.015	1	21
400.186	1	28
400.356	1	14
400.527	1	25
400.698	1	20
400.869	1	23
401.039	1	1
401.210	1	10
401.381	1	20
401.552	1	28
401.722	1	26
401.893	1	20
402.064	1	21
402.235	1	19
402.405	1	16
402.576	1	31
402.747	1	12
402.918	1	-1
403.088	1	5
403.259	1	6
403.430	1	10
403.601	1	2
403.771	1	10
403.942	1	17
404.113	1	25
404.284	1	9
404.454	1	35
404.625	1	16
404.796	1	7
404.967	1	11
405.137	1	15
405.308	1	13
405.479	1	17
405.649	1	18
405.820	1	12
405.991	1	22
406.162	1	13
406.332	1	8
406.503	1	15
406.674	1	20
406.845	1	6
407.015	1	5
407.186	1	25
407.357	1	16
407.527	1	9
407.698	1	6
407.869	1	13
408.040	1	2
408.210	1	10
408.381	1	13
408.552	1	18
408.722	1	5
408.893	1	15
409.064	1	17
409.235	1	14
409.405	1	15
409.576	1	20
409.747	1	5
409.917	1	14
410.088	1	16
410.259	1	17
410.430	1	15
410.600	1	12
410.771	1	15
410.942	1	18
411.112	1	14
411.283	1	8
411.454	1	14
411.625	1	14
411.795	1	14
411.966	1	18
412.137	1	24
412.307	1	10
412.478	1	10
412.649	1	5
412.819	1	11
412.990	1	12
413.161	1	10
413.332	1	8
413.502	1	12
413.673	1	25
413.844	1	11
414.014	1	10
414.185	1	14
414.356	1	4
414.526	1	9
414.697	1	24
414.868	1	24
415.038	1	10
415.209	1	7
415.380	1	15
415.550	1	6
415.721	1	6
415.892	1	3
416.063	1	26
416.233	1	4
416.404	1	9
416.575	1	3
416.745	1	11
416.916	1	9
417.087	1	11
417.257	1	12
417.428	1	1
417.599	1	15
417.769	1	18
417.940	1	-3
418.111	1	4
418.281	1	13
418.452	1	7
418.623	1	10
418.793	1	11
418.964	1	10
419.135	1	12
419.305	1	9
419.476	1	14
419.647	1	19
419.817	1	9
419.988	1	14
420.159	1	-1
420.329	1	16
420.500	1	18
420.671	1	13
420.841	1	15
421.012	1	18
421.183	1	22
421.353	1	16
421.524	1	12
421.695	1	2
421.865	1	10
422.036	1	5
422.206	1	6
422.377	1	4
422.548	1	3
422.718	1	8
422.889	1	9
423.060	1	7
423.230	1	17
423.401	1	13
423.572	1	11
423.742	1	14
423.913	1	17
424.084	1	9
424.254	1	3
424.425	1	-2
424.595	1	3
424.766	1	19
424.937	1	8
425.107	1	10
425.278	1	10
425.449	1	7
425.619	1	12
425.790	1	4
425.961	1	5
426.131	1	15
426.302	1	9
426.472	1	9
426.643	1	-2
426.814	1	11
426.984	1	12
427.155	1	5
427.326	1	17
427.496	1	18
427.667	1	13
427.837	1	4
428.008	1	20
428.179	1	-4
428.349	1	5
428.520	1	2
428.691	1	13
428.861	1	8
429.032	1	8
429.202	1	14
429.373	1	4
429.544	1	8
429.714	1	14
429.885	1	4
430.055	1	9
430.226	1	-3
430.397	1	6
430.567	1	13
430.738	1	5
430.909	1	-2
431.079	1	12
431.250	1	-6
431.420	1	12
431.591	1	5
431.762	1	18
431.932	1	14
432.103	1	12
432.273	1	9
432.444	1	5
432.615	1	10
432.785	1	13
432.956	1	6
433.126	1	-2
433.297	1	19
433.468	1	5
433.638	1	7
433.809	1	8
433.979	1	9
434.150	1	-1
434.320	1	15
434.491	1	13
434.662	1	5
434.832	1	-1
435.003	1	15
435.173	1	6
435.344	1	8
435.515	1	4
435.685	1	10
435.856	1	-4
436.026	1	18
436.197	1	7
436.368	1	-3
436.538	1	6
436.709	1	3
436.879	1	-2
437.050	1	12
437.220	1	6
437.391	1	15
437.562	1	20
437.732	1	2
437.903	1	8
438.073	1	13
438.244	1	1
438.414	1	4
438.585	1	11
438.756	1	8
438.926	1	7
439.097	1	16
439.267	1	21
439.438	1	16
439.608	1	6
439.779	1	3
439.949	1	19
440.120	1	-2
440.291	1	3
440.461	1	-4
440.632	1	2
440.802	1	15
440.973	1	6
441.143	1	16
441.314	1	8
441.485	1	5
441.655	1	17
441.826	1	-8
441.996	1	6
442.167	1	2
442.337	1	0
442.508	1	-3
442.678	1	3
442.849	1	9
443.019	1	4
443.190	1	-6
443.361	1	16
443.531	1	1
443.702	1	4
443.872	1	8
444.043	1	14
444.213	1	-4
444.384	1	8
444.554	1	2
444.725	1	7
444.895	1	-3
445.066	1	-2
445.237	1	0
445.407	1	6
445.578	1	8
445.748	1	5
445.919	1	6
446.089	1	14
446.260	1	5
446.430	1	0
446.601	1	7
446.771	1	6
446.942	1	4
447.112	1	8
447.283	1	8
447.453	1	3
447.624	1	-1
447.794	1	6
447.965	1	-4
448.135	1	5
448.306	1	9
448.477	1	1
448.647	1	13
448.818	1	7
448.988	1	-7
449.159	1	-3
449.329	1	7
449.500	1	19
449.670	1	13
449.841	1	6
450.011	1	12
450.182	1	6
450.352	1	7
450.523	1	8
450.693	1	4
450.864	1	5
451.034	1	3
451.205	1	2
451.375	1	8
451.546	1	4
451.716	1	14
451.887	1	-4
452.057	1	17
452.228	1	3
452.398	1	9
452.569	1	6
452.739	1	-3
452.910	1	4
453.080	1	8
453.251	1	13
453.421	1	-2
453.592	1	3
453.762	1	12
453.933	1	15
454.103	1	16
454.274	1	4
454.444	1	16
454.615	1	19
454.785	1	-4
454.956	1	2
455.126	1	1
455.297	1	12
455.467	1	5
455.638	1	3
455.808	1	-1
455.979	1	10
456.149	1	1
456.320	1	7
456.490	1	7
456.661	1	4
456.831	1	16
457.001	1	17
457.172	1	2
457.342	1	13
457.513	1	16
457.683	1	8
457.854	1	2
458.024	1	14
458.195	1	3
458.365	1	5
458.536	1	2
458.706	1	7
458.877	1	0
459.047	1	-3
459.218	1	8
459.388	1	16
459.559	1	1
459.729	1	4
459.899	1	8
460.070	1	9
460.240	1	4
460.411	1	8
460.581	1	14
460.752	1	11
460.922	1	-1
461.093	1	9
461.263	1	13
461.434	1	7
461.604	1	12
461.775	1	4
461.945	1	7
462.115	1	3
462.286	1	14
462.456	1	0
462.627	1	11
462.797	1	1
462.968	1	-4
463.138	1	11
463.309	1	8
463.479	1	10
463.649	1	9
463.820	1	2
463.990	1	6
464.161	1	6
464.331	1	9
464.502	1	14
464.672	1	-2
464.843	1	13
465.013	1	-5
465.183	1	1
465.354	1	2
465.524	1	17
465.695	1	9
465.865	1	-7
466.036	1	5
466.206	1	3
466.376	1	1
466.547	1	1
466.717	1	4
466.888	1	-4
467.058	1	9
467.229	1	12
467.399	1	6
467.569	1	2
467.740	1	7
467.910	1	2
468.081	1	6
468.251	1	4
468.422	1	1
468.592	1	14
468.762	1	1
468.933	1	12
469.103	1	5
469.274	1	11
469.444	1	1
469.614	1	-8
469.785	1	5
469.955	1	9
470.126	1	12
470.296	1	4
470.467	1	3
470.637	1	12
470.807	1	1
470.978	1	2
471.148	1	0
471.319	1	5
471.489	1	5
471.659	1	11
471.830	1	9
472.000	1	8
472.171	1	13
472.341	1	0
472.511	1	14
472.682	1	17
472.852	1	0
473.023	1	-13
473.193	1	-12
473.363	1	0
473.534	1	1
473.704	1	14
473.875	1	8
474.045	1	-4
474.215	1	-8
474.386	1	10
474.556	1	-1
474.727	1	7
474.897	1	14
475.067	1	6
475.238	1	-1
475.408	1	1
475.578	1	10
475.749	1	-14
475.919	1	9
476.090	1	-6
476.260	1	3
476.430	1	12
476.601	1	3
476.771	1	11
476.942	1	8
477.112	1	5
477.282	1	-9
477.453	1	5
477.623	1	11
477.793	1	3
477.964	1	12
478.134	1	4
478.305	1	0
478.475	1	-4
478.645	1	-7
478.816	1	4
478.986	1	-7
479.156	1	8
479.327	1	1
479.497	1	4
479.667	1	5
479.838	1	4
480.008	1	8
480.179	1	6
480.349	1	7
480.519	1	4
480.690	1	10
480.860	1	1
481.030	1	-2
481.201	1	-2
481.371	1	0
481.541	1	9
481.712	1	2
481.882	1	-2
482.053	1	6
482.223	1	-5
482.393	1	-12
482.564	1	-3
482.734	1	19
482.904	1	1
483.075	1	8
483.245	1	-5
483.415	1	9
483.586	1	4
483.756	1	12
483.926	1	16
484.097	1	-2
484.267	1	-3
484.437	1	-7
484.608	1	1
484.778	1	5
484.948	1	2
485.119	1	-4
485.289	1	19
485.459	1	7
485.630	1	-2
485.800	1	-1
485.970	1	11
486.141	1	-11
486.311	1	6
486.481	1	2
486.652	1	2
486.822	1	7
486.992	1	5
487.163	1	4
487.333	1	7
487.503	1	-3
487.674	1	3
487.844	1	10
488.014	1	9
488.185	1	2
488.355	1	3
488.525	1	-1
488.696	1	-9
488.866	1	10
489.036	1	9
489.207	1	11
489.377	1	9
489.547	1	8
489.718	1	-3
489.888	1	16
490.058	1	0
490.228	1	-6
490.399	1	10
490.569	1	10
490.739	1	4
490.910	1	3
491.080	1	4
491.250	1	8
491.421	1	-1
491.591	1	4
491.761	1	2
491.932	1	14
492.102	1	3
492.272	1	6
492.442	1	2
492.613	1	9
492.783	1	-8
492.953	1	6
493.124	1	3
493.294	1	17
493.464	1	0
493.635	1	-6
493.805	1	11
493.975	1	-1
494.145	1	8
494.316	1	12
494.486	1	14
494.656	1	12
494.827	1	0
494.997	1	2
495.167	1	0
495.337	1	9
495.508	1	1
495.678	1	14
495.848	1	17
496.019	1	5
496.189	1	3
496.359	1	9
496.529	1	5
496.700	1	6
496.870	1	2
497.040	1	-3
497.211	1	28
497.381	1	-6
497.551	1	19
497.721	1	-2
497.892	1	14
498.062	1	3
498.232	1	1
498.403	1	9
498.573	1	5
498.743	1	-2
498.913	1	10
499.084	1	-3
499.254	1	14
499.424	1	5
499.594	1	1
499.765	1	11
499.935	1	4
500.105	1	12
500.275	1	17
500.446	1	11
500.616	1	11
500.786	1	7
500.956	1	14
501.127	1	10
501.297	1	7
501.467	1	10
501.638	1	13
501.808	1	-8
501.978	1	16
502.148	1	12
502.319	1	13
502.489	1	6
502.659	1	0
502.829	1	11
503.000	1	13
503.170	1	12
503.340	1	12
503.510	1	5
503.681	1	3
503.851	1	-4
504.021	1	24
504.191	1	2
504.362	1	9
504.532	1	4
504.702	1	1
504.872	1	1
505.042	1	9
505.213	1	7
505.383	1	5
505.553	1	11
505.723	1	10
505.894	1	10
506.064	1	12
506.234	1	17
506.404	1	2
506.575	1	7
506.745	1	4
506.915	1	10
507.085	1	0
507.256	1	-3
507.426	1	15
507.596	1	7
507.766	1	8
507.936	1	13
508.107	1	12
508.277	1	8
508.447	1	11
508.617	1	12
508.788	1	12
508.958	1	19
509.128	1	13
509.298	1	20
509.468	1	13
509.639	1	12
509.809	1	12
509.979	1	4
510.149	1	1
510.319	1	1
510.490	1	16
510.660	1	14
510.830	1	3
511.000	1	9
511.171	1	17
511.341	1	6
511.511	1	13
511.681	1	3
511.851	1	-1
512.022	1	8
512.192	1	8
512.362	1	8
512.532	1	4
512.702	1	5
512.873	1	22
513.043	1	8
513.213	1	12
513.383	1	9
513.553	1	8
513.724	1	26
513.894	1	10
514.064	1	9
514.234	1	11
514.404	1	12
514.575	1	20
514.745	1	8
514.915	1	11
515.085	1	11
515.255	1	11
515.425	1	6
515.596	1	-7
515.766	1	17
515.936	1	6
516.106	1	3
516.276	1	11
516.447	1	17
516.617	1	13
516.787	1	7
516.957	1	9
517.127	1	5
517.297	1	14
517.468	1	7
517.638	1	14
517.808	1	16
517.978	1	-1
518.148	1	15
518.319	1	1
518.489	1	19
518.659	1	10
518.829	1	8
518.999	1	7
519.169	1	18
519.340	1	13
519.510	1	17
519.680	1	14
519.850	1	2
520.020	1	6
520.190	1	8
520.361	1	4
520.531	1	8
520.701	1	20
520.871	1	8
521.041	1	13
521.211	1	17
521.382	1	6
521.552	1	20
521.722	1	9
521.892	1	4
522.062	1	9
522.232	1	9
522.402	1	-2
522.573	1	12
522.743	1	18
522.913	1	15
523.083	1	15
523.253	1	12
523.423	1	3
523.593	1	7
523.764	1	14
523.934	1	10
524.104	1	6
524.274	1	8
524.444	1	16
524.614	1	16
524.784	1	12
524.955	1	11
525.125	1	5
525.295	1	7
525.465	1	23
525.635	1	21
525.805	1	11
525.975	1	6
526.146	1	12
526.316	1	4
526.486	1	16
526.656	1	10
526.826	1	22
526.996	1	24
527.166	1	15
527.337	1	11
527.507	1	-2
527.677	1	18
527.847	1	7
528.017	1	11
528.187	1	11
528.357	1	22
528.527	1	20
528.698	1	10
528.868	1	9
529.038	1	23
529.208	1	8
529.378	1	8
529.548	1	9
529.718	1	14
529.888	1	22
530.058	1	9
530.229	1	7
530.399	1	24
530.569	1	24
530.739	1	7
530.909	1	6
531.079	1	15
531.249	1	12
531.419	1	14
531.589	1	3
531.760	1	6
531.930	1	15
532.100	1	22
532.270	1	25
532.440	1	14
532.610	1	15
532.780	1	8
532.950	1	14
533.120	1	0
533.290	1	2
533.461	1	28
533.631	1	18
533.801	1	11
533.971	1	22
534.141	1	20
534.311	1	16
534.481	1	13
534.651	1	14
534.821	1	19
534.991	1	10
535.162	1	19
535.332	1	4
535.502	1	17
535.672	1	12
535.842	1	19
536.012	1	14
536.182	1	7
536.352	1	23
536.522	1	11
536.692	1	8
536.862	1	15
537.032	1	16
537.203	1	12
537.373	1	9
537.543	1	13
537.713	1	27
537.883	1	21
538.053	1	17
538.223	1	17
538.393	1	11
538.563	1	9
538.733	1	15
538.903	1	14
539.073	1	5
539.243	1	6
539.413	1	8
539.584	1	17
539.754	1	8
539.924	1	16
540.094	1	9
540.264	1	12
540.434	1	8
540.604	1	17
540.774	1	16
540.944	1	5
541.114	1	4
541.284	1	6
541.454	1	11
541.624	1	11
541.794	1	7
541.964	1	16
542.134	1	20
542.305	1	1
542.475	1	9
542.645	1	11
542.815	1	18
542.985	1	3
543.155	1	6
543.325	1	12
543.495	1	12
543.665	1	17
543.835	1	19
544.005	1	3
544.175	1	14
544.345	1	3
544.515	1	6
544.685	1	9
544.855	1	20
545.025	1	12
545.195	1	11
545.365	1	17
545.535	1	10
545.705	1	17
545.875	1	9
546.045	1	16
546.216	1	19
546.386	1	13
546.556	1	-2
546.726	1	18
546.896	1	3
547.066	1	-3
547.236	1	9
547.406	1	20
547.576	1	11
547.746	1	20
547.916	1	14
548.086	1	19
548.256	1	11
548.426	1	10
548.596	1	15
548.766	1	12
548.936	1	7
549.106	1	19
549.276	1	18
549.446	1	12
549.616	1	14
549.786	1	10
549.956	1	13
550.126	1	12
550.296	1	3
550.466	1	17
550.636	1	16
550.806	1	19
550.976	1	8
551.146	1	3
551.316	1	16
551.486	1	4
551.656	1	1
551.826	1	13
551.996	1	26
552.166	1	6
552.336	1	19
552.506	1	9
552.676	1	5
552.846	1	18
553.016	1	12
553.186	1	19
553.356	1	6
553.526	1	0
553.696	1	23
553.866	1	10
554.036	1	14
554.206	1	14
554.376	1	7
554.546	1	-1
554.716	1	8
554.886	1	11
555.056	1	-3
555.226	1	-5
555.396	1	8
555.566	1	17
555.736	1	9
555.906	1	13
556.076	1	9
556.246	1	12
556.416	1	12
556.586	1	18
556.756	1	15
556.926	1	11
557.096	1	-2
557.266	1	12
557.436	1	15
557.606	1	6
557.776	1	10
557.946	1	25
558.116	1	22
558.286	1	9
558.456	1	3
558.626	1	7
558.796	1	10
558.966	1	5
559.136	1	14
559.306	1	2
559.476	1	5
559.646	1	7
559.816	1	9
559.986	1	1
560.155	1	13
560.325	1	1
560.495	1	9
560.665	1	14
560.835	1	1
561.005	1	12
561.175	1	7
561.345	1	7
561.515	1	7
561.685	1	2
561.855	1	18
562.025	1	4
562.195	1	9
562.365	1	15
562.535	1	11
562.705	1	16
562.875	1	0
563.045	1	13
563.215	1	5
563.385	1	12
563.555	1	7
563.725	1	3
563.895	1	-5
564.064	1	11
564.234	1	8
564.404	1	5
564.574	1	2
564.744	1	9
564.914	1	0
565.084	1	1
565.254	1	10
565.424	1	1
565.594	1	3
565.764	1	24
565.934	1	11
566.104	1	6
566.274	1	5
566.444	1	12
566.614	1	6
566.783	1	5
566.953	1	8
567.123	1	27
567.293	1	7
567.463	1	9
567.633	1	5
567.803	1	3
567.973	1	1
568.143	1	-7
568.313	1	-2
568.483	1	1
568.653	1	-2
568.823	1	14
568.993	1	10
569.162	1	5
569.332	1	3
569.502	1	4
569.672	1	12
569.842	1	1
570.012	1	14
570.182	1	10
570.352	1	12
570.522	1	7
570.692	1	7
570.862	1	9
571.031	1	7
571.201	1	7
571.371	1	11
571.541	1	-3
571.711	1	20
571.881	1	14
572.051	1	18
572.221	1	9
572.391	1	8
572.561	1	-4
572.731	1	9
572.900	1	16
573.070	1	24
573.240	1	3
573.410	1	14
573.580	1	12
573.750	1	25
573.920	1	7
574.090	1	8
574.260	1	10
574.430	1	3
574.599	1	3
574.769	1	4
574.939	1	6
575.109	1	8
575.279	1	14
575.449	1	6
575.619	1	5
575.789	1	13
575.959	1	-4
576.128	1	3
576.298	1	4
576.468	1	-1
576.638	1	6
576.808	1	9
576.978	1	7
577.148	1	13
577.318	1	11
577.487	1	3
577.657	1	-10
577.827	1	9
577.997	1	-8
578.167	1	11
578.337	1	3
578.507	1	3
578.677	1	14
578.846	1	-2
579.016	1	23
579.186	1	3
579.356	1	-1
579.526	1	2
579.696	1	15
579.866	1	5
580.036	1	-4
580.205	1	7
580.375	1	0
580.545	1	5
580.715	1	18
580.885	1	12
581.055	1	7
581.225	1	3
581.394	1	2
581.564	1	9
581.734	1	5
581.904	1	7
582.074	1	-1
582.244	1	12
582.414	1	1
582.583	1	2
582.753	1	9
582.923	1	-1
583.093	1	-7
583.263	1	5
583.433	1	-10
583.603	1	13
583.772	1	7
583.942	1	10
584.112	1	2
584.282	1	18
584.452	1	7
584.622	1	6
584.791	1	11
584.961	1	7
585.131	1	-5
585.301	1	9
585.471	1	0
585.641	1	8
585.811	1	6
585.980	1	3
586.150	1	11
586.320	1	-3
586.490	1	-5
586.660	1	16
586.830	1	-7
586.999	1	-2
587.169	1	3
587.339	1	6
587.509	1	11
587.679	1	5
587.849	1	14
588.018	1	13
588.188	1	2
588.358	1	1
588.528	1	-2
588.698	1	2
588.867	1	4
589.037	1	10
589.207	1	5
589.377	1	13
589.547	1	1
589.717	1	10
589.886	1	-3
590.056	1	14
590.226	1	1
590.396	1	3
590.566	1	7
590.735	1	18
590.905	1	10
591.075	1	3
591.245	1	10
591.415	1	-3
591.585	1	-4
591.754	1	13
591.924	1	0
592.094	1	2
592.264	1	3
592.434	1	11
592.603	1	-6
592.773	1	-1
592.943	1	3
593.113	1	-6
593.283	1	17
593.452	1	-6
593.622	1	8
593.792	1	-6
593.962	1	8
594.132	1	3
594.301	1	11
594.471	1	4
594.641	1	-1
594.811	1	7
594.981	1	10
595.150	1	7
595.320	1	12
595.490	1	-1
595.660	1	-1
595.829	1	-1
595.999	1	3
596.169	1	7
596.339	1	4
596.509	1	3
596.678	1	6
596.848	1	9
597.018	1	7
597.188	1	9
597.358	1	11
597.527	1	6
597.697	1	2
597.867	1	0
598.037	1	10
598.206	1	4
598.376	1	16
598.546	1	4
598.716	1	1
598.885	1	6
599.055	1	6
599.225	1	-2
599.395	1	13
599.565	1	4
599.734	1	3
599.904	1	3
600.074	1	2
600.244	1	10
600.413	1	3
600.583	1	-2
600.753	1	1
600.923	1	15
601.092	1	1
601.262	1	7
601.432	1	2
601.602	1	8
601.771	1	18
601.941	1	0
602.111	1	0
602.281	1	1
602.451	1	4
602.620	1	8
602.790	1	8
602.960	1	-3
603.130	1	5
603.299	1	2
603.469	1	3
603.639	1	13
603.809	1	4
603.978	1	1
604.148	1	8
604.318	1	10
604.487	1	12
604.657	1	11
604.827	1	-6
604.997	1	3
605.166	1	2
605.336	1	3
605.506	1	10
605.676	1	2
605.845	1	0
606.015	1	11
606.185	1	-2
606.355	1	3
606.524	1	0
606.694	1	13
606.864	1	2
607.034	1	0
607.203	1	12
607.373	1	9
607.543	1	4
607.712	1	18
607.882	1	0
608.052	1	3
608.222	1	6
608.391	1	6
608.561	1	3
608.731	1	-5
608.901	1	9
609.070	1	6
609.240	1	9
609.410	1	9
609.579	1	11
609.749	1	0
609.919	1	-3
610.089	1	-1
610.258	1	6
610.428	1	0
610.598	1	0
610.767	1	1
610.937	1	0
611.107	1	15
611.277	1	2
611.446	1	10
611.616	1	-2
611.786	1	16
611.955	1	7
612.125	1	7
612.295	1	-2
612.465	1	4
612.634	1	3
612.804	1	10
612.974	1	21
613.143	1	5
613.313	1	4
613.483	1	11
613.652	1	4
613.822	1	14
613.992	1	7
614.162	1	4
614.331	1	3
614.501	1	2
614.671	1	19
614.840	1	14
615.010	1	5
615.180	1	4
615.349	1	8
615.519	1	10
615.689	1	-3
615.858	1	0
616.028	1	1
616.198	1	15
616.368	1	0
616.537	1	5
616.707	1	3
616.877	1	14
617.046	1	3
617.216	1	6
617.386	1	3
617.555	1	-12
617.725	1	8
617.895	1	-2
618.064	1	7
618.234	1	4
618.404	1	8
618.573	1	0
618.743	1	12
618.913	1	2
619.082	1	5
619.252	1	3
619.422	1	4
619.591	1	3
619.761	1	4
619.931	1	9
620.100	1	8
620.270	1	7
620.440	1	2
620.609	1	4
620.779	1	0
620.949	1	3
621.118	1	5
621.288	1	14
621.458	1	7
621.627	1	-3
621.797	1	11
621.967	1	0
622.136	1	12
622.306	1	8
622.476	1	7
622.645	1	-2
622.815	1	6
622.985	1	5
623.154	1	5
623.324	1	7
623.494	1	11
623.663	1	-3
623.833	1	2
624.002	1	4
624.172	1	10
624.342	1	4
624.511	1	4
624.681	1	-1
624.851	1	-4
625.020	1	6
625.190	1	9
625.360	1	-3
625.529	1	9
625.699	1	6
625.869	1	16
626.038	1	10
626.208	1	2
626.377	1	7
626.547	1	4
626.717	1	3
626.886	1	3
627.056	1	7
627.226	1	5
627.395	1	6
627.565	1	22
627.735	1	3
627.904	1	1
628.074	1	13
628.243	1	3
628.413	1	-5
628.583	1	-1
628.752	1	12
628.922	1	-1
629.091	1	8
629.261	1	10
629.431	1	-8
629.600	1	15
629.770	1	12
629.940	1	8
630.109	1	5
630.279	1	3
630.448	1	-1
630.618	1	8
630.788	1	3
630.957	1	3
631.127	1	11
631.297	1	7
631.466	1	4
631.636	1	-5
631.805	1	5
631.975	1	10
632.145	1	-12
632.314	1	13
632.484	1	-5
632.653	1	-9
632.823	1	14
632.993	1	8
633.162	1	-6
633.332	1	7
633.501	1	2
633.671	1	7
633.841	1	8
634.010	1	7
634.180	1	10
634.349	1	6
634.519	1	0
634.689	1	11
634.858	1	9
635.028	1	0
635.197	1	3
635.367	1	2
635.537	1	6
635.706	1	3
635.876	1	0
636.045	1	-2
636.215	1	2
636.384	1	13
636.554	1	11
636.724	1	7
636.893	1	11
637.063	1	4
637.232	1	8
637.402	1	9
637.572	1	-2
637.741	1	5
637.911	1	0
638.080	1	9
638.250	1	9
638.419	1	6
638.589	1	4
638.759	1	7
638.928	1	-3
639.098	1	12
639.267	1	5
639.437	1	6
639.606	1	9
639.776	1	4
639.946	1	2
640.115	1	-1
640.285	1	9
640.454	1	15
640.624	1	10
640.793	1	18
640.963	1	9
641.132	1	4
641.302	1	4
641.472	1	-1
641.641	1	2
641.811	1	10
641.980	1	-4
642.150	1	2
642.319	1	2
642.489	1	-4
642.659	1	0
642.828	1	7
642.998	1	-1
643.167	1	10
643.337	1	10
643.506	1	-1
643.676	1	13
643.845	1	6
644.015	1	11
644.184	1	13
644.354	1	-2
644.524	1	-3
644.693	1	4
644.863	1	0
645.032	1	6
645.202	1	8
645.371	1	-5
645.541	1	-3
645.710	1	5
645.880	1	4
646.049	1	13
646.219	1	8
646.388	1	1
646.558	1	8
646.728	1	9
646.897	1	-2
647.067	1	-2
647.236	1	10
647.406	1	2
647.575	1	8
647.745	1	6
647.914	1	7
648.084	1	2
648.253	1	11
648.423	1	3
648.592	1	6
648.762	1	5
648.931	1	5
649.101	1	2
649.270	1	10
649.440	1	6
649.610	1	11
649.779	1	14
649.949	1	2
650.118	1	7
650.288	1	-2
650.457	1	4
650.627	1	-6
650.796	1	16
650.966	1	-1
651.135	1	13
651.305	1	-6
651.474	1	13
651.644	1	-2
651.813	1	18
651.983	1	1
652.152	1	-6
652.322	1	10
652.491	1	7
652.661	1	10
652.830	1	11
653.000	1	4
653.169	1	6
653.339	1	9
653.508	1	-4
653.678	1	7
653.847	1	4
654.017	1	1
654.186	1	4
654.356	1	20
654.525	1	1
654.695	1	8
654.864	1	7
655.034	1	4
655.203	1	15
655.373	1	7
655.542	1	1
655.712	1	0
655.881	1	10
656.051	1	5
656.220	1	1
656.390	1	6
656.559	1	2
656.729	1	-1
656.898	1	3
657.068	1	3
657.237	1	3
657.406	1	0
657.576	1	7
657.745	1	-4
657.915	1	5
658.084	1	9
658.254	1	8
658.423	1	-11
658.593	1	-8
658.762	1	0
658.932	1	8
659.101	1	1
659.271	1	13
659.440	1	14
659.610	1	10
659.779	1	0
659.949	1	-5
660.118	1	0
660.288	1	0
660.457	1	-6
660.626	1	-4
660.796	1	11
660.965	1	12
661.135	1	5
661.304	1	7
661.474	1	2
661.643	1	10
661.813	1	8
661.982	1	1
662.152	1	-3
662.321	1	7
662.491	1	8
662.660	1	12
662.829	1	12
662.999	1	8
663.168	1	-9
663.338	1	-8
663.507	1	-4
663.677	1	-1
663.846	1	7
664.016	1	6
664.185	1	1
664.354	1	12
664.524	1	-5
664.693	1	4
664.863	1	3
665.032	1	12
665.202	1	-2
665.371	1	14
665.541	1	5
665.710	1	4
665.879	1	7
666.049	1	8
666.218	1	4
666.388	1	-5
666.557	1	3
666.727	1	-8
666.896	1	-7
667.065	1	13
667.235	1	-3
667.404	1	-12
667.574	1	3
667.743	1	1
667.913	1	3
668.082	1	-3
668.251	1	1
668.421	1	4
668.590	1	-1
668.760	1	4
668.929	1	6
669.099	1	4
669.268	1	-8
669.437	1	10
669.607	1	0
669.776	1	2
669.946	1	10
670.115	1	-4
670.285	1	13
670.454	1	4
670.623	1	8
670.793	1	-3
670.962	1	3
671.132	1	9
671.301	1	3
671.470	1	3
671.640	1	-17
671.809	1	-1
671.979	1	14
672.148	1	10
672.317	1	10
672.487	1	-2
672.656	1	4
672.826	1	-11
672.995	1	4
673.164	1	4
673.334	1	18
673.503	1	7
673.673	1	12
673.842	1	1
674.011	1	9
674.181	1	-10
674.350	1	0
674.520	1	-4
674.689	1	2
674.858	1	1
675.028	1	-7
675.197	1	3
675.367	1	9
675.536	1	8
675.705	1	-4
675.875	1	8
676.044	1	2
676.214	1	-3
676.383	1	4
676.552	1	2
676.722	1	-7
676.891	1	-12
677.060	1	-1
677.230	1	5
677.399	1	-1
677.569	1	-6
677.738	1	-3
677.907	1	-1
678.077	1	2
678.246	1	1
678.416	1	7
678.585	1	8
678.754	1	-1
678.924	1	2
679.093	1	9
679.262	1	-1
679.432	1	-3
679.601	1	-8
679.771	1	5
679.940	1	7
680.109	1	8
680.279	1	-9
680.448	1	3
680.617	1	2
680.787	1	-2
680.956	1	5
681.125	1	9
681.295	1	7
681.464	1	-3
681.634	1	5
681.803	1	-10
681.972	1	-7
682.142	1	9
682.311	1	5
682.480	1	-1
682.650	1	-7
682.819	1	12
682.988	1	6
683.158	1	6
683.327	1	2
683.496	1	0
683.666	1	9
683.835	1	12
684.004	1	7
684.174	1	-3
684.343	1	-1
684.512	1	0
684.682	1	9
684.851	1	5
685.021	1	5
685.190	1	22
685.359	1	-2
685.529	1	-4
685.698	1	4
685.867	1	6
686.037	1	7
686.206	1	5
686.375	1	4
686.545	1	9
686.714	1	-3
686.883	1	2
687.053	1	14
687.222	1	-4
687.391	1	-7
687.561	1	12
687.730	1	-5
687.899	1	-2
688.069	1	0
688.238	1	12
688.407	1	8
688.577	1	3
688.746	1	6
