340.368	1	-1
340.539	1	6
340.710	1	0
340.881	1	14
341.052	1	-3
341.223	1	9
341.394	1	4
341.565	1	-8
341.737	1	1
341.908	1	12
342.079	1	-8
342.250	1	-3
342.421	1	4
342.592	1	5
342.763	1	6
342.934	1	-3
343.105	1	10
343.276	1	-10
343.447	1	8
343.618	1	3
343.789	1	-9
343.960	1	1
344.131	1	3
344.302	1	-15
344.473	1	3
344.644	1	3
344.815	1	9
344.986	1	4
345.157	1	1
345.328	1	-5
345.499	1	2
345.670	1	4
345.841	1	11
346.012	1	11
346.183	1	5
346.354	1	3
346.526	1	9
346.697	1	2
346.868	1	1
347.039	1	-4
347.210	1	0
347.381	1	-5
347.552	1	4
347.723	1	12
347.894	1	6
348.065	1	-1
348.236	1	10
348.407	1	8
348.578	1	12
348.749	1	5
348.920	1	8
349.091	1	2
349.262	1	-1
349.433	1	-5
349.604	1	18
349.775	1	11
349.946	1	16
350.117	1	11
350.288	1	1
350.459	1	9
350.630	1	-6
350.801	1	7
350.972	1	-6
351.143	1	1
351.314	1	9
351.485	1	7
351.656	1	10
351.827	1	3
351.998	1	3
352.169	1	17
352.340	1	0
352.511	1	3
352.682	1	0
352.853	1	-1
353.024	1	-6
353.195	1	2
353.366	1	6
353.537	1	9
353.708	1	12
353.879	1	4
354.050	1	5
354.221	1	-6
354.392	1	10
354.563	1	13
354.734	1	5
354.905	1	7
355.076	1	11
355.247	1	-7
355.418	1	1
355.589	1	3
355.760	1	11
355.931	1	3
356.102	1	-1
356.273	1	5
356.444	1	-1
356.615	1	10
356.785	1	21
356.956	1	5
357.127	1	5
357.298	1	7
357.469	1	-1
357.640	1	16
357.811	1	13
357.982	1	-3
358.153	1	12
358.324	1	6
358.495	1	6
358.666	1	2
358.837	1	5
359.008	1	0
359.179	1	13
359.350	1	0
359.521	1	14
359.692	1	8
359.863	1	6
360.034	1	-5
360.205	1	9
360.376	1	7
360.547	1	6
360.718	1	7
360.889	1	14
361.060	1	12
361.231	1	4
361.401	1	15
361.572	1	1
361.743	1	6
361.914	1	5
362.085	1	0
362.256	1	9
362.427	1	1
362.598	1	6
362.769	1	4
362.940	1	6
363.111	1	12
363.282	1	6
363.453	1	7
363.624	1	12
363.795	1	9
363.966	1	18
364.137	1	0
364.308	1	3
364.478	1	11
364.649	1	5
364.820	1	1
364.991	1	20
365.162	1	10
365.333	1	14
365.504	1	9
365.675	1	8
365.846	1	11
366.017	1	15
366.188	1	11
366.359	1	10
366.530	1	8
366.701	1	0
366.871	1	20
367.042	1	27
367.213	1	15
367.384	1	11
367.555	1	7
367.726	1	24
367.897	1	12
368.068	1	6
368.239	1	10
368.410	1	15
368.581	1	17
368.752	1	11
368.923	1	10
369.093	1	13
369.264	1	11
369.435	1	8
369.606	1	13
369.777	1	1
369.948	1	10
370.119	1	13
370.290	1	2
370.461	1	21
370.632	1	13
370.803	1	9
370.973	1	23
371.144	1	13
371.315	1	8
371.486	1	18
371.657	1	7
371.828	1	14
371.999	1	6
372.170	1	17
372.341	1	12
372.512	1	8
372.682	1	9
372.853	1	4
373.024	1	11
373.195	1	-3
373.366	1	7
373.537	1	5
373.708	1	5
373.879	1	14
374.050	1	12
374.220	1	3
374.391	1	11
374.562	1	8
374.733	1	21
374.904	1	10
375.075	1	13
375.246	1	3
375.417	1	7
375.588	1	8
375.758	1	-2
375.929	1	16
376.100	1	15
376.271	1	-1
376.442	1	15
376.613	1	1
376.784	1	12
376.955	1	-6
377.125	1	7
377.296	1	9
377.467	1	-1
377.638	1	0
377.809	1	19
377.980	1	15
378.151	1	11
378.321	1	5
378.492	1	9
378.663	1	-3
378.834	1	7
379.005	1	8
379.176	1	7
379.347	1	10
379.518	1	-2
379.688	1	6
379.859	1	2
380.030	1	1
380.201	1	2
380.372	1	7
380.543	1	6
380.714	1	8
380.884	1	8
381.055	1	14
381.226	1	10
381.397	1	3
381.568	1	1
381.739	1	18
381.910	1	6
382.080	1	4
382.251	1	11
382.422	1	18
382.593	1	2
382.764	1	5
382.935	1	12
383.105	1	17
383.276	1	7
383.447	1	16
383.618	1	17
383.789	1	19
383.960	1	5
384.130	1	10
384.301	1	14
384.472	1	4
384.643	1	11
384.814	1	21
384.985	1	12
385.156	1	26
385.326	1	18
385.497	1	27
385.668	1	14
385.839	1	14
386.010	1	25
386.180	1	15
386.351	1	5
386.522	1	19
386.693	1	17
386.864	1	2
387.035	1	20
387.205	1	18
387.376	1	29
387.547	1	22
387.718	1	28
387.889	1	34
388.060	1	13
388.230	1	16
388.401	1	19
388.572	1	7
388.743	1	19
388.914	1	27
389.084	1	17
389.255	1	25
389.426	1	29
389.597	1	11
389.768	1	16
389.939	1	15
390.109	1	18
390.280	1	15
390.451	1	31
390.622	1	11
390.793	1	18
390.963	1	19
391.134	1	16
391.305	1	22
391.476	1	26
391.647	1	17
391.817	1	4
391.988	1	16
392.159	1	13
392.330	1	24
392.501	1	11
392.671	1	14
392.842	1	21
393.013	1	25
393.184	1	24
393.355	1	21
393.525	1	20
393.696	1	14
393.867	1	7
394.038	1	-2
394.208	1	17
394.379	1	10
394.550	1	15
394.721	1	9
394.892	1	18
395.062	1	-1
395.233	1	19
395.404	1	14
395.575	1	12
395.746	1	12
395.916	1	9
396.087	1	14
396.258	1	9
396.429	1	16
396.599	1	12
396.770	1	22
396.941	1	21
397.112	1	7
397.283	1	14
397.453	1	-3
397.624	1	15
397.795	1	17
397.966	1	21
398.136	1	15
398.307	1	14
398.478	1	17
398.649	1	22
398.819	1	22
398.990	1	11
399.161	1	10
399.332	1	24
399.503	1	22
399.673	1	15
399.844	1	14
400.015	1	19
400.186	1	17
400.356	1	3
400.527	1	8
400.698	1	14
400.869	1	20
401.039	1	11
401.210	1	14
401.381	1	13
401.552	1	21
401.722	1	20
401.893	1	2
402.064	1	17
402.235	1	13
402.405	1	13
402.576	1	23
402.747	1	12
402.918	1	11
403.088	1	-1
403.259	1	-4
403.430	1	6
403.601	1	9
403.771	1	12
403.942	1	12
404.113	1	15
404.284	1	3
404.454	1	21
404.625	1	19
404.796	1	10
404.967	1	9
405.137	1	4
405.308	1	7
405.479	1	20
405.649	1	5
405.820	1	9
405.991	1	9
406.162	1	10
406.332	1	10
406.503	1	11
406.674	1	11
406.845	1	12
407.015	1	1
407.186	1	28
407.357	1	18
407.527	1	2
407.698	1	0
407.869	1	9
408.040	1	3
408.210	1	15
408.381	1	7
408.552	1	16
408.722	1	16
408.893	1	2
409.064	1	19
409.235	1	8
409.405	1	17
409.576	1	10
409.747	1	11
409.917	1	7
410.088	1	13
410.259	1	9
410.430	1	23
410.600	1	15
410.771	1	19
410.942	1	8
411.112	1	8
411.283	1	-1
411.454	1	8
411.625	1	10
411.795	1	17
411.966	1	12
412.137	1	24
412.307	1	13
412.478	1	9
412.649	1	11
412.819	1	7
412.990	1	16
413.161	1	2
413.332	1	5
413.502	1	0
413.673	1	12
413.844	1	12
414.014	1	7
414.185	1	16
414.356	1	3
414.526	1	19
414.697	1	16
414.868	1	13
415.038	1	4
415.209	1	13
415.380	1	9
415.550	1	-7
415.721	1	8
415.892	1	11
416.063	1	13
416.233	1	8
416.404	1	-2
416.575	1	3
416.745	1	4
416.916	1	13
417.087	1	7
417.257	1	17
417.428	1	0
417.599	1	5
417.769	1	12
417.940	1	1
418.111	1	11
418.281	1	8
418.452	1	8
418.623	1	3
418.793	1	11
418.964	1	8
419.135	1	17
419.305	1	13
419.476	1	9
419.647	1	11
419.817	1	19
419.988	1	0
420.159	1	-1
420.329	1	13
420.500	1	10
420.671	1	12
420.841	1	11
421.012	1	17
421.183	1	6
421.353	1	13
421.524	1	17
421.695	1	10
421.865	1	-2
422.036	1	4
422.206	1	2
422.377	1	13
422.548	1	8
422.718	1	2
422.889	1	10
423.060	1	5
423.230	1	10
423.401	1	9
423.572	1	12
423.742	1	6
423.913	1	5
424.084	1	11
424.254	1	9
424.425	1	9
424.595	1	1
424.766	1	6
424.937	1	6
425.107	1	10
425.278	1	2
425.449	1	8
425.619	1	4
425.790	1	-1
425.961	1	14
426.131	1	12
426.302	1	8
426.472	1	-3
426.643	1	9
426.814	1	6
426.984	1	15
427.155	1	0
427.326	1	7
427.496	1	12
427.667	1	13
427.837	1	0
428.008	1	9
428.179	1	2
428.349	1	4
428.520	1	0
428.691	1	7
428.861	1	5
429.032	1	-2
429.202	1	12
429.373	1	-7
429.544	1	14
429.714	1	13
429.885	1	8
430.055	1	4
430.226	1	7
430.397	1	2
430.567	1	12
430.738	1	5
430.909	1	-5
431.079	1	16
431.250	1	-7
431.420	1	9
431.591	1	10
431.762	1	11
431.932	1	14
432.103	1	3
432.273	1	-5
432.444	1	14
432.615	1	15
432.785	1	11
432.956	1	3
433.126	1	6
433.297	1	16
433.468	1	-2
433.638	1	13
433.809	1	14
433.979	1	4
434.150	1	-1
434.320	1	2
434.491	1	9
434.662	1	3
434.832	1	4
435.003	1	12
435.173	1	14
435.344	1	2
435.515	1	9
435.685	1	15
435.856	1	2
436.026	1	5
436.197	1	8
436.368	1	8
436.538	1	11
436.709	1	4
436.879	1	-8
437.050	1	6
437.220	1	11
437.391	1	7
437.562	1	14
437.732	1	6
437.903	1	9
438.073	1	14
438.244	1	1
438.414	1	12
438.585	1	12
438.756	1	11
438.926	1	4
439.097	1	15
439.267	1	9
439.438	1	11
439.608	1	4
439.779	1	6
439.949	1	-2
440.120	1	4
440.291	1	1
440.461	1	4
440.632	1	1
440.802	1	4
440.973	1	13
441.143	1	19
441.314	1	-5
441.485	1	1
441.655	1	18
441.826	1	-13
441.996	1	6
442.167	1	13
442.337	1	0
442.508	1	5
442.678	1	0
442.849	1	17
443.019	1	6
443.190	1	-5
443.361	1	10
443.531	1	6
443.702	1	8
443.872	1	5
444.043	1	11
444.213	1	3
444.384	1	8
444.554	1	-3
444.725	1	2
444.895	1	5
445.066	1	-6
445.237	1	-11
445.407	1	6
445.578	1	9
445.748	1	2
445.919	1	-2
446.089	1	22
446.260	1	0
446.430	1	-5
446.601	1	-8
446.771	1	-2
446.942	1	8
447.112	1	-1
447.283	1	0
447.453	1	-1
447.624	1	6
447.794	1	4
447.965	1	1
448.135	1	12
448.306	1	5
448.477	1	-1
448.647	1	18
448.818	1	14
448.988	1	-7
449.159	1	-2
449.329	1	-1
449.500	1	13
449.670	1	17
449.841	1	4
450.011	1	2
450.182	1	-15
450.352	1	14
450.523	1	0
450.693	1	8
450.864	1	11
451.034	1	1
451.205	1	9
451.375	1	10
451.546	1	13
451.716	1	4
451.887	1	1
452.057	1	9
452.228	1	-7
452.398	1	11
452.569	1	8
452.739	1	3
452.910	1	4
453.080	1	11
453.251	1	6
453.421	1	11
453.592	1	-1
453.762	1	17
453.933	1	16
454.103	1	2
454.274	1	1
454.444	1	17
454.615	1	15
454.785	1	2
454.956	1	-1
455.126	1	0
455.297	1	9
455.467	1	9
455.638	1	0
455.808	1	6
455.979	1	11
456.149	1	6
456.320	1	4
456.490	1	9
456.661	1	-4
456.831	1	12
457.001	1	4
457.172	1	4
457.342	1	5
457.513	1	15
457.683	1	9
457.854	1	6
458.024	1	6
458.195	1	5
458.365	1	1
458.536	1	9
458.706	1	-1
458.877	1	-6
459.047	1	3
459.218	1	5
459.388	1	3
459.559	1	9
459.729	1	10
459.899	1	10
460.070	1	11
460.240	1	3
460.411	1	7
460.581	1	13
460.752	1	8
460.922	1	5
461.093	1	9
461.263	1	14
461.434	1	19
461.604	1	-1
461.775	1	5
461.945	1	14
462.115	1	-8
462.286	1	11
462.456	1	-6
462.627	1	4
462.797	1	-2
462.968	1	-4
463.138	1	8
463.309	1	5
463.479	1	6
463.649	1	2
463.820	1	22
463.990	1	9
464.161	1	3
464.331	1	7
464.502	1	9
464.672	1	0
464.843	1	11
465.013	1	4
465.183	1	0
465.354	1	4
465.524	1	9
465.695	1	20
465.865	1	-8
466.036	1	2
466.206	1	4
466.376	1	-10
466.547	1	5
466.717	1	-2
466.888	1	8
467.058	1	22
467.229	1	6
467.399	1	3
467.569	1	14
467.740	1	4
467.910	1	-1
468.081	1	7
468.251	1	0
468.422	1	5
468.592	1	16
468.762	1	-2
468.933	1	13
469.103	1	-6
469.274	1	5
469.444	1	6
469.614	1	2
469.785	1	10
469.955	1	6
470.126	1	10
470.296	1	7
470.467	1	-3
470.637	1	14
470.807	1	2
470.978	1	1
471.148	1	-1
471.319	1	9
471.489	1	3
471.659	1	-2
471.830	1	14
472.000	1	9
472.171	1	3
472.341	1	10
472.511	1	9
472.682	1	7
472.852	1	6
473.023	1	0
473.193	1	-4
473.363	1	-1
473.534	1	4
473.704	1	11
473.875	1	12
474.045	1	-4
474.215	1	0
474.386	1	13
474.556	1	-1
474.727	1	3
474.897	1	6
475.067	1	-2
475.238	1	2
475.408	1	4
475.578	1	8
475.749	1	8
475.919	1	11
476.090	1	-1
476.260	1	3
476.430	1	-1
476.601	1	-3
476.771	1	10
476.942	1	-2
477.112	1	5
477.282	1	-4
477.453	1	9
477.623	1	3
477.793	1	15
477.964	1	14
478.134	1	3
478.305	1	-7
478.475	1	-2
478.645	1	8
478.816	1	-3
478.986	1	2
479.156	1	6
479.327	1	-7
479.497	1	4
479.667	1	13
479.838	1	2
480.008	1	11
480.179	1	8
480.349	1	6
480.519	1	8
480.690	1	5
480.860	1	4
481.030	1	4
481.201	1	-3
481.371	1	5
481.541	1	3
481.712	1	4
481.882	1	7
482.053	1	4
482.223	1	0
482.393	1	0
482.564	1	-7
482.734	1	6
482.904	1	10
483.075	1	8
483.245	1	6
483.415	1	7
483.586	1	4
483.756	1	3
483.926	1	20
484.097	1	-3
484.267	1	8
484.437	1	-3
484.608	1	6
484.778	1	12
484.948	1	-3
485.119	1	5
485.289	1	6
485.459	1	15
485.630	1	-10
485.800	1	2
485.970	1	11
486.141	1	0
486.311	1	1
486.481	1	10
486.652	1	10
486.822	1	-5
486.992	1	2
487.163	1	-1
487.333	1	6
487.503	1	-5
487.674	1	2
487.844	1	2
488.014	1	2
488.185	1	1
488.355	1	0
488.525	1	6
488.696	1	-1
488.866	1	15
489.036	1	8
489.207	1	10
489.377	1	2
489.547	1	0
489.718	1	0
489.888	1	-1
490.058	1	8
490.228	1	0
490.399	1	4
490.569	1	15
490.739	1	16
490.910	1	-9
491.080	1	4
491.250	1	6
491.421	1	0
491.591	1	-2
491.761	1	10
491.932	1	10
492.102	1	-10
492.272	1	9
492.442	1	11
492.613	1	12
492.783	1	-9
492.953	1	6
493.124	1	1
493.294	1	6
493.464	1	4
493.635	1	-3
493.805	1	1
493.975	1	14
494.145	1	2
494.316	1	7
494.486	1	0
494.656	1	5
494.827	1	-13
494.997	1	-6
495.167	1	2
495.337	1	15
495.508	1	2
495.678	1	12
495.848	1	13
496.019	1	-2
496.189	1	-1
496.359	1	1
496.529	1	5
496.700	1	3
496.870	1	1
497.040	1	-4
497.211	1	11
497.381	1	-8
497.551	1	18
497.721	1	6
497.892	1	4
498.062	1	4
498.232	1	0
498.403	1	1
498.573	1	-1
498.743	1	7
498.913	1	13
499.084	1	2
499.254	1	3
499.424	1	19
499.594	1	-7
499.765	1	-1
499.935	1	-4
500.105	1	4
500.275	1	4
500.446	1	11
500.616	1	4
500.786	1	10
500.956	1	10
501.127	1	14
501.297	1	4
501.467	1	6
501.638	1	7
501.808	1	-8
501.978	1	13
502.148	1	14
502.319	1	13
502.489	1	13
502.659	1	5
502.829	1	6
503.000	1	15
503.170	1	8
503.340	1	7
503.510	1	3
503.681	1	8
503.851	1	-10
504.021	1	23
504.191	1	15
504.362	1	17
504.532	1	-4
504.702	1	16
504.872	1	6
505.042	1	3
505.213	1	7
505.383	1	2
505.553	1	8
505.723	1	7
505.894	1	18
506.064	1	9
506.234	1	15
506.404	1	1
506.575	1	4
506.745	1	-1
506.915	1	7
507.085	1	0
507.256	1	-1
507.426	1	12
507.596	1	14
507.766	1	9
507.936	1	0
508.107	1	7
508.277	1	-4
508.447	1	5
508.617	1	8
508.788	1	3
508.958	1	16
509.128	1	8
509.298	1	18
509.468	1	16
509.639	1	20
509.809	1	16
509.979	1	4
510.149	1	7
510.319	1	2
510.490	1	12
510.660	1	10
510.830	1	6
511.000	1	7
511.171	1	20
511.341	1	-4
511.511	1	16
511.681	1	7
511.851	1	-3
512.022	1	0
512.192	1	0
512.362	1	11
512.532	1	-3
512.702	1	2
512.873	1	17
513.043	1	10
513.213	1	15
513.383	1	3
513.553	1	9
513.724	1	7
513.894	1	14
514.064	1	4
514.234	1	11
514.404	1	8
514.575	1	6
514.745	1	0
514.915	1	18
515.085	1	14
515.255	1	3
515.425	1	4
515.596	1	0
515.766	1	8
515.936	1	9
516.106	1	9
516.276	1	12
516.447	1	15
516.617	1	13
516.787	1	3
516.957	1	13
517.127	1	21
517.297	1	11
517.468	1	11
517.638	1	15
517.808	1	10
517.978	1	1
518.148	1	9
518.319	1	8
518.489	1	14
518.659	1	13
518.829	1	2
518.999	1	4
519.169	1	12
519.340	1	16
519.510	1	18
519.680	1	6
519.850	1	-1
520.020	1	7
520.190	1	6
520.361	1	5
520.531	1	9
520.701	1	12
520.871	1	11
521.041	1	10
521.211	1	16
521.382	1	19
521.552	1	16
521.722	1	10
521.892	1	1
522.062	1	14
522.232	1	0
522.402	1	-3
522.573	1	16
522.743	1	16
522.913	1	9
523.083	1	12
523.253	1	9
523.423	1	0
523.593	1	-1
523.764	1	14
523.934	1	9
524.104	1	7
524.274	1	3
524.444	1	14
524.614	1	16
524.784	1	4
524.955	1	6
525.125	1	12
525.295	1	7
525.465	1	8
525.635	1	19
525.805	1	7
525.975	1	5
526.146	1	1
526.316	1	10
526.486	1	7
526.656	1	25
526.826	1	11
526.996	1	26
527.166	1	12
527.337	1	12
527.507	1	1
527.677	1	23
527.847	1	7
528.017	1	-1
528.187	1	8
528.357	1	17
528.527	1	22
528.698	1	10
528.868	1	12
529.038	1	10
529.208	1	6
529.378	1	10
529.548	1	20
529.718	1	19
529.888	1	10
530.058	1	6
530.229	1	20
530.399	1	15
530.569	1	17
530.739	1	12
530.909	1	10
531.079	1	17
531.249	1	2
531.419	1	22
531.589	1	3
531.760	1	17
531.930	1	11
532.100	1	14
532.270	1	22
532.440	1	5
532.610	1	13
532.780	1	15
532.950	1	11
533.120	1	1
533.290	1	11
533.461	1	18
533.631	1	14
533.801	1	11
533.971	1	13
534.141	1	16
534.311	1	14
534.481	1	4
534.651	1	15
534.821	1	6
534.991	1	8
535.162	1	18
535.332	1	9
535.502	1	15
535.672	1	4
535.842	1	14
536.012	1	17
536.182	1	3
536.352	1	15
536.522	1	13
536.692	1	13
536.862	1	10
537.032	1	11
537.203	1	11
537.373	1	6
537.543	1	13
537.713	1	17
537.883	1	14
538.053	1	27
538.223	1	17
538.393	1	16
538.563	1	15
538.733	1	10
538.903	1	12
539.073	1	12
539.243	1	10
539.413	1	7
539.584	1	16
539.754	1	8
539.924	1	18
540.094	1	15
540.264	1	12
540.434	1	-1
540.604	1	18
540.774	1	4
540.944	1	7
541.114	1	0
541.284	1	13
541.454	1	12
541.624	1	9
541.794	1	7
541.964	1	8
542.134	1	16
542.305	1	-11
542.475	1	6
542.645	1	8
542.815	1	18
542.985	1	15
543.155	1	12
543.325	1	11
543.495	1	14
543.665	1	11
543.835	1	4
544.005	1	11
544.175	1	22
544.345	1	4
544.515	1	2
544.685	1	9
544.855	1	12
545.025	1	7
545.195	1	12
545.365	1	6
545.535	1	5
545.705	1	12
545.875	1	9
546.045	1	4
546.216	1	15
546.386	1	13
546.556	1	7
546.726	1	4
546.896	1	4
547.066	1	-4
547.236	1	4
547.406	1	11
547.576	1	13
547.746	1	14
547.916	1	13
548.086	1	11
548.256	1	12
548.426	1	4
548.596	1	13
548.766	1	7
548.936	1	9
549.106	1	9
549.276	1	12
549.446	1	2
549.616	1	10
549.786	1	16
549.956	1	13
550.126	1	3
550.296	1	17
550.466	1	6
550.636	1	13
550.806	1	5
550.976	1	6
551.146	1	3
551.316	1	14
551.486	1	10
551.656	1	-2
551.826	1	4
551.996	1	16
552.166	1	10
552.336	1	5
552.506	1	-4
552.676	1	8
552.846	1	22
553.016	1	8
553.186	1	0
553.356	1	8
553.526	1	14
553.696	1	17
553.866	1	9
554.036	1	1
554.206	1	4
554.376	1	4
554.546	1	7
554.716	1	11
554.886	1	15
555.056	1	-3
555.226	1	0
555.396	1	13
555.566	1	8
555.736	1	15
555.906	1	9
556.076	1	4
556.246	1	7
556.416	1	17
556.586	1	12
556.756	1	8
556.926	1	6
557.096	1	9
557.266	1	17
557.436	1	13
557.606	1	-1
557.776	1	10
557.946	1	12
558.116	1	13
558.286	1	17
558.456	1	0
558.626	1	-1
558.796	1	4
558.966	1	10
559.136	1	9
559.306	1	6
559.476	1	10
559.646	1	10
559.816	1	7
559.986	1	5
560.155	1	13
560.325	1	-2
560.495	1	17
560.665	1	8
560.835	1	15
561.005	1	11
561.175	1	11
561.345	1	0
561.515	1	0
561.685	1	4
561.855	1	9
562.025	1	3
562.195	1	10
562.365	1	17
562.535	1	4
562.705	1	17
562.875	1	0
563.045	1	9
563.215	1	3
563.385	1	1
563.555	1	16
563.725	1	5
563.895	1	2
564.064	1	11
564.234	1	6
564.404	1	6
564.574	1	-2
564.744	1	19
564.914	1	0
565.084	1	-2
565.254	1	-2
565.424	1	5
565.594	1	-2
565.764	1	8
565.934	1	23
566.104	1	10
566.274	1	11
566.444	1	10
566.614	1	-1
566.783	1	10
566.953	1	3
567.123	1	20
567.293	1	8
567.463	1	11
567.633	1	10
567.803	1	5
567.973	1	4
568.143	1	-5
568.313	1	-7
568.483	1	-1
568.653	1	3
568.823	1	9
568.993	1	6
569.162	1	17
569.332	1	2
569.502	1	9
569.672	1	0
569.842	1	5
570.012	1	10
570.182	1	9
570.352	1	13
570.522	1	7
570.692	1	5
570.862	1	2
571.031	1	4
571.201	1	11
571.371	1	-1
571.541	1	2
571.711	1	12
571.881	1	16
572.051	1	2
572.221	1	11
572.391	1	3
572.561	1	5
572.731	1	4
572.900	1	16
573.070	1	18
573.240	1	5
573.410	1	3
573.580	1	14
573.750	1	11
573.920	1	0
574.090	1	9
574.260	1	7
574.430	1	4
574.599	1	4
574.769	1	6
574.939	1	-1
575.109	1	1
575.279	1	13
575.449	1	14
575.619	1	12
575.789	1	14
575.959	1	0
576.128	1	7
576.298	1	-4
576.468	1	5
576.638	1	10
576.808	1	9
576.978	1	7
577.148	1	18
577.318	1	6
577.487	1	7
577.657	1	-13
577.827	1	10
577.997	1	-8
578.167	1	11
578.337	1	2
578.507	1	4
578.677	1	9
578.846	1	1
579.016	1	18
579.186	1	8
579.356	1	-6
579.526	1	1
579.696	1	10
579.866	1	7
580.036	1	7
580.205	1	8
580.375	1	2
580.545	1	4
580.715	1	1
580.885	1	7
581.055	1	1
581.225	1	0
581.394	1	6
581.564	1	-1
581.734	1	6
581.904	1	8
582.074	1	3
582.244	1	9
582.414	1	4
582.583	1	0
582.753	1	1
582.923	1	-3
583.093	1	-3
583.263	1	9
583.433	1	-3
583.603	1	11
583.772	1	-1
583.942	1	14
584.112	1	7
584.282	1	6
584.452	1	-2
584.622	1	-1
584.791	1	0
584.961	1	11
585.131	1	-4
585.301	1	6
585.471	1	2
585.641	1	17
585.811	1	-3
585.980	1	-5
586.150	1	7
586.320	1	-17
586.490	1	1
586.660	1	5
586.830	1	1
586.999	1	1
587.169	1	8
587.339	1	11
587.509	1	9
587.679	1	6
587.849	1	2
588.018	1	10
588.188	1	-1
588.358	1	-1
588.528	1	2
588.698	1	-3
588.867	1	8
589.037	1	10
589.207	1	-5
589.377	1	14
589.547	1	0
589.717	1	7
589.886	1	-2
590.056	1	4
590.226	1	5
590.396	1	14
590.566	1	3
590.735	1	17
590.905	1	0
591.075	1	1
591.245	1	-1
591.415	1	-5
591.585	1	3
591.754	1	8
591.924	1	-2
592.094	1	3
592.264	1	12
592.434	1	4
592.603	1	2
592.773	1	0
592.943	1	4
593.113	1	-5
593.283	1	2
593.452	1	0
593.622	1	5
593.792	1	7
593.962	1	1
594.132	1	-1
594.301	1	15
594.471	1	3
594.641	1	2
594.811	1	8
594.981	1	3
595.150	1	-3
595.320	1	8
595.490	1	-6
595.660	1	-1
595.829	1	10
595.999	1	1
596.169	1	5
596.339	1	10
596.509	1	7
596.678	1	1
596.848	1	13
597.018	1	12
597.188	1	10
597.358	1	-1
597.527	1	2
597.697	1	7
597.867	1	-1
598.037	1	9
598.206	1	2
598.376	1	9
598.546	1	-2
598.716	1	1
598.885	1	0
599.055	1	-3
599.225	1	1
599.395	1	10
599.565	1	3
599.734	1	0
599.904	1	-6
600.074	1	0
600.244	1	1
600.413	1	1
600.583	1	-3
600.753	1	3
600.923	1	17
601.092	1	-2
601.262	1	4
601.432	1	0
601.602	1	6
601.771	1	10
601.941	1	1
602.111	1	-9
602.281	1	12
602.451	1	5
602.620	1	4
602.790	1	-3
602.960	1	4
603.130	1	9
603.299	1	9
603.469	1	-4
603.639	1	13
603.809	1	5
603.978	1	-6
604.148	1	10
604.318	1	2
604.487	1	9
604.657	1	-1
604.827	1	-1
604.997	1	1
605.166	1	-3
605.336	1	-3
605.506	1	13
605.676	1	6
605.845	1	-2
606.015	1	6
606.185	1	7
606.355	1	12
606.524	1	5
606.694	1	18
606.864	1	5
607.034	1	-16
607.203	1	12
607.373	1	6
607.543	1	-8
607.712	1	20
607.882	1	2
608.052	1	8
608.222	1	8
608.391	1	2
608.561	1	11
608.731	1	3
608.901	1	7
609.070	1	7
609.240	1	4
609.410	1	7
609.579	1	6
609.749	1	1
609.919	1	-1
610.089	1	-1
610.258	1	8
610.428	1	-4
610.598	1	-2
610.767	1	1
610.937	1	8
611.107	1	5
611.277	1	9
611.446	1	4
611.616	1	-2
611.786	1	13
611.955	1	8
612.125	1	1
612.295	1	6
612.465	1	-7
612.634	1	3
612.804	1	16
612.974	1	5
613.143	1	5
613.313	1	3
613.483	1	9
613.652	1	-3
613.822	1	8
613.992	1	15
614.162	1	11
614.331	1	0
614.501	1	2
614.671	1	8
614.840	1	2
615.010	1	2
615.180	1	12
615.349	1	-2
615.519	1	5
615.689	1	3
615.858	1	11
616.028	1	-1
616.198	1	13
616.368	1	-1
616.537	1	-5
616.707	1	-8
616.877	1	4
617.046	1	7
617.216	1	-1
617.386	1	6
617.555	1	-1
617.725	1	9
617.895	1	-1
618.064	1	8
618.234	1	10
618.404	1	10
618.573	1	5
618.743	1	2
618.913	1	-3
619.082	1	1
619.252	1	12
619.422	1	1
619.591	1	13
619.761	1	3
619.931	1	9
620.100	1	9
620.270	1	-2
620.440	1	0
620.609	1	5
620.779	1	5
620.949	1	-1
621.118	1	-4
621.288	1	4
621.458	1	11
621.627	1	13
621.797	1	4
621.967	1	-1
622.136	1	4
622.306	1	11
622.476	1	1
622.645	1	3
622.815	1	4
622.985	1	9
623.154	1	9
623.324	1	11
623.494	1	5
623.663	1	2
623.833	1	-1
624.002	1	-9
624.172	1	18
624.342	1	-5
624.511	1	8
624.681	1	-2
624.851	1	-9
625.020	1	7
625.190	1	-3
625.360	1	-13
625.529	1	6
625.699	1	-1
625.869	1	4
626.038	1	6
626.208	1	-2
626.377	1	14
626.547	1	12
626.717	1	5
626.886	1	5
627.056	1	4
627.226	1	-1
627.395	1	13
627.565	1	12
627.735	1	11
627.904	1	18
628.074	1	7
628.243	1	-3
628.413	1	-8
628.583	1	-2
628.752	1	14
628.922	1	7
629.091	1	5
629.261	1	11
629.431	1	-9
629.600	1	6
629.770	1	7
629.940	1	3
630.109	1	5
630.279	1	-5
630.448	1	5
630.618	1	1
630.788	1	0
630.957	1	-10
631.127	1	19
631.297	1	-1
631.466	1	6
631.636	1	0
631.805	1	6
631.975	1	9
632.145	1	-1
632.314	1	8
632.484	1	1
632.653	1	-4
632.823	1	-2
632.993	1	6
633.162	1	3
633.332	1	13
633.501	1	2
633.671	1	2
633.841	1	6
634.010	1	4
634.180	1	3
634.349	1	4
634.519	1	3
634.689	1	9
634.858	1	4
635.028	1	7
635.197	1	9
635.367	1	2
635.537	1	0
635.706	1	-2
635.876	1	-8
636.045	1	9
636.215	1	-1
636.384	1	10
636.554	1	13
636.724	1	5
636.893	1	2
637.063	1	18
637.232	1	2
637.402	1	7
637.572	1	-4
637.741	1	8
637.911	1	-3
638.080	1	3
638.250	1	1
638.419	1	11
638.589	1	20
638.759	1	7
638.928	1	2
639.098	1	4
639.267	1	8
639.437	1	-9
639.606	1	16
639.776	1	-4
639.946	1	2
640.115	1	-2
640.285	1	7
640.454	1	9
640.624	1	5
640.793	1	9
640.963	1	-8
641.132	1	13
641.302	1	5
641.472	1	-3
641.641	1	-10
641.811	1	2
641.980	1	8
642.150	1	7
642.319	1	4
642.489	1	-7
642.659	1	-4
642.828	1	7
642.998	1	-7
643.167	1	10
643.337	1	8
643.506	1	-1
643.676	1	4
643.845	1	7
644.015	1	13
644.184	1	13
644.354	1	13
644.524	1	0
644.693	1	10
644.863	1	-3
645.032	1	7
645.202	1	-2
645.371	1	1
645.541	1	-6
645.710	1	1
645.880	1	11
646.049	1	11
646.219	1	12
646.388	1	5
646.558	1	11
646.728	1	8
646.897	1	2
647.067	1	5
647.236	1	6
647.406	1	0
647.575	1	1
647.745	1	7
647.914	1	4
648.084	1	-1
648.253	1	3
648.423	1	-5
648.592	1	7
648.762	1	5
648.931	1	5
649.101	1	8
649.270	1	16
649.440	1	5
649.610	1	11
649.779	1	9
649.949	1	-8
650.118	1	-3
650.288	1	-2
650.457	1	-2
650.627	1	9
650.796	1	12
650.966	1	1
651.135	1	8
651.305	1	-9
651.474	1	-3
651.644	1	2
651.813	1	7
651.983	1	4
652.152	1	1
652.322	1	14
652.491	1	10
652.661	1	3
652.830	1	6
653.000	1	-9
653.169	1	8
653.339	1	15
653.508	1	8
653.678	1	4
653.847	1	6
654.017	1	3
654.186	1	3
654.356	1	11
654.525	1	9
654.695	1	5
654.864	1	16
655.034	1	4
655.203	1	2
655.373	1	5
655.542	1	3
655.712	1	-7
655.881	1	12
656.051	1	14
656.220	1	8
656.390	1	2
656.559	1	-5
656.729	1	1
656.898	1	8
657.068	1	2
657.237	1	6
657.406	1	16
657.576	1	-9
657.745	1	-1
657.915	1	7
658.084	1	13
658.254	1	6
658.423	1	-12
658.593	1	-7
658.762	1	0
658.932	1	10
659.101	1	-1
659.271	1	8
659.440	1	5
659.610	1	8
659.779	1	-1
659.949	1	-2
660.118	1	5
660.288	1	-1
660.457	1	3
660.626	1	-9
660.796	1	-3
660.965	1	-1
661.135	1	9
661.304	1	1
661.474	1	-3
661.643	1	-1
661.813	1	12
661.982	1	-2
662.152	1	4
662.321	1	4
662.491	1	3
662.660	1	3
662.829	1	-13
662.999	1	1
663.168	1	-2
663.338	1	2
663.507	1	-3
663.677	1	-2
663.846	1	9
664.016	1	8
664.185	1	-3
664.354	1	5
664.524	1	-1
664.693	1	5
664.863	1	3
665.032	1	1
665.202	1	2
665.371	1	10
665.541	1	-1
665.710	1	-7
665.879	1	2
666.049	1	16
666.218	1	-7
666.388	1	-2
666.557	1	2
666.727	1	-17
666.896	1	4
667.065	1	9
667.235	1	3
667.404	1	-8
667.574	1	11
667.743	1	-5
667.913	1	-4
668.082	1	1
668.251	1	-1
668.421	1	5
668.590	1	2
668.760	1	-6
668.929	1	5
669.099	1	-6
669.268	1	7
669.437	1	8
669.607	1	-5
669.776	1	7
669.946	1	10
670.115	1	16
670.285	1	13
670.454	1	6
670.623	1	-2
670.793	1	-2
670.962	1	5
671.132	1	-1
671.301	1	-9
671.470	1	0
671.640	1	-12
671.809	1	0
671.979	1	10
672.148	1	7
672.317	1	1
672.487	1	-3
672.656	1	12
672.826	1	-6
672.995	1	-5
673.164	1	5
673.334	1	3
673.503	1	3
673.673	1	17
673.842	1	3
674.011	1	10
674.181	1	0
674.350	1	0
674.520	1	-1
674.689	1	0
674.858	1	3
675.028	1	4
675.197	1	4
675.367	1	5
675.536	1	17
675.705	1	-11
675.875	1	8
676.044	1	4
676.214	1	0
676.383	1	5
676.552	1	6
676.722	1	-1
676.891	1	-3
677.060	1	4
677.230	1	20
677.399	1	-3
677.569	1	1
677.738	1	-1
677.907	1	-6
678.077	1	7
678.246	1	-3
678.416	1	6
678.585	1	11
678.754	1	-3
678.924	1	-3
679.093	1	6
679.262	1	0
679.432	1	1
679.601	1	-6
679.771	1	-1
679.940	1	-2
680.109	1	11
680.279	1	-7
680.448	1	-1
680.617	1	0
680.787	1	-1
680.956	1	-8
681.125	1	10
681.295	1	1
681.464	1	-2
681.634	1	5
681.803	1	-9
681.972	1	-7
682.142	1	7
682.311	1	1
682.480	1	-2
682.650	1	-2
682.819	1	0
682.988	1	-5
683.158	1	10
683.327	1	-2
683.496	1	0
683.666	1	0
683.835	1	1
684.004	1	5
684.174	1	-2
684.343	1	-6
684.512	1	2
684.682	1	11
684.851	1	7
685.021	1	11
685.190	1	10
685.359	1	-10
685.529	1	5
685.698	1	6
685.867	1	8
686.037	1	1
686.206	1	5
686.375	1	2
686.545	1	1
686.714	1	5
686.883	1	-4
687.053	1	5
687.222	1	-4
687.391	1	-5
687.561	1	0
687.730	1	-2
687.899	1	-2
688.069	1	-3
688.238	1	4
688.407	1	4
688.577	1	-7
688.746	1	8
