340.368	1	3
340.539	1	4
340.710	1	-13
340.881	1	1
341.052	1	3
341.223	1	12
341.394	1	-9
341.565	1	-6
341.737	1	5
341.908	1	1
342.079	1	-9
342.250	1	-5
342.421	1	-1
342.592	1	-11
342.763	1	5
342.934	1	6
343.105	1	11
343.276	1	-9
343.447	1	10
343.618	1	3
343.789	1	-2
343.960	1	-7
344.131	1	-1
344.302	1	0
344.473	1	4
344.644	1	-3
344.815	1	4
344.986	1	5
345.157	1	-1
345.328	1	-11
345.499	1	-4
345.670	1	-4
345.841	1	3
346.012	1	9
346.183	1	-3
346.354	1	3
346.526	1	-1
346.697	1	4
346.868	1	2
347.039	1	-10
347.210	1	-4
347.381	1	2
347.552	1	-6
347.723	1	8
347.894	1	3
348.065	1	-5
348.236	1	1
348.407	1	-8
348.578	1	2
348.749	1	-4
348.920	1	3
349.091	1	-4
349.262	1	-2
349.433	1	-10
349.604	1	-1
349.775	1	6
349.946	1	2
350.117	1	10
350.288	1	-6
350.459	1	7
350.630	1	-10
350.801	1	-1
350.972	1	-10
351.143	1	-9
351.314	1	1
351.485	1	0
351.656	1	10
351.827	1	-2
351.998	1	-6
352.169	1	2
352.340	1	4
352.511	1	-1
352.682	1	2
352.853	1	-8
353.024	1	-6
353.195	1	-12
353.366	1	-4
353.537	1	3
353.708	1	0
353.879	1	2
354.050	1	6
354.221	1	-5
354.392	1	5
354.563	1	10
354.734	1	-6
354.905	1	9
355.076	1	-1
355.247	1	-15
355.418	1	0
355.589	1	-5
355.760	1	-1
355.931	1	-3
356.102	1	-11
356.273	1	-6
356.444	1	-6
356.615	1	3
356.785	1	11
356.956	1	-3
357.127	1	2
357.298	1	1
357.469	1	-4
357.640	1	10
357.811	1	12
357.982	1	-9
358.153	1	-4
358.324	1	3
358.495	1	0
358.666	1	6
358.837	1	14
359.008	1	-3
359.179	1	0
359.350	1	-1
359.521	1	-7
359.692	1	8
359.863	1	-1
360.034	1	1
360.205	1	1
360.376	1	8
360.547	1	0
360.718	1	-6
360.889	1	0
361.060	1	4
361.231	1	-5
361.401	1	1
361.572	1	-6
361.743	1	2
361.914	1	1
362.085	1	-10
362.256	1	15
362.427	1	-1
362.598	1	-5
362.769	1	6
362.940	1	6
363.111	1	13
363.282	1	9
363.453	1	5
363.624	1	-3
363.795	1	3
363.966	1	2
364.137	1	4
364.308	1	-12
364.478	1	-7
364.649	1	-1
364.820	1	-6
364.991	1	1
365.162	1	-14
365.333	1	16
365.504	1	-3
365.675	1	-4
365.846	1	-12
366.017	1	7
366.188	1	3
366.359	1	7
366.530	1	4
366.701	1	-7
366.871	1	5
367.042	1	11
367.213	1	3
367.384	1	5
367.555	1	-9
367.726	1	14
367.897	1	5
368.068	1	-14
368.239	1	8
368.410	1	-6
368.581	1	2
368.752	1	-1
368.923	1	-14
369.093	1	-9
369.264	1	1
369.435	1	-7
369.606	1	8
369.777	1	-2
369.948	1	2
370.119	1	3
370.290	1	0
370.461	1	6
370.632	1	-10
370.803	1	-4
370.973	1	11
371.144	1	4
371.315	1	-8
371.486	1	3
371.657	1	4
371.828	1	0
371.999	1	-9
372.170	1	10
372.341	1	11
372.512	1	-7
372.682	1	-1
372.853	1	-1
373.024	1	-15
373.195	1	-6
373.366	1	-7
373.537	1	-3
373.708	1	6
373.879	1	5
374.050	1	-2
374.220	1	0
374.391	1	-4
374.562	1	-3
374.733	1	3
374.904	1	6
375.075	1	6
375.246	1	0
375.417	1	5
375.588	1	-1
375.758	1	-4
375.929	1	0
376.100	1	-5
376.271	1	-1
376.442	1	-5
376.613	1	6
376.784	1	7
376.955	1	-7
377.125	1	1
377.296	1	6
377.467	1	-15
377.638	1	-8
377.809	1	9
377.980	1	5
378.151	1	3
378.321	1	9
378.492	1	0
378.663	1	-2
378.834	1	10
379.005	1	5
379.176	1	1
379.347	1	5
379.518	1	-13
379.688	1	-6
379.859	1	-2
380.030	1	-5
380.201	1	-7
380.372	1	9
380.543	1	-1
380.714	1	8
380.884	1	-3
381.055	1	4
381.226	1	6
381.397	1	-6
381.568	1	-2
381.739	1	3
381.910	1	-1
382.080	1	-13
382.251	1	-3
382.422	1	4
382.593	1	-2
382.764	1	-8
382.935	1	10
383.105	1	6
383.276	1	6
383.447	1	8
383.618	1	8
383.789	1	5
383.960	1	1
384.130	1	-8
384.301	1	4
384.472	1	-7
384.643	1	-2
384.814	1	15
384.985	1	2
385.156	1	14
385.326	1	7
385.497	1	6
385.668	1	2
385.839	1	1
386.010	1	3
386.180	1	-1
386.351	1	-3
386.522	1	8
386.693	1	-7
386.864	1	-11
387.035	1	-1
387.205	1	-8
387.376	1	5
387.547	1	3
387.718	1	5
387.889	1	11
388.060	1	-5
388.230	1	-10
388.401	1	6
388.572	1	5
388.743	1	4
388.914	1	1
389.084	1	8
389.255	1	7
389.426	1	7
389.597	1	0
389.768	1	0
389.939	1	11
390.109	1	-2
390.280	1	3
390.451	1	22
390.622	1	-10
390.793	1	-2
390.963	1	-1
391.134	1	2
391.305	1	10
391.476	1	6
391.647	1	10
391.817	1	-4
391.988	1	-5
392.159	1	7
392.330	1	3
392.501	1	4
392.671	1	4
392.842	1	9
393.013	1	12
393.184	1	11
393.355	1	14
393.525	1	4
393.696	1	1
393.867	1	-5
394.038	1	-4
394.208	1	10
394.379	1	-8
394.550	1	5
394.721	1	-2
394.892	1	9
395.062	1	-7
395.233	1	5
395.404	1	3
395.575	1	-1
395.746	1	-7
395.916	1	-2
396.087	1	-1
396.258	1	-1
396.429	1	6
396.599	1	0
396.770	1	5
396.941	1	15
397.112	1	-11
397.283	1	0
397.453	1	-9
397.624	1	5
397.795	1	3
397.966	1	0
398.136	1	-1
398.307	1	0
398.478	1	0
398.649	1	4
398.819	1	-2
398.990	1	7
399.161	1	0
399.332	1	5
399.503	1	8
399.673	1	-1
399.844	1	3
400.015	1	7
400.186	1	5
400.356	1	1
400.527	1	-3
400.698	1	-2
400.869	1	10
401.039	1	-6
401.210	1	-6
401.381	1	9
401.552	1	6
401.722	1	12
401.893	1	7
402.064	1	-3
402.235	1	11
402.405	1	-9
402.576	1	6
402.747	1	2
402.918	1	-9
403.088	1	-4
403.259	1	-5
403.430	1	-9
403.601	1	1
403.771	1	8
403.942	1	5
404.113	1	11
404.284	1	6
404.454	1	10
404.625	1	3
404.796	1	1
404.967	1	2
405.137	1	8
405.308	1	2
405.479	1	6
405.649	1	-2
405.820	1	3
405.991	1	10
406.162	1	-1
406.332	1	-6
406.503	1	-8
406.674	1	7
406.845	1	-7
407.015	1	-9
407.186	1	10
407.357	1	-2
407.527	1	-15
407.698	1	-6
407.869	1	-5
408.040	1	-5
408.210	1	-9
408.381	1	2
408.552	1	9
408.722	1	-6
408.893	1	-4
409.064	1	-9
409.235	1	-2
409.405	1	-4
409.576	1	2
409.747	1	-12
409.917	1	1
410.088	1	9
410.259	1	-6
410.430	1	-5
410.600	1	3
410.771	1	0
410.942	1	-4
411.112	1	8
411.283	1	-11
411.454	1	9
411.625	1	10
411.795	1	4
411.966	1	3
412.137	1	10
412.307	1	7
412.478	1	6
412.649	1	0
412.819	1	-7
412.990	1	8
413.161	1	-3
413.332	1	1
413.502	1	6
413.673	1	1
413.844	1	-4
414.014	1	-2
414.185	1	3
414.356	1	-9
414.526	1	-1
414.697	1	17
414.868	1	8
415.038	1	9
415.209	1	0
415.380	1	2
415.550	1	-9
415.721	1	2
415.892	1	-9
416.063	1	10
416.233	1	-5
416.404	1	-2
416.575	1	-13
416.745	1	-3
416.916	1	-3
417.087	1	5
417.257	1	1
417.428	1	-17
417.599	1	8
417.769	1	8
417.940	1	-10
418.111	1	-5
418.281	1	0
418.452	1	1
418.623	1	-4
418.793	1	-2
418.964	1	2
419.135	1	9
419.305	1	-2
419.476	1	2
419.647	1	2
419.817	1	4
419.988	1	-7
420.159	1	-15
420.329	1	5
420.500	1	5
420.671	1	5
420.841	1	11
421.012	1	10
421.183	1	-2
421.353	1	14
421.524	1	5
421.695	1	-16
421.865	1	-3
422.036	1	-8
422.206	1	-13
422.377	1	-5
422.548	1	-3
422.718	1	-1
422.889	1	7
423.060	1	3
423.230	1	14
423.401	1	2
423.572	1	2
423.742	1	-4
423.913	1	11
424.084	1	0
424.254	1	3
424.425	1	-1
424.595	1	-7
424.766	1	5
424.937	1	-8
425.107	1	2
425.278	1	6
425.449	1	-5
425.619	1	1
425.790	1	4
425.961	1	1
426.131	1	-3
426.302	1	1
426.472	1	0
426.643	1	7
426.814	1	6
426.984	1	1
427.155	1	-9
427.326	1	-3
427.496	1	4
427.667	1	8
427.837	1	-4
428.008	1	5
428.179	1	-11
428.349	1	-4
428.520	1	-1
428.691	1	-7
428.861	1	-3
429.032	1	-2
429.202	1	13
429.373	1	-17
429.544	1	3
429.714	1	7
429.885	1	-3
430.055	1	-1
430.226	1	4
430.397	1	-9
430.567	1	3
430.738	1	-2
430.909	1	-8
431.079	1	8
431.250	1	-12
431.420	1	-4
431.591	1	4
431.762	1	8
431.932	1	-1
432.103	1	10
432.273	1	-12
432.444	1	2
432.615	1	-5
432.785	1	-1
432.956	1	-8
433.126	1	-4
433.297	1	7
433.468	1	0
433.638	1	-4
433.809	1	-4
433.979	1	-2
434.150	1	-9
434.320	1	-9
434.491	1	-2
434.662	1	-9
434.832	1	-12
435.003	1	9
435.173	1	1
435.344	1	-6
435.515	1	-2
435.685	1	10
435.856	1	-6
436.026	1	-10
436.197	1	3
436.368	1	1
436.538	1	3
436.709	1	-6
436.879	1	0
437.050	1	8
437.220	1	-5
437.391	1	5
437.562	1	2
437.732	1	-4
437.903	1	2
438.073	1	2
438.244	1	-4
438.414	1	4
438.585	1	-3
438.756	1	8
438.926	1	-4
439.097	1	-2
439.267	1	3
439.438	1	9
439.608	1	2
439.779	1	-7
439.949	1	-7
440.120	1	2
440.291	1	-8
440.461	1	5
440.632	1	-2
440.802	1	-1
440.973	1	3
441.143	1	10
441.314	1	2
441.485	1	-5
441.655	1	22
441.826	1	-2
441.996	1	-3
442.167	1	3
442.337	1	1
442.508	1	-4
442.678	1	-11
442.849	1	5
443.019	1	2
443.190	1	-6
443.361	1	6
443.531	1	5
443.702	1	-1
443.872	1	-3
444.043	1	-1
444.213	1	1
444.384	1	-6
444.554	1	-6
444.725	1	1
444.895	1	-3
445.066	1	-10
445.237	1	1
445.407	1	-1
445.578	1	2
445.748	1	-6
445.919	1	-4
446.089	1	10
446.260	1	-3
446.430	1	-7
446.601	1	-13
446.771	1	-7
446.942	1	5
447.112	1	2
447.283	1	-3
447.453	1	-2
447.624	1	3
447.794	1	-10
447.965	1	-11
448.135	1	-2
448.306	1	-2
448.477	1	-1
448.647	1	8
448.818	1	16
448.988	1	-16
449.159	1	-1
449.329	1	6
449.500	1	8
449.670	1	-3
449.841	1	-8
450.011	1	-8
450.182	1	-7
450.352	1	5
450.523	1	-1
450.693	1	5
450.864	1	-7
451.034	1	1
451.205	1	12
451.375	1	8
451.546	1	-2
451.716	1	6
451.887	1	-9
452.057	1	10
452.228	1	-8
452.398	1	0
452.569	1	-2
452.739	1	-2
452.910	1	-9
453.080	1	15
453.251	1	-12
453.421	1	-6
453.592	1	-5
453.762	1	6
453.933	1	7
454.103	1	1
454.274	1	-9
454.444	1	15
454.615	1	9
454.785	1	-4
454.956	1	-4
455.126	1	2
455.297	1	2
455.467	1	-4
455.638	1	7
455.808	1	-9
455.979	1	2
456.149	1	-1
456.320	1	1
456.490	1	-2
456.661	1	-4
456.831	1	8
457.001	1	-3
457.172	1	3
457.342	1	0
457.513	1	2
457.683	1	4
457.854	1	-3
458.024	1	-2
458.195	1	-10
458.365	1	1
458.536	1	6
458.706	1	6
458.877	1	-2
459.047	1	-6
459.218	1	2
459.388	1	-6
459.559	1	5
459.729	1	0
459.899	1	9
460.070	1	11
460.240	1	2
460.411	1	-8
460.581	1	4
460.752	1	-3
460.922	1	1
461.093	1	-4
461.263	1	4
461.434	1	5
461.604	1	1
461.775	1	-8
461.945	1	-2
462.115	1	-9
462.286	1	11
462.456	1	-8
462.627	1	3
462.797	1	-3
462.968	1	-7
463.138	1	6
463.309	1	3
463.479	1	13
463.649	1	2
463.820	1	4
463.990	1	-10
464.161	1	2
464.331	1	6
464.502	1	0
464.672	1	-6
464.843	1	-1
465.013	1	-2
465.183	1	-4
465.354	1	10
465.524	1	12
465.695	1	4
465.865	1	-14
466.036	1	8
466.206	1	-2
466.376	1	-2
466.547	1	-1
466.717	1	-11
466.888	1	10
467.058	1	3
467.229	1	3
467.399	1	7
467.569	1	4
467.740	1	-3
467.910	1	0
468.081	1	6
468.251	1	-9
468.422	1	5
468.592	1	9
468.762	1	-6
468.933	1	2
469.103	1	-7
469.274	1	6
469.444	1	-7
469.614	1	-10
469.785	1	4
469.955	1	6
470.126	1	14
470.296	1	2
470.467	1	-8
470.637	1	12
470.807	1	0
470.978	1	-3
471.148	1	-2
471.319	1	2
471.489	1	2
471.659	1	14
471.830	1	8
472.000	1	4
472.171	1	-2
472.341	1	-5
472.511	1	11
472.682	1	4
472.852	1	-7
473.023	1	-3
473.193	1	5
473.363	1	3
473.534	1	-5
473.704	1	12
473.875	1	3
474.045	1	-3
474.215	1	6
474.386	1	3
474.556	1	-5
474.727	1	4
474.897	1	2
475.067	1	1
475.238	1	-3
475.408	1	-7
475.578	1	1
475.749	1	-1
475.919	1	6
476.090	1	-4
476.260	1	-8
476.430	1	7
476.601	1	-4
476.771	1	0
476.942	1	-3
477.112	1	-5
477.282	1	-5
477.453	1	-4
477.623	1	10
477.793	1	3
477.964	1	10
478.134	1	2
478.305	1	3
478.475	1	-7
478.645	1	-6
478.816	1	-6
478.986	1	-4
479.156	1	7
479.327	1	-3
479.497	1	-12
479.667	1	2
479.838	1	-3
480.008	1	5
480.179	1	-2
480.349	1	5
480.519	1	-8
480.690	1	-2
480.860	1	-1
481.030	1	6
481.201	1	0
481.371	1	4
481.541	1	4
481.712	1	-6
481.882	1	5
482.053	1	2
482.223	1	-11
482.393	1	-4
482.564	1	-12
482.734	1	-2
482.904	1	2
483.075	1	2
483.245	1	2
483.415	1	10
483.586	1	-1
483.756	1	11
483.926	1	5
484.097	1	-12
484.267	1	7
484.437	1	-10
484.608	1	-1
484.778	1	-4
484.948	1	-3
485.119	1	0
485.289	1	1
485.459	1	3
485.630	1	-9
485.800	1	-5
485.970	1	-5
486.141	1	0
486.311	1	-1
486.481	1	0
486.652	1	3
486.822	1	3
486.992	1	-13
487.163	1	-4
487.333	1	-5
487.503	1	-3
487.674	1	2
487.844	1	0
488.014	1	10
488.185	1	1
488.355	1	-5
488.525	1	-3
488.696	1	-11
488.866	1	3
489.036	1	0
489.207	1	13
489.377	1	2
489.547	1	-4
489.718	1	1
489.888	1	-9
490.058	1	-7
490.228	1	-9
490.399	1	7
490.569	1	11
490.739	1	5
490.910	1	-4
491.080	1	-3
491.250	1	2
491.421	1	-2
491.591	1	-3
491.761	1	10
491.932	1	4
492.102	1	-7
492.272	1	-1
492.442	1	2
492.613	1	1
492.783	1	-9
492.953	1	9
493.124	1	0
493.294	1	9
493.464	1	-9
493.635	1	2
493.805	1	8
493.975	1	-3
494.145	1	9
494.316	1	10
494.486	1	5
494.656	1	-2
494.827	1	1
494.997	1	-1
495.167	1	-2
495.337	1	14
495.508	1	-12
495.678	1	6
495.848	1	8
496.019	1	0
496.189	1	1
496.359	1	0
496.529	1	-2
496.700	1	3
496.870	1	-5
497.040	1	2
497.211	1	11
497.381	1	-21
497.551	1	10
497.721	1	-1
497.892	1	2
498.062	1	-5
498.232	1	7
498.403	1	5
498.573	1	2
498.743	1	0
498.913	1	7
499.084	1	-3
499.254	1	0
499.424	1	6
499.594	1	-4
499.765	1	-4
499.935	1	-3
500.105	1	4
500.275	1	7
500.446	1	5
500.616	1	-2
500.786	1	5
500.956	1	-1
501.127	1	10
501.297	1	0
501.467	1	3
501.638	1	5
501.808	1	-14
501.978	1	5
502.148	1	4
502.319	1	3
502.489	1	9
502.659	1	3
502.829	1	4
503.000	1	5
503.170	1	8
503.340	1	-3
503.510	1	-8
503.681	1	8
503.851	1	-15
504.021	1	9
504.191	1	-2
504.362	1	14
504.532	1	-7
504.702	1	-1
504.872	1	0
505.042	1	4
505.213	1	-10
505.383	1	4
505.553	1	-4
505.723	1	5
505.894	1	3
506.064	1	-4
506.234	1	9
506.404	1	-2
506.575	1	1
506.745	1	2
506.915	1	-1
507.085	1	-4
507.256	1	-11
507.426	1	3
507.596	1	1
507.766	1	9
507.936	1	2
508.107	1	0
508.277	1	-5
508.447	1	8
508.617	1	2
508.788	1	-4
508.958	1	16
509.128	1	6
509.298	1	4
509.468	1	0
509.639	1	7
509.809	1	4
509.979	1	3
510.149	1	4
510.319	1	-8
510.490	1	12
510.660	1	3
510.830	1	4
511.000	1	1
511.171	1	5
511.341	1	-4
511.511	1	-3
511.681	1	4
511.851	1	-7
512.022	1	-6
512.192	1	9
512.362	1	-7
512.532	1	-3
512.702	1	-8
512.873	1	16
513.043	1	6
513.213	1	-7
513.383	1	0
513.553	1	2
513.724	1	18
513.894	1	-1
514.064	1	4
514.234	1	-2
514.404	1	4
514.575	1	10
514.745	1	-4
514.915	1	-10
515.085	1	3
515.255	1	-4
515.425	1	-1
515.596	1	-10
515.766	1	-7
515.936	1	5
516.106	1	2
516.276	1	1
516.447	1	7
516.617	1	2
516.787	1	-4
516.957	1	6
517.127	1	5
517.297	1	-6
517.468	1	2
517.638	1	9
517.808	1	5
517.978	1	-10
518.148	1	-1
518.319	1	-1
518.489	1	-5
518.659	1	-5
518.829	1	-5
518.999	1	-1
519.169	1	1
519.340	1	2
519.510	1	8
519.680	1	-3
519.850	1	-4
520.020	1	-5
520.190	1	11
520.361	1	-2
520.531	1	-8
520.701	1	4
520.871	1	-7
521.041	1	4
521.211	1	2
521.382	1	-1
521.552	1	-1
521.722	1	-1
521.892	1	-9
522.062	1	2
522.232	1	-10
522.402	1	-14
522.573	1	4
522.743	1	1
522.913	1	-1
523.083	1	-4
523.253	1	5
523.423	1	-4
523.593	1	-10
523.764	1	6
523.934	1	-1
524.104	1	2
524.274	1	-7
524.444	1	-4
524.614	1	-1
524.784	1	0
524.955	1	-4
525.125	1	9
525.295	1	-11
525.465	1	-1
525.635	1	16
525.805	1	-1
525.975	1	-3
526.146	1	0
526.316	1	-5
526.486	1	-3
526.656	1	13
526.826	1	7
526.996	1	9
527.166	1	-6
527.337	1	0
527.507	1	-11
527.677	1	14
527.847	1	-4
528.017	1	-10
528.187	1	2
528.357	1	8
528.527	1	3
528.698	1	-4
528.868	1	-7
529.038	1	-3
529.208	1	-8
529.378	1	0
529.548	1	1
529.718	1	5
529.888	1	1
530.058	1	-1
530.229	1	11
530.399	1	-2
530.569	1	4
530.739	1	-5
530.909	1	-2
531.079	1	0
531.249	1	3
531.419	1	5
531.589	1	-2
531.760	1	10
531.930	1	6
532.100	1	7
532.270	1	7
532.440	1	-6
532.610	1	5
532.780	1	1
532.950	1	2
533.120	1	-2
533.290	1	5
533.461	1	15
533.631	1	2
533.801	1	-1
533.971	1	3
534.141	1	5
534.311	1	-3
534.481	1	1
534.651	1	4
534.821	1	-2
534.991	1	4
535.162	1	-1
535.332	1	1
535.502	1	10
535.672	1	-3
535.842	1	-2
536.012	1	11
536.182	1	-3
536.352	1	-3
536.522	1	6
536.692	1	-7
536.862	1	9
537.032	1	-1
537.203	1	9
537.373	1	-8
537.543	1	-3
537.713	1	6
537.883	1	10
538.053	1	10
538.223	1	6
538.393	1	9
538.563	1	8
538.733	1	1
538.903	1	-2
539.073	1	1
539.243	1	-7
539.413	1	-5
539.584	1	-5
539.754	1	-1
539.924	1	6
540.094	1	6
540.264	1	5
540.434	1	-3
540.604	1	-1
540.774	1	-3
540.944	1	-1
541.114	1	-10
541.284	1	-2
541.454	1	10
541.624	1	-5
541.794	1	-7
541.964	1	-2
542.134	1	-2
542.305	1	-9
542.475	1	-5
542.645	1	1
542.815	1	2
542.985	1	1
543.155	1	3
543.325	1	-9
543.495	1	5
543.665	1	14
543.835	1	-4
544.005	1	-2
544.175	1	-3
544.345	1	-5
544.515	1	-4
544.685	1	0
544.855	1	9
545.025	1	-7
545.195	1	-2
545.365	1	3
545.535	1	-4
545.705	1	5
545.875	1	-1
546.045	1	10
546.216	1	15
546.386	1	9
546.556	1	4
546.726	1	2
546.896	1	-3
547.066	1	-8
547.236	1	-14
547.406	1	7
547.576	1	-4
547.746	1	8
547.916	1	-1
548.086	1	11
548.256	1	2
548.426	1	-4
548.596	1	0
548.766	1	0
548.936	1	-8
549.106	1	6
549.276	1	-6
549.446	1	3
549.616	1	16
549.786	1	3
549.956	1	-1
550.126	1	4
550.296	1	2
550.466	1	-10
550.636	1	1
550.806	1	-2
550.976	1	1
551.146	1	-6
551.316	1	-2
551.486	1	2
551.656	1	-16
551.826	1	1
551.996	1	8
552.166	1	-1
552.336	1	-4
552.506	1	-5
552.676	1	-2
552.846	1	1
553.016	1	-3
553.186	1	2
553.356	1	2
553.526	1	-1
553.696	1	13
553.866	1	0
554.036	1	6
554.206	1	3
554.376	1	-9
554.546	1	-10
554.716	1	3
554.886	1	2
555.056	1	-14
555.226	1	-7
555.396	1	-8
555.566	1	6
555.736	1	-6
555.906	1	0
556.076	1	-1
556.246	1	-5
556.416	1	-1
556.586	1	9
556.756	1	-1
556.926	1	2
557.096	1	5
557.266	1	4
557.436	1	10
557.606	1	-14
557.776	1	-5
557.946	1	9
558.116	1	4
558.286	1	10
558.456	1	-1
558.626	1	-1
558.796	1	-6
558.966	1	-1
559.136	1	0
559.306	1	-7
559.476	1	-4
559.646	1	4
559.816	1	7
559.986	1	-6
560.155	1	-8
560.325	1	-6
560.495	1	1
560.665	1	-4
560.835	1	8
561.005	1	-1
561.175	1	-5
561.345	1	-6
561.515	1	-4
561.685	1	-7
561.855	1	6
562.025	1	3
562.195	1	1
562.365	1	4
562.535	1	2
562.705	1	2
562.875	1	1
563.045	1	-6
563.215	1	-4
563.385	1	-4
563.555	1	6
563.725	1	-1
563.895	1	-6
564.064	1	11
564.234	1	-4
564.404	1	4
564.574	1	-4
564.744	1	4
564.914	1	-13
565.084	1	-1
565.254	1	-15
565.424	1	-1
565.594	1	-5
565.764	1	-5
565.934	1	6
566.104	1	-1
566.274	1	-1
566.444	1	0
566.614	1	2
566.783	1	2
566.953	1	6
567.123	1	4
567.293	1	-4
567.463	1	3
567.633	1	5
567.803	1	-3
567.973	1	-6
568.143	1	-3
568.313	1	-5
568.483	1	-6
568.653	1	-10
568.823	1	3
568.993	1	-12
569.162	1	5
569.332	1	-1
569.502	1	-9
569.672	1	0
569.842	1	-9
570.012	1	0
570.182	1	-6
570.352	1	1
570.522	1	4
570.692	1	0
570.862	1	3
571.031	1	0
571.201	1	-3
571.371	1	-5
571.541	1	-4
571.711	1	9
571.881	1	5
572.051	1	-1
572.221	1	5
572.391	1	3
572.561	1	-7
572.731	1	1
572.900	1	9
573.070	1	4
573.240	1	-3
573.410	1	-8
573.580	1	3
573.750	1	11
573.920	1	-5
574.090	1	1
574.260	1	1
574.430	1	-4
574.599	1	-9
574.769	1	-2
574.939	1	2
575.109	1	5
575.279	1	0
575.449	1	2
575.619	1	2
575.789	1	7
575.959	1	5
576.128	1	3
576.298	1	-5
576.468	1	-1
576.638	1	1
576.808	1	-11
576.978	1	0
577.148	1	-8
577.318	1	-1
577.487	1	-2
577.657	1	-14
577.827	1	7
577.997	1	-3
578.167	1	0
578.337	1	-3
578.507	1	4
578.677	1	1
578.846	1	-9
579.016	1	5
579.186	1	3
579.356	1	-7
579.526	1	-7
579.696	1	8
579.866	1	4
580.036	1	-8
580.205	1	6
580.375	1	8
580.545	1	-4
580.715	1	7
580.885	1	8
581.055	1	1
581.225	1	-10
581.394	1	-6
581.564	1	2
581.734	1	3
581.904	1	-1
582.074	1	-6
582.244	1	4
582.414	1	0
582.583	1	-3
582.753	1	12
582.923	1	-3
583.093	1	2
583.263	1	-2
583.433	1	-6
583.603	1	6
583.772	1	-8
583.942	1	4
584.112	1	5
584.282	1	8
584.452	1	-6
584.622	1	4
584.791	1	1
584.961	1	-4
585.131	1	-2
585.301	1	12
585.471	1	3
585.641	1	11
585.811	1	0
585.980	1	-7
586.150	1	0
586.320	1	-8
586.490	1	-8
586.660	1	2
586.830	1	-12
586.999	1	1
587.169	1	0
587.339	1	0
587.509	1	4
587.679	1	0
587.849	1	13
588.018	1	2
588.188	1	2
588.358	1	3
588.528	1	-11
588.698	1	2
588.867	1	3
589.037	1	5
589.207	1	-5
589.377	1	-1
589.547	1	-8
589.717	1	-9
589.886	1	-5
590.056	1	-1
590.226	1	8
590.396	1	4
590.566	1	3
590.735	1	18
590.905	1	3
591.075	1	-15
591.245	1	0
591.415	1	-12
591.585	1	-3
591.754	1	1
591.924	1	-4
592.094	1	1
592.264	1	-5
592.434	1	-7
592.603	1	-22
592.773	1	-7
592.943	1	-12
593.113	1	-5
593.283	1	4
593.452	1	-9
593.622	1	5
593.792	1	4
593.962	1	8
594.132	1	-6
594.301	1	18
594.471	1	-8
594.641	1	0
594.811	1	-3
594.981	1	-1
595.150	1	-8
595.320	1	5
595.490	1	-7
595.660	1	-9
595.829	1	-1
595.999	1	1
596.169	1	-7
596.339	1	-4
596.509	1	-6
596.678	1	2
596.848	1	4
597.018	1	-4
597.188	1	15
597.358	1	-3
597.527	1	-8
597.697	1	0
597.867	1	-3
598.037	1	0
598.206	1	-7
598.376	1	7
598.546	1	-3
598.716	1	-18
598.885	1	7
599.055	1	-4
599.225	1	-6
599.395	1	5
599.565	1	-1
599.734	1	2
599.904	1	-3
600.074	1	2
600.244	1	7
600.413	1	-1
600.583	1	-6
600.753	1	1
600.923	1	9
601.092	1	-11
601.262	1	-9
601.432	1	-1
601.602	1	3
601.771	1	5
601.941	1	3
602.111	1	-6
602.281	1	-1
602.451	1	-2
602.620	1	5
602.790	1	-5
602.960	1	-8
603.130	1	-2
603.299	1	-4
603.469	1	-7
603.639	1	3
603.809	1	-6
603.978	1	1
604.148	1	2
604.318	1	-5
604.487	1	10
604.657	1	0
604.827	1	-17
604.997	1	-2
605.166	1	-7
605.336	1	-6
605.506	1	-3
605.676	1	-1
605.845	1	-8
606.015	1	-2
606.185	1	-3
606.355	1	13
606.524	1	-9
606.694	1	7
606.864	1	-4
607.034	1	-5
607.203	1	0
607.373	1	-6
607.543	1	-9
607.712	1	5
607.882	1	-5
608.052	1	3
608.222	1	-1
608.391	1	-5
608.561	1	1
608.731	1	-7
608.901	1	3
609.070	1	5
609.240	1	2
609.410	1	3
609.579	1	-2
609.749	1	7
609.919	1	-1
610.089	1	-3
610.258	1	3
610.428	1	-6
610.598	1	-7
610.767	1	1
610.937	1	-5
611.107	1	6
611.277	1	1
611.446	1	-4
611.616	1	-6
611.786	1	7
611.955	1	5
612.125	1	3
612.295	1	-11
612.465	1	-3
612.634	1	2
612.804	1	3
612.974	1	2
613.143	1	-1
613.313	1	1
613.483	1	4
613.652	1	-10
613.822	1	5
613.992	1	3
614.162	1	2
614.331	1	0
614.501	1	-4
614.671	1	6
614.840	1	4
615.010	1	-9
615.180	1	6
615.349	1	3
615.519	1	11
615.689	1	-9
615.858	1	5
616.028	1	-8
616.198	1	3
616.368	1	-5
616.537	1	3
616.707	1	-4
616.877	1	2
617.046	1	0
617.216	1	-3
617.386	1	-1
617.555	1	-7
617.725	1	5
617.895	1	-5
618.064	1	7
618.234	1	-7
618.404	1	11
618.573	1	-5
618.743	1	5
618.913	1	-4
619.082	1	1
619.252	1	2
619.422	1	-3
619.591	1	-3
619.761	1	3
619.931	1	4
620.100	1	-4
620.270	1	9
620.440	1	-4
620.609	1	0
620.779	1	-5
620.949	1	-3
621.118	1	-2
621.288	1	3
621.458	1	3
621.627	1	-18
621.797	1	-1
621.967	1	-9
622.136	1	6
622.306	1	4
622.476	1	-5
622.645	1	4
622.815	1	-1
622.985	1	5
623.154	1	-5
623.324	1	-2
623.494	1	8
623.663	1	-1
623.833	1	-4
624.002	1	-3
624.172	1	12
624.342	1	-8
624.511	1	0
624.681	1	-2
624.851	1	-10
625.020	1	-6
625.190	1	1
625.360	1	-15
625.529	1	2
625.699	1	-9
625.869	1	6
626.038	1	5
626.208	1	-4
626.377	1	8
626.547	1	4
626.717	1	-2
626.886	1	-4
627.056	1	0
627.226	1	7
627.395	1	5
627.565	1	2
627.735	1	4
627.904	1	7
628.074	1	7
628.243	1	-13
628.413	1	0
628.583	1	-2
628.752	1	9
628.922	1	2
629.091	1	3
629.261	1	10
629.431	1	-10
629.600	1	-3
629.770	1	6
629.940	1	5
630.109	1	-6
630.279	1	0
630.448	1	-8
630.618	1	-7
630.788	1	-3
630.957	1	-8
631.127	1	10
631.297	1	-9
631.466	1	-7
631.636	1	0
631.805	1	-3
631.975	1	4
632.145	1	-9
632.314	1	4
632.484	1	-9
632.653	1	-7
632.823	1	8
632.993	1	11
633.162	1	1
633.332	1	-1
633.501	1	3
633.671	1	-2
633.841	1	-3
634.010	1	-1
634.180	1	4
634.349	1	1
634.519	1	-2
634.689	1	8
634.858	1	5
635.028	1	-3
635.197	1	-3
635.367	1	-4
635.537	1	2
635.706	1	-3
635.876	1	-10
636.045	1	2
636.215	1	-3
636.384	1	5
636.554	1	11
636.724	1	-4
636.893	1	-2
637.063	1	6
637.232	1	1
637.402	1	5
637.572	1	-10
637.741	1	13
637.911	1	-5
638.080	1	1
638.250	1	6
638.419	1	3
638.589	1	11
638.759	1	3
638.928	1	-13
639.098	1	5
639.267	1	2
639.437	1	-8
639.606	1	10
639.776	1	-9
639.946	1	-1
640.115	1	-8
640.285	1	4
640.454	1	6
640.624	1	0
640.793	1	-3
640.963	1	-12
641.132	1	7
641.302	1	-5
641.472	1	2
641.641	1	-8
641.811	1	-4
641.980	1	-10
642.150	1	1
642.319	1	-3
642.489	1	-2
642.659	1	-6
642.828	1	-5
642.998	1	-8
643.167	1	6
643.337	1	-3
643.506	1	1
643.676	1	-2
643.845	1	0
644.015	1	2
644.184	1	3
644.354	1	-11
644.524	1	-7
644.693	1	0
644.863	1	-6
645.032	1	-4
645.202	1	2
645.371	1	-11
645.541	1	-14
645.710	1	2
645.880	1	4
646.049	1	6
646.219	1	2
646.388	1	5
646.558	1	-4
646.728	1	2
646.897	1	-11
647.067	1	1
647.236	1	0
647.406	1	-10
647.575	1	-1
647.745	1	-1
647.914	1	-5
648.084	1	8
648.253	1	-1
648.423	1	-8
648.592	1	2
648.762	1	-5
648.931	1	5
649.101	1	0
649.270	1	4
649.440	1	1
649.610	1	4
649.779	1	-5
649.949	1	-3
650.118	1	-6
650.288	1	2
650.457	1	-2
650.627	1	1
650.796	1	1
650.966	1	-4
651.135	1	8
651.305	1	-5
651.474	1	5
651.644	1	-3
651.813	1	2
651.983	1	1
652.152	1	-6
652.322	1	7
652.491	1	2
652.661	1	3
652.830	1	16
653.000	1	-7
653.169	1	13
653.339	1	1
653.508	1	-4
653.678	1	1
653.847	1	2
654.017	1	-6
654.186	1	10
654.356	1	2
654.525	1	2
654.695	1	8
654.864	1	2
655.034	1	4
655.203	1	2
655.373	1	7
655.542	1	5
655.712	1	-6
655.881	1	6
656.051	1	1
656.220	1	4
656.390	1	-1
656.559	1	-12
656.729	1	4
656.898	1	-6
657.068	1	2
657.237	1	3
657.406	1	4
657.576	1	-12
657.745	1	-4
657.915	1	-4
658.084	1	5
658.254	1	4
658.423	1	-3
658.593	1	-6
658.762	1	-6
658.932	1	9
659.101	1	0
659.271	1	5
659.440	1	2
659.610	1	1
659.779	1	-7
659.949	1	-14
660.118	1	-5
660.288	1	-10
660.457	1	-5
660.626	1	-4
660.796	1	-1
660.965	1	5
661.135	1	7
661.304	1	-4
661.474	1	-4
661.643	1	-7
661.813	1	5
661.982	1	-3
662.152	1	-7
662.321	1	-1
662.491	1	-1
662.660	1	-2
662.829	1	-2
662.999	1	5
663.168	1	-7
663.338	1	-4
663.507	1	-6
663.677	1	-14
663.846	1	4
664.016	1	-2
664.185	1	2
664.354	1	-2
664.524	1	-7
664.693	1	9
664.863	1	2
665.032	1	2
665.202	1	-8
665.371	1	-6
665.541	1	-7
665.710	1	-6
665.879	1	-2
666.049	1	2
666.218	1	-8
666.388	1	-6
666.557	1	8
666.727	1	-17
666.896	1	-2
667.065	1	18
667.235	1	-2
667.404	1	-11
667.574	1	1
667.743	1	-2
667.913	1	3
668.082	1	1
668.251	1	-2
668.421	1	11
668.590	1	2
668.760	1	-11
668.929	1	5
669.099	1	-3
669.268	1	-1
669.437	1	12
669.607	1	-8
669.776	1	-1
669.946	1	9
670.115	1	7
670.285	1	-3
670.454	1	-2
670.623	1	6
670.793	1	-3
670.962	1	-12
671.132	1	8
671.301	1	-11
671.470	1	-2
671.640	1	-13
671.809	1	-5
671.979	1	3
672.148	1	9
672.317	1	-2
672.487	1	-7
672.656	1	3
672.826	1	-18
672.995	1	1
673.164	1	1
673.334	1	9
673.503	1	3
673.673	1	15
673.842	1	-5
674.011	1	5
674.181	1	-2
674.350	1	2
674.520	1	-10
674.689	1	0
674.858	1	-2
675.028	1	5
675.197	1	-2
675.367	1	-1
675.536	1	7
675.705	1	-12
675.875	1	-3
676.044	1	-11
676.214	1	1
676.383	1	1
676.552	1	-9
676.722	1	-2
676.891	1	-11
677.060	1	0
677.230	1	2
677.399	1	-4
677.569	1	-9
677.738	1	-3
677.907	1	-10
678.077	1	1
678.246	1	0
678.416	1	1
678.585	1	11
678.754	1	-1
678.924	1	-12
679.093	1	1
679.262	1	-5
679.432	1	-6
679.601	1	-13
679.771	1	0
679.940	1	-3
680.109	1	5
680.279	1	-1
680.448	1	-7
680.617	1	-7
680.787	1	-1
680.956	1	-8
681.125	1	-2
681.295	1	4
681.464	1	2
681.634	1	4
681.803	1	-8
681.972	1	-3
682.142	1	7
682.311	1	0
682.480	1	-5
682.650	1	-7
682.819	1	-3
682.988	1	0
683.158	1	-10
683.327	1	6
683.496	1	1
683.666	1	1
683.835	1	4
684.004	1	7
684.174	1	-8
684.343	1	-10
684.512	1	1
684.682	1	3
684.851	1	-4
685.021	1	8
685.190	1	15
685.359	1	-7
685.529	1	-2
685.698	1	-4
685.867	1	4
686.037	1	2
686.206	1	7
686.375	1	4
686.545	1	3
686.714	1	-1
686.883	1	-1
687.053	1	7
687.222	1	-7
687.391	1	0
687.561	1	4
687.730	1	-7
687.899	1	3
688.069	1	2
688.238	1	-1
688.407	1	16
688.577	1	-2
688.746	1	7
