340.368	1	3
340.539	1	-2
340.710	1	-15
340.881	1	1
341.052	1	5
341.223	1	12
341.394	1	-4
341.565	1	-3
341.737	1	6
341.908	1	13
342.079	1	-2
342.250	1	0
342.421	1	-5
342.592	1	2
342.763	1	-11
342.934	1	-3
343.105	1	3
343.276	1	-2
343.447	1	9
343.618	1	-2
343.789	1	-3
343.960	1	4
344.131	1	0
344.302	1	-2
344.473	1	-5
344.644	1	0
344.815	1	1
344.986	1	2
345.157	1	5
345.328	1	-1
345.499	1	4
345.670	1	8
345.841	1	-2
346.012	1	8
346.183	1	0
346.354	1	1
346.526	1	3
346.697	1	2
346.868	1	0
347.039	1	2
347.210	1	-2
347.381	1	-1
347.552	1	-4
347.723	1	1
347.894	1	-3
348.065	1	-2
348.236	1	1
348.407	1	-10
348.578	1	12
348.749	1	5
348.920	1	5
349.091	1	-1
349.262	1	-6
349.433	1	-3
349.604	1	8
349.775	1	3
349.946	1	10
350.117	1	11
350.288	1	7
350.459	1	10
350.630	1	0
350.801	1	7
350.972	1	-2
351.143	1	-7
351.314	1	-5
351.485	1	-5
351.656	1	2
351.827	1	-2
351.998	1	-4
352.169	1	13
352.340	1	2
352.511	1	1
352.682	1	-5
352.853	1	-3
353.024	1	-9
353.195	1	-1
353.366	1	-1
353.537	1	-8
353.708	1	9
353.879	1	10
354.050	1	3
354.221	1	-11
354.392	1	5
354.563	1	12
354.734	1	-5
354.905	1	8
355.076	1	4
355.247	1	-10
355.418	1	-2
355.589	1	0
355.760	1	4
355.931	1	4
356.102	1	0
356.273	1	2
356.444	1	5
356.615	1	3
356.785	1	2
356.956	1	-1
357.127	1	3
357.298	1	6
357.469	1	3
357.640	1	10
357.811	1	11
357.982	1	-6
358.153	1	5
358.324	1	-7
358.495	1	15
358.666	1	5
358.837	1	-5
359.008	1	-6
359.179	1	9
359.350	1	-2
359.521	1	-2
359.692	1	4
359.863	1	-7
360.034	1	-10
360.205	1	2
360.376	1	-1
360.547	1	2
360.718	1	-3
360.889	1	6
361.060	1	14
361.231	1	3
361.401	1	12
361.572	1	-4
361.743	1	6
361.914	1	0
362.085	1	-7
362.256	1	6
362.427	1	-4
362.598	1	1
362.769	1	14
362.940	1	-1
363.111	1	-1
363.282	1	6
363.453	1	-1
363.624	1	8
363.795	1	11
363.966	1	9
364.137	1	-7
364.308	1	-6
364.478	1	9
364.649	1	-1
364.820	1	-2
364.991	1	10
365.162	1	-13
365.333	1	17
365.504	1	-11
365.675	1	0
365.846	1	-5
366.017	1	7
366.188	1	1
366.359	1	-4
366.530	1	9
366.701	1	-11
366.871	1	14
367.042	1	10
367.213	1	3
367.384	1	11
367.555	1	2
367.726	1	19
367.897	1	-6
368.068	1	3
368.239	1	11
368.410	1	6
368.581	1	3
368.752	1	-2
368.923	1	-17
369.093	1	14
369.264	1	-3
369.435	1	-5
369.606	1	3
369.777	1	-10
369.948	1	11
370.119	1	3
370.290	1	3
370.461	1	1
370.632	1	-4
370.803	1	-1
370.973	1	13
371.144	1	-2
371.315	1	1
371.486	1	12
371.657	1	2
371.828	1	4
371.999	1	0
372.170	1	9
372.341	1	7
372.512	1	-3
372.682	1	-4
372.853	1	7
373.024	1	-6
373.195	1	-11
373.366	1	0
373.537	1	2
373.708	1	-3
373.879	1	6
374.050	1	7
374.220	1	2
374.391	1	-8
374.562	1	0
374.733	1	17
374.904	1	-4
375.075	1	6
375.246	1	0
375.417	1	1
375.588	1	-1
375.758	1	-8
375.929	1	8
376.100	1	11
376.271	1	-1
376.442	1	4
376.613	1	-1
376.784	1	2
376.955	1	-3
377.125	1	-4
377.296	1	3
377.467	1	-1
377.638	1	-1
377.809	1	12
377.980	1	5
378.151	1	-11
378.321	1	7
378.492	1	11
378.663	1	-8
378.834	1	4
379.005	1	5
379.176	1	-9
379.347	1	6
379.518	1	-10
379.688	1	-5
379.859	1	-3
380.030	1	-8
380.201	1	-4
380.372	1	-6
380.543	1	11
380.714	1	4
380.884	1	-3
381.055	1	2
381.226	1	-2
381.397	1	-9
381.568	1	4
381.739	1	1
381.910	1	4
382.080	1	-2
382.251	1	3
382.422	1	17
382.593	1	-3
382.764	1	-6
382.935	1	7
383.105	1	-2
383.276	1	-7
383.447	1	13
383.618	1	6
383.789	1	4
383.960	1	1
384.130	1	-15
384.301	1	6
384.472	1	-7
384.643	1	12
384.814	1	-2
384.985	1	-2
385.156	1	12
385.326	1	9
385.497	1	7
385.668	1	-6
385.839	1	5
386.010	1	13
386.180	1	-1
386.351	1	-4
386.522	1	12
386.693	1	2
386.864	1	5
387.035	1	-4
387.205	1	3
387.376	1	9
387.547	1	1
387.718	1	10
387.889	1	15
388.060	1	1
388.230	1	3
388.401	1	15
388.572	1	-5
388.743	1	6
388.914	1	11
389.084	1	8
389.255	1	7
389.426	1	10
389.597	1	8
389.768	1	4
389.939	1	13
390.109	1	4
390.280	1	14
390.451	1	18
390.622	1	-4
390.793	1	4
390.963	1	15
391.134	1	6
391.305	1	13
391.476	1	9
391.647	1	1
391.817	1	1
391.988	1	-4
392.159	1	3
392.330	1	8
392.501	1	8
392.671	1	2
392.842	1	12
393.013	1	5
393.184	1	4
393.355	1	17
393.525	1	10
393.696	1	-2
393.867	1	-4
394.038	1	-9
394.208	1	5
394.379	1	-3
394.550	1	5
394.721	1	4
394.892	1	7
395.062	1	-3
395.233	1	13
395.404	1	13
395.575	1	-6
395.746	1	0
395.916	1	4
396.087	1	-1
396.258	1	9
396.429	1	2
396.599	1	6
396.770	1	1
396.941	1	12
397.112	1	-3
397.283	1	10
397.453	1	-5
397.624	1	5
397.795	1	6
397.966	1	11
398.136	1	5
398.307	1	4
398.478	1	3
398.649	1	6
398.819	1	10
398.990	1	0
399.161	1	5
399.332	1	12
399.503	1	7
399.673	1	-3
399.844	1	-3
400.015	1	6
400.186	1	15
400.356	1	6
400.527	1	-1
400.698	1	1
400.869	1	9
401.039	1	-3
401.210	1	0
401.381	1	10
401.552	1	7
401.722	1	10
401.893	1	4
402.064	1	-3
402.235	1	1
402.405	1	3
402.576	1	14
402.747	1	-4
402.918	1	2
403.088	1	-3
403.259	1	-5
403.430	1	-6
403.601	1	-2
403.771	1	7
403.942	1	4
404.113	1	12
404.284	1	10
404.454	1	12
404.625	1	0
404.796	1	-5
404.967	1	-1
405.137	1	4
405.308	1	7
405.479	1	-2
405.649	1	-3
405.820	1	6
405.991	1	9
406.162	1	1
406.332	1	-4
406.503	1	4
406.674	1	4
406.845	1	1
407.015	1	-4
407.186	1	12
407.357	1	7
407.527	1	6
407.698	1	5
407.869	1	-3
408.040	1	-8
408.210	1	4
408.381	1	-7
408.552	1	6
408.722	1	4
408.893	1	0
409.064	1	3
409.235	1	3
409.405	1	-3
409.576	1	8
409.747	1	4
409.917	1	-1
410.088	1	5
410.259	1	1
410.430	1	7
410.600	1	-6
410.771	1	10
410.942	1	3
411.112	1	8
411.283	1	-10
411.454	1	15
411.625	1	6
411.795	1	2
411.966	1	2
412.137	1	6
412.307	1	-2
412.478	1	3
412.649	1	2
412.819	1	-2
412.990	1	-2
413.161	1	4
413.332	1	6
413.502	1	-2
413.673	1	2
413.844	1	0
414.014	1	0
414.185	1	14
414.356	1	-4
414.526	1	5
414.697	1	4
414.868	1	11
415.038	1	-5
415.209	1	-2
415.380	1	-3
415.550	1	-5
415.721	1	0
415.892	1	2
416.063	1	23
416.233	1	-1
416.404	1	5
416.575	1	-4
416.745	1	-6
416.916	1	-3
417.087	1	-3
417.257	1	4
417.428	1	-5
417.599	1	2
417.769	1	2
417.940	1	-7
418.111	1	-2
418.281	1	-2
418.452	1	-2
418.623	1	0
418.793	1	4
418.964	1	-5
419.135	1	9
419.305	1	-6
419.476	1	-5
419.647	1	8
419.817	1	4
419.988	1	-2
420.159	1	-8
420.329	1	8
420.500	1	4
420.671	1	5
420.841	1	9
421.012	1	7
421.183	1	6
421.353	1	-2
421.524	1	-4
421.695	1	5
421.865	1	-2
422.036	1	-4
422.206	1	-6
422.377	1	4
422.548	1	2
422.718	1	2
422.889	1	19
423.060	1	3
423.230	1	9
423.401	1	-4
423.572	1	0
423.742	1	0
423.913	1	6
424.084	1	2
424.254	1	1
424.425	1	-8
424.595	1	-8
424.766	1	0
424.937	1	0
425.107	1	2
425.278	1	-3
425.449	1	2
425.619	1	5
425.790	1	-1
425.961	1	-3
426.131	1	0
426.302	1	0
426.472	1	1
426.643	1	1
426.814	1	9
426.984	1	6
427.155	1	-4
427.326	1	11
427.496	1	13
427.667	1	7
427.837	1	-2
428.008	1	5
428.179	1	-2
428.349	1	-2
428.520	1	2
428.691	1	0
428.861	1	6
429.032	1	-2
429.202	1	4
429.373	1	-7
429.544	1	11
429.714	1	6
429.885	1	0
430.055	1	-1
430.226	1	-6
430.397	1	2
430.567	1	7
430.738	1	-1
430.909	1	-12
431.079	1	7
431.250	1	-12
431.420	1	-3
431.591	1	6
431.762	1	-2
431.932	1	6
432.103	1	1
432.273	1	0
432.444	1	8
432.615	1	-1
432.785	1	0
432.956	1	2
433.126	1	4
433.297	1	7
433.468	1	2
433.638	1	2
433.809	1	2
433.979	1	3
434.150	1	-8
434.320	1	3
434.491	1	6
434.662	1	-6
434.832	1	7
435.003	1	1
435.173	1	-2
435.344	1	8
435.515	1	-5
435.685	1	9
435.856	1	-1
436.026	1	0
436.197	1	6
436.368	1	1
436.538	1	-4
436.709	1	-4
436.879	1	0
437.050	1	-1
437.220	1	11
437.391	1	7
437.562	1	17
437.732	1	-2
437.903	1	0
438.073	1	6
438.244	1	-6
438.414	1	-4
438.585	1	3
438.756	1	8
438.926	1	9
439.097	1	6
439.267	1	16
439.438	1	6
439.608	1	-10
439.779	1	4
439.949	1	-5
440.120	1	9
440.291	1	-7
440.461	1	-8
440.632	1	7
440.802	1	-2
440.973	1	3
441.143	1	10
441.314	1	10
441.485	1	-7
441.655	1	15
441.826	1	0
441.996	1	-2
442.167	1	2
442.337	1	-1
442.508	1	1
442.678	1	-1
442.849	1	4
443.019	1	4
443.190	1	-7
443.361	1	-1
443.531	1	2
443.702	1	3
443.872	1	-1
444.043	1	12
444.213	1	7
444.384	1	-1
444.554	1	-2
444.725	1	1
444.895	1	-6
445.066	1	-8
445.237	1	-3
445.407	1	-9
445.578	1	2
445.748	1	-3
445.919	1	-7
446.089	1	16
446.260	1	1
446.430	1	-12
446.601	1	5
446.771	1	-3
446.942	1	5
447.112	1	2
447.283	1	-6
447.453	1	-8
447.624	1	0
447.794	1	-6
447.965	1	-14
448.135	1	0
448.306	1	-4
448.477	1	-8
448.647	1	12
448.818	1	0
448.988	1	-13
449.159	1	2
449.329	1	0
449.500	1	6
449.670	1	3
449.841	1	5
450.011	1	-3
450.182	1	-5
450.352	1	10
450.523	1	3
450.693	1	9
450.864	1	10
451.034	1	8
451.205	1	7
451.375	1	11
451.546	1	-2
451.716	1	5
451.887	1	-4
452.057	1	11
452.228	1	-13
452.398	1	3
452.569	1	4
452.739	1	12
452.910	1	-4
453.080	1	11
453.251	1	-8
453.421	1	0
453.592	1	1
453.762	1	6
453.933	1	8
454.103	1	1
454.274	1	-8
454.444	1	5
454.615	1	-5
454.785	1	0
454.956	1	-4
455.126	1	6
455.297	1	-4
455.467	1	-3
455.638	1	12
455.808	1	3
455.979	1	6
456.149	1	-7
456.320	1	7
456.490	1	0
456.661	1	-10
456.831	1	4
457.001	1	2
457.172	1	-8
457.342	1	4
457.513	1	3
457.683	1	-4
457.854	1	2
458.024	1	-3
458.195	1	2
458.365	1	4
458.536	1	5
458.706	1	2
458.877	1	13
459.047	1	1
459.218	1	-2
459.388	1	-1
459.559	1	3
459.729	1	10
459.899	1	4
460.070	1	9
460.240	1	0
460.411	1	3
460.581	1	5
460.752	1	-1
460.922	1	-2
461.093	1	12
461.263	1	2
461.434	1	12
461.604	1	7
461.775	1	2
461.945	1	8
462.115	1	-9
462.286	1	3
462.456	1	-10
462.627	1	3
462.797	1	-7
462.968	1	-5
463.138	1	12
463.309	1	5
463.479	1	9
463.649	1	1
463.820	1	5
463.990	1	2
464.161	1	2
464.331	1	3
464.502	1	3
464.672	1	-5
464.843	1	-6
465.013	1	-15
465.183	1	-5
465.354	1	1
465.524	1	7
465.695	1	1
465.865	1	1
466.036	1	2
466.206	1	4
466.376	1	1
466.547	1	2
466.717	1	1
466.888	1	4
467.058	1	6
467.229	1	7
467.399	1	7
467.569	1	2
467.740	1	-2
467.910	1	2
468.081	1	0
468.251	1	-6
468.422	1	-3
468.592	1	4
468.762	1	-7
468.933	1	13
469.103	1	-8
469.274	1	-8
469.444	1	1
469.614	1	-6
469.785	1	2
469.955	1	-1
470.126	1	3
470.296	1	3
470.467	1	-13
470.637	1	12
470.807	1	-14
470.978	1	3
471.148	1	-1
471.319	1	8
471.489	1	7
471.659	1	5
471.830	1	6
472.000	1	4
472.171	1	4
472.341	1	3
472.511	1	6
472.682	1	-3
472.852	1	-11
473.023	1	-11
473.193	1	0
473.363	1	4
473.534	1	-4
473.704	1	15
473.875	1	2
474.045	1	-4
474.215	1	-2
474.386	1	12
474.556	1	-1
474.727	1	5
474.897	1	0
475.067	1	5
475.238	1	-1
475.408	1	-2
475.578	1	4
475.749	1	-11
475.919	1	-1
476.090	1	1
476.260	1	-9
476.430	1	-1
476.601	1	-6
476.771	1	-1
476.942	1	-2
477.112	1	2
477.282	1	-6
477.453	1	3
477.623	1	3
477.793	1	9
477.964	1	4
478.134	1	5
478.305	1	7
478.475	1	-6
478.645	1	-6
478.816	1	-5
478.986	1	1
479.156	1	-2
479.327	1	-2
479.497	1	-6
479.667	1	1
479.838	1	6
480.008	1	-1
480.179	1	2
480.349	1	6
480.519	1	-10
480.690	1	3
480.860	1	2
481.030	1	0
481.201	1	6
481.371	1	-1
481.541	1	10
481.712	1	4
481.882	1	-6
482.053	1	7
482.223	1	-8
482.393	1	-9
482.564	1	-13
482.734	1	6
482.904	1	-5
483.075	1	10
483.245	1	6
483.415	1	5
483.586	1	-7
483.756	1	12
483.926	1	7
484.097	1	-9
484.267	1	-4
484.437	1	-13
484.608	1	2
484.778	1	3
484.948	1	-2
485.119	1	8
485.289	1	15
485.459	1	4
485.630	1	-8
485.800	1	4
485.970	1	2
486.141	1	-5
486.311	1	5
486.481	1	-3
486.652	1	6
486.822	1	4
486.992	1	-1
487.163	1	2
487.333	1	7
487.503	1	-7
487.674	1	-5
487.844	1	12
488.014	1	2
488.185	1	-11
488.355	1	-8
488.525	1	-6
488.696	1	-7
488.866	1	6
489.036	1	4
489.207	1	15
489.377	1	-2
489.547	1	0
489.718	1	1
489.888	1	-8
490.058	1	0
490.228	1	-11
490.399	1	0
490.569	1	13
490.739	1	7
490.910	1	-1
491.080	1	-4
491.250	1	3
491.421	1	9
491.591	1	-8
491.761	1	3
491.932	1	3
492.102	1	-2
492.272	1	14
492.442	1	3
492.613	1	0
492.783	1	-13
492.953	1	3
493.124	1	-1
493.294	1	6
493.464	1	1
493.635	1	2
493.805	1	8
493.975	1	1
494.145	1	5
494.316	1	11
494.486	1	10
494.656	1	4
494.827	1	-1
494.997	1	-4
495.167	1	6
495.337	1	6
495.508	1	-2
495.678	1	9
495.848	1	8
496.019	1	-1
496.189	1	6
496.359	1	-3
496.529	1	1
496.700	1	0
496.870	1	0
497.040	1	1
497.211	1	-4
497.381	1	-14
497.551	1	7
497.721	1	0
497.892	1	10
498.062	1	0
498.232	1	9
498.403	1	10
498.573	1	-6
498.743	1	0
498.913	1	3
499.084	1	-8
499.254	1	-2
499.424	1	8
499.594	1	1
499.765	1	2
499.935	1	-15
500.105	1	4
500.275	1	11
500.446	1	20
500.616	1	-1
500.786	1	12
500.956	1	4
501.127	1	0
501.297	1	-5
501.467	1	6
501.638	1	4
501.808	1	-7
501.978	1	2
502.148	1	12
502.319	1	1
502.489	1	-4
502.659	1	2
502.829	1	14
503.000	1	7
503.170	1	2
503.340	1	1
503.510	1	-4
503.681	1	-4
503.851	1	-16
504.021	1	17
504.191	1	4
504.362	1	9
504.532	1	-13
504.702	1	6
504.872	1	-18
505.042	1	-4
505.213	1	9
505.383	1	2
505.553	1	2
505.723	1	4
505.894	1	8
506.064	1	3
506.234	1	2
506.404	1	2
506.575	1	-2
506.745	1	0
506.915	1	8
507.085	1	-8
507.256	1	-2
507.426	1	8
507.596	1	2
507.766	1	3
507.936	1	0
508.107	1	-2
508.277	1	4
508.447	1	6
508.617	1	9
508.788	1	2
508.958	1	11
509.128	1	3
509.298	1	12
509.468	1	8
509.639	1	10
509.809	1	12
509.979	1	6
510.149	1	2
510.319	1	-6
510.490	1	2
510.660	1	6
510.830	1	-4
511.000	1	5
511.171	1	9
511.341	1	-8
511.511	1	-3
511.681	1	0
511.851	1	-12
512.022	1	-11
512.192	1	3
512.362	1	1
512.532	1	-3
512.702	1	-6
512.873	1	15
513.043	1	11
513.213	1	7
513.383	1	-3
513.553	1	-5
513.724	1	3
513.894	1	-5
514.064	1	-1
514.234	1	5
514.404	1	-6
514.575	1	5
514.745	1	-7
514.915	1	7
515.085	1	-10
515.255	1	-6
515.425	1	4
515.596	1	-9
515.766	1	1
515.936	1	8
516.106	1	-4
516.276	1	4
516.447	1	-3
516.617	1	2
516.787	1	-2
516.957	1	-6
517.127	1	3
517.297	1	7
517.468	1	3
517.638	1	9
517.808	1	1
517.978	1	-1
518.148	1	1
518.319	1	7
518.489	1	1
518.659	1	5
518.829	1	-1
518.999	1	-6
519.169	1	6
519.340	1	8
519.510	1	-5
519.680	1	-8
519.850	1	-11
520.020	1	-9
520.190	1	-1
520.361	1	2
520.531	1	-1
520.701	1	3
520.871	1	-2
521.041	1	2
521.211	1	-3
521.382	1	0
521.552	1	-5
521.722	1	1
521.892	1	-5
522.062	1	-7
522.232	1	-6
522.402	1	0
522.573	1	-3
522.743	1	9
522.913	1	14
523.083	1	-7
523.253	1	7
523.423	1	-3
523.593	1	-18
523.764	1	13
523.934	1	7
524.104	1	2
524.274	1	-4
524.444	1	3
524.614	1	-2
524.784	1	8
524.955	1	2
525.125	1	-6
525.295	1	-4
525.465	1	7
525.635	1	5
525.805	1	0
525.975	1	-9
526.146	1	4
526.316	1	5
526.486	1	7
526.656	1	18
526.826	1	5
526.996	1	10
527.166	1	11
527.337	1	0
527.507	1	-5
527.677	1	16
527.847	1	5
528.017	1	-9
528.187	1	5
528.357	1	16
528.527	1	2
528.698	1	-8
528.868	1	-1
529.038	1	9
529.208	1	-3
529.378	1	11
529.548	1	6
529.718	1	3
529.888	1	5
530.058	1	4
530.229	1	7
530.399	1	11
530.569	1	4
530.739	1	-4
530.909	1	0
531.079	1	8
531.249	1	1
531.419	1	0
531.589	1	-5
531.760	1	4
531.930	1	-1
532.100	1	11
532.270	1	6
532.440	1	-2
532.610	1	-2
532.780	1	-3
532.950	1	7
533.120	1	-6
533.290	1	-3
533.461	1	17
533.631	1	-5
533.801	1	4
533.971	1	3
534.141	1	6
534.311	1	1
534.481	1	2
534.651	1	6
534.821	1	2
534.991	1	3
535.162	1	0
535.332	1	8
535.502	1	6
535.672	1	-8
535.842	1	-2
536.012	1	16
536.182	1	0
536.352	1	1
536.522	1	1
536.692	1	3
536.862	1	-3
537.032	1	1
537.203	1	1
537.373	1	5
537.543	1	2
537.713	1	14
537.883	1	9
538.053	1	4
538.223	1	11
538.393	1	8
538.563	1	6
538.733	1	-3
538.903	1	-1
539.073	1	9
539.243	1	9
539.413	1	0
539.584	1	-3
539.754	1	-7
539.924	1	2
540.094	1	4
540.264	1	3
540.434	1	-3
540.604	1	17
540.774	1	-5
540.944	1	0
541.114	1	-11
541.284	1	-4
541.454	1	2
541.624	1	-7
541.794	1	-2
541.964	1	6
542.134	1	5
542.305	1	-1
542.475	1	-5
542.645	1	-2
542.815	1	9
542.985	1	1
543.155	1	-3
543.325	1	-6
543.495	1	1
543.665	1	12
543.835	1	-1
544.005	1	2
544.175	1	3
544.345	1	-8
544.515	1	2
544.685	1	10
544.855	1	5
545.025	1	-3
545.195	1	-6
545.365	1	6
545.535	1	10
545.705	1	8
545.875	1	1
546.045	1	6
546.216	1	4
546.386	1	4
546.556	1	-7
546.726	1	2
546.896	1	0
547.066	1	-10
547.236	1	-8
547.406	1	3
547.576	1	7
547.746	1	11
547.916	1	-7
548.086	1	9
548.256	1	7
548.426	1	3
548.596	1	1
548.766	1	10
548.936	1	-2
549.106	1	-2
549.276	1	14
549.446	1	0
549.616	1	9
549.786	1	7
549.956	1	4
550.126	1	1
550.296	1	2
550.466	1	0
550.636	1	7
550.806	1	1
550.976	1	3
551.146	1	0
551.316	1	3
551.486	1	-1
551.656	1	-10
551.826	1	12
551.996	1	9
552.166	1	-3
552.336	1	2
552.506	1	0
552.676	1	-6
552.846	1	5
553.016	1	-4
553.186	1	1
553.356	1	-4
553.526	1	-5
553.696	1	13
553.866	1	-4
554.036	1	1
554.206	1	5
554.376	1	-1
554.546	1	-13
554.716	1	-1
554.886	1	6
555.056	1	-3
555.226	1	-2
555.396	1	-2
555.566	1	7
555.736	1	-1
555.906	1	2
556.076	1	7
556.246	1	0
556.416	1	-1
556.586	1	2
556.756	1	6
556.926	1	7
557.096	1	-2
557.266	1	10
557.436	1	10
557.606	1	1
557.776	1	7
557.946	1	10
558.116	1	15
558.286	1	3
558.456	1	-1
558.626	1	2
558.796	1	-1
558.966	1	-2
559.136	1	1
559.306	1	-9
559.476	1	-9
559.646	1	-9
559.816	1	7
559.986	1	3
560.155	1	-8
560.325	1	-16
560.495	1	4
560.665	1	0
560.835	1	1
561.005	1	6
561.175	1	2
561.345	1	1
561.515	1	-1
561.685	1	1
561.855	1	5
562.025	1	-5
562.195	1	8
562.365	1	0
562.535	1	1
562.705	1	3
562.875	1	6
563.045	1	4
563.215	1	5
563.385	1	-3
563.555	1	5
563.725	1	0
563.895	1	-2
564.064	1	9
564.234	1	3
564.404	1	1
564.574	1	1
564.744	1	11
564.914	1	-6
565.084	1	1
565.254	1	-2
565.424	1	4
565.594	1	0
565.764	1	10
565.934	1	-1
566.104	1	-2
566.274	1	12
566.444	1	5
566.614	1	3
566.783	1	1
566.953	1	-1
567.123	1	12
567.293	1	2
567.463	1	-6
567.633	1	-1
567.803	1	-12
567.973	1	2
568.143	1	-5
568.313	1	-4
568.483	1	-11
568.653	1	-4
568.823	1	1
568.993	1	2
569.162	1	4
569.332	1	-12
569.502	1	3
569.672	1	1
569.842	1	2
570.012	1	0
570.182	1	-6
570.352	1	8
570.522	1	-1
570.692	1	3
570.862	1	10
571.031	1	-5
571.201	1	5
571.371	1	-4
571.541	1	-10
571.711	1	13
571.881	1	8
572.051	1	6
572.221	1	2
572.391	1	9
572.561	1	-3
572.731	1	-6
572.900	1	8
573.070	1	0
573.240	1	-8
573.410	1	1
573.580	1	5
573.750	1	7
573.920	1	-5
574.090	1	5
574.260	1	0
574.430	1	-9
574.599	1	-3
574.769	1	7
574.939	1	0
575.109	1	1
575.279	1	8
575.449	1	2
575.619	1	7
575.789	1	5
575.959	1	-7
576.128	1	3
576.298	1	-12
576.468	1	-6
576.638	1	1
576.808	1	-5
576.978	1	2
577.148	1	1
577.318	1	6
577.487	1	9
577.657	1	-17
577.827	1	10
577.997	1	-6
578.167	1	4
578.337	1	4
578.507	1	-8
578.677	1	-2
578.846	1	-5
579.016	1	19
579.186	1	-2
579.356	1	-5
579.526	1	0
579.696	1	0
579.866	1	4
580.036	1	-7
580.205	1	0
580.375	1	8
580.545	1	1
580.715	1	7
580.885	1	-10
581.055	1	15
581.225	1	-11
581.394	1	-5
581.564	1	1
581.734	1	3
581.904	1	-10
582.074	1	-2
582.244	1	1
582.414	1	4
582.583	1	-3
582.753	1	2
582.923	1	3
583.093	1	-4
583.263	1	-3
583.433	1	-2
583.603	1	5
583.772	1	0
583.942	1	8
584.112	1	0
584.282	1	3
584.452	1	2
584.622	1	3
584.791	1	-4
584.961	1	5
585.131	1	-6
585.301	1	-2
585.471	1	2
585.641	1	-2
585.811	1	-3
585.980	1	-9
586.150	1	0
586.320	1	-10
586.490	1	0
586.660	1	7
586.830	1	-5
586.999	1	2
587.169	1	-4
587.339	1	6
587.509	1	7
587.679	1	5
587.849	1	7
588.018	1	-1
588.188	1	-2
588.358	1	12
588.528	1	4
588.698	1	-9
588.867	1	7
589.037	1	-6
589.207	1	-11
589.377	1	12
589.547	1	-7
589.717	1	-5
589.886	1	-5
590.056	1	5
590.226	1	9
590.396	1	4
590.566	1	-7
590.735	1	15
590.905	1	-1
591.075	1	-11
591.245	1	4
591.415	1	3
591.585	1	-8
591.754	1	3
591.924	1	-5
592.094	1	4
592.264	1	-9
592.434	1	5
592.603	1	1
592.773	1	-7
592.943	1	-1
593.113	1	-10
593.283	1	8
593.452	1	-3
593.622	1	2
593.792	1	9
593.962	1	10
594.132	1	0
594.301	1	9
594.471	1	6
594.641	1	-4
594.811	1	0
594.981	1	0
595.150	1	-11
595.320	1	1
595.490	1	-2
595.660	1	-8
595.829	1	4
595.999	1	6
596.169	1	2
596.339	1	2
596.509	1	16
596.678	1	-2
596.848	1	6
597.018	1	2
597.188	1	4
597.358	1	0
597.527	1	-12
597.697	1	-6
597.867	1	7
598.037	1	4
598.206	1	-10
598.376	1	4
598.546	1	1
598.716	1	2
598.885	1	1
599.055	1	7
599.225	1	5
599.395	1	0
599.565	1	4
599.734	1	3
599.904	1	1
600.074	1	3
600.244	1	2
600.413	1	1
600.583	1	-8
600.753	1	-3
600.923	1	16
601.092	1	-9
601.262	1	4
601.432	1	5
601.602	1	11
601.771	1	-2
601.941	1	-5
602.111	1	-4
602.281	1	2
602.451	1	8
602.620	1	6
602.790	1	-6
602.960	1	0
603.130	1	9
603.299	1	2
603.469	1	-2
603.639	1	4
603.809	1	6
603.978	1	4
604.148	1	0
604.318	1	-5
604.487	1	6
604.657	1	0
604.827	1	-10
604.997	1	11
605.166	1	-3
605.336	1	-4
605.506	1	4
605.676	1	-5
605.845	1	-4
606.015	1	-3
606.185	1	1
606.355	1	4
606.524	1	1
606.694	1	7
606.864	1	1
607.034	1	-2
607.203	1	4
607.373	1	2
607.543	1	-8
607.712	1	14
607.882	1	-6
608.052	1	4
608.222	1	9
608.391	1	-4
608.561	1	16
608.731	1	-12
608.901	1	1
609.070	1	1
609.240	1	-6
609.410	1	6
609.579	1	-1
609.749	1	0
609.919	1	-9
610.089	1	-6
610.258	1	7
610.428	1	1
610.598	1	-1
610.767	1	1
610.937	1	-1
611.107	1	7
611.277	1	-8
611.446	1	0
611.616	1	-19
611.786	1	9
611.955	1	3
612.125	1	-3
612.295	1	5
612.465	1	-3
612.634	1	1
612.804	1	10
612.974	1	7
613.143	1	0
613.313	1	6
613.483	1	13
613.652	1	-3
613.822	1	0
613.992	1	3
614.162	1	2
614.331	1	0
614.501	1	-4
614.671	1	5
614.840	1	0
615.010	1	-2
615.180	1	4
615.349	1	1
615.519	1	8
615.689	1	0
615.858	1	4
616.028	1	7
616.198	1	4
616.368	1	-5
616.537	1	-10
616.707	1	-8
616.877	1	4
617.046	1	6
617.216	1	-6
617.386	1	-2
617.555	1	-2
617.725	1	5
617.895	1	-6
618.064	1	2
618.234	1	3
618.404	1	3
618.573	1	2
618.743	1	2
618.913	1	-6
619.082	1	11
619.252	1	5
619.422	1	-12
619.591	1	1
619.761	1	7
619.931	1	7
620.100	1	5
620.270	1	2
620.440	1	5
620.609	1	2
620.779	1	-4
620.949	1	-4
621.118	1	2
621.288	1	0
621.458	1	1
621.627	1	0
621.797	1	4
621.967	1	-3
622.136	1	5
622.306	1	17
622.476	1	6
622.645	1	4
622.815	1	-11
622.985	1	-1
623.154	1	-7
623.324	1	8
623.494	1	0
623.663	1	1
623.833	1	-2
624.002	1	-9
624.172	1	14
624.342	1	-5
624.511	1	0
624.681	1	-7
624.851	1	-11
625.020	1	-5
625.190	1	3
625.360	1	-6
625.529	1	4
625.699	1	2
625.869	1	-2
626.038	1	1
626.208	1	-2
626.377	1	10
626.547	1	0
626.717	1	-7
626.886	1	-4
627.056	1	1
627.226	1	7
627.395	1	2
627.565	1	11
627.735	1	7
627.904	1	-1
628.074	1	9
628.243	1	-5
628.413	1	-1
628.583	1	-5
628.752	1	12
628.922	1	3
629.091	1	3
629.261	1	1
629.431	1	-13
629.600	1	10
629.770	1	7
629.940	1	-3
630.109	1	1
630.279	1	-8
630.448	1	1
630.618	1	0
630.788	1	-4
630.957	1	0
631.127	1	7
631.297	1	4
631.466	1	-4
631.636	1	-4
631.805	1	2
631.975	1	9
632.145	1	-5
632.314	1	9
632.484	1	-1
632.653	1	4
632.823	1	5
632.993	1	9
633.162	1	-3
633.332	1	-5
633.501	1	-3
633.671	1	-3
633.841	1	-4
634.010	1	-4
634.180	1	-2
634.349	1	3
634.519	1	3
634.689	1	7
634.858	1	4
635.028	1	13
635.197	1	1
635.367	1	-2
635.537	1	6
635.706	1	-6
635.876	1	-9
636.045	1	-1
636.215	1	0
636.384	1	17
636.554	1	13
636.724	1	2
636.893	1	-6
637.063	1	2
637.232	1	-5
637.402	1	9
637.572	1	-6
637.741	1	11
637.911	1	0
638.080	1	-1
638.250	1	6
638.419	1	2
638.589	1	6
638.759	1	2
638.928	1	-9
639.098	1	1
639.267	1	-2
639.437	1	-9
639.606	1	16
639.776	1	-5
639.946	1	-1
640.115	1	-4
640.285	1	0
640.454	1	15
640.624	1	2
640.793	1	6
640.963	1	-9
641.132	1	3
641.302	1	3
641.472	1	-12
641.641	1	-1
641.811	1	5
641.980	1	-5
642.150	1	4
642.319	1	0
642.489	1	4
642.659	1	-6
642.828	1	8
642.998	1	-3
643.167	1	5
643.337	1	-2
643.506	1	-1
643.676	1	-3
643.845	1	3
644.015	1	-6
644.184	1	5
644.354	1	-5
644.524	1	-1
644.693	1	-1
644.863	1	-10
645.032	1	1
645.202	1	1
645.371	1	-5
645.541	1	-9
645.710	1	-2
645.880	1	2
646.049	1	6
646.219	1	2
646.388	1	7
646.558	1	1
646.728	1	-4
646.897	1	-4
647.067	1	3
647.236	1	0
647.406	1	2
647.575	1	12
647.745	1	0
647.914	1	-2
648.084	1	1
648.253	1	0
648.423	1	6
648.592	1	-6
648.762	1	3
648.931	1	6
649.101	1	-4
649.270	1	17
649.440	1	13
649.610	1	9
649.779	1	-3
649.949	1	-4
650.118	1	-17
650.288	1	-9
650.457	1	-2
650.627	1	2
650.796	1	2
650.966	1	-9
651.135	1	9
651.305	1	8
651.474	1	2
651.644	1	-1
651.813	1	12
651.983	1	3
652.152	1	6
652.322	1	4
652.491	1	3
652.661	1	1
652.830	1	3
653.000	1	-1
653.169	1	-5
653.339	1	5
653.508	1	1
653.678	1	0
653.847	1	0
654.017	1	-2
654.186	1	2
654.356	1	3
654.525	1	-3
654.695	1	10
654.864	1	8
655.034	1	-4
655.203	1	-3
655.373	1	1
655.542	1	5
655.712	1	-7
655.881	1	5
656.051	1	9
656.220	1	0
656.390	1	-2
656.559	1	-11
656.729	1	14
656.898	1	4
657.068	1	0
657.237	1	-3
657.406	1	14
657.576	1	-5
657.745	1	-1
657.915	1	8
658.084	1	8
658.254	1	6
658.423	1	1
658.593	1	-4
658.762	1	-4
658.932	1	0
659.101	1	0
659.271	1	11
659.440	1	4
659.610	1	8
659.779	1	-5
659.949	1	-6
660.118	1	2
660.288	1	-5
660.457	1	-1
660.626	1	-7
660.796	1	0
660.965	1	-1
661.135	1	7
661.304	1	8
661.474	1	1
661.643	1	-3
661.813	1	4
661.982	1	-2
662.152	1	1
662.321	1	5
662.491	1	1
662.660	1	0
662.829	1	-1
662.999	1	-9
663.168	1	-2
663.338	1	3
663.507	1	-9
663.677	1	-8
663.846	1	5
664.016	1	-1
664.185	1	-15
664.354	1	3
664.524	1	-9
664.693	1	6
664.863	1	-3
665.032	1	6
665.202	1	-2
665.371	1	5
665.541	1	-5
665.710	1	-2
665.879	1	15
666.049	1	5
666.218	1	-3
666.388	1	-7
666.557	1	5
666.727	1	-24
666.896	1	-11
667.065	1	13
667.235	1	-3
667.404	1	-9
667.574	1	3
667.743	1	-3
667.913	1	0
668.082	1	-7
668.251	1	-2
668.421	1	-5
668.590	1	-5
668.760	1	0
668.929	1	4
669.099	1	-9
669.268	1	-1
669.437	1	2
669.607	1	-10
669.776	1	-1
669.946	1	12
670.115	1	6
670.285	1	-4
670.454	1	13
670.623	1	5
670.793	1	0
670.962	1	3
671.132	1	4
671.301	1	5
671.470	1	3
671.640	1	-21
671.809	1	-3
671.979	1	7
672.148	1	5
672.317	1	-9
672.487	1	-3
672.656	1	-1
672.826	1	-16
672.995	1	0
673.164	1	12
673.334	1	7
673.503	1	-2
673.673	1	14
673.842	1	-6
674.011	1	8
674.181	1	-13
674.350	1	-7
674.520	1	-12
674.689	1	-1
674.858	1	2
675.028	1	5
675.197	1	-3
675.367	1	7
675.536	1	15
675.705	1	-8
675.875	1	9
676.044	1	-1
676.214	1	3
676.383	1	4
676.552	1	-6
676.722	1	5
676.891	1	-5
677.060	1	1
677.230	1	12
677.399	1	3
677.569	1	-8
677.738	1	-5
677.907	1	-12
678.077	1	6
678.246	1	-8
678.416	1	0
678.585	1	2
678.754	1	-6
678.924	1	-4
679.093	1	-4
679.262	1	1
679.432	1	-6
679.601	1	-7
679.771	1	-7
679.940	1	0
680.109	1	5
680.279	1	-4
680.448	1	5
680.617	1	-8
680.787	1	1
680.956	1	0
681.125	1	5
681.295	1	4
681.464	1	0
681.634	1	-4
681.803	1	-9
681.972	1	-4
682.142	1	13
682.311	1	4
682.480	1	1
682.650	1	-3
682.819	1	-9
682.988	1	2
683.158	1	0
683.327	1	-4
683.496	1	-2
683.666	1	-1
683.835	1	4
684.004	1	5
684.174	1	0
684.343	1	1
684.512	1	9
684.682	1	4
684.851	1	-2
685.021	1	-1
685.190	1	2
685.359	1	-10
685.529	1	3
685.698	1	0
685.867	1	10
686.037	1	7
686.206	1	1
686.375	1	-4
686.545	1	8
686.714	1	-4
686.883	1	1
687.053	1	4
687.222	1	-4
687.391	1	-4
687.561	1	-4
687.730	1	-2
687.899	1	1
688.069	1	-8
688.238	1	2
688.407	1	17
688.577	1	-3
688.746	1	1
