340.368	1	6
340.539	1	-2
340.710	1	-6
340.881	1	7
341.052	1	10
341.223	1	16
341.394	1	-2
341.565	1	-5
341.737	1	6
341.908	1	4
342.079	1	3
342.250	1	8
342.421	1	-6
342.592	1	-10
342.763	1	8
342.934	1	7
343.105	1	13
343.276	1	-5
343.447	1	13
343.618	1	6
343.789	1	1
343.960	1	5
344.131	1	1
344.302	1	-3
344.473	1	3
344.644	1	-1
344.815	1	12
344.986	1	13
345.157	1	11
345.328	1	-8
345.499	1	4
345.670	1	15
345.841	1	10
346.012	1	15
346.183	1	3
346.354	1	4
346.526	1	4
346.697	1	1
346.868	1	0
347.039	1	9
347.210	1	8
347.381	1	12
347.552	1	2
347.723	1	3
347.894	1	7
348.065	1	17
348.236	1	9
348.407	1	7
348.578	1	11
348.749	1	9
348.920	1	12
349.091	1	7
349.262	1	1
349.433	1	2
349.604	1	15
349.775	1	13
349.946	1	6
350.117	1	15
350.288	1	10
350.459	1	12
350.630	1	-5
350.801	1	7
350.972	1	2
351.143	1	5
351.314	1	6
351.485	1	4
351.656	1	8
351.827	1	9
351.998	1	7
352.169	1	17
352.340	1	3
352.511	1	6
352.682	1	3
352.853	1	-6
353.024	1	0
353.195	1	7
353.366	1	10
353.537	1	4
353.708	1	8
353.879	1	13
354.050	1	16
354.221	1	7
354.392	1	21
354.563	1	18
354.734	1	8
354.905	1	17
355.076	1	7
355.247	1	-1
355.418	1	-7
355.589	1	17
355.760	1	16
355.931	1	12
356.102	1	15
356.273	1	9
356.444	1	15
356.615	1	17
356.785	1	18
356.956	1	4
357.127	1	13
357.298	1	16
357.469	1	10
357.640	1	20
357.811	1	27
357.982	1	1
358.153	1	30
358.324	1	9
358.495	1	36
358.666	1	15
358.837	1	15
359.008	1	22
359.179	1	22
359.350	1	7
359.521	1	25
359.692	1	27
359.863	1	11
360.034	1	19
360.205	1	23
360.376	1	37
360.547	1	24
360.718	1	25
360.889	1	39
361.060	1	40
361.231	1	31
361.401	1	47
361.572	1	32
361.743	1	39
361.914	1	47
362.085	1	34
362.256	1	47
362.427	1	46
362.598	1	63
362.769	1	59
362.940	1	62
363.111	1	77
363.282	1	68
363.453	1	61
363.624	1	71
363.795	1	79
363.966	1	83
364.137	1	79
364.308	1	94
364.478	1	101
364.649	1	92
364.820	1	96
364.991	1	104
365.162	1	100
365.333	1	122
365.504	1	121
365.675	1	129
365.846	1	131
366.017	1	117
366.188	1	122
366.359	1	142
366.530	1	143
366.701	1	133
366.871	1	145
367.042	1	143
367.213	1	141
367.384	1	153
367.555	1	138
367.726	1	141
367.897	1	130
368.068	1	132
368.239	1	133
368.410	1	127
368.581	1	132
368.752	1	111
368.923	1	116
369.093	1	111
369.264	1	121
369.435	1	114
369.606	1	103
369.777	1	110
369.948	1	111
370.119	1	92
370.290	1	94
370.461	1	94
370.632	1	94
370.803	1	89
370.973	1	99
371.144	1	101
371.315	1	79
371.486	1	89
371.657	1	75
371.828	1	84
371.999	1	76
372.170	1	75
372.341	1	76
372.512	1	64
372.682	1	65
372.853	1	79
373.024	1	69
373.195	1	55
373.366	1	72
373.537	1	63
373.708	1	64
373.879	1	64
374.050	1	70
374.220	1	59
374.391	1	69
374.562	1	63
374.733	1	67
374.904	1	57
375.075	1	60
375.246	1	52
375.417	1	46
375.588	1	48
375.758	1	48
375.929	1	55
376.100	1	50
376.271	1	45
376.442	1	39
376.613	1	47
376.784	1	44
376.955	1	39
377.125	1	50
377.296	1	51
377.467	1	45
377.638	1	48
377.809	1	50
377.980	1	41
378.151	1	37
378.321	1	52
378.492	1	48
378.663	1	47
378.834	1	40
379.005	1	51
379.176	1	40
379.347	1	47
379.518	1	28
379.688	1	39
379.859	1	42
380.030	1	39
380.201	1	35
380.372	1	48
380.543	1	49
380.714	1	43
380.884	1	47
381.055	1	49
381.226	1	60
381.397	1	49
381.568	1	48
381.739	1	58
381.910	1	56
382.080	1	55
382.251	1	66
382.422	1	71
382.593	1	77
382.764	1	60
382.935	1	82
383.105	1	74
383.276	1	77
383.447	1	92
383.618	1	102
383.789	1	90
383.960	1	85
384.130	1	88
384.301	1	111
384.472	1	112
384.643	1	121
384.814	1	132
384.985	1	115
385.156	1	137
385.326	1	139
385.497	1	159
385.668	1	145
385.839	1	160
386.010	1	166
386.180	1	166
386.351	1	145
386.522	1	161
386.693	1	154
386.864	1	172
387.035	1	164
387.205	1	178
387.376	1	184
387.547	1	164
387.718	1	171
387.889	1	171
388.060	1	172
388.230	1	160
388.401	1	177
388.572	1	167
388.743	1	165
388.914	1	183
389.084	1	167
389.255	1	159
389.426	1	150
389.597	1	146
389.768	1	170
389.939	1	163
390.109	1	149
390.280	1	149
390.451	1	157
390.622	1	143
390.793	1	138
390.963	1	155
391.134	1	151
391.305	1	162
391.476	1	144
391.647	1	142
391.817	1	128
391.988	1	136
392.159	1	155
392.330	1	140
392.501	1	136
392.671	1	120
392.842	1	147
393.013	1	134
393.184	1	146
393.355	1	137
393.525	1	124
393.696	1	134
393.867	1	127
394.038	1	124
394.208	1	124
394.379	1	123
394.550	1	140
394.721	1	125
394.892	1	144
395.062	1	120
395.233	1	125
395.404	1	133
395.575	1	128
395.746	1	130
395.916	1	146
396.087	1	139
396.258	1	135
396.429	1	154
396.599	1	134
396.770	1	143
396.941	1	154
397.112	1	146
397.283	1	146
397.453	1	137
397.624	1	152
397.795	1	151
397.966	1	163
398.136	1	161
398.307	1	159
398.478	1	153
398.649	1	138
398.819	1	163
398.990	1	153
399.161	1	139
399.332	1	164
399.503	1	145
399.673	1	139
399.844	1	134
400.015	1	132
400.186	1	143
400.356	1	128
400.527	1	139
400.698	1	130
400.869	1	136
401.039	1	116
401.210	1	119
401.381	1	130
401.552	1	126
401.722	1	124
401.893	1	116
402.064	1	114
402.235	1	110
402.405	1	103
402.576	1	118
402.747	1	110
402.918	1	103
403.088	1	104
403.259	1	89
403.430	1	101
403.601	1	94
403.771	1	107
403.942	1	112
404.113	1	109
404.284	1	95
404.454	1	107
404.625	1	101
404.796	1	93
404.967	1	109
405.137	1	105
405.308	1	92
405.479	1	96
405.649	1	91
405.820	1	99
405.991	1	95
406.162	1	85
406.332	1	96
406.503	1	96
406.674	1	92
406.845	1	98
407.015	1	93
407.186	1	91
407.357	1	81
407.527	1	89
407.698	1	94
407.869	1	84
408.040	1	88
408.210	1	86
408.381	1	87
408.552	1	91
408.722	1	75
408.893	1	86
409.064	1	92
409.235	1	78
409.405	1	89
409.576	1	91
409.747	1	70
409.917	1	85
410.088	1	93
410.259	1	78
410.430	1	82
410.600	1	90
410.771	1	83
410.942	1	79
411.112	1	81
411.283	1	69
411.454	1	76
411.625	1	74
411.795	1	88
411.966	1	74
412.137	1	81
412.307	1	78
412.478	1	72
412.649	1	80
412.819	1	68
412.990	1	71
413.161	1	66
413.332	1	67
413.502	1	69
413.673	1	74
413.844	1	69
414.014	1	53
414.185	1	71
414.356	1	64
414.526	1	72
414.697	1	67
414.868	1	66
415.038	1	54
415.209	1	59
415.380	1	56
415.550	1	56
415.721	1	65
415.892	1	62
416.063	1	74
416.233	1	59
416.404	1	61
416.575	1	44
416.745	1	58
416.916	1	51
417.087	1	45
417.257	1	61
417.428	1	46
417.599	1	64
417.769	1	63
417.940	1	50
418.111	1	56
418.281	1	60
418.452	1	54
418.623	1	57
418.793	1	65
418.964	1	60
419.135	1	59
419.305	1	43
419.476	1	53
419.647	1	59
419.817	1	59
419.988	1	58
420.159	1	47
420.329	1	50
420.500	1	59
420.671	1	61
420.841	1	58
421.012	1	50
421.183	1	59
421.353	1	61
421.524	1	54
421.695	1	58
421.865	1	47
422.036	1	45
422.206	1	36
422.377	1	56
422.548	1	45
422.718	1	49
422.889	1	54
423.060	1	36
423.230	1	52
423.401	1	46
423.572	1	43
423.742	1	42
423.913	1	48
424.084	1	43
424.254	1	43
424.425	1	43
424.595	1	28
424.766	1	47
424.937	1	36
425.107	1	38
425.278	1	38
425.449	1	42
425.619	1	43
425.790	1	45
425.961	1	45
426.131	1	39
426.302	1	36
426.472	1	24
426.643	1	33
426.814	1	38
426.984	1	42
427.155	1	33
427.326	1	42
427.496	1	46
427.667	1	46
427.837	1	28
428.008	1	38
428.179	1	32
428.349	1	22
428.520	1	31
428.691	1	38
428.861	1	32
429.032	1	43
429.202	1	38
429.373	1	28
429.544	1	26
429.714	1	34
429.885	1	36
430.055	1	26
430.226	1	31
430.397	1	30
430.567	1	43
430.738	1	52
430.909	1	20
431.079	1	37
431.250	1	21
431.420	1	31
431.591	1	23
431.762	1	25
431.932	1	40
432.103	1	35
432.273	1	19
432.444	1	39
432.615	1	27
432.785	1	31
432.956	1	29
433.126	1	34
433.297	1	43
433.468	1	19
433.638	1	20
433.809	1	38
433.979	1	21
434.150	1	19
434.320	1	23
434.491	1	29
434.662	1	21
434.832	1	16
435.003	1	24
435.173	1	26
435.344	1	24
435.515	1	25
435.685	1	33
435.856	1	26
436.026	1	28
436.197	1	21
436.368	1	30
436.538	1	24
436.709	1	11
436.879	1	15
437.050	1	22
437.220	1	24
437.391	1	20
437.562	1	41
437.732	1	36
437.903	1	25
438.073	1	41
438.244	1	25
438.414	1	21
438.585	1	29
438.756	1	19
438.926	1	26
439.097	1	25
439.267	1	29
439.438	1	30
439.608	1	29
439.779	1	20
439.949	1	12
440.120	1	18
440.291	1	13
440.461	1	15
440.632	1	21
440.802	1	27
440.973	1	26
441.143	1	24
441.314	1	22
441.485	1	5
441.655	1	30
441.826	1	14
441.996	1	20
442.167	1	16
442.337	1	15
442.508	1	20
442.678	1	19
442.849	1	30
443.019	1	22
443.190	1	7
443.361	1	26
443.531	1	21
443.702	1	19
443.872	1	26
444.043	1	13
444.213	1	13
444.384	1	16
444.554	1	19
444.725	1	23
444.895	1	25
445.066	1	12
445.237	1	15
445.407	1	12
445.578	1	26
445.748	1	16
445.919	1	21
446.089	1	26
446.260	1	22
446.430	1	7
446.601	1	12
446.771	1	6
446.942	1	15
447.112	1	18
447.283	1	16
447.453	1	13
447.624	1	26
447.794	1	15
447.965	1	10
448.135	1	15
448.306	1	17
448.477	1	9
448.647	1	26
448.818	1	18
448.988	1	2
449.159	1	8
449.329	1	24
449.500	1	28
449.670	1	17
449.841	1	11
450.011	1	16
450.182	1	-1
450.352	1	20
450.523	1	13
450.693	1	13
450.864	1	13
451.034	1	22
451.205	1	21
451.375	1	24
451.546	1	19
451.716	1	25
451.887	1	7
452.057	1	23
452.228	1	10
452.398	1	20
452.569	1	13
452.739	1	19
452.910	1	16
453.080	1	23
453.251	1	20
453.421	1	23
453.592	1	2
453.762	1	19
453.933	1	17
454.103	1	19
454.274	1	13
454.444	1	26
454.615	1	20
454.785	1	15
454.956	1	15
455.126	1	10
455.297	1	16
455.467	1	10
455.638	1	18
455.808	1	15
455.979	1	19
456.149	1	12
456.320	1	11
456.490	1	14
456.661	1	5
456.831	1	27
457.001	1	15
457.172	1	5
457.342	1	22
457.513	1	21
457.683	1	9
457.854	1	14
458.024	1	18
458.195	1	11
458.365	1	12
458.536	1	22
458.706	1	12
458.877	1	13
459.047	1	10
459.218	1	12
459.388	1	6
459.559	1	14
459.729	1	18
459.899	1	31
460.070	1	21
460.240	1	14
460.411	1	23
460.581	1	20
460.752	1	15
460.922	1	10
461.093	1	19
461.263	1	21
461.434	1	19
461.604	1	11
461.775	1	8
461.945	1	17
462.115	1	-5
462.286	1	17
462.456	1	15
462.627	1	4
462.797	1	9
462.968	1	9
463.138	1	27
463.309	1	16
463.479	1	14
463.649	1	16
463.820	1	11
463.990	1	16
464.161	1	15
464.331	1	11
464.502	1	19
464.672	1	16
464.843	1	21
465.013	1	0
465.183	1	15
465.354	1	21
465.524	1	16
465.695	1	21
465.865	1	12
466.036	1	14
466.206	1	5
466.376	1	9
466.547	1	26
466.717	1	5
466.888	1	7
467.058	1	23
467.229	1	10
467.399	1	17
467.569	1	14
467.740	1	17
467.910	1	8
468.081	1	18
468.251	1	6
468.422	1	10
468.592	1	6
468.762	1	6
468.933	1	24
469.103	1	9
469.274	1	7
469.444	1	13
469.614	1	-1
469.785	1	16
469.955	1	13
470.126	1	13
470.296	1	22
470.467	1	-1
470.637	1	24
470.807	1	12
470.978	1	12
471.148	1	7
471.319	1	18
471.489	1	6
471.659	1	19
471.830	1	22
472.000	1	14
472.171	1	18
472.341	1	13
472.511	1	19
472.682	1	10
472.852	1	17
473.023	1	10
473.193	1	5
473.363	1	8
473.534	1	10
473.704	1	25
473.875	1	15
474.045	1	4
474.215	1	11
474.386	1	25
474.556	1	11
474.727	1	10
474.897	1	13
475.067	1	17
475.238	1	9
475.408	1	10
475.578	1	14
475.749	1	3
475.919	1	13
476.090	1	13
476.260	1	12
476.430	1	12
476.601	1	11
476.771	1	11
476.942	1	16
477.112	1	12
477.282	1	6
477.453	1	12
477.623	1	18
477.793	1	21
477.964	1	18
478.134	1	22
478.305	1	15
478.475	1	18
478.645	1	13
478.816	1	13
478.986	1	11
479.156	1	17
479.327	1	4
479.497	1	14
479.667	1	16
479.838	1	19
480.008	1	13
480.179	1	14
480.349	1	14
480.519	1	18
480.690	1	13
480.860	1	7
481.030	1	18
481.201	1	22
481.371	1	15
481.541	1	12
481.712	1	21
481.882	1	12
482.053	1	23
482.223	1	5
482.393	1	4
482.564	1	-1
482.734	1	18
482.904	1	20
483.075	1	20
483.245	1	16
483.415	1	21
483.586	1	9
483.756	1	17
483.926	1	22
484.097	1	7
484.267	1	22
484.437	1	4
484.608	1	14
484.778	1	15
484.948	1	8
485.119	1	19
485.289	1	24
485.459	1	26
485.630	1	18
485.800	1	8
485.970	1	10
486.141	1	9
486.311	1	16
486.481	1	19
486.652	1	16
486.822	1	24
486.992	1	19
487.163	1	12
487.333	1	16
487.503	1	13
487.674	1	25
487.844	1	15
488.014	1	17
488.185	1	11
488.355	1	13
488.525	1	14
488.696	1	15
488.866	1	27
489.036	1	18
489.207	1	19
489.377	1	18
489.547	1	6
489.718	1	16
489.888	1	21
490.058	1	24
490.228	1	11
490.399	1	31
490.569	1	29
490.739	1	32
490.910	1	14
491.080	1	16
491.250	1	24
491.421	1	28
491.591	1	23
491.761	1	20
491.932	1	30
492.102	1	12
492.272	1	38
492.442	1	20
492.613	1	28
492.783	1	14
492.953	1	17
493.124	1	20
493.294	1	24
493.464	1	11
493.635	1	16
493.805	1	34
493.975	1	25
494.145	1	36
494.316	1	31
494.486	1	36
494.656	1	29
494.827	1	10
494.997	1	22
495.167	1	25
495.337	1	30
495.508	1	24
495.678	1	35
495.848	1	28
496.019	1	19
496.189	1	25
496.359	1	32
496.529	1	23
496.700	1	25
496.870	1	25
497.040	1	25
497.211	1	31
497.381	1	14
497.551	1	40
497.721	1	30
497.892	1	36
498.062	1	26
498.232	1	33
498.403	1	41
498.573	1	23
498.743	1	33
498.913	1	39
499.084	1	12
499.254	1	22
499.424	1	44
499.594	1	27
499.765	1	35
499.935	1	32
500.105	1	38
500.275	1	46
500.446	1	40
500.616	1	39
500.786	1	48
500.956	1	40
501.127	1	40
501.297	1	39
501.467	1	51
501.638	1	37
501.808	1	32
501.978	1	46
502.148	1	39
502.319	1	41
502.489	1	49
502.659	1	40
502.829	1	45
503.000	1	56
503.170	1	51
503.340	1	41
503.510	1	43
503.681	1	39
503.851	1	36
504.021	1	66
504.191	1	48
504.362	1	56
504.532	1	42
504.702	1	46
504.872	1	45
505.042	1	57
505.213	1	54
505.383	1	65
505.553	1	47
505.723	1	45
505.894	1	57
506.064	1	62
506.234	1	57
506.404	1	49
506.575	1	47
506.745	1	49
506.915	1	44
507.085	1	52
507.256	1	50
507.426	1	52
507.596	1	58
507.766	1	58
507.936	1	59
508.107	1	62
508.277	1	60
508.447	1	64
508.617	1	61
508.788	1	58
508.958	1	64
509.128	1	63
509.298	1	65
509.468	1	67
509.639	1	59
509.809	1	72
509.979	1	50
510.149	1	63
510.319	1	61
510.490	1	66
510.660	1	68
510.830	1	55
511.000	1	67
511.171	1	72
511.341	1	61
511.511	1	62
511.681	1	56
511.851	1	62
512.022	1	62
512.192	1	70
512.362	1	65
512.532	1	58
512.702	1	59
512.873	1	81
513.043	1	58
513.213	1	74
513.383	1	67
513.553	1	51
513.724	1	62
513.894	1	68
514.064	1	75
514.234	1	69
514.404	1	66
514.575	1	81
514.745	1	80
514.915	1	86
515.085	1	72
515.255	1	64
515.425	1	72
515.596	1	63
515.766	1	72
515.936	1	73
516.106	1	73
516.276	1	74
516.447	1	77
516.617	1	67
516.787	1	78
516.957	1	82
517.127	1	81
517.297	1	87
517.468	1	83
517.638	1	94
517.808	1	80
517.978	1	66
518.148	1	72
518.319	1	73
518.489	1	81
518.659	1	81
518.829	1	86
518.999	1	82
519.169	1	87
519.340	1	82
519.510	1	90
519.680	1	81
519.850	1	91
520.020	1	82
520.190	1	80
520.361	1	82
520.531	1	85
520.701	1	87
520.871	1	66
521.041	1	81
521.211	1	91
521.382	1	77
521.552	1	82
521.722	1	95
521.892	1	86
522.062	1	84
522.232	1	75
522.402	1	80
522.573	1	95
522.743	1	94
522.913	1	84
523.083	1	77
523.253	1	84
523.423	1	87
523.593	1	75
523.764	1	99
523.934	1	88
524.104	1	84
524.274	1	81
524.444	1	88
524.614	1	92
524.784	1	86
524.955	1	91
525.125	1	90
525.295	1	73
525.465	1	88
525.635	1	102
525.805	1	88
525.975	1	83
526.146	1	83
526.316	1	84
526.486	1	100
526.656	1	109
526.826	1	94
526.996	1	95
527.166	1	85
527.337	1	95
527.507	1	80
527.677	1	107
527.847	1	92
528.017	1	84
528.187	1	96
528.357	1	101
528.527	1	100
528.698	1	79
528.868	1	85
529.038	1	99
529.208	1	82
529.378	1	95
529.548	1	94
529.718	1	101
529.888	1	94
530.058	1	94
530.229	1	97
530.399	1	95
530.569	1	98
530.739	1	92
530.909	1	93
531.079	1	105
531.249	1	90
531.419	1	102
531.589	1	97
531.760	1	98
531.930	1	90
532.100	1	102
532.270	1	101
532.440	1	95
532.610	1	108
532.780	1	89
532.950	1	108
533.120	1	83
533.290	1	104
533.461	1	113
533.631	1	100
533.801	1	97
533.971	1	90
534.141	1	97
534.311	1	92
534.481	1	103
534.651	1	89
534.821	1	95
534.991	1	94
535.162	1	97
535.332	1	97
535.502	1	100
535.672	1	86
535.842	1	88
536.012	1	99
536.182	1	90
536.352	1	93
536.522	1	93
536.692	1	97
536.862	1	103
537.032	1	85
537.203	1	102
537.373	1	89
537.543	1	90
537.713	1	94
537.883	1	93
538.053	1	91
538.223	1	87
538.393	1	83
538.563	1	91
538.733	1	83
538.903	1	84
539.073	1	90
539.243	1	83
539.413	1	86
539.584	1	99
539.754	1	79
539.924	1	90
540.094	1	86
540.264	1	92
540.434	1	82
540.604	1	94
540.774	1	89
540.944	1	78
541.114	1	68
541.284	1	82
541.454	1	91
541.624	1	89
541.794	1	78
541.964	1	95
542.134	1	87
542.305	1	72
542.475	1	81
542.645	1	84
542.815	1	89
542.985	1	87
543.155	1	90
543.325	1	82
543.495	1	82
543.665	1	91
543.835	1	75
544.005	1	86
544.175	1	89
544.345	1	72
544.515	1	82
544.685	1	76
544.855	1	74
545.025	1	73
545.195	1	75
545.365	1	92
545.535	1	73
545.705	1	87
545.875	1	75
546.045	1	91
546.216	1	93
546.386	1	65
546.556	1	76
546.726	1	79
546.896	1	70
547.066	1	74
547.236	1	60
547.406	1	85
547.576	1	81
547.746	1	89
547.916	1	74
548.086	1	78
548.256	1	86
548.426	1	75
548.596	1	82
548.766	1	78
548.936	1	68
549.106	1	81
549.276	1	85
549.446	1	66
549.616	1	76
549.786	1	81
549.956	1	74
550.126	1	82
550.296	1	78
550.466	1	73
550.636	1	77
550.806	1	85
550.976	1	85
551.146	1	72
551.316	1	68
551.486	1	88
551.656	1	66
551.826	1	73
551.996	1	77
552.166	1	73
552.336	1	81
552.506	1	69
552.676	1	71
552.846	1	76
553.016	1	68
553.186	1	72
553.356	1	78
553.526	1	72
553.696	1	77
553.866	1	68
554.036	1	69
554.206	1	76
554.376	1	72
554.546	1	60
554.716	1	66
554.886	1	65
555.056	1	58
555.226	1	68
555.396	1	65
555.566	1	66
555.736	1	70
555.906	1	69
556.076	1	71
556.246	1	61
556.416	1	77
556.586	1	72
556.756	1	69
556.926	1	59
557.096	1	70
557.266	1	81
557.436	1	72
557.606	1	60
557.776	1	60
557.946	1	71
558.116	1	60
558.286	1	67
558.456	1	63
558.626	1	70
558.796	1	66
558.966	1	62
559.136	1	65
559.306	1	56
559.476	1	58
559.646	1	58
559.816	1	52
559.986	1	59
560.155	1	52
560.325	1	53
560.495	1	49
560.665	1	53
560.835	1	55
561.005	1	71
561.175	1	61
561.345	1	52
561.515	1	56
561.685	1	52
561.855	1	63
562.025	1	61
562.195	1	55
562.365	1	65
562.535	1	56
562.705	1	49
562.875	1	58
563.045	1	60
563.215	1	59
563.385	1	52
563.555	1	61
563.725	1	54
563.895	1	55
564.064	1	64
564.234	1	52
564.404	1	51
564.574	1	49
564.744	1	56
564.914	1	45
565.084	1	54
565.254	1	53
565.424	1	47
565.594	1	43
565.764	1	60
565.934	1	53
566.104	1	51
566.274	1	53
566.444	1	62
566.614	1	53
566.783	1	48
566.953	1	51
567.123	1	64
567.293	1	43
567.463	1	48
567.633	1	51
567.803	1	50
567.973	1	39
568.143	1	37
568.313	1	43
568.483	1	35
568.653	1	42
568.823	1	61
568.993	1	41
569.162	1	44
569.332	1	47
569.502	1	48
569.672	1	44
569.842	1	44
570.012	1	49
570.182	1	47
570.352	1	54
570.522	1	53
570.692	1	51
570.862	1	50
571.031	1	51
571.201	1	46
571.371	1	31
571.541	1	46
571.711	1	47
571.881	1	43
572.051	1	43
572.221	1	48
572.391	1	52
572.561	1	29
572.731	1	39
572.900	1	50
573.070	1	52
573.240	1	37
573.410	1	44
573.580	1	44
573.750	1	48
573.920	1	39
574.090	1	48
574.260	1	35
574.430	1	31
574.599	1	33
574.769	1	42
574.939	1	40
575.109	1	39
575.279	1	37
575.449	1	45
575.619	1	36
575.789	1	54
575.959	1	25
576.128	1	44
576.298	1	30
576.468	1	31
576.638	1	38
576.808	1	24
576.978	1	34
577.148	1	47
577.318	1	36
577.487	1	45
577.657	1	31
577.827	1	38
577.997	1	35
578.167	1	32
578.337	1	27
578.507	1	40
578.677	1	25
578.846	1	28
579.016	1	49
579.186	1	30
579.356	1	27
579.526	1	38
579.696	1	34
579.866	1	32
580.036	1	29
580.205	1	32
580.375	1	27
580.545	1	35
580.715	1	35
580.885	1	27
581.055	1	36
581.225	1	16
581.394	1	24
581.564	1	36
581.734	1	36
581.904	1	27
582.074	1	33
582.244	1	24
582.414	1	36
582.583	1	23
582.753	1	39
582.923	1	39
583.093	1	23
583.263	1	35
583.433	1	21
583.603	1	32
583.772	1	29
583.942	1	35
584.112	1	21
584.282	1	30
584.452	1	27
584.622	1	36
584.791	1	24
584.961	1	28
585.131	1	33
585.301	1	30
585.471	1	26
585.641	1	36
585.811	1	20
585.980	1	20
586.150	1	24
586.320	1	15
586.490	1	22
586.660	1	34
586.830	1	19
586.999	1	25
587.169	1	24
587.339	1	34
587.509	1	20
587.679	1	26
587.849	1	31
588.018	1	25
588.188	1	19
588.358	1	31
588.528	1	26
588.698	1	27
588.867	1	23
589.037	1	27
589.207	1	15
589.377	1	29
589.547	1	18
589.717	1	23
589.886	1	18
590.056	1	17
590.226	1	31
590.396	1	23
590.566	1	15
590.735	1	34
590.905	1	28
591.075	1	7
591.245	1	24
591.415	1	17
591.585	1	8
591.754	1	21
591.924	1	17
592.094	1	17
592.264	1	28
592.434	1	26
592.603	1	12
592.773	1	11
592.943	1	2
593.113	1	10
593.283	1	24
593.452	1	12
593.622	1	22
593.792	1	26
593.962	1	24
594.132	1	19
594.301	1	28
594.471	1	37
594.641	1	15
594.811	1	19
594.981	1	23
595.150	1	18
595.320	1	26
595.490	1	10
595.660	1	15
595.829	1	25
595.999	1	18
596.169	1	24
596.339	1	28
596.509	1	22
596.678	1	16
596.848	1	23
597.018	1	23
597.188	1	15
597.358	1	22
597.527	1	12
597.697	1	6
597.867	1	18
598.037	1	24
598.206	1	15
598.376	1	12
598.546	1	21
598.716	1	6
598.885	1	17
599.055	1	12
599.225	1	10
599.395	1	23
599.565	1	21
599.734	1	13
599.904	1	12
600.074	1	11
600.244	1	23
600.413	1	15
600.583	1	10
600.753	1	21
600.923	1	24
601.092	1	5
601.262	1	27
601.432	1	15
601.602	1	30
601.771	1	21
601.941	1	19
602.111	1	4
602.281	1	17
602.451	1	17
602.620	1	22
602.790	1	23
602.960	1	12
603.130	1	24
603.299	1	26
603.469	1	6
603.639	1	24
603.809	1	26
603.978	1	16
604.148	1	9
604.318	1	16
604.487	1	14
604.657	1	19
604.827	1	5
604.997	1	10
605.166	1	13
605.336	1	13
605.506	1	23
605.676	1	11
605.845	1	9
606.015	1	18
606.185	1	8
606.355	1	21
606.524	1	19
606.694	1	27
606.864	1	24
607.034	1	15
607.203	1	33
607.373	1	19
607.543	1	2
607.712	1	18
607.882	1	12
608.052	1	17
608.222	1	16
608.391	1	7
608.561	1	22
608.731	1	12
608.901	1	16
609.070	1	20
609.240	1	12
609.410	1	15
609.579	1	23
609.749	1	10
609.919	1	18
610.089	1	2
610.258	1	24
610.428	1	14
610.598	1	14
610.767	1	9
610.937	1	7
611.107	1	19
611.277	1	21
611.446	1	16
611.616	1	5
611.786	1	21
611.955	1	7
612.125	1	13
612.295	1	21
612.465	1	10
612.634	1	6
612.804	1	15
612.974	1	19
613.143	1	24
613.313	1	19
613.483	1	20
613.652	1	8
613.822	1	10
613.992	1	10
614.162	1	16
614.331	1	14
614.501	1	15
614.671	1	20
614.840	1	11
615.010	1	18
615.180	1	18
615.349	1	15
615.519	1	19
615.689	1	3
615.858	1	20
616.028	1	14
616.198	1	15
616.368	1	13
616.537	1	3
616.707	1	12
616.877	1	13
617.046	1	12
617.216	1	16
617.386	1	18
617.555	1	-2
617.725	1	21
617.895	1	17
618.064	1	18
618.234	1	13
618.404	1	16
618.573	1	13
618.743	1	6
618.913	1	12
619.082	1	17
619.252	1	16
619.422	1	2
619.591	1	11
619.761	1	14
619.931	1	17
620.100	1	15
620.270	1	5
620.440	1	2
620.609	1	14
620.779	1	8
620.949	1	2
621.118	1	16
621.288	1	10
621.458	1	12
621.627	1	9
621.797	1	10
621.967	1	7
622.136	1	15
622.306	1	18
622.476	1	12
622.645	1	17
622.815	1	8
622.985	1	15
623.154	1	16
623.324	1	19
623.494	1	16
623.663	1	4
623.833	1	8
624.002	1	1
624.172	1	24
624.342	1	7
624.511	1	6
624.681	1	6
624.851	1	-3
625.020	1	6
625.190	1	11
625.360	1	2
625.529	1	13
625.699	1	10
625.869	1	4
626.038	1	14
626.208	1	2
626.377	1	17
626.547	1	18
626.717	1	5
626.886	1	15
627.056	1	8
627.226	1	11
627.395	1	17
627.565	1	24
627.735	1	12
627.904	1	16
628.074	1	10
628.243	1	6
628.413	1	3
628.583	1	18
628.752	1	15
628.922	1	9
629.091	1	18
629.261	1	21
629.431	1	7
629.600	1	10
629.770	1	10
629.940	1	13
630.109	1	12
630.279	1	1
630.448	1	1
630.618	1	13
630.788	1	8
630.957	1	5
631.127	1	18
631.297	1	5
631.466	1	23
631.636	1	15
631.805	1	12
631.975	1	11
632.145	1	-1
632.314	1	18
632.484	1	12
632.653	1	8
632.823	1	21
632.993	1	20
633.162	1	7
633.332	1	17
633.501	1	19
633.671	1	9
633.841	1	7
634.010	1	10
634.180	1	11
634.349	1	21
634.519	1	14
634.689	1	12
634.858	1	11
635.028	1	4
635.197	1	8
635.367	1	12
635.537	1	7
635.706	1	5
635.876	1	12
636.045	1	5
636.215	1	4
636.384	1	16
636.554	1	27
636.724	1	12
636.893	1	9
637.063	1	4
637.232	1	16
637.402	1	16
637.572	1	-6
637.741	1	21
637.911	1	8
638.080	1	10
638.250	1	13
638.419	1	15
638.589	1	18
638.759	1	5
638.928	1	3
639.098	1	9
639.267	1	10
639.437	1	6
639.606	1	11
639.776	1	5
639.946	1	6
640.115	1	3
640.285	1	13
640.454	1	21
640.624	1	17
640.793	1	20
640.963	1	4
641.132	1	11
641.302	1	7
641.472	1	12
641.641	1	15
641.811	1	12
641.980	1	7
642.150	1	8
642.319	1	-1
642.489	1	8
642.659	1	0
642.828	1	7
642.998	1	11
643.167	1	11
643.337	1	15
643.506	1	2
643.676	1	15
643.845	1	20
644.015	1	11
644.184	1	9
644.354	1	12
644.524	1	5
644.693	1	3
644.863	1	-4
645.032	1	6
645.202	1	12
645.371	1	13
645.541	1	1
645.710	1	15
645.880	1	10
646.049	1	21
646.219	1	9
646.388	1	13
646.558	1	5
646.728	1	13
646.897	1	2
647.067	1	13
647.236	1	4
647.406	1	7
647.575	1	9
647.745	1	12
647.914	1	5
648.084	1	6
648.253	1	-1
648.423	1	2
648.592	1	8
648.762	1	6
648.931	1	15
649.101	1	7
649.270	1	26
649.440	1	14
649.610	1	17
649.779	1	5
649.949	1	8
650.118	1	4
650.288	1	1
650.457	1	0
650.627	1	8
650.796	1	7
650.966	1	13
651.135	1	11
651.305	1	8
651.474	1	12
651.644	1	12
651.813	1	10
651.983	1	12
652.152	1	-1
652.322	1	11
652.491	1	12
652.661	1	15
652.830	1	15
653.000	1	4
653.169	1	12
653.339	1	8
653.508	1	3
653.678	1	14
653.847	1	14
654.017	1	4
654.186	1	10
654.356	1	19
654.525	1	13
654.695	1	12
654.864	1	9
655.034	1	7
655.203	1	13
655.373	1	6
655.542	1	11
655.712	1	6
655.881	1	10
656.051	1	11
656.220	1	9
656.390	1	3
656.559	1	3
656.729	1	10
656.898	1	7
657.068	1	1
657.237	1	11
657.406	1	11
657.576	1	0
657.745	1	6
657.915	1	12
658.084	1	8
658.254	1	4
658.423	1	7
658.593	1	-1
658.762	1	4
658.932	1	9
659.101	1	10
659.271	1	9
659.440	1	20
659.610	1	10
659.779	1	-5
659.949	1	-4
660.118	1	12
660.288	1	2
660.457	1	10
660.626	1	5
660.796	1	13
660.965	1	7
661.135	1	8
661.304	1	6
661.474	1	1
661.643	1	5
661.813	1	11
661.982	1	9
662.152	1	14
662.321	1	6
662.491	1	8
662.660	1	10
662.829	1	4
662.999	1	8
663.168	1	1
663.338	1	7
663.507	1	4
663.677	1	6
663.846	1	9
664.016	1	4
664.185	1	0
664.354	1	9
664.524	1	-3
664.693	1	12
664.863	1	6
665.032	1	8
665.202	1	-1
665.371	1	17
665.541	1	-3
665.710	1	15
665.879	1	1
666.049	1	-3
666.218	1	-7
666.388	1	5
666.557	1	-1
666.727	1	-8
666.896	1	7
667.065	1	10
667.235	1	2
667.404	1	-5
667.574	1	18
667.743	1	6
667.913	1	9
668.082	1	2
668.251	1	-2
668.421	1	4
668.590	1	2
668.760	1	6
668.929	1	3
669.099	1	-7
669.268	1	4
669.437	1	2
669.607	1	0
669.776	1	6
669.946	1	4
670.115	1	6
670.285	1	13
670.454	1	14
670.623	1	12
670.793	1	1
670.962	1	7
671.132	1	17
671.301	1	5
671.470	1	0
671.640	1	-6
671.809	1	9
671.979	1	16
672.148	1	11
672.317	1	3
672.487	1	4
672.656	1	17
672.826	1	-7
672.995	1	13
673.164	1	20
673.334	1	13
673.503	1	4
673.673	1	14
673.842	1	9
674.011	1	13
674.181	1	-2
674.350	1	1
674.520	1	9
674.689	1	9
674.858	1	7
675.028	1	2
675.197	1	2
675.367	1	7
675.536	1	18
675.705	1	1
675.875	1	9
676.044	1	-1
676.214	1	4
676.383	1	5
676.552	1	6
676.722	1	6
676.891	1	-8
677.060	1	6
677.230	1	17
677.399	1	9
677.569	1	2
677.738	1	1
677.907	1	-2
678.077	1	10
678.246	1	5
678.416	1	8
678.585	1	8
678.754	1	3
678.924	1	1
679.093	1	21
679.262	1	11
679.432	1	6
679.601	1	3
679.771	1	-1
679.940	1	13
680.109	1	18
680.279	1	-9
680.448	1	6
680.617	1	1
680.787	1	7
680.956	1	7
681.125	1	8
681.295	1	21
681.464	1	4
681.634	1	13
681.803	1	-4
681.972	1	2
682.142	1	20
682.311	1	14
682.480	1	12
682.650	1	5
682.819	1	4
682.988	1	-4
683.158	1	7
683.327	1	9
683.496	1	-3
683.666	1	22
683.835	1	10
684.004	1	11
684.174	1	5
684.343	1	8
684.512	1	5
684.682	1	16
684.851	1	5
685.021	1	12
685.190	1	14
685.359	1	6
685.529	1	9
685.698	1	12
685.867	1	10
686.037	1	4
686.206	1	10
686.375	1	6
686.545	1	13
686.714	1	2
686.883	1	10
687.053	1	4
687.222	1	9
687.391	1	14
687.561	1	3
687.730	1	8
687.899	1	9
688.069	1	7
688.238	1	7
688.407	1	18
688.577	1	0
688.746	1	16
