340.368	1	4
340.539	1	5
340.710	1	-4
340.881	1	-2
341.052	1	1
341.223	1	8
341.394	1	1
341.565	1	-9
341.737	1	11
341.908	1	-2
342.079	1	3
342.250	1	6
342.421	1	4
342.592	1	-15
342.763	1	1
342.934	1	7
343.105	1	6
343.276	1	-5
343.447	1	2
343.618	1	7
343.789	1	-8
343.960	1	-7
344.131	1	-6
344.302	1	-4
344.473	1	3
344.644	1	-2
344.815	1	4
344.986	1	-5
345.157	1	2
345.328	1	-2
345.499	1	4
345.670	1	4
345.841	1	3
346.012	1	8
346.183	1	0
346.354	1	-7
346.526	1	7
346.697	1	6
346.868	1	-2
347.039	1	-9
347.210	1	-1
347.381	1	1
347.552	1	5
347.723	1	4
347.894	1	3
348.065	1	-5
348.236	1	8
348.407	1	4
348.578	1	3
348.749	1	8
348.920	1	8
349.091	1	4
349.262	1	-7
349.433	1	-1
349.604	1	1
349.775	1	7
349.946	1	-1
350.117	1	8
350.288	1	-3
350.459	1	5
350.630	1	-3
350.801	1	4
350.972	1	-4
351.143	1	-5
351.314	1	-1
351.485	1	-9
351.656	1	4
351.827	1	-2
351.998	1	-5
352.169	1	8
352.340	1	-8
352.511	1	2
352.682	1	2
352.853	1	-10
353.024	1	-14
353.195	1	-13
353.366	1	2
353.537	1	5
353.708	1	7
353.879	1	9
354.050	1	10
354.221	1	-7
354.392	1	7
354.563	1	5
354.734	1	0
354.905	1	9
355.076	1	-3
355.247	1	-8
355.418	1	-3
355.589	1	-4
355.760	1	-13
355.931	1	-4
356.102	1	0
356.273	1	12
356.444	1	0
356.615	1	7
356.785	1	10
356.956	1	-20
357.127	1	-1
357.298	1	6
357.469	1	-4
357.640	1	-1
357.811	1	13
357.982	1	-11
358.153	1	1
358.324	1	2
358.495	1	16
358.666	1	0
358.837	1	-3
359.008	1	-2
359.179	1	11
359.350	1	-5
359.521	1	-8
359.692	1	10
359.863	1	-12
360.034	1	-6
360.205	1	5
360.376	1	7
360.547	1	7
360.718	1	-4
360.889	1	4
361.060	1	1
361.231	1	-1
361.401	1	5
361.572	1	-7
361.743	1	-3
361.914	1	-2
362.085	1	-12
362.256	1	5
362.427	1	-7
362.598	1	4
362.769	1	3
362.940	1	-3
363.111	1	10
363.282	1	13
363.453	1	3
363.624	1	3
363.795	1	-4
363.966	1	8
364.137	1	-7
364.308	1	-5
364.478	1	6
364.649	1	-4
364.820	1	-3
364.991	1	4
365.162	1	-4
365.333	1	10
365.504	1	-6
365.675	1	2
365.846	1	-6
366.017	1	-2
366.188	1	-7
366.359	1	4
366.530	1	11
366.701	1	-6
366.871	1	9
367.042	1	9
367.213	1	15
367.384	1	11
367.555	1	-3
367.726	1	7
367.897	1	-6
368.068	1	-2
368.239	1	3
368.410	1	-3
368.581	1	8
368.752	1	-15
368.923	1	-10
369.093	1	-1
369.264	1	2
369.435	1	-2
369.606	1	-9
369.777	1	0
369.948	1	1
370.119	1	0
370.290	1	0
370.461	1	0
370.632	1	5
370.803	1	-1
370.973	1	14
371.144	1	7
371.315	1	3
371.486	1	-3
371.657	1	11
371.828	1	10
371.999	1	2
372.170	1	11
372.341	1	7
372.512	1	-4
372.682	1	-6
372.853	1	8
373.024	1	2
373.195	1	-4
373.366	1	4
373.537	1	0
373.708	1	1
373.879	1	3
374.050	1	5
374.220	1	13
374.391	1	4
374.562	1	5
374.733	1	3
374.904	1	-3
375.075	1	5
375.246	1	-2
375.417	1	0
375.588	1	-3
375.758	1	0
375.929	1	3
376.100	1	8
376.271	1	2
376.442	1	-4
376.613	1	6
376.784	1	-4
376.955	1	-3
377.125	1	0
377.296	1	8
377.467	1	0
377.638	1	3
377.809	1	2
377.980	1	4
378.151	1	-13
378.321	1	7
378.492	1	-5
378.663	1	-3
378.834	1	9
379.005	1	7
379.176	1	0
379.347	1	3
379.518	1	-14
379.688	1	-2
379.859	1	-3
380.030	1	-1
380.201	1	-2
380.372	1	-1
380.543	1	2
380.714	1	7
380.884	1	-5
381.055	1	8
381.226	1	5
381.397	1	-15
381.568	1	-4
381.739	1	11
381.910	1	10
382.080	1	-10
382.251	1	10
382.422	1	15
382.593	1	-8
382.764	1	-5
382.935	1	10
383.105	1	2
383.276	1	7
383.447	1	13
383.618	1	5
383.789	1	4
383.960	1	-6
384.130	1	-7
384.301	1	6
384.472	1	-8
384.643	1	3
384.814	1	6
384.985	1	6
385.156	1	8
385.326	1	9
385.497	1	3
385.668	1	-4
385.839	1	11
386.010	1	10
386.180	1	-5
386.351	1	-3
386.522	1	6
386.693	1	-3
386.864	1	-5
387.035	1	-3
387.205	1	-4
387.376	1	8
387.547	1	-2
387.718	1	14
387.889	1	21
388.060	1	-3
388.230	1	4
388.401	1	12
388.572	1	-3
388.743	1	6
388.914	1	7
389.084	1	4
389.255	1	1
389.426	1	-2
389.597	1	-6
389.768	1	7
389.939	1	-2
390.109	1	-3
390.280	1	11
390.451	1	16
390.622	1	-5
390.793	1	5
390.963	1	2
391.134	1	6
391.305	1	9
391.476	1	2
391.647	1	16
391.817	1	-3
391.988	1	-1
392.159	1	6
392.330	1	0
392.501	1	-1
392.671	1	6
392.842	1	12
393.013	1	1
393.184	1	19
393.355	1	13
393.525	1	6
393.696	1	1
393.867	1	-3
394.038	1	-9
394.208	1	11
394.379	1	0
394.550	1	5
394.721	1	2
394.892	1	9
395.062	1	-7
395.233	1	6
395.404	1	0
395.575	1	-6
395.746	1	-7
395.916	1	-6
396.087	1	-5
396.258	1	-2
396.429	1	9
396.599	1	-4
396.770	1	5
396.941	1	21
397.112	1	-6
397.283	1	8
397.453	1	-6
397.624	1	7
397.795	1	5
397.966	1	5
398.136	1	9
398.307	1	-1
398.478	1	2
398.649	1	4
398.819	1	7
398.990	1	9
399.161	1	-8
399.332	1	14
399.503	1	2
399.673	1	10
399.844	1	-4
400.015	1	2
400.186	1	11
400.356	1	-5
400.527	1	5
400.698	1	-1
400.869	1	14
401.039	1	2
401.210	1	-10
401.381	1	1
401.552	1	17
401.722	1	4
401.893	1	1
402.064	1	0
402.235	1	6
402.405	1	-7
402.576	1	3
402.747	1	3
402.918	1	3
403.088	1	-6
403.259	1	-5
403.430	1	2
403.601	1	-9
403.771	1	7
403.942	1	8
404.113	1	13
404.284	1	2
404.454	1	4
404.625	1	11
404.796	1	1
404.967	1	1
405.137	1	8
405.308	1	0
405.479	1	12
405.649	1	4
405.820	1	0
405.991	1	2
406.162	1	-3
406.332	1	2
406.503	1	-4
406.674	1	1
406.845	1	3
407.015	1	-4
407.186	1	6
407.357	1	1
407.527	1	2
407.698	1	-5
407.869	1	-7
408.040	1	0
408.210	1	0
408.381	1	0
408.552	1	-4
408.722	1	0
408.893	1	5
409.064	1	13
409.235	1	-3
409.405	1	4
409.576	1	3
409.747	1	0
409.917	1	7
410.088	1	8
410.259	1	-2
410.430	1	8
410.600	1	1
410.771	1	5
410.942	1	10
411.112	1	-2
411.283	1	0
411.454	1	7
411.625	1	3
411.795	1	8
411.966	1	6
412.137	1	13
412.307	1	14
412.478	1	7
412.649	1	12
412.819	1	-3
412.990	1	5
413.161	1	2
413.332	1	0
413.502	1	-2
413.673	1	10
413.844	1	-2
414.014	1	2
414.185	1	9
414.356	1	-8
414.526	1	3
414.697	1	5
414.868	1	5
415.038	1	-2
415.209	1	2
415.380	1	3
415.550	1	-14
415.721	1	-1
415.892	1	1
416.063	1	8
416.233	1	-6
416.404	1	8
416.575	1	-4
416.745	1	-3
416.916	1	1
417.087	1	-2
417.257	1	9
417.428	1	-5
417.599	1	8
417.769	1	14
417.940	1	-1
418.111	1	3
418.281	1	0
418.452	1	1
418.623	1	-2
418.793	1	1
418.964	1	2
419.135	1	2
419.305	1	1
419.476	1	1
419.647	1	6
419.817	1	3
419.988	1	-4
420.159	1	-8
420.329	1	7
420.500	1	-2
420.671	1	17
420.841	1	-3
421.012	1	3
421.183	1	-3
421.353	1	9
421.524	1	-3
421.695	1	2
421.865	1	1
422.036	1	2
422.206	1	-1
422.377	1	8
422.548	1	1
422.718	1	-1
422.889	1	-1
423.060	1	2
423.230	1	2
423.401	1	-2
423.572	1	0
423.742	1	-2
423.913	1	14
424.084	1	4
424.254	1	3
424.425	1	-3
424.595	1	-11
424.766	1	10
424.937	1	1
425.107	1	-12
425.278	1	-3
425.449	1	-1
425.619	1	2
425.790	1	-2
425.961	1	7
426.131	1	-3
426.302	1	-7
426.472	1	-9
426.643	1	-2
426.814	1	10
426.984	1	-3
427.155	1	-1
427.326	1	8
427.496	1	13
427.667	1	9
427.837	1	-11
428.008	1	-3
428.179	1	0
428.349	1	-11
428.520	1	-6
428.691	1	-5
428.861	1	-5
429.032	1	-1
429.202	1	7
429.373	1	-11
429.544	1	1
429.714	1	11
429.885	1	-8
430.055	1	-3
430.226	1	-3
430.397	1	8
430.567	1	12
430.738	1	4
430.909	1	-6
431.079	1	0
431.250	1	-4
431.420	1	2
431.591	1	-5
431.762	1	4
431.932	1	-2
432.103	1	1
432.273	1	5
432.444	1	4
432.615	1	-3
432.785	1	0
432.956	1	1
433.126	1	3
433.297	1	0
433.468	1	0
433.638	1	0
433.809	1	6
433.979	1	-3
434.150	1	-1
434.320	1	-6
434.491	1	2
434.662	1	2
434.832	1	-5
435.003	1	9
435.173	1	2
435.344	1	0
435.515	1	-6
435.685	1	2
435.856	1	-8
436.026	1	1
436.197	1	-9
436.368	1	-3
436.538	1	-1
436.709	1	-7
436.879	1	2
437.050	1	11
437.220	1	7
437.391	1	1
437.562	1	9
437.732	1	-1
437.903	1	1
438.073	1	9
438.244	1	-11
438.414	1	4
438.585	1	-3
438.756	1	5
438.926	1	7
439.097	1	8
439.267	1	0
439.438	1	7
439.608	1	6
439.779	1	-5
439.949	1	-11
440.120	1	4
440.291	1	-6
440.461	1	-7
440.632	1	-2
440.802	1	1
440.973	1	4
441.143	1	11
441.314	1	-1
441.485	1	-5
441.655	1	20
441.826	1	-10
441.996	1	3
442.167	1	-4
442.337	1	-4
442.508	1	-3
442.678	1	2
442.849	1	8
443.019	1	10
443.190	1	-14
443.361	1	7
443.531	1	3
443.702	1	-4
443.872	1	-12
444.043	1	7
444.213	1	-10
444.384	1	10
444.554	1	-5
444.725	1	-2
444.895	1	-3
445.066	1	-7
445.237	1	-7
445.407	1	-3
445.578	1	17
445.748	1	-3
445.919	1	-10
446.089	1	20
446.260	1	5
446.430	1	-9
446.601	1	-2
446.771	1	1
446.942	1	-3
447.112	1	4
447.283	1	0
447.453	1	-6
447.624	1	-1
447.794	1	-7
447.965	1	-6
448.135	1	6
448.306	1	-1
448.477	1	-1
448.647	1	18
448.818	1	10
448.988	1	-11
449.159	1	-1
449.329	1	6
449.500	1	7
449.670	1	-2
449.841	1	10
450.011	1	2
450.182	1	-11
450.352	1	11
450.523	1	0
450.693	1	9
450.864	1	5
451.034	1	3
451.205	1	4
451.375	1	7
451.546	1	3
451.716	1	5
451.887	1	-8
452.057	1	12
452.228	1	-7
452.398	1	0
452.569	1	0
452.739	1	2
452.910	1	-1
453.080	1	5
453.251	1	-6
453.421	1	-7
453.592	1	-5
453.762	1	5
453.933	1	10
454.103	1	2
454.274	1	-3
454.444	1	8
454.615	1	9
454.785	1	-14
454.956	1	2
455.126	1	4
455.297	1	-3
455.467	1	5
455.638	1	-2
455.808	1	-2
455.979	1	10
456.149	1	-7
456.320	1	-3
456.490	1	-3
456.661	1	-11
456.831	1	12
457.001	1	-4
457.172	1	-1
457.342	1	-1
457.513	1	8
457.683	1	3
457.854	1	5
458.024	1	5
458.195	1	-5
458.365	1	4
458.536	1	-3
458.706	1	3
458.877	1	-5
459.047	1	-1
459.218	1	8
459.388	1	1
459.559	1	5
459.729	1	0
459.899	1	13
460.070	1	12
460.240	1	-2
460.411	1	2
460.581	1	7
460.752	1	-7
460.922	1	1
461.093	1	1
461.263	1	-2
461.434	1	1
461.604	1	-1
461.775	1	11
461.945	1	9
462.115	1	-11
462.286	1	0
462.456	1	1
462.627	1	1
462.797	1	-7
462.968	1	1
463.138	1	10
463.309	1	6
463.479	1	7
463.649	1	-1
463.820	1	0
463.990	1	-2
464.161	1	1
464.331	1	0
464.502	1	-1
464.672	1	-1
464.843	1	1
465.013	1	2
465.183	1	1
465.354	1	3
465.524	1	10
465.695	1	4
465.865	1	-9
466.036	1	3
466.206	1	-3
466.376	1	-10
466.547	1	3
466.717	1	-5
466.888	1	7
467.058	1	9
467.229	1	5
467.399	1	3
467.569	1	-1
467.740	1	1
467.910	1	-9
468.081	1	3
468.251	1	-2
468.422	1	9
468.592	1	8
468.762	1	-6
468.933	1	10
469.103	1	-3
469.274	1	0
469.444	1	-11
469.614	1	-12
469.785	1	3
469.955	1	0
470.126	1	-4
470.296	1	-7
470.467	1	2
470.637	1	15
470.807	1	6
470.978	1	4
471.148	1	-6
471.319	1	6
471.489	1	2
471.659	1	5
471.830	1	11
472.000	1	10
472.171	1	-1
472.341	1	-2
472.511	1	10
472.682	1	-3
472.852	1	-4
473.023	1	0
473.193	1	6
473.363	1	-5
473.534	1	8
473.704	1	4
473.875	1	7
474.045	1	-4
474.215	1	-3
474.386	1	11
474.556	1	-8
474.727	1	-1
474.897	1	4
475.067	1	-1
475.238	1	2
475.408	1	3
475.578	1	3
475.749	1	-3
475.919	1	-2
476.090	1	0
476.260	1	5
476.430	1	3
476.601	1	-3
476.771	1	11
476.942	1	-2
477.112	1	0
477.282	1	-10
477.453	1	-4
477.623	1	5
477.793	1	0
477.964	1	3
478.134	1	2
478.305	1	1
478.475	1	-3
478.645	1	-4
478.816	1	-3
478.986	1	-2
479.156	1	6
479.327	1	-19
479.497	1	-2
479.667	1	4
479.838	1	2
480.008	1	5
480.179	1	1
480.349	1	2
480.519	1	3
480.690	1	2
480.860	1	0
481.030	1	-2
481.201	1	1
481.371	1	-6
481.541	1	7
481.712	1	6
481.882	1	-3
482.053	1	10
482.223	1	-11
482.393	1	-10
482.564	1	-8
482.734	1	6
482.904	1	-4
483.075	1	8
483.245	1	1
483.415	1	-1
483.586	1	-2
483.756	1	4
483.926	1	5
484.097	1	-5
484.267	1	-12
484.437	1	-18
484.608	1	2
484.778	1	-3
484.948	1	-6
485.119	1	3
485.289	1	3
485.459	1	4
485.630	1	6
485.800	1	-6
485.970	1	1
486.141	1	-7
486.311	1	6
486.481	1	-9
486.652	1	-4
486.822	1	5
486.992	1	-1
487.163	1	-6
487.333	1	6
487.503	1	-6
487.674	1	-2
487.844	1	1
488.014	1	4
488.185	1	-7
488.355	1	-11
488.525	1	1
488.696	1	-13
488.866	1	9
489.036	1	4
489.207	1	10
489.377	1	9
489.547	1	2
489.718	1	-2
489.888	1	-5
490.058	1	-1
490.228	1	-8
490.399	1	6
490.569	1	4
490.739	1	5
490.910	1	1
491.080	1	-4
491.250	1	-2
491.421	1	0
491.591	1	-8
491.761	1	10
491.932	1	4
492.102	1	-4
492.272	1	11
492.442	1	5
492.613	1	3
492.783	1	-7
492.953	1	11
493.124	1	-8
493.294	1	0
493.464	1	-4
493.635	1	-3
493.805	1	12
493.975	1	-6
494.145	1	-4
494.316	1	17
494.486	1	7
494.656	1	5
494.827	1	3
494.997	1	3
495.167	1	2
495.337	1	2
495.508	1	-7
495.678	1	11
495.848	1	14
496.019	1	-1
496.189	1	-5
496.359	1	-3
496.529	1	-2
496.700	1	-5
496.870	1	-6
497.040	1	2
497.211	1	1
497.381	1	-16
497.551	1	15
497.721	1	-2
497.892	1	0
498.062	1	-5
498.232	1	-4
498.403	1	0
498.573	1	-2
498.743	1	0
498.913	1	1
499.084	1	-9
499.254	1	2
499.424	1	9
499.594	1	-1
499.765	1	-1
499.935	1	-14
500.105	1	2
500.275	1	2
500.446	1	11
500.616	1	1
500.786	1	-1
500.956	1	1
501.127	1	2
501.297	1	3
501.467	1	1
501.638	1	2
501.808	1	-12
501.978	1	2
502.148	1	6
502.319	1	-8
502.489	1	-1
502.659	1	-6
502.829	1	-3
503.000	1	9
503.170	1	6
503.340	1	-5
503.510	1	8
503.681	1	7
503.851	1	-21
504.021	1	23
504.191	1	2
504.362	1	9
504.532	1	-12
504.702	1	4
504.872	1	-13
505.042	1	3
505.213	1	-9
505.383	1	1
505.553	1	-5
505.723	1	-5
505.894	1	9
506.064	1	9
506.234	1	11
506.404	1	2
506.575	1	-3
506.745	1	-5
506.915	1	1
507.085	1	-6
507.256	1	-3
507.426	1	10
507.596	1	0
507.766	1	8
507.936	1	5
508.107	1	1
508.277	1	7
508.447	1	-5
508.617	1	1
508.788	1	2
508.958	1	10
509.128	1	0
509.298	1	9
509.468	1	6
509.639	1	13
509.809	1	-4
509.979	1	15
510.149	1	0
510.319	1	-6
510.490	1	1
510.660	1	4
510.830	1	-4
511.000	1	-1
511.171	1	5
511.341	1	-4
511.511	1	-2
511.681	1	1
511.851	1	-2
512.022	1	-14
512.192	1	3
512.362	1	4
512.532	1	-3
512.702	1	-1
512.873	1	15
513.043	1	10
513.213	1	-3
513.383	1	2
513.553	1	-9
513.724	1	-1
513.894	1	-5
514.064	1	0
514.234	1	-1
514.404	1	4
514.575	1	6
514.745	1	-6
514.915	1	8
515.085	1	2
515.255	1	-5
515.425	1	-1
515.596	1	-6
515.766	1	-3
515.936	1	8
516.106	1	3
516.276	1	0
516.447	1	1
516.617	1	1
516.787	1	-6
516.957	1	-1
517.127	1	10
517.297	1	-6
517.468	1	0
517.638	1	6
517.808	1	5
517.978	1	-1
518.148	1	1
518.319	1	-3
518.489	1	5
518.659	1	7
518.829	1	-11
518.999	1	-3
519.169	1	13
519.340	1	3
519.510	1	-8
519.680	1	-2
519.850	1	0
520.020	1	-9
520.190	1	0
520.361	1	-2
520.531	1	4
520.701	1	7
520.871	1	0
521.041	1	15
521.211	1	4
521.382	1	-4
521.552	1	5
521.722	1	10
521.892	1	-9
522.062	1	8
522.232	1	-6
522.402	1	-7
522.573	1	-2
522.743	1	4
522.913	1	1
523.083	1	-8
523.253	1	-6
523.423	1	-8
523.593	1	-3
523.764	1	5
523.934	1	8
524.104	1	0
524.274	1	2
524.444	1	7
524.614	1	4
524.784	1	-2
524.955	1	-4
525.125	1	3
525.295	1	-4
525.465	1	1
525.635	1	5
525.805	1	-5
525.975	1	1
526.146	1	-2
526.316	1	0
526.486	1	-2
526.656	1	10
526.826	1	11
526.996	1	4
527.166	1	8
527.337	1	0
527.507	1	-13
527.677	1	13
527.847	1	-2
528.017	1	-7
528.187	1	0
528.357	1	7
528.527	1	-10
528.698	1	-10
528.868	1	7
529.038	1	8
529.208	1	-7
529.378	1	-5
529.548	1	-2
529.718	1	-3
529.888	1	5
530.058	1	1
530.229	1	9
530.399	1	18
530.569	1	4
530.739	1	4
530.909	1	8
531.079	1	8
531.249	1	5
531.419	1	11
531.589	1	-3
531.760	1	-7
531.930	1	-4
532.100	1	4
532.270	1	2
532.440	1	-6
532.610	1	5
532.780	1	-4
532.950	1	6
533.120	1	8
533.290	1	-6
533.461	1	5
533.631	1	1
533.801	1	-1
533.971	1	8
534.141	1	14
534.311	1	-1
534.481	1	10
534.651	1	-3
534.821	1	0
534.991	1	3
535.162	1	0
535.332	1	-4
535.502	1	9
535.672	1	-9
535.842	1	-2
536.012	1	15
536.182	1	4
536.352	1	-1
536.522	1	3
536.692	1	4
536.862	1	0
537.032	1	2
537.203	1	1
537.373	1	-1
537.543	1	5
537.713	1	4
537.883	1	10
538.053	1	10
538.223	1	5
538.393	1	2
538.563	1	-5
538.733	1	-5
538.903	1	2
539.073	1	5
539.243	1	4
539.413	1	12
539.584	1	5
539.754	1	0
539.924	1	5
540.094	1	6
540.264	1	2
540.434	1	-3
540.604	1	7
540.774	1	2
540.944	1	3
541.114	1	-1
541.284	1	5
541.454	1	7
541.624	1	5
541.794	1	-2
541.964	1	5
542.134	1	5
542.305	1	-5
542.475	1	-3
542.645	1	-6
542.815	1	11
542.985	1	-4
543.155	1	-3
543.325	1	-1
543.495	1	-10
543.665	1	5
543.835	1	-12
544.005	1	0
544.175	1	4
544.345	1	-5
544.515	1	2
544.685	1	9
544.855	1	4
545.025	1	-7
545.195	1	5
545.365	1	4
545.535	1	-6
545.705	1	9
545.875	1	3
546.045	1	5
546.216	1	4
546.386	1	1
546.556	1	-10
546.726	1	1
546.896	1	0
547.066	1	-5
547.236	1	-8
547.406	1	-1
547.576	1	7
547.746	1	1
547.916	1	8
548.086	1	14
548.256	1	2
548.426	1	-2
548.596	1	10
548.766	1	-3
548.936	1	-6
549.106	1	7
549.276	1	10
549.446	1	-6
549.616	1	13
549.786	1	0
549.956	1	9
550.126	1	-9
550.296	1	-2
550.466	1	-4
550.636	1	9
550.806	1	10
550.976	1	-1
551.146	1	2
551.316	1	5
551.486	1	0
551.656	1	-5
551.826	1	-2
551.996	1	12
552.166	1	4
552.336	1	-3
552.506	1	-9
552.676	1	-1
552.846	1	4
553.016	1	2
553.186	1	5
553.356	1	-3
553.526	1	-3
553.696	1	14
553.866	1	9
554.036	1	-6
554.206	1	9
554.376	1	2
554.546	1	-8
554.716	1	-1
554.886	1	-2
555.056	1	-6
555.226	1	6
555.396	1	-7
555.566	1	7
555.736	1	-2
555.906	1	3
556.076	1	7
556.246	1	-8
556.416	1	-2
556.586	1	4
556.756	1	4
556.926	1	-1
557.096	1	-3
557.266	1	14
557.436	1	11
557.606	1	-3
557.776	1	12
557.946	1	5
558.116	1	2
558.286	1	5
558.456	1	-2
558.626	1	1
558.796	1	-4
558.966	1	0
559.136	1	4
559.306	1	-4
559.476	1	-7
559.646	1	2
559.816	1	-2
559.986	1	-6
560.155	1	0
560.325	1	-12
560.495	1	1
560.665	1	6
560.835	1	5
561.005	1	3
561.175	1	-4
561.345	1	-3
561.515	1	4
561.685	1	-3
561.855	1	2
562.025	1	0
562.195	1	0
562.365	1	-2
562.535	1	6
562.705	1	5
562.875	1	-5
563.045	1	6
563.215	1	4
563.385	1	-5
563.555	1	10
563.725	1	1
563.895	1	-2
564.064	1	9
564.234	1	5
564.404	1	-4
564.574	1	-2
564.744	1	5
564.914	1	-11
565.084	1	-12
565.254	1	5
565.424	1	-11
565.594	1	-5
565.764	1	6
565.934	1	10
566.104	1	-5
566.274	1	0
566.444	1	12
566.614	1	-3
566.783	1	0
566.953	1	9
567.123	1	11
567.293	1	-3
567.463	1	4
567.633	1	-5
567.803	1	-12
567.973	1	-4
568.143	1	-9
568.313	1	-5
568.483	1	-7
568.653	1	-9
568.823	1	9
568.993	1	-8
569.162	1	9
569.332	1	-6
569.502	1	-2
569.672	1	7
569.842	1	-11
570.012	1	6
570.182	1	-8
570.352	1	6
570.522	1	6
570.692	1	3
570.862	1	3
571.031	1	8
571.201	1	5
571.371	1	-6
571.541	1	-6
571.711	1	12
571.881	1	2
572.051	1	-5
572.221	1	1
572.391	1	1
572.561	1	0
572.731	1	0
572.900	1	9
573.070	1	6
573.240	1	1
573.410	1	3
573.580	1	9
573.750	1	10
573.920	1	-1
574.090	1	0
574.260	1	-9
574.430	1	-5
574.599	1	-3
574.769	1	5
574.939	1	-1
575.109	1	5
575.279	1	0
575.449	1	6
575.619	1	15
575.789	1	1
575.959	1	2
576.128	1	-2
576.298	1	-3
576.468	1	-3
576.638	1	-1
576.808	1	0
576.978	1	4
577.148	1	8
577.318	1	7
577.487	1	5
577.657	1	-12
577.827	1	5
577.997	1	-6
578.167	1	3
578.337	1	1
578.507	1	-8
578.677	1	-8
578.846	1	0
579.016	1	9
579.186	1	4
579.356	1	-3
579.526	1	1
579.696	1	11
579.866	1	12
580.036	1	-3
580.205	1	-2
580.375	1	-4
580.545	1	-3
580.715	1	5
580.885	1	2
581.055	1	3
581.225	1	-13
581.394	1	-1
581.564	1	-3
581.734	1	4
581.904	1	6
582.074	1	-9
582.244	1	-4
582.414	1	2
582.583	1	-5
582.753	1	4
582.923	1	7
583.093	1	1
583.263	1	-5
583.433	1	-10
583.603	1	2
583.772	1	1
583.942	1	-3
584.112	1	-2
584.282	1	1
584.452	1	1
584.622	1	9
584.791	1	2
584.961	1	3
585.131	1	0
585.301	1	14
585.471	1	-7
585.641	1	5
585.811	1	2
585.980	1	-9
586.150	1	0
586.320	1	-2
586.490	1	-10
586.660	1	1
586.830	1	-9
586.999	1	3
587.169	1	-2
587.339	1	-5
587.509	1	-3
587.679	1	-1
587.849	1	6
588.018	1	1
588.188	1	-2
588.358	1	-2
588.528	1	1
588.698	1	-2
588.867	1	5
589.037	1	7
589.207	1	-5
589.377	1	12
589.547	1	-12
589.717	1	3
589.886	1	-5
590.056	1	-2
590.226	1	-1
590.396	1	2
590.566	1	-6
590.735	1	9
590.905	1	14
591.075	1	-13
591.245	1	-3
591.415	1	3
591.585	1	-3
591.754	1	1
591.924	1	-8
592.094	1	-6
592.264	1	5
592.434	1	5
592.603	1	-6
592.773	1	0
592.943	1	2
593.113	1	-5
593.283	1	0
593.452	1	-12
593.622	1	2
593.792	1	5
593.962	1	4
594.132	1	-3
594.301	1	13
594.471	1	4
594.641	1	-9
594.811	1	-1
594.981	1	0
595.150	1	-1
595.320	1	11
595.490	1	-3
595.660	1	-8
595.829	1	7
595.999	1	6
596.169	1	0
596.339	1	1
596.509	1	7
596.678	1	-10
596.848	1	4
597.018	1	3
597.188	1	-2
597.358	1	-1
597.527	1	-9
597.697	1	-4
597.867	1	-11
598.037	1	5
598.206	1	-6
598.376	1	6
598.546	1	2
598.716	1	-5
598.885	1	-2
599.055	1	6
599.225	1	3
599.395	1	9
599.565	1	-1
599.734	1	9
599.904	1	-3
600.074	1	-3
600.244	1	12
600.413	1	1
600.583	1	-4
600.753	1	6
600.923	1	5
601.092	1	-13
601.262	1	3
601.432	1	-2
601.602	1	5
601.771	1	1
601.941	1	7
602.111	1	-13
602.281	1	-1
602.451	1	-4
602.620	1	-2
602.790	1	-4
602.960	1	-4
603.130	1	7
603.299	1	10
603.469	1	-6
603.639	1	5
603.809	1	1
603.978	1	-2
604.148	1	0
604.318	1	3
604.487	1	-1
604.657	1	0
604.827	1	-19
604.997	1	-2
605.166	1	-1
605.336	1	2
605.506	1	4
605.676	1	-3
605.845	1	6
606.015	1	-2
606.185	1	0
606.355	1	10
606.524	1	-8
606.694	1	11
606.864	1	-1
607.034	1	-8
607.203	1	12
607.373	1	3
607.543	1	-1
607.712	1	13
607.882	1	-4
608.052	1	-1
608.222	1	-1
608.391	1	-8
608.561	1	-3
608.731	1	-7
608.901	1	3
609.070	1	4
609.240	1	6
609.410	1	7
609.579	1	7
609.749	1	2
609.919	1	-1
610.089	1	-9
610.258	1	13
610.428	1	-5
610.598	1	5
610.767	1	3
610.937	1	-2
611.107	1	12
611.277	1	6
611.446	1	-3
611.616	1	-10
611.786	1	11
611.955	1	4
612.125	1	8
612.295	1	5
612.465	1	-6
612.634	1	7
612.804	1	4
612.974	1	0
613.143	1	1
613.313	1	0
613.483	1	7
613.652	1	-6
613.822	1	-4
613.992	1	7
614.162	1	4
614.331	1	-3
614.501	1	2
614.671	1	2
614.840	1	2
615.010	1	0
615.180	1	-2
615.349	1	3
615.519	1	7
615.689	1	0
615.858	1	9
616.028	1	-2
616.198	1	7
616.368	1	-5
616.537	1	-10
616.707	1	-6
616.877	1	5
617.046	1	-1
617.216	1	-2
617.386	1	2
617.555	1	-8
617.725	1	7
617.895	1	9
618.064	1	0
618.234	1	4
618.404	1	-1
618.573	1	-2
618.743	1	-3
618.913	1	-6
619.082	1	2
619.252	1	7
619.422	1	-3
619.591	1	-7
619.761	1	1
619.931	1	3
620.100	1	3
620.270	1	-3
620.440	1	-7
620.609	1	-1
620.779	1	-5
620.949	1	-1
621.118	1	-1
621.288	1	0
621.458	1	2
621.627	1	-13
621.797	1	10
621.967	1	-5
622.136	1	3
622.306	1	4
622.476	1	-3
622.645	1	-4
622.815	1	-9
622.985	1	9
623.154	1	8
623.324	1	7
623.494	1	-2
623.663	1	1
623.833	1	6
624.002	1	-7
624.172	1	6
624.342	1	-2
624.511	1	-5
624.681	1	-6
624.851	1	-10
625.020	1	-2
625.190	1	5
625.360	1	-8
625.529	1	3
625.699	1	-1
625.869	1	13
626.038	1	-1
626.208	1	0
626.377	1	18
626.547	1	6
626.717	1	-3
626.886	1	0
627.056	1	5
627.226	1	-1
627.395	1	5
627.565	1	10
627.735	1	1
627.904	1	6
628.074	1	5
628.243	1	-9
628.413	1	-1
628.583	1	-3
628.752	1	8
628.922	1	-7
629.091	1	7
629.261	1	-1
629.431	1	-9
629.600	1	12
629.770	1	0
629.940	1	5
630.109	1	-1
630.279	1	-3
630.448	1	-6
630.618	1	-6
630.788	1	13
630.957	1	-7
631.127	1	6
631.297	1	-7
631.466	1	0
631.636	1	-3
631.805	1	4
631.975	1	5
632.145	1	-10
632.314	1	2
632.484	1	-1
632.653	1	-4
632.823	1	10
632.993	1	-5
633.162	1	0
633.332	1	10
633.501	1	-1
633.671	1	3
633.841	1	4
634.010	1	-5
634.180	1	7
634.349	1	1
634.519	1	6
634.689	1	8
634.858	1	5
635.028	1	0
635.197	1	-6
635.367	1	-5
635.537	1	-3
635.706	1	-2
635.876	1	-3
636.045	1	-5
636.215	1	7
636.384	1	3
636.554	1	14
636.724	1	8
636.893	1	-1
637.063	1	1
637.232	1	3
637.402	1	8
637.572	1	2
637.741	1	10
637.911	1	0
638.080	1	2
638.250	1	13
638.419	1	3
638.589	1	11
638.759	1	3
638.928	1	-7
639.098	1	0
639.267	1	5
639.437	1	-9
639.606	1	10
639.776	1	1
639.946	1	1
640.115	1	-12
640.285	1	7
640.454	1	5
640.624	1	5
640.793	1	3
640.963	1	0
641.132	1	2
641.302	1	3
641.472	1	-3
641.641	1	-1
641.811	1	-2
641.980	1	2
642.150	1	4
642.319	1	-3
642.489	1	-2
642.659	1	-1
642.828	1	-4
642.998	1	-4
643.167	1	10
643.337	1	-2
643.506	1	-2
643.676	1	9
643.845	1	-3
644.015	1	0
644.184	1	11
644.354	1	5
644.524	1	-7
644.693	1	9
644.863	1	-6
645.032	1	0
645.202	1	-2
645.371	1	-16
645.541	1	0
645.710	1	-1
645.880	1	2
646.049	1	1
646.219	1	-1
646.388	1	5
646.558	1	-2
646.728	1	-6
646.897	1	-3
647.067	1	-8
647.236	1	13
647.406	1	-5
647.575	1	2
647.745	1	2
647.914	1	1
648.084	1	7
648.253	1	-1
648.423	1	-1
648.592	1	-5
648.762	1	-3
648.931	1	2
649.101	1	4
649.270	1	7
649.440	1	10
649.610	1	14
649.779	1	1
649.949	1	0
650.118	1	-12
650.288	1	-6
650.457	1	-1
650.627	1	-1
650.796	1	6
650.966	1	-9
651.135	1	3
651.305	1	-7
651.474	1	2
651.644	1	-5
651.813	1	-3
651.983	1	-3
652.152	1	5
652.322	1	2
652.491	1	-4
652.661	1	4
652.830	1	3
653.000	1	7
653.169	1	3
653.339	1	2
653.508	1	-8
653.678	1	-3
653.847	1	0
654.017	1	-4
654.186	1	2
654.356	1	1
654.525	1	8
654.695	1	8
654.864	1	5
655.034	1	9
655.203	1	3
655.373	1	-5
655.542	1	7
655.712	1	-3
655.881	1	-1
656.051	1	6
656.220	1	6
656.390	1	-7
656.559	1	1
656.729	1	14
656.898	1	1
657.068	1	-1
657.237	1	9
657.406	1	2
657.576	1	3
657.745	1	-7
657.915	1	2
658.084	1	10
658.254	1	-1
658.423	1	-6
658.593	1	-6
658.762	1	-9
658.932	1	-2
659.101	1	-3
659.271	1	-1
659.440	1	8
659.610	1	-3
659.779	1	-5
659.949	1	-13
660.118	1	4
660.288	1	-2
660.457	1	-7
660.626	1	-9
660.796	1	3
660.965	1	-2
661.135	1	1
661.304	1	7
661.474	1	0
661.643	1	-3
661.813	1	0
661.982	1	2
662.152	1	1
662.321	1	4
662.491	1	0
662.660	1	2
662.829	1	-6
662.999	1	-5
663.168	1	-10
663.338	1	-3
663.507	1	-11
663.677	1	-12
663.846	1	2
664.016	1	6
664.185	1	-5
664.354	1	9
664.524	1	-12
664.693	1	0
664.863	1	2
665.032	1	-1
665.202	1	-10
665.371	1	-3
665.541	1	-6
665.710	1	-10
665.879	1	3
666.049	1	-3
666.218	1	-7
666.388	1	-2
666.557	1	-1
666.727	1	-9
666.896	1	3
667.065	1	2
667.235	1	-8
667.404	1	-3
667.574	1	-1
667.743	1	-1
667.913	1	7
668.082	1	1
668.251	1	6
668.421	1	-8
668.590	1	3
668.760	1	3
668.929	1	4
669.099	1	-12
669.268	1	-1
669.437	1	-6
669.607	1	-3
669.776	1	-1
669.946	1	7
670.115	1	-1
670.285	1	6
670.454	1	0
670.623	1	3
670.793	1	-1
670.962	1	0
671.132	1	-1
671.301	1	0
671.470	1	-3
671.640	1	-11
671.809	1	-12
671.979	1	7
672.148	1	4
672.317	1	-2
672.487	1	-18
672.656	1	4
672.826	1	-22
672.995	1	10
673.164	1	11
673.334	1	-2
673.503	1	7
673.673	1	16
673.842	1	1
674.011	1	3
674.181	1	-6
674.350	1	-5
674.520	1	1
674.689	1	-6
674.858	1	5
675.028	1	8
675.197	1	-3
675.367	1	7
675.536	1	6
675.705	1	-13
675.875	1	2
676.044	1	-8
676.214	1	-2
676.383	1	-3
676.552	1	-6
676.722	1	2
676.891	1	-15
677.060	1	1
677.230	1	20
677.399	1	0
677.569	1	-1
677.738	1	0
677.907	1	-13
678.077	1	-1
678.246	1	-10
678.416	1	4
678.585	1	2
678.754	1	-6
678.924	1	-2
679.093	1	-2
679.262	1	2
679.432	1	-3
679.601	1	-11
679.771	1	3
679.940	1	-3
680.109	1	-1
680.279	1	-9
680.448	1	1
680.617	1	-6
680.787	1	2
680.956	1	0
681.125	1	-8
681.295	1	-2
681.464	1	3
681.634	1	4
681.803	1	-16
681.972	1	-19
682.142	1	9
682.311	1	7
682.480	1	-2
682.650	1	-9
682.819	1	-3
682.988	1	-3
683.158	1	-2
683.327	1	1
683.496	1	-4
683.666	1	5
683.835	1	6
684.004	1	5
684.174	1	6
684.343	1	-5
684.512	1	-5
684.682	1	9
684.851	1	3
685.021	1	1
685.190	1	6
685.359	1	-5
685.529	1	5
685.698	1	-1
685.867	1	3
686.037	1	1
686.206	1	1
686.375	1	3
686.545	1	3
686.714	1	-2
686.883	1	-10
687.053	1	1
687.222	1	-6
687.391	1	-3
687.561	1	2
687.730	1	-7
687.899	1	-8
688.069	1	-4
688.238	1	3
688.407	1	-7
688.577	1	-4
688.746	1	3
