340.368	1	1
340.539	1	6
340.710	1	7
340.881	1	-5
341.052	1	1
341.223	1	16
341.394	1	-1
341.565	1	-1
341.737	1	9
341.908	1	5
342.079	1	-3
342.250	1	1
342.421	1	-3
342.592	1	0
342.763	1	-6
342.934	1	7
343.105	1	19
343.276	1	-2
343.447	1	3
343.618	1	1
343.789	1	-4
343.960	1	-5
344.131	1	-4
344.302	1	7
344.473	1	1
344.644	1	1
344.815	1	6
344.986	1	2
345.157	1	6
345.328	1	-10
345.499	1	16
345.670	1	6
345.841	1	0
346.012	1	7
346.183	1	7
346.354	1	12
346.526	1	3
346.697	1	-2
346.868	1	4
347.039	1	0
347.210	1	6
347.381	1	-1
347.552	1	-5
347.723	1	4
347.894	1	0
348.065	1	-2
348.236	1	6
348.407	1	-3
348.578	1	6
348.749	1	4
348.920	1	6
349.091	1	4
349.262	1	1
349.433	1	0
349.604	1	13
349.775	1	8
349.946	1	4
350.117	1	8
350.288	1	1
350.459	1	-2
350.630	1	-5
350.801	1	9
350.972	1	3
351.143	1	-4
351.314	1	6
351.485	1	3
351.656	1	4
351.827	1	-2
351.998	1	6
352.169	1	15
352.340	1	-6
352.511	1	0
352.682	1	1
352.853	1	-7
353.024	1	-6
353.195	1	-7
353.366	1	13
353.537	1	1
353.708	1	10
353.879	1	11
354.050	1	8
354.221	1	-1
354.392	1	7
354.563	1	11
354.734	1	-4
354.905	1	13
355.076	1	2
355.247	1	-9
355.418	1	1
355.589	1	3
355.760	1	-1
355.931	1	-1
356.102	1	10
356.273	1	4
356.444	1	9
356.615	1	0
356.785	1	14
356.956	1	-1
357.127	1	2
357.298	1	9
357.469	1	-1
357.640	1	13
357.811	1	14
357.982	1	-5
358.153	1	7
358.324	1	6
358.495	1	15
358.666	1	5
358.837	1	-2
359.008	1	4
359.179	1	3
359.350	1	-7
359.521	1	5
359.692	1	6
359.863	1	-6
360.034	1	-9
360.205	1	4
360.376	1	15
360.547	1	0
360.718	1	-14
360.889	1	5
361.060	1	10
361.231	1	10
361.401	1	13
361.572	1	-5
361.743	1	1
361.914	1	-8
362.085	1	-9
362.256	1	8
362.427	1	2
362.598	1	-2
362.769	1	4
362.940	1	1
363.111	1	8
363.282	1	-1
363.453	1	7
363.624	1	12
363.795	1	-1
363.966	1	2
364.137	1	2
364.308	1	-6
364.478	1	0
364.649	1	3
364.820	1	2
364.991	1	9
365.162	1	-9
365.333	1	9
365.504	1	-5
365.675	1	-10
365.846	1	-6
366.017	1	3
366.188	1	-5
366.359	1	5
366.530	1	10
366.701	1	-7
366.871	1	19
367.042	1	3
367.213	1	3
367.384	1	0
367.555	1	1
367.726	1	8
367.897	1	0
368.068	1	1
368.239	1	8
368.410	1	4
368.581	1	5
368.752	1	-3
368.923	1	-15
369.093	1	-2
369.264	1	-1
369.435	1	4
369.606	1	0
369.777	1	-5
369.948	1	6
370.119	1	0
370.290	1	1
370.461	1	-1
370.632	1	4
370.803	1	0
370.973	1	15
371.144	1	12
371.315	1	-7
371.486	1	7
371.657	1	9
371.828	1	6
371.999	1	2
372.170	1	10
372.341	1	4
372.512	1	1
372.682	1	2
372.853	1	5
373.024	1	-2
373.195	1	-5
373.366	1	-4
373.537	1	-2
373.708	1	0
373.879	1	5
374.050	1	12
374.220	1	5
374.391	1	2
374.562	1	4
374.733	1	18
374.904	1	9
375.075	1	5
375.246	1	2
375.417	1	3
375.588	1	-1
375.758	1	-2
375.929	1	4
376.100	1	7
376.271	1	-9
376.442	1	4
376.613	1	-5
376.784	1	2
376.955	1	-4
377.125	1	2
377.296	1	1
377.467	1	-1
377.638	1	5
377.809	1	9
377.980	1	6
378.151	1	4
378.321	1	5
378.492	1	3
378.663	1	-1
378.834	1	9
379.005	1	4
379.176	1	-8
379.347	1	1
379.518	1	-6
379.688	1	-1
379.859	1	0
380.030	1	-1
380.201	1	-10
380.372	1	3
380.543	1	-2
380.714	1	8
380.884	1	3
381.055	1	-4
381.226	1	0
381.397	1	-4
381.568	1	-3
381.739	1	4
381.910	1	-3
382.080	1	-18
382.251	1	4
382.422	1	9
382.593	1	-8
382.764	1	5
382.935	1	8
383.105	1	-3
383.276	1	-2
383.447	1	20
383.618	1	10
383.789	1	0
383.960	1	4
384.130	1	-3
384.301	1	4
384.472	1	-3
384.643	1	6
384.814	1	-2
384.985	1	-1
385.156	1	13
385.326	1	4
385.497	1	11
385.668	1	0
385.839	1	8
386.010	1	6
386.180	1	4
386.351	1	2
386.522	1	10
386.693	1	-3
386.864	1	0
387.035	1	-15
387.205	1	-6
387.376	1	8
387.547	1	-4
387.718	1	6
387.889	1	16
388.060	1	-2
388.230	1	-2
388.401	1	11
388.572	1	7
388.743	1	-5
388.914	1	4
389.084	1	12
389.255	1	4
389.426	1	4
389.597	1	-3
389.768	1	1
389.939	1	8
390.109	1	-2
390.280	1	14
390.451	1	20
390.622	1	-11
390.793	1	6
390.963	1	8
391.134	1	-1
391.305	1	5
391.476	1	3
391.647	1	2
391.817	1	5
391.988	1	-9
392.159	1	17
392.330	1	5
392.501	1	-6
392.671	1	7
392.842	1	2
393.013	1	1
393.184	1	9
393.355	1	14
393.525	1	0
393.696	1	-1
393.867	1	-5
394.038	1	-3
394.208	1	9
394.379	1	-5
394.550	1	4
394.721	1	2
394.892	1	9
395.062	1	-9
395.233	1	-1
395.404	1	7
395.575	1	-3
395.746	1	-6
395.916	1	-2
396.087	1	3
396.258	1	-6
396.429	1	4
396.599	1	3
396.770	1	1
396.941	1	13
397.112	1	2
397.283	1	6
397.453	1	-11
397.624	1	5
397.795	1	-1
397.966	1	5
398.136	1	1
398.307	1	3
398.478	1	-2
398.649	1	9
398.819	1	13
398.990	1	6
399.161	1	9
399.332	1	1
399.503	1	5
399.673	1	7
399.844	1	2
400.015	1	7
400.186	1	3
400.356	1	-8
400.527	1	-1
400.698	1	-3
400.869	1	3
401.039	1	4
401.210	1	-8
401.381	1	7
401.552	1	10
401.722	1	7
401.893	1	-1
402.064	1	0
402.235	1	18
402.405	1	2
402.576	1	8
402.747	1	2
402.918	1	2
403.088	1	1
403.259	1	-6
403.430	1	-4
403.601	1	-4
403.771	1	7
403.942	1	5
404.113	1	9
404.284	1	2
404.454	1	19
404.625	1	-5
404.796	1	4
404.967	1	6
405.137	1	13
405.308	1	11
405.479	1	1
405.649	1	7
405.820	1	3
405.991	1	3
406.162	1	-9
406.332	1	1
406.503	1	-1
406.674	1	2
406.845	1	18
407.015	1	-7
407.186	1	6
407.357	1	1
407.527	1	-3
407.698	1	-9
407.869	1	-9
408.040	1	-12
408.210	1	5
408.381	1	2
408.552	1	2
408.722	1	4
408.893	1	-1
409.064	1	-7
409.235	1	0
409.405	1	4
409.576	1	-2
409.747	1	-3
409.917	1	10
410.088	1	3
410.259	1	9
410.430	1	9
410.600	1	6
410.771	1	9
410.942	1	0
411.112	1	1
411.283	1	-2
411.454	1	22
411.625	1	2
411.795	1	7
411.966	1	4
412.137	1	12
412.307	1	-2
412.478	1	4
412.649	1	-2
412.819	1	2
412.990	1	11
413.161	1	-3
413.332	1	3
413.502	1	2
413.673	1	5
413.844	1	0
414.014	1	-1
414.185	1	-3
414.356	1	-11
414.526	1	4
414.697	1	14
414.868	1	-1
415.038	1	7
415.209	1	-5
415.380	1	-7
415.550	1	-7
415.721	1	7
415.892	1	-1
416.063	1	11
416.233	1	1
416.404	1	-2
416.575	1	-2
416.745	1	3
416.916	1	-2
417.087	1	-3
417.257	1	7
417.428	1	1
417.599	1	0
417.769	1	11
417.940	1	-2
418.111	1	6
418.281	1	0
418.452	1	-4
418.623	1	-6
418.793	1	0
418.964	1	1
419.135	1	9
419.305	1	0
419.476	1	2
419.647	1	6
419.817	1	10
419.988	1	-1
420.159	1	-11
420.329	1	5
420.500	1	8
420.671	1	-2
420.841	1	8
421.012	1	18
421.183	1	7
421.353	1	10
421.524	1	7
421.695	1	5
421.865	1	-4
422.036	1	-3
422.206	1	3
422.377	1	3
422.548	1	0
422.718	1	11
422.889	1	10
423.060	1	2
423.230	1	10
423.401	1	6
423.572	1	0
423.742	1	4
423.913	1	13
424.084	1	8
424.254	1	-6
424.425	1	4
424.595	1	-7
424.766	1	16
424.937	1	-2
425.107	1	-4
425.278	1	-8
425.449	1	-2
425.619	1	1
425.790	1	1
425.961	1	-1
426.131	1	4
426.302	1	4
426.472	1	0
426.643	1	9
426.814	1	10
426.984	1	4
427.155	1	-8
427.326	1	-1
427.496	1	6
427.667	1	4
427.837	1	-4
428.008	1	8
428.179	1	-7
428.349	1	-5
428.520	1	-6
428.691	1	-3
428.861	1	0
429.032	1	-2
429.202	1	12
429.373	1	-1
429.544	1	7
429.714	1	5
429.885	1	-3
430.055	1	0
430.226	1	-3
430.397	1	5
430.567	1	9
430.738	1	-3
430.909	1	-2
431.079	1	4
431.250	1	-7
431.420	1	6
431.591	1	1
431.762	1	6
431.932	1	6
432.103	1	-1
432.273	1	-5
432.444	1	15
432.615	1	2
432.785	1	-3
432.956	1	-5
433.126	1	-3
433.297	1	12
433.468	1	1
433.638	1	-4
433.809	1	9
433.979	1	-4
434.150	1	-11
434.320	1	2
434.491	1	-3
434.662	1	-3
434.832	1	-2
435.003	1	13
435.173	1	4
435.344	1	2
435.515	1	-7
435.685	1	-1
435.856	1	0
436.026	1	2
436.197	1	1
436.368	1	-1
436.538	1	-2
436.709	1	-1
436.879	1	4
437.050	1	1
437.220	1	7
437.391	1	6
437.562	1	1
437.732	1	11
437.903	1	-7
438.073	1	4
438.244	1	-7
438.414	1	7
438.585	1	1
438.756	1	8
438.926	1	2
439.097	1	-1
439.267	1	14
439.438	1	15
439.608	1	7
439.779	1	-4
439.949	1	0
440.120	1	13
440.291	1	-7
440.461	1	-6
440.632	1	3
440.802	1	9
440.973	1	10
441.143	1	15
441.314	1	12
441.485	1	-1
441.655	1	12
441.826	1	-9
441.996	1	7
442.167	1	-7
442.337	1	0
442.508	1	1
442.678	1	-4
442.849	1	12
443.019	1	7
443.190	1	-11
443.361	1	13
443.531	1	0
443.702	1	-3
443.872	1	2
444.043	1	7
444.213	1	-2
444.384	1	7
444.554	1	1
444.725	1	4
444.895	1	-3
445.066	1	-11
445.237	1	-3
445.407	1	-3
445.578	1	22
445.748	1	2
445.919	1	0
446.089	1	7
446.260	1	8
446.430	1	-3
446.601	1	-6
446.771	1	-4
446.942	1	7
447.112	1	-6
447.283	1	1
447.453	1	-6
447.624	1	10
447.794	1	2
447.965	1	0
448.135	1	6
448.306	1	-5
448.477	1	-7
448.647	1	10
448.818	1	20
448.988	1	-8
449.159	1	-12
449.329	1	3
449.500	1	9
449.670	1	8
449.841	1	4
450.011	1	1
450.182	1	-9
450.352	1	2
450.523	1	0
450.693	1	9
450.864	1	-2
451.034	1	4
451.205	1	8
451.375	1	4
451.546	1	-2
451.716	1	11
451.887	1	0
452.057	1	10
452.228	1	2
452.398	1	8
452.569	1	-3
452.739	1	-7
452.910	1	-3
453.080	1	12
453.251	1	1
453.421	1	-13
453.592	1	3
453.762	1	10
453.933	1	14
454.103	1	2
454.274	1	4
454.444	1	17
454.615	1	10
454.785	1	-2
454.956	1	-6
455.126	1	0
455.297	1	3
455.467	1	4
455.638	1	0
455.808	1	7
455.979	1	5
456.149	1	6
456.320	1	4
456.490	1	5
456.661	1	1
456.831	1	8
457.001	1	-4
457.172	1	0
457.342	1	3
457.513	1	11
457.683	1	0
457.854	1	-2
458.024	1	9
458.195	1	-11
458.365	1	1
458.536	1	12
458.706	1	0
458.877	1	-6
459.047	1	1
459.218	1	5
459.388	1	7
459.559	1	2
459.729	1	7
459.899	1	10
460.070	1	10
460.240	1	12
460.411	1	6
460.581	1	4
460.752	1	11
460.922	1	6
461.093	1	7
461.263	1	8
461.434	1	8
461.604	1	3
461.775	1	6
461.945	1	12
462.115	1	-8
462.286	1	10
462.456	1	-1
462.627	1	2
462.797	1	-5
462.968	1	-3
463.138	1	10
463.309	1	-3
463.479	1	6
463.649	1	5
463.820	1	1
463.990	1	2
464.161	1	8
464.331	1	-5
464.502	1	5
464.672	1	5
464.843	1	-1
465.013	1	-15
465.183	1	5
465.354	1	5
465.524	1	17
465.695	1	10
465.865	1	5
466.036	1	0
466.206	1	6
466.376	1	-3
466.547	1	-2
466.717	1	-5
466.888	1	-5
467.058	1	24
467.229	1	10
467.399	1	5
467.569	1	5
467.740	1	5
467.910	1	3
468.081	1	12
468.251	1	-6
468.422	1	2
468.592	1	9
468.762	1	-16
468.933	1	10
469.103	1	0
469.274	1	3
469.444	1	-6
469.614	1	4
469.785	1	11
469.955	1	7
470.126	1	2
470.296	1	6
470.467	1	0
470.637	1	6
470.807	1	2
470.978	1	2
471.148	1	3
471.319	1	10
471.489	1	3
471.659	1	12
471.830	1	13
472.000	1	6
472.171	1	3
472.341	1	9
472.511	1	7
472.682	1	7
472.852	1	-6
473.023	1	-6
473.193	1	-1
473.363	1	-3
473.534	1	2
473.704	1	4
473.875	1	8
474.045	1	1
474.215	1	-4
474.386	1	4
474.556	1	-10
474.727	1	-6
474.897	1	4
475.067	1	11
475.238	1	4
475.408	1	1
475.578	1	-3
475.749	1	-2
475.919	1	-7
476.090	1	-8
476.260	1	2
476.430	1	9
476.601	1	1
476.771	1	7
476.942	1	1
477.112	1	8
477.282	1	-5
477.453	1	4
477.623	1	0
477.793	1	14
477.964	1	7
478.134	1	8
478.305	1	0
478.475	1	3
478.645	1	-5
478.816	1	1
478.986	1	7
479.156	1	7
479.327	1	-5
479.497	1	1
479.667	1	2
479.838	1	-1
480.008	1	16
480.179	1	-4
480.349	1	-4
480.519	1	-1
480.690	1	-1
480.860	1	-2
481.030	1	-7
481.201	1	1
481.371	1	4
481.541	1	2
481.712	1	7
481.882	1	4
482.053	1	6
482.223	1	-4
482.393	1	-6
482.564	1	-14
482.734	1	3
482.904	1	1
483.075	1	7
483.245	1	0
483.415	1	8
483.586	1	2
483.756	1	13
483.926	1	9
484.097	1	0
484.267	1	1
484.437	1	-6
484.608	1	3
484.778	1	6
484.948	1	2
485.119	1	3
485.289	1	20
485.459	1	15
485.630	1	-3
485.800	1	-10
485.970	1	1
486.141	1	-8
486.311	1	4
486.481	1	0
486.652	1	13
486.822	1	4
486.992	1	-3
487.163	1	-1
487.333	1	0
487.503	1	-14
487.674	1	-5
487.844	1	5
488.014	1	7
488.185	1	-8
488.355	1	-10
488.525	1	5
488.696	1	-9
488.866	1	7
489.036	1	-2
489.207	1	14
489.377	1	-2
489.547	1	-1
489.718	1	8
489.888	1	-5
490.058	1	0
490.228	1	-6
490.399	1	6
490.569	1	12
490.739	1	5
490.910	1	-3
491.080	1	1
491.250	1	5
491.421	1	-1
491.591	1	4
491.761	1	0
491.932	1	7
492.102	1	9
492.272	1	5
492.442	1	9
492.613	1	5
492.783	1	0
492.953	1	0
493.124	1	-3
493.294	1	3
493.464	1	-1
493.635	1	0
493.805	1	10
493.975	1	3
494.145	1	4
494.316	1	11
494.486	1	9
494.656	1	1
494.827	1	-3
494.997	1	3
495.167	1	1
495.337	1	7
495.508	1	2
495.678	1	5
495.848	1	10
496.019	1	3
496.189	1	9
496.359	1	4
496.529	1	0
496.700	1	11
496.870	1	-3
497.040	1	2
497.211	1	9
497.381	1	-18
497.551	1	13
497.721	1	0
497.892	1	6
498.062	1	7
498.232	1	-1
498.403	1	3
498.573	1	-7
498.743	1	-1
498.913	1	2
499.084	1	-9
499.254	1	1
499.424	1	9
499.594	1	2
499.765	1	4
499.935	1	-7
500.105	1	17
500.275	1	2
500.446	1	10
500.616	1	-7
500.786	1	6
500.956	1	1
501.127	1	7
501.297	1	7
501.467	1	0
501.638	1	1
501.808	1	-5
501.978	1	2
502.148	1	1
502.319	1	2
502.489	1	8
502.659	1	-3
502.829	1	9
503.000	1	4
503.170	1	4
503.340	1	3
503.510	1	2
503.681	1	4
503.851	1	-11
504.021	1	22
504.191	1	5
504.362	1	14
504.532	1	-4
504.702	1	7
504.872	1	-13
505.042	1	-1
505.213	1	0
505.383	1	0
505.553	1	4
505.723	1	10
505.894	1	2
506.064	1	-2
506.234	1	12
506.404	1	3
506.575	1	-5
506.745	1	4
506.915	1	-1
507.085	1	-4
507.256	1	-4
507.426	1	8
507.596	1	7
507.766	1	1
507.936	1	9
508.107	1	2
508.277	1	-2
508.447	1	-1
508.617	1	19
508.788	1	-8
508.958	1	9
509.128	1	0
509.298	1	12
509.468	1	2
509.639	1	16
509.809	1	14
509.979	1	5
510.149	1	3
510.319	1	-7
510.490	1	13
510.660	1	6
510.830	1	-4
511.000	1	10
511.171	1	17
511.341	1	-3
511.511	1	9
511.681	1	6
511.851	1	-1
512.022	1	0
512.192	1	3
512.362	1	4
512.532	1	-2
512.702	1	-9
512.873	1	14
513.043	1	4
513.213	1	0
513.383	1	-8
513.553	1	0
513.724	1	7
513.894	1	-10
514.064	1	10
514.234	1	1
514.404	1	3
514.575	1	11
514.745	1	1
514.915	1	4
515.085	1	0
515.255	1	-1
515.425	1	-2
515.596	1	-1
515.766	1	-5
515.936	1	8
516.106	1	-8
516.276	1	-2
516.447	1	-3
516.617	1	0
516.787	1	3
516.957	1	2
517.127	1	4
517.297	1	2
517.468	1	1
517.638	1	16
517.808	1	-3
517.978	1	-2
518.148	1	0
518.319	1	-2
518.489	1	7
518.659	1	1
518.829	1	-6
518.999	1	7
519.169	1	16
519.340	1	5
519.510	1	4
519.680	1	-8
519.850	1	0
520.020	1	-7
520.190	1	1
520.361	1	1
520.531	1	-3
520.701	1	10
520.871	1	-4
521.041	1	1
521.211	1	2
521.382	1	1
521.552	1	5
521.722	1	1
521.892	1	-5
522.062	1	5
522.232	1	-5
522.402	1	-5
522.573	1	6
522.743	1	5
522.913	1	8
523.083	1	0
523.253	1	0
523.423	1	-4
523.593	1	-12
523.764	1	8
523.934	1	17
524.104	1	-4
524.274	1	-1
524.444	1	3
524.614	1	1
524.784	1	8
524.955	1	-1
525.125	1	10
525.295	1	-1
525.465	1	6
525.635	1	6
525.805	1	-5
525.975	1	-3
526.146	1	-2
526.316	1	-3
526.486	1	11
526.656	1	14
526.826	1	2
526.996	1	14
527.166	1	-3
527.337	1	4
527.507	1	-11
527.677	1	7
527.847	1	-2
528.017	1	-6
528.187	1	12
528.357	1	16
528.527	1	10
528.698	1	-13
528.868	1	-3
529.038	1	5
529.208	1	-7
529.378	1	13
529.548	1	7
529.718	1	1
529.888	1	8
530.058	1	3
530.229	1	1
530.399	1	10
530.569	1	8
530.739	1	3
530.909	1	5
531.079	1	15
531.249	1	-4
531.419	1	3
531.589	1	6
531.760	1	8
531.930	1	-2
532.100	1	7
532.270	1	10
532.440	1	-9
532.610	1	13
532.780	1	-1
532.950	1	11
533.120	1	-4
533.290	1	1
533.461	1	7
533.631	1	3
533.801	1	8
533.971	1	-4
534.141	1	6
534.311	1	9
534.481	1	-4
534.651	1	-1
534.821	1	10
534.991	1	6
535.162	1	9
535.332	1	-3
535.502	1	4
535.672	1	0
535.842	1	6
536.012	1	-2
536.182	1	-8
536.352	1	-2
536.522	1	4
536.692	1	7
536.862	1	2
537.032	1	-1
537.203	1	6
537.373	1	-5
537.543	1	4
537.713	1	22
537.883	1	1
538.053	1	14
538.223	1	3
538.393	1	9
538.563	1	8
538.733	1	-4
538.903	1	1
539.073	1	2
539.243	1	2
539.413	1	3
539.584	1	8
539.754	1	0
539.924	1	4
540.094	1	-5
540.264	1	12
540.434	1	-9
540.604	1	8
540.774	1	4
540.944	1	1
541.114	1	-7
541.284	1	-5
541.454	1	6
541.624	1	-1
541.794	1	3
541.964	1	9
542.134	1	6
542.305	1	-14
542.475	1	2
542.645	1	-5
542.815	1	7
542.985	1	0
543.155	1	1
543.325	1	-1
543.495	1	3
543.665	1	11
543.835	1	-1
544.005	1	-2
544.175	1	2
544.345	1	-4
544.515	1	-6
544.685	1	13
544.855	1	10
545.025	1	-2
545.195	1	3
545.365	1	-2
545.535	1	-6
545.705	1	2
545.875	1	-10
546.045	1	14
546.216	1	9
546.386	1	6
546.556	1	-6
546.726	1	2
546.896	1	-1
547.066	1	-10
547.236	1	-2
547.406	1	7
547.576	1	2
547.746	1	7
547.916	1	7
548.086	1	-1
548.256	1	9
548.426	1	1
548.596	1	10
548.766	1	1
548.936	1	-3
549.106	1	4
549.276	1	10
549.446	1	7
549.616	1	8
549.786	1	6
549.956	1	7
550.126	1	-5
550.296	1	3
550.466	1	0
550.636	1	-1
550.806	1	6
550.976	1	2
551.146	1	2
551.316	1	-3
551.486	1	4
551.656	1	-10
551.826	1	0
551.996	1	10
552.166	1	0
552.336	1	6
552.506	1	-4
552.676	1	1
552.846	1	4
553.016	1	6
553.186	1	5
553.356	1	-8
553.526	1	0
553.696	1	15
553.866	1	-2
554.036	1	5
554.206	1	4
554.376	1	-3
554.546	1	0
554.716	1	-2
554.886	1	11
555.056	1	-3
555.226	1	-6
555.396	1	9
555.566	1	10
555.736	1	-16
555.906	1	7
556.076	1	0
556.246	1	-4
556.416	1	6
556.586	1	9
556.756	1	1
556.926	1	11
557.096	1	1
557.266	1	10
557.436	1	3
557.606	1	-6
557.776	1	-1
557.946	1	10
558.116	1	6
558.286	1	7
558.456	1	-4
558.626	1	9
558.796	1	0
558.966	1	2
559.136	1	8
559.306	1	-5
559.476	1	1
559.646	1	0
559.816	1	4
559.986	1	-3
560.155	1	5
560.325	1	-5
560.495	1	7
560.665	1	-1
560.835	1	3
561.005	1	9
561.175	1	-5
561.345	1	0
561.515	1	-8
561.685	1	1
561.855	1	8
562.025	1	-5
562.195	1	14
562.365	1	-4
562.535	1	9
562.705	1	6
562.875	1	1
563.045	1	5
563.215	1	-6
563.385	1	-1
563.555	1	2
563.725	1	3
563.895	1	3
564.064	1	12
564.234	1	5
564.404	1	4
564.574	1	3
564.744	1	4
564.914	1	-13
565.084	1	-2
565.254	1	1
565.424	1	-6
565.594	1	3
565.764	1	3
565.934	1	14
566.104	1	-5
566.274	1	9
566.444	1	13
566.614	1	0
566.783	1	2
566.953	1	5
567.123	1	10
567.293	1	-5
567.463	1	-1
567.633	1	-5
567.803	1	-12
567.973	1	3
568.143	1	-8
568.313	1	-7
568.483	1	-6
568.653	1	-15
568.823	1	9
568.993	1	-9
569.162	1	8
569.332	1	-3
569.502	1	-2
569.672	1	2
569.842	1	7
570.012	1	1
570.182	1	-3
570.352	1	0
570.522	1	8
570.692	1	6
570.862	1	3
571.031	1	2
571.201	1	8
571.371	1	1
571.541	1	-3
571.711	1	10
571.881	1	6
572.051	1	7
572.221	1	5
572.391	1	2
572.561	1	0
572.731	1	0
572.900	1	9
573.070	1	3
573.240	1	-2
573.410	1	1
573.580	1	9
573.750	1	6
573.920	1	-8
574.090	1	2
574.260	1	-6
574.430	1	-7
574.599	1	6
574.769	1	-1
574.939	1	0
575.109	1	7
575.279	1	5
575.449	1	8
575.619	1	-1
575.789	1	21
575.959	1	-6
576.128	1	2
576.298	1	-6
576.468	1	-2
576.638	1	3
576.808	1	-2
576.978	1	6
577.148	1	9
577.318	1	9
577.487	1	4
577.657	1	-13
577.827	1	11
577.997	1	-4
578.167	1	10
578.337	1	7
578.507	1	-3
578.677	1	-3
578.846	1	-2
579.016	1	10
579.186	1	-3
579.356	1	-8
579.526	1	2
579.696	1	4
579.866	1	2
580.036	1	-4
580.205	1	3
580.375	1	-4
580.545	1	-6
580.715	1	14
580.885	1	7
581.055	1	0
581.225	1	-12
581.394	1	-1
581.564	1	-2
581.734	1	15
581.904	1	0
582.074	1	-2
582.244	1	9
582.414	1	10
582.583	1	3
582.753	1	-1
582.923	1	2
583.093	1	-2
583.263	1	-4
583.433	1	0
583.603	1	6
583.772	1	1
583.942	1	8
584.112	1	8
584.282	1	3
584.452	1	9
584.622	1	0
584.791	1	1
584.961	1	5
585.131	1	-7
585.301	1	14
585.471	1	3
585.641	1	9
585.811	1	5
585.980	1	-12
586.150	1	2
586.320	1	-6
586.490	1	6
586.660	1	4
586.830	1	-15
586.999	1	7
587.169	1	1
587.339	1	7
587.509	1	-1
587.679	1	6
587.849	1	6
588.018	1	1
588.188	1	-8
588.358	1	8
588.528	1	9
588.698	1	-1
588.867	1	1
589.037	1	12
589.207	1	-5
589.377	1	8
589.547	1	-3
589.717	1	2
589.886	1	3
590.056	1	8
590.226	1	-8
590.396	1	7
590.566	1	4
590.735	1	13
590.905	1	5
591.075	1	-5
591.245	1	0
591.415	1	1
591.585	1	-7
591.754	1	6
591.924	1	1
592.094	1	1
592.264	1	6
592.434	1	15
592.603	1	-8
592.773	1	2
592.943	1	-3
593.113	1	-5
593.283	1	5
593.452	1	-14
593.622	1	-2
593.792	1	5
593.962	1	5
594.132	1	-3
594.301	1	16
594.471	1	7
594.641	1	-1
594.811	1	-2
594.981	1	-3
595.150	1	0
595.320	1	2
595.490	1	-3
595.660	1	2
595.829	1	-6
595.999	1	6
596.169	1	3
596.339	1	1
596.509	1	4
596.678	1	8
596.848	1	7
597.018	1	2
597.188	1	10
597.358	1	9
597.527	1	-5
597.697	1	0
597.867	1	3
598.037	1	-2
598.206	1	-6
598.376	1	13
598.546	1	-14
598.716	1	-9
598.885	1	1
599.055	1	2
599.225	1	0
599.395	1	6
599.565	1	1
599.734	1	2
599.904	1	-8
600.074	1	7
600.244	1	9
600.413	1	-3
600.583	1	-2
600.753	1	13
600.923	1	19
601.092	1	-10
601.262	1	2
601.432	1	-1
601.602	1	-2
601.771	1	10
601.941	1	-1
602.111	1	-7
602.281	1	11
602.451	1	0
602.620	1	8
602.790	1	4
602.960	1	-6
603.130	1	7
603.299	1	12
603.469	1	-1
603.639	1	12
603.809	1	-1
603.978	1	3
604.148	1	0
604.318	1	7
604.487	1	3
604.657	1	3
604.827	1	-11
604.997	1	-1
605.166	1	-3
605.336	1	-4
605.506	1	4
605.676	1	4
605.845	1	-1
606.015	1	-6
606.185	1	8
606.355	1	6
606.524	1	0
606.694	1	9
606.864	1	-5
607.034	1	1
607.203	1	8
607.373	1	9
607.543	1	1
607.712	1	8
607.882	1	-2
608.052	1	8
608.222	1	0
608.391	1	-4
608.561	1	0
608.731	1	-5
608.901	1	12
609.070	1	7
609.240	1	-3
609.410	1	7
609.579	1	4
609.749	1	-7
609.919	1	-4
610.089	1	-4
610.258	1	8
610.428	1	3
610.598	1	7
610.767	1	3
610.937	1	1
611.107	1	6
611.277	1	16
611.446	1	9
611.616	1	-11
611.786	1	3
611.955	1	12
612.125	1	0
612.295	1	4
612.465	1	3
612.634	1	2
612.804	1	11
612.974	1	3
613.143	1	-1
613.313	1	7
613.483	1	3
613.652	1	-12
613.822	1	2
613.992	1	1
614.162	1	-2
614.331	1	0
614.501	1	8
614.671	1	3
614.840	1	9
615.010	1	7
615.180	1	-5
615.349	1	1
615.519	1	9
615.689	1	7
615.858	1	5
616.028	1	7
616.198	1	22
616.368	1	-3
616.537	1	2
616.707	1	-9
616.877	1	-1
617.046	1	10
617.216	1	5
617.386	1	-6
617.555	1	-4
617.725	1	15
617.895	1	-1
618.064	1	10
618.234	1	7
618.404	1	11
618.573	1	-4
618.743	1	8
618.913	1	-4
619.082	1	0
619.252	1	-2
619.422	1	4
619.591	1	2
619.761	1	6
619.931	1	10
620.100	1	14
620.270	1	-5
620.440	1	4
620.609	1	5
620.779	1	-6
620.949	1	1
621.118	1	7
621.288	1	7
621.458	1	-3
621.627	1	-10
621.797	1	0
621.967	1	-4
622.136	1	5
622.306	1	11
622.476	1	-4
622.645	1	9
622.815	1	4
622.985	1	4
623.154	1	4
623.324	1	9
623.494	1	9
623.663	1	10
623.833	1	4
624.002	1	1
624.172	1	14
624.342	1	-5
624.511	1	6
624.681	1	1
624.851	1	-2
625.020	1	0
625.190	1	8
625.360	1	-2
625.529	1	2
625.699	1	1
625.869	1	4
626.038	1	7
626.208	1	-7
626.377	1	10
626.547	1	11
626.717	1	-6
626.886	1	6
627.056	1	-2
627.226	1	6
627.395	1	0
627.565	1	11
627.735	1	3
627.904	1	7
628.074	1	13
628.243	1	-9
628.413	1	0
628.583	1	2
628.752	1	15
628.922	1	3
629.091	1	7
629.261	1	10
629.431	1	-7
629.600	1	6
629.770	1	7
629.940	1	-1
630.109	1	6
630.279	1	-14
630.448	1	-3
630.618	1	7
630.788	1	4
630.957	1	-15
631.127	1	12
631.297	1	-3
631.466	1	10
631.636	1	-4
631.805	1	11
631.975	1	2
632.145	1	-12
632.314	1	16
632.484	1	-4
632.653	1	-6
632.823	1	6
632.993	1	11
633.162	1	-4
633.332	1	10
633.501	1	10
633.671	1	-4
633.841	1	8
634.010	1	-3
634.180	1	2
634.349	1	13
634.519	1	2
634.689	1	9
634.858	1	11
635.028	1	5
635.197	1	0
635.367	1	3
635.537	1	1
635.706	1	-8
635.876	1	-4
636.045	1	10
636.215	1	5
636.384	1	14
636.554	1	19
636.724	1	1
636.893	1	5
637.063	1	5
637.232	1	-4
637.402	1	9
637.572	1	-3
637.741	1	2
637.911	1	-2
638.080	1	-4
638.250	1	7
638.419	1	3
638.589	1	13
638.759	1	9
638.928	1	0
639.098	1	6
639.267	1	1
639.437	1	-9
639.606	1	16
639.776	1	-1
639.946	1	1
640.115	1	-2
640.285	1	7
640.454	1	7
640.624	1	12
640.793	1	3
640.963	1	-4
641.132	1	13
641.302	1	-7
641.472	1	3
641.641	1	-3
641.811	1	2
641.980	1	3
642.150	1	6
642.319	1	2
642.489	1	-1
642.659	1	-8
642.828	1	1
642.998	1	-13
643.167	1	7
643.337	1	1
643.506	1	-2
643.676	1	-3
643.845	1	9
644.015	1	4
644.184	1	7
644.354	1	4
644.524	1	3
644.693	1	-3
644.863	1	-9
645.032	1	5
645.202	1	0
645.371	1	-4
645.541	1	-8
645.710	1	4
645.880	1	-2
646.049	1	10
646.219	1	5
646.388	1	-4
646.558	1	2
646.728	1	9
646.897	1	-4
647.067	1	8
647.236	1	10
647.406	1	1
647.575	1	9
647.745	1	-5
647.914	1	-8
648.084	1	-10
648.253	1	-1
648.423	1	-2
648.592	1	4
648.762	1	-5
648.931	1	10
649.101	1	1
649.270	1	5
649.440	1	13
649.610	1	7
649.779	1	-5
649.949	1	9
650.118	1	-10
650.288	1	-2
650.457	1	0
650.627	1	-2
650.796	1	4
650.966	1	-6
651.135	1	7
651.305	1	6
651.474	1	13
651.644	1	4
651.813	1	4
651.983	1	5
652.152	1	-6
652.322	1	3
652.491	1	2
652.661	1	-3
652.830	1	7
653.000	1	-5
653.169	1	3
653.339	1	10
653.508	1	2
653.678	1	-1
653.847	1	1
654.017	1	6
654.186	1	0
654.356	1	3
654.525	1	-3
654.695	1	-6
654.864	1	2
655.034	1	4
655.203	1	4
655.373	1	2
655.542	1	4
655.712	1	-4
655.881	1	2
656.051	1	13
656.220	1	6
656.390	1	2
656.559	1	-8
656.729	1	5
656.898	1	-1
657.068	1	5
657.237	1	10
657.406	1	8
657.576	1	-4
657.745	1	-1
657.915	1	4
658.084	1	8
658.254	1	7
658.423	1	-12
658.593	1	-8
658.762	1	-2
658.932	1	2
659.101	1	-7
659.271	1	11
659.440	1	17
659.610	1	2
659.779	1	-9
659.949	1	-8
660.118	1	9
660.288	1	4
660.457	1	-5
660.626	1	1
660.796	1	3
660.965	1	4
661.135	1	-5
661.304	1	1
661.474	1	4
661.643	1	-2
661.813	1	6
661.982	1	7
662.152	1	0
662.321	1	-1
662.491	1	11
662.660	1	4
662.829	1	-11
662.999	1	9
663.168	1	-3
663.338	1	-4
663.507	1	-5
663.677	1	-6
663.846	1	7
664.016	1	-1
664.185	1	6
664.354	1	11
664.524	1	-13
664.693	1	3
664.863	1	2
665.032	1	-10
665.202	1	-1
665.371	1	-3
665.541	1	2
665.710	1	1
665.879	1	-2
666.049	1	0
666.218	1	0
666.388	1	-4
666.557	1	5
666.727	1	-10
666.896	1	-1
667.065	1	12
667.235	1	5
667.404	1	-4
667.574	1	-1
667.743	1	1
667.913	1	-2
668.082	1	0
668.251	1	3
668.421	1	-1
668.590	1	2
668.760	1	8
668.929	1	4
669.099	1	-5
669.268	1	2
669.437	1	1
669.607	1	-6
669.776	1	16
669.946	1	11
670.115	1	6
670.285	1	9
670.454	1	1
670.623	1	4
670.793	1	-2
670.962	1	0
671.132	1	4
671.301	1	-11
671.470	1	-6
671.640	1	-6
671.809	1	-3
671.979	1	12
672.148	1	8
672.317	1	0
672.487	1	5
672.656	1	7
672.826	1	-12
672.995	1	-3
673.164	1	2
673.334	1	7
673.503	1	-1
673.673	1	22
673.842	1	-1
674.011	1	-4
674.181	1	0
674.350	1	1
674.520	1	-5
674.689	1	-2
674.858	1	5
675.028	1	0
675.197	1	-3
675.367	1	10
675.536	1	12
675.705	1	-7
675.875	1	6
676.044	1	5
676.214	1	-3
676.383	1	2
676.552	1	-1
676.722	1	-1
676.891	1	-9
677.060	1	6
677.230	1	10
677.399	1	6
677.569	1	-3
677.738	1	-4
677.907	1	-5
678.077	1	4
678.246	1	-9
678.416	1	2
678.585	1	12
678.754	1	-3
678.924	1	-1
679.093	1	5
679.262	1	-1
679.432	1	1
679.601	1	-5
679.771	1	-2
679.940	1	-4
680.109	1	6
680.279	1	-5
680.448	1	4
680.617	1	-3
680.787	1	4
680.956	1	0
681.125	1	11
681.295	1	10
681.464	1	-1
681.634	1	6
681.803	1	-7
681.972	1	-16
682.142	1	20
682.311	1	3
682.480	1	-4
682.650	1	-3
682.819	1	2
682.988	1	-2
683.158	1	7
683.327	1	1
683.496	1	0
683.666	1	1
683.835	1	2
684.004	1	-1
684.174	1	-3
684.343	1	-12
684.512	1	5
684.682	1	0
684.851	1	6
685.021	1	14
685.190	1	14
685.359	1	-2
685.529	1	2
685.698	1	9
685.867	1	11
686.037	1	-3
686.206	1	0
686.375	1	3
686.545	1	12
686.714	1	5
686.883	1	0
687.053	1	13
687.222	1	-1
687.391	1	0
687.561	1	10
687.730	1	6
687.899	1	11
688.069	1	-3
688.238	1	4
688.407	1	12
688.577	1	-5
688.746	1	9
