340.368	1	3
340.539	1	0
340.710	1	-10
340.881	1	-4
341.052	1	5
341.223	1	10
341.394	1	-9
341.565	1	-7
341.737	1	4
341.908	1	4
342.079	1	0
342.250	1	-5
342.421	1	-6
342.592	1	-11
342.763	1	-3
342.934	1	6
343.105	1	12
343.276	1	-9
343.447	1	3
343.618	1	0
343.789	1	-4
343.960	1	-2
344.131	1	6
344.302	1	2
344.473	1	-5
344.644	1	-6
344.815	1	-1
344.986	1	-7
345.157	1	1
345.328	1	-13
345.499	1	14
345.670	1	16
345.841	1	14
346.012	1	1
346.183	1	-8
346.354	1	-8
346.526	1	4
346.697	1	-5
346.868	1	5
347.039	1	4
347.210	1	-4
347.381	1	10
347.552	1	4
347.723	1	6
347.894	1	-2
348.065	1	-3
348.236	1	1
348.407	1	-8
348.578	1	2
348.749	1	0
348.920	1	4
349.091	1	1
349.262	1	-5
349.433	1	-14
349.604	1	9
349.775	1	2
349.946	1	6
350.117	1	8
350.288	1	-4
350.459	1	8
350.630	1	-9
350.801	1	-2
350.972	1	-1
351.143	1	-14
351.314	1	-4
351.485	1	-2
351.656	1	-2
351.827	1	-2
351.998	1	-1
352.169	1	4
352.340	1	7
352.511	1	-7
352.682	1	-3
352.853	1	-3
353.024	1	-11
353.195	1	5
353.366	1	2
353.537	1	-9
353.708	1	7
353.879	1	6
354.050	1	9
354.221	1	-7
354.392	1	3
354.563	1	6
354.734	1	-1
354.905	1	-2
355.076	1	3
355.247	1	-5
355.418	1	-5
355.589	1	-3
355.760	1	9
355.931	1	-2
356.102	1	-10
356.273	1	0
356.444	1	2
356.615	1	3
356.785	1	4
356.956	1	-3
357.127	1	5
357.298	1	4
357.469	1	-9
357.640	1	8
357.811	1	10
357.982	1	-9
358.153	1	-2
358.324	1	-5
358.495	1	3
358.666	1	-9
358.837	1	7
359.008	1	-12
359.179	1	0
359.350	1	-1
359.521	1	-4
359.692	1	-1
359.863	1	0
360.034	1	-6
360.205	1	-5
360.376	1	3
360.547	1	-5
360.718	1	1
360.889	1	-4
361.060	1	5
361.231	1	1
361.401	1	0
361.572	1	-3
361.743	1	2
361.914	1	-1
362.085	1	-10
362.256	1	4
362.427	1	-7
362.598	1	-3
362.769	1	1
362.940	1	6
363.111	1	10
363.282	1	-6
363.453	1	-5
363.624	1	-2
363.795	1	-1
363.966	1	7
364.137	1	-1
364.308	1	-5
364.478	1	-2
364.649	1	3
364.820	1	-1
364.991	1	0
365.162	1	2
365.333	1	-1
365.504	1	-10
365.675	1	-3
365.846	1	-5
366.017	1	-3
366.188	1	-14
366.359	1	-3
366.530	1	1
366.701	1	-7
366.871	1	6
367.042	1	4
367.213	1	4
367.384	1	2
367.555	1	-4
367.726	1	12
367.897	1	-12
368.068	1	-4
368.239	1	6
368.410	1	5
368.581	1	-1
368.752	1	-1
368.923	1	-11
369.093	1	-1
369.264	1	-4
369.435	1	-7
369.606	1	1
369.777	1	-4
369.948	1	2
370.119	1	-3
370.290	1	-7
370.461	1	-2
370.632	1	3
370.803	1	7
370.973	1	5
371.144	1	8
371.315	1	-2
371.486	1	8
371.657	1	8
371.828	1	-7
371.999	1	-1
372.170	1	10
372.341	1	13
372.512	1	-9
372.682	1	-4
372.853	1	1
373.024	1	2
373.195	1	-3
373.366	1	-9
373.537	1	-2
373.708	1	0
373.879	1	9
374.050	1	2
374.220	1	0
374.391	1	8
374.562	1	-6
374.733	1	2
374.904	1	5
375.075	1	3
375.246	1	0
375.417	1	0
375.588	1	13
375.758	1	-1
375.929	1	-3
376.100	1	13
376.271	1	3
376.442	1	0
376.613	1	-4
376.784	1	4
376.955	1	-10
377.125	1	0
377.296	1	9
377.467	1	-5
377.638	1	-3
377.809	1	10
377.980	1	0
378.151	1	-8
378.321	1	2
378.492	1	-10
378.663	1	-7
378.834	1	-1
379.005	1	10
379.176	1	2
379.347	1	3
379.518	1	-3
379.688	1	-3
379.859	1	-9
380.030	1	-12
380.201	1	-13
380.372	1	1
380.543	1	10
380.714	1	5
380.884	1	-8
381.055	1	-2
381.226	1	7
381.397	1	-4
381.568	1	2
381.739	1	4
381.910	1	7
382.080	1	-4
382.251	1	-5
382.422	1	9
382.593	1	7
382.764	1	-6
382.935	1	2
383.105	1	-2
383.276	1	-5
383.447	1	15
383.618	1	4
383.789	1	-1
383.960	1	-1
384.130	1	-6
384.301	1	0
384.472	1	-9
384.643	1	0
384.814	1	-4
384.985	1	1
385.156	1	9
385.326	1	4
385.497	1	-1
385.668	1	-4
385.839	1	-2
386.010	1	5
386.180	1	-3
386.351	1	-9
386.522	1	8
386.693	1	-3
386.864	1	-9
387.035	1	-8
387.205	1	-8
387.376	1	8
387.547	1	7
387.718	1	1
387.889	1	13
388.060	1	-10
388.230	1	-5
388.401	1	9
388.572	1	-2
388.743	1	2
388.914	1	8
389.084	1	1
389.255	1	1
389.426	1	5
389.597	1	-3
389.768	1	2
389.939	1	10
390.109	1	4
390.280	1	14
390.451	1	6
390.622	1	3
390.793	1	-1
390.963	1	7
391.134	1	4
391.305	1	5
391.476	1	9
391.647	1	-1
391.817	1	5
391.988	1	-7
392.159	1	9
392.330	1	-1
392.501	1	0
392.671	1	-2
392.842	1	7
393.013	1	8
393.184	1	10
393.355	1	8
393.525	1	14
393.696	1	5
393.867	1	-5
394.038	1	-7
394.208	1	2
394.379	1	-11
394.550	1	2
394.721	1	7
394.892	1	2
395.062	1	-9
395.233	1	7
395.404	1	6
395.575	1	-2
395.746	1	0
395.916	1	4
396.087	1	4
396.258	1	-7
396.429	1	6
396.599	1	3
396.770	1	9
396.941	1	15
397.112	1	2
397.283	1	11
397.453	1	-5
397.624	1	3
397.795	1	7
397.966	1	6
398.136	1	8
398.307	1	-1
398.478	1	0
398.649	1	2
398.819	1	10
398.990	1	4
399.161	1	1
399.332	1	16
399.503	1	2
399.673	1	-11
399.844	1	-3
400.015	1	13
400.186	1	12
400.356	1	-15
400.527	1	6
400.698	1	3
400.869	1	13
401.039	1	4
401.210	1	2
401.381	1	-1
401.552	1	7
401.722	1	6
401.893	1	0
402.064	1	-1
402.235	1	-3
402.405	1	-4
402.576	1	7
402.747	1	-3
402.918	1	-8
403.088	1	-11
403.259	1	-15
403.430	1	-1
403.601	1	-9
403.771	1	6
403.942	1	10
404.113	1	10
404.284	1	-2
404.454	1	8
404.625	1	0
404.796	1	0
404.967	1	-3
405.137	1	3
405.308	1	4
405.479	1	2
405.649	1	-1
405.820	1	1
405.991	1	0
406.162	1	-11
406.332	1	1
406.503	1	-6
406.674	1	-2
406.845	1	2
407.015	1	-5
407.186	1	10
407.357	1	3
407.527	1	-5
407.698	1	-10
407.869	1	-3
408.040	1	-9
408.210	1	-9
408.381	1	-6
408.552	1	-7
408.722	1	-9
408.893	1	-4
409.064	1	-10
409.235	1	-1
409.405	1	-7
409.576	1	2
409.747	1	6
409.917	1	0
410.088	1	5
410.259	1	-2
410.430	1	2
410.600	1	7
410.771	1	-1
410.942	1	-1
411.112	1	1
411.283	1	-10
411.454	1	6
411.625	1	1
411.795	1	-1
411.966	1	2
412.137	1	12
412.307	1	-12
412.478	1	-1
412.649	1	4
412.819	1	-3
412.990	1	11
413.161	1	-5
413.332	1	-1
413.502	1	-5
413.673	1	1
413.844	1	4
414.014	1	-6
414.185	1	4
414.356	1	-5
414.526	1	-1
414.697	1	14
414.868	1	0
415.038	1	0
415.209	1	-4
415.380	1	0
415.550	1	-11
415.721	1	-4
415.892	1	5
416.063	1	11
416.233	1	6
416.404	1	4
416.575	1	-3
416.745	1	-6
416.916	1	-6
417.087	1	0
417.257	1	0
417.428	1	-5
417.599	1	2
417.769	1	5
417.940	1	-4
418.111	1	3
418.281	1	9
418.452	1	-7
418.623	1	2
418.793	1	2
418.964	1	3
419.135	1	3
419.305	1	-11
419.476	1	5
419.647	1	5
419.817	1	6
419.988	1	0
420.159	1	-13
420.329	1	5
420.500	1	-4
420.671	1	-4
420.841	1	11
421.012	1	8
421.183	1	5
421.353	1	1
421.524	1	5
421.695	1	0
421.865	1	0
422.036	1	0
422.206	1	-8
422.377	1	7
422.548	1	1
422.718	1	-3
422.889	1	0
423.060	1	5
423.230	1	4
423.401	1	4
423.572	1	3
423.742	1	9
423.913	1	6
424.084	1	-2
424.254	1	-7
424.425	1	-1
424.595	1	-10
424.766	1	7
424.937	1	-7
425.107	1	-1
425.278	1	-10
425.449	1	1
425.619	1	-3
425.790	1	-3
425.961	1	-5
426.131	1	0
426.302	1	-9
426.472	1	-2
426.643	1	-6
426.814	1	10
426.984	1	0
427.155	1	-2
427.326	1	5
427.496	1	9
427.667	1	4
427.837	1	-2
428.008	1	8
428.179	1	-14
428.349	1	-6
428.520	1	-9
428.691	1	1
428.861	1	-4
429.032	1	-13
429.202	1	9
429.373	1	-6
429.544	1	1
429.714	1	10
429.885	1	-4
430.055	1	1
430.226	1	-6
430.397	1	-6
430.567	1	17
430.738	1	0
430.909	1	-11
431.079	1	6
431.250	1	-6
431.420	1	0
431.591	1	5
431.762	1	6
431.932	1	5
432.103	1	-4
432.273	1	-1
432.444	1	8
432.615	1	8
432.785	1	-5
432.956	1	-5
433.126	1	-6
433.297	1	10
433.468	1	0
433.638	1	-7
433.809	1	5
433.979	1	-2
434.150	1	-1
434.320	1	5
434.491	1	-10
434.662	1	1
434.832	1	-9
435.003	1	1
435.173	1	2
435.344	1	5
435.515	1	-4
435.685	1	9
435.856	1	-1
436.026	1	5
436.197	1	-2
436.368	1	-3
436.538	1	13
436.709	1	-6
436.879	1	-4
437.050	1	12
437.220	1	-4
437.391	1	1
437.562	1	9
437.732	1	1
437.903	1	3
438.073	1	1
438.244	1	-10
438.414	1	10
438.585	1	5
438.756	1	2
438.926	1	-2
439.097	1	8
439.267	1	9
439.438	1	4
439.608	1	4
439.779	1	-5
439.949	1	-3
440.120	1	-6
440.291	1	-14
440.461	1	-12
440.632	1	11
440.802	1	4
440.973	1	-4
441.143	1	3
441.314	1	-6
441.485	1	-3
441.655	1	17
441.826	1	-8
441.996	1	-12
442.167	1	-3
442.337	1	-13
442.508	1	4
442.678	1	-2
442.849	1	6
443.019	1	8
443.190	1	-10
443.361	1	5
443.531	1	4
443.702	1	-3
443.872	1	-2
444.043	1	3
444.213	1	-8
444.384	1	0
444.554	1	0
444.725	1	-6
444.895	1	-7
445.066	1	-9
445.237	1	-11
445.407	1	0
445.578	1	13
445.748	1	-2
445.919	1	-2
446.089	1	13
446.260	1	11
446.430	1	-5
446.601	1	-5
446.771	1	-3
446.942	1	7
447.112	1	1
447.283	1	-2
447.453	1	0
447.624	1	14
447.794	1	-7
447.965	1	2
448.135	1	-3
448.306	1	-3
448.477	1	-2
448.647	1	10
448.818	1	3
448.988	1	-12
449.159	1	-8
449.329	1	7
449.500	1	2
449.670	1	4
449.841	1	-2
450.011	1	-1
450.182	1	-3
450.352	1	3
450.523	1	-7
450.693	1	10
450.864	1	-3
451.034	1	2
451.205	1	1
451.375	1	-3
451.546	1	-1
451.716	1	-2
451.887	1	-2
452.057	1	0
452.228	1	-6
452.398	1	5
452.569	1	-1
452.739	1	0
452.910	1	5
453.080	1	12
453.251	1	-1
453.421	1	-1
453.592	1	1
453.762	1	2
453.933	1	1
454.103	1	10
454.274	1	-12
454.444	1	10
454.615	1	6
454.785	1	-3
454.956	1	0
455.126	1	-3
455.297	1	7
455.467	1	-1
455.638	1	2
455.808	1	5
455.979	1	5
456.149	1	-11
456.320	1	-4
456.490	1	2
456.661	1	0
456.831	1	4
457.001	1	8
457.172	1	5
457.342	1	1
457.513	1	4
457.683	1	9
457.854	1	-4
458.024	1	0
458.195	1	-3
458.365	1	1
458.536	1	7
458.706	1	-6
458.877	1	-4
459.047	1	-6
459.218	1	-4
459.388	1	-4
459.559	1	-2
459.729	1	0
459.899	1	7
460.070	1	-2
460.240	1	-1
460.411	1	1
460.581	1	1
460.752	1	-1
460.922	1	0
461.093	1	11
461.263	1	-3
461.434	1	5
461.604	1	-2
461.775	1	-5
461.945	1	1
462.115	1	-12
462.286	1	3
462.456	1	-5
462.627	1	13
462.797	1	-4
462.968	1	-7
463.138	1	4
463.309	1	-5
463.479	1	4
463.649	1	2
463.820	1	6
463.990	1	-7
464.161	1	5
464.331	1	11
464.502	1	2
464.672	1	-1
464.843	1	0
465.013	1	-5
465.183	1	-2
465.354	1	8
465.524	1	8
465.695	1	2
465.865	1	-6
466.036	1	-6
466.206	1	0
466.376	1	-1
466.547	1	-13
466.717	1	-6
466.888	1	-2
467.058	1	1
467.229	1	4
467.399	1	-1
467.569	1	1
467.740	1	6
467.910	1	-3
468.081	1	-6
468.251	1	-8
468.422	1	-6
468.592	1	0
468.762	1	-15
468.933	1	-4
469.103	1	-3
469.274	1	-3
469.444	1	-7
469.614	1	-4
469.785	1	7
469.955	1	0
470.126	1	3
470.296	1	7
470.467	1	-8
470.637	1	12
470.807	1	-10
470.978	1	-1
471.148	1	-3
471.319	1	0
471.489	1	-9
471.659	1	-2
471.830	1	14
472.000	1	5
472.171	1	-5
472.341	1	5
472.511	1	-2
472.682	1	3
472.852	1	-5
473.023	1	-6
473.193	1	-7
473.363	1	-9
473.534	1	5
473.704	1	11
473.875	1	8
474.045	1	-10
474.215	1	-10
474.386	1	4
474.556	1	-11
474.727	1	3
474.897	1	-2
475.067	1	3
475.238	1	12
475.408	1	-5
475.578	1	1
475.749	1	-7
475.919	1	-2
476.090	1	-1
476.260	1	-1
476.430	1	2
476.601	1	-1
476.771	1	1
476.942	1	-4
477.112	1	-3
477.282	1	-10
477.453	1	0
477.623	1	4
477.793	1	3
477.964	1	7
478.134	1	7
478.305	1	0
478.475	1	-12
478.645	1	1
478.816	1	-9
478.986	1	-2
479.156	1	4
479.327	1	-7
479.497	1	-9
479.667	1	11
479.838	1	2
480.008	1	6
480.179	1	5
480.349	1	-1
480.519	1	-1
480.690	1	-3
480.860	1	-5
481.030	1	-10
481.201	1	0
481.371	1	-6
481.541	1	5
481.712	1	-2
481.882	1	5
482.053	1	11
482.223	1	2
482.393	1	-6
482.564	1	-3
482.734	1	2
482.904	1	1
483.075	1	2
483.245	1	-9
483.415	1	3
483.586	1	-1
483.756	1	15
483.926	1	7
484.097	1	-10
484.267	1	4
484.437	1	-8
484.608	1	0
484.778	1	11
484.948	1	-7
485.119	1	1
485.289	1	14
485.459	1	-2
485.630	1	-11
485.800	1	-3
485.970	1	13
486.141	1	-7
486.311	1	-8
486.481	1	4
486.652	1	-3
486.822	1	5
486.992	1	-7
487.163	1	-18
487.333	1	11
487.503	1	-16
487.674	1	-1
487.844	1	2
488.014	1	4
488.185	1	-10
488.355	1	-11
488.525	1	2
488.696	1	-10
488.866	1	1
489.036	1	7
489.207	1	2
489.377	1	3
489.547	1	0
489.718	1	-5
489.888	1	1
490.058	1	-1
490.228	1	-19
490.399	1	10
490.569	1	5
490.739	1	11
490.910	1	-7
491.080	1	-6
491.250	1	-1
491.421	1	0
491.591	1	-5
491.761	1	-3
491.932	1	7
492.102	1	-17
492.272	1	9
492.442	1	6
492.613	1	0
492.783	1	-7
492.953	1	3
493.124	1	5
493.294	1	-6
493.464	1	-11
493.635	1	0
493.805	1	17
493.975	1	3
494.145	1	3
494.316	1	5
494.486	1	5
494.656	1	-7
494.827	1	-7
494.997	1	1
495.167	1	6
495.337	1	3
495.508	1	1
495.678	1	14
495.848	1	-2
496.019	1	-6
496.189	1	-3
496.359	1	-2
496.529	1	-4
496.700	1	-3
496.870	1	-10
497.040	1	2
497.211	1	7
497.381	1	-17
497.551	1	12
497.721	1	-4
497.892	1	2
498.062	1	8
498.232	1	-3
498.403	1	11
498.573	1	0
498.743	1	-1
498.913	1	1
499.084	1	0
499.254	1	-4
499.424	1	6
499.594	1	2
499.765	1	2
499.935	1	-5
500.105	1	8
500.275	1	13
500.446	1	5
500.616	1	-6
500.786	1	-1
500.956	1	2
501.127	1	9
501.297	1	1
501.467	1	1
501.638	1	2
501.808	1	-18
501.978	1	-3
502.148	1	6
502.319	1	-2
502.489	1	11
502.659	1	-3
502.829	1	6
503.000	1	5
503.170	1	4
503.340	1	0
503.510	1	-3
503.681	1	12
503.851	1	-11
504.021	1	13
504.191	1	-2
504.362	1	9
504.532	1	-11
504.702	1	6
504.872	1	-1
505.042	1	7
505.213	1	1
505.383	1	0
505.553	1	3
505.723	1	-1
505.894	1	5
506.064	1	5
506.234	1	10
506.404	1	-7
506.575	1	-8
506.745	1	-5
506.915	1	-2
507.085	1	-1
507.256	1	-13
507.426	1	6
507.596	1	3
507.766	1	1
507.936	1	11
508.107	1	-7
508.277	1	-2
508.447	1	0
508.617	1	3
508.788	1	-7
508.958	1	7
509.128	1	-1
509.298	1	19
509.468	1	0
509.639	1	1
509.809	1	-2
509.979	1	2
510.149	1	-2
510.319	1	-3
510.490	1	6
510.660	1	-1
510.830	1	-4
511.000	1	4
511.171	1	7
511.341	1	-4
511.511	1	-2
511.681	1	-7
511.851	1	-10
512.022	1	0
512.192	1	4
512.362	1	-3
512.532	1	-3
512.702	1	-11
512.873	1	10
513.043	1	2
513.213	1	-5
513.383	1	-18
513.553	1	-5
513.724	1	1
513.894	1	-7
514.064	1	2
514.234	1	-4
514.404	1	0
514.575	1	5
514.745	1	0
514.915	1	4
515.085	1	0
515.255	1	-5
515.425	1	1
515.596	1	-3
515.766	1	0
515.936	1	4
516.106	1	-8
516.276	1	7
516.447	1	1
516.617	1	2
516.787	1	-5
516.957	1	0
517.127	1	11
517.297	1	-6
517.468	1	-3
517.638	1	3
517.808	1	1
517.978	1	-11
518.148	1	-9
518.319	1	3
518.489	1	1
518.659	1	-1
518.829	1	-7
518.999	1	-11
519.169	1	8
519.340	1	-2
519.510	1	-1
519.680	1	3
519.850	1	-3
520.020	1	-8
520.190	1	-1
520.361	1	-7
520.531	1	9
520.701	1	7
520.871	1	-3
521.041	1	-2
521.211	1	3
521.382	1	1
521.552	1	5
521.722	1	4
521.892	1	-6
522.062	1	-7
522.232	1	-16
522.402	1	-9
522.573	1	-2
522.743	1	5
522.913	1	-4
523.083	1	-2
523.253	1	3
523.423	1	5
523.593	1	-12
523.764	1	10
523.934	1	6
524.104	1	-5
524.274	1	-9
524.444	1	0
524.614	1	3
524.784	1	0
524.955	1	-6
525.125	1	7
525.295	1	-8
525.465	1	-2
525.635	1	9
525.805	1	-2
525.975	1	-13
526.146	1	-5
526.316	1	-8
526.486	1	2
526.656	1	13
526.826	1	2
526.996	1	7
527.166	1	-10
527.337	1	-1
527.507	1	-7
527.677	1	12
527.847	1	-11
528.017	1	-1
528.187	1	9
528.357	1	5
528.527	1	9
528.698	1	0
528.868	1	-5
529.038	1	9
529.208	1	-6
529.378	1	-1
529.548	1	9
529.718	1	-1
529.888	1	6
530.058	1	2
530.229	1	10
530.399	1	7
530.569	1	3
530.739	1	-1
530.909	1	-8
531.079	1	8
531.249	1	-7
531.419	1	6
531.589	1	-5
531.760	1	6
531.930	1	4
532.100	1	7
532.270	1	11
532.440	1	-2
532.610	1	2
532.780	1	1
532.950	1	5
533.120	1	-10
533.290	1	3
533.461	1	7
533.631	1	-8
533.801	1	7
533.971	1	-1
534.141	1	4
534.311	1	3
534.481	1	-6
534.651	1	-2
534.821	1	7
534.991	1	-1
535.162	1	6
535.332	1	1
535.502	1	4
535.672	1	-12
535.842	1	0
536.012	1	1
536.182	1	-1
536.352	1	-8
536.522	1	9
536.692	1	-14
536.862	1	1
537.032	1	1
537.203	1	5
537.373	1	-3
537.543	1	2
537.713	1	9
537.883	1	16
538.053	1	6
538.223	1	13
538.393	1	5
538.563	1	1
538.733	1	-8
538.903	1	-2
539.073	1	-9
539.243	1	-5
539.413	1	-2
539.584	1	4
539.754	1	-11
539.924	1	2
540.094	1	8
540.264	1	8
540.434	1	-11
540.604	1	7
540.774	1	1
540.944	1	1
541.114	1	-5
541.284	1	1
541.454	1	0
541.624	1	3
541.794	1	-5
541.964	1	0
542.134	1	-3
542.305	1	-20
542.475	1	-7
542.645	1	-4
542.815	1	7
542.985	1	-10
543.155	1	-2
543.325	1	-4
543.495	1	1
543.665	1	5
543.835	1	-9
544.005	1	1
544.175	1	-4
544.345	1	-16
544.515	1	-2
544.685	1	-2
544.855	1	10
545.025	1	-9
545.195	1	7
545.365	1	2
545.535	1	-1
545.705	1	2
545.875	1	-10
546.045	1	16
546.216	1	2
546.386	1	3
546.556	1	-9
546.726	1	-2
546.896	1	0
547.066	1	-8
547.236	1	-19
547.406	1	12
547.576	1	-5
547.746	1	8
547.916	1	-3
548.086	1	-2
548.256	1	-4
548.426	1	-6
548.596	1	5
548.766	1	4
548.936	1	-15
549.106	1	7
549.276	1	4
549.446	1	0
549.616	1	15
549.786	1	0
549.956	1	1
550.126	1	0
550.296	1	-5
550.466	1	3
550.636	1	4
550.806	1	1
550.976	1	0
551.146	1	-2
551.316	1	-6
551.486	1	-4
551.656	1	-6
551.826	1	-2
551.996	1	9
552.166	1	5
552.336	1	2
552.506	1	3
552.676	1	-2
552.846	1	-3
553.016	1	-3
553.186	1	-11
553.356	1	-9
553.526	1	-10
553.696	1	11
553.866	1	5
554.036	1	-6
554.206	1	-1
554.376	1	-5
554.546	1	-13
554.716	1	-2
554.886	1	-7
555.056	1	-6
555.226	1	-5
555.396	1	-2
555.566	1	4
555.736	1	0
555.906	1	-4
556.076	1	6
556.246	1	-9
556.416	1	0
556.586	1	6
556.756	1	1
556.926	1	2
557.096	1	0
557.266	1	6
557.436	1	2
557.606	1	-8
557.776	1	-2
557.946	1	3
558.116	1	-1
558.286	1	6
558.456	1	-7
558.626	1	10
558.796	1	7
558.966	1	0
559.136	1	-3
559.306	1	-3
559.476	1	-5
559.646	1	0
559.816	1	10
559.986	1	-8
560.155	1	-6
560.325	1	-12
560.495	1	-7
560.665	1	1
560.835	1	7
561.005	1	6
561.175	1	-10
561.345	1	-5
561.515	1	-12
561.685	1	-6
561.855	1	8
562.025	1	-5
562.195	1	3
562.365	1	5
562.535	1	-9
562.705	1	7
562.875	1	0
563.045	1	-5
563.215	1	-8
563.385	1	-4
563.555	1	7
563.725	1	-5
563.895	1	-6
564.064	1	9
564.234	1	5
564.404	1	0
564.574	1	-1
564.744	1	5
564.914	1	-4
565.084	1	-6
565.254	1	-5
565.424	1	-7
565.594	1	-3
565.764	1	8
565.934	1	8
566.104	1	0
566.274	1	1
566.444	1	2
566.614	1	-2
566.783	1	-4
566.953	1	-3
567.123	1	12
567.293	1	-2
567.463	1	-6
567.633	1	-4
567.803	1	-8
567.973	1	-5
568.143	1	-10
568.313	1	-9
568.483	1	-7
568.653	1	-8
568.823	1	0
568.993	1	-5
569.162	1	4
569.332	1	1
569.502	1	-4
569.672	1	0
569.842	1	-6
570.012	1	3
570.182	1	-7
570.352	1	7
570.522	1	5
570.692	1	4
570.862	1	8
571.031	1	-5
571.201	1	5
571.371	1	-5
571.541	1	-12
571.711	1	3
571.881	1	8
572.051	1	-5
572.221	1	-3
572.391	1	3
572.561	1	-9
572.731	1	-6
572.900	1	6
573.070	1	5
573.240	1	-8
573.410	1	-4
573.580	1	-3
573.750	1	7
573.920	1	-3
574.090	1	4
574.260	1	8
574.430	1	-15
574.599	1	0
574.769	1	-4
574.939	1	-8
575.109	1	-5
575.279	1	0
575.449	1	10
575.619	1	6
575.789	1	0
575.959	1	-10
576.128	1	-4
576.298	1	-3
576.468	1	-6
576.638	1	-1
576.808	1	-5
576.978	1	0
577.148	1	-3
577.318	1	4
577.487	1	2
577.657	1	-8
577.827	1	-2
577.997	1	-9
578.167	1	8
578.337	1	-5
578.507	1	1
578.677	1	-6
578.846	1	-3
579.016	1	14
579.186	1	-4
579.356	1	-10
579.526	1	1
579.696	1	5
579.866	1	7
580.036	1	1
580.205	1	8
580.375	1	-4
580.545	1	-2
580.715	1	6
580.885	1	-6
581.055	1	-3
581.225	1	-6
581.394	1	-7
581.564	1	-5
581.734	1	8
581.904	1	4
582.074	1	-4
582.244	1	9
582.414	1	2
582.583	1	-18
582.753	1	1
582.923	1	-12
583.093	1	-9
583.263	1	3
583.433	1	-8
583.603	1	-3
583.772	1	-1
583.942	1	5
584.112	1	3
584.282	1	-2
584.452	1	-6
584.622	1	3
584.791	1	2
584.961	1	2
585.131	1	-10
585.301	1	6
585.471	1	2
585.641	1	1
585.811	1	-13
585.980	1	-4
586.150	1	-4
586.320	1	-5
586.490	1	0
586.660	1	5
586.830	1	3
586.999	1	-3
587.169	1	-6
587.339	1	-1
587.509	1	-4
587.679	1	0
587.849	1	4
588.018	1	-3
588.188	1	2
588.358	1	2
588.528	1	10
588.698	1	3
588.867	1	-6
589.037	1	0
589.207	1	-6
589.377	1	3
589.547	1	1
589.717	1	6
589.886	1	-8
590.056	1	1
590.226	1	-2
590.396	1	-1
590.566	1	-5
590.735	1	13
590.905	1	4
591.075	1	-11
591.245	1	-12
591.415	1	-1
591.585	1	-9
591.754	1	-4
591.924	1	-3
592.094	1	1
592.264	1	-5
592.434	1	-2
592.603	1	-8
592.773	1	1
592.943	1	-9
593.113	1	-12
593.283	1	1
593.452	1	-15
593.622	1	-6
593.792	1	-6
593.962	1	7
594.132	1	-8
594.301	1	7
594.471	1	15
594.641	1	-3
594.811	1	-4
594.981	1	-7
595.150	1	7
595.320	1	0
595.490	1	-5
595.660	1	-5
595.829	1	-3
595.999	1	5
596.169	1	-4
596.339	1	2
596.509	1	10
596.678	1	2
596.848	1	8
597.018	1	5
597.188	1	10
597.358	1	6
597.527	1	-3
597.697	1	-2
597.867	1	-1
598.037	1	0
598.206	1	0
598.376	1	5
598.546	1	-9
598.716	1	-5
598.885	1	-2
599.055	1	-1
599.225	1	3
599.395	1	3
599.565	1	1
599.734	1	-2
599.904	1	-5
600.074	1	-3
600.244	1	3
600.413	1	-2
600.583	1	-8
600.753	1	6
600.923	1	3
601.092	1	-8
601.262	1	5
601.432	1	-2
601.602	1	0
601.771	1	5
601.941	1	-5
602.111	1	-3
602.281	1	-7
602.451	1	-3
602.620	1	6
602.790	1	-4
602.960	1	-5
603.130	1	6
603.299	1	2
603.469	1	-15
603.639	1	5
603.809	1	-3
603.978	1	-3
604.148	1	-6
604.318	1	7
604.487	1	4
604.657	1	2
604.827	1	-11
604.997	1	12
605.166	1	-4
605.336	1	-10
605.506	1	-6
605.676	1	-4
605.845	1	3
606.015	1	4
606.185	1	12
606.355	1	11
606.524	1	-4
606.694	1	6
606.864	1	-3
607.034	1	-10
607.203	1	5
607.373	1	-2
607.543	1	-2
607.712	1	5
607.882	1	-11
608.052	1	2
608.222	1	-2
608.391	1	0
608.561	1	5
608.731	1	-8
608.901	1	8
609.070	1	-6
609.240	1	-4
609.410	1	5
609.579	1	0
609.749	1	0
609.919	1	2
610.089	1	-6
610.258	1	6
610.428	1	-7
610.598	1	4
610.767	1	-7
610.937	1	-2
611.107	1	15
611.277	1	-1
611.446	1	-10
611.616	1	-5
611.786	1	12
611.955	1	3
612.125	1	1
612.295	1	2
612.465	1	-1
612.634	1	-4
612.804	1	3
612.974	1	0
613.143	1	2
613.313	1	-3
613.483	1	3
613.652	1	-2
613.822	1	2
613.992	1	-6
614.162	1	-3
614.331	1	-2
614.501	1	-4
614.671	1	4
614.840	1	4
615.010	1	-2
615.180	1	4
615.349	1	10
615.519	1	4
615.689	1	3
615.858	1	4
616.028	1	-3
616.198	1	11
616.368	1	-11
616.537	1	-2
616.707	1	-1
616.877	1	-1
617.046	1	3
617.216	1	3
617.386	1	1
617.555	1	-18
617.725	1	8
617.895	1	-2
618.064	1	6
618.234	1	-2
618.404	1	18
618.573	1	-4
618.743	1	1
618.913	1	-2
619.082	1	-8
619.252	1	8
619.422	1	-5
619.591	1	-8
619.761	1	-2
619.931	1	5
620.100	1	-1
620.270	1	-6
620.440	1	4
620.609	1	0
620.779	1	-2
620.949	1	-1
621.118	1	-2
621.288	1	8
621.458	1	2
621.627	1	-8
621.797	1	0
621.967	1	-1
622.136	1	-4
622.306	1	4
622.476	1	5
622.645	1	4
622.815	1	-6
622.985	1	5
623.154	1	-2
623.324	1	1
623.494	1	6
623.663	1	-4
623.833	1	0
624.002	1	8
624.172	1	5
624.342	1	-3
624.511	1	-6
624.681	1	-4
624.851	1	-11
625.020	1	-5
625.190	1	-2
625.360	1	0
625.529	1	10
625.699	1	-3
625.869	1	11
626.038	1	1
626.208	1	-3
626.377	1	16
626.547	1	8
626.717	1	-10
626.886	1	-3
627.056	1	-9
627.226	1	-3
627.395	1	1
627.565	1	7
627.735	1	0
627.904	1	7
628.074	1	7
628.243	1	-13
628.413	1	-3
628.583	1	-7
628.752	1	14
628.922	1	-8
629.091	1	4
629.261	1	-4
629.431	1	-6
629.600	1	5
629.770	1	2
629.940	1	8
630.109	1	-7
630.279	1	-5
630.448	1	-5
630.618	1	1
630.788	1	7
630.957	1	-2
631.127	1	14
631.297	1	-4
631.466	1	9
631.636	1	-2
631.805	1	-3
631.975	1	7
632.145	1	-16
632.314	1	4
632.484	1	-5
632.653	1	-11
632.823	1	5
632.993	1	6
633.162	1	-2
633.332	1	5
633.501	1	-1
633.671	1	7
633.841	1	-3
634.010	1	2
634.180	1	2
634.349	1	4
634.519	1	6
634.689	1	7
634.858	1	2
635.028	1	-2
635.197	1	0
635.367	1	4
635.537	1	-3
635.706	1	-13
635.876	1	-2
636.045	1	0
636.215	1	-8
636.384	1	4
636.554	1	9
636.724	1	-3
636.893	1	3
637.063	1	3
637.232	1	-1
637.402	1	12
637.572	1	-9
637.741	1	8
637.911	1	-1
638.080	1	2
638.250	1	-2
638.419	1	3
638.589	1	7
638.759	1	-1
638.928	1	1
639.098	1	-4
639.267	1	-6
639.437	1	-7
639.606	1	3
639.776	1	-4
639.946	1	1
640.115	1	-7
640.285	1	-2
640.454	1	14
640.624	1	2
640.793	1	-1
640.963	1	-3
641.132	1	6
641.302	1	2
641.472	1	-6
641.641	1	-4
641.811	1	0
641.980	1	-1
642.150	1	-7
642.319	1	-4
642.489	1	0
642.659	1	-12
642.828	1	-9
642.998	1	0
643.167	1	15
643.337	1	3
643.506	1	-5
643.676	1	-6
643.845	1	-9
644.015	1	-3
644.184	1	4
644.354	1	-5
644.524	1	-11
644.693	1	-2
644.863	1	-12
645.032	1	3
645.202	1	1
645.371	1	-4
645.541	1	-6
645.710	1	2
645.880	1	-4
646.049	1	13
646.219	1	-1
646.388	1	-6
646.558	1	-1
646.728	1	5
646.897	1	-7
647.067	1	0
647.236	1	0
647.406	1	-4
647.575	1	-9
647.745	1	-1
647.914	1	-2
648.084	1	-8
648.253	1	4
648.423	1	-1
648.592	1	-3
648.762	1	4
648.931	1	5
649.101	1	3
649.270	1	5
649.440	1	0
649.610	1	12
649.779	1	-4
649.949	1	-2
650.118	1	-7
650.288	1	1
650.457	1	-2
650.627	1	3
650.796	1	-1
650.966	1	-2
651.135	1	3
651.305	1	-9
651.474	1	15
651.644	1	3
651.813	1	5
651.983	1	-3
652.152	1	2
652.322	1	0
652.491	1	4
652.661	1	-1
652.830	1	16
653.000	1	-3
653.169	1	3
653.339	1	3
653.508	1	-4
653.678	1	-4
653.847	1	-5
654.017	1	-2
654.186	1	-4
654.356	1	7
654.525	1	-2
654.695	1	-4
654.864	1	6
655.034	1	-6
655.203	1	6
655.373	1	-1
655.542	1	1
655.712	1	-6
655.881	1	-4
656.051	1	0
656.220	1	1
656.390	1	-5
656.559	1	-4
656.729	1	-2
656.898	1	1
657.068	1	-3
657.237	1	0
657.406	1	2
657.576	1	-11
657.745	1	-3
657.915	1	0
658.084	1	6
658.254	1	0
658.423	1	-2
658.593	1	-18
658.762	1	-5
658.932	1	-2
659.101	1	0
659.271	1	-8
659.440	1	5
659.610	1	7
659.779	1	-3
659.949	1	-11
660.118	1	10
660.288	1	-9
660.457	1	-6
660.626	1	-2
660.796	1	-6
660.965	1	6
661.135	1	9
661.304	1	1
661.474	1	3
661.643	1	-13
661.813	1	-7
661.982	1	-4
662.152	1	-4
662.321	1	2
662.491	1	-6
662.660	1	2
662.829	1	-7
662.999	1	4
663.168	1	2
663.338	1	-3
663.507	1	1
663.677	1	-10
663.846	1	2
664.016	1	0
664.185	1	-14
664.354	1	3
664.524	1	-9
664.693	1	7
664.863	1	0
665.032	1	3
665.202	1	-7
665.371	1	9
665.541	1	-5
665.710	1	-9
665.879	1	-3
666.049	1	-6
666.218	1	-3
666.388	1	-10
666.557	1	6
666.727	1	-10
666.896	1	-5
667.065	1	8
667.235	1	2
667.404	1	-12
667.574	1	0
667.743	1	1
667.913	1	-4
668.082	1	-2
668.251	1	-3
668.421	1	10
668.590	1	-11
668.760	1	-3
668.929	1	2
669.099	1	-11
669.268	1	-4
669.437	1	-6
669.607	1	-1
669.776	1	-5
669.946	1	2
670.115	1	4
670.285	1	15
670.454	1	-7
670.623	1	6
670.793	1	-5
670.962	1	-1
671.132	1	4
671.301	1	-2
671.470	1	5
671.640	1	-18
671.809	1	-4
671.979	1	13
672.148	1	9
672.317	1	-15
672.487	1	-6
672.656	1	7
672.826	1	-8
672.995	1	-4
673.164	1	8
673.334	1	10
673.503	1	0
673.673	1	6
673.842	1	0
674.011	1	5
674.181	1	-7
674.350	1	-5
674.520	1	-5
674.689	1	-4
674.858	1	-2
675.028	1	4
675.197	1	-6
675.367	1	-4
675.536	1	2
675.705	1	-10
675.875	1	2
676.044	1	-9
676.214	1	-7
676.383	1	-3
676.552	1	-5
676.722	1	0
676.891	1	-12
677.060	1	2
677.230	1	13
677.399	1	4
677.569	1	-2
677.738	1	-14
677.907	1	-13
678.077	1	7
678.246	1	-4
678.416	1	1
678.585	1	5
678.754	1	5
678.924	1	-17
679.093	1	0
679.262	1	-1
679.432	1	-11
679.601	1	-11
679.771	1	-6
679.940	1	2
680.109	1	2
680.279	1	-12
680.448	1	2
680.617	1	-8
680.787	1	0
680.956	1	-7
681.125	1	-1
681.295	1	8
681.464	1	-2
681.634	1	1
681.803	1	-7
681.972	1	-3
682.142	1	13
682.311	1	2
682.480	1	-9
682.650	1	1
682.819	1	4
682.988	1	-1
683.158	1	-9
683.327	1	7
683.496	1	-4
683.666	1	-1
683.835	1	-1
684.004	1	-1
684.174	1	-5
684.343	1	-4
684.512	1	-4
684.682	1	1
684.851	1	3
685.021	1	0
685.190	1	6
685.359	1	-6
685.529	1	-3
685.698	1	3
685.867	1	3
686.037	1	3
686.206	1	8
686.375	1	1
686.545	1	7
686.714	1	1
686.883	1	-8
687.053	1	-6
687.222	1	-14
687.391	1	-9
687.561	1	4
687.730	1	-8
687.899	1	-6
688.069	1	-1
688.238	1	-4
688.407	1	1
688.577	1	0
688.746	1	-3
