340.368	1	2
340.539	1	-5
340.710	1	-11
340.881	1	4
341.052	1	-12
341.223	1	8
341.394	1	-2
341.565	1	-2
341.737	1	3
341.908	1	3
342.079	1	-1
342.250	1	4
342.421	1	-4
342.592	1	-12
342.763	1	-1
342.934	1	3
343.105	1	14
343.276	1	-5
343.447	1	5
343.618	1	5
343.789	1	-2
343.960	1	-6
344.131	1	-6
344.302	1	-1
344.473	1	-5
344.644	1	-2
344.815	1	5
344.986	1	12
345.157	1	6
345.328	1	-4
345.499	1	9
345.670	1	1
345.841	1	4
346.012	1	4
346.183	1	-8
346.354	1	2
346.526	1	9
346.697	1	-7
346.868	1	-4
347.039	1	-1
347.210	1	2
347.381	1	-10
347.552	1	5
347.723	1	6
347.894	1	-2
348.065	1	3
348.236	1	10
348.407	1	3
348.578	1	3
348.749	1	6
348.920	1	10
349.091	1	6
349.262	1	-2
349.433	1	-7
349.604	1	6
349.775	1	11
349.946	1	8
350.117	1	7
350.288	1	2
350.459	1	4
350.630	1	-4
350.801	1	5
350.972	1	-2
351.143	1	-9
351.314	1	0
351.485	1	-5
351.656	1	6
351.827	1	-5
351.998	1	0
352.169	1	5
352.340	1	-3
352.511	1	-3
352.682	1	-13
352.853	1	-10
353.024	1	1
353.195	1	-7
353.366	1	3
353.537	1	-2
353.708	1	7
353.879	1	7
354.050	1	5
354.221	1	-4
354.392	1	1
354.563	1	8
354.734	1	-2
354.905	1	9
355.076	1	0
355.247	1	-3
355.418	1	-3
355.589	1	2
355.760	1	5
355.931	1	3
356.102	1	-3
356.273	1	-1
356.444	1	-3
356.615	1	-2
356.785	1	3
356.956	1	0
357.127	1	1
357.298	1	1
357.469	1	5
357.640	1	-1
357.811	1	17
357.982	1	-9
358.153	1	4
358.324	1	-3
358.495	1	11
358.666	1	2
358.837	1	1
359.008	1	0
359.179	1	13
359.350	1	-10
359.521	1	2
359.692	1	3
359.863	1	-18
360.034	1	2
360.205	1	-4
360.376	1	3
360.547	1	5
360.718	1	-2
360.889	1	-4
361.060	1	0
361.231	1	9
361.401	1	3
361.572	1	-6
361.743	1	-2
361.914	1	-7
362.085	1	-5
362.256	1	6
362.427	1	9
362.598	1	3
362.769	1	4
362.940	1	-5
363.111	1	10
363.282	1	-5
363.453	1	1
363.624	1	-2
363.795	1	2
363.966	1	-4
364.137	1	-12
364.308	1	-6
364.478	1	11
364.649	1	0
364.820	1	0
364.991	1	6
365.162	1	-8
365.333	1	8
365.504	1	-9
365.675	1	4
365.846	1	0
366.017	1	11
366.188	1	-5
366.359	1	-5
366.530	1	5
366.701	1	-12
366.871	1	7
367.042	1	15
367.213	1	-5
367.384	1	3
367.555	1	2
367.726	1	19
367.897	1	7
368.068	1	-2
368.239	1	5
368.410	1	-3
368.581	1	7
368.752	1	-16
368.923	1	-7
369.093	1	0
369.264	1	-3
369.435	1	9
369.606	1	1
369.777	1	0
369.948	1	-1
370.119	1	-8
370.290	1	-3
370.461	1	2
370.632	1	7
370.803	1	-7
370.973	1	13
371.144	1	13
371.315	1	3
371.486	1	9
371.657	1	-1
371.828	1	10
371.999	1	-3
372.170	1	1
372.341	1	1
372.512	1	-1
372.682	1	-2
372.853	1	-2
373.024	1	-1
373.195	1	-3
373.366	1	-5
373.537	1	0
373.708	1	8
373.879	1	6
374.050	1	8
374.220	1	-1
374.391	1	-9
374.562	1	-3
374.733	1	13
374.904	1	0
375.075	1	1
375.246	1	8
375.417	1	3
375.588	1	-4
375.758	1	-2
375.929	1	14
376.100	1	4
376.271	1	-3
376.442	1	-7
376.613	1	2
376.784	1	4
376.955	1	-2
377.125	1	9
377.296	1	3
377.467	1	2
377.638	1	-5
377.809	1	14
377.980	1	5
378.151	1	-8
378.321	1	8
378.492	1	-5
378.663	1	-10
378.834	1	1
379.005	1	7
379.176	1	-4
379.347	1	10
379.518	1	-14
379.688	1	-4
379.859	1	-2
380.030	1	-7
380.201	1	-8
380.372	1	-3
380.543	1	-6
380.714	1	6
380.884	1	-10
381.055	1	0
381.226	1	3
381.397	1	-2
381.568	1	-1
381.739	1	6
381.910	1	6
382.080	1	-10
382.251	1	-5
382.422	1	16
382.593	1	-5
382.764	1	4
382.935	1	4
383.105	1	5
383.276	1	-1
383.447	1	5
383.618	1	11
383.789	1	9
383.960	1	-4
384.130	1	-6
384.301	1	0
384.472	1	-7
384.643	1	9
384.814	1	5
384.985	1	1
385.156	1	15
385.326	1	9
385.497	1	12
385.668	1	-1
385.839	1	0
386.010	1	5
386.180	1	9
386.351	1	0
386.522	1	10
386.693	1	-3
386.864	1	-3
387.035	1	-3
387.205	1	-4
387.376	1	17
387.547	1	3
387.718	1	5
387.889	1	10
388.060	1	-3
388.230	1	5
388.401	1	7
388.572	1	-9
388.743	1	5
388.914	1	0
389.084	1	6
389.255	1	6
389.426	1	4
389.597	1	-5
389.768	1	6
389.939	1	4
390.109	1	4
390.280	1	12
390.451	1	5
390.622	1	-2
390.793	1	2
390.963	1	5
391.134	1	6
391.305	1	7
391.476	1	10
391.647	1	1
391.817	1	5
391.988	1	5
392.159	1	8
392.330	1	6
392.501	1	2
392.671	1	13
392.842	1	15
393.013	1	6
393.184	1	12
393.355	1	10
393.525	1	-1
393.696	1	3
393.867	1	-5
394.038	1	-10
394.208	1	12
394.379	1	-1
394.550	1	-1
394.721	1	8
394.892	1	5
395.062	1	-11
395.233	1	12
395.404	1	8
395.575	1	-7
395.746	1	-4
395.916	1	2
396.087	1	-5
396.258	1	-3
396.429	1	8
396.599	1	1
396.770	1	2
396.941	1	13
397.112	1	-10
397.283	1	4
397.453	1	-5
397.624	1	5
397.795	1	3
397.966	1	5
398.136	1	9
398.307	1	-7
398.478	1	5
398.649	1	9
398.819	1	4
398.990	1	2
399.161	1	6
399.332	1	8
399.503	1	2
399.673	1	4
399.844	1	1
400.015	1	16
400.186	1	5
400.356	1	1
400.527	1	2
400.698	1	1
400.869	1	13
401.039	1	-3
401.210	1	-8
401.381	1	1
401.552	1	7
401.722	1	21
401.893	1	2
402.064	1	7
402.235	1	6
402.405	1	2
402.576	1	8
402.747	1	-7
402.918	1	-6
403.088	1	-4
403.259	1	-3
403.430	1	-4
403.601	1	0
403.771	1	3
403.942	1	9
404.113	1	20
404.284	1	1
404.454	1	11
404.625	1	2
404.796	1	3
404.967	1	2
405.137	1	-6
405.308	1	5
405.479	1	3
405.649	1	-1
405.820	1	7
405.991	1	9
406.162	1	-8
406.332	1	-6
406.503	1	1
406.674	1	-3
406.845	1	-5
407.015	1	-13
407.186	1	14
407.357	1	3
407.527	1	-4
407.698	1	-2
407.869	1	-9
408.040	1	-4
408.210	1	-8
408.381	1	4
408.552	1	2
408.722	1	-5
408.893	1	1
409.064	1	-5
409.235	1	-3
409.405	1	0
409.576	1	-1
409.747	1	-3
409.917	1	1
410.088	1	4
410.259	1	-3
410.430	1	6
410.600	1	4
410.771	1	3
410.942	1	-5
411.112	1	8
411.283	1	0
411.454	1	13
411.625	1	2
411.795	1	5
411.966	1	11
412.137	1	3
412.307	1	1
412.478	1	8
412.649	1	0
412.819	1	-5
412.990	1	6
413.161	1	1
413.332	1	2
413.502	1	1
413.673	1	9
413.844	1	5
414.014	1	-6
414.185	1	7
414.356	1	-9
414.526	1	1
414.697	1	1
414.868	1	7
415.038	1	-3
415.209	1	-2
415.380	1	-4
415.550	1	-9
415.721	1	5
415.892	1	-5
416.063	1	16
416.233	1	7
416.404	1	1
416.575	1	-1
416.745	1	-1
416.916	1	-2
417.087	1	4
417.257	1	5
417.428	1	2
417.599	1	4
417.769	1	7
417.940	1	2
418.111	1	2
418.281	1	1
418.452	1	1
418.623	1	-5
418.793	1	6
418.964	1	-3
419.135	1	9
419.305	1	7
419.476	1	2
419.647	1	1
419.817	1	0
419.988	1	-1
420.159	1	-5
420.329	1	-1
420.500	1	8
420.671	1	6
420.841	1	8
421.012	1	9
421.183	1	8
421.353	1	1
421.524	1	4
421.695	1	4
421.865	1	-9
422.036	1	8
422.206	1	-6
422.377	1	5
422.548	1	5
422.718	1	-3
422.889	1	10
423.060	1	-2
423.230	1	1
423.401	1	7
423.572	1	-9
423.742	1	2
423.913	1	3
424.084	1	3
424.254	1	-6
424.425	1	-4
424.595	1	2
424.766	1	10
424.937	1	-2
425.107	1	7
425.278	1	-7
425.449	1	7
425.619	1	-7
425.790	1	-1
425.961	1	8
426.131	1	5
426.302	1	3
426.472	1	-4
426.643	1	1
426.814	1	16
426.984	1	3
427.155	1	-4
427.326	1	5
427.496	1	6
427.667	1	-2
427.837	1	-2
428.008	1	-4
428.179	1	-7
428.349	1	-6
428.520	1	-3
428.691	1	-7
428.861	1	-4
429.032	1	5
429.202	1	8
429.373	1	-7
429.544	1	-2
429.714	1	4
429.885	1	-2
430.055	1	-3
430.226	1	-4
430.397	1	-4
430.567	1	-1
430.738	1	1
430.909	1	-2
431.079	1	8
431.250	1	-9
431.420	1	-1
431.591	1	1
431.762	1	-7
431.932	1	-6
432.103	1	3
432.273	1	0
432.444	1	19
432.615	1	4
432.785	1	-2
432.956	1	4
433.126	1	6
433.297	1	0
433.468	1	3
433.638	1	-4
433.809	1	4
433.979	1	1
434.150	1	1
434.320	1	-3
434.491	1	-3
434.662	1	0
434.832	1	-6
435.003	1	7
435.173	1	-6
435.344	1	2
435.515	1	2
435.685	1	2
435.856	1	-5
436.026	1	3
436.197	1	0
436.368	1	-1
436.538	1	10
436.709	1	-8
436.879	1	-4
437.050	1	4
437.220	1	0
437.391	1	-1
437.562	1	5
437.732	1	7
437.903	1	3
438.073	1	7
438.244	1	-5
438.414	1	-2
438.585	1	7
438.756	1	10
438.926	1	-7
439.097	1	10
439.267	1	13
439.438	1	10
439.608	1	1
439.779	1	-8
439.949	1	-6
440.120	1	-11
440.291	1	-15
440.461	1	-6
440.632	1	8
440.802	1	-6
440.973	1	-2
441.143	1	14
441.314	1	4
441.485	1	0
441.655	1	11
441.826	1	1
441.996	1	-11
442.167	1	-3
442.337	1	-3
442.508	1	6
442.678	1	-8
442.849	1	7
443.019	1	7
443.190	1	-7
443.361	1	8
443.531	1	-6
443.702	1	3
443.872	1	-1
444.043	1	1
444.213	1	-11
444.384	1	-2
444.554	1	-7
444.725	1	6
444.895	1	-1
445.066	1	-8
445.237	1	-6
445.407	1	4
445.578	1	5
445.748	1	-2
445.919	1	0
446.089	1	5
446.260	1	2
446.430	1	-17
446.601	1	1
446.771	1	-6
446.942	1	6
447.112	1	-6
447.283	1	0
447.453	1	-1
447.624	1	4
447.794	1	1
447.965	1	-2
448.135	1	3
448.306	1	-2
448.477	1	-2
448.647	1	13
448.818	1	0
448.988	1	-5
449.159	1	-4
449.329	1	-3
449.500	1	11
449.670	1	8
449.841	1	-3
450.011	1	-1
450.182	1	-6
450.352	1	5
450.523	1	-2
450.693	1	7
450.864	1	-1
451.034	1	5
451.205	1	6
451.375	1	10
451.546	1	11
451.716	1	8
451.887	1	2
452.057	1	6
452.228	1	-8
452.398	1	0
452.569	1	-3
452.739	1	-7
452.910	1	-1
453.080	1	13
453.251	1	5
453.421	1	1
453.592	1	1
453.762	1	5
453.933	1	5
454.103	1	4
454.274	1	-7
454.444	1	3
454.615	1	8
454.785	1	-3
454.956	1	2
455.126	1	-4
455.297	1	8
455.467	1	2
455.638	1	2
455.808	1	-4
455.979	1	1
456.149	1	-3
456.320	1	-1
456.490	1	1
456.661	1	-6
456.831	1	7
457.001	1	3
457.172	1	0
457.342	1	8
457.513	1	17
457.683	1	-8
457.854	1	2
458.024	1	-2
458.195	1	0
458.365	1	11
458.536	1	5
458.706	1	2
458.877	1	-4
459.047	1	2
459.218	1	-2
459.388	1	-1
459.559	1	6
459.729	1	2
459.899	1	8
460.070	1	12
460.240	1	5
460.411	1	-2
460.581	1	9
460.752	1	-3
460.922	1	6
461.093	1	4
461.263	1	1
461.434	1	5
461.604	1	0
461.775	1	3
461.945	1	8
462.115	1	-1
462.286	1	11
462.456	1	-4
462.627	1	-11
462.797	1	6
462.968	1	-9
463.138	1	6
463.309	1	5
463.479	1	14
463.649	1	7
463.820	1	7
463.990	1	2
464.161	1	7
464.331	1	-1
464.502	1	5
464.672	1	2
464.843	1	-6
465.013	1	-17
465.183	1	0
465.354	1	-5
465.524	1	5
465.695	1	1
465.865	1	0
466.036	1	4
466.206	1	-2
466.376	1	-5
466.547	1	8
466.717	1	-11
466.888	1	-1
467.058	1	20
467.229	1	6
467.399	1	8
467.569	1	-2
467.740	1	2
467.910	1	-1
468.081	1	4
468.251	1	-1
468.422	1	4
468.592	1	6
468.762	1	-8
468.933	1	7
469.103	1	-10
469.274	1	1
469.444	1	3
469.614	1	-9
469.785	1	6
469.955	1	1
470.126	1	5
470.296	1	8
470.467	1	-6
470.637	1	14
470.807	1	6
470.978	1	2
471.148	1	-4
471.319	1	0
471.489	1	-2
471.659	1	-3
471.830	1	14
472.000	1	3
472.171	1	4
472.341	1	-2
472.511	1	8
472.682	1	11
472.852	1	-9
473.023	1	-2
473.193	1	-6
473.363	1	1
473.534	1	7
473.704	1	1
473.875	1	9
474.045	1	-10
474.215	1	3
474.386	1	9
474.556	1	-8
474.727	1	-1
474.897	1	9
475.067	1	-6
475.238	1	-4
475.408	1	2
475.578	1	3
475.749	1	4
475.919	1	-5
476.090	1	-10
476.260	1	-3
476.430	1	2
476.601	1	-6
476.771	1	-2
476.942	1	-7
477.112	1	5
477.282	1	-12
477.453	1	2
477.623	1	8
477.793	1	11
477.964	1	10
478.134	1	5
478.305	1	5
478.475	1	1
478.645	1	-6
478.816	1	-4
478.986	1	3
479.156	1	2
479.327	1	-4
479.497	1	-2
479.667	1	-1
479.838	1	9
480.008	1	9
480.179	1	6
480.349	1	1
480.519	1	4
480.690	1	2
480.860	1	-8
481.030	1	-2
481.201	1	-2
481.371	1	-1
481.541	1	7
481.712	1	10
481.882	1	-4
482.053	1	0
482.223	1	-4
482.393	1	-13
482.564	1	-10
482.734	1	0
482.904	1	-3
483.075	1	4
483.245	1	4
483.415	1	3
483.586	1	-8
483.756	1	7
483.926	1	2
484.097	1	-5
484.267	1	-8
484.437	1	-16
484.608	1	1
484.778	1	3
484.948	1	-5
485.119	1	5
485.289	1	4
485.459	1	2
485.630	1	-5
485.800	1	-9
485.970	1	2
486.141	1	-13
486.311	1	0
486.481	1	2
486.652	1	1
486.822	1	11
486.992	1	-10
487.163	1	-8
487.333	1	8
487.503	1	-12
487.674	1	2
487.844	1	7
488.014	1	2
488.185	1	-4
488.355	1	-5
488.525	1	-6
488.696	1	-3
488.866	1	-3
489.036	1	5
489.207	1	4
489.377	1	-3
489.547	1	-7
489.718	1	-1
489.888	1	-1
490.058	1	-7
490.228	1	-4
490.399	1	0
490.569	1	8
490.739	1	12
490.910	1	-4
491.080	1	-1
491.250	1	-2
491.421	1	-1
491.591	1	-9
491.761	1	7
491.932	1	13
492.102	1	-8
492.272	1	9
492.442	1	5
492.613	1	1
492.783	1	-1
492.953	1	5
493.124	1	-5
493.294	1	5
493.464	1	-8
493.635	1	-6
493.805	1	14
493.975	1	-8
494.145	1	4
494.316	1	6
494.486	1	1
494.656	1	6
494.827	1	-1
494.997	1	-1
495.167	1	7
495.337	1	8
495.508	1	-2
495.678	1	0
495.848	1	-2
496.019	1	-1
496.189	1	1
496.359	1	1
496.529	1	0
496.700	1	15
496.870	1	-8
497.040	1	-1
497.211	1	7
497.381	1	-4
497.551	1	3
497.721	1	-11
497.892	1	-2
498.062	1	4
498.232	1	9
498.403	1	1
498.573	1	-9
498.743	1	-3
498.913	1	0
499.084	1	-10
499.254	1	2
499.424	1	2
499.594	1	1
499.765	1	-1
499.935	1	-5
500.105	1	-3
500.275	1	3
500.446	1	5
500.616	1	-4
500.786	1	6
500.956	1	-1
501.127	1	6
501.297	1	0
501.467	1	-2
501.638	1	-4
501.808	1	-22
501.978	1	1
502.148	1	2
502.319	1	3
502.489	1	3
502.659	1	-3
502.829	1	3
503.000	1	8
503.170	1	10
503.340	1	-3
503.510	1	1
503.681	1	0
503.851	1	-18
504.021	1	22
504.191	1	-5
504.362	1	6
504.532	1	-10
504.702	1	11
504.872	1	-8
505.042	1	2
505.213	1	-2
505.383	1	-8
505.553	1	4
505.723	1	1
505.894	1	1
506.064	1	4
506.234	1	8
506.404	1	-8
506.575	1	-4
506.745	1	9
506.915	1	1
507.085	1	-5
507.256	1	-3
507.426	1	0
507.596	1	0
507.766	1	0
507.936	1	-1
508.107	1	2
508.277	1	-2
508.447	1	-1
508.617	1	13
508.788	1	-4
508.958	1	7
509.128	1	-6
509.298	1	13
509.468	1	8
509.639	1	5
509.809	1	7
509.979	1	4
510.149	1	-3
510.319	1	0
510.490	1	3
510.660	1	3
510.830	1	-4
511.000	1	-2
511.171	1	10
511.341	1	-1
511.511	1	3
511.681	1	7
511.851	1	1
512.022	1	-4
512.192	1	2
512.362	1	6
512.532	1	1
512.702	1	-12
512.873	1	14
513.043	1	1
513.213	1	-1
513.383	1	-1
513.553	1	-6
513.724	1	6
513.894	1	5
514.064	1	11
514.234	1	6
514.404	1	0
514.575	1	8
514.745	1	15
514.915	1	2
515.085	1	-10
515.255	1	-2
515.425	1	-4
515.596	1	-1
515.766	1	9
515.936	1	-3
516.106	1	7
516.276	1	7
516.447	1	6
516.617	1	5
516.787	1	-3
516.957	1	-3
517.127	1	1
517.297	1	9
517.468	1	-6
517.638	1	2
517.808	1	0
517.978	1	-12
518.148	1	-1
518.319	1	-5
518.489	1	10
518.659	1	-1
518.829	1	-1
518.999	1	-4
519.169	1	7
519.340	1	-1
519.510	1	1
519.680	1	-9
519.850	1	-9
520.020	1	-4
520.190	1	4
520.361	1	3
520.531	1	7
520.701	1	3
520.871	1	-5
521.041	1	2
521.211	1	-4
521.382	1	2
521.552	1	7
521.722	1	3
521.892	1	-5
522.062	1	-6
522.232	1	1
522.402	1	-12
522.573	1	1
522.743	1	7
522.913	1	1
523.083	1	-1
523.253	1	2
523.423	1	-3
523.593	1	-7
523.764	1	9
523.934	1	6
524.104	1	1
524.274	1	4
524.444	1	0
524.614	1	1
524.784	1	9
524.955	1	1
525.125	1	6
525.295	1	-3
525.465	1	5
525.635	1	8
525.805	1	-2
525.975	1	-1
526.146	1	-4
526.316	1	5
526.486	1	3
526.656	1	21
526.826	1	2
526.996	1	8
527.166	1	4
527.337	1	2
527.507	1	-8
527.677	1	7
527.847	1	-12
528.017	1	-3
528.187	1	-3
528.357	1	3
528.527	1	9
528.698	1	-5
528.868	1	-1
529.038	1	4
529.208	1	-7
529.378	1	10
529.548	1	-1
529.718	1	5
529.888	1	1
530.058	1	7
530.229	1	-2
530.399	1	4
530.569	1	7
530.739	1	1
530.909	1	1
531.079	1	4
531.249	1	4
531.419	1	3
531.589	1	-12
531.760	1	9
531.930	1	-8
532.100	1	9
532.270	1	7
532.440	1	1
532.610	1	-1
532.780	1	-9
532.950	1	5
533.120	1	-3
533.290	1	0
533.461	1	14
533.631	1	6
533.801	1	-1
533.971	1	-4
534.141	1	10
534.311	1	7
534.481	1	-4
534.651	1	5
534.821	1	13
534.991	1	4
535.162	1	9
535.332	1	2
535.502	1	6
535.672	1	-10
535.842	1	2
536.012	1	15
536.182	1	-5
536.352	1	6
536.522	1	3
536.692	1	-1
536.862	1	3
537.032	1	2
537.203	1	5
537.373	1	-2
537.543	1	-5
537.713	1	8
537.883	1	10
538.053	1	4
538.223	1	3
538.393	1	17
538.563	1	0
538.733	1	-8
538.903	1	-3
539.073	1	7
539.243	1	-3
539.413	1	-10
539.584	1	-1
539.754	1	-2
539.924	1	-2
540.094	1	3
540.264	1	7
540.434	1	-4
540.604	1	11
540.774	1	-6
540.944	1	-8
541.114	1	1
541.284	1	-11
541.454	1	2
541.624	1	-2
541.794	1	4
541.964	1	8
542.134	1	4
542.305	1	-5
542.475	1	-7
542.645	1	4
542.815	1	7
542.985	1	2
543.155	1	5
543.325	1	-13
543.495	1	1
543.665	1	9
543.835	1	0
544.005	1	-2
544.175	1	5
544.345	1	4
544.515	1	-5
544.685	1	6
544.855	1	-1
545.025	1	1
545.195	1	-3
545.365	1	3
545.535	1	-3
545.705	1	5
545.875	1	-3
546.045	1	3
546.216	1	6
546.386	1	0
546.556	1	-12
546.726	1	2
546.896	1	0
547.066	1	-1
547.236	1	-5
547.406	1	9
547.576	1	7
547.746	1	9
547.916	1	9
548.086	1	8
548.256	1	7
548.426	1	-3
548.596	1	8
548.766	1	4
548.936	1	-4
549.106	1	11
549.276	1	-4
549.446	1	-3
549.616	1	4
549.786	1	4
549.956	1	-3
550.126	1	-4
550.296	1	0
550.466	1	-9
550.636	1	6
550.806	1	2
550.976	1	2
551.146	1	-5
551.316	1	-1
551.486	1	3
551.656	1	-11
551.826	1	7
551.996	1	-1
552.166	1	6
552.336	1	7
552.506	1	-10
552.676	1	-5
552.846	1	8
553.016	1	2
553.186	1	-5
553.356	1	-3
553.526	1	0
553.696	1	13
553.866	1	4
554.036	1	4
554.206	1	-3
554.376	1	-5
554.546	1	-4
554.716	1	-7
554.886	1	-4
555.056	1	-3
555.226	1	2
555.396	1	2
555.566	1	-3
555.736	1	1
555.906	1	5
556.076	1	0
556.246	1	-2
556.416	1	2
556.586	1	6
556.756	1	-1
556.926	1	8
557.096	1	1
557.266	1	5
557.436	1	11
557.606	1	-3
557.776	1	-1
557.946	1	10
558.116	1	13
558.286	1	1
558.456	1	-10
558.626	1	1
558.796	1	2
558.966	1	-3
559.136	1	4
559.306	1	-6
559.476	1	-3
559.646	1	0
559.816	1	2
559.986	1	-8
560.155	1	5
560.325	1	-14
560.495	1	0
560.665	1	7
560.835	1	3
561.005	1	-5
561.175	1	-2
561.345	1	4
561.515	1	-3
561.685	1	-7
561.855	1	14
562.025	1	-2
562.195	1	1
562.365	1	-1
562.535	1	2
562.705	1	4
562.875	1	-5
563.045	1	5
563.215	1	0
563.385	1	-8
563.555	1	5
563.725	1	2
563.895	1	4
564.064	1	7
564.234	1	0
564.404	1	6
564.574	1	-5
564.744	1	11
564.914	1	-18
565.084	1	0
565.254	1	1
565.424	1	7
565.594	1	-6
565.764	1	5
565.934	1	3
566.104	1	1
566.274	1	2
566.444	1	4
566.614	1	-1
566.783	1	4
566.953	1	8
567.123	1	14
567.293	1	1
567.463	1	3
567.633	1	-6
567.803	1	-10
567.973	1	0
568.143	1	-9
568.313	1	-6
568.483	1	-3
568.653	1	-3
568.823	1	11
568.993	1	2
569.162	1	8
569.332	1	0
569.502	1	-1
569.672	1	-4
569.842	1	0
570.012	1	-4
570.182	1	-4
570.352	1	10
570.522	1	5
570.692	1	-4
570.862	1	7
571.031	1	0
571.201	1	0
571.371	1	-14
571.541	1	5
571.711	1	8
571.881	1	-2
572.051	1	0
572.221	1	2
572.391	1	7
572.561	1	-6
572.731	1	-7
572.900	1	15
573.070	1	2
573.240	1	-4
573.410	1	5
573.580	1	4
573.750	1	5
573.920	1	0
574.090	1	10
574.260	1	-6
574.430	1	-1
574.599	1	-3
574.769	1	-1
574.939	1	0
575.109	1	-1
575.279	1	1
575.449	1	7
575.619	1	0
575.789	1	4
575.959	1	-5
576.128	1	-8
576.298	1	-18
576.468	1	-7
576.638	1	-2
576.808	1	-1
576.978	1	-2
577.148	1	9
577.318	1	14
577.487	1	6
577.657	1	-6
577.827	1	12
577.997	1	-7
578.167	1	2
578.337	1	0
578.507	1	-4
578.677	1	-6
578.846	1	1
579.016	1	7
579.186	1	-1
579.356	1	0
579.526	1	-5
579.696	1	5
579.866	1	8
580.036	1	1
580.205	1	2
580.375	1	1
580.545	1	-4
580.715	1	-1
580.885	1	4
581.055	1	7
581.225	1	-3
581.394	1	-1
581.564	1	8
581.734	1	4
581.904	1	-3
582.074	1	-5
582.244	1	-6
582.414	1	-3
582.583	1	-5
582.753	1	-3
582.923	1	2
583.093	1	3
583.263	1	0
583.433	1	-8
583.603	1	-6
583.772	1	3
583.942	1	6
584.112	1	6
584.282	1	10
584.452	1	-2
584.622	1	3
584.791	1	2
584.961	1	3
585.131	1	-1
585.301	1	8
585.471	1	3
585.641	1	5
585.811	1	-3
585.980	1	-12
586.150	1	-1
586.320	1	-10
586.490	1	-3
586.660	1	3
586.830	1	-11
586.999	1	1
587.169	1	-1
587.339	1	3
587.509	1	7
587.679	1	3
587.849	1	-3
588.018	1	4
588.188	1	6
588.358	1	6
588.528	1	5
588.698	1	-9
588.867	1	3
589.037	1	2
589.207	1	-13
589.377	1	3
589.547	1	-6
589.717	1	9
589.886	1	-7
590.056	1	4
590.226	1	7
590.396	1	4
590.566	1	3
590.735	1	9
590.905	1	4
591.075	1	-14
591.245	1	-7
591.415	1	1
591.585	1	-5
591.754	1	0
591.924	1	1
592.094	1	-2
592.264	1	-5
592.434	1	11
592.603	1	-7
592.773	1	-11
592.943	1	-2
593.113	1	-13
593.283	1	9
593.452	1	-4
593.622	1	-1
593.792	1	10
593.962	1	15
594.132	1	-2
594.301	1	11
594.471	1	2
594.641	1	-7
594.811	1	2
594.981	1	-7
595.150	1	4
595.320	1	-1
595.490	1	-2
595.660	1	5
595.829	1	8
595.999	1	1
596.169	1	-1
596.339	1	1
596.509	1	-7
596.678	1	1
596.848	1	2
597.018	1	11
597.188	1	15
597.358	1	6
597.527	1	-6
597.697	1	-10
597.867	1	-2
598.037	1	-8
598.206	1	-2
598.376	1	-5
598.546	1	-10
598.716	1	-10
598.885	1	-2
599.055	1	3
599.225	1	9
599.395	1	7
599.565	1	-3
599.734	1	10
599.904	1	0
600.074	1	-6
600.244	1	7
600.413	1	6
600.583	1	-3
600.753	1	1
600.923	1	13
601.092	1	-14
601.262	1	-4
601.432	1	-12
601.602	1	3
601.771	1	5
601.941	1	0
602.111	1	-5
602.281	1	-1
602.451	1	6
602.620	1	-11
602.790	1	9
602.960	1	0
603.130	1	7
603.299	1	-1
603.469	1	3
603.639	1	11
603.809	1	11
603.978	1	-4
604.148	1	3
604.318	1	9
604.487	1	-1
604.657	1	-2
604.827	1	-7
604.997	1	-10
605.166	1	-6
605.336	1	0
605.506	1	10
605.676	1	-7
605.845	1	18
606.015	1	2
606.185	1	-1
606.355	1	6
606.524	1	3
606.694	1	2
606.864	1	-5
607.034	1	-7
607.203	1	4
607.373	1	0
607.543	1	-10
607.712	1	8
607.882	1	-4
608.052	1	3
608.222	1	-3
608.391	1	-7
608.561	1	4
608.731	1	-5
608.901	1	2
609.070	1	-6
609.240	1	9
609.410	1	0
609.579	1	7
609.749	1	-5
609.919	1	-9
610.089	1	-6
610.258	1	0
610.428	1	-12
610.598	1	-2
610.767	1	-5
610.937	1	3
611.107	1	5
611.277	1	2
611.446	1	-1
611.616	1	-9
611.786	1	9
611.955	1	-3
612.125	1	-2
612.295	1	3
612.465	1	-7
612.634	1	-5
612.804	1	10
612.974	1	-2
613.143	1	3
613.313	1	8
613.483	1	6
613.652	1	-7
613.822	1	1
613.992	1	1
614.162	1	-2
614.331	1	6
614.501	1	-2
614.671	1	1
614.840	1	7
615.010	1	0
615.180	1	0
615.349	1	4
615.519	1	1
615.689	1	-2
615.858	1	7
616.028	1	4
616.198	1	6
616.368	1	-1
616.537	1	5
616.707	1	-6
616.877	1	1
617.046	1	1
617.216	1	-6
617.386	1	-3
617.555	1	-11
617.725	1	6
617.895	1	-6
618.064	1	4
618.234	1	-7
618.404	1	11
618.573	1	5
618.743	1	-2
618.913	1	-15
619.082	1	0
619.252	1	3
619.422	1	-4
619.591	1	2
619.761	1	1
619.931	1	4
620.100	1	1
620.270	1	-1
620.440	1	6
620.609	1	4
620.779	1	-1
620.949	1	6
621.118	1	0
621.288	1	7
621.458	1	6
621.627	1	-1
621.797	1	3
621.967	1	0
622.136	1	3
622.306	1	1
622.476	1	-2
622.645	1	-1
622.815	1	0
622.985	1	0
623.154	1	2
623.324	1	0
623.494	1	5
623.663	1	0
623.833	1	-1
624.002	1	-4
624.172	1	7
624.342	1	-14
624.511	1	-9
624.681	1	-3
624.851	1	-7
625.020	1	-3
625.190	1	5
625.360	1	-4
625.529	1	9
625.699	1	3
625.869	1	5
626.038	1	7
626.208	1	-7
626.377	1	21
626.547	1	5
626.717	1	-8
626.886	1	-9
627.056	1	1
627.226	1	2
627.395	1	10
627.565	1	9
627.735	1	-5
627.904	1	3
628.074	1	7
628.243	1	-6
628.413	1	4
628.583	1	1
628.752	1	5
628.922	1	3
629.091	1	6
629.261	1	3
629.431	1	-12
629.600	1	15
629.770	1	-3
629.940	1	1
630.109	1	2
630.279	1	-3
630.448	1	-2
630.618	1	6
630.788	1	16
630.957	1	-5
631.127	1	12
631.297	1	-14
631.466	1	4
631.636	1	-1
631.805	1	-6
631.975	1	-5
632.145	1	-14
632.314	1	9
632.484	1	-3
632.653	1	-9
632.823	1	14
632.993	1	5
633.162	1	-3
633.332	1	6
633.501	1	1
633.671	1	-2
633.841	1	-3
634.010	1	4
634.180	1	16
634.349	1	3
634.519	1	-4
634.689	1	10
634.858	1	8
635.028	1	-3
635.197	1	-7
635.367	1	0
635.537	1	8
635.706	1	-3
635.876	1	-5
636.045	1	1
636.215	1	-2
636.384	1	8
636.554	1	2
636.724	1	4
636.893	1	4
637.063	1	7
637.232	1	7
637.402	1	0
637.572	1	-1
637.741	1	5
637.911	1	0
638.080	1	4
638.250	1	6
638.419	1	9
638.589	1	14
638.759	1	4
638.928	1	-9
639.098	1	2
639.267	1	-1
639.437	1	-14
639.606	1	12
639.776	1	7
639.946	1	-2
640.115	1	-1
640.285	1	-1
640.454	1	7
640.624	1	3
640.793	1	5
640.963	1	-7
641.132	1	2
641.302	1	-4
641.472	1	-3
641.641	1	-4
641.811	1	2
641.980	1	1
642.150	1	-3
642.319	1	3
642.489	1	-5
642.659	1	-19
642.828	1	-3
642.998	1	-1
643.167	1	7
643.337	1	4
643.506	1	0
643.676	1	3
643.845	1	-2
644.015	1	9
644.184	1	6
644.354	1	0
644.524	1	-5
644.693	1	-2
644.863	1	-2
645.032	1	0
645.202	1	2
645.371	1	-7
645.541	1	-7
645.710	1	3
645.880	1	9
646.049	1	11
646.219	1	0
646.388	1	-6
646.558	1	-1
646.728	1	6
646.897	1	-3
647.067	1	2
647.236	1	5
647.406	1	-5
647.575	1	12
647.745	1	4
647.914	1	-8
648.084	1	12
648.253	1	10
648.423	1	-4
648.592	1	1
648.762	1	2
648.931	1	-1
649.101	1	4
649.270	1	16
649.440	1	4
649.610	1	10
649.779	1	-7
649.949	1	4
650.118	1	-5
650.288	1	-2
650.457	1	3
650.627	1	4
650.796	1	2
650.966	1	4
651.135	1	-3
651.305	1	0
651.474	1	-4
651.644	1	-3
651.813	1	5
651.983	1	7
652.152	1	1
652.322	1	-8
652.491	1	6
652.661	1	3
652.830	1	4
653.000	1	-5
653.169	1	14
653.339	1	2
653.508	1	-4
653.678	1	-1
653.847	1	4
654.017	1	-3
654.186	1	-4
654.356	1	7
654.525	1	-1
654.695	1	-3
654.864	1	8
655.034	1	-2
655.203	1	8
655.373	1	6
655.542	1	6
655.712	1	-9
655.881	1	-5
656.051	1	10
656.220	1	2
656.390	1	-5
656.559	1	-1
656.729	1	2
656.898	1	4
657.068	1	-5
657.237	1	11
657.406	1	6
657.576	1	1
657.745	1	-12
657.915	1	15
658.084	1	5
658.254	1	1
658.423	1	-14
658.593	1	-8
658.762	1	-1
658.932	1	-4
659.101	1	-4
659.271	1	8
659.440	1	17
659.610	1	1
659.779	1	1
659.949	1	-2
660.118	1	-1
660.288	1	-4
660.457	1	-9
660.626	1	-2
660.796	1	-5
660.965	1	2
661.135	1	8
661.304	1	3
661.474	1	2
661.643	1	-7
661.813	1	-3
661.982	1	-2
662.152	1	6
662.321	1	-7
662.491	1	0
662.660	1	4
662.829	1	1
662.999	1	-8
663.168	1	-7
663.338	1	-3
663.507	1	-2
663.677	1	-10
663.846	1	1
664.016	1	5
664.185	1	-1
664.354	1	2
664.524	1	-15
664.693	1	-4
664.863	1	-9
665.032	1	-2
665.202	1	-6
665.371	1	1
665.541	1	2
665.710	1	-5
665.879	1	-1
666.049	1	4
666.218	1	-2
666.388	1	-11
666.557	1	11
666.727	1	-20
666.896	1	2
667.065	1	4
667.235	1	-3
667.404	1	-4
667.574	1	0
667.743	1	-11
667.913	1	6
668.082	1	-3
668.251	1	0
668.421	1	-3
668.590	1	-8
668.760	1	-2
668.929	1	0
669.099	1	3
669.268	1	-1
669.437	1	3
669.607	1	-7
669.776	1	-1
669.946	1	8
670.115	1	-5
670.285	1	-3
670.454	1	-3
670.623	1	-4
670.793	1	6
670.962	1	4
671.132	1	9
671.301	1	-6
671.470	1	-6
671.640	1	-18
671.809	1	-9
671.979	1	8
672.148	1	8
672.317	1	-7
672.487	1	-1
672.656	1	3
672.826	1	-11
672.995	1	0
673.164	1	2
673.334	1	5
673.503	1	-1
673.673	1	12
673.842	1	4
674.011	1	2
674.181	1	0
674.350	1	-2
674.520	1	-4
674.689	1	1
674.858	1	-6
675.028	1	1
675.197	1	-4
675.367	1	5
675.536	1	3
675.705	1	-14
675.875	1	6
676.044	1	-3
676.214	1	2
676.383	1	-2
676.552	1	-11
676.722	1	9
676.891	1	-9
677.060	1	3
677.230	1	18
677.399	1	2
677.569	1	-3
677.738	1	3
677.907	1	-7
678.077	1	10
678.246	1	-5
678.416	1	7
678.585	1	10
678.754	1	0
678.924	1	-5
679.093	1	6
679.262	1	-3
679.432	1	-5
679.601	1	-10
679.771	1	-6
679.940	1	1
680.109	1	1
680.279	1	0
680.448	1	1
680.617	1	-5
680.787	1	0
680.956	1	-1
681.125	1	4
681.295	1	3
681.464	1	-8
681.634	1	-3
681.803	1	-9
681.972	1	-8
682.142	1	9
682.311	1	-3
682.480	1	-8
682.650	1	-3
682.819	1	-1
682.988	1	-2
683.158	1	-10
683.327	1	6
683.496	1	-10
683.666	1	-6
683.835	1	0
684.004	1	0
684.174	1	-4
684.343	1	-7
684.512	1	14
684.682	1	2
684.851	1	-7
685.021	1	-6
685.190	1	8
685.359	1	-1
685.529	1	2
685.698	1	9
685.867	1	-2
686.037	1	1
686.206	1	-5
686.375	1	10
686.545	1	6
686.714	1	-5
686.883	1	-4
687.053	1	4
687.222	1	-2
687.391	1	-4
687.561	1	-2
687.730	1	0
687.899	1	2
688.069	1	-8
688.238	1	-5
688.407	1	3
688.577	1	-7
688.746	1	12
