340.368	1	0
340.539	1	5
340.710	1	-3
340.881	1	5
341.052	1	3
341.223	1	13
341.394	1	-2
341.565	1	1
341.737	1	7
341.908	1	3
342.079	1	5
342.250	1	0
342.421	1	-5
342.592	1	-4
342.763	1	-5
342.934	1	5
343.105	1	10
343.276	1	-8
343.447	1	5
343.618	1	5
343.789	1	-4
343.960	1	-11
344.131	1	-17
344.302	1	2
344.473	1	-3
344.644	1	-9
344.815	1	6
344.986	1	7
345.157	1	2
345.328	1	-4
345.499	1	6
345.670	1	5
345.841	1	1
346.012	1	12
346.183	1	2
346.354	1	3
346.526	1	4
346.697	1	-2
346.868	1	1
347.039	1	4
347.210	1	0
347.381	1	2
347.552	1	2
347.723	1	-1
347.894	1	-2
348.065	1	6
348.236	1	-1
348.407	1	6
348.578	1	4
348.749	1	-2
348.920	1	10
349.091	1	-2
349.262	1	-3
349.433	1	-9
349.604	1	3
349.775	1	14
349.946	1	3
350.117	1	9
350.288	1	-3
350.459	1	-4
350.630	1	-8
350.801	1	-7
350.972	1	-2
351.143	1	1
351.314	1	-2
351.485	1	3
351.656	1	2
351.827	1	-4
351.998	1	-1
352.169	1	10
352.340	1	4
352.511	1	-2
352.682	1	4
352.853	1	-3
353.024	1	4
353.195	1	-9
353.366	1	8
353.537	1	-7
353.708	1	4
353.879	1	0
354.050	1	6
354.221	1	-2
354.392	1	4
354.563	1	12
354.734	1	-2
354.905	1	0
355.076	1	-2
355.247	1	0
355.418	1	-3
355.589	1	4
355.760	1	-1
355.931	1	4
356.102	1	-1
356.273	1	-3
356.444	1	3
356.615	1	8
356.785	1	20
356.956	1	6
357.127	1	-5
357.298	1	-3
357.469	1	6
357.640	1	9
357.811	1	10
357.982	1	-8
358.153	1	13
358.324	1	-6
358.495	1	3
358.666	1	-1
358.837	1	-1
359.008	1	-1
359.179	1	13
359.350	1	-2
359.521	1	-1
359.692	1	13
359.863	1	-5
360.034	1	-9
360.205	1	-1
360.376	1	4
360.547	1	-5
360.718	1	-4
360.889	1	13
361.060	1	9
361.231	1	1
361.401	1	11
361.572	1	-1
361.743	1	4
361.914	1	-2
362.085	1	0
362.256	1	8
362.427	1	-6
362.598	1	-9
362.769	1	7
362.940	1	-1
363.111	1	11
363.282	1	5
363.453	1	2
363.624	1	4
363.795	1	-2
363.966	1	1
364.137	1	1
364.308	1	-8
364.478	1	7
364.649	1	-4
364.820	1	3
364.991	1	3
365.162	1	1
365.333	1	7
365.504	1	-5
365.675	1	-2
365.846	1	-6
366.017	1	3
366.188	1	-4
366.359	1	3
366.530	1	6
366.701	1	-11
366.871	1	9
367.042	1	13
367.213	1	0
367.384	1	6
367.555	1	1
367.726	1	9
367.897	1	-5
368.068	1	-2
368.239	1	10
368.410	1	-1
368.581	1	5
368.752	1	-6
368.923	1	-1
369.093	1	3
369.264	1	-5
369.435	1	-2
369.606	1	0
369.777	1	4
369.948	1	6
370.119	1	2
370.290	1	11
370.461	1	-2
370.632	1	-1
370.803	1	-8
370.973	1	7
371.144	1	3
371.315	1	9
371.486	1	9
371.657	1	9
371.828	1	5
371.999	1	2
372.170	1	11
372.341	1	12
372.512	1	2
372.682	1	-5
372.853	1	7
373.024	1	3
373.195	1	-13
373.366	1	5
373.537	1	1
373.708	1	-3
373.879	1	12
374.050	1	-1
374.220	1	-3
374.391	1	1
374.562	1	-4
374.733	1	15
374.904	1	3
375.075	1	4
375.246	1	-2
375.417	1	-5
375.588	1	3
375.758	1	-4
375.929	1	4
376.100	1	7
376.271	1	1
376.442	1	4
376.613	1	-9
376.784	1	9
376.955	1	-5
377.125	1	1
377.296	1	6
377.467	1	-6
377.638	1	-1
377.809	1	10
377.980	1	8
378.151	1	-3
378.321	1	10
378.492	1	-1
378.663	1	5
378.834	1	0
379.005	1	4
379.176	1	-2
379.347	1	0
379.518	1	-7
379.688	1	3
379.859	1	4
380.030	1	-3
380.201	1	-14
380.372	1	3
380.543	1	12
380.714	1	-5
380.884	1	-1
381.055	1	2
381.226	1	6
381.397	1	1
381.568	1	2
381.739	1	15
381.910	1	-3
382.080	1	-8
382.251	1	0
382.422	1	19
382.593	1	1
382.764	1	-5
382.935	1	3
383.105	1	6
383.276	1	0
383.447	1	11
383.618	1	10
383.789	1	3
383.960	1	4
384.130	1	-4
384.301	1	3
384.472	1	-9
384.643	1	7
384.814	1	5
384.985	1	7
385.156	1	5
385.326	1	11
385.497	1	7
385.668	1	-3
385.839	1	-1
386.010	1	8
386.180	1	-2
386.351	1	-6
386.522	1	8
386.693	1	2
386.864	1	0
387.035	1	1
387.205	1	-2
387.376	1	5
387.547	1	4
387.718	1	12
387.889	1	18
388.060	1	-7
388.230	1	1
388.401	1	17
388.572	1	4
388.743	1	8
388.914	1	6
389.084	1	9
389.255	1	11
389.426	1	6
389.597	1	-12
389.768	1	2
389.939	1	16
390.109	1	1
390.280	1	18
390.451	1	9
390.622	1	-3
390.793	1	5
390.963	1	8
391.134	1	15
391.305	1	12
391.476	1	7
391.647	1	0
391.817	1	4
391.988	1	-1
392.159	1	7
392.330	1	13
392.501	1	6
392.671	1	12
392.842	1	11
393.013	1	14
393.184	1	14
393.355	1	14
393.525	1	9
393.696	1	1
393.867	1	2
394.038	1	0
394.208	1	11
394.379	1	4
394.550	1	2
394.721	1	4
394.892	1	4
395.062	1	-11
395.233	1	10
395.404	1	1
395.575	1	0
395.746	1	1
395.916	1	1
396.087	1	7
396.258	1	7
396.429	1	2
396.599	1	9
396.770	1	8
396.941	1	16
397.112	1	-2
397.283	1	0
397.453	1	-6
397.624	1	-1
397.795	1	6
397.966	1	6
398.136	1	3
398.307	1	-1
398.478	1	3
398.649	1	12
398.819	1	8
398.990	1	2
399.161	1	-2
399.332	1	13
399.503	1	-2
399.673	1	5
399.844	1	-2
400.015	1	5
400.186	1	8
400.356	1	-5
400.527	1	6
400.698	1	1
400.869	1	3
401.039	1	2
401.210	1	-5
401.381	1	8
401.552	1	15
401.722	1	3
401.893	1	8
402.064	1	5
402.235	1	11
402.405	1	-1
402.576	1	9
402.747	1	0
402.918	1	-4
403.088	1	-4
403.259	1	-1
403.430	1	5
403.601	1	5
403.771	1	0
403.942	1	10
404.113	1	10
404.284	1	4
404.454	1	17
404.625	1	6
404.796	1	14
404.967	1	10
405.137	1	9
405.308	1	6
405.479	1	8
405.649	1	2
405.820	1	-2
405.991	1	8
406.162	1	-4
406.332	1	-2
406.503	1	4
406.674	1	3
406.845	1	15
407.015	1	-2
407.186	1	21
407.357	1	8
407.527	1	2
407.698	1	-2
407.869	1	1
408.040	1	-12
408.210	1	-10
408.381	1	6
408.552	1	-2
408.722	1	-6
408.893	1	-1
409.064	1	5
409.235	1	-6
409.405	1	-2
409.576	1	-1
409.747	1	-7
409.917	1	-4
410.088	1	8
410.259	1	1
410.430	1	4
410.600	1	8
410.771	1	10
410.942	1	2
411.112	1	4
411.283	1	-2
411.454	1	5
411.625	1	7
411.795	1	6
411.966	1	9
412.137	1	12
412.307	1	4
412.478	1	7
412.649	1	0
412.819	1	-5
412.990	1	7
413.161	1	-4
413.332	1	-1
413.502	1	1
413.673	1	-4
413.844	1	-2
414.014	1	-7
414.185	1	3
414.356	1	-7
414.526	1	7
414.697	1	2
414.868	1	4
415.038	1	-2
415.209	1	-1
415.380	1	5
415.550	1	-12
415.721	1	2
415.892	1	-2
416.063	1	10
416.233	1	2
416.404	1	8
416.575	1	-1
416.745	1	-3
416.916	1	4
417.087	1	-1
417.257	1	1
417.428	1	-1
417.599	1	4
417.769	1	3
417.940	1	1
418.111	1	8
418.281	1	-1
418.452	1	6
418.623	1	0
418.793	1	8
418.964	1	3
419.135	1	3
419.305	1	2
419.476	1	2
419.647	1	-1
419.817	1	4
419.988	1	1
420.159	1	-8
420.329	1	-2
420.500	1	2
420.671	1	5
420.841	1	4
421.012	1	11
421.183	1	4
421.353	1	-1
421.524	1	3
421.695	1	1
421.865	1	4
422.036	1	-7
422.206	1	-1
422.377	1	8
422.548	1	-7
422.718	1	1
422.889	1	5
423.060	1	2
423.230	1	6
423.401	1	5
423.572	1	7
423.742	1	-3
423.913	1	4
424.084	1	7
424.254	1	3
424.425	1	-3
424.595	1	-6
424.766	1	4
424.937	1	-17
425.107	1	1
425.278	1	-8
425.449	1	2
425.619	1	3
425.790	1	-2
425.961	1	-2
426.131	1	0
426.302	1	-14
426.472	1	-9
426.643	1	-2
426.814	1	12
426.984	1	3
427.155	1	-6
427.326	1	7
427.496	1	14
427.667	1	6
427.837	1	-4
428.008	1	-2
428.179	1	-1
428.349	1	-7
428.520	1	-4
428.691	1	4
428.861	1	4
429.032	1	-14
429.202	1	7
429.373	1	-4
429.544	1	6
429.714	1	4
429.885	1	-3
430.055	1	-1
430.226	1	-7
430.397	1	7
430.567	1	11
430.738	1	-5
430.909	1	-10
431.079	1	11
431.250	1	-7
431.420	1	3
431.591	1	2
431.762	1	2
431.932	1	8
432.103	1	-6
432.273	1	-9
432.444	1	0
432.615	1	5
432.785	1	-1
432.956	1	-8
433.126	1	2
433.297	1	15
433.468	1	3
433.638	1	-10
433.809	1	-1
433.979	1	0
434.150	1	1
434.320	1	0
434.491	1	1
434.662	1	-5
434.832	1	-1
435.003	1	4
435.173	1	-1
435.344	1	5
435.515	1	-4
435.685	1	7
435.856	1	-6
436.026	1	1
436.197	1	-2
436.368	1	-2
436.538	1	0
436.709	1	-6
436.879	1	-2
437.050	1	3
437.220	1	0
437.391	1	4
437.562	1	9
437.732	1	6
437.903	1	3
438.073	1	15
438.244	1	-1
438.414	1	3
438.585	1	3
438.756	1	14
438.926	1	7
439.097	1	7
439.267	1	3
439.438	1	10
439.608	1	11
439.779	1	-7
439.949	1	-3
440.120	1	4
440.291	1	-2
440.461	1	-9
440.632	1	-7
440.802	1	8
440.973	1	-4
441.143	1	8
441.314	1	4
441.485	1	-2
441.655	1	20
441.826	1	-4
441.996	1	3
442.167	1	-3
442.337	1	-8
442.508	1	1
442.678	1	-5
442.849	1	3
443.019	1	2
443.190	1	-11
443.361	1	14
443.531	1	10
443.702	1	-5
443.872	1	0
444.043	1	0
444.213	1	-9
444.384	1	3
444.554	1	-5
444.725	1	4
444.895	1	-8
445.066	1	-11
445.237	1	5
445.407	1	-2
445.578	1	0
445.748	1	3
445.919	1	-3
446.089	1	7
446.260	1	3
446.430	1	-8
446.601	1	-5
446.771	1	-8
446.942	1	-5
447.112	1	-5
447.283	1	-1
447.453	1	-5
447.624	1	3
447.794	1	-2
447.965	1	-16
448.135	1	-2
448.306	1	-1
448.477	1	-1
448.647	1	12
448.818	1	7
448.988	1	-12
449.159	1	-6
449.329	1	-2
449.500	1	14
449.670	1	-3
449.841	1	-6
450.011	1	4
450.182	1	-12
450.352	1	0
450.523	1	-1
450.693	1	8
450.864	1	4
451.034	1	5
451.205	1	3
451.375	1	5
451.546	1	4
451.716	1	6
451.887	1	-1
452.057	1	8
452.228	1	-6
452.398	1	9
452.569	1	3
452.739	1	-9
452.910	1	0
453.080	1	9
453.251	1	-2
453.421	1	4
453.592	1	-1
453.762	1	2
453.933	1	19
454.103	1	-2
454.274	1	4
454.444	1	17
454.615	1	14
454.785	1	-10
454.956	1	-3
455.126	1	-2
455.297	1	0
455.467	1	2
455.638	1	1
455.808	1	-2
455.979	1	7
456.149	1	-2
456.320	1	0
456.490	1	5
456.661	1	1
456.831	1	5
457.001	1	4
457.172	1	1
457.342	1	7
457.513	1	5
457.683	1	9
457.854	1	1
458.024	1	6
458.195	1	3
458.365	1	6
458.536	1	7
458.706	1	5
458.877	1	0
459.047	1	1
459.218	1	5
459.388	1	6
459.559	1	4
459.729	1	10
459.899	1	8
460.070	1	5
460.240	1	-6
460.411	1	-2
460.581	1	7
460.752	1	2
460.922	1	-1
461.093	1	17
461.263	1	8
461.434	1	10
461.604	1	-5
461.775	1	2
461.945	1	9
462.115	1	-14
462.286	1	0
462.456	1	-1
462.627	1	3
462.797	1	-5
462.968	1	-5
463.138	1	5
463.309	1	-1
463.479	1	7
463.649	1	7
463.820	1	-2
463.990	1	3
464.161	1	10
464.331	1	4
464.502	1	10
464.672	1	3
464.843	1	5
465.013	1	-9
465.183	1	-2
465.354	1	1
465.524	1	1
465.695	1	9
465.865	1	-4
466.036	1	0
466.206	1	-3
466.376	1	-6
466.547	1	9
466.717	1	-7
466.888	1	-7
467.058	1	14
467.229	1	7
467.399	1	1
467.569	1	12
467.740	1	-2
467.910	1	-5
468.081	1	2
468.251	1	-10
468.422	1	1
468.592	1	10
468.762	1	-14
468.933	1	3
469.103	1	-5
469.274	1	1
469.444	1	-6
469.614	1	-9
469.785	1	9
469.955	1	1
470.126	1	3
470.296	1	13
470.467	1	-9
470.637	1	4
470.807	1	0
470.978	1	4
471.148	1	-6
471.319	1	3
471.489	1	-5
471.659	1	10
471.830	1	15
472.000	1	0
472.171	1	4
472.341	1	-9
472.511	1	3
472.682	1	14
472.852	1	1
473.023	1	-2
473.193	1	3
473.363	1	-4
473.534	1	2
473.704	1	5
473.875	1	-4
474.045	1	-1
474.215	1	-2
474.386	1	-1
474.556	1	1
474.727	1	4
474.897	1	5
475.067	1	2
475.238	1	-3
475.408	1	11
475.578	1	-5
475.749	1	-10
475.919	1	4
476.090	1	-3
476.260	1	-7
476.430	1	9
476.601	1	-8
476.771	1	7
476.942	1	3
477.112	1	2
477.282	1	-14
477.453	1	8
477.623	1	-3
477.793	1	10
477.964	1	14
478.134	1	2
478.305	1	5
478.475	1	1
478.645	1	-7
478.816	1	4
478.986	1	2
479.156	1	2
479.327	1	-9
479.497	1	4
479.667	1	-6
479.838	1	6
480.008	1	5
480.179	1	-2
480.349	1	10
480.519	1	-11
480.690	1	8
480.860	1	8
481.030	1	4
481.201	1	-3
481.371	1	-1
481.541	1	-1
481.712	1	-4
481.882	1	-7
482.053	1	7
482.223	1	-4
482.393	1	-13
482.564	1	-6
482.734	1	4
482.904	1	2
483.075	1	7
483.245	1	10
483.415	1	2
483.586	1	-1
483.756	1	9
483.926	1	8
484.097	1	4
484.267	1	1
484.437	1	-15
484.608	1	3
484.778	1	-2
484.948	1	-8
485.119	1	9
485.289	1	6
485.459	1	1
485.630	1	-5
485.800	1	-8
485.970	1	-2
486.141	1	-14
486.311	1	2
486.481	1	2
486.652	1	3
486.822	1	1
486.992	1	-1
487.163	1	-8
487.333	1	0
487.503	1	-1
487.674	1	8
487.844	1	-4
488.014	1	1
488.185	1	1
488.355	1	-12
488.525	1	-1
488.696	1	-10
488.866	1	9
489.036	1	-2
489.207	1	15
489.377	1	3
489.547	1	-6
489.718	1	-8
489.888	1	4
490.058	1	0
490.228	1	-11
490.399	1	7
490.569	1	16
490.739	1	5
490.910	1	-12
491.080	1	4
491.250	1	-1
491.421	1	-5
491.591	1	1
491.761	1	2
491.932	1	10
492.102	1	-3
492.272	1	7
492.442	1	11
492.613	1	2
492.783	1	-2
492.953	1	6
493.124	1	-6
493.294	1	11
493.464	1	1
493.635	1	7
493.805	1	17
493.975	1	0
494.145	1	2
494.316	1	5
494.486	1	7
494.656	1	-1
494.827	1	-5
494.997	1	1
495.167	1	7
495.337	1	5
495.508	1	-1
495.678	1	5
495.848	1	6
496.019	1	0
496.189	1	8
496.359	1	2
496.529	1	1
496.700	1	-4
496.870	1	-3
497.040	1	7
497.211	1	3
497.381	1	-23
497.551	1	17
497.721	1	-5
497.892	1	8
498.062	1	-7
498.232	1	0
498.403	1	2
498.573	1	0
498.743	1	11
498.913	1	-8
499.084	1	-8
499.254	1	-3
499.424	1	7
499.594	1	6
499.765	1	1
499.935	1	0
500.105	1	5
500.275	1	10
500.446	1	8
500.616	1	-3
500.786	1	9
500.956	1	6
501.127	1	10
501.297	1	7
501.467	1	15
501.638	1	-4
501.808	1	-7
501.978	1	-1
502.148	1	4
502.319	1	4
502.489	1	7
502.659	1	5
502.829	1	2
503.000	1	8
503.170	1	0
503.340	1	3
503.510	1	-6
503.681	1	4
503.851	1	-7
504.021	1	20
504.191	1	6
504.362	1	10
504.532	1	-3
504.702	1	4
504.872	1	-4
505.042	1	2
505.213	1	-4
505.383	1	2
505.553	1	-2
505.723	1	5
505.894	1	6
506.064	1	8
506.234	1	1
506.404	1	-5
506.575	1	2
506.745	1	-2
506.915	1	3
507.085	1	-4
507.256	1	0
507.426	1	4
507.596	1	7
507.766	1	6
507.936	1	2
508.107	1	-5
508.277	1	-5
508.447	1	-1
508.617	1	2
508.788	1	10
508.958	1	13
509.128	1	6
509.298	1	8
509.468	1	8
509.639	1	8
509.809	1	6
509.979	1	2
510.149	1	7
510.319	1	-2
510.490	1	11
510.660	1	9
510.830	1	9
511.000	1	12
511.171	1	13
511.341	1	-4
511.511	1	-1
511.681	1	3
511.851	1	0
512.022	1	-4
512.192	1	7
512.362	1	-8
512.532	1	-4
512.702	1	-1
512.873	1	6
513.043	1	3
513.213	1	-2
513.383	1	-4
513.553	1	-5
513.724	1	12
513.894	1	-2
514.064	1	7
514.234	1	5
514.404	1	9
514.575	1	3
514.745	1	4
514.915	1	15
515.085	1	3
515.255	1	-5
515.425	1	2
515.596	1	-8
515.766	1	-6
515.936	1	3
516.106	1	1
516.276	1	9
516.447	1	10
516.617	1	7
516.787	1	0
516.957	1	7
517.127	1	4
517.297	1	15
517.468	1	-8
517.638	1	11
517.808	1	5
517.978	1	5
518.148	1	-2
518.319	1	-5
518.489	1	-1
518.659	1	-3
518.829	1	2
518.999	1	1
519.169	1	11
519.340	1	7
519.510	1	1
519.680	1	-7
519.850	1	-3
520.020	1	-5
520.190	1	6
520.361	1	-12
520.531	1	2
520.701	1	1
520.871	1	-1
521.041	1	-2
521.211	1	5
521.382	1	2
521.552	1	-4
521.722	1	7
521.892	1	-6
522.062	1	-4
522.232	1	-1
522.402	1	-5
522.573	1	-1
522.743	1	5
522.913	1	6
523.083	1	1
523.253	1	0
523.423	1	-1
523.593	1	-6
523.764	1	0
523.934	1	14
524.104	1	-1
524.274	1	-8
524.444	1	5
524.614	1	8
524.784	1	3
524.955	1	-4
525.125	1	10
525.295	1	-2
525.465	1	1
525.635	1	12
525.805	1	-6
525.975	1	0
526.146	1	6
526.316	1	-2
526.486	1	8
526.656	1	16
526.826	1	5
526.996	1	11
527.166	1	3
527.337	1	-2
527.507	1	-13
527.677	1	18
527.847	1	-7
528.017	1	-3
528.187	1	12
528.357	1	8
528.527	1	10
528.698	1	-7
528.868	1	1
529.038	1	0
529.208	1	-4
529.378	1	4
529.548	1	3
529.718	1	4
529.888	1	3
530.058	1	8
530.229	1	4
530.399	1	12
530.569	1	3
530.739	1	4
530.909	1	-1
531.079	1	7
531.249	1	-5
531.419	1	11
531.589	1	-5
531.760	1	1
531.930	1	4
532.100	1	9
532.270	1	11
532.440	1	0
532.610	1	0
532.780	1	-1
532.950	1	-3
533.120	1	-4
533.290	1	2
533.461	1	15
533.631	1	14
533.801	1	4
533.971	1	13
534.141	1	-1
534.311	1	1
534.481	1	-1
534.651	1	7
534.821	1	5
534.991	1	4
535.162	1	9
535.332	1	5
535.502	1	7
535.672	1	-1
535.842	1	5
536.012	1	14
536.182	1	-1
536.352	1	-3
536.522	1	3
536.692	1	-2
536.862	1	10
537.032	1	-5
537.203	1	12
537.373	1	0
537.543	1	5
537.713	1	12
537.883	1	0
538.053	1	8
538.223	1	10
538.393	1	3
538.563	1	-5
538.733	1	1
538.903	1	-10
539.073	1	5
539.243	1	9
539.413	1	2
539.584	1	4
539.754	1	0
539.924	1	3
540.094	1	3
540.264	1	0
540.434	1	-6
540.604	1	16
540.774	1	7
540.944	1	1
541.114	1	-3
541.284	1	2
541.454	1	7
541.624	1	7
541.794	1	5
541.964	1	6
542.134	1	2
542.305	1	-9
542.475	1	0
542.645	1	-4
542.815	1	8
542.985	1	-5
543.155	1	-1
543.325	1	3
543.495	1	-2
543.665	1	4
543.835	1	5
544.005	1	8
544.175	1	2
544.345	1	-10
544.515	1	1
544.685	1	14
544.855	1	3
545.025	1	-3
545.195	1	0
545.365	1	-2
545.535	1	-1
545.705	1	6
545.875	1	-9
546.045	1	4
546.216	1	7
546.386	1	-1
546.556	1	-5
546.726	1	-8
546.896	1	9
547.066	1	-10
547.236	1	-10
547.406	1	9
547.576	1	-5
547.746	1	11
547.916	1	7
548.086	1	5
548.256	1	9
548.426	1	2
548.596	1	10
548.766	1	-1
548.936	1	-1
549.106	1	13
549.276	1	6
549.446	1	0
549.616	1	8
549.786	1	12
549.956	1	3
550.126	1	1
550.296	1	6
550.466	1	-4
550.636	1	6
550.806	1	2
550.976	1	-4
551.146	1	-11
551.316	1	4
551.486	1	10
551.656	1	-5
551.826	1	10
551.996	1	6
552.166	1	12
552.336	1	7
552.506	1	0
552.676	1	-1
552.846	1	3
553.016	1	-6
553.186	1	5
553.356	1	-7
553.526	1	-11
553.696	1	14
553.866	1	3
554.036	1	-3
554.206	1	-3
554.376	1	-2
554.546	1	-9
554.716	1	-11
554.886	1	8
555.056	1	-12
555.226	1	2
555.396	1	-6
555.566	1	5
555.736	1	-7
555.906	1	5
556.076	1	1
556.246	1	1
556.416	1	0
556.586	1	10
556.756	1	7
556.926	1	0
557.096	1	-2
557.266	1	14
557.436	1	5
557.606	1	-9
557.776	1	-5
557.946	1	13
558.116	1	3
558.286	1	5
558.456	1	2
558.626	1	2
558.796	1	9
558.966	1	-1
559.136	1	7
559.306	1	-2
559.476	1	-7
559.646	1	5
559.816	1	7
559.986	1	-11
560.155	1	1
560.325	1	-8
560.495	1	5
560.665	1	4
560.835	1	2
561.005	1	8
561.175	1	4
561.345	1	-3
561.515	1	-5
561.685	1	3
561.855	1	7
562.025	1	-6
562.195	1	-1
562.365	1	1
562.535	1	5
562.705	1	-2
562.875	1	-2
563.045	1	2
563.215	1	5
563.385	1	-4
563.555	1	14
563.725	1	3
563.895	1	-8
564.064	1	12
564.234	1	4
564.404	1	0
564.574	1	-5
564.744	1	7
564.914	1	-15
565.084	1	-6
565.254	1	7
565.424	1	1
565.594	1	-7
565.764	1	15
565.934	1	11
566.104	1	-4
566.274	1	6
566.444	1	14
566.614	1	2
566.783	1	-6
566.953	1	-4
567.123	1	16
567.293	1	0
567.463	1	1
567.633	1	-5
567.803	1	4
567.973	1	0
568.143	1	-6
568.313	1	6
568.483	1	-2
568.653	1	-18
568.823	1	10
568.993	1	-9
569.162	1	-1
569.332	1	-6
569.502	1	4
569.672	1	3
569.842	1	-2
570.012	1	-8
570.182	1	-5
570.352	1	3
570.522	1	6
570.692	1	6
570.862	1	9
571.031	1	3
571.201	1	4
571.371	1	6
571.541	1	-7
571.711	1	1
571.881	1	2
572.051	1	-3
572.221	1	3
572.391	1	2
572.561	1	-5
572.731	1	-3
572.900	1	7
573.070	1	7
573.240	1	-2
573.410	1	3
573.580	1	-3
573.750	1	8
573.920	1	2
574.090	1	5
574.260	1	-2
574.430	1	-6
574.599	1	4
574.769	1	-2
574.939	1	-4
575.109	1	0
575.279	1	7
575.449	1	1
575.619	1	3
575.789	1	9
575.959	1	-8
576.128	1	1
576.298	1	-1
576.468	1	-3
576.638	1	2
576.808	1	-10
576.978	1	-1
577.148	1	9
577.318	1	3
577.487	1	6
577.657	1	-10
577.827	1	15
577.997	1	4
578.167	1	12
578.337	1	2
578.507	1	-7
578.677	1	-3
578.846	1	-4
579.016	1	6
579.186	1	-4
579.356	1	-2
579.526	1	-4
579.696	1	9
579.866	1	3
580.036	1	1
580.205	1	3
580.375	1	-7
580.545	1	4
580.715	1	8
580.885	1	-1
581.055	1	7
581.225	1	2
581.394	1	-6
581.564	1	-4
581.734	1	8
581.904	1	-5
582.074	1	-2
582.244	1	7
582.414	1	-2
582.583	1	-8
582.753	1	1
582.923	1	0
583.093	1	-6
583.263	1	11
583.433	1	-5
583.603	1	3
583.772	1	-2
583.942	1	4
584.112	1	6
584.282	1	8
584.452	1	-2
584.622	1	5
584.791	1	1
584.961	1	-3
585.131	1	-13
585.301	1	11
585.471	1	-4
585.641	1	2
585.811	1	-1
585.980	1	-2
586.150	1	9
586.320	1	-7
586.490	1	2
586.660	1	5
586.830	1	-10
586.999	1	4
587.169	1	5
587.339	1	3
587.509	1	1
587.679	1	8
587.849	1	6
588.018	1	2
588.188	1	3
588.358	1	-1
588.528	1	-5
588.698	1	9
588.867	1	9
589.037	1	3
589.207	1	-20
589.377	1	12
589.547	1	-14
589.717	1	-1
589.886	1	-9
590.056	1	1
590.226	1	1
590.396	1	10
590.566	1	-2
590.735	1	10
590.905	1	9
591.075	1	-4
591.245	1	-8
591.415	1	-7
591.585	1	-9
591.754	1	-2
591.924	1	0
592.094	1	-2
592.264	1	-2
592.434	1	3
592.603	1	-13
592.773	1	0
592.943	1	0
593.113	1	-7
593.283	1	7
593.452	1	-13
593.622	1	-4
593.792	1	4
593.962	1	10
594.132	1	-1
594.301	1	1
594.471	1	-3
594.641	1	2
594.811	1	-12
594.981	1	-3
595.150	1	-5
595.320	1	0
595.490	1	-6
595.660	1	-9
595.829	1	-1
595.999	1	7
596.169	1	-5
596.339	1	3
596.509	1	4
596.678	1	-4
596.848	1	11
597.018	1	-8
597.188	1	-5
597.358	1	2
597.527	1	-2
597.697	1	-6
597.867	1	-4
598.037	1	7
598.206	1	-8
598.376	1	6
598.546	1	4
598.716	1	-3
598.885	1	-5
599.055	1	2
599.225	1	3
599.395	1	4
599.565	1	-7
599.734	1	0
599.904	1	-2
600.074	1	-4
600.244	1	-7
600.413	1	3
600.583	1	-1
600.753	1	11
600.923	1	11
601.092	1	-9
601.262	1	-3
601.432	1	-3
601.602	1	11
601.771	1	9
601.941	1	-3
602.111	1	-4
602.281	1	-6
602.451	1	5
602.620	1	12
602.790	1	-3
602.960	1	2
603.130	1	5
603.299	1	0
603.469	1	-4
603.639	1	15
603.809	1	7
603.978	1	-2
604.148	1	2
604.318	1	14
604.487	1	5
604.657	1	1
604.827	1	-13
604.997	1	11
605.166	1	-7
605.336	1	-4
605.506	1	-2
605.676	1	-8
605.845	1	2
606.015	1	7
606.185	1	-3
606.355	1	6
606.524	1	-2
606.694	1	13
606.864	1	1
607.034	1	-2
607.203	1	9
607.373	1	1
607.543	1	-1
607.712	1	4
607.882	1	-8
608.052	1	1
608.222	1	0
608.391	1	8
608.561	1	4
608.731	1	-11
608.901	1	1
609.070	1	-6
609.240	1	0
609.410	1	-3
609.579	1	9
609.749	1	-1
609.919	1	-4
610.089	1	-5
610.258	1	11
610.428	1	-5
610.598	1	-4
610.767	1	-1
610.937	1	3
611.107	1	7
611.277	1	2
611.446	1	1
611.616	1	-6
611.786	1	5
611.955	1	5
612.125	1	3
612.295	1	0
612.465	1	-10
612.634	1	-9
612.804	1	0
612.974	1	5
613.143	1	2
613.313	1	3
613.483	1	1
613.652	1	-2
613.822	1	9
613.992	1	-2
614.162	1	-1
614.331	1	5
614.501	1	1
614.671	1	3
614.840	1	5
615.010	1	3
615.180	1	-3
615.349	1	9
615.519	1	13
615.689	1	6
615.858	1	-4
616.028	1	-5
616.198	1	9
616.368	1	-4
616.537	1	-5
616.707	1	1
616.877	1	0
617.046	1	-2
617.216	1	-2
617.386	1	1
617.555	1	-1
617.725	1	-1
617.895	1	1
618.064	1	7
618.234	1	6
618.404	1	8
618.573	1	-1
618.743	1	0
618.913	1	-3
619.082	1	-3
619.252	1	3
619.422	1	-2
619.591	1	1
619.761	1	4
619.931	1	3
620.100	1	3
620.270	1	-5
620.440	1	-2
620.609	1	5
620.779	1	-8
620.949	1	-5
621.118	1	-9
621.288	1	9
621.458	1	11
621.627	1	3
621.797	1	2
621.967	1	-9
622.136	1	1
622.306	1	7
622.476	1	4
622.645	1	0
622.815	1	3
622.985	1	4
623.154	1	2
623.324	1	10
623.494	1	1
623.663	1	-2
623.833	1	-3
624.002	1	-3
624.172	1	14
624.342	1	-4
624.511	1	-9
624.681	1	-10
624.851	1	-9
625.020	1	-2
625.190	1	5
625.360	1	-8
625.529	1	2
625.699	1	2
625.869	1	3
626.038	1	3
626.208	1	-2
626.377	1	9
626.547	1	0
626.717	1	-4
626.886	1	4
627.056	1	-1
627.226	1	5
627.395	1	5
627.565	1	11
627.735	1	12
627.904	1	9
628.074	1	4
628.243	1	-18
628.413	1	2
628.583	1	0
628.752	1	8
628.922	1	-1
629.091	1	6
629.261	1	0
629.431	1	-14
629.600	1	15
629.770	1	0
629.940	1	0
630.109	1	1
630.279	1	-5
630.448	1	-3
630.618	1	-4
630.788	1	-2
630.957	1	-6
631.127	1	7
631.297	1	-1
631.466	1	-3
631.636	1	-6
631.805	1	2
631.975	1	9
632.145	1	-8
632.314	1	9
632.484	1	5
632.653	1	-5
632.823	1	9
632.993	1	7
633.162	1	8
633.332	1	2
633.501	1	-2
633.671	1	-5
633.841	1	4
634.010	1	-1
634.180	1	-1
634.349	1	7
634.519	1	0
634.689	1	6
634.858	1	4
635.028	1	-3
635.197	1	-10
635.367	1	-12
635.537	1	5
635.706	1	-3
635.876	1	-6
636.045	1	5
636.215	1	0
636.384	1	2
636.554	1	9
636.724	1	4
636.893	1	-2
637.063	1	1
637.232	1	4
637.402	1	13
637.572	1	-2
637.741	1	6
637.911	1	1
638.080	1	5
638.250	1	2
638.419	1	15
638.589	1	9
638.759	1	2
638.928	1	-1
639.098	1	-4
639.267	1	-3
639.437	1	1
639.606	1	12
639.776	1	6
639.946	1	3
640.115	1	-4
640.285	1	4
640.454	1	17
640.624	1	7
640.793	1	4
640.963	1	-10
641.132	1	5
641.302	1	-2
641.472	1	-2
641.641	1	-10
641.811	1	19
641.980	1	-1
642.150	1	1
642.319	1	-1
642.489	1	-2
642.659	1	-6
642.828	1	-5
642.998	1	-11
643.167	1	15
643.337	1	3
643.506	1	-2
643.676	1	1
643.845	1	2
644.015	1	-4
644.184	1	15
644.354	1	-1
644.524	1	-11
644.693	1	2
644.863	1	-10
645.032	1	-1
645.202	1	-1
645.371	1	-2
645.541	1	-13
645.710	1	1
645.880	1	7
646.049	1	2
646.219	1	-2
646.388	1	4
646.558	1	1
646.728	1	-1
646.897	1	-5
647.067	1	7
647.236	1	8
647.406	1	-10
647.575	1	3
647.745	1	2
647.914	1	-3
648.084	1	-2
648.253	1	-1
648.423	1	-7
648.592	1	5
648.762	1	-12
648.931	1	3
649.101	1	4
649.270	1	11
649.440	1	8
649.610	1	9
649.779	1	-5
649.949	1	5
650.118	1	-9
650.288	1	-3
650.457	1	4
650.627	1	-12
650.796	1	-8
650.966	1	-5
651.135	1	3
651.305	1	-5
651.474	1	1
651.644	1	-3
651.813	1	5
651.983	1	5
652.152	1	-7
652.322	1	5
652.491	1	0
652.661	1	2
652.830	1	7
653.000	1	1
653.169	1	7
653.339	1	5
653.508	1	-3
653.678	1	10
653.847	1	-11
654.017	1	4
654.186	1	0
654.356	1	14
654.525	1	-5
654.695	1	-1
654.864	1	7
655.034	1	-4
655.203	1	0
655.373	1	5
655.542	1	5
655.712	1	-4
655.881	1	3
656.051	1	11
656.220	1	3
656.390	1	5
656.559	1	-6
656.729	1	4
656.898	1	8
657.068	1	-1
657.237	1	0
657.406	1	5
657.576	1	-8
657.745	1	-10
657.915	1	11
658.084	1	6
658.254	1	-2
658.423	1	-2
658.593	1	-11
658.762	1	2
658.932	1	3
659.101	1	-7
659.271	1	-1
659.440	1	11
659.610	1	7
659.779	1	-5
659.949	1	-6
660.118	1	7
660.288	1	-5
660.457	1	-4
660.626	1	-5
660.796	1	-9
660.965	1	-5
661.135	1	-4
661.304	1	0
661.474	1	-3
661.643	1	-2
661.813	1	2
661.982	1	-2
662.152	1	-4
662.321	1	9
662.491	1	-10
662.660	1	-1
662.829	1	-1
662.999	1	4
663.168	1	-8
663.338	1	-8
663.507	1	-3
663.677	1	-10
663.846	1	7
664.016	1	-9
664.185	1	0
664.354	1	12
664.524	1	-10
664.693	1	7
664.863	1	7
665.032	1	3
665.202	1	-6
665.371	1	-6
665.541	1	-5
665.710	1	-7
665.879	1	3
666.049	1	9
666.218	1	-8
666.388	1	1
666.557	1	4
666.727	1	-20
666.896	1	-9
667.065	1	20
667.235	1	0
667.404	1	-16
667.574	1	7
667.743	1	-1
667.913	1	0
668.082	1	-4
668.251	1	3
668.421	1	4
668.590	1	-8
668.760	1	8
668.929	1	1
669.099	1	-12
669.268	1	-1
669.437	1	-4
669.607	1	-8
669.776	1	-3
669.946	1	3
670.115	1	0
670.285	1	4
670.454	1	5
670.623	1	-1
670.793	1	-10
670.962	1	0
671.132	1	5
671.301	1	-11
671.470	1	-10
671.640	1	-13
671.809	1	-6
671.979	1	8
672.148	1	2
672.317	1	-3
672.487	1	-1
672.656	1	4
672.826	1	-10
672.995	1	-1
673.164	1	8
673.334	1	17
673.503	1	1
673.673	1	8
673.842	1	-4
674.011	1	4
674.181	1	-7
674.350	1	-6
674.520	1	0
674.689	1	2
674.858	1	-2
675.028	1	2
675.197	1	3
675.367	1	8
675.536	1	10
675.705	1	-3
675.875	1	4
676.044	1	-7
676.214	1	-7
676.383	1	5
676.552	1	-1
676.722	1	-8
676.891	1	-10
677.060	1	7
677.230	1	14
677.399	1	-10
677.569	1	-11
677.738	1	-6
677.907	1	-10
678.077	1	1
678.246	1	-8
678.416	1	-5
678.585	1	5
678.754	1	-2
678.924	1	-2
679.093	1	-4
679.262	1	-1
679.432	1	-7
679.601	1	-10
679.771	1	0
679.940	1	-6
680.109	1	5
680.279	1	-1
680.448	1	2
680.617	1	-9
680.787	1	5
680.956	1	-3
681.125	1	-1
681.295	1	5
681.464	1	1
681.634	1	7
681.803	1	-8
681.972	1	-7
682.142	1	13
682.311	1	-5
682.480	1	-4
682.650	1	2
682.819	1	-3
682.988	1	-6
683.158	1	1
683.327	1	6
683.496	1	-5
683.666	1	0
683.835	1	4
684.004	1	2
684.174	1	-1
684.343	1	0
684.512	1	-1
684.682	1	2
684.851	1	10
685.021	1	-2
685.190	1	3
685.359	1	-11
685.529	1	-2
685.698	1	3
685.867	1	4
686.037	1	3
686.206	1	0
686.375	1	-5
686.545	1	6
686.714	1	-3
686.883	1	-5
687.053	1	-1
687.222	1	-7
687.391	1	-8
687.561	1	5
687.730	1	-4
687.899	1	12
688.069	1	-3
688.238	1	-1
688.407	1	-1
688.577	1	-8
688.746	1	6
