340.368	1	2
340.539	1	8
340.710	1	-2
340.881	1	-2
341.052	1	-2
341.223	1	14
341.394	1	-9
341.565	1	-13
341.737	1	11
341.908	1	14
342.079	1	1
342.250	1	1
342.421	1	-2
342.592	1	-8
342.763	1	-2
342.934	1	8
343.105	1	7
343.276	1	-7
343.447	1	5
343.618	1	-1
343.789	1	0
343.960	1	-6
344.131	1	2
344.302	1	-6
344.473	1	-3
344.644	1	1
344.815	1	4
344.986	1	10
345.157	1	0
345.328	1	1
345.499	1	7
345.670	1	0
345.841	1	4
346.012	1	0
346.183	1	-8
346.354	1	-9
346.526	1	5
346.697	1	12
346.868	1	2
347.039	1	2
347.210	1	3
347.381	1	-2
347.552	1	3
347.723	1	-3
347.894	1	8
348.065	1	3
348.236	1	-2
348.407	1	-2
348.578	1	2
348.749	1	-12
348.920	1	6
349.091	1	0
349.262	1	-6
349.433	1	1
349.604	1	4
349.775	1	3
349.946	1	11
350.117	1	7
350.288	1	6
350.459	1	1
350.630	1	-1
350.801	1	1
350.972	1	-2
351.143	1	-7
351.314	1	-6
351.485	1	-5
351.656	1	-4
351.827	1	-3
351.998	1	-1
352.169	1	4
352.340	1	1
352.511	1	-1
352.682	1	6
352.853	1	-4
353.024	1	-9
353.195	1	3
353.366	1	0
353.537	1	-4
353.708	1	0
353.879	1	0
354.050	1	10
354.221	1	-7
354.392	1	5
354.563	1	10
354.734	1	8
354.905	1	9
355.076	1	4
355.247	1	-14
355.418	1	-3
355.589	1	-1
355.760	1	4
355.931	1	5
356.102	1	-6
356.273	1	9
356.444	1	10
356.615	1	-5
356.785	1	12
356.956	1	-4
357.127	1	6
357.298	1	-1
357.469	1	-1
357.640	1	5
357.811	1	10
357.982	1	-5
358.153	1	2
358.324	1	1
358.495	1	7
358.666	1	-6
358.837	1	3
359.008	1	-1
359.179	1	6
359.350	1	3
359.521	1	-6
359.692	1	3
359.863	1	-16
360.034	1	-8
360.205	1	-2
360.376	1	8
360.547	1	3
360.718	1	1
360.889	1	10
361.060	1	8
361.231	1	6
361.401	1	-3
361.572	1	0
361.743	1	-5
361.914	1	-2
362.085	1	3
362.256	1	11
362.427	1	-3
362.598	1	1
362.769	1	4
362.940	1	1
363.111	1	6
363.282	1	2
363.453	1	5
363.624	1	-2
363.795	1	0
363.966	1	-9
364.137	1	-4
364.308	1	1
364.478	1	9
364.649	1	-2
364.820	1	9
364.991	1	7
365.162	1	-4
365.333	1	4
365.504	1	-7
365.675	1	2
365.846	1	-3
366.017	1	-2
366.188	1	3
366.359	1	2
366.530	1	1
366.701	1	3
366.871	1	20
367.042	1	2
367.213	1	0
367.384	1	7
367.555	1	-7
367.726	1	8
367.897	1	8
368.068	1	6
368.239	1	6
368.410	1	2
368.581	1	4
368.752	1	-10
368.923	1	-12
369.093	1	6
369.264	1	-1
369.435	1	-5
369.606	1	-1
369.777	1	2
369.948	1	7
370.119	1	3
370.290	1	-1
370.461	1	1
370.632	1	-4
370.803	1	-10
370.973	1	17
371.144	1	-1
371.315	1	-5
371.486	1	6
371.657	1	3
371.828	1	9
371.999	1	-3
372.170	1	5
372.341	1	11
372.512	1	-1
372.682	1	-7
372.853	1	0
373.024	1	9
373.195	1	-5
373.366	1	7
373.537	1	6
373.708	1	7
373.879	1	8
374.050	1	11
374.220	1	3
374.391	1	4
374.562	1	1
374.733	1	10
374.904	1	0
375.075	1	8
375.246	1	2
375.417	1	-2
375.588	1	6
375.758	1	0
375.929	1	-2
376.100	1	4
376.271	1	-4
376.442	1	2
376.613	1	-7
376.784	1	-5
376.955	1	0
377.125	1	3
377.296	1	-5
377.467	1	2
377.638	1	-1
377.809	1	15
377.980	1	12
378.151	1	-12
378.321	1	5
378.492	1	2
378.663	1	-9
378.834	1	4
379.005	1	17
379.176	1	1
379.347	1	14
379.518	1	-17
379.688	1	1
379.859	1	-2
380.030	1	-5
380.201	1	-10
380.372	1	1
380.543	1	8
380.714	1	5
380.884	1	-12
381.055	1	-1
381.226	1	8
381.397	1	-4
381.568	1	-6
381.739	1	9
381.910	1	0
382.080	1	-1
382.251	1	5
382.422	1	3
382.593	1	6
382.764	1	-3
382.935	1	3
383.105	1	-1
383.276	1	-6
383.447	1	1
383.618	1	4
383.789	1	8
383.960	1	-1
384.130	1	-9
384.301	1	-3
384.472	1	-8
384.643	1	6
384.814	1	-3
384.985	1	7
385.156	1	13
385.326	1	9
385.497	1	12
385.668	1	2
385.839	1	9
386.010	1	5
386.180	1	1
386.351	1	-2
386.522	1	7
386.693	1	-5
386.864	1	0
387.035	1	1
387.205	1	-5
387.376	1	9
387.547	1	0
387.718	1	10
387.889	1	11
388.060	1	-5
388.230	1	1
388.401	1	13
388.572	1	6
388.743	1	6
388.914	1	11
389.084	1	6
389.255	1	5
389.426	1	2
389.597	1	-6
389.768	1	6
389.939	1	7
390.109	1	-4
390.280	1	14
390.451	1	21
390.622	1	-7
390.793	1	5
390.963	1	3
391.134	1	2
391.305	1	11
391.476	1	3
391.647	1	11
391.817	1	5
391.988	1	-14
392.159	1	14
392.330	1	3
392.501	1	11
392.671	1	5
392.842	1	5
393.013	1	16
393.184	1	6
393.355	1	16
393.525	1	6
393.696	1	0
393.867	1	-4
394.038	1	-6
394.208	1	11
394.379	1	-3
394.550	1	1
394.721	1	0
394.892	1	10
395.062	1	-7
395.233	1	3
395.404	1	9
395.575	1	5
395.746	1	-5
395.916	1	9
396.087	1	2
396.258	1	-7
396.429	1	4
396.599	1	5
396.770	1	5
396.941	1	16
397.112	1	-5
397.283	1	11
397.453	1	-5
397.624	1	0
397.795	1	15
397.966	1	2
398.136	1	4
398.307	1	2
398.478	1	2
398.649	1	9
398.819	1	5
398.990	1	10
399.161	1	7
399.332	1	10
399.503	1	1
399.673	1	3
399.844	1	-8
400.015	1	9
400.186	1	16
400.356	1	-3
400.527	1	7
400.698	1	6
400.869	1	12
401.039	1	-3
401.210	1	-9
401.381	1	2
401.552	1	16
401.722	1	8
401.893	1	-1
402.064	1	1
402.235	1	16
402.405	1	-3
402.576	1	22
402.747	1	-7
402.918	1	-12
403.088	1	-4
403.259	1	-12
403.430	1	-1
403.601	1	-5
403.771	1	2
403.942	1	8
404.113	1	12
404.284	1	-5
404.454	1	11
404.625	1	3
404.796	1	-6
404.967	1	8
405.137	1	9
405.308	1	3
405.479	1	5
405.649	1	-6
405.820	1	2
405.991	1	16
406.162	1	-8
406.332	1	0
406.503	1	4
406.674	1	3
406.845	1	-4
407.015	1	-5
407.186	1	16
407.357	1	-2
407.527	1	0
407.698	1	-9
407.869	1	-3
408.040	1	3
408.210	1	-1
408.381	1	-11
408.552	1	9
408.722	1	7
408.893	1	7
409.064	1	1
409.235	1	-6
409.405	1	-7
409.576	1	10
409.747	1	-5
409.917	1	-4
410.088	1	10
410.259	1	3
410.430	1	-1
410.600	1	4
410.771	1	2
410.942	1	1
411.112	1	6
411.283	1	-18
411.454	1	7
411.625	1	-1
411.795	1	10
411.966	1	-10
412.137	1	8
412.307	1	7
412.478	1	15
412.649	1	-2
412.819	1	-7
412.990	1	5
413.161	1	0
413.332	1	-7
413.502	1	-1
413.673	1	7
413.844	1	2
414.014	1	3
414.185	1	1
414.356	1	-6
414.526	1	-3
414.697	1	6
414.868	1	11
415.038	1	-6
415.209	1	-5
415.380	1	3
415.550	1	-4
415.721	1	12
415.892	1	-5
416.063	1	15
416.233	1	4
416.404	1	-8
416.575	1	-1
416.745	1	-6
416.916	1	-1
417.087	1	3
417.257	1	0
417.428	1	-5
417.599	1	3
417.769	1	5
417.940	1	9
418.111	1	-4
418.281	1	0
418.452	1	4
418.623	1	2
418.793	1	6
418.964	1	4
419.135	1	3
419.305	1	1
419.476	1	8
419.647	1	6
419.817	1	5
419.988	1	-5
420.159	1	-12
420.329	1	5
420.500	1	-2
420.671	1	5
420.841	1	7
421.012	1	6
421.183	1	5
421.353	1	4
421.524	1	0
421.695	1	1
421.865	1	-1
422.036	1	0
422.206	1	1
422.377	1	-4
422.548	1	3
422.718	1	6
422.889	1	8
423.060	1	10
423.230	1	4
423.401	1	-3
423.572	1	-2
423.742	1	-10
423.913	1	-2
424.084	1	-2
424.254	1	4
424.425	1	2
424.595	1	-5
424.766	1	13
424.937	1	-11
425.107	1	5
425.278	1	-5
425.449	1	0
425.619	1	-1
425.790	1	1
425.961	1	1
426.131	1	9
426.302	1	9
426.472	1	-7
426.643	1	2
426.814	1	6
426.984	1	5
427.155	1	1
427.326	1	1
427.496	1	8
427.667	1	4
427.837	1	-10
428.008	1	10
428.179	1	-3
428.349	1	-4
428.520	1	-3
428.691	1	-1
428.861	1	2
429.032	1	-11
429.202	1	3
429.373	1	-8
429.544	1	0
429.714	1	8
429.885	1	2
430.055	1	0
430.226	1	-8
430.397	1	1
430.567	1	11
430.738	1	0
430.909	1	-2
431.079	1	4
431.250	1	-8
431.420	1	0
431.591	1	-1
431.762	1	7
431.932	1	-1
432.103	1	1
432.273	1	4
432.444	1	16
432.615	1	2
432.785	1	-3
432.956	1	-3
433.126	1	3
433.297	1	-2
433.468	1	-4
433.638	1	-9
433.809	1	3
433.979	1	0
434.150	1	-4
434.320	1	-2
434.491	1	1
434.662	1	0
434.832	1	-3
435.003	1	0
435.173	1	-6
435.344	1	5
435.515	1	-5
435.685	1	9
435.856	1	-1
436.026	1	-1
436.197	1	-7
436.368	1	-2
436.538	1	0
436.709	1	-10
436.879	1	-4
437.050	1	8
437.220	1	7
437.391	1	-1
437.562	1	9
437.732	1	1
437.903	1	1
438.073	1	12
438.244	1	-6
438.414	1	1
438.585	1	0
438.756	1	0
438.926	1	0
439.097	1	1
439.267	1	8
439.438	1	6
439.608	1	-3
439.779	1	2
439.949	1	6
440.120	1	-1
440.291	1	-5
440.461	1	1
440.632	1	-7
440.802	1	10
440.973	1	7
441.143	1	12
441.314	1	4
441.485	1	0
441.655	1	11
441.826	1	-12
441.996	1	5
442.167	1	-8
442.337	1	-1
442.508	1	-1
442.678	1	2
442.849	1	10
443.019	1	-2
443.190	1	-10
443.361	1	2
443.531	1	-3
443.702	1	-10
443.872	1	10
444.043	1	-2
444.213	1	-2
444.384	1	4
444.554	1	-9
444.725	1	1
444.895	1	-8
445.066	1	-12
445.237	1	-5
445.407	1	-3
445.578	1	12
445.748	1	1
445.919	1	-4
446.089	1	4
446.260	1	0
446.430	1	-5
446.601	1	-6
446.771	1	-5
446.942	1	7
447.112	1	2
447.283	1	4
447.453	1	-3
447.624	1	3
447.794	1	-6
447.965	1	-5
448.135	1	0
448.306	1	0
448.477	1	-8
448.647	1	5
448.818	1	6
448.988	1	-8
449.159	1	-10
449.329	1	2
449.500	1	21
449.670	1	12
449.841	1	2
450.011	1	9
450.182	1	-9
450.352	1	2
450.523	1	-6
450.693	1	1
450.864	1	1
451.034	1	1
451.205	1	5
451.375	1	6
451.546	1	5
451.716	1	2
451.887	1	-5
452.057	1	14
452.228	1	-5
452.398	1	2
452.569	1	3
452.739	1	-4
452.910	1	2
453.080	1	19
453.251	1	3
453.421	1	-1
453.592	1	-4
453.762	1	0
453.933	1	4
454.103	1	3
454.274	1	-6
454.444	1	2
454.615	1	16
454.785	1	-6
454.956	1	4
455.126	1	-4
455.297	1	10
455.467	1	15
455.638	1	0
455.808	1	1
455.979	1	8
456.149	1	-4
456.320	1	-1
456.490	1	9
456.661	1	-4
456.831	1	8
457.001	1	1
457.172	1	-2
457.342	1	1
457.513	1	6
457.683	1	3
457.854	1	-2
458.024	1	1
458.195	1	-10
458.365	1	4
458.536	1	4
458.706	1	10
458.877	1	-3
459.047	1	-9
459.218	1	-2
459.388	1	5
459.559	1	2
459.729	1	11
459.899	1	17
460.070	1	-1
460.240	1	0
460.411	1	5
460.581	1	3
460.752	1	6
460.922	1	-4
461.093	1	8
461.263	1	9
461.434	1	1
461.604	1	3
461.775	1	-3
461.945	1	-1
462.115	1	-2
462.286	1	3
462.456	1	-7
462.627	1	-5
462.797	1	1
462.968	1	5
463.138	1	5
463.309	1	-3
463.479	1	12
463.649	1	13
463.820	1	2
463.990	1	6
464.161	1	1
464.331	1	10
464.502	1	2
464.672	1	-9
464.843	1	6
465.013	1	0
465.183	1	2
465.354	1	5
465.524	1	5
465.695	1	2
465.865	1	0
466.036	1	0
466.206	1	5
466.376	1	-1
466.547	1	7
466.717	1	1
466.888	1	-1
467.058	1	14
467.229	1	0
467.399	1	7
467.569	1	-5
467.740	1	-5
467.910	1	5
468.081	1	-4
468.251	1	-3
468.422	1	5
468.592	1	12
468.762	1	-7
468.933	1	13
469.103	1	-3
469.274	1	-4
469.444	1	-4
469.614	1	-3
469.785	1	1
469.955	1	5
470.126	1	10
470.296	1	1
470.467	1	-1
470.637	1	3
470.807	1	5
470.978	1	3
471.148	1	-12
471.319	1	11
471.489	1	2
471.659	1	4
471.830	1	13
472.000	1	5
472.171	1	-5
472.341	1	-3
472.511	1	0
472.682	1	5
472.852	1	-4
473.023	1	-3
473.193	1	-4
473.363	1	-3
473.534	1	-1
473.704	1	11
473.875	1	3
474.045	1	-11
474.215	1	-2
474.386	1	10
474.556	1	-6
474.727	1	7
474.897	1	-3
475.067	1	-1
475.238	1	1
475.408	1	0
475.578	1	-2
475.749	1	-2
475.919	1	3
476.090	1	-3
476.260	1	5
476.430	1	-1
476.601	1	-6
476.771	1	1
476.942	1	0
477.112	1	3
477.282	1	-12
477.453	1	-4
477.623	1	4
477.793	1	6
477.964	1	8
478.134	1	7
478.305	1	0
478.475	1	-1
478.645	1	-3
478.816	1	-6
478.986	1	-6
479.156	1	-4
479.327	1	-8
479.497	1	1
479.667	1	5
479.838	1	10
480.008	1	10
480.179	1	3
480.349	1	-5
480.519	1	6
480.690	1	-4
480.860	1	7
481.030	1	-8
481.201	1	-1
481.371	1	3
481.541	1	6
481.712	1	3
481.882	1	-15
482.053	1	6
482.223	1	-7
482.393	1	-8
482.564	1	-15
482.734	1	10
482.904	1	2
483.075	1	7
483.245	1	-2
483.415	1	5
483.586	1	-1
483.756	1	10
483.926	1	-3
484.097	1	-4
484.267	1	3
484.437	1	-10
484.608	1	10
484.778	1	-1
484.948	1	0
485.119	1	11
485.289	1	8
485.459	1	6
485.630	1	-3
485.800	1	-6
485.970	1	1
486.141	1	-4
486.311	1	0
486.481	1	-3
486.652	1	5
486.822	1	13
486.992	1	-2
487.163	1	-10
487.333	1	-1
487.503	1	-10
487.674	1	3
487.844	1	-4
488.014	1	2
488.185	1	-7
488.355	1	-4
488.525	1	-6
488.696	1	-6
488.866	1	14
489.036	1	2
489.207	1	13
489.377	1	0
489.547	1	-2
489.718	1	2
489.888	1	-11
490.058	1	4
490.228	1	-5
490.399	1	7
490.569	1	1
490.739	1	9
490.910	1	-8
491.080	1	-3
491.250	1	-1
491.421	1	10
491.591	1	-5
491.761	1	2
491.932	1	7
492.102	1	-9
492.272	1	0
492.442	1	4
492.613	1	-1
492.783	1	-9
492.953	1	6
493.124	1	-12
493.294	1	2
493.464	1	5
493.635	1	-7
493.805	1	8
493.975	1	3
494.145	1	-9
494.316	1	7
494.486	1	3
494.656	1	-3
494.827	1	-7
494.997	1	-5
495.167	1	4
495.337	1	10
495.508	1	-4
495.678	1	10
495.848	1	12
496.019	1	-4
496.189	1	3
496.359	1	6
496.529	1	-8
496.700	1	-3
496.870	1	-3
497.040	1	5
497.211	1	12
497.381	1	-16
497.551	1	12
497.721	1	0
497.892	1	8
498.062	1	1
498.232	1	4
498.403	1	2
498.573	1	-9
498.743	1	7
498.913	1	1
499.084	1	-3
499.254	1	3
499.424	1	12
499.594	1	10
499.765	1	-3
499.935	1	-8
500.105	1	11
500.275	1	5
500.446	1	6
500.616	1	0
500.786	1	5
500.956	1	3
501.127	1	9
501.297	1	3
501.467	1	11
501.638	1	5
501.808	1	-5
501.978	1	8
502.148	1	0
502.319	1	7
502.489	1	5
502.659	1	4
502.829	1	-2
503.000	1	8
503.170	1	3
503.340	1	2
503.510	1	3
503.681	1	1
503.851	1	-20
504.021	1	19
504.191	1	11
504.362	1	11
504.532	1	-15
504.702	1	10
504.872	1	-8
505.042	1	1
505.213	1	-1
505.383	1	9
505.553	1	8
505.723	1	2
505.894	1	11
506.064	1	7
506.234	1	5
506.404	1	-4
506.575	1	1
506.745	1	-1
506.915	1	1
507.085	1	-10
507.256	1	-1
507.426	1	13
507.596	1	-1
507.766	1	6
507.936	1	-2
508.107	1	-3
508.277	1	-4
508.447	1	-3
508.617	1	4
508.788	1	-3
508.958	1	6
509.128	1	1
509.298	1	7
509.468	1	6
509.639	1	6
509.809	1	-1
509.979	1	5
510.149	1	-2
510.319	1	3
510.490	1	6
510.660	1	12
510.830	1	1
511.000	1	7
511.171	1	8
511.341	1	-5
511.511	1	-1
511.681	1	-1
511.851	1	-10
512.022	1	-11
512.192	1	10
512.362	1	3
512.532	1	-9
512.702	1	-7
512.873	1	16
513.043	1	6
513.213	1	-13
513.383	1	-4
513.553	1	1
513.724	1	7
513.894	1	-4
514.064	1	4
514.234	1	-4
514.404	1	3
514.575	1	7
514.745	1	5
514.915	1	19
515.085	1	1
515.255	1	5
515.425	1	0
515.596	1	-7
515.766	1	10
515.936	1	10
516.106	1	-6
516.276	1	7
516.447	1	-7
516.617	1	2
516.787	1	0
516.957	1	1
517.127	1	7
517.297	1	2
517.468	1	5
517.638	1	8
517.808	1	1
517.978	1	0
518.148	1	-1
518.319	1	-2
518.489	1	-1
518.659	1	5
518.829	1	-18
518.999	1	7
519.169	1	11
519.340	1	-1
519.510	1	4
519.680	1	0
519.850	1	0
520.020	1	-5
520.190	1	4
520.361	1	2
520.531	1	-2
520.701	1	-7
520.871	1	-5
521.041	1	7
521.211	1	5
521.382	1	-1
521.552	1	2
521.722	1	7
521.892	1	-19
522.062	1	-1
522.232	1	-1
522.402	1	-10
522.573	1	0
522.743	1	5
522.913	1	6
523.083	1	-3
523.253	1	-2
523.423	1	-5
523.593	1	-18
523.764	1	11
523.934	1	3
524.104	1	1
524.274	1	-3
524.444	1	-4
524.614	1	1
524.784	1	8
524.955	1	-5
525.125	1	11
525.295	1	-5
525.465	1	7
525.635	1	10
525.805	1	2
525.975	1	-10
526.146	1	2
526.316	1	4
526.486	1	-4
526.656	1	11
526.826	1	9
526.996	1	11
527.166	1	-5
527.337	1	8
527.507	1	-10
527.677	1	14
527.847	1	-11
528.017	1	-10
528.187	1	-2
528.357	1	12
528.527	1	10
528.698	1	-1
528.868	1	4
529.038	1	4
529.208	1	2
529.378	1	3
529.548	1	0
529.718	1	4
529.888	1	5
530.058	1	-2
530.229	1	10
530.399	1	19
530.569	1	6
530.739	1	-4
530.909	1	10
531.079	1	11
531.249	1	-8
531.419	1	6
531.589	1	2
531.760	1	7
531.930	1	-1
532.100	1	11
532.270	1	8
532.440	1	-9
532.610	1	0
532.780	1	5
532.950	1	5
533.120	1	-16
533.290	1	-8
533.461	1	21
533.631	1	1
533.801	1	5
533.971	1	4
534.141	1	10
534.311	1	-5
534.481	1	-5
534.651	1	-7
534.821	1	10
534.991	1	8
535.162	1	4
535.332	1	-1
535.502	1	2
535.672	1	-2
535.842	1	-3
536.012	1	3
536.182	1	-2
536.352	1	1
536.522	1	1
536.692	1	0
536.862	1	3
537.032	1	1
537.203	1	-2
537.373	1	6
537.543	1	0
537.713	1	9
537.883	1	5
538.053	1	7
538.223	1	9
538.393	1	12
538.563	1	6
538.733	1	-3
538.903	1	-4
539.073	1	8
539.243	1	1
539.413	1	-8
539.584	1	9
539.754	1	-5
539.924	1	5
540.094	1	4
540.264	1	5
540.434	1	-3
540.604	1	11
540.774	1	-2
540.944	1	-1
541.114	1	0
541.284	1	1
541.454	1	7
541.624	1	-1
541.794	1	-1
541.964	1	-1
542.134	1	3
542.305	1	-2
542.475	1	4
542.645	1	-3
542.815	1	12
542.985	1	-4
543.155	1	0
543.325	1	-3
543.495	1	4
543.665	1	7
543.835	1	-2
544.005	1	3
544.175	1	9
544.345	1	1
544.515	1	5
544.685	1	4
544.855	1	9
545.025	1	-4
545.195	1	-5
545.365	1	1
545.535	1	4
545.705	1	4
545.875	1	-8
546.045	1	10
546.216	1	6
546.386	1	-1
546.556	1	-2
546.726	1	-3
546.896	1	5
547.066	1	-12
547.236	1	-9
547.406	1	11
547.576	1	-3
547.746	1	3
547.916	1	2
548.086	1	-1
548.256	1	1
548.426	1	-6
548.596	1	6
548.766	1	4
548.936	1	2
549.106	1	7
549.276	1	1
549.446	1	4
549.616	1	10
549.786	1	0
549.956	1	9
550.126	1	-4
550.296	1	3
550.466	1	-4
550.636	1	5
550.806	1	4
550.976	1	-6
551.146	1	-2
551.316	1	-10
551.486	1	6
551.656	1	0
551.826	1	3
551.996	1	8
552.166	1	4
552.336	1	5
552.506	1	-4
552.676	1	2
552.846	1	5
553.016	1	-1
553.186	1	7
553.356	1	-9
553.526	1	-4
553.696	1	18
553.866	1	8
554.036	1	-1
554.206	1	-7
554.376	1	-9
554.546	1	-12
554.716	1	-7
554.886	1	10
555.056	1	-9
555.226	1	-4
555.396	1	5
555.566	1	0
555.736	1	2
555.906	1	3
556.076	1	-3
556.246	1	2
556.416	1	-5
556.586	1	6
556.756	1	2
556.926	1	0
557.096	1	-6
557.266	1	16
557.436	1	8
557.606	1	-2
557.776	1	4
557.946	1	6
558.116	1	-2
558.286	1	3
558.456	1	-4
558.626	1	4
558.796	1	-2
558.966	1	4
559.136	1	-2
559.306	1	-3
559.476	1	-8
559.646	1	3
559.816	1	9
559.986	1	-1
560.155	1	0
560.325	1	-9
560.495	1	-4
560.665	1	2
560.835	1	5
561.005	1	0
561.175	1	5
561.345	1	9
561.515	1	-4
561.685	1	-3
561.855	1	12
562.025	1	-4
562.195	1	-3
562.365	1	7
562.535	1	-4
562.705	1	4
562.875	1	2
563.045	1	9
563.215	1	5
563.385	1	2
563.555	1	9
563.725	1	-1
563.895	1	-7
564.064	1	12
564.234	1	-7
564.404	1	1
564.574	1	5
564.744	1	6
564.914	1	-4
565.084	1	-4
565.254	1	2
565.424	1	-4
565.594	1	0
565.764	1	10
565.934	1	0
566.104	1	-5
566.274	1	4
566.444	1	2
566.614	1	-2
566.783	1	1
566.953	1	-2
567.123	1	15
567.293	1	-4
567.463	1	-1
567.633	1	0
567.803	1	0
567.973	1	-8
568.143	1	-7
568.313	1	-15
568.483	1	-8
568.653	1	-7
568.823	1	11
568.993	1	-7
569.162	1	0
569.332	1	-10
569.502	1	0
569.672	1	3
569.842	1	5
570.012	1	-7
570.182	1	3
570.352	1	-4
570.522	1	13
570.692	1	5
570.862	1	4
571.031	1	2
571.201	1	21
571.371	1	-2
571.541	1	-2
571.711	1	10
571.881	1	9
572.051	1	3
572.221	1	1
572.391	1	1
572.561	1	3
572.731	1	-5
572.900	1	5
573.070	1	17
573.240	1	-8
573.410	1	5
573.580	1	7
573.750	1	3
573.920	1	-5
574.090	1	6
574.260	1	2
574.430	1	-7
574.599	1	-4
574.769	1	2
574.939	1	-6
575.109	1	-1
575.279	1	10
575.449	1	-1
575.619	1	4
575.789	1	4
575.959	1	-12
576.128	1	-3
576.298	1	-5
576.468	1	-8
576.638	1	-6
576.808	1	4
576.978	1	1
577.148	1	0
577.318	1	9
577.487	1	-2
577.657	1	-13
577.827	1	5
577.997	1	-10
578.167	1	1
578.337	1	-9
578.507	1	-9
578.677	1	1
578.846	1	0
579.016	1	2
579.186	1	1
579.356	1	1
579.526	1	-6
579.696	1	7
579.866	1	6
580.036	1	0
580.205	1	4
580.375	1	2
580.545	1	2
580.715	1	17
580.885	1	-6
581.055	1	7
581.225	1	-8
581.394	1	-11
581.564	1	-2
581.734	1	4
581.904	1	-4
582.074	1	-7
582.244	1	7
582.414	1	-5
582.583	1	-11
582.753	1	9
582.923	1	6
583.093	1	-12
583.263	1	9
583.433	1	-5
583.603	1	10
583.772	1	-1
583.942	1	11
584.112	1	0
584.282	1	3
584.452	1	-2
584.622	1	7
584.791	1	-4
584.961	1	4
585.131	1	-13
585.301	1	10
585.471	1	6
585.641	1	-6
585.811	1	-9
585.980	1	-8
586.150	1	-6
586.320	1	-11
586.490	1	-6
586.660	1	1
586.830	1	0
586.999	1	-5
587.169	1	6
587.339	1	2
587.509	1	-1
587.679	1	-4
587.849	1	4
588.018	1	-3
588.188	1	0
588.358	1	1
588.528	1	12
588.698	1	-1
588.867	1	1
589.037	1	8
589.207	1	-2
589.377	1	8
589.547	1	-5
589.717	1	-2
589.886	1	-12
590.056	1	1
590.226	1	-1
590.396	1	9
590.566	1	-9
590.735	1	14
590.905	1	6
591.075	1	-14
591.245	1	6
591.415	1	1
591.585	1	-10
591.754	1	1
591.924	1	-1
592.094	1	-5
592.264	1	7
592.434	1	10
592.603	1	2
592.773	1	-6
592.943	1	-8
593.113	1	-5
593.283	1	-6
593.452	1	-14
593.622	1	-2
593.792	1	2
593.962	1	0
594.132	1	-1
594.301	1	11
594.471	1	8
594.641	1	0
594.811	1	2
594.981	1	-2
595.150	1	-1
595.320	1	7
595.490	1	-11
595.660	1	3
595.829	1	2
595.999	1	1
596.169	1	-1
596.339	1	4
596.509	1	-2
596.678	1	-6
596.848	1	2
597.018	1	5
597.188	1	11
597.358	1	2
597.527	1	-8
597.697	1	-2
597.867	1	1
598.037	1	-3
598.206	1	-9
598.376	1	5
598.546	1	-2
598.716	1	-12
598.885	1	-8
599.055	1	-4
599.225	1	6
599.395	1	0
599.565	1	2
599.734	1	1
599.904	1	-6
600.074	1	-9
600.244	1	0
600.413	1	-7
600.583	1	3
600.753	1	-4
600.923	1	16
601.092	1	-9
601.262	1	10
601.432	1	-1
601.602	1	2
601.771	1	4
601.941	1	-4
602.111	1	-5
602.281	1	-4
602.451	1	-2
602.620	1	-1
602.790	1	1
602.960	1	-2
603.130	1	6
603.299	1	1
603.469	1	6
603.639	1	0
603.809	1	5
603.978	1	5
604.148	1	3
604.318	1	-2
604.487	1	2
604.657	1	-3
604.827	1	-14
604.997	1	-8
605.166	1	-6
605.336	1	-7
605.506	1	3
605.676	1	-6
605.845	1	8
606.015	1	5
606.185	1	-3
606.355	1	8
606.524	1	-2
606.694	1	12
606.864	1	-4
607.034	1	-1
607.203	1	8
607.373	1	3
607.543	1	-10
607.712	1	1
607.882	1	1
608.052	1	12
608.222	1	0
608.391	1	2
608.561	1	4
608.731	1	-9
608.901	1	-1
609.070	1	-6
609.240	1	1
609.410	1	-6
609.579	1	3
609.749	1	-7
609.919	1	2
610.089	1	-3
610.258	1	0
610.428	1	-5
610.598	1	-1
610.767	1	-5
610.937	1	6
611.107	1	11
611.277	1	5
611.446	1	-3
611.616	1	-8
611.786	1	11
611.955	1	9
612.125	1	-4
612.295	1	10
612.465	1	0
612.634	1	-3
612.804	1	12
612.974	1	2
613.143	1	-5
613.313	1	10
613.483	1	8
613.652	1	-13
613.822	1	6
613.992	1	3
614.162	1	2
614.331	1	8
614.501	1	-2
614.671	1	7
614.840	1	-2
615.010	1	-1
615.180	1	3
615.349	1	3
615.519	1	14
615.689	1	8
615.858	1	6
616.028	1	7
616.198	1	7
616.368	1	-3
616.537	1	-7
616.707	1	-6
616.877	1	3
617.046	1	0
617.216	1	9
617.386	1	2
617.555	1	-6
617.725	1	8
617.895	1	-3
618.064	1	1
618.234	1	3
618.404	1	7
618.573	1	-10
618.743	1	6
618.913	1	2
619.082	1	6
619.252	1	1
619.422	1	-3
619.591	1	3
619.761	1	0
619.931	1	5
620.100	1	14
620.270	1	-1
620.440	1	4
620.609	1	1
620.779	1	5
620.949	1	1
621.118	1	-6
621.288	1	6
621.458	1	3
621.627	1	0
621.797	1	-1
621.967	1	-7
622.136	1	10
622.306	1	-1
622.476	1	5
622.645	1	7
622.815	1	1
622.985	1	-2
623.154	1	7
623.324	1	8
623.494	1	-4
623.663	1	1
623.833	1	-4
624.002	1	-1
624.172	1	18
624.342	1	-9
624.511	1	9
624.681	1	-1
624.851	1	-8
625.020	1	-3
625.190	1	1
625.360	1	-1
625.529	1	7
625.699	1	-1
625.869	1	13
626.038	1	6
626.208	1	0
626.377	1	15
626.547	1	8
626.717	1	-1
626.886	1	-6
627.056	1	0
627.226	1	9
627.395	1	6
627.565	1	2
627.735	1	3
627.904	1	8
628.074	1	6
628.243	1	-9
628.413	1	3
628.583	1	-3
628.752	1	10
628.922	1	2
629.091	1	3
629.261	1	1
629.431	1	-7
629.600	1	13
629.770	1	7
629.940	1	5
630.109	1	-5
630.279	1	-3
630.448	1	-4
630.618	1	3
630.788	1	5
630.957	1	-8
631.127	1	13
631.297	1	-3
631.466	1	3
631.636	1	1
631.805	1	5
631.975	1	-8
632.145	1	1
632.314	1	16
632.484	1	-2
632.653	1	-8
632.823	1	9
632.993	1	10
633.162	1	0
633.332	1	2
633.501	1	6
633.671	1	0
633.841	1	9
634.010	1	3
634.180	1	9
634.349	1	9
634.519	1	-1
634.689	1	0
634.858	1	6
635.028	1	-2
635.197	1	-6
635.367	1	-11
635.537	1	2
635.706	1	-1
635.876	1	2
636.045	1	7
636.215	1	-2
636.384	1	-2
636.554	1	9
636.724	1	3
636.893	1	2
637.063	1	3
637.232	1	8
637.402	1	9
637.572	1	3
637.741	1	1
637.911	1	5
638.080	1	-1
638.250	1	3
638.419	1	9
638.589	1	5
638.759	1	-2
638.928	1	1
639.098	1	1
639.267	1	6
639.437	1	-9
639.606	1	17
639.776	1	-7
639.946	1	3
640.115	1	-10
640.285	1	-1
640.454	1	16
640.624	1	5
640.793	1	4
640.963	1	-7
641.132	1	7
641.302	1	1
641.472	1	-5
641.641	1	-4
641.811	1	-3
641.980	1	-8
642.150	1	-7
642.319	1	2
642.489	1	-3
642.659	1	-9
642.828	1	6
642.998	1	-4
643.167	1	11
643.337	1	3
643.506	1	1
643.676	1	2
643.845	1	0
644.015	1	0
644.184	1	8
644.354	1	4
644.524	1	-12
644.693	1	7
644.863	1	-6
645.032	1	-4
645.202	1	0
645.371	1	-5
645.541	1	-6
645.710	1	3
645.880	1	-2
646.049	1	7
646.219	1	9
646.388	1	2
646.558	1	-5
646.728	1	11
646.897	1	0
647.067	1	9
647.236	1	2
647.406	1	1
647.575	1	2
647.745	1	3
647.914	1	-2
648.084	1	7
648.253	1	-4
648.423	1	-4
648.592	1	0
648.762	1	3
648.931	1	8
649.101	1	2
649.270	1	11
649.440	1	8
649.610	1	12
649.779	1	-1
649.949	1	3
650.118	1	-6
650.288	1	1
650.457	1	0
650.627	1	5
650.796	1	-1
650.966	1	8
651.135	1	6
651.305	1	-4
651.474	1	4
651.644	1	-7
651.813	1	5
651.983	1	0
652.152	1	-4
652.322	1	7
652.491	1	1
652.661	1	6
652.830	1	1
653.000	1	1
653.169	1	3
653.339	1	1
653.508	1	-7
653.678	1	3
653.847	1	5
654.017	1	-4
654.186	1	3
654.356	1	14
654.525	1	-2
654.695	1	9
654.864	1	4
655.034	1	-3
655.203	1	0
655.373	1	-5
655.542	1	1
655.712	1	-5
655.881	1	8
656.051	1	5
656.220	1	14
656.390	1	0
656.559	1	-4
656.729	1	8
656.898	1	2
657.068	1	10
657.237	1	1
657.406	1	0
657.576	1	-1
657.745	1	-8
657.915	1	5
658.084	1	13
658.254	1	5
658.423	1	-13
658.593	1	-9
658.762	1	-5
658.932	1	3
659.101	1	2
659.271	1	1
659.440	1	19
659.610	1	-3
659.779	1	-11
659.949	1	-8
660.118	1	3
660.288	1	-2
660.457	1	-8
660.626	1	-5
660.796	1	0
660.965	1	2
661.135	1	3
661.304	1	6
661.474	1	13
661.643	1	-10
661.813	1	1
661.982	1	-1
662.152	1	8
662.321	1	-6
662.491	1	0
662.660	1	5
662.829	1	-4
662.999	1	3
663.168	1	1
663.338	1	-6
663.507	1	0
663.677	1	-7
663.846	1	4
664.016	1	-3
664.185	1	-1
664.354	1	3
664.524	1	-7
664.693	1	-2
664.863	1	5
665.032	1	5
665.202	1	-3
665.371	1	1
665.541	1	3
665.710	1	3
665.879	1	1
666.049	1	-7
666.218	1	-10
666.388	1	-3
666.557	1	2
666.727	1	-16
666.896	1	-4
667.065	1	5
667.235	1	-7
667.404	1	-14
667.574	1	11
667.743	1	-5
667.913	1	3
668.082	1	4
668.251	1	1
668.421	1	9
668.590	1	-6
668.760	1	-8
668.929	1	-3
669.099	1	-5
669.268	1	0
669.437	1	15
669.607	1	-13
669.776	1	4
669.946	1	11
670.115	1	5
670.285	1	5
670.454	1	-2
670.623	1	1
670.793	1	2
670.962	1	-3
671.132	1	-1
671.301	1	-3
671.470	1	-6
671.640	1	-12
671.809	1	-3
671.979	1	10
672.148	1	9
672.317	1	-8
672.487	1	0
672.656	1	7
672.826	1	-12
672.995	1	3
673.164	1	8
673.334	1	-1
673.503	1	3
673.673	1	7
673.842	1	-4
674.011	1	10
674.181	1	0
674.350	1	-5
674.520	1	-4
674.689	1	2
674.858	1	-2
675.028	1	-13
675.197	1	1
675.367	1	1
675.536	1	8
675.705	1	-7
675.875	1	1
676.044	1	-10
676.214	1	-1
676.383	1	-1
676.552	1	-6
676.722	1	-1
676.891	1	-9
677.060	1	-3
677.230	1	8
677.399	1	10
677.569	1	-7
677.738	1	-3
677.907	1	-11
678.077	1	3
678.246	1	-7
678.416	1	-4
678.585	1	2
678.754	1	-8
678.924	1	-6
679.093	1	0
679.262	1	8
679.432	1	-2
679.601	1	-15
679.771	1	2
679.940	1	4
680.109	1	1
680.279	1	-4
680.448	1	6
680.617	1	0
680.787	1	9
680.956	1	-4
681.125	1	-2
681.295	1	7
681.464	1	3
681.634	1	3
681.803	1	-12
681.972	1	-4
682.142	1	9
682.311	1	0
682.480	1	4
682.650	1	-4
682.819	1	4
682.988	1	-4
683.158	1	0
683.327	1	-2
683.496	1	-12
683.666	1	-1
683.835	1	7
684.004	1	3
684.174	1	3
684.343	1	-2
684.512	1	0
684.682	1	9
684.851	1	-10
685.021	1	2
685.190	1	10
685.359	1	-4
685.529	1	0
685.698	1	3
685.867	1	10
686.037	1	-2
686.206	1	3
686.375	1	1
686.545	1	0
686.714	1	-7
686.883	1	-8
687.053	1	2
687.222	1	1
687.391	1	0
687.561	1	7
687.730	1	-7
687.899	1	-4
688.069	1	6
688.238	1	-1
688.407	1	8
688.577	1	-12
688.746	1	1
