325.333	1	8
325.504	1	5
325.675	1	7
325.846	1	1
326.017	1	-4
326.188	1	7
326.359	1	13
326.531	1	-4
326.702	1	-6
326.873	1	9
327.044	1	7
327.215	1	1
327.386	1	-6
327.557	1	11
327.728	1	8
327.899	1	8
328.070	1	13
328.241	1	5
328.412	1	4
328.583	1	4
328.754	1	4
328.926	1	8
329.097	1	6
329.268	1	11
329.439	1	4
329.610	1	0
329.781	1	-2
329.952	1	0
330.123	1	4
330.294	1	8
330.465	1	10
330.636	1	12
330.807	1	4
330.978	1	3
331.149	1	9
331.320	1	-1
331.492	1	-1
331.663	1	-2
331.834	1	3
332.005	1	9
332.176	1	6
332.347	1	16
332.518	1	2
332.689	1	3
332.860	1	-5
333.031	1	2
333.202	1	2
333.373	1	-4
333.544	1	11
333.715	1	-1
333.886	1	7
334.057	1	12
334.228	1	-1
334.399	1	6
334.570	1	-4
334.741	1	-2
334.912	1	2
335.084	1	0
335.255	1	1
335.426	1	2
335.597	1	11
335.768	1	5
335.939	1	-7
336.110	1	-2
336.281	1	-4
336.452	1	0
336.623	1	15
336.794	1	4
336.965	1	-2
337.136	1	6
337.307	1	7
337.478	1	-3
337.649	1	6
337.820	1	6
337.991	1	2
338.162	1	10
338.333	1	2
338.504	1	6
338.675	1	-10
338.846	1	17
339.017	1	2
339.188	1	2
339.359	1	2
339.530	1	0
339.701	1	4
339.872	1	8
340.043	1	4
340.214	1	1
340.385	1	8
340.556	1	-4
340.727	1	10
340.898	1	8
341.069	1	-6
341.240	1	-12
341.411	1	4
341.582	1	-1
341.753	1	-7
341.924	1	4
342.095	1	6
342.266	1	-2
342.437	1	3
342.608	1	-1
342.779	1	-2
342.950	1	-5
343.121	1	10
343.292	1	12
343.463	1	11
343.634	1	8
343.805	1	2
343.976	1	2
344.147	1	2
344.318	1	-3
344.489	1	3
344.660	1	4
344.831	1	10
345.002	1	3
345.173	1	1
345.344	1	-2
345.515	1	-2
345.686	1	3
345.857	1	4
346.028	1	8
346.199	1	16
346.370	1	4
346.541	1	4
346.712	1	9
346.883	1	1
347.054	1	-8
347.225	1	-7
347.396	1	-9
347.567	1	3
347.738	1	-3
347.909	1	4
348.080	1	0
348.251	1	0
348.422	1	-7
348.593	1	-6
348.764	1	3
348.935	1	-6
349.106	1	-2
349.277	1	0
349.448	1	4
349.619	1	-2
349.790	1	3
349.961	1	-2
350.132	1	0
350.303	1	4
350.474	1	-3
350.645	1	9
350.816	1	-3
350.987	1	-2
351.157	1	-13
351.328	1	-11
351.499	1	-5
351.670	1	13
351.841	1	15
352.012	1	-4
352.183	1	-8
352.354	1	3
352.525	1	-2
352.696	1	14
352.867	1	-13
353.038	1	5
353.209	1	1
353.380	1	-3
353.551	1	-4
353.722	1	-3
353.893	1	-6
354.064	1	-3
354.235	1	-6
354.406	1	12
354.576	1	7
354.747	1	2
354.918	1	0
355.089	1	-9
355.260	1	8
355.431	1	7
355.602	1	-1
355.773	1	-5
355.944	1	-6
356.115	1	-9
356.286	1	-5
356.457	1	-3
356.628	1	0
356.799	1	-1
356.970	1	-2
357.141	1	-6
357.311	1	3
357.482	1	-1
357.653	1	-5
357.824	1	6
357.995	1	10
358.166	1	2
358.337	1	3
358.508	1	3
358.679	1	-4
358.850	1	7
359.021	1	4
359.192	1	2
359.363	1	0
359.533	1	8
359.704	1	7
359.875	1	-9
360.046	1	0
360.217	1	0
360.388	1	0
360.559	1	-6
360.730	1	-1
360.901	1	-3
361.072	1	-3
361.243	1	6
361.414	1	0
361.584	1	9
361.755	1	-2
361.926	1	-6
362.097	1	4
362.268	1	-3
362.439	1	4
362.610	1	2
362.781	1	6
362.952	1	-10
363.123	1	4
363.293	1	0
363.464	1	-8
363.635	1	0
363.806	1	3
363.977	1	-3
364.148	1	-6
364.319	1	4
364.490	1	2
364.661	1	2
364.832	1	-1
365.002	1	4
365.173	1	-8
365.344	1	-14
365.515	1	-9
365.686	1	-10
365.857	1	-8
366.028	1	7
366.199	1	-1
366.370	1	1
366.540	1	0
366.711	1	-5
366.882	1	2
367.053	1	0
367.224	1	-1
367.395	1	3
367.566	1	-5
367.737	1	-5
367.908	1	-10
368.078	1	-4
368.249	1	-5
368.420	1	13
368.591	1	-2
368.762	1	-6
368.933	1	-8
369.104	1	-4
369.274	1	-8
369.445	1	-3
369.616	1	-13
369.787	1	3
369.958	1	-6
370.129	1	-4
370.300	1	-3
370.471	1	0
370.641	1	-8
370.812	1	-4
370.983	1	-7
371.154	1	1
371.325	1	3
371.496	1	3
371.667	1	-1
371.837	1	-6
372.008	1	-3
372.179	1	4
372.350	1	-3
372.521	1	7
372.692	1	-9
372.863	1	-5
373.033	1	5
373.204	1	-1
373.375	1	-6
373.546	1	-3
373.717	1	-12
373.888	1	-5
374.059	1	-1
374.229	1	-6
374.400	1	4
374.571	1	-7
374.742	1	-1
374.913	1	-6
375.084	1	-2
375.254	1	0
375.425	1	-1
375.596	1	3
375.767	1	-3
375.938	1	-8
376.109	1	-7
376.279	1	-6
376.450	1	2
376.621	1	1
376.792	1	-12
376.963	1	5
377.134	1	-13
377.304	1	-1
377.475	1	-8
377.646	1	2
377.817	1	-10
377.988	1	2
378.159	1	1
378.329	1	1
378.500	1	-13
378.671	1	-8
378.842	1	-2
379.013	1	-5
379.184	1	1
379.354	1	3
379.525	1	-7
379.696	1	-7
379.867	1	2
380.038	1	-2
380.209	1	-6
380.379	1	-12
380.550	1	3
380.721	1	-16
380.892	1	-1
381.063	1	2
381.233	1	9
381.404	1	2
381.575	1	-2
381.746	1	-7
381.917	1	9
382.087	1	-3
382.258	1	-5
382.429	1	-2
382.600	1	-4
382.771	1	-1
382.941	1	0
383.112	1	-1
383.283	1	3
383.454	1	2
383.625	1	-2
383.795	1	-1
383.966	1	-3
384.137	1	-3
384.308	1	4
384.479	1	1
384.649	1	-3
384.820	1	-1
384.991	1	-6
385.162	1	-5
385.333	1	6
385.503	1	-3
385.674	1	0
385.845	1	-6
386.016	1	-1
386.187	1	1
386.357	1	4
386.528	1	-5
386.699	1	-9
386.870	1	1
387.041	1	-7
387.211	1	6
387.382	1	-2
387.553	1	-2
387.724	1	1
387.894	1	7
388.065	1	4
388.236	1	-2
388.407	1	9
388.578	1	-2
388.748	1	2
388.919	1	-11
389.090	1	1
389.261	1	1
389.431	1	-4
389.602	1	5
389.773	1	-1
389.944	1	2
390.114	1	4
390.285	1	-2
390.456	1	6
390.627	1	-2
390.798	1	-9
390.968	1	-3
391.139	1	-1
391.310	1	-4
391.481	1	-7
391.651	1	4
391.822	1	-3
391.993	1	-9
392.164	1	4
392.334	1	1
392.505	1	-8
392.676	1	2
392.847	1	5
393.017	1	-2
393.188	1	-3
393.359	1	-2
393.530	1	7
393.700	1	7
393.871	1	-6
394.042	1	-3
394.213	1	-2
394.383	1	-3
394.554	1	-5
394.725	1	-4
394.896	1	1
395.066	1	-11
395.237	1	-6
395.408	1	-3
395.579	1	-4
395.749	1	7
395.920	1	-5
396.091	1	1
396.262	1	-2
396.432	1	-11
396.603	1	9
396.774	1	-9
396.945	1	-5
397.115	1	12
397.286	1	-9
397.457	1	-3
397.627	1	-4
397.798	1	5
397.969	1	-3
398.140	1	20
398.310	1	-2
398.481	1	-7
398.652	1	-11
398.823	1	-9
398.993	1	3
399.164	1	11
399.335	1	-4
399.505	1	12
399.676	1	1
399.847	1	-3
400.018	1	-7
400.188	1	2
400.359	1	1
400.530	1	-6
400.700	1	3
400.871	1	3
401.042	1	2
401.213	1	7
401.383	1	6
401.554	1	5
401.725	1	-2
401.895	1	-7
402.066	1	3
402.237	1	-7
402.408	1	-12
402.578	1	-6
402.749	1	2
402.920	1	6
403.090	1	7
403.261	1	1
403.432	1	-1
403.603	1	2
403.773	1	1
403.944	1	3
404.115	1	2
404.285	1	9
404.456	1	8
404.627	1	0
404.797	1	5
404.968	1	-1
405.139	1	2
405.310	1	11
405.480	1	1
405.651	1	12
405.822	1	-4
405.992	1	-5
406.163	1	1
406.334	1	-6
406.504	1	-5
406.675	1	2
406.846	1	1
407.016	1	3
407.187	1	-15
407.358	1	0
407.528	1	-9
407.699	1	7
407.870	1	0
408.041	1	-4
408.211	1	-17
408.382	1	15
408.553	1	-4
408.723	1	-5
408.894	1	4
409.065	1	-6
409.235	1	-4
409.406	1	1
409.577	1	8
409.747	1	-5
409.918	1	18
410.089	1	7
410.259	1	2
410.430	1	1
410.601	1	0
410.771	1	-3
410.942	1	11
411.113	1	3
411.283	1	5
411.454	1	-7
411.625	1	14
411.795	1	9
411.966	1	4
412.137	1	1
412.307	1	-1
412.478	1	4
412.649	1	-8
412.819	1	-10
412.990	1	-14
413.161	1	2
413.331	1	0
413.502	1	2
413.672	1	-4
413.843	1	5
414.014	1	-2
414.184	1	-3
414.355	1	-4
414.526	1	7
414.696	1	14
414.867	1	-1
415.038	1	8
415.208	1	-1
415.379	1	-1
415.550	1	11
415.720	1	-2
415.891	1	11
416.062	1	-9
416.232	1	0
416.403	1	10
416.573	1	-7
416.744	1	2
416.915	1	6
417.085	1	17
417.256	1	1
417.427	1	8
417.597	1	7
417.768	1	3
417.939	1	4
418.109	1	-6
418.280	1	7
418.450	1	9
418.621	1	10
418.792	1	-6
418.962	1	12
419.133	1	-7
419.304	1	4
419.474	1	7
419.645	1	9
419.815	1	-1
419.986	1	4
420.157	1	2
420.327	1	-1
420.498	1	5
420.669	1	1
420.839	1	5
421.010	1	2
421.180	1	9
421.351	1	5
421.522	1	-5
421.692	1	0
421.863	1	0
422.033	1	-7
422.204	1	-1
422.375	1	6
422.545	1	12
422.716	1	-2
422.886	1	8
423.057	1	4
423.228	1	16
423.398	1	-5
423.569	1	-5
423.740	1	-1
423.910	1	11
424.081	1	7
424.251	1	0
424.422	1	0
424.593	1	8
424.763	1	-2
424.934	1	18
425.104	1	3
425.275	1	-4
425.445	1	-4
425.616	1	5
425.787	1	-2
425.957	1	14
426.128	1	3
426.298	1	6
426.469	1	5
426.640	1	1
426.810	1	7
426.981	1	-1
427.151	1	10
427.322	1	4
427.493	1	8
427.663	1	11
427.834	1	16
428.004	1	-9
428.175	1	5
428.345	1	0
428.516	1	-2
428.687	1	9
428.857	1	5
429.028	1	14
429.198	1	4
429.369	1	7
429.540	1	3
429.710	1	6
429.881	1	1
430.051	1	14
430.222	1	9
430.392	1	3
430.563	1	0
430.734	1	7
430.904	1	13
431.075	1	2
431.245	1	11
431.416	1	11
431.586	1	2
431.757	1	6
431.927	1	4
432.098	1	16
432.269	1	1
432.439	1	4
432.610	1	5
432.780	1	16
432.951	1	-1
433.121	1	9
433.292	1	0
433.462	1	-2
433.633	1	-1
433.804	1	1
433.974	1	-4
434.145	1	2
434.315	1	12
434.486	1	16
434.656	1	7
434.827	1	-2
434.997	1	-1
435.168	1	8
435.339	1	13
435.509	1	3
435.680	1	12
435.850	1	2
436.021	1	4
436.191	1	22
436.362	1	3
436.532	1	24
436.703	1	9
436.873	1	6
437.044	1	1
437.214	1	-5
437.385	1	11
437.556	1	1
437.726	1	-3
437.897	1	-6
438.067	1	9
438.238	1	7
438.408	1	6
438.579	1	10
438.749	1	10
438.920	1	8
439.090	1	8
439.261	1	12
439.431	1	13
439.602	1	8
439.772	1	-2
439.943	1	-2
440.113	1	9
440.284	1	-1
440.455	1	13
440.625	1	-2
440.796	1	5
440.966	1	10
441.137	1	12
441.307	1	2
441.478	1	0
441.648	1	2
441.819	1	8
441.989	1	15
442.160	1	5
442.330	1	-2
442.501	1	8
442.671	1	12
442.842	1	-1
443.012	1	6
443.183	1	-4
443.353	1	10
443.524	1	6
443.694	1	7
443.865	1	9
444.035	1	5
444.206	1	11
444.376	1	13
444.547	1	8
444.717	1	8
444.888	1	12
445.058	1	19
445.229	1	6
445.399	1	9
445.570	1	14
445.740	1	6
445.911	1	3
446.081	1	12
446.252	1	7
446.422	1	13
446.593	1	5
446.763	1	4
446.934	1	13
447.104	1	3
447.275	1	8
447.445	1	4
447.616	1	5
447.786	1	16
447.957	1	13
448.127	1	2
448.298	1	-1
448.468	1	22
448.639	1	10
448.809	1	15
448.979	1	7
449.150	1	8
449.320	1	12
449.491	1	13
449.661	1	7
449.832	1	8
450.002	1	12
450.173	1	3
450.343	1	7
450.514	1	10
450.684	1	8
450.855	1	11
451.025	1	12
451.196	1	13
451.366	1	10
451.537	1	6
451.707	1	9
451.878	1	2
452.048	1	16
452.218	1	10
452.389	1	6
452.559	1	2
452.730	1	7
452.900	1	16
453.071	1	5
453.241	1	3
453.412	1	16
453.582	1	5
453.753	1	6
453.923	1	17
454.093	1	14
454.264	1	19
454.434	1	15
454.605	1	-1
454.775	1	4
454.946	1	17
455.116	1	7
455.287	1	10
455.457	1	2
455.628	1	13
455.798	1	17
455.968	1	13
456.139	1	8
456.309	1	15
456.480	1	3
456.650	1	10
456.821	1	9
456.991	1	-1
457.161	1	14
457.332	1	2
457.502	1	3
457.673	1	19
457.843	1	10
458.014	1	5
458.184	1	12
458.355	1	11
458.525	1	0
458.695	1	7
458.866	1	7
459.036	1	4
459.207	1	10
459.377	1	20
459.548	1	9
459.718	1	0
459.888	1	-2
460.059	1	4
460.229	1	11
460.400	1	-5
460.570	1	4
460.740	1	13
460.911	1	19
461.081	1	16
461.252	1	7
461.422	1	12
461.593	1	1
461.763	1	18
461.933	1	4
462.104	1	11
462.274	1	7
462.445	1	15
462.615	1	-1
462.785	1	6
462.956	1	4
463.126	1	12
463.297	1	0
463.467	1	19
463.638	1	5
463.808	1	6
463.978	1	12
464.149	1	9
464.319	1	6
464.490	1	15
464.660	1	3
464.830	1	18
465.001	1	8
465.171	1	-1
465.342	1	19
465.512	1	-4
465.682	1	-6
465.853	1	-4
466.023	1	9
466.194	1	4
466.364	1	1
466.534	1	13
466.705	1	8
466.875	1	7
467.045	1	-1
467.216	1	2
467.386	1	3
467.557	1	9
467.727	1	10
467.897	1	-3
468.068	1	9
468.238	1	3
468.409	1	1
468.579	1	7
468.749	1	7
468.920	1	10
469.090	1	-3
469.260	1	11
469.431	1	7
469.601	1	5
469.772	1	1
469.942	1	6
470.112	1	2
470.283	1	3
470.453	1	2
470.623	1	-4
470.794	1	8
470.964	1	15
471.135	1	0
471.305	1	10
471.475	1	13
471.646	1	5
471.816	1	8
471.986	1	8
472.157	1	10
472.327	1	10
472.497	1	8
472.668	1	12
472.838	1	10
473.009	1	10
473.179	1	8
473.349	1	5
473.520	1	1
473.690	1	3
473.860	1	18
474.031	1	5
474.201	1	8
474.371	1	12
474.542	1	15
474.712	1	4
474.882	1	3
475.053	1	-1
475.223	1	-3
475.394	1	-2
475.564	1	-4
475.734	1	13
475.905	1	-2
476.075	1	16
476.245	1	6
476.416	1	7
476.586	1	0
476.756	1	5
476.927	1	11
477.097	1	7
477.267	1	6
477.438	1	0
477.608	1	-1
477.778	1	18
477.949	1	11
478.119	1	9
478.289	1	2
478.460	1	6
478.630	1	9
478.800	1	-5
478.971	1	-3
479.141	1	2
479.311	1	19
479.482	1	8
479.652	1	7
479.822	1	-1
479.993	1	-3
480.163	1	8
480.333	1	5
480.504	1	7
480.674	1	0
480.844	1	6
481.015	1	-2
481.185	1	3
481.355	1	5
481.525	1	8
481.696	1	11
481.866	1	2
482.036	1	10
482.207	1	0
482.377	1	8
482.547	1	14
482.718	1	7
482.888	1	1
483.058	1	7
483.229	1	9
483.399	1	5
483.569	1	12
483.740	1	0
483.910	1	1
484.080	1	5
484.250	1	5
484.421	1	10
484.591	1	11
484.761	1	9
484.932	1	0
485.102	1	12
485.272	1	-1
485.443	1	5
485.613	1	6
485.783	1	9
485.953	1	13
486.124	1	8
486.294	1	5
486.464	1	1
486.635	1	10
486.805	1	4
486.975	1	14
487.146	1	8
487.316	1	16
487.486	1	7
487.656	1	7
487.827	1	-8
487.997	1	2
488.167	1	0
488.338	1	2
488.508	1	8
488.678	1	0
488.848	1	-1
489.019	1	5
489.189	1	3
489.359	1	1
489.529	1	-3
489.700	1	3
489.870	1	4
490.040	1	9
490.211	1	12
490.381	1	10
490.551	1	2
490.721	1	6
490.892	1	1
491.062	1	13
491.232	1	11
491.402	1	2
491.573	1	0
491.743	1	-5
491.913	1	11
492.084	1	9
492.254	1	6
492.424	1	4
492.594	1	5
492.765	1	0
492.935	1	-2
493.105	1	5
493.275	1	11
493.446	1	1
493.616	1	-1
493.786	1	15
493.956	1	5
494.127	1	7
494.297	1	6
494.467	1	7
494.637	1	3
494.808	1	1
494.978	1	6
495.148	1	6
495.318	1	-10
495.489	1	4
495.659	1	5
495.829	1	-6
495.999	1	16
496.170	1	4
496.340	1	10
496.510	1	0
496.680	1	0
496.851	1	10
497.021	1	0
497.191	1	6
497.361	1	4
497.532	1	2
497.702	1	8
497.872	1	9
498.042	1	6
498.213	1	-4
498.383	1	2
498.553	1	5
498.723	1	10
498.894	1	5
499.064	1	-4
499.234	1	2
499.404	1	3
499.574	1	10
499.745	1	3
499.915	1	0
500.085	1	-4
500.255	1	-2
500.426	1	0
500.596	1	10
500.766	1	1
500.936	1	-1
501.106	1	4
501.277	1	10
501.447	1	-10
501.617	1	13
501.787	1	2
501.958	1	7
502.128	1	3
502.298	1	-1
502.468	1	9
502.638	1	7
502.809	1	6
502.979	1	4
503.149	1	20
503.319	1	6
503.489	1	7
503.660	1	-4
503.830	1	18
504.000	1	-7
504.170	1	10
504.340	1	-3
504.511	1	9
504.681	1	2
504.851	1	-1
505.021	1	-7
505.192	1	10
505.362	1	2
505.532	1	0
505.702	1	-2
505.872	1	2
506.043	1	4
506.213	1	7
506.383	1	5
506.553	1	13
506.723	1	5
506.893	1	-2
507.064	1	10
507.234	1	7
507.404	1	-7
507.574	1	-6
507.744	1	5
507.915	1	6
508.085	1	11
508.255	1	6
508.425	1	1
508.595	1	14
508.766	1	3
508.936	1	4
509.106	1	6
509.276	1	-1
509.446	1	8
509.616	1	-1
509.787	1	4
509.957	1	5
510.127	1	7
510.297	1	-3
510.467	1	17
510.638	1	7
510.808	1	5
510.978	1	2
511.148	1	0
511.318	1	0
511.488	1	3
511.659	1	8
511.829	1	5
511.999	1	3
512.169	1	8
512.339	1	3
512.509	1	8
512.680	1	2
512.850	1	0
513.020	1	-3
513.190	1	12
513.360	1	6
513.530	1	2
513.700	1	0
513.871	1	4
514.041	1	-2
514.211	1	-5
514.381	1	5
514.551	1	-1
514.721	1	11
514.892	1	5
515.062	1	10
515.232	1	-3
515.402	1	11
515.572	1	-6
515.742	1	4
515.912	1	12
516.083	1	4
516.253	1	-10
516.423	1	0
516.593	1	3
516.763	1	13
516.933	1	-5
517.104	1	1
517.274	1	7
517.444	1	1
517.614	1	-9
517.784	1	7
517.954	1	-5
518.124	1	10
518.294	1	-4
518.465	1	-1
518.635	1	1
518.805	1	13
518.975	1	-1
519.145	1	3
519.315	1	4
519.485	1	1
519.656	1	8
519.826	1	-3
519.996	1	-5
520.166	1	3
520.336	1	2
520.506	1	-1
520.676	1	-11
520.846	1	-1
521.017	1	1
521.187	1	16
521.357	1	1
521.527	1	-3
521.697	1	-5
521.867	1	-6
522.037	1	-5
522.207	1	12
522.377	1	-1
522.548	1	3
522.718	1	-8
522.888	1	11
523.058	1	5
523.228	1	-3
523.398	1	13
523.568	1	1
523.738	1	6
523.909	1	13
524.079	1	7
524.249	1	-6
524.419	1	2
524.589	1	-2
524.759	1	-4
524.929	1	4
525.099	1	2
525.269	1	4
525.439	1	-7
525.610	1	12
525.780	1	-5
525.950	1	-5
526.120	1	-1
526.290	1	1
526.460	1	8
526.630	1	10
526.800	1	1
526.970	1	-2
527.140	1	-2
527.311	1	5
527.481	1	-7
527.651	1	14
527.821	1	-5
527.991	1	-3
528.161	1	13
528.331	1	5
528.501	1	-13
528.671	1	-2
528.841	1	-7
529.011	1	1
529.181	1	1
529.352	1	-2
529.522	1	-5
529.692	1	-3
529.862	1	5
530.032	1	-4
530.202	1	-6
530.372	1	5
530.542	1	-2
530.712	1	3
530.882	1	-10
531.052	1	3
531.222	1	11
531.392	1	14
531.563	1	3
531.733	1	-7
531.903	1	-4
532.073	1	2
532.243	1	4
532.413	1	9
532.583	1	4
532.753	1	14
532.923	1	1
533.093	1	2
533.263	1	14
533.433	1	-1
533.603	1	8
533.773	1	-5
533.943	1	5
534.113	1	9
534.284	1	7
534.454	1	12
534.624	1	-13
534.794	1	1
534.964	1	7
535.134	1	-5
535.304	1	-1
535.474	1	-4
535.644	1	-9
535.814	1	4
535.984	1	10
536.154	1	5
536.324	1	1
536.494	1	-1
536.664	1	5
536.834	1	-1
537.004	1	1
537.174	1	0
537.344	1	13
537.514	1	-2
537.685	1	-2
537.855	1	6
538.025	1	8
538.195	1	1
538.365	1	-7
538.535	1	-19
538.705	1	6
538.875	1	8
539.045	1	-10
539.215	1	-9
539.385	1	5
539.555	1	3
539.725	1	4
539.895	1	-13
540.065	1	8
540.235	1	4
540.405	1	2
540.575	1	8
540.745	1	9
540.915	1	-2
541.085	1	3
541.255	1	-3
541.425	1	10
541.595	1	-8
541.765	1	0
541.935	1	8
542.105	1	2
542.275	1	-3
542.445	1	0
542.615	1	7
542.785	1	0
542.955	1	2
543.125	1	-2
543.295	1	-3
543.465	1	8
543.635	1	-7
543.805	1	1
543.975	1	-4
544.145	1	4
544.315	1	-8
544.485	1	5
544.655	1	15
544.825	1	2
544.995	1	16
545.165	1	-2
545.335	1	-4
545.505	1	6
545.675	1	12
545.845	1	-3
546.015	1	-1
546.185	1	7
546.355	1	3
546.525	1	11
546.695	1	2
546.865	1	6
547.035	1	0
547.205	1	18
547.375	1	-1
547.545	1	-5
547.715	1	7
547.885	1	-3
548.055	1	-6
548.225	1	13
548.395	1	-3
548.565	1	5
548.735	1	5
548.905	1	-1
549.075	1	0
549.245	1	-5
549.415	1	2
549.585	1	-2
549.755	1	0
549.925	1	12
550.095	1	2
550.265	1	-5
550.435	1	9
550.605	1	1
550.775	1	8
550.945	1	6
551.115	1	2
551.285	1	0
551.455	1	-4
551.625	1	7
551.795	1	-9
551.965	1	-6
552.135	1	-8
552.305	1	2
552.475	1	9
552.645	1	6
552.815	1	7
552.985	1	2
553.155	1	-1
553.325	1	-1
553.495	1	-2
553.665	1	1
553.835	1	-5
554.004	1	-4
554.174	1	7
554.344	1	-5
554.514	1	4
554.684	1	-5
554.854	1	6
555.024	1	-5
555.194	1	6
555.364	1	4
555.534	1	7
555.704	1	11
555.874	1	-1
556.044	1	-5
556.214	1	14
556.384	1	7
556.554	1	-1
556.724	1	1
556.894	1	-2
557.064	1	5
557.234	1	8
557.404	1	4
557.573	1	1
557.743	1	6
557.913	1	6
558.083	1	-5
558.253	1	-1
558.423	1	1
558.593	1	6
558.763	1	-1
558.933	1	-6
559.103	1	3
559.273	1	8
559.443	1	-4
559.613	1	1
559.783	1	0
559.953	1	-9
560.122	1	-5
560.292	1	-3
560.462	1	6
560.632	1	6
560.802	1	11
560.972	1	7
561.142	1	4
561.312	1	2
561.482	1	0
561.652	1	-11
561.822	1	-1
561.992	1	-6
562.162	1	1
562.331	1	10
562.501	1	3
562.671	1	-7
562.841	1	-3
563.011	1	10
563.181	1	5
563.351	1	4
563.521	1	-18
563.691	1	9
563.861	1	1
564.031	1	-2
564.201	1	0
564.370	1	7
564.540	1	5
564.710	1	-5
564.880	1	4
565.050	1	-7
565.220	1	3
565.390	1	2
565.560	1	6
565.730	1	2
565.900	1	11
566.069	1	-13
566.239	1	3
566.409	1	3
566.579	1	-9
566.749	1	-4
566.919	1	-6
567.089	1	3
567.259	1	-2
567.429	1	16
567.599	1	1
567.768	1	10
567.938	1	0
568.108	1	0
568.278	1	7
568.448	1	-5
568.618	1	10
568.788	1	-7
568.958	1	8
569.128	1	-3
569.297	1	11
569.467	1	16
569.637	1	-5
569.807	1	6
569.977	1	-8
570.147	1	0
570.317	1	-7
570.487	1	6
570.656	1	-3
570.826	1	-1
570.996	1	-11
571.166	1	5
571.336	1	-7
571.506	1	-5
571.676	1	-1
571.846	1	0
572.015	1	-3
572.185	1	-5
572.355	1	5
572.525	1	3
572.695	1	8
572.865	1	8
573.035	1	6
573.205	1	4
573.374	1	-7
573.544	1	-4
573.714	1	3
573.884	1	0
574.054	1	10
574.224	1	1
574.394	1	-10
574.563	1	3
574.733	1	8
574.903	1	7
575.073	1	-1
575.243	1	-3
575.413	1	-3
575.583	1	9
575.752	1	-2
575.922	1	11
576.092	1	6
576.262	1	2
576.432	1	0
576.602	1	8
576.772	1	-4
576.941	1	3
577.111	1	-1
577.281	1	10
577.451	1	-3
577.621	1	4
577.791	1	7
577.960	1	-1
578.130	1	-1
578.300	1	0
578.470	1	3
578.640	1	0
578.810	1	-7
578.979	1	-4
579.149	1	6
579.319	1	3
579.489	1	6
579.659	1	-1
579.829	1	4
579.998	1	1
580.168	1	-5
580.338	1	4
580.508	1	7
580.678	1	-8
580.848	1	3
581.017	1	1
581.187	1	11
581.357	1	-6
581.527	1	-9
581.697	1	-14
581.867	1	8
582.036	1	-9
582.206	1	-3
582.376	1	3
582.546	1	12
582.716	1	12
582.885	1	-1
583.055	1	-1
583.225	1	1
583.395	1	6
583.565	1	-1
583.735	1	7
583.904	1	5
584.074	1	4
584.244	1	-3
584.414	1	7
584.584	1	8
584.753	1	-10
584.923	1	-5
585.093	1	2
585.263	1	4
585.433	1	-3
585.602	1	7
585.772	1	2
585.942	1	3
586.112	1	-5
586.282	1	3
586.451	1	17
586.621	1	1
586.791	1	8
586.961	1	3
587.131	1	-1
587.300	1	2
587.470	1	-10
587.640	1	1
587.810	1	7
587.980	1	-8
588.149	1	8
588.319	1	4
588.489	1	-6
588.659	1	1
588.829	1	-1
588.998	1	9
589.168	1	0
589.338	1	7
589.508	1	1
589.677	1	5
589.847	1	-7
590.017	1	13
590.187	1	-5
590.357	1	16
590.526	1	0
590.696	1	-9
590.866	1	-9
591.036	1	5
591.205	1	-2
591.375	1	-8
591.545	1	1
591.715	1	-12
591.885	1	0
592.054	1	-1
592.224	1	4
592.394	1	4
592.564	1	5
592.733	1	0
592.903	1	10
593.073	1	1
593.243	1	2
593.412	1	3
593.582	1	-5
593.752	1	8
593.922	1	5
594.091	1	3
594.261	1	1
594.431	1	1
594.601	1	4
594.771	1	-10
594.940	1	6
595.110	1	5
595.280	1	8
595.450	1	5
595.619	1	-2
595.789	1	4
595.959	1	8
596.129	1	16
596.298	1	-2
596.468	1	4
596.638	1	1
596.808	1	-1
596.977	1	10
597.147	1	7
597.317	1	7
597.487	1	-3
597.656	1	-13
597.826	1	5
597.996	1	0
598.166	1	-3
598.335	1	4
598.505	1	12
598.675	1	2
598.844	1	7
599.014	1	3
599.184	1	3
599.354	1	19
599.523	1	11
599.693	1	6
599.863	1	-1
600.033	1	-7
600.202	1	-1
600.372	1	8
600.542	1	11
600.712	1	-4
600.881	1	9
601.051	1	5
601.221	1	1
601.390	1	-6
601.560	1	2
601.730	1	4
601.900	1	0
602.069	1	2
602.239	1	1
602.409	1	-1
602.578	1	4
602.748	1	-1
602.918	1	2
603.088	1	1
603.257	1	1
603.427	1	4
603.597	1	2
603.767	1	4
603.936	1	2
604.106	1	-6
604.276	1	6
604.445	1	-5
604.615	1	11
604.785	1	5
604.954	1	4
605.124	1	13
605.294	1	2
605.464	1	13
605.633	1	10
605.803	1	1
605.973	1	6
606.142	1	8
606.312	1	11
606.482	1	-8
606.652	1	7
606.821	1	11
606.991	1	-3
607.161	1	-7
607.330	1	9
607.500	1	9
607.670	1	11
607.839	1	5
608.009	1	1
608.179	1	2
608.348	1	5
608.518	1	2
608.688	1	3
608.858	1	-3
609.027	1	12
609.197	1	-5
609.367	1	3
609.536	1	10
609.706	1	4
609.876	1	11
610.045	1	15
610.215	1	11
610.385	1	8
610.554	1	11
610.724	1	3
610.894	1	6
611.063	1	5
611.233	1	1
611.403	1	10
611.572	1	6
611.742	1	6
611.912	1	-1
612.081	1	4
612.251	1	9
612.421	1	8
612.590	1	-7
612.760	1	8
612.930	1	12
613.099	1	12
613.269	1	4
613.439	1	11
613.608	1	8
613.778	1	13
613.948	1	-1
614.117	1	5
614.287	1	-4
614.457	1	1
614.626	1	8
614.796	1	8
614.966	1	10
615.135	1	10
615.305	1	16
615.475	1	13
615.644	1	3
615.814	1	3
615.984	1	9
616.153	1	5
616.323	1	4
616.493	1	1
616.662	1	9
616.832	1	3
617.002	1	5
617.171	1	12
617.341	1	16
617.511	1	9
617.680	1	-2
617.850	1	15
618.019	1	6
618.189	1	0
618.359	1	0
618.528	1	7
618.698	1	6
618.868	1	2
619.037	1	11
619.207	1	12
619.377	1	8
619.546	1	3
619.716	1	10
619.885	1	14
620.055	1	8
620.225	1	5
620.394	1	8
620.564	1	12
620.734	1	9
620.903	1	21
621.073	1	8
621.242	1	22
621.412	1	8
621.582	1	15
621.751	1	0
621.921	1	4
622.091	1	6
622.260	1	-1
622.430	1	15
622.599	1	3
622.769	1	4
622.939	1	-3
623.108	1	1
623.278	1	3
623.448	1	3
623.617	1	6
623.787	1	13
623.956	1	-3
624.126	1	16
624.296	1	6
624.465	1	14
624.635	1	1
624.804	1	9
624.974	1	11
625.144	1	13
625.313	1	1
625.483	1	11
625.652	1	5
625.822	1	15
625.992	1	18
626.161	1	9
626.331	1	17
626.501	1	-1
626.670	1	5
626.840	1	4
627.009	1	9
627.179	1	17
627.348	1	8
627.518	1	-3
627.688	1	6
627.857	1	3
628.027	1	8
628.196	1	3
628.366	1	9
628.536	1	6
628.705	1	5
628.875	1	-1
629.044	1	0
629.214	1	4
629.384	1	2
629.553	1	16
629.723	1	-1
629.892	1	13
630.062	1	3
630.232	1	1
630.401	1	13
630.571	1	10
630.740	1	3
630.910	1	9
631.079	1	19
631.249	1	5
631.419	1	5
631.588	1	10
631.758	1	3
631.927	1	18
632.097	1	4
632.266	1	-10
632.436	1	14
632.606	1	10
632.775	1	8
632.945	1	0
633.114	1	3
633.284	1	10
633.453	1	7
633.623	1	15
633.793	1	7
633.962	1	7
634.132	1	-2
634.301	1	12
634.471	1	5
634.640	1	-7
634.810	1	5
634.979	1	1
635.149	1	-1
635.319	1	8
635.488	1	3
635.658	1	4
635.827	1	7
635.997	1	12
636.166	1	10
636.336	1	4
636.505	1	6
636.675	1	9
636.845	1	5
637.014	1	6
637.184	1	4
637.353	1	10
637.523	1	5
637.692	1	9
637.862	1	5
638.031	1	-2
638.201	1	-4
638.370	1	15
638.540	1	1
638.710	1	7
638.879	1	13
639.049	1	6
639.218	1	11
639.388	1	11
639.557	1	-5
639.727	1	13
639.896	1	11
640.066	1	5
640.235	1	-4
640.405	1	18
640.574	1	15
640.744	1	14
640.914	1	10
641.083	1	10
641.253	1	8
641.422	1	7
641.592	1	-3
641.761	1	1
641.931	1	6
642.100	1	6
642.270	1	5
642.439	1	7
642.609	1	8
642.778	1	3
642.948	1	-2
643.117	1	5
643.287	1	2
643.456	1	7
643.626	1	5
643.795	1	7
643.965	1	7
644.134	1	13
644.304	1	-2
644.473	1	11
644.643	1	-7
644.812	1	4
644.982	1	2
645.151	1	6
645.321	1	5
645.490	1	-2
645.660	1	10
645.829	1	9
645.999	1	11
646.168	1	11
646.338	1	-3
646.507	1	7
646.677	1	-5
646.846	1	-5
647.016	1	8
647.185	1	4
647.355	1	5
647.524	1	1
647.694	1	8
647.863	1	3
648.033	1	1
648.202	1	6
648.372	1	6
648.541	1	-1
648.711	1	3
648.880	1	2
649.050	1	0
649.219	1	-2
649.389	1	6
649.558	1	10
649.728	1	3
649.897	1	14
650.067	1	-2
650.236	1	-1
650.406	1	1
650.575	1	-3
650.745	1	6
650.914	1	11
651.084	1	-6
651.253	1	4
651.423	1	16
651.592	1	0
651.762	1	13
651.931	1	12
652.101	1	-1
652.270	1	-2
652.440	1	17
652.609	1	7
652.778	1	9
652.948	1	-2
653.117	1	20
653.287	1	-5
653.456	1	-6
653.626	1	10
653.795	1	-4
653.965	1	14
654.134	1	3
654.304	1	9
654.473	1	1
654.643	1	5
654.812	1	10
654.982	1	10
655.151	1	8
655.320	1	2
655.490	1	1
655.659	1	18
655.829	1	4
655.998	1	-2
656.168	1	-5
656.337	1	-11
656.507	1	-4
656.676	1	15
656.846	1	16
657.015	1	2
657.184	1	1
657.354	1	-5
657.523	1	-4
657.693	1	1
657.862	1	0
658.032	1	10
658.201	1	4
658.371	1	5
658.540	1	0
658.709	1	-2
658.879	1	8
659.048	1	2
659.218	1	-1
659.387	1	-1
659.557	1	3
659.726	1	3
659.895	1	3
660.065	1	6
660.234	1	0
660.404	1	-5
660.573	1	-1
660.743	1	0
660.912	1	-4
661.081	1	7
661.251	1	0
661.420	1	3
661.590	1	-4
661.759	1	1
661.929	1	0
662.098	1	6
662.267	1	-8
662.437	1	-2
662.606	1	-2
662.776	1	-1
662.945	1	7
663.115	1	-5
663.284	1	-4
663.453	1	12
663.623	1	2
663.792	1	-5
663.962	1	2
664.131	1	-7
664.300	1	-3
664.470	1	-4
664.639	1	13
664.809	1	4
664.978	1	1
665.148	1	2
665.317	1	-4
665.486	1	0
665.656	1	19
665.825	1	15
665.995	1	-10
666.164	1	9
666.333	1	-1
666.503	1	4
666.672	1	0
666.842	1	8
667.011	1	5
667.180	1	-2
667.350	1	-1
667.519	1	-9
667.689	1	5
667.858	1	-4
668.027	1	9
668.197	1	4
668.366	1	-1
668.536	1	10
668.705	1	4
668.874	1	5
669.044	1	-7
669.213	1	1
669.382	1	3
669.552	1	-7
669.721	1	3
669.891	1	7
670.060	1	6
670.229	1	-2
670.399	1	5
670.568	1	-2
670.738	1	4
670.907	1	-5
671.076	1	0
671.246	1	1
671.415	1	1
671.584	1	6
671.754	1	0
671.923	1	9
672.093	1	9
672.262	1	10
672.431	1	-3
672.601	1	5
672.770	1	0
672.939	1	1
673.109	1	-8
673.278	1	1
673.448	1	0
673.617	1	-3
673.786	1	-1
