325.333	1	4
325.504	1	5
325.675	1	11
325.846	1	5
326.017	1	1
326.188	1	6
326.359	1	26
326.531	1	-10
326.702	1	2
326.873	1	6
327.044	1	6
327.215	1	-2
327.386	1	-1
327.557	1	16
327.728	1	-4
327.899	1	5
328.070	1	-3
328.241	1	4
328.412	1	9
328.583	1	3
328.754	1	1
328.926	1	6
329.097	1	9
329.268	1	10
329.439	1	-8
329.610	1	5
329.781	1	-7
329.952	1	-2
330.123	1	-5
330.294	1	10
330.465	1	2
330.636	1	7
330.807	1	2
330.978	1	11
331.149	1	9
331.320	1	7
331.492	1	-3
331.663	1	-4
331.834	1	1
332.005	1	7
332.176	1	1
332.347	1	3
332.518	1	11
332.689	1	2
332.860	1	3
333.031	1	5
333.202	1	5
333.373	1	9
333.544	1	6
333.715	1	-1
333.886	1	3
334.057	1	5
334.228	1	-1
334.399	1	3
334.570	1	-8
334.741	1	10
334.912	1	0
335.084	1	9
335.255	1	7
335.426	1	12
335.597	1	8
335.768	1	5
335.939	1	4
336.110	1	5
336.281	1	-2
336.452	1	-1
336.623	1	16
336.794	1	0
336.965	1	4
337.136	1	4
337.307	1	12
337.478	1	-4
337.649	1	9
337.820	1	12
337.991	1	4
338.162	1	-4
338.333	1	-6
338.504	1	8
338.675	1	-3
338.846	1	17
339.017	1	9
339.188	1	12
339.359	1	7
339.530	1	4
339.701	1	5
339.872	1	-6
340.043	1	3
340.214	1	-4
340.385	1	8
340.556	1	2
340.727	1	12
340.898	1	6
341.069	1	1
341.240	1	-10
341.411	1	-4
341.582	1	0
341.753	1	2
341.924	1	7
342.095	1	-1
342.266	1	7
342.437	1	-4
342.608	1	1
342.779	1	11
342.950	1	2
343.121	1	-1
343.292	1	12
343.463	1	-1
343.634	1	5
343.805	1	-1
343.976	1	7
344.147	1	13
344.318	1	0
344.489	1	4
344.660	1	0
344.831	1	-1
345.002	1	4
345.173	1	3
345.344	1	1
345.515	1	-4
345.686	1	11
345.857	1	6
346.028	1	10
346.199	1	11
346.370	1	1
346.541	1	-2
346.712	1	3
346.883	1	-1
347.054	1	-2
347.225	1	-7
347.396	1	-10
347.567	1	5
347.738	1	-1
347.909	1	15
348.080	1	3
348.251	1	-7
348.422	1	-2
348.593	1	1
348.764	1	4
348.935	1	-4
349.106	1	-3
349.277	1	-6
349.448	1	-4
349.619	1	-2
349.790	1	1
349.961	1	10
350.132	1	3
350.303	1	10
350.474	1	0
350.645	1	0
350.816	1	-12
350.987	1	2
351.157	1	-11
351.328	1	-1
351.499	1	-10
351.670	1	-3
351.841	1	17
352.012	1	-1
352.183	1	-8
352.354	1	-5
352.525	1	1
352.696	1	4
352.867	1	-9
353.038	1	10
353.209	1	-6
353.380	1	-3
353.551	1	-5
353.722	1	-7
353.893	1	10
354.064	1	-8
354.235	1	1
354.406	1	-1
354.576	1	-7
354.747	1	-8
354.918	1	3
355.089	1	-1
355.260	1	8
355.431	1	-2
355.602	1	3
355.773	1	-9
355.944	1	-4
356.115	1	-3
356.286	1	0
356.457	1	3
356.628	1	-9
356.799	1	-5
356.970	1	-1
357.141	1	-10
357.311	1	2
357.482	1	-3
357.653	1	-5
357.824	1	-3
357.995	1	2
358.166	1	-8
358.337	1	-6
358.508	1	4
358.679	1	-5
358.850	1	10
359.021	1	7
359.192	1	-12
359.363	1	-1
359.533	1	9
359.704	1	-5
359.875	1	-12
360.046	1	-1
360.217	1	2
360.388	1	1
360.559	1	8
360.730	1	0
360.901	1	8
361.072	1	-9
361.243	1	0
361.414	1	-10
361.584	1	1
361.755	1	11
361.926	1	0
362.097	1	9
362.268	1	1
362.439	1	1
362.610	1	-1
362.781	1	-2
362.952	1	-16
363.123	1	1
363.293	1	0
363.464	1	-3
363.635	1	1
363.806	1	-2
363.977	1	3
364.148	1	-12
364.319	1	-1
364.490	1	-3
364.661	1	1
364.832	1	-3
365.002	1	-4
365.173	1	-4
365.344	1	1
365.515	1	-3
365.686	1	-5
365.857	1	-1
366.028	1	-1
366.199	1	-9
366.370	1	-14
366.540	1	-9
366.711	1	-7
366.882	1	-1
367.053	1	-2
367.224	1	1
367.395	1	-7
367.566	1	-5
367.737	1	-3
367.908	1	-5
368.078	1	-9
368.249	1	-4
368.420	1	-4
368.591	1	4
368.762	1	-13
368.933	1	0
369.104	1	4
369.274	1	-1
369.445	1	-3
369.616	1	-9
369.787	1	1
369.958	1	-9
370.129	1	-9
370.300	1	0
370.471	1	7
370.641	1	-18
370.812	1	-8
370.983	1	-5
371.154	1	1
371.325	1	5
371.496	1	-1
371.667	1	-3
371.837	1	-3
372.008	1	-12
372.179	1	7
372.350	1	-3
372.521	1	-1
372.692	1	-4
372.863	1	-3
373.033	1	-1
373.204	1	6
373.375	1	-5
373.546	1	6
373.717	1	-16
373.888	1	-10
374.059	1	-2
374.229	1	-7
374.400	1	1
374.571	1	-9
374.742	1	-11
374.913	1	-4
375.084	1	0
375.254	1	1
375.425	1	-5
375.596	1	1
375.767	1	-6
375.938	1	-3
376.109	1	-9
376.279	1	-8
376.450	1	-1
376.621	1	-2
376.792	1	-7
376.963	1	1
377.134	1	-12
377.304	1	2
377.475	1	-15
377.646	1	5
377.817	1	-9
377.988	1	-3
378.159	1	0
378.329	1	2
378.500	1	-12
378.671	1	1
378.842	1	4
379.013	1	-4
379.184	1	-4
379.354	1	-7
379.525	1	-9
379.696	1	-4
379.867	1	-2
380.038	1	2
380.209	1	-14
380.379	1	-5
380.550	1	-3
380.721	1	-9
380.892	1	-7
381.063	1	1
381.233	1	-8
381.404	1	7
381.575	1	-2
381.746	1	-6
381.917	1	-3
382.087	1	-5
382.258	1	-14
382.429	1	3
382.600	1	2
382.771	1	-1
382.941	1	2
383.112	1	0
383.283	1	-3
383.454	1	6
383.625	1	1
383.795	1	-5
383.966	1	-18
384.137	1	0
384.308	1	1
384.479	1	6
384.649	1	-7
384.820	1	3
384.991	1	-8
385.162	1	-3
385.333	1	-2
385.503	1	0
385.674	1	3
385.845	1	-10
386.016	1	-1
386.187	1	-10
386.357	1	0
386.528	1	6
386.699	1	-2
386.870	1	0
387.041	1	-12
387.211	1	3
387.382	1	-5
387.553	1	-12
387.724	1	0
387.894	1	-2
388.065	1	-6
388.236	1	-9
388.407	1	14
388.578	1	-4
388.748	1	-3
388.919	1	-2
389.090	1	-9
389.261	1	-3
389.431	1	-7
389.602	1	1
389.773	1	1
389.944	1	-4
390.114	1	10
390.285	1	1
390.456	1	2
390.627	1	-2
390.798	1	-10
390.968	1	-9
391.139	1	-9
391.310	1	3
391.481	1	-6
391.651	1	-2
391.822	1	-4
391.993	1	-8
392.164	1	-4
392.334	1	2
392.505	1	-3
392.676	1	1
392.847	1	-3
393.017	1	2
393.188	1	-9
393.359	1	3
393.530	1	13
393.700	1	4
393.871	1	-3
394.042	1	-3
394.213	1	3
394.383	1	1
394.554	1	-4
394.725	1	-4
394.896	1	-6
395.066	1	-11
395.237	1	-15
395.408	1	9
395.579	1	0
395.749	1	-4
395.920	1	-6
396.091	1	3
396.262	1	-9
396.432	1	1
396.603	1	-5
396.774	1	-3
396.945	1	-17
397.115	1	-2
397.286	1	-6
397.457	1	-10
397.627	1	2
397.798	1	-5
397.969	1	-6
398.140	1	2
398.310	1	1
398.481	1	-8
398.652	1	-10
398.823	1	-4
398.993	1	9
399.164	1	2
399.335	1	-6
399.505	1	6
399.676	1	-1
399.847	1	-6
400.018	1	-1
400.188	1	5
400.359	1	-2
400.530	1	-5
400.700	1	-3
400.871	1	-1
401.042	1	3
401.213	1	3
401.383	1	18
401.554	1	1
401.725	1	1
401.895	1	-2
402.066	1	7
402.237	1	-9
402.408	1	-10
402.578	1	-4
402.749	1	3
402.920	1	12
403.090	1	5
403.261	1	-10
403.432	1	-6
403.603	1	10
403.773	1	6
403.944	1	0
404.115	1	7
404.285	1	6
404.456	1	12
404.627	1	3
404.797	1	-2
404.968	1	4
405.139	1	3
405.310	1	8
405.480	1	5
405.651	1	-9
405.822	1	0
405.992	1	-6
406.163	1	-4
406.334	1	-2
406.504	1	1
406.675	1	7
406.846	1	-5
407.016	1	2
407.187	1	-17
407.358	1	-4
407.528	1	-2
407.699	1	-1
407.870	1	-5
408.041	1	1
408.211	1	-4
408.382	1	7
408.553	1	-5
408.723	1	5
408.894	1	0
409.065	1	-2
409.235	1	-7
409.406	1	-5
409.577	1	7
409.747	1	-2
409.918	1	16
410.089	1	1
410.259	1	2
410.430	1	-3
410.601	1	7
410.771	1	-2
410.942	1	4
411.113	1	7
411.283	1	9
411.454	1	-11
411.625	1	6
411.795	1	1
411.966	1	0
412.137	1	-2
412.307	1	8
412.478	1	-4
412.649	1	2
412.819	1	-13
412.990	1	-6
413.161	1	-11
413.331	1	2
413.502	1	4
413.672	1	8
413.843	1	7
414.014	1	-10
414.184	1	7
414.355	1	3
414.526	1	0
414.696	1	19
414.867	1	-8
415.038	1	7
415.208	1	-9
415.379	1	7
415.550	1	9
415.720	1	-2
415.891	1	-1
416.062	1	-7
416.232	1	2
416.403	1	16
416.573	1	-6
416.744	1	-3
416.915	1	1
417.085	1	14
417.256	1	9
417.427	1	5
417.597	1	5
417.768	1	4
417.939	1	6
418.109	1	-3
418.280	1	-4
418.450	1	5
418.621	1	8
418.792	1	-7
418.962	1	5
419.133	1	5
419.304	1	8
419.474	1	3
419.645	1	8
419.815	1	9
419.986	1	1
420.157	1	2
420.327	1	-8
420.498	1	4
420.669	1	4
420.839	1	9
421.010	1	2
421.180	1	3
421.351	1	4
421.522	1	-4
421.692	1	0
421.863	1	6
422.033	1	-2
422.204	1	0
422.375	1	6
422.545	1	2
422.716	1	6
422.886	1	8
423.057	1	7
423.228	1	16
423.398	1	6
423.569	1	-4
423.740	1	-6
423.910	1	2
424.081	1	0
424.251	1	4
424.422	1	3
424.593	1	4
424.763	1	-2
424.934	1	16
425.104	1	5
425.275	1	3
425.445	1	-7
425.616	1	9
425.787	1	4
425.957	1	11
426.128	1	-3
426.298	1	7
426.469	1	0
426.640	1	-6
426.810	1	7
426.981	1	3
427.151	1	0
427.322	1	5
427.493	1	10
427.663	1	12
427.834	1	6
428.004	1	2
428.175	1	9
428.345	1	0
428.516	1	3
428.687	1	17
428.857	1	10
429.028	1	5
429.198	1	0
429.369	1	18
429.540	1	7
429.710	1	-3
429.881	1	3
430.051	1	6
430.222	1	-3
430.392	1	3
430.563	1	0
430.734	1	9
430.904	1	14
431.075	1	10
431.245	1	3
431.416	1	8
431.586	1	0
431.757	1	3
431.927	1	11
432.098	1	8
432.269	1	7
432.439	1	9
432.610	1	4
432.780	1	11
432.951	1	5
433.121	1	14
433.292	1	-1
433.462	1	7
433.633	1	-2
433.804	1	8
433.974	1	-1
434.145	1	0
434.315	1	9
434.486	1	8
434.656	1	15
434.827	1	1
434.997	1	14
435.168	1	2
435.339	1	4
435.509	1	7
435.680	1	9
435.850	1	-4
436.021	1	4
436.191	1	9
436.362	1	11
436.532	1	12
436.703	1	19
436.873	1	9
437.044	1	4
437.214	1	3
437.385	1	10
437.556	1	4
437.726	1	13
437.897	1	-8
438.067	1	0
438.238	1	6
438.408	1	14
438.579	1	-4
438.749	1	2
438.920	1	-3
439.090	1	7
439.261	1	6
439.431	1	6
439.602	1	3
439.772	1	17
439.943	1	3
440.113	1	9
440.284	1	-4
440.455	1	9
440.625	1	6
440.796	1	3
440.966	1	10
441.137	1	14
441.307	1	18
441.478	1	10
441.648	1	3
441.819	1	1
441.989	1	9
442.160	1	2
442.330	1	-6
442.501	1	1
442.671	1	12
442.842	1	-7
443.012	1	4
443.183	1	12
443.353	1	14
443.524	1	-4
443.694	1	-1
443.865	1	-3
444.035	1	5
444.206	1	4
444.376	1	7
444.547	1	11
444.717	1	2
444.888	1	9
445.058	1	13
445.229	1	-7
445.399	1	2
445.570	1	12
445.740	1	2
445.911	1	0
446.081	1	4
446.252	1	8
446.422	1	7
446.593	1	6
446.763	1	6
446.934	1	10
447.104	1	2
447.275	1	3
447.445	1	9
447.616	1	4
447.786	1	8
447.957	1	1
448.127	1	-4
448.298	1	0
448.468	1	19
448.639	1	5
448.809	1	9
448.979	1	14
449.150	1	6
449.320	1	12
449.491	1	8
449.661	1	4
449.832	1	7
450.002	1	11
450.173	1	5
450.343	1	12
450.514	1	10
450.684	1	7
450.855	1	11
451.025	1	9
451.196	1	10
451.366	1	13
451.537	1	8
451.707	1	8
451.878	1	-8
452.048	1	7
452.218	1	7
452.389	1	5
452.559	1	5
452.730	1	6
452.900	1	12
453.071	1	1
453.241	1	9
453.412	1	13
453.582	1	9
453.753	1	-8
453.923	1	11
454.093	1	16
454.264	1	14
454.434	1	11
454.605	1	-4
454.775	1	3
454.946	1	9
455.116	1	13
455.287	1	14
455.457	1	5
455.628	1	12
455.798	1	5
455.968	1	8
456.139	1	9
456.309	1	7
456.480	1	7
456.650	1	4
456.821	1	8
456.991	1	-2
457.161	1	8
457.332	1	-3
457.502	1	9
457.673	1	1
457.843	1	2
458.014	1	6
458.184	1	9
458.355	1	5
458.525	1	7
458.695	1	15
458.866	1	2
459.036	1	8
459.207	1	7
459.377	1	8
459.548	1	4
459.718	1	1
459.888	1	6
460.059	1	-5
460.229	1	3
460.400	1	-13
460.570	1	14
460.740	1	13
460.911	1	3
461.081	1	21
461.252	1	5
461.422	1	12
461.593	1	4
461.763	1	10
461.933	1	3
462.104	1	7
462.274	1	-2
462.445	1	11
462.615	1	4
462.785	1	9
462.956	1	6
463.126	1	14
463.297	1	11
463.467	1	14
463.638	1	7
463.808	1	6
463.978	1	10
464.149	1	5
464.319	1	5
464.490	1	12
464.660	1	-4
464.830	1	16
465.001	1	18
465.171	1	4
465.342	1	7
465.512	1	-5
465.682	1	9
465.853	1	8
466.023	1	4
466.194	1	5
466.364	1	2
466.534	1	12
466.705	1	24
466.875	1	6
467.045	1	8
467.216	1	-1
467.386	1	13
467.557	1	1
467.727	1	1
467.897	1	2
468.068	1	4
468.238	1	4
468.409	1	9
468.579	1	7
468.749	1	5
468.920	1	5
469.090	1	-13
469.260	1	4
469.431	1	7
469.601	1	4
469.772	1	7
469.942	1	10
470.112	1	8
470.283	1	11
470.453	1	6
470.623	1	2
470.794	1	12
470.964	1	13
471.135	1	6
471.305	1	8
471.475	1	14
471.646	1	-4
471.816	1	8
471.986	1	14
472.157	1	7
472.327	1	9
472.497	1	9
472.668	1	2
472.838	1	4
473.009	1	6
473.179	1	10
473.349	1	2
473.520	1	-7
473.690	1	8
473.860	1	8
474.031	1	-2
474.201	1	13
474.371	1	3
474.542	1	11
474.712	1	4
474.882	1	11
475.053	1	6
475.223	1	-2
475.394	1	11
475.564	1	-5
475.734	1	20
475.905	1	14
476.075	1	13
476.245	1	-7
476.416	1	5
476.586	1	1
476.756	1	6
476.927	1	2
477.097	1	17
477.267	1	3
477.438	1	9
477.608	1	-4
477.778	1	15
477.949	1	5
478.119	1	-3
478.289	1	-5
478.460	1	6
478.630	1	11
478.800	1	-1
478.971	1	-13
479.141	1	1
479.311	1	20
479.482	1	1
479.652	1	-1
479.822	1	0
479.993	1	-4
480.163	1	10
480.333	1	8
480.504	1	5
480.674	1	-1
480.844	1	7
481.015	1	2
481.185	1	7
481.355	1	-1
481.525	1	1
481.696	1	11
481.866	1	4
482.036	1	1
482.207	1	4
482.377	1	0
482.547	1	1
482.718	1	7
482.888	1	0
483.058	1	4
483.229	1	18
483.399	1	11
483.569	1	-1
483.740	1	-11
483.910	1	-2
484.080	1	8
484.250	1	2
484.421	1	9
484.591	1	9
484.761	1	8
484.932	1	9
485.102	1	10
485.272	1	10
485.443	1	1
485.613	1	9
485.783	1	1
485.953	1	10
486.124	1	0
486.294	1	1
486.464	1	13
486.635	1	1
486.805	1	-1
486.975	1	5
487.146	1	4
487.316	1	1
487.486	1	-5
487.656	1	13
487.827	1	-1
487.997	1	8
488.167	1	2
488.338	1	5
488.508	1	9
488.678	1	7
488.848	1	9
489.019	1	4
489.189	1	4
489.359	1	2
489.529	1	13
489.700	1	0
489.870	1	-2
490.040	1	1
490.211	1	4
490.381	1	4
490.551	1	6
490.721	1	7
490.892	1	3
491.062	1	9
491.232	1	13
491.402	1	1
491.573	1	3
491.743	1	-3
491.913	1	7
492.084	1	10
492.254	1	9
492.424	1	1
492.594	1	-2
492.765	1	0
492.935	1	1
493.105	1	1
493.275	1	-1
493.446	1	-5
493.616	1	0
493.786	1	5
493.956	1	1
494.127	1	6
494.297	1	-5
494.467	1	3
494.637	1	4
494.808	1	8
494.978	1	0
495.148	1	6
495.318	1	-8
495.489	1	2
495.659	1	7
495.829	1	3
495.999	1	12
496.170	1	7
496.340	1	6
496.510	1	4
496.680	1	1
496.851	1	7
497.021	1	3
497.191	1	-8
497.361	1	6
497.532	1	4
497.702	1	12
497.872	1	10
498.042	1	0
498.213	1	2
498.383	1	5
498.553	1	-1
498.723	1	16
498.894	1	-3
499.064	1	-4
499.234	1	-12
499.404	1	7
499.574	1	2
499.745	1	-2
499.915	1	3
500.085	1	-2
500.255	1	5
500.426	1	-1
500.596	1	9
500.766	1	-7
500.936	1	6
501.106	1	-4
501.277	1	-4
501.447	1	5
501.617	1	7
501.787	1	2
501.958	1	14
502.128	1	3
502.298	1	3
502.468	1	9
502.638	1	2
502.809	1	9
502.979	1	10
503.149	1	14
503.319	1	3
503.489	1	2
503.660	1	4
503.830	1	3
504.000	1	-1
504.170	1	5
504.340	1	14
504.511	1	9
504.681	1	-2
504.851	1	3
505.021	1	-7
505.192	1	5
505.362	1	1
505.532	1	-6
505.702	1	4
505.872	1	7
506.043	1	-3
506.213	1	5
506.383	1	-2
506.553	1	9
506.723	1	-6
506.893	1	1
507.064	1	6
507.234	1	4
507.404	1	-11
507.574	1	-1
507.744	1	9
507.915	1	5
508.085	1	4
508.255	1	3
508.425	1	-6
508.595	1	8
508.766	1	7
508.936	1	-3
509.106	1	7
509.276	1	8
509.446	1	-2
509.616	1	2
509.787	1	4
509.957	1	5
510.127	1	-2
510.297	1	-5
510.467	1	9
510.638	1	-3
510.808	1	10
510.978	1	3
511.148	1	2
511.318	1	2
511.488	1	9
511.659	1	-2
511.829	1	-1
511.999	1	1
512.169	1	5
512.339	1	2
512.509	1	4
512.680	1	-2
512.850	1	-1
513.020	1	-5
513.190	1	10
513.360	1	-4
513.530	1	-8
513.700	1	6
513.871	1	3
514.041	1	1
514.211	1	4
514.381	1	8
514.551	1	-6
514.721	1	6
514.892	1	0
515.062	1	1
515.232	1	-1
515.402	1	3
515.572	1	-5
515.742	1	6
515.912	1	6
516.083	1	11
516.253	1	0
516.423	1	-4
516.593	1	-2
516.763	1	5
516.933	1	-2
517.104	1	4
517.274	1	-2
517.444	1	3
517.614	1	1
517.784	1	-4
517.954	1	-11
518.124	1	6
518.294	1	-5
518.465	1	-3
518.635	1	5
518.805	1	8
518.975	1	6
519.145	1	-4
519.315	1	1
519.485	1	-6
519.656	1	-2
519.826	1	-4
519.996	1	-1
520.166	1	3
520.336	1	2
520.506	1	-8
520.676	1	-3
520.846	1	0
521.017	1	8
521.187	1	6
521.357	1	5
521.527	1	1
521.697	1	1
521.867	1	-4
522.037	1	-9
522.207	1	11
522.377	1	1
522.548	1	6
522.718	1	-8
522.888	1	6
523.058	1	8
523.228	1	-5
523.398	1	3
523.568	1	2
523.738	1	8
523.909	1	8
524.079	1	2
524.249	1	-1
524.419	1	2
524.589	1	6
524.759	1	-4
524.929	1	4
525.099	1	-6
525.269	1	-5
525.439	1	4
525.610	1	4
525.780	1	1
525.950	1	3
526.120	1	0
526.290	1	-1
526.460	1	5
526.630	1	-3
526.800	1	4
526.970	1	-8
527.140	1	7
527.311	1	3
527.481	1	-11
527.651	1	6
527.821	1	-3
527.991	1	4
528.161	1	8
528.331	1	6
528.501	1	-5
528.671	1	4
528.841	1	-2
529.011	1	4
529.181	1	8
529.352	1	0
529.522	1	1
529.692	1	5
529.862	1	7
530.032	1	6
530.202	1	4
530.372	1	0
530.542	1	-1
530.712	1	0
530.882	1	2
531.052	1	-1
531.222	1	3
531.392	1	6
531.563	1	-3
531.733	1	-7
531.903	1	7
532.073	1	-6
532.243	1	9
532.413	1	-2
532.583	1	9
532.753	1	9
532.923	1	-3
533.093	1	0
533.263	1	-7
533.433	1	6
533.603	1	6
533.773	1	2
533.943	1	8
534.113	1	10
534.284	1	6
534.454	1	2
534.624	1	1
534.794	1	-1
534.964	1	6
535.134	1	0
535.304	1	8
535.474	1	0
535.644	1	-6
535.814	1	2
535.984	1	5
536.154	1	-1
536.324	1	-1
536.494	1	-5
536.664	1	14
536.834	1	2
537.004	1	1
537.174	1	1
537.344	1	3
537.514	1	-3
537.685	1	-2
537.855	1	6
538.025	1	10
538.195	1	-12
538.365	1	2
538.535	1	-4
538.705	1	2
538.875	1	7
539.045	1	-7
539.215	1	-4
539.385	1	-1
539.555	1	-1
539.725	1	-1
539.895	1	-6
540.065	1	0
540.235	1	-1
540.405	1	5
540.575	1	10
540.745	1	2
540.915	1	3
541.085	1	-1
541.255	1	9
541.425	1	10
541.595	1	-3
541.765	1	-8
541.935	1	1
542.105	1	1
542.275	1	9
542.445	1	3
542.615	1	4
542.785	1	1
542.955	1	1
543.125	1	1
543.295	1	-15
543.465	1	3
543.635	1	-4
543.805	1	-2
543.975	1	-2
544.145	1	11
544.315	1	-3
544.485	1	2
544.655	1	3
544.825	1	-6
544.995	1	6
545.165	1	1
545.335	1	1
545.505	1	10
545.675	1	3
545.845	1	-4
546.015	1	2
546.185	1	8
546.355	1	10
546.525	1	4
546.695	1	4
546.865	1	0
547.035	1	6
547.205	1	6
547.375	1	3
547.545	1	-2
547.715	1	6
547.885	1	-11
548.055	1	2
548.225	1	14
548.395	1	-2
548.565	1	4
548.735	1	-8
548.905	1	5
549.075	1	-4
549.245	1	0
549.415	1	-4
549.585	1	5
549.755	1	3
549.925	1	4
550.095	1	-4
550.265	1	-1
550.435	1	-9
550.605	1	0
550.775	1	2
550.945	1	0
551.115	1	-2
551.285	1	-2
551.455	1	0
551.625	1	10
551.795	1	-9
551.965	1	-9
552.135	1	-1
552.305	1	-3
552.475	1	7
552.645	1	2
552.815	1	6
552.985	1	7
553.155	1	11
553.325	1	2
553.495	1	9
553.665	1	6
553.835	1	1
554.004	1	-2
554.174	1	3
554.344	1	-2
554.514	1	-4
554.684	1	-7
554.854	1	4
555.024	1	-1
555.194	1	5
555.364	1	-4
555.534	1	2
555.704	1	2
555.874	1	-1
556.044	1	-3
556.214	1	3
556.384	1	4
556.554	1	1
556.724	1	-2
556.894	1	-2
557.064	1	9
557.234	1	4
557.404	1	-7
557.573	1	-3
557.743	1	2
557.913	1	3
558.083	1	-6
558.253	1	1
558.423	1	-2
558.593	1	12
558.763	1	6
558.933	1	6
559.103	1	0
559.273	1	3
559.443	1	-14
559.613	1	6
559.783	1	3
559.953	1	-7
560.122	1	-8
560.292	1	3
560.462	1	2
560.632	1	1
560.802	1	16
560.972	1	-1
561.142	1	-3
561.312	1	-2
561.482	1	-1
561.652	1	-14
561.822	1	-1
561.992	1	4
562.162	1	5
562.331	1	9
562.501	1	0
562.671	1	4
562.841	1	-8
563.011	1	-1
563.181	1	2
563.351	1	5
563.521	1	-7
563.691	1	7
563.861	1	8
564.031	1	5
564.201	1	7
564.370	1	-3
564.540	1	5
564.710	1	-6
564.880	1	-2
565.050	1	-9
565.220	1	11
565.390	1	4
565.560	1	7
565.730	1	0
565.900	1	-9
566.069	1	-12
566.239	1	5
566.409	1	5
566.579	1	-15
566.749	1	-4
566.919	1	-6
567.089	1	4
567.259	1	2
567.429	1	13
567.599	1	12
567.768	1	8
567.938	1	-2
568.108	1	0
568.278	1	4
568.448	1	-1
568.618	1	3
568.788	1	-4
568.958	1	-1
569.128	1	9
569.297	1	7
569.467	1	7
569.637	1	1
569.807	1	11
569.977	1	-8
570.147	1	2
570.317	1	0
570.487	1	5
570.656	1	-6
570.826	1	4
570.996	1	-3
571.166	1	11
571.336	1	-2
571.506	1	0
571.676	1	-3
571.846	1	-1
572.015	1	-9
572.185	1	10
572.355	1	6
572.525	1	3
572.695	1	-5
572.865	1	2
573.035	1	-3
573.205	1	3
573.374	1	-2
573.544	1	4
573.714	1	-5
573.884	1	10
574.054	1	11
574.224	1	9
574.394	1	-11
574.563	1	-4
574.733	1	10
574.903	1	-8
575.073	1	-3
575.243	1	2
575.413	1	-4
575.583	1	4
575.752	1	6
575.922	1	-1
576.092	1	3
576.262	1	1
576.432	1	-7
576.602	1	4
576.772	1	1
576.941	1	-2
577.111	1	7
577.281	1	9
577.451	1	3
577.621	1	12
577.791	1	4
577.960	1	6
578.130	1	5
578.300	1	0
578.470	1	-12
578.640	1	8
578.810	1	-3
578.979	1	5
579.149	1	5
579.319	1	3
579.489	1	8
579.659	1	5
579.829	1	-3
579.998	1	-10
580.168	1	-10
580.338	1	10
580.508	1	16
580.678	1	1
580.848	1	0
581.017	1	3
581.187	1	1
581.357	1	1
581.527	1	-7
581.697	1	-16
581.867	1	2
582.036	1	-4
582.206	1	-3
582.376	1	3
582.546	1	4
582.716	1	8
582.885	1	4
583.055	1	4
583.225	1	3
583.395	1	3
583.565	1	0
583.735	1	3
583.904	1	1
584.074	1	10
584.244	1	2
584.414	1	15
584.584	1	9
584.753	1	-12
584.923	1	-1
585.093	1	2
585.263	1	-2
585.433	1	-6
585.602	1	1
585.772	1	3
585.942	1	0
586.112	1	-8
586.282	1	4
586.451	1	7
586.621	1	5
586.791	1	-2
586.961	1	2
587.131	1	-2
587.300	1	6
587.470	1	-21
587.640	1	-5
587.810	1	-1
587.980	1	-9
588.149	1	2
588.319	1	9
588.489	1	0
588.659	1	1
588.829	1	8
588.998	1	4
589.168	1	4
589.338	1	-7
589.508	1	2
589.677	1	1
589.847	1	-4
590.017	1	-2
590.187	1	-6
590.357	1	1
590.526	1	-3
590.696	1	0
590.866	1	-8
591.036	1	8
591.205	1	4
591.375	1	-15
591.545	1	1
591.715	1	-14
591.885	1	4
592.054	1	-2
592.224	1	5
592.394	1	6
592.564	1	8
592.733	1	-1
592.903	1	13
593.073	1	6
593.243	1	4
593.412	1	7
593.582	1	-2
593.752	1	0
593.922	1	13
594.091	1	-6
594.261	1	-3
594.431	1	-1
594.601	1	3
594.771	1	-13
594.940	1	1
595.110	1	4
595.280	1	0
595.450	1	9
595.619	1	-1
595.789	1	4
595.959	1	-6
596.129	1	8
596.298	1	1
596.468	1	-9
596.638	1	2
596.808	1	9
596.977	1	-1
597.147	1	-7
597.317	1	-1
597.487	1	-10
597.656	1	-4
597.826	1	0
597.996	1	5
598.166	1	8
598.335	1	8
598.505	1	23
598.675	1	-4
598.844	1	6
599.014	1	-6
599.184	1	2
599.354	1	11
599.523	1	8
599.693	1	7
599.863	1	-4
600.033	1	-4
600.202	1	1
600.372	1	8
600.542	1	10
600.712	1	5
600.881	1	6
601.051	1	0
601.221	1	5
601.390	1	3
601.560	1	1
601.730	1	-4
601.900	1	10
602.069	1	3
602.239	1	-6
602.409	1	5
602.578	1	1
602.748	1	5
602.918	1	-3
603.088	1	-1
603.257	1	5
603.427	1	9
603.597	1	-4
603.767	1	5
603.936	1	13
604.106	1	3
604.276	1	4
604.445	1	0
604.615	1	13
604.785	1	15
604.954	1	13
605.124	1	14
605.294	1	12
605.464	1	12
605.633	1	-1
605.803	1	1
605.973	1	15
606.142	1	-5
606.312	1	7
606.482	1	-6
606.652	1	3
606.821	1	8
606.991	1	6
607.161	1	8
607.330	1	12
607.500	1	3
607.670	1	9
607.839	1	1
608.009	1	1
608.179	1	-2
608.348	1	-1
608.518	1	14
608.688	1	5
608.858	1	9
609.027	1	15
609.197	1	-4
609.367	1	3
609.536	1	11
609.706	1	13
609.876	1	5
610.045	1	2
610.215	1	13
610.385	1	14
610.554	1	13
610.724	1	5
610.894	1	7
611.063	1	15
611.233	1	3
611.403	1	11
611.572	1	11
611.742	1	8
611.912	1	5
612.081	1	6
612.251	1	9
612.421	1	13
612.590	1	-7
612.760	1	11
612.930	1	11
613.099	1	13
613.269	1	1
613.439	1	8
613.608	1	5
613.778	1	16
613.948	1	2
614.117	1	8
614.287	1	-5
614.457	1	3
614.626	1	9
614.796	1	2
614.966	1	6
615.135	1	26
615.305	1	18
615.475	1	12
615.644	1	8
615.814	1	12
615.984	1	7
616.153	1	3
616.323	1	-3
616.493	1	5
616.662	1	6
616.832	1	-2
617.002	1	12
617.171	1	3
617.341	1	9
617.511	1	17
617.680	1	1
617.850	1	14
618.019	1	11
618.189	1	10
618.359	1	11
618.528	1	10
618.698	1	17
618.868	1	8
619.037	1	5
619.207	1	17
619.377	1	12
619.546	1	8
619.716	1	6
619.885	1	7
620.055	1	2
620.225	1	6
620.394	1	-1
620.564	1	14
620.734	1	13
620.903	1	21
621.073	1	21
621.242	1	12
621.412	1	-6
621.582	1	4
621.751	1	0
621.921	1	2
622.091	1	1
622.260	1	9
622.430	1	7
622.599	1	8
622.769	1	4
622.939	1	0
623.108	1	5
623.278	1	10
623.448	1	6
623.617	1	8
623.787	1	10
623.956	1	-2
624.126	1	17
624.296	1	7
624.465	1	14
624.635	1	-1
624.804	1	13
624.974	1	6
625.144	1	13
625.313	1	-2
625.483	1	12
625.652	1	-1
625.822	1	0
625.992	1	14
626.161	1	0
626.331	1	12
626.501	1	5
626.670	1	9
626.840	1	5
627.009	1	10
627.179	1	15
627.348	1	14
627.518	1	-6
627.688	1	4
627.857	1	13
628.027	1	8
628.196	1	4
628.366	1	12
628.536	1	5
628.705	1	5
628.875	1	7
629.044	1	3
629.214	1	7
629.384	1	0
629.553	1	9
629.723	1	4
629.892	1	2
630.062	1	4
630.232	1	8
630.401	1	7
630.571	1	6
630.740	1	9
630.910	1	12
631.079	1	16
631.249	1	2
631.419	1	8
631.588	1	15
631.758	1	0
631.927	1	7
632.097	1	2
632.266	1	-7
632.436	1	16
632.606	1	6
632.775	1	8
632.945	1	2
633.114	1	9
633.284	1	6
633.453	1	4
633.623	1	5
633.793	1	5
633.962	1	0
634.132	1	2
634.301	1	17
634.471	1	2
634.640	1	8
634.810	1	9
634.979	1	6
635.149	1	-3
635.319	1	24
635.488	1	10
635.658	1	9
635.827	1	8
635.997	1	12
636.166	1	1
636.336	1	5
636.505	1	4
636.675	1	0
636.845	1	8
637.014	1	10
637.184	1	7
637.353	1	8
637.523	1	8
637.692	1	7
637.862	1	1
638.031	1	1
638.201	1	2
638.370	1	9
638.540	1	-3
638.710	1	5
638.879	1	11
639.049	1	6
639.218	1	17
639.388	1	8
639.557	1	-3
639.727	1	12
639.896	1	15
640.066	1	-4
640.235	1	1
640.405	1	15
640.574	1	16
640.744	1	7
640.914	1	0
641.083	1	11
641.253	1	16
641.422	1	14
641.592	1	-11
641.761	1	2
641.931	1	10
642.100	1	2
642.270	1	10
642.439	1	12
642.609	1	9
642.778	1	8
642.948	1	2
643.117	1	3
643.287	1	1
643.456	1	2
643.626	1	4
643.795	1	7
643.965	1	9
644.134	1	13
644.304	1	-8
644.473	1	9
644.643	1	2
644.812	1	-9
644.982	1	2
645.151	1	10
645.321	1	7
645.490	1	-2
645.660	1	16
645.829	1	3
645.999	1	10
646.168	1	10
646.338	1	-7
646.507	1	2
646.677	1	2
646.846	1	4
647.016	1	4
647.185	1	5
647.355	1	2
647.524	1	5
647.694	1	18
647.863	1	-4
648.033	1	9
648.202	1	12
648.372	1	6
648.541	1	12
648.711	1	3
648.880	1	-1
649.050	1	6
649.219	1	-1
649.389	1	6
649.558	1	6
649.728	1	6
649.897	1	13
650.067	1	-2
650.236	1	6
650.406	1	3
650.575	1	-1
650.745	1	12
650.914	1	7
651.084	1	4
651.253	1	6
651.423	1	7
651.592	1	6
651.762	1	16
651.931	1	7
652.101	1	12
652.270	1	-2
652.440	1	5
652.609	1	13
652.778	1	18
652.948	1	-8
653.117	1	14
653.287	1	0
653.456	1	-1
653.626	1	9
653.795	1	5
653.965	1	18
654.134	1	6
654.304	1	-2
654.473	1	2
654.643	1	3
654.812	1	4
654.982	1	9
655.151	1	-2
655.320	1	9
655.490	1	-6
655.659	1	4
655.829	1	0
655.998	1	7
656.168	1	-2
656.337	1	-4
656.507	1	-7
656.676	1	11
656.846	1	0
657.015	1	1
657.184	1	0
657.354	1	-7
657.523	1	-6
657.693	1	9
657.862	1	-10
658.032	1	5
658.201	1	10
658.371	1	16
658.540	1	3
658.709	1	11
658.879	1	12
659.048	1	4
659.218	1	-2
659.387	1	-6
659.557	1	9
659.726	1	8
659.895	1	-10
660.065	1	9
660.234	1	-6
660.404	1	8
660.573	1	0
660.743	1	0
660.912	1	0
661.081	1	-5
661.251	1	6
661.420	1	3
661.590	1	-2
661.759	1	-7
661.929	1	-2
662.098	1	9
662.267	1	-2
662.437	1	0
662.606	1	-2
662.776	1	3
662.945	1	3
663.115	1	-1
663.284	1	-10
663.453	1	1
663.623	1	0
663.792	1	-10
663.962	1	-3
664.131	1	0
664.300	1	6
664.470	1	-4
664.639	1	-4
664.809	1	9
664.978	1	4
665.148	1	-1
665.317	1	-5
665.486	1	-2
665.656	1	20
665.825	1	10
665.995	1	-10
666.164	1	-5
666.333	1	-1
666.503	1	1
666.672	1	-12
666.842	1	-2
667.011	1	12
667.180	1	5
667.350	1	-3
667.519	1	-3
667.689	1	-10
667.858	1	2
668.027	1	11
668.197	1	10
668.366	1	-13
668.536	1	3
668.705	1	1
668.874	1	-6
669.044	1	2
669.213	1	3
669.382	1	6
669.552	1	-5
669.721	1	-8
669.891	1	10
670.060	1	0
670.229	1	-2
670.399	1	7
670.568	1	3
670.738	1	5
670.907	1	2
671.076	1	-4
671.246	1	2
671.415	1	4
671.584	1	3
671.754	1	-9
671.923	1	12
672.093	1	6
672.262	1	7
672.431	1	2
672.601	1	5
672.770	1	-1
672.939	1	4
673.109	1	-5
673.278	1	-3
673.448	1	-4
673.617	1	-3
673.786	1	1
