325.333	1	-3
325.504	1	-8
325.675	1	-2
325.846	1	-1
326.017	1	-10
326.188	1	3
326.359	1	6
326.531	1	-11
326.702	1	-15
326.873	1	-5
327.044	1	-9
327.215	1	-4
327.386	1	-11
327.557	1	11
327.728	1	-11
327.899	1	-7
328.070	1	2
328.241	1	-3
328.412	1	2
328.583	1	-3
328.754	1	0
328.926	1	-9
329.097	1	-11
329.268	1	-3
329.439	1	-13
329.610	1	-3
329.781	1	-7
329.952	1	-4
330.123	1	-6
330.294	1	1
330.465	1	-5
330.636	1	5
330.807	1	-11
330.978	1	-7
331.149	1	-9
331.320	1	-7
331.492	1	-6
331.663	1	-7
331.834	1	-4
332.005	1	2
332.176	1	-4
332.347	1	-6
332.518	1	0
332.689	1	4
332.860	1	-9
333.031	1	-14
333.202	1	-7
333.373	1	-7
333.544	1	-8
333.715	1	-10
333.886	1	-5
334.057	1	-8
334.228	1	-17
334.399	1	-5
334.570	1	-13
334.741	1	6
334.912	1	-13
335.084	1	3
335.255	1	-5
335.426	1	-9
335.597	1	-7
335.768	1	-7
335.939	1	-12
336.110	1	1
336.281	1	-19
336.452	1	0
336.623	1	3
336.794	1	-3
336.965	1	-8
337.136	1	-8
337.307	1	0
337.478	1	-15
337.649	1	-2
337.820	1	0
337.991	1	-8
338.162	1	-3
338.333	1	-5
338.504	1	4
338.675	1	-8
338.846	1	9
339.017	1	0
339.188	1	-2
339.359	1	-5
339.530	1	-4
339.701	1	-7
339.872	1	-4
340.043	1	-9
340.214	1	-4
340.385	1	-5
340.556	1	9
340.727	1	4
340.898	1	2
341.069	1	-6
341.240	1	-11
341.411	1	-7
341.582	1	0
341.753	1	-1
341.924	1	-1
342.095	1	-12
342.266	1	-9
342.437	1	3
342.608	1	1
342.779	1	0
342.950	1	-14
343.121	1	-5
343.292	1	6
343.463	1	2
343.634	1	-4
343.805	1	-5
343.976	1	-8
344.147	1	-3
344.318	1	0
344.489	1	-3
344.660	1	-3
344.831	1	-4
345.002	1	-9
345.173	1	-11
345.344	1	-2
345.515	1	-6
345.686	1	6
345.857	1	-7
346.028	1	-7
346.199	1	1
346.370	1	6
346.541	1	-5
346.712	1	0
346.883	1	-9
347.054	1	-3
347.225	1	-9
347.396	1	-9
347.567	1	8
347.738	1	-3
347.909	1	6
348.080	1	-2
348.251	1	-14
348.422	1	-1
348.593	1	-4
348.764	1	-3
348.935	1	-8
349.106	1	-3
349.277	1	-2
349.448	1	-5
349.619	1	-6
349.790	1	1
349.961	1	-3
350.132	1	0
350.303	1	0
350.474	1	-5
350.645	1	4
350.816	1	-14
350.987	1	4
351.157	1	-12
351.328	1	-17
351.499	1	-7
351.670	1	2
351.841	1	14
352.012	1	-8
352.183	1	-6
352.354	1	6
352.525	1	-3
352.696	1	5
352.867	1	-14
353.038	1	4
353.209	1	-13
353.380	1	-14
353.551	1	2
353.722	1	-4
353.893	1	1
354.064	1	-13
354.235	1	-2
354.406	1	-2
354.576	1	-3
354.747	1	-7
354.918	1	-6
355.089	1	-5
355.260	1	6
355.431	1	-4
355.602	1	-4
355.773	1	-14
355.944	1	-12
356.115	1	-6
356.286	1	-12
356.457	1	-1
356.628	1	-3
356.799	1	-7
356.970	1	-4
357.141	1	-5
357.311	1	-5
357.482	1	-1
357.653	1	-14
357.824	1	-3
357.995	1	-5
358.166	1	3
358.337	1	-6
358.508	1	-4
358.679	1	-10
358.850	1	2
359.021	1	-3
359.192	1	-14
359.363	1	-1
359.533	1	-1
359.704	1	0
359.875	1	-15
360.046	1	-3
360.217	1	1
360.388	1	1
360.559	1	-11
360.730	1	1
360.901	1	-1
361.072	1	-12
361.243	1	0
361.414	1	-3
361.584	1	4
361.755	1	5
361.926	1	-8
362.097	1	9
362.268	1	-10
362.439	1	0
362.610	1	4
362.781	1	-14
362.952	1	-12
363.123	1	2
363.293	1	7
363.464	1	-4
363.635	1	-5
363.806	1	-10
363.977	1	0
364.148	1	-7
364.319	1	-2
364.490	1	-9
364.661	1	-3
364.832	1	3
365.002	1	-2
365.173	1	-8
365.344	1	2
365.515	1	-11
365.686	1	-14
365.857	1	-4
366.028	1	-7
366.199	1	-2
366.370	1	-10
366.540	1	-6
366.711	1	-4
366.882	1	0
367.053	1	-6
367.224	1	-6
367.395	1	-1
367.566	1	-3
367.737	1	-7
367.908	1	-8
368.078	1	-4
368.249	1	-3
368.420	1	1
368.591	1	-9
368.762	1	-9
368.933	1	-8
369.104	1	4
369.274	1	-8
369.445	1	-7
369.616	1	-23
369.787	1	-2
369.958	1	-9
370.129	1	-7
370.300	1	-2
370.471	1	2
370.641	1	-12
370.812	1	-4
370.983	1	-11
371.154	1	-9
371.325	1	2
371.496	1	-8
371.667	1	-5
371.837	1	-8
372.008	1	-1
372.179	1	-7
372.350	1	2
372.521	1	8
372.692	1	-4
372.863	1	-3
373.033	1	4
373.204	1	-5
373.375	1	0
373.546	1	12
373.717	1	-18
373.888	1	-4
374.059	1	-6
374.229	1	-4
374.400	1	2
374.571	1	-12
374.742	1	-3
374.913	1	-18
375.084	1	-6
375.254	1	-7
375.425	1	-5
375.596	1	10
375.767	1	-4
375.938	1	-10
376.109	1	-13
376.279	1	-1
376.450	1	-7
376.621	1	-6
376.792	1	-11
376.963	1	3
377.134	1	-15
377.304	1	6
377.475	1	-16
377.646	1	-2
377.817	1	-9
377.988	1	10
378.159	1	-9
378.329	1	9
378.500	1	-15
378.671	1	-3
378.842	1	-8
379.013	1	-2
379.184	1	-7
379.354	1	1
379.525	1	-4
379.696	1	-2
379.867	1	-4
380.038	1	0
380.209	1	-14
380.379	1	-17
380.550	1	-2
380.721	1	-13
380.892	1	-3
381.063	1	-3
381.233	1	-6
381.404	1	-2
381.575	1	5
381.746	1	-5
381.917	1	-2
382.087	1	-3
382.258	1	-7
382.429	1	2
382.600	1	-12
382.771	1	-11
382.941	1	2
383.112	1	-5
383.283	1	3
383.454	1	-8
383.625	1	-9
383.795	1	-8
383.966	1	-3
384.137	1	-3
384.308	1	2
384.479	1	2
384.649	1	-8
384.820	1	-3
384.991	1	-8
385.162	1	-12
385.333	1	-3
385.503	1	-6
385.674	1	-4
385.845	1	-6
386.016	1	-12
386.187	1	-7
386.357	1	0
386.528	1	-11
386.699	1	-6
386.870	1	-3
387.041	1	-5
387.211	1	11
387.382	1	-1
387.553	1	-4
387.724	1	-7
387.894	1	-3
388.065	1	-3
388.236	1	-6
388.407	1	3
388.578	1	-5
388.748	1	4
388.919	1	-5
389.090	1	-3
389.261	1	-3
389.431	1	-10
389.602	1	0
389.773	1	-2
389.944	1	-8
390.114	1	-1
390.285	1	-9
390.456	1	2
390.627	1	1
390.798	1	-9
390.968	1	-11
391.139	1	1
391.310	1	-4
391.481	1	-5
391.651	1	-1
391.822	1	2
391.993	1	-17
392.164	1	-2
392.334	1	-7
392.505	1	-4
392.676	1	-4
392.847	1	2
393.017	1	-1
393.188	1	-10
393.359	1	-7
393.530	1	-4
393.700	1	-4
393.871	1	-13
394.042	1	-3
394.213	1	0
394.383	1	1
394.554	1	-11
394.725	1	-7
394.896	1	-8
395.066	1	-18
395.237	1	-16
395.408	1	0
395.579	1	-11
395.749	1	-7
395.920	1	-7
396.091	1	-2
396.262	1	-6
396.432	1	-5
396.603	1	3
396.774	1	-11
396.945	1	-9
397.115	1	-4
397.286	1	-5
397.457	1	-2
397.627	1	-1
397.798	1	-8
397.969	1	-11
398.140	1	4
398.310	1	-2
398.481	1	-13
398.652	1	-9
398.823	1	-7
398.993	1	6
399.164	1	-4
399.335	1	-3
399.505	1	-1
399.676	1	-3
399.847	1	-10
400.018	1	-7
400.188	1	3
400.359	1	-5
400.530	1	0
400.700	1	0
400.871	1	1
401.042	1	-3
401.213	1	-1
401.383	1	2
401.554	1	-5
401.725	1	9
401.895	1	-9
402.066	1	-1
402.237	1	-4
402.408	1	-14
402.578	1	-1
402.749	1	-7
402.920	1	2
403.090	1	-8
403.261	1	-18
403.432	1	-10
403.603	1	-8
403.773	1	-5
403.944	1	-3
404.115	1	-8
404.285	1	6
404.456	1	2
404.627	1	-3
404.797	1	4
404.968	1	-16
405.139	1	-7
405.310	1	-6
405.480	1	4
405.651	1	4
405.822	1	-13
405.992	1	-10
406.163	1	-4
406.334	1	-7
406.504	1	-6
406.675	1	-3
406.846	1	-2
407.016	1	-6
407.187	1	-18
407.358	1	-8
407.528	1	-14
407.699	1	-4
407.870	1	-4
408.041	1	-8
408.211	1	-12
408.382	1	6
408.553	1	-4
408.723	1	4
408.894	1	-12
409.065	1	-9
409.235	1	-5
409.406	1	-4
409.577	1	-2
409.747	1	-3
409.918	1	12
410.089	1	-1
410.259	1	-5
410.430	1	0
410.601	1	-4
410.771	1	-11
410.942	1	0
411.113	1	-4
411.283	1	3
411.454	1	-11
411.625	1	-1
411.795	1	-9
411.966	1	-4
412.137	1	-8
412.307	1	-1
412.478	1	-5
412.649	1	-12
412.819	1	-6
412.990	1	-15
413.161	1	-17
413.331	1	-13
413.502	1	1
413.672	1	-7
413.843	1	7
414.014	1	-10
414.184	1	-6
414.355	1	-13
414.526	1	-1
414.696	1	4
414.867	1	-23
415.038	1	3
415.208	1	-11
415.379	1	1
415.550	1	5
415.720	1	-14
415.891	1	-3
416.062	1	-7
416.232	1	-6
416.403	1	9
416.573	1	-6
416.744	1	-5
416.915	1	-3
417.085	1	4
417.256	1	-1
417.427	1	-3
417.597	1	6
417.768	1	-1
417.939	1	-4
418.109	1	-2
418.280	1	-8
418.450	1	-4
418.621	1	-8
418.792	1	-7
418.962	1	-3
419.133	1	-8
419.304	1	-2
419.474	1	5
419.645	1	9
419.815	1	-10
419.986	1	-6
420.157	1	-3
420.327	1	-8
420.498	1	-6
420.669	1	-1
420.839	1	-13
421.010	1	0
421.180	1	0
421.351	1	0
421.522	1	-7
421.692	1	-10
421.863	1	-4
422.033	1	-9
422.204	1	-2
422.375	1	-6
422.545	1	-3
422.716	1	-5
422.886	1	3
423.057	1	1
423.228	1	2
423.398	1	-7
423.569	1	-11
423.740	1	-14
423.910	1	-3
424.081	1	-11
424.251	1	-4
424.422	1	-11
424.593	1	-1
424.763	1	-10
424.934	1	12
425.104	1	4
425.275	1	-15
425.445	1	-19
425.616	1	-11
425.787	1	-10
425.957	1	-5
426.128	1	-6
426.298	1	-7
426.469	1	-7
426.640	1	-6
426.810	1	-4
426.981	1	-20
427.151	1	-7
427.322	1	4
427.493	1	-1
427.663	1	2
427.834	1	0
428.004	1	-8
428.175	1	3
428.345	1	-6
428.516	1	-3
428.687	1	2
428.857	1	3
429.028	1	0
429.198	1	-3
429.369	1	-1
429.540	1	-9
429.710	1	1
429.881	1	-5
430.051	1	0
430.222	1	-11
430.392	1	-9
430.563	1	-3
430.734	1	8
430.904	1	-1
431.075	1	2
431.245	1	1
431.416	1	8
431.586	1	-8
431.757	1	-6
431.927	1	-13
432.098	1	1
432.269	1	-10
432.439	1	-1
432.610	1	0
432.780	1	2
432.951	1	-7
433.121	1	-7
433.292	1	-11
433.462	1	-11
433.633	1	-3
433.804	1	-3
433.974	1	-7
434.145	1	-4
434.315	1	-8
434.486	1	-1
434.656	1	-3
434.827	1	-9
434.997	1	-6
435.168	1	-5
435.339	1	-4
435.509	1	1
435.680	1	-3
435.850	1	-9
436.021	1	1
436.191	1	8
436.362	1	-6
436.532	1	11
436.703	1	-2
436.873	1	-6
437.044	1	-19
437.214	1	-15
437.385	1	0
437.556	1	-5
437.726	1	-1
437.897	1	-12
438.067	1	1
438.238	1	-13
438.408	1	1
438.579	1	-2
438.749	1	-2
438.920	1	-10
439.090	1	-2
439.261	1	-11
439.431	1	4
439.602	1	2
439.772	1	6
439.943	1	-13
440.113	1	-3
440.284	1	-10
440.455	1	3
440.625	1	-13
440.796	1	-3
440.966	1	9
441.137	1	-1
441.307	1	-6
441.478	1	-3
441.648	1	-12
441.819	1	-12
441.989	1	-4
442.160	1	-5
442.330	1	-11
442.501	1	-7
442.671	1	-5
442.842	1	-6
443.012	1	-1
443.183	1	-5
443.353	1	6
443.524	1	-5
443.694	1	-12
443.865	1	-5
444.035	1	-12
444.206	1	-9
444.376	1	-4
444.547	1	-2
444.717	1	-8
444.888	1	-10
445.058	1	1
445.229	1	-5
445.399	1	-5
445.570	1	-1
445.740	1	-5
445.911	1	-18
446.081	1	-8
446.252	1	-4
446.422	1	0
446.593	1	-15
446.763	1	-5
446.934	1	-4
447.104	1	-3
447.275	1	-3
447.445	1	1
447.616	1	-14
447.786	1	-5
447.957	1	-12
448.127	1	-6
448.298	1	-5
448.468	1	2
448.639	1	1
448.809	1	-1
448.979	1	-8
449.150	1	-2
449.320	1	-2
449.491	1	-2
449.661	1	-2
449.832	1	-5
450.002	1	9
450.173	1	1
450.343	1	2
450.514	1	-8
450.684	1	-12
450.855	1	-9
451.025	1	-4
451.196	1	-4
451.366	1	-3
451.537	1	-3
451.707	1	-10
451.878	1	-11
452.048	1	-6
452.218	1	7
452.389	1	-4
452.559	1	-15
452.730	1	-14
452.900	1	1
453.071	1	-11
453.241	1	-10
453.412	1	0
453.582	1	-2
453.753	1	-5
453.923	1	9
454.093	1	2
454.264	1	2
454.434	1	3
454.605	1	-18
454.775	1	-5
454.946	1	-5
455.116	1	-12
455.287	1	1
455.457	1	-3
455.628	1	-5
455.798	1	0
455.968	1	-11
456.139	1	-3
456.309	1	-9
456.480	1	-4
456.650	1	-1
456.821	1	-1
456.991	1	-18
457.161	1	1
457.332	1	-9
457.502	1	-11
457.673	1	-1
457.843	1	2
458.014	1	-5
458.184	1	-2
458.355	1	3
458.525	1	2
458.695	1	6
458.866	1	2
459.036	1	-9
459.207	1	0
459.377	1	0
459.548	1	-1
459.718	1	-9
459.888	1	-1
460.059	1	-8
460.229	1	0
460.400	1	-18
460.570	1	-4
460.740	1	-5
460.911	1	-7
461.081	1	13
461.252	1	-8
461.422	1	11
461.593	1	-11
461.763	1	-1
461.933	1	-5
462.104	1	2
462.274	1	-2
462.445	1	-4
462.615	1	-9
462.785	1	-11
462.956	1	-3
463.126	1	5
463.297	1	6
463.467	1	5
463.638	1	0
463.808	1	-5
463.978	1	-2
464.149	1	-11
464.319	1	-15
464.490	1	-5
464.660	1	-8
464.830	1	9
465.001	1	-2
465.171	1	0
465.342	1	-4
465.512	1	-19
465.682	1	-9
465.853	1	-1
466.023	1	-15
466.194	1	-7
466.364	1	-12
466.534	1	-1
466.705	1	1
466.875	1	-12
467.045	1	-3
467.216	1	-6
467.386	1	-12
467.557	1	-8
467.727	1	0
467.897	1	-8
468.068	1	-5
468.238	1	-19
468.409	1	-1
468.579	1	-8
468.749	1	-8
468.920	1	5
469.090	1	-21
469.260	1	-10
469.431	1	-10
469.601	1	1
469.772	1	-1
469.942	1	-4
470.112	1	-6
470.283	1	-4
470.453	1	0
470.623	1	-8
470.794	1	-3
470.964	1	9
471.135	1	-10
471.305	1	-3
471.475	1	5
471.646	1	-3
471.816	1	7
471.986	1	-1
472.157	1	4
472.327	1	0
472.497	1	-6
472.668	1	-3
472.838	1	-3
473.009	1	-6
473.179	1	-4
473.349	1	-7
473.520	1	-7
473.690	1	4
473.860	1	-5
474.031	1	-5
474.201	1	-4
474.371	1	3
474.542	1	-1
474.712	1	-10
474.882	1	0
475.053	1	-8
475.223	1	-6
475.394	1	-10
475.564	1	-18
475.734	1	0
475.905	1	-3
476.075	1	-1
476.245	1	-8
476.416	1	-4
476.586	1	-14
476.756	1	3
476.927	1	-3
477.097	1	-1
477.267	1	-2
477.438	1	-6
477.608	1	-8
477.778	1	2
477.949	1	3
478.119	1	-7
478.289	1	-4
478.460	1	4
478.630	1	1
478.800	1	-7
478.971	1	-8
479.141	1	-6
479.311	1	10
479.482	1	-10
479.652	1	-6
479.822	1	-10
479.993	1	-3
480.163	1	-12
480.333	1	-4
480.504	1	0
480.674	1	-8
480.844	1	-4
481.015	1	-2
481.185	1	1
481.355	1	-4
481.525	1	-4
481.696	1	2
481.866	1	-5
482.036	1	-11
482.207	1	-3
482.377	1	-17
482.547	1	-2
482.718	1	5
482.888	1	-15
483.058	1	0
483.229	1	4
483.399	1	0
483.569	1	-7
483.740	1	-9
483.910	1	-7
484.080	1	-2
484.250	1	-6
484.421	1	-3
484.591	1	-3
484.761	1	-2
484.932	1	7
485.102	1	3
485.272	1	-10
485.443	1	-8
485.613	1	4
485.783	1	3
485.953	1	-5
486.124	1	3
486.294	1	2
486.464	1	-9
486.635	1	-14
486.805	1	-9
486.975	1	-1
487.146	1	-8
487.316	1	-6
487.486	1	-10
487.656	1	5
487.827	1	-5
487.997	1	-1
488.167	1	-2
488.338	1	-10
488.508	1	-2
488.678	1	-8
488.848	1	-13
489.019	1	-9
489.189	1	3
489.359	1	-5
489.529	1	0
489.700	1	-10
489.870	1	-8
490.040	1	-3
490.211	1	4
490.381	1	3
490.551	1	-6
490.721	1	5
490.892	1	-8
491.062	1	-2
491.232	1	0
491.402	1	-10
491.573	1	-1
491.743	1	-8
491.913	1	4
492.084	1	-3
492.254	1	5
492.424	1	-3
492.594	1	2
492.765	1	-18
492.935	1	-8
493.105	1	-1
493.275	1	-4
493.446	1	-9
493.616	1	-7
493.786	1	-3
493.956	1	0
494.127	1	-1
494.297	1	-2
494.467	1	-8
494.637	1	-1
494.808	1	-7
494.978	1	-5
495.148	1	-4
495.318	1	-15
495.489	1	-7
495.659	1	-6
495.829	1	-7
495.999	1	-4
496.170	1	-1
496.340	1	4
496.510	1	-7
496.680	1	0
496.851	1	-9
497.021	1	3
497.191	1	-7
497.361	1	-3
497.532	1	-7
497.702	1	-3
497.872	1	0
498.042	1	-4
498.213	1	-9
498.383	1	-13
498.553	1	-9
498.723	1	-1
498.894	1	-1
499.064	1	-2
499.234	1	-4
499.404	1	-14
499.574	1	2
499.745	1	-4
499.915	1	-8
500.085	1	-9
500.255	1	-11
500.426	1	-3
500.596	1	5
500.766	1	-9
500.936	1	1
501.106	1	-4
501.277	1	3
501.447	1	-15
501.617	1	-4
501.787	1	-14
501.958	1	1
502.128	1	-3
502.298	1	-12
502.468	1	-11
502.638	1	-5
502.809	1	-8
502.979	1	-14
503.149	1	4
503.319	1	1
503.489	1	-13
503.660	1	-10
503.830	1	-6
504.000	1	-12
504.170	1	5
504.340	1	-7
504.511	1	5
504.681	1	-4
504.851	1	-3
505.021	1	-11
505.192	1	-2
505.362	1	-8
505.532	1	1
505.702	1	-9
505.872	1	0
506.043	1	-4
506.213	1	-14
506.383	1	1
506.553	1	2
506.723	1	-10
506.893	1	-6
507.064	1	1
507.234	1	-3
507.404	1	-18
507.574	1	-5
507.744	1	1
507.915	1	1
508.085	1	6
508.255	1	7
508.425	1	-9
508.595	1	-4
508.766	1	1
508.936	1	-7
509.106	1	-9
509.276	1	-8
509.446	1	1
509.616	1	-5
509.787	1	-2
509.957	1	-14
510.127	1	4
510.297	1	-10
510.467	1	2
510.638	1	-8
510.808	1	0
510.978	1	-7
511.148	1	-5
511.318	1	-6
511.488	1	6
511.659	1	-9
511.829	1	2
511.999	1	-7
512.169	1	2
512.339	1	-7
512.509	1	1
512.680	1	-5
512.850	1	-4
513.020	1	0
513.190	1	-6
513.360	1	-6
513.530	1	-14
513.700	1	-6
513.871	1	-6
514.041	1	-15
514.211	1	3
514.381	1	-11
514.551	1	-12
514.721	1	0
514.892	1	4
515.062	1	-14
515.232	1	-6
515.402	1	-6
515.572	1	-12
515.742	1	-12
515.912	1	-4
516.083	1	4
516.253	1	-12
516.423	1	-8
516.593	1	-6
516.763	1	-4
516.933	1	-13
517.104	1	-13
517.274	1	-5
517.444	1	-3
517.614	1	-10
517.784	1	9
517.954	1	-6
518.124	1	2
518.294	1	-8
518.465	1	-2
518.635	1	-6
518.805	1	4
518.975	1	-8
519.145	1	3
519.315	1	-3
519.485	1	-9
519.656	1	-14
519.826	1	-11
519.996	1	-7
520.166	1	-2
520.336	1	3
520.506	1	-13
520.676	1	-4
520.846	1	-2
521.017	1	4
521.187	1	-6
521.357	1	-6
521.527	1	-12
521.697	1	-5
521.867	1	-3
522.037	1	-12
522.207	1	2
522.377	1	-9
522.548	1	-2
522.718	1	-6
522.888	1	8
523.058	1	6
523.228	1	-9
523.398	1	-7
523.568	1	-10
523.738	1	-1
523.909	1	6
524.079	1	8
524.249	1	-6
524.419	1	-8
524.589	1	-2
524.759	1	-4
524.929	1	-3
525.099	1	-14
525.269	1	-5
525.439	1	-3
525.610	1	6
525.780	1	-5
525.950	1	-4
526.120	1	-5
526.290	1	-6
526.460	1	2
526.630	1	-3
526.800	1	7
526.970	1	-12
527.140	1	-5
527.311	1	4
527.481	1	-13
527.651	1	-2
527.821	1	-6
527.991	1	0
528.161	1	-4
528.331	1	4
528.501	1	-9
528.671	1	-23
528.841	1	-12
529.011	1	-3
529.181	1	-7
529.352	1	-1
529.522	1	-11
529.692	1	-5
529.862	1	0
530.032	1	-5
530.202	1	-6
530.372	1	-3
530.542	1	-13
530.712	1	-9
530.882	1	-8
531.052	1	-5
531.222	1	-6
531.392	1	-2
531.563	1	-5
531.733	1	-15
531.903	1	0
532.073	1	-4
532.243	1	2
532.413	1	-1
532.583	1	8
532.753	1	-1
532.923	1	-6
533.093	1	-7
533.263	1	-9
533.433	1	-9
533.603	1	3
533.773	1	-13
533.943	1	3
534.113	1	4
534.284	1	-2
534.454	1	-6
534.624	1	-12
534.794	1	-6
534.964	1	-5
535.134	1	-9
535.304	1	-5
535.474	1	0
535.644	1	-17
535.814	1	-6
535.984	1	-2
536.154	1	-6
536.324	1	-7
536.494	1	-16
536.664	1	-1
536.834	1	-6
537.004	1	5
537.174	1	-7
537.344	1	0
537.514	1	-4
537.685	1	1
537.855	1	6
538.025	1	0
538.195	1	-4
538.365	1	-12
538.535	1	-15
538.705	1	-6
538.875	1	4
539.045	1	-11
539.215	1	-1
539.385	1	-9
539.555	1	-8
539.725	1	-6
539.895	1	-16
540.065	1	-2
540.235	1	3
540.405	1	-3
540.575	1	0
540.745	1	-5
540.915	1	-8
541.085	1	-1
541.255	1	-8
541.425	1	-5
541.595	1	-8
541.765	1	-15
541.935	1	-5
542.105	1	-2
542.275	1	4
542.445	1	-6
542.615	1	-1
542.785	1	-12
542.955	1	-3
543.125	1	-12
543.295	1	-17
543.465	1	-1
543.635	1	5
543.805	1	-5
543.975	1	-9
544.145	1	3
544.315	1	-7
544.485	1	-7
544.655	1	-5
544.825	1	-8
544.995	1	10
545.165	1	-12
545.335	1	2
545.505	1	-3
545.675	1	2
545.845	1	-13
546.015	1	-6
546.185	1	3
546.355	1	12
546.525	1	5
546.695	1	-10
546.865	1	0
547.035	1	-12
547.205	1	8
547.375	1	5
547.545	1	-6
547.715	1	-11
547.885	1	-19
548.055	1	-3
548.225	1	2
548.395	1	-5
548.565	1	11
548.735	1	-5
548.905	1	-5
549.075	1	-3
549.245	1	-7
549.415	1	-11
549.585	1	-8
549.755	1	-1
549.925	1	8
550.095	1	1
550.265	1	-13
550.435	1	-5
550.605	1	-10
550.775	1	10
550.945	1	1
551.115	1	-7
551.285	1	-3
551.455	1	0
551.625	1	-7
551.795	1	-12
551.965	1	-12
552.135	1	2
552.305	1	-5
552.475	1	-2
552.645	1	1
552.815	1	-6
552.985	1	-2
553.155	1	1
553.325	1	3
553.495	1	-7
553.665	1	-8
553.835	1	6
554.004	1	-5
554.174	1	-5
554.344	1	-13
554.514	1	-2
554.684	1	-13
554.854	1	-7
555.024	1	-1
555.194	1	1
555.364	1	-8
555.534	1	4
555.704	1	-1
555.874	1	-2
556.044	1	-7
556.214	1	-9
556.384	1	6
556.554	1	-12
556.724	1	-4
556.894	1	-11
557.064	1	1
557.234	1	-11
557.404	1	-6
557.573	1	-10
557.743	1	-3
557.913	1	-2
558.083	1	-16
558.253	1	-2
558.423	1	-4
558.593	1	-1
558.763	1	-1
558.933	1	-5
559.103	1	-9
559.273	1	4
559.443	1	-11
559.613	1	-5
559.783	1	-2
559.953	1	-12
560.122	1	-5
560.292	1	-2
560.462	1	-10
560.632	1	-3
560.802	1	3
560.972	1	-3
561.142	1	-1
561.312	1	-3
561.482	1	-5
561.652	1	-11
561.822	1	-3
561.992	1	-7
562.162	1	-7
562.331	1	5
562.501	1	1
562.671	1	-5
562.841	1	-11
563.011	1	0
563.181	1	-6
563.351	1	2
563.521	1	-17
563.691	1	0
563.861	1	-4
564.031	1	-5
564.201	1	-4
564.370	1	4
564.540	1	-3
564.710	1	-13
564.880	1	3
565.050	1	-13
565.220	1	-1
565.390	1	-1
565.560	1	1
565.730	1	-17
565.900	1	-7
566.069	1	-16
566.239	1	7
566.409	1	-5
566.579	1	-8
566.749	1	-10
566.919	1	-8
567.089	1	-12
567.259	1	1
567.429	1	9
567.599	1	-1
567.768	1	-6
567.938	1	-6
568.108	1	-10
568.278	1	2
568.448	1	-2
568.618	1	-3
568.788	1	2
568.958	1	-8
569.128	1	-1
569.297	1	-5
569.467	1	-4
569.637	1	-12
569.807	1	8
569.977	1	-10
570.147	1	4
570.317	1	-9
570.487	1	-2
570.656	1	-9
570.826	1	-14
570.996	1	-9
571.166	1	-6
571.336	1	-9
571.506	1	-3
571.676	1	-6
571.846	1	-15
572.015	1	-15
572.185	1	-2
572.355	1	-6
572.525	1	-6
572.695	1	-10
572.865	1	0
573.035	1	-1
573.205	1	-6
573.374	1	-6
573.544	1	-2
573.714	1	0
573.884	1	5
574.054	1	0
574.224	1	-3
574.394	1	-10
574.563	1	-9
574.733	1	-3
574.903	1	-6
575.073	1	-6
575.243	1	0
575.413	1	-12
575.583	1	-2
575.752	1	-5
575.922	1	1
576.092	1	-8
576.262	1	-3
576.432	1	-6
576.602	1	2
576.772	1	-10
576.941	1	-6
577.111	1	7
577.281	1	1
577.451	1	-5
577.621	1	-2
577.791	1	2
577.960	1	-4
578.130	1	-13
578.300	1	0
578.470	1	-6
578.640	1	6
578.810	1	-9
578.979	1	-16
579.149	1	7
579.319	1	-4
579.489	1	-11
579.659	1	-5
579.829	1	-8
579.998	1	-8
580.168	1	-7
580.338	1	1
580.508	1	3
580.678	1	-11
580.848	1	-5
581.017	1	-8
581.187	1	-9
581.357	1	-4
581.527	1	-17
581.697	1	-23
581.867	1	-4
582.036	1	-12
582.206	1	-8
582.376	1	-7
582.546	1	-4
582.716	1	3
582.885	1	-9
583.055	1	-8
583.225	1	-12
583.395	1	-4
583.565	1	-8
583.735	1	-1
583.904	1	3
584.074	1	1
584.244	1	-10
584.414	1	7
584.584	1	-8
584.753	1	-23
584.923	1	-12
585.093	1	2
585.263	1	-14
585.433	1	-6
585.602	1	-6
585.772	1	-2
585.942	1	-3
586.112	1	-19
586.282	1	-6
586.451	1	5
586.621	1	-2
586.791	1	-6
586.961	1	-4
587.131	1	-11
587.300	1	5
587.470	1	-8
587.640	1	-10
587.810	1	0
587.980	1	-6
588.149	1	1
588.319	1	-6
588.489	1	-6
588.659	1	-12
588.829	1	-1
588.998	1	1
589.168	1	-10
589.338	1	-8
589.508	1	-4
589.677	1	1
589.847	1	-9
590.017	1	-4
590.187	1	-19
590.357	1	-2
590.526	1	-13
590.696	1	-20
590.866	1	-28
591.036	1	7
591.205	1	-3
591.375	1	-14
591.545	1	-2
591.715	1	-18
591.885	1	-9
592.054	1	-13
592.224	1	-1
592.394	1	-7
592.564	1	-5
592.733	1	0
592.903	1	8
593.073	1	3
593.243	1	-3
593.412	1	-11
593.582	1	-13
593.752	1	-17
593.922	1	3
594.091	1	-11
594.261	1	-8
594.431	1	-14
594.601	1	-7
594.771	1	-1
594.940	1	2
595.110	1	-4
595.280	1	-9
595.450	1	11
595.619	1	-4
595.789	1	-5
595.959	1	-8
596.129	1	7
596.298	1	0
596.468	1	-7
596.638	1	-5
596.808	1	-3
596.977	1	-6
597.147	1	3
597.317	1	-4
597.487	1	-8
597.656	1	-13
597.826	1	-4
597.996	1	-1
598.166	1	-3
598.335	1	-2
598.505	1	-3
598.675	1	-13
598.844	1	-1
599.014	1	-9
599.184	1	-13
599.354	1	4
599.523	1	-7
599.693	1	6
599.863	1	-6
600.033	1	-7
600.202	1	-3
600.372	1	-5
600.542	1	6
600.712	1	-6
600.881	1	-3
601.051	1	-6
601.221	1	0
601.390	1	0
601.560	1	-1
601.730	1	-11
601.900	1	-7
602.069	1	0
602.239	1	-10
602.409	1	1
602.578	1	-3
602.748	1	-11
602.918	1	-8
603.088	1	-10
603.257	1	-4
603.427	1	2
603.597	1	0
603.767	1	-1
603.936	1	-5
604.106	1	-2
604.276	1	0
604.445	1	-15
604.615	1	1
604.785	1	2
604.954	1	-2
605.124	1	6
605.294	1	-7
605.464	1	-2
605.633	1	3
605.803	1	5
605.973	1	8
606.142	1	4
606.312	1	-8
606.482	1	-11
606.652	1	-8
606.821	1	-2
606.991	1	-17
607.161	1	10
607.330	1	-5
607.500	1	-9
607.670	1	0
607.839	1	4
608.009	1	-7
608.179	1	-9
608.348	1	-5
608.518	1	-5
608.688	1	-6
608.858	1	-7
609.027	1	4
609.197	1	-3
609.367	1	-10
609.536	1	-4
609.706	1	2
609.876	1	-2
610.045	1	1
610.215	1	5
610.385	1	9
610.554	1	-4
610.724	1	-2
610.894	1	2
611.063	1	-2
611.233	1	-13
611.403	1	6
611.572	1	-1
611.742	1	-6
611.912	1	-10
612.081	1	3
612.251	1	-4
612.421	1	-8
612.590	1	-16
612.760	1	-1
612.930	1	4
613.099	1	4
613.269	1	-4
613.439	1	2
613.608	1	-7
613.778	1	-3
613.948	1	-8
614.117	1	-4
614.287	1	-13
614.457	1	-11
614.626	1	-7
614.796	1	-7
614.966	1	4
615.135	1	5
615.305	1	0
615.475	1	3
615.644	1	-6
615.814	1	-2
615.984	1	-1
616.153	1	-4
616.323	1	-9
616.493	1	-9
616.662	1	2
616.832	1	-7
617.002	1	1
617.171	1	-4
617.341	1	-2
617.511	1	-8
617.680	1	3
617.850	1	3
618.019	1	-5
618.189	1	-1
618.359	1	-6
618.528	1	0
618.698	1	-2
618.868	1	-3
619.037	1	-6
619.207	1	-4
619.377	1	-5
619.546	1	-14
619.716	1	-2
619.885	1	3
620.055	1	-15
620.225	1	0
620.394	1	-6
620.564	1	6
620.734	1	1
620.903	1	6
621.073	1	3
621.242	1	1
621.412	1	-13
621.582	1	-2
621.751	1	-7
621.921	1	-9
622.091	1	-1
622.260	1	-12
622.430	1	9
622.599	1	-2
622.769	1	-5
622.939	1	-13
623.108	1	-5
623.278	1	-1
623.448	1	-5
623.617	1	-5
623.787	1	9
623.956	1	-12
624.126	1	-8
624.296	1	-10
624.465	1	0
624.635	1	-16
624.804	1	0
624.974	1	-12
625.144	1	5
625.313	1	-6
625.483	1	-2
625.652	1	-8
625.822	1	-1
625.992	1	6
626.161	1	-6
626.331	1	1
626.501	1	-15
626.670	1	-2
626.840	1	-3
627.009	1	-4
627.179	1	9
627.348	1	5
627.518	1	-10
627.688	1	-11
627.857	1	3
628.027	1	-4
628.196	1	-7
628.366	1	9
628.536	1	-2
628.705	1	2
628.875	1	-7
629.044	1	-13
629.214	1	-10
629.384	1	-12
629.553	1	-9
629.723	1	-1
629.892	1	-7
630.062	1	-15
630.232	1	-8
630.401	1	-3
630.571	1	-5
630.740	1	-6
630.910	1	4
631.079	1	-2
631.249	1	-11
631.419	1	-5
631.588	1	-9
631.758	1	-7
631.927	1	2
632.097	1	-6
632.266	1	-13
632.436	1	5
632.606	1	-2
632.775	1	-6
632.945	1	-18
633.114	1	-4
633.284	1	0
633.453	1	-6
633.623	1	-1
633.793	1	-2
633.962	1	-5
634.132	1	-9
634.301	1	-5
634.471	1	-6
634.640	1	-14
634.810	1	-3
634.979	1	-3
635.149	1	0
635.319	1	5
635.488	1	1
635.658	1	-12
635.827	1	-7
635.997	1	-3
636.166	1	-7
636.336	1	-4
636.505	1	-7
636.675	1	-6
636.845	1	-8
637.014	1	-5
637.184	1	-9
637.353	1	1
637.523	1	-2
637.692	1	1
637.862	1	-7
638.031	1	-4
638.201	1	-8
638.370	1	4
638.540	1	-4
638.710	1	-7
638.879	1	-9
639.049	1	-7
639.218	1	8
639.388	1	-3
639.557	1	-2
639.727	1	-1
639.896	1	3
640.066	1	1
640.235	1	-10
640.405	1	-6
640.574	1	-7
640.744	1	-4
640.914	1	-7
641.083	1	0
641.253	1	-2
641.422	1	-10
641.592	1	-10
641.761	1	0
641.931	1	-4
642.100	1	-3
642.270	1	-3
642.439	1	-1
642.609	1	-1
642.778	1	4
642.948	1	0
643.117	1	-4
643.287	1	-11
643.456	1	-5
643.626	1	-6
643.795	1	4
643.965	1	-5
644.134	1	-1
644.304	1	0
644.473	1	-2
644.643	1	-18
644.812	1	-10
644.982	1	-13
645.151	1	-7
645.321	1	2
645.490	1	-9
645.660	1	2
645.829	1	-3
645.999	1	-4
646.168	1	6
646.338	1	-16
646.507	1	-9
646.677	1	-8
646.846	1	-6
647.016	1	-5
647.185	1	-9
647.355	1	-8
647.524	1	-2
647.694	1	5
647.863	1	-10
648.033	1	-10
648.202	1	-1
648.372	1	-4
648.541	1	2
648.711	1	-7
648.880	1	-8
649.050	1	-8
649.219	1	-6
649.389	1	2
649.558	1	4
649.728	1	2
649.897	1	2
650.067	1	-7
650.236	1	5
650.406	1	-5
650.575	1	0
650.745	1	-5
650.914	1	-5
651.084	1	-18
651.253	1	-1
651.423	1	3
651.592	1	-6
651.762	1	-8
651.931	1	-2
652.101	1	-10
652.270	1	-11
652.440	1	-9
652.609	1	-7
652.778	1	3
652.948	1	-12
653.117	1	-1
653.287	1	-11
653.456	1	-8
653.626	1	3
653.795	1	-4
653.965	1	3
654.134	1	-13
654.304	1	-13
654.473	1	-6
654.643	1	-8
654.812	1	6
654.982	1	0
655.151	1	4
655.320	1	-2
655.490	1	-3
655.659	1	1
655.829	1	-6
655.998	1	-7
656.168	1	-13
656.337	1	-8
656.507	1	-7
656.676	1	-1
656.846	1	5
657.015	1	3
657.184	1	1
657.354	1	-4
657.523	1	-5
657.693	1	-9
657.862	1	-14
658.032	1	-2
658.201	1	-3
658.371	1	-1
658.540	1	-6
658.709	1	2
658.879	1	7
659.048	1	-15
659.218	1	-11
659.387	1	-5
659.557	1	-5
659.726	1	5
659.895	1	-1
660.065	1	-3
660.234	1	-6
660.404	1	-1
660.573	1	-5
660.743	1	-8
660.912	1	-14
661.081	1	-7
661.251	1	7
661.420	1	2
661.590	1	-11
661.759	1	-7
661.929	1	-2
662.098	1	0
662.267	1	-5
662.437	1	-8
662.606	1	-11
662.776	1	-6
662.945	1	-5
663.115	1	-10
663.284	1	-2
663.453	1	-5
663.623	1	-11
663.792	1	-19
663.962	1	-1
664.131	1	-1
664.300	1	-5
664.470	1	-11
664.639	1	0
664.809	1	-6
664.978	1	2
665.148	1	-8
665.317	1	3
665.486	1	-14
665.656	1	-3
665.825	1	12
665.995	1	-13
666.164	1	-10
666.333	1	10
666.503	1	3
666.672	1	-9
666.842	1	-3
667.011	1	11
667.180	1	-6
667.350	1	-7
667.519	1	-6
667.689	1	-8
667.858	1	-4
668.027	1	1
668.197	1	6
668.366	1	-9
668.536	1	1
668.705	1	-5
668.874	1	-5
669.044	1	-9
669.213	1	8
669.382	1	-1
669.552	1	0
669.721	1	-1
669.891	1	3
670.060	1	-15
670.229	1	-7
670.399	1	3
670.568	1	-13
670.738	1	6
670.907	1	0
671.076	1	-8
671.246	1	6
671.415	1	-3
671.584	1	0
671.754	1	-12
671.923	1	-1
672.093	1	2
672.262	1	6
672.431	1	-18
672.601	1	1
672.770	1	-2
672.939	1	-5
673.109	1	-8
673.278	1	-5
673.448	1	-12
673.617	1	-6
673.786	1	-7
