325.333	1	23
325.504	1	7
325.675	1	7
325.846	1	8
326.017	1	1
326.188	1	11
326.359	1	19
326.531	1	-4
326.702	1	2
326.873	1	16
327.044	1	1
327.215	1	6
327.386	1	2
327.557	1	18
327.728	1	-4
327.899	1	2
328.070	1	7
328.241	1	3
328.412	1	10
328.583	1	9
328.754	1	12
328.926	1	9
329.097	1	4
329.268	1	7
329.439	1	4
329.610	1	-1
329.781	1	0
329.952	1	1
330.123	1	9
330.294	1	1
330.465	1	3
330.636	1	16
330.807	1	7
330.978	1	2
331.149	1	7
331.320	1	3
331.492	1	7
331.663	1	1
331.834	1	7
332.005	1	8
332.176	1	15
332.347	1	13
332.518	1	0
332.689	1	10
332.860	1	5
333.031	1	5
333.202	1	11
333.373	1	3
333.544	1	1
333.715	1	3
333.886	1	9
334.057	1	2
334.228	1	5
334.399	1	6
334.570	1	-6
334.741	1	15
334.912	1	1
335.084	1	10
335.255	1	1
335.426	1	1
335.597	1	-1
335.768	1	11
335.939	1	3
336.110	1	2
336.281	1	5
336.452	1	7
336.623	1	17
336.794	1	-4
336.965	1	6
337.136	1	-1
337.307	1	2
337.478	1	-13
337.649	1	7
337.820	1	0
337.991	1	-4
338.162	1	3
338.333	1	4
338.504	1	13
338.675	1	2
338.846	1	18
339.017	1	9
339.188	1	5
339.359	1	4
339.530	1	-7
339.701	1	4
339.872	1	12
340.043	1	10
340.214	1	7
340.385	1	2
340.556	1	-3
340.727	1	3
340.898	1	11
341.069	1	-6
341.240	1	-7
341.411	1	7
341.582	1	4
341.753	1	-3
341.924	1	5
342.095	1	-2
342.266	1	0
342.437	1	0
342.608	1	6
342.779	1	7
342.950	1	3
343.121	1	3
343.292	1	9
343.463	1	11
343.634	1	1
343.805	1	-3
343.976	1	7
344.147	1	1
344.318	1	10
344.489	1	10
344.660	1	3
344.831	1	11
345.002	1	0
345.173	1	4
345.344	1	4
345.515	1	3
345.686	1	2
345.857	1	10
346.028	1	6
346.199	1	19
346.370	1	-2
346.541	1	5
346.712	1	17
346.883	1	0
347.054	1	7
347.225	1	2
347.396	1	-9
347.567	1	6
347.738	1	0
347.909	1	12
348.080	1	6
348.251	1	0
348.422	1	-4
348.593	1	-4
348.764	1	-3
348.935	1	0
349.106	1	2
349.277	1	4
349.448	1	-3
349.619	1	-10
349.790	1	14
349.961	1	5
350.132	1	3
350.303	1	5
350.474	1	1
350.645	1	0
350.816	1	-15
350.987	1	8
351.157	1	-1
351.328	1	-2
351.499	1	-3
351.670	1	10
351.841	1	10
352.012	1	6
352.183	1	-8
352.354	1	4
352.525	1	-6
352.696	1	8
352.867	1	-14
353.038	1	12
353.209	1	-8
353.380	1	-6
353.551	1	1
353.722	1	0
353.893	1	4
354.064	1	1
354.235	1	-4
354.406	1	6
354.576	1	5
354.747	1	-3
354.918	1	2
355.089	1	-4
355.260	1	7
355.431	1	11
355.602	1	0
355.773	1	-9
355.944	1	-4
356.115	1	1
356.286	1	2
356.457	1	-2
356.628	1	-5
356.799	1	-7
356.970	1	-3
357.141	1	2
357.311	1	4
357.482	1	5
357.653	1	-9
357.824	1	-10
357.995	1	8
358.166	1	-9
358.337	1	4
358.508	1	0
358.679	1	-5
358.850	1	2
359.021	1	0
359.192	1	-6
359.363	1	7
359.533	1	10
359.704	1	-3
359.875	1	-5
360.046	1	1
360.217	1	1
360.388	1	8
360.559	1	0
360.730	1	8
360.901	1	-2
361.072	1	-1
361.243	1	-3
361.414	1	2
361.584	1	6
361.755	1	11
361.926	1	-3
362.097	1	16
362.268	1	-5
362.439	1	-11
362.610	1	9
362.781	1	2
362.952	1	-12
363.123	1	-7
363.293	1	5
363.464	1	-1
363.635	1	12
363.806	1	-5
363.977	1	-2
364.148	1	-2
364.319	1	-6
364.490	1	-5
364.661	1	2
364.832	1	-1
365.002	1	-6
365.173	1	-8
365.344	1	-1
365.515	1	-4
365.686	1	-10
365.857	1	3
366.028	1	5
366.199	1	-6
366.370	1	-10
366.540	1	2
366.711	1	4
366.882	1	-1
367.053	1	-1
367.224	1	-8
367.395	1	-3
367.566	1	2
367.737	1	4
367.908	1	-5
368.078	1	-6
368.249	1	-6
368.420	1	6
368.591	1	5
368.762	1	-11
368.933	1	4
369.104	1	-3
369.274	1	-3
369.445	1	-3
369.616	1	-2
369.787	1	-1
369.958	1	-7
370.129	1	-8
370.300	1	-5
370.471	1	1
370.641	1	-9
370.812	1	-6
370.983	1	-9
371.154	1	9
371.325	1	5
371.496	1	4
371.667	1	-10
371.837	1	-1
372.008	1	-12
372.179	1	-3
372.350	1	-3
372.521	1	9
372.692	1	-3
372.863	1	0
373.033	1	0
373.204	1	0
373.375	1	-4
373.546	1	-9
373.717	1	-5
373.888	1	-2
374.059	1	-10
374.229	1	4
374.400	1	2
374.571	1	1
374.742	1	-5
374.913	1	-4
375.084	1	-6
375.254	1	0
375.425	1	-8
375.596	1	13
375.767	1	-14
375.938	1	-5
376.109	1	-6
376.279	1	-4
376.450	1	0
376.621	1	-4
376.792	1	-9
376.963	1	13
377.134	1	0
377.304	1	4
377.475	1	-16
377.646	1	13
377.817	1	-6
377.988	1	8
378.159	1	0
378.329	1	9
378.500	1	-8
378.671	1	2
378.842	1	-2
379.013	1	1
379.184	1	-4
379.354	1	5
379.525	1	-6
379.696	1	-7
379.867	1	4
380.038	1	2
380.209	1	-1
380.379	1	-18
380.550	1	5
380.721	1	-12
380.892	1	1
381.063	1	-3
381.233	1	1
381.404	1	0
381.575	1	0
381.746	1	-9
381.917	1	4
382.087	1	-9
382.258	1	-7
382.429	1	9
382.600	1	1
382.771	1	-4
382.941	1	0
383.112	1	13
383.283	1	-7
383.454	1	10
383.625	1	0
383.795	1	-4
383.966	1	-4
384.137	1	3
384.308	1	-2
384.479	1	4
384.649	1	-4
384.820	1	7
384.991	1	-11
385.162	1	-15
385.333	1	-1
385.503	1	-15
385.674	1	12
385.845	1	-4
386.016	1	5
386.187	1	-6
386.357	1	0
386.528	1	4
386.699	1	-1
386.870	1	-6
387.041	1	-13
387.211	1	2
387.382	1	1
387.553	1	1
387.724	1	-5
387.894	1	8
388.065	1	-3
388.236	1	2
388.407	1	13
388.578	1	7
388.748	1	10
388.919	1	-13
389.090	1	0
389.261	1	1
389.431	1	-9
389.602	1	10
389.773	1	1
389.944	1	4
390.114	1	6
390.285	1	-7
390.456	1	13
390.627	1	0
390.798	1	-6
390.968	1	-1
391.139	1	3
391.310	1	-2
391.481	1	-2
391.651	1	10
391.822	1	0
391.993	1	-5
392.164	1	1
392.334	1	3
392.505	1	-14
392.676	1	-4
392.847	1	4
393.017	1	1
393.188	1	3
393.359	1	2
393.530	1	-1
393.700	1	1
393.871	1	-8
394.042	1	1
394.213	1	-2
394.383	1	2
394.554	1	-3
394.725	1	3
394.896	1	1
395.066	1	-8
395.237	1	-1
395.408	1	-8
395.579	1	-3
395.749	1	1
395.920	1	1
396.091	1	2
396.262	1	-6
396.432	1	4
396.603	1	5
396.774	1	0
396.945	1	3
397.115	1	2
397.286	1	-1
397.457	1	-7
397.627	1	-9
397.798	1	-3
397.969	1	-2
398.140	1	6
398.310	1	-1
398.481	1	-9
398.652	1	-11
398.823	1	3
398.993	1	5
399.164	1	5
399.335	1	-5
399.505	1	10
399.676	1	-1
399.847	1	-1
400.018	1	-9
400.188	1	5
400.359	1	5
400.530	1	-5
400.700	1	3
400.871	1	5
401.042	1	1
401.213	1	0
401.383	1	10
401.554	1	10
401.725	1	-4
401.895	1	-7
402.066	1	2
402.237	1	4
402.408	1	-7
402.578	1	2
402.749	1	4
402.920	1	13
403.090	1	1
403.261	1	-13
403.432	1	2
403.603	1	5
403.773	1	0
403.944	1	0
404.115	1	-1
404.285	1	12
404.456	1	5
404.627	1	0
404.797	1	7
404.968	1	-2
405.139	1	-4
405.310	1	7
405.480	1	7
405.651	1	-1
405.822	1	-3
405.992	1	-6
406.163	1	6
406.334	1	-2
406.504	1	5
406.675	1	13
406.846	1	6
407.016	1	-2
407.187	1	-16
407.358	1	5
407.528	1	-5
407.699	1	8
407.870	1	-9
408.041	1	2
408.211	1	0
408.382	1	1
408.553	1	-8
408.723	1	0
408.894	1	-5
409.065	1	-11
409.235	1	4
409.406	1	3
409.577	1	8
409.747	1	-4
409.918	1	20
410.089	1	8
410.259	1	3
410.430	1	11
410.601	1	-2
410.771	1	-2
410.942	1	8
411.113	1	8
411.283	1	9
411.454	1	0
411.625	1	10
411.795	1	13
411.966	1	11
412.137	1	-2
412.307	1	-4
412.478	1	10
412.649	1	6
412.819	1	4
412.990	1	-3
413.161	1	-3
413.331	1	-1
413.502	1	12
413.672	1	-5
413.843	1	10
414.014	1	-7
414.184	1	6
414.355	1	6
414.526	1	2
414.696	1	16
414.867	1	10
415.038	1	13
415.208	1	-3
415.379	1	15
415.550	1	12
415.720	1	-8
415.891	1	12
416.062	1	-5
416.232	1	-3
416.403	1	9
416.573	1	0
416.744	1	1
416.915	1	7
417.085	1	7
417.256	1	2
417.427	1	8
417.597	1	9
417.768	1	1
417.939	1	7
418.109	1	-6
418.280	1	6
418.450	1	4
418.621	1	9
418.792	1	8
418.962	1	3
419.133	1	5
419.304	1	9
419.474	1	8
419.645	1	4
419.815	1	14
419.986	1	8
420.157	1	11
420.327	1	3
420.498	1	10
420.669	1	2
420.839	1	-10
421.010	1	4
421.180	1	6
421.351	1	10
421.522	1	-5
421.692	1	2
421.863	1	-3
422.033	1	-2
422.204	1	2
422.375	1	2
422.545	1	6
422.716	1	9
422.886	1	3
423.057	1	9
423.228	1	15
423.398	1	9
423.569	1	4
423.740	1	-8
423.910	1	13
424.081	1	1
424.251	1	12
424.422	1	9
424.593	1	1
424.763	1	1
424.934	1	17
425.104	1	11
425.275	1	1
425.445	1	-13
425.616	1	7
425.787	1	5
425.957	1	7
426.128	1	2
426.298	1	1
426.469	1	-2
426.640	1	5
426.810	1	4
426.981	1	-1
427.151	1	15
427.322	1	5
427.493	1	13
427.663	1	14
427.834	1	10
428.004	1	-4
428.175	1	5
428.345	1	-2
428.516	1	6
428.687	1	22
428.857	1	10
429.028	1	10
429.198	1	11
429.369	1	4
429.540	1	6
429.710	1	-5
429.881	1	4
430.051	1	4
430.222	1	-10
430.392	1	6
430.563	1	6
430.734	1	16
430.904	1	13
431.075	1	6
431.245	1	7
431.416	1	24
431.586	1	-9
431.757	1	-3
431.927	1	4
432.098	1	11
432.269	1	4
432.439	1	11
432.610	1	7
432.780	1	16
432.951	1	0
433.121	1	11
433.292	1	3
433.462	1	6
433.633	1	9
433.804	1	11
433.974	1	6
434.145	1	5
434.315	1	7
434.486	1	24
434.656	1	12
434.827	1	4
434.997	1	4
435.168	1	14
435.339	1	0
435.509	1	12
435.680	1	10
435.850	1	7
436.021	1	16
436.191	1	14
436.362	1	6
436.532	1	23
436.703	1	9
436.873	1	13
437.044	1	4
437.214	1	3
437.385	1	0
437.556	1	4
437.726	1	10
437.897	1	1
438.067	1	10
438.238	1	-1
438.408	1	10
438.579	1	-6
438.749	1	5
438.920	1	10
439.090	1	10
439.261	1	13
439.431	1	15
439.602	1	3
439.772	1	11
439.943	1	9
440.113	1	18
440.284	1	0
440.455	1	11
440.625	1	-3
440.796	1	6
440.966	1	18
441.137	1	17
441.307	1	7
441.478	1	8
441.648	1	5
441.819	1	5
441.989	1	9
442.160	1	0
442.330	1	4
442.501	1	7
442.671	1	8
442.842	1	7
443.012	1	9
443.183	1	10
443.353	1	16
443.524	1	11
443.694	1	7
443.865	1	4
444.035	1	-5
444.206	1	4
444.376	1	14
444.547	1	5
444.717	1	17
444.888	1	7
445.058	1	30
445.229	1	2
445.399	1	4
445.570	1	12
445.740	1	2
445.911	1	3
446.081	1	14
446.252	1	12
446.422	1	12
446.593	1	-3
446.763	1	5
446.934	1	21
447.104	1	7
447.275	1	9
447.445	1	4
447.616	1	10
447.786	1	1
447.957	1	7
448.127	1	9
448.298	1	10
448.468	1	15
448.639	1	15
448.809	1	15
448.979	1	12
449.150	1	11
449.320	1	10
449.491	1	10
449.661	1	18
449.832	1	14
450.002	1	9
450.173	1	11
450.343	1	18
450.514	1	7
450.684	1	11
450.855	1	11
451.025	1	16
451.196	1	12
451.366	1	7
451.537	1	1
451.707	1	4
451.878	1	8
452.048	1	5
452.218	1	20
452.389	1	4
452.559	1	6
452.730	1	6
452.900	1	15
453.071	1	1
453.241	1	10
453.412	1	13
453.582	1	9
453.753	1	9
453.923	1	17
454.093	1	19
454.264	1	15
454.434	1	15
454.605	1	-3
454.775	1	7
454.946	1	18
455.116	1	9
455.287	1	6
455.457	1	13
455.628	1	13
455.798	1	21
455.968	1	8
456.139	1	14
456.309	1	10
456.480	1	-1
456.650	1	1
456.821	1	7
456.991	1	-2
457.161	1	19
457.332	1	3
457.502	1	14
457.673	1	16
457.843	1	13
458.014	1	12
458.184	1	18
458.355	1	5
458.525	1	7
458.695	1	5
458.866	1	9
459.036	1	11
459.207	1	1
459.377	1	19
459.548	1	13
459.718	1	8
459.888	1	8
460.059	1	-2
460.229	1	6
460.400	1	-6
460.570	1	12
460.740	1	15
460.911	1	13
461.081	1	21
461.252	1	12
461.422	1	20
461.593	1	5
461.763	1	22
461.933	1	5
462.104	1	14
462.274	1	6
462.445	1	4
462.615	1	7
462.785	1	10
462.956	1	13
463.126	1	15
463.297	1	15
463.467	1	13
463.638	1	9
463.808	1	9
463.978	1	3
464.149	1	6
464.319	1	3
464.490	1	10
464.660	1	10
464.830	1	19
465.001	1	16
465.171	1	11
465.342	1	16
465.512	1	9
465.682	1	9
465.853	1	-3
466.023	1	11
466.194	1	11
466.364	1	9
466.534	1	10
466.705	1	20
466.875	1	7
467.045	1	-3
467.216	1	4
467.386	1	6
467.557	1	-1
467.727	1	8
467.897	1	2
468.068	1	8
468.238	1	10
468.409	1	13
468.579	1	8
468.749	1	7
468.920	1	15
469.090	1	1
469.260	1	5
469.431	1	0
469.601	1	16
469.772	1	19
469.942	1	8
470.112	1	16
470.283	1	14
470.453	1	14
470.623	1	3
470.794	1	5
470.964	1	18
471.135	1	2
471.305	1	11
471.475	1	18
471.646	1	-5
471.816	1	10
471.986	1	10
472.157	1	20
472.327	1	4
472.497	1	9
472.668	1	7
472.838	1	15
473.009	1	6
473.179	1	9
473.349	1	4
473.520	1	7
473.690	1	3
473.860	1	15
474.031	1	8
474.201	1	0
474.371	1	11
474.542	1	11
474.712	1	1
474.882	1	8
475.053	1	4
475.223	1	-4
475.394	1	3
475.564	1	0
475.734	1	6
475.905	1	14
476.075	1	16
476.245	1	7
476.416	1	11
476.586	1	0
476.756	1	13
476.927	1	4
477.097	1	9
477.267	1	14
477.438	1	9
477.608	1	4
477.778	1	8
477.949	1	11
478.119	1	5
478.289	1	9
478.460	1	4
478.630	1	10
478.800	1	13
478.971	1	-1
479.141	1	9
479.311	1	13
479.482	1	1
479.652	1	9
479.822	1	6
479.993	1	3
480.163	1	7
480.333	1	10
480.504	1	14
480.674	1	10
480.844	1	12
481.015	1	5
481.185	1	12
481.355	1	5
481.525	1	1
481.696	1	6
481.866	1	7
482.036	1	-2
482.207	1	3
482.377	1	3
482.547	1	10
482.718	1	13
482.888	1	2
483.058	1	5
483.229	1	7
483.399	1	11
483.569	1	-1
483.740	1	-1
483.910	1	7
484.080	1	12
484.250	1	6
484.421	1	7
484.591	1	8
484.761	1	9
484.932	1	5
485.102	1	16
485.272	1	8
485.443	1	1
485.613	1	15
485.783	1	3
485.953	1	8
486.124	1	6
486.294	1	10
486.464	1	1
486.635	1	2
486.805	1	8
486.975	1	9
487.146	1	12
487.316	1	12
487.486	1	7
487.656	1	15
487.827	1	3
487.997	1	6
488.167	1	4
488.338	1	13
488.508	1	5
488.678	1	-3
488.848	1	7
489.019	1	2
489.189	1	11
489.359	1	10
489.529	1	-4
489.700	1	4
489.870	1	-4
490.040	1	12
490.211	1	14
490.381	1	8
490.551	1	5
490.721	1	10
490.892	1	16
491.062	1	9
491.232	1	18
491.402	1	-6
491.573	1	8
491.743	1	-2
491.913	1	13
492.084	1	4
492.254	1	8
492.424	1	9
492.594	1	8
492.765	1	-6
492.935	1	12
493.105	1	6
493.275	1	15
493.446	1	1
493.616	1	-4
493.786	1	2
493.956	1	6
494.127	1	7
494.297	1	0
494.467	1	1
494.637	1	6
494.808	1	2
494.978	1	7
495.148	1	-2
495.318	1	1
495.489	1	1
495.659	1	-2
495.829	1	0
495.999	1	20
496.170	1	8
496.340	1	18
496.510	1	11
496.680	1	5
496.851	1	15
497.021	1	11
497.191	1	9
497.361	1	10
497.532	1	2
497.702	1	7
497.872	1	7
498.042	1	3
498.213	1	7
498.383	1	-4
498.553	1	8
498.723	1	6
498.894	1	1
499.064	1	-2
499.234	1	8
499.404	1	4
499.574	1	15
499.745	1	3
499.915	1	0
500.085	1	4
500.255	1	1
500.426	1	0
500.596	1	9
500.766	1	-4
500.936	1	2
501.106	1	4
501.277	1	1
501.447	1	-1
501.617	1	7
501.787	1	6
501.958	1	1
502.128	1	5
502.298	1	1
502.468	1	10
502.638	1	-1
502.809	1	19
502.979	1	2
503.149	1	22
503.319	1	4
503.489	1	10
503.660	1	-3
503.830	1	8
504.000	1	-6
504.170	1	4
504.340	1	2
504.511	1	7
504.681	1	9
504.851	1	7
505.021	1	-5
505.192	1	10
505.362	1	-3
505.532	1	11
505.702	1	3
505.872	1	-3
506.043	1	4
506.213	1	3
506.383	1	8
506.553	1	5
506.723	1	7
506.893	1	-4
507.064	1	2
507.234	1	0
507.404	1	0
507.574	1	14
507.744	1	1
507.915	1	10
508.085	1	12
508.255	1	9
508.425	1	5
508.595	1	3
508.766	1	8
508.936	1	-3
509.106	1	-2
509.276	1	5
509.446	1	2
509.616	1	-2
509.787	1	7
509.957	1	-2
510.127	1	12
510.297	1	-2
510.467	1	18
510.638	1	-1
510.808	1	2
510.978	1	1
511.148	1	6
511.318	1	1
511.488	1	7
511.659	1	3
511.829	1	9
511.999	1	5
512.169	1	6
512.339	1	3
512.509	1	10
512.680	1	1
512.850	1	9
513.020	1	-3
513.190	1	9
513.360	1	3
513.530	1	1
513.700	1	7
513.871	1	3
514.041	1	3
514.211	1	6
514.381	1	2
514.551	1	1
514.721	1	8
514.892	1	1
515.062	1	3
515.232	1	14
515.402	1	8
515.572	1	-4
515.742	1	1
515.912	1	3
516.083	1	10
516.253	1	2
516.423	1	8
516.593	1	1
516.763	1	5
516.933	1	0
517.104	1	6
517.274	1	3
517.444	1	-1
517.614	1	7
517.784	1	9
517.954	1	-7
518.124	1	13
518.294	1	2
518.465	1	1
518.635	1	2
518.805	1	14
518.975	1	-1
519.145	1	7
519.315	1	-4
519.485	1	3
519.656	1	-4
519.826	1	-5
519.996	1	-2
520.166	1	4
520.336	1	13
520.506	1	-1
520.676	1	10
520.846	1	3
521.017	1	-2
521.187	1	10
521.357	1	3
521.527	1	-2
521.697	1	-6
521.867	1	-1
522.037	1	-13
522.207	1	12
522.377	1	1
522.548	1	3
522.718	1	-5
522.888	1	-1
523.058	1	4
523.228	1	1
523.398	1	2
523.568	1	5
523.738	1	13
523.909	1	3
524.079	1	14
524.249	1	4
524.419	1	-8
524.589	1	-1
524.759	1	-3
524.929	1	2
525.099	1	0
525.269	1	15
525.439	1	2
525.610	1	23
525.780	1	11
525.950	1	8
526.120	1	2
526.290	1	-1
526.460	1	1
526.630	1	2
526.800	1	7
526.970	1	1
527.140	1	1
527.311	1	-2
527.481	1	-12
527.651	1	6
527.821	1	0
527.991	1	8
528.161	1	4
528.331	1	7
528.501	1	3
528.671	1	-6
528.841	1	-6
529.011	1	5
529.181	1	3
529.352	1	2
529.522	1	2
529.692	1	4
529.862	1	5
530.032	1	-4
530.202	1	-2
530.372	1	0
530.542	1	3
530.712	1	-1
530.882	1	3
531.052	1	7
531.222	1	5
531.392	1	9
531.563	1	9
531.733	1	5
531.903	1	5
532.073	1	2
532.243	1	2
532.413	1	5
532.583	1	10
532.753	1	12
532.923	1	-4
533.093	1	0
533.263	1	4
533.433	1	9
533.603	1	3
533.773	1	-2
533.943	1	11
534.113	1	3
534.284	1	0
534.454	1	7
534.624	1	3
534.794	1	1
534.964	1	0
535.134	1	0
535.304	1	7
535.474	1	-4
535.644	1	-7
535.814	1	4
535.984	1	8
536.154	1	0
536.324	1	1
536.494	1	0
536.664	1	3
536.834	1	-1
537.004	1	6
537.174	1	7
537.344	1	8
537.514	1	-2
537.685	1	2
537.855	1	7
538.025	1	9
538.195	1	4
538.365	1	-5
538.535	1	5
538.705	1	-2
538.875	1	7
539.045	1	3
539.215	1	0
539.385	1	5
539.555	1	2
539.725	1	-1
539.895	1	-2
540.065	1	11
540.235	1	3
540.405	1	7
540.575	1	7
540.745	1	9
540.915	1	-5
541.085	1	3
541.255	1	0
541.425	1	18
541.595	1	-2
541.765	1	-7
541.935	1	-1
542.105	1	-7
542.275	1	-6
542.445	1	-1
542.615	1	7
542.785	1	-7
542.955	1	12
543.125	1	-7
543.295	1	-2
543.465	1	-5
543.635	1	-3
543.805	1	1
543.975	1	0
544.145	1	8
544.315	1	-9
544.485	1	-5
544.655	1	14
544.825	1	0
544.995	1	12
545.165	1	-5
545.335	1	9
545.505	1	12
545.675	1	11
545.845	1	2
546.015	1	-3
546.185	1	7
546.355	1	8
546.525	1	8
546.695	1	-7
546.865	1	5
547.035	1	6
547.205	1	11
547.375	1	7
547.545	1	4
547.715	1	8
547.885	1	-3
548.055	1	1
548.225	1	14
548.395	1	-2
548.565	1	5
548.735	1	-1
548.905	1	0
549.075	1	-1
549.245	1	1
549.415	1	2
549.585	1	-4
549.755	1	7
549.925	1	6
550.095	1	7
550.265	1	0
550.435	1	-2
550.605	1	2
550.775	1	11
550.945	1	14
551.115	1	-9
551.285	1	6
551.455	1	-4
551.625	1	13
551.795	1	-3
551.965	1	-5
552.135	1	-4
552.305	1	2
552.475	1	16
552.645	1	0
552.815	1	5
552.985	1	16
553.155	1	8
553.325	1	-1
553.495	1	7
553.665	1	8
553.835	1	-1
554.004	1	-9
554.174	1	8
554.344	1	-1
554.514	1	-3
554.684	1	-2
554.854	1	-2
555.024	1	5
555.194	1	-7
555.364	1	1
555.534	1	3
555.704	1	1
555.874	1	-1
556.044	1	7
556.214	1	-3
556.384	1	4
556.554	1	-8
556.724	1	-10
556.894	1	6
557.064	1	11
557.234	1	1
557.404	1	3
557.573	1	5
557.743	1	3
557.913	1	11
558.083	1	0
558.253	1	3
558.423	1	-3
558.593	1	-6
558.763	1	6
558.933	1	1
559.103	1	6
559.273	1	3
559.443	1	-1
559.613	1	4
559.783	1	4
559.953	1	3
560.122	1	-11
560.292	1	3
560.462	1	-3
560.632	1	8
560.802	1	-1
560.972	1	9
561.142	1	7
561.312	1	1
561.482	1	-4
561.652	1	-1
561.822	1	-7
561.992	1	3
562.162	1	-5
562.331	1	11
562.501	1	9
562.671	1	0
562.841	1	-2
563.011	1	9
563.181	1	1
563.351	1	14
563.521	1	-8
563.691	1	1
563.861	1	2
564.031	1	-5
564.201	1	2
564.370	1	-11
564.540	1	12
564.710	1	-4
564.880	1	10
565.050	1	0
565.220	1	3
565.390	1	4
565.560	1	1
565.730	1	7
565.900	1	-1
566.069	1	-6
566.239	1	9
566.409	1	2
566.579	1	-7
566.749	1	-12
566.919	1	1
567.089	1	-7
567.259	1	9
567.429	1	8
567.599	1	8
567.768	1	-1
567.938	1	3
568.108	1	7
568.278	1	4
568.448	1	2
568.618	1	8
568.788	1	-3
568.958	1	0
569.128	1	-4
569.297	1	7
569.467	1	7
569.637	1	-2
569.807	1	10
569.977	1	6
570.147	1	-2
570.317	1	3
570.487	1	0
570.656	1	-2
570.826	1	-5
570.996	1	-1
571.166	1	-7
571.336	1	-5
571.506	1	2
571.676	1	0
571.846	1	2
572.015	1	-8
572.185	1	5
572.355	1	1
572.525	1	3
572.695	1	0
572.865	1	5
573.035	1	-4
573.205	1	-4
573.374	1	4
573.544	1	-4
573.714	1	7
573.884	1	7
574.054	1	15
574.224	1	2
574.394	1	-2
574.563	1	11
574.733	1	9
574.903	1	-3
575.073	1	-10
575.243	1	11
575.413	1	-8
575.583	1	5
575.752	1	2
575.922	1	1
576.092	1	0
576.262	1	-6
576.432	1	-10
576.602	1	5
576.772	1	3
576.941	1	-1
577.111	1	10
577.281	1	8
577.451	1	-3
577.621	1	5
577.791	1	3
577.960	1	-4
578.130	1	-3
578.300	1	1
578.470	1	1
578.640	1	2
578.810	1	3
578.979	1	3
579.149	1	7
579.319	1	-5
579.489	1	2
579.659	1	1
579.829	1	-8
579.998	1	-2
580.168	1	3
580.338	1	16
580.508	1	14
580.678	1	-7
580.848	1	6
581.017	1	-8
581.187	1	4
581.357	1	-11
581.527	1	-13
581.697	1	-9
581.867	1	7
582.036	1	5
582.206	1	4
582.376	1	5
582.546	1	1
582.716	1	3
582.885	1	7
583.055	1	1
583.225	1	-3
583.395	1	6
583.565	1	2
583.735	1	10
583.904	1	-4
584.074	1	1
584.244	1	-4
584.414	1	14
584.584	1	-3
584.753	1	-15
584.923	1	-11
585.093	1	10
585.263	1	-2
585.433	1	-2
585.602	1	3
585.772	1	11
585.942	1	-1
586.112	1	1
586.282	1	5
586.451	1	4
586.621	1	5
586.791	1	4
586.961	1	-3
587.131	1	8
587.300	1	3
587.470	1	-12
587.640	1	9
587.810	1	3
587.980	1	-1
588.149	1	14
588.319	1	7
588.489	1	-5
588.659	1	9
588.829	1	7
588.998	1	16
589.168	1	3
589.338	1	4
589.508	1	7
589.677	1	4
589.847	1	-2
590.017	1	2
590.187	1	-9
590.357	1	7
590.526	1	-3
590.696	1	-3
590.866	1	-8
591.036	1	2
591.205	1	5
591.375	1	-11
591.545	1	3
591.715	1	-7
591.885	1	1
592.054	1	-4
592.224	1	1
592.394	1	8
592.564	1	6
592.733	1	4
592.903	1	9
593.073	1	5
593.243	1	2
593.412	1	10
593.582	1	-3
593.752	1	3
593.922	1	8
594.091	1	2
594.261	1	-3
594.431	1	-3
594.601	1	5
594.771	1	-5
594.940	1	7
595.110	1	7
595.280	1	7
595.450	1	7
595.619	1	5
595.789	1	5
595.959	1	7
596.129	1	11
596.298	1	11
596.468	1	2
596.638	1	-6
596.808	1	-3
596.977	1	9
597.147	1	12
597.317	1	3
597.487	1	-7
597.656	1	-1
597.826	1	2
597.996	1	-2
598.166	1	3
598.335	1	5
598.505	1	4
598.675	1	3
598.844	1	-1
599.014	1	2
599.184	1	-9
599.354	1	14
599.523	1	-1
599.693	1	5
599.863	1	-7
600.033	1	13
600.202	1	6
600.372	1	6
600.542	1	9
600.712	1	-4
600.881	1	16
601.051	1	-6
601.221	1	13
601.390	1	2
601.560	1	3
601.730	1	0
601.900	1	1
602.069	1	7
602.239	1	3
602.409	1	3
602.578	1	7
602.748	1	-2
602.918	1	4
603.088	1	-1
603.257	1	7
603.427	1	10
603.597	1	6
603.767	1	14
603.936	1	9
604.106	1	11
604.276	1	-2
604.445	1	-3
604.615	1	8
604.785	1	8
604.954	1	3
605.124	1	12
605.294	1	13
605.464	1	4
605.633	1	5
605.803	1	3
605.973	1	8
606.142	1	5
606.312	1	8
606.482	1	-4
606.652	1	2
606.821	1	0
606.991	1	1
607.161	1	7
607.330	1	16
607.500	1	13
607.670	1	5
607.839	1	6
608.009	1	3
608.179	1	0
608.348	1	16
608.518	1	8
608.688	1	0
608.858	1	1
609.027	1	16
609.197	1	2
609.367	1	-3
609.536	1	10
609.706	1	16
609.876	1	4
610.045	1	9
610.215	1	16
610.385	1	14
610.554	1	9
610.724	1	12
610.894	1	13
611.063	1	0
611.233	1	0
611.403	1	7
611.572	1	5
611.742	1	10
611.912	1	2
612.081	1	-3
612.251	1	9
612.421	1	14
612.590	1	-1
612.760	1	11
612.930	1	3
613.099	1	12
613.269	1	1
613.439	1	9
613.608	1	12
613.778	1	7
613.948	1	0
614.117	1	2
614.287	1	3
614.457	1	1
614.626	1	7
614.796	1	7
614.966	1	9
615.135	1	15
615.305	1	14
615.475	1	23
615.644	1	-3
615.814	1	6
615.984	1	1
616.153	1	2
616.323	1	1
616.493	1	13
616.662	1	17
616.832	1	4
617.002	1	5
617.171	1	6
617.341	1	10
617.511	1	15
617.680	1	2
617.850	1	6
618.019	1	9
618.189	1	3
618.359	1	6
618.528	1	1
618.698	1	12
618.868	1	4
619.037	1	0
619.207	1	7
619.377	1	0
619.546	1	8
619.716	1	3
619.885	1	10
620.055	1	7
620.225	1	7
620.394	1	7
620.564	1	13
620.734	1	14
620.903	1	16
621.073	1	4
621.242	1	12
621.412	1	2
621.582	1	7
621.751	1	1
621.921	1	11
622.091	1	13
622.260	1	8
622.430	1	1
622.599	1	10
622.769	1	15
622.939	1	3
623.108	1	6
623.278	1	8
623.448	1	0
623.617	1	5
623.787	1	18
623.956	1	2
624.126	1	11
624.296	1	-5
624.465	1	12
624.635	1	-3
624.804	1	10
624.974	1	8
625.144	1	14
625.313	1	6
625.483	1	13
625.652	1	2
625.822	1	10
625.992	1	12
626.161	1	8
626.331	1	20
626.501	1	9
626.670	1	4
626.840	1	6
627.009	1	-2
627.179	1	19
627.348	1	10
627.518	1	-3
627.688	1	9
627.857	1	-2
628.027	1	10
628.196	1	20
628.366	1	5
628.536	1	12
628.705	1	11
628.875	1	4
629.044	1	2
629.214	1	2
629.384	1	11
629.553	1	9
629.723	1	3
629.892	1	8
630.062	1	5
630.232	1	12
630.401	1	18
630.571	1	4
630.740	1	3
630.910	1	6
631.079	1	18
631.249	1	3
631.419	1	4
631.588	1	8
631.758	1	1
631.927	1	14
632.097	1	6
632.266	1	-12
632.436	1	12
632.606	1	10
632.775	1	5
632.945	1	-7
633.114	1	11
633.284	1	-5
633.453	1	11
633.623	1	19
633.793	1	6
633.962	1	7
634.132	1	3
634.301	1	1
634.471	1	8
634.640	1	3
634.810	1	3
634.979	1	0
635.149	1	8
635.319	1	23
635.488	1	8
635.658	1	12
635.827	1	10
635.997	1	12
636.166	1	-4
636.336	1	8
636.505	1	9
636.675	1	8
636.845	1	5
637.014	1	5
637.184	1	4
637.353	1	8
637.523	1	16
637.692	1	14
637.862	1	5
638.031	1	12
638.201	1	2
638.370	1	11
638.540	1	9
638.710	1	3
638.879	1	16
639.049	1	9
639.218	1	15
639.388	1	6
639.557	1	-4
639.727	1	14
639.896	1	10
640.066	1	-6
640.235	1	0
640.405	1	18
640.574	1	5
640.744	1	7
640.914	1	11
641.083	1	11
641.253	1	5
641.422	1	9
641.592	1	-6
641.761	1	8
641.931	1	9
642.100	1	7
642.270	1	5
642.439	1	13
642.609	1	15
642.778	1	12
642.948	1	5
643.117	1	9
643.287	1	-8
643.456	1	10
643.626	1	10
643.795	1	6
643.965	1	-2
644.134	1	11
644.304	1	5
644.473	1	12
644.643	1	-2
644.812	1	0
644.982	1	-4
645.151	1	9
645.321	1	9
645.490	1	6
645.660	1	7
645.829	1	4
645.999	1	10
646.168	1	2
646.338	1	-4
646.507	1	9
646.677	1	-1
646.846	1	-4
647.016	1	5
647.185	1	3
647.355	1	3
647.524	1	-5
647.694	1	7
647.863	1	-1
648.033	1	2
648.202	1	9
648.372	1	-3
648.541	1	9
648.711	1	-5
648.880	1	6
649.050	1	2
649.219	1	4
649.389	1	17
649.558	1	11
649.728	1	8
649.897	1	5
650.067	1	-5
650.236	1	9
650.406	1	7
650.575	1	-2
650.745	1	12
650.914	1	16
651.084	1	-3
651.253	1	2
651.423	1	3
651.592	1	4
651.762	1	11
651.931	1	11
652.101	1	13
652.270	1	-5
652.440	1	6
652.609	1	15
652.778	1	15
652.948	1	3
653.117	1	4
653.287	1	-3
653.456	1	0
653.626	1	7
653.795	1	6
653.965	1	14
654.134	1	0
654.304	1	-1
654.473	1	1
654.643	1	2
654.812	1	15
654.982	1	9
655.151	1	-4
655.320	1	11
655.490	1	-1
655.659	1	6
655.829	1	9
655.998	1	4
656.168	1	-8
656.337	1	3
656.507	1	1
656.676	1	6
656.846	1	17
657.015	1	-2
657.184	1	7
657.354	1	8
657.523	1	-1
657.693	1	-6
657.862	1	-3
658.032	1	7
658.201	1	4
658.371	1	-2
658.540	1	-1
658.709	1	-2
658.879	1	17
659.048	1	7
659.218	1	2
659.387	1	-3
659.557	1	12
659.726	1	-1
659.895	1	2
660.065	1	3
660.234	1	8
660.404	1	1
660.573	1	-7
660.743	1	5
660.912	1	-8
661.081	1	-7
661.251	1	12
661.420	1	6
661.590	1	-4
661.759	1	4
661.929	1	4
662.098	1	15
662.267	1	-2
662.437	1	-7
662.606	1	2
662.776	1	-8
662.945	1	1
663.115	1	0
663.284	1	1
663.453	1	-3
663.623	1	-2
663.792	1	-4
663.962	1	10
664.131	1	6
664.300	1	1
664.470	1	-3
664.639	1	9
664.809	1	7
664.978	1	11
665.148	1	15
665.317	1	1
665.486	1	-4
665.656	1	13
665.825	1	3
665.995	1	-14
666.164	1	4
666.333	1	3
666.503	1	12
666.672	1	-4
666.842	1	2
667.011	1	14
667.180	1	4
667.350	1	-2
667.519	1	-4
667.689	1	-3
667.858	1	0
668.027	1	8
668.197	1	10
668.366	1	-5
668.536	1	-1
668.705	1	-10
668.874	1	4
669.044	1	0
669.213	1	6
669.382	1	4
669.552	1	-4
669.721	1	-1
669.891	1	2
670.060	1	4
670.229	1	4
670.399	1	13
670.568	1	0
670.738	1	1
670.907	1	-1
671.076	1	-4
671.246	1	2
671.415	1	-12
671.584	1	4
671.754	1	-8
671.923	1	8
672.093	1	3
672.262	1	11
672.431	1	-12
672.601	1	9
672.770	1	1
672.939	1	1
673.109	1	-12
673.278	1	4
673.448	1	-1
673.617	1	0
673.786	1	-7
