325.333	1	9
325.504	1	14
325.675	1	10
325.846	1	5
326.017	1	7
326.188	1	8
326.359	1	23
326.531	1	1
326.702	1	-11
326.873	1	10
327.044	1	3
327.215	1	9
327.386	1	0
327.557	1	23
327.728	1	6
327.899	1	6
328.070	1	5
328.241	1	2
328.412	1	15
328.583	1	5
328.754	1	6
328.926	1	2
329.097	1	3
329.268	1	11
329.439	1	3
329.610	1	10
329.781	1	10
329.952	1	4
330.123	1	0
330.294	1	7
330.465	1	6
330.636	1	6
330.807	1	9
330.978	1	11
331.149	1	11
331.320	1	2
331.492	1	-2
331.663	1	11
331.834	1	11
332.005	1	6
332.176	1	6
332.347	1	16
332.518	1	5
332.689	1	0
332.860	1	7
333.031	1	13
333.202	1	9
333.373	1	-6
333.544	1	7
333.715	1	3
333.886	1	1
334.057	1	10
334.228	1	0
334.399	1	13
334.570	1	-8
334.741	1	14
334.912	1	1
335.084	1	17
335.255	1	-1
335.426	1	5
335.597	1	5
335.768	1	5
335.939	1	0
336.110	1	12
336.281	1	2
336.452	1	7
336.623	1	13
336.794	1	-9
336.965	1	-1
337.136	1	0
337.307	1	19
337.478	1	-2
337.649	1	2
337.820	1	6
337.991	1	4
338.162	1	6
338.333	1	0
338.504	1	5
338.675	1	-1
338.846	1	10
339.017	1	3
339.188	1	2
339.359	1	-2
339.530	1	-2
339.701	1	10
339.872	1	7
340.043	1	12
340.214	1	-4
340.385	1	9
340.556	1	0
340.727	1	7
340.898	1	15
341.069	1	-3
341.240	1	-3
341.411	1	9
341.582	1	3
341.753	1	8
341.924	1	2
342.095	1	-7
342.266	1	0
342.437	1	11
342.608	1	11
342.779	1	10
342.950	1	4
343.121	1	-2
343.292	1	12
343.463	1	10
343.634	1	11
343.805	1	2
343.976	1	-7
344.147	1	2
344.318	1	2
344.489	1	4
344.660	1	-3
344.831	1	10
345.002	1	8
345.173	1	2
345.344	1	1
345.515	1	6
345.686	1	4
345.857	1	10
346.028	1	0
346.199	1	7
346.370	1	10
346.541	1	1
346.712	1	6
346.883	1	-3
347.054	1	-9
347.225	1	1
347.396	1	-9
347.567	1	9
347.738	1	3
347.909	1	15
348.080	1	6
348.251	1	7
348.422	1	-7
348.593	1	-2
348.764	1	6
348.935	1	-5
349.106	1	-10
349.277	1	-2
349.448	1	-3
349.619	1	-2
349.790	1	8
349.961	1	3
350.132	1	0
350.303	1	3
350.474	1	-8
350.645	1	1
350.816	1	-8
350.987	1	8
351.157	1	-6
351.328	1	-13
351.499	1	-1
351.670	1	5
351.841	1	15
352.012	1	-7
352.183	1	-1
352.354	1	6
352.525	1	-3
352.696	1	12
352.867	1	-10
353.038	1	18
353.209	1	-9
353.380	1	-5
353.551	1	0
353.722	1	-6
353.893	1	-2
354.064	1	-1
354.235	1	1
354.406	1	6
354.576	1	7
354.747	1	-6
354.918	1	1
355.089	1	-1
355.260	1	1
355.431	1	1
355.602	1	3
355.773	1	-17
355.944	1	-4
356.115	1	-3
356.286	1	-3
356.457	1	3
356.628	1	-3
356.799	1	-12
356.970	1	1
357.141	1	3
357.311	1	-2
357.482	1	9
357.653	1	-16
357.824	1	-3
357.995	1	11
358.166	1	-2
358.337	1	3
358.508	1	5
358.679	1	0
358.850	1	7
359.021	1	-2
359.192	1	0
359.363	1	1
359.533	1	10
359.704	1	-2
359.875	1	-6
360.046	1	-4
360.217	1	1
360.388	1	3
360.559	1	0
360.730	1	6
360.901	1	-5
361.072	1	-7
361.243	1	11
361.414	1	13
361.584	1	3
361.755	1	8
361.926	1	-3
362.097	1	11
362.268	1	-5
362.439	1	-4
362.610	1	4
362.781	1	2
362.952	1	-7
363.123	1	-3
363.293	1	2
363.464	1	-6
363.635	1	-2
363.806	1	1
363.977	1	-1
364.148	1	5
364.319	1	-3
364.490	1	1
364.661	1	0
364.832	1	-7
365.002	1	13
365.173	1	1
365.344	1	-1
365.515	1	0
365.686	1	-7
365.857	1	-1
366.028	1	-5
366.199	1	-2
366.370	1	1
366.540	1	-5
366.711	1	2
366.882	1	0
367.053	1	-8
367.224	1	1
367.395	1	2
367.566	1	0
367.737	1	4
367.908	1	-5
368.078	1	0
368.249	1	2
368.420	1	11
368.591	1	0
368.762	1	-8
368.933	1	1
369.104	1	3
369.274	1	6
369.445	1	-4
369.616	1	-4
369.787	1	0
369.958	1	-10
370.129	1	-14
370.300	1	-1
370.471	1	2
370.641	1	-5
370.812	1	-8
370.983	1	12
371.154	1	2
371.325	1	1
371.496	1	-7
371.667	1	-1
371.837	1	-4
372.008	1	-4
372.179	1	0
372.350	1	-3
372.521	1	0
372.692	1	-7
372.863	1	6
373.033	1	1
373.204	1	6
373.375	1	-6
373.546	1	10
373.717	1	-12
373.888	1	-1
374.059	1	0
374.229	1	-1
374.400	1	2
374.571	1	-1
374.742	1	-3
374.913	1	-5
375.084	1	2
375.254	1	2
375.425	1	-1
375.596	1	7
375.767	1	-2
375.938	1	-7
376.109	1	-6
376.279	1	-6
376.450	1	9
376.621	1	-4
376.792	1	-7
376.963	1	11
377.134	1	-3
377.304	1	6
377.475	1	-8
377.646	1	2
377.817	1	-9
377.988	1	-2
378.159	1	-10
378.329	1	5
378.500	1	-2
378.671	1	-3
378.842	1	7
379.013	1	1
379.184	1	-4
379.354	1	-3
379.525	1	4
379.696	1	4
379.867	1	8
380.038	1	5
380.209	1	-14
380.379	1	-7
380.550	1	4
380.721	1	-9
380.892	1	-8
381.063	1	3
381.233	1	-4
381.404	1	9
381.575	1	10
381.746	1	3
381.917	1	-1
382.087	1	-5
382.258	1	-5
382.429	1	6
382.600	1	-3
382.771	1	-4
382.941	1	4
383.112	1	6
383.283	1	1
383.454	1	-1
383.625	1	-2
383.795	1	-7
383.966	1	-12
384.137	1	-2
384.308	1	-2
384.479	1	8
384.649	1	2
384.820	1	-5
384.991	1	-7
385.162	1	-1
385.333	1	-2
385.503	1	0
385.674	1	9
385.845	1	-4
386.016	1	-3
386.187	1	-9
386.357	1	1
386.528	1	-1
386.699	1	4
386.870	1	1
387.041	1	-11
387.211	1	4
387.382	1	3
387.553	1	3
387.724	1	0
387.894	1	12
388.065	1	-8
388.236	1	3
388.407	1	12
388.578	1	2
388.748	1	4
388.919	1	-10
389.090	1	-5
389.261	1	0
389.431	1	-6
389.602	1	10
389.773	1	-12
389.944	1	2
390.114	1	0
390.285	1	0
390.456	1	8
390.627	1	-1
390.798	1	-8
390.968	1	-2
391.139	1	3
391.310	1	0
391.481	1	-5
391.651	1	6
391.822	1	6
391.993	1	-9
392.164	1	2
392.334	1	-2
392.505	1	-4
392.676	1	4
392.847	1	6
393.017	1	4
393.188	1	-6
393.359	1	-3
393.530	1	0
393.700	1	1
393.871	1	-7
394.042	1	1
394.213	1	6
394.383	1	0
394.554	1	-7
394.725	1	0
394.896	1	2
395.066	1	-5
395.237	1	-9
395.408	1	4
395.579	1	-11
395.749	1	-2
395.920	1	4
396.091	1	11
396.262	1	0
396.432	1	-2
396.603	1	7
396.774	1	-5
396.945	1	-10
397.115	1	9
397.286	1	3
397.457	1	4
397.627	1	-3
397.798	1	-3
397.969	1	7
398.140	1	10
398.310	1	-2
398.481	1	-9
398.652	1	-11
398.823	1	-5
398.993	1	9
399.164	1	4
399.335	1	-8
399.505	1	10
399.676	1	1
399.847	1	3
400.018	1	1
400.188	1	-1
400.359	1	10
400.530	1	-5
400.700	1	5
400.871	1	3
401.042	1	6
401.213	1	9
401.383	1	13
401.554	1	3
401.725	1	2
401.895	1	-6
402.066	1	12
402.237	1	-2
402.408	1	0
402.578	1	-5
402.749	1	3
402.920	1	9
403.090	1	4
403.261	1	-12
403.432	1	4
403.603	1	0
403.773	1	9
403.944	1	7
404.115	1	1
404.285	1	8
404.456	1	8
404.627	1	3
404.797	1	9
404.968	1	-9
405.139	1	4
405.310	1	7
405.480	1	5
405.651	1	6
405.822	1	-1
405.992	1	-8
406.163	1	-4
406.334	1	3
406.504	1	1
406.675	1	10
406.846	1	11
407.016	1	2
407.187	1	-9
407.358	1	1
407.528	1	-4
407.699	1	6
407.870	1	3
408.041	1	-2
408.211	1	-4
408.382	1	15
408.553	1	6
408.723	1	2
408.894	1	2
409.065	1	-2
409.235	1	1
409.406	1	4
409.577	1	7
409.747	1	-4
409.918	1	22
410.089	1	5
410.259	1	9
410.430	1	18
410.601	1	6
410.771	1	2
410.942	1	11
411.113	1	-2
411.283	1	5
411.454	1	-9
411.625	1	0
411.795	1	18
411.966	1	5
412.137	1	10
412.307	1	6
412.478	1	4
412.649	1	6
412.819	1	-5
412.990	1	-13
413.161	1	0
413.331	1	2
413.502	1	6
413.672	1	4
413.843	1	-2
414.014	1	-7
414.184	1	1
414.355	1	6
414.526	1	2
414.696	1	9
414.867	1	-2
415.038	1	11
415.208	1	9
415.379	1	12
415.550	1	24
415.720	1	5
415.891	1	13
416.062	1	-6
416.232	1	-2
416.403	1	16
416.573	1	12
416.744	1	6
416.915	1	6
417.085	1	9
417.256	1	-12
417.427	1	5
417.597	1	7
417.768	1	12
417.939	1	4
418.109	1	4
418.280	1	7
418.450	1	4
418.621	1	-4
418.792	1	0
418.962	1	8
419.133	1	12
419.304	1	7
419.474	1	7
419.645	1	15
419.815	1	8
419.986	1	7
420.157	1	14
420.327	1	6
420.498	1	8
420.669	1	-1
420.839	1	-4
421.010	1	13
421.180	1	3
421.351	1	5
421.522	1	-4
421.692	1	5
421.863	1	3
422.033	1	3
422.204	1	9
422.375	1	-2
422.545	1	12
422.716	1	1
422.886	1	11
423.057	1	10
423.228	1	24
423.398	1	2
423.569	1	9
423.740	1	3
423.910	1	4
424.081	1	1
424.251	1	-2
424.422	1	4
424.593	1	8
424.763	1	-2
424.934	1	17
425.104	1	10
425.275	1	1
425.445	1	-4
425.616	1	-1
425.787	1	4
425.957	1	5
426.128	1	-1
426.298	1	2
426.469	1	4
426.640	1	10
426.810	1	4
426.981	1	3
427.151	1	8
427.322	1	1
427.493	1	7
427.663	1	6
427.834	1	16
428.004	1	-4
428.175	1	4
428.345	1	10
428.516	1	7
428.687	1	10
428.857	1	15
429.028	1	-5
429.198	1	4
429.369	1	10
429.540	1	9
429.710	1	0
429.881	1	12
430.051	1	10
430.222	1	-2
430.392	1	8
430.563	1	3
430.734	1	8
430.904	1	18
431.075	1	20
431.245	1	11
431.416	1	16
431.586	1	3
431.757	1	10
431.927	1	3
432.098	1	21
432.269	1	9
432.439	1	8
432.610	1	17
432.780	1	14
432.951	1	-2
433.121	1	11
433.292	1	5
433.462	1	5
433.633	1	8
433.804	1	6
433.974	1	12
434.145	1	-1
434.315	1	11
434.486	1	17
434.656	1	11
434.827	1	11
434.997	1	13
435.168	1	9
435.339	1	7
435.509	1	11
435.680	1	13
435.850	1	7
436.021	1	20
436.191	1	19
436.362	1	14
436.532	1	18
436.703	1	9
436.873	1	7
437.044	1	12
437.214	1	3
437.385	1	12
437.556	1	8
437.726	1	4
437.897	1	-7
438.067	1	8
438.238	1	7
438.408	1	12
438.579	1	0
438.749	1	12
438.920	1	10
439.090	1	12
439.261	1	13
439.431	1	13
439.602	1	6
439.772	1	13
439.943	1	5
440.113	1	13
440.284	1	2
440.455	1	17
440.625	1	4
440.796	1	8
440.966	1	13
441.137	1	7
441.307	1	11
441.478	1	11
441.648	1	0
441.819	1	5
441.989	1	5
442.160	1	11
442.330	1	6
442.501	1	1
442.671	1	9
442.842	1	3
443.012	1	6
443.183	1	14
443.353	1	12
443.524	1	6
443.694	1	11
443.865	1	6
444.035	1	11
444.206	1	3
444.376	1	12
444.547	1	12
444.717	1	23
444.888	1	9
445.058	1	15
445.229	1	12
445.399	1	13
445.570	1	17
445.740	1	14
445.911	1	2
446.081	1	16
446.252	1	14
446.422	1	17
446.593	1	4
446.763	1	13
446.934	1	12
447.104	1	13
447.275	1	10
447.445	1	19
447.616	1	20
447.786	1	11
447.957	1	12
448.127	1	2
448.298	1	12
448.468	1	21
448.639	1	18
448.809	1	16
448.979	1	16
449.150	1	7
449.320	1	10
449.491	1	11
449.661	1	9
449.832	1	18
450.002	1	13
450.173	1	10
450.343	1	12
450.514	1	13
450.684	1	21
450.855	1	19
451.025	1	16
451.196	1	14
451.366	1	3
451.537	1	2
451.707	1	19
451.878	1	9
452.048	1	13
452.218	1	30
452.389	1	12
452.559	1	2
452.730	1	6
452.900	1	21
453.071	1	5
453.241	1	7
453.412	1	17
453.582	1	15
453.753	1	11
453.923	1	13
454.093	1	17
454.264	1	18
454.434	1	18
454.605	1	19
454.775	1	8
454.946	1	20
455.116	1	21
455.287	1	14
455.457	1	16
455.628	1	15
455.798	1	10
455.968	1	14
456.139	1	9
456.309	1	9
456.480	1	11
456.650	1	12
456.821	1	14
456.991	1	-1
457.161	1	14
457.332	1	14
457.502	1	5
457.673	1	22
457.843	1	11
458.014	1	17
458.184	1	9
458.355	1	12
458.525	1	4
458.695	1	6
458.866	1	21
459.036	1	-2
459.207	1	14
459.377	1	24
459.548	1	16
459.718	1	14
459.888	1	13
460.059	1	11
460.229	1	13
460.400	1	-4
460.570	1	14
460.740	1	20
460.911	1	12
461.081	1	32
461.252	1	8
461.422	1	23
461.593	1	7
461.763	1	23
461.933	1	11
462.104	1	14
462.274	1	6
462.445	1	24
462.615	1	5
462.785	1	9
462.956	1	11
463.126	1	15
463.297	1	19
463.467	1	16
463.638	1	9
463.808	1	10
463.978	1	8
464.149	1	14
464.319	1	5
464.490	1	7
464.660	1	10
464.830	1	30
465.001	1	9
465.171	1	17
465.342	1	5
465.512	1	10
465.682	1	14
465.853	1	21
466.023	1	13
466.194	1	11
466.364	1	14
466.534	1	16
466.705	1	15
466.875	1	11
467.045	1	0
467.216	1	12
467.386	1	8
467.557	1	5
467.727	1	13
467.897	1	3
468.068	1	13
468.238	1	2
468.409	1	7
468.579	1	12
468.749	1	15
468.920	1	16
469.090	1	-5
469.260	1	7
469.431	1	10
469.601	1	11
469.772	1	16
469.942	1	14
470.112	1	14
470.283	1	3
470.453	1	12
470.623	1	0
470.794	1	11
470.964	1	23
471.135	1	5
471.305	1	7
471.475	1	8
471.646	1	6
471.816	1	19
471.986	1	11
472.157	1	17
472.327	1	12
472.497	1	13
472.668	1	17
472.838	1	7
473.009	1	6
473.179	1	22
473.349	1	11
473.520	1	2
473.690	1	15
473.860	1	14
474.031	1	13
474.201	1	9
474.371	1	11
474.542	1	13
474.712	1	16
474.882	1	13
475.053	1	11
475.223	1	1
475.394	1	5
475.564	1	-7
475.734	1	19
475.905	1	11
476.075	1	11
476.245	1	10
476.416	1	11
476.586	1	2
476.756	1	21
476.927	1	2
477.097	1	11
477.267	1	10
477.438	1	7
477.608	1	5
477.778	1	4
477.949	1	15
478.119	1	11
478.289	1	5
478.460	1	19
478.630	1	21
478.800	1	4
478.971	1	1
479.141	1	7
479.311	1	20
479.482	1	4
479.652	1	16
479.822	1	7
479.993	1	2
480.163	1	10
480.333	1	15
480.504	1	11
480.674	1	12
480.844	1	10
481.015	1	7
481.185	1	18
481.355	1	13
481.525	1	13
481.696	1	8
481.866	1	10
482.036	1	3
482.207	1	2
482.377	1	1
482.547	1	18
482.718	1	10
482.888	1	15
483.058	1	12
483.229	1	19
483.399	1	9
483.569	1	7
483.740	1	-1
483.910	1	3
484.080	1	10
484.250	1	-6
484.421	1	4
484.591	1	6
484.761	1	10
484.932	1	9
485.102	1	14
485.272	1	12
485.443	1	2
485.613	1	12
485.783	1	7
485.953	1	11
486.124	1	13
486.294	1	4
486.464	1	8
486.635	1	3
486.805	1	12
486.975	1	14
487.146	1	11
487.316	1	10
487.486	1	10
487.656	1	19
487.827	1	7
487.997	1	12
488.167	1	3
488.338	1	13
488.508	1	9
488.678	1	6
488.848	1	9
489.019	1	7
489.189	1	12
489.359	1	3
489.529	1	-2
489.700	1	5
489.870	1	3
490.040	1	4
490.211	1	8
490.381	1	12
490.551	1	1
490.721	1	20
490.892	1	14
491.062	1	8
491.232	1	16
491.402	1	1
491.573	1	0
491.743	1	4
491.913	1	3
492.084	1	7
492.254	1	13
492.424	1	13
492.594	1	14
492.765	1	1
492.935	1	8
493.105	1	0
493.275	1	12
493.446	1	1
493.616	1	0
493.786	1	2
493.956	1	6
494.127	1	12
494.297	1	9
494.467	1	7
494.637	1	0
494.808	1	7
494.978	1	3
495.148	1	2
495.318	1	6
495.489	1	-3
495.659	1	8
495.829	1	-2
495.999	1	9
496.170	1	5
496.340	1	7
496.510	1	9
496.680	1	5
496.851	1	7
497.021	1	-1
497.191	1	-3
497.361	1	14
497.532	1	3
497.702	1	6
497.872	1	0
498.042	1	5
498.213	1	0
498.383	1	4
498.553	1	9
498.723	1	10
498.894	1	7
499.064	1	15
499.234	1	3
499.404	1	12
499.574	1	11
499.745	1	6
499.915	1	8
500.085	1	-2
500.255	1	12
500.426	1	8
500.596	1	7
500.766	1	4
500.936	1	7
501.106	1	5
501.277	1	10
501.447	1	-3
501.617	1	9
501.787	1	0
501.958	1	7
502.128	1	7
502.298	1	-4
502.468	1	12
502.638	1	4
502.809	1	1
502.979	1	3
503.149	1	12
503.319	1	4
503.489	1	8
503.660	1	4
503.830	1	8
504.000	1	-2
504.170	1	14
504.340	1	5
504.511	1	12
504.681	1	8
504.851	1	3
505.021	1	1
505.192	1	3
505.362	1	1
505.532	1	8
505.702	1	7
505.872	1	3
506.043	1	1
506.213	1	1
506.383	1	9
506.553	1	7
506.723	1	0
506.893	1	0
507.064	1	3
507.234	1	4
507.404	1	3
507.574	1	1
507.744	1	2
507.915	1	14
508.085	1	12
508.255	1	10
508.425	1	1
508.595	1	6
508.766	1	3
508.936	1	4
509.106	1	2
509.276	1	5
509.446	1	5
509.616	1	-6
509.787	1	1
509.957	1	-4
510.127	1	0
510.297	1	1
510.467	1	14
510.638	1	3
510.808	1	7
510.978	1	-5
511.148	1	4
511.318	1	6
511.488	1	16
511.659	1	7
511.829	1	16
511.999	1	5
512.169	1	17
512.339	1	14
512.509	1	9
512.680	1	7
512.850	1	5
513.020	1	8
513.190	1	6
513.360	1	-6
513.530	1	-1
513.700	1	2
513.871	1	9
514.041	1	2
514.211	1	9
514.381	1	4
514.551	1	-6
514.721	1	-4
514.892	1	-2
515.062	1	2
515.232	1	5
515.402	1	7
515.572	1	1
515.742	1	8
515.912	1	11
516.083	1	4
516.253	1	-5
516.423	1	-2
516.593	1	1
516.763	1	7
516.933	1	7
517.104	1	-1
517.274	1	5
517.444	1	9
517.614	1	-7
517.784	1	4
517.954	1	-3
518.124	1	14
518.294	1	-7
518.465	1	6
518.635	1	11
518.805	1	-1
518.975	1	-8
519.145	1	7
519.315	1	4
519.485	1	0
519.656	1	-1
519.826	1	2
519.996	1	-5
520.166	1	5
520.336	1	12
520.506	1	4
520.676	1	-6
520.846	1	5
521.017	1	4
521.187	1	2
521.357	1	9
521.527	1	3
521.697	1	5
521.867	1	-6
522.037	1	-3
522.207	1	12
522.377	1	3
522.548	1	8
522.718	1	1
522.888	1	-2
523.058	1	6
523.228	1	-2
523.398	1	8
523.568	1	5
523.738	1	11
523.909	1	3
524.079	1	8
524.249	1	2
524.419	1	5
524.589	1	5
524.759	1	5
524.929	1	6
525.099	1	-3
525.269	1	2
525.439	1	0
525.610	1	12
525.780	1	-2
525.950	1	8
526.120	1	-2
526.290	1	12
526.460	1	10
526.630	1	9
526.800	1	6
526.970	1	5
527.140	1	6
527.311	1	-1
527.481	1	-5
527.651	1	6
527.821	1	2
527.991	1	10
528.161	1	10
528.331	1	2
528.501	1	4
528.671	1	-14
528.841	1	-3
529.011	1	0
529.181	1	6
529.352	1	7
529.522	1	-1
529.692	1	6
529.862	1	14
530.032	1	-2
530.202	1	-6
530.372	1	-4
530.542	1	-2
530.712	1	3
530.882	1	-6
531.052	1	7
531.222	1	9
531.392	1	13
531.563	1	2
531.733	1	-7
531.903	1	3
532.073	1	0
532.243	1	5
532.413	1	8
532.583	1	23
532.753	1	14
532.923	1	2
533.093	1	1
533.263	1	11
533.433	1	9
533.603	1	10
533.773	1	4
533.943	1	20
534.113	1	13
534.284	1	8
534.454	1	7
534.624	1	4
534.794	1	7
534.964	1	-1
535.134	1	1
535.304	1	4
535.474	1	7
535.644	1	0
535.814	1	3
535.984	1	13
536.154	1	9
536.324	1	11
536.494	1	-12
536.664	1	7
536.834	1	3
537.004	1	2
537.174	1	4
537.344	1	4
537.514	1	9
537.685	1	4
537.855	1	1
538.025	1	7
538.195	1	1
538.365	1	-1
538.535	1	-9
538.705	1	8
538.875	1	-1
539.045	1	-6
539.215	1	7
539.385	1	6
539.555	1	11
539.725	1	3
539.895	1	-1
540.065	1	9
540.235	1	-1
540.405	1	5
540.575	1	7
540.745	1	2
540.915	1	-5
541.085	1	6
541.255	1	0
541.425	1	0
541.595	1	-10
541.765	1	-5
541.935	1	4
542.105	1	8
542.275	1	4
542.445	1	-2
542.615	1	8
542.785	1	11
542.955	1	12
543.125	1	-4
543.295	1	-5
543.465	1	-1
543.635	1	0
543.805	1	-10
543.975	1	7
544.145	1	7
544.315	1	2
544.485	1	1
544.655	1	-2
544.825	1	8
544.995	1	13
545.165	1	5
545.335	1	3
545.505	1	4
545.675	1	14
545.845	1	-4
546.015	1	9
546.185	1	4
546.355	1	12
546.525	1	3
546.695	1	4
546.865	1	-2
547.035	1	1
547.205	1	9
547.375	1	3
547.545	1	-4
547.715	1	-2
547.885	1	-4
548.055	1	-3
548.225	1	17
548.395	1	3
548.565	1	10
548.735	1	1
548.905	1	2
549.075	1	0
549.245	1	3
549.415	1	-6
549.585	1	1
549.755	1	-4
549.925	1	6
550.095	1	4
550.265	1	3
550.435	1	-4
550.605	1	2
550.775	1	10
550.945	1	10
551.115	1	-4
551.285	1	11
551.455	1	-9
551.625	1	6
551.795	1	-10
551.965	1	-1
552.135	1	4
552.305	1	4
552.475	1	4
552.645	1	-1
552.815	1	9
552.985	1	11
553.155	1	4
553.325	1	2
553.495	1	9
553.665	1	-5
553.835	1	-3
554.004	1	-3
554.174	1	-2
554.344	1	8
554.514	1	5
554.684	1	-2
554.854	1	6
555.024	1	-7
555.194	1	-3
555.364	1	-5
555.534	1	8
555.704	1	8
555.874	1	3
556.044	1	-3
556.214	1	-1
556.384	1	14
556.554	1	-2
556.724	1	-9
556.894	1	2
557.064	1	7
557.234	1	6
557.404	1	-8
557.573	1	6
557.743	1	4
557.913	1	5
558.083	1	0
558.253	1	4
558.423	1	-3
558.593	1	7
558.763	1	1
558.933	1	-1
559.103	1	-1
559.273	1	-3
559.443	1	0
559.613	1	3
559.783	1	0
559.953	1	2
560.122	1	1
560.292	1	6
560.462	1	-3
560.632	1	0
560.802	1	14
560.972	1	5
561.142	1	6
561.312	1	-2
561.482	1	-6
561.652	1	1
561.822	1	2
561.992	1	8
562.162	1	5
562.331	1	11
562.501	1	7
562.671	1	8
562.841	1	-3
563.011	1	2
563.181	1	4
563.351	1	2
563.521	1	-6
563.691	1	-2
563.861	1	5
564.031	1	-3
564.201	1	4
564.370	1	8
564.540	1	12
564.710	1	-7
564.880	1	10
565.050	1	-3
565.220	1	15
565.390	1	8
565.560	1	4
565.730	1	-10
565.900	1	5
566.069	1	-8
566.239	1	13
566.409	1	5
566.579	1	-8
566.749	1	-1
566.919	1	-1
567.089	1	5
567.259	1	9
567.429	1	10
567.599	1	4
567.768	1	1
567.938	1	6
568.108	1	5
568.278	1	2
568.448	1	4
568.618	1	9
568.788	1	0
568.958	1	0
569.128	1	3
569.297	1	12
569.467	1	8
569.637	1	-3
569.807	1	18
569.977	1	-5
570.147	1	6
570.317	1	-2
570.487	1	8
570.656	1	-3
570.826	1	-1
570.996	1	1
571.166	1	-5
571.336	1	-3
571.506	1	-2
571.676	1	4
571.846	1	2
572.015	1	-6
572.185	1	5
572.355	1	6
572.525	1	13
572.695	1	2
572.865	1	-2
573.035	1	4
573.205	1	0
573.374	1	4
573.544	1	5
573.714	1	-4
573.884	1	7
574.054	1	12
574.224	1	3
574.394	1	5
574.563	1	9
574.733	1	1
574.903	1	0
575.073	1	1
575.243	1	8
575.413	1	-9
575.583	1	14
575.752	1	8
575.922	1	9
576.092	1	9
576.262	1	2
576.432	1	1
576.602	1	8
576.772	1	-3
576.941	1	1
577.111	1	7
577.281	1	10
577.451	1	12
577.621	1	10
577.791	1	1
577.960	1	5
578.130	1	-12
578.300	1	-1
578.470	1	-9
578.640	1	8
578.810	1	-4
578.979	1	-8
579.149	1	1
579.319	1	2
579.489	1	5
579.659	1	-5
579.829	1	-1
579.998	1	-9
580.168	1	4
580.338	1	4
580.508	1	20
580.678	1	3
580.848	1	-1
581.017	1	6
581.187	1	7
581.357	1	-5
581.527	1	4
581.697	1	-3
581.867	1	3
582.036	1	0
582.206	1	-5
582.376	1	-3
582.546	1	2
582.716	1	6
582.885	1	7
583.055	1	3
583.225	1	8
583.395	1	7
583.565	1	-2
583.735	1	0
583.904	1	5
584.074	1	6
584.244	1	-2
584.414	1	11
584.584	1	-3
584.753	1	-8
584.923	1	-3
585.093	1	12
585.263	1	3
585.433	1	-5
585.602	1	8
585.772	1	13
585.942	1	6
586.112	1	-4
586.282	1	5
586.451	1	13
586.621	1	8
586.791	1	3
586.961	1	4
587.131	1	12
587.300	1	5
587.470	1	-14
587.640	1	-2
587.810	1	4
587.980	1	-1
588.149	1	19
588.319	1	6
588.489	1	7
588.659	1	7
588.829	1	4
588.998	1	7
589.168	1	3
589.338	1	-6
589.508	1	1
589.677	1	5
589.847	1	7
590.017	1	5
590.187	1	-8
590.357	1	6
590.526	1	0
590.696	1	4
590.866	1	-11
591.036	1	2
591.205	1	5
591.375	1	-2
591.545	1	7
591.715	1	-3
591.885	1	2
592.054	1	6
592.224	1	-1
592.394	1	2
592.564	1	9
592.733	1	-1
592.903	1	5
593.073	1	9
593.243	1	7
593.412	1	9
593.582	1	-6
593.752	1	1
593.922	1	9
594.091	1	3
594.261	1	0
594.431	1	-2
594.601	1	-5
594.771	1	0
594.940	1	0
595.110	1	14
595.280	1	10
595.450	1	14
595.619	1	5
595.789	1	7
595.959	1	-1
596.129	1	9
596.298	1	8
596.468	1	10
596.638	1	2
596.808	1	13
596.977	1	0
597.147	1	2
597.317	1	3
597.487	1	-3
597.656	1	-2
597.826	1	12
597.996	1	5
598.166	1	1
598.335	1	7
598.505	1	12
598.675	1	5
598.844	1	6
599.014	1	-8
599.184	1	4
599.354	1	20
599.523	1	14
599.693	1	9
599.863	1	3
600.033	1	-2
600.202	1	0
600.372	1	2
600.542	1	8
600.712	1	-4
600.881	1	13
601.051	1	7
601.221	1	17
601.390	1	-1
601.560	1	9
601.730	1	3
601.900	1	0
602.069	1	7
602.239	1	2
602.409	1	5
602.578	1	7
602.748	1	0
602.918	1	1
603.088	1	9
603.257	1	-1
603.427	1	7
603.597	1	4
603.767	1	9
603.936	1	3
604.106	1	11
604.276	1	1
604.445	1	-1
604.615	1	12
604.785	1	12
604.954	1	10
605.124	1	14
605.294	1	8
605.464	1	2
605.633	1	13
605.803	1	8
605.973	1	20
606.142	1	7
606.312	1	4
606.482	1	-5
606.652	1	8
606.821	1	-5
606.991	1	-3
607.161	1	9
607.330	1	13
607.500	1	6
607.670	1	8
607.839	1	4
608.009	1	2
608.179	1	5
608.348	1	6
608.518	1	9
608.688	1	-2
608.858	1	7
609.027	1	19
609.197	1	4
609.367	1	7
609.536	1	8
609.706	1	12
609.876	1	5
610.045	1	7
610.215	1	12
610.385	1	15
610.554	1	17
610.724	1	10
610.894	1	6
611.063	1	1
611.233	1	5
611.403	1	15
611.572	1	9
611.742	1	12
611.912	1	4
612.081	1	3
612.251	1	10
612.421	1	5
612.590	1	-1
612.760	1	11
612.930	1	6
613.099	1	10
613.269	1	6
613.439	1	9
613.608	1	10
613.778	1	7
613.948	1	3
614.117	1	7
614.287	1	-2
614.457	1	0
614.626	1	12
614.796	1	10
614.966	1	7
615.135	1	13
615.305	1	14
615.475	1	10
615.644	1	6
615.814	1	7
615.984	1	1
616.153	1	5
616.323	1	-7
616.493	1	1
616.662	1	12
616.832	1	6
617.002	1	14
617.171	1	6
617.341	1	10
617.511	1	8
617.680	1	6
617.850	1	21
618.019	1	12
618.189	1	10
618.359	1	2
618.528	1	5
618.698	1	10
618.868	1	14
619.037	1	4
619.207	1	2
619.377	1	11
619.546	1	8
619.716	1	9
619.885	1	13
620.055	1	10
620.225	1	5
620.394	1	6
620.564	1	15
620.734	1	17
620.903	1	22
621.073	1	14
621.242	1	13
621.412	1	6
621.582	1	18
621.751	1	13
621.921	1	-3
622.091	1	7
622.260	1	-2
622.430	1	7
622.599	1	6
622.769	1	6
622.939	1	1
623.108	1	10
623.278	1	16
623.448	1	10
623.617	1	11
623.787	1	13
623.956	1	1
624.126	1	13
624.296	1	7
624.465	1	9
624.635	1	-1
624.804	1	16
624.974	1	10
625.144	1	13
625.313	1	7
625.483	1	13
625.652	1	16
625.822	1	6
625.992	1	16
626.161	1	5
626.331	1	15
626.501	1	2
626.670	1	13
626.840	1	8
627.009	1	5
627.179	1	25
627.348	1	15
627.518	1	8
627.688	1	7
627.857	1	2
628.027	1	11
628.196	1	10
628.366	1	12
628.536	1	11
628.705	1	12
628.875	1	10
629.044	1	-2
629.214	1	-2
629.384	1	1
629.553	1	5
629.723	1	14
629.892	1	-4
630.062	1	-2
630.232	1	10
630.401	1	16
630.571	1	5
630.740	1	10
630.910	1	18
631.079	1	19
631.249	1	6
631.419	1	9
631.588	1	8
631.758	1	10
631.927	1	17
632.097	1	7
632.266	1	3
632.436	1	15
632.606	1	22
632.775	1	4
632.945	1	7
633.114	1	0
633.284	1	7
633.453	1	5
633.623	1	13
633.793	1	6
633.962	1	7
634.132	1	2
634.301	1	14
634.471	1	-3
634.640	1	-2
634.810	1	15
634.979	1	2
635.149	1	6
635.319	1	15
635.488	1	16
635.658	1	2
635.827	1	1
635.997	1	9
636.166	1	2
636.336	1	1
636.505	1	10
636.675	1	2
636.845	1	5
637.014	1	11
637.184	1	8
637.353	1	8
637.523	1	12
637.692	1	10
637.862	1	3
638.031	1	7
638.201	1	1
638.370	1	14
638.540	1	-2
638.710	1	3
638.879	1	7
639.049	1	14
639.218	1	15
639.388	1	12
639.557	1	-1
639.727	1	18
639.896	1	7
640.066	1	5
640.235	1	3
640.405	1	10
640.574	1	7
640.744	1	4
640.914	1	4
641.083	1	11
641.253	1	12
641.422	1	9
641.592	1	0
641.761	1	12
641.931	1	6
642.100	1	14
642.270	1	9
642.439	1	10
642.609	1	10
642.778	1	11
642.948	1	2
643.117	1	11
643.287	1	13
643.456	1	9
643.626	1	5
643.795	1	8
643.965	1	4
644.134	1	15
644.304	1	2
644.473	1	6
644.643	1	-9
644.812	1	2
644.982	1	2
645.151	1	3
645.321	1	12
645.490	1	2
645.660	1	13
645.829	1	18
645.999	1	5
646.168	1	8
646.338	1	-2
646.507	1	5
646.677	1	0
646.846	1	4
647.016	1	8
647.185	1	7
647.355	1	11
647.524	1	9
647.694	1	21
647.863	1	-2
648.033	1	-7
648.202	1	5
648.372	1	5
648.541	1	12
648.711	1	-3
648.880	1	1
649.050	1	3
649.219	1	4
649.389	1	5
649.558	1	19
649.728	1	12
649.897	1	3
650.067	1	2
650.236	1	1
650.406	1	3
650.575	1	2
650.745	1	4
650.914	1	9
651.084	1	-10
651.253	1	7
651.423	1	8
651.592	1	6
651.762	1	8
651.931	1	11
652.101	1	4
652.270	1	-5
652.440	1	14
652.609	1	3
652.778	1	4
652.948	1	4
653.117	1	14
653.287	1	-3
653.456	1	0
653.626	1	9
653.795	1	-1
653.965	1	20
654.134	1	1
654.304	1	3
654.473	1	-1
654.643	1	11
654.812	1	13
654.982	1	5
655.151	1	6
655.320	1	14
655.490	1	-7
655.659	1	7
655.829	1	14
655.998	1	1
656.168	1	-5
656.337	1	-5
656.507	1	-2
656.676	1	4
656.846	1	17
657.015	1	8
657.184	1	6
657.354	1	8
657.523	1	-2
657.693	1	-2
657.862	1	3
658.032	1	10
658.201	1	8
658.371	1	3
658.540	1	3
658.709	1	2
658.879	1	9
659.048	1	-2
659.218	1	7
659.387	1	4
659.557	1	9
659.726	1	6
659.895	1	0
660.065	1	4
660.234	1	-3
660.404	1	10
660.573	1	1
660.743	1	4
660.912	1	1
661.081	1	-14
661.251	1	-3
661.420	1	6
661.590	1	-2
661.759	1	7
661.929	1	-9
662.098	1	10
662.267	1	-12
662.437	1	6
662.606	1	-5
662.776	1	2
662.945	1	-3
663.115	1	0
663.284	1	-8
663.453	1	-3
663.623	1	-10
663.792	1	-8
663.962	1	3
664.131	1	-3
664.300	1	0
664.470	1	-2
664.639	1	11
664.809	1	1
664.978	1	7
665.148	1	7
665.317	1	0
665.486	1	-11
665.656	1	20
665.825	1	2
665.995	1	-13
666.164	1	2
666.333	1	10
666.503	1	14
666.672	1	-6
666.842	1	8
667.011	1	18
667.180	1	7
667.350	1	-2
667.519	1	-10
667.689	1	-5
667.858	1	-10
668.027	1	8
668.197	1	17
668.366	1	0
668.536	1	1
668.705	1	-3
668.874	1	3
669.044	1	-8
669.213	1	1
669.382	1	0
669.552	1	-9
669.721	1	0
669.891	1	-5
670.060	1	2
670.229	1	4
670.399	1	9
670.568	1	-8
670.738	1	0
670.907	1	4
671.076	1	2
671.246	1	10
671.415	1	3
671.584	1	5
671.754	1	-4
671.923	1	-1
672.093	1	1
672.262	1	10
672.431	1	-3
672.601	1	3
672.770	1	6
672.939	1	-5
673.109	1	-4
673.278	1	5
673.448	1	6
673.617	1	-13
673.786	1	-2
