325.333	1	9
325.504	1	7
325.675	1	-2
325.846	1	14
326.017	1	-2
326.188	1	13
326.359	1	20
326.531	1	1
326.702	1	10
326.873	1	5
327.044	1	2
327.215	1	9
327.386	1	-1
327.557	1	18
327.728	1	6
327.899	1	4
328.070	1	2
328.241	1	1
328.412	1	1
328.583	1	8
328.754	1	3
328.926	1	13
329.097	1	13
329.268	1	6
329.439	1	-3
329.610	1	2
329.781	1	-5
329.952	1	-1
330.123	1	-5
330.294	1	1
330.465	1	5
330.636	1	9
330.807	1	10
330.978	1	5
331.149	1	13
331.320	1	7
331.492	1	3
331.663	1	0
331.834	1	5
332.005	1	0
332.176	1	7
332.347	1	4
332.518	1	7
332.689	1	5
332.860	1	1
333.031	1	-3
333.202	1	-2
333.373	1	7
333.544	1	1
333.715	1	-3
333.886	1	1
334.057	1	8
334.228	1	-6
334.399	1	9
334.570	1	-12
334.741	1	11
334.912	1	-8
335.084	1	3
335.255	1	1
335.426	1	2
335.597	1	3
335.768	1	8
335.939	1	-2
336.110	1	-6
336.281	1	-4
336.452	1	-8
336.623	1	14
336.794	1	5
336.965	1	1
337.136	1	8
337.307	1	14
337.478	1	0
337.649	1	3
337.820	1	12
337.991	1	4
338.162	1	5
338.333	1	0
338.504	1	12
338.675	1	-1
338.846	1	13
339.017	1	-1
339.188	1	3
339.359	1	3
339.530	1	-4
339.701	1	-3
339.872	1	4
340.043	1	0
340.214	1	-4
340.385	1	-1
340.556	1	4
340.727	1	2
340.898	1	5
341.069	1	-13
341.240	1	-8
341.411	1	4
341.582	1	8
341.753	1	-3
341.924	1	3
342.095	1	1
342.266	1	5
342.437	1	6
342.608	1	-2
342.779	1	2
342.950	1	-5
343.121	1	5
343.292	1	14
343.463	1	5
343.634	1	1
343.805	1	-3
343.976	1	-4
344.147	1	4
344.318	1	2
344.489	1	-1
344.660	1	-2
344.831	1	4
345.002	1	7
345.173	1	-3
345.344	1	-3
345.515	1	-8
345.686	1	12
345.857	1	13
346.028	1	3
346.199	1	-3
346.370	1	-5
346.541	1	-1
346.712	1	14
346.883	1	0
347.054	1	-1
347.225	1	-7
347.396	1	-11
347.567	1	0
347.738	1	-6
347.909	1	18
348.080	1	2
348.251	1	-7
348.422	1	-5
348.593	1	-1
348.764	1	4
348.935	1	-6
349.106	1	1
349.277	1	-5
349.448	1	3
349.619	1	-2
349.790	1	15
349.961	1	4
350.132	1	-6
350.303	1	0
350.474	1	1
350.645	1	6
350.816	1	-5
350.987	1	2
351.157	1	-7
351.328	1	-8
351.499	1	-9
351.670	1	0
351.841	1	7
352.012	1	5
352.183	1	-3
352.354	1	4
352.525	1	0
352.696	1	-3
352.867	1	-4
353.038	1	4
353.209	1	0
353.380	1	-4
353.551	1	0
353.722	1	-6
353.893	1	6
354.064	1	-18
354.235	1	5
354.406	1	3
354.576	1	0
354.747	1	-6
354.918	1	-3
355.089	1	-4
355.260	1	6
355.431	1	3
355.602	1	-5
355.773	1	-10
355.944	1	3
356.115	1	-7
356.286	1	-9
356.457	1	2
356.628	1	-8
356.799	1	-4
356.970	1	-3
357.141	1	0
357.311	1	-1
357.482	1	-2
357.653	1	-9
357.824	1	5
357.995	1	8
358.166	1	0
358.337	1	-6
358.508	1	4
358.679	1	-12
358.850	1	9
359.021	1	4
359.192	1	-3
359.363	1	6
359.533	1	5
359.704	1	-1
359.875	1	-10
360.046	1	-1
360.217	1	-1
360.388	1	5
360.559	1	-3
360.730	1	1
360.901	1	5
361.072	1	-10
361.243	1	4
361.414	1	-1
361.584	1	-1
361.755	1	-5
361.926	1	-6
362.097	1	5
362.268	1	-11
362.439	1	-5
362.610	1	-3
362.781	1	-5
362.952	1	-11
363.123	1	-2
363.293	1	7
363.464	1	-4
363.635	1	6
363.806	1	-6
363.977	1	-3
364.148	1	-9
364.319	1	0
364.490	1	-8
364.661	1	0
364.832	1	0
365.002	1	0
365.173	1	-1
365.344	1	-2
365.515	1	-7
365.686	1	-9
365.857	1	5
366.028	1	-7
366.199	1	-2
366.370	1	-10
366.540	1	-3
366.711	1	-4
366.882	1	3
367.053	1	-6
367.224	1	-7
367.395	1	0
367.566	1	6
367.737	1	-8
367.908	1	-2
368.078	1	8
368.249	1	4
368.420	1	4
368.591	1	-2
368.762	1	1
368.933	1	0
369.104	1	-3
369.274	1	-5
369.445	1	-1
369.616	1	-7
369.787	1	-4
369.958	1	-6
370.129	1	-6
370.300	1	-5
370.471	1	1
370.641	1	-16
370.812	1	-8
370.983	1	-6
371.154	1	0
371.325	1	4
371.496	1	-4
371.667	1	-8
371.837	1	-11
372.008	1	-14
372.179	1	-4
372.350	1	-5
372.521	1	6
372.692	1	-7
372.863	1	-7
373.033	1	-3
373.204	1	-4
373.375	1	2
373.546	1	6
373.717	1	-13
373.888	1	-6
374.059	1	-5
374.229	1	-13
374.400	1	-2
374.571	1	-8
374.742	1	-10
374.913	1	2
375.084	1	-5
375.254	1	-3
375.425	1	-3
375.596	1	1
375.767	1	-6
375.938	1	-9
376.109	1	-9
376.279	1	-8
376.450	1	1
376.621	1	-10
376.792	1	-7
376.963	1	10
377.134	1	-6
377.304	1	11
377.475	1	-13
377.646	1	3
377.817	1	-3
377.988	1	2
378.159	1	2
378.329	1	5
378.500	1	-16
378.671	1	-1
378.842	1	-2
379.013	1	-1
379.184	1	0
379.354	1	3
379.525	1	-9
379.696	1	-9
379.867	1	-6
380.038	1	3
380.209	1	-16
380.379	1	-7
380.550	1	9
380.721	1	-7
380.892	1	-4
381.063	1	-7
381.233	1	3
381.404	1	3
381.575	1	1
381.746	1	-6
381.917	1	11
382.087	1	-4
382.258	1	-7
382.429	1	3
382.600	1	1
382.771	1	-6
382.941	1	-3
383.112	1	0
383.283	1	6
383.454	1	-3
383.625	1	0
383.795	1	-5
383.966	1	0
384.137	1	0
384.308	1	-5
384.479	1	-3
384.649	1	-7
384.820	1	-6
384.991	1	-17
385.162	1	-1
385.333	1	-4
385.503	1	-1
385.674	1	6
385.845	1	-8
386.016	1	3
386.187	1	-6
386.357	1	-2
386.528	1	1
386.699	1	-2
386.870	1	10
387.041	1	-10
387.211	1	1
387.382	1	-1
387.553	1	-5
387.724	1	6
387.894	1	6
388.065	1	3
388.236	1	3
388.407	1	5
388.578	1	0
388.748	1	-3
388.919	1	-8
389.090	1	1
389.261	1	-1
389.431	1	-5
389.602	1	8
389.773	1	-2
389.944	1	2
390.114	1	-7
390.285	1	-9
390.456	1	10
390.627	1	-12
390.798	1	0
390.968	1	-1
391.139	1	-9
391.310	1	-4
391.481	1	-17
391.651	1	9
391.822	1	4
391.993	1	-25
392.164	1	-1
392.334	1	-8
392.505	1	-4
392.676	1	-1
392.847	1	-1
393.017	1	8
393.188	1	-1
393.359	1	4
393.530	1	9
393.700	1	9
393.871	1	-6
394.042	1	-8
394.213	1	1
394.383	1	0
394.554	1	-9
394.725	1	-2
394.896	1	3
395.066	1	-16
395.237	1	-13
395.408	1	5
395.579	1	-5
395.749	1	-2
395.920	1	-1
396.091	1	8
396.262	1	-3
396.432	1	-10
396.603	1	6
396.774	1	-6
396.945	1	-10
397.115	1	0
397.286	1	4
397.457	1	-3
397.627	1	1
397.798	1	-5
397.969	1	-9
398.140	1	0
398.310	1	0
398.481	1	-12
398.652	1	-3
398.823	1	-8
398.993	1	9
399.164	1	2
399.335	1	5
399.505	1	6
399.676	1	-3
399.847	1	-11
400.018	1	-6
400.188	1	6
400.359	1	2
400.530	1	-5
400.700	1	7
400.871	1	4
401.042	1	-5
401.213	1	2
401.383	1	13
401.554	1	0
401.725	1	3
401.895	1	-11
402.066	1	8
402.237	1	-3
402.408	1	-6
402.578	1	-10
402.749	1	2
402.920	1	1
403.090	1	-1
403.261	1	-11
403.432	1	-11
403.603	1	-1
403.773	1	4
403.944	1	-2
404.115	1	3
404.285	1	3
404.456	1	-3
404.627	1	7
404.797	1	-1
404.968	1	-7
405.139	1	1
405.310	1	17
405.480	1	6
405.651	1	0
405.822	1	3
405.992	1	-5
406.163	1	-5
406.334	1	-10
406.504	1	2
406.675	1	0
406.846	1	3
407.016	1	6
407.187	1	-7
407.358	1	5
407.528	1	-9
407.699	1	8
407.870	1	-3
408.041	1	-1
408.211	1	2
408.382	1	3
408.553	1	-5
408.723	1	8
408.894	1	0
409.065	1	2
409.235	1	-1
409.406	1	-2
409.577	1	12
409.747	1	-4
409.918	1	14
410.089	1	0
410.259	1	0
410.430	1	9
410.601	1	13
410.771	1	1
410.942	1	2
411.113	1	0
411.283	1	2
411.454	1	-12
411.625	1	5
411.795	1	3
411.966	1	-1
412.137	1	-3
412.307	1	4
412.478	1	4
412.649	1	-6
412.819	1	-11
412.990	1	-14
413.161	1	-5
413.331	1	-11
413.502	1	5
413.672	1	1
413.843	1	10
414.014	1	43
414.184	1	67
414.355	1	11
414.526	1	8
414.696	1	10
414.867	1	-13
415.038	1	3
415.208	1	-4
415.379	1	11
415.550	1	12
415.720	1	-2
415.891	1	7
416.062	1	-9
416.232	1	-9
416.403	1	8
416.573	1	-5
416.744	1	-6
416.915	1	3
417.085	1	6
417.256	1	11
417.427	1	7
417.597	1	3
417.768	1	-1
417.939	1	2
418.109	1	3
418.280	1	4
418.450	1	1
418.621	1	1
418.792	1	11
418.962	1	8
419.133	1	1
419.304	1	1
419.474	1	7
419.645	1	7
419.815	1	4
419.986	1	3
420.157	1	18
420.327	1	4
420.498	1	6
420.669	1	5
420.839	1	-2
421.010	1	0
421.180	1	0
421.351	1	13
421.522	1	-2
421.692	1	3
421.863	1	-2
422.033	1	5
422.204	1	1
422.375	1	2
422.545	1	7
422.716	1	5
422.886	1	6
423.057	1	12
423.228	1	14
423.398	1	1
423.569	1	-7
423.740	1	-6
423.910	1	7
424.081	1	9
424.251	1	10
424.422	1	-10
424.593	1	5
424.763	1	-9
424.934	1	9
425.104	1	9
425.275	1	-2
425.445	1	-12
425.616	1	-1
425.787	1	-1
425.957	1	9
426.128	1	4
426.298	1	-2
426.469	1	-7
426.640	1	-3
426.810	1	2
426.981	1	5
427.151	1	8
427.322	1	5
427.493	1	8
427.663	1	4
427.834	1	18
428.004	1	-2
428.175	1	12
428.345	1	7
428.516	1	-9
428.687	1	2
428.857	1	11
429.028	1	3
429.198	1	9
429.369	1	5
429.540	1	2
429.710	1	5
429.881	1	7
430.051	1	5
430.222	1	3
430.392	1	0
430.563	1	2
430.734	1	10
430.904	1	12
431.075	1	0
431.245	1	2
431.416	1	10
431.586	1	12
431.757	1	18
431.927	1	8
432.098	1	3
432.269	1	7
432.439	1	-2
432.610	1	0
432.780	1	12
432.951	1	1
433.121	1	11
433.292	1	-3
433.462	1	-2
433.633	1	3
433.804	1	0
433.974	1	-2
434.145	1	2
434.315	1	4
434.486	1	16
434.656	1	13
434.827	1	-1
434.997	1	5
435.168	1	11
435.339	1	2
435.509	1	18
435.680	1	8
435.850	1	1
436.021	1	-2
436.191	1	14
436.362	1	-1
436.532	1	16
436.703	1	10
436.873	1	3
437.044	1	10
437.214	1	0
437.385	1	5
437.556	1	1
437.726	1	0
437.897	1	-7
438.067	1	4
438.238	1	3
438.408	1	10
438.579	1	7
438.749	1	2
438.920	1	3
439.090	1	5
439.261	1	12
439.431	1	15
439.602	1	4
439.772	1	11
439.943	1	3
440.113	1	15
440.284	1	-3
440.455	1	0
440.625	1	-11
440.796	1	6
440.966	1	18
441.137	1	16
441.307	1	11
441.478	1	5
441.648	1	-3
441.819	1	0
441.989	1	1
442.160	1	1
442.330	1	-14
442.501	1	2
442.671	1	5
442.842	1	-5
443.012	1	7
443.183	1	2
443.353	1	7
443.524	1	5
443.694	1	1
443.865	1	-3
444.035	1	5
444.206	1	-2
444.376	1	9
444.547	1	7
444.717	1	1
444.888	1	12
445.058	1	19
445.229	1	-1
445.399	1	12
445.570	1	11
445.740	1	-1
445.911	1	-2
446.081	1	7
446.252	1	9
446.422	1	13
446.593	1	7
446.763	1	4
446.934	1	14
447.104	1	2
447.275	1	1
447.445	1	10
447.616	1	8
447.786	1	2
447.957	1	9
448.127	1	-2
448.298	1	4
448.468	1	20
448.639	1	10
448.809	1	7
448.979	1	5
449.150	1	2
449.320	1	16
449.491	1	13
449.661	1	11
449.832	1	-4
450.002	1	10
450.173	1	15
450.343	1	2
450.514	1	7
450.684	1	10
450.855	1	13
451.025	1	12
451.196	1	8
451.366	1	14
451.537	1	4
451.707	1	4
451.878	1	-2
452.048	1	11
452.218	1	8
452.389	1	10
452.559	1	10
452.730	1	1
452.900	1	10
453.071	1	2
453.241	1	3
453.412	1	15
453.582	1	2
453.753	1	-1
453.923	1	5
454.093	1	10
454.264	1	9
454.434	1	5
454.605	1	0
454.775	1	0
454.946	1	8
455.116	1	10
455.287	1	5
455.457	1	9
455.628	1	13
455.798	1	6
455.968	1	11
456.139	1	14
456.309	1	12
456.480	1	10
456.650	1	11
456.821	1	0
456.991	1	1
457.161	1	11
457.332	1	9
457.502	1	7
457.673	1	11
457.843	1	9
458.014	1	7
458.184	1	11
458.355	1	-5
458.525	1	9
458.695	1	8
458.866	1	14
459.036	1	-4
459.207	1	7
459.377	1	8
459.548	1	1
459.718	1	9
459.888	1	4
460.059	1	1
460.229	1	3
460.400	1	-9
460.570	1	16
460.740	1	-1
460.911	1	5
461.081	1	22
461.252	1	13
461.422	1	13
461.593	1	6
461.763	1	18
461.933	1	9
462.104	1	12
462.274	1	7
462.445	1	11
462.615	1	0
462.785	1	-1
462.956	1	4
463.126	1	9
463.297	1	7
463.467	1	14
463.638	1	4
463.808	1	9
463.978	1	5
464.149	1	5
464.319	1	-3
464.490	1	12
464.660	1	-2
464.830	1	17
465.001	1	7
465.171	1	11
465.342	1	5
465.512	1	5
465.682	1	-3
465.853	1	-1
466.023	1	9
466.194	1	-1
466.364	1	-3
466.534	1	9
466.705	1	16
466.875	1	10
467.045	1	0
467.216	1	3
467.386	1	9
467.557	1	11
467.727	1	15
467.897	1	0
468.068	1	1
468.238	1	2
468.409	1	9
468.579	1	10
468.749	1	12
468.920	1	3
469.090	1	-8
469.260	1	5
469.431	1	4
469.601	1	8
469.772	1	7
469.942	1	12
470.112	1	5
470.283	1	5
470.453	1	10
470.623	1	12
470.794	1	9
470.964	1	20
471.135	1	11
471.305	1	10
471.475	1	10
471.646	1	-5
471.816	1	10
471.986	1	10
472.157	1	13
472.327	1	10
472.497	1	16
472.668	1	13
472.838	1	17
473.009	1	5
473.179	1	11
473.349	1	0
473.520	1	-4
473.690	1	8
473.860	1	14
474.031	1	0
474.201	1	6
474.371	1	11
474.542	1	11
474.712	1	5
474.882	1	9
475.053	1	6
475.223	1	-1
475.394	1	-3
475.564	1	1
475.734	1	8
475.905	1	14
476.075	1	7
476.245	1	8
476.416	1	6
476.586	1	0
476.756	1	3
476.927	1	8
477.097	1	10
477.267	1	9
477.438	1	-4
477.608	1	0
477.778	1	11
477.949	1	9
478.119	1	-5
478.289	1	5
478.460	1	-2
478.630	1	16
478.800	1	-5
478.971	1	2
479.141	1	16
479.311	1	17
479.482	1	-1
479.652	1	12
479.822	1	16
479.993	1	-1
480.163	1	6
480.333	1	11
480.504	1	1
480.674	1	3
480.844	1	-2
481.015	1	5
481.185	1	6
481.355	1	-1
481.525	1	7
481.696	1	9
481.866	1	15
482.036	1	-1
482.207	1	4
482.377	1	3
482.547	1	1
482.718	1	2
482.888	1	4
483.058	1	3
483.229	1	16
483.399	1	13
483.569	1	2
483.740	1	-1
483.910	1	4
484.080	1	2
484.250	1	3
484.421	1	2
484.591	1	6
484.761	1	9
484.932	1	11
485.102	1	5
485.272	1	-2
485.443	1	0
485.613	1	6
485.783	1	16
485.953	1	7
486.124	1	8
486.294	1	-2
486.464	1	6
486.635	1	4
486.805	1	-1
486.975	1	6
487.146	1	-5
487.316	1	1
487.486	1	-7
487.656	1	12
487.827	1	0
487.997	1	9
488.167	1	-2
488.338	1	4
488.508	1	3
488.678	1	3
488.848	1	12
489.019	1	1
489.189	1	10
489.359	1	0
489.529	1	-1
489.700	1	4
489.870	1	1
490.040	1	8
490.211	1	10
490.381	1	13
490.551	1	1
490.721	1	4
490.892	1	0
491.062	1	9
491.232	1	2
491.402	1	-9
491.573	1	8
491.743	1	4
491.913	1	4
492.084	1	5
492.254	1	4
492.424	1	5
492.594	1	3
492.765	1	-1
492.935	1	9
493.105	1	-6
493.275	1	7
493.446	1	2
493.616	1	7
493.786	1	8
493.956	1	2
494.127	1	8
494.297	1	3
494.467	1	1
494.637	1	4
494.808	1	7
494.978	1	3
495.148	1	-1
495.318	1	-1
495.489	1	-3
495.659	1	5
495.829	1	-8
495.999	1	10
496.170	1	4
496.340	1	6
496.510	1	-3
496.680	1	9
496.851	1	7
497.021	1	4
497.191	1	2
497.361	1	5
497.532	1	4
497.702	1	2
497.872	1	-2
498.042	1	3
498.213	1	-4
498.383	1	1
498.553	1	3
498.723	1	10
498.894	1	-1
499.064	1	1
499.234	1	0
499.404	1	12
499.574	1	4
499.745	1	5
499.915	1	0
500.085	1	-2
500.255	1	-1
500.426	1	-5
500.596	1	3
500.766	1	3
500.936	1	7
501.106	1	-1
501.277	1	9
501.447	1	-3
501.617	1	5
501.787	1	1
501.958	1	8
502.128	1	8
502.298	1	-2
502.468	1	3
502.638	1	8
502.809	1	-1
502.979	1	0
503.149	1	17
503.319	1	-8
503.489	1	4
503.660	1	-1
503.830	1	-4
504.000	1	-2
504.170	1	11
504.340	1	7
504.511	1	9
504.681	1	3
504.851	1	-2
505.021	1	2
505.192	1	3
505.362	1	8
505.532	1	9
505.702	1	6
505.872	1	8
506.043	1	4
506.213	1	3
506.383	1	-9
506.553	1	13
506.723	1	0
506.893	1	-2
507.064	1	9
507.234	1	3
507.404	1	0
507.574	1	10
507.744	1	6
507.915	1	5
508.085	1	10
508.255	1	7
508.425	1	-11
508.595	1	5
508.766	1	3
508.936	1	-11
509.106	1	7
509.276	1	-1
509.446	1	-2
509.616	1	-1
509.787	1	8
509.957	1	-8
510.127	1	-1
510.297	1	1
510.467	1	6
510.638	1	3
510.808	1	13
510.978	1	6
511.148	1	2
511.318	1	4
511.488	1	10
511.659	1	-3
511.829	1	3
511.999	1	-3
512.169	1	4
512.339	1	2
512.509	1	18
512.680	1	7
512.850	1	3
513.020	1	-4
513.190	1	5
513.360	1	-5
513.530	1	-5
513.700	1	1
513.871	1	6
514.041	1	-4
514.211	1	2
514.381	1	-2
514.551	1	-8
514.721	1	2
514.892	1	4
515.062	1	-3
515.232	1	0
515.402	1	-2
515.572	1	-10
515.742	1	-4
515.912	1	11
516.083	1	4
516.253	1	-2
516.423	1	6
516.593	1	2
516.763	1	5
516.933	1	-6
517.104	1	0
517.274	1	-3
517.444	1	8
517.614	1	1
517.784	1	9
517.954	1	-9
518.124	1	13
518.294	1	0
518.465	1	-11
518.635	1	4
518.805	1	4
518.975	1	-12
519.145	1	-1
519.315	1	-6
519.485	1	-15
519.656	1	0
519.826	1	-7
519.996	1	-2
520.166	1	10
520.336	1	-3
520.506	1	-11
520.676	1	7
520.846	1	3
521.017	1	11
521.187	1	9
521.357	1	0
521.527	1	2
521.697	1	3
521.867	1	-5
522.037	1	-6
522.207	1	10
522.377	1	-6
522.548	1	1
522.718	1	-6
522.888	1	8
523.058	1	2
523.228	1	0
523.398	1	8
523.568	1	-4
523.738	1	2
523.909	1	-1
524.079	1	2
524.249	1	-3
524.419	1	-3
524.589	1	7
524.759	1	6
524.929	1	-4
525.099	1	7
525.269	1	8
525.439	1	-5
525.610	1	16
525.780	1	-4
525.950	1	-4
526.120	1	3
526.290	1	7
526.460	1	-3
526.630	1	-4
526.800	1	3
526.970	1	-5
527.140	1	4
527.311	1	2
527.481	1	-5
527.651	1	18
527.821	1	-1
527.991	1	1
528.161	1	0
528.331	1	-2
528.501	1	-3
528.671	1	0
528.841	1	-2
529.011	1	7
529.181	1	-2
529.352	1	8
529.522	1	4
529.692	1	3
529.862	1	2
530.032	1	4
530.202	1	0
530.372	1	8
530.542	1	1
530.712	1	-2
530.882	1	0
531.052	1	2
531.222	1	0
531.392	1	-5
531.563	1	1
531.733	1	-5
531.903	1	2
532.073	1	-2
532.243	1	11
532.413	1	2
532.583	1	14
532.753	1	1
532.923	1	0
533.093	1	4
533.263	1	0
533.433	1	-7
533.603	1	3
533.773	1	-1
533.943	1	15
534.113	1	2
534.284	1	5
534.454	1	4
534.624	1	-1
534.794	1	-3
534.964	1	6
535.134	1	2
535.304	1	8
535.474	1	2
535.644	1	-7
535.814	1	9
535.984	1	2
536.154	1	-4
536.324	1	0
536.494	1	-4
536.664	1	1
536.834	1	4
537.004	1	-5
537.174	1	5
537.344	1	-1
537.514	1	8
537.685	1	-3
537.855	1	4
538.025	1	3
538.195	1	3
538.365	1	-7
538.535	1	-4
538.705	1	4
538.875	1	-1
539.045	1	-5
539.215	1	-1
539.385	1	0
539.555	1	-3
539.725	1	-10
539.895	1	0
540.065	1	4
540.235	1	-1
540.405	1	5
540.575	1	13
540.745	1	6
540.915	1	-12
541.085	1	2
541.255	1	-7
541.425	1	3
541.595	1	-11
541.765	1	-2
541.935	1	-1
542.105	1	2
542.275	1	-9
542.445	1	6
542.615	1	-1
542.785	1	-14
542.955	1	8
543.125	1	0
543.295	1	-4
543.465	1	9
543.635	1	1
543.805	1	7
543.975	1	-6
544.145	1	0
544.315	1	0
544.485	1	-2
544.655	1	5
544.825	1	3
544.995	1	3
545.165	1	4
545.335	1	3
545.505	1	4
545.675	1	-4
545.845	1	-1
546.015	1	4
546.185	1	3
546.355	1	13
546.525	1	-3
546.695	1	-2
546.865	1	-2
547.035	1	4
547.205	1	13
547.375	1	0
547.545	1	-1
547.715	1	-3
547.885	1	-13
548.055	1	-6
548.225	1	12
548.395	1	-3
548.565	1	2
548.735	1	2
548.905	1	4
549.075	1	-2
549.245	1	0
549.415	1	-3
549.585	1	7
549.755	1	-2
549.925	1	5
550.095	1	1
550.265	1	1
550.435	1	1
550.605	1	1
550.775	1	0
550.945	1	0
551.115	1	2
551.285	1	-1
551.455	1	-3
551.625	1	2
551.795	1	-9
551.965	1	-3
552.135	1	-1
552.305	1	10
552.475	1	11
552.645	1	2
552.815	1	-1
552.985	1	2
553.155	1	5
553.325	1	-4
553.495	1	5
553.665	1	9
553.835	1	3
554.004	1	-2
554.174	1	9
554.344	1	-5
554.514	1	1
554.684	1	-13
554.854	1	8
555.024	1	1
555.194	1	-3
555.364	1	-1
555.534	1	3
555.704	1	2
555.874	1	1
556.044	1	1
556.214	1	3
556.384	1	12
556.554	1	-4
556.724	1	2
556.894	1	-3
557.064	1	8
557.234	1	2
557.404	1	-2
557.573	1	7
557.743	1	0
557.913	1	2
558.083	1	2
558.253	1	-4
558.423	1	5
558.593	1	-2
558.763	1	0
558.933	1	-2
559.103	1	9
559.273	1	-2
559.443	1	1
559.613	1	-4
559.783	1	-3
559.953	1	-12
560.122	1	-9
560.292	1	-5
560.462	1	-3
560.632	1	-1
560.802	1	8
560.972	1	3
561.142	1	-4
561.312	1	4
561.482	1	-6
561.652	1	-6
561.822	1	-6
561.992	1	-7
562.162	1	-7
562.331	1	6
562.501	1	5
562.671	1	3
562.841	1	-6
563.011	1	8
563.181	1	0
563.351	1	6
563.521	1	-6
563.691	1	-3
563.861	1	1
564.031	1	-8
564.201	1	8
564.370	1	10
564.540	1	8
564.710	1	1
564.880	1	2
565.050	1	-2
565.220	1	3
565.390	1	1
565.560	1	0
565.730	1	-7
565.900	1	2
566.069	1	-16
566.239	1	7
566.409	1	-3
566.579	1	-14
566.749	1	-12
566.919	1	-5
567.089	1	3
567.259	1	2
567.429	1	19
567.599	1	4
567.768	1	11
567.938	1	0
568.108	1	-1
568.278	1	12
568.448	1	0
568.618	1	0
568.788	1	1
568.958	1	0
569.128	1	-6
569.297	1	11
569.467	1	9
569.637	1	4
569.807	1	14
569.977	1	-2
570.147	1	-3
570.317	1	-9
570.487	1	0
570.656	1	1
570.826	1	-6
570.996	1	-5
571.166	1	6
571.336	1	-5
571.506	1	-1
571.676	1	3
571.846	1	4
572.015	1	2
572.185	1	0
572.355	1	0
572.525	1	2
572.695	1	0
572.865	1	11
573.035	1	-3
573.205	1	1
573.374	1	-7
573.544	1	10
573.714	1	1
573.884	1	-12
574.054	1	2
574.224	1	-1
574.394	1	-5
574.563	1	-7
574.733	1	9
574.903	1	-3
575.073	1	-8
575.243	1	2
575.413	1	-3
575.583	1	6
575.752	1	2
575.922	1	5
576.092	1	0
576.262	1	-3
576.432	1	-5
576.602	1	4
576.772	1	3
576.941	1	3
577.111	1	5
577.281	1	8
577.451	1	-5
577.621	1	3
577.791	1	-1
577.960	1	-1
578.130	1	-1
578.300	1	3
578.470	1	4
578.640	1	13
578.810	1	-3
578.979	1	2
579.149	1	7
579.319	1	2
579.489	1	4
579.659	1	-2
579.829	1	-1
579.998	1	-9
580.168	1	-5
580.338	1	8
580.508	1	16
580.678	1	2
580.848	1	1
581.017	1	5
581.187	1	8
581.357	1	-1
581.527	1	-1
581.697	1	-8
581.867	1	-1
582.036	1	-7
582.206	1	0
582.376	1	5
582.546	1	2
582.716	1	0
582.885	1	15
583.055	1	5
583.225	1	-4
583.395	1	6
583.565	1	-9
583.735	1	-2
583.904	1	-4
584.074	1	7
584.244	1	-5
584.414	1	9
584.584	1	-4
584.753	1	-12
584.923	1	-11
585.093	1	2
585.263	1	-4
585.433	1	-6
585.602	1	10
585.772	1	5
585.942	1	-5
586.112	1	-10
586.282	1	3
586.451	1	3
586.621	1	-1
586.791	1	3
586.961	1	1
587.131	1	2
587.300	1	4
587.470	1	-11
587.640	1	-4
587.810	1	-1
587.980	1	-9
588.149	1	2
588.319	1	6
588.489	1	0
588.659	1	1
588.829	1	2
588.998	1	-2
589.168	1	2
589.338	1	-5
589.508	1	3
589.677	1	-1
589.847	1	-3
590.017	1	-3
590.187	1	2
590.357	1	2
590.526	1	-2
590.696	1	-2
590.866	1	-15
591.036	1	12
591.205	1	0
591.375	1	-8
591.545	1	4
591.715	1	-7
591.885	1	0
592.054	1	-2
592.224	1	-4
592.394	1	5
592.564	1	2
592.733	1	-4
592.903	1	2
593.073	1	3
593.243	1	-2
593.412	1	0
593.582	1	1
593.752	1	2
593.922	1	0
594.091	1	4
594.261	1	-6
594.431	1	11
594.601	1	-5
594.771	1	-5
594.940	1	-2
595.110	1	7
595.280	1	3
595.450	1	21
595.619	1	-5
595.789	1	2
595.959	1	0
596.129	1	10
596.298	1	9
596.468	1	4
596.638	1	3
596.808	1	17
596.977	1	4
597.147	1	4
597.317	1	2
597.487	1	6
597.656	1	-8
597.826	1	6
597.996	1	-3
598.166	1	0
598.335	1	-1
598.505	1	3
598.675	1	5
598.844	1	-4
599.014	1	3
599.184	1	-5
599.354	1	8
599.523	1	3
599.693	1	8
599.863	1	0
600.033	1	2
600.202	1	1
600.372	1	5
600.542	1	11
600.712	1	2
600.881	1	6
601.051	1	5
601.221	1	6
601.390	1	2
601.560	1	-2
601.730	1	0
601.900	1	-5
602.069	1	4
602.239	1	2
602.409	1	7
602.578	1	-3
602.748	1	1
602.918	1	0
603.088	1	1
603.257	1	7
603.427	1	0
603.597	1	-4
603.767	1	-3
603.936	1	-2
604.106	1	2
604.276	1	6
604.445	1	6
604.615	1	11
604.785	1	14
604.954	1	3
605.124	1	10
605.294	1	4
605.464	1	8
605.633	1	5
605.803	1	4
605.973	1	1
606.142	1	7
606.312	1	2
606.482	1	-9
606.652	1	4
606.821	1	1
606.991	1	-6
607.161	1	4
607.330	1	-2
607.500	1	8
607.670	1	-2
607.839	1	3
608.009	1	3
608.179	1	5
608.348	1	11
608.518	1	12
608.688	1	-2
608.858	1	5
609.027	1	10
609.197	1	-9
609.367	1	3
609.536	1	6
609.706	1	11
609.876	1	2
610.045	1	6
610.215	1	4
610.385	1	8
610.554	1	7
610.724	1	3
610.894	1	11
611.063	1	4
611.233	1	3
611.403	1	13
611.572	1	7
611.742	1	1
611.912	1	-4
612.081	1	5
612.251	1	3
612.421	1	8
612.590	1	-4
612.760	1	7
612.930	1	14
613.099	1	8
613.269	1	1
613.439	1	7
613.608	1	2
613.778	1	5
613.948	1	3
614.117	1	9
614.287	1	-5
614.457	1	2
614.626	1	5
614.796	1	5
614.966	1	6
615.135	1	6
615.305	1	9
615.475	1	12
615.644	1	6
615.814	1	0
615.984	1	10
616.153	1	7
616.323	1	-4
616.493	1	-5
616.662	1	6
616.832	1	4
617.002	1	6
617.171	1	3
617.341	1	9
617.511	1	8
617.680	1	2
617.850	1	20
618.019	1	10
618.189	1	6
618.359	1	-3
618.528	1	6
618.698	1	12
618.868	1	4
619.037	1	0
619.207	1	12
619.377	1	5
619.546	1	9
619.716	1	8
619.885	1	13
620.055	1	4
620.225	1	1
620.394	1	8
620.564	1	10
620.734	1	15
620.903	1	18
621.073	1	5
621.242	1	14
621.412	1	1
621.582	1	1
621.751	1	-1
621.921	1	-3
622.091	1	10
622.260	1	1
622.430	1	6
622.599	1	10
622.769	1	8
622.939	1	1
623.108	1	8
623.278	1	3
623.448	1	8
623.617	1	1
623.787	1	14
623.956	1	7
624.126	1	5
624.296	1	6
624.465	1	18
624.635	1	-2
624.804	1	12
624.974	1	6
625.144	1	4
625.313	1	2
625.483	1	7
625.652	1	-1
625.822	1	17
625.992	1	8
626.161	1	6
626.331	1	9
626.501	1	-1
626.670	1	3
626.840	1	4
627.009	1	3
627.179	1	20
627.348	1	13
627.518	1	-1
627.688	1	7
627.857	1	0
628.027	1	14
628.196	1	6
628.366	1	9
628.536	1	13
628.705	1	3
628.875	1	-2
629.044	1	1
629.214	1	4
629.384	1	4
629.553	1	10
629.723	1	8
629.892	1	3
630.062	1	-6
630.232	1	3
630.401	1	7
630.571	1	5
630.740	1	-5
630.910	1	13
631.079	1	15
631.249	1	3
631.419	1	-2
631.588	1	9
631.758	1	8
631.927	1	5
632.097	1	12
632.266	1	-5
632.436	1	15
632.606	1	6
632.775	1	-1
632.945	1	-3
633.114	1	12
633.284	1	2
633.453	1	13
633.623	1	14
633.793	1	4
633.962	1	0
634.132	1	5
634.301	1	9
634.471	1	-7
634.640	1	11
634.810	1	8
634.979	1	0
635.149	1	5
635.319	1	9
635.488	1	8
635.658	1	3
635.827	1	0
635.997	1	10
636.166	1	7
636.336	1	-1
636.505	1	6
636.675	1	8
636.845	1	0
637.014	1	11
637.184	1	7
637.353	1	14
637.523	1	7
637.692	1	9
637.862	1	7
638.031	1	8
638.201	1	4
638.370	1	16
638.540	1	4
638.710	1	10
638.879	1	0
639.049	1	9
639.218	1	11
639.388	1	6
639.557	1	-5
639.727	1	14
639.896	1	-1
640.066	1	1
640.235	1	4
640.405	1	7
640.574	1	10
640.744	1	8
640.914	1	4
641.083	1	16
641.253	1	8
641.422	1	7
641.592	1	-5
641.761	1	1
641.931	1	9
642.100	1	15
642.270	1	9
642.439	1	11
642.609	1	8
642.778	1	18
642.948	1	0
643.117	1	6
643.287	1	-3
643.456	1	6
643.626	1	0
643.795	1	14
643.965	1	8
644.134	1	20
644.304	1	-4
644.473	1	8
644.643	1	4
644.812	1	-6
644.982	1	-3
645.151	1	-2
645.321	1	1
645.490	1	2
645.660	1	13
645.829	1	8
645.999	1	5
646.168	1	12
646.338	1	3
646.507	1	7
646.677	1	-7
646.846	1	6
647.016	1	3
647.185	1	0
647.355	1	2
647.524	1	2
647.694	1	13
647.863	1	-10
648.033	1	2
648.202	1	12
648.372	1	8
648.541	1	3
648.711	1	8
648.880	1	8
649.050	1	-2
649.219	1	1
649.389	1	11
649.558	1	2
649.728	1	5
649.897	1	5
650.067	1	3
650.236	1	1
650.406	1	4
650.575	1	4
650.745	1	13
650.914	1	11
651.084	1	-1
651.253	1	14
651.423	1	5
651.592	1	6
651.762	1	2
651.931	1	11
652.101	1	7
652.270	1	-6
652.440	1	5
652.609	1	10
652.778	1	14
652.948	1	3
653.117	1	2
653.287	1	-2
653.456	1	1
653.626	1	12
653.795	1	6
653.965	1	6
654.134	1	4
654.304	1	8
654.473	1	-3
654.643	1	6
654.812	1	13
654.982	1	10
655.151	1	-4
655.320	1	11
655.490	1	-1
655.659	1	4
655.829	1	9
655.998	1	4
656.168	1	-6
656.337	1	2
656.507	1	0
656.676	1	18
656.846	1	6
657.015	1	-3
657.184	1	9
657.354	1	-5
657.523	1	-5
657.693	1	11
657.862	1	-4
658.032	1	9
658.201	1	2
658.371	1	9
658.540	1	-6
658.709	1	7
658.879	1	2
659.048	1	1
659.218	1	-3
659.387	1	-12
659.557	1	12
659.726	1	5
659.895	1	4
660.065	1	-5
660.234	1	2
660.404	1	3
660.573	1	8
660.743	1	-4
660.912	1	-1
661.081	1	1
661.251	1	6
661.420	1	7
661.590	1	0
661.759	1	4
661.929	1	-8
662.098	1	5
662.267	1	-3
662.437	1	-3
662.606	1	-2
662.776	1	-5
662.945	1	-8
663.115	1	4
663.284	1	1
663.453	1	12
663.623	1	-8
663.792	1	-12
663.962	1	-8
664.131	1	4
664.300	1	3
664.470	1	-2
664.639	1	-2
664.809	1	-2
664.978	1	12
665.148	1	4
665.317	1	2
665.486	1	-2
665.656	1	14
665.825	1	-3
665.995	1	-4
666.164	1	-7
666.333	1	10
666.503	1	-1
666.672	1	-1
666.842	1	4
667.011	1	18
667.180	1	5
667.350	1	-8
667.519	1	-6
667.689	1	-11
667.858	1	-2
668.027	1	7
668.197	1	9
668.366	1	0
668.536	1	7
668.705	1	1
668.874	1	5
669.044	1	-7
669.213	1	6
669.382	1	1
669.552	1	-8
669.721	1	-6
669.891	1	6
670.060	1	0
670.229	1	2
670.399	1	6
670.568	1	-7
670.738	1	0
670.907	1	4
671.076	1	3
671.246	1	-5
671.415	1	1
671.584	1	-3
671.754	1	0
671.923	1	1
672.093	1	0
672.262	1	4
672.431	1	2
672.601	1	1
672.770	1	-8
672.939	1	-1
673.109	1	-4
673.278	1	10
673.448	1	-2
673.617	1	-4
673.786	1	-3
