325.333	1	18
325.504	1	6
325.675	1	4
325.846	1	8
326.017	1	7
326.188	1	16
326.359	1	16
326.531	1	6
326.702	1	9
326.873	1	-2
327.044	1	7
327.215	1	23
327.386	1	7
327.557	1	8
327.728	1	7
327.899	1	11
328.070	1	13
328.241	1	-4
328.412	1	4
328.583	1	11
328.754	1	3
328.926	1	8
329.097	1	7
329.268	1	15
329.439	1	0
329.610	1	12
329.781	1	5
329.952	1	1
330.123	1	7
330.294	1	6
330.465	1	16
330.636	1	17
330.807	1	0
330.978	1	9
331.149	1	7
331.320	1	12
331.492	1	0
331.663	1	4
331.834	1	4
332.005	1	12
332.176	1	-2
332.347	1	18
332.518	1	5
332.689	1	6
332.860	1	-5
333.031	1	10
333.202	1	7
333.373	1	-1
333.544	1	8
333.715	1	-2
333.886	1	4
334.057	1	6
334.228	1	-15
334.399	1	3
334.570	1	-3
334.741	1	14
334.912	1	-3
335.084	1	0
335.255	1	4
335.426	1	-2
335.597	1	7
335.768	1	2
335.939	1	0
336.110	1	-1
336.281	1	6
336.452	1	3
336.623	1	9
336.794	1	1
336.965	1	1
337.136	1	4
337.307	1	14
337.478	1	-3
337.649	1	13
337.820	1	10
337.991	1	5
338.162	1	9
338.333	1	10
338.504	1	10
338.675	1	-2
338.846	1	15
339.017	1	5
339.188	1	7
339.359	1	5
339.530	1	2
339.701	1	1
339.872	1	4
340.043	1	1
340.214	1	-5
340.385	1	2
340.556	1	-2
340.727	1	13
340.898	1	6
341.069	1	-1
341.240	1	-5
341.411	1	6
341.582	1	3
341.753	1	1
341.924	1	2
342.095	1	1
342.266	1	1
342.437	1	3
342.608	1	-7
342.779	1	10
342.950	1	1
343.121	1	9
343.292	1	11
343.463	1	5
343.634	1	5
343.805	1	11
343.976	1	1
344.147	1	2
344.318	1	10
344.489	1	6
344.660	1	0
344.831	1	0
345.002	1	6
345.173	1	1
345.344	1	9
345.515	1	-1
345.686	1	10
345.857	1	2
346.028	1	9
346.199	1	15
346.370	1	3
346.541	1	1
346.712	1	13
346.883	1	-2
347.054	1	-3
347.225	1	-6
347.396	1	-3
347.567	1	9
347.738	1	-1
347.909	1	8
348.080	1	3
348.251	1	-4
348.422	1	-6
348.593	1	2
348.764	1	3
348.935	1	0
349.106	1	-5
349.277	1	-1
349.448	1	-2
349.619	1	2
349.790	1	13
349.961	1	10
350.132	1	4
350.303	1	6
350.474	1	4
350.645	1	3
350.816	1	-8
350.987	1	1
351.157	1	-4
351.328	1	-14
351.499	1	2
351.670	1	6
351.841	1	10
352.012	1	6
352.183	1	-7
352.354	1	20
352.525	1	-4
352.696	1	6
352.867	1	-4
353.038	1	13
353.209	1	-1
353.380	1	-1
353.551	1	-4
353.722	1	0
353.893	1	-4
354.064	1	-3
354.235	1	4
354.406	1	7
354.576	1	3
354.747	1	6
354.918	1	0
355.089	1	-6
355.260	1	6
355.431	1	1
355.602	1	0
355.773	1	-11
355.944	1	-5
356.115	1	-1
356.286	1	-4
356.457	1	8
356.628	1	-1
356.799	1	-5
356.970	1	3
357.141	1	0
357.311	1	0
357.482	1	-3
357.653	1	-6
357.824	1	1
357.995	1	-2
358.166	1	-6
358.337	1	-2
358.508	1	4
358.679	1	-1
358.850	1	2
359.021	1	1
359.192	1	-5
359.363	1	5
359.533	1	6
359.704	1	5
359.875	1	-6
360.046	1	2
360.217	1	-4
360.388	1	-1
360.559	1	-4
360.730	1	8
360.901	1	7
361.072	1	-2
361.243	1	6
361.414	1	-5
361.584	1	-1
361.755	1	4
361.926	1	-4
362.097	1	9
362.268	1	2
362.439	1	8
362.610	1	5
362.781	1	1
362.952	1	-1
363.123	1	-6
363.293	1	3
363.464	1	-9
363.635	1	7
363.806	1	-3
363.977	1	2
364.148	1	-7
364.319	1	4
364.490	1	-4
364.661	1	1
364.832	1	6
365.002	1	-3
365.173	1	-5
365.344	1	2
365.515	1	-4
365.686	1	-6
365.857	1	6
366.028	1	-2
366.199	1	-6
366.370	1	5
366.540	1	5
366.711	1	3
366.882	1	-1
367.053	1	5
367.224	1	-3
367.395	1	-2
367.566	1	-1
367.737	1	2
367.908	1	5
368.078	1	2
368.249	1	-3
368.420	1	10
368.591	1	-5
368.762	1	-6
368.933	1	-11
369.104	1	5
369.274	1	-2
369.445	1	-3
369.616	1	-8
369.787	1	3
369.958	1	-7
370.129	1	-2
370.300	1	2
370.471	1	4
370.641	1	-8
370.812	1	-3
370.983	1	-2
371.154	1	-3
371.325	1	-7
371.496	1	-4
371.667	1	-2
371.837	1	2
372.008	1	-4
372.179	1	4
372.350	1	-7
372.521	1	16
372.692	1	-3
372.863	1	4
373.033	1	3
373.204	1	1
373.375	1	-2
373.546	1	3
373.717	1	-12
373.888	1	-4
374.059	1	0
374.229	1	-1
374.400	1	-1
374.571	1	-4
374.742	1	3
374.913	1	3
375.084	1	5
375.254	1	3
375.425	1	-3
375.596	1	4
375.767	1	2
375.938	1	-1
376.109	1	-7
376.279	1	5
376.450	1	5
376.621	1	-4
376.792	1	-1
376.963	1	8
377.134	1	-11
377.304	1	10
377.475	1	0
377.646	1	10
377.817	1	-9
377.988	1	6
378.159	1	1
378.329	1	10
378.500	1	-1
378.671	1	-7
378.842	1	-4
379.013	1	-7
379.184	1	-9
379.354	1	10
379.525	1	1
379.696	1	-3
379.867	1	-4
380.038	1	0
380.209	1	-6
380.379	1	-13
380.550	1	-1
380.721	1	-11
380.892	1	6
381.063	1	5
381.233	1	-5
381.404	1	6
381.575	1	1
381.746	1	-6
381.917	1	9
382.087	1	-1
382.258	1	-10
382.429	1	7
382.600	1	-4
382.771	1	-5
382.941	1	6
383.112	1	-2
383.283	1	6
383.454	1	9
383.625	1	12
383.795	1	-4
383.966	1	3
384.137	1	5
384.308	1	5
384.479	1	10
384.649	1	-11
384.820	1	0
384.991	1	-9
385.162	1	-2
385.333	1	1
385.503	1	-4
385.674	1	8
385.845	1	4
386.016	1	5
386.187	1	-7
386.357	1	3
386.528	1	4
386.699	1	-1
386.870	1	2
387.041	1	-4
387.211	1	0
387.382	1	4
387.553	1	5
387.724	1	4
387.894	1	5
388.065	1	0
388.236	1	3
388.407	1	12
388.578	1	0
388.748	1	-3
388.919	1	-5
389.090	1	7
389.261	1	-2
389.431	1	-5
389.602	1	9
389.773	1	-2
389.944	1	-5
390.114	1	2
390.285	1	-6
390.456	1	4
390.627	1	7
390.798	1	-4
390.968	1	-12
391.139	1	10
391.310	1	4
391.481	1	-12
391.651	1	3
391.822	1	4
391.993	1	-8
392.164	1	-3
392.334	1	1
392.505	1	-4
392.676	1	0
392.847	1	3
393.017	1	0
393.188	1	-2
393.359	1	2
393.530	1	7
393.700	1	3
393.871	1	-4
394.042	1	-5
394.213	1	-2
394.383	1	7
394.554	1	-5
394.725	1	-1
394.896	1	1
395.066	1	-10
395.237	1	-7
395.408	1	4
395.579	1	0
395.749	1	-2
395.920	1	3
396.091	1	10
396.262	1	-7
396.432	1	-10
396.603	1	14
396.774	1	-4
396.945	1	-6
397.115	1	-6
397.286	1	-1
397.457	1	1
397.627	1	-2
397.798	1	-2
397.969	1	0
398.140	1	17
398.310	1	9
398.481	1	-8
398.652	1	-1
398.823	1	-3
398.993	1	14
399.164	1	10
399.335	1	2
399.505	1	10
399.676	1	9
399.847	1	7
400.018	1	-5
400.188	1	0
400.359	1	4
400.530	1	0
400.700	1	14
400.871	1	9
401.042	1	-1
401.213	1	0
401.383	1	9
401.554	1	3
401.725	1	12
401.895	1	6
402.066	1	5
402.237	1	5
402.408	1	-9
402.578	1	-1
402.749	1	6
402.920	1	12
403.090	1	-2
403.261	1	5
403.432	1	-3
403.603	1	1
403.773	1	16
403.944	1	-2
404.115	1	2
404.285	1	0
404.456	1	17
404.627	1	6
404.797	1	6
404.968	1	-1
405.139	1	2
405.310	1	8
405.480	1	6
405.651	1	10
405.822	1	-2
405.992	1	-4
406.163	1	0
406.334	1	-4
406.504	1	3
406.675	1	11
406.846	1	3
407.016	1	12
407.187	1	-15
407.358	1	8
407.528	1	-3
407.699	1	3
407.870	1	1
408.041	1	0
408.211	1	-7
408.382	1	5
408.553	1	-3
408.723	1	8
408.894	1	4
409.065	1	8
409.235	1	4
409.406	1	6
409.577	1	3
409.747	1	4
409.918	1	18
410.089	1	9
410.259	1	8
410.430	1	4
410.601	1	2
410.771	1	1
410.942	1	14
411.113	1	8
411.283	1	7
411.454	1	-6
411.625	1	4
411.795	1	7
411.966	1	4
412.137	1	3
412.307	1	9
412.478	1	5
412.649	1	1
412.819	1	1
412.990	1	-7
413.161	1	-11
413.331	1	6
413.502	1	6
413.672	1	8
413.843	1	9
414.014	1	-2
414.184	1	10
414.355	1	1
414.526	1	-1
414.696	1	11
414.867	1	-2
415.038	1	15
415.208	1	11
415.379	1	16
415.550	1	12
415.720	1	4
415.891	1	6
416.062	1	1
416.232	1	-1
416.403	1	14
416.573	1	2
416.744	1	-1
416.915	1	16
417.085	1	13
417.256	1	7
417.427	1	12
417.597	1	10
417.768	1	11
417.939	1	388
418.109	1	189
418.280	1	141
418.450	1	58
418.621	1	23
418.792	1	-4
418.962	1	16
419.133	1	16
419.304	1	9
419.474	1	18
419.645	1	12
419.815	1	7
419.986	1	6
420.157	1	22
420.327	1	12
420.498	1	-3
420.669	1	11
420.839	1	4
421.010	1	2
421.180	1	1
421.351	1	15
421.522	1	5
421.692	1	8
421.863	1	6
422.033	1	7
422.204	1	10
422.375	1	11
422.545	1	15
422.716	1	13
422.886	1	6
423.057	1	16
423.228	1	17
423.398	1	7
423.569	1	5
423.740	1	5
423.910	1	12
424.081	1	9
424.251	1	4
424.422	1	10
424.593	1	9
424.763	1	-5
424.934	1	15
425.104	1	18
425.275	1	9
425.445	1	-6
425.616	1	1
425.787	1	13
425.957	1	10
426.128	1	5
426.298	1	12
426.469	1	3
426.640	1	4
426.810	1	12
426.981	1	8
427.151	1	12
427.322	1	7
427.493	1	13
427.663	1	23
427.834	1	24
428.004	1	1
428.175	1	14
428.345	1	5
428.516	1	5
428.687	1	12
428.857	1	22
429.028	1	10
429.198	1	21
429.369	1	15
429.540	1	11
429.710	1	10
429.881	1	2
430.051	1	16
430.222	1	8
430.392	1	10
430.563	1	20
430.734	1	18
430.904	1	13
431.075	1	25
431.245	1	11
431.416	1	12
431.586	1	5
431.757	1	10
431.927	1	16
432.098	1	19
432.269	1	10
432.439	1	15
432.610	1	12
432.780	1	17
432.951	1	13
433.121	1	12
433.292	1	0
433.462	1	5
433.633	1	10
433.804	1	18
433.974	1	4
434.145	1	11
434.315	1	17
434.486	1	17
434.656	1	14
434.827	1	0
434.997	1	10
435.168	1	12
435.339	1	8
435.509	1	16
435.680	1	10
435.850	1	12
436.021	1	11
436.191	1	17
436.362	1	9
436.532	1	28
436.703	1	14
436.873	1	11
437.044	1	15
437.214	1	3
437.385	1	13
437.556	1	7
437.726	1	10
437.897	1	-1
438.067	1	16
438.238	1	16
438.408	1	25
438.579	1	9
438.749	1	9
438.920	1	16
439.090	1	7
439.261	1	11
439.431	1	22
439.602	1	15
439.772	1	18
439.943	1	9
440.113	1	23
440.284	1	4
440.455	1	25
440.625	1	2
440.796	1	9
440.966	1	16
441.137	1	23
441.307	1	19
441.478	1	19
441.648	1	8
441.819	1	13
441.989	1	15
442.160	1	9
442.330	1	7
442.501	1	14
442.671	1	17
442.842	1	5
443.012	1	7
443.183	1	22
443.353	1	8
443.524	1	9
443.694	1	19
443.865	1	8
444.035	1	11
444.206	1	14
444.376	1	20
444.547	1	10
444.717	1	15
444.888	1	22
445.058	1	20
445.229	1	11
445.399	1	14
445.570	1	26
445.740	1	21
445.911	1	7
446.081	1	34
446.252	1	19
446.422	1	19
446.593	1	7
446.763	1	13
446.934	1	17
447.104	1	5
447.275	1	12
447.445	1	18
447.616	1	21
447.786	1	13
447.957	1	23
448.127	1	11
448.298	1	11
448.468	1	23
448.639	1	20
448.809	1	18
448.979	1	17
449.150	1	14
449.320	1	17
449.491	1	33
449.661	1	13
449.832	1	17
450.002	1	18
450.173	1	15
450.343	1	13
450.514	1	21
450.684	1	19
450.855	1	17
451.025	1	28
451.196	1	12
451.366	1	15
451.537	1	14
451.707	1	6
451.878	1	4
452.048	1	17
452.218	1	22
452.389	1	10
452.559	1	11
452.730	1	15
452.900	1	23
453.071	1	11
453.241	1	5
453.412	1	23
453.582	1	14
453.753	1	13
453.923	1	13
454.093	1	24
454.264	1	24
454.434	1	16
454.605	1	11
454.775	1	17
454.946	1	19
455.116	1	13
455.287	1	17
455.457	1	25
455.628	1	13
455.798	1	21
455.968	1	25
456.139	1	22
456.309	1	28
456.480	1	13
456.650	1	18
456.821	1	24
456.991	1	3
457.161	1	18
457.332	1	23
457.502	1	13
457.673	1	17
457.843	1	32
458.014	1	15
458.184	1	27
458.355	1	13
458.525	1	11
458.695	1	26
458.866	1	15
459.036	1	16
459.207	1	15
459.377	1	20
459.548	1	20
459.718	1	16
459.888	1	10
460.059	1	12
460.229	1	5
460.400	1	6
460.570	1	13
460.740	1	13
460.911	1	8
461.081	1	33
461.252	1	15
461.422	1	19
461.593	1	7
461.763	1	22
461.933	1	13
462.104	1	16
462.274	1	10
462.445	1	21
462.615	1	9
462.785	1	16
462.956	1	8
463.126	1	17
463.297	1	20
463.467	1	19
463.638	1	10
463.808	1	14
463.978	1	13
464.149	1	13
464.319	1	-1
464.490	1	17
464.660	1	7
464.830	1	34
465.001	1	11
465.171	1	11
465.342	1	19
465.512	1	10
465.682	1	14
465.853	1	11
466.023	1	3
466.194	1	8
466.364	1	4
466.534	1	13
466.705	1	26
466.875	1	13
467.045	1	4
467.216	1	0
467.386	1	20
467.557	1	5
467.727	1	17
467.897	1	13
468.068	1	13
468.238	1	3
468.409	1	12
468.579	1	16
468.749	1	23
468.920	1	17
469.090	1	-1
469.260	1	13
469.431	1	21
469.601	1	24
469.772	1	14
469.942	1	17
470.112	1	8
470.283	1	5
470.453	1	14
470.623	1	20
470.794	1	6
470.964	1	22
471.135	1	18
471.305	1	12
471.475	1	17
471.646	1	7
471.816	1	21
471.986	1	17
472.157	1	10
472.327	1	15
472.497	1	11
472.668	1	18
472.838	1	19
473.009	1	17
473.179	1	14
473.349	1	10
473.520	1	5
473.690	1	22
473.860	1	8
474.031	1	17
474.201	1	1
474.371	1	16
474.542	1	13
474.712	1	12
474.882	1	19
475.053	1	10
475.223	1	1
475.394	1	12
475.564	1	-2
475.734	1	15
475.905	1	7
476.075	1	21
476.245	1	11
476.416	1	15
476.586	1	-2
476.756	1	20
476.927	1	19
477.097	1	20
477.267	1	8
477.438	1	11
477.608	1	10
477.778	1	5
477.949	1	14
478.119	1	16
478.289	1	9
478.460	1	5
478.630	1	8
478.800	1	17
478.971	1	6
479.141	1	13
479.311	1	23
479.482	1	10
479.652	1	10
479.822	1	9
479.993	1	2
480.163	1	30
480.333	1	12
480.504	1	14
480.674	1	14
480.844	1	6
481.015	1	11
481.185	1	20
481.355	1	7
481.525	1	12
481.696	1	19
481.866	1	14
482.036	1	15
482.207	1	3
482.377	1	7
482.547	1	15
482.718	1	14
482.888	1	5
483.058	1	2
483.229	1	17
483.399	1	12
483.569	1	8
483.740	1	9
483.910	1	13
484.080	1	11
484.250	1	4
484.421	1	15
484.591	1	13
484.761	1	15
484.932	1	16
485.102	1	23
485.272	1	6
485.443	1	7
485.613	1	16
485.783	1	14
485.953	1	14
486.124	1	9
486.294	1	13
486.464	1	9
486.635	1	12
486.805	1	14
486.975	1	18
487.146	1	9
487.316	1	7
487.486	1	1
487.656	1	15
487.827	1	2
487.997	1	19
488.167	1	3
488.338	1	16
488.508	1	10
488.678	1	8
488.848	1	11
489.019	1	18
489.189	1	9
489.359	1	10
489.529	1	7
489.700	1	6
489.870	1	10
490.040	1	6
490.211	1	17
490.381	1	16
490.551	1	1
490.721	1	6
490.892	1	14
491.062	1	10
491.232	1	14
491.402	1	-1
491.573	1	10
491.743	1	9
491.913	1	12
492.084	1	11
492.254	1	11
492.424	1	14
492.594	1	12
492.765	1	7
492.935	1	1
493.105	1	16
493.275	1	8
493.446	1	8
493.616	1	8
493.786	1	4
493.956	1	4
494.127	1	12
494.297	1	3
494.467	1	10
494.637	1	9
494.808	1	6
494.978	1	-1
495.148	1	6
495.318	1	0
495.489	1	1
495.659	1	12
495.829	1	4
495.999	1	17
496.170	1	2
496.340	1	12
496.510	1	12
496.680	1	10
496.851	1	6
497.021	1	11
497.191	1	6
497.361	1	3
497.532	1	7
497.702	1	17
497.872	1	9
498.042	1	3
498.213	1	4
498.383	1	5
498.553	1	4
498.723	1	16
498.894	1	2
499.064	1	-3
499.234	1	2
499.404	1	9
499.574	1	11
499.745	1	9
499.915	1	10
500.085	1	2
500.255	1	13
500.426	1	6
500.596	1	17
500.766	1	0
500.936	1	10
501.106	1	0
501.277	1	13
501.447	1	4
501.617	1	16
501.787	1	-4
501.958	1	17
502.128	1	9
502.298	1	-2
502.468	1	10
502.638	1	10
502.809	1	3
502.979	1	10
503.149	1	14
503.319	1	1
503.489	1	8
503.660	1	7
503.830	1	9
504.000	1	-1
504.170	1	13
504.340	1	4
504.511	1	13
504.681	1	2
504.851	1	17
505.021	1	-1
505.192	1	14
505.362	1	11
505.532	1	5
505.702	1	9
505.872	1	8
506.043	1	5
506.213	1	16
506.383	1	9
506.553	1	12
506.723	1	9
506.893	1	4
507.064	1	9
507.234	1	4
507.404	1	1
507.574	1	1
507.744	1	10
507.915	1	11
508.085	1	12
508.255	1	11
508.425	1	-3
508.595	1	18
508.766	1	7
508.936	1	1
509.106	1	3
509.276	1	8
509.446	1	7
509.616	1	0
509.787	1	18
509.957	1	-4
510.127	1	8
510.297	1	-5
510.467	1	11
510.638	1	3
510.808	1	6
510.978	1	9
511.148	1	1
511.318	1	3
511.488	1	15
511.659	1	3
511.829	1	6
511.999	1	11
512.169	1	8
512.339	1	2
512.509	1	15
512.680	1	4
512.850	1	12
513.020	1	8
513.190	1	5
513.360	1	1
513.530	1	3
513.700	1	7
513.871	1	1
514.041	1	-1
514.211	1	10
514.381	1	2
514.551	1	-12
514.721	1	9
514.892	1	6
515.062	1	4
515.232	1	1
515.402	1	4
515.572	1	-2
515.742	1	1
515.912	1	2
516.083	1	11
516.253	1	5
516.423	1	1
516.593	1	14
516.763	1	8
516.933	1	3
517.104	1	3
517.274	1	-3
517.444	1	4
517.614	1	2
517.784	1	-2
517.954	1	-5
518.124	1	9
518.294	1	2
518.465	1	6
518.635	1	3
518.805	1	15
518.975	1	-1
519.145	1	10
519.315	1	-2
519.485	1	7
519.656	1	2
519.826	1	-5
519.996	1	-1
520.166	1	4
520.336	1	5
520.506	1	-2
520.676	1	3
520.846	1	0
521.017	1	11
521.187	1	15
521.357	1	7
521.527	1	1
521.697	1	5
521.867	1	-4
522.037	1	-3
522.207	1	14
522.377	1	1
522.548	1	6
522.718	1	4
522.888	1	12
523.058	1	11
523.228	1	-4
523.398	1	2
523.568	1	5
523.738	1	10
523.909	1	9
524.079	1	12
524.249	1	0
524.419	1	-9
524.589	1	2
524.759	1	-3
524.929	1	8
525.099	1	-2
525.269	1	3
525.439	1	-1
525.610	1	22
525.780	1	-4
525.950	1	15
526.120	1	1
526.290	1	6
526.460	1	6
526.630	1	14
526.800	1	10
526.970	1	-3
527.140	1	-6
527.311	1	5
527.481	1	-6
527.651	1	20
527.821	1	-6
527.991	1	5
528.161	1	6
528.331	1	5
528.501	1	-7
528.671	1	1
528.841	1	-4
529.011	1	3
529.181	1	10
529.352	1	5
529.522	1	2
529.692	1	9
529.862	1	4
530.032	1	3
530.202	1	-7
530.372	1	0
530.542	1	-6
530.712	1	-5
530.882	1	1
531.052	1	7
531.222	1	15
531.392	1	0
531.563	1	3
531.733	1	-1
531.903	1	8
532.073	1	-1
532.243	1	8
532.413	1	5
532.583	1	16
532.753	1	20
532.923	1	-8
533.093	1	8
533.263	1	16
533.433	1	8
533.603	1	8
533.773	1	6
533.943	1	8
534.113	1	5
534.284	1	5
534.454	1	9
534.624	1	8
534.794	1	1
534.964	1	13
535.134	1	4
535.304	1	1
535.474	1	4
535.644	1	-11
535.814	1	2
535.984	1	5
536.154	1	5
536.324	1	8
536.494	1	2
536.664	1	5
536.834	1	2
537.004	1	6
537.174	1	8
537.344	1	12
537.514	1	-3
537.685	1	5
537.855	1	6
538.025	1	13
538.195	1	11
538.365	1	-8
538.535	1	-6
538.705	1	0
538.875	1	4
539.045	1	-6
539.215	1	7
539.385	1	0
539.555	1	15
539.725	1	-6
539.895	1	2
540.065	1	-1
540.235	1	-3
540.405	1	-2
540.575	1	11
540.745	1	9
540.915	1	4
541.085	1	9
541.255	1	5
541.425	1	11
541.595	1	-2
541.765	1	-2
541.935	1	8
542.105	1	5
542.275	1	7
542.445	1	2
542.615	1	4
542.785	1	1
542.955	1	10
543.125	1	-3
543.295	1	-10
543.465	1	0
543.635	1	2
543.805	1	2
543.975	1	5
544.145	1	1
544.315	1	-5
544.485	1	4
544.655	1	8
544.825	1	5
544.995	1	16
545.165	1	1
545.335	1	0
545.505	1	8
545.675	1	8
545.845	1	2
546.015	1	-2
546.185	1	-2
546.355	1	18
546.525	1	-2
546.695	1	3
546.865	1	-3
547.035	1	1
547.205	1	11
547.375	1	7
547.545	1	11
547.715	1	-2
547.885	1	-3
548.055	1	1
548.225	1	13
548.395	1	2
548.565	1	3
548.735	1	6
548.905	1	12
549.075	1	1
549.245	1	-2
549.415	1	4
549.585	1	6
549.755	1	6
549.925	1	7
550.095	1	9
550.265	1	3
550.435	1	2
550.605	1	7
550.775	1	8
550.945	1	-1
551.115	1	-6
551.285	1	5
551.455	1	2
551.625	1	2
551.795	1	-6
551.965	1	-4
552.135	1	11
552.305	1	14
552.475	1	7
552.645	1	3
552.815	1	-5
552.985	1	13
553.155	1	4
553.325	1	0
553.495	1	7
553.665	1	4
553.835	1	2
554.004	1	1
554.174	1	1
554.344	1	-5
554.514	1	-6
554.684	1	-3
554.854	1	9
555.024	1	4
555.194	1	3
555.364	1	0
555.534	1	19
555.704	1	6
555.874	1	1
556.044	1	2
556.214	1	11
556.384	1	6
556.554	1	6
556.724	1	4
556.894	1	-5
557.064	1	8
557.234	1	3
557.404	1	-2
557.573	1	5
557.743	1	9
557.913	1	2
558.083	1	-9
558.253	1	9
558.423	1	4
558.593	1	9
558.763	1	6
558.933	1	13
559.103	1	-1
559.273	1	16
559.443	1	-2
559.613	1	4
559.783	1	-3
559.953	1	-3
560.122	1	-2
560.292	1	1
560.462	1	-2
560.632	1	6
560.802	1	13
560.972	1	2
561.142	1	6
561.312	1	2
561.482	1	-7
561.652	1	-3
561.822	1	0
561.992	1	1
562.162	1	-3
562.331	1	13
562.501	1	7
562.671	1	4
562.841	1	-3
563.011	1	7
563.181	1	6
563.351	1	4
563.521	1	-9
563.691	1	5
563.861	1	8
564.031	1	4
564.201	1	3
564.370	1	3
564.540	1	4
564.710	1	-5
564.880	1	4
565.050	1	1
565.220	1	11
565.390	1	5
565.560	1	3
565.730	1	7
565.900	1	-3
566.069	1	-9
566.239	1	6
566.409	1	-1
566.579	1	-8
566.749	1	-6
566.919	1	5
567.089	1	5
567.259	1	5
567.429	1	16
567.599	1	15
567.768	1	5
567.938	1	1
568.108	1	-1
568.278	1	9
568.448	1	13
568.618	1	4
568.788	1	1
568.958	1	4
569.128	1	14
569.297	1	16
569.467	1	7
569.637	1	1
569.807	1	11
569.977	1	-7
570.147	1	10
570.317	1	3
570.487	1	7
570.656	1	8
570.826	1	3
570.996	1	0
571.166	1	1
571.336	1	2
571.506	1	3
571.676	1	0
571.846	1	2
572.015	1	1
572.185	1	1
572.355	1	12
572.525	1	4
572.695	1	0
572.865	1	11
573.035	1	-2
573.205	1	0
573.374	1	1
573.544	1	-1
573.714	1	3
573.884	1	-5
574.054	1	16
574.224	1	3
574.394	1	-1
574.563	1	6
574.733	1	-2
574.903	1	-4
575.073	1	-2
575.243	1	9
575.413	1	-5
575.583	1	7
575.752	1	3
575.922	1	7
576.092	1	6
576.262	1	2
576.432	1	4
576.602	1	13
576.772	1	-9
576.941	1	-2
577.111	1	10
577.281	1	15
577.451	1	3
577.621	1	12
577.791	1	8
577.960	1	5
578.130	1	-8
578.300	1	0
578.470	1	7
578.640	1	16
578.810	1	-3
578.979	1	0
579.149	1	4
579.319	1	9
579.489	1	4
579.659	1	-9
579.829	1	4
579.998	1	3
580.168	1	-5
580.338	1	8
580.508	1	12
580.678	1	1
580.848	1	4
581.017	1	2
581.187	1	6
581.357	1	-5
581.527	1	-11
581.697	1	-5
581.867	1	2
582.036	1	-6
582.206	1	6
582.376	1	-2
582.546	1	5
582.716	1	5
582.885	1	8
583.055	1	2
583.225	1	1
583.395	1	1
583.565	1	2
583.735	1	17
583.904	1	0
584.074	1	0
584.244	1	5
584.414	1	11
584.584	1	9
584.753	1	-6
584.923	1	-9
585.093	1	9
585.263	1	6
585.433	1	2
585.602	1	11
585.772	1	8
585.942	1	4
586.112	1	-7
586.282	1	4
586.451	1	8
586.621	1	9
586.791	1	10
586.961	1	2
587.131	1	5
587.300	1	9
587.470	1	-12
587.640	1	-8
587.810	1	2
587.980	1	2
588.149	1	9
588.319	1	-7
588.489	1	-4
588.659	1	2
588.829	1	11
588.998	1	10
589.168	1	-2
589.338	1	-8
589.508	1	-2
589.677	1	7
589.847	1	3
590.017	1	-2
590.187	1	2
590.357	1	5
590.526	1	5
590.696	1	0
590.866	1	-6
591.036	1	6
591.205	1	0
591.375	1	-3
591.545	1	9
591.715	1	-10
591.885	1	-1
592.054	1	0
592.224	1	0
592.394	1	-2
592.564	1	6
592.733	1	4
592.903	1	15
593.073	1	8
593.243	1	7
593.412	1	5
593.582	1	1
593.752	1	4
593.922	1	11
594.091	1	3
594.261	1	-2
594.431	1	0
594.601	1	4
594.771	1	-12
594.940	1	6
595.110	1	13
595.280	1	10
595.450	1	14
595.619	1	5
595.789	1	1
595.959	1	4
596.129	1	15
596.298	1	6
596.468	1	8
596.638	1	6
596.808	1	12
596.977	1	2
597.147	1	-2
597.317	1	8
597.487	1	11
597.656	1	-8
597.826	1	16
597.996	1	2
598.166	1	4
598.335	1	8
598.505	1	13
598.675	1	4
598.844	1	8
599.014	1	1
599.184	1	1
599.354	1	20
599.523	1	7
599.693	1	6
599.863	1	0
600.033	1	7
600.202	1	7
600.372	1	-1
600.542	1	15
600.712	1	1
600.881	1	16
601.051	1	5
601.221	1	7
601.390	1	1
601.560	1	-7
601.730	1	1
601.900	1	-3
602.069	1	3
602.239	1	8
602.409	1	-2
602.578	1	6
602.748	1	9
602.918	1	5
603.088	1	11
603.257	1	12
603.427	1	7
603.597	1	1
603.767	1	7
603.936	1	5
604.106	1	20
604.276	1	10
604.445	1	-8
604.615	1	8
604.785	1	15
604.954	1	3
605.124	1	14
605.294	1	10
605.464	1	17
605.633	1	7
605.803	1	1
605.973	1	-1
606.142	1	4
606.312	1	8
606.482	1	-11
606.652	1	14
606.821	1	10
606.991	1	0
607.161	1	13
607.330	1	8
607.500	1	11
607.670	1	7
607.839	1	12
608.009	1	6
608.179	1	-6
608.348	1	7
608.518	1	13
608.688	1	-5
608.858	1	10
609.027	1	21
609.197	1	2
609.367	1	2
609.536	1	10
609.706	1	18
609.876	1	7
610.045	1	14
610.215	1	21
610.385	1	12
610.554	1	13
610.724	1	10
610.894	1	6
611.063	1	12
611.233	1	4
611.403	1	8
611.572	1	12
611.742	1	10
611.912	1	-2
612.081	1	11
612.251	1	10
612.421	1	11
612.590	1	-1
612.760	1	13
612.930	1	7
613.099	1	14
613.269	1	4
613.439	1	18
613.608	1	11
613.778	1	20
613.948	1	7
614.117	1	5
614.287	1	-2
614.457	1	2
614.626	1	11
614.796	1	10
614.966	1	12
615.135	1	19
615.305	1	18
615.475	1	11
615.644	1	7
615.814	1	4
615.984	1	3
616.153	1	12
616.323	1	2
616.493	1	7
616.662	1	16
616.832	1	12
617.002	1	14
617.171	1	11
617.341	1	12
617.511	1	5
617.680	1	2
617.850	1	10
618.019	1	7
618.189	1	12
618.359	1	8
618.528	1	14
618.698	1	9
618.868	1	8
619.037	1	2
619.207	1	7
619.377	1	7
619.546	1	-1
619.716	1	10
619.885	1	12
620.055	1	11
620.225	1	8
620.394	1	8
620.564	1	25
620.734	1	11
620.903	1	18
621.073	1	8
621.242	1	21
621.412	1	8
621.582	1	14
621.751	1	1
621.921	1	9
622.091	1	10
622.260	1	6
622.430	1	8
622.599	1	9
622.769	1	12
622.939	1	8
623.108	1	6
623.278	1	2
623.448	1	17
623.617	1	8
623.787	1	17
623.956	1	1
624.126	1	16
624.296	1	-4
624.465	1	13
624.635	1	3
624.804	1	12
624.974	1	12
625.144	1	13
625.313	1	3
625.483	1	16
625.652	1	17
625.822	1	22
625.992	1	17
626.161	1	7
626.331	1	21
626.501	1	2
626.670	1	9
626.840	1	7
627.009	1	10
627.179	1	21
627.348	1	16
627.518	1	0
627.688	1	11
627.857	1	6
628.027	1	14
628.196	1	12
628.366	1	22
628.536	1	21
628.705	1	16
628.875	1	3
629.044	1	1
629.214	1	13
629.384	1	-1
629.553	1	11
629.723	1	11
629.892	1	3
630.062	1	-3
630.232	1	20
630.401	1	8
630.571	1	11
630.740	1	19
630.910	1	9
631.079	1	8
631.249	1	9
631.419	1	-5
631.588	1	6
631.758	1	1
631.927	1	18
632.097	1	9
632.266	1	-1
632.436	1	21
632.606	1	13
632.775	1	9
632.945	1	-3
633.114	1	13
633.284	1	1
633.453	1	13
633.623	1	20
633.793	1	6
633.962	1	6
634.132	1	-7
634.301	1	5
634.471	1	1
634.640	1	4
634.810	1	14
634.979	1	7
635.149	1	12
635.319	1	6
635.488	1	9
635.658	1	2
635.827	1	6
635.997	1	19
636.166	1	9
636.336	1	3
636.505	1	8
636.675	1	10
636.845	1	4
637.014	1	7
637.184	1	2
637.353	1	15
637.523	1	10
637.692	1	6
637.862	1	12
638.031	1	14
638.201	1	5
638.370	1	14
638.540	1	4
638.710	1	5
638.879	1	-2
639.049	1	10
639.218	1	17
639.388	1	9
639.557	1	-6
639.727	1	10
639.896	1	9
640.066	1	2
640.235	1	0
640.405	1	19
640.574	1	18
640.744	1	5
640.914	1	9
641.083	1	21
641.253	1	9
641.422	1	4
641.592	1	5
641.761	1	5
641.931	1	6
642.100	1	13
642.270	1	9
642.439	1	17
642.609	1	10
642.778	1	7
642.948	1	4
643.117	1	0
643.287	1	2
643.456	1	4
643.626	1	7
643.795	1	12
643.965	1	0
644.134	1	15
644.304	1	-1
644.473	1	5
644.643	1	-1
644.812	1	16
644.982	1	-4
645.151	1	0
645.321	1	10
645.490	1	2
645.660	1	9
645.829	1	19
645.999	1	6
646.168	1	12
646.338	1	2
646.507	1	13
646.677	1	5
646.846	1	-1
647.016	1	8
647.185	1	4
647.355	1	8
647.524	1	6
647.694	1	6
647.863	1	5
648.033	1	8
648.202	1	12
648.372	1	6
648.541	1	7
648.711	1	7
648.880	1	9
649.050	1	11
649.219	1	8
649.389	1	12
649.558	1	11
649.728	1	-1
649.897	1	6
650.067	1	0
650.236	1	-1
650.406	1	4
650.575	1	7
650.745	1	7
650.914	1	18
651.084	1	4
651.253	1	14
651.423	1	9
651.592	1	3
651.762	1	9
651.931	1	15
652.101	1	14
652.270	1	-6
652.440	1	8
652.609	1	17
652.778	1	15
652.948	1	4
653.117	1	11
653.287	1	-4
653.456	1	0
653.626	1	3
653.795	1	5
653.965	1	19
654.134	1	6
654.304	1	4
654.473	1	8
654.643	1	5
654.812	1	14
654.982	1	9
655.151	1	4
655.320	1	11
655.490	1	-3
655.659	1	4
655.829	1	5
655.998	1	-5
656.168	1	1
656.337	1	-5
656.507	1	11
656.676	1	6
656.846	1	5
657.015	1	-4
657.184	1	6
657.354	1	-4
657.523	1	3
657.693	1	-1
657.862	1	7
658.032	1	11
658.201	1	3
658.371	1	6
658.540	1	0
658.709	1	7
658.879	1	9
659.048	1	8
659.218	1	-1
659.387	1	-5
659.557	1	3
659.726	1	3
659.895	1	-2
660.065	1	9
660.234	1	2
660.404	1	17
660.573	1	-3
660.743	1	2
660.912	1	1
661.081	1	-4
661.251	1	6
661.420	1	0
661.590	1	-3
661.759	1	2
661.929	1	8
662.098	1	9
662.267	1	0
662.437	1	9
662.606	1	1
662.776	1	-3
662.945	1	0
663.115	1	-1
663.284	1	-4
663.453	1	10
663.623	1	2
663.792	1	-8
663.962	1	8
664.131	1	-6
664.300	1	1
664.470	1	0
664.639	1	9
664.809	1	3
664.978	1	9
665.148	1	6
665.317	1	0
665.486	1	-14
665.656	1	11
665.825	1	1
665.995	1	-15
666.164	1	6
666.333	1	4
666.503	1	7
666.672	1	-10
666.842	1	-7
667.011	1	8
667.180	1	12
667.350	1	3
667.519	1	-12
667.689	1	2
667.858	1	-8
668.027	1	7
668.197	1	2
668.366	1	-8
668.536	1	5
668.705	1	-1
668.874	1	7
669.044	1	2
669.213	1	4
669.382	1	-2
669.552	1	1
669.721	1	-1
669.891	1	10
670.060	1	0
670.229	1	-2
670.399	1	4
670.568	1	-11
670.738	1	9
670.907	1	1
671.076	1	-1
671.246	1	11
671.415	1	5
671.584	1	1
671.754	1	-4
671.923	1	7
672.093	1	2
672.262	1	11
672.431	1	3
672.601	1	6
672.770	1	-2
672.939	1	5
673.109	1	-4
673.278	1	9
673.448	1	-5
673.617	1	6
673.786	1	-3
