325.333	1	7
325.504	1	9
325.675	1	6
325.846	1	10
326.017	1	3
326.188	1	13
326.359	1	22
326.531	1	-9
326.702	1	8
326.873	1	9
327.044	1	3
327.215	1	8
327.386	1	-9
327.557	1	10
327.728	1	12
327.899	1	2
328.070	1	15
328.241	1	9
328.412	1	5
328.583	1	9
328.754	1	7
328.926	1	-1
329.097	1	10
329.268	1	3
329.439	1	-1
329.610	1	-2
329.781	1	0
329.952	1	6
330.123	1	-2
330.294	1	6
330.465	1	4
330.636	1	4
330.807	1	1
330.978	1	5
331.149	1	4
331.320	1	-2
331.492	1	-3
331.663	1	9
331.834	1	1
332.005	1	3
332.176	1	0
332.347	1	6
332.518	1	-1
332.689	1	8
332.860	1	11
333.031	1	5
333.202	1	2
333.373	1	-1
333.544	1	-1
333.715	1	7
333.886	1	4
334.057	1	2
334.228	1	-3
334.399	1	9
334.570	1	-8
334.741	1	9
334.912	1	-4
335.084	1	1
335.255	1	-5
335.426	1	0
335.597	1	2
335.768	1	-5
335.939	1	3
336.110	1	-6
336.281	1	5
336.452	1	1
336.623	1	10
336.794	1	11
336.965	1	2
337.136	1	3
337.307	1	5
337.478	1	1
337.649	1	7
337.820	1	16
337.991	1	-3
338.162	1	2
338.333	1	4
338.504	1	5
338.675	1	-5
338.846	1	11
339.017	1	-1
339.188	1	3
339.359	1	2
339.530	1	10
339.701	1	-1
339.872	1	6
340.043	1	8
340.214	1	-4
340.385	1	-8
340.556	1	5
340.727	1	-3
340.898	1	7
341.069	1	-12
341.240	1	2
341.411	1	7
341.582	1	-5
341.753	1	-3
341.924	1	-3
342.095	1	-2
342.266	1	2
342.437	1	7
342.608	1	-2
342.779	1	1
342.950	1	5
343.121	1	14
343.292	1	4
343.463	1	10
343.634	1	6
343.805	1	7
343.976	1	-9
344.147	1	9
344.318	1	-3
344.489	1	-2
344.660	1	-2
344.831	1	6
345.002	1	-1
345.173	1	1
345.344	1	-5
345.515	1	1
345.686	1	7
345.857	1	7
346.028	1	-8
346.199	1	7
346.370	1	-6
346.541	1	6
346.712	1	2
346.883	1	1
347.054	1	2
347.225	1	-2
347.396	1	-12
347.567	1	13
347.738	1	1
347.909	1	18
348.080	1	6
348.251	1	0
348.422	1	2
348.593	1	6
348.764	1	7
348.935	1	-3
349.106	1	-3
349.277	1	-12
349.448	1	4
349.619	1	4
349.790	1	8
349.961	1	-1
350.132	1	4
350.303	1	2
350.474	1	-4
350.645	1	4
350.816	1	-2
350.987	1	5
351.157	1	-5
351.328	1	-7
351.499	1	1
351.670	1	6
351.841	1	10
352.012	1	0
352.183	1	-9
352.354	1	3
352.525	1	1
352.696	1	4
352.867	1	-15
353.038	1	7
353.209	1	-8
353.380	1	-8
353.551	1	-1
353.722	1	-13
353.893	1	6
354.064	1	-9
354.235	1	6
354.406	1	-1
354.576	1	3
354.747	1	6
354.918	1	9
355.089	1	-4
355.260	1	8
355.431	1	-1
355.602	1	-4
355.773	1	-14
355.944	1	1
356.115	1	-2
356.286	1	3
356.457	1	-1
356.628	1	4
356.799	1	-6
356.970	1	-7
357.141	1	-4
357.311	1	1
357.482	1	-6
357.653	1	-7
357.824	1	-5
357.995	1	6
358.166	1	-1
358.337	1	-5
358.508	1	7
358.679	1	-12
358.850	1	5
359.021	1	-5
359.192	1	-10
359.363	1	-3
359.533	1	13
359.704	1	2
359.875	1	-5
360.046	1	-3
360.217	1	4
360.388	1	-3
360.559	1	0
360.730	1	-6
360.901	1	-3
361.072	1	1
361.243	1	2
361.414	1	7
361.584	1	3
361.755	1	6
361.926	1	-4
362.097	1	5
362.268	1	3
362.439	1	-1
362.610	1	2
362.781	1	0
362.952	1	-2
363.123	1	0
363.293	1	-1
363.464	1	-8
363.635	1	1
363.806	1	-2
363.977	1	6
364.148	1	-3
364.319	1	-8
364.490	1	-3
364.661	1	-4
364.832	1	1
365.002	1	-2
365.173	1	-9
365.344	1	-3
365.515	1	0
365.686	1	-6
365.857	1	9
366.028	1	0
366.199	1	-7
366.370	1	-5
366.540	1	-4
366.711	1	-8
366.882	1	-3
367.053	1	-11
367.224	1	2
367.395	1	-2
367.566	1	2
367.737	1	3
367.908	1	-3
368.078	1	-7
368.249	1	7
368.420	1	6
368.591	1	0
368.762	1	-7
368.933	1	-9
369.104	1	-2
369.274	1	-7
369.445	1	-4
369.616	1	-5
369.787	1	7
369.958	1	-1
370.129	1	-9
370.300	1	-1
370.471	1	4
370.641	1	-4
370.812	1	-8
370.983	1	2
371.154	1	0
371.325	1	5
371.496	1	-6
371.667	1	4
371.837	1	-6
372.008	1	-11
372.179	1	-6
372.350	1	-7
372.521	1	2
372.692	1	0
372.863	1	5
373.033	1	1
373.204	1	-6
373.375	1	-5
373.546	1	2
373.717	1	-10
373.888	1	-1
374.059	1	2
374.229	1	0
374.400	1	4
374.571	1	-6
374.742	1	-7
374.913	1	-11
375.084	1	-3
375.254	1	-1
375.425	1	5
375.596	1	4
375.767	1	-14
375.938	1	-7
376.109	1	-5
376.279	1	-7
376.450	1	-4
376.621	1	-8
376.792	1	-6
376.963	1	6
377.134	1	1
377.304	1	7
377.475	1	-9
377.646	1	2
377.817	1	-6
377.988	1	2
378.159	1	-2
378.329	1	7
378.500	1	-15
378.671	1	-3
378.842	1	-12
379.013	1	-5
379.184	1	-3
379.354	1	5
379.525	1	-2
379.696	1	-5
379.867	1	-4
380.038	1	0
380.209	1	-10
380.379	1	-13
380.550	1	5
380.721	1	-15
380.892	1	-2
381.063	1	-2
381.233	1	3
381.404	1	16
381.575	1	1
381.746	1	-16
381.917	1	5
382.087	1	5
382.258	1	-12
382.429	1	8
382.600	1	5
382.771	1	0
382.941	1	0
383.112	1	8
383.283	1	1
383.454	1	-10
383.625	1	-8
383.795	1	0
383.966	1	-7
384.137	1	2
384.308	1	1
384.479	1	8
384.649	1	4
384.820	1	-6
384.991	1	-8
385.162	1	-7
385.333	1	0
385.503	1	-1
385.674	1	4
385.845	1	-3
386.016	1	2
386.187	1	-1
386.357	1	-4
386.528	1	0
386.699	1	3
386.870	1	0
387.041	1	-14
387.211	1	2
387.382	1	2
387.553	1	3
387.724	1	1
387.894	1	3
388.065	1	6
388.236	1	3
388.407	1	17
388.578	1	-2
388.748	1	8
388.919	1	-10
389.090	1	-4
389.261	1	-17
389.431	1	-4
389.602	1	3
389.773	1	2
389.944	1	-3
390.114	1	10
390.285	1	-11
390.456	1	16
390.627	1	1
390.798	1	-11
390.968	1	-8
391.139	1	-7
391.310	1	-8
391.481	1	4
391.651	1	-5
391.822	1	4
391.993	1	1
392.164	1	5
392.334	1	-8
392.505	1	-5
392.676	1	-2
392.847	1	5
393.017	1	-2
393.188	1	-7
393.359	1	4
393.530	1	5
393.700	1	4
393.871	1	-6
394.042	1	-4
394.213	1	6
394.383	1	3
394.554	1	-1
394.725	1	-7
394.896	1	-5
395.066	1	-17
395.237	1	-10
395.408	1	2
395.579	1	1
395.749	1	-2
395.920	1	-4
396.091	1	1
396.262	1	-5
396.432	1	2
396.603	1	6
396.774	1	-3
396.945	1	-9
397.115	1	4
397.286	1	-4
397.457	1	-10
397.627	1	6
397.798	1	-4
397.969	1	-7
398.140	1	5
398.310	1	4
398.481	1	-11
398.652	1	-18
398.823	1	-7
398.993	1	19
399.164	1	5
399.335	1	1
399.505	1	13
399.676	1	6
399.847	1	-9
400.018	1	0
400.188	1	-1
400.359	1	3
400.530	1	-4
400.700	1	-7
400.871	1	6
401.042	1	-8
401.213	1	6
401.383	1	7
401.554	1	3
401.725	1	-5
401.895	1	-10
402.066	1	9
402.237	1	-4
402.408	1	-2
402.578	1	-6
402.749	1	8
402.920	1	6
403.090	1	-8
403.261	1	-6
403.432	1	-2
403.603	1	8
403.773	1	-3
403.944	1	1
404.115	1	-1
404.285	1	21
404.456	1	2
404.627	1	3
404.797	1	5
404.968	1	1
405.139	1	-1
405.310	1	8
405.480	1	3
405.651	1	6
405.822	1	5
405.992	1	3
406.163	1	-2
406.334	1	0
406.504	1	6
406.675	1	10
406.846	1	4
407.016	1	5
407.187	1	-16
407.358	1	0
407.528	1	-8
407.699	1	5
407.870	1	5
408.041	1	-4
408.211	1	-14
408.382	1	2
408.553	1	3
408.723	1	1
408.894	1	-6
409.065	1	-6
409.235	1	1
409.406	1	-2
409.577	1	-1
409.747	1	-6
409.918	1	19
410.089	1	4
410.259	1	8
410.430	1	5
410.601	1	7
410.771	1	-9
410.942	1	10
411.113	1	3
411.283	1	3
411.454	1	-17
411.625	1	3
411.795	1	6
411.966	1	-4
412.137	1	-12
412.307	1	9
412.478	1	7
412.649	1	-6
412.819	1	-6
412.990	1	-7
413.161	1	1
413.331	1	2
413.502	1	0
413.672	1	10
413.843	1	7
414.014	1	-2
414.184	1	7
414.355	1	-2
414.526	1	-2
414.696	1	10
414.867	1	-3
415.038	1	11
415.208	1	-3
415.379	1	6
415.550	1	11
415.720	1	-2
415.891	1	0
416.062	1	-4
416.232	1	2
416.403	1	9
416.573	1	0
416.744	1	4
416.915	1	10
417.085	1	12
417.256	1	1
417.427	1	5
417.597	1	8
417.768	1	5
417.939	1	1
418.109	1	9
418.280	1	4
418.450	1	7
418.621	1	8
418.792	1	-5
418.962	1	15
419.133	1	8
419.304	1	5
419.474	1	19
419.645	1	11
419.815	1	2
419.986	1	-3
420.157	1	10
420.327	1	9
420.498	1	-3
420.669	1	5
420.839	1	-6
421.010	1	5
421.180	1	-1
421.351	1	12
421.522	1	-2
421.692	1	1
421.863	1	-5
422.033	1	0
422.204	1	0
422.375	1	2
422.545	1	2
422.716	1	4
422.886	1	12
423.057	1	2
423.228	1	15
423.398	1	4
423.569	1	1
423.740	1	-12
423.910	1	6
424.081	1	-9
424.251	1	1
424.422	1	-4
424.593	1	9
424.763	1	2
424.934	1	11
425.104	1	11
425.275	1	0
425.445	1	-6
425.616	1	-1
425.787	1	9
425.957	1	2
426.128	1	7
426.298	1	8
426.469	1	-4
426.640	1	2
426.810	1	-1
426.981	1	4
427.151	1	12
427.322	1	7
427.493	1	14
427.663	1	5
427.834	1	12
428.004	1	-1
428.175	1	2
428.345	1	-5
428.516	1	4
428.687	1	4
428.857	1	17
429.028	1	8
429.198	1	14
429.369	1	13
429.540	1	12
429.710	1	3
429.881	1	-1
430.051	1	3
430.222	1	5
430.392	1	1
430.563	1	-1
430.734	1	7
430.904	1	17
431.075	1	7
431.245	1	11
431.416	1	17
431.586	1	4
431.757	1	3
431.927	1	12
432.098	1	10
432.269	1	3
432.439	1	7
432.610	1	0
432.780	1	1
432.951	1	4
433.121	1	7
433.292	1	-1
433.462	1	5
433.633	1	-2
433.804	1	9
433.974	1	3
434.145	1	7
434.315	1	13
434.486	1	9
434.656	1	10
434.827	1	6
434.997	1	5
435.168	1	8
435.339	1	5
435.509	1	14
435.680	1	11
435.850	1	8
436.021	1	9
436.191	1	13
436.362	1	12
436.532	1	25
436.703	1	7
436.873	1	8
437.044	1	4
437.214	1	0
437.385	1	13
437.556	1	10
437.726	1	0
437.897	1	-2
438.067	1	1
438.238	1	12
438.408	1	5
438.579	1	8
438.749	1	14
438.920	1	2
439.090	1	9
439.261	1	12
439.431	1	11
439.602	1	8
439.772	1	6
439.943	1	4
440.113	1	14
440.284	1	-1
440.455	1	15
440.625	1	6
440.796	1	13
440.966	1	13
441.137	1	9
441.307	1	8
441.478	1	7
441.648	1	4
441.819	1	4
441.989	1	-1
442.160	1	7
442.330	1	0
442.501	1	8
442.671	1	9
442.842	1	-1
443.012	1	3
443.183	1	5
443.353	1	9
443.524	1	1
443.694	1	6
443.865	1	0
444.035	1	9
444.206	1	3
444.376	1	11
444.547	1	13
444.717	1	10
444.888	1	6
445.058	1	13
445.229	1	15
445.399	1	6
445.570	1	11
445.740	1	2
445.911	1	-4
446.081	1	7
446.252	1	5
446.422	1	11
446.593	1	-1
446.763	1	14
446.934	1	15
447.104	1	5
447.275	1	3
447.445	1	7
447.616	1	8
447.786	1	14
447.957	1	3
448.127	1	4
448.298	1	10
448.468	1	19
448.639	1	6
448.809	1	13
448.979	1	7
449.150	1	9
449.320	1	9
449.491	1	16
449.661	1	3
449.832	1	8
450.002	1	6
450.173	1	13
450.343	1	11
450.514	1	7
450.684	1	6
450.855	1	6
451.025	1	15
451.196	1	11
451.366	1	9
451.537	1	-1
451.707	1	13
451.878	1	9
452.048	1	16
452.218	1	11
452.389	1	4
452.559	1	1
452.730	1	8
452.900	1	18
453.071	1	2
453.241	1	12
453.412	1	13
453.582	1	7
453.753	1	10
453.923	1	15
454.093	1	19
454.264	1	13
454.434	1	18
454.605	1	5
454.775	1	8
454.946	1	11
455.116	1	2
455.287	1	8
455.457	1	8
455.628	1	10
455.798	1	2
455.968	1	12
456.139	1	11
456.309	1	8
456.480	1	4
456.650	1	7
456.821	1	9
456.991	1	5
457.161	1	11
457.332	1	4
457.502	1	1
457.673	1	3
457.843	1	16
458.014	1	15
458.184	1	9
458.355	1	5
458.525	1	5
458.695	1	14
458.866	1	7
459.036	1	1
459.207	1	0
459.377	1	16
459.548	1	10
459.718	1	8
459.888	1	9
460.059	1	9
460.229	1	6
460.400	1	-10
460.570	1	8
460.740	1	7
460.911	1	9
461.081	1	24
461.252	1	8
461.422	1	21
461.593	1	7
461.763	1	27
461.933	1	22
462.104	1	7
462.274	1	-1
462.445	1	0
462.615	1	-7
462.785	1	6
462.956	1	10
463.126	1	10
463.297	1	7
463.467	1	8
463.638	1	19
463.808	1	9
463.978	1	2
464.149	1	15
464.319	1	3
464.490	1	15
464.660	1	2
464.830	1	25
465.001	1	5
465.171	1	2
465.342	1	6
465.512	1	12
465.682	1	11
465.853	1	10
466.023	1	21
466.194	1	0
466.364	1	-4
466.534	1	12
466.705	1	11
466.875	1	8
467.045	1	-3
467.216	1	12
467.386	1	-3
467.557	1	-5
467.727	1	8
467.897	1	3
468.068	1	9
468.238	1	-11
468.409	1	6
468.579	1	21
468.749	1	2
468.920	1	5
469.090	1	-8
469.260	1	6
469.431	1	5
469.601	1	11
469.772	1	16
469.942	1	6
470.112	1	2
470.283	1	2
470.453	1	6
470.623	1	0
470.794	1	5
470.964	1	14
471.135	1	2
471.305	1	14
471.475	1	10
471.646	1	3
471.816	1	12
471.986	1	9
472.157	1	13
472.327	1	15
472.497	1	9
472.668	1	15
472.838	1	0
473.009	1	11
473.179	1	13
473.349	1	5
473.520	1	-2
473.690	1	8
473.860	1	15
474.031	1	3
474.201	1	17
474.371	1	10
474.542	1	4
474.712	1	8
474.882	1	12
475.053	1	5
475.223	1	-2
475.394	1	1
475.564	1	6
475.734	1	7
475.905	1	5
476.075	1	13
476.245	1	10
476.416	1	6
476.586	1	-2
476.756	1	11
476.927	1	4
477.097	1	8
477.267	1	6
477.438	1	4
477.608	1	6
477.778	1	7
477.949	1	9
478.119	1	8
478.289	1	3
478.460	1	10
478.630	1	18
478.800	1	11
478.971	1	1
479.141	1	2
479.311	1	10
479.482	1	1
479.652	1	4
479.822	1	5
479.993	1	1
480.163	1	16
480.333	1	6
480.504	1	5
480.674	1	2
480.844	1	-1
481.015	1	4
481.185	1	6
481.355	1	3
481.525	1	7
481.696	1	7
481.866	1	3
482.036	1	-1
482.207	1	3
482.377	1	3
482.547	1	8
482.718	1	12
482.888	1	5
483.058	1	13
483.229	1	12
483.399	1	12
483.569	1	11
483.740	1	-4
483.910	1	2
484.080	1	10
484.250	1	-6
484.421	1	15
484.591	1	11
484.761	1	4
484.932	1	5
485.102	1	10
485.272	1	0
485.443	1	6
485.613	1	9
485.783	1	5
485.953	1	3
486.124	1	5
486.294	1	3
486.464	1	7
486.635	1	2
486.805	1	4
486.975	1	16
487.146	1	3
487.316	1	4
487.486	1	2
487.656	1	9
487.827	1	-1
487.997	1	7
488.167	1	-8
488.338	1	7
488.508	1	8
488.678	1	1
488.848	1	0
489.019	1	7
489.189	1	11
489.359	1	10
489.529	1	2
489.700	1	0
489.870	1	3
490.040	1	6
490.211	1	3
490.381	1	13
490.551	1	-5
490.721	1	6
490.892	1	9
491.062	1	17
491.232	1	8
491.402	1	7
491.573	1	8
491.743	1	0
491.913	1	0
492.084	1	8
492.254	1	14
492.424	1	4
492.594	1	10
492.765	1	5
492.935	1	-3
493.105	1	3
493.275	1	9
493.446	1	7
493.616	1	2
493.786	1	-7
493.956	1	2
494.127	1	9
494.297	1	-6
494.467	1	-2
494.637	1	2
494.808	1	-9
494.978	1	3
495.148	1	-5
495.318	1	0
495.489	1	-7
495.659	1	4
495.829	1	2
495.999	1	9
496.170	1	-3
496.340	1	11
496.510	1	-4
496.680	1	7
496.851	1	14
497.021	1	4
497.191	1	5
497.361	1	3
497.532	1	7
497.702	1	5
497.872	1	8
498.042	1	8
498.213	1	-7
498.383	1	-3
498.553	1	3
498.723	1	2
498.894	1	-3
499.064	1	1
499.234	1	7
499.404	1	3
499.574	1	0
499.745	1	7
499.915	1	1
500.085	1	4
500.255	1	5
500.426	1	1
500.596	1	10
500.766	1	-1
500.936	1	6
501.106	1	3
501.277	1	-4
501.447	1	1
501.617	1	-5
501.787	1	3
501.958	1	11
502.128	1	6
502.298	1	-5
502.468	1	10
502.638	1	-4
502.809	1	8
502.979	1	6
503.149	1	9
503.319	1	2
503.489	1	2
503.660	1	-10
503.830	1	-2
504.000	1	1
504.170	1	4
504.340	1	7
504.511	1	4
504.681	1	4
504.851	1	-4
505.021	1	-9
505.192	1	8
505.362	1	12
505.532	1	7
505.702	1	1
505.872	1	8
506.043	1	-3
506.213	1	-5
506.383	1	10
506.553	1	4
506.723	1	-3
506.893	1	4
507.064	1	1
507.234	1	-1
507.404	1	3
507.574	1	0
507.744	1	6
507.915	1	1
508.085	1	12
508.255	1	8
508.425	1	-7
508.595	1	0
508.766	1	4
508.936	1	8
509.106	1	5
509.276	1	0
509.446	1	0
509.616	1	-8
509.787	1	0
509.957	1	-3
510.127	1	2
510.297	1	5
510.467	1	19
510.638	1	4
510.808	1	9
510.978	1	2
511.148	1	7
511.318	1	-5
511.488	1	6
511.659	1	-5
511.829	1	5
511.999	1	6
512.169	1	5
512.339	1	0
512.509	1	9
512.680	1	-3
512.850	1	-2
513.020	1	-3
513.190	1	17
513.360	1	-4
513.530	1	-7
513.700	1	3
513.871	1	8
514.041	1	-1
514.211	1	1
514.381	1	2
514.551	1	-4
514.721	1	-1
514.892	1	3
515.062	1	-1
515.232	1	-7
515.402	1	6
515.572	1	-1
515.742	1	9
515.912	1	4
516.083	1	-1
516.253	1	3
516.423	1	-1
516.593	1	-3
516.763	1	3
516.933	1	3
517.104	1	-9
517.274	1	6
517.444	1	7
517.614	1	0
517.784	1	4
517.954	1	-3
518.124	1	-3
518.294	1	-3
518.465	1	6
518.635	1	10
518.805	1	7
518.975	1	-2
519.145	1	5
519.315	1	0
519.485	1	1
519.656	1	-4
519.826	1	3
519.996	1	-10
520.166	1	10
520.336	1	-4
520.506	1	-8
520.676	1	2
520.846	1	4
521.017	1	6
521.187	1	12
521.357	1	3
521.527	1	0
521.697	1	1
521.867	1	-6
522.037	1	-11
522.207	1	6
522.377	1	4
522.548	1	0
522.718	1	7
522.888	1	7
523.058	1	10
523.228	1	6
523.398	1	5
523.568	1	-1
523.738	1	12
523.909	1	7
524.079	1	5
524.249	1	6
524.419	1	0
524.589	1	3
524.759	1	2
524.929	1	-3
525.099	1	0
525.269	1	4
525.439	1	3
525.610	1	9
525.780	1	-4
525.950	1	-3
526.120	1	-2
526.290	1	4
526.460	1	-6
526.630	1	7
526.800	1	10
526.970	1	-2
527.140	1	-4
527.311	1	5
527.481	1	-8
527.651	1	7
527.821	1	-4
527.991	1	8
528.161	1	6
528.331	1	5
528.501	1	-8
528.671	1	-4
528.841	1	3
529.011	1	3
529.181	1	3
529.352	1	6
529.522	1	-3
529.692	1	8
529.862	1	6
530.032	1	-7
530.202	1	1
530.372	1	3
530.542	1	-2
530.712	1	-1
530.882	1	-1
531.052	1	6
531.222	1	2
531.392	1	7
531.563	1	1
531.733	1	-9
531.903	1	7
532.073	1	1
532.243	1	4
532.413	1	3
532.583	1	5
532.753	1	5
532.923	1	3
533.093	1	1
533.263	1	10
533.433	1	11
533.603	1	4
533.773	1	1
533.943	1	9
534.113	1	-2
534.284	1	-7
534.454	1	5
534.624	1	0
534.794	1	5
534.964	1	5
535.134	1	6
535.304	1	-1
535.474	1	5
535.644	1	-2
535.814	1	3
535.984	1	8
536.154	1	-1
536.324	1	8
536.494	1	-10
536.664	1	12
536.834	1	3
537.004	1	-5
537.174	1	-3
537.344	1	7
537.514	1	5
537.685	1	6
537.855	1	7
538.025	1	14
538.195	1	2
538.365	1	-12
538.535	1	-6
538.705	1	13
538.875	1	6
539.045	1	-4
539.215	1	-1
539.385	1	-6
539.555	1	10
539.725	1	-3
539.895	1	2
540.065	1	12
540.235	1	-2
540.405	1	-5
540.575	1	5
540.745	1	4
540.915	1	-5
541.085	1	6
541.255	1	-4
541.425	1	6
541.595	1	-2
541.765	1	1
541.935	1	4
542.105	1	1
542.275	1	-1
542.445	1	1
542.615	1	4
542.785	1	-6
542.955	1	-5
543.125	1	-1
543.295	1	4
543.465	1	-3
543.635	1	-2
543.805	1	-3
543.975	1	2
544.145	1	2
544.315	1	-9
544.485	1	2
544.655	1	2
544.825	1	4
544.995	1	4
545.165	1	-4
545.335	1	-1
545.505	1	10
545.675	1	-1
545.845	1	-6
546.015	1	-3
546.185	1	-7
546.355	1	18
546.525	1	8
546.695	1	1
546.865	1	4
547.035	1	1
547.205	1	9
547.375	1	1
547.545	1	2
547.715	1	-5
547.885	1	-18
548.055	1	-2
548.225	1	13
548.395	1	-4
548.565	1	0
548.735	1	-1
548.905	1	4
549.075	1	-2
549.245	1	-12
549.415	1	0
549.585	1	-5
549.755	1	-6
549.925	1	1
550.095	1	6
550.265	1	1
550.435	1	-1
550.605	1	-1
550.775	1	6
550.945	1	13
551.115	1	-4
551.285	1	-7
551.455	1	-5
551.625	1	5
551.795	1	-10
551.965	1	-5
552.135	1	-6
552.305	1	2
552.475	1	14
552.645	1	7
552.815	1	10
552.985	1	10
553.155	1	1
553.325	1	-6
553.495	1	-1
553.665	1	2
553.835	1	0
554.004	1	-1
554.174	1	1
554.344	1	4
554.514	1	0
554.684	1	-12
554.854	1	-1
555.024	1	-7
555.194	1	1
555.364	1	0
555.534	1	9
555.704	1	9
555.874	1	3
556.044	1	-8
556.214	1	7
556.384	1	5
556.554	1	0
556.724	1	3
556.894	1	2
557.064	1	5
557.234	1	3
557.404	1	2
557.573	1	7
557.743	1	-6
557.913	1	9
558.083	1	-1
558.253	1	0
558.423	1	-6
558.593	1	6
558.763	1	-1
558.933	1	3
559.103	1	6
559.273	1	-7
559.443	1	-4
559.613	1	-11
559.783	1	1
559.953	1	3
560.122	1	2
560.292	1	-5
560.462	1	-2
560.632	1	4
560.802	1	13
560.972	1	-6
561.142	1	0
561.312	1	0
561.482	1	-2
561.652	1	-3
561.822	1	-3
561.992	1	7
562.162	1	-6
562.331	1	14
562.501	1	17
562.671	1	-5
562.841	1	-14
563.011	1	-1
563.181	1	4
563.351	1	20
563.521	1	-8
563.691	1	-1
563.861	1	1
564.031	1	-11
564.201	1	4
564.370	1	-2
564.540	1	2
564.710	1	-1
564.880	1	15
565.050	1	1
565.220	1	10
565.390	1	-1
565.560	1	2
565.730	1	-4
565.900	1	0
566.069	1	-8
566.239	1	15
566.409	1	2
566.579	1	-16
566.749	1	-6
566.919	1	-2
567.089	1	4
567.259	1	1
567.429	1	6
567.599	1	0
567.768	1	17
567.938	1	5
568.108	1	-2
568.278	1	2
568.448	1	9
568.618	1	9
568.788	1	0
568.958	1	4
569.128	1	1
569.297	1	6
569.467	1	-3
569.637	1	2
569.807	1	18
569.977	1	-7
570.147	1	1
570.317	1	-4
570.487	1	7
570.656	1	-4
570.826	1	-7
570.996	1	-6
571.166	1	1
571.336	1	-4
571.506	1	6
571.676	1	5
571.846	1	-3
572.015	1	-10
572.185	1	5
572.355	1	-1
572.525	1	3
572.695	1	-4
572.865	1	-1
573.035	1	3
573.205	1	-2
573.374	1	-2
573.544	1	1
573.714	1	-6
573.884	1	8
574.054	1	10
574.224	1	1
574.394	1	-2
574.563	1	-9
574.733	1	-2
574.903	1	-3
575.073	1	-2
575.243	1	1
575.413	1	-8
575.583	1	4
575.752	1	8
575.922	1	5
576.092	1	-3
576.262	1	3
576.432	1	-4
576.602	1	5
576.772	1	2
576.941	1	4
577.111	1	6
577.281	1	11
577.451	1	-4
577.621	1	1
577.791	1	2
577.960	1	3
578.130	1	-5
578.300	1	-2
578.470	1	2
578.640	1	6
578.810	1	-3
578.979	1	1
579.149	1	1
579.319	1	-3
579.489	1	-2
579.659	1	-4
579.829	1	2
579.998	1	-8
580.168	1	-7
580.338	1	5
580.508	1	13
580.678	1	-1
580.848	1	1
581.017	1	4
581.187	1	3
581.357	1	-8
581.527	1	1
581.697	1	-9
581.867	1	-1
582.036	1	-3
582.206	1	-7
582.376	1	-5
582.546	1	0
582.716	1	9
582.885	1	6
583.055	1	5
583.225	1	10
583.395	1	9
583.565	1	3
583.735	1	2
583.904	1	3
584.074	1	-2
584.244	1	-1
584.414	1	11
584.584	1	3
584.753	1	-16
584.923	1	-8
585.093	1	6
585.263	1	-4
585.433	1	-12
585.602	1	4
585.772	1	7
585.942	1	9
586.112	1	-1
586.282	1	10
586.451	1	18
586.621	1	1
586.791	1	9
586.961	1	-3
587.131	1	8
587.300	1	6
587.470	1	-17
587.640	1	1
587.810	1	0
587.980	1	-7
588.149	1	9
588.319	1	4
588.489	1	0
588.659	1	8
588.829	1	13
588.998	1	3
589.168	1	7
589.338	1	-9
589.508	1	-4
589.677	1	3
589.847	1	-5
590.017	1	3
590.187	1	-10
590.357	1	1
590.526	1	-2
590.696	1	1
590.866	1	-17
591.036	1	12
591.205	1	4
591.375	1	-3
591.545	1	6
591.715	1	-10
591.885	1	-4
592.054	1	-2
592.224	1	0
592.394	1	5
592.564	1	7
592.733	1	-6
592.903	1	-2
593.073	1	5
593.243	1	5
593.412	1	-4
593.582	1	-5
593.752	1	-1
593.922	1	14
594.091	1	-3
594.261	1	-3
594.431	1	1
594.601	1	-2
594.771	1	-4
594.940	1	6
595.110	1	8
595.280	1	2
595.450	1	17
595.619	1	-1
595.789	1	1
595.959	1	-5
596.129	1	14
596.298	1	0
596.468	1	1
596.638	1	-6
596.808	1	3
596.977	1	-1
597.147	1	4
597.317	1	4
597.487	1	-2
597.656	1	-6
597.826	1	3
597.996	1	-1
598.166	1	5
598.335	1	2
598.505	1	8
598.675	1	-3
598.844	1	4
599.014	1	0
599.184	1	-5
599.354	1	6
599.523	1	8
599.693	1	5
599.863	1	6
600.033	1	-4
600.202	1	6
600.372	1	3
600.542	1	1
600.712	1	2
600.881	1	9
601.051	1	3
601.221	1	-2
601.390	1	2
601.560	1	-8
601.730	1	-2
601.900	1	4
602.069	1	8
602.239	1	-6
602.409	1	-2
602.578	1	4
602.748	1	-3
602.918	1	-6
603.088	1	-2
603.257	1	1
603.427	1	-2
603.597	1	1
603.767	1	6
603.936	1	4
604.106	1	8
604.276	1	-8
604.445	1	-6
604.615	1	11
604.785	1	16
604.954	1	11
605.124	1	11
605.294	1	5
605.464	1	5
605.633	1	16
605.803	1	-1
605.973	1	8
606.142	1	8
606.312	1	4
606.482	1	-8
606.652	1	3
606.821	1	5
606.991	1	5
607.161	1	6
607.330	1	7
607.500	1	9
607.670	1	10
607.839	1	1
608.009	1	9
608.179	1	3
608.348	1	3
608.518	1	5
608.688	1	2
608.858	1	5
609.027	1	6
609.197	1	6
609.367	1	5
609.536	1	8
609.706	1	7
609.876	1	5
610.045	1	6
610.215	1	14
610.385	1	15
610.554	1	14
610.724	1	3
610.894	1	5
611.063	1	5
611.233	1	-11
611.403	1	13
611.572	1	-1
611.742	1	7
611.912	1	-3
612.081	1	8
612.251	1	9
612.421	1	11
612.590	1	6
612.760	1	6
612.930	1	12
613.099	1	18
613.269	1	7
613.439	1	14
613.608	1	4
613.778	1	17
613.948	1	-5
614.117	1	3
614.287	1	-7
614.457	1	6
614.626	1	4
614.796	1	0
614.966	1	4
615.135	1	10
615.305	1	4
615.475	1	11
615.644	1	6
615.814	1	6
615.984	1	4
616.153	1	4
616.323	1	-7
616.493	1	-2
616.662	1	4
616.832	1	-3
617.002	1	8
617.171	1	7
617.341	1	8
617.511	1	5
617.680	1	1
617.850	1	16
618.019	1	7
618.189	1	2
618.359	1	10
618.528	1	6
618.698	1	17
618.868	1	5
619.037	1	2
619.207	1	12
619.377	1	8
619.546	1	-6
619.716	1	8
619.885	1	17
620.055	1	5
620.225	1	12
620.394	1	6
620.564	1	15
620.734	1	3
620.903	1	23
621.073	1	17
621.242	1	23
621.412	1	-3
621.582	1	12
621.751	1	-2
621.921	1	4
622.091	1	9
622.260	1	1
622.430	1	13
622.599	1	3
622.769	1	1
622.939	1	-5
623.108	1	-3
623.278	1	13
623.448	1	5
623.617	1	15
623.787	1	15
623.956	1	7
624.126	1	3
624.296	1	3
624.465	1	13
624.635	1	-7
624.804	1	3
624.974	1	11
625.144	1	8
625.313	1	7
625.483	1	7
625.652	1	6
625.822	1	12
625.992	1	11
626.161	1	8
626.331	1	13
626.501	1	-5
626.670	1	12
626.840	1	3
627.009	1	16
627.179	1	8
627.348	1	12
627.518	1	-8
627.688	1	-3
627.857	1	2
628.027	1	5
628.196	1	14
628.366	1	10
628.536	1	11
628.705	1	17
628.875	1	8
629.044	1	5
629.214	1	8
629.384	1	0
629.553	1	16
629.723	1	3
629.892	1	1
630.062	1	3
630.232	1	-1
630.401	1	11
630.571	1	10
630.740	1	3
630.910	1	15
631.079	1	18
631.249	1	-6
631.419	1	14
631.588	1	9
631.758	1	12
631.927	1	0
632.097	1	1
632.266	1	0
632.436	1	12
632.606	1	14
632.775	1	0
632.945	1	-1
633.114	1	10
633.284	1	3
633.453	1	19
633.623	1	3
633.793	1	3
633.962	1	5
634.132	1	-6
634.301	1	3
634.471	1	-5
634.640	1	-3
634.810	1	1
634.979	1	6
635.149	1	1
635.319	1	10
635.488	1	10
635.658	1	1
635.827	1	5
635.997	1	15
636.166	1	6
636.336	1	1
636.505	1	8
636.675	1	15
636.845	1	9
637.014	1	11
637.184	1	4
637.353	1	12
637.523	1	7
637.692	1	5
637.862	1	8
638.031	1	13
638.201	1	-2
638.370	1	10
638.540	1	4
638.710	1	3
638.879	1	4
639.049	1	3
639.218	1	15
639.388	1	6
639.557	1	-2
639.727	1	6
639.896	1	5
640.066	1	-1
640.235	1	1
640.405	1	12
640.574	1	9
640.744	1	6
640.914	1	9
641.083	1	0
641.253	1	7
641.422	1	0
641.592	1	7
641.761	1	3
641.931	1	8
642.100	1	8
642.270	1	-1
642.439	1	17
642.609	1	13
642.778	1	7
642.948	1	5
643.117	1	5
643.287	1	6
643.456	1	15
643.626	1	10
643.795	1	5
643.965	1	1
644.134	1	6
644.304	1	-3
644.473	1	6
644.643	1	-2
644.812	1	5
644.982	1	-1
645.151	1	2
645.321	1	11
645.490	1	2
645.660	1	13
645.829	1	1
645.999	1	6
646.168	1	7
646.338	1	-6
646.507	1	6
646.677	1	-1
646.846	1	-1
647.016	1	13
647.185	1	-3
647.355	1	-1
647.524	1	-2
647.694	1	13
647.863	1	4
648.033	1	-1
648.202	1	8
648.372	1	1
648.541	1	8
648.711	1	-6
648.880	1	3
649.050	1	12
649.219	1	-6
649.389	1	5
649.558	1	1
649.728	1	3
649.897	1	12
650.067	1	-4
650.236	1	-5
650.406	1	4
650.575	1	-5
650.745	1	3
650.914	1	12
651.084	1	-2
651.253	1	9
651.423	1	7
651.592	1	14
651.762	1	19
651.931	1	8
652.101	1	13
652.270	1	-6
652.440	1	3
652.609	1	14
652.778	1	16
652.948	1	-1
653.117	1	13
653.287	1	-2
653.456	1	2
653.626	1	6
653.795	1	8
653.965	1	12
654.134	1	2
654.304	1	4
654.473	1	5
654.643	1	3
654.812	1	7
654.982	1	7
655.151	1	11
655.320	1	10
655.490	1	-9
655.659	1	11
655.829	1	6
655.998	1	9
656.168	1	-8
656.337	1	-5
656.507	1	-4
656.676	1	2
656.846	1	14
657.015	1	2
657.184	1	1
657.354	1	5
657.523	1	-2
657.693	1	1
657.862	1	-3
658.032	1	14
658.201	1	5
658.371	1	12
658.540	1	13
658.709	1	2
658.879	1	10
659.048	1	-4
659.218	1	7
659.387	1	-1
659.557	1	2
659.726	1	9
659.895	1	3
660.065	1	3
660.234	1	4
660.404	1	-7
660.573	1	-2
660.743	1	-11
660.912	1	4
661.081	1	-3
661.251	1	18
661.420	1	-3
661.590	1	-3
661.759	1	-3
661.929	1	-4
662.098	1	-6
662.267	1	-8
662.437	1	5
662.606	1	-1
662.776	1	3
662.945	1	-7
663.115	1	2
663.284	1	-7
663.453	1	6
663.623	1	-4
663.792	1	-5
663.962	1	1
664.131	1	2
664.300	1	-6
664.470	1	-4
664.639	1	10
664.809	1	-1
664.978	1	5
665.148	1	6
665.317	1	-13
665.486	1	-9
665.656	1	13
665.825	1	16
665.995	1	-6
666.164	1	3
666.333	1	2
666.503	1	5
666.672	1	-4
666.842	1	4
667.011	1	5
667.180	1	7
667.350	1	0
667.519	1	-2
667.689	1	-2
667.858	1	2
668.027	1	7
668.197	1	3
668.366	1	-8
668.536	1	2
668.705	1	3
668.874	1	6
669.044	1	-7
669.213	1	-1
669.382	1	-5
669.552	1	-6
669.721	1	3
669.891	1	-3
670.060	1	-5
670.229	1	-2
670.399	1	4
670.568	1	4
670.738	1	0
670.907	1	4
671.076	1	-2
671.246	1	-5
671.415	1	-5
671.584	1	-2
671.754	1	-3
671.923	1	4
672.093	1	2
672.262	1	13
672.431	1	1
672.601	1	-1
672.770	1	-2
672.939	1	5
673.109	1	-8
673.278	1	1
673.448	1	3
673.617	1	-8
673.786	1	-5
