325.333	1	0
325.504	1	1
325.675	1	-8
325.846	1	-1
326.017	1	-15
326.188	1	-5
326.359	1	4
326.531	1	-10
326.702	1	-19
326.873	1	-1
327.044	1	-1
327.215	1	0
327.386	1	-18
327.557	1	9
327.728	1	2
327.899	1	-14
328.070	1	-4
328.241	1	-5
328.412	1	10
328.583	1	-5
328.754	1	-4
328.926	1	-3
329.097	1	-4
329.268	1	9
329.439	1	-14
329.610	1	-13
329.781	1	-11
329.952	1	-7
330.123	1	-9
330.294	1	-4
330.465	1	-6
330.636	1	-3
330.807	1	-7
330.978	1	-10
331.149	1	-6
331.320	1	-8
331.492	1	-10
331.663	1	-7
331.834	1	-8
332.005	1	1
332.176	1	3
332.347	1	1
332.518	1	-4
332.689	1	-2
332.860	1	-16
333.031	1	-7
333.202	1	-14
333.373	1	-5
333.544	1	-8
333.715	1	-4
333.886	1	-5
334.057	1	-1
334.228	1	-14
334.399	1	-1
334.570	1	-16
334.741	1	2
334.912	1	-17
335.084	1	-2
335.255	1	-14
335.426	1	-11
335.597	1	0
335.768	1	-3
335.939	1	-12
336.110	1	-2
336.281	1	-8
336.452	1	-7
336.623	1	7
336.794	1	-3
336.965	1	-10
337.136	1	-5
337.307	1	3
337.478	1	-11
337.649	1	-4
337.820	1	12
337.991	1	-8
338.162	1	-7
338.333	1	-9
338.504	1	3
338.675	1	-15
338.846	1	10
339.017	1	-1
339.188	1	3
339.359	1	-10
339.530	1	-7
339.701	1	-8
339.872	1	0
340.043	1	-9
340.214	1	-2
340.385	1	-2
340.556	1	-5
340.727	1	0
340.898	1	0
341.069	1	-10
341.240	1	-12
341.411	1	-5
341.582	1	-4
341.753	1	-11
341.924	1	-1
342.095	1	-4
342.266	1	4
342.437	1	-3
342.608	1	-5
342.779	1	-11
342.950	1	-12
343.121	1	-4
343.292	1	-5
343.463	1	1
343.634	1	-4
343.805	1	-8
343.976	1	0
344.147	1	-7
344.318	1	-1
344.489	1	-5
344.660	1	-7
344.831	1	0
345.002	1	-2
345.173	1	-8
345.344	1	-4
345.515	1	-9
345.686	1	0
345.857	1	2
346.028	1	-1
346.199	1	10
346.370	1	-9
346.541	1	-12
346.712	1	2
346.883	1	-5
347.054	1	-8
347.225	1	-9
347.396	1	-14
347.567	1	8
347.738	1	-7
347.909	1	2
348.080	1	-2
348.251	1	-4
348.422	1	-4
348.593	1	-9
348.764	1	-3
348.935	1	-3
349.106	1	-2
349.277	1	-3
349.448	1	-1
349.619	1	1
349.790	1	-5
349.961	1	-4
350.132	1	-10
350.303	1	-4
350.474	1	-6
350.645	1	-6
350.816	1	-14
350.987	1	-11
351.157	1	-17
351.328	1	-13
351.499	1	-12
351.670	1	4
351.841	1	9
352.012	1	2
352.183	1	-12
352.354	1	0
352.525	1	-8
352.696	1	1
352.867	1	-14
353.038	1	10
353.209	1	-3
353.380	1	-7
353.551	1	-6
353.722	1	-9
353.893	1	-6
354.064	1	-16
354.235	1	0
354.406	1	3
354.576	1	-6
354.747	1	-5
354.918	1	2
355.089	1	-6
355.260	1	-4
355.431	1	-11
355.602	1	3
355.773	1	-7
355.944	1	-7
356.115	1	-13
356.286	1	1
356.457	1	-3
356.628	1	-8
356.799	1	-12
356.970	1	-5
357.141	1	-6
357.311	1	-2
357.482	1	-8
357.653	1	-7
357.824	1	-2
357.995	1	5
358.166	1	-6
358.337	1	0
358.508	1	-9
358.679	1	-11
358.850	1	-1
359.021	1	-12
359.192	1	-6
359.363	1	2
359.533	1	2
359.704	1	6
359.875	1	-5
360.046	1	4
360.217	1	0
360.388	1	-6
360.559	1	-4
360.730	1	0
360.901	1	2
361.072	1	-3
361.243	1	-3
361.414	1	-6
361.584	1	-1
361.755	1	8
361.926	1	-12
362.097	1	5
362.268	1	-5
362.439	1	1
362.610	1	4
362.781	1	1
362.952	1	-14
363.123	1	-3
363.293	1	-2
363.464	1	-11
363.635	1	-2
363.806	1	-4
363.977	1	-5
364.148	1	-6
364.319	1	-5
364.490	1	-7
364.661	1	-11
364.832	1	2
365.002	1	-3
365.173	1	-8
365.344	1	-2
365.515	1	-8
365.686	1	-8
365.857	1	-4
366.028	1	-5
366.199	1	-2
366.370	1	-4
366.540	1	-6
366.711	1	3
366.882	1	-4
367.053	1	-7
367.224	1	-12
367.395	1	2
367.566	1	-3
367.737	1	-5
367.908	1	-13
368.078	1	-6
368.249	1	-3
368.420	1	0
368.591	1	1
368.762	1	-19
368.933	1	-6
369.104	1	-2
369.274	1	-8
369.445	1	-8
369.616	1	-7
369.787	1	0
369.958	1	-8
370.129	1	-12
370.300	1	-5
370.471	1	-1
370.641	1	-14
370.812	1	-15
370.983	1	-5
371.154	1	3
371.325	1	-6
371.496	1	4
371.667	1	-8
371.837	1	-9
372.008	1	-13
372.179	1	-2
372.350	1	-14
372.521	1	5
372.692	1	-8
372.863	1	-5
373.033	1	0
373.204	1	-1
373.375	1	-5
373.546	1	-7
373.717	1	-19
373.888	1	-3
374.059	1	-9
374.229	1	-9
374.400	1	3
374.571	1	-16
374.742	1	-13
374.913	1	-10
375.084	1	-8
375.254	1	5
375.425	1	-4
375.596	1	6
375.767	1	-2
375.938	1	-7
376.109	1	-11
376.279	1	-6
376.450	1	2
376.621	1	-7
376.792	1	-4
376.963	1	2
377.134	1	0
377.304	1	-2
377.475	1	-9
377.646	1	-10
377.817	1	-4
377.988	1	1
378.159	1	-7
378.329	1	6
378.500	1	-15
378.671	1	-6
378.842	1	-2
379.013	1	6
379.184	1	-3
379.354	1	4
379.525	1	-13
379.696	1	-2
379.867	1	-12
380.038	1	7
380.209	1	-11
380.379	1	-20
380.550	1	0
380.721	1	-8
380.892	1	-3
381.063	1	-2
381.233	1	-4
381.404	1	-3
381.575	1	2
381.746	1	-6
381.917	1	-4
382.087	1	2
382.258	1	-20
382.429	1	2
382.600	1	-2
382.771	1	-4
382.941	1	2
383.112	1	4
383.283	1	-7
383.454	1	3
383.625	1	0
383.795	1	-1
383.966	1	-11
384.137	1	1
384.308	1	-4
384.479	1	12
384.649	1	-1
384.820	1	-1
384.991	1	-21
385.162	1	-10
385.333	1	-3
385.503	1	-7
385.674	1	-1
385.845	1	-13
386.016	1	0
386.187	1	-4
386.357	1	-5
386.528	1	-11
386.699	1	-6
386.870	1	-11
387.041	1	-12
387.211	1	-1
387.382	1	-11
387.553	1	-7
387.724	1	-3
387.894	1	4
388.065	1	-3
388.236	1	7
388.407	1	1
388.578	1	0
388.748	1	0
388.919	1	-13
389.090	1	-12
389.261	1	-10
389.431	1	-10
389.602	1	7
389.773	1	1
389.944	1	-2
390.114	1	-3
390.285	1	-7
390.456	1	-3
390.627	1	-14
390.798	1	-10
390.968	1	-13
391.139	1	-8
391.310	1	-5
391.481	1	-5
391.651	1	2
391.822	1	-9
391.993	1	-13
392.164	1	-6
392.334	1	2
392.505	1	-9
392.676	1	-8
392.847	1	-10
393.017	1	6
393.188	1	-7
393.359	1	-6
393.530	1	2
393.700	1	6
393.871	1	-7
394.042	1	-6
394.213	1	9
394.383	1	-9
394.554	1	-5
394.725	1	-5
394.896	1	-4
395.066	1	-13
395.237	1	-8
395.408	1	4
395.579	1	-9
395.749	1	-13
395.920	1	-5
396.091	1	-4
396.262	1	-10
396.432	1	-6
396.603	1	2
396.774	1	-8
396.945	1	-9
397.115	1	0
397.286	1	-5
397.457	1	-14
397.627	1	0
397.798	1	4
397.969	1	-9
398.140	1	1
398.310	1	-7
398.481	1	-12
398.652	1	-14
398.823	1	2
398.993	1	-2
399.164	1	-4
399.335	1	-16
399.505	1	5
399.676	1	-5
399.847	1	-11
400.018	1	-6
400.188	1	-3
400.359	1	-1
400.530	1	-16
400.700	1	-2
400.871	1	4
401.042	1	-5
401.213	1	-1
401.383	1	5
401.554	1	-11
401.725	1	-5
401.895	1	-9
402.066	1	-2
402.237	1	-9
402.408	1	-14
402.578	1	-21
402.749	1	-11
402.920	1	0
403.090	1	-10
403.261	1	-14
403.432	1	-4
403.603	1	5
403.773	1	2
403.944	1	-1
404.115	1	3
404.285	1	5
404.456	1	-4
404.627	1	-3
404.797	1	0
404.968	1	-6
405.139	1	-7
405.310	1	-1
405.480	1	1
405.651	1	3
405.822	1	-5
405.992	1	-12
406.163	1	-13
406.334	1	-3
406.504	1	-6
406.675	1	3
406.846	1	-3
407.016	1	-2
407.187	1	-12
407.358	1	0
407.528	1	-19
407.699	1	-5
407.870	1	-14
408.041	1	0
408.211	1	-12
408.382	1	-1
408.553	1	-13
408.723	1	-4
408.894	1	1
409.065	1	-12
409.235	1	-1
409.406	1	-5
409.577	1	-7
409.747	1	-6
409.918	1	7
410.089	1	-7
410.259	1	-9
410.430	1	-1
410.601	1	-4
410.771	1	-8
410.942	1	3
411.113	1	5
411.283	1	-7
411.454	1	-12
411.625	1	3
411.795	1	-7
411.966	1	-12
412.137	1	-10
412.307	1	1
412.478	1	-8
412.649	1	-6
412.819	1	-7
412.990	1	-11
413.161	1	-15
413.331	1	-10
413.502	1	-3
413.672	1	-3
413.843	1	6
414.014	1	-14
414.184	1	-4
414.355	1	-13
414.526	1	3
414.696	1	3
414.867	1	-11
415.038	1	-1
415.208	1	-10
415.379	1	-4
415.550	1	4
415.720	1	-6
415.891	1	1
416.062	1	-9
416.232	1	-7
416.403	1	9
416.573	1	-10
416.744	1	-6
416.915	1	-3
417.085	1	11
417.256	1	-12
417.427	1	-2
417.597	1	-3
417.768	1	2
417.939	1	0
418.109	1	-6
418.280	1	-2
418.450	1	-1
418.621	1	-6
418.792	1	-7
418.962	1	3
419.133	1	-4
419.304	1	-3
419.474	1	-1
419.645	1	-2
419.815	1	-3
419.986	1	1
420.157	1	5
420.327	1	-7
420.498	1	-4
420.669	1	-4
420.839	1	-2
421.010	1	-9
421.180	1	-9
421.351	1	-3
421.522	1	-14
421.692	1	-5
421.863	1	-2
422.033	1	4
422.204	1	2
422.375	1	-1
422.545	1	-6
422.716	1	-10
422.886	1	7
423.057	1	-5
423.228	1	10
423.398	1	0
423.569	1	-7
423.740	1	-20
423.910	1	-6
424.081	1	-8
424.251	1	-11
424.422	1	-11
424.593	1	-3
424.763	1	-4
424.934	1	3
425.104	1	5
425.275	1	-11
425.445	1	-11
425.616	1	-6
425.787	1	-5
425.957	1	4
426.128	1	-8
426.298	1	-3
426.469	1	-13
426.640	1	-7
426.810	1	-5
426.981	1	-6
427.151	1	-2
427.322	1	-2
427.493	1	-4
427.663	1	4
427.834	1	-4
428.004	1	-7
428.175	1	-15
428.345	1	-13
428.516	1	-2
428.687	1	0
428.857	1	-2
429.028	1	1
429.198	1	-2
429.369	1	4
429.540	1	-3
429.710	1	-5
429.881	1	-8
430.051	1	2
430.222	1	-15
430.392	1	-5
430.563	1	-4
430.734	1	6
430.904	1	3
431.075	1	-8
431.245	1	-7
431.416	1	4
431.586	1	-10
431.757	1	-1
431.927	1	-2
432.098	1	-5
432.269	1	-2
432.439	1	1
432.610	1	-1
432.780	1	-3
432.951	1	-11
433.121	1	-1
433.292	1	-5
433.462	1	-12
433.633	1	-13
433.804	1	1
433.974	1	-7
434.145	1	-8
434.315	1	-3
434.486	1	0
434.656	1	-1
434.827	1	-4
434.997	1	-5
435.168	1	-1
435.339	1	1
435.509	1	0
435.680	1	-9
435.850	1	-10
436.021	1	5
436.191	1	2
436.362	1	-11
436.532	1	2
436.703	1	-12
436.873	1	2
437.044	1	0
437.214	1	-12
437.385	1	0
437.556	1	-6
437.726	1	-8
437.897	1	-12
438.067	1	-11
438.238	1	-5
438.408	1	-8
438.579	1	-2
438.749	1	3
438.920	1	-10
439.090	1	-6
439.261	1	-8
439.431	1	-6
439.602	1	-8
439.772	1	6
439.943	1	-5
440.113	1	-1
440.284	1	-15
440.455	1	1
440.625	1	-16
440.796	1	-6
440.966	1	-4
441.137	1	1
441.307	1	-15
441.478	1	-3
441.648	1	-5
441.819	1	-14
441.989	1	-6
442.160	1	-9
442.330	1	-16
442.501	1	-1
442.671	1	5
442.842	1	-11
443.012	1	-7
443.183	1	-7
443.353	1	-3
443.524	1	-6
443.694	1	-4
443.865	1	-17
444.035	1	-5
444.206	1	-2
444.376	1	-6
444.547	1	4
444.717	1	-4
444.888	1	-4
445.058	1	-3
445.229	1	-10
445.399	1	0
445.570	1	-6
445.740	1	-3
445.911	1	-11
446.081	1	-3
446.252	1	2
446.422	1	7
446.593	1	-16
446.763	1	-13
446.934	1	0
447.104	1	7
447.275	1	-7
447.445	1	-2
447.616	1	-4
447.786	1	-6
447.957	1	-9
448.127	1	-17
448.298	1	-2
448.468	1	-1
448.639	1	-12
448.809	1	-2
448.979	1	-8
449.150	1	-12
449.320	1	-1
449.491	1	-1
449.661	1	-5
449.832	1	-7
450.002	1	-6
450.173	1	-9
450.343	1	-11
450.514	1	-4
450.684	1	-7
450.855	1	1
451.025	1	-3
451.196	1	7
451.366	1	1
451.537	1	-8
451.707	1	-3
451.878	1	-4
452.048	1	-5
452.218	1	-1
452.389	1	-5
452.559	1	-10
452.730	1	-4
452.900	1	-3
453.071	1	-6
453.241	1	-7
453.412	1	-1
453.582	1	-6
453.753	1	-16
453.923	1	1
454.093	1	-9
454.264	1	2
454.434	1	0
454.605	1	-15
454.775	1	-12
454.946	1	5
455.116	1	-9
455.287	1	-1
455.457	1	-6
455.628	1	1
455.798	1	-14
455.968	1	-5
456.139	1	-4
456.309	1	-5
456.480	1	-4
456.650	1	-4
456.821	1	-3
456.991	1	-12
457.161	1	13
457.332	1	-9
457.502	1	-3
457.673	1	3
457.843	1	-11
458.014	1	-3
458.184	1	-5
458.355	1	-9
458.525	1	-11
458.695	1	-4
458.866	1	-7
459.036	1	-12
459.207	1	-9
459.377	1	0
459.548	1	1
459.718	1	-12
459.888	1	-11
460.059	1	-9
460.229	1	5
460.400	1	-26
460.570	1	-6
460.740	1	12
460.911	1	-13
461.081	1	12
461.252	1	2
461.422	1	2
461.593	1	-9
461.763	1	-1
461.933	1	-4
462.104	1	-1
462.274	1	-7
462.445	1	-8
462.615	1	-10
462.785	1	-8
462.956	1	-5
463.126	1	-4
463.297	1	-1
463.467	1	-3
463.638	1	-5
463.808	1	-1
463.978	1	-3
464.149	1	0
464.319	1	-18
464.490	1	4
464.660	1	-3
464.830	1	7
465.001	1	0
465.171	1	9
465.342	1	-11
465.512	1	-8
465.682	1	-9
465.853	1	-7
466.023	1	-3
466.194	1	-13
466.364	1	-8
466.534	1	-4
466.705	1	4
466.875	1	-1
467.045	1	-12
467.216	1	-10
467.386	1	0
467.557	1	-8
467.727	1	-8
467.897	1	-13
468.068	1	1
468.238	1	-10
468.409	1	-12
468.579	1	5
468.749	1	1
468.920	1	-9
469.090	1	-19
469.260	1	-4
469.431	1	-17
469.601	1	-1
469.772	1	4
469.942	1	-2
470.112	1	-4
470.283	1	-4
470.453	1	-5
470.623	1	0
470.794	1	-12
470.964	1	10
471.135	1	-7
471.305	1	-8
471.475	1	2
471.646	1	-2
471.816	1	-2
471.986	1	-4
472.157	1	4
472.327	1	-1
472.497	1	2
472.668	1	-1
472.838	1	-8
473.009	1	1
473.179	1	2
473.349	1	-9
473.520	1	-6
473.690	1	2
473.860	1	-3
474.031	1	-9
474.201	1	0
474.371	1	5
474.542	1	-4
474.712	1	1
474.882	1	2
475.053	1	-9
475.223	1	-14
475.394	1	-5
475.564	1	-16
475.734	1	-6
475.905	1	5
476.075	1	6
476.245	1	-3
476.416	1	-8
476.586	1	-20
476.756	1	0
476.927	1	0
477.097	1	1
477.267	1	-1
477.438	1	-1
477.608	1	-9
477.778	1	1
477.949	1	0
478.119	1	-9
478.289	1	-6
478.460	1	-7
478.630	1	2
478.800	1	-2
478.971	1	-15
479.141	1	-7
479.311	1	-1
479.482	1	-9
479.652	1	-9
479.822	1	-8
479.993	1	-19
480.163	1	1
480.333	1	-8
480.504	1	-4
480.674	1	-7
480.844	1	-3
481.015	1	-1
481.185	1	-3
481.355	1	-6
481.525	1	-7
481.696	1	-4
481.866	1	-3
482.036	1	-5
482.207	1	-10
482.377	1	-9
482.547	1	-4
482.718	1	-11
482.888	1	-15
483.058	1	-6
483.229	1	2
483.399	1	-4
483.569	1	-16
483.740	1	-16
483.910	1	4
484.080	1	-16
484.250	1	-6
484.421	1	-3
484.591	1	-7
484.761	1	1
484.932	1	3
485.102	1	9
485.272	1	-3
485.443	1	-11
485.613	1	-2
485.783	1	0
485.953	1	0
486.124	1	-1
486.294	1	0
486.464	1	-5
486.635	1	-8
486.805	1	-1
486.975	1	-5
487.146	1	-6
487.316	1	-3
487.486	1	-7
487.656	1	5
487.827	1	-12
487.997	1	-6
488.167	1	-4
488.338	1	-5
488.508	1	3
488.678	1	-6
488.848	1	-5
489.019	1	4
489.189	1	-1
489.359	1	-6
489.529	1	-7
489.700	1	-4
489.870	1	-11
490.040	1	-4
490.211	1	6
490.381	1	-6
490.551	1	-14
490.721	1	-4
490.892	1	-5
491.062	1	4
491.232	1	6
491.402	1	-9
491.573	1	-2
491.743	1	-8
491.913	1	-6
492.084	1	-5
492.254	1	7
492.424	1	-8
492.594	1	-10
492.765	1	-14
492.935	1	-1
493.105	1	-9
493.275	1	2
493.446	1	-8
493.616	1	-10
493.786	1	-12
493.956	1	-5
494.127	1	-3
494.297	1	-9
494.467	1	-8
494.637	1	-7
494.808	1	-5
494.978	1	-13
495.148	1	-9
495.318	1	-11
495.489	1	-11
495.659	1	5
495.829	1	-9
495.999	1	3
496.170	1	-7
496.340	1	2
496.510	1	-13
496.680	1	-3
496.851	1	-1
497.021	1	-5
497.191	1	-11
497.361	1	3
497.532	1	-14
497.702	1	-8
497.872	1	-2
498.042	1	-9
498.213	1	-13
498.383	1	-4
498.553	1	0
498.723	1	8
498.894	1	-6
499.064	1	-2
499.234	1	-12
499.404	1	-7
499.574	1	9
499.745	1	-3
499.915	1	0
500.085	1	-5
500.255	1	-3
500.426	1	-15
500.596	1	-3
500.766	1	-5
500.936	1	-13
501.106	1	-9
501.277	1	-2
501.447	1	0
501.617	1	6
501.787	1	-12
501.958	1	2
502.128	1	1
502.298	1	-11
502.468	1	-6
502.638	1	3
502.809	1	5
502.979	1	-11
503.149	1	1
503.319	1	-7
503.489	1	2
503.660	1	-5
503.830	1	-2
504.000	1	-2
504.170	1	-4
504.340	1	-1
504.511	1	2
504.681	1	2
504.851	1	-14
505.021	1	-10
505.192	1	2
505.362	1	0
505.532	1	4
505.702	1	-5
505.872	1	-7
506.043	1	-12
506.213	1	-9
506.383	1	1
506.553	1	6
506.723	1	-5
506.893	1	-15
507.064	1	1
507.234	1	-9
507.404	1	-9
507.574	1	-8
507.744	1	-5
507.915	1	-1
508.085	1	1
508.255	1	-1
508.425	1	-8
508.595	1	0
508.766	1	-3
508.936	1	-4
509.106	1	1
509.276	1	-6
509.446	1	-4
509.616	1	-11
509.787	1	-9
509.957	1	-3
510.127	1	1
510.297	1	-7
510.467	1	8
510.638	1	1
510.808	1	5
510.978	1	0
511.148	1	-6
511.318	1	-14
511.488	1	2
511.659	1	-11
511.829	1	-3
511.999	1	-1
512.169	1	-2
512.339	1	-5
512.509	1	5
512.680	1	6
512.850	1	-7
513.020	1	-3
513.190	1	-1
513.360	1	-12
513.530	1	-14
513.700	1	-13
513.871	1	-5
514.041	1	-4
514.211	1	-9
514.381	1	-3
514.551	1	-10
514.721	1	0
514.892	1	1
515.062	1	-9
515.232	1	-13
515.402	1	-1
515.572	1	-5
515.742	1	-9
515.912	1	-3
516.083	1	-4
516.253	1	-9
516.423	1	-4
516.593	1	-4
516.763	1	3
516.933	1	-3
517.104	1	2
517.274	1	-8
517.444	1	-3
517.614	1	-7
517.784	1	0
517.954	1	-10
518.124	1	7
518.294	1	-12
518.465	1	-6
518.635	1	-8
518.805	1	3
518.975	1	-10
519.145	1	2
519.315	1	-12
519.485	1	-6
519.656	1	-1
519.826	1	-4
519.996	1	-7
520.166	1	-7
520.336	1	0
520.506	1	-9
520.676	1	-10
520.846	1	-8
521.017	1	-3
521.187	1	-6
521.357	1	-11
521.527	1	-2
521.697	1	-3
521.867	1	-14
522.037	1	-10
522.207	1	11
522.377	1	-9
522.548	1	-15
522.718	1	-10
522.888	1	5
523.058	1	0
523.228	1	-6
523.398	1	2
523.568	1	0
523.738	1	-2
523.909	1	9
524.079	1	-9
524.249	1	-4
524.419	1	-15
524.589	1	-5
524.759	1	-9
524.929	1	2
525.099	1	-6
525.269	1	-5
525.439	1	-12
525.610	1	1
525.780	1	-5
525.950	1	-3
526.120	1	-5
526.290	1	1
526.460	1	-7
526.630	1	2
526.800	1	-1
526.970	1	-10
527.140	1	0
527.311	1	-8
527.481	1	-11
527.651	1	-4
527.821	1	-14
527.991	1	0
528.161	1	-2
528.331	1	-5
528.501	1	-10
528.671	1	-9
528.841	1	-3
529.011	1	-13
529.181	1	1
529.352	1	-3
529.522	1	-3
529.692	1	-1
529.862	1	-7
530.032	1	-9
530.202	1	-2
530.372	1	-11
530.542	1	-5
530.712	1	-7
530.882	1	-18
531.052	1	0
531.222	1	-2
531.392	1	-2
531.563	1	-8
531.733	1	-9
531.903	1	1
532.073	1	2
532.243	1	-4
532.413	1	-6
532.583	1	-4
532.753	1	4
532.923	1	-5
533.093	1	-11
533.263	1	-2
533.433	1	8
533.603	1	0
533.773	1	-12
533.943	1	-2
534.113	1	3
534.284	1	0
534.454	1	-4
534.624	1	-11
534.794	1	2
534.964	1	-5
535.134	1	1
535.304	1	-5
535.474	1	-7
535.644	1	-15
535.814	1	0
535.984	1	7
536.154	1	0
536.324	1	-1
536.494	1	-13
536.664	1	-10
536.834	1	0
537.004	1	-7
537.174	1	-10
537.344	1	-3
537.514	1	-2
537.685	1	-2
537.855	1	-1
538.025	1	-1
538.195	1	-9
538.365	1	-12
538.535	1	-18
538.705	1	-7
538.875	1	-1
539.045	1	-18
539.215	1	2
539.385	1	0
539.555	1	-5
539.725	1	-8
539.895	1	-7
540.065	1	-2
540.235	1	-7
540.405	1	-9
540.575	1	4
540.745	1	7
540.915	1	-12
541.085	1	4
541.255	1	-10
541.425	1	0
541.595	1	-9
541.765	1	-10
541.935	1	0
542.105	1	-4
542.275	1	5
542.445	1	-13
542.615	1	-7
542.785	1	-11
542.955	1	-2
543.125	1	-10
543.295	1	-10
543.465	1	-7
543.635	1	-10
543.805	1	1
543.975	1	-1
544.145	1	-4
544.315	1	-8
544.485	1	-16
544.655	1	-5
544.825	1	0
544.995	1	2
545.165	1	-5
545.335	1	-5
545.505	1	2
545.675	1	-5
545.845	1	-10
546.015	1	-2
546.185	1	5
546.355	1	4
546.525	1	-8
546.695	1	-11
546.865	1	-4
547.035	1	-11
547.205	1	6
547.375	1	-1
547.545	1	-6
547.715	1	-6
547.885	1	-14
548.055	1	-1
548.225	1	9
548.395	1	-11
548.565	1	1
548.735	1	-2
548.905	1	-1
549.075	1	-8
549.245	1	-15
549.415	1	-16
549.585	1	-2
549.755	1	-3
549.925	1	-4
550.095	1	-4
550.265	1	-3
550.435	1	-1
550.605	1	-1
550.775	1	-5
550.945	1	4
551.115	1	-9
551.285	1	1
551.455	1	-7
551.625	1	-7
551.795	1	-8
551.965	1	-10
552.135	1	0
552.305	1	-3
552.475	1	2
552.645	1	-5
552.815	1	-1
552.985	1	-2
553.155	1	0
553.325	1	-3
553.495	1	2
553.665	1	3
553.835	1	-7
554.004	1	-3
554.174	1	-6
554.344	1	-9
554.514	1	-9
554.684	1	-3
554.854	1	-7
555.024	1	-3
555.194	1	-10
555.364	1	6
555.534	1	0
555.704	1	2
555.874	1	-10
556.044	1	-5
556.214	1	-7
556.384	1	-6
556.554	1	1
556.724	1	-10
556.894	1	-6
557.064	1	-2
557.234	1	2
557.404	1	-8
557.573	1	0
557.743	1	-10
557.913	1	-1
558.083	1	-3
558.253	1	-7
558.423	1	-8
558.593	1	0
558.763	1	0
558.933	1	-3
559.103	1	-3
559.273	1	-9
559.443	1	-15
559.613	1	-7
559.783	1	-8
559.953	1	-6
560.122	1	-14
560.292	1	-2
560.462	1	-4
560.632	1	1
560.802	1	1
560.972	1	-3
561.142	1	-3
561.312	1	-7
561.482	1	-14
561.652	1	-10
561.822	1	-5
561.992	1	-3
562.162	1	-6
562.331	1	9
562.501	1	-3
562.671	1	2
562.841	1	-7
563.011	1	-6
563.181	1	-9
563.351	1	0
563.521	1	-15
563.691	1	-14
563.861	1	-2
564.031	1	-7
564.201	1	-13
564.370	1	-9
564.540	1	-4
564.710	1	-14
564.880	1	-4
565.050	1	3
565.220	1	1
565.390	1	-1
565.560	1	-3
565.730	1	-8
565.900	1	0
566.069	1	-16
566.239	1	-1
566.409	1	-14
566.579	1	-14
566.749	1	0
566.919	1	2
567.089	1	-9
567.259	1	-6
567.429	1	8
567.599	1	0
567.768	1	-1
567.938	1	-3
568.108	1	-5
568.278	1	0
568.448	1	-11
568.618	1	5
568.788	1	-3
568.958	1	0
569.128	1	-6
569.297	1	3
569.467	1	-8
569.637	1	-11
569.807	1	6
569.977	1	-15
570.147	1	-6
570.317	1	-12
570.487	1	5
570.656	1	-9
570.826	1	-10
570.996	1	-4
571.166	1	-6
571.336	1	-15
571.506	1	-1
571.676	1	-7
571.846	1	-3
572.015	1	-14
572.185	1	-6
572.355	1	-3
572.525	1	-1
572.695	1	-4
572.865	1	3
573.035	1	-7
573.205	1	-11
573.374	1	-9
573.544	1	-5
573.714	1	-5
573.884	1	-2
574.054	1	3
574.224	1	-1
574.394	1	-5
574.563	1	-6
574.733	1	1
574.903	1	-11
575.073	1	-13
575.243	1	-7
575.413	1	-10
575.583	1	4
575.752	1	-8
575.922	1	6
576.092	1	4
576.262	1	2
576.432	1	-5
576.602	1	0
576.772	1	-15
576.941	1	-13
577.111	1	-5
577.281	1	6
577.451	1	-4
577.621	1	5
577.791	1	-2
577.960	1	5
578.130	1	-10
578.300	1	-5
578.470	1	-5
578.640	1	3
578.810	1	-4
578.979	1	-14
579.149	1	3
579.319	1	-4
579.489	1	-1
579.659	1	-10
579.829	1	-7
579.998	1	-12
580.168	1	-7
580.338	1	-3
580.508	1	2
580.678	1	-8
580.848	1	-9
581.017	1	-6
581.187	1	-7
581.357	1	-18
581.527	1	-5
581.697	1	-13
581.867	1	-8
582.036	1	-15
582.206	1	-4
582.376	1	-6
582.546	1	3
582.716	1	-5
582.885	1	2
583.055	1	-5
583.225	1	-8
583.395	1	-2
583.565	1	-9
583.735	1	-9
583.904	1	-4
584.074	1	-6
584.244	1	0
584.414	1	2
584.584	1	-5
584.753	1	-13
584.923	1	-11
585.093	1	-5
585.263	1	-11
585.433	1	-9
585.602	1	11
585.772	1	-3
585.942	1	-3
586.112	1	-10
586.282	1	-1
586.451	1	5
586.621	1	-6
586.791	1	-1
586.961	1	-4
587.131	1	3
587.300	1	1
587.470	1	-19
587.640	1	-16
587.810	1	-7
587.980	1	-7
588.149	1	-2
588.319	1	-1
588.489	1	-7
588.659	1	-9
588.829	1	0
588.998	1	3
589.168	1	1
589.338	1	-15
589.508	1	-6
589.677	1	0
589.847	1	-11
590.017	1	-10
590.187	1	-10
590.357	1	1
590.526	1	-6
590.696	1	-11
590.866	1	-31
591.036	1	7
591.205	1	-1
591.375	1	-16
591.545	1	-3
591.715	1	-11
591.885	1	-3
592.054	1	-8
592.224	1	-1
592.394	1	-6
592.564	1	-2
592.733	1	-5
592.903	1	-7
593.073	1	0
593.243	1	-5
593.412	1	6
593.582	1	-13
593.752	1	-8
593.922	1	5
594.091	1	-7
594.261	1	-6
594.431	1	-5
594.601	1	-17
594.771	1	-10
594.940	1	1
595.110	1	6
595.280	1	-2
595.450	1	10
595.619	1	-6
595.789	1	-11
595.959	1	-11
596.129	1	3
596.298	1	6
596.468	1	-11
596.638	1	-11
596.808	1	4
596.977	1	-2
597.147	1	0
597.317	1	-8
597.487	1	-11
597.656	1	-20
597.826	1	2
597.996	1	-6
598.166	1	-1
598.335	1	-5
598.505	1	-3
598.675	1	1
598.844	1	-5
599.014	1	-10
599.184	1	-17
599.354	1	7
599.523	1	-3
599.693	1	-8
599.863	1	-9
600.033	1	-12
600.202	1	-5
600.372	1	-12
600.542	1	0
600.712	1	-14
600.881	1	-3
601.051	1	-2
601.221	1	-7
601.390	1	-4
601.560	1	-8
601.730	1	-9
601.900	1	-9
602.069	1	-6
602.239	1	-13
602.409	1	-6
602.578	1	-4
602.748	1	-5
602.918	1	0
603.088	1	-8
603.257	1	-7
603.427	1	-14
603.597	1	0
603.767	1	-3
603.936	1	-1
604.106	1	0
604.276	1	-8
604.445	1	-11
604.615	1	6
604.785	1	9
604.954	1	-5
605.124	1	6
605.294	1	-7
605.464	1	-6
605.633	1	-1
605.803	1	-7
605.973	1	8
606.142	1	-2
606.312	1	2
606.482	1	-13
606.652	1	-7
606.821	1	-7
606.991	1	-13
607.161	1	-8
607.330	1	-7
607.500	1	-2
607.670	1	-8
607.839	1	-4
608.009	1	-3
608.179	1	-1
608.348	1	-1
608.518	1	-3
608.688	1	-10
608.858	1	-11
609.027	1	6
609.197	1	-6
609.367	1	-19
609.536	1	-4
609.706	1	0
609.876	1	-10
610.045	1	6
610.215	1	11
610.385	1	7
610.554	1	2
610.724	1	-6
610.894	1	-3
611.063	1	-4
611.233	1	-10
611.403	1	0
611.572	1	-6
611.742	1	-2
611.912	1	-11
612.081	1	1
612.251	1	-4
612.421	1	-2
612.590	1	-18
612.760	1	0
612.930	1	-2
613.099	1	3
613.269	1	-10
613.439	1	3
613.608	1	-5
613.778	1	-4
613.948	1	-13
614.117	1	-13
614.287	1	-4
614.457	1	-11
614.626	1	-4
614.796	1	-19
614.966	1	7
615.135	1	3
615.305	1	-5
615.475	1	1
615.644	1	-19
615.814	1	-4
615.984	1	-5
616.153	1	-12
616.323	1	-11
616.493	1	-10
616.662	1	6
616.832	1	-6
617.002	1	9
617.171	1	-12
617.341	1	-5
617.511	1	-13
617.680	1	-6
617.850	1	5
618.019	1	-5
618.189	1	-5
618.359	1	-4
618.528	1	-2
618.698	1	-2
618.868	1	-3
619.037	1	-9
619.207	1	-6
619.377	1	-4
619.546	1	-6
619.716	1	-5
619.885	1	-8
620.055	1	-4
620.225	1	-7
620.394	1	-10
620.564	1	6
620.734	1	-2
620.903	1	16
621.073	1	2
621.242	1	6
621.412	1	-14
621.582	1	-4
621.751	1	-13
621.921	1	-10
622.091	1	-3
622.260	1	-5
622.430	1	-2
622.599	1	-2
622.769	1	-13
622.939	1	-8
623.108	1	-9
623.278	1	-6
623.448	1	-3
623.617	1	-2
623.787	1	1
623.956	1	-9
624.126	1	4
624.296	1	-1
624.465	1	0
624.635	1	-9
624.804	1	-12
624.974	1	-4
625.144	1	-2
625.313	1	-7
625.483	1	-1
625.652	1	-6
625.822	1	-3
625.992	1	6
626.161	1	-10
626.331	1	0
626.501	1	-13
626.670	1	-3
626.840	1	-4
627.009	1	-8
627.179	1	6
627.348	1	-1
627.518	1	-11
627.688	1	-19
627.857	1	0
628.027	1	-5
628.196	1	4
628.366	1	5
628.536	1	-10
628.705	1	-3
628.875	1	-10
629.044	1	-9
629.214	1	-8
629.384	1	-15
629.553	1	-2
629.723	1	-4
629.892	1	-10
630.062	1	-7
630.232	1	-9
630.401	1	6
630.571	1	-6
630.740	1	-2
630.910	1	4
631.079	1	2
631.249	1	-13
631.419	1	-2
631.588	1	-5
631.758	1	-8
631.927	1	2
632.097	1	-12
632.266	1	-10
632.436	1	2
632.606	1	0
632.775	1	-4
632.945	1	-2
633.114	1	-2
633.284	1	-15
633.453	1	-5
633.623	1	3
633.793	1	-1
633.962	1	1
634.132	1	-15
634.301	1	-3
634.471	1	-12
634.640	1	-11
634.810	1	-7
634.979	1	-7
635.149	1	-3
635.319	1	3
635.488	1	-6
635.658	1	0
635.827	1	-7
635.997	1	-8
636.166	1	-13
636.336	1	2
636.505	1	-8
636.675	1	-1
636.845	1	0
637.014	1	9
637.184	1	-2
637.353	1	-4
637.523	1	-10
637.692	1	-9
637.862	1	-15
638.031	1	-6
638.201	1	-10
638.370	1	1
638.540	1	-3
638.710	1	-15
638.879	1	-6
639.049	1	-6
639.218	1	-11
639.388	1	-1
639.557	1	-13
639.727	1	0
639.896	1	-8
640.066	1	-8
640.235	1	-16
640.405	1	7
640.574	1	2
640.744	1	3
640.914	1	-11
641.083	1	3
641.253	1	-3
641.422	1	-12
641.592	1	-11
641.761	1	-6
641.931	1	-6
642.100	1	-5
642.270	1	-16
642.439	1	2
642.609	1	8
642.778	1	-5
642.948	1	-7
643.117	1	-8
643.287	1	-9
643.456	1	4
643.626	1	-7
643.795	1	8
643.965	1	-15
644.134	1	9
644.304	1	-3
644.473	1	-4
644.643	1	-13
644.812	1	-6
644.982	1	-4
645.151	1	-8
645.321	1	0
645.490	1	-6
645.660	1	3
645.829	1	-10
645.999	1	-5
646.168	1	0
646.338	1	-16
646.507	1	-4
646.677	1	0
646.846	1	-14
647.016	1	-7
647.185	1	-7
647.355	1	-9
647.524	1	-5
647.694	1	2
647.863	1	-5
648.033	1	-11
648.202	1	-1
648.372	1	-7
648.541	1	3
648.711	1	-10
648.880	1	-7
649.050	1	-15
649.219	1	-4
649.389	1	-5
649.558	1	3
649.728	1	3
649.897	1	2
650.067	1	-9
650.236	1	-10
650.406	1	-10
650.575	1	-12
650.745	1	-1
650.914	1	1
651.084	1	-21
651.253	1	-2
651.423	1	-5
651.592	1	-12
651.762	1	5
651.931	1	-7
652.101	1	-6
652.270	1	-24
652.440	1	-3
652.609	1	-1
652.778	1	-8
652.948	1	-12
653.117	1	9
653.287	1	-11
653.456	1	-7
653.626	1	2
653.795	1	-13
653.965	1	3
654.134	1	-7
654.304	1	-12
654.473	1	-9
654.643	1	-3
654.812	1	-1
654.982	1	-5
655.151	1	1
655.320	1	6
655.490	1	-1
655.659	1	-2
655.829	1	-8
655.998	1	-4
656.168	1	-8
656.337	1	-22
656.507	1	-9
656.676	1	3
656.846	1	2
657.015	1	-4
657.184	1	-2
657.354	1	-5
657.523	1	-11
657.693	1	4
657.862	1	-3
658.032	1	-2
658.201	1	-7
658.371	1	-5
658.540	1	-2
658.709	1	-3
658.879	1	6
659.048	1	-13
659.218	1	-4
659.387	1	-11
659.557	1	-4
659.726	1	3
659.895	1	-7
660.065	1	-10
660.234	1	-6
660.404	1	3
660.573	1	-5
660.743	1	-4
660.912	1	-10
661.081	1	-12
661.251	1	6
661.420	1	-2
661.590	1	-11
661.759	1	-3
661.929	1	1
662.098	1	-3
662.267	1	-9
662.437	1	-9
662.606	1	-5
662.776	1	-4
662.945	1	-7
663.115	1	-13
663.284	1	-8
663.453	1	-11
663.623	1	-6
663.792	1	-6
663.962	1	-8
664.131	1	-4
664.300	1	-8
664.470	1	-4
664.639	1	-9
664.809	1	0
664.978	1	-2
665.148	1	-5
665.317	1	-2
665.486	1	-13
665.656	1	13
665.825	1	2
665.995	1	-12
666.164	1	-8
666.333	1	5
666.503	1	2
666.672	1	-16
666.842	1	-12
667.011	1	-1
667.180	1	-7
667.350	1	0
667.519	1	-4
667.689	1	-6
667.858	1	-9
668.027	1	-10
668.197	1	-1
668.366	1	-9
668.536	1	-4
668.705	1	-6
668.874	1	-6
669.044	1	-2
669.213	1	-8
669.382	1	3
669.552	1	-10
669.721	1	-9
669.891	1	-10
670.060	1	-12
670.229	1	4
670.399	1	-2
670.568	1	-5
670.738	1	0
670.907	1	-3
671.076	1	-7
671.246	1	-3
671.415	1	-11
671.584	1	-2
671.754	1	-7
671.923	1	4
672.093	1	1
672.262	1	1
672.431	1	-11
672.601	1	1
672.770	1	-6
672.939	1	-1
673.109	1	-11
673.278	1	-4
673.448	1	-9
673.617	1	-3
673.786	1	-7
