325.333	1	8
325.504	1	6
325.675	1	5
325.846	1	5
326.017	1	11
326.188	1	11
326.359	1	14
326.531	1	-2
326.702	1	-13
326.873	1	15
327.044	1	2
327.215	1	-2
327.386	1	2
327.557	1	13
327.728	1	2
327.899	1	7
328.070	1	15
328.241	1	1
328.412	1	3
328.583	1	9
328.754	1	2
328.926	1	17
329.097	1	-6
329.268	1	8
329.439	1	-3
329.610	1	6
329.781	1	-2
329.952	1	8
330.123	1	5
330.294	1	7
330.465	1	-2
330.636	1	8
330.807	1	11
330.978	1	15
331.149	1	7
331.320	1	0
331.492	1	-3
331.663	1	2
331.834	1	16
332.005	1	8
332.176	1	14
332.347	1	16
332.518	1	3
332.689	1	1
332.860	1	4
333.031	1	17
333.202	1	-2
333.373	1	-4
333.544	1	12
333.715	1	5
333.886	1	-7
334.057	1	8
334.228	1	1
334.399	1	1
334.570	1	-11
334.741	1	6
334.912	1	-4
335.084	1	4
335.255	1	1
335.426	1	13
335.597	1	1
335.768	1	0
335.939	1	7
336.110	1	5
336.281	1	-1
336.452	1	2
336.623	1	9
336.794	1	2
336.965	1	-1
337.136	1	11
337.307	1	17
337.478	1	5
337.649	1	3
337.820	1	14
337.991	1	-4
338.162	1	0
338.333	1	-1
338.504	1	16
338.675	1	3
338.846	1	7
339.017	1	0
339.188	1	2
339.359	1	2
339.530	1	-11
339.701	1	13
339.872	1	13
340.043	1	9
340.214	1	2
340.385	1	4
340.556	1	14
340.727	1	9
340.898	1	9
341.069	1	5
341.240	1	-8
341.411	1	7
341.582	1	-2
341.753	1	6
341.924	1	0
342.095	1	5
342.266	1	5
342.437	1	13
342.608	1	7
342.779	1	11
342.950	1	-7
343.121	1	4
343.292	1	13
343.463	1	14
343.634	1	3
343.805	1	-2
343.976	1	-1
344.147	1	4
344.318	1	4
344.489	1	11
344.660	1	-5
344.831	1	4
345.002	1	8
345.173	1	12
345.344	1	8
345.515	1	-1
345.686	1	-2
345.857	1	6
346.028	1	3
346.199	1	6
346.370	1	-3
346.541	1	5
346.712	1	7
346.883	1	2
347.054	1	4
347.225	1	-2
347.396	1	-11
347.567	1	10
347.738	1	0
347.909	1	4
348.080	1	1
348.251	1	9
348.422	1	7
348.593	1	6
348.764	1	8
348.935	1	-7
349.106	1	4
349.277	1	-4
349.448	1	7
349.619	1	-9
349.790	1	5
349.961	1	7
350.132	1	12
350.303	1	-5
350.474	1	-13
350.645	1	-1
350.816	1	-7
350.987	1	3
351.157	1	-7
351.328	1	-10
351.499	1	0
351.670	1	-2
351.841	1	17
352.012	1	2
352.183	1	-4
352.354	1	5
352.525	1	-11
352.696	1	2
352.867	1	-5
353.038	1	12
353.209	1	-1
353.380	1	1
353.551	1	-1
353.722	1	-11
353.893	1	13
354.064	1	-6
354.235	1	1
354.406	1	0
354.576	1	8
354.747	1	-4
354.918	1	6
355.089	1	4
355.260	1	7
355.431	1	11
355.602	1	-3
355.773	1	-1
355.944	1	-5
356.115	1	3
356.286	1	0
356.457	1	10
356.628	1	-14
356.799	1	-3
356.970	1	-2
357.141	1	-4
357.311	1	5
357.482	1	-3
357.653	1	-2
357.824	1	4
357.995	1	10
358.166	1	-4
358.337	1	-2
358.508	1	1
358.679	1	-16
358.850	1	11
359.021	1	-3
359.192	1	0
359.363	1	-2
359.533	1	7
359.704	1	2
359.875	1	-8
360.046	1	0
360.217	1	0
360.388	1	3
360.559	1	-4
360.730	1	2
360.901	1	0
361.072	1	-1
361.243	1	8
361.414	1	4
361.584	1	5
361.755	1	8
361.926	1	-5
362.097	1	11
362.268	1	3
362.439	1	-3
362.610	1	-2
362.781	1	-2
362.952	1	-4
363.123	1	2
363.293	1	1
363.464	1	-6
363.635	1	2
363.806	1	-2
363.977	1	-3
364.148	1	-1
364.319	1	-4
364.490	1	3
364.661	1	8
364.832	1	2
365.002	1	-4
365.173	1	-3
365.344	1	2
365.515	1	7
365.686	1	-6
365.857	1	0
366.028	1	-9
366.199	1	3
366.370	1	-5
366.540	1	-5
366.711	1	5
366.882	1	5
367.053	1	-5
367.224	1	-3
367.395	1	0
367.566	1	-2
367.737	1	-2
367.908	1	-4
368.078	1	0
368.249	1	-3
368.420	1	1
368.591	1	1
368.762	1	-13
368.933	1	-2
369.104	1	2
369.274	1	3
369.445	1	-4
369.616	1	-10
369.787	1	-6
369.958	1	9
370.129	1	2
370.300	1	3
370.471	1	-3
370.641	1	-5
370.812	1	-1
370.983	1	-2
371.154	1	1
371.325	1	1
371.496	1	-3
371.667	1	-10
371.837	1	-1
372.008	1	-8
372.179	1	8
372.350	1	-14
372.521	1	5
372.692	1	-5
372.863	1	-5
373.033	1	-4
373.204	1	-2
373.375	1	0
373.546	1	-2
373.717	1	-11
373.888	1	-5
374.059	1	6
374.229	1	-4
374.400	1	8
374.571	1	-5
374.742	1	-13
374.913	1	-7
375.084	1	1
375.254	1	9
375.425	1	-4
375.596	1	11
375.767	1	-6
375.938	1	1
376.109	1	-7
376.279	1	-13
376.450	1	6
376.621	1	-3
376.792	1	-7
376.963	1	-1
377.134	1	-2
377.304	1	8
377.475	1	-8
377.646	1	5
377.817	1	-6
377.988	1	7
378.159	1	-3
378.329	1	7
378.500	1	-13
378.671	1	-11
378.842	1	-7
379.013	1	-4
379.184	1	0
379.354	1	5
379.525	1	-3
379.696	1	2
379.867	1	2
380.038	1	3
380.209	1	-16
380.379	1	-18
380.550	1	-2
380.721	1	0
380.892	1	1
381.063	1	-2
381.233	1	4
381.404	1	11
381.575	1	-2
381.746	1	-10
381.917	1	1
382.087	1	-2
382.258	1	-10
382.429	1	3
382.600	1	2
382.771	1	-9
382.941	1	5
383.112	1	4
383.283	1	2
383.454	1	-4
383.625	1	-6
383.795	1	2
383.966	1	0
384.137	1	2
384.308	1	-2
384.479	1	2
384.649	1	1
384.820	1	2
384.991	1	-3
385.162	1	-5
385.333	1	4
385.503	1	-7
385.674	1	5
385.845	1	-2
386.016	1	-3
386.187	1	2
386.357	1	1
386.528	1	-8
386.699	1	-2
386.870	1	5
387.041	1	-9
387.211	1	1
387.382	1	0
387.553	1	-1
387.724	1	2
387.894	1	4
388.065	1	1
388.236	1	7
388.407	1	4
388.578	1	-5
388.748	1	2
388.919	1	-4
389.090	1	-3
389.261	1	-5
389.431	1	-6
389.602	1	4
389.773	1	-1
389.944	1	4
390.114	1	4
390.285	1	6
390.456	1	7
390.627	1	2
390.798	1	-9
390.968	1	4
391.139	1	4
391.310	1	-3
391.481	1	-6
391.651	1	5
391.822	1	-1
391.993	1	-8
392.164	1	-2
392.334	1	-2
392.505	1	-4
392.676	1	1
392.847	1	6
393.017	1	5
393.188	1	-12
393.359	1	-1
393.530	1	10
393.700	1	6
393.871	1	-4
394.042	1	-14
394.213	1	-3
394.383	1	3
394.554	1	-23
394.725	1	-4
394.896	1	8
395.066	1	-19
395.237	1	-7
395.408	1	-5
395.579	1	3
395.749	1	-13
395.920	1	-4
396.091	1	0
396.262	1	-2
396.432	1	0
396.603	1	2
396.774	1	1
396.945	1	-14
397.115	1	-1
397.286	1	-2
397.457	1	2
397.627	1	-7
397.798	1	6
397.969	1	-9
398.140	1	10
398.310	1	9
398.481	1	-5
398.652	1	-2
398.823	1	-2
398.993	1	9
399.164	1	3
399.335	1	-3
399.505	1	7
399.676	1	2
399.847	1	-1
400.018	1	6
400.188	1	-2
400.359	1	4
400.530	1	4
400.700	1	5
400.871	1	3
401.042	1	1
401.213	1	4
401.383	1	5
401.554	1	-1
401.725	1	-2
401.895	1	-6
402.066	1	15
402.237	1	6
402.408	1	0
402.578	1	-4
402.749	1	9
402.920	1	12
403.090	1	-1
403.261	1	-5
403.432	1	0
403.603	1	2
403.773	1	-1
403.944	1	-3
404.115	1	3
404.285	1	6
404.456	1	7
404.627	1	4
404.797	1	6
404.968	1	0
405.139	1	-5
405.310	1	5
405.480	1	0
405.651	1	8
405.822	1	5
405.992	1	4
406.163	1	-3
406.334	1	3
406.504	1	6
406.675	1	9
406.846	1	9
407.016	1	8
407.187	1	-9
407.358	1	5
407.528	1	-3
407.699	1	3
407.870	1	-6
408.041	1	1
408.211	1	-16
408.382	1	8
408.553	1	1
408.723	1	10
408.894	1	-1
409.065	1	3
409.235	1	4
409.406	1	1
409.577	1	-1
409.747	1	0
409.918	1	14
410.089	1	8
410.259	1	-1
410.430	1	2
410.601	1	10
410.771	1	1
410.942	1	11
411.113	1	4
411.283	1	7
411.454	1	-14
411.625	1	5
411.795	1	9
411.966	1	11
412.137	1	-1
412.307	1	6
412.478	1	10
412.649	1	-1
412.819	1	-6
412.990	1	1
413.161	1	-2
413.331	1	5
413.502	1	4
413.672	1	9
413.843	1	17
414.014	1	0
414.184	1	4
414.355	1	1
414.526	1	-3
414.696	1	11
414.867	1	-4
415.038	1	17
415.208	1	2
415.379	1	12
415.550	1	13
415.720	1	-11
415.891	1	10
416.062	1	-2
416.232	1	0
416.403	1	14
416.573	1	2
416.744	1	6
416.915	1	16
417.085	1	13
417.256	1	-6
417.427	1	2
417.597	1	3
417.768	1	3
417.939	1	4
418.109	1	9
418.280	1	7
418.450	1	2
418.621	1	13
418.792	1	12
418.962	1	4
419.133	1	9
419.304	1	5
419.474	1	19
419.645	1	2
419.815	1	7
419.986	1	10
420.157	1	16
420.327	1	9
420.498	1	6
420.669	1	5
420.839	1	-4
421.010	1	8
421.180	1	2
421.351	1	14
421.522	1	10
421.692	1	0
421.863	1	4
422.033	1	5
422.204	1	3
422.375	1	6
422.545	1	14
422.716	1	9
422.886	1	6
423.057	1	4
423.228	1	21
423.398	1	8
423.569	1	0
423.740	1	3
423.910	1	13
424.081	1	8
424.251	1	-3
424.422	1	4
424.593	1	5
424.763	1	-2
424.934	1	13
425.104	1	17
425.275	1	1
425.445	1	-19
425.616	1	5
425.787	1	8
425.957	1	8
426.128	1	1
426.298	1	10
426.469	1	6
426.640	1	3
426.810	1	3
426.981	1	1
427.151	1	3
427.322	1	1
427.493	1	9
427.663	1	8
427.834	1	10
428.004	1	0
428.175	1	6
428.345	1	6
428.516	1	3
428.687	1	19
428.857	1	9
429.028	1	5
429.198	1	1
429.369	1	7
429.540	1	13
429.710	1	-4
429.881	1	-1
430.051	1	4
430.222	1	-1
430.392	1	0
430.563	1	2
430.734	1	10
430.904	1	12
431.075	1	11
431.245	1	7
431.416	1	16
431.586	1	-1
431.757	1	5
431.927	1	4
432.098	1	18
432.269	1	11
432.439	1	8
432.610	1	7
432.780	1	11
432.951	1	2
433.121	1	5
433.292	1	-4
433.462	1	2
433.633	1	-2
433.804	1	11
433.974	1	12
434.145	1	13
434.315	1	14
434.486	1	15
434.656	1	11
434.827	1	2
434.997	1	8
435.168	1	17
435.339	1	20
435.509	1	11
435.680	1	8
435.850	1	3
436.021	1	17
436.191	1	18
436.362	1	3
436.532	1	23
436.703	1	12
436.873	1	2
437.044	1	1
437.214	1	4
437.385	1	11
437.556	1	8
437.726	1	3
437.897	1	0
438.067	1	12
438.238	1	1
438.408	1	11
438.579	1	7
438.749	1	17
438.920	1	10
439.090	1	7
439.261	1	16
439.431	1	13
439.602	1	5
439.772	1	9
439.943	1	19
440.113	1	10
440.284	1	-4
440.455	1	17
440.625	1	7
440.796	1	2
440.966	1	8
441.137	1	17
441.307	1	-3
441.478	1	-1
441.648	1	11
441.819	1	10
441.989	1	9
442.160	1	7
442.330	1	-8
442.501	1	9
442.671	1	18
442.842	1	1
443.012	1	12
443.183	1	8
443.353	1	14
443.524	1	8
443.694	1	3
443.865	1	3
444.035	1	2
444.206	1	2
444.376	1	8
444.547	1	14
444.717	1	17
444.888	1	18
445.058	1	21
445.229	1	8
445.399	1	8
445.570	1	15
445.740	1	11
445.911	1	10
446.081	1	7
446.252	1	5
446.422	1	16
446.593	1	2
446.763	1	16
446.934	1	23
447.104	1	11
447.275	1	7
447.445	1	8
447.616	1	13
447.786	1	7
447.957	1	12
448.127	1	-1
448.298	1	13
448.468	1	19
448.639	1	1
448.809	1	16
448.979	1	4
449.150	1	12
449.320	1	24
449.491	1	9
449.661	1	12
449.832	1	16
450.002	1	7
450.173	1	14
450.343	1	7
450.514	1	2
450.684	1	5
450.855	1	14
451.025	1	21
451.196	1	19
451.366	1	19
451.537	1	9
451.707	1	2
451.878	1	11
452.048	1	16
452.218	1	12
452.389	1	10
452.559	1	6
452.730	1	10
452.900	1	20
453.071	1	9
453.241	1	5
453.412	1	17
453.582	1	9
453.753	1	7
453.923	1	10
454.093	1	17
454.264	1	10
454.434	1	21
454.605	1	7
454.775	1	3
454.946	1	21
455.116	1	15
455.287	1	16
455.457	1	14
455.628	1	20
455.798	1	12
455.968	1	15
456.139	1	6
456.309	1	4
456.480	1	13
456.650	1	17
456.821	1	6
456.991	1	-5
457.161	1	21
457.332	1	14
457.502	1	6
457.673	1	16
457.843	1	10
458.014	1	10
458.184	1	15
458.355	1	12
458.525	1	11
458.695	1	10
458.866	1	12
459.036	1	1
459.207	1	19
459.377	1	13
459.548	1	11
459.718	1	8
459.888	1	5
460.059	1	5
460.229	1	4
460.400	1	-8
460.570	1	11
460.740	1	6
460.911	1	12
461.081	1	21
461.252	1	21
461.422	1	19
461.593	1	12
461.763	1	14
461.933	1	8
462.104	1	7
462.274	1	8
462.445	1	13
462.615	1	4
462.785	1	14
462.956	1	12
463.126	1	19
463.297	1	8
463.467	1	18
463.638	1	8
463.808	1	6
463.978	1	2
464.149	1	18
464.319	1	6
464.490	1	14
464.660	1	9
464.830	1	19
465.001	1	13
465.171	1	5
465.342	1	12
465.512	1	0
465.682	1	4
465.853	1	10
466.023	1	11
466.194	1	8
466.364	1	-1
466.534	1	4
466.705	1	17
466.875	1	7
467.045	1	0
467.216	1	4
467.386	1	7
467.557	1	5
467.727	1	18
467.897	1	-1
468.068	1	13
468.238	1	2
468.409	1	7
468.579	1	9
468.749	1	10
468.920	1	11
469.090	1	2
469.260	1	1
469.431	1	5
469.601	1	25
469.772	1	13
469.942	1	22
470.112	1	4
470.283	1	14
470.453	1	0
470.623	1	6
470.794	1	17
470.964	1	21
471.135	1	9
471.305	1	10
471.475	1	12
471.646	1	6
471.816	1	15
471.986	1	12
472.157	1	12
472.327	1	15
472.497	1	11
472.668	1	17
472.838	1	13
473.009	1	14
473.179	1	11
473.349	1	-1
473.520	1	1
473.690	1	12
473.860	1	7
474.031	1	3
474.201	1	9
474.371	1	12
474.542	1	17
474.712	1	15
474.882	1	14
475.053	1	7
475.223	1	-4
475.394	1	6
475.564	1	3
475.734	1	4
475.905	1	12
476.075	1	15
476.245	1	7
476.416	1	13
476.586	1	4
476.756	1	18
476.927	1	5
477.097	1	13
477.267	1	3
477.438	1	12
477.608	1	4
477.778	1	10
477.949	1	12
478.119	1	14
478.289	1	9
478.460	1	10
478.630	1	14
478.800	1	8
478.971	1	0
479.141	1	5
479.311	1	24
479.482	1	11
479.652	1	-1
479.822	1	8
479.993	1	14
480.163	1	4
480.333	1	-1
480.504	1	-2
480.674	1	2
480.844	1	-4
481.015	1	11
481.185	1	12
481.355	1	12
481.525	1	11
481.696	1	13
481.866	1	7
482.036	1	19
482.207	1	0
482.377	1	8
482.547	1	18
482.718	1	1
482.888	1	5
483.058	1	12
483.229	1	10
483.399	1	10
483.569	1	8
483.740	1	0
483.910	1	4
484.080	1	-6
484.250	1	4
484.421	1	10
484.591	1	17
484.761	1	14
484.932	1	11
485.102	1	18
485.272	1	5
485.443	1	3
485.613	1	18
485.783	1	13
485.953	1	11
486.124	1	11
486.294	1	13
486.464	1	6
486.635	1	0
486.805	1	3
486.975	1	19
487.146	1	3
487.316	1	8
487.486	1	-1
487.656	1	17
487.827	1	-3
487.997	1	5
488.167	1	0
488.338	1	13
488.508	1	11
488.678	1	5
488.848	1	10
489.019	1	5
489.189	1	13
489.359	1	9
489.529	1	5
489.700	1	0
489.870	1	-1
490.040	1	6
490.211	1	7
490.381	1	22
490.551	1	9
490.721	1	14
490.892	1	13
491.062	1	10
491.232	1	11
491.402	1	-8
491.573	1	9
491.743	1	-7
491.913	1	7
492.084	1	11
492.254	1	7
492.424	1	2
492.594	1	15
492.765	1	2
492.935	1	2
493.105	1	5
493.275	1	21
493.446	1	14
493.616	1	6
493.786	1	16
493.956	1	5
494.127	1	17
494.297	1	4
494.467	1	-5
494.637	1	-3
494.808	1	2
494.978	1	0
495.148	1	1
495.318	1	4
495.489	1	7
495.659	1	-1
495.829	1	0
495.999	1	14
496.170	1	10
496.340	1	4
496.510	1	6
496.680	1	-1
496.851	1	-2
497.021	1	3
497.191	1	0
497.361	1	8
497.532	1	9
497.702	1	2
497.872	1	8
498.042	1	5
498.213	1	0
498.383	1	-4
498.553	1	7
498.723	1	9
498.894	1	5
499.064	1	7
499.234	1	1
499.404	1	-1
499.574	1	10
499.745	1	2
499.915	1	4
500.085	1	-3
500.255	1	-2
500.426	1	5
500.596	1	11
500.766	1	11
500.936	1	2
501.106	1	-1
501.277	1	4
501.447	1	1
501.617	1	10
501.787	1	-3
501.958	1	16
502.128	1	10
502.298	1	-5
502.468	1	9
502.638	1	7
502.809	1	3
502.979	1	7
503.149	1	13
503.319	1	1
503.489	1	10
503.660	1	-6
503.830	1	4
504.000	1	-1
504.170	1	10
504.340	1	6
504.511	1	-4
504.681	1	6
504.851	1	14
505.021	1	2
505.192	1	14
505.362	1	-1
505.532	1	8
505.702	1	2
505.872	1	6
506.043	1	-7
506.213	1	5
506.383	1	3
506.553	1	7
506.723	1	0
506.893	1	3
507.064	1	5
507.234	1	4
507.404	1	-2
507.574	1	0
507.744	1	2
507.915	1	10
508.085	1	10
508.255	1	3
508.425	1	-3
508.595	1	13
508.766	1	3
508.936	1	5
509.106	1	2
509.276	1	-12
509.446	1	-5
509.616	1	2
509.787	1	3
509.957	1	-4
510.127	1	0
510.297	1	1
510.467	1	14
510.638	1	-4
510.808	1	15
510.978	1	-5
511.148	1	3
511.318	1	-2
511.488	1	8
511.659	1	-2
511.829	1	10
511.999	1	-2
512.169	1	2
512.339	1	-3
512.509	1	11
512.680	1	6
512.850	1	9
513.020	1	-3
513.190	1	9
513.360	1	-2
513.530	1	3
513.700	1	5
513.871	1	7
514.041	1	0
514.211	1	6
514.381	1	10
514.551	1	1
514.721	1	7
514.892	1	6
515.062	1	-2
515.232	1	2
515.402	1	4
515.572	1	-2
515.742	1	10
515.912	1	7
516.083	1	12
516.253	1	-10
516.423	1	2
516.593	1	0
516.763	1	13
516.933	1	-6
517.104	1	1
517.274	1	2
517.444	1	5
517.614	1	-6
517.784	1	5
517.954	1	-8
518.124	1	8
518.294	1	-7
518.465	1	8
518.635	1	5
518.805	1	1
518.975	1	1
519.145	1	9
519.315	1	-3
519.485	1	1
519.656	1	-1
519.826	1	3
519.996	1	-8
520.166	1	3
520.336	1	1
520.506	1	3
520.676	1	2
520.846	1	1
521.017	1	6
521.187	1	6
521.357	1	5
521.527	1	0
521.697	1	-4
521.867	1	-6
522.037	1	-10
522.207	1	9
522.377	1	2
522.548	1	3
522.718	1	-6
522.888	1	6
523.058	1	13
523.228	1	5
523.398	1	10
523.568	1	4
523.738	1	10
523.909	1	14
524.079	1	4
524.249	1	2
524.419	1	-2
524.589	1	4
524.759	1	-10
524.929	1	9
525.099	1	-2
525.269	1	3
525.439	1	1
525.610	1	12
525.780	1	6
525.950	1	11
526.120	1	-4
526.290	1	1
526.460	1	5
526.630	1	0
526.800	1	6
526.970	1	-9
527.140	1	1
527.311	1	6
527.481	1	-4
527.651	1	15
527.821	1	3
527.991	1	5
528.161	1	4
528.331	1	10
528.501	1	-6
528.671	1	-4
528.841	1	-10
529.011	1	6
529.181	1	2
529.352	1	-6
529.522	1	4
529.692	1	11
529.862	1	8
530.032	1	3
530.202	1	1
530.372	1	1
530.542	1	-2
530.712	1	-2
530.882	1	-4
531.052	1	7
531.222	1	-4
531.392	1	4
531.563	1	-8
531.733	1	1
531.903	1	5
532.073	1	5
532.243	1	1
532.413	1	1
532.583	1	8
532.753	1	3
532.923	1	-7
533.093	1	9
533.263	1	1
533.433	1	3
533.603	1	10
533.773	1	-1
533.943	1	6
534.113	1	9
534.284	1	6
534.454	1	7
534.624	1	0
534.794	1	5
534.964	1	1
535.134	1	8
535.304	1	7
535.474	1	-6
535.644	1	-3
535.814	1	3
535.984	1	0
536.154	1	1
536.324	1	12
536.494	1	-1
536.664	1	0
536.834	1	3
537.004	1	4
537.174	1	11
537.344	1	3
537.514	1	-4
537.685	1	6
537.855	1	7
538.025	1	5
538.195	1	0
538.365	1	3
538.535	1	-9
538.705	1	6
538.875	1	1
539.045	1	1
539.215	1	-11
539.385	1	-2
539.555	1	15
539.725	1	-5
539.895	1	3
540.065	1	0
540.235	1	10
540.405	1	2
540.575	1	4
540.745	1	0
540.915	1	5
541.085	1	0
541.255	1	2
541.425	1	3
541.595	1	4
541.765	1	-7
541.935	1	0
542.105	1	9
542.275	1	11
542.445	1	-5
542.615	1	8
542.785	1	0
542.955	1	7
543.125	1	-8
543.295	1	-3
543.465	1	-3
543.635	1	6
543.805	1	8
543.975	1	0
544.145	1	6
544.315	1	3
544.485	1	-4
544.655	1	6
544.825	1	7
544.995	1	12
545.165	1	-4
545.335	1	-6
545.505	1	-1
545.675	1	9
545.845	1	3
546.015	1	2
546.185	1	12
546.355	1	10
546.525	1	5
546.695	1	5
546.865	1	-3
547.035	1	11
547.205	1	13
547.375	1	-2
547.545	1	4
547.715	1	-5
547.885	1	-4
548.055	1	-1
548.225	1	10
548.395	1	-5
548.565	1	7
548.735	1	2
548.905	1	14
549.075	1	-4
549.245	1	-5
549.415	1	-5
549.585	1	3
549.755	1	-3
549.925	1	6
550.095	1	3
550.265	1	4
550.435	1	-4
550.605	1	2
550.775	1	6
550.945	1	2
551.115	1	-3
551.285	1	6
551.455	1	-3
551.625	1	2
551.795	1	-5
551.965	1	0
552.135	1	8
552.305	1	3
552.475	1	9
552.645	1	1
552.815	1	7
552.985	1	11
553.155	1	2
553.325	1	-3
553.495	1	3
553.665	1	-1
553.835	1	10
554.004	1	6
554.174	1	5
554.344	1	-3
554.514	1	-1
554.684	1	-5
554.854	1	7
555.024	1	2
555.194	1	7
555.364	1	9
555.534	1	9
555.704	1	17
555.874	1	-1
556.044	1	-4
556.214	1	0
556.384	1	8
556.554	1	-4
556.724	1	0
556.894	1	-3
557.064	1	6
557.234	1	-7
557.404	1	0
557.573	1	-4
557.743	1	2
557.913	1	7
558.083	1	7
558.253	1	-6
558.423	1	3
558.593	1	7
558.763	1	6
558.933	1	2
559.103	1	-1
559.273	1	4
559.443	1	-5
559.613	1	6
559.783	1	4
559.953	1	4
560.122	1	-2
560.292	1	-6
560.462	1	1
560.632	1	9
560.802	1	18
560.972	1	8
561.142	1	6
561.312	1	-2
561.482	1	-3
561.652	1	-12
561.822	1	1
561.992	1	5
562.162	1	-3
562.331	1	9
562.501	1	5
562.671	1	10
562.841	1	-4
563.011	1	3
563.181	1	-1
563.351	1	11
563.521	1	-5
563.691	1	7
563.861	1	1
564.031	1	2
564.201	1	4
564.370	1	7
564.540	1	6
564.710	1	-4
564.880	1	7
565.050	1	7
565.220	1	0
565.390	1	-9
565.560	1	2
565.730	1	-5
565.900	1	9
566.069	1	-9
566.239	1	13
566.409	1	1
566.579	1	-16
566.749	1	-7
566.919	1	1
567.089	1	2
567.259	1	12
567.429	1	7
567.599	1	13
567.768	1	5
567.938	1	-7
568.108	1	1
568.278	1	5
568.448	1	4
568.618	1	0
568.788	1	0
568.958	1	-2
569.128	1	10
569.297	1	11
569.467	1	7
569.637	1	2
569.807	1	11
569.977	1	-6
570.147	1	-1
570.317	1	-2
570.487	1	7
570.656	1	-3
570.826	1	-6
570.996	1	1
571.166	1	0
571.336	1	-7
571.506	1	1
571.676	1	-3
571.846	1	-1
572.015	1	-1
572.185	1	10
572.355	1	1
572.525	1	7
572.695	1	0
572.865	1	7
573.035	1	2
573.205	1	5
573.374	1	0
573.544	1	3
573.714	1	0
573.884	1	-5
574.054	1	13
574.224	1	0
574.394	1	1
574.563	1	5
574.733	1	10
574.903	1	-2
575.073	1	3
575.243	1	-7
575.413	1	-9
575.583	1	14
575.752	1	-1
575.922	1	14
576.092	1	2
576.262	1	-2
576.432	1	-3
576.602	1	8
576.772	1	-4
576.941	1	5
577.111	1	-2
577.281	1	13
577.451	1	-7
577.621	1	8
577.791	1	5
577.960	1	2
578.130	1	-4
578.300	1	4
578.470	1	1
578.640	1	0
578.810	1	-6
578.979	1	6
579.149	1	6
579.319	1	3
579.489	1	4
579.659	1	1
579.829	1	0
579.998	1	-3
580.168	1	-5
580.338	1	1
580.508	1	8
580.678	1	-2
580.848	1	7
581.017	1	-9
581.187	1	-2
581.357	1	-7
581.527	1	-1
581.697	1	-8
581.867	1	-5
582.036	1	-2
582.206	1	5
582.376	1	-3
582.546	1	5
582.716	1	3
582.885	1	11
583.055	1	5
583.225	1	-3
583.395	1	5
583.565	1	-8
583.735	1	8
583.904	1	-2
584.074	1	7
584.244	1	-4
584.414	1	9
584.584	1	3
584.753	1	-8
584.923	1	3
585.093	1	1
585.263	1	-1
585.433	1	2
585.602	1	13
585.772	1	-2
585.942	1	2
586.112	1	1
586.282	1	5
586.451	1	13
586.621	1	-4
586.791	1	3
586.961	1	6
587.131	1	6
587.300	1	0
587.470	1	4
587.640	1	-6
587.810	1	9
587.980	1	1
588.149	1	19
588.319	1	-1
588.489	1	-5
588.659	1	-2
588.829	1	10
588.998	1	5
589.168	1	-5
589.338	1	8
589.508	1	0
589.677	1	9
589.847	1	-2
590.017	1	4
590.187	1	-4
590.357	1	8
590.526	1	1
590.696	1	-1
590.866	1	-15
591.036	1	5
591.205	1	9
591.375	1	-6
591.545	1	2
591.715	1	-6
591.885	1	2
592.054	1	-2
592.224	1	-2
592.394	1	1
592.564	1	10
592.733	1	13
592.903	1	11
593.073	1	7
593.243	1	3
593.412	1	1
593.582	1	-5
593.752	1	2
593.922	1	5
594.091	1	7
594.261	1	-6
594.431	1	-4
594.601	1	1
594.771	1	-5
594.940	1	0
595.110	1	6
595.280	1	1
595.450	1	10
595.619	1	4
595.789	1	3
595.959	1	3
596.129	1	20
596.298	1	2
596.468	1	4
596.638	1	6
596.808	1	6
596.977	1	7
597.147	1	-1
597.317	1	7
597.487	1	-6
597.656	1	-7
597.826	1	5
597.996	1	4
598.166	1	7
598.335	1	10
598.505	1	10
598.675	1	5
598.844	1	2
599.014	1	-5
599.184	1	-1
599.354	1	14
599.523	1	4
599.693	1	6
599.863	1	-5
600.033	1	-8
600.202	1	0
600.372	1	8
600.542	1	11
600.712	1	6
600.881	1	10
601.051	1	7
601.221	1	5
601.390	1	-6
601.560	1	2
601.730	1	0
601.900	1	-7
602.069	1	2
602.239	1	5
602.409	1	7
602.578	1	5
602.748	1	5
602.918	1	0
603.088	1	-4
603.257	1	11
603.427	1	5
603.597	1	2
603.767	1	3
603.936	1	0
604.106	1	14
604.276	1	0
604.445	1	-6
604.615	1	7
604.785	1	11
604.954	1	7
605.124	1	8
605.294	1	10
605.464	1	14
605.633	1	10
605.803	1	0
605.973	1	17
606.142	1	3
606.312	1	7
606.482	1	-6
606.652	1	7
606.821	1	0
606.991	1	-8
607.161	1	8
607.330	1	9
607.500	1	13
607.670	1	12
607.839	1	8
608.009	1	7
608.179	1	4
608.348	1	16
608.518	1	4
608.688	1	3
608.858	1	4
609.027	1	16
609.197	1	-1
609.367	1	9
609.536	1	15
609.706	1	9
609.876	1	2
610.045	1	5
610.215	1	11
610.385	1	15
610.554	1	5
610.724	1	0
610.894	1	12
611.063	1	7
611.233	1	1
611.403	1	5
611.572	1	5
611.742	1	0
611.912	1	1
612.081	1	8
612.251	1	8
612.421	1	10
612.590	1	-6
612.760	1	15
612.930	1	1
613.099	1	10
613.269	1	2
613.439	1	16
613.608	1	10
613.778	1	8
613.948	1	0
614.117	1	15
614.287	1	2
614.457	1	-2
614.626	1	5
614.796	1	5
614.966	1	17
615.135	1	8
615.305	1	8
615.475	1	11
615.644	1	11
615.814	1	7
615.984	1	8
616.153	1	4
616.323	1	2
616.493	1	4
616.662	1	13
616.832	1	2
617.002	1	17
617.171	1	10
617.341	1	12
617.511	1	1
617.680	1	13
617.850	1	13
618.019	1	10
618.189	1	14
618.359	1	10
618.528	1	8
618.698	1	4
618.868	1	14
619.037	1	8
619.207	1	-1
619.377	1	17
619.546	1	1
619.716	1	-6
619.885	1	9
620.055	1	8
620.225	1	2
620.394	1	8
620.564	1	19
620.734	1	1
620.903	1	16
621.073	1	7
621.242	1	14
621.412	1	3
621.582	1	4
621.751	1	9
621.921	1	4
622.091	1	6
622.260	1	-10
622.430	1	11
622.599	1	3
622.769	1	8
622.939	1	6
623.108	1	5
623.278	1	11
623.448	1	5
623.617	1	19
623.787	1	10
623.956	1	2
624.126	1	12
624.296	1	0
624.465	1	15
624.635	1	12
624.804	1	11
624.974	1	7
625.144	1	7
625.313	1	2
625.483	1	9
625.652	1	6
625.822	1	6
625.992	1	21
626.161	1	4
626.331	1	19
626.501	1	-2
626.670	1	5
626.840	1	3
627.009	1	-3
627.179	1	13
627.348	1	18
627.518	1	-3
627.688	1	5
627.857	1	2
628.027	1	13
628.196	1	9
628.366	1	16
628.536	1	7
628.705	1	17
628.875	1	4
629.044	1	-5
629.214	1	8
629.384	1	-1
629.553	1	14
629.723	1	9
629.892	1	2
630.062	1	-2
630.232	1	8
630.401	1	12
630.571	1	5
630.740	1	12
630.910	1	14
631.079	1	17
631.249	1	3
631.419	1	3
631.588	1	10
631.758	1	13
631.927	1	22
632.097	1	1
632.266	1	-4
632.436	1	10
632.606	1	19
632.775	1	8
632.945	1	6
633.114	1	11
633.284	1	12
633.453	1	15
633.623	1	11
633.793	1	7
633.962	1	7
634.132	1	2
634.301	1	9
634.471	1	6
634.640	1	6
634.810	1	18
634.979	1	5
635.149	1	5
635.319	1	11
635.488	1	9
635.658	1	4
635.827	1	11
635.997	1	11
636.166	1	4
636.336	1	8
636.505	1	2
636.675	1	2
636.845	1	9
637.014	1	8
637.184	1	-2
637.353	1	20
637.523	1	7
637.692	1	12
637.862	1	2
638.031	1	16
638.201	1	2
638.370	1	18
638.540	1	3
638.710	1	-2
638.879	1	9
639.049	1	4
639.218	1	7
639.388	1	17
639.557	1	1
639.727	1	9
639.896	1	6
640.066	1	9
640.235	1	-1
640.405	1	3
640.574	1	8
640.744	1	2
640.914	1	4
641.083	1	10
641.253	1	12
641.422	1	6
641.592	1	-4
641.761	1	7
641.931	1	3
642.100	1	10
642.270	1	9
642.439	1	14
642.609	1	10
642.778	1	16
642.948	1	6
643.117	1	6
643.287	1	1
643.456	1	10
643.626	1	9
643.795	1	2
643.965	1	5
644.134	1	12
644.304	1	5
644.473	1	8
644.643	1	-2
644.812	1	7
644.982	1	3
645.151	1	3
645.321	1	8
645.490	1	-6
645.660	1	6
645.829	1	7
645.999	1	4
646.168	1	12
646.338	1	1
646.507	1	-3
646.677	1	-4
646.846	1	0
647.016	1	4
647.185	1	5
647.355	1	1
647.524	1	8
647.694	1	8
647.863	1	5
648.033	1	1
648.202	1	4
648.372	1	13
648.541	1	-2
648.711	1	1
648.880	1	1
649.050	1	2
649.219	1	9
649.389	1	10
649.558	1	8
649.728	1	10
649.897	1	12
650.067	1	-4
650.236	1	1
650.406	1	12
650.575	1	10
650.745	1	8
650.914	1	11
651.084	1	-6
651.253	1	8
651.423	1	13
651.592	1	9
651.762	1	2
651.931	1	8
652.101	1	12
652.270	1	-5
652.440	1	1
652.609	1	7
652.778	1	18
652.948	1	0
653.117	1	8
653.287	1	0
653.456	1	-3
653.626	1	10
653.795	1	9
653.965	1	13
654.134	1	2
654.304	1	-2
654.473	1	5
654.643	1	7
654.812	1	13
654.982	1	2
655.151	1	11
655.320	1	11
655.490	1	-7
655.659	1	4
655.829	1	1
655.998	1	1
656.168	1	1
656.337	1	2
656.507	1	8
656.676	1	17
656.846	1	12
657.015	1	3
657.184	1	5
657.354	1	1
657.523	1	1
657.693	1	0
657.862	1	3
658.032	1	5
658.201	1	6
658.371	1	15
658.540	1	1
658.709	1	2
658.879	1	8
659.048	1	9
659.218	1	4
659.387	1	3
659.557	1	5
659.726	1	4
659.895	1	2
660.065	1	7
660.234	1	-2
660.404	1	-2
660.573	1	1
660.743	1	2
660.912	1	-9
661.081	1	-5
661.251	1	6
661.420	1	7
661.590	1	-7
661.759	1	-1
661.929	1	-6
662.098	1	1
662.267	1	-3
662.437	1	0
662.606	1	5
662.776	1	8
662.945	1	-14
663.115	1	3
663.284	1	5
663.453	1	7
663.623	1	-5
663.792	1	-7
663.962	1	5
664.131	1	3
664.300	1	11
664.470	1	3
664.639	1	5
664.809	1	3
664.978	1	6
665.148	1	1
665.317	1	-7
665.486	1	-5
665.656	1	21
665.825	1	3
665.995	1	-11
666.164	1	2
666.333	1	4
666.503	1	4
666.672	1	-6
666.842	1	7
667.011	1	7
667.180	1	8
667.350	1	3
667.519	1	-3
667.689	1	8
667.858	1	-7
668.027	1	13
668.197	1	7
668.366	1	-3
668.536	1	-5
668.705	1	-1
668.874	1	0
669.044	1	6
669.213	1	3
669.382	1	4
669.552	1	6
669.721	1	3
669.891	1	3
670.060	1	-2
670.229	1	3
670.399	1	7
670.568	1	-1
670.738	1	4
670.907	1	5
671.076	1	2
671.246	1	9
671.415	1	1
671.584	1	-1
671.754	1	-8
671.923	1	5
672.093	1	4
672.262	1	13
672.431	1	-10
672.601	1	4
672.770	1	-1
672.939	1	5
673.109	1	-5
673.278	1	-2
673.448	1	-4
673.617	1	-6
673.786	1	0
