325.333	1	2
325.504	1	-3
325.675	1	-10
325.846	1	-6
326.017	1	-9
326.188	1	-3
326.359	1	7
326.531	1	-19
326.702	1	-7
326.873	1	-4
327.044	1	-1
327.215	1	-2
327.386	1	-11
327.557	1	-7
327.728	1	-3
327.899	1	-10
328.070	1	0
328.241	1	-6
328.412	1	6
328.583	1	-5
328.754	1	3
328.926	1	1
329.097	1	-12
329.268	1	0
329.439	1	-12
329.610	1	-3
329.781	1	-19
329.952	1	1
330.123	1	-10
330.294	1	-8
330.465	1	-12
330.636	1	7
330.807	1	-4
330.978	1	-3
331.149	1	0
331.320	1	-7
331.492	1	-10
331.663	1	-6
331.834	1	1
332.005	1	2
332.176	1	-1
332.347	1	-11
332.518	1	-6
332.689	1	-3
332.860	1	-13
333.031	1	-3
333.202	1	-10
333.373	1	-11
333.544	1	-7
333.715	1	-7
333.886	1	0
334.057	1	0
334.228	1	-12
334.399	1	3
334.570	1	-11
334.741	1	7
334.912	1	-12
335.084	1	-7
335.255	1	-10
335.426	1	-8
335.597	1	-4
335.768	1	-9
335.939	1	-11
336.110	1	-8
336.281	1	-17
336.452	1	-3
336.623	1	6
336.794	1	-14
336.965	1	-4
337.136	1	-2
337.307	1	3
337.478	1	-15
337.649	1	3
337.820	1	-5
337.991	1	-3
338.162	1	-9
338.333	1	-8
338.504	1	0
338.675	1	-12
338.846	1	3
339.017	1	-7
339.188	1	-6
339.359	1	-6
339.530	1	-6
339.701	1	1
339.872	1	2
340.043	1	-4
340.214	1	-10
340.385	1	-5
340.556	1	-12
340.727	1	1
340.898	1	0
341.069	1	-10
341.240	1	-19
341.411	1	0
341.582	1	-6
341.753	1	-3
341.924	1	-4
342.095	1	-5
342.266	1	-11
342.437	1	-6
342.608	1	-1
342.779	1	7
342.950	1	-11
343.121	1	-2
343.292	1	7
343.463	1	3
343.634	1	-1
343.805	1	-7
343.976	1	-6
344.147	1	-4
344.318	1	-4
344.489	1	-9
344.660	1	-8
344.831	1	-10
345.002	1	2
345.173	1	-6
345.344	1	-10
345.515	1	-7
345.686	1	-1
345.857	1	-2
346.028	1	-2
346.199	1	-1
346.370	1	1
346.541	1	-6
346.712	1	-3
346.883	1	-1
347.054	1	-11
347.225	1	-4
347.396	1	-21
347.567	1	8
347.738	1	-8
347.909	1	7
348.080	1	-5
348.251	1	-6
348.422	1	0
348.593	1	6
348.764	1	-5
348.935	1	-6
349.106	1	-5
349.277	1	-11
349.448	1	-2
349.619	1	-14
349.790	1	3
349.961	1	-7
350.132	1	-1
350.303	1	5
350.474	1	2
350.645	1	8
350.816	1	-17
350.987	1	-4
351.157	1	-18
351.328	1	0
351.499	1	-5
351.670	1	-14
351.841	1	7
352.012	1	-4
352.183	1	-11
352.354	1	6
352.525	1	-8
352.696	1	1
352.867	1	-10
353.038	1	9
353.209	1	-2
353.380	1	-11
353.551	1	-9
353.722	1	-11
353.893	1	-1
354.064	1	-5
354.235	1	8
354.406	1	-3
354.576	1	1
354.747	1	-6
354.918	1	-1
355.089	1	-9
355.260	1	-1
355.431	1	-8
355.602	1	1
355.773	1	-13
355.944	1	1
356.115	1	-4
356.286	1	-5
356.457	1	-6
356.628	1	2
356.799	1	3
356.970	1	-2
357.141	1	-14
357.311	1	2
357.482	1	0
357.653	1	-14
357.824	1	-1
357.995	1	-2
358.166	1	-2
358.337	1	-5
358.508	1	9
358.679	1	-15
358.850	1	9
359.021	1	-13
359.192	1	-2
359.363	1	1
359.533	1	4
359.704	1	-3
359.875	1	-14
360.046	1	-9
360.217	1	3
360.388	1	-6
360.559	1	-4
360.730	1	0
360.901	1	-2
361.072	1	-8
361.243	1	2
361.414	1	-6
361.584	1	2
361.755	1	1
361.926	1	-3
362.097	1	5
362.268	1	-3
362.439	1	-11
362.610	1	8
362.781	1	9
362.952	1	-6
363.123	1	-7
363.293	1	-2
363.464	1	-2
363.635	1	0
363.806	1	-3
363.977	1	0
364.148	1	-3
364.319	1	-3
364.490	1	-2
364.661	1	-3
364.832	1	5
365.002	1	-9
365.173	1	-11
365.344	1	-3
365.515	1	5
365.686	1	-10
365.857	1	-7
366.028	1	-10
366.199	1	-14
366.370	1	1
366.540	1	-2
366.711	1	-8
366.882	1	-10
367.053	1	-6
367.224	1	-5
367.395	1	-5
367.566	1	0
367.737	1	-1
367.908	1	-14
368.078	1	-7
368.249	1	-3
368.420	1	1
368.591	1	0
368.762	1	-23
368.933	1	-12
369.104	1	4
369.274	1	-4
369.445	1	2
369.616	1	-22
369.787	1	1
369.958	1	-10
370.129	1	-9
370.300	1	-4
370.471	1	-2
370.641	1	-13
370.812	1	-7
370.983	1	-6
371.154	1	1
371.325	1	-1
371.496	1	-6
371.667	1	-6
371.837	1	-15
372.008	1	-9
372.179	1	0
372.350	1	-6
372.521	1	-2
372.692	1	-10
372.863	1	0
373.033	1	9
373.204	1	-2
373.375	1	-4
373.546	1	2
373.717	1	-13
373.888	1	-3
374.059	1	-1
374.229	1	-10
374.400	1	8
374.571	1	-9
374.742	1	2
374.913	1	-12
375.084	1	-2
375.254	1	8
375.425	1	-4
375.596	1	0
375.767	1	1
375.938	1	-8
376.109	1	-6
376.279	1	0
376.450	1	2
376.621	1	-3
376.792	1	-6
376.963	1	8
377.134	1	-7
377.304	1	5
377.475	1	-15
377.646	1	3
377.817	1	-10
377.988	1	4
378.159	1	-5
378.329	1	5
378.500	1	-7
378.671	1	1
378.842	1	-7
379.013	1	-2
379.184	1	-11
379.354	1	3
379.525	1	-6
379.696	1	6
379.867	1	-8
380.038	1	-2
380.209	1	-15
380.379	1	-11
380.550	1	-1
380.721	1	-12
380.892	1	-3
381.063	1	-5
381.233	1	0
381.404	1	1
381.575	1	-4
381.746	1	-8
381.917	1	3
382.087	1	-10
382.258	1	-12
382.429	1	-1
382.600	1	-3
382.771	1	-8
382.941	1	8
383.112	1	1
383.283	1	-1
383.454	1	-4
383.625	1	3
383.795	1	-5
383.966	1	-6
384.137	1	-1
384.308	1	-3
384.479	1	14
384.649	1	-10
384.820	1	-2
384.991	1	-8
385.162	1	-10
385.333	1	-7
385.503	1	-11
385.674	1	1
385.845	1	-17
386.016	1	-10
386.187	1	-10
386.357	1	1
386.528	1	-7
386.699	1	-1
386.870	1	-7
387.041	1	-10
387.211	1	0
387.382	1	-2
387.553	1	0
387.724	1	1
387.894	1	0
388.065	1	-3
388.236	1	2
388.407	1	1
388.578	1	-11
388.748	1	-4
388.919	1	-12
389.090	1	-7
389.261	1	-2
389.431	1	-11
389.602	1	2
389.773	1	-9
389.944	1	-4
390.114	1	3
390.285	1	-10
390.456	1	-3
390.627	1	-5
390.798	1	-15
390.968	1	-16
391.139	1	-3
391.310	1	-6
391.481	1	-10
391.651	1	-5
391.822	1	-8
391.993	1	-12
392.164	1	-5
392.334	1	-8
392.505	1	-8
392.676	1	-11
392.847	1	-3
393.017	1	-5
393.188	1	-10
393.359	1	-4
393.530	1	-6
393.700	1	1
393.871	1	-5
394.042	1	-10
394.213	1	-3
394.383	1	-3
394.554	1	-10
394.725	1	-4
394.896	1	0
395.066	1	-10
395.237	1	-11
395.408	1	-13
395.579	1	-6
395.749	1	-7
395.920	1	-5
396.091	1	-6
396.262	1	-8
396.432	1	-9
396.603	1	9
396.774	1	-10
396.945	1	-8
397.115	1	-6
397.286	1	-12
397.457	1	-5
397.627	1	2
397.798	1	1
397.969	1	-5
398.140	1	5
398.310	1	-12
398.481	1	-15
398.652	1	-8
398.823	1	-9
398.993	1	17
399.164	1	-8
399.335	1	0
399.505	1	4
399.676	1	-12
399.847	1	-6
400.018	1	-4
400.188	1	3
400.359	1	-9
400.530	1	-5
400.700	1	-7
400.871	1	8
401.042	1	-6
401.213	1	1
401.383	1	4
401.554	1	-6
401.725	1	-6
401.895	1	-8
402.066	1	5
402.237	1	-10
402.408	1	-3
402.578	1	-14
402.749	1	3
402.920	1	11
403.090	1	-2
403.261	1	-16
403.432	1	-7
403.603	1	1
403.773	1	0
403.944	1	-3
404.115	1	5
404.285	1	2
404.456	1	5
404.627	1	1
404.797	1	5
404.968	1	-14
405.139	1	-1
405.310	1	3
405.480	1	2
405.651	1	1
405.822	1	-5
405.992	1	-5
406.163	1	-6
406.334	1	-4
406.504	1	2
406.675	1	2
406.846	1	-2
407.016	1	1
407.187	1	-18
407.358	1	0
407.528	1	-11
407.699	1	3
407.870	1	-10
408.041	1	-3
408.211	1	-13
408.382	1	-3
408.553	1	-6
408.723	1	-4
408.894	1	-6
409.065	1	-6
409.235	1	-8
409.406	1	-4
409.577	1	-1
409.747	1	-2
409.918	1	8
410.089	1	0
410.259	1	-1
410.430	1	-4
410.601	1	2
410.771	1	-7
410.942	1	10
411.113	1	7
411.283	1	-3
411.454	1	-19
411.625	1	0
411.795	1	-2
411.966	1	-6
412.137	1	-10
412.307	1	-5
412.478	1	-4
412.649	1	-2
412.819	1	-11
412.990	1	-18
413.161	1	-10
413.331	1	-2
413.502	1	-3
413.672	1	-4
413.843	1	1
414.014	1	-9
414.184	1	-2
414.355	1	-7
414.526	1	-4
414.696	1	-4
414.867	1	-13
415.038	1	1
415.208	1	1
415.379	1	6
415.550	1	9
415.720	1	-13
415.891	1	-5
416.062	1	-11
416.232	1	-11
416.403	1	5
416.573	1	-5
416.744	1	-11
416.915	1	-1
417.085	1	7
417.256	1	-10
417.427	1	4
417.597	1	3
417.768	1	-7
417.939	1	0
418.109	1	-11
418.280	1	-3
418.450	1	-4
418.621	1	1
418.792	1	-6
418.962	1	3
419.133	1	-2
419.304	1	2
419.474	1	4
419.645	1	9
419.815	1	-14
419.986	1	0
420.157	1	-1
420.327	1	-6
420.498	1	0
420.669	1	0
420.839	1	-10
421.010	1	0
421.180	1	-7
421.351	1	0
421.522	1	-10
421.692	1	-5
421.863	1	0
422.033	1	-12
422.204	1	2
422.375	1	-5
422.545	1	-2
422.716	1	-1
422.886	1	2
423.057	1	-4
423.228	1	7
423.398	1	-11
423.569	1	-7
423.740	1	-13
423.910	1	2
424.081	1	-10
424.251	1	-5
424.422	1	-9
424.593	1	-1
424.763	1	-8
424.934	1	5
425.104	1	5
425.275	1	-7
425.445	1	-18
425.616	1	-8
425.787	1	-1
425.957	1	0
426.128	1	-15
426.298	1	-6
426.469	1	-11
426.640	1	-7
426.810	1	3
426.981	1	-5
427.151	1	-6
427.322	1	-5
427.493	1	8
427.663	1	-2
427.834	1	3
428.004	1	-10
428.175	1	-12
428.345	1	-11
428.516	1	-4
428.687	1	-3
428.857	1	12
429.028	1	-7
429.198	1	-3
429.369	1	-3
429.540	1	-10
429.710	1	-10
429.881	1	-5
430.051	1	-1
430.222	1	-8
430.392	1	-6
430.563	1	-5
430.734	1	-4
430.904	1	10
431.075	1	-7
431.245	1	0
431.416	1	5
431.586	1	-10
431.757	1	0
431.927	1	-12
432.098	1	1
432.269	1	-10
432.439	1	-11
432.610	1	1
432.780	1	6
432.951	1	-10
433.121	1	-3
433.292	1	-8
433.462	1	-7
433.633	1	-14
433.804	1	0
433.974	1	-12
434.145	1	-7
434.315	1	4
434.486	1	8
434.656	1	-2
434.827	1	-8
434.997	1	-3
435.168	1	-1
435.339	1	-7
435.509	1	-4
435.680	1	0
435.850	1	-7
436.021	1	-4
436.191	1	4
436.362	1	4
436.532	1	3
436.703	1	-3
436.873	1	-5
437.044	1	-11
437.214	1	-9
437.385	1	-10
437.556	1	-14
437.726	1	-6
437.897	1	-14
438.067	1	-9
438.238	1	-6
438.408	1	4
438.579	1	-7
438.749	1	0
438.920	1	-7
439.090	1	-11
439.261	1	-7
439.431	1	2
439.602	1	-2
439.772	1	6
439.943	1	-5
440.113	1	-12
440.284	1	-14
440.455	1	-1
440.625	1	-17
440.796	1	-5
440.966	1	-1
441.137	1	-3
441.307	1	-3
441.478	1	-6
441.648	1	-11
441.819	1	-7
441.989	1	0
442.160	1	2
442.330	1	-17
442.501	1	-5
442.671	1	0
442.842	1	-20
443.012	1	-3
443.183	1	-9
443.353	1	-2
443.524	1	-6
443.694	1	-4
443.865	1	-5
444.035	1	-2
444.206	1	-3
444.376	1	-13
444.547	1	-12
444.717	1	3
444.888	1	1
445.058	1	4
445.229	1	-2
445.399	1	0
445.570	1	-4
445.740	1	-10
445.911	1	-5
446.081	1	-2
446.252	1	-5
446.422	1	3
446.593	1	-14
446.763	1	-3
446.934	1	-3
447.104	1	-15
447.275	1	-6
447.445	1	-5
447.616	1	-2
447.786	1	-4
447.957	1	0
448.127	1	-5
448.298	1	-3
448.468	1	0
448.639	1	-7
448.809	1	2
448.979	1	-5
449.150	1	-13
449.320	1	-5
449.491	1	0
449.661	1	-1
449.832	1	-2
450.002	1	5
450.173	1	2
450.343	1	-9
450.514	1	-7
450.684	1	-9
450.855	1	4
451.025	1	-3
451.196	1	-1
451.366	1	-7
451.537	1	-5
451.707	1	-9
451.878	1	-12
452.048	1	5
452.218	1	8
452.389	1	-5
452.559	1	-9
452.730	1	-9
452.900	1	0
453.071	1	-9
453.241	1	-1
453.412	1	-7
453.582	1	-3
453.753	1	-11
453.923	1	-2
454.093	1	-1
454.264	1	4
454.434	1	0
454.605	1	-11
454.775	1	4
454.946	1	0
455.116	1	-7
455.287	1	-1
455.457	1	-5
455.628	1	1
455.798	1	-2
455.968	1	-1
456.139	1	0
456.309	1	-3
456.480	1	0
456.650	1	-3
456.821	1	-6
456.991	1	-18
457.161	1	10
457.332	1	-3
457.502	1	-5
457.673	1	-4
457.843	1	-1
458.014	1	3
458.184	1	0
458.355	1	0
458.525	1	-3
458.695	1	-10
458.866	1	4
459.036	1	-11
459.207	1	1
459.377	1	-6
459.548	1	-8
459.718	1	-10
459.888	1	-4
460.059	1	-4
460.229	1	-1
460.400	1	-14
460.570	1	1
460.740	1	5
460.911	1	-4
461.081	1	3
461.252	1	-4
461.422	1	9
461.593	1	-9
461.763	1	5
461.933	1	-3
462.104	1	-4
462.274	1	2
462.445	1	-2
462.615	1	-11
462.785	1	-11
462.956	1	-8
463.126	1	8
463.297	1	-1
463.467	1	-3
463.638	1	-2
463.808	1	-2
463.978	1	-11
464.149	1	-3
464.319	1	-8
464.490	1	-4
464.660	1	-8
464.830	1	14
465.001	1	-2
465.171	1	-7
465.342	1	-1
465.512	1	-14
465.682	1	-3
465.853	1	-7
466.023	1	-6
466.194	1	-5
466.364	1	-13
466.534	1	1
466.705	1	4
466.875	1	1
467.045	1	-14
467.216	1	-10
467.386	1	-9
467.557	1	1
467.727	1	-4
467.897	1	-8
468.068	1	-8
468.238	1	-8
468.409	1	3
468.579	1	-4
468.749	1	0
468.920	1	-4
469.090	1	-18
469.260	1	-8
469.431	1	-3
469.601	1	3
469.772	1	-7
469.942	1	2
470.112	1	-4
470.283	1	-5
470.453	1	-3
470.623	1	-7
470.794	1	-5
470.964	1	4
471.135	1	-3
471.305	1	-7
471.475	1	8
471.646	1	-5
471.816	1	4
471.986	1	0
472.157	1	-4
472.327	1	-3
472.497	1	2
472.668	1	1
472.838	1	-2
473.009	1	-4
473.179	1	2
473.349	1	-3
473.520	1	-11
473.690	1	1
473.860	1	-3
474.031	1	-12
474.201	1	-12
474.371	1	10
474.542	1	5
474.712	1	-1
474.882	1	3
475.053	1	-4
475.223	1	-9
475.394	1	-10
475.564	1	-9
475.734	1	2
475.905	1	-4
476.075	1	-2
476.245	1	-2
476.416	1	4
476.586	1	-12
476.756	1	0
476.927	1	-5
477.097	1	1
477.267	1	-9
477.438	1	-8
477.608	1	-2
477.778	1	6
477.949	1	6
478.119	1	-3
478.289	1	-11
478.460	1	-4
478.630	1	0
478.800	1	-3
478.971	1	-8
479.141	1	-2
479.311	1	4
479.482	1	-9
479.652	1	3
479.822	1	-14
479.993	1	-13
480.163	1	-5
480.333	1	0
480.504	1	1
480.674	1	-3
480.844	1	-6
481.015	1	-6
481.185	1	-7
481.355	1	-11
481.525	1	2
481.696	1	2
481.866	1	-3
482.036	1	2
482.207	1	-4
482.377	1	-7
482.547	1	-9
482.718	1	-5
482.888	1	-7
483.058	1	-4
483.229	1	1
483.399	1	5
483.569	1	-12
483.740	1	-13
483.910	1	-11
484.080	1	1
484.250	1	-6
484.421	1	6
484.591	1	-14
484.761	1	2
484.932	1	-1
485.102	1	1
485.272	1	-4
485.443	1	-11
485.613	1	-5
485.783	1	-6
485.953	1	5
486.124	1	4
486.294	1	7
486.464	1	-12
486.635	1	-8
486.805	1	-13
486.975	1	-15
487.146	1	-6
487.316	1	-14
487.486	1	1
487.656	1	4
487.827	1	-6
487.997	1	-1
488.167	1	-9
488.338	1	1
488.508	1	-5
488.678	1	-2
488.848	1	-7
489.019	1	-4
489.189	1	-5
489.359	1	1
489.529	1	-12
489.700	1	-14
489.870	1	-15
490.040	1	-4
490.211	1	-10
490.381	1	1
490.551	1	-4
490.721	1	-2
490.892	1	0
491.062	1	-2
491.232	1	3
491.402	1	-9
491.573	1	-4
491.743	1	-4
491.913	1	0
492.084	1	-6
492.254	1	-3
492.424	1	-8
492.594	1	-2
492.765	1	2
492.935	1	-2
493.105	1	-4
493.275	1	2
493.446	1	-1
493.616	1	-4
493.786	1	-9
493.956	1	-3
494.127	1	-4
494.297	1	-7
494.467	1	-5
494.637	1	-8
494.808	1	-8
494.978	1	1
495.148	1	-7
495.318	1	-11
495.489	1	-7
495.659	1	-5
495.829	1	-15
495.999	1	0
496.170	1	-7
496.340	1	6
496.510	1	-2
496.680	1	-1
496.851	1	-1
497.021	1	-6
497.191	1	-10
497.361	1	-5
497.532	1	-2
497.702	1	0
497.872	1	2
498.042	1	-12
498.213	1	-3
498.383	1	2
498.553	1	-5
498.723	1	-4
498.894	1	-2
499.064	1	-5
499.234	1	-9
499.404	1	-11
499.574	1	-1
499.745	1	0
499.915	1	-2
500.085	1	-7
500.255	1	-8
500.426	1	-7
500.596	1	-6
500.766	1	-5
500.936	1	3
501.106	1	-10
501.277	1	-10
501.447	1	-9
501.617	1	1
501.787	1	-6
501.958	1	-2
502.128	1	-4
502.298	1	-13
502.468	1	-4
502.638	1	-8
502.809	1	5
502.979	1	-13
503.149	1	-1
503.319	1	-3
503.489	1	-1
503.660	1	-1
503.830	1	-2
504.000	1	-13
504.170	1	-4
504.340	1	-2
504.511	1	-1
504.681	1	-3
504.851	1	-4
505.021	1	-8
505.192	1	-4
505.362	1	7
505.532	1	-9
505.702	1	-3
505.872	1	-6
506.043	1	-5
506.213	1	0
506.383	1	-3
506.553	1	2
506.723	1	-10
506.893	1	-6
507.064	1	-4
507.234	1	-6
507.404	1	-6
507.574	1	-7
507.744	1	-2
507.915	1	5
508.085	1	1
508.255	1	3
508.425	1	-4
508.595	1	-8
508.766	1	0
508.936	1	-12
509.106	1	-4
509.276	1	1
509.446	1	-9
509.616	1	-9
509.787	1	-5
509.957	1	-10
510.127	1	-4
510.297	1	-11
510.467	1	1
510.638	1	-8
510.808	1	1
510.978	1	-5
511.148	1	-3
511.318	1	-5
511.488	1	10
511.659	1	-4
511.829	1	-7
511.999	1	-7
512.169	1	-2
512.339	1	-11
512.509	1	1
512.680	1	-2
512.850	1	-6
513.020	1	-4
513.190	1	3
513.360	1	-3
513.530	1	-4
513.700	1	-5
513.871	1	-2
514.041	1	-11
514.211	1	-4
514.381	1	-10
514.551	1	-9
514.721	1	-4
514.892	1	-4
515.062	1	-6
515.232	1	-10
515.402	1	-1
515.572	1	-3
515.742	1	-9
515.912	1	-1
516.083	1	0
516.253	1	-5
516.423	1	-14
516.593	1	-7
516.763	1	5
516.933	1	-7
517.104	1	-4
517.274	1	-9
517.444	1	-7
517.614	1	-8
517.784	1	3
517.954	1	-16
518.124	1	1
518.294	1	-10
518.465	1	-3
518.635	1	-7
518.805	1	-1
518.975	1	-9
519.145	1	0
519.315	1	-11
519.485	1	-5
519.656	1	-12
519.826	1	-3
519.996	1	-8
520.166	1	-5
520.336	1	-3
520.506	1	-10
520.676	1	-11
520.846	1	-4
521.017	1	0
521.187	1	1
521.357	1	-1
521.527	1	-3
521.697	1	-6
521.867	1	-18
522.037	1	-22
522.207	1	10
522.377	1	-3
522.548	1	-6
522.718	1	-7
522.888	1	-4
523.058	1	2
523.228	1	-4
523.398	1	6
523.568	1	2
523.738	1	-7
523.909	1	8
524.079	1	2
524.249	1	2
524.419	1	-13
524.589	1	4
524.759	1	-8
524.929	1	-7
525.099	1	-14
525.269	1	-4
525.439	1	-6
525.610	1	12
525.780	1	-1
525.950	1	2
526.120	1	0
526.290	1	1
526.460	1	-10
526.630	1	0
526.800	1	-8
526.970	1	-11
527.140	1	-5
527.311	1	-13
527.481	1	-8
527.651	1	1
527.821	1	-9
527.991	1	0
528.161	1	-4
528.331	1	-6
528.501	1	-9
528.671	1	-7
528.841	1	-11
529.011	1	-14
529.181	1	-1
529.352	1	-1
529.522	1	-6
529.692	1	7
529.862	1	3
530.032	1	-3
530.202	1	-8
530.372	1	2
530.542	1	-7
530.712	1	-8
530.882	1	-7
531.052	1	-6
531.222	1	-3
531.392	1	2
531.563	1	1
531.733	1	-6
531.903	1	2
532.073	1	-5
532.243	1	-2
532.413	1	-10
532.583	1	12
532.753	1	3
532.923	1	-4
533.093	1	-12
533.263	1	3
533.433	1	-1
533.603	1	2
533.773	1	-7
533.943	1	3
534.113	1	2
534.284	1	0
534.454	1	-3
534.624	1	-3
534.794	1	-6
534.964	1	-11
535.134	1	4
535.304	1	-3
535.474	1	-11
535.644	1	-12
535.814	1	-5
535.984	1	0
536.154	1	-8
536.324	1	-3
536.494	1	-11
536.664	1	-6
536.834	1	-7
537.004	1	-6
537.174	1	-2
537.344	1	4
537.514	1	-6
537.685	1	-3
537.855	1	-3
538.025	1	-7
538.195	1	-10
538.365	1	-8
538.535	1	-8
538.705	1	-4
538.875	1	3
539.045	1	-10
539.215	1	-4
539.385	1	-2
539.555	1	-5
539.725	1	-12
539.895	1	-14
540.065	1	0
540.235	1	-12
540.405	1	-2
540.575	1	5
540.745	1	0
540.915	1	-4
541.085	1	2
541.255	1	-11
541.425	1	3
541.595	1	-11
541.765	1	-9
541.935	1	-3
542.105	1	-5
542.275	1	-7
542.445	1	-3
542.615	1	-1
542.785	1	-3
542.955	1	-7
543.125	1	-7
543.295	1	-19
543.465	1	-7
543.635	1	-7
543.805	1	-2
543.975	1	-8
544.145	1	1
544.315	1	-12
544.485	1	-7
544.655	1	5
544.825	1	-5
544.995	1	2
545.165	1	-7
545.335	1	-3
545.505	1	-5
545.675	1	2
545.845	1	-7
546.015	1	1
546.185	1	1
546.355	1	3
546.525	1	-4
546.695	1	-1
546.865	1	-3
547.035	1	-3
547.205	1	-1
547.375	1	-5
547.545	1	3
547.715	1	-10
547.885	1	-13
548.055	1	-3
548.225	1	7
548.395	1	-4
548.565	1	6
548.735	1	-5
548.905	1	-5
549.075	1	-10
549.245	1	-7
549.415	1	-9
549.585	1	-2
549.755	1	-3
549.925	1	9
550.095	1	-6
550.265	1	-3
550.435	1	-8
550.605	1	-17
550.775	1	14
550.945	1	-2
551.115	1	-6
551.285	1	-2
551.455	1	-5
551.625	1	5
551.795	1	-16
551.965	1	-8
552.135	1	-10
552.305	1	-8
552.475	1	3
552.645	1	-2
552.815	1	-3
552.985	1	5
553.155	1	5
553.325	1	-11
553.495	1	-6
553.665	1	-3
553.835	1	5
554.004	1	-7
554.174	1	-7
554.344	1	-9
554.514	1	-11
554.684	1	-8
554.854	1	-2
555.024	1	-9
555.194	1	-5
555.364	1	0
555.534	1	6
555.704	1	-3
555.874	1	-14
556.044	1	-6
556.214	1	-4
556.384	1	-3
556.554	1	-1
556.724	1	-7
556.894	1	-5
557.064	1	-5
557.234	1	2
557.404	1	-2
557.573	1	3
557.743	1	-6
557.913	1	3
558.083	1	-11
558.253	1	-2
558.423	1	-7
558.593	1	-3
558.763	1	1
558.933	1	-6
559.103	1	-8
559.273	1	-3
559.443	1	-10
559.613	1	0
559.783	1	-7
559.953	1	-11
560.122	1	-4
560.292	1	-11
560.462	1	-13
560.632	1	-1
560.802	1	3
560.972	1	-8
561.142	1	-7
561.312	1	-9
561.482	1	-4
561.652	1	-20
561.822	1	-6
561.992	1	-7
562.162	1	-9
562.331	1	0
562.501	1	-5
562.671	1	0
562.841	1	-8
563.011	1	4
563.181	1	1
563.351	1	-1
563.521	1	-5
563.691	1	-1
563.861	1	1
564.031	1	-17
564.201	1	-6
564.370	1	-6
564.540	1	-5
564.710	1	-8
564.880	1	-9
565.050	1	4
565.220	1	-5
565.390	1	-8
565.560	1	9
565.730	1	-3
565.900	1	-7
566.069	1	-16
566.239	1	3
566.409	1	-4
566.579	1	-16
566.749	1	-12
566.919	1	-6
567.089	1	-6
567.259	1	-2
567.429	1	7
567.599	1	6
567.768	1	-3
567.938	1	-13
568.108	1	-4
568.278	1	3
568.448	1	-8
568.618	1	7
568.788	1	-3
568.958	1	-8
569.128	1	1
569.297	1	2
569.467	1	4
569.637	1	-9
569.807	1	2
569.977	1	-5
570.147	1	-7
570.317	1	-13
570.487	1	-3
570.656	1	-6
570.826	1	-5
570.996	1	-3
571.166	1	-2
571.336	1	-20
571.506	1	-7
571.676	1	3
571.846	1	1
572.015	1	-10
572.185	1	-5
572.355	1	7
572.525	1	-1
572.695	1	-3
572.865	1	-3
573.035	1	-8
573.205	1	-11
573.374	1	-9
573.544	1	0
573.714	1	-11
573.884	1	-7
574.054	1	7
574.224	1	-3
574.394	1	-6
574.563	1	-6
574.733	1	-1
574.903	1	-16
575.073	1	-14
575.243	1	-1
575.413	1	-11
575.583	1	4
575.752	1	-8
575.922	1	7
576.092	1	-8
576.262	1	-2
576.432	1	-2
576.602	1	-7
576.772	1	-12
576.941	1	-1
577.111	1	1
577.281	1	4
577.451	1	-6
577.621	1	8
577.791	1	-7
577.960	1	2
578.130	1	-10
578.300	1	-5
578.470	1	-10
578.640	1	1
578.810	1	-2
578.979	1	-9
579.149	1	-3
579.319	1	-7
579.489	1	-8
579.659	1	-7
579.829	1	-10
579.998	1	0
580.168	1	-13
580.338	1	5
580.508	1	-3
580.678	1	-12
580.848	1	-5
581.017	1	-9
581.187	1	1
581.357	1	-8
581.527	1	-6
581.697	1	-7
581.867	1	-8
582.036	1	-4
582.206	1	-3
582.376	1	-1
582.546	1	-7
582.716	1	-6
582.885	1	0
583.055	1	-1
583.225	1	-9
583.395	1	-1
583.565	1	-15
583.735	1	3
583.904	1	-7
584.074	1	-6
584.244	1	-10
584.414	1	3
584.584	1	-4
584.753	1	-16
584.923	1	-15
585.093	1	-7
585.263	1	-4
585.433	1	-10
585.602	1	-4
585.772	1	6
585.942	1	-13
586.112	1	-4
586.282	1	-8
586.451	1	1
586.621	1	-1
586.791	1	-12
586.961	1	-3
587.131	1	5
587.300	1	0
587.470	1	-8
587.640	1	-5
587.810	1	-3
587.980	1	-5
588.149	1	-2
588.319	1	-4
588.489	1	-1
588.659	1	-6
588.829	1	1
588.998	1	-2
589.168	1	-11
589.338	1	-9
589.508	1	0
589.677	1	-7
589.847	1	-8
590.017	1	-11
590.187	1	-17
590.357	1	-8
590.526	1	-10
590.696	1	-7
590.866	1	-16
591.036	1	5
591.205	1	1
591.375	1	-10
591.545	1	-6
591.715	1	-20
591.885	1	-4
592.054	1	-10
592.224	1	0
592.394	1	9
592.564	1	-3
592.733	1	-3
592.903	1	1
593.073	1	2
593.243	1	3
593.412	1	-1
593.582	1	-15
593.752	1	-1
593.922	1	0
594.091	1	-9
594.261	1	-11
594.431	1	-6
594.601	1	-5
594.771	1	-19
594.940	1	-4
595.110	1	0
595.280	1	-8
595.450	1	7
595.619	1	-7
595.789	1	2
595.959	1	-13
596.129	1	1
596.298	1	-2
596.468	1	-3
596.638	1	-8
596.808	1	-3
596.977	1	-3
597.147	1	2
597.317	1	4
597.487	1	-13
597.656	1	-14
597.826	1	-2
597.996	1	-10
598.166	1	-9
598.335	1	-6
598.505	1	5
598.675	1	-11
598.844	1	-4
599.014	1	-10
599.184	1	-4
599.354	1	10
599.523	1	-7
599.693	1	-5
599.863	1	-13
600.033	1	-10
600.202	1	-3
600.372	1	-4
600.542	1	-4
600.712	1	-9
600.881	1	-1
601.051	1	0
601.221	1	-1
601.390	1	-9
601.560	1	-6
601.730	1	-16
601.900	1	1
602.069	1	-9
602.239	1	-6
602.409	1	-12
602.578	1	4
602.748	1	-15
602.918	1	-9
603.088	1	-10
603.257	1	-5
603.427	1	3
603.597	1	-13
603.767	1	-4
603.936	1	-1
604.106	1	0
604.276	1	-2
604.445	1	-13
604.615	1	4
604.785	1	-3
604.954	1	-9
605.124	1	2
605.294	1	-1
605.464	1	5
605.633	1	1
605.803	1	-7
605.973	1	-8
606.142	1	2
606.312	1	-5
606.482	1	-13
606.652	1	-5
606.821	1	-5
606.991	1	-4
607.161	1	-2
607.330	1	-2
607.500	1	1
607.670	1	2
607.839	1	-4
608.009	1	-7
608.179	1	-14
608.348	1	1
608.518	1	1
608.688	1	-3
608.858	1	-6
609.027	1	7
609.197	1	-7
609.367	1	-3
609.536	1	-5
609.706	1	0
609.876	1	-4
610.045	1	-7
610.215	1	6
610.385	1	4
610.554	1	-1
610.724	1	-3
610.894	1	-3
611.063	1	-12
611.233	1	-12
611.403	1	-4
611.572	1	-6
611.742	1	2
611.912	1	-3
612.081	1	-7
612.251	1	-5
612.421	1	-5
612.590	1	-12
612.760	1	-2
612.930	1	0
613.099	1	-2
613.269	1	-7
613.439	1	5
613.608	1	-8
613.778	1	-2
613.948	1	-3
614.117	1	-4
614.287	1	-14
614.457	1	-3
614.626	1	-8
614.796	1	-4
614.966	1	-2
615.135	1	5
615.305	1	4
615.475	1	8
615.644	1	-6
615.814	1	-3
615.984	1	-3
616.153	1	-8
616.323	1	-10
616.493	1	-7
616.662	1	-2
616.832	1	-12
617.002	1	0
617.171	1	-10
617.341	1	6
617.511	1	-4
617.680	1	-2
617.850	1	1
618.019	1	-9
618.189	1	3
618.359	1	-5
618.528	1	-7
618.698	1	-6
618.868	1	4
619.037	1	-7
619.207	1	-1
619.377	1	-9
619.546	1	-9
619.716	1	-1
619.885	1	-5
620.055	1	-5
620.225	1	0
620.394	1	-7
620.564	1	2
620.734	1	-1
620.903	1	10
621.073	1	-8
621.242	1	7
621.412	1	-12
621.582	1	1
621.751	1	-18
621.921	1	-8
622.091	1	-3
622.260	1	-8
622.430	1	-3
622.599	1	-7
622.769	1	-5
622.939	1	-12
623.108	1	-3
623.278	1	-4
623.448	1	-7
623.617	1	5
623.787	1	8
623.956	1	-7
624.126	1	0
624.296	1	-18
624.465	1	-3
624.635	1	-15
624.804	1	-10
624.974	1	-3
625.144	1	-5
625.313	1	-10
625.483	1	3
625.652	1	-6
625.822	1	-1
625.992	1	6
626.161	1	-5
626.331	1	4
626.501	1	-10
626.670	1	1
626.840	1	-16
627.009	1	-4
627.179	1	6
627.348	1	3
627.518	1	-7
627.688	1	-3
627.857	1	-4
628.027	1	-5
628.196	1	-2
628.366	1	7
628.536	1	7
628.705	1	-4
628.875	1	-3
629.044	1	-8
629.214	1	-5
629.384	1	-16
629.553	1	-1
629.723	1	-1
629.892	1	-3
630.062	1	-13
630.232	1	-12
630.401	1	-2
630.571	1	-1
630.740	1	1
630.910	1	3
631.079	1	3
631.249	1	-4
631.419	1	-6
631.588	1	-8
631.758	1	-1
631.927	1	-6
632.097	1	-6
632.266	1	-13
632.436	1	2
632.606	1	5
632.775	1	-2
632.945	1	-14
633.114	1	-3
633.284	1	-12
633.453	1	3
633.623	1	4
633.793	1	1
633.962	1	-6
634.132	1	-11
634.301	1	-8
634.471	1	-14
634.640	1	-2
634.810	1	-3
634.979	1	-3
635.149	1	-9
635.319	1	4
635.488	1	-4
635.658	1	-2
635.827	1	-6
635.997	1	4
636.166	1	-6
636.336	1	-8
636.505	1	9
636.675	1	-2
636.845	1	-2
637.014	1	1
637.184	1	-9
637.353	1	2
637.523	1	1
637.692	1	-4
637.862	1	-3
638.031	1	-12
638.201	1	-2
638.370	1	4
638.540	1	-3
638.710	1	-1
638.879	1	2
639.049	1	-2
639.218	1	7
639.388	1	-10
639.557	1	-12
639.727	1	2
639.896	1	0
640.066	1	-10
640.235	1	-12
640.405	1	3
640.574	1	4
640.744	1	-4
640.914	1	-7
641.083	1	3
641.253	1	-3
641.422	1	-2
641.592	1	-10
641.761	1	-4
641.931	1	-5
642.100	1	-4
642.270	1	-3
642.439	1	1
642.609	1	10
642.778	1	0
642.948	1	2
643.117	1	0
643.287	1	-12
643.456	1	-1
643.626	1	2
643.795	1	-3
643.965	1	-7
644.134	1	-1
644.304	1	-10
644.473	1	-2
644.643	1	-11
644.812	1	-5
644.982	1	-14
645.151	1	-6
645.321	1	-4
645.490	1	-13
645.660	1	-4
645.829	1	-4
645.999	1	3
646.168	1	-10
646.338	1	-14
646.507	1	0
646.677	1	-11
646.846	1	-13
647.016	1	-5
647.185	1	-12
647.355	1	-2
647.524	1	-5
647.694	1	0
647.863	1	-9
648.033	1	-2
648.202	1	-1
648.372	1	-10
648.541	1	-1
648.711	1	-9
648.880	1	-15
649.050	1	-10
649.219	1	-7
649.389	1	2
649.558	1	6
649.728	1	2
649.897	1	-6
650.067	1	-6
650.236	1	-7
650.406	1	-10
650.575	1	-4
650.745	1	-6
650.914	1	-6
651.084	1	-20
651.253	1	0
651.423	1	9
651.592	1	-7
651.762	1	-6
651.931	1	1
652.101	1	-6
652.270	1	-11
652.440	1	1
652.609	1	-8
652.778	1	1
652.948	1	-16
653.117	1	-6
653.287	1	-17
653.456	1	-13
653.626	1	0
653.795	1	-1
653.965	1	3
654.134	1	-5
654.304	1	-6
654.473	1	-7
654.643	1	-2
654.812	1	9
654.982	1	0
655.151	1	-8
655.320	1	2
655.490	1	-13
655.659	1	3
655.829	1	-4
655.998	1	-3
656.168	1	-12
656.337	1	-8
656.507	1	-6
656.676	1	4
656.846	1	5
657.015	1	-7
657.184	1	4
657.354	1	-1
657.523	1	-4
657.693	1	-1
657.862	1	-7
658.032	1	0
658.201	1	0
658.371	1	-3
658.540	1	0
658.709	1	-1
658.879	1	9
659.048	1	-5
659.218	1	-15
659.387	1	-11
659.557	1	-4
659.726	1	-4
659.895	1	-6
660.065	1	-10
660.234	1	-6
660.404	1	-8
660.573	1	-4
660.743	1	-8
660.912	1	-14
661.081	1	-13
661.251	1	-3
661.420	1	5
661.590	1	-10
661.759	1	0
661.929	1	-6
662.098	1	1
662.267	1	-6
662.437	1	-8
662.606	1	-12
662.776	1	-10
662.945	1	-5
663.115	1	5
663.284	1	-5
663.453	1	2
663.623	1	-3
663.792	1	-14
663.962	1	-9
664.131	1	1
664.300	1	-11
664.470	1	1
664.639	1	3
664.809	1	7
664.978	1	-1
665.148	1	-9
665.317	1	-13
665.486	1	-6
665.656	1	8
665.825	1	6
665.995	1	-13
666.164	1	-12
666.333	1	5
666.503	1	-5
666.672	1	-7
666.842	1	-5
667.011	1	14
667.180	1	-7
667.350	1	-3
667.519	1	-11
667.689	1	-10
667.858	1	-5
668.027	1	9
668.197	1	6
668.366	1	-6
668.536	1	3
668.705	1	-3
668.874	1	-5
669.044	1	-1
669.213	1	1
669.382	1	-5
669.552	1	-10
669.721	1	0
669.891	1	1
670.060	1	-6
670.229	1	2
670.399	1	1
670.568	1	0
670.738	1	-3
670.907	1	-5
671.076	1	-11
671.246	1	-3
671.415	1	-4
671.584	1	-3
671.754	1	-11
671.923	1	5
672.093	1	1
672.262	1	-3
672.431	1	-11
672.601	1	-1
672.770	1	-8
672.939	1	-5
673.109	1	-13
673.278	1	-5
673.448	1	-7
673.617	1	-10
673.786	1	1
