325.333	1	9
325.504	1	6
325.675	1	10
325.846	1	9
326.017	1	3
326.188	1	11
326.359	1	23
326.531	1	-9
326.702	1	6
326.873	1	12
327.044	1	6
327.215	1	15
327.386	1	10
327.557	1	12
327.728	1	15
327.899	1	6
328.070	1	11
328.241	1	7
328.412	1	11
328.583	1	8
328.754	1	5
328.926	1	18
329.097	1	11
329.268	1	19
329.439	1	5
329.610	1	2
329.781	1	-5
329.952	1	-2
330.123	1	0
330.294	1	8
330.465	1	-14
330.636	1	16
330.807	1	9
330.978	1	6
331.149	1	11
331.320	1	8
331.492	1	10
331.663	1	0
331.834	1	11
332.005	1	3
332.176	1	11
332.347	1	13
332.518	1	0
332.689	1	10
332.860	1	6
333.031	1	9
333.202	1	5
333.373	1	8
333.544	1	7
333.715	1	7
333.886	1	-7
334.057	1	13
334.228	1	1
334.399	1	11
334.570	1	-9
334.741	1	11
334.912	1	-1
335.084	1	12
335.255	1	4
335.426	1	0
335.597	1	6
335.768	1	8
335.939	1	6
336.110	1	0
336.281	1	4
336.452	1	9
336.623	1	19
336.794	1	11
336.965	1	6
337.136	1	1
337.307	1	11
337.478	1	-5
337.649	1	8
337.820	1	18
337.991	1	8
338.162	1	1
338.333	1	-2
338.504	1	16
338.675	1	-6
338.846	1	16
339.017	1	7
339.188	1	11
339.359	1	-2
339.530	1	6
339.701	1	5
339.872	1	7
340.043	1	10
340.214	1	2
340.385	1	17
340.556	1	4
340.727	1	9
340.898	1	6
341.069	1	-9
341.240	1	-8
341.411	1	3
341.582	1	-1
341.753	1	0
341.924	1	2
342.095	1	10
342.266	1	-5
342.437	1	8
342.608	1	-8
342.779	1	10
342.950	1	0
343.121	1	15
343.292	1	15
343.463	1	3
343.634	1	4
343.805	1	15
343.976	1	5
344.147	1	-5
344.318	1	13
344.489	1	10
344.660	1	-7
344.831	1	10
345.002	1	2
345.173	1	14
345.344	1	7
345.515	1	7
345.686	1	8
345.857	1	-1
346.028	1	-7
346.199	1	20
346.370	1	11
346.541	1	1
346.712	1	6
346.883	1	8
347.054	1	-1
347.225	1	-4
347.396	1	-12
347.567	1	7
347.738	1	-2
347.909	1	10
348.080	1	6
348.251	1	2
348.422	1	-1
348.593	1	-1
348.764	1	10
348.935	1	-9
349.106	1	8
349.277	1	9
349.448	1	-3
349.619	1	-4
349.790	1	9
349.961	1	10
350.132	1	12
350.303	1	-5
350.474	1	6
350.645	1	16
350.816	1	-1
350.987	1	5
351.157	1	-6
351.328	1	-5
351.499	1	-3
351.670	1	-6
351.841	1	16
352.012	1	2
352.183	1	-11
352.354	1	13
352.525	1	5
352.696	1	0
352.867	1	-12
353.038	1	13
353.209	1	-3
353.380	1	-5
353.551	1	-6
353.722	1	0
353.893	1	8
354.064	1	-4
354.235	1	-8
354.406	1	2
354.576	1	5
354.747	1	0
354.918	1	11
355.089	1	-4
355.260	1	8
355.431	1	5
355.602	1	6
355.773	1	2
355.944	1	-9
356.115	1	-7
356.286	1	15
356.457	1	2
356.628	1	-4
356.799	1	1
356.970	1	1
357.141	1	5
357.311	1	7
357.482	1	9
357.653	1	2
357.824	1	7
357.995	1	8
358.166	1	-5
358.337	1	4
358.508	1	9
358.679	1	-10
358.850	1	6
359.021	1	5
359.192	1	-7
359.363	1	5
359.533	1	9
359.704	1	11
359.875	1	-9
360.046	1	-5
360.217	1	0
360.388	1	5
360.559	1	-5
360.730	1	8
360.901	1	-9
361.072	1	-3
361.243	1	-2
361.414	1	-1
361.584	1	1
361.755	1	3
361.926	1	-7
362.097	1	5
362.268	1	2
362.439	1	0
362.610	1	7
362.781	1	-5
362.952	1	-3
363.123	1	0
363.293	1	9
363.464	1	-1
363.635	1	7
363.806	1	3
363.977	1	2
364.148	1	-7
364.319	1	-2
364.490	1	3
364.661	1	-4
364.832	1	3
365.002	1	2
365.173	1	-3
365.344	1	-2
365.515	1	-3
365.686	1	-5
365.857	1	-1
366.028	1	-6
366.199	1	0
366.370	1	5
366.540	1	-7
366.711	1	-3
366.882	1	1
367.053	1	13
367.224	1	-9
367.395	1	-2
367.566	1	0
367.737	1	0
367.908	1	-8
368.078	1	4
368.249	1	6
368.420	1	7
368.591	1	-5
368.762	1	-10
368.933	1	1
369.104	1	6
369.274	1	0
369.445	1	-1
369.616	1	-3
369.787	1	-3
369.958	1	-9
370.129	1	-3
370.300	1	9
370.471	1	8
370.641	1	-14
370.812	1	-6
370.983	1	0
371.154	1	1
371.325	1	4
371.496	1	4
371.667	1	-2
371.837	1	-5
372.008	1	-13
372.179	1	-2
372.350	1	-11
372.521	1	4
372.692	1	-5
372.863	1	0
373.033	1	4
373.204	1	5
373.375	1	-4
373.546	1	-6
373.717	1	-13
373.888	1	-5
374.059	1	3
374.229	1	-2
374.400	1	8
374.571	1	-1
374.742	1	-5
374.913	1	-12
375.084	1	-5
375.254	1	-2
375.425	1	-5
375.596	1	8
375.767	1	-6
375.938	1	2
376.109	1	-3
376.279	1	-4
376.450	1	-5
376.621	1	-2
376.792	1	2
376.963	1	3
377.134	1	2
377.304	1	5
377.475	1	-1
377.646	1	-2
377.817	1	-5
377.988	1	-1
378.159	1	-2
378.329	1	8
378.500	1	-6
378.671	1	0
378.842	1	-6
379.013	1	-3
379.184	1	-6
379.354	1	0
379.525	1	-11
379.696	1	-3
379.867	1	6
380.038	1	-1
380.209	1	-6
380.379	1	-12
380.550	1	0
380.721	1	-14
380.892	1	-4
381.063	1	-4
381.233	1	6
381.404	1	14
381.575	1	8
381.746	1	-4
381.917	1	11
382.087	1	-1
382.258	1	-9
382.429	1	3
382.600	1	5
382.771	1	-4
382.941	1	6
383.112	1	9
383.283	1	2
383.454	1	5
383.625	1	2
383.795	1	-4
383.966	1	-5
384.137	1	0
384.308	1	-3
384.479	1	6
384.649	1	8
384.820	1	11
384.991	1	3
385.162	1	-6
385.333	1	1
385.503	1	0
385.674	1	9
385.845	1	-1
386.016	1	-7
386.187	1	-9
386.357	1	2
386.528	1	10
386.699	1	5
386.870	1	1
387.041	1	-10
387.211	1	4
387.382	1	1
387.553	1	-5
387.724	1	-1
387.894	1	5
388.065	1	0
388.236	1	3
388.407	1	6
388.578	1	-2
388.748	1	6
388.919	1	-5
389.090	1	-10
389.261	1	0
389.431	1	-11
389.602	1	11
389.773	1	-7
389.944	1	2
390.114	1	2
390.285	1	0
390.456	1	9
390.627	1	7
390.798	1	-6
390.968	1	-4
391.139	1	2
391.310	1	-6
391.481	1	1
391.651	1	8
391.822	1	8
391.993	1	-10
392.164	1	-2
392.334	1	2
392.505	1	2
392.676	1	-5
392.847	1	4
393.017	1	-1
393.188	1	-1
393.359	1	3
393.530	1	-5
393.700	1	3
393.871	1	-5
394.042	1	-3
394.213	1	5
394.383	1	0
394.554	1	1
394.725	1	-10
394.896	1	-1
395.066	1	-14
395.237	1	-6
395.408	1	3
395.579	1	-1
395.749	1	1
395.920	1	-6
396.091	1	2
396.262	1	-1
396.432	1	7
396.603	1	2
396.774	1	-1
396.945	1	-5
397.115	1	11
397.286	1	2
397.457	1	-6
397.627	1	-2
397.798	1	3
397.969	1	-10
398.140	1	4
398.310	1	5
398.481	1	-10
398.652	1	1
398.823	1	-10
398.993	1	14
399.164	1	10
399.335	1	2
399.505	1	13
399.676	1	2
399.847	1	-2
400.018	1	6
400.188	1	4
400.359	1	0
400.530	1	0
400.700	1	1
400.871	1	11
401.042	1	1
401.213	1	0
401.383	1	17
401.554	1	0
401.725	1	1
401.895	1	2
402.066	1	7
402.237	1	1
402.408	1	1
402.578	1	-4
402.749	1	1
402.920	1	13
403.090	1	3
403.261	1	-8
403.432	1	-1
403.603	1	5
403.773	1	8
403.944	1	-1
404.115	1	13
404.285	1	7
404.456	1	14
404.627	1	0
404.797	1	2
404.968	1	-2
405.139	1	-1
405.310	1	7
405.480	1	1
405.651	1	2
405.822	1	-1
405.992	1	2
406.163	1	4
406.334	1	-7
406.504	1	4
406.675	1	8
406.846	1	2
407.016	1	4
407.187	1	-4
407.358	1	12
407.528	1	-11
407.699	1	-1
407.870	1	-5
408.041	1	4
408.211	1	-5
408.382	1	7
408.553	1	-4
408.723	1	0
408.894	1	-7
409.065	1	-7
409.235	1	5
409.406	1	2
409.577	1	3
409.747	1	-8
409.918	1	16
410.089	1	2
410.259	1	1
410.430	1	2
410.601	1	5
410.771	1	2
410.942	1	8
411.113	1	-1
411.283	1	14
411.454	1	-1
411.625	1	6
411.795	1	11
411.966	1	0
412.137	1	6
412.307	1	7
412.478	1	-8
412.649	1	5
412.819	1	4
412.990	1	-6
413.161	1	-6
413.331	1	7
413.502	1	12
413.672	1	1
413.843	1	4
414.014	1	7
414.184	1	5
414.355	1	6
414.526	1	9
414.696	1	16
414.867	1	2
415.038	1	10
415.208	1	12
415.379	1	11
415.550	1	15
415.720	1	-2
415.891	1	16
416.062	1	0
416.232	1	3
416.403	1	8
416.573	1	4
416.744	1	2
416.915	1	1
417.085	1	7
417.256	1	0
417.427	1	15
417.597	1	17
417.768	1	8
417.939	1	4
418.109	1	1
418.280	1	10
418.450	1	-1
418.621	1	5
418.792	1	-1
418.962	1	3
419.133	1	1
419.304	1	5
419.474	1	11
419.645	1	8
419.815	1	6
419.986	1	14
420.157	1	14
420.327	1	5
420.498	1	3
420.669	1	10
420.839	1	6
421.010	1	6
421.180	1	8
421.351	1	11
421.522	1	1
421.692	1	-1
421.863	1	6
422.033	1	12
422.204	1	1
422.375	1	12
422.545	1	8
422.716	1	8
422.886	1	13
423.057	1	9
423.228	1	23
423.398	1	10
423.569	1	8
423.740	1	1
423.910	1	4
424.081	1	8
424.251	1	5
424.422	1	6
424.593	1	3
424.763	1	7
424.934	1	10
425.104	1	12
425.275	1	-4
425.445	1	-6
425.616	1	6
425.787	1	4
425.957	1	11
426.128	1	7
426.298	1	2
426.469	1	-3
426.640	1	4
426.810	1	11
426.981	1	10
427.151	1	4
427.322	1	11
427.493	1	21
427.663	1	8
427.834	1	22
428.004	1	0
428.175	1	8
428.345	1	0
428.516	1	10
428.687	1	13
428.857	1	14
429.028	1	10
429.198	1	16
429.369	1	12
429.540	1	4
429.710	1	-2
429.881	1	9
430.051	1	12
430.222	1	8
430.392	1	9
430.563	1	5
430.734	1	7
430.904	1	24
431.075	1	14
431.245	1	12
431.416	1	14
431.586	1	5
431.757	1	18
431.927	1	5
432.098	1	21
432.269	1	10
432.439	1	14
432.610	1	15
432.780	1	16
432.951	1	7
433.121	1	16
433.292	1	6
433.462	1	1
433.633	1	10
433.804	1	6
433.974	1	15
434.145	1	20
434.315	1	24
434.486	1	13
434.656	1	16
434.827	1	13
434.997	1	4
435.168	1	18
435.339	1	14
435.509	1	15
435.680	1	7
435.850	1	10
436.021	1	19
436.191	1	20
436.362	1	13
436.532	1	27
436.703	1	17
436.873	1	12
437.044	1	3
437.214	1	14
437.385	1	9
437.556	1	3
437.726	1	5
437.897	1	7
438.067	1	25
438.238	1	9
438.408	1	18
438.579	1	12
438.749	1	8
438.920	1	1
439.090	1	12
439.261	1	8
439.431	1	16
439.602	1	13
439.772	1	27
439.943	1	12
440.113	1	13
440.284	1	12
440.455	1	13
440.625	1	2
440.796	1	6
440.966	1	17
441.137	1	18
441.307	1	17
441.478	1	13
441.648	1	10
441.819	1	6
441.989	1	10
442.160	1	10
442.330	1	0
442.501	1	11
442.671	1	17
442.842	1	7
443.012	1	11
443.183	1	14
443.353	1	18
443.524	1	4
443.694	1	15
443.865	1	13
444.035	1	10
444.206	1	9
444.376	1	6
444.547	1	13
444.717	1	11
444.888	1	14
445.058	1	25
445.229	1	7
445.399	1	7
445.570	1	13
445.740	1	15
445.911	1	3
446.081	1	17
446.252	1	10
446.422	1	22
446.593	1	0
446.763	1	15
446.934	1	21
447.104	1	17
447.275	1	9
447.445	1	13
447.616	1	10
447.786	1	8
447.957	1	8
448.127	1	-1
448.298	1	8
448.468	1	22
448.639	1	14
448.809	1	15
448.979	1	14
449.150	1	13
449.320	1	10
449.491	1	27
449.661	1	18
449.832	1	17
450.002	1	13
450.173	1	15
450.343	1	15
450.514	1	14
450.684	1	8
450.855	1	20
451.025	1	17
451.196	1	11
451.366	1	10
451.537	1	17
451.707	1	8
451.878	1	13
452.048	1	16
452.218	1	19
452.389	1	10
452.559	1	9
452.730	1	14
452.900	1	13
453.071	1	14
453.241	1	6
453.412	1	17
453.582	1	5
453.753	1	9
453.923	1	22
454.093	1	13
454.264	1	22
454.434	1	12
454.605	1	9
454.775	1	9
454.946	1	20
455.116	1	12
455.287	1	14
455.457	1	17
455.628	1	12
455.798	1	11
455.968	1	16
456.139	1	9
456.309	1	11
456.480	1	20
456.650	1	17
456.821	1	20
456.991	1	0
457.161	1	24
457.332	1	6
457.502	1	13
457.673	1	11
457.843	1	17
458.014	1	12
458.184	1	21
458.355	1	7
458.525	1	9
458.695	1	12
458.866	1	11
459.036	1	9
459.207	1	13
459.377	1	18
459.548	1	19
459.718	1	8
459.888	1	18
460.059	1	-1
460.229	1	18
460.400	1	-10
460.570	1	6
460.740	1	14
460.911	1	9
461.081	1	30
461.252	1	12
461.422	1	21
461.593	1	17
461.763	1	21
461.933	1	20
462.104	1	10
462.274	1	5
462.445	1	17
462.615	1	-1
462.785	1	3
462.956	1	5
463.126	1	16
463.297	1	9
463.467	1	17
463.638	1	15
463.808	1	13
463.978	1	8
464.149	1	14
464.319	1	7
464.490	1	9
464.660	1	12
464.830	1	28
465.001	1	13
465.171	1	12
465.342	1	16
465.512	1	10
465.682	1	7
465.853	1	11
466.023	1	11
466.194	1	12
466.364	1	4
466.534	1	14
466.705	1	24
466.875	1	9
467.045	1	-1
467.216	1	13
467.386	1	9
467.557	1	14
467.727	1	19
467.897	1	7
468.068	1	17
468.238	1	7
468.409	1	17
468.579	1	12
468.749	1	12
468.920	1	9
469.090	1	-6
469.260	1	14
469.431	1	6
469.601	1	28
469.772	1	12
469.942	1	18
470.112	1	23
470.283	1	3
470.453	1	3
470.623	1	10
470.794	1	5
470.964	1	10
471.135	1	7
471.305	1	18
471.475	1	15
471.646	1	11
471.816	1	20
471.986	1	9
472.157	1	11
472.327	1	22
472.497	1	10
472.668	1	19
472.838	1	11
473.009	1	14
473.179	1	15
473.349	1	6
473.520	1	5
473.690	1	17
473.860	1	8
474.031	1	8
474.201	1	18
474.371	1	17
474.542	1	13
474.712	1	10
474.882	1	25
475.053	1	10
475.223	1	4
475.394	1	6
475.564	1	6
475.734	1	10
475.905	1	11
476.075	1	27
476.245	1	7
476.416	1	7
476.586	1	-8
476.756	1	23
476.927	1	11
477.097	1	18
477.267	1	11
477.438	1	10
477.608	1	7
477.778	1	7
477.949	1	14
478.119	1	2
478.289	1	6
478.460	1	13
478.630	1	19
478.800	1	7
478.971	1	2
479.141	1	7
479.311	1	18
479.482	1	12
479.652	1	2
479.822	1	11
479.993	1	7
480.163	1	18
480.333	1	9
480.504	1	7
480.674	1	5
480.844	1	10
481.015	1	4
481.185	1	15
481.355	1	14
481.525	1	15
481.696	1	11
481.866	1	13
482.036	1	4
482.207	1	13
482.377	1	9
482.547	1	12
482.718	1	5
482.888	1	7
483.058	1	2
483.229	1	12
483.399	1	12
483.569	1	17
483.740	1	9
483.910	1	12
484.080	1	5
484.250	1	1
484.421	1	5
484.591	1	21
484.761	1	12
484.932	1	12
485.102	1	18
485.272	1	6
485.443	1	1
485.613	1	10
485.783	1	9
485.953	1	16
486.124	1	11
486.294	1	6
486.464	1	6
486.635	1	8
486.805	1	10
486.975	1	9
487.146	1	0
487.316	1	8
487.486	1	11
487.656	1	14
487.827	1	7
487.997	1	9
488.167	1	-1
488.338	1	14
488.508	1	-4
488.678	1	4
488.848	1	4
489.019	1	7
489.189	1	8
489.359	1	3
489.529	1	8
489.700	1	11
489.870	1	5
490.040	1	11
490.211	1	8
490.381	1	14
490.551	1	6
490.721	1	15
490.892	1	7
491.062	1	9
491.232	1	10
491.402	1	5
491.573	1	7
491.743	1	-1
491.913	1	4
492.084	1	15
492.254	1	5
492.424	1	10
492.594	1	10
492.765	1	2
492.935	1	9
493.105	1	17
493.275	1	4
493.446	1	5
493.616	1	5
493.786	1	9
493.956	1	8
494.127	1	9
494.297	1	9
494.467	1	6
494.637	1	8
494.808	1	12
494.978	1	7
495.148	1	9
495.318	1	1
495.489	1	5
495.659	1	4
495.829	1	-3
495.999	1	17
496.170	1	6
496.340	1	6
496.510	1	4
496.680	1	9
496.851	1	8
497.021	1	2
497.191	1	-2
497.361	1	10
497.532	1	15
497.702	1	8
497.872	1	14
498.042	1	9
498.213	1	11
498.383	1	1
498.553	1	7
498.723	1	7
498.894	1	1
499.064	1	3
499.234	1	5
499.404	1	5
499.574	1	17
499.745	1	9
499.915	1	12
500.085	1	9
500.255	1	3
500.426	1	2
500.596	1	13
500.766	1	2
500.936	1	2
501.106	1	9
501.277	1	9
501.447	1	-1
501.617	1	11
501.787	1	-4
501.958	1	18
502.128	1	8
502.298	1	-1
502.468	1	10
502.638	1	4
502.809	1	10
502.979	1	-1
503.149	1	17
503.319	1	-2
503.489	1	18
503.660	1	2
503.830	1	7
504.000	1	-2
504.170	1	16
504.340	1	9
504.511	1	12
504.681	1	2
504.851	1	5
505.021	1	6
505.192	1	12
505.362	1	5
505.532	1	3
505.702	1	10
505.872	1	2
506.043	1	5
506.213	1	10
506.383	1	1
506.553	1	4
506.723	1	3
506.893	1	-2
507.064	1	7
507.234	1	6
507.404	1	-1
507.574	1	9
507.744	1	5
507.915	1	12
508.085	1	16
508.255	1	11
508.425	1	-2
508.595	1	10
508.766	1	17
508.936	1	8
509.106	1	16
509.276	1	6
509.446	1	1
509.616	1	4
509.787	1	9
509.957	1	-7
510.127	1	6
510.297	1	-3
510.467	1	9
510.638	1	3
510.808	1	20
510.978	1	9
511.148	1	-4
511.318	1	6
511.488	1	12
511.659	1	-6
511.829	1	14
511.999	1	1
512.169	1	4
512.339	1	2
512.509	1	16
512.680	1	10
512.850	1	-5
513.020	1	6
513.190	1	11
513.360	1	4
513.530	1	-10
513.700	1	7
513.871	1	5
514.041	1	-7
514.211	1	7
514.381	1	3
514.551	1	3
514.721	1	9
514.892	1	4
515.062	1	9
515.232	1	-3
515.402	1	10
515.572	1	2
515.742	1	6
515.912	1	10
516.083	1	5
516.253	1	0
516.423	1	-7
516.593	1	2
516.763	1	5
516.933	1	5
517.104	1	10
517.274	1	-5
517.444	1	8
517.614	1	-1
517.784	1	1
517.954	1	-8
518.124	1	6
518.294	1	-4
518.465	1	4
518.635	1	4
518.805	1	10
518.975	1	11
519.145	1	10
519.315	1	9
519.485	1	2
519.656	1	-1
519.826	1	-4
519.996	1	-4
520.166	1	3
520.336	1	7
520.506	1	5
520.676	1	8
520.846	1	9
521.017	1	16
521.187	1	10
521.357	1	3
521.527	1	-5
521.697	1	-5
521.867	1	-1
522.037	1	-8
522.207	1	10
522.377	1	0
522.548	1	-5
522.718	1	6
522.888	1	1
523.058	1	5
523.228	1	2
523.398	1	-1
523.568	1	1
523.738	1	2
523.909	1	10
524.079	1	7
524.249	1	8
524.419	1	-6
524.589	1	2
524.759	1	-5
524.929	1	0
525.099	1	5
525.269	1	-1
525.439	1	-2
525.610	1	17
525.780	1	0
525.950	1	-1
526.120	1	6
526.290	1	5
526.460	1	9
526.630	1	4
526.800	1	-2
526.970	1	-1
527.140	1	5
527.311	1	5
527.481	1	-12
527.651	1	12
527.821	1	-6
527.991	1	9
528.161	1	9
528.331	1	3
528.501	1	-3
528.671	1	-1
528.841	1	0
529.011	1	2
529.181	1	1
529.352	1	-3
529.522	1	0
529.692	1	12
529.862	1	4
530.032	1	5
530.202	1	2
530.372	1	6
530.542	1	-2
530.712	1	-9
530.882	1	-1
531.052	1	3
531.222	1	-2
531.392	1	5
531.563	1	3
531.733	1	-8
531.903	1	9
532.073	1	-2
532.243	1	7
532.413	1	0
532.583	1	9
532.753	1	2
532.923	1	1
533.093	1	0
533.263	1	6
533.433	1	12
533.603	1	8
533.773	1	-5
533.943	1	9
534.113	1	3
534.284	1	4
534.454	1	6
534.624	1	3
534.794	1	9
534.964	1	8
535.134	1	5
535.304	1	1
535.474	1	4
535.644	1	-10
535.814	1	3
535.984	1	7
536.154	1	11
536.324	1	14
536.494	1	3
536.664	1	7
536.834	1	-3
537.004	1	5
537.174	1	7
537.344	1	15
537.514	1	7
537.685	1	4
537.855	1	5
538.025	1	7
538.195	1	-3
538.365	1	-2
538.535	1	0
538.705	1	8
538.875	1	4
539.045	1	-1
539.215	1	3
539.385	1	4
539.555	1	-1
539.725	1	1
539.895	1	-2
540.065	1	4
540.235	1	-7
540.405	1	-2
540.575	1	3
540.745	1	11
540.915	1	3
541.085	1	6
541.255	1	3
541.425	1	7
541.595	1	-1
541.765	1	-7
541.935	1	0
542.105	1	10
542.275	1	6
542.445	1	2
542.615	1	-6
542.785	1	-1
542.955	1	5
543.125	1	-6
543.295	1	-4
543.465	1	-6
543.635	1	-2
543.805	1	4
543.975	1	8
544.145	1	7
544.315	1	-3
544.485	1	-3
544.655	1	8
544.825	1	0
544.995	1	11
545.165	1	7
545.335	1	6
545.505	1	-1
545.675	1	14
545.845	1	1
546.015	1	8
546.185	1	5
546.355	1	4
546.525	1	11
546.695	1	8
546.865	1	0
547.035	1	0
547.205	1	7
547.375	1	5
547.545	1	4
547.715	1	-8
547.885	1	-8
548.055	1	-3
548.225	1	9
548.395	1	-7
548.565	1	19
548.735	1	0
548.905	1	2
549.075	1	1
549.245	1	-6
549.415	1	3
549.585	1	-4
549.755	1	7
549.925	1	8
550.095	1	6
550.265	1	-13
550.435	1	2
550.605	1	1
550.775	1	7
550.945	1	13
551.115	1	-3
551.285	1	-2
551.455	1	5
551.625	1	9
551.795	1	-2
551.965	1	-8
552.135	1	7
552.305	1	2
552.475	1	13
552.645	1	4
552.815	1	1
552.985	1	11
553.155	1	6
553.325	1	4
553.495	1	9
553.665	1	6
553.835	1	-2
554.004	1	-3
554.174	1	-5
554.344	1	3
554.514	1	1
554.684	1	-4
554.854	1	1
555.024	1	-2
555.194	1	11
555.364	1	0
555.534	1	4
555.704	1	4
555.874	1	8
556.044	1	-1
556.214	1	-5
556.384	1	-1
556.554	1	4
556.724	1	1
556.894	1	-2
557.064	1	13
557.234	1	10
557.404	1	-6
557.573	1	8
557.743	1	1
557.913	1	6
558.083	1	-4
558.253	1	1
558.423	1	4
558.593	1	6
558.763	1	7
558.933	1	11
559.103	1	12
559.273	1	1
559.443	1	-2
559.613	1	11
559.783	1	-8
559.953	1	-7
560.122	1	1
560.292	1	7
560.462	1	2
560.632	1	5
560.802	1	18
560.972	1	6
561.142	1	-2
561.312	1	2
561.482	1	-1
561.652	1	-6
561.822	1	-4
561.992	1	1
562.162	1	0
562.331	1	12
562.501	1	4
562.671	1	5
562.841	1	9
563.011	1	5
563.181	1	4
563.351	1	13
563.521	1	-6
563.691	1	-1
563.861	1	3
564.031	1	-5
564.201	1	-5
564.370	1	2
564.540	1	12
564.710	1	1
564.880	1	-2
565.050	1	5
565.220	1	8
565.390	1	-1
565.560	1	4
565.730	1	-1
565.900	1	7
566.069	1	-4
566.239	1	12
566.409	1	3
566.579	1	-9
566.749	1	-6
566.919	1	7
567.089	1	1
567.259	1	-5
567.429	1	10
567.599	1	12
567.768	1	6
567.938	1	5
568.108	1	3
568.278	1	6
568.448	1	-3
568.618	1	14
568.788	1	7
568.958	1	7
569.128	1	4
569.297	1	12
569.467	1	9
569.637	1	-6
569.807	1	20
569.977	1	-3
570.147	1	2
570.317	1	-6
570.487	1	11
570.656	1	-3
570.826	1	-6
570.996	1	-3
571.166	1	2
571.336	1	-10
571.506	1	0
571.676	1	0
571.846	1	0
572.015	1	1
572.185	1	1
572.355	1	-1
572.525	1	11
572.695	1	-4
572.865	1	1
573.035	1	2
573.205	1	2
573.374	1	0
573.544	1	-2
573.714	1	2
573.884	1	8
574.054	1	8
574.224	1	3
574.394	1	7
574.563	1	0
574.733	1	0
574.903	1	-3
575.073	1	-5
575.243	1	2
575.413	1	-2
575.583	1	1
575.752	1	12
575.922	1	2
576.092	1	-4
576.262	1	5
576.432	1	-2
576.602	1	-2
576.772	1	2
576.941	1	3
577.111	1	-2
577.281	1	13
577.451	1	3
577.621	1	10
577.791	1	3
577.960	1	-6
578.130	1	-4
578.300	1	3
578.470	1	-6
578.640	1	7
578.810	1	-1
578.979	1	0
579.149	1	4
579.319	1	3
579.489	1	-1
579.659	1	-10
579.829	1	-1
579.998	1	5
580.168	1	2
580.338	1	2
580.508	1	19
580.678	1	-5
580.848	1	7
581.017	1	12
581.187	1	7
581.357	1	0
581.527	1	-5
581.697	1	-11
581.867	1	0
582.036	1	2
582.206	1	-2
582.376	1	3
582.546	1	8
582.716	1	10
582.885	1	7
583.055	1	12
583.225	1	0
583.395	1	4
583.565	1	4
583.735	1	3
583.904	1	7
584.074	1	5
584.244	1	-2
584.414	1	9
584.584	1	6
584.753	1	-5
584.923	1	-7
585.093	1	22
585.263	1	5
585.433	1	-1
585.602	1	3
585.772	1	6
585.942	1	9
586.112	1	-1
586.282	1	1
586.451	1	14
586.621	1	-1
586.791	1	8
586.961	1	4
587.131	1	5
587.300	1	1
587.470	1	-14
587.640	1	-8
587.810	1	7
587.980	1	5
588.149	1	14
588.319	1	9
588.489	1	-3
588.659	1	6
588.829	1	15
588.998	1	10
589.168	1	-2
589.338	1	-1
589.508	1	11
589.677	1	14
589.847	1	-5
590.017	1	6
590.187	1	-5
590.357	1	1
590.526	1	1
590.696	1	3
590.866	1	-11
591.036	1	12
591.205	1	5
591.375	1	-13
591.545	1	9
591.715	1	-9
591.885	1	6
592.054	1	4
592.224	1	10
592.394	1	8
592.564	1	9
592.733	1	-1
592.903	1	-2
593.073	1	11
593.243	1	5
593.412	1	-5
593.582	1	7
593.752	1	7
593.922	1	13
594.091	1	7
594.261	1	3
594.431	1	-2
594.601	1	5
594.771	1	-4
594.940	1	5
595.110	1	10
595.280	1	0
595.450	1	13
595.619	1	6
595.789	1	5
595.959	1	-3
596.129	1	7
596.298	1	5
596.468	1	0
596.638	1	-6
596.808	1	12
596.977	1	9
597.147	1	8
597.317	1	9
597.487	1	10
597.656	1	-8
597.826	1	11
597.996	1	6
598.166	1	5
598.335	1	2
598.505	1	3
598.675	1	0
598.844	1	3
599.014	1	-2
599.184	1	2
599.354	1	18
599.523	1	0
599.693	1	8
599.863	1	2
600.033	1	5
600.202	1	3
600.372	1	9
600.542	1	10
600.712	1	0
600.881	1	9
601.051	1	3
601.221	1	6
601.390	1	-3
601.560	1	-1
601.730	1	0
601.900	1	7
602.069	1	5
602.239	1	1
602.409	1	10
602.578	1	1
602.748	1	1
602.918	1	5
603.088	1	1
603.257	1	10
603.427	1	9
603.597	1	4
603.767	1	11
603.936	1	5
604.106	1	13
604.276	1	4
604.445	1	1
604.615	1	12
604.785	1	17
604.954	1	3
605.124	1	16
605.294	1	3
605.464	1	7
605.633	1	10
605.803	1	8
605.973	1	12
606.142	1	11
606.312	1	14
606.482	1	-11
606.652	1	2
606.821	1	2
606.991	1	5
607.161	1	2
607.330	1	8
607.500	1	11
607.670	1	10
607.839	1	9
608.009	1	-3
608.179	1	5
608.348	1	-1
608.518	1	9
608.688	1	-10
608.858	1	13
609.027	1	11
609.197	1	6
609.367	1	0
609.536	1	16
609.706	1	9
609.876	1	6
610.045	1	4
610.215	1	6
610.385	1	25
610.554	1	8
610.724	1	8
610.894	1	14
611.063	1	4
611.233	1	-2
611.403	1	14
611.572	1	7
611.742	1	-4
611.912	1	2
612.081	1	9
612.251	1	8
612.421	1	11
612.590	1	4
612.760	1	16
612.930	1	8
613.099	1	11
613.269	1	7
613.439	1	11
613.608	1	3
613.778	1	15
613.948	1	4
614.117	1	7
614.287	1	0
614.457	1	3
614.626	1	17
614.796	1	5
614.966	1	11
615.135	1	13
615.305	1	9
615.475	1	19
615.644	1	3
615.814	1	4
615.984	1	-1
616.153	1	7
616.323	1	-2
616.493	1	3
616.662	1	13
616.832	1	-1
617.002	1	11
617.171	1	13
617.341	1	11
617.511	1	13
617.680	1	10
617.850	1	10
618.019	1	6
618.189	1	11
618.359	1	3
618.528	1	2
618.698	1	11
618.868	1	13
619.037	1	3
619.207	1	6
619.377	1	9
619.546	1	2
619.716	1	8
619.885	1	10
620.055	1	6
620.225	1	5
620.394	1	7
620.564	1	12
620.734	1	5
620.903	1	15
621.073	1	11
621.242	1	8
621.412	1	6
621.582	1	11
621.751	1	-1
621.921	1	1
622.091	1	7
622.260	1	-4
622.430	1	7
622.599	1	8
622.769	1	13
622.939	1	-5
623.108	1	9
623.278	1	16
623.448	1	-1
623.617	1	0
623.787	1	10
623.956	1	9
624.126	1	17
624.296	1	0
624.465	1	7
624.635	1	2
624.804	1	6
624.974	1	8
625.144	1	13
625.313	1	11
625.483	1	10
625.652	1	12
625.822	1	21
625.992	1	19
626.161	1	11
626.331	1	18
626.501	1	1
626.670	1	9
626.840	1	5
627.009	1	11
627.179	1	15
627.348	1	18
627.518	1	7
627.688	1	5
627.857	1	7
628.027	1	8
628.196	1	9
628.366	1	10
628.536	1	11
628.705	1	16
628.875	1	4
629.044	1	8
629.214	1	2
629.384	1	6
629.553	1	10
629.723	1	19
629.892	1	6
630.062	1	4
630.232	1	4
630.401	1	6
630.571	1	7
630.740	1	12
630.910	1	8
631.079	1	15
631.249	1	-3
631.419	1	4
631.588	1	7
631.758	1	-2
631.927	1	15
632.097	1	7
632.266	1	-10
632.436	1	14
632.606	1	17
632.775	1	11
632.945	1	0
633.114	1	6
633.284	1	8
633.453	1	16
633.623	1	12
633.793	1	3
633.962	1	6
634.132	1	7
634.301	1	14
634.471	1	4
634.640	1	3
634.810	1	7
634.979	1	0
635.149	1	3
635.319	1	17
635.488	1	12
635.658	1	4
635.827	1	6
635.997	1	16
636.166	1	5
636.336	1	5
636.505	1	9
636.675	1	17
636.845	1	10
637.014	1	11
637.184	1	-6
637.353	1	16
637.523	1	7
637.692	1	10
637.862	1	7
638.031	1	1
638.201	1	4
638.370	1	16
638.540	1	3
638.710	1	7
638.879	1	0
639.049	1	3
639.218	1	18
639.388	1	15
639.557	1	5
639.727	1	8
639.896	1	12
640.066	1	3
640.235	1	2
640.405	1	14
640.574	1	7
640.744	1	9
640.914	1	14
641.083	1	12
641.253	1	13
641.422	1	3
641.592	1	4
641.761	1	8
641.931	1	7
642.100	1	6
642.270	1	10
642.439	1	8
642.609	1	8
642.778	1	5
642.948	1	3
643.117	1	5
643.287	1	11
643.456	1	6
643.626	1	8
643.795	1	15
643.965	1	10
644.134	1	8
644.304	1	5
644.473	1	15
644.643	1	1
644.812	1	7
644.982	1	-3
645.151	1	7
645.321	1	8
645.490	1	2
645.660	1	12
645.829	1	1
645.999	1	13
646.168	1	7
646.338	1	-3
646.507	1	12
646.677	1	-1
646.846	1	-1
647.016	1	6
647.185	1	1
647.355	1	3
647.524	1	-4
647.694	1	17
647.863	1	1
648.033	1	-3
648.202	1	11
648.372	1	9
648.541	1	6
648.711	1	-3
648.880	1	2
649.050	1	4
649.219	1	3
649.389	1	7
649.558	1	8
649.728	1	7
649.897	1	8
650.067	1	-1
650.236	1	4
650.406	1	5
650.575	1	6
650.745	1	-6
650.914	1	17
651.084	1	-2
651.253	1	22
651.423	1	9
651.592	1	8
651.762	1	12
651.931	1	8
652.101	1	13
652.270	1	5
652.440	1	6
652.609	1	10
652.778	1	14
652.948	1	0
653.117	1	8
653.287	1	8
653.456	1	7
653.626	1	3
653.795	1	7
653.965	1	12
654.134	1	7
654.304	1	2
654.473	1	1
654.643	1	5
654.812	1	16
654.982	1	3
655.151	1	2
655.320	1	6
655.490	1	-3
655.659	1	11
655.829	1	10
655.998	1	2
656.168	1	-3
656.337	1	4
656.507	1	0
656.676	1	14
656.846	1	9
657.015	1	4
657.184	1	7
657.354	1	5
657.523	1	-1
657.693	1	0
657.862	1	1
658.032	1	5
658.201	1	7
658.371	1	-3
658.540	1	13
658.709	1	6
658.879	1	14
659.048	1	6
659.218	1	-1
659.387	1	3
659.557	1	11
659.726	1	1
659.895	1	3
660.065	1	1
660.234	1	8
660.404	1	2
660.573	1	-1
660.743	1	3
660.912	1	-7
661.081	1	-5
661.251	1	11
661.420	1	2
661.590	1	-3
661.759	1	-15
661.929	1	8
662.098	1	6
662.267	1	1
662.437	1	-3
662.606	1	-5
662.776	1	3
662.945	1	-5
663.115	1	4
663.284	1	-3
663.453	1	10
663.623	1	-1
663.792	1	-5
663.962	1	11
664.131	1	7
664.300	1	-5
664.470	1	0
664.639	1	7
664.809	1	2
664.978	1	5
665.148	1	3
665.317	1	16
665.486	1	-9
665.656	1	16
665.825	1	7
665.995	1	-2
666.164	1	1
666.333	1	13
666.503	1	15
666.672	1	-6
666.842	1	1
667.011	1	12
667.180	1	-3
667.350	1	-1
667.519	1	-12
667.689	1	0
667.858	1	7
668.027	1	8
668.197	1	6
668.366	1	-3
668.536	1	12
668.705	1	4
668.874	1	6
669.044	1	3
669.213	1	2
669.382	1	8
669.552	1	0
669.721	1	2
669.891	1	7
670.060	1	-6
670.229	1	6
670.399	1	9
670.568	1	2
670.738	1	0
670.907	1	-4
671.076	1	0
671.246	1	-2
671.415	1	2
671.584	1	4
671.754	1	4
671.923	1	6
672.093	1	0
672.262	1	8
672.431	1	-3
672.601	1	-1
672.770	1	1
672.939	1	1
673.109	1	-4
673.278	1	0
673.448	1	-5
673.617	1	3
673.786	1	-4
