340.368	1	-3
340.539	1	1
340.710	1	-7
340.881	1	-6
341.052	1	2
341.223	1	-2
341.394	1	-10
341.565	1	1
341.737	1	-1
341.908	1	-9
342.079	1	6
342.250	1	-6
342.421	1	-5
342.592	1	12
342.763	1	-6
342.934	1	-1
343.105	1	-13
343.276	1	3
343.447	1	2
343.618	1	-8
343.789	1	4
343.960	1	5
344.131	1	12
344.302	1	7
344.473	1	10
344.644	1	6
344.815	1	-3
344.986	1	2
345.157	1	-2
345.328	1	10
345.499	1	8
345.670	1	-5
345.841	1	0
346.012	1	6
346.183	1	-8
346.354	1	12
346.526	1	-4
346.697	1	-5
346.868	1	-3
347.039	1	4
347.210	1	5
347.381	1	11
347.552	1	3
347.723	1	4
347.894	1	-8
348.065	1	8
348.236	1	-2
348.407	1	-1
348.578	1	-4
348.749	1	-7
348.920	1	-8
349.091	1	8
349.262	1	3
349.433	1	2
349.604	1	4
349.775	1	-7
349.946	1	6
350.117	1	11
350.288	1	-4
350.459	1	10
350.630	1	-1
350.801	1	10
350.972	1	17
351.143	1	8
351.314	1	-3
351.485	1	-7
351.656	1	1
351.827	1	-1
351.998	1	-2
352.169	1	3
352.340	1	10
352.511	1	-3
352.682	1	1
352.853	1	1
353.024	1	11
353.195	1	7
353.366	1	-4
353.537	1	7
353.708	1	2
353.879	1	5
354.050	1	2
354.221	1	8
354.392	1	-4
354.563	1	-7
354.734	1	3
354.905	1	13
355.076	1	-1
355.247	1	2
355.418	1	1
355.589	1	-3
355.760	1	-13
355.931	1	0
356.102	1	4
356.273	1	6
356.444	1	10
356.615	1	-2
356.785	1	10
356.956	1	-3
357.127	1	5
357.298	1	5
357.469	1	0
357.640	1	4
357.811	1	3
357.982	1	8
358.153	1	0
358.324	1	1
358.495	1	-1
358.666	1	8
358.837	1	4
359.008	1	9
359.179	1	7
359.350	1	-9
359.521	1	-4
359.692	1	9
359.863	1	-5
360.034	1	0
360.205	1	9
360.376	1	4
360.547	1	4
360.718	1	-10
360.889	1	2
361.060	1	5
361.231	1	0
361.401	1	0
361.572	1	2
361.743	1	-10
361.914	1	-4
362.085	1	0
362.256	1	-1
362.427	1	4
362.598	1	-11
362.769	1	12
362.940	1	-8
363.111	1	10
363.282	1	-4
363.453	1	4
363.624	1	9
363.795	1	7
363.966	1	2
364.137	1	-9
364.308	1	-1
364.478	1	3
364.649	1	-4
364.820	1	-1
364.991	1	1
365.162	1	2
365.333	1	-5
365.504	1	1
365.675	1	3
365.846	1	7
366.017	1	-2
366.188	1	10
366.359	1	0
366.530	1	5
366.701	1	0
366.871	1	-1
367.042	1	0
367.213	1	8
367.384	1	6
367.555	1	5
367.726	1	6
367.897	1	10
368.068	1	-1
368.239	1	-4
368.410	1	2
368.581	1	5
368.752	1	12
368.923	1	-16
369.093	1	3
369.264	1	-3
369.435	1	-7
369.606	1	-11
369.777	1	-6
369.948	1	1
370.119	1	11
370.290	1	-4
370.461	1	-3
370.632	1	9
370.803	1	6
370.973	1	-4
371.144	1	-1
371.315	1	4
371.486	1	-4
371.657	1	1
371.828	1	7
371.999	1	10
372.170	1	-4
372.341	1	5
372.512	1	-3
372.682	1	-3
372.853	1	-3
373.024	1	3
373.195	1	9
373.366	1	2
373.537	1	15
373.708	1	-1
373.879	1	-2
374.050	1	17
374.220	1	-9
374.391	1	4
374.562	1	-3
374.733	1	-2
374.904	1	1
375.075	1	7
375.246	1	4
375.417	1	11
375.588	1	10
375.758	1	11
375.929	1	9
376.100	1	-4
376.271	1	-6
376.442	1	2
376.613	1	7
376.784	1	3
376.955	1	-3
377.125	1	6
377.296	1	5
377.467	1	-7
377.638	1	0
377.809	1	13
377.980	1	-9
378.151	1	4
378.321	1	7
378.492	1	4
378.663	1	-4
378.834	1	4
379.005	1	-2
379.176	1	2
379.347	1	-6
379.518	1	-3
379.688	1	2
379.859	1	9
380.030	1	3
380.201	1	-4
380.372	1	-11
380.543	1	4
380.714	1	4
380.884	1	15
381.055	1	-3
381.226	1	-2
381.397	1	-5
381.568	1	-11
381.739	1	9
381.910	1	-2
382.080	1	9
382.251	1	5
382.422	1	10
382.593	1	2
382.764	1	-9
382.935	1	2
383.105	1	7
383.276	1	-2
383.447	1	6
383.618	1	-5
383.789	1	5
383.960	1	-3
384.130	1	4
384.301	1	0
384.472	1	0
384.643	1	-4
384.814	1	11
384.985	1	13
385.156	1	10
385.326	1	-2
385.497	1	-1
385.668	1	0
385.839	1	8
386.010	1	6
386.180	1	-3
386.351	1	10
386.522	1	-6
386.693	1	3
386.864	1	-2
387.035	1	1
387.205	1	2
387.376	1	7
387.547	1	-9
387.718	1	10
387.889	1	12
388.060	1	4
388.230	1	-3
388.401	1	-8
388.572	1	3
388.743	1	1
388.914	1	4
389.084	1	-2
389.255	1	-4
389.426	1	-1
389.597	1	1
389.768	1	7
389.939	1	4
390.109	1	-1
390.280	1	-6
390.451	1	-5
390.622	1	-2
390.793	1	18
390.963	1	-1
391.134	1	4
391.305	1	6
391.476	1	-8
391.647	1	-1
391.817	1	-4
391.988	1	6
392.159	1	0
392.330	1	0
392.501	1	-5
392.671	1	-4
392.842	1	-4
393.013	1	7
393.184	1	6
393.355	1	-2
393.525	1	0
393.696	1	-6
393.867	1	1
394.038	1	12
394.208	1	4
394.379	1	3
394.550	1	-4
394.721	1	5
394.892	1	19
395.062	1	7
395.233	1	-3
395.404	1	-5
395.575	1	6
395.746	1	-5
395.916	1	14
396.087	1	-2
396.258	1	6
396.429	1	-5
396.599	1	-1
396.770	1	1
396.941	1	4
397.112	1	1
397.283	1	-6
397.453	1	3
397.624	1	3
397.795	1	3
397.966	1	13
398.136	1	6
398.307	1	4
398.478	1	1
398.649	1	-1
398.819	1	1
398.990	1	-1
399.161	1	11
399.332	1	5
399.503	1	-6
399.673	1	2
399.844	1	1
400.015	1	4
400.186	1	-1
400.356	1	3
400.527	1	0
400.698	1	10
400.869	1	-3
401.039	1	1
401.210	1	12
401.381	1	9
401.552	1	1
401.722	1	4
401.893	1	5
402.064	1	-6
402.235	1	9
402.405	1	8
402.576	1	3
402.747	1	-1
402.918	1	4
403.088	1	-5
403.259	1	-1
403.430	1	4
403.601	1	6
403.771	1	9
403.942	1	-12
404.113	1	-4
404.284	1	2
404.454	1	2
404.625	1	-2
404.796	1	1
404.967	1	0
405.137	1	3
405.308	1	0
405.479	1	1
405.649	1	1
405.820	1	9
405.991	1	13
406.162	1	-5
406.332	1	-2
406.503	1	-2
406.674	1	9
406.845	1	-3
407.015	1	0
407.186	1	3
407.357	1	10
407.527	1	-3
407.698	1	-6
407.869	1	9
408.040	1	-5
408.210	1	-6
408.381	1	-4
408.552	1	5
408.722	1	-2
408.893	1	-2
409.064	1	3
409.235	1	0
409.405	1	-10
409.576	1	6
409.747	1	-2
409.917	1	-1
410.088	1	-3
410.259	1	-2
410.430	1	-3
410.600	1	6
410.771	1	-3
410.942	1	-1
411.112	1	2
411.283	1	1
411.454	1	12
411.625	1	-9
411.795	1	-7
411.966	1	4
412.137	1	10
412.307	1	-5
412.478	1	4
412.649	1	-6
412.819	1	5
412.990	1	-10
413.161	1	-1
413.332	1	-4
413.502	1	-4
413.673	1	6
413.844	1	4
414.014	1	3
414.185	1	-4
414.356	1	12
414.526	1	11
414.697	1	4
414.868	1	12
415.038	1	-4
415.209	1	3
415.380	1	-2
415.550	1	2
415.721	1	-7
415.892	1	4
416.063	1	1
416.233	1	11
416.404	1	3
416.575	1	5
416.745	1	-5
416.916	1	-8
417.087	1	-2
417.257	1	2
417.428	1	-3
417.599	1	8
417.769	1	-5
417.940	1	0
418.111	1	0
418.281	1	9
418.452	1	5
418.623	1	-1
418.793	1	2
418.964	1	4
419.135	1	-2
419.305	1	-2
419.476	1	4
419.647	1	-1
419.817	1	-3
419.988	1	-6
420.159	1	13
420.329	1	3
420.500	1	-2
420.671	1	7
420.841	1	0
421.012	1	7
421.183	1	0
421.353	1	2
421.524	1	-3
421.695	1	-1
421.865	1	3
422.036	1	8
422.206	1	14
422.377	1	3
422.548	1	0
422.718	1	-1
422.889	1	-3
423.060	1	5
423.230	1	3
423.401	1	1
423.572	1	0
423.742	1	9
423.913	1	6
424.084	1	-8
424.254	1	1
424.425	1	-5
424.595	1	2
424.766	1	6
424.937	1	0
425.107	1	0
425.278	1	6
425.449	1	2
425.619	1	2
425.790	1	-14
425.961	1	0
426.131	1	0
426.302	1	5
426.472	1	-8
426.643	1	-1
426.814	1	4
426.984	1	2
427.155	1	6
427.326	1	0
427.496	1	7
427.667	1	0
427.837	1	1
428.008	1	-3
428.179	1	-3
428.349	1	-3
428.520	1	6
428.691	1	4
428.861	1	8
429.032	1	0
429.202	1	2
429.373	1	3
429.544	1	2
429.714	1	-3
429.885	1	10
430.055	1	-6
430.226	1	4
430.397	1	-9
430.567	1	15
430.738	1	8
430.909	1	-4
431.079	1	11
431.250	1	2
431.420	1	2
431.591	1	0
431.762	1	1
431.932	1	6
432.103	1	14
432.273	1	9
432.444	1	-11
432.615	1	-8
432.785	1	14
432.956	1	11
433.126	1	5
433.297	1	5
433.468	1	-10
433.638	1	-5
433.809	1	-3
433.979	1	4
434.150	1	13
434.320	1	-1
434.491	1	5
434.662	1	0
434.832	1	4
435.003	1	4
435.173	1	5
435.344	1	0
435.515	1	1
435.685	1	0
435.856	1	12
436.026	1	-7
436.197	1	11
436.368	1	-5
436.538	1	5
436.709	1	-1
436.879	1	-8
437.050	1	12
437.220	1	12
437.391	1	13
437.562	1	7
437.732	1	-7
437.903	1	4
438.073	1	-17
438.244	1	6
438.414	1	11
438.585	1	3
438.756	1	-1
438.926	1	5
439.097	1	-1
439.267	1	5
439.438	1	7
439.608	1	3
439.779	1	8
439.949	1	6
440.120	1	-2
440.291	1	7
440.461	1	6
440.632	1	0
440.802	1	2
440.973	1	-2
441.143	1	-5
441.314	1	5
441.485	1	4
441.655	1	3
441.826	1	6
441.996	1	-2
442.167	1	-4
442.337	1	3
442.508	1	5
442.678	1	9
442.849	1	2
443.019	1	1
443.190	1	4
443.361	1	6
443.531	1	2
443.702	1	8
443.872	1	5
444.043	1	-5
444.213	1	2
444.384	1	-6
444.554	1	-12
444.725	1	0
444.895	1	9
445.066	1	2
445.237	1	3
445.407	1	5
445.578	1	11
445.748	1	-9
445.919	1	2
446.089	1	5
446.260	1	-4
446.430	1	12
446.601	1	-3
446.771	1	7
446.942	1	4
447.112	1	0
447.283	1	7
447.453	1	-10
447.624	1	-4
447.794	1	5
447.965	1	3
448.135	1	2
448.306	1	5
448.477	1	-1
448.647	1	-2
448.818	1	-4
448.988	1	3
449.159	1	8
449.329	1	6
449.500	1	9
449.670	1	13
449.841	1	5
450.011	1	6
450.182	1	0
450.352	1	10
450.523	1	1
450.693	1	6
450.864	1	7
451.034	1	0
451.205	1	1
451.375	1	-9
451.546	1	3
451.716	1	-4
451.887	1	3
452.057	1	0
452.228	1	6
452.398	1	8
452.569	1	3
452.739	1	12
452.910	1	-5
453.080	1	0
453.251	1	2
453.421	1	0
453.592	1	8
453.762	1	3
453.933	1	0
454.103	1	-3
454.274	1	-7
454.444	1	7
454.615	1	-4
454.785	1	2
454.956	1	-1
455.126	1	11
455.297	1	-1
455.467	1	9
455.638	1	-4
455.808	1	7
455.979	1	11
456.149	1	8
456.320	1	-12
456.490	1	0
456.661	1	-5
456.831	1	1
457.001	1	9
457.172	1	4
457.342	1	5
457.513	1	3
457.683	1	-1
457.854	1	3
458.024	1	4
458.195	1	-4
458.365	1	6
458.536	1	-9
458.706	1	1
458.877	1	4
459.047	1	-3
459.218	1	-4
459.388	1	2
459.559	1	9
459.729	1	11
459.899	1	-2
460.070	1	2
460.240	1	-2
460.411	1	10
460.581	1	-4
460.752	1	-4
460.922	1	10
461.093	1	11
461.263	1	-1
461.434	1	4
461.604	1	-8
461.775	1	-4
461.945	1	-3
462.115	1	5
462.286	1	9
462.456	1	8
462.627	1	0
462.797	1	3
462.968	1	-2
463.138	1	12
463.309	1	-2
463.479	1	5
463.649	1	5
463.820	1	-7
463.990	1	-1
464.161	1	-12
464.331	1	-3
464.502	1	4
464.672	1	-2
464.843	1	8
465.013	1	6
465.183	1	-5
465.354	1	-12
465.524	1	5
465.695	1	4
465.865	1	6
466.036	1	-13
466.206	1	3
466.376	1	-3
466.547	1	-11
466.717	1	-11
466.888	1	7
467.058	1	-1
467.229	1	0
467.399	1	10
467.569	1	14
467.740	1	-15
467.910	1	0
468.081	1	1
468.251	1	2
468.422	1	-5
468.592	1	1
468.762	1	10
468.933	1	5
469.103	1	5
469.274	1	0
469.444	1	15
469.614	1	2
469.785	1	-7
469.955	1	2
470.126	1	10
470.296	1	1
470.467	1	-3
470.637	1	10
470.807	1	-5
470.978	1	-4
471.148	1	12
471.319	1	-5
471.489	1	4
471.659	1	-2
471.830	1	10
472.000	1	2
472.171	1	-7
472.341	1	-10
472.511	1	2
472.682	1	10
472.852	1	-7
473.023	1	-1
473.193	1	-6
473.363	1	2
473.534	1	-8
473.704	1	0
473.875	1	1
474.045	1	5
474.215	1	1
474.386	1	17
474.556	1	0
474.727	1	6
474.897	1	-2
475.067	1	1
475.238	1	-3
475.408	1	6
475.578	1	6
475.749	1	7
475.919	1	-7
476.090	1	7
476.260	1	3
476.430	1	1
476.601	1	-9
476.771	1	3
476.942	1	3
477.112	1	-9
477.282	1	2
477.453	1	8
477.623	1	-5
477.793	1	6
477.964	1	-2
478.134	1	-5
478.305	1	-7
478.475	1	-12
478.645	1	3
478.816	1	11
478.986	1	-8
479.156	1	-6
479.327	1	-8
479.497	1	8
479.667	1	-5
479.838	1	5
480.008	1	4
480.179	1	5
480.349	1	-7
480.519	1	2
480.690	1	4
480.860	1	0
481.030	1	-4
481.201	1	0
481.371	1	10
481.541	1	4
481.712	1	9
481.882	1	3
482.053	1	7
482.223	1	4
482.393	1	-3
482.564	1	1
482.734	1	16
482.904	1	-5
483.075	1	-1
483.245	1	14
483.415	1	2
483.586	1	0
483.756	1	8
483.926	1	6
484.097	1	7
484.267	1	-6
484.437	1	4
484.608	1	-6
484.778	1	13
484.948	1	-7
485.119	1	4
485.289	1	-7
485.459	1	2
485.630	1	8
485.800	1	5
485.970	1	-6
486.141	1	-8
486.311	1	-1
486.481	1	-16
486.652	1	5
486.822	1	9
486.992	1	7
487.163	1	5
487.333	1	11
487.503	1	3
487.674	1	0
487.844	1	-9
488.014	1	4
488.185	1	12
488.355	1	1
488.525	1	2
488.696	1	10
488.866	1	-1
489.036	1	3
489.207	1	6
489.377	1	-2
489.547	1	11
489.718	1	0
489.888	1	10
490.058	1	1
490.228	1	-1
490.399	1	-8
490.569	1	-3
490.739	1	6
490.910	1	3
491.080	1	6
491.250	1	-3
491.421	1	3
491.591	1	6
491.761	1	1
491.932	1	2
492.102	1	4
492.272	1	2
492.442	1	5
492.613	1	5
492.783	1	10
492.953	1	10
493.124	1	5
493.294	1	0
493.464	1	4
493.635	1	-5
493.805	1	-2
493.975	1	-14
494.145	1	2
494.316	1	8
494.486	1	-6
494.656	1	0
494.827	1	-4
494.997	1	-3
495.167	1	-5
495.337	1	12
495.508	1	-5
495.678	1	3
495.848	1	-2
496.019	1	-11
496.189	1	10
496.359	1	-3
496.529	1	1
496.700	1	4
496.870	1	-4
497.040	1	-7
497.211	1	5
497.381	1	-2
497.551	1	-1
497.721	1	16
497.892	1	2
498.062	1	18
498.232	1	5
498.403	1	3
498.573	1	12
498.743	1	7
498.913	1	-4
499.084	1	-7
499.254	1	-1
499.424	1	8
499.594	1	15
499.765	1	1
499.935	1	10
500.105	1	-3
500.275	1	-12
500.446	1	2
500.616	1	8
500.786	1	4
500.956	1	4
501.127	1	6
501.297	1	5
501.467	1	-2
501.638	1	-2
501.808	1	-5
501.978	1	-2
502.148	1	-1
502.319	1	3
502.489	1	-3
502.659	1	-4
502.829	1	4
503.000	1	-4
503.170	1	3
503.340	1	9
503.510	1	-3
503.681	1	7
503.851	1	4
504.021	1	8
504.191	1	-1
504.362	1	4
504.532	1	-7
504.702	1	1
504.872	1	-8
505.042	1	-2
505.213	1	11
505.383	1	0
505.553	1	-1
505.723	1	1
505.894	1	3
506.064	1	3
506.234	1	1
506.404	1	7
506.575	1	-5
506.745	1	1
506.915	1	0
507.085	1	5
507.256	1	3
507.426	1	0
507.596	1	2
507.766	1	5
507.936	1	-5
508.107	1	-1
508.277	1	-10
508.447	1	5
508.617	1	2
508.788	1	-12
508.958	1	5
509.128	1	5
509.298	1	-11
509.468	1	-3
509.639	1	2
509.809	1	1
509.979	1	8
510.149	1	6
510.319	1	0
510.490	1	3
510.660	1	8
510.830	1	-3
511.000	1	-2
511.171	1	-5
511.341	1	-4
511.511	1	9
511.681	1	2
511.851	1	-1
512.022	1	1
512.192	1	1
512.362	1	17
512.532	1	-1
512.702	1	3
512.873	1	2
513.043	1	3
513.213	1	-4
513.383	1	-5
513.553	1	-1
513.724	1	4
513.894	1	1
514.064	1	1
514.234	1	-5
514.404	1	-3
514.575	1	1
514.745	1	2
514.915	1	-11
515.085	1	6
515.255	1	8
515.425	1	0
515.596	1	0
515.766	1	9
515.936	1	1
516.106	1	0
516.276	1	6
516.447	1	11
516.617	1	0
516.787	1	-5
516.957	1	6
517.127	1	2
517.297	1	-4
517.468	1	2
517.638	1	-1
517.808	1	15
517.978	1	11
518.148	1	12
518.319	1	11
518.489	1	8
518.659	1	9
518.829	1	6
518.999	1	-3
519.169	1	-7
519.340	1	1
519.510	1	-10
519.680	1	2
519.850	1	4
520.020	1	13
520.190	1	10
520.361	1	2
520.531	1	5
520.701	1	-3
520.871	1	-10
521.041	1	-9
521.211	1	3
521.382	1	0
521.552	1	6
521.722	1	17
521.892	1	1
522.062	1	-5
522.232	1	8
522.402	1	-1
522.573	1	4
522.743	1	-7
522.913	1	-2
523.083	1	-3
523.253	1	2
523.423	1	-1
523.593	1	-7
523.764	1	5
523.934	1	1
524.104	1	2
524.274	1	2
524.444	1	1
524.614	1	-2
524.784	1	24
524.955	1	11
525.125	1	4
525.295	1	6
525.465	1	-7
525.635	1	-5
525.805	1	4
525.975	1	-4
526.146	1	4
526.316	1	-5
526.486	1	10
526.656	1	6
526.826	1	-4
526.996	1	7
527.166	1	4
527.337	1	-2
527.507	1	-5
527.677	1	8
527.847	1	-2
528.017	1	-7
528.187	1	-1
528.357	1	2
528.527	1	-2
528.698	1	2
528.868	1	-1
529.038	1	0
529.208	1	-1
529.378	1	-1
529.548	1	-1
529.718	1	6
529.888	1	9
530.058	1	5
530.229	1	7
530.399	1	6
530.569	1	-12
530.739	1	4
530.909	1	-1
531.079	1	-6
531.249	1	6
531.419	1	4
531.589	1	-7
531.760	1	-5
531.930	1	0
532.100	1	-3
532.270	1	-3
532.440	1	-4
532.610	1	4
532.780	1	1
532.950	1	-2
533.120	1	5
533.290	1	12
533.461	1	-2
533.631	1	-11
533.801	1	-10
533.971	1	3
534.141	1	-7
534.311	1	3
534.481	1	-6
534.651	1	-6
534.821	1	5
534.991	1	-7
535.162	1	8
535.332	1	-2
535.502	1	2
535.672	1	-5
535.842	1	2
536.012	1	4
536.182	1	6
536.352	1	-7
536.522	1	1
536.692	1	2
536.862	1	8
537.032	1	7
537.203	1	12
537.373	1	5
537.543	1	5
537.713	1	-1
537.883	1	0
538.053	1	0
538.223	1	8
538.393	1	-6
538.563	1	0
538.733	1	11
538.903	1	4
539.073	1	-15
539.243	1	-6
539.413	1	-1
539.584	1	7
539.754	1	-5
539.924	1	1
540.094	1	-2
540.264	1	2
540.434	1	-2
540.604	1	8
540.774	1	13
540.944	1	9
541.114	1	-5
541.284	1	1
541.454	1	0
541.624	1	6
541.794	1	13
541.964	1	5
542.134	1	5
542.305	1	7
542.475	1	9
542.645	1	-1
542.815	1	0
542.985	1	-1
543.155	1	1
543.325	1	-3
543.495	1	8
543.665	1	10
543.835	1	-6
544.005	1	-5
544.175	1	-1
544.345	1	-3
544.515	1	-2
544.685	1	-7
544.855	1	11
545.025	1	9
545.195	1	7
545.365	1	-2
545.535	1	-2
545.705	1	9
545.875	1	-1
546.045	1	4
546.216	1	2
546.386	1	3
546.556	1	5
546.726	1	-6
546.896	1	8
547.066	1	6
547.236	1	3
547.406	1	3
547.576	1	8
547.746	1	-1
547.916	1	12
548.086	1	-3
548.256	1	2
548.426	1	5
548.596	1	-1
548.766	1	11
548.936	1	-3
549.106	1	9
549.276	1	-2
549.446	1	0
549.616	1	-1
549.786	1	15
549.956	1	-2
550.126	1	9
550.296	1	6
550.466	1	3
550.636	1	1
550.806	1	-4
550.976	1	4
551.146	1	11
551.316	1	8
551.486	1	-1
551.656	1	3
551.826	1	2
551.996	1	-4
552.166	1	-7
552.336	1	3
552.506	1	2
552.676	1	11
552.846	1	11
553.016	1	5
553.186	1	-6
553.356	1	-10
553.526	1	7
553.696	1	6
553.866	1	6
554.036	1	0
554.206	1	0
554.376	1	-7
554.546	1	0
554.716	1	-8
554.886	1	3
555.056	1	3
555.226	1	11
555.396	1	-6
555.566	1	17
555.736	1	-4
555.906	1	-5
556.076	1	9
556.246	1	10
556.416	1	3
556.586	1	-2
556.756	1	2
556.926	1	5
557.096	1	2
557.266	1	10
557.436	1	4
557.606	1	1
557.776	1	-5
557.946	1	-5
558.116	1	2
558.286	1	-3
558.456	1	-3
558.626	1	7
558.796	1	-5
558.966	1	6
559.136	1	8
559.306	1	12
559.476	1	2
559.646	1	-1
559.816	1	-7
559.986	1	-3
560.155	1	-6
560.325	1	7
560.495	1	3
560.665	1	3
560.835	1	2
561.005	1	-6
561.175	1	-3
561.345	1	-4
561.515	1	-3
561.685	1	1
561.855	1	-5
562.025	1	10
562.195	1	5
562.365	1	8
562.535	1	-6
562.705	1	9
562.875	1	5
563.045	1	-14
563.215	1	4
563.385	1	7
563.555	1	10
563.725	1	-1
563.895	1	3
564.064	1	10
564.234	1	7
564.404	1	-7
564.574	1	8
564.744	1	9
564.914	1	0
565.084	1	0
565.254	1	6
565.424	1	-1
565.594	1	3
565.764	1	0
565.934	1	3
566.104	1	-4
566.274	1	4
566.444	1	2
566.614	1	-7
566.783	1	-2
566.953	1	7
567.123	1	3
567.293	1	3
567.463	1	8
567.633	1	4
567.803	1	0
567.973	1	3
568.143	1	-5
568.313	1	6
568.483	1	7
568.653	1	5
568.823	1	-2
568.993	1	17
569.162	1	12
569.332	1	1
569.502	1	3
569.672	1	1
569.842	1	-1
570.012	1	-4
570.182	1	2
570.352	1	-1
570.522	1	1
570.692	1	-4
570.862	1	19
571.031	1	1
571.201	1	9
571.371	1	-13
571.541	1	6
571.711	1	0
571.881	1	3
572.051	1	5
572.221	1	4
572.391	1	-7
572.561	1	8
572.731	1	-2
572.900	1	4
573.070	1	-5
573.240	1	-1
573.410	1	-2
573.580	1	6
573.750	1	-7
573.920	1	-4
574.090	1	5
574.260	1	-1
574.430	1	-1
574.599	1	-1
574.769	1	4
574.939	1	-3
575.109	1	-9
575.279	1	-7
575.449	1	-1
575.619	1	5
575.789	1	-1
575.959	1	-2
576.128	1	-1
576.298	1	-4
576.468	1	6
576.638	1	-5
576.808	1	-1
576.978	1	-1
577.148	1	0
577.318	1	0
577.487	1	2
577.657	1	12
577.827	1	5
577.997	1	10
578.167	1	6
578.337	1	-4
578.507	1	11
578.677	1	0
578.846	1	8
579.016	1	2
579.186	1	4
579.356	1	4
579.526	1	5
579.696	1	-2
579.866	1	8
580.036	1	-4
580.205	1	-4
580.375	1	-6
580.545	1	4
580.715	1	10
580.885	1	4
581.055	1	-2
581.225	1	-6
581.394	1	0
581.564	1	-12
581.734	1	2
581.904	1	3
582.074	1	0
582.244	1	10
582.414	1	20
582.583	1	10
582.753	1	-1
582.923	1	4
583.093	1	3
583.263	1	3
583.433	1	-5
583.603	1	10
583.772	1	4
583.942	1	6
584.112	1	-1
584.282	1	6
584.452	1	3
584.622	1	8
584.791	1	6
584.961	1	8
585.131	1	-2
585.301	1	3
585.471	1	10
585.641	1	1
585.811	1	6
585.980	1	5
586.150	1	8
586.320	1	8
586.490	1	4
586.660	1	-2
586.830	1	4
586.999	1	4
587.169	1	2
587.339	1	-7
587.509	1	4
587.679	1	4
587.849	1	0
588.018	1	-4
588.188	1	10
588.358	1	6
588.528	1	-7
588.698	1	-7
588.867	1	3
589.037	1	1
589.207	1	-1
589.377	1	3
589.547	1	5
589.717	1	-5
589.886	1	8
590.056	1	-6
590.226	1	9
590.396	1	7
590.566	1	-1
590.735	1	-4
590.905	1	4
591.075	1	-3
591.245	1	11
591.415	1	-2
591.585	1	5
591.754	1	-10
591.924	1	2
592.094	1	5
592.264	1	4
592.434	1	9
592.603	1	5
592.773	1	7
592.943	1	-4
593.113	1	-12
593.283	1	8
593.452	1	6
593.622	1	-1
593.792	1	3
593.962	1	6
594.132	1	7
594.301	1	3
594.471	1	-2
594.641	1	6
594.811	1	-1
594.981	1	-3
595.150	1	-12
595.320	1	5
595.490	1	-6
595.660	1	-3
595.829	1	9
595.999	1	-8
596.169	1	7
596.339	1	7
596.509	1	4
596.678	1	-3
596.848	1	8
597.018	1	-3
597.188	1	-6
597.358	1	8
597.527	1	6
597.697	1	-1
597.867	1	3
598.037	1	4
598.206	1	-5
598.376	1	0
598.546	1	0
598.716	1	-4
598.885	1	7
599.055	1	7
599.225	1	3
599.395	1	0
599.565	1	-4
599.734	1	6
599.904	1	2
600.074	1	8
600.244	1	11
600.413	1	-3
600.583	1	-7
600.753	1	-8
600.923	1	-1
601.092	1	9
601.262	1	-6
601.432	1	7
601.602	1	7
601.771	1	0
601.941	1	3
602.111	1	0
602.281	1	7
602.451	1	-4
602.620	1	6
602.790	1	-11
602.960	1	-4
603.130	1	-4
603.299	1	1
603.469	1	2
603.639	1	3
603.809	1	8
603.978	1	-6
604.148	1	7
604.318	1	1
604.487	1	2
604.657	1	11
604.827	1	10
604.997	1	-7
605.166	1	-2
605.336	1	-1
605.506	1	-8
605.676	1	-5
605.845	1	-1
606.015	1	-1
606.185	1	5
606.355	1	4
606.524	1	7
606.694	1	0
606.864	1	5
607.034	1	3
607.203	1	-2
607.373	1	-11
607.543	1	-2
607.712	1	0
607.882	1	-11
608.052	1	1
608.222	1	7
608.391	1	15
608.561	1	8
608.731	1	12
608.901	1	-7
609.070	1	0
609.240	1	3
609.410	1	2
609.579	1	-10
609.749	1	3
609.919	1	6
610.089	1	7
610.258	1	5
610.428	1	-2
610.598	1	0
610.767	1	-8
610.937	1	-1
611.107	1	-6
611.277	1	-2
611.446	1	6
611.616	1	0
611.786	1	5
611.955	1	8
612.125	1	2
612.295	1	6
612.465	1	-6
612.634	1	-3
612.804	1	5
612.974	1	-1
613.143	1	-2
613.313	1	-3
613.483	1	3
613.652	1	8
613.822	1	1
613.992	1	1
614.162	1	3
614.331	1	-5
614.501	1	-3
614.671	1	14
614.840	1	3
615.010	1	-2
615.180	1	10
615.349	1	-2
615.519	1	7
615.689	1	13
615.858	1	-2
616.028	1	0
616.198	1	11
616.368	1	3
616.537	1	-7
616.707	1	8
616.877	1	-7
617.046	1	0
617.216	1	-5
617.386	1	5
617.555	1	-3
617.725	1	5
617.895	1	9
618.064	1	0
618.234	1	-1
618.404	1	2
618.573	1	12
618.743	1	5
618.913	1	4
619.082	1	-4
619.252	1	2
619.422	1	-6
619.591	1	3
619.761	1	-1
619.931	1	3
620.100	1	-6
620.270	1	2
620.440	1	7
620.609	1	4
620.779	1	11
620.949	1	1
621.118	1	-4
621.288	1	6
621.458	1	11
621.627	1	2
621.797	1	1
621.967	1	11
622.136	1	0
622.306	1	5
622.476	1	4
622.645	1	4
622.815	1	-4
622.985	1	-5
623.154	1	3
623.324	1	3
623.494	1	16
623.663	1	11
623.833	1	-2
624.002	1	-6
624.172	1	-6
624.342	1	-14
624.511	1	-7
624.681	1	0
624.851	1	7
625.020	1	2
625.190	1	6
625.360	1	-8
625.529	1	0
625.699	1	-1
625.869	1	3
626.038	1	1
626.208	1	1
626.377	1	6
626.547	1	-4
626.717	1	3
626.886	1	5
627.056	1	2
627.226	1	-7
627.395	1	2
627.565	1	-4
627.735	1	6
627.904	1	-9
628.074	1	10
628.243	1	12
628.413	1	-4
628.583	1	-10
628.752	1	3
628.922	1	-5
629.091	1	-3
629.261	1	-3
629.431	1	7
629.600	1	14
629.770	1	-1
629.940	1	8
630.109	1	1
630.279	1	-6
630.448	1	4
630.618	1	15
630.788	1	0
630.957	1	1
631.127	1	8
631.297	1	4
631.466	1	-1
631.636	1	-8
631.805	1	7
631.975	1	6
632.145	1	16
632.314	1	3
632.484	1	-1
632.653	1	1
632.823	1	8
632.993	1	-8
633.162	1	2
633.332	1	-2
633.501	1	0
633.671	1	2
633.841	1	17
634.010	1	2
634.180	1	-4
634.349	1	12
634.519	1	-10
634.689	1	1
634.858	1	-16
635.028	1	8
635.197	1	8
635.367	1	2
635.537	1	4
635.706	1	10
635.876	1	3
636.045	1	-3
636.215	1	7
636.384	1	1
636.554	1	4
636.724	1	-5
636.893	1	3
637.063	1	0
637.232	1	6
637.402	1	3
637.572	1	0
637.741	1	4
637.911	1	-7
638.080	1	-2
638.250	1	-2
638.419	1	2
638.589	1	5
638.759	1	-2
638.928	1	2
639.098	1	-3
639.267	1	5
639.437	1	-4
639.606	1	5
639.776	1	0
639.946	1	-4
640.115	1	-2
640.285	1	0
640.454	1	-1
640.624	1	9
640.793	1	7
640.963	1	4
641.132	1	-10
641.302	1	14
641.472	1	-8
641.641	1	-4
641.811	1	-1
641.980	1	-1
642.150	1	2
642.319	1	10
642.489	1	9
642.659	1	4
642.828	1	-1
642.998	1	0
643.167	1	-4
643.337	1	-3
643.506	1	-4
643.676	1	-1
643.845	1	-1
644.015	1	7
644.184	1	10
644.354	1	1
644.524	1	0
644.693	1	-4
644.863	1	-2
645.032	1	-4
645.202	1	-6
645.371	1	4
645.541	1	11
645.710	1	8
645.880	1	16
646.049	1	9
646.219	1	4
646.388	1	8
646.558	1	6
646.728	1	1
646.897	1	-2
647.067	1	2
647.236	1	-7
647.406	1	2
647.575	1	-3
647.745	1	-1
647.914	1	-1
648.084	1	-2
648.253	1	1
648.423	1	-4
648.592	1	-1
648.762	1	10
648.931	1	6
649.101	1	2
649.270	1	-9
649.440	1	-6
649.610	1	-5
649.779	1	4
649.949	1	-9
650.118	1	11
650.288	1	6
650.457	1	9
650.627	1	7
650.796	1	5
650.966	1	3
651.135	1	11
651.305	1	7
651.474	1	-8
651.644	1	-11
651.813	1	-11
651.983	1	0
652.152	1	-3
652.322	1	7
652.491	1	14
652.661	1	9
652.830	1	4
653.000	1	-1
653.169	1	3
653.339	1	-2
653.508	1	9
653.678	1	7
653.847	1	8
654.017	1	1
654.186	1	0
654.356	1	-7
654.525	1	7
654.695	1	-5
654.864	1	-5
655.034	1	1
655.203	1	-5
655.373	1	7
655.542	1	11
655.712	1	-2
655.881	1	-15
656.051	1	-5
656.220	1	16
656.390	1	0
656.559	1	8
656.729	1	-5
656.898	1	5
657.068	1	10
657.237	1	7
657.406	1	1
657.576	1	-4
657.745	1	-1
657.915	1	6
658.084	1	3
658.254	1	8
658.423	1	5
658.593	1	-2
658.762	1	-1
658.932	1	12
659.101	1	-7
659.271	1	3
659.440	1	2
659.610	1	2
659.779	1	1
659.949	1	2
660.118	1	4
660.288	1	7
660.457	1	-3
660.626	1	-1
660.796	1	13
660.965	1	13
661.135	1	6
661.304	1	2
661.474	1	-5
661.643	1	-4
661.813	1	0
661.982	1	5
662.152	1	-2
662.321	1	-2
662.491	1	3
662.660	1	-5
662.829	1	8
662.999	1	5
663.168	1	2
663.338	1	4
663.507	1	-3
663.677	1	11
663.846	1	0
664.016	1	-3
664.185	1	6
664.354	1	-3
664.524	1	-6
664.693	1	5
664.863	1	-1
665.032	1	9
665.202	1	6
665.371	1	1
665.541	1	8
665.710	1	4
665.879	1	3
666.049	1	1
666.218	1	0
666.388	1	7
666.557	1	-1
666.727	1	-1
666.896	1	4
667.065	1	0
667.235	1	3
667.404	1	1
667.574	1	10
667.743	1	0
667.913	1	2
668.082	1	3
668.251	1	0
668.421	1	0
668.590	1	2
668.760	1	0
668.929	1	3
669.099	1	2
669.268	1	3
669.437	1	-1
669.607	1	1
669.776	1	-5
669.946	1	0
670.115	1	-4
670.285	1	-2
670.454	1	-1
670.623	1	9
670.793	1	3
670.962	1	9
671.132	1	-2
671.301	1	-5
671.470	1	-4
671.640	1	-8
671.809	1	11
671.979	1	2
672.148	1	2
672.317	1	1
672.487	1	2
672.656	1	2
672.826	1	11
672.995	1	-1
673.164	1	6
673.334	1	2
673.503	1	7
673.673	1	7
673.842	1	-4
674.011	1	11
674.181	1	-14
674.350	1	10
674.520	1	3
674.689	1	2
674.858	1	1
675.028	1	11
675.197	1	6
675.367	1	3
675.536	1	-1
675.705	1	-5
675.875	1	-2
676.044	1	-2
676.214	1	2
676.383	1	8
676.552	1	-6
676.722	1	4
676.891	1	-8
677.060	1	-6
677.230	1	-14
677.399	1	-2
677.569	1	4
677.738	1	-3
677.907	1	0
678.077	1	0
678.246	1	2
678.416	1	-3
678.585	1	-3
678.754	1	3
678.924	1	9
679.093	1	0
679.262	1	-1
679.432	1	-3
679.601	1	-6
679.771	1	-7
679.940	1	-3
680.109	1	-5
680.279	1	3
680.448	1	-7
680.617	1	10
680.787	1	9
680.956	1	8
681.125	1	2
681.295	1	6
681.464	1	3
681.634	1	2
681.803	1	9
681.972	1	2
682.142	1	-4
682.311	1	-5
682.480	1	-2
682.650	1	6
682.819	1	5
682.988	1	7
683.158	1	-1
683.327	1	4
683.496	1	-3
683.666	1	-2
683.835	1	-6
684.004	1	0
684.174	1	4
684.343	1	-4
684.512	1	9
684.682	1	0
684.851	1	9
685.021	1	3
685.190	1	9
685.359	1	5
685.529	1	5
685.698	1	6
685.867	1	-3
686.037	1	-5
686.206	1	10
686.375	1	11
686.545	1	1
686.714	1	-5
686.883	1	1
687.053	1	5
687.222	1	4
687.391	1	0
687.561	1	-1
687.730	1	1
687.899	1	-8
688.069	1	5
688.238	1	3
688.407	1	-2
688.577	1	7
688.746	1	-2
