340.368	1	-3
340.539	1	3
340.710	1	6
340.881	1	0
341.052	1	-11
341.223	1	15
341.394	1	-5
341.565	1	-12
341.737	1	11
341.908	1	-1
342.079	1	0
342.250	1	-10
342.421	1	2
342.592	1	1
342.763	1	-7
342.934	1	0
343.105	1	-9
343.276	1	-10
343.447	1	-3
343.618	1	-6
343.789	1	5
343.960	1	2
344.131	1	4
344.302	1	5
344.473	1	4
344.644	1	7
344.815	1	4
344.986	1	3
345.157	1	1
345.328	1	7
345.499	1	14
345.670	1	-6
345.841	1	6
346.012	1	-1
346.183	1	4
346.354	1	-2
346.526	1	5
346.697	1	0
346.868	1	-4
347.039	1	-3
347.210	1	6
347.381	1	5
347.552	1	8
347.723	1	2
347.894	1	-5
348.065	1	2
348.236	1	0
348.407	1	-3
348.578	1	6
348.749	1	-7
348.920	1	-3
349.091	1	10
349.262	1	5
349.433	1	9
349.604	1	7
349.775	1	-8
349.946	1	4
350.117	1	0
350.288	1	-4
350.459	1	-1
350.630	1	-3
350.801	1	-2
350.972	1	4
351.143	1	12
351.314	1	-7
351.485	1	1
351.656	1	1
351.827	1	3
351.998	1	4
352.169	1	6
352.340	1	11
352.511	1	-5
352.682	1	10
352.853	1	-1
353.024	1	9
353.195	1	7
353.366	1	0
353.537	1	7
353.708	1	4
353.879	1	4
354.050	1	2
354.221	1	6
354.392	1	-2
354.563	1	-4
354.734	1	2
354.905	1	15
355.076	1	-4
355.247	1	-3
355.418	1	5
355.589	1	-4
355.760	1	7
355.931	1	4
356.102	1	1
356.273	1	7
356.444	1	-1
356.615	1	0
356.785	1	-4
356.956	1	1
357.127	1	6
357.298	1	8
357.469	1	11
357.640	1	7
357.811	1	-3
357.982	1	13
358.153	1	5
358.324	1	21
358.495	1	5
358.666	1	7
358.837	1	-1
359.008	1	7
359.179	1	7
359.350	1	-1
359.521	1	0
359.692	1	9
359.863	1	-2
360.034	1	0
360.205	1	11
360.376	1	-5
360.547	1	9
360.718	1	-11
360.889	1	10
361.060	1	10
361.231	1	8
361.401	1	14
361.572	1	2
361.743	1	2
361.914	1	-1
362.085	1	10
362.256	1	8
362.427	1	-2
362.598	1	9
362.769	1	13
362.940	1	1
363.111	1	16
363.282	1	-2
363.453	1	6
363.624	1	19
363.795	1	12
363.966	1	9
364.137	1	5
364.308	1	1
364.478	1	9
364.649	1	3
364.820	1	5
364.991	1	5
365.162	1	5
365.333	1	14
365.504	1	11
365.675	1	16
365.846	1	21
366.017	1	21
366.188	1	14
366.359	1	21
366.530	1	13
366.701	1	14
366.871	1	12
367.042	1	3
367.213	1	21
367.384	1	10
367.555	1	5
367.726	1	17
367.897	1	20
368.068	1	11
368.239	1	12
368.410	1	18
368.581	1	11
368.752	1	19
368.923	1	12
369.093	1	7
369.264	1	12
369.435	1	18
369.606	1	18
369.777	1	14
369.948	1	16
370.119	1	12
370.290	1	15
370.461	1	-3
370.632	1	23
370.803	1	14
370.973	1	16
371.144	1	18
371.315	1	19
371.486	1	27
371.657	1	20
371.828	1	20
371.999	1	23
372.170	1	6
372.341	1	17
372.512	1	16
372.682	1	13
372.853	1	20
373.024	1	12
373.195	1	32
373.366	1	15
373.537	1	26
373.708	1	37
373.879	1	15
374.050	1	28
374.220	1	21
374.391	1	16
374.562	1	18
374.733	1	22
374.904	1	15
375.075	1	19
375.246	1	20
375.417	1	26
375.588	1	16
375.758	1	26
375.929	1	26
376.100	1	11
376.271	1	23
376.442	1	16
376.613	1	18
376.784	1	14
376.955	1	20
377.125	1	20
377.296	1	15
377.467	1	32
377.638	1	8
377.809	1	22
377.980	1	10
378.151	1	19
378.321	1	21
378.492	1	13
378.663	1	11
378.834	1	21
379.005	1	21
379.176	1	22
379.347	1	15
379.518	1	14
379.688	1	11
379.859	1	11
380.030	1	13
380.201	1	23
380.372	1	4
380.543	1	26
380.714	1	9
380.884	1	21
381.055	1	0
381.226	1	15
381.397	1	9
381.568	1	14
381.739	1	19
381.910	1	13
382.080	1	17
382.251	1	15
382.422	1	22
382.593	1	10
382.764	1	10
382.935	1	8
383.105	1	25
383.276	1	14
383.447	1	18
383.618	1	8
383.789	1	23
383.960	1	5
384.130	1	8
384.301	1	6
384.472	1	8
384.643	1	15
384.814	1	14
384.985	1	17
385.156	1	17
385.326	1	10
385.497	1	4
385.668	1	11
385.839	1	15
386.010	1	17
386.180	1	8
386.351	1	18
386.522	1	-3
386.693	1	8
386.864	1	8
387.035	1	9
387.205	1	9
387.376	1	9
387.547	1	2
387.718	1	14
387.889	1	19
388.060	1	3
388.230	1	4
388.401	1	8
388.572	1	5
388.743	1	6
388.914	1	12
389.084	1	7
389.255	1	4
389.426	1	4
389.597	1	6
389.768	1	15
389.939	1	7
390.109	1	3
390.280	1	7
390.451	1	5
390.622	1	5
390.793	1	3
390.963	1	2
391.134	1	7
391.305	1	7
391.476	1	7
391.647	1	-3
391.817	1	4
391.988	1	11
392.159	1	2
392.330	1	-2
392.501	1	-2
392.671	1	7
392.842	1	-7
393.013	1	2
393.184	1	6
393.355	1	-1
393.525	1	13
393.696	1	3
393.867	1	1
394.038	1	7
394.208	1	3
394.379	1	-5
394.550	1	-1
394.721	1	12
394.892	1	13
395.062	1	5
395.233	1	-1
395.404	1	0
395.575	1	12
395.746	1	0
395.916	1	2
396.087	1	11
396.258	1	-3
396.429	1	3
396.599	1	1
396.770	1	1
396.941	1	11
397.112	1	-1
397.283	1	10
397.453	1	8
397.624	1	7
397.795	1	6
397.966	1	2
398.136	1	6
398.307	1	11
398.478	1	6
398.649	1	-2
398.819	1	-1
398.990	1	4
399.161	1	14
399.332	1	8
399.503	1	7
399.673	1	-3
399.844	1	2
400.015	1	16
400.186	1	7
400.356	1	-3
400.527	1	-4
400.698	1	14
400.869	1	4
401.039	1	5
401.210	1	13
401.381	1	6
401.552	1	7
401.722	1	-2
401.893	1	0
402.064	1	4
402.235	1	5
402.405	1	17
402.576	1	7
402.747	1	11
402.918	1	2
403.088	1	-1
403.259	1	8
403.430	1	2
403.601	1	5
403.771	1	6
403.942	1	-11
404.113	1	0
404.284	1	9
404.454	1	-1
404.625	1	9
404.796	1	10
404.967	1	3
405.137	1	-5
405.308	1	-3
405.479	1	-4
405.649	1	7
405.820	1	0
405.991	1	10
406.162	1	11
406.332	1	-5
406.503	1	4
406.674	1	13
406.845	1	10
407.015	1	9
407.186	1	4
407.357	1	-4
407.527	1	6
407.698	1	4
407.869	1	4
408.040	1	2
408.210	1	4
408.381	1	-6
408.552	1	4
408.722	1	-6
408.893	1	-1
409.064	1	3
409.235	1	-1
409.405	1	-11
409.576	1	8
409.747	1	7
409.917	1	10
410.088	1	14
410.259	1	-5
410.430	1	-3
410.600	1	4
410.771	1	4
410.942	1	-6
411.112	1	8
411.283	1	5
411.454	1	-3
411.625	1	-5
411.795	1	-2
411.966	1	-2
412.137	1	16
412.307	1	-12
412.478	1	4
412.649	1	5
412.819	1	-2
412.990	1	-7
413.161	1	1
413.332	1	8
413.502	1	-4
413.673	1	12
413.844	1	4
414.014	1	9
414.185	1	-9
414.356	1	6
414.526	1	3
414.697	1	-1
414.868	1	9
415.038	1	2
415.209	1	6
415.380	1	0
415.550	1	3
415.721	1	1
415.892	1	4
416.063	1	4
416.233	1	13
416.404	1	-6
416.575	1	9
416.745	1	1
416.916	1	2
417.087	1	-1
417.257	1	6
417.428	1	-2
417.599	1	4
417.769	1	6
417.940	1	8
418.111	1	11
418.281	1	11
418.452	1	-3
418.623	1	8
418.793	1	3
418.964	1	1
419.135	1	-1
419.305	1	-7
419.476	1	1
419.647	1	-4
419.817	1	-8
419.988	1	5
420.159	1	7
420.329	1	10
420.500	1	-12
420.671	1	7
420.841	1	4
421.012	1	-3
421.183	1	3
421.353	1	0
421.524	1	-8
421.695	1	7
421.865	1	2
422.036	1	12
422.206	1	11
422.377	1	-4
422.548	1	2
422.718	1	2
422.889	1	-5
423.060	1	4
423.230	1	-6
423.401	1	-8
423.572	1	12
423.742	1	13
423.913	1	9
424.084	1	-1
424.254	1	-3
424.425	1	6
424.595	1	4
424.766	1	4
424.937	1	3
425.107	1	2
425.278	1	5
425.449	1	7
425.619	1	4
425.790	1	3
425.961	1	0
426.131	1	4
426.302	1	5
426.472	1	-5
426.643	1	3
426.814	1	3
426.984	1	-10
427.155	1	2
427.326	1	10
427.496	1	3
427.667	1	5
427.837	1	11
428.008	1	1
428.179	1	-5
428.349	1	10
428.520	1	3
428.691	1	8
428.861	1	7
429.032	1	0
429.202	1	4
429.373	1	-10
429.544	1	4
429.714	1	-6
429.885	1	14
430.055	1	8
430.226	1	-2
430.397	1	-7
430.567	1	6
430.738	1	14
430.909	1	4
431.079	1	-4
431.250	1	0
431.420	1	-3
431.591	1	2
431.762	1	3
431.932	1	11
432.103	1	10
432.273	1	0
432.444	1	0
432.615	1	-11
432.785	1	4
432.956	1	3
433.126	1	9
433.297	1	4
433.468	1	-4
433.638	1	2
433.809	1	7
433.979	1	8
434.150	1	10
434.320	1	8
434.491	1	-1
434.662	1	3
434.832	1	2
435.003	1	-1
435.173	1	0
435.344	1	4
435.515	1	2
435.685	1	5
435.856	1	11
436.026	1	-7
436.197	1	14
436.368	1	-8
436.538	1	10
436.709	1	-3
436.879	1	0
437.050	1	13
437.220	1	11
437.391	1	4
437.562	1	3
437.732	1	2
437.903	1	9
438.073	1	-8
438.244	1	3
438.414	1	9
438.585	1	2
438.756	1	4
438.926	1	0
439.097	1	0
439.267	1	-2
439.438	1	3
439.608	1	10
439.779	1	4
439.949	1	4
440.120	1	2
440.291	1	7
440.461	1	-3
440.632	1	7
440.802	1	5
440.973	1	10
441.143	1	3
441.314	1	-1
441.485	1	-5
441.655	1	8
441.826	1	6
441.996	1	10
442.167	1	-1
442.337	1	5
442.508	1	12
442.678	1	5
442.849	1	9
443.019	1	-4
443.190	1	5
443.361	1	-8
443.531	1	-1
443.702	1	2
443.872	1	4
444.043	1	5
444.213	1	9
444.384	1	1
444.554	1	-3
444.725	1	4
444.895	1	11
445.066	1	-4
445.237	1	6
445.407	1	8
445.578	1	5
445.748	1	-4
445.919	1	6
446.089	1	12
446.260	1	-4
446.430	1	9
446.601	1	7
446.771	1	1
446.942	1	3
447.112	1	-4
447.283	1	23
447.453	1	-8
447.624	1	-10
447.794	1	4
447.965	1	5
448.135	1	-5
448.306	1	5
448.477	1	8
448.647	1	8
448.818	1	-4
448.988	1	12
449.159	1	-1
449.329	1	11
449.500	1	4
449.670	1	2
449.841	1	10
450.011	1	2
450.182	1	6
450.352	1	4
450.523	1	4
450.693	1	1
450.864	1	8
451.034	1	1
451.205	1	1
451.375	1	-13
451.546	1	8
451.716	1	-2
451.887	1	-3
452.057	1	-2
452.228	1	10
452.398	1	6
452.569	1	9
452.739	1	9
452.910	1	-8
453.080	1	15
453.251	1	12
453.421	1	-8
453.592	1	6
453.762	1	8
453.933	1	9
454.103	1	-3
454.274	1	-2
454.444	1	-4
454.615	1	1
454.785	1	-4
454.956	1	1
455.126	1	9
455.297	1	6
455.467	1	3
455.638	1	-3
455.808	1	7
455.979	1	3
456.149	1	1
456.320	1	-4
456.490	1	6
456.661	1	3
456.831	1	-2
457.001	1	6
457.172	1	-5
457.342	1	6
457.513	1	4
457.683	1	8
457.854	1	-3
458.024	1	-7
458.195	1	-2
458.365	1	1
458.536	1	-1
458.706	1	-2
458.877	1	-2
459.047	1	-6
459.218	1	5
459.388	1	3
459.559	1	3
459.729	1	1
459.899	1	0
460.070	1	6
460.240	1	11
460.411	1	4
460.581	1	-1
460.752	1	7
460.922	1	7
461.093	1	3
461.263	1	2
461.434	1	-6
461.604	1	-8
461.775	1	1
461.945	1	5
462.115	1	-6
462.286	1	3
462.456	1	14
462.627	1	5
462.797	1	8
462.968	1	8
463.138	1	14
463.309	1	5
463.479	1	5
463.649	1	1
463.820	1	-10
463.990	1	-4
464.161	1	-4
464.331	1	-6
464.502	1	11
464.672	1	6
464.843	1	9
465.013	1	4
465.183	1	-6
465.354	1	7
465.524	1	6
465.695	1	1
465.865	1	-5
466.036	1	-2
466.206	1	0
466.376	1	1
466.547	1	4
466.717	1	-6
466.888	1	3
467.058	1	3
467.229	1	7
467.399	1	7
467.569	1	13
467.740	1	-20
467.910	1	0
468.081	1	-12
468.251	1	14
468.422	1	-3
468.592	1	5
468.762	1	12
468.933	1	3
469.103	1	-10
469.274	1	1
469.444	1	6
469.614	1	4
469.785	1	1
469.955	1	5
470.126	1	3
470.296	1	-1
470.467	1	2
470.637	1	2
470.807	1	0
470.978	1	-5
471.148	1	4
471.319	1	-2
471.489	1	3
471.659	1	-3
471.830	1	2
472.000	1	-5
472.171	1	5
472.341	1	-3
472.511	1	2
472.682	1	4
472.852	1	5
473.023	1	-3
473.193	1	2
473.363	1	-5
473.534	1	-9
473.704	1	9
473.875	1	12
474.045	1	-4
474.215	1	11
474.386	1	5
474.556	1	0
474.727	1	5
474.897	1	-1
475.067	1	4
475.238	1	4
475.408	1	6
475.578	1	8
475.749	1	-1
475.919	1	-5
476.090	1	4
476.260	1	2
476.430	1	3
476.601	1	-6
476.771	1	-4
476.942	1	6
477.112	1	7
477.282	1	-6
477.453	1	9
477.623	1	1
477.793	1	4
477.964	1	-7
478.134	1	3
478.305	1	0
478.475	1	1
478.645	1	-5
478.816	1	7
478.986	1	-6
479.156	1	6
479.327	1	-13
479.497	1	2
479.667	1	-2
479.838	1	7
480.008	1	0
480.179	1	12
480.349	1	2
480.519	1	0
480.690	1	1
480.860	1	8
481.030	1	2
481.201	1	-2
481.371	1	0
481.541	1	-4
481.712	1	4
481.882	1	3
482.053	1	13
482.223	1	-2
482.393	1	2
482.564	1	4
482.734	1	5
482.904	1	1
483.075	1	4
483.245	1	2
483.415	1	5
483.586	1	-4
483.756	1	4
483.926	1	5
484.097	1	8
484.267	1	-15
484.437	1	6
484.608	1	-1
484.778	1	3
484.948	1	-8
485.119	1	4
485.289	1	-3
485.459	1	6
485.630	1	13
485.800	1	2
485.970	1	-5
486.141	1	-6
486.311	1	-6
486.481	1	-4
486.652	1	2
486.822	1	11
486.992	1	11
487.163	1	6
487.333	1	-1
487.503	1	5
487.674	1	6
487.844	1	-4
488.014	1	-1
488.185	1	12
488.355	1	0
488.525	1	2
488.696	1	10
488.866	1	1
489.036	1	-7
489.207	1	0
489.377	1	1
489.547	1	-2
489.718	1	-3
489.888	1	18
490.058	1	2
490.228	1	7
490.399	1	-8
490.569	1	9
490.739	1	9
490.910	1	6
491.080	1	5
491.250	1	4
491.421	1	-2
491.591	1	3
491.761	1	9
491.932	1	-1
492.102	1	-4
492.272	1	2
492.442	1	-2
492.613	1	9
492.783	1	4
492.953	1	7
493.124	1	0
493.294	1	4
493.464	1	10
493.635	1	7
493.805	1	7
493.975	1	-4
494.145	1	6
494.316	1	4
494.486	1	-7
494.656	1	5
494.827	1	2
494.997	1	-2
495.167	1	3
495.337	1	9
495.508	1	2
495.678	1	-1
495.848	1	1
496.019	1	-3
496.189	1	2
496.359	1	-1
496.529	1	11
496.700	1	-1
496.870	1	1
497.040	1	6
497.211	1	-2
497.381	1	-5
497.551	1	-5
497.721	1	10
497.892	1	1
498.062	1	18
498.232	1	2
498.403	1	-1
498.573	1	5
498.743	1	13
498.913	1	3
499.084	1	-3
499.254	1	3
499.424	1	11
499.594	1	-5
499.765	1	-2
499.935	1	3
500.105	1	0
500.275	1	-5
500.446	1	7
500.616	1	6
500.786	1	3
500.956	1	9
501.127	1	-7
501.297	1	2
501.467	1	-12
501.638	1	-2
501.808	1	-12
501.978	1	-3
502.148	1	7
502.319	1	0
502.489	1	-5
502.659	1	-5
502.829	1	11
503.000	1	-2
503.170	1	13
503.340	1	6
503.510	1	-2
503.681	1	-7
503.851	1	-2
504.021	1	1
504.191	1	0
504.362	1	0
504.532	1	-1
504.702	1	4
504.872	1	2
505.042	1	-12
505.213	1	7
505.383	1	11
505.553	1	3
505.723	1	-5
505.894	1	5
506.064	1	-1
506.234	1	8
506.404	1	-5
506.575	1	-2
506.745	1	1
506.915	1	-7
507.085	1	-3
507.256	1	-3
507.426	1	1
507.596	1	-2
507.766	1	7
507.936	1	2
508.107	1	-6
508.277	1	-4
508.447	1	4
508.617	1	-2
508.788	1	-7
508.958	1	5
509.128	1	2
509.298	1	-1
509.468	1	-1
509.639	1	6
509.809	1	4
509.979	1	10
510.149	1	7
510.319	1	3
510.490	1	-5
510.660	1	4
510.830	1	0
511.000	1	3
511.171	1	-5
511.341	1	10
511.511	1	17
511.681	1	-1
511.851	1	7
512.022	1	0
512.192	1	1
512.362	1	10
512.532	1	-4
512.702	1	0
512.873	1	-4
513.043	1	10
513.213	1	-3
513.383	1	6
513.553	1	1
513.724	1	5
513.894	1	6
514.064	1	-9
514.234	1	-1
514.404	1	3
514.575	1	5
514.745	1	0
514.915	1	-23
515.085	1	7
515.255	1	3
515.425	1	-2
515.596	1	-1
515.766	1	2
515.936	1	6
516.106	1	1
516.276	1	4
516.447	1	10
516.617	1	-4
516.787	1	-5
516.957	1	10
517.127	1	6
517.297	1	1
517.468	1	11
517.638	1	5
517.808	1	-1
517.978	1	6
518.148	1	13
518.319	1	11
518.489	1	-4
518.659	1	4
518.829	1	0
518.999	1	-6
519.169	1	0
519.340	1	1
519.510	1	-10
519.680	1	8
519.850	1	4
520.020	1	0
520.190	1	-4
520.361	1	-1
520.531	1	-4
520.701	1	-2
520.871	1	-8
521.041	1	3
521.211	1	12
521.382	1	3
521.552	1	12
521.722	1	15
521.892	1	-4
522.062	1	-3
522.232	1	6
522.402	1	6
522.573	1	8
522.743	1	5
522.913	1	-9
523.083	1	3
523.253	1	7
523.423	1	10
523.593	1	-13
523.764	1	2
523.934	1	7
524.104	1	3
524.274	1	1
524.444	1	1
524.614	1	1
524.784	1	13
524.955	1	7
525.125	1	0
525.295	1	1
525.465	1	-2
525.635	1	-1
525.805	1	8
525.975	1	4
526.146	1	2
526.316	1	-3
526.486	1	10
526.656	1	7
526.826	1	-9
526.996	1	10
527.166	1	7
527.337	1	3
527.507	1	-7
527.677	1	11
527.847	1	10
528.017	1	-2
528.187	1	1
528.357	1	-1
528.527	1	-1
528.698	1	-3
528.868	1	-7
529.038	1	5
529.208	1	7
529.378	1	-6
529.548	1	-5
529.718	1	2
529.888	1	15
530.058	1	2
530.229	1	5
530.399	1	1
530.569	1	-1
530.739	1	-5
530.909	1	-3
531.079	1	-4
531.249	1	7
531.419	1	4
531.589	1	-9
531.760	1	5
531.930	1	0
532.100	1	-11
532.270	1	-3
532.440	1	-10
532.610	1	4
532.780	1	0
532.950	1	1
533.120	1	14
533.290	1	1
533.461	1	-6
533.631	1	-2
533.801	1	-9
533.971	1	-4
534.141	1	-2
534.311	1	5
534.481	1	1
534.651	1	1
534.821	1	3
534.991	1	-12
535.162	1	1
535.332	1	0
535.502	1	7
535.672	1	3
535.842	1	1
536.012	1	0
536.182	1	4
536.352	1	6
536.522	1	1
536.692	1	6
536.862	1	5
537.032	1	10
537.203	1	5
537.373	1	12
537.543	1	15
537.713	1	1
537.883	1	0
538.053	1	-2
538.223	1	-3
538.393	1	-5
538.563	1	-8
538.733	1	8
538.903	1	-3
539.073	1	-3
539.243	1	-7
539.413	1	3
539.584	1	4
539.754	1	12
539.924	1	1
540.094	1	-3
540.264	1	-4
540.434	1	4
540.604	1	-2
540.774	1	15
540.944	1	11
541.114	1	2
541.284	1	-3
541.454	1	6
541.624	1	-5
541.794	1	14
541.964	1	9
542.134	1	1
542.305	1	8
542.475	1	18
542.645	1	-1
542.815	1	5
542.985	1	-4
543.155	1	5
543.325	1	-6
543.495	1	9
543.665	1	6
543.835	1	-2
544.005	1	4
544.175	1	-5
544.345	1	2
544.515	1	-2
544.685	1	-13
544.855	1	3
545.025	1	8
545.195	1	5
545.365	1	5
545.535	1	0
545.705	1	-7
545.875	1	-2
546.045	1	4
546.216	1	5
546.386	1	0
546.556	1	16
546.726	1	-1
546.896	1	11
547.066	1	-2
547.236	1	3
547.406	1	-3
547.576	1	3
547.746	1	13
547.916	1	14
548.086	1	-4
548.256	1	-5
548.426	1	1
548.596	1	3
548.766	1	0
548.936	1	-15
549.106	1	2
549.276	1	6
549.446	1	-1
549.616	1	3
549.786	1	17
549.956	1	8
550.126	1	19
550.296	1	13
550.466	1	0
550.636	1	-1
550.806	1	3
550.976	1	-7
551.146	1	14
551.316	1	14
551.486	1	-6
551.656	1	10
551.826	1	2
551.996	1	5
552.166	1	-3
552.336	1	9
552.506	1	-6
552.676	1	-1
552.846	1	8
553.016	1	-2
553.186	1	2
553.356	1	0
553.526	1	9
553.696	1	6
553.866	1	8
554.036	1	15
554.206	1	-1
554.376	1	2
554.546	1	4
554.716	1	-14
554.886	1	5
555.056	1	4
555.226	1	5
555.396	1	3
555.566	1	7
555.736	1	1
555.906	1	5
556.076	1	6
556.246	1	-1
556.416	1	6
556.586	1	-7
556.756	1	8
556.926	1	10
557.096	1	1
557.266	1	-5
557.436	1	-2
557.606	1	6
557.776	1	-1
557.946	1	-1
558.116	1	-5
558.286	1	2
558.456	1	-6
558.626	1	13
558.796	1	-5
558.966	1	0
559.136	1	10
559.306	1	6
559.476	1	-2
559.646	1	-2
559.816	1	3
559.986	1	7
560.155	1	3
560.325	1	3
560.495	1	4
560.665	1	9
560.835	1	-3
561.005	1	1
561.175	1	1
561.345	1	-1
561.515	1	-4
561.685	1	2
561.855	1	-9
562.025	1	6
562.195	1	9
562.365	1	-1
562.535	1	-3
562.705	1	3
562.875	1	4
563.045	1	1
563.215	1	3
563.385	1	8
563.555	1	8
563.725	1	-4
563.895	1	11
564.064	1	11
564.234	1	6
564.404	1	-12
564.574	1	15
564.744	1	1
564.914	1	-3
565.084	1	5
565.254	1	6
565.424	1	3
565.594	1	8
565.764	1	-5
565.934	1	-4
566.104	1	-4
566.274	1	-4
566.444	1	10
566.614	1	-6
566.783	1	0
566.953	1	0
567.123	1	4
567.293	1	14
567.463	1	3
567.633	1	-5
567.803	1	4
567.973	1	2
568.143	1	9
568.313	1	0
568.483	1	-5
568.653	1	4
568.823	1	1
568.993	1	8
569.162	1	14
569.332	1	-6
569.502	1	3
569.672	1	-9
569.842	1	7
570.012	1	-3
570.182	1	3
570.352	1	3
570.522	1	6
570.692	1	1
570.862	1	12
571.031	1	4
571.201	1	4
571.371	1	-8
571.541	1	4
571.711	1	-3
571.881	1	12
572.051	1	8
572.221	1	-2
572.391	1	-8
572.561	1	9
572.731	1	-3
572.900	1	0
573.070	1	-1
573.240	1	0
573.410	1	-1
573.580	1	3
573.750	1	7
573.920	1	-1
574.090	1	0
574.260	1	3
574.430	1	-10
574.599	1	-4
574.769	1	-1
574.939	1	4
575.109	1	3
575.279	1	-4
575.449	1	1
575.619	1	-9
575.789	1	1
575.959	1	-7
576.128	1	-11
576.298	1	1
576.468	1	-2
576.638	1	4
576.808	1	4
576.978	1	1
577.148	1	0
577.318	1	-5
577.487	1	-4
577.657	1	7
577.827	1	-3
577.997	1	-6
578.167	1	11
578.337	1	0
578.507	1	8
578.677	1	-4
578.846	1	10
579.016	1	3
579.186	1	6
579.356	1	-1
579.526	1	15
579.696	1	3
579.866	1	3
580.036	1	4
580.205	1	7
580.375	1	7
580.545	1	8
580.715	1	3
580.885	1	1
581.055	1	-8
581.225	1	-8
581.394	1	-3
581.564	1	-8
581.734	1	4
581.904	1	6
582.074	1	4
582.244	1	13
582.414	1	11
582.583	1	6
582.753	1	-13
582.923	1	3
583.093	1	7
583.263	1	-4
583.433	1	-6
583.603	1	10
583.772	1	-1
583.942	1	5
584.112	1	10
584.282	1	9
584.452	1	0
584.622	1	10
584.791	1	1
584.961	1	3
585.131	1	0
585.301	1	0
585.471	1	-2
585.641	1	11
585.811	1	15
585.980	1	8
586.150	1	7
586.320	1	6
586.490	1	6
586.660	1	3
586.830	1	9
586.999	1	3
587.169	1	-1
587.339	1	-3
587.509	1	-1
587.679	1	6
587.849	1	9
588.018	1	-1
588.188	1	3
588.358	1	-2
588.528	1	-7
588.698	1	-2
588.867	1	1
589.037	1	4
589.207	1	-9
589.377	1	8
589.547	1	9
589.717	1	2
589.886	1	1
590.056	1	-12
590.226	1	6
590.396	1	-6
590.566	1	-1
590.735	1	-5
590.905	1	3
591.075	1	14
591.245	1	9
591.415	1	4
591.585	1	0
591.754	1	-9
591.924	1	-2
592.094	1	-5
592.264	1	3
592.434	1	15
592.603	1	5
592.773	1	18
592.943	1	6
593.113	1	-16
593.283	1	5
593.452	1	1
593.622	1	-4
593.792	1	-6
593.962	1	3
594.132	1	7
594.301	1	0
594.471	1	6
594.641	1	3
594.811	1	-4
594.981	1	0
595.150	1	-8
595.320	1	2
595.490	1	-6
595.660	1	-6
595.829	1	-2
595.999	1	-9
596.169	1	7
596.339	1	-2
596.509	1	3
596.678	1	1
596.848	1	-4
597.018	1	-1
597.188	1	-3
597.358	1	2
597.527	1	11
597.697	1	-10
597.867	1	1
598.037	1	2
598.206	1	1
598.376	1	-3
598.546	1	0
598.716	1	-2
598.885	1	0
599.055	1	-3
599.225	1	7
599.395	1	-1
599.565	1	7
599.734	1	2
599.904	1	10
600.074	1	12
600.244	1	0
600.413	1	-2
600.583	1	0
600.753	1	3
600.923	1	-9
601.092	1	3
601.262	1	-1
601.432	1	12
601.602	1	11
601.771	1	5
601.941	1	0
602.111	1	-6
602.281	1	8
602.451	1	-3
602.620	1	-2
602.790	1	-16
602.960	1	1
603.130	1	0
603.299	1	3
603.469	1	4
603.639	1	1
603.809	1	8
603.978	1	-5
604.148	1	-4
604.318	1	-4
604.487	1	4
604.657	1	13
604.827	1	5
604.997	1	0
605.166	1	3
605.336	1	5
605.506	1	-3
605.676	1	4
605.845	1	-6
606.015	1	0
606.185	1	10
606.355	1	8
606.524	1	4
606.694	1	3
606.864	1	5
607.034	1	11
607.203	1	3
607.373	1	-10
607.543	1	-5
607.712	1	-6
607.882	1	-6
608.052	1	1
608.222	1	6
608.391	1	2
608.561	1	8
608.731	1	11
608.901	1	1
609.070	1	7
609.240	1	9
609.410	1	-8
609.579	1	-6
609.749	1	6
609.919	1	1
610.089	1	3
610.258	1	2
610.428	1	1
610.598	1	-2
610.767	1	-6
610.937	1	9
611.107	1	-8
611.277	1	-10
611.446	1	-7
611.616	1	-4
611.786	1	11
611.955	1	12
612.125	1	1
612.295	1	-1
612.465	1	-11
612.634	1	-9
612.804	1	7
612.974	1	-3
613.143	1	0
613.313	1	-12
613.483	1	-1
613.652	1	10
613.822	1	2
613.992	1	0
614.162	1	1
614.331	1	3
614.501	1	-4
614.671	1	19
614.840	1	4
615.010	1	-5
615.180	1	4
615.349	1	2
615.519	1	1
615.689	1	11
615.858	1	6
616.028	1	-3
616.198	1	9
616.368	1	8
616.537	1	-4
616.707	1	4
616.877	1	-5
617.046	1	1
617.216	1	-1
617.386	1	4
617.555	1	2
617.725	1	0
617.895	1	5
618.064	1	-1
618.234	1	-3
618.404	1	3
618.573	1	18
618.743	1	-3
618.913	1	6
619.082	1	1
619.252	1	7
619.422	1	-11
619.591	1	3
619.761	1	-4
619.931	1	3
620.100	1	-11
620.270	1	-6
620.440	1	0
620.609	1	2
620.779	1	4
620.949	1	1
621.118	1	-5
621.288	1	9
621.458	1	7
621.627	1	5
621.797	1	0
621.967	1	2
622.136	1	-3
622.306	1	-7
622.476	1	3
622.645	1	7
622.815	1	9
622.985	1	1
623.154	1	0
623.324	1	5
623.494	1	10
623.663	1	7
623.833	1	3
624.002	1	-13
624.172	1	-7
624.342	1	-7
624.511	1	-12
624.681	1	5
624.851	1	5
625.020	1	0
625.190	1	6
625.360	1	-9
625.529	1	6
625.699	1	1
625.869	1	3
626.038	1	-4
626.208	1	5
626.377	1	4
626.547	1	-1
626.717	1	2
626.886	1	0
627.056	1	-5
627.226	1	-13
627.395	1	1
627.565	1	10
627.735	1	6
627.904	1	-3
628.074	1	1
628.243	1	3
628.413	1	-5
628.583	1	-4
628.752	1	9
628.922	1	4
629.091	1	2
629.261	1	-6
629.431	1	9
629.600	1	19
629.770	1	0
629.940	1	1
630.109	1	10
630.279	1	-9
630.448	1	-1
630.618	1	12
630.788	1	-3
630.957	1	5
631.127	1	5
631.297	1	-10
631.466	1	1
631.636	1	-1
631.805	1	17
631.975	1	12
632.145	1	9
632.314	1	1
632.484	1	-2
632.653	1	3
632.823	1	3
632.993	1	5
633.162	1	1
633.332	1	-7
633.501	1	-5
633.671	1	-4
633.841	1	18
634.010	1	10
634.180	1	-5
634.349	1	6
634.519	1	-10
634.689	1	0
634.858	1	-9
635.028	1	11
635.197	1	6
635.367	1	1
635.537	1	-6
635.706	1	8
635.876	1	6
636.045	1	-3
636.215	1	6
636.384	1	10
636.554	1	0
636.724	1	-2
636.893	1	2
637.063	1	4
637.232	1	3
637.402	1	-4
637.572	1	7
637.741	1	-3
637.911	1	-7
638.080	1	0
638.250	1	6
638.419	1	4
638.589	1	2
638.759	1	-2
638.928	1	1
639.098	1	-5
639.267	1	9
639.437	1	-7
639.606	1	10
639.776	1	-3
639.946	1	0
640.115	1	10
640.285	1	4
640.454	1	-1
640.624	1	17
640.793	1	10
640.963	1	7
641.132	1	-9
641.302	1	11
641.472	1	-10
641.641	1	6
641.811	1	0
641.980	1	-3
642.150	1	-5
642.319	1	11
642.489	1	3
642.659	1	4
642.828	1	0
642.998	1	3
643.167	1	4
643.337	1	-2
643.506	1	2
643.676	1	8
643.845	1	-3
644.015	1	4
644.184	1	8
644.354	1	14
644.524	1	-3
644.693	1	3
644.863	1	-5
645.032	1	0
645.202	1	-6
645.371	1	5
645.541	1	3
645.710	1	4
645.880	1	3
646.049	1	18
646.219	1	9
646.388	1	3
646.558	1	0
646.728	1	5
646.897	1	-7
647.067	1	-2
647.236	1	-1
647.406	1	-10
647.575	1	8
647.745	1	3
647.914	1	8
648.084	1	0
648.253	1	4
648.423	1	-5
648.592	1	5
648.762	1	6
648.931	1	9
649.101	1	7
649.270	1	3
649.440	1	-7
649.610	1	-4
649.779	1	3
649.949	1	2
650.118	1	1
650.288	1	3
650.457	1	10
650.627	1	-9
650.796	1	7
650.966	1	-5
651.135	1	8
651.305	1	0
651.474	1	0
651.644	1	-9
651.813	1	-5
651.983	1	4
652.152	1	6
652.322	1	-2
652.491	1	19
652.661	1	10
652.830	1	6
653.000	1	6
653.169	1	9
653.339	1	0
653.508	1	4
653.678	1	3
653.847	1	13
654.017	1	1
654.186	1	2
654.356	1	-4
654.525	1	5
654.695	1	9
654.864	1	-11
655.034	1	2
655.203	1	-2
655.373	1	8
655.542	1	6
655.712	1	-13
655.881	1	0
656.051	1	-3
656.220	1	16
656.390	1	8
656.559	1	10
656.729	1	1
656.898	1	-2
657.068	1	8
657.237	1	-8
657.406	1	1
657.576	1	0
657.745	1	-4
657.915	1	-11
658.084	1	3
658.254	1	1
658.423	1	-4
658.593	1	-7
658.762	1	1
658.932	1	3
659.101	1	3
659.271	1	0
659.440	1	7
659.610	1	11
659.779	1	5
659.949	1	-3
660.118	1	4
660.288	1	9
660.457	1	-3
660.626	1	0
660.796	1	-1
660.965	1	1
661.135	1	6
661.304	1	-2
661.474	1	13
661.643	1	4
661.813	1	9
661.982	1	1
662.152	1	-3
662.321	1	3
662.491	1	5
662.660	1	-5
662.829	1	-3
662.999	1	0
663.168	1	2
663.338	1	2
663.507	1	-6
663.677	1	1
663.846	1	3
664.016	1	-7
664.185	1	0
664.354	1	2
664.524	1	-4
664.693	1	9
664.863	1	4
665.032	1	4
665.202	1	6
665.371	1	-1
665.541	1	17
665.710	1	12
665.879	1	2
666.049	1	13
666.218	1	-2
666.388	1	1
666.557	1	2
666.727	1	-4
666.896	1	-4
667.065	1	0
667.235	1	-4
667.404	1	5
667.574	1	16
667.743	1	-3
667.913	1	-10
668.082	1	-3
668.251	1	2
668.421	1	0
668.590	1	8
668.760	1	-7
668.929	1	7
669.099	1	8
669.268	1	9
669.437	1	3
669.607	1	5
669.776	1	-10
669.946	1	-7
670.115	1	-1
670.285	1	-3
670.454	1	-3
670.623	1	-4
670.793	1	-5
670.962	1	10
671.132	1	1
671.301	1	-4
671.470	1	1
671.640	1	-4
671.809	1	11
671.979	1	2
672.148	1	0
672.317	1	-2
672.487	1	7
672.656	1	5
672.826	1	14
672.995	1	-6
673.164	1	-5
673.334	1	2
673.503	1	-6
673.673	1	6
673.842	1	-6
674.011	1	0
674.181	1	-13
674.350	1	10
674.520	1	-4
674.689	1	3
674.858	1	4
675.028	1	13
675.197	1	3
675.367	1	6
675.536	1	3
675.705	1	3
675.875	1	4
676.044	1	-10
676.214	1	-8
676.383	1	-3
676.552	1	0
676.722	1	-1
676.891	1	0
677.060	1	-12
677.230	1	-5
677.399	1	-4
677.569	1	-2
677.738	1	-11
677.907	1	2
678.077	1	-5
678.246	1	-3
678.416	1	9
678.585	1	-8
678.754	1	0
678.924	1	-2
679.093	1	2
679.262	1	3
679.432	1	-4
679.601	1	0
679.771	1	-1
679.940	1	-7
680.109	1	0
680.279	1	2
680.448	1	-1
680.617	1	3
680.787	1	7
680.956	1	15
681.125	1	1
681.295	1	-9
681.464	1	0
681.634	1	6
681.803	1	8
681.972	1	6
682.142	1	-3
682.311	1	4
682.480	1	-8
682.650	1	5
682.819	1	-6
682.988	1	4
683.158	1	2
683.327	1	-2
683.496	1	-6
683.666	1	6
683.835	1	1
684.004	1	2
684.174	1	2
684.343	1	4
684.512	1	15
684.682	1	-5
684.851	1	9
685.021	1	7
685.190	1	11
685.359	1	4
685.529	1	10
685.698	1	9
685.867	1	6
686.037	1	4
686.206	1	0
686.375	1	12
686.545	1	-4
686.714	1	0
686.883	1	-1
687.053	1	7
687.222	1	2
687.391	1	0
687.561	1	-4
687.730	1	1
687.899	1	-4
688.069	1	4
688.238	1	-1
688.407	1	6
688.577	1	3
688.746	1	6
