340.368	1	2
340.539	1	11
340.710	1	5
340.881	1	-6
341.052	1	-8
341.223	1	17
341.394	1	0
341.565	1	-8
341.737	1	6
341.908	1	6
342.079	1	11
342.250	1	-7
342.421	1	4
342.592	1	1
342.763	1	-3
342.934	1	2
343.105	1	0
343.276	1	-2
343.447	1	5
343.618	1	-5
343.789	1	0
343.960	1	-2
344.131	1	1
344.302	1	12
344.473	1	2
344.644	1	14
344.815	1	5
344.986	1	4
345.157	1	1
345.328	1	12
345.499	1	4
345.670	1	0
345.841	1	-2
346.012	1	0
346.183	1	1
346.354	1	5
346.526	1	4
346.697	1	5
346.868	1	5
347.039	1	5
347.210	1	4
347.381	1	9
347.552	1	13
347.723	1	8
347.894	1	5
348.065	1	-2
348.236	1	0
348.407	1	4
348.578	1	12
348.749	1	2
348.920	1	1
349.091	1	6
349.262	1	11
349.433	1	14
349.604	1	7
349.775	1	0
349.946	1	14
350.117	1	4
350.288	1	6
350.459	1	5
350.630	1	-3
350.801	1	9
350.972	1	18
351.143	1	15
351.314	1	-2
351.485	1	-1
351.656	1	4
351.827	1	5
351.998	1	10
352.169	1	16
352.340	1	5
352.511	1	9
352.682	1	-1
352.853	1	5
353.024	1	12
353.195	1	13
353.366	1	-3
353.537	1	4
353.708	1	5
353.879	1	9
354.050	1	6
354.221	1	11
354.392	1	6
354.563	1	6
354.734	1	10
354.905	1	18
355.076	1	-2
355.247	1	0
355.418	1	-4
355.589	1	5
355.760	1	5
355.931	1	25
356.102	1	15
356.273	1	11
356.444	1	14
356.615	1	9
356.785	1	13
356.956	1	10
357.127	1	7
357.298	1	17
357.469	1	10
357.640	1	5
357.811	1	9
357.982	1	20
358.153	1	7
358.324	1	24
358.495	1	20
358.666	1	22
358.837	1	15
359.008	1	16
359.179	1	11
359.350	1	8
359.521	1	13
359.692	1	10
359.863	1	20
360.034	1	12
360.205	1	22
360.376	1	18
360.547	1	25
360.718	1	12
360.889	1	33
361.060	1	24
361.231	1	33
361.401	1	11
361.572	1	17
361.743	1	22
361.914	1	19
362.085	1	21
362.256	1	18
362.427	1	33
362.598	1	23
362.769	1	31
362.940	1	19
363.111	1	40
363.282	1	36
363.453	1	27
363.624	1	43
363.795	1	33
363.966	1	35
364.137	1	26
364.308	1	30
364.478	1	36
364.649	1	39
364.820	1	44
364.991	1	45
365.162	1	38
365.333	1	41
365.504	1	40
365.675	1	33
365.846	1	50
366.017	1	51
366.188	1	51
366.359	1	56
366.530	1	55
366.701	1	54
366.871	1	47
367.042	1	53
367.213	1	60
367.384	1	60
367.555	1	59
367.726	1	76
367.897	1	70
368.068	1	58
368.239	1	62
368.410	1	69
368.581	1	70
368.752	1	79
368.923	1	60
369.093	1	79
369.264	1	67
369.435	1	70
369.606	1	79
369.777	1	84
369.948	1	79
370.119	1	90
370.290	1	80
370.461	1	88
370.632	1	99
370.803	1	90
370.973	1	77
371.144	1	82
371.315	1	92
371.486	1	92
371.657	1	97
371.828	1	93
371.999	1	92
372.170	1	91
372.341	1	96
372.512	1	93
372.682	1	100
372.853	1	92
373.024	1	105
373.195	1	102
373.366	1	101
373.537	1	97
373.708	1	99
373.879	1	79
374.050	1	118
374.220	1	96
374.391	1	98
374.562	1	88
374.733	1	90
374.904	1	108
375.075	1	100
375.246	1	105
375.417	1	103
375.588	1	93
375.758	1	104
375.929	1	103
376.100	1	94
376.271	1	94
376.442	1	89
376.613	1	91
376.784	1	88
376.955	1	81
377.125	1	86
377.296	1	86
377.467	1	95
377.638	1	86
377.809	1	84
377.980	1	72
378.151	1	71
378.321	1	75
378.492	1	78
378.663	1	66
378.834	1	85
379.005	1	71
379.176	1	85
379.347	1	70
379.518	1	69
379.688	1	73
379.859	1	72
380.030	1	67
380.201	1	75
380.372	1	58
380.543	1	73
380.714	1	71
380.884	1	66
381.055	1	52
381.226	1	58
381.397	1	52
381.568	1	54
381.739	1	46
381.910	1	49
382.080	1	59
382.251	1	68
382.422	1	64
382.593	1	53
382.764	1	40
382.935	1	45
383.105	1	56
383.276	1	46
383.447	1	56
383.618	1	53
383.789	1	61
383.960	1	47
384.130	1	52
384.301	1	48
384.472	1	36
384.643	1	41
384.814	1	46
384.985	1	48
385.156	1	43
385.326	1	33
385.497	1	31
385.668	1	55
385.839	1	35
386.010	1	40
386.180	1	41
386.351	1	40
386.522	1	23
386.693	1	37
386.864	1	34
387.035	1	36
387.205	1	37
387.376	1	34
387.547	1	23
387.718	1	30
387.889	1	44
388.060	1	27
388.230	1	34
388.401	1	27
388.572	1	35
388.743	1	15
388.914	1	37
389.084	1	25
389.255	1	18
389.426	1	22
389.597	1	29
389.768	1	46
389.939	1	28
390.109	1	19
390.280	1	19
390.451	1	21
390.622	1	23
390.793	1	24
390.963	1	28
391.134	1	16
391.305	1	32
391.476	1	24
391.647	1	27
391.817	1	26
391.988	1	31
392.159	1	27
392.330	1	26
392.501	1	18
392.671	1	20
392.842	1	19
393.013	1	35
393.184	1	28
393.355	1	22
393.525	1	25
393.696	1	26
393.867	1	23
394.038	1	19
394.208	1	20
394.379	1	16
394.550	1	17
394.721	1	20
394.892	1	16
395.062	1	8
395.233	1	16
395.404	1	9
395.575	1	12
395.746	1	33
395.916	1	17
396.087	1	2
396.258	1	13
396.429	1	15
396.599	1	16
396.770	1	10
396.941	1	11
397.112	1	10
397.283	1	13
397.453	1	16
397.624	1	11
397.795	1	17
397.966	1	22
398.136	1	19
398.307	1	20
398.478	1	14
398.649	1	9
398.819	1	14
398.990	1	16
399.161	1	17
399.332	1	16
399.503	1	14
399.673	1	8
399.844	1	9
400.015	1	11
400.186	1	21
400.356	1	13
400.527	1	13
400.698	1	14
400.869	1	16
401.039	1	11
401.210	1	21
401.381	1	16
401.552	1	12
401.722	1	10
401.893	1	4
402.064	1	9
402.235	1	15
402.405	1	16
402.576	1	14
402.747	1	8
402.918	1	11
403.088	1	1
403.259	1	10
403.430	1	11
403.601	1	11
403.771	1	14
403.942	1	3
404.113	1	5
404.284	1	11
404.454	1	15
404.625	1	13
404.796	1	13
404.967	1	14
405.137	1	10
405.308	1	10
405.479	1	7
405.649	1	15
405.820	1	7
405.991	1	11
406.162	1	2
406.332	1	14
406.503	1	-1
406.674	1	16
406.845	1	4
407.015	1	18
407.186	1	7
407.357	1	11
407.527	1	9
407.698	1	5
407.869	1	18
408.040	1	7
408.210	1	6
408.381	1	7
408.552	1	11
408.722	1	2
408.893	1	7
409.064	1	16
409.235	1	9
409.405	1	-5
409.576	1	5
409.747	1	-1
409.917	1	0
410.088	1	8
410.259	1	2
410.430	1	9
410.600	1	9
410.771	1	2
410.942	1	-1
411.112	1	12
411.283	1	7
411.454	1	3
411.625	1	12
411.795	1	-2
411.966	1	16
412.137	1	11
412.307	1	-2
412.478	1	4
412.649	1	7
412.819	1	17
412.990	1	-6
413.161	1	5
413.332	1	9
413.502	1	4
413.673	1	11
413.844	1	13
414.014	1	11
414.185	1	3
414.356	1	7
414.526	1	17
414.697	1	9
414.868	1	3
415.038	1	4
415.209	1	-3
415.380	1	6
415.550	1	4
415.721	1	5
415.892	1	12
416.063	1	1
416.233	1	5
416.404	1	-1
416.575	1	11
416.745	1	-1
416.916	1	-6
417.087	1	8
417.257	1	7
417.428	1	5
417.599	1	6
417.769	1	7
417.940	1	6
418.111	1	9
418.281	1	17
418.452	1	-1
418.623	1	-2
418.793	1	8
418.964	1	12
419.135	1	2
419.305	1	3
419.476	1	7
419.647	1	6
419.817	1	-7
419.988	1	-7
420.159	1	15
420.329	1	6
420.500	1	-4
420.671	1	10
420.841	1	7
421.012	1	10
421.183	1	15
421.353	1	8
421.524	1	-4
421.695	1	4
421.865	1	-7
422.036	1	2
422.206	1	-7
422.377	1	13
422.548	1	6
422.718	1	10
422.889	1	-1
423.060	1	3
423.230	1	12
423.401	1	6
423.572	1	7
423.742	1	4
423.913	1	6
424.084	1	11
424.254	1	8
424.425	1	0
424.595	1	8
424.766	1	9
424.937	1	6
425.107	1	5
425.278	1	10
425.449	1	6
425.619	1	0
425.790	1	-1
425.961	1	15
426.131	1	3
426.302	1	10
426.472	1	-5
426.643	1	-2
426.814	1	18
426.984	1	1
427.155	1	9
427.326	1	8
427.496	1	-3
427.667	1	7
427.837	1	4
428.008	1	4
428.179	1	-2
428.349	1	-3
428.520	1	-1
428.691	1	8
428.861	1	12
429.032	1	4
429.202	1	2
429.373	1	-3
429.544	1	5
429.714	1	4
429.885	1	10
430.055	1	13
430.226	1	12
430.397	1	3
430.567	1	11
430.738	1	9
430.909	1	1
431.079	1	-2
431.250	1	-1
431.420	1	2
431.591	1	-1
431.762	1	-2
431.932	1	10
432.103	1	19
432.273	1	9
432.444	1	-4
432.615	1	1
432.785	1	9
432.956	1	16
433.126	1	5
433.297	1	-1
433.468	1	8
433.638	1	-2
433.809	1	7
433.979	1	10
434.150	1	20
434.320	1	9
434.491	1	-1
434.662	1	4
434.832	1	6
435.003	1	3
435.173	1	8
435.344	1	3
435.515	1	5
435.685	1	5
435.856	1	9
436.026	1	1
436.197	1	16
436.368	1	-14
436.538	1	8
436.709	1	1
436.879	1	4
437.050	1	4
437.220	1	20
437.391	1	12
437.562	1	7
437.732	1	2
437.903	1	13
438.073	1	-12
438.244	1	7
438.414	1	11
438.585	1	7
438.756	1	5
438.926	1	11
439.097	1	1
439.267	1	4
439.438	1	8
439.608	1	10
439.779	1	3
439.949	1	-1
440.120	1	6
440.291	1	13
440.461	1	1
440.632	1	10
440.802	1	14
440.973	1	14
441.143	1	4
441.314	1	1
441.485	1	9
441.655	1	10
441.826	1	7
441.996	1	9
442.167	1	5
442.337	1	10
442.508	1	18
442.678	1	9
442.849	1	10
443.019	1	2
443.190	1	-3
443.361	1	3
443.531	1	6
443.702	1	7
443.872	1	0
444.043	1	13
444.213	1	6
444.384	1	12
444.554	1	2
444.725	1	7
444.895	1	4
445.066	1	4
445.237	1	8
445.407	1	5
445.578	1	15
445.748	1	5
445.919	1	7
446.089	1	2
446.260	1	-6
446.430	1	7
446.601	1	8
446.771	1	5
446.942	1	12
447.112	1	14
447.283	1	18
447.453	1	0
447.624	1	0
447.794	1	13
447.965	1	1
448.135	1	-3
448.306	1	0
448.477	1	4
448.647	1	4
448.818	1	-1
448.988	1	1
449.159	1	-2
449.329	1	17
449.500	1	-3
449.670	1	7
449.841	1	8
450.011	1	6
450.182	1	11
450.352	1	13
450.523	1	6
450.693	1	16
450.864	1	13
451.034	1	9
451.205	1	7
451.375	1	-4
451.546	1	8
451.716	1	-1
451.887	1	7
452.057	1	2
452.228	1	6
452.398	1	-6
452.569	1	5
452.739	1	9
452.910	1	5
453.080	1	3
453.251	1	10
453.421	1	0
453.592	1	2
453.762	1	11
453.933	1	0
454.103	1	8
454.274	1	-4
454.444	1	3
454.615	1	1
454.785	1	0
454.956	1	1
455.126	1	11
455.297	1	5
455.467	1	5
455.638	1	0
455.808	1	2
455.979	1	6
456.149	1	1
456.320	1	5
456.490	1	7
456.661	1	9
456.831	1	0
457.001	1	10
457.172	1	7
457.342	1	-1
457.513	1	2
457.683	1	7
457.854	1	10
458.024	1	5
458.195	1	1
458.365	1	1
458.536	1	14
458.706	1	-3
458.877	1	-2
459.047	1	-12
459.218	1	-3
459.388	1	2
459.559	1	9
459.729	1	13
459.899	1	7
460.070	1	8
460.240	1	16
460.411	1	12
460.581	1	-2
460.752	1	3
460.922	1	12
461.093	1	6
461.263	1	-3
461.434	1	1
461.604	1	-3
461.775	1	4
461.945	1	-1
462.115	1	-2
462.286	1	17
462.456	1	19
462.627	1	2
462.797	1	6
462.968	1	6
463.138	1	8
463.309	1	-2
463.479	1	5
463.649	1	4
463.820	1	-8
463.990	1	3
464.161	1	-3
464.331	1	10
464.502	1	8
464.672	1	5
464.843	1	15
465.013	1	4
465.183	1	-6
465.354	1	2
465.524	1	3
465.695	1	9
465.865	1	-1
466.036	1	2
466.206	1	5
466.376	1	8
466.547	1	2
466.717	1	-9
466.888	1	11
467.058	1	-3
467.229	1	3
467.399	1	13
467.569	1	12
467.740	1	-10
467.910	1	-3
468.081	1	-2
468.251	1	18
468.422	1	-2
468.592	1	0
468.762	1	10
468.933	1	1
469.103	1	-6
469.274	1	9
469.444	1	14
469.614	1	2
469.785	1	-5
469.955	1	7
470.126	1	7
470.296	1	7
470.467	1	7
470.637	1	13
470.807	1	6
470.978	1	2
471.148	1	8
471.319	1	-1
471.489	1	7
471.659	1	-5
471.830	1	0
472.000	1	7
472.171	1	11
472.341	1	-2
472.511	1	5
472.682	1	10
472.852	1	8
473.023	1	4
473.193	1	-6
473.363	1	1
473.534	1	-4
473.704	1	10
473.875	1	12
474.045	1	-1
474.215	1	15
474.386	1	4
474.556	1	8
474.727	1	-1
474.897	1	1
475.067	1	10
475.238	1	3
475.408	1	6
475.578	1	2
475.749	1	7
475.919	1	8
476.090	1	9
476.260	1	9
476.430	1	7
476.601	1	-1
476.771	1	9
476.942	1	9
477.112	1	7
477.282	1	5
477.453	1	7
477.623	1	-2
477.793	1	13
477.964	1	2
478.134	1	10
478.305	1	-7
478.475	1	-4
478.645	1	0
478.816	1	19
478.986	1	5
479.156	1	3
479.327	1	-12
479.497	1	10
479.667	1	-6
479.838	1	4
480.008	1	3
480.179	1	11
480.349	1	4
480.519	1	7
480.690	1	4
480.860	1	2
481.030	1	6
481.201	1	2
481.371	1	8
481.541	1	11
481.712	1	7
481.882	1	4
482.053	1	5
482.223	1	-5
482.393	1	8
482.564	1	-2
482.734	1	16
482.904	1	-3
483.075	1	1
483.245	1	8
483.415	1	9
483.586	1	2
483.756	1	9
483.926	1	1
484.097	1	6
484.267	1	-3
484.437	1	-1
484.608	1	-1
484.778	1	5
484.948	1	3
485.119	1	-5
485.289	1	-7
485.459	1	18
485.630	1	14
485.800	1	2
485.970	1	-3
486.141	1	-1
486.311	1	14
486.481	1	-3
486.652	1	9
486.822	1	9
486.992	1	2
487.163	1	14
487.333	1	-3
487.503	1	1
487.674	1	3
487.844	1	3
488.014	1	3
488.185	1	17
488.355	1	-2
488.525	1	6
488.696	1	2
488.866	1	2
489.036	1	5
489.207	1	-6
489.377	1	0
489.547	1	10
489.718	1	2
489.888	1	6
490.058	1	12
490.228	1	8
490.399	1	-2
490.569	1	8
490.739	1	3
490.910	1	4
491.080	1	8
491.250	1	4
491.421	1	0
491.591	1	9
491.761	1	12
491.932	1	-2
492.102	1	0
492.272	1	7
492.442	1	9
492.613	1	12
492.783	1	10
492.953	1	19
493.124	1	3
493.294	1	-2
493.464	1	15
493.635	1	-3
493.805	1	6
493.975	1	-5
494.145	1	3
494.316	1	9
494.486	1	-2
494.656	1	6
494.827	1	0
494.997	1	-3
495.167	1	2
495.337	1	11
495.508	1	3
495.678	1	6
495.848	1	11
496.019	1	-3
496.189	1	9
496.359	1	-2
496.529	1	4
496.700	1	6
496.870	1	2
497.040	1	-5
497.211	1	1
497.381	1	2
497.551	1	0
497.721	1	10
497.892	1	4
498.062	1	13
498.232	1	5
498.403	1	-1
498.573	1	11
498.743	1	19
498.913	1	3
499.084	1	4
499.254	1	6
499.424	1	12
499.594	1	7
499.765	1	-5
499.935	1	11
500.105	1	3
500.275	1	0
500.446	1	0
500.616	1	5
500.786	1	12
500.956	1	9
501.127	1	3
501.297	1	4
501.467	1	-8
501.638	1	0
501.808	1	-7
501.978	1	5
502.148	1	7
502.319	1	7
502.489	1	5
502.659	1	-17
502.829	1	13
503.000	1	0
503.170	1	-4
503.340	1	14
503.510	1	0
503.681	1	-3
503.851	1	7
504.021	1	3
504.191	1	11
504.362	1	7
504.532	1	-8
504.702	1	2
504.872	1	-3
505.042	1	3
505.213	1	4
505.383	1	8
505.553	1	6
505.723	1	-5
505.894	1	3
506.064	1	7
506.234	1	14
506.404	1	3
506.575	1	-6
506.745	1	4
506.915	1	-4
507.085	1	-1
507.256	1	9
507.426	1	5
507.596	1	7
507.766	1	5
507.936	1	5
508.107	1	13
508.277	1	-7
508.447	1	1
508.617	1	1
508.788	1	-1
508.958	1	4
509.128	1	3
509.298	1	0
509.468	1	1
509.639	1	0
509.809	1	1
509.979	1	11
510.149	1	3
510.319	1	-4
510.490	1	0
510.660	1	6
510.830	1	-2
511.000	1	3
511.171	1	-7
511.341	1	4
511.511	1	12
511.681	1	10
511.851	1	4
512.022	1	4
512.192	1	3
512.362	1	5
512.532	1	2
512.702	1	4
512.873	1	2
513.043	1	4
513.213	1	1
513.383	1	-1
513.553	1	-1
513.724	1	10
513.894	1	2
514.064	1	-10
514.234	1	5
514.404	1	5
514.575	1	9
514.745	1	4
514.915	1	-3
515.085	1	7
515.255	1	13
515.425	1	-9
515.596	1	6
515.766	1	9
515.936	1	9
516.106	1	6
516.276	1	3
516.447	1	4
516.617	1	-6
516.787	1	0
516.957	1	14
517.127	1	10
517.297	1	3
517.468	1	11
517.638	1	5
517.808	1	3
517.978	1	9
518.148	1	15
518.319	1	15
518.489	1	3
518.659	1	8
518.829	1	-3
518.999	1	-2
519.169	1	5
519.340	1	4
519.510	1	5
519.680	1	7
519.850	1	5
520.020	1	13
520.190	1	13
520.361	1	-6
520.531	1	2
520.701	1	5
520.871	1	-4
521.041	1	-5
521.211	1	4
521.382	1	-2
521.552	1	12
521.722	1	13
521.892	1	5
522.062	1	-4
522.232	1	9
522.402	1	-2
522.573	1	12
522.743	1	7
522.913	1	-2
523.083	1	2
523.253	1	-2
523.423	1	11
523.593	1	-6
523.764	1	11
523.934	1	-3
524.104	1	-3
524.274	1	2
524.444	1	3
524.614	1	1
524.784	1	14
524.955	1	12
525.125	1	-2
525.295	1	-3
525.465	1	-1
525.635	1	-5
525.805	1	6
525.975	1	0
526.146	1	8
526.316	1	3
526.486	1	2
526.656	1	10
526.826	1	-1
526.996	1	10
527.166	1	9
527.337	1	6
527.507	1	-7
527.677	1	8
527.847	1	4
528.017	1	-3
528.187	1	1
528.357	1	-1
528.527	1	6
528.698	1	-2
528.868	1	-9
529.038	1	-1
529.208	1	12
529.378	1	7
529.548	1	2
529.718	1	-2
529.888	1	15
530.058	1	3
530.229	1	0
530.399	1	6
530.569	1	-8
530.739	1	4
530.909	1	0
531.079	1	-5
531.249	1	14
531.419	1	4
531.589	1	-6
531.760	1	7
531.930	1	-2
532.100	1	6
532.270	1	1
532.440	1	-8
532.610	1	7
532.780	1	-2
532.950	1	-2
533.120	1	18
533.290	1	3
533.461	1	8
533.631	1	1
533.801	1	0
533.971	1	3
534.141	1	-6
534.311	1	12
534.481	1	-2
534.651	1	4
534.821	1	3
534.991	1	-5
535.162	1	5
535.332	1	-1
535.502	1	10
535.672	1	0
535.842	1	10
536.012	1	5
536.182	1	7
536.352	1	7
536.522	1	7
536.692	1	13
536.862	1	9
537.032	1	9
537.203	1	-3
537.373	1	13
537.543	1	0
537.713	1	-5
537.883	1	0
538.053	1	4
538.223	1	15
538.393	1	5
538.563	1	0
538.733	1	14
538.903	1	-3
539.073	1	-3
539.243	1	-9
539.413	1	3
539.584	1	8
539.754	1	-9
539.924	1	7
540.094	1	-4
540.264	1	-2
540.434	1	2
540.604	1	14
540.774	1	14
540.944	1	12
541.114	1	1
541.284	1	-2
541.454	1	7
541.624	1	6
541.794	1	7
541.964	1	7
542.134	1	7
542.305	1	14
542.475	1	8
542.645	1	1
542.815	1	4
542.985	1	4
543.155	1	1
543.325	1	2
543.495	1	17
543.665	1	10
543.835	1	0
544.005	1	4
544.175	1	3
544.345	1	11
544.515	1	1
544.685	1	-8
544.855	1	7
545.025	1	11
545.195	1	4
545.365	1	-2
545.535	1	3
545.705	1	-3
545.875	1	3
546.045	1	3
546.216	1	-1
546.386	1	3
546.556	1	13
546.726	1	-1
546.896	1	12
547.066	1	7
547.236	1	7
547.406	1	2
547.576	1	2
547.746	1	8
547.916	1	5
548.086	1	-1
548.256	1	1
548.426	1	2
548.596	1	2
548.766	1	4
548.936	1	6
549.106	1	10
549.276	1	2
549.446	1	0
549.616	1	5
549.786	1	13
549.956	1	11
550.126	1	13
550.296	1	16
550.466	1	4
550.636	1	5
550.806	1	0
550.976	1	0
551.146	1	8
551.316	1	14
551.486	1	-1
551.656	1	3
551.826	1	-2
551.996	1	1
552.166	1	12
552.336	1	9
552.506	1	1
552.676	1	11
552.846	1	4
553.016	1	10
553.186	1	3
553.356	1	1
553.526	1	5
553.696	1	6
553.866	1	2
554.036	1	4
554.206	1	3
554.376	1	5
554.546	1	5
554.716	1	-3
554.886	1	14
555.056	1	9
555.226	1	16
555.396	1	0
555.566	1	13
555.736	1	1
555.906	1	1
556.076	1	13
556.246	1	11
556.416	1	4
556.586	1	2
556.756	1	13
556.926	1	1
557.096	1	7
557.266	1	6
557.436	1	1
557.606	1	0
557.776	1	-2
557.946	1	5
558.116	1	3
558.286	1	16
558.456	1	2
558.626	1	8
558.796	1	9
558.966	1	9
559.136	1	5
559.306	1	9
559.476	1	10
559.646	1	0
559.816	1	-1
559.986	1	9
560.155	1	-5
560.325	1	-7
560.495	1	2
560.665	1	7
560.835	1	0
561.005	1	-5
561.175	1	1
561.345	1	-7
561.515	1	-2
561.685	1	0
561.855	1	-2
562.025	1	11
562.195	1	5
562.365	1	7
562.535	1	-3
562.705	1	7
562.875	1	5
563.045	1	-1
563.215	1	10
563.385	1	12
563.555	1	10
563.725	1	6
563.895	1	7
564.064	1	17
564.234	1	3
564.404	1	-2
564.574	1	7
564.744	1	-1
564.914	1	6
565.084	1	9
565.254	1	8
565.424	1	10
565.594	1	9
565.764	1	12
565.934	1	5
566.104	1	-2
566.274	1	1
566.444	1	0
566.614	1	-10
566.783	1	-7
566.953	1	10
567.123	1	3
567.293	1	15
567.463	1	19
567.633	1	12
567.803	1	10
567.973	1	1
568.143	1	1
568.313	1	-5
568.483	1	6
568.653	1	-2
568.823	1	4
568.993	1	15
569.162	1	8
569.332	1	9
569.502	1	3
569.672	1	5
569.842	1	1
570.012	1	-8
570.182	1	-1
570.352	1	-1
570.522	1	7
570.692	1	5
570.862	1	17
571.031	1	-4
571.201	1	17
571.371	1	-5
571.541	1	17
571.711	1	0
571.881	1	7
572.051	1	7
572.221	1	-2
572.391	1	-5
572.561	1	11
572.731	1	2
572.900	1	5
573.070	1	-7
573.240	1	8
573.410	1	5
573.580	1	12
573.750	1	-3
573.920	1	-2
574.090	1	0
574.260	1	5
574.430	1	2
574.599	1	0
574.769	1	11
574.939	1	13
575.109	1	4
575.279	1	2
575.449	1	1
575.619	1	8
575.789	1	-6
575.959	1	9
576.128	1	-5
576.298	1	3
576.468	1	1
576.638	1	3
576.808	1	3
576.978	1	-1
577.148	1	1
577.318	1	-3
577.487	1	-1
577.657	1	10
577.827	1	-5
577.997	1	-2
578.167	1	6
578.337	1	-2
578.507	1	11
578.677	1	-6
578.846	1	8
579.016	1	6
579.186	1	14
579.356	1	12
579.526	1	6
579.696	1	9
579.866	1	9
580.036	1	3
580.205	1	0
580.375	1	2
580.545	1	12
580.715	1	14
580.885	1	9
581.055	1	3
581.225	1	-2
581.394	1	1
581.564	1	-3
581.734	1	-7
581.904	1	1
582.074	1	4
582.244	1	10
582.414	1	9
582.583	1	18
582.753	1	-5
582.923	1	-2
583.093	1	5
583.263	1	-6
583.433	1	-2
583.603	1	6
583.772	1	11
583.942	1	9
584.112	1	8
584.282	1	8
584.452	1	10
584.622	1	9
584.791	1	3
584.961	1	15
585.131	1	8
585.301	1	-6
585.471	1	4
585.641	1	5
585.811	1	9
585.980	1	8
586.150	1	17
586.320	1	3
586.490	1	10
586.660	1	-1
586.830	1	9
586.999	1	-5
587.169	1	-2
587.339	1	4
587.509	1	3
587.679	1	3
587.849	1	13
588.018	1	-6
588.188	1	0
588.358	1	4
588.528	1	2
588.698	1	-2
588.867	1	-6
589.037	1	9
589.207	1	-2
589.377	1	17
589.547	1	5
589.717	1	-3
589.886	1	0
590.056	1	-3
590.226	1	4
590.396	1	7
590.566	1	6
590.735	1	2
590.905	1	4
591.075	1	18
591.245	1	19
591.415	1	-3
591.585	1	12
591.754	1	-5
591.924	1	-7
592.094	1	-8
592.264	1	6
592.434	1	18
592.603	1	5
592.773	1	10
592.943	1	6
593.113	1	-4
593.283	1	-2
593.452	1	4
593.622	1	0
593.792	1	4
593.962	1	8
594.132	1	6
594.301	1	8
594.471	1	4
594.641	1	11
594.811	1	1
594.981	1	-4
595.150	1	-16
595.320	1	10
595.490	1	-4
595.660	1	4
595.829	1	4
595.999	1	2
596.169	1	5
596.339	1	-2
596.509	1	0
596.678	1	-4
596.848	1	1
597.018	1	-2
597.188	1	-9
597.358	1	4
597.527	1	10
597.697	1	2
597.867	1	3
598.037	1	2
598.206	1	1
598.376	1	-4
598.546	1	4
598.716	1	0
598.885	1	4
599.055	1	8
599.225	1	9
599.395	1	6
599.565	1	-2
599.734	1	4
599.904	1	23
600.074	1	8
600.244	1	14
600.413	1	8
600.583	1	-3
600.753	1	5
600.923	1	4
601.092	1	8
601.262	1	1
601.432	1	15
601.602	1	8
601.771	1	-1
601.941	1	4
602.111	1	0
602.281	1	6
602.451	1	5
602.620	1	1
602.790	1	-7
602.960	1	-12
603.130	1	7
603.299	1	1
603.469	1	3
603.639	1	0
603.809	1	15
603.978	1	1
604.148	1	3
604.318	1	4
604.487	1	-1
604.657	1	11
604.827	1	11
604.997	1	7
605.166	1	-3
605.336	1	5
605.506	1	-12
605.676	1	1
605.845	1	-1
606.015	1	-3
606.185	1	2
606.355	1	4
606.524	1	4
606.694	1	8
606.864	1	6
607.034	1	7
607.203	1	5
607.373	1	-4
607.543	1	-6
607.712	1	3
607.882	1	-8
608.052	1	1
608.222	1	-3
608.391	1	12
608.561	1	9
608.731	1	11
608.901	1	3
609.070	1	4
609.240	1	5
609.410	1	3
609.579	1	-10
609.749	1	1
609.919	1	-3
610.089	1	10
610.258	1	17
610.428	1	-3
610.598	1	1
610.767	1	2
610.937	1	3
611.107	1	-5
611.277	1	3
611.446	1	3
611.616	1	4
611.786	1	4
611.955	1	13
612.125	1	4
612.295	1	3
612.465	1	-6
612.634	1	10
612.804	1	1
612.974	1	-2
613.143	1	7
613.313	1	-5
613.483	1	1
613.652	1	21
613.822	1	1
613.992	1	3
614.162	1	3
614.331	1	3
614.501	1	-4
614.671	1	6
614.840	1	3
615.010	1	4
615.180	1	14
615.349	1	2
615.519	1	6
615.689	1	20
615.858	1	7
616.028	1	-1
616.198	1	8
616.368	1	5
616.537	1	-7
616.707	1	14
616.877	1	-1
617.046	1	5
617.216	1	6
617.386	1	7
617.555	1	8
617.725	1	-7
617.895	1	0
618.064	1	7
618.234	1	-6
618.404	1	-2
618.573	1	14
618.743	1	4
618.913	1	6
619.082	1	7
619.252	1	7
619.422	1	-1
619.591	1	-3
619.761	1	1
619.931	1	14
620.100	1	-2
620.270	1	0
620.440	1	6
620.609	1	5
620.779	1	6
620.949	1	4
621.118	1	1
621.288	1	12
621.458	1	6
621.627	1	-3
621.797	1	5
621.967	1	12
622.136	1	2
622.306	1	4
622.476	1	10
622.645	1	13
622.815	1	2
622.985	1	-2
623.154	1	-3
623.324	1	4
623.494	1	18
623.663	1	-4
623.833	1	4
624.002	1	-10
624.172	1	2
624.342	1	-10
624.511	1	-8
624.681	1	13
624.851	1	6
625.020	1	1
625.190	1	10
625.360	1	-9
625.529	1	9
625.699	1	-1
625.869	1	5
626.038	1	-6
626.208	1	2
626.377	1	15
626.547	1	4
626.717	1	2
626.886	1	6
627.056	1	-2
627.226	1	0
627.395	1	-8
627.565	1	3
627.735	1	-1
627.904	1	-11
628.074	1	4
628.243	1	2
628.413	1	-4
628.583	1	-9
628.752	1	6
628.922	1	-1
629.091	1	9
629.261	1	3
629.431	1	4
629.600	1	12
629.770	1	-9
629.940	1	-2
630.109	1	5
630.279	1	-2
630.448	1	9
630.618	1	10
630.788	1	4
630.957	1	6
631.127	1	12
631.297	1	-8
631.466	1	8
631.636	1	-12
631.805	1	15
631.975	1	8
632.145	1	12
632.314	1	4
632.484	1	-2
632.653	1	-6
632.823	1	14
632.993	1	5
633.162	1	4
633.332	1	-1
633.501	1	-3
633.671	1	2
633.841	1	12
634.010	1	12
634.180	1	0
634.349	1	9
634.519	1	-7
634.689	1	8
634.858	1	-16
635.028	1	14
635.197	1	10
635.367	1	1
635.537	1	5
635.706	1	4
635.876	1	8
636.045	1	10
636.215	1	3
636.384	1	13
636.554	1	-5
636.724	1	-11
636.893	1	-5
637.063	1	11
637.232	1	2
637.402	1	8
637.572	1	8
637.741	1	3
637.911	1	1
638.080	1	-2
638.250	1	7
638.419	1	3
638.589	1	3
638.759	1	14
638.928	1	6
639.098	1	-7
639.267	1	5
639.437	1	1
639.606	1	14
639.776	1	-3
639.946	1	-1
640.115	1	-1
640.285	1	6
640.454	1	-1
640.624	1	12
640.793	1	8
640.963	1	2
641.132	1	3
641.302	1	14
641.472	1	4
641.641	1	3
641.811	1	-6
641.980	1	-1
642.150	1	-2
642.319	1	9
642.489	1	6
642.659	1	5
642.828	1	3
642.998	1	-3
643.167	1	10
643.337	1	-1
643.506	1	6
643.676	1	9
643.845	1	-6
644.015	1	9
644.184	1	5
644.354	1	5
644.524	1	4
644.693	1	9
644.863	1	11
645.032	1	8
645.202	1	8
645.371	1	10
645.541	1	4
645.710	1	9
645.880	1	1
646.049	1	10
646.219	1	3
646.388	1	6
646.558	1	0
646.728	1	3
646.897	1	-2
647.067	1	-4
647.236	1	4
647.406	1	3
647.575	1	2
647.745	1	0
647.914	1	-4
648.084	1	1
648.253	1	8
648.423	1	4
648.592	1	7
648.762	1	11
648.931	1	11
649.101	1	-2
649.270	1	8
649.440	1	-16
649.610	1	2
649.779	1	4
649.949	1	3
650.118	1	0
650.288	1	6
650.457	1	23
650.627	1	1
650.796	1	5
650.966	1	0
651.135	1	14
651.305	1	10
651.474	1	5
651.644	1	-9
651.813	1	-3
651.983	1	3
652.152	1	0
652.322	1	3
652.491	1	13
652.661	1	5
652.830	1	2
653.000	1	9
653.169	1	9
653.339	1	10
653.508	1	1
653.678	1	4
653.847	1	10
654.017	1	2
654.186	1	12
654.356	1	4
654.525	1	4
654.695	1	7
654.864	1	-2
655.034	1	4
655.203	1	10
655.373	1	8
655.542	1	9
655.712	1	4
655.881	1	-4
656.051	1	-3
656.220	1	13
656.390	1	-2
656.559	1	5
656.729	1	-3
656.898	1	-5
657.068	1	13
657.237	1	5
657.406	1	6
657.576	1	1
657.745	1	1
657.915	1	3
658.084	1	8
658.254	1	3
658.423	1	11
658.593	1	2
658.762	1	7
658.932	1	1
659.101	1	1
659.271	1	-1
659.440	1	2
659.610	1	4
659.779	1	4
659.949	1	3
660.118	1	4
660.288	1	2
660.457	1	6
660.626	1	0
660.796	1	13
660.965	1	11
661.135	1	-1
661.304	1	3
661.474	1	5
661.643	1	12
661.813	1	0
661.982	1	3
662.152	1	-2
662.321	1	0
662.491	1	8
662.660	1	-5
662.829	1	3
662.999	1	-1
663.168	1	2
663.338	1	13
663.507	1	-7
663.677	1	6
663.846	1	10
664.016	1	-11
664.185	1	0
664.354	1	2
664.524	1	5
664.693	1	14
664.863	1	-5
665.032	1	1
665.202	1	5
665.371	1	5
665.541	1	2
665.710	1	11
665.879	1	-2
666.049	1	13
666.218	1	12
666.388	1	7
666.557	1	13
666.727	1	4
666.896	1	2
667.065	1	1
667.235	1	-1
667.404	1	3
667.574	1	14
667.743	1	0
667.913	1	3
668.082	1	-3
668.251	1	8
668.421	1	5
668.590	1	8
668.760	1	2
668.929	1	4
669.099	1	9
669.268	1	3
669.437	1	-4
669.607	1	-2
669.776	1	0
669.946	1	9
670.115	1	4
670.285	1	3
670.454	1	2
670.623	1	3
670.793	1	-3
670.962	1	11
671.132	1	-12
671.301	1	1
671.470	1	2
671.640	1	-4
671.809	1	16
671.979	1	6
672.148	1	10
672.317	1	1
672.487	1	12
672.656	1	2
672.826	1	14
672.995	1	-4
673.164	1	0
673.334	1	1
673.503	1	2
673.673	1	4
673.842	1	3
674.011	1	-1
674.181	1	-12
674.350	1	1
674.520	1	6
674.689	1	4
674.858	1	5
675.028	1	11
675.197	1	-5
675.367	1	6
675.536	1	-3
675.705	1	5
675.875	1	2
676.044	1	3
676.214	1	-1
676.383	1	12
676.552	1	-5
676.722	1	7
676.891	1	-4
677.060	1	-5
677.230	1	-5
677.399	1	-4
677.569	1	5
677.738	1	-10
677.907	1	1
678.077	1	-8
678.246	1	3
678.416	1	0
678.585	1	-7
678.754	1	5
678.924	1	-3
679.093	1	-5
679.262	1	-4
679.432	1	0
679.601	1	5
679.771	1	-3
679.940	1	4
680.109	1	6
680.279	1	2
680.448	1	-13
680.617	1	12
680.787	1	7
680.956	1	9
681.125	1	3
681.295	1	-4
681.464	1	10
681.634	1	8
681.803	1	2
681.972	1	5
682.142	1	-4
682.311	1	3
682.480	1	-1
682.650	1	9
682.819	1	6
682.988	1	4
683.158	1	4
683.327	1	3
683.496	1	5
683.666	1	2
683.835	1	3
684.004	1	9
684.174	1	-7
684.343	1	0
684.512	1	14
684.682	1	8
684.851	1	10
685.021	1	-1
685.190	1	6
685.359	1	2
685.529	1	7
685.698	1	4
685.867	1	6
686.037	1	6
686.206	1	9
686.375	1	19
686.545	1	-7
686.714	1	13
686.883	1	8
687.053	1	7
687.222	1	-1
687.391	1	11
687.561	1	-4
687.730	1	3
687.899	1	3
688.069	1	8
688.238	1	6
688.407	1	14
688.577	1	15
688.746	1	3
