340.368	1	2
340.539	1	8
340.710	1	6
340.881	1	4
341.052	1	-6
341.223	1	13
341.394	1	4
341.565	1	4
341.737	1	3
341.908	1	0
342.079	1	2
342.250	1	1
342.421	1	2
342.592	1	6
342.763	1	-6
342.934	1	-3
343.105	1	-10
343.276	1	-3
343.447	1	-2
343.618	1	-5
343.789	1	4
343.960	1	7
344.131	1	7
344.302	1	7
344.473	1	10
344.644	1	9
344.815	1	1
344.986	1	5
345.157	1	11
345.328	1	11
345.499	1	8
345.670	1	0
345.841	1	3
346.012	1	2
346.183	1	-4
346.354	1	13
346.526	1	1
346.697	1	-2
346.868	1	6
347.039	1	0
347.210	1	-1
347.381	1	12
347.552	1	7
347.723	1	3
347.894	1	5
348.065	1	4
348.236	1	4
348.407	1	2
348.578	1	5
348.749	1	5
348.920	1	11
349.091	1	13
349.262	1	0
349.433	1	13
349.604	1	5
349.775	1	1
349.946	1	4
350.117	1	16
350.288	1	4
350.459	1	4
350.630	1	0
350.801	1	19
350.972	1	17
351.143	1	14
351.314	1	-9
351.485	1	-5
351.656	1	1
351.827	1	-2
351.998	1	6
352.169	1	14
352.340	1	7
352.511	1	-2
352.682	1	10
352.853	1	6
353.024	1	8
353.195	1	4
353.366	1	5
353.537	1	2
353.708	1	10
353.879	1	5
354.050	1	7
354.221	1	19
354.392	1	1
354.563	1	10
354.734	1	12
354.905	1	10
355.076	1	6
355.247	1	6
355.418	1	9
355.589	1	9
355.760	1	9
355.931	1	12
356.102	1	12
356.273	1	8
356.444	1	2
356.615	1	2
356.785	1	7
356.956	1	12
357.127	1	12
357.298	1	22
357.469	1	14
357.640	1	18
357.811	1	12
357.982	1	16
358.153	1	12
358.324	1	23
358.495	1	13
358.666	1	13
358.837	1	13
359.008	1	23
359.179	1	18
359.350	1	14
359.521	1	18
359.692	1	15
359.863	1	5
360.034	1	5
360.205	1	31
360.376	1	9
360.547	1	35
360.718	1	22
360.889	1	26
361.060	1	34
361.231	1	28
361.401	1	25
361.572	1	26
361.743	1	20
361.914	1	34
362.085	1	30
362.256	1	29
362.427	1	19
362.598	1	25
362.769	1	37
362.940	1	27
363.111	1	31
363.282	1	37
363.453	1	42
363.624	1	47
363.795	1	47
363.966	1	36
364.137	1	36
364.308	1	29
364.478	1	34
364.649	1	42
364.820	1	43
364.991	1	45
365.162	1	49
365.333	1	46
365.504	1	39
365.675	1	44
365.846	1	57
366.017	1	54
366.188	1	56
366.359	1	54
366.530	1	54
366.701	1	61
366.871	1	64
367.042	1	59
367.213	1	64
367.384	1	56
367.555	1	61
367.726	1	80
367.897	1	66
368.068	1	62
368.239	1	76
368.410	1	68
368.581	1	73
368.752	1	87
368.923	1	67
369.093	1	82
369.264	1	73
369.435	1	87
369.606	1	78
369.777	1	90
369.948	1	97
370.119	1	91
370.290	1	85
370.461	1	96
370.632	1	101
370.803	1	94
370.973	1	90
371.144	1	101
371.315	1	98
371.486	1	97
371.657	1	108
371.828	1	112
371.999	1	113
372.170	1	107
372.341	1	112
372.512	1	117
372.682	1	112
372.853	1	113
373.024	1	118
373.195	1	107
373.366	1	100
373.537	1	120
373.708	1	99
373.879	1	114
374.050	1	115
374.220	1	106
374.391	1	113
374.562	1	104
374.733	1	112
374.904	1	112
375.075	1	112
375.246	1	105
375.417	1	103
375.588	1	123
375.758	1	113
375.929	1	112
376.100	1	100
376.271	1	88
376.442	1	107
376.613	1	101
376.784	1	105
376.955	1	94
377.125	1	106
377.296	1	95
377.467	1	96
377.638	1	81
377.809	1	98
377.980	1	87
378.151	1	73
378.321	1	89
378.492	1	89
378.663	1	76
378.834	1	84
379.005	1	83
379.176	1	82
379.347	1	71
379.518	1	65
379.688	1	81
379.859	1	74
380.030	1	61
380.201	1	84
380.372	1	63
380.543	1	64
380.714	1	69
380.884	1	79
381.055	1	61
381.226	1	70
381.397	1	56
381.568	1	58
381.739	1	61
381.910	1	62
382.080	1	62
382.251	1	66
382.422	1	56
382.593	1	63
382.764	1	44
382.935	1	52
383.105	1	64
383.276	1	52
383.447	1	53
383.618	1	52
383.789	1	55
383.960	1	59
384.130	1	46
384.301	1	36
384.472	1	44
384.643	1	52
384.814	1	45
384.985	1	42
385.156	1	44
385.326	1	42
385.497	1	47
385.668	1	51
385.839	1	43
386.010	1	42
386.180	1	35
386.351	1	47
386.522	1	35
386.693	1	32
386.864	1	39
387.035	1	38
387.205	1	39
387.376	1	34
387.547	1	29
387.718	1	37
387.889	1	44
388.060	1	42
388.230	1	28
388.401	1	32
388.572	1	42
388.743	1	35
388.914	1	32
389.084	1	26
389.255	1	24
389.426	1	27
389.597	1	34
389.768	1	39
389.939	1	40
390.109	1	22
390.280	1	26
390.451	1	29
390.622	1	30
390.793	1	28
390.963	1	19
391.134	1	21
391.305	1	31
391.476	1	24
391.647	1	23
391.817	1	33
391.988	1	27
392.159	1	20
392.330	1	27
392.501	1	22
392.671	1	30
392.842	1	14
393.013	1	23
393.184	1	35
393.355	1	15
393.525	1	26
393.696	1	27
393.867	1	21
394.038	1	15
394.208	1	25
394.379	1	13
394.550	1	11
394.721	1	28
394.892	1	26
395.062	1	21
395.233	1	15
395.404	1	21
395.575	1	19
395.746	1	16
395.916	1	31
396.087	1	7
396.258	1	18
396.429	1	17
396.599	1	14
396.770	1	5
396.941	1	17
397.112	1	13
397.283	1	21
397.453	1	14
397.624	1	10
397.795	1	13
397.966	1	14
398.136	1	12
398.307	1	17
398.478	1	22
398.649	1	10
398.819	1	10
398.990	1	10
399.161	1	15
399.332	1	17
399.503	1	4
399.673	1	9
399.844	1	7
400.015	1	13
400.186	1	19
400.356	1	18
400.527	1	13
400.698	1	23
400.869	1	14
401.039	1	9
401.210	1	15
401.381	1	16
401.552	1	12
401.722	1	10
401.893	1	13
402.064	1	8
402.235	1	19
402.405	1	22
402.576	1	19
402.747	1	6
402.918	1	10
403.088	1	5
403.259	1	6
403.430	1	17
403.601	1	10
403.771	1	19
403.942	1	6
404.113	1	6
404.284	1	8
404.454	1	0
404.625	1	20
404.796	1	17
404.967	1	-12
405.137	1	2
405.308	1	18
405.479	1	10
405.649	1	9
405.820	1	5
405.991	1	10
406.162	1	6
406.332	1	11
406.503	1	6
406.674	1	16
406.845	1	12
407.015	1	11
407.186	1	7
407.357	1	15
407.527	1	7
407.698	1	10
407.869	1	8
408.040	1	11
408.210	1	1
408.381	1	-2
408.552	1	15
408.722	1	2
408.893	1	9
409.064	1	12
409.235	1	3
409.405	1	-3
409.576	1	17
409.747	1	-8
409.917	1	2
410.088	1	22
410.259	1	-1
410.430	1	6
410.600	1	11
410.771	1	0
410.942	1	1
411.112	1	11
411.283	1	2
411.454	1	-3
411.625	1	4
411.795	1	-4
411.966	1	10
412.137	1	9
412.307	1	2
412.478	1	8
412.649	1	4
412.819	1	9
412.990	1	1
413.161	1	3
413.332	1	11
413.502	1	9
413.673	1	8
413.844	1	10
414.014	1	11
414.185	1	1
414.356	1	5
414.526	1	14
414.697	1	11
414.868	1	6
415.038	1	15
415.209	1	6
415.380	1	0
415.550	1	10
415.721	1	-1
415.892	1	3
416.063	1	7
416.233	1	15
416.404	1	-2
416.575	1	7
416.745	1	3
416.916	1	9
417.087	1	17
417.257	1	8
417.428	1	1
417.599	1	10
417.769	1	5
417.940	1	4
418.111	1	14
418.281	1	14
418.452	1	-2
418.623	1	3
418.793	1	7
418.964	1	11
419.135	1	5
419.305	1	-1
419.476	1	-4
419.647	1	10
419.817	1	1
419.988	1	4
420.159	1	13
420.329	1	7
420.500	1	-5
420.671	1	8
420.841	1	1
421.012	1	13
421.183	1	8
421.353	1	10
421.524	1	-2
421.695	1	4
421.865	1	7
422.036	1	21
422.206	1	9
422.377	1	9
422.548	1	6
422.718	1	11
422.889	1	-2
423.060	1	3
423.230	1	0
423.401	1	2
423.572	1	7
423.742	1	8
423.913	1	8
424.084	1	1
424.254	1	2
424.425	1	1
424.595	1	0
424.766	1	6
424.937	1	0
425.107	1	0
425.278	1	10
425.449	1	2
425.619	1	1
425.790	1	8
425.961	1	6
426.131	1	-10
426.302	1	14
426.472	1	-4
426.643	1	3
426.814	1	8
426.984	1	2
427.155	1	5
427.326	1	13
427.496	1	18
427.667	1	12
427.837	1	14
428.008	1	5
428.179	1	4
428.349	1	2
428.520	1	6
428.691	1	11
428.861	1	15
429.032	1	0
429.202	1	5
429.373	1	-1
429.544	1	4
429.714	1	0
429.885	1	9
430.055	1	7
430.226	1	8
430.397	1	-10
430.567	1	10
430.738	1	12
430.909	1	8
431.079	1	-2
431.250	1	2
431.420	1	2
431.591	1	2
431.762	1	6
431.932	1	12
432.103	1	16
432.273	1	12
432.444	1	-4
432.615	1	14
432.785	1	4
432.956	1	7
433.126	1	2
433.297	1	5
433.468	1	-7
433.638	1	0
433.809	1	10
433.979	1	8
434.150	1	18
434.320	1	2
434.491	1	3
434.662	1	-1
434.832	1	1
435.003	1	-3
435.173	1	-5
435.344	1	7
435.515	1	4
435.685	1	4
435.856	1	8
436.026	1	2
436.197	1	14
436.368	1	3
436.538	1	9
436.709	1	-4
436.879	1	10
437.050	1	19
437.220	1	9
437.391	1	7
437.562	1	3
437.732	1	3
437.903	1	13
438.073	1	-11
438.244	1	14
438.414	1	11
438.585	1	7
438.756	1	6
438.926	1	22
439.097	1	1
439.267	1	11
439.438	1	10
439.608	1	9
439.779	1	11
439.949	1	9
440.120	1	3
440.291	1	8
440.461	1	-8
440.632	1	-1
440.802	1	7
440.973	1	2
441.143	1	7
441.314	1	9
441.485	1	8
441.655	1	3
441.826	1	0
441.996	1	3
442.167	1	-4
442.337	1	10
442.508	1	14
442.678	1	8
442.849	1	18
443.019	1	5
443.190	1	-4
443.361	1	4
443.531	1	7
443.702	1	9
443.872	1	4
444.043	1	4
444.213	1	9
444.384	1	3
444.554	1	2
444.725	1	3
444.895	1	7
445.066	1	9
445.237	1	9
445.407	1	12
445.578	1	12
445.748	1	-4
445.919	1	4
446.089	1	4
446.260	1	0
446.430	1	7
446.601	1	9
446.771	1	7
446.942	1	7
447.112	1	6
447.283	1	17
447.453	1	-3
447.624	1	-2
447.794	1	5
447.965	1	6
448.135	1	-3
448.306	1	6
448.477	1	7
448.647	1	11
448.818	1	5
448.988	1	-5
449.159	1	9
449.329	1	7
449.500	1	5
449.670	1	4
449.841	1	8
450.011	1	6
450.182	1	9
450.352	1	10
450.523	1	11
450.693	1	4
450.864	1	0
451.034	1	13
451.205	1	6
451.375	1	-9
451.546	1	7
451.716	1	3
451.887	1	1
452.057	1	1
452.228	1	7
452.398	1	13
452.569	1	-3
452.739	1	5
452.910	1	0
453.080	1	7
453.251	1	7
453.421	1	5
453.592	1	8
453.762	1	7
453.933	1	6
454.103	1	3
454.274	1	-1
454.444	1	9
454.615	1	3
454.785	1	5
454.956	1	3
455.126	1	11
455.297	1	4
455.467	1	2
455.638	1	0
455.808	1	-6
455.979	1	9
456.149	1	11
456.320	1	3
456.490	1	5
456.661	1	4
456.831	1	0
457.001	1	9
457.172	1	0
457.342	1	9
457.513	1	1
457.683	1	4
457.854	1	2
458.024	1	0
458.195	1	3
458.365	1	1
458.536	1	-2
458.706	1	-2
458.877	1	1
459.047	1	-6
459.218	1	-2
459.388	1	5
459.559	1	10
459.729	1	10
459.899	1	1
460.070	1	20
460.240	1	7
460.411	1	5
460.581	1	9
460.752	1	2
460.922	1	12
461.093	1	-2
461.263	1	4
461.434	1	5
461.604	1	-3
461.775	1	-5
461.945	1	-6
462.115	1	-1
462.286	1	13
462.456	1	16
462.627	1	-1
462.797	1	3
462.968	1	8
463.138	1	10
463.309	1	8
463.479	1	8
463.649	1	-3
463.820	1	-10
463.990	1	0
464.161	1	-3
464.331	1	-1
464.502	1	4
464.672	1	9
464.843	1	5
465.013	1	9
465.183	1	-7
465.354	1	0
465.524	1	11
465.695	1	7
465.865	1	-3
466.036	1	7
466.206	1	8
466.376	1	9
466.547	1	9
466.717	1	-6
466.888	1	3
467.058	1	5
467.229	1	6
467.399	1	10
467.569	1	15
467.740	1	-8
467.910	1	1
468.081	1	-1
468.251	1	8
468.422	1	-4
468.592	1	10
468.762	1	13
468.933	1	8
469.103	1	-1
469.274	1	11
469.444	1	12
469.614	1	-6
469.785	1	0
469.955	1	9
470.126	1	9
470.296	1	1
470.467	1	11
470.637	1	10
470.807	1	-2
470.978	1	-6
471.148	1	20
471.319	1	2
471.489	1	8
471.659	1	5
471.830	1	3
472.000	1	3
472.171	1	8
472.341	1	-6
472.511	1	4
472.682	1	8
472.852	1	15
473.023	1	2
473.193	1	-2
473.363	1	4
473.534	1	-5
473.704	1	1
473.875	1	13
474.045	1	-2
474.215	1	7
474.386	1	20
474.556	1	3
474.727	1	6
474.897	1	2
475.067	1	5
475.238	1	3
475.408	1	4
475.578	1	13
475.749	1	11
475.919	1	5
476.090	1	3
476.260	1	7
476.430	1	-3
476.601	1	-9
476.771	1	1
476.942	1	4
477.112	1	8
477.282	1	1
477.453	1	7
477.623	1	3
477.793	1	11
477.964	1	-12
478.134	1	2
478.305	1	-2
478.475	1	-2
478.645	1	9
478.816	1	18
478.986	1	11
479.156	1	14
479.327	1	-8
479.497	1	5
479.667	1	-2
479.838	1	2
480.008	1	-8
480.179	1	9
480.349	1	5
480.519	1	-2
480.690	1	3
480.860	1	13
481.030	1	-8
481.201	1	1
481.371	1	2
481.541	1	1
481.712	1	-4
481.882	1	-5
482.053	1	8
482.223	1	17
482.393	1	1
482.564	1	-1
482.734	1	9
482.904	1	4
483.075	1	5
483.245	1	11
483.415	1	0
483.586	1	-4
483.756	1	5
483.926	1	1
484.097	1	4
484.267	1	-2
484.437	1	4
484.608	1	7
484.778	1	9
484.948	1	-2
485.119	1	0
485.289	1	-8
485.459	1	2
485.630	1	13
485.800	1	0
485.970	1	1
486.141	1	-6
486.311	1	0
486.481	1	-1
486.652	1	5
486.822	1	7
486.992	1	-3
487.163	1	6
487.333	1	7
487.503	1	-3
487.674	1	8
487.844	1	5
488.014	1	6
488.185	1	8
488.355	1	10
488.525	1	5
488.696	1	-1
488.866	1	-2
489.036	1	5
489.207	1	1
489.377	1	2
489.547	1	7
489.718	1	13
489.888	1	8
490.058	1	0
490.228	1	8
490.399	1	-8
490.569	1	0
490.739	1	-6
490.910	1	3
491.080	1	4
491.250	1	2
491.421	1	6
491.591	1	6
491.761	1	10
491.932	1	4
492.102	1	-1
492.272	1	-6
492.442	1	3
492.613	1	4
492.783	1	4
492.953	1	14
493.124	1	1
493.294	1	4
493.464	1	2
493.635	1	3
493.805	1	7
493.975	1	-7
494.145	1	1
494.316	1	1
494.486	1	0
494.656	1	10
494.827	1	2
494.997	1	-2
495.167	1	6
495.337	1	7
495.508	1	7
495.678	1	13
495.848	1	3
496.019	1	-1
496.189	1	7
496.359	1	-1
496.529	1	-2
496.700	1	-2
496.870	1	11
497.040	1	3
497.211	1	2
497.381	1	10
497.551	1	-1
497.721	1	11
497.892	1	6
498.062	1	7
498.232	1	-2
498.403	1	7
498.573	1	3
498.743	1	12
498.913	1	9
499.084	1	-2
499.254	1	2
499.424	1	5
499.594	1	5
499.765	1	-6
499.935	1	13
500.105	1	-7
500.275	1	-4
500.446	1	14
500.616	1	4
500.786	1	6
500.956	1	6
501.127	1	0
501.297	1	16
501.467	1	4
501.638	1	-6
501.808	1	-9
501.978	1	3
502.148	1	6
502.319	1	8
502.489	1	-10
502.659	1	-2
502.829	1	14
503.000	1	9
503.170	1	5
503.340	1	5
503.510	1	5
503.681	1	4
503.851	1	-1
504.021	1	-1
504.191	1	-3
504.362	1	2
504.532	1	-6
504.702	1	11
504.872	1	1
505.042	1	4
505.213	1	19
505.383	1	12
505.553	1	3
505.723	1	0
505.894	1	8
506.064	1	-5
506.234	1	4
506.404	1	-2
506.575	1	-3
506.745	1	5
506.915	1	6
507.085	1	9
507.256	1	6
507.426	1	-1
507.596	1	6
507.766	1	2
507.936	1	-1
508.107	1	8
508.277	1	4
508.447	1	7
508.617	1	2
508.788	1	1
508.958	1	5
509.128	1	4
509.298	1	-1
509.468	1	7
509.639	1	-2
509.809	1	5
509.979	1	9
510.149	1	10
510.319	1	3
510.490	1	0
510.660	1	8
510.830	1	7
511.000	1	-2
511.171	1	-10
511.341	1	3
511.511	1	15
511.681	1	0
511.851	1	4
512.022	1	2
512.192	1	4
512.362	1	10
512.532	1	12
512.702	1	2
512.873	1	3
513.043	1	7
513.213	1	1
513.383	1	1
513.553	1	-7
513.724	1	1
513.894	1	-2
514.064	1	-1
514.234	1	5
514.404	1	8
514.575	1	8
514.745	1	-5
514.915	1	-12
515.085	1	9
515.255	1	10
515.425	1	-3
515.596	1	6
515.766	1	6
515.936	1	-3
516.106	1	2
516.276	1	-4
516.447	1	7
516.617	1	-1
516.787	1	4
516.957	1	6
517.127	1	2
517.297	1	4
517.468	1	7
517.638	1	1
517.808	1	7
517.978	1	7
518.148	1	8
518.319	1	9
518.489	1	5
518.659	1	12
518.829	1	6
518.999	1	-2
519.169	1	-1
519.340	1	8
519.510	1	-7
519.680	1	8
519.850	1	5
520.020	1	14
520.190	1	6
520.361	1	6
520.531	1	9
520.701	1	8
520.871	1	-10
521.041	1	2
521.211	1	4
521.382	1	12
521.552	1	13
521.722	1	8
521.892	1	1
522.062	1	6
522.232	1	5
522.402	1	1
522.573	1	8
522.743	1	0
522.913	1	-3
523.083	1	2
523.253	1	-4
523.423	1	15
523.593	1	-5
523.764	1	2
523.934	1	7
524.104	1	4
524.274	1	4
524.444	1	5
524.614	1	3
524.784	1	16
524.955	1	0
525.125	1	-1
525.295	1	8
525.465	1	1
525.635	1	-12
525.805	1	10
525.975	1	2
526.146	1	11
526.316	1	5
526.486	1	8
526.656	1	11
526.826	1	0
526.996	1	13
527.166	1	11
527.337	1	2
527.507	1	-2
527.677	1	6
527.847	1	0
528.017	1	-11
528.187	1	10
528.357	1	10
528.527	1	3
528.698	1	4
528.868	1	11
529.038	1	-9
529.208	1	6
529.378	1	-2
529.548	1	-6
529.718	1	3
529.888	1	16
530.058	1	6
530.229	1	5
530.399	1	6
530.569	1	0
530.739	1	7
530.909	1	-3
531.079	1	0
531.249	1	15
531.419	1	6
531.589	1	0
531.760	1	9
531.930	1	-2
532.100	1	2
532.270	1	5
532.440	1	-1
532.610	1	6
532.780	1	-4
532.950	1	-8
533.120	1	23
533.290	1	13
533.461	1	3
533.631	1	-2
533.801	1	4
533.971	1	-8
534.141	1	1
534.311	1	7
534.481	1	-4
534.651	1	6
534.821	1	1
534.991	1	-1
535.162	1	9
535.332	1	4
535.502	1	8
535.672	1	1
535.842	1	6
536.012	1	12
536.182	1	12
536.352	1	4
536.522	1	8
536.692	1	5
536.862	1	4
537.032	1	6
537.203	1	10
537.373	1	11
537.543	1	9
537.713	1	3
537.883	1	7
538.053	1	5
538.223	1	15
538.393	1	-1
538.563	1	7
538.733	1	2
538.903	1	2
539.073	1	2
539.243	1	-4
539.413	1	8
539.584	1	7
539.754	1	2
539.924	1	6
540.094	1	1
540.264	1	-5
540.434	1	-3
540.604	1	3
540.774	1	18
540.944	1	8
541.114	1	9
541.284	1	1
541.454	1	-2
541.624	1	-2
541.794	1	14
541.964	1	9
542.134	1	-3
542.305	1	7
542.475	1	7
542.645	1	-5
542.815	1	9
542.985	1	5
543.155	1	6
543.325	1	0
543.495	1	1
543.665	1	15
543.835	1	-4
544.005	1	6
544.175	1	-5
544.345	1	5
544.515	1	0
544.685	1	-3
544.855	1	6
545.025	1	9
545.195	1	6
545.365	1	-4
545.535	1	3
545.705	1	-3
545.875	1	1
546.045	1	-3
546.216	1	15
546.386	1	-4
546.556	1	6
546.726	1	2
546.896	1	10
547.066	1	4
547.236	1	1
547.406	1	-3
547.576	1	4
547.746	1	1
547.916	1	3
548.086	1	1
548.256	1	-1
548.426	1	2
548.596	1	4
548.766	1	6
548.936	1	-8
549.106	1	3
549.276	1	6
549.446	1	8
549.616	1	0
549.786	1	30
549.956	1	11
550.126	1	10
550.296	1	11
550.466	1	-1
550.636	1	-2
550.806	1	-4
550.976	1	2
551.146	1	11
551.316	1	9
551.486	1	10
551.656	1	5
551.826	1	7
551.996	1	9
552.166	1	3
552.336	1	2
552.506	1	3
552.676	1	5
552.846	1	12
553.016	1	11
553.186	1	1
553.356	1	6
553.526	1	2
553.696	1	16
553.866	1	6
554.036	1	3
554.206	1	-3
554.376	1	0
554.546	1	14
554.716	1	2
554.886	1	21
555.056	1	9
555.226	1	9
555.396	1	-3
555.566	1	14
555.736	1	2
555.906	1	1
556.076	1	12
556.246	1	2
556.416	1	8
556.586	1	-2
556.756	1	14
556.926	1	17
557.096	1	9
557.266	1	4
557.436	1	4
557.606	1	3
557.776	1	-2
557.946	1	-2
558.116	1	0
558.286	1	7
558.456	1	3
558.626	1	13
558.796	1	3
558.966	1	1
559.136	1	6
559.306	1	13
559.476	1	9
559.646	1	0
559.816	1	-1
559.986	1	9
560.155	1	-1
560.325	1	-2
560.495	1	5
560.665	1	6
560.835	1	-3
561.005	1	-6
561.175	1	-5
561.345	1	2
561.515	1	6
561.685	1	9
561.855	1	2
562.025	1	8
562.195	1	3
562.365	1	7
562.535	1	7
562.705	1	8
562.875	1	0
563.045	1	-3
563.215	1	4
563.385	1	8
563.555	1	15
563.725	1	0
563.895	1	18
564.064	1	25
564.234	1	-3
564.404	1	-10
564.574	1	15
564.744	1	11
564.914	1	5
565.084	1	11
565.254	1	1
565.424	1	12
565.594	1	4
565.764	1	3
565.934	1	1
566.104	1	2
566.274	1	-5
566.444	1	9
566.614	1	2
566.783	1	6
566.953	1	11
567.123	1	7
567.293	1	13
567.463	1	13
567.633	1	9
567.803	1	2
567.973	1	-2
568.143	1	4
568.313	1	-6
568.483	1	9
568.653	1	2
568.823	1	5
568.993	1	14
569.162	1	10
569.332	1	1
569.502	1	-1
569.672	1	1
569.842	1	5
570.012	1	-11
570.182	1	0
570.352	1	1
570.522	1	9
570.692	1	2
570.862	1	19
571.031	1	10
571.201	1	5
571.371	1	-5
571.541	1	-1
571.711	1	-6
571.881	1	12
572.051	1	-3
572.221	1	7
572.391	1	-4
572.561	1	9
572.731	1	1
572.900	1	7
573.070	1	-1
573.240	1	10
573.410	1	-1
573.580	1	2
573.750	1	1
573.920	1	-2
574.090	1	10
574.260	1	3
574.430	1	-4
574.599	1	3
574.769	1	12
574.939	1	7
575.109	1	5
575.279	1	-2
575.449	1	-5
575.619	1	0
575.789	1	-7
575.959	1	7
576.128	1	4
576.298	1	3
576.468	1	4
576.638	1	0
576.808	1	10
576.978	1	0
577.148	1	-6
577.318	1	-10
577.487	1	0
577.657	1	17
577.827	1	3
577.997	1	7
578.167	1	2
578.337	1	3
578.507	1	5
578.677	1	1
578.846	1	9
579.016	1	-1
579.186	1	15
579.356	1	-3
579.526	1	16
579.696	1	0
579.866	1	11
580.036	1	4
580.205	1	8
580.375	1	11
580.545	1	9
580.715	1	4
580.885	1	14
581.055	1	-10
581.225	1	-4
581.394	1	-2
581.564	1	0
581.734	1	-2
581.904	1	2
582.074	1	5
582.244	1	17
582.414	1	16
582.583	1	12
582.753	1	-7
582.923	1	7
583.093	1	-1
583.263	1	-6
583.433	1	-3
583.603	1	7
583.772	1	7
583.942	1	11
584.112	1	8
584.282	1	16
584.452	1	-1
584.622	1	3
584.791	1	1
584.961	1	10
585.131	1	10
585.301	1	7
585.471	1	1
585.641	1	8
585.811	1	18
585.980	1	12
586.150	1	7
586.320	1	7
586.490	1	7
586.660	1	0
586.830	1	6
586.999	1	-2
587.169	1	10
587.339	1	-4
587.509	1	1
587.679	1	7
587.849	1	11
588.018	1	-3
588.188	1	6
588.358	1	0
588.528	1	2
588.698	1	-4
588.867	1	11
589.037	1	12
589.207	1	-2
589.377	1	7
589.547	1	3
589.717	1	7
589.886	1	2
590.056	1	-4
590.226	1	10
590.396	1	0
590.566	1	6
590.735	1	-2
590.905	1	4
591.075	1	16
591.245	1	9
591.415	1	7
591.585	1	4
591.754	1	-10
591.924	1	-1
592.094	1	-4
592.264	1	14
592.434	1	9
592.603	1	11
592.773	1	17
592.943	1	0
593.113	1	-17
593.283	1	-6
593.452	1	10
593.622	1	10
593.792	1	10
593.962	1	17
594.132	1	10
594.301	1	8
594.471	1	6
594.641	1	10
594.811	1	-6
594.981	1	2
595.150	1	-9
595.320	1	3
595.490	1	-1
595.660	1	6
595.829	1	16
595.999	1	-6
596.169	1	-8
596.339	1	-4
596.509	1	1
596.678	1	-2
596.848	1	3
597.018	1	4
597.188	1	-5
597.358	1	3
597.527	1	15
597.697	1	1
597.867	1	7
598.037	1	9
598.206	1	-3
598.376	1	4
598.546	1	0
598.716	1	1
598.885	1	9
599.055	1	5
599.225	1	11
599.395	1	-3
599.565	1	3
599.734	1	12
599.904	1	16
600.074	1	14
600.244	1	3
600.413	1	11
600.583	1	-5
600.753	1	22
600.923	1	-1
601.092	1	7
601.262	1	-8
601.432	1	4
601.602	1	7
601.771	1	0
601.941	1	7
602.111	1	-4
602.281	1	16
602.451	1	14
602.620	1	5
602.790	1	-8
602.960	1	-2
603.130	1	1
603.299	1	2
603.469	1	0
603.639	1	5
603.809	1	6
603.978	1	-1
604.148	1	-1
604.318	1	3
604.487	1	2
604.657	1	7
604.827	1	1
604.997	1	6
605.166	1	-3
605.336	1	6
605.506	1	-3
605.676	1	6
605.845	1	-5
606.015	1	-1
606.185	1	7
606.355	1	13
606.524	1	8
606.694	1	2
606.864	1	14
607.034	1	2
607.203	1	6
607.373	1	-3
607.543	1	-1
607.712	1	0
607.882	1	-9
608.052	1	-3
608.222	1	5
608.391	1	14
608.561	1	10
608.731	1	7
608.901	1	1
609.070	1	8
609.240	1	5
609.410	1	0
609.579	1	-4
609.749	1	0
609.919	1	2
610.089	1	13
610.258	1	4
610.428	1	8
610.598	1	1
610.767	1	-2
610.937	1	4
611.107	1	-2
611.277	1	0
611.446	1	5
611.616	1	10
611.786	1	16
611.955	1	8
612.125	1	5
612.295	1	5
612.465	1	-10
612.634	1	4
612.804	1	6
612.974	1	1
613.143	1	3
613.313	1	5
613.483	1	8
613.652	1	5
613.822	1	-6
613.992	1	5
614.162	1	8
614.331	1	-2
614.501	1	-1
614.671	1	18
614.840	1	2
615.010	1	9
615.180	1	11
615.349	1	2
615.519	1	7
615.689	1	20
615.858	1	4
616.028	1	1
616.198	1	10
616.368	1	6
616.537	1	3
616.707	1	6
616.877	1	11
617.046	1	6
617.216	1	0
617.386	1	1
617.555	1	1
617.725	1	2
617.895	1	6
618.064	1	6
618.234	1	4
618.404	1	5
618.573	1	19
618.743	1	6
618.913	1	10
619.082	1	0
619.252	1	13
619.422	1	0
619.591	1	7
619.761	1	-4
619.931	1	12
620.100	1	3
620.270	1	-3
620.440	1	9
620.609	1	8
620.779	1	5
620.949	1	4
621.118	1	5
621.288	1	-1
621.458	1	4
621.627	1	0
621.797	1	3
621.967	1	5
622.136	1	0
622.306	1	-1
622.476	1	10
622.645	1	4
622.815	1	-4
622.985	1	5
623.154	1	-2
623.324	1	2
623.494	1	13
623.663	1	10
623.833	1	2
624.002	1	-4
624.172	1	1
624.342	1	-11
624.511	1	0
624.681	1	9
624.851	1	13
625.020	1	4
625.190	1	16
625.360	1	-4
625.529	1	1
625.699	1	-2
625.869	1	1
626.038	1	0
626.208	1	-1
626.377	1	15
626.547	1	8
626.717	1	2
626.886	1	7
627.056	1	0
627.226	1	3
627.395	1	3
627.565	1	5
627.735	1	7
627.904	1	1
628.074	1	10
628.243	1	13
628.413	1	-5
628.583	1	-6
628.752	1	2
628.922	1	0
629.091	1	2
629.261	1	0
629.431	1	10
629.600	1	23
629.770	1	1
629.940	1	-3
630.109	1	11
630.279	1	2
630.448	1	3
630.618	1	8
630.788	1	0
630.957	1	6
631.127	1	13
631.297	1	-4
631.466	1	4
631.636	1	-5
631.805	1	21
631.975	1	12
632.145	1	15
632.314	1	2
632.484	1	2
632.653	1	-4
632.823	1	2
632.993	1	4
633.162	1	5
633.332	1	-8
633.501	1	5
633.671	1	-4
633.841	1	20
634.010	1	15
634.180	1	2
634.349	1	6
634.519	1	1
634.689	1	0
634.858	1	-8
635.028	1	7
635.197	1	12
635.367	1	3
635.537	1	3
635.706	1	19
635.876	1	10
636.045	1	-11
636.215	1	4
636.384	1	10
636.554	1	2
636.724	1	0
636.893	1	1
637.063	1	12
637.232	1	3
637.402	1	7
637.572	1	5
637.741	1	0
637.911	1	0
638.080	1	4
638.250	1	0
638.419	1	2
638.589	1	4
638.759	1	6
638.928	1	3
639.098	1	1
639.267	1	6
639.437	1	-2
639.606	1	21
639.776	1	1
639.946	1	8
640.115	1	12
640.285	1	9
640.454	1	-8
640.624	1	6
640.793	1	15
640.963	1	6
641.132	1	-1
641.302	1	11
641.472	1	11
641.641	1	4
641.811	1	10
641.980	1	5
642.150	1	-1
642.319	1	11
642.489	1	7
642.659	1	0
642.828	1	8
642.998	1	2
643.167	1	3
643.337	1	-7
643.506	1	1
643.676	1	2
643.845	1	2
644.015	1	5
644.184	1	3
644.354	1	9
644.524	1	-8
644.693	1	10
644.863	1	10
645.032	1	7
645.202	1	8
645.371	1	7
645.541	1	7
645.710	1	6
645.880	1	4
646.049	1	1
646.219	1	4
646.388	1	10
646.558	1	9
646.728	1	10
646.897	1	-2
647.067	1	1
647.236	1	8
647.406	1	1
647.575	1	10
647.745	1	-1
647.914	1	5
648.084	1	2
648.253	1	5
648.423	1	4
648.592	1	1
648.762	1	14
648.931	1	9
649.101	1	8
649.270	1	2
649.440	1	-3
649.610	1	4
649.779	1	7
649.949	1	-4
650.118	1	6
650.288	1	14
650.457	1	13
650.627	1	-2
650.796	1	6
650.966	1	8
651.135	1	9
651.305	1	17
651.474	1	8
651.644	1	-3
651.813	1	-5
651.983	1	4
652.152	1	5
652.322	1	-5
652.491	1	14
652.661	1	17
652.830	1	12
653.000	1	4
653.169	1	6
653.339	1	-6
653.508	1	1
653.678	1	0
653.847	1	16
654.017	1	6
654.186	1	3
654.356	1	-6
654.525	1	12
654.695	1	0
654.864	1	5
655.034	1	2
655.203	1	0
655.373	1	4
655.542	1	10
655.712	1	0
655.881	1	-2
656.051	1	6
656.220	1	13
656.390	1	7
656.559	1	9
656.729	1	-1
656.898	1	3
657.068	1	18
657.237	1	13
657.406	1	5
657.576	1	3
657.745	1	0
657.915	1	-7
658.084	1	-1
658.254	1	0
658.423	1	1
658.593	1	-1
658.762	1	5
658.932	1	11
659.101	1	8
659.271	1	2
659.440	1	8
659.610	1	15
659.779	1	1
659.949	1	3
660.118	1	3
660.288	1	11
660.457	1	-2
660.626	1	-6
660.796	1	17
660.965	1	21
661.135	1	0
661.304	1	1
661.474	1	5
661.643	1	1
661.813	1	-1
661.982	1	-5
662.152	1	2
662.321	1	-1
662.491	1	13
662.660	1	3
662.829	1	7
662.999	1	7
663.168	1	5
663.338	1	8
663.507	1	-4
663.677	1	9
663.846	1	9
664.016	1	-2
664.185	1	16
664.354	1	4
664.524	1	-9
664.693	1	10
664.863	1	12
665.032	1	10
665.202	1	0
665.371	1	2
665.541	1	9
665.710	1	7
665.879	1	5
666.049	1	8
666.218	1	12
666.388	1	1
666.557	1	0
666.727	1	-1
666.896	1	2
667.065	1	2
667.235	1	6
667.404	1	7
667.574	1	15
667.743	1	5
667.913	1	0
668.082	1	7
668.251	1	6
668.421	1	-6
668.590	1	7
668.760	1	-5
668.929	1	11
669.099	1	7
669.268	1	4
669.437	1	-8
669.607	1	8
669.776	1	-3
669.946	1	0
670.115	1	2
670.285	1	4
670.454	1	-1
670.623	1	8
670.793	1	0
670.962	1	9
671.132	1	-6
671.301	1	1
671.470	1	-3
671.640	1	0
671.809	1	22
671.979	1	4
672.148	1	10
672.317	1	5
672.487	1	19
672.656	1	12
672.826	1	12
672.995	1	-1
673.164	1	8
673.334	1	-5
673.503	1	0
673.673	1	2
673.842	1	5
674.011	1	2
674.181	1	-10
674.350	1	-2
674.520	1	2
674.689	1	0
674.858	1	4
675.028	1	14
675.197	1	7
675.367	1	11
675.536	1	-2
675.705	1	11
675.875	1	10
676.044	1	3
676.214	1	9
676.383	1	7
676.552	1	3
676.722	1	10
676.891	1	2
677.060	1	-4
677.230	1	4
677.399	1	-3
677.569	1	0
677.738	1	-13
677.907	1	3
678.077	1	1
678.246	1	6
678.416	1	2
678.585	1	-1
678.754	1	3
678.924	1	-2
679.093	1	10
679.262	1	2
679.432	1	-2
679.601	1	-2
679.771	1	-1
679.940	1	7
680.109	1	5
680.279	1	-7
680.448	1	1
680.617	1	8
680.787	1	7
680.956	1	18
681.125	1	-2
681.295	1	0
681.464	1	5
681.634	1	11
681.803	1	5
681.972	1	7
682.142	1	5
682.311	1	4
682.480	1	10
682.650	1	14
682.819	1	0
682.988	1	11
683.158	1	3
683.327	1	-4
683.496	1	6
683.666	1	-1
683.835	1	1
684.004	1	4
684.174	1	-1
684.343	1	-5
684.512	1	14
684.682	1	8
684.851	1	10
685.021	1	5
685.190	1	5
685.359	1	14
685.529	1	10
685.698	1	8
685.867	1	8
686.037	1	12
686.206	1	3
686.375	1	18
686.545	1	4
686.714	1	7
686.883	1	-4
687.053	1	5
687.222	1	13
687.391	1	10
687.561	1	1
687.730	1	9
687.899	1	-3
688.069	1	11
688.238	1	11
688.407	1	8
688.577	1	9
688.746	1	-2
