340.368	1	2
340.539	1	4
340.710	1	5
340.881	1	3
341.052	1	-4
341.223	1	9
341.394	1	2
341.565	1	-9
341.737	1	3
341.908	1	0
342.079	1	4
342.250	1	-9
342.421	1	6
342.592	1	6
342.763	1	-9
342.934	1	0
343.105	1	-3
343.276	1	3
343.447	1	-1
343.618	1	-5
343.789	1	5
343.960	1	7
344.131	1	1
344.302	1	4
344.473	1	12
344.644	1	10
344.815	1	2
344.986	1	7
345.157	1	6
345.328	1	8
345.499	1	14
345.670	1	-3
345.841	1	4
346.012	1	-4
346.183	1	-2
346.354	1	-3
346.526	1	6
346.697	1	-4
346.868	1	10
347.039	1	4
347.210	1	0
347.381	1	14
347.552	1	4
347.723	1	9
347.894	1	-5
348.065	1	3
348.236	1	6
348.407	1	3
348.578	1	3
348.749	1	8
348.920	1	10
349.091	1	8
349.262	1	12
349.433	1	6
349.604	1	-3
349.775	1	-4
349.946	1	13
350.117	1	8
350.288	1	4
350.459	1	-1
350.630	1	-3
350.801	1	8
350.972	1	11
351.143	1	20
351.314	1	-1
351.485	1	8
351.656	1	7
351.827	1	8
351.998	1	14
352.169	1	7
352.340	1	18
352.511	1	6
352.682	1	7
352.853	1	10
353.024	1	12
353.195	1	16
353.366	1	11
353.537	1	13
353.708	1	11
353.879	1	3
354.050	1	9
354.221	1	8
354.392	1	-1
354.563	1	-3
354.734	1	7
354.905	1	13
355.076	1	4
355.247	1	3
355.418	1	8
355.589	1	5
355.760	1	16
355.931	1	8
356.102	1	12
356.273	1	10
356.444	1	10
356.615	1	8
356.785	1	16
356.956	1	10
357.127	1	17
357.298	1	12
357.469	1	8
357.640	1	14
357.811	1	18
357.982	1	16
358.153	1	4
358.324	1	13
358.495	1	15
358.666	1	22
358.837	1	20
359.008	1	20
359.179	1	15
359.350	1	8
359.521	1	23
359.692	1	17
359.863	1	19
360.034	1	21
360.205	1	18
360.376	1	23
360.547	1	30
360.718	1	11
360.889	1	35
361.060	1	31
361.231	1	18
361.401	1	23
361.572	1	41
361.743	1	20
361.914	1	30
362.085	1	33
362.256	1	29
362.427	1	24
362.598	1	34
362.769	1	43
362.940	1	26
363.111	1	31
363.282	1	32
363.453	1	36
363.624	1	43
363.795	1	37
363.966	1	45
364.137	1	32
364.308	1	43
364.478	1	33
364.649	1	39
364.820	1	43
364.991	1	48
365.162	1	46
365.333	1	43
365.504	1	53
365.675	1	53
365.846	1	43
366.017	1	59
366.188	1	62
366.359	1	64
366.530	1	55
366.701	1	69
366.871	1	59
367.042	1	57
367.213	1	59
367.384	1	73
367.555	1	60
367.726	1	66
367.897	1	76
368.068	1	65
368.239	1	67
368.410	1	78
368.581	1	85
368.752	1	85
368.923	1	80
369.093	1	69
369.264	1	75
369.435	1	82
369.606	1	87
369.777	1	94
369.948	1	91
370.119	1	99
370.290	1	90
370.461	1	105
370.632	1	104
370.803	1	100
370.973	1	97
371.144	1	93
371.315	1	104
371.486	1	96
371.657	1	111
371.828	1	102
371.999	1	129
372.170	1	116
372.341	1	117
372.512	1	112
372.682	1	118
372.853	1	102
373.024	1	113
373.195	1	109
373.366	1	118
373.537	1	110
373.708	1	121
373.879	1	122
374.050	1	130
374.220	1	116
374.391	1	110
374.562	1	112
374.733	1	106
374.904	1	117
375.075	1	116
375.246	1	109
375.417	1	134
375.588	1	110
375.758	1	107
375.929	1	112
376.100	1	102
376.271	1	110
376.442	1	99
376.613	1	100
376.784	1	100
376.955	1	89
377.125	1	88
377.296	1	105
377.467	1	88
377.638	1	96
377.809	1	103
377.980	1	85
378.151	1	95
378.321	1	95
378.492	1	98
378.663	1	76
378.834	1	89
379.005	1	81
379.176	1	89
379.347	1	71
379.518	1	73
379.688	1	86
379.859	1	83
380.030	1	73
380.201	1	81
380.372	1	67
380.543	1	74
380.714	1	75
380.884	1	80
381.055	1	61
381.226	1	68
381.397	1	63
381.568	1	54
381.739	1	62
381.910	1	51
382.080	1	64
382.251	1	58
382.422	1	69
382.593	1	67
382.764	1	47
382.935	1	62
383.105	1	63
383.276	1	51
383.447	1	56
383.618	1	51
383.789	1	67
383.960	1	48
384.130	1	55
384.301	1	46
384.472	1	44
384.643	1	50
384.814	1	44
384.985	1	42
385.156	1	53
385.326	1	45
385.497	1	43
385.668	1	53
385.839	1	46
386.010	1	58
386.180	1	39
386.351	1	47
386.522	1	34
386.693	1	39
386.864	1	41
387.035	1	46
387.205	1	38
387.376	1	37
387.547	1	30
387.718	1	46
387.889	1	46
388.060	1	41
388.230	1	31
388.401	1	33
388.572	1	30
388.743	1	29
388.914	1	38
389.084	1	34
389.255	1	31
389.426	1	28
389.597	1	30
389.768	1	37
389.939	1	33
390.109	1	27
390.280	1	32
390.451	1	32
390.622	1	27
390.793	1	28
390.963	1	21
391.134	1	29
391.305	1	30
391.476	1	30
391.647	1	29
391.817	1	28
391.988	1	34
392.159	1	26
392.330	1	23
392.501	1	21
392.671	1	19
392.842	1	20
393.013	1	27
393.184	1	24
393.355	1	23
393.525	1	21
393.696	1	17
393.867	1	16
394.038	1	18
394.208	1	27
394.379	1	17
394.550	1	9
394.721	1	31
394.892	1	32
395.062	1	14
395.233	1	12
395.404	1	19
395.575	1	13
395.746	1	12
395.916	1	27
396.087	1	18
396.258	1	8
396.429	1	15
396.599	1	6
396.770	1	16
396.941	1	11
397.112	1	22
397.283	1	21
397.453	1	18
397.624	1	28
397.795	1	16
397.966	1	20
398.136	1	21
398.307	1	18
398.478	1	16
398.649	1	13
398.819	1	12
398.990	1	14
399.161	1	20
399.332	1	10
399.503	1	10
399.673	1	14
399.844	1	7
400.015	1	10
400.186	1	5
400.356	1	10
400.527	1	11
400.698	1	17
400.869	1	10
401.039	1	17
401.210	1	20
401.381	1	14
401.552	1	7
401.722	1	7
401.893	1	9
402.064	1	10
402.235	1	11
402.405	1	20
402.576	1	19
402.747	1	9
402.918	1	18
403.088	1	5
403.259	1	4
403.430	1	13
403.601	1	16
403.771	1	17
403.942	1	2
404.113	1	2
404.284	1	16
404.454	1	8
404.625	1	13
404.796	1	2
404.967	1	8
405.137	1	-1
405.308	1	9
405.479	1	10
405.649	1	11
405.820	1	13
405.991	1	10
406.162	1	13
406.332	1	12
406.503	1	4
406.674	1	22
406.845	1	3
407.015	1	9
407.186	1	-4
407.357	1	15
407.527	1	11
407.698	1	4
407.869	1	13
408.040	1	4
408.210	1	12
408.381	1	2
408.552	1	15
408.722	1	-3
408.893	1	8
409.064	1	12
409.235	1	4
409.405	1	-3
409.576	1	6
409.747	1	9
409.917	1	-1
410.088	1	7
410.259	1	0
410.430	1	7
410.600	1	8
410.771	1	9
410.942	1	7
411.112	1	17
411.283	1	9
411.454	1	10
411.625	1	0
411.795	1	3
411.966	1	10
412.137	1	12
412.307	1	-5
412.478	1	5
412.649	1	11
412.819	1	10
412.990	1	2
413.161	1	6
413.332	1	11
413.502	1	2
413.673	1	4
413.844	1	9
414.014	1	16
414.185	1	1
414.356	1	10
414.526	1	14
414.697	1	7
414.868	1	13
415.038	1	3
415.209	1	10
415.380	1	0
415.550	1	-1
415.721	1	-3
415.892	1	7
416.063	1	11
416.233	1	3
416.404	1	4
416.575	1	15
416.745	1	8
416.916	1	-4
417.087	1	12
417.257	1	8
417.428	1	10
417.599	1	17
417.769	1	11
417.940	1	2
418.111	1	9
418.281	1	4
418.452	1	5
418.623	1	-2
418.793	1	8
418.964	1	16
419.135	1	8
419.305	1	3
419.476	1	7
419.647	1	0
419.817	1	-11
419.988	1	7
420.159	1	7
420.329	1	11
420.500	1	-5
420.671	1	7
420.841	1	6
421.012	1	17
421.183	1	11
421.353	1	3
421.524	1	-5
421.695	1	5
421.865	1	7
422.036	1	14
422.206	1	4
422.377	1	10
422.548	1	6
422.718	1	5
422.889	1	-7
423.060	1	0
423.230	1	-1
423.401	1	16
423.572	1	11
423.742	1	10
423.913	1	3
424.084	1	8
424.254	1	1
424.425	1	1
424.595	1	3
424.766	1	0
424.937	1	6
425.107	1	-3
425.278	1	14
425.449	1	7
425.619	1	10
425.790	1	1
425.961	1	2
426.131	1	-1
426.302	1	11
426.472	1	6
426.643	1	11
426.814	1	12
426.984	1	2
427.155	1	6
427.326	1	12
427.496	1	11
427.667	1	13
427.837	1	5
428.008	1	4
428.179	1	-7
428.349	1	7
428.520	1	3
428.691	1	7
428.861	1	11
429.032	1	6
429.202	1	6
429.373	1	-2
429.544	1	7
429.714	1	7
429.885	1	9
430.055	1	12
430.226	1	7
430.397	1	4
430.567	1	19
430.738	1	8
430.909	1	9
431.079	1	6
431.250	1	2
431.420	1	9
431.591	1	2
431.762	1	-1
431.932	1	13
432.103	1	18
432.273	1	10
432.444	1	3
432.615	1	5
432.785	1	7
432.956	1	28
433.126	1	16
433.297	1	3
433.468	1	-7
433.638	1	-2
433.809	1	1
433.979	1	5
434.150	1	13
434.320	1	4
434.491	1	1
434.662	1	6
434.832	1	5
435.003	1	-1
435.173	1	3
435.344	1	5
435.515	1	10
435.685	1	2
435.856	1	7
436.026	1	11
436.197	1	17
436.368	1	-2
436.538	1	7
436.709	1	5
436.879	1	-9
437.050	1	11
437.220	1	13
437.391	1	13
437.562	1	-2
437.732	1	0
437.903	1	2
438.073	1	-5
438.244	1	11
438.414	1	13
438.585	1	6
438.756	1	10
438.926	1	8
439.097	1	-5
439.267	1	2
439.438	1	10
439.608	1	10
439.779	1	11
439.949	1	3
440.120	1	4
440.291	1	11
440.461	1	-1
440.632	1	16
440.802	1	13
440.973	1	-2
441.143	1	-2
441.314	1	8
441.485	1	4
441.655	1	4
441.826	1	3
441.996	1	2
442.167	1	0
442.337	1	4
442.508	1	14
442.678	1	9
442.849	1	10
443.019	1	8
443.190	1	15
443.361	1	4
443.531	1	6
443.702	1	11
443.872	1	10
444.043	1	4
444.213	1	12
444.384	1	6
444.554	1	-4
444.725	1	2
444.895	1	4
445.066	1	0
445.237	1	10
445.407	1	15
445.578	1	14
445.748	1	7
445.919	1	8
446.089	1	10
446.260	1	5
446.430	1	8
446.601	1	7
446.771	1	8
446.942	1	14
447.112	1	-4
447.283	1	12
447.453	1	0
447.624	1	3
447.794	1	8
447.965	1	1
448.135	1	2
448.306	1	11
448.477	1	11
448.647	1	8
448.818	1	0
448.988	1	-1
449.159	1	-2
449.329	1	20
449.500	1	5
449.670	1	8
449.841	1	4
450.011	1	12
450.182	1	11
450.352	1	8
450.523	1	8
450.693	1	6
450.864	1	2
451.034	1	9
451.205	1	4
451.375	1	-11
451.546	1	15
451.716	1	0
451.887	1	6
452.057	1	1
452.228	1	9
452.398	1	2
452.569	1	8
452.739	1	18
452.910	1	3
453.080	1	21
453.251	1	8
453.421	1	-6
453.592	1	9
453.762	1	10
453.933	1	8
454.103	1	11
454.274	1	2
454.444	1	5
454.615	1	-1
454.785	1	7
454.956	1	2
455.126	1	5
455.297	1	0
455.467	1	3
455.638	1	-2
455.808	1	9
455.979	1	7
456.149	1	2
456.320	1	0
456.490	1	11
456.661	1	3
456.831	1	7
457.001	1	13
457.172	1	8
457.342	1	2
457.513	1	4
457.683	1	11
457.854	1	7
458.024	1	-4
458.195	1	0
458.365	1	9
458.536	1	-7
458.706	1	4
458.877	1	3
459.047	1	2
459.218	1	1
459.388	1	9
459.559	1	6
459.729	1	4
459.899	1	1
460.070	1	16
460.240	1	10
460.411	1	14
460.581	1	5
460.752	1	-5
460.922	1	9
461.093	1	4
461.263	1	5
461.434	1	8
461.604	1	6
461.775	1	7
461.945	1	1
462.115	1	4
462.286	1	16
462.456	1	12
462.627	1	3
462.797	1	-1
462.968	1	6
463.138	1	2
463.309	1	4
463.479	1	7
463.649	1	6
463.820	1	-8
463.990	1	3
464.161	1	-1
464.331	1	10
464.502	1	10
464.672	1	6
464.843	1	0
465.013	1	16
465.183	1	-1
465.354	1	-6
465.524	1	7
465.695	1	6
465.865	1	5
466.036	1	6
466.206	1	8
466.376	1	8
466.547	1	0
466.717	1	-13
466.888	1	5
467.058	1	-7
467.229	1	14
467.399	1	12
467.569	1	16
467.740	1	-14
467.910	1	-5
468.081	1	4
468.251	1	11
468.422	1	1
468.592	1	8
468.762	1	9
468.933	1	14
469.103	1	-4
469.274	1	9
469.444	1	10
469.614	1	2
469.785	1	-4
469.955	1	-8
470.126	1	7
470.296	1	3
470.467	1	6
470.637	1	6
470.807	1	13
470.978	1	3
471.148	1	10
471.319	1	-1
471.489	1	13
471.659	1	8
471.830	1	9
472.000	1	0
472.171	1	8
472.341	1	-5
472.511	1	5
472.682	1	17
472.852	1	8
473.023	1	2
473.193	1	-1
473.363	1	2
473.534	1	0
473.704	1	4
473.875	1	14
474.045	1	11
474.215	1	11
474.386	1	4
474.556	1	14
474.727	1	9
474.897	1	7
475.067	1	5
475.238	1	7
475.408	1	13
475.578	1	6
475.749	1	13
475.919	1	8
476.090	1	4
476.260	1	-2
476.430	1	-3
476.601	1	1
476.771	1	7
476.942	1	2
477.112	1	2
477.282	1	3
477.453	1	6
477.623	1	5
477.793	1	3
477.964	1	1
478.134	1	8
478.305	1	-1
478.475	1	1
478.645	1	10
478.816	1	14
478.986	1	-1
479.156	1	5
479.327	1	-9
479.497	1	-1
479.667	1	-1
479.838	1	8
480.008	1	3
480.179	1	7
480.349	1	9
480.519	1	1
480.690	1	4
480.860	1	2
481.030	1	-5
481.201	1	2
481.371	1	3
481.541	1	0
481.712	1	9
481.882	1	4
482.053	1	9
482.223	1	5
482.393	1	7
482.564	1	6
482.734	1	7
482.904	1	-2
483.075	1	8
483.245	1	6
483.415	1	6
483.586	1	3
483.756	1	12
483.926	1	8
484.097	1	8
484.267	1	-1
484.437	1	9
484.608	1	2
484.778	1	10
484.948	1	5
485.119	1	4
485.289	1	-11
485.459	1	5
485.630	1	7
485.800	1	-2
485.970	1	-7
486.141	1	-5
486.311	1	1
486.481	1	-3
486.652	1	9
486.822	1	10
486.992	1	9
487.163	1	5
487.333	1	1
487.503	1	7
487.674	1	3
487.844	1	7
488.014	1	-6
488.185	1	14
488.355	1	5
488.525	1	6
488.696	1	9
488.866	1	-5
489.036	1	0
489.207	1	5
489.377	1	4
489.547	1	8
489.718	1	2
489.888	1	12
490.058	1	7
490.228	1	9
490.399	1	2
490.569	1	0
490.739	1	10
490.910	1	4
491.080	1	3
491.250	1	-3
491.421	1	1
491.591	1	11
491.761	1	11
491.932	1	8
492.102	1	2
492.272	1	-2
492.442	1	-2
492.613	1	0
492.783	1	8
492.953	1	17
493.124	1	6
493.294	1	9
493.464	1	14
493.635	1	3
493.805	1	6
493.975	1	2
494.145	1	6
494.316	1	2
494.486	1	6
494.656	1	9
494.827	1	-3
494.997	1	-6
495.167	1	5
495.337	1	15
495.508	1	5
495.678	1	11
495.848	1	5
496.019	1	0
496.189	1	10
496.359	1	5
496.529	1	8
496.700	1	2
496.870	1	-2
497.040	1	2
497.211	1	4
497.381	1	2
497.551	1	6
497.721	1	14
497.892	1	8
498.062	1	17
498.232	1	2
498.403	1	12
498.573	1	4
498.743	1	14
498.913	1	5
499.084	1	-5
499.254	1	1
499.424	1	14
499.594	1	6
499.765	1	5
499.935	1	19
500.105	1	0
500.275	1	-9
500.446	1	8
500.616	1	0
500.786	1	9
500.956	1	7
501.127	1	0
501.297	1	15
501.467	1	-2
501.638	1	-8
501.808	1	-4
501.978	1	-1
502.148	1	8
502.319	1	1
502.489	1	-3
502.659	1	1
502.829	1	10
503.000	1	8
503.170	1	2
503.340	1	6
503.510	1	-3
503.681	1	3
503.851	1	-2
504.021	1	12
504.191	1	5
504.362	1	0
504.532	1	0
504.702	1	9
504.872	1	0
505.042	1	3
505.213	1	3
505.383	1	0
505.553	1	2
505.723	1	9
505.894	1	10
506.064	1	8
506.234	1	9
506.404	1	4
506.575	1	-1
506.745	1	0
506.915	1	7
507.085	1	12
507.256	1	-8
507.426	1	4
507.596	1	1
507.766	1	15
507.936	1	-6
508.107	1	7
508.277	1	-4
508.447	1	7
508.617	1	12
508.788	1	-6
508.958	1	9
509.128	1	4
509.298	1	-1
509.468	1	1
509.639	1	4
509.809	1	9
509.979	1	7
510.149	1	3
510.319	1	-3
510.490	1	7
510.660	1	3
510.830	1	5
511.000	1	9
511.171	1	-12
511.341	1	1
511.511	1	16
511.681	1	11
511.851	1	-2
512.022	1	4
512.192	1	5
512.362	1	15
512.532	1	8
512.702	1	6
512.873	1	3
513.043	1	7
513.213	1	4
513.383	1	4
513.553	1	-11
513.724	1	10
513.894	1	3
514.064	1	0
514.234	1	8
514.404	1	12
514.575	1	4
514.745	1	-1
514.915	1	-13
515.085	1	4
515.255	1	7
515.425	1	3
515.596	1	-4
515.766	1	11
515.936	1	20
516.106	1	6
516.276	1	6
516.447	1	-3
516.617	1	3
516.787	1	-5
516.957	1	12
517.127	1	1
517.297	1	12
517.468	1	13
517.638	1	3
517.808	1	7
517.978	1	11
518.148	1	10
518.319	1	13
518.489	1	6
518.659	1	6
518.829	1	10
518.999	1	-10
519.169	1	-1
519.340	1	5
519.510	1	-7
519.680	1	7
519.850	1	-2
520.020	1	7
520.190	1	7
520.361	1	9
520.531	1	-6
520.701	1	9
520.871	1	-8
521.041	1	4
521.211	1	6
521.382	1	2
521.552	1	3
521.722	1	20
521.892	1	0
522.062	1	4
522.232	1	4
522.402	1	3
522.573	1	12
522.743	1	7
522.913	1	-5
523.083	1	-3
523.253	1	8
523.423	1	13
523.593	1	-2
523.764	1	7
523.934	1	-1
524.104	1	6
524.274	1	7
524.444	1	10
524.614	1	1
524.784	1	13
524.955	1	14
525.125	1	3
525.295	1	15
525.465	1	0
525.635	1	2
525.805	1	-8
525.975	1	7
526.146	1	13
526.316	1	-6
526.486	1	3
526.656	1	1
526.826	1	-1
526.996	1	7
527.166	1	9
527.337	1	13
527.507	1	-6
527.677	1	8
527.847	1	-3
528.017	1	-10
528.187	1	4
528.357	1	4
528.527	1	-4
528.698	1	-5
528.868	1	5
529.038	1	0
529.208	1	18
529.378	1	-2
529.548	1	-5
529.718	1	5
529.888	1	8
530.058	1	7
530.229	1	9
530.399	1	10
530.569	1	-3
530.739	1	11
530.909	1	6
531.079	1	-8
531.249	1	6
531.419	1	9
531.589	1	-2
531.760	1	-1
531.930	1	5
532.100	1	-8
532.270	1	1
532.440	1	7
532.610	1	12
532.780	1	4
532.950	1	-4
533.120	1	18
533.290	1	3
533.461	1	-5
533.631	1	6
533.801	1	-4
533.971	1	3
534.141	1	-3
534.311	1	10
534.481	1	0
534.651	1	2
534.821	1	2
534.991	1	1
535.162	1	10
535.332	1	-5
535.502	1	3
535.672	1	6
535.842	1	4
536.012	1	7
536.182	1	11
536.352	1	9
536.522	1	2
536.692	1	2
536.862	1	8
537.032	1	13
537.203	1	4
537.373	1	12
537.543	1	8
537.713	1	0
537.883	1	3
538.053	1	-2
538.223	1	7
538.393	1	1
538.563	1	3
538.733	1	10
538.903	1	-9
539.073	1	-4
539.243	1	-9
539.413	1	0
539.584	1	6
539.754	1	0
539.924	1	9
540.094	1	-8
540.264	1	-1
540.434	1	-2
540.604	1	14
540.774	1	15
540.944	1	7
541.114	1	2
541.284	1	-1
541.454	1	-6
541.624	1	-2
541.794	1	12
541.964	1	13
542.134	1	1
542.305	1	8
542.475	1	15
542.645	1	2
542.815	1	14
542.985	1	8
543.155	1	-4
543.325	1	0
543.495	1	14
543.665	1	9
543.835	1	9
544.005	1	-5
544.175	1	-7
544.345	1	9
544.515	1	4
544.685	1	-2
544.855	1	11
545.025	1	7
545.195	1	6
545.365	1	5
545.535	1	9
545.705	1	4
545.875	1	4
546.045	1	8
546.216	1	1
546.386	1	0
546.556	1	16
546.726	1	6
546.896	1	15
547.066	1	1
547.236	1	2
547.406	1	-3
547.576	1	10
547.746	1	9
547.916	1	0
548.086	1	8
548.256	1	-1
548.426	1	4
548.596	1	1
548.766	1	9
548.936	1	-4
549.106	1	10
549.276	1	10
549.446	1	1
549.616	1	2
549.786	1	20
549.956	1	9
550.126	1	11
550.296	1	9
550.466	1	-3
550.636	1	1
550.806	1	0
550.976	1	-1
551.146	1	5
551.316	1	9
551.486	1	-3
551.656	1	7
551.826	1	0
551.996	1	11
552.166	1	3
552.336	1	5
552.506	1	4
552.676	1	11
552.846	1	7
553.016	1	18
553.186	1	4
553.356	1	1
553.526	1	5
553.696	1	15
553.866	1	6
554.036	1	1
554.206	1	7
554.376	1	6
554.546	1	17
554.716	1	-3
554.886	1	13
555.056	1	7
555.226	1	8
555.396	1	4
555.566	1	16
555.736	1	-3
555.906	1	6
556.076	1	11
556.246	1	11
556.416	1	4
556.586	1	1
556.756	1	11
556.926	1	8
557.096	1	10
557.266	1	4
557.436	1	0
557.606	1	6
557.776	1	6
557.946	1	0
558.116	1	11
558.286	1	-1
558.456	1	7
558.626	1	14
558.796	1	2
558.966	1	13
559.136	1	13
559.306	1	1
559.476	1	9
559.646	1	2
559.816	1	0
559.986	1	6
560.155	1	2
560.325	1	8
560.495	1	10
560.665	1	-3
560.835	1	2
561.005	1	2
561.175	1	9
561.345	1	-8
561.515	1	2
561.685	1	3
561.855	1	-1
562.025	1	-5
562.195	1	11
562.365	1	-5
562.535	1	3
562.705	1	11
562.875	1	8
563.045	1	6
563.215	1	0
563.385	1	6
563.555	1	8
563.725	1	-2
563.895	1	14
564.064	1	23
564.234	1	9
564.404	1	-7
564.574	1	12
564.744	1	-1
564.914	1	-3
565.084	1	0
565.254	1	14
565.424	1	-8
565.594	1	10
565.764	1	6
565.934	1	6
566.104	1	-3
566.274	1	0
566.444	1	7
566.614	1	-7
566.783	1	2
566.953	1	2
567.123	1	-3
567.293	1	2
567.463	1	10
567.633	1	10
567.803	1	0
567.973	1	4
568.143	1	3
568.313	1	5
568.483	1	-1
568.653	1	-1
568.823	1	4
568.993	1	13
569.162	1	10
569.332	1	0
569.502	1	12
569.672	1	8
569.842	1	4
570.012	1	-4
570.182	1	-7
570.352	1	2
570.522	1	3
570.692	1	3
570.862	1	17
571.031	1	5
571.201	1	5
571.371	1	0
571.541	1	-1
571.711	1	-8
571.881	1	4
572.051	1	6
572.221	1	-4
572.391	1	-6
572.561	1	11
572.731	1	-4
572.900	1	4
573.070	1	-7
573.240	1	18
573.410	1	4
573.580	1	10
573.750	1	9
573.920	1	1
574.090	1	5
574.260	1	5
574.430	1	6
574.599	1	4
574.769	1	9
574.939	1	9
575.109	1	4
575.279	1	-4
575.449	1	3
575.619	1	3
575.789	1	-3
575.959	1	5
576.128	1	2
576.298	1	1
576.468	1	2
576.638	1	-2
576.808	1	8
576.978	1	0
577.148	1	2
577.318	1	2
577.487	1	-2
577.657	1	8
577.827	1	11
577.997	1	7
578.167	1	8
578.337	1	-9
578.507	1	8
578.677	1	-4
578.846	1	15
579.016	1	1
579.186	1	13
579.356	1	8
579.526	1	13
579.696	1	2
579.866	1	13
580.036	1	12
580.205	1	9
580.375	1	5
580.545	1	9
580.715	1	11
580.885	1	7
581.055	1	1
581.225	1	6
581.394	1	-3
581.564	1	2
581.734	1	-1
581.904	1	2
582.074	1	13
582.244	1	6
582.414	1	16
582.583	1	10
582.753	1	2
582.923	1	5
583.093	1	12
583.263	1	6
583.433	1	-4
583.603	1	8
583.772	1	17
583.942	1	5
584.112	1	7
584.282	1	1
584.452	1	7
584.622	1	9
584.791	1	1
584.961	1	8
585.131	1	14
585.301	1	2
585.471	1	7
585.641	1	1
585.811	1	7
585.980	1	8
586.150	1	9
586.320	1	5
586.490	1	4
586.660	1	6
586.830	1	11
586.999	1	-2
587.169	1	0
587.339	1	4
587.509	1	13
587.679	1	4
587.849	1	12
588.018	1	-1
588.188	1	5
588.358	1	8
588.528	1	1
588.698	1	0
588.867	1	3
589.037	1	12
589.207	1	-4
589.377	1	13
589.547	1	6
589.717	1	5
589.886	1	2
590.056	1	2
590.226	1	4
590.396	1	5
590.566	1	-6
590.735	1	3
590.905	1	6
591.075	1	5
591.245	1	13
591.415	1	-1
591.585	1	-1
591.754	1	-5
591.924	1	-5
592.094	1	3
592.264	1	9
592.434	1	-1
592.603	1	15
592.773	1	18
592.943	1	-1
593.113	1	-9
593.283	1	11
593.452	1	10
593.622	1	8
593.792	1	2
593.962	1	9
594.132	1	9
594.301	1	9
594.471	1	10
594.641	1	9
594.811	1	2
594.981	1	-6
595.150	1	-4
595.320	1	-3
595.490	1	-2
595.660	1	1
595.829	1	14
595.999	1	-3
596.169	1	-3
596.339	1	3
596.509	1	-5
596.678	1	1
596.848	1	5
597.018	1	1
597.188	1	-6
597.358	1	4
597.527	1	12
597.697	1	2
597.867	1	2
598.037	1	-2
598.206	1	2
598.376	1	9
598.546	1	9
598.716	1	-1
598.885	1	5
599.055	1	10
599.225	1	4
599.395	1	5
599.565	1	4
599.734	1	1
599.904	1	15
600.074	1	7
600.244	1	4
600.413	1	-4
600.583	1	0
600.753	1	6
600.923	1	9
601.092	1	0
601.262	1	-4
601.432	1	12
601.602	1	6
601.771	1	5
601.941	1	12
602.111	1	3
602.281	1	12
602.451	1	4
602.620	1	6
602.790	1	1
602.960	1	-1
603.130	1	2
603.299	1	4
603.469	1	2
603.639	1	4
603.809	1	6
603.978	1	1
604.148	1	-1
604.318	1	3
604.487	1	-2
604.657	1	5
604.827	1	6
604.997	1	-1
605.166	1	2
605.336	1	-2
605.506	1	-4
605.676	1	0
605.845	1	3
606.015	1	-1
606.185	1	4
606.355	1	7
606.524	1	13
606.694	1	0
606.864	1	2
607.034	1	7
607.203	1	8
607.373	1	1
607.543	1	-2
607.712	1	3
607.882	1	-6
608.052	1	7
608.222	1	1
608.391	1	1
608.561	1	10
608.731	1	8
608.901	1	4
609.070	1	11
609.240	1	10
609.410	1	-3
609.579	1	-4
609.749	1	-5
609.919	1	8
610.089	1	10
610.258	1	6
610.428	1	-4
610.598	1	10
610.767	1	5
610.937	1	9
611.107	1	0
611.277	1	6
611.446	1	2
611.616	1	-5
611.786	1	8
611.955	1	10
612.125	1	1
612.295	1	12
612.465	1	-7
612.634	1	0
612.804	1	5
612.974	1	-3
613.143	1	1
613.313	1	5
613.483	1	3
613.652	1	14
613.822	1	-3
613.992	1	12
614.162	1	7
614.331	1	0
614.501	1	3
614.671	1	12
614.840	1	0
615.010	1	3
615.180	1	6
615.349	1	5
615.519	1	2
615.689	1	20
615.858	1	5
616.028	1	-5
616.198	1	9
616.368	1	2
616.537	1	-9
616.707	1	8
616.877	1	10
617.046	1	2
617.216	1	3
617.386	1	8
617.555	1	-1
617.725	1	5
617.895	1	5
618.064	1	-2
618.234	1	-4
618.404	1	4
618.573	1	20
618.743	1	6
618.913	1	12
619.082	1	9
619.252	1	10
619.422	1	-2
619.591	1	1
619.761	1	-2
619.931	1	4
620.100	1	-2
620.270	1	1
620.440	1	2
620.609	1	5
620.779	1	6
620.949	1	13
621.118	1	-3
621.288	1	7
621.458	1	4
621.627	1	10
621.797	1	5
621.967	1	9
622.136	1	5
622.306	1	4
622.476	1	-3
622.645	1	9
622.815	1	-1
622.985	1	3
623.154	1	1
623.324	1	6
623.494	1	6
623.663	1	8
623.833	1	11
624.002	1	-14
624.172	1	4
624.342	1	-5
624.511	1	7
624.681	1	4
624.851	1	5
625.020	1	-5
625.190	1	15
625.360	1	-4
625.529	1	4
625.699	1	-1
625.869	1	8
626.038	1	-5
626.208	1	8
626.377	1	8
626.547	1	4
626.717	1	3
626.886	1	10
627.056	1	-1
627.226	1	-5
627.395	1	1
627.565	1	11
627.735	1	5
627.904	1	0
628.074	1	4
628.243	1	2
628.413	1	4
628.583	1	-15
628.752	1	10
628.922	1	-7
629.091	1	9
629.261	1	1
629.431	1	13
629.600	1	18
629.770	1	-11
629.940	1	-8
630.109	1	4
630.279	1	-5
630.448	1	3
630.618	1	13
630.788	1	5
630.957	1	8
631.127	1	17
631.297	1	-1
631.466	1	3
631.636	1	-6
631.805	1	16
631.975	1	11
632.145	1	11
632.314	1	7
632.484	1	-2
632.653	1	-7
632.823	1	-1
632.993	1	10
633.162	1	-5
633.332	1	-5
633.501	1	2
633.671	1	-2
633.841	1	16
634.010	1	17
634.180	1	12
634.349	1	3
634.519	1	-5
634.689	1	-4
634.858	1	-8
635.028	1	19
635.197	1	4
635.367	1	3
635.537	1	7
635.706	1	15
635.876	1	16
636.045	1	3
636.215	1	7
636.384	1	10
636.554	1	3
636.724	1	-4
636.893	1	-1
637.063	1	9
637.232	1	-6
637.402	1	7
637.572	1	5
637.741	1	-1
637.911	1	-6
638.080	1	2
638.250	1	2
638.419	1	4
638.589	1	3
638.759	1	2
638.928	1	0
639.098	1	0
639.267	1	2
639.437	1	0
639.606	1	11
639.776	1	-1
639.946	1	3
640.115	1	3
640.285	1	5
640.454	1	1
640.624	1	12
640.793	1	12
640.963	1	6
641.132	1	-3
641.302	1	14
641.472	1	0
641.641	1	8
641.811	1	1
641.980	1	-3
642.150	1	11
642.319	1	8
642.489	1	12
642.659	1	8
642.828	1	2
642.998	1	-4
643.167	1	6
643.337	1	-1
643.506	1	7
643.676	1	5
643.845	1	-3
644.015	1	7
644.184	1	16
644.354	1	9
644.524	1	-4
644.693	1	4
644.863	1	11
645.032	1	6
645.202	1	2
645.371	1	15
645.541	1	11
645.710	1	8
645.880	1	2
646.049	1	9
646.219	1	4
646.388	1	9
646.558	1	1
646.728	1	9
646.897	1	-6
647.067	1	-2
647.236	1	3
647.406	1	2
647.575	1	7
647.745	1	1
647.914	1	2
648.084	1	-3
648.253	1	2
648.423	1	-5
648.592	1	1
648.762	1	11
648.931	1	13
649.101	1	16
649.270	1	10
649.440	1	-1
649.610	1	-9
649.779	1	4
649.949	1	-5
650.118	1	7
650.288	1	2
650.457	1	18
650.627	1	3
650.796	1	16
650.966	1	1
651.135	1	6
651.305	1	9
651.474	1	0
651.644	1	-5
651.813	1	-8
651.983	1	5
652.152	1	0
652.322	1	5
652.491	1	21
652.661	1	9
652.830	1	5
653.000	1	8
653.169	1	8
653.339	1	-6
653.508	1	6
653.678	1	-6
653.847	1	14
654.017	1	9
654.186	1	10
654.356	1	-2
654.525	1	16
654.695	1	9
654.864	1	1
655.034	1	-5
655.203	1	3
655.373	1	4
655.542	1	7
655.712	1	-4
655.881	1	2
656.051	1	-6
656.220	1	16
656.390	1	5
656.559	1	7
656.729	1	-1
656.898	1	-5
657.068	1	13
657.237	1	7
657.406	1	8
657.576	1	7
657.745	1	4
657.915	1	5
658.084	1	-2
658.254	1	9
658.423	1	6
658.593	1	6
658.762	1	8
658.932	1	9
659.101	1	10
659.271	1	4
659.440	1	1
659.610	1	7
659.779	1	5
659.949	1	4
660.118	1	2
660.288	1	9
660.457	1	1
660.626	1	-5
660.796	1	2
660.965	1	7
661.135	1	4
661.304	1	0
661.474	1	7
661.643	1	-3
661.813	1	1
661.982	1	0
662.152	1	-3
662.321	1	-5
662.491	1	4
662.660	1	-5
662.829	1	9
662.999	1	3
663.168	1	7
663.338	1	17
663.507	1	-6
663.677	1	6
663.846	1	5
664.016	1	0
664.185	1	4
664.354	1	2
664.524	1	-4
664.693	1	7
664.863	1	1
665.032	1	0
665.202	1	17
665.371	1	4
665.541	1	14
665.710	1	6
665.879	1	1
666.049	1	7
666.218	1	-5
666.388	1	11
666.557	1	8
666.727	1	14
666.896	1	9
667.065	1	7
667.235	1	0
667.404	1	7
667.574	1	7
667.743	1	2
667.913	1	7
668.082	1	13
668.251	1	2
668.421	1	4
668.590	1	5
668.760	1	-2
668.929	1	13
669.099	1	11
669.268	1	4
669.437	1	6
669.607	1	12
669.776	1	6
669.946	1	8
670.115	1	1
670.285	1	0
670.454	1	3
670.623	1	-3
670.793	1	-5
670.962	1	9
671.132	1	4
671.301	1	4
671.470	1	5
671.640	1	3
671.809	1	15
671.979	1	1
672.148	1	8
672.317	1	1
672.487	1	17
672.656	1	1
672.826	1	17
672.995	1	-9
673.164	1	8
673.334	1	1
673.503	1	4
673.673	1	0
673.842	1	5
674.011	1	5
674.181	1	-8
674.350	1	3
674.520	1	8
674.689	1	9
674.858	1	9
675.028	1	6
675.197	1	10
675.367	1	1
675.536	1	1
675.705	1	4
675.875	1	6
676.044	1	4
676.214	1	-2
676.383	1	6
676.552	1	-2
676.722	1	6
676.891	1	1
677.060	1	0
677.230	1	-4
677.399	1	7
677.569	1	5
677.738	1	-12
677.907	1	4
678.077	1	6
678.246	1	10
678.416	1	6
678.585	1	-5
678.754	1	13
678.924	1	-2
679.093	1	3
679.262	1	2
679.432	1	2
679.601	1	-2
679.771	1	-3
679.940	1	7
680.109	1	-3
680.279	1	-1
680.448	1	2
680.617	1	12
680.787	1	11
680.956	1	9
681.125	1	10
681.295	1	1
681.464	1	16
681.634	1	11
681.803	1	2
681.972	1	6
682.142	1	2
682.311	1	-8
682.480	1	9
682.650	1	11
682.819	1	-4
682.988	1	3
683.158	1	11
683.327	1	7
683.496	1	-5
683.666	1	5
683.835	1	4
684.004	1	7
684.174	1	4
684.343	1	-3
684.512	1	21
684.682	1	14
684.851	1	5
685.021	1	13
685.190	1	8
685.359	1	9
685.529	1	6
685.698	1	3
685.867	1	3
686.037	1	4
686.206	1	9
686.375	1	14
686.545	1	1
686.714	1	10
686.883	1	6
687.053	1	12
687.222	1	-3
687.391	1	12
687.561	1	3
687.730	1	11
687.899	1	-1
688.069	1	6
688.238	1	4
688.407	1	10
688.577	1	7
688.746	1	2
