340.368	1	-1
340.539	1	-2
340.710	1	0
340.881	1	0
341.052	1	-3
341.223	1	2
341.394	1	-13
341.565	1	-9
341.737	1	0
341.908	1	1
342.079	1	2
342.250	1	-8
342.421	1	3
342.592	1	7
342.763	1	1
342.934	1	-3
343.105	1	-4
343.276	1	2
343.447	1	-8
343.618	1	-7
343.789	1	-8
343.960	1	-2
344.131	1	1
344.302	1	-4
344.473	1	11
344.644	1	11
344.815	1	8
344.986	1	2
345.157	1	2
345.328	1	12
345.499	1	3
345.670	1	-8
345.841	1	3
346.012	1	-1
346.183	1	-4
346.354	1	1
346.526	1	2
346.697	1	0
346.868	1	-2
347.039	1	0
347.210	1	3
347.381	1	13
347.552	1	1
347.723	1	7
347.894	1	-6
348.065	1	3
348.236	1	-10
348.407	1	6
348.578	1	2
348.749	1	-2
348.920	1	1
349.091	1	11
349.262	1	-2
349.433	1	6
349.604	1	4
349.775	1	-1
349.946	1	-6
350.117	1	5
350.288	1	-3
350.459	1	8
350.630	1	-4
350.801	1	-7
350.972	1	3
351.143	1	11
351.314	1	-14
351.485	1	-4
351.656	1	-2
351.827	1	0
351.998	1	6
352.169	1	1
352.340	1	15
352.511	1	7
352.682	1	0
352.853	1	1
353.024	1	4
353.195	1	5
353.366	1	-2
353.537	1	-1
353.708	1	-4
353.879	1	3
354.050	1	-2
354.221	1	2
354.392	1	-1
354.563	1	0
354.734	1	5
354.905	1	14
355.076	1	1
355.247	1	0
355.418	1	-4
355.589	1	0
355.760	1	5
355.931	1	3
356.102	1	10
356.273	1	5
356.444	1	-8
356.615	1	4
356.785	1	4
356.956	1	-1
357.127	1	9
357.298	1	12
357.469	1	-6
357.640	1	-4
357.811	1	12
357.982	1	-3
358.153	1	-2
358.324	1	7
358.495	1	7
358.666	1	3
358.837	1	4
359.008	1	9
359.179	1	0
359.350	1	-7
359.521	1	-1
359.692	1	4
359.863	1	-10
360.034	1	7
360.205	1	2
360.376	1	4
360.547	1	8
360.718	1	-4
360.889	1	7
361.060	1	10
361.231	1	7
361.401	1	-1
361.572	1	0
361.743	1	4
361.914	1	1
362.085	1	1
362.256	1	7
362.427	1	3
362.598	1	3
362.769	1	11
362.940	1	-4
363.111	1	3
363.282	1	-1
363.453	1	-2
363.624	1	12
363.795	1	3
363.966	1	12
364.137	1	-2
364.308	1	7
364.478	1	10
364.649	1	7
364.820	1	1
364.991	1	3
365.162	1	8
365.333	1	2
365.504	1	-3
365.675	1	11
365.846	1	0
366.017	1	7
366.188	1	8
366.359	1	18
366.530	1	-1
366.701	1	2
366.871	1	13
367.042	1	4
367.213	1	2
367.384	1	11
367.555	1	1
367.726	1	13
367.897	1	11
368.068	1	10
368.239	1	8
368.410	1	14
368.581	1	9
368.752	1	16
368.923	1	-8
369.093	1	7
369.264	1	2
369.435	1	8
369.606	1	4
369.777	1	12
369.948	1	17
370.119	1	11
370.290	1	1
370.461	1	8
370.632	1	14
370.803	1	17
370.973	1	12
371.144	1	14
371.315	1	16
371.486	1	10
371.657	1	13
371.828	1	8
371.999	1	10
372.170	1	9
372.341	1	13
372.512	1	17
372.682	1	3
372.853	1	12
373.024	1	14
373.195	1	24
373.366	1	18
373.537	1	15
373.708	1	9
373.879	1	10
374.050	1	22
374.220	1	8
374.391	1	8
374.562	1	7
374.733	1	4
374.904	1	18
375.075	1	7
375.246	1	12
375.417	1	14
375.588	1	18
375.758	1	19
375.929	1	15
376.100	1	11
376.271	1	3
376.442	1	-3
376.613	1	8
376.784	1	10
376.955	1	9
377.125	1	25
377.296	1	17
377.467	1	10
377.638	1	17
377.809	1	12
377.980	1	0
378.151	1	6
378.321	1	8
378.492	1	9
378.663	1	14
378.834	1	14
379.005	1	13
379.176	1	7
379.347	1	13
379.518	1	9
379.688	1	18
379.859	1	2
380.030	1	4
380.201	1	9
380.372	1	3
380.543	1	11
380.714	1	7
380.884	1	24
381.055	1	4
381.226	1	8
381.397	1	-3
381.568	1	3
381.739	1	8
381.910	1	3
382.080	1	12
382.251	1	18
382.422	1	17
382.593	1	-3
382.764	1	10
382.935	1	13
383.105	1	20
383.276	1	4
383.447	1	10
383.618	1	-1
383.789	1	14
383.960	1	12
384.130	1	6
384.301	1	-3
384.472	1	2
384.643	1	1
384.814	1	11
384.985	1	22
385.156	1	10
385.326	1	10
385.497	1	5
385.668	1	2
385.839	1	7
386.010	1	18
386.180	1	3
386.351	1	6
386.522	1	3
386.693	1	9
386.864	1	4
387.035	1	5
387.205	1	5
387.376	1	2
387.547	1	-9
387.718	1	4
387.889	1	8
388.060	1	9
388.230	1	7
388.401	1	4
388.572	1	1
388.743	1	5
388.914	1	10
389.084	1	9
389.255	1	-6
389.426	1	6
389.597	1	5
389.768	1	17
389.939	1	15
390.109	1	-1
390.280	1	-3
390.451	1	0
390.622	1	12
390.793	1	12
390.963	1	-1
391.134	1	2
391.305	1	9
391.476	1	-1
391.647	1	11
391.817	1	10
391.988	1	5
392.159	1	0
392.330	1	10
392.501	1	4
392.671	1	7
392.842	1	-4
393.013	1	10
393.184	1	8
393.355	1	-4
393.525	1	15
393.696	1	-6
393.867	1	7
394.038	1	4
394.208	1	5
394.379	1	4
394.550	1	1
394.721	1	5
394.892	1	16
395.062	1	2
395.233	1	2
395.404	1	2
395.575	1	7
395.746	1	1
395.916	1	8
396.087	1	-6
396.258	1	2
396.429	1	5
396.599	1	-1
396.770	1	-6
396.941	1	0
397.112	1	11
397.283	1	-1
397.453	1	5
397.624	1	4
397.795	1	8
397.966	1	13
398.136	1	4
398.307	1	0
398.478	1	6
398.649	1	-3
398.819	1	0
398.990	1	7
399.161	1	13
399.332	1	7
399.503	1	-3
399.673	1	8
399.844	1	-5
400.015	1	7
400.186	1	7
400.356	1	-2
400.527	1	7
400.698	1	-1
400.869	1	-5
401.039	1	8
401.210	1	12
401.381	1	8
401.552	1	10
401.722	1	1
401.893	1	-2
402.064	1	0
402.235	1	-5
402.405	1	9
402.576	1	10
402.747	1	13
402.918	1	1
403.088	1	-2
403.259	1	0
403.430	1	10
403.601	1	11
403.771	1	8
403.942	1	-10
404.113	1	0
404.284	1	11
404.454	1	5
404.625	1	1
404.796	1	12
404.967	1	7
405.137	1	-9
405.308	1	5
405.479	1	2
405.649	1	-2
405.820	1	11
405.991	1	1
406.162	1	-1
406.332	1	5
406.503	1	-9
406.674	1	4
406.845	1	1
407.015	1	8
407.186	1	5
407.357	1	6
407.527	1	-1
407.698	1	10
407.869	1	-3
408.040	1	-5
408.210	1	-1
408.381	1	-4
408.552	1	2
408.722	1	0
408.893	1	-7
409.064	1	15
409.235	1	11
409.405	1	-9
409.576	1	8
409.747	1	-1
409.917	1	3
410.088	1	7
410.259	1	-5
410.430	1	-8
410.600	1	-1
410.771	1	-7
410.942	1	-9
411.112	1	5
411.283	1	3
411.454	1	2
411.625	1	-9
411.795	1	0
411.966	1	-2
412.137	1	4
412.307	1	-11
412.478	1	-2
412.649	1	5
412.819	1	2
412.990	1	-5
413.161	1	6
413.332	1	7
413.502	1	-3
413.673	1	-5
413.844	1	-3
414.014	1	2
414.185	1	-5
414.356	1	6
414.526	1	9
414.697	1	8
414.868	1	5
415.038	1	4
415.209	1	2
415.380	1	3
415.550	1	-3
415.721	1	-5
415.892	1	12
416.063	1	0
416.233	1	15
416.404	1	2
416.575	1	4
416.745	1	1
416.916	1	2
417.087	1	6
417.257	1	3
417.428	1	-10
417.599	1	3
417.769	1	2
417.940	1	1
418.111	1	15
418.281	1	5
418.452	1	-1
418.623	1	-5
418.793	1	6
418.964	1	4
419.135	1	-8
419.305	1	-3
419.476	1	4
419.647	1	4
419.817	1	-7
419.988	1	6
420.159	1	17
420.329	1	10
420.500	1	-6
420.671	1	3
420.841	1	8
421.012	1	9
421.183	1	7
421.353	1	-7
421.524	1	2
421.695	1	1
421.865	1	1
422.036	1	13
422.206	1	-2
422.377	1	3
422.548	1	-9
422.718	1	1
422.889	1	-2
423.060	1	1
423.230	1	-4
423.401	1	-2
423.572	1	-1
423.742	1	2
423.913	1	7
424.084	1	8
424.254	1	-1
424.425	1	0
424.595	1	7
424.766	1	4
424.937	1	-1
425.107	1	-3
425.278	1	5
425.449	1	-3
425.619	1	1
425.790	1	-6
425.961	1	9
426.131	1	-5
426.302	1	12
426.472	1	1
426.643	1	5
426.814	1	5
426.984	1	-2
427.155	1	11
427.326	1	-2
427.496	1	8
427.667	1	-3
427.837	1	6
428.008	1	3
428.179	1	2
428.349	1	10
428.520	1	0
428.691	1	2
428.861	1	8
429.032	1	3
429.202	1	-4
429.373	1	-5
429.544	1	-1
429.714	1	2
429.885	1	11
430.055	1	2
430.226	1	3
430.397	1	-7
430.567	1	16
430.738	1	2
430.909	1	6
431.079	1	3
431.250	1	-2
431.420	1	8
431.591	1	-10
431.762	1	-6
431.932	1	7
432.103	1	13
432.273	1	2
432.444	1	-8
432.615	1	5
432.785	1	-3
432.956	1	15
433.126	1	9
433.297	1	-4
433.468	1	-11
433.638	1	-5
433.809	1	-4
433.979	1	9
434.150	1	17
434.320	1	7
434.491	1	-3
434.662	1	0
434.832	1	6
435.003	1	1
435.173	1	7
435.344	1	1
435.515	1	-2
435.685	1	-2
435.856	1	14
436.026	1	-3
436.197	1	12
436.368	1	0
436.538	1	2
436.709	1	-7
436.879	1	2
437.050	1	15
437.220	1	12
437.391	1	11
437.562	1	0
437.732	1	-5
437.903	1	7
438.073	1	-2
438.244	1	3
438.414	1	6
438.585	1	5
438.756	1	6
438.926	1	2
439.097	1	-5
439.267	1	0
439.438	1	6
439.608	1	-1
439.779	1	5
439.949	1	7
440.120	1	2
440.291	1	0
440.461	1	-6
440.632	1	3
440.802	1	-1
440.973	1	12
441.143	1	-5
441.314	1	8
441.485	1	10
441.655	1	2
441.826	1	5
441.996	1	1
442.167	1	4
442.337	1	5
442.508	1	14
442.678	1	10
442.849	1	8
443.019	1	0
443.190	1	1
443.361	1	0
443.531	1	-2
443.702	1	-1
443.872	1	6
444.043	1	4
444.213	1	10
444.384	1	-5
444.554	1	-8
444.725	1	6
444.895	1	9
445.066	1	-8
445.237	1	5
445.407	1	-2
445.578	1	3
445.748	1	-5
445.919	1	7
446.089	1	4
446.260	1	-8
446.430	1	9
446.601	1	6
446.771	1	-1
446.942	1	2
447.112	1	7
447.283	1	16
447.453	1	2
447.624	1	-1
447.794	1	6
447.965	1	3
448.135	1	2
448.306	1	2
448.477	1	7
448.647	1	6
448.818	1	-1
448.988	1	-7
449.159	1	-4
449.329	1	7
449.500	1	0
449.670	1	12
449.841	1	3
450.011	1	7
450.182	1	7
450.352	1	2
450.523	1	1
450.693	1	1
450.864	1	12
451.034	1	1
451.205	1	4
451.375	1	-10
451.546	1	9
451.716	1	-8
451.887	1	3
452.057	1	5
452.228	1	11
452.398	1	7
452.569	1	2
452.739	1	6
452.910	1	1
453.080	1	3
453.251	1	3
453.421	1	-3
453.592	1	-7
453.762	1	10
453.933	1	9
454.103	1	10
454.274	1	-5
454.444	1	-1
454.615	1	8
454.785	1	2
454.956	1	-4
455.126	1	1
455.297	1	5
455.467	1	4
455.638	1	-13
455.808	1	5
455.979	1	-1
456.149	1	0
456.320	1	-2
456.490	1	7
456.661	1	1
456.831	1	2
457.001	1	12
457.172	1	-5
457.342	1	0
457.513	1	2
457.683	1	5
457.854	1	3
458.024	1	1
458.195	1	-4
458.365	1	5
458.536	1	11
458.706	1	-1
458.877	1	4
459.047	1	-10
459.218	1	-9
459.388	1	2
459.559	1	5
459.729	1	10
459.899	1	-4
460.070	1	-1
460.240	1	8
460.411	1	3
460.581	1	7
460.752	1	1
460.922	1	0
461.093	1	3
461.263	1	-6
461.434	1	1
461.604	1	-10
461.775	1	-4
461.945	1	-1
462.115	1	-4
462.286	1	11
462.456	1	8
462.627	1	3
462.797	1	3
462.968	1	1
463.138	1	0
463.309	1	1
463.479	1	4
463.649	1	8
463.820	1	-11
463.990	1	3
464.161	1	-2
464.331	1	-1
464.502	1	-4
464.672	1	-1
464.843	1	12
465.013	1	12
465.183	1	-10
465.354	1	-10
465.524	1	7
465.695	1	3
465.865	1	9
466.036	1	4
466.206	1	6
466.376	1	2
466.547	1	-1
466.717	1	-5
466.888	1	-4
467.058	1	2
467.229	1	3
467.399	1	4
467.569	1	8
467.740	1	-19
467.910	1	-2
468.081	1	-3
468.251	1	3
468.422	1	-3
468.592	1	-1
468.762	1	14
468.933	1	6
469.103	1	-3
469.274	1	8
469.444	1	12
469.614	1	3
469.785	1	1
469.955	1	0
470.126	1	1
470.296	1	-3
470.467	1	-1
470.637	1	7
470.807	1	-4
470.978	1	-4
471.148	1	16
471.319	1	2
471.489	1	15
471.659	1	3
471.830	1	3
472.000	1	-1
472.171	1	3
472.341	1	-8
472.511	1	1
472.682	1	9
472.852	1	1
473.023	1	-10
473.193	1	-5
473.363	1	0
473.534	1	-7
473.704	1	-5
473.875	1	11
474.045	1	-8
474.215	1	4
474.386	1	4
474.556	1	-2
474.727	1	9
474.897	1	-1
475.067	1	6
475.238	1	2
475.408	1	2
475.578	1	-2
475.749	1	6
475.919	1	-9
476.090	1	5
476.260	1	1
476.430	1	-3
476.601	1	-7
476.771	1	-2
476.942	1	-2
477.112	1	-2
477.282	1	8
477.453	1	8
477.623	1	-3
477.793	1	7
477.964	1	-8
478.134	1	1
478.305	1	-2
478.475	1	-4
478.645	1	2
478.816	1	6
478.986	1	-4
479.156	1	-5
479.327	1	-8
479.497	1	3
479.667	1	-14
479.838	1	1
480.008	1	4
480.179	1	10
480.349	1	-5
480.519	1	-2
480.690	1	-10
480.860	1	1
481.030	1	-5
481.201	1	4
481.371	1	7
481.541	1	1
481.712	1	-1
481.882	1	-9
482.053	1	7
482.223	1	-5
482.393	1	-1
482.564	1	-2
482.734	1	7
482.904	1	0
483.075	1	2
483.245	1	-3
483.415	1	1
483.586	1	-1
483.756	1	6
483.926	1	-7
484.097	1	5
484.267	1	-5
484.437	1	1
484.608	1	-2
484.778	1	3
484.948	1	-2
485.119	1	-1
485.289	1	-4
485.459	1	1
485.630	1	17
485.800	1	-7
485.970	1	-3
486.141	1	-2
486.311	1	8
486.481	1	-10
486.652	1	0
486.822	1	13
486.992	1	4
487.163	1	1
487.333	1	8
487.503	1	-1
487.674	1	-1
487.844	1	-4
488.014	1	-1
488.185	1	12
488.355	1	0
488.525	1	-1
488.696	1	3
488.866	1	2
489.036	1	-4
489.207	1	1
489.377	1	-5
489.547	1	13
489.718	1	0
489.888	1	10
490.058	1	7
490.228	1	6
490.399	1	-10
490.569	1	2
490.739	1	9
490.910	1	2
491.080	1	-1
491.250	1	-4
491.421	1	2
491.591	1	-5
491.761	1	9
491.932	1	-1
492.102	1	0
492.272	1	2
492.442	1	7
492.613	1	10
492.783	1	8
492.953	1	8
493.124	1	3
493.294	1	3
493.464	1	9
493.635	1	4
493.805	1	-2
493.975	1	1
494.145	1	-4
494.316	1	3
494.486	1	2
494.656	1	-2
494.827	1	3
494.997	1	0
495.167	1	-3
495.337	1	7
495.508	1	5
495.678	1	9
495.848	1	6
496.019	1	-2
496.189	1	0
496.359	1	-3
496.529	1	6
496.700	1	-3
496.870	1	-5
497.040	1	-6
497.211	1	-1
497.381	1	-4
497.551	1	-8
497.721	1	11
497.892	1	7
498.062	1	12
498.232	1	4
498.403	1	3
498.573	1	15
498.743	1	11
498.913	1	-5
499.084	1	-7
499.254	1	8
499.424	1	6
499.594	1	8
499.765	1	-2
499.935	1	7
500.105	1	2
500.275	1	1
500.446	1	7
500.616	1	10
500.786	1	3
500.956	1	7
501.127	1	4
501.297	1	7
501.467	1	-4
501.638	1	4
501.808	1	-1
501.978	1	3
502.148	1	2
502.319	1	6
502.489	1	-1
502.659	1	-3
502.829	1	13
503.000	1	-2
503.170	1	1
503.340	1	12
503.510	1	-5
503.681	1	-3
503.851	1	-3
504.021	1	4
504.191	1	-3
504.362	1	1
504.532	1	-4
504.702	1	14
504.872	1	-8
505.042	1	3
505.213	1	4
505.383	1	-2
505.553	1	8
505.723	1	-7
505.894	1	-6
506.064	1	7
506.234	1	11
506.404	1	2
506.575	1	-6
506.745	1	-12
506.915	1	8
507.085	1	5
507.256	1	1
507.426	1	-4
507.596	1	1
507.766	1	3
507.936	1	4
508.107	1	10
508.277	1	-7
508.447	1	1
508.617	1	0
508.788	1	-9
508.958	1	4
509.128	1	4
509.298	1	-1
509.468	1	-7
509.639	1	-11
509.809	1	10
509.979	1	11
510.149	1	-1
510.319	1	4
510.490	1	-7
510.660	1	7
510.830	1	-2
511.000	1	7
511.171	1	-8
511.341	1	1
511.511	1	17
511.681	1	3
511.851	1	4
512.022	1	-4
512.192	1	-4
512.362	1	7
512.532	1	2
512.702	1	0
512.873	1	-4
513.043	1	3
513.213	1	-2
513.383	1	2
513.553	1	-4
513.724	1	2
513.894	1	-2
514.064	1	-3
514.234	1	1
514.404	1	8
514.575	1	0
514.745	1	-3
514.915	1	-10
515.085	1	0
515.255	1	7
515.425	1	-12
515.596	1	-1
515.766	1	1
515.936	1	11
516.106	1	4
516.276	1	3
516.447	1	4
516.617	1	2
516.787	1	-4
516.957	1	2
517.127	1	5
517.297	1	-3
517.468	1	9
517.638	1	1
517.808	1	8
517.978	1	-4
518.148	1	2
518.319	1	1
518.489	1	2
518.659	1	13
518.829	1	1
518.999	1	-2
519.169	1	-6
519.340	1	-4
519.510	1	-9
519.680	1	4
519.850	1	12
520.020	1	8
520.190	1	-1
520.361	1	4
520.531	1	-5
520.701	1	1
520.871	1	-5
521.041	1	-4
521.211	1	8
521.382	1	-2
521.552	1	2
521.722	1	10
521.892	1	1
522.062	1	0
522.232	1	8
522.402	1	4
522.573	1	10
522.743	1	3
522.913	1	7
523.083	1	5
523.253	1	0
523.423	1	10
523.593	1	-7
523.764	1	13
523.934	1	1
524.104	1	-2
524.274	1	0
524.444	1	7
524.614	1	2
524.784	1	16
524.955	1	4
525.125	1	1
525.295	1	3
525.465	1	-8
525.635	1	-4
525.805	1	2
525.975	1	2
526.146	1	-4
526.316	1	1
526.486	1	3
526.656	1	5
526.826	1	2
526.996	1	13
527.166	1	-1
527.337	1	8
527.507	1	-1
527.677	1	7
527.847	1	7
528.017	1	-7
528.187	1	2
528.357	1	9
528.527	1	-6
528.698	1	-2
528.868	1	9
529.038	1	-4
529.208	1	2
529.378	1	9
529.548	1	-9
529.718	1	1
529.888	1	7
530.058	1	3
530.229	1	3
530.399	1	-1
530.569	1	-4
530.739	1	3
530.909	1	-2
531.079	1	-9
531.249	1	4
531.419	1	2
531.589	1	1
531.760	1	-2
531.930	1	-1
532.100	1	3
532.270	1	-4
532.440	1	-11
532.610	1	4
532.780	1	-8
532.950	1	-3
533.120	1	14
533.290	1	6
533.461	1	-5
533.631	1	4
533.801	1	-3
533.971	1	-6
534.141	1	-7
534.311	1	3
534.481	1	-1
534.651	1	5
534.821	1	5
534.991	1	-7
535.162	1	12
535.332	1	-1
535.502	1	15
535.672	1	6
535.842	1	1
536.012	1	3
536.182	1	5
536.352	1	0
536.522	1	-1
536.692	1	-4
536.862	1	-2
537.032	1	11
537.203	1	4
537.373	1	13
537.543	1	4
537.713	1	-6
537.883	1	-2
538.053	1	-6
538.223	1	3
538.393	1	-4
538.563	1	0
538.733	1	8
538.903	1	8
539.073	1	1
539.243	1	-10
539.413	1	2
539.584	1	9
539.754	1	-2
539.924	1	3
540.094	1	-8
540.264	1	-1
540.434	1	1
540.604	1	7
540.774	1	13
540.944	1	8
541.114	1	3
541.284	1	0
541.454	1	-5
541.624	1	-7
541.794	1	10
541.964	1	5
542.134	1	1
542.305	1	3
542.475	1	13
542.645	1	-3
542.815	1	1
542.985	1	7
543.155	1	-4
543.325	1	-3
543.495	1	5
543.665	1	14
543.835	1	4
544.005	1	6
544.175	1	-6
544.345	1	6
544.515	1	3
544.685	1	-9
544.855	1	3
545.025	1	-3
545.195	1	-6
545.365	1	-3
545.535	1	-4
545.705	1	3
545.875	1	-3
546.045	1	-1
546.216	1	5
546.386	1	-2
546.556	1	8
546.726	1	-6
546.896	1	11
547.066	1	3
547.236	1	2
547.406	1	-6
547.576	1	7
547.746	1	-2
547.916	1	5
548.086	1	-3
548.256	1	7
548.426	1	2
548.596	1	-6
548.766	1	3
548.936	1	-4
549.106	1	-4
549.276	1	1
549.446	1	-5
549.616	1	6
549.786	1	9
549.956	1	7
550.126	1	8
550.296	1	9
550.466	1	-7
550.636	1	-6
550.806	1	-3
550.976	1	-4
551.146	1	13
551.316	1	9
551.486	1	0
551.656	1	-7
551.826	1	7
551.996	1	-1
552.166	1	-6
552.336	1	6
552.506	1	-5
552.676	1	12
552.846	1	1
553.016	1	5
553.186	1	-1
553.356	1	-1
553.526	1	3
553.696	1	12
553.866	1	2
554.036	1	4
554.206	1	5
554.376	1	-3
554.546	1	9
554.716	1	-14
554.886	1	13
555.056	1	0
555.226	1	12
555.396	1	0
555.566	1	8
555.736	1	6
555.906	1	-2
556.076	1	6
556.246	1	10
556.416	1	8
556.586	1	-6
556.756	1	8
556.926	1	7
557.096	1	3
557.266	1	2
557.436	1	-2
557.606	1	6
557.776	1	5
557.946	1	1
558.116	1	1
558.286	1	-3
558.456	1	1
558.626	1	13
558.796	1	-5
558.966	1	5
559.136	1	5
559.306	1	9
559.476	1	3
559.646	1	0
559.816	1	-7
559.986	1	4
560.155	1	-6
560.325	1	-2
560.495	1	2
560.665	1	-2
560.835	1	2
561.005	1	-12
561.175	1	-11
561.345	1	-6
561.515	1	-1
561.685	1	-2
561.855	1	-10
562.025	1	-4
562.195	1	11
562.365	1	4
562.535	1	4
562.705	1	-3
562.875	1	0
563.045	1	-3
563.215	1	4
563.385	1	12
563.555	1	7
563.725	1	-4
563.895	1	8
564.064	1	13
564.234	1	10
564.404	1	-7
564.574	1	11
564.744	1	11
564.914	1	-8
565.084	1	0
565.254	1	3
565.424	1	8
565.594	1	0
565.764	1	3
565.934	1	-1
566.104	1	3
566.274	1	2
566.444	1	7
566.614	1	-3
566.783	1	5
566.953	1	7
567.123	1	1
567.293	1	4
567.463	1	11
567.633	1	1
567.803	1	4
567.973	1	-6
568.143	1	-5
568.313	1	0
568.483	1	-3
568.653	1	-2
568.823	1	-1
568.993	1	6
569.162	1	3
569.332	1	-2
569.502	1	2
569.672	1	-3
569.842	1	9
570.012	1	1
570.182	1	-3
570.352	1	-5
570.522	1	3
570.692	1	-4
570.862	1	9
571.031	1	0
571.201	1	16
571.371	1	-10
571.541	1	6
571.711	1	4
571.881	1	7
572.051	1	5
572.221	1	1
572.391	1	-11
572.561	1	5
572.731	1	-4
572.900	1	-6
573.070	1	-4
573.240	1	3
573.410	1	1
573.580	1	7
573.750	1	7
573.920	1	-10
574.090	1	-5
574.260	1	1
574.430	1	-3
574.599	1	-4
574.769	1	-1
574.939	1	2
575.109	1	1
575.279	1	-6
575.449	1	2
575.619	1	3
575.789	1	0
575.959	1	-1
576.128	1	-5
576.298	1	1
576.468	1	-4
576.638	1	1
576.808	1	3
576.978	1	-3
577.148	1	2
577.318	1	-5
577.487	1	-7
577.657	1	1
577.827	1	-2
577.997	1	2
578.167	1	8
578.337	1	1
578.507	1	6
578.677	1	-1
578.846	1	6
579.016	1	4
579.186	1	14
579.356	1	10
579.526	1	5
579.696	1	1
579.866	1	7
580.036	1	3
580.205	1	-5
580.375	1	-1
580.545	1	10
580.715	1	4
580.885	1	5
581.055	1	-9
581.225	1	-5
581.394	1	-2
581.564	1	-11
581.734	1	-1
581.904	1	3
582.074	1	4
582.244	1	3
582.414	1	12
582.583	1	2
582.753	1	-6
582.923	1	-4
583.093	1	9
583.263	1	-9
583.433	1	2
583.603	1	7
583.772	1	3
583.942	1	7
584.112	1	3
584.282	1	10
584.452	1	3
584.622	1	4
584.791	1	8
584.961	1	12
585.131	1	7
585.301	1	-2
585.471	1	4
585.641	1	8
585.811	1	-2
585.980	1	3
586.150	1	0
586.320	1	-3
586.490	1	-6
586.660	1	3
586.830	1	5
586.999	1	1
587.169	1	1
587.339	1	6
587.509	1	4
587.679	1	-1
587.849	1	-3
588.018	1	-9
588.188	1	11
588.358	1	6
588.528	1	-1
588.698	1	-5
588.867	1	4
589.037	1	2
589.207	1	-7
589.377	1	5
589.547	1	-5
589.717	1	-2
589.886	1	-5
590.056	1	1
590.226	1	6
590.396	1	8
590.566	1	7
590.735	1	0
590.905	1	0
591.075	1	13
591.245	1	15
591.415	1	3
591.585	1	-5
591.754	1	-6
591.924	1	-1
592.094	1	-7
592.264	1	6
592.434	1	6
592.603	1	2
592.773	1	10
592.943	1	-5
593.113	1	-9
593.283	1	8
593.452	1	2
593.622	1	0
593.792	1	1
593.962	1	7
594.132	1	6
594.301	1	5
594.471	1	1
594.641	1	0
594.811	1	-5
594.981	1	0
595.150	1	-5
595.320	1	1
595.490	1	-4
595.660	1	-2
595.829	1	0
595.999	1	-4
596.169	1	2
596.339	1	6
596.509	1	9
596.678	1	-8
596.848	1	0
597.018	1	-1
597.188	1	-5
597.358	1	2
597.527	1	3
597.697	1	-4
597.867	1	-1
598.037	1	-1
598.206	1	6
598.376	1	7
598.546	1	12
598.716	1	-3
598.885	1	0
599.055	1	5
599.225	1	9
599.395	1	4
599.565	1	0
599.734	1	-1
599.904	1	8
600.074	1	3
600.244	1	3
600.413	1	-1
600.583	1	-5
600.753	1	-7
600.923	1	-7
601.092	1	4
601.262	1	0
601.432	1	13
601.602	1	0
601.771	1	-5
601.941	1	5
602.111	1	-4
602.281	1	0
602.451	1	2
602.620	1	1
602.790	1	-12
602.960	1	-8
603.130	1	5
603.299	1	5
603.469	1	8
603.639	1	-4
603.809	1	9
603.978	1	1
604.148	1	1
604.318	1	-8
604.487	1	-12
604.657	1	7
604.827	1	5
604.997	1	3
605.166	1	-3
605.336	1	5
605.506	1	-2
605.676	1	2
605.845	1	8
606.015	1	-15
606.185	1	7
606.355	1	7
606.524	1	1
606.694	1	4
606.864	1	8
607.034	1	7
607.203	1	4
607.373	1	0
607.543	1	-5
607.712	1	0
607.882	1	-7
608.052	1	2
608.222	1	2
608.391	1	-3
608.561	1	6
608.731	1	5
608.901	1	5
609.070	1	6
609.240	1	1
609.410	1	4
609.579	1	-6
609.749	1	-1
609.919	1	8
610.089	1	1
610.258	1	1
610.428	1	7
610.598	1	3
610.767	1	-9
610.937	1	7
611.107	1	-4
611.277	1	-2
611.446	1	4
611.616	1	9
611.786	1	11
611.955	1	3
612.125	1	-10
612.295	1	11
612.465	1	-6
612.634	1	2
612.804	1	2
612.974	1	-3
613.143	1	3
613.313	1	-5
613.483	1	4
613.652	1	3
613.822	1	-7
613.992	1	3
614.162	1	-3
614.331	1	3
614.501	1	-5
614.671	1	15
614.840	1	-6
615.010	1	0
615.180	1	9
615.349	1	4
615.519	1	-5
615.689	1	15
615.858	1	-6
616.028	1	-8
616.198	1	6
616.368	1	14
616.537	1	-11
616.707	1	4
616.877	1	1
617.046	1	2
617.216	1	-1
617.386	1	6
617.555	1	-6
617.725	1	1
617.895	1	7
618.064	1	4
618.234	1	-6
618.404	1	-1
618.573	1	3
618.743	1	0
618.913	1	1
619.082	1	-8
619.252	1	11
619.422	1	0
619.591	1	0
619.761	1	-6
619.931	1	2
620.100	1	1
620.270	1	-4
620.440	1	6
620.609	1	1
620.779	1	9
620.949	1	6
621.118	1	0
621.288	1	-1
621.458	1	11
621.627	1	4
621.797	1	-2
621.967	1	6
622.136	1	-11
622.306	1	-7
622.476	1	7
622.645	1	10
622.815	1	2
622.985	1	-7
623.154	1	-3
623.324	1	3
623.494	1	9
623.663	1	1
623.833	1	0
624.002	1	-11
624.172	1	-10
624.342	1	-12
624.511	1	-4
624.681	1	8
624.851	1	2
625.020	1	-3
625.190	1	-1
625.360	1	-10
625.529	1	-2
625.699	1	-2
625.869	1	3
626.038	1	4
626.208	1	-3
626.377	1	8
626.547	1	-3
626.717	1	12
626.886	1	9
627.056	1	-6
627.226	1	-1
627.395	1	-7
627.565	1	2
627.735	1	12
627.904	1	1
628.074	1	3
628.243	1	8
628.413	1	-4
628.583	1	-5
628.752	1	3
628.922	1	-10
629.091	1	-5
629.261	1	4
629.431	1	9
629.600	1	9
629.770	1	-3
629.940	1	0
630.109	1	4
630.279	1	-11
630.448	1	4
630.618	1	4
630.788	1	6
630.957	1	2
631.127	1	13
631.297	1	-2
631.466	1	3
631.636	1	-12
631.805	1	6
631.975	1	7
632.145	1	7
632.314	1	-1
632.484	1	0
632.653	1	-1
632.823	1	9
632.993	1	8
633.162	1	-4
633.332	1	-13
633.501	1	-2
633.671	1	3
633.841	1	12
634.010	1	4
634.180	1	-4
634.349	1	1
634.519	1	-19
634.689	1	-3
634.858	1	-10
635.028	1	4
635.197	1	14
635.367	1	-1
635.537	1	-1
635.706	1	-1
635.876	1	2
636.045	1	-8
636.215	1	12
636.384	1	8
636.554	1	0
636.724	1	2
636.893	1	-6
637.063	1	-1
637.232	1	0
637.402	1	-3
637.572	1	2
637.741	1	1
637.911	1	-7
638.080	1	-4
638.250	1	-2
638.419	1	9
638.589	1	11
638.759	1	-3
638.928	1	-1
639.098	1	-4
639.267	1	2
639.437	1	2
639.606	1	14
639.776	1	-7
639.946	1	0
640.115	1	6
640.285	1	4
640.454	1	-7
640.624	1	5
640.793	1	7
640.963	1	7
641.132	1	-10
641.302	1	13
641.472	1	-11
641.641	1	8
641.811	1	-4
641.980	1	3
642.150	1	-2
642.319	1	1
642.489	1	2
642.659	1	3
642.828	1	1
642.998	1	0
643.167	1	8
643.337	1	-1
643.506	1	-2
643.676	1	2
643.845	1	6
644.015	1	2
644.184	1	1
644.354	1	4
644.524	1	-8
644.693	1	6
644.863	1	-6
645.032	1	6
645.202	1	-5
645.371	1	9
645.541	1	5
645.710	1	10
645.880	1	8
646.049	1	2
646.219	1	2
646.388	1	-3
646.558	1	0
646.728	1	-2
646.897	1	5
647.067	1	-3
647.236	1	-3
647.406	1	1
647.575	1	0
647.745	1	7
647.914	1	-5
648.084	1	5
648.253	1	3
648.423	1	-1
648.592	1	0
648.762	1	4
648.931	1	9
649.101	1	8
649.270	1	2
649.440	1	-4
649.610	1	2
649.779	1	4
649.949	1	-4
650.118	1	-2
650.288	1	5
650.457	1	14
650.627	1	1
650.796	1	7
650.966	1	1
651.135	1	10
651.305	1	4
651.474	1	0
651.644	1	-6
651.813	1	-12
651.983	1	-1
652.152	1	-2
652.322	1	7
652.491	1	16
652.661	1	15
652.830	1	5
653.000	1	6
653.169	1	3
653.339	1	-5
653.508	1	-1
653.678	1	1
653.847	1	5
654.017	1	-1
654.186	1	7
654.356	1	-3
654.525	1	8
654.695	1	1
654.864	1	-3
655.034	1	1
655.203	1	-1
655.373	1	2
655.542	1	8
655.712	1	-1
655.881	1	-7
656.051	1	-7
656.220	1	7
656.390	1	-6
656.559	1	5
656.729	1	0
656.898	1	-4
657.068	1	13
657.237	1	7
657.406	1	7
657.576	1	4
657.745	1	2
657.915	1	-1
658.084	1	3
658.254	1	0
658.423	1	3
658.593	1	-2
658.762	1	1
658.932	1	0
659.101	1	3
659.271	1	7
659.440	1	1
659.610	1	3
659.779	1	0
659.949	1	-5
660.118	1	10
660.288	1	4
660.457	1	1
660.626	1	-10
660.796	1	4
660.965	1	7
661.135	1	0
661.304	1	-2
661.474	1	3
661.643	1	3
661.813	1	0
661.982	1	-3
662.152	1	-1
662.321	1	-1
662.491	1	1
662.660	1	-3
662.829	1	4
662.999	1	-2
663.168	1	-4
663.338	1	6
663.507	1	-8
663.677	1	1
663.846	1	9
664.016	1	-4
664.185	1	12
664.354	1	-3
664.524	1	-3
664.693	1	4
664.863	1	-5
665.032	1	17
665.202	1	8
665.371	1	-3
665.541	1	-1
665.710	1	5
665.879	1	5
666.049	1	7
666.218	1	9
666.388	1	-1
666.557	1	9
666.727	1	1
666.896	1	2
667.065	1	0
667.235	1	5
667.404	1	7
667.574	1	12
667.743	1	-2
667.913	1	-7
668.082	1	-2
668.251	1	2
668.421	1	-5
668.590	1	-3
668.760	1	3
668.929	1	8
669.099	1	11
669.268	1	-2
669.437	1	-3
669.607	1	6
669.776	1	-2
669.946	1	4
670.115	1	-5
670.285	1	-6
670.454	1	1
670.623	1	5
670.793	1	14
670.962	1	10
671.132	1	-1
671.301	1	-7
671.470	1	-2
671.640	1	-10
671.809	1	12
671.979	1	7
672.148	1	10
672.317	1	0
672.487	1	19
672.656	1	3
672.826	1	10
672.995	1	-11
673.164	1	5
673.334	1	0
673.503	1	-8
673.673	1	5
673.842	1	-6
674.011	1	-9
674.181	1	-11
674.350	1	-1
674.520	1	-1
674.689	1	-2
674.858	1	7
675.028	1	7
675.197	1	-7
675.367	1	-2
675.536	1	5
675.705	1	-1
675.875	1	7
676.044	1	1
676.214	1	-8
676.383	1	0
676.552	1	-9
676.722	1	4
676.891	1	-5
677.060	1	-6
677.230	1	-10
677.399	1	1
677.569	1	8
677.738	1	-5
677.907	1	3
678.077	1	-3
678.246	1	1
678.416	1	-4
678.585	1	-10
678.754	1	-3
678.924	1	-9
679.093	1	-2
679.262	1	5
679.432	1	-3
679.601	1	1
679.771	1	-1
679.940	1	0
680.109	1	-8
680.279	1	-12
680.448	1	-2
680.617	1	8
680.787	1	-1
680.956	1	12
681.125	1	0
681.295	1	-3
681.464	1	-9
681.634	1	2
681.803	1	10
681.972	1	-2
682.142	1	-7
682.311	1	-5
682.480	1	7
682.650	1	10
682.819	1	-11
682.988	1	5
683.158	1	1
683.327	1	-2
683.496	1	-1
683.666	1	2
683.835	1	2
684.004	1	-2
684.174	1	-4
684.343	1	-9
684.512	1	20
684.682	1	3
684.851	1	6
685.021	1	5
685.190	1	11
685.359	1	8
685.529	1	0
685.698	1	-3
685.867	1	8
686.037	1	-1
686.206	1	-1
686.375	1	16
686.545	1	-1
686.714	1	-2
686.883	1	-3
687.053	1	3
687.222	1	0
687.391	1	-1
687.561	1	-4
687.730	1	6
687.899	1	-9
688.069	1	10
688.238	1	6
688.407	1	-4
688.577	1	13
688.746	1	2
