340.368	1	11
340.539	1	-3
340.710	1	8
340.881	1	-1
341.052	1	-7
341.223	1	8
341.394	1	-4
341.565	1	-1
341.737	1	1
341.908	1	1
342.079	1	9
342.250	1	2
342.421	1	-7
342.592	1	6
342.763	1	-7
342.934	1	2
343.105	1	-8
343.276	1	10
343.447	1	5
343.618	1	-4
343.789	1	5
343.960	1	-6
344.131	1	0
344.302	1	3
344.473	1	10
344.644	1	15
344.815	1	-5
344.986	1	4
345.157	1	-5
345.328	1	9
345.499	1	4
345.670	1	-5
345.841	1	7
346.012	1	0
346.183	1	-3
346.354	1	8
346.526	1	0
346.697	1	-2
346.868	1	2
347.039	1	5
347.210	1	6
347.381	1	14
347.552	1	1
347.723	1	0
347.894	1	-1
348.065	1	10
348.236	1	-7
348.407	1	2
348.578	1	0
348.749	1	0
348.920	1	4
349.091	1	3
349.262	1	4
349.433	1	0
349.604	1	4
349.775	1	-5
349.946	1	9
350.117	1	11
350.288	1	-7
350.459	1	8
350.630	1	-1
350.801	1	2
350.972	1	10
351.143	1	0
351.314	1	-11
351.485	1	-4
351.656	1	5
351.827	1	-4
351.998	1	4
352.169	1	10
352.340	1	1
352.511	1	8
352.682	1	-3
352.853	1	-1
353.024	1	3
353.195	1	5
353.366	1	2
353.537	1	4
353.708	1	3
353.879	1	-6
354.050	1	5
354.221	1	-2
354.392	1	-5
354.563	1	-2
354.734	1	7
354.905	1	10
355.076	1	9
355.247	1	5
355.418	1	-10
355.589	1	-2
355.760	1	2
355.931	1	14
356.102	1	-3
356.273	1	1
356.444	1	2
356.615	1	-3
356.785	1	9
356.956	1	2
357.127	1	17
357.298	1	1
357.469	1	2
357.640	1	5
357.811	1	7
357.982	1	4
358.153	1	8
358.324	1	14
358.495	1	4
358.666	1	11
358.837	1	9
359.008	1	13
359.179	1	3
359.350	1	7
359.521	1	8
359.692	1	6
359.863	1	-8
360.034	1	8
360.205	1	17
360.376	1	-1
360.547	1	15
360.718	1	3
360.889	1	5
361.060	1	18
361.231	1	-3
361.401	1	8
361.572	1	0
361.743	1	0
361.914	1	5
362.085	1	10
362.256	1	2
362.427	1	-1
362.598	1	6
362.769	1	22
362.940	1	-4
363.111	1	20
363.282	1	13
363.453	1	11
363.624	1	17
363.795	1	16
363.966	1	10
364.137	1	3
364.308	1	5
364.478	1	17
364.649	1	17
364.820	1	9
364.991	1	10
365.162	1	15
365.333	1	9
365.504	1	10
365.675	1	13
365.846	1	11
366.017	1	22
366.188	1	19
366.359	1	21
366.530	1	14
366.701	1	12
366.871	1	21
367.042	1	9
367.213	1	13
367.384	1	15
367.555	1	5
367.726	1	29
367.897	1	21
368.068	1	10
368.239	1	17
368.410	1	19
368.581	1	22
368.752	1	21
368.923	1	5
369.093	1	21
369.264	1	16
369.435	1	16
369.606	1	21
369.777	1	29
369.948	1	26
370.119	1	33
370.290	1	23
370.461	1	22
370.632	1	26
370.803	1	26
370.973	1	20
371.144	1	26
371.315	1	30
371.486	1	28
371.657	1	25
371.828	1	30
371.999	1	43
372.170	1	26
372.341	1	27
372.512	1	21
372.682	1	27
372.853	1	28
373.024	1	24
373.195	1	34
373.366	1	34
373.537	1	38
373.708	1	33
373.879	1	35
374.050	1	37
374.220	1	31
374.391	1	26
374.562	1	22
374.733	1	27
374.904	1	25
375.075	1	31
375.246	1	34
375.417	1	43
375.588	1	38
375.758	1	39
375.929	1	29
376.100	1	26
376.271	1	24
376.442	1	21
376.613	1	38
376.784	1	23
376.955	1	30
377.125	1	30
377.296	1	35
377.467	1	24
377.638	1	23
377.809	1	34
377.980	1	23
378.151	1	22
378.321	1	37
378.492	1	22
378.663	1	26
378.834	1	31
379.005	1	24
379.176	1	26
379.347	1	22
379.518	1	21
379.688	1	20
379.859	1	35
380.030	1	17
380.201	1	26
380.372	1	15
380.543	1	22
380.714	1	23
380.884	1	27
381.055	1	9
381.226	1	15
381.397	1	11
381.568	1	15
381.739	1	19
381.910	1	18
382.080	1	25
382.251	1	16
382.422	1	21
382.593	1	15
382.764	1	15
382.935	1	17
383.105	1	19
383.276	1	20
383.447	1	18
383.618	1	11
383.789	1	19
383.960	1	20
384.130	1	14
384.301	1	17
384.472	1	12
384.643	1	2
384.814	1	14
384.985	1	17
385.156	1	11
385.326	1	6
385.497	1	8
385.668	1	19
385.839	1	21
386.010	1	19
386.180	1	12
386.351	1	15
386.522	1	0
386.693	1	7
386.864	1	9
387.035	1	19
387.205	1	8
387.376	1	11
387.547	1	-5
387.718	1	14
387.889	1	18
388.060	1	11
388.230	1	6
388.401	1	13
388.572	1	20
388.743	1	2
388.914	1	11
389.084	1	5
389.255	1	8
389.426	1	0
389.597	1	10
389.768	1	14
389.939	1	11
390.109	1	6
390.280	1	3
390.451	1	14
390.622	1	6
390.793	1	17
390.963	1	2
391.134	1	9
391.305	1	8
391.476	1	11
391.647	1	5
391.817	1	14
391.988	1	12
392.159	1	11
392.330	1	8
392.501	1	-8
392.671	1	1
392.842	1	-7
393.013	1	17
393.184	1	16
393.355	1	5
393.525	1	9
393.696	1	15
393.867	1	6
394.038	1	5
394.208	1	4
394.379	1	1
394.550	1	4
394.721	1	11
394.892	1	27
395.062	1	13
395.233	1	7
395.404	1	0
395.575	1	14
395.746	1	-2
395.916	1	3
396.087	1	-1
396.258	1	7
396.429	1	1
396.599	1	-6
396.770	1	0
396.941	1	4
397.112	1	7
397.283	1	9
397.453	1	8
397.624	1	4
397.795	1	1
397.966	1	14
398.136	1	10
398.307	1	5
398.478	1	8
398.649	1	-3
398.819	1	12
398.990	1	8
399.161	1	13
399.332	1	14
399.503	1	6
399.673	1	3
399.844	1	-3
400.015	1	6
400.186	1	6
400.356	1	7
400.527	1	-9
400.698	1	8
400.869	1	2
401.039	1	10
401.210	1	18
401.381	1	5
401.552	1	4
401.722	1	4
401.893	1	-1
402.064	1	6
402.235	1	2
402.405	1	11
402.576	1	15
402.747	1	12
402.918	1	7
403.088	1	6
403.259	1	1
403.430	1	1
403.601	1	3
403.771	1	13
403.942	1	4
404.113	1	-6
404.284	1	12
404.454	1	5
404.625	1	8
404.796	1	6
404.967	1	8
405.137	1	-3
405.308	1	-4
405.479	1	7
405.649	1	7
405.820	1	8
405.991	1	8
406.162	1	4
406.332	1	5
406.503	1	-6
406.674	1	9
406.845	1	9
407.015	1	5
407.186	1	4
407.357	1	5
407.527	1	8
407.698	1	2
407.869	1	12
408.040	1	4
408.210	1	-4
408.381	1	9
408.552	1	4
408.722	1	-6
408.893	1	3
409.064	1	4
409.235	1	1
409.405	1	-5
409.576	1	12
409.747	1	5
409.917	1	7
410.088	1	5
410.259	1	-5
410.430	1	2
410.600	1	1
410.771	1	2
410.942	1	4
411.112	1	12
411.283	1	8
411.454	1	1
411.625	1	1
411.795	1	-6
411.966	1	10
412.137	1	6
412.307	1	-3
412.478	1	0
412.649	1	12
412.819	1	8
412.990	1	-6
413.161	1	10
413.332	1	3
413.502	1	-2
413.673	1	5
413.844	1	-1
414.014	1	4
414.185	1	-3
414.356	1	12
414.526	1	9
414.697	1	12
414.868	1	3
415.038	1	-5
415.209	1	-3
415.380	1	3
415.550	1	3
415.721	1	-7
415.892	1	8
416.063	1	4
416.233	1	13
416.404	1	0
416.575	1	11
416.745	1	-2
416.916	1	6
417.087	1	6
417.257	1	3
417.428	1	-12
417.599	1	12
417.769	1	6
417.940	1	8
418.111	1	7
418.281	1	10
418.452	1	0
418.623	1	-7
418.793	1	7
418.964	1	-3
419.135	1	1
419.305	1	5
419.476	1	1
419.647	1	-1
419.817	1	-3
419.988	1	3
420.159	1	9
420.329	1	4
420.500	1	-12
420.671	1	3
420.841	1	-4
421.012	1	0
421.183	1	3
421.353	1	2
421.524	1	-1
421.695	1	6
421.865	1	2
422.036	1	11
422.206	1	11
422.377	1	-2
422.548	1	-1
422.718	1	3
422.889	1	-4
423.060	1	-6
423.230	1	-3
423.401	1	2
423.572	1	2
423.742	1	15
423.913	1	6
424.084	1	5
424.254	1	5
424.425	1	-2
424.595	1	9
424.766	1	0
424.937	1	5
425.107	1	3
425.278	1	3
425.449	1	8
425.619	1	1
425.790	1	-2
425.961	1	11
426.131	1	-7
426.302	1	5
426.472	1	-4
426.643	1	1
426.814	1	4
426.984	1	3
427.155	1	2
427.326	1	4
427.496	1	5
427.667	1	8
427.837	1	9
428.008	1	1
428.179	1	5
428.349	1	1
428.520	1	-1
428.691	1	1
428.861	1	10
429.032	1	-4
429.202	1	8
429.373	1	-6
429.544	1	-4
429.714	1	4
429.885	1	9
430.055	1	10
430.226	1	7
430.397	1	-5
430.567	1	16
430.738	1	10
430.909	1	-7
431.079	1	-5
431.250	1	-6
431.420	1	3
431.591	1	0
431.762	1	1
431.932	1	7
432.103	1	15
432.273	1	11
432.444	1	2
432.615	1	-1
432.785	1	2
432.956	1	13
433.126	1	8
433.297	1	-2
433.468	1	-5
433.638	1	-7
433.809	1	4
433.979	1	3
434.150	1	11
434.320	1	-6
434.491	1	2
434.662	1	-5
434.832	1	12
435.003	1	-2
435.173	1	4
435.344	1	8
435.515	1	5
435.685	1	5
435.856	1	18
436.026	1	-8
436.197	1	12
436.368	1	-10
436.538	1	11
436.709	1	-4
436.879	1	3
437.050	1	7
437.220	1	16
437.391	1	9
437.562	1	5
437.732	1	0
437.903	1	5
438.073	1	-1
438.244	1	11
438.414	1	5
438.585	1	5
438.756	1	10
438.926	1	8
439.097	1	-4
439.267	1	1
439.438	1	-5
439.608	1	4
439.779	1	10
439.949	1	5
440.120	1	9
440.291	1	2
440.461	1	-3
440.632	1	-1
440.802	1	-1
440.973	1	8
441.143	1	2
441.314	1	0
441.485	1	2
441.655	1	8
441.826	1	7
441.996	1	8
442.167	1	3
442.337	1	11
442.508	1	9
442.678	1	4
442.849	1	12
443.019	1	-4
443.190	1	2
443.361	1	4
443.531	1	8
443.702	1	10
443.872	1	3
444.043	1	4
444.213	1	10
444.384	1	2
444.554	1	-4
444.725	1	1
444.895	1	9
445.066	1	-2
445.237	1	7
445.407	1	7
445.578	1	10
445.748	1	-4
445.919	1	7
446.089	1	6
446.260	1	-5
446.430	1	5
446.601	1	1
446.771	1	14
446.942	1	8
447.112	1	10
447.283	1	13
447.453	1	-5
447.624	1	-6
447.794	1	10
447.965	1	0
448.135	1	-6
448.306	1	6
448.477	1	0
448.647	1	13
448.818	1	7
448.988	1	1
449.159	1	4
449.329	1	11
449.500	1	0
449.670	1	10
449.841	1	4
450.011	1	5
450.182	1	6
450.352	1	2
450.523	1	2
450.693	1	-3
450.864	1	14
451.034	1	4
451.205	1	10
451.375	1	-5
451.546	1	9
451.716	1	6
451.887	1	4
452.057	1	1
452.228	1	13
452.398	1	7
452.569	1	1
452.739	1	8
452.910	1	0
453.080	1	4
453.251	1	4
453.421	1	-2
453.592	1	8
453.762	1	11
453.933	1	7
454.103	1	-2
454.274	1	-1
454.444	1	-2
454.615	1	0
454.785	1	0
454.956	1	-3
455.126	1	-1
455.297	1	6
455.467	1	1
455.638	1	0
455.808	1	-7
455.979	1	15
456.149	1	12
456.320	1	-1
456.490	1	1
456.661	1	7
456.831	1	-1
457.001	1	8
457.172	1	4
457.342	1	10
457.513	1	4
457.683	1	6
457.854	1	9
458.024	1	2
458.195	1	-4
458.365	1	2
458.536	1	-6
458.706	1	3
458.877	1	-2
459.047	1	-2
459.218	1	-4
459.388	1	-1
459.559	1	8
459.729	1	15
459.899	1	0
460.070	1	10
460.240	1	5
460.411	1	4
460.581	1	-6
460.752	1	5
460.922	1	7
461.093	1	2
461.263	1	2
461.434	1	3
461.604	1	4
461.775	1	1
461.945	1	-9
462.115	1	-3
462.286	1	13
462.456	1	9
462.627	1	-3
462.797	1	2
462.968	1	11
463.138	1	15
463.309	1	6
463.479	1	9
463.649	1	-1
463.820	1	-6
463.990	1	3
464.161	1	4
464.331	1	0
464.502	1	0
464.672	1	5
464.843	1	13
465.013	1	6
465.183	1	-10
465.354	1	2
465.524	1	8
465.695	1	14
465.865	1	-5
466.036	1	5
466.206	1	11
466.376	1	5
466.547	1	-4
466.717	1	-10
466.888	1	-4
467.058	1	-3
467.229	1	6
467.399	1	12
467.569	1	18
467.740	1	-15
467.910	1	-5
468.081	1	-1
468.251	1	8
468.422	1	-6
468.592	1	8
468.762	1	9
468.933	1	3
469.103	1	-1
469.274	1	4
469.444	1	7
469.614	1	-6
469.785	1	-3
469.955	1	0
470.126	1	11
470.296	1	-8
470.467	1	2
470.637	1	4
470.807	1	-4
470.978	1	-5
471.148	1	11
471.319	1	-1
471.489	1	8
471.659	1	7
471.830	1	7
472.000	1	5
472.171	1	1
472.341	1	-7
472.511	1	-3
472.682	1	13
472.852	1	2
473.023	1	0
473.193	1	-4
473.363	1	7
473.534	1	-5
473.704	1	-5
473.875	1	10
474.045	1	5
474.215	1	9
474.386	1	6
474.556	1	2
474.727	1	4
474.897	1	-5
475.067	1	11
475.238	1	1
475.408	1	10
475.578	1	2
475.749	1	4
475.919	1	-7
476.090	1	14
476.260	1	11
476.430	1	1
476.601	1	3
476.771	1	7
476.942	1	-1
477.112	1	5
477.282	1	2
477.453	1	2
477.623	1	4
477.793	1	9
477.964	1	2
478.134	1	3
478.305	1	-1
478.475	1	-7
478.645	1	6
478.816	1	7
478.986	1	-3
479.156	1	0
479.327	1	-12
479.497	1	-2
479.667	1	2
479.838	1	1
480.008	1	7
480.179	1	11
480.349	1	3
480.519	1	6
480.690	1	10
480.860	1	5
481.030	1	-1
481.201	1	1
481.371	1	4
481.541	1	-5
481.712	1	7
481.882	1	-2
482.053	1	7
482.223	1	-1
482.393	1	-3
482.564	1	-10
482.734	1	1
482.904	1	-1
483.075	1	3
483.245	1	3
483.415	1	-2
483.586	1	3
483.756	1	3
483.926	1	-1
484.097	1	8
484.267	1	-7
484.437	1	1
484.608	1	9
484.778	1	0
484.948	1	4
485.119	1	0
485.289	1	-6
485.459	1	-1
485.630	1	11
485.800	1	3
485.970	1	0
486.141	1	1
486.311	1	7
486.481	1	-7
486.652	1	-1
486.822	1	4
486.992	1	5
487.163	1	7
487.333	1	0
487.503	1	2
487.674	1	15
487.844	1	-5
488.014	1	-2
488.185	1	14
488.355	1	0
488.525	1	8
488.696	1	9
488.866	1	10
489.036	1	-5
489.207	1	6
489.377	1	6
489.547	1	4
489.718	1	-2
489.888	1	3
490.058	1	-1
490.228	1	4
490.399	1	-8
490.569	1	8
490.739	1	5
490.910	1	1
491.080	1	0
491.250	1	1
491.421	1	4
491.591	1	8
491.761	1	2
491.932	1	0
492.102	1	5
492.272	1	1
492.442	1	2
492.613	1	0
492.783	1	7
492.953	1	8
493.124	1	5
493.294	1	0
493.464	1	9
493.635	1	2
493.805	1	5
493.975	1	-3
494.145	1	-3
494.316	1	-2
494.486	1	-13
494.656	1	6
494.827	1	3
494.997	1	10
495.167	1	-2
495.337	1	9
495.508	1	7
495.678	1	8
495.848	1	-5
496.019	1	0
496.189	1	11
496.359	1	0
496.529	1	2
496.700	1	-3
496.870	1	-2
497.040	1	-10
497.211	1	-5
497.381	1	-3
497.551	1	-9
497.721	1	12
497.892	1	9
498.062	1	20
498.232	1	6
498.403	1	6
498.573	1	6
498.743	1	7
498.913	1	2
499.084	1	-6
499.254	1	5
499.424	1	2
499.594	1	10
499.765	1	6
499.935	1	20
500.105	1	-7
500.275	1	0
500.446	1	0
500.616	1	4
500.786	1	5
500.956	1	5
501.127	1	0
501.297	1	16
501.467	1	5
501.638	1	-2
501.808	1	-4
501.978	1	-4
502.148	1	4
502.319	1	-1
502.489	1	7
502.659	1	3
502.829	1	10
503.000	1	3
503.170	1	3
503.340	1	10
503.510	1	-2
503.681	1	-9
503.851	1	2
504.021	1	1
504.191	1	-3
504.362	1	-1
504.532	1	1
504.702	1	1
504.872	1	-2
505.042	1	6
505.213	1	8
505.383	1	-1
505.553	1	3
505.723	1	-1
505.894	1	9
506.064	1	4
506.234	1	5
506.404	1	8
506.575	1	-10
506.745	1	3
506.915	1	6
507.085	1	-13
507.256	1	2
507.426	1	0
507.596	1	11
507.766	1	-1
507.936	1	-3
508.107	1	6
508.277	1	5
508.447	1	0
508.617	1	1
508.788	1	-13
508.958	1	2
509.128	1	-4
509.298	1	0
509.468	1	-2
509.639	1	4
509.809	1	18
509.979	1	6
510.149	1	6
510.319	1	9
510.490	1	0
510.660	1	5
510.830	1	-3
511.000	1	-1
511.171	1	-11
511.341	1	8
511.511	1	16
511.681	1	4
511.851	1	9
512.022	1	4
512.192	1	1
512.362	1	3
512.532	1	1
512.702	1	8
512.873	1	-5
513.043	1	10
513.213	1	1
513.383	1	6
513.553	1	-4
513.724	1	5
513.894	1	0
514.064	1	-6
514.234	1	6
514.404	1	7
514.575	1	5
514.745	1	-7
514.915	1	-15
515.085	1	6
515.255	1	21
515.425	1	3
515.596	1	-3
515.766	1	5
515.936	1	5
516.106	1	-4
516.276	1	5
516.447	1	6
516.617	1	7
516.787	1	-4
516.957	1	12
517.127	1	11
517.297	1	-4
517.468	1	5
517.638	1	-1
517.808	1	10
517.978	1	10
518.148	1	7
518.319	1	12
518.489	1	5
518.659	1	9
518.829	1	-2
518.999	1	-9
519.169	1	-1
519.340	1	3
519.510	1	1
519.680	1	12
519.850	1	7
520.020	1	14
520.190	1	-7
520.361	1	5
520.531	1	-1
520.701	1	6
520.871	1	0
521.041	1	1
521.211	1	7
521.382	1	4
521.552	1	9
521.722	1	17
521.892	1	0
522.062	1	-9
522.232	1	7
522.402	1	2
522.573	1	-3
522.743	1	-4
522.913	1	3
523.083	1	5
523.253	1	-1
523.423	1	10
523.593	1	-9
523.764	1	8
523.934	1	4
524.104	1	1
524.274	1	2
524.444	1	-2
524.614	1	1
524.784	1	15
524.955	1	8
525.125	1	2
525.295	1	6
525.465	1	-6
525.635	1	7
525.805	1	0
525.975	1	4
526.146	1	4
526.316	1	15
526.486	1	4
526.656	1	8
526.826	1	-7
526.996	1	8
527.166	1	4
527.337	1	8
527.507	1	-5
527.677	1	17
527.847	1	9
528.017	1	-20
528.187	1	-5
528.357	1	-1
528.527	1	-3
528.698	1	3
528.868	1	-7
529.038	1	0
529.208	1	6
529.378	1	1
529.548	1	-9
529.718	1	6
529.888	1	1
530.058	1	4
530.229	1	7
530.399	1	7
530.569	1	-3
530.739	1	3
530.909	1	-2
531.079	1	-14
531.249	1	3
531.419	1	5
531.589	1	-4
531.760	1	15
531.930	1	1
532.100	1	-5
532.270	1	-4
532.440	1	-5
532.610	1	4
532.780	1	-2
532.950	1	-14
533.120	1	8
533.290	1	3
533.461	1	-13
533.631	1	-2
533.801	1	-10
533.971	1	6
534.141	1	-6
534.311	1	0
534.481	1	0
534.651	1	0
534.821	1	0
534.991	1	-1
535.162	1	9
535.332	1	7
535.502	1	4
535.672	1	2
535.842	1	0
536.012	1	4
536.182	1	6
536.352	1	5
536.522	1	8
536.692	1	5
536.862	1	9
537.032	1	6
537.203	1	8
537.373	1	10
537.543	1	12
537.713	1	3
537.883	1	0
538.053	1	-1
538.223	1	16
538.393	1	-3
538.563	1	0
538.733	1	9
538.903	1	-7
539.073	1	-12
539.243	1	-12
539.413	1	-1
539.584	1	1
539.754	1	-6
539.924	1	3
540.094	1	-1
540.264	1	-4
540.434	1	-5
540.604	1	2
540.774	1	4
540.944	1	5
541.114	1	15
541.284	1	6
541.454	1	-3
541.624	1	-6
541.794	1	0
541.964	1	8
542.134	1	3
542.305	1	10
542.475	1	8
542.645	1	4
542.815	1	3
542.985	1	4
543.155	1	4
543.325	1	-2
543.495	1	4
543.665	1	14
543.835	1	-2
544.005	1	-2
544.175	1	2
544.345	1	9
544.515	1	0
544.685	1	0
544.855	1	8
545.025	1	15
545.195	1	1
545.365	1	-1
545.535	1	7
545.705	1	2
545.875	1	-5
546.045	1	5
546.216	1	0
546.386	1	4
546.556	1	12
546.726	1	3
546.896	1	15
547.066	1	-3
547.236	1	3
547.406	1	-6
547.576	1	11
547.746	1	-5
547.916	1	6
548.086	1	3
548.256	1	7
548.426	1	2
548.596	1	3
548.766	1	4
548.936	1	-5
549.106	1	16
549.276	1	6
549.446	1	-4
549.616	1	8
549.786	1	18
549.956	1	5
550.126	1	5
550.296	1	13
550.466	1	4
550.636	1	0
550.806	1	-2
550.976	1	-2
551.146	1	11
551.316	1	15
551.486	1	6
551.656	1	2
551.826	1	14
551.996	1	3
552.166	1	-3
552.336	1	4
552.506	1	-12
552.676	1	4
552.846	1	14
553.016	1	-1
553.186	1	3
553.356	1	4
553.526	1	8
553.696	1	11
553.866	1	-2
554.036	1	3
554.206	1	-4
554.376	1	-8
554.546	1	8
554.716	1	-5
554.886	1	8
555.056	1	-1
555.226	1	14
555.396	1	3
555.566	1	9
555.736	1	0
555.906	1	4
556.076	1	-2
556.246	1	15
556.416	1	3
556.586	1	2
556.756	1	14
556.926	1	12
557.096	1	4
557.266	1	4
557.436	1	-5
557.606	1	7
557.776	1	-6
557.946	1	1
558.116	1	6
558.286	1	2
558.456	1	1
558.626	1	13
558.796	1	-11
558.966	1	0
559.136	1	2
559.306	1	10
559.476	1	5
559.646	1	3
559.816	1	3
559.986	1	10
560.155	1	-3
560.325	1	-4
560.495	1	6
560.665	1	10
560.835	1	4
561.005	1	-5
561.175	1	-3
561.345	1	-5
561.515	1	-3
561.685	1	5
561.855	1	-3
562.025	1	4
562.195	1	8
562.365	1	1
562.535	1	5
562.705	1	4
562.875	1	0
563.045	1	2
563.215	1	-1
563.385	1	11
563.555	1	17
563.725	1	-3
563.895	1	10
564.064	1	12
564.234	1	5
564.404	1	-8
564.574	1	11
564.744	1	1
564.914	1	8
565.084	1	9
565.254	1	2
565.424	1	-4
565.594	1	2
565.764	1	6
565.934	1	-2
566.104	1	1
566.274	1	-6
566.444	1	4
566.614	1	-11
566.783	1	-1
566.953	1	9
567.123	1	1
567.293	1	5
567.463	1	11
567.633	1	3
567.803	1	4
567.973	1	3
568.143	1	4
568.313	1	6
568.483	1	8
568.653	1	2
568.823	1	8
568.993	1	13
569.162	1	0
569.332	1	0
569.502	1	1
569.672	1	4
569.842	1	3
570.012	1	-5
570.182	1	-1
570.352	1	12
570.522	1	1
570.692	1	-6
570.862	1	11
571.031	1	1
571.201	1	5
571.371	1	-9
571.541	1	9
571.711	1	2
571.881	1	3
572.051	1	11
572.221	1	4
572.391	1	-10
572.561	1	1
572.731	1	0
572.900	1	-1
573.070	1	-2
573.240	1	2
573.410	1	2
573.580	1	5
573.750	1	4
573.920	1	-12
574.090	1	9
574.260	1	-5
574.430	1	-2
574.599	1	-4
574.769	1	7
574.939	1	8
575.109	1	3
575.279	1	3
575.449	1	6
575.619	1	2
575.789	1	-6
575.959	1	-3
576.128	1	-10
576.298	1	4
576.468	1	10
576.638	1	-3
576.808	1	-1
576.978	1	6
577.148	1	-8
577.318	1	2
577.487	1	-6
577.657	1	12
577.827	1	0
577.997	1	4
578.167	1	11
578.337	1	-2
578.507	1	4
578.677	1	6
578.846	1	7
579.016	1	8
579.186	1	7
579.356	1	9
579.526	1	6
579.696	1	-2
579.866	1	10
580.036	1	0
580.205	1	-8
580.375	1	8
580.545	1	11
580.715	1	1
580.885	1	10
581.055	1	1
581.225	1	-3
581.394	1	-1
581.564	1	-3
581.734	1	-1
581.904	1	10
582.074	1	4
582.244	1	17
582.414	1	16
582.583	1	11
582.753	1	-6
582.923	1	1
583.093	1	4
583.263	1	-3
583.433	1	-10
583.603	1	6
583.772	1	-2
583.942	1	8
584.112	1	6
584.282	1	10
584.452	1	-1
584.622	1	-1
584.791	1	3
584.961	1	12
585.131	1	7
585.301	1	-1
585.471	1	7
585.641	1	3
585.811	1	4
585.980	1	2
586.150	1	12
586.320	1	8
586.490	1	-2
586.660	1	3
586.830	1	9
586.999	1	2
587.169	1	-3
587.339	1	0
587.509	1	1
587.679	1	1
587.849	1	7
588.018	1	3
588.188	1	10
588.358	1	-2
588.528	1	-6
588.698	1	-4
588.867	1	4
589.037	1	12
589.207	1	-4
589.377	1	16
589.547	1	2
589.717	1	1
589.886	1	1
590.056	1	-2
590.226	1	5
590.396	1	2
590.566	1	1
590.735	1	2
590.905	1	-4
591.075	1	4
591.245	1	9
591.415	1	3
591.585	1	5
591.754	1	-10
591.924	1	1
592.094	1	-6
592.264	1	10
592.434	1	12
592.603	1	9
592.773	1	12
592.943	1	-7
593.113	1	1
593.283	1	7
593.452	1	3
593.622	1	1
593.792	1	8
593.962	1	15
594.132	1	4
594.301	1	5
594.471	1	-3
594.641	1	-4
594.811	1	-6
594.981	1	-11
595.150	1	-5
595.320	1	11
595.490	1	-7
595.660	1	-8
595.829	1	4
595.999	1	3
596.169	1	4
596.339	1	-3
596.509	1	-5
596.678	1	-5
596.848	1	0
597.018	1	2
597.188	1	-4
597.358	1	3
597.527	1	4
597.697	1	-2
597.867	1	7
598.037	1	-1
598.206	1	0
598.376	1	-2
598.546	1	7
598.716	1	3
598.885	1	9
599.055	1	2
599.225	1	4
599.395	1	0
599.565	1	-6
599.734	1	8
599.904	1	10
600.074	1	14
600.244	1	15
600.413	1	-1
600.583	1	7
600.753	1	1
600.923	1	-6
601.092	1	8
601.262	1	-1
601.432	1	0
601.602	1	3
601.771	1	-6
601.941	1	9
602.111	1	-7
602.281	1	5
602.451	1	2
602.620	1	1
602.790	1	-10
602.960	1	-3
603.130	1	3
603.299	1	2
603.469	1	6
603.639	1	-7
603.809	1	15
603.978	1	-6
604.148	1	-5
604.318	1	4
604.487	1	-5
604.657	1	9
604.827	1	10
604.997	1	-1
605.166	1	-1
605.336	1	6
605.506	1	1
605.676	1	5
605.845	1	-3
606.015	1	9
606.185	1	8
606.355	1	4
606.524	1	3
606.694	1	2
606.864	1	3
607.034	1	6
607.203	1	2
607.373	1	5
607.543	1	-9
607.712	1	-4
607.882	1	-9
608.052	1	-5
608.222	1	7
608.391	1	6
608.561	1	14
608.731	1	3
608.901	1	0
609.070	1	3
609.240	1	2
609.410	1	2
609.579	1	-10
609.749	1	-3
609.919	1	-10
610.089	1	1
610.258	1	4
610.428	1	-3
610.598	1	6
610.767	1	2
610.937	1	10
611.107	1	0
611.277	1	1
611.446	1	8
611.616	1	-8
611.786	1	5
611.955	1	7
612.125	1	1
612.295	1	3
612.465	1	3
612.634	1	8
612.804	1	12
612.974	1	0
613.143	1	7
613.313	1	-4
613.483	1	-7
613.652	1	5
613.822	1	5
613.992	1	5
614.162	1	6
614.331	1	10
614.501	1	-5
614.671	1	13
614.840	1	2
615.010	1	-2
615.180	1	7
615.349	1	3
615.519	1	13
615.689	1	14
615.858	1	-2
616.028	1	-4
616.198	1	8
616.368	1	6
616.537	1	-3
616.707	1	3
616.877	1	-9
617.046	1	-4
617.216	1	4
617.386	1	11
617.555	1	-5
617.725	1	-2
617.895	1	2
618.064	1	8
618.234	1	-3
618.404	1	-4
618.573	1	3
618.743	1	-2
618.913	1	9
619.082	1	2
619.252	1	17
619.422	1	-8
619.591	1	2
619.761	1	-12
619.931	1	2
620.100	1	-1
620.270	1	1
620.440	1	0
620.609	1	-7
620.779	1	4
620.949	1	-4
621.118	1	7
621.288	1	1
621.458	1	3
621.627	1	7
621.797	1	-4
621.967	1	4
622.136	1	0
622.306	1	7
622.476	1	8
622.645	1	3
622.815	1	2
622.985	1	-4
623.154	1	1
623.324	1	0
623.494	1	14
623.663	1	0
623.833	1	3
624.002	1	-10
624.172	1	1
624.342	1	-14
624.511	1	-5
624.681	1	6
624.851	1	2
625.020	1	-10
625.190	1	6
625.360	1	-4
625.529	1	6
625.699	1	5
625.869	1	6
626.038	1	9
626.208	1	1
626.377	1	6
626.547	1	21
626.717	1	0
626.886	1	5
627.056	1	1
627.226	1	1
627.395	1	-4
627.565	1	4
627.735	1	13
627.904	1	1
628.074	1	4
628.243	1	7
628.413	1	-1
628.583	1	-11
628.752	1	-3
628.922	1	-9
629.091	1	8
629.261	1	-1
629.431	1	7
629.600	1	23
629.770	1	-5
629.940	1	1
630.109	1	-5
630.279	1	-3
630.448	1	-3
630.618	1	14
630.788	1	-1
630.957	1	8
631.127	1	4
631.297	1	-1
631.466	1	3
631.636	1	2
631.805	1	14
631.975	1	-1
632.145	1	17
632.314	1	-3
632.484	1	2
632.653	1	-2
632.823	1	7
632.993	1	3
633.162	1	4
633.332	1	-4
633.501	1	-10
633.671	1	-1
633.841	1	18
634.010	1	9
634.180	1	1
634.349	1	9
634.519	1	-9
634.689	1	6
634.858	1	-10
635.028	1	1
635.197	1	10
635.367	1	-8
635.537	1	-3
635.706	1	0
635.876	1	5
636.045	1	8
636.215	1	5
636.384	1	5
636.554	1	4
636.724	1	-2
636.893	1	5
637.063	1	2
637.232	1	6
637.402	1	6
637.572	1	7
637.741	1	-2
637.911	1	-2
638.080	1	0
638.250	1	8
638.419	1	9
638.589	1	10
638.759	1	1
638.928	1	8
639.098	1	-7
639.267	1	0
639.437	1	4
639.606	1	5
639.776	1	4
639.946	1	5
640.115	1	1
640.285	1	4
640.454	1	-1
640.624	1	11
640.793	1	7
640.963	1	3
641.132	1	-12
641.302	1	14
641.472	1	1
641.641	1	3
641.811	1	-1
641.980	1	-1
642.150	1	2
642.319	1	3
642.489	1	4
642.659	1	-1
642.828	1	2
642.998	1	-2
643.167	1	8
643.337	1	4
643.506	1	1
643.676	1	-2
643.845	1	-4
644.015	1	9
644.184	1	7
644.354	1	1
644.524	1	0
644.693	1	13
644.863	1	7
645.032	1	5
645.202	1	2
645.371	1	9
645.541	1	0
645.710	1	2
645.880	1	13
646.049	1	2
646.219	1	-9
646.388	1	5
646.558	1	6
646.728	1	10
646.897	1	-2
647.067	1	-5
647.236	1	4
647.406	1	2
647.575	1	-1
647.745	1	-4
647.914	1	5
648.084	1	7
648.253	1	2
648.423	1	-6
648.592	1	8
648.762	1	8
648.931	1	7
649.101	1	13
649.270	1	0
649.440	1	-4
649.610	1	2
649.779	1	2
649.949	1	-2
650.118	1	-3
650.288	1	-1
650.457	1	10
650.627	1	3
650.796	1	7
650.966	1	-4
651.135	1	9
651.305	1	-1
651.474	1	6
651.644	1	-9
651.813	1	-11
651.983	1	8
652.152	1	-2
652.322	1	7
652.491	1	17
652.661	1	14
652.830	1	4
653.000	1	2
653.169	1	9
653.339	1	-4
653.508	1	-2
653.678	1	4
653.847	1	5
654.017	1	9
654.186	1	6
654.356	1	-2
654.525	1	7
654.695	1	-1
654.864	1	-5
655.034	1	0
655.203	1	-1
655.373	1	3
655.542	1	4
655.712	1	-4
655.881	1	1
656.051	1	-2
656.220	1	15
656.390	1	3
656.559	1	-3
656.729	1	5
656.898	1	-2
657.068	1	2
657.237	1	9
657.406	1	7
657.576	1	5
657.745	1	-3
657.915	1	6
658.084	1	4
658.254	1	3
658.423	1	-1
658.593	1	3
658.762	1	-5
658.932	1	7
659.101	1	0
659.271	1	10
659.440	1	1
659.610	1	8
659.779	1	1
659.949	1	-5
660.118	1	-1
660.288	1	9
660.457	1	3
660.626	1	-7
660.796	1	2
660.965	1	14
661.135	1	-6
661.304	1	3
661.474	1	12
661.643	1	0
661.813	1	-3
661.982	1	-3
662.152	1	-3
662.321	1	-2
662.491	1	3
662.660	1	-3
662.829	1	-7
662.999	1	0
663.168	1	0
663.338	1	8
663.507	1	-14
663.677	1	8
663.846	1	5
664.016	1	-6
664.185	1	-2
664.354	1	1
664.524	1	-5
664.693	1	6
664.863	1	13
665.032	1	10
665.202	1	5
665.371	1	2
665.541	1	5
665.710	1	0
665.879	1	-1
666.049	1	5
666.218	1	-3
666.388	1	-1
666.557	1	-1
666.727	1	3
666.896	1	6
667.065	1	0
667.235	1	5
667.404	1	4
667.574	1	14
667.743	1	-6
667.913	1	4
668.082	1	-5
668.251	1	4
668.421	1	2
668.590	1	0
668.760	1	5
668.929	1	-3
669.099	1	12
669.268	1	-1
669.437	1	0
669.607	1	1
669.776	1	-6
669.946	1	-4
670.115	1	-3
670.285	1	4
670.454	1	-2
670.623	1	-2
670.793	1	7
670.962	1	2
671.132	1	-7
671.301	1	2
671.470	1	2
671.640	1	-3
671.809	1	12
671.979	1	12
672.148	1	5
672.317	1	1
672.487	1	9
672.656	1	2
672.826	1	9
672.995	1	-13
673.164	1	-1
673.334	1	4
673.503	1	-1
673.673	1	6
673.842	1	-1
674.011	1	1
674.181	1	-12
674.350	1	0
674.520	1	0
674.689	1	3
674.858	1	14
675.028	1	6
675.197	1	0
675.367	1	9
675.536	1	2
675.705	1	-8
675.875	1	2
676.044	1	-4
676.214	1	-6
676.383	1	7
676.552	1	-5
676.722	1	4
676.891	1	-3
677.060	1	-3
677.230	1	-5
677.399	1	-1
677.569	1	5
677.738	1	-12
677.907	1	13
678.077	1	-2
678.246	1	-1
678.416	1	-5
678.585	1	-5
678.754	1	1
678.924	1	-2
679.093	1	1
679.262	1	5
679.432	1	0
679.601	1	-1
679.771	1	-2
679.940	1	8
680.109	1	-4
680.279	1	-3
680.448	1	-2
680.617	1	12
680.787	1	3
680.956	1	7
681.125	1	3
681.295	1	-2
681.464	1	12
681.634	1	4
681.803	1	9
681.972	1	9
682.142	1	3
682.311	1	-6
682.480	1	-4
682.650	1	3
682.819	1	-8
682.988	1	7
683.158	1	11
683.327	1	8
683.496	1	-4
683.666	1	-3
683.835	1	5
684.004	1	0
684.174	1	2
684.343	1	1
684.512	1	11
684.682	1	4
684.851	1	11
685.021	1	7
685.190	1	11
685.359	1	6
685.529	1	0
685.698	1	7
685.867	1	2
686.037	1	6
686.206	1	4
686.375	1	15
686.545	1	-1
686.714	1	1
686.883	1	5
687.053	1	3
687.222	1	-2
687.391	1	-1
687.561	1	0
687.730	1	-4
687.899	1	2
688.069	1	3
688.238	1	13
688.407	1	2
688.577	1	7
688.746	1	-15
