340.368	1	1
340.539	1	1
340.710	1	8
340.881	1	-11
341.052	1	-13
341.223	1	8
341.394	1	-12
341.565	1	-6
341.737	1	3
341.908	1	-5
342.079	1	3
342.250	1	-10
342.421	1	-6
342.592	1	2
342.763	1	-5
342.934	1	-7
343.105	1	-10
343.276	1	-1
343.447	1	-6
343.618	1	-9
343.789	1	3
343.960	1	1
344.131	1	-2
344.302	1	-1
344.473	1	1
344.644	1	3
344.815	1	-5
344.986	1	-3
345.157	1	-1
345.328	1	5
345.499	1	5
345.670	1	-13
345.841	1	-7
346.012	1	-8
346.183	1	-9
346.354	1	8
346.526	1	8
346.697	1	-3
346.868	1	-2
347.039	1	5
347.210	1	-1
347.381	1	10
347.552	1	4
347.723	1	2
347.894	1	-5
348.065	1	-2
348.236	1	-11
348.407	1	1
348.578	1	0
348.749	1	-2
348.920	1	12
349.091	1	1
349.262	1	-2
349.433	1	-1
349.604	1	3
349.775	1	-4
349.946	1	0
350.117	1	1
350.288	1	1
350.459	1	-3
350.630	1	-7
350.801	1	6
350.972	1	12
351.143	1	7
351.314	1	-11
351.485	1	6
351.656	1	-2
351.827	1	-2
351.998	1	0
352.169	1	-5
352.340	1	2
352.511	1	-1
352.682	1	1
352.853	1	6
353.024	1	4
353.195	1	0
353.366	1	2
353.537	1	0
353.708	1	1
353.879	1	-2
354.050	1	0
354.221	1	2
354.392	1	-12
354.563	1	1
354.734	1	2
354.905	1	7
355.076	1	-5
355.247	1	2
355.418	1	5
355.589	1	-15
355.760	1	-2
355.931	1	0
356.102	1	4
356.273	1	-1
356.444	1	2
356.615	1	3
356.785	1	-3
356.956	1	-7
357.127	1	9
357.298	1	6
357.469	1	-5
357.640	1	1
357.811	1	-3
357.982	1	-1
358.153	1	-2
358.324	1	10
358.495	1	3
358.666	1	-5
358.837	1	7
359.008	1	8
359.179	1	14
359.350	1	1
359.521	1	0
359.692	1	6
359.863	1	-6
360.034	1	-6
360.205	1	9
360.376	1	-11
360.547	1	1
360.718	1	-4
360.889	1	7
361.060	1	2
361.231	1	5
361.401	1	1
361.572	1	2
361.743	1	-6
361.914	1	1
362.085	1	-4
362.256	1	-5
362.427	1	0
362.598	1	6
362.769	1	8
362.940	1	-10
363.111	1	9
363.282	1	6
363.453	1	3
363.624	1	6
363.795	1	6
363.966	1	7
364.137	1	-4
364.308	1	1
364.478	1	-3
364.649	1	2
364.820	1	-6
364.991	1	8
365.162	1	7
365.333	1	-3
365.504	1	0
365.675	1	3
365.846	1	3
366.017	1	11
366.188	1	11
366.359	1	8
366.530	1	6
366.701	1	3
366.871	1	11
367.042	1	1
367.213	1	9
367.384	1	11
367.555	1	-2
367.726	1	11
367.897	1	15
368.068	1	2
368.239	1	-3
368.410	1	2
368.581	1	6
368.752	1	12
368.923	1	-8
369.093	1	10
369.264	1	-8
369.435	1	-2
369.606	1	-5
369.777	1	11
369.948	1	4
370.119	1	8
370.290	1	1
370.461	1	7
370.632	1	3
370.803	1	4
370.973	1	-8
371.144	1	8
371.315	1	7
371.486	1	4
371.657	1	-3
371.828	1	9
371.999	1	16
372.170	1	-4
372.341	1	7
372.512	1	3
372.682	1	-5
372.853	1	14
373.024	1	8
373.195	1	13
373.366	1	11
373.537	1	13
373.708	1	6
373.879	1	0
374.050	1	17
374.220	1	6
374.391	1	7
374.562	1	1
374.733	1	5
374.904	1	10
375.075	1	9
375.246	1	9
375.417	1	13
375.588	1	10
375.758	1	16
375.929	1	12
376.100	1	2
376.271	1	-3
376.442	1	5
376.613	1	-6
376.784	1	1
376.955	1	4
377.125	1	4
377.296	1	-4
377.467	1	1
377.638	1	3
377.809	1	17
377.980	1	-4
378.151	1	7
378.321	1	12
378.492	1	5
378.663	1	0
378.834	1	15
379.005	1	11
379.176	1	0
379.347	1	4
379.518	1	3
379.688	1	10
379.859	1	12
380.030	1	13
380.201	1	0
380.372	1	1
380.543	1	17
380.714	1	10
380.884	1	20
381.055	1	-8
381.226	1	2
381.397	1	-4
381.568	1	-1
381.739	1	4
381.910	1	6
382.080	1	4
382.251	1	4
382.422	1	11
382.593	1	-5
382.764	1	-8
382.935	1	6
383.105	1	17
383.276	1	-1
383.447	1	8
383.618	1	-2
383.789	1	18
383.960	1	0
384.130	1	-6
384.301	1	1
384.472	1	4
384.643	1	9
384.814	1	6
384.985	1	22
385.156	1	8
385.326	1	3
385.497	1	0
385.668	1	-4
385.839	1	8
386.010	1	11
386.180	1	0
386.351	1	17
386.522	1	-12
386.693	1	1
386.864	1	5
387.035	1	3
387.205	1	5
387.376	1	-7
387.547	1	-4
387.718	1	-2
387.889	1	12
388.060	1	6
388.230	1	4
388.401	1	-3
388.572	1	0
388.743	1	1
388.914	1	-3
389.084	1	-1
389.255	1	-3
389.426	1	1
389.597	1	0
389.768	1	10
389.939	1	-1
390.109	1	0
390.280	1	-6
390.451	1	1
390.622	1	3
390.793	1	4
390.963	1	2
391.134	1	5
391.305	1	5
391.476	1	5
391.647	1	2
391.817	1	-1
391.988	1	4
392.159	1	-4
392.330	1	3
392.501	1	-10
392.671	1	1
392.842	1	-5
393.013	1	8
393.184	1	9
393.355	1	-13
393.525	1	9
393.696	1	9
393.867	1	-1
394.038	1	5
394.208	1	2
394.379	1	2
394.550	1	-6
394.721	1	4
394.892	1	7
395.062	1	-5
395.233	1	-8
395.404	1	-2
395.575	1	6
395.746	1	1
395.916	1	6
396.087	1	-5
396.258	1	-3
396.429	1	3
396.599	1	7
396.770	1	-11
396.941	1	-2
397.112	1	-5
397.283	1	6
397.453	1	4
397.624	1	6
397.795	1	3
397.966	1	10
398.136	1	2
398.307	1	7
398.478	1	9
398.649	1	-9
398.819	1	0
398.990	1	0
399.161	1	13
399.332	1	1
399.503	1	-5
399.673	1	8
399.844	1	-1
400.015	1	-4
400.186	1	7
400.356	1	4
400.527	1	4
400.698	1	13
400.869	1	-2
401.039	1	9
401.210	1	4
401.381	1	3
401.552	1	3
401.722	1	-2
401.893	1	-3
402.064	1	-11
402.235	1	8
402.405	1	11
402.576	1	-2
402.747	1	10
402.918	1	-3
403.088	1	1
403.259	1	-4
403.430	1	5
403.601	1	-7
403.771	1	6
403.942	1	-11
404.113	1	0
404.284	1	5
404.454	1	2
404.625	1	1
404.796	1	3
404.967	1	5
405.137	1	-4
405.308	1	-10
405.479	1	8
405.649	1	-2
405.820	1	6
405.991	1	9
406.162	1	12
406.332	1	5
406.503	1	-6
406.674	1	-2
406.845	1	5
407.015	1	-1
407.186	1	1
407.357	1	8
407.527	1	2
407.698	1	-7
407.869	1	7
408.040	1	-5
408.210	1	-5
408.381	1	-4
408.552	1	7
408.722	1	-8
408.893	1	-1
409.064	1	4
409.235	1	9
409.405	1	-5
409.576	1	2
409.747	1	-7
409.917	1	-8
410.088	1	-2
410.259	1	-3
410.430	1	-3
410.600	1	1
410.771	1	-6
410.942	1	-6
411.112	1	7
411.283	1	5
411.454	1	1
411.625	1	-2
411.795	1	-17
411.966	1	1
412.137	1	-1
412.307	1	-4
412.478	1	2
412.649	1	1
412.819	1	4
412.990	1	-13
413.161	1	-1
413.332	1	1
413.502	1	-3
413.673	1	12
413.844	1	-4
414.014	1	1
414.185	1	0
414.356	1	4
414.526	1	7
414.697	1	-3
414.868	1	6
415.038	1	-7
415.209	1	5
415.380	1	5
415.550	1	4
415.721	1	6
415.892	1	4
416.063	1	-5
416.233	1	19
416.404	1	-6
416.575	1	3
416.745	1	-5
416.916	1	3
417.087	1	1
417.257	1	-1
417.428	1	-4
417.599	1	9
417.769	1	1
417.940	1	0
418.111	1	0
418.281	1	2
418.452	1	-10
418.623	1	-4
418.793	1	12
418.964	1	1
419.135	1	0
419.305	1	-2
419.476	1	1
419.647	1	-5
419.817	1	-5
419.988	1	7
420.159	1	2
420.329	1	-2
420.500	1	-9
420.671	1	14
420.841	1	-8
421.012	1	1
421.183	1	3
421.353	1	6
421.524	1	-3
421.695	1	0
421.865	1	1
422.036	1	6
422.206	1	10
422.377	1	6
422.548	1	-9
422.718	1	2
422.889	1	-13
423.060	1	-2
423.230	1	4
423.401	1	-3
423.572	1	5
423.742	1	3
423.913	1	8
424.084	1	5
424.254	1	0
424.425	1	1
424.595	1	-3
424.766	1	1
424.937	1	-5
425.107	1	1
425.278	1	1
425.449	1	-1
425.619	1	-5
425.790	1	0
425.961	1	0
426.131	1	-4
426.302	1	3
426.472	1	-10
426.643	1	4
426.814	1	7
426.984	1	-7
427.155	1	-2
427.326	1	6
427.496	1	5
427.667	1	-6
427.837	1	4
428.008	1	4
428.179	1	-9
428.349	1	6
428.520	1	-5
428.691	1	2
428.861	1	24
429.032	1	-8
429.202	1	-7
429.373	1	-2
429.544	1	3
429.714	1	2
429.885	1	7
430.055	1	2
430.226	1	1
430.397	1	-9
430.567	1	14
430.738	1	10
430.909	1	7
431.079	1	-5
431.250	1	-6
431.420	1	8
431.591	1	2
431.762	1	2
431.932	1	-4
432.103	1	15
432.273	1	-1
432.444	1	-4
432.615	1	-7
432.785	1	11
432.956	1	2
433.126	1	1
433.297	1	2
433.468	1	0
433.638	1	2
433.809	1	-2
433.979	1	3
434.150	1	3
434.320	1	-6
434.491	1	-1
434.662	1	-10
434.832	1	7
435.003	1	-8
435.173	1	-1
435.344	1	6
435.515	1	-2
435.685	1	-3
435.856	1	0
436.026	1	-7
436.197	1	12
436.368	1	-8
436.538	1	6
436.709	1	-2
436.879	1	2
437.050	1	8
437.220	1	14
437.391	1	8
437.562	1	1
437.732	1	-7
437.903	1	13
438.073	1	-7
438.244	1	0
438.414	1	9
438.585	1	5
438.756	1	5
438.926	1	11
439.097	1	-5
439.267	1	1
439.438	1	7
439.608	1	4
439.779	1	1
439.949	1	2
440.120	1	-7
440.291	1	3
440.461	1	-5
440.632	1	3
440.802	1	9
440.973	1	-3
441.143	1	1
441.314	1	8
441.485	1	-13
441.655	1	7
441.826	1	0
441.996	1	11
442.167	1	-8
442.337	1	4
442.508	1	2
442.678	1	7
442.849	1	3
443.019	1	-1
443.190	1	-2
443.361	1	3
443.531	1	4
443.702	1	-1
443.872	1	5
444.043	1	0
444.213	1	7
444.384	1	-3
444.554	1	-8
444.725	1	1
444.895	1	5
445.066	1	-9
445.237	1	-12
445.407	1	4
445.578	1	4
445.748	1	-1
445.919	1	10
446.089	1	4
446.260	1	0
446.430	1	8
446.601	1	5
446.771	1	0
446.942	1	0
447.112	1	2
447.283	1	9
447.453	1	-9
447.624	1	-6
447.794	1	11
447.965	1	-2
448.135	1	-5
448.306	1	5
448.477	1	5
448.647	1	8
448.818	1	1
448.988	1	-1
449.159	1	-2
449.329	1	16
449.500	1	5
449.670	1	8
449.841	1	0
450.011	1	10
450.182	1	2
450.352	1	9
450.523	1	4
450.693	1	-3
450.864	1	8
451.034	1	0
451.205	1	10
451.375	1	-14
451.546	1	0
451.716	1	-4
451.887	1	2
452.057	1	-6
452.228	1	7
452.398	1	2
452.569	1	0
452.739	1	8
452.910	1	-5
453.080	1	8
453.251	1	7
453.421	1	-1
453.592	1	5
453.762	1	-4
453.933	1	0
454.103	1	0
454.274	1	-6
454.444	1	2
454.615	1	4
454.785	1	-2
454.956	1	0
455.126	1	3
455.297	1	5
455.467	1	5
455.638	1	-11
455.808	1	-2
455.979	1	-1
456.149	1	3
456.320	1	-9
456.490	1	4
456.661	1	-5
456.831	1	2
457.001	1	5
457.172	1	1
457.342	1	-3
457.513	1	-2
457.683	1	4
457.854	1	-3
458.024	1	-6
458.195	1	-1
458.365	1	4
458.536	1	-2
458.706	1	0
458.877	1	-7
459.047	1	-11
459.218	1	0
459.388	1	5
459.559	1	1
459.729	1	4
459.899	1	0
460.070	1	18
460.240	1	10
460.411	1	5
460.581	1	-2
460.752	1	-7
460.922	1	7
461.093	1	2
461.263	1	2
461.434	1	-3
461.604	1	-9
461.775	1	7
461.945	1	-2
462.115	1	-5
462.286	1	11
462.456	1	2
462.627	1	2
462.797	1	0
462.968	1	5
463.138	1	3
463.309	1	-2
463.479	1	2
463.649	1	3
463.820	1	-7
463.990	1	-1
464.161	1	-2
464.331	1	-4
464.502	1	2
464.672	1	-1
464.843	1	8
465.013	1	3
465.183	1	-9
465.354	1	1
465.524	1	7
465.695	1	-2
465.865	1	0
466.036	1	-8
466.206	1	8
466.376	1	-3
466.547	1	4
466.717	1	-4
466.888	1	2
467.058	1	-7
467.229	1	1
467.399	1	6
467.569	1	16
467.740	1	-12
467.910	1	-6
468.081	1	-8
468.251	1	7
468.422	1	-3
468.592	1	5
468.762	1	7
468.933	1	-4
469.103	1	-9
469.274	1	-1
469.444	1	19
469.614	1	-5
469.785	1	-4
469.955	1	7
470.126	1	4
470.296	1	-4
470.467	1	-8
470.637	1	3
470.807	1	1
470.978	1	-7
471.148	1	8
471.319	1	-2
471.489	1	9
471.659	1	-5
471.830	1	2
472.000	1	7
472.171	1	-6
472.341	1	-11
472.511	1	-2
472.682	1	2
472.852	1	-1
473.023	1	-3
473.193	1	-10
473.363	1	6
473.534	1	-9
473.704	1	-7
473.875	1	8
474.045	1	3
474.215	1	0
474.386	1	9
474.556	1	2
474.727	1	5
474.897	1	-5
475.067	1	-1
475.238	1	2
475.408	1	0
475.578	1	4
475.749	1	-5
475.919	1	-3
476.090	1	8
476.260	1	8
476.430	1	0
476.601	1	-6
476.771	1	-3
476.942	1	1
477.112	1	3
477.282	1	0
477.453	1	2
477.623	1	-4
477.793	1	1
477.964	1	-7
478.134	1	1
478.305	1	-5
478.475	1	-10
478.645	1	4
478.816	1	13
478.986	1	-5
479.156	1	-9
479.327	1	-14
479.497	1	5
479.667	1	1
479.838	1	0
480.008	1	-4
480.179	1	8
480.349	1	-6
480.519	1	2
480.690	1	-4
480.860	1	2
481.030	1	-1
481.201	1	-1
481.371	1	7
481.541	1	-3
481.712	1	0
481.882	1	-3
482.053	1	5
482.223	1	-2
482.393	1	-9
482.564	1	-1
482.734	1	6
482.904	1	-3
483.075	1	-5
483.245	1	9
483.415	1	3
483.586	1	5
483.756	1	6
483.926	1	-4
484.097	1	-2
484.267	1	-8
484.437	1	4
484.608	1	4
484.778	1	2
484.948	1	-1
485.119	1	6
485.289	1	-9
485.459	1	1
485.630	1	12
485.800	1	3
485.970	1	-6
486.141	1	-3
486.311	1	-2
486.481	1	-6
486.652	1	6
486.822	1	11
486.992	1	2
487.163	1	1
487.333	1	-3
487.503	1	-1
487.674	1	9
487.844	1	-2
488.014	1	-1
488.185	1	7
488.355	1	-8
488.525	1	-2
488.696	1	5
488.866	1	4
489.036	1	0
489.207	1	8
489.377	1	-6
489.547	1	10
489.718	1	3
489.888	1	5
490.058	1	-3
490.228	1	6
490.399	1	-8
490.569	1	10
490.739	1	12
490.910	1	7
491.080	1	4
491.250	1	-2
491.421	1	-9
491.591	1	-7
491.761	1	5
491.932	1	2
492.102	1	-4
492.272	1	0
492.442	1	2
492.613	1	5
492.783	1	2
492.953	1	5
493.124	1	5
493.294	1	-2
493.464	1	7
493.635	1	2
493.805	1	-10
493.975	1	-9
494.145	1	-7
494.316	1	1
494.486	1	-6
494.656	1	3
494.827	1	-4
494.997	1	3
495.167	1	1
495.337	1	5
495.508	1	4
495.678	1	13
495.848	1	-4
496.019	1	-1
496.189	1	1
496.359	1	-9
496.529	1	-2
496.700	1	-2
496.870	1	4
497.040	1	-1
497.211	1	3
497.381	1	-16
497.551	1	-6
497.721	1	6
497.892	1	-1
498.062	1	9
498.232	1	-4
498.403	1	-1
498.573	1	8
498.743	1	7
498.913	1	-2
499.084	1	-2
499.254	1	6
499.424	1	7
499.594	1	5
499.765	1	-8
499.935	1	12
500.105	1	-5
500.275	1	-9
500.446	1	2
500.616	1	2
500.786	1	4
500.956	1	5
501.127	1	-4
501.297	1	0
501.467	1	-2
501.638	1	-6
501.808	1	-9
501.978	1	-9
502.148	1	15
502.319	1	-1
502.489	1	2
502.659	1	-7
502.829	1	11
503.000	1	-2
503.170	1	-2
503.340	1	2
503.510	1	3
503.681	1	-2
503.851	1	-2
504.021	1	5
504.191	1	-9
504.362	1	1
504.532	1	-4
504.702	1	15
504.872	1	-5
505.042	1	1
505.213	1	9
505.383	1	-1
505.553	1	6
505.723	1	-7
505.894	1	3
506.064	1	3
506.234	1	12
506.404	1	3
506.575	1	-9
506.745	1	1
506.915	1	-4
507.085	1	3
507.256	1	-4
507.426	1	-6
507.596	1	3
507.766	1	1
507.936	1	-6
508.107	1	-1
508.277	1	-8
508.447	1	-1
508.617	1	3
508.788	1	-5
508.958	1	-5
509.128	1	1
509.298	1	-1
509.468	1	3
509.639	1	-2
509.809	1	1
509.979	1	6
510.149	1	1
510.319	1	-4
510.490	1	-3
510.660	1	5
510.830	1	-8
511.000	1	2
511.171	1	-4
511.341	1	13
511.511	1	13
511.681	1	10
511.851	1	3
512.022	1	-5
512.192	1	-5
512.362	1	7
512.532	1	8
512.702	1	0
512.873	1	5
513.043	1	7
513.213	1	1
513.383	1	3
513.553	1	-2
513.724	1	3
513.894	1	-1
514.064	1	-8
514.234	1	-6
514.404	1	7
514.575	1	4
514.745	1	-1
514.915	1	-23
515.085	1	4
515.255	1	4
515.425	1	-2
515.596	1	-3
515.766	1	-2
515.936	1	6
516.106	1	-3
516.276	1	9
516.447	1	-1
516.617	1	-11
516.787	1	-3
516.957	1	5
517.127	1	-2
517.297	1	-5
517.468	1	5
517.638	1	-2
517.808	1	4
517.978	1	4
518.148	1	3
518.319	1	3
518.489	1	-3
518.659	1	10
518.829	1	2
518.999	1	-9
519.169	1	-1
519.340	1	5
519.510	1	-7
519.680	1	1
519.850	1	5
520.020	1	8
520.190	1	-5
520.361	1	6
520.531	1	-3
520.701	1	-3
520.871	1	-6
521.041	1	0
521.211	1	-4
521.382	1	-3
521.552	1	9
521.722	1	4
521.892	1	-6
522.062	1	0
522.232	1	1
522.402	1	4
522.573	1	0
522.743	1	0
522.913	1	-8
523.083	1	-14
523.253	1	-1
523.423	1	2
523.593	1	-18
523.764	1	6
523.934	1	3
524.104	1	3
524.274	1	-10
524.444	1	6
524.614	1	-6
524.784	1	2
524.955	1	-2
525.125	1	2
525.295	1	-1
525.465	1	-8
525.635	1	0
525.805	1	6
525.975	1	4
526.146	1	-1
526.316	1	4
526.486	1	6
526.656	1	5
526.826	1	-3
526.996	1	9
527.166	1	12
527.337	1	3
527.507	1	-1
527.677	1	14
527.847	1	4
528.017	1	-9
528.187	1	-4
528.357	1	-3
528.527	1	1
528.698	1	4
528.868	1	-3
529.038	1	-5
529.208	1	-1
529.378	1	-1
529.548	1	-7
529.718	1	-1
529.888	1	9
530.058	1	8
530.229	1	-2
530.399	1	-6
530.569	1	-4
530.739	1	-1
530.909	1	-1
531.079	1	-9
531.249	1	4
531.419	1	1
531.589	1	-4
531.760	1	-2
531.930	1	4
532.100	1	-3
532.270	1	-6
532.440	1	-2
532.610	1	2
532.780	1	-5
532.950	1	-8
533.120	1	11
533.290	1	0
533.461	1	-2
533.631	1	3
533.801	1	-6
533.971	1	-5
534.141	1	-10
534.311	1	0
534.481	1	-13
534.651	1	5
534.821	1	1
534.991	1	-1
535.162	1	7
535.332	1	-6
535.502	1	6
535.672	1	-2
535.842	1	0
536.012	1	-1
536.182	1	8
536.352	1	3
536.522	1	-1
536.692	1	-2
536.862	1	2
537.032	1	6
537.203	1	11
537.373	1	8
537.543	1	6
537.713	1	-3
537.883	1	-8
538.053	1	2
538.223	1	7
538.393	1	-12
538.563	1	-5
538.733	1	2
538.903	1	3
539.073	1	-8
539.243	1	-4
539.413	1	-11
539.584	1	6
539.754	1	-6
539.924	1	7
540.094	1	-9
540.264	1	-8
540.434	1	2
540.604	1	7
540.774	1	12
540.944	1	2
541.114	1	1
541.284	1	2
541.454	1	4
541.624	1	-3
541.794	1	12
541.964	1	4
542.134	1	2
542.305	1	5
542.475	1	4
542.645	1	-5
542.815	1	1
542.985	1	3
543.155	1	-8
543.325	1	-12
543.495	1	2
543.665	1	-3
543.835	1	4
544.005	1	2
544.175	1	-1
544.345	1	-6
544.515	1	-5
544.685	1	-12
544.855	1	11
545.025	1	8
545.195	1	1
545.365	1	6
545.535	1	4
545.705	1	-4
545.875	1	2
546.045	1	-7
546.216	1	6
546.386	1	-4
546.556	1	4
546.726	1	-9
546.896	1	14
547.066	1	6
547.236	1	10
547.406	1	-8
547.576	1	3
547.746	1	2
547.916	1	6
548.086	1	-3
548.256	1	-1
548.426	1	-2
548.596	1	5
548.766	1	6
548.936	1	-7
549.106	1	5
549.276	1	-9
549.446	1	6
549.616	1	-13
549.786	1	7
549.956	1	7
550.126	1	12
550.296	1	13
550.466	1	-1
550.636	1	-1
550.806	1	0
550.976	1	-2
551.146	1	15
551.316	1	7
551.486	1	-5
551.656	1	6
551.826	1	6
551.996	1	10
552.166	1	-6
552.336	1	2
552.506	1	-1
552.676	1	5
552.846	1	7
553.016	1	0
553.186	1	-9
553.356	1	-11
553.526	1	6
553.696	1	8
553.866	1	5
554.036	1	-1
554.206	1	-2
554.376	1	-4
554.546	1	11
554.716	1	-2
554.886	1	13
555.056	1	8
555.226	1	5
555.396	1	-2
555.566	1	2
555.736	1	3
555.906	1	6
556.076	1	8
556.246	1	0
556.416	1	-1
556.586	1	7
556.756	1	1
556.926	1	4
557.096	1	-1
557.266	1	6
557.436	1	0
557.606	1	1
557.776	1	-12
557.946	1	-3
558.116	1	-5
558.286	1	-1
558.456	1	-7
558.626	1	12
558.796	1	-1
558.966	1	0
559.136	1	-3
559.306	1	12
559.476	1	-3
559.646	1	-2
559.816	1	-10
559.986	1	5
560.155	1	0
560.325	1	5
560.495	1	1
560.665	1	5
560.835	1	0
561.005	1	1
561.175	1	-6
561.345	1	-9
561.515	1	3
561.685	1	1
561.855	1	-4
562.025	1	2
562.195	1	7
562.365	1	-5
562.535	1	-3
562.705	1	5
562.875	1	-2
563.045	1	-8
563.215	1	2
563.385	1	5
563.555	1	10
563.725	1	-1
563.895	1	14
564.064	1	12
564.234	1	-1
564.404	1	-8
564.574	1	17
564.744	1	7
564.914	1	-3
565.084	1	7
565.254	1	3
565.424	1	-7
565.594	1	5
565.764	1	-7
565.934	1	2
566.104	1	-4
566.274	1	-5
566.444	1	7
566.614	1	-4
566.783	1	-6
566.953	1	8
567.123	1	3
567.293	1	6
567.463	1	5
567.633	1	-6
567.803	1	-6
567.973	1	5
568.143	1	-5
568.313	1	-2
568.483	1	6
568.653	1	-7
568.823	1	3
568.993	1	1
569.162	1	3
569.332	1	-3
569.502	1	3
569.672	1	-9
569.842	1	-3
570.012	1	-2
570.182	1	4
570.352	1	0
570.522	1	-3
570.692	1	-4
570.862	1	8
571.031	1	5
571.201	1	1
571.371	1	-9
571.541	1	-4
571.711	1	2
571.881	1	3
572.051	1	2
572.221	1	2
572.391	1	-12
572.561	1	14
572.731	1	-6
572.900	1	-3
573.070	1	0
573.240	1	-2
573.410	1	-4
573.580	1	5
573.750	1	-1
573.920	1	-3
574.090	1	2
574.260	1	0
574.430	1	-10
574.599	1	-11
574.769	1	-4
574.939	1	0
575.109	1	-3
575.279	1	-4
575.449	1	1
575.619	1	-9
575.789	1	2
575.959	1	-2
576.128	1	-4
576.298	1	6
576.468	1	0
576.638	1	6
576.808	1	10
576.978	1	-5
577.148	1	-2
577.318	1	-6
577.487	1	-9
577.657	1	3
577.827	1	-5
577.997	1	-3
578.167	1	9
578.337	1	-3
578.507	1	12
578.677	1	-3
578.846	1	8
579.016	1	-5
579.186	1	6
579.356	1	-3
579.526	1	13
579.696	1	-9
579.866	1	7
580.036	1	5
580.205	1	-4
580.375	1	6
580.545	1	5
580.715	1	3
580.885	1	1
581.055	1	-1
581.225	1	-9
581.394	1	-7
581.564	1	-10
581.734	1	-6
581.904	1	-2
582.074	1	1
582.244	1	21
582.414	1	15
582.583	1	7
582.753	1	-11
582.923	1	-11
583.093	1	4
583.263	1	-10
583.433	1	3
583.603	1	9
583.772	1	8
583.942	1	8
584.112	1	0
584.282	1	-4
584.452	1	-1
584.622	1	7
584.791	1	1
584.961	1	1
585.131	1	12
585.301	1	-9
585.471	1	1
585.641	1	8
585.811	1	0
585.980	1	4
586.150	1	7
586.320	1	4
586.490	1	-1
586.660	1	-1
586.830	1	0
586.999	1	3
587.169	1	-7
587.339	1	2
587.509	1	4
587.679	1	2
587.849	1	-1
588.018	1	-6
588.188	1	-1
588.358	1	1
588.528	1	-14
588.698	1	-9
588.867	1	-3
589.037	1	6
589.207	1	-9
589.377	1	3
589.547	1	-1
589.717	1	-6
589.886	1	-1
590.056	1	-18
590.226	1	1
590.396	1	-3
590.566	1	1
590.735	1	-2
590.905	1	2
591.075	1	-8
591.245	1	7
591.415	1	2
591.585	1	-14
591.754	1	-16
591.924	1	-5
592.094	1	-1
592.264	1	5
592.434	1	16
592.603	1	9
592.773	1	12
592.943	1	-2
593.113	1	-10
593.283	1	-4
593.452	1	0
593.622	1	2
593.792	1	-4
593.962	1	3
594.132	1	2
594.301	1	2
594.471	1	0
594.641	1	-9
594.811	1	2
594.981	1	-1
595.150	1	-7
595.320	1	3
595.490	1	-8
595.660	1	-2
595.829	1	4
595.999	1	-1
596.169	1	7
596.339	1	0
596.509	1	-4
596.678	1	-3
596.848	1	0
597.018	1	-5
597.188	1	-9
597.358	1	-2
597.527	1	14
597.697	1	-6
597.867	1	10
598.037	1	5
598.206	1	-4
598.376	1	6
598.546	1	-1
598.716	1	-2
598.885	1	11
599.055	1	0
599.225	1	6
599.395	1	5
599.565	1	-4
599.734	1	4
599.904	1	8
600.074	1	4
600.244	1	-2
600.413	1	-1
600.583	1	-3
600.753	1	-1
600.923	1	-10
601.092	1	-1
601.262	1	-11
601.432	1	10
601.602	1	1
601.771	1	-7
601.941	1	-1
602.111	1	-1
602.281	1	11
602.451	1	-1
602.620	1	1
602.790	1	-9
602.960	1	-3
603.130	1	-6
603.299	1	2
603.469	1	-11
603.639	1	4
603.809	1	2
603.978	1	-1
604.148	1	-6
604.318	1	-5
604.487	1	-6
604.657	1	7
604.827	1	12
604.997	1	4
605.166	1	-1
605.336	1	-4
605.506	1	-13
605.676	1	-3
605.845	1	0
606.015	1	-1
606.185	1	0
606.355	1	6
606.524	1	1
606.694	1	0
606.864	1	-6
607.034	1	7
607.203	1	0
607.373	1	-2
607.543	1	-5
607.712	1	0
607.882	1	-14
608.052	1	2
608.222	1	3
608.391	1	0
608.561	1	8
608.731	1	6
608.901	1	-3
609.070	1	6
609.240	1	-5
609.410	1	-11
609.579	1	-12
609.749	1	-4
609.919	1	-1
610.089	1	6
610.258	1	11
610.428	1	11
610.598	1	7
610.767	1	-3
610.937	1	-1
611.107	1	-7
611.277	1	3
611.446	1	-4
611.616	1	11
611.786	1	0
611.955	1	8
612.125	1	3
612.295	1	1
612.465	1	-3
612.634	1	6
612.804	1	-2
612.974	1	-1
613.143	1	-3
613.313	1	-10
613.483	1	-5
613.652	1	11
613.822	1	-1
613.992	1	5
614.162	1	1
614.331	1	-1
614.501	1	-1
614.671	1	4
614.840	1	-1
615.010	1	-7
615.180	1	-1
615.349	1	2
615.519	1	4
615.689	1	15
615.858	1	-3
616.028	1	-8
616.198	1	10
616.368	1	-5
616.537	1	-7
616.707	1	-4
616.877	1	-9
617.046	1	-8
617.216	1	-1
617.386	1	10
617.555	1	3
617.725	1	-2
617.895	1	7
618.064	1	1
618.234	1	-2
618.404	1	-11
618.573	1	4
618.743	1	-10
618.913	1	3
619.082	1	-2
619.252	1	9
619.422	1	2
619.591	1	0
619.761	1	-8
619.931	1	7
620.100	1	-8
620.270	1	-3
620.440	1	6
620.609	1	-5
620.779	1	-2
620.949	1	-1
621.118	1	-7
621.288	1	7
621.458	1	1
621.627	1	-5
621.797	1	-4
621.967	1	-1
622.136	1	-4
622.306	1	-1
622.476	1	13
622.645	1	-1
622.815	1	0
622.985	1	-3
623.154	1	-3
623.324	1	0
623.494	1	8
623.663	1	6
623.833	1	-2
624.002	1	-14
624.172	1	-6
624.342	1	-4
624.511	1	-4
624.681	1	8
624.851	1	3
625.020	1	-4
625.190	1	3
625.360	1	-7
625.529	1	2
625.699	1	-6
625.869	1	4
626.038	1	3
626.208	1	11
626.377	1	8
626.547	1	-1
626.717	1	-4
626.886	1	-4
627.056	1	-6
627.226	1	-8
627.395	1	-6
627.565	1	1
627.735	1	-6
627.904	1	-7
628.074	1	-2
628.243	1	10
628.413	1	-3
628.583	1	-7
628.752	1	1
628.922	1	-2
629.091	1	-3
629.261	1	-5
629.431	1	-2
629.600	1	10
629.770	1	0
629.940	1	3
630.109	1	3
630.279	1	-4
630.448	1	-2
630.618	1	8
630.788	1	-8
630.957	1	-5
631.127	1	5
631.297	1	-1
631.466	1	-1
631.636	1	-8
631.805	1	14
631.975	1	12
632.145	1	7
632.314	1	-6
632.484	1	2
632.653	1	-4
632.823	1	6
632.993	1	-4
633.162	1	-3
633.332	1	-8
633.501	1	-8
633.671	1	-4
633.841	1	14
634.010	1	7
634.180	1	-2
634.349	1	4
634.519	1	-11
634.689	1	-4
634.858	1	-12
635.028	1	2
635.197	1	-4
635.367	1	-8
635.537	1	-3
635.706	1	2
635.876	1	5
636.045	1	3
636.215	1	0
636.384	1	-1
636.554	1	2
636.724	1	-6
636.893	1	1
637.063	1	-7
637.232	1	5
637.402	1	-5
637.572	1	-2
637.741	1	6
637.911	1	2
638.080	1	-2
638.250	1	1
638.419	1	2
638.589	1	12
638.759	1	-9
638.928	1	1
639.098	1	-7
639.267	1	6
639.437	1	1
639.606	1	3
639.776	1	4
639.946	1	3
640.115	1	-1
640.285	1	10
640.454	1	-3
640.624	1	5
640.793	1	1
640.963	1	7
641.132	1	-9
641.302	1	6
641.472	1	2
641.641	1	8
641.811	1	-10
641.980	1	-7
642.150	1	-3
642.319	1	6
642.489	1	4
642.659	1	3
642.828	1	-4
642.998	1	-5
643.167	1	8
643.337	1	-13
643.506	1	-6
643.676	1	0
643.845	1	1
644.015	1	5
644.184	1	9
644.354	1	2
644.524	1	2
644.693	1	-5
644.863	1	1
645.032	1	1
645.202	1	0
645.371	1	9
645.541	1	2
645.710	1	5
645.880	1	3
646.049	1	7
646.219	1	4
646.388	1	2
646.558	1	-6
646.728	1	-2
646.897	1	-12
647.067	1	-9
647.236	1	-2
647.406	1	5
647.575	1	3
647.745	1	-7
647.914	1	1
648.084	1	-3
648.253	1	5
648.423	1	-5
648.592	1	6
648.762	1	3
648.931	1	7
649.101	1	8
649.270	1	5
649.440	1	-1
649.610	1	-4
649.779	1	-3
649.949	1	-2
650.118	1	-1
650.288	1	0
650.457	1	6
650.627	1	4
650.796	1	7
650.966	1	-4
651.135	1	6
651.305	1	-4
651.474	1	3
651.644	1	-12
651.813	1	-2
651.983	1	0
652.152	1	5
652.322	1	-6
652.491	1	13
652.661	1	10
652.830	1	4
653.000	1	1
653.169	1	-6
653.339	1	-4
653.508	1	6
653.678	1	5
653.847	1	9
654.017	1	8
654.186	1	3
654.356	1	-6
654.525	1	1
654.695	1	-5
654.864	1	-8
655.034	1	-4
655.203	1	5
655.373	1	11
655.542	1	0
655.712	1	4
655.881	1	0
656.051	1	-1
656.220	1	6
656.390	1	0
656.559	1	-4
656.729	1	-3
656.898	1	-7
657.068	1	4
657.237	1	9
657.406	1	4
657.576	1	-3
657.745	1	-2
657.915	1	-6
658.084	1	4
658.254	1	-6
658.423	1	-3
658.593	1	-8
658.762	1	-3
658.932	1	10
659.101	1	-1
659.271	1	0
659.440	1	-1
659.610	1	5
659.779	1	12
659.949	1	-6
660.118	1	-5
660.288	1	-8
660.457	1	-12
660.626	1	-5
660.796	1	-2
660.965	1	9
661.135	1	7
661.304	1	8
661.474	1	-4
661.643	1	-5
661.813	1	-9
661.982	1	-12
662.152	1	-4
662.321	1	-5
662.491	1	-1
662.660	1	-2
662.829	1	-1
662.999	1	-5
663.168	1	-3
663.338	1	11
663.507	1	-12
663.677	1	-5
663.846	1	-1
664.016	1	-15
664.185	1	-1
664.354	1	-8
664.524	1	-4
664.693	1	4
664.863	1	-5
665.032	1	14
665.202	1	-2
665.371	1	3
665.541	1	-4
665.710	1	6
665.879	1	-1
666.049	1	-4
666.218	1	-5
666.388	1	-1
666.557	1	1
666.727	1	-7
666.896	1	5
667.065	1	-6
667.235	1	9
667.404	1	5
667.574	1	7
667.743	1	-8
667.913	1	-4
668.082	1	0
668.251	1	1
668.421	1	-9
668.590	1	-2
668.760	1	1
668.929	1	4
669.099	1	5
669.268	1	5
669.437	1	-4
669.607	1	-2
669.776	1	-14
669.946	1	-1
670.115	1	-11
670.285	1	-6
670.454	1	-7
670.623	1	0
670.793	1	4
670.962	1	6
671.132	1	1
671.301	1	-5
671.470	1	-4
671.640	1	0
671.809	1	18
671.979	1	2
672.148	1	-2
672.317	1	0
672.487	1	5
672.656	1	1
672.826	1	11
672.995	1	-11
673.164	1	4
673.334	1	4
673.503	1	-6
673.673	1	3
673.842	1	-2
674.011	1	-8
674.181	1	-9
674.350	1	8
674.520	1	-8
674.689	1	-2
674.858	1	-3
675.028	1	12
675.197	1	10
675.367	1	3
675.536	1	0
675.705	1	0
675.875	1	-8
676.044	1	-5
676.214	1	-10
676.383	1	4
676.552	1	1
676.722	1	5
676.891	1	-16
677.060	1	-14
677.230	1	-3
677.399	1	-5
677.569	1	-1
677.738	1	-9
677.907	1	6
678.077	1	-9
678.246	1	10
678.416	1	-7
678.585	1	3
678.754	1	1
678.924	1	-5
679.093	1	1
679.262	1	4
679.432	1	-5
679.601	1	-1
679.771	1	-5
679.940	1	3
680.109	1	-5
680.279	1	-6
680.448	1	-6
680.617	1	1
680.787	1	-5
680.956	1	3
681.125	1	-5
681.295	1	0
681.464	1	1
681.634	1	-1
681.803	1	1
681.972	1	0
682.142	1	1
682.311	1	-6
682.480	1	-5
682.650	1	4
682.819	1	-11
682.988	1	9
683.158	1	-3
683.327	1	-3
683.496	1	-5
683.666	1	-4
683.835	1	-7
684.004	1	5
684.174	1	-6
684.343	1	-5
684.512	1	5
684.682	1	2
684.851	1	10
685.021	1	1
685.190	1	3
685.359	1	-1
685.529	1	-2
685.698	1	5
685.867	1	6
686.037	1	0
686.206	1	-2
686.375	1	6
686.545	1	-5
686.714	1	1
686.883	1	0
687.053	1	11
687.222	1	1
687.391	1	8
687.561	1	0
687.730	1	1
687.899	1	-10
688.069	1	-8
688.238	1	6
688.407	1	3
688.577	1	1
688.746	1	-1
