340.368	1	5
340.539	1	-2
340.710	1	-3
340.881	1	-1
341.052	1	-2
341.223	1	6
341.394	1	-4
341.565	1	-10
341.737	1	1
341.908	1	3
342.079	1	9
342.250	1	-3
342.421	1	0
342.592	1	5
342.763	1	-8
342.934	1	3
343.105	1	-6
343.276	1	7
343.447	1	-2
343.618	1	-8
343.789	1	-7
343.960	1	-1
344.131	1	8
344.302	1	-2
344.473	1	8
344.644	1	1
344.815	1	-1
344.986	1	9
345.157	1	4
345.328	1	13
345.499	1	13
345.670	1	-7
345.841	1	-3
346.012	1	1
346.183	1	-3
346.354	1	1
346.526	1	-4
346.697	1	-3
346.868	1	3
347.039	1	2
347.210	1	-1
347.381	1	12
347.552	1	8
347.723	1	5
347.894	1	-2
348.065	1	0
348.236	1	-5
348.407	1	2
348.578	1	3
348.749	1	-8
348.920	1	11
349.091	1	4
349.262	1	4
349.433	1	13
349.604	1	2
349.775	1	-7
349.946	1	2
350.117	1	-2
350.288	1	-1
350.459	1	4
350.630	1	-5
350.801	1	9
350.972	1	6
351.143	1	8
351.314	1	-7
351.485	1	-12
351.656	1	-10
351.827	1	4
351.998	1	-3
352.169	1	6
352.340	1	4
352.511	1	0
352.682	1	3
352.853	1	6
353.024	1	0
353.195	1	1
353.366	1	-4
353.537	1	-5
353.708	1	-1
353.879	1	-1
354.050	1	5
354.221	1	9
354.392	1	10
354.563	1	-3
354.734	1	0
354.905	1	6
355.076	1	1
355.247	1	-2
355.418	1	-7
355.589	1	-2
355.760	1	-3
355.931	1	7
356.102	1	2
356.273	1	5
356.444	1	4
356.615	1	5
356.785	1	6
356.956	1	-6
357.127	1	12
357.298	1	7
357.469	1	-6
357.640	1	-1
357.811	1	3
357.982	1	7
358.153	1	1
358.324	1	6
358.495	1	6
358.666	1	13
358.837	1	3
359.008	1	10
359.179	1	0
359.350	1	5
359.521	1	5
359.692	1	1
359.863	1	-3
360.034	1	0
360.205	1	8
360.376	1	-1
360.547	1	12
360.718	1	9
360.889	1	14
361.060	1	9
361.231	1	0
361.401	1	0
361.572	1	-3
361.743	1	0
361.914	1	-2
362.085	1	14
362.256	1	15
362.427	1	1
362.598	1	6
362.769	1	16
362.940	1	-10
363.111	1	16
363.282	1	1
363.453	1	10
363.624	1	21
363.795	1	18
363.966	1	12
364.137	1	6
364.308	1	1
364.478	1	3
364.649	1	8
364.820	1	5
364.991	1	-1
365.162	1	4
365.333	1	11
365.504	1	9
365.675	1	14
365.846	1	14
366.017	1	21
366.188	1	10
366.359	1	9
366.530	1	2
366.701	1	18
366.871	1	8
367.042	1	13
367.213	1	12
367.384	1	12
367.555	1	8
367.726	1	19
367.897	1	19
368.068	1	7
368.239	1	22
368.410	1	23
368.581	1	8
368.752	1	19
368.923	1	6
369.093	1	23
369.264	1	12
369.435	1	16
369.606	1	17
369.777	1	23
369.948	1	17
370.119	1	23
370.290	1	18
370.461	1	16
370.632	1	13
370.803	1	18
370.973	1	4
371.144	1	19
371.315	1	24
371.486	1	9
371.657	1	16
371.828	1	25
371.999	1	26
372.170	1	12
372.341	1	22
372.512	1	16
372.682	1	23
372.853	1	19
373.024	1	23
373.195	1	33
373.366	1	15
373.537	1	23
373.708	1	15
373.879	1	21
374.050	1	32
374.220	1	14
374.391	1	27
374.562	1	18
374.733	1	9
374.904	1	30
375.075	1	26
375.246	1	14
375.417	1	24
375.588	1	22
375.758	1	28
375.929	1	23
376.100	1	11
376.271	1	12
376.442	1	15
376.613	1	28
376.784	1	9
376.955	1	15
377.125	1	26
377.296	1	8
377.467	1	17
377.638	1	30
377.809	1	20
377.980	1	6
378.151	1	23
378.321	1	21
378.492	1	24
378.663	1	17
378.834	1	22
379.005	1	22
379.176	1	29
379.347	1	2
379.518	1	13
379.688	1	24
379.859	1	12
380.030	1	20
380.201	1	17
380.372	1	20
380.543	1	11
380.714	1	12
380.884	1	21
381.055	1	0
381.226	1	17
381.397	1	7
381.568	1	8
381.739	1	11
381.910	1	16
382.080	1	19
382.251	1	28
382.422	1	18
382.593	1	12
382.764	1	12
382.935	1	11
383.105	1	18
383.276	1	3
383.447	1	17
383.618	1	11
383.789	1	23
383.960	1	11
384.130	1	9
384.301	1	2
384.472	1	7
384.643	1	10
384.814	1	14
384.985	1	15
385.156	1	8
385.326	1	11
385.497	1	7
385.668	1	9
385.839	1	17
386.010	1	20
386.180	1	8
386.351	1	20
386.522	1	7
386.693	1	6
386.864	1	8
387.035	1	11
387.205	1	10
387.376	1	9
387.547	1	3
387.718	1	12
387.889	1	10
388.060	1	10
388.230	1	6
388.401	1	3
388.572	1	13
388.743	1	8
388.914	1	16
389.084	1	5
389.255	1	3
389.426	1	-1
389.597	1	4
389.768	1	15
389.939	1	8
390.109	1	4
390.280	1	6
390.451	1	11
390.622	1	10
390.793	1	3
390.963	1	1
391.134	1	7
391.305	1	12
391.476	1	11
391.647	1	-2
391.817	1	13
391.988	1	13
392.159	1	10
392.330	1	9
392.501	1	1
392.671	1	7
392.842	1	-8
393.013	1	11
393.184	1	17
393.355	1	0
393.525	1	15
393.696	1	6
393.867	1	10
394.038	1	6
394.208	1	6
394.379	1	-3
394.550	1	6
394.721	1	7
394.892	1	16
395.062	1	1
395.233	1	0
395.404	1	1
395.575	1	2
395.746	1	12
395.916	1	6
396.087	1	5
396.258	1	1
396.429	1	-10
396.599	1	9
396.770	1	-4
396.941	1	-1
397.112	1	-2
397.283	1	8
397.453	1	0
397.624	1	9
397.795	1	12
397.966	1	18
398.136	1	-1
398.307	1	9
398.478	1	13
398.649	1	4
398.819	1	4
398.990	1	5
399.161	1	8
399.332	1	0
399.503	1	9
399.673	1	4
399.844	1	2
400.015	1	4
400.186	1	3
400.356	1	-11
400.527	1	-5
400.698	1	9
400.869	1	6
401.039	1	4
401.210	1	12
401.381	1	15
401.552	1	5
401.722	1	11
401.893	1	-4
402.064	1	-4
402.235	1	0
402.405	1	11
402.576	1	6
402.747	1	5
402.918	1	8
403.088	1	3
403.259	1	5
403.430	1	3
403.601	1	6
403.771	1	14
403.942	1	-6
404.113	1	-2
404.284	1	13
404.454	1	2
404.625	1	10
404.796	1	9
404.967	1	0
405.137	1	0
405.308	1	9
405.479	1	1
405.649	1	6
405.820	1	1
405.991	1	13
406.162	1	11
406.332	1	-1
406.503	1	-6
406.674	1	18
406.845	1	0
407.015	1	4
407.186	1	7
407.357	1	4
407.527	1	3
407.698	1	2
407.869	1	-2
408.040	1	-1
408.210	1	-1
408.381	1	9
408.552	1	8
408.722	1	-9
408.893	1	-1
409.064	1	3
409.235	1	-2
409.405	1	-4
409.576	1	13
409.747	1	1
409.917	1	-4
410.088	1	5
410.259	1	-8
410.430	1	5
410.600	1	-10
410.771	1	8
410.942	1	-6
411.112	1	9
411.283	1	-1
411.454	1	-7
411.625	1	-4
411.795	1	1
411.966	1	11
412.137	1	6
412.307	1	-10
412.478	1	3
412.649	1	-2
412.819	1	10
412.990	1	-1
413.161	1	5
413.332	1	4
413.502	1	1
413.673	1	1
413.844	1	2
414.014	1	16
414.185	1	-2
414.356	1	6
414.526	1	10
414.697	1	-1
414.868	1	12
415.038	1	-5
415.209	1	12
415.380	1	1
415.550	1	-2
415.721	1	-1
415.892	1	5
416.063	1	2
416.233	1	8
416.404	1	-5
416.575	1	6
416.745	1	9
416.916	1	-2
417.087	1	4
417.257	1	-1
417.428	1	-7
417.599	1	7
417.769	1	0
417.940	1	3
418.111	1	8
418.281	1	13
418.452	1	-1
418.623	1	0
418.793	1	-1
418.964	1	13
419.135	1	1
419.305	1	-8
419.476	1	-4
419.647	1	3
419.817	1	0
419.988	1	0
420.159	1	3
420.329	1	12
420.500	1	-4
420.671	1	8
420.841	1	1
421.012	1	9
421.183	1	8
421.353	1	-1
421.524	1	-5
421.695	1	-6
421.865	1	6
422.036	1	15
422.206	1	7
422.377	1	5
422.548	1	-4
422.718	1	5
422.889	1	-4
423.060	1	3
423.230	1	4
423.401	1	-1
423.572	1	5
423.742	1	5
423.913	1	9
424.084	1	6
424.254	1	3
424.425	1	-1
424.595	1	-2
424.766	1	-2
424.937	1	-3
425.107	1	-1
425.278	1	9
425.449	1	7
425.619	1	2
425.790	1	2
425.961	1	1
426.131	1	-7
426.302	1	-3
426.472	1	2
426.643	1	1
426.814	1	10
426.984	1	3
427.155	1	7
427.326	1	7
427.496	1	3
427.667	1	6
427.837	1	0
428.008	1	-2
428.179	1	-5
428.349	1	3
428.520	1	7
428.691	1	2
428.861	1	8
429.032	1	0
429.202	1	1
429.373	1	-1
429.544	1	8
429.714	1	4
429.885	1	10
430.055	1	11
430.226	1	9
430.397	1	-4
430.567	1	17
430.738	1	4
430.909	1	0
431.079	1	2
431.250	1	6
431.420	1	1
431.591	1	-5
431.762	1	2
431.932	1	15
432.103	1	16
432.273	1	1
432.444	1	3
432.615	1	-4
432.785	1	-1
432.956	1	10
433.126	1	-1
433.297	1	-6
433.468	1	-5
433.638	1	-1
433.809	1	3
433.979	1	-1
434.150	1	6
434.320	1	5
434.491	1	0
434.662	1	1
434.832	1	-3
435.003	1	10
435.173	1	11
435.344	1	6
435.515	1	4
435.685	1	9
435.856	1	7
436.026	1	-7
436.197	1	13
436.368	1	-5
436.538	1	2
436.709	1	3
436.879	1	0
437.050	1	8
437.220	1	13
437.391	1	12
437.562	1	8
437.732	1	2
437.903	1	3
438.073	1	-5
438.244	1	15
438.414	1	11
438.585	1	3
438.756	1	2
438.926	1	-1
439.097	1	1
439.267	1	0
439.438	1	1
439.608	1	1
439.779	1	9
439.949	1	2
440.120	1	-2
440.291	1	6
440.461	1	1
440.632	1	3
440.802	1	6
440.973	1	11
441.143	1	-6
441.314	1	7
441.485	1	-3
441.655	1	7
441.826	1	0
441.996	1	8
442.167	1	4
442.337	1	1
442.508	1	4
442.678	1	5
442.849	1	7
443.019	1	-9
443.190	1	4
443.361	1	2
443.531	1	8
443.702	1	-1
443.872	1	9
444.043	1	2
444.213	1	8
444.384	1	-4
444.554	1	-5
444.725	1	3
444.895	1	8
445.066	1	4
445.237	1	4
445.407	1	6
445.578	1	10
445.748	1	-3
445.919	1	5
446.089	1	4
446.260	1	-2
446.430	1	10
446.601	1	3
446.771	1	1
446.942	1	10
447.112	1	5
447.283	1	14
447.453	1	-1
447.624	1	-17
447.794	1	7
447.965	1	0
448.135	1	3
448.306	1	5
448.477	1	0
448.647	1	1
448.818	1	-1
448.988	1	4
449.159	1	-2
449.329	1	5
449.500	1	3
449.670	1	9
449.841	1	6
450.011	1	9
450.182	1	5
450.352	1	4
450.523	1	5
450.693	1	-2
450.864	1	5
451.034	1	2
451.205	1	8
451.375	1	-12
451.546	1	10
451.716	1	-3
451.887	1	8
452.057	1	2
452.228	1	1
452.398	1	8
452.569	1	0
452.739	1	6
452.910	1	-4
453.080	1	0
453.251	1	7
453.421	1	-2
453.592	1	10
453.762	1	13
453.933	1	-2
454.103	1	9
454.274	1	-12
454.444	1	-2
454.615	1	-1
454.785	1	-4
454.956	1	3
455.126	1	5
455.297	1	-3
455.467	1	4
455.638	1	-3
455.808	1	2
455.979	1	-4
456.149	1	-6
456.320	1	-4
456.490	1	-3
456.661	1	4
456.831	1	-4
457.001	1	13
457.172	1	-5
457.342	1	2
457.513	1	7
457.683	1	7
457.854	1	5
458.024	1	-7
458.195	1	5
458.365	1	1
458.536	1	10
458.706	1	0
458.877	1	-7
459.047	1	-5
459.218	1	-8
459.388	1	0
459.559	1	4
459.729	1	5
459.899	1	0
460.070	1	9
460.240	1	6
460.411	1	6
460.581	1	-2
460.752	1	8
460.922	1	9
461.093	1	10
461.263	1	3
461.434	1	0
461.604	1	-8
461.775	1	0
461.945	1	0
462.115	1	-2
462.286	1	13
462.456	1	7
462.627	1	4
462.797	1	1
462.968	1	11
463.138	1	-1
463.309	1	0
463.479	1	5
463.649	1	14
463.820	1	-7
463.990	1	-3
464.161	1	-5
464.331	1	1
464.502	1	3
464.672	1	2
464.843	1	6
465.013	1	19
465.183	1	-5
465.354	1	-8
465.524	1	11
465.695	1	8
465.865	1	1
466.036	1	4
466.206	1	6
466.376	1	6
466.547	1	-5
466.717	1	-12
466.888	1	-1
467.058	1	2
467.229	1	9
467.399	1	11
467.569	1	13
467.740	1	-14
467.910	1	1
468.081	1	-9
468.251	1	12
468.422	1	3
468.592	1	3
468.762	1	10
468.933	1	8
469.103	1	-2
469.274	1	5
469.444	1	8
469.614	1	3
469.785	1	0
469.955	1	9
470.126	1	-5
470.296	1	-2
470.467	1	-1
470.637	1	11
470.807	1	-6
470.978	1	-6
471.148	1	13
471.319	1	1
471.489	1	2
471.659	1	-3
471.830	1	4
472.000	1	8
472.171	1	3
472.341	1	-5
472.511	1	-4
472.682	1	3
472.852	1	10
473.023	1	-3
473.193	1	-5
473.363	1	-1
473.534	1	0
473.704	1	3
473.875	1	15
474.045	1	-1
474.215	1	-2
474.386	1	12
474.556	1	-4
474.727	1	10
474.897	1	1
475.067	1	2
475.238	1	-1
475.408	1	5
475.578	1	11
475.749	1	6
475.919	1	8
476.090	1	4
476.260	1	-1
476.430	1	1
476.601	1	-2
476.771	1	-2
476.942	1	0
477.112	1	9
477.282	1	8
477.453	1	4
477.623	1	5
477.793	1	5
477.964	1	-18
478.134	1	-4
478.305	1	-2
478.475	1	-10
478.645	1	1
478.816	1	8
478.986	1	-1
479.156	1	6
479.327	1	-10
479.497	1	-7
479.667	1	1
479.838	1	4
480.008	1	-5
480.179	1	-2
480.349	1	-1
480.519	1	7
480.690	1	-8
480.860	1	10
481.030	1	-3
481.201	1	-6
481.371	1	5
481.541	1	1
481.712	1	1
481.882	1	4
482.053	1	5
482.223	1	10
482.393	1	7
482.564	1	-9
482.734	1	4
482.904	1	-3
483.075	1	-1
483.245	1	11
483.415	1	4
483.586	1	0
483.756	1	-7
483.926	1	1
484.097	1	4
484.267	1	-5
484.437	1	-2
484.608	1	-1
484.778	1	8
484.948	1	-1
485.119	1	-4
485.289	1	-9
485.459	1	-2
485.630	1	9
485.800	1	-6
485.970	1	2
486.141	1	1
486.311	1	2
486.481	1	-7
486.652	1	6
486.822	1	2
486.992	1	-3
487.163	1	-3
487.333	1	-1
487.503	1	3
487.674	1	5
487.844	1	9
488.014	1	1
488.185	1	9
488.355	1	-6
488.525	1	3
488.696	1	1
488.866	1	-7
489.036	1	-1
489.207	1	6
489.377	1	-2
489.547	1	12
489.718	1	0
489.888	1	4
490.058	1	-1
490.228	1	5
490.399	1	-8
490.569	1	5
490.739	1	-1
490.910	1	-1
491.080	1	-2
491.250	1	-1
491.421	1	-3
491.591	1	3
491.761	1	5
491.932	1	-1
492.102	1	-2
492.272	1	5
492.442	1	2
492.613	1	8
492.783	1	10
492.953	1	7
493.124	1	4
493.294	1	0
493.464	1	8
493.635	1	-9
493.805	1	2
493.975	1	-8
494.145	1	9
494.316	1	0
494.486	1	-3
494.656	1	5
494.827	1	-9
494.997	1	-1
495.167	1	1
495.337	1	21
495.508	1	7
495.678	1	9
495.848	1	10
496.019	1	-3
496.189	1	4
496.359	1	-2
496.529	1	6
496.700	1	-10
496.870	1	1
497.040	1	-6
497.211	1	5
497.381	1	-6
497.551	1	-2
497.721	1	13
497.892	1	3
498.062	1	16
498.232	1	-2
498.403	1	-1
498.573	1	7
498.743	1	12
498.913	1	0
499.084	1	2
499.254	1	7
499.424	1	6
499.594	1	9
499.765	1	-1
499.935	1	13
500.105	1	-5
500.275	1	-4
500.446	1	4
500.616	1	2
500.786	1	0
500.956	1	5
501.127	1	-3
501.297	1	8
501.467	1	-11
501.638	1	-7
501.808	1	-12
501.978	1	5
502.148	1	2
502.319	1	0
502.489	1	-4
502.659	1	2
502.829	1	9
503.000	1	3
503.170	1	2
503.340	1	4
503.510	1	-1
503.681	1	-5
503.851	1	0
504.021	1	6
504.191	1	-3
504.362	1	1
504.532	1	-3
504.702	1	5
504.872	1	-9
505.042	1	-6
505.213	1	5
505.383	1	2
505.553	1	9
505.723	1	-2
505.894	1	-1
506.064	1	9
506.234	1	2
506.404	1	4
506.575	1	-4
506.745	1	-6
506.915	1	0
507.085	1	5
507.256	1	6
507.426	1	0
507.596	1	5
507.766	1	12
507.936	1	-5
508.107	1	-3
508.277	1	-9
508.447	1	-1
508.617	1	8
508.788	1	-7
508.958	1	9
509.128	1	8
509.298	1	1
509.468	1	-3
509.639	1	1
509.809	1	3
509.979	1	11
510.149	1	6
510.319	1	3
510.490	1	-7
510.660	1	9
510.830	1	4
511.000	1	4
511.171	1	-17
511.341	1	2
511.511	1	8
511.681	1	4
511.851	1	7
512.022	1	3
512.192	1	4
512.362	1	9
512.532	1	1
512.702	1	-4
512.873	1	3
513.043	1	6
513.213	1	-2
513.383	1	-1
513.553	1	-2
513.724	1	11
513.894	1	3
514.064	1	0
514.234	1	0
514.404	1	7
514.575	1	1
514.745	1	-1
514.915	1	-10
515.085	1	12
515.255	1	12
515.425	1	1
515.596	1	1
515.766	1	4
515.936	1	-4
516.106	1	-4
516.276	1	6
516.447	1	3
516.617	1	-5
516.787	1	-3
516.957	1	7
517.127	1	5
517.297	1	2
517.468	1	-1
517.638	1	-3
517.808	1	3
517.978	1	10
518.148	1	10
518.319	1	7
518.489	1	-8
518.659	1	8
518.829	1	4
518.999	1	-1
519.169	1	-5
519.340	1	-4
519.510	1	-1
519.680	1	0
519.850	1	4
520.020	1	10
520.190	1	3
520.361	1	1
520.531	1	-16
520.701	1	-1
520.871	1	-5
521.041	1	-8
521.211	1	2
521.382	1	-1
521.552	1	5
521.722	1	13
521.892	1	-2
522.062	1	5
522.232	1	4
522.402	1	0
522.573	1	3
522.743	1	4
522.913	1	-9
523.083	1	-4
523.253	1	0
523.423	1	14
523.593	1	-12
523.764	1	3
523.934	1	-4
524.104	1	7
524.274	1	-2
524.444	1	3
524.614	1	0
524.784	1	11
524.955	1	5
525.125	1	12
525.295	1	-1
525.465	1	-9
525.635	1	4
525.805	1	4
525.975	1	-3
526.146	1	4
526.316	1	-2
526.486	1	1
526.656	1	8
526.826	1	1
526.996	1	6
527.166	1	5
527.337	1	10
527.507	1	-4
527.677	1	4
527.847	1	-2
528.017	1	-9
528.187	1	1
528.357	1	6
528.527	1	4
528.698	1	-1
528.868	1	2
529.038	1	-14
529.208	1	4
529.378	1	7
529.548	1	-13
529.718	1	-4
529.888	1	8
530.058	1	10
530.229	1	4
530.399	1	12
530.569	1	8
530.739	1	10
530.909	1	1
531.079	1	-2
531.249	1	3
531.419	1	7
531.589	1	-2
531.760	1	-3
531.930	1	4
532.100	1	-7
532.270	1	3
532.440	1	2
532.610	1	9
532.780	1	-7
532.950	1	-9
533.120	1	6
533.290	1	6
533.461	1	-1
533.631	1	4
533.801	1	-3
533.971	1	-5
534.141	1	-7
534.311	1	5
534.481	1	-8
534.651	1	6
534.821	1	2
534.991	1	-8
535.162	1	4
535.332	1	3
535.502	1	3
535.672	1	-2
535.842	1	6
536.012	1	7
536.182	1	8
536.352	1	1
536.522	1	-4
536.692	1	1
536.862	1	6
537.032	1	-1
537.203	1	17
537.373	1	8
537.543	1	5
537.713	1	-7
537.883	1	2
538.053	1	-2
538.223	1	4
538.393	1	-6
538.563	1	2
538.733	1	10
538.903	1	2
539.073	1	-4
539.243	1	2
539.413	1	-2
539.584	1	5
539.754	1	-1
539.924	1	10
540.094	1	-5
540.264	1	0
540.434	1	-5
540.604	1	-3
540.774	1	10
540.944	1	1
541.114	1	2
541.284	1	6
541.454	1	-5
541.624	1	-6
541.794	1	11
541.964	1	1
542.134	1	4
542.305	1	1
542.475	1	11
542.645	1	-3
542.815	1	9
542.985	1	5
543.155	1	-2
543.325	1	-5
543.495	1	10
543.665	1	18
543.835	1	-4
544.005	1	3
544.175	1	-2
544.345	1	0
544.515	1	1
544.685	1	-9
544.855	1	8
545.025	1	13
545.195	1	-4
545.365	1	4
545.535	1	5
545.705	1	5
545.875	1	1
546.045	1	-6
546.216	1	4
546.386	1	-4
546.556	1	10
546.726	1	8
546.896	1	10
547.066	1	-5
547.236	1	-5
547.406	1	-10
547.576	1	9
547.746	1	9
547.916	1	9
548.086	1	4
548.256	1	2
548.426	1	-4
548.596	1	3
548.766	1	8
548.936	1	-3
549.106	1	2
549.276	1	-2
549.446	1	0
549.616	1	-5
549.786	1	15
549.956	1	3
550.126	1	13
550.296	1	7
550.466	1	7
550.636	1	1
550.806	1	-4
550.976	1	0
551.146	1	9
551.316	1	12
551.486	1	-2
551.656	1	4
551.826	1	4
551.996	1	0
552.166	1	5
552.336	1	5
552.506	1	3
552.676	1	6
552.846	1	9
553.016	1	6
553.186	1	-2
553.356	1	-4
553.526	1	0
553.696	1	8
553.866	1	3
554.036	1	4
554.206	1	0
554.376	1	-5
554.546	1	3
554.716	1	-5
554.886	1	9
555.056	1	0
555.226	1	11
555.396	1	-1
555.566	1	8
555.736	1	-5
555.906	1	11
556.076	1	2
556.246	1	-4
556.416	1	-3
556.586	1	-3
556.756	1	8
556.926	1	12
557.096	1	10
557.266	1	1
557.436	1	-3
557.606	1	3
557.776	1	4
557.946	1	-4
558.116	1	0
558.286	1	0
558.456	1	7
558.626	1	2
558.796	1	-7
558.966	1	-2
559.136	1	14
559.306	1	4
559.476	1	-4
559.646	1	1
559.816	1	-7
559.986	1	6
560.155	1	-8
560.325	1	9
560.495	1	-4
560.665	1	-1
560.835	1	0
561.005	1	-7
561.175	1	-4
561.345	1	-12
561.515	1	-5
561.685	1	-1
561.855	1	0
562.025	1	6
562.195	1	0
562.365	1	6
562.535	1	2
562.705	1	8
562.875	1	7
563.045	1	1
563.215	1	4
563.385	1	12
563.555	1	12
563.725	1	-4
563.895	1	7
564.064	1	11
564.234	1	2
564.404	1	-5
564.574	1	13
564.744	1	3
564.914	1	-7
565.084	1	5
565.254	1	-2
565.424	1	4
565.594	1	4
565.764	1	-1
565.934	1	-3
566.104	1	2
566.274	1	2
566.444	1	3
566.614	1	-9
566.783	1	8
566.953	1	13
567.123	1	-3
567.293	1	7
567.463	1	3
567.633	1	5
567.803	1	0
567.973	1	3
568.143	1	3
568.313	1	-3
568.483	1	-3
568.653	1	-9
568.823	1	1
568.993	1	10
569.162	1	5
569.332	1	2
569.502	1	4
569.672	1	-7
569.842	1	3
570.012	1	-2
570.182	1	-2
570.352	1	2
570.522	1	1
570.692	1	0
570.862	1	10
571.031	1	-2
571.201	1	7
571.371	1	-9
571.541	1	0
571.711	1	-6
571.881	1	14
572.051	1	5
572.221	1	-3
572.391	1	-6
572.561	1	7
572.731	1	-1
572.900	1	2
573.070	1	-2
573.240	1	7
573.410	1	-1
573.580	1	13
573.750	1	2
573.920	1	-5
574.090	1	1
574.260	1	-4
574.430	1	-7
574.599	1	-3
574.769	1	5
574.939	1	-1
575.109	1	9
575.279	1	-4
575.449	1	5
575.619	1	-1
575.789	1	-3
575.959	1	-5
576.128	1	-3
576.298	1	2
576.468	1	-1
576.638	1	4
576.808	1	3
576.978	1	4
577.148	1	-5
577.318	1	4
577.487	1	-6
577.657	1	1
577.827	1	3
577.997	1	4
578.167	1	10
578.337	1	-5
578.507	1	4
578.677	1	-7
578.846	1	4
579.016	1	-3
579.186	1	6
579.356	1	-8
579.526	1	10
579.696	1	7
579.866	1	10
580.036	1	-2
580.205	1	-5
580.375	1	0
580.545	1	-1
580.715	1	5
580.885	1	-1
581.055	1	-2
581.225	1	-3
581.394	1	-10
581.564	1	-2
581.734	1	-1
581.904	1	10
582.074	1	4
582.244	1	6
582.414	1	17
582.583	1	6
582.753	1	-12
582.923	1	6
583.093	1	6
583.263	1	-4
583.433	1	-5
583.603	1	0
583.772	1	4
583.942	1	3
584.112	1	1
584.282	1	4
584.452	1	1
584.622	1	9
584.791	1	-1
584.961	1	9
585.131	1	4
585.301	1	-3
585.471	1	-6
585.641	1	-4
585.811	1	5
585.980	1	3
586.150	1	1
586.320	1	-8
586.490	1	-6
586.660	1	-1
586.830	1	10
586.999	1	7
587.169	1	-1
587.339	1	-4
587.509	1	5
587.679	1	8
587.849	1	1
588.018	1	-11
588.188	1	6
588.358	1	1
588.528	1	0
588.698	1	0
588.867	1	-2
589.037	1	7
589.207	1	-8
589.377	1	7
589.547	1	11
589.717	1	2
589.886	1	4
590.056	1	0
590.226	1	4
590.396	1	-3
590.566	1	7
590.735	1	-4
590.905	1	-3
591.075	1	15
591.245	1	9
591.415	1	2
591.585	1	-3
591.754	1	-12
591.924	1	7
592.094	1	3
592.264	1	-1
592.434	1	1
592.603	1	8
592.773	1	15
592.943	1	-9
593.113	1	-8
593.283	1	-2
593.452	1	1
593.622	1	-8
593.792	1	2
593.962	1	3
594.132	1	7
594.301	1	4
594.471	1	4
594.641	1	5
594.811	1	-5
594.981	1	-4
595.150	1	-4
595.320	1	-2
595.490	1	-8
595.660	1	5
595.829	1	8
595.999	1	-1
596.169	1	10
596.339	1	-4
596.509	1	2
596.678	1	0
596.848	1	4
597.018	1	-8
597.188	1	-3
597.358	1	-2
597.527	1	12
597.697	1	1
597.867	1	5
598.037	1	-6
598.206	1	-10
598.376	1	-3
598.546	1	8
598.716	1	2
598.885	1	5
599.055	1	3
599.225	1	12
599.395	1	1
599.565	1	0
599.734	1	4
599.904	1	-1
600.074	1	7
600.244	1	-4
600.413	1	6
600.583	1	1
600.753	1	10
600.923	1	6
601.092	1	-1
601.262	1	-4
601.432	1	6
601.602	1	1
601.771	1	-3
601.941	1	10
602.111	1	-3
602.281	1	1
602.451	1	2
602.620	1	2
602.790	1	-11
602.960	1	-11
603.130	1	2
603.299	1	1
603.469	1	4
603.639	1	14
603.809	1	6
603.978	1	-10
604.148	1	3
604.318	1	-4
604.487	1	-5
604.657	1	11
604.827	1	13
604.997	1	6
605.166	1	-4
605.336	1	4
605.506	1	-6
605.676	1	-5
605.845	1	0
606.015	1	-2
606.185	1	10
606.355	1	2
606.524	1	12
606.694	1	1
606.864	1	1
607.034	1	5
607.203	1	-4
607.373	1	-2
607.543	1	-7
607.712	1	4
607.882	1	-12
608.052	1	-6
608.222	1	0
608.391	1	11
608.561	1	14
608.731	1	3
608.901	1	8
609.070	1	8
609.240	1	0
609.410	1	-3
609.579	1	-9
609.749	1	-1
609.919	1	0
610.089	1	1
610.258	1	3
610.428	1	5
610.598	1	0
610.767	1	-4
610.937	1	-2
611.107	1	-3
611.277	1	-2
611.446	1	0
611.616	1	1
611.786	1	7
611.955	1	3
612.125	1	-2
612.295	1	8
612.465	1	-1
612.634	1	-6
612.804	1	5
612.974	1	-3
613.143	1	-1
613.313	1	1
613.483	1	4
613.652	1	13
613.822	1	-1
613.992	1	-2
614.162	1	13
614.331	1	2
614.501	1	-1
614.671	1	2
614.840	1	0
615.010	1	-2
615.180	1	11
615.349	1	4
615.519	1	9
615.689	1	9
615.858	1	0
616.028	1	-2
616.198	1	4
616.368	1	8
616.537	1	-12
616.707	1	1
616.877	1	-2
617.046	1	4
617.216	1	-1
617.386	1	8
617.555	1	-5
617.725	1	-2
617.895	1	-7
618.064	1	2
618.234	1	-1
618.404	1	-6
618.573	1	2
618.743	1	2
618.913	1	5
619.082	1	4
619.252	1	12
619.422	1	1
619.591	1	-3
619.761	1	6
619.931	1	3
620.100	1	-5
620.270	1	-1
620.440	1	4
620.609	1	-6
620.779	1	12
620.949	1	-4
621.118	1	5
621.288	1	-1
621.458	1	0
621.627	1	-3
621.797	1	3
621.967	1	0
622.136	1	-6
622.306	1	-3
622.476	1	4
622.645	1	8
622.815	1	6
622.985	1	-3
623.154	1	2
623.324	1	2
623.494	1	8
623.663	1	-6
623.833	1	1
624.002	1	-5
624.172	1	-4
624.342	1	-18
624.511	1	-12
624.681	1	9
624.851	1	12
625.020	1	3
625.190	1	22
625.360	1	0
625.529	1	5
625.699	1	-6
625.869	1	13
626.038	1	-9
626.208	1	10
626.377	1	6
626.547	1	6
626.717	1	9
626.886	1	2
627.056	1	-4
627.226	1	-3
627.395	1	-7
627.565	1	5
627.735	1	1
627.904	1	0
628.074	1	10
628.243	1	6
628.413	1	-3
628.583	1	-7
628.752	1	-2
628.922	1	1
629.091	1	-8
629.261	1	6
629.431	1	9
629.600	1	15
629.770	1	-1
629.940	1	-11
630.109	1	2
630.279	1	-8
630.448	1	-3
630.618	1	10
630.788	1	0
630.957	1	9
631.127	1	9
631.297	1	0
631.466	1	1
631.636	1	-6
631.805	1	8
631.975	1	8
632.145	1	10
632.314	1	-2
632.484	1	-7
632.653	1	-3
632.823	1	6
632.993	1	10
633.162	1	-1
633.332	1	-6
633.501	1	-5
633.671	1	-1
633.841	1	13
634.010	1	11
634.180	1	-6
634.349	1	12
634.519	1	-10
634.689	1	3
634.858	1	-18
635.028	1	5
635.197	1	2
635.367	1	-3
635.537	1	-1
635.706	1	-2
635.876	1	-1
636.045	1	-3
636.215	1	6
636.384	1	3
636.554	1	-1
636.724	1	-5
636.893	1	2
637.063	1	5
637.232	1	-2
637.402	1	-1
637.572	1	-3
637.741	1	0
637.911	1	0
638.080	1	-1
638.250	1	2
638.419	1	5
638.589	1	13
638.759	1	-4
638.928	1	5
639.098	1	-2
639.267	1	9
639.437	1	4
639.606	1	-5
639.776	1	5
639.946	1	2
640.115	1	-6
640.285	1	3
640.454	1	-4
640.624	1	9
640.793	1	4
640.963	1	4
641.132	1	-11
641.302	1	5
641.472	1	-3
641.641	1	-2
641.811	1	1
641.980	1	1
642.150	1	1
642.319	1	7
642.489	1	-3
642.659	1	2
642.828	1	9
642.998	1	-4
643.167	1	4
643.337	1	-4
643.506	1	2
643.676	1	4
643.845	1	-4
644.015	1	9
644.184	1	12
644.354	1	8
644.524	1	2
644.693	1	4
644.863	1	4
645.032	1	-1
645.202	1	0
645.371	1	10
645.541	1	11
645.710	1	4
645.880	1	11
646.049	1	13
646.219	1	7
646.388	1	2
646.558	1	-3
646.728	1	2
646.897	1	-12
647.067	1	0
647.236	1	3
647.406	1	1
647.575	1	-3
647.745	1	1
647.914	1	-5
648.084	1	-5
648.253	1	6
648.423	1	1
648.592	1	-8
648.762	1	11
648.931	1	15
649.101	1	10
649.270	1	3
649.440	1	-6
649.610	1	9
649.779	1	-2
649.949	1	-10
650.118	1	10
650.288	1	13
650.457	1	5
650.627	1	1
650.796	1	8
650.966	1	-3
651.135	1	9
651.305	1	-2
651.474	1	1
651.644	1	-5
651.813	1	-9
651.983	1	1
652.152	1	7
652.322	1	-2
652.491	1	22
652.661	1	8
652.830	1	7
653.000	1	9
653.169	1	-3
653.339	1	-2
653.508	1	3
653.678	1	6
653.847	1	8
654.017	1	-3
654.186	1	-2
654.356	1	-3
654.525	1	7
654.695	1	0
654.864	1	7
655.034	1	4
655.203	1	-7
655.373	1	13
655.542	1	2
655.712	1	1
655.881	1	-5
656.051	1	2
656.220	1	10
656.390	1	3
656.559	1	7
656.729	1	-11
656.898	1	-14
657.068	1	5
657.237	1	1
657.406	1	8
657.576	1	5
657.745	1	1
657.915	1	0
658.084	1	3
658.254	1	3
658.423	1	-1
658.593	1	-9
658.762	1	-1
658.932	1	6
659.101	1	4
659.271	1	-2
659.440	1	0
659.610	1	6
659.779	1	0
659.949	1	-6
660.118	1	-2
660.288	1	6
660.457	1	0
660.626	1	4
660.796	1	5
660.965	1	2
661.135	1	2
661.304	1	4
661.474	1	6
661.643	1	-1
661.813	1	-9
661.982	1	-4
662.152	1	1
662.321	1	-2
662.491	1	-11
662.660	1	-6
662.829	1	-1
662.999	1	3
663.168	1	-1
663.338	1	8
663.507	1	-7
663.677	1	5
663.846	1	12
664.016	1	-6
664.185	1	2
664.354	1	-1
664.524	1	-8
664.693	1	9
664.863	1	-1
665.032	1	-2
665.202	1	4
665.371	1	7
665.541	1	8
665.710	1	7
665.879	1	5
666.049	1	3
666.218	1	4
666.388	1	1
666.557	1	-5
666.727	1	3
666.896	1	6
667.065	1	8
667.235	1	-5
667.404	1	2
667.574	1	11
667.743	1	-5
667.913	1	-8
668.082	1	8
668.251	1	3
668.421	1	2
668.590	1	6
668.760	1	-3
668.929	1	2
669.099	1	-5
669.268	1	7
669.437	1	-1
669.607	1	7
669.776	1	-5
669.946	1	0
670.115	1	3
670.285	1	-9
670.454	1	5
670.623	1	4
670.793	1	10
670.962	1	2
671.132	1	-5
671.301	1	0
671.470	1	-7
671.640	1	-12
671.809	1	18
671.979	1	10
672.148	1	9
672.317	1	-6
672.487	1	13
672.656	1	-7
672.826	1	12
672.995	1	-3
673.164	1	0
673.334	1	0
673.503	1	-8
673.673	1	2
673.842	1	-5
674.011	1	6
674.181	1	-9
674.350	1	8
674.520	1	9
674.689	1	5
674.858	1	5
675.028	1	10
675.197	1	-2
675.367	1	2
675.536	1	4
675.705	1	-5
675.875	1	4
676.044	1	-3
676.214	1	-12
676.383	1	3
676.552	1	-2
676.722	1	3
676.891	1	3
677.060	1	-11
677.230	1	-8
677.399	1	-3
677.569	1	8
677.738	1	-2
677.907	1	5
678.077	1	-4
678.246	1	7
678.416	1	-4
678.585	1	-5
678.754	1	-7
678.924	1	0
679.093	1	5
679.262	1	-1
679.432	1	7
679.601	1	1
679.771	1	-7
679.940	1	-3
680.109	1	-5
680.279	1	-8
680.448	1	-10
680.617	1	5
680.787	1	5
680.956	1	15
681.125	1	-7
681.295	1	0
681.464	1	12
681.634	1	4
681.803	1	-1
681.972	1	7
682.142	1	4
682.311	1	-11
682.480	1	3
682.650	1	10
682.819	1	-8
682.988	1	-1
683.158	1	-1
683.327	1	7
683.496	1	5
683.666	1	8
683.835	1	1
684.004	1	4
684.174	1	-7
684.343	1	-2
684.512	1	8
684.682	1	5
684.851	1	14
685.021	1	3
685.190	1	17
685.359	1	9
685.529	1	7
685.698	1	4
685.867	1	1
686.037	1	2
686.206	1	4
686.375	1	1
686.545	1	1
686.714	1	8
686.883	1	-1
687.053	1	2
687.222	1	-2
687.391	1	6
687.561	1	-2
687.730	1	-3
687.899	1	-6
688.069	1	-1
688.238	1	7
688.407	1	-1
688.577	1	12
688.746	1	-7
