340.368	1	8
340.539	1	4
340.710	1	2
340.881	1	0
341.052	1	-4
341.223	1	16
341.394	1	8
341.565	1	-15
341.737	1	9
341.908	1	3
342.079	1	6
342.250	1	-6
342.421	1	5
342.592	1	12
342.763	1	-6
342.934	1	2
343.105	1	-10
343.276	1	14
343.447	1	-1
343.618	1	-8
343.789	1	-3
343.960	1	9
344.131	1	4
344.302	1	-1
344.473	1	6
344.644	1	12
344.815	1	8
344.986	1	2
345.157	1	6
345.328	1	12
345.499	1	9
345.670	1	2
345.841	1	7
346.012	1	13
346.183	1	5
346.354	1	6
346.526	1	-2
346.697	1	-3
346.868	1	2
347.039	1	9
347.210	1	-7
347.381	1	20
347.552	1	0
347.723	1	21
347.894	1	-2
348.065	1	2
348.236	1	-2
348.407	1	6
348.578	1	9
348.749	1	1
348.920	1	10
349.091	1	7
349.262	1	8
349.433	1	14
349.604	1	4
349.775	1	6
349.946	1	7
350.117	1	18
350.288	1	0
350.459	1	14
350.630	1	-2
350.801	1	17
350.972	1	13
351.143	1	21
351.314	1	6
351.485	1	0
351.656	1	0
351.827	1	5
351.998	1	8
352.169	1	20
352.340	1	1
352.511	1	9
352.682	1	7
352.853	1	14
353.024	1	20
353.195	1	9
353.366	1	6
353.537	1	11
353.708	1	8
353.879	1	13
354.050	1	14
354.221	1	20
354.392	1	-2
354.563	1	5
354.734	1	8
354.905	1	19
355.076	1	8
355.247	1	8
355.418	1	10
355.589	1	14
355.760	1	14
355.931	1	13
356.102	1	11
356.273	1	13
356.444	1	13
356.615	1	14
356.785	1	14
356.956	1	12
357.127	1	27
357.298	1	26
357.469	1	12
357.640	1	34
357.811	1	29
357.982	1	26
358.153	1	13
358.324	1	31
358.495	1	24
358.666	1	22
358.837	1	30
359.008	1	40
359.179	1	24
359.350	1	28
359.521	1	25
359.692	1	41
359.863	1	20
360.034	1	32
360.205	1	47
360.376	1	34
360.547	1	38
360.718	1	24
360.889	1	45
361.060	1	41
361.231	1	38
361.401	1	28
361.572	1	38
361.743	1	42
361.914	1	39
362.085	1	52
362.256	1	44
362.427	1	49
362.598	1	51
362.769	1	53
362.940	1	49
363.111	1	55
363.282	1	64
363.453	1	64
363.624	1	75
363.795	1	54
363.966	1	66
364.137	1	63
364.308	1	64
364.478	1	73
364.649	1	73
364.820	1	76
364.991	1	87
365.162	1	89
365.333	1	92
365.504	1	80
365.675	1	104
365.846	1	103
366.017	1	113
366.188	1	106
366.359	1	106
366.530	1	103
366.701	1	121
366.871	1	115
367.042	1	114
367.213	1	122
367.384	1	128
367.555	1	125
367.726	1	145
367.897	1	162
368.068	1	132
368.239	1	148
368.410	1	158
368.581	1	168
368.752	1	186
368.923	1	159
369.093	1	180
369.264	1	188
369.435	1	185
369.606	1	188
369.777	1	189
369.948	1	212
370.119	1	200
370.290	1	222
370.461	1	208
370.632	1	224
370.803	1	215
370.973	1	206
371.144	1	240
371.315	1	223
371.486	1	250
371.657	1	248
371.828	1	240
371.999	1	243
372.170	1	249
372.341	1	255
372.512	1	271
372.682	1	261
372.853	1	266
373.024	1	268
373.195	1	290
373.366	1	274
373.537	1	270
373.708	1	271
373.879	1	267
374.050	1	270
374.220	1	255
374.391	1	263
374.562	1	260
374.733	1	254
374.904	1	282
375.075	1	269
375.246	1	253
375.417	1	256
375.588	1	249
375.758	1	244
375.929	1	245
376.100	1	240
376.271	1	227
376.442	1	237
376.613	1	239
376.784	1	222
376.955	1	230
377.125	1	223
377.296	1	222
377.467	1	215
377.638	1	199
377.809	1	215
377.980	1	191
378.151	1	184
378.321	1	189
378.492	1	203
378.663	1	187
378.834	1	188
379.005	1	185
379.176	1	186
379.347	1	171
379.518	1	165
379.688	1	179
379.859	1	170
380.030	1	155
380.201	1	158
380.372	1	145
380.543	1	150
380.714	1	144
380.884	1	162
381.055	1	126
381.226	1	133
381.397	1	135
381.568	1	125
381.739	1	123
381.910	1	128
382.080	1	132
382.251	1	127
382.422	1	116
382.593	1	119
382.764	1	104
382.935	1	126
383.105	1	127
383.276	1	107
383.447	1	117
383.618	1	116
383.789	1	100
383.960	1	103
384.130	1	104
384.301	1	93
384.472	1	86
384.643	1	89
384.814	1	85
384.985	1	97
385.156	1	82
385.326	1	78
385.497	1	81
385.668	1	75
385.839	1	97
386.010	1	81
386.180	1	80
386.351	1	89
386.522	1	63
386.693	1	75
386.864	1	81
387.035	1	71
387.205	1	69
387.376	1	67
387.547	1	50
387.718	1	65
387.889	1	77
388.060	1	78
388.230	1	60
388.401	1	76
388.572	1	55
388.743	1	64
388.914	1	65
389.084	1	53
389.255	1	56
389.426	1	49
389.597	1	46
389.768	1	59
389.939	1	61
390.109	1	46
390.280	1	41
390.451	1	48
390.622	1	47
390.793	1	51
390.963	1	37
391.134	1	36
391.305	1	50
391.476	1	48
391.647	1	44
391.817	1	46
391.988	1	34
392.159	1	41
392.330	1	31
392.501	1	43
392.671	1	36
392.842	1	44
393.013	1	46
393.184	1	45
393.355	1	33
393.525	1	41
393.696	1	39
393.867	1	48
394.038	1	40
394.208	1	37
394.379	1	24
394.550	1	33
394.721	1	40
394.892	1	41
395.062	1	39
395.233	1	30
395.404	1	26
395.575	1	34
395.746	1	32
395.916	1	41
396.087	1	29
396.258	1	34
396.429	1	34
396.599	1	24
396.770	1	23
396.941	1	24
397.112	1	32
397.283	1	32
397.453	1	25
397.624	1	29
397.795	1	30
397.966	1	39
398.136	1	24
398.307	1	31
398.478	1	18
398.649	1	26
398.819	1	22
398.990	1	20
399.161	1	25
399.332	1	33
399.503	1	21
399.673	1	19
399.844	1	22
400.015	1	36
400.186	1	25
400.356	1	15
400.527	1	19
400.698	1	35
400.869	1	14
401.039	1	17
401.210	1	31
401.381	1	23
401.552	1	14
401.722	1	21
401.893	1	17
402.064	1	15
402.235	1	11
402.405	1	26
402.576	1	19
402.747	1	11
402.918	1	30
403.088	1	22
403.259	1	16
403.430	1	25
403.601	1	17
403.771	1	17
403.942	1	17
404.113	1	11
404.284	1	25
404.454	1	20
404.625	1	15
404.796	1	22
404.967	1	7
405.137	1	17
405.308	1	9
405.479	1	9
405.649	1	22
405.820	1	9
405.991	1	20
406.162	1	22
406.332	1	24
406.503	1	8
406.674	1	19
406.845	1	7
407.015	1	24
407.186	1	6
407.357	1	23
407.527	1	12
407.698	1	7
407.869	1	13
408.040	1	9
408.210	1	11
408.381	1	3
408.552	1	23
408.722	1	3
408.893	1	5
409.064	1	13
409.235	1	12
409.405	1	5
409.576	1	9
409.747	1	9
409.917	1	13
410.088	1	16
410.259	1	12
410.430	1	11
410.600	1	9
410.771	1	4
410.942	1	0
411.112	1	21
411.283	1	12
411.454	1	5
411.625	1	3
411.795	1	12
411.966	1	21
412.137	1	14
412.307	1	-3
412.478	1	17
412.649	1	10
412.819	1	18
412.990	1	-2
413.161	1	14
413.332	1	15
413.502	1	5
413.673	1	2
413.844	1	3
414.014	1	17
414.185	1	8
414.356	1	8
414.526	1	13
414.697	1	1
414.868	1	15
415.038	1	11
415.209	1	3
415.380	1	6
415.550	1	12
415.721	1	8
415.892	1	7
416.063	1	7
416.233	1	15
416.404	1	-9
416.575	1	10
416.745	1	10
416.916	1	8
417.087	1	16
417.257	1	11
417.428	1	0
417.599	1	11
417.769	1	0
417.940	1	-5
418.111	1	13
418.281	1	9
418.452	1	3
418.623	1	3
418.793	1	10
418.964	1	9
419.135	1	9
419.305	1	8
419.476	1	8
419.647	1	4
419.817	1	5
419.988	1	3
420.159	1	12
420.329	1	10
420.500	1	9
420.671	1	19
420.841	1	9
421.012	1	18
421.183	1	8
421.353	1	6
421.524	1	2
421.695	1	3
421.865	1	6
422.036	1	17
422.206	1	10
422.377	1	6
422.548	1	5
422.718	1	17
422.889	1	-1
423.060	1	4
423.230	1	2
423.401	1	7
423.572	1	6
423.742	1	9
423.913	1	8
424.084	1	1
424.254	1	5
424.425	1	7
424.595	1	5
424.766	1	7
424.937	1	6
425.107	1	3
425.278	1	12
425.449	1	7
425.619	1	8
425.790	1	5
425.961	1	12
426.131	1	2
426.302	1	11
426.472	1	0
426.643	1	6
426.814	1	6
426.984	1	8
427.155	1	13
427.326	1	6
427.496	1	17
427.667	1	9
427.837	1	8
428.008	1	4
428.179	1	2
428.349	1	6
428.520	1	5
428.691	1	9
428.861	1	16
429.032	1	0
429.202	1	-1
429.373	1	5
429.544	1	5
429.714	1	-1
429.885	1	16
430.055	1	10
430.226	1	13
430.397	1	-3
430.567	1	15
430.738	1	16
430.909	1	3
431.079	1	10
431.250	1	-7
431.420	1	8
431.591	1	-7
431.762	1	1
431.932	1	10
432.103	1	12
432.273	1	10
432.444	1	-2
432.615	1	0
432.785	1	3
432.956	1	20
433.126	1	15
433.297	1	1
433.468	1	-7
433.638	1	-1
433.809	1	4
433.979	1	5
434.150	1	18
434.320	1	8
434.491	1	6
434.662	1	8
434.832	1	10
435.003	1	4
435.173	1	8
435.344	1	2
435.515	1	8
435.685	1	4
435.856	1	14
436.026	1	1
436.197	1	13
436.368	1	-1
436.538	1	4
436.709	1	-3
436.879	1	-2
437.050	1	11
437.220	1	22
437.391	1	15
437.562	1	12
437.732	1	3
437.903	1	7
438.073	1	4
438.244	1	11
438.414	1	9
438.585	1	0
438.756	1	7
438.926	1	13
439.097	1	4
439.267	1	2
439.438	1	12
439.608	1	12
439.779	1	4
439.949	1	8
440.120	1	4
440.291	1	11
440.461	1	6
440.632	1	9
440.802	1	16
440.973	1	18
441.143	1	-5
441.314	1	2
441.485	1	6
441.655	1	11
441.826	1	8
441.996	1	1
442.167	1	9
442.337	1	9
442.508	1	25
442.678	1	9
442.849	1	11
443.019	1	1
443.190	1	8
443.361	1	-1
443.531	1	4
443.702	1	7
443.872	1	12
444.043	1	3
444.213	1	10
444.384	1	3
444.554	1	-12
444.725	1	3
444.895	1	14
445.066	1	-1
445.237	1	6
445.407	1	18
445.578	1	9
445.748	1	8
445.919	1	11
446.089	1	8
446.260	1	-3
446.430	1	9
446.601	1	8
446.771	1	11
446.942	1	5
447.112	1	1
447.283	1	17
447.453	1	5
447.624	1	1
447.794	1	0
447.965	1	8
448.135	1	5
448.306	1	5
448.477	1	6
448.647	1	9
448.818	1	1
448.988	1	0
449.159	1	10
449.329	1	10
449.500	1	3
449.670	1	11
449.841	1	10
450.011	1	6
450.182	1	9
450.352	1	9
450.523	1	13
450.693	1	-1
450.864	1	13
451.034	1	-1
451.205	1	6
451.375	1	1
451.546	1	15
451.716	1	-11
451.887	1	6
452.057	1	9
452.228	1	17
452.398	1	10
452.569	1	0
452.739	1	10
452.910	1	2
453.080	1	3
453.251	1	6
453.421	1	0
453.592	1	12
453.762	1	10
453.933	1	8
454.103	1	9
454.274	1	2
454.444	1	10
454.615	1	-1
454.785	1	5
454.956	1	-2
455.126	1	7
455.297	1	9
455.467	1	4
455.638	1	-1
455.808	1	8
455.979	1	13
456.149	1	5
456.320	1	2
456.490	1	-2
456.661	1	9
456.831	1	8
457.001	1	5
457.172	1	7
457.342	1	5
457.513	1	4
457.683	1	11
457.854	1	9
458.024	1	10
458.195	1	2
458.365	1	9
458.536	1	1
458.706	1	4
458.877	1	8
459.047	1	5
459.218	1	2
459.388	1	9
459.559	1	7
459.729	1	10
459.899	1	2
460.070	1	9
460.240	1	14
460.411	1	10
460.581	1	-4
460.752	1	3
460.922	1	7
461.093	1	-5
461.263	1	-3
461.434	1	-1
461.604	1	1
461.775	1	3
461.945	1	7
462.115	1	6
462.286	1	11
462.456	1	14
462.627	1	1
462.797	1	3
462.968	1	19
463.138	1	7
463.309	1	9
463.479	1	11
463.649	1	10
463.820	1	-12
463.990	1	7
464.161	1	0
464.331	1	7
464.502	1	15
464.672	1	4
464.843	1	22
465.013	1	6
465.183	1	-3
465.354	1	2
465.524	1	10
465.695	1	9
465.865	1	1
466.036	1	1
466.206	1	6
466.376	1	15
466.547	1	8
466.717	1	-2
466.888	1	2
467.058	1	6
467.229	1	8
467.399	1	5
467.569	1	19
467.740	1	-7
467.910	1	-8
468.081	1	3
468.251	1	5
468.422	1	-3
468.592	1	11
468.762	1	17
468.933	1	7
469.103	1	-4
469.274	1	11
469.444	1	13
469.614	1	5
469.785	1	3
469.955	1	5
470.126	1	3
470.296	1	5
470.467	1	-2
470.637	1	7
470.807	1	6
470.978	1	5
471.148	1	15
471.319	1	2
471.489	1	11
471.659	1	5
471.830	1	8
472.000	1	6
472.171	1	2
472.341	1	-6
472.511	1	5
472.682	1	12
472.852	1	3
473.023	1	-2
473.193	1	0
473.363	1	8
473.534	1	0
473.704	1	6
473.875	1	18
474.045	1	2
474.215	1	3
474.386	1	13
474.556	1	-3
474.727	1	5
474.897	1	2
475.067	1	12
475.238	1	5
475.408	1	5
475.578	1	6
475.749	1	5
475.919	1	7
476.090	1	9
476.260	1	9
476.430	1	1
476.601	1	-3
476.771	1	10
476.942	1	1
477.112	1	8
477.282	1	10
477.453	1	3
477.623	1	5
477.793	1	8
477.964	1	-2
478.134	1	5
478.305	1	8
478.475	1	-9
478.645	1	7
478.816	1	15
478.986	1	-1
479.156	1	2
479.327	1	-7
479.497	1	11
479.667	1	-7
479.838	1	13
480.008	1	4
480.179	1	5
480.349	1	1
480.519	1	1
480.690	1	1
480.860	1	11
481.030	1	-5
481.201	1	-2
481.371	1	12
481.541	1	1
481.712	1	8
481.882	1	6
482.053	1	7
482.223	1	0
482.393	1	11
482.564	1	-1
482.734	1	12
482.904	1	2
483.075	1	7
483.245	1	16
483.415	1	-6
483.586	1	5
483.756	1	7
483.926	1	3
484.097	1	11
484.267	1	0
484.437	1	-4
484.608	1	6
484.778	1	9
484.948	1	1
485.119	1	0
485.289	1	-8
485.459	1	7
485.630	1	10
485.800	1	13
485.970	1	-5
486.141	1	4
486.311	1	13
486.481	1	-10
486.652	1	5
486.822	1	12
486.992	1	6
487.163	1	3
487.333	1	6
487.503	1	8
487.674	1	9
487.844	1	1
488.014	1	2
488.185	1	22
488.355	1	-1
488.525	1	8
488.696	1	-1
488.866	1	3
489.036	1	5
489.207	1	7
489.377	1	4
489.547	1	12
489.718	1	12
489.888	1	9
490.058	1	5
490.228	1	7
490.399	1	-4
490.569	1	11
490.739	1	7
490.910	1	7
491.080	1	5
491.250	1	-6
491.421	1	0
491.591	1	11
491.761	1	19
491.932	1	1
492.102	1	2
492.272	1	6
492.442	1	1
492.613	1	15
492.783	1	10
492.953	1	6
493.124	1	3
493.294	1	5
493.464	1	18
493.635	1	-3
493.805	1	7
493.975	1	-3
494.145	1	10
494.316	1	3
494.486	1	6
494.656	1	10
494.827	1	-7
494.997	1	-2
495.167	1	2
495.337	1	12
495.508	1	6
495.678	1	12
495.848	1	11
496.019	1	-9
496.189	1	10
496.359	1	5
496.529	1	3
496.700	1	1
496.870	1	0
497.040	1	-3
497.211	1	3
497.381	1	-5
497.551	1	0
497.721	1	13
497.892	1	3
498.062	1	17
498.232	1	1
498.403	1	2
498.573	1	9
498.743	1	15
498.913	1	12
499.084	1	-5
499.254	1	7
499.424	1	12
499.594	1	13
499.765	1	-6
499.935	1	9
500.105	1	6
500.275	1	-6
500.446	1	7
500.616	1	2
500.786	1	8
500.956	1	11
501.127	1	8
501.297	1	19
501.467	1	-1
501.638	1	2
501.808	1	4
501.978	1	-2
502.148	1	7
502.319	1	9
502.489	1	-6
502.659	1	-2
502.829	1	8
503.000	1	1
503.170	1	4
503.340	1	8
503.510	1	-7
503.681	1	-1
503.851	1	-6
504.021	1	6
504.191	1	-2
504.362	1	7
504.532	1	2
504.702	1	10
504.872	1	6
505.042	1	4
505.213	1	6
505.383	1	12
505.553	1	6
505.723	1	6
505.894	1	4
506.064	1	17
506.234	1	9
506.404	1	1
506.575	1	5
506.745	1	-5
506.915	1	-2
507.085	1	4
507.256	1	3
507.426	1	2
507.596	1	8
507.766	1	13
507.936	1	0
508.107	1	14
508.277	1	-4
508.447	1	11
508.617	1	0
508.788	1	-7
508.958	1	11
509.128	1	7
509.298	1	-2
509.468	1	11
509.639	1	6
509.809	1	12
509.979	1	11
510.149	1	8
510.319	1	11
510.490	1	1
510.660	1	6
510.830	1	4
511.000	1	1
511.171	1	-3
511.341	1	1
511.511	1	16
511.681	1	13
511.851	1	6
512.022	1	3
512.192	1	4
512.362	1	2
512.532	1	2
512.702	1	-2
512.873	1	7
513.043	1	8
513.213	1	11
513.383	1	10
513.553	1	8
513.724	1	18
513.894	1	5
514.064	1	10
514.234	1	1
514.404	1	-3
514.575	1	11
514.745	1	-4
514.915	1	-3
515.085	1	13
515.255	1	6
515.425	1	0
515.596	1	4
515.766	1	12
515.936	1	4
516.106	1	3
516.276	1	4
516.447	1	5
516.617	1	-5
516.787	1	6
516.957	1	11
517.127	1	7
517.297	1	8
517.468	1	4
517.638	1	7
517.808	1	10
517.978	1	12
518.148	1	12
518.319	1	15
518.489	1	3
518.659	1	12
518.829	1	9
518.999	1	0
519.169	1	1
519.340	1	-1
519.510	1	7
519.680	1	5
519.850	1	7
520.020	1	7
520.190	1	7
520.361	1	10
520.531	1	5
520.701	1	1
520.871	1	5
521.041	1	4
521.211	1	4
521.382	1	15
521.552	1	8
521.722	1	11
521.892	1	2
522.062	1	3
522.232	1	15
522.402	1	5
522.573	1	18
522.743	1	9
522.913	1	1
523.083	1	12
523.253	1	7
523.423	1	23
523.593	1	-2
523.764	1	12
523.934	1	10
524.104	1	12
524.274	1	-3
524.444	1	10
524.614	1	6
524.784	1	7
524.955	1	8
525.125	1	15
525.295	1	14
525.465	1	-7
525.635	1	-9
525.805	1	9
525.975	1	4
526.146	1	9
526.316	1	7
526.486	1	14
526.656	1	11
526.826	1	3
526.996	1	11
527.166	1	11
527.337	1	10
527.507	1	-3
527.677	1	19
527.847	1	9
528.017	1	-5
528.187	1	10
528.357	1	8
528.527	1	7
528.698	1	7
528.868	1	4
529.038	1	5
529.208	1	11
529.378	1	9
529.548	1	7
529.718	1	3
529.888	1	12
530.058	1	7
530.229	1	16
530.399	1	6
530.569	1	-5
530.739	1	8
530.909	1	4
531.079	1	-6
531.249	1	4
531.419	1	3
531.589	1	6
531.760	1	11
531.930	1	6
532.100	1	5
532.270	1	3
532.440	1	6
532.610	1	9
532.780	1	2
532.950	1	8
533.120	1	14
533.290	1	10
533.461	1	6
533.631	1	3
533.801	1	-3
533.971	1	5
534.141	1	-8
534.311	1	9
534.481	1	5
534.651	1	13
534.821	1	9
534.991	1	-2
535.162	1	20
535.332	1	9
535.502	1	1
535.672	1	10
535.842	1	8
536.012	1	10
536.182	1	20
536.352	1	15
536.522	1	17
536.692	1	16
536.862	1	18
537.032	1	13
537.203	1	11
537.373	1	14
537.543	1	9
537.713	1	2
537.883	1	-2
538.053	1	3
538.223	1	6
538.393	1	8
538.563	1	1
538.733	1	9
538.903	1	6
539.073	1	9
539.243	1	-1
539.413	1	7
539.584	1	10
539.754	1	11
539.924	1	10
540.094	1	-2
540.264	1	-1
540.434	1	3
540.604	1	14
540.774	1	15
540.944	1	3
541.114	1	6
541.284	1	11
541.454	1	0
541.624	1	10
541.794	1	13
541.964	1	16
542.134	1	13
542.305	1	21
542.475	1	2
542.645	1	1
542.815	1	9
542.985	1	11
543.155	1	8
543.325	1	10
543.495	1	10
543.665	1	17
543.835	1	7
544.005	1	8
544.175	1	0
544.345	1	0
544.515	1	-2
544.685	1	-4
544.855	1	3
545.025	1	18
545.195	1	4
545.365	1	9
545.535	1	13
545.705	1	14
545.875	1	6
546.045	1	8
546.216	1	1
546.386	1	5
546.556	1	7
546.726	1	8
546.896	1	12
547.066	1	9
547.236	1	13
547.406	1	8
547.576	1	4
547.746	1	20
547.916	1	8
548.086	1	6
548.256	1	7
548.426	1	2
548.596	1	16
548.766	1	10
548.936	1	-7
549.106	1	3
549.276	1	4
549.446	1	7
549.616	1	0
549.786	1	16
549.956	1	4
550.126	1	7
550.296	1	11
550.466	1	10
550.636	1	5
550.806	1	6
550.976	1	6
551.146	1	13
551.316	1	14
551.486	1	0
551.656	1	9
551.826	1	10
551.996	1	12
552.166	1	6
552.336	1	16
552.506	1	3
552.676	1	16
552.846	1	11
553.016	1	13
553.186	1	1
553.356	1	3
553.526	1	19
553.696	1	13
553.866	1	13
554.036	1	12
554.206	1	20
554.376	1	6
554.546	1	20
554.716	1	2
554.886	1	7
555.056	1	14
555.226	1	7
555.396	1	-1
555.566	1	7
555.736	1	9
555.906	1	4
556.076	1	7
556.246	1	9
556.416	1	11
556.586	1	2
556.756	1	9
556.926	1	14
557.096	1	5
557.266	1	11
557.436	1	1
557.606	1	14
557.776	1	9
557.946	1	14
558.116	1	-1
558.286	1	6
558.456	1	3
558.626	1	12
558.796	1	4
558.966	1	-1
559.136	1	15
559.306	1	8
559.476	1	13
559.646	1	10
559.816	1	0
559.986	1	21
560.155	1	0
560.325	1	12
560.495	1	3
560.665	1	8
560.835	1	3
561.005	1	1
561.175	1	10
561.345	1	2
561.515	1	12
561.685	1	2
561.855	1	1
562.025	1	12
562.195	1	10
562.365	1	11
562.535	1	1
562.705	1	11
562.875	1	7
563.045	1	4
563.215	1	1
563.385	1	21
563.555	1	8
563.725	1	15
563.895	1	10
564.064	1	20
564.234	1	9
564.404	1	-2
564.574	1	19
564.744	1	13
564.914	1	8
565.084	1	14
565.254	1	12
565.424	1	1
565.594	1	4
565.764	1	11
565.934	1	1
566.104	1	11
566.274	1	10
566.444	1	14
566.614	1	3
566.783	1	12
566.953	1	10
567.123	1	-2
567.293	1	18
567.463	1	13
567.633	1	10
567.803	1	-2
567.973	1	13
568.143	1	3
568.313	1	5
568.483	1	7
568.653	1	11
568.823	1	10
568.993	1	12
569.162	1	14
569.332	1	10
569.502	1	15
569.672	1	2
569.842	1	9
570.012	1	9
570.182	1	15
570.352	1	10
570.522	1	19
570.692	1	-2
570.862	1	23
571.031	1	11
571.201	1	14
571.371	1	-4
571.541	1	14
571.711	1	3
571.881	1	11
572.051	1	9
572.221	1	10
572.391	1	1
572.561	1	22
572.731	1	2
572.900	1	7
573.070	1	7
573.240	1	11
573.410	1	4
573.580	1	12
573.750	1	12
573.920	1	5
574.090	1	6
574.260	1	6
574.430	1	6
574.599	1	4
574.769	1	15
574.939	1	9
575.109	1	15
575.279	1	9
575.449	1	14
575.619	1	12
575.789	1	5
575.959	1	2
576.128	1	8
576.298	1	11
576.468	1	10
576.638	1	11
576.808	1	3
576.978	1	4
577.148	1	-1
577.318	1	4
577.487	1	-7
577.657	1	9
577.827	1	8
577.997	1	8
578.167	1	16
578.337	1	1
578.507	1	15
578.677	1	9
578.846	1	16
579.016	1	7
579.186	1	20
579.356	1	13
579.526	1	18
579.696	1	14
579.866	1	13
580.036	1	5
580.205	1	3
580.375	1	11
580.545	1	8
580.715	1	15
580.885	1	6
581.055	1	-2
581.225	1	3
581.394	1	-1
581.564	1	4
581.734	1	5
581.904	1	12
582.074	1	15
582.244	1	18
582.414	1	19
582.583	1	13
582.753	1	0
582.923	1	17
583.093	1	9
583.263	1	5
583.433	1	-1
583.603	1	12
583.772	1	6
583.942	1	10
584.112	1	16
584.282	1	12
584.452	1	8
584.622	1	8
584.791	1	13
584.961	1	10
585.131	1	8
585.301	1	12
585.471	1	6
585.641	1	8
585.811	1	16
585.980	1	10
586.150	1	11
586.320	1	7
586.490	1	4
586.660	1	12
586.830	1	9
586.999	1	14
587.169	1	3
587.339	1	8
587.509	1	14
587.679	1	6
587.849	1	8
588.018	1	6
588.188	1	10
588.358	1	18
588.528	1	0
588.698	1	4
588.867	1	8
589.037	1	13
589.207	1	6
589.377	1	17
589.547	1	5
589.717	1	0
589.886	1	10
590.056	1	3
590.226	1	12
590.396	1	7
590.566	1	7
590.735	1	0
590.905	1	9
591.075	1	15
591.245	1	13
591.415	1	2
591.585	1	-2
591.754	1	-7
591.924	1	4
592.094	1	7
592.264	1	11
592.434	1	17
592.603	1	13
592.773	1	19
592.943	1	2
593.113	1	0
593.283	1	12
593.452	1	8
593.622	1	6
593.792	1	6
593.962	1	8
594.132	1	9
594.301	1	-2
594.471	1	6
594.641	1	4
594.811	1	3
594.981	1	4
595.150	1	-1
595.320	1	7
595.490	1	3
595.660	1	14
595.829	1	10
595.999	1	1
596.169	1	0
596.339	1	4
596.509	1	5
596.678	1	7
596.848	1	10
597.018	1	3
597.188	1	9
597.358	1	6
597.527	1	26
597.697	1	2
597.867	1	9
598.037	1	0
598.206	1	2
598.376	1	2
598.546	1	14
598.716	1	10
598.885	1	18
599.055	1	2
599.225	1	13
599.395	1	10
599.565	1	5
599.734	1	-1
599.904	1	14
600.074	1	16
600.244	1	8
600.413	1	4
600.583	1	1
600.753	1	4
600.923	1	10
601.092	1	11
601.262	1	5
601.432	1	11
601.602	1	9
601.771	1	6
601.941	1	11
602.111	1	4
602.281	1	13
602.451	1	14
602.620	1	12
602.790	1	4
602.960	1	-1
603.130	1	3
603.299	1	6
603.469	1	1
603.639	1	6
603.809	1	19
603.978	1	4
604.148	1	7
604.318	1	-1
604.487	1	12
604.657	1	13
604.827	1	11
604.997	1	0
605.166	1	-4
605.336	1	18
605.506	1	5
605.676	1	11
605.845	1	3
606.015	1	6
606.185	1	7
606.355	1	8
606.524	1	6
606.694	1	7
606.864	1	12
607.034	1	6
607.203	1	13
607.373	1	4
607.543	1	3
607.712	1	0
607.882	1	-3
608.052	1	4
608.222	1	-4
608.391	1	15
608.561	1	14
608.731	1	9
608.901	1	9
609.070	1	9
609.240	1	17
609.410	1	14
609.579	1	-6
609.749	1	-6
609.919	1	5
610.089	1	5
610.258	1	11
610.428	1	16
610.598	1	3
610.767	1	6
610.937	1	7
611.107	1	4
611.277	1	-5
611.446	1	-1
611.616	1	10
611.786	1	12
611.955	1	8
612.125	1	10
612.295	1	8
612.465	1	3
612.634	1	9
612.804	1	7
612.974	1	4
613.143	1	4
613.313	1	3
613.483	1	8
613.652	1	13
613.822	1	2
613.992	1	8
614.162	1	5
614.331	1	-2
614.501	1	5
614.671	1	13
614.840	1	13
615.010	1	7
615.180	1	12
615.349	1	8
615.519	1	14
615.689	1	17
615.858	1	10
616.028	1	0
616.198	1	3
616.368	1	15
616.537	1	8
616.707	1	15
616.877	1	8
617.046	1	8
617.216	1	7
617.386	1	5
617.555	1	5
617.725	1	7
617.895	1	13
618.064	1	9
618.234	1	-6
618.404	1	-4
618.573	1	18
618.743	1	3
618.913	1	8
619.082	1	4
619.252	1	14
619.422	1	-1
619.591	1	11
619.761	1	2
619.931	1	9
620.100	1	0
620.270	1	5
620.440	1	5
620.609	1	2
620.779	1	7
620.949	1	4
621.118	1	1
621.288	1	5
621.458	1	9
621.627	1	2
621.797	1	2
621.967	1	10
622.136	1	10
622.306	1	4
622.476	1	12
622.645	1	6
622.815	1	3
622.985	1	11
623.154	1	8
623.324	1	11
623.494	1	8
623.663	1	11
623.833	1	9
624.002	1	1
624.172	1	-2
624.342	1	4
624.511	1	0
624.681	1	13
624.851	1	7
625.020	1	8
625.190	1	19
625.360	1	-7
625.529	1	-1
625.699	1	4
625.869	1	9
626.038	1	3
626.208	1	-4
626.377	1	23
626.547	1	24
626.717	1	1
626.886	1	8
627.056	1	13
627.226	1	-5
627.395	1	2
627.565	1	7
627.735	1	7
627.904	1	9
628.074	1	4
628.243	1	18
628.413	1	5
628.583	1	-3
628.752	1	8
628.922	1	-2
629.091	1	-4
629.261	1	-3
629.431	1	13
629.600	1	16
629.770	1	7
629.940	1	-1
630.109	1	7
630.279	1	9
630.448	1	3
630.618	1	20
630.788	1	3
630.957	1	12
631.127	1	13
631.297	1	1
631.466	1	8
631.636	1	-5
631.805	1	21
631.975	1	20
632.145	1	15
632.314	1	1
632.484	1	0
632.653	1	4
632.823	1	6
632.993	1	6
633.162	1	5
633.332	1	-1
633.501	1	-6
633.671	1	1
633.841	1	11
634.010	1	17
634.180	1	11
634.349	1	9
634.519	1	3
634.689	1	1
634.858	1	-8
635.028	1	11
635.197	1	11
635.367	1	3
635.537	1	7
635.706	1	14
635.876	1	27
636.045	1	0
636.215	1	11
636.384	1	18
636.554	1	1
636.724	1	-3
636.893	1	3
637.063	1	9
637.232	1	12
637.402	1	14
637.572	1	2
637.741	1	3
637.911	1	9
638.080	1	3
638.250	1	4
638.419	1	9
638.589	1	12
638.759	1	1
638.928	1	7
639.098	1	5
639.267	1	6
639.437	1	3
639.606	1	13
639.776	1	0
639.946	1	20
640.115	1	11
640.285	1	13
640.454	1	0
640.624	1	6
640.793	1	18
640.963	1	4
641.132	1	-4
641.302	1	9
641.472	1	4
641.641	1	-2
641.811	1	8
641.980	1	8
642.150	1	3
642.319	1	10
642.489	1	0
642.659	1	3
642.828	1	2
642.998	1	2
643.167	1	15
643.337	1	4
643.506	1	1
643.676	1	8
643.845	1	12
644.015	1	5
644.184	1	17
644.354	1	9
644.524	1	3
644.693	1	12
644.863	1	12
645.032	1	6
645.202	1	2
645.371	1	3
645.541	1	8
645.710	1	12
645.880	1	9
646.049	1	10
646.219	1	14
646.388	1	6
646.558	1	4
646.728	1	3
646.897	1	5
647.067	1	6
647.236	1	17
647.406	1	6
647.575	1	6
647.745	1	2
647.914	1	9
648.084	1	4
648.253	1	12
648.423	1	1
648.592	1	14
648.762	1	9
648.931	1	16
649.101	1	10
649.270	1	5
649.440	1	-3
649.610	1	10
649.779	1	10
649.949	1	-4
650.118	1	6
650.288	1	5
650.457	1	17
650.627	1	-1
650.796	1	9
650.966	1	14
651.135	1	15
651.305	1	-4
651.474	1	3
651.644	1	3
651.813	1	0
651.983	1	6
652.152	1	7
652.322	1	11
652.491	1	19
652.661	1	12
652.830	1	11
653.000	1	8
653.169	1	10
653.339	1	0
653.508	1	12
653.678	1	8
653.847	1	22
654.017	1	8
654.186	1	8
654.356	1	-8
654.525	1	11
654.695	1	13
654.864	1	-1
655.034	1	6
655.203	1	9
655.373	1	9
655.542	1	17
655.712	1	8
655.881	1	-5
656.051	1	-10
656.220	1	13
656.390	1	8
656.559	1	11
656.729	1	0
656.898	1	12
657.068	1	17
657.237	1	0
657.406	1	9
657.576	1	3
657.745	1	-2
657.915	1	-3
658.084	1	12
658.254	1	3
658.423	1	6
658.593	1	4
658.762	1	3
658.932	1	10
659.101	1	-2
659.271	1	2
659.440	1	11
659.610	1	12
659.779	1	3
659.949	1	7
660.118	1	2
660.288	1	17
660.457	1	3
660.626	1	8
660.796	1	4
660.965	1	14
661.135	1	6
661.304	1	2
661.474	1	18
661.643	1	-2
661.813	1	1
661.982	1	3
662.152	1	-2
662.321	1	5
662.491	1	8
662.660	1	5
662.829	1	3
662.999	1	12
663.168	1	2
663.338	1	8
663.507	1	-14
663.677	1	4
663.846	1	6
664.016	1	-3
664.185	1	3
664.354	1	0
664.524	1	0
664.693	1	12
664.863	1	-3
665.032	1	6
665.202	1	16
665.371	1	1
665.541	1	6
665.710	1	11
665.879	1	7
666.049	1	11
666.218	1	8
666.388	1	6
666.557	1	4
666.727	1	6
666.896	1	7
667.065	1	3
667.235	1	10
667.404	1	6
667.574	1	14
667.743	1	7
667.913	1	-8
668.082	1	3
668.251	1	8
668.421	1	3
668.590	1	13
668.760	1	17
668.929	1	12
669.099	1	9
669.268	1	2
669.437	1	-3
669.607	1	8
669.776	1	8
669.946	1	0
670.115	1	4
670.285	1	-2
670.454	1	3
670.623	1	4
670.793	1	10
670.962	1	16
671.132	1	-1
671.301	1	-3
671.470	1	2
671.640	1	-6
671.809	1	18
671.979	1	12
672.148	1	15
672.317	1	1
672.487	1	20
672.656	1	6
672.826	1	17
672.995	1	-10
673.164	1	-2
673.334	1	3
673.503	1	5
673.673	1	8
673.842	1	4
674.011	1	9
674.181	1	-1
674.350	1	7
674.520	1	2
674.689	1	10
674.858	1	5
675.028	1	15
675.197	1	9
675.367	1	10
675.536	1	11
675.705	1	6
675.875	1	16
676.044	1	3
676.214	1	1
676.383	1	9
676.552	1	-1
676.722	1	10
676.891	1	4
677.060	1	-1
677.230	1	-1
677.399	1	5
677.569	1	9
677.738	1	-10
677.907	1	4
678.077	1	-7
678.246	1	6
678.416	1	7
678.585	1	0
678.754	1	6
678.924	1	5
679.093	1	11
679.262	1	6
679.432	1	6
679.601	1	5
679.771	1	-1
679.940	1	5
680.109	1	11
680.279	1	-1
680.448	1	-3
680.617	1	19
680.787	1	10
680.956	1	13
681.125	1	8
681.295	1	3
681.464	1	10
681.634	1	15
681.803	1	16
681.972	1	6
682.142	1	4
682.311	1	7
682.480	1	8
682.650	1	10
682.819	1	0
682.988	1	20
683.158	1	7
683.327	1	4
683.496	1	-4
683.666	1	8
683.835	1	6
684.004	1	7
684.174	1	3
684.343	1	4
684.512	1	20
684.682	1	15
684.851	1	13
685.021	1	1
685.190	1	20
685.359	1	4
685.529	1	9
685.698	1	15
685.867	1	6
686.037	1	12
686.206	1	11
686.375	1	12
686.545	1	7
686.714	1	12
686.883	1	5
687.053	1	17
687.222	1	16
687.391	1	5
687.561	1	11
687.730	1	0
687.899	1	5
688.069	1	12
688.238	1	15
688.407	1	15
688.577	1	11
688.746	1	4
