340.368	1	-3
340.539	1	-9
340.710	1	8
340.881	1	-4
341.052	1	-8
341.223	1	11
341.394	1	-4
341.565	1	-18
341.737	1	-3
341.908	1	1
342.079	1	2
342.250	1	0
342.421	1	5
342.592	1	13
342.763	1	-9
342.934	1	-4
343.105	1	-4
343.276	1	-6
343.447	1	-2
343.618	1	-9
343.789	1	-2
343.960	1	-4
344.131	1	5
344.302	1	-6
344.473	1	8
344.644	1	9
344.815	1	9
344.986	1	11
345.157	1	-2
345.328	1	9
345.499	1	5
345.670	1	-2
345.841	1	2
346.012	1	-3
346.183	1	11
346.354	1	-4
346.526	1	3
346.697	1	3
346.868	1	-1
347.039	1	5
347.210	1	2
347.381	1	8
347.552	1	0
347.723	1	4
347.894	1	-7
348.065	1	4
348.236	1	-10
348.407	1	1
348.578	1	-2
348.749	1	-1
348.920	1	-1
349.091	1	11
349.262	1	12
349.433	1	12
349.604	1	-1
349.775	1	-10
349.946	1	-2
350.117	1	4
350.288	1	0
350.459	1	-1
350.630	1	-9
350.801	1	-1
350.972	1	10
351.143	1	10
351.314	1	0
351.485	1	-10
351.656	1	-3
351.827	1	-7
351.998	1	3
352.169	1	1
352.340	1	0
352.511	1	-4
352.682	1	-3
352.853	1	6
353.024	1	12
353.195	1	7
353.366	1	11
353.537	1	-2
353.708	1	-5
353.879	1	-11
354.050	1	0
354.221	1	7
354.392	1	3
354.563	1	-6
354.734	1	6
354.905	1	7
355.076	1	-10
355.247	1	6
355.418	1	5
355.589	1	-12
355.760	1	-8
355.931	1	8
356.102	1	7
356.273	1	0
356.444	1	3
356.615	1	-1
356.785	1	2
356.956	1	-3
357.127	1	10
357.298	1	-8
357.469	1	-4
357.640	1	2
357.811	1	-5
357.982	1	10
358.153	1	-3
358.324	1	8
358.495	1	4
358.666	1	6
358.837	1	-2
359.008	1	1
359.179	1	3
359.350	1	-3
359.521	1	-1
359.692	1	-2
359.863	1	-9
360.034	1	0
360.205	1	5
360.376	1	3
360.547	1	4
360.718	1	-11
360.889	1	6
361.060	1	12
361.231	1	6
361.401	1	-1
361.572	1	8
361.743	1	0
361.914	1	0
362.085	1	6
362.256	1	2
362.427	1	-6
362.598	1	3
362.769	1	13
362.940	1	0
363.111	1	10
363.282	1	6
363.453	1	4
363.624	1	9
363.795	1	13
363.966	1	-2
364.137	1	0
364.308	1	1
364.478	1	7
364.649	1	0
364.820	1	-1
364.991	1	8
365.162	1	2
365.333	1	-6
365.504	1	2
365.675	1	9
365.846	1	3
366.017	1	3
366.188	1	2
366.359	1	18
366.530	1	10
366.701	1	10
366.871	1	7
367.042	1	3
367.213	1	5
367.384	1	4
367.555	1	-7
367.726	1	14
367.897	1	9
368.068	1	1
368.239	1	5
368.410	1	11
368.581	1	12
368.752	1	4
368.923	1	-8
369.093	1	4
369.264	1	-7
369.435	1	3
369.606	1	8
369.777	1	7
369.948	1	13
370.119	1	9
370.290	1	11
370.461	1	1
370.632	1	14
370.803	1	1
370.973	1	5
371.144	1	2
371.315	1	3
371.486	1	7
371.657	1	15
371.828	1	10
371.999	1	18
372.170	1	-1
372.341	1	7
372.512	1	8
372.682	1	0
372.853	1	7
373.024	1	10
373.195	1	10
373.366	1	15
373.537	1	20
373.708	1	3
373.879	1	13
374.050	1	19
374.220	1	-2
374.391	1	2
374.562	1	10
374.733	1	9
374.904	1	7
375.075	1	10
375.246	1	7
375.417	1	11
375.588	1	16
375.758	1	15
375.929	1	17
376.100	1	1
376.271	1	6
376.442	1	3
376.613	1	10
376.784	1	-1
376.955	1	13
377.125	1	13
377.296	1	6
377.467	1	0
377.638	1	12
377.809	1	8
377.980	1	-6
378.151	1	1
378.321	1	14
378.492	1	4
378.663	1	7
378.834	1	18
379.005	1	6
379.176	1	15
379.347	1	2
379.518	1	3
379.688	1	10
379.859	1	9
380.030	1	13
380.201	1	17
380.372	1	5
380.543	1	11
380.714	1	11
380.884	1	19
381.055	1	6
381.226	1	7
381.397	1	4
381.568	1	5
381.739	1	7
381.910	1	-5
382.080	1	17
382.251	1	6
382.422	1	16
382.593	1	8
382.764	1	0
382.935	1	-1
383.105	1	16
383.276	1	5
383.447	1	21
383.618	1	7
383.789	1	10
383.960	1	6
384.130	1	5
384.301	1	2
384.472	1	3
384.643	1	-4
384.814	1	12
384.985	1	19
385.156	1	2
385.326	1	0
385.497	1	0
385.668	1	3
385.839	1	2
386.010	1	13
386.180	1	4
386.351	1	12
386.522	1	-13
386.693	1	0
386.864	1	-3
387.035	1	1
387.205	1	9
387.376	1	-1
387.547	1	2
387.718	1	7
387.889	1	10
388.060	1	6
388.230	1	1
388.401	1	-7
388.572	1	8
388.743	1	-4
388.914	1	7
389.084	1	8
389.255	1	0
389.426	1	-2
389.597	1	11
389.768	1	13
389.939	1	7
390.109	1	-4
390.280	1	-9
390.451	1	0
390.622	1	3
390.793	1	5
390.963	1	-1
391.134	1	2
391.305	1	4
391.476	1	5
391.647	1	5
391.817	1	3
391.988	1	-1
392.159	1	4
392.330	1	0
392.501	1	-6
392.671	1	4
392.842	1	-10
393.013	1	3
393.184	1	21
393.355	1	2
393.525	1	10
393.696	1	1
393.867	1	3
394.038	1	-5
394.208	1	-5
394.379	1	-11
394.550	1	1
394.721	1	5
394.892	1	17
395.062	1	1
395.233	1	-6
395.404	1	11
395.575	1	-2
395.746	1	0
395.916	1	4
396.087	1	8
396.258	1	12
396.429	1	-2
396.599	1	-6
396.770	1	-4
396.941	1	3
397.112	1	0
397.283	1	4
397.453	1	1
397.624	1	10
397.795	1	-6
397.966	1	12
398.136	1	12
398.307	1	9
398.478	1	0
398.649	1	-4
398.819	1	-1
398.990	1	8
399.161	1	5
399.332	1	6
399.503	1	-2
399.673	1	-2
399.844	1	-13
400.015	1	6
400.186	1	4
400.356	1	5
400.527	1	-5
400.698	1	-3
400.869	1	1
401.039	1	-1
401.210	1	10
401.381	1	9
401.552	1	-2
401.722	1	-1
401.893	1	-3
402.064	1	-3
402.235	1	9
402.405	1	11
402.576	1	4
402.747	1	12
402.918	1	3
403.088	1	1
403.259	1	5
403.430	1	10
403.601	1	-6
403.771	1	12
403.942	1	-3
404.113	1	-6
404.284	1	0
404.454	1	3
404.625	1	16
404.796	1	7
404.967	1	4
405.137	1	-4
405.308	1	0
405.479	1	-4
405.649	1	5
405.820	1	5
405.991	1	1
406.162	1	0
406.332	1	12
406.503	1	0
406.674	1	4
406.845	1	3
407.015	1	1
407.186	1	2
407.357	1	4
407.527	1	12
407.698	1	0
407.869	1	-2
408.040	1	-6
408.210	1	0
408.381	1	5
408.552	1	1
408.722	1	-5
408.893	1	-5
409.064	1	7
409.235	1	0
409.405	1	-2
409.576	1	2
409.747	1	-4
409.917	1	11
410.088	1	2
410.259	1	7
410.430	1	-6
410.600	1	5
410.771	1	-1
410.942	1	1
411.112	1	11
411.283	1	-6
411.454	1	-1
411.625	1	-3
411.795	1	-7
411.966	1	5
412.137	1	10
412.307	1	-10
412.478	1	2
412.649	1	5
412.819	1	7
412.990	1	-9
413.161	1	5
413.332	1	2
413.502	1	-1
413.673	1	6
413.844	1	-4
414.014	1	14
414.185	1	-10
414.356	1	9
414.526	1	8
414.697	1	1
414.868	1	3
415.038	1	1
415.209	1	1
415.380	1	-1
415.550	1	7
415.721	1	1
415.892	1	5
416.063	1	2
416.233	1	9
416.404	1	3
416.575	1	3
416.745	1	-10
416.916	1	-1
417.087	1	10
417.257	1	10
417.428	1	-2
417.599	1	8
417.769	1	-2
417.940	1	-3
418.111	1	3
418.281	1	5
418.452	1	-4
418.623	1	2
418.793	1	6
418.964	1	11
419.135	1	5
419.305	1	2
419.476	1	1
419.647	1	5
419.817	1	-14
419.988	1	0
420.159	1	8
420.329	1	8
420.500	1	0
420.671	1	5
420.841	1	-2
421.012	1	7
421.183	1	1
421.353	1	-3
421.524	1	-2
421.695	1	0
421.865	1	-5
422.036	1	5
422.206	1	6
422.377	1	5
422.548	1	-4
422.718	1	8
422.889	1	-6
423.060	1	7
423.230	1	1
423.401	1	-3
423.572	1	-7
423.742	1	0
423.913	1	5
424.084	1	6
424.254	1	2
424.425	1	-2
424.595	1	7
424.766	1	0
424.937	1	7
425.107	1	1
425.278	1	-3
425.449	1	5
425.619	1	1
425.790	1	1
425.961	1	9
426.131	1	-5
426.302	1	-2
426.472	1	-1
426.643	1	1
426.814	1	11
426.984	1	-2
427.155	1	6
427.326	1	10
427.496	1	3
427.667	1	3
427.837	1	13
428.008	1	1
428.179	1	-4
428.349	1	6
428.520	1	1
428.691	1	7
428.861	1	11
429.032	1	-2
429.202	1	-1
429.373	1	-4
429.544	1	-1
429.714	1	-3
429.885	1	8
430.055	1	9
430.226	1	4
430.397	1	-12
430.567	1	4
430.738	1	2
430.909	1	3
431.079	1	-4
431.250	1	-3
431.420	1	10
431.591	1	1
431.762	1	0
431.932	1	13
432.103	1	11
432.273	1	0
432.444	1	-8
432.615	1	-5
432.785	1	7
432.956	1	15
433.126	1	3
433.297	1	0
433.468	1	-6
433.638	1	-6
433.809	1	-2
433.979	1	5
434.150	1	15
434.320	1	5
434.491	1	7
434.662	1	-6
434.832	1	6
435.003	1	6
435.173	1	-5
435.344	1	1
435.515	1	9
435.685	1	3
435.856	1	5
436.026	1	-5
436.197	1	10
436.368	1	0
436.538	1	4
436.709	1	1
436.879	1	-4
437.050	1	6
437.220	1	21
437.391	1	8
437.562	1	-5
437.732	1	-8
437.903	1	5
438.073	1	-4
438.244	1	-6
438.414	1	10
438.585	1	-1
438.756	1	1
438.926	1	4
439.097	1	-4
439.267	1	-9
439.438	1	4
439.608	1	-1
439.779	1	7
439.949	1	-4
440.120	1	3
440.291	1	11
440.461	1	-1
440.632	1	4
440.802	1	15
440.973	1	9
441.143	1	-5
441.314	1	3
441.485	1	-4
441.655	1	11
441.826	1	4
441.996	1	2
442.167	1	0
442.337	1	11
442.508	1	17
442.678	1	10
442.849	1	2
443.019	1	1
443.190	1	-2
443.361	1	-3
443.531	1	-2
443.702	1	4
443.872	1	7
444.043	1	4
444.213	1	0
444.384	1	1
444.554	1	-3
444.725	1	0
444.895	1	0
445.066	1	-6
445.237	1	2
445.407	1	1
445.578	1	4
445.748	1	-1
445.919	1	7
446.089	1	-4
446.260	1	-2
446.430	1	6
446.601	1	2
446.771	1	8
446.942	1	1
447.112	1	1
447.283	1	11
447.453	1	0
447.624	1	-8
447.794	1	5
447.965	1	-3
448.135	1	-1
448.306	1	0
448.477	1	9
448.647	1	7
448.818	1	8
448.988	1	4
449.159	1	5
449.329	1	7
449.500	1	-1
449.670	1	8
449.841	1	1
450.011	1	3
450.182	1	0
450.352	1	18
450.523	1	7
450.693	1	0
450.864	1	8
451.034	1	-5
451.205	1	3
451.375	1	-8
451.546	1	0
451.716	1	1
451.887	1	0
452.057	1	-4
452.228	1	15
452.398	1	4
452.569	1	4
452.739	1	10
452.910	1	-1
453.080	1	-3
453.251	1	1
453.421	1	-2
453.592	1	5
453.762	1	1
453.933	1	2
454.103	1	-1
454.274	1	-13
454.444	1	3
454.615	1	-7
454.785	1	-4
454.956	1	-9
455.126	1	4
455.297	1	3
455.467	1	8
455.638	1	-1
455.808	1	10
455.979	1	10
456.149	1	-3
456.320	1	-1
456.490	1	3
456.661	1	6
456.831	1	3
457.001	1	6
457.172	1	2
457.342	1	9
457.513	1	-5
457.683	1	11
457.854	1	4
458.024	1	0
458.195	1	-9
458.365	1	0
458.536	1	1
458.706	1	-5
458.877	1	-2
459.047	1	-6
459.218	1	-6
459.388	1	4
459.559	1	0
459.729	1	6
459.899	1	-4
460.070	1	3
460.240	1	5
460.411	1	5
460.581	1	1
460.752	1	5
460.922	1	7
461.093	1	-3
461.263	1	0
461.434	1	-12
461.604	1	-8
461.775	1	-7
461.945	1	-6
462.115	1	-7
462.286	1	12
462.456	1	9
462.627	1	0
462.797	1	-2
462.968	1	3
463.138	1	7
463.309	1	-1
463.479	1	0
463.649	1	0
463.820	1	-14
463.990	1	3
464.161	1	-5
464.331	1	-3
464.502	1	4
464.672	1	-1
464.843	1	11
465.013	1	2
465.183	1	-10
465.354	1	-3
465.524	1	4
465.695	1	7
465.865	1	6
466.036	1	10
466.206	1	1
466.376	1	0
466.547	1	1
466.717	1	-2
466.888	1	-4
467.058	1	-10
467.229	1	12
467.399	1	1
467.569	1	14
467.740	1	-15
467.910	1	-2
468.081	1	-6
468.251	1	1
468.422	1	-11
468.592	1	3
468.762	1	6
468.933	1	6
469.103	1	-5
469.274	1	7
469.444	1	4
469.614	1	4
469.785	1	-7
469.955	1	3
470.126	1	4
470.296	1	-1
470.467	1	1
470.637	1	-6
470.807	1	6
470.978	1	-3
471.148	1	21
471.319	1	-8
471.489	1	11
471.659	1	-7
471.830	1	6
472.000	1	2
472.171	1	5
472.341	1	-14
472.511	1	4
472.682	1	7
472.852	1	2
473.023	1	1
473.193	1	-1
473.363	1	-3
473.534	1	-7
473.704	1	-7
473.875	1	4
474.045	1	2
474.215	1	1
474.386	1	8
474.556	1	-5
474.727	1	-1
474.897	1	-3
475.067	1	10
475.238	1	3
475.408	1	13
475.578	1	4
475.749	1	0
475.919	1	-1
476.090	1	-3
476.260	1	2
476.430	1	0
476.601	1	-2
476.771	1	7
476.942	1	2
477.112	1	4
477.282	1	0
477.453	1	7
477.623	1	-3
477.793	1	7
477.964	1	-8
478.134	1	-2
478.305	1	-4
478.475	1	-4
478.645	1	3
478.816	1	13
478.986	1	-1
479.156	1	0
479.327	1	-8
479.497	1	-5
479.667	1	-6
479.838	1	-4
480.008	1	-3
480.179	1	8
480.349	1	6
480.519	1	10
480.690	1	-7
480.860	1	8
481.030	1	-5
481.201	1	-1
481.371	1	3
481.541	1	-6
481.712	1	4
481.882	1	0
482.053	1	5
482.223	1	-5
482.393	1	-2
482.564	1	-2
482.734	1	6
482.904	1	-2
483.075	1	-5
483.245	1	5
483.415	1	-1
483.586	1	3
483.756	1	5
483.926	1	-1
484.097	1	1
484.267	1	-9
484.437	1	-5
484.608	1	-3
484.778	1	4
484.948	1	-8
485.119	1	4
485.289	1	-5
485.459	1	5
485.630	1	-2
485.800	1	6
485.970	1	-10
486.141	1	-5
486.311	1	3
486.481	1	-9
486.652	1	12
486.822	1	1
486.992	1	-1
487.163	1	-9
487.333	1	6
487.503	1	-1
487.674	1	6
487.844	1	-1
488.014	1	-2
488.185	1	17
488.355	1	0
488.525	1	5
488.696	1	5
488.866	1	2
489.036	1	-6
489.207	1	10
489.377	1	-10
489.547	1	10
489.718	1	-3
489.888	1	11
490.058	1	-4
490.228	1	5
490.399	1	-9
490.569	1	0
490.739	1	5
490.910	1	-5
491.080	1	-2
491.250	1	-7
491.421	1	-4
491.591	1	7
491.761	1	2
491.932	1	3
492.102	1	1
492.272	1	-4
492.442	1	1
492.613	1	5
492.783	1	12
492.953	1	8
493.124	1	-6
493.294	1	4
493.464	1	2
493.635	1	3
493.805	1	3
493.975	1	-1
494.145	1	1
494.316	1	2
494.486	1	-9
494.656	1	14
494.827	1	-3
494.997	1	-9
495.167	1	-2
495.337	1	7
495.508	1	6
495.678	1	-2
495.848	1	0
496.019	1	-8
496.189	1	4
496.359	1	-9
496.529	1	0
496.700	1	-4
496.870	1	5
497.040	1	-4
497.211	1	10
497.381	1	-12
497.551	1	-6
497.721	1	16
497.892	1	3
498.062	1	7
498.232	1	-6
498.403	1	7
498.573	1	9
498.743	1	16
498.913	1	0
499.084	1	-17
499.254	1	7
499.424	1	2
499.594	1	2
499.765	1	3
499.935	1	7
500.105	1	-3
500.275	1	-1
500.446	1	-1
500.616	1	4
500.786	1	6
500.956	1	13
501.127	1	-13
501.297	1	8
501.467	1	-6
501.638	1	-7
501.808	1	-11
501.978	1	-8
502.148	1	6
502.319	1	-5
502.489	1	2
502.659	1	-6
502.829	1	6
503.000	1	-14
503.170	1	2
503.340	1	4
503.510	1	-6
503.681	1	2
503.851	1	6
504.021	1	2
504.191	1	0
504.362	1	3
504.532	1	2
504.702	1	5
504.872	1	-12
505.042	1	-7
505.213	1	1
505.383	1	-1
505.553	1	-3
505.723	1	-4
505.894	1	3
506.064	1	7
506.234	1	12
506.404	1	-3
506.575	1	-6
506.745	1	-9
506.915	1	-3
507.085	1	-4
507.256	1	1
507.426	1	2
507.596	1	1
507.766	1	2
507.936	1	0
508.107	1	-1
508.277	1	-3
508.447	1	-6
508.617	1	1
508.788	1	-6
508.958	1	8
509.128	1	-1
509.298	1	0
509.468	1	4
509.639	1	6
509.809	1	-2
509.979	1	-4
510.149	1	10
510.319	1	2
510.490	1	7
510.660	1	-2
510.830	1	5
511.000	1	9
511.171	1	-8
511.341	1	-2
511.511	1	11
511.681	1	5
511.851	1	-1
512.022	1	-1
512.192	1	-3
512.362	1	2
512.532	1	-5
512.702	1	2
512.873	1	-4
513.043	1	11
513.213	1	4
513.383	1	0
513.553	1	3
513.724	1	4
513.894	1	-7
514.064	1	4
514.234	1	-2
514.404	1	4
514.575	1	7
514.745	1	-5
514.915	1	-14
515.085	1	-1
515.255	1	9
515.425	1	-4
515.596	1	-3
515.766	1	-5
515.936	1	6
516.106	1	-2
516.276	1	-2
516.447	1	0
516.617	1	-8
516.787	1	-6
516.957	1	10
517.127	1	-1
517.297	1	-1
517.468	1	1
517.638	1	-2
517.808	1	3
517.978	1	4
518.148	1	9
518.319	1	5
518.489	1	-11
518.659	1	4
518.829	1	2
518.999	1	-3
519.169	1	-4
519.340	1	-4
519.510	1	-7
519.680	1	-4
519.850	1	5
520.020	1	5
520.190	1	-2
520.361	1	-3
520.531	1	8
520.701	1	-3
520.871	1	-10
521.041	1	-1
521.211	1	-4
521.382	1	-8
521.552	1	3
521.722	1	5
521.892	1	-5
522.062	1	2
522.232	1	3
522.402	1	-4
522.573	1	14
522.743	1	7
522.913	1	1
523.083	1	-1
523.253	1	-1
523.423	1	10
523.593	1	-8
523.764	1	6
523.934	1	-4
524.104	1	-1
524.274	1	6
524.444	1	6
524.614	1	2
524.784	1	20
524.955	1	-1
525.125	1	12
525.295	1	3
525.465	1	-8
525.635	1	-1
525.805	1	-1
525.975	1	-3
526.146	1	2
526.316	1	-11
526.486	1	6
526.656	1	5
526.826	1	-8
526.996	1	7
527.166	1	14
527.337	1	0
527.507	1	-6
527.677	1	8
527.847	1	8
528.017	1	-6
528.187	1	-3
528.357	1	-1
528.527	1	-12
528.698	1	1
528.868	1	4
529.038	1	-7
529.208	1	10
529.378	1	-4
529.548	1	-2
529.718	1	4
529.888	1	8
530.058	1	2
530.229	1	0
530.399	1	7
530.569	1	-9
530.739	1	-2
530.909	1	-7
531.079	1	-9
531.249	1	7
531.419	1	5
531.589	1	-6
531.760	1	-7
531.930	1	-2
532.100	1	5
532.270	1	1
532.440	1	-7
532.610	1	0
532.780	1	-8
532.950	1	-8
533.120	1	10
533.290	1	7
533.461	1	-2
533.631	1	13
533.801	1	-8
533.971	1	-7
534.141	1	-12
534.311	1	9
534.481	1	-4
534.651	1	5
534.821	1	5
534.991	1	-1
535.162	1	1
535.332	1	4
535.502	1	14
535.672	1	-2
535.842	1	-6
536.012	1	6
536.182	1	8
536.352	1	6
536.522	1	4
536.692	1	5
536.862	1	-5
537.032	1	-3
537.203	1	9
537.373	1	16
537.543	1	4
537.713	1	-5
537.883	1	0
538.053	1	-5
538.223	1	-1
538.393	1	-7
538.563	1	3
538.733	1	4
538.903	1	-8
539.073	1	5
539.243	1	-10
539.413	1	-1
539.584	1	8
539.754	1	6
539.924	1	6
540.094	1	-6
540.264	1	-6
540.434	1	-2
540.604	1	3
540.774	1	8
540.944	1	6
541.114	1	4
541.284	1	-4
541.454	1	-3
541.624	1	-3
541.794	1	2
541.964	1	-4
542.134	1	-1
542.305	1	2
542.475	1	5
542.645	1	6
542.815	1	5
542.985	1	0
543.155	1	9
543.325	1	-4
543.495	1	11
543.665	1	10
543.835	1	-3
544.005	1	3
544.175	1	-2
544.345	1	4
544.515	1	-2
544.685	1	-11
544.855	1	7
545.025	1	10
545.195	1	4
545.365	1	9
545.535	1	2
545.705	1	3
545.875	1	-8
546.045	1	-4
546.216	1	0
546.386	1	1
546.556	1	14
546.726	1	3
546.896	1	1
547.066	1	-2
547.236	1	-6
547.406	1	3
547.576	1	2
547.746	1	-2
547.916	1	6
548.086	1	2
548.256	1	-7
548.426	1	1
548.596	1	-5
548.766	1	9
548.936	1	-12
549.106	1	2
549.276	1	6
549.446	1	-1
549.616	1	0
549.786	1	17
549.956	1	12
550.126	1	4
550.296	1	8
550.466	1	-4
550.636	1	6
550.806	1	-5
550.976	1	-5
551.146	1	10
551.316	1	11
551.486	1	0
551.656	1	1
551.826	1	-5
551.996	1	-7
552.166	1	-9
552.336	1	2
552.506	1	-6
552.676	1	8
552.846	1	4
553.016	1	3
553.186	1	-5
553.356	1	2
553.526	1	12
553.696	1	2
553.866	1	1
554.036	1	-1
554.206	1	5
554.376	1	-3
554.546	1	10
554.716	1	-10
554.886	1	8
555.056	1	-3
555.226	1	5
555.396	1	4
555.566	1	10
555.736	1	-1
555.906	1	-5
556.076	1	-2
556.246	1	10
556.416	1	4
556.586	1	-1
556.756	1	8
556.926	1	8
557.096	1	8
557.266	1	-2
557.436	1	-2
557.606	1	2
557.776	1	0
557.946	1	3
558.116	1	0
558.286	1	-1
558.456	1	-7
558.626	1	18
558.796	1	-1
558.966	1	5
559.136	1	7
559.306	1	11
559.476	1	-4
559.646	1	-10
559.816	1	-4
559.986	1	8
560.155	1	1
560.325	1	11
560.495	1	2
560.665	1	-3
560.835	1	2
561.005	1	-6
561.175	1	1
561.345	1	-14
561.515	1	-7
561.685	1	-4
561.855	1	-5
562.025	1	13
562.195	1	12
562.365	1	2
562.535	1	-13
562.705	1	1
562.875	1	2
563.045	1	-2
563.215	1	3
563.385	1	8
563.555	1	6
563.725	1	0
563.895	1	0
564.064	1	10
564.234	1	8
564.404	1	-5
564.574	1	6
564.744	1	-6
564.914	1	3
565.084	1	4
565.254	1	1
565.424	1	-11
565.594	1	7
565.764	1	4
565.934	1	6
566.104	1	-6
566.274	1	-3
566.444	1	3
566.614	1	-11
566.783	1	0
566.953	1	7
567.123	1	-4
567.293	1	11
567.463	1	13
567.633	1	1
567.803	1	-5
567.973	1	3
568.143	1	-3
568.313	1	-5
568.483	1	1
568.653	1	4
568.823	1	-3
568.993	1	9
569.162	1	15
569.332	1	3
569.502	1	-7
569.672	1	-10
569.842	1	4
570.012	1	-13
570.182	1	2
570.352	1	-6
570.522	1	1
570.692	1	-1
570.862	1	11
571.031	1	7
571.201	1	2
571.371	1	-11
571.541	1	4
571.711	1	-11
571.881	1	0
572.051	1	4
572.221	1	3
572.391	1	-6
572.561	1	16
572.731	1	2
572.900	1	3
573.070	1	-5
573.240	1	1
573.410	1	-6
573.580	1	3
573.750	1	0
573.920	1	-8
574.090	1	1
574.260	1	1
574.430	1	5
574.599	1	-7
574.769	1	9
574.939	1	10
575.109	1	3
575.279	1	0
575.449	1	3
575.619	1	0
575.789	1	1
575.959	1	-3
576.128	1	0
576.298	1	5
576.468	1	2
576.638	1	-5
576.808	1	2
576.978	1	2
577.148	1	-8
577.318	1	-3
577.487	1	-7
577.657	1	-2
577.827	1	0
577.997	1	1
578.167	1	10
578.337	1	4
578.507	1	9
578.677	1	2
578.846	1	13
579.016	1	0
579.186	1	4
579.356	1	2
579.526	1	8
579.696	1	1
579.866	1	1
580.036	1	-2
580.205	1	0
580.375	1	9
580.545	1	5
580.715	1	3
580.885	1	4
581.055	1	-4
581.225	1	-4
581.394	1	-12
581.564	1	-3
581.734	1	0
581.904	1	4
582.074	1	11
582.244	1	-2
582.414	1	1
582.583	1	6
582.753	1	-3
582.923	1	6
583.093	1	1
583.263	1	-7
583.433	1	-3
583.603	1	2
583.772	1	2
583.942	1	3
584.112	1	-5
584.282	1	8
584.452	1	0
584.622	1	9
584.791	1	1
584.961	1	5
585.131	1	0
585.301	1	-6
585.471	1	-10
585.641	1	-3
585.811	1	5
585.980	1	5
586.150	1	9
586.320	1	11
586.490	1	-6
586.660	1	-6
586.830	1	5
586.999	1	-5
587.169	1	-1
587.339	1	6
587.509	1	8
587.679	1	-4
587.849	1	-1
588.018	1	1
588.188	1	10
588.358	1	-2
588.528	1	0
588.698	1	-4
588.867	1	-1
589.037	1	1
589.207	1	-10
589.377	1	2
589.547	1	-5
589.717	1	1
589.886	1	-9
590.056	1	0
590.226	1	4
590.396	1	-5
590.566	1	-2
590.735	1	2
590.905	1	-7
591.075	1	7
591.245	1	8
591.415	1	2
591.585	1	-2
591.754	1	-5
591.924	1	11
592.094	1	-2
592.264	1	-1
592.434	1	4
592.603	1	1
592.773	1	9
592.943	1	-3
593.113	1	-11
593.283	1	1
593.452	1	2
593.622	1	5
593.792	1	-4
593.962	1	6
594.132	1	-1
594.301	1	1
594.471	1	-1
594.641	1	-6
594.811	1	-4
594.981	1	-10
595.150	1	-2
595.320	1	5
595.490	1	-10
595.660	1	5
595.829	1	-1
595.999	1	-12
596.169	1	9
596.339	1	-5
596.509	1	-6
596.678	1	4
596.848	1	4
597.018	1	-3
597.188	1	3
597.358	1	-4
597.527	1	11
597.697	1	4
597.867	1	6
598.037	1	-5
598.206	1	5
598.376	1	5
598.546	1	7
598.716	1	9
598.885	1	-3
599.055	1	5
599.225	1	13
599.395	1	0
599.565	1	-1
599.734	1	0
599.904	1	11
600.074	1	14
600.244	1	6
600.413	1	0
600.583	1	-5
600.753	1	-5
600.923	1	-2
601.092	1	0
601.262	1	-4
601.432	1	3
601.602	1	4
601.771	1	-3
601.941	1	5
602.111	1	5
602.281	1	10
602.451	1	1
602.620	1	-5
602.790	1	-15
602.960	1	-2
603.130	1	-2
603.299	1	-4
603.469	1	1
603.639	1	6
603.809	1	1
603.978	1	-4
604.148	1	2
604.318	1	2
604.487	1	-9
604.657	1	6
604.827	1	10
604.997	1	-5
605.166	1	-6
605.336	1	0
605.506	1	-8
605.676	1	-4
605.845	1	0
606.015	1	3
606.185	1	1
606.355	1	-4
606.524	1	5
606.694	1	-2
606.864	1	2
607.034	1	6
607.203	1	2
607.373	1	-3
607.543	1	-3
607.712	1	7
607.882	1	-12
608.052	1	-5
608.222	1	-4
608.391	1	3
608.561	1	2
608.731	1	10
608.901	1	4
609.070	1	5
609.240	1	-4
609.410	1	-3
609.579	1	-13
609.749	1	-11
609.919	1	2
610.089	1	12
610.258	1	15
610.428	1	-3
610.598	1	9
610.767	1	-7
610.937	1	7
611.107	1	-3
611.277	1	1
611.446	1	-3
611.616	1	-3
611.786	1	4
611.955	1	20
612.125	1	-1
612.295	1	-6
612.465	1	-10
612.634	1	3
612.804	1	10
612.974	1	-7
613.143	1	-3
613.313	1	-6
613.483	1	-7
613.652	1	7
613.822	1	-6
613.992	1	2
614.162	1	4
614.331	1	0
614.501	1	-2
614.671	1	9
614.840	1	4
615.010	1	-10
615.180	1	4
615.349	1	-3
615.519	1	12
615.689	1	11
615.858	1	9
616.028	1	-2
616.198	1	3
616.368	1	-2
616.537	1	-5
616.707	1	11
616.877	1	1
617.046	1	4
617.216	1	10
617.386	1	7
617.555	1	-11
617.725	1	-4
617.895	1	4
618.064	1	-2
618.234	1	-3
618.404	1	-1
618.573	1	13
618.743	1	0
618.913	1	9
619.082	1	1
619.252	1	7
619.422	1	1
619.591	1	-5
619.761	1	4
619.931	1	8
620.100	1	-4
620.270	1	-1
620.440	1	4
620.609	1	-1
620.779	1	1
620.949	1	-5
621.118	1	-2
621.288	1	-1
621.458	1	9
621.627	1	-3
621.797	1	3
621.967	1	-2
622.136	1	-13
622.306	1	7
622.476	1	8
622.645	1	8
622.815	1	0
622.985	1	2
623.154	1	0
623.324	1	5
623.494	1	-1
623.663	1	7
623.833	1	-2
624.002	1	-11
624.172	1	-5
624.342	1	-8
624.511	1	3
624.681	1	2
624.851	1	3
625.020	1	2
625.190	1	10
625.360	1	-12
625.529	1	-3
625.699	1	-11
625.869	1	2
626.038	1	-6
626.208	1	-3
626.377	1	3
626.547	1	-5
626.717	1	2
626.886	1	-1
627.056	1	1
627.226	1	-6
627.395	1	-4
627.565	1	0
627.735	1	5
627.904	1	-13
628.074	1	-7
628.243	1	6
628.413	1	-2
628.583	1	-9
628.752	1	7
628.922	1	-6
629.091	1	1
629.261	1	-10
629.431	1	4
629.600	1	10
629.770	1	-5
629.940	1	-8
630.109	1	6
630.279	1	3
630.448	1	5
630.618	1	9
630.788	1	-1
630.957	1	1
631.127	1	5
631.297	1	0
631.466	1	-2
631.636	1	-6
631.805	1	4
631.975	1	8
632.145	1	9
632.314	1	1
632.484	1	-8
632.653	1	-8
632.823	1	7
632.993	1	14
633.162	1	5
633.332	1	-11
633.501	1	-2
633.671	1	1
633.841	1	13
634.010	1	5
634.180	1	-9
634.349	1	3
634.519	1	-12
634.689	1	6
634.858	1	-16
635.028	1	9
635.197	1	7
635.367	1	0
635.537	1	8
635.706	1	1
635.876	1	0
636.045	1	0
636.215	1	5
636.384	1	4
636.554	1	-2
636.724	1	-7
636.893	1	-4
637.063	1	5
637.232	1	1
637.402	1	-1
637.572	1	-5
637.741	1	1
637.911	1	-3
638.080	1	-10
638.250	1	4
638.419	1	9
638.589	1	7
638.759	1	1
638.928	1	10
639.098	1	-2
639.267	1	-2
639.437	1	0
639.606	1	-1
639.776	1	-15
639.946	1	0
640.115	1	-3
640.285	1	13
640.454	1	-8
640.624	1	15
640.793	1	2
640.963	1	7
641.132	1	-6
641.302	1	7
641.472	1	-6
641.641	1	0
641.811	1	0
641.980	1	-1
642.150	1	-8
642.319	1	9
642.489	1	-9
642.659	1	5
642.828	1	-1
642.998	1	5
643.167	1	2
643.337	1	-3
643.506	1	3
643.676	1	-4
643.845	1	-1
644.015	1	2
644.184	1	5
644.354	1	2
644.524	1	-7
644.693	1	6
644.863	1	4
645.032	1	3
645.202	1	-1
645.371	1	8
645.541	1	11
645.710	1	10
645.880	1	-1
646.049	1	7
646.219	1	-2
646.388	1	5
646.558	1	1
646.728	1	5
646.897	1	0
647.067	1	-2
647.236	1	5
647.406	1	-5
647.575	1	4
647.745	1	2
647.914	1	8
648.084	1	-5
648.253	1	3
648.423	1	-4
648.592	1	-2
648.762	1	-1
648.931	1	7
649.101	1	0
649.270	1	7
649.440	1	-11
649.610	1	-2
649.779	1	-8
649.949	1	-7
650.118	1	3
650.288	1	10
650.457	1	7
650.627	1	8
650.796	1	-2
650.966	1	-9
651.135	1	4
651.305	1	-1
651.474	1	-2
651.644	1	-16
651.813	1	-6
651.983	1	3
652.152	1	6
652.322	1	-3
652.491	1	11
652.661	1	7
652.830	1	5
653.000	1	4
653.169	1	-4
653.339	1	-12
653.508	1	3
653.678	1	3
653.847	1	12
654.017	1	6
654.186	1	-2
654.356	1	-5
654.525	1	3
654.695	1	1
654.864	1	4
655.034	1	5
655.203	1	-7
655.373	1	3
655.542	1	12
655.712	1	-1
655.881	1	3
656.051	1	-5
656.220	1	15
656.390	1	-2
656.559	1	1
656.729	1	-7
656.898	1	-1
657.068	1	13
657.237	1	10
657.406	1	1
657.576	1	-4
657.745	1	-2
657.915	1	3
658.084	1	4
658.254	1	-4
658.423	1	-1
658.593	1	-4
658.762	1	2
658.932	1	7
659.101	1	-4
659.271	1	5
659.440	1	-2
659.610	1	7
659.779	1	6
659.949	1	4
660.118	1	-2
660.288	1	2
660.457	1	2
660.626	1	-1
660.796	1	7
660.965	1	7
661.135	1	2
661.304	1	-4
661.474	1	5
661.643	1	5
661.813	1	4
661.982	1	-3
662.152	1	7
662.321	1	-3
662.491	1	7
662.660	1	1
662.829	1	3
662.999	1	-3
663.168	1	-5
663.338	1	10
663.507	1	-9
663.677	1	6
663.846	1	2
664.016	1	-4
664.185	1	1
664.354	1	6
664.524	1	-3
664.693	1	-3
664.863	1	-4
665.032	1	-3
665.202	1	4
665.371	1	-1
665.541	1	4
665.710	1	10
665.879	1	2
666.049	1	7
666.218	1	6
666.388	1	-6
666.557	1	1
666.727	1	2
666.896	1	-4
667.065	1	-3
667.235	1	-1
667.404	1	5
667.574	1	13
667.743	1	-1
667.913	1	-11
668.082	1	2
668.251	1	10
668.421	1	-2
668.590	1	3
668.760	1	8
668.929	1	-2
669.099	1	4
669.268	1	3
669.437	1	5
669.607	1	-6
669.776	1	-2
669.946	1	4
670.115	1	-11
670.285	1	-6
670.454	1	2
670.623	1	-3
670.793	1	-2
670.962	1	11
671.132	1	-2
671.301	1	-1
671.470	1	-4
671.640	1	-9
671.809	1	13
671.979	1	-2
672.148	1	6
672.317	1	1
672.487	1	8
672.656	1	-1
672.826	1	14
672.995	1	-4
673.164	1	11
673.334	1	-5
673.503	1	2
673.673	1	7
673.842	1	-7
674.011	1	-3
674.181	1	-16
674.350	1	6
674.520	1	6
674.689	1	9
674.858	1	4
675.028	1	8
675.197	1	5
675.367	1	3
675.536	1	1
675.705	1	-5
675.875	1	4
676.044	1	-5
676.214	1	-3
676.383	1	11
676.552	1	-1
676.722	1	-1
676.891	1	-6
677.060	1	-3
677.230	1	-6
677.399	1	-2
677.569	1	2
677.738	1	-5
677.907	1	5
678.077	1	-4
678.246	1	2
678.416	1	-2
678.585	1	-16
678.754	1	-1
678.924	1	-6
679.093	1	10
679.262	1	2
679.432	1	-4
679.601	1	2
679.771	1	-3
679.940	1	8
680.109	1	-1
680.279	1	-10
680.448	1	-7
680.617	1	2
680.787	1	-4
680.956	1	9
681.125	1	-4
681.295	1	8
681.464	1	8
681.634	1	6
681.803	1	8
681.972	1	8
682.142	1	0
682.311	1	-3
682.480	1	-6
682.650	1	1
682.819	1	-6
682.988	1	4
683.158	1	6
683.327	1	0
683.496	1	3
683.666	1	5
683.835	1	-6
684.004	1	2
684.174	1	5
684.343	1	0
684.512	1	11
684.682	1	9
684.851	1	9
685.021	1	5
685.190	1	9
685.359	1	11
685.529	1	3
685.698	1	4
685.867	1	4
686.037	1	1
686.206	1	4
686.375	1	14
686.545	1	1
686.714	1	6
686.883	1	-7
687.053	1	1
687.222	1	-4
687.391	1	-1
687.561	1	-4
687.730	1	-4
687.899	1	-11
688.069	1	0
688.238	1	12
688.407	1	-6
688.577	1	1
688.746	1	-5
