340.368	1	13
340.539	1	-2
340.710	1	4
340.881	1	-2
341.052	1	-3
341.223	1	11
341.394	1	-3
341.565	1	-4
341.737	1	2
341.908	1	-1
342.079	1	3
342.250	1	-8
342.421	1	0
342.592	1	3
342.763	1	-10
342.934	1	4
343.105	1	5
343.276	1	3
343.447	1	-6
343.618	1	-6
343.789	1	5
343.960	1	1
344.131	1	5
344.302	1	0
344.473	1	2
344.644	1	10
344.815	1	2
344.986	1	6
345.157	1	6
345.328	1	6
345.499	1	11
345.670	1	-1
345.841	1	-3
346.012	1	0
346.183	1	3
346.354	1	9
346.526	1	0
346.697	1	2
346.868	1	4
347.039	1	10
347.210	1	-4
347.381	1	3
347.552	1	4
347.723	1	6
347.894	1	9
348.065	1	1
348.236	1	-2
348.407	1	3
348.578	1	7
348.749	1	4
348.920	1	11
349.091	1	7
349.262	1	3
349.433	1	14
349.604	1	-4
349.775	1	-5
349.946	1	10
350.117	1	8
350.288	1	-2
350.459	1	-6
350.630	1	-1
350.801	1	8
350.972	1	9
351.143	1	10
351.314	1	-8
351.485	1	-4
351.656	1	6
351.827	1	0
351.998	1	4
352.169	1	1
352.340	1	15
352.511	1	9
352.682	1	4
352.853	1	-2
353.024	1	13
353.195	1	10
353.366	1	4
353.537	1	2
353.708	1	6
353.879	1	6
354.050	1	5
354.221	1	10
354.392	1	1
354.563	1	-2
354.734	1	9
354.905	1	8
355.076	1	-2
355.247	1	3
355.418	1	3
355.589	1	-3
355.760	1	8
355.931	1	5
356.102	1	7
356.273	1	12
356.444	1	7
356.615	1	2
356.785	1	4
356.956	1	2
357.127	1	6
357.298	1	26
357.469	1	12
357.640	1	8
357.811	1	17
357.982	1	16
358.153	1	4
358.324	1	7
358.495	1	8
358.666	1	9
358.837	1	6
359.008	1	11
359.179	1	17
359.350	1	10
359.521	1	4
359.692	1	6
359.863	1	1
360.034	1	9
360.205	1	22
360.376	1	5
360.547	1	6
360.718	1	-4
360.889	1	16
361.060	1	22
361.231	1	21
361.401	1	8
361.572	1	19
361.743	1	6
361.914	1	15
362.085	1	10
362.256	1	10
362.427	1	3
362.598	1	11
362.769	1	31
362.940	1	9
363.111	1	19
363.282	1	24
363.453	1	25
363.624	1	20
363.795	1	17
363.966	1	18
364.137	1	13
364.308	1	9
364.478	1	22
364.649	1	25
364.820	1	26
364.991	1	19
365.162	1	34
365.333	1	20
365.504	1	7
365.675	1	33
365.846	1	22
366.017	1	29
366.188	1	39
366.359	1	25
366.530	1	34
366.701	1	25
366.871	1	35
367.042	1	32
367.213	1	40
367.384	1	41
367.555	1	18
367.726	1	41
367.897	1	35
368.068	1	29
368.239	1	38
368.410	1	50
368.581	1	29
368.752	1	52
368.923	1	33
369.093	1	39
369.264	1	32
369.435	1	40
369.606	1	41
369.777	1	43
369.948	1	44
370.119	1	50
370.290	1	38
370.461	1	32
370.632	1	44
370.803	1	49
370.973	1	36
371.144	1	46
371.315	1	49
371.486	1	38
371.657	1	58
371.828	1	43
371.999	1	55
372.170	1	45
372.341	1	59
372.512	1	48
372.682	1	53
372.853	1	50
373.024	1	59
373.195	1	73
373.366	1	56
373.537	1	69
373.708	1	45
373.879	1	54
374.050	1	67
374.220	1	48
374.391	1	52
374.562	1	52
374.733	1	55
374.904	1	59
375.075	1	47
375.246	1	43
375.417	1	58
375.588	1	50
375.758	1	67
375.929	1	47
376.100	1	40
376.271	1	46
376.442	1	49
376.613	1	55
376.784	1	44
376.955	1	38
377.125	1	50
377.296	1	47
377.467	1	39
377.638	1	42
377.809	1	47
377.980	1	44
378.151	1	46
378.321	1	48
378.492	1	43
378.663	1	42
378.834	1	52
379.005	1	46
379.176	1	43
379.347	1	35
379.518	1	31
379.688	1	48
379.859	1	41
380.030	1	38
380.201	1	37
380.372	1	36
380.543	1	38
380.714	1	41
380.884	1	32
381.055	1	32
381.226	1	35
381.397	1	18
381.568	1	24
381.739	1	28
381.910	1	27
382.080	1	30
382.251	1	40
382.422	1	42
382.593	1	30
382.764	1	15
382.935	1	34
383.105	1	31
383.276	1	32
383.447	1	37
383.618	1	32
383.789	1	31
383.960	1	29
384.130	1	20
384.301	1	37
384.472	1	25
384.643	1	23
384.814	1	27
384.985	1	44
385.156	1	26
385.326	1	24
385.497	1	17
385.668	1	17
385.839	1	25
386.010	1	28
386.180	1	19
386.351	1	31
386.522	1	11
386.693	1	27
386.864	1	28
387.035	1	11
387.205	1	28
387.376	1	21
387.547	1	9
387.718	1	20
387.889	1	25
388.060	1	23
388.230	1	16
388.401	1	15
388.572	1	21
388.743	1	14
388.914	1	24
389.084	1	18
389.255	1	17
389.426	1	21
389.597	1	17
389.768	1	18
389.939	1	29
390.109	1	9
390.280	1	18
390.451	1	16
390.622	1	20
390.793	1	19
390.963	1	9
391.134	1	3
391.305	1	12
391.476	1	15
391.647	1	8
391.817	1	11
391.988	1	12
392.159	1	12
392.330	1	16
392.501	1	16
392.671	1	15
392.842	1	7
393.013	1	15
393.184	1	14
393.355	1	-1
393.525	1	17
393.696	1	8
393.867	1	7
394.038	1	16
394.208	1	21
394.379	1	9
394.550	1	7
394.721	1	21
394.892	1	21
395.062	1	19
395.233	1	7
395.404	1	3
395.575	1	10
395.746	1	6
395.916	1	14
396.087	1	9
396.258	1	7
396.429	1	3
396.599	1	19
396.770	1	-2
396.941	1	10
397.112	1	1
397.283	1	12
397.453	1	11
397.624	1	15
397.795	1	9
397.966	1	23
398.136	1	5
398.307	1	21
398.478	1	8
398.649	1	5
398.819	1	6
398.990	1	12
399.161	1	6
399.332	1	16
399.503	1	6
399.673	1	4
399.844	1	3
400.015	1	15
400.186	1	9
400.356	1	4
400.527	1	10
400.698	1	16
400.869	1	8
401.039	1	8
401.210	1	14
401.381	1	8
401.552	1	5
401.722	1	9
401.893	1	4
402.064	1	4
402.235	1	7
402.405	1	15
402.576	1	9
402.747	1	11
402.918	1	10
403.088	1	-4
403.259	1	7
403.430	1	15
403.601	1	14
403.771	1	13
403.942	1	7
404.113	1	-3
404.284	1	15
404.454	1	9
404.625	1	14
404.796	1	7
404.967	1	9
405.137	1	-5
405.308	1	-6
405.479	1	2
405.649	1	6
405.820	1	6
405.991	1	1
406.162	1	6
406.332	1	9
406.503	1	-6
406.674	1	8
406.845	1	5
407.015	1	5
407.186	1	9
407.357	1	14
407.527	1	9
407.698	1	11
407.869	1	10
408.040	1	4
408.210	1	8
408.381	1	11
408.552	1	1
408.722	1	2
408.893	1	7
409.064	1	7
409.235	1	1
409.405	1	-9
409.576	1	11
409.747	1	7
409.917	1	1
410.088	1	6
410.259	1	5
410.430	1	3
410.600	1	13
410.771	1	4
410.942	1	0
411.112	1	23
411.283	1	7
411.454	1	8
411.625	1	2
411.795	1	1
411.966	1	5
412.137	1	9
412.307	1	-8
412.478	1	12
412.649	1	2
412.819	1	14
412.990	1	-9
413.161	1	-3
413.332	1	6
413.502	1	2
413.673	1	2
413.844	1	3
414.014	1	13
414.185	1	0
414.356	1	0
414.526	1	14
414.697	1	8
414.868	1	18
415.038	1	1
415.209	1	6
415.380	1	5
415.550	1	0
415.721	1	10
415.892	1	7
416.063	1	1
416.233	1	14
416.404	1	0
416.575	1	12
416.745	1	3
416.916	1	2
417.087	1	10
417.257	1	3
417.428	1	-7
417.599	1	10
417.769	1	1
417.940	1	15
418.111	1	-1
418.281	1	6
418.452	1	0
418.623	1	-11
418.793	1	3
418.964	1	3
419.135	1	8
419.305	1	3
419.476	1	9
419.647	1	5
419.817	1	-4
419.988	1	2
420.159	1	14
420.329	1	4
420.500	1	-9
420.671	1	12
420.841	1	-5
421.012	1	12
421.183	1	13
421.353	1	-3
421.524	1	10
421.695	1	7
421.865	1	14
422.036	1	13
422.206	1	7
422.377	1	3
422.548	1	3
422.718	1	4
422.889	1	-6
423.060	1	2
423.230	1	5
423.401	1	8
423.572	1	1
423.742	1	24
423.913	1	-1
424.084	1	-5
424.254	1	2
424.425	1	4
424.595	1	-5
424.766	1	9
424.937	1	3
425.107	1	-5
425.278	1	11
425.449	1	7
425.619	1	2
425.790	1	-1
425.961	1	14
426.131	1	-6
426.302	1	5
426.472	1	4
426.643	1	10
426.814	1	6
426.984	1	5
427.155	1	2
427.326	1	7
427.496	1	8
427.667	1	9
427.837	1	8
428.008	1	3
428.179	1	-7
428.349	1	4
428.520	1	3
428.691	1	8
428.861	1	20
429.032	1	-2
429.202	1	2
429.373	1	-8
429.544	1	3
429.714	1	0
429.885	1	16
430.055	1	8
430.226	1	7
430.397	1	-1
430.567	1	17
430.738	1	10
430.909	1	7
431.079	1	3
431.250	1	-1
431.420	1	4
431.591	1	-10
431.762	1	8
431.932	1	7
432.103	1	14
432.273	1	2
432.444	1	1
432.615	1	-2
432.785	1	0
432.956	1	8
433.126	1	7
433.297	1	3
433.468	1	-5
433.638	1	12
433.809	1	-1
433.979	1	0
434.150	1	11
434.320	1	-5
434.491	1	-6
434.662	1	-4
434.832	1	9
435.003	1	8
435.173	1	5
435.344	1	14
435.515	1	4
435.685	1	4
435.856	1	10
436.026	1	2
436.197	1	8
436.368	1	-5
436.538	1	12
436.709	1	-6
436.879	1	-9
437.050	1	15
437.220	1	21
437.391	1	16
437.562	1	9
437.732	1	-9
437.903	1	9
438.073	1	1
438.244	1	7
438.414	1	10
438.585	1	3
438.756	1	7
438.926	1	4
439.097	1	-3
439.267	1	-1
439.438	1	0
439.608	1	9
439.779	1	7
439.949	1	-3
440.120	1	4
440.291	1	7
440.461	1	0
440.632	1	3
440.802	1	10
440.973	1	7
441.143	1	-1
441.314	1	6
441.485	1	4
441.655	1	12
441.826	1	10
441.996	1	4
442.167	1	2
442.337	1	6
442.508	1	15
442.678	1	3
442.849	1	7
443.019	1	0
443.190	1	0
443.361	1	2
443.531	1	-3
443.702	1	9
443.872	1	9
444.043	1	-11
444.213	1	8
444.384	1	-2
444.554	1	-1
444.725	1	-4
444.895	1	3
445.066	1	3
445.237	1	3
445.407	1	5
445.578	1	10
445.748	1	2
445.919	1	3
446.089	1	2
446.260	1	-2
446.430	1	17
446.601	1	2
446.771	1	3
446.942	1	9
447.112	1	-2
447.283	1	9
447.453	1	1
447.624	1	-1
447.794	1	7
447.965	1	4
448.135	1	4
448.306	1	-2
448.477	1	5
448.647	1	3
448.818	1	12
448.988	1	-3
449.159	1	0
449.329	1	5
449.500	1	11
449.670	1	9
449.841	1	4
450.011	1	9
450.182	1	0
450.352	1	7
450.523	1	2
450.693	1	-1
450.864	1	7
451.034	1	4
451.205	1	7
451.375	1	-1
451.546	1	7
451.716	1	-2
451.887	1	8
452.057	1	-1
452.228	1	12
452.398	1	7
452.569	1	3
452.739	1	15
452.910	1	3
453.080	1	9
453.251	1	6
453.421	1	-1
453.592	1	13
453.762	1	11
453.933	1	8
454.103	1	-1
454.274	1	1
454.444	1	2
454.615	1	-8
454.785	1	9
454.956	1	-8
455.126	1	13
455.297	1	11
455.467	1	5
455.638	1	-9
455.808	1	7
455.979	1	-1
456.149	1	-3
456.320	1	-4
456.490	1	16
456.661	1	11
456.831	1	5
457.001	1	11
457.172	1	11
457.342	1	0
457.513	1	-6
457.683	1	4
457.854	1	13
458.024	1	0
458.195	1	-5
458.365	1	0
458.536	1	6
458.706	1	3
458.877	1	6
459.047	1	-4
459.218	1	-7
459.388	1	-1
459.559	1	2
459.729	1	7
459.899	1	6
460.070	1	11
460.240	1	13
460.411	1	17
460.581	1	5
460.752	1	3
460.922	1	10
461.093	1	3
461.263	1	-4
461.434	1	6
461.604	1	-5
461.775	1	-7
461.945	1	8
462.115	1	1
462.286	1	16
462.456	1	9
462.627	1	-4
462.797	1	6
462.968	1	-2
463.138	1	6
463.309	1	-4
463.479	1	8
463.649	1	6
463.820	1	-5
463.990	1	5
464.161	1	-11
464.331	1	-10
464.502	1	10
464.672	1	4
464.843	1	9
465.013	1	10
465.183	1	-3
465.354	1	-2
465.524	1	7
465.695	1	12
465.865	1	1
466.036	1	0
466.206	1	3
466.376	1	4
466.547	1	2
466.717	1	-9
466.888	1	-10
467.058	1	-7
467.229	1	3
467.399	1	9
467.569	1	11
467.740	1	-11
467.910	1	0
468.081	1	10
468.251	1	4
468.422	1	1
468.592	1	7
468.762	1	9
468.933	1	13
469.103	1	1
469.274	1	6
469.444	1	5
469.614	1	4
469.785	1	-3
469.955	1	5
470.126	1	5
470.296	1	-8
470.467	1	-1
470.637	1	6
470.807	1	4
470.978	1	-10
471.148	1	16
471.319	1	-3
471.489	1	12
471.659	1	5
471.830	1	4
472.000	1	11
472.171	1	7
472.341	1	-12
472.511	1	-1
472.682	1	11
472.852	1	6
473.023	1	0
473.193	1	1
473.363	1	5
473.534	1	0
473.704	1	-2
473.875	1	10
474.045	1	8
474.215	1	2
474.386	1	10
474.556	1	-5
474.727	1	8
474.897	1	-6
475.067	1	6
475.238	1	-2
475.408	1	13
475.578	1	-3
475.749	1	6
475.919	1	-2
476.090	1	14
476.260	1	0
476.430	1	3
476.601	1	-1
476.771	1	4
476.942	1	10
477.112	1	0
477.282	1	1
477.453	1	9
477.623	1	-6
477.793	1	-10
477.964	1	3
478.134	1	7
478.305	1	-5
478.475	1	-11
478.645	1	1
478.816	1	10
478.986	1	2
479.156	1	5
479.327	1	-5
479.497	1	7
479.667	1	-2
479.838	1	4
480.008	1	-1
480.179	1	2
480.349	1	-6
480.519	1	1
480.690	1	3
480.860	1	10
481.030	1	0
481.201	1	2
481.371	1	14
481.541	1	1
481.712	1	3
481.882	1	0
482.053	1	8
482.223	1	1
482.393	1	6
482.564	1	0
482.734	1	11
482.904	1	-4
483.075	1	4
483.245	1	13
483.415	1	-2
483.586	1	-7
483.756	1	10
483.926	1	-1
484.097	1	12
484.267	1	-7
484.437	1	7
484.608	1	0
484.778	1	5
484.948	1	-2
485.119	1	-1
485.289	1	-3
485.459	1	6
485.630	1	13
485.800	1	2
485.970	1	0
486.141	1	-9
486.311	1	3
486.481	1	-5
486.652	1	8
486.822	1	4
486.992	1	1
487.163	1	3
487.333	1	0
487.503	1	-3
487.674	1	4
487.844	1	-2
488.014	1	2
488.185	1	12
488.355	1	-3
488.525	1	3
488.696	1	13
488.866	1	-1
489.036	1	2
489.207	1	2
489.377	1	-4
489.547	1	5
489.718	1	-1
489.888	1	11
490.058	1	4
490.228	1	2
490.399	1	-18
490.569	1	10
490.739	1	7
490.910	1	-3
491.080	1	4
491.250	1	0
491.421	1	2
491.591	1	1
491.761	1	4
491.932	1	9
492.102	1	-2
492.272	1	5
492.442	1	-2
492.613	1	11
492.783	1	10
492.953	1	10
493.124	1	-5
493.294	1	-1
493.464	1	15
493.635	1	2
493.805	1	0
493.975	1	-4
494.145	1	-6
494.316	1	0
494.486	1	-8
494.656	1	7
494.827	1	7
494.997	1	0
495.167	1	13
495.337	1	17
495.508	1	4
495.678	1	7
495.848	1	4
496.019	1	-6
496.189	1	5
496.359	1	5
496.529	1	10
496.700	1	11
496.870	1	2
497.040	1	-6
497.211	1	-4
497.381	1	1
497.551	1	-4
497.721	1	11
497.892	1	9
498.062	1	17
498.232	1	-4
498.403	1	13
498.573	1	10
498.743	1	15
498.913	1	-1
499.084	1	-1
499.254	1	3
499.424	1	6
499.594	1	12
499.765	1	-8
499.935	1	10
500.105	1	6
500.275	1	-4
500.446	1	3
500.616	1	6
500.786	1	0
500.956	1	0
501.127	1	-1
501.297	1	10
501.467	1	5
501.638	1	-10
501.808	1	2
501.978	1	4
502.148	1	7
502.319	1	0
502.489	1	3
502.659	1	-14
502.829	1	9
503.000	1	-5
503.170	1	3
503.340	1	9
503.510	1	1
503.681	1	6
503.851	1	4
504.021	1	2
504.191	1	2
504.362	1	-2
504.532	1	-7
504.702	1	0
504.872	1	4
505.042	1	-5
505.213	1	15
505.383	1	0
505.553	1	9
505.723	1	-4
505.894	1	6
506.064	1	8
506.234	1	9
506.404	1	-3
506.575	1	-12
506.745	1	1
506.915	1	8
507.085	1	-1
507.256	1	7
507.426	1	1
507.596	1	1
507.766	1	11
507.936	1	1
508.107	1	3
508.277	1	-2
508.447	1	-3
508.617	1	4
508.788	1	1
508.958	1	3
509.128	1	-1
509.298	1	-7
509.468	1	0
509.639	1	6
509.809	1	10
509.979	1	9
510.149	1	5
510.319	1	6
510.490	1	8
510.660	1	2
510.830	1	5
511.000	1	4
511.171	1	-3
511.341	1	0
511.511	1	4
511.681	1	9
511.851	1	4
512.022	1	7
512.192	1	3
512.362	1	17
512.532	1	-8
512.702	1	0
512.873	1	3
513.043	1	12
513.213	1	8
513.383	1	5
513.553	1	3
513.724	1	0
513.894	1	-7
514.064	1	2
514.234	1	-3
514.404	1	2
514.575	1	3
514.745	1	-3
514.915	1	-11
515.085	1	0
515.255	1	14
515.425	1	-4
515.596	1	7
515.766	1	3
515.936	1	13
516.106	1	6
516.276	1	5
516.447	1	3
516.617	1	5
516.787	1	0
516.957	1	10
517.127	1	10
517.297	1	-1
517.468	1	2
517.638	1	8
517.808	1	2
517.978	1	16
518.148	1	9
518.319	1	9
518.489	1	4
518.659	1	13
518.829	1	-5
518.999	1	0
519.169	1	-4
519.340	1	6
519.510	1	-3
519.680	1	5
519.850	1	0
520.020	1	11
520.190	1	4
520.361	1	10
520.531	1	-10
520.701	1	2
520.871	1	-8
521.041	1	-6
521.211	1	2
521.382	1	-1
521.552	1	10
521.722	1	12
521.892	1	-3
522.062	1	1
522.232	1	3
522.402	1	-1
522.573	1	-2
522.743	1	5
522.913	1	-5
523.083	1	7
523.253	1	6
523.423	1	18
523.593	1	-6
523.764	1	10
523.934	1	5
524.104	1	6
524.274	1	3
524.444	1	6
524.614	1	5
524.784	1	14
524.955	1	1
525.125	1	6
525.295	1	4
525.465	1	-1
525.635	1	-6
525.805	1	5
525.975	1	-2
526.146	1	8
526.316	1	-7
526.486	1	-2
526.656	1	1
526.826	1	-7
526.996	1	12
527.166	1	5
527.337	1	13
527.507	1	-9
527.677	1	6
527.847	1	5
528.017	1	3
528.187	1	-2
528.357	1	0
528.527	1	5
528.698	1	9
528.868	1	-1
529.038	1	4
529.208	1	16
529.378	1	5
529.548	1	1
529.718	1	3
529.888	1	14
530.058	1	5
530.229	1	8
530.399	1	14
530.569	1	-8
530.739	1	4
530.909	1	-3
531.079	1	-6
531.249	1	13
531.419	1	12
531.589	1	-5
531.760	1	10
531.930	1	0
532.100	1	-4
532.270	1	12
532.440	1	-4
532.610	1	12
532.780	1	-2
532.950	1	8
533.120	1	15
533.290	1	2
533.461	1	1
533.631	1	1
533.801	1	-5
533.971	1	-4
534.141	1	-8
534.311	1	10
534.481	1	-1
534.651	1	4
534.821	1	6
534.991	1	-8
535.162	1	5
535.332	1	7
535.502	1	3
535.672	1	4
535.842	1	6
536.012	1	0
536.182	1	5
536.352	1	10
536.522	1	0
536.692	1	3
536.862	1	0
537.032	1	14
537.203	1	5
537.373	1	10
537.543	1	-3
537.713	1	-1
537.883	1	-2
538.053	1	3
538.223	1	7
538.393	1	0
538.563	1	11
538.733	1	8
538.903	1	-2
539.073	1	-1
539.243	1	-12
539.413	1	-3
539.584	1	10
539.754	1	-2
539.924	1	9
540.094	1	-8
540.264	1	2
540.434	1	4
540.604	1	2
540.774	1	16
540.944	1	2
541.114	1	4
541.284	1	3
541.454	1	1
541.624	1	-5
541.794	1	11
541.964	1	7
542.134	1	2
542.305	1	6
542.475	1	5
542.645	1	3
542.815	1	0
542.985	1	8
543.155	1	3
543.325	1	-8
543.495	1	10
543.665	1	11
543.835	1	6
544.005	1	2
544.175	1	-8
544.345	1	8
544.515	1	8
544.685	1	-12
544.855	1	3
545.025	1	14
545.195	1	4
545.365	1	5
545.535	1	10
545.705	1	5
545.875	1	6
546.045	1	2
546.216	1	10
546.386	1	4
546.556	1	14
546.726	1	4
546.896	1	11
547.066	1	6
547.236	1	5
547.406	1	-7
547.576	1	6
547.746	1	11
547.916	1	8
548.086	1	4
548.256	1	4
548.426	1	1
548.596	1	2
548.766	1	4
548.936	1	-11
549.106	1	6
549.276	1	-1
549.446	1	7
549.616	1	-3
549.786	1	9
549.956	1	8
550.126	1	8
550.296	1	15
550.466	1	1
550.636	1	13
550.806	1	-5
550.976	1	-5
551.146	1	8
551.316	1	19
551.486	1	-1
551.656	1	6
551.826	1	11
551.996	1	6
552.166	1	-4
552.336	1	10
552.506	1	4
552.676	1	5
552.846	1	-1
553.016	1	-1
553.186	1	1
553.356	1	-2
553.526	1	9
553.696	1	7
553.866	1	4
554.036	1	1
554.206	1	-1
554.376	1	-1
554.546	1	1
554.716	1	-2
554.886	1	15
555.056	1	1
555.226	1	-5
555.396	1	9
555.566	1	8
555.736	1	0
555.906	1	-5
556.076	1	3
556.246	1	12
556.416	1	10
556.586	1	-3
556.756	1	10
556.926	1	4
557.096	1	0
557.266	1	3
557.436	1	3
557.606	1	8
557.776	1	-2
557.946	1	1
558.116	1	-2
558.286	1	-7
558.456	1	1
558.626	1	18
558.796	1	2
558.966	1	2
559.136	1	6
559.306	1	8
559.476	1	4
559.646	1	6
559.816	1	-4
559.986	1	5
560.155	1	14
560.325	1	4
560.495	1	2
560.665	1	1
560.835	1	8
561.005	1	-3
561.175	1	11
561.345	1	-5
561.515	1	-4
561.685	1	4
561.855	1	-11
562.025	1	6
562.195	1	6
562.365	1	1
562.535	1	-6
562.705	1	3
562.875	1	7
563.045	1	-5
563.215	1	5
563.385	1	9
563.555	1	9
563.725	1	-7
563.895	1	6
564.064	1	15
564.234	1	6
564.404	1	-5
564.574	1	10
564.744	1	6
564.914	1	-6
565.084	1	4
565.254	1	-1
565.424	1	3
565.594	1	-1
565.764	1	5
565.934	1	-5
566.104	1	4
566.274	1	-5
566.444	1	7
566.614	1	-3
566.783	1	2
566.953	1	3
567.123	1	1
567.293	1	3
567.463	1	9
567.633	1	7
567.803	1	-6
567.973	1	3
568.143	1	3
568.313	1	-2
568.483	1	9
568.653	1	-7
568.823	1	-3
568.993	1	11
569.162	1	15
569.332	1	-1
569.502	1	-1
569.672	1	-1
569.842	1	6
570.012	1	-3
570.182	1	-3
570.352	1	-2
570.522	1	6
570.692	1	2
570.862	1	17
571.031	1	3
571.201	1	6
571.371	1	-11
571.541	1	2
571.711	1	1
571.881	1	16
572.051	1	10
572.221	1	5
572.391	1	-7
572.561	1	9
572.731	1	4
572.900	1	-2
573.070	1	4
573.240	1	3
573.410	1	2
573.580	1	12
573.750	1	5
573.920	1	5
574.090	1	-3
574.260	1	4
574.430	1	-4
574.599	1	-7
574.769	1	6
574.939	1	9
575.109	1	-6
575.279	1	-9
575.449	1	-4
575.619	1	1
575.789	1	-7
575.959	1	-2
576.128	1	-2
576.298	1	4
576.468	1	5
576.638	1	5
576.808	1	-5
576.978	1	6
577.148	1	-2
577.318	1	4
577.487	1	-4
577.657	1	9
577.827	1	7
577.997	1	4
578.167	1	6
578.337	1	4
578.507	1	-1
578.677	1	-5
578.846	1	14
579.016	1	5
579.186	1	10
579.356	1	-2
579.526	1	8
579.696	1	1
579.866	1	3
580.036	1	5
580.205	1	-3
580.375	1	2
580.545	1	7
580.715	1	10
580.885	1	1
581.055	1	1
581.225	1	-6
581.394	1	-5
581.564	1	-6
581.734	1	7
581.904	1	6
582.074	1	-2
582.244	1	16
582.414	1	19
582.583	1	16
582.753	1	-7
582.923	1	-5
583.093	1	2
583.263	1	-1
583.433	1	-13
583.603	1	11
583.772	1	15
583.942	1	11
584.112	1	9
584.282	1	14
584.452	1	5
584.622	1	15
584.791	1	5
584.961	1	10
585.131	1	11
585.301	1	0
585.471	1	-2
585.641	1	10
585.811	1	11
585.980	1	4
586.150	1	5
586.320	1	6
586.490	1	-5
586.660	1	7
586.830	1	8
586.999	1	3
587.169	1	-7
587.339	1	-1
587.509	1	0
587.679	1	7
587.849	1	6
588.018	1	4
588.188	1	16
588.358	1	-4
588.528	1	2
588.698	1	-6
588.867	1	3
589.037	1	8
589.207	1	-6
589.377	1	9
589.547	1	6
589.717	1	1
589.886	1	1
590.056	1	2
590.226	1	-1
590.396	1	3
590.566	1	-3
590.735	1	1
590.905	1	4
591.075	1	2
591.245	1	16
591.415	1	6
591.585	1	-4
591.754	1	3
591.924	1	-1
592.094	1	5
592.264	1	13
592.434	1	15
592.603	1	10
592.773	1	12
592.943	1	-7
593.113	1	-1
593.283	1	-2
593.452	1	4
593.622	1	2
593.792	1	18
593.962	1	1
594.132	1	-2
594.301	1	0
594.471	1	3
594.641	1	2
594.811	1	1
594.981	1	-8
595.150	1	-7
595.320	1	7
595.490	1	-3
595.660	1	-1
595.829	1	3
595.999	1	-7
596.169	1	8
596.339	1	1
596.509	1	-2
596.678	1	-5
596.848	1	4
597.018	1	-1
597.188	1	-4
597.358	1	4
597.527	1	9
597.697	1	5
597.867	1	-3
598.037	1	-4
598.206	1	4
598.376	1	8
598.546	1	12
598.716	1	3
598.885	1	10
599.055	1	0
599.225	1	11
599.395	1	5
599.565	1	-3
599.734	1	4
599.904	1	7
600.074	1	13
600.244	1	9
600.413	1	1
600.583	1	2
600.753	1	7
600.923	1	-2
601.092	1	1
601.262	1	6
601.432	1	8
601.602	1	8
601.771	1	7
601.941	1	11
602.111	1	3
602.281	1	5
602.451	1	7
602.620	1	-1
602.790	1	-14
602.960	1	-12
603.130	1	-1
603.299	1	5
603.469	1	3
603.639	1	-3
603.809	1	18
603.978	1	-4
604.148	1	5
604.318	1	4
604.487	1	-1
604.657	1	11
604.827	1	13
604.997	1	0
605.166	1	-1
605.336	1	5
605.506	1	-7
605.676	1	2
605.845	1	-7
606.015	1	-6
606.185	1	13
606.355	1	5
606.524	1	9
606.694	1	7
606.864	1	4
607.034	1	12
607.203	1	8
607.373	1	-11
607.543	1	-13
607.712	1	-4
607.882	1	-12
608.052	1	3
608.222	1	5
608.391	1	10
608.561	1	17
608.731	1	2
608.901	1	6
609.070	1	2
609.240	1	7
609.410	1	2
609.579	1	-16
609.749	1	-4
609.919	1	4
610.089	1	7
610.258	1	13
610.428	1	9
610.598	1	5
610.767	1	-1
610.937	1	0
611.107	1	-6
611.277	1	-7
611.446	1	12
611.616	1	9
611.786	1	7
611.955	1	5
612.125	1	3
612.295	1	0
612.465	1	-4
612.634	1	3
612.804	1	8
612.974	1	-8
613.143	1	7
613.313	1	5
613.483	1	0
613.652	1	15
613.822	1	-1
613.992	1	5
614.162	1	10
614.331	1	1
614.501	1	1
614.671	1	13
614.840	1	1
615.010	1	-6
615.180	1	1
615.349	1	7
615.519	1	0
615.689	1	11
615.858	1	1
616.028	1	-10
616.198	1	4
616.368	1	8
616.537	1	-2
616.707	1	10
616.877	1	3
617.046	1	1
617.216	1	3
617.386	1	2
617.555	1	3
617.725	1	2
617.895	1	9
618.064	1	2
618.234	1	-5
618.404	1	-6
618.573	1	11
618.743	1	3
618.913	1	3
619.082	1	10
619.252	1	1
619.422	1	0
619.591	1	1
619.761	1	-1
619.931	1	1
620.100	1	-2
620.270	1	-8
620.440	1	2
620.609	1	3
620.779	1	4
620.949	1	6
621.118	1	7
621.288	1	10
621.458	1	6
621.627	1	11
621.797	1	2
621.967	1	6
622.136	1	-5
622.306	1	10
622.476	1	6
622.645	1	4
622.815	1	6
622.985	1	3
623.154	1	1
623.324	1	-6
623.494	1	5
623.663	1	0
623.833	1	10
624.002	1	-2
624.172	1	2
624.342	1	-4
624.511	1	-3
624.681	1	10
624.851	1	7
625.020	1	6
625.190	1	12
625.360	1	5
625.529	1	4
625.699	1	-3
625.869	1	9
626.038	1	0
626.208	1	-2
626.377	1	14
626.547	1	4
626.717	1	0
626.886	1	9
627.056	1	6
627.226	1	-3
627.395	1	-8
627.565	1	6
627.735	1	16
627.904	1	-8
628.074	1	6
628.243	1	8
628.413	1	2
628.583	1	-1
628.752	1	3
628.922	1	-1
629.091	1	-1
629.261	1	-11
629.431	1	9
629.600	1	13
629.770	1	-4
629.940	1	-1
630.109	1	8
630.279	1	-6
630.448	1	0
630.618	1	19
630.788	1	1
630.957	1	2
631.127	1	23
631.297	1	-9
631.466	1	3
631.636	1	-1
631.805	1	21
631.975	1	-1
632.145	1	9
632.314	1	-3
632.484	1	5
632.653	1	-3
632.823	1	5
632.993	1	10
633.162	1	-5
633.332	1	3
633.501	1	8
633.671	1	-5
633.841	1	16
634.010	1	14
634.180	1	-1
634.349	1	7
634.519	1	-16
634.689	1	3
634.858	1	-13
635.028	1	-1
635.197	1	6
635.367	1	3
635.537	1	-1
635.706	1	10
635.876	1	11
636.045	1	6
636.215	1	-5
636.384	1	6
636.554	1	-4
636.724	1	0
636.893	1	3
637.063	1	8
637.232	1	-5
637.402	1	13
637.572	1	-10
637.741	1	3
637.911	1	5
638.080	1	7
638.250	1	1
638.419	1	-5
638.589	1	9
638.759	1	1
638.928	1	2
639.098	1	-4
639.267	1	1
639.437	1	-4
639.606	1	16
639.776	1	2
639.946	1	1
640.115	1	3
640.285	1	4
640.454	1	2
640.624	1	5
640.793	1	0
640.963	1	4
641.132	1	-7
641.302	1	7
641.472	1	-4
641.641	1	10
641.811	1	7
641.980	1	-4
642.150	1	8
642.319	1	1
642.489	1	6
642.659	1	3
642.828	1	6
642.998	1	0
643.167	1	6
643.337	1	-9
643.506	1	2
643.676	1	5
643.845	1	0
644.015	1	2
644.184	1	6
644.354	1	5
644.524	1	-3
644.693	1	12
644.863	1	0
645.032	1	-4
645.202	1	5
645.371	1	11
645.541	1	12
645.710	1	14
645.880	1	4
646.049	1	4
646.219	1	3
646.388	1	4
646.558	1	1
646.728	1	3
646.897	1	-5
647.067	1	-2
647.236	1	2
647.406	1	3
647.575	1	-3
647.745	1	0
647.914	1	7
648.084	1	-5
648.253	1	0
648.423	1	1
648.592	1	4
648.762	1	16
648.931	1	14
649.101	1	4
649.270	1	4
649.440	1	-3
649.610	1	2
649.779	1	-1
649.949	1	-12
650.118	1	6
650.288	1	6
650.457	1	9
650.627	1	-1
650.796	1	8
650.966	1	-6
651.135	1	9
651.305	1	5
651.474	1	4
651.644	1	-5
651.813	1	2
651.983	1	0
652.152	1	0
652.322	1	4
652.491	1	18
652.661	1	4
652.830	1	10
653.000	1	6
653.169	1	2
653.339	1	-7
653.508	1	3
653.678	1	9
653.847	1	17
654.017	1	-3
654.186	1	1
654.356	1	-4
654.525	1	12
654.695	1	0
654.864	1	-1
655.034	1	10
655.203	1	4
655.373	1	-1
655.542	1	3
655.712	1	-3
655.881	1	-11
656.051	1	-3
656.220	1	10
656.390	1	7
656.559	1	8
656.729	1	-4
656.898	1	-3
657.068	1	5
657.237	1	4
657.406	1	4
657.576	1	6
657.745	1	-8
657.915	1	4
658.084	1	2
658.254	1	10
658.423	1	0
658.593	1	1
658.762	1	3
658.932	1	2
659.101	1	6
659.271	1	-4
659.440	1	0
659.610	1	16
659.779	1	2
659.949	1	13
660.118	1	8
660.288	1	2
660.457	1	-4
660.626	1	-5
660.796	1	7
660.965	1	11
661.135	1	3
661.304	1	1
661.474	1	9
661.643	1	7
661.813	1	1
661.982	1	7
662.152	1	2
662.321	1	8
662.491	1	1
662.660	1	-5
662.829	1	1
662.999	1	0
663.168	1	0
663.338	1	8
663.507	1	-10
663.677	1	8
663.846	1	3
664.016	1	5
664.185	1	-2
664.354	1	0
664.524	1	-1
664.693	1	9
664.863	1	7
665.032	1	2
665.202	1	15
665.371	1	7
665.541	1	4
665.710	1	0
665.879	1	11
666.049	1	7
666.218	1	4
666.388	1	5
666.557	1	-3
666.727	1	2
666.896	1	-1
667.065	1	7
667.235	1	0
667.404	1	0
667.574	1	6
667.743	1	-3
667.913	1	-5
668.082	1	4
668.251	1	9
668.421	1	1
668.590	1	12
668.760	1	2
668.929	1	8
669.099	1	9
669.268	1	9
669.437	1	-2
669.607	1	1
669.776	1	-4
669.946	1	4
670.115	1	-1
670.285	1	2
670.454	1	6
670.623	1	1
670.793	1	13
670.962	1	9
671.132	1	-5
671.301	1	-4
671.470	1	3
671.640	1	-13
671.809	1	16
671.979	1	7
672.148	1	7
672.317	1	2
672.487	1	5
672.656	1	4
672.826	1	13
672.995	1	-6
673.164	1	-2
673.334	1	5
673.503	1	0
673.673	1	7
673.842	1	-1
674.011	1	4
674.181	1	-15
674.350	1	10
674.520	1	3
674.689	1	1
674.858	1	6
675.028	1	12
675.197	1	2
675.367	1	2
675.536	1	-6
675.705	1	2
675.875	1	0
676.044	1	-3
676.214	1	-5
676.383	1	8
676.552	1	5
676.722	1	11
676.891	1	2
677.060	1	-7
677.230	1	0
677.399	1	3
677.569	1	1
677.738	1	-4
677.907	1	1
678.077	1	-9
678.246	1	2
678.416	1	-8
678.585	1	-10
678.754	1	6
678.924	1	-1
679.093	1	8
679.262	1	6
679.432	1	5
679.601	1	11
679.771	1	-9
679.940	1	-6
680.109	1	-4
680.279	1	-8
680.448	1	-4
680.617	1	17
680.787	1	18
680.956	1	12
681.125	1	4
681.295	1	-1
681.464	1	2
681.634	1	10
681.803	1	6
681.972	1	8
682.142	1	3
682.311	1	-7
682.480	1	10
682.650	1	13
682.819	1	2
682.988	1	2
683.158	1	2
683.327	1	-3
683.496	1	-3
683.666	1	4
683.835	1	4
684.004	1	6
684.174	1	-2
684.343	1	1
684.512	1	21
684.682	1	3
684.851	1	6
685.021	1	14
685.190	1	4
685.359	1	7
685.529	1	11
685.698	1	12
685.867	1	2
686.037	1	4
686.206	1	0
686.375	1	17
686.545	1	3
686.714	1	12
686.883	1	6
687.053	1	10
687.222	1	3
687.391	1	3
687.561	1	-4
687.730	1	2
687.899	1	-6
688.069	1	6
688.238	1	17
688.407	1	7
688.577	1	12
688.746	1	-5
