340.368	1	4
340.539	1	1
340.710	1	4
340.881	1	-6
341.052	1	-2
341.223	1	7
341.394	1	-3
341.565	1	-3
341.737	1	17
341.908	1	4
342.079	1	8
342.250	1	0
342.421	1	1
342.592	1	13
342.763	1	1
342.934	1	3
343.105	1	3
343.276	1	3
343.447	1	-4
343.618	1	8
343.789	1	6
343.960	1	6
344.131	1	11
344.302	1	2
344.473	1	14
344.644	1	14
344.815	1	12
344.986	1	6
345.157	1	3
345.328	1	3
345.499	1	16
345.670	1	6
345.841	1	1
346.012	1	2
346.183	1	11
346.354	1	5
346.526	1	7
346.697	1	-1
346.868	1	12
347.039	1	13
347.210	1	12
347.381	1	15
347.552	1	10
347.723	1	5
347.894	1	5
348.065	1	7
348.236	1	4
348.407	1	8
348.578	1	11
348.749	1	9
348.920	1	0
349.091	1	17
349.262	1	11
349.433	1	18
349.604	1	3
349.775	1	0
349.946	1	18
350.117	1	12
350.288	1	6
350.459	1	14
350.630	1	7
350.801	1	15
350.972	1	23
351.143	1	19
351.314	1	-1
351.485	1	8
351.656	1	9
351.827	1	17
351.998	1	14
352.169	1	13
352.340	1	19
352.511	1	12
352.682	1	16
352.853	1	17
353.024	1	11
353.195	1	20
353.366	1	7
353.537	1	13
353.708	1	17
353.879	1	7
354.050	1	14
354.221	1	13
354.392	1	16
354.563	1	17
354.734	1	13
354.905	1	39
355.076	1	23
355.247	1	8
355.418	1	26
355.589	1	22
355.760	1	18
355.931	1	28
356.102	1	26
356.273	1	24
356.444	1	27
356.615	1	22
356.785	1	36
356.956	1	24
357.127	1	40
357.298	1	34
357.469	1	31
357.640	1	22
357.811	1	35
357.982	1	46
358.153	1	25
358.324	1	52
358.495	1	43
358.666	1	39
358.837	1	43
359.008	1	53
359.179	1	44
359.350	1	42
359.521	1	40
359.692	1	52
359.863	1	46
360.034	1	52
360.205	1	60
360.376	1	42
360.547	1	59
360.718	1	51
360.889	1	69
361.060	1	61
361.231	1	58
361.401	1	57
361.572	1	79
361.743	1	59
361.914	1	68
362.085	1	75
362.256	1	74
362.427	1	84
362.598	1	86
362.769	1	110
362.940	1	80
363.111	1	98
363.282	1	102
363.453	1	103
363.624	1	117
363.795	1	106
363.966	1	111
364.137	1	106
364.308	1	115
364.478	1	118
364.649	1	130
364.820	1	124
364.991	1	144
365.162	1	139
365.333	1	145
365.504	1	144
365.675	1	179
365.846	1	165
366.017	1	184
366.188	1	188
366.359	1	199
366.530	1	210
366.701	1	210
366.871	1	212
367.042	1	222
367.213	1	242
367.384	1	244
367.555	1	253
367.726	1	272
367.897	1	273
368.068	1	283
368.239	1	290
368.410	1	302
368.581	1	309
368.752	1	337
368.923	1	323
369.093	1	344
369.264	1	356
369.435	1	373
369.606	1	364
369.777	1	382
369.948	1	403
370.119	1	402
370.290	1	413
370.461	1	414
370.632	1	450
370.803	1	428
370.973	1	469
371.144	1	472
371.315	1	488
371.486	1	480
371.657	1	487
371.828	1	514
371.999	1	514
372.170	1	511
372.341	1	528
372.512	1	516
372.682	1	536
372.853	1	535
373.024	1	560
373.195	1	566
373.366	1	554
373.537	1	550
373.708	1	556
373.879	1	568
374.050	1	568
374.220	1	548
374.391	1	545
374.562	1	531
374.733	1	542
374.904	1	541
375.075	1	541
375.246	1	526
375.417	1	531
375.588	1	534
375.758	1	529
375.929	1	498
376.100	1	489
376.271	1	465
376.442	1	487
376.613	1	473
376.784	1	459
376.955	1	464
377.125	1	452
377.296	1	436
377.467	1	434
377.638	1	415
377.809	1	410
377.980	1	394
378.151	1	403
378.321	1	392
378.492	1	374
378.663	1	357
378.834	1	358
379.005	1	368
379.176	1	348
379.347	1	340
379.518	1	320
379.688	1	347
379.859	1	330
380.030	1	310
380.201	1	322
380.372	1	299
380.543	1	304
380.714	1	293
380.884	1	289
381.055	1	263
381.226	1	297
381.397	1	268
381.568	1	266
381.739	1	252
381.910	1	252
382.080	1	250
382.251	1	245
382.422	1	241
382.593	1	221
382.764	1	211
382.935	1	216
383.105	1	226
383.276	1	196
383.447	1	215
383.618	1	190
383.789	1	195
383.960	1	177
384.130	1	186
384.301	1	178
384.472	1	175
384.643	1	158
384.814	1	173
384.985	1	166
385.156	1	177
385.326	1	159
385.497	1	138
385.668	1	153
385.839	1	151
386.010	1	144
386.180	1	143
386.351	1	132
386.522	1	123
386.693	1	129
386.864	1	139
387.035	1	124
387.205	1	129
387.376	1	123
387.547	1	109
387.718	1	125
387.889	1	123
388.060	1	122
388.230	1	113
388.401	1	107
388.572	1	124
388.743	1	95
388.914	1	97
389.084	1	88
389.255	1	102
389.426	1	95
389.597	1	98
389.768	1	94
389.939	1	84
390.109	1	92
390.280	1	82
390.451	1	82
390.622	1	83
390.793	1	90
390.963	1	74
391.134	1	86
391.305	1	86
391.476	1	79
391.647	1	82
391.817	1	59
391.988	1	77
392.159	1	70
392.330	1	79
392.501	1	73
392.671	1	71
392.842	1	61
393.013	1	64
393.184	1	73
393.355	1	63
393.525	1	69
393.696	1	66
393.867	1	56
394.038	1	68
394.208	1	63
394.379	1	65
394.550	1	63
394.721	1	67
394.892	1	74
395.062	1	65
395.233	1	46
395.404	1	51
395.575	1	48
395.746	1	48
395.916	1	56
396.087	1	42
396.258	1	42
396.429	1	43
396.599	1	47
396.770	1	40
396.941	1	47
397.112	1	44
397.283	1	37
397.453	1	51
397.624	1	45
397.795	1	50
397.966	1	52
398.136	1	39
398.307	1	40
398.478	1	36
398.649	1	41
398.819	1	41
398.990	1	42
399.161	1	43
399.332	1	44
399.503	1	29
399.673	1	44
399.844	1	26
400.015	1	37
400.186	1	39
400.356	1	27
400.527	1	31
400.698	1	50
400.869	1	33
401.039	1	36
401.210	1	48
401.381	1	36
401.552	1	35
401.722	1	33
401.893	1	41
402.064	1	38
402.235	1	30
402.405	1	34
402.576	1	39
402.747	1	36
402.918	1	37
403.088	1	28
403.259	1	24
403.430	1	28
403.601	1	27
403.771	1	32
403.942	1	16
404.113	1	23
404.284	1	33
404.454	1	20
404.625	1	28
404.796	1	20
404.967	1	23
405.137	1	20
405.308	1	11
405.479	1	24
405.649	1	19
405.820	1	21
405.991	1	24
406.162	1	26
406.332	1	29
406.503	1	9
406.674	1	23
406.845	1	25
407.015	1	19
407.186	1	17
407.357	1	27
407.527	1	24
407.698	1	15
407.869	1	25
408.040	1	20
408.210	1	21
408.381	1	15
408.552	1	20
408.722	1	19
408.893	1	13
409.064	1	15
409.235	1	9
409.405	1	5
409.576	1	16
409.747	1	11
409.917	1	9
410.088	1	17
410.259	1	14
410.430	1	14
410.600	1	16
410.771	1	16
410.942	1	11
411.112	1	12
411.283	1	6
411.454	1	8
411.625	1	15
411.795	1	7
411.966	1	15
412.137	1	25
412.307	1	9
412.478	1	11
412.649	1	13
412.819	1	16
412.990	1	7
413.161	1	9
413.332	1	8
413.502	1	12
413.673	1	14
413.844	1	16
414.014	1	11
414.185	1	6
414.356	1	16
414.526	1	19
414.697	1	15
414.868	1	15
415.038	1	9
415.209	1	14
415.380	1	11
415.550	1	13
415.721	1	7
415.892	1	14
416.063	1	14
416.233	1	23
416.404	1	1
416.575	1	18
416.745	1	6
416.916	1	4
417.087	1	10
417.257	1	15
417.428	1	4
417.599	1	16
417.769	1	12
417.940	1	12
418.111	1	11
418.281	1	19
418.452	1	6
418.623	1	13
418.793	1	16
418.964	1	7
419.135	1	6
419.305	1	5
419.476	1	5
419.647	1	10
419.817	1	2
419.988	1	6
420.159	1	23
420.329	1	18
420.500	1	3
420.671	1	10
420.841	1	16
421.012	1	21
421.183	1	15
421.353	1	7
421.524	1	4
421.695	1	5
421.865	1	5
422.036	1	22
422.206	1	11
422.377	1	11
422.548	1	6
422.718	1	13
422.889	1	2
423.060	1	11
423.230	1	5
423.401	1	8
423.572	1	10
423.742	1	12
423.913	1	12
424.084	1	4
424.254	1	17
424.425	1	2
424.595	1	16
424.766	1	9
424.937	1	6
425.107	1	-3
425.278	1	10
425.449	1	8
425.619	1	7
425.790	1	11
425.961	1	1
426.131	1	5
426.302	1	10
426.472	1	3
426.643	1	7
426.814	1	14
426.984	1	13
427.155	1	7
427.326	1	11
427.496	1	11
427.667	1	12
427.837	1	10
428.008	1	8
428.179	1	-2
428.349	1	10
428.520	1	9
428.691	1	1
428.861	1	21
429.032	1	3
429.202	1	8
429.373	1	6
429.544	1	4
429.714	1	3
429.885	1	13
430.055	1	10
430.226	1	9
430.397	1	-4
430.567	1	14
430.738	1	13
430.909	1	3
431.079	1	7
431.250	1	5
431.420	1	14
431.591	1	5
431.762	1	15
431.932	1	18
432.103	1	20
432.273	1	11
432.444	1	-1
432.615	1	0
432.785	1	9
432.956	1	16
433.126	1	12
433.297	1	8
433.468	1	11
433.638	1	6
433.809	1	6
433.979	1	14
434.150	1	11
434.320	1	7
434.491	1	-3
434.662	1	-1
434.832	1	7
435.003	1	16
435.173	1	9
435.344	1	21
435.515	1	8
435.685	1	8
435.856	1	11
436.026	1	4
436.197	1	15
436.368	1	1
436.538	1	19
436.709	1	1
436.879	1	4
437.050	1	13
437.220	1	17
437.391	1	10
437.562	1	15
437.732	1	-1
437.903	1	9
438.073	1	-8
438.244	1	8
438.414	1	10
438.585	1	8
438.756	1	6
438.926	1	9
439.097	1	14
439.267	1	1
439.438	1	11
439.608	1	12
439.779	1	8
439.949	1	12
440.120	1	7
440.291	1	6
440.461	1	1
440.632	1	20
440.802	1	1
440.973	1	13
441.143	1	2
441.314	1	7
441.485	1	6
441.655	1	7
441.826	1	12
441.996	1	3
442.167	1	5
442.337	1	9
442.508	1	22
442.678	1	13
442.849	1	20
443.019	1	-7
443.190	1	8
443.361	1	2
443.531	1	6
443.702	1	9
443.872	1	7
444.043	1	3
444.213	1	10
444.384	1	9
444.554	1	-5
444.725	1	4
444.895	1	16
445.066	1	7
445.237	1	14
445.407	1	11
445.578	1	19
445.748	1	7
445.919	1	8
446.089	1	10
446.260	1	2
446.430	1	14
446.601	1	9
446.771	1	17
446.942	1	13
447.112	1	2
447.283	1	26
447.453	1	1
447.624	1	-2
447.794	1	10
447.965	1	-10
448.135	1	8
448.306	1	11
448.477	1	18
448.647	1	11
448.818	1	6
448.988	1	4
449.159	1	10
449.329	1	12
449.500	1	8
449.670	1	16
449.841	1	16
450.011	1	17
450.182	1	10
450.352	1	17
450.523	1	7
450.693	1	14
450.864	1	12
451.034	1	6
451.205	1	-1
451.375	1	-10
451.546	1	8
451.716	1	10
451.887	1	16
452.057	1	-5
452.228	1	15
452.398	1	4
452.569	1	11
452.739	1	11
452.910	1	-3
453.080	1	11
453.251	1	16
453.421	1	2
453.592	1	2
453.762	1	5
453.933	1	8
454.103	1	15
454.274	1	5
454.444	1	12
454.615	1	7
454.785	1	10
454.956	1	5
455.126	1	12
455.297	1	4
455.467	1	5
455.638	1	1
455.808	1	6
455.979	1	13
456.149	1	4
456.320	1	-2
456.490	1	12
456.661	1	5
456.831	1	6
457.001	1	12
457.172	1	0
457.342	1	-4
457.513	1	6
457.683	1	13
457.854	1	8
458.024	1	2
458.195	1	6
458.365	1	10
458.536	1	8
458.706	1	-2
458.877	1	12
459.047	1	7
459.218	1	5
459.388	1	10
459.559	1	12
459.729	1	12
459.899	1	1
460.070	1	10
460.240	1	19
460.411	1	9
460.581	1	3
460.752	1	11
460.922	1	18
461.093	1	0
461.263	1	5
461.434	1	8
461.604	1	-5
461.775	1	4
461.945	1	1
462.115	1	-2
462.286	1	18
462.456	1	16
462.627	1	13
462.797	1	12
462.968	1	14
463.138	1	11
463.309	1	2
463.479	1	9
463.649	1	-1
463.820	1	-2
463.990	1	12
464.161	1	1
464.331	1	4
464.502	1	17
464.672	1	7
464.843	1	18
465.013	1	13
465.183	1	-4
465.354	1	0
465.524	1	6
465.695	1	6
465.865	1	6
466.036	1	6
466.206	1	8
466.376	1	9
466.547	1	11
466.717	1	3
466.888	1	4
467.058	1	4
467.229	1	10
467.399	1	2
467.569	1	12
467.740	1	-6
467.910	1	1
468.081	1	-3
468.251	1	8
468.422	1	-4
468.592	1	8
468.762	1	9
468.933	1	9
469.103	1	-1
469.274	1	11
469.444	1	18
469.614	1	5
469.785	1	3
469.955	1	16
470.126	1	2
470.296	1	8
470.467	1	2
470.637	1	14
470.807	1	4
470.978	1	-7
471.148	1	18
471.319	1	-3
471.489	1	9
471.659	1	4
471.830	1	2
472.000	1	17
472.171	1	14
472.341	1	6
472.511	1	-3
472.682	1	17
472.852	1	11
473.023	1	-1
473.193	1	-3
473.363	1	8
473.534	1	-7
473.704	1	5
473.875	1	13
474.045	1	7
474.215	1	14
474.386	1	13
474.556	1	2
474.727	1	12
474.897	1	10
475.067	1	7
475.238	1	15
475.408	1	4
475.578	1	11
475.749	1	14
475.919	1	2
476.090	1	4
476.260	1	5
476.430	1	4
476.601	1	4
476.771	1	12
476.942	1	12
477.112	1	18
477.282	1	3
477.453	1	6
477.623	1	12
477.793	1	9
477.964	1	-2
478.134	1	12
478.305	1	6
478.475	1	-6
478.645	1	7
478.816	1	5
478.986	1	-2
479.156	1	6
479.327	1	-7
479.497	1	7
479.667	1	-2
479.838	1	7
480.008	1	5
480.179	1	-1
480.349	1	8
480.519	1	11
480.690	1	2
480.860	1	12
481.030	1	4
481.201	1	-11
481.371	1	9
481.541	1	9
481.712	1	17
481.882	1	4
482.053	1	9
482.223	1	3
482.393	1	9
482.564	1	-3
482.734	1	0
482.904	1	6
483.075	1	7
483.245	1	11
483.415	1	8
483.586	1	12
483.756	1	11
483.926	1	17
484.097	1	11
484.267	1	-6
484.437	1	5
484.608	1	4
484.778	1	9
484.948	1	-3
485.119	1	9
485.289	1	3
485.459	1	6
485.630	1	14
485.800	1	9
485.970	1	-3
486.141	1	6
486.311	1	8
486.481	1	-4
486.652	1	14
486.822	1	20
486.992	1	9
487.163	1	1
487.333	1	6
487.503	1	21
487.674	1	14
487.844	1	-5
488.014	1	-1
488.185	1	18
488.355	1	8
488.525	1	1
488.696	1	9
488.866	1	0
489.036	1	2
489.207	1	9
489.377	1	4
489.547	1	13
489.718	1	11
489.888	1	9
490.058	1	13
490.228	1	11
490.399	1	0
490.569	1	8
490.739	1	7
490.910	1	7
491.080	1	2
491.250	1	2
491.421	1	12
491.591	1	13
491.761	1	19
491.932	1	3
492.102	1	5
492.272	1	2
492.442	1	5
492.613	1	2
492.783	1	18
492.953	1	26
493.124	1	5
493.294	1	5
493.464	1	15
493.635	1	7
493.805	1	8
493.975	1	1
494.145	1	10
494.316	1	9
494.486	1	3
494.656	1	6
494.827	1	3
494.997	1	5
495.167	1	8
495.337	1	19
495.508	1	15
495.678	1	4
495.848	1	10
496.019	1	2
496.189	1	18
496.359	1	5
496.529	1	9
496.700	1	9
496.870	1	13
497.040	1	5
497.211	1	10
497.381	1	4
497.551	1	2
497.721	1	23
497.892	1	4
498.062	1	27
498.232	1	4
498.403	1	8
498.573	1	21
498.743	1	24
498.913	1	17
499.084	1	2
499.254	1	2
499.424	1	18
499.594	1	9
499.765	1	4
499.935	1	23
500.105	1	3
500.275	1	-1
500.446	1	9
500.616	1	9
500.786	1	7
500.956	1	8
501.127	1	6
501.297	1	14
501.467	1	-3
501.638	1	-1
501.808	1	-4
501.978	1	6
502.148	1	7
502.319	1	7
502.489	1	8
502.659	1	-2
502.829	1	14
503.000	1	6
503.170	1	14
503.340	1	17
503.510	1	7
503.681	1	4
503.851	1	2
504.021	1	13
504.191	1	6
504.362	1	3
504.532	1	1
504.702	1	13
504.872	1	6
505.042	1	4
505.213	1	12
505.383	1	3
505.553	1	13
505.723	1	6
505.894	1	8
506.064	1	19
506.234	1	24
506.404	1	8
506.575	1	0
506.745	1	8
506.915	1	16
507.085	1	10
507.256	1	4
507.426	1	13
507.596	1	15
507.766	1	12
507.936	1	3
508.107	1	12
508.277	1	1
508.447	1	5
508.617	1	8
508.788	1	9
508.958	1	17
509.128	1	9
509.298	1	5
509.468	1	15
509.639	1	8
509.809	1	15
509.979	1	18
510.149	1	12
510.319	1	3
510.490	1	11
510.660	1	20
510.830	1	8
511.000	1	10
511.171	1	0
511.341	1	11
511.511	1	21
511.681	1	10
511.851	1	19
512.022	1	8
512.192	1	4
512.362	1	11
512.532	1	12
512.702	1	4
512.873	1	15
513.043	1	18
513.213	1	4
513.383	1	12
513.553	1	4
513.724	1	18
513.894	1	7
514.064	1	12
514.234	1	11
514.404	1	12
514.575	1	15
514.745	1	2
514.915	1	0
515.085	1	13
515.255	1	19
515.425	1	3
515.596	1	1
515.766	1	13
515.936	1	21
516.106	1	11
516.276	1	13
516.447	1	12
516.617	1	11
516.787	1	10
516.957	1	17
517.127	1	7
517.297	1	7
517.468	1	11
517.638	1	11
517.808	1	20
517.978	1	21
518.148	1	17
518.319	1	15
518.489	1	14
518.659	1	26
518.829	1	6
518.999	1	-2
519.169	1	-1
519.340	1	13
519.510	1	5
519.680	1	19
519.850	1	15
520.020	1	26
520.190	1	13
520.361	1	24
520.531	1	8
520.701	1	9
520.871	1	8
521.041	1	4
521.211	1	6
521.382	1	7
521.552	1	20
521.722	1	26
521.892	1	10
522.062	1	8
522.232	1	16
522.402	1	14
522.573	1	4
522.743	1	12
522.913	1	7
523.083	1	11
523.253	1	4
523.423	1	25
523.593	1	-1
523.764	1	14
523.934	1	21
524.104	1	21
524.274	1	8
524.444	1	10
524.614	1	14
524.784	1	26
524.955	1	17
525.125	1	10
525.295	1	14
525.465	1	11
525.635	1	10
525.805	1	13
525.975	1	11
526.146	1	11
526.316	1	11
526.486	1	15
526.656	1	11
526.826	1	3
526.996	1	19
527.166	1	26
527.337	1	14
527.507	1	11
527.677	1	22
527.847	1	20
528.017	1	8
528.187	1	8
528.357	1	10
528.527	1	10
528.698	1	11
528.868	1	6
529.038	1	10
529.208	1	21
529.378	1	24
529.548	1	2
529.718	1	19
529.888	1	21
530.058	1	9
530.229	1	20
530.399	1	15
530.569	1	17
530.739	1	8
530.909	1	13
531.079	1	2
531.249	1	18
531.419	1	19
531.589	1	17
531.760	1	13
531.930	1	16
532.100	1	20
532.270	1	11
532.440	1	3
532.610	1	24
532.780	1	3
532.950	1	8
533.120	1	16
533.290	1	20
533.461	1	11
533.631	1	22
533.801	1	4
533.971	1	17
534.141	1	15
534.311	1	14
534.481	1	11
534.651	1	20
534.821	1	13
534.991	1	8
535.162	1	14
535.332	1	16
535.502	1	27
535.672	1	12
535.842	1	14
536.012	1	21
536.182	1	18
536.352	1	24
536.522	1	8
536.692	1	12
536.862	1	18
537.032	1	18
537.203	1	19
537.373	1	17
537.543	1	21
537.713	1	9
537.883	1	16
538.053	1	16
538.223	1	15
538.393	1	10
538.563	1	12
538.733	1	15
538.903	1	18
539.073	1	8
539.243	1	11
539.413	1	15
539.584	1	21
539.754	1	11
539.924	1	21
540.094	1	8
540.264	1	14
540.434	1	13
540.604	1	19
540.774	1	29
540.944	1	24
541.114	1	16
541.284	1	13
541.454	1	10
541.624	1	5
541.794	1	26
541.964	1	12
542.134	1	6
542.305	1	16
542.475	1	20
542.645	1	17
542.815	1	21
542.985	1	24
543.155	1	11
543.325	1	6
543.495	1	26
543.665	1	23
543.835	1	12
544.005	1	6
544.175	1	11
544.345	1	15
544.515	1	11
544.685	1	13
544.855	1	20
545.025	1	20
545.195	1	25
545.365	1	12
545.535	1	22
545.705	1	13
545.875	1	20
546.045	1	6
546.216	1	17
546.386	1	15
546.556	1	25
546.726	1	15
546.896	1	20
547.066	1	10
547.236	1	15
547.406	1	6
547.576	1	20
547.746	1	21
547.916	1	23
548.086	1	16
548.256	1	20
548.426	1	14
548.596	1	15
548.766	1	16
548.936	1	2
549.106	1	21
549.276	1	15
549.446	1	24
549.616	1	18
549.786	1	29
549.956	1	24
550.126	1	26
550.296	1	23
550.466	1	12
550.636	1	27
550.806	1	15
550.976	1	8
551.146	1	41
551.316	1	32
551.486	1	17
551.656	1	17
551.826	1	28
551.996	1	27
552.166	1	18
552.336	1	24
552.506	1	21
552.676	1	19
552.846	1	20
553.016	1	26
553.186	1	21
553.356	1	19
553.526	1	33
553.696	1	32
553.866	1	27
554.036	1	22
554.206	1	16
554.376	1	35
554.546	1	6
554.716	1	4
554.886	1	24
555.056	1	19
555.226	1	24
555.396	1	16
555.566	1	32
555.736	1	19
555.906	1	17
556.076	1	29
556.246	1	17
556.416	1	29
556.586	1	19
556.756	1	16
556.926	1	35
557.096	1	22
557.266	1	16
557.436	1	15
557.606	1	16
557.776	1	16
557.946	1	7
558.116	1	22
558.286	1	30
558.456	1	15
558.626	1	41
558.796	1	21
558.966	1	19
559.136	1	24
559.306	1	32
559.476	1	9
559.646	1	17
559.816	1	7
559.986	1	26
560.155	1	5
560.325	1	19
560.495	1	25
560.665	1	16
560.835	1	17
561.005	1	17
561.175	1	11
561.345	1	13
561.515	1	20
561.685	1	16
561.855	1	19
562.025	1	32
562.195	1	21
562.365	1	23
562.535	1	21
562.705	1	19
562.875	1	23
563.045	1	17
563.215	1	17
563.385	1	37
563.555	1	32
563.725	1	15
563.895	1	44
564.064	1	37
564.234	1	23
564.404	1	13
564.574	1	30
564.744	1	22
564.914	1	12
565.084	1	19
565.254	1	15
565.424	1	26
565.594	1	18
565.764	1	20
565.934	1	31
566.104	1	15
566.274	1	9
566.444	1	24
566.614	1	15
566.783	1	17
566.953	1	20
567.123	1	12
567.293	1	35
567.463	1	28
567.633	1	16
567.803	1	21
567.973	1	22
568.143	1	15
568.313	1	18
568.483	1	17
568.653	1	18
568.823	1	18
568.993	1	27
569.162	1	29
569.332	1	15
569.502	1	22
569.672	1	23
569.842	1	23
570.012	1	19
570.182	1	20
570.352	1	29
570.522	1	31
570.692	1	36
570.862	1	26
571.031	1	28
571.201	1	36
571.371	1	10
571.541	1	24
571.711	1	23
571.881	1	21
572.051	1	23
572.221	1	18
572.391	1	11
572.561	1	19
572.731	1	17
572.900	1	22
573.070	1	22
573.240	1	29
573.410	1	22
573.580	1	26
573.750	1	30
573.920	1	19
574.090	1	30
574.260	1	27
574.430	1	27
574.599	1	23
574.769	1	21
574.939	1	26
575.109	1	15
575.279	1	7
575.449	1	22
575.619	1	21
575.789	1	12
575.959	1	22
576.128	1	27
576.298	1	22
576.468	1	22
576.638	1	18
576.808	1	28
576.978	1	30
577.148	1	9
577.318	1	21
577.487	1	25
577.657	1	24
577.827	1	28
577.997	1	27
578.167	1	28
578.337	1	20
578.507	1	24
578.677	1	17
578.846	1	27
579.016	1	19
579.186	1	23
579.356	1	14
579.526	1	20
579.696	1	13
579.866	1	19
580.036	1	33
580.205	1	18
580.375	1	15
580.545	1	26
580.715	1	17
580.885	1	25
581.055	1	12
581.225	1	13
581.394	1	15
581.564	1	10
581.734	1	13
581.904	1	28
582.074	1	24
582.244	1	28
582.414	1	38
582.583	1	22
582.753	1	9
582.923	1	26
583.093	1	32
583.263	1	11
583.433	1	19
583.603	1	32
583.772	1	18
583.942	1	37
584.112	1	36
584.282	1	23
584.452	1	27
584.622	1	29
584.791	1	24
584.961	1	27
585.131	1	28
585.301	1	24
585.471	1	22
585.641	1	34
585.811	1	33
585.980	1	26
586.150	1	18
586.320	1	23
586.490	1	18
586.660	1	15
586.830	1	28
586.999	1	17
587.169	1	16
587.339	1	29
587.509	1	22
587.679	1	22
587.849	1	23
588.018	1	13
588.188	1	7
588.358	1	14
588.528	1	11
588.698	1	19
588.867	1	20
589.037	1	17
589.207	1	21
589.377	1	33
589.547	1	21
589.717	1	22
589.886	1	20
590.056	1	11
590.226	1	30
590.396	1	32
590.566	1	16
590.735	1	18
590.905	1	26
591.075	1	20
591.245	1	34
591.415	1	27
591.585	1	18
591.754	1	15
591.924	1	16
592.094	1	17
592.264	1	27
592.434	1	29
592.603	1	14
592.773	1	41
592.943	1	5
593.113	1	3
593.283	1	13
593.452	1	16
593.622	1	20
593.792	1	16
593.962	1	22
594.132	1	24
594.301	1	12
594.471	1	18
594.641	1	26
594.811	1	-3
594.981	1	10
595.150	1	19
595.320	1	15
595.490	1	13
595.660	1	18
595.829	1	27
595.999	1	6
596.169	1	14
596.339	1	19
596.509	1	20
596.678	1	4
596.848	1	28
597.018	1	25
597.188	1	3
597.358	1	17
597.527	1	24
597.697	1	9
597.867	1	22
598.037	1	14
598.206	1	13
598.376	1	22
598.546	1	27
598.716	1	19
598.885	1	28
599.055	1	28
599.225	1	28
599.395	1	18
599.565	1	26
599.734	1	18
599.904	1	31
600.074	1	29
600.244	1	22
600.413	1	21
600.583	1	17
600.753	1	10
600.923	1	20
601.092	1	19
601.262	1	12
601.432	1	31
601.602	1	15
601.771	1	17
601.941	1	25
602.111	1	9
602.281	1	20
602.451	1	13
602.620	1	12
602.790	1	10
602.960	1	14
603.130	1	16
603.299	1	23
603.469	1	14
603.639	1	20
603.809	1	32
603.978	1	19
604.148	1	18
604.318	1	29
604.487	1	18
604.657	1	19
604.827	1	26
604.997	1	28
605.166	1	10
605.336	1	13
605.506	1	9
605.676	1	7
605.845	1	9
606.015	1	15
606.185	1	30
606.355	1	28
606.524	1	24
606.694	1	20
606.864	1	15
607.034	1	17
607.203	1	19
607.373	1	20
607.543	1	19
607.712	1	22
607.882	1	13
608.052	1	26
608.222	1	20
608.391	1	32
608.561	1	35
608.731	1	26
608.901	1	12
609.070	1	33
609.240	1	19
609.410	1	16
609.579	1	17
609.749	1	4
609.919	1	21
610.089	1	30
610.258	1	23
610.428	1	23
610.598	1	26
610.767	1	11
610.937	1	28
611.107	1	21
611.277	1	17
611.446	1	19
611.616	1	36
611.786	1	19
611.955	1	25
612.125	1	11
612.295	1	25
612.465	1	13
612.634	1	25
612.804	1	16
612.974	1	14
613.143	1	17
613.313	1	9
613.483	1	23
613.652	1	23
613.822	1	11
613.992	1	21
614.162	1	17
614.331	1	14
614.501	1	16
614.671	1	26
614.840	1	22
615.010	1	7
615.180	1	15
615.349	1	16
615.519	1	21
615.689	1	26
615.858	1	12
616.028	1	6
616.198	1	24
616.368	1	16
616.537	1	13
616.707	1	23
616.877	1	10
617.046	1	15
617.216	1	18
617.386	1	14
617.555	1	10
617.725	1	4
617.895	1	17
618.064	1	18
618.234	1	13
618.404	1	10
618.573	1	32
618.743	1	22
618.913	1	18
619.082	1	21
619.252	1	26
619.422	1	8
619.591	1	24
619.761	1	7
619.931	1	16
620.100	1	21
620.270	1	7
620.440	1	16
620.609	1	21
620.779	1	20
620.949	1	13
621.118	1	5
621.288	1	9
621.458	1	15
621.627	1	19
621.797	1	17
621.967	1	27
622.136	1	4
622.306	1	11
622.476	1	25
622.645	1	9
622.815	1	14
622.985	1	18
623.154	1	15
623.324	1	16
623.494	1	20
623.663	1	20
623.833	1	14
624.002	1	8
624.172	1	11
624.342	1	5
624.511	1	11
624.681	1	9
624.851	1	24
625.020	1	9
625.190	1	21
625.360	1	7
625.529	1	14
625.699	1	14
625.869	1	11
626.038	1	8
626.208	1	17
626.377	1	30
626.547	1	15
626.717	1	15
626.886	1	25
627.056	1	8
627.226	1	8
627.395	1	12
627.565	1	23
627.735	1	17
627.904	1	6
628.074	1	13
628.243	1	17
628.413	1	7
628.583	1	6
628.752	1	14
628.922	1	14
629.091	1	9
629.261	1	14
629.431	1	10
629.600	1	24
629.770	1	11
629.940	1	11
630.109	1	16
630.279	1	8
630.448	1	14
630.618	1	26
630.788	1	10
630.957	1	10
631.127	1	21
631.297	1	6
631.466	1	17
631.636	1	5
631.805	1	22
631.975	1	18
632.145	1	18
632.314	1	10
632.484	1	13
632.653	1	15
632.823	1	24
632.993	1	11
633.162	1	13
633.332	1	14
633.501	1	1
633.671	1	14
633.841	1	24
634.010	1	30
634.180	1	11
634.349	1	24
634.519	1	3
634.689	1	16
634.858	1	0
635.028	1	25
635.197	1	14
635.367	1	4
635.537	1	7
635.706	1	16
635.876	1	15
636.045	1	11
636.215	1	24
636.384	1	20
636.554	1	17
636.724	1	20
636.893	1	5
637.063	1	8
637.232	1	16
637.402	1	7
637.572	1	16
637.741	1	10
637.911	1	18
638.080	1	15
638.250	1	14
638.419	1	7
638.589	1	12
638.759	1	9
638.928	1	11
639.098	1	3
639.267	1	10
639.437	1	6
639.606	1	22
639.776	1	12
639.946	1	11
640.115	1	14
640.285	1	6
640.454	1	7
640.624	1	15
640.793	1	15
640.963	1	18
641.132	1	8
641.302	1	26
641.472	1	10
641.641	1	8
641.811	1	14
641.980	1	9
642.150	1	14
642.319	1	15
642.489	1	17
642.659	1	14
642.828	1	12
642.998	1	9
643.167	1	12
643.337	1	7
643.506	1	9
643.676	1	16
643.845	1	14
644.015	1	14
644.184	1	22
644.354	1	19
644.524	1	13
644.693	1	2
644.863	1	14
645.032	1	8
645.202	1	-1
645.371	1	17
645.541	1	22
645.710	1	24
645.880	1	8
646.049	1	10
646.219	1	13
646.388	1	9
646.558	1	10
646.728	1	12
646.897	1	6
647.067	1	7
647.236	1	20
647.406	1	7
647.575	1	9
647.745	1	6
647.914	1	20
648.084	1	-1
648.253	1	15
648.423	1	10
648.592	1	10
648.762	1	18
648.931	1	24
649.101	1	12
649.270	1	11
649.440	1	7
649.610	1	11
649.779	1	11
649.949	1	2
650.118	1	16
650.288	1	14
650.457	1	19
650.627	1	13
650.796	1	17
650.966	1	2
651.135	1	25
651.305	1	13
651.474	1	12
651.644	1	0
651.813	1	3
651.983	1	15
652.152	1	14
652.322	1	6
652.491	1	25
652.661	1	17
652.830	1	15
653.000	1	13
653.169	1	19
653.339	1	10
653.508	1	14
653.678	1	20
653.847	1	24
654.017	1	11
654.186	1	14
654.356	1	13
654.525	1	18
654.695	1	9
654.864	1	6
655.034	1	15
655.203	1	9
655.373	1	26
655.542	1	21
655.712	1	7
655.881	1	16
656.051	1	9
656.220	1	24
656.390	1	11
656.559	1	20
656.729	1	2
656.898	1	8
657.068	1	12
657.237	1	18
657.406	1	9
657.576	1	12
657.745	1	12
657.915	1	11
658.084	1	12
658.254	1	13
658.423	1	18
658.593	1	10
658.762	1	4
658.932	1	7
659.101	1	3
659.271	1	11
659.440	1	18
659.610	1	12
659.779	1	12
659.949	1	3
660.118	1	16
660.288	1	15
660.457	1	4
660.626	1	7
660.796	1	12
660.965	1	21
661.135	1	8
661.304	1	11
661.474	1	18
661.643	1	12
661.813	1	10
661.982	1	5
662.152	1	4
662.321	1	11
662.491	1	17
662.660	1	5
662.829	1	5
662.999	1	10
663.168	1	2
663.338	1	15
663.507	1	3
663.677	1	18
663.846	1	13
664.016	1	-2
664.185	1	11
664.354	1	1
664.524	1	3
664.693	1	19
664.863	1	-2
665.032	1	14
665.202	1	15
665.371	1	10
665.541	1	12
665.710	1	5
665.879	1	7
666.049	1	11
666.218	1	9
666.388	1	20
666.557	1	7
666.727	1	18
666.896	1	9
667.065	1	9
667.235	1	5
667.404	1	9
667.574	1	17
667.743	1	1
667.913	1	6
668.082	1	10
668.251	1	8
668.421	1	10
668.590	1	16
668.760	1	15
668.929	1	19
669.099	1	8
669.268	1	10
669.437	1	9
669.607	1	6
669.776	1	6
669.946	1	7
670.115	1	6
670.285	1	-1
670.454	1	9
670.623	1	5
670.793	1	13
670.962	1	12
671.132	1	3
671.301	1	11
671.470	1	15
671.640	1	3
671.809	1	26
671.979	1	19
672.148	1	16
672.317	1	6
672.487	1	14
672.656	1	20
672.826	1	14
672.995	1	-2
673.164	1	11
673.334	1	8
673.503	1	7
673.673	1	5
673.842	1	3
674.011	1	18
674.181	1	-8
674.350	1	11
674.520	1	15
674.689	1	11
674.858	1	5
675.028	1	26
675.197	1	14
675.367	1	9
675.536	1	5
675.705	1	12
675.875	1	20
676.044	1	5
676.214	1	2
676.383	1	20
676.552	1	5
676.722	1	10
676.891	1	6
677.060	1	2
677.230	1	2
677.399	1	6
677.569	1	15
677.738	1	5
677.907	1	16
678.077	1	3
678.246	1	12
678.416	1	4
678.585	1	-3
678.754	1	12
678.924	1	8
679.093	1	16
679.262	1	9
679.432	1	15
679.601	1	10
679.771	1	7
679.940	1	7
680.109	1	4
680.279	1	15
680.448	1	7
680.617	1	16
680.787	1	16
680.956	1	17
681.125	1	6
681.295	1	9
681.464	1	19
681.634	1	13
681.803	1	20
681.972	1	13
682.142	1	6
682.311	1	4
682.480	1	12
682.650	1	12
682.819	1	9
682.988	1	18
683.158	1	6
683.327	1	23
683.496	1	7
683.666	1	17
683.835	1	19
684.004	1	16
684.174	1	14
684.343	1	4
684.512	1	25
684.682	1	12
684.851	1	16
685.021	1	20
685.190	1	13
685.359	1	12
685.529	1	13
685.698	1	21
685.867	1	18
686.037	1	23
686.206	1	16
686.375	1	16
686.545	1	7
686.714	1	16
686.883	1	15
687.053	1	23
687.222	1	4
687.391	1	12
687.561	1	10
687.730	1	5
687.899	1	7
688.069	1	17
688.238	1	19
688.407	1	10
688.577	1	18
688.746	1	2
