340.368	1	5
340.539	1	-3
340.710	1	8
340.881	1	-2
341.052	1	-10
341.223	1	2
341.394	1	-1
341.565	1	-2
341.737	1	1
341.908	1	7
342.079	1	11
342.250	1	0
342.421	1	0
342.592	1	7
342.763	1	-7
342.934	1	1
343.105	1	-9
343.276	1	-1
343.447	1	0
343.618	1	-13
343.789	1	0
343.960	1	6
344.131	1	4
344.302	1	5
344.473	1	10
344.644	1	9
344.815	1	-5
344.986	1	4
345.157	1	12
345.328	1	13
345.499	1	14
345.670	1	3
345.841	1	-1
346.012	1	4
346.183	1	-5
346.354	1	5
346.526	1	3
346.697	1	4
346.868	1	8
347.039	1	4
347.210	1	5
347.381	1	14
347.552	1	14
347.723	1	14
347.894	1	0
348.065	1	2
348.236	1	-8
348.407	1	0
348.578	1	9
348.749	1	-1
348.920	1	7
349.091	1	10
349.262	1	12
349.433	1	12
349.604	1	6
349.775	1	-4
349.946	1	5
350.117	1	6
350.288	1	-4
350.459	1	2
350.630	1	-1
350.801	1	9
350.972	1	19
351.143	1	11
351.314	1	-2
351.485	1	-1
351.656	1	8
351.827	1	2
351.998	1	8
352.169	1	9
352.340	1	12
352.511	1	4
352.682	1	13
352.853	1	9
353.024	1	12
353.195	1	6
353.366	1	8
353.537	1	1
353.708	1	7
353.879	1	2
354.050	1	-1
354.221	1	5
354.392	1	-9
354.563	1	9
354.734	1	2
354.905	1	15
355.076	1	8
355.247	1	6
355.418	1	0
355.589	1	-7
355.760	1	5
355.931	1	10
356.102	1	9
356.273	1	7
356.444	1	12
356.615	1	4
356.785	1	3
356.956	1	11
357.127	1	9
357.298	1	9
357.469	1	6
357.640	1	11
357.811	1	11
357.982	1	14
358.153	1	2
358.324	1	14
358.495	1	14
358.666	1	15
358.837	1	11
359.008	1	17
359.179	1	11
359.350	1	6
359.521	1	7
359.692	1	5
359.863	1	1
360.034	1	12
360.205	1	23
360.376	1	9
360.547	1	17
360.718	1	4
360.889	1	21
361.060	1	18
361.231	1	20
361.401	1	10
361.572	1	15
361.743	1	13
361.914	1	14
362.085	1	15
362.256	1	19
362.427	1	16
362.598	1	25
362.769	1	19
362.940	1	10
363.111	1	38
363.282	1	19
363.453	1	14
363.624	1	40
363.795	1	29
363.966	1	27
364.137	1	26
364.308	1	23
364.478	1	30
364.649	1	34
364.820	1	25
364.991	1	27
365.162	1	39
365.333	1	34
365.504	1	30
365.675	1	37
365.846	1	47
366.017	1	50
366.188	1	42
366.359	1	37
366.530	1	34
366.701	1	48
366.871	1	45
367.042	1	40
367.213	1	39
367.384	1	40
367.555	1	41
367.726	1	53
367.897	1	54
368.068	1	43
368.239	1	45
368.410	1	45
368.581	1	51
368.752	1	49
368.923	1	49
369.093	1	62
369.264	1	56
369.435	1	62
369.606	1	53
369.777	1	53
369.948	1	59
370.119	1	54
370.290	1	67
370.461	1	69
370.632	1	54
370.803	1	56
370.973	1	52
371.144	1	60
371.315	1	64
371.486	1	54
371.657	1	59
371.828	1	68
371.999	1	76
372.170	1	66
372.341	1	65
372.512	1	73
372.682	1	55
372.853	1	68
373.024	1	85
373.195	1	80
373.366	1	59
373.537	1	84
373.708	1	69
373.879	1	70
374.050	1	83
374.220	1	66
374.391	1	70
374.562	1	68
374.733	1	67
374.904	1	70
375.075	1	68
375.246	1	67
375.417	1	73
375.588	1	65
375.758	1	80
375.929	1	56
376.100	1	63
376.271	1	58
376.442	1	65
376.613	1	59
376.784	1	72
376.955	1	51
377.125	1	73
377.296	1	58
377.467	1	54
377.638	1	56
377.809	1	62
377.980	1	52
378.151	1	58
378.321	1	56
378.492	1	52
378.663	1	54
378.834	1	55
379.005	1	48
379.176	1	53
379.347	1	44
379.518	1	44
379.688	1	59
379.859	1	49
380.030	1	51
380.201	1	52
380.372	1	39
380.543	1	60
380.714	1	54
380.884	1	56
381.055	1	37
381.226	1	35
381.397	1	36
381.568	1	33
381.739	1	37
381.910	1	41
382.080	1	54
382.251	1	36
382.422	1	50
382.593	1	41
382.764	1	45
382.935	1	40
383.105	1	38
383.276	1	27
383.447	1	43
383.618	1	30
383.789	1	49
383.960	1	29
384.130	1	32
384.301	1	36
384.472	1	21
384.643	1	33
384.814	1	32
384.985	1	43
385.156	1	37
385.326	1	24
385.497	1	23
385.668	1	37
385.839	1	23
386.010	1	44
386.180	1	12
386.351	1	25
386.522	1	20
386.693	1	22
386.864	1	18
387.035	1	33
387.205	1	23
387.376	1	25
387.547	1	29
387.718	1	25
387.889	1	35
388.060	1	30
388.230	1	24
388.401	1	19
388.572	1	24
388.743	1	22
388.914	1	35
389.084	1	20
389.255	1	23
389.426	1	17
389.597	1	22
389.768	1	33
389.939	1	30
390.109	1	10
390.280	1	10
390.451	1	19
390.622	1	17
390.793	1	15
390.963	1	21
391.134	1	7
391.305	1	24
391.476	1	21
391.647	1	11
391.817	1	15
391.988	1	8
392.159	1	23
392.330	1	16
392.501	1	18
392.671	1	13
392.842	1	1
393.013	1	25
393.184	1	9
393.355	1	12
393.525	1	13
393.696	1	11
393.867	1	15
394.038	1	12
394.208	1	13
394.379	1	9
394.550	1	15
394.721	1	13
394.892	1	17
395.062	1	13
395.233	1	5
395.404	1	18
395.575	1	16
395.746	1	14
395.916	1	24
396.087	1	9
396.258	1	12
396.429	1	18
396.599	1	8
396.770	1	21
396.941	1	8
397.112	1	14
397.283	1	15
397.453	1	12
397.624	1	13
397.795	1	17
397.966	1	21
398.136	1	11
398.307	1	9
398.478	1	13
398.649	1	4
398.819	1	10
398.990	1	7
399.161	1	21
399.332	1	17
399.503	1	5
399.673	1	8
399.844	1	5
400.015	1	15
400.186	1	10
400.356	1	12
400.527	1	6
400.698	1	14
400.869	1	3
401.039	1	16
401.210	1	26
401.381	1	13
401.552	1	9
401.722	1	6
401.893	1	-1
402.064	1	10
402.235	1	15
402.405	1	11
402.576	1	10
402.747	1	13
402.918	1	11
403.088	1	-1
403.259	1	9
403.430	1	14
403.601	1	12
403.771	1	14
403.942	1	7
404.113	1	2
404.284	1	9
404.454	1	17
404.625	1	11
404.796	1	15
404.967	1	11
405.137	1	5
405.308	1	10
405.479	1	4
405.649	1	7
405.820	1	1
405.991	1	14
406.162	1	13
406.332	1	5
406.503	1	-6
406.674	1	9
406.845	1	8
407.015	1	6
407.186	1	3
407.357	1	8
407.527	1	2
407.698	1	-1
407.869	1	5
408.040	1	6
408.210	1	5
408.381	1	4
408.552	1	10
408.722	1	1
408.893	1	11
409.064	1	10
409.235	1	9
409.405	1	-4
409.576	1	15
409.747	1	-3
409.917	1	1
410.088	1	11
410.259	1	-2
410.430	1	7
410.600	1	14
410.771	1	7
410.942	1	-4
411.112	1	12
411.283	1	5
411.454	1	-3
411.625	1	3
411.795	1	3
411.966	1	10
412.137	1	5
412.307	1	5
412.478	1	6
412.649	1	10
412.819	1	12
412.990	1	-6
413.161	1	10
413.332	1	12
413.502	1	-6
413.673	1	5
413.844	1	7
414.014	1	14
414.185	1	-6
414.356	1	9
414.526	1	15
414.697	1	10
414.868	1	5
415.038	1	-3
415.209	1	12
415.380	1	-1
415.550	1	11
415.721	1	0
415.892	1	10
416.063	1	7
416.233	1	16
416.404	1	2
416.575	1	12
416.745	1	4
416.916	1	7
417.087	1	4
417.257	1	3
417.428	1	2
417.599	1	5
417.769	1	8
417.940	1	7
418.111	1	13
418.281	1	7
418.452	1	1
418.623	1	-1
418.793	1	11
418.964	1	-2
419.135	1	-3
419.305	1	9
419.476	1	4
419.647	1	-7
419.817	1	-7
419.988	1	2
420.159	1	9
420.329	1	3
420.500	1	-3
420.671	1	9
420.841	1	11
421.012	1	7
421.183	1	4
421.353	1	-5
421.524	1	2
421.695	1	5
421.865	1	8
422.036	1	12
422.206	1	7
422.377	1	7
422.548	1	3
422.718	1	8
422.889	1	-4
423.060	1	-5
423.230	1	11
423.401	1	7
423.572	1	7
423.742	1	3
423.913	1	5
424.084	1	9
424.254	1	5
424.425	1	-2
424.595	1	6
424.766	1	-3
424.937	1	0
425.107	1	1
425.278	1	4
425.449	1	4
425.619	1	-4
425.790	1	2
425.961	1	5
426.131	1	8
426.302	1	10
426.472	1	3
426.643	1	2
426.814	1	4
426.984	1	-3
427.155	1	4
427.326	1	11
427.496	1	7
427.667	1	2
427.837	1	-1
428.008	1	7
428.179	1	-1
428.349	1	-5
428.520	1	3
428.691	1	2
428.861	1	14
429.032	1	-4
429.202	1	0
429.373	1	-7
429.544	1	9
429.714	1	-2
429.885	1	10
430.055	1	6
430.226	1	8
430.397	1	-2
430.567	1	9
430.738	1	7
430.909	1	2
431.079	1	9
431.250	1	1
431.420	1	4
431.591	1	2
431.762	1	-5
431.932	1	6
432.103	1	21
432.273	1	-4
432.444	1	-8
432.615	1	5
432.785	1	4
432.956	1	15
433.126	1	4
433.297	1	-4
433.468	1	-1
433.638	1	-7
433.809	1	5
433.979	1	10
434.150	1	21
434.320	1	7
434.491	1	6
434.662	1	-3
434.832	1	7
435.003	1	4
435.173	1	9
435.344	1	9
435.515	1	2
435.685	1	6
435.856	1	17
436.026	1	13
436.197	1	16
436.368	1	-5
436.538	1	-3
436.709	1	2
436.879	1	-6
437.050	1	12
437.220	1	19
437.391	1	12
437.562	1	12
437.732	1	-4
437.903	1	14
438.073	1	-7
438.244	1	3
438.414	1	7
438.585	1	9
438.756	1	4
438.926	1	5
439.097	1	0
439.267	1	3
439.438	1	7
439.608	1	14
439.779	1	9
439.949	1	11
440.120	1	-1
440.291	1	20
440.461	1	-2
440.632	1	4
440.802	1	10
440.973	1	14
441.143	1	-1
441.314	1	4
441.485	1	3
441.655	1	8
441.826	1	0
441.996	1	8
442.167	1	-4
442.337	1	8
442.508	1	9
442.678	1	12
442.849	1	10
443.019	1	7
443.190	1	5
443.361	1	-2
443.531	1	11
443.702	1	10
443.872	1	6
444.043	1	3
444.213	1	6
444.384	1	-3
444.554	1	-13
444.725	1	2
444.895	1	12
445.066	1	0
445.237	1	9
445.407	1	7
445.578	1	11
445.748	1	3
445.919	1	8
446.089	1	3
446.260	1	1
446.430	1	10
446.601	1	6
446.771	1	9
446.942	1	6
447.112	1	10
447.283	1	18
447.453	1	-4
447.624	1	-1
447.794	1	8
447.965	1	2
448.135	1	8
448.306	1	7
448.477	1	1
448.647	1	13
448.818	1	9
448.988	1	-2
449.159	1	-3
449.329	1	5
449.500	1	3
449.670	1	4
449.841	1	7
450.011	1	6
450.182	1	7
450.352	1	3
450.523	1	10
450.693	1	1
450.864	1	12
451.034	1	12
451.205	1	7
451.375	1	7
451.546	1	3
451.716	1	-3
451.887	1	9
452.057	1	-2
452.228	1	10
452.398	1	-4
452.569	1	3
452.739	1	10
452.910	1	6
453.080	1	5
453.251	1	13
453.421	1	3
453.592	1	1
453.762	1	7
453.933	1	4
454.103	1	6
454.274	1	-9
454.444	1	11
454.615	1	-4
454.785	1	2
454.956	1	0
455.126	1	10
455.297	1	1
455.467	1	3
455.638	1	-2
455.808	1	10
455.979	1	-3
456.149	1	5
456.320	1	-4
456.490	1	-4
456.661	1	9
456.831	1	0
457.001	1	6
457.172	1	10
457.342	1	9
457.513	1	0
457.683	1	10
457.854	1	5
458.024	1	10
458.195	1	1
458.365	1	-2
458.536	1	3
458.706	1	4
458.877	1	10
459.047	1	-8
459.218	1	6
459.388	1	1
459.559	1	12
459.729	1	16
459.899	1	1
460.070	1	11
460.240	1	15
460.411	1	-1
460.581	1	7
460.752	1	9
460.922	1	9
461.093	1	4
461.263	1	5
461.434	1	7
461.604	1	-1
461.775	1	3
461.945	1	2
462.115	1	1
462.286	1	4
462.456	1	13
462.627	1	9
462.797	1	6
462.968	1	7
463.138	1	10
463.309	1	-3
463.479	1	3
463.649	1	-1
463.820	1	-15
463.990	1	9
464.161	1	0
464.331	1	-2
464.502	1	8
464.672	1	13
464.843	1	9
465.013	1	4
465.183	1	-7
465.354	1	0
465.524	1	3
465.695	1	5
465.865	1	-1
466.036	1	5
466.206	1	0
466.376	1	3
466.547	1	-5
466.717	1	-1
466.888	1	6
467.058	1	3
467.229	1	10
467.399	1	4
467.569	1	26
467.740	1	-8
467.910	1	-2
468.081	1	11
468.251	1	10
468.422	1	-3
468.592	1	6
468.762	1	17
468.933	1	10
469.103	1	-3
469.274	1	7
469.444	1	14
469.614	1	6
469.785	1	-7
469.955	1	9
470.126	1	4
470.296	1	-12
470.467	1	8
470.637	1	7
470.807	1	9
470.978	1	-5
471.148	1	24
471.319	1	5
471.489	1	11
471.659	1	4
471.830	1	4
472.000	1	7
472.171	1	10
472.341	1	0
472.511	1	0
472.682	1	11
472.852	1	5
473.023	1	-1
473.193	1	0
473.363	1	3
473.534	1	-8
473.704	1	9
473.875	1	7
474.045	1	2
474.215	1	15
474.386	1	12
474.556	1	0
474.727	1	12
474.897	1	2
475.067	1	2
475.238	1	-4
475.408	1	8
475.578	1	1
475.749	1	14
475.919	1	4
476.090	1	8
476.260	1	2
476.430	1	7
476.601	1	-1
476.771	1	3
476.942	1	-2
477.112	1	3
477.282	1	1
477.453	1	5
477.623	1	1
477.793	1	4
477.964	1	0
478.134	1	3
478.305	1	3
478.475	1	-8
478.645	1	-1
478.816	1	19
478.986	1	-2
479.156	1	-5
479.327	1	-15
479.497	1	3
479.667	1	-4
479.838	1	10
480.008	1	-4
480.179	1	9
480.349	1	3
480.519	1	-2
480.690	1	10
480.860	1	2
481.030	1	-1
481.201	1	0
481.371	1	18
481.541	1	-3
481.712	1	10
481.882	1	3
482.053	1	5
482.223	1	4
482.393	1	0
482.564	1	5
482.734	1	7
482.904	1	1
483.075	1	9
483.245	1	9
483.415	1	-4
483.586	1	8
483.756	1	5
483.926	1	-5
484.097	1	1
484.267	1	-4
484.437	1	4
484.608	1	6
484.778	1	4
484.948	1	-2
485.119	1	8
485.289	1	-1
485.459	1	12
485.630	1	16
485.800	1	5
485.970	1	-5
486.141	1	-3
486.311	1	7
486.481	1	-1
486.652	1	3
486.822	1	5
486.992	1	-3
487.163	1	-4
487.333	1	1
487.503	1	1
487.674	1	7
487.844	1	4
488.014	1	-1
488.185	1	20
488.355	1	3
488.525	1	5
488.696	1	10
488.866	1	-1
489.036	1	-7
489.207	1	7
489.377	1	1
489.547	1	11
489.718	1	4
489.888	1	14
490.058	1	-3
490.228	1	2
490.399	1	-11
490.569	1	5
490.739	1	12
490.910	1	7
491.080	1	-1
491.250	1	2
491.421	1	5
491.591	1	10
491.761	1	15
491.932	1	3
492.102	1	2
492.272	1	1
492.442	1	3
492.613	1	15
492.783	1	8
492.953	1	11
493.124	1	-1
493.294	1	-3
493.464	1	11
493.635	1	5
493.805	1	3
493.975	1	-10
494.145	1	8
494.316	1	-2
494.486	1	1
494.656	1	3
494.827	1	1
494.997	1	-5
495.167	1	3
495.337	1	6
495.508	1	2
495.678	1	-2
495.848	1	6
496.019	1	-1
496.189	1	3
496.359	1	-1
496.529	1	6
496.700	1	1
496.870	1	3
497.040	1	-1
497.211	1	0
497.381	1	-2
497.551	1	-1
497.721	1	12
497.892	1	3
498.062	1	15
498.232	1	-3
498.403	1	6
498.573	1	10
498.743	1	13
498.913	1	4
499.084	1	1
499.254	1	0
499.424	1	12
499.594	1	13
499.765	1	-3
499.935	1	13
500.105	1	-3
500.275	1	-9
500.446	1	4
500.616	1	8
500.786	1	7
500.956	1	0
501.127	1	5
501.297	1	15
501.467	1	-2
501.638	1	-9
501.808	1	1
501.978	1	5
502.148	1	5
502.319	1	-4
502.489	1	3
502.659	1	-5
502.829	1	12
503.000	1	-2
503.170	1	6
503.340	1	6
503.510	1	2
503.681	1	5
503.851	1	-3
504.021	1	5
504.191	1	-3
504.362	1	12
504.532	1	-11
504.702	1	5
504.872	1	-13
505.042	1	-2
505.213	1	0
505.383	1	6
505.553	1	9
505.723	1	4
505.894	1	2
506.064	1	21
506.234	1	5
506.404	1	-1
506.575	1	-7
506.745	1	-3
506.915	1	7
507.085	1	16
507.256	1	6
507.426	1	4
507.596	1	-3
507.766	1	0
507.936	1	-3
508.107	1	6
508.277	1	-4
508.447	1	-4
508.617	1	-4
508.788	1	-7
508.958	1	1
509.128	1	0
509.298	1	-1
509.468	1	-2
509.639	1	4
509.809	1	0
509.979	1	7
510.149	1	6
510.319	1	-3
510.490	1	8
510.660	1	13
510.830	1	3
511.000	1	7
511.171	1	-13
511.341	1	3
511.511	1	12
511.681	1	6
511.851	1	8
512.022	1	1
512.192	1	2
512.362	1	14
512.532	1	3
512.702	1	0
512.873	1	2
513.043	1	9
513.213	1	0
513.383	1	1
513.553	1	-5
513.724	1	7
513.894	1	-1
514.064	1	3
514.234	1	-1
514.404	1	5
514.575	1	5
514.745	1	-4
514.915	1	-19
515.085	1	10
515.255	1	9
515.425	1	2
515.596	1	6
515.766	1	0
515.936	1	-2
516.106	1	-2
516.276	1	9
516.447	1	8
516.617	1	0
516.787	1	1
516.957	1	10
517.127	1	4
517.297	1	4
517.468	1	5
517.638	1	8
517.808	1	-1
517.978	1	-1
518.148	1	11
518.319	1	6
518.489	1	11
518.659	1	10
518.829	1	1
518.999	1	-1
519.169	1	-4
519.340	1	2
519.510	1	-3
519.680	1	-2
519.850	1	8
520.020	1	12
520.190	1	2
520.361	1	6
520.531	1	-3
520.701	1	0
520.871	1	-3
521.041	1	4
521.211	1	1
521.382	1	-1
521.552	1	9
521.722	1	19
521.892	1	-6
522.062	1	-2
522.232	1	-4
522.402	1	8
522.573	1	8
522.743	1	2
522.913	1	6
523.083	1	-4
523.253	1	3
523.423	1	9
523.593	1	-3
523.764	1	-2
523.934	1	6
524.104	1	9
524.274	1	-4
524.444	1	1
524.614	1	6
524.784	1	8
524.955	1	13
525.125	1	2
525.295	1	0
525.465	1	0
525.635	1	-4
525.805	1	5
525.975	1	5
526.146	1	-2
526.316	1	4
526.486	1	4
526.656	1	7
526.826	1	-1
526.996	1	11
527.166	1	6
527.337	1	-5
527.507	1	-4
527.677	1	4
527.847	1	10
528.017	1	0
528.187	1	2
528.357	1	9
528.527	1	10
528.698	1	6
528.868	1	-4
529.038	1	5
529.208	1	5
529.378	1	3
529.548	1	5
529.718	1	2
529.888	1	5
530.058	1	10
530.229	1	8
530.399	1	2
530.569	1	1
530.739	1	1
530.909	1	8
531.079	1	-4
531.249	1	9
531.419	1	4
531.589	1	-1
531.760	1	0
531.930	1	-5
532.100	1	-7
532.270	1	11
532.440	1	-3
532.610	1	10
532.780	1	-3
532.950	1	3
533.120	1	17
533.290	1	-1
533.461	1	-1
533.631	1	9
533.801	1	4
533.971	1	-7
534.141	1	1
534.311	1	5
534.481	1	-6
534.651	1	-1
534.821	1	4
534.991	1	0
535.162	1	8
535.332	1	0
535.502	1	10
535.672	1	-1
535.842	1	4
536.012	1	4
536.182	1	7
536.352	1	8
536.522	1	11
536.692	1	2
536.862	1	1
537.032	1	8
537.203	1	11
537.373	1	13
537.543	1	8
537.713	1	-2
537.883	1	-4
538.053	1	-11
538.223	1	1
538.393	1	3
538.563	1	10
538.733	1	-2
538.903	1	0
539.073	1	2
539.243	1	-6
539.413	1	-3
539.584	1	10
539.754	1	4
539.924	1	11
540.094	1	-6
540.264	1	-4
540.434	1	8
540.604	1	1
540.774	1	19
540.944	1	12
541.114	1	6
541.284	1	6
541.454	1	-1
541.624	1	-5
541.794	1	4
541.964	1	5
542.134	1	4
542.305	1	10
542.475	1	8
542.645	1	8
542.815	1	4
542.985	1	3
543.155	1	11
543.325	1	-9
543.495	1	12
543.665	1	7
543.835	1	1
544.005	1	1
544.175	1	0
544.345	1	8
544.515	1	5
544.685	1	2
544.855	1	6
545.025	1	11
545.195	1	3
545.365	1	-1
545.535	1	5
545.705	1	-2
545.875	1	0
546.045	1	-8
546.216	1	9
546.386	1	9
546.556	1	10
546.726	1	4
546.896	1	7
547.066	1	2
547.236	1	-6
547.406	1	-6
547.576	1	14
547.746	1	6
547.916	1	10
548.086	1	6
548.256	1	-1
548.426	1	13
548.596	1	6
548.766	1	7
548.936	1	1
549.106	1	8
549.276	1	-10
549.446	1	7
549.616	1	2
549.786	1	22
549.956	1	5
550.126	1	7
550.296	1	9
550.466	1	-4
550.636	1	14
550.806	1	2
550.976	1	-2
551.146	1	15
551.316	1	21
551.486	1	2
551.656	1	6
551.826	1	-3
551.996	1	9
552.166	1	3
552.336	1	9
552.506	1	1
552.676	1	13
552.846	1	9
553.016	1	8
553.186	1	-3
553.356	1	-4
553.526	1	5
553.696	1	11
553.866	1	3
554.036	1	2
554.206	1	-1
554.376	1	1
554.546	1	5
554.716	1	-1
554.886	1	11
555.056	1	6
555.226	1	8
555.396	1	0
555.566	1	11
555.736	1	6
555.906	1	5
556.076	1	4
556.246	1	10
556.416	1	7
556.586	1	0
556.756	1	19
556.926	1	9
557.096	1	15
557.266	1	2
557.436	1	8
557.606	1	-6
557.776	1	-4
557.946	1	-3
558.116	1	3
558.286	1	-1
558.456	1	4
558.626	1	19
558.796	1	3
558.966	1	5
559.136	1	16
559.306	1	19
559.476	1	1
559.646	1	-1
559.816	1	-6
559.986	1	9
560.155	1	1
560.325	1	10
560.495	1	-2
560.665	1	-1
560.835	1	7
561.005	1	-5
561.175	1	3
561.345	1	-1
561.515	1	4
561.685	1	5
561.855	1	2
562.025	1	12
562.195	1	7
562.365	1	6
562.535	1	0
562.705	1	1
562.875	1	4
563.045	1	-7
563.215	1	7
563.385	1	4
563.555	1	12
563.725	1	1
563.895	1	13
564.064	1	15
564.234	1	10
564.404	1	-2
564.574	1	20
564.744	1	-9
564.914	1	4
565.084	1	10
565.254	1	13
565.424	1	3
565.594	1	10
565.764	1	7
565.934	1	0
566.104	1	7
566.274	1	4
566.444	1	7
566.614	1	-4
566.783	1	2
566.953	1	11
567.123	1	3
567.293	1	8
567.463	1	9
567.633	1	2
567.803	1	6
567.973	1	6
568.143	1	4
568.313	1	6
568.483	1	6
568.653	1	-1
568.823	1	6
568.993	1	9
569.162	1	7
569.332	1	0
569.502	1	3
569.672	1	-6
569.842	1	0
570.012	1	-8
570.182	1	6
570.352	1	3
570.522	1	4
570.692	1	4
570.862	1	10
571.031	1	4
571.201	1	8
571.371	1	-11
571.541	1	13
571.711	1	1
571.881	1	6
572.051	1	0
572.221	1	-3
572.391	1	-9
572.561	1	10
572.731	1	0
572.900	1	-2
573.070	1	-10
573.240	1	5
573.410	1	10
573.580	1	9
573.750	1	6
573.920	1	1
574.090	1	8
574.260	1	-4
574.430	1	0
574.599	1	-10
574.769	1	-3
574.939	1	8
575.109	1	4
575.279	1	-7
575.449	1	1
575.619	1	1
575.789	1	4
575.959	1	-5
576.128	1	1
576.298	1	2
576.468	1	-5
576.638	1	7
576.808	1	-4
576.978	1	7
577.148	1	0
577.318	1	-3
577.487	1	-3
577.657	1	6
577.827	1	-2
577.997	1	-4
578.167	1	8
578.337	1	-5
578.507	1	10
578.677	1	-1
578.846	1	15
579.016	1	3
579.186	1	14
579.356	1	9
579.526	1	4
579.696	1	6
579.866	1	6
580.036	1	1
580.205	1	6
580.375	1	0
580.545	1	10
580.715	1	8
580.885	1	9
581.055	1	-11
581.225	1	-1
581.394	1	-4
581.564	1	-7
581.734	1	1
581.904	1	2
582.074	1	7
582.244	1	11
582.414	1	12
582.583	1	12
582.753	1	-4
582.923	1	-1
583.093	1	10
583.263	1	-11
583.433	1	-7
583.603	1	13
583.772	1	5
583.942	1	9
584.112	1	12
584.282	1	1
584.452	1	1
584.622	1	8
584.791	1	6
584.961	1	12
585.131	1	4
585.301	1	4
585.471	1	9
585.641	1	-1
585.811	1	10
585.980	1	7
586.150	1	9
586.320	1	4
586.490	1	-4
586.660	1	-2
586.830	1	2
586.999	1	3
587.169	1	0
587.339	1	3
587.509	1	-4
587.679	1	0
587.849	1	8
588.018	1	-3
588.188	1	0
588.358	1	2
588.528	1	-1
588.698	1	-8
588.867	1	4
589.037	1	2
589.207	1	-5
589.377	1	12
589.547	1	2
589.717	1	3
589.886	1	0
590.056	1	-4
590.226	1	9
590.396	1	-2
590.566	1	1
590.735	1	-4
590.905	1	3
591.075	1	6
591.245	1	6
591.415	1	11
591.585	1	-1
591.754	1	-3
591.924	1	-5
592.094	1	1
592.264	1	2
592.434	1	10
592.603	1	5
592.773	1	13
592.943	1	-8
593.113	1	-8
593.283	1	-6
593.452	1	13
593.622	1	-3
593.792	1	1
593.962	1	4
594.132	1	3
594.301	1	0
594.471	1	1
594.641	1	4
594.811	1	1
594.981	1	-8
595.150	1	-7
595.320	1	3
595.490	1	-2
595.660	1	-4
595.829	1	4
595.999	1	-3
596.169	1	1
596.339	1	-3
596.509	1	-5
596.678	1	5
596.848	1	3
597.018	1	-4
597.188	1	0
597.358	1	-1
597.527	1	7
597.697	1	5
597.867	1	7
598.037	1	0
598.206	1	-1
598.376	1	5
598.546	1	8
598.716	1	1
598.885	1	1
599.055	1	1
599.225	1	12
599.395	1	-10
599.565	1	2
599.734	1	5
599.904	1	7
600.074	1	10
600.244	1	10
600.413	1	3
600.583	1	-4
600.753	1	0
600.923	1	2
601.092	1	6
601.262	1	1
601.432	1	9
601.602	1	12
601.771	1	-2
601.941	1	7
602.111	1	0
602.281	1	7
602.451	1	1
602.620	1	8
602.790	1	-8
602.960	1	2
603.130	1	-5
603.299	1	-7
603.469	1	4
603.639	1	-2
603.809	1	6
603.978	1	2
604.148	1	-2
604.318	1	-3
604.487	1	-9
604.657	1	9
604.827	1	5
604.997	1	0
605.166	1	1
605.336	1	2
605.506	1	-6
605.676	1	-2
605.845	1	-7
606.015	1	-5
606.185	1	12
606.355	1	6
606.524	1	9
606.694	1	4
606.864	1	-2
607.034	1	9
607.203	1	3
607.373	1	-8
607.543	1	2
607.712	1	1
607.882	1	-2
608.052	1	3
608.222	1	-1
608.391	1	8
608.561	1	12
608.731	1	8
608.901	1	6
609.070	1	8
609.240	1	12
609.410	1	-4
609.579	1	-2
609.749	1	-3
609.919	1	8
610.089	1	0
610.258	1	15
610.428	1	6
610.598	1	4
610.767	1	2
610.937	1	0
611.107	1	-8
611.277	1	-2
611.446	1	1
611.616	1	1
611.786	1	7
611.955	1	13
612.125	1	1
612.295	1	6
612.465	1	1
612.634	1	6
612.804	1	4
612.974	1	6
613.143	1	-6
613.313	1	2
613.483	1	6
613.652	1	16
613.822	1	7
613.992	1	4
614.162	1	3
614.331	1	8
614.501	1	3
614.671	1	7
614.840	1	6
615.010	1	4
615.180	1	2
615.349	1	0
615.519	1	2
615.689	1	20
615.858	1	2
616.028	1	-4
616.198	1	9
616.368	1	5
616.537	1	0
616.707	1	9
616.877	1	1
617.046	1	10
617.216	1	0
617.386	1	6
617.555	1	4
617.725	1	-1
617.895	1	6
618.064	1	-3
618.234	1	-1
618.404	1	-3
618.573	1	13
618.743	1	2
618.913	1	7
619.082	1	-7
619.252	1	10
619.422	1	0
619.591	1	0
619.761	1	5
619.931	1	7
620.100	1	2
620.270	1	-5
620.440	1	8
620.609	1	5
620.779	1	8
620.949	1	-3
621.118	1	-5
621.288	1	0
621.458	1	9
621.627	1	7
621.797	1	3
621.967	1	12
622.136	1	4
622.306	1	-3
622.476	1	8
622.645	1	6
622.815	1	4
622.985	1	-5
623.154	1	-5
623.324	1	5
623.494	1	18
623.663	1	10
623.833	1	4
624.002	1	-3
624.172	1	2
624.342	1	-12
624.511	1	2
624.681	1	6
624.851	1	10
625.020	1	-2
625.190	1	8
625.360	1	-3
625.529	1	2
625.699	1	-4
625.869	1	9
626.038	1	0
626.208	1	4
626.377	1	12
626.547	1	15
626.717	1	2
626.886	1	-7
627.056	1	4
627.226	1	-5
627.395	1	4
627.565	1	-1
627.735	1	11
627.904	1	-2
628.074	1	8
628.243	1	5
628.413	1	-8
628.583	1	-6
628.752	1	6
628.922	1	-5
629.091	1	-1
629.261	1	0
629.431	1	7
629.600	1	17
629.770	1	8
629.940	1	7
630.109	1	5
630.279	1	-2
630.448	1	5
630.618	1	6
630.788	1	-3
630.957	1	8
631.127	1	10
631.297	1	-5
631.466	1	1
631.636	1	-2
631.805	1	21
631.975	1	-2
632.145	1	19
632.314	1	-5
632.484	1	1
632.653	1	-8
632.823	1	7
632.993	1	4
633.162	1	-6
633.332	1	-1
633.501	1	-6
633.671	1	5
633.841	1	14
634.010	1	17
634.180	1	4
634.349	1	15
634.519	1	-22
634.689	1	-2
634.858	1	-12
635.028	1	4
635.197	1	7
635.367	1	2
635.537	1	-5
635.706	1	9
635.876	1	2
636.045	1	3
636.215	1	0
636.384	1	8
636.554	1	6
636.724	1	-1
636.893	1	-6
637.063	1	5
637.232	1	-5
637.402	1	1
637.572	1	-1
637.741	1	0
637.911	1	9
638.080	1	1
638.250	1	2
638.419	1	5
638.589	1	6
638.759	1	-1
638.928	1	5
639.098	1	0
639.267	1	8
639.437	1	-7
639.606	1	8
639.776	1	-2
639.946	1	6
640.115	1	3
640.285	1	6
640.454	1	-6
640.624	1	11
640.793	1	11
640.963	1	14
641.132	1	-14
641.302	1	11
641.472	1	4
641.641	1	8
641.811	1	-1
641.980	1	4
642.150	1	8
642.319	1	11
642.489	1	13
642.659	1	1
642.828	1	6
642.998	1	5
643.167	1	5
643.337	1	5
643.506	1	-1
643.676	1	0
643.845	1	11
644.015	1	6
644.184	1	14
644.354	1	11
644.524	1	-2
644.693	1	-1
644.863	1	-4
645.032	1	9
645.202	1	-7
645.371	1	6
645.541	1	8
645.710	1	14
645.880	1	3
646.049	1	6
646.219	1	7
646.388	1	8
646.558	1	2
646.728	1	6
646.897	1	-1
647.067	1	-3
647.236	1	11
647.406	1	4
647.575	1	11
647.745	1	-3
647.914	1	7
648.084	1	4
648.253	1	2
648.423	1	-5
648.592	1	12
648.762	1	5
648.931	1	9
649.101	1	6
649.270	1	4
649.440	1	-7
649.610	1	-3
649.779	1	5
649.949	1	-6
650.118	1	5
650.288	1	6
650.457	1	8
650.627	1	8
650.796	1	7
650.966	1	-3
651.135	1	7
651.305	1	2
651.474	1	2
651.644	1	-5
651.813	1	-9
651.983	1	-1
652.152	1	4
652.322	1	-2
652.491	1	18
652.661	1	10
652.830	1	11
653.000	1	8
653.169	1	4
653.339	1	-2
653.508	1	5
653.678	1	8
653.847	1	4
654.017	1	12
654.186	1	9
654.356	1	-3
654.525	1	6
654.695	1	6
654.864	1	6
655.034	1	-3
655.203	1	3
655.373	1	5
655.542	1	8
655.712	1	-6
655.881	1	4
656.051	1	-2
656.220	1	15
656.390	1	6
656.559	1	9
656.729	1	6
656.898	1	-7
657.068	1	15
657.237	1	12
657.406	1	9
657.576	1	3
657.745	1	7
657.915	1	9
658.084	1	3
658.254	1	1
658.423	1	3
658.593	1	2
658.762	1	4
658.932	1	0
659.101	1	4
659.271	1	4
659.440	1	6
659.610	1	11
659.779	1	11
659.949	1	-2
660.118	1	11
660.288	1	13
660.457	1	4
660.626	1	-9
660.796	1	-6
660.965	1	7
661.135	1	8
661.304	1	9
661.474	1	6
661.643	1	8
661.813	1	-4
661.982	1	3
662.152	1	0
662.321	1	5
662.491	1	6
662.660	1	1
662.829	1	8
662.999	1	6
663.168	1	1
663.338	1	6
663.507	1	-3
663.677	1	9
663.846	1	8
664.016	1	-11
664.185	1	9
664.354	1	-4
664.524	1	0
664.693	1	6
664.863	1	7
665.032	1	4
665.202	1	11
665.371	1	2
665.541	1	13
665.710	1	0
665.879	1	4
666.049	1	13
666.218	1	-1
666.388	1	-8
666.557	1	-2
666.727	1	-9
666.896	1	13
667.065	1	0
667.235	1	12
667.404	1	4
667.574	1	9
667.743	1	-3
667.913	1	4
668.082	1	-3
668.251	1	13
668.421	1	2
668.590	1	5
668.760	1	12
668.929	1	13
669.099	1	7
669.268	1	1
669.437	1	1
669.607	1	3
669.776	1	-1
669.946	1	2
670.115	1	-2
670.285	1	1
670.454	1	-2
670.623	1	-2
670.793	1	-1
670.962	1	12
671.132	1	-3
671.301	1	-4
671.470	1	3
671.640	1	-8
671.809	1	17
671.979	1	3
672.148	1	2
672.317	1	8
672.487	1	18
672.656	1	10
672.826	1	21
672.995	1	-1
673.164	1	6
673.334	1	5
673.503	1	7
673.673	1	8
673.842	1	-8
674.011	1	10
674.181	1	-13
674.350	1	12
674.520	1	3
674.689	1	5
674.858	1	8
675.028	1	6
675.197	1	8
675.367	1	6
675.536	1	4
675.705	1	2
675.875	1	2
676.044	1	1
676.214	1	0
676.383	1	12
676.552	1	1
676.722	1	-3
676.891	1	-6
677.060	1	-5
677.230	1	2
677.399	1	0
677.569	1	0
677.738	1	2
677.907	1	0
678.077	1	-7
678.246	1	5
678.416	1	10
678.585	1	0
678.754	1	5
678.924	1	1
679.093	1	11
679.262	1	2
679.432	1	9
679.601	1	3
679.771	1	0
679.940	1	2
680.109	1	-4
680.279	1	4
680.448	1	-6
680.617	1	13
680.787	1	5
680.956	1	6
681.125	1	4
681.295	1	0
681.464	1	6
681.634	1	4
681.803	1	0
681.972	1	7
682.142	1	7
682.311	1	0
682.480	1	6
682.650	1	9
682.819	1	0
682.988	1	13
683.158	1	0
683.327	1	2
683.496	1	3
683.666	1	2
683.835	1	4
684.004	1	7
684.174	1	2
684.343	1	-6
684.512	1	18
684.682	1	4
684.851	1	20
685.021	1	8
685.190	1	4
685.359	1	5
685.529	1	15
685.698	1	10
685.867	1	-5
686.037	1	8
686.206	1	14
686.375	1	14
686.545	1	1
686.714	1	6
686.883	1	3
687.053	1	8
687.222	1	1
687.391	1	4
687.561	1	-4
687.730	1	15
687.899	1	-2
688.069	1	11
688.238	1	7
688.407	1	2
688.577	1	9
688.746	1	-6
