340.368	1	5
340.539	1	2
340.710	1	4
340.881	1	-4
341.052	1	-8
341.223	1	17
341.394	1	-5
341.565	1	-10
341.737	1	6
341.908	1	7
342.079	1	5
342.250	1	-4
342.421	1	-6
342.592	1	6
342.763	1	-10
342.934	1	-4
343.105	1	-13
343.276	1	-2
343.447	1	-3
343.618	1	-12
343.789	1	-4
343.960	1	2
344.131	1	7
344.302	1	1
344.473	1	4
344.644	1	11
344.815	1	-6
344.986	1	7
345.157	1	5
345.328	1	0
345.499	1	7
345.670	1	-5
345.841	1	4
346.012	1	-2
346.183	1	-3
346.354	1	2
346.526	1	-1
346.697	1	3
346.868	1	-1
347.039	1	7
347.210	1	1
347.381	1	8
347.552	1	1
347.723	1	15
347.894	1	-10
348.065	1	11
348.236	1	-8
348.407	1	3
348.578	1	12
348.749	1	-4
348.920	1	2
349.091	1	9
349.262	1	2
349.433	1	7
349.604	1	-6
349.775	1	-6
349.946	1	2
350.117	1	4
350.288	1	-12
350.459	1	4
350.630	1	-8
350.801	1	11
350.972	1	13
351.143	1	13
351.314	1	-1
351.485	1	-3
351.656	1	0
351.827	1	-1
351.998	1	-4
352.169	1	11
352.340	1	6
352.511	1	0
352.682	1	1
352.853	1	1
353.024	1	8
353.195	1	0
353.366	1	6
353.537	1	1
353.708	1	6
353.879	1	-3
354.050	1	10
354.221	1	10
354.392	1	-2
354.563	1	-7
354.734	1	11
354.905	1	15
355.076	1	-5
355.247	1	0
355.418	1	4
355.589	1	-6
355.760	1	-7
355.931	1	10
356.102	1	6
356.273	1	6
356.444	1	5
356.615	1	-9
356.785	1	11
356.956	1	13
357.127	1	14
357.298	1	13
357.469	1	3
357.640	1	0
357.811	1	2
357.982	1	7
358.153	1	3
358.324	1	11
358.495	1	2
358.666	1	11
358.837	1	2
359.008	1	16
359.179	1	11
359.350	1	0
359.521	1	5
359.692	1	1
359.863	1	5
360.034	1	11
360.205	1	15
360.376	1	2
360.547	1	6
360.718	1	-4
360.889	1	8
361.060	1	14
361.231	1	10
361.401	1	1
361.572	1	-1
361.743	1	11
361.914	1	6
362.085	1	7
362.256	1	17
362.427	1	1
362.598	1	5
362.769	1	18
362.940	1	-1
363.111	1	16
363.282	1	8
363.453	1	5
363.624	1	23
363.795	1	10
363.966	1	4
364.137	1	6
364.308	1	6
364.478	1	4
364.649	1	11
364.820	1	17
364.991	1	11
365.162	1	13
365.333	1	11
365.504	1	11
365.675	1	16
365.846	1	14
366.017	1	22
366.188	1	6
366.359	1	16
366.530	1	17
366.701	1	15
366.871	1	9
367.042	1	7
367.213	1	19
367.384	1	7
367.555	1	2
367.726	1	24
367.897	1	19
368.068	1	16
368.239	1	5
368.410	1	18
368.581	1	29
368.752	1	24
368.923	1	9
369.093	1	24
369.264	1	12
369.435	1	13
369.606	1	21
369.777	1	13
369.948	1	17
370.119	1	30
370.290	1	19
370.461	1	17
370.632	1	33
370.803	1	15
370.973	1	13
371.144	1	28
371.315	1	20
371.486	1	28
371.657	1	21
371.828	1	24
371.999	1	30
372.170	1	13
372.341	1	31
372.512	1	22
372.682	1	21
372.853	1	28
373.024	1	25
373.195	1	38
373.366	1	27
373.537	1	38
373.708	1	13
373.879	1	22
374.050	1	44
374.220	1	17
374.391	1	28
374.562	1	18
374.733	1	23
374.904	1	33
375.075	1	27
375.246	1	35
375.417	1	37
375.588	1	30
375.758	1	33
375.929	1	22
376.100	1	19
376.271	1	27
376.442	1	22
376.613	1	13
376.784	1	18
376.955	1	25
377.125	1	28
377.296	1	31
377.467	1	27
377.638	1	19
377.809	1	15
377.980	1	16
378.151	1	26
378.321	1	21
378.492	1	18
378.663	1	20
378.834	1	20
379.005	1	21
379.176	1	22
379.347	1	26
379.518	1	5
379.688	1	22
379.859	1	23
380.030	1	18
380.201	1	21
380.372	1	3
380.543	1	23
380.714	1	18
380.884	1	35
381.055	1	12
381.226	1	13
381.397	1	16
381.568	1	8
381.739	1	20
381.910	1	11
382.080	1	16
382.251	1	13
382.422	1	20
382.593	1	9
382.764	1	11
382.935	1	14
383.105	1	24
383.276	1	0
383.447	1	22
383.618	1	10
383.789	1	30
383.960	1	14
384.130	1	13
384.301	1	10
384.472	1	11
384.643	1	8
384.814	1	14
384.985	1	15
385.156	1	18
385.326	1	4
385.497	1	19
385.668	1	10
385.839	1	5
386.010	1	29
386.180	1	12
386.351	1	18
386.522	1	10
386.693	1	5
386.864	1	6
387.035	1	15
387.205	1	8
387.376	1	19
387.547	1	-2
387.718	1	9
387.889	1	17
388.060	1	9
388.230	1	7
388.401	1	11
388.572	1	7
388.743	1	8
388.914	1	13
389.084	1	4
389.255	1	14
389.426	1	10
389.597	1	13
389.768	1	6
389.939	1	8
390.109	1	7
390.280	1	12
390.451	1	5
390.622	1	-2
390.793	1	13
390.963	1	8
391.134	1	0
391.305	1	9
391.476	1	5
391.647	1	11
391.817	1	13
391.988	1	10
392.159	1	12
392.330	1	6
392.501	1	2
392.671	1	-1
392.842	1	0
393.013	1	13
393.184	1	8
393.355	1	7
393.525	1	11
393.696	1	3
393.867	1	1
394.038	1	7
394.208	1	-3
394.379	1	-3
394.550	1	-4
394.721	1	9
394.892	1	9
395.062	1	9
395.233	1	2
395.404	1	1
395.575	1	11
395.746	1	3
395.916	1	10
396.087	1	-6
396.258	1	4
396.429	1	-4
396.599	1	2
396.770	1	2
396.941	1	8
397.112	1	7
397.283	1	8
397.453	1	8
397.624	1	16
397.795	1	4
397.966	1	5
398.136	1	2
398.307	1	8
398.478	1	10
398.649	1	2
398.819	1	11
398.990	1	10
399.161	1	15
399.332	1	-4
399.503	1	5
399.673	1	15
399.844	1	5
400.015	1	7
400.186	1	10
400.356	1	7
400.527	1	7
400.698	1	9
400.869	1	7
401.039	1	5
401.210	1	10
401.381	1	11
401.552	1	-4
401.722	1	5
401.893	1	6
402.064	1	6
402.235	1	2
402.405	1	10
402.576	1	12
402.747	1	6
402.918	1	6
403.088	1	0
403.259	1	10
403.430	1	11
403.601	1	12
403.771	1	7
403.942	1	-5
404.113	1	-3
404.284	1	11
404.454	1	0
404.625	1	9
404.796	1	-1
404.967	1	-5
405.137	1	-4
405.308	1	7
405.479	1	2
405.649	1	7
405.820	1	4
405.991	1	5
406.162	1	18
406.332	1	0
406.503	1	-3
406.674	1	10
406.845	1	6
407.015	1	4
407.186	1	3
407.357	1	5
407.527	1	11
407.698	1	-2
407.869	1	9
408.040	1	4
408.210	1	-2
408.381	1	-2
408.552	1	-2
408.722	1	-3
408.893	1	3
409.064	1	3
409.235	1	-5
409.405	1	-4
409.576	1	3
409.747	1	-6
409.917	1	2
410.088	1	-1
410.259	1	6
410.430	1	5
410.600	1	0
410.771	1	-3
410.942	1	-9
411.112	1	8
411.283	1	2
411.454	1	2
411.625	1	0
411.795	1	9
411.966	1	6
412.137	1	13
412.307	1	-9
412.478	1	2
412.649	1	3
412.819	1	4
412.990	1	-10
413.161	1	1
413.332	1	3
413.502	1	2
413.673	1	1
413.844	1	1
414.014	1	12
414.185	1	-7
414.356	1	4
414.526	1	14
414.697	1	7
414.868	1	11
415.038	1	8
415.209	1	4
415.380	1	-7
415.550	1	-1
415.721	1	-4
415.892	1	0
416.063	1	-3
416.233	1	7
416.404	1	0
416.575	1	7
416.745	1	0
416.916	1	2
417.087	1	7
417.257	1	5
417.428	1	-1
417.599	1	11
417.769	1	-4
417.940	1	1
418.111	1	16
418.281	1	5
418.452	1	-5
418.623	1	0
418.793	1	9
418.964	1	-6
419.135	1	0
419.305	1	7
419.476	1	1
419.647	1	3
419.817	1	-7
419.988	1	-1
420.159	1	9
420.329	1	5
420.500	1	-2
420.671	1	1
420.841	1	4
421.012	1	3
421.183	1	6
421.353	1	3
421.524	1	1
421.695	1	-1
421.865	1	6
422.036	1	1
422.206	1	4
422.377	1	1
422.548	1	5
422.718	1	-8
422.889	1	-4
423.060	1	-1
423.230	1	-2
423.401	1	4
423.572	1	-1
423.742	1	7
423.913	1	6
424.084	1	12
424.254	1	0
424.425	1	-5
424.595	1	2
424.766	1	9
424.937	1	-3
425.107	1	0
425.278	1	6
425.449	1	-3
425.619	1	-1
425.790	1	2
425.961	1	10
426.131	1	-2
426.302	1	7
426.472	1	2
426.643	1	0
426.814	1	-4
426.984	1	-7
427.155	1	0
427.326	1	6
427.496	1	8
427.667	1	7
427.837	1	8
428.008	1	1
428.179	1	-3
428.349	1	-2
428.520	1	-3
428.691	1	-3
428.861	1	7
429.032	1	0
429.202	1	9
429.373	1	3
429.544	1	0
429.714	1	0
429.885	1	10
430.055	1	8
430.226	1	3
430.397	1	1
430.567	1	16
430.738	1	17
430.909	1	-1
431.079	1	2
431.250	1	7
431.420	1	10
431.591	1	-5
431.762	1	4
431.932	1	8
432.103	1	14
432.273	1	3
432.444	1	-3
432.615	1	-4
432.785	1	2
432.956	1	4
433.126	1	9
433.297	1	-7
433.468	1	-3
433.638	1	6
433.809	1	2
433.979	1	1
434.150	1	6
434.320	1	4
434.491	1	4
434.662	1	1
434.832	1	4
435.003	1	12
435.173	1	9
435.344	1	8
435.515	1	9
435.685	1	7
435.856	1	13
436.026	1	-9
436.197	1	13
436.368	1	-6
436.538	1	10
436.709	1	-10
436.879	1	1
437.050	1	8
437.220	1	15
437.391	1	14
437.562	1	8
437.732	1	-7
437.903	1	10
438.073	1	5
438.244	1	9
438.414	1	2
438.585	1	4
438.756	1	9
438.926	1	5
439.097	1	-5
439.267	1	4
439.438	1	6
439.608	1	1
439.779	1	-2
439.949	1	5
440.120	1	7
440.291	1	5
440.461	1	-4
440.632	1	-1
440.802	1	5
440.973	1	7
441.143	1	-6
441.314	1	3
441.485	1	-4
441.655	1	3
441.826	1	4
441.996	1	-1
442.167	1	9
442.337	1	-4
442.508	1	17
442.678	1	4
442.849	1	7
443.019	1	3
443.190	1	3
443.361	1	1
443.531	1	9
443.702	1	4
443.872	1	11
444.043	1	-1
444.213	1	4
444.384	1	6
444.554	1	-6
444.725	1	3
444.895	1	4
445.066	1	4
445.237	1	1
445.407	1	10
445.578	1	6
445.748	1	4
445.919	1	9
446.089	1	3
446.260	1	-5
446.430	1	0
446.601	1	2
446.771	1	7
446.942	1	-2
447.112	1	5
447.283	1	16
447.453	1	0
447.624	1	-4
447.794	1	9
447.965	1	-6
448.135	1	1
448.306	1	-4
448.477	1	-2
448.647	1	8
448.818	1	3
448.988	1	3
449.159	1	4
449.329	1	7
449.500	1	8
449.670	1	11
449.841	1	-8
450.011	1	3
450.182	1	7
450.352	1	15
450.523	1	-5
450.693	1	-3
450.864	1	8
451.034	1	10
451.205	1	10
451.375	1	-5
451.546	1	6
451.716	1	3
451.887	1	4
452.057	1	2
452.228	1	15
452.398	1	-3
452.569	1	6
452.739	1	5
452.910	1	0
453.080	1	0
453.251	1	5
453.421	1	10
453.592	1	5
453.762	1	5
453.933	1	6
454.103	1	8
454.274	1	-4
454.444	1	-4
454.615	1	3
454.785	1	2
454.956	1	8
455.126	1	11
455.297	1	-1
455.467	1	2
455.638	1	-4
455.808	1	3
455.979	1	0
456.149	1	-1
456.320	1	-10
456.490	1	4
456.661	1	4
456.831	1	5
457.001	1	10
457.172	1	8
457.342	1	12
457.513	1	2
457.683	1	4
457.854	1	0
458.024	1	-2
458.195	1	-1
458.365	1	1
458.536	1	3
458.706	1	0
458.877	1	7
459.047	1	-1
459.218	1	-3
459.388	1	12
459.559	1	-1
459.729	1	4
459.899	1	5
460.070	1	9
460.240	1	11
460.411	1	3
460.581	1	4
460.752	1	2
460.922	1	9
461.093	1	-1
461.263	1	-1
461.434	1	6
461.604	1	-7
461.775	1	-5
461.945	1	5
462.115	1	7
462.286	1	15
462.456	1	10
462.627	1	3
462.797	1	7
462.968	1	5
463.138	1	13
463.309	1	5
463.479	1	5
463.649	1	7
463.820	1	-17
463.990	1	7
464.161	1	-4
464.331	1	2
464.502	1	4
464.672	1	3
464.843	1	17
465.013	1	6
465.183	1	-3
465.354	1	4
465.524	1	6
465.695	1	9
465.865	1	0
466.036	1	9
466.206	1	3
466.376	1	5
466.547	1	-1
466.717	1	-9
466.888	1	-4
467.058	1	4
467.229	1	1
467.399	1	4
467.569	1	9
467.740	1	-9
467.910	1	-13
468.081	1	-1
468.251	1	11
468.422	1	-1
468.592	1	6
468.762	1	8
468.933	1	6
469.103	1	-10
469.274	1	11
469.444	1	10
469.614	1	-3
469.785	1	-2
469.955	1	-1
470.126	1	0
470.296	1	0
470.467	1	3
470.637	1	6
470.807	1	4
470.978	1	-2
471.148	1	20
471.319	1	-1
471.489	1	9
471.659	1	-6
471.830	1	7
472.000	1	6
472.171	1	5
472.341	1	-7
472.511	1	3
472.682	1	6
472.852	1	5
473.023	1	-9
473.193	1	-8
473.363	1	0
473.534	1	-5
473.704	1	4
473.875	1	11
474.045	1	0
474.215	1	17
474.386	1	11
474.556	1	18
474.727	1	2
474.897	1	2
475.067	1	3
475.238	1	5
475.408	1	11
475.578	1	1
475.749	1	10
475.919	1	1
476.090	1	4
476.260	1	7
476.430	1	1
476.601	1	-6
476.771	1	-3
476.942	1	1
477.112	1	10
477.282	1	-5
477.453	1	-4
477.623	1	-3
477.793	1	8
477.964	1	-7
478.134	1	-5
478.305	1	7
478.475	1	-5
478.645	1	11
478.816	1	17
478.986	1	-14
479.156	1	-3
479.327	1	-14
479.497	1	2
479.667	1	9
479.838	1	0
480.008	1	-7
480.179	1	0
480.349	1	12
480.519	1	3
480.690	1	-1
480.860	1	3
481.030	1	-10
481.201	1	-8
481.371	1	8
481.541	1	3
481.712	1	8
481.882	1	-4
482.053	1	16
482.223	1	-3
482.393	1	4
482.564	1	1
482.734	1	-1
482.904	1	5
483.075	1	2
483.245	1	13
483.415	1	13
483.586	1	2
483.756	1	-1
483.926	1	0
484.097	1	2
484.267	1	-7
484.437	1	14
484.608	1	1
484.778	1	8
484.948	1	-7
485.119	1	-1
485.289	1	-6
485.459	1	10
485.630	1	15
485.800	1	-3
485.970	1	-8
486.141	1	4
486.311	1	11
486.481	1	-3
486.652	1	3
486.822	1	7
486.992	1	0
487.163	1	6
487.333	1	-2
487.503	1	-1
487.674	1	10
487.844	1	7
488.014	1	-5
488.185	1	8
488.355	1	-4
488.525	1	-2
488.696	1	3
488.866	1	1
489.036	1	3
489.207	1	7
489.377	1	0
489.547	1	8
489.718	1	0
489.888	1	9
490.058	1	-2
490.228	1	8
490.399	1	-4
490.569	1	1
490.739	1	9
490.910	1	-1
491.080	1	2
491.250	1	-2
491.421	1	2
491.591	1	7
491.761	1	3
491.932	1	-7
492.102	1	3
492.272	1	-3
492.442	1	8
492.613	1	11
492.783	1	10
492.953	1	9
493.124	1	-5
493.294	1	0
493.464	1	8
493.635	1	1
493.805	1	-2
493.975	1	-6
494.145	1	-5
494.316	1	1
494.486	1	4
494.656	1	11
494.827	1	1
494.997	1	-3
495.167	1	2
495.337	1	10
495.508	1	3
495.678	1	4
495.848	1	-9
496.019	1	1
496.189	1	9
496.359	1	6
496.529	1	3
496.700	1	8
496.870	1	5
497.040	1	-4
497.211	1	3
497.381	1	1
497.551	1	-8
497.721	1	10
497.892	1	3
498.062	1	10
498.232	1	1
498.403	1	1
498.573	1	18
498.743	1	5
498.913	1	0
499.084	1	0
499.254	1	6
499.424	1	12
499.594	1	3
499.765	1	-2
499.935	1	3
500.105	1	6
500.275	1	2
500.446	1	2
500.616	1	6
500.786	1	-5
500.956	1	10
501.127	1	-7
501.297	1	2
501.467	1	-2
501.638	1	-15
501.808	1	-11
501.978	1	-4
502.148	1	2
502.319	1	2
502.489	1	11
502.659	1	-2
502.829	1	6
503.000	1	6
503.170	1	6
503.340	1	2
503.510	1	5
503.681	1	-7
503.851	1	-1
504.021	1	5
504.191	1	4
504.362	1	7
504.532	1	-4
504.702	1	12
504.872	1	4
505.042	1	-3
505.213	1	6
505.383	1	-2
505.553	1	2
505.723	1	-5
505.894	1	-2
506.064	1	8
506.234	1	8
506.404	1	-4
506.575	1	-7
506.745	1	-2
506.915	1	6
507.085	1	3
507.256	1	-4
507.426	1	3
507.596	1	-3
507.766	1	3
507.936	1	-11
508.107	1	0
508.277	1	-6
508.447	1	-4
508.617	1	1
508.788	1	-9
508.958	1	3
509.128	1	-2
509.298	1	-4
509.468	1	4
509.639	1	10
509.809	1	5
509.979	1	4
510.149	1	9
510.319	1	-3
510.490	1	5
510.660	1	-1
510.830	1	4
511.000	1	-3
511.171	1	-6
511.341	1	3
511.511	1	16
511.681	1	6
511.851	1	8
512.022	1	8
512.192	1	-4
512.362	1	0
512.532	1	2
512.702	1	2
512.873	1	7
513.043	1	2
513.213	1	-3
513.383	1	2
513.553	1	-5
513.724	1	8
513.894	1	-2
514.064	1	-3
514.234	1	-3
514.404	1	5
514.575	1	11
514.745	1	-5
514.915	1	-17
515.085	1	-1
515.255	1	14
515.425	1	3
515.596	1	11
515.766	1	10
515.936	1	10
516.106	1	7
516.276	1	7
516.447	1	11
516.617	1	0
516.787	1	5
516.957	1	11
517.127	1	10
517.297	1	8
517.468	1	5
517.638	1	5
517.808	1	3
517.978	1	8
518.148	1	15
518.319	1	17
518.489	1	4
518.659	1	16
518.829	1	5
518.999	1	-9
519.169	1	-2
519.340	1	-4
519.510	1	-5
519.680	1	0
519.850	1	6
520.020	1	8
520.190	1	6
520.361	1	1
520.531	1	-3
520.701	1	5
520.871	1	-13
521.041	1	-2
521.211	1	-10
521.382	1	3
521.552	1	11
521.722	1	14
521.892	1	3
522.062	1	-2
522.232	1	1
522.402	1	-2
522.573	1	-1
522.743	1	7
522.913	1	-1
523.083	1	-1
523.253	1	-1
523.423	1	2
523.593	1	-12
523.764	1	2
523.934	1	0
524.104	1	8
524.274	1	-1
524.444	1	11
524.614	1	9
524.784	1	12
524.955	1	-1
525.125	1	0
525.295	1	1
525.465	1	-5
525.635	1	1
525.805	1	6
525.975	1	-6
526.146	1	3
526.316	1	4
526.486	1	7
526.656	1	1
526.826	1	1
526.996	1	6
527.166	1	0
527.337	1	10
527.507	1	-1
527.677	1	3
527.847	1	4
528.017	1	-11
528.187	1	7
528.357	1	2
528.527	1	7
528.698	1	5
528.868	1	-2
529.038	1	-2
529.208	1	9
529.378	1	-4
529.548	1	-6
529.718	1	0
529.888	1	17
530.058	1	4
530.229	1	1
530.399	1	12
530.569	1	0
530.739	1	7
530.909	1	2
531.079	1	-1
531.249	1	9
531.419	1	7
531.589	1	0
531.760	1	-1
531.930	1	-3
532.100	1	-5
532.270	1	0
532.440	1	-1
532.610	1	10
532.780	1	1
532.950	1	-10
533.120	1	18
533.290	1	-1
533.461	1	-4
533.631	1	3
533.801	1	-11
533.971	1	-1
534.141	1	-6
534.311	1	3
534.481	1	-9
534.651	1	-2
534.821	1	-1
534.991	1	1
535.162	1	7
535.332	1	-4
535.502	1	5
535.672	1	4
535.842	1	1
536.012	1	-2
536.182	1	2
536.352	1	-2
536.522	1	6
536.692	1	4
536.862	1	9
537.032	1	-2
537.203	1	5
537.373	1	23
537.543	1	6
537.713	1	-6
537.883	1	-6
538.053	1	-2
538.223	1	7
538.393	1	-3
538.563	1	3
538.733	1	5
538.903	1	2
539.073	1	-3
539.243	1	-8
539.413	1	3
539.584	1	8
539.754	1	-3
539.924	1	2
540.094	1	-6
540.264	1	2
540.434	1	4
540.604	1	5
540.774	1	8
540.944	1	6
541.114	1	8
541.284	1	-7
541.454	1	-2
541.624	1	1
541.794	1	1
541.964	1	8
542.134	1	6
542.305	1	11
542.475	1	-2
542.645	1	7
542.815	1	10
542.985	1	5
543.155	1	5
543.325	1	-1
543.495	1	7
543.665	1	1
543.835	1	9
544.005	1	0
544.175	1	1
544.345	1	6
544.515	1	-3
544.685	1	-8
544.855	1	-1
545.025	1	17
545.195	1	-3
545.365	1	1
545.535	1	6
545.705	1	3
545.875	1	0
546.045	1	-4
546.216	1	0
546.386	1	-3
546.556	1	7
546.726	1	6
546.896	1	3
547.066	1	3
547.236	1	-7
547.406	1	-4
547.576	1	4
547.746	1	14
547.916	1	4
548.086	1	0
548.256	1	-1
548.426	1	-5
548.596	1	-1
548.766	1	9
548.936	1	-8
549.106	1	-3
549.276	1	8
549.446	1	2
549.616	1	0
549.786	1	12
549.956	1	6
550.126	1	13
550.296	1	3
550.466	1	7
550.636	1	-4
550.806	1	-5
550.976	1	-5
551.146	1	12
551.316	1	7
551.486	1	-1
551.656	1	0
551.826	1	1
551.996	1	9
552.166	1	3
552.336	1	-1
552.506	1	-9
552.676	1	5
552.846	1	1
553.016	1	4
553.186	1	-8
553.356	1	-3
553.526	1	8
553.696	1	16
553.866	1	11
554.036	1	6
554.206	1	-5
554.376	1	-3
554.546	1	9
554.716	1	0
554.886	1	12
555.056	1	1
555.226	1	4
555.396	1	0
555.566	1	10
555.736	1	3
555.906	1	-2
556.076	1	0
556.246	1	12
556.416	1	13
556.586	1	2
556.756	1	6
556.926	1	10
557.096	1	5
557.266	1	8
557.436	1	-2
557.606	1	7
557.776	1	-4
557.946	1	-2
558.116	1	4
558.286	1	-3
558.456	1	5
558.626	1	18
558.796	1	8
558.966	1	10
559.136	1	10
559.306	1	5
559.476	1	-3
559.646	1	-9
559.816	1	-5
559.986	1	12
560.155	1	-5
560.325	1	-5
560.495	1	7
560.665	1	3
560.835	1	4
561.005	1	-3
561.175	1	-9
561.345	1	-9
561.515	1	-6
561.685	1	7
561.855	1	-7
562.025	1	8
562.195	1	4
562.365	1	4
562.535	1	-9
562.705	1	0
562.875	1	3
563.045	1	-4
563.215	1	7
563.385	1	7
563.555	1	11
563.725	1	1
563.895	1	7
564.064	1	14
564.234	1	10
564.404	1	-2
564.574	1	16
564.744	1	7
564.914	1	4
565.084	1	-5
565.254	1	3
565.424	1	3
565.594	1	2
565.764	1	-2
565.934	1	6
566.104	1	-6
566.274	1	-2
566.444	1	14
566.614	1	-2
566.783	1	0
566.953	1	7
567.123	1	7
567.293	1	5
567.463	1	0
567.633	1	5
567.803	1	9
567.973	1	1
568.143	1	-4
568.313	1	0
568.483	1	4
568.653	1	3
568.823	1	1
568.993	1	3
569.162	1	6
569.332	1	5
569.502	1	4
569.672	1	-7
569.842	1	11
570.012	1	-10
570.182	1	1
570.352	1	5
570.522	1	-4
570.692	1	-3
570.862	1	11
571.031	1	10
571.201	1	13
571.371	1	-12
571.541	1	1
571.711	1	-1
571.881	1	11
572.051	1	-1
572.221	1	-5
572.391	1	-7
572.561	1	10
572.731	1	0
572.900	1	1
573.070	1	-2
573.240	1	7
573.410	1	-5
573.580	1	8
573.750	1	-3
573.920	1	-2
574.090	1	0
574.260	1	9
574.430	1	-4
574.599	1	-6
574.769	1	3
574.939	1	4
575.109	1	6
575.279	1	-4
575.449	1	-4
575.619	1	5
575.789	1	-7
575.959	1	-7
576.128	1	1
576.298	1	-2
576.468	1	-1
576.638	1	3
576.808	1	1
576.978	1	-1
577.148	1	-9
577.318	1	7
577.487	1	-4
577.657	1	11
577.827	1	4
577.997	1	0
578.167	1	10
578.337	1	1
578.507	1	15
578.677	1	-2
578.846	1	10
579.016	1	-5
579.186	1	11
579.356	1	-1
579.526	1	6
579.696	1	-5
579.866	1	11
580.036	1	-2
580.205	1	1
580.375	1	4
580.545	1	3
580.715	1	4
580.885	1	5
581.055	1	-5
581.225	1	-2
581.394	1	-8
581.564	1	-1
581.734	1	-1
581.904	1	5
582.074	1	5
582.244	1	4
582.414	1	8
582.583	1	10
582.753	1	-7
582.923	1	12
583.093	1	6
583.263	1	-7
583.433	1	2
583.603	1	11
583.772	1	3
583.942	1	13
584.112	1	4
584.282	1	8
584.452	1	-6
584.622	1	2
584.791	1	-1
584.961	1	9
585.131	1	5
585.301	1	4
585.471	1	-6
585.641	1	5
585.811	1	10
585.980	1	-6
586.150	1	-3
586.320	1	1
586.490	1	3
586.660	1	4
586.830	1	4
586.999	1	-2
587.169	1	1
587.339	1	2
587.509	1	0
587.679	1	7
587.849	1	8
588.018	1	4
588.188	1	3
588.358	1	11
588.528	1	-3
588.698	1	1
588.867	1	-4
589.037	1	0
589.207	1	-3
589.377	1	12
589.547	1	4
589.717	1	7
589.886	1	2
590.056	1	-3
590.226	1	7
590.396	1	-5
590.566	1	3
590.735	1	-7
590.905	1	5
591.075	1	8
591.245	1	18
591.415	1	-4
591.585	1	3
591.754	1	-8
591.924	1	2
592.094	1	2
592.264	1	13
592.434	1	8
592.603	1	2
592.773	1	11
592.943	1	-1
593.113	1	-7
593.283	1	6
593.452	1	3
593.622	1	0
593.792	1	3
593.962	1	14
594.132	1	5
594.301	1	0
594.471	1	-6
594.641	1	-1
594.811	1	3
594.981	1	-2
595.150	1	-4
595.320	1	12
595.490	1	-5
595.660	1	2
595.829	1	4
595.999	1	-4
596.169	1	6
596.339	1	0
596.509	1	2
596.678	1	2
596.848	1	7
597.018	1	-9
597.188	1	-8
597.358	1	-1
597.527	1	13
597.697	1	2
597.867	1	3
598.037	1	4
598.206	1	-7
598.376	1	9
598.546	1	-1
598.716	1	2
598.885	1	1
599.055	1	11
599.225	1	4
599.395	1	8
599.565	1	0
599.734	1	-5
599.904	1	12
600.074	1	8
600.244	1	1
600.413	1	-5
600.583	1	0
600.753	1	3
600.923	1	-4
601.092	1	0
601.262	1	-4
601.432	1	13
601.602	1	8
601.771	1	-4
601.941	1	10
602.111	1	7
602.281	1	8
602.451	1	2
602.620	1	1
602.790	1	-13
602.960	1	-1
603.130	1	-5
603.299	1	2
603.469	1	0
603.639	1	5
603.809	1	9
603.978	1	2
604.148	1	1
604.318	1	2
604.487	1	-2
604.657	1	11
604.827	1	9
604.997	1	-1
605.166	1	-3
605.336	1	2
605.506	1	-1
605.676	1	0
605.845	1	0
606.015	1	-11
606.185	1	0
606.355	1	5
606.524	1	2
606.694	1	0
606.864	1	1
607.034	1	10
607.203	1	5
607.373	1	-9
607.543	1	-2
607.712	1	-10
607.882	1	-15
608.052	1	1
608.222	1	4
608.391	1	0
608.561	1	10
608.731	1	5
608.901	1	4
609.070	1	-1
609.240	1	9
609.410	1	-3
609.579	1	-12
609.749	1	-13
609.919	1	0
610.089	1	-6
610.258	1	6
610.428	1	8
610.598	1	9
610.767	1	-6
610.937	1	3
611.107	1	-7
611.277	1	-4
611.446	1	-3
611.616	1	8
611.786	1	15
611.955	1	9
612.125	1	7
612.295	1	4
612.465	1	-3
612.634	1	4
612.804	1	4
612.974	1	3
613.143	1	4
613.313	1	0
613.483	1	0
613.652	1	-1
613.822	1	1
613.992	1	4
614.162	1	4
614.331	1	3
614.501	1	0
614.671	1	6
614.840	1	7
615.010	1	-5
615.180	1	12
615.349	1	-5
615.519	1	0
615.689	1	17
615.858	1	2
616.028	1	-4
616.198	1	5
616.368	1	6
616.537	1	-3
616.707	1	13
616.877	1	-6
617.046	1	2
617.216	1	7
617.386	1	4
617.555	1	0
617.725	1	1
617.895	1	3
618.064	1	-1
618.234	1	-8
618.404	1	-4
618.573	1	10
618.743	1	-4
618.913	1	-1
619.082	1	-6
619.252	1	8
619.422	1	-2
619.591	1	5
619.761	1	-1
619.931	1	3
620.100	1	-2
620.270	1	-3
620.440	1	1
620.609	1	5
620.779	1	5
620.949	1	3
621.118	1	1
621.288	1	2
621.458	1	6
621.627	1	4
621.797	1	1
621.967	1	3
622.136	1	-15
622.306	1	8
622.476	1	3
622.645	1	12
622.815	1	0
622.985	1	-1
623.154	1	1
623.324	1	7
623.494	1	11
623.663	1	-2
623.833	1	2
624.002	1	-10
624.172	1	-6
624.342	1	-14
624.511	1	-9
624.681	1	8
624.851	1	-2
625.020	1	-2
625.190	1	-1
625.360	1	-8
625.529	1	8
625.699	1	-2
625.869	1	7
626.038	1	3
626.208	1	4
626.377	1	6
626.547	1	2
626.717	1	-1
626.886	1	-4
627.056	1	1
627.226	1	-5
627.395	1	-6
627.565	1	-5
627.735	1	11
627.904	1	-3
628.074	1	5
628.243	1	6
628.413	1	0
628.583	1	2
628.752	1	5
628.922	1	-4
629.091	1	-5
629.261	1	3
629.431	1	17
629.600	1	13
629.770	1	-5
629.940	1	-6
630.109	1	5
630.279	1	0
630.448	1	1
630.618	1	4
630.788	1	7
630.957	1	7
631.127	1	9
631.297	1	3
631.466	1	3
631.636	1	-4
631.805	1	9
631.975	1	3
632.145	1	5
632.314	1	2
632.484	1	-4
632.653	1	4
632.823	1	4
632.993	1	2
633.162	1	4
633.332	1	-5
633.501	1	-8
633.671	1	-2
633.841	1	20
634.010	1	12
634.180	1	3
634.349	1	10
634.519	1	-15
634.689	1	2
634.858	1	-10
635.028	1	12
635.197	1	9
635.367	1	-2
635.537	1	2
635.706	1	4
635.876	1	-1
636.045	1	1
636.215	1	7
636.384	1	8
636.554	1	1
636.724	1	3
636.893	1	4
637.063	1	4
637.232	1	4
637.402	1	-9
637.572	1	3
637.741	1	-4
637.911	1	6
638.080	1	0
638.250	1	9
638.419	1	9
638.589	1	6
638.759	1	2
638.928	1	3
639.098	1	0
639.267	1	6
639.437	1	-3
639.606	1	4
639.776	1	-3
639.946	1	-1
640.115	1	-1
640.285	1	11
640.454	1	1
640.624	1	9
640.793	1	8
640.963	1	11
641.132	1	-19
641.302	1	10
641.472	1	-2
641.641	1	5
641.811	1	3
641.980	1	3
642.150	1	-3
642.319	1	6
642.489	1	5
642.659	1	2
642.828	1	-5
642.998	1	3
643.167	1	10
643.337	1	0
643.506	1	-1
643.676	1	6
643.845	1	-3
644.015	1	4
644.184	1	2
644.354	1	-2
644.524	1	-5
644.693	1	-1
644.863	1	-1
645.032	1	-3
645.202	1	-3
645.371	1	6
645.541	1	5
645.710	1	14
645.880	1	4
646.049	1	4
646.219	1	-2
646.388	1	6
646.558	1	-3
646.728	1	-1
646.897	1	3
647.067	1	-4
647.236	1	3
647.406	1	6
647.575	1	5
647.745	1	5
647.914	1	7
648.084	1	2
648.253	1	8
648.423	1	-1
648.592	1	7
648.762	1	6
648.931	1	15
649.101	1	3
649.270	1	-3
649.440	1	-1
649.610	1	-1
649.779	1	11
649.949	1	-11
650.118	1	7
650.288	1	0
650.457	1	7
650.627	1	-4
650.796	1	18
650.966	1	-5
651.135	1	4
651.305	1	4
651.474	1	-1
651.644	1	-12
651.813	1	-6
651.983	1	8
652.152	1	1
652.322	1	-1
652.491	1	21
652.661	1	16
652.830	1	8
653.000	1	6
653.169	1	-1
653.339	1	-1
653.508	1	0
653.678	1	1
653.847	1	-1
654.017	1	10
654.186	1	2
654.356	1	1
654.525	1	2
654.695	1	6
654.864	1	7
655.034	1	6
655.203	1	5
655.373	1	6
655.542	1	10
655.712	1	-1
655.881	1	-7
656.051	1	-2
656.220	1	12
656.390	1	3
656.559	1	0
656.729	1	-3
656.898	1	-4
657.068	1	6
657.237	1	9
657.406	1	10
657.576	1	-8
657.745	1	-4
657.915	1	5
658.084	1	-1
658.254	1	2
658.423	1	-3
658.593	1	7
658.762	1	4
658.932	1	7
659.101	1	-5
659.271	1	11
659.440	1	4
659.610	1	11
659.779	1	4
659.949	1	1
660.118	1	5
660.288	1	0
660.457	1	-1
660.626	1	-4
660.796	1	8
660.965	1	10
661.135	1	-2
661.304	1	2
661.474	1	9
661.643	1	9
661.813	1	10
661.982	1	-6
662.152	1	-2
662.321	1	-4
662.491	1	2
662.660	1	0
662.829	1	2
662.999	1	-3
663.168	1	3
663.338	1	9
663.507	1	-5
663.677	1	3
663.846	1	13
664.016	1	-11
664.185	1	0
664.354	1	4
664.524	1	-2
664.693	1	12
664.863	1	-8
665.032	1	2
665.202	1	9
665.371	1	-6
665.541	1	10
665.710	1	4
665.879	1	1
666.049	1	2
666.218	1	6
666.388	1	2
666.557	1	4
666.727	1	1
666.896	1	7
667.065	1	-5
667.235	1	9
667.404	1	5
667.574	1	12
667.743	1	-5
667.913	1	-6
668.082	1	1
668.251	1	10
668.421	1	-6
668.590	1	6
668.760	1	6
668.929	1	13
669.099	1	2
669.268	1	4
669.437	1	5
669.607	1	-7
669.776	1	0
669.946	1	5
670.115	1	3
670.285	1	5
670.454	1	-3
670.623	1	1
670.793	1	6
670.962	1	-3
671.132	1	-6
671.301	1	-9
671.470	1	-4
671.640	1	-5
671.809	1	18
671.979	1	4
672.148	1	8
672.317	1	4
672.487	1	8
672.656	1	7
672.826	1	11
672.995	1	-1
673.164	1	4
673.334	1	-2
673.503	1	-2
673.673	1	-4
673.842	1	-2
674.011	1	3
674.181	1	-2
674.350	1	5
674.520	1	-5
674.689	1	7
674.858	1	5
675.028	1	15
675.197	1	4
675.367	1	2
675.536	1	12
675.705	1	-4
675.875	1	5
676.044	1	-2
676.214	1	-1
676.383	1	7
676.552	1	-2
676.722	1	-5
676.891	1	-1
677.060	1	-11
677.230	1	4
677.399	1	2
677.569	1	-1
677.738	1	-4
677.907	1	4
678.077	1	-6
678.246	1	-3
678.416	1	4
678.585	1	-5
678.754	1	2
678.924	1	-1
679.093	1	7
679.262	1	-6
679.432	1	2
679.601	1	-7
679.771	1	-3
679.940	1	0
680.109	1	5
680.279	1	-11
680.448	1	-7
680.617	1	13
680.787	1	-1
680.956	1	9
681.125	1	-3
681.295	1	2
681.464	1	3
681.634	1	4
681.803	1	0
681.972	1	1
682.142	1	0
682.311	1	-6
682.480	1	-1
682.650	1	5
682.819	1	-14
682.988	1	15
683.158	1	-3
683.327	1	8
683.496	1	0
683.666	1	3
683.835	1	6
684.004	1	2
684.174	1	0
684.343	1	2
684.512	1	12
684.682	1	0
684.851	1	15
685.021	1	0
685.190	1	10
685.359	1	4
685.529	1	3
685.698	1	5
685.867	1	-4
686.037	1	1
686.206	1	12
686.375	1	12
686.545	1	13
686.714	1	12
686.883	1	-2
687.053	1	13
687.222	1	6
687.391	1	3
687.561	1	-8
687.730	1	2
687.899	1	-2
688.069	1	11
688.238	1	-1
688.407	1	-2
688.577	1	10
688.746	1	3
