340.368	1	10
340.539	1	1
340.710	1	8
340.881	1	4
341.052	1	-12
341.223	1	8
341.394	1	2
341.565	1	-2
341.737	1	0
341.908	1	1
342.079	1	12
342.250	1	-1
342.421	1	-3
342.592	1	10
342.763	1	-10
342.934	1	8
343.105	1	-11
343.276	1	-2
343.447	1	-3
343.618	1	-9
343.789	1	-4
343.960	1	-1
344.131	1	3
344.302	1	7
344.473	1	7
344.644	1	15
344.815	1	7
344.986	1	1
345.157	1	9
345.328	1	3
345.499	1	9
345.670	1	2
345.841	1	6
346.012	1	-4
346.183	1	5
346.354	1	1
346.526	1	1
346.697	1	-7
346.868	1	-1
347.039	1	6
347.210	1	4
347.381	1	1
347.552	1	2
347.723	1	6
347.894	1	2
348.065	1	-1
348.236	1	-4
348.407	1	3
348.578	1	10
348.749	1	0
348.920	1	11
349.091	1	8
349.262	1	-3
349.433	1	9
349.604	1	-1
349.775	1	0
349.946	1	-3
350.117	1	2
350.288	1	1
350.459	1	9
350.630	1	-2
350.801	1	5
350.972	1	17
351.143	1	13
351.314	1	-11
351.485	1	-6
351.656	1	-3
351.827	1	4
351.998	1	1
352.169	1	11
352.340	1	7
352.511	1	6
352.682	1	5
352.853	1	0
353.024	1	7
353.195	1	8
353.366	1	-1
353.537	1	1
353.708	1	5
353.879	1	7
354.050	1	0
354.221	1	5
354.392	1	-4
354.563	1	-2
354.734	1	-1
354.905	1	13
355.076	1	-8
355.247	1	8
355.418	1	-1
355.589	1	3
355.760	1	0
355.931	1	2
356.102	1	6
356.273	1	6
356.444	1	1
356.615	1	1
356.785	1	3
356.956	1	4
357.127	1	13
357.298	1	5
357.469	1	0
357.640	1	4
357.811	1	3
357.982	1	13
358.153	1	6
358.324	1	7
358.495	1	2
358.666	1	9
358.837	1	4
359.008	1	14
359.179	1	10
359.350	1	-6
359.521	1	4
359.692	1	4
359.863	1	-6
360.034	1	6
360.205	1	7
360.376	1	-3
360.547	1	17
360.718	1	0
360.889	1	13
361.060	1	11
361.231	1	12
361.401	1	3
361.572	1	11
361.743	1	-1
361.914	1	7
362.085	1	4
362.256	1	13
362.427	1	5
362.598	1	9
362.769	1	16
362.940	1	5
363.111	1	22
363.282	1	16
363.453	1	3
363.624	1	23
363.795	1	19
363.966	1	15
364.137	1	8
364.308	1	12
364.478	1	14
364.649	1	18
364.820	1	18
364.991	1	17
365.162	1	13
365.333	1	19
365.504	1	7
365.675	1	19
365.846	1	6
366.017	1	22
366.188	1	17
366.359	1	27
366.530	1	9
366.701	1	13
366.871	1	24
367.042	1	14
367.213	1	11
367.384	1	18
367.555	1	14
367.726	1	31
367.897	1	22
368.068	1	9
368.239	1	19
368.410	1	20
368.581	1	20
368.752	1	23
368.923	1	12
369.093	1	20
369.264	1	8
369.435	1	23
369.606	1	26
369.777	1	23
369.948	1	31
370.119	1	29
370.290	1	25
370.461	1	19
370.632	1	38
370.803	1	29
370.973	1	1
371.144	1	25
371.315	1	33
371.486	1	24
371.657	1	30
371.828	1	25
371.999	1	38
372.170	1	30
372.341	1	28
372.512	1	24
372.682	1	29
372.853	1	39
373.024	1	38
373.195	1	43
373.366	1	33
373.537	1	39
373.708	1	27
373.879	1	39
374.050	1	42
374.220	1	21
374.391	1	30
374.562	1	33
374.733	1	21
374.904	1	31
375.075	1	34
375.246	1	33
375.417	1	38
375.588	1	20
375.758	1	33
375.929	1	33
376.100	1	19
376.271	1	27
376.442	1	21
376.613	1	20
376.784	1	22
376.955	1	25
377.125	1	23
377.296	1	25
377.467	1	27
377.638	1	18
377.809	1	37
377.980	1	20
378.151	1	16
378.321	1	32
378.492	1	34
378.663	1	17
378.834	1	37
379.005	1	16
379.176	1	36
379.347	1	20
379.518	1	20
379.688	1	26
379.859	1	30
380.030	1	20
380.201	1	17
380.372	1	25
380.543	1	24
380.714	1	17
380.884	1	27
381.055	1	5
381.226	1	14
381.397	1	10
381.568	1	13
381.739	1	12
381.910	1	11
382.080	1	26
382.251	1	19
382.422	1	27
382.593	1	15
382.764	1	2
382.935	1	8
383.105	1	25
383.276	1	11
383.447	1	15
383.618	1	14
383.789	1	28
383.960	1	8
384.130	1	13
384.301	1	6
384.472	1	21
384.643	1	9
384.814	1	6
384.985	1	29
385.156	1	18
385.326	1	7
385.497	1	6
385.668	1	10
385.839	1	19
386.010	1	16
386.180	1	6
386.351	1	8
386.522	1	10
386.693	1	8
386.864	1	12
387.035	1	16
387.205	1	4
387.376	1	12
387.547	1	-4
387.718	1	10
387.889	1	18
388.060	1	10
388.230	1	9
388.401	1	2
388.572	1	14
388.743	1	6
388.914	1	6
389.084	1	8
389.255	1	-2
389.426	1	9
389.597	1	8
389.768	1	16
389.939	1	18
390.109	1	7
390.280	1	8
390.451	1	0
390.622	1	18
390.793	1	10
390.963	1	7
391.134	1	-1
391.305	1	16
391.476	1	7
391.647	1	1
391.817	1	15
391.988	1	8
392.159	1	8
392.330	1	6
392.501	1	4
392.671	1	10
392.842	1	4
393.013	1	11
393.184	1	8
393.355	1	6
393.525	1	9
393.696	1	5
393.867	1	8
394.038	1	9
394.208	1	2
394.379	1	9
394.550	1	6
394.721	1	10
394.892	1	10
395.062	1	1
395.233	1	2
395.404	1	8
395.575	1	6
395.746	1	8
395.916	1	8
396.087	1	3
396.258	1	4
396.429	1	10
396.599	1	15
396.770	1	6
396.941	1	1
397.112	1	8
397.283	1	4
397.453	1	14
397.624	1	13
397.795	1	13
397.966	1	10
398.136	1	2
398.307	1	13
398.478	1	2
398.649	1	-2
398.819	1	6
398.990	1	0
399.161	1	14
399.332	1	8
399.503	1	-4
399.673	1	6
399.844	1	1
400.015	1	10
400.186	1	1
400.356	1	4
400.527	1	6
400.698	1	15
400.869	1	-1
401.039	1	12
401.210	1	11
401.381	1	13
401.552	1	-1
401.722	1	2
401.893	1	-1
402.064	1	8
402.235	1	6
402.405	1	11
402.576	1	8
402.747	1	2
402.918	1	9
403.088	1	-2
403.259	1	4
403.430	1	6
403.601	1	3
403.771	1	12
403.942	1	-8
404.113	1	-7
404.284	1	8
404.454	1	10
404.625	1	11
404.796	1	3
404.967	1	6
405.137	1	2
405.308	1	9
405.479	1	5
405.649	1	5
405.820	1	1
405.991	1	16
406.162	1	5
406.332	1	8
406.503	1	4
406.674	1	9
406.845	1	4
407.015	1	9
407.186	1	-3
407.357	1	1
407.527	1	8
407.698	1	6
407.869	1	13
408.040	1	4
408.210	1	-3
408.381	1	0
408.552	1	7
408.722	1	10
408.893	1	9
409.064	1	-1
409.235	1	0
409.405	1	4
409.576	1	8
409.747	1	-2
409.917	1	2
410.088	1	16
410.259	1	8
410.430	1	5
410.600	1	1
410.771	1	0
410.942	1	-3
411.112	1	13
411.283	1	8
411.454	1	-4
411.625	1	7
411.795	1	8
411.966	1	6
412.137	1	7
412.307	1	-6
412.478	1	3
412.649	1	7
412.819	1	1
412.990	1	1
413.161	1	2
413.332	1	12
413.502	1	6
413.673	1	6
413.844	1	-1
414.014	1	4
414.185	1	-4
414.356	1	9
414.526	1	12
414.697	1	6
414.868	1	11
415.038	1	6
415.209	1	9
415.380	1	-7
415.550	1	0
415.721	1	0
415.892	1	2
416.063	1	1
416.233	1	5
416.404	1	2
416.575	1	10
416.745	1	-8
416.916	1	-5
417.087	1	12
417.257	1	7
417.428	1	-6
417.599	1	11
417.769	1	6
417.940	1	3
418.111	1	10
418.281	1	6
418.452	1	2
418.623	1	0
418.793	1	7
418.964	1	8
419.135	1	3
419.305	1	-3
419.476	1	7
419.647	1	-1
419.817	1	-8
419.988	1	2
420.159	1	8
420.329	1	7
420.500	1	-12
420.671	1	7
420.841	1	-3
421.012	1	8
421.183	1	-1
421.353	1	1
421.524	1	1
421.695	1	2
421.865	1	11
422.036	1	6
422.206	1	6
422.377	1	5
422.548	1	-1
422.718	1	1
422.889	1	-9
423.060	1	2
423.230	1	7
423.401	1	2
423.572	1	-2
423.742	1	13
423.913	1	-3
424.084	1	0
424.254	1	4
424.425	1	1
424.595	1	3
424.766	1	4
424.937	1	-6
425.107	1	-6
425.278	1	1
425.449	1	-4
425.619	1	5
425.790	1	3
425.961	1	-1
426.131	1	2
426.302	1	3
426.472	1	2
426.643	1	3
426.814	1	2
426.984	1	-2
427.155	1	6
427.326	1	2
427.496	1	4
427.667	1	1
427.837	1	6
428.008	1	2
428.179	1	-6
428.349	1	5
428.520	1	2
428.691	1	6
428.861	1	14
429.032	1	7
429.202	1	-1
429.373	1	-8
429.544	1	-3
429.714	1	-4
429.885	1	12
430.055	1	11
430.226	1	1
430.397	1	-6
430.567	1	16
430.738	1	13
430.909	1	0
431.079	1	-4
431.250	1	8
431.420	1	1
431.591	1	8
431.762	1	4
431.932	1	10
432.103	1	10
432.273	1	1
432.444	1	-4
432.615	1	-3
432.785	1	1
432.956	1	4
433.126	1	6
433.297	1	3
433.468	1	0
433.638	1	4
433.809	1	5
433.979	1	15
434.150	1	4
434.320	1	5
434.491	1	7
434.662	1	1
434.832	1	0
435.003	1	6
435.173	1	6
435.344	1	7
435.515	1	-1
435.685	1	11
435.856	1	12
436.026	1	-4
436.197	1	14
436.368	1	1
436.538	1	6
436.709	1	-7
436.879	1	-1
437.050	1	11
437.220	1	24
437.391	1	8
437.562	1	8
437.732	1	10
437.903	1	4
438.073	1	-4
438.244	1	11
438.414	1	9
438.585	1	6
438.756	1	6
438.926	1	3
439.097	1	-1
439.267	1	2
439.438	1	6
439.608	1	10
439.779	1	7
439.949	1	6
440.120	1	8
440.291	1	3
440.461	1	0
440.632	1	6
440.802	1	6
440.973	1	8
441.143	1	4
441.314	1	6
441.485	1	4
441.655	1	13
441.826	1	12
441.996	1	3
442.167	1	3
442.337	1	11
442.508	1	6
442.678	1	8
442.849	1	6
443.019	1	3
443.190	1	2
443.361	1	6
443.531	1	1
443.702	1	2
443.872	1	15
444.043	1	-6
444.213	1	8
444.384	1	-2
444.554	1	-8
444.725	1	-8
444.895	1	2
445.066	1	3
445.237	1	14
445.407	1	4
445.578	1	10
445.748	1	-3
445.919	1	5
446.089	1	-4
446.260	1	1
446.430	1	5
446.601	1	2
446.771	1	5
446.942	1	8
447.112	1	2
447.283	1	15
447.453	1	-9
447.624	1	-4
447.794	1	6
447.965	1	-2
448.135	1	1
448.306	1	6
448.477	1	2
448.647	1	10
448.818	1	3
448.988	1	-5
449.159	1	-1
449.329	1	4
449.500	1	2
449.670	1	7
449.841	1	8
450.011	1	8
450.182	1	9
450.352	1	8
450.523	1	7
450.693	1	0
450.864	1	5
451.034	1	6
451.205	1	2
451.375	1	-12
451.546	1	4
451.716	1	0
451.887	1	7
452.057	1	-5
452.228	1	14
452.398	1	6
452.569	1	0
452.739	1	5
452.910	1	3
453.080	1	3
453.251	1	6
453.421	1	-1
453.592	1	6
453.762	1	4
453.933	1	0
454.103	1	6
454.274	1	0
454.444	1	2
454.615	1	-4
454.785	1	-5
454.956	1	-1
455.126	1	5
455.297	1	7
455.467	1	9
455.638	1	-10
455.808	1	10
455.979	1	2
456.149	1	-5
456.320	1	2
456.490	1	9
456.661	1	6
456.831	1	0
457.001	1	12
457.172	1	-4
457.342	1	11
457.513	1	-2
457.683	1	8
457.854	1	14
458.024	1	0
458.195	1	-8
458.365	1	5
458.536	1	-3
458.706	1	8
458.877	1	-5
459.047	1	-9
459.218	1	-2
459.388	1	5
459.559	1	4
459.729	1	7
459.899	1	8
460.070	1	7
460.240	1	10
460.411	1	7
460.581	1	2
460.752	1	-1
460.922	1	3
461.093	1	4
461.263	1	-4
461.434	1	-2
461.604	1	-16
461.775	1	1
461.945	1	-4
462.115	1	4
462.286	1	13
462.456	1	4
462.627	1	-2
462.797	1	3
462.968	1	9
463.138	1	12
463.309	1	0
463.479	1	-2
463.649	1	10
463.820	1	-6
463.990	1	1
464.161	1	-4
464.331	1	4
464.502	1	10
464.672	1	1
464.843	1	4
465.013	1	15
465.183	1	-9
465.354	1	0
465.524	1	3
465.695	1	1
465.865	1	-1
466.036	1	1
466.206	1	8
466.376	1	5
466.547	1	0
466.717	1	2
466.888	1	4
467.058	1	0
467.229	1	4
467.399	1	5
467.569	1	13
467.740	1	-11
467.910	1	-2
468.081	1	-2
468.251	1	6
468.422	1	-5
468.592	1	1
468.762	1	17
468.933	1	0
469.103	1	-2
469.274	1	0
469.444	1	13
469.614	1	-1
469.785	1	-6
469.955	1	0
470.126	1	5
470.296	1	-1
470.467	1	-6
470.637	1	-5
470.807	1	6
470.978	1	-1
471.148	1	6
471.319	1	-6
471.489	1	14
471.659	1	2
471.830	1	2
472.000	1	5
472.171	1	6
472.341	1	0
472.511	1	1
472.682	1	4
472.852	1	10
473.023	1	-9
473.193	1	-3
473.363	1	2
473.534	1	-8
473.704	1	0
473.875	1	14
474.045	1	4
474.215	1	5
474.386	1	10
474.556	1	4
474.727	1	9
474.897	1	-3
475.067	1	5
475.238	1	-3
475.408	1	0
475.578	1	1
475.749	1	7
475.919	1	1
476.090	1	13
476.260	1	4
476.430	1	-2
476.601	1	1
476.771	1	5
476.942	1	-4
477.112	1	3
477.282	1	-1
477.453	1	9
477.623	1	4
477.793	1	-3
477.964	1	-7
478.134	1	3
478.305	1	3
478.475	1	-8
478.645	1	0
478.816	1	12
478.986	1	-1
479.156	1	1
479.327	1	-13
479.497	1	4
479.667	1	-4
479.838	1	1
480.008	1	-3
480.179	1	7
480.349	1	-2
480.519	1	3
480.690	1	-3
480.860	1	6
481.030	1	0
481.201	1	0
481.371	1	10
481.541	1	-1
481.712	1	3
481.882	1	-9
482.053	1	4
482.223	1	1
482.393	1	5
482.564	1	0
482.734	1	6
482.904	1	1
483.075	1	7
483.245	1	10
483.415	1	8
483.586	1	4
483.756	1	1
483.926	1	3
484.097	1	-2
484.267	1	-12
484.437	1	-4
484.608	1	1
484.778	1	7
484.948	1	5
485.119	1	0
485.289	1	-1
485.459	1	11
485.630	1	11
485.800	1	8
485.970	1	-2
486.141	1	0
486.311	1	5
486.481	1	-11
486.652	1	9
486.822	1	4
486.992	1	5
487.163	1	6
487.333	1	0
487.503	1	5
487.674	1	10
487.844	1	-7
488.014	1	2
488.185	1	17
488.355	1	6
488.525	1	5
488.696	1	-4
488.866	1	-2
489.036	1	2
489.207	1	7
489.377	1	-4
489.547	1	8
489.718	1	2
489.888	1	11
490.058	1	2
490.228	1	9
490.399	1	-7
490.569	1	0
490.739	1	11
490.910	1	4
491.080	1	-3
491.250	1	1
491.421	1	1
491.591	1	19
491.761	1	6
491.932	1	8
492.102	1	4
492.272	1	-2
492.442	1	0
492.613	1	6
492.783	1	10
492.953	1	10
493.124	1	-1
493.294	1	1
493.464	1	5
493.635	1	-4
493.805	1	0
493.975	1	-2
494.145	1	-1
494.316	1	3
494.486	1	-5
494.656	1	3
494.827	1	-4
494.997	1	-2
495.167	1	-4
495.337	1	13
495.508	1	4
495.678	1	5
495.848	1	15
496.019	1	-6
496.189	1	6
496.359	1	-1
496.529	1	3
496.700	1	-1
496.870	1	1
497.040	1	3
497.211	1	-4
497.381	1	-1
497.551	1	1
497.721	1	12
497.892	1	3
498.062	1	16
498.232	1	-11
498.403	1	5
498.573	1	7
498.743	1	8
498.913	1	-3
499.084	1	-5
499.254	1	1
499.424	1	7
499.594	1	3
499.765	1	-2
499.935	1	13
500.105	1	-3
500.275	1	-8
500.446	1	8
500.616	1	-4
500.786	1	-9
500.956	1	5
501.127	1	2
501.297	1	7
501.467	1	-10
501.638	1	-5
501.808	1	6
501.978	1	6
502.148	1	-4
502.319	1	6
502.489	1	10
502.659	1	-9
502.829	1	3
503.000	1	4
503.170	1	-1
503.340	1	9
503.510	1	-6
503.681	1	7
503.851	1	1
504.021	1	5
504.191	1	5
504.362	1	2
504.532	1	-7
504.702	1	10
504.872	1	-1
505.042	1	-6
505.213	1	3
505.383	1	8
505.553	1	4
505.723	1	-8
505.894	1	3
506.064	1	6
506.234	1	8
506.404	1	-1
506.575	1	1
506.745	1	5
506.915	1	-1
507.085	1	9
507.256	1	1
507.426	1	5
507.596	1	2
507.766	1	9
507.936	1	-3
508.107	1	-1
508.277	1	2
508.447	1	4
508.617	1	4
508.788	1	-6
508.958	1	5
509.128	1	-1
509.298	1	-7
509.468	1	-2
509.639	1	4
509.809	1	1
509.979	1	17
510.149	1	5
510.319	1	9
510.490	1	-5
510.660	1	4
510.830	1	8
511.000	1	-2
511.171	1	-15
511.341	1	-2
511.511	1	13
511.681	1	0
511.851	1	10
512.022	1	-5
512.192	1	0
512.362	1	4
512.532	1	5
512.702	1	-2
512.873	1	2
513.043	1	7
513.213	1	2
513.383	1	2
513.553	1	-6
513.724	1	6
513.894	1	2
514.064	1	-3
514.234	1	-1
514.404	1	-2
514.575	1	2
514.745	1	-3
514.915	1	-15
515.085	1	7
515.255	1	10
515.425	1	7
515.596	1	3
515.766	1	5
515.936	1	8
516.106	1	-2
516.276	1	5
516.447	1	4
516.617	1	2
516.787	1	-8
516.957	1	10
517.127	1	14
517.297	1	-5
517.468	1	7
517.638	1	-4
517.808	1	1
517.978	1	4
518.148	1	11
518.319	1	9
518.489	1	1
518.659	1	2
518.829	1	0
518.999	1	-11
519.169	1	-11
519.340	1	-2
519.510	1	-4
519.680	1	4
519.850	1	4
520.020	1	10
520.190	1	7
520.361	1	7
520.531	1	-3
520.701	1	2
520.871	1	-16
521.041	1	2
521.211	1	0
521.382	1	11
521.552	1	4
521.722	1	6
521.892	1	-6
522.062	1	3
522.232	1	4
522.402	1	3
522.573	1	6
522.743	1	-4
522.913	1	-2
523.083	1	1
523.253	1	-1
523.423	1	10
523.593	1	-7
523.764	1	0
523.934	1	8
524.104	1	3
524.274	1	0
524.444	1	-7
524.614	1	0
524.784	1	15
524.955	1	12
525.125	1	8
525.295	1	1
525.465	1	-4
525.635	1	1
525.805	1	5
525.975	1	1
526.146	1	7
526.316	1	-3
526.486	1	7
526.656	1	2
526.826	1	-7
526.996	1	15
527.166	1	5
527.337	1	18
527.507	1	4
527.677	1	4
527.847	1	-1
528.017	1	-6
528.187	1	-3
528.357	1	5
528.527	1	4
528.698	1	12
528.868	1	-2
529.038	1	-7
529.208	1	3
529.378	1	-4
529.548	1	-2
529.718	1	6
529.888	1	11
530.058	1	1
530.229	1	11
530.399	1	2
530.569	1	-1
530.739	1	5
530.909	1	0
531.079	1	-19
531.249	1	10
531.419	1	5
531.589	1	-3
531.760	1	-2
531.930	1	-2
532.100	1	-8
532.270	1	3
532.440	1	-4
532.610	1	8
532.780	1	-5
532.950	1	-4
533.120	1	11
533.290	1	-2
533.461	1	-2
533.631	1	7
533.801	1	-6
533.971	1	-2
534.141	1	-3
534.311	1	-2
534.481	1	-10
534.651	1	-4
534.821	1	-8
534.991	1	-4
535.162	1	8
535.332	1	8
535.502	1	7
535.672	1	2
535.842	1	0
536.012	1	2
536.182	1	-2
536.352	1	3
536.522	1	1
536.692	1	5
536.862	1	7
537.032	1	7
537.203	1	21
537.373	1	14
537.543	1	8
537.713	1	-6
537.883	1	-2
538.053	1	3
538.223	1	3
538.393	1	1
538.563	1	6
538.733	1	9
538.903	1	0
539.073	1	-9
539.243	1	-10
539.413	1	-5
539.584	1	8
539.754	1	-1
539.924	1	4
540.094	1	1
540.264	1	2
540.434	1	3
540.604	1	9
540.774	1	15
540.944	1	1
541.114	1	10
541.284	1	-6
541.454	1	10
541.624	1	-10
541.794	1	15
541.964	1	9
542.134	1	1
542.305	1	8
542.475	1	2
542.645	1	0
542.815	1	10
542.985	1	-3
543.155	1	5
543.325	1	-9
543.495	1	10
543.665	1	2
543.835	1	5
544.005	1	1
544.175	1	1
544.345	1	2
544.515	1	-2
544.685	1	-1
544.855	1	2
545.025	1	6
545.195	1	-1
545.365	1	-2
545.535	1	10
545.705	1	2
545.875	1	8
546.045	1	1
546.216	1	4
546.386	1	-3
546.556	1	4
546.726	1	5
546.896	1	5
547.066	1	0
547.236	1	1
547.406	1	1
547.576	1	7
547.746	1	5
547.916	1	3
548.086	1	5
548.256	1	5
548.426	1	-4
548.596	1	2
548.766	1	9
548.936	1	-5
549.106	1	6
549.276	1	3
549.446	1	10
549.616	1	0
549.786	1	12
549.956	1	7
550.126	1	3
550.296	1	14
550.466	1	-4
550.636	1	1
550.806	1	-1
550.976	1	-1
551.146	1	9
551.316	1	9
551.486	1	-3
551.656	1	4
551.826	1	7
551.996	1	6
552.166	1	0
552.336	1	6
552.506	1	-4
552.676	1	14
552.846	1	5
553.016	1	5
553.186	1	4
553.356	1	-4
553.526	1	1
553.696	1	15
553.866	1	2
554.036	1	4
554.206	1	2
554.376	1	9
554.546	1	4
554.716	1	-8
554.886	1	16
555.056	1	5
555.226	1	12
555.396	1	4
555.566	1	16
555.736	1	3
555.906	1	-2
556.076	1	5
556.246	1	0
556.416	1	3
556.586	1	7
556.756	1	1
556.926	1	12
557.096	1	3
557.266	1	7
557.436	1	-5
557.606	1	0
557.776	1	3
557.946	1	-5
558.116	1	-4
558.286	1	2
558.456	1	0
558.626	1	10
558.796	1	0
558.966	1	2
559.136	1	11
559.306	1	6
559.476	1	0
559.646	1	0
559.816	1	-5
559.986	1	8
560.155	1	-5
560.325	1	-6
560.495	1	6
560.665	1	-2
560.835	1	0
561.005	1	-6
561.175	1	-7
561.345	1	-6
561.515	1	5
561.685	1	-4
561.855	1	-3
562.025	1	7
562.195	1	2
562.365	1	-3
562.535	1	-3
562.705	1	0
562.875	1	7
563.045	1	-2
563.215	1	5
563.385	1	11
563.555	1	5
563.725	1	-5
563.895	1	3
564.064	1	9
564.234	1	9
564.404	1	-3
564.574	1	17
564.744	1	1
564.914	1	-2
565.084	1	12
565.254	1	3
565.424	1	-1
565.594	1	2
565.764	1	6
565.934	1	0
566.104	1	4
566.274	1	-4
566.444	1	11
566.614	1	1
566.783	1	-2
566.953	1	8
567.123	1	0
567.293	1	3
567.463	1	2
567.633	1	2
567.803	1	4
567.973	1	10
568.143	1	5
568.313	1	-1
568.483	1	0
568.653	1	8
568.823	1	7
568.993	1	10
569.162	1	3
569.332	1	7
569.502	1	3
569.672	1	-9
569.842	1	10
570.012	1	-4
570.182	1	6
570.352	1	-3
570.522	1	-1
570.692	1	-4
570.862	1	18
571.031	1	4
571.201	1	13
571.371	1	-12
571.541	1	3
571.711	1	-8
571.881	1	4
572.051	1	8
572.221	1	3
572.391	1	4
572.561	1	9
572.731	1	-5
572.900	1	3
573.070	1	1
573.240	1	11
573.410	1	0
573.580	1	6
573.750	1	8
573.920	1	-5
574.090	1	-4
574.260	1	-2
574.430	1	-3
574.599	1	-7
574.769	1	4
574.939	1	-2
575.109	1	-2
575.279	1	-5
575.449	1	-2
575.619	1	0
575.789	1	-1
575.959	1	2
576.128	1	-11
576.298	1	-5
576.468	1	4
576.638	1	1
576.808	1	0
576.978	1	-1
577.148	1	-7
577.318	1	-5
577.487	1	4
577.657	1	7
577.827	1	3
577.997	1	1
578.167	1	7
578.337	1	4
578.507	1	9
578.677	1	-3
578.846	1	12
579.016	1	4
579.186	1	11
579.356	1	10
579.526	1	1
579.696	1	-4
579.866	1	-1
580.036	1	2
580.205	1	7
580.375	1	-1
580.545	1	6
580.715	1	2
580.885	1	4
581.055	1	-7
581.225	1	-2
581.394	1	1
581.564	1	-8
581.734	1	-6
581.904	1	10
582.074	1	10
582.244	1	12
582.414	1	7
582.583	1	12
582.753	1	-12
582.923	1	3
583.093	1	1
583.263	1	1
583.433	1	-2
583.603	1	11
583.772	1	11
583.942	1	3
584.112	1	1
584.282	1	3
584.452	1	1
584.622	1	4
584.791	1	-2
584.961	1	3
585.131	1	9
585.301	1	4
585.471	1	8
585.641	1	13
585.811	1	9
585.980	1	0
586.150	1	5
586.320	1	6
586.490	1	4
586.660	1	5
586.830	1	6
586.999	1	8
587.169	1	-4
587.339	1	0
587.509	1	3
587.679	1	2
587.849	1	8
588.018	1	-9
588.188	1	1
588.358	1	16
588.528	1	3
588.698	1	1
588.867	1	-3
589.037	1	3
589.207	1	-4
589.377	1	9
589.547	1	8
589.717	1	4
589.886	1	-3
590.056	1	-3
590.226	1	4
590.396	1	-1
590.566	1	0
590.735	1	-8
590.905	1	4
591.075	1	8
591.245	1	6
591.415	1	6
591.585	1	4
591.754	1	-3
591.924	1	-5
592.094	1	3
592.264	1	0
592.434	1	11
592.603	1	11
592.773	1	10
592.943	1	-5
593.113	1	-14
593.283	1	3
593.452	1	2
593.622	1	1
593.792	1	-2
593.962	1	9
594.132	1	6
594.301	1	-3
594.471	1	3
594.641	1	6
594.811	1	-3
594.981	1	-17
595.150	1	-1
595.320	1	4
595.490	1	-9
595.660	1	7
595.829	1	9
595.999	1	-6
596.169	1	1
596.339	1	1
596.509	1	6
596.678	1	2
596.848	1	-3
597.018	1	-4
597.188	1	3
597.358	1	-1
597.527	1	9
597.697	1	1
597.867	1	7
598.037	1	5
598.206	1	0
598.376	1	0
598.546	1	-5
598.716	1	1
598.885	1	9
599.055	1	3
599.225	1	8
599.395	1	-5
599.565	1	-7
599.734	1	-7
599.904	1	5
600.074	1	6
600.244	1	16
600.413	1	0
600.583	1	-2
600.753	1	3
600.923	1	-2
601.092	1	8
601.262	1	-3
601.432	1	5
601.602	1	0
601.771	1	1
601.941	1	12
602.111	1	13
602.281	1	13
602.451	1	2
602.620	1	-3
602.790	1	-9
602.960	1	-14
603.130	1	0
603.299	1	-1
603.469	1	9
603.639	1	1
603.809	1	14
603.978	1	-2
604.148	1	-4
604.318	1	2
604.487	1	-3
604.657	1	6
604.827	1	7
604.997	1	5
605.166	1	-3
605.336	1	-1
605.506	1	-11
605.676	1	2
605.845	1	2
606.015	1	-9
606.185	1	8
606.355	1	-3
606.524	1	3
606.694	1	-4
606.864	1	7
607.034	1	8
607.203	1	14
607.373	1	-2
607.543	1	-2
607.712	1	5
607.882	1	-8
608.052	1	2
608.222	1	-2
608.391	1	7
608.561	1	-2
608.731	1	2
608.901	1	2
609.070	1	9
609.240	1	0
609.410	1	3
609.579	1	-4
609.749	1	-2
609.919	1	-4
610.089	1	4
610.258	1	4
610.428	1	-3
610.598	1	5
610.767	1	5
610.937	1	5
611.107	1	-5
611.277	1	-5
611.446	1	-1
611.616	1	-1
611.786	1	5
611.955	1	11
612.125	1	-4
612.295	1	4
612.465	1	-7
612.634	1	4
612.804	1	3
612.974	1	-11
613.143	1	4
613.313	1	-6
613.483	1	-2
613.652	1	8
613.822	1	5
613.992	1	1
614.162	1	4
614.331	1	3
614.501	1	0
614.671	1	5
614.840	1	4
615.010	1	1
615.180	1	9
615.349	1	2
615.519	1	3
615.689	1	23
615.858	1	-1
616.028	1	-7
616.198	1	7
616.368	1	4
616.537	1	-4
616.707	1	10
616.877	1	-1
617.046	1	-4
617.216	1	1
617.386	1	9
617.555	1	1
617.725	1	-3
617.895	1	11
618.064	1	-5
618.234	1	-5
618.404	1	1
618.573	1	7
618.743	1	1
618.913	1	4
619.082	1	8
619.252	1	-1
619.422	1	-3
619.591	1	-1
619.761	1	-7
619.931	1	1
620.100	1	-4
620.270	1	2
620.440	1	-3
620.609	1	1
620.779	1	6
620.949	1	3
621.118	1	-14
621.288	1	6
621.458	1	2
621.627	1	-2
621.797	1	-2
621.967	1	15
622.136	1	4
622.306	1	12
622.476	1	7
622.645	1	0
622.815	1	-8
622.985	1	3
623.154	1	4
623.324	1	9
623.494	1	1
623.663	1	9
623.833	1	9
624.002	1	-12
624.172	1	-16
624.342	1	-18
624.511	1	-7
624.681	1	5
624.851	1	-1
625.020	1	0
625.190	1	7
625.360	1	1
625.529	1	4
625.699	1	1
625.869	1	4
626.038	1	-5
626.208	1	4
626.377	1	11
626.547	1	4
626.717	1	-3
626.886	1	2
627.056	1	-4
627.226	1	4
627.395	1	-2
627.565	1	3
627.735	1	2
627.904	1	-2
628.074	1	-5
628.243	1	11
628.413	1	-2
628.583	1	-4
628.752	1	3
628.922	1	4
629.091	1	-5
629.261	1	-12
629.431	1	7
629.600	1	15
629.770	1	-5
629.940	1	-6
630.109	1	5
630.279	1	-2
630.448	1	4
630.618	1	5
630.788	1	-2
630.957	1	2
631.127	1	8
631.297	1	-4
631.466	1	7
631.636	1	-5
631.805	1	20
631.975	1	6
632.145	1	17
632.314	1	3
632.484	1	5
632.653	1	-9
632.823	1	5
632.993	1	7
633.162	1	8
633.332	1	-6
633.501	1	-7
633.671	1	10
633.841	1	4
634.010	1	18
634.180	1	-8
634.349	1	13
634.519	1	-8
634.689	1	10
634.858	1	-12
635.028	1	4
635.197	1	4
635.367	1	-2
635.537	1	-8
635.706	1	6
635.876	1	-1
636.045	1	-3
636.215	1	4
636.384	1	6
636.554	1	10
636.724	1	-1
636.893	1	-9
637.063	1	11
637.232	1	6
637.402	1	3
637.572	1	4
637.741	1	9
637.911	1	3
638.080	1	-8
638.250	1	8
638.419	1	10
638.589	1	9
638.759	1	0
638.928	1	-6
639.098	1	-4
639.267	1	-1
639.437	1	3
639.606	1	11
639.776	1	-7
639.946	1	6
640.115	1	-4
640.285	1	9
640.454	1	-13
640.624	1	10
640.793	1	3
640.963	1	11
641.132	1	-11
641.302	1	9
641.472	1	2
641.641	1	10
641.811	1	0
641.980	1	-4
642.150	1	0
642.319	1	11
642.489	1	-1
642.659	1	4
642.828	1	0
642.998	1	-6
643.167	1	11
643.337	1	3
643.506	1	1
643.676	1	0
643.845	1	2
644.015	1	-1
644.184	1	2
644.354	1	4
644.524	1	2
644.693	1	5
644.863	1	-3
645.032	1	-1
645.202	1	3
645.371	1	15
645.541	1	0
645.710	1	-1
645.880	1	12
646.049	1	12
646.219	1	12
646.388	1	2
646.558	1	3
646.728	1	7
646.897	1	0
647.067	1	2
647.236	1	-1
647.406	1	-2
647.575	1	1
647.745	1	-3
647.914	1	6
648.084	1	1
648.253	1	-2
648.423	1	-1
648.592	1	-1
648.762	1	6
648.931	1	4
649.101	1	3
649.270	1	3
649.440	1	-1
649.610	1	-5
649.779	1	-2
649.949	1	-6
650.118	1	12
650.288	1	4
650.457	1	15
650.627	1	5
650.796	1	4
650.966	1	-5
651.135	1	10
651.305	1	3
651.474	1	4
651.644	1	-14
651.813	1	2
651.983	1	-4
652.152	1	6
652.322	1	2
652.491	1	15
652.661	1	5
652.830	1	2
653.000	1	2
653.169	1	7
653.339	1	-4
653.508	1	-7
653.678	1	8
653.847	1	16
654.017	1	11
654.186	1	-2
654.356	1	-5
654.525	1	7
654.695	1	5
654.864	1	-7
655.034	1	-6
655.203	1	3
655.373	1	11
655.542	1	3
655.712	1	-2
655.881	1	-9
656.051	1	-4
656.220	1	13
656.390	1	4
656.559	1	4
656.729	1	-7
656.898	1	1
657.068	1	13
657.237	1	7
657.406	1	3
657.576	1	8
657.745	1	-4
657.915	1	3
658.084	1	-1
658.254	1	-1
658.423	1	3
658.593	1	-3
658.762	1	2
658.932	1	0
659.101	1	6
659.271	1	-4
659.440	1	4
659.610	1	14
659.779	1	4
659.949	1	-3
660.118	1	3
660.288	1	3
660.457	1	1
660.626	1	-8
660.796	1	10
660.965	1	9
661.135	1	5
661.304	1	-3
661.474	1	4
661.643	1	1
661.813	1	-4
661.982	1	-1
662.152	1	-8
662.321	1	-5
662.491	1	2
662.660	1	-3
662.829	1	-2
662.999	1	-6
663.168	1	-3
663.338	1	8
663.507	1	-7
663.677	1	2
663.846	1	6
664.016	1	-5
664.185	1	5
664.354	1	2
664.524	1	2
664.693	1	0
664.863	1	4
665.032	1	5
665.202	1	7
665.371	1	-5
665.541	1	15
665.710	1	2
665.879	1	-2
666.049	1	11
666.218	1	7
666.388	1	3
666.557	1	-4
666.727	1	4
666.896	1	4
667.065	1	-1
667.235	1	-8
667.404	1	1
667.574	1	10
667.743	1	-8
667.913	1	1
668.082	1	-5
668.251	1	4
668.421	1	3
668.590	1	9
668.760	1	0
668.929	1	10
669.099	1	-3
669.268	1	6
669.437	1	-1
669.607	1	7
669.776	1	-1
669.946	1	2
670.115	1	-3
670.285	1	-2
670.454	1	-1
670.623	1	-6
670.793	1	9
670.962	1	1
671.132	1	-1
671.301	1	-8
671.470	1	3
671.640	1	-7
671.809	1	21
671.979	1	6
672.148	1	9
672.317	1	6
672.487	1	15
672.656	1	-7
672.826	1	8
672.995	1	-10
673.164	1	3
673.334	1	1
673.503	1	2
673.673	1	10
673.842	1	6
674.011	1	4
674.181	1	-3
674.350	1	13
674.520	1	3
674.689	1	-2
674.858	1	-2
675.028	1	8
675.197	1	-2
675.367	1	7
675.536	1	6
675.705	1	-1
675.875	1	-1
676.044	1	7
676.214	1	0
676.383	1	7
676.552	1	-4
676.722	1	8
676.891	1	-7
677.060	1	-5
677.230	1	-4
677.399	1	3
677.569	1	5
677.738	1	-6
677.907	1	1
678.077	1	-1
678.246	1	0
678.416	1	0
678.585	1	-1
678.754	1	9
678.924	1	-3
679.093	1	5
679.262	1	2
679.432	1	0
679.601	1	-4
679.771	1	-6
679.940	1	5
680.109	1	3
680.279	1	-9
680.448	1	-7
680.617	1	-7
680.787	1	8
680.956	1	6
681.125	1	-2
681.295	1	1
681.464	1	12
681.634	1	1
681.803	1	4
681.972	1	9
682.142	1	-4
682.311	1	-5
682.480	1	7
682.650	1	4
682.819	1	-5
682.988	1	1
683.158	1	2
683.327	1	6
683.496	1	-1
683.666	1	-1
683.835	1	2
684.004	1	-4
684.174	1	6
684.343	1	5
684.512	1	5
684.682	1	1
684.851	1	7
685.021	1	3
685.190	1	19
685.359	1	9
685.529	1	8
685.698	1	10
685.867	1	1
686.037	1	2
686.206	1	2
686.375	1	10
686.545	1	5
686.714	1	8
686.883	1	-4
687.053	1	13
687.222	1	4
687.391	1	5
687.561	1	2
687.730	1	2
687.899	1	0
688.069	1	-2
688.238	1	6
688.407	1	0
688.577	1	14
688.746	1	5
