340.368	1	-3
340.539	1	1
340.710	1	2
340.881	1	-5
341.052	1	-5
341.223	1	21
341.394	1	-3
341.565	1	-7
341.737	1	-1
341.908	1	-2
342.079	1	8
342.250	1	-6
342.421	1	5
342.592	1	13
342.763	1	-16
342.934	1	-8
343.105	1	-9
343.276	1	-3
343.447	1	2
343.618	1	-9
343.789	1	1
343.960	1	-3
344.131	1	4
344.302	1	2
344.473	1	11
344.644	1	6
344.815	1	7
344.986	1	0
345.157	1	-5
345.328	1	7
345.499	1	16
345.670	1	-2
345.841	1	3
346.012	1	-3
346.183	1	3
346.354	1	7
346.526	1	2
346.697	1	-5
346.868	1	2
347.039	1	1
347.210	1	1
347.381	1	11
347.552	1	2
347.723	1	-1
347.894	1	-2
348.065	1	-3
348.236	1	-4
348.407	1	-2
348.578	1	7
348.749	1	-6
348.920	1	-2
349.091	1	3
349.262	1	4
349.433	1	11
349.604	1	0
349.775	1	-4
349.946	1	13
350.117	1	3
350.288	1	0
350.459	1	2
350.630	1	0
350.801	1	7
350.972	1	10
351.143	1	17
351.314	1	-9
351.485	1	-1
351.656	1	-2
351.827	1	6
351.998	1	5
352.169	1	7
352.340	1	5
352.511	1	-1
352.682	1	12
352.853	1	0
353.024	1	9
353.195	1	8
353.366	1	2
353.537	1	2
353.708	1	6
353.879	1	-7
354.050	1	3
354.221	1	3
354.392	1	-8
354.563	1	-8
354.734	1	6
354.905	1	15
355.076	1	6
355.247	1	1
355.418	1	1
355.589	1	-7
355.760	1	5
355.931	1	1
356.102	1	4
356.273	1	6
356.444	1	6
356.615	1	-5
356.785	1	-3
356.956	1	-2
357.127	1	10
357.298	1	7
357.469	1	-6
357.640	1	1
357.811	1	-1
357.982	1	13
358.153	1	-3
358.324	1	9
358.495	1	4
358.666	1	6
358.837	1	1
359.008	1	14
359.179	1	1
359.350	1	4
359.521	1	8
359.692	1	-2
359.863	1	5
360.034	1	9
360.205	1	16
360.376	1	3
360.547	1	10
360.718	1	-4
360.889	1	12
361.060	1	9
361.231	1	11
361.401	1	11
361.572	1	14
361.743	1	-3
361.914	1	15
362.085	1	6
362.256	1	8
362.427	1	-4
362.598	1	6
362.769	1	15
362.940	1	0
363.111	1	14
363.282	1	12
363.453	1	13
363.624	1	28
363.795	1	7
363.966	1	5
364.137	1	0
364.308	1	9
364.478	1	7
364.649	1	10
364.820	1	4
364.991	1	7
365.162	1	8
365.333	1	11
365.504	1	11
365.675	1	21
365.846	1	11
366.017	1	17
366.188	1	15
366.359	1	11
366.530	1	15
366.701	1	11
366.871	1	15
367.042	1	16
367.213	1	5
367.384	1	12
367.555	1	6
367.726	1	25
367.897	1	17
368.068	1	7
368.239	1	7
368.410	1	21
368.581	1	26
368.752	1	19
368.923	1	4
369.093	1	21
369.264	1	14
369.435	1	15
369.606	1	21
369.777	1	11
369.948	1	13
370.119	1	32
370.290	1	11
370.461	1	16
370.632	1	22
370.803	1	12
370.973	1	4
371.144	1	11
371.315	1	18
371.486	1	18
371.657	1	26
371.828	1	23
371.999	1	29
372.170	1	25
372.341	1	25
372.512	1	28
372.682	1	20
372.853	1	25
373.024	1	27
373.195	1	24
373.366	1	28
373.537	1	33
373.708	1	22
373.879	1	27
374.050	1	39
374.220	1	32
374.391	1	27
374.562	1	21
374.733	1	14
374.904	1	35
375.075	1	21
375.246	1	24
375.417	1	41
375.588	1	37
375.758	1	34
375.929	1	20
376.100	1	26
376.271	1	18
376.442	1	21
376.613	1	25
376.784	1	19
376.955	1	17
377.125	1	30
377.296	1	23
377.467	1	13
377.638	1	27
377.809	1	27
377.980	1	2
378.151	1	24
378.321	1	31
378.492	1	11
378.663	1	21
378.834	1	23
379.005	1	13
379.176	1	26
379.347	1	19
379.518	1	7
379.688	1	19
379.859	1	12
380.030	1	23
380.201	1	20
380.372	1	18
380.543	1	30
380.714	1	26
380.884	1	27
381.055	1	14
381.226	1	9
381.397	1	-4
381.568	1	24
381.739	1	17
381.910	1	14
382.080	1	28
382.251	1	16
382.422	1	23
382.593	1	10
382.764	1	10
382.935	1	14
383.105	1	22
383.276	1	14
383.447	1	19
383.618	1	8
383.789	1	17
383.960	1	16
384.130	1	11
384.301	1	7
384.472	1	13
384.643	1	9
384.814	1	13
384.985	1	23
385.156	1	11
385.326	1	5
385.497	1	10
385.668	1	17
385.839	1	15
386.010	1	13
386.180	1	12
386.351	1	17
386.522	1	5
386.693	1	6
386.864	1	9
387.035	1	14
387.205	1	15
387.376	1	10
387.547	1	-7
387.718	1	8
387.889	1	19
388.060	1	10
388.230	1	13
388.401	1	2
388.572	1	7
388.743	1	7
388.914	1	2
389.084	1	0
389.255	1	2
389.426	1	6
389.597	1	11
389.768	1	19
389.939	1	10
390.109	1	-2
390.280	1	4
390.451	1	6
390.622	1	11
390.793	1	10
390.963	1	2
391.134	1	8
391.305	1	10
391.476	1	11
391.647	1	12
391.817	1	13
391.988	1	9
392.159	1	0
392.330	1	13
392.501	1	-4
392.671	1	9
392.842	1	1
393.013	1	8
393.184	1	14
393.355	1	8
393.525	1	9
393.696	1	-3
393.867	1	9
394.038	1	5
394.208	1	1
394.379	1	-3
394.550	1	3
394.721	1	8
394.892	1	15
395.062	1	12
395.233	1	-6
395.404	1	-5
395.575	1	8
395.746	1	3
395.916	1	2
396.087	1	2
396.258	1	1
396.429	1	3
396.599	1	1
396.770	1	6
396.941	1	14
397.112	1	4
397.283	1	4
397.453	1	7
397.624	1	9
397.795	1	7
397.966	1	10
398.136	1	1
398.307	1	18
398.478	1	8
398.649	1	-3
398.819	1	8
398.990	1	8
399.161	1	11
399.332	1	5
399.503	1	7
399.673	1	9
399.844	1	0
400.015	1	5
400.186	1	7
400.356	1	5
400.527	1	3
400.698	1	8
400.869	1	8
401.039	1	10
401.210	1	8
401.381	1	-5
401.552	1	3
401.722	1	1
401.893	1	-8
402.064	1	-5
402.235	1	3
402.405	1	10
402.576	1	11
402.747	1	8
402.918	1	15
403.088	1	4
403.259	1	5
403.430	1	-1
403.601	1	-2
403.771	1	17
403.942	1	-6
404.113	1	-1
404.284	1	7
404.454	1	12
404.625	1	0
404.796	1	9
404.967	1	4
405.137	1	-1
405.308	1	2
405.479	1	3
405.649	1	4
405.820	1	-1
405.991	1	7
406.162	1	14
406.332	1	8
406.503	1	-14
406.674	1	1
406.845	1	10
407.015	1	-2
407.186	1	6
407.357	1	3
407.527	1	8
407.698	1	-6
407.869	1	10
408.040	1	3
408.210	1	4
408.381	1	-3
408.552	1	7
408.722	1	-6
408.893	1	5
409.064	1	2
409.235	1	-5
409.405	1	-4
409.576	1	7
409.747	1	-4
409.917	1	6
410.088	1	3
410.259	1	1
410.430	1	0
410.600	1	-6
410.771	1	-2
410.942	1	-4
411.112	1	6
411.283	1	2
411.454	1	5
411.625	1	-2
411.795	1	-10
411.966	1	11
412.137	1	2
412.307	1	-7
412.478	1	6
412.649	1	4
412.819	1	9
412.990	1	-6
413.161	1	2
413.332	1	5
413.502	1	-1
413.673	1	-4
413.844	1	0
414.014	1	-2
414.185	1	1
414.356	1	10
414.526	1	13
414.697	1	12
414.868	1	10
415.038	1	5
415.209	1	2
415.380	1	0
415.550	1	6
415.721	1	-6
415.892	1	2
416.063	1	7
416.233	1	13
416.404	1	-3
416.575	1	6
416.745	1	2
416.916	1	5
417.087	1	12
417.257	1	12
417.428	1	-3
417.599	1	4
417.769	1	3
417.940	1	8
418.111	1	7
418.281	1	5
418.452	1	4
418.623	1	-1
418.793	1	3
418.964	1	2
419.135	1	0
419.305	1	-5
419.476	1	1
419.647	1	-2
419.817	1	-2
419.988	1	7
420.159	1	4
420.329	1	3
420.500	1	-12
420.671	1	-1
420.841	1	-1
421.012	1	6
421.183	1	7
421.353	1	6
421.524	1	3
421.695	1	2
421.865	1	7
422.036	1	12
422.206	1	4
422.377	1	0
422.548	1	4
422.718	1	2
422.889	1	-6
423.060	1	-2
423.230	1	11
423.401	1	4
423.572	1	1
423.742	1	10
423.913	1	9
424.084	1	8
424.254	1	-5
424.425	1	8
424.595	1	2
424.766	1	1
424.937	1	-1
425.107	1	4
425.278	1	7
425.449	1	-4
425.619	1	3
425.790	1	0
425.961	1	1
426.131	1	-8
426.302	1	3
426.472	1	0
426.643	1	4
426.814	1	4
426.984	1	-1
427.155	1	5
427.326	1	5
427.496	1	5
427.667	1	7
427.837	1	4
428.008	1	2
428.179	1	-11
428.349	1	-1
428.520	1	8
428.691	1	11
428.861	1	12
429.032	1	4
429.202	1	7
429.373	1	-5
429.544	1	2
429.714	1	-1
429.885	1	18
430.055	1	18
430.226	1	6
430.397	1	2
430.567	1	11
430.738	1	9
430.909	1	-2
431.079	1	1
431.250	1	-4
431.420	1	4
431.591	1	-7
431.762	1	-1
431.932	1	8
432.103	1	10
432.273	1	5
432.444	1	-9
432.615	1	-9
432.785	1	2
432.956	1	5
433.126	1	2
433.297	1	-2
433.468	1	4
433.638	1	-4
433.809	1	-3
433.979	1	7
434.150	1	14
434.320	1	10
434.491	1	-2
434.662	1	-2
434.832	1	8
435.003	1	5
435.173	1	3
435.344	1	9
435.515	1	5
435.685	1	-1
435.856	1	9
436.026	1	-9
436.197	1	14
436.368	1	-9
436.538	1	13
436.709	1	-10
436.879	1	-3
437.050	1	9
437.220	1	13
437.391	1	6
437.562	1	11
437.732	1	1
437.903	1	12
438.073	1	2
438.244	1	-5
438.414	1	10
438.585	1	-3
438.756	1	6
438.926	1	9
439.097	1	-3
439.267	1	5
439.438	1	-3
439.608	1	9
439.779	1	13
439.949	1	-3
440.120	1	-1
440.291	1	8
440.461	1	1
440.632	1	1
440.802	1	5
440.973	1	9
441.143	1	-7
441.314	1	6
441.485	1	1
441.655	1	5
441.826	1	7
441.996	1	4
442.167	1	-5
442.337	1	14
442.508	1	1
442.678	1	7
442.849	1	10
443.019	1	8
443.190	1	2
443.361	1	-2
443.531	1	2
443.702	1	2
443.872	1	12
444.043	1	1
444.213	1	4
444.384	1	-12
444.554	1	-10
444.725	1	1
444.895	1	7
445.066	1	4
445.237	1	1
445.407	1	8
445.578	1	7
445.748	1	-2
445.919	1	7
446.089	1	3
446.260	1	0
446.430	1	2
446.601	1	4
446.771	1	5
446.942	1	8
447.112	1	9
447.283	1	14
447.453	1	-8
447.624	1	-7
447.794	1	11
447.965	1	0
448.135	1	-3
448.306	1	-1
448.477	1	11
448.647	1	4
448.818	1	7
448.988	1	-4
449.159	1	3
449.329	1	4
449.500	1	4
449.670	1	7
449.841	1	10
450.011	1	2
450.182	1	3
450.352	1	11
450.523	1	9
450.693	1	-3
450.864	1	5
451.034	1	8
451.205	1	9
451.375	1	-19
451.546	1	5
451.716	1	3
451.887	1	5
452.057	1	4
452.228	1	11
452.398	1	1
452.569	1	1
452.739	1	0
452.910	1	5
453.080	1	5
453.251	1	-1
453.421	1	0
453.592	1	5
453.762	1	5
453.933	1	-8
454.103	1	4
454.274	1	-3
454.444	1	-4
454.615	1	0
454.785	1	-2
454.956	1	2
455.126	1	-5
455.297	1	2
455.467	1	5
455.638	1	2
455.808	1	5
455.979	1	4
456.149	1	3
456.320	1	-3
456.490	1	3
456.661	1	1
456.831	1	-3
457.001	1	10
457.172	1	-3
457.342	1	10
457.513	1	-1
457.683	1	7
457.854	1	8
458.024	1	-2
458.195	1	-14
458.365	1	9
458.536	1	-5
458.706	1	4
458.877	1	1
459.047	1	-4
459.218	1	4
459.388	1	2
459.559	1	2
459.729	1	9
459.899	1	1
460.070	1	9
460.240	1	3
460.411	1	7
460.581	1	2
460.752	1	6
460.922	1	7
461.093	1	3
461.263	1	0
461.434	1	5
461.604	1	2
461.775	1	-11
461.945	1	-9
462.115	1	3
462.286	1	13
462.456	1	15
462.627	1	-4
462.797	1	2
462.968	1	7
463.138	1	2
463.309	1	2
463.479	1	6
463.649	1	1
463.820	1	-9
463.990	1	1
464.161	1	-5
464.331	1	5
464.502	1	11
464.672	1	7
464.843	1	13
465.013	1	10
465.183	1	-9
465.354	1	7
465.524	1	-2
465.695	1	4
465.865	1	-6
466.036	1	6
466.206	1	6
466.376	1	5
466.547	1	2
466.717	1	-16
466.888	1	-10
467.058	1	-4
467.229	1	5
467.399	1	6
467.569	1	13
467.740	1	-23
467.910	1	-6
468.081	1	3
468.251	1	12
468.422	1	3
468.592	1	8
468.762	1	17
468.933	1	7
469.103	1	-1
469.274	1	10
469.444	1	11
469.614	1	-8
469.785	1	-5
469.955	1	1
470.126	1	5
470.296	1	-9
470.467	1	0
470.637	1	6
470.807	1	15
470.978	1	-1
471.148	1	16
471.319	1	-2
471.489	1	4
471.659	1	0
471.830	1	6
472.000	1	-2
472.171	1	4
472.341	1	-7
472.511	1	8
472.682	1	10
472.852	1	2
473.023	1	2
473.193	1	-6
473.363	1	7
473.534	1	-7
473.704	1	8
473.875	1	11
474.045	1	-1
474.215	1	7
474.386	1	-3
474.556	1	2
474.727	1	6
474.897	1	-1
475.067	1	2
475.238	1	-2
475.408	1	10
475.578	1	6
475.749	1	-1
475.919	1	1
476.090	1	2
476.260	1	2
476.430	1	0
476.601	1	1
476.771	1	7
476.942	1	-1
477.112	1	4
477.282	1	10
477.453	1	8
477.623	1	8
477.793	1	5
477.964	1	-3
478.134	1	10
478.305	1	-6
478.475	1	-8
478.645	1	3
478.816	1	24
478.986	1	4
479.156	1	-1
479.327	1	-9
479.497	1	9
479.667	1	-1
479.838	1	2
480.008	1	1
480.179	1	1
480.349	1	-2
480.519	1	6
480.690	1	-3
480.860	1	2
481.030	1	-10
481.201	1	-7
481.371	1	6
481.541	1	1
481.712	1	3
481.882	1	1
482.053	1	9
482.223	1	2
482.393	1	6
482.564	1	5
482.734	1	-1
482.904	1	0
483.075	1	1
483.245	1	-4
483.415	1	6
483.586	1	10
483.756	1	3
483.926	1	3
484.097	1	10
484.267	1	-1
484.437	1	-1
484.608	1	-2
484.778	1	6
484.948	1	9
485.119	1	2
485.289	1	-7
485.459	1	5
485.630	1	7
485.800	1	-1
485.970	1	-7
486.141	1	4
486.311	1	0
486.481	1	-1
486.652	1	10
486.822	1	11
486.992	1	1
487.163	1	0
487.333	1	7
487.503	1	4
487.674	1	5
487.844	1	1
488.014	1	1
488.185	1	17
488.355	1	5
488.525	1	-5
488.696	1	-2
488.866	1	-4
489.036	1	-3
489.207	1	3
489.377	1	0
489.547	1	11
489.718	1	0
489.888	1	6
490.058	1	-1
490.228	1	13
490.399	1	-11
490.569	1	-6
490.739	1	8
490.910	1	-3
491.080	1	2
491.250	1	-5
491.421	1	4
491.591	1	4
491.761	1	5
491.932	1	1
492.102	1	-6
492.272	1	3
492.442	1	-1
492.613	1	7
492.783	1	9
492.953	1	19
493.124	1	2
493.294	1	0
493.464	1	9
493.635	1	1
493.805	1	-5
493.975	1	-10
494.145	1	-2
494.316	1	0
494.486	1	3
494.656	1	6
494.827	1	4
494.997	1	3
495.167	1	2
495.337	1	14
495.508	1	9
495.678	1	8
495.848	1	-3
496.019	1	0
496.189	1	-5
496.359	1	2
496.529	1	-3
496.700	1	0
496.870	1	6
497.040	1	-7
497.211	1	-5
497.381	1	-8
497.551	1	-2
497.721	1	10
497.892	1	2
498.062	1	13
498.232	1	-1
498.403	1	4
498.573	1	7
498.743	1	11
498.913	1	-3
499.084	1	-2
499.254	1	-6
499.424	1	15
499.594	1	-1
499.765	1	8
499.935	1	11
500.105	1	-4
500.275	1	-13
500.446	1	2
500.616	1	7
500.786	1	0
500.956	1	-1
501.127	1	5
501.297	1	6
501.467	1	-2
501.638	1	4
501.808	1	-10
501.978	1	2
502.148	1	6
502.319	1	1
502.489	1	-2
502.659	1	-6
502.829	1	14
503.000	1	-2
503.170	1	4
503.340	1	2
503.510	1	-3
503.681	1	-5
503.851	1	2
504.021	1	3
504.191	1	-4
504.362	1	5
504.532	1	-3
504.702	1	-6
504.872	1	-5
505.042	1	2
505.213	1	7
505.383	1	-7
505.553	1	8
505.723	1	-4
505.894	1	4
506.064	1	9
506.234	1	8
506.404	1	-3
506.575	1	-4
506.745	1	-7
506.915	1	4
507.085	1	1
507.256	1	6
507.426	1	-3
507.596	1	3
507.766	1	-3
507.936	1	-9
508.107	1	4
508.277	1	-9
508.447	1	0
508.617	1	4
508.788	1	-11
508.958	1	6
509.128	1	9
509.298	1	-1
509.468	1	-6
509.639	1	-2
509.809	1	6
509.979	1	13
510.149	1	5
510.319	1	-2
510.490	1	8
510.660	1	2
510.830	1	9
511.000	1	0
511.171	1	3
511.341	1	-2
511.511	1	14
511.681	1	0
511.851	1	6
512.022	1	-10
512.192	1	-2
512.362	1	-4
512.532	1	2
512.702	1	0
512.873	1	13
513.043	1	1
513.213	1	4
513.383	1	-1
513.553	1	-4
513.724	1	11
513.894	1	-4
514.064	1	-2
514.234	1	1
514.404	1	1
514.575	1	5
514.745	1	-8
514.915	1	-8
515.085	1	3
515.255	1	4
515.425	1	-5
515.596	1	-5
515.766	1	6
515.936	1	6
516.106	1	-2
516.276	1	-3
516.447	1	2
516.617	1	-2
516.787	1	-7
516.957	1	7
517.127	1	0
517.297	1	5
517.468	1	3
517.638	1	1
517.808	1	-4
517.978	1	3
518.148	1	6
518.319	1	7
518.489	1	5
518.659	1	5
518.829	1	0
518.999	1	-4
519.169	1	-4
519.340	1	4
519.510	1	1
519.680	1	0
519.850	1	3
520.020	1	18
520.190	1	0
520.361	1	7
520.531	1	-7
520.701	1	4
520.871	1	-13
521.041	1	-5
521.211	1	8
521.382	1	6
521.552	1	8
521.722	1	7
521.892	1	10
522.062	1	-3
522.232	1	2
522.402	1	4
522.573	1	-2
522.743	1	2
522.913	1	-6
523.083	1	-4
523.253	1	2
523.423	1	11
523.593	1	-14
523.764	1	-3
523.934	1	-1
524.104	1	3
524.274	1	-3
524.444	1	7
524.614	1	6
524.784	1	8
524.955	1	16
525.125	1	4
525.295	1	2
525.465	1	-4
525.635	1	-8
525.805	1	5
525.975	1	-7
526.146	1	10
526.316	1	-1
526.486	1	5
526.656	1	13
526.826	1	-10
526.996	1	7
527.166	1	3
527.337	1	13
527.507	1	-7
527.677	1	10
527.847	1	5
528.017	1	-9
528.187	1	-3
528.357	1	-1
528.527	1	1
528.698	1	11
528.868	1	-1
529.038	1	-1
529.208	1	6
529.378	1	-4
529.548	1	-4
529.718	1	7
529.888	1	16
530.058	1	3
530.229	1	4
530.399	1	11
530.569	1	-1
530.739	1	1
530.909	1	2
531.079	1	-10
531.249	1	10
531.419	1	7
531.589	1	-4
531.760	1	2
531.930	1	-9
532.100	1	3
532.270	1	4
532.440	1	-5
532.610	1	2
532.780	1	0
532.950	1	-11
533.120	1	19
533.290	1	0
533.461	1	-4
533.631	1	-5
533.801	1	-13
533.971	1	4
534.141	1	-5
534.311	1	7
534.481	1	4
534.651	1	-3
534.821	1	1
534.991	1	0
535.162	1	21
535.332	1	-8
535.502	1	2
535.672	1	-2
535.842	1	10
536.012	1	2
536.182	1	9
536.352	1	2
536.522	1	5
536.692	1	-6
536.862	1	5
537.032	1	1
537.203	1	7
537.373	1	14
537.543	1	6
537.713	1	6
537.883	1	-3
538.053	1	6
538.223	1	6
538.393	1	-4
538.563	1	4
538.733	1	-7
538.903	1	1
539.073	1	-7
539.243	1	-6
539.413	1	-1
539.584	1	5
539.754	1	-3
539.924	1	-1
540.094	1	-2
540.264	1	-2
540.434	1	5
540.604	1	6
540.774	1	11
540.944	1	-2
541.114	1	4
541.284	1	7
541.454	1	-5
541.624	1	-3
541.794	1	10
541.964	1	6
542.134	1	-2
542.305	1	10
542.475	1	10
542.645	1	1
542.815	1	3
542.985	1	3
543.155	1	-4
543.325	1	-7
543.495	1	7
543.665	1	8
543.835	1	-2
544.005	1	2
544.175	1	3
544.345	1	2
544.515	1	2
544.685	1	-4
544.855	1	6
545.025	1	9
545.195	1	0
545.365	1	5
545.535	1	3
545.705	1	6
545.875	1	3
546.045	1	3
546.216	1	3
546.386	1	0
546.556	1	12
546.726	1	5
546.896	1	8
547.066	1	-6
547.236	1	-2
547.406	1	5
547.576	1	5
547.746	1	10
547.916	1	-2
548.086	1	-12
548.256	1	3
548.426	1	2
548.596	1	-2
548.766	1	-1
548.936	1	-4
549.106	1	-2
549.276	1	1
549.446	1	-12
549.616	1	-3
549.786	1	16
549.956	1	-2
550.126	1	12
550.296	1	3
550.466	1	8
550.636	1	-1
550.806	1	-2
550.976	1	-1
551.146	1	19
551.316	1	20
551.486	1	-3
551.656	1	2
551.826	1	-3
551.996	1	-5
552.166	1	-3
552.336	1	13
552.506	1	6
552.676	1	5
552.846	1	6
553.016	1	11
553.186	1	0
553.356	1	-7
553.526	1	3
553.696	1	11
553.866	1	3
554.036	1	-2
554.206	1	-1
554.376	1	8
554.546	1	7
554.716	1	0
554.886	1	8
555.056	1	2
555.226	1	9
555.396	1	-1
555.566	1	14
555.736	1	-2
555.906	1	3
556.076	1	3
556.246	1	0
556.416	1	1
556.586	1	-3
556.756	1	2
556.926	1	14
557.096	1	4
557.266	1	-3
557.436	1	-4
557.606	1	6
557.776	1	-5
557.946	1	1
558.116	1	6
558.286	1	-8
558.456	1	-1
558.626	1	16
558.796	1	-1
558.966	1	2
559.136	1	2
559.306	1	7
559.476	1	7
559.646	1	2
559.816	1	1
559.986	1	7
560.155	1	1
560.325	1	4
560.495	1	-2
560.665	1	4
560.835	1	-12
561.005	1	-2
561.175	1	3
561.345	1	1
561.515	1	-4
561.685	1	1
561.855	1	-4
562.025	1	5
562.195	1	2
562.365	1	3
562.535	1	-3
562.705	1	-7
562.875	1	-2
563.045	1	1
563.215	1	6
563.385	1	11
563.555	1	12
563.725	1	3
563.895	1	5
564.064	1	8
564.234	1	4
564.404	1	-1
564.574	1	9
564.744	1	2
564.914	1	-1
565.084	1	1
565.254	1	0
565.424	1	3
565.594	1	2
565.764	1	6
565.934	1	2
566.104	1	-9
566.274	1	-4
566.444	1	11
566.614	1	-5
566.783	1	3
566.953	1	12
567.123	1	4
567.293	1	10
567.463	1	8
567.633	1	8
567.803	1	3
567.973	1	-2
568.143	1	2
568.313	1	-3
568.483	1	1
568.653	1	-4
568.823	1	-4
568.993	1	9
569.162	1	10
569.332	1	-4
569.502	1	7
569.672	1	-3
569.842	1	3
570.012	1	2
570.182	1	5
570.352	1	7
570.522	1	5
570.692	1	1
570.862	1	20
571.031	1	-3
571.201	1	4
571.371	1	-8
571.541	1	0
571.711	1	0
571.881	1	10
572.051	1	11
572.221	1	11
572.391	1	-3
572.561	1	8
572.731	1	0
572.900	1	-4
573.070	1	-6
573.240	1	-5
573.410	1	0
573.580	1	1
573.750	1	7
573.920	1	1
574.090	1	5
574.260	1	3
574.430	1	9
574.599	1	-3
574.769	1	-3
574.939	1	-3
575.109	1	6
575.279	1	-4
575.449	1	2
575.619	1	5
575.789	1	1
575.959	1	7
576.128	1	-2
576.298	1	3
576.468	1	1
576.638	1	-3
576.808	1	-7
576.978	1	-1
577.148	1	-4
577.318	1	-2
577.487	1	-7
577.657	1	12
577.827	1	3
577.997	1	3
578.167	1	8
578.337	1	-5
578.507	1	7
578.677	1	-6
578.846	1	17
579.016	1	4
579.186	1	10
579.356	1	9
579.526	1	11
579.696	1	-3
579.866	1	7
580.036	1	-5
580.205	1	-7
580.375	1	3
580.545	1	11
580.715	1	6
580.885	1	8
581.055	1	-12
581.225	1	-3
581.394	1	-4
581.564	1	-2
581.734	1	-4
581.904	1	0
582.074	1	-4
582.244	1	6
582.414	1	10
582.583	1	7
582.753	1	-14
582.923	1	-3
583.093	1	-5
583.263	1	-6
583.433	1	1
583.603	1	4
583.772	1	5
583.942	1	1
584.112	1	5
584.282	1	7
584.452	1	0
584.622	1	5
584.791	1	5
584.961	1	9
585.131	1	4
585.301	1	-3
585.471	1	-3
585.641	1	-3
585.811	1	4
585.980	1	4
586.150	1	7
586.320	1	9
586.490	1	-3
586.660	1	6
586.830	1	13
586.999	1	-2
587.169	1	-3
587.339	1	1
587.509	1	2
587.679	1	7
587.849	1	3
588.018	1	-7
588.188	1	7
588.358	1	-3
588.528	1	4
588.698	1	-3
588.867	1	0
589.037	1	0
589.207	1	-6
589.377	1	1
589.547	1	1
589.717	1	-1
589.886	1	1
590.056	1	-2
590.226	1	4
590.396	1	2
590.566	1	6
590.735	1	-6
590.905	1	2
591.075	1	6
591.245	1	3
591.415	1	1
591.585	1	9
591.754	1	-9
591.924	1	-1
592.094	1	-10
592.264	1	3
592.434	1	5
592.603	1	-2
592.773	1	16
592.943	1	-10
593.113	1	-9
593.283	1	1
593.452	1	3
593.622	1	-1
593.792	1	-2
593.962	1	12
594.132	1	7
594.301	1	10
594.471	1	2
594.641	1	-4
594.811	1	-7
594.981	1	-10
595.150	1	-11
595.320	1	-1
595.490	1	-11
595.660	1	6
595.829	1	10
595.999	1	-5
596.169	1	-1
596.339	1	-11
596.509	1	-7
596.678	1	5
596.848	1	5
597.018	1	7
597.188	1	-3
597.358	1	3
597.527	1	14
597.697	1	-5
597.867	1	2
598.037	1	0
598.206	1	-9
598.376	1	9
598.546	1	2
598.716	1	6
598.885	1	6
599.055	1	16
599.225	1	13
599.395	1	2
599.565	1	0
599.734	1	0
599.904	1	6
600.074	1	8
600.244	1	12
600.413	1	1
600.583	1	-1
600.753	1	1
600.923	1	-1
601.092	1	-1
601.262	1	1
601.432	1	5
601.602	1	5
601.771	1	-4
601.941	1	19
602.111	1	-3
602.281	1	14
602.451	1	-1
602.620	1	1
602.790	1	-5
602.960	1	-6
603.130	1	-3
603.299	1	-3
603.469	1	1
603.639	1	2
603.809	1	9
603.978	1	-1
604.148	1	-1
604.318	1	-5
604.487	1	2
604.657	1	9
604.827	1	-2
604.997	1	0
605.166	1	-4
605.336	1	-1
605.506	1	-7
605.676	1	2
605.845	1	5
606.015	1	0
606.185	1	3
606.355	1	3
606.524	1	5
606.694	1	-4
606.864	1	0
607.034	1	7
607.203	1	8
607.373	1	-1
607.543	1	-12
607.712	1	4
607.882	1	-14
608.052	1	1
608.222	1	1
608.391	1	2
608.561	1	2
608.731	1	7
608.901	1	5
609.070	1	10
609.240	1	4
609.410	1	-5
609.579	1	-8
609.749	1	-7
609.919	1	-1
610.089	1	4
610.258	1	8
610.428	1	7
610.598	1	9
610.767	1	3
610.937	1	0
611.107	1	-3
611.277	1	-7
611.446	1	-1
611.616	1	0
611.786	1	5
611.955	1	9
612.125	1	4
612.295	1	1
612.465	1	-3
612.634	1	5
612.804	1	3
612.974	1	-12
613.143	1	-7
613.313	1	-2
613.483	1	6
613.652	1	16
613.822	1	-4
613.992	1	6
614.162	1	8
614.331	1	-4
614.501	1	-2
614.671	1	10
614.840	1	4
615.010	1	0
615.180	1	4
615.349	1	-1
615.519	1	11
615.689	1	14
615.858	1	0
616.028	1	3
616.198	1	5
616.368	1	4
616.537	1	0
616.707	1	9
616.877	1	0
617.046	1	2
617.216	1	10
617.386	1	9
617.555	1	-5
617.725	1	-10
617.895	1	8
618.064	1	6
618.234	1	1
618.404	1	-8
618.573	1	19
618.743	1	0
618.913	1	10
619.082	1	-2
619.252	1	8
619.422	1	-13
619.591	1	-6
619.761	1	-9
619.931	1	10
620.100	1	4
620.270	1	2
620.440	1	8
620.609	1	-1
620.779	1	5
620.949	1	4
621.118	1	3
621.288	1	0
621.458	1	3
621.627	1	-7
621.797	1	6
621.967	1	4
622.136	1	-3
622.306	1	3
622.476	1	7
622.645	1	1
622.815	1	3
622.985	1	-5
623.154	1	4
623.324	1	2
623.494	1	17
623.663	1	10
623.833	1	3
624.002	1	-10
624.172	1	-1
624.342	1	-13
624.511	1	-7
624.681	1	6
624.851	1	8
625.020	1	-1
625.190	1	4
625.360	1	-8
625.529	1	-1
625.699	1	-1
625.869	1	7
626.038	1	6
626.208	1	1
626.377	1	8
626.547	1	9
626.717	1	2
626.886	1	8
627.056	1	-6
627.226	1	-9
627.395	1	-4
627.565	1	10
627.735	1	9
627.904	1	-6
628.074	1	12
628.243	1	9
628.413	1	-8
628.583	1	-10
628.752	1	-1
628.922	1	-4
629.091	1	-13
629.261	1	1
629.431	1	15
629.600	1	17
629.770	1	-4
629.940	1	-2
630.109	1	-1
630.279	1	-3
630.448	1	7
630.618	1	20
630.788	1	-7
630.957	1	6
631.127	1	3
631.297	1	1
631.466	1	-2
631.636	1	-2
631.805	1	11
631.975	1	10
632.145	1	10
632.314	1	3
632.484	1	6
632.653	1	0
632.823	1	7
632.993	1	2
633.162	1	3
633.332	1	-3
633.501	1	-3
633.671	1	-1
633.841	1	13
634.010	1	13
634.180	1	-4
634.349	1	10
634.519	1	-13
634.689	1	-1
634.858	1	-11
635.028	1	-6
635.197	1	2
635.367	1	2
635.537	1	0
635.706	1	2
635.876	1	3
636.045	1	-5
636.215	1	10
636.384	1	7
636.554	1	1
636.724	1	-4
636.893	1	-2
637.063	1	9
637.232	1	-4
637.402	1	7
637.572	1	-1
637.741	1	3
637.911	1	0
638.080	1	-8
638.250	1	3
638.419	1	8
638.589	1	-2
638.759	1	-4
638.928	1	5
639.098	1	1
639.267	1	3
639.437	1	2
639.606	1	12
639.776	1	-6
639.946	1	-5
640.115	1	-2
640.285	1	9
640.454	1	0
640.624	1	7
640.793	1	8
640.963	1	8
641.132	1	-19
641.302	1	7
641.472	1	6
641.641	1	10
641.811	1	3
641.980	1	3
642.150	1	-2
642.319	1	8
642.489	1	0
642.659	1	7
642.828	1	3
642.998	1	-2
643.167	1	15
643.337	1	2
643.506	1	-1
643.676	1	0
643.845	1	-2
644.015	1	13
644.184	1	8
644.354	1	0
644.524	1	-6
644.693	1	0
644.863	1	2
645.032	1	11
645.202	1	6
645.371	1	2
645.541	1	6
645.710	1	0
645.880	1	7
646.049	1	4
646.219	1	6
646.388	1	-5
646.558	1	-10
646.728	1	-1
646.897	1	-4
647.067	1	5
647.236	1	-1
647.406	1	4
647.575	1	-2
647.745	1	1
647.914	1	2
648.084	1	4
648.253	1	2
648.423	1	1
648.592	1	14
648.762	1	13
648.931	1	15
649.101	1	2
649.270	1	4
649.440	1	-3
649.610	1	2
649.779	1	4
649.949	1	-7
650.118	1	4
650.288	1	5
650.457	1	9
650.627	1	-2
650.796	1	4
650.966	1	2
651.135	1	13
651.305	1	0
651.474	1	-8
651.644	1	-8
651.813	1	-10
651.983	1	-2
652.152	1	4
652.322	1	3
652.491	1	21
652.661	1	5
652.830	1	7
653.000	1	4
653.169	1	4
653.339	1	-9
653.508	1	7
653.678	1	0
653.847	1	9
654.017	1	10
654.186	1	-3
654.356	1	-2
654.525	1	7
654.695	1	0
654.864	1	-7
655.034	1	5
655.203	1	-3
655.373	1	4
655.542	1	5
655.712	1	6
655.881	1	-6
656.051	1	3
656.220	1	17
656.390	1	5
656.559	1	11
656.729	1	-1
656.898	1	4
657.068	1	13
657.237	1	6
657.406	1	1
657.576	1	7
657.745	1	-5
657.915	1	1
658.084	1	3
658.254	1	3
658.423	1	7
658.593	1	-2
658.762	1	-2
658.932	1	4
659.101	1	0
659.271	1	-3
659.440	1	0
659.610	1	7
659.779	1	5
659.949	1	0
660.118	1	5
660.288	1	5
660.457	1	2
660.626	1	-11
660.796	1	3
660.965	1	2
661.135	1	5
661.304	1	-3
661.474	1	11
661.643	1	6
661.813	1	7
661.982	1	-1
662.152	1	4
662.321	1	5
662.491	1	5
662.660	1	-4
662.829	1	-1
662.999	1	-1
663.168	1	3
663.338	1	8
663.507	1	-8
663.677	1	6
663.846	1	10
664.016	1	-1
664.185	1	2
664.354	1	1
664.524	1	-2
664.693	1	6
664.863	1	-10
665.032	1	8
665.202	1	6
665.371	1	-2
665.541	1	5
665.710	1	-1
665.879	1	10
666.049	1	10
666.218	1	10
666.388	1	3
666.557	1	0
666.727	1	-5
666.896	1	0
667.065	1	3
667.235	1	13
667.404	1	-3
667.574	1	10
667.743	1	-1
667.913	1	-5
668.082	1	-9
668.251	1	7
668.421	1	2
668.590	1	10
668.760	1	-8
668.929	1	10
669.099	1	1
669.268	1	4
669.437	1	-3
669.607	1	11
669.776	1	2
669.946	1	-1
670.115	1	0
670.285	1	-1
670.454	1	-1
670.623	1	-8
670.793	1	-1
670.962	1	7
671.132	1	-3
671.301	1	-1
671.470	1	4
671.640	1	-8
671.809	1	14
671.979	1	5
672.148	1	4
672.317	1	3
672.487	1	11
672.656	1	9
672.826	1	1
672.995	1	-6
673.164	1	8
673.334	1	-4
673.503	1	-5
673.673	1	1
673.842	1	-5
674.011	1	2
674.181	1	-14
674.350	1	5
674.520	1	4
674.689	1	3
674.858	1	-1
675.028	1	7
675.197	1	4
675.367	1	7
675.536	1	3
675.705	1	0
675.875	1	3
676.044	1	-7
676.214	1	-4
676.383	1	13
676.552	1	5
676.722	1	2
676.891	1	-2
677.060	1	-10
677.230	1	-3
677.399	1	-4
677.569	1	0
677.738	1	-13
677.907	1	4
678.077	1	1
678.246	1	9
678.416	1	1
678.585	1	-3
678.754	1	1
678.924	1	-9
679.093	1	0
679.262	1	1
679.432	1	4
679.601	1	-3
679.771	1	0
679.940	1	7
680.109	1	-3
680.279	1	-7
680.448	1	-5
680.617	1	7
680.787	1	3
680.956	1	4
681.125	1	-3
681.295	1	-4
681.464	1	1
681.634	1	8
681.803	1	2
681.972	1	2
682.142	1	2
682.311	1	-1
682.480	1	0
682.650	1	6
682.819	1	0
682.988	1	3
683.158	1	4
683.327	1	-5
683.496	1	9
683.666	1	-7
683.835	1	-2
684.004	1	3
684.174	1	0
684.343	1	-6
684.512	1	10
684.682	1	-1
684.851	1	14
685.021	1	3
685.190	1	2
685.359	1	13
685.529	1	3
685.698	1	4
685.867	1	5
686.037	1	10
686.206	1	5
686.375	1	7
686.545	1	1
686.714	1	11
686.883	1	6
687.053	1	11
687.222	1	0
687.391	1	9
687.561	1	-5
687.730	1	-3
687.899	1	-1
688.069	1	2
688.238	1	6
688.407	1	-2
688.577	1	16
688.746	1	-1
