340.368	1	-4
340.539	1	8
340.710	1	6
340.881	1	2
341.052	1	-9
341.223	1	17
341.394	1	11
341.565	1	-4
341.737	1	-2
341.908	1	11
342.079	1	8
342.250	1	-4
342.421	1	10
342.592	1	16
342.763	1	-14
342.934	1	-4
343.105	1	-3
343.276	1	1
343.447	1	4
343.618	1	2
343.789	1	4
343.960	1	4
344.131	1	-4
344.302	1	13
344.473	1	10
344.644	1	8
344.815	1	8
344.986	1	11
345.157	1	5
345.328	1	9
345.499	1	7
345.670	1	5
345.841	1	7
346.012	1	6
346.183	1	6
346.354	1	11
346.526	1	-2
346.697	1	3
346.868	1	2
347.039	1	3
347.210	1	4
347.381	1	20
347.552	1	6
347.723	1	10
347.894	1	-4
348.065	1	16
348.236	1	0
348.407	1	-3
348.578	1	9
348.749	1	5
348.920	1	11
349.091	1	12
349.262	1	15
349.433	1	18
349.604	1	5
349.775	1	-3
349.946	1	14
350.117	1	6
350.288	1	4
350.459	1	10
350.630	1	-5
350.801	1	9
350.972	1	15
351.143	1	12
351.314	1	5
351.485	1	9
351.656	1	9
351.827	1	2
351.998	1	1
352.169	1	16
352.340	1	18
352.511	1	8
352.682	1	10
352.853	1	14
353.024	1	11
353.195	1	20
353.366	1	16
353.537	1	14
353.708	1	10
353.879	1	13
354.050	1	14
354.221	1	10
354.392	1	4
354.563	1	12
354.734	1	22
354.905	1	28
355.076	1	18
355.247	1	16
355.418	1	16
355.589	1	8
355.760	1	13
355.931	1	25
356.102	1	25
356.273	1	18
356.444	1	24
356.615	1	33
356.785	1	19
356.956	1	17
357.127	1	32
357.298	1	22
357.469	1	21
357.640	1	23
357.811	1	30
357.982	1	33
358.153	1	36
358.324	1	45
358.495	1	31
358.666	1	31
358.837	1	40
359.008	1	45
359.179	1	37
359.350	1	30
359.521	1	34
359.692	1	29
359.863	1	25
360.034	1	39
360.205	1	66
360.376	1	41
360.547	1	40
360.718	1	31
360.889	1	53
361.060	1	54
361.231	1	53
361.401	1	43
361.572	1	51
361.743	1	45
361.914	1	56
362.085	1	58
362.256	1	49
362.427	1	49
362.598	1	58
362.769	1	78
362.940	1	63
363.111	1	66
363.282	1	74
363.453	1	77
363.624	1	88
363.795	1	78
363.966	1	74
364.137	1	81
364.308	1	82
364.478	1	90
364.649	1	79
364.820	1	98
364.991	1	105
365.162	1	100
365.333	1	107
365.504	1	119
365.675	1	116
365.846	1	124
366.017	1	133
366.188	1	132
366.359	1	138
366.530	1	137
366.701	1	146
366.871	1	160
367.042	1	152
367.213	1	157
367.384	1	167
367.555	1	182
367.726	1	181
367.897	1	189
368.068	1	179
368.239	1	198
368.410	1	207
368.581	1	207
368.752	1	222
368.923	1	213
369.093	1	228
369.264	1	239
369.435	1	239
369.606	1	227
369.777	1	261
369.948	1	271
370.119	1	268
370.290	1	268
370.461	1	291
370.632	1	291
370.803	1	294
370.973	1	280
371.144	1	310
371.315	1	309
371.486	1	305
371.657	1	319
371.828	1	334
371.999	1	323
372.170	1	329
372.341	1	325
372.512	1	332
372.682	1	344
372.853	1	358
373.024	1	348
373.195	1	359
373.366	1	363
373.537	1	358
373.708	1	350
373.879	1	333
374.050	1	359
374.220	1	352
374.391	1	345
374.562	1	349
374.733	1	348
374.904	1	347
375.075	1	337
375.246	1	330
375.417	1	349
375.588	1	328
375.758	1	334
375.929	1	342
376.100	1	313
376.271	1	311
376.442	1	309
376.613	1	309
376.784	1	301
376.955	1	316
377.125	1	288
377.296	1	269
377.467	1	270
377.638	1	262
377.809	1	272
377.980	1	250
378.151	1	258
378.321	1	250
378.492	1	229
378.663	1	241
378.834	1	243
379.005	1	238
379.176	1	242
379.347	1	234
379.518	1	213
379.688	1	223
379.859	1	202
380.030	1	216
380.201	1	194
380.372	1	207
380.543	1	204
380.714	1	199
380.884	1	199
381.055	1	176
381.226	1	197
381.397	1	170
381.568	1	179
381.739	1	162
381.910	1	166
382.080	1	166
382.251	1	160
382.422	1	163
382.593	1	151
382.764	1	142
382.935	1	143
383.105	1	157
383.276	1	145
383.447	1	136
383.618	1	118
383.789	1	132
383.960	1	117
384.130	1	125
384.301	1	111
384.472	1	117
384.643	1	120
384.814	1	106
384.985	1	116
385.156	1	116
385.326	1	104
385.497	1	97
385.668	1	96
385.839	1	104
386.010	1	102
386.180	1	98
386.351	1	105
386.522	1	85
386.693	1	88
386.864	1	106
387.035	1	93
387.205	1	92
387.376	1	87
387.547	1	86
387.718	1	97
387.889	1	89
388.060	1	83
388.230	1	78
388.401	1	83
388.572	1	78
388.743	1	71
388.914	1	80
389.084	1	74
389.255	1	62
389.426	1	77
389.597	1	75
389.768	1	78
389.939	1	75
390.109	1	62
390.280	1	65
390.451	1	51
390.622	1	60
390.793	1	52
390.963	1	59
391.134	1	52
391.305	1	50
391.476	1	61
391.647	1	61
391.817	1	58
391.988	1	54
392.159	1	55
392.330	1	58
392.501	1	47
392.671	1	41
392.842	1	38
393.013	1	57
393.184	1	49
393.355	1	35
393.525	1	49
393.696	1	50
393.867	1	54
394.038	1	44
394.208	1	47
394.379	1	49
394.550	1	48
394.721	1	45
394.892	1	57
395.062	1	44
395.233	1	36
395.404	1	34
395.575	1	43
395.746	1	32
395.916	1	41
396.087	1	33
396.258	1	36
396.429	1	31
396.599	1	32
396.770	1	31
396.941	1	36
397.112	1	36
397.283	1	44
397.453	1	31
397.624	1	36
397.795	1	28
397.966	1	38
398.136	1	30
398.307	1	37
398.478	1	36
398.649	1	24
398.819	1	36
398.990	1	33
399.161	1	42
399.332	1	30
399.503	1	30
399.673	1	23
399.844	1	26
400.015	1	31
400.186	1	38
400.356	1	17
400.527	1	33
400.698	1	26
400.869	1	23
401.039	1	32
401.210	1	35
401.381	1	27
401.552	1	29
401.722	1	23
401.893	1	12
402.064	1	21
402.235	1	34
402.405	1	28
402.576	1	34
402.747	1	19
402.918	1	30
403.088	1	15
403.259	1	14
403.430	1	30
403.601	1	21
403.771	1	20
403.942	1	20
404.113	1	12
404.284	1	19
404.454	1	13
404.625	1	18
404.796	1	23
404.967	1	25
405.137	1	13
405.308	1	15
405.479	1	18
405.649	1	17
405.820	1	10
405.991	1	15
406.162	1	12
406.332	1	22
406.503	1	13
406.674	1	22
406.845	1	12
407.015	1	22
407.186	1	11
407.357	1	19
407.527	1	9
407.698	1	18
407.869	1	23
408.040	1	15
408.210	1	15
408.381	1	20
408.552	1	20
408.722	1	12
408.893	1	21
409.064	1	13
409.235	1	15
409.405	1	16
409.576	1	16
409.747	1	3
409.917	1	22
410.088	1	14
410.259	1	13
410.430	1	23
410.600	1	7
410.771	1	9
410.942	1	12
411.112	1	9
411.283	1	14
411.454	1	7
411.625	1	10
411.795	1	8
411.966	1	18
412.137	1	17
412.307	1	2
412.478	1	10
412.649	1	14
412.819	1	14
412.990	1	-1
413.161	1	8
413.332	1	19
413.502	1	16
413.673	1	19
413.844	1	9
414.014	1	5
414.185	1	2
414.356	1	22
414.526	1	14
414.697	1	16
414.868	1	16
415.038	1	15
415.209	1	10
415.380	1	6
415.550	1	12
415.721	1	3
415.892	1	10
416.063	1	4
416.233	1	19
416.404	1	-4
416.575	1	12
416.745	1	11
416.916	1	16
417.087	1	18
417.257	1	6
417.428	1	3
417.599	1	19
417.769	1	-5
417.940	1	9
418.111	1	13
418.281	1	16
418.452	1	13
418.623	1	-1
418.793	1	14
418.964	1	6
419.135	1	3
419.305	1	2
419.476	1	3
419.647	1	3
419.817	1	-2
419.988	1	3
420.159	1	7
420.329	1	20
420.500	1	-4
420.671	1	21
420.841	1	7
421.012	1	14
421.183	1	12
421.353	1	6
421.524	1	-1
421.695	1	12
421.865	1	13
422.036	1	11
422.206	1	9
422.377	1	13
422.548	1	-1
422.718	1	20
422.889	1	0
423.060	1	-2
423.230	1	10
423.401	1	11
423.572	1	7
423.742	1	9
423.913	1	9
424.084	1	4
424.254	1	10
424.425	1	13
424.595	1	14
424.766	1	15
424.937	1	0
425.107	1	2
425.278	1	10
425.449	1	9
425.619	1	4
425.790	1	14
425.961	1	18
426.131	1	8
426.302	1	3
426.472	1	-2
426.643	1	7
426.814	1	9
426.984	1	8
427.155	1	6
427.326	1	11
427.496	1	2
427.667	1	5
427.837	1	12
428.008	1	13
428.179	1	9
428.349	1	-2
428.520	1	4
428.691	1	16
428.861	1	20
429.032	1	3
429.202	1	5
429.373	1	1
429.544	1	12
429.714	1	6
429.885	1	19
430.055	1	7
430.226	1	6
430.397	1	-7
430.567	1	23
430.738	1	16
430.909	1	0
431.079	1	11
431.250	1	3
431.420	1	13
431.591	1	2
431.762	1	2
431.932	1	6
432.103	1	12
432.273	1	8
432.444	1	-2
432.615	1	1
432.785	1	8
432.956	1	12
433.126	1	7
433.297	1	6
433.468	1	-2
433.638	1	4
433.809	1	9
433.979	1	5
434.150	1	21
434.320	1	3
434.491	1	0
434.662	1	1
434.832	1	5
435.003	1	12
435.173	1	5
435.344	1	11
435.515	1	2
435.685	1	6
435.856	1	7
436.026	1	0
436.197	1	18
436.368	1	1
436.538	1	6
436.709	1	-2
436.879	1	-3
437.050	1	14
437.220	1	15
437.391	1	12
437.562	1	7
437.732	1	-2
437.903	1	9
438.073	1	-4
438.244	1	9
438.414	1	-2
438.585	1	3
438.756	1	7
438.926	1	15
439.097	1	0
439.267	1	3
439.438	1	12
439.608	1	8
439.779	1	6
439.949	1	9
440.120	1	3
440.291	1	7
440.461	1	-5
440.632	1	6
440.802	1	16
440.973	1	8
441.143	1	2
441.314	1	16
441.485	1	14
441.655	1	9
441.826	1	-2
441.996	1	10
442.167	1	7
442.337	1	6
442.508	1	15
442.678	1	7
442.849	1	13
443.019	1	-1
443.190	1	11
443.361	1	-1
443.531	1	2
443.702	1	10
443.872	1	7
444.043	1	9
444.213	1	15
444.384	1	4
444.554	1	1
444.725	1	-4
444.895	1	7
445.066	1	1
445.237	1	4
445.407	1	7
445.578	1	9
445.748	1	6
445.919	1	9
446.089	1	4
446.260	1	-2
446.430	1	10
446.601	1	3
446.771	1	9
446.942	1	6
447.112	1	4
447.283	1	16
447.453	1	-1
447.624	1	0
447.794	1	6
447.965	1	6
448.135	1	7
448.306	1	7
448.477	1	7
448.647	1	7
448.818	1	4
448.988	1	-5
449.159	1	7
449.329	1	3
449.500	1	6
449.670	1	12
449.841	1	5
450.011	1	13
450.182	1	6
450.352	1	18
450.523	1	5
450.693	1	8
450.864	1	8
451.034	1	3
451.205	1	16
451.375	1	-4
451.546	1	6
451.716	1	2
451.887	1	16
452.057	1	-3
452.228	1	13
452.398	1	8
452.569	1	7
452.739	1	15
452.910	1	9
453.080	1	19
453.251	1	15
453.421	1	-4
453.592	1	6
453.762	1	14
453.933	1	8
454.103	1	3
454.274	1	0
454.444	1	4
454.615	1	3
454.785	1	7
454.956	1	12
455.126	1	9
455.297	1	-1
455.467	1	9
455.638	1	-3
455.808	1	1
455.979	1	7
456.149	1	11
456.320	1	4
456.490	1	12
456.661	1	7
456.831	1	4
457.001	1	13
457.172	1	14
457.342	1	10
457.513	1	7
457.683	1	8
457.854	1	9
458.024	1	3
458.195	1	-4
458.365	1	6
458.536	1	11
458.706	1	10
458.877	1	13
459.047	1	2
459.218	1	-4
459.388	1	-7
459.559	1	17
459.729	1	15
459.899	1	-3
460.070	1	10
460.240	1	17
460.411	1	7
460.581	1	1
460.752	1	9
460.922	1	20
461.093	1	4
461.263	1	-1
461.434	1	10
461.604	1	1
461.775	1	2
461.945	1	6
462.115	1	6
462.286	1	13
462.456	1	17
462.627	1	6
462.797	1	9
462.968	1	15
463.138	1	10
463.309	1	13
463.479	1	16
463.649	1	15
463.820	1	-10
463.990	1	7
464.161	1	-4
464.331	1	2
464.502	1	10
464.672	1	4
464.843	1	13
465.013	1	15
465.183	1	2
465.354	1	6
465.524	1	12
465.695	1	9
465.865	1	-3
466.036	1	8
466.206	1	4
466.376	1	2
466.547	1	-1
466.717	1	-6
466.888	1	5
467.058	1	9
467.229	1	0
467.399	1	9
467.569	1	11
467.740	1	1
467.910	1	-9
468.081	1	7
468.251	1	11
468.422	1	3
468.592	1	6
468.762	1	16
468.933	1	11
469.103	1	2
469.274	1	11
469.444	1	11
469.614	1	16
469.785	1	-2
469.955	1	4
470.126	1	5
470.296	1	0
470.467	1	6
470.637	1	18
470.807	1	8
470.978	1	11
471.148	1	13
471.319	1	8
471.489	1	5
471.659	1	9
471.830	1	4
472.000	1	7
472.171	1	4
472.341	1	-3
472.511	1	3
472.682	1	8
472.852	1	9
473.023	1	-5
473.193	1	1
473.363	1	11
473.534	1	-8
473.704	1	5
473.875	1	5
474.045	1	6
474.215	1	13
474.386	1	9
474.556	1	4
474.727	1	12
474.897	1	9
475.067	1	9
475.238	1	-4
475.408	1	6
475.578	1	6
475.749	1	8
475.919	1	-1
476.090	1	5
476.260	1	14
476.430	1	3
476.601	1	6
476.771	1	7
476.942	1	13
477.112	1	8
477.282	1	3
477.453	1	-4
477.623	1	6
477.793	1	6
477.964	1	-6
478.134	1	7
478.305	1	-2
478.475	1	-16
478.645	1	4
478.816	1	12
478.986	1	0
479.156	1	-4
479.327	1	-7
479.497	1	4
479.667	1	6
479.838	1	4
480.008	1	-1
480.179	1	17
480.349	1	6
480.519	1	5
480.690	1	4
480.860	1	12
481.030	1	-2
481.201	1	-1
481.371	1	10
481.541	1	7
481.712	1	11
481.882	1	7
482.053	1	11
482.223	1	3
482.393	1	0
482.564	1	1
482.734	1	-1
482.904	1	10
483.075	1	-2
483.245	1	18
483.415	1	1
483.586	1	8
483.756	1	3
483.926	1	7
484.097	1	14
484.267	1	-9
484.437	1	8
484.608	1	1
484.778	1	14
484.948	1	0
485.119	1	0
485.289	1	-1
485.459	1	4
485.630	1	17
485.800	1	9
485.970	1	5
486.141	1	6
486.311	1	5
486.481	1	0
486.652	1	4
486.822	1	16
486.992	1	-1
487.163	1	18
487.333	1	3
487.503	1	8
487.674	1	14
487.844	1	0
488.014	1	-1
488.185	1	11
488.355	1	9
488.525	1	4
488.696	1	9
488.866	1	5
489.036	1	3
489.207	1	11
489.377	1	2
489.547	1	13
489.718	1	5
489.888	1	8
490.058	1	10
490.228	1	8
490.399	1	-6
490.569	1	4
490.739	1	6
490.910	1	7
491.080	1	2
491.250	1	1
491.421	1	6
491.591	1	4
491.761	1	15
491.932	1	7
492.102	1	6
492.272	1	3
492.442	1	11
492.613	1	20
492.783	1	2
492.953	1	15
493.124	1	-3
493.294	1	9
493.464	1	14
493.635	1	10
493.805	1	-2
493.975	1	2
494.145	1	-4
494.316	1	3
494.486	1	3
494.656	1	6
494.827	1	-2
494.997	1	2
495.167	1	6
495.337	1	20
495.508	1	8
495.678	1	9
495.848	1	2
496.019	1	4
496.189	1	14
496.359	1	-2
496.529	1	5
496.700	1	10
496.870	1	5
497.040	1	7
497.211	1	5
497.381	1	0
497.551	1	-3
497.721	1	21
497.892	1	7
498.062	1	19
498.232	1	-4
498.403	1	2
498.573	1	11
498.743	1	16
498.913	1	13
499.084	1	2
499.254	1	9
499.424	1	7
499.594	1	13
499.765	1	-2
499.935	1	13
500.105	1	1
500.275	1	4
500.446	1	5
500.616	1	10
500.786	1	4
500.956	1	10
501.127	1	7
501.297	1	4
501.467	1	6
501.638	1	1
501.808	1	-4
501.978	1	7
502.148	1	18
502.319	1	2
502.489	1	6
502.659	1	3
502.829	1	6
503.000	1	1
503.170	1	2
503.340	1	15
503.510	1	0
503.681	1	10
503.851	1	5
504.021	1	12
504.191	1	-1
504.362	1	10
504.532	1	-1
504.702	1	16
504.872	1	-2
505.042	1	1
505.213	1	7
505.383	1	3
505.553	1	10
505.723	1	2
505.894	1	16
506.064	1	9
506.234	1	4
506.404	1	2
506.575	1	8
506.745	1	4
506.915	1	8
507.085	1	13
507.256	1	6
507.426	1	4
507.596	1	11
507.766	1	4
507.936	1	3
508.107	1	13
508.277	1	4
508.447	1	5
508.617	1	6
508.788	1	-5
508.958	1	5
509.128	1	6
509.298	1	-1
509.468	1	6
509.639	1	19
509.809	1	16
509.979	1	13
510.149	1	14
510.319	1	4
510.490	1	2
510.660	1	7
510.830	1	4
511.000	1	12
511.171	1	-3
511.341	1	4
511.511	1	19
511.681	1	6
511.851	1	9
512.022	1	9
512.192	1	6
512.362	1	14
512.532	1	12
512.702	1	9
512.873	1	4
513.043	1	12
513.213	1	4
513.383	1	11
513.553	1	-4
513.724	1	8
513.894	1	2
514.064	1	0
514.234	1	2
514.404	1	9
514.575	1	4
514.745	1	4
514.915	1	-8
515.085	1	8
515.255	1	10
515.425	1	4
515.596	1	10
515.766	1	9
515.936	1	8
516.106	1	-2
516.276	1	7
516.447	1	15
516.617	1	3
516.787	1	8
516.957	1	14
517.127	1	12
517.297	1	4
517.468	1	20
517.638	1	7
517.808	1	16
517.978	1	14
518.148	1	9
518.319	1	11
518.489	1	11
518.659	1	14
518.829	1	3
518.999	1	6
519.169	1	2
519.340	1	7
519.510	1	7
519.680	1	12
519.850	1	9
520.020	1	11
520.190	1	4
520.361	1	4
520.531	1	-1
520.701	1	6
520.871	1	0
521.041	1	1
521.211	1	10
521.382	1	8
521.552	1	18
521.722	1	17
521.892	1	5
522.062	1	-5
522.232	1	16
522.402	1	9
522.573	1	9
522.743	1	7
522.913	1	2
523.083	1	5
523.253	1	1
523.423	1	18
523.593	1	1
523.764	1	7
523.934	1	6
524.104	1	8
524.274	1	-2
524.444	1	7
524.614	1	3
524.784	1	16
524.955	1	14
525.125	1	8
525.295	1	18
525.465	1	-2
525.635	1	-2
525.805	1	8
525.975	1	13
526.146	1	14
526.316	1	-7
526.486	1	12
526.656	1	20
526.826	1	3
526.996	1	22
527.166	1	13
527.337	1	9
527.507	1	2
527.677	1	20
527.847	1	13
528.017	1	3
528.187	1	3
528.357	1	6
528.527	1	1
528.698	1	12
528.868	1	8
529.038	1	7
529.208	1	12
529.378	1	2
529.548	1	2
529.718	1	10
529.888	1	16
530.058	1	12
530.229	1	7
530.399	1	14
530.569	1	5
530.739	1	3
530.909	1	5
531.079	1	1
531.249	1	12
531.419	1	16
531.589	1	4
531.760	1	9
531.930	1	6
532.100	1	5
532.270	1	4
532.440	1	13
532.610	1	19
532.780	1	10
532.950	1	0
533.120	1	20
533.290	1	11
533.461	1	12
533.631	1	7
533.801	1	0
533.971	1	9
534.141	1	-3
534.311	1	16
534.481	1	1
534.651	1	3
534.821	1	6
534.991	1	5
535.162	1	14
535.332	1	14
535.502	1	7
535.672	1	7
535.842	1	13
536.012	1	12
536.182	1	17
536.352	1	1
536.522	1	8
536.692	1	12
536.862	1	10
537.032	1	6
537.203	1	7
537.373	1	19
537.543	1	9
537.713	1	-1
537.883	1	13
538.053	1	11
538.223	1	6
538.393	1	-2
538.563	1	16
538.733	1	1
538.903	1	-1
539.073	1	4
539.243	1	2
539.413	1	7
539.584	1	16
539.754	1	9
539.924	1	16
540.094	1	-1
540.264	1	-6
540.434	1	9
540.604	1	16
540.774	1	22
540.944	1	15
541.114	1	10
541.284	1	5
541.454	1	7
541.624	1	-1
541.794	1	19
541.964	1	18
542.134	1	1
542.305	1	12
542.475	1	14
542.645	1	6
542.815	1	6
542.985	1	17
543.155	1	11
543.325	1	6
543.495	1	14
543.665	1	16
543.835	1	-7
544.005	1	6
544.175	1	1
544.345	1	13
544.515	1	7
544.685	1	0
544.855	1	0
545.025	1	23
545.195	1	9
545.365	1	5
545.535	1	1
545.705	1	4
545.875	1	3
546.045	1	3
546.216	1	13
546.386	1	17
546.556	1	15
546.726	1	11
546.896	1	17
547.066	1	5
547.236	1	10
547.406	1	5
547.576	1	11
547.746	1	18
547.916	1	20
548.086	1	18
548.256	1	9
548.426	1	2
548.596	1	3
548.766	1	20
548.936	1	2
549.106	1	14
549.276	1	6
549.446	1	3
549.616	1	5
549.786	1	18
549.956	1	12
550.126	1	20
550.296	1	15
550.466	1	6
550.636	1	10
550.806	1	9
550.976	1	5
551.146	1	17
551.316	1	19
551.486	1	2
551.656	1	4
551.826	1	8
551.996	1	9
552.166	1	12
552.336	1	15
552.506	1	14
552.676	1	21
552.846	1	16
553.016	1	13
553.186	1	9
553.356	1	7
553.526	1	15
553.696	1	13
553.866	1	15
554.036	1	12
554.206	1	20
554.376	1	8
554.546	1	21
554.716	1	0
554.886	1	14
555.056	1	9
555.226	1	14
555.396	1	10
555.566	1	22
555.736	1	10
555.906	1	3
556.076	1	18
556.246	1	14
556.416	1	10
556.586	1	16
556.756	1	17
556.926	1	10
557.096	1	15
557.266	1	12
557.436	1	2
557.606	1	13
557.776	1	-4
557.946	1	10
558.116	1	8
558.286	1	0
558.456	1	2
558.626	1	30
558.796	1	11
558.966	1	11
559.136	1	14
559.306	1	20
559.476	1	9
559.646	1	5
559.816	1	4
559.986	1	12
560.155	1	-1
560.325	1	8
560.495	1	12
560.665	1	4
560.835	1	12
561.005	1	7
561.175	1	6
561.345	1	11
561.515	1	11
561.685	1	19
561.855	1	-10
562.025	1	10
562.195	1	11
562.365	1	4
562.535	1	1
562.705	1	14
562.875	1	2
563.045	1	10
563.215	1	12
563.385	1	23
563.555	1	14
563.725	1	9
563.895	1	15
564.064	1	21
564.234	1	11
564.404	1	4
564.574	1	24
564.744	1	19
564.914	1	11
565.084	1	13
565.254	1	16
565.424	1	-1
565.594	1	8
565.764	1	12
565.934	1	2
566.104	1	6
566.274	1	10
566.444	1	16
566.614	1	6
566.783	1	11
566.953	1	11
567.123	1	10
567.293	1	18
567.463	1	17
567.633	1	7
567.803	1	6
567.973	1	13
568.143	1	16
568.313	1	3
568.483	1	18
568.653	1	4
568.823	1	11
568.993	1	14
569.162	1	10
569.332	1	5
569.502	1	7
569.672	1	7
569.842	1	19
570.012	1	6
570.182	1	19
570.352	1	8
570.522	1	12
570.692	1	6
570.862	1	25
571.031	1	10
571.201	1	13
571.371	1	1
571.541	1	10
571.711	1	12
571.881	1	11
572.051	1	13
572.221	1	7
572.391	1	11
572.561	1	20
572.731	1	4
572.900	1	13
573.070	1	13
573.240	1	10
573.410	1	7
573.580	1	15
573.750	1	19
573.920	1	4
574.090	1	4
574.260	1	13
574.430	1	7
574.599	1	-2
574.769	1	16
574.939	1	9
575.109	1	16
575.279	1	8
575.449	1	6
575.619	1	8
575.789	1	8
575.959	1	13
576.128	1	8
576.298	1	11
576.468	1	13
576.638	1	6
576.808	1	8
576.978	1	10
577.148	1	7
577.318	1	5
577.487	1	2
577.657	1	11
577.827	1	12
577.997	1	19
578.167	1	17
578.337	1	12
578.507	1	18
578.677	1	5
578.846	1	15
579.016	1	18
579.186	1	20
579.356	1	12
579.526	1	20
579.696	1	4
579.866	1	7
580.036	1	8
580.205	1	8
580.375	1	8
580.545	1	19
580.715	1	17
580.885	1	5
581.055	1	10
581.225	1	-2
581.394	1	4
581.564	1	-3
581.734	1	8
581.904	1	15
582.074	1	16
582.244	1	15
582.414	1	22
582.583	1	10
582.753	1	6
582.923	1	6
583.093	1	12
583.263	1	10
583.433	1	3
583.603	1	11
583.772	1	15
583.942	1	18
584.112	1	5
584.282	1	17
584.452	1	12
584.622	1	16
584.791	1	10
584.961	1	11
585.131	1	12
585.301	1	8
585.471	1	7
585.641	1	16
585.811	1	24
585.980	1	16
586.150	1	8
586.320	1	19
586.490	1	9
586.660	1	11
586.830	1	16
586.999	1	3
587.169	1	4
587.339	1	5
587.509	1	10
587.679	1	16
587.849	1	13
588.018	1	3
588.188	1	11
588.358	1	13
588.528	1	1
588.698	1	14
588.867	1	6
589.037	1	12
589.207	1	0
589.377	1	17
589.547	1	15
589.717	1	16
589.886	1	2
590.056	1	4
590.226	1	12
590.396	1	7
590.566	1	16
590.735	1	4
590.905	1	14
591.075	1	15
591.245	1	11
591.415	1	10
591.585	1	10
591.754	1	4
591.924	1	13
592.094	1	4
592.264	1	10
592.434	1	18
592.603	1	12
592.773	1	19
592.943	1	8
593.113	1	3
593.283	1	12
593.452	1	6
593.622	1	4
593.792	1	11
593.962	1	16
594.132	1	9
594.301	1	5
594.471	1	7
594.641	1	2
594.811	1	7
594.981	1	5
595.150	1	11
595.320	1	15
595.490	1	3
595.660	1	11
595.829	1	14
595.999	1	0
596.169	1	8
596.339	1	6
596.509	1	7
596.678	1	2
596.848	1	16
597.018	1	0
597.188	1	3
597.358	1	11
597.527	1	14
597.697	1	8
597.867	1	16
598.037	1	8
598.206	1	6
598.376	1	10
598.546	1	10
598.716	1	-2
598.885	1	17
599.055	1	16
599.225	1	23
599.395	1	5
599.565	1	-2
599.734	1	9
599.904	1	18
600.074	1	7
600.244	1	15
600.413	1	5
600.583	1	3
600.753	1	8
600.923	1	12
601.092	1	3
601.262	1	5
601.432	1	12
601.602	1	5
601.771	1	17
601.941	1	10
602.111	1	5
602.281	1	15
602.451	1	8
602.620	1	6
602.790	1	-10
602.960	1	0
603.130	1	1
603.299	1	10
603.469	1	7
603.639	1	8
603.809	1	12
603.978	1	13
604.148	1	19
604.318	1	7
604.487	1	2
604.657	1	8
604.827	1	12
604.997	1	6
605.166	1	22
605.336	1	10
605.506	1	8
605.676	1	17
605.845	1	9
606.015	1	10
606.185	1	15
606.355	1	10
606.524	1	16
606.694	1	3
606.864	1	12
607.034	1	12
607.203	1	12
607.373	1	0
607.543	1	18
607.712	1	12
607.882	1	1
608.052	1	17
608.222	1	12
608.391	1	19
608.561	1	22
608.731	1	13
608.901	1	12
609.070	1	11
609.240	1	11
609.410	1	15
609.579	1	5
609.749	1	6
609.919	1	10
610.089	1	2
610.258	1	5
610.428	1	7
610.598	1	15
610.767	1	4
610.937	1	9
611.107	1	11
611.277	1	10
611.446	1	14
611.616	1	10
611.786	1	11
611.955	1	10
612.125	1	4
612.295	1	15
612.465	1	-5
612.634	1	13
612.804	1	16
612.974	1	15
613.143	1	11
613.313	1	4
613.483	1	10
613.652	1	23
613.822	1	7
613.992	1	7
614.162	1	14
614.331	1	9
614.501	1	11
614.671	1	9
614.840	1	12
615.010	1	7
615.180	1	13
615.349	1	8
615.519	1	9
615.689	1	17
615.858	1	11
616.028	1	10
616.198	1	15
616.368	1	7
616.537	1	1
616.707	1	20
616.877	1	10
617.046	1	9
617.216	1	11
617.386	1	13
617.555	1	11
617.725	1	0
617.895	1	11
618.064	1	10
618.234	1	9
618.404	1	10
618.573	1	19
618.743	1	14
618.913	1	12
619.082	1	8
619.252	1	15
619.422	1	1
619.591	1	5
619.761	1	-2
619.931	1	12
620.100	1	-5
620.270	1	2
620.440	1	3
620.609	1	10
620.779	1	14
620.949	1	4
621.118	1	-3
621.288	1	16
621.458	1	17
621.627	1	4
621.797	1	9
621.967	1	8
622.136	1	0
622.306	1	11
622.476	1	12
622.645	1	14
622.815	1	9
622.985	1	11
623.154	1	5
623.324	1	7
623.494	1	9
623.663	1	7
623.833	1	11
624.002	1	-5
624.172	1	-9
624.342	1	4
624.511	1	-6
624.681	1	12
624.851	1	10
625.020	1	5
625.190	1	18
625.360	1	6
625.529	1	10
625.699	1	1
625.869	1	17
626.038	1	10
626.208	1	7
626.377	1	20
626.547	1	10
626.717	1	5
626.886	1	12
627.056	1	13
627.226	1	6
627.395	1	4
627.565	1	6
627.735	1	13
627.904	1	-3
628.074	1	6
628.243	1	20
628.413	1	-2
628.583	1	7
628.752	1	13
628.922	1	8
629.091	1	7
629.261	1	-1
629.431	1	18
629.600	1	20
629.770	1	2
629.940	1	4
630.109	1	8
630.279	1	5
630.448	1	6
630.618	1	28
630.788	1	7
630.957	1	0
631.127	1	15
631.297	1	11
631.466	1	14
631.636	1	6
631.805	1	15
631.975	1	13
632.145	1	9
632.314	1	11
632.484	1	4
632.653	1	3
632.823	1	14
632.993	1	13
633.162	1	4
633.332	1	4
633.501	1	7
633.671	1	7
633.841	1	12
634.010	1	18
634.180	1	-1
634.349	1	19
634.519	1	-1
634.689	1	6
634.858	1	-10
635.028	1	8
635.197	1	12
635.367	1	10
635.537	1	4
635.706	1	11
635.876	1	5
636.045	1	10
636.215	1	15
636.384	1	13
636.554	1	2
636.724	1	6
636.893	1	8
637.063	1	7
637.232	1	2
637.402	1	5
637.572	1	-4
637.741	1	9
637.911	1	12
638.080	1	-1
638.250	1	12
638.419	1	11
638.589	1	16
638.759	1	12
638.928	1	12
639.098	1	3
639.267	1	12
639.437	1	7
639.606	1	12
639.776	1	5
639.946	1	10
640.115	1	-3
640.285	1	13
640.454	1	-1
640.624	1	12
640.793	1	15
640.963	1	12
641.132	1	3
641.302	1	18
641.472	1	7
641.641	1	0
641.811	1	9
641.980	1	9
642.150	1	-1
642.319	1	10
642.489	1	7
642.659	1	4
642.828	1	5
642.998	1	2
643.167	1	11
643.337	1	2
643.506	1	8
643.676	1	5
643.845	1	3
644.015	1	8
644.184	1	9
644.354	1	13
644.524	1	5
644.693	1	13
644.863	1	3
645.032	1	9
645.202	1	5
645.371	1	15
645.541	1	12
645.710	1	20
645.880	1	4
646.049	1	11
646.219	1	7
646.388	1	1
646.558	1	1
646.728	1	12
646.897	1	1
647.067	1	6
647.236	1	4
647.406	1	2
647.575	1	6
647.745	1	8
647.914	1	10
648.084	1	9
648.253	1	17
648.423	1	4
648.592	1	6
648.762	1	14
648.931	1	15
649.101	1	8
649.270	1	5
649.440	1	4
649.610	1	-2
649.779	1	-4
649.949	1	2
650.118	1	4
650.288	1	8
650.457	1	21
650.627	1	4
650.796	1	9
650.966	1	1
651.135	1	14
651.305	1	4
651.474	1	18
651.644	1	-1
651.813	1	-9
651.983	1	7
652.152	1	7
652.322	1	9
652.491	1	27
652.661	1	10
652.830	1	16
653.000	1	12
653.169	1	5
653.339	1	7
653.508	1	4
653.678	1	14
653.847	1	13
654.017	1	13
654.186	1	5
654.356	1	1
654.525	1	5
654.695	1	3
654.864	1	6
655.034	1	2
655.203	1	3
655.373	1	10
655.542	1	7
655.712	1	0
655.881	1	7
656.051	1	5
656.220	1	12
656.390	1	13
656.559	1	13
656.729	1	1
656.898	1	5
657.068	1	18
657.237	1	9
657.406	1	6
657.576	1	5
657.745	1	-2
657.915	1	5
658.084	1	10
658.254	1	7
658.423	1	6
658.593	1	8
658.762	1	9
658.932	1	5
659.101	1	0
659.271	1	6
659.440	1	13
659.610	1	9
659.779	1	14
659.949	1	6
660.118	1	13
660.288	1	6
660.457	1	8
660.626	1	-3
660.796	1	7
660.965	1	11
661.135	1	6
661.304	1	7
661.474	1	14
661.643	1	5
661.813	1	12
661.982	1	3
662.152	1	3
662.321	1	7
662.491	1	16
662.660	1	1
662.829	1	9
662.999	1	2
663.168	1	4
663.338	1	14
663.507	1	-4
663.677	1	12
663.846	1	9
664.016	1	-3
664.185	1	2
664.354	1	-8
664.524	1	5
664.693	1	14
664.863	1	7
665.032	1	16
665.202	1	18
665.371	1	9
665.541	1	14
665.710	1	7
665.879	1	11
666.049	1	10
666.218	1	3
666.388	1	8
666.557	1	0
666.727	1	9
666.896	1	5
667.065	1	5
667.235	1	1
667.404	1	7
667.574	1	16
667.743	1	-6
667.913	1	0
668.082	1	2
668.251	1	6
668.421	1	9
668.590	1	3
668.760	1	2
668.929	1	11
669.099	1	14
669.268	1	10
669.437	1	10
669.607	1	8
669.776	1	-2
669.946	1	2
670.115	1	3
670.285	1	6
670.454	1	1
670.623	1	7
670.793	1	8
670.962	1	14
671.132	1	-1
671.301	1	8
671.470	1	8
671.640	1	-9
671.809	1	21
671.979	1	11
672.148	1	7
672.317	1	3
672.487	1	16
672.656	1	7
672.826	1	14
672.995	1	3
673.164	1	9
673.334	1	-3
673.503	1	7
673.673	1	7
673.842	1	9
674.011	1	2
674.181	1	-4
674.350	1	11
674.520	1	6
674.689	1	11
674.858	1	10
675.028	1	19
675.197	1	5
675.367	1	17
675.536	1	8
675.705	1	8
675.875	1	6
676.044	1	7
676.214	1	-1
676.383	1	13
676.552	1	-2
676.722	1	7
676.891	1	6
677.060	1	-1
677.230	1	1
677.399	1	6
677.569	1	11
677.738	1	0
677.907	1	7
678.077	1	6
678.246	1	6
678.416	1	1
678.585	1	-3
678.754	1	3
678.924	1	7
679.093	1	6
679.262	1	4
679.432	1	9
679.601	1	13
679.771	1	7
679.940	1	8
680.109	1	7
680.279	1	9
680.448	1	-1
680.617	1	15
680.787	1	12
680.956	1	23
681.125	1	7
681.295	1	10
681.464	1	11
681.634	1	16
681.803	1	9
681.972	1	13
682.142	1	5
682.311	1	-1
682.480	1	10
682.650	1	15
682.819	1	8
682.988	1	18
683.158	1	8
683.327	1	4
683.496	1	3
683.666	1	12
683.835	1	7
684.004	1	15
684.174	1	9
684.343	1	-3
684.512	1	13
684.682	1	11
684.851	1	11
685.021	1	7
685.190	1	21
685.359	1	20
685.529	1	13
685.698	1	11
685.867	1	3
686.037	1	8
686.206	1	10
686.375	1	17
686.545	1	11
686.714	1	22
686.883	1	9
687.053	1	15
687.222	1	4
687.391	1	13
687.561	1	0
687.730	1	8
687.899	1	5
688.069	1	4
688.238	1	17
688.407	1	12
688.577	1	15
688.746	1	3
