340.368	1	-4
340.539	1	8
340.710	1	4
340.881	1	0
341.052	1	-9
341.223	1	9
341.394	1	-2
341.565	1	-10
341.737	1	-1
341.908	1	-4
342.079	1	9
342.250	1	-9
342.421	1	-1
342.592	1	3
342.763	1	-8
342.934	1	-6
343.105	1	-3
343.276	1	5
343.447	1	-4
343.618	1	-15
343.789	1	-4
343.960	1	-3
344.131	1	1
344.302	1	6
344.473	1	2
344.644	1	8
344.815	1	5
344.986	1	6
345.157	1	1
345.328	1	8
345.499	1	13
345.670	1	0
345.841	1	13
346.012	1	-4
346.183	1	1
346.354	1	4
346.526	1	-6
346.697	1	-10
346.868	1	0
347.039	1	-1
347.210	1	-3
347.381	1	5
347.552	1	2
347.723	1	10
347.894	1	0
348.065	1	7
348.236	1	-2
348.407	1	0
348.578	1	2
348.749	1	2
348.920	1	3
349.091	1	5
349.262	1	5
349.433	1	1
349.604	1	-7
349.775	1	-9
349.946	1	-2
350.117	1	-1
350.288	1	2
350.459	1	7
350.630	1	-4
350.801	1	11
350.972	1	10
351.143	1	11
351.314	1	-9
351.485	1	-13
351.656	1	2
351.827	1	-2
351.998	1	0
352.169	1	3
352.340	1	7
352.511	1	-4
352.682	1	2
352.853	1	3
353.024	1	12
353.195	1	9
353.366	1	0
353.537	1	2
353.708	1	1
353.879	1	-1
354.050	1	6
354.221	1	4
354.392	1	-5
354.563	1	-4
354.734	1	3
354.905	1	9
355.076	1	-11
355.247	1	-5
355.418	1	-1
355.589	1	-8
355.760	1	7
355.931	1	-8
356.102	1	7
356.273	1	4
356.444	1	3
356.615	1	-10
356.785	1	3
356.956	1	-5
357.127	1	8
357.298	1	3
357.469	1	1
357.640	1	-6
357.811	1	5
357.982	1	2
358.153	1	-3
358.324	1	7
358.495	1	2
358.666	1	4
358.837	1	-3
359.008	1	11
359.179	1	5
359.350	1	0
359.521	1	-7
359.692	1	-3
359.863	1	-7
360.034	1	-2
360.205	1	11
360.376	1	2
360.547	1	5
360.718	1	-4
360.889	1	11
361.060	1	8
361.231	1	5
361.401	1	-4
361.572	1	-2
361.743	1	-9
361.914	1	1
362.085	1	1
362.256	1	1
362.427	1	-5
362.598	1	3
362.769	1	11
362.940	1	-13
363.111	1	4
363.282	1	0
363.453	1	4
363.624	1	12
363.795	1	10
363.966	1	-6
364.137	1	-11
364.308	1	-2
364.478	1	-4
364.649	1	-2
364.820	1	0
364.991	1	-5
365.162	1	6
365.333	1	2
365.504	1	1
365.675	1	2
365.846	1	8
366.017	1	-3
366.188	1	0
366.359	1	9
366.530	1	3
366.701	1	0
366.871	1	3
367.042	1	-1
367.213	1	4
367.384	1	0
367.555	1	-7
367.726	1	9
367.897	1	6
368.068	1	-9
368.239	1	-5
368.410	1	7
368.581	1	1
368.752	1	2
368.923	1	-16
369.093	1	1
369.264	1	-3
369.435	1	-7
369.606	1	-10
369.777	1	1
369.948	1	3
370.119	1	3
370.290	1	-6
370.461	1	3
370.632	1	2
370.803	1	-2
370.973	1	-7
371.144	1	-4
371.315	1	-2
371.486	1	-3
371.657	1	-1
371.828	1	6
371.999	1	8
372.170	1	2
372.341	1	-7
372.512	1	1
372.682	1	-9
372.853	1	0
373.024	1	1
373.195	1	9
373.366	1	2
373.537	1	14
373.708	1	-5
373.879	1	1
374.050	1	15
374.220	1	3
374.391	1	-3
374.562	1	-8
374.733	1	0
374.904	1	5
375.075	1	-5
375.246	1	0
375.417	1	12
375.588	1	1
375.758	1	4
375.929	1	0
376.100	1	-5
376.271	1	-2
376.442	1	2
376.613	1	0
376.784	1	-3
376.955	1	-2
377.125	1	-7
377.296	1	-2
377.467	1	0
377.638	1	-2
377.809	1	2
377.980	1	-12
378.151	1	3
378.321	1	5
378.492	1	10
378.663	1	-7
378.834	1	5
379.005	1	8
379.176	1	3
379.347	1	-4
379.518	1	0
379.688	1	10
379.859	1	3
380.030	1	2
380.201	1	9
380.372	1	-4
380.543	1	5
380.714	1	9
380.884	1	7
381.055	1	-13
381.226	1	7
381.397	1	-2
381.568	1	-7
381.739	1	4
381.910	1	0
382.080	1	15
382.251	1	7
382.422	1	5
382.593	1	-3
382.764	1	-8
382.935	1	0
383.105	1	4
383.276	1	-2
383.447	1	8
383.618	1	-4
383.789	1	11
383.960	1	-4
384.130	1	0
384.301	1	1
384.472	1	1
384.643	1	7
384.814	1	4
384.985	1	11
385.156	1	5
385.326	1	2
385.497	1	5
385.668	1	9
385.839	1	8
386.010	1	10
386.180	1	3
386.351	1	21
386.522	1	-5
386.693	1	5
386.864	1	-10
387.035	1	5
387.205	1	1
387.376	1	4
387.547	1	-3
387.718	1	-3
387.889	1	13
388.060	1	7
388.230	1	-4
388.401	1	-4
388.572	1	0
388.743	1	-3
388.914	1	-4
389.084	1	-2
389.255	1	-5
389.426	1	-4
389.597	1	6
389.768	1	18
389.939	1	3
390.109	1	-13
390.280	1	-2
390.451	1	-5
390.622	1	6
390.793	1	-4
390.963	1	1
391.134	1	-4
391.305	1	13
391.476	1	7
391.647	1	2
391.817	1	4
391.988	1	1
392.159	1	-5
392.330	1	1
392.501	1	-2
392.671	1	-5
392.842	1	-1
393.013	1	5
393.184	1	14
393.355	1	0
393.525	1	-4
393.696	1	-5
393.867	1	13
394.038	1	2
394.208	1	-5
394.379	1	-10
394.550	1	1
394.721	1	2
394.892	1	11
395.062	1	5
395.233	1	-6
395.404	1	-6
395.575	1	2
395.746	1	5
395.916	1	8
396.087	1	-4
396.258	1	3
396.429	1	-1
396.599	1	-4
396.770	1	-5
396.941	1	9
397.112	1	5
397.283	1	3
397.453	1	3
397.624	1	9
397.795	1	8
397.966	1	13
398.136	1	-1
398.307	1	-2
398.478	1	-4
398.649	1	0
398.819	1	-3
398.990	1	-2
399.161	1	6
399.332	1	6
399.503	1	-7
399.673	1	2
399.844	1	-6
400.015	1	1
400.186	1	-6
400.356	1	-2
400.527	1	-2
400.698	1	-7
400.869	1	-3
401.039	1	3
401.210	1	18
401.381	1	6
401.552	1	-1
401.722	1	-3
401.893	1	-9
402.064	1	-4
402.235	1	-1
402.405	1	22
402.576	1	2
402.747	1	2
402.918	1	1
403.088	1	-3
403.259	1	8
403.430	1	-1
403.601	1	5
403.771	1	8
403.942	1	-5
404.113	1	-1
404.284	1	1
404.454	1	4
404.625	1	11
404.796	1	15
404.967	1	-4
405.137	1	-7
405.308	1	-2
405.479	1	-4
405.649	1	2
405.820	1	-5
405.991	1	5
406.162	1	4
406.332	1	3
406.503	1	-6
406.674	1	4
406.845	1	4
407.015	1	0
407.186	1	-1
407.357	1	2
407.527	1	1
407.698	1	0
407.869	1	7
408.040	1	3
408.210	1	5
408.381	1	3
408.552	1	4
408.722	1	-11
408.893	1	-10
409.064	1	2
409.235	1	0
409.405	1	-6
409.576	1	7
409.747	1	-5
409.917	1	3
410.088	1	-8
410.259	1	-1
410.430	1	2
410.600	1	-3
410.771	1	-6
410.942	1	-12
411.112	1	12
411.283	1	3
411.454	1	-2
411.625	1	0
411.795	1	-10
411.966	1	-2
412.137	1	6
412.307	1	0
412.478	1	-3
412.649	1	8
412.819	1	1
412.990	1	-15
413.161	1	1
413.332	1	-3
413.502	1	-10
413.673	1	-6
413.844	1	-5
414.014	1	7
414.185	1	-5
414.356	1	12
414.526	1	11
414.697	1	4
414.868	1	9
415.038	1	-7
415.209	1	1
415.380	1	-3
415.550	1	5
415.721	1	-8
415.892	1	-2
416.063	1	3
416.233	1	13
416.404	1	4
416.575	1	5
416.745	1	-6
416.916	1	-3
417.087	1	4
417.257	1	5
417.428	1	-3
417.599	1	15
417.769	1	-4
417.940	1	7
418.111	1	9
418.281	1	12
418.452	1	-3
418.623	1	-3
418.793	1	9
418.964	1	7
419.135	1	2
419.305	1	1
419.476	1	5
419.647	1	-13
419.817	1	-5
419.988	1	5
420.159	1	8
420.329	1	3
420.500	1	-12
420.671	1	9
420.841	1	-1
421.012	1	8
421.183	1	3
421.353	1	4
421.524	1	1
421.695	1	2
421.865	1	8
422.036	1	7
422.206	1	1
422.377	1	6
422.548	1	-8
422.718	1	3
422.889	1	-3
423.060	1	1
423.230	1	1
423.401	1	2
423.572	1	1
423.742	1	5
423.913	1	5
424.084	1	3
424.254	1	7
424.425	1	-1
424.595	1	-3
424.766	1	3
424.937	1	2
425.107	1	9
425.278	1	12
425.449	1	-1
425.619	1	-1
425.790	1	1
425.961	1	-1
426.131	1	-2
426.302	1	5
426.472	1	2
426.643	1	1
426.814	1	1
426.984	1	-5
427.155	1	1
427.326	1	8
427.496	1	2
427.667	1	0
427.837	1	5
428.008	1	9
428.179	1	-9
428.349	1	8
428.520	1	-3
428.691	1	1
428.861	1	11
429.032	1	-3
429.202	1	2
429.373	1	-7
429.544	1	3
429.714	1	-5
429.885	1	8
430.055	1	2
430.226	1	11
430.397	1	-9
430.567	1	10
430.738	1	5
430.909	1	-5
431.079	1	-1
431.250	1	-1
431.420	1	0
431.591	1	-6
431.762	1	6
431.932	1	7
432.103	1	7
432.273	1	4
432.444	1	-8
432.615	1	-5
432.785	1	3
432.956	1	8
433.126	1	4
433.297	1	-11
433.468	1	-3
433.638	1	2
433.809	1	-1
433.979	1	-1
434.150	1	13
434.320	1	1
434.491	1	0
434.662	1	-2
434.832	1	1
435.003	1	7
435.173	1	-1
435.344	1	2
435.515	1	5
435.685	1	-4
435.856	1	6
436.026	1	-6
436.197	1	7
436.368	1	-3
436.538	1	4
436.709	1	6
436.879	1	-3
437.050	1	1
437.220	1	8
437.391	1	9
437.562	1	7
437.732	1	-2
437.903	1	4
438.073	1	-8
438.244	1	6
438.414	1	3
438.585	1	-7
438.756	1	6
438.926	1	13
439.097	1	1
439.267	1	2
439.438	1	15
439.608	1	4
439.779	1	4
439.949	1	0
440.120	1	-7
440.291	1	3
440.461	1	-5
440.632	1	2
440.802	1	10
440.973	1	5
441.143	1	-5
441.314	1	4
441.485	1	0
441.655	1	-2
441.826	1	0
441.996	1	9
442.167	1	2
442.337	1	-2
442.508	1	13
442.678	1	0
442.849	1	8
443.019	1	-1
443.190	1	3
443.361	1	3
443.531	1	-1
443.702	1	6
443.872	1	6
444.043	1	4
444.213	1	-1
444.384	1	-3
444.554	1	-5
444.725	1	0
444.895	1	-1
445.066	1	-6
445.237	1	3
445.407	1	5
445.578	1	-1
445.748	1	1
445.919	1	11
446.089	1	-1
446.260	1	-5
446.430	1	11
446.601	1	6
446.771	1	-4
446.942	1	4
447.112	1	9
447.283	1	12
447.453	1	4
447.624	1	-6
447.794	1	2
447.965	1	1
448.135	1	-4
448.306	1	10
448.477	1	3
448.647	1	2
448.818	1	3
448.988	1	-7
449.159	1	0
449.329	1	3
449.500	1	8
449.670	1	8
449.841	1	3
450.011	1	4
450.182	1	-3
450.352	1	6
450.523	1	-1
450.693	1	1
450.864	1	14
451.034	1	0
451.205	1	5
451.375	1	-6
451.546	1	7
451.716	1	-4
451.887	1	1
452.057	1	-2
452.228	1	10
452.398	1	-2
452.569	1	-1
452.739	1	10
452.910	1	0
453.080	1	-4
453.251	1	5
453.421	1	-5
453.592	1	-3
453.762	1	3
453.933	1	3
454.103	1	4
454.274	1	-7
454.444	1	-1
454.615	1	-10
454.785	1	8
454.956	1	-7
455.126	1	1
455.297	1	2
455.467	1	5
455.638	1	-9
455.808	1	6
455.979	1	9
456.149	1	0
456.320	1	-5
456.490	1	3
456.661	1	3
456.831	1	-5
457.001	1	12
457.172	1	2
457.342	1	-1
457.513	1	-4
457.683	1	-2
457.854	1	-1
458.024	1	0
458.195	1	-6
458.365	1	5
458.536	1	2
458.706	1	-5
458.877	1	0
459.047	1	-5
459.218	1	-2
459.388	1	4
459.559	1	5
459.729	1	13
459.899	1	-1
460.070	1	6
460.240	1	10
460.411	1	7
460.581	1	1
460.752	1	2
460.922	1	2
461.093	1	9
461.263	1	6
461.434	1	3
461.604	1	-6
461.775	1	-3
461.945	1	-1
462.115	1	1
462.286	1	13
462.456	1	2
462.627	1	0
462.797	1	3
462.968	1	4
463.138	1	5
463.309	1	-5
463.479	1	-2
463.649	1	0
463.820	1	-3
463.990	1	1
464.161	1	-4
464.331	1	0
464.502	1	-2
464.672	1	-2
464.843	1	6
465.013	1	5
465.183	1	-10
465.354	1	7
465.524	1	9
465.695	1	6
465.865	1	-3
466.036	1	3
466.206	1	0
466.376	1	3
466.547	1	-1
466.717	1	-2
466.888	1	-4
467.058	1	0
467.229	1	6
467.399	1	10
467.569	1	10
467.740	1	-22
467.910	1	-4
468.081	1	-4
468.251	1	8
468.422	1	-2
468.592	1	5
468.762	1	18
468.933	1	3
469.103	1	-8
469.274	1	10
469.444	1	11
469.614	1	0
469.785	1	-1
469.955	1	-1
470.126	1	2
470.296	1	-6
470.467	1	0
470.637	1	1
470.807	1	2
470.978	1	2
471.148	1	6
471.319	1	-5
471.489	1	14
471.659	1	-8
471.830	1	5
472.000	1	1
472.171	1	3
472.341	1	-2
472.511	1	-2
472.682	1	2
472.852	1	5
473.023	1	3
473.193	1	-3
473.363	1	1
473.534	1	-9
473.704	1	-1
473.875	1	6
474.045	1	2
474.215	1	10
474.386	1	3
474.556	1	1
474.727	1	1
474.897	1	0
475.067	1	3
475.238	1	0
475.408	1	3
475.578	1	3
475.749	1	8
475.919	1	0
476.090	1	3
476.260	1	6
476.430	1	-9
476.601	1	-9
476.771	1	0
476.942	1	3
477.112	1	6
477.282	1	10
477.453	1	2
477.623	1	3
477.793	1	11
477.964	1	-5
478.134	1	-1
478.305	1	-10
478.475	1	-14
478.645	1	5
478.816	1	5
478.986	1	1
479.156	1	-1
479.327	1	-9
479.497	1	-1
479.667	1	-1
479.838	1	3
480.008	1	3
480.179	1	3
480.349	1	4
480.519	1	7
480.690	1	6
480.860	1	1
481.030	1	-6
481.201	1	-8
481.371	1	6
481.541	1	3
481.712	1	5
481.882	1	0
482.053	1	11
482.223	1	-3
482.393	1	1
482.564	1	-5
482.734	1	9
482.904	1	-1
483.075	1	-1
483.245	1	2
483.415	1	-3
483.586	1	4
483.756	1	3
483.926	1	0
484.097	1	5
484.267	1	-11
484.437	1	-2
484.608	1	-2
484.778	1	9
484.948	1	-8
485.119	1	1
485.289	1	-12
485.459	1	9
485.630	1	5
485.800	1	-1
485.970	1	-13
486.141	1	-1
486.311	1	4
486.481	1	-9
486.652	1	2
486.822	1	11
486.992	1	0
487.163	1	-1
487.333	1	-2
487.503	1	2
487.674	1	-1
487.844	1	0
488.014	1	-3
488.185	1	20
488.355	1	4
488.525	1	-5
488.696	1	13
488.866	1	-4
489.036	1	-5
489.207	1	3
489.377	1	7
489.547	1	5
489.718	1	-4
489.888	1	1
490.058	1	-11
490.228	1	9
490.399	1	-5
490.569	1	1
490.739	1	1
490.910	1	1
491.080	1	0
491.250	1	1
491.421	1	3
491.591	1	5
491.761	1	10
491.932	1	3
492.102	1	-5
492.272	1	4
492.442	1	-6
492.613	1	13
492.783	1	14
492.953	1	8
493.124	1	8
493.294	1	-1
493.464	1	6
493.635	1	-6
493.805	1	2
493.975	1	-3
494.145	1	-2
494.316	1	-4
494.486	1	3
494.656	1	5
494.827	1	4
494.997	1	2
495.167	1	4
495.337	1	14
495.508	1	3
495.678	1	4
495.848	1	-6
496.019	1	-4
496.189	1	5
496.359	1	0
496.529	1	2
496.700	1	-6
496.870	1	6
497.040	1	-12
497.211	1	1
497.381	1	-10
497.551	1	-5
497.721	1	14
497.892	1	6
498.062	1	4
498.232	1	4
498.403	1	0
498.573	1	5
498.743	1	9
498.913	1	2
499.084	1	-9
499.254	1	-1
499.424	1	14
499.594	1	9
499.765	1	-2
499.935	1	12
500.105	1	-5
500.275	1	-11
500.446	1	-3
500.616	1	1
500.786	1	-4
500.956	1	1
501.127	1	-1
501.297	1	4
501.467	1	-2
501.638	1	0
501.808	1	-11
501.978	1	1
502.148	1	-4
502.319	1	-6
502.489	1	8
502.659	1	-7
502.829	1	11
503.000	1	5
503.170	1	4
503.340	1	7
503.510	1	4
503.681	1	-2
503.851	1	4
504.021	1	1
504.191	1	-1
504.362	1	-3
504.532	1	-1
504.702	1	7
504.872	1	-3
505.042	1	-4
505.213	1	-1
505.383	1	-1
505.553	1	4
505.723	1	-3
505.894	1	2
506.064	1	9
506.234	1	14
506.404	1	-5
506.575	1	-5
506.745	1	0
506.915	1	-1
507.085	1	4
507.256	1	-9
507.426	1	2
507.596	1	0
507.766	1	10
507.936	1	5
508.107	1	-2
508.277	1	-5
508.447	1	-7
508.617	1	1
508.788	1	-6
508.958	1	8
509.128	1	-2
509.298	1	3
509.468	1	10
509.639	1	0
509.809	1	6
509.979	1	4
510.149	1	7
510.319	1	2
510.490	1	1
510.660	1	3
510.830	1	-2
511.000	1	7
511.171	1	-11
511.341	1	4
511.511	1	13
511.681	1	-3
511.851	1	-7
512.022	1	-5
512.192	1	0
512.362	1	11
512.532	1	-3
512.702	1	-1
512.873	1	0
513.043	1	10
513.213	1	-1
513.383	1	3
513.553	1	-2
513.724	1	0
513.894	1	3
514.064	1	-3
514.234	1	0
514.404	1	12
514.575	1	-1
514.745	1	5
514.915	1	-16
515.085	1	6
515.255	1	8
515.425	1	-3
515.596	1	0
515.766	1	5
515.936	1	7
516.106	1	3
516.276	1	-6
516.447	1	9
516.617	1	0
516.787	1	-1
516.957	1	11
517.127	1	-6
517.297	1	-7
517.468	1	2
517.638	1	5
517.808	1	1
517.978	1	10
518.148	1	10
518.319	1	11
518.489	1	-1
518.659	1	-1
518.829	1	-1
518.999	1	2
519.169	1	-4
519.340	1	0
519.510	1	-2
519.680	1	0
519.850	1	-3
520.020	1	0
520.190	1	1
520.361	1	8
520.531	1	-5
520.701	1	0
520.871	1	-4
521.041	1	-4
521.211	1	-11
521.382	1	-3
521.552	1	4
521.722	1	15
521.892	1	-1
522.062	1	-5
522.232	1	0
522.402	1	-10
522.573	1	8
522.743	1	-1
522.913	1	-7
523.083	1	-5
523.253	1	-4
523.423	1	12
523.593	1	-10
523.764	1	16
523.934	1	-2
524.104	1	4
524.274	1	-1
524.444	1	1
524.614	1	-11
524.784	1	16
524.955	1	7
525.125	1	4
525.295	1	11
525.465	1	-4
525.635	1	0
525.805	1	10
525.975	1	-2
526.146	1	6
526.316	1	-2
526.486	1	-3
526.656	1	6
526.826	1	0
526.996	1	6
527.166	1	9
527.337	1	4
527.507	1	-2
527.677	1	5
527.847	1	4
528.017	1	-9
528.187	1	2
528.357	1	1
528.527	1	3
528.698	1	-1
528.868	1	-3
529.038	1	-10
529.208	1	10
529.378	1	-8
529.548	1	-3
529.718	1	-4
529.888	1	13
530.058	1	3
530.229	1	13
530.399	1	2
530.569	1	-4
530.739	1	3
530.909	1	1
531.079	1	-3
531.249	1	7
531.419	1	7
531.589	1	4
531.760	1	-1
531.930	1	8
532.100	1	-1
532.270	1	-4
532.440	1	-5
532.610	1	10
532.780	1	-4
532.950	1	-11
533.120	1	11
533.290	1	8
533.461	1	-4
533.631	1	-5
533.801	1	-9
533.971	1	5
534.141	1	-13
534.311	1	6
534.481	1	-2
534.651	1	2
534.821	1	-3
534.991	1	-10
535.162	1	4
535.332	1	-6
535.502	1	4
535.672	1	4
535.842	1	-3
536.012	1	1
536.182	1	4
536.352	1	-2
536.522	1	1
536.692	1	11
536.862	1	3
537.032	1	9
537.203	1	13
537.373	1	12
537.543	1	-4
537.713	1	3
537.883	1	-2
538.053	1	-2
538.223	1	6
538.393	1	1
538.563	1	0
538.733	1	4
538.903	1	-1
539.073	1	-6
539.243	1	-8
539.413	1	5
539.584	1	15
539.754	1	-6
539.924	1	0
540.094	1	-12
540.264	1	-9
540.434	1	5
540.604	1	7
540.774	1	14
540.944	1	9
541.114	1	4
541.284	1	-3
541.454	1	0
541.624	1	-4
541.794	1	11
541.964	1	1
542.134	1	6
542.305	1	3
542.475	1	13
542.645	1	-3
542.815	1	6
542.985	1	13
543.155	1	-5
543.325	1	-5
543.495	1	6
543.665	1	10
543.835	1	-4
544.005	1	-4
544.175	1	-7
544.345	1	1
544.515	1	-1
544.685	1	-12
544.855	1	1
545.025	1	15
545.195	1	1
545.365	1	0
545.535	1	-4
545.705	1	10
545.875	1	-1
546.045	1	-4
546.216	1	11
546.386	1	1
546.556	1	8
546.726	1	-1
546.896	1	4
547.066	1	1
547.236	1	7
547.406	1	-3
547.576	1	7
547.746	1	9
547.916	1	12
548.086	1	2
548.256	1	3
548.426	1	-2
548.596	1	1
548.766	1	2
548.936	1	-2
549.106	1	14
549.276	1	6
549.446	1	7
549.616	1	6
549.786	1	15
549.956	1	-1
550.126	1	13
550.296	1	5
550.466	1	0
550.636	1	-11
550.806	1	-3
550.976	1	3
551.146	1	10
551.316	1	15
551.486	1	0
551.656	1	7
551.826	1	6
551.996	1	0
552.166	1	1
552.336	1	8
552.506	1	3
552.676	1	-2
552.846	1	4
553.016	1	18
553.186	1	-3
553.356	1	-4
553.526	1	6
553.696	1	11
553.866	1	1
554.036	1	2
554.206	1	-1
554.376	1	9
554.546	1	7
554.716	1	-2
554.886	1	12
555.056	1	-2
555.226	1	7
555.396	1	1
555.566	1	5
555.736	1	-16
555.906	1	0
556.076	1	11
556.246	1	7
556.416	1	3
556.586	1	2
556.756	1	3
556.926	1	4
557.096	1	-1
557.266	1	2
557.436	1	2
557.606	1	-1
557.776	1	-3
557.946	1	-1
558.116	1	2
558.286	1	4
558.456	1	-3
558.626	1	9
558.796	1	5
558.966	1	0
559.136	1	5
559.306	1	1
559.476	1	5
559.646	1	-5
559.816	1	-7
559.986	1	8
560.155	1	0
560.325	1	2
560.495	1	1
560.665	1	5
560.835	1	-1
561.005	1	-3
561.175	1	0
561.345	1	-5
561.515	1	-3
561.685	1	-8
561.855	1	-7
562.025	1	-1
562.195	1	7
562.365	1	-2
562.535	1	6
562.705	1	0
562.875	1	1
563.045	1	-6
563.215	1	6
563.385	1	5
563.555	1	11
563.725	1	-4
563.895	1	3
564.064	1	18
564.234	1	7
564.404	1	-7
564.574	1	11
564.744	1	-9
564.914	1	2
565.084	1	7
565.254	1	0
565.424	1	0
565.594	1	8
565.764	1	5
565.934	1	3
566.104	1	-2
566.274	1	-1
566.444	1	0
566.614	1	-7
566.783	1	-4
566.953	1	6
567.123	1	-4
567.293	1	10
567.463	1	11
567.633	1	-1
567.803	1	-6
567.973	1	-1
568.143	1	-1
568.313	1	-5
568.483	1	-2
568.653	1	2
568.823	1	-3
568.993	1	13
569.162	1	4
569.332	1	-3
569.502	1	6
569.672	1	1
569.842	1	-2
570.012	1	-4
570.182	1	0
570.352	1	0
570.522	1	-2
570.692	1	3
570.862	1	5
571.031	1	0
571.201	1	-3
571.371	1	-3
571.541	1	4
571.711	1	-8
571.881	1	7
572.051	1	1
572.221	1	9
572.391	1	-11
572.561	1	4
572.731	1	0
572.900	1	-3
573.070	1	7
573.240	1	1
573.410	1	-2
573.580	1	8
573.750	1	0
573.920	1	-7
574.090	1	0
574.260	1	7
574.430	1	-7
574.599	1	-3
574.769	1	3
574.939	1	10
575.109	1	2
575.279	1	0
575.449	1	10
575.619	1	-4
575.789	1	-4
575.959	1	-2
576.128	1	-7
576.298	1	-3
576.468	1	-7
576.638	1	-3
576.808	1	5
576.978	1	-2
577.148	1	-3
577.318	1	-2
577.487	1	-2
577.657	1	7
577.827	1	0
577.997	1	4
578.167	1	7
578.337	1	-1
578.507	1	5
578.677	1	0
578.846	1	4
579.016	1	-7
579.186	1	4
579.356	1	4
579.526	1	9
579.696	1	-13
579.866	1	4
580.036	1	3
580.205	1	-4
580.375	1	1
580.545	1	6
580.715	1	5
580.885	1	6
581.055	1	4
581.225	1	1
581.394	1	-7
581.564	1	-10
581.734	1	2
581.904	1	5
582.074	1	7
582.244	1	10
582.414	1	13
582.583	1	11
582.753	1	-8
582.923	1	-4
583.093	1	-1
583.263	1	-6
583.433	1	-5
583.603	1	10
583.772	1	7
583.942	1	7
584.112	1	3
584.282	1	6
584.452	1	-2
584.622	1	4
584.791	1	3
584.961	1	3
585.131	1	-6
585.301	1	-5
585.471	1	0
585.641	1	6
585.811	1	-2
585.980	1	10
586.150	1	11
586.320	1	8
586.490	1	1
586.660	1	-1
586.830	1	0
586.999	1	1
587.169	1	-2
587.339	1	4
587.509	1	-1
587.679	1	2
587.849	1	6
588.018	1	-3
588.188	1	-1
588.358	1	-3
588.528	1	-8
588.698	1	-11
588.867	1	-10
589.037	1	7
589.207	1	2
589.377	1	8
589.547	1	3
589.717	1	0
589.886	1	1
590.056	1	-2
590.226	1	4
590.396	1	-1
590.566	1	-4
590.735	1	-5
590.905	1	5
591.075	1	5
591.245	1	16
591.415	1	7
591.585	1	0
591.754	1	-8
591.924	1	-9
592.094	1	-2
592.264	1	12
592.434	1	9
592.603	1	2
592.773	1	14
592.943	1	-4
593.113	1	-11
593.283	1	8
593.452	1	-6
593.622	1	-10
593.792	1	1
593.962	1	13
594.132	1	8
594.301	1	3
594.471	1	5
594.641	1	1
594.811	1	-5
594.981	1	-11
595.150	1	-1
595.320	1	8
595.490	1	-2
595.660	1	1
595.829	1	8
595.999	1	-6
596.169	1	11
596.339	1	5
596.509	1	-5
596.678	1	2
596.848	1	0
597.018	1	-1
597.188	1	-8
597.358	1	3
597.527	1	13
597.697	1	1
597.867	1	6
598.037	1	9
598.206	1	-9
598.376	1	6
598.546	1	0
598.716	1	-3
598.885	1	10
599.055	1	-5
599.225	1	7
599.395	1	7
599.565	1	-2
599.734	1	-3
599.904	1	13
600.074	1	6
600.244	1	-1
600.413	1	-5
600.583	1	6
600.753	1	1
600.923	1	-6
601.092	1	5
601.262	1	2
601.432	1	9
601.602	1	4
601.771	1	1
601.941	1	-1
602.111	1	7
602.281	1	8
602.451	1	-2
602.620	1	0
602.790	1	-19
602.960	1	-5
603.130	1	1
603.299	1	2
603.469	1	-4
603.639	1	-4
603.809	1	4
603.978	1	-3
604.148	1	1
604.318	1	-8
604.487	1	-3
604.657	1	7
604.827	1	5
604.997	1	-4
605.166	1	-5
605.336	1	4
605.506	1	-6
605.676	1	-4
605.845	1	-7
606.015	1	-10
606.185	1	10
606.355	1	2
606.524	1	9
606.694	1	6
606.864	1	1
607.034	1	6
607.203	1	4
607.373	1	0
607.543	1	-4
607.712	1	4
607.882	1	-11
608.052	1	1
608.222	1	7
608.391	1	13
608.561	1	11
608.731	1	7
608.901	1	7
609.070	1	3
609.240	1	-5
609.410	1	1
609.579	1	-11
609.749	1	-4
609.919	1	2
610.089	1	7
610.258	1	2
610.428	1	6
610.598	1	1
610.767	1	2
610.937	1	-3
611.107	1	-8
611.277	1	-4
611.446	1	-2
611.616	1	8
611.786	1	13
611.955	1	10
612.125	1	6
612.295	1	1
612.465	1	-5
612.634	1	3
612.804	1	5
612.974	1	-6
613.143	1	-3
613.313	1	-7
613.483	1	6
613.652	1	12
613.822	1	-2
613.992	1	2
614.162	1	-4
614.331	1	9
614.501	1	-4
614.671	1	3
614.840	1	1
615.010	1	-1
615.180	1	1
615.349	1	-1
615.519	1	5
615.689	1	16
615.858	1	3
616.028	1	-8
616.198	1	11
616.368	1	-1
616.537	1	-6
616.707	1	11
616.877	1	7
617.046	1	-1
617.216	1	9
617.386	1	10
617.555	1	6
617.725	1	-1
617.895	1	6
618.064	1	-2
618.234	1	-6
618.404	1	-5
618.573	1	7
618.743	1	2
618.913	1	10
619.082	1	-2
619.252	1	5
619.422	1	-3
619.591	1	-2
619.761	1	-3
619.931	1	0
620.100	1	-1
620.270	1	-9
620.440	1	6
620.609	1	-2
620.779	1	9
620.949	1	-2
621.118	1	6
621.288	1	-7
621.458	1	5
621.627	1	5
621.797	1	10
621.967	1	0
622.136	1	-6
622.306	1	-6
622.476	1	0
622.645	1	7
622.815	1	6
622.985	1	-1
623.154	1	-3
623.324	1	0
623.494	1	7
623.663	1	15
623.833	1	4
624.002	1	-10
624.172	1	-1
624.342	1	-4
624.511	1	3
624.681	1	5
624.851	1	8
625.020	1	-6
625.190	1	10
625.360	1	-6
625.529	1	1
625.699	1	-1
625.869	1	2
626.038	1	5
626.208	1	5
626.377	1	10
626.547	1	-1
626.717	1	5
626.886	1	-7
627.056	1	2
627.226	1	-7
627.395	1	-5
627.565	1	8
627.735	1	11
627.904	1	-1
628.074	1	-1
628.243	1	5
628.413	1	-8
628.583	1	-3
628.752	1	6
628.922	1	3
629.091	1	-4
629.261	1	4
629.431	1	10
629.600	1	9
629.770	1	6
629.940	1	-12
630.109	1	2
630.279	1	-4
630.448	1	2
630.618	1	6
630.788	1	7
630.957	1	-1
631.127	1	13
631.297	1	2
631.466	1	0
631.636	1	-13
631.805	1	5
631.975	1	11
632.145	1	6
632.314	1	-6
632.484	1	1
632.653	1	4
632.823	1	4
632.993	1	6
633.162	1	8
633.332	1	2
633.501	1	-2
633.671	1	-3
633.841	1	17
634.010	1	9
634.180	1	-3
634.349	1	11
634.519	1	-14
634.689	1	3
634.858	1	-16
635.028	1	10
635.197	1	5
635.367	1	6
635.537	1	-4
635.706	1	10
635.876	1	0
636.045	1	1
636.215	1	-4
636.384	1	2
636.554	1	-5
636.724	1	9
636.893	1	-8
637.063	1	4
637.232	1	0
637.402	1	4
637.572	1	6
637.741	1	2
637.911	1	-5
638.080	1	2
638.250	1	2
638.419	1	5
638.589	1	7
638.759	1	-3
638.928	1	-2
639.098	1	-2
639.267	1	-4
639.437	1	2
639.606	1	1
639.776	1	0
639.946	1	-4
640.115	1	5
640.285	1	-3
640.454	1	-3
640.624	1	10
640.793	1	13
640.963	1	-2
641.132	1	-11
641.302	1	8
641.472	1	6
641.641	1	3
641.811	1	4
641.980	1	2
642.150	1	4
642.319	1	2
642.489	1	5
642.659	1	10
642.828	1	-3
642.998	1	-7
643.167	1	3
643.337	1	-8
643.506	1	5
643.676	1	1
643.845	1	-5
644.015	1	7
644.184	1	8
644.354	1	0
644.524	1	-4
644.693	1	-2
644.863	1	-3
645.032	1	-2
645.202	1	5
645.371	1	12
645.541	1	7
645.710	1	18
645.880	1	0
646.049	1	2
646.219	1	7
646.388	1	3
646.558	1	1
646.728	1	8
646.897	1	-10
647.067	1	0
647.236	1	0
647.406	1	5
647.575	1	-1
647.745	1	-11
647.914	1	2
648.084	1	-11
648.253	1	13
648.423	1	-1
648.592	1	-1
648.762	1	2
648.931	1	7
649.101	1	9
649.270	1	-6
649.440	1	0
649.610	1	-3
649.779	1	1
649.949	1	-5
650.118	1	10
650.288	1	-3
650.457	1	2
650.627	1	0
650.796	1	6
650.966	1	-1
651.135	1	7
651.305	1	6
651.474	1	1
651.644	1	-7
651.813	1	-14
651.983	1	2
652.152	1	2
652.322	1	5
652.491	1	11
652.661	1	9
652.830	1	-1
653.000	1	1
653.169	1	2
653.339	1	-7
653.508	1	3
653.678	1	-1
653.847	1	9
654.017	1	-1
654.186	1	-3
654.356	1	-13
654.525	1	15
654.695	1	-4
654.864	1	0
655.034	1	7
655.203	1	2
655.373	1	6
655.542	1	5
655.712	1	-2
655.881	1	3
656.051	1	-1
656.220	1	8
656.390	1	10
656.559	1	13
656.729	1	0
656.898	1	-4
657.068	1	2
657.237	1	2
657.406	1	-2
657.576	1	1
657.745	1	-8
657.915	1	5
658.084	1	-1
658.254	1	9
658.423	1	-1
658.593	1	2
658.762	1	1
658.932	1	5
659.101	1	-1
659.271	1	0
659.440	1	4
659.610	1	11
659.779	1	6
659.949	1	4
660.118	1	4
660.288	1	-4
660.457	1	-3
660.626	1	3
660.796	1	5
660.965	1	14
661.135	1	0
661.304	1	-1
661.474	1	6
661.643	1	-6
661.813	1	-4
661.982	1	-3
662.152	1	-3
662.321	1	-7
662.491	1	4
662.660	1	2
662.829	1	8
662.999	1	-1
663.168	1	4
663.338	1	7
663.507	1	-17
663.677	1	0
663.846	1	0
664.016	1	-9
664.185	1	-3
664.354	1	2
664.524	1	-1
664.693	1	3
664.863	1	0
665.032	1	5
665.202	1	13
665.371	1	-1
665.541	1	10
665.710	1	3
665.879	1	-1
666.049	1	6
666.218	1	1
666.388	1	13
666.557	1	3
666.727	1	1
666.896	1	-6
667.065	1	-1
667.235	1	3
667.404	1	1
667.574	1	12
667.743	1	-4
667.913	1	-7
668.082	1	-5
668.251	1	4
668.421	1	-3
668.590	1	3
668.760	1	-2
668.929	1	5
669.099	1	8
669.268	1	4
669.437	1	-1
669.607	1	-3
669.776	1	-9
669.946	1	-8
670.115	1	2
670.285	1	-2
670.454	1	2
670.623	1	4
670.793	1	-7
670.962	1	14
671.132	1	-5
671.301	1	-8
671.470	1	-4
671.640	1	-8
671.809	1	7
671.979	1	9
672.148	1	1
672.317	1	4
672.487	1	12
672.656	1	3
672.826	1	16
672.995	1	-3
673.164	1	7
673.334	1	0
673.503	1	-10
673.673	1	4
673.842	1	0
674.011	1	-2
674.181	1	1
674.350	1	3
674.520	1	0
674.689	1	11
674.858	1	2
675.028	1	5
675.197	1	3
675.367	1	2
675.536	1	-4
675.705	1	-3
675.875	1	2
676.044	1	1
676.214	1	-3
676.383	1	10
676.552	1	-1
676.722	1	3
676.891	1	-9
677.060	1	-9
677.230	1	-7
677.399	1	-3
677.569	1	8
677.738	1	-9
677.907	1	7
678.077	1	-7
678.246	1	6
678.416	1	-3
678.585	1	-6
678.754	1	0
678.924	1	-7
679.093	1	3
679.262	1	2
679.432	1	4
679.601	1	-3
679.771	1	-8
679.940	1	-3
680.109	1	-1
680.279	1	-7
680.448	1	-11
680.617	1	1
680.787	1	9
680.956	1	16
681.125	1	-11
681.295	1	1
681.464	1	5
681.634	1	8
681.803	1	2
681.972	1	2
682.142	1	2
682.311	1	-10
682.480	1	-3
682.650	1	0
682.819	1	5
682.988	1	1
683.158	1	0
683.327	1	-3
683.496	1	-4
683.666	1	-5
683.835	1	-7
684.004	1	0
684.174	1	-9
684.343	1	9
684.512	1	12
684.682	1	13
684.851	1	4
685.021	1	5
685.190	1	5
685.359	1	11
685.529	1	3
685.698	1	9
685.867	1	1
686.037	1	3
686.206	1	7
686.375	1	5
686.545	1	8
686.714	1	7
686.883	1	-6
687.053	1	9
687.222	1	-2
687.391	1	6
687.561	1	-6
687.730	1	-9
687.899	1	-5
688.069	1	7
688.238	1	1
688.407	1	-3
688.577	1	5
688.746	1	-3
