340.368	1	0
340.539	1	-3
340.710	1	8
340.881	1	-5
341.052	1	-3
341.223	1	6
341.394	1	-5
341.565	1	-12
341.737	1	0
341.908	1	1
342.079	1	4
342.250	1	-1
342.421	1	-9
342.592	1	2
342.763	1	-6
342.934	1	-3
343.105	1	-11
343.276	1	2
343.447	1	-10
343.618	1	-12
343.789	1	-1
343.960	1	2
344.131	1	5
344.302	1	1
344.473	1	3
344.644	1	10
344.815	1	2
344.986	1	6
345.157	1	4
345.328	1	11
345.499	1	5
345.670	1	-3
345.841	1	0
346.012	1	3
346.183	1	-1
346.354	1	3
346.526	1	-13
346.697	1	-6
346.868	1	13
347.039	1	4
347.210	1	-6
347.381	1	8
347.552	1	8
347.723	1	2
347.894	1	-14
348.065	1	4
348.236	1	-2
348.407	1	-2
348.578	1	-4
348.749	1	-3
348.920	1	3
349.091	1	-1
349.262	1	11
349.433	1	8
349.604	1	5
349.775	1	-9
349.946	1	2
350.117	1	11
350.288	1	-6
350.459	1	7
350.630	1	-4
350.801	1	3
350.972	1	10
351.143	1	10
351.314	1	-10
351.485	1	0
351.656	1	-1
351.827	1	-3
351.998	1	3
352.169	1	-1
352.340	1	5
352.511	1	1
352.682	1	8
352.853	1	-10
353.024	1	2
353.195	1	3
353.366	1	1
353.537	1	4
353.708	1	-5
353.879	1	-5
354.050	1	3
354.221	1	-2
354.392	1	-5
354.563	1	-7
354.734	1	2
354.905	1	4
355.076	1	-4
355.247	1	3
355.418	1	8
355.589	1	-3
355.760	1	-5
355.931	1	8
356.102	1	-1
356.273	1	1
356.444	1	6
356.615	1	-1
356.785	1	0
356.956	1	-1
357.127	1	3
357.298	1	11
357.469	1	-4
357.640	1	5
357.811	1	-4
357.982	1	8
358.153	1	-3
358.324	1	6
358.495	1	-1
358.666	1	-2
358.837	1	2
359.008	1	9
359.179	1	4
359.350	1	4
359.521	1	-3
359.692	1	4
359.863	1	-3
360.034	1	0
360.205	1	6
360.376	1	-4
360.547	1	1
360.718	1	-7
360.889	1	7
361.060	1	-4
361.231	1	-4
361.401	1	-7
361.572	1	9
361.743	1	-13
361.914	1	9
362.085	1	4
362.256	1	-3
362.427	1	-2
362.598	1	1
362.769	1	11
362.940	1	-5
363.111	1	0
363.282	1	0
363.453	1	7
363.624	1	11
363.795	1	-3
363.966	1	2
364.137	1	-1
364.308	1	1
364.478	1	-2
364.649	1	6
364.820	1	-3
364.991	1	8
365.162	1	1
365.333	1	5
365.504	1	1
365.675	1	10
365.846	1	-4
366.017	1	12
366.188	1	9
366.359	1	6
366.530	1	0
366.701	1	3
366.871	1	2
367.042	1	0
367.213	1	0
367.384	1	6
367.555	1	-6
367.726	1	6
367.897	1	9
368.068	1	-5
368.239	1	-1
368.410	1	2
368.581	1	7
368.752	1	8
368.923	1	2
369.093	1	7
369.264	1	3
369.435	1	7
369.606	1	-6
369.777	1	3
369.948	1	5
370.119	1	1
370.290	1	5
370.461	1	-10
370.632	1	-7
370.803	1	3
370.973	1	-4
371.144	1	-3
371.315	1	-2
371.486	1	-2
371.657	1	3
371.828	1	0
371.999	1	6
372.170	1	-6
372.341	1	4
372.512	1	-1
372.682	1	-2
372.853	1	-2
373.024	1	5
373.195	1	2
373.366	1	1
373.537	1	16
373.708	1	2
373.879	1	3
374.050	1	13
374.220	1	0
374.391	1	2
374.562	1	-3
374.733	1	1
374.904	1	1
375.075	1	5
375.246	1	6
375.417	1	5
375.588	1	2
375.758	1	7
375.929	1	6
376.100	1	-2
376.271	1	-7
376.442	1	7
376.613	1	0
376.784	1	2
376.955	1	-5
377.125	1	9
377.296	1	5
377.467	1	-1
377.638	1	4
377.809	1	12
377.980	1	-8
378.151	1	-3
378.321	1	8
378.492	1	3
378.663	1	-4
378.834	1	6
379.005	1	-2
379.176	1	11
379.347	1	-5
379.518	1	-4
379.688	1	4
379.859	1	-7
380.030	1	2
380.201	1	8
380.372	1	7
380.543	1	3
380.714	1	1
380.884	1	4
381.055	1	-5
381.226	1	8
381.397	1	-12
381.568	1	1
381.739	1	5
381.910	1	-3
382.080	1	12
382.251	1	4
382.422	1	14
382.593	1	-2
382.764	1	-6
382.935	1	9
383.105	1	12
383.276	1	0
383.447	1	1
383.618	1	-5
383.789	1	12
383.960	1	1
384.130	1	1
384.301	1	-14
384.472	1	-5
384.643	1	3
384.814	1	13
384.985	1	12
385.156	1	-4
385.326	1	-1
385.497	1	-6
385.668	1	6
385.839	1	0
386.010	1	8
386.180	1	-5
386.351	1	10
386.522	1	-10
386.693	1	0
386.864	1	-7
387.035	1	6
387.205	1	-3
387.376	1	2
387.547	1	-14
387.718	1	10
387.889	1	5
388.060	1	6
388.230	1	-1
388.401	1	0
388.572	1	4
388.743	1	-4
388.914	1	4
389.084	1	-4
389.255	1	-1
389.426	1	3
389.597	1	16
389.768	1	6
389.939	1	4
390.109	1	-1
390.280	1	2
390.451	1	-2
390.622	1	4
390.793	1	6
390.963	1	0
391.134	1	-4
391.305	1	-2
391.476	1	-1
391.647	1	6
391.817	1	1
391.988	1	1
392.159	1	4
392.330	1	-3
392.501	1	-3
392.671	1	2
392.842	1	-8
393.013	1	5
393.184	1	2
393.355	1	4
393.525	1	2
393.696	1	2
393.867	1	2
394.038	1	-4
394.208	1	3
394.379	1	-7
394.550	1	-1
394.721	1	1
394.892	1	14
395.062	1	8
395.233	1	-7
395.404	1	-4
395.575	1	7
395.746	1	-8
395.916	1	-1
396.087	1	-4
396.258	1	-5
396.429	1	5
396.599	1	1
396.770	1	-8
396.941	1	5
397.112	1	-6
397.283	1	3
397.453	1	5
397.624	1	8
397.795	1	7
397.966	1	11
398.136	1	-4
398.307	1	2
398.478	1	-2
398.649	1	-5
398.819	1	-4
398.990	1	2
399.161	1	10
399.332	1	-1
399.503	1	-6
399.673	1	-7
399.844	1	4
400.015	1	-3
400.186	1	5
400.356	1	-2
400.527	1	5
400.698	1	8
400.869	1	3
401.039	1	3
401.210	1	8
401.381	1	-2
401.552	1	5
401.722	1	4
401.893	1	-4
402.064	1	-4
402.235	1	5
402.405	1	1
402.576	1	4
402.747	1	5
402.918	1	9
403.088	1	0
403.259	1	0
403.430	1	0
403.601	1	5
403.771	1	8
403.942	1	-6
404.113	1	-4
404.284	1	4
404.454	1	3
404.625	1	13
404.796	1	6
404.967	1	-3
405.137	1	-9
405.308	1	2
405.479	1	3
405.649	1	6
405.820	1	-6
405.991	1	1
406.162	1	1
406.332	1	7
406.503	1	-2
406.674	1	14
406.845	1	-6
407.015	1	1
407.186	1	-1
407.357	1	-3
407.527	1	5
407.698	1	-1
407.869	1	12
408.040	1	1
408.210	1	-4
408.381	1	-3
408.552	1	11
408.722	1	-4
408.893	1	-1
409.064	1	1
409.235	1	1
409.405	1	-5
409.576	1	5
409.747	1	-2
409.917	1	1
410.088	1	-4
410.259	1	-1
410.430	1	3
410.600	1	2
410.771	1	0
410.942	1	-7
411.112	1	3
411.283	1	2
411.454	1	-8
411.625	1	3
411.795	1	0
411.966	1	0
412.137	1	12
412.307	1	-12
412.478	1	5
412.649	1	6
412.819	1	-1
412.990	1	-10
413.161	1	-4
413.332	1	3
413.502	1	-3
413.673	1	7
413.844	1	-5
414.014	1	7
414.185	1	-2
414.356	1	9
414.526	1	3
414.697	1	-1
414.868	1	5
415.038	1	-1
415.209	1	0
415.380	1	-5
415.550	1	-4
415.721	1	-5
415.892	1	4
416.063	1	5
416.233	1	12
416.404	1	2
416.575	1	9
416.745	1	-7
416.916	1	0
417.087	1	1
417.257	1	-8
417.428	1	-5
417.599	1	8
417.769	1	5
417.940	1	-2
418.111	1	7
418.281	1	2
418.452	1	2
418.623	1	-3
418.793	1	9
418.964	1	3
419.135	1	3
419.305	1	-1
419.476	1	1
419.647	1	0
419.817	1	-12
419.988	1	-2
420.159	1	-1
420.329	1	8
420.500	1	-10
420.671	1	3
420.841	1	1
421.012	1	5
421.183	1	7
421.353	1	-8
421.524	1	2
421.695	1	2
421.865	1	3
422.036	1	14
422.206	1	3
422.377	1	5
422.548	1	3
422.718	1	-1
422.889	1	-5
423.060	1	-1
423.230	1	1
423.401	1	4
423.572	1	4
423.742	1	8
423.913	1	1
424.084	1	1
424.254	1	-6
424.425	1	-1
424.595	1	2
424.766	1	6
424.937	1	3
425.107	1	-6
425.278	1	12
425.449	1	-1
425.619	1	3
425.790	1	-2
425.961	1	7
426.131	1	-6
426.302	1	2
426.472	1	-4
426.643	1	6
426.814	1	5
426.984	1	-4
427.155	1	8
427.326	1	0
427.496	1	1
427.667	1	-4
427.837	1	1
428.008	1	-4
428.179	1	-7
428.349	1	2
428.520	1	6
428.691	1	9
428.861	1	13
429.032	1	-4
429.202	1	2
429.373	1	-1
429.544	1	-3
429.714	1	2
429.885	1	3
430.055	1	9
430.226	1	-6
430.397	1	-1
430.567	1	6
430.738	1	8
430.909	1	1
431.079	1	-7
431.250	1	0
431.420	1	5
431.591	1	6
431.762	1	4
431.932	1	3
432.103	1	16
432.273	1	1
432.444	1	0
432.615	1	0
432.785	1	3
432.956	1	6
433.126	1	4
433.297	1	-4
433.468	1	0
433.638	1	-1
433.809	1	-2
433.979	1	6
434.150	1	12
434.320	1	-5
434.491	1	-8
434.662	1	0
434.832	1	3
435.003	1	5
435.173	1	-1
435.344	1	2
435.515	1	3
435.685	1	-6
435.856	1	3
436.026	1	-1
436.197	1	13
436.368	1	-1
436.538	1	0
436.709	1	-3
436.879	1	-6
437.050	1	5
437.220	1	10
437.391	1	7
437.562	1	2
437.732	1	-9
437.903	1	8
438.073	1	-14
438.244	1	8
438.414	1	7
438.585	1	2
438.756	1	5
438.926	1	12
439.097	1	-1
439.267	1	-1
439.438	1	4
439.608	1	-1
439.779	1	4
439.949	1	-4
440.120	1	-5
440.291	1	9
440.461	1	-5
440.632	1	2
440.802	1	1
440.973	1	6
441.143	1	-5
441.314	1	4
441.485	1	1
441.655	1	4
441.826	1	1
441.996	1	4
442.167	1	-4
442.337	1	1
442.508	1	-1
442.678	1	7
442.849	1	9
443.019	1	-2
443.190	1	-1
443.361	1	4
443.531	1	10
443.702	1	8
443.872	1	10
444.043	1	-3
444.213	1	9
444.384	1	-1
444.554	1	-6
444.725	1	4
444.895	1	0
445.066	1	-4
445.237	1	3
445.407	1	7
445.578	1	5
445.748	1	-3
445.919	1	6
446.089	1	3
446.260	1	-4
446.430	1	7
446.601	1	9
446.771	1	-3
446.942	1	0
447.112	1	-8
447.283	1	12
447.453	1	-3
447.624	1	-13
447.794	1	8
447.965	1	3
448.135	1	4
448.306	1	4
448.477	1	6
448.647	1	5
448.818	1	-3
448.988	1	1
449.159	1	0
449.329	1	3
449.500	1	4
449.670	1	5
449.841	1	11
450.011	1	-1
450.182	1	10
450.352	1	11
450.523	1	-4
450.693	1	2
450.864	1	0
451.034	1	-1
451.205	1	4
451.375	1	-17
451.546	1	5
451.716	1	-2
451.887	1	3
452.057	1	7
452.228	1	10
452.398	1	0
452.569	1	3
452.739	1	8
452.910	1	5
453.080	1	1
453.251	1	3
453.421	1	6
453.592	1	3
453.762	1	12
453.933	1	-1
454.103	1	4
454.274	1	0
454.444	1	-2
454.615	1	-3
454.785	1	-7
454.956	1	-3
455.126	1	10
455.297	1	10
455.467	1	4
455.638	1	-1
455.808	1	7
455.979	1	1
456.149	1	-3
456.320	1	-1
456.490	1	6
456.661	1	8
456.831	1	-7
457.001	1	13
457.172	1	5
457.342	1	1
457.513	1	-5
457.683	1	2
457.854	1	2
458.024	1	0
458.195	1	1
458.365	1	-2
458.536	1	-7
458.706	1	0
458.877	1	-1
459.047	1	-10
459.218	1	3
459.388	1	1
459.559	1	3
459.729	1	8
459.899	1	5
460.070	1	6
460.240	1	12
460.411	1	7
460.581	1	-2
460.752	1	0
460.922	1	11
461.093	1	4
461.263	1	5
461.434	1	-1
461.604	1	-4
461.775	1	7
461.945	1	2
462.115	1	-4
462.286	1	12
462.456	1	9
462.627	1	-1
462.797	1	6
462.968	1	0
463.138	1	8
463.309	1	-2
463.479	1	7
463.649	1	-5
463.820	1	-4
463.990	1	7
464.161	1	-6
464.331	1	0
464.502	1	-2
464.672	1	6
464.843	1	8
465.013	1	13
465.183	1	-6
465.354	1	10
465.524	1	11
465.695	1	4
465.865	1	-4
466.036	1	1
466.206	1	2
466.376	1	-1
466.547	1	-11
466.717	1	-9
466.888	1	-2
467.058	1	4
467.229	1	-1
467.399	1	9
467.569	1	11
467.740	1	-12
467.910	1	-10
468.081	1	-3
468.251	1	0
468.422	1	0
468.592	1	7
468.762	1	0
468.933	1	6
469.103	1	-4
469.274	1	8
469.444	1	11
469.614	1	2
469.785	1	-7
469.955	1	-7
470.126	1	6
470.296	1	-5
470.467	1	4
470.637	1	10
470.807	1	-5
470.978	1	-2
471.148	1	11
471.319	1	1
471.489	1	11
471.659	1	-3
471.830	1	2
472.000	1	2
472.171	1	0
472.341	1	-9
472.511	1	-1
472.682	1	8
472.852	1	10
473.023	1	-3
473.193	1	-10
473.363	1	7
473.534	1	-8
473.704	1	4
473.875	1	12
474.045	1	1
474.215	1	16
474.386	1	2
474.556	1	-7
474.727	1	6
474.897	1	1
475.067	1	7
475.238	1	0
475.408	1	7
475.578	1	5
475.749	1	-2
475.919	1	1
476.090	1	2
476.260	1	1
476.430	1	1
476.601	1	-6
476.771	1	7
476.942	1	-7
477.112	1	12
477.282	1	10
477.453	1	6
477.623	1	7
477.793	1	2
477.964	1	-6
478.134	1	0
478.305	1	-1
478.475	1	-11
478.645	1	14
478.816	1	4
478.986	1	-6
479.156	1	5
479.327	1	-10
479.497	1	3
479.667	1	2
479.838	1	3
480.008	1	-1
480.179	1	11
480.349	1	-3
480.519	1	4
480.690	1	-2
480.860	1	12
481.030	1	-10
481.201	1	-3
481.371	1	2
481.541	1	1
481.712	1	0
481.882	1	-10
482.053	1	4
482.223	1	-2
482.393	1	-4
482.564	1	-5
482.734	1	2
482.904	1	-1
483.075	1	2
483.245	1	9
483.415	1	2
483.586	1	-2
483.756	1	2
483.926	1	-1
484.097	1	9
484.267	1	-1
484.437	1	-4
484.608	1	-1
484.778	1	4
484.948	1	0
485.119	1	-1
485.289	1	-8
485.459	1	5
485.630	1	11
485.800	1	2
485.970	1	-11
486.141	1	0
486.311	1	3
486.481	1	3
486.652	1	6
486.822	1	14
486.992	1	-2
487.163	1	-2
487.333	1	0
487.503	1	4
487.674	1	9
487.844	1	-7
488.014	1	-7
488.185	1	22
488.355	1	-2
488.525	1	-9
488.696	1	6
488.866	1	-2
489.036	1	5
489.207	1	-2
489.377	1	1
489.547	1	10
489.718	1	0
489.888	1	7
490.058	1	1
490.228	1	5
490.399	1	-15
490.569	1	7
490.739	1	-2
490.910	1	1
491.080	1	-3
491.250	1	-4
491.421	1	-1
491.591	1	4
491.761	1	12
491.932	1	-3
492.102	1	5
492.272	1	12
492.442	1	-4
492.613	1	-3
492.783	1	8
492.953	1	7
493.124	1	6
493.294	1	3
493.464	1	12
493.635	1	-1
493.805	1	-2
493.975	1	-2
494.145	1	-1
494.316	1	2
494.486	1	-7
494.656	1	1
494.827	1	2
494.997	1	-2
495.167	1	8
495.337	1	11
495.508	1	2
495.678	1	6
495.848	1	-2
496.019	1	0
496.189	1	6
496.359	1	-3
496.529	1	-6
496.700	1	-2
496.870	1	-2
497.040	1	-1
497.211	1	-4
497.381	1	-2
497.551	1	-8
497.721	1	11
497.892	1	4
498.062	1	18
498.232	1	1
498.403	1	2
498.573	1	6
498.743	1	5
498.913	1	4
499.084	1	-2
499.254	1	7
499.424	1	9
499.594	1	10
499.765	1	4
499.935	1	7
500.105	1	2
500.275	1	1
500.446	1	1
500.616	1	7
500.786	1	3
500.956	1	5
501.127	1	3
501.297	1	4
501.467	1	2
501.638	1	-5
501.808	1	-12
501.978	1	-8
502.148	1	-2
502.319	1	3
502.489	1	-4
502.659	1	-6
502.829	1	-6
503.000	1	9
503.170	1	1
503.340	1	6
503.510	1	2
503.681	1	-3
503.851	1	-3
504.021	1	2
504.191	1	-3
504.362	1	-8
504.532	1	-3
504.702	1	10
504.872	1	-1
505.042	1	-6
505.213	1	3
505.383	1	2
505.553	1	3
505.723	1	0
505.894	1	4
506.064	1	0
506.234	1	11
506.404	1	-3
506.575	1	-6
506.745	1	-7
506.915	1	12
507.085	1	4
507.256	1	-2
507.426	1	-2
507.596	1	3
507.766	1	0
507.936	1	-2
508.107	1	5
508.277	1	-10
508.447	1	3
508.617	1	8
508.788	1	-6
508.958	1	4
509.128	1	1
509.298	1	0
509.468	1	0
509.639	1	-6
509.809	1	4
509.979	1	6
510.149	1	0
510.319	1	2
510.490	1	5
510.660	1	6
510.830	1	9
511.000	1	4
511.171	1	-13
511.341	1	0
511.511	1	5
511.681	1	8
511.851	1	-11
512.022	1	-1
512.192	1	7
512.362	1	6
512.532	1	-2
512.702	1	3
512.873	1	3
513.043	1	9
513.213	1	-6
513.383	1	-4
513.553	1	-8
513.724	1	-5
513.894	1	1
514.064	1	-3
514.234	1	1
514.404	1	4
514.575	1	3
514.745	1	-2
514.915	1	-12
515.085	1	-5
515.255	1	10
515.425	1	-1
515.596	1	1
515.766	1	3
515.936	1	17
516.106	1	-2
516.276	1	4
516.447	1	12
516.617	1	0
516.787	1	-3
516.957	1	5
517.127	1	-5
517.297	1	4
517.468	1	5
517.638	1	2
517.808	1	7
517.978	1	7
518.148	1	2
518.319	1	5
518.489	1	4
518.659	1	9
518.829	1	10
518.999	1	-9
519.169	1	-4
519.340	1	0
519.510	1	-7
519.680	1	5
519.850	1	0
520.020	1	9
520.190	1	-4
520.361	1	-1
520.531	1	2
520.701	1	3
520.871	1	-8
521.041	1	1
521.211	1	-1
521.382	1	1
521.552	1	6
521.722	1	7
521.892	1	1
522.062	1	-5
522.232	1	3
522.402	1	-2
522.573	1	3
522.743	1	1
522.913	1	-3
523.083	1	7
523.253	1	3
523.423	1	5
523.593	1	-6
523.764	1	6
523.934	1	10
524.104	1	-2
524.274	1	-3
524.444	1	-1
524.614	1	-6
524.784	1	6
524.955	1	8
525.125	1	7
525.295	1	5
525.465	1	-13
525.635	1	-7
525.805	1	2
525.975	1	0
526.146	1	8
526.316	1	-5
526.486	1	3
526.656	1	6
526.826	1	-2
526.996	1	6
527.166	1	3
527.337	1	2
527.507	1	1
527.677	1	5
527.847	1	3
528.017	1	-10
528.187	1	-4
528.357	1	-6
528.527	1	6
528.698	1	7
528.868	1	2
529.038	1	-4
529.208	1	5
529.378	1	5
529.548	1	-8
529.718	1	6
529.888	1	9
530.058	1	-3
530.229	1	5
530.399	1	0
530.569	1	-1
530.739	1	1
530.909	1	6
531.079	1	-6
531.249	1	-1
531.419	1	3
531.589	1	-6
531.760	1	6
531.930	1	-2
532.100	1	2
532.270	1	0
532.440	1	0
532.610	1	4
532.780	1	-8
532.950	1	-5
533.120	1	6
533.290	1	0
533.461	1	-5
533.631	1	0
533.801	1	-15
533.971	1	0
534.141	1	-7
534.311	1	3
534.481	1	-3
534.651	1	-5
534.821	1	1
534.991	1	-7
535.162	1	6
535.332	1	0
535.502	1	2
535.672	1	0
535.842	1	2
536.012	1	3
536.182	1	7
536.352	1	2
536.522	1	1
536.692	1	10
536.862	1	0
537.032	1	7
537.203	1	5
537.373	1	9
537.543	1	4
537.713	1	-4
537.883	1	2
538.053	1	-5
538.223	1	-2
538.393	1	-4
538.563	1	9
538.733	1	0
538.903	1	-3
539.073	1	-7
539.243	1	-5
539.413	1	-2
539.584	1	8
539.754	1	-7
539.924	1	8
540.094	1	-11
540.264	1	4
540.434	1	2
540.604	1	1
540.774	1	11
540.944	1	7
541.114	1	5
541.284	1	2
541.454	1	2
541.624	1	-4
541.794	1	7
541.964	1	6
542.134	1	0
542.305	1	7
542.475	1	5
542.645	1	3
542.815	1	4
542.985	1	8
543.155	1	-2
543.325	1	-7
543.495	1	8
543.665	1	8
543.835	1	2
544.005	1	4
544.175	1	-8
544.345	1	-1
544.515	1	-4
544.685	1	-9
544.855	1	5
545.025	1	12
545.195	1	3
545.365	1	-3
545.535	1	-4
545.705	1	-4
545.875	1	5
546.045	1	-5
546.216	1	2
546.386	1	0
546.556	1	5
546.726	1	5
546.896	1	12
547.066	1	3
547.236	1	-1
547.406	1	8
547.576	1	7
547.746	1	6
547.916	1	3
548.086	1	3
548.256	1	-2
548.426	1	0
548.596	1	3
548.766	1	8
548.936	1	-12
549.106	1	3
549.276	1	0
549.446	1	-4
549.616	1	3
549.786	1	10
549.956	1	8
550.126	1	9
550.296	1	9
550.466	1	3
550.636	1	2
550.806	1	-5
550.976	1	-2
551.146	1	9
551.316	1	14
551.486	1	-2
551.656	1	-5
551.826	1	-5
551.996	1	-2
552.166	1	0
552.336	1	-3
552.506	1	-3
552.676	1	4
552.846	1	5
553.016	1	10
553.186	1	-8
553.356	1	-8
553.526	1	0
553.696	1	9
553.866	1	5
554.036	1	7
554.206	1	-4
554.376	1	-2
554.546	1	7
554.716	1	-6
554.886	1	4
555.056	1	7
555.226	1	9
555.396	1	5
555.566	1	7
555.736	1	-11
555.906	1	2
556.076	1	2
556.246	1	0
556.416	1	1
556.586	1	-4
556.756	1	2
556.926	1	11
557.096	1	8
557.266	1	8
557.436	1	-1
557.606	1	9
557.776	1	-5
557.946	1	-4
558.116	1	1
558.286	1	0
558.456	1	3
558.626	1	21
558.796	1	-7
558.966	1	5
559.136	1	14
559.306	1	3
559.476	1	2
559.646	1	-3
559.816	1	-7
559.986	1	5
560.155	1	-7
560.325	1	9
560.495	1	4
560.665	1	8
560.835	1	-1
561.005	1	0
561.175	1	7
561.345	1	-15
561.515	1	0
561.685	1	-1
561.855	1	3
562.025	1	-3
562.195	1	12
562.365	1	-1
562.535	1	-4
562.705	1	3
562.875	1	0
563.045	1	-4
563.215	1	10
563.385	1	2
563.555	1	5
563.725	1	-5
563.895	1	8
564.064	1	12
564.234	1	9
564.404	1	-7
564.574	1	11
564.744	1	3
564.914	1	0
565.084	1	6
565.254	1	0
565.424	1	0
565.594	1	1
565.764	1	9
565.934	1	1
566.104	1	-6
566.274	1	2
566.444	1	9
566.614	1	-2
566.783	1	1
566.953	1	2
567.123	1	-1
567.293	1	5
567.463	1	8
567.633	1	1
567.803	1	-14
567.973	1	-2
568.143	1	0
568.313	1	-3
568.483	1	4
568.653	1	2
568.823	1	0
568.993	1	5
569.162	1	1
569.332	1	-5
569.502	1	2
569.672	1	4
569.842	1	2
570.012	1	0
570.182	1	0
570.352	1	-3
570.522	1	2
570.692	1	3
570.862	1	17
571.031	1	-2
571.201	1	9
571.371	1	-3
571.541	1	5
571.711	1	-6
571.881	1	3
572.051	1	4
572.221	1	3
572.391	1	-6
572.561	1	10
572.731	1	7
572.900	1	2
573.070	1	1
573.240	1	3
573.410	1	4
573.580	1	3
573.750	1	3
573.920	1	0
574.090	1	1
574.260	1	4
574.430	1	4
574.599	1	-4
574.769	1	1
574.939	1	9
575.109	1	4
575.279	1	4
575.449	1	0
575.619	1	-7
575.789	1	-9
575.959	1	-5
576.128	1	2
576.298	1	-6
576.468	1	-4
576.638	1	-5
576.808	1	8
576.978	1	-1
577.148	1	-13
577.318	1	-3
577.487	1	-11
577.657	1	1
577.827	1	-2
577.997	1	-3
578.167	1	2
578.337	1	1
578.507	1	9
578.677	1	2
578.846	1	10
579.016	1	4
579.186	1	13
579.356	1	4
579.526	1	13
579.696	1	-1
579.866	1	12
580.036	1	3
580.205	1	7
580.375	1	-4
580.545	1	7
580.715	1	5
580.885	1	0
581.055	1	-7
581.225	1	0
581.394	1	-9
581.564	1	4
581.734	1	1
581.904	1	2
582.074	1	8
582.244	1	3
582.414	1	10
582.583	1	8
582.753	1	-1
582.923	1	-2
583.093	1	0
583.263	1	-11
583.433	1	-5
583.603	1	11
583.772	1	5
583.942	1	7
584.112	1	-5
584.282	1	2
584.452	1	-3
584.622	1	8
584.791	1	-1
584.961	1	0
585.131	1	3
585.301	1	-2
585.471	1	-2
585.641	1	1
585.811	1	5
585.980	1	0
586.150	1	10
586.320	1	-3
586.490	1	0
586.660	1	4
586.830	1	19
586.999	1	2
587.169	1	-3
587.339	1	-2
587.509	1	-2
587.679	1	7
587.849	1	-1
588.018	1	-5
588.188	1	5
588.358	1	2
588.528	1	-7
588.698	1	-8
588.867	1	-2
589.037	1	6
589.207	1	-2
589.377	1	6
589.547	1	5
589.717	1	0
589.886	1	-4
590.056	1	-3
590.226	1	10
590.396	1	1
590.566	1	-8
590.735	1	-2
590.905	1	1
591.075	1	9
591.245	1	12
591.415	1	4
591.585	1	-5
591.754	1	-5
591.924	1	-10
592.094	1	2
592.264	1	0
592.434	1	2
592.603	1	2
592.773	1	9
592.943	1	-7
593.113	1	3
593.283	1	-1
593.452	1	6
593.622	1	-4
593.792	1	6
593.962	1	8
594.132	1	5
594.301	1	4
594.471	1	10
594.641	1	-1
594.811	1	-3
594.981	1	-6
595.150	1	-10
595.320	1	-3
595.490	1	-5
595.660	1	-3
595.829	1	6
595.999	1	-11
596.169	1	11
596.339	1	-4
596.509	1	-7
596.678	1	3
596.848	1	3
597.018	1	-4
597.188	1	2
597.358	1	-7
597.527	1	12
597.697	1	2
597.867	1	6
598.037	1	-3
598.206	1	-2
598.376	1	3
598.546	1	7
598.716	1	2
598.885	1	2
599.055	1	-1
599.225	1	3
599.395	1	-1
599.565	1	-7
599.734	1	0
599.904	1	14
600.074	1	7
600.244	1	6
600.413	1	-5
600.583	1	5
600.753	1	5
600.923	1	2
601.092	1	3
601.262	1	-5
601.432	1	13
601.602	1	3
601.771	1	-3
601.941	1	4
602.111	1	-2
602.281	1	7
602.451	1	5
602.620	1	-3
602.790	1	-19
602.960	1	-13
603.130	1	-6
603.299	1	1
603.469	1	7
603.639	1	5
603.809	1	14
603.978	1	-5
604.148	1	-2
604.318	1	2
604.487	1	4
604.657	1	4
604.827	1	8
604.997	1	2
605.166	1	-3
605.336	1	-6
605.506	1	-3
605.676	1	1
605.845	1	3
606.015	1	-8
606.185	1	1
606.355	1	-2
606.524	1	7
606.694	1	-3
606.864	1	2
607.034	1	0
607.203	1	-4
607.373	1	-9
607.543	1	-2
607.712	1	-8
607.882	1	-16
608.052	1	-2
608.222	1	0
608.391	1	4
608.561	1	6
608.731	1	5
608.901	1	2
609.070	1	4
609.240	1	0
609.410	1	4
609.579	1	-6
609.749	1	-2
609.919	1	7
610.089	1	-6
610.258	1	7
610.428	1	9
610.598	1	1
610.767	1	-8
610.937	1	-4
611.107	1	-13
611.277	1	5
611.446	1	7
611.616	1	-8
611.786	1	11
611.955	1	5
612.125	1	-9
612.295	1	14
612.465	1	-3
612.634	1	2
612.804	1	2
612.974	1	-2
613.143	1	1
613.313	1	1
613.483	1	0
613.652	1	14
613.822	1	-3
613.992	1	5
614.162	1	4
614.331	1	2
614.501	1	-15
614.671	1	5
614.840	1	3
615.010	1	-5
615.180	1	10
615.349	1	5
615.519	1	-1
615.689	1	17
615.858	1	2
616.028	1	-15
616.198	1	7
616.368	1	3
616.537	1	-11
616.707	1	1
616.877	1	5
617.046	1	6
617.216	1	3
617.386	1	10
617.555	1	1
617.725	1	-1
617.895	1	7
618.064	1	-2
618.234	1	-5
618.404	1	-3
618.573	1	13
618.743	1	5
618.913	1	10
619.082	1	0
619.252	1	2
619.422	1	-10
619.591	1	-10
619.761	1	-4
619.931	1	-2
620.100	1	-5
620.270	1	-5
620.440	1	2
620.609	1	5
620.779	1	2
620.949	1	-9
621.118	1	-5
621.288	1	0
621.458	1	4
621.627	1	1
621.797	1	-6
621.967	1	3
622.136	1	-6
622.306	1	2
622.476	1	7
622.645	1	5
622.815	1	9
622.985	1	-2
623.154	1	1
623.324	1	3
623.494	1	9
623.663	1	1
623.833	1	1
624.002	1	-13
624.172	1	-2
624.342	1	-13
624.511	1	-3
624.681	1	6
624.851	1	1
625.020	1	-3
625.190	1	6
625.360	1	-12
625.529	1	-2
625.699	1	-8
625.869	1	2
626.038	1	10
626.208	1	-8
626.377	1	8
626.547	1	6
626.717	1	-1
626.886	1	8
627.056	1	-4
627.226	1	1
627.395	1	-2
627.565	1	7
627.735	1	8
627.904	1	1
628.074	1	0
628.243	1	7
628.413	1	-2
628.583	1	-6
628.752	1	3
628.922	1	-3
629.091	1	-8
629.261	1	3
629.431	1	6
629.600	1	18
629.770	1	-11
629.940	1	-2
630.109	1	0
630.279	1	-5
630.448	1	2
630.618	1	14
630.788	1	2
630.957	1	8
631.127	1	8
631.297	1	-18
631.466	1	0
631.636	1	3
631.805	1	7
631.975	1	5
632.145	1	10
632.314	1	-5
632.484	1	-7
632.653	1	-4
632.823	1	4
632.993	1	7
633.162	1	5
633.332	1	-2
633.501	1	-3
633.671	1	-2
633.841	1	9
634.010	1	15
634.180	1	0
634.349	1	18
634.519	1	-5
634.689	1	6
634.858	1	-7
635.028	1	7
635.197	1	8
635.367	1	6
635.537	1	-4
635.706	1	7
635.876	1	5
636.045	1	2
636.215	1	5
636.384	1	2
636.554	1	-1
636.724	1	1
636.893	1	2
637.063	1	10
637.232	1	-1
637.402	1	-3
637.572	1	3
637.741	1	2
637.911	1	9
638.080	1	6
638.250	1	-8
638.419	1	8
638.589	1	9
638.759	1	8
638.928	1	7
639.098	1	-8
639.267	1	4
639.437	1	0
639.606	1	8
639.776	1	-1
639.946	1	7
640.115	1	-9
640.285	1	6
640.454	1	2
640.624	1	8
640.793	1	5
640.963	1	13
641.132	1	-10
641.302	1	11
641.472	1	2
641.641	1	13
641.811	1	2
641.980	1	-6
642.150	1	1
642.319	1	0
642.489	1	8
642.659	1	2
642.828	1	3
642.998	1	-8
643.167	1	10
643.337	1	2
643.506	1	4
643.676	1	9
643.845	1	-2
644.015	1	-4
644.184	1	-2
644.354	1	6
644.524	1	-6
644.693	1	-5
644.863	1	-2
645.032	1	9
645.202	1	1
645.371	1	11
645.541	1	0
645.710	1	5
645.880	1	2
646.049	1	5
646.219	1	-7
646.388	1	-1
646.558	1	4
646.728	1	10
646.897	1	-7
647.067	1	-6
647.236	1	3
647.406	1	2
647.575	1	0
647.745	1	1
647.914	1	7
648.084	1	2
648.253	1	3
648.423	1	-6
648.592	1	4
648.762	1	4
648.931	1	12
649.101	1	1
649.270	1	2
649.440	1	-4
649.610	1	-6
649.779	1	0
649.949	1	4
650.118	1	1
650.288	1	1
650.457	1	10
650.627	1	1
650.796	1	2
650.966	1	-4
651.135	1	11
651.305	1	5
651.474	1	1
651.644	1	-7
651.813	1	-11
651.983	1	6
652.152	1	-8
652.322	1	4
652.491	1	15
652.661	1	4
652.830	1	7
653.000	1	8
653.169	1	4
653.339	1	-7
653.508	1	4
653.678	1	-1
653.847	1	13
654.017	1	0
654.186	1	-1
654.356	1	-5
654.525	1	7
654.695	1	1
654.864	1	-3
655.034	1	1
655.203	1	-6
655.373	1	7
655.542	1	3
655.712	1	-5
655.881	1	2
656.051	1	-6
656.220	1	17
656.390	1	3
656.559	1	7
656.729	1	-5
656.898	1	-2
657.068	1	5
657.237	1	11
657.406	1	11
657.576	1	8
657.745	1	-2
657.915	1	4
658.084	1	-2
658.254	1	-2
658.423	1	3
658.593	1	2
658.762	1	5
658.932	1	4
659.101	1	-3
659.271	1	2
659.440	1	5
659.610	1	13
659.779	1	4
659.949	1	2
660.118	1	6
660.288	1	7
660.457	1	-4
660.626	1	0
660.796	1	6
660.965	1	11
661.135	1	8
661.304	1	-4
661.474	1	9
661.643	1	9
661.813	1	-7
661.982	1	-8
662.152	1	1
662.321	1	2
662.491	1	4
662.660	1	-3
662.829	1	-2
662.999	1	-4
663.168	1	0
663.338	1	13
663.507	1	-10
663.677	1	5
663.846	1	8
664.016	1	-3
664.185	1	-2
664.354	1	-4
664.524	1	-6
664.693	1	5
664.863	1	3
665.032	1	5
665.202	1	11
665.371	1	2
665.541	1	7
665.710	1	-5
665.879	1	0
666.049	1	17
666.218	1	-1
666.388	1	1
666.557	1	2
666.727	1	1
666.896	1	3
667.065	1	0
667.235	1	6
667.404	1	3
667.574	1	11
667.743	1	7
667.913	1	-2
668.082	1	2
668.251	1	-1
668.421	1	-1
668.590	1	7
668.760	1	-7
668.929	1	6
669.099	1	14
669.268	1	0
669.437	1	-4
669.607	1	0
669.776	1	-3
669.946	1	6
670.115	1	-6
670.285	1	-3
670.454	1	1
670.623	1	-1
670.793	1	7
670.962	1	2
671.132	1	-3
671.301	1	0
671.470	1	1
671.640	1	-13
671.809	1	5
671.979	1	5
672.148	1	13
672.317	1	1
672.487	1	17
672.656	1	-2
672.826	1	6
672.995	1	-8
673.164	1	5
673.334	1	-3
673.503	1	-1
673.673	1	-1
673.842	1	0
674.011	1	2
674.181	1	-8
674.350	1	4
674.520	1	-3
674.689	1	-1
674.858	1	1
675.028	1	10
675.197	1	0
675.367	1	-2
675.536	1	-4
675.705	1	-2
675.875	1	9
676.044	1	1
676.214	1	1
676.383	1	14
676.552	1	-5
676.722	1	6
676.891	1	-5
677.060	1	-5
677.230	1	-10
677.399	1	-2
677.569	1	4
677.738	1	-6
677.907	1	-5
678.077	1	-6
678.246	1	2
678.416	1	-2
678.585	1	-7
678.754	1	-3
678.924	1	-2
679.093	1	7
679.262	1	-4
679.432	1	2
679.601	1	-5
679.771	1	2
679.940	1	6
680.109	1	-1
680.279	1	-6
680.448	1	-7
680.617	1	8
680.787	1	-4
680.956	1	6
681.125	1	-4
681.295	1	1
681.464	1	1
681.634	1	7
681.803	1	4
681.972	1	5
682.142	1	8
682.311	1	-7
682.480	1	-1
682.650	1	6
682.819	1	-3
682.988	1	-3
683.158	1	3
683.327	1	-2
683.496	1	-4
683.666	1	-1
683.835	1	3
684.004	1	0
684.174	1	-1
684.343	1	-13
684.512	1	15
684.682	1	-1
684.851	1	12
685.021	1	-3
685.190	1	9
685.359	1	9
685.529	1	1
685.698	1	7
685.867	1	8
686.037	1	3
686.206	1	-7
686.375	1	10
686.545	1	-5
686.714	1	9
686.883	1	-5
687.053	1	8
687.222	1	-2
687.391	1	2
687.561	1	-6
687.730	1	7
687.899	1	-6
688.069	1	-1
688.238	1	2
688.407	1	1
688.577	1	6
688.746	1	-4
