340.368	1	10
340.539	1	-5
340.710	1	1
340.881	1	7
341.052	1	-15
341.223	1	7
341.394	1	6
341.565	1	4
341.737	1	16
341.908	1	5
342.079	1	7
342.250	1	0
342.421	1	-7
342.592	1	10
342.763	1	1
342.934	1	1
343.105	1	-1
343.276	1	8
343.447	1	0
343.618	1	-4
343.789	1	11
343.960	1	12
344.131	1	-1
344.302	1	-3
344.473	1	14
344.644	1	15
344.815	1	-2
344.986	1	3
345.157	1	13
345.328	1	7
345.499	1	13
345.670	1	7
345.841	1	6
346.012	1	3
346.183	1	8
346.354	1	11
346.526	1	2
346.697	1	5
346.868	1	8
347.039	1	5
347.210	1	2
347.381	1	12
347.552	1	10
347.723	1	13
347.894	1	-3
348.065	1	14
348.236	1	0
348.407	1	7
348.578	1	6
348.749	1	-1
348.920	1	15
349.091	1	10
349.262	1	16
349.433	1	14
349.604	1	4
349.775	1	6
349.946	1	16
350.117	1	20
350.288	1	4
350.459	1	19
350.630	1	-3
350.801	1	16
350.972	1	21
351.143	1	17
351.314	1	14
351.485	1	3
351.656	1	-1
351.827	1	11
351.998	1	12
352.169	1	14
352.340	1	19
352.511	1	16
352.682	1	24
352.853	1	12
353.024	1	25
353.195	1	16
353.366	1	17
353.537	1	18
353.708	1	16
353.879	1	7
354.050	1	18
354.221	1	22
354.392	1	16
354.563	1	15
354.734	1	32
354.905	1	31
355.076	1	2
355.247	1	22
355.418	1	28
355.589	1	21
355.760	1	31
355.931	1	32
356.102	1	35
356.273	1	26
356.444	1	30
356.615	1	29
356.785	1	30
356.956	1	29
357.127	1	37
357.298	1	38
357.469	1	31
357.640	1	33
357.811	1	32
357.982	1	56
358.153	1	34
358.324	1	40
358.495	1	40
358.666	1	50
358.837	1	45
359.008	1	57
359.179	1	52
359.350	1	44
359.521	1	49
359.692	1	51
359.863	1	47
360.034	1	58
360.205	1	61
360.376	1	57
360.547	1	61
360.718	1	49
360.889	1	89
361.060	1	72
361.231	1	80
361.401	1	74
361.572	1	87
361.743	1	76
361.914	1	91
362.085	1	94
362.256	1	93
362.427	1	101
362.598	1	102
362.769	1	120
362.940	1	107
363.111	1	121
363.282	1	121
363.453	1	113
363.624	1	133
363.795	1	143
363.966	1	147
364.137	1	153
364.308	1	155
364.478	1	160
364.649	1	172
364.820	1	174
364.991	1	178
365.162	1	173
365.333	1	184
365.504	1	212
365.675	1	209
365.846	1	232
366.017	1	252
366.188	1	236
366.359	1	265
366.530	1	265
366.701	1	278
366.871	1	292
367.042	1	281
367.213	1	314
367.384	1	312
367.555	1	332
367.726	1	353
367.897	1	384
368.068	1	365
368.239	1	388
368.410	1	416
368.581	1	427
368.752	1	461
368.923	1	462
369.093	1	490
369.264	1	478
369.435	1	507
369.606	1	541
369.777	1	513
369.948	1	554
370.119	1	567
370.290	1	578
370.461	1	603
370.632	1	608
370.803	1	624
370.973	1	633
371.144	1	654
371.315	1	668
371.486	1	690
371.657	1	682
371.828	1	723
371.999	1	724
372.170	1	736
372.341	1	751
372.512	1	755
372.682	1	780
372.853	1	769
373.024	1	778
373.195	1	797
373.366	1	805
373.537	1	811
373.708	1	820
373.879	1	791
374.050	1	818
374.220	1	797
374.391	1	816
374.562	1	799
374.733	1	805
374.904	1	792
375.075	1	796
375.246	1	796
375.417	1	782
375.588	1	755
375.758	1	761
375.929	1	756
376.100	1	714
376.271	1	716
376.442	1	701
376.613	1	668
376.784	1	668
376.955	1	678
377.125	1	647
377.296	1	625
377.467	1	623
377.638	1	608
377.809	1	583
377.980	1	587
378.151	1	569
378.321	1	561
378.492	1	538
378.663	1	536
378.834	1	510
379.005	1	520
379.176	1	513
379.347	1	491
379.518	1	467
379.688	1	482
379.859	1	442
380.030	1	470
380.201	1	444
380.372	1	441
380.543	1	433
380.714	1	432
380.884	1	418
381.055	1	393
381.226	1	379
381.397	1	376
381.568	1	355
381.739	1	360
381.910	1	353
382.080	1	343
382.251	1	335
382.422	1	343
382.593	1	308
382.764	1	310
382.935	1	303
383.105	1	310
383.276	1	286
383.447	1	287
383.618	1	269
383.789	1	275
383.960	1	268
384.130	1	246
384.301	1	240
384.472	1	234
384.643	1	226
384.814	1	241
384.985	1	226
385.156	1	227
385.326	1	211
385.497	1	201
385.668	1	216
385.839	1	201
386.010	1	204
386.180	1	192
386.351	1	197
386.522	1	183
386.693	1	183
386.864	1	180
387.035	1	178
387.205	1	180
387.376	1	171
387.547	1	166
387.718	1	159
387.889	1	178
388.060	1	166
388.230	1	151
388.401	1	159
388.572	1	144
388.743	1	149
388.914	1	133
389.084	1	135
389.255	1	132
389.426	1	119
389.597	1	132
389.768	1	125
389.939	1	120
390.109	1	116
390.280	1	100
390.451	1	108
390.622	1	107
390.793	1	108
390.963	1	103
391.134	1	113
391.305	1	112
391.476	1	107
391.647	1	102
391.817	1	101
391.988	1	104
392.159	1	99
392.330	1	88
392.501	1	88
392.671	1	88
392.842	1	86
393.013	1	97
393.184	1	96
393.355	1	79
393.525	1	92
393.696	1	82
393.867	1	93
394.038	1	83
394.208	1	81
394.379	1	78
394.550	1	75
394.721	1	89
394.892	1	88
395.062	1	74
395.233	1	68
395.404	1	61
395.575	1	67
395.746	1	57
395.916	1	61
396.087	1	59
396.258	1	63
396.429	1	56
396.599	1	65
396.770	1	43
396.941	1	57
397.112	1	61
397.283	1	60
397.453	1	49
397.624	1	57
397.795	1	51
397.966	1	54
398.136	1	44
398.307	1	55
398.478	1	57
398.649	1	47
398.819	1	50
398.990	1	52
399.161	1	53
399.332	1	43
399.503	1	46
399.673	1	45
399.844	1	42
400.015	1	50
400.186	1	46
400.356	1	39
400.527	1	47
400.698	1	46
400.869	1	37
401.039	1	50
401.210	1	42
401.381	1	47
401.552	1	37
401.722	1	43
401.893	1	35
402.064	1	30
402.235	1	34
402.405	1	40
402.576	1	33
402.747	1	41
402.918	1	36
403.088	1	32
403.259	1	31
403.430	1	35
403.601	1	34
403.771	1	38
403.942	1	20
404.113	1	29
404.284	1	29
404.454	1	33
404.625	1	41
404.796	1	42
404.967	1	31
405.137	1	14
405.308	1	36
405.479	1	23
405.649	1	28
405.820	1	25
405.991	1	34
406.162	1	24
406.332	1	34
406.503	1	21
406.674	1	32
406.845	1	31
407.015	1	35
407.186	1	24
407.357	1	35
407.527	1	27
407.698	1	22
407.869	1	25
408.040	1	25
408.210	1	30
408.381	1	12
408.552	1	35
408.722	1	19
408.893	1	19
409.064	1	29
409.235	1	25
409.405	1	12
409.576	1	22
409.747	1	18
409.917	1	20
410.088	1	17
410.259	1	22
410.430	1	22
410.600	1	21
410.771	1	16
410.942	1	24
411.112	1	36
411.283	1	20
411.454	1	28
411.625	1	16
411.795	1	21
411.966	1	24
412.137	1	20
412.307	1	10
412.478	1	7
412.649	1	16
412.819	1	12
412.990	1	13
413.161	1	28
413.332	1	8
413.502	1	3
413.673	1	28
413.844	1	17
414.014	1	22
414.185	1	18
414.356	1	12
414.526	1	26
414.697	1	23
414.868	1	18
415.038	1	2
415.209	1	22
415.380	1	7
415.550	1	8
415.721	1	15
415.892	1	16
416.063	1	10
416.233	1	18
416.404	1	9
416.575	1	17
416.745	1	14
416.916	1	15
417.087	1	20
417.257	1	14
417.428	1	7
417.599	1	24
417.769	1	18
417.940	1	16
418.111	1	16
418.281	1	13
418.452	1	11
418.623	1	6
418.793	1	20
418.964	1	17
419.135	1	13
419.305	1	4
419.476	1	5
419.647	1	10
419.817	1	-1
419.988	1	18
420.159	1	15
420.329	1	17
420.500	1	2
420.671	1	18
420.841	1	9
421.012	1	13
421.183	1	23
421.353	1	11
421.524	1	13
421.695	1	11
421.865	1	11
422.036	1	11
422.206	1	18
422.377	1	18
422.548	1	8
422.718	1	7
422.889	1	3
423.060	1	4
423.230	1	16
423.401	1	5
423.572	1	12
423.742	1	13
423.913	1	18
424.084	1	5
424.254	1	7
424.425	1	7
424.595	1	6
424.766	1	12
424.937	1	8
425.107	1	11
425.278	1	14
425.449	1	13
425.619	1	5
425.790	1	4
425.961	1	18
426.131	1	-1
426.302	1	14
426.472	1	4
426.643	1	5
426.814	1	12
426.984	1	6
427.155	1	7
427.326	1	15
427.496	1	21
427.667	1	11
427.837	1	7
428.008	1	6
428.179	1	6
428.349	1	8
428.520	1	9
428.691	1	12
428.861	1	19
429.032	1	8
429.202	1	9
429.373	1	9
429.544	1	7
429.714	1	7
429.885	1	17
430.055	1	17
430.226	1	12
430.397	1	1
430.567	1	14
430.738	1	17
430.909	1	9
431.079	1	2
431.250	1	-2
431.420	1	16
431.591	1	9
431.762	1	10
431.932	1	7
432.103	1	20
432.273	1	6
432.444	1	8
432.615	1	1
432.785	1	6
432.956	1	21
433.126	1	13
433.297	1	1
433.468	1	-2
433.638	1	7
433.809	1	6
433.979	1	8
434.150	1	11
434.320	1	11
434.491	1	12
434.662	1	3
434.832	1	13
435.003	1	11
435.173	1	2
435.344	1	13
435.515	1	13
435.685	1	4
435.856	1	15
436.026	1	4
436.197	1	9
436.368	1	-2
436.538	1	10
436.709	1	-5
436.879	1	-2
437.050	1	12
437.220	1	17
437.391	1	13
437.562	1	10
437.732	1	0
437.903	1	16
438.073	1	1
438.244	1	13
438.414	1	8
438.585	1	9
438.756	1	12
438.926	1	16
439.097	1	4
439.267	1	12
439.438	1	18
439.608	1	11
439.779	1	7
439.949	1	-1
440.120	1	8
440.291	1	11
440.461	1	-1
440.632	1	9
440.802	1	8
440.973	1	17
441.143	1	6
441.314	1	7
441.485	1	7
441.655	1	8
441.826	1	7
441.996	1	13
442.167	1	2
442.337	1	17
442.508	1	13
442.678	1	11
442.849	1	17
443.019	1	-3
443.190	1	8
443.361	1	8
443.531	1	9
443.702	1	9
443.872	1	12
444.043	1	7
444.213	1	15
444.384	1	5
444.554	1	-12
444.725	1	2
444.895	1	11
445.066	1	7
445.237	1	16
445.407	1	4
445.578	1	18
445.748	1	0
445.919	1	12
446.089	1	6
446.260	1	2
446.430	1	16
446.601	1	14
446.771	1	18
446.942	1	9
447.112	1	9
447.283	1	26
447.453	1	3
447.624	1	0
447.794	1	11
447.965	1	8
448.135	1	15
448.306	1	4
448.477	1	6
448.647	1	9
448.818	1	8
448.988	1	2
449.159	1	1
449.329	1	12
449.500	1	-3
449.670	1	4
449.841	1	12
450.011	1	13
450.182	1	11
450.352	1	11
450.523	1	6
450.693	1	4
450.864	1	9
451.034	1	7
451.205	1	9
451.375	1	-2
451.546	1	9
451.716	1	3
451.887	1	6
452.057	1	6
452.228	1	8
452.398	1	9
452.569	1	6
452.739	1	6
452.910	1	1
453.080	1	10
453.251	1	8
453.421	1	7
453.592	1	18
453.762	1	7
453.933	1	11
454.103	1	8
454.274	1	-2
454.444	1	8
454.615	1	8
454.785	1	2
454.956	1	8
455.126	1	9
455.297	1	4
455.467	1	7
455.638	1	3
455.808	1	5
455.979	1	1
456.149	1	6
456.320	1	2
456.490	1	18
456.661	1	10
456.831	1	9
457.001	1	9
457.172	1	9
457.342	1	5
457.513	1	6
457.683	1	10
457.854	1	10
458.024	1	12
458.195	1	4
458.365	1	10
458.536	1	4
458.706	1	2
458.877	1	4
459.047	1	-2
459.218	1	5
459.388	1	-3
459.559	1	12
459.729	1	11
459.899	1	15
460.070	1	23
460.240	1	8
460.411	1	10
460.581	1	5
460.752	1	-2
460.922	1	14
461.093	1	8
461.263	1	9
461.434	1	7
461.604	1	5
461.775	1	7
461.945	1	7
462.115	1	-7
462.286	1	14
462.456	1	14
462.627	1	7
462.797	1	11
462.968	1	13
463.138	1	21
463.309	1	6
463.479	1	2
463.649	1	4
463.820	1	-6
463.990	1	-2
464.161	1	-2
464.331	1	6
464.502	1	16
464.672	1	5
464.843	1	16
465.013	1	11
465.183	1	0
465.354	1	5
465.524	1	16
465.695	1	12
465.865	1	3
466.036	1	5
466.206	1	12
466.376	1	4
466.547	1	-4
466.717	1	1
466.888	1	1
467.058	1	4
467.229	1	14
467.399	1	16
467.569	1	15
467.740	1	-4
467.910	1	11
468.081	1	4
468.251	1	15
468.422	1	4
468.592	1	15
468.762	1	21
468.933	1	18
469.103	1	-1
469.274	1	10
469.444	1	11
469.614	1	9
469.785	1	5
469.955	1	8
470.126	1	13
470.296	1	7
470.467	1	9
470.637	1	9
470.807	1	14
470.978	1	10
471.148	1	13
471.319	1	5
471.489	1	15
471.659	1	6
471.830	1	14
472.000	1	11
472.171	1	19
472.341	1	1
472.511	1	0
472.682	1	11
472.852	1	14
473.023	1	-1
473.193	1	-4
473.363	1	11
473.534	1	2
473.704	1	6
473.875	1	11
474.045	1	-1
474.215	1	14
474.386	1	23
474.556	1	7
474.727	1	12
474.897	1	-5
475.067	1	8
475.238	1	3
475.408	1	9
475.578	1	12
475.749	1	-4
475.919	1	-2
476.090	1	16
476.260	1	4
476.430	1	5
476.601	1	11
476.771	1	7
476.942	1	4
477.112	1	17
477.282	1	7
477.453	1	12
477.623	1	12
477.793	1	12
477.964	1	10
478.134	1	10
478.305	1	9
478.475	1	-6
478.645	1	9
478.816	1	21
478.986	1	10
479.156	1	5
479.327	1	-10
479.497	1	4
479.667	1	8
479.838	1	8
480.008	1	-1
480.179	1	17
480.349	1	7
480.519	1	11
480.690	1	0
480.860	1	17
481.030	1	6
481.201	1	-1
481.371	1	6
481.541	1	3
481.712	1	11
481.882	1	9
482.053	1	18
482.223	1	9
482.393	1	8
482.564	1	-2
482.734	1	16
482.904	1	9
483.075	1	1
483.245	1	11
483.415	1	12
483.586	1	1
483.756	1	10
483.926	1	7
484.097	1	14
484.267	1	9
484.437	1	12
484.608	1	12
484.778	1	8
484.948	1	-1
485.119	1	1
485.289	1	1
485.459	1	11
485.630	1	13
485.800	1	11
485.970	1	-3
486.141	1	11
486.311	1	12
486.481	1	-6
486.652	1	11
486.822	1	15
486.992	1	3
487.163	1	12
487.333	1	13
487.503	1	8
487.674	1	10
487.844	1	7
488.014	1	11
488.185	1	13
488.355	1	18
488.525	1	7
488.696	1	4
488.866	1	5
489.036	1	11
489.207	1	11
489.377	1	9
489.547	1	26
489.718	1	9
489.888	1	16
490.058	1	-1
490.228	1	21
490.399	1	3
490.569	1	15
490.739	1	10
490.910	1	5
491.080	1	8
491.250	1	12
491.421	1	14
491.591	1	11
491.761	1	19
491.932	1	10
492.102	1	18
492.272	1	5
492.442	1	12
492.613	1	12
492.783	1	17
492.953	1	17
493.124	1	21
493.294	1	15
493.464	1	27
493.635	1	18
493.805	1	6
493.975	1	7
494.145	1	12
494.316	1	8
494.486	1	5
494.656	1	5
494.827	1	4
494.997	1	3
495.167	1	14
495.337	1	16
495.508	1	19
495.678	1	18
495.848	1	13
496.019	1	-2
496.189	1	10
496.359	1	-1
496.529	1	7
496.700	1	6
496.870	1	11
497.040	1	20
497.211	1	11
497.381	1	10
497.551	1	1
497.721	1	14
497.892	1	12
498.062	1	20
498.232	1	9
498.403	1	8
498.573	1	17
498.743	1	17
498.913	1	4
499.084	1	14
499.254	1	15
499.424	1	22
499.594	1	11
499.765	1	11
499.935	1	26
500.105	1	11
500.275	1	-4
500.446	1	12
500.616	1	17
500.786	1	19
500.956	1	17
501.127	1	10
501.297	1	11
501.467	1	6
501.638	1	11
501.808	1	2
501.978	1	10
502.148	1	5
502.319	1	9
502.489	1	15
502.659	1	1
502.829	1	24
503.000	1	10
503.170	1	14
503.340	1	18
503.510	1	9
503.681	1	6
503.851	1	9
504.021	1	18
504.191	1	11
504.362	1	15
504.532	1	8
504.702	1	24
504.872	1	16
505.042	1	12
505.213	1	18
505.383	1	12
505.553	1	12
505.723	1	9
505.894	1	18
506.064	1	25
506.234	1	24
506.404	1	18
506.575	1	14
506.745	1	13
506.915	1	11
507.085	1	8
507.256	1	10
507.426	1	8
507.596	1	19
507.766	1	15
507.936	1	22
508.107	1	18
508.277	1	16
508.447	1	25
508.617	1	12
508.788	1	21
508.958	1	22
509.128	1	10
509.298	1	18
509.468	1	2
509.639	1	20
509.809	1	21
509.979	1	26
510.149	1	18
510.319	1	10
510.490	1	15
510.660	1	15
510.830	1	22
511.000	1	14
511.171	1	4
511.341	1	22
511.511	1	23
511.681	1	20
511.851	1	26
512.022	1	16
512.192	1	15
512.362	1	22
512.532	1	14
512.702	1	17
512.873	1	19
513.043	1	20
513.213	1	11
513.383	1	21
513.553	1	17
513.724	1	17
513.894	1	12
514.064	1	18
514.234	1	17
514.404	1	19
514.575	1	19
514.745	1	18
514.915	1	8
515.085	1	15
515.255	1	31
515.425	1	14
515.596	1	10
515.766	1	29
515.936	1	20
516.106	1	16
516.276	1	27
516.447	1	23
516.617	1	19
516.787	1	24
516.957	1	29
517.127	1	19
517.297	1	16
517.468	1	26
517.638	1	13
517.808	1	18
517.978	1	26
518.148	1	27
518.319	1	27
518.489	1	21
518.659	1	28
518.829	1	18
518.999	1	12
519.169	1	19
519.340	1	20
519.510	1	14
519.680	1	35
519.850	1	31
520.020	1	24
520.190	1	27
520.361	1	42
520.531	1	16
520.701	1	24
520.871	1	19
521.041	1	13
521.211	1	27
521.382	1	24
521.552	1	35
521.722	1	29
521.892	1	27
522.062	1	23
522.232	1	27
522.402	1	28
522.573	1	30
522.743	1	21
522.913	1	15
523.083	1	22
523.253	1	28
523.423	1	34
523.593	1	20
523.764	1	26
523.934	1	19
524.104	1	36
524.274	1	21
524.444	1	10
524.614	1	23
524.784	1	36
524.955	1	21
525.125	1	31
525.295	1	22
525.465	1	18
525.635	1	19
525.805	1	22
525.975	1	26
526.146	1	38
526.316	1	11
526.486	1	38
526.656	1	29
526.826	1	15
526.996	1	32
527.166	1	35
527.337	1	33
527.507	1	24
527.677	1	26
527.847	1	23
528.017	1	20
528.187	1	20
528.357	1	27
528.527	1	22
528.698	1	35
528.868	1	24
529.038	1	30
529.208	1	28
529.378	1	31
529.548	1	27
529.718	1	32
529.888	1	28
530.058	1	32
530.229	1	41
530.399	1	23
530.569	1	30
530.739	1	40
530.909	1	20
531.079	1	21
531.249	1	31
531.419	1	41
531.589	1	27
531.760	1	33
531.930	1	38
532.100	1	27
532.270	1	28
532.440	1	24
532.610	1	29
532.780	1	32
532.950	1	24
533.120	1	47
533.290	1	38
533.461	1	25
533.631	1	30
533.801	1	28
533.971	1	24
534.141	1	31
534.311	1	34
534.481	1	25
534.651	1	32
534.821	1	21
534.991	1	24
535.162	1	30
535.332	1	36
535.502	1	31
535.672	1	32
535.842	1	28
536.012	1	38
536.182	1	30
536.352	1	34
536.522	1	30
536.692	1	39
536.862	1	29
537.032	1	28
537.203	1	31
537.373	1	36
537.543	1	41
537.713	1	28
537.883	1	29
538.053	1	30
538.223	1	38
538.393	1	24
538.563	1	30
538.733	1	22
538.903	1	26
539.073	1	22
539.243	1	11
539.413	1	36
539.584	1	43
539.754	1	26
539.924	1	47
540.094	1	22
540.264	1	23
540.434	1	38
540.604	1	39
540.774	1	40
540.944	1	38
541.114	1	36
541.284	1	37
541.454	1	28
541.624	1	20
541.794	1	48
541.964	1	31
542.134	1	30
542.305	1	44
542.475	1	36
542.645	1	31
542.815	1	42
542.985	1	43
543.155	1	31
543.325	1	31
543.495	1	43
543.665	1	37
543.835	1	30
544.005	1	32
544.175	1	32
544.345	1	29
544.515	1	32
544.685	1	25
544.855	1	30
545.025	1	48
545.195	1	36
545.365	1	42
545.535	1	44
545.705	1	31
545.875	1	23
546.045	1	30
546.216	1	40
546.386	1	32
546.556	1	34
546.726	1	40
546.896	1	41
547.066	1	36
547.236	1	36
547.406	1	37
547.576	1	37
547.746	1	38
547.916	1	41
548.086	1	36
548.256	1	28
548.426	1	30
548.596	1	36
548.766	1	40
548.936	1	20
549.106	1	35
549.276	1	40
549.446	1	37
549.616	1	29
549.786	1	48
549.956	1	41
550.126	1	51
550.296	1	49
550.466	1	28
550.636	1	36
550.806	1	36
550.976	1	39
551.146	1	48
551.316	1	43
551.486	1	33
551.656	1	46
551.826	1	37
551.996	1	49
552.166	1	37
552.336	1	39
552.506	1	41
552.676	1	43
552.846	1	39
553.016	1	42
553.186	1	40
553.356	1	38
553.526	1	38
553.696	1	55
553.866	1	46
554.036	1	41
554.206	1	36
554.376	1	28
554.546	1	41
554.716	1	33
554.886	1	46
555.056	1	38
555.226	1	57
555.396	1	46
555.566	1	47
555.736	1	41
555.906	1	39
556.076	1	42
556.246	1	43
556.416	1	49
556.586	1	44
556.756	1	51
556.926	1	49
557.096	1	51
557.266	1	34
557.436	1	32
557.606	1	32
557.776	1	31
557.946	1	38
558.116	1	36
558.286	1	34
558.456	1	39
558.626	1	48
558.796	1	39
558.966	1	42
559.136	1	55
559.306	1	48
559.476	1	40
559.646	1	40
559.816	1	37
559.986	1	43
560.155	1	39
560.325	1	46
560.495	1	43
560.665	1	29
560.835	1	43
561.005	1	32
561.175	1	43
561.345	1	36
561.515	1	40
561.685	1	42
561.855	1	30
562.025	1	42
562.195	1	48
562.365	1	37
562.535	1	37
562.705	1	41
562.875	1	42
563.045	1	39
563.215	1	42
563.385	1	43
563.555	1	54
563.725	1	37
563.895	1	45
564.064	1	50
564.234	1	44
564.404	1	51
564.574	1	57
564.744	1	41
564.914	1	49
565.084	1	43
565.254	1	42
565.424	1	32
565.594	1	46
565.764	1	44
565.934	1	43
566.104	1	48
566.274	1	46
566.444	1	45
566.614	1	28
566.783	1	47
566.953	1	37
567.123	1	38
567.293	1	45
567.463	1	51
567.633	1	46
567.803	1	45
567.973	1	52
568.143	1	39
568.313	1	38
568.483	1	40
568.653	1	39
568.823	1	37
568.993	1	47
569.162	1	47
569.332	1	36
569.502	1	43
569.672	1	39
569.842	1	50
570.012	1	36
570.182	1	38
570.352	1	40
570.522	1	49
570.692	1	38
570.862	1	43
571.031	1	41
571.201	1	49
571.371	1	27
571.541	1	48
571.711	1	43
571.881	1	43
572.051	1	43
572.221	1	43
572.391	1	29
572.561	1	47
572.731	1	32
572.900	1	40
573.070	1	40
573.240	1	43
573.410	1	53
573.580	1	49
573.750	1	41
573.920	1	41
574.090	1	39
574.260	1	45
574.430	1	26
574.599	1	40
574.769	1	36
574.939	1	54
575.109	1	37
575.279	1	46
575.449	1	37
575.619	1	30
575.789	1	34
575.959	1	41
576.128	1	38
576.298	1	45
576.468	1	43
576.638	1	37
576.808	1	40
576.978	1	42
577.148	1	36
577.318	1	32
577.487	1	37
577.657	1	46
577.827	1	52
577.997	1	37
578.167	1	51
578.337	1	43
578.507	1	42
578.677	1	46
578.846	1	56
579.016	1	46
579.186	1	42
579.356	1	36
579.526	1	48
579.696	1	37
579.866	1	43
580.036	1	39
580.205	1	43
580.375	1	38
580.545	1	46
580.715	1	43
580.885	1	50
581.055	1	38
581.225	1	37
581.394	1	28
581.564	1	30
581.734	1	40
581.904	1	45
582.074	1	48
582.244	1	46
582.414	1	57
582.583	1	43
582.753	1	33
582.923	1	47
583.093	1	43
583.263	1	34
583.433	1	40
583.603	1	44
583.772	1	42
583.942	1	41
584.112	1	54
584.282	1	49
584.452	1	41
584.622	1	52
584.791	1	47
584.961	1	49
585.131	1	49
585.301	1	35
585.471	1	39
585.641	1	47
585.811	1	46
585.980	1	48
586.150	1	53
586.320	1	41
586.490	1	44
586.660	1	39
586.830	1	45
586.999	1	38
587.169	1	42
587.339	1	37
587.509	1	45
587.679	1	38
587.849	1	51
588.018	1	38
588.188	1	37
588.358	1	34
588.528	1	35
588.698	1	34
588.867	1	37
589.037	1	46
589.207	1	36
589.377	1	52
589.547	1	41
589.717	1	48
589.886	1	33
590.056	1	42
590.226	1	40
590.396	1	45
590.566	1	43
590.735	1	34
590.905	1	38
591.075	1	43
591.245	1	47
591.415	1	32
591.585	1	47
591.754	1	30
591.924	1	42
592.094	1	41
592.264	1	52
592.434	1	47
592.603	1	47
592.773	1	53
592.943	1	34
593.113	1	24
593.283	1	41
593.452	1	44
593.622	1	34
593.792	1	32
593.962	1	45
594.132	1	37
594.301	1	36
594.471	1	44
594.641	1	42
594.811	1	27
594.981	1	31
595.150	1	38
595.320	1	40
595.490	1	27
595.660	1	40
595.829	1	39
595.999	1	32
596.169	1	29
596.339	1	44
596.509	1	31
596.678	1	32
596.848	1	33
597.018	1	35
597.188	1	27
597.358	1	34
597.527	1	47
597.697	1	33
597.867	1	37
598.037	1	30
598.206	1	26
598.376	1	40
598.546	1	38
598.716	1	36
598.885	1	48
599.055	1	34
599.225	1	43
599.395	1	35
599.565	1	36
599.734	1	39
599.904	1	47
600.074	1	38
600.244	1	37
600.413	1	29
600.583	1	26
600.753	1	35
600.923	1	35
601.092	1	38
601.262	1	39
601.432	1	39
601.602	1	48
601.771	1	38
601.941	1	30
602.111	1	38
602.281	1	40
602.451	1	35
602.620	1	37
602.790	1	21
602.960	1	33
603.130	1	42
603.299	1	40
603.469	1	41
603.639	1	28
603.809	1	39
603.978	1	32
604.148	1	41
604.318	1	31
604.487	1	36
604.657	1	46
604.827	1	42
604.997	1	33
605.166	1	25
605.336	1	30
605.506	1	34
605.676	1	37
605.845	1	33
606.015	1	34
606.185	1	45
606.355	1	35
606.524	1	48
606.694	1	43
606.864	1	36
607.034	1	40
607.203	1	44
607.373	1	36
607.543	1	37
607.712	1	38
607.882	1	29
608.052	1	45
608.222	1	39
608.391	1	45
608.561	1	51
608.731	1	43
608.901	1	33
609.070	1	35
609.240	1	43
609.410	1	32
609.579	1	27
609.749	1	37
609.919	1	46
610.089	1	41
610.258	1	41
610.428	1	32
610.598	1	35
610.767	1	32
610.937	1	40
611.107	1	44
611.277	1	31
611.446	1	36
611.616	1	35
611.786	1	36
611.955	1	50
612.125	1	31
612.295	1	41
612.465	1	24
612.634	1	38
612.804	1	44
612.974	1	32
613.143	1	34
613.313	1	31
613.483	1	37
613.652	1	40
613.822	1	43
613.992	1	29
614.162	1	38
614.331	1	39
614.501	1	37
614.671	1	43
614.840	1	40
615.010	1	37
615.180	1	38
615.349	1	38
615.519	1	33
615.689	1	44
615.858	1	38
616.028	1	27
616.198	1	35
616.368	1	40
616.537	1	24
616.707	1	38
616.877	1	25
617.046	1	32
617.216	1	36
617.386	1	34
617.555	1	31
617.725	1	26
617.895	1	39
618.064	1	25
618.234	1	36
618.404	1	31
618.573	1	45
618.743	1	26
618.913	1	32
619.082	1	25
619.252	1	39
619.422	1	27
619.591	1	32
619.761	1	29
619.931	1	39
620.100	1	30
620.270	1	21
620.440	1	27
620.609	1	31
620.779	1	32
620.949	1	22
621.118	1	31
621.288	1	30
621.458	1	34
621.627	1	30
621.797	1	30
621.967	1	35
622.136	1	30
622.306	1	29
622.476	1	30
622.645	1	32
622.815	1	27
622.985	1	29
623.154	1	29
623.324	1	35
623.494	1	37
623.663	1	31
623.833	1	34
624.002	1	26
624.172	1	22
624.342	1	26
624.511	1	30
624.681	1	38
624.851	1	31
625.020	1	19
625.190	1	31
625.360	1	16
625.529	1	30
625.699	1	27
625.869	1	29
626.038	1	31
626.208	1	25
626.377	1	47
626.547	1	34
626.717	1	29
626.886	1	34
627.056	1	22
627.226	1	14
627.395	1	27
627.565	1	35
627.735	1	29
627.904	1	37
628.074	1	34
628.243	1	33
628.413	1	19
628.583	1	25
628.752	1	35
628.922	1	18
629.091	1	21
629.261	1	29
629.431	1	37
629.600	1	50
629.770	1	25
629.940	1	34
630.109	1	26
630.279	1	23
630.448	1	41
630.618	1	45
630.788	1	28
630.957	1	32
631.127	1	39
631.297	1	20
631.466	1	30
631.636	1	27
631.805	1	39
631.975	1	28
632.145	1	44
632.314	1	30
632.484	1	26
632.653	1	23
632.823	1	34
632.993	1	33
633.162	1	28
633.332	1	23
633.501	1	20
633.671	1	30
633.841	1	38
634.010	1	39
634.180	1	29
634.349	1	33
634.519	1	16
634.689	1	27
634.858	1	15
635.028	1	31
635.197	1	30
635.367	1	30
635.537	1	27
635.706	1	30
635.876	1	23
636.045	1	17
636.215	1	22
636.384	1	25
636.554	1	25
636.724	1	26
636.893	1	20
637.063	1	37
637.232	1	30
637.402	1	25
637.572	1	24
637.741	1	34
637.911	1	34
638.080	1	23
638.250	1	20
638.419	1	29
638.589	1	30
638.759	1	20
638.928	1	23
639.098	1	26
639.267	1	23
639.437	1	30
639.606	1	33
639.776	1	19
639.946	1	22
640.115	1	27
640.285	1	34
640.454	1	16
640.624	1	34
640.793	1	26
640.963	1	24
641.132	1	16
641.302	1	27
641.472	1	13
641.641	1	26
641.811	1	16
641.980	1	18
642.150	1	19
642.319	1	27
642.489	1	19
642.659	1	22
642.828	1	39
642.998	1	20
643.167	1	24
643.337	1	26
643.506	1	37
643.676	1	18
643.845	1	24
644.015	1	26
644.184	1	24
644.354	1	34
644.524	1	21
644.693	1	19
644.863	1	28
645.032	1	26
645.202	1	13
645.371	1	30
645.541	1	36
645.710	1	25
645.880	1	30
646.049	1	32
646.219	1	20
646.388	1	38
646.558	1	26
646.728	1	25
646.897	1	17
647.067	1	14
647.236	1	11
647.406	1	19
647.575	1	21
647.745	1	15
647.914	1	19
648.084	1	15
648.253	1	17
648.423	1	17
648.592	1	23
648.762	1	18
648.931	1	31
649.101	1	26
649.270	1	24
649.440	1	22
649.610	1	19
649.779	1	32
649.949	1	22
650.118	1	30
650.288	1	23
650.457	1	29
650.627	1	21
650.796	1	18
650.966	1	33
651.135	1	39
651.305	1	23
651.474	1	17
651.644	1	21
651.813	1	24
651.983	1	13
652.152	1	18
652.322	1	22
652.491	1	33
652.661	1	24
652.830	1	30
653.000	1	16
653.169	1	22
653.339	1	22
653.508	1	27
653.678	1	12
653.847	1	32
654.017	1	35
654.186	1	25
654.356	1	27
654.525	1	20
654.695	1	22
654.864	1	11
655.034	1	17
655.203	1	32
655.373	1	19
655.542	1	31
655.712	1	16
655.881	1	13
656.051	1	12
656.220	1	31
656.390	1	15
656.559	1	11
656.729	1	24
656.898	1	13
657.068	1	30
657.237	1	30
657.406	1	21
657.576	1	16
657.745	1	28
657.915	1	24
658.084	1	21
658.254	1	15
658.423	1	19
658.593	1	23
658.762	1	4
658.932	1	24
659.101	1	29
659.271	1	20
659.440	1	14
659.610	1	18
659.779	1	23
659.949	1	12
660.118	1	18
660.288	1	17
660.457	1	19
660.626	1	14
660.796	1	27
660.965	1	42
661.135	1	10
661.304	1	21
661.474	1	27
661.643	1	20
661.813	1	21
661.982	1	11
662.152	1	12
662.321	1	19
662.491	1	20
662.660	1	11
662.829	1	8
662.999	1	14
663.168	1	15
663.338	1	26
663.507	1	13
663.677	1	16
663.846	1	18
664.016	1	7
664.185	1	19
664.354	1	17
664.524	1	9
664.693	1	17
664.863	1	13
665.032	1	21
665.202	1	19
665.371	1	18
665.541	1	22
665.710	1	15
665.879	1	10
666.049	1	21
666.218	1	15
666.388	1	22
666.557	1	6
666.727	1	17
666.896	1	12
667.065	1	15
667.235	1	15
667.404	1	20
667.574	1	25
667.743	1	15
667.913	1	9
668.082	1	15
668.251	1	18
668.421	1	9
668.590	1	19
668.760	1	13
668.929	1	21
669.099	1	24
669.268	1	10
669.437	1	11
669.607	1	24
669.776	1	7
669.946	1	11
670.115	1	14
670.285	1	12
670.454	1	5
670.623	1	20
670.793	1	24
670.962	1	25
671.132	1	20
671.301	1	11
671.470	1	16
671.640	1	18
671.809	1	26
671.979	1	19
672.148	1	17
672.317	1	11
672.487	1	27
672.656	1	14
672.826	1	25
672.995	1	10
673.164	1	13
673.334	1	11
673.503	1	12
673.673	1	11
673.842	1	8
674.011	1	15
674.181	1	13
674.350	1	23
674.520	1	13
674.689	1	25
674.858	1	5
675.028	1	23
675.197	1	20
675.367	1	14
675.536	1	12
675.705	1	8
675.875	1	31
676.044	1	14
676.214	1	14
676.383	1	28
676.552	1	4
676.722	1	19
676.891	1	7
677.060	1	1
677.230	1	9
677.399	1	15
677.569	1	15
677.738	1	7
677.907	1	19
678.077	1	6
678.246	1	17
678.416	1	10
678.585	1	4
678.754	1	19
678.924	1	10
679.093	1	12
679.262	1	18
679.432	1	24
679.601	1	16
679.771	1	15
679.940	1	24
680.109	1	24
680.279	1	11
680.448	1	10
680.617	1	21
680.787	1	21
680.956	1	20
681.125	1	11
681.295	1	22
681.464	1	17
681.634	1	13
681.803	1	19
681.972	1	14
682.142	1	17
682.311	1	13
682.480	1	25
682.650	1	21
682.819	1	6
682.988	1	29
683.158	1	13
683.327	1	14
683.496	1	20
683.666	1	-2
683.835	1	15
684.004	1	20
684.174	1	21
684.343	1	24
684.512	1	25
684.682	1	26
684.851	1	36
685.021	1	18
685.190	1	22
685.359	1	30
685.529	1	12
685.698	1	17
685.867	1	24
686.037	1	18
686.206	1	27
686.375	1	31
686.545	1	19
686.714	1	26
686.883	1	22
687.053	1	20
687.222	1	4
687.391	1	22
687.561	1	8
687.730	1	22
687.899	1	24
688.069	1	19
688.238	1	30
688.407	1	20
688.577	1	23
688.746	1	23
