340.368	1	1
340.539	1	-1
340.710	1	-4
340.881	1	-3
341.052	1	-1
341.223	1	10
341.394	1	0
341.565	1	-2
341.737	1	-2
341.908	1	6
342.079	1	6
342.250	1	-8
342.421	1	-4
342.592	1	12
342.763	1	-1
342.934	1	3
343.105	1	-1
343.276	1	-5
343.447	1	-1
343.618	1	-16
343.789	1	6
343.960	1	1
344.131	1	10
344.302	1	-3
344.473	1	2
344.644	1	6
344.815	1	-2
344.986	1	12
345.157	1	1
345.328	1	8
345.499	1	9
345.670	1	5
345.841	1	4
346.012	1	3
346.183	1	-11
346.354	1	6
346.526	1	-1
346.697	1	-1
346.868	1	6
347.039	1	9
347.210	1	6
347.381	1	11
347.552	1	12
347.723	1	6
347.894	1	0
348.065	1	5
348.236	1	-8
348.407	1	5
348.578	1	3
348.749	1	-3
348.920	1	9
349.091	1	8
349.262	1	3
349.433	1	17
349.604	1	5
349.775	1	0
349.946	1	3
350.117	1	12
350.288	1	0
350.459	1	4
350.630	1	-1
350.801	1	8
350.972	1	8
351.143	1	18
351.314	1	-4
351.485	1	2
351.656	1	8
351.827	1	8
351.998	1	17
352.169	1	7
352.340	1	10
352.511	1	2
352.682	1	16
352.853	1	0
353.024	1	10
353.195	1	10
353.366	1	4
353.537	1	-1
353.708	1	10
353.879	1	3
354.050	1	3
354.221	1	1
354.392	1	11
354.563	1	9
354.734	1	11
354.905	1	9
355.076	1	3
355.247	1	0
355.418	1	0
355.589	1	9
355.760	1	5
355.931	1	9
356.102	1	10
356.273	1	16
356.444	1	10
356.615	1	8
356.785	1	2
356.956	1	10
357.127	1	11
357.298	1	10
357.469	1	16
357.640	1	8
357.811	1	20
357.982	1	16
358.153	1	6
358.324	1	11
358.495	1	18
358.666	1	15
358.837	1	4
359.008	1	19
359.179	1	6
359.350	1	11
359.521	1	14
359.692	1	11
359.863	1	5
360.034	1	9
360.205	1	22
360.376	1	12
360.547	1	19
360.718	1	12
360.889	1	15
361.060	1	24
361.231	1	26
361.401	1	17
361.572	1	15
361.743	1	18
361.914	1	28
362.085	1	15
362.256	1	27
362.427	1	15
362.598	1	24
362.769	1	29
362.940	1	11
363.111	1	42
363.282	1	20
363.453	1	26
363.624	1	35
363.795	1	26
363.966	1	34
364.137	1	26
364.308	1	27
364.478	1	44
364.649	1	38
364.820	1	27
364.991	1	34
365.162	1	39
365.333	1	33
365.504	1	33
365.675	1	53
365.846	1	40
366.017	1	50
366.188	1	41
366.359	1	49
366.530	1	42
366.701	1	45
366.871	1	48
367.042	1	48
367.213	1	29
367.384	1	58
367.555	1	41
367.726	1	64
367.897	1	68
368.068	1	44
368.239	1	67
368.410	1	53
368.581	1	62
368.752	1	69
368.923	1	56
369.093	1	57
369.264	1	64
369.435	1	65
369.606	1	68
369.777	1	63
369.948	1	83
370.119	1	79
370.290	1	66
370.461	1	75
370.632	1	81
370.803	1	86
370.973	1	64
371.144	1	83
371.315	1	78
371.486	1	67
371.657	1	79
371.828	1	85
371.999	1	89
372.170	1	83
372.341	1	88
372.512	1	78
372.682	1	86
372.853	1	74
373.024	1	90
373.195	1	87
373.366	1	92
373.537	1	98
373.708	1	84
373.879	1	99
374.050	1	108
374.220	1	87
374.391	1	88
374.562	1	90
374.733	1	90
374.904	1	83
375.075	1	88
375.246	1	77
375.417	1	87
375.588	1	91
375.758	1	86
375.929	1	83
376.100	1	96
376.271	1	72
376.442	1	78
376.613	1	83
376.784	1	75
376.955	1	71
377.125	1	78
377.296	1	76
377.467	1	71
377.638	1	67
377.809	1	70
377.980	1	57
378.151	1	63
378.321	1	77
378.492	1	63
378.663	1	59
378.834	1	75
379.005	1	61
379.176	1	59
379.347	1	68
379.518	1	65
379.688	1	72
379.859	1	66
380.030	1	56
380.201	1	65
380.372	1	61
380.543	1	56
380.714	1	71
380.884	1	63
381.055	1	41
381.226	1	54
381.397	1	50
381.568	1	52
381.739	1	57
381.910	1	45
382.080	1	50
382.251	1	46
382.422	1	52
382.593	1	45
382.764	1	35
382.935	1	38
383.105	1	40
383.276	1	38
383.447	1	52
383.618	1	31
383.789	1	46
383.960	1	42
384.130	1	39
384.301	1	39
384.472	1	40
384.643	1	42
384.814	1	36
384.985	1	42
385.156	1	47
385.326	1	36
385.497	1	33
385.668	1	48
385.839	1	39
386.010	1	38
386.180	1	34
386.351	1	35
386.522	1	16
386.693	1	29
386.864	1	29
387.035	1	33
387.205	1	38
387.376	1	33
387.547	1	15
387.718	1	40
387.889	1	34
388.060	1	37
388.230	1	30
388.401	1	25
388.572	1	25
388.743	1	29
388.914	1	26
389.084	1	19
389.255	1	20
389.426	1	19
389.597	1	17
389.768	1	37
389.939	1	32
390.109	1	18
390.280	1	20
390.451	1	18
390.622	1	26
390.793	1	29
390.963	1	8
391.134	1	37
391.305	1	22
391.476	1	19
391.647	1	20
391.817	1	24
391.988	1	25
392.159	1	8
392.330	1	19
392.501	1	21
392.671	1	17
392.842	1	7
393.013	1	28
393.184	1	21
393.355	1	20
393.525	1	28
393.696	1	20
393.867	1	24
394.038	1	22
394.208	1	12
394.379	1	21
394.550	1	19
394.721	1	14
394.892	1	39
395.062	1	28
395.233	1	2
395.404	1	19
395.575	1	27
395.746	1	7
395.916	1	20
396.087	1	13
396.258	1	17
396.429	1	10
396.599	1	16
396.770	1	3
396.941	1	13
397.112	1	5
397.283	1	14
397.453	1	7
397.624	1	11
397.795	1	12
397.966	1	17
398.136	1	15
398.307	1	20
398.478	1	16
398.649	1	8
398.819	1	5
398.990	1	14
399.161	1	9
399.332	1	8
399.503	1	10
399.673	1	13
399.844	1	12
400.015	1	6
400.186	1	12
400.356	1	17
400.527	1	4
400.698	1	13
400.869	1	11
401.039	1	21
401.210	1	18
401.381	1	18
401.552	1	8
401.722	1	11
401.893	1	-3
402.064	1	4
402.235	1	18
402.405	1	17
402.576	1	19
402.747	1	6
402.918	1	9
403.088	1	2
403.259	1	16
403.430	1	7
403.601	1	8
403.771	1	11
403.942	1	-1
404.113	1	2
404.284	1	12
404.454	1	5
404.625	1	25
404.796	1	7
404.967	1	13
405.137	1	-1
405.308	1	3
405.479	1	6
405.649	1	13
405.820	1	10
405.991	1	10
406.162	1	13
406.332	1	15
406.503	1	0
406.674	1	12
406.845	1	8
407.015	1	12
407.186	1	10
407.357	1	4
407.527	1	7
407.698	1	6
407.869	1	8
408.040	1	7
408.210	1	10
408.381	1	4
408.552	1	10
408.722	1	-6
408.893	1	10
409.064	1	11
409.235	1	5
409.405	1	-12
409.576	1	9
409.747	1	9
409.917	1	12
410.088	1	7
410.259	1	-3
410.430	1	13
410.600	1	2
410.771	1	-5
410.942	1	-7
411.112	1	8
411.283	1	14
411.454	1	5
411.625	1	5
411.795	1	-4
411.966	1	7
412.137	1	14
412.307	1	-1
412.478	1	8
412.649	1	1
412.819	1	6
412.990	1	-1
413.161	1	6
413.332	1	11
413.502	1	8
413.673	1	-1
413.844	1	6
414.014	1	10
414.185	1	5
414.356	1	12
414.526	1	8
414.697	1	12
414.868	1	18
415.038	1	10
415.209	1	3
415.380	1	3
415.550	1	7
415.721	1	-3
415.892	1	8
416.063	1	11
416.233	1	10
416.404	1	4
416.575	1	13
416.745	1	7
416.916	1	4
417.087	1	12
417.257	1	1
417.428	1	-6
417.599	1	6
417.769	1	8
417.940	1	7
418.111	1	9
418.281	1	8
418.452	1	-4
418.623	1	4
418.793	1	16
418.964	1	6
419.135	1	4
419.305	1	-3
419.476	1	-2
419.647	1	1
419.817	1	2
419.988	1	6
420.159	1	13
420.329	1	17
420.500	1	6
420.671	1	6
420.841	1	5
421.012	1	11
421.183	1	4
421.353	1	4
421.524	1	2
421.695	1	4
421.865	1	5
422.036	1	17
422.206	1	1
422.377	1	-5
422.548	1	-3
422.718	1	14
422.889	1	1
423.060	1	4
423.230	1	2
423.401	1	11
423.572	1	11
423.742	1	11
423.913	1	2
424.084	1	13
424.254	1	1
424.425	1	2
424.595	1	0
424.766	1	1
424.937	1	-2
425.107	1	1
425.278	1	10
425.449	1	8
425.619	1	0
425.790	1	1
425.961	1	4
426.131	1	6
426.302	1	8
426.472	1	-7
426.643	1	11
426.814	1	15
426.984	1	9
427.155	1	0
427.326	1	7
427.496	1	4
427.667	1	7
427.837	1	4
428.008	1	7
428.179	1	-7
428.349	1	3
428.520	1	5
428.691	1	6
428.861	1	10
429.032	1	-2
429.202	1	1
429.373	1	-5
429.544	1	-2
429.714	1	4
429.885	1	19
430.055	1	12
430.226	1	17
430.397	1	-4
430.567	1	10
430.738	1	15
430.909	1	7
431.079	1	-3
431.250	1	1
431.420	1	8
431.591	1	1
431.762	1	10
431.932	1	8
432.103	1	9
432.273	1	9
432.444	1	-4
432.615	1	2
432.785	1	6
432.956	1	3
433.126	1	0
433.297	1	2
433.468	1	-1
433.638	1	1
433.809	1	5
433.979	1	-4
434.150	1	19
434.320	1	9
434.491	1	-1
434.662	1	6
434.832	1	6
435.003	1	1
435.173	1	6
435.344	1	6
435.515	1	3
435.685	1	0
435.856	1	5
436.026	1	2
436.197	1	13
436.368	1	4
436.538	1	18
436.709	1	-5
436.879	1	1
437.050	1	3
437.220	1	22
437.391	1	17
437.562	1	0
437.732	1	8
437.903	1	11
438.073	1	-4
438.244	1	8
438.414	1	21
438.585	1	1
438.756	1	2
438.926	1	7
439.097	1	1
439.267	1	1
439.438	1	11
439.608	1	9
439.779	1	7
439.949	1	4
440.120	1	7
440.291	1	10
440.461	1	-2
440.632	1	6
440.802	1	8
440.973	1	8
441.143	1	-8
441.314	1	13
441.485	1	5
441.655	1	4
441.826	1	-3
441.996	1	9
442.167	1	1
442.337	1	4
442.508	1	14
442.678	1	4
442.849	1	1
443.019	1	4
443.190	1	0
443.361	1	6
443.531	1	5
443.702	1	5
443.872	1	13
444.043	1	0
444.213	1	14
444.384	1	-3
444.554	1	-5
444.725	1	2
444.895	1	10
445.066	1	-7
445.237	1	4
445.407	1	9
445.578	1	16
445.748	1	3
445.919	1	13
446.089	1	12
446.260	1	-2
446.430	1	9
446.601	1	5
446.771	1	7
446.942	1	4
447.112	1	6
447.283	1	20
447.453	1	1
447.624	1	-4
447.794	1	13
447.965	1	-1
448.135	1	2
448.306	1	-5
448.477	1	6
448.647	1	13
448.818	1	4
448.988	1	2
449.159	1	4
449.329	1	6
449.500	1	3
449.670	1	5
449.841	1	10
450.011	1	12
450.182	1	6
450.352	1	6
450.523	1	1
450.693	1	-1
450.864	1	16
451.034	1	5
451.205	1	11
451.375	1	0
451.546	1	4
451.716	1	3
451.887	1	-1
452.057	1	1
452.228	1	14
452.398	1	-6
452.569	1	7
452.739	1	15
452.910	1	-3
453.080	1	11
453.251	1	8
453.421	1	-2
453.592	1	4
453.762	1	4
453.933	1	4
454.103	1	12
454.274	1	0
454.444	1	4
454.615	1	2
454.785	1	-1
454.956	1	2
455.126	1	9
455.297	1	8
455.467	1	-1
455.638	1	-2
455.808	1	9
455.979	1	5
456.149	1	4
456.320	1	4
456.490	1	-1
456.661	1	1
456.831	1	-6
457.001	1	8
457.172	1	7
457.342	1	11
457.513	1	7
457.683	1	8
457.854	1	5
458.024	1	1
458.195	1	-6
458.365	1	3
458.536	1	4
458.706	1	-1
458.877	1	3
459.047	1	0
459.218	1	6
459.388	1	3
459.559	1	8
459.729	1	17
459.899	1	10
460.070	1	14
460.240	1	4
460.411	1	0
460.581	1	6
460.752	1	3
460.922	1	7
461.093	1	6
461.263	1	2
461.434	1	3
461.604	1	0
461.775	1	3
461.945	1	-1
462.115	1	10
462.286	1	7
462.456	1	12
462.627	1	5
462.797	1	9
462.968	1	12
463.138	1	14
463.309	1	7
463.479	1	6
463.649	1	-1
463.820	1	-6
463.990	1	-3
464.161	1	0
464.331	1	-5
464.502	1	7
464.672	1	11
464.843	1	14
465.013	1	6
465.183	1	-4
465.354	1	6
465.524	1	2
465.695	1	6
465.865	1	1
466.036	1	5
466.206	1	2
466.376	1	8
466.547	1	-3
466.717	1	-3
466.888	1	-1
467.058	1	-1
467.229	1	8
467.399	1	10
467.569	1	14
467.740	1	-9
467.910	1	-3
468.081	1	7
468.251	1	13
468.422	1	-4
468.592	1	9
468.762	1	11
468.933	1	3
469.103	1	1
469.274	1	7
469.444	1	8
469.614	1	7
469.785	1	0
469.955	1	4
470.126	1	-1
470.296	1	6
470.467	1	5
470.637	1	10
470.807	1	2
470.978	1	3
471.148	1	20
471.319	1	3
471.489	1	10
471.659	1	1
471.830	1	4
472.000	1	7
472.171	1	10
472.341	1	-1
472.511	1	8
472.682	1	11
472.852	1	13
473.023	1	1
473.193	1	0
473.363	1	2
473.534	1	5
473.704	1	1
473.875	1	10
474.045	1	0
474.215	1	9
474.386	1	9
474.556	1	10
474.727	1	7
474.897	1	-4
475.067	1	9
475.238	1	6
475.408	1	6
475.578	1	8
475.749	1	13
475.919	1	5
476.090	1	6
476.260	1	1
476.430	1	-3
476.601	1	0
476.771	1	5
476.942	1	-1
477.112	1	10
477.282	1	4
477.453	1	6
477.623	1	10
477.793	1	1
477.964	1	-6
478.134	1	9
478.305	1	-7
478.475	1	-2
478.645	1	1
478.816	1	17
478.986	1	7
479.156	1	-2
479.327	1	-8
479.497	1	0
479.667	1	1
479.838	1	11
480.008	1	7
480.179	1	17
480.349	1	7
480.519	1	4
480.690	1	1
480.860	1	11
481.030	1	-2
481.201	1	1
481.371	1	7
481.541	1	0
481.712	1	15
481.882	1	2
482.053	1	8
482.223	1	4
482.393	1	8
482.564	1	-2
482.734	1	8
482.904	1	8
483.075	1	7
483.245	1	0
483.415	1	0
483.586	1	0
483.756	1	2
483.926	1	-1
484.097	1	7
484.267	1	-5
484.437	1	5
484.608	1	-2
484.778	1	7
484.948	1	-9
485.119	1	8
485.289	1	-4
485.459	1	6
485.630	1	13
485.800	1	3
485.970	1	-7
486.141	1	1
486.311	1	3
486.481	1	-10
486.652	1	10
486.822	1	8
486.992	1	1
487.163	1	8
487.333	1	3
487.503	1	-5
487.674	1	3
487.844	1	3
488.014	1	5
488.185	1	16
488.355	1	-8
488.525	1	1
488.696	1	4
488.866	1	10
489.036	1	1
489.207	1	0
489.377	1	1
489.547	1	4
489.718	1	9
489.888	1	11
490.058	1	5
490.228	1	11
490.399	1	-7
490.569	1	6
490.739	1	9
490.910	1	8
491.080	1	5
491.250	1	11
491.421	1	4
491.591	1	13
491.761	1	13
491.932	1	2
492.102	1	9
492.272	1	5
492.442	1	6
492.613	1	12
492.783	1	12
492.953	1	9
493.124	1	7
493.294	1	1
493.464	1	12
493.635	1	1
493.805	1	-8
493.975	1	0
494.145	1	3
494.316	1	9
494.486	1	-6
494.656	1	11
494.827	1	1
494.997	1	-1
495.167	1	1
495.337	1	8
495.508	1	10
495.678	1	7
495.848	1	3
496.019	1	0
496.189	1	11
496.359	1	3
496.529	1	-6
496.700	1	6
496.870	1	10
497.040	1	0
497.211	1	3
497.381	1	-4
497.551	1	-16
497.721	1	13
497.892	1	9
498.062	1	11
498.232	1	-3
498.403	1	4
498.573	1	11
498.743	1	14
498.913	1	9
499.084	1	-2
499.254	1	8
499.424	1	9
499.594	1	8
499.765	1	-3
499.935	1	6
500.105	1	-6
500.275	1	-7
500.446	1	6
500.616	1	9
500.786	1	4
500.956	1	6
501.127	1	-5
501.297	1	10
501.467	1	-3
501.638	1	-3
501.808	1	-11
501.978	1	-2
502.148	1	7
502.319	1	7
502.489	1	-2
502.659	1	-6
502.829	1	16
503.000	1	4
503.170	1	10
503.340	1	13
503.510	1	-7
503.681	1	0
503.851	1	4
504.021	1	6
504.191	1	0
504.362	1	1
504.532	1	0
504.702	1	6
504.872	1	-6
505.042	1	-4
505.213	1	4
505.383	1	0
505.553	1	11
505.723	1	3
505.894	1	11
506.064	1	3
506.234	1	11
506.404	1	-6
506.575	1	-5
506.745	1	-6
506.915	1	5
507.085	1	5
507.256	1	9
507.426	1	3
507.596	1	3
507.766	1	6
507.936	1	-1
508.107	1	2
508.277	1	-3
508.447	1	-2
508.617	1	1
508.788	1	-3
508.958	1	-2
509.128	1	-2
509.298	1	-2
509.468	1	-4
509.639	1	2
509.809	1	11
509.979	1	5
510.149	1	5
510.319	1	3
510.490	1	10
510.660	1	3
510.830	1	2
511.000	1	10
511.171	1	-3
511.341	1	8
511.511	1	15
511.681	1	4
511.851	1	1
512.022	1	2
512.192	1	5
512.362	1	12
512.532	1	3
512.702	1	5
512.873	1	8
513.043	1	6
513.213	1	-1
513.383	1	5
513.553	1	2
513.724	1	6
513.894	1	-4
514.064	1	-4
514.234	1	0
514.404	1	-4
514.575	1	8
514.745	1	0
514.915	1	-13
515.085	1	12
515.255	1	8
515.425	1	-1
515.596	1	-1
515.766	1	8
515.936	1	10
516.106	1	7
516.276	1	11
516.447	1	1
516.617	1	-4
516.787	1	-4
516.957	1	7
517.127	1	7
517.297	1	5
517.468	1	3
517.638	1	5
517.808	1	7
517.978	1	7
518.148	1	13
518.319	1	9
518.489	1	7
518.659	1	17
518.829	1	5
518.999	1	3
519.169	1	-1
519.340	1	-5
519.510	1	5
519.680	1	2
519.850	1	10
520.020	1	3
520.190	1	0
520.361	1	4
520.531	1	0
520.701	1	0
520.871	1	3
521.041	1	3
521.211	1	9
521.382	1	2
521.552	1	13
521.722	1	21
521.892	1	-7
522.062	1	3
522.232	1	6
522.402	1	-2
522.573	1	11
522.743	1	5
522.913	1	-1
523.083	1	5
523.253	1	5
523.423	1	15
523.593	1	-4
523.764	1	0
523.934	1	6
524.104	1	7
524.274	1	-3
524.444	1	1
524.614	1	1
524.784	1	13
524.955	1	13
525.125	1	5
525.295	1	9
525.465	1	-5
525.635	1	-2
525.805	1	9
525.975	1	-1
526.146	1	5
526.316	1	1
526.486	1	2
526.656	1	1
526.826	1	-2
526.996	1	8
527.166	1	13
527.337	1	8
527.507	1	-9
527.677	1	11
527.847	1	8
528.017	1	-7
528.187	1	4
528.357	1	-3
528.527	1	-2
528.698	1	6
528.868	1	-5
529.038	1	-2
529.208	1	2
529.378	1	5
529.548	1	-3
529.718	1	3
529.888	1	13
530.058	1	11
530.229	1	1
530.399	1	6
530.569	1	2
530.739	1	3
530.909	1	-2
531.079	1	-6
531.249	1	8
531.419	1	3
531.589	1	2
531.760	1	8
531.930	1	8
532.100	1	-3
532.270	1	6
532.440	1	-5
532.610	1	5
532.780	1	-2
532.950	1	-1
533.120	1	11
533.290	1	4
533.461	1	1
533.631	1	7
533.801	1	-7
533.971	1	-4
534.141	1	-8
534.311	1	6
534.481	1	-4
534.651	1	4
534.821	1	4
534.991	1	-8
535.162	1	13
535.332	1	-2
535.502	1	7
535.672	1	7
535.842	1	5
536.012	1	6
536.182	1	6
536.352	1	-4
536.522	1	-2
536.692	1	4
536.862	1	13
537.032	1	4
537.203	1	11
537.373	1	16
537.543	1	3
537.713	1	9
537.883	1	4
538.053	1	4
538.223	1	-3
538.393	1	-9
538.563	1	4
538.733	1	6
538.903	1	-5
539.073	1	1
539.243	1	-1
539.413	1	6
539.584	1	2
539.754	1	-4
539.924	1	7
540.094	1	-13
540.264	1	1
540.434	1	9
540.604	1	0
540.774	1	13
540.944	1	4
541.114	1	2
541.284	1	-2
541.454	1	-1
541.624	1	-5
541.794	1	10
541.964	1	3
542.134	1	5
542.305	1	12
542.475	1	8
542.645	1	3
542.815	1	9
542.985	1	2
543.155	1	-3
543.325	1	0
543.495	1	14
543.665	1	10
543.835	1	7
544.005	1	11
544.175	1	-6
544.345	1	5
544.515	1	3
544.685	1	-6
544.855	1	7
545.025	1	14
545.195	1	2
545.365	1	-3
545.535	1	8
545.705	1	-5
545.875	1	-4
546.045	1	0
546.216	1	10
546.386	1	4
546.556	1	13
546.726	1	-3
546.896	1	8
547.066	1	3
547.236	1	1
547.406	1	0
547.576	1	8
547.746	1	8
547.916	1	7
548.086	1	2
548.256	1	2
548.426	1	-4
548.596	1	5
548.766	1	7
548.936	1	1
549.106	1	0
549.276	1	-4
549.446	1	3
549.616	1	2
549.786	1	20
549.956	1	12
550.126	1	2
550.296	1	13
550.466	1	6
550.636	1	11
550.806	1	0
550.976	1	-5
551.146	1	15
551.316	1	-1
551.486	1	1
551.656	1	9
551.826	1	9
551.996	1	5
552.166	1	0
552.336	1	5
552.506	1	-3
552.676	1	7
552.846	1	8
553.016	1	10
553.186	1	0
553.356	1	-6
553.526	1	16
553.696	1	15
553.866	1	7
554.036	1	1
554.206	1	4
554.376	1	3
554.546	1	1
554.716	1	-8
554.886	1	16
555.056	1	7
555.226	1	8
555.396	1	-4
555.566	1	15
555.736	1	3
555.906	1	-1
556.076	1	12
556.246	1	-3
556.416	1	5
556.586	1	2
556.756	1	13
556.926	1	7
557.096	1	10
557.266	1	6
557.436	1	6
557.606	1	2
557.776	1	-6
557.946	1	2
558.116	1	1
558.286	1	1
558.456	1	-6
558.626	1	18
558.796	1	-1
558.966	1	14
559.136	1	4
559.306	1	5
559.476	1	-2
559.646	1	4
559.816	1	6
559.986	1	3
560.155	1	-1
560.325	1	1
560.495	1	7
560.665	1	-3
560.835	1	2
561.005	1	-4
561.175	1	2
561.345	1	-1
561.515	1	5
561.685	1	-3
561.855	1	-3
562.025	1	-1
562.195	1	10
562.365	1	-2
562.535	1	-2
562.705	1	10
562.875	1	6
563.045	1	4
563.215	1	6
563.385	1	11
563.555	1	14
563.725	1	6
563.895	1	14
564.064	1	24
564.234	1	10
564.404	1	-5
564.574	1	17
564.744	1	5
564.914	1	5
565.084	1	8
565.254	1	1
565.424	1	5
565.594	1	3
565.764	1	-3
565.934	1	4
566.104	1	-8
566.274	1	7
566.444	1	6
566.614	1	-2
566.783	1	2
566.953	1	13
567.123	1	0
567.293	1	9
567.463	1	6
567.633	1	3
567.803	1	-2
567.973	1	6
568.143	1	8
568.313	1	4
568.483	1	3
568.653	1	3
568.823	1	6
568.993	1	7
569.162	1	11
569.332	1	1
569.502	1	3
569.672	1	-5
569.842	1	9
570.012	1	0
570.182	1	3
570.352	1	-2
570.522	1	5
570.692	1	-1
570.862	1	20
571.031	1	10
571.201	1	11
571.371	1	-1
571.541	1	8
571.711	1	-1
571.881	1	9
572.051	1	11
572.221	1	7
572.391	1	3
572.561	1	13
572.731	1	-4
572.900	1	1
573.070	1	-6
573.240	1	2
573.410	1	-2
573.580	1	18
573.750	1	9
573.920	1	-6
574.090	1	-1
574.260	1	5
574.430	1	-4
574.599	1	2
574.769	1	9
574.939	1	5
575.109	1	8
575.279	1	-4
575.449	1	6
575.619	1	6
575.789	1	1
575.959	1	0
576.128	1	11
576.298	1	5
576.468	1	-4
576.638	1	-2
576.808	1	6
576.978	1	1
577.148	1	-5
577.318	1	-7
577.487	1	-7
577.657	1	6
577.827	1	1
577.997	1	8
578.167	1	14
578.337	1	-2
578.507	1	10
578.677	1	1
578.846	1	12
579.016	1	13
579.186	1	11
579.356	1	1
579.526	1	10
579.696	1	-1
579.866	1	5
580.036	1	6
580.205	1	4
580.375	1	12
580.545	1	1
580.715	1	4
580.885	1	4
581.055	1	-1
581.225	1	-1
581.394	1	-3
581.564	1	-8
581.734	1	3
581.904	1	5
582.074	1	12
582.244	1	12
582.414	1	12
582.583	1	1
582.753	1	-2
582.923	1	7
583.093	1	4
583.263	1	-5
583.433	1	1
583.603	1	3
583.772	1	8
583.942	1	13
584.112	1	8
584.282	1	4
584.452	1	-1
584.622	1	10
584.791	1	7
584.961	1	7
585.131	1	8
585.301	1	-1
585.471	1	1
585.641	1	4
585.811	1	7
585.980	1	7
586.150	1	9
586.320	1	5
586.490	1	-8
586.660	1	0
586.830	1	8
586.999	1	-4
587.169	1	7
587.339	1	0
587.509	1	8
587.679	1	4
587.849	1	7
588.018	1	-11
588.188	1	4
588.358	1	2
588.528	1	4
588.698	1	-4
588.867	1	9
589.037	1	12
589.207	1	-10
589.377	1	5
589.547	1	3
589.717	1	2
589.886	1	-2
590.056	1	0
590.226	1	7
590.396	1	7
590.566	1	8
590.735	1	-8
590.905	1	11
591.075	1	9
591.245	1	10
591.415	1	7
591.585	1	0
591.754	1	-6
591.924	1	5
592.094	1	0
592.264	1	6
592.434	1	15
592.603	1	5
592.773	1	16
592.943	1	-6
593.113	1	-12
593.283	1	1
593.452	1	1
593.622	1	3
593.792	1	-1
593.962	1	12
594.132	1	-1
594.301	1	9
594.471	1	1
594.641	1	8
594.811	1	-7
594.981	1	3
595.150	1	-2
595.320	1	0
595.490	1	-5
595.660	1	2
595.829	1	10
595.999	1	-11
596.169	1	5
596.339	1	-8
596.509	1	3
596.678	1	-1
596.848	1	10
597.018	1	3
597.188	1	0
597.358	1	3
597.527	1	12
597.697	1	-2
597.867	1	8
598.037	1	-3
598.206	1	1
598.376	1	0
598.546	1	-4
598.716	1	2
598.885	1	12
599.055	1	12
599.225	1	10
599.395	1	1
599.565	1	7
599.734	1	3
599.904	1	9
600.074	1	7
600.244	1	6
600.413	1	12
600.583	1	-5
600.753	1	5
600.923	1	3
601.092	1	7
601.262	1	-9
601.432	1	12
601.602	1	16
601.771	1	0
601.941	1	6
602.111	1	1
602.281	1	14
602.451	1	2
602.620	1	-1
602.790	1	-8
602.960	1	-7
603.130	1	0
603.299	1	6
603.469	1	-1
603.639	1	-2
603.809	1	8
603.978	1	4
604.148	1	4
604.318	1	-2
604.487	1	-1
604.657	1	2
604.827	1	11
604.997	1	1
605.166	1	-1
605.336	1	6
605.506	1	-3
605.676	1	3
605.845	1	-3
606.015	1	-4
606.185	1	10
606.355	1	9
606.524	1	5
606.694	1	-1
606.864	1	13
607.034	1	5
607.203	1	7
607.373	1	-1
607.543	1	4
607.712	1	6
607.882	1	-13
608.052	1	6
608.222	1	4
608.391	1	4
608.561	1	11
608.731	1	8
608.901	1	8
609.070	1	5
609.240	1	2
609.410	1	5
609.579	1	-7
609.749	1	-3
609.919	1	7
610.089	1	14
610.258	1	3
610.428	1	5
610.598	1	3
610.767	1	-9
610.937	1	3
611.107	1	1
611.277	1	-3
611.446	1	3
611.616	1	10
611.786	1	6
611.955	1	10
612.125	1	3
612.295	1	10
612.465	1	-4
612.634	1	12
612.804	1	15
612.974	1	-1
613.143	1	2
613.313	1	-11
613.483	1	1
613.652	1	6
613.822	1	5
613.992	1	-1
614.162	1	9
614.331	1	4
614.501	1	-2
614.671	1	9
614.840	1	4
615.010	1	7
615.180	1	6
615.349	1	2
615.519	1	10
615.689	1	18
615.858	1	1
616.028	1	3
616.198	1	17
616.368	1	2
616.537	1	6
616.707	1	11
616.877	1	2
617.046	1	5
617.216	1	8
617.386	1	0
617.555	1	2
617.725	1	5
617.895	1	7
618.064	1	3
618.234	1	1
618.404	1	-4
618.573	1	13
618.743	1	8
618.913	1	5
619.082	1	3
619.252	1	10
619.422	1	-8
619.591	1	-1
619.761	1	3
619.931	1	4
620.100	1	-3
620.270	1	3
620.440	1	5
620.609	1	1
620.779	1	3
620.949	1	7
621.118	1	-5
621.288	1	5
621.458	1	1
621.627	1	1
621.797	1	3
621.967	1	9
622.136	1	-1
622.306	1	3
622.476	1	-2
622.645	1	0
622.815	1	1
622.985	1	1
623.154	1	14
623.324	1	0
623.494	1	2
623.663	1	-1
623.833	1	11
624.002	1	-11
624.172	1	-5
624.342	1	-13
624.511	1	-2
624.681	1	14
624.851	1	8
625.020	1	0
625.190	1	8
625.360	1	-5
625.529	1	4
625.699	1	5
625.869	1	2
626.038	1	2
626.208	1	6
626.377	1	15
626.547	1	5
626.717	1	1
626.886	1	13
627.056	1	-9
627.226	1	-1
627.395	1	-4
627.565	1	8
627.735	1	3
627.904	1	-2
628.074	1	4
628.243	1	5
628.413	1	-3
628.583	1	1
628.752	1	5
628.922	1	-4
629.091	1	-7
629.261	1	1
629.431	1	14
629.600	1	10
629.770	1	-6
629.940	1	1
630.109	1	5
630.279	1	2
630.448	1	4
630.618	1	11
630.788	1	0
630.957	1	9
631.127	1	12
631.297	1	-5
631.466	1	1
631.636	1	-1
631.805	1	27
631.975	1	4
632.145	1	15
632.314	1	3
632.484	1	0
632.653	1	3
632.823	1	2
632.993	1	0
633.162	1	4
633.332	1	6
633.501	1	0
633.671	1	0
633.841	1	14
634.010	1	4
634.180	1	3
634.349	1	4
634.519	1	-15
634.689	1	4
634.858	1	-11
635.028	1	15
635.197	1	8
635.367	1	7
635.537	1	2
635.706	1	4
635.876	1	13
636.045	1	-12
636.215	1	2
636.384	1	5
636.554	1	6
636.724	1	-6
636.893	1	1
637.063	1	10
637.232	1	8
637.402	1	0
637.572	1	2
637.741	1	0
637.911	1	-5
638.080	1	6
638.250	1	5
638.419	1	4
638.589	1	5
638.759	1	3
638.928	1	2
639.098	1	0
639.267	1	4
639.437	1	-1
639.606	1	6
639.776	1	1
639.946	1	10
640.115	1	9
640.285	1	12
640.454	1	-2
640.624	1	11
640.793	1	6
640.963	1	1
641.132	1	-8
641.302	1	17
641.472	1	6
641.641	1	-1
641.811	1	17
641.980	1	3
642.150	1	-1
642.319	1	8
642.489	1	-1
642.659	1	0
642.828	1	2
642.998	1	-2
643.167	1	9
643.337	1	1
643.506	1	-1
643.676	1	3
643.845	1	-2
644.015	1	8
644.184	1	7
644.354	1	4
644.524	1	-4
644.693	1	1
644.863	1	1
645.032	1	12
645.202	1	2
645.371	1	10
645.541	1	9
645.710	1	0
645.880	1	15
646.049	1	14
646.219	1	0
646.388	1	3
646.558	1	-3
646.728	1	7
646.897	1	-3
647.067	1	2
647.236	1	0
647.406	1	4
647.575	1	5
647.745	1	-7
647.914	1	22
648.084	1	2
648.253	1	-3
648.423	1	1
648.592	1	6
648.762	1	10
648.931	1	0
649.101	1	6
649.270	1	5
649.440	1	-2
649.610	1	0
649.779	1	4
649.949	1	-1
650.118	1	7
650.288	1	14
650.457	1	12
650.627	1	-3
650.796	1	15
650.966	1	4
651.135	1	11
651.305	1	-4
651.474	1	11
651.644	1	-7
651.813	1	-1
651.983	1	1
652.152	1	0
652.322	1	3
652.491	1	15
652.661	1	12
652.830	1	2
653.000	1	5
653.169	1	2
653.339	1	6
653.508	1	0
653.678	1	1
653.847	1	16
654.017	1	11
654.186	1	6
654.356	1	-4
654.525	1	14
654.695	1	-1
654.864	1	-7
655.034	1	8
655.203	1	6
655.373	1	2
655.542	1	9
655.712	1	-4
655.881	1	5
656.051	1	-7
656.220	1	10
656.390	1	4
656.559	1	12
656.729	1	1
656.898	1	0
657.068	1	8
657.237	1	13
657.406	1	10
657.576	1	1
657.745	1	-9
657.915	1	-1
658.084	1	1
658.254	1	-4
658.423	1	2
658.593	1	5
658.762	1	3
658.932	1	7
659.101	1	8
659.271	1	1
659.440	1	9
659.610	1	8
659.779	1	-1
659.949	1	7
660.118	1	4
660.288	1	6
660.457	1	-1
660.626	1	-4
660.796	1	11
660.965	1	10
661.135	1	3
661.304	1	7
661.474	1	9
661.643	1	0
661.813	1	5
661.982	1	-4
662.152	1	2
662.321	1	7
662.491	1	1
662.660	1	-6
662.829	1	7
662.999	1	2
663.168	1	5
663.338	1	11
663.507	1	-5
663.677	1	0
663.846	1	6
664.016	1	-10
664.185	1	9
664.354	1	2
664.524	1	-1
664.693	1	12
664.863	1	2
665.032	1	9
665.202	1	16
665.371	1	3
665.541	1	8
665.710	1	10
665.879	1	9
666.049	1	13
666.218	1	5
666.388	1	5
666.557	1	5
666.727	1	4
666.896	1	0
667.065	1	6
667.235	1	-3
667.404	1	8
667.574	1	11
667.743	1	-1
667.913	1	3
668.082	1	-1
668.251	1	6
668.421	1	-11
668.590	1	4
668.760	1	3
668.929	1	6
669.099	1	5
669.268	1	-2
669.437	1	-2
669.607	1	6
669.776	1	-1
669.946	1	-2
670.115	1	-1
670.285	1	-8
670.454	1	-2
670.623	1	-4
670.793	1	-3
670.962	1	16
671.132	1	2
671.301	1	2
671.470	1	6
671.640	1	-2
671.809	1	17
671.979	1	7
672.148	1	6
672.317	1	-2
672.487	1	15
672.656	1	7
672.826	1	12
672.995	1	-5
673.164	1	14
673.334	1	0
673.503	1	-3
673.673	1	4
673.842	1	-2
674.011	1	3
674.181	1	-7
674.350	1	4
674.520	1	-1
674.689	1	6
674.858	1	11
675.028	1	18
675.197	1	2
675.367	1	-1
675.536	1	4
675.705	1	3
675.875	1	3
676.044	1	0
676.214	1	2
676.383	1	11
676.552	1	-2
676.722	1	8
676.891	1	-1
677.060	1	-3
677.230	1	-6
677.399	1	-4
677.569	1	8
677.738	1	-2
677.907	1	2
678.077	1	6
678.246	1	9
678.416	1	1
678.585	1	3
678.754	1	9
678.924	1	-9
679.093	1	9
679.262	1	6
679.432	1	1
679.601	1	3
679.771	1	-3
679.940	1	5
680.109	1	-7
680.279	1	-5
680.448	1	-8
680.617	1	9
680.787	1	9
680.956	1	8
681.125	1	5
681.295	1	9
681.464	1	2
681.634	1	9
681.803	1	2
681.972	1	6
682.142	1	-10
682.311	1	-6
682.480	1	4
682.650	1	0
682.819	1	3
682.988	1	7
683.158	1	7
683.327	1	9
683.496	1	5
683.666	1	1
683.835	1	7
684.004	1	6
684.174	1	3
684.343	1	8
684.512	1	11
684.682	1	7
684.851	1	8
685.021	1	9
685.190	1	14
685.359	1	10
685.529	1	8
685.698	1	10
685.867	1	9
686.037	1	2
686.206	1	15
686.375	1	13
686.545	1	-5
686.714	1	1
686.883	1	7
687.053	1	9
687.222	1	7
687.391	1	6
687.561	1	15
687.730	1	-1
687.899	1	5
688.069	1	7
688.238	1	8
688.407	1	8
688.577	1	12
688.746	1	-3
