340.368	1	-1
340.539	1	-2
340.710	1	-4
340.881	1	-6
341.052	1	-7
341.223	1	7
341.394	1	3
341.565	1	-9
341.737	1	4
341.908	1	2
342.079	1	7
342.250	1	-4
342.421	1	-10
342.592	1	6
342.763	1	-4
342.934	1	1
343.105	1	-14
343.276	1	-4
343.447	1	-5
343.618	1	-10
343.789	1	-7
343.960	1	-2
344.131	1	-2
344.302	1	1
344.473	1	6
344.644	1	9
344.815	1	-8
344.986	1	6
345.157	1	-4
345.328	1	6
345.499	1	8
345.670	1	-12
345.841	1	0
346.012	1	-2
346.183	1	-2
346.354	1	6
346.526	1	2
346.697	1	-8
346.868	1	2
347.039	1	2
347.210	1	8
347.381	1	5
347.552	1	-1
347.723	1	5
347.894	1	-2
348.065	1	11
348.236	1	-6
348.407	1	1
348.578	1	-1
348.749	1	-4
348.920	1	-8
349.091	1	8
349.262	1	-1
349.433	1	9
349.604	1	4
349.775	1	-1
349.946	1	-3
350.117	1	8
350.288	1	2
350.459	1	-2
350.630	1	-4
350.801	1	6
350.972	1	6
351.143	1	10
351.314	1	-9
351.485	1	-10
351.656	1	-3
351.827	1	-10
351.998	1	3
352.169	1	-5
352.340	1	10
352.511	1	2
352.682	1	9
352.853	1	-1
353.024	1	6
353.195	1	5
353.366	1	4
353.537	1	2
353.708	1	-2
353.879	1	-4
354.050	1	-7
354.221	1	-1
354.392	1	-3
354.563	1	-7
354.734	1	-3
354.905	1	6
355.076	1	-1
355.247	1	-7
355.418	1	-3
355.589	1	-11
355.760	1	4
355.931	1	1
356.102	1	0
356.273	1	3
356.444	1	-2
356.615	1	-3
356.785	1	-8
356.956	1	2
357.127	1	2
357.298	1	6
357.469	1	-1
357.640	1	0
357.811	1	2
357.982	1	8
358.153	1	-2
358.324	1	4
358.495	1	0
358.666	1	8
358.837	1	11
359.008	1	4
359.179	1	6
359.350	1	-3
359.521	1	1
359.692	1	6
359.863	1	-3
360.034	1	0
360.205	1	5
360.376	1	-4
360.547	1	3
360.718	1	0
360.889	1	7
361.060	1	4
361.231	1	4
361.401	1	-6
361.572	1	-4
361.743	1	-6
361.914	1	5
362.085	1	3
362.256	1	2
362.427	1	0
362.598	1	7
362.769	1	4
362.940	1	-6
363.111	1	5
363.282	1	3
363.453	1	-1
363.624	1	13
363.795	1	-2
363.966	1	7
364.137	1	-5
364.308	1	1
364.478	1	-3
364.649	1	0
364.820	1	3
364.991	1	0
365.162	1	7
365.333	1	-2
365.504	1	0
365.675	1	13
365.846	1	2
366.017	1	3
366.188	1	1
366.359	1	9
366.530	1	6
366.701	1	4
366.871	1	3
367.042	1	6
367.213	1	3
367.384	1	15
367.555	1	-5
367.726	1	15
367.897	1	9
368.068	1	-6
368.239	1	6
368.410	1	2
368.581	1	6
368.752	1	11
368.923	1	-1
369.093	1	4
369.264	1	-1
369.435	1	7
369.606	1	8
369.777	1	9
369.948	1	10
370.119	1	10
370.290	1	4
370.461	1	5
370.632	1	16
370.803	1	5
370.973	1	-4
371.144	1	10
371.315	1	2
371.486	1	7
371.657	1	6
371.828	1	6
371.999	1	15
372.170	1	10
372.341	1	6
372.512	1	7
372.682	1	7
372.853	1	7
373.024	1	4
373.195	1	16
373.366	1	6
373.537	1	17
373.708	1	7
373.879	1	-2
374.050	1	23
374.220	1	3
374.391	1	14
374.562	1	-5
374.733	1	-1
374.904	1	11
375.075	1	5
375.246	1	9
375.417	1	11
375.588	1	13
375.758	1	7
375.929	1	13
376.100	1	6
376.271	1	1
376.442	1	2
376.613	1	4
376.784	1	3
376.955	1	0
377.125	1	10
377.296	1	14
377.467	1	1
377.638	1	-1
377.809	1	11
377.980	1	0
378.151	1	6
378.321	1	8
378.492	1	5
378.663	1	2
378.834	1	6
379.005	1	7
379.176	1	15
379.347	1	4
379.518	1	3
379.688	1	5
379.859	1	11
380.030	1	8
380.201	1	7
380.372	1	4
380.543	1	4
380.714	1	0
380.884	1	14
381.055	1	-1
381.226	1	5
381.397	1	1
381.568	1	-2
381.739	1	6
381.910	1	-1
382.080	1	4
382.251	1	14
382.422	1	9
382.593	1	3
382.764	1	-8
382.935	1	4
383.105	1	13
383.276	1	7
383.447	1	0
383.618	1	-5
383.789	1	10
383.960	1	7
384.130	1	2
384.301	1	-1
384.472	1	-3
384.643	1	2
384.814	1	6
384.985	1	16
385.156	1	11
385.326	1	-5
385.497	1	4
385.668	1	9
385.839	1	-4
386.010	1	16
386.180	1	-2
386.351	1	17
386.522	1	-9
386.693	1	-4
386.864	1	1
387.035	1	3
387.205	1	5
387.376	1	-4
387.547	1	-6
387.718	1	4
387.889	1	6
388.060	1	8
388.230	1	-9
388.401	1	0
388.572	1	1
388.743	1	0
388.914	1	8
389.084	1	6
389.255	1	7
389.426	1	0
389.597	1	7
389.768	1	6
389.939	1	-2
390.109	1	-10
390.280	1	6
390.451	1	4
390.622	1	9
390.793	1	8
390.963	1	0
391.134	1	4
391.305	1	9
391.476	1	1
391.647	1	6
391.817	1	0
391.988	1	3
392.159	1	-4
392.330	1	1
392.501	1	-3
392.671	1	9
392.842	1	-2
393.013	1	7
393.184	1	11
393.355	1	-8
393.525	1	3
393.696	1	7
393.867	1	-7
394.038	1	2
394.208	1	2
394.379	1	-7
394.550	1	-3
394.721	1	7
394.892	1	15
395.062	1	8
395.233	1	-3
395.404	1	-8
395.575	1	7
395.746	1	5
395.916	1	-4
396.087	1	-8
396.258	1	5
396.429	1	2
396.599	1	-3
396.770	1	-2
396.941	1	3
397.112	1	0
397.283	1	-1
397.453	1	11
397.624	1	9
397.795	1	8
397.966	1	8
398.136	1	1
398.307	1	3
398.478	1	-4
398.649	1	1
398.819	1	3
398.990	1	-2
399.161	1	10
399.332	1	4
399.503	1	0
399.673	1	0
399.844	1	-9
400.015	1	1
400.186	1	-2
400.356	1	3
400.527	1	0
400.698	1	6
400.869	1	-2
401.039	1	3
401.210	1	9
401.381	1	1
401.552	1	-1
401.722	1	2
401.893	1	-2
402.064	1	-5
402.235	1	2
402.405	1	3
402.576	1	6
402.747	1	-4
402.918	1	4
403.088	1	-6
403.259	1	-9
403.430	1	-6
403.601	1	-1
403.771	1	13
403.942	1	-8
404.113	1	-3
404.284	1	8
404.454	1	4
404.625	1	4
404.796	1	-3
404.967	1	-3
405.137	1	-6
405.308	1	4
405.479	1	2
405.649	1	-1
405.820	1	6
405.991	1	-2
406.162	1	2
406.332	1	10
406.503	1	1
406.674	1	2
406.845	1	-5
407.015	1	7
407.186	1	-5
407.357	1	4
407.527	1	-3
407.698	1	-2
407.869	1	6
408.040	1	1
408.210	1	2
408.381	1	0
408.552	1	8
408.722	1	-15
408.893	1	-9
409.064	1	2
409.235	1	6
409.405	1	-8
409.576	1	0
409.747	1	-1
409.917	1	3
410.088	1	5
410.259	1	-9
410.430	1	-2
410.600	1	-5
410.771	1	-5
410.942	1	-2
411.112	1	1
411.283	1	-1
411.454	1	-10
411.625	1	1
411.795	1	-1
411.966	1	-3
412.137	1	2
412.307	1	-14
412.478	1	1
412.649	1	-1
412.819	1	6
412.990	1	-1
413.161	1	10
413.332	1	5
413.502	1	3
413.673	1	2
413.844	1	-7
414.014	1	4
414.185	1	1
414.356	1	2
414.526	1	8
414.697	1	-1
414.868	1	9
415.038	1	-2
415.209	1	-4
415.380	1	-4
415.550	1	0
415.721	1	0
415.892	1	12
416.063	1	-6
416.233	1	8
416.404	1	-2
416.575	1	6
416.745	1	-6
416.916	1	-8
417.087	1	1
417.257	1	-3
417.428	1	-5
417.599	1	7
417.769	1	2
417.940	1	1
418.111	1	7
418.281	1	6
418.452	1	0
418.623	1	-8
418.793	1	0
418.964	1	1
419.135	1	1
419.305	1	0
419.476	1	-3
419.647	1	2
419.817	1	-2
419.988	1	3
420.159	1	1
420.329	1	10
420.500	1	-4
420.671	1	-7
420.841	1	2
421.012	1	5
421.183	1	8
421.353	1	-7
421.524	1	-3
421.695	1	3
421.865	1	5
422.036	1	-4
422.206	1	6
422.377	1	3
422.548	1	-3
422.718	1	0
422.889	1	-14
423.060	1	2
423.230	1	6
423.401	1	-4
423.572	1	-7
423.742	1	6
423.913	1	-4
424.084	1	7
424.254	1	6
424.425	1	1
424.595	1	-4
424.766	1	4
424.937	1	-12
425.107	1	-8
425.278	1	2
425.449	1	5
425.619	1	5
425.790	1	0
425.961	1	11
426.131	1	-2
426.302	1	3
426.472	1	-5
426.643	1	-6
426.814	1	6
426.984	1	-9
427.155	1	3
427.326	1	-2
427.496	1	6
427.667	1	-4
427.837	1	6
428.008	1	1
428.179	1	-12
428.349	1	8
428.520	1	-3
428.691	1	5
428.861	1	16
429.032	1	-9
429.202	1	-4
429.373	1	-3
429.544	1	5
429.714	1	3
429.885	1	-5
430.055	1	12
430.226	1	6
430.397	1	-10
430.567	1	15
430.738	1	1
430.909	1	9
431.079	1	-1
431.250	1	-5
431.420	1	6
431.591	1	-4
431.762	1	-4
431.932	1	8
432.103	1	3
432.273	1	0
432.444	1	-8
432.615	1	3
432.785	1	-5
432.956	1	1
433.126	1	-1
433.297	1	-2
433.468	1	-10
433.638	1	-3
433.809	1	3
433.979	1	1
434.150	1	11
434.320	1	1
434.491	1	-6
434.662	1	1
434.832	1	3
435.003	1	-1
435.173	1	-2
435.344	1	5
435.515	1	2
435.685	1	4
435.856	1	2
436.026	1	-4
436.197	1	0
436.368	1	1
436.538	1	6
436.709	1	1
436.879	1	-5
437.050	1	-1
437.220	1	15
437.391	1	6
437.562	1	6
437.732	1	-8
437.903	1	3
438.073	1	-7
438.244	1	-1
438.414	1	7
438.585	1	2
438.756	1	1
438.926	1	9
439.097	1	-3
439.267	1	-5
439.438	1	1
439.608	1	5
439.779	1	1
439.949	1	2
440.120	1	1
440.291	1	8
440.461	1	-1
440.632	1	-3
440.802	1	-1
440.973	1	6
441.143	1	-9
441.314	1	8
441.485	1	-5
441.655	1	3
441.826	1	6
441.996	1	8
442.167	1	6
442.337	1	2
442.508	1	1
442.678	1	0
442.849	1	7
443.019	1	-4
443.190	1	2
443.361	1	4
443.531	1	3
443.702	1	3
443.872	1	5
444.043	1	-4
444.213	1	7
444.384	1	-5
444.554	1	-1
444.725	1	-7
444.895	1	5
445.066	1	10
445.237	1	1
445.407	1	-4
445.578	1	6
445.748	1	3
445.919	1	7
446.089	1	-4
446.260	1	-6
446.430	1	2
446.601	1	11
446.771	1	-1
446.942	1	5
447.112	1	7
447.283	1	7
447.453	1	-8
447.624	1	-5
447.794	1	4
447.965	1	4
448.135	1	-6
448.306	1	0
448.477	1	1
448.647	1	2
448.818	1	-1
448.988	1	0
449.159	1	-1
449.329	1	-1
449.500	1	0
449.670	1	4
449.841	1	-1
450.011	1	0
450.182	1	5
450.352	1	8
450.523	1	9
450.693	1	0
450.864	1	6
451.034	1	4
451.205	1	8
451.375	1	-7
451.546	1	2
451.716	1	-7
451.887	1	2
452.057	1	0
452.228	1	5
452.398	1	0
452.569	1	-13
452.739	1	10
452.910	1	-7
453.080	1	7
453.251	1	2
453.421	1	-6
453.592	1	0
453.762	1	2
453.933	1	6
454.103	1	1
454.274	1	-1
454.444	1	-5
454.615	1	-2
454.785	1	2
454.956	1	2
455.126	1	-5
455.297	1	-3
455.467	1	-4
455.638	1	0
455.808	1	3
455.979	1	3
456.149	1	-1
456.320	1	-10
456.490	1	3
456.661	1	4
456.831	1	-4
457.001	1	7
457.172	1	-5
457.342	1	-4
457.513	1	-5
457.683	1	7
457.854	1	1
458.024	1	3
458.195	1	-6
458.365	1	0
458.536	1	-3
458.706	1	-5
458.877	1	-1
459.047	1	1
459.218	1	-6
459.388	1	-6
459.559	1	3
459.729	1	3
459.899	1	-1
460.070	1	13
460.240	1	10
460.411	1	4
460.581	1	2
460.752	1	0
460.922	1	0
461.093	1	-4
461.263	1	-4
461.434	1	-1
461.604	1	-7
461.775	1	-2
461.945	1	-6
462.115	1	-1
462.286	1	15
462.456	1	1
462.627	1	-1
462.797	1	-2
462.968	1	-4
463.138	1	12
463.309	1	-4
463.479	1	8
463.649	1	-2
463.820	1	-13
463.990	1	0
464.161	1	-18
464.331	1	7
464.502	1	6
464.672	1	-7
464.843	1	8
465.013	1	10
465.183	1	-2
465.354	1	-5
465.524	1	6
465.695	1	9
465.865	1	-7
466.036	1	7
466.206	1	2
466.376	1	6
466.547	1	2
466.717	1	-6
466.888	1	-11
467.058	1	0
467.229	1	4
467.399	1	2
467.569	1	15
467.740	1	-16
467.910	1	-12
468.081	1	5
468.251	1	-2
468.422	1	-4
468.592	1	8
468.762	1	7
468.933	1	-7
469.103	1	-5
469.274	1	7
469.444	1	3
469.614	1	-5
469.785	1	-6
469.955	1	4
470.126	1	1
470.296	1	-4
470.467	1	-11
470.637	1	-1
470.807	1	4
470.978	1	-3
471.148	1	11
471.319	1	-2
471.489	1	6
471.659	1	-5
471.830	1	6
472.000	1	1
472.171	1	-10
472.341	1	-3
472.511	1	-1
472.682	1	-1
472.852	1	1
473.023	1	-13
473.193	1	-4
473.363	1	-3
473.534	1	-11
473.704	1	-3
473.875	1	1
474.045	1	3
474.215	1	7
474.386	1	12
474.556	1	1
474.727	1	1
474.897	1	-6
475.067	1	1
475.238	1	-6
475.408	1	7
475.578	1	-1
475.749	1	3
475.919	1	6
476.090	1	2
476.260	1	-3
476.430	1	-5
476.601	1	-1
476.771	1	0
476.942	1	2
477.112	1	0
477.282	1	3
477.453	1	4
477.623	1	-1
477.793	1	1
477.964	1	-6
478.134	1	2
478.305	1	-8
478.475	1	-10
478.645	1	2
478.816	1	6
478.986	1	-3
479.156	1	1
479.327	1	-6
479.497	1	-7
479.667	1	2
479.838	1	10
480.008	1	1
480.179	1	5
480.349	1	-1
480.519	1	0
480.690	1	-1
480.860	1	2
481.030	1	1
481.201	1	-8
481.371	1	3
481.541	1	2
481.712	1	8
481.882	1	0
482.053	1	1
482.223	1	-6
482.393	1	-3
482.564	1	-9
482.734	1	2
482.904	1	-4
483.075	1	0
483.245	1	13
483.415	1	-4
483.586	1	1
483.756	1	9
483.926	1	-1
484.097	1	-4
484.267	1	-10
484.437	1	4
484.608	1	2
484.778	1	-3
484.948	1	-9
485.119	1	-3
485.289	1	-2
485.459	1	7
485.630	1	9
485.800	1	-8
485.970	1	-13
486.141	1	-7
486.311	1	6
486.481	1	-5
486.652	1	0
486.822	1	13
486.992	1	5
487.163	1	-4
487.333	1	-2
487.503	1	-7
487.674	1	5
487.844	1	0
488.014	1	-8
488.185	1	16
488.355	1	4
488.525	1	2
488.696	1	4
488.866	1	0
489.036	1	-7
489.207	1	1
489.377	1	-7
489.547	1	9
489.718	1	1
489.888	1	0
490.058	1	-5
490.228	1	2
490.399	1	1
490.569	1	9
490.739	1	5
490.910	1	3
491.080	1	0
491.250	1	-8
491.421	1	-5
491.591	1	4
491.761	1	4
491.932	1	3
492.102	1	3
492.272	1	3
492.442	1	-7
492.613	1	-3
492.783	1	1
492.953	1	14
493.124	1	3
493.294	1	1
493.464	1	10
493.635	1	-10
493.805	1	-7
493.975	1	-5
494.145	1	-10
494.316	1	0
494.486	1	-6
494.656	1	10
494.827	1	-2
494.997	1	7
495.167	1	-2
495.337	1	9
495.508	1	5
495.678	1	-1
495.848	1	0
496.019	1	1
496.189	1	15
496.359	1	1
496.529	1	4
496.700	1	3
496.870	1	3
497.040	1	-9
497.211	1	1
497.381	1	-8
497.551	1	-5
497.721	1	8
497.892	1	-3
498.062	1	15
498.232	1	1
498.403	1	-3
498.573	1	-3
498.743	1	4
498.913	1	-4
499.084	1	-7
499.254	1	1
499.424	1	7
499.594	1	0
499.765	1	-5
499.935	1	8
500.105	1	1
500.275	1	-4
500.446	1	-6
500.616	1	4
500.786	1	-5
500.956	1	9
501.127	1	-6
501.297	1	-2
501.467	1	-6
501.638	1	4
501.808	1	-5
501.978	1	-4
502.148	1	2
502.319	1	-2
502.489	1	-1
502.659	1	-3
502.829	1	3
503.000	1	-6
503.170	1	2
503.340	1	4
503.510	1	-1
503.681	1	5
503.851	1	-5
504.021	1	1
504.191	1	-2
504.362	1	-1
504.532	1	-8
504.702	1	0
504.872	1	-1
505.042	1	-1
505.213	1	4
505.383	1	-1
505.553	1	-1
505.723	1	-6
505.894	1	0
506.064	1	1
506.234	1	12
506.404	1	2
506.575	1	-4
506.745	1	2
506.915	1	6
507.085	1	-2
507.256	1	-3
507.426	1	-3
507.596	1	6
507.766	1	7
507.936	1	-1
508.107	1	-1
508.277	1	-11
508.447	1	-1
508.617	1	1
508.788	1	-5
508.958	1	4
509.128	1	1
509.298	1	-5
509.468	1	-2
509.639	1	-1
509.809	1	1
509.979	1	4
510.149	1	16
510.319	1	-9
510.490	1	-2
510.660	1	-5
510.830	1	7
511.000	1	-5
511.171	1	1
511.341	1	4
511.511	1	9
511.681	1	1
511.851	1	-5
512.022	1	1
512.192	1	-5
512.362	1	2
512.532	1	-11
512.702	1	6
512.873	1	1
513.043	1	12
513.213	1	3
513.383	1	-6
513.553	1	1
513.724	1	2
513.894	1	2
514.064	1	-13
514.234	1	1
514.404	1	-7
514.575	1	2
514.745	1	-10
514.915	1	-15
515.085	1	-3
515.255	1	5
515.425	1	-3
515.596	1	-5
515.766	1	1
515.936	1	0
516.106	1	-6
516.276	1	15
516.447	1	6
516.617	1	0
516.787	1	3
516.957	1	2
517.127	1	-1
517.297	1	-1
517.468	1	3
517.638	1	-4
517.808	1	3
517.978	1	11
518.148	1	10
518.319	1	6
518.489	1	5
518.659	1	4
518.829	1	6
518.999	1	-9
519.169	1	-5
519.340	1	0
519.510	1	0
519.680	1	1
519.850	1	-2
520.020	1	4
520.190	1	3
520.361	1	2
520.531	1	0
520.701	1	-7
520.871	1	-1
521.041	1	-6
521.211	1	-8
521.382	1	4
521.552	1	9
521.722	1	12
521.892	1	-5
522.062	1	-4
522.232	1	-2
522.402	1	8
522.573	1	9
522.743	1	-1
522.913	1	-9
523.083	1	-3
523.253	1	5
523.423	1	15
523.593	1	-12
523.764	1	7
523.934	1	12
524.104	1	6
524.274	1	1
524.444	1	7
524.614	1	-3
524.784	1	6
524.955	1	3
525.125	1	5
525.295	1	7
525.465	1	-7
525.635	1	-3
525.805	1	4
525.975	1	-2
526.146	1	6
526.316	1	-3
526.486	1	5
526.656	1	-3
526.826	1	1
526.996	1	11
527.166	1	8
527.337	1	0
527.507	1	-9
527.677	1	6
527.847	1	6
528.017	1	-17
528.187	1	0
528.357	1	-2
528.527	1	4
528.698	1	-7
528.868	1	-5
529.038	1	-6
529.208	1	12
529.378	1	-7
529.548	1	-8
529.718	1	6
529.888	1	7
530.058	1	5
530.229	1	4
530.399	1	5
530.569	1	-9
530.739	1	2
530.909	1	-2
531.079	1	-9
531.249	1	6
531.419	1	8
531.589	1	-9
531.760	1	4
531.930	1	2
532.100	1	-1
532.270	1	-1
532.440	1	-9
532.610	1	8
532.780	1	-12
532.950	1	-3
533.120	1	9
533.290	1	12
533.461	1	-5
533.631	1	4
533.801	1	-9
533.971	1	-1
534.141	1	-10
534.311	1	5
534.481	1	-11
534.651	1	3
534.821	1	-1
534.991	1	-11
535.162	1	5
535.332	1	2
535.502	1	-1
535.672	1	0
535.842	1	0
536.012	1	1
536.182	1	8
536.352	1	3
536.522	1	7
536.692	1	-1
536.862	1	-1
537.032	1	1
537.203	1	1
537.373	1	12
537.543	1	8
537.713	1	-1
537.883	1	-2
538.053	1	-4
538.223	1	3
538.393	1	-3
538.563	1	6
538.733	1	6
538.903	1	4
539.073	1	-3
539.243	1	-5
539.413	1	0
539.584	1	2
539.754	1	-8
539.924	1	13
540.094	1	-7
540.264	1	-4
540.434	1	3
540.604	1	0
540.774	1	11
540.944	1	1
541.114	1	-2
541.284	1	-1
541.454	1	-15
541.624	1	-3
541.794	1	7
541.964	1	-2
542.134	1	1
542.305	1	7
542.475	1	6
542.645	1	-7
542.815	1	0
542.985	1	5
543.155	1	0
543.325	1	-12
543.495	1	7
543.665	1	3
543.835	1	-5
544.005	1	-4
544.175	1	-13
544.345	1	0
544.515	1	-4
544.685	1	-10
544.855	1	8
545.025	1	5
545.195	1	0
545.365	1	-1
545.535	1	5
545.705	1	5
545.875	1	1
546.045	1	-2
546.216	1	0
546.386	1	5
546.556	1	5
546.726	1	-1
546.896	1	-1
547.066	1	2
547.236	1	-2
547.406	1	-12
547.576	1	-1
547.746	1	5
547.916	1	3
548.086	1	-4
548.256	1	-6
548.426	1	-3
548.596	1	-6
548.766	1	1
548.936	1	-8
549.106	1	8
549.276	1	-3
549.446	1	2
549.616	1	-1
549.786	1	4
549.956	1	1
550.126	1	14
550.296	1	-1
550.466	1	-6
550.636	1	-1
550.806	1	1
550.976	1	-6
551.146	1	10
551.316	1	9
551.486	1	-7
551.656	1	4
551.826	1	4
551.996	1	3
552.166	1	-2
552.336	1	-6
552.506	1	-3
552.676	1	5
552.846	1	6
553.016	1	0
553.186	1	-4
553.356	1	-2
553.526	1	-1
553.696	1	4
553.866	1	-2
554.036	1	1
554.206	1	-6
554.376	1	-1
554.546	1	5
554.716	1	-1
554.886	1	6
555.056	1	4
555.226	1	7
555.396	1	-6
555.566	1	6
555.736	1	-4
555.906	1	-3
556.076	1	3
556.246	1	-1
556.416	1	2
556.586	1	-9
556.756	1	4
556.926	1	12
557.096	1	2
557.266	1	-5
557.436	1	-9
557.606	1	6
557.776	1	-1
557.946	1	2
558.116	1	6
558.286	1	-7
558.456	1	-4
558.626	1	11
558.796	1	6
558.966	1	1
559.136	1	6
559.306	1	12
559.476	1	-2
559.646	1	-6
559.816	1	-8
559.986	1	8
560.155	1	-3
560.325	1	9
560.495	1	-3
560.665	1	4
560.835	1	-10
561.005	1	1
561.175	1	-17
561.345	1	-2
561.515	1	-1
561.685	1	-4
561.855	1	-4
562.025	1	1
562.195	1	6
562.365	1	-3
562.535	1	-8
562.705	1	4
562.875	1	5
563.045	1	-1
563.215	1	2
563.385	1	11
563.555	1	7
563.725	1	0
563.895	1	15
564.064	1	9
564.234	1	2
564.404	1	-4
564.574	1	-3
564.744	1	2
564.914	1	-9
565.084	1	1
565.254	1	-1
565.424	1	3
565.594	1	8
565.764	1	-8
565.934	1	3
566.104	1	2
566.274	1	-7
566.444	1	-2
566.614	1	-12
566.783	1	3
566.953	1	5
567.123	1	-5
567.293	1	5
567.463	1	12
567.633	1	-2
567.803	1	-2
567.973	1	-3
568.143	1	-4
568.313	1	-6
568.483	1	-3
568.653	1	5
568.823	1	-1
568.993	1	2
569.162	1	7
569.332	1	0
569.502	1	2
569.672	1	-3
569.842	1	6
570.012	1	-5
570.182	1	-6
570.352	1	1
570.522	1	6
570.692	1	-2
570.862	1	5
571.031	1	3
571.201	1	-4
571.371	1	-12
571.541	1	3
571.711	1	5
571.881	1	0
572.051	1	-3
572.221	1	-4
572.391	1	-7
572.561	1	0
572.731	1	-1
572.900	1	6
573.070	1	-4
573.240	1	3
573.410	1	2
573.580	1	3
573.750	1	-2
573.920	1	-3
574.090	1	3
574.260	1	-3
574.430	1	-4
574.599	1	-6
574.769	1	-2
574.939	1	2
575.109	1	1
575.279	1	1
575.449	1	-5
575.619	1	-1
575.789	1	-2
575.959	1	-6
576.128	1	2
576.298	1	-7
576.468	1	4
576.638	1	-9
576.808	1	3
576.978	1	-4
577.148	1	-4
577.318	1	-7
577.487	1	-7
577.657	1	3
577.827	1	-5
577.997	1	-5
578.167	1	3
578.337	1	-8
578.507	1	2
578.677	1	2
578.846	1	9
579.016	1	4
579.186	1	6
579.356	1	-1
579.526	1	3
579.696	1	-8
579.866	1	2
580.036	1	0
580.205	1	-9
580.375	1	-1
580.545	1	5
580.715	1	3
580.885	1	-1
581.055	1	-1
581.225	1	-12
581.394	1	-11
581.564	1	-18
581.734	1	-4
581.904	1	5
582.074	1	0
582.244	1	12
582.414	1	11
582.583	1	7
582.753	1	-7
582.923	1	0
583.093	1	-1
583.263	1	-16
583.433	1	-3
583.603	1	9
583.772	1	18
583.942	1	7
584.112	1	4
584.282	1	14
584.452	1	-3
584.622	1	7
584.791	1	4
584.961	1	6
585.131	1	0
585.301	1	-7
585.471	1	1
585.641	1	-3
585.811	1	1
585.980	1	1
586.150	1	7
586.320	1	10
586.490	1	-7
586.660	1	-4
586.830	1	6
586.999	1	-12
587.169	1	-6
587.339	1	-2
587.509	1	9
587.679	1	-2
587.849	1	-1
588.018	1	-8
588.188	1	5
588.358	1	-1
588.528	1	-6
588.698	1	-1
588.867	1	-5
589.037	1	1
589.207	1	-4
589.377	1	3
589.547	1	9
589.717	1	7
589.886	1	-1
590.056	1	5
590.226	1	7
590.396	1	4
590.566	1	5
590.735	1	-5
590.905	1	-1
591.075	1	-2
591.245	1	11
591.415	1	3
591.585	1	6
591.754	1	-14
591.924	1	-12
592.094	1	-3
592.264	1	13
592.434	1	17
592.603	1	6
592.773	1	10
592.943	1	-5
593.113	1	-12
593.283	1	-5
593.452	1	0
593.622	1	-1
593.792	1	1
593.962	1	10
594.132	1	1
594.301	1	-5
594.471	1	-5
594.641	1	-4
594.811	1	-3
594.981	1	-7
595.150	1	-13
595.320	1	2
595.490	1	-2
595.660	1	0
595.829	1	3
595.999	1	-9
596.169	1	-2
596.339	1	-1
596.509	1	-1
596.678	1	-6
596.848	1	1
597.018	1	1
597.188	1	-5
597.358	1	4
597.527	1	3
597.697	1	-4
597.867	1	1
598.037	1	3
598.206	1	-6
598.376	1	-5
598.546	1	-9
598.716	1	6
598.885	1	9
599.055	1	6
599.225	1	12
599.395	1	3
599.565	1	1
599.734	1	0
599.904	1	13
600.074	1	2
600.244	1	3
600.413	1	-1
600.583	1	-5
600.753	1	10
600.923	1	1
601.092	1	-8
601.262	1	-11
601.432	1	6
601.602	1	6
601.771	1	-5
601.941	1	4
602.111	1	2
602.281	1	10
602.451	1	0
602.620	1	-11
602.790	1	-7
602.960	1	-5
603.130	1	-1
603.299	1	-5
603.469	1	-3
603.639	1	-1
603.809	1	7
603.978	1	-2
604.148	1	-1
604.318	1	-4
604.487	1	-4
604.657	1	6
604.827	1	6
604.997	1	2
605.166	1	2
605.336	1	8
605.506	1	-7
605.676	1	-5
605.845	1	1
606.015	1	-3
606.185	1	0
606.355	1	-5
606.524	1	2
606.694	1	1
606.864	1	3
607.034	1	2
607.203	1	5
607.373	1	-6
607.543	1	-10
607.712	1	-7
607.882	1	-10
608.052	1	2
608.222	1	-5
608.391	1	10
608.561	1	9
608.731	1	6
608.901	1	-2
609.070	1	-2
609.240	1	-2
609.410	1	-1
609.579	1	-15
609.749	1	-12
609.919	1	-2
610.089	1	-5
610.258	1	15
610.428	1	1
610.598	1	2
610.767	1	-12
610.937	1	5
611.107	1	-2
611.277	1	-5
611.446	1	-4
611.616	1	1
611.786	1	8
611.955	1	-1
612.125	1	-11
612.295	1	-1
612.465	1	0
612.634	1	4
612.804	1	5
612.974	1	-14
613.143	1	-8
613.313	1	2
613.483	1	3
613.652	1	5
613.822	1	3
613.992	1	2
614.162	1	5
614.331	1	-14
614.501	1	-3
614.671	1	8
614.840	1	-5
615.010	1	1
615.180	1	1
615.349	1	1
615.519	1	10
615.689	1	16
615.858	1	-1
616.028	1	0
616.198	1	5
616.368	1	3
616.537	1	-7
616.707	1	1
616.877	1	-4
617.046	1	3
617.216	1	0
617.386	1	8
617.555	1	4
617.725	1	-5
617.895	1	7
618.064	1	-3
618.234	1	-4
618.404	1	-1
618.573	1	2
618.743	1	-1
618.913	1	0
619.082	1	-5
619.252	1	6
619.422	1	-1
619.591	1	-1
619.761	1	3
619.931	1	9
620.100	1	2
620.270	1	-3
620.440	1	6
620.609	1	9
620.779	1	-1
620.949	1	-3
621.118	1	-6
621.288	1	3
621.458	1	-5
621.627	1	0
621.797	1	-10
621.967	1	0
622.136	1	-2
622.306	1	4
622.476	1	-1
622.645	1	8
622.815	1	1
622.985	1	-5
623.154	1	1
623.324	1	-3
623.494	1	3
623.663	1	-4
623.833	1	-4
624.002	1	-14
624.172	1	-7
624.342	1	-14
624.511	1	-3
624.681	1	5
624.851	1	5
625.020	1	-13
625.190	1	-1
625.360	1	-10
625.529	1	13
625.699	1	1
625.869	1	5
626.038	1	-7
626.208	1	0
626.377	1	13
626.547	1	-2
626.717	1	2
626.886	1	2
627.056	1	-1
627.226	1	-3
627.395	1	-5
627.565	1	11
627.735	1	3
627.904	1	-8
628.074	1	-4
628.243	1	3
628.413	1	-3
628.583	1	2
628.752	1	-1
628.922	1	-1
629.091	1	-4
629.261	1	-3
629.431	1	1
629.600	1	8
629.770	1	5
629.940	1	-4
630.109	1	2
630.279	1	1
630.448	1	-4
630.618	1	2
630.788	1	4
630.957	1	-1
631.127	1	9
631.297	1	-10
631.466	1	-3
631.636	1	2
631.805	1	9
631.975	1	8
632.145	1	9
632.314	1	-4
632.484	1	6
632.653	1	-11
632.823	1	5
632.993	1	-2
633.162	1	-9
633.332	1	-11
633.501	1	-11
633.671	1	-3
633.841	1	14
634.010	1	11
634.180	1	-1
634.349	1	9
634.519	1	-18
634.689	1	-4
634.858	1	-14
635.028	1	4
635.197	1	-3
635.367	1	0
635.537	1	4
635.706	1	14
635.876	1	7
636.045	1	0
636.215	1	2
636.384	1	8
636.554	1	0
636.724	1	-1
636.893	1	1
637.063	1	12
637.232	1	-3
637.402	1	-4
637.572	1	-2
637.741	1	-1
637.911	1	-2
638.080	1	0
638.250	1	0
638.419	1	-2
638.589	1	6
638.759	1	5
638.928	1	1
639.098	1	-1
639.267	1	-4
639.437	1	-4
639.606	1	-1
639.776	1	1
639.946	1	-6
640.115	1	2
640.285	1	9
640.454	1	0
640.624	1	-2
640.793	1	2
640.963	1	8
641.132	1	-15
641.302	1	2
641.472	1	-6
641.641	1	11
641.811	1	-2
641.980	1	-5
642.150	1	-2
642.319	1	10
642.489	1	-1
642.659	1	-2
642.828	1	1
642.998	1	-3
643.167	1	-1
643.337	1	-1
643.506	1	4
643.676	1	6
643.845	1	-8
644.015	1	4
644.184	1	7
644.354	1	8
644.524	1	-6
644.693	1	5
644.863	1	1
645.032	1	-1
645.202	1	-1
645.371	1	-1
645.541	1	3
645.710	1	2
645.880	1	2
646.049	1	5
646.219	1	-7
646.388	1	-1
646.558	1	0
646.728	1	7
646.897	1	-10
647.067	1	0
647.236	1	-11
647.406	1	7
647.575	1	-2
647.745	1	1
647.914	1	4
648.084	1	-2
648.253	1	-2
648.423	1	-1
648.592	1	7
648.762	1	6
648.931	1	3
649.101	1	3
649.270	1	3
649.440	1	-9
649.610	1	0
649.779	1	0
649.949	1	-9
650.118	1	-6
650.288	1	0
650.457	1	6
650.627	1	5
650.796	1	1
650.966	1	-4
651.135	1	10
651.305	1	3
651.474	1	4
651.644	1	-11
651.813	1	-7
651.983	1	-5
652.152	1	-6
652.322	1	5
652.491	1	16
652.661	1	9
652.830	1	4
653.000	1	6
653.169	1	-9
653.339	1	-4
653.508	1	-3
653.678	1	5
653.847	1	8
654.017	1	-5
654.186	1	-2
654.356	1	-4
654.525	1	7
654.695	1	-1
654.864	1	0
655.034	1	7
655.203	1	-4
655.373	1	9
655.542	1	0
655.712	1	-11
655.881	1	-4
656.051	1	-6
656.220	1	15
656.390	1	5
656.559	1	2
656.729	1	3
656.898	1	1
657.068	1	5
657.237	1	7
657.406	1	-5
657.576	1	6
657.745	1	-5
657.915	1	1
658.084	1	1
658.254	1	5
658.423	1	2
658.593	1	-4
658.762	1	3
658.932	1	-1
659.101	1	-3
659.271	1	-2
659.440	1	4
659.610	1	4
659.779	1	-3
659.949	1	-1
660.118	1	2
660.288	1	7
660.457	1	-6
660.626	1	-12
660.796	1	2
660.965	1	7
661.135	1	-6
661.304	1	3
661.474	1	5
661.643	1	4
661.813	1	-5
661.982	1	-8
662.152	1	-2
662.321	1	-3
662.491	1	-3
662.660	1	0
662.829	1	1
662.999	1	-3
663.168	1	2
663.338	1	8
663.507	1	-9
663.677	1	9
663.846	1	10
664.016	1	-3
664.185	1	3
664.354	1	-2
664.524	1	-5
664.693	1	8
664.863	1	13
665.032	1	5
665.202	1	6
665.371	1	2
665.541	1	10
665.710	1	5
665.879	1	0
666.049	1	5
666.218	1	-6
666.388	1	3
666.557	1	-3
666.727	1	4
666.896	1	3
667.065	1	-4
667.235	1	2
667.404	1	2
667.574	1	9
667.743	1	-8
667.913	1	-8
668.082	1	5
668.251	1	1
668.421	1	-10
668.590	1	6
668.760	1	-1
668.929	1	7
669.099	1	5
669.268	1	2
669.437	1	-2
669.607	1	7
669.776	1	2
669.946	1	-5
670.115	1	2
670.285	1	-5
670.454	1	-7
670.623	1	0
670.793	1	2
670.962	1	6
671.132	1	-7
671.301	1	-4
671.470	1	8
671.640	1	-9
671.809	1	17
671.979	1	2
672.148	1	2
672.317	1	-5
672.487	1	13
672.656	1	4
672.826	1	7
672.995	1	-12
673.164	1	7
673.334	1	-4
673.503	1	-7
673.673	1	5
673.842	1	-6
674.011	1	-12
674.181	1	-13
674.350	1	5
674.520	1	-4
674.689	1	2
674.858	1	1
675.028	1	0
675.197	1	2
675.367	1	3
675.536	1	-1
675.705	1	0
675.875	1	-4
676.044	1	-1
676.214	1	-9
676.383	1	5
676.552	1	-11
676.722	1	0
676.891	1	-9
677.060	1	-6
677.230	1	-15
677.399	1	-3
677.569	1	1
677.738	1	-3
677.907	1	3
678.077	1	-4
678.246	1	-3
678.416	1	-3
678.585	1	-5
678.754	1	-3
678.924	1	-9
679.093	1	-2
679.262	1	-2
679.432	1	-14
679.601	1	-5
679.771	1	-5
679.940	1	0
680.109	1	1
680.279	1	-4
680.448	1	-8
680.617	1	-1
680.787	1	6
680.956	1	-1
681.125	1	-8
681.295	1	-3
681.464	1	2
681.634	1	8
681.803	1	4
681.972	1	3
682.142	1	-3
682.311	1	4
682.480	1	-8
682.650	1	0
682.819	1	-11
682.988	1	0
683.158	1	0
683.327	1	3
683.496	1	-1
683.666	1	-4
683.835	1	-1
684.004	1	-2
684.174	1	3
684.343	1	-6
684.512	1	11
684.682	1	-1
684.851	1	4
685.021	1	-5
685.190	1	6
685.359	1	4
685.529	1	8
685.698	1	3
685.867	1	-4
686.037	1	-2
686.206	1	8
686.375	1	10
686.545	1	8
686.714	1	9
686.883	1	0
687.053	1	3
687.222	1	-5
687.391	1	-3
687.561	1	2
687.730	1	1
687.899	1	-5
688.069	1	4
688.238	1	-1
688.407	1	1
688.577	1	7
688.746	1	-8
