340.368	1	9
340.539	1	9
340.710	1	2
340.881	1	0
341.052	1	-9
341.223	1	17
341.394	1	-8
341.565	1	-3
341.737	1	3
341.908	1	4
342.079	1	9
342.250	1	-12
342.421	1	5
342.592	1	15
342.763	1	0
342.934	1	-8
343.105	1	-7
343.276	1	-3
343.447	1	-5
343.618	1	-14
343.789	1	-1
343.960	1	2
344.131	1	4
344.302	1	3
344.473	1	13
344.644	1	7
344.815	1	4
344.986	1	7
345.157	1	8
345.328	1	6
345.499	1	17
345.670	1	-7
345.841	1	-1
346.012	1	-4
346.183	1	3
346.354	1	6
346.526	1	-2
346.697	1	-8
346.868	1	8
347.039	1	-4
347.210	1	-5
347.381	1	6
347.552	1	13
347.723	1	4
347.894	1	-7
348.065	1	2
348.236	1	2
348.407	1	1
348.578	1	9
348.749	1	3
348.920	1	4
349.091	1	7
349.262	1	7
349.433	1	11
349.604	1	6
349.775	1	-9
349.946	1	3
350.117	1	9
350.288	1	-5
350.459	1	1
350.630	1	-7
350.801	1	7
350.972	1	2
351.143	1	12
351.314	1	-1
351.485	1	-2
351.656	1	2
351.827	1	1
351.998	1	9
352.169	1	10
352.340	1	13
352.511	1	2
352.682	1	10
352.853	1	1
353.024	1	16
353.195	1	7
353.366	1	7
353.537	1	1
353.708	1	4
353.879	1	4
354.050	1	5
354.221	1	12
354.392	1	-4
354.563	1	-1
354.734	1	14
354.905	1	16
355.076	1	-1
355.247	1	4
355.418	1	11
355.589	1	6
355.760	1	12
355.931	1	6
356.102	1	8
356.273	1	2
356.444	1	11
356.615	1	4
356.785	1	4
356.956	1	12
357.127	1	17
357.298	1	14
357.469	1	13
357.640	1	0
357.811	1	9
357.982	1	10
358.153	1	9
358.324	1	15
358.495	1	11
358.666	1	7
358.837	1	12
359.008	1	22
359.179	1	8
359.350	1	7
359.521	1	11
359.692	1	11
359.863	1	-1
360.034	1	19
360.205	1	13
360.376	1	6
360.547	1	17
360.718	1	8
360.889	1	20
361.060	1	22
361.231	1	18
361.401	1	15
361.572	1	22
361.743	1	8
361.914	1	14
362.085	1	20
362.256	1	16
362.427	1	7
362.598	1	15
362.769	1	20
362.940	1	11
363.111	1	24
363.282	1	25
363.453	1	14
363.624	1	38
363.795	1	33
363.966	1	21
364.137	1	23
364.308	1	22
364.478	1	18
364.649	1	29
364.820	1	27
364.991	1	23
365.162	1	35
365.333	1	25
365.504	1	36
365.675	1	28
365.846	1	27
366.017	1	38
366.188	1	30
366.359	1	40
366.530	1	41
366.701	1	30
366.871	1	40
367.042	1	40
367.213	1	51
367.384	1	40
367.555	1	33
367.726	1	50
367.897	1	47
368.068	1	37
368.239	1	49
368.410	1	54
368.581	1	50
368.752	1	55
368.923	1	39
369.093	1	44
369.264	1	41
369.435	1	54
369.606	1	55
369.777	1	61
369.948	1	46
370.119	1	60
370.290	1	56
370.461	1	61
370.632	1	67
370.803	1	69
370.973	1	55
371.144	1	50
371.315	1	57
371.486	1	60
371.657	1	63
371.828	1	58
371.999	1	69
372.170	1	62
372.341	1	54
372.512	1	62
372.682	1	62
372.853	1	63
373.024	1	69
373.195	1	66
373.366	1	63
373.537	1	74
373.708	1	75
373.879	1	64
374.050	1	77
374.220	1	62
374.391	1	64
374.562	1	62
374.733	1	72
374.904	1	60
375.075	1	68
375.246	1	71
375.417	1	81
375.588	1	65
375.758	1	67
375.929	1	57
376.100	1	69
376.271	1	57
376.442	1	66
376.613	1	61
376.784	1	54
376.955	1	63
377.125	1	66
377.296	1	58
377.467	1	53
377.638	1	57
377.809	1	57
377.980	1	57
378.151	1	58
378.321	1	62
378.492	1	47
378.663	1	52
378.834	1	54
379.005	1	54
379.176	1	58
379.347	1	46
379.518	1	44
379.688	1	48
379.859	1	45
380.030	1	45
380.201	1	53
380.372	1	38
380.543	1	52
380.714	1	46
380.884	1	41
381.055	1	44
381.226	1	47
381.397	1	48
381.568	1	38
381.739	1	36
381.910	1	51
382.080	1	52
382.251	1	44
382.422	1	46
382.593	1	34
382.764	1	32
382.935	1	36
383.105	1	40
383.276	1	30
383.447	1	45
383.618	1	32
383.789	1	45
383.960	1	38
384.130	1	31
384.301	1	44
384.472	1	21
384.643	1	29
384.814	1	36
384.985	1	47
385.156	1	37
385.326	1	24
385.497	1	25
385.668	1	23
385.839	1	23
386.010	1	30
386.180	1	19
386.351	1	23
386.522	1	23
386.693	1	24
386.864	1	11
387.035	1	27
387.205	1	29
387.376	1	17
387.547	1	16
387.718	1	29
387.889	1	25
388.060	1	20
388.230	1	21
388.401	1	20
388.572	1	7
388.743	1	14
388.914	1	23
389.084	1	14
389.255	1	17
389.426	1	12
389.597	1	22
389.768	1	24
389.939	1	7
390.109	1	7
390.280	1	7
390.451	1	14
390.622	1	16
390.793	1	19
390.963	1	15
391.134	1	9
391.305	1	22
391.476	1	6
391.647	1	12
391.817	1	12
391.988	1	10
392.159	1	13
392.330	1	18
392.501	1	8
392.671	1	9
392.842	1	6
393.013	1	12
393.184	1	21
393.355	1	9
393.525	1	17
393.696	1	8
393.867	1	16
394.038	1	10
394.208	1	13
394.379	1	9
394.550	1	12
394.721	1	17
394.892	1	23
395.062	1	14
395.233	1	6
395.404	1	-1
395.575	1	18
395.746	1	14
395.916	1	16
396.087	1	5
396.258	1	9
396.429	1	9
396.599	1	12
396.770	1	1
396.941	1	13
397.112	1	15
397.283	1	8
397.453	1	10
397.624	1	22
397.795	1	7
397.966	1	19
398.136	1	15
398.307	1	10
398.478	1	16
398.649	1	6
398.819	1	9
398.990	1	3
399.161	1	8
399.332	1	12
399.503	1	9
399.673	1	17
399.844	1	-1
400.015	1	8
400.186	1	7
400.356	1	1
400.527	1	16
400.698	1	16
400.869	1	7
401.039	1	11
401.210	1	12
401.381	1	17
401.552	1	5
401.722	1	3
401.893	1	1
402.064	1	3
402.235	1	5
402.405	1	18
402.576	1	11
402.747	1	7
402.918	1	15
403.088	1	17
403.259	1	1
403.430	1	6
403.601	1	3
403.771	1	8
403.942	1	-8
404.113	1	2
404.284	1	7
404.454	1	11
404.625	1	24
404.796	1	18
404.967	1	8
405.137	1	0
405.308	1	3
405.479	1	9
405.649	1	5
405.820	1	4
405.991	1	19
406.162	1	5
406.332	1	11
406.503	1	0
406.674	1	23
406.845	1	7
407.015	1	12
407.186	1	4
407.357	1	12
407.527	1	1
407.698	1	7
407.869	1	4
408.040	1	5
408.210	1	12
408.381	1	5
408.552	1	15
408.722	1	0
408.893	1	3
409.064	1	11
409.235	1	7
409.405	1	-6
409.576	1	8
409.747	1	3
409.917	1	5
410.088	1	7
410.259	1	0
410.430	1	4
410.600	1	4
410.771	1	8
410.942	1	-2
411.112	1	12
411.283	1	12
411.454	1	-5
411.625	1	0
411.795	1	3
411.966	1	11
412.137	1	10
412.307	1	-3
412.478	1	11
412.649	1	5
412.819	1	11
412.990	1	1
413.161	1	6
413.332	1	13
413.502	1	3
413.673	1	7
413.844	1	-1
414.014	1	11
414.185	1	-6
414.356	1	8
414.526	1	4
414.697	1	5
414.868	1	11
415.038	1	9
415.209	1	0
415.380	1	10
415.550	1	5
415.721	1	7
415.892	1	6
416.063	1	3
416.233	1	11
416.404	1	-1
416.575	1	5
416.745	1	10
416.916	1	-7
417.087	1	8
417.257	1	5
417.428	1	2
417.599	1	14
417.769	1	2
417.940	1	6
418.111	1	8
418.281	1	6
418.452	1	2
418.623	1	-1
418.793	1	6
418.964	1	9
419.135	1	-2
419.305	1	-2
419.476	1	3
419.647	1	1
419.817	1	-4
419.988	1	-1
420.159	1	9
420.329	1	9
420.500	1	-5
420.671	1	2
420.841	1	11
421.012	1	11
421.183	1	8
421.353	1	-2
421.524	1	3
421.695	1	-3
421.865	1	3
422.036	1	16
422.206	1	2
422.377	1	9
422.548	1	-1
422.718	1	6
422.889	1	0
423.060	1	-7
423.230	1	5
423.401	1	6
423.572	1	2
423.742	1	17
423.913	1	10
424.084	1	2
424.254	1	9
424.425	1	5
424.595	1	-4
424.766	1	-2
424.937	1	5
425.107	1	-3
425.278	1	14
425.449	1	5
425.619	1	-2
425.790	1	-1
425.961	1	17
426.131	1	0
426.302	1	5
426.472	1	6
426.643	1	2
426.814	1	2
426.984	1	-1
427.155	1	2
427.326	1	14
427.496	1	13
427.667	1	2
427.837	1	5
428.008	1	3
428.179	1	4
428.349	1	1
428.520	1	3
428.691	1	1
428.861	1	7
429.032	1	2
429.202	1	-2
429.373	1	3
429.544	1	4
429.714	1	1
429.885	1	10
430.055	1	4
430.226	1	7
430.397	1	-9
430.567	1	12
430.738	1	8
430.909	1	1
431.079	1	1
431.250	1	6
431.420	1	13
431.591	1	3
431.762	1	-4
431.932	1	8
432.103	1	11
432.273	1	4
432.444	1	-1
432.615	1	-5
432.785	1	1
432.956	1	15
433.126	1	13
433.297	1	3
433.468	1	-1
433.638	1	-1
433.809	1	13
433.979	1	5
434.150	1	12
434.320	1	0
434.491	1	1
434.662	1	-1
434.832	1	2
435.003	1	3
435.173	1	1
435.344	1	1
435.515	1	3
435.685	1	2
435.856	1	5
436.026	1	2
436.197	1	21
436.368	1	-5
436.538	1	4
436.709	1	-2
436.879	1	-1
437.050	1	17
437.220	1	16
437.391	1	6
437.562	1	18
437.732	1	13
437.903	1	4
438.073	1	-7
438.244	1	5
438.414	1	16
438.585	1	10
438.756	1	10
438.926	1	8
439.097	1	-5
439.267	1	2
439.438	1	3
439.608	1	11
439.779	1	4
439.949	1	6
440.120	1	0
440.291	1	4
440.461	1	-1
440.632	1	2
440.802	1	5
440.973	1	11
441.143	1	-11
441.314	1	7
441.485	1	0
441.655	1	8
441.826	1	-1
441.996	1	12
442.167	1	3
442.337	1	10
442.508	1	13
442.678	1	3
442.849	1	8
443.019	1	9
443.190	1	4
443.361	1	3
443.531	1	4
443.702	1	0
443.872	1	5
444.043	1	3
444.213	1	9
444.384	1	1
444.554	1	-8
444.725	1	-1
444.895	1	5
445.066	1	-1
445.237	1	5
445.407	1	1
445.578	1	6
445.748	1	4
445.919	1	14
446.089	1	-2
446.260	1	-3
446.430	1	5
446.601	1	-7
446.771	1	5
446.942	1	7
447.112	1	-2
447.283	1	13
447.453	1	-1
447.624	1	-3
447.794	1	16
447.965	1	1
448.135	1	-4
448.306	1	1
448.477	1	8
448.647	1	13
448.818	1	3
448.988	1	-1
449.159	1	8
449.329	1	14
449.500	1	11
449.670	1	5
449.841	1	11
450.011	1	12
450.182	1	15
450.352	1	14
450.523	1	0
450.693	1	1
450.864	1	11
451.034	1	18
451.205	1	7
451.375	1	-4
451.546	1	7
451.716	1	-1
451.887	1	8
452.057	1	2
452.228	1	10
452.398	1	10
452.569	1	-5
452.739	1	8
452.910	1	4
453.080	1	0
453.251	1	7
453.421	1	-1
453.592	1	0
453.762	1	2
453.933	1	4
454.103	1	2
454.274	1	1
454.444	1	3
454.615	1	-2
454.785	1	12
454.956	1	-7
455.126	1	2
455.297	1	1
455.467	1	3
455.638	1	-2
455.808	1	12
455.979	1	-1
456.149	1	0
456.320	1	-3
456.490	1	5
456.661	1	3
456.831	1	4
457.001	1	13
457.172	1	8
457.342	1	6
457.513	1	6
457.683	1	5
457.854	1	-2
458.024	1	1
458.195	1	-4
458.365	1	-1
458.536	1	3
458.706	1	5
458.877	1	3
459.047	1	-4
459.218	1	4
459.388	1	3
459.559	1	6
459.729	1	7
459.899	1	2
460.070	1	11
460.240	1	12
460.411	1	10
460.581	1	7
460.752	1	-5
460.922	1	10
461.093	1	12
461.263	1	0
461.434	1	7
461.604	1	-2
461.775	1	0
461.945	1	5
462.115	1	-1
462.286	1	5
462.456	1	15
462.627	1	1
462.797	1	6
462.968	1	9
463.138	1	13
463.309	1	6
463.479	1	1
463.649	1	3
463.820	1	-5
463.990	1	6
464.161	1	-2
464.331	1	1
464.502	1	3
464.672	1	4
464.843	1	5
465.013	1	3
465.183	1	1
465.354	1	10
465.524	1	6
465.695	1	5
465.865	1	0
466.036	1	6
466.206	1	2
466.376	1	3
466.547	1	4
466.717	1	-12
466.888	1	-2
467.058	1	3
467.229	1	8
467.399	1	6
467.569	1	19
467.740	1	-8
467.910	1	-14
468.081	1	0
468.251	1	4
468.422	1	-4
468.592	1	7
468.762	1	7
468.933	1	4
469.103	1	2
469.274	1	13
469.444	1	10
469.614	1	3
469.785	1	3
469.955	1	5
470.126	1	5
470.296	1	5
470.467	1	1
470.637	1	5
470.807	1	9
470.978	1	-1
471.148	1	7
471.319	1	2
471.489	1	5
471.659	1	-1
471.830	1	1
472.000	1	4
472.171	1	5
472.341	1	-10
472.511	1	1
472.682	1	9
472.852	1	4
473.023	1	-5
473.193	1	-3
473.363	1	8
473.534	1	-2
473.704	1	1
473.875	1	4
474.045	1	-7
474.215	1	15
474.386	1	2
474.556	1	10
474.727	1	5
474.897	1	-6
475.067	1	3
475.238	1	6
475.408	1	7
475.578	1	9
475.749	1	6
475.919	1	6
476.090	1	10
476.260	1	6
476.430	1	2
476.601	1	0
476.771	1	2
476.942	1	2
477.112	1	14
477.282	1	-4
477.453	1	1
477.623	1	0
477.793	1	3
477.964	1	-1
478.134	1	6
478.305	1	-11
478.475	1	-7
478.645	1	10
478.816	1	16
478.986	1	-2
479.156	1	6
479.327	1	-6
479.497	1	3
479.667	1	-3
479.838	1	0
480.008	1	3
480.179	1	13
480.349	1	-1
480.519	1	2
480.690	1	9
480.860	1	11
481.030	1	-4
481.201	1	3
481.371	1	13
481.541	1	4
481.712	1	4
481.882	1	4
482.053	1	7
482.223	1	4
482.393	1	9
482.564	1	3
482.734	1	14
482.904	1	7
483.075	1	1
483.245	1	22
483.415	1	0
483.586	1	7
483.756	1	2
483.926	1	-2
484.097	1	5
484.267	1	-6
484.437	1	-3
484.608	1	0
484.778	1	6
484.948	1	-6
485.119	1	5
485.289	1	-4
485.459	1	8
485.630	1	13
485.800	1	-2
485.970	1	0
486.141	1	-6
486.311	1	1
486.481	1	-1
486.652	1	11
486.822	1	11
486.992	1	7
487.163	1	8
487.333	1	4
487.503	1	1
487.674	1	13
487.844	1	6
488.014	1	2
488.185	1	14
488.355	1	0
488.525	1	5
488.696	1	13
488.866	1	6
489.036	1	-2
489.207	1	4
489.377	1	3
489.547	1	7
489.718	1	1
489.888	1	15
490.058	1	-1
490.228	1	7
490.399	1	-5
490.569	1	5
490.739	1	-5
490.910	1	9
491.080	1	5
491.250	1	2
491.421	1	6
491.591	1	7
491.761	1	13
491.932	1	13
492.102	1	8
492.272	1	6
492.442	1	5
492.613	1	12
492.783	1	12
492.953	1	13
493.124	1	5
493.294	1	8
493.464	1	14
493.635	1	0
493.805	1	5
493.975	1	0
494.145	1	1
494.316	1	-3
494.486	1	4
494.656	1	6
494.827	1	0
494.997	1	2
495.167	1	0
495.337	1	10
495.508	1	8
495.678	1	10
495.848	1	5
496.019	1	2
496.189	1	6
496.359	1	-4
496.529	1	13
496.700	1	0
496.870	1	3
497.040	1	-8
497.211	1	4
497.381	1	-4
497.551	1	-2
497.721	1	6
497.892	1	11
498.062	1	21
498.232	1	-2
498.403	1	5
498.573	1	2
498.743	1	13
498.913	1	1
499.084	1	0
499.254	1	-3
499.424	1	15
499.594	1	7
499.765	1	5
499.935	1	12
500.105	1	1
500.275	1	-11
500.446	1	5
500.616	1	-3
500.786	1	5
500.956	1	-1
501.127	1	3
501.297	1	5
501.467	1	1
501.638	1	-3
501.808	1	-2
501.978	1	-10
502.148	1	6
502.319	1	3
502.489	1	1
502.659	1	3
502.829	1	5
503.000	1	-3
503.170	1	-4
503.340	1	12
503.510	1	-3
503.681	1	-1
503.851	1	5
504.021	1	8
504.191	1	1
504.362	1	5
504.532	1	-5
504.702	1	7
504.872	1	4
505.042	1	0
505.213	1	6
505.383	1	-1
505.553	1	5
505.723	1	4
505.894	1	8
506.064	1	-2
506.234	1	13
506.404	1	2
506.575	1	-9
506.745	1	-6
506.915	1	2
507.085	1	7
507.256	1	-2
507.426	1	2
507.596	1	4
507.766	1	-8
507.936	1	-1
508.107	1	-2
508.277	1	-1
508.447	1	0
508.617	1	4
508.788	1	-6
508.958	1	6
509.128	1	7
509.298	1	-4
509.468	1	-2
509.639	1	5
509.809	1	7
509.979	1	9
510.149	1	11
510.319	1	7
510.490	1	4
510.660	1	4
510.830	1	6
511.000	1	3
511.171	1	-8
511.341	1	2
511.511	1	0
511.681	1	10
511.851	1	1
512.022	1	6
512.192	1	-4
512.362	1	4
512.532	1	-1
512.702	1	-3
512.873	1	4
513.043	1	10
513.213	1	-1
513.383	1	-4
513.553	1	4
513.724	1	6
513.894	1	0
514.064	1	1
514.234	1	4
514.404	1	2
514.575	1	3
514.745	1	3
514.915	1	-14
515.085	1	4
515.255	1	9
515.425	1	1
515.596	1	3
515.766	1	1
515.936	1	9
516.106	1	4
516.276	1	7
516.447	1	14
516.617	1	4
516.787	1	1
516.957	1	8
517.127	1	1
517.297	1	4
517.468	1	13
517.638	1	-2
517.808	1	14
517.978	1	13
518.148	1	9
518.319	1	16
518.489	1	8
518.659	1	8
518.829	1	-7
518.999	1	-4
519.169	1	-8
519.340	1	0
519.510	1	9
519.680	1	1
519.850	1	3
520.020	1	19
520.190	1	5
520.361	1	5
520.531	1	-7
520.701	1	8
520.871	1	-3
521.041	1	-2
521.211	1	3
521.382	1	6
521.552	1	15
521.722	1	12
521.892	1	-4
522.062	1	1
522.232	1	-3
522.402	1	6
522.573	1	2
522.743	1	11
522.913	1	-2
523.083	1	15
523.253	1	2
523.423	1	2
523.593	1	-11
523.764	1	0
523.934	1	4
524.104	1	15
524.274	1	1
524.444	1	10
524.614	1	5
524.784	1	13
524.955	1	6
525.125	1	12
525.295	1	10
525.465	1	-3
525.635	1	-3
525.805	1	5
525.975	1	-4
526.146	1	11
526.316	1	5
526.486	1	8
526.656	1	6
526.826	1	1
526.996	1	10
527.166	1	9
527.337	1	7
527.507	1	2
527.677	1	9
527.847	1	2
528.017	1	-5
528.187	1	2
528.357	1	7
528.527	1	2
528.698	1	0
528.868	1	3
529.038	1	-7
529.208	1	4
529.378	1	3
529.548	1	5
529.718	1	9
529.888	1	8
530.058	1	4
530.229	1	9
530.399	1	-1
530.569	1	-1
530.739	1	9
530.909	1	-5
531.079	1	-16
531.249	1	8
531.419	1	6
531.589	1	-4
531.760	1	4
531.930	1	-1
532.100	1	-6
532.270	1	4
532.440	1	3
532.610	1	9
532.780	1	-2
532.950	1	-6
533.120	1	8
533.290	1	8
533.461	1	-1
533.631	1	10
533.801	1	-7
533.971	1	0
534.141	1	0
534.311	1	5
534.481	1	-4
534.651	1	6
534.821	1	-10
534.991	1	-1
535.162	1	5
535.332	1	7
535.502	1	6
535.672	1	0
535.842	1	7
536.012	1	3
536.182	1	12
536.352	1	13
536.522	1	5
536.692	1	14
536.862	1	8
537.032	1	5
537.203	1	6
537.373	1	6
537.543	1	4
537.713	1	-2
537.883	1	2
538.053	1	1
538.223	1	-1
538.393	1	6
538.563	1	5
538.733	1	9
538.903	1	8
539.073	1	-8
539.243	1	-6
539.413	1	1
539.584	1	5
539.754	1	-7
539.924	1	-1
540.094	1	-3
540.264	1	-4
540.434	1	-1
540.604	1	-2
540.774	1	12
540.944	1	9
541.114	1	0
541.284	1	-2
541.454	1	-11
541.624	1	-2
541.794	1	14
541.964	1	15
542.134	1	2
542.305	1	12
542.475	1	2
542.645	1	-1
542.815	1	9
542.985	1	3
543.155	1	9
543.325	1	-7
543.495	1	10
543.665	1	0
543.835	1	3
544.005	1	3
544.175	1	-1
544.345	1	14
544.515	1	-1
544.685	1	-14
544.855	1	7
545.025	1	15
545.195	1	6
545.365	1	3
545.535	1	6
545.705	1	-6
545.875	1	-1
546.045	1	-6
546.216	1	8
546.386	1	6
546.556	1	8
546.726	1	3
546.896	1	9
547.066	1	7
547.236	1	6
547.406	1	-1
547.576	1	6
547.746	1	14
547.916	1	6
548.086	1	-1
548.256	1	7
548.426	1	-1
548.596	1	4
548.766	1	13
548.936	1	-2
549.106	1	3
549.276	1	4
549.446	1	-3
549.616	1	4
549.786	1	8
549.956	1	9
550.126	1	14
550.296	1	10
550.466	1	-5
550.636	1	13
550.806	1	0
550.976	1	-5
551.146	1	7
551.316	1	13
551.486	1	-4
551.656	1	10
551.826	1	1
551.996	1	6
552.166	1	3
552.336	1	-2
552.506	1	-4
552.676	1	7
552.846	1	9
553.016	1	7
553.186	1	1
553.356	1	-9
553.526	1	3
553.696	1	10
553.866	1	7
554.036	1	-1
554.206	1	-2
554.376	1	5
554.546	1	14
554.716	1	-5
554.886	1	12
555.056	1	9
555.226	1	11
555.396	1	3
555.566	1	9
555.736	1	-4
555.906	1	4
556.076	1	-6
556.246	1	4
556.416	1	1
556.586	1	3
556.756	1	6
556.926	1	15
557.096	1	5
557.266	1	9
557.436	1	-4
557.606	1	-3
557.776	1	0
557.946	1	-5
558.116	1	-2
558.286	1	9
558.456	1	-2
558.626	1	15
558.796	1	-11
558.966	1	9
559.136	1	10
559.306	1	16
559.476	1	-1
559.646	1	-4
559.816	1	-2
559.986	1	6
560.155	1	7
560.325	1	0
560.495	1	10
560.665	1	3
560.835	1	-2
561.005	1	2
561.175	1	-8
561.345	1	1
561.515	1	2
561.685	1	1
561.855	1	0
562.025	1	2
562.195	1	12
562.365	1	-1
562.535	1	5
562.705	1	7
562.875	1	0
563.045	1	6
563.215	1	10
563.385	1	5
563.555	1	18
563.725	1	0
563.895	1	7
564.064	1	19
564.234	1	2
564.404	1	-6
564.574	1	14
564.744	1	7
564.914	1	3
565.084	1	3
565.254	1	9
565.424	1	3
565.594	1	1
565.764	1	4
565.934	1	4
566.104	1	4
566.274	1	-9
566.444	1	7
566.614	1	1
566.783	1	6
566.953	1	8
567.123	1	2
567.293	1	15
567.463	1	7
567.633	1	0
567.803	1	1
567.973	1	7
568.143	1	-1
568.313	1	2
568.483	1	5
568.653	1	-6
568.823	1	12
568.993	1	4
569.162	1	9
569.332	1	1
569.502	1	4
569.672	1	-5
569.842	1	2
570.012	1	-4
570.182	1	7
570.352	1	-3
570.522	1	8
570.692	1	-4
570.862	1	14
571.031	1	7
571.201	1	3
571.371	1	-16
571.541	1	1
571.711	1	-7
571.881	1	10
572.051	1	8
572.221	1	4
572.391	1	-2
572.561	1	12
572.731	1	-7
572.900	1	3
573.070	1	4
573.240	1	-1
573.410	1	1
573.580	1	18
573.750	1	6
573.920	1	-6
574.090	1	2
574.260	1	-3
574.430	1	-4
574.599	1	2
574.769	1	10
574.939	1	5
575.109	1	-2
575.279	1	-12
575.449	1	-5
575.619	1	2
575.789	1	1
575.959	1	0
576.128	1	-4
576.298	1	10
576.468	1	-3
576.638	1	3
576.808	1	5
576.978	1	5
577.148	1	-4
577.318	1	-5
577.487	1	-4
577.657	1	8
577.827	1	4
577.997	1	5
578.167	1	5
578.337	1	-8
578.507	1	6
578.677	1	1
578.846	1	11
579.016	1	6
579.186	1	12
579.356	1	1
579.526	1	-1
579.696	1	-5
579.866	1	-2
580.036	1	0
580.205	1	1
580.375	1	-5
580.545	1	8
580.715	1	8
580.885	1	3
581.055	1	-7
581.225	1	-4
581.394	1	-4
581.564	1	3
581.734	1	-5
581.904	1	10
582.074	1	5
582.244	1	7
582.414	1	12
582.583	1	13
582.753	1	-5
582.923	1	2
583.093	1	11
583.263	1	-10
583.433	1	1
583.603	1	12
583.772	1	6
583.942	1	8
584.112	1	12
584.282	1	6
584.452	1	-2
584.622	1	7
584.791	1	6
584.961	1	18
585.131	1	5
585.301	1	-4
585.471	1	-6
585.641	1	4
585.811	1	5
585.980	1	7
586.150	1	11
586.320	1	10
586.490	1	1
586.660	1	8
586.830	1	3
586.999	1	-1
587.169	1	-1
587.339	1	-1
587.509	1	8
587.679	1	5
587.849	1	7
588.018	1	1
588.188	1	3
588.358	1	-1
588.528	1	2
588.698	1	-4
588.867	1	-2
589.037	1	6
589.207	1	-12
589.377	1	11
589.547	1	6
589.717	1	3
589.886	1	5
590.056	1	3
590.226	1	3
590.396	1	5
590.566	1	12
590.735	1	1
590.905	1	8
591.075	1	9
591.245	1	8
591.415	1	-1
591.585	1	3
591.754	1	-2
591.924	1	-6
592.094	1	0
592.264	1	13
592.434	1	8
592.603	1	-2
592.773	1	17
592.943	1	-6
593.113	1	-1
593.283	1	-3
593.452	1	4
593.622	1	0
593.792	1	3
593.962	1	10
594.132	1	-3
594.301	1	1
594.471	1	1
594.641	1	1
594.811	1	-8
594.981	1	-6
595.150	1	-2
595.320	1	6
595.490	1	-6
595.660	1	9
595.829	1	-1
595.999	1	-1
596.169	1	0
596.339	1	5
596.509	1	2
596.678	1	11
596.848	1	8
597.018	1	7
597.188	1	1
597.358	1	6
597.527	1	5
597.697	1	-1
597.867	1	13
598.037	1	-1
598.206	1	-1
598.376	1	0
598.546	1	6
598.716	1	9
598.885	1	5
599.055	1	5
599.225	1	13
599.395	1	2
599.565	1	-2
599.734	1	11
599.904	1	17
600.074	1	-3
600.244	1	11
600.413	1	8
600.583	1	-2
600.753	1	-6
600.923	1	-1
601.092	1	1
601.262	1	-3
601.432	1	9
601.602	1	2
601.771	1	0
601.941	1	12
602.111	1	0
602.281	1	7
602.451	1	-1
602.620	1	-1
602.790	1	-17
602.960	1	6
603.130	1	2
603.299	1	-4
603.469	1	-1
603.639	1	1
603.809	1	4
603.978	1	-7
604.148	1	3
604.318	1	3
604.487	1	-2
604.657	1	11
604.827	1	6
604.997	1	8
605.166	1	0
605.336	1	-3
605.506	1	-1
605.676	1	-9
605.845	1	0
606.015	1	-4
606.185	1	11
606.355	1	5
606.524	1	11
606.694	1	1
606.864	1	-6
607.034	1	14
607.203	1	-2
607.373	1	0
607.543	1	6
607.712	1	0
607.882	1	-5
608.052	1	1
608.222	1	4
608.391	1	9
608.561	1	13
608.731	1	2
608.901	1	6
609.070	1	8
609.240	1	2
609.410	1	-3
609.579	1	-5
609.749	1	-2
609.919	1	5
610.089	1	9
610.258	1	4
610.428	1	1
610.598	1	4
610.767	1	1
610.937	1	1
611.107	1	0
611.277	1	5
611.446	1	-2
611.616	1	8
611.786	1	4
611.955	1	10
612.125	1	3
612.295	1	2
612.465	1	-6
612.634	1	9
612.804	1	6
612.974	1	6
613.143	1	5
613.313	1	-2
613.483	1	6
613.652	1	11
613.822	1	-2
613.992	1	2
614.162	1	1
614.331	1	4
614.501	1	3
614.671	1	9
614.840	1	14
615.010	1	5
615.180	1	2
615.349	1	8
615.519	1	9
615.689	1	19
615.858	1	7
616.028	1	-3
616.198	1	11
616.368	1	5
616.537	1	-7
616.707	1	11
616.877	1	11
617.046	1	5
617.216	1	7
617.386	1	6
617.555	1	1
617.725	1	-10
617.895	1	12
618.064	1	-1
618.234	1	7
618.404	1	7
618.573	1	12
618.743	1	2
618.913	1	7
619.082	1	4
619.252	1	5
619.422	1	3
619.591	1	-2
619.761	1	-7
619.931	1	9
620.100	1	5
620.270	1	-2
620.440	1	6
620.609	1	4
620.779	1	10
620.949	1	3
621.118	1	-6
621.288	1	6
621.458	1	4
621.627	1	5
621.797	1	2
621.967	1	12
622.136	1	2
622.306	1	10
622.476	1	9
622.645	1	2
622.815	1	7
622.985	1	-2
623.154	1	-10
623.324	1	0
623.494	1	3
623.663	1	4
623.833	1	9
624.002	1	-8
624.172	1	-6
624.342	1	-8
624.511	1	0
624.681	1	0
624.851	1	5
625.020	1	9
625.190	1	2
625.360	1	-9
625.529	1	7
625.699	1	2
625.869	1	1
626.038	1	-3
626.208	1	-1
626.377	1	17
626.547	1	3
626.717	1	1
626.886	1	1
627.056	1	7
627.226	1	-1
627.395	1	-5
627.565	1	11
627.735	1	0
627.904	1	-4
628.074	1	5
628.243	1	11
628.413	1	0
628.583	1	-3
628.752	1	-2
628.922	1	-12
629.091	1	-5
629.261	1	7
629.431	1	2
629.600	1	11
629.770	1	-2
629.940	1	1
630.109	1	9
630.279	1	-1
630.448	1	-2
630.618	1	20
630.788	1	-1
630.957	1	-2
631.127	1	8
631.297	1	3
631.466	1	2
631.636	1	5
631.805	1	14
631.975	1	4
632.145	1	13
632.314	1	3
632.484	1	-1
632.653	1	-7
632.823	1	0
632.993	1	6
633.162	1	6
633.332	1	-3
633.501	1	5
633.671	1	3
633.841	1	9
634.010	1	11
634.180	1	-1
634.349	1	14
634.519	1	-13
634.689	1	1
634.858	1	-2
635.028	1	5
635.197	1	12
635.367	1	-3
635.537	1	-2
635.706	1	7
635.876	1	9
636.045	1	-3
636.215	1	4
636.384	1	7
636.554	1	4
636.724	1	-4
636.893	1	7
637.063	1	3
637.232	1	-3
637.402	1	3
637.572	1	4
637.741	1	6
637.911	1	-1
638.080	1	0
638.250	1	7
638.419	1	11
638.589	1	6
638.759	1	9
638.928	1	-6
639.098	1	-2
639.267	1	2
639.437	1	8
639.606	1	7
639.776	1	-6
639.946	1	13
640.115	1	6
640.285	1	4
640.454	1	-2
640.624	1	15
640.793	1	3
640.963	1	8
641.132	1	-2
641.302	1	11
641.472	1	0
641.641	1	6
641.811	1	5
641.980	1	3
642.150	1	1
642.319	1	7
642.489	1	-8
642.659	1	4
642.828	1	3
642.998	1	-7
643.167	1	0
643.337	1	0
643.506	1	6
643.676	1	4
643.845	1	-5
644.015	1	12
644.184	1	8
644.354	1	5
644.524	1	5
644.693	1	5
644.863	1	0
645.032	1	3
645.202	1	-2
645.371	1	5
645.541	1	4
645.710	1	8
645.880	1	5
646.049	1	3
646.219	1	9
646.388	1	4
646.558	1	0
646.728	1	10
646.897	1	-3
647.067	1	-3
647.236	1	0
647.406	1	0
647.575	1	3
647.745	1	3
647.914	1	14
648.084	1	4
648.253	1	-6
648.423	1	-2
648.592	1	5
648.762	1	12
648.931	1	8
649.101	1	7
649.270	1	5
649.440	1	-8
649.610	1	13
649.779	1	5
649.949	1	1
650.118	1	2
650.288	1	4
650.457	1	7
650.627	1	1
650.796	1	4
650.966	1	-6
651.135	1	12
651.305	1	5
651.474	1	-2
651.644	1	-9
651.813	1	-14
651.983	1	2
652.152	1	-5
652.322	1	7
652.491	1	22
652.661	1	11
652.830	1	9
653.000	1	7
653.169	1	6
653.339	1	-8
653.508	1	2
653.678	1	1
653.847	1	13
654.017	1	6
654.186	1	5
654.356	1	1
654.525	1	5
654.695	1	-3
654.864	1	1
655.034	1	-2
655.203	1	-7
655.373	1	2
655.542	1	15
655.712	1	0
655.881	1	-3
656.051	1	1
656.220	1	6
656.390	1	2
656.559	1	3
656.729	1	0
656.898	1	-2
657.068	1	12
657.237	1	3
657.406	1	7
657.576	1	-2
657.745	1	3
657.915	1	5
658.084	1	5
658.254	1	11
658.423	1	-2
658.593	1	3
658.762	1	-2
658.932	1	15
659.101	1	1
659.271	1	0
659.440	1	5
659.610	1	2
659.779	1	5
659.949	1	-6
660.118	1	4
660.288	1	-1
660.457	1	-7
660.626	1	-11
660.796	1	3
660.965	1	10
661.135	1	2
661.304	1	0
661.474	1	10
661.643	1	2
661.813	1	5
661.982	1	1
662.152	1	-2
662.321	1	2
662.491	1	7
662.660	1	6
662.829	1	-4
662.999	1	1
663.168	1	17
663.338	1	12
663.507	1	-8
663.677	1	2
663.846	1	8
664.016	1	-6
664.185	1	6
664.354	1	4
664.524	1	-6
664.693	1	10
664.863	1	7
665.032	1	7
665.202	1	1
665.371	1	0
665.541	1	12
665.710	1	-2
665.879	1	-6
666.049	1	9
666.218	1	0
666.388	1	4
666.557	1	-4
666.727	1	6
666.896	1	-10
667.065	1	1
667.235	1	8
667.404	1	3
667.574	1	11
667.743	1	3
667.913	1	1
668.082	1	-2
668.251	1	7
668.421	1	-1
668.590	1	11
668.760	1	0
668.929	1	7
669.099	1	14
669.268	1	8
669.437	1	2
669.607	1	5
669.776	1	6
669.946	1	-2
670.115	1	7
670.285	1	8
670.454	1	1
670.623	1	2
670.793	1	3
670.962	1	7
671.132	1	0
671.301	1	1
671.470	1	-5
671.640	1	-6
671.809	1	17
671.979	1	13
672.148	1	2
672.317	1	1
672.487	1	19
672.656	1	2
672.826	1	16
672.995	1	-7
673.164	1	6
673.334	1	3
673.503	1	-3
673.673	1	1
673.842	1	-1
674.011	1	8
674.181	1	-7
674.350	1	3
674.520	1	1
674.689	1	8
674.858	1	1
675.028	1	20
675.197	1	2
675.367	1	10
675.536	1	8
675.705	1	-4
675.875	1	0
676.044	1	0
676.214	1	-4
676.383	1	9
676.552	1	0
676.722	1	3
676.891	1	3
677.060	1	-10
677.230	1	-8
677.399	1	3
677.569	1	6
677.738	1	2
677.907	1	14
678.077	1	-9
678.246	1	5
678.416	1	-1
678.585	1	-5
678.754	1	6
678.924	1	-4
679.093	1	4
679.262	1	9
679.432	1	3
679.601	1	5
679.771	1	-1
679.940	1	4
680.109	1	3
680.279	1	-7
680.448	1	-2
680.617	1	2
680.787	1	8
680.956	1	10
681.125	1	-1
681.295	1	12
681.464	1	3
681.634	1	12
681.803	1	6
681.972	1	6
682.142	1	0
682.311	1	-17
682.480	1	3
682.650	1	7
682.819	1	0
682.988	1	13
683.158	1	6
683.327	1	-5
683.496	1	0
683.666	1	7
683.835	1	6
684.004	1	0
684.174	1	-4
684.343	1	1
684.512	1	18
684.682	1	7
684.851	1	7
685.021	1	2
685.190	1	4
685.359	1	9
685.529	1	7
685.698	1	1
685.867	1	6
686.037	1	10
686.206	1	15
686.375	1	16
686.545	1	6
686.714	1	14
686.883	1	2
687.053	1	1
687.222	1	1
687.391	1	-6
687.561	1	-4
687.730	1	1
687.899	1	1
688.069	1	4
688.238	1	4
688.407	1	5
688.577	1	9
688.746	1	2
