340.368	1	10
340.539	1	-4
340.710	1	5
340.881	1	-5
341.052	1	-12
341.223	1	11
341.394	1	-11
341.565	1	-6
341.737	1	-4
341.908	1	-4
342.079	1	3
342.250	1	-3
342.421	1	-11
342.592	1	12
342.763	1	-3
342.934	1	-2
343.105	1	-10
343.276	1	-7
343.447	1	-4
343.618	1	-14
343.789	1	0
343.960	1	2
344.131	1	13
344.302	1	-2
344.473	1	7
344.644	1	6
344.815	1	1
344.986	1	-3
345.157	1	-1
345.328	1	12
345.499	1	17
345.670	1	-7
345.841	1	6
346.012	1	2
346.183	1	0
346.354	1	2
346.526	1	0
346.697	1	-1
346.868	1	3
347.039	1	0
347.210	1	1
347.381	1	3
347.552	1	5
347.723	1	13
347.894	1	1
348.065	1	5
348.236	1	-5
348.407	1	0
348.578	1	5
348.749	1	-3
348.920	1	11
349.091	1	9
349.262	1	4
349.433	1	6
349.604	1	10
349.775	1	-8
349.946	1	0
350.117	1	7
350.288	1	5
350.459	1	-1
350.630	1	-5
350.801	1	2
350.972	1	5
351.143	1	8
351.314	1	-19
351.485	1	3
351.656	1	-6
351.827	1	3
351.998	1	0
352.169	1	9
352.340	1	5
352.511	1	1
352.682	1	11
352.853	1	11
353.024	1	2
353.195	1	6
353.366	1	-6
353.537	1	1
353.708	1	-5
353.879	1	-8
354.050	1	2
354.221	1	9
354.392	1	3
354.563	1	5
354.734	1	4
354.905	1	11
355.076	1	-6
355.247	1	7
355.418	1	6
355.589	1	-1
355.760	1	-1
355.931	1	8
356.102	1	19
356.273	1	0
356.444	1	3
356.615	1	9
356.785	1	3
356.956	1	2
357.127	1	6
357.298	1	10
357.469	1	-2
357.640	1	1
357.811	1	2
357.982	1	15
358.153	1	-6
358.324	1	6
358.495	1	11
358.666	1	8
358.837	1	6
359.008	1	3
359.179	1	12
359.350	1	-6
359.521	1	-3
359.692	1	6
359.863	1	0
360.034	1	8
360.205	1	15
360.376	1	6
360.547	1	5
360.718	1	-2
360.889	1	9
361.060	1	16
361.231	1	4
361.401	1	2
361.572	1	12
361.743	1	4
361.914	1	10
362.085	1	8
362.256	1	6
362.427	1	7
362.598	1	9
362.769	1	15
362.940	1	-3
363.111	1	19
363.282	1	15
363.453	1	2
363.624	1	16
363.795	1	14
363.966	1	12
364.137	1	8
364.308	1	6
364.478	1	17
364.649	1	15
364.820	1	1
364.991	1	17
365.162	1	8
365.333	1	8
365.504	1	7
365.675	1	13
365.846	1	11
366.017	1	17
366.188	1	13
366.359	1	19
366.530	1	17
366.701	1	9
366.871	1	20
367.042	1	16
367.213	1	8
367.384	1	18
367.555	1	4
367.726	1	20
367.897	1	24
368.068	1	9
368.239	1	13
368.410	1	13
368.581	1	16
368.752	1	22
368.923	1	2
369.093	1	17
369.264	1	12
369.435	1	10
369.606	1	11
369.777	1	22
369.948	1	13
370.119	1	17
370.290	1	21
370.461	1	12
370.632	1	20
370.803	1	20
370.973	1	3
371.144	1	13
371.315	1	25
371.486	1	17
371.657	1	27
371.828	1	16
371.999	1	24
372.170	1	28
372.341	1	20
372.512	1	15
372.682	1	24
372.853	1	8
373.024	1	25
373.195	1	29
373.366	1	22
373.537	1	35
373.708	1	23
373.879	1	23
374.050	1	36
374.220	1	24
374.391	1	25
374.562	1	19
374.733	1	21
374.904	1	29
375.075	1	24
375.246	1	36
375.417	1	38
375.588	1	18
375.758	1	26
375.929	1	24
376.100	1	12
376.271	1	13
376.442	1	23
376.613	1	17
376.784	1	7
376.955	1	19
377.125	1	14
377.296	1	16
377.467	1	10
377.638	1	10
377.809	1	19
377.980	1	5
378.151	1	20
378.321	1	24
378.492	1	16
378.663	1	11
378.834	1	24
379.005	1	20
379.176	1	26
379.347	1	6
379.518	1	14
379.688	1	15
379.859	1	10
380.030	1	18
380.201	1	28
380.372	1	9
380.543	1	19
380.714	1	20
380.884	1	20
381.055	1	7
381.226	1	11
381.397	1	2
381.568	1	5
381.739	1	17
381.910	1	14
382.080	1	23
382.251	1	11
382.422	1	16
382.593	1	13
382.764	1	7
382.935	1	14
383.105	1	24
383.276	1	14
383.447	1	15
383.618	1	8
383.789	1	17
383.960	1	17
384.130	1	13
384.301	1	14
384.472	1	12
384.643	1	12
384.814	1	11
384.985	1	16
385.156	1	18
385.326	1	7
385.497	1	8
385.668	1	11
385.839	1	15
386.010	1	11
386.180	1	14
386.351	1	9
386.522	1	2
386.693	1	5
386.864	1	3
387.035	1	6
387.205	1	10
387.376	1	1
387.547	1	-2
387.718	1	13
387.889	1	20
388.060	1	15
388.230	1	3
388.401	1	6
388.572	1	19
388.743	1	-1
388.914	1	10
389.084	1	6
389.255	1	-8
389.426	1	-1
389.597	1	3
389.768	1	18
389.939	1	12
390.109	1	4
390.280	1	4
390.451	1	0
390.622	1	6
390.793	1	7
390.963	1	-3
391.134	1	1
391.305	1	12
391.476	1	13
391.647	1	11
391.817	1	8
391.988	1	1
392.159	1	3
392.330	1	1
392.501	1	6
392.671	1	-7
392.842	1	3
393.013	1	16
393.184	1	15
393.355	1	-6
393.525	1	9
393.696	1	10
393.867	1	2
394.038	1	8
394.208	1	1
394.379	1	2
394.550	1	-3
394.721	1	13
394.892	1	21
395.062	1	15
395.233	1	-7
395.404	1	-2
395.575	1	9
395.746	1	5
395.916	1	12
396.087	1	4
396.258	1	12
396.429	1	1
396.599	1	6
396.770	1	-4
396.941	1	15
397.112	1	6
397.283	1	2
397.453	1	4
397.624	1	12
397.795	1	11
397.966	1	10
398.136	1	9
398.307	1	4
398.478	1	5
398.649	1	5
398.819	1	4
398.990	1	-7
399.161	1	10
399.332	1	5
399.503	1	0
399.673	1	2
399.844	1	10
400.015	1	1
400.186	1	5
400.356	1	1
400.527	1	5
400.698	1	8
400.869	1	4
401.039	1	8
401.210	1	7
401.381	1	13
401.552	1	7
401.722	1	11
401.893	1	-3
402.064	1	4
402.235	1	-4
402.405	1	4
402.576	1	8
402.747	1	6
402.918	1	9
403.088	1	-10
403.259	1	2
403.430	1	9
403.601	1	4
403.771	1	5
403.942	1	-2
404.113	1	-4
404.284	1	5
404.454	1	13
404.625	1	4
404.796	1	10
404.967	1	1
405.137	1	1
405.308	1	2
405.479	1	0
405.649	1	2
405.820	1	1
405.991	1	3
406.162	1	11
406.332	1	6
406.503	1	-7
406.674	1	15
406.845	1	-1
407.015	1	5
407.186	1	3
407.357	1	10
407.527	1	10
407.698	1	-10
407.869	1	7
408.040	1	0
408.210	1	-1
408.381	1	1
408.552	1	5
408.722	1	-3
408.893	1	3
409.064	1	6
409.235	1	0
409.405	1	-6
409.576	1	7
409.747	1	5
409.917	1	4
410.088	1	-2
410.259	1	-9
410.430	1	8
410.600	1	7
410.771	1	-7
410.942	1	-7
411.112	1	10
411.283	1	0
411.454	1	4
411.625	1	6
411.795	1	0
411.966	1	8
412.137	1	6
412.307	1	-7
412.478	1	-7
412.649	1	5
412.819	1	9
412.990	1	1
413.161	1	6
413.332	1	11
413.502	1	-3
413.673	1	5
413.844	1	2
414.014	1	11
414.185	1	-5
414.356	1	4
414.526	1	13
414.697	1	7
414.868	1	3
415.038	1	5
415.209	1	8
415.380	1	-2
415.550	1	3
415.721	1	1
415.892	1	6
416.063	1	2
416.233	1	13
416.404	1	-1
416.575	1	12
416.745	1	0
416.916	1	-4
417.087	1	9
417.257	1	5
417.428	1	-9
417.599	1	11
417.769	1	-2
417.940	1	3
418.111	1	11
418.281	1	8
418.452	1	-2
418.623	1	-2
418.793	1	3
418.964	1	1
419.135	1	-2
419.305	1	5
419.476	1	1
419.647	1	-4
419.817	1	-3
419.988	1	1
420.159	1	13
420.329	1	5
420.500	1	-9
420.671	1	8
420.841	1	1
421.012	1	7
421.183	1	6
421.353	1	0
421.524	1	0
421.695	1	5
421.865	1	6
422.036	1	7
422.206	1	0
422.377	1	2
422.548	1	1
422.718	1	3
422.889	1	2
423.060	1	2
423.230	1	1
423.401	1	9
423.572	1	-3
423.742	1	9
423.913	1	8
424.084	1	3
424.254	1	-5
424.425	1	12
424.595	1	0
424.766	1	11
424.937	1	3
425.107	1	-3
425.278	1	9
425.449	1	1
425.619	1	-1
425.790	1	9
425.961	1	4
426.131	1	0
426.302	1	8
426.472	1	3
426.643	1	-2
426.814	1	10
426.984	1	8
427.155	1	5
427.326	1	9
427.496	1	6
427.667	1	5
427.837	1	0
428.008	1	2
428.179	1	-5
428.349	1	2
428.520	1	-3
428.691	1	8
428.861	1	13
429.032	1	4
429.202	1	0
429.373	1	-1
429.544	1	3
429.714	1	3
429.885	1	7
430.055	1	9
430.226	1	4
430.397	1	-11
430.567	1	3
430.738	1	7
430.909	1	0
431.079	1	5
431.250	1	6
431.420	1	0
431.591	1	-1
431.762	1	-1
431.932	1	11
432.103	1	10
432.273	1	4
432.444	1	4
432.615	1	-5
432.785	1	4
432.956	1	8
433.126	1	9
433.297	1	-4
433.468	1	-5
433.638	1	-4
433.809	1	4
433.979	1	-1
434.150	1	6
434.320	1	4
434.491	1	8
434.662	1	-4
434.832	1	-5
435.003	1	6
435.173	1	6
435.344	1	6
435.515	1	-7
435.685	1	-3
435.856	1	3
436.026	1	1
436.197	1	7
436.368	1	-3
436.538	1	0
436.709	1	0
436.879	1	-1
437.050	1	5
437.220	1	16
437.391	1	9
437.562	1	9
437.732	1	0
437.903	1	4
438.073	1	-9
438.244	1	3
438.414	1	15
438.585	1	6
438.756	1	2
438.926	1	8
439.097	1	-5
439.267	1	-3
439.438	1	12
439.608	1	5
439.779	1	10
439.949	1	-1
440.120	1	-3
440.291	1	15
440.461	1	4
440.632	1	-2
440.802	1	8
440.973	1	4
441.143	1	-1
441.314	1	11
441.485	1	2
441.655	1	8
441.826	1	8
441.996	1	13
442.167	1	-1
442.337	1	11
442.508	1	10
442.678	1	-6
442.849	1	4
443.019	1	-1
443.190	1	7
443.361	1	6
443.531	1	6
443.702	1	8
443.872	1	14
444.043	1	1
444.213	1	7
444.384	1	-6
444.554	1	-13
444.725	1	-1
444.895	1	5
445.066	1	1
445.237	1	4
445.407	1	8
445.578	1	8
445.748	1	9
445.919	1	12
446.089	1	7
446.260	1	-3
446.430	1	11
446.601	1	8
446.771	1	3
446.942	1	11
447.112	1	7
447.283	1	13
447.453	1	1
447.624	1	1
447.794	1	12
447.965	1	-7
448.135	1	-8
448.306	1	4
448.477	1	13
448.647	1	5
448.818	1	-3
448.988	1	-1
449.159	1	6
449.329	1	5
449.500	1	7
449.670	1	12
449.841	1	8
450.011	1	9
450.182	1	4
450.352	1	6
450.523	1	3
450.693	1	3
450.864	1	4
451.034	1	4
451.205	1	2
451.375	1	-7
451.546	1	1
451.716	1	6
451.887	1	6
452.057	1	6
452.228	1	8
452.398	1	8
452.569	1	0
452.739	1	4
452.910	1	-1
453.080	1	7
453.251	1	9
453.421	1	-7
453.592	1	-1
453.762	1	10
453.933	1	4
454.103	1	4
454.274	1	-2
454.444	1	0
454.615	1	10
454.785	1	-1
454.956	1	-6
455.126	1	8
455.297	1	9
455.467	1	-3
455.638	1	2
455.808	1	10
455.979	1	0
456.149	1	-4
456.320	1	-4
456.490	1	-1
456.661	1	4
456.831	1	-2
457.001	1	10
457.172	1	6
457.342	1	0
457.513	1	-4
457.683	1	8
457.854	1	5
458.024	1	-3
458.195	1	-1
458.365	1	9
458.536	1	2
458.706	1	3
458.877	1	10
459.047	1	-4
459.218	1	-4
459.388	1	2
459.559	1	12
459.729	1	6
459.899	1	-6
460.070	1	10
460.240	1	10
460.411	1	5
460.581	1	-2
460.752	1	3
460.922	1	11
461.093	1	5
461.263	1	3
461.434	1	-1
461.604	1	-6
461.775	1	-7
461.945	1	1
462.115	1	-9
462.286	1	9
462.456	1	5
462.627	1	0
462.797	1	-3
462.968	1	6
463.138	1	4
463.309	1	-1
463.479	1	3
463.649	1	2
463.820	1	-14
463.990	1	6
464.161	1	-1
464.331	1	8
464.502	1	1
464.672	1	3
464.843	1	15
465.013	1	9
465.183	1	-4
465.354	1	3
465.524	1	7
465.695	1	6
465.865	1	-4
466.036	1	7
466.206	1	8
466.376	1	9
466.547	1	1
466.717	1	-1
466.888	1	1
467.058	1	3
467.229	1	10
467.399	1	8
467.569	1	18
467.740	1	-14
467.910	1	-9
468.081	1	5
468.251	1	6
468.422	1	4
468.592	1	8
468.762	1	14
468.933	1	3
469.103	1	-2
469.274	1	2
469.444	1	12
469.614	1	1
469.785	1	-2
469.955	1	4
470.126	1	-2
470.296	1	0
470.467	1	-2
470.637	1	12
470.807	1	-6
470.978	1	0
471.148	1	11
471.319	1	-4
471.489	1	4
471.659	1	-2
471.830	1	6
472.000	1	0
472.171	1	12
472.341	1	-9
472.511	1	2
472.682	1	5
472.852	1	4
473.023	1	-1
473.193	1	-4
473.363	1	9
473.534	1	-7
473.704	1	-3
473.875	1	9
474.045	1	-2
474.215	1	8
474.386	1	8
474.556	1	-3
474.727	1	12
474.897	1	0
475.067	1	3
475.238	1	5
475.408	1	1
475.578	1	1
475.749	1	11
475.919	1	3
476.090	1	10
476.260	1	2
476.430	1	-5
476.601	1	0
476.771	1	0
476.942	1	9
477.112	1	5
477.282	1	-2
477.453	1	7
477.623	1	4
477.793	1	7
477.964	1	-7
478.134	1	4
478.305	1	-6
478.475	1	-8
478.645	1	4
478.816	1	16
478.986	1	0
479.156	1	-6
479.327	1	-15
479.497	1	9
479.667	1	-5
479.838	1	5
480.008	1	-2
480.179	1	6
480.349	1	-7
480.519	1	3
480.690	1	-3
480.860	1	8
481.030	1	-1
481.201	1	-1
481.371	1	2
481.541	1	1
481.712	1	-4
481.882	1	-2
482.053	1	15
482.223	1	-3
482.393	1	3
482.564	1	-2
482.734	1	7
482.904	1	-10
483.075	1	-1
483.245	1	9
483.415	1	1
483.586	1	4
483.756	1	1
483.926	1	0
484.097	1	7
484.267	1	-9
484.437	1	8
484.608	1	-4
484.778	1	9
484.948	1	2
485.119	1	2
485.289	1	-11
485.459	1	8
485.630	1	8
485.800	1	2
485.970	1	-2
486.141	1	-2
486.311	1	-4
486.481	1	-9
486.652	1	5
486.822	1	9
486.992	1	-3
487.163	1	2
487.333	1	11
487.503	1	3
487.674	1	12
487.844	1	4
488.014	1	0
488.185	1	11
488.355	1	-2
488.525	1	-3
488.696	1	6
488.866	1	-1
489.036	1	-6
489.207	1	9
489.377	1	-5
489.547	1	17
489.718	1	2
489.888	1	15
490.058	1	-7
490.228	1	5
490.399	1	1
490.569	1	13
490.739	1	0
490.910	1	2
491.080	1	3
491.250	1	7
491.421	1	-2
491.591	1	8
491.761	1	2
491.932	1	5
492.102	1	3
492.272	1	-5
492.442	1	-2
492.613	1	13
492.783	1	9
492.953	1	11
493.124	1	3
493.294	1	-1
493.464	1	9
493.635	1	0
493.805	1	0
493.975	1	-2
494.145	1	-6
494.316	1	0
494.486	1	-6
494.656	1	2
494.827	1	-2
494.997	1	8
495.167	1	1
495.337	1	6
495.508	1	6
495.678	1	6
495.848	1	-1
496.019	1	-5
496.189	1	10
496.359	1	4
496.529	1	7
496.700	1	1
496.870	1	7
497.040	1	-8
497.211	1	-1
497.381	1	5
497.551	1	-7
497.721	1	14
497.892	1	10
498.062	1	13
498.232	1	-6
498.403	1	1
498.573	1	1
498.743	1	14
498.913	1	-1
499.084	1	-7
499.254	1	-11
499.424	1	7
499.594	1	16
499.765	1	-9
499.935	1	6
500.105	1	1
500.275	1	-3
500.446	1	3
500.616	1	3
500.786	1	-2
500.956	1	14
501.127	1	-7
501.297	1	9
501.467	1	0
501.638	1	-5
501.808	1	-12
501.978	1	-5
502.148	1	5
502.319	1	7
502.489	1	0
502.659	1	-6
502.829	1	12
503.000	1	9
503.170	1	6
503.340	1	0
503.510	1	10
503.681	1	-2
503.851	1	3
504.021	1	4
504.191	1	-1
504.362	1	0
504.532	1	-2
504.702	1	16
504.872	1	-4
505.042	1	-7
505.213	1	7
505.383	1	-7
505.553	1	0
505.723	1	-5
505.894	1	2
506.064	1	-1
506.234	1	11
506.404	1	-3
506.575	1	-4
506.745	1	-6
506.915	1	0
507.085	1	1
507.256	1	4
507.426	1	0
507.596	1	3
507.766	1	7
507.936	1	-5
508.107	1	1
508.277	1	-13
508.447	1	0
508.617	1	6
508.788	1	-8
508.958	1	7
509.128	1	6
509.298	1	3
509.468	1	-1
509.639	1	5
509.809	1	5
509.979	1	6
510.149	1	10
510.319	1	-6
510.490	1	4
510.660	1	-1
510.830	1	5
511.000	1	0
511.171	1	-8
511.341	1	0
511.511	1	12
511.681	1	-2
511.851	1	9
512.022	1	-1
512.192	1	3
512.362	1	7
512.532	1	-1
512.702	1	1
512.873	1	-2
513.043	1	6
513.213	1	4
513.383	1	-4
513.553	1	-2
513.724	1	5
513.894	1	1
514.064	1	-6
514.234	1	-2
514.404	1	3
514.575	1	9
514.745	1	-13
514.915	1	-9
515.085	1	6
515.255	1	6
515.425	1	5
515.596	1	-7
515.766	1	1
515.936	1	1
516.106	1	5
516.276	1	8
516.447	1	10
516.617	1	-2
516.787	1	3
516.957	1	11
517.127	1	6
517.297	1	8
517.468	1	8
517.638	1	1
517.808	1	9
517.978	1	7
518.148	1	7
518.319	1	7
518.489	1	8
518.659	1	12
518.829	1	3
518.999	1	-4
519.169	1	-7
519.340	1	0
519.510	1	-12
519.680	1	2
519.850	1	-2
520.020	1	13
520.190	1	-3
520.361	1	7
520.531	1	-7
520.701	1	5
520.871	1	-14
521.041	1	-1
521.211	1	0
521.382	1	-3
521.552	1	3
521.722	1	12
521.892	1	-4
522.062	1	1
522.232	1	4
522.402	1	7
522.573	1	8
522.743	1	3
522.913	1	-6
523.083	1	-3
523.253	1	-8
523.423	1	14
523.593	1	0
523.764	1	4
523.934	1	5
524.104	1	15
524.274	1	1
524.444	1	-2
524.614	1	3
524.784	1	8
524.955	1	10
525.125	1	4
525.295	1	13
525.465	1	-8
525.635	1	-6
525.805	1	5
525.975	1	-1
526.146	1	-2
526.316	1	-7
526.486	1	6
526.656	1	6
526.826	1	-5
526.996	1	12
527.166	1	17
527.337	1	11
527.507	1	-5
527.677	1	7
527.847	1	-7
528.017	1	-18
528.187	1	-4
528.357	1	7
528.527	1	-2
528.698	1	3
528.868	1	5
529.038	1	0
529.208	1	12
529.378	1	1
529.548	1	-8
529.718	1	-5
529.888	1	4
530.058	1	5
530.229	1	5
530.399	1	0
530.569	1	-6
530.739	1	-3
530.909	1	-3
531.079	1	-13
531.249	1	0
531.419	1	2
531.589	1	-11
531.760	1	10
531.930	1	-1
532.100	1	2
532.270	1	7
532.440	1	0
532.610	1	11
532.780	1	-15
532.950	1	-6
533.120	1	18
533.290	1	3
533.461	1	-7
533.631	1	-4
533.801	1	2
533.971	1	4
534.141	1	-4
534.311	1	2
534.481	1	1
534.651	1	-6
534.821	1	-6
534.991	1	-5
535.162	1	8
535.332	1	0
535.502	1	-4
535.672	1	-3
535.842	1	6
536.012	1	1
536.182	1	6
536.352	1	10
536.522	1	1
536.692	1	4
536.862	1	7
537.032	1	5
537.203	1	0
537.373	1	12
537.543	1	11
537.713	1	8
537.883	1	-3
538.053	1	0
538.223	1	7
538.393	1	-3
538.563	1	2
538.733	1	6
538.903	1	-1
539.073	1	2
539.243	1	-11
539.413	1	-5
539.584	1	13
539.754	1	-4
539.924	1	3
540.094	1	-4
540.264	1	0
540.434	1	4
540.604	1	6
540.774	1	16
540.944	1	3
541.114	1	-7
541.284	1	-1
541.454	1	-6
541.624	1	3
541.794	1	7
541.964	1	10
542.134	1	7
542.305	1	10
542.475	1	9
542.645	1	8
542.815	1	6
542.985	1	4
543.155	1	-1
543.325	1	-6
543.495	1	8
543.665	1	6
543.835	1	1
544.005	1	3
544.175	1	2
544.345	1	-6
544.515	1	3
544.685	1	-7
544.855	1	8
545.025	1	13
545.195	1	7
545.365	1	-5
545.535	1	-2
545.705	1	5
545.875	1	-5
546.045	1	-5
546.216	1	-1
546.386	1	3
546.556	1	12
546.726	1	3
546.896	1	8
547.066	1	3
547.236	1	9
547.406	1	-2
547.576	1	1
547.746	1	4
547.916	1	7
548.086	1	5
548.256	1	8
548.426	1	8
548.596	1	5
548.766	1	1
548.936	1	-1
549.106	1	8
549.276	1	-1
549.446	1	-6
549.616	1	3
549.786	1	12
549.956	1	10
550.126	1	18
550.296	1	11
550.466	1	-7
550.636	1	9
550.806	1	-9
550.976	1	-5
551.146	1	-5
551.316	1	13
551.486	1	0
551.656	1	-5
551.826	1	9
551.996	1	3
552.166	1	14
552.336	1	-6
552.506	1	-2
552.676	1	13
552.846	1	9
553.016	1	3
553.186	1	2
553.356	1	-6
553.526	1	4
553.696	1	10
553.866	1	6
554.036	1	-1
554.206	1	2
554.376	1	-6
554.546	1	5
554.716	1	-6
554.886	1	19
555.056	1	10
555.226	1	10
555.396	1	-6
555.566	1	10
555.736	1	1
555.906	1	2
556.076	1	0
556.246	1	4
556.416	1	5
556.586	1	-5
556.756	1	3
556.926	1	12
557.096	1	2
557.266	1	2
557.436	1	-5
557.606	1	-3
557.776	1	-8
557.946	1	2
558.116	1	3
558.286	1	-1
558.456	1	2
558.626	1	8
558.796	1	-1
558.966	1	5
559.136	1	4
559.306	1	8
559.476	1	1
559.646	1	0
559.816	1	-6
559.986	1	3
560.155	1	0
560.325	1	-1
560.495	1	4
560.665	1	-2
560.835	1	6
561.005	1	3
561.175	1	3
561.345	1	-6
561.515	1	-2
561.685	1	0
561.855	1	-7
562.025	1	7
562.195	1	14
562.365	1	-5
562.535	1	0
562.705	1	7
562.875	1	2
563.045	1	-12
563.215	1	0
563.385	1	8
563.555	1	14
563.725	1	7
563.895	1	5
564.064	1	17
564.234	1	3
564.404	1	-12
564.574	1	19
564.744	1	-2
564.914	1	3
565.084	1	7
565.254	1	10
565.424	1	-5
565.594	1	7
565.764	1	0
565.934	1	4
566.104	1	3
566.274	1	-1
566.444	1	3
566.614	1	-7
566.783	1	-5
566.953	1	6
567.123	1	-2
567.293	1	7
567.463	1	10
567.633	1	5
567.803	1	-1
567.973	1	2
568.143	1	-10
568.313	1	-2
568.483	1	0
568.653	1	-1
568.823	1	0
568.993	1	9
569.162	1	6
569.332	1	-7
569.502	1	0
569.672	1	0
569.842	1	1
570.012	1	-7
570.182	1	-1
570.352	1	11
570.522	1	-1
570.692	1	-8
570.862	1	14
571.031	1	-5
571.201	1	5
571.371	1	-7
571.541	1	7
571.711	1	-4
571.881	1	3
572.051	1	-1
572.221	1	7
572.391	1	-9
572.561	1	15
572.731	1	2
572.900	1	-7
573.070	1	1
573.240	1	4
573.410	1	1
573.580	1	1
573.750	1	-3
573.920	1	-6
574.090	1	-6
574.260	1	-1
574.430	1	3
574.599	1	-2
574.769	1	-5
574.939	1	4
575.109	1	1
575.279	1	0
575.449	1	-1
575.619	1	0
575.789	1	-4
575.959	1	-12
576.128	1	-1
576.298	1	-2
576.468	1	11
576.638	1	-4
576.808	1	5
576.978	1	5
577.148	1	2
577.318	1	-5
577.487	1	-7
577.657	1	8
577.827	1	6
577.997	1	5
578.167	1	3
578.337	1	0
578.507	1	11
578.677	1	1
578.846	1	7
579.016	1	6
579.186	1	14
579.356	1	0
579.526	1	4
579.696	1	7
579.866	1	8
580.036	1	11
580.205	1	1
580.375	1	5
580.545	1	7
580.715	1	4
580.885	1	8
581.055	1	-5
581.225	1	-9
581.394	1	-7
581.564	1	-8
581.734	1	-4
581.904	1	5
582.074	1	7
582.244	1	14
582.414	1	13
582.583	1	6
582.753	1	-6
582.923	1	-3
583.093	1	2
583.263	1	-3
583.433	1	-7
583.603	1	2
583.772	1	2
583.942	1	6
584.112	1	8
584.282	1	4
584.452	1	3
584.622	1	9
584.791	1	5
584.961	1	6
585.131	1	7
585.301	1	4
585.471	1	4
585.641	1	6
585.811	1	6
585.980	1	-6
586.150	1	6
586.320	1	-2
586.490	1	-1
586.660	1	-3
586.830	1	6
586.999	1	-5
587.169	1	2
587.339	1	-3
587.509	1	9
587.679	1	10
587.849	1	0
588.018	1	-4
588.188	1	1
588.358	1	0
588.528	1	-3
588.698	1	-7
588.867	1	-3
589.037	1	10
589.207	1	0
589.377	1	12
589.547	1	7
589.717	1	9
589.886	1	-3
590.056	1	-7
590.226	1	5
590.396	1	5
590.566	1	5
590.735	1	-1
590.905	1	2
591.075	1	-1
591.245	1	-1
591.415	1	0
591.585	1	0
591.754	1	-8
591.924	1	-6
592.094	1	3
592.264	1	0
592.434	1	12
592.603	1	14
592.773	1	12
592.943	1	-8
593.113	1	-2
593.283	1	0
593.452	1	6
593.622	1	-1
593.792	1	-2
593.962	1	8
594.132	1	-6
594.301	1	2
594.471	1	6
594.641	1	9
594.811	1	-5
594.981	1	2
595.150	1	-9
595.320	1	2
595.490	1	-7
595.660	1	-14
595.829	1	12
595.999	1	-2
596.169	1	-9
596.339	1	-4
596.509	1	2
596.678	1	1
596.848	1	8
597.018	1	-4
597.188	1	-3
597.358	1	6
597.527	1	19
597.697	1	-3
597.867	1	2
598.037	1	1
598.206	1	0
598.376	1	2
598.546	1	2
598.716	1	-1
598.885	1	13
599.055	1	8
599.225	1	5
599.395	1	4
599.565	1	1
599.734	1	1
599.904	1	0
600.074	1	4
600.244	1	9
600.413	1	-5
600.583	1	-1
600.753	1	6
600.923	1	-3
601.092	1	2
601.262	1	-6
601.432	1	4
601.602	1	9
601.771	1	-2
601.941	1	5
602.111	1	3
602.281	1	14
602.451	1	6
602.620	1	6
602.790	1	-5
602.960	1	-11
603.130	1	-2
603.299	1	2
603.469	1	0
603.639	1	-1
603.809	1	13
603.978	1	1
604.148	1	3
604.318	1	4
604.487	1	-1
604.657	1	11
604.827	1	3
604.997	1	-1
605.166	1	-8
605.336	1	6
605.506	1	1
605.676	1	3
605.845	1	0
606.015	1	-8
606.185	1	5
606.355	1	-1
606.524	1	4
606.694	1	-8
606.864	1	12
607.034	1	6
607.203	1	9
607.373	1	-8
607.543	1	-13
607.712	1	-4
607.882	1	-9
608.052	1	7
608.222	1	4
608.391	1	16
608.561	1	16
608.731	1	1
608.901	1	-3
609.070	1	14
609.240	1	-1
609.410	1	1
609.579	1	-4
609.749	1	-2
609.919	1	4
610.089	1	-2
610.258	1	0
610.428	1	2
610.598	1	9
610.767	1	2
610.937	1	7
611.107	1	2
611.277	1	1
611.446	1	-2
611.616	1	3
611.786	1	1
611.955	1	7
612.125	1	3
612.295	1	9
612.465	1	-4
612.634	1	5
612.804	1	-5
612.974	1	-6
613.143	1	6
613.313	1	-5
613.483	1	-5
613.652	1	0
613.822	1	-2
613.992	1	-7
614.162	1	5
614.331	1	0
614.501	1	2
614.671	1	11
614.840	1	7
615.010	1	0
615.180	1	5
615.349	1	-2
615.519	1	5
615.689	1	20
615.858	1	-2
616.028	1	-5
616.198	1	5
616.368	1	12
616.537	1	-10
616.707	1	8
616.877	1	2
617.046	1	-2
617.216	1	4
617.386	1	8
617.555	1	6
617.725	1	-3
617.895	1	7
618.064	1	1
618.234	1	-2
618.404	1	1
618.573	1	9
618.743	1	4
618.913	1	8
619.082	1	-7
619.252	1	3
619.422	1	-2
619.591	1	-4
619.761	1	-11
619.931	1	9
620.100	1	0
620.270	1	-4
620.440	1	1
620.609	1	2
620.779	1	4
620.949	1	-3
621.118	1	-1
621.288	1	5
621.458	1	3
621.627	1	1
621.797	1	3
621.967	1	9
622.136	1	-8
622.306	1	5
622.476	1	10
622.645	1	0
622.815	1	-5
622.985	1	-4
623.154	1	-1
623.324	1	2
623.494	1	8
623.663	1	9
623.833	1	6
624.002	1	-6
624.172	1	-7
624.342	1	-14
624.511	1	-6
624.681	1	7
624.851	1	5
625.020	1	-9
625.190	1	-3
625.360	1	0
625.529	1	6
625.699	1	-2
625.869	1	5
626.038	1	-2
626.208	1	2
626.377	1	15
626.547	1	-1
626.717	1	-8
626.886	1	-4
627.056	1	0
627.226	1	-3
627.395	1	-5
627.565	1	4
627.735	1	8
627.904	1	0
628.074	1	0
628.243	1	-1
628.413	1	5
628.583	1	-12
628.752	1	1
628.922	1	-8
629.091	1	2
629.261	1	-2
629.431	1	9
629.600	1	19
629.770	1	-6
629.940	1	-7
630.109	1	6
630.279	1	-4
630.448	1	-6
630.618	1	11
630.788	1	4
630.957	1	11
631.127	1	10
631.297	1	-7
631.466	1	-3
631.636	1	-2
631.805	1	12
631.975	1	0
632.145	1	12
632.314	1	1
632.484	1	-1
632.653	1	-1
632.823	1	2
632.993	1	6
633.162	1	-5
633.332	1	0
633.501	1	-6
633.671	1	-3
633.841	1	5
634.010	1	9
634.180	1	-2
634.349	1	6
634.519	1	-7
634.689	1	1
634.858	1	-9
635.028	1	7
635.197	1	3
635.367	1	-5
635.537	1	-1
635.706	1	17
635.876	1	12
636.045	1	0
636.215	1	6
636.384	1	6
636.554	1	2
636.724	1	-6
636.893	1	-7
637.063	1	1
637.232	1	-3
637.402	1	2
637.572	1	-2
637.741	1	-4
637.911	1	2
638.080	1	2
638.250	1	3
638.419	1	0
638.589	1	6
638.759	1	4
638.928	1	-1
639.098	1	2
639.267	1	5
639.437	1	-3
639.606	1	-2
639.776	1	-8
639.946	1	2
640.115	1	0
640.285	1	-7
640.454	1	1
640.624	1	11
640.793	1	11
640.963	1	13
641.132	1	-9
641.302	1	16
641.472	1	-4
641.641	1	6
641.811	1	7
641.980	1	5
642.150	1	2
642.319	1	2
642.489	1	2
642.659	1	2
642.828	1	0
642.998	1	-2
643.167	1	6
643.337	1	-3
643.506	1	4
643.676	1	2
643.845	1	4
644.015	1	0
644.184	1	5
644.354	1	8
644.524	1	5
644.693	1	5
644.863	1	0
645.032	1	-2
645.202	1	3
645.371	1	8
645.541	1	5
645.710	1	6
645.880	1	-1
646.049	1	5
646.219	1	11
646.388	1	-2
646.558	1	3
646.728	1	0
646.897	1	-9
647.067	1	0
647.236	1	-5
647.406	1	5
647.575	1	3
647.745	1	3
647.914	1	4
648.084	1	-8
648.253	1	-3
648.423	1	-4
648.592	1	3
648.762	1	6
648.931	1	9
649.101	1	3
649.270	1	0
649.440	1	-4
649.610	1	-1
649.779	1	9
649.949	1	5
650.118	1	5
650.288	1	3
650.457	1	4
650.627	1	-6
650.796	1	12
650.966	1	-5
651.135	1	10
651.305	1	1
651.474	1	5
651.644	1	-11
651.813	1	-1
651.983	1	7
652.152	1	-4
652.322	1	1
652.491	1	17
652.661	1	8
652.830	1	6
653.000	1	-1
653.169	1	-5
653.339	1	2
653.508	1	1
653.678	1	3
653.847	1	10
654.017	1	3
654.186	1	9
654.356	1	-3
654.525	1	13
654.695	1	-3
654.864	1	-5
655.034	1	6
655.203	1	1
655.373	1	5
655.542	1	9
655.712	1	10
655.881	1	-4
656.051	1	-10
656.220	1	7
656.390	1	4
656.559	1	6
656.729	1	-5
656.898	1	4
657.068	1	7
657.237	1	7
657.406	1	6
657.576	1	-1
657.745	1	-4
657.915	1	0
658.084	1	4
658.254	1	0
658.423	1	2
658.593	1	-2
658.762	1	-5
658.932	1	9
659.101	1	8
659.271	1	5
659.440	1	0
659.610	1	12
659.779	1	2
659.949	1	-3
660.118	1	-2
660.288	1	9
660.457	1	-4
660.626	1	-4
660.796	1	2
660.965	1	16
661.135	1	0
661.304	1	2
661.474	1	6
661.643	1	-3
661.813	1	6
661.982	1	-6
662.152	1	-4
662.321	1	3
662.491	1	6
662.660	1	-10
662.829	1	-5
662.999	1	0
663.168	1	7
663.338	1	1
663.507	1	-11
663.677	1	5
663.846	1	2
664.016	1	-3
664.185	1	6
664.354	1	-4
664.524	1	-16
664.693	1	11
664.863	1	3
665.032	1	5
665.202	1	8
665.371	1	0
665.541	1	11
665.710	1	2
665.879	1	2
666.049	1	11
666.218	1	-9
666.388	1	-1
666.557	1	1
666.727	1	0
666.896	1	5
667.065	1	-8
667.235	1	5
667.404	1	5
667.574	1	9
667.743	1	-5
667.913	1	-1
668.082	1	4
668.251	1	9
668.421	1	-7
668.590	1	14
668.760	1	2
668.929	1	12
669.099	1	0
669.268	1	7
669.437	1	1
669.607	1	-1
669.776	1	-8
669.946	1	-5
670.115	1	-2
670.285	1	-1
670.454	1	-7
670.623	1	1
670.793	1	1
670.962	1	9
671.132	1	-5
671.301	1	-3
671.470	1	8
671.640	1	-4
671.809	1	14
671.979	1	4
672.148	1	0
672.317	1	4
672.487	1	15
672.656	1	3
672.826	1	2
672.995	1	-11
673.164	1	4
673.334	1	10
673.503	1	-6
673.673	1	4
673.842	1	-5
674.011	1	-2
674.181	1	-12
674.350	1	6
674.520	1	4
674.689	1	-1
674.858	1	8
675.028	1	10
675.197	1	1
675.367	1	2
675.536	1	2
675.705	1	2
675.875	1	3
676.044	1	5
676.214	1	-10
676.383	1	7
676.552	1	-4
676.722	1	2
676.891	1	-4
677.060	1	-12
677.230	1	-3
677.399	1	-8
677.569	1	9
677.738	1	-12
677.907	1	1
678.077	1	-5
678.246	1	-3
678.416	1	2
678.585	1	-7
678.754	1	4
678.924	1	-4
679.093	1	12
679.262	1	3
679.432	1	1
679.601	1	-2
679.771	1	-1
679.940	1	-8
680.109	1	1
680.279	1	-9
680.448	1	-7
680.617	1	6
680.787	1	7
680.956	1	2
681.125	1	4
681.295	1	-2
681.464	1	8
681.634	1	11
681.803	1	2
681.972	1	7
682.142	1	0
682.311	1	4
682.480	1	2
682.650	1	3
682.819	1	-6
682.988	1	11
683.158	1	-2
683.327	1	4
683.496	1	14
683.666	1	6
683.835	1	-4
684.004	1	6
684.174	1	1
684.343	1	-5
684.512	1	9
684.682	1	7
684.851	1	8
685.021	1	3
685.190	1	12
685.359	1	14
685.529	1	5
685.698	1	4
685.867	1	3
686.037	1	5
686.206	1	1
686.375	1	16
686.545	1	3
686.714	1	9
686.883	1	6
687.053	1	8
687.222	1	-3
687.391	1	3
687.561	1	-6
687.730	1	4
687.899	1	-4
688.069	1	1
688.238	1	5
688.407	1	7
688.577	1	8
688.746	1	0
