340.368	1	-2
340.539	1	2
340.710	1	3
340.881	1	-3
341.052	1	-10
341.223	1	15
341.394	1	-7
341.565	1	-10
341.737	1	12
341.908	1	5
342.079	1	1
342.250	1	-3
342.421	1	-6
342.592	1	5
342.763	1	-7
342.934	1	-9
343.105	1	-13
343.276	1	7
343.447	1	-8
343.618	1	-17
343.789	1	-3
343.960	1	-4
344.131	1	-2
344.302	1	-5
344.473	1	2
344.644	1	4
344.815	1	5
344.986	1	9
345.157	1	-3
345.328	1	7
345.499	1	10
345.670	1	-7
345.841	1	-1
346.012	1	-8
346.183	1	-7
346.354	1	8
346.526	1	-5
346.697	1	-10
346.868	1	1
347.039	1	6
347.210	1	-7
347.381	1	6
347.552	1	3
347.723	1	5
347.894	1	-4
348.065	1	-4
348.236	1	-2
348.407	1	2
348.578	1	5
348.749	1	0
348.920	1	5
349.091	1	7
349.262	1	0
349.433	1	3
349.604	1	3
349.775	1	-11
349.946	1	-1
350.117	1	4
350.288	1	-7
350.459	1	5
350.630	1	-7
350.801	1	2
350.972	1	9
351.143	1	4
351.314	1	-8
351.485	1	-2
351.656	1	1
351.827	1	-8
351.998	1	1
352.169	1	7
352.340	1	6
352.511	1	-7
352.682	1	4
352.853	1	-7
353.024	1	10
353.195	1	2
353.366	1	1
353.537	1	5
353.708	1	5
353.879	1	1
354.050	1	10
354.221	1	-1
354.392	1	-2
354.563	1	-2
354.734	1	8
354.905	1	15
355.076	1	-4
355.247	1	-3
355.418	1	-4
355.589	1	1
355.760	1	5
355.931	1	8
356.102	1	4
356.273	1	-6
356.444	1	1
356.615	1	-4
356.785	1	-1
356.956	1	2
357.127	1	10
357.298	1	-2
357.469	1	5
357.640	1	-1
357.811	1	-4
357.982	1	13
358.153	1	-7
358.324	1	9
358.495	1	0
358.666	1	5
358.837	1	0
359.008	1	11
359.179	1	1
359.350	1	-1
359.521	1	0
359.692	1	3
359.863	1	-9
360.034	1	-2
360.205	1	11
360.376	1	5
360.547	1	8
360.718	1	-9
360.889	1	8
361.060	1	8
361.231	1	4
361.401	1	-7
361.572	1	6
361.743	1	-1
361.914	1	8
362.085	1	-4
362.256	1	10
362.427	1	3
362.598	1	-3
362.769	1	16
362.940	1	-6
363.111	1	6
363.282	1	1
363.453	1	2
363.624	1	14
363.795	1	5
363.966	1	7
364.137	1	2
364.308	1	-1
364.478	1	-4
364.649	1	7
364.820	1	3
364.991	1	9
365.162	1	-1
365.333	1	-1
365.504	1	8
365.675	1	2
365.846	1	5
366.017	1	16
366.188	1	7
366.359	1	7
366.530	1	3
366.701	1	4
366.871	1	6
367.042	1	5
367.213	1	2
367.384	1	1
367.555	1	-6
367.726	1	12
367.897	1	14
368.068	1	-6
368.239	1	9
368.410	1	10
368.581	1	7
368.752	1	14
368.923	1	-16
369.093	1	3
369.264	1	0
369.435	1	7
369.606	1	-1
369.777	1	10
369.948	1	15
370.119	1	12
370.290	1	6
370.461	1	10
370.632	1	20
370.803	1	7
370.973	1	4
371.144	1	2
371.315	1	6
371.486	1	4
371.657	1	9
371.828	1	12
371.999	1	7
372.170	1	8
372.341	1	11
372.512	1	2
372.682	1	-2
372.853	1	10
373.024	1	16
373.195	1	16
373.366	1	13
373.537	1	8
373.708	1	9
373.879	1	4
374.050	1	20
374.220	1	2
374.391	1	8
374.562	1	-10
374.733	1	6
374.904	1	1
375.075	1	8
375.246	1	1
375.417	1	14
375.588	1	10
375.758	1	16
375.929	1	15
376.100	1	7
376.271	1	4
376.442	1	10
376.613	1	2
376.784	1	11
376.955	1	1
377.125	1	8
377.296	1	7
377.467	1	5
377.638	1	8
377.809	1	23
377.980	1	4
378.151	1	1
378.321	1	11
378.492	1	5
378.663	1	3
378.834	1	13
379.005	1	13
379.176	1	20
379.347	1	4
379.518	1	-1
379.688	1	15
379.859	1	7
380.030	1	0
380.201	1	11
380.372	1	-5
380.543	1	13
380.714	1	16
380.884	1	14
381.055	1	3
381.226	1	3
381.397	1	11
381.568	1	-3
381.739	1	10
381.910	1	0
382.080	1	13
382.251	1	12
382.422	1	16
382.593	1	10
382.764	1	3
382.935	1	5
383.105	1	14
383.276	1	3
383.447	1	10
383.618	1	9
383.789	1	12
383.960	1	4
384.130	1	3
384.301	1	-4
384.472	1	-2
384.643	1	6
384.814	1	11
384.985	1	10
385.156	1	11
385.326	1	3
385.497	1	6
385.668	1	8
385.839	1	8
386.010	1	12
386.180	1	6
386.351	1	9
386.522	1	-5
386.693	1	4
386.864	1	-5
387.035	1	7
387.205	1	-4
387.376	1	-4
387.547	1	0
387.718	1	9
387.889	1	3
388.060	1	14
388.230	1	3
388.401	1	3
388.572	1	3
388.743	1	-2
388.914	1	11
389.084	1	0
389.255	1	3
389.426	1	3
389.597	1	7
389.768	1	8
389.939	1	6
390.109	1	-5
390.280	1	-1
390.451	1	-13
390.622	1	7
390.793	1	6
390.963	1	2
391.134	1	2
391.305	1	1
391.476	1	4
391.647	1	2
391.817	1	4
391.988	1	-3
392.159	1	-3
392.330	1	-3
392.501	1	-1
392.671	1	-5
392.842	1	-5
393.013	1	6
393.184	1	7
393.355	1	-4
393.525	1	6
393.696	1	11
393.867	1	4
394.038	1	-5
394.208	1	3
394.379	1	-10
394.550	1	-2
394.721	1	13
394.892	1	7
395.062	1	-3
395.233	1	-1
395.404	1	0
395.575	1	9
395.746	1	-2
395.916	1	11
396.087	1	-3
396.258	1	-3
396.429	1	8
396.599	1	5
396.770	1	-7
396.941	1	0
397.112	1	1
397.283	1	13
397.453	1	4
397.624	1	8
397.795	1	-5
397.966	1	15
398.136	1	7
398.307	1	4
398.478	1	-3
398.649	1	4
398.819	1	-4
398.990	1	0
399.161	1	5
399.332	1	0
399.503	1	-2
399.673	1	6
399.844	1	-1
400.015	1	-2
400.186	1	1
400.356	1	7
400.527	1	-2
400.698	1	8
400.869	1	0
401.039	1	2
401.210	1	6
401.381	1	4
401.552	1	1
401.722	1	10
401.893	1	-9
402.064	1	-4
402.235	1	5
402.405	1	2
402.576	1	19
402.747	1	0
402.918	1	7
403.088	1	3
403.259	1	3
403.430	1	3
403.601	1	4
403.771	1	14
403.942	1	2
404.113	1	-5
404.284	1	9
404.454	1	9
404.625	1	9
404.796	1	13
404.967	1	-7
405.137	1	-7
405.308	1	-1
405.479	1	0
405.649	1	-4
405.820	1	-2
405.991	1	2
406.162	1	6
406.332	1	4
406.503	1	-1
406.674	1	1
406.845	1	4
407.015	1	14
407.186	1	5
407.357	1	-3
407.527	1	3
407.698	1	-5
407.869	1	6
408.040	1	3
408.210	1	4
408.381	1	3
408.552	1	-1
408.722	1	-10
408.893	1	0
409.064	1	-1
409.235	1	-2
409.405	1	-3
409.576	1	10
409.747	1	-5
409.917	1	-6
410.088	1	3
410.259	1	-5
410.430	1	-4
410.600	1	-4
410.771	1	-8
410.942	1	-8
411.112	1	5
411.283	1	2
411.454	1	6
411.625	1	0
411.795	1	0
411.966	1	0
412.137	1	9
412.307	1	-6
412.478	1	4
412.649	1	-2
412.819	1	2
412.990	1	-4
413.161	1	8
413.332	1	5
413.502	1	-4
413.673	1	-3
413.844	1	-1
414.014	1	3
414.185	1	-2
414.356	1	-1
414.526	1	12
414.697	1	-3
414.868	1	5
415.038	1	8
415.209	1	2
415.380	1	-6
415.550	1	2
415.721	1	-3
415.892	1	6
416.063	1	10
416.233	1	21
416.404	1	-1
416.575	1	1
416.745	1	-5
416.916	1	-4
417.087	1	8
417.257	1	2
417.428	1	-3
417.599	1	10
417.769	1	3
417.940	1	7
418.111	1	4
418.281	1	8
418.452	1	3
418.623	1	-11
418.793	1	-3
418.964	1	2
419.135	1	-4
419.305	1	7
419.476	1	7
419.647	1	1
419.817	1	-8
419.988	1	-1
420.159	1	2
420.329	1	1
420.500	1	-6
420.671	1	6
420.841	1	2
421.012	1	7
421.183	1	5
421.353	1	3
421.524	1	-9
421.695	1	-1
421.865	1	3
422.036	1	7
422.206	1	3
422.377	1	6
422.548	1	1
422.718	1	-9
422.889	1	-7
423.060	1	0
423.230	1	4
423.401	1	5
423.572	1	4
423.742	1	0
423.913	1	2
424.084	1	6
424.254	1	-2
424.425	1	2
424.595	1	-4
424.766	1	4
424.937	1	-4
425.107	1	5
425.278	1	1
425.449	1	-1
425.619	1	7
425.790	1	5
425.961	1	1
426.131	1	-7
426.302	1	1
426.472	1	2
426.643	1	3
426.814	1	-5
426.984	1	1
427.155	1	-3
427.326	1	2
427.496	1	-1
427.667	1	-1
427.837	1	8
428.008	1	2
428.179	1	-13
428.349	1	-3
428.520	1	2
428.691	1	5
428.861	1	5
429.032	1	5
429.202	1	-5
429.373	1	-2
429.544	1	4
429.714	1	4
429.885	1	12
430.055	1	3
430.226	1	3
430.397	1	-8
430.567	1	13
430.738	1	7
430.909	1	7
431.079	1	-6
431.250	1	-1
431.420	1	0
431.591	1	7
431.762	1	-1
431.932	1	3
432.103	1	1
432.273	1	4
432.444	1	-10
432.615	1	-4
432.785	1	6
432.956	1	0
433.126	1	1
433.297	1	-8
433.468	1	4
433.638	1	3
433.809	1	2
433.979	1	2
434.150	1	10
434.320	1	6
434.491	1	-5
434.662	1	-3
434.832	1	-3
435.003	1	6
435.173	1	6
435.344	1	4
435.515	1	-5
435.685	1	2
435.856	1	3
436.026	1	-9
436.197	1	-2
436.368	1	-5
436.538	1	-4
436.709	1	-5
436.879	1	-8
437.050	1	-3
437.220	1	4
437.391	1	5
437.562	1	5
437.732	1	-1
437.903	1	8
438.073	1	-12
438.244	1	6
438.414	1	-1
438.585	1	-6
438.756	1	-2
438.926	1	9
439.097	1	-8
439.267	1	8
439.438	1	7
439.608	1	1
439.779	1	6
439.949	1	-3
440.120	1	5
440.291	1	5
440.461	1	-8
440.632	1	-5
440.802	1	-1
440.973	1	8
441.143	1	1
441.314	1	11
441.485	1	1
441.655	1	0
441.826	1	8
441.996	1	10
442.167	1	1
442.337	1	9
442.508	1	9
442.678	1	5
442.849	1	12
443.019	1	-11
443.190	1	6
443.361	1	-2
443.531	1	7
443.702	1	9
443.872	1	10
444.043	1	-6
444.213	1	3
444.384	1	1
444.554	1	-12
444.725	1	-4
444.895	1	2
445.066	1	2
445.237	1	2
445.407	1	14
445.578	1	3
445.748	1	10
445.919	1	7
446.089	1	10
446.260	1	-3
446.430	1	5
446.601	1	-3
446.771	1	4
446.942	1	9
447.112	1	9
447.283	1	16
447.453	1	0
447.624	1	-4
447.794	1	2
447.965	1	5
448.135	1	6
448.306	1	8
448.477	1	10
448.647	1	9
448.818	1	6
448.988	1	-6
449.159	1	-5
449.329	1	0
449.500	1	9
449.670	1	2
449.841	1	1
450.011	1	1
450.182	1	7
450.352	1	10
450.523	1	0
450.693	1	-2
450.864	1	6
451.034	1	3
451.205	1	3
451.375	1	-10
451.546	1	2
451.716	1	-8
451.887	1	-7
452.057	1	-6
452.228	1	3
452.398	1	7
452.569	1	1
452.739	1	3
452.910	1	-5
453.080	1	1
453.251	1	4
453.421	1	2
453.592	1	0
453.762	1	12
453.933	1	9
454.103	1	1
454.274	1	-7
454.444	1	0
454.615	1	-5
454.785	1	0
454.956	1	1
455.126	1	9
455.297	1	-1
455.467	1	-9
455.638	1	-10
455.808	1	5
455.979	1	-5
456.149	1	5
456.320	1	-3
456.490	1	0
456.661	1	8
456.831	1	-6
457.001	1	7
457.172	1	8
457.342	1	-5
457.513	1	-5
457.683	1	10
457.854	1	1
458.024	1	5
458.195	1	0
458.365	1	-7
458.536	1	6
458.706	1	0
458.877	1	-2
459.047	1	-3
459.218	1	-9
459.388	1	3
459.559	1	1
459.729	1	9
459.899	1	-5
460.070	1	5
460.240	1	9
460.411	1	6
460.581	1	3
460.752	1	4
460.922	1	4
461.093	1	1
461.263	1	-4
461.434	1	-2
461.604	1	-12
461.775	1	0
461.945	1	0
462.115	1	1
462.286	1	9
462.456	1	8
462.627	1	6
462.797	1	-3
462.968	1	5
463.138	1	9
463.309	1	-4
463.479	1	-4
463.649	1	4
463.820	1	-5
463.990	1	-1
464.161	1	1
464.331	1	1
464.502	1	4
464.672	1	8
464.843	1	10
465.013	1	11
465.183	1	-2
465.354	1	-4
465.524	1	5
465.695	1	13
465.865	1	0
466.036	1	3
466.206	1	-2
466.376	1	0
466.547	1	-3
466.717	1	-10
466.888	1	-5
467.058	1	-4
467.229	1	5
467.399	1	5
467.569	1	7
467.740	1	-17
467.910	1	-6
468.081	1	4
468.251	1	1
468.422	1	1
468.592	1	7
468.762	1	9
468.933	1	6
469.103	1	-1
469.274	1	6
469.444	1	10
469.614	1	-2
469.785	1	0
469.955	1	-10
470.126	1	8
470.296	1	0
470.467	1	-5
470.637	1	4
470.807	1	2
470.978	1	-2
471.148	1	14
471.319	1	-7
471.489	1	6
471.659	1	5
471.830	1	-3
472.000	1	1
472.171	1	0
472.341	1	-5
472.511	1	-9
472.682	1	8
472.852	1	2
473.023	1	-11
473.193	1	-10
473.363	1	2
473.534	1	-7
473.704	1	3
473.875	1	7
474.045	1	5
474.215	1	3
474.386	1	8
474.556	1	2
474.727	1	5
474.897	1	1
475.067	1	3
475.238	1	-3
475.408	1	7
475.578	1	-2
475.749	1	10
475.919	1	0
476.090	1	2
476.260	1	3
476.430	1	2
476.601	1	4
476.771	1	0
476.942	1	-1
477.112	1	6
477.282	1	1
477.453	1	0
477.623	1	4
477.793	1	0
477.964	1	-7
478.134	1	5
478.305	1	0
478.475	1	-5
478.645	1	3
478.816	1	13
478.986	1	-11
479.156	1	1
479.327	1	-8
479.497	1	0
479.667	1	-4
479.838	1	-7
480.008	1	-7
480.179	1	4
480.349	1	-2
480.519	1	1
480.690	1	-4
480.860	1	3
481.030	1	1
481.201	1	-5
481.371	1	6
481.541	1	-6
481.712	1	3
481.882	1	4
482.053	1	3
482.223	1	-3
482.393	1	-1
482.564	1	0
482.734	1	9
482.904	1	-1
483.075	1	-1
483.245	1	4
483.415	1	-3
483.586	1	2
483.756	1	1
483.926	1	-9
484.097	1	10
484.267	1	-3
484.437	1	0
484.608	1	2
484.778	1	9
484.948	1	-5
485.119	1	-4
485.289	1	-17
485.459	1	15
485.630	1	5
485.800	1	4
485.970	1	-9
486.141	1	-2
486.311	1	-3
486.481	1	-3
486.652	1	3
486.822	1	4
486.992	1	2
487.163	1	2
487.333	1	0
487.503	1	-1
487.674	1	5
487.844	1	-3
488.014	1	5
488.185	1	18
488.355	1	8
488.525	1	-2
488.696	1	10
488.866	1	-3
489.036	1	-2
489.207	1	3
489.377	1	-3
489.547	1	1
489.718	1	1
489.888	1	8
490.058	1	-2
490.228	1	2
490.399	1	4
490.569	1	0
490.739	1	-1
490.910	1	1
491.080	1	8
491.250	1	-8
491.421	1	-1
491.591	1	7
491.761	1	11
491.932	1	1
492.102	1	-1
492.272	1	-5
492.442	1	2
492.613	1	0
492.783	1	11
492.953	1	12
493.124	1	-1
493.294	1	-2
493.464	1	9
493.635	1	1
493.805	1	0
493.975	1	-12
494.145	1	-5
494.316	1	-1
494.486	1	-7
494.656	1	5
494.827	1	0
494.997	1	-13
495.167	1	-11
495.337	1	6
495.508	1	-6
495.678	1	6
495.848	1	-5
496.019	1	1
496.189	1	-1
496.359	1	3
496.529	1	6
496.700	1	7
496.870	1	9
497.040	1	1
497.211	1	-6
497.381	1	-8
497.551	1	-2
497.721	1	13
497.892	1	3
498.062	1	5
498.232	1	-2
498.403	1	5
498.573	1	6
498.743	1	19
498.913	1	-4
499.084	1	-13
499.254	1	6
499.424	1	8
499.594	1	3
499.765	1	-1
499.935	1	-1
500.105	1	0
500.275	1	-13
500.446	1	-2
500.616	1	0
500.786	1	3
500.956	1	7
501.127	1	2
501.297	1	4
501.467	1	-5
501.638	1	-11
501.808	1	-13
501.978	1	1
502.148	1	6
502.319	1	0
502.489	1	-4
502.659	1	-10
502.829	1	6
503.000	1	6
503.170	1	2
503.340	1	6
503.510	1	-1
503.681	1	8
503.851	1	2
504.021	1	-2
504.191	1	-3
504.362	1	7
504.532	1	-4
504.702	1	10
504.872	1	0
505.042	1	-3
505.213	1	-8
505.383	1	3
505.553	1	5
505.723	1	1
505.894	1	0
506.064	1	12
506.234	1	5
506.404	1	4
506.575	1	-8
506.745	1	-7
506.915	1	-1
507.085	1	-1
507.256	1	-5
507.426	1	-2
507.596	1	3
507.766	1	2
507.936	1	-1
508.107	1	5
508.277	1	0
508.447	1	-6
508.617	1	3
508.788	1	-4
508.958	1	4
509.128	1	-4
509.298	1	-7
509.468	1	-2
509.639	1	4
509.809	1	7
509.979	1	7
510.149	1	-2
510.319	1	-6
510.490	1	6
510.660	1	6
510.830	1	-5
511.000	1	6
511.171	1	-10
511.341	1	-1
511.511	1	7
511.681	1	5
511.851	1	-4
512.022	1	3
512.192	1	-3
512.362	1	2
512.532	1	-9
512.702	1	4
512.873	1	8
513.043	1	5
513.213	1	-1
513.383	1	-4
513.553	1	-4
513.724	1	2
513.894	1	-4
514.064	1	-5
514.234	1	6
514.404	1	5
514.575	1	0
514.745	1	0
514.915	1	-17
515.085	1	-4
515.255	1	5
515.425	1	0
515.596	1	-3
515.766	1	0
515.936	1	6
516.106	1	-1
516.276	1	5
516.447	1	13
516.617	1	-1
516.787	1	2
516.957	1	9
517.127	1	0
517.297	1	1
517.468	1	10
517.638	1	4
517.808	1	6
517.978	1	12
518.148	1	6
518.319	1	6
518.489	1	5
518.659	1	7
518.829	1	-1
518.999	1	-7
519.169	1	-4
519.340	1	-5
519.510	1	-3
519.680	1	-3
519.850	1	7
520.020	1	0
520.190	1	-3
520.361	1	12
520.531	1	-9
520.701	1	1
520.871	1	-1
521.041	1	1
521.211	1	-2
521.382	1	5
521.552	1	6
521.722	1	7
521.892	1	-4
522.062	1	-2
522.232	1	3
522.402	1	1
522.573	1	9
522.743	1	-1
522.913	1	-9
523.083	1	-1
523.253	1	-2
523.423	1	3
523.593	1	-10
523.764	1	9
523.934	1	9
524.104	1	1
524.274	1	-5
524.444	1	9
524.614	1	-1
524.784	1	9
524.955	1	11
525.125	1	3
525.295	1	6
525.465	1	-7
525.635	1	-5
525.805	1	2
525.975	1	-4
526.146	1	0
526.316	1	-6
526.486	1	-2
526.656	1	3
526.826	1	-4
526.996	1	14
527.166	1	5
527.337	1	1
527.507	1	-4
527.677	1	7
527.847	1	5
528.017	1	-6
528.187	1	3
528.357	1	1
528.527	1	1
528.698	1	9
528.868	1	-5
529.038	1	-1
529.208	1	8
529.378	1	5
529.548	1	4
529.718	1	-4
529.888	1	9
530.058	1	-4
530.229	1	8
530.399	1	2
530.569	1	2
530.739	1	0
530.909	1	1
531.079	1	-4
531.249	1	4
531.419	1	2
531.589	1	-4
531.760	1	5
531.930	1	10
532.100	1	-7
532.270	1	0
532.440	1	-1
532.610	1	4
532.780	1	-1
532.950	1	-4
533.120	1	12
533.290	1	0
533.461	1	0
533.631	1	-1
533.801	1	-11
533.971	1	2
534.141	1	-6
534.311	1	-4
534.481	1	-4
534.651	1	0
534.821	1	-8
534.991	1	-6
535.162	1	6
535.332	1	3
535.502	1	6
535.672	1	-1
535.842	1	1
536.012	1	-3
536.182	1	4
536.352	1	6
536.522	1	-4
536.692	1	0
536.862	1	1
537.032	1	7
537.203	1	6
537.373	1	10
537.543	1	4
537.713	1	-14
537.883	1	2
538.053	1	-2
538.223	1	-7
538.393	1	-6
538.563	1	0
538.733	1	5
538.903	1	4
539.073	1	-3
539.243	1	-19
539.413	1	-9
539.584	1	10
539.754	1	3
539.924	1	7
540.094	1	-11
540.264	1	2
540.434	1	-4
540.604	1	1
540.774	1	13
540.944	1	-4
541.114	1	10
541.284	1	-6
541.454	1	2
541.624	1	-4
541.794	1	9
541.964	1	1
542.134	1	5
542.305	1	2
542.475	1	9
542.645	1	-4
542.815	1	2
542.985	1	8
543.155	1	1
543.325	1	-4
543.495	1	10
543.665	1	-3
543.835	1	1
544.005	1	1
544.175	1	-5
544.345	1	-2
544.515	1	-4
544.685	1	-8
544.855	1	-4
545.025	1	12
545.195	1	1
545.365	1	-5
545.535	1	-3
545.705	1	-6
545.875	1	-6
546.045	1	4
546.216	1	4
546.386	1	-4
546.556	1	10
546.726	1	1
546.896	1	14
547.066	1	-1
547.236	1	-7
547.406	1	-7
547.576	1	3
547.746	1	11
547.916	1	3
548.086	1	-3
548.256	1	0
548.426	1	-1
548.596	1	-3
548.766	1	7
548.936	1	-12
549.106	1	10
549.276	1	-4
549.446	1	1
549.616	1	-8
549.786	1	15
549.956	1	4
550.126	1	7
550.296	1	4
550.466	1	-6
550.636	1	-2
550.806	1	-3
550.976	1	-5
551.146	1	11
551.316	1	1
551.486	1	-5
551.656	1	2
551.826	1	6
551.996	1	9
552.166	1	1
552.336	1	5
552.506	1	1
552.676	1	8
552.846	1	-1
553.016	1	6
553.186	1	-2
553.356	1	-1
553.526	1	11
553.696	1	6
553.866	1	1
554.036	1	-4
554.206	1	3
554.376	1	-3
554.546	1	10
554.716	1	-4
554.886	1	5
555.056	1	6
555.226	1	10
555.396	1	4
555.566	1	2
555.736	1	-2
555.906	1	5
556.076	1	9
556.246	1	8
556.416	1	6
556.586	1	7
556.756	1	4
556.926	1	7
557.096	1	3
557.266	1	-3
557.436	1	3
557.606	1	-13
557.776	1	0
557.946	1	0
558.116	1	-2
558.286	1	-1
558.456	1	0
558.626	1	21
558.796	1	-7
558.966	1	6
559.136	1	10
559.306	1	7
559.476	1	-7
559.646	1	-6
559.816	1	-3
559.986	1	5
560.155	1	0
560.325	1	0
560.495	1	9
560.665	1	-6
560.835	1	-1
561.005	1	-3
561.175	1	-2
561.345	1	-11
561.515	1	4
561.685	1	11
561.855	1	-10
562.025	1	2
562.195	1	-1
562.365	1	2
562.535	1	-4
562.705	1	-2
562.875	1	-2
563.045	1	-3
563.215	1	5
563.385	1	4
563.555	1	4
563.725	1	4
563.895	1	4
564.064	1	15
564.234	1	5
564.404	1	-8
564.574	1	9
564.744	1	-1
564.914	1	-8
565.084	1	3
565.254	1	4
565.424	1	-2
565.594	1	4
565.764	1	8
565.934	1	-1
566.104	1	-7
566.274	1	-2
566.444	1	6
566.614	1	-3
566.783	1	-7
566.953	1	-3
567.123	1	3
567.293	1	8
567.463	1	-4
567.633	1	-2
567.803	1	-1
567.973	1	-3
568.143	1	0
568.313	1	0
568.483	1	3
568.653	1	-3
568.823	1	-1
568.993	1	6
569.162	1	2
569.332	1	2
569.502	1	-8
569.672	1	-8
569.842	1	9
570.012	1	-1
570.182	1	-1
570.352	1	4
570.522	1	9
570.692	1	-4
570.862	1	6
571.031	1	14
571.201	1	5
571.371	1	-11
571.541	1	4
571.711	1	-3
571.881	1	3
572.051	1	13
572.221	1	-4
572.391	1	-2
572.561	1	4
572.731	1	-2
572.900	1	1
573.070	1	-10
573.240	1	5
573.410	1	5
573.580	1	3
573.750	1	-2
573.920	1	-5
574.090	1	-8
574.260	1	3
574.430	1	-5
574.599	1	-2
574.769	1	5
574.939	1	10
575.109	1	1
575.279	1	-7
575.449	1	5
575.619	1	-5
575.789	1	-12
575.959	1	5
576.128	1	3
576.298	1	-5
576.468	1	10
576.638	1	-7
576.808	1	7
576.978	1	1
577.148	1	-3
577.318	1	-3
577.487	1	-13
577.657	1	4
577.827	1	-7
577.997	1	2
578.167	1	9
578.337	1	2
578.507	1	14
578.677	1	-5
578.846	1	4
579.016	1	4
579.186	1	11
579.356	1	-1
579.526	1	5
579.696	1	-2
579.866	1	6
580.036	1	3
580.205	1	-3
580.375	1	0
580.545	1	2
580.715	1	15
580.885	1	2
581.055	1	-5
581.225	1	1
581.394	1	-15
581.564	1	-9
581.734	1	-4
581.904	1	4
582.074	1	0
582.244	1	9
582.414	1	13
582.583	1	8
582.753	1	-5
582.923	1	-6
583.093	1	3
583.263	1	-9
583.433	1	-3
583.603	1	7
583.772	1	16
583.942	1	12
584.112	1	-5
584.282	1	8
584.452	1	3
584.622	1	7
584.791	1	1
584.961	1	5
585.131	1	-1
585.301	1	-2
585.471	1	-3
585.641	1	-6
585.811	1	12
585.980	1	2
586.150	1	11
586.320	1	3
586.490	1	2
586.660	1	3
586.830	1	4
586.999	1	-4
587.169	1	-4
587.339	1	1
587.509	1	5
587.679	1	3
587.849	1	6
588.018	1	-6
588.188	1	2
588.358	1	-4
588.528	1	-14
588.698	1	-3
588.867	1	-2
589.037	1	7
589.207	1	1
589.377	1	5
589.547	1	0
589.717	1	-3
589.886	1	-7
590.056	1	-6
590.226	1	7
590.396	1	2
590.566	1	0
590.735	1	-5
590.905	1	5
591.075	1	3
591.245	1	11
591.415	1	3
591.585	1	5
591.754	1	-11
591.924	1	-6
592.094	1	3
592.264	1	9
592.434	1	15
592.603	1	8
592.773	1	14
592.943	1	0
593.113	1	-8
593.283	1	-3
593.452	1	-5
593.622	1	9
593.792	1	-3
593.962	1	6
594.132	1	3
594.301	1	0
594.471	1	0
594.641	1	0
594.811	1	-8
594.981	1	-5
595.150	1	-16
595.320	1	0
595.490	1	0
595.660	1	-2
595.829	1	1
595.999	1	-8
596.169	1	5
596.339	1	-5
596.509	1	-5
596.678	1	2
596.848	1	5
597.018	1	-7
597.188	1	-10
597.358	1	3
597.527	1	11
597.697	1	4
597.867	1	5
598.037	1	-1
598.206	1	-4
598.376	1	-5
598.546	1	4
598.716	1	-2
598.885	1	7
599.055	1	5
599.225	1	6
599.395	1	-6
599.565	1	0
599.734	1	7
599.904	1	0
600.074	1	3
600.244	1	1
600.413	1	2
600.583	1	-4
600.753	1	1
600.923	1	2
601.092	1	5
601.262	1	-2
601.432	1	4
601.602	1	-4
601.771	1	0
601.941	1	10
602.111	1	-1
602.281	1	0
602.451	1	4
602.620	1	2
602.790	1	-5
602.960	1	-10
603.130	1	0
603.299	1	0
603.469	1	2
603.639	1	2
603.809	1	6
603.978	1	-9
604.148	1	1
604.318	1	-1
604.487	1	-8
604.657	1	8
604.827	1	5
604.997	1	-2
605.166	1	3
605.336	1	-3
605.506	1	-2
605.676	1	5
605.845	1	-2
606.015	1	-3
606.185	1	2
606.355	1	2
606.524	1	-2
606.694	1	4
606.864	1	-7
607.034	1	1
607.203	1	-6
607.373	1	0
607.543	1	-5
607.712	1	5
607.882	1	-3
608.052	1	6
608.222	1	3
608.391	1	8
608.561	1	5
608.731	1	5
608.901	1	6
609.070	1	5
609.240	1	3
609.410	1	-4
609.579	1	-14
609.749	1	-2
609.919	1	-5
610.089	1	6
610.258	1	7
610.428	1	1
610.598	1	-3
610.767	1	2
610.937	1	0
611.107	1	0
611.277	1	2
611.446	1	0
611.616	1	-2
611.786	1	8
611.955	1	4
612.125	1	7
612.295	1	1
612.465	1	-8
612.634	1	10
612.804	1	1
612.974	1	-6
613.143	1	-2
613.313	1	-8
613.483	1	-2
613.652	1	3
613.822	1	-1
613.992	1	7
614.162	1	0
614.331	1	3
614.501	1	-3
614.671	1	11
614.840	1	-5
615.010	1	-1
615.180	1	7
615.349	1	5
615.519	1	0
615.689	1	17
615.858	1	3
616.028	1	-12
616.198	1	5
616.368	1	3
616.537	1	0
616.707	1	5
616.877	1	2
617.046	1	2
617.216	1	5
617.386	1	-3
617.555	1	-2
617.725	1	-8
617.895	1	10
618.064	1	4
618.234	1	-8
618.404	1	-8
618.573	1	7
618.743	1	6
618.913	1	10
619.082	1	2
619.252	1	6
619.422	1	-14
619.591	1	-1
619.761	1	-4
619.931	1	4
620.100	1	-2
620.270	1	-3
620.440	1	-1
620.609	1	6
620.779	1	4
620.949	1	-3
621.118	1	4
621.288	1	-4
621.458	1	6
621.627	1	1
621.797	1	10
621.967	1	7
622.136	1	-4
622.306	1	0
622.476	1	3
622.645	1	-6
622.815	1	1
622.985	1	-1
623.154	1	1
623.324	1	3
623.494	1	-2
623.663	1	8
623.833	1	-2
624.002	1	-16
624.172	1	-11
624.342	1	-8
624.511	1	-1
624.681	1	2
624.851	1	4
625.020	1	1
625.190	1	14
625.360	1	-8
625.529	1	-1
625.699	1	-2
625.869	1	-3
626.038	1	-2
626.208	1	-3
626.377	1	8
626.547	1	-2
626.717	1	-3
626.886	1	2
627.056	1	-5
627.226	1	-10
627.395	1	-5
627.565	1	1
627.735	1	6
627.904	1	-3
628.074	1	-1
628.243	1	11
628.413	1	5
628.583	1	-3
628.752	1	-2
628.922	1	-3
629.091	1	1
629.261	1	2
629.431	1	2
629.600	1	13
629.770	1	-2
629.940	1	-2
630.109	1	6
630.279	1	-7
630.448	1	-3
630.618	1	12
630.788	1	-4
630.957	1	9
631.127	1	6
631.297	1	-5
631.466	1	-3
631.636	1	0
631.805	1	15
631.975	1	1
632.145	1	4
632.314	1	-6
632.484	1	-2
632.653	1	-2
632.823	1	3
632.993	1	-6
633.162	1	-1
633.332	1	-3
633.501	1	4
633.671	1	-5
633.841	1	10
634.010	1	12
634.180	1	4
634.349	1	5
634.519	1	-13
634.689	1	2
634.858	1	-10
635.028	1	5
635.197	1	6
635.367	1	0
635.537	1	3
635.706	1	5
635.876	1	10
636.045	1	-3
636.215	1	6
636.384	1	3
636.554	1	5
636.724	1	-1
636.893	1	7
637.063	1	12
637.232	1	-7
637.402	1	-3
637.572	1	-1
637.741	1	-3
637.911	1	8
638.080	1	-8
638.250	1	13
638.419	1	3
638.589	1	7
638.759	1	0
638.928	1	5
639.098	1	0
639.267	1	4
639.437	1	-9
639.606	1	7
639.776	1	-6
639.946	1	2
640.115	1	-5
640.285	1	5
640.454	1	-7
640.624	1	7
640.793	1	-1
640.963	1	6
641.132	1	-15
641.302	1	9
641.472	1	1
641.641	1	2
641.811	1	2
641.980	1	-11
642.150	1	-5
642.319	1	10
642.489	1	13
642.659	1	1
642.828	1	-6
642.998	1	-4
643.167	1	-1
643.337	1	-1
643.506	1	-6
643.676	1	0
643.845	1	-4
644.015	1	11
644.184	1	4
644.354	1	8
644.524	1	-4
644.693	1	5
644.863	1	-3
645.032	1	-6
645.202	1	3
645.371	1	4
645.541	1	6
645.710	1	3
645.880	1	7
646.049	1	4
646.219	1	-1
646.388	1	-6
646.558	1	-2
646.728	1	3
646.897	1	-1
647.067	1	3
647.236	1	2
647.406	1	-1
647.575	1	-5
647.745	1	-5
647.914	1	3
648.084	1	3
648.253	1	5
648.423	1	2
648.592	1	-1
648.762	1	2
648.931	1	10
649.101	1	8
649.270	1	7
649.440	1	-12
649.610	1	-9
649.779	1	1
649.949	1	-7
650.118	1	13
650.288	1	-3
650.457	1	9
650.627	1	8
650.796	1	5
650.966	1	-3
651.135	1	2
651.305	1	-8
651.474	1	-4
651.644	1	-11
651.813	1	-14
651.983	1	0
652.152	1	-4
652.322	1	3
652.491	1	10
652.661	1	2
652.830	1	2
653.000	1	10
653.169	1	-3
653.339	1	-7
653.508	1	1
653.678	1	4
653.847	1	13
654.017	1	1
654.186	1	-5
654.356	1	-1
654.525	1	5
654.695	1	-6
654.864	1	-12
655.034	1	-4
655.203	1	-4
655.373	1	11
655.542	1	12
655.712	1	0
655.881	1	3
656.051	1	-6
656.220	1	8
656.390	1	1
656.559	1	1
656.729	1	0
656.898	1	-1
657.068	1	8
657.237	1	0
657.406	1	5
657.576	1	1
657.745	1	-1
657.915	1	0
658.084	1	5
658.254	1	-1
658.423	1	0
658.593	1	2
658.762	1	-4
658.932	1	7
659.101	1	7
659.271	1	-2
659.440	1	1
659.610	1	4
659.779	1	7
659.949	1	-4
660.118	1	-3
660.288	1	5
660.457	1	1
660.626	1	-7
660.796	1	6
660.965	1	10
661.135	1	-1
661.304	1	-4
661.474	1	-4
661.643	1	0
661.813	1	-13
661.982	1	-2
662.152	1	-5
662.321	1	7
662.491	1	2
662.660	1	-2
662.829	1	-1
662.999	1	6
663.168	1	-4
663.338	1	3
663.507	1	-10
663.677	1	6
663.846	1	7
664.016	1	-8
664.185	1	5
664.354	1	0
664.524	1	-4
664.693	1	6
664.863	1	0
665.032	1	5
665.202	1	11
665.371	1	-6
665.541	1	15
665.710	1	0
665.879	1	0
666.049	1	18
666.218	1	-1
666.388	1	3
666.557	1	-1
666.727	1	-3
666.896	1	1
667.065	1	0
667.235	1	3
667.404	1	-3
667.574	1	11
667.743	1	-2
667.913	1	-1
668.082	1	-2
668.251	1	2
668.421	1	3
668.590	1	10
668.760	1	-3
668.929	1	6
669.099	1	6
669.268	1	7
669.437	1	1
669.607	1	-2
669.776	1	-5
669.946	1	-1
670.115	1	-1
670.285	1	-6
670.454	1	0
670.623	1	-7
670.793	1	3
670.962	1	4
671.132	1	-8
671.301	1	-1
671.470	1	6
671.640	1	-10
671.809	1	8
671.979	1	8
672.148	1	5
672.317	1	-4
672.487	1	6
672.656	1	-9
672.826	1	12
672.995	1	-10
673.164	1	12
673.334	1	-3
673.503	1	-3
673.673	1	-4
673.842	1	-7
674.011	1	-4
674.181	1	-14
674.350	1	4
674.520	1	-5
674.689	1	-1
674.858	1	0
675.028	1	13
675.197	1	5
675.367	1	0
675.536	1	0
675.705	1	-7
675.875	1	6
676.044	1	3
676.214	1	-4
676.383	1	5
676.552	1	-5
676.722	1	9
676.891	1	-3
677.060	1	-8
677.230	1	2
677.399	1	-7
677.569	1	8
677.738	1	-5
677.907	1	0
678.077	1	-9
678.246	1	-3
678.416	1	5
678.585	1	-12
678.754	1	4
678.924	1	-1
679.093	1	8
679.262	1	-6
679.432	1	4
679.601	1	2
679.771	1	0
679.940	1	-4
680.109	1	5
680.279	1	-5
680.448	1	-1
680.617	1	1
680.787	1	9
680.956	1	11
681.125	1	0
681.295	1	6
681.464	1	1
681.634	1	4
681.803	1	0
681.972	1	4
682.142	1	-3
682.311	1	-4
682.480	1	7
682.650	1	5
682.819	1	-1
682.988	1	1
683.158	1	-1
683.327	1	-8
683.496	1	-3
683.666	1	-7
683.835	1	3
684.004	1	-4
684.174	1	4
684.343	1	-10
684.512	1	7
684.682	1	7
684.851	1	5
685.021	1	-5
685.190	1	6
685.359	1	0
685.529	1	-2
685.698	1	8
685.867	1	5
686.037	1	11
686.206	1	-5
686.375	1	3
686.545	1	-1
686.714	1	1
686.883	1	1
687.053	1	5
687.222	1	1
687.391	1	10
687.561	1	-6
687.730	1	2
687.899	1	-5
688.069	1	8
688.238	1	10
688.407	1	0
688.577	1	2
688.746	1	-4
