340.368	1	0
340.539	1	1
340.710	1	7
340.881	1	9
341.052	1	-4
341.223	1	19
341.394	1	-4
341.565	1	-11
341.737	1	3
341.908	1	3
342.079	1	11
342.250	1	-4
342.421	1	0
342.592	1	12
342.763	1	-1
342.934	1	-4
343.105	1	-8
343.276	1	-10
343.447	1	5
343.618	1	-7
343.789	1	-2
343.960	1	5
344.131	1	1
344.302	1	1
344.473	1	11
344.644	1	11
344.815	1	-6
344.986	1	3
345.157	1	11
345.328	1	11
345.499	1	6
345.670	1	-1
345.841	1	3
346.012	1	-3
346.183	1	1
346.354	1	12
346.526	1	-3
346.697	1	-6
346.868	1	2
347.039	1	12
347.210	1	7
347.381	1	11
347.552	1	8
347.723	1	5
347.894	1	2
348.065	1	5
348.236	1	-3
348.407	1	6
348.578	1	17
348.749	1	-10
348.920	1	-2
349.091	1	11
349.262	1	7
349.433	1	14
349.604	1	4
349.775	1	0
349.946	1	9
350.117	1	7
350.288	1	4
350.459	1	7
350.630	1	-3
350.801	1	9
350.972	1	12
351.143	1	10
351.314	1	3
351.485	1	4
351.656	1	0
351.827	1	6
351.998	1	8
352.169	1	7
352.340	1	5
352.511	1	3
352.682	1	13
352.853	1	-3
353.024	1	15
353.195	1	15
353.366	1	5
353.537	1	4
353.708	1	-3
353.879	1	6
354.050	1	8
354.221	1	15
354.392	1	-2
354.563	1	6
354.734	1	7
354.905	1	10
355.076	1	4
355.247	1	5
355.418	1	2
355.589	1	-2
355.760	1	10
355.931	1	1
356.102	1	16
356.273	1	14
356.444	1	3
356.615	1	2
356.785	1	2
356.956	1	-1
357.127	1	12
357.298	1	11
357.469	1	7
357.640	1	7
357.811	1	11
357.982	1	17
358.153	1	12
358.324	1	19
358.495	1	13
358.666	1	13
358.837	1	9
359.008	1	12
359.179	1	13
359.350	1	5
359.521	1	14
359.692	1	9
359.863	1	11
360.034	1	12
360.205	1	28
360.376	1	7
360.547	1	22
360.718	1	12
360.889	1	19
361.060	1	24
361.231	1	26
361.401	1	13
361.572	1	27
361.743	1	22
361.914	1	27
362.085	1	27
362.256	1	20
362.427	1	21
362.598	1	21
362.769	1	17
362.940	1	22
363.111	1	34
363.282	1	24
363.453	1	25
363.624	1	47
363.795	1	34
363.966	1	31
364.137	1	24
364.308	1	22
364.478	1	26
364.649	1	24
364.820	1	38
364.991	1	29
365.162	1	36
365.333	1	33
365.504	1	32
365.675	1	38
365.846	1	39
366.017	1	42
366.188	1	48
366.359	1	40
366.530	1	39
366.701	1	47
366.871	1	45
367.042	1	44
367.213	1	40
367.384	1	51
367.555	1	40
367.726	1	60
367.897	1	49
368.068	1	51
368.239	1	50
368.410	1	58
368.581	1	55
368.752	1	64
368.923	1	56
369.093	1	49
369.264	1	48
369.435	1	56
369.606	1	56
369.777	1	57
369.948	1	66
370.119	1	64
370.290	1	67
370.461	1	70
370.632	1	74
370.803	1	67
370.973	1	62
371.144	1	63
371.315	1	77
371.486	1	64
371.657	1	71
371.828	1	73
371.999	1	81
372.170	1	82
372.341	1	77
372.512	1	73
372.682	1	73
372.853	1	72
373.024	1	78
373.195	1	87
373.366	1	70
373.537	1	92
373.708	1	77
373.879	1	80
374.050	1	89
374.220	1	76
374.391	1	77
374.562	1	72
374.733	1	69
374.904	1	85
375.075	1	72
375.246	1	83
375.417	1	81
375.588	1	76
375.758	1	88
375.929	1	78
376.100	1	68
376.271	1	62
376.442	1	72
376.613	1	75
376.784	1	66
376.955	1	68
377.125	1	64
377.296	1	79
377.467	1	71
377.638	1	57
377.809	1	64
377.980	1	68
378.151	1	62
378.321	1	60
378.492	1	60
378.663	1	60
378.834	1	74
379.005	1	57
379.176	1	62
379.347	1	57
379.518	1	57
379.688	1	50
379.859	1	63
380.030	1	59
380.201	1	66
380.372	1	46
380.543	1	57
380.714	1	54
380.884	1	52
381.055	1	43
381.226	1	47
381.397	1	40
381.568	1	42
381.739	1	45
381.910	1	47
382.080	1	50
382.251	1	49
382.422	1	46
382.593	1	38
382.764	1	32
382.935	1	50
383.105	1	53
383.276	1	43
383.447	1	32
383.618	1	33
383.789	1	41
383.960	1	41
384.130	1	36
384.301	1	37
384.472	1	32
384.643	1	27
384.814	1	33
384.985	1	49
385.156	1	39
385.326	1	43
385.497	1	30
385.668	1	36
385.839	1	36
386.010	1	37
386.180	1	24
386.351	1	30
386.522	1	25
386.693	1	23
386.864	1	27
387.035	1	36
387.205	1	34
387.376	1	16
387.547	1	14
387.718	1	27
387.889	1	31
388.060	1	34
388.230	1	27
388.401	1	30
388.572	1	24
388.743	1	28
388.914	1	30
389.084	1	27
389.255	1	13
389.426	1	14
389.597	1	32
389.768	1	27
389.939	1	19
390.109	1	27
390.280	1	16
390.451	1	12
390.622	1	23
390.793	1	23
390.963	1	21
391.134	1	21
391.305	1	33
391.476	1	22
391.647	1	17
391.817	1	26
391.988	1	21
392.159	1	16
392.330	1	19
392.501	1	8
392.671	1	15
392.842	1	15
393.013	1	20
393.184	1	16
393.355	1	18
393.525	1	14
393.696	1	17
393.867	1	21
394.038	1	9
394.208	1	10
394.379	1	7
394.550	1	13
394.721	1	16
394.892	1	23
395.062	1	12
395.233	1	12
395.404	1	8
395.575	1	14
395.746	1	12
395.916	1	15
396.087	1	10
396.258	1	10
396.429	1	13
396.599	1	5
396.770	1	-4
396.941	1	17
397.112	1	13
397.283	1	7
397.453	1	12
397.624	1	13
397.795	1	21
397.966	1	23
398.136	1	12
398.307	1	14
398.478	1	8
398.649	1	3
398.819	1	8
398.990	1	6
399.161	1	20
399.332	1	6
399.503	1	16
399.673	1	10
399.844	1	1
400.015	1	2
400.186	1	13
400.356	1	17
400.527	1	4
400.698	1	18
400.869	1	16
401.039	1	16
401.210	1	20
401.381	1	11
401.552	1	15
401.722	1	3
401.893	1	9
402.064	1	7
402.235	1	12
402.405	1	17
402.576	1	16
402.747	1	8
402.918	1	15
403.088	1	4
403.259	1	6
403.430	1	11
403.601	1	12
403.771	1	15
403.942	1	-8
404.113	1	0
404.284	1	12
404.454	1	18
404.625	1	6
404.796	1	9
404.967	1	17
405.137	1	-3
405.308	1	-2
405.479	1	-5
405.649	1	10
405.820	1	2
405.991	1	9
406.162	1	13
406.332	1	19
406.503	1	-5
406.674	1	7
406.845	1	15
407.015	1	12
407.186	1	0
407.357	1	16
407.527	1	8
407.698	1	-1
407.869	1	4
408.040	1	8
408.210	1	0
408.381	1	5
408.552	1	4
408.722	1	3
408.893	1	3
409.064	1	0
409.235	1	11
409.405	1	-2
409.576	1	12
409.747	1	-3
409.917	1	8
410.088	1	5
410.259	1	-7
410.430	1	9
410.600	1	1
410.771	1	-6
410.942	1	-3
411.112	1	12
411.283	1	8
411.454	1	4
411.625	1	10
411.795	1	12
411.966	1	7
412.137	1	5
412.307	1	-4
412.478	1	15
412.649	1	16
412.819	1	6
412.990	1	-1
413.161	1	8
413.332	1	3
413.502	1	4
413.673	1	14
413.844	1	-2
414.014	1	-1
414.185	1	2
414.356	1	9
414.526	1	12
414.697	1	4
414.868	1	1
415.038	1	13
415.209	1	-6
415.380	1	-1
415.550	1	1
415.721	1	-3
415.892	1	4
416.063	1	-1
416.233	1	11
416.404	1	-1
416.575	1	12
416.745	1	-2
416.916	1	0
417.087	1	5
417.257	1	4
417.428	1	-3
417.599	1	16
417.769	1	7
417.940	1	3
418.111	1	7
418.281	1	14
418.452	1	9
418.623	1	-2
418.793	1	6
418.964	1	12
419.135	1	2
419.305	1	-1
419.476	1	13
419.647	1	-1
419.817	1	-4
419.988	1	14
420.159	1	16
420.329	1	11
420.500	1	-7
420.671	1	8
420.841	1	1
421.012	1	7
421.183	1	18
421.353	1	-1
421.524	1	-1
421.695	1	5
421.865	1	4
422.036	1	9
422.206	1	13
422.377	1	6
422.548	1	-4
422.718	1	6
422.889	1	-8
423.060	1	0
423.230	1	17
423.401	1	-2
423.572	1	8
423.742	1	15
423.913	1	6
424.084	1	9
424.254	1	6
424.425	1	2
424.595	1	-1
424.766	1	13
424.937	1	-2
425.107	1	2
425.278	1	9
425.449	1	2
425.619	1	15
425.790	1	5
425.961	1	7
426.131	1	-3
426.302	1	9
426.472	1	-1
426.643	1	2
426.814	1	12
426.984	1	1
427.155	1	7
427.326	1	9
427.496	1	-2
427.667	1	0
427.837	1	1
428.008	1	7
428.179	1	2
428.349	1	4
428.520	1	-1
428.691	1	4
428.861	1	12
429.032	1	9
429.202	1	11
429.373	1	1
429.544	1	5
429.714	1	1
429.885	1	14
430.055	1	17
430.226	1	4
430.397	1	-1
430.567	1	4
430.738	1	13
430.909	1	11
431.079	1	-1
431.250	1	1
431.420	1	5
431.591	1	8
431.762	1	-1
431.932	1	5
432.103	1	8
432.273	1	10
432.444	1	3
432.615	1	-6
432.785	1	4
432.956	1	13
433.126	1	1
433.297	1	8
433.468	1	-4
433.638	1	-1
433.809	1	4
433.979	1	13
434.150	1	14
434.320	1	-3
434.491	1	2
434.662	1	9
434.832	1	-3
435.003	1	13
435.173	1	9
435.344	1	13
435.515	1	5
435.685	1	5
435.856	1	10
436.026	1	3
436.197	1	19
436.368	1	3
436.538	1	15
436.709	1	2
436.879	1	-3
437.050	1	5
437.220	1	16
437.391	1	16
437.562	1	10
437.732	1	2
437.903	1	9
438.073	1	-3
438.244	1	6
438.414	1	10
438.585	1	13
438.756	1	2
438.926	1	6
439.097	1	0
439.267	1	-4
439.438	1	13
439.608	1	12
439.779	1	17
439.949	1	4
440.120	1	4
440.291	1	11
440.461	1	-3
440.632	1	10
440.802	1	13
440.973	1	12
441.143	1	-6
441.314	1	6
441.485	1	7
441.655	1	-2
441.826	1	8
441.996	1	10
442.167	1	6
442.337	1	-1
442.508	1	10
442.678	1	13
442.849	1	13
443.019	1	-7
443.190	1	4
443.361	1	0
443.531	1	3
443.702	1	0
443.872	1	13
444.043	1	-3
444.213	1	4
444.384	1	1
444.554	1	-1
444.725	1	7
444.895	1	8
445.066	1	1
445.237	1	2
445.407	1	8
445.578	1	11
445.748	1	4
445.919	1	14
446.089	1	11
446.260	1	-2
446.430	1	10
446.601	1	9
446.771	1	5
446.942	1	8
447.112	1	9
447.283	1	19
447.453	1	0
447.624	1	-5
447.794	1	10
447.965	1	4
448.135	1	-1
448.306	1	3
448.477	1	11
448.647	1	6
448.818	1	-1
448.988	1	1
449.159	1	-6
449.329	1	5
449.500	1	0
449.670	1	8
449.841	1	1
450.011	1	19
450.182	1	13
450.352	1	15
450.523	1	2
450.693	1	10
450.864	1	6
451.034	1	6
451.205	1	11
451.375	1	-4
451.546	1	2
451.716	1	0
451.887	1	9
452.057	1	2
452.228	1	21
452.398	1	4
452.569	1	1
452.739	1	11
452.910	1	-9
453.080	1	6
453.251	1	12
453.421	1	6
453.592	1	-1
453.762	1	7
453.933	1	3
454.103	1	8
454.274	1	-3
454.444	1	2
454.615	1	6
454.785	1	5
454.956	1	-2
455.126	1	8
455.297	1	18
455.467	1	-1
455.638	1	-13
455.808	1	1
455.979	1	11
456.149	1	8
456.320	1	7
456.490	1	0
456.661	1	11
456.831	1	7
457.001	1	9
457.172	1	8
457.342	1	8
457.513	1	-2
457.683	1	8
457.854	1	3
458.024	1	3
458.195	1	-8
458.365	1	1
458.536	1	4
458.706	1	0
458.877	1	7
459.047	1	0
459.218	1	0
459.388	1	12
459.559	1	9
459.729	1	13
459.899	1	6
460.070	1	2
460.240	1	5
460.411	1	4
460.581	1	4
460.752	1	6
460.922	1	10
461.093	1	5
461.263	1	5
461.434	1	1
461.604	1	1
461.775	1	4
461.945	1	-2
462.115	1	11
462.286	1	7
462.456	1	16
462.627	1	6
462.797	1	12
462.968	1	8
463.138	1	9
463.309	1	5
463.479	1	16
463.649	1	-6
463.820	1	-6
463.990	1	4
464.161	1	-6
464.331	1	4
464.502	1	15
464.672	1	6
464.843	1	5
465.013	1	-2
465.183	1	-4
465.354	1	7
465.524	1	4
465.695	1	5
465.865	1	0
466.036	1	2
466.206	1	6
466.376	1	6
466.547	1	3
466.717	1	-7
466.888	1	-5
467.058	1	3
467.229	1	6
467.399	1	16
467.569	1	14
467.740	1	-9
467.910	1	4
468.081	1	4
468.251	1	7
468.422	1	-4
468.592	1	-10
468.762	1	8
468.933	1	6
469.103	1	-7
469.274	1	14
469.444	1	12
469.614	1	2
469.785	1	4
469.955	1	3
470.126	1	5
470.296	1	-1
470.467	1	6
470.637	1	1
470.807	1	11
470.978	1	-1
471.148	1	13
471.319	1	5
471.489	1	10
471.659	1	-5
471.830	1	8
472.000	1	0
472.171	1	8
472.341	1	8
472.511	1	3
472.682	1	9
472.852	1	13
473.023	1	-2
473.193	1	-8
473.363	1	1
473.534	1	-1
473.704	1	5
473.875	1	7
474.045	1	6
474.215	1	15
474.386	1	16
474.556	1	-4
474.727	1	1
474.897	1	-8
475.067	1	8
475.238	1	5
475.408	1	13
475.578	1	-1
475.749	1	12
475.919	1	5
476.090	1	11
476.260	1	3
476.430	1	2
476.601	1	7
476.771	1	4
476.942	1	-8
477.112	1	-1
477.282	1	6
477.453	1	1
477.623	1	7
477.793	1	9
477.964	1	-4
478.134	1	7
478.305	1	-3
478.475	1	-9
478.645	1	1
478.816	1	14
478.986	1	1
479.156	1	7
479.327	1	-10
479.497	1	9
479.667	1	1
479.838	1	7
480.008	1	-8
480.179	1	2
480.349	1	-1
480.519	1	-3
480.690	1	-2
480.860	1	9
481.030	1	-4
481.201	1	3
481.371	1	11
481.541	1	-2
481.712	1	3
481.882	1	5
482.053	1	8
482.223	1	0
482.393	1	-9
482.564	1	-4
482.734	1	10
482.904	1	2
483.075	1	9
483.245	1	8
483.415	1	0
483.586	1	5
483.756	1	2
483.926	1	2
484.097	1	-3
484.267	1	1
484.437	1	4
484.608	1	4
484.778	1	8
484.948	1	-7
485.119	1	7
485.289	1	-11
485.459	1	6
485.630	1	9
485.800	1	-7
485.970	1	-8
486.141	1	-1
486.311	1	9
486.481	1	-1
486.652	1	8
486.822	1	14
486.992	1	8
487.163	1	-5
487.333	1	2
487.503	1	6
487.674	1	2
487.844	1	-5
488.014	1	1
488.185	1	22
488.355	1	3
488.525	1	-2
488.696	1	17
488.866	1	6
489.036	1	0
489.207	1	8
489.377	1	2
489.547	1	7
489.718	1	0
489.888	1	1
490.058	1	-3
490.228	1	5
490.399	1	-7
490.569	1	6
490.739	1	10
490.910	1	7
491.080	1	10
491.250	1	-1
491.421	1	5
491.591	1	4
491.761	1	2
491.932	1	11
492.102	1	-2
492.272	1	-4
492.442	1	5
492.613	1	7
492.783	1	20
492.953	1	14
493.124	1	-7
493.294	1	-3
493.464	1	2
493.635	1	6
493.805	1	4
493.975	1	-1
494.145	1	8
494.316	1	10
494.486	1	-2
494.656	1	6
494.827	1	4
494.997	1	0
495.167	1	-9
495.337	1	11
495.508	1	-1
495.678	1	5
495.848	1	-3
496.019	1	1
496.189	1	7
496.359	1	-1
496.529	1	12
496.700	1	0
496.870	1	8
497.040	1	-5
497.211	1	6
497.381	1	-11
497.551	1	2
497.721	1	20
497.892	1	9
498.062	1	10
498.232	1	-4
498.403	1	1
498.573	1	12
498.743	1	17
498.913	1	-4
499.084	1	1
499.254	1	9
499.424	1	10
499.594	1	15
499.765	1	3
499.935	1	8
500.105	1	-2
500.275	1	-2
500.446	1	5
500.616	1	3
500.786	1	-3
500.956	1	11
501.127	1	3
501.297	1	10
501.467	1	-2
501.638	1	-3
501.808	1	-3
501.978	1	3
502.148	1	5
502.319	1	0
502.489	1	5
502.659	1	-3
502.829	1	-2
503.000	1	-6
503.170	1	3
503.340	1	6
503.510	1	-1
503.681	1	-7
503.851	1	1
504.021	1	12
504.191	1	2
504.362	1	5
504.532	1	-6
504.702	1	2
504.872	1	4
505.042	1	6
505.213	1	-6
505.383	1	4
505.553	1	9
505.723	1	2
505.894	1	4
506.064	1	15
506.234	1	2
506.404	1	-2
506.575	1	-4
506.745	1	-1
506.915	1	4
507.085	1	5
507.256	1	-2
507.426	1	10
507.596	1	2
507.766	1	3
507.936	1	0
508.107	1	8
508.277	1	-6
508.447	1	3
508.617	1	4
508.788	1	-7
508.958	1	0
509.128	1	4
509.298	1	-3
509.468	1	5
509.639	1	-2
509.809	1	1
509.979	1	17
510.149	1	6
510.319	1	-2
510.490	1	2
510.660	1	0
510.830	1	2
511.000	1	8
511.171	1	2
511.341	1	0
511.511	1	17
511.681	1	7
511.851	1	2
512.022	1	5
512.192	1	2
512.362	1	5
512.532	1	3
512.702	1	3
512.873	1	4
513.043	1	8
513.213	1	-2
513.383	1	2
513.553	1	-9
513.724	1	15
513.894	1	-4
514.064	1	5
514.234	1	8
514.404	1	6
514.575	1	-2
514.745	1	7
514.915	1	-10
515.085	1	3
515.255	1	8
515.425	1	5
515.596	1	-1
515.766	1	4
515.936	1	7
516.106	1	-2
516.276	1	8
516.447	1	11
516.617	1	-1
516.787	1	2
516.957	1	14
517.127	1	1
517.297	1	-2
517.468	1	13
517.638	1	1
517.808	1	9
517.978	1	5
518.148	1	11
518.319	1	4
518.489	1	11
518.659	1	9
518.829	1	5
518.999	1	-8
519.169	1	-4
519.340	1	-12
519.510	1	-2
519.680	1	1
519.850	1	7
520.020	1	13
520.190	1	1
520.361	1	3
520.531	1	-1
520.701	1	2
520.871	1	-6
521.041	1	-10
521.211	1	1
521.382	1	3
521.552	1	9
521.722	1	13
521.892	1	-5
522.062	1	-10
522.232	1	3
522.402	1	0
522.573	1	6
522.743	1	-3
522.913	1	-5
523.083	1	-2
523.253	1	5
523.423	1	5
523.593	1	1
523.764	1	13
523.934	1	8
524.104	1	4
524.274	1	3
524.444	1	10
524.614	1	3
524.784	1	18
524.955	1	7
525.125	1	3
525.295	1	8
525.465	1	2
525.635	1	-1
525.805	1	6
525.975	1	6
526.146	1	10
526.316	1	4
526.486	1	8
526.656	1	12
526.826	1	6
526.996	1	2
527.166	1	14
527.337	1	9
527.507	1	-4
527.677	1	10
527.847	1	5
528.017	1	-3
528.187	1	-3
528.357	1	-3
528.527	1	3
528.698	1	8
528.868	1	-4
529.038	1	-4
529.208	1	7
529.378	1	1
529.548	1	-5
529.718	1	-1
529.888	1	15
530.058	1	8
530.229	1	9
530.399	1	-3
530.569	1	-8
530.739	1	4
530.909	1	1
531.079	1	-6
531.249	1	16
531.419	1	4
531.589	1	-7
531.760	1	12
531.930	1	-6
532.100	1	-1
532.270	1	6
532.440	1	-4
532.610	1	9
532.780	1	-1
532.950	1	4
533.120	1	6
533.290	1	4
533.461	1	-9
533.631	1	11
533.801	1	-1
533.971	1	2
534.141	1	-4
534.311	1	7
534.481	1	-3
534.651	1	-2
534.821	1	11
534.991	1	-10
535.162	1	12
535.332	1	0
535.502	1	8
535.672	1	4
535.842	1	3
536.012	1	6
536.182	1	8
536.352	1	6
536.522	1	4
536.692	1	3
536.862	1	5
537.032	1	4
537.203	1	12
537.373	1	19
537.543	1	7
537.713	1	-4
537.883	1	-1
538.053	1	3
538.223	1	8
538.393	1	1
538.563	1	-3
538.733	1	14
538.903	1	-5
539.073	1	-3
539.243	1	-13
539.413	1	-5
539.584	1	7
539.754	1	2
539.924	1	7
540.094	1	-8
540.264	1	-1
540.434	1	13
540.604	1	5
540.774	1	12
540.944	1	10
541.114	1	8
541.284	1	10
541.454	1	7
541.624	1	-3
541.794	1	11
541.964	1	5
542.134	1	4
542.305	1	1
542.475	1	12
542.645	1	8
542.815	1	2
542.985	1	4
543.155	1	3
543.325	1	3
543.495	1	10
543.665	1	2
543.835	1	4
544.005	1	4
544.175	1	-1
544.345	1	4
544.515	1	-5
544.685	1	-5
544.855	1	3
545.025	1	20
545.195	1	0
545.365	1	3
545.535	1	2
545.705	1	9
545.875	1	-11
546.045	1	2
546.216	1	6
546.386	1	5
546.556	1	6
546.726	1	4
546.896	1	10
547.066	1	-8
547.236	1	-3
547.406	1	-6
547.576	1	13
547.746	1	13
547.916	1	8
548.086	1	6
548.256	1	3
548.426	1	0
548.596	1	11
548.766	1	3
548.936	1	-7
549.106	1	3
549.276	1	3
549.446	1	0
549.616	1	-1
549.786	1	14
549.956	1	6
550.126	1	12
550.296	1	8
550.466	1	-2
550.636	1	0
550.806	1	-8
550.976	1	-8
551.146	1	17
551.316	1	8
551.486	1	-2
551.656	1	5
551.826	1	5
551.996	1	2
552.166	1	9
552.336	1	0
552.506	1	1
552.676	1	9
552.846	1	13
553.016	1	7
553.186	1	-5
553.356	1	2
553.526	1	9
553.696	1	6
553.866	1	1
554.036	1	8
554.206	1	-2
554.376	1	5
554.546	1	8
554.716	1	6
554.886	1	9
555.056	1	7
555.226	1	11
555.396	1	-4
555.566	1	9
555.736	1	-6
555.906	1	3
556.076	1	6
556.246	1	6
556.416	1	6
556.586	1	0
556.756	1	14
556.926	1	9
557.096	1	11
557.266	1	5
557.436	1	-1
557.606	1	2
557.776	1	-4
557.946	1	1
558.116	1	3
558.286	1	4
558.456	1	3
558.626	1	19
558.796	1	1
558.966	1	7
559.136	1	4
559.306	1	6
559.476	1	-7
559.646	1	8
559.816	1	-13
559.986	1	12
560.155	1	-2
560.325	1	2
560.495	1	1
560.665	1	4
560.835	1	2
561.005	1	-2
561.175	1	-1
561.345	1	-7
561.515	1	1
561.685	1	0
561.855	1	-7
562.025	1	-4
562.195	1	4
562.365	1	1
562.535	1	-1
562.705	1	9
562.875	1	5
563.045	1	-9
563.215	1	5
563.385	1	13
563.555	1	14
563.725	1	1
563.895	1	9
564.064	1	16
564.234	1	9
564.404	1	0
564.574	1	12
564.744	1	6
564.914	1	1
565.084	1	1
565.254	1	7
565.424	1	8
565.594	1	9
565.764	1	3
565.934	1	0
566.104	1	4
566.274	1	7
566.444	1	14
566.614	1	-7
566.783	1	14
566.953	1	9
567.123	1	7
567.293	1	7
567.463	1	-3
567.633	1	13
567.803	1	4
567.973	1	5
568.143	1	6
568.313	1	1
568.483	1	0
568.653	1	1
568.823	1	4
568.993	1	16
569.162	1	11
569.332	1	0
569.502	1	12
569.672	1	-1
569.842	1	3
570.012	1	3
570.182	1	2
570.352	1	4
570.522	1	7
570.692	1	1
570.862	1	11
571.031	1	6
571.201	1	4
571.371	1	-6
571.541	1	0
571.711	1	-8
571.881	1	0
572.051	1	6
572.221	1	10
572.391	1	4
572.561	1	9
572.731	1	-1
572.900	1	-2
573.070	1	0
573.240	1	-1
573.410	1	-1
573.580	1	0
573.750	1	4
573.920	1	-2
574.090	1	4
574.260	1	4
574.430	1	-1
574.599	1	1
574.769	1	9
574.939	1	5
575.109	1	-9
575.279	1	1
575.449	1	1
575.619	1	3
575.789	1	-5
575.959	1	2
576.128	1	0
576.298	1	2
576.468	1	2
576.638	1	4
576.808	1	-4
576.978	1	0
577.148	1	0
577.318	1	-3
577.487	1	-4
577.657	1	-3
577.827	1	1
577.997	1	3
578.167	1	14
578.337	1	5
578.507	1	3
578.677	1	-4
578.846	1	15
579.016	1	7
579.186	1	11
579.356	1	3
579.526	1	10
579.696	1	-2
579.866	1	9
580.036	1	13
580.205	1	3
580.375	1	8
580.545	1	11
580.715	1	1
580.885	1	4
581.055	1	-10
581.225	1	2
581.394	1	2
581.564	1	-7
581.734	1	-1
581.904	1	4
582.074	1	3
582.244	1	12
582.414	1	12
582.583	1	17
582.753	1	-1
582.923	1	3
583.093	1	5
583.263	1	-7
583.433	1	-3
583.603	1	9
583.772	1	3
583.942	1	10
584.112	1	10
584.282	1	10
584.452	1	8
584.622	1	10
584.791	1	3
584.961	1	6
585.131	1	2
585.301	1	3
585.471	1	7
585.641	1	8
585.811	1	9
585.980	1	1
586.150	1	12
586.320	1	7
586.490	1	1
586.660	1	-1
586.830	1	12
586.999	1	-2
587.169	1	5
587.339	1	2
587.509	1	7
587.679	1	-3
587.849	1	-1
588.018	1	-4
588.188	1	7
588.358	1	3
588.528	1	-4
588.698	1	-2
588.867	1	6
589.037	1	0
589.207	1	-3
589.377	1	6
589.547	1	5
589.717	1	3
589.886	1	-2
590.056	1	-7
590.226	1	0
590.396	1	6
590.566	1	8
590.735	1	3
590.905	1	1
591.075	1	10
591.245	1	10
591.415	1	0
591.585	1	7
591.754	1	-7
591.924	1	-7
592.094	1	7
592.264	1	4
592.434	1	8
592.603	1	9
592.773	1	18
592.943	1	-5
593.113	1	-5
593.283	1	3
593.452	1	-7
593.622	1	4
593.792	1	7
593.962	1	9
594.132	1	5
594.301	1	-4
594.471	1	-3
594.641	1	9
594.811	1	-1
594.981	1	-1
595.150	1	-6
595.320	1	9
595.490	1	-8
595.660	1	3
595.829	1	11
595.999	1	2
596.169	1	6
596.339	1	0
596.509	1	4
596.678	1	4
596.848	1	3
597.018	1	2
597.188	1	1
597.358	1	8
597.527	1	11
597.697	1	5
597.867	1	6
598.037	1	2
598.206	1	5
598.376	1	8
598.546	1	8
598.716	1	5
598.885	1	10
599.055	1	6
599.225	1	13
599.395	1	1
599.565	1	2
599.734	1	0
599.904	1	16
600.074	1	2
600.244	1	9
600.413	1	2
600.583	1	4
600.753	1	7
600.923	1	-5
601.092	1	8
601.262	1	1
601.432	1	7
601.602	1	8
601.771	1	-3
601.941	1	9
602.111	1	5
602.281	1	11
602.451	1	-3
602.620	1	-2
602.790	1	-20
602.960	1	-3
603.130	1	-4
603.299	1	4
603.469	1	0
603.639	1	0
603.809	1	6
603.978	1	-4
604.148	1	6
604.318	1	-6
604.487	1	-6
604.657	1	15
604.827	1	6
604.997	1	7
605.166	1	8
605.336	1	4
605.506	1	-3
605.676	1	-3
605.845	1	4
606.015	1	-3
606.185	1	9
606.355	1	5
606.524	1	4
606.694	1	0
606.864	1	6
607.034	1	11
607.203	1	3
607.373	1	-9
607.543	1	8
607.712	1	0
607.882	1	-4
608.052	1	2
608.222	1	4
608.391	1	15
608.561	1	13
608.731	1	11
608.901	1	4
609.070	1	12
609.240	1	9
609.410	1	0
609.579	1	-1
609.749	1	-6
609.919	1	1
610.089	1	11
610.258	1	10
610.428	1	2
610.598	1	6
610.767	1	0
610.937	1	-6
611.107	1	-6
611.277	1	3
611.446	1	-3
611.616	1	1
611.786	1	1
611.955	1	17
612.125	1	-5
612.295	1	1
612.465	1	6
612.634	1	3
612.804	1	-1
612.974	1	-13
613.143	1	2
613.313	1	1
613.483	1	7
613.652	1	3
613.822	1	5
613.992	1	11
614.162	1	1
614.331	1	3
614.501	1	-3
614.671	1	14
614.840	1	1
615.010	1	6
615.180	1	9
615.349	1	2
615.519	1	0
615.689	1	15
615.858	1	7
616.028	1	-12
616.198	1	16
616.368	1	10
616.537	1	-6
616.707	1	4
616.877	1	2
617.046	1	-1
617.216	1	2
617.386	1	7
617.555	1	2
617.725	1	-11
617.895	1	6
618.064	1	4
618.234	1	-4
618.404	1	5
618.573	1	15
618.743	1	7
618.913	1	10
619.082	1	-4
619.252	1	10
619.422	1	-10
619.591	1	10
619.761	1	4
619.931	1	10
620.100	1	-3
620.270	1	7
620.440	1	11
620.609	1	9
620.779	1	8
620.949	1	2
621.118	1	3
621.288	1	1
621.458	1	7
621.627	1	7
621.797	1	2
621.967	1	6
622.136	1	7
622.306	1	4
622.476	1	6
622.645	1	9
622.815	1	3
622.985	1	-9
623.154	1	11
623.324	1	9
623.494	1	14
623.663	1	3
623.833	1	10
624.002	1	-2
624.172	1	-12
624.342	1	-1
624.511	1	3
624.681	1	5
624.851	1	3
625.020	1	-2
625.190	1	6
625.360	1	-12
625.529	1	-1
625.699	1	-2
625.869	1	3
626.038	1	-4
626.208	1	5
626.377	1	7
626.547	1	6
626.717	1	4
626.886	1	6
627.056	1	-2
627.226	1	-4
627.395	1	-2
627.565	1	2
627.735	1	10
627.904	1	-4
628.074	1	1
628.243	1	9
628.413	1	-6
628.583	1	1
628.752	1	6
628.922	1	-5
629.091	1	4
629.261	1	4
629.431	1	5
629.600	1	17
629.770	1	1
629.940	1	-2
630.109	1	0
630.279	1	-13
630.448	1	2
630.618	1	12
630.788	1	-5
630.957	1	7
631.127	1	11
631.297	1	3
631.466	1	-6
631.636	1	-3
631.805	1	15
631.975	1	16
632.145	1	15
632.314	1	5
632.484	1	4
632.653	1	-5
632.823	1	7
632.993	1	13
633.162	1	1
633.332	1	-9
633.501	1	-9
633.671	1	7
633.841	1	15
634.010	1	3
634.180	1	0
634.349	1	12
634.519	1	-8
634.689	1	3
634.858	1	-10
635.028	1	7
635.197	1	7
635.367	1	-4
635.537	1	6
635.706	1	6
635.876	1	7
636.045	1	5
636.215	1	8
636.384	1	6
636.554	1	0
636.724	1	4
636.893	1	-4
637.063	1	3
637.232	1	6
637.402	1	4
637.572	1	-8
637.741	1	-5
637.911	1	-1
638.080	1	0
638.250	1	-2
638.419	1	6
638.589	1	7
638.759	1	7
638.928	1	4
639.098	1	-5
639.267	1	1
639.437	1	-4
639.606	1	12
639.776	1	-1
639.946	1	4
640.115	1	-2
640.285	1	3
640.454	1	-8
640.624	1	11
640.793	1	12
640.963	1	5
641.132	1	-7
641.302	1	11
641.472	1	2
641.641	1	6
641.811	1	2
641.980	1	0
642.150	1	-1
642.319	1	6
642.489	1	5
642.659	1	8
642.828	1	5
642.998	1	-1
643.167	1	11
643.337	1	-2
643.506	1	1
643.676	1	5
643.845	1	-2
644.015	1	5
644.184	1	7
644.354	1	-1
644.524	1	-2
644.693	1	5
644.863	1	-1
645.032	1	2
645.202	1	2
645.371	1	10
645.541	1	5
645.710	1	11
645.880	1	3
646.049	1	7
646.219	1	13
646.388	1	0
646.558	1	0
646.728	1	5
646.897	1	-5
647.067	1	4
647.236	1	-1
647.406	1	9
647.575	1	3
647.745	1	-4
647.914	1	9
648.084	1	-6
648.253	1	8
648.423	1	2
648.592	1	5
648.762	1	6
648.931	1	18
649.101	1	6
649.270	1	2
649.440	1	-8
649.610	1	2
649.779	1	-5
649.949	1	3
650.118	1	0
650.288	1	8
650.457	1	10
650.627	1	4
650.796	1	6
650.966	1	-2
651.135	1	16
651.305	1	12
651.474	1	4
651.644	1	-2
651.813	1	-8
651.983	1	-2
652.152	1	8
652.322	1	11
652.491	1	18
652.661	1	8
652.830	1	6
653.000	1	-3
653.169	1	3
653.339	1	-4
653.508	1	9
653.678	1	8
653.847	1	20
654.017	1	4
654.186	1	1
654.356	1	-7
654.525	1	1
654.695	1	5
654.864	1	4
655.034	1	3
655.203	1	-2
655.373	1	11
655.542	1	6
655.712	1	0
655.881	1	-4
656.051	1	-3
656.220	1	11
656.390	1	7
656.559	1	5
656.729	1	0
656.898	1	-4
657.068	1	16
657.237	1	7
657.406	1	15
657.576	1	3
657.745	1	7
657.915	1	4
658.084	1	-2
658.254	1	-2
658.423	1	-1
658.593	1	1
658.762	1	-1
658.932	1	16
659.101	1	-2
659.271	1	3
659.440	1	9
659.610	1	1
659.779	1	-1
659.949	1	0
660.118	1	5
660.288	1	3
660.457	1	-9
660.626	1	1
660.796	1	12
660.965	1	16
661.135	1	9
661.304	1	0
661.474	1	2
661.643	1	0
661.813	1	-8
661.982	1	-2
662.152	1	-3
662.321	1	-4
662.491	1	9
662.660	1	3
662.829	1	3
662.999	1	3
663.168	1	9
663.338	1	11
663.507	1	-7
663.677	1	5
663.846	1	5
664.016	1	-8
664.185	1	3
664.354	1	-5
664.524	1	-7
664.693	1	-5
664.863	1	-3
665.032	1	5
665.202	1	11
665.371	1	3
665.541	1	19
665.710	1	5
665.879	1	4
666.049	1	14
666.218	1	-2
666.388	1	0
666.557	1	8
666.727	1	4
666.896	1	8
667.065	1	0
667.235	1	0
667.404	1	11
667.574	1	16
667.743	1	-1
667.913	1	0
668.082	1	-2
668.251	1	9
668.421	1	5
668.590	1	2
668.760	1	3
668.929	1	7
669.099	1	10
669.268	1	3
669.437	1	1
669.607	1	-1
669.776	1	-9
669.946	1	-12
670.115	1	4
670.285	1	3
670.454	1	7
670.623	1	-7
670.793	1	0
670.962	1	4
671.132	1	-3
671.301	1	-8
671.470	1	3
671.640	1	-6
671.809	1	8
671.979	1	8
672.148	1	2
672.317	1	12
672.487	1	9
672.656	1	8
672.826	1	10
672.995	1	-1
673.164	1	0
673.334	1	0
673.503	1	4
673.673	1	4
673.842	1	0
674.011	1	-3
674.181	1	-5
674.350	1	3
674.520	1	0
674.689	1	0
674.858	1	1
675.028	1	9
675.197	1	3
675.367	1	9
675.536	1	5
675.705	1	1
675.875	1	0
676.044	1	4
676.214	1	-3
676.383	1	6
676.552	1	-5
676.722	1	5
676.891	1	-5
677.060	1	0
677.230	1	0
677.399	1	5
677.569	1	2
677.738	1	11
677.907	1	4
678.077	1	-4
678.246	1	1
678.416	1	0
678.585	1	-1
678.754	1	9
678.924	1	0
679.093	1	4
679.262	1	3
679.432	1	5
679.601	1	0
679.771	1	-3
679.940	1	-8
680.109	1	8
680.279	1	-8
680.448	1	-9
680.617	1	13
680.787	1	5
680.956	1	8
681.125	1	-6
681.295	1	7
681.464	1	12
681.634	1	5
681.803	1	5
681.972	1	9
682.142	1	8
682.311	1	-5
682.480	1	-2
682.650	1	-4
682.819	1	0
682.988	1	9
683.158	1	7
683.327	1	-3
683.496	1	-2
683.666	1	1
683.835	1	1
684.004	1	12
684.174	1	10
684.343	1	-2
684.512	1	11
684.682	1	6
684.851	1	10
685.021	1	12
685.190	1	2
685.359	1	5
685.529	1	13
685.698	1	1
685.867	1	3
686.037	1	12
686.206	1	4
686.375	1	11
686.545	1	2
686.714	1	13
686.883	1	3
687.053	1	2
687.222	1	9
687.391	1	0
687.561	1	-1
687.730	1	7
687.899	1	-4
688.069	1	0
688.238	1	2
688.407	1	11
688.577	1	4
688.746	1	6
