340.368	1	4
340.539	1	1
340.710	1	5
340.881	1	3
341.052	1	2
341.223	1	6
341.394	1	2
341.565	1	-3
341.737	1	2
341.908	1	-2
342.079	1	14
342.250	1	-5
342.421	1	2
342.592	1	3
342.763	1	-14
342.934	1	6
343.105	1	-18
343.276	1	3
343.447	1	5
343.618	1	-3
343.789	1	-2
343.960	1	2
344.131	1	-1
344.302	1	2
344.473	1	10
344.644	1	11
344.815	1	5
344.986	1	4
345.157	1	6
345.328	1	14
345.499	1	11
345.670	1	1
345.841	1	5
346.012	1	0
346.183	1	8
346.354	1	7
346.526	1	3
346.697	1	9
346.868	1	9
347.039	1	12
347.210	1	-2
347.381	1	11
347.552	1	2
347.723	1	6
347.894	1	6
348.065	1	4
348.236	1	-5
348.407	1	13
348.578	1	8
348.749	1	1
348.920	1	14
349.091	1	8
349.262	1	7
349.433	1	10
349.604	1	10
349.775	1	0
349.946	1	16
350.117	1	11
350.288	1	5
350.459	1	9
350.630	1	3
350.801	1	20
350.972	1	21
351.143	1	16
351.314	1	-2
351.485	1	8
351.656	1	8
351.827	1	0
351.998	1	5
352.169	1	12
352.340	1	19
352.511	1	14
352.682	1	7
352.853	1	6
353.024	1	18
353.195	1	12
353.366	1	11
353.537	1	6
353.708	1	10
353.879	1	4
354.050	1	4
354.221	1	12
354.392	1	-1
354.563	1	9
354.734	1	15
354.905	1	17
355.076	1	13
355.247	1	6
355.418	1	13
355.589	1	7
355.760	1	11
355.931	1	18
356.102	1	17
356.273	1	11
356.444	1	9
356.615	1	21
356.785	1	22
356.956	1	9
357.127	1	28
357.298	1	21
357.469	1	23
357.640	1	17
357.811	1	8
357.982	1	33
358.153	1	14
358.324	1	22
358.495	1	31
358.666	1	24
358.837	1	21
359.008	1	34
359.179	1	31
359.350	1	11
359.521	1	27
359.692	1	31
359.863	1	10
360.034	1	33
360.205	1	32
360.376	1	26
360.547	1	30
360.718	1	22
360.889	1	29
361.060	1	33
361.231	1	32
361.401	1	23
361.572	1	39
361.743	1	30
361.914	1	40
362.085	1	34
362.256	1	36
362.427	1	39
362.598	1	38
362.769	1	53
362.940	1	40
363.111	1	54
363.282	1	41
363.453	1	45
363.624	1	55
363.795	1	50
363.966	1	52
364.137	1	43
364.308	1	43
364.478	1	51
364.649	1	53
364.820	1	54
364.991	1	54
365.162	1	58
365.333	1	71
365.504	1	67
365.675	1	69
365.846	1	71
366.017	1	78
366.188	1	77
366.359	1	78
366.530	1	80
366.701	1	85
366.871	1	81
367.042	1	96
367.213	1	98
367.384	1	92
367.555	1	98
367.726	1	110
367.897	1	110
368.068	1	101
368.239	1	103
368.410	1	110
368.581	1	120
368.752	1	127
368.923	1	109
369.093	1	125
369.264	1	126
369.435	1	135
369.606	1	137
369.777	1	133
369.948	1	148
370.119	1	139
370.290	1	142
370.461	1	145
370.632	1	151
370.803	1	151
370.973	1	143
371.144	1	157
371.315	1	168
371.486	1	164
371.657	1	179
371.828	1	170
371.999	1	177
372.170	1	168
372.341	1	180
372.512	1	168
372.682	1	178
372.853	1	182
373.024	1	177
373.195	1	200
373.366	1	189
373.537	1	183
373.708	1	185
373.879	1	193
374.050	1	199
374.220	1	169
374.391	1	186
374.562	1	183
374.733	1	179
374.904	1	175
375.075	1	181
375.246	1	182
375.417	1	185
375.588	1	164
375.758	1	193
375.929	1	171
376.100	1	162
376.271	1	167
376.442	1	155
376.613	1	144
376.784	1	158
376.955	1	147
377.125	1	148
377.296	1	155
377.467	1	143
377.638	1	149
377.809	1	159
377.980	1	140
378.151	1	137
378.321	1	137
378.492	1	138
378.663	1	133
378.834	1	134
379.005	1	137
379.176	1	134
379.347	1	113
379.518	1	123
379.688	1	114
379.859	1	119
380.030	1	115
380.201	1	117
380.372	1	107
380.543	1	113
380.714	1	115
380.884	1	112
381.055	1	85
381.226	1	95
381.397	1	83
381.568	1	95
381.739	1	92
381.910	1	88
382.080	1	89
382.251	1	89
382.422	1	97
382.593	1	89
382.764	1	73
382.935	1	81
383.105	1	93
383.276	1	75
383.447	1	69
383.618	1	70
383.789	1	86
383.960	1	72
384.130	1	75
384.301	1	70
384.472	1	67
384.643	1	64
384.814	1	68
384.985	1	81
385.156	1	68
385.326	1	53
385.497	1	61
385.668	1	69
385.839	1	68
386.010	1	59
386.180	1	56
386.351	1	64
386.522	1	51
386.693	1	64
386.864	1	47
387.035	1	49
387.205	1	49
387.376	1	60
387.547	1	43
387.718	1	55
387.889	1	61
388.060	1	55
388.230	1	46
388.401	1	53
388.572	1	42
388.743	1	41
388.914	1	53
389.084	1	38
389.255	1	35
389.426	1	44
389.597	1	46
389.768	1	47
389.939	1	40
390.109	1	36
390.280	1	39
390.451	1	34
390.622	1	42
390.793	1	32
390.963	1	28
391.134	1	31
391.305	1	40
391.476	1	28
391.647	1	27
391.817	1	47
391.988	1	39
392.159	1	31
392.330	1	30
392.501	1	25
392.671	1	34
392.842	1	22
393.013	1	35
393.184	1	40
393.355	1	28
393.525	1	41
393.696	1	39
393.867	1	35
394.038	1	26
394.208	1	30
394.379	1	32
394.550	1	21
394.721	1	34
394.892	1	33
395.062	1	36
395.233	1	16
395.404	1	26
395.575	1	27
395.746	1	30
395.916	1	27
396.087	1	29
396.258	1	16
396.429	1	25
396.599	1	25
396.770	1	17
396.941	1	26
397.112	1	27
397.283	1	25
397.453	1	27
397.624	1	28
397.795	1	21
397.966	1	27
398.136	1	28
398.307	1	19
398.478	1	16
398.649	1	23
398.819	1	14
398.990	1	17
399.161	1	31
399.332	1	18
399.503	1	10
399.673	1	26
399.844	1	14
400.015	1	20
400.186	1	22
400.356	1	14
400.527	1	19
400.698	1	13
400.869	1	14
401.039	1	8
401.210	1	26
401.381	1	22
401.552	1	14
401.722	1	14
401.893	1	2
402.064	1	6
402.235	1	16
402.405	1	25
402.576	1	19
402.747	1	17
402.918	1	20
403.088	1	6
403.259	1	14
403.430	1	10
403.601	1	11
403.771	1	17
403.942	1	8
404.113	1	-1
404.284	1	18
404.454	1	20
404.625	1	6
404.796	1	9
404.967	1	6
405.137	1	8
405.308	1	11
405.479	1	4
405.649	1	7
405.820	1	5
405.991	1	10
406.162	1	17
406.332	1	14
406.503	1	5
406.674	1	10
406.845	1	9
407.015	1	18
407.186	1	3
407.357	1	21
407.527	1	9
407.698	1	13
407.869	1	12
408.040	1	5
408.210	1	4
408.381	1	7
408.552	1	13
408.722	1	6
408.893	1	10
409.064	1	15
409.235	1	4
409.405	1	8
409.576	1	13
409.747	1	7
409.917	1	17
410.088	1	11
410.259	1	3
410.430	1	5
410.600	1	13
410.771	1	7
410.942	1	-7
411.112	1	17
411.283	1	9
411.454	1	2
411.625	1	2
411.795	1	2
411.966	1	4
412.137	1	12
412.307	1	5
412.478	1	15
412.649	1	7
412.819	1	8
412.990	1	-1
413.161	1	7
413.332	1	13
413.502	1	6
413.673	1	9
413.844	1	4
414.014	1	12
414.185	1	9
414.356	1	16
414.526	1	13
414.697	1	8
414.868	1	10
415.038	1	6
415.209	1	10
415.380	1	3
415.550	1	7
415.721	1	0
415.892	1	13
416.063	1	9
416.233	1	15
416.404	1	9
416.575	1	6
416.745	1	9
416.916	1	8
417.087	1	12
417.257	1	11
417.428	1	-1
417.599	1	16
417.769	1	10
417.940	1	14
418.111	1	10
418.281	1	12
418.452	1	3
418.623	1	12
418.793	1	9
418.964	1	3
419.135	1	1
419.305	1	12
419.476	1	2
419.647	1	5
419.817	1	6
419.988	1	8
420.159	1	15
420.329	1	15
420.500	1	12
420.671	1	9
420.841	1	6
421.012	1	9
421.183	1	12
421.353	1	8
421.524	1	2
421.695	1	8
421.865	1	3
422.036	1	15
422.206	1	14
422.377	1	14
422.548	1	-3
422.718	1	9
422.889	1	3
423.060	1	7
423.230	1	3
423.401	1	8
423.572	1	7
423.742	1	8
423.913	1	8
424.084	1	8
424.254	1	6
424.425	1	0
424.595	1	-5
424.766	1	8
424.937	1	11
425.107	1	0
425.278	1	12
425.449	1	10
425.619	1	2
425.790	1	7
425.961	1	7
426.131	1	1
426.302	1	9
426.472	1	2
426.643	1	1
426.814	1	6
426.984	1	4
427.155	1	4
427.326	1	4
427.496	1	16
427.667	1	13
427.837	1	4
428.008	1	0
428.179	1	-2
428.349	1	2
428.520	1	-1
428.691	1	14
428.861	1	20
429.032	1	-1
429.202	1	5
429.373	1	2
429.544	1	6
429.714	1	6
429.885	1	19
430.055	1	7
430.226	1	2
430.397	1	-6
430.567	1	11
430.738	1	15
430.909	1	0
431.079	1	10
431.250	1	4
431.420	1	12
431.591	1	3
431.762	1	12
431.932	1	10
432.103	1	14
432.273	1	4
432.444	1	1
432.615	1	3
432.785	1	8
432.956	1	17
433.126	1	10
433.297	1	3
433.468	1	-1
433.638	1	2
433.809	1	2
433.979	1	7
434.150	1	15
434.320	1	-1
434.491	1	13
434.662	1	1
434.832	1	10
435.003	1	3
435.173	1	-4
435.344	1	10
435.515	1	4
435.685	1	3
435.856	1	11
436.026	1	-3
436.197	1	13
436.368	1	-3
436.538	1	8
436.709	1	0
436.879	1	-5
437.050	1	18
437.220	1	12
437.391	1	22
437.562	1	8
437.732	1	5
437.903	1	10
438.073	1	-4
438.244	1	0
438.414	1	8
438.585	1	4
438.756	1	6
438.926	1	9
439.097	1	-1
439.267	1	7
439.438	1	7
439.608	1	6
439.779	1	6
439.949	1	3
440.120	1	8
440.291	1	15
440.461	1	-2
440.632	1	9
440.802	1	11
440.973	1	7
441.143	1	4
441.314	1	-1
441.485	1	-1
441.655	1	2
441.826	1	3
441.996	1	11
442.167	1	7
442.337	1	9
442.508	1	11
442.678	1	2
442.849	1	6
443.019	1	0
443.190	1	6
443.361	1	-1
443.531	1	9
443.702	1	7
443.872	1	7
444.043	1	12
444.213	1	11
444.384	1	1
444.554	1	1
444.725	1	-2
444.895	1	21
445.066	1	3
445.237	1	7
445.407	1	4
445.578	1	12
445.748	1	2
445.919	1	14
446.089	1	9
446.260	1	7
446.430	1	0
446.601	1	1
446.771	1	-1
446.942	1	5
447.112	1	1
447.283	1	11
447.453	1	3
447.624	1	-9
447.794	1	5
447.965	1	-3
448.135	1	9
448.306	1	7
448.477	1	7
448.647	1	13
448.818	1	5
448.988	1	0
449.159	1	12
449.329	1	15
449.500	1	1
449.670	1	13
449.841	1	3
450.011	1	7
450.182	1	16
450.352	1	10
450.523	1	3
450.693	1	-2
450.864	1	-4
451.034	1	8
451.205	1	13
451.375	1	-6
451.546	1	9
451.716	1	-6
451.887	1	9
452.057	1	1
452.228	1	13
452.398	1	8
452.569	1	0
452.739	1	8
452.910	1	7
453.080	1	2
453.251	1	8
453.421	1	4
453.592	1	9
453.762	1	6
453.933	1	5
454.103	1	9
454.274	1	-2
454.444	1	0
454.615	1	4
454.785	1	7
454.956	1	10
455.126	1	8
455.297	1	3
455.467	1	5
455.638	1	6
455.808	1	17
455.979	1	6
456.149	1	4
456.320	1	-8
456.490	1	0
456.661	1	6
456.831	1	5
457.001	1	7
457.172	1	7
457.342	1	8
457.513	1	6
457.683	1	14
457.854	1	7
458.024	1	2
458.195	1	0
458.365	1	13
458.536	1	7
458.706	1	5
458.877	1	5
459.047	1	-2
459.218	1	1
459.388	1	5
459.559	1	3
459.729	1	6
459.899	1	7
460.070	1	6
460.240	1	10
460.411	1	6
460.581	1	8
460.752	1	7
460.922	1	8
461.093	1	8
461.263	1	5
461.434	1	5
461.604	1	2
461.775	1	6
461.945	1	4
462.115	1	9
462.286	1	16
462.456	1	9
462.627	1	0
462.797	1	10
462.968	1	8
463.138	1	6
463.309	1	6
463.479	1	9
463.649	1	8
463.820	1	2
463.990	1	7
464.161	1	-1
464.331	1	3
464.502	1	11
464.672	1	7
464.843	1	9
465.013	1	8
465.183	1	-1
465.354	1	-1
465.524	1	3
465.695	1	12
465.865	1	-1
466.036	1	7
466.206	1	10
466.376	1	9
466.547	1	5
466.717	1	-3
466.888	1	-1
467.058	1	1
467.229	1	2
467.399	1	8
467.569	1	18
467.740	1	-13
467.910	1	-2
468.081	1	8
468.251	1	10
468.422	1	-6
468.592	1	5
468.762	1	19
468.933	1	5
469.103	1	-4
469.274	1	8
469.444	1	15
469.614	1	12
469.785	1	4
469.955	1	2
470.126	1	2
470.296	1	2
470.467	1	-3
470.637	1	9
470.807	1	2
470.978	1	-3
471.148	1	11
471.319	1	1
471.489	1	13
471.659	1	6
471.830	1	10
472.000	1	9
472.171	1	8
472.341	1	-10
472.511	1	5
472.682	1	11
472.852	1	4
473.023	1	-2
473.193	1	5
473.363	1	2
473.534	1	-9
473.704	1	7
473.875	1	8
474.045	1	10
474.215	1	10
474.386	1	9
474.556	1	5
474.727	1	3
474.897	1	4
475.067	1	15
475.238	1	-3
475.408	1	2
475.578	1	9
475.749	1	8
475.919	1	3
476.090	1	9
476.260	1	9
476.430	1	0
476.601	1	-6
476.771	1	2
476.942	1	-1
477.112	1	11
477.282	1	6
477.453	1	5
477.623	1	3
477.793	1	11
477.964	1	3
478.134	1	3
478.305	1	6
478.475	1	-6
478.645	1	9
478.816	1	13
478.986	1	4
479.156	1	8
479.327	1	-11
479.497	1	2
479.667	1	-4
479.838	1	10
480.008	1	7
480.179	1	9
480.349	1	7
480.519	1	6
480.690	1	0
480.860	1	7
481.030	1	-2
481.201	1	-8
481.371	1	7
481.541	1	-4
481.712	1	5
481.882	1	-1
482.053	1	11
482.223	1	-2
482.393	1	-2
482.564	1	5
482.734	1	8
482.904	1	-5
483.075	1	5
483.245	1	8
483.415	1	3
483.586	1	12
483.756	1	6
483.926	1	3
484.097	1	-1
484.267	1	-5
484.437	1	8
484.608	1	4
484.778	1	14
484.948	1	5
485.119	1	1
485.289	1	-6
485.459	1	16
485.630	1	10
485.800	1	-1
485.970	1	4
486.141	1	1
486.311	1	9
486.481	1	2
486.652	1	7
486.822	1	15
486.992	1	-2
487.163	1	-3
487.333	1	8
487.503	1	7
487.674	1	6
487.844	1	4
488.014	1	8
488.185	1	13
488.355	1	14
488.525	1	7
488.696	1	3
488.866	1	-3
489.036	1	2
489.207	1	6
489.377	1	4
489.547	1	11
489.718	1	1
489.888	1	12
490.058	1	5
490.228	1	10
490.399	1	0
490.569	1	6
490.739	1	3
490.910	1	0
491.080	1	-1
491.250	1	5
491.421	1	8
491.591	1	21
491.761	1	10
491.932	1	0
492.102	1	-2
492.272	1	-1
492.442	1	-3
492.613	1	17
492.783	1	11
492.953	1	18
493.124	1	1
493.294	1	5
493.464	1	9
493.635	1	1
493.805	1	4
493.975	1	-5
494.145	1	5
494.316	1	1
494.486	1	-1
494.656	1	14
494.827	1	-1
494.997	1	2
495.167	1	1
495.337	1	19
495.508	1	3
495.678	1	4
495.848	1	9
496.019	1	-6
496.189	1	4
496.359	1	-4
496.529	1	7
496.700	1	1
496.870	1	11
497.040	1	5
497.211	1	0
497.381	1	2
497.551	1	1
497.721	1	18
497.892	1	13
498.062	1	21
498.232	1	-6
498.403	1	-3
498.573	1	16
498.743	1	15
498.913	1	2
499.084	1	5
499.254	1	10
499.424	1	9
499.594	1	15
499.765	1	-2
499.935	1	15
500.105	1	-5
500.275	1	-3
500.446	1	7
500.616	1	9
500.786	1	1
500.956	1	6
501.127	1	3
501.297	1	12
501.467	1	2
501.638	1	-2
501.808	1	3
501.978	1	2
502.148	1	9
502.319	1	2
502.489	1	4
502.659	1	-2
502.829	1	2
503.000	1	11
503.170	1	-7
503.340	1	10
503.510	1	1
503.681	1	4
503.851	1	6
504.021	1	5
504.191	1	0
504.362	1	10
504.532	1	-2
504.702	1	11
504.872	1	-2
505.042	1	-3
505.213	1	9
505.383	1	7
505.553	1	4
505.723	1	7
505.894	1	8
506.064	1	9
506.234	1	14
506.404	1	8
506.575	1	-5
506.745	1	-4
506.915	1	16
507.085	1	9
507.256	1	5
507.426	1	7
507.596	1	5
507.766	1	12
507.936	1	3
508.107	1	2
508.277	1	4
508.447	1	1
508.617	1	2
508.788	1	-3
508.958	1	16
509.128	1	6
509.298	1	-4
509.468	1	6
509.639	1	8
509.809	1	7
509.979	1	13
510.149	1	2
510.319	1	-2
510.490	1	6
510.660	1	7
510.830	1	3
511.000	1	14
511.171	1	-6
511.341	1	6
511.511	1	14
511.681	1	7
511.851	1	1
512.022	1	-6
512.192	1	3
512.362	1	12
512.532	1	0
512.702	1	0
512.873	1	8
513.043	1	16
513.213	1	0
513.383	1	6
513.553	1	4
513.724	1	8
513.894	1	5
514.064	1	8
514.234	1	5
514.404	1	13
514.575	1	9
514.745	1	4
514.915	1	0
515.085	1	9
515.255	1	16
515.425	1	8
515.596	1	0
515.766	1	11
515.936	1	0
516.106	1	3
516.276	1	-2
516.447	1	10
516.617	1	2
516.787	1	0
516.957	1	8
517.127	1	7
517.297	1	-2
517.468	1	3
517.638	1	0
517.808	1	13
517.978	1	9
518.148	1	10
518.319	1	12
518.489	1	4
518.659	1	10
518.829	1	1
518.999	1	-4
519.169	1	3
519.340	1	4
519.510	1	-4
519.680	1	7
519.850	1	9
520.020	1	11
520.190	1	10
520.361	1	7
520.531	1	-2
520.701	1	5
520.871	1	-3
521.041	1	4
521.211	1	4
521.382	1	5
521.552	1	5
521.722	1	12
521.892	1	-2
522.062	1	5
522.232	1	9
522.402	1	1
522.573	1	2
522.743	1	11
522.913	1	1
523.083	1	3
523.253	1	1
523.423	1	16
523.593	1	-6
523.764	1	4
523.934	1	7
524.104	1	1
524.274	1	0
524.444	1	9
524.614	1	2
524.784	1	7
524.955	1	10
525.125	1	8
525.295	1	9
525.465	1	-7
525.635	1	-2
525.805	1	7
525.975	1	-1
526.146	1	10
526.316	1	-1
526.486	1	2
526.656	1	5
526.826	1	-8
526.996	1	12
527.166	1	13
527.337	1	14
527.507	1	-7
527.677	1	8
527.847	1	3
528.017	1	4
528.187	1	2
528.357	1	4
528.527	1	9
528.698	1	7
528.868	1	5
529.038	1	4
529.208	1	10
529.378	1	2
529.548	1	1
529.718	1	5
529.888	1	8
530.058	1	8
530.229	1	9
530.399	1	7
530.569	1	-5
530.739	1	6
530.909	1	5
531.079	1	-9
531.249	1	3
531.419	1	6
531.589	1	-5
531.760	1	12
531.930	1	-8
532.100	1	-1
532.270	1	-3
532.440	1	-1
532.610	1	9
532.780	1	-5
532.950	1	-6
533.120	1	12
533.290	1	-6
533.461	1	-3
533.631	1	7
533.801	1	5
533.971	1	0
534.141	1	-10
534.311	1	4
534.481	1	2
534.651	1	10
534.821	1	-2
534.991	1	6
535.162	1	7
535.332	1	2
535.502	1	3
535.672	1	7
535.842	1	-4
536.012	1	1
536.182	1	15
536.352	1	13
536.522	1	8
536.692	1	4
536.862	1	4
537.032	1	6
537.203	1	8
537.373	1	17
537.543	1	17
537.713	1	5
537.883	1	2
538.053	1	3
538.223	1	15
538.393	1	5
538.563	1	6
538.733	1	14
538.903	1	4
539.073	1	13
539.243	1	-9
539.413	1	12
539.584	1	6
539.754	1	0
539.924	1	13
540.094	1	-5
540.264	1	5
540.434	1	3
540.604	1	2
540.774	1	7
540.944	1	14
541.114	1	11
541.284	1	8
541.454	1	-6
541.624	1	-2
541.794	1	3
541.964	1	18
542.134	1	-2
542.305	1	15
542.475	1	10
542.645	1	5
542.815	1	11
542.985	1	9
543.155	1	-7
543.325	1	-3
543.495	1	13
543.665	1	8
543.835	1	-3
544.005	1	2
544.175	1	-2
544.345	1	6
544.515	1	2
544.685	1	-2
544.855	1	6
545.025	1	15
545.195	1	6
545.365	1	2
545.535	1	10
545.705	1	-2
545.875	1	-3
546.045	1	1
546.216	1	-2
546.386	1	12
546.556	1	15
546.726	1	8
546.896	1	5
547.066	1	-2
547.236	1	6
547.406	1	3
547.576	1	12
547.746	1	15
547.916	1	7
548.086	1	1
548.256	1	13
548.426	1	4
548.596	1	3
548.766	1	8
548.936	1	4
549.106	1	5
549.276	1	12
549.446	1	10
549.616	1	4
549.786	1	18
549.956	1	14
550.126	1	10
550.296	1	15
550.466	1	-1
550.636	1	8
550.806	1	-1
550.976	1	5
551.146	1	18
551.316	1	18
551.486	1	-3
551.656	1	8
551.826	1	14
551.996	1	5
552.166	1	13
552.336	1	8
552.506	1	-1
552.676	1	7
552.846	1	20
553.016	1	12
553.186	1	-2
553.356	1	5
553.526	1	7
553.696	1	13
553.866	1	18
554.036	1	15
554.206	1	8
554.376	1	-1
554.546	1	9
554.716	1	-2
554.886	1	8
555.056	1	9
555.226	1	6
555.396	1	3
555.566	1	25
555.736	1	4
555.906	1	2
556.076	1	3
556.246	1	16
556.416	1	10
556.586	1	2
556.756	1	16
556.926	1	9
557.096	1	11
557.266	1	-1
557.436	1	-5
557.606	1	0
557.776	1	-9
557.946	1	9
558.116	1	6
558.286	1	-2
558.456	1	9
558.626	1	20
558.796	1	5
558.966	1	12
559.136	1	6
559.306	1	13
559.476	1	6
559.646	1	2
559.816	1	0
559.986	1	14
560.155	1	4
560.325	1	10
560.495	1	1
560.665	1	7
560.835	1	5
561.005	1	2
561.175	1	1
561.345	1	1
561.515	1	0
561.685	1	-2
561.855	1	2
562.025	1	3
562.195	1	11
562.365	1	3
562.535	1	-5
562.705	1	8
562.875	1	0
563.045	1	0
563.215	1	5
563.385	1	10
563.555	1	13
563.725	1	-1
563.895	1	13
564.064	1	16
564.234	1	13
564.404	1	-3
564.574	1	8
564.744	1	10
564.914	1	2
565.084	1	3
565.254	1	7
565.424	1	16
565.594	1	6
565.764	1	7
565.934	1	3
566.104	1	0
566.274	1	7
566.444	1	16
566.614	1	-1
566.783	1	7
566.953	1	8
567.123	1	4
567.293	1	10
567.463	1	10
567.633	1	5
567.803	1	2
567.973	1	4
568.143	1	5
568.313	1	-2
568.483	1	3
568.653	1	12
568.823	1	15
568.993	1	13
569.162	1	8
569.332	1	0
569.502	1	6
569.672	1	0
569.842	1	4
570.012	1	3
570.182	1	4
570.352	1	4
570.522	1	11
570.692	1	9
570.862	1	12
571.031	1	4
571.201	1	15
571.371	1	-15
571.541	1	11
571.711	1	4
571.881	1	9
572.051	1	8
572.221	1	2
572.391	1	0
572.561	1	12
572.731	1	-6
572.900	1	14
573.070	1	6
573.240	1	8
573.410	1	0
573.580	1	7
573.750	1	7
573.920	1	-2
574.090	1	-3
574.260	1	6
574.430	1	-4
574.599	1	6
574.769	1	10
574.939	1	6
575.109	1	10
575.279	1	4
575.449	1	6
575.619	1	10
575.789	1	4
575.959	1	0
576.128	1	-2
576.298	1	5
576.468	1	2
576.638	1	10
576.808	1	7
576.978	1	4
577.148	1	2
577.318	1	7
577.487	1	-2
577.657	1	14
577.827	1	4
577.997	1	8
578.167	1	10
578.337	1	6
578.507	1	16
578.677	1	5
578.846	1	12
579.016	1	7
579.186	1	14
579.356	1	5
579.526	1	6
579.696	1	-1
579.866	1	12
580.036	1	3
580.205	1	1
580.375	1	8
580.545	1	16
580.715	1	10
580.885	1	5
581.055	1	0
581.225	1	-7
581.394	1	-1
581.564	1	-12
581.734	1	4
581.904	1	11
582.074	1	14
582.244	1	6
582.414	1	19
582.583	1	11
582.753	1	-6
582.923	1	1
583.093	1	6
583.263	1	-2
583.433	1	1
583.603	1	16
583.772	1	13
583.942	1	6
584.112	1	17
584.282	1	8
584.452	1	8
584.622	1	6
584.791	1	13
584.961	1	12
585.131	1	11
585.301	1	4
585.471	1	4
585.641	1	13
585.811	1	14
585.980	1	3
586.150	1	18
586.320	1	10
586.490	1	11
586.660	1	0
586.830	1	13
586.999	1	8
587.169	1	11
587.339	1	2
587.509	1	14
587.679	1	4
587.849	1	5
588.018	1	2
588.188	1	14
588.358	1	7
588.528	1	0
588.698	1	5
588.867	1	0
589.037	1	13
589.207	1	0
589.377	1	12
589.547	1	2
589.717	1	11
589.886	1	0
590.056	1	10
590.226	1	10
590.396	1	15
590.566	1	-4
590.735	1	-1
590.905	1	4
591.075	1	5
591.245	1	19
591.415	1	8
591.585	1	6
591.754	1	-8
591.924	1	-4
592.094	1	5
592.264	1	10
592.434	1	12
592.603	1	6
592.773	1	11
592.943	1	4
593.113	1	-4
593.283	1	6
593.452	1	11
593.622	1	-1
593.792	1	12
593.962	1	8
594.132	1	0
594.301	1	-2
594.471	1	2
594.641	1	10
594.811	1	0
594.981	1	-3
595.150	1	-5
595.320	1	15
595.490	1	-2
595.660	1	3
595.829	1	10
595.999	1	-5
596.169	1	12
596.339	1	4
596.509	1	2
596.678	1	7
596.848	1	9
597.018	1	-3
597.188	1	-1
597.358	1	-2
597.527	1	9
597.697	1	1
597.867	1	11
598.037	1	13
598.206	1	-2
598.376	1	12
598.546	1	13
598.716	1	5
598.885	1	12
599.055	1	4
599.225	1	10
599.395	1	0
599.565	1	-1
599.734	1	2
599.904	1	14
600.074	1	10
600.244	1	3
600.413	1	-1
600.583	1	7
600.753	1	5
600.923	1	-3
601.092	1	0
601.262	1	8
601.432	1	20
601.602	1	6
601.771	1	1
601.941	1	20
602.111	1	-3
602.281	1	7
602.451	1	7
602.620	1	1
602.790	1	-9
602.960	1	-1
603.130	1	5
603.299	1	-6
603.469	1	1
603.639	1	7
603.809	1	13
603.978	1	0
604.148	1	6
604.318	1	0
604.487	1	0
604.657	1	13
604.827	1	11
604.997	1	3
605.166	1	3
605.336	1	5
605.506	1	-5
605.676	1	10
605.845	1	1
606.015	1	-1
606.185	1	9
606.355	1	9
606.524	1	10
606.694	1	2
606.864	1	14
607.034	1	6
607.203	1	7
607.373	1	-4
607.543	1	-2
607.712	1	6
607.882	1	-5
608.052	1	-1
608.222	1	6
608.391	1	13
608.561	1	16
608.731	1	7
608.901	1	10
609.070	1	3
609.240	1	6
609.410	1	-4
609.579	1	-2
609.749	1	-3
609.919	1	7
610.089	1	4
610.258	1	6
610.428	1	13
610.598	1	11
610.767	1	0
610.937	1	-3
611.107	1	1
611.277	1	6
611.446	1	-3
611.616	1	10
611.786	1	2
611.955	1	10
612.125	1	-5
612.295	1	15
612.465	1	-1
612.634	1	7
612.804	1	10
612.974	1	-2
613.143	1	6
613.313	1	7
613.483	1	10
613.652	1	16
613.822	1	3
613.992	1	10
614.162	1	6
614.331	1	1
614.501	1	-2
614.671	1	3
614.840	1	5
615.010	1	3
615.180	1	17
615.349	1	3
615.519	1	9
615.689	1	22
615.858	1	7
616.028	1	4
616.198	1	10
616.368	1	8
616.537	1	0
616.707	1	4
616.877	1	5
617.046	1	3
617.216	1	9
617.386	1	16
617.555	1	2
617.725	1	-1
617.895	1	8
618.064	1	-1
618.234	1	4
618.404	1	8
618.573	1	15
618.743	1	2
618.913	1	1
619.082	1	12
619.252	1	7
619.422	1	-4
619.591	1	2
619.761	1	0
619.931	1	13
620.100	1	6
620.270	1	-1
620.440	1	-1
620.609	1	9
620.779	1	6
620.949	1	8
621.118	1	-2
621.288	1	2
621.458	1	8
621.627	1	3
621.797	1	2
621.967	1	11
622.136	1	2
622.306	1	9
622.476	1	8
622.645	1	12
622.815	1	8
622.985	1	-4
623.154	1	-2
623.324	1	6
623.494	1	12
623.663	1	3
623.833	1	8
624.002	1	-4
624.172	1	-7
624.342	1	-8
624.511	1	-3
624.681	1	6
624.851	1	13
625.020	1	-1
625.190	1	7
625.360	1	-1
625.529	1	9
625.699	1	2
625.869	1	3
626.038	1	-3
626.208	1	4
626.377	1	16
626.547	1	3
626.717	1	1
626.886	1	10
627.056	1	4
627.226	1	3
627.395	1	2
627.565	1	9
627.735	1	10
627.904	1	-4
628.074	1	1
628.243	1	8
628.413	1	2
628.583	1	-2
628.752	1	5
628.922	1	8
629.091	1	-4
629.261	1	0
629.431	1	8
629.600	1	25
629.770	1	5
629.940	1	4
630.109	1	7
630.279	1	-2
630.448	1	0
630.618	1	15
630.788	1	-3
630.957	1	15
631.127	1	17
631.297	1	9
631.466	1	6
631.636	1	3
631.805	1	15
631.975	1	15
632.145	1	14
632.314	1	6
632.484	1	0
632.653	1	3
632.823	1	5
632.993	1	11
633.162	1	8
633.332	1	-9
633.501	1	-2
633.671	1	5
633.841	1	9
634.010	1	11
634.180	1	3
634.349	1	11
634.519	1	-11
634.689	1	6
634.858	1	-8
635.028	1	10
635.197	1	6
635.367	1	3
635.537	1	8
635.706	1	-1
635.876	1	14
636.045	1	5
636.215	1	6
636.384	1	5
636.554	1	0
636.724	1	-2
636.893	1	-3
637.063	1	0
637.232	1	5
637.402	1	0
637.572	1	-1
637.741	1	2
637.911	1	0
638.080	1	2
638.250	1	16
638.419	1	8
638.589	1	11
638.759	1	1
638.928	1	13
639.098	1	2
639.267	1	4
639.437	1	-6
639.606	1	10
639.776	1	-1
639.946	1	-6
640.115	1	5
640.285	1	7
640.454	1	-4
640.624	1	8
640.793	1	13
640.963	1	5
641.132	1	-10
641.302	1	8
641.472	1	3
641.641	1	6
641.811	1	2
641.980	1	11
642.150	1	-6
642.319	1	5
642.489	1	4
642.659	1	0
642.828	1	4
642.998	1	1
643.167	1	7
643.337	1	-1
643.506	1	9
643.676	1	4
643.845	1	6
644.015	1	-3
644.184	1	0
644.354	1	2
644.524	1	1
644.693	1	7
644.863	1	4
645.032	1	4
645.202	1	-3
645.371	1	13
645.541	1	10
645.710	1	11
645.880	1	11
646.049	1	14
646.219	1	15
646.388	1	15
646.558	1	-7
646.728	1	12
646.897	1	4
647.067	1	5
647.236	1	7
647.406	1	5
647.575	1	8
647.745	1	5
647.914	1	15
648.084	1	-2
648.253	1	14
648.423	1	1
648.592	1	6
648.762	1	15
648.931	1	15
649.101	1	12
649.270	1	4
649.440	1	-4
649.610	1	-1
649.779	1	4
649.949	1	2
650.118	1	10
650.288	1	11
650.457	1	16
650.627	1	6
650.796	1	13
650.966	1	6
651.135	1	10
651.305	1	5
651.474	1	4
651.644	1	-7
651.813	1	-8
651.983	1	-1
652.152	1	4
652.322	1	6
652.491	1	21
652.661	1	3
652.830	1	5
653.000	1	6
653.169	1	10
653.339	1	-9
653.508	1	7
653.678	1	-3
653.847	1	16
654.017	1	8
654.186	1	6
654.356	1	-8
654.525	1	5
654.695	1	5
654.864	1	-2
655.034	1	1
655.203	1	2
655.373	1	0
655.542	1	4
655.712	1	0
655.881	1	3
656.051	1	-1
656.220	1	14
656.390	1	9
656.559	1	10
656.729	1	-2
656.898	1	-2
657.068	1	10
657.237	1	11
657.406	1	-3
657.576	1	5
657.745	1	3
657.915	1	16
658.084	1	4
658.254	1	7
658.423	1	4
658.593	1	0
658.762	1	3
658.932	1	5
659.101	1	5
659.271	1	7
659.440	1	5
659.610	1	5
659.779	1	1
659.949	1	2
660.118	1	11
660.288	1	6
660.457	1	-8
660.626	1	-9
660.796	1	7
660.965	1	17
661.135	1	11
661.304	1	4
661.474	1	10
661.643	1	3
661.813	1	0
661.982	1	8
662.152	1	0
662.321	1	3
662.491	1	1
662.660	1	2
662.829	1	11
662.999	1	13
663.168	1	18
663.338	1	18
663.507	1	-10
663.677	1	7
663.846	1	0
664.016	1	3
664.185	1	-3
664.354	1	-3
664.524	1	9
664.693	1	8
664.863	1	0
665.032	1	6
665.202	1	10
665.371	1	1
665.541	1	4
665.710	1	-1
665.879	1	9
666.049	1	11
666.218	1	11
666.388	1	8
666.557	1	3
666.727	1	9
666.896	1	3
667.065	1	3
667.235	1	7
667.404	1	6
667.574	1	9
667.743	1	3
667.913	1	1
668.082	1	1
668.251	1	7
668.421	1	6
668.590	1	5
668.760	1	2
668.929	1	4
669.099	1	23
669.268	1	9
669.437	1	-3
669.607	1	8
669.776	1	3
669.946	1	4
670.115	1	2
670.285	1	-3
670.454	1	0
670.623	1	1
670.793	1	7
670.962	1	10
671.132	1	-4
671.301	1	-3
671.470	1	2
671.640	1	1
671.809	1	18
671.979	1	12
672.148	1	9
672.317	1	-1
672.487	1	16
672.656	1	2
672.826	1	14
672.995	1	-1
673.164	1	12
673.334	1	-5
673.503	1	5
673.673	1	8
673.842	1	0
674.011	1	-2
674.181	1	2
674.350	1	3
674.520	1	10
674.689	1	11
674.858	1	4
675.028	1	16
675.197	1	8
675.367	1	4
675.536	1	10
675.705	1	4
675.875	1	11
676.044	1	0
676.214	1	-5
676.383	1	14
676.552	1	-6
676.722	1	5
676.891	1	4
677.060	1	-2
677.230	1	4
677.399	1	-4
677.569	1	14
677.738	1	-7
677.907	1	0
678.077	1	3
678.246	1	12
678.416	1	5
678.585	1	-4
678.754	1	2
678.924	1	1
679.093	1	2
679.262	1	10
679.432	1	9
679.601	1	9
679.771	1	7
679.940	1	7
680.109	1	1
680.279	1	2
680.448	1	-5
680.617	1	6
680.787	1	11
680.956	1	16
681.125	1	2
681.295	1	7
681.464	1	4
681.634	1	10
681.803	1	10
681.972	1	5
682.142	1	13
682.311	1	-1
682.480	1	9
682.650	1	13
682.819	1	9
682.988	1	14
683.158	1	-1
683.327	1	2
683.496	1	-6
683.666	1	4
683.835	1	4
684.004	1	6
684.174	1	2
684.343	1	-8
684.512	1	26
684.682	1	13
684.851	1	12
685.021	1	9
685.190	1	14
685.359	1	13
685.529	1	10
685.698	1	10
685.867	1	1
686.037	1	5
686.206	1	11
686.375	1	10
686.545	1	9
686.714	1	15
686.883	1	2
687.053	1	13
687.222	1	2
687.391	1	1
687.561	1	-1
687.730	1	8
687.899	1	4
688.069	1	10
688.238	1	3
688.407	1	7
688.577	1	12
688.746	1	4
