340.368	1	5
340.539	1	14
340.710	1	14
340.881	1	-4
341.052	1	-5
341.223	1	8
341.394	1	1
341.565	1	-8
341.737	1	2
341.908	1	3
342.079	1	11
342.250	1	0
342.421	1	2
342.592	1	14
342.763	1	3
342.934	1	2
343.105	1	-6
343.276	1	1
343.447	1	3
343.618	1	1
343.789	1	10
343.960	1	-7
344.131	1	5
344.302	1	3
344.473	1	18
344.644	1	9
344.815	1	7
344.986	1	6
345.157	1	11
345.328	1	6
345.499	1	18
345.670	1	-1
345.841	1	-3
346.012	1	-6
346.183	1	-6
346.354	1	11
346.526	1	6
346.697	1	3
346.868	1	4
347.039	1	7
347.210	1	1
347.381	1	13
347.552	1	-1
347.723	1	9
347.894	1	1
348.065	1	7
348.236	1	2
348.407	1	4
348.578	1	16
348.749	1	-2
348.920	1	7
349.091	1	6
349.262	1	0
349.433	1	9
349.604	1	12
349.775	1	-12
349.946	1	6
350.117	1	4
350.288	1	7
350.459	1	1
350.630	1	-3
350.801	1	12
350.972	1	12
351.143	1	14
351.314	1	-6
351.485	1	9
351.656	1	11
351.827	1	1
351.998	1	2
352.169	1	10
352.340	1	16
352.511	1	6
352.682	1	16
352.853	1	14
353.024	1	10
353.195	1	10
353.366	1	14
353.537	1	10
353.708	1	4
353.879	1	-2
354.050	1	-1
354.221	1	9
354.392	1	2
354.563	1	14
354.734	1	11
354.905	1	13
355.076	1	4
355.247	1	3
355.418	1	10
355.589	1	9
355.760	1	16
355.931	1	12
356.102	1	11
356.273	1	9
356.444	1	11
356.615	1	20
356.785	1	5
356.956	1	8
357.127	1	24
357.298	1	15
357.469	1	9
357.640	1	16
357.811	1	20
357.982	1	20
358.153	1	7
358.324	1	19
358.495	1	20
358.666	1	18
358.837	1	14
359.008	1	30
359.179	1	17
359.350	1	14
359.521	1	26
359.692	1	19
359.863	1	9
360.034	1	26
360.205	1	38
360.376	1	25
360.547	1	21
360.718	1	23
360.889	1	34
361.060	1	21
361.231	1	29
361.401	1	29
361.572	1	28
361.743	1	27
361.914	1	28
362.085	1	33
362.256	1	31
362.427	1	31
362.598	1	32
362.769	1	49
362.940	1	35
363.111	1	50
363.282	1	46
363.453	1	39
363.624	1	43
363.795	1	43
363.966	1	46
364.137	1	39
364.308	1	56
364.478	1	55
364.649	1	49
364.820	1	52
364.991	1	55
365.162	1	51
365.333	1	61
365.504	1	57
365.675	1	70
365.846	1	67
366.017	1	73
366.188	1	63
366.359	1	75
366.530	1	72
366.701	1	69
366.871	1	81
367.042	1	68
367.213	1	79
367.384	1	78
367.555	1	83
367.726	1	94
367.897	1	101
368.068	1	81
368.239	1	98
368.410	1	105
368.581	1	108
368.752	1	108
368.923	1	98
369.093	1	110
369.264	1	88
369.435	1	101
369.606	1	105
369.777	1	116
369.948	1	119
370.119	1	128
370.290	1	119
370.461	1	135
370.632	1	135
370.803	1	119
370.973	1	122
371.144	1	135
371.315	1	138
371.486	1	125
371.657	1	151
371.828	1	147
371.999	1	140
372.170	1	137
372.341	1	147
372.512	1	142
372.682	1	135
372.853	1	140
373.024	1	148
373.195	1	150
373.366	1	163
373.537	1	156
373.708	1	156
373.879	1	144
374.050	1	158
374.220	1	146
374.391	1	141
374.562	1	146
374.733	1	149
374.904	1	154
375.075	1	146
375.246	1	141
375.417	1	160
375.588	1	129
375.758	1	146
375.929	1	144
376.100	1	121
376.271	1	141
376.442	1	134
376.613	1	129
376.784	1	117
376.955	1	133
377.125	1	128
377.296	1	122
377.467	1	124
377.638	1	113
377.809	1	128
377.980	1	108
378.151	1	118
378.321	1	114
378.492	1	117
378.663	1	107
378.834	1	106
379.005	1	109
379.176	1	110
379.347	1	99
379.518	1	98
379.688	1	104
379.859	1	91
380.030	1	104
380.201	1	95
380.372	1	88
380.543	1	102
380.714	1	99
380.884	1	97
381.055	1	82
381.226	1	86
381.397	1	70
381.568	1	91
381.739	1	78
381.910	1	71
382.080	1	83
382.251	1	78
382.422	1	82
382.593	1	72
382.764	1	65
382.935	1	68
383.105	1	72
383.276	1	61
383.447	1	73
383.618	1	59
383.789	1	64
383.960	1	61
384.130	1	64
384.301	1	55
384.472	1	62
384.643	1	58
384.814	1	60
384.985	1	67
385.156	1	63
385.326	1	55
385.497	1	50
385.668	1	52
385.839	1	50
386.010	1	46
386.180	1	45
386.351	1	58
386.522	1	34
386.693	1	46
386.864	1	41
387.035	1	50
387.205	1	51
387.376	1	40
387.547	1	38
387.718	1	36
387.889	1	47
388.060	1	37
388.230	1	43
388.401	1	33
388.572	1	44
388.743	1	30
388.914	1	53
389.084	1	44
389.255	1	34
389.426	1	37
389.597	1	46
389.768	1	44
389.939	1	40
390.109	1	33
390.280	1	26
390.451	1	30
390.622	1	43
390.793	1	29
390.963	1	22
391.134	1	18
391.305	1	34
391.476	1	32
391.647	1	25
391.817	1	25
391.988	1	27
392.159	1	26
392.330	1	32
392.501	1	23
392.671	1	26
392.842	1	28
393.013	1	27
393.184	1	29
393.355	1	21
393.525	1	34
393.696	1	24
393.867	1	26
394.038	1	23
394.208	1	31
394.379	1	24
394.550	1	22
394.721	1	31
394.892	1	32
395.062	1	21
395.233	1	25
395.404	1	17
395.575	1	12
395.746	1	19
395.916	1	19
396.087	1	12
396.258	1	20
396.429	1	14
396.599	1	22
396.770	1	20
396.941	1	8
397.112	1	17
397.283	1	24
397.453	1	19
397.624	1	22
397.795	1	27
397.966	1	30
398.136	1	17
398.307	1	31
398.478	1	23
398.649	1	9
398.819	1	13
398.990	1	19
399.161	1	23
399.332	1	12
399.503	1	8
399.673	1	18
399.844	1	7
400.015	1	18
400.186	1	8
400.356	1	19
400.527	1	8
400.698	1	17
400.869	1	9
401.039	1	27
401.210	1	27
401.381	1	15
401.552	1	8
401.722	1	12
401.893	1	4
402.064	1	8
402.235	1	10
402.405	1	17
402.576	1	26
402.747	1	16
402.918	1	21
403.088	1	8
403.259	1	10
403.430	1	5
403.601	1	13
403.771	1	22
403.942	1	11
404.113	1	3
404.284	1	17
404.454	1	1
404.625	1	19
404.796	1	18
404.967	1	7
405.137	1	12
405.308	1	8
405.479	1	10
405.649	1	0
405.820	1	12
405.991	1	14
406.162	1	17
406.332	1	11
406.503	1	5
406.674	1	16
406.845	1	12
407.015	1	19
407.186	1	15
407.357	1	12
407.527	1	7
407.698	1	13
407.869	1	12
408.040	1	12
408.210	1	2
408.381	1	14
408.552	1	4
408.722	1	7
408.893	1	2
409.064	1	10
409.235	1	10
409.405	1	-2
409.576	1	10
409.747	1	2
409.917	1	4
410.088	1	7
410.259	1	14
410.430	1	7
410.600	1	5
410.771	1	2
410.942	1	9
411.112	1	17
411.283	1	5
411.454	1	2
411.625	1	-4
411.795	1	1
411.966	1	13
412.137	1	17
412.307	1	-4
412.478	1	7
412.649	1	14
412.819	1	7
412.990	1	1
413.161	1	9
413.332	1	6
413.502	1	0
413.673	1	11
413.844	1	9
414.014	1	9
414.185	1	5
414.356	1	17
414.526	1	14
414.697	1	4
414.868	1	7
415.038	1	12
415.209	1	4
415.380	1	9
415.550	1	7
415.721	1	-8
415.892	1	3
416.063	1	7
416.233	1	24
416.404	1	2
416.575	1	10
416.745	1	6
416.916	1	7
417.087	1	8
417.257	1	3
417.428	1	7
417.599	1	13
417.769	1	9
417.940	1	6
418.111	1	11
418.281	1	10
418.452	1	-1
418.623	1	0
418.793	1	13
418.964	1	2
419.135	1	3
419.305	1	2
419.476	1	5
419.647	1	1
419.817	1	-2
419.988	1	9
420.159	1	5
420.329	1	11
420.500	1	-5
420.671	1	11
420.841	1	-1
421.012	1	8
421.183	1	15
421.353	1	0
421.524	1	4
421.695	1	14
421.865	1	8
422.036	1	16
422.206	1	12
422.377	1	-1
422.548	1	4
422.718	1	5
422.889	1	-1
423.060	1	5
423.230	1	4
423.401	1	12
423.572	1	10
423.742	1	15
423.913	1	13
424.084	1	9
424.254	1	11
424.425	1	6
424.595	1	3
424.766	1	5
424.937	1	5
425.107	1	3
425.278	1	17
425.449	1	11
425.619	1	6
425.790	1	3
425.961	1	10
426.131	1	0
426.302	1	-1
426.472	1	1
426.643	1	5
426.814	1	15
426.984	1	6
427.155	1	6
427.326	1	6
427.496	1	10
427.667	1	6
427.837	1	7
428.008	1	6
428.179	1	-3
428.349	1	3
428.520	1	13
428.691	1	5
428.861	1	18
429.032	1	-4
429.202	1	-1
429.373	1	-9
429.544	1	-3
429.714	1	5
429.885	1	14
430.055	1	11
430.226	1	7
430.397	1	8
430.567	1	14
430.738	1	11
430.909	1	-5
431.079	1	4
431.250	1	13
431.420	1	6
431.591	1	7
431.762	1	6
431.932	1	17
432.103	1	20
432.273	1	4
432.444	1	2
432.615	1	-9
432.785	1	10
432.956	1	17
433.126	1	8
433.297	1	0
433.468	1	0
433.638	1	-2
433.809	1	0
433.979	1	10
434.150	1	16
434.320	1	1
434.491	1	2
434.662	1	0
434.832	1	1
435.003	1	6
435.173	1	2
435.344	1	5
435.515	1	0
435.685	1	11
435.856	1	3
436.026	1	5
436.197	1	10
436.368	1	2
436.538	1	7
436.709	1	-3
436.879	1	3
437.050	1	7
437.220	1	15
437.391	1	8
437.562	1	5
437.732	1	-5
437.903	1	8
438.073	1	2
438.244	1	11
438.414	1	12
438.585	1	7
438.756	1	9
438.926	1	5
439.097	1	0
439.267	1	2
439.438	1	9
439.608	1	12
439.779	1	15
439.949	1	11
440.120	1	-1
440.291	1	13
440.461	1	0
440.632	1	15
440.802	1	13
440.973	1	7
441.143	1	-2
441.314	1	2
441.485	1	7
441.655	1	1
441.826	1	11
441.996	1	4
442.167	1	1
442.337	1	12
442.508	1	9
442.678	1	7
442.849	1	12
443.019	1	1
443.190	1	7
443.361	1	9
443.531	1	4
443.702	1	8
443.872	1	9
444.043	1	-11
444.213	1	7
444.384	1	-1
444.554	1	3
444.725	1	1
444.895	1	5
445.066	1	9
445.237	1	7
445.407	1	2
445.578	1	7
445.748	1	-2
445.919	1	9
446.089	1	2
446.260	1	6
446.430	1	5
446.601	1	3
446.771	1	11
446.942	1	9
447.112	1	4
447.283	1	16
447.453	1	1
447.624	1	1
447.794	1	3
447.965	1	-4
448.135	1	11
448.306	1	4
448.477	1	12
448.647	1	12
448.818	1	7
448.988	1	2
449.159	1	6
449.329	1	9
449.500	1	4
449.670	1	7
449.841	1	11
450.011	1	5
450.182	1	0
450.352	1	16
450.523	1	8
450.693	1	2
450.864	1	7
451.034	1	6
451.205	1	7
451.375	1	-5
451.546	1	2
451.716	1	0
451.887	1	-1
452.057	1	-4
452.228	1	15
452.398	1	2
452.569	1	8
452.739	1	6
452.910	1	1
453.080	1	0
453.251	1	3
453.421	1	-3
453.592	1	5
453.762	1	6
453.933	1	9
454.103	1	12
454.274	1	2
454.444	1	5
454.615	1	-4
454.785	1	9
454.956	1	0
455.126	1	2
455.297	1	9
455.467	1	6
455.638	1	-2
455.808	1	11
455.979	1	4
456.149	1	1
456.320	1	-9
456.490	1	-2
456.661	1	9
456.831	1	6
457.001	1	5
457.172	1	8
457.342	1	9
457.513	1	15
457.683	1	6
457.854	1	13
458.024	1	10
458.195	1	-9
458.365	1	1
458.536	1	7
458.706	1	-4
458.877	1	5
459.047	1	5
459.218	1	9
459.388	1	13
459.559	1	1
459.729	1	5
459.899	1	1
460.070	1	10
460.240	1	9
460.411	1	10
460.581	1	0
460.752	1	12
460.922	1	8
461.093	1	3
461.263	1	13
461.434	1	16
461.604	1	4
461.775	1	0
461.945	1	6
462.115	1	1
462.286	1	12
462.456	1	11
462.627	1	0
462.797	1	6
462.968	1	-4
463.138	1	15
463.309	1	-4
463.479	1	9
463.649	1	4
463.820	1	-8
463.990	1	3
464.161	1	-5
464.331	1	11
464.502	1	3
464.672	1	11
464.843	1	10
465.013	1	11
465.183	1	-11
465.354	1	0
465.524	1	12
465.695	1	5
465.865	1	2
466.036	1	9
466.206	1	1
466.376	1	12
466.547	1	7
466.717	1	-7
466.888	1	-1
467.058	1	2
467.229	1	4
467.399	1	10
467.569	1	8
467.740	1	-9
467.910	1	-3
468.081	1	5
468.251	1	4
468.422	1	-1
468.592	1	8
468.762	1	15
468.933	1	-1
469.103	1	2
469.274	1	13
469.444	1	7
469.614	1	3
469.785	1	0
469.955	1	12
470.126	1	-2
470.296	1	1
470.467	1	4
470.637	1	15
470.807	1	7
470.978	1	-3
471.148	1	12
471.319	1	4
471.489	1	10
471.659	1	-6
471.830	1	12
472.000	1	2
472.171	1	1
472.341	1	-2
472.511	1	-1
472.682	1	11
472.852	1	6
473.023	1	-2
473.193	1	4
473.363	1	3
473.534	1	0
473.704	1	6
473.875	1	3
474.045	1	10
474.215	1	17
474.386	1	11
474.556	1	7
474.727	1	11
474.897	1	-2
475.067	1	1
475.238	1	7
475.408	1	9
475.578	1	16
475.749	1	9
475.919	1	1
476.090	1	12
476.260	1	10
476.430	1	0
476.601	1	1
476.771	1	7
476.942	1	4
477.112	1	3
477.282	1	2
477.453	1	2
477.623	1	5
477.793	1	7
477.964	1	4
478.134	1	1
478.305	1	1
478.475	1	-4
478.645	1	7
478.816	1	7
478.986	1	1
479.156	1	8
479.327	1	-13
479.497	1	3
479.667	1	-4
479.838	1	8
480.008	1	4
480.179	1	13
480.349	1	3
480.519	1	-3
480.690	1	2
480.860	1	5
481.030	1	0
481.201	1	-4
481.371	1	10
481.541	1	-1
481.712	1	10
481.882	1	0
482.053	1	5
482.223	1	2
482.393	1	1
482.564	1	-4
482.734	1	10
482.904	1	-2
483.075	1	6
483.245	1	16
483.415	1	-3
483.586	1	3
483.756	1	8
483.926	1	-2
484.097	1	8
484.267	1	-5
484.437	1	12
484.608	1	4
484.778	1	2
484.948	1	-2
485.119	1	15
485.289	1	-6
485.459	1	11
485.630	1	10
485.800	1	-3
485.970	1	7
486.141	1	4
486.311	1	15
486.481	1	-4
486.652	1	11
486.822	1	15
486.992	1	10
487.163	1	4
487.333	1	7
487.503	1	12
487.674	1	7
487.844	1	3
488.014	1	7
488.185	1	13
488.355	1	-1
488.525	1	4
488.696	1	2
488.866	1	1
489.036	1	-2
489.207	1	3
489.377	1	-3
489.547	1	13
489.718	1	6
489.888	1	8
490.058	1	7
490.228	1	10
490.399	1	-7
490.569	1	2
490.739	1	5
490.910	1	-1
491.080	1	7
491.250	1	3
491.421	1	8
491.591	1	10
491.761	1	9
491.932	1	5
492.102	1	12
492.272	1	-2
492.442	1	-6
492.613	1	10
492.783	1	17
492.953	1	8
493.124	1	4
493.294	1	5
493.464	1	13
493.635	1	9
493.805	1	5
493.975	1	4
494.145	1	-2
494.316	1	7
494.486	1	1
494.656	1	14
494.827	1	5
494.997	1	-7
495.167	1	10
495.337	1	9
495.508	1	11
495.678	1	3
495.848	1	7
496.019	1	0
496.189	1	15
496.359	1	5
496.529	1	2
496.700	1	1
496.870	1	8
497.040	1	-2
497.211	1	2
497.381	1	-6
497.551	1	-11
497.721	1	16
497.892	1	-1
498.062	1	17
498.232	1	3
498.403	1	2
498.573	1	10
498.743	1	8
498.913	1	4
499.084	1	3
499.254	1	7
499.424	1	13
499.594	1	15
499.765	1	-6
499.935	1	13
500.105	1	3
500.275	1	6
500.446	1	2
500.616	1	5
500.786	1	-1
500.956	1	16
501.127	1	-6
501.297	1	10
501.467	1	5
501.638	1	2
501.808	1	-10
501.978	1	7
502.148	1	10
502.319	1	6
502.489	1	5
502.659	1	4
502.829	1	13
503.000	1	4
503.170	1	-2
503.340	1	20
503.510	1	0
503.681	1	0
503.851	1	5
504.021	1	5
504.191	1	-1
504.362	1	7
504.532	1	-3
504.702	1	10
504.872	1	6
505.042	1	0
505.213	1	7
505.383	1	9
505.553	1	6
505.723	1	-1
505.894	1	14
506.064	1	1
506.234	1	17
506.404	1	-3
506.575	1	-4
506.745	1	-2
506.915	1	0
507.085	1	6
507.256	1	-2
507.426	1	6
507.596	1	10
507.766	1	3
507.936	1	2
508.107	1	9
508.277	1	0
508.447	1	6
508.617	1	12
508.788	1	4
508.958	1	6
509.128	1	11
509.298	1	-11
509.468	1	-6
509.639	1	-1
509.809	1	14
509.979	1	11
510.149	1	11
510.319	1	11
510.490	1	-1
510.660	1	-2
510.830	1	8
511.000	1	7
511.171	1	-6
511.341	1	6
511.511	1	15
511.681	1	2
511.851	1	3
512.022	1	2
512.192	1	3
512.362	1	12
512.532	1	7
512.702	1	2
512.873	1	11
513.043	1	9
513.213	1	-2
513.383	1	5
513.553	1	-9
513.724	1	4
513.894	1	-2
514.064	1	0
514.234	1	10
514.404	1	5
514.575	1	4
514.745	1	7
514.915	1	-3
515.085	1	9
515.255	1	8
515.425	1	0
515.596	1	1
515.766	1	4
515.936	1	5
516.106	1	3
516.276	1	9
516.447	1	7
516.617	1	-7
516.787	1	-1
516.957	1	13
517.127	1	3
517.297	1	-1
517.468	1	16
517.638	1	4
517.808	1	14
517.978	1	13
518.148	1	2
518.319	1	10
518.489	1	2
518.659	1	14
518.829	1	-1
518.999	1	-1
519.169	1	1
519.340	1	5
519.510	1	4
519.680	1	10
519.850	1	7
520.020	1	10
520.190	1	8
520.361	1	4
520.531	1	2
520.701	1	6
520.871	1	1
521.041	1	3
521.211	1	9
521.382	1	15
521.552	1	16
521.722	1	19
521.892	1	-7
522.062	1	-2
522.232	1	2
522.402	1	7
522.573	1	6
522.743	1	12
522.913	1	2
523.083	1	1
523.253	1	0
523.423	1	14
523.593	1	-1
523.764	1	7
523.934	1	-2
524.104	1	5
524.274	1	-1
524.444	1	5
524.614	1	3
524.784	1	15
524.955	1	9
525.125	1	5
525.295	1	11
525.465	1	-1
525.635	1	0
525.805	1	8
525.975	1	4
526.146	1	6
526.316	1	-4
526.486	1	10
526.656	1	2
526.826	1	6
526.996	1	9
527.166	1	13
527.337	1	-5
527.507	1	1
527.677	1	12
527.847	1	3
528.017	1	-7
528.187	1	8
528.357	1	9
528.527	1	9
528.698	1	4
528.868	1	-3
529.038	1	1
529.208	1	10
529.378	1	9
529.548	1	0
529.718	1	5
529.888	1	12
530.058	1	4
530.229	1	6
530.399	1	0
530.569	1	-1
530.739	1	-3
530.909	1	2
531.079	1	-15
531.249	1	4
531.419	1	8
531.589	1	-10
531.760	1	6
531.930	1	1
532.100	1	1
532.270	1	4
532.440	1	3
532.610	1	8
532.780	1	6
532.950	1	1
533.120	1	15
533.290	1	4
533.461	1	3
533.631	1	1
533.801	1	-5
533.971	1	-5
534.141	1	-7
534.311	1	6
534.481	1	-1
534.651	1	0
534.821	1	2
534.991	1	-3
535.162	1	8
535.332	1	2
535.502	1	6
535.672	1	9
535.842	1	4
536.012	1	-1
536.182	1	5
536.352	1	6
536.522	1	2
536.692	1	4
536.862	1	4
537.032	1	9
537.203	1	8
537.373	1	15
537.543	1	4
537.713	1	2
537.883	1	-2
538.053	1	4
538.223	1	1
538.393	1	8
538.563	1	2
538.733	1	8
538.903	1	-3
539.073	1	6
539.243	1	-4
539.413	1	-1
539.584	1	18
539.754	1	-3
539.924	1	9
540.094	1	0
540.264	1	-1
540.434	1	2
540.604	1	10
540.774	1	19
540.944	1	8
541.114	1	-1
541.284	1	1
541.454	1	-2
541.624	1	7
541.794	1	10
541.964	1	8
542.134	1	2
542.305	1	-1
542.475	1	9
542.645	1	7
542.815	1	2
542.985	1	7
543.155	1	5
543.325	1	-1
543.495	1	9
543.665	1	12
543.835	1	8
544.005	1	0
544.175	1	-7
544.345	1	3
544.515	1	1
544.685	1	-8
544.855	1	1
545.025	1	15
545.195	1	4
545.365	1	10
545.535	1	15
545.705	1	-2
545.875	1	6
546.045	1	-2
546.216	1	8
546.386	1	7
546.556	1	14
546.726	1	10
546.896	1	9
547.066	1	3
547.236	1	3
547.406	1	3
547.576	1	4
547.746	1	10
547.916	1	13
548.086	1	5
548.256	1	1
548.426	1	4
548.596	1	-1
548.766	1	14
548.936	1	1
549.106	1	10
549.276	1	6
549.446	1	10
549.616	1	-2
549.786	1	17
549.956	1	1
550.126	1	15
550.296	1	14
550.466	1	9
550.636	1	7
550.806	1	6
550.976	1	0
551.146	1	21
551.316	1	12
551.486	1	-4
551.656	1	3
551.826	1	0
551.996	1	2
552.166	1	5
552.336	1	7
552.506	1	4
552.676	1	9
552.846	1	10
553.016	1	18
553.186	1	0
553.356	1	4
553.526	1	8
553.696	1	10
553.866	1	12
554.036	1	1
554.206	1	4
554.376	1	6
554.546	1	7
554.716	1	-6
554.886	1	7
555.056	1	1
555.226	1	14
555.396	1	0
555.566	1	21
555.736	1	3
555.906	1	3
556.076	1	9
556.246	1	7
556.416	1	3
556.586	1	0
556.756	1	3
556.926	1	11
557.096	1	10
557.266	1	2
557.436	1	1
557.606	1	16
557.776	1	-1
557.946	1	4
558.116	1	-1
558.286	1	4
558.456	1	1
558.626	1	12
558.796	1	-4
558.966	1	-2
559.136	1	8
559.306	1	14
559.476	1	-4
559.646	1	0
559.816	1	3
559.986	1	4
560.155	1	3
560.325	1	7
560.495	1	4
560.665	1	4
560.835	1	6
561.005	1	0
561.175	1	5
561.345	1	5
561.515	1	-1
561.685	1	2
561.855	1	-13
562.025	1	2
562.195	1	8
562.365	1	5
562.535	1	7
562.705	1	-2
562.875	1	7
563.045	1	-2
563.215	1	11
563.385	1	19
563.555	1	15
563.725	1	-5
563.895	1	5
564.064	1	13
564.234	1	12
564.404	1	-6
564.574	1	13
564.744	1	1
564.914	1	-1
565.084	1	9
565.254	1	5
565.424	1	-2
565.594	1	14
565.764	1	4
565.934	1	-1
566.104	1	-1
566.274	1	-6
566.444	1	12
566.614	1	-4
566.783	1	4
566.953	1	8
567.123	1	1
567.293	1	7
567.463	1	10
567.633	1	8
567.803	1	-4
567.973	1	6
568.143	1	8
568.313	1	6
568.483	1	12
568.653	1	4
568.823	1	8
568.993	1	8
569.162	1	8
569.332	1	13
569.502	1	6
569.672	1	4
569.842	1	-7
570.012	1	1
570.182	1	3
570.352	1	5
570.522	1	7
570.692	1	0
570.862	1	22
571.031	1	7
571.201	1	12
571.371	1	-6
571.541	1	1
571.711	1	5
571.881	1	8
572.051	1	7
572.221	1	3
572.391	1	3
572.561	1	13
572.731	1	4
572.900	1	1
573.070	1	-3
573.240	1	6
573.410	1	8
573.580	1	16
573.750	1	9
573.920	1	1
574.090	1	7
574.260	1	5
574.430	1	12
574.599	1	2
574.769	1	3
574.939	1	6
575.109	1	4
575.279	1	4
575.449	1	2
575.619	1	-5
575.789	1	-1
575.959	1	0
576.128	1	-2
576.298	1	4
576.468	1	4
576.638	1	4
576.808	1	-3
576.978	1	5
577.148	1	3
577.318	1	-5
577.487	1	-2
577.657	1	12
577.827	1	4
577.997	1	3
578.167	1	5
578.337	1	-7
578.507	1	9
578.677	1	9
578.846	1	16
579.016	1	0
579.186	1	12
579.356	1	4
579.526	1	11
579.696	1	0
579.866	1	0
580.036	1	-1
580.205	1	2
580.375	1	6
580.545	1	14
580.715	1	20
580.885	1	3
581.055	1	3
581.225	1	-3
581.394	1	1
581.564	1	-5
581.734	1	-4
581.904	1	7
582.074	1	8
582.244	1	22
582.414	1	13
582.583	1	8
582.753	1	-7
582.923	1	6
583.093	1	6
583.263	1	-12
583.433	1	2
583.603	1	18
583.772	1	7
583.942	1	18
584.112	1	6
584.282	1	15
584.452	1	7
584.622	1	2
584.791	1	12
584.961	1	6
585.131	1	2
585.301	1	6
585.471	1	8
585.641	1	15
585.811	1	12
585.980	1	12
586.150	1	3
586.320	1	9
586.490	1	3
586.660	1	1
586.830	1	13
586.999	1	1
587.169	1	0
587.339	1	6
587.509	1	8
587.679	1	0
587.849	1	6
588.018	1	4
588.188	1	1
588.358	1	1
588.528	1	-5
588.698	1	3
588.867	1	1
589.037	1	0
589.207	1	4
589.377	1	17
589.547	1	11
589.717	1	7
589.886	1	2
590.056	1	3
590.226	1	7
590.396	1	6
590.566	1	9
590.735	1	-6
590.905	1	9
591.075	1	4
591.245	1	15
591.415	1	2
591.585	1	4
591.754	1	-8
591.924	1	-4
592.094	1	0
592.264	1	9
592.434	1	10
592.603	1	8
592.773	1	16
592.943	1	0
593.113	1	2
593.283	1	-2
593.452	1	3
593.622	1	0
593.792	1	13
593.962	1	8
594.132	1	7
594.301	1	4
594.471	1	10
594.641	1	-2
594.811	1	-1
594.981	1	-5
595.150	1	9
595.320	1	7
595.490	1	1
595.660	1	2
595.829	1	9
595.999	1	-4
596.169	1	-3
596.339	1	-1
596.509	1	7
596.678	1	2
596.848	1	7
597.018	1	3
597.188	1	-7
597.358	1	-3
597.527	1	12
597.697	1	-1
597.867	1	7
598.037	1	2
598.206	1	2
598.376	1	7
598.546	1	10
598.716	1	10
598.885	1	12
599.055	1	-1
599.225	1	13
599.395	1	0
599.565	1	9
599.734	1	6
599.904	1	20
600.074	1	1
600.244	1	8
600.413	1	2
600.583	1	3
600.753	1	3
600.923	1	-2
601.092	1	-6
601.262	1	1
601.432	1	15
601.602	1	10
601.771	1	4
601.941	1	3
602.111	1	7
602.281	1	15
602.451	1	2
602.620	1	-6
602.790	1	-15
602.960	1	0
603.130	1	-5
603.299	1	4
603.469	1	1
603.639	1	4
603.809	1	11
603.978	1	11
604.148	1	11
604.318	1	-1
604.487	1	0
604.657	1	10
604.827	1	10
604.997	1	-1
605.166	1	-2
605.336	1	2
605.506	1	-2
605.676	1	2
605.845	1	-2
606.015	1	-1
606.185	1	8
606.355	1	6
606.524	1	8
606.694	1	2
606.864	1	4
607.034	1	0
607.203	1	8
607.373	1	-1
607.543	1	-3
607.712	1	1
607.882	1	-10
608.052	1	3
608.222	1	3
608.391	1	12
608.561	1	21
608.731	1	1
608.901	1	12
609.070	1	2
609.240	1	6
609.410	1	4
609.579	1	-6
609.749	1	-2
609.919	1	7
610.089	1	-1
610.258	1	20
610.428	1	10
610.598	1	4
610.767	1	-3
610.937	1	5
611.107	1	-2
611.277	1	4
611.446	1	0
611.616	1	7
611.786	1	13
611.955	1	1
612.125	1	3
612.295	1	7
612.465	1	-5
612.634	1	15
612.804	1	4
612.974	1	5
613.143	1	-3
613.313	1	4
613.483	1	2
613.652	1	9
613.822	1	1
613.992	1	6
614.162	1	6
614.331	1	3
614.501	1	0
614.671	1	7
614.840	1	6
615.010	1	8
615.180	1	10
615.349	1	1
615.519	1	0
615.689	1	15
615.858	1	1
616.028	1	0
616.198	1	17
616.368	1	12
616.537	1	8
616.707	1	3
616.877	1	2
617.046	1	2
617.216	1	7
617.386	1	-5
617.555	1	12
617.725	1	-2
617.895	1	13
618.064	1	-3
618.234	1	-2
618.404	1	-7
618.573	1	18
618.743	1	-3
618.913	1	6
619.082	1	-5
619.252	1	5
619.422	1	-4
619.591	1	3
619.761	1	7
619.931	1	11
620.100	1	-1
620.270	1	-7
620.440	1	7
620.609	1	5
620.779	1	-1
620.949	1	4
621.118	1	-9
621.288	1	9
621.458	1	1
621.627	1	12
621.797	1	-1
621.967	1	4
622.136	1	11
622.306	1	0
622.476	1	9
622.645	1	-1
622.815	1	9
622.985	1	4
623.154	1	3
623.324	1	8
623.494	1	17
623.663	1	1
623.833	1	12
624.002	1	-4
624.172	1	-2
624.342	1	-7
624.511	1	3
624.681	1	4
624.851	1	0
625.020	1	3
625.190	1	10
625.360	1	-13
625.529	1	9
625.699	1	0
625.869	1	11
626.038	1	10
626.208	1	6
626.377	1	13
626.547	1	3
626.717	1	0
626.886	1	-4
627.056	1	8
627.226	1	-3
627.395	1	-1
627.565	1	16
627.735	1	11
627.904	1	-2
628.074	1	5
628.243	1	14
628.413	1	3
628.583	1	3
628.752	1	6
628.922	1	-2
629.091	1	-5
629.261	1	5
629.431	1	10
629.600	1	5
629.770	1	0
629.940	1	-4
630.109	1	11
630.279	1	-7
630.448	1	6
630.618	1	21
630.788	1	7
630.957	1	2
631.127	1	15
631.297	1	4
631.466	1	2
631.636	1	-1
631.805	1	17
631.975	1	2
632.145	1	10
632.314	1	4
632.484	1	1
632.653	1	2
632.823	1	15
632.993	1	1
633.162	1	14
633.332	1	-5
633.501	1	-2
633.671	1	1
633.841	1	12
634.010	1	14
634.180	1	3
634.349	1	13
634.519	1	-11
634.689	1	5
634.858	1	-10
635.028	1	15
635.197	1	20
635.367	1	0
635.537	1	-4
635.706	1	20
635.876	1	10
636.045	1	6
636.215	1	12
636.384	1	11
636.554	1	2
636.724	1	-5
636.893	1	-1
637.063	1	3
637.232	1	7
637.402	1	1
637.572	1	6
637.741	1	3
637.911	1	0
638.080	1	3
638.250	1	6
638.419	1	4
638.589	1	16
638.759	1	4
638.928	1	6
639.098	1	-4
639.267	1	4
639.437	1	-1
639.606	1	10
639.776	1	-5
639.946	1	2
640.115	1	2
640.285	1	15
640.454	1	-2
640.624	1	18
640.793	1	9
640.963	1	10
641.132	1	-5
641.302	1	8
641.472	1	3
641.641	1	1
641.811	1	-2
641.980	1	4
642.150	1	2
642.319	1	15
642.489	1	18
642.659	1	8
642.828	1	3
642.998	1	0
643.167	1	12
643.337	1	4
643.506	1	4
643.676	1	8
643.845	1	6
644.015	1	0
644.184	1	6
644.354	1	10
644.524	1	2
644.693	1	12
644.863	1	9
645.032	1	4
645.202	1	0
645.371	1	17
645.541	1	14
645.710	1	7
645.880	1	3
646.049	1	-1
646.219	1	12
646.388	1	6
646.558	1	-5
646.728	1	4
646.897	1	-7
647.067	1	2
647.236	1	2
647.406	1	0
647.575	1	-3
647.745	1	3
647.914	1	16
648.084	1	-5
648.253	1	-4
648.423	1	-3
648.592	1	3
648.762	1	12
648.931	1	10
649.101	1	10
649.270	1	5
649.440	1	-9
649.610	1	-1
649.779	1	-1
649.949	1	-2
650.118	1	8
650.288	1	2
650.457	1	4
650.627	1	7
650.796	1	3
650.966	1	2
651.135	1	7
651.305	1	5
651.474	1	-2
651.644	1	-10
651.813	1	-5
651.983	1	4
652.152	1	-5
652.322	1	-3
652.491	1	11
652.661	1	14
652.830	1	8
653.000	1	7
653.169	1	8
653.339	1	1
653.508	1	5
653.678	1	4
653.847	1	20
654.017	1	7
654.186	1	10
654.356	1	-1
654.525	1	6
654.695	1	2
654.864	1	7
655.034	1	-2
655.203	1	2
655.373	1	2
655.542	1	13
655.712	1	-3
655.881	1	2
656.051	1	-3
656.220	1	14
656.390	1	10
656.559	1	3
656.729	1	-3
656.898	1	10
657.068	1	7
657.237	1	15
657.406	1	12
657.576	1	-2
657.745	1	-3
657.915	1	6
658.084	1	8
658.254	1	6
658.423	1	-2
658.593	1	2
658.762	1	7
658.932	1	4
659.101	1	1
659.271	1	1
659.440	1	9
659.610	1	5
659.779	1	1
659.949	1	7
660.118	1	6
660.288	1	9
660.457	1	-4
660.626	1	-2
660.796	1	7
660.965	1	11
661.135	1	-1
661.304	1	8
661.474	1	11
661.643	1	2
661.813	1	4
661.982	1	-12
662.152	1	0
662.321	1	-1
662.491	1	11
662.660	1	-1
662.829	1	8
662.999	1	2
663.168	1	0
663.338	1	12
663.507	1	-2
663.677	1	7
663.846	1	5
664.016	1	-2
664.185	1	8
664.354	1	-1
664.524	1	6
664.693	1	6
664.863	1	14
665.032	1	9
665.202	1	9
665.371	1	4
665.541	1	6
665.710	1	3
665.879	1	7
666.049	1	13
666.218	1	5
666.388	1	9
666.557	1	4
666.727	1	3
666.896	1	0
667.065	1	1
667.235	1	-2
667.404	1	6
667.574	1	10
667.743	1	1
667.913	1	-2
668.082	1	3
668.251	1	1
668.421	1	5
668.590	1	8
668.760	1	0
668.929	1	9
669.099	1	2
669.268	1	9
669.437	1	-1
669.607	1	5
669.776	1	-3
669.946	1	1
670.115	1	1
670.285	1	2
670.454	1	-1
670.623	1	-7
670.793	1	9
670.962	1	-1
671.132	1	-2
671.301	1	1
671.470	1	0
671.640	1	-2
671.809	1	28
671.979	1	6
672.148	1	7
672.317	1	9
672.487	1	10
672.656	1	3
672.826	1	18
672.995	1	-1
673.164	1	5
673.334	1	8
673.503	1	7
673.673	1	10
673.842	1	3
674.011	1	6
674.181	1	-2
674.350	1	3
674.520	1	9
674.689	1	5
674.858	1	2
675.028	1	11
675.197	1	3
675.367	1	-3
675.536	1	-2
675.705	1	9
675.875	1	3
676.044	1	5
676.214	1	-4
676.383	1	13
676.552	1	-2
676.722	1	1
676.891	1	8
677.060	1	-1
677.230	1	7
677.399	1	-7
677.569	1	12
677.738	1	-1
677.907	1	6
678.077	1	-6
678.246	1	6
678.416	1	0
678.585	1	-2
678.754	1	5
678.924	1	7
679.093	1	7
679.262	1	5
679.432	1	2
679.601	1	-7
679.771	1	5
679.940	1	-4
680.109	1	2
680.279	1	-3
680.448	1	0
680.617	1	10
680.787	1	7
680.956	1	12
681.125	1	7
681.295	1	0
681.464	1	7
681.634	1	8
681.803	1	7
681.972	1	4
682.142	1	-4
682.311	1	-2
682.480	1	5
682.650	1	8
682.819	1	-5
682.988	1	10
683.158	1	-4
683.327	1	4
683.496	1	3
683.666	1	6
683.835	1	8
684.004	1	12
684.174	1	5
684.343	1	2
684.512	1	19
684.682	1	14
684.851	1	21
685.021	1	9
685.190	1	3
685.359	1	5
685.529	1	5
685.698	1	12
685.867	1	6
686.037	1	13
686.206	1	4
686.375	1	17
686.545	1	4
686.714	1	12
686.883	1	4
687.053	1	7
687.222	1	-1
687.391	1	1
687.561	1	0
687.730	1	2
687.899	1	0
688.069	1	2
688.238	1	2
688.407	1	6
688.577	1	13
688.746	1	3
