340.368	1	10
340.539	1	-4
340.710	1	3
340.881	1	-7
341.052	1	-6
341.223	1	16
341.394	1	-3
341.565	1	-9
341.737	1	-3
341.908	1	1
342.079	1	5
342.250	1	-1
342.421	1	-2
342.592	1	9
342.763	1	-2
342.934	1	0
343.105	1	-8
343.276	1	2
343.447	1	0
343.618	1	-4
343.789	1	-1
343.960	1	2
344.131	1	5
344.302	1	-9
344.473	1	7
344.644	1	1
344.815	1	1
344.986	1	0
345.157	1	1
345.328	1	8
345.499	1	14
345.670	1	0
345.841	1	6
346.012	1	-1
346.183	1	-1
346.354	1	4
346.526	1	-6
346.697	1	-7
346.868	1	-3
347.039	1	9
347.210	1	-5
347.381	1	2
347.552	1	3
347.723	1	9
347.894	1	-10
348.065	1	4
348.236	1	1
348.407	1	6
348.578	1	-4
348.749	1	1
348.920	1	0
349.091	1	7
349.262	1	8
349.433	1	11
349.604	1	5
349.775	1	-9
349.946	1	10
350.117	1	9
350.288	1	-5
350.459	1	11
350.630	1	-3
350.801	1	-2
350.972	1	8
351.143	1	20
351.314	1	-4
351.485	1	-2
351.656	1	-5
351.827	1	2
351.998	1	6
352.169	1	6
352.340	1	7
352.511	1	3
352.682	1	1
352.853	1	-7
353.024	1	3
353.195	1	3
353.366	1	1
353.537	1	0
353.708	1	10
353.879	1	-7
354.050	1	3
354.221	1	4
354.392	1	-3
354.563	1	-11
354.734	1	2
354.905	1	12
355.076	1	-5
355.247	1	1
355.418	1	4
355.589	1	-9
355.760	1	-5
355.931	1	8
356.102	1	10
356.273	1	4
356.444	1	3
356.615	1	4
356.785	1	-1
356.956	1	-3
357.127	1	10
357.298	1	7
357.469	1	-8
357.640	1	6
357.811	1	0
357.982	1	0
358.153	1	-5
358.324	1	7
358.495	1	7
358.666	1	2
358.837	1	6
359.008	1	15
359.179	1	3
359.350	1	-6
359.521	1	0
359.692	1	7
359.863	1	0
360.034	1	-1
360.205	1	10
360.376	1	1
360.547	1	9
360.718	1	-17
360.889	1	-1
361.060	1	5
361.231	1	3
361.401	1	-3
361.572	1	2
361.743	1	1
361.914	1	4
362.085	1	7
362.256	1	7
362.427	1	1
362.598	1	-5
362.769	1	12
362.940	1	-6
363.111	1	4
363.282	1	0
363.453	1	0
363.624	1	23
363.795	1	5
363.966	1	-2
364.137	1	-1
364.308	1	0
364.478	1	6
364.649	1	3
364.820	1	0
364.991	1	6
365.162	1	4
365.333	1	5
365.504	1	1
365.675	1	6
365.846	1	5
366.017	1	8
366.188	1	8
366.359	1	9
366.530	1	8
366.701	1	7
366.871	1	4
367.042	1	2
367.213	1	-1
367.384	1	4
367.555	1	-8
367.726	1	12
367.897	1	2
368.068	1	-2
368.239	1	4
368.410	1	1
368.581	1	3
368.752	1	12
368.923	1	-4
369.093	1	2
369.264	1	-7
369.435	1	2
369.606	1	-4
369.777	1	3
369.948	1	0
370.119	1	5
370.290	1	-1
370.461	1	1
370.632	1	11
370.803	1	7
370.973	1	-14
371.144	1	5
371.315	1	2
371.486	1	0
371.657	1	0
371.828	1	-1
371.999	1	5
372.170	1	2
372.341	1	13
372.512	1	4
372.682	1	0
372.853	1	2
373.024	1	-2
373.195	1	6
373.366	1	-1
373.537	1	5
373.708	1	4
373.879	1	-3
374.050	1	21
374.220	1	-2
374.391	1	-3
374.562	1	-6
374.733	1	-4
374.904	1	16
375.075	1	-8
375.246	1	-1
375.417	1	0
375.588	1	-2
375.758	1	8
375.929	1	9
376.100	1	-2
376.271	1	-3
376.442	1	0
376.613	1	-6
376.784	1	-4
376.955	1	4
377.125	1	7
377.296	1	0
377.467	1	4
377.638	1	0
377.809	1	10
377.980	1	-1
378.151	1	1
378.321	1	1
378.492	1	0
378.663	1	-2
378.834	1	3
379.005	1	1
379.176	1	3
379.347	1	0
379.518	1	-5
379.688	1	13
379.859	1	8
380.030	1	6
380.201	1	4
380.372	1	-4
380.543	1	9
380.714	1	9
380.884	1	9
381.055	1	-11
381.226	1	7
381.397	1	-6
381.568	1	-3
381.739	1	11
381.910	1	-2
382.080	1	1
382.251	1	9
382.422	1	8
382.593	1	7
382.764	1	-11
382.935	1	-4
383.105	1	3
383.276	1	7
383.447	1	8
383.618	1	2
383.789	1	13
383.960	1	5
384.130	1	4
384.301	1	4
384.472	1	0
384.643	1	3
384.814	1	2
384.985	1	6
385.156	1	2
385.326	1	-6
385.497	1	-6
385.668	1	0
385.839	1	7
386.010	1	3
386.180	1	-3
386.351	1	6
386.522	1	-2
386.693	1	0
386.864	1	-9
387.035	1	2
387.205	1	-4
387.376	1	2
387.547	1	-5
387.718	1	8
387.889	1	13
388.060	1	5
388.230	1	-1
388.401	1	3
388.572	1	9
388.743	1	-3
388.914	1	1
389.084	1	2
389.255	1	-7
389.426	1	-3
389.597	1	1
389.768	1	12
389.939	1	-3
390.109	1	3
390.280	1	-3
390.451	1	7
390.622	1	3
390.793	1	0
390.963	1	1
391.134	1	1
391.305	1	2
391.476	1	5
391.647	1	-3
391.817	1	8
391.988	1	-1
392.159	1	2
392.330	1	-1
392.501	1	-6
392.671	1	6
392.842	1	-10
393.013	1	3
393.184	1	8
393.355	1	-8
393.525	1	9
393.696	1	-2
393.867	1	7
394.038	1	6
394.208	1	5
394.379	1	2
394.550	1	-2
394.721	1	5
394.892	1	11
395.062	1	-4
395.233	1	-13
395.404	1	-7
395.575	1	9
395.746	1	1
395.916	1	4
396.087	1	7
396.258	1	-1
396.429	1	4
396.599	1	-4
396.770	1	-6
396.941	1	-1
397.112	1	3
397.283	1	6
397.453	1	6
397.624	1	6
397.795	1	3
397.966	1	13
398.136	1	1
398.307	1	-5
398.478	1	6
398.649	1	-1
398.819	1	-5
398.990	1	-2
399.161	1	6
399.332	1	3
399.503	1	-1
399.673	1	1
399.844	1	-5
400.015	1	1
400.186	1	-5
400.356	1	1
400.527	1	1
400.698	1	8
400.869	1	8
401.039	1	1
401.210	1	4
401.381	1	8
401.552	1	-1
401.722	1	5
401.893	1	-2
402.064	1	1
402.235	1	9
402.405	1	8
402.576	1	8
402.747	1	-3
402.918	1	2
403.088	1	2
403.259	1	8
403.430	1	6
403.601	1	3
403.771	1	11
403.942	1	-7
404.113	1	0
404.284	1	-3
404.454	1	-7
404.625	1	5
404.796	1	7
404.967	1	5
405.137	1	-6
405.308	1	-1
405.479	1	10
405.649	1	-3
405.820	1	2
405.991	1	3
406.162	1	2
406.332	1	2
406.503	1	-9
406.674	1	10
406.845	1	-1
407.015	1	14
407.186	1	-3
407.357	1	7
407.527	1	5
407.698	1	1
407.869	1	6
408.040	1	-3
408.210	1	-2
408.381	1	1
408.552	1	12
408.722	1	-1
408.893	1	5
409.064	1	12
409.235	1	-8
409.405	1	-6
409.576	1	3
409.747	1	1
409.917	1	-3
410.088	1	-2
410.259	1	-6
410.430	1	1
410.600	1	3
410.771	1	4
410.942	1	-6
411.112	1	1
411.283	1	2
411.454	1	-6
411.625	1	4
411.795	1	0
411.966	1	-3
412.137	1	10
412.307	1	-4
412.478	1	8
412.649	1	5
412.819	1	2
412.990	1	-10
413.161	1	5
413.332	1	5
413.502	1	2
413.673	1	1
413.844	1	-9
414.014	1	4
414.185	1	-7
414.356	1	17
414.526	1	13
414.697	1	11
414.868	1	2
415.038	1	8
415.209	1	-5
415.380	1	-1
415.550	1	-6
415.721	1	-2
415.892	1	8
416.063	1	3
416.233	1	14
416.404	1	3
416.575	1	1
416.745	1	-5
416.916	1	1
417.087	1	6
417.257	1	2
417.428	1	0
417.599	1	12
417.769	1	-1
417.940	1	-2
418.111	1	6
418.281	1	2
418.452	1	6
418.623	1	-6
418.793	1	10
418.964	1	6
419.135	1	4
419.305	1	7
419.476	1	1
419.647	1	-2
419.817	1	-4
419.988	1	2
420.159	1	2
420.329	1	-2
420.500	1	-8
420.671	1	2
420.841	1	-3
421.012	1	7
421.183	1	9
421.353	1	-3
421.524	1	-9
421.695	1	7
421.865	1	2
422.036	1	8
422.206	1	12
422.377	1	7
422.548	1	-5
422.718	1	-1
422.889	1	-9
423.060	1	-1
423.230	1	4
423.401	1	-1
423.572	1	3
423.742	1	-3
423.913	1	2
424.084	1	3
424.254	1	2
424.425	1	-1
424.595	1	0
424.766	1	-2
424.937	1	-1
425.107	1	-2
425.278	1	8
425.449	1	-3
425.619	1	1
425.790	1	-4
425.961	1	9
426.131	1	-4
426.302	1	4
426.472	1	-2
426.643	1	0
426.814	1	-1
426.984	1	-4
427.155	1	1
427.326	1	11
427.496	1	5
427.667	1	5
427.837	1	8
428.008	1	-1
428.179	1	-6
428.349	1	-6
428.520	1	0
428.691	1	-1
428.861	1	15
429.032	1	6
429.202	1	2
429.373	1	1
429.544	1	-1
429.714	1	-13
429.885	1	6
430.055	1	8
430.226	1	5
430.397	1	-3
430.567	1	9
430.738	1	7
430.909	1	5
431.079	1	0
431.250	1	-2
431.420	1	4
431.591	1	0
431.762	1	-3
431.932	1	5
432.103	1	5
432.273	1	6
432.444	1	2
432.615	1	5
432.785	1	-4
432.956	1	6
433.126	1	3
433.297	1	1
433.468	1	-2
433.638	1	2
433.809	1	-12
433.979	1	9
434.150	1	10
434.320	1	-3
434.491	1	9
434.662	1	-1
434.832	1	3
435.003	1	4
435.173	1	2
435.344	1	0
435.515	1	3
435.685	1	1
435.856	1	16
436.026	1	-6
436.197	1	6
436.368	1	-8
436.538	1	4
436.709	1	-8
436.879	1	-3
437.050	1	10
437.220	1	16
437.391	1	20
437.562	1	2
437.732	1	0
437.903	1	0
438.073	1	-10
438.244	1	1
438.414	1	17
438.585	1	2
438.756	1	-2
438.926	1	6
439.097	1	-1
439.267	1	3
439.438	1	-2
439.608	1	-1
439.779	1	7
439.949	1	-3
440.120	1	-1
440.291	1	2
440.461	1	-1
440.632	1	5
440.802	1	7
440.973	1	8
441.143	1	-8
441.314	1	3
441.485	1	-4
441.655	1	4
441.826	1	-4
441.996	1	2
442.167	1	-5
442.337	1	3
442.508	1	11
442.678	1	4
442.849	1	14
443.019	1	-7
443.190	1	1
443.361	1	1
443.531	1	-3
443.702	1	7
443.872	1	4
444.043	1	-4
444.213	1	8
444.384	1	12
444.554	1	-13
444.725	1	-4
444.895	1	-8
445.066	1	3
445.237	1	-2
445.407	1	8
445.578	1	10
445.748	1	4
445.919	1	9
446.089	1	2
446.260	1	3
446.430	1	-1
446.601	1	-1
446.771	1	6
446.942	1	5
447.112	1	0
447.283	1	7
447.453	1	-3
447.624	1	-1
447.794	1	9
447.965	1	-5
448.135	1	10
448.306	1	5
448.477	1	8
448.647	1	9
448.818	1	-1
448.988	1	6
449.159	1	3
449.329	1	5
449.500	1	13
449.670	1	9
449.841	1	-1
450.011	1	3
450.182	1	1
450.352	1	11
450.523	1	-6
450.693	1	2
450.864	1	11
451.034	1	9
451.205	1	3
451.375	1	0
451.546	1	11
451.716	1	-4
451.887	1	6
452.057	1	0
452.228	1	7
452.398	1	1
452.569	1	-2
452.739	1	8
452.910	1	4
453.080	1	-2
453.251	1	2
453.421	1	2
453.592	1	9
453.762	1	5
453.933	1	6
454.103	1	10
454.274	1	0
454.444	1	-2
454.615	1	-1
454.785	1	-5
454.956	1	-3
455.126	1	2
455.297	1	7
455.467	1	9
455.638	1	-7
455.808	1	6
455.979	1	0
456.149	1	0
456.320	1	-5
456.490	1	-2
456.661	1	3
456.831	1	1
457.001	1	2
457.172	1	7
457.342	1	4
457.513	1	5
457.683	1	6
457.854	1	2
458.024	1	1
458.195	1	-8
458.365	1	-3
458.536	1	3
458.706	1	-6
458.877	1	2
459.047	1	-7
459.218	1	-2
459.388	1	4
459.559	1	-2
459.729	1	13
459.899	1	-3
460.070	1	5
460.240	1	12
460.411	1	8
460.581	1	5
460.752	1	9
460.922	1	0
461.093	1	-2
461.263	1	1
461.434	1	4
461.604	1	-11
461.775	1	4
461.945	1	0
462.115	1	-1
462.286	1	18
462.456	1	5
462.627	1	1
462.797	1	9
462.968	1	9
463.138	1	6
463.309	1	4
463.479	1	2
463.649	1	-2
463.820	1	-11
463.990	1	-2
464.161	1	-5
464.331	1	7
464.502	1	8
464.672	1	4
464.843	1	12
465.013	1	3
465.183	1	-4
465.354	1	0
465.524	1	-4
465.695	1	-1
465.865	1	-3
466.036	1	8
466.206	1	2
466.376	1	4
466.547	1	5
466.717	1	-10
466.888	1	-1
467.058	1	-2
467.229	1	8
467.399	1	5
467.569	1	7
467.740	1	-20
467.910	1	-4
468.081	1	-2
468.251	1	13
468.422	1	1
468.592	1	-3
468.762	1	7
468.933	1	4
469.103	1	-1
469.274	1	3
469.444	1	10
469.614	1	0
469.785	1	-7
469.955	1	-6
470.126	1	1
470.296	1	-6
470.467	1	2
470.637	1	10
470.807	1	6
470.978	1	-13
471.148	1	8
471.319	1	0
471.489	1	16
471.659	1	1
471.830	1	-1
472.000	1	-7
472.171	1	4
472.341	1	-2
472.511	1	7
472.682	1	11
472.852	1	1
473.023	1	-7
473.193	1	3
473.363	1	4
473.534	1	-7
473.704	1	-1
473.875	1	5
474.045	1	-8
474.215	1	12
474.386	1	14
474.556	1	6
474.727	1	2
474.897	1	1
475.067	1	1
475.238	1	7
475.408	1	7
475.578	1	0
475.749	1	2
475.919	1	-3
476.090	1	8
476.260	1	3
476.430	1	1
476.601	1	-6
476.771	1	10
476.942	1	-3
477.112	1	8
477.282	1	4
477.453	1	0
477.623	1	-1
477.793	1	4
477.964	1	-5
478.134	1	3
478.305	1	-2
478.475	1	-3
478.645	1	7
478.816	1	9
478.986	1	-5
479.156	1	-5
479.327	1	-12
479.497	1	-4
479.667	1	-2
479.838	1	4
480.008	1	2
480.179	1	14
480.349	1	1
480.519	1	-2
480.690	1	-4
480.860	1	8
481.030	1	-2
481.201	1	1
481.371	1	4
481.541	1	4
481.712	1	14
481.882	1	-4
482.053	1	5
482.223	1	0
482.393	1	-3
482.564	1	-1
482.734	1	6
482.904	1	-10
483.075	1	-4
483.245	1	11
483.415	1	3
483.586	1	1
483.756	1	3
483.926	1	-7
484.097	1	7
484.267	1	-12
484.437	1	10
484.608	1	-5
484.778	1	9
484.948	1	-2
485.119	1	-5
485.289	1	-7
485.459	1	1
485.630	1	9
485.800	1	1
485.970	1	-7
486.141	1	-5
486.311	1	7
486.481	1	1
486.652	1	-1
486.822	1	11
486.992	1	3
487.163	1	10
487.333	1	-5
487.503	1	4
487.674	1	3
487.844	1	0
488.014	1	-3
488.185	1	12
488.355	1	5
488.525	1	4
488.696	1	3
488.866	1	-3
489.036	1	-3
489.207	1	12
489.377	1	-3
489.547	1	8
489.718	1	3
489.888	1	4
490.058	1	0
490.228	1	9
490.399	1	-3
490.569	1	3
490.739	1	9
490.910	1	-5
491.080	1	8
491.250	1	5
491.421	1	-3
491.591	1	8
491.761	1	7
491.932	1	6
492.102	1	1
492.272	1	-2
492.442	1	-5
492.613	1	8
492.783	1	7
492.953	1	6
493.124	1	-5
493.294	1	-1
493.464	1	5
493.635	1	0
493.805	1	-7
493.975	1	3
494.145	1	-5
494.316	1	6
494.486	1	-9
494.656	1	-7
494.827	1	0
494.997	1	-4
495.167	1	6
495.337	1	7
495.508	1	10
495.678	1	1
495.848	1	2
496.019	1	-7
496.189	1	1
496.359	1	-11
496.529	1	5
496.700	1	2
496.870	1	4
497.040	1	-8
497.211	1	2
497.381	1	-2
497.551	1	-6
497.721	1	9
497.892	1	13
498.062	1	11
498.232	1	-7
498.403	1	-4
498.573	1	11
498.743	1	11
498.913	1	7
499.084	1	-9
499.254	1	14
499.424	1	5
499.594	1	11
499.765	1	-2
499.935	1	17
500.105	1	-6
500.275	1	-4
500.446	1	5
500.616	1	6
500.786	1	-5
500.956	1	3
501.127	1	1
501.297	1	5
501.467	1	1
501.638	1	-3
501.808	1	-4
501.978	1	-4
502.148	1	5
502.319	1	4
502.489	1	7
502.659	1	-5
502.829	1	13
503.000	1	3
503.170	1	1
503.340	1	8
503.510	1	-9
503.681	1	0
503.851	1	-2
504.021	1	16
504.191	1	-9
504.362	1	5
504.532	1	3
504.702	1	11
504.872	1	-2
505.042	1	-7
505.213	1	8
505.383	1	0
505.553	1	3
505.723	1	-1
505.894	1	4
506.064	1	4
506.234	1	16
506.404	1	7
506.575	1	-14
506.745	1	-5
506.915	1	10
507.085	1	0
507.256	1	-3
507.426	1	-7
507.596	1	9
507.766	1	4
507.936	1	-2
508.107	1	-6
508.277	1	-7
508.447	1	1
508.617	1	2
508.788	1	-3
508.958	1	-1
509.128	1	-3
509.298	1	3
509.468	1	-2
509.639	1	-4
509.809	1	14
509.979	1	9
510.149	1	4
510.319	1	7
510.490	1	-1
510.660	1	9
510.830	1	-1
511.000	1	-5
511.171	1	-7
511.341	1	-2
511.511	1	4
511.681	1	0
511.851	1	11
512.022	1	2
512.192	1	0
512.362	1	3
512.532	1	5
512.702	1	3
512.873	1	2
513.043	1	13
513.213	1	-2
513.383	1	-6
513.553	1	-2
513.724	1	6
513.894	1	0
514.064	1	1
514.234	1	-3
514.404	1	6
514.575	1	4
514.745	1	-8
514.915	1	-26
515.085	1	5
515.255	1	9
515.425	1	-7
515.596	1	-2
515.766	1	9
515.936	1	2
516.106	1	8
516.276	1	5
516.447	1	11
516.617	1	2
516.787	1	-4
516.957	1	9
517.127	1	12
517.297	1	-4
517.468	1	3
517.638	1	1
517.808	1	10
517.978	1	6
518.148	1	13
518.319	1	12
518.489	1	-5
518.659	1	12
518.829	1	-3
518.999	1	1
519.169	1	-4
519.340	1	-4
519.510	1	4
519.680	1	5
519.850	1	4
520.020	1	7
520.190	1	-2
520.361	1	1
520.531	1	-4
520.701	1	1
520.871	1	-6
521.041	1	-1
521.211	1	7
521.382	1	-2
521.552	1	9
521.722	1	21
521.892	1	-5
522.062	1	-9
522.232	1	3
522.402	1	7
522.573	1	6
522.743	1	3
522.913	1	2
523.083	1	-3
523.253	1	0
523.423	1	13
523.593	1	-9
523.764	1	3
523.934	1	6
524.104	1	-1
524.274	1	3
524.444	1	2
524.614	1	5
524.784	1	17
524.955	1	5
525.125	1	-2
525.295	1	12
525.465	1	-1
525.635	1	-6
525.805	1	5
525.975	1	5
526.146	1	5
526.316	1	1
526.486	1	8
526.656	1	10
526.826	1	-10
526.996	1	2
527.166	1	7
527.337	1	8
527.507	1	-7
527.677	1	9
527.847	1	3
528.017	1	-8
528.187	1	1
528.357	1	3
528.527	1	-3
528.698	1	8
528.868	1	-3
529.038	1	4
529.208	1	5
529.378	1	-3
529.548	1	-3
529.718	1	-6
529.888	1	6
530.058	1	-1
530.229	1	5
530.399	1	5
530.569	1	-3
530.739	1	11
530.909	1	0
531.079	1	-10
531.249	1	9
531.419	1	11
531.589	1	-1
531.760	1	7
531.930	1	3
532.100	1	0
532.270	1	-11
532.440	1	-7
532.610	1	6
532.780	1	-1
532.950	1	-10
533.120	1	7
533.290	1	1
533.461	1	-14
533.631	1	-1
533.801	1	-7
533.971	1	2
534.141	1	-13
534.311	1	11
534.481	1	1
534.651	1	0
534.821	1	-4
534.991	1	-3
535.162	1	11
535.332	1	5
535.502	1	5
535.672	1	6
535.842	1	0
536.012	1	2
536.182	1	3
536.352	1	0
536.522	1	0
536.692	1	1
536.862	1	7
537.032	1	6
537.203	1	14
537.373	1	4
537.543	1	4
537.713	1	-5
537.883	1	-1
538.053	1	-3
538.223	1	6
538.393	1	3
538.563	1	5
538.733	1	-3
538.903	1	3
539.073	1	-10
539.243	1	-2
539.413	1	-3
539.584	1	6
539.754	1	-3
539.924	1	0
540.094	1	-6
540.264	1	0
540.434	1	1
540.604	1	4
540.774	1	14
540.944	1	4
541.114	1	7
541.284	1	0
541.454	1	3
541.624	1	-12
541.794	1	16
541.964	1	11
542.134	1	0
542.305	1	10
542.475	1	5
542.645	1	-2
542.815	1	5
542.985	1	11
543.155	1	3
543.325	1	-5
543.495	1	15
543.665	1	10
543.835	1	-4
544.005	1	1
544.175	1	-1
544.345	1	0
544.515	1	2
544.685	1	-16
544.855	1	14
545.025	1	2
545.195	1	1
545.365	1	-4
545.535	1	5
545.705	1	1
545.875	1	-4
546.045	1	-3
546.216	1	3
546.386	1	-4
546.556	1	10
546.726	1	-2
546.896	1	11
547.066	1	1
547.236	1	1
547.406	1	-3
547.576	1	4
547.746	1	10
547.916	1	9
548.086	1	0
548.256	1	7
548.426	1	-12
548.596	1	4
548.766	1	-2
548.936	1	-1
549.106	1	3
549.276	1	4
549.446	1	4
549.616	1	0
549.786	1	11
549.956	1	-2
550.126	1	12
550.296	1	4
550.466	1	3
550.636	1	6
550.806	1	1
550.976	1	5
551.146	1	12
551.316	1	9
551.486	1	-5
551.656	1	1
551.826	1	-7
551.996	1	-4
552.166	1	1
552.336	1	7
552.506	1	2
552.676	1	4
552.846	1	10
553.016	1	9
553.186	1	3
553.356	1	-2
553.526	1	-5
553.696	1	6
553.866	1	-3
554.036	1	6
554.206	1	7
554.376	1	-3
554.546	1	6
554.716	1	-3
554.886	1	15
555.056	1	-5
555.226	1	10
555.396	1	-4
555.566	1	4
555.736	1	-5
555.906	1	9
556.076	1	2
556.246	1	4
556.416	1	5
556.586	1	3
556.756	1	5
556.926	1	5
557.096	1	4
557.266	1	1
557.436	1	-5
557.606	1	4
557.776	1	-4
557.946	1	2
558.116	1	1
558.286	1	2
558.456	1	3
558.626	1	17
558.796	1	-2
558.966	1	0
559.136	1	8
559.306	1	10
559.476	1	6
559.646	1	-1
559.816	1	-3
559.986	1	5
560.155	1	-1
560.325	1	0
560.495	1	1
560.665	1	-3
560.835	1	0
561.005	1	-7
561.175	1	1
561.345	1	-7
561.515	1	7
561.685	1	-1
561.855	1	-10
562.025	1	-2
562.195	1	-1
562.365	1	3
562.535	1	-5
562.705	1	9
562.875	1	-3
563.045	1	7
563.215	1	4
563.385	1	5
563.555	1	9
563.725	1	-6
563.895	1	11
564.064	1	9
564.234	1	5
564.404	1	-11
564.574	1	11
564.744	1	5
564.914	1	0
565.084	1	2
565.254	1	-5
565.424	1	4
565.594	1	-3
565.764	1	2
565.934	1	-3
566.104	1	6
566.274	1	-7
566.444	1	6
566.614	1	-4
566.783	1	4
566.953	1	-3
567.123	1	-2
567.293	1	2
567.463	1	8
567.633	1	-1
567.803	1	4
567.973	1	3
568.143	1	11
568.313	1	4
568.483	1	0
568.653	1	-2
568.823	1	3
568.993	1	10
569.162	1	6
569.332	1	-3
569.502	1	-2
569.672	1	6
569.842	1	-3
570.012	1	12
570.182	1	-8
570.352	1	-6
570.522	1	7
570.692	1	-1
570.862	1	16
571.031	1	-2
571.201	1	3
571.371	1	-11
571.541	1	1
571.711	1	8
571.881	1	10
572.051	1	6
572.221	1	1
572.391	1	-10
572.561	1	8
572.731	1	4
572.900	1	1
573.070	1	1
573.240	1	0
573.410	1	1
573.580	1	7
573.750	1	-1
573.920	1	-2
574.090	1	2
574.260	1	9
574.430	1	-11
574.599	1	-4
574.769	1	4
574.939	1	1
575.109	1	1
575.279	1	-12
575.449	1	2
575.619	1	-2
575.789	1	0
575.959	1	-1
576.128	1	-5
576.298	1	-7
576.468	1	3
576.638	1	-8
576.808	1	8
576.978	1	0
577.148	1	-3
577.318	1	-6
577.487	1	-12
577.657	1	6
577.827	1	2
577.997	1	6
578.167	1	16
578.337	1	1
578.507	1	3
578.677	1	8
578.846	1	11
579.016	1	1
579.186	1	16
579.356	1	11
579.526	1	1
579.696	1	-2
579.866	1	2
580.036	1	-2
580.205	1	-1
580.375	1	-2
580.545	1	2
580.715	1	11
580.885	1	2
581.055	1	-1
581.225	1	-8
581.394	1	-10
581.564	1	-5
581.734	1	1
581.904	1	4
582.074	1	7
582.244	1	9
582.414	1	10
582.583	1	3
582.753	1	-9
582.923	1	3
583.093	1	6
583.263	1	-10
583.433	1	-2
583.603	1	6
583.772	1	5
583.942	1	4
584.112	1	8
584.282	1	-2
584.452	1	0
584.622	1	7
584.791	1	7
584.961	1	4
585.131	1	3
585.301	1	0
585.471	1	0
585.641	1	2
585.811	1	11
585.980	1	3
586.150	1	14
586.320	1	13
586.490	1	2
586.660	1	7
586.830	1	11
586.999	1	-6
587.169	1	-2
587.339	1	-2
587.509	1	4
587.679	1	5
587.849	1	4
588.018	1	-2
588.188	1	3
588.358	1	2
588.528	1	-10
588.698	1	-10
588.867	1	-3
589.037	1	6
589.207	1	-3
589.377	1	10
589.547	1	7
589.717	1	4
589.886	1	2
590.056	1	-4
590.226	1	15
590.396	1	5
590.566	1	-2
590.735	1	-6
590.905	1	0
591.075	1	0
591.245	1	8
591.415	1	7
591.585	1	-2
591.754	1	-11
591.924	1	0
592.094	1	-6
592.264	1	1
592.434	1	8
592.603	1	2
592.773	1	18
592.943	1	-3
593.113	1	-2
593.283	1	2
593.452	1	-5
593.622	1	-1
593.792	1	8
593.962	1	4
594.132	1	-5
594.301	1	3
594.471	1	-4
594.641	1	8
594.811	1	-13
594.981	1	-8
595.150	1	-6
595.320	1	-1
595.490	1	-5
595.660	1	4
595.829	1	3
595.999	1	-9
596.169	1	-2
596.339	1	11
596.509	1	5
596.678	1	-1
596.848	1	7
597.018	1	-5
597.188	1	-7
597.358	1	5
597.527	1	9
597.697	1	3
597.867	1	10
598.037	1	-2
598.206	1	-4
598.376	1	2
598.546	1	13
598.716	1	-2
598.885	1	6
599.055	1	2
599.225	1	12
599.395	1	0
599.565	1	2
599.734	1	1
599.904	1	10
600.074	1	2
600.244	1	4
600.413	1	2
600.583	1	6
600.753	1	0
600.923	1	3
601.092	1	7
601.262	1	1
601.432	1	7
601.602	1	-4
601.771	1	-3
601.941	1	4
602.111	1	3
602.281	1	10
602.451	1	6
602.620	1	3
602.790	1	-15
602.960	1	-8
603.130	1	-9
603.299	1	3
603.469	1	-1
603.639	1	2
603.809	1	5
603.978	1	2
604.148	1	-1
604.318	1	9
604.487	1	-6
604.657	1	9
604.827	1	2
604.997	1	2
605.166	1	1
605.336	1	-4
605.506	1	-3
605.676	1	-1
605.845	1	-1
606.015	1	-1
606.185	1	8
606.355	1	-2
606.524	1	5
606.694	1	4
606.864	1	-3
607.034	1	9
607.203	1	7
607.373	1	-1
607.543	1	-2
607.712	1	-2
607.882	1	-11
608.052	1	2
608.222	1	-3
608.391	1	9
608.561	1	13
608.731	1	0
608.901	1	-1
609.070	1	4
609.240	1	6
609.410	1	11
609.579	1	-11
609.749	1	-10
609.919	1	-3
610.089	1	5
610.258	1	5
610.428	1	3
610.598	1	2
610.767	1	-1
610.937	1	4
611.107	1	-6
611.277	1	-5
611.446	1	1
611.616	1	6
611.786	1	3
611.955	1	5
612.125	1	1
612.295	1	6
612.465	1	-4
612.634	1	9
612.804	1	4
612.974	1	-2
613.143	1	9
613.313	1	-5
613.483	1	1
613.652	1	7
613.822	1	-5
613.992	1	2
614.162	1	8
614.331	1	-7
614.501	1	5
614.671	1	5
614.840	1	10
615.010	1	-4
615.180	1	5
615.349	1	7
615.519	1	0
615.689	1	14
615.858	1	5
616.028	1	-5
616.198	1	2
616.368	1	0
616.537	1	2
616.707	1	5
616.877	1	4
617.046	1	6
617.216	1	3
617.386	1	1
617.555	1	5
617.725	1	0
617.895	1	12
618.064	1	5
618.234	1	-3
618.404	1	5
618.573	1	16
618.743	1	-8
618.913	1	3
619.082	1	4
619.252	1	8
619.422	1	-3
619.591	1	2
619.761	1	-5
619.931	1	8
620.100	1	-2
620.270	1	1
620.440	1	6
620.609	1	0
620.779	1	3
620.949	1	1
621.118	1	0
621.288	1	11
621.458	1	0
621.627	1	1
621.797	1	3
621.967	1	4
622.136	1	0
622.306	1	5
622.476	1	-4
622.645	1	6
622.815	1	1
622.985	1	0
623.154	1	-1
623.324	1	0
623.494	1	8
623.663	1	4
623.833	1	9
624.002	1	-15
624.172	1	-4
624.342	1	-8
624.511	1	-11
624.681	1	10
624.851	1	7
625.020	1	-4
625.190	1	5
625.360	1	-3
625.529	1	8
625.699	1	5
625.869	1	4
626.038	1	-2
626.208	1	1
626.377	1	3
626.547	1	4
626.717	1	-2
626.886	1	-7
627.056	1	4
627.226	1	2
627.395	1	-11
627.565	1	3
627.735	1	8
627.904	1	-2
628.074	1	0
628.243	1	12
628.413	1	-3
628.583	1	-8
628.752	1	0
628.922	1	-4
629.091	1	-4
629.261	1	-9
629.431	1	8
629.600	1	16
629.770	1	-7
629.940	1	-6
630.109	1	0
630.279	1	1
630.448	1	3
630.618	1	16
630.788	1	5
630.957	1	12
631.127	1	11
631.297	1	-3
631.466	1	0
631.636	1	-8
631.805	1	15
631.975	1	7
632.145	1	4
632.314	1	0
632.484	1	8
632.653	1	-9
632.823	1	2
632.993	1	10
633.162	1	2
633.332	1	-9
633.501	1	-9
633.671	1	-5
633.841	1	12
634.010	1	11
634.180	1	-1
634.349	1	10
634.519	1	-9
634.689	1	-1
634.858	1	-3
635.028	1	10
635.197	1	10
635.367	1	4
635.537	1	1
635.706	1	-1
635.876	1	5
636.045	1	-4
636.215	1	11
636.384	1	8
636.554	1	1
636.724	1	3
636.893	1	-5
637.063	1	14
637.232	1	-2
637.402	1	-1
637.572	1	3
637.741	1	-5
637.911	1	-2
638.080	1	-8
638.250	1	-4
638.419	1	2
638.589	1	8
638.759	1	7
638.928	1	4
639.098	1	-2
639.267	1	7
639.437	1	-3
639.606	1	0
639.776	1	-1
639.946	1	8
640.115	1	1
640.285	1	7
640.454	1	6
640.624	1	11
640.793	1	11
640.963	1	12
641.132	1	-10
641.302	1	10
641.472	1	-8
641.641	1	2
641.811	1	6
641.980	1	1
642.150	1	-4
642.319	1	4
642.489	1	5
642.659	1	16
642.828	1	3
642.998	1	0
643.167	1	-4
643.337	1	-4
643.506	1	-1
643.676	1	-4
643.845	1	-3
644.015	1	-2
644.184	1	11
644.354	1	3
644.524	1	3
644.693	1	6
644.863	1	3
645.032	1	8
645.202	1	0
645.371	1	11
645.541	1	8
645.710	1	-4
645.880	1	1
646.049	1	5
646.219	1	4
646.388	1	4
646.558	1	-1
646.728	1	4
646.897	1	-4
647.067	1	0
647.236	1	0
647.406	1	-3
647.575	1	4
647.745	1	-1
647.914	1	8
648.084	1	-8
648.253	1	-6
648.423	1	-4
648.592	1	6
648.762	1	7
648.931	1	-2
649.101	1	6
649.270	1	3
649.440	1	-3
649.610	1	1
649.779	1	2
649.949	1	-1
650.118	1	-4
650.288	1	12
650.457	1	3
650.627	1	-4
650.796	1	9
650.966	1	0
651.135	1	11
651.305	1	0
651.474	1	-2
651.644	1	-10
651.813	1	-2
651.983	1	-2
652.152	1	2
652.322	1	1
652.491	1	21
652.661	1	10
652.830	1	5
653.000	1	10
653.169	1	12
653.339	1	-4
653.508	1	11
653.678	1	-4
653.847	1	6
654.017	1	7
654.186	1	-1
654.356	1	-3
654.525	1	2
654.695	1	6
654.864	1	-3
655.034	1	-1
655.203	1	7
655.373	1	6
655.542	1	2
655.712	1	-2
655.881	1	1
656.051	1	1
656.220	1	8
656.390	1	-4
656.559	1	5
656.729	1	-8
656.898	1	-4
657.068	1	8
657.237	1	-3
657.406	1	3
657.576	1	-5
657.745	1	-8
657.915	1	7
658.084	1	-5
658.254	1	-2
658.423	1	-2
658.593	1	-7
658.762	1	11
658.932	1	13
659.101	1	-4
659.271	1	1
659.440	1	12
659.610	1	13
659.779	1	10
659.949	1	0
660.118	1	9
660.288	1	4
660.457	1	-1
660.626	1	-9
660.796	1	6
660.965	1	11
661.135	1	9
661.304	1	15
661.474	1	10
661.643	1	-6
661.813	1	-1
661.982	1	-7
662.152	1	-5
662.321	1	-3
662.491	1	-3
662.660	1	-5
662.829	1	1
662.999	1	6
663.168	1	4
663.338	1	7
663.507	1	-4
663.677	1	-3
663.846	1	0
664.016	1	-3
664.185	1	11
664.354	1	-2
664.524	1	-3
664.693	1	14
664.863	1	9
665.032	1	5
665.202	1	9
665.371	1	-1
665.541	1	8
665.710	1	-5
665.879	1	3
666.049	1	7
666.218	1	1
666.388	1	-4
666.557	1	-2
666.727	1	6
666.896	1	5
667.065	1	-6
667.235	1	10
667.404	1	5
667.574	1	10
667.743	1	-5
667.913	1	0
668.082	1	2
668.251	1	6
668.421	1	4
668.590	1	11
668.760	1	-3
668.929	1	13
669.099	1	16
669.268	1	1
669.437	1	-1
669.607	1	-2
669.776	1	0
669.946	1	-2
670.115	1	0
670.285	1	0
670.454	1	0
670.623	1	1
670.793	1	-1
670.962	1	5
671.132	1	0
671.301	1	5
671.470	1	4
671.640	1	-3
671.809	1	17
671.979	1	8
672.148	1	-1
672.317	1	-4
672.487	1	10
672.656	1	0
672.826	1	9
672.995	1	-3
673.164	1	2
673.334	1	-7
673.503	1	-11
673.673	1	-4
673.842	1	-7
674.011	1	-2
674.181	1	1
674.350	1	-1
674.520	1	5
674.689	1	4
674.858	1	6
675.028	1	15
675.197	1	-7
675.367	1	9
675.536	1	8
675.705	1	6
675.875	1	6
676.044	1	-4
676.214	1	-7
676.383	1	0
676.552	1	2
676.722	1	13
676.891	1	-4
677.060	1	-2
677.230	1	-9
677.399	1	4
677.569	1	7
677.738	1	-14
677.907	1	1
678.077	1	-4
678.246	1	0
678.416	1	-6
678.585	1	1
678.754	1	10
678.924	1	-9
679.093	1	3
679.262	1	9
679.432	1	-4
679.601	1	0
679.771	1	-2
679.940	1	-3
680.109	1	-9
680.279	1	-1
680.448	1	-7
680.617	1	4
680.787	1	7
680.956	1	14
681.125	1	1
681.295	1	-4
681.464	1	10
681.634	1	4
681.803	1	4
681.972	1	3
682.142	1	-7
682.311	1	-8
682.480	1	0
682.650	1	4
682.819	1	-6
682.988	1	5
683.158	1	3
683.327	1	6
683.496	1	-1
683.666	1	-1
683.835	1	0
684.004	1	-1
684.174	1	4
684.343	1	-3
684.512	1	13
684.682	1	9
684.851	1	16
685.021	1	4
685.190	1	4
685.359	1	11
685.529	1	4
685.698	1	-2
685.867	1	2
686.037	1	-2
686.206	1	12
686.375	1	13
686.545	1	2
686.714	1	-4
686.883	1	5
687.053	1	4
687.222	1	4
687.391	1	-2
687.561	1	-12
687.730	1	-3
687.899	1	1
688.069	1	-5
688.238	1	2
688.407	1	3
688.577	1	7
688.746	1	1
