340.368	1	1
340.539	1	11
340.710	1	5
340.881	1	0
341.052	1	4
341.223	1	12
341.394	1	-12
341.565	1	3
341.737	1	7
341.908	1	15
342.079	1	6
342.250	1	4
342.421	1	-4
342.592	1	11
342.763	1	7
342.934	1	4
343.105	1	12
343.276	1	-1
343.447	1	4
343.618	1	13
343.789	1	-2
343.960	1	8
344.131	1	-6
344.302	1	3
344.473	1	7
344.644	1	-3
344.815	1	-3
344.986	1	10
345.157	1	13
345.328	1	8
345.499	1	6
345.670	1	-1
345.841	1	7
346.012	1	1
346.183	1	1
346.354	1	0
346.526	1	6
346.697	1	5
346.868	1	6
347.039	1	5
347.210	1	6
347.381	1	16
347.552	1	11
347.723	1	11
347.894	1	0
348.065	1	-1
348.236	1	2
348.407	1	15
348.578	1	10
348.749	1	12
348.920	1	4
349.091	1	5
349.262	1	8
349.433	1	0
349.604	1	-2
349.775	1	4
349.946	1	1
350.117	1	8
350.288	1	-14
350.459	1	-7
350.630	1	-12
350.801	1	5
350.972	1	9
351.143	1	14
351.314	1	1
351.485	1	8
351.656	1	11
351.827	1	13
351.998	1	11
352.169	1	6
352.340	1	1
352.511	1	6
352.682	1	-12
352.853	1	-1
353.024	1	16
353.195	1	-3
353.366	1	3
353.537	1	2
353.708	1	7
353.879	1	14
354.050	1	-8
354.221	1	-15
354.392	1	-5
354.563	1	8
354.734	1	7
354.905	1	11
355.076	1	23
355.247	1	2
355.418	1	-2
355.589	1	11
355.760	1	7
355.931	1	3
356.102	1	5
356.273	1	2
356.444	1	14
356.615	1	9
356.785	1	6
356.956	1	6
357.127	1	12
357.298	1	-3
357.469	1	1
357.640	1	3
357.811	1	0
357.982	1	3
358.153	1	-9
358.324	1	3
358.495	1	6
358.666	1	-5
358.837	1	11
359.008	1	-5
359.179	1	3
359.350	1	-3
359.521	1	8
359.692	1	-7
359.863	1	1
360.034	1	-6
360.205	1	5
360.376	1	-5
360.547	1	12
360.718	1	9
360.889	1	2
361.060	1	14
361.231	1	-1
361.401	1	8
361.572	1	7
361.743	1	-2
361.914	1	7
362.085	1	2
362.256	1	13
362.427	1	5
362.598	1	14
362.769	1	0
362.940	1	8
363.111	1	5
363.282	1	5
363.453	1	11
363.624	1	3
363.795	1	5
363.966	1	3
364.137	1	2
364.308	1	7
364.478	1	22
364.649	1	8
364.820	1	18
364.991	1	10
365.162	1	12
365.333	1	14
365.504	1	6
365.675	1	19
365.846	1	8
366.017	1	17
366.188	1	11
366.359	1	13
366.530	1	13
366.701	1	20
366.871	1	21
367.042	1	16
367.213	1	19
367.384	1	19
367.555	1	16
367.726	1	9
367.897	1	28
368.068	1	16
368.239	1	21
368.410	1	26
368.581	1	19
368.752	1	14
368.923	1	0
369.093	1	17
369.264	1	24
369.435	1	20
369.606	1	6
369.777	1	19
369.948	1	12
370.119	1	18
370.290	1	25
370.461	1	20
370.632	1	17
370.803	1	19
370.973	1	25
371.144	1	16
371.315	1	21
371.486	1	23
371.657	1	23
371.828	1	11
371.999	1	8
372.170	1	14
372.341	1	13
372.512	1	2
372.682	1	16
372.853	1	24
373.024	1	15
373.195	1	14
373.366	1	12
373.537	1	8
373.708	1	9
373.879	1	10
374.050	1	20
374.220	1	12
374.391	1	6
374.562	1	15
374.733	1	9
374.904	1	14
375.075	1	-2
375.246	1	13
375.417	1	10
375.588	1	9
375.758	1	12
375.929	1	9
376.100	1	2
376.271	1	0
376.442	1	6
376.613	1	7
376.784	1	12
376.955	1	10
377.125	1	-2
377.296	1	6
377.467	1	19
377.638	1	2
377.809	1	-1
377.980	1	4
378.151	1	4
378.321	1	11
378.492	1	2
378.663	1	6
378.834	1	13
379.005	1	13
379.176	1	11
379.347	1	16
379.518	1	2
379.688	1	16
379.859	1	1
380.030	1	-2
380.201	1	6
380.372	1	10
380.543	1	5
380.714	1	9
380.884	1	14
381.055	1	3
381.226	1	-1
381.397	1	11
381.568	1	-1
381.739	1	3
381.910	1	13
382.080	1	7
382.251	1	-2
382.422	1	16
382.593	1	14
382.764	1	1
382.935	1	4
383.105	1	-2
383.276	1	3
383.447	1	2
383.618	1	2
383.789	1	-3
383.960	1	7
384.130	1	3
384.301	1	-2
384.472	1	2
384.643	1	3
384.814	1	7
384.985	1	5
385.156	1	0
385.326	1	-5
385.497	1	12
385.668	1	2
385.839	1	2
386.010	1	-2
386.180	1	3
386.351	1	-1
386.522	1	15
386.693	1	3
386.864	1	-8
387.035	1	10
387.205	1	13
387.376	1	9
387.547	1	7
387.718	1	-3
387.889	1	-6
388.060	1	6
388.230	1	12
388.401	1	6
388.572	1	-2
388.743	1	2
388.914	1	10
389.084	1	5
389.255	1	8
389.426	1	6
389.597	1	4
389.768	1	3
389.939	1	8
390.109	1	-6
390.280	1	-2
390.451	1	8
390.622	1	-1
390.793	1	4
390.963	1	-9
391.134	1	9
391.305	1	-1
391.476	1	13
391.647	1	-1
391.817	1	-1
391.988	1	6
392.159	1	0
392.330	1	0
392.501	1	2
392.671	1	10
392.842	1	-1
393.013	1	5
393.184	1	-6
393.355	1	7
393.525	1	-2
393.696	1	11
393.867	1	2
394.038	1	2
394.208	1	4
394.379	1	4
394.550	1	13
394.721	1	3
394.892	1	11
395.062	1	-8
395.233	1	7
395.404	1	1
395.575	1	9
395.746	1	1
395.916	1	5
396.087	1	9
396.258	1	4
396.429	1	14
396.599	1	1
396.770	1	2
396.941	1	2
397.112	1	-1
397.283	1	9
397.453	1	-7
397.624	1	5
397.795	1	-1
397.966	1	6
398.136	1	10
398.307	1	12
398.478	1	3
398.649	1	-3
398.819	1	6
398.990	1	5
399.161	1	9
399.332	1	0
399.503	1	17
399.673	1	4
399.844	1	1
400.015	1	0
400.186	1	6
400.356	1	-7
400.527	1	7
400.698	1	6
400.869	1	1
401.039	1	1
401.210	1	5
401.381	1	-4
401.552	1	2
401.722	1	8
401.893	1	3
402.064	1	3
402.235	1	7
402.405	1	6
402.576	1	5
402.747	1	8
402.918	1	-8
403.088	1	-1
403.259	1	0
403.430	1	3
403.601	1	8
403.771	1	-10
403.942	1	0
404.113	1	10
404.284	1	15
404.454	1	3
404.625	1	2
404.796	1	8
404.967	1	9
405.137	1	9
405.308	1	-6
405.479	1	4
405.649	1	3
405.820	1	-2
405.991	1	0
406.162	1	4
406.332	1	0
406.503	1	0
406.674	1	6
406.845	1	9
407.015	1	2
407.186	1	-7
407.357	1	4
407.527	1	-1
407.698	1	-1
407.869	1	-2
408.040	1	10
408.210	1	13
408.381	1	-5
408.552	1	1
408.722	1	4
408.893	1	-6
409.064	1	10
409.235	1	-2
409.405	1	-4
409.576	1	-5
409.747	1	6
409.917	1	14
410.088	1	10
410.259	1	0
410.430	1	10
410.600	1	9
410.771	1	10
410.942	1	7
411.112	1	0
411.283	1	3
411.454	1	1
411.625	1	3
411.795	1	7
411.966	1	5
412.137	1	-5
412.307	1	4
412.478	1	11
412.649	1	8
412.819	1	9
412.990	1	0
413.161	1	12
413.332	1	9
413.502	1	2
413.673	1	9
413.844	1	14
414.014	1	-5
414.185	1	4
414.356	1	9
414.526	1	-3
414.697	1	1
414.868	1	4
415.038	1	8
415.209	1	-4
415.380	1	1
415.550	1	-2
415.721	1	4
415.892	1	6
416.063	1	12
416.233	1	8
416.404	1	0
416.575	1	6
416.745	1	5
416.916	1	4
417.087	1	2
417.257	1	-1
417.428	1	2
417.599	1	6
417.769	1	2
417.940	1	4
418.111	1	12
418.281	1	10
418.452	1	12
418.623	1	12
418.793	1	1
418.964	1	13
419.135	1	4
419.305	1	6
419.476	1	3
419.647	1	11
419.817	1	6
419.988	1	8
420.159	1	12
420.329	1	8
420.500	1	8
420.671	1	13
420.841	1	4
421.012	1	0
421.183	1	4
421.353	1	11
421.524	1	12
421.695	1	9
421.865	1	0
422.036	1	18
422.206	1	4
422.377	1	5
422.548	1	6
422.718	1	5
422.889	1	14
423.060	1	13
423.230	1	5
423.401	1	2
423.572	1	3
423.742	1	12
423.913	1	-6
424.084	1	3
424.254	1	6
424.425	1	8
424.595	1	13
424.766	1	6
424.937	1	11
425.107	1	15
425.278	1	1
425.449	1	11
425.619	1	3
425.790	1	7
425.961	1	7
426.131	1	-6
426.302	1	4
426.472	1	6
426.643	1	1
426.814	1	5
426.984	1	-7
427.155	1	6
427.326	1	10
427.496	1	7
427.667	1	-2
427.837	1	-1
428.008	1	9
428.179	1	13
428.349	1	6
428.520	1	4
428.691	1	9
428.861	1	4
429.032	1	0
429.202	1	-2
429.373	1	8
429.544	1	8
429.714	1	16
429.885	1	3
430.055	1	6
430.226	1	-1
430.397	1	2
430.567	1	2
430.738	1	3
430.909	1	5
431.079	1	7
431.250	1	2
431.420	1	5
431.591	1	6
431.762	1	-1
431.932	1	6
432.103	1	8
432.273	1	7
432.444	1	-3
432.615	1	10
432.785	1	4
432.956	1	11
433.126	1	5
433.297	1	5
433.468	1	3
433.638	1	1
433.809	1	-3
433.979	1	10
434.150	1	4
434.320	1	6
434.491	1	15
434.662	1	8
434.832	1	-6
435.003	1	7
435.173	1	10
435.344	1	0
435.515	1	9
435.685	1	3
435.856	1	12
436.026	1	-1
436.197	1	-2
436.368	1	0
436.538	1	3
436.709	1	-6
436.879	1	-7
437.050	1	2
437.220	1	7
437.391	1	7
437.562	1	8
437.732	1	6
437.903	1	7
438.073	1	2
438.244	1	5
438.414	1	2
438.585	1	11
438.756	1	1
438.926	1	9
439.097	1	1
439.267	1	-6
439.438	1	0
439.608	1	-2
439.779	1	5
439.949	1	10
440.120	1	-5
440.291	1	12
440.461	1	0
440.632	1	7
440.802	1	5
440.973	1	11
441.143	1	6
441.314	1	3
441.485	1	-4
441.655	1	17
441.826	1	-4
441.996	1	6
442.167	1	-1
442.337	1	7
442.508	1	2
442.678	1	9
442.849	1	7
443.019	1	6
443.190	1	2
443.361	1	17
443.531	1	6
443.702	1	7
443.872	1	1
444.043	1	4
444.213	1	-5
444.384	1	4
444.554	1	5
444.725	1	13
444.895	1	1
445.066	1	2
445.237	1	7
445.407	1	-2
445.578	1	-6
445.748	1	11
445.919	1	4
446.089	1	2
446.260	1	15
446.430	1	10
446.601	1	5
446.771	1	0
446.942	1	-3
447.112	1	11
447.283	1	13
447.453	1	-13
447.624	1	5
447.794	1	1
447.965	1	7
448.135	1	9
448.306	1	-4
448.477	1	10
448.647	1	-2
448.818	1	10
448.988	1	2
449.159	1	-2
449.329	1	8
449.500	1	8
449.670	1	5
449.841	1	7
450.011	1	-6
450.182	1	-1
450.352	1	0
450.523	1	2
450.693	1	19
450.864	1	4
451.034	1	-3
451.205	1	3
451.375	1	8
451.546	1	9
451.716	1	-1
451.887	1	7
452.057	1	12
452.228	1	6
452.398	1	5
452.569	1	2
452.739	1	-3
452.910	1	2
453.080	1	1
453.251	1	-3
453.421	1	5
453.592	1	4
453.762	1	14
453.933	1	-6
454.103	1	10
454.274	1	-11
454.444	1	7
454.615	1	0
454.785	1	-4
454.956	1	5
455.126	1	2
455.297	1	1
455.467	1	7
455.638	1	0
455.808	1	7
455.979	1	-1
456.149	1	-2
456.320	1	7
456.490	1	-6
456.661	1	-7
456.831	1	4
457.001	1	2
457.172	1	1
457.342	1	1
457.513	1	2
457.683	1	-3
457.854	1	7
458.024	1	10
458.195	1	2
458.365	1	-7
458.536	1	5
458.706	1	4
458.877	1	1
459.047	1	3
459.218	1	9
459.388	1	4
459.559	1	-1
459.729	1	-6
459.899	1	-4
460.070	1	10
460.240	1	-4
460.411	1	11
460.581	1	-2
460.752	1	12
460.922	1	9
461.093	1	5
461.263	1	12
461.434	1	-6
461.604	1	4
461.775	1	11
461.945	1	11
462.115	1	5
462.286	1	-5
462.456	1	0
462.627	1	-3
462.797	1	3
462.968	1	9
463.138	1	-6
463.309	1	4
463.479	1	-7
463.649	1	2
463.820	1	15
463.990	1	2
464.161	1	0
464.331	1	7
464.502	1	5
464.672	1	-2
464.843	1	12
465.013	1	4
465.183	1	-4
465.354	1	10
465.524	1	8
465.695	1	3
465.865	1	4
466.036	1	8
466.206	1	-2
466.376	1	17
466.547	1	3
466.717	1	-5
466.888	1	-1
467.058	1	0
467.229	1	9
467.399	1	-10
467.569	1	-1
467.740	1	20
467.910	1	10
468.081	1	11
468.251	1	-3
468.422	1	-1
468.592	1	1
468.762	1	8
468.933	1	0
469.103	1	0
469.274	1	1
469.444	1	6
469.614	1	5
469.785	1	-3
469.955	1	-7
470.126	1	3
470.296	1	10
470.467	1	-1
470.637	1	5
470.807	1	0
470.978	1	-4
471.148	1	-10
471.319	1	5
471.489	1	11
471.659	1	-9
471.830	1	2
472.000	1	-20
472.171	1	16
472.341	1	0
472.511	1	2
472.682	1	1
472.852	1	8
473.023	1	3
473.193	1	0
473.363	1	4
473.534	1	3
473.704	1	0
473.875	1	6
474.045	1	-10
474.215	1	7
474.386	1	-2
474.556	1	-6
474.727	1	-2
474.897	1	0
475.067	1	2
475.238	1	5
475.408	1	6
475.578	1	-1
475.749	1	-4
475.919	1	2
476.090	1	-7
476.260	1	1
476.430	1	-9
476.601	1	-7
476.771	1	1
476.942	1	2
477.112	1	7
477.282	1	-4
477.453	1	5
477.623	1	3
477.793	1	1
477.964	1	7
478.134	1	9
478.305	1	4
478.475	1	-1
478.645	1	10
478.816	1	-3
478.986	1	12
479.156	1	5
479.327	1	9
479.497	1	-3
479.667	1	0
479.838	1	8
480.008	1	2
480.179	1	5
480.349	1	2
480.519	1	3
480.690	1	0
480.860	1	5
481.030	1	-1
481.201	1	10
481.371	1	-5
481.541	1	0
481.712	1	18
481.882	1	-2
482.053	1	9
482.223	1	-3
482.393	1	1
482.564	1	14
482.734	1	9
482.904	1	1
483.075	1	11
483.245	1	5
483.415	1	6
483.586	1	4
483.756	1	-1
483.926	1	-2
484.097	1	14
484.267	1	5
484.437	1	13
484.608	1	-4
484.778	1	2
484.948	1	4
485.119	1	8
485.289	1	-3
485.459	1	-5
485.630	1	-1
485.800	1	-1
485.970	1	1
486.141	1	13
486.311	1	13
486.481	1	-13
486.652	1	-7
486.822	1	13
486.992	1	6
487.163	1	-3
487.333	1	-5
487.503	1	4
487.674	1	-2
487.844	1	-5
488.014	1	11
488.185	1	7
488.355	1	0
488.525	1	-7
488.696	1	0
488.866	1	7
489.036	1	12
489.207	1	4
489.377	1	7
489.547	1	4
489.718	1	-10
489.888	1	1
490.058	1	6
490.228	1	4
490.399	1	12
490.569	1	-2
490.739	1	-4
490.910	1	3
491.080	1	7
491.250	1	5
491.421	1	3
491.591	1	-6
491.761	1	-4
491.932	1	10
492.102	1	13
492.272	1	-10
492.442	1	0
492.613	1	2
492.783	1	14
492.953	1	4
493.124	1	10
493.294	1	-9
493.464	1	-5
493.635	1	4
493.805	1	14
493.975	1	15
494.145	1	1
494.316	1	3
494.486	1	0
494.656	1	6
494.827	1	8
494.997	1	2
495.167	1	8
495.337	1	2
495.508	1	-4
495.678	1	6
495.848	1	-7
496.019	1	5
496.189	1	-2
496.359	1	4
496.529	1	-6
496.700	1	0
496.870	1	-2
497.040	1	-1
497.211	1	7
497.381	1	2
497.551	1	2
497.721	1	-3
497.892	1	1
498.062	1	-5
498.232	1	3
498.403	1	11
498.573	1	-2
498.743	1	3
498.913	1	8
499.084	1	12
499.254	1	-5
499.424	1	-5
499.594	1	-10
499.765	1	2
499.935	1	11
500.105	1	9
500.275	1	-4
500.446	1	1
500.616	1	-8
500.786	1	6
500.956	1	14
501.127	1	2
501.297	1	2
501.467	1	3
501.638	1	-3
501.808	1	-2
501.978	1	-5
502.148	1	-3
502.319	1	6
502.489	1	6
502.659	1	9
502.829	1	0
503.000	1	16
503.170	1	5
503.340	1	-6
503.510	1	6
503.681	1	5
503.851	1	5
504.021	1	-5
504.191	1	-1
504.362	1	-2
504.532	1	12
504.702	1	3
504.872	1	3
505.042	1	0
505.213	1	-2
505.383	1	0
505.553	1	2
505.723	1	5
505.894	1	11
506.064	1	0
506.234	1	6
506.404	1	4
506.575	1	14
506.745	1	1
506.915	1	1
507.085	1	12
507.256	1	2
507.426	1	5
507.596	1	11
507.766	1	7
507.936	1	9
508.107	1	-7
508.277	1	11
508.447	1	12
508.617	1	5
508.788	1	-2
508.958	1	9
509.128	1	-2
509.298	1	-2
509.468	1	1
509.639	1	-3
509.809	1	-5
509.979	1	3
510.149	1	6
510.319	1	2
510.490	1	1
510.660	1	-3
510.830	1	-7
511.000	1	1
511.171	1	2
511.341	1	18
511.511	1	8
511.681	1	18
511.851	1	17
512.022	1	-4
512.192	1	11
512.362	1	7
512.532	1	14
512.702	1	-2
512.873	1	2
513.043	1	6
513.213	1	6
513.383	1	1
513.553	1	9
513.724	1	9
513.894	1	-2
514.064	1	7
514.234	1	-4
514.404	1	6
514.575	1	-2
514.745	1	1
514.915	1	14
515.085	1	9
515.255	1	-3
515.425	1	8
515.596	1	10
515.766	1	3
515.936	1	0
516.106	1	-1
516.276	1	4
516.447	1	13
516.617	1	3
516.787	1	11
516.957	1	7
517.127	1	13
517.297	1	-12
517.468	1	7
517.638	1	6
517.808	1	-7
517.978	1	4
518.148	1	11
518.319	1	-3
518.489	1	7
518.659	1	10
518.829	1	13
518.999	1	8
519.169	1	-2
519.340	1	3
519.510	1	-2
519.680	1	8
519.850	1	12
520.020	1	4
520.190	1	-8
520.361	1	2
520.531	1	8
520.701	1	7
520.871	1	6
521.041	1	15
521.211	1	6
521.382	1	-1
521.552	1	-7
521.722	1	7
521.892	1	3
522.062	1	9
522.232	1	6
522.402	1	13
522.573	1	3
522.743	1	5
522.913	1	5
523.083	1	-5
523.253	1	3
523.423	1	9
523.593	1	8
523.764	1	-1
523.934	1	6
524.104	1	6
524.274	1	4
524.444	1	7
524.614	1	3
524.784	1	-3
524.955	1	11
525.125	1	4
525.295	1	4
525.465	1	20
525.635	1	4
525.805	1	13
525.975	1	-2
526.146	1	5
526.316	1	-9
526.486	1	4
526.656	1	1
526.826	1	-1
526.996	1	-4
527.166	1	-1
527.337	1	10
527.507	1	12
527.677	1	13
527.847	1	1
528.017	1	-2
528.187	1	10
528.357	1	14
528.527	1	2
528.698	1	8
528.868	1	3
529.038	1	3
529.208	1	-2
529.378	1	8
529.548	1	16
529.718	1	3
529.888	1	-2
530.058	1	6
530.229	1	12
530.399	1	2
530.569	1	-2
530.739	1	5
530.909	1	10
531.079	1	3
531.249	1	2
531.419	1	5
531.589	1	-2
531.760	1	11
531.930	1	-3
532.100	1	13
532.270	1	0
532.440	1	11
532.610	1	10
532.780	1	3
532.950	1	10
533.120	1	1
533.290	1	7
533.461	1	6
533.631	1	10
533.801	1	0
533.971	1	-3
534.141	1	7
534.311	1	8
534.481	1	19
534.651	1	-4
534.821	1	3
534.991	1	5
535.162	1	13
535.332	1	3
535.502	1	1
535.672	1	1
535.842	1	-1
536.012	1	6
536.182	1	-3
536.352	1	8
536.522	1	3
536.692	1	5
536.862	1	0
537.032	1	3
537.203	1	3
537.373	1	9
537.543	1	15
537.713	1	13
537.883	1	9
538.053	1	-3
538.223	1	17
538.393	1	-4
538.563	1	3
538.733	1	2
538.903	1	4
539.073	1	-1
539.243	1	5
539.413	1	-1
539.584	1	7
539.754	1	6
539.924	1	11
540.094	1	11
540.264	1	13
540.434	1	5
540.604	1	12
540.774	1	0
540.944	1	5
541.114	1	18
541.284	1	-2
541.454	1	5
541.624	1	4
541.794	1	6
541.964	1	-4
542.134	1	1
542.305	1	9
542.475	1	16
542.645	1	-1
542.815	1	7
542.985	1	14
543.155	1	16
543.325	1	9
543.495	1	11
543.665	1	-2
543.835	1	-2
544.005	1	-3
544.175	1	7
544.345	1	10
544.515	1	5
544.685	1	-5
544.855	1	2
545.025	1	1
545.195	1	-7
545.365	1	10
545.535	1	4
545.705	1	10
545.875	1	3
546.045	1	6
546.216	1	-1
546.386	1	-3
546.556	1	3
546.726	1	8
546.896	1	8
547.066	1	1
547.236	1	7
547.406	1	-3
547.576	1	5
547.746	1	-2
547.916	1	13
548.086	1	5
548.256	1	1
548.426	1	-1
548.596	1	7
548.766	1	2
548.936	1	7
549.106	1	-1
549.276	1	4
549.446	1	4
549.616	1	15
549.786	1	6
549.956	1	4
550.126	1	12
550.296	1	1
550.466	1	1
550.636	1	0
550.806	1	15
550.976	1	3
551.146	1	2
551.316	1	4
551.486	1	0
551.656	1	6
551.826	1	-4
551.996	1	6
552.166	1	6
552.336	1	1
552.506	1	-8
552.676	1	15
552.846	1	2
553.016	1	9
553.186	1	-8
553.356	1	3
553.526	1	-4
553.696	1	-3
553.866	1	-2
554.036	1	13
554.206	1	11
554.376	1	4
554.546	1	6
554.716	1	-4
554.886	1	4
555.056	1	5
555.226	1	4
555.396	1	8
555.566	1	8
555.736	1	10
555.906	1	-1
556.076	1	1
556.246	1	11
556.416	1	12
556.586	1	2
556.756	1	-8
556.926	1	-1
557.096	1	10
557.266	1	11
557.436	1	3
557.606	1	-15
557.776	1	7
557.946	1	0
558.116	1	10
558.286	1	-10
558.456	1	7
558.626	1	7
558.796	1	9
558.966	1	-3
559.136	1	3
559.306	1	10
559.476	1	-5
559.646	1	14
559.816	1	-3
559.986	1	12
560.155	1	15
560.325	1	2
560.495	1	-4
560.665	1	-5
560.835	1	2
561.005	1	4
561.175	1	-5
561.345	1	-4
561.515	1	7
561.685	1	2
561.855	1	3
562.025	1	6
562.195	1	-8
562.365	1	1
562.535	1	1
562.705	1	5
562.875	1	6
563.045	1	-1
563.215	1	8
563.385	1	4
563.555	1	8
563.725	1	5
563.895	1	9
564.064	1	-9
564.234	1	4
564.404	1	-1
564.574	1	11
564.744	1	13
564.914	1	9
565.084	1	8
565.254	1	8
565.424	1	3
565.594	1	-5
565.764	1	2
565.934	1	4
566.104	1	12
566.274	1	0
566.444	1	8
566.614	1	3
566.783	1	4
566.953	1	10
567.123	1	5
567.293	1	5
567.463	1	10
567.633	1	-1
567.803	1	-2
567.973	1	-7
568.143	1	2
568.313	1	6
568.483	1	13
568.653	1	0
568.823	1	1
568.993	1	4
569.162	1	-3
569.332	1	1
569.502	1	4
569.672	1	14
569.842	1	4
570.012	1	-5
570.182	1	4
570.352	1	12
570.522	1	-7
570.692	1	10
570.862	1	-8
571.031	1	12
571.201	1	10
571.371	1	-1
571.541	1	2
571.711	1	6
571.881	1	-1
572.051	1	5
572.221	1	1
572.391	1	9
572.561	1	6
572.731	1	5
572.900	1	6
573.070	1	4
573.240	1	-6
573.410	1	16
573.580	1	5
573.750	1	-6
573.920	1	9
574.090	1	8
574.260	1	9
574.430	1	5
574.599	1	8
574.769	1	9
574.939	1	9
575.109	1	3
575.279	1	6
575.449	1	-12
575.619	1	-1
575.789	1	5
575.959	1	-7
576.128	1	-3
576.298	1	-3
576.468	1	1
576.638	1	11
576.808	1	1
576.978	1	7
577.148	1	-7
577.318	1	-3
577.487	1	-10
577.657	1	0
577.827	1	3
577.997	1	8
578.167	1	12
578.337	1	-1
578.507	1	8
578.677	1	8
578.846	1	8
579.016	1	-5
579.186	1	12
579.356	1	-4
579.526	1	-5
579.696	1	6
579.866	1	1
580.036	1	8
580.205	1	7
580.375	1	5
580.545	1	4
580.715	1	7
580.885	1	-1
581.055	1	0
581.225	1	12
581.394	1	2
581.564	1	-5
581.734	1	1
581.904	1	4
582.074	1	4
582.244	1	-4
582.414	1	0
582.583	1	2
582.753	1	1
582.923	1	-6
583.093	1	0
583.263	1	6
583.433	1	14
583.603	1	-5
583.772	1	2
583.942	1	2
584.112	1	7
584.282	1	5
584.452	1	5
584.622	1	6
584.791	1	8
584.961	1	-4
585.131	1	2
585.301	1	-2
585.471	1	13
585.641	1	6
585.811	1	7
585.980	1	4
586.150	1	8
586.320	1	1
586.490	1	5
586.660	1	1
586.830	1	5
586.999	1	-7
587.169	1	5
587.339	1	2
587.509	1	-5
587.679	1	-2
587.849	1	8
588.018	1	-2
588.188	1	10
588.358	1	26
588.528	1	-2
588.698	1	9
588.867	1	2
589.037	1	1
589.207	1	5
589.377	1	-2
589.547	1	11
589.717	1	8
589.886	1	4
590.056	1	6
590.226	1	-10
590.396	1	-3
590.566	1	-2
590.735	1	10
590.905	1	5
591.075	1	5
591.245	1	-4
591.415	1	4
591.585	1	-10
591.754	1	11
591.924	1	-7
592.094	1	13
592.264	1	3
592.434	1	-5
592.603	1	-12
592.773	1	4
592.943	1	1
593.113	1	-2
593.283	1	5
593.452	1	11
593.622	1	-5
593.792	1	-3
593.962	1	2
594.132	1	4
594.301	1	3
594.471	1	-7
594.641	1	2
594.811	1	1
594.981	1	5
595.150	1	6
595.320	1	14
595.490	1	-5
595.660	1	5
595.829	1	-5
595.999	1	4
596.169	1	0
596.339	1	-1
596.509	1	2
596.678	1	-8
596.848	1	-2
597.018	1	1
597.188	1	8
597.358	1	-3
597.527	1	-7
597.697	1	-3
597.867	1	1
598.037	1	4
598.206	1	5
598.376	1	2
598.546	1	2
598.716	1	5
598.885	1	5
599.055	1	0
599.225	1	1
599.395	1	-5
599.565	1	1
599.734	1	10
599.904	1	6
600.074	1	-3
600.244	1	5
600.413	1	2
600.583	1	5
600.753	1	15
600.923	1	1
601.092	1	1
601.262	1	0
601.432	1	2
601.602	1	1
601.771	1	5
601.941	1	2
602.111	1	7
602.281	1	6
602.451	1	0
602.620	1	3
602.790	1	2
602.960	1	-9
603.130	1	-5
603.299	1	1
603.469	1	4
603.639	1	7
603.809	1	12
603.978	1	-4
604.148	1	-6
604.318	1	4
604.487	1	-1
604.657	1	4
604.827	1	3
604.997	1	8
605.166	1	3
605.336	1	8
605.506	1	2
605.676	1	7
605.845	1	1
606.015	1	-6
606.185	1	-7
606.355	1	-6
606.524	1	-1
606.694	1	5
606.864	1	9
607.034	1	7
607.203	1	12
607.373	1	4
607.543	1	4
607.712	1	-1
607.882	1	7
608.052	1	-5
608.222	1	-1
608.391	1	0
608.561	1	1
608.731	1	-12
608.901	1	11
609.070	1	5
609.240	1	11
609.410	1	4
609.579	1	-1
609.749	1	-4
609.919	1	-12
610.089	1	6
610.258	1	17
610.428	1	8
610.598	1	-2
610.767	1	11
610.937	1	0
611.107	1	7
611.277	1	6
611.446	1	9
611.616	1	9
611.786	1	3
611.955	1	4
612.125	1	0
612.295	1	2
612.465	1	6
612.634	1	-2
612.804	1	0
612.974	1	-3
613.143	1	-4
613.313	1	4
613.483	1	0
613.652	1	13
613.822	1	2
613.992	1	-2
614.162	1	6
614.331	1	9
614.501	1	4
614.671	1	4
614.840	1	2
615.010	1	6
615.180	1	0
615.349	1	0
615.519	1	-3
615.689	1	3
615.858	1	-7
616.028	1	15
616.198	1	14
616.368	1	4
616.537	1	-12
616.707	1	-2
616.877	1	-2
617.046	1	7
617.216	1	-1
617.386	1	9
617.555	1	7
617.725	1	7
617.895	1	6
618.064	1	5
618.234	1	-4
618.404	1	3
618.573	1	2
618.743	1	7
618.913	1	-3
619.082	1	13
619.252	1	-5
619.422	1	13
619.591	1	11
619.761	1	1
619.931	1	20
620.100	1	3
620.270	1	3
620.440	1	-4
620.609	1	4
620.779	1	3
620.949	1	15
621.118	1	7
621.288	1	2
621.458	1	-1
621.627	1	1
621.797	1	-3
621.967	1	2
622.136	1	5
622.306	1	-3
622.476	1	0
622.645	1	4
622.815	1	7
622.985	1	-6
623.154	1	-4
623.324	1	-4
623.494	1	0
623.663	1	-7
623.833	1	8
624.002	1	7
624.172	1	4
624.342	1	8
624.511	1	-9
624.681	1	6
624.851	1	-9
625.020	1	-6
625.190	1	-2
625.360	1	5
625.529	1	3
625.699	1	8
625.869	1	10
626.038	1	7
626.208	1	1
626.377	1	3
626.547	1	-7
626.717	1	0
626.886	1	-4
627.056	1	9
627.226	1	3
627.395	1	-1
627.565	1	3
627.735	1	-1
627.904	1	7
628.074	1	1
628.243	1	6
628.413	1	2
628.583	1	7
628.752	1	-6
628.922	1	13
629.091	1	3
629.261	1	12
629.431	1	-8
629.600	1	-8
629.770	1	4
629.940	1	5
630.109	1	-2
630.279	1	11
630.448	1	3
630.618	1	-1
630.788	1	3
630.957	1	-1
631.127	1	1
631.297	1	2
631.466	1	7
631.636	1	6
631.805	1	6
631.975	1	-7
632.145	1	4
632.314	1	10
632.484	1	13
632.653	1	1
632.823	1	-5
632.993	1	5
633.162	1	-2
633.332	1	2
633.501	1	1
633.671	1	9
633.841	1	-1
634.010	1	9
634.180	1	-7
634.349	1	9
634.519	1	0
634.689	1	-5
634.858	1	6
635.028	1	-6
635.197	1	7
635.367	1	13
635.537	1	2
635.706	1	2
635.876	1	1
636.045	1	-2
636.215	1	-3
636.384	1	9
636.554	1	-5
636.724	1	7
636.893	1	8
637.063	1	-6
637.232	1	-2
637.402	1	6
637.572	1	3
637.741	1	8
637.911	1	2
638.080	1	2
638.250	1	0
638.419	1	-2
638.589	1	5
638.759	1	3
638.928	1	0
639.098	1	-2
639.267	1	9
639.437	1	3
639.606	1	6
639.776	1	8
639.946	1	2
640.115	1	-7
640.285	1	-5
640.454	1	-10
640.624	1	-2
640.793	1	-1
640.963	1	6
641.132	1	-5
641.302	1	7
641.472	1	15
641.641	1	8
641.811	1	-2
641.980	1	7
642.150	1	-5
642.319	1	17
642.489	1	1
642.659	1	5
642.828	1	18
642.998	1	3
643.167	1	-2
643.337	1	0
643.506	1	6
643.676	1	2
643.845	1	3
644.015	1	-3
644.184	1	18
644.354	1	9
644.524	1	4
644.693	1	3
644.863	1	9
645.032	1	3
645.202	1	4
645.371	1	7
645.541	1	2
645.710	1	5
645.880	1	8
646.049	1	9
646.219	1	8
646.388	1	4
646.558	1	-9
646.728	1	2
646.897	1	-5
647.067	1	13
647.236	1	-7
647.406	1	7
647.575	1	10
647.745	1	-3
647.914	1	9
648.084	1	-7
648.253	1	6
648.423	1	1
648.592	1	5
648.762	1	-2
648.931	1	4
649.101	1	4
649.270	1	7
649.440	1	1
649.610	1	1
649.779	1	5
649.949	1	-2
650.118	1	-1
650.288	1	-5
650.457	1	9
650.627	1	1
650.796	1	12
650.966	1	1
651.135	1	3
651.305	1	-3
651.474	1	2
651.644	1	6
651.813	1	4
651.983	1	-6
652.152	1	1
652.322	1	6
652.491	1	4
652.661	1	15
652.830	1	5
653.000	1	9
653.169	1	-8
653.339	1	-7
653.508	1	0
653.678	1	12
653.847	1	8
654.017	1	8
654.186	1	2
654.356	1	11
654.525	1	3
654.695	1	14
654.864	1	-2
655.034	1	-6
655.203	1	6
655.373	1	0
655.542	1	0
655.712	1	4
655.881	1	5
656.051	1	-1
656.220	1	6
656.390	1	0
656.559	1	8
656.729	1	5
656.898	1	5
657.068	1	2
657.237	1	-5
657.406	1	2
657.576	1	8
657.745	1	15
657.915	1	8
658.084	1	0
658.254	1	7
658.423	1	10
658.593	1	9
658.762	1	-1
658.932	1	9
659.101	1	1
659.271	1	1
659.440	1	-2
659.610	1	7
659.779	1	10
659.949	1	0
660.118	1	5
660.288	1	-4
660.457	1	3
660.626	1	-3
660.796	1	12
660.965	1	6
661.135	1	4
661.304	1	6
661.474	1	2
661.643	1	3
661.813	1	2
661.982	1	-6
662.152	1	4
662.321	1	0
662.491	1	-3
662.660	1	13
662.829	1	2
662.999	1	10
663.168	1	3
663.338	1	0
663.507	1	7
663.677	1	4
663.846	1	-7
664.016	1	-7
664.185	1	3
664.354	1	4
664.524	1	11
664.693	1	8
664.863	1	-5
665.032	1	12
665.202	1	1
665.371	1	10
665.541	1	-4
665.710	1	7
665.879	1	7
666.049	1	12
666.218	1	2
666.388	1	0
666.557	1	-6
666.727	1	1
666.896	1	3
667.065	1	5
667.235	1	-14
667.404	1	-2
667.574	1	-6
667.743	1	-7
667.913	1	2
668.082	1	2
668.251	1	-1
668.421	1	6
668.590	1	-8
668.760	1	4
668.929	1	-1
669.099	1	0
669.268	1	-4
669.437	1	-9
669.607	1	-4
669.776	1	0
669.946	1	2
670.115	1	6
670.285	1	1
670.454	1	8
670.623	1	1
670.793	1	-3
670.962	1	-3
671.132	1	0
671.301	1	4
671.470	1	10
671.640	1	7
671.809	1	2
671.979	1	-5
672.148	1	7
672.317	1	-5
672.487	1	1
672.656	1	7
672.826	1	-4
672.995	1	3
673.164	1	-4
673.334	1	-10
673.503	1	13
673.673	1	2
673.842	1	0
674.011	1	13
674.181	1	2
674.350	1	3
674.520	1	-1
674.689	1	-5
674.858	1	7
675.028	1	0
675.197	1	8
675.367	1	1
675.536	1	8
675.705	1	-3
675.875	1	4
676.044	1	2
676.214	1	7
676.383	1	0
676.552	1	-1
676.722	1	-3
676.891	1	3
677.060	1	14
677.230	1	3
677.399	1	12
677.569	1	12
677.738	1	3
677.907	1	9
678.077	1	0
678.246	1	-5
678.416	1	0
678.585	1	-3
678.754	1	1
678.924	1	-1
679.093	1	14
679.262	1	5
679.432	1	-6
679.601	1	2
679.771	1	0
679.940	1	-4
680.109	1	2
680.279	1	-3
680.448	1	0
680.617	1	4
680.787	1	-6
680.956	1	4
681.125	1	5
681.295	1	1
681.464	1	6
681.634	1	8
681.803	1	-1
681.972	1	8
682.142	1	6
682.311	1	9
682.480	1	-5
682.650	1	1
682.819	1	-7
682.988	1	12
683.158	1	2
683.327	1	6
683.496	1	-6
683.666	1	2
683.835	1	7
684.004	1	-4
684.174	1	-5
684.343	1	3
684.512	1	1
684.682	1	11
684.851	1	-5
685.021	1	20
685.190	1	2
685.359	1	5
685.529	1	3
685.698	1	1
685.867	1	-6
686.037	1	2
686.206	1	2
686.375	1	12
686.545	1	-6
686.714	1	-1
686.883	1	11
687.053	1	21
687.222	1	-6
687.391	1	-1
687.561	1	4
687.730	1	6
687.899	1	5
688.069	1	1
688.238	1	5
688.407	1	3
688.577	1	0
688.746	1	-2
