340.368	1	3
340.539	1	1
340.710	1	3
340.881	1	6
341.052	1	-6
341.223	1	11
341.394	1	-18
341.565	1	4
341.737	1	4
341.908	1	15
342.079	1	8
342.250	1	8
342.421	1	-8
342.592	1	9
342.763	1	1
342.934	1	10
343.105	1	8
343.276	1	0
343.447	1	7
343.618	1	13
343.789	1	5
343.960	1	0
344.131	1	-11
344.302	1	8
344.473	1	3
344.644	1	4
344.815	1	4
344.986	1	-2
345.157	1	11
345.328	1	-4
345.499	1	0
345.670	1	-5
345.841	1	1
346.012	1	-4
346.183	1	3
346.354	1	6
346.526	1	9
346.697	1	4
346.868	1	5
347.039	1	12
347.210	1	-6
347.381	1	13
347.552	1	22
347.723	1	13
347.894	1	-11
348.065	1	6
348.236	1	5
348.407	1	4
348.578	1	5
348.749	1	13
348.920	1	8
349.091	1	4
349.262	1	5
349.433	1	0
349.604	1	-7
349.775	1	5
349.946	1	1
350.117	1	9
350.288	1	-7
350.459	1	5
350.630	1	-3
350.801	1	7
350.972	1	12
351.143	1	4
351.314	1	-4
351.485	1	5
351.656	1	10
351.827	1	12
351.998	1	6
352.169	1	-2
352.340	1	8
352.511	1	-5
352.682	1	-8
352.853	1	-6
353.024	1	10
353.195	1	4
353.366	1	2
353.537	1	-8
353.708	1	1
353.879	1	9
354.050	1	-3
354.221	1	4
354.392	1	-1
354.563	1	14
354.734	1	-7
354.905	1	-3
355.076	1	17
355.247	1	-5
355.418	1	0
355.589	1	7
355.760	1	6
355.931	1	7
356.102	1	9
356.273	1	9
356.444	1	14
356.615	1	-5
356.785	1	6
356.956	1	5
357.127	1	6
357.298	1	-3
357.469	1	12
357.640	1	1
357.811	1	-6
357.982	1	16
358.153	1	-1
358.324	1	10
358.495	1	0
358.666	1	9
358.837	1	11
359.008	1	-2
359.179	1	8
359.350	1	-1
359.521	1	4
359.692	1	-6
359.863	1	-7
360.034	1	-1
360.205	1	6
360.376	1	3
360.547	1	11
360.718	1	4
360.889	1	1
361.060	1	11
361.231	1	12
361.401	1	-5
361.572	1	7
361.743	1	3
361.914	1	10
362.085	1	5
362.256	1	18
362.427	1	6
362.598	1	12
362.769	1	6
362.940	1	8
363.111	1	14
363.282	1	1
363.453	1	9
363.624	1	8
363.795	1	0
363.966	1	8
364.137	1	8
364.308	1	16
364.478	1	21
364.649	1	15
364.820	1	16
364.991	1	12
365.162	1	28
365.333	1	11
365.504	1	10
365.675	1	16
365.846	1	13
366.017	1	18
366.188	1	7
366.359	1	6
366.530	1	18
366.701	1	22
366.871	1	13
367.042	1	25
367.213	1	22
367.384	1	16
367.555	1	21
367.726	1	17
367.897	1	20
368.068	1	29
368.239	1	17
368.410	1	20
368.581	1	7
368.752	1	26
368.923	1	6
369.093	1	25
369.264	1	13
369.435	1	22
369.606	1	10
369.777	1	27
369.948	1	21
370.119	1	25
370.290	1	24
370.461	1	15
370.632	1	16
370.803	1	11
370.973	1	19
371.144	1	21
371.315	1	22
371.486	1	22
371.657	1	21
371.828	1	14
371.999	1	4
372.170	1	11
372.341	1	11
372.512	1	4
372.682	1	17
372.853	1	20
373.024	1	14
373.195	1	9
373.366	1	19
373.537	1	5
373.708	1	13
373.879	1	7
374.050	1	17
374.220	1	6
374.391	1	5
374.562	1	28
374.733	1	22
374.904	1	5
375.075	1	-3
375.246	1	0
375.417	1	3
375.588	1	3
375.758	1	9
375.929	1	6
376.100	1	1
376.271	1	7
376.442	1	12
376.613	1	9
376.784	1	2
376.955	1	11
377.125	1	1
377.296	1	10
377.467	1	16
377.638	1	-1
377.809	1	-8
377.980	1	3
378.151	1	9
378.321	1	14
378.492	1	3
378.663	1	16
378.834	1	12
379.005	1	13
379.176	1	8
379.347	1	8
379.518	1	3
379.688	1	9
379.859	1	-1
380.030	1	12
380.201	1	0
380.372	1	10
380.543	1	2
380.714	1	8
380.884	1	13
381.055	1	4
381.226	1	2
381.397	1	2
381.568	1	-1
381.739	1	-7
381.910	1	17
382.080	1	2
382.251	1	0
382.422	1	8
382.593	1	8
382.764	1	13
382.935	1	-2
383.105	1	1
383.276	1	4
383.447	1	9
383.618	1	8
383.789	1	-5
383.960	1	2
384.130	1	7
384.301	1	-2
384.472	1	0
384.643	1	0
384.814	1	4
384.985	1	-1
385.156	1	4
385.326	1	-4
385.497	1	10
385.668	1	7
385.839	1	3
386.010	1	0
386.180	1	4
386.351	1	-4
386.522	1	10
386.693	1	0
386.864	1	5
387.035	1	5
387.205	1	17
387.376	1	6
387.547	1	11
387.718	1	5
387.889	1	9
388.060	1	1
388.230	1	-3
388.401	1	10
388.572	1	6
388.743	1	-3
388.914	1	19
389.084	1	6
389.255	1	-3
389.426	1	-4
389.597	1	10
389.768	1	7
389.939	1	9
390.109	1	3
390.280	1	0
390.451	1	-1
390.622	1	4
390.793	1	12
390.963	1	-7
391.134	1	9
391.305	1	1
391.476	1	2
391.647	1	4
391.817	1	-9
391.988	1	5
392.159	1	0
392.330	1	6
392.501	1	-2
392.671	1	11
392.842	1	-12
393.013	1	1
393.184	1	8
393.355	1	17
393.525	1	1
393.696	1	5
393.867	1	11
394.038	1	5
394.208	1	2
394.379	1	7
394.550	1	2
394.721	1	2
394.892	1	15
395.062	1	0
395.233	1	4
395.404	1	10
395.575	1	14
395.746	1	6
395.916	1	0
396.087	1	5
396.258	1	8
396.429	1	3
396.599	1	0
396.770	1	9
396.941	1	10
397.112	1	0
397.283	1	13
397.453	1	2
397.624	1	-5
397.795	1	2
397.966	1	3
398.136	1	7
398.307	1	7
398.478	1	3
398.649	1	-6
398.819	1	3
398.990	1	12
399.161	1	14
399.332	1	-1
399.503	1	9
399.673	1	7
399.844	1	2
400.015	1	2
400.186	1	1
400.356	1	5
400.527	1	8
400.698	1	8
400.869	1	2
401.039	1	6
401.210	1	9
401.381	1	-3
401.552	1	10
401.722	1	10
401.893	1	11
402.064	1	0
402.235	1	10
402.405	1	6
402.576	1	0
402.747	1	2
402.918	1	-6
403.088	1	4
403.259	1	9
403.430	1	-3
403.601	1	16
403.771	1	-1
403.942	1	-1
404.113	1	9
404.284	1	9
404.454	1	4
404.625	1	-2
404.796	1	8
404.967	1	4
405.137	1	10
405.308	1	-7
405.479	1	6
405.649	1	1
405.820	1	-5
405.991	1	3
406.162	1	6
406.332	1	2
406.503	1	7
406.674	1	3
406.845	1	12
407.015	1	4
407.186	1	-5
407.357	1	5
407.527	1	2
407.698	1	7
407.869	1	2
408.040	1	22
408.210	1	13
408.381	1	0
408.552	1	1
408.722	1	9
408.893	1	-6
409.064	1	11
409.235	1	5
409.405	1	5
409.576	1	8
409.747	1	8
409.917	1	17
410.088	1	16
410.259	1	7
410.430	1	11
410.600	1	6
410.771	1	7
410.942	1	13
411.112	1	4
411.283	1	10
411.454	1	-3
411.625	1	7
411.795	1	-4
411.966	1	2
412.137	1	5
412.307	1	6
412.478	1	6
412.649	1	7
412.819	1	11
412.990	1	1
413.161	1	13
413.332	1	13
413.502	1	3
413.673	1	3
413.844	1	13
414.014	1	-4
414.185	1	10
414.356	1	10
414.526	1	-6
414.697	1	3
414.868	1	6
415.038	1	0
415.209	1	2
415.380	1	0
415.550	1	6
415.721	1	14
415.892	1	10
416.063	1	13
416.233	1	-7
416.404	1	-5
416.575	1	-8
416.745	1	5
416.916	1	2
417.087	1	5
417.257	1	7
417.428	1	16
417.599	1	11
417.769	1	7
417.940	1	-6
418.111	1	4
418.281	1	1
418.452	1	2
418.623	1	5
418.793	1	3
418.964	1	20
419.135	1	0
419.305	1	6
419.476	1	3
419.647	1	4
419.817	1	4
419.988	1	3
420.159	1	8
420.329	1	2
420.500	1	3
420.671	1	12
420.841	1	4
421.012	1	1
421.183	1	2
421.353	1	2
421.524	1	8
421.695	1	7
421.865	1	10
422.036	1	2
422.206	1	-1
422.377	1	7
422.548	1	12
422.718	1	17
422.889	1	6
423.060	1	1
423.230	1	12
423.401	1	-1
423.572	1	2
423.742	1	15
423.913	1	-4
424.084	1	11
424.254	1	-6
424.425	1	7
424.595	1	17
424.766	1	7
424.937	1	14
425.107	1	4
425.278	1	4
425.449	1	5
425.619	1	-2
425.790	1	2
425.961	1	15
426.131	1	-5
426.302	1	3
426.472	1	7
426.643	1	-3
426.814	1	5
426.984	1	1
427.155	1	3
427.326	1	11
427.496	1	1
427.667	1	-5
427.837	1	3
428.008	1	13
428.179	1	11
428.349	1	0
428.520	1	5
428.691	1	16
428.861	1	6
429.032	1	3
429.202	1	-2
429.373	1	8
429.544	1	6
429.714	1	14
429.885	1	8
430.055	1	7
430.226	1	-2
430.397	1	1
430.567	1	-9
430.738	1	9
430.909	1	4
431.079	1	4
431.250	1	11
431.420	1	9
431.591	1	11
431.762	1	-5
431.932	1	7
432.103	1	8
432.273	1	18
432.444	1	11
432.615	1	1
432.785	1	-6
432.956	1	9
433.126	1	-4
433.297	1	9
433.468	1	-1
433.638	1	1
433.809	1	-7
433.979	1	-2
434.150	1	8
434.320	1	17
434.491	1	10
434.662	1	8
434.832	1	-4
435.003	1	15
435.173	1	6
435.344	1	2
435.515	1	-8
435.685	1	-1
435.856	1	4
436.026	1	2
436.197	1	9
436.368	1	2
436.538	1	-1
436.709	1	4
436.879	1	0
437.050	1	3
437.220	1	5
437.391	1	-3
437.562	1	4
437.732	1	3
437.903	1	-1
438.073	1	0
438.244	1	14
438.414	1	10
438.585	1	6
438.756	1	-6
438.926	1	8
439.097	1	8
439.267	1	-1
439.438	1	-3
439.608	1	7
439.779	1	-3
439.949	1	6
440.120	1	-2
440.291	1	3
440.461	1	4
440.632	1	8
440.802	1	5
440.973	1	9
441.143	1	3
441.314	1	-9
441.485	1	2
441.655	1	12
441.826	1	12
441.996	1	-1
442.167	1	5
442.337	1	2
442.508	1	3
442.678	1	9
442.849	1	4
443.019	1	8
443.190	1	6
443.361	1	9
443.531	1	1
443.702	1	16
443.872	1	-3
444.043	1	13
444.213	1	1
444.384	1	9
444.554	1	4
444.725	1	16
444.895	1	1
445.066	1	-4
445.237	1	4
445.407	1	3
445.578	1	2
445.748	1	7
445.919	1	6
446.089	1	6
446.260	1	7
446.430	1	10
446.601	1	8
446.771	1	-6
446.942	1	-3
447.112	1	4
447.283	1	17
447.453	1	0
447.624	1	-4
447.794	1	5
447.965	1	7
448.135	1	2
448.306	1	13
448.477	1	2
448.647	1	-2
448.818	1	6
448.988	1	8
449.159	1	-9
449.329	1	2
449.500	1	-1
449.670	1	5
449.841	1	5
450.011	1	-1
450.182	1	2
450.352	1	-2
450.523	1	9
450.693	1	14
450.864	1	-3
451.034	1	0
451.205	1	0
451.375	1	10
451.546	1	8
451.716	1	7
451.887	1	8
452.057	1	-1
452.228	1	1
452.398	1	9
452.569	1	2
452.739	1	7
452.910	1	4
453.080	1	12
453.251	1	-1
453.421	1	7
453.592	1	-10
453.762	1	10
453.933	1	-10
454.103	1	-10
454.274	1	6
454.444	1	5
454.615	1	-6
454.785	1	10
454.956	1	1
455.126	1	3
455.297	1	2
455.467	1	5
455.638	1	5
455.808	1	15
455.979	1	6
456.149	1	-1
456.320	1	10
456.490	1	-2
456.661	1	5
456.831	1	6
457.001	1	16
457.172	1	9
457.342	1	1
457.513	1	-2
457.683	1	-1
457.854	1	1
458.024	1	2
458.195	1	7
458.365	1	-6
458.536	1	3
458.706	1	6
458.877	1	5
459.047	1	3
459.218	1	9
459.388	1	2
459.559	1	1
459.729	1	4
459.899	1	-5
460.070	1	15
460.240	1	2
460.411	1	8
460.581	1	-4
460.752	1	1
460.922	1	8
461.093	1	1
461.263	1	14
461.434	1	-8
461.604	1	0
461.775	1	10
461.945	1	13
462.115	1	8
462.286	1	-6
462.456	1	2
462.627	1	4
462.797	1	-7
462.968	1	7
463.138	1	-1
463.309	1	5
463.479	1	0
463.649	1	-5
463.820	1	12
463.990	1	9
464.161	1	-1
464.331	1	6
464.502	1	2
464.672	1	5
464.843	1	14
465.013	1	1
465.183	1	-7
465.354	1	10
465.524	1	14
465.695	1	0
465.865	1	-4
466.036	1	16
466.206	1	1
466.376	1	11
466.547	1	-2
466.717	1	-4
466.888	1	0
467.058	1	10
467.229	1	8
467.399	1	-4
467.569	1	4
467.740	1	18
467.910	1	6
468.081	1	2
468.251	1	-10
468.422	1	1
468.592	1	1
468.762	1	6
468.933	1	9
469.103	1	4
469.274	1	-3
469.444	1	1
469.614	1	-8
469.785	1	-6
469.955	1	2
470.126	1	11
470.296	1	8
470.467	1	6
470.637	1	-2
470.807	1	0
470.978	1	-5
471.148	1	-4
471.319	1	12
471.489	1	4
471.659	1	1
471.830	1	6
472.000	1	-7
472.171	1	7
472.341	1	9
472.511	1	4
472.682	1	9
472.852	1	8
473.023	1	2
473.193	1	5
473.363	1	5
473.534	1	1
473.704	1	0
473.875	1	5
474.045	1	0
474.215	1	-3
474.386	1	1
474.556	1	-1
474.727	1	6
474.897	1	-4
475.067	1	7
475.238	1	-3
475.408	1	9
475.578	1	-7
475.749	1	-7
475.919	1	-4
476.090	1	5
476.260	1	-3
476.430	1	-10
476.601	1	13
476.771	1	1
476.942	1	5
477.112	1	11
477.282	1	-3
477.453	1	6
477.623	1	-2
477.793	1	-3
477.964	1	2
478.134	1	3
478.305	1	8
478.475	1	0
478.645	1	9
478.816	1	5
478.986	1	5
479.156	1	-2
479.327	1	0
479.497	1	-6
479.667	1	10
479.838	1	11
480.008	1	3
480.179	1	13
480.349	1	-9
480.519	1	0
480.690	1	5
480.860	1	8
481.030	1	4
481.201	1	0
481.371	1	-1
481.541	1	-3
481.712	1	12
481.882	1	-1
482.053	1	10
482.223	1	5
482.393	1	1
482.564	1	7
482.734	1	4
482.904	1	0
483.075	1	3
483.245	1	6
483.415	1	1
483.586	1	0
483.756	1	2
483.926	1	3
484.097	1	5
484.267	1	8
484.437	1	3
484.608	1	5
484.778	1	-2
484.948	1	3
485.119	1	1
485.289	1	-2
485.459	1	-7
485.630	1	3
485.800	1	-4
485.970	1	1
486.141	1	7
486.311	1	9
486.481	1	-9
486.652	1	-9
486.822	1	3
486.992	1	5
487.163	1	-2
487.333	1	4
487.503	1	-1
487.674	1	2
487.844	1	2
488.014	1	2
488.185	1	3
488.355	1	3
488.525	1	-4
488.696	1	17
488.866	1	0
489.036	1	4
489.207	1	1
489.377	1	6
489.547	1	5
489.718	1	-5
489.888	1	8
490.058	1	2
490.228	1	-2
490.399	1	9
490.569	1	-5
490.739	1	0
490.910	1	15
491.080	1	-8
491.250	1	7
491.421	1	-1
491.591	1	-8
491.761	1	-4
491.932	1	9
492.102	1	5
492.272	1	-10
492.442	1	7
492.613	1	-4
492.783	1	15
492.953	1	0
493.124	1	13
493.294	1	-12
493.464	1	-5
493.635	1	3
493.805	1	13
493.975	1	12
494.145	1	-8
494.316	1	2
494.486	1	0
494.656	1	6
494.827	1	-4
494.997	1	-4
495.167	1	8
495.337	1	0
495.508	1	5
495.678	1	-9
495.848	1	-1
496.019	1	8
496.189	1	0
496.359	1	7
496.529	1	7
496.700	1	-1
496.870	1	-2
497.040	1	2
497.211	1	-2
497.381	1	9
497.551	1	3
497.721	1	2
497.892	1	-1
498.062	1	8
498.232	1	2
498.403	1	11
498.573	1	4
498.743	1	1
498.913	1	3
499.084	1	10
499.254	1	-1
499.424	1	4
499.594	1	0
499.765	1	4
499.935	1	8
500.105	1	4
500.275	1	0
500.446	1	0
500.616	1	-5
500.786	1	-4
500.956	1	14
501.127	1	9
501.297	1	6
501.467	1	3
501.638	1	-1
501.808	1	4
501.978	1	1
502.148	1	-2
502.319	1	9
502.489	1	1
502.659	1	19
502.829	1	1
503.000	1	6
503.170	1	-1
503.340	1	2
503.510	1	-5
503.681	1	1
503.851	1	0
504.021	1	2
504.191	1	2
504.362	1	1
504.532	1	7
504.702	1	-4
504.872	1	-7
505.042	1	3
505.213	1	1
505.383	1	3
505.553	1	5
505.723	1	8
505.894	1	6
506.064	1	3
506.234	1	12
506.404	1	0
506.575	1	18
506.745	1	3
506.915	1	9
507.085	1	9
507.256	1	1
507.426	1	2
507.596	1	9
507.766	1	11
507.936	1	9
508.107	1	-4
508.277	1	6
508.447	1	4
508.617	1	9
508.788	1	-1
508.958	1	14
509.128	1	6
509.298	1	1
509.468	1	-11
509.639	1	-6
509.809	1	-2
509.979	1	-4
510.149	1	0
510.319	1	-3
510.490	1	1
510.660	1	0
510.830	1	-6
511.000	1	3
511.171	1	12
511.341	1	16
511.511	1	3
511.681	1	9
511.851	1	15
512.022	1	-3
512.192	1	15
512.362	1	11
512.532	1	15
512.702	1	-5
512.873	1	0
513.043	1	0
513.213	1	4
513.383	1	-6
513.553	1	7
513.724	1	12
513.894	1	-2
514.064	1	2
514.234	1	8
514.404	1	13
514.575	1	-2
514.745	1	5
514.915	1	3
515.085	1	1
515.255	1	-4
515.425	1	14
515.596	1	11
515.766	1	-4
515.936	1	7
516.106	1	-5
516.276	1	0
516.447	1	6
516.617	1	11
516.787	1	6
516.957	1	6
517.127	1	5
517.297	1	-6
517.468	1	7
517.638	1	15
517.808	1	-3
517.978	1	8
518.148	1	9
518.319	1	6
518.489	1	1
518.659	1	14
518.829	1	0
518.999	1	11
519.169	1	-3
519.340	1	11
519.510	1	-2
519.680	1	15
519.850	1	9
520.020	1	4
520.190	1	9
520.361	1	5
520.531	1	7
520.701	1	13
520.871	1	4
521.041	1	2
521.211	1	6
521.382	1	7
521.552	1	-1
521.722	1	-1
521.892	1	6
522.062	1	1
522.232	1	2
522.402	1	20
522.573	1	6
522.743	1	6
522.913	1	10
523.083	1	-6
523.253	1	13
523.423	1	10
523.593	1	8
523.764	1	0
523.934	1	7
524.104	1	13
524.274	1	6
524.444	1	8
524.614	1	12
524.784	1	0
524.955	1	-2
525.125	1	6
525.295	1	9
525.465	1	21
525.635	1	10
525.805	1	9
525.975	1	1
526.146	1	5
526.316	1	-7
526.486	1	0
526.656	1	13
526.826	1	9
526.996	1	6
527.166	1	4
527.337	1	15
527.507	1	8
527.677	1	14
527.847	1	-8
528.017	1	-8
528.187	1	9
528.357	1	0
528.527	1	5
528.698	1	5
528.868	1	5
529.038	1	5
529.208	1	9
529.378	1	8
529.548	1	14
529.718	1	3
529.888	1	4
530.058	1	4
530.229	1	10
530.399	1	4
530.569	1	-6
530.739	1	3
530.909	1	9
531.079	1	10
531.249	1	6
531.419	1	8
531.589	1	9
531.760	1	5
531.930	1	7
532.100	1	8
532.270	1	8
532.440	1	0
532.610	1	13
532.780	1	-4
532.950	1	8
533.120	1	2
533.290	1	17
533.461	1	2
533.631	1	5
533.801	1	5
533.971	1	1
534.141	1	4
534.311	1	7
534.481	1	18
534.651	1	-6
534.821	1	9
534.991	1	4
535.162	1	9
535.332	1	8
535.502	1	-5
535.672	1	8
535.842	1	6
536.012	1	3
536.182	1	4
536.352	1	9
536.522	1	8
536.692	1	-1
536.862	1	9
537.032	1	10
537.203	1	5
537.373	1	2
537.543	1	3
537.713	1	9
537.883	1	-1
538.053	1	3
538.223	1	12
538.393	1	1
538.563	1	4
538.733	1	10
538.903	1	2
539.073	1	-9
539.243	1	8
539.413	1	0
539.584	1	2
539.754	1	3
539.924	1	4
540.094	1	4
540.264	1	12
540.434	1	2
540.604	1	8
540.774	1	8
540.944	1	7
541.114	1	9
541.284	1	-1
541.454	1	-1
541.624	1	0
541.794	1	9
541.964	1	2
542.134	1	7
542.305	1	22
542.475	1	1
542.645	1	8
542.815	1	2
542.985	1	-5
543.155	1	2
543.325	1	4
543.495	1	15
543.665	1	-2
543.835	1	5
544.005	1	3
544.175	1	5
544.345	1	15
544.515	1	9
544.685	1	-6
544.855	1	5
545.025	1	5
545.195	1	0
545.365	1	0
545.535	1	1
545.705	1	-5
545.875	1	-7
546.045	1	12
546.216	1	9
546.386	1	-6
546.556	1	3
546.726	1	9
546.896	1	4
547.066	1	-3
547.236	1	0
547.406	1	-3
547.576	1	-1
547.746	1	6
547.916	1	10
548.086	1	5
548.256	1	-5
548.426	1	8
548.596	1	7
548.766	1	6
548.936	1	3
549.106	1	1
549.276	1	6
549.446	1	6
549.616	1	5
549.786	1	9
549.956	1	-3
550.126	1	3
550.296	1	6
550.466	1	8
550.636	1	-4
550.806	1	9
550.976	1	-5
551.146	1	10
551.316	1	4
551.486	1	1
551.656	1	5
551.826	1	4
551.996	1	1
552.166	1	4
552.336	1	1
552.506	1	4
552.676	1	7
552.846	1	12
553.016	1	1
553.186	1	-11
553.356	1	-1
553.526	1	3
553.696	1	-3
553.866	1	0
554.036	1	13
554.206	1	10
554.376	1	6
554.546	1	-1
554.716	1	3
554.886	1	5
555.056	1	3
555.226	1	11
555.396	1	12
555.566	1	6
555.736	1	8
555.906	1	4
556.076	1	1
556.246	1	0
556.416	1	5
556.586	1	-3
556.756	1	10
556.926	1	3
557.096	1	9
557.266	1	15
557.436	1	3
557.606	1	-12
557.776	1	8
557.946	1	6
558.116	1	5
558.286	1	-4
558.456	1	5
558.626	1	4
558.796	1	12
558.966	1	1
559.136	1	2
559.306	1	4
559.476	1	-2
559.646	1	10
559.816	1	-3
559.986	1	3
560.155	1	9
560.325	1	10
560.495	1	-2
560.665	1	9
560.835	1	-2
561.005	1	12
561.175	1	8
561.345	1	7
561.515	1	6
561.685	1	9
561.855	1	-2
562.025	1	-5
562.195	1	0
562.365	1	-1
562.535	1	-7
562.705	1	12
562.875	1	4
563.045	1	10
563.215	1	3
563.385	1	5
563.555	1	-2
563.725	1	-2
563.895	1	10
564.064	1	2
564.234	1	-3
564.404	1	1
564.574	1	2
564.744	1	15
564.914	1	7
565.084	1	3
565.254	1	3
565.424	1	3
565.594	1	1
565.764	1	2
565.934	1	10
566.104	1	8
566.274	1	13
566.444	1	9
566.614	1	0
566.783	1	6
566.953	1	14
567.123	1	-2
567.293	1	-2
567.463	1	2
567.633	1	7
567.803	1	8
567.973	1	1
568.143	1	-1
568.313	1	3
568.483	1	8
568.653	1	7
568.823	1	3
568.993	1	4
569.162	1	-5
569.332	1	1
569.502	1	5
569.672	1	6
569.842	1	9
570.012	1	0
570.182	1	0
570.352	1	11
570.522	1	1
570.692	1	1
570.862	1	-11
571.031	1	9
571.201	1	15
571.371	1	-3
571.541	1	4
571.711	1	2
571.881	1	0
572.051	1	-4
572.221	1	1
572.391	1	-3
572.561	1	9
572.731	1	0
572.900	1	7
573.070	1	1
573.240	1	-2
573.410	1	7
573.580	1	1
573.750	1	1
573.920	1	15
574.090	1	7
574.260	1	2
574.430	1	6
574.599	1	6
574.769	1	13
574.939	1	9
575.109	1	10
575.279	1	-4
575.449	1	3
575.619	1	2
575.789	1	2
575.959	1	-2
576.128	1	0
576.298	1	-2
576.468	1	7
576.638	1	5
576.808	1	5
576.978	1	2
577.148	1	-13
577.318	1	5
577.487	1	5
577.657	1	-6
577.827	1	3
577.997	1	5
578.167	1	17
578.337	1	3
578.507	1	-1
578.677	1	-1
578.846	1	-2
579.016	1	-2
579.186	1	6
579.356	1	10
579.526	1	-8
579.696	1	-3
579.866	1	2
580.036	1	8
580.205	1	6
580.375	1	4
580.545	1	7
580.715	1	5
580.885	1	3
581.055	1	1
581.225	1	14
581.394	1	5
581.564	1	4
581.734	1	6
581.904	1	3
582.074	1	0
582.244	1	0
582.414	1	0
582.583	1	6
582.753	1	4
582.923	1	1
583.093	1	11
583.263	1	-1
583.433	1	8
583.603	1	5
583.772	1	9
583.942	1	0
584.112	1	10
584.282	1	7
584.452	1	10
584.622	1	3
584.791	1	5
584.961	1	-4
585.131	1	1
585.301	1	9
585.471	1	4
585.641	1	10
585.811	1	-2
585.980	1	8
586.150	1	3
586.320	1	-5
586.490	1	4
586.660	1	-7
586.830	1	2
586.999	1	-3
587.169	1	-1
587.339	1	-2
587.509	1	-4
587.679	1	3
587.849	1	12
588.018	1	9
588.188	1	10
588.358	1	15
588.528	1	-4
588.698	1	4
588.867	1	9
589.037	1	-2
589.207	1	6
589.377	1	7
589.547	1	12
589.717	1	1
589.886	1	6
590.056	1	4
590.226	1	-5
590.396	1	-5
590.566	1	3
590.735	1	12
590.905	1	1
591.075	1	3
591.245	1	0
591.415	1	4
591.585	1	-3
591.754	1	-1
591.924	1	-8
592.094	1	9
592.264	1	0
592.434	1	7
592.603	1	-5
592.773	1	-1
592.943	1	3
593.113	1	-3
593.283	1	6
593.452	1	5
593.622	1	2
593.792	1	5
593.962	1	4
594.132	1	4
594.301	1	1
594.471	1	6
594.641	1	6
594.811	1	-4
594.981	1	4
595.150	1	-2
595.320	1	3
595.490	1	-2
595.660	1	8
595.829	1	-8
595.999	1	9
596.169	1	7
596.339	1	4
596.509	1	5
596.678	1	-16
596.848	1	7
597.018	1	-2
597.188	1	2
597.358	1	1
597.527	1	4
597.697	1	-4
597.867	1	-4
598.037	1	0
598.206	1	9
598.376	1	-8
598.546	1	8
598.716	1	5
598.885	1	12
599.055	1	8
599.225	1	-3
599.395	1	5
599.565	1	-2
599.734	1	10
599.904	1	4
600.074	1	-5
600.244	1	1
600.413	1	13
600.583	1	10
600.753	1	13
600.923	1	6
601.092	1	-2
601.262	1	-6
601.432	1	-4
601.602	1	3
601.771	1	4
601.941	1	-7
602.111	1	0
602.281	1	12
602.451	1	-3
602.620	1	7
602.790	1	4
602.960	1	-11
603.130	1	3
603.299	1	7
603.469	1	-3
603.639	1	4
603.809	1	9
603.978	1	12
604.148	1	-4
604.318	1	3
604.487	1	7
604.657	1	5
604.827	1	4
604.997	1	9
605.166	1	3
605.336	1	0
605.506	1	3
605.676	1	1
605.845	1	5
606.015	1	-7
606.185	1	-3
606.355	1	-4
606.524	1	2
606.694	1	9
606.864	1	4
607.034	1	3
607.203	1	19
607.373	1	3
607.543	1	-1
607.712	1	-3
607.882	1	9
608.052	1	-4
608.222	1	-9
608.391	1	-6
608.561	1	-7
608.731	1	-8
608.901	1	12
609.070	1	12
609.240	1	10
609.410	1	-5
609.579	1	5
609.749	1	-7
609.919	1	-11
610.089	1	-5
610.258	1	7
610.428	1	5
610.598	1	-4
610.767	1	10
610.937	1	-1
611.107	1	13
611.277	1	3
611.446	1	4
611.616	1	12
611.786	1	1
611.955	1	-8
612.125	1	-1
612.295	1	7
612.465	1	4
612.634	1	4
612.804	1	-5
612.974	1	-4
613.143	1	3
613.313	1	2
613.483	1	11
613.652	1	8
613.822	1	12
613.992	1	2
614.162	1	8
614.331	1	17
614.501	1	-6
614.671	1	3
614.840	1	11
615.010	1	5
615.180	1	2
615.349	1	3
615.519	1	-5
615.689	1	-7
615.858	1	-2
616.028	1	19
616.198	1	17
616.368	1	11
616.537	1	-12
616.707	1	3
616.877	1	4
617.046	1	6
617.216	1	-3
617.386	1	12
617.555	1	3
617.725	1	3
617.895	1	10
618.064	1	4
618.234	1	-6
618.404	1	-4
618.573	1	5
618.743	1	2
618.913	1	11
619.082	1	11
619.252	1	0
619.422	1	16
619.591	1	5
619.761	1	1
619.931	1	8
620.100	1	2
620.270	1	8
620.440	1	4
620.609	1	-10
620.779	1	-3
620.949	1	11
621.118	1	9
621.288	1	3
621.458	1	1
621.627	1	4
621.797	1	1
621.967	1	8
622.136	1	0
622.306	1	-8
622.476	1	1
622.645	1	9
622.815	1	17
622.985	1	-2
623.154	1	3
623.324	1	0
623.494	1	-1
623.663	1	6
623.833	1	1
624.002	1	12
624.172	1	6
624.342	1	10
624.511	1	-3
624.681	1	-3
624.851	1	1
625.020	1	-5
625.190	1	-1
625.360	1	-1
625.529	1	2
625.699	1	6
625.869	1	11
626.038	1	7
626.208	1	-5
626.377	1	6
626.547	1	-4
626.717	1	5
626.886	1	-2
627.056	1	-5
627.226	1	4
627.395	1	4
627.565	1	7
627.735	1	-2
627.904	1	-1
628.074	1	3
628.243	1	7
628.413	1	-3
628.583	1	7
628.752	1	-1
628.922	1	15
629.091	1	8
629.261	1	3
629.431	1	0
629.600	1	9
629.770	1	13
629.940	1	-6
630.109	1	2
630.279	1	6
630.448	1	1
630.618	1	2
630.788	1	0
630.957	1	2
631.127	1	5
631.297	1	4
631.466	1	1
631.636	1	-1
631.805	1	7
631.975	1	10
632.145	1	-6
632.314	1	-4
632.484	1	10
632.653	1	-6
632.823	1	-5
632.993	1	-3
633.162	1	4
633.332	1	-2
633.501	1	-3
633.671	1	5
633.841	1	4
634.010	1	4
634.180	1	1
634.349	1	9
634.519	1	-3
634.689	1	-6
634.858	1	6
635.028	1	-4
635.197	1	3
635.367	1	9
635.537	1	2
635.706	1	-2
635.876	1	4
636.045	1	-2
636.215	1	-1
636.384	1	4
636.554	1	-5
636.724	1	6
636.893	1	10
637.063	1	-5
637.232	1	2
637.402	1	6
637.572	1	5
637.741	1	3
637.911	1	7
638.080	1	-1
638.250	1	-3
638.419	1	-2
638.589	1	7
638.759	1	0
638.928	1	-1
639.098	1	2
639.267	1	11
639.437	1	4
639.606	1	7
639.776	1	3
639.946	1	4
640.115	1	1
640.285	1	-6
640.454	1	-4
640.624	1	3
640.793	1	0
640.963	1	10
641.132	1	1
641.302	1	1
641.472	1	11
641.641	1	-2
641.811	1	0
641.980	1	11
642.150	1	-8
642.319	1	8
642.489	1	0
642.659	1	6
642.828	1	11
642.998	1	5
643.167	1	19
643.337	1	2
643.506	1	-2
643.676	1	0
643.845	1	12
644.015	1	0
644.184	1	12
644.354	1	12
644.524	1	5
644.693	1	-2
644.863	1	7
645.032	1	8
645.202	1	6
645.371	1	-1
645.541	1	-3
645.710	1	-1
645.880	1	8
646.049	1	13
646.219	1	2
646.388	1	-2
646.558	1	-4
646.728	1	9
646.897	1	-6
647.067	1	17
647.236	1	-6
647.406	1	3
647.575	1	13
647.745	1	-4
647.914	1	0
648.084	1	-8
648.253	1	15
648.423	1	4
648.592	1	10
648.762	1	1
648.931	1	14
649.101	1	-3
649.270	1	12
649.440	1	8
649.610	1	6
649.779	1	0
649.949	1	-3
650.118	1	1
650.288	1	7
650.457	1	12
650.627	1	6
650.796	1	4
650.966	1	5
651.135	1	3
651.305	1	2
651.474	1	4
651.644	1	11
651.813	1	-4
651.983	1	-14
652.152	1	-3
652.322	1	11
652.491	1	3
652.661	1	8
652.830	1	-2
653.000	1	0
653.169	1	-5
653.339	1	0
653.508	1	-4
653.678	1	12
653.847	1	6
654.017	1	3
654.186	1	7
654.356	1	7
654.525	1	3
654.695	1	15
654.864	1	8
655.034	1	-1
655.203	1	-7
655.373	1	6
655.542	1	5
655.712	1	8
655.881	1	9
656.051	1	1
656.220	1	5
656.390	1	3
656.559	1	1
656.729	1	7
656.898	1	9
657.068	1	-1
657.237	1	2
657.406	1	1
657.576	1	-4
657.745	1	14
657.915	1	8
658.084	1	7
658.254	1	5
658.423	1	-1
658.593	1	12
658.762	1	-2
658.932	1	5
659.101	1	-2
659.271	1	5
659.440	1	4
659.610	1	5
659.779	1	5
659.949	1	5
660.118	1	1
660.288	1	-7
660.457	1	4
660.626	1	-2
660.796	1	11
660.965	1	-1
661.135	1	1
661.304	1	6
661.474	1	11
661.643	1	4
661.813	1	7
661.982	1	-7
662.152	1	-5
662.321	1	-6
662.491	1	1
662.660	1	6
662.829	1	7
662.999	1	7
663.168	1	-7
663.338	1	-1
663.507	1	5
663.677	1	11
663.846	1	7
664.016	1	-4
664.185	1	13
664.354	1	-7
664.524	1	7
664.693	1	-2
664.863	1	-2
665.032	1	6
665.202	1	9
665.371	1	12
665.541	1	-3
665.710	1	8
665.879	1	1
666.049	1	8
666.218	1	-1
666.388	1	5
666.557	1	0
666.727	1	8
666.896	1	5
667.065	1	8
667.235	1	-1
667.404	1	0
667.574	1	0
667.743	1	-4
667.913	1	5
668.082	1	7
668.251	1	-9
668.421	1	0
668.590	1	-1
668.760	1	2
668.929	1	2
669.099	1	2
669.268	1	5
669.437	1	-4
669.607	1	-13
669.776	1	0
669.946	1	1
670.115	1	-3
670.285	1	-5
670.454	1	-5
670.623	1	0
670.793	1	2
670.962	1	-8
671.132	1	0
671.301	1	-2
671.470	1	5
671.640	1	-6
671.809	1	7
671.979	1	-2
672.148	1	2
672.317	1	0
672.487	1	-3
672.656	1	16
672.826	1	5
672.995	1	-1
673.164	1	5
673.334	1	-5
673.503	1	0
673.673	1	8
673.842	1	-1
674.011	1	3
674.181	1	-2
674.350	1	3
674.520	1	4
674.689	1	-11
674.858	1	4
675.028	1	2
675.197	1	6
675.367	1	6
675.536	1	3
675.705	1	-8
675.875	1	7
676.044	1	0
676.214	1	6
676.383	1	8
676.552	1	1
676.722	1	-3
676.891	1	-7
677.060	1	-2
677.230	1	7
677.399	1	20
677.569	1	11
677.738	1	-10
677.907	1	6
678.077	1	-6
678.246	1	3
678.416	1	0
678.585	1	-3
678.754	1	10
678.924	1	0
679.093	1	9
679.262	1	2
679.432	1	-8
679.601	1	15
679.771	1	2
679.940	1	-4
680.109	1	3
680.279	1	8
680.448	1	0
680.617	1	0
680.787	1	-13
680.956	1	9
681.125	1	-2
681.295	1	2
681.464	1	5
681.634	1	7
681.803	1	-4
681.972	1	6
682.142	1	-1
682.311	1	8
682.480	1	-7
682.650	1	-6
682.819	1	3
682.988	1	7
683.158	1	2
683.327	1	1
683.496	1	0
683.666	1	-5
683.835	1	-1
684.004	1	2
684.174	1	-4
684.343	1	7
684.512	1	-1
684.682	1	6
684.851	1	0
685.021	1	10
685.190	1	1
685.359	1	5
685.529	1	-1
685.698	1	-6
685.867	1	0
686.037	1	6
686.206	1	-6
686.375	1	9
686.545	1	2
686.714	1	1
686.883	1	8
687.053	1	18
687.222	1	-5
687.391	1	-8
687.561	1	-1
687.730	1	10
687.899	1	0
688.069	1	4
688.238	1	7
688.407	1	-4
688.577	1	-7
688.746	1	-5
