340.368	1	2
340.539	1	0
340.710	1	1
340.881	1	4
341.052	1	4
341.223	1	10
341.394	1	-1
341.565	1	17
341.737	1	11
341.908	1	18
342.079	1	2
342.250	1	5
342.421	1	0
342.592	1	17
342.763	1	0
342.934	1	7
343.105	1	4
343.276	1	2
343.447	1	7
343.618	1	11
343.789	1	5
343.960	1	8
344.131	1	-1
344.302	1	8
344.473	1	5
344.644	1	6
344.815	1	10
344.986	1	6
345.157	1	14
345.328	1	8
345.499	1	8
345.670	1	-5
345.841	1	6
346.012	1	0
346.183	1	0
346.354	1	8
346.526	1	11
346.697	1	13
346.868	1	8
347.039	1	18
347.210	1	-4
347.381	1	14
347.552	1	19
347.723	1	10
347.894	1	-2
348.065	1	14
348.236	1	9
348.407	1	16
348.578	1	14
348.749	1	18
348.920	1	12
349.091	1	5
349.262	1	14
349.433	1	7
349.604	1	3
349.775	1	8
349.946	1	4
350.117	1	9
350.288	1	-2
350.459	1	9
350.630	1	1
350.801	1	-1
350.972	1	14
351.143	1	7
351.314	1	4
351.485	1	13
351.656	1	15
351.827	1	17
351.998	1	10
352.169	1	16
352.340	1	15
352.511	1	10
352.682	1	0
352.853	1	-1
353.024	1	26
353.195	1	1
353.366	1	11
353.537	1	11
353.708	1	6
353.879	1	18
354.050	1	9
354.221	1	5
354.392	1	11
354.563	1	15
354.734	1	17
354.905	1	6
355.076	1	24
355.247	1	1
355.418	1	4
355.589	1	15
355.760	1	26
355.931	1	15
356.102	1	18
356.273	1	21
356.444	1	26
356.615	1	13
356.785	1	20
356.956	1	26
357.127	1	32
357.298	1	19
357.469	1	8
357.640	1	25
357.811	1	28
357.982	1	31
358.153	1	18
358.324	1	37
358.495	1	37
358.666	1	25
358.837	1	49
359.008	1	23
359.179	1	33
359.350	1	31
359.521	1	44
359.692	1	31
359.863	1	32
360.034	1	28
360.205	1	56
360.376	1	56
360.547	1	56
360.718	1	45
360.889	1	46
361.060	1	60
361.231	1	54
361.401	1	61
361.572	1	68
361.743	1	67
361.914	1	77
362.085	1	68
362.256	1	87
362.427	1	76
362.598	1	92
362.769	1	84
362.940	1	91
363.111	1	105
363.282	1	102
363.453	1	112
363.624	1	109
363.795	1	119
363.966	1	122
364.137	1	137
364.308	1	153
364.478	1	155
364.649	1	154
364.820	1	174
364.991	1	177
365.162	1	204
365.333	1	208
365.504	1	221
365.675	1	223
365.846	1	232
366.017	1	251
366.188	1	250
366.359	1	247
366.530	1	270
366.701	1	278
366.871	1	286
367.042	1	283
367.213	1	305
367.384	1	297
367.555	1	313
367.726	1	318
367.897	1	327
368.068	1	336
368.239	1	311
368.410	1	318
368.581	1	324
368.752	1	336
368.923	1	305
369.093	1	320
369.264	1	305
369.435	1	307
369.606	1	285
369.777	1	310
369.948	1	274
370.119	1	273
370.290	1	272
370.461	1	245
370.632	1	251
370.803	1	251
370.973	1	227
371.144	1	230
371.315	1	215
371.486	1	212
371.657	1	212
371.828	1	203
371.999	1	187
372.170	1	195
372.341	1	190
372.512	1	173
372.682	1	168
372.853	1	168
373.024	1	165
373.195	1	152
373.366	1	155
373.537	1	137
373.708	1	138
373.879	1	134
374.050	1	137
374.220	1	147
374.391	1	133
374.562	1	132
374.733	1	122
374.904	1	114
375.075	1	113
375.246	1	114
375.417	1	111
375.588	1	108
375.758	1	123
375.929	1	107
376.100	1	99
376.271	1	84
376.442	1	90
376.613	1	106
376.784	1	88
376.955	1	100
377.125	1	87
377.296	1	82
377.467	1	96
377.638	1	77
377.809	1	68
377.980	1	66
378.151	1	67
378.321	1	69
378.492	1	67
378.663	1	71
378.834	1	75
379.005	1	55
379.176	1	74
379.347	1	66
379.518	1	54
379.688	1	75
379.859	1	60
380.030	1	65
380.201	1	64
380.372	1	61
380.543	1	51
380.714	1	61
380.884	1	60
381.055	1	53
381.226	1	50
381.397	1	45
381.568	1	48
381.739	1	46
381.910	1	62
382.080	1	45
382.251	1	39
382.422	1	51
382.593	1	51
382.764	1	47
382.935	1	41
383.105	1	43
383.276	1	51
383.447	1	37
383.618	1	47
383.789	1	31
383.960	1	39
384.130	1	49
384.301	1	39
384.472	1	38
384.643	1	37
384.814	1	42
384.985	1	41
385.156	1	49
385.326	1	39
385.497	1	47
385.668	1	42
385.839	1	37
386.010	1	30
386.180	1	43
386.351	1	36
386.522	1	50
386.693	1	41
386.864	1	37
387.035	1	33
387.205	1	40
387.376	1	43
387.547	1	51
387.718	1	32
387.889	1	38
388.060	1	37
388.230	1	36
388.401	1	30
388.572	1	27
388.743	1	30
388.914	1	43
389.084	1	33
389.255	1	34
389.426	1	30
389.597	1	37
389.768	1	41
389.939	1	39
390.109	1	21
390.280	1	25
390.451	1	39
390.622	1	19
390.793	1	43
390.963	1	23
391.134	1	33
391.305	1	25
391.476	1	41
391.647	1	15
391.817	1	18
391.988	1	33
392.159	1	18
392.330	1	22
392.501	1	20
392.671	1	33
392.842	1	26
393.013	1	28
393.184	1	21
393.355	1	23
393.525	1	5
393.696	1	24
393.867	1	17
394.038	1	22
394.208	1	31
394.379	1	27
394.550	1	27
394.721	1	25
394.892	1	26
395.062	1	10
395.233	1	32
395.404	1	23
395.575	1	37
395.746	1	16
395.916	1	21
396.087	1	33
396.258	1	29
396.429	1	26
396.599	1	23
396.770	1	27
396.941	1	27
397.112	1	17
397.283	1	23
397.453	1	27
397.624	1	26
397.795	1	20
397.966	1	29
398.136	1	35
398.307	1	21
398.478	1	19
398.649	1	24
398.819	1	24
398.990	1	33
399.161	1	32
399.332	1	23
399.503	1	39
399.673	1	27
399.844	1	12
400.015	1	20
400.186	1	29
400.356	1	10
400.527	1	15
400.698	1	30
400.869	1	22
401.039	1	9
401.210	1	21
401.381	1	12
401.552	1	18
401.722	1	23
401.893	1	25
402.064	1	19
402.235	1	25
402.405	1	18
402.576	1	15
402.747	1	20
402.918	1	18
403.088	1	16
403.259	1	20
403.430	1	14
403.601	1	10
403.771	1	6
403.942	1	16
404.113	1	22
404.284	1	31
404.454	1	15
404.625	1	11
404.796	1	27
404.967	1	25
405.137	1	22
405.308	1	9
405.479	1	25
405.649	1	15
405.820	1	12
405.991	1	27
406.162	1	18
406.332	1	19
406.503	1	18
406.674	1	22
406.845	1	23
407.015	1	20
407.186	1	14
407.357	1	24
407.527	1	10
407.698	1	16
407.869	1	15
408.040	1	22
408.210	1	24
408.381	1	-1
408.552	1	18
408.722	1	16
408.893	1	15
409.064	1	18
409.235	1	21
409.405	1	15
409.576	1	7
409.747	1	14
409.917	1	24
410.088	1	17
410.259	1	16
410.430	1	20
410.600	1	15
410.771	1	25
410.942	1	22
411.112	1	20
411.283	1	18
411.454	1	21
411.625	1	12
411.795	1	16
411.966	1	13
412.137	1	17
412.307	1	23
412.478	1	20
412.649	1	19
412.819	1	23
412.990	1	15
413.161	1	24
413.332	1	20
413.502	1	15
413.673	1	17
413.844	1	26
414.014	1	16
414.185	1	20
414.356	1	24
414.526	1	10
414.697	1	11
414.868	1	9
415.038	1	15
415.209	1	11
415.380	1	18
415.550	1	20
415.721	1	18
415.892	1	24
416.063	1	18
416.233	1	20
416.404	1	12
416.575	1	7
416.745	1	17
416.916	1	17
417.087	1	14
417.257	1	19
417.428	1	18
417.599	1	17
417.769	1	12
417.940	1	13
418.111	1	15
418.281	1	28
418.452	1	26
418.623	1	18
418.793	1	9
418.964	1	31
419.135	1	17
419.305	1	16
419.476	1	11
419.647	1	20
419.817	1	14
419.988	1	29
420.159	1	19
420.329	1	25
420.500	1	7
420.671	1	21
420.841	1	19
421.012	1	13
421.183	1	21
421.353	1	17
421.524	1	27
421.695	1	20
421.865	1	13
422.036	1	25
422.206	1	18
422.377	1	17
422.548	1	14
422.718	1	22
422.889	1	25
423.060	1	29
423.230	1	21
423.401	1	8
423.572	1	6
423.742	1	35
423.913	1	9
424.084	1	9
424.254	1	18
424.425	1	18
424.595	1	24
424.766	1	9
424.937	1	17
425.107	1	15
425.278	1	15
425.449	1	14
425.619	1	16
425.790	1	14
425.961	1	28
426.131	1	12
426.302	1	16
426.472	1	24
426.643	1	19
426.814	1	15
426.984	1	18
427.155	1	15
427.326	1	24
427.496	1	16
427.667	1	14
427.837	1	14
428.008	1	20
428.179	1	24
428.349	1	24
428.520	1	13
428.691	1	17
428.861	1	29
429.032	1	20
429.202	1	7
429.373	1	24
429.544	1	9
429.714	1	17
429.885	1	23
430.055	1	31
430.226	1	-3
430.397	1	4
430.567	1	10
430.738	1	24
430.909	1	6
431.079	1	20
431.250	1	15
431.420	1	20
431.591	1	20
431.762	1	24
431.932	1	11
432.103	1	23
432.273	1	14
432.444	1	18
432.615	1	12
432.785	1	11
432.956	1	11
433.126	1	13
433.297	1	13
433.468	1	18
433.638	1	22
433.809	1	13
433.979	1	23
434.150	1	23
434.320	1	10
434.491	1	19
434.662	1	15
434.832	1	13
435.003	1	29
435.173	1	16
435.344	1	8
435.515	1	8
435.685	1	17
435.856	1	20
436.026	1	2
436.197	1	18
436.368	1	13
436.538	1	17
436.709	1	8
436.879	1	19
437.050	1	11
437.220	1	18
437.391	1	21
437.562	1	17
437.732	1	15
437.903	1	14
438.073	1	7
438.244	1	22
438.414	1	20
438.585	1	15
438.756	1	10
438.926	1	5
439.097	1	15
439.267	1	8
439.438	1	17
439.608	1	15
439.779	1	16
439.949	1	22
440.120	1	3
440.291	1	20
440.461	1	15
440.632	1	11
440.802	1	13
440.973	1	22
441.143	1	18
441.314	1	8
441.485	1	11
441.655	1	25
441.826	1	22
441.996	1	15
442.167	1	14
442.337	1	9
442.508	1	6
442.678	1	18
442.849	1	20
443.019	1	15
443.190	1	19
443.361	1	17
443.531	1	21
443.702	1	5
443.872	1	3
444.043	1	24
444.213	1	6
444.384	1	21
444.554	1	17
444.725	1	23
444.895	1	7
445.066	1	12
445.237	1	13
445.407	1	13
445.578	1	15
445.748	1	6
445.919	1	8
446.089	1	10
446.260	1	21
446.430	1	16
446.601	1	21
446.771	1	14
446.942	1	7
447.112	1	20
447.283	1	24
447.453	1	6
447.624	1	2
447.794	1	7
447.965	1	13
448.135	1	21
448.306	1	24
448.477	1	20
448.647	1	12
448.818	1	6
448.988	1	19
449.159	1	15
449.329	1	19
449.500	1	20
449.670	1	6
449.841	1	15
450.011	1	11
450.182	1	13
450.352	1	13
450.523	1	11
450.693	1	16
450.864	1	16
451.034	1	9
451.205	1	17
451.375	1	6
451.546	1	14
451.716	1	16
451.887	1	24
452.057	1	13
452.228	1	14
452.398	1	22
452.569	1	10
452.739	1	13
452.910	1	9
453.080	1	14
453.251	1	12
453.421	1	22
453.592	1	11
453.762	1	21
453.933	1	5
454.103	1	10
454.274	1	7
454.444	1	7
454.615	1	13
454.785	1	12
454.956	1	16
455.126	1	11
455.297	1	16
455.467	1	13
455.638	1	9
455.808	1	14
455.979	1	12
456.149	1	13
456.320	1	17
456.490	1	2
456.661	1	10
456.831	1	5
457.001	1	14
457.172	1	17
457.342	1	10
457.513	1	7
457.683	1	16
457.854	1	14
458.024	1	14
458.195	1	12
458.365	1	5
458.536	1	20
458.706	1	19
458.877	1	6
459.047	1	-1
459.218	1	15
459.388	1	16
459.559	1	14
459.729	1	20
459.899	1	-1
460.070	1	20
460.240	1	8
460.411	1	24
460.581	1	4
460.752	1	9
460.922	1	17
461.093	1	9
461.263	1	19
461.434	1	8
461.604	1	15
461.775	1	18
461.945	1	18
462.115	1	23
462.286	1	11
462.456	1	7
462.627	1	8
462.797	1	16
462.968	1	25
463.138	1	9
463.309	1	12
463.479	1	3
463.649	1	9
463.820	1	14
463.990	1	13
464.161	1	8
464.331	1	20
464.502	1	13
464.672	1	15
464.843	1	18
465.013	1	10
465.183	1	11
465.354	1	23
465.524	1	8
465.695	1	13
465.865	1	10
466.036	1	19
466.206	1	11
466.376	1	22
466.547	1	15
466.717	1	2
466.888	1	10
467.058	1	4
467.229	1	16
467.399	1	7
467.569	1	5
467.740	1	20
467.910	1	21
468.081	1	12
468.251	1	13
468.422	1	15
468.592	1	3
468.762	1	13
468.933	1	9
469.103	1	15
469.274	1	6
469.444	1	12
469.614	1	6
469.785	1	7
469.955	1	11
470.126	1	18
470.296	1	12
470.467	1	7
470.637	1	13
470.807	1	14
470.978	1	12
471.148	1	0
471.319	1	16
471.489	1	15
471.659	1	9
471.830	1	17
472.000	1	0
472.171	1	19
472.341	1	16
472.511	1	13
472.682	1	11
472.852	1	9
473.023	1	22
473.193	1	11
473.363	1	16
473.534	1	10
473.704	1	16
473.875	1	9
474.045	1	10
474.215	1	8
474.386	1	11
474.556	1	3
474.727	1	10
474.897	1	18
475.067	1	11
475.238	1	16
475.408	1	9
475.578	1	12
475.749	1	16
475.919	1	6
476.090	1	7
476.260	1	6
476.430	1	0
476.601	1	20
476.771	1	11
476.942	1	14
477.112	1	22
477.282	1	8
477.453	1	14
477.623	1	14
477.793	1	12
477.964	1	21
478.134	1	19
478.305	1	17
478.475	1	17
478.645	1	20
478.816	1	11
478.986	1	15
479.156	1	16
479.327	1	20
479.497	1	19
479.667	1	10
479.838	1	18
480.008	1	14
480.179	1	25
480.349	1	5
480.519	1	16
480.690	1	21
480.860	1	8
481.030	1	10
481.201	1	11
481.371	1	5
481.541	1	10
481.712	1	19
481.882	1	19
482.053	1	20
482.223	1	18
482.393	1	10
482.564	1	20
482.734	1	18
482.904	1	5
483.075	1	18
483.245	1	12
483.415	1	15
483.586	1	18
483.756	1	20
483.926	1	14
484.097	1	23
484.267	1	20
484.437	1	20
484.608	1	6
484.778	1	14
484.948	1	15
485.119	1	17
485.289	1	17
485.459	1	19
485.630	1	22
485.800	1	10
485.970	1	18
486.141	1	26
486.311	1	25
486.481	1	10
486.652	1	13
486.822	1	22
486.992	1	24
487.163	1	14
487.333	1	10
487.503	1	10
487.674	1	15
487.844	1	13
488.014	1	41
488.185	1	28
488.355	1	31
488.525	1	22
488.696	1	27
488.866	1	21
489.036	1	30
489.207	1	31
489.377	1	28
489.547	1	34
489.718	1	6
489.888	1	29
490.058	1	28
490.228	1	20
490.399	1	21
490.569	1	23
490.739	1	24
490.910	1	35
491.080	1	22
491.250	1	33
491.421	1	24
491.591	1	26
491.761	1	37
491.932	1	28
492.102	1	33
492.272	1	22
492.442	1	35
492.613	1	23
492.783	1	35
492.953	1	25
493.124	1	37
493.294	1	18
493.464	1	14
493.635	1	29
493.805	1	42
493.975	1	38
494.145	1	23
494.316	1	35
494.486	1	27
494.656	1	42
494.827	1	31
494.997	1	19
495.167	1	34
495.337	1	33
495.508	1	25
495.678	1	34
495.848	1	35
496.019	1	20
496.189	1	32
496.359	1	29
496.529	1	21
496.700	1	34
496.870	1	34
497.040	1	20
497.211	1	45
497.381	1	41
497.551	1	30
497.721	1	25
497.892	1	29
498.062	1	30
498.232	1	36
498.403	1	43
498.573	1	36
498.743	1	34
498.913	1	44
499.084	1	45
499.254	1	44
499.424	1	37
499.594	1	38
499.765	1	39
499.935	1	51
500.105	1	53
500.275	1	39
500.446	1	42
500.616	1	37
500.786	1	33
500.956	1	56
501.127	1	46
501.297	1	39
501.467	1	51
501.638	1	47
501.808	1	44
501.978	1	52
502.148	1	37
502.319	1	49
502.489	1	34
502.659	1	45
502.829	1	38
503.000	1	60
503.170	1	48
503.340	1	50
503.510	1	41
503.681	1	51
503.851	1	56
504.021	1	47
504.191	1	48
504.362	1	44
504.532	1	65
504.702	1	42
504.872	1	54
505.042	1	60
505.213	1	43
505.383	1	54
505.553	1	57
505.723	1	55
505.894	1	50
506.064	1	46
506.234	1	50
506.404	1	51
506.575	1	67
506.745	1	44
506.915	1	60
507.085	1	57
507.256	1	55
507.426	1	51
507.596	1	61
507.766	1	51
507.936	1	57
508.107	1	41
508.277	1	59
508.447	1	58
508.617	1	51
508.788	1	46
508.958	1	59
509.128	1	44
509.298	1	58
509.468	1	61
509.639	1	47
509.809	1	54
509.979	1	54
510.149	1	56
510.319	1	54
510.490	1	48
510.660	1	57
510.830	1	51
511.000	1	56
511.171	1	61
511.341	1	64
511.511	1	53
511.681	1	75
511.851	1	63
512.022	1	51
512.192	1	56
512.362	1	61
512.532	1	76
512.702	1	53
512.873	1	56
513.043	1	63
513.213	1	68
513.383	1	72
513.553	1	60
513.724	1	61
513.894	1	54
514.064	1	73
514.234	1	65
514.404	1	74
514.575	1	65
514.745	1	55
514.915	1	67
515.085	1	70
515.255	1	59
515.425	1	61
515.596	1	67
515.766	1	59
515.936	1	61
516.106	1	60
516.276	1	60
516.447	1	78
516.617	1	71
516.787	1	72
516.957	1	63
517.127	1	76
517.297	1	58
517.468	1	72
517.638	1	63
517.808	1	63
517.978	1	70
518.148	1	73
518.319	1	64
518.489	1	67
518.659	1	85
518.829	1	71
518.999	1	80
519.169	1	69
519.340	1	72
519.510	1	63
519.680	1	71
519.850	1	68
520.020	1	68
520.190	1	60
520.361	1	68
520.531	1	74
520.701	1	65
520.871	1	70
521.041	1	81
521.211	1	77
521.382	1	56
521.552	1	73
521.722	1	71
521.892	1	79
522.062	1	72
522.232	1	79
522.402	1	82
522.573	1	71
522.743	1	73
522.913	1	75
523.083	1	71
523.253	1	79
523.423	1	71
523.593	1	75
523.764	1	64
523.934	1	75
524.104	1	70
524.274	1	74
524.444	1	81
524.614	1	80
524.784	1	59
524.955	1	83
525.125	1	70
525.295	1	78
525.465	1	73
525.635	1	77
525.805	1	85
525.975	1	73
526.146	1	85
526.316	1	65
526.486	1	69
526.656	1	70
526.826	1	83
526.996	1	68
527.166	1	66
527.337	1	78
527.507	1	88
527.677	1	83
527.847	1	67
528.017	1	71
528.187	1	79
528.357	1	79
528.527	1	78
528.698	1	82
528.868	1	71
529.038	1	82
529.208	1	77
529.378	1	76
529.548	1	81
529.718	1	79
529.888	1	76
530.058	1	86
530.229	1	84
530.399	1	82
530.569	1	72
530.739	1	84
530.909	1	83
531.079	1	76
531.249	1	80
531.419	1	86
531.589	1	77
531.760	1	73
531.930	1	71
532.100	1	79
532.270	1	80
532.440	1	77
532.610	1	71
532.780	1	80
532.950	1	83
533.120	1	70
533.290	1	80
533.461	1	73
533.631	1	65
533.801	1	72
533.971	1	73
534.141	1	75
534.311	1	62
534.481	1	84
534.651	1	61
534.821	1	65
534.991	1	69
535.162	1	81
535.332	1	74
535.502	1	75
535.672	1	67
535.842	1	65
536.012	1	73
536.182	1	65
536.352	1	80
536.522	1	62
536.692	1	70
536.862	1	61
537.032	1	66
537.203	1	77
537.373	1	71
537.543	1	67
537.713	1	65
537.883	1	64
538.053	1	69
538.223	1	80
538.393	1	61
538.563	1	65
538.733	1	74
538.903	1	58
539.073	1	52
539.243	1	77
539.413	1	67
539.584	1	65
539.754	1	66
539.924	1	61
540.094	1	72
540.264	1	80
540.434	1	72
540.604	1	75
540.774	1	72
540.944	1	72
541.114	1	75
541.284	1	57
541.454	1	54
541.624	1	60
541.794	1	72
541.964	1	64
542.134	1	79
542.305	1	77
542.475	1	73
542.645	1	61
542.815	1	68
542.985	1	65
543.155	1	65
543.325	1	77
543.495	1	69
543.665	1	58
543.835	1	60
544.005	1	67
544.175	1	59
544.345	1	70
544.515	1	59
544.685	1	66
544.855	1	66
545.025	1	73
545.195	1	64
545.365	1	68
545.535	1	66
545.705	1	74
545.875	1	60
546.045	1	67
546.216	1	68
546.386	1	58
546.556	1	67
546.726	1	67
546.896	1	71
547.066	1	63
547.236	1	65
547.406	1	63
547.576	1	61
547.746	1	62
547.916	1	66
548.086	1	65
548.256	1	58
548.426	1	57
548.596	1	76
548.766	1	76
548.936	1	66
549.106	1	60
549.276	1	54
549.446	1	62
549.616	1	73
549.786	1	73
549.956	1	64
550.126	1	64
550.296	1	66
550.466	1	66
550.636	1	49
550.806	1	79
550.976	1	64
551.146	1	65
551.316	1	70
551.486	1	62
551.656	1	69
551.826	1	54
551.996	1	58
552.166	1	55
552.336	1	70
552.506	1	63
552.676	1	68
552.846	1	70
553.016	1	61
553.186	1	53
553.356	1	59
553.526	1	67
553.696	1	56
553.866	1	51
554.036	1	61
554.206	1	70
554.376	1	68
554.546	1	69
554.716	1	52
554.886	1	55
555.056	1	51
555.226	1	60
555.396	1	62
555.566	1	59
555.736	1	53
555.906	1	60
556.076	1	47
556.246	1	51
556.416	1	60
556.586	1	50
556.756	1	49
556.926	1	43
557.096	1	67
557.266	1	56
557.436	1	55
557.606	1	39
557.776	1	49
557.946	1	45
558.116	1	62
558.286	1	43
558.456	1	46
558.626	1	57
558.796	1	59
558.966	1	42
559.136	1	48
559.306	1	48
559.476	1	52
559.646	1	51
559.816	1	39
559.986	1	48
560.155	1	61
560.325	1	48
560.495	1	52
560.665	1	50
560.835	1	37
561.005	1	52
561.175	1	53
561.345	1	42
561.515	1	61
561.685	1	49
561.855	1	48
562.025	1	58
562.195	1	45
562.365	1	42
562.535	1	43
562.705	1	59
562.875	1	44
563.045	1	50
563.215	1	53
563.385	1	47
563.555	1	44
563.725	1	42
563.895	1	58
564.064	1	42
564.234	1	41
564.404	1	42
564.574	1	41
564.744	1	48
564.914	1	52
565.084	1	56
565.254	1	47
565.424	1	46
565.594	1	45
565.764	1	42
565.934	1	52
566.104	1	55
566.274	1	47
566.444	1	55
566.614	1	44
566.783	1	43
566.953	1	56
567.123	1	37
567.293	1	29
567.463	1	40
567.633	1	44
567.803	1	49
567.973	1	39
568.143	1	41
568.313	1	49
568.483	1	50
568.653	1	36
568.823	1	46
568.993	1	51
569.162	1	36
569.332	1	34
569.502	1	50
569.672	1	50
569.842	1	43
570.012	1	24
570.182	1	36
570.352	1	52
570.522	1	29
570.692	1	46
570.862	1	30
571.031	1	47
571.201	1	46
571.371	1	34
571.541	1	35
571.711	1	46
571.881	1	29
572.051	1	41
572.221	1	37
572.391	1	38
572.561	1	38
572.731	1	37
572.900	1	44
573.070	1	32
573.240	1	28
573.410	1	40
573.580	1	35
573.750	1	44
573.920	1	50
574.090	1	31
574.260	1	41
574.430	1	31
574.599	1	33
574.769	1	37
574.939	1	33
575.109	1	43
575.279	1	32
575.449	1	39
575.619	1	29
575.789	1	30
575.959	1	38
576.128	1	41
576.298	1	28
576.468	1	34
576.638	1	45
576.808	1	26
576.978	1	40
577.148	1	32
577.318	1	34
577.487	1	27
577.657	1	28
577.827	1	28
577.997	1	37
578.167	1	38
578.337	1	30
578.507	1	38
578.677	1	37
578.846	1	28
579.016	1	30
579.186	1	43
579.356	1	43
579.526	1	27
579.696	1	43
579.866	1	34
580.036	1	34
580.205	1	34
580.375	1	29
580.545	1	28
580.715	1	29
580.885	1	36
581.055	1	33
581.225	1	32
581.394	1	36
581.564	1	29
581.734	1	31
581.904	1	37
582.074	1	32
582.244	1	26
582.414	1	29
582.583	1	33
582.753	1	36
582.923	1	27
583.093	1	35
583.263	1	31
583.433	1	44
583.603	1	32
583.772	1	28
583.942	1	22
584.112	1	35
584.282	1	29
584.452	1	29
584.622	1	27
584.791	1	33
584.961	1	27
585.131	1	28
585.301	1	22
585.471	1	24
585.641	1	19
585.811	1	14
585.980	1	23
586.150	1	37
586.320	1	26
586.490	1	38
586.660	1	28
586.830	1	24
586.999	1	31
587.169	1	26
587.339	1	17
587.509	1	35
587.679	1	23
587.849	1	26
588.018	1	21
588.188	1	25
588.358	1	42
588.528	1	9
588.698	1	26
588.867	1	28
589.037	1	22
589.207	1	24
589.377	1	31
589.547	1	31
589.717	1	34
589.886	1	38
590.056	1	22
590.226	1	19
590.396	1	32
590.566	1	16
590.735	1	28
590.905	1	23
591.075	1	26
591.245	1	26
591.415	1	15
591.585	1	20
591.754	1	28
591.924	1	18
592.094	1	21
592.264	1	29
592.434	1	16
592.603	1	11
592.773	1	32
592.943	1	21
593.113	1	13
593.283	1	18
593.452	1	21
593.622	1	28
593.792	1	10
593.962	1	25
594.132	1	33
594.301	1	23
594.471	1	7
594.641	1	26
594.811	1	11
594.981	1	16
595.150	1	10
595.320	1	23
595.490	1	13
595.660	1	27
595.829	1	12
595.999	1	21
596.169	1	13
596.339	1	17
596.509	1	20
596.678	1	13
596.848	1	25
597.018	1	19
597.188	1	24
597.358	1	22
597.527	1	19
597.697	1	13
597.867	1	16
598.037	1	18
598.206	1	19
598.376	1	9
598.546	1	20
598.716	1	29
598.885	1	26
599.055	1	20
599.225	1	22
599.395	1	11
599.565	1	21
599.734	1	22
599.904	1	21
600.074	1	18
600.244	1	13
600.413	1	16
600.583	1	19
600.753	1	27
600.923	1	16
601.092	1	17
601.262	1	11
601.432	1	3
601.602	1	24
601.771	1	19
601.941	1	26
602.111	1	13
602.281	1	25
602.451	1	15
602.620	1	12
602.790	1	24
602.960	1	1
603.130	1	15
603.299	1	23
603.469	1	17
603.639	1	23
603.809	1	24
603.978	1	23
604.148	1	9
604.318	1	20
604.487	1	13
604.657	1	18
604.827	1	18
604.997	1	19
605.166	1	18
605.336	1	28
605.506	1	13
605.676	1	7
605.845	1	27
606.015	1	12
606.185	1	14
606.355	1	3
606.524	1	13
606.694	1	19
606.864	1	26
607.034	1	8
607.203	1	26
607.373	1	14
607.543	1	29
607.712	1	7
607.882	1	25
608.052	1	9
608.222	1	14
608.391	1	11
608.561	1	19
608.731	1	14
608.901	1	15
609.070	1	27
609.240	1	19
609.410	1	23
609.579	1	10
609.749	1	13
609.919	1	6
610.089	1	25
610.258	1	24
610.428	1	21
610.598	1	6
610.767	1	27
610.937	1	25
611.107	1	23
611.277	1	25
611.446	1	28
611.616	1	19
611.786	1	12
611.955	1	11
612.125	1	16
612.295	1	19
612.465	1	10
612.634	1	19
612.804	1	14
612.974	1	8
613.143	1	6
613.313	1	17
613.483	1	18
613.652	1	20
613.822	1	24
613.992	1	16
614.162	1	22
614.331	1	26
614.501	1	14
614.671	1	13
614.840	1	20
615.010	1	23
615.180	1	10
615.349	1	19
615.519	1	5
615.689	1	15
615.858	1	10
616.028	1	25
616.198	1	25
616.368	1	21
616.537	1	9
616.707	1	18
616.877	1	9
617.046	1	12
617.216	1	11
617.386	1	17
617.555	1	17
617.725	1	14
617.895	1	20
618.064	1	20
618.234	1	8
618.404	1	22
618.573	1	9
618.743	1	18
618.913	1	18
619.082	1	15
619.252	1	11
619.422	1	22
619.591	1	17
619.761	1	9
619.931	1	29
620.100	1	11
620.270	1	15
620.440	1	14
620.609	1	20
620.779	1	6
620.949	1	24
621.118	1	24
621.288	1	18
621.458	1	25
621.627	1	15
621.797	1	9
621.967	1	21
622.136	1	4
622.306	1	16
622.476	1	7
622.645	1	17
622.815	1	14
622.985	1	7
623.154	1	13
623.324	1	16
623.494	1	3
623.663	1	9
623.833	1	25
624.002	1	13
624.172	1	6
624.342	1	27
624.511	1	3
624.681	1	16
624.851	1	12
625.020	1	7
625.190	1	18
625.360	1	9
625.529	1	-4
625.699	1	14
625.869	1	24
626.038	1	22
626.208	1	10
626.377	1	22
626.547	1	12
626.717	1	8
626.886	1	11
627.056	1	10
627.226	1	16
627.395	1	2
627.565	1	22
627.735	1	14
627.904	1	12
628.074	1	18
628.243	1	21
628.413	1	13
628.583	1	23
628.752	1	-1
628.922	1	16
629.091	1	15
629.261	1	12
629.431	1	10
629.600	1	2
629.770	1	19
629.940	1	14
630.109	1	4
630.279	1	19
630.448	1	14
630.618	1	23
630.788	1	5
630.957	1	13
631.127	1	11
631.297	1	16
631.466	1	5
631.636	1	16
631.805	1	25
631.975	1	7
632.145	1	7
632.314	1	13
632.484	1	21
632.653	1	2
632.823	1	6
632.993	1	9
633.162	1	6
633.332	1	14
633.501	1	5
633.671	1	21
633.841	1	17
634.010	1	11
634.180	1	4
634.349	1	26
634.519	1	4
634.689	1	5
634.858	1	13
635.028	1	8
635.197	1	12
635.367	1	15
635.537	1	15
635.706	1	18
635.876	1	13
636.045	1	0
636.215	1	5
636.384	1	17
636.554	1	5
636.724	1	9
636.893	1	17
637.063	1	3
637.232	1	7
637.402	1	21
637.572	1	22
637.741	1	10
637.911	1	13
638.080	1	8
638.250	1	7
638.419	1	6
638.589	1	15
638.759	1	10
638.928	1	15
639.098	1	9
639.267	1	17
639.437	1	9
639.606	1	20
639.776	1	21
639.946	1	8
640.115	1	7
640.285	1	3
640.454	1	15
640.624	1	15
640.793	1	8
640.963	1	8
641.132	1	15
641.302	1	17
641.472	1	29
641.641	1	17
641.811	1	12
641.980	1	14
642.150	1	3
642.319	1	16
642.489	1	19
642.659	1	12
642.828	1	22
642.998	1	9
643.167	1	12
643.337	1	16
643.506	1	14
643.676	1	16
643.845	1	14
644.015	1	15
644.184	1	18
644.354	1	15
644.524	1	5
644.693	1	11
644.863	1	9
645.032	1	10
645.202	1	9
645.371	1	10
645.541	1	14
645.710	1	15
645.880	1	9
646.049	1	8
646.219	1	14
646.388	1	12
646.558	1	2
646.728	1	20
646.897	1	-2
647.067	1	27
647.236	1	7
647.406	1	11
647.575	1	19
647.745	1	-2
647.914	1	10
648.084	1	3
648.253	1	16
648.423	1	18
648.592	1	15
648.762	1	11
648.931	1	18
649.101	1	11
649.270	1	26
649.440	1	24
649.610	1	11
649.779	1	4
649.949	1	8
650.118	1	18
650.288	1	12
650.457	1	12
650.627	1	14
650.796	1	7
650.966	1	18
651.135	1	8
651.305	1	6
651.474	1	14
651.644	1	8
651.813	1	12
651.983	1	8
652.152	1	12
652.322	1	9
652.491	1	13
652.661	1	12
652.830	1	9
653.000	1	10
653.169	1	2
653.339	1	5
653.508	1	2
653.678	1	16
653.847	1	15
654.017	1	9
654.186	1	14
654.356	1	11
654.525	1	10
654.695	1	27
654.864	1	15
655.034	1	7
655.203	1	10
655.373	1	16
655.542	1	13
655.712	1	21
655.881	1	10
656.051	1	5
656.220	1	14
656.390	1	10
656.559	1	12
656.729	1	18
656.898	1	13
657.068	1	7
657.237	1	9
657.406	1	8
657.576	1	8
657.745	1	19
657.915	1	14
658.084	1	6
658.254	1	17
658.423	1	16
658.593	1	8
658.762	1	4
658.932	1	10
659.101	1	5
659.271	1	11
659.440	1	11
659.610	1	19
659.779	1	15
659.949	1	-2
660.118	1	8
660.288	1	-6
660.457	1	11
660.626	1	2
660.796	1	15
660.965	1	10
661.135	1	24
661.304	1	22
661.474	1	17
661.643	1	8
661.813	1	12
661.982	1	15
662.152	1	15
662.321	1	9
662.491	1	-2
662.660	1	14
662.829	1	7
662.999	1	19
663.168	1	9
663.338	1	0
663.507	1	13
663.677	1	15
663.846	1	7
664.016	1	7
664.185	1	8
664.354	1	10
664.524	1	20
664.693	1	4
664.863	1	10
665.032	1	12
665.202	1	15
665.371	1	24
665.541	1	9
665.710	1	17
665.879	1	12
666.049	1	8
666.218	1	14
666.388	1	10
666.557	1	8
666.727	1	15
666.896	1	1
667.065	1	13
667.235	1	4
667.404	1	8
667.574	1	4
667.743	1	6
667.913	1	7
668.082	1	11
668.251	1	0
668.421	1	18
668.590	1	7
668.760	1	1
668.929	1	9
669.099	1	17
669.268	1	6
669.437	1	1
669.607	1	-6
669.776	1	8
669.946	1	10
670.115	1	10
670.285	1	-3
670.454	1	19
670.623	1	5
670.793	1	13
670.962	1	4
671.132	1	3
671.301	1	3
671.470	1	7
671.640	1	15
671.809	1	9
671.979	1	9
672.148	1	22
672.317	1	11
672.487	1	6
672.656	1	23
672.826	1	12
672.995	1	1
673.164	1	4
673.334	1	4
673.503	1	18
673.673	1	13
673.842	1	8
674.011	1	9
674.181	1	16
674.350	1	4
674.520	1	12
674.689	1	1
674.858	1	9
675.028	1	19
675.197	1	16
675.367	1	15
675.536	1	0
675.705	1	6
675.875	1	12
676.044	1	7
676.214	1	15
676.383	1	3
676.552	1	3
676.722	1	11
676.891	1	8
677.060	1	13
677.230	1	14
677.399	1	15
677.569	1	22
677.738	1	1
677.907	1	17
678.077	1	11
678.246	1	11
678.416	1	8
678.585	1	6
678.754	1	8
678.924	1	7
679.093	1	14
679.262	1	5
679.432	1	0
679.601	1	14
679.771	1	11
679.940	1	7
680.109	1	16
680.279	1	11
680.448	1	8
680.617	1	11
680.787	1	-2
680.956	1	10
681.125	1	10
681.295	1	5
681.464	1	12
681.634	1	13
681.803	1	10
681.972	1	16
682.142	1	4
682.311	1	18
682.480	1	3
682.650	1	2
682.819	1	10
682.988	1	14
683.158	1	1
683.327	1	14
683.496	1	5
683.666	1	16
683.835	1	9
684.004	1	-1
684.174	1	9
684.343	1	7
684.512	1	14
684.682	1	10
684.851	1	6
685.021	1	24
685.190	1	4
685.359	1	17
685.529	1	9
685.698	1	4
685.867	1	15
686.037	1	9
686.206	1	-1
686.375	1	10
686.545	1	9
686.714	1	14
686.883	1	14
687.053	1	27
687.222	1	11
687.391	1	11
687.561	1	9
687.730	1	21
687.899	1	19
688.069	1	22
688.238	1	24
688.407	1	14
688.577	1	9
688.746	1	18
