340.368	1	3
340.539	1	10
340.710	1	3
340.881	1	9
341.052	1	9
341.223	1	11
341.394	1	0
341.565	1	10
341.737	1	3
341.908	1	8
342.079	1	6
342.250	1	5
342.421	1	7
342.592	1	6
342.763	1	8
342.934	1	6
343.105	1	4
343.276	1	6
343.447	1	12
343.618	1	10
343.789	1	4
343.960	1	3
344.131	1	-6
344.302	1	18
344.473	1	2
344.644	1	2
344.815	1	9
344.986	1	14
345.157	1	9
345.328	1	1
345.499	1	5
345.670	1	1
345.841	1	2
346.012	1	2
346.183	1	-1
346.354	1	4
346.526	1	13
346.697	1	9
346.868	1	-1
347.039	1	12
347.210	1	-1
347.381	1	14
347.552	1	3
347.723	1	11
347.894	1	-4
348.065	1	9
348.236	1	-2
348.407	1	10
348.578	1	9
348.749	1	19
348.920	1	2
349.091	1	13
349.262	1	5
349.433	1	0
349.604	1	-3
349.775	1	7
349.946	1	10
350.117	1	11
350.288	1	-5
350.459	1	3
350.630	1	10
350.801	1	6
350.972	1	12
351.143	1	10
351.314	1	7
351.485	1	4
351.656	1	13
351.827	1	15
351.998	1	6
352.169	1	11
352.340	1	12
352.511	1	7
352.682	1	-11
352.853	1	2
353.024	1	16
353.195	1	2
353.366	1	7
353.537	1	-2
353.708	1	2
353.879	1	15
354.050	1	3
354.221	1	-4
354.392	1	-7
354.563	1	17
354.734	1	0
354.905	1	8
355.076	1	8
355.247	1	-1
355.418	1	9
355.589	1	8
355.760	1	12
355.931	1	12
356.102	1	14
356.273	1	12
356.444	1	7
356.615	1	16
356.785	1	2
356.956	1	10
357.127	1	10
357.298	1	4
357.469	1	4
357.640	1	5
357.811	1	12
357.982	1	20
358.153	1	-8
358.324	1	7
358.495	1	5
358.666	1	4
358.837	1	7
359.008	1	7
359.179	1	16
359.350	1	8
359.521	1	16
359.692	1	10
359.863	1	8
360.034	1	-2
360.205	1	12
360.376	1	5
360.547	1	11
360.718	1	13
360.889	1	11
361.060	1	23
361.231	1	15
361.401	1	4
361.572	1	20
361.743	1	5
361.914	1	12
362.085	1	11
362.256	1	10
362.427	1	11
362.598	1	19
362.769	1	13
362.940	1	14
363.111	1	13
363.282	1	7
363.453	1	16
363.624	1	10
363.795	1	12
363.966	1	11
364.137	1	21
364.308	1	28
364.478	1	29
364.649	1	16
364.820	1	35
364.991	1	20
365.162	1	27
365.333	1	18
365.504	1	13
365.675	1	40
365.846	1	18
366.017	1	28
366.188	1	23
366.359	1	25
366.530	1	15
366.701	1	33
366.871	1	34
367.042	1	41
367.213	1	46
367.384	1	25
367.555	1	37
367.726	1	36
367.897	1	40
368.068	1	43
368.239	1	42
368.410	1	44
368.581	1	39
368.752	1	43
368.923	1	30
369.093	1	38
369.264	1	38
369.435	1	37
369.606	1	26
369.777	1	40
369.948	1	37
370.119	1	51
370.290	1	30
370.461	1	23
370.632	1	29
370.803	1	31
370.973	1	21
371.144	1	33
371.315	1	42
371.486	1	30
371.657	1	33
371.828	1	31
371.999	1	14
372.170	1	41
372.341	1	23
372.512	1	18
372.682	1	23
372.853	1	24
373.024	1	15
373.195	1	22
373.366	1	26
373.537	1	15
373.708	1	23
373.879	1	25
374.050	1	23
374.220	1	16
374.391	1	22
374.562	1	28
374.733	1	17
374.904	1	24
375.075	1	11
375.246	1	21
375.417	1	7
375.588	1	19
375.758	1	20
375.929	1	17
376.100	1	18
376.271	1	10
376.442	1	9
376.613	1	10
376.784	1	12
376.955	1	16
377.125	1	13
377.296	1	13
377.467	1	24
377.638	1	13
377.809	1	2
377.980	1	12
378.151	1	8
378.321	1	17
378.492	1	4
378.663	1	18
378.834	1	17
379.005	1	16
379.176	1	3
379.347	1	12
379.518	1	3
379.688	1	18
379.859	1	0
380.030	1	16
380.201	1	17
380.372	1	22
380.543	1	5
380.714	1	18
380.884	1	11
381.055	1	0
381.226	1	3
381.397	1	5
381.568	1	5
381.739	1	1
381.910	1	14
382.080	1	15
382.251	1	-8
382.422	1	5
382.593	1	9
382.764	1	10
382.935	1	7
383.105	1	0
383.276	1	6
383.447	1	6
383.618	1	7
383.789	1	6
383.960	1	10
384.130	1	12
384.301	1	0
384.472	1	2
384.643	1	8
384.814	1	12
384.985	1	-3
385.156	1	19
385.326	1	2
385.497	1	11
385.668	1	11
385.839	1	11
386.010	1	-2
386.180	1	0
386.351	1	3
386.522	1	16
386.693	1	1
386.864	1	-4
387.035	1	3
387.205	1	13
387.376	1	3
387.547	1	13
387.718	1	5
387.889	1	6
388.060	1	13
388.230	1	6
388.401	1	1
388.572	1	1
388.743	1	3
388.914	1	13
389.084	1	12
389.255	1	8
389.426	1	0
389.597	1	5
389.768	1	3
389.939	1	10
390.109	1	6
390.280	1	9
390.451	1	11
390.622	1	-6
390.793	1	9
390.963	1	-1
391.134	1	18
391.305	1	-2
391.476	1	13
391.647	1	12
391.817	1	-5
391.988	1	3
392.159	1	4
392.330	1	0
392.501	1	1
392.671	1	7
392.842	1	-9
393.013	1	15
393.184	1	5
393.355	1	14
393.525	1	0
393.696	1	7
393.867	1	6
394.038	1	13
394.208	1	-2
394.379	1	14
394.550	1	17
394.721	1	9
394.892	1	20
395.062	1	-3
395.233	1	14
395.404	1	3
395.575	1	16
395.746	1	-15
395.916	1	12
396.087	1	7
396.258	1	14
396.429	1	2
396.599	1	11
396.770	1	0
396.941	1	2
397.112	1	11
397.283	1	9
397.453	1	7
397.624	1	14
397.795	1	0
397.966	1	15
398.136	1	6
398.307	1	7
398.478	1	-3
398.649	1	11
398.819	1	14
398.990	1	14
399.161	1	4
399.332	1	14
399.503	1	18
399.673	1	6
399.844	1	-5
400.015	1	-1
400.186	1	10
400.356	1	-2
400.527	1	11
400.698	1	14
400.869	1	3
401.039	1	0
401.210	1	14
401.381	1	6
401.552	1	5
401.722	1	8
401.893	1	10
402.064	1	17
402.235	1	19
402.405	1	1
402.576	1	18
402.747	1	7
402.918	1	2
403.088	1	5
403.259	1	7
403.430	1	3
403.601	1	5
403.771	1	1
403.942	1	2
404.113	1	14
404.284	1	12
404.454	1	2
404.625	1	7
404.796	1	13
404.967	1	15
405.137	1	16
405.308	1	-1
405.479	1	9
405.649	1	4
405.820	1	-2
405.991	1	8
406.162	1	1
406.332	1	1
406.503	1	-3
406.674	1	3
406.845	1	9
407.015	1	8
407.186	1	-2
407.357	1	19
407.527	1	5
407.698	1	17
407.869	1	3
408.040	1	17
408.210	1	11
408.381	1	2
408.552	1	5
408.722	1	12
408.893	1	2
409.064	1	19
409.235	1	-3
409.405	1	10
409.576	1	13
409.747	1	-1
409.917	1	19
410.088	1	17
410.259	1	0
410.430	1	14
410.600	1	12
410.771	1	14
410.942	1	12
411.112	1	12
411.283	1	13
411.454	1	4
411.625	1	5
411.795	1	13
411.966	1	3
412.137	1	2
412.307	1	7
412.478	1	9
412.649	1	11
412.819	1	20
412.990	1	8
413.161	1	11
413.332	1	12
413.502	1	11
413.673	1	4
413.844	1	20
414.014	1	4
414.185	1	10
414.356	1	7
414.526	1	-2
414.697	1	20
414.868	1	6
415.038	1	6
415.209	1	1
415.380	1	8
415.550	1	12
415.721	1	5
415.892	1	14
416.063	1	17
416.233	1	10
416.404	1	9
416.575	1	1
416.745	1	4
416.916	1	3
417.087	1	8
417.257	1	5
417.428	1	11
417.599	1	10
417.769	1	4
417.940	1	4
418.111	1	10
418.281	1	12
418.452	1	16
418.623	1	2
418.793	1	1
418.964	1	9
419.135	1	12
419.305	1	7
419.476	1	12
419.647	1	12
419.817	1	6
419.988	1	14
420.159	1	11
420.329	1	11
420.500	1	7
420.671	1	7
420.841	1	6
421.012	1	2
421.183	1	13
421.353	1	19
421.524	1	4
421.695	1	14
421.865	1	7
422.036	1	23
422.206	1	13
422.377	1	7
422.548	1	15
422.718	1	16
422.889	1	4
423.060	1	21
423.230	1	17
423.401	1	13
423.572	1	7
423.742	1	20
423.913	1	0
424.084	1	13
424.254	1	15
424.425	1	11
424.595	1	16
424.766	1	8
424.937	1	11
425.107	1	2
425.278	1	13
425.449	1	8
425.619	1	9
425.790	1	3
425.961	1	17
426.131	1	12
426.302	1	8
426.472	1	19
426.643	1	9
426.814	1	9
426.984	1	1
427.155	1	13
427.326	1	17
427.496	1	12
427.667	1	10
427.837	1	11
428.008	1	19
428.179	1	23
428.349	1	4
428.520	1	13
428.691	1	20
428.861	1	7
429.032	1	6
429.202	1	2
429.373	1	16
429.544	1	7
429.714	1	15
429.885	1	6
430.055	1	6
430.226	1	-1
430.397	1	8
430.567	1	0
430.738	1	4
430.909	1	7
431.079	1	9
431.250	1	7
431.420	1	7
431.591	1	14
431.762	1	9
431.932	1	5
432.103	1	6
432.273	1	16
432.444	1	6
432.615	1	5
432.785	1	10
432.956	1	5
433.126	1	-1
433.297	1	14
433.468	1	7
433.638	1	13
433.809	1	4
433.979	1	12
434.150	1	6
434.320	1	-1
434.491	1	19
434.662	1	9
434.832	1	5
435.003	1	14
435.173	1	9
435.344	1	11
435.515	1	3
435.685	1	4
435.856	1	9
436.026	1	10
436.197	1	-6
436.368	1	0
436.538	1	6
436.709	1	3
436.879	1	2
437.050	1	3
437.220	1	9
437.391	1	4
437.562	1	14
437.732	1	10
437.903	1	10
438.073	1	4
438.244	1	9
438.414	1	9
438.585	1	11
438.756	1	-2
438.926	1	1
439.097	1	10
439.267	1	0
439.438	1	12
439.608	1	-1
439.779	1	6
439.949	1	7
440.120	1	5
440.291	1	10
440.461	1	3
440.632	1	5
440.802	1	12
440.973	1	16
441.143	1	5
441.314	1	8
441.485	1	4
441.655	1	17
441.826	1	8
441.996	1	7
442.167	1	6
442.337	1	8
442.508	1	3
442.678	1	8
442.849	1	7
443.019	1	10
443.190	1	13
443.361	1	15
443.531	1	15
443.702	1	14
443.872	1	4
444.043	1	14
444.213	1	-5
444.384	1	15
444.554	1	11
444.725	1	16
444.895	1	5
445.066	1	1
445.237	1	3
445.407	1	0
445.578	1	-6
445.748	1	11
445.919	1	-6
446.089	1	11
446.260	1	13
446.430	1	7
446.601	1	16
446.771	1	3
446.942	1	4
447.112	1	12
447.283	1	15
447.453	1	1
447.624	1	-2
447.794	1	0
447.965	1	9
448.135	1	16
448.306	1	8
448.477	1	12
448.647	1	12
448.818	1	7
448.988	1	1
449.159	1	4
449.329	1	16
449.500	1	7
449.670	1	10
449.841	1	5
450.011	1	8
450.182	1	4
450.352	1	-5
450.523	1	6
450.693	1	13
450.864	1	8
451.034	1	7
451.205	1	11
451.375	1	-1
451.546	1	5
451.716	1	10
451.887	1	15
452.057	1	7
452.228	1	20
452.398	1	11
452.569	1	9
452.739	1	5
452.910	1	-2
453.080	1	6
453.251	1	-4
453.421	1	8
453.592	1	0
453.762	1	15
453.933	1	-1
454.103	1	1
454.274	1	5
454.444	1	-4
454.615	1	0
454.785	1	2
454.956	1	11
455.126	1	2
455.297	1	-1
455.467	1	1
455.638	1	8
455.808	1	7
455.979	1	9
456.149	1	2
456.320	1	7
456.490	1	-6
456.661	1	5
456.831	1	8
457.001	1	9
457.172	1	6
457.342	1	1
457.513	1	1
457.683	1	2
457.854	1	11
458.024	1	9
458.195	1	14
458.365	1	11
458.536	1	10
458.706	1	8
458.877	1	5
459.047	1	7
459.218	1	14
459.388	1	8
459.559	1	7
459.729	1	1
459.899	1	3
460.070	1	7
460.240	1	-4
460.411	1	11
460.581	1	0
460.752	1	2
460.922	1	4
461.093	1	3
461.263	1	15
461.434	1	-1
461.604	1	6
461.775	1	12
461.945	1	14
462.115	1	5
462.286	1	-2
462.456	1	-4
462.627	1	5
462.797	1	12
462.968	1	16
463.138	1	-7
463.309	1	-1
463.479	1	1
463.649	1	2
463.820	1	9
463.990	1	5
464.161	1	-6
464.331	1	10
464.502	1	4
464.672	1	3
464.843	1	9
465.013	1	12
465.183	1	-13
465.354	1	17
465.524	1	5
465.695	1	17
465.865	1	12
466.036	1	12
466.206	1	-5
466.376	1	15
466.547	1	5
466.717	1	-5
466.888	1	0
467.058	1	7
467.229	1	11
467.399	1	-6
467.569	1	5
467.740	1	14
467.910	1	4
468.081	1	12
468.251	1	-4
468.422	1	7
468.592	1	2
468.762	1	10
468.933	1	8
469.103	1	9
469.274	1	-2
469.444	1	6
469.614	1	-2
469.785	1	-1
469.955	1	6
470.126	1	-3
470.296	1	3
470.467	1	7
470.637	1	3
470.807	1	12
470.978	1	0
471.148	1	-1
471.319	1	8
471.489	1	16
471.659	1	8
471.830	1	-1
472.000	1	-1
472.171	1	13
472.341	1	3
472.511	1	12
472.682	1	6
472.852	1	12
473.023	1	0
473.193	1	-1
473.363	1	5
473.534	1	4
473.704	1	3
473.875	1	3
474.045	1	0
474.215	1	8
474.386	1	5
474.556	1	4
474.727	1	-8
474.897	1	-7
475.067	1	-4
475.238	1	12
475.408	1	2
475.578	1	-5
475.749	1	-4
475.919	1	-1
476.090	1	2
476.260	1	0
476.430	1	-9
476.601	1	1
476.771	1	9
476.942	1	-1
477.112	1	14
477.282	1	-10
477.453	1	4
477.623	1	2
477.793	1	-2
477.964	1	5
478.134	1	10
478.305	1	6
478.475	1	2
478.645	1	7
478.816	1	1
478.986	1	8
479.156	1	4
479.327	1	10
479.497	1	4
479.667	1	1
479.838	1	4
480.008	1	5
480.179	1	15
480.349	1	1
480.519	1	2
480.690	1	6
480.860	1	10
481.030	1	3
481.201	1	1
481.371	1	-5
481.541	1	-6
481.712	1	12
481.882	1	7
482.053	1	18
482.223	1	9
482.393	1	1
482.564	1	5
482.734	1	16
482.904	1	4
483.075	1	5
483.245	1	1
483.415	1	6
483.586	1	2
483.756	1	4
483.926	1	-5
484.097	1	12
484.267	1	2
484.437	1	8
484.608	1	9
484.778	1	9
484.948	1	10
485.119	1	5
485.289	1	4
485.459	1	4
485.630	1	2
485.800	1	0
485.970	1	1
486.141	1	1
486.311	1	7
486.481	1	-6
486.652	1	-3
486.822	1	18
486.992	1	13
487.163	1	0
487.333	1	-8
487.503	1	-5
487.674	1	-3
487.844	1	0
488.014	1	0
488.185	1	4
488.355	1	6
488.525	1	-2
488.696	1	11
488.866	1	4
489.036	1	8
489.207	1	13
489.377	1	3
489.547	1	10
489.718	1	2
489.888	1	5
490.058	1	9
490.228	1	6
490.399	1	12
490.569	1	5
490.739	1	4
490.910	1	15
491.080	1	4
491.250	1	4
491.421	1	3
491.591	1	4
491.761	1	5
491.932	1	5
492.102	1	8
492.272	1	-11
492.442	1	15
492.613	1	1
492.783	1	17
492.953	1	14
493.124	1	17
493.294	1	-5
493.464	1	1
493.635	1	9
493.805	1	14
493.975	1	16
494.145	1	1
494.316	1	6
494.486	1	8
494.656	1	13
494.827	1	-2
494.997	1	5
495.167	1	4
495.337	1	1
495.508	1	11
495.678	1	8
495.848	1	2
496.019	1	2
496.189	1	3
496.359	1	0
496.529	1	5
496.700	1	6
496.870	1	12
497.040	1	-1
497.211	1	0
497.381	1	6
497.551	1	8
497.721	1	5
497.892	1	4
498.062	1	7
498.232	1	5
498.403	1	10
498.573	1	-4
498.743	1	14
498.913	1	10
499.084	1	16
499.254	1	-6
499.424	1	1
499.594	1	9
499.765	1	11
499.935	1	23
500.105	1	14
500.275	1	0
500.446	1	7
500.616	1	-3
500.786	1	1
500.956	1	15
501.127	1	11
501.297	1	-3
501.467	1	16
501.638	1	8
501.808	1	9
501.978	1	-1
502.148	1	7
502.319	1	1
502.489	1	5
502.659	1	21
502.829	1	6
503.000	1	3
503.170	1	7
503.340	1	-1
503.510	1	4
503.681	1	9
503.851	1	6
504.021	1	5
504.191	1	6
504.362	1	-2
504.532	1	15
504.702	1	0
504.872	1	-1
505.042	1	2
505.213	1	5
505.383	1	16
505.553	1	9
505.723	1	10
505.894	1	12
506.064	1	5
506.234	1	9
506.404	1	7
506.575	1	18
506.745	1	8
506.915	1	11
507.085	1	8
507.256	1	12
507.426	1	14
507.596	1	8
507.766	1	10
507.936	1	13
508.107	1	4
508.277	1	13
508.447	1	10
508.617	1	13
508.788	1	8
508.958	1	9
509.128	1	16
509.298	1	0
509.468	1	10
509.639	1	-7
509.809	1	-1
509.979	1	8
510.149	1	11
510.319	1	7
510.490	1	5
510.660	1	9
510.830	1	-6
511.000	1	5
511.171	1	8
511.341	1	12
511.511	1	3
511.681	1	17
511.851	1	15
512.022	1	2
512.192	1	8
512.362	1	12
512.532	1	19
512.702	1	8
512.873	1	7
513.043	1	7
513.213	1	8
513.383	1	13
513.553	1	14
513.724	1	7
513.894	1	3
514.064	1	10
514.234	1	11
514.404	1	16
514.575	1	5
514.745	1	5
514.915	1	16
515.085	1	8
515.255	1	1
515.425	1	17
515.596	1	15
515.766	1	5
515.936	1	5
516.106	1	2
516.276	1	6
516.447	1	14
516.617	1	10
516.787	1	5
516.957	1	13
517.127	1	15
517.297	1	9
517.468	1	18
517.638	1	5
517.808	1	3
517.978	1	11
518.148	1	16
518.319	1	0
518.489	1	4
518.659	1	15
518.829	1	11
518.999	1	9
519.169	1	2
519.340	1	14
519.510	1	4
519.680	1	9
519.850	1	0
520.020	1	11
520.190	1	7
520.361	1	9
520.531	1	13
520.701	1	6
520.871	1	12
521.041	1	15
521.211	1	21
521.382	1	8
521.552	1	-1
521.722	1	8
521.892	1	18
522.062	1	11
522.232	1	7
522.402	1	19
522.573	1	7
522.743	1	6
522.913	1	12
523.083	1	6
523.253	1	16
523.423	1	14
523.593	1	6
523.764	1	7
523.934	1	12
524.104	1	3
524.274	1	11
524.444	1	14
524.614	1	13
524.784	1	6
524.955	1	2
525.125	1	3
525.295	1	12
525.465	1	8
525.635	1	13
525.805	1	20
525.975	1	11
526.146	1	11
526.316	1	7
526.486	1	1
526.656	1	8
526.826	1	6
526.996	1	5
527.166	1	5
527.337	1	16
527.507	1	20
527.677	1	26
527.847	1	-1
528.017	1	9
528.187	1	13
528.357	1	14
528.527	1	12
528.698	1	13
528.868	1	6
529.038	1	17
529.208	1	5
529.378	1	6
529.548	1	9
529.718	1	9
529.888	1	6
530.058	1	6
530.229	1	10
530.399	1	9
530.569	1	-2
530.739	1	11
530.909	1	14
531.079	1	7
531.249	1	12
531.419	1	10
531.589	1	5
531.760	1	15
531.930	1	3
532.100	1	16
532.270	1	14
532.440	1	9
532.610	1	11
532.780	1	16
532.950	1	15
533.120	1	8
533.290	1	11
533.461	1	0
533.631	1	10
533.801	1	15
533.971	1	3
534.141	1	3
534.311	1	7
534.481	1	18
534.651	1	11
534.821	1	14
534.991	1	6
535.162	1	9
535.332	1	13
535.502	1	7
535.672	1	3
535.842	1	9
536.012	1	14
536.182	1	2
536.352	1	17
536.522	1	-1
536.692	1	12
536.862	1	6
537.032	1	16
537.203	1	8
537.373	1	10
537.543	1	9
537.713	1	4
537.883	1	8
538.053	1	5
538.223	1	21
538.393	1	4
538.563	1	11
538.733	1	20
538.903	1	6
539.073	1	5
539.243	1	13
539.413	1	3
539.584	1	14
539.754	1	11
539.924	1	1
540.094	1	12
540.264	1	18
540.434	1	13
540.604	1	25
540.774	1	4
540.944	1	8
541.114	1	16
541.284	1	8
541.454	1	4
541.624	1	7
541.794	1	13
541.964	1	1
542.134	1	5
542.305	1	16
542.475	1	18
542.645	1	4
542.815	1	8
542.985	1	5
543.155	1	10
543.325	1	11
543.495	1	10
543.665	1	6
543.835	1	6
544.005	1	-2
544.175	1	2
544.345	1	11
544.515	1	6
544.685	1	0
544.855	1	7
545.025	1	14
545.195	1	0
545.365	1	12
545.535	1	6
545.705	1	6
545.875	1	4
546.045	1	9
546.216	1	4
546.386	1	12
546.556	1	12
546.726	1	4
546.896	1	9
547.066	1	18
547.236	1	11
547.406	1	4
547.576	1	-2
547.746	1	0
547.916	1	12
548.086	1	9
548.256	1	3
548.426	1	3
548.596	1	15
548.766	1	7
548.936	1	13
549.106	1	3
549.276	1	1
549.446	1	7
549.616	1	7
549.786	1	10
549.956	1	10
550.126	1	18
550.296	1	11
550.466	1	1
550.636	1	8
550.806	1	13
550.976	1	6
551.146	1	3
551.316	1	10
551.486	1	5
551.656	1	10
551.826	1	-1
551.996	1	2
552.166	1	9
552.336	1	11
552.506	1	7
552.676	1	11
552.846	1	11
553.016	1	7
553.186	1	0
553.356	1	10
553.526	1	3
553.696	1	2
553.866	1	-2
554.036	1	19
554.206	1	12
554.376	1	16
554.546	1	12
554.716	1	6
554.886	1	9
555.056	1	6
555.226	1	2
555.396	1	9
555.566	1	12
555.736	1	4
555.906	1	4
556.076	1	1
556.246	1	8
556.416	1	11
556.586	1	9
556.756	1	-1
556.926	1	2
557.096	1	12
557.266	1	14
557.436	1	2
557.606	1	-4
557.776	1	14
557.946	1	16
558.116	1	14
558.286	1	-7
558.456	1	7
558.626	1	17
558.796	1	7
558.966	1	0
559.136	1	-2
559.306	1	0
559.476	1	4
559.646	1	12
559.816	1	1
559.986	1	5
560.155	1	16
560.325	1	6
560.495	1	5
560.665	1	14
560.835	1	0
561.005	1	11
561.175	1	7
561.345	1	8
561.515	1	8
561.685	1	5
561.855	1	12
562.025	1	2
562.195	1	5
562.365	1	1
562.535	1	-2
562.705	1	11
562.875	1	4
563.045	1	3
563.215	1	6
563.385	1	14
563.555	1	12
563.725	1	3
563.895	1	13
564.064	1	0
564.234	1	4
564.404	1	-3
564.574	1	9
564.744	1	11
564.914	1	5
565.084	1	16
565.254	1	6
565.424	1	-4
565.594	1	-4
565.764	1	8
565.934	1	10
566.104	1	18
566.274	1	8
566.444	1	12
566.614	1	10
566.783	1	7
566.953	1	8
567.123	1	-3
567.293	1	-1
567.463	1	7
567.633	1	1
567.803	1	14
567.973	1	7
568.143	1	6
568.313	1	-2
568.483	1	23
568.653	1	8
568.823	1	-2
568.993	1	8
569.162	1	5
569.332	1	9
569.502	1	2
569.672	1	8
569.842	1	10
570.012	1	-2
570.182	1	4
570.352	1	13
570.522	1	-5
570.692	1	10
570.862	1	-12
571.031	1	16
571.201	1	20
571.371	1	3
571.541	1	4
571.711	1	5
571.881	1	-1
572.051	1	8
572.221	1	5
572.391	1	9
572.561	1	16
572.731	1	8
572.900	1	14
573.070	1	8
573.240	1	7
573.410	1	15
573.580	1	15
573.750	1	6
573.920	1	4
574.090	1	5
574.260	1	1
574.430	1	4
574.599	1	1
574.769	1	8
574.939	1	-2
575.109	1	15
575.279	1	1
575.449	1	-3
575.619	1	4
575.789	1	13
575.959	1	-1
576.128	1	2
576.298	1	-3
576.468	1	3
576.638	1	10
576.808	1	4
576.978	1	8
577.148	1	6
577.318	1	5
577.487	1	3
577.657	1	4
577.827	1	-2
577.997	1	4
578.167	1	16
578.337	1	5
578.507	1	8
578.677	1	5
578.846	1	-1
579.016	1	5
579.186	1	8
579.356	1	15
579.526	1	-5
579.696	1	8
579.866	1	1
580.036	1	14
580.205	1	9
580.375	1	5
580.545	1	9
580.715	1	-2
580.885	1	2
581.055	1	0
581.225	1	8
581.394	1	5
581.564	1	-4
581.734	1	6
581.904	1	3
582.074	1	9
582.244	1	3
582.414	1	-6
582.583	1	0
582.753	1	1
582.923	1	1
583.093	1	12
583.263	1	15
583.433	1	9
583.603	1	2
583.772	1	9
583.942	1	6
584.112	1	2
584.282	1	3
584.452	1	8
584.622	1	-5
584.791	1	11
584.961	1	-7
585.131	1	11
585.301	1	-10
585.471	1	10
585.641	1	12
585.811	1	4
585.980	1	-1
586.150	1	10
586.320	1	12
586.490	1	5
586.660	1	8
586.830	1	7
586.999	1	4
587.169	1	-4
587.339	1	4
587.509	1	10
587.679	1	4
587.849	1	10
588.018	1	3
588.188	1	14
588.358	1	12
588.528	1	-5
588.698	1	5
588.867	1	2
589.037	1	8
589.207	1	10
589.377	1	12
589.547	1	2
589.717	1	1
589.886	1	10
590.056	1	8
590.226	1	3
590.396	1	7
590.566	1	1
590.735	1	8
590.905	1	-4
591.075	1	8
591.245	1	7
591.415	1	13
591.585	1	8
591.754	1	8
591.924	1	-6
592.094	1	9
592.264	1	-3
592.434	1	7
592.603	1	-7
592.773	1	8
592.943	1	1
593.113	1	-1
593.283	1	10
593.452	1	4
593.622	1	2
593.792	1	-2
593.962	1	5
594.132	1	7
594.301	1	9
594.471	1	-2
594.641	1	8
594.811	1	-2
594.981	1	-3
595.150	1	8
595.320	1	11
595.490	1	-4
595.660	1	12
595.829	1	-4
595.999	1	4
596.169	1	-5
596.339	1	10
596.509	1	9
596.678	1	-13
596.848	1	1
597.018	1	1
597.188	1	6
597.358	1	4
597.527	1	2
597.697	1	-1
597.867	1	2
598.037	1	2
598.206	1	7
598.376	1	1
598.546	1	13
598.716	1	6
598.885	1	4
599.055	1	9
599.225	1	-3
599.395	1	-1
599.565	1	-4
599.734	1	16
599.904	1	13
600.074	1	-7
600.244	1	6
600.413	1	8
600.583	1	12
600.753	1	5
600.923	1	7
601.092	1	2
601.262	1	-2
601.432	1	-6
601.602	1	5
601.771	1	8
601.941	1	4
602.111	1	7
602.281	1	14
602.451	1	-1
602.620	1	3
602.790	1	11
602.960	1	-8
603.130	1	9
603.299	1	6
603.469	1	11
603.639	1	7
603.809	1	6
603.978	1	5
604.148	1	-11
604.318	1	-4
604.487	1	5
604.657	1	7
604.827	1	10
604.997	1	1
605.166	1	6
605.336	1	8
605.506	1	4
605.676	1	-4
605.845	1	10
606.015	1	-2
606.185	1	1
606.355	1	-12
606.524	1	-2
606.694	1	13
606.864	1	14
607.034	1	-1
607.203	1	14
607.373	1	2
607.543	1	5
607.712	1	1
607.882	1	7
608.052	1	0
608.222	1	1
608.391	1	-3
608.561	1	4
608.731	1	-5
608.901	1	7
609.070	1	2
609.240	1	10
609.410	1	4
609.579	1	1
609.749	1	0
609.919	1	3
610.089	1	12
610.258	1	10
610.428	1	8
610.598	1	-2
610.767	1	6
610.937	1	3
611.107	1	8
611.277	1	5
611.446	1	5
611.616	1	14
611.786	1	4
611.955	1	7
612.125	1	4
612.295	1	10
612.465	1	10
612.634	1	1
612.804	1	6
612.974	1	7
613.143	1	-11
613.313	1	11
613.483	1	-2
613.652	1	14
613.822	1	-1
613.992	1	8
614.162	1	12
614.331	1	6
614.501	1	-1
614.671	1	-2
614.840	1	11
615.010	1	5
615.180	1	4
615.349	1	8
615.519	1	1
615.689	1	4
615.858	1	-6
616.028	1	17
616.198	1	12
616.368	1	13
616.537	1	-5
616.707	1	2
616.877	1	2
617.046	1	1
617.216	1	4
617.386	1	15
617.555	1	7
617.725	1	1
617.895	1	2
618.064	1	-1
618.234	1	-8
618.404	1	3
618.573	1	13
618.743	1	9
618.913	1	5
619.082	1	9
619.252	1	-2
619.422	1	8
619.591	1	12
619.761	1	5
619.931	1	11
620.100	1	5
620.270	1	9
620.440	1	6
620.609	1	-1
620.779	1	10
620.949	1	19
621.118	1	13
621.288	1	-4
621.458	1	11
621.627	1	7
621.797	1	7
621.967	1	4
622.136	1	-4
622.306	1	1
622.476	1	7
622.645	1	12
622.815	1	5
622.985	1	-4
623.154	1	-6
623.324	1	11
623.494	1	-3
623.663	1	10
623.833	1	5
624.002	1	12
624.172	1	4
624.342	1	4
624.511	1	3
624.681	1	8
624.851	1	-2
625.020	1	-4
625.190	1	8
625.360	1	0
625.529	1	8
625.699	1	11
625.869	1	12
626.038	1	9
626.208	1	-3
626.377	1	15
626.547	1	-2
626.717	1	-2
626.886	1	4
627.056	1	6
627.226	1	16
627.395	1	-7
627.565	1	9
627.735	1	5
627.904	1	-3
628.074	1	5
628.243	1	13
628.413	1	3
628.583	1	15
628.752	1	1
628.922	1	12
629.091	1	8
629.261	1	-1
629.431	1	1
629.600	1	-2
629.770	1	12
629.940	1	8
630.109	1	-7
630.279	1	8
630.448	1	7
630.618	1	11
630.788	1	3
630.957	1	9
631.127	1	4
631.297	1	0
631.466	1	8
631.636	1	2
631.805	1	13
631.975	1	5
632.145	1	2
632.314	1	10
632.484	1	10
632.653	1	-1
632.823	1	-5
632.993	1	-3
633.162	1	4
633.332	1	3
633.501	1	-4
633.671	1	3
633.841	1	9
634.010	1	11
634.180	1	1
634.349	1	15
634.519	1	-10
634.689	1	-2
634.858	1	4
635.028	1	-1
635.197	1	12
635.367	1	16
635.537	1	2
635.706	1	-2
635.876	1	7
636.045	1	-2
636.215	1	-7
636.384	1	14
636.554	1	-4
636.724	1	8
636.893	1	13
637.063	1	-1
637.232	1	4
637.402	1	9
637.572	1	9
637.741	1	8
637.911	1	3
638.080	1	9
638.250	1	-5
638.419	1	-1
638.589	1	11
638.759	1	3
638.928	1	5
639.098	1	10
639.267	1	11
639.437	1	3
639.606	1	14
639.776	1	5
639.946	1	14
640.115	1	-6
640.285	1	8
640.454	1	0
640.624	1	10
640.793	1	11
640.963	1	10
641.132	1	0
641.302	1	5
641.472	1	11
641.641	1	3
641.811	1	-11
641.980	1	10
642.150	1	-12
642.319	1	20
642.489	1	6
642.659	1	6
642.828	1	22
642.998	1	1
643.167	1	7
643.337	1	0
643.506	1	-1
643.676	1	5
643.845	1	13
644.015	1	3
644.184	1	15
644.354	1	11
644.524	1	9
644.693	1	-1
644.863	1	4
645.032	1	8
645.202	1	2
645.371	1	4
645.541	1	5
645.710	1	5
645.880	1	14
646.049	1	7
646.219	1	7
646.388	1	5
646.558	1	-4
646.728	1	8
646.897	1	-6
647.067	1	8
647.236	1	0
647.406	1	4
647.575	1	16
647.745	1	2
647.914	1	-1
648.084	1	-6
648.253	1	13
648.423	1	11
648.592	1	12
648.762	1	6
648.931	1	8
649.101	1	-6
649.270	1	18
649.440	1	1
649.610	1	9
649.779	1	3
649.949	1	-5
650.118	1	4
650.288	1	10
650.457	1	16
650.627	1	-1
650.796	1	1
650.966	1	9
651.135	1	10
651.305	1	7
651.474	1	7
651.644	1	6
651.813	1	7
651.983	1	-3
652.152	1	6
652.322	1	4
652.491	1	5
652.661	1	3
652.830	1	6
653.000	1	11
653.169	1	1
653.339	1	2
653.508	1	0
653.678	1	10
653.847	1	11
654.017	1	8
654.186	1	10
654.356	1	16
654.525	1	6
654.695	1	18
654.864	1	-2
655.034	1	-1
655.203	1	7
655.373	1	2
655.542	1	7
655.712	1	6
655.881	1	13
656.051	1	-6
656.220	1	8
656.390	1	14
656.559	1	0
656.729	1	9
656.898	1	10
657.068	1	-3
657.237	1	-7
657.406	1	-2
657.576	1	6
657.745	1	19
657.915	1	8
658.084	1	6
658.254	1	17
658.423	1	7
658.593	1	9
658.762	1	0
658.932	1	17
659.101	1	-3
659.271	1	-4
659.440	1	10
659.610	1	2
659.779	1	2
659.949	1	7
660.118	1	9
660.288	1	-2
660.457	1	4
660.626	1	-10
660.796	1	9
660.965	1	10
661.135	1	7
661.304	1	9
661.474	1	11
661.643	1	3
661.813	1	-5
661.982	1	-2
662.152	1	4
662.321	1	0
662.491	1	-1
662.660	1	12
662.829	1	17
662.999	1	15
663.168	1	-6
663.338	1	4
663.507	1	6
663.677	1	6
663.846	1	6
664.016	1	-10
664.185	1	8
664.354	1	0
664.524	1	3
664.693	1	6
664.863	1	-1
665.032	1	8
665.202	1	0
665.371	1	11
665.541	1	2
665.710	1	2
665.879	1	14
666.049	1	9
666.218	1	6
666.388	1	5
666.557	1	1
666.727	1	4
666.896	1	8
667.065	1	11
667.235	1	-9
667.404	1	2
667.574	1	-6
667.743	1	4
667.913	1	7
668.082	1	12
668.251	1	7
668.421	1	7
668.590	1	6
668.760	1	2
668.929	1	4
669.099	1	8
669.268	1	4
669.437	1	-6
669.607	1	-16
669.776	1	1
669.946	1	3
670.115	1	2
670.285	1	3
670.454	1	1
670.623	1	4
670.793	1	1
670.962	1	-6
671.132	1	4
671.301	1	-1
671.470	1	0
671.640	1	10
671.809	1	4
671.979	1	1
672.148	1	4
672.317	1	-1
672.487	1	7
672.656	1	7
672.826	1	10
672.995	1	1
673.164	1	-3
673.334	1	-6
673.503	1	6
673.673	1	1
673.842	1	0
674.011	1	15
674.181	1	1
674.350	1	9
674.520	1	3
674.689	1	1
674.858	1	-11
675.028	1	2
675.197	1	16
675.367	1	4
675.536	1	0
675.705	1	3
675.875	1	8
676.044	1	-2
676.214	1	0
676.383	1	3
676.552	1	-1
676.722	1	1
676.891	1	-2
677.060	1	6
677.230	1	6
677.399	1	19
677.569	1	17
677.738	1	-4
677.907	1	16
678.077	1	-7
678.246	1	3
678.416	1	-5
678.585	1	-2
678.754	1	5
678.924	1	7
679.093	1	16
679.262	1	-5
679.432	1	-3
679.601	1	6
679.771	1	2
679.940	1	0
680.109	1	1
680.279	1	5
680.448	1	-3
680.617	1	9
680.787	1	-10
680.956	1	12
681.125	1	4
681.295	1	5
681.464	1	0
681.634	1	11
681.803	1	-5
681.972	1	7
682.142	1	5
682.311	1	4
682.480	1	-1
682.650	1	0
682.819	1	3
682.988	1	3
683.158	1	5
683.327	1	5
683.496	1	12
683.666	1	8
683.835	1	5
684.004	1	-9
684.174	1	1
684.343	1	7
684.512	1	6
684.682	1	2
684.851	1	5
685.021	1	14
685.190	1	10
685.359	1	10
685.529	1	4
685.698	1	1
685.867	1	0
686.037	1	-1
686.206	1	4
686.375	1	2
686.545	1	8
686.714	1	2
686.883	1	18
687.053	1	13
687.222	1	6
687.391	1	0
687.561	1	4
687.730	1	11
687.899	1	-6
688.069	1	1
688.238	1	15
688.407	1	5
688.577	1	5
688.746	1	0
