340.368	1	-3
340.539	1	3
340.710	1	-4
340.881	1	1
341.052	1	3
341.223	1	6
341.394	1	-10
341.565	1	1
341.737	1	1
341.908	1	17
342.079	1	-3
342.250	1	15
342.421	1	-2
342.592	1	4
342.763	1	1
342.934	1	7
343.105	1	0
343.276	1	-10
343.447	1	-5
343.618	1	16
343.789	1	4
343.960	1	5
344.131	1	-11
344.302	1	9
344.473	1	1
344.644	1	1
344.815	1	6
344.986	1	1
345.157	1	14
345.328	1	1
345.499	1	-4
345.670	1	1
345.841	1	2
346.012	1	-4
346.183	1	-3
346.354	1	5
346.526	1	-5
346.697	1	-4
346.868	1	-10
347.039	1	5
347.210	1	-5
347.381	1	10
347.552	1	22
347.723	1	10
347.894	1	2
348.065	1	6
348.236	1	3
348.407	1	5
348.578	1	2
348.749	1	8
348.920	1	4
349.091	1	-2
349.262	1	4
349.433	1	0
349.604	1	0
349.775	1	3
349.946	1	5
350.117	1	6
350.288	1	-12
350.459	1	5
350.630	1	-2
350.801	1	2
350.972	1	0
351.143	1	-2
351.314	1	-4
351.485	1	12
351.656	1	7
351.827	1	9
351.998	1	9
352.169	1	1
352.340	1	9
352.511	1	0
352.682	1	-14
352.853	1	-6
353.024	1	7
353.195	1	-6
353.366	1	2
353.537	1	-2
353.708	1	2
353.879	1	5
354.050	1	-5
354.221	1	-3
354.392	1	-16
354.563	1	18
354.734	1	4
354.905	1	-7
355.076	1	8
355.247	1	-2
355.418	1	-3
355.589	1	7
355.760	1	2
355.931	1	9
356.102	1	5
356.273	1	3
356.444	1	6
356.615	1	4
356.785	1	10
356.956	1	2
357.127	1	11
357.298	1	-12
357.469	1	0
357.640	1	0
357.811	1	3
357.982	1	7
358.153	1	-12
358.324	1	2
358.495	1	-2
358.666	1	-5
358.837	1	7
359.008	1	-4
359.179	1	10
359.350	1	-8
359.521	1	10
359.692	1	-2
359.863	1	-5
360.034	1	-8
360.205	1	8
360.376	1	2
360.547	1	9
360.718	1	-3
360.889	1	5
361.060	1	6
361.231	1	0
361.401	1	-4
361.572	1	8
361.743	1	-2
361.914	1	5
362.085	1	-5
362.256	1	10
362.427	1	5
362.598	1	10
362.769	1	-1
362.940	1	-2
363.111	1	3
363.282	1	-10
363.453	1	6
363.624	1	-10
363.795	1	2
363.966	1	-2
364.137	1	-10
364.308	1	-2
364.478	1	-1
364.649	1	2
364.820	1	4
364.991	1	8
365.162	1	4
365.333	1	-3
365.504	1	-6
365.675	1	7
365.846	1	-8
366.017	1	7
366.188	1	0
366.359	1	-1
366.530	1	-4
366.701	1	0
366.871	1	-4
367.042	1	4
367.213	1	9
367.384	1	-4
367.555	1	1
367.726	1	-6
367.897	1	11
368.068	1	6
368.239	1	7
368.410	1	-1
368.581	1	1
368.752	1	11
368.923	1	-6
369.093	1	2
369.264	1	10
369.435	1	5
369.606	1	-6
369.777	1	14
369.948	1	-3
370.119	1	7
370.290	1	7
370.461	1	4
370.632	1	4
370.803	1	-10
370.973	1	7
371.144	1	4
371.315	1	7
371.486	1	13
371.657	1	7
371.828	1	-2
371.999	1	-4
372.170	1	0
372.341	1	-3
372.512	1	-6
372.682	1	3
372.853	1	10
373.024	1	7
373.195	1	-8
373.366	1	10
373.537	1	-7
373.708	1	-2
373.879	1	-2
374.050	1	7
374.220	1	3
374.391	1	-1
374.562	1	6
374.733	1	4
374.904	1	2
375.075	1	-1
375.246	1	0
375.417	1	3
375.588	1	4
375.758	1	-9
375.929	1	-2
376.100	1	-1
376.271	1	3
376.442	1	-2
376.613	1	1
376.784	1	-3
376.955	1	-4
377.125	1	-6
377.296	1	16
377.467	1	8
377.638	1	-3
377.809	1	-2
377.980	1	-3
378.151	1	-4
378.321	1	2
378.492	1	-7
378.663	1	2
378.834	1	6
379.005	1	-1
379.176	1	3
379.347	1	-4
379.518	1	-4
379.688	1	12
379.859	1	4
380.030	1	4
380.201	1	8
380.372	1	9
380.543	1	4
380.714	1	-4
380.884	1	6
381.055	1	-2
381.226	1	12
381.397	1	5
381.568	1	-2
381.739	1	0
381.910	1	7
382.080	1	1
382.251	1	0
382.422	1	9
382.593	1	-3
382.764	1	3
382.935	1	-8
383.105	1	-2
383.276	1	-2
383.447	1	6
383.618	1	6
383.789	1	-4
383.960	1	4
384.130	1	7
384.301	1	-2
384.472	1	-11
384.643	1	-4
384.814	1	3
384.985	1	-3
385.156	1	-1
385.326	1	-12
385.497	1	9
385.668	1	8
385.839	1	0
386.010	1	6
386.180	1	1
386.351	1	-2
386.522	1	11
386.693	1	-3
386.864	1	-6
387.035	1	2
387.205	1	10
387.376	1	1
387.547	1	3
387.718	1	0
387.889	1	-6
388.060	1	8
388.230	1	-6
388.401	1	-3
388.572	1	-7
388.743	1	4
388.914	1	10
389.084	1	6
389.255	1	2
389.426	1	-11
389.597	1	5
389.768	1	9
389.939	1	10
390.109	1	-11
390.280	1	-1
390.451	1	5
390.622	1	-7
390.793	1	-6
390.963	1	-6
391.134	1	8
391.305	1	-7
391.476	1	-5
391.647	1	-1
391.817	1	-4
391.988	1	-3
392.159	1	-4
392.330	1	3
392.501	1	-4
392.671	1	14
392.842	1	-9
393.013	1	6
393.184	1	1
393.355	1	8
393.525	1	-2
393.696	1	3
393.867	1	1
394.038	1	2
394.208	1	-3
394.379	1	9
394.550	1	7
394.721	1	-4
394.892	1	6
395.062	1	-5
395.233	1	4
395.404	1	7
395.575	1	10
395.746	1	-3
395.916	1	-1
396.087	1	3
396.258	1	2
396.429	1	3
396.599	1	1
396.770	1	7
396.941	1	-1
397.112	1	-3
397.283	1	6
397.453	1	-2
397.624	1	-6
397.795	1	-7
397.966	1	1
398.136	1	6
398.307	1	1
398.478	1	-2
398.649	1	-5
398.819	1	2
398.990	1	10
399.161	1	2
399.332	1	3
399.503	1	8
399.673	1	10
399.844	1	-1
400.015	1	1
400.186	1	1
400.356	1	-6
400.527	1	3
400.698	1	2
400.869	1	6
401.039	1	-1
401.210	1	5
401.381	1	2
401.552	1	9
401.722	1	6
401.893	1	4
402.064	1	3
402.235	1	3
402.405	1	-3
402.576	1	7
402.747	1	12
402.918	1	-7
403.088	1	2
403.259	1	-3
403.430	1	1
403.601	1	7
403.771	1	-2
403.942	1	-4
404.113	1	7
404.284	1	13
404.454	1	-4
404.625	1	-2
404.796	1	13
404.967	1	2
405.137	1	6
405.308	1	-11
405.479	1	5
405.649	1	-5
405.820	1	-3
405.991	1	-2
406.162	1	-2
406.332	1	-4
406.503	1	-4
406.674	1	-6
406.845	1	13
407.015	1	5
407.186	1	-2
407.357	1	4
407.527	1	-10
407.698	1	6
407.869	1	-1
408.040	1	10
408.210	1	4
408.381	1	-8
408.552	1	-8
408.722	1	9
408.893	1	-2
409.064	1	-3
409.235	1	-1
409.405	1	-1
409.576	1	6
409.747	1	-5
409.917	1	11
410.088	1	3
410.259	1	0
410.430	1	8
410.600	1	6
410.771	1	6
410.942	1	7
411.112	1	0
411.283	1	3
411.454	1	3
411.625	1	-5
411.795	1	5
411.966	1	-1
412.137	1	0
412.307	1	2
412.478	1	10
412.649	1	4
412.819	1	9
412.990	1	-2
413.161	1	4
413.332	1	7
413.502	1	1
413.673	1	8
413.844	1	1
414.014	1	2
414.185	1	-2
414.356	1	10
414.526	1	-10
414.697	1	2
414.868	1	-6
415.038	1	1
415.209	1	-3
415.380	1	-3
415.550	1	-4
415.721	1	1
415.892	1	6
416.063	1	8
416.233	1	7
416.404	1	-1
416.575	1	-2
416.745	1	-2
416.916	1	9
417.087	1	2
417.257	1	-5
417.428	1	4
417.599	1	2
417.769	1	-4
417.940	1	-6
418.111	1	1
418.281	1	6
418.452	1	0
418.623	1	-5
418.793	1	3
418.964	1	14
419.135	1	3
419.305	1	9
419.476	1	-4
419.647	1	4
419.817	1	6
419.988	1	18
420.159	1	6
420.329	1	8
420.500	1	2
420.671	1	11
420.841	1	-7
421.012	1	4
421.183	1	3
421.353	1	11
421.524	1	-5
421.695	1	3
421.865	1	0
422.036	1	11
422.206	1	7
422.377	1	-2
422.548	1	1
422.718	1	15
422.889	1	0
423.060	1	2
423.230	1	1
423.401	1	0
423.572	1	1
423.742	1	9
423.913	1	-10
424.084	1	8
424.254	1	6
424.425	1	1
424.595	1	10
424.766	1	3
424.937	1	10
425.107	1	6
425.278	1	2
425.449	1	4
425.619	1	-1
425.790	1	3
425.961	1	9
426.131	1	-10
426.302	1	1
426.472	1	6
426.643	1	2
426.814	1	-3
426.984	1	-6
427.155	1	8
427.326	1	3
427.496	1	4
427.667	1	-6
427.837	1	-2
428.008	1	6
428.179	1	11
428.349	1	6
428.520	1	-1
428.691	1	3
428.861	1	-3
429.032	1	-3
429.202	1	-7
429.373	1	12
429.544	1	0
429.714	1	11
429.885	1	1
430.055	1	6
430.226	1	-13
430.397	1	-3
430.567	1	-12
430.738	1	7
430.909	1	0
431.079	1	8
431.250	1	8
431.420	1	8
431.591	1	5
431.762	1	-2
431.932	1	-9
432.103	1	-4
432.273	1	6
432.444	1	1
432.615	1	-3
432.785	1	-6
432.956	1	-2
433.126	1	2
433.297	1	2
433.468	1	5
433.638	1	9
433.809	1	0
433.979	1	-2
434.150	1	8
434.320	1	-4
434.491	1	13
434.662	1	-3
434.832	1	1
435.003	1	16
435.173	1	1
435.344	1	3
435.515	1	8
435.685	1	-4
435.856	1	-5
436.026	1	4
436.197	1	-4
436.368	1	-1
436.538	1	-3
436.709	1	-1
436.879	1	6
437.050	1	-2
437.220	1	-1
437.391	1	-1
437.562	1	9
437.732	1	8
437.903	1	2
438.073	1	-5
438.244	1	7
438.414	1	7
438.585	1	2
438.756	1	-9
438.926	1	0
439.097	1	0
439.267	1	-2
439.438	1	-3
439.608	1	4
439.779	1	0
439.949	1	-2
440.120	1	-2
440.291	1	8
440.461	1	3
440.632	1	1
440.802	1	-2
440.973	1	6
441.143	1	-4
441.314	1	-7
441.485	1	4
441.655	1	8
441.826	1	-2
441.996	1	-5
442.167	1	8
442.337	1	-7
442.508	1	2
442.678	1	8
442.849	1	6
443.019	1	2
443.190	1	5
443.361	1	4
443.531	1	-4
443.702	1	11
443.872	1	-2
444.043	1	6
444.213	1	-18
444.384	1	-4
444.554	1	3
444.725	1	13
444.895	1	-6
445.066	1	6
445.237	1	4
445.407	1	0
445.578	1	-9
445.748	1	3
445.919	1	0
446.089	1	-2
446.260	1	7
446.430	1	2
446.601	1	7
446.771	1	-1
446.942	1	2
447.112	1	1
447.283	1	2
447.453	1	-5
447.624	1	-6
447.794	1	-1
447.965	1	-7
448.135	1	1
448.306	1	6
448.477	1	1
448.647	1	4
448.818	1	-4
448.988	1	2
449.159	1	-8
449.329	1	3
449.500	1	10
449.670	1	1
449.841	1	1
450.011	1	-5
450.182	1	-2
450.352	1	3
450.523	1	6
450.693	1	13
450.864	1	8
451.034	1	-4
451.205	1	4
451.375	1	4
451.546	1	1
451.716	1	6
451.887	1	5
452.057	1	3
452.228	1	2
452.398	1	8
452.569	1	5
452.739	1	2
452.910	1	-5
453.080	1	2
453.251	1	-6
453.421	1	12
453.592	1	-1
453.762	1	5
453.933	1	-5
454.103	1	4
454.274	1	-5
454.444	1	-2
454.615	1	10
454.785	1	0
454.956	1	1
455.126	1	7
455.297	1	-3
455.467	1	5
455.638	1	-5
455.808	1	10
455.979	1	-8
456.149	1	-3
456.320	1	7
456.490	1	-3
456.661	1	-4
456.831	1	0
457.001	1	6
457.172	1	0
457.342	1	-5
457.513	1	-5
457.683	1	-2
457.854	1	7
458.024	1	4
458.195	1	5
458.365	1	1
458.536	1	12
458.706	1	7
458.877	1	-1
459.047	1	-5
459.218	1	8
459.388	1	5
459.559	1	6
459.729	1	-2
459.899	1	-1
460.070	1	9
460.240	1	-6
460.411	1	9
460.581	1	-2
460.752	1	2
460.922	1	0
461.093	1	7
461.263	1	3
461.434	1	-3
461.604	1	3
461.775	1	11
461.945	1	2
462.115	1	12
462.286	1	-1
462.456	1	-3
462.627	1	7
462.797	1	-10
462.968	1	6
463.138	1	2
463.309	1	1
463.479	1	-7
463.649	1	-10
463.820	1	6
463.990	1	12
464.161	1	-4
464.331	1	10
464.502	1	-1
464.672	1	0
464.843	1	4
465.013	1	6
465.183	1	-2
465.354	1	9
465.524	1	-2
465.695	1	4
465.865	1	2
466.036	1	8
466.206	1	2
466.376	1	20
466.547	1	6
466.717	1	-8
466.888	1	-5
467.058	1	7
467.229	1	5
467.399	1	1
467.569	1	3
467.740	1	9
467.910	1	6
468.081	1	-3
468.251	1	-2
468.422	1	5
468.592	1	-4
468.762	1	2
468.933	1	8
469.103	1	-3
469.274	1	-4
469.444	1	-7
469.614	1	-1
469.785	1	-8
469.955	1	-5
470.126	1	11
470.296	1	2
470.467	1	1
470.637	1	2
470.807	1	12
470.978	1	0
471.148	1	-3
471.319	1	0
471.489	1	-3
471.659	1	-2
471.830	1	1
472.000	1	-12
472.171	1	11
472.341	1	3
472.511	1	-4
472.682	1	12
472.852	1	10
473.023	1	4
473.193	1	3
473.363	1	2
473.534	1	1
473.704	1	0
473.875	1	3
474.045	1	-2
474.215	1	-5
474.386	1	5
474.556	1	-6
474.727	1	0
474.897	1	4
475.067	1	15
475.238	1	1
475.408	1	1
475.578	1	-1
475.749	1	6
475.919	1	-5
476.090	1	-5
476.260	1	-5
476.430	1	-12
476.601	1	4
476.771	1	0
476.942	1	2
477.112	1	9
477.282	1	-6
477.453	1	0
477.623	1	1
477.793	1	9
477.964	1	4
478.134	1	9
478.305	1	10
478.475	1	3
478.645	1	-2
478.816	1	3
478.986	1	4
479.156	1	5
479.327	1	4
479.497	1	-2
479.667	1	-3
479.838	1	8
480.008	1	2
480.179	1	12
480.349	1	3
480.519	1	4
480.690	1	4
480.860	1	3
481.030	1	9
481.201	1	0
481.371	1	-10
481.541	1	-3
481.712	1	6
481.882	1	1
482.053	1	5
482.223	1	7
482.393	1	7
482.564	1	5
482.734	1	-7
482.904	1	6
483.075	1	0
483.245	1	5
483.415	1	0
483.586	1	-5
483.756	1	-5
483.926	1	2
484.097	1	12
484.267	1	1
484.437	1	8
484.608	1	0
484.778	1	1
484.948	1	7
485.119	1	5
485.289	1	-11
485.459	1	-2
485.630	1	4
485.800	1	-6
485.970	1	-4
486.141	1	9
486.311	1	5
486.481	1	-10
486.652	1	-5
486.822	1	12
486.992	1	11
487.163	1	-5
487.333	1	-10
487.503	1	2
487.674	1	-9
487.844	1	-3
488.014	1	4
488.185	1	6
488.355	1	5
488.525	1	1
488.696	1	9
488.866	1	-2
489.036	1	6
489.207	1	8
489.377	1	5
489.547	1	-1
489.718	1	-8
489.888	1	3
490.058	1	8
490.228	1	0
490.399	1	11
490.569	1	-6
490.739	1	2
490.910	1	3
491.080	1	-3
491.250	1	6
491.421	1	-1
491.591	1	3
491.761	1	-2
491.932	1	8
492.102	1	3
492.272	1	-4
492.442	1	0
492.613	1	-9
492.783	1	1
492.953	1	2
493.124	1	-1
493.294	1	-7
493.464	1	-11
493.635	1	2
493.805	1	9
493.975	1	9
494.145	1	-4
494.316	1	2
494.486	1	-2
494.656	1	7
494.827	1	1
494.997	1	-11
495.167	1	12
495.337	1	-1
495.508	1	12
495.678	1	2
495.848	1	-1
496.019	1	2
496.189	1	-1
496.359	1	0
496.529	1	-1
496.700	1	5
496.870	1	2
497.040	1	3
497.211	1	-6
497.381	1	2
497.551	1	10
497.721	1	0
497.892	1	-1
498.062	1	0
498.232	1	-2
498.403	1	0
498.573	1	-10
498.743	1	1
498.913	1	2
499.084	1	0
499.254	1	0
499.424	1	1
499.594	1	-2
499.765	1	5
499.935	1	7
500.105	1	5
500.275	1	1
500.446	1	5
500.616	1	-3
500.786	1	-2
500.956	1	11
501.127	1	-2
501.297	1	2
501.467	1	9
501.638	1	6
501.808	1	3
501.978	1	-1
502.148	1	-5
502.319	1	-2
502.489	1	-1
502.659	1	6
502.829	1	-2
503.000	1	2
503.170	1	-4
503.340	1	2
503.510	1	-8
503.681	1	-9
503.851	1	2
504.021	1	8
504.191	1	-1
504.362	1	3
504.532	1	5
504.702	1	7
504.872	1	-6
505.042	1	-9
505.213	1	-3
505.383	1	9
505.553	1	-6
505.723	1	8
505.894	1	6
506.064	1	-3
506.234	1	9
506.404	1	1
506.575	1	15
506.745	1	-5
506.915	1	-9
507.085	1	5
507.256	1	13
507.426	1	-2
507.596	1	12
507.766	1	5
507.936	1	8
508.107	1	-6
508.277	1	1
508.447	1	1
508.617	1	9
508.788	1	1
508.958	1	9
509.128	1	4
509.298	1	-9
509.468	1	-1
509.639	1	-3
509.809	1	-4
509.979	1	-2
510.149	1	-11
510.319	1	13
510.490	1	-7
510.660	1	-13
510.830	1	-1
511.000	1	7
511.171	1	0
511.341	1	16
511.511	1	3
511.681	1	7
511.851	1	7
512.022	1	-7
512.192	1	1
512.362	1	13
512.532	1	16
512.702	1	0
512.873	1	-9
513.043	1	7
513.213	1	0
513.383	1	2
513.553	1	4
513.724	1	0
513.894	1	-4
514.064	1	4
514.234	1	-2
514.404	1	7
514.575	1	-3
514.745	1	0
514.915	1	0
515.085	1	-1
515.255	1	-1
515.425	1	9
515.596	1	8
515.766	1	1
515.936	1	-7
516.106	1	1
516.276	1	-6
516.447	1	8
516.617	1	-6
516.787	1	5
516.957	1	2
517.127	1	9
517.297	1	-6
517.468	1	5
517.638	1	5
517.808	1	-9
517.978	1	1
518.148	1	13
518.319	1	2
518.489	1	-8
518.659	1	10
518.829	1	-1
518.999	1	8
519.169	1	-5
519.340	1	2
519.510	1	-1
519.680	1	5
519.850	1	1
520.020	1	-2
520.190	1	0
520.361	1	1
520.531	1	0
520.701	1	6
520.871	1	10
521.041	1	6
521.211	1	1
521.382	1	-2
521.552	1	-2
521.722	1	0
521.892	1	-7
522.062	1	9
522.232	1	6
522.402	1	6
522.573	1	1
522.743	1	3
522.913	1	10
523.083	1	-6
523.253	1	3
523.423	1	-2
523.593	1	6
523.764	1	-2
523.934	1	4
524.104	1	1
524.274	1	4
524.444	1	14
524.614	1	-1
524.784	1	-7
524.955	1	-1
525.125	1	0
525.295	1	7
525.465	1	3
525.635	1	4
525.805	1	10
525.975	1	-4
526.146	1	6
526.316	1	-5
526.486	1	1
526.656	1	-4
526.826	1	1
526.996	1	2
527.166	1	1
527.337	1	5
527.507	1	11
527.677	1	13
527.847	1	-13
528.017	1	-10
528.187	1	9
528.357	1	3
528.527	1	1
528.698	1	7
528.868	1	-6
529.038	1	8
529.208	1	5
529.378	1	-6
529.548	1	4
529.718	1	-9
529.888	1	3
530.058	1	4
530.229	1	10
530.399	1	5
530.569	1	-6
530.739	1	7
530.909	1	-7
531.079	1	1
531.249	1	2
531.419	1	2
531.589	1	-2
531.760	1	7
531.930	1	1
532.100	1	13
532.270	1	4
532.440	1	9
532.610	1	2
532.780	1	2
532.950	1	7
533.120	1	6
533.290	1	-4
533.461	1	0
533.631	1	-2
533.801	1	6
533.971	1	-4
534.141	1	6
534.311	1	-5
534.481	1	18
534.651	1	-5
534.821	1	-1
534.991	1	-2
535.162	1	-1
535.332	1	-4
535.502	1	4
535.672	1	0
535.842	1	6
536.012	1	3
536.182	1	-1
536.352	1	2
536.522	1	1
536.692	1	9
536.862	1	-3
537.032	1	2
537.203	1	1
537.373	1	0
537.543	1	7
537.713	1	1
537.883	1	1
538.053	1	6
538.223	1	12
538.393	1	3
538.563	1	5
538.733	1	3
538.903	1	-10
539.073	1	-7
539.243	1	4
539.413	1	-15
539.584	1	9
539.754	1	2
539.924	1	-3
540.094	1	9
540.264	1	13
540.434	1	9
540.604	1	7
540.774	1	-2
540.944	1	11
541.114	1	12
541.284	1	6
541.454	1	-4
541.624	1	0
541.794	1	0
541.964	1	5
542.134	1	-1
542.305	1	9
542.475	1	5
542.645	1	4
542.815	1	-2
542.985	1	2
543.155	1	7
543.325	1	14
543.495	1	7
543.665	1	-4
543.835	1	3
544.005	1	2
544.175	1	3
544.345	1	5
544.515	1	-1
544.685	1	4
544.855	1	3
545.025	1	10
545.195	1	-11
545.365	1	10
545.535	1	2
545.705	1	3
545.875	1	-10
546.045	1	5
546.216	1	-4
546.386	1	0
546.556	1	10
546.726	1	9
546.896	1	7
547.066	1	2
547.236	1	5
547.406	1	-2
547.576	1	-9
547.746	1	-2
547.916	1	15
548.086	1	2
548.256	1	-1
548.426	1	11
548.596	1	5
548.766	1	1
548.936	1	7
549.106	1	-1
549.276	1	2
549.446	1	-6
549.616	1	7
549.786	1	2
549.956	1	4
550.126	1	2
550.296	1	7
550.466	1	-2
550.636	1	-4
550.806	1	7
550.976	1	-4
551.146	1	7
551.316	1	3
551.486	1	-3
551.656	1	7
551.826	1	4
551.996	1	-8
552.166	1	-4
552.336	1	-7
552.506	1	-3
552.676	1	16
552.846	1	13
553.016	1	-1
553.186	1	0
553.356	1	8
553.526	1	-3
553.696	1	-15
553.866	1	-3
554.036	1	4
554.206	1	7
554.376	1	11
554.546	1	5
554.716	1	3
554.886	1	4
555.056	1	2
555.226	1	4
555.396	1	1
555.566	1	11
555.736	1	3
555.906	1	-2
556.076	1	-1
556.246	1	4
556.416	1	4
556.586	1	-4
556.756	1	4
556.926	1	-6
557.096	1	6
557.266	1	5
557.436	1	4
557.606	1	-9
557.776	1	0
557.946	1	5
558.116	1	2
558.286	1	-14
558.456	1	1
558.626	1	6
558.796	1	14
558.966	1	1
559.136	1	3
559.306	1	-1
559.476	1	0
559.646	1	6
559.816	1	-6
559.986	1	7
560.155	1	10
560.325	1	-3
560.495	1	11
560.665	1	-5
560.835	1	3
561.005	1	3
561.175	1	1
561.345	1	0
561.515	1	6
561.685	1	1
561.855	1	2
562.025	1	2
562.195	1	3
562.365	1	1
562.535	1	-3
562.705	1	5
562.875	1	6
563.045	1	2
563.215	1	-5
563.385	1	5
563.555	1	10
563.725	1	2
563.895	1	11
564.064	1	-6
564.234	1	-11
564.404	1	-11
564.574	1	8
564.744	1	14
564.914	1	11
565.084	1	-1
565.254	1	9
565.424	1	-6
565.594	1	3
565.764	1	5
565.934	1	2
566.104	1	-2
566.274	1	4
566.444	1	7
566.614	1	-3
566.783	1	6
566.953	1	14
567.123	1	-4
567.293	1	-2
567.463	1	3
567.633	1	1
567.803	1	8
567.973	1	2
568.143	1	7
568.313	1	7
568.483	1	13
568.653	1	-7
568.823	1	1
568.993	1	-1
569.162	1	1
569.332	1	2
569.502	1	4
569.672	1	12
569.842	1	9
570.012	1	-10
570.182	1	-1
570.352	1	11
570.522	1	-2
570.692	1	-1
570.862	1	-8
571.031	1	11
571.201	1	8
571.371	1	-15
571.541	1	0
571.711	1	0
571.881	1	-4
572.051	1	-3
572.221	1	2
572.391	1	6
572.561	1	8
572.731	1	3
572.900	1	6
573.070	1	-4
573.240	1	-8
573.410	1	6
573.580	1	2
573.750	1	-2
573.920	1	11
574.090	1	6
574.260	1	3
574.430	1	0
574.599	1	8
574.769	1	0
574.939	1	-3
575.109	1	6
575.279	1	-2
575.449	1	-5
575.619	1	-2
575.789	1	-4
575.959	1	2
576.128	1	1
576.298	1	-3
576.468	1	-5
576.638	1	12
576.808	1	2
576.978	1	2
577.148	1	-5
577.318	1	6
577.487	1	-4
577.657	1	6
577.827	1	-8
577.997	1	3
578.167	1	8
578.337	1	1
578.507	1	2
578.677	1	7
578.846	1	-3
579.016	1	2
579.186	1	10
579.356	1	1
579.526	1	-12
579.696	1	2
579.866	1	-8
580.036	1	5
580.205	1	2
580.375	1	4
580.545	1	9
580.715	1	10
580.885	1	0
581.055	1	-1
581.225	1	-4
581.394	1	7
581.564	1	0
581.734	1	2
581.904	1	-4
582.074	1	-1
582.244	1	2
582.414	1	0
582.583	1	7
582.753	1	0
582.923	1	-5
583.093	1	2
583.263	1	-2
583.433	1	9
583.603	1	-2
583.772	1	6
583.942	1	-5
584.112	1	2
584.282	1	-1
584.452	1	1
584.622	1	-8
584.791	1	2
584.961	1	-5
585.131	1	5
585.301	1	-6
585.471	1	-4
585.641	1	13
585.811	1	4
585.980	1	3
586.150	1	3
586.320	1	2
586.490	1	-2
586.660	1	2
586.830	1	-2
586.999	1	0
587.169	1	-2
587.339	1	-3
587.509	1	3
587.679	1	4
587.849	1	7
588.018	1	-4
588.188	1	11
588.358	1	13
588.528	1	-9
588.698	1	0
588.867	1	4
589.037	1	3
589.207	1	8
589.377	1	2
589.547	1	7
589.717	1	1
589.886	1	4
590.056	1	-1
590.226	1	-4
590.396	1	-3
590.566	1	-2
590.735	1	-2
590.905	1	2
591.075	1	5
591.245	1	5
591.415	1	5
591.585	1	-5
591.754	1	4
591.924	1	1
592.094	1	0
592.264	1	0
592.434	1	-1
592.603	1	-2
592.773	1	1
592.943	1	-1
593.113	1	-1
593.283	1	5
593.452	1	3
593.622	1	-1
593.792	1	0
593.962	1	4
594.132	1	-1
594.301	1	-2
594.471	1	-8
594.641	1	1
594.811	1	7
594.981	1	9
595.150	1	-2
595.320	1	7
595.490	1	-1
595.660	1	3
595.829	1	-11
595.999	1	-4
596.169	1	-1
596.339	1	3
596.509	1	16
596.678	1	1
596.848	1	6
597.018	1	-3
597.188	1	1
597.358	1	0
597.527	1	-2
597.697	1	-2
597.867	1	2
598.037	1	6
598.206	1	5
598.376	1	-7
598.546	1	6
598.716	1	7
598.885	1	3
599.055	1	-9
599.225	1	-5
599.395	1	-3
599.565	1	2
599.734	1	7
599.904	1	4
600.074	1	4
600.244	1	-5
600.413	1	4
600.583	1	5
600.753	1	12
600.923	1	4
601.092	1	-3
601.262	1	-6
601.432	1	-10
601.602	1	13
601.771	1	0
601.941	1	1
602.111	1	-4
602.281	1	0
602.451	1	-6
602.620	1	11
602.790	1	5
602.960	1	-9
603.130	1	5
603.299	1	8
603.469	1	2
603.639	1	4
603.809	1	3
603.978	1	2
604.148	1	-6
604.318	1	-5
604.487	1	9
604.657	1	5
604.827	1	7
604.997	1	8
605.166	1	4
605.336	1	-1
605.506	1	-2
605.676	1	-5
605.845	1	9
606.015	1	0
606.185	1	0
606.355	1	-14
606.524	1	5
606.694	1	11
606.864	1	10
607.034	1	-8
607.203	1	4
607.373	1	1
607.543	1	-3
607.712	1	-2
607.882	1	11
608.052	1	4
608.222	1	-2
608.391	1	-1
608.561	1	-3
608.731	1	-7
608.901	1	8
609.070	1	8
609.240	1	7
609.410	1	6
609.579	1	-1
609.749	1	-4
609.919	1	-10
610.089	1	7
610.258	1	12
610.428	1	5
610.598	1	-8
610.767	1	9
610.937	1	-2
611.107	1	9
611.277	1	14
611.446	1	4
611.616	1	12
611.786	1	-1
611.955	1	2
612.125	1	7
612.295	1	-2
612.465	1	-4
612.634	1	5
612.804	1	-8
612.974	1	1
613.143	1	-8
613.313	1	11
613.483	1	1
613.652	1	10
613.822	1	0
613.992	1	6
614.162	1	5
614.331	1	2
614.501	1	5
614.671	1	3
614.840	1	5
615.010	1	5
615.180	1	0
615.349	1	2
615.519	1	-5
615.689	1	3
615.858	1	-7
616.028	1	9
616.198	1	7
616.368	1	11
616.537	1	-5
616.707	1	1
616.877	1	-10
617.046	1	1
617.216	1	3
617.386	1	11
617.555	1	7
617.725	1	1
617.895	1	4
618.064	1	-3
618.234	1	-10
618.404	1	-5
618.573	1	7
618.743	1	1
618.913	1	-3
619.082	1	18
619.252	1	-9
619.422	1	15
619.591	1	6
619.761	1	11
619.931	1	10
620.100	1	4
620.270	1	-8
620.440	1	3
620.609	1	9
620.779	1	8
620.949	1	10
621.118	1	8
621.288	1	2
621.458	1	2
621.627	1	0
621.797	1	1
621.967	1	8
622.136	1	6
622.306	1	1
622.476	1	2
622.645	1	5
622.815	1	3
622.985	1	-5
623.154	1	-2
623.324	1	3
623.494	1	-8
623.663	1	7
623.833	1	0
624.002	1	3
624.172	1	7
624.342	1	3
624.511	1	-6
624.681	1	10
624.851	1	-2
625.020	1	0
625.190	1	5
625.360	1	-3
625.529	1	-1
625.699	1	8
625.869	1	12
626.038	1	4
626.208	1	-2
626.377	1	4
626.547	1	2
626.717	1	6
626.886	1	2
627.056	1	4
627.226	1	3
627.395	1	-5
627.565	1	4
627.735	1	-5
627.904	1	5
628.074	1	6
628.243	1	17
628.413	1	-4
628.583	1	8
628.752	1	2
628.922	1	4
629.091	1	0
629.261	1	1
629.431	1	-4
629.600	1	1
629.770	1	7
629.940	1	9
630.109	1	-6
630.279	1	-2
630.448	1	3
630.618	1	1
630.788	1	1
630.957	1	10
631.127	1	-9
631.297	1	1
631.466	1	-1
631.636	1	0
631.805	1	7
631.975	1	-7
632.145	1	9
632.314	1	-8
632.484	1	4
632.653	1	1
632.823	1	-5
632.993	1	5
633.162	1	-1
633.332	1	-3
633.501	1	-2
633.671	1	-2
633.841	1	-2
634.010	1	-1
634.180	1	-3
634.349	1	10
634.519	1	-2
634.689	1	-4
634.858	1	6
635.028	1	-10
635.197	1	-3
635.367	1	8
635.537	1	1
635.706	1	-14
635.876	1	3
636.045	1	-13
636.215	1	1
636.384	1	7
636.554	1	-14
636.724	1	4
636.893	1	2
637.063	1	-7
637.232	1	-1
637.402	1	1
637.572	1	-4
637.741	1	-2
637.911	1	10
638.080	1	7
638.250	1	-13
638.419	1	-14
638.589	1	10
638.759	1	4
638.928	1	3
639.098	1	2
639.267	1	4
639.437	1	-1
639.606	1	8
639.776	1	1
639.946	1	-1
640.115	1	-9
640.285	1	-16
640.454	1	-3
640.624	1	1
640.793	1	-3
640.963	1	2
641.132	1	1
641.302	1	10
641.472	1	9
641.641	1	5
641.811	1	-10
641.980	1	11
642.150	1	-4
642.319	1	15
642.489	1	6
642.659	1	4
642.828	1	7
642.998	1	-5
643.167	1	2
643.337	1	1
643.506	1	1
643.676	1	5
643.845	1	1
644.015	1	4
644.184	1	11
644.354	1	11
644.524	1	-6
644.693	1	-10
644.863	1	0
645.032	1	-1
645.202	1	2
645.371	1	0
645.541	1	2
645.710	1	-1
645.880	1	5
646.049	1	5
646.219	1	-3
646.388	1	-3
646.558	1	-5
646.728	1	4
646.897	1	-15
647.067	1	9
647.236	1	-12
647.406	1	3
647.575	1	12
647.745	1	0
647.914	1	3
648.084	1	-7
648.253	1	3
648.423	1	8
648.592	1	3
648.762	1	9
648.931	1	11
649.101	1	-15
649.270	1	7
649.440	1	-3
649.610	1	2
649.779	1	-11
649.949	1	1
650.118	1	-2
650.288	1	1
650.457	1	15
650.627	1	-5
650.796	1	4
650.966	1	3
651.135	1	-3
651.305	1	10
651.474	1	2
651.644	1	5
651.813	1	4
651.983	1	-1
652.152	1	6
652.322	1	-3
652.491	1	-2
652.661	1	2
652.830	1	2
653.000	1	6
653.169	1	-6
653.339	1	-2
653.508	1	-3
653.678	1	12
653.847	1	6
654.017	1	11
654.186	1	2
654.356	1	3
654.525	1	-6
654.695	1	14
654.864	1	0
655.034	1	-2
655.203	1	1
655.373	1	1
655.542	1	-1
655.712	1	11
655.881	1	-9
656.051	1	-11
656.220	1	6
656.390	1	-6
656.559	1	13
656.729	1	3
656.898	1	6
657.068	1	-13
657.237	1	-7
657.406	1	0
657.576	1	5
657.745	1	14
657.915	1	-5
658.084	1	2
658.254	1	-1
658.423	1	5
658.593	1	6
658.762	1	-7
658.932	1	1
659.101	1	6
659.271	1	0
659.440	1	1
659.610	1	-3
659.779	1	0
659.949	1	-8
660.118	1	4
660.288	1	-2
660.457	1	-3
660.626	1	1
660.796	1	8
660.965	1	4
661.135	1	5
661.304	1	7
661.474	1	2
661.643	1	7
661.813	1	1
661.982	1	2
662.152	1	-2
662.321	1	-4
662.491	1	-4
662.660	1	10
662.829	1	-2
662.999	1	9
663.168	1	-1
663.338	1	-1
663.507	1	9
663.677	1	0
663.846	1	-1
664.016	1	-11
664.185	1	-1
664.354	1	0
664.524	1	13
664.693	1	-8
664.863	1	-2
665.032	1	10
665.202	1	3
665.371	1	14
665.541	1	3
665.710	1	3
665.879	1	-3
666.049	1	11
666.218	1	0
666.388	1	6
666.557	1	-5
666.727	1	0
666.896	1	2
667.065	1	9
667.235	1	-1
667.404	1	5
667.574	1	0
667.743	1	-2
667.913	1	0
668.082	1	1
668.251	1	-5
668.421	1	-1
668.590	1	-5
668.760	1	4
668.929	1	5
669.099	1	5
669.268	1	1
669.437	1	-4
669.607	1	-4
669.776	1	-7
669.946	1	-2
670.115	1	-4
670.285	1	1
670.454	1	6
670.623	1	1
670.793	1	0
670.962	1	-1
671.132	1	-8
671.301	1	-2
671.470	1	-3
671.640	1	1
671.809	1	0
671.979	1	-5
672.148	1	11
672.317	1	5
672.487	1	-4
672.656	1	3
672.826	1	3
672.995	1	7
673.164	1	0
673.334	1	-1
673.503	1	-1
673.673	1	7
673.842	1	-2
674.011	1	3
674.181	1	3
674.350	1	5
674.520	1	6
674.689	1	-3
674.858	1	-3
675.028	1	3
675.197	1	2
675.367	1	4
675.536	1	-5
675.705	1	-2
675.875	1	1
676.044	1	-5
676.214	1	3
676.383	1	4
676.552	1	-5
676.722	1	-7
676.891	1	5
677.060	1	9
677.230	1	-3
677.399	1	13
677.569	1	10
677.738	1	-6
677.907	1	14
678.077	1	-4
678.246	1	7
678.416	1	-13
678.585	1	-4
678.754	1	5
678.924	1	6
679.093	1	-2
679.262	1	-2
679.432	1	-5
679.601	1	3
679.771	1	-1
679.940	1	-2
680.109	1	2
680.279	1	4
680.448	1	5
680.617	1	0
680.787	1	-13
680.956	1	-6
681.125	1	-1
681.295	1	0
681.464	1	-1
681.634	1	10
681.803	1	-10
681.972	1	-2
682.142	1	6
682.311	1	-1
682.480	1	-4
682.650	1	-6
682.819	1	-1
682.988	1	-2
683.158	1	-8
683.327	1	-1
683.496	1	2
683.666	1	9
683.835	1	-1
684.004	1	-10
684.174	1	0
684.343	1	4
684.512	1	2
684.682	1	8
684.851	1	-5
685.021	1	-3
685.190	1	-2
685.359	1	2
685.529	1	1
685.698	1	2
685.867	1	-9
686.037	1	1
686.206	1	-7
686.375	1	3
686.545	1	-2
686.714	1	8
686.883	1	8
687.053	1	11
687.222	1	2
687.391	1	1
687.561	1	3
687.730	1	10
687.899	1	-2
688.069	1	-2
688.238	1	0
688.407	1	3
688.577	1	4
688.746	1	-5
