340.368	1	4
340.539	1	7
340.710	1	0
340.881	1	3
341.052	1	9
341.223	1	10
341.394	1	-9
341.565	1	7
341.737	1	3
341.908	1	21
342.079	1	0
342.250	1	12
342.421	1	6
342.592	1	10
342.763	1	6
342.934	1	13
343.105	1	4
343.276	1	6
343.447	1	5
343.618	1	15
343.789	1	6
343.960	1	8
344.131	1	-6
344.302	1	15
344.473	1	1
344.644	1	3
344.815	1	8
344.986	1	4
345.157	1	8
345.328	1	10
345.499	1	8
345.670	1	3
345.841	1	14
346.012	1	1
346.183	1	7
346.354	1	1
346.526	1	3
346.697	1	11
346.868	1	-8
347.039	1	11
347.210	1	-1
347.381	1	19
347.552	1	21
347.723	1	8
347.894	1	1
348.065	1	3
348.236	1	11
348.407	1	12
348.578	1	13
348.749	1	12
348.920	1	3
349.091	1	6
349.262	1	10
349.433	1	9
349.604	1	0
349.775	1	9
349.946	1	-4
350.117	1	7
350.288	1	-7
350.459	1	8
350.630	1	-7
350.801	1	5
350.972	1	19
351.143	1	5
351.314	1	-2
351.485	1	14
351.656	1	14
351.827	1	4
351.998	1	11
352.169	1	9
352.340	1	15
352.511	1	2
352.682	1	-20
352.853	1	-7
353.024	1	21
353.195	1	2
353.366	1	13
353.537	1	-2
353.708	1	6
353.879	1	14
354.050	1	-6
354.221	1	0
354.392	1	-1
354.563	1	19
354.734	1	6
354.905	1	7
355.076	1	15
355.247	1	8
355.418	1	3
355.589	1	9
355.760	1	8
355.931	1	10
356.102	1	3
356.273	1	11
356.444	1	12
356.615	1	12
356.785	1	9
356.956	1	13
357.127	1	15
357.298	1	-3
357.469	1	10
357.640	1	10
357.811	1	7
357.982	1	10
358.153	1	-5
358.324	1	6
358.495	1	12
358.666	1	13
358.837	1	18
359.008	1	2
359.179	1	14
359.350	1	7
359.521	1	11
359.692	1	-2
359.863	1	10
360.034	1	0
360.205	1	17
360.376	1	8
360.547	1	19
360.718	1	15
360.889	1	6
361.060	1	24
361.231	1	18
361.401	1	14
361.572	1	9
361.743	1	12
361.914	1	21
362.085	1	13
362.256	1	19
362.427	1	21
362.598	1	24
362.769	1	13
362.940	1	18
363.111	1	17
363.282	1	14
363.453	1	14
363.624	1	23
363.795	1	20
363.966	1	20
364.137	1	22
364.308	1	31
364.478	1	26
364.649	1	21
364.820	1	36
364.991	1	30
365.162	1	34
365.333	1	28
365.504	1	33
365.675	1	44
365.846	1	30
366.017	1	42
366.188	1	36
366.359	1	32
366.530	1	38
366.701	1	39
366.871	1	47
367.042	1	50
367.213	1	47
367.384	1	38
367.555	1	48
367.726	1	40
367.897	1	44
368.068	1	52
368.239	1	52
368.410	1	56
368.581	1	33
368.752	1	57
368.923	1	25
369.093	1	41
369.264	1	36
369.435	1	48
369.606	1	42
369.777	1	45
369.948	1	47
370.119	1	49
370.290	1	36
370.461	1	28
370.632	1	39
370.803	1	34
370.973	1	39
371.144	1	33
371.315	1	39
371.486	1	41
371.657	1	38
371.828	1	35
371.999	1	32
372.170	1	37
372.341	1	31
372.512	1	24
372.682	1	34
372.853	1	38
373.024	1	32
373.195	1	29
373.366	1	42
373.537	1	24
373.708	1	38
373.879	1	29
374.050	1	39
374.220	1	30
374.391	1	20
374.562	1	34
374.733	1	33
374.904	1	20
375.075	1	22
375.246	1	24
375.417	1	29
375.588	1	10
375.758	1	24
375.929	1	31
376.100	1	12
376.271	1	19
376.442	1	8
376.613	1	21
376.784	1	17
376.955	1	11
377.125	1	7
377.296	1	27
377.467	1	24
377.638	1	11
377.809	1	6
377.980	1	13
378.151	1	11
378.321	1	26
378.492	1	14
378.663	1	12
378.834	1	17
379.005	1	15
379.176	1	18
379.347	1	21
379.518	1	6
379.688	1	18
379.859	1	7
380.030	1	18
380.201	1	17
380.372	1	13
380.543	1	9
380.714	1	16
380.884	1	7
381.055	1	9
381.226	1	6
381.397	1	13
381.568	1	8
381.739	1	-8
381.910	1	19
382.080	1	6
382.251	1	11
382.422	1	16
382.593	1	8
382.764	1	18
382.935	1	10
383.105	1	7
383.276	1	12
383.447	1	7
383.618	1	10
383.789	1	3
383.960	1	13
384.130	1	4
384.301	1	7
384.472	1	13
384.643	1	1
384.814	1	16
384.985	1	13
385.156	1	9
385.326	1	2
385.497	1	14
385.668	1	16
385.839	1	19
386.010	1	1
386.180	1	6
386.351	1	12
386.522	1	13
386.693	1	-1
386.864	1	3
387.035	1	19
387.205	1	9
387.376	1	11
387.547	1	5
387.718	1	7
387.889	1	4
388.060	1	9
388.230	1	12
388.401	1	2
388.572	1	-3
388.743	1	2
388.914	1	6
389.084	1	16
389.255	1	9
389.426	1	5
389.597	1	11
389.768	1	12
389.939	1	12
390.109	1	1
390.280	1	2
390.451	1	2
390.622	1	4
390.793	1	4
390.963	1	-2
391.134	1	15
391.305	1	8
391.476	1	2
391.647	1	7
391.817	1	0
391.988	1	13
392.159	1	-4
392.330	1	6
392.501	1	10
392.671	1	12
392.842	1	4
393.013	1	17
393.184	1	7
393.355	1	13
393.525	1	-8
393.696	1	8
393.867	1	6
394.038	1	13
394.208	1	7
394.379	1	10
394.550	1	9
394.721	1	2
394.892	1	11
395.062	1	-3
395.233	1	6
395.404	1	-1
395.575	1	12
395.746	1	-4
395.916	1	12
396.087	1	12
396.258	1	11
396.429	1	5
396.599	1	7
396.770	1	19
396.941	1	6
397.112	1	3
397.283	1	9
397.453	1	7
397.624	1	7
397.795	1	6
397.966	1	12
398.136	1	1
398.307	1	11
398.478	1	6
398.649	1	2
398.819	1	7
398.990	1	13
399.161	1	11
399.332	1	10
399.503	1	12
399.673	1	5
399.844	1	5
400.015	1	-4
400.186	1	12
400.356	1	-1
400.527	1	13
400.698	1	13
400.869	1	1
401.039	1	6
401.210	1	4
401.381	1	9
401.552	1	7
401.722	1	11
401.893	1	10
402.064	1	7
402.235	1	6
402.405	1	3
402.576	1	7
402.747	1	19
402.918	1	3
403.088	1	6
403.259	1	10
403.430	1	1
403.601	1	15
403.771	1	3
403.942	1	5
404.113	1	16
404.284	1	12
404.454	1	11
404.625	1	1
404.796	1	22
404.967	1	7
405.137	1	22
405.308	1	-7
405.479	1	14
405.649	1	-3
405.820	1	3
405.991	1	8
406.162	1	3
406.332	1	2
406.503	1	13
406.674	1	0
406.845	1	11
407.015	1	13
407.186	1	1
407.357	1	15
407.527	1	-4
407.698	1	7
407.869	1	11
408.040	1	22
408.210	1	18
408.381	1	2
408.552	1	7
408.722	1	14
408.893	1	2
409.064	1	13
409.235	1	8
409.405	1	0
409.576	1	12
409.747	1	7
409.917	1	19
410.088	1	13
410.259	1	0
410.430	1	9
410.600	1	5
410.771	1	9
410.942	1	13
411.112	1	8
411.283	1	0
411.454	1	14
411.625	1	7
411.795	1	7
411.966	1	13
412.137	1	12
412.307	1	10
412.478	1	7
412.649	1	14
412.819	1	7
412.990	1	4
413.161	1	9
413.332	1	16
413.502	1	14
413.673	1	2
413.844	1	26
414.014	1	4
414.185	1	6
414.356	1	14
414.526	1	1
414.697	1	10
414.868	1	7
415.038	1	18
415.209	1	6
415.380	1	11
415.550	1	9
415.721	1	20
415.892	1	7
416.063	1	20
416.233	1	8
416.404	1	7
416.575	1	6
416.745	1	13
416.916	1	8
417.087	1	7
417.257	1	2
417.428	1	16
417.599	1	11
417.769	1	3
417.940	1	2
418.111	1	9
418.281	1	12
418.452	1	10
418.623	1	9
418.793	1	9
418.964	1	17
419.135	1	9
419.305	1	17
419.476	1	6
419.647	1	7
419.817	1	14
419.988	1	21
420.159	1	15
420.329	1	18
420.500	1	9
420.671	1	17
420.841	1	6
421.012	1	0
421.183	1	16
421.353	1	16
421.524	1	9
421.695	1	13
421.865	1	5
422.036	1	20
422.206	1	10
422.377	1	4
422.548	1	15
422.718	1	7
422.889	1	11
423.060	1	18
423.230	1	16
423.401	1	9
423.572	1	9
423.742	1	17
423.913	1	2
424.084	1	12
424.254	1	5
424.425	1	18
424.595	1	14
424.766	1	6
424.937	1	14
425.107	1	14
425.278	1	4
425.449	1	7
425.619	1	11
425.790	1	7
425.961	1	17
426.131	1	10
426.302	1	5
426.472	1	21
426.643	1	8
426.814	1	4
426.984	1	11
427.155	1	16
427.326	1	10
427.496	1	7
427.667	1	12
427.837	1	12
428.008	1	9
428.179	1	16
428.349	1	14
428.520	1	16
428.691	1	12
428.861	1	16
429.032	1	6
429.202	1	0
429.373	1	5
429.544	1	5
429.714	1	19
429.885	1	8
430.055	1	17
430.226	1	-3
430.397	1	11
430.567	1	-1
430.738	1	18
430.909	1	3
431.079	1	12
431.250	1	6
431.420	1	11
431.591	1	13
431.762	1	7
431.932	1	4
432.103	1	13
432.273	1	10
432.444	1	15
432.615	1	9
432.785	1	6
432.956	1	6
433.126	1	7
433.297	1	2
433.468	1	14
433.638	1	11
433.809	1	11
433.979	1	10
434.150	1	8
434.320	1	12
434.491	1	13
434.662	1	7
434.832	1	-1
435.003	1	11
435.173	1	17
435.344	1	12
435.515	1	4
435.685	1	7
435.856	1	10
436.026	1	6
436.197	1	8
436.368	1	4
436.538	1	7
436.709	1	0
436.879	1	7
437.050	1	1
437.220	1	12
437.391	1	7
437.562	1	14
437.732	1	13
437.903	1	2
438.073	1	10
438.244	1	21
438.414	1	10
438.585	1	13
438.756	1	6
438.926	1	12
439.097	1	8
439.267	1	8
439.438	1	6
439.608	1	7
439.779	1	4
439.949	1	18
440.120	1	8
440.291	1	19
440.461	1	5
440.632	1	6
440.802	1	6
440.973	1	22
441.143	1	11
441.314	1	9
441.485	1	9
441.655	1	16
441.826	1	-2
441.996	1	7
442.167	1	10
442.337	1	12
442.508	1	10
442.678	1	7
442.849	1	12
443.019	1	11
443.190	1	15
443.361	1	18
443.531	1	7
443.702	1	9
443.872	1	2
444.043	1	10
444.213	1	-10
444.384	1	7
444.554	1	13
444.725	1	21
444.895	1	-2
445.066	1	7
445.237	1	10
445.407	1	11
445.578	1	7
445.748	1	3
445.919	1	6
446.089	1	14
446.260	1	11
446.430	1	11
446.601	1	4
446.771	1	10
446.942	1	7
447.112	1	17
447.283	1	17
447.453	1	-1
447.624	1	-2
447.794	1	9
447.965	1	3
448.135	1	10
448.306	1	3
448.477	1	14
448.647	1	3
448.818	1	6
448.988	1	11
449.159	1	3
449.329	1	14
449.500	1	1
449.670	1	6
449.841	1	8
450.011	1	1
450.182	1	9
450.352	1	7
450.523	1	2
450.693	1	10
450.864	1	10
451.034	1	10
451.205	1	3
451.375	1	0
451.546	1	7
451.716	1	4
451.887	1	16
452.057	1	4
452.228	1	8
452.398	1	10
452.569	1	3
452.739	1	6
452.910	1	-7
453.080	1	6
453.251	1	-2
453.421	1	13
453.592	1	-2
453.762	1	11
453.933	1	-4
454.103	1	8
454.274	1	8
454.444	1	5
454.615	1	6
454.785	1	6
454.956	1	6
455.126	1	3
455.297	1	9
455.467	1	7
455.638	1	6
455.808	1	12
455.979	1	12
456.149	1	3
456.320	1	14
456.490	1	4
456.661	1	-8
456.831	1	5
457.001	1	12
457.172	1	2
457.342	1	1
457.513	1	10
457.683	1	8
457.854	1	8
458.024	1	7
458.195	1	8
458.365	1	-1
458.536	1	9
458.706	1	13
458.877	1	11
459.047	1	-5
459.218	1	11
459.388	1	7
459.559	1	5
459.729	1	8
459.899	1	-1
460.070	1	7
460.240	1	0
460.411	1	11
460.581	1	1
460.752	1	2
460.922	1	-1
461.093	1	4
461.263	1	10
461.434	1	1
461.604	1	-2
461.775	1	9
461.945	1	8
462.115	1	12
462.286	1	-3
462.456	1	8
462.627	1	7
462.797	1	0
462.968	1	15
463.138	1	-1
463.309	1	6
463.479	1	0
463.649	1	2
463.820	1	19
463.990	1	12
464.161	1	3
464.331	1	10
464.502	1	4
464.672	1	11
464.843	1	12
465.013	1	4
465.183	1	-3
465.354	1	10
465.524	1	6
465.695	1	5
465.865	1	-6
466.036	1	13
466.206	1	0
466.376	1	25
466.547	1	12
466.717	1	3
466.888	1	5
467.058	1	7
467.229	1	7
467.399	1	4
467.569	1	4
467.740	1	20
467.910	1	6
468.081	1	6
468.251	1	0
468.422	1	2
468.592	1	0
468.762	1	14
468.933	1	6
469.103	1	-1
469.274	1	2
469.444	1	-4
469.614	1	-2
469.785	1	2
469.955	1	3
470.126	1	2
470.296	1	8
470.467	1	7
470.637	1	3
470.807	1	6
470.978	1	9
471.148	1	4
471.319	1	-4
471.489	1	6
471.659	1	3
471.830	1	15
472.000	1	-13
472.171	1	15
472.341	1	10
472.511	1	2
472.682	1	4
472.852	1	11
473.023	1	10
473.193	1	7
473.363	1	10
473.534	1	8
473.704	1	3
473.875	1	10
474.045	1	-2
474.215	1	9
474.386	1	0
474.556	1	1
474.727	1	6
474.897	1	-3
475.067	1	2
475.238	1	2
475.408	1	4
475.578	1	5
475.749	1	3
475.919	1	6
476.090	1	3
476.260	1	0
476.430	1	-1
476.601	1	8
476.771	1	4
476.942	1	7
477.112	1	4
477.282	1	-6
477.453	1	5
477.623	1	1
477.793	1	4
477.964	1	9
478.134	1	13
478.305	1	9
478.475	1	11
478.645	1	6
478.816	1	1
478.986	1	8
479.156	1	2
479.327	1	-2
479.497	1	0
479.667	1	1
479.838	1	24
480.008	1	1
480.179	1	8
480.349	1	8
480.519	1	9
480.690	1	13
480.860	1	7
481.030	1	-3
481.201	1	-1
481.371	1	0
481.541	1	-4
481.712	1	15
481.882	1	2
482.053	1	17
482.223	1	6
482.393	1	12
482.564	1	2
482.734	1	12
482.904	1	-2
483.075	1	14
483.245	1	9
483.415	1	11
483.586	1	16
483.756	1	-4
483.926	1	6
484.097	1	3
484.267	1	4
484.437	1	3
484.608	1	-1
484.778	1	-3
484.948	1	7
485.119	1	3
485.289	1	9
485.459	1	-1
485.630	1	7
485.800	1	5
485.970	1	-6
486.141	1	17
486.311	1	12
486.481	1	0
486.652	1	-4
486.822	1	19
486.992	1	7
487.163	1	-1
487.333	1	1
487.503	1	3
487.674	1	2
487.844	1	-1
488.014	1	14
488.185	1	13
488.355	1	2
488.525	1	2
488.696	1	10
488.866	1	-2
489.036	1	3
489.207	1	12
489.377	1	-1
489.547	1	2
489.718	1	-5
489.888	1	10
490.058	1	8
490.228	1	3
490.399	1	9
490.569	1	2
490.739	1	3
490.910	1	8
491.080	1	4
491.250	1	11
491.421	1	4
491.591	1	13
491.761	1	5
491.932	1	16
492.102	1	5
492.272	1	-1
492.442	1	10
492.613	1	2
492.783	1	15
492.953	1	9
493.124	1	4
493.294	1	-9
493.464	1	-2
493.635	1	10
493.805	1	12
493.975	1	17
494.145	1	1
494.316	1	-3
494.486	1	2
494.656	1	15
494.827	1	14
494.997	1	-5
495.167	1	12
495.337	1	5
495.508	1	9
495.678	1	-2
495.848	1	-6
496.019	1	1
496.189	1	-2
496.359	1	3
496.529	1	10
496.700	1	5
496.870	1	3
497.040	1	-1
497.211	1	4
497.381	1	5
497.551	1	4
497.721	1	-11
497.892	1	2
498.062	1	4
498.232	1	11
498.403	1	11
498.573	1	5
498.743	1	11
498.913	1	8
499.084	1	7
499.254	1	1
499.424	1	-3
499.594	1	13
499.765	1	4
499.935	1	20
500.105	1	9
500.275	1	2
500.446	1	3
500.616	1	1
500.786	1	3
500.956	1	13
501.127	1	7
501.297	1	3
501.467	1	10
501.638	1	7
501.808	1	8
501.978	1	13
502.148	1	3
502.319	1	9
502.489	1	-2
502.659	1	14
502.829	1	-2
503.000	1	11
503.170	1	13
503.340	1	5
503.510	1	6
503.681	1	16
503.851	1	11
504.021	1	4
504.191	1	7
504.362	1	8
504.532	1	9
504.702	1	1
504.872	1	-2
505.042	1	14
505.213	1	2
505.383	1	17
505.553	1	10
505.723	1	19
505.894	1	18
506.064	1	2
506.234	1	18
506.404	1	6
506.575	1	23
506.745	1	0
506.915	1	8
507.085	1	7
507.256	1	17
507.426	1	9
507.596	1	20
507.766	1	15
507.936	1	11
508.107	1	5
508.277	1	16
508.447	1	15
508.617	1	5
508.788	1	13
508.958	1	16
509.128	1	19
509.298	1	7
509.468	1	9
509.639	1	6
509.809	1	10
509.979	1	-1
510.149	1	8
510.319	1	12
510.490	1	0
510.660	1	11
510.830	1	-2
511.000	1	7
511.171	1	15
511.341	1	17
511.511	1	12
511.681	1	14
511.851	1	16
512.022	1	-4
512.192	1	17
512.362	1	14
512.532	1	24
512.702	1	7
512.873	1	3
513.043	1	10
513.213	1	18
513.383	1	10
513.553	1	11
513.724	1	15
513.894	1	1
514.064	1	13
514.234	1	17
514.404	1	18
514.575	1	5
514.745	1	3
514.915	1	6
515.085	1	8
515.255	1	5
515.425	1	15
515.596	1	5
515.766	1	15
515.936	1	7
516.106	1	10
516.276	1	6
516.447	1	14
516.617	1	9
516.787	1	12
516.957	1	10
517.127	1	18
517.297	1	6
517.468	1	16
517.638	1	7
517.808	1	-1
517.978	1	3
518.148	1	20
518.319	1	8
518.489	1	14
518.659	1	19
518.829	1	11
518.999	1	15
519.169	1	1
519.340	1	20
519.510	1	9
519.680	1	12
519.850	1	5
520.020	1	15
520.190	1	4
520.361	1	9
520.531	1	11
520.701	1	12
520.871	1	15
521.041	1	23
521.211	1	10
521.382	1	11
521.552	1	6
521.722	1	2
521.892	1	10
522.062	1	20
522.232	1	20
522.402	1	27
522.573	1	13
522.743	1	14
522.913	1	10
523.083	1	10
523.253	1	11
523.423	1	4
523.593	1	13
523.764	1	8
523.934	1	9
524.104	1	16
524.274	1	13
524.444	1	11
524.614	1	19
524.784	1	9
524.955	1	8
525.125	1	8
525.295	1	15
525.465	1	9
525.635	1	10
525.805	1	10
525.975	1	15
526.146	1	9
526.316	1	6
526.486	1	14
526.656	1	12
526.826	1	11
526.996	1	10
527.166	1	4
527.337	1	13
527.507	1	18
527.677	1	12
527.847	1	-3
528.017	1	8
528.187	1	23
528.357	1	10
528.527	1	13
528.698	1	16
528.868	1	12
529.038	1	9
529.208	1	11
529.378	1	11
529.548	1	17
529.718	1	11
529.888	1	5
530.058	1	12
530.229	1	20
530.399	1	9
530.569	1	7
530.739	1	9
530.909	1	18
531.079	1	9
531.249	1	14
531.419	1	12
531.589	1	20
531.760	1	14
531.930	1	11
532.100	1	22
532.270	1	12
532.440	1	10
532.610	1	18
532.780	1	14
532.950	1	16
533.120	1	9
533.290	1	1
533.461	1	13
533.631	1	16
533.801	1	9
533.971	1	9
534.141	1	19
534.311	1	15
534.481	1	30
534.651	1	0
534.821	1	21
534.991	1	3
535.162	1	15
535.332	1	14
535.502	1	20
535.672	1	8
535.842	1	5
536.012	1	16
536.182	1	19
536.352	1	18
536.522	1	4
536.692	1	11
536.862	1	7
537.032	1	11
537.203	1	13
537.373	1	3
537.543	1	16
537.713	1	13
537.883	1	10
538.053	1	10
538.223	1	24
538.393	1	11
538.563	1	2
538.733	1	20
538.903	1	0
539.073	1	-1
539.243	1	19
539.413	1	14
539.584	1	2
539.754	1	0
539.924	1	5
540.094	1	15
540.264	1	11
540.434	1	7
540.604	1	19
540.774	1	10
540.944	1	9
541.114	1	25
541.284	1	10
541.454	1	-3
541.624	1	13
541.794	1	16
541.964	1	8
542.134	1	6
542.305	1	18
542.475	1	12
542.645	1	8
542.815	1	10
542.985	1	7
543.155	1	15
543.325	1	15
543.495	1	23
543.665	1	13
543.835	1	7
544.005	1	11
544.175	1	5
544.345	1	7
544.515	1	6
544.685	1	5
544.855	1	20
545.025	1	18
545.195	1	4
545.365	1	12
545.535	1	2
545.705	1	13
545.875	1	12
546.045	1	15
546.216	1	3
546.386	1	5
546.556	1	18
546.726	1	12
546.896	1	23
547.066	1	8
547.236	1	14
547.406	1	5
547.576	1	4
547.746	1	8
547.916	1	24
548.086	1	10
548.256	1	9
548.426	1	6
548.596	1	22
548.766	1	14
548.936	1	10
549.106	1	-1
549.276	1	16
549.446	1	16
549.616	1	15
549.786	1	12
549.956	1	14
550.126	1	13
550.296	1	7
550.466	1	5
550.636	1	7
550.806	1	17
550.976	1	0
551.146	1	12
551.316	1	7
551.486	1	13
551.656	1	6
551.826	1	1
551.996	1	4
552.166	1	16
552.336	1	3
552.506	1	3
552.676	1	17
552.846	1	12
553.016	1	8
553.186	1	-3
553.356	1	4
553.526	1	16
553.696	1	-4
553.866	1	11
554.036	1	12
554.206	1	15
554.376	1	19
554.546	1	13
554.716	1	10
554.886	1	11
555.056	1	5
555.226	1	7
555.396	1	13
555.566	1	11
555.736	1	6
555.906	1	-3
556.076	1	-1
556.246	1	5
556.416	1	12
556.586	1	9
556.756	1	3
556.926	1	4
557.096	1	7
557.266	1	15
557.436	1	13
557.606	1	-2
557.776	1	14
557.946	1	14
558.116	1	15
558.286	1	4
558.456	1	1
558.626	1	5
558.796	1	8
558.966	1	13
559.136	1	9
559.306	1	12
559.476	1	10
559.646	1	17
559.816	1	1
559.986	1	8
560.155	1	13
560.325	1	12
560.495	1	10
560.665	1	10
560.835	1	-1
561.005	1	-2
561.175	1	9
561.345	1	9
561.515	1	13
561.685	1	6
561.855	1	5
562.025	1	7
562.195	1	3
562.365	1	6
562.535	1	6
562.705	1	13
562.875	1	9
563.045	1	19
563.215	1	-1
563.385	1	5
563.555	1	15
563.725	1	10
563.895	1	10
564.064	1	11
564.234	1	3
564.404	1	-1
564.574	1	-2
564.744	1	26
564.914	1	18
565.084	1	7
565.254	1	11
565.424	1	1
565.594	1	12
565.764	1	7
565.934	1	16
566.104	1	17
566.274	1	11
566.444	1	11
566.614	1	10
566.783	1	2
566.953	1	10
567.123	1	11
567.293	1	2
567.463	1	6
567.633	1	2
567.803	1	12
567.973	1	4
568.143	1	-4
568.313	1	2
568.483	1	16
568.653	1	3
568.823	1	0
568.993	1	13
569.162	1	2
569.332	1	5
569.502	1	8
569.672	1	10
569.842	1	0
570.012	1	-12
570.182	1	3
570.352	1	8
570.522	1	16
570.692	1	10
570.862	1	-1
571.031	1	19
571.201	1	4
571.371	1	8
571.541	1	12
571.711	1	10
571.881	1	7
572.051	1	17
572.221	1	18
572.391	1	3
572.561	1	12
572.731	1	8
572.900	1	25
573.070	1	4
573.240	1	-2
573.410	1	7
573.580	1	10
573.750	1	-3
573.920	1	9
574.090	1	12
574.260	1	14
574.430	1	9
574.599	1	7
574.769	1	7
574.939	1	10
575.109	1	18
575.279	1	-3
575.449	1	-2
575.619	1	4
575.789	1	6
575.959	1	4
576.128	1	8
576.298	1	-1
576.468	1	7
576.638	1	7
576.808	1	1
576.978	1	5
577.148	1	-5
577.318	1	14
577.487	1	6
577.657	1	3
577.827	1	2
577.997	1	11
578.167	1	21
578.337	1	1
578.507	1	8
578.677	1	12
578.846	1	-6
579.016	1	1
579.186	1	18
579.356	1	8
579.526	1	-2
579.696	1	7
579.866	1	3
580.036	1	19
580.205	1	-2
580.375	1	12
580.545	1	11
580.715	1	13
580.885	1	7
581.055	1	9
581.225	1	11
581.394	1	11
581.564	1	6
581.734	1	7
581.904	1	7
582.074	1	2
582.244	1	1
582.414	1	0
582.583	1	4
582.753	1	4
582.923	1	12
583.093	1	18
583.263	1	2
583.433	1	19
583.603	1	2
583.772	1	6
583.942	1	0
584.112	1	12
584.282	1	2
584.452	1	3
584.622	1	9
584.791	1	12
584.961	1	3
585.131	1	9
585.301	1	6
585.471	1	-1
585.641	1	11
585.811	1	5
585.980	1	6
586.150	1	7
586.320	1	10
586.490	1	5
586.660	1	11
586.830	1	9
586.999	1	4
587.169	1	8
587.339	1	-4
587.509	1	7
587.679	1	6
587.849	1	9
588.018	1	2
588.188	1	2
588.358	1	17
588.528	1	1
588.698	1	6
588.867	1	13
589.037	1	5
589.207	1	13
589.377	1	2
589.547	1	5
589.717	1	8
589.886	1	-3
590.056	1	9
590.226	1	-3
590.396	1	11
590.566	1	6
590.735	1	11
590.905	1	4
591.075	1	3
591.245	1	-2
591.415	1	8
591.585	1	11
591.754	1	-1
591.924	1	3
592.094	1	13
592.264	1	0
592.434	1	4
592.603	1	-10
592.773	1	10
592.943	1	-4
593.113	1	5
593.283	1	11
593.452	1	21
593.622	1	3
593.792	1	-1
593.962	1	12
594.132	1	12
594.301	1	5
594.471	1	-5
594.641	1	9
594.811	1	-4
594.981	1	8
595.150	1	4
595.320	1	11
595.490	1	4
595.660	1	12
595.829	1	-2
595.999	1	2
596.169	1	-1
596.339	1	7
596.509	1	3
596.678	1	-6
596.848	1	4
597.018	1	-1
597.188	1	7
597.358	1	9
597.527	1	8
597.697	1	-6
597.867	1	-1
598.037	1	-2
598.206	1	7
598.376	1	2
598.546	1	11
598.716	1	4
598.885	1	2
599.055	1	7
599.225	1	1
599.395	1	7
599.565	1	2
599.734	1	8
599.904	1	11
600.074	1	2
600.244	1	3
600.413	1	7
600.583	1	7
600.753	1	11
600.923	1	4
601.092	1	8
601.262	1	0
601.432	1	-1
601.602	1	7
601.771	1	6
601.941	1	-2
602.111	1	6
602.281	1	18
602.451	1	3
602.620	1	8
602.790	1	7
602.960	1	-9
603.130	1	15
603.299	1	8
603.469	1	1
603.639	1	14
603.809	1	9
603.978	1	5
604.148	1	-5
604.318	1	3
604.487	1	7
604.657	1	5
604.827	1	15
604.997	1	11
605.166	1	1
605.336	1	1
605.506	1	3
605.676	1	-2
605.845	1	13
606.015	1	2
606.185	1	5
606.355	1	-12
606.524	1	-3
606.694	1	4
606.864	1	9
607.034	1	11
607.203	1	6
607.373	1	-3
607.543	1	6
607.712	1	1
607.882	1	12
608.052	1	-1
608.222	1	2
608.391	1	2
608.561	1	11
608.731	1	-4
608.901	1	10
609.070	1	5
609.240	1	6
609.410	1	11
609.579	1	-2
609.749	1	5
609.919	1	-1
610.089	1	4
610.258	1	4
610.428	1	13
610.598	1	2
610.767	1	17
610.937	1	9
611.107	1	8
611.277	1	8
611.446	1	10
611.616	1	16
611.786	1	-4
611.955	1	-2
612.125	1	13
612.295	1	12
612.465	1	-1
612.634	1	7
612.804	1	-4
612.974	1	1
613.143	1	-10
613.313	1	25
613.483	1	5
613.652	1	15
613.822	1	-1
613.992	1	3
614.162	1	12
614.331	1	11
614.501	1	-1
614.671	1	10
614.840	1	12
615.010	1	-2
615.180	1	-2
615.349	1	2
615.519	1	-5
615.689	1	4
615.858	1	-11
616.028	1	18
616.198	1	12
616.368	1	14
616.537	1	-7
616.707	1	-1
616.877	1	-6
617.046	1	3
617.216	1	0
617.386	1	9
617.555	1	8
617.725	1	10
617.895	1	8
618.064	1	-2
618.234	1	-4
618.404	1	10
618.573	1	3
618.743	1	4
618.913	1	2
619.082	1	18
619.252	1	-1
619.422	1	19
619.591	1	1
619.761	1	-2
619.931	1	10
620.100	1	13
620.270	1	1
620.440	1	9
620.609	1	0
620.779	1	10
620.949	1	6
621.118	1	13
621.288	1	9
621.458	1	3
621.627	1	6
621.797	1	5
621.967	1	7
622.136	1	0
622.306	1	3
622.476	1	5
622.645	1	10
622.815	1	8
622.985	1	-2
623.154	1	-6
623.324	1	8
623.494	1	-5
623.663	1	8
623.833	1	-2
624.002	1	9
624.172	1	11
624.342	1	9
624.511	1	5
624.681	1	3
624.851	1	3
625.020	1	-2
625.190	1	-2
625.360	1	-2
625.529	1	-2
625.699	1	14
625.869	1	10
626.038	1	2
626.208	1	-4
626.377	1	5
626.547	1	7
626.717	1	3
626.886	1	-1
627.056	1	10
627.226	1	12
627.395	1	5
627.565	1	10
627.735	1	1
627.904	1	-2
628.074	1	6
628.243	1	2
628.413	1	11
628.583	1	13
628.752	1	1
628.922	1	8
629.091	1	6
629.261	1	5
629.431	1	-6
629.600	1	3
629.770	1	-4
629.940	1	8
630.109	1	-3
630.279	1	6
630.448	1	14
630.618	1	11
630.788	1	1
630.957	1	13
631.127	1	0
631.297	1	7
631.466	1	1
631.636	1	11
631.805	1	6
631.975	1	4
632.145	1	4
632.314	1	14
632.484	1	15
632.653	1	2
632.823	1	4
632.993	1	5
633.162	1	-3
633.332	1	10
633.501	1	-5
633.671	1	9
633.841	1	-2
634.010	1	-3
634.180	1	-5
634.349	1	17
634.519	1	-4
634.689	1	9
634.858	1	12
635.028	1	-1
635.197	1	6
635.367	1	11
635.537	1	5
635.706	1	-4
635.876	1	11
636.045	1	-1
636.215	1	-6
636.384	1	9
636.554	1	-5
636.724	1	6
636.893	1	12
637.063	1	-1
637.232	1	3
637.402	1	1
637.572	1	14
637.741	1	-4
637.911	1	12
638.080	1	9
638.250	1	-2
638.419	1	4
638.589	1	16
638.759	1	16
638.928	1	5
639.098	1	6
639.267	1	12
639.437	1	5
639.606	1	2
639.776	1	-3
639.946	1	8
640.115	1	-5
640.285	1	0
640.454	1	-3
640.624	1	8
640.793	1	-3
640.963	1	6
641.132	1	2
641.302	1	11
641.472	1	16
641.641	1	7
641.811	1	-4
641.980	1	9
642.150	1	-7
642.319	1	13
642.489	1	5
642.659	1	10
642.828	1	12
642.998	1	4
643.167	1	9
643.337	1	3
643.506	1	8
643.676	1	13
643.845	1	14
644.015	1	0
644.184	1	8
644.354	1	7
644.524	1	4
644.693	1	-7
644.863	1	-2
645.032	1	11
645.202	1	9
645.371	1	3
645.541	1	3
645.710	1	10
645.880	1	8
646.049	1	7
646.219	1	7
646.388	1	0
646.558	1	-3
646.728	1	5
646.897	1	-3
647.067	1	20
647.236	1	-8
647.406	1	8
647.575	1	14
647.745	1	-4
647.914	1	-3
648.084	1	-2
648.253	1	8
648.423	1	15
648.592	1	9
648.762	1	5
648.931	1	-4
649.101	1	0
649.270	1	5
649.440	1	1
649.610	1	6
649.779	1	0
649.949	1	-2
650.118	1	1
650.288	1	3
650.457	1	10
650.627	1	-1
650.796	1	15
650.966	1	7
651.135	1	-6
651.305	1	5
651.474	1	10
651.644	1	8
651.813	1	8
651.983	1	-2
652.152	1	19
652.322	1	-1
652.491	1	2
652.661	1	13
652.830	1	-7
653.000	1	-2
653.169	1	-1
653.339	1	-4
653.508	1	5
653.678	1	15
653.847	1	5
654.017	1	15
654.186	1	10
654.356	1	7
654.525	1	11
654.695	1	15
654.864	1	1
655.034	1	-8
655.203	1	11
655.373	1	6
655.542	1	0
655.712	1	6
655.881	1	13
656.051	1	-8
656.220	1	9
656.390	1	4
656.559	1	6
656.729	1	8
656.898	1	4
657.068	1	6
657.237	1	1
657.406	1	-6
657.576	1	4
657.745	1	15
657.915	1	12
658.084	1	0
658.254	1	12
658.423	1	11
658.593	1	6
658.762	1	-3
658.932	1	8
659.101	1	5
659.271	1	5
659.440	1	6
659.610	1	4
659.779	1	14
659.949	1	4
660.118	1	1
660.288	1	3
660.457	1	-1
660.626	1	-5
660.796	1	22
660.965	1	3
661.135	1	14
661.304	1	7
661.474	1	14
661.643	1	0
661.813	1	5
661.982	1	1
662.152	1	7
662.321	1	0
662.491	1	3
662.660	1	5
662.829	1	16
662.999	1	13
663.168	1	-1
663.338	1	8
663.507	1	7
663.677	1	1
663.846	1	0
664.016	1	-4
664.185	1	-3
664.354	1	6
664.524	1	10
664.693	1	6
664.863	1	-5
665.032	1	-1
665.202	1	7
665.371	1	10
665.541	1	7
665.710	1	8
665.879	1	10
666.049	1	8
666.218	1	13
666.388	1	-3
666.557	1	-3
666.727	1	10
666.896	1	2
667.065	1	13
667.235	1	-8
667.404	1	1
667.574	1	3
667.743	1	10
667.913	1	11
668.082	1	5
668.251	1	-6
668.421	1	11
668.590	1	-2
668.760	1	5
668.929	1	-2
669.099	1	2
669.268	1	6
669.437	1	-6
669.607	1	-11
669.776	1	3
669.946	1	1
670.115	1	4
670.285	1	2
670.454	1	3
670.623	1	9
670.793	1	-3
670.962	1	-2
671.132	1	5
671.301	1	4
671.470	1	10
671.640	1	6
671.809	1	9
671.979	1	-7
672.148	1	3
672.317	1	2
672.487	1	-1
672.656	1	7
672.826	1	-2
672.995	1	7
673.164	1	6
673.334	1	7
673.503	1	0
673.673	1	11
673.842	1	8
674.011	1	5
674.181	1	9
674.350	1	2
674.520	1	7
674.689	1	-5
674.858	1	4
675.028	1	8
675.197	1	13
675.367	1	4
675.536	1	-8
675.705	1	-15
675.875	1	17
676.044	1	0
676.214	1	3
676.383	1	-4
676.552	1	1
676.722	1	5
676.891	1	7
677.060	1	4
677.230	1	-1
677.399	1	12
677.569	1	8
677.738	1	2
677.907	1	12
678.077	1	6
678.246	1	7
678.416	1	5
678.585	1	9
678.754	1	2
678.924	1	-7
679.093	1	11
679.262	1	4
679.432	1	3
679.601	1	7
679.771	1	8
679.940	1	-3
680.109	1	2
680.279	1	7
680.448	1	-1
680.617	1	4
680.787	1	-7
680.956	1	8
681.125	1	12
681.295	1	4
681.464	1	-2
681.634	1	2
681.803	1	0
681.972	1	2
682.142	1	-1
682.311	1	17
682.480	1	-5
682.650	1	6
682.819	1	1
682.988	1	8
683.158	1	-2
683.327	1	4
683.496	1	-8
683.666	1	10
683.835	1	7
684.004	1	-2
684.174	1	8
684.343	1	7
684.512	1	4
684.682	1	8
684.851	1	6
685.021	1	11
685.190	1	2
685.359	1	6
685.529	1	-11
685.698	1	3
685.867	1	2
686.037	1	4
686.206	1	0
686.375	1	12
686.545	1	-3
686.714	1	6
686.883	1	12
687.053	1	20
687.222	1	0
687.391	1	-9
687.561	1	5
687.730	1	3
687.899	1	3
688.069	1	9
688.238	1	9
688.407	1	12
688.577	1	6
688.746	1	3
