340.368	1	-3
340.539	1	-3
340.710	1	11
340.881	1	6
341.052	1	6
341.223	1	12
341.394	1	-12
341.565	1	3
341.737	1	8
341.908	1	16
342.079	1	14
342.250	1	11
342.421	1	1
342.592	1	13
342.763	1	5
342.934	1	10
343.105	1	3
343.276	1	7
343.447	1	3
343.618	1	9
343.789	1	3
343.960	1	2
344.131	1	-4
344.302	1	11
344.473	1	7
344.644	1	6
344.815	1	-1
344.986	1	-1
345.157	1	15
345.328	1	7
345.499	1	8
345.670	1	-3
345.841	1	12
346.012	1	4
346.183	1	-1
346.354	1	4
346.526	1	8
346.697	1	4
346.868	1	-5
347.039	1	5
347.210	1	-1
347.381	1	12
347.552	1	11
347.723	1	10
347.894	1	0
348.065	1	1
348.236	1	10
348.407	1	5
348.578	1	5
348.749	1	15
348.920	1	7
349.091	1	5
349.262	1	10
349.433	1	4
349.604	1	-3
349.775	1	11
349.946	1	8
350.117	1	8
350.288	1	-8
350.459	1	5
350.630	1	-1
350.801	1	2
350.972	1	7
351.143	1	7
351.314	1	6
351.485	1	16
351.656	1	8
351.827	1	12
351.998	1	0
352.169	1	10
352.340	1	9
352.511	1	-7
352.682	1	-11
352.853	1	-2
353.024	1	13
353.195	1	-4
353.366	1	14
353.537	1	-1
353.708	1	-6
353.879	1	16
354.050	1	-4
354.221	1	-5
354.392	1	3
354.563	1	19
354.734	1	8
354.905	1	2
355.076	1	10
355.247	1	1
355.418	1	6
355.589	1	14
355.760	1	6
355.931	1	8
356.102	1	1
356.273	1	5
356.444	1	8
356.615	1	7
356.785	1	12
356.956	1	0
357.127	1	13
357.298	1	-2
357.469	1	10
357.640	1	3
357.811	1	4
357.982	1	11
358.153	1	-9
358.324	1	14
358.495	1	8
358.666	1	4
358.837	1	12
359.008	1	4
359.179	1	5
359.350	1	5
359.521	1	12
359.692	1	-2
359.863	1	3
360.034	1	-1
360.205	1	12
360.376	1	4
360.547	1	11
360.718	1	4
360.889	1	2
361.060	1	24
361.231	1	15
361.401	1	5
361.572	1	13
361.743	1	0
361.914	1	12
362.085	1	10
362.256	1	16
362.427	1	13
362.598	1	15
362.769	1	13
362.940	1	11
363.111	1	8
363.282	1	3
363.453	1	16
363.624	1	13
363.795	1	16
363.966	1	8
364.137	1	15
364.308	1	25
364.478	1	15
364.649	1	13
364.820	1	21
364.991	1	25
365.162	1	25
365.333	1	10
365.504	1	15
365.675	1	26
365.846	1	10
366.017	1	18
366.188	1	22
366.359	1	16
366.530	1	25
366.701	1	9
366.871	1	22
367.042	1	26
367.213	1	37
367.384	1	19
367.555	1	26
367.726	1	34
367.897	1	35
368.068	1	42
368.239	1	29
368.410	1	29
368.581	1	32
368.752	1	45
368.923	1	18
369.093	1	26
369.264	1	30
369.435	1	30
369.606	1	17
369.777	1	30
369.948	1	25
370.119	1	30
370.290	1	31
370.461	1	34
370.632	1	27
370.803	1	22
370.973	1	26
371.144	1	32
371.315	1	30
371.486	1	23
371.657	1	27
371.828	1	28
371.999	1	17
372.170	1	24
372.341	1	24
372.512	1	8
372.682	1	17
372.853	1	25
373.024	1	23
373.195	1	22
373.366	1	21
373.537	1	7
373.708	1	15
373.879	1	12
374.050	1	21
374.220	1	18
374.391	1	15
374.562	1	26
374.733	1	13
374.904	1	17
375.075	1	13
375.246	1	8
375.417	1	8
375.588	1	10
375.758	1	13
375.929	1	13
376.100	1	12
376.271	1	6
376.442	1	18
376.613	1	14
376.784	1	12
376.955	1	23
377.125	1	11
377.296	1	10
377.467	1	16
377.638	1	12
377.809	1	0
377.980	1	4
378.151	1	7
378.321	1	2
378.492	1	3
378.663	1	12
378.834	1	17
379.005	1	12
379.176	1	12
379.347	1	8
379.518	1	6
379.688	1	10
379.859	1	7
380.030	1	11
380.201	1	16
380.372	1	2
380.543	1	8
380.714	1	6
380.884	1	16
381.055	1	7
381.226	1	1
381.397	1	11
381.568	1	1
381.739	1	7
381.910	1	21
382.080	1	7
382.251	1	-2
382.422	1	3
382.593	1	7
382.764	1	9
382.935	1	1
383.105	1	3
383.276	1	11
383.447	1	5
383.618	1	8
383.789	1	-4
383.960	1	9
384.130	1	0
384.301	1	5
384.472	1	-1
384.643	1	8
384.814	1	13
384.985	1	2
385.156	1	7
385.326	1	-6
385.497	1	13
385.668	1	4
385.839	1	4
386.010	1	4
386.180	1	5
386.351	1	7
386.522	1	11
386.693	1	8
386.864	1	0
387.035	1	13
387.205	1	10
387.376	1	4
387.547	1	13
387.718	1	2
387.889	1	5
388.060	1	4
388.230	1	4
388.401	1	0
388.572	1	5
388.743	1	3
388.914	1	15
389.084	1	16
389.255	1	3
389.426	1	-6
389.597	1	-1
389.768	1	6
389.939	1	20
390.109	1	-3
390.280	1	1
390.451	1	11
390.622	1	2
390.793	1	3
390.963	1	-7
391.134	1	14
391.305	1	0
391.476	1	3
391.647	1	1
391.817	1	2
391.988	1	0
392.159	1	5
392.330	1	-1
392.501	1	8
392.671	1	18
392.842	1	-1
393.013	1	8
393.184	1	3
393.355	1	6
393.525	1	0
393.696	1	3
393.867	1	1
394.038	1	1
394.208	1	7
394.379	1	17
394.550	1	19
394.721	1	3
394.892	1	4
395.062	1	-4
395.233	1	16
395.404	1	12
395.575	1	7
395.746	1	4
395.916	1	4
396.087	1	4
396.258	1	9
396.429	1	13
396.599	1	8
396.770	1	7
396.941	1	3
397.112	1	-2
397.283	1	5
397.453	1	-1
397.624	1	2
397.795	1	8
397.966	1	5
398.136	1	9
398.307	1	17
398.478	1	4
398.649	1	-2
398.819	1	15
398.990	1	9
399.161	1	23
399.332	1	2
399.503	1	26
399.673	1	8
399.844	1	-1
400.015	1	-4
400.186	1	8
400.356	1	7
400.527	1	4
400.698	1	13
400.869	1	-1
401.039	1	2
401.210	1	5
401.381	1	5
401.552	1	7
401.722	1	16
401.893	1	11
402.064	1	10
402.235	1	10
402.405	1	12
402.576	1	10
402.747	1	11
402.918	1	2
403.088	1	3
403.259	1	5
403.430	1	2
403.601	1	13
403.771	1	-2
403.942	1	10
404.113	1	4
404.284	1	8
404.454	1	8
404.625	1	2
404.796	1	10
404.967	1	5
405.137	1	6
405.308	1	-3
405.479	1	11
405.649	1	7
405.820	1	0
405.991	1	10
406.162	1	0
406.332	1	6
406.503	1	7
406.674	1	5
406.845	1	12
407.015	1	6
407.186	1	-4
407.357	1	7
407.527	1	-3
407.698	1	6
407.869	1	8
408.040	1	20
408.210	1	17
408.381	1	1
408.552	1	-5
408.722	1	6
408.893	1	-6
409.064	1	7
409.235	1	5
409.405	1	7
409.576	1	4
409.747	1	4
409.917	1	13
410.088	1	3
410.259	1	8
410.430	1	2
410.600	1	3
410.771	1	10
410.942	1	16
411.112	1	0
411.283	1	9
411.454	1	12
411.625	1	-2
411.795	1	4
411.966	1	8
412.137	1	-2
412.307	1	2
412.478	1	3
412.649	1	2
412.819	1	8
412.990	1	4
413.161	1	4
413.332	1	0
413.502	1	11
413.673	1	6
413.844	1	17
414.014	1	8
414.185	1	4
414.356	1	13
414.526	1	1
414.697	1	-2
414.868	1	4
415.038	1	4
415.209	1	7
415.380	1	8
415.550	1	14
415.721	1	10
415.892	1	10
416.063	1	10
416.233	1	4
416.404	1	2
416.575	1	4
416.745	1	11
416.916	1	0
417.087	1	5
417.257	1	1
417.428	1	15
417.599	1	14
417.769	1	8
417.940	1	-6
418.111	1	10
418.281	1	16
418.452	1	12
418.623	1	1
418.793	1	3
418.964	1	15
419.135	1	15
419.305	1	9
419.476	1	2
419.647	1	6
419.817	1	11
419.988	1	13
420.159	1	15
420.329	1	11
420.500	1	9
420.671	1	8
420.841	1	6
421.012	1	0
421.183	1	4
421.353	1	18
421.524	1	5
421.695	1	14
421.865	1	12
422.036	1	14
422.206	1	12
422.377	1	3
422.548	1	10
422.718	1	8
422.889	1	11
423.060	1	-1
423.230	1	-1
423.401	1	2
423.572	1	2
423.742	1	24
423.913	1	12
424.084	1	4
424.254	1	1
424.425	1	12
424.595	1	19
424.766	1	0
424.937	1	8
425.107	1	5
425.278	1	9
425.449	1	4
425.619	1	1
425.790	1	15
425.961	1	14
426.131	1	5
426.302	1	4
426.472	1	6
426.643	1	9
426.814	1	5
426.984	1	0
427.155	1	9
427.326	1	14
427.496	1	3
427.667	1	9
427.837	1	6
428.008	1	14
428.179	1	14
428.349	1	11
428.520	1	1
428.691	1	14
428.861	1	13
429.032	1	8
429.202	1	-2
429.373	1	7
429.544	1	10
429.714	1	13
429.885	1	17
430.055	1	12
430.226	1	2
430.397	1	3
430.567	1	-3
430.738	1	10
430.909	1	11
431.079	1	9
431.250	1	12
431.420	1	12
431.591	1	10
431.762	1	-1
431.932	1	-3
432.103	1	5
432.273	1	11
432.444	1	12
432.615	1	3
432.785	1	5
432.956	1	13
433.126	1	4
433.297	1	2
433.468	1	5
433.638	1	9
433.809	1	4
433.979	1	7
434.150	1	0
434.320	1	5
434.491	1	20
434.662	1	14
434.832	1	5
435.003	1	13
435.173	1	15
435.344	1	6
435.515	1	9
435.685	1	1
435.856	1	6
436.026	1	3
436.197	1	1
436.368	1	-3
436.538	1	8
436.709	1	6
436.879	1	7
437.050	1	3
437.220	1	16
437.391	1	11
437.562	1	9
437.732	1	6
437.903	1	2
438.073	1	-4
438.244	1	12
438.414	1	12
438.585	1	12
438.756	1	-2
438.926	1	0
439.097	1	11
439.267	1	5
439.438	1	6
439.608	1	10
439.779	1	0
439.949	1	9
440.120	1	2
440.291	1	13
440.461	1	0
440.632	1	5
440.802	1	2
440.973	1	16
441.143	1	6
441.314	1	5
441.485	1	2
441.655	1	12
441.826	1	12
441.996	1	4
442.167	1	11
442.337	1	-1
442.508	1	6
442.678	1	17
442.849	1	6
443.019	1	6
443.190	1	10
443.361	1	17
443.531	1	6
443.702	1	12
443.872	1	3
444.043	1	12
444.213	1	0
444.384	1	17
444.554	1	5
444.725	1	11
444.895	1	0
445.066	1	1
445.237	1	12
445.407	1	14
445.578	1	5
445.748	1	2
445.919	1	1
446.089	1	9
446.260	1	7
446.430	1	13
446.601	1	6
446.771	1	10
446.942	1	-6
447.112	1	8
447.283	1	14
447.453	1	-5
447.624	1	-1
447.794	1	-1
447.965	1	4
448.135	1	6
448.306	1	8
448.477	1	10
448.647	1	-1
448.818	1	6
448.988	1	15
449.159	1	5
449.329	1	14
449.500	1	1
449.670	1	6
449.841	1	6
450.011	1	2
450.182	1	14
450.352	1	-2
450.523	1	3
450.693	1	11
450.864	1	-4
451.034	1	1
451.205	1	2
451.375	1	9
451.546	1	-2
451.716	1	14
451.887	1	8
452.057	1	9
452.228	1	3
452.398	1	9
452.569	1	0
452.739	1	6
452.910	1	1
453.080	1	14
453.251	1	0
453.421	1	11
453.592	1	3
453.762	1	4
453.933	1	3
454.103	1	12
454.274	1	-3
454.444	1	-5
454.615	1	4
454.785	1	6
454.956	1	12
455.126	1	-5
455.297	1	9
455.467	1	11
455.638	1	7
455.808	1	8
455.979	1	7
456.149	1	-4
456.320	1	9
456.490	1	-7
456.661	1	0
456.831	1	7
457.001	1	8
457.172	1	5
457.342	1	3
457.513	1	9
457.683	1	3
457.854	1	14
458.024	1	16
458.195	1	4
458.365	1	2
458.536	1	13
458.706	1	14
458.877	1	9
459.047	1	-9
459.218	1	14
459.388	1	6
459.559	1	7
459.729	1	-7
459.899	1	3
460.070	1	7
460.240	1	-2
460.411	1	12
460.581	1	-3
460.752	1	-2
460.922	1	14
461.093	1	12
461.263	1	11
461.434	1	-2
461.604	1	1
461.775	1	14
461.945	1	5
462.115	1	1
462.286	1	1
462.456	1	2
462.627	1	1
462.797	1	3
462.968	1	5
463.138	1	-3
463.309	1	7
463.479	1	7
463.649	1	-9
463.820	1	14
463.990	1	0
464.161	1	-4
464.331	1	7
464.502	1	-2
464.672	1	5
464.843	1	18
465.013	1	2
465.183	1	2
465.354	1	12
465.524	1	6
465.695	1	1
465.865	1	3
466.036	1	10
466.206	1	6
466.376	1	6
466.547	1	5
466.717	1	-9
466.888	1	-1
467.058	1	-1
467.229	1	9
467.399	1	-6
467.569	1	4
467.740	1	11
467.910	1	11
468.081	1	1
468.251	1	-6
468.422	1	9
468.592	1	0
468.762	1	4
468.933	1	6
469.103	1	8
469.274	1	7
469.444	1	5
469.614	1	2
469.785	1	-5
469.955	1	3
470.126	1	11
470.296	1	9
470.467	1	4
470.637	1	1
470.807	1	9
470.978	1	2
471.148	1	3
471.319	1	5
471.489	1	14
471.659	1	-5
471.830	1	6
472.000	1	-2
472.171	1	3
472.341	1	12
472.511	1	5
472.682	1	12
472.852	1	-1
473.023	1	9
473.193	1	0
473.363	1	-1
473.534	1	9
473.704	1	2
473.875	1	-2
474.045	1	2
474.215	1	8
474.386	1	9
474.556	1	-2
474.727	1	3
474.897	1	-6
475.067	1	8
475.238	1	9
475.408	1	5
475.578	1	-10
475.749	1	-5
475.919	1	6
476.090	1	16
476.260	1	-3
476.430	1	-13
476.601	1	8
476.771	1	2
476.942	1	5
477.112	1	6
477.282	1	-2
477.453	1	4
477.623	1	-2
477.793	1	-6
477.964	1	19
478.134	1	7
478.305	1	9
478.475	1	3
478.645	1	7
478.816	1	1
478.986	1	7
479.156	1	-2
479.327	1	6
479.497	1	1
479.667	1	13
479.838	1	16
480.008	1	5
480.179	1	2
480.349	1	9
480.519	1	-7
480.690	1	13
480.860	1	1
481.030	1	2
481.201	1	5
481.371	1	-6
481.541	1	-2
481.712	1	15
481.882	1	4
482.053	1	0
482.223	1	6
482.393	1	6
482.564	1	4
482.734	1	2
482.904	1	2
483.075	1	5
483.245	1	-2
483.415	1	4
483.586	1	-5
483.756	1	7
483.926	1	1
484.097	1	8
484.267	1	5
484.437	1	8
484.608	1	2
484.778	1	3
484.948	1	9
485.119	1	9
485.289	1	-1
485.459	1	-2
485.630	1	9
485.800	1	-4
485.970	1	-5
486.141	1	12
486.311	1	6
486.481	1	-3
486.652	1	-5
486.822	1	10
486.992	1	6
487.163	1	1
487.333	1	-9
487.503	1	6
487.674	1	0
487.844	1	-2
488.014	1	11
488.185	1	4
488.355	1	5
488.525	1	-3
488.696	1	8
488.866	1	-3
489.036	1	8
489.207	1	8
489.377	1	10
489.547	1	12
489.718	1	-7
489.888	1	12
490.058	1	8
490.228	1	5
490.399	1	6
490.569	1	-7
490.739	1	-2
490.910	1	5
491.080	1	4
491.250	1	7
491.421	1	5
491.591	1	4
491.761	1	4
491.932	1	10
492.102	1	9
492.272	1	-7
492.442	1	5
492.613	1	2
492.783	1	7
492.953	1	-1
493.124	1	4
493.294	1	-11
493.464	1	6
493.635	1	1
493.805	1	15
493.975	1	13
494.145	1	2
494.316	1	-3
494.486	1	4
494.656	1	5
494.827	1	-1
494.997	1	-2
495.167	1	8
495.337	1	-1
495.508	1	8
495.678	1	5
495.848	1	-4
496.019	1	4
496.189	1	-4
496.359	1	11
496.529	1	-4
496.700	1	-1
496.870	1	1
497.040	1	7
497.211	1	-5
497.381	1	7
497.551	1	11
497.721	1	1
497.892	1	7
498.062	1	5
498.232	1	8
498.403	1	9
498.573	1	1
498.743	1	7
498.913	1	12
499.084	1	7
499.254	1	3
499.424	1	-1
499.594	1	9
499.765	1	7
499.935	1	19
500.105	1	9
500.275	1	-4
500.446	1	0
500.616	1	0
500.786	1	7
500.956	1	15
501.127	1	13
501.297	1	5
501.467	1	6
501.638	1	12
501.808	1	6
501.978	1	4
502.148	1	7
502.319	1	12
502.489	1	-2
502.659	1	16
502.829	1	12
503.000	1	8
503.170	1	12
503.340	1	-6
503.510	1	1
503.681	1	1
503.851	1	12
504.021	1	3
504.191	1	-6
504.362	1	-3
504.532	1	18
504.702	1	4
504.872	1	-2
505.042	1	11
505.213	1	-1
505.383	1	9
505.553	1	5
505.723	1	14
505.894	1	6
506.064	1	5
506.234	1	14
506.404	1	5
506.575	1	18
506.745	1	0
506.915	1	7
507.085	1	7
507.256	1	13
507.426	1	3
507.596	1	19
507.766	1	3
507.936	1	8
508.107	1	-6
508.277	1	5
508.447	1	3
508.617	1	13
508.788	1	5
508.958	1	7
509.128	1	14
509.298	1	-1
509.468	1	8
509.639	1	-1
509.809	1	6
509.979	1	3
510.149	1	1
510.319	1	5
510.490	1	3
510.660	1	6
510.830	1	-8
511.000	1	2
511.171	1	16
511.341	1	8
511.511	1	4
511.681	1	8
511.851	1	19
512.022	1	-9
512.192	1	9
512.362	1	14
512.532	1	19
512.702	1	1
512.873	1	7
513.043	1	7
513.213	1	4
513.383	1	9
513.553	1	10
513.724	1	6
513.894	1	-8
514.064	1	-6
514.234	1	12
514.404	1	10
514.575	1	-4
514.745	1	-2
514.915	1	11
515.085	1	17
515.255	1	0
515.425	1	13
515.596	1	13
515.766	1	8
515.936	1	-12
516.106	1	13
516.276	1	9
516.447	1	16
516.617	1	5
516.787	1	3
516.957	1	7
517.127	1	12
517.297	1	-2
517.468	1	12
517.638	1	2
517.808	1	5
517.978	1	0
518.148	1	16
518.319	1	12
518.489	1	4
518.659	1	14
518.829	1	8
518.999	1	9
519.169	1	2
519.340	1	19
519.510	1	5
519.680	1	6
519.850	1	10
520.020	1	12
520.190	1	1
520.361	1	6
520.531	1	9
520.701	1	10
520.871	1	2
521.041	1	11
521.211	1	9
521.382	1	12
521.552	1	5
521.722	1	9
521.892	1	11
522.062	1	-3
522.232	1	10
522.402	1	18
522.573	1	9
522.743	1	6
522.913	1	14
523.083	1	-6
523.253	1	13
523.423	1	0
523.593	1	19
523.764	1	-1
523.934	1	15
524.104	1	10
524.274	1	-1
524.444	1	17
524.614	1	14
524.784	1	7
524.955	1	6
525.125	1	0
525.295	1	12
525.465	1	10
525.635	1	7
525.805	1	15
525.975	1	-2
526.146	1	14
526.316	1	-9
526.486	1	6
526.656	1	11
526.826	1	2
526.996	1	0
527.166	1	0
527.337	1	23
527.507	1	22
527.677	1	24
527.847	1	-2
528.017	1	5
528.187	1	20
528.357	1	17
528.527	1	14
528.698	1	12
528.868	1	5
529.038	1	13
529.208	1	10
529.378	1	15
529.548	1	8
529.718	1	6
529.888	1	10
530.058	1	12
530.229	1	10
530.399	1	5
530.569	1	10
530.739	1	10
530.909	1	13
531.079	1	14
531.249	1	-2
531.419	1	13
531.589	1	1
531.760	1	13
531.930	1	2
532.100	1	14
532.270	1	6
532.440	1	11
532.610	1	8
532.780	1	11
532.950	1	7
533.120	1	6
533.290	1	12
533.461	1	4
533.631	1	1
533.801	1	14
533.971	1	5
534.141	1	17
534.311	1	-2
534.481	1	17
534.651	1	-5
534.821	1	1
534.991	1	6
535.162	1	18
535.332	1	9
535.502	1	14
535.672	1	8
535.842	1	-2
536.012	1	10
536.182	1	23
536.352	1	10
536.522	1	-1
536.692	1	5
536.862	1	5
537.032	1	20
537.203	1	0
537.373	1	6
537.543	1	4
537.713	1	-2
537.883	1	5
538.053	1	11
538.223	1	14
538.393	1	1
538.563	1	2
538.733	1	17
538.903	1	3
539.073	1	-3
539.243	1	10
539.413	1	8
539.584	1	2
539.754	1	4
539.924	1	11
540.094	1	10
540.264	1	15
540.434	1	10
540.604	1	14
540.774	1	7
540.944	1	13
541.114	1	11
541.284	1	16
541.454	1	4
541.624	1	6
541.794	1	4
541.964	1	-4
542.134	1	5
542.305	1	12
542.475	1	15
542.645	1	5
542.815	1	1
542.985	1	8
543.155	1	6
543.325	1	17
543.495	1	12
543.665	1	6
543.835	1	6
544.005	1	11
544.175	1	0
544.345	1	10
544.515	1	7
544.685	1	9
544.855	1	9
545.025	1	11
545.195	1	5
545.365	1	8
545.535	1	3
545.705	1	9
545.875	1	9
546.045	1	13
546.216	1	-1
546.386	1	-10
546.556	1	2
546.726	1	2
546.896	1	6
547.066	1	0
547.236	1	3
547.406	1	0
547.576	1	8
547.746	1	1
547.916	1	6
548.086	1	5
548.256	1	8
548.426	1	1
548.596	1	14
548.766	1	3
548.936	1	9
549.106	1	1
549.276	1	16
549.446	1	5
549.616	1	11
549.786	1	5
549.956	1	11
550.126	1	6
550.296	1	9
550.466	1	1
550.636	1	-8
550.806	1	17
550.976	1	0
551.146	1	4
551.316	1	1
551.486	1	8
551.656	1	9
551.826	1	-5
551.996	1	13
552.166	1	0
552.336	1	2
552.506	1	7
552.676	1	15
552.846	1	16
553.016	1	-3
553.186	1	-3
553.356	1	8
553.526	1	2
553.696	1	-1
553.866	1	1
554.036	1	8
554.206	1	10
554.376	1	6
554.546	1	1
554.716	1	6
554.886	1	8
555.056	1	6
555.226	1	7
555.396	1	2
555.566	1	11
555.736	1	3
555.906	1	3
556.076	1	-3
556.246	1	10
556.416	1	17
556.586	1	7
556.756	1	-2
556.926	1	5
557.096	1	9
557.266	1	8
557.436	1	14
557.606	1	-1
557.776	1	7
557.946	1	17
558.116	1	1
558.286	1	-8
558.456	1	4
558.626	1	14
558.796	1	14
558.966	1	1
559.136	1	6
559.306	1	6
559.476	1	2
559.646	1	12
559.816	1	10
559.986	1	7
560.155	1	13
560.325	1	11
560.495	1	5
560.665	1	9
560.835	1	-4
561.005	1	12
561.175	1	4
561.345	1	1
561.515	1	18
561.685	1	6
561.855	1	1
562.025	1	-1
562.195	1	-4
562.365	1	-1
562.535	1	2
562.705	1	9
562.875	1	3
563.045	1	10
563.215	1	3
563.385	1	12
563.555	1	1
563.725	1	-3
563.895	1	5
564.064	1	8
564.234	1	-2
564.404	1	4
564.574	1	5
564.744	1	15
564.914	1	10
565.084	1	6
565.254	1	8
565.424	1	-4
565.594	1	5
565.764	1	9
565.934	1	12
566.104	1	10
566.274	1	12
566.444	1	9
566.614	1	1
566.783	1	10
566.953	1	16
567.123	1	1
567.293	1	7
567.463	1	5
567.633	1	5
567.803	1	14
567.973	1	2
568.143	1	1
568.313	1	5
568.483	1	4
568.653	1	3
568.823	1	1
568.993	1	10
569.162	1	2
569.332	1	1
569.502	1	6
569.672	1	5
569.842	1	10
570.012	1	-9
570.182	1	7
570.352	1	15
570.522	1	0
570.692	1	10
570.862	1	-16
571.031	1	17
571.201	1	20
571.371	1	7
571.541	1	-3
571.711	1	3
571.881	1	0
572.051	1	14
572.221	1	3
572.391	1	5
572.561	1	10
572.731	1	6
572.900	1	14
573.070	1	4
573.240	1	1
573.410	1	6
573.580	1	3
573.750	1	9
573.920	1	17
574.090	1	4
574.260	1	9
574.430	1	-4
574.599	1	6
574.769	1	2
574.939	1	6
575.109	1	13
575.279	1	4
575.449	1	6
575.619	1	0
575.789	1	0
575.959	1	-1
576.128	1	13
576.298	1	-3
576.468	1	12
576.638	1	0
576.808	1	1
576.978	1	10
577.148	1	-7
577.318	1	4
577.487	1	1
577.657	1	2
577.827	1	8
577.997	1	10
578.167	1	15
578.337	1	1
578.507	1	1
578.677	1	1
578.846	1	-6
579.016	1	4
579.186	1	5
579.356	1	5
579.526	1	-15
579.696	1	7
579.866	1	0
580.036	1	11
580.205	1	1
580.375	1	3
580.545	1	22
580.715	1	2
580.885	1	-3
581.055	1	-8
581.225	1	4
581.394	1	5
581.564	1	7
581.734	1	6
581.904	1	0
582.074	1	2
582.244	1	3
582.414	1	2
582.583	1	3
582.753	1	6
582.923	1	1
583.093	1	2
583.263	1	-4
583.433	1	14
583.603	1	4
583.772	1	11
583.942	1	-3
584.112	1	1
584.282	1	1
584.452	1	2
584.622	1	7
584.791	1	1
584.961	1	1
585.131	1	3
585.301	1	2
585.471	1	5
585.641	1	9
585.811	1	2
585.980	1	5
586.150	1	3
586.320	1	-3
586.490	1	2
586.660	1	6
586.830	1	6
586.999	1	5
587.169	1	12
587.339	1	7
587.509	1	0
587.679	1	8
587.849	1	11
588.018	1	-7
588.188	1	5
588.358	1	10
588.528	1	0
588.698	1	7
588.867	1	8
589.037	1	10
589.207	1	16
589.377	1	-1
589.547	1	6
589.717	1	4
589.886	1	6
590.056	1	2
590.226	1	-2
590.396	1	8
590.566	1	3
590.735	1	6
590.905	1	-9
591.075	1	12
591.245	1	-9
591.415	1	3
591.585	1	-6
591.754	1	1
591.924	1	-4
592.094	1	2
592.264	1	-10
592.434	1	-3
592.603	1	0
592.773	1	0
592.943	1	0
593.113	1	3
593.283	1	6
593.452	1	13
593.622	1	0
593.792	1	3
593.962	1	2
594.132	1	11
594.301	1	6
594.471	1	-8
594.641	1	3
594.811	1	-3
594.981	1	2
595.150	1	2
595.320	1	12
595.490	1	-4
595.660	1	11
595.829	1	-1
595.999	1	-1
596.169	1	-1
596.339	1	-2
596.509	1	3
596.678	1	-5
596.848	1	7
597.018	1	-6
597.188	1	7
597.358	1	-4
597.527	1	13
597.697	1	-4
597.867	1	0
598.037	1	-1
598.206	1	9
598.376	1	1
598.546	1	10
598.716	1	1
598.885	1	9
599.055	1	5
599.225	1	-1
599.395	1	-13
599.565	1	0
599.734	1	7
599.904	1	-1
600.074	1	1
600.244	1	-1
600.413	1	6
600.583	1	5
600.753	1	7
600.923	1	-1
601.092	1	-6
601.262	1	-2
601.432	1	-14
601.602	1	8
601.771	1	2
601.941	1	-3
602.111	1	0
602.281	1	5
602.451	1	2
602.620	1	7
602.790	1	5
602.960	1	-6
603.130	1	4
603.299	1	11
603.469	1	6
603.639	1	10
603.809	1	1
603.978	1	3
604.148	1	-1
604.318	1	-1
604.487	1	4
604.657	1	6
604.827	1	8
604.997	1	7
605.166	1	2
605.336	1	3
605.506	1	-5
605.676	1	-2
605.845	1	5
606.015	1	3
606.185	1	2
606.355	1	-7
606.524	1	3
606.694	1	5
606.864	1	11
607.034	1	7
607.203	1	16
607.373	1	6
607.543	1	1
607.712	1	2
607.882	1	6
608.052	1	-11
608.222	1	-7
608.391	1	2
608.561	1	1
608.731	1	-10
608.901	1	4
609.070	1	6
609.240	1	8
609.410	1	1
609.579	1	4
609.749	1	9
609.919	1	-7
610.089	1	7
610.258	1	12
610.428	1	6
610.598	1	-2
610.767	1	8
610.937	1	1
611.107	1	9
611.277	1	5
611.446	1	11
611.616	1	10
611.786	1	0
611.955	1	3
612.125	1	8
612.295	1	8
612.465	1	-4
612.634	1	5
612.804	1	4
612.974	1	-1
613.143	1	-1
613.313	1	10
613.483	1	3
613.652	1	18
613.822	1	1
613.992	1	4
614.162	1	10
614.331	1	13
614.501	1	3
614.671	1	5
614.840	1	11
615.010	1	5
615.180	1	4
615.349	1	3
615.519	1	-1
615.689	1	-1
615.858	1	-7
616.028	1	16
616.198	1	15
616.368	1	10
616.537	1	-3
616.707	1	6
616.877	1	-3
617.046	1	-4
617.216	1	6
617.386	1	5
617.555	1	17
617.725	1	-4
617.895	1	7
618.064	1	5
618.234	1	0
618.404	1	8
618.573	1	17
618.743	1	6
618.913	1	2
619.082	1	14
619.252	1	-4
619.422	1	17
619.591	1	10
619.761	1	-2
619.931	1	13
620.100	1	3
620.270	1	-2
620.440	1	7
620.609	1	2
620.779	1	2
620.949	1	-1
621.118	1	14
621.288	1	8
621.458	1	7
621.627	1	3
621.797	1	1
621.967	1	-4
622.136	1	4
622.306	1	-7
622.476	1	6
622.645	1	-6
622.815	1	6
622.985	1	4
623.154	1	-3
623.324	1	-1
623.494	1	-4
623.663	1	-2
623.833	1	2
624.002	1	2
624.172	1	-1
624.342	1	10
624.511	1	-5
624.681	1	-1
624.851	1	-1
625.020	1	3
625.190	1	1
625.360	1	9
625.529	1	-1
625.699	1	14
625.869	1	12
626.038	1	2
626.208	1	-4
626.377	1	8
626.547	1	-2
626.717	1	8
626.886	1	-4
627.056	1	10
627.226	1	11
627.395	1	6
627.565	1	11
627.735	1	1
627.904	1	0
628.074	1	3
628.243	1	8
628.413	1	6
628.583	1	12
628.752	1	-2
628.922	1	8
629.091	1	9
629.261	1	6
629.431	1	-4
629.600	1	-4
629.770	1	12
629.940	1	15
630.109	1	-2
630.279	1	9
630.448	1	6
630.618	1	3
630.788	1	4
630.957	1	9
631.127	1	2
631.297	1	0
631.466	1	-3
631.636	1	1
631.805	1	6
631.975	1	-1
632.145	1	0
632.314	1	7
632.484	1	9
632.653	1	-2
632.823	1	-3
632.993	1	3
633.162	1	2
633.332	1	7
633.501	1	-2
633.671	1	3
633.841	1	9
634.010	1	2
634.180	1	3
634.349	1	15
634.519	1	1
634.689	1	-1
634.858	1	4
635.028	1	4
635.197	1	6
635.367	1	17
635.537	1	2
635.706	1	-1
635.876	1	9
636.045	1	-1
636.215	1	0
636.384	1	11
636.554	1	-11
636.724	1	1
636.893	1	5
637.063	1	-1
637.232	1	3
637.402	1	1
637.572	1	-2
637.741	1	3
637.911	1	8
638.080	1	5
638.250	1	-2
638.419	1	5
638.589	1	8
638.759	1	9
638.928	1	7
639.098	1	0
639.267	1	6
639.437	1	2
639.606	1	14
639.776	1	1
639.946	1	1
640.115	1	-4
640.285	1	0
640.454	1	3
640.624	1	19
640.793	1	-1
640.963	1	10
641.132	1	5
641.302	1	5
641.472	1	12
641.641	1	6
641.811	1	-3
641.980	1	11
642.150	1	-4
642.319	1	16
642.489	1	8
642.659	1	8
642.828	1	14
642.998	1	-3
643.167	1	1
643.337	1	-1
643.506	1	-2
643.676	1	0
643.845	1	14
644.015	1	-1
644.184	1	21
644.354	1	13
644.524	1	3
644.693	1	-1
644.863	1	3
645.032	1	-2
645.202	1	7
645.371	1	5
645.541	1	-2
645.710	1	5
645.880	1	4
646.049	1	7
646.219	1	5
646.388	1	8
646.558	1	-10
646.728	1	11
646.897	1	2
647.067	1	17
647.236	1	-8
647.406	1	7
647.575	1	11
647.745	1	-2
647.914	1	-1
648.084	1	-10
648.253	1	14
648.423	1	5
648.592	1	6
648.762	1	-2
648.931	1	8
649.101	1	6
649.270	1	6
649.440	1	3
649.610	1	11
649.779	1	4
649.949	1	13
650.118	1	1
650.288	1	7
650.457	1	16
650.627	1	16
650.796	1	2
650.966	1	2
651.135	1	1
651.305	1	-1
651.474	1	1
651.644	1	11
651.813	1	10
651.983	1	2
652.152	1	3
652.322	1	5
652.491	1	8
652.661	1	8
652.830	1	2
653.000	1	0
653.169	1	-1
653.339	1	2
653.508	1	-3
653.678	1	2
653.847	1	7
654.017	1	9
654.186	1	5
654.356	1	6
654.525	1	5
654.695	1	21
654.864	1	2
655.034	1	-1
655.203	1	2
655.373	1	2
655.542	1	1
655.712	1	13
655.881	1	9
656.051	1	-3
656.220	1	-1
656.390	1	5
656.559	1	11
656.729	1	11
656.898	1	7
657.068	1	10
657.237	1	-6
657.406	1	0
657.576	1	9
657.745	1	20
657.915	1	7
658.084	1	7
658.254	1	9
658.423	1	9
658.593	1	1
658.762	1	0
658.932	1	5
659.101	1	5
659.271	1	0
659.440	1	7
659.610	1	-6
659.779	1	10
659.949	1	6
660.118	1	-5
660.288	1	-5
660.457	1	4
660.626	1	5
660.796	1	18
660.965	1	5
661.135	1	1
661.304	1	13
661.474	1	5
661.643	1	7
661.813	1	-3
661.982	1	-7
662.152	1	3
662.321	1	2
662.491	1	12
662.660	1	7
662.829	1	4
662.999	1	7
663.168	1	-2
663.338	1	1
663.507	1	14
663.677	1	8
663.846	1	-5
664.016	1	-3
664.185	1	-3
664.354	1	1
664.524	1	17
664.693	1	5
664.863	1	-9
665.032	1	14
665.202	1	1
665.371	1	11
665.541	1	-3
665.710	1	6
665.879	1	10
666.049	1	5
666.218	1	1
666.388	1	3
666.557	1	2
666.727	1	13
666.896	1	-1
667.065	1	1
667.235	1	-4
667.404	1	-3
667.574	1	-6
667.743	1	-8
667.913	1	8
668.082	1	9
668.251	1	-5
668.421	1	9
668.590	1	2
668.760	1	9
668.929	1	5
669.099	1	5
669.268	1	-4
669.437	1	-5
669.607	1	-8
669.776	1	0
669.946	1	-1
670.115	1	10
670.285	1	-5
670.454	1	8
670.623	1	9
670.793	1	-3
670.962	1	-6
671.132	1	3
671.301	1	3
671.470	1	-2
671.640	1	4
671.809	1	5
671.979	1	1
672.148	1	8
672.317	1	1
672.487	1	-1
672.656	1	6
672.826	1	3
672.995	1	1
673.164	1	-2
673.334	1	0
673.503	1	1
673.673	1	17
673.842	1	4
674.011	1	9
674.181	1	-3
674.350	1	9
674.520	1	3
674.689	1	-2
674.858	1	6
675.028	1	6
675.197	1	9
675.367	1	1
675.536	1	0
675.705	1	-7
675.875	1	3
676.044	1	4
676.214	1	1
676.383	1	6
676.552	1	2
676.722	1	1
676.891	1	3
677.060	1	0
677.230	1	3
677.399	1	15
677.569	1	17
677.738	1	3
677.907	1	12
678.077	1	-2
678.246	1	5
678.416	1	0
678.585	1	3
678.754	1	1
678.924	1	3
679.093	1	11
679.262	1	7
679.432	1	-9
679.601	1	15
679.771	1	-4
679.940	1	-1
680.109	1	4
680.279	1	2
680.448	1	3
680.617	1	-2
680.787	1	-10
680.956	1	11
681.125	1	-3
681.295	1	2
681.464	1	5
681.634	1	4
681.803	1	4
681.972	1	7
682.142	1	7
682.311	1	1
682.480	1	-3
682.650	1	0
682.819	1	-5
682.988	1	12
683.158	1	3
683.327	1	-1
683.496	1	-1
683.666	1	12
683.835	1	3
684.004	1	-9
684.174	1	1
684.343	1	4
684.512	1	1
684.682	1	12
684.851	1	2
685.021	1	15
685.190	1	3
685.359	1	4
685.529	1	2
685.698	1	0
685.867	1	-1
686.037	1	-3
686.206	1	-4
686.375	1	8
686.545	1	8
686.714	1	15
686.883	1	5
687.053	1	14
687.222	1	-6
687.391	1	1
687.561	1	10
687.730	1	16
687.899	1	-1
688.069	1	8
688.238	1	6
688.407	1	6
688.577	1	-5
688.746	1	-5
